(-0.476623535, 0.5576172, -0.443115234, 0.5153198)
(-0.4765625, 0.557312, -0.4437256, 0.515197754)
(-0.475952148, 0.55682373, -0.445007324, 0.5150757)
(-0.475952148, 0.55682373, -0.445007324, 0.5150757)
(-0.476074219, 0.55670166, -0.445251465, 0.5149536)
(-0.476074219, 0.55670166, -0.445251465, 0.5149536)
(-0.4761963, 0.556335449, -0.4454956, 0.515014648)
(-0.4761963, 0.556335449, -0.4454956, 0.515014648)
(-0.475952148, 0.5557251, -0.4459839, 0.5155029)
(-0.4753418, 0.555603, -0.447998047, 0.5144043)
(-0.4753418, 0.555603, -0.447998047, 0.5144043)
(-0.4727173, 0.556884766, -0.449646, 0.513977051)
(-0.4727173, 0.556884766, -0.449646, 0.513977051)
(-0.471923828, 0.556884766, -0.449951172, 0.514465332)
(-0.471923828, 0.556884766, -0.449951172, 0.514465332)
(-0.4716797, 0.5569458, -0.450561523, 0.5140991)
(-0.4716797, 0.5569458, -0.450561523, 0.5140991)
(-0.470947266, 0.557922363, -0.451416016, 0.512939453)
(-0.470947266, 0.557922363, -0.451416016, 0.512939453)
(-0.469299316, 0.558227539, -0.452209473, 0.513427734)
(-0.469299316, 0.558227539, -0.452209473, 0.513427734)
(-0.4680786, 0.5578613, -0.4527588, 0.514526367)
(-0.467102051, 0.5579834, -0.452819824, 0.5151367)
(-0.466369629, 0.559143066, -0.452575684, 0.5147705)
(-0.466369629, 0.559143066, -0.452575684, 0.5147705)
(-0.465576172, 0.559997559, -0.452697754, 0.514465332)
(-0.465576172, 0.559997559, -0.452697754, 0.514465332)
(-0.463806152, 0.5595093, -0.453613281, 0.5158081)
(-0.463684082, 0.559814453, -0.4537964, 0.5154419)
(-0.4633789, 0.5602417, -0.454101563, 0.5149536)
(-0.4633789, 0.5602417, -0.454101563, 0.5149536)
(-0.46295166, 0.559997559, -0.454650879, 0.5151367)
(-0.46295166, 0.559997559, -0.454650879, 0.5151367)
(-0.4630127, 0.559448242, -0.4550171, 0.5153198)
(-0.4631958, 0.5593872, -0.4553833, 0.5148926)
(-0.4631958, 0.5593872, -0.4553833, 0.5148926)
(-0.4631958, 0.5596924, -0.455627441, 0.514343262)
(-0.4631958, 0.5596924, -0.455627441, 0.514343262)
(-0.4631958, 0.559814453, -0.4557495, 0.514160156)
(-0.4631958, 0.559448242, -0.455871582, 0.5144043)
(-0.4631958, 0.559448242, -0.455871582, 0.5144043)
(-0.4631958, 0.559448242, -0.455871582, 0.5144043)
(-0.463562, 0.5593872, -0.4557495, 0.5142212)
(-0.463562, 0.5593872, -0.4557495, 0.5142212)
(-0.463989258, 0.5595703, -0.455627441, 0.513793945)
(-0.464111328, 0.5593872, -0.45513916, 0.5142822)
(-0.464111328, 0.5593872, -0.45513916, 0.5142822)
(-0.4644165, 0.5593872, -0.45489502, 0.5142212)
(-0.4644165, 0.5593872, -0.45489502, 0.5142212)
(-0.464477539, 0.559143066, -0.4547119, 0.514648438)
(-0.4645996, 0.558776855, -0.4547119, 0.5148926)
(-0.4645996, 0.558776855, -0.4547119, 0.5148926)
(-0.4645996, 0.558776855, -0.454772949, 0.5148926)
(-0.4645996, 0.558776855, -0.454772949, 0.514831543)
(-0.4645996, 0.558776855, -0.454772949, 0.514831543)
(-0.464660645, 0.558776855, -0.454772949, 0.514831543)
(-0.46472168, 0.5588989, -0.454406738, 0.5148926)
(-0.465026855, 0.558776855, -0.454223633, 0.5149536)
(-0.465026855, 0.558776855, -0.454223633, 0.5149536)
(-0.465209961, 0.5586548, -0.4543457, 0.5147705)
(-0.465209961, 0.5586548, -0.4543457, 0.5147705)
(-0.465209961, 0.5586548, -0.4543457, 0.5147705)
(-0.465209961, 0.5586548, -0.4543457, 0.5147705)
(-0.4649048, 0.558776855, -0.454223633, 0.5150757)
(-0.4649048, 0.558776855, -0.454223633, 0.5150757)
(-0.4649048, 0.558776855, -0.454223633, 0.5150757)
(-0.4649048, 0.558776855, -0.454223633, 0.5150757)
(-0.4649048, 0.558776855, -0.454223633, 0.5150757)
(-0.465026855, 0.559143066, -0.453735352, 0.515014648)
(-0.464660645, 0.558959961, -0.454040527, 0.515197754)
(-0.464660645, 0.558959961, -0.454040527, 0.515197754)
(-0.464538574, 0.558959961, -0.4543457, 0.5151367)
(-0.464538574, 0.559021, -0.454406738, 0.5149536)
(-0.464538574, 0.559021, -0.454406738, 0.5149536)
(-0.464538574, 0.559021, -0.454406738, 0.5149536)
(-0.464538574, 0.559021, -0.454467773, 0.5149536)
(-0.465271, 0.558959961, -0.453735352, 0.5149536)
(-0.465515137, 0.5587158, -0.453674316, 0.5150757)
(-0.465515137, 0.5587158, -0.453674316, 0.5150757)
(-0.465576172, 0.5587158, -0.453674316, 0.515014648)
(-0.465576172, 0.5587158, -0.453674316, 0.515014648)
(-0.465576172, 0.5587158, -0.453674316, 0.515014648)
(-0.465576172, 0.5588989, -0.453369141, 0.5150757)
(-0.465698242, 0.559021, -0.453063965, 0.5150757)
(-0.465698242, 0.559021, -0.453063965, 0.5150757)
(-0.465576172, 0.559021, -0.4529419, 0.515380859)
(-0.4658203, 0.558776855, -0.45300293, 0.5152588)
(-0.465881348, 0.558776855, -0.45300293, 0.5152588)
(-0.465881348, 0.558776855, -0.45300293, 0.5152588)
(-0.465881348, 0.558776855, -0.45300293, 0.5152588)
(-0.465881348, 0.558776855, -0.45300293, 0.5152588)
(-0.465759277, 0.55859375, -0.45324707, 0.5153198)
(-0.465759277, 0.55859375, -0.45324707, 0.5153198)
(-0.465759277, 0.5586548, -0.45324707, 0.5153198)
(-0.4661255, 0.5585327, -0.453125, 0.5151367)
(-0.4661255, 0.5585327, -0.453125, 0.5151367)
(-0.4661255, 0.5585327, -0.453186035, 0.5151367)
(-0.466003418, 0.5584717, -0.453063965, 0.5154419)
(-0.466003418, 0.558410645, -0.453063965, 0.5154419)
(-0.466003418, 0.558410645, -0.453063965, 0.5154419)
(-0.466003418, 0.558410645, -0.453125, 0.5154419)
(-0.466003418, 0.558410645, -0.453125, 0.5154419)
(-0.466003418, 0.558410645, -0.453125, 0.5154419)
(-0.466064453, 0.5585327, -0.452880859, 0.5154419)
(-0.466064453, 0.5585327, -0.452880859, 0.5154419)
(-0.465881348, 0.55859375, -0.452880859, 0.515563965)
(-0.465881348, 0.55859375, -0.452880859, 0.515563965)
(-0.465881348, 0.55859375, -0.452880859, 0.515563965)
(-0.465881348, 0.55859375, -0.452880859, 0.515563965)
(-0.465881348, 0.55859375, -0.452880859, 0.515563965)
(-0.465881348, 0.55859375, -0.452880859, 0.515563965)
(-0.465881348, 0.55859375, -0.452880859, 0.515563965)
(-0.465881348, 0.5585327, -0.4529419, 0.515563965)
(-0.465881348, 0.5585327, -0.4529419, 0.515563965)
(-0.465759277, 0.5585327, -0.453125, 0.515563965)
(-0.466003418, 0.558410645, -0.45300293, 0.5155029)
(-0.466003418, 0.558410645, -0.45300293, 0.5155029)
(-0.465942383, 0.55859375, -0.453063965, 0.515380859)
(-0.465698242, 0.5587158, -0.453186035, 0.5153198)
(-0.465698242, 0.5587158, -0.453186035, 0.5153198)
(-0.4654541, 0.558959961, -0.453186035, 0.5153198)
(-0.465393066, 0.558959961, -0.453186035, 0.5153198)
(-0.465393066, 0.558959961, -0.453186035, 0.5153198)
(-0.465271, 0.559143066, -0.4529419, 0.5154419)
(-0.465271, 0.559143066, -0.4529419, 0.5154419)
(-0.465148926, 0.559082031, -0.4529419, 0.515625)
(-0.465148926, 0.559082031, -0.4529419, 0.515625)
(-0.46472168, 0.559265137, -0.452880859, 0.515869141)
(-0.46472168, 0.559265137, -0.452880859, 0.515869141)
(-0.4645996, 0.559448242, -0.452575684, 0.516052246)
(-0.4645996, 0.559448242, -0.452575684, 0.516052246)
(-0.464477539, 0.5593262, -0.4524536, 0.5163574)
(-0.464477539, 0.5593262, -0.4524536, 0.5163574)
(-0.464355469, 0.5593872, -0.452331543, 0.5165405)
(-0.4644165, 0.5593872, -0.452331543, 0.5165405)
(-0.464477539, 0.5593872, -0.4519043, 0.516784668)
(-0.464477539, 0.5593872, -0.4519043, 0.516784668)
(-0.464477539, 0.5593872, -0.451965332, 0.516784668)
(-0.464477539, 0.5593872, -0.451965332, 0.516784668)
(-0.464538574, 0.5593872, -0.4519043, 0.516784668)
(-0.464538574, 0.5593872, -0.4519043, 0.516784668)
(-0.464538574, 0.5593872, -0.4519043, 0.516784668)
(-0.464538574, 0.5593872, -0.4519043, 0.516784668)
(-0.464538574, 0.5593872, -0.4519043, 0.516784668)
(-0.4644165, 0.5593262, -0.452148438, 0.516723633)
(-0.464172363, 0.5593872, -0.4522705, 0.516784668)
(-0.464172363, 0.5593872, -0.4522705, 0.516784668)
(-0.464172363, 0.5593872, -0.4522705, 0.516784668)
(-0.464172363, 0.5593872, -0.4522705, 0.516784668)
(-0.464172363, 0.5593872, -0.4522705, 0.516784668)
(-0.464172363, 0.5593872, -0.4522705, 0.516784668)
(-0.463928223, 0.5593262, -0.452514648, 0.5168457)
(-0.463928223, 0.5593262, -0.452514648, 0.5168457)
(-0.463806152, 0.5593872, -0.4527588, 0.5166626)
(-0.463684082, 0.559448242, -0.452880859, 0.516601563)
(-0.463684082, 0.559448242, -0.452880859, 0.516601563)
(-0.463684082, 0.559448242, -0.452880859, 0.516601563)
(-0.463684082, 0.559448242, -0.452880859, 0.516601563)
(-0.463684082, 0.559448242, -0.452880859, 0.516601563)
(-0.463684082, 0.559448242, -0.452880859, 0.516601563)
(-0.463684082, 0.559448242, -0.452880859, 0.516601563)
(-0.463684082, 0.559448242, -0.452880859, 0.516601563)
(-0.463684082, 0.559448242, -0.452880859, 0.516601563)
(-0.463684082, 0.559448242, -0.452880859, 0.516601563)
(-0.463684082, 0.559448242, -0.452880859, 0.516601563)
(-0.463684082, 0.559448242, -0.452880859, 0.516601563)
(-0.463684082, 0.559448242, -0.452880859, 0.516601563)
(-0.463684082, 0.5595093, -0.452880859, 0.516601563)
(-0.463684082, 0.559448242, -0.4529419, 0.5165405)
(-0.463684082, 0.559448242, -0.4529419, 0.5165405)
(-0.463623047, 0.5595703, -0.4529419, 0.5164795)
(-0.463623047, 0.5595703, -0.4529419, 0.5164795)
(-0.463623047, 0.5595703, -0.4529419, 0.5164795)
(-0.463623047, 0.5595703, -0.4529419, 0.5164795)
(-0.463623047, 0.5595703, -0.4529419, 0.516418457)
(-0.463623047, 0.5595703, -0.4529419, 0.516418457)
(-0.463684082, 0.5595703, -0.4529419, 0.516418457)
(-0.463684082, 0.5595703, -0.4529419, 0.516418457)
(-0.463684082, 0.5595703, -0.4529419, 0.516418457)
(-0.463684082, 0.5595703, -0.4529419, 0.516418457)
(-0.463684082, 0.5595703, -0.4529419, 0.516418457)
(-0.463684082, 0.5595703, -0.4529419, 0.516418457)
(-0.463684082, 0.5595703, -0.4529419, 0.516418457)
(-0.463684082, 0.5595703, -0.45300293, 0.516418457)
(-0.463684082, 0.5595093, -0.45300293, 0.516418457)
(-0.463684082, 0.5595093, -0.45300293, 0.516418457)
(-0.463684082, 0.5595093, -0.45300293, 0.516418457)
(-0.463684082, 0.5595093, -0.45300293, 0.516418457)
(-0.463684082, 0.5595093, -0.45300293, 0.516418457)
(-0.463684082, 0.5595703, -0.45300293, 0.516418457)
(-0.463684082, 0.5595093, -0.45300293, 0.516418457)
(-0.463684082, 0.5595093, -0.453063965, 0.516418457)
(-0.463562, 0.559631348, -0.453063965, 0.5163574)
(-0.463562, 0.559631348, -0.453063965, 0.5163574)
(-0.463562, 0.559631348, -0.453063965, 0.5163574)
(-0.463562, 0.5596924, -0.45300293, 0.5163574)
(-0.463684082, 0.5597534, -0.4529419, 0.516235352)
(-0.463684082, 0.5597534, -0.4529419, 0.516235352)
(-0.463684082, 0.5599365, -0.4529419, 0.5159912)
(-0.463684082, 0.5599365, -0.4529419, 0.5159912)
(-0.463500977, 0.5602417, -0.4529419, 0.5158081)
(-0.463500977, 0.5602417, -0.4529419, 0.5158081)
(-0.463317871, 0.56048584, -0.453125, 0.515625)
(-0.462890625, 0.56073, -0.453186035, 0.515686035)
(-0.462890625, 0.56073, -0.453186035, 0.515686035)
(-0.462890625, 0.56073, -0.453186035, 0.515686035)
(-0.462890625, 0.56073, -0.453186035, 0.515686035)
(-0.462890625, 0.560668945, -0.45324707, 0.515686035)
(-0.462890625, 0.560668945, -0.45324707, 0.515686035)
(-0.46270752, 0.560791, -0.45324707, 0.5157471)
(-0.462036133, 0.5609131, -0.453430176, 0.5159912)
(-0.461853027, 0.560852051, -0.4534912, 0.516235352)
(-0.461853027, 0.560791, -0.453552246, 0.5161743)
(-0.461853027, 0.560791, -0.453552246, 0.5161743)
(-0.461914063, 0.560791, -0.453552246, 0.5161743)
(-0.461914063, 0.560791, -0.453552246, 0.5161743)
(-0.461914063, 0.560791, -0.453552246, 0.5161743)
(-0.461914063, 0.560791, -0.453552246, 0.5161743)
(-0.461914063, 0.560791, -0.453552246, 0.5161743)
(-0.461914063, 0.560791, -0.453552246, 0.5161743)
(-0.461914063, 0.560791, -0.453552246, 0.5161743)
(-0.461914063, 0.560791, -0.453552246, 0.5161133)
(-0.461914063, 0.560791, -0.453552246, 0.5161133)
(-0.461914063, 0.560791, -0.453552246, 0.5161133)
(-0.461914063, 0.560791, -0.453552246, 0.5161133)
(-0.461914063, 0.560852051, -0.4534912, 0.5161743)
(-0.4621582, 0.560791, -0.45324707, 0.5161743)
(-0.4621582, 0.560791, -0.45324707, 0.5161743)
(-0.462219238, 0.561218262, -0.453369141, 0.515625)
(-0.461364746, 0.5617676, -0.453552246, 0.515563965)
(-0.461364746, 0.5617676, -0.453552246, 0.515563965)
(-0.460998535, 0.5617676, -0.453735352, 0.5157471)
(-0.460998535, 0.5617676, -0.453735352, 0.5157471)
(-0.460998535, 0.5617676, -0.453735352, 0.5157471)
(-0.460998535, 0.5618286, -0.453674316, 0.5157471)
(-0.460998535, 0.5618286, -0.453674316, 0.5157471)
(-0.460998535, 0.5618286, -0.453674316, 0.5157471)
(-0.460998535, 0.5618286, -0.453674316, 0.5157471)
(-0.46081543, 0.5618286, -0.453613281, 0.5159302)
(-0.46081543, 0.5618286, -0.453613281, 0.5159302)
(-0.460632324, 0.5619507, -0.453430176, 0.5161743)
(-0.460388184, 0.5619507, -0.453430176, 0.5163574)
(-0.460388184, 0.5619507, -0.453430176, 0.5163574)
(-0.460388184, 0.5619507, -0.453430176, 0.5163574)
(-0.460388184, 0.5619507, -0.453430176, 0.5163574)
(-0.460327148, 0.562072754, -0.45324707, 0.516418457)
(-0.460327148, 0.562072754, -0.45324707, 0.516418457)
(-0.4602661, 0.5621338, -0.453063965, 0.516601563)
(-0.460083, 0.5620117, -0.45324707, 0.516723633)
(-0.460083, 0.5620117, -0.45324707, 0.516723633)
(-0.4598999, 0.5618286, -0.453552246, 0.516784668)
(-0.4598999, 0.5618286, -0.453552246, 0.516784668)
(-0.459960938, 0.5618286, -0.453552246, 0.516784668)
(-0.459960938, 0.5618286, -0.453552246, 0.516784668)
(-0.459960938, 0.5618286, -0.453552246, 0.516784668)
(-0.459960938, 0.5618286, -0.453552246, 0.516784668)
(-0.459960938, 0.5618286, -0.453552246, 0.516784668)
(-0.459960938, 0.5618286, -0.453552246, 0.516784668)
(-0.458740234, 0.5615845, -0.454406738, 0.517334)
(-0.458740234, 0.5615845, -0.454406738, 0.517334)
(-0.4578247, 0.5612793, -0.4550171, 0.5180054)
(-0.456542969, 0.5612793, -0.4555664, 0.5186157)
(-0.456542969, 0.5612793, -0.4555664, 0.5186157)
(-0.4562378, 0.561218262, -0.4555664, 0.518981934)
(-0.4562378, 0.560852051, -0.455505371, 0.5194092)
(-0.4562378, 0.560852051, -0.455505371, 0.5194092)
(-0.456604, 0.5605469, -0.455444336, 0.5194702)
(-0.456604, 0.5605469, -0.455444336, 0.5194702)
(-0.45690918, 0.5602417, -0.455505371, 0.5194702)
(-0.45690918, 0.5602417, -0.455505371, 0.5194702)
(-0.45703125, 0.5601196, -0.455505371, 0.5194702)
(-0.4569702, 0.5600586, -0.455505371, 0.5195923)
(-0.4569702, 0.5600586, -0.455505371, 0.5195923)
(-0.45690918, 0.5601196, -0.4553833, 0.519714355)
(-0.45690918, 0.5601196, -0.4553833, 0.519714355)
(-0.45690918, 0.5601196, -0.4553833, 0.519714355)
(-0.45690918, 0.5601196, -0.4553833, 0.519714355)
(-0.45690918, 0.5601196, -0.455322266, 0.519714355)
(-0.45690918, 0.5601196, -0.455322266, 0.519714355)
(-0.45690918, 0.560180664, -0.455322266, 0.519714355)
(-0.45690918, 0.560180664, -0.455322266, 0.519714355)
(-0.457214355, 0.5601196, -0.454956055, 0.5198364)
(-0.457214355, 0.5601196, -0.454956055, 0.5198364)
(-0.457214355, 0.5601196, -0.454956055, 0.5198364)
(-0.457214355, 0.5601196, -0.454956055, 0.5198364)
(-0.457214355, 0.5601196, -0.454956055, 0.5198364)
(-0.45715332, 0.5601196, -0.454956055, 0.5198364)
(-0.45715332, 0.5601196, -0.454956055, 0.5198364)
(-0.45715332, 0.5601196, -0.4550171, 0.5198364)
(-0.45715332, 0.5601196, -0.4550171, 0.5198364)
(-0.45715332, 0.5601196, -0.4550171, 0.5198364)
(-0.45715332, 0.5601196, -0.4550171, 0.5198364)
(-0.45715332, 0.5601196, -0.4550171, 0.5198364)
(-0.45715332, 0.5601196, -0.4550171, 0.5198364)
(-0.45715332, 0.5601196, -0.4550171, 0.5198364)
(-0.45715332, 0.5601196, -0.4550171, 0.5198364)
(-0.45715332, 0.5601196, -0.4550171, 0.5198364)
(-0.45715332, 0.5601196, -0.4550171, 0.5198364)
(-0.457214355, 0.5600586, -0.4550171, 0.5198364)
(-0.457214355, 0.5600586, -0.4550171, 0.5198364)
(-0.457214355, 0.5601196, -0.4550171, 0.5197754)
(-0.457214355, 0.5601196, -0.4550171, 0.5197754)
(-0.457214355, 0.5601196, -0.4550171, 0.5197754)
(-0.457214355, 0.5601196, -0.4550171, 0.5197754)
(-0.457214355, 0.5601196, -0.4550171, 0.5197754)
(-0.457214355, 0.5601196, -0.4550171, 0.5197754)
(-0.4574585, 0.5601196, -0.455078125, 0.51953125)
(-0.4574585, 0.5600586, -0.455078125, 0.51953125)
(-0.4574585, 0.5600586, -0.455078125, 0.51953125)
(-0.4574585, 0.5600586, -0.45513916, 0.51953125)
(-0.4574585, 0.5600586, -0.45513916, 0.51953125)
(-0.458435059, 0.5600586, -0.454223633, 0.5194702)
(-0.458435059, 0.5600586, -0.454223633, 0.5194702)
(-0.45880127, 0.560302734, -0.453613281, 0.5194092)
(-0.45880127, 0.560302734, -0.453613281, 0.5194092)
(-0.45916748, 0.56048584, -0.453063965, 0.519348145)
(-0.45916748, 0.56048584, -0.453063965, 0.519348145)
(-0.459289551, 0.56048584, -0.452880859, 0.5194092)
(-0.4590454, 0.560668945, -0.453125, 0.5192261)
(-0.4590454, 0.560668945, -0.453125, 0.5192261)
(-0.45880127, 0.560791, -0.453369141, 0.519104)
(-0.45880127, 0.560791, -0.453369141, 0.519104)
(-0.4584961, 0.560791, -0.453674316, 0.519104)
(-0.4584961, 0.560791, -0.453674316, 0.519104)
(-0.458618164, 0.5609131, -0.453735352, 0.5187988)
(-0.458740234, 0.560791, -0.4539795, 0.5186157)
(-0.458740234, 0.560791, -0.4539795, 0.5186157)
(-0.458618164, 0.5606079, -0.4543457, 0.5186157)
