(-0.5408325, 0.5061035, -0.3638916, 0.564697266)
(-0.5407715, 0.506347656, -0.3638916, 0.5645752)
(-0.5407715, 0.506347656, -0.3638916, 0.5645752)
(-0.5410156, 0.5064087, -0.363769531, 0.564331055)
(-0.5410156, 0.5064087, -0.363769531, 0.564331055)
(-0.541748047, 0.5065918, -0.363464355, 0.5637207)
(-0.5418091, 0.5071411, -0.36340332, 0.5631714)
(-0.542297363, 0.508911133, -0.364013672, 0.56073)
(-0.541687, 0.5090332, -0.3651123, 0.56048584)
(-0.541687, 0.5090332, -0.3651123, 0.56048584)
(-0.541931152, 0.5091553, -0.366394043, 0.559265137)
(-0.541931152, 0.5091553, -0.366394043, 0.559265137)
(-0.54296875, 0.5101929, -0.367126465, 0.556884766)
(-0.5444336, 0.5093994, -0.368713379, 0.5550537)
(-0.545105, 0.50994873, -0.3684082, 0.5541382)
(-0.545105, 0.50994873, -0.3684082, 0.5541382)
(-0.546081543, 0.5092163, -0.368469238, 0.553772)
(-0.546081543, 0.5092163, -0.368469238, 0.553772)
(-0.5465088, 0.508789063, -0.3687744, 0.553588867)
(-0.5465088, 0.508789063, -0.3687744, 0.553588867)
(-0.548034668, 0.509094238, -0.3673706, 0.5527344)
(-0.5484619, 0.5093384, -0.366760254, 0.5524292)
(-0.5484619, 0.5093384, -0.366760254, 0.5524292)
(-0.5493164, 0.5098877, -0.365844727, 0.5516968)
(-0.5493164, 0.5098877, -0.365844727, 0.5516968)
(-0.5500488, 0.5098877, -0.36541748, 0.551269531)
(-0.5500488, 0.5098877, -0.36541748, 0.551269531)
(-0.550598145, 0.509277344, -0.36541748, 0.551269531)
(-0.550598145, 0.509277344, -0.36541748, 0.551269531)
(-0.5508423, 0.508667, -0.365905762, 0.551269531)
(-0.5508423, 0.508667, -0.365905762, 0.551269531)
(-0.5508423, 0.508422852, -0.3659668, 0.5515137)
(-0.551635742, 0.5083618, -0.366333, 0.5504761)
(-0.5513916, 0.508422852, -0.366394043, 0.5506592)
(-0.5513916, 0.508422852, -0.366394043, 0.5506592)
(-0.5510864, 0.5085449, -0.366699219, 0.550598145)
(-0.5510864, 0.5085449, -0.366699219, 0.5506592)
(-0.551452637, 0.508239746, -0.3671875, 0.550231934)
(-0.551452637, 0.508239746, -0.3671875, 0.550231934)
(-0.5510864, 0.5081177, -0.367248535, 0.5506592)
(-0.5510864, 0.5081177, -0.367248535, 0.5506592)
(-0.551635742, 0.5079956, -0.36706543, 0.550354)
(-0.551635742, 0.5079956, -0.36706543, 0.550354)
(-0.551635742, 0.5085449, -0.366699219, 0.550109863)
(-0.551452637, 0.508667, -0.3670044, 0.549926758)
(-0.551452637, 0.508667, -0.3670044, 0.549926758)
(-0.551452637, 0.5083618, -0.3670044, 0.550231934)
(-0.551452637, 0.5083618, -0.3670044, 0.550231934)
(-0.551452637, 0.5083618, -0.3670044, 0.550231934)
(-0.5513916, 0.508422852, -0.367431641, 0.549926758)
(-0.5513916, 0.508422852, -0.367431641, 0.549926758)
(-0.5510254, 0.5083618, -0.3673706, 0.550354)
(-0.5510254, 0.5083618, -0.3673706, 0.550354)
(-0.5509033, 0.5083008, -0.367248535, 0.5506592)
(-0.5509033, 0.5083008, -0.367248535, 0.5506592)
(-0.5510254, 0.508911133, -0.3668213, 0.550292969)
(-0.5510254, 0.5093384, -0.366455078, 0.550109863)
(-0.5510254, 0.5093384, -0.366455078, 0.550109863)
(-0.551269531, 0.5092163, -0.366333, 0.550109863)
(-0.5509033, 0.508972168, -0.3665161, 0.5505371)
(-0.5504761, 0.5090332, -0.3668213, 0.5506592)
(-0.5504761, 0.5090332, -0.3668213, 0.5506592)
(-0.550109863, 0.509460449, -0.366943359, 0.5506592)
(-0.549743652, 0.5097046, -0.3670044, 0.5506592)
(-0.549743652, 0.5097046, -0.3670044, 0.5506592)
(-0.5494995, 0.50982666, -0.366943359, 0.5509033)
(-0.5501709, 0.5090332, -0.366210938, 0.5513916)
(-0.5501709, 0.5090332, -0.366210938, 0.5513916)
(-0.5505371, 0.5091553, -0.365722656, 0.551269531)
(-0.5505371, 0.5091553, -0.365722656, 0.551269531)
(-0.5505371, 0.509643555, -0.3652954, 0.5510864)
(-0.550354, 0.5097656, -0.36505127, 0.551269531)
(-0.550354, 0.5097656, -0.36505127, 0.551269531)
(-0.5499878, 0.509460449, -0.36505127, 0.552001953)
(-0.5501709, 0.5095825, -0.3647461, 0.5518799)
(-0.5501709, 0.5095825, -0.3647461, 0.5518799)
(-0.550292969, 0.5097656, -0.364563, 0.5516968)
(-0.550354, 0.509643555, -0.364501953, 0.551818848)
(-0.550354, 0.509643555, -0.364501953, 0.551818848)
(-0.5504761, 0.5092163, -0.364501953, 0.552063)
(-0.5504761, 0.5092163, -0.364501953, 0.552063)
(-0.5507202, 0.509094238, -0.364501953, 0.552001953)
(-0.5509033, 0.5091553, -0.364379883, 0.5517578)
(-0.551147461, 0.508911133, -0.364196777, 0.5518799)
(-0.551147461, 0.508911133, -0.364196777, 0.5518799)
(-0.5515747, 0.508728, -0.363952637, 0.551818848)
(-0.5515747, 0.508789063, -0.36328125, 0.552185059)
(-0.5515747, 0.508789063, -0.36328125, 0.552185059)
(-0.5512085, 0.5092163, -0.36315918, 0.5522461)
(-0.551147461, 0.5091553, -0.362976074, 0.552490234)
(-0.5515137, 0.508789063, -0.362915039, 0.552490234)
(-0.5515137, 0.508789063, -0.362915039, 0.552490234)
(-0.5517578, 0.508728, -0.362915039, 0.5523071)
(-0.5517578, 0.508728, -0.362915039, 0.5523071)
(-0.551635742, 0.508789063, -0.362976074, 0.5523071)
(-0.551635742, 0.508789063, -0.362976074, 0.5523071)
(-0.551452637, 0.508667, -0.363098145, 0.55255127)
(-0.551452637, 0.508667, -0.363098145, 0.55255127)
(-0.5512085, 0.508422852, -0.36328125, 0.552856445)
(-0.5510864, 0.508239746, -0.3633423, 0.5531616)
(-0.5510864, 0.508056641, -0.36328125, 0.5533447)
(-0.5510864, 0.508056641, -0.36328125, 0.5533447)
(-0.5510864, 0.5079956, -0.36328125, 0.553405762)
(-0.5508423, 0.5081177, -0.36328125, 0.553527832)
(-0.5508423, 0.5081177, -0.36328125, 0.553527832)
(-0.5508423, 0.5081177, -0.36328125, 0.553527832)
(-0.5508423, 0.5081177, -0.36328125, 0.553527832)
(-0.5500488, 0.5081787, -0.3637085, 0.5540161)
(-0.5496826, 0.5079346, -0.364318848, 0.5541382)
(-0.5496826, 0.5079346, -0.364318848, 0.5541382)
(-0.550109863, 0.5074463, -0.364868164, 0.553833)
(-0.550109863, 0.5074463, -0.364868164, 0.553833)
(-0.551269531, 0.506652832, -0.3682251, 0.551147461)
(-0.551269531, 0.506652832, -0.3682251, 0.551147461)
(-0.5509033, 0.5064087, -0.3690796, 0.5512085)
(-0.5509033, 0.5064087, -0.3690796, 0.5512085)
(-0.551147461, 0.5064697, -0.369506836, 0.550598145)
(-0.551452637, 0.506897, -0.369506836, 0.549926758)
(-0.551635742, 0.5070801, -0.3692627, 0.5496826)
(-0.551635742, 0.5070801, -0.3692627, 0.5496826)
(-0.551635742, 0.5070801, -0.36932373, 0.549743652)
(-0.549926758, 0.5092163, -0.367980957, 0.550292969)
(-0.549926758, 0.5092163, -0.367980957, 0.550292969)
(-0.5498657, 0.509277344, -0.368164063, 0.550231934)
(-0.549194336, 0.5088501, -0.369384766, 0.550415039)
(-0.549377441, 0.5088501, -0.369384766, 0.550231934)
(-0.549377441, 0.5088501, -0.369384766, 0.550231934)
(-0.549377441, 0.5088501, -0.369384766, 0.550231934)
(-0.549377441, 0.508911133, -0.369384766, 0.550231934)
(-0.5487671, 0.509277344, -0.369873047, 0.550109863)
(-0.5487671, 0.509277344, -0.369873047, 0.550109863)
(-0.5487671, 0.509277344, -0.369873047, 0.550109863)
(-0.548645, 0.50982666, -0.3703003, 0.5494385)
(-0.548645, 0.50982666, -0.3703003, 0.5494385)
(-0.5484619, 0.50994873, -0.370727539, 0.5492554)
(-0.5484619, 0.50994873, -0.370727539, 0.5492554)
(-0.5473633, 0.5105591, -0.371948242, 0.5489502)
(-0.547302246, 0.510681152, -0.371948242, 0.54888916)
(-0.547302246, 0.510681152, -0.371948242, 0.54888916)
(-0.5472412, 0.5109253, -0.371948242, 0.5487671)
(-0.5466919, 0.511230469, -0.372009277, 0.5489502)
(-0.5463867, 0.5112915, -0.3718872, 0.5493164)
(-0.546447754, 0.511230469, -0.371765137, 0.549377441)
(-0.546447754, 0.511230469, -0.371765137, 0.549377441)
(-0.546447754, 0.511230469, -0.371826172, 0.5493164)
(-0.546447754, 0.511230469, -0.371826172, 0.5493164)
(-0.546264648, 0.511047363, -0.371948242, 0.5496216)
(-0.5460205, 0.510864258, -0.3720703, 0.549926758)
(-0.5460205, 0.510864258, -0.3720703, 0.549926758)
(-0.5460205, 0.510864258, -0.3720703, 0.549926758)
(-0.5460205, 0.510864258, -0.3720703, 0.549926758)
(-0.545776367, 0.5107422, -0.372314453, 0.550109863)
(-0.545776367, 0.5107422, -0.372314453, 0.550109863)
(-0.545776367, 0.5107422, -0.372314453, 0.550109863)
(-0.545776367, 0.5108032, -0.372253418, 0.550109863)
(-0.545776367, 0.5108032, -0.372253418, 0.550109863)
(-0.545776367, 0.5108032, -0.372253418, 0.550109863)
(-0.545776367, 0.5108032, -0.372253418, 0.550109863)
(-0.545776367, 0.5108032, -0.372253418, 0.550109863)
(-0.545776367, 0.5108032, -0.372253418, 0.550109863)
(-0.545593262, 0.5105591, -0.372497559, 0.550292969)
(-0.545593262, 0.5105591, -0.372497559, 0.550292969)
(-0.5452881, 0.510498047, -0.37286377, 0.5504761)
(-0.54473877, 0.511169434, -0.3727417, 0.5504761)
(-0.54473877, 0.511169434, -0.3727417, 0.5504761)
(-0.544677734, 0.511169434, -0.372680664, 0.5505371)
(-0.544677734, 0.511169434, -0.372680664, 0.5505371)
(-0.5449219, 0.5111084, -0.372619629, 0.550415039)
(-0.5449219, 0.5111084, -0.372619629, 0.550415039)
(-0.545043945, 0.5111084, -0.372619629, 0.550292969)
(-0.5449219, 0.511169434, -0.372802734, 0.550231934)
(-0.5449219, 0.511169434, -0.372802734, 0.550231934)
(-0.5440674, 0.511535645, -0.37298584, 0.5506592)
(-0.543640137, 0.5114746, -0.373535156, 0.5507202)
(-0.543640137, 0.5114746, -0.373535156, 0.5507202)
(-0.543823242, 0.5115967, -0.373291016, 0.5505371)
(-0.5439453, 0.5116577, -0.373168945, 0.5504761)
(-0.5439453, 0.5116577, -0.373168945, 0.5504761)
(-0.5439453, 0.5116577, -0.373168945, 0.5505371)
(-0.5437012, 0.5115967, -0.3731079, 0.5508423)
(-0.5437012, 0.5115967, -0.3731079, 0.5508423)
(-0.543640137, 0.5116577, -0.37298584, 0.550964355)
(-0.5432739, 0.5119629, -0.3725586, 0.551269531)
(-0.54296875, 0.512207031, -0.3720703, 0.551635742)
(-0.54296875, 0.512207031, -0.3720703, 0.551635742)
(-0.542785645, 0.5126343, -0.371398926, 0.552001953)
(-0.5385132, 0.515014648, -0.369934082, 0.5548706)
(-0.5385132, 0.515014648, -0.369934082, 0.5548706)
(-0.538635254, 0.5155029, -0.3692627, 0.554748535)
(-0.538635254, 0.5155029, -0.3692627, 0.554748535)
(-0.5387573, 0.5154419, -0.36920166, 0.554748535)
(-0.5391846, 0.5147705, -0.3708496, 0.553833)
(-0.5391846, 0.5147705, -0.3708496, 0.553833)
(-0.5394287, 0.5145874, -0.3710327, 0.5536499)
(-0.5394287, 0.5145874, -0.3710327, 0.5536499)
(-0.539855957, 0.514526367, -0.3711548, 0.553222656)
(-0.540161133, 0.514648438, -0.3713379, 0.55267334)
(-0.540161133, 0.514648438, -0.3713379, 0.55267334)
(-0.540161133, 0.514648438, -0.3713379, 0.55267334)
(-0.540222168, 0.5147705, -0.371582031, 0.552368164)
(-0.540039063, 0.5148926, -0.3718872, 0.552185059)
(-0.539917, 0.514831543, -0.372131348, 0.5522461)
(-0.540222168, 0.5153198, -0.371826172, 0.551635742)
(-0.540222168, 0.5153198, -0.371826172, 0.551635742)
(-0.540222168, 0.515563965, -0.371765137, 0.5515137)
(-0.540039063, 0.5158081, -0.371521, 0.5515747)
(-0.539917, 0.515625, -0.371826172, 0.5516968)
(-0.5397949, 0.5154419, -0.371948242, 0.5518799)
(-0.540039063, 0.515197754, -0.372009277, 0.551818848)
(-0.540039063, 0.515197754, -0.372009277, 0.551818848)
(-0.540222168, 0.5151367, -0.372131348, 0.551635742)
(-0.540222168, 0.5151367, -0.372131348, 0.551635742)
(-0.540344238, 0.5147095, -0.372436523, 0.5516968)
(-0.540344238, 0.5147095, -0.372436523, 0.5516968)
(-0.5405884, 0.514526367, -0.372436523, 0.551635742)
(-0.5405884, 0.514526367, -0.372436523, 0.551635742)
(-0.5408325, 0.514343262, -0.372497559, 0.5515137)
(-0.5408325, 0.514343262, -0.372497559, 0.5515137)
(-0.5408325, 0.5140991, -0.373046875, 0.5513916)
(-0.5408325, 0.5140991, -0.373046875, 0.5513916)
(-0.5407715, 0.5140381, -0.373168945, 0.5513916)
(-0.5408325, 0.5140381, -0.373168945, 0.5513916)
(-0.540710449, 0.5142822, -0.373474121, 0.5510254)
(-0.540710449, 0.5142822, -0.373474121, 0.5510254)
(-0.5404663, 0.5142822, -0.373840332, 0.5510254)
(-0.5404663, 0.5142822, -0.373840332, 0.5510254)
(-0.5402832, 0.514343262, -0.3739624, 0.5510864)
(-0.540527344, 0.514343262, -0.373901367, 0.5508423)
(-0.5406494, 0.514465332, -0.373901367, 0.5506592)
