-29,1,7,-47,-94,10,-1,-121
-16,-21,-44,-18,-10,-36,-29,21
8,7,-1,7,11,3,11,26
-6,1,1,-17,-19,-17,-10,-56
16,7,12,39,57,-5,22,47
3,-4,8,30,11,13,36,82
-5,-9,-21,-79,-51,4,-24,-86
6,10,15,21,8,-21,-4,22
-29,-16,-26,-52,-56,26,30,-7
-36,-2,-1,18,7,-17,-50,-128
50,10,18,45,51,8,3,53
-33,-7,3,-7,-15,1,18,113
18,8,1,20,40,10,14,-7
45,5,5,-41,-44,10,-14,-41
-77,1,14,60,46,-27,-21,-49
15,-8,-18,-33,-28,3,-17,-101
22,1,-13,-27,-7,-9,16,102
-15,-8,-7,31,26,-3,-6,-51
21,0,0,-12,-46,-11,1,42
-6,-1,-4,-21,-31,-21,-14,-38
0,-10,-11,2,-19,-18,-24,-21
-16,-4,-13,-15,0,-14,-12,-16
16,8,13,30,51,30,11,-28
-21,2,1,-13,-22,-3,-1,-67
53,1,-5,-9,-9,-9,1,82
-46,-8,10,33,32,5,-10,-55
-6,3,6,-19,-37,-10,-1,-103
-7,-9,-14,9,22,0,2,-22
-2,8,5,-9,-7,22,-17,-78
-5,-9,-12,-9,-9,-4,8,72
-8,-6,-6,-8,9,-2,14,54
34,13,17,20,14,-2,-13,-23
-41,-5,-4,7,2,-4,7,-77
17,4,10,40,39,-17,-20,-18
0,5,15,-41,-41,56,23,42
-10,-11,-29,4,12,-37,1,41
-26,-17,-2,32,-3,-13,-35,48
20,9,-15,-63,-48,2,30,-45
-21,8,20,74,76,9,-23,-117
43,5,9,-30,-21,2,21,83
-18,-5,-4,-18,-10,-8,9,-7
-26,6,8,8,8,-18,-21,-14
-19,-15,-9,-11,-7,9,18,11
30,4,2,7,16,-2,-6,71
-11,3,-2,3,8,2,-9,-128
28,-5,-6,-18,-7,-7,-4,113
-53,-10,-8,-1,-13,-7,11,-19
25,8,12,25,11,-3,-27,-56
25,12,4,-9,-11,-4,3,60
4,-18,-14,-12,0,-22,-15,57
30,4,-5,-24,-46,-38,-11,87
-16,-1,7,46,17,41,52,12
-4,0,-8,-23,-5,9,-27,-116
-5,8,17,28,21,-4,-8,4
21,-10,-13,-16,-23,2,8,8
-59,-12,-21,-26,-31,-1,2,-90
37,5,14,24,30,-2,5,26
-21,-2,7,7,12,11,-1,-88
44,4,-3,-32,-18,-18,-12,98
-5,7,4,0,5,0,8,22
-11,-8,-7,-5,-5,4,-7,-80
16,0,-3,-16,0,0,20,127
-6,3,3,32,21,-16,-38,-118
5,-6,-1,-16,-5,0,3,110
-22,2,-1,3,13,-9,17,18
32,19,27,34,37,29,12,-119
-21,-12,-30,-55,-52,-5,-17,-61
24,4,14,27,20,-15,7,2
-15,-13,-14,-5,-44,-22,-30,-41
-14,-3,-12,-12,-13,12,32,-13
0,8,21,40,18,-7,6,17
-30,-12,-15,-10,3,6,-36,-120
19,1,-5,-20,-8,-22,25,127
-7,-1,-3,-22,-23,9,-15,-43
37,6,11,35,51,10,25,93
-72,-9,5,-4,0,-7,-33,-77
18,-2,-1,2,9,0,12,84
8,-2,-4,-5,-23,-3,-14,31
3,3,-2,3,26,20,41,81
26,7,5,0,1,0,11,-46
-22,-8,-7,-16,-11,-3,-33,-1
1,0,0,-7,-27,-6,-1,-17
3,-11,-29,-16,13,-10,-19,-27
28,8,18,22,15,7,16,78
-24,-14,-28,-63,-80,-39,-23,-73
-2,4,-2,10,12,30,22,-22
-2,9,16,31,9,-10,-14,-13
6,-1,-8,4,39,6,4,-15
-5,-2,3,16,17,19,29,51
-20,-8,-1,-11,-26,-9,-20,39
3,-4,-5,-7,-5,-4,15,-100
-2,1,2,-4,-19,1,-19,-27
45,9,13,24,32,18,32,45
-22,-11,-11,-21,-20,-11,-27,-123
-27,1,8,19,10,5,-14,-85
55,4,-8,-20,-7,-12,16,95
-33,13,16,12,20,8,14,-51
12,-5,-6,-3,-15,-6,13,30
20,-6,-11,6,12,1,4,43
-10,3,8,4,1,2,-5,-15
21,5,0,-15,-11,-14,-24,-63
-1,0,2,-9,-18,-5,2,25
-22,-3,-8,-13,-27,-9,5,37
-12,-5,-13,-34,-43,-19,-1,-2
-6,-6,-6,17,55,8,-24,-18
4,-5,-5,-5,-43,-29,-12,-18
-18,-9,-11,-15,-24,4,-28,-62
-19,-1,14,50,42,-12,-15,-53
34,6,8,-28,-30,22,38,63
-31,-5,-9,3,6,-19,-45,-75
-65,-13,-11,-20,-4,15,21,95
35,-1,2,8,8,11,-1,-6
53,7,6,15,6,23,30,-15
-65,-14,-7,1,21,-4,-32,-25
65,11,13,17,18,-10,8,-91
-50,-7,-4,0,1,34,37,121
2,5,0,-5,-13,8,-4,-65
-1,-11,-7,-5,12,-9,-7,-9
10,13,11,-18,-23,10,9,-37
-11,-5,-11,-20,-37,-22,-22,-73
5,-3,-4,20,3,-26,-2,78
2,11,12,-4,5,49,44,26
-22,-4,3,30,21,-14,-43,-73
2,-17,-23,-40,-39,-10,13,69
-26,-3,2,2,-5,-19,-29,-45
30,14,12,14,12,0,8,34
-36,-17,-14,-22,-8,-19,-33,5
12,13,3,-10,-5,18,-1,-58
-21,-11,-1,11,15,3,4,42
50,13,2,2,8,8,17,45
0,-5,-3,-7,-7,6,8,-25
-61,-10,-6,0,-1,-1,-9,-69
9,7,6,10,13,12,2,14
-16,-14,-5,24,33,-5,-21,49
16,2,1,-12,-20,-3,9,-8
11,5,6,2,-9,-14,-9,-64
-18,-5,-1,19,30,9,-7,-29
27,11,11,-14,-32,7,25,63
17,4,1,27,34,-2,15,39
14,-7,-9,2,13,6,10,75
-43,-2,-2,-3,-25,-21,-40,-113
-6,-2,3,17,28,-1,18,75
6,3,6,5,2,24,19,51
-3,2,1,-15,-9,-5,9,-6
-10,-4,-6,-1,0,-4,-6,-17
-12,-1,-5,-3,-13,-6,-13,-117
-61,-5,0,-7,-3,-19,-41,-91
37,-2,0,15,16,5,20,99
5,-1,3,4,-4,3,-8,-75
0,7,0,-13,-14,-6,-1,-10
41,-8,-4,-5,-2,16,33,80
-24,4,0,1,3,-19,-39,-89
8,-1,-13,-47,-15,40,43,99
-3,-14,-4,23,20,-4,-3,-25
13,5,-7,-22,-46,-17,-8,-16
7,1,-1,0,12,-8,-15,-39
-13,-4,-5,-19,-23,-15,-4,42
10,9,8,16,19,0,-4,-87
-26,-6,-6,-11,-3,-13,1,73
1,-6,-10,-25,-17,9,8,20
19,4,9,28,29,-6,3,35
1,-6,-11,-25,-18,4,18,77
-8,10,14,20,19,-11,-16,-35
3,-2,0,-14,-23,4,-5,-98
-16,-1,-9,11,23,12,15,0
10,-9,-10,-20,-24,-25,-21,66
13,6,-1,-13,0,5,14,-75
0,-2,11,46,38,-1,-27,-42
1,-9,-9,-39,-61,-25,16,88
-39,10,5,17,9,-13,-8,-128
-20,-20,-13,23,30,13,-21,33
1,6,10,18,32,0,5,8
-24,-11,-7,-8,-26,-11,-25,-95
5,0,-11,-16,-1,5,3,10
23,8,12,15,7,-5,6,25
2,4,5,-11,-5,23,23,16
-2,2,12,32,16,-18,-25,-30
7,-2,-8,-32,-23,15,7,-52
13,7,1,-5,10,0,-8,3
18,3,-2,-16,-7,-2,24,127
-28,-12,-3,2,-4,-18,-21,-21
-54,-14,-19,-24,-15,2,-1,52
24,7,8,10,8,8,-1,-46
-43,-8,-6,6,-15,-9,-17,-97
44,7,3,2,16,2,3,43
4,-5,1,1,7,10,-18,-49
20,10,8,6,-3,-7,33,102
-3,-10,-15,-17,-32,-2,-7,-32
11,3,3,-4,15,9,5,4
2,-3,2,12,-20,-11,-11,-7
4,-5,-10,-12,2,-13,-16,-34
11,4,5,-28,-22,0,-13,-45
-28,-10,-20,-15,-5,4,19,67
13,4,10,12,3,19,8,-43
3,0,-2,-20,-18,-3,13,55
-1,5,6,9,11,-8,-14,-18
29,8,6,3,10,10,-27,-116
4,6,9,9,10,-8,31,127
-30,-13,-7,-5,-24,-7,-22,-123
25,4,2,3,16,-6,2,102
5,-7,-7,-7,-21,-4,-1,46
-47,-22,-15,6,15,1,-18,-48
16,3,4,0,-11,1,-4,-72
25,9,2,-20,-4,-14,16,127
-52,-4,13,26,15,-13,-17,-92
27,0,-17,-40,-31,-4,9,45
-35,-10,-16,-18,-15,1,-13,-70
-15,-8,-4,15,3,-2,-10,8
40,15,8,8,18,5,28,47
2,2,13,9,3,-3,-9,-31
11,6,10,33,36,-2,9,35
22,17,14,-13,-29,6,9,-9
-18,-12,-14,-10,-7,-1,-16,-51
8,11,12,2,0,3,16,-25
9,-1,-6,-16,-10,-9,-27,-55
-48,-12,-1,30,26,-8,7,81
14,-2,2,7,10,-5,14,43
-9,-1,-4,-14,-7,3,-7,-120
18,9,11,19,9,2,10,50
-6,-8,-9,-7,3,-2,-27,-128
26,13,9,-9,-21,0,0,69
-5,-4,-7,3,4,-14,14,81
14,3,3,12,19,6,0,-3
-45,-1,-7,3,14,29,14,-24
-2,-3,-16,-42,-57,-19,-16,-52
0,-5,-9,-5,8,-13,-19,-13
-15,-17,-12,2,-3,13,25,59
-7,1,2,14,15,-13,-15,-90
15,8,9,11,22,48,43,48
5,-1,-2,-2,-4,-10,-23,-32
-19,-8,-12,-21,-17,-1,-2,91
31,-8,-11,-6,-6,-11,13,90
-8,3,11,22,24,-14,-32,-73
21,4,-4,-16,-13,41,48,26
-23,-11,-4,-11,-15,-4,-13,62
-4,0,2,11,19,1,-14,-84
19,1,-1,-3,-5,5,36,103
13,9,13,27,22,4,-5,-52
10,-8,-11,-9,-4,-11,-5,51
15,8,5,-11,-26,9,10,-72
-47,-15,-14,1,6,-7,-46,-111
10,7,16,36,52,11,7,59
9,2,1,-20,-1,-1,26,1
-11,-3,-4,-10,-20,6,-28,-16
24,-1,-7,13,1,-2,53,58
-8,0,3,15,16,-4,-23,-68
9,7,10,-21,-19,8,0,-59
0,-7,-16,-23,-13,-7,5,-15
-15,1,8,8,10,6,-22,-64
-15,-4,-1,13,3,-18,-19,-33
5,-1,-4,10,22,-13,12,38
29,9,15,15,-9,5,11,36
-51,-16,-23,-37,-37,-17,-25,-31
14,-3,3,19,1,-2,9,59
-46,-2,2,1,-2,-10,-55,-128
45,1,5,12,16,16,48,112
-39,-7,4,24,23,10,16,26
55,5,-1,-18,-8,3,-12,-61
19,10,3,9,-8,-17,-14,23
-28,-4,-9,-21,-7,-6,10,35
19,5,11,9,6,5,7,5
-43,-11,-8,-16,-14,-4,-8,-22
22,5,4,14,8,13,9,-3
16,-2,-15,-23,-8,3,28,18
0,8,15,31,29,1,-13,34
14,-1,-9,-46,-43,-14,-5,17
-16,-8,0,16,-4,-17,-19,-30
-21,3,6,6,-8,8,12,-41
14,-3,2,-3,-4,0,-31,-93
-5,6,0,-4,1,8,28,36
-1,0,9,13,16,9,16,50
-20,-7,-2,26,9,-28,-19,-39
23,-4,-9,-23,-12,16,15,-46
12,5,7,4,-7,2,8,10
-18,-4,-8,-18,-13,16,-1,-113
8,-2,1,4,6,4,-1,1
17,5,1,0,7,-13,-14,48
7,0,4,2,-5,9,15,38
9,2,-5,9,20,10,30,69
-1,-10,-10,-6,-17,-22,-37,-75
22,-1,-7,-31,-35,11,31,44
-23,1,-9,-7,5,-7,-22,-98
-13,-10,-5,13,23,6,-1,14
-9,1,1,7,15,3,-6,-15
24,9,5,-7,-13,-8,-3,29
-11,-11,-18,-18,-21,-11,-5,-67
-7,-7,-8,-14,-15,4,8,37
16,5,8,-1,-14,-21,-27,-25
-45,-17,-13,2,12,12,16,67
-20,-1,6,17,5,0,-12,-25
2,3,0,-13,-17,-19,-23,-56
-10,-4,-5,-17,-8,35,34,-35
16,8,7,3,-1,-14,14,78
-16,-2,4,17,13,-3,-17,-33
-13,-1,5,2,-6,-10,-13,-55
21,-5,-5,-7,0,-23,-19,127
-23,-3,-1,6,0,26,22,-85
1,1,-1,-7,11,11,14,-23
7,-2,1,1,-11,3,-26,-110
-8,-5,-7,-6,0,0,11,99
-16,0,-1,39,47,4,-11,-104
24,1,2,-30,-36,0,14,83
-23,0,0,-9,-5,-6,-10,-32
9,0,-5,3,13,-9,3,57
-4,1,2,-2,-1,-1,-13,-86
11,-1,2,17,14,2,14,71
5,3,5,1,3,14,17,36
-29,-1,0,-13,-17,10,-15,-128
15,6,5,-7,-4,-24,-10,113
-25,-5,-6,6,-6,4,-11,-113
17,-7,-13,-10,-5,-18,-3,127
23,9,10,21,22,0,-2,-39
-31,-7,-5,-19,-22,16,24,58
-10,-10,-10,-25,-23,-16,-38,-48
-3,3,0,12,19,4,37,110
23,7,8,16,28,4,-4,-31
-23,-5,-1,-33,-38,-20,-32,-106
13,4,1,25,27,5,14,44
-1,-1,1,18,12,7,-5,-65
-62,-13,-12,-54,-65,-8,-2,-5
36,7,2,28,37,-6,7,43
-17,-7,-5,-40,-32,-2,-11,-2
21,-1,-9,0,5,-9,0,5
1,4,16,33,18,-1,1,25
-16,-8,-9,-7,8,20,11,-48
-16,-3,3,8,7,-9,-9,-15
29,11,7,-4,-3,2,17,55
-14,-12,-9,-8,-6,-18,-60,-117
-22,-1,-1,-2,-8,14,11,-33
36,4,0,7,-1,-8,25,127
-20,2,-1,-10,-20,-18,-12,-62
21,-3,0,18,15,29,35,-18
-3,-5,-13,-19,-23,-37,-50,-104
-9,-7,-10,-8,7,12,-15,-109
-22,-13,-15,-35,-19,-5,7,102
2,0,-6,5,-6,-7,2,-11
17,1,-1,-6,-16,-8,2,10
-14,-1,-8,-11,-12,-19,-6,-6
-4,2,10,11,8,16,-12,-119
4,-3,-11,-18,-17,-17,-4,127
-17,-7,-7,5,1,-24,-42,-45
34,8,7,6,3,23,48,93
-6,-2,-1,2,2,-15,-25,-79
-7,2,9,-10,-6,25,25,-61
-1,1,4,3,2,-8,-9,60
-18,-7,0,16,10,-8,-5,23
11,3,3,-10,1,18,8,-49
-15,0,-1,-3,-5,-4,3,67
4,-3,-2,0,-7,-6,-5,-47
40,7,9,12,9,3,22,110
-37,-10,-3,-3,12,10,3,-21
-28,0,-3,-15,-23,-9,-7,-42
7,-10,-21,-26,-27,-24,-17,-53
17,1,2,0,11,10,-3,55
2,-4,-7,-6,-20,-11,-1,13
20,6,3,18,27,7,6,82
1,0,3,15,10,-7,-19,-31
-42,-1,2,-1,4,1,-1,-66
0,-1,4,9,5,-3,-2,-2
12,0,2,0,5,-2,-18,-26
9,-3,-8,-33,-27,17,38,47
-12,-9,-15,3,-7,-21,-21,-58
-10,-3,4,-14,-6,3,-9,-20
13,0,-5,3,-13,-16,-17,44
5,4,10,16,28,16,12,-64
1,4,8,-6,-1,-2,12,83
1,1,3,-8,-19,6,12,-24
-1,3,-5,0,11,12,7,-59
14,0,4,10,8,1,-18,-52
10,4,0,-9,-8,-15,-5,18
11,1,6,48,65,22,17,16
26,10,13,-38,-61,18,24,-57
-10,-7,-13,10,17,-3,21,113
5,10,11,24,29,4,-45,-119
-17,-14,-13,-31,-27,-2,51,127
6,6,11,29,33,3,-1,-73
4,1,3,2,-2,1,-6,28
8,-4,-6,-5,-8,19,8,-60
-4,2,-2,5,6,-6,-21,-98
0,0,11,21,34,5,9,48
-4,2,-1,-15,-28,-7,0,15
-14,-6,-2,1,9,0,7,44
34,8,2,3,-17,-3,-9,6
-9,-15,-22,-28,-16,-11,-9,-15
17,8,13,28,19,3,8,78
-10,-3,-2,-8,-21,11,17,-16
-39,-2,-4,12,9,-5,-21,-91
23,9,16,6,11,-17,-15,57
-27,-13,-10,-12,-18,9,1,43
1,2,9,3,-2,17,9,-76
61,7,6,-2,-15,5,40,120
27,-1,-13,-16,5,-17,-16,-1
-80,-10,7,17,13,-3,-33,-128
-1,-7,-8,2,-10,-13,-8,-22
-21,-3,-7,-14,-9,-22,-30,13
11,3,-2,5,6,16,14,-107
23,4,7,3,14,11,15,46
15,2,-2,-9,-6,-14,5,75
-7,0,0,-11,-21,0,-12,-99
-25,-10,-13,8,4,-15,-8,21
-4,-4,-6,-31,-14,13,22,36
19,12,12,25,24,6,0,-8
5,1,-1,-9,-18,-17,-25,-14
-31,-3,5,22,22,21,18,-41
31,8,3,-20,-19,-9,5,58
-3,-9,-12,0,1,-10,-12,79
6,-2,-8,-8,4,-11,-22,-43
5,-8,-6,-2,-12,-9,5,85
7,10,11,14,11,1,9,-12
21,-3,-6,-9,-6,-10,-19,-64
6,3,1,-10,4,19,14,-37
-42,-10,-6,-9,-17,-6,-23,-84
35,2,1,10,5,-4,-1,43
9,1,-3,-3,6,-8,9,25
-15,-5,4,1,-28,-16,-22,-49
-5,-3,-11,-5,3,3,12,34
26,7,3,-7,-5,2,10,-10
-51,-7,11,54,51,-7,-21,-53
17,0,0,-27,-16,29,23,54
-4,-7,-9,-3,-4,1,8,12
-15,-1,-5,-8,-14,-8,-27,-128
10,1,-5,-13,-9,10,34,127
4,-4,2,29,20,-29,-20,79
-4,-2,-3,-4,-6,36,34,-40
11,5,2,8,14,3,4,81
-18,-19,-10,-14,-31,-11,-29,-92
-5,-2,-4,1,5,-6,7,13
19,9,6,-1,-1,1,4,-15
-8,-9,-9,10,6,-13,-37,-75
4,3,7,-5,6,0,18,59
-13,1,9,42,43,-8,-7,-51
6,-5,-13,-46,-55,4,-3,-21
7,5,-1,28,21,3,-6,-3
-20,3,0,-11,10,1,-6,-17
-4,1,4,15,13,8,14,30
34,12,26,29,20,-10,-5,98
-9,-6,-12,-19,-16,25,36,-5
-10,-6,-18,-29,-35,-19,-19,-27
15,3,4,25,23,8,2,-14
-23,-9,-4,4,2,8,-8,-113
-13,-1,1,-1,-5,-8,0,71
25,1,6,16,17,4,34,109
-68,-12,-12,-49,-46,8,8,-38
3,1,-4,-1,-2,-22,-24,27
4,2,-1,-6,-11,-16,-33,-124
23,6,7,3,-3,22,25,41
28,3,5,17,27,1,2,62
-12,-10,-12,-34,-33,-10,-14,49
-42,-4,-1,10,2,1,-1,-86
0,-10,-12,-14,-17,-26,-28,23
-10,-4,-5,-7,2,12,7,-48
10,2,-3,17,18,-7,16,115
-11,-5,-5,-26,-4,-16,-39,-107
26,9,1,-22,-24,5,18,27
13,2,0,7,-2,6,11,-13
-32,-10,-6,2,16,-8,-21,-15
11,-1,3,-14,-10,-14,-7,-13
4,1,-1,0,1,17,25,5
-51,-13,-10,-24,-30,-26,-53,-77
7,8,6,14,6,-8,6,72
28,8,-1,3,12,18,28,69
-50,-8,-1,2,-9,-15,-63,-128
23,-5,-8,-3,2,14,51,90
25,10,10,14,12,-9,-14,-88
-18,-7,-5,-13,-26,-17,-2,-6
-18,1,2,6,12,30,3,-128
3,-4,-13,-8,-11,-17,-10,47
-25,-8,1,3,-3,-4,-11,-55
28,1,-6,3,-7,5,31,84
-23,4,7,24,24,1,-17,-75
36,6,11,-6,-2,12,23,89
1,-13,-22,-30,-22,-15,-9,14
-10,6,5,1,8,12,5,-36
10,-3,-3,0,8,6,25,90
-6,8,9,12,5,-4,-14,-99
7,10,16,31,29,-4,-12,-24
30,-13,-20,-36,-43,9,20,84
-81,-12,-7,-12,7,-9,-23,-118
66,10,1,-14,-5,27,36,93
-36,-1,4,22,38,1,-5,-17
-10,1,11,16,11,-4,-12,-80
24,3,-2,-13,-15,-1,18,105
-7,-8,-15,-5,-11,-15,-21,-105
8,3,2,2,-8,4,6,4
-18,-6,0,-1,-11,0,19,5
55,2,-2,6,4,-4,-22,-15
-74,-3,3,-6,15,-12,-13,-18
20,-6,0,-11,-23,21,19,24
17,-3,-11,-8,-4,-12,-5,52
-21,-2,-5,-25,-21,17,19,-26
-7,-11,-19,-16,-21,3,-19,-49
-14,-1,-2,-6,3,0,10,-48
18,3,6,2,9,-20,-24,45
-34,-10,-3,13,5,7,-19,-109
86,18,17,35,33,-4,29,102
-53,-8,-8,-12,-3,20,23,-32
1,1,3,39,48,23,14,-6
17,0,-7,-45,-52,-24,-17,-47
-23,-4,-5,8,2,-18,-35,28
7,-3,-12,-28,-27,-4,-9,-23
34,-9,-14,-2,5,2,20,107
-49,10,21,45,24,-7,4,-7
-5,-7,-11,-32,-31,-1,-17,-44
-2,-3,-6,7,0,-5,-10,15
4,8,13,33,31,-5,-2,23
-23,-4,0,2,2,25,19,-39
3,-7,-12,-31,-31,-18,-9,47
15,12,13,27,24,9,8,-10
-20,-1,11,-5,-1,7,2,-11
12,-10,-16,-9,-19,-7,-13,-27
-2,14,15,19,22,-10,-15,-20
44,5,7,3,6,28,52,104
-30,-7,-8,-28,-25,-22,-28,-11
45,16,6,10,16,-10,-8,-19
-68,-18,-6,2,-1,1,-1,-52
-28,1,3,17,9,-14,-17,-2
15,-6,-16,-48,-26,-2,-2,-68
-10,-4,0,-1,-5,-17,-7,36
-1,3,8,14,-3,23,25,-33
18,-9,-18,-38,-19,-18,-8,-45
-23,1,6,-4,-5,-10,-21,-127
-2,-8,-16,-24,-9,25,27,19
-5,-1,3,19,22,-6,-28,-31
2,12,24,16,8,3,0,-4
24,-4,-9,8,-6,-15,-16,20
9,2,3,-1,13,4,18,110
-3,-1,-2,-22,-28,14,29,-2
-18,-4,-4,9,-9,-31,-37,-75
-17,-5,-5,-5,-3,6,-7,-6
54,12,21,14,0,-17,7,69
6,-2,-1,17,33,17,4,-71
-25,-8,-8,-29,-27,-6,4,40
-12,-2,-4,14,5,-8,-22,-48
-2,-7,-9,-16,-10,-1,-1,-31
3,6,7,9,2,-16,6,98
32,1,-4,5,-2,-2,2,-10
8,8,6,-13,-1,24,23,5
-3,-5,-4,26,36,-4,-16,0
28,4,2,-29,-54,-2,-2,14
-15,-20,-33,-17,-17,-18,-39,-22
13,2,4,8,14,7,29,80
20,6,6,0,-9,-6,-8,-63
-1,0,5,30,53,26,9,51
-8,-3,0,-18,-21,3,14,-15
-21,-7,-14,-28,-23,-6,-13,-18
-33,-3,0,27,11,-5,0,-34
27,-7,-9,-6,-3,-11,-10,-42
-21,-5,-3,-15,-6,5,-8,-68
25,5,1,12,15,-5,2,63
-37,-8,-7,-7,-10,-8,-16,-19
1,5,12,32,32,8,7,22
16,2,3,-4,8,5,7,59
-24,-15,-12,-12,-32,3,11,24
11,4,1,-2,2,-7,-10,-13
-17,0,-7,-29,-43,-6,-1,-29
-8,-6,-10,1,32,-2,-20,-95
15,16,21,43,25,-18,-3,75
-18,-15,-18,-26,-27,14,5,-7
6,3,0,13,21,6,20,5
4,-1,7,28,0,-4,-10,-14
-24,5,1,-11,2,-5,-5,-28
14,1,-3,-25,-27,8,-6,-86
6,0,7,38,52,9,24,79
-10,-4,1,-17,-40,1,-5,-9
-1,-3,-11,-31,-12,-8,-13,-43
6,5,15,32,30,-17,-19,-67
20,4,1,0,-7,8,19,44
3,5,8,-11,1,20,30,65
-24,-4,1,41,12,-14,-19,-18
-3,-6,-8,-4,2,-2,-10,-35
17,6,-2,-12,6,-1,2,28
17,7,4,7,-6,-9,21,41
-8,-6,-10,4,3,10,-10,-80
29,14,22,35,31,24,9,-1
-5,-16,-34,-66,-56,-3,13,36
-16,9,22,74,61,-3,-16,-19
-51,-5,2,-12,-16,17,5,-101
-2,-6,-21,-43,-40,-34,2,127
-11,-4,9,17,4,-15,-34,-93
-3,0,-11,-29,-18,22,12,-71
44,5,7,12,22,14,6,20
11,0,9,22,27,-18,-9,37
-27,2,6,8,2,40,42,83
-31,-12,-15,-25,-15,-23,-23,-27
12,-6,-7,-24,-28,-1,10,25
29,19,13,15,8,-6,-4,-13
-36,-14,-20,-21,-23,-5,-17,-116
14,-4,-4,22,12,-5,-8,28
-15,2,13,16,27,10,15,-28
-21,-5,0,-5,-21,5,7,53
-11,-1,-7,1,-13,-16,-31,-128
-11,-7,1,5,-15,-24,-12,99
27,9,2,-4,-12,13,30,16
-6,-6,-8,-5,-15,3,9,13
-18,-2,4,17,2,-22,-28,-86
0,-5,-13,-24,1,-2,-11,-50
-4,-1,7,2,3,-1,-12,-15
32,2,2,14,7,1,24,99
-43,1,8,6,-8,-18,-30,-23
28,-3,-5,-25,-18,4,31,49
-16,-8,-9,11,12,-9,-19,-92
-24,-3,-5,-21,-7,6,2,10
24,6,4,-11,0,-25,-39,6
15,0,0,9,-1,6,27,8
-19,-18,-17,-29,-17,-12,-7,121
11,6,3,-5,2,14,11,-36
14,1,5,4,10,-3,-11,-51
-35,8,3,7,9,27,24,-44
16,-7,-8,-6,-20,-17,-12,32
-21,-7,-6,-28,-26,-21,-25,-49
3,-3,-10,-14,16,-1,7,60
-56,-2,2,7,-12,4,-3,-75
40,14,10,1,17,-1,16,66
4,3,6,33,41,12,15,66
11,6,11,11,-5,4,0,-26
31,5,3,-1,-4,-1,-10,-35
-33,-3,-2,5,11,-6,-10,-21
-34,-18,-8,8,10,-13,-23,-36
42,9,8,1,-1,10,27,69
0,1,1,12,9,5,-16,32
1,2,-6,-42,-28,-20,-12,-35
23,0,-6,-12,-11,19,23,46
-14,0,1,-25,-12,1,-15,-128
10,-5,-7,-19,-27,-22,17,127
22,8,10,29,30,-4,-9,-74
28,16,-1,-63,-52,30,26,13
-52,-12,-9,38,50,-2,-7,-37
27,4,0,-36,-7,0,3,-27
-4,-12,0,-10,-19,-3,-3,4
-18,-16,-26,-15,-35,-36,-18,-23
5,-1,3,-6,-14,4,1,24
-5,-7,-9,-10,-1,-7,-18,-19
5,12,13,5,1,2,10,42
2,1,6,9,11,20,-7,-96
27,-17,-28,-82,-90,-60,-26,98
-22,-8,-2,28,15,28,16,-72
5,17,14,4,-9,23,37,-35
15,0,-3,21,36,-19,-44,-23
17,5,15,23,6,6,27,24
-8,7,11,4,3,2,9,-28
33,13,-3,-1,15,12,22,12
-38,-6,3,27,22,-9,-30,-95
-14,-18,-42,-35,-27,7,-6,-47
-26,-16,-12,3,-8,-29,-25,37
-29,-1,6,34,21,5,-21,-91
12,7,10,2,-13,-4,30,103
-5,-16,-10,9,21,-14,-24,-25
6,11,9,21,20,12,12,-49
-17,-15,-24,-20,-28,0,-14,-1
-22,-6,-3,17,26,-4,-12,-17
28,7,12,8,7,22,52,127
39,8,2,-27,-20,7,-7,-56
-57,-18,-6,2,-5,-1,-20,-84
30,5,6,25,16,-11,5,45
13,10,8,15,25,8,-18,17
-4,1,10,20,7,13,21,91
5,-6,-5,-3,-8,-21,-4,-3
5,0,-7,-37,-30,3,-7,-47
-65,2,5,26,16,-7,-5,-27
66,32,30,17,13,24,35,5
-14,-21,-23,-7,7,-6,-21,22
-13,2,0,19,6,30,29,-35
8,-1,11,38,33,14,10,-1
8,1,-9,-59,-51,-24,-24,-7
45,2,6,23,5,-5,-3,9
-76,-14,-6,-18,-16,-14,-20,4
42,10,8,-1,-9,15,38,99
-7,-14,-13,-4,21,-9,-16,-20
-31,0,-3,-13,-19,3,-18,-101
20,-1,-3,-10,-4,-19,11,103
-6,2,6,0,-3,15,6,-86
-23,-26,-19,4,-8,-14,-30,-40
-27,-6,-4,-7,10,1,15,61
11,11,1,-29,-4,0,-15,1
11,2,-8,-28,-26,-22,-12,28
-19,-4,-9,-11,-17,7,1,-41
5,0,5,4,0,-11,9,85
9,-1,5,1,-8,-11,-16,-91
22,-3,-4,-31,-20,1,11,62
-22,-5,-12,-12,8,-23,-35,-69
-33,-1,5,6,-7,11,14,34
37,5,6,-3,14,-3,8,60
-29,-9,-4,-1,-20,-1,-24,-64
8,2,0,19,-1,-3,22,72
-8,-11,-18,-43,-16,-10,-23,-57
6,-4,-2,-13,-11,11,10,-56
-51,-10,-15,-24,-16,6,-5,-34
24,1,4,12,7,-20,-8,79
-2,0,5,23,10,-20,-16,-9
6,-7,-16,-13,-13,31,42,28
-16,2,5,-9,6,-6,-18,-123
14,-1,1,-6,-6,-9,-23,54
22,7,6,14,0,-2,16,47
-23,-15,-14,-6,2,-7,-29,-50
-8,7,4,15,11,4,12,-16
2,11,13,13,26,-3,-14,-113
27,0,-7,-17,1,10,15,68
-15,0,4,0,-26,-5,10,108
-13,-6,-6,5,8,-12,-27,-87
15,1,5,27,4,-1,24,111
1,3,1,-23,-16,-13,-27,-58
-26,-9,-10,-31,-12,24,35,-89
43,3,-3,-5,-2,4,5,71
-53,-13,-4,1,7,-1,-15,-73
20,7,8,24,17,21,20,-3
5,4,8,4,-8,-13,-12,65
4,-4,-3,8,6,-16,3,63
9,4,2,-9,7,-5,1,34
-12,-9,-10,-2,-12,16,7,-83
-1,5,2,-2,18,3,-2,4
50,3,-2,1,-6,1,-4,63
-48,-12,-8,-14,10,7,-7,-73
5,1,-1,-28,-9,-1,-2,36
-2,3,14,60,31,-3,5,44
-6,-3,-8,-40,-32,-7,-11,-65
-11,-4,-4,10,20,-1,5,15
3,13,17,-15,0,22,9,-6
-2,-4,-1,15,2,-1,-13,-65
4,-5,-11,-12,8,-7,-12,-85
-26,-3,0,-18,-7,18,30,77
11,-5,-10,2,-18,-28,-11,58
0,-11,-9,-1,2,10,-3,-63
-31,-3,-2,4,-6,-12,-2,-34
28,9,5,-2,5,8,0,-11
4,1,2,16,10,5,11,16
-3,1,2,12,15,-17,-15,-4
-9,3,3,-10,-20,1,-17,-87
27,-9,-5,18,10,2,35,43
21,4,-1,19,5,1,10,37
-46,-4,-4,-7,-5,-9,-31,-109
-2,-9,3,20,12,-10,-1,39
-9,13,15,1,-17,20,0,-22
-7,0,-7,-5,8,-8,-11,-13
5,-8,-5,-7,6,-8,-18,-105
39,5,6,25,2,17,39,127
9,3,-6,-11,-8,-25,-33,-111
-10,-16,-21,-27,-18,8,27,46
23,2,4,0,-8,-12,-10,-1
-24,3,5,3,-4,29,44,21
15,-6,-5,2,11,-11,-20,-64
8,13,21,1,1,9,-7,-17
16,-3,-10,2,-15,-2,7,33
-24,0,8,29,37,-25,-31,-1
9,-4,-8,-25,-33,26,28,91
-1,-1,3,20,18,-1,11,48
-22,-12,-21,-41,-30,-19,-9,-13
-1,-13,-2,19,16,-23,-23,-11
17,10,7,-11,-15,8,1,-8
-18,-2,-5,-4,-10,-4,-20,-106
-19,4,9,35,21,0,11,68
14,4,2,-10,-1,6,-1,-23
-4,3,6,0,33,9,-3,26
-21,-19,-8,-15,-35,-22,-21,-38
17,8,4,-5,-7,2,6,24
-12,2,2,4,-5,19,18,-8
5,6,1,-5,-8,-12,-14,-43
14,8,14,40,42,13,15,31
-2,-13,-16,-46,-40,-16,-23,-77
-27,-4,-9,-7,-9,-11,-10,-1
14,1,2,-7,-14,-17,-3,31
34,7,-3,-16,3,17,25,-6
-6,0,7,15,11,-8,-17,-60
1,1,2,-7,0,14,9,-9
-7,-3,-6,-22,-16,-10,-7,-22
-17,2,9,19,8,-17,-13,-13
3,-5,-6,1,6,16,14,-9
51,8,-8,-39,-25,-2,13,97
-7,-5,-3,14,2,6,6,-5
11,5,3,3,-16,-23,-44,-46
-27,-2,-2,15,30,22,13,4
4,9,12,8,-7,14,15,-25
-11,-8,1,20,22,4,3,-24
-15,1,3,15,14,4,14,52
-5,-8,-1,5,-9,8,22,82
8,-2,-7,-20,-8,-9,-20,-68
-20,-4,-15,-21,-19,-3,-2,-48
10,-10,-12,-18,-24,-6,-2,-22
-36,3,7,1,10,-14,1,55
16,6,10,13,6,-2,8,51
-27,-15,-15,-8,-15,-19,-25,-34
4,-2,-9,-24,-11,3,-6,-49
-3,4,4,0,2,-7,-17,-66
38,0,15,34,20,-7,4,68
-18,-6,-2,-6,-3,-1,-13,-2
-20,0,-1,-3,-1,1,-16,-72
43,1,-2,3,42,37,59,84
-41,-3,-3,-9,-36,-15,-20,-75
26,-5,-9,6,-5,-6,-1,57
-3,4,10,9,9,14,27,28
19,2,-3,-18,-39,-16,-3,-17
-24,-8,-7,0,22,3,-26,-44
-8,3,10,26,17,7,20,26
9,-6,-7,-9,16,13,13,37
0,9,5,-3,-7,-16,-41,-64
12,2,3,0,4,10,43,23
0,0,-4,-5,-25,-27,-60,-99
-50,-13,-2,8,14,9,27,122
5,1,0,14,14,10,9,27
16,7,5,-7,-12,-2,3,-38
39,15,7,17,43,20,45,97
-29,-6,-1,12,-5,-24,-64,-117
13,5,3,-2,-4,2,7,-1
-58,-19,-28,-8,8,15,-1,-59
44,10,11,-15,6,7,2,9
17,-8,-8,1,-10,-4,12,30
11,8,7,11,-5,-10,9,119
7,1,1,1,22,1,-6,-18
-10,-4,1,11,6,-1,-9,-46
-5,4,-1,-4,10,5,8,-16
-17,-17,-14,-36,-32,-9,-10,-31
28,4,-2,-2,-9,17,13,9
-43,-11,-11,-13,-9,-1,3,3
34,3,4,9,5,8,2,-15
11,3,0,-12,-13,-19,-5,12
26,8,7,17,8,-3,-8,56
-31,-8,-3,4,4,1,3,-25
34,16,11,19,6,-11,-2,44
-17,-18,-22,-22,-15,-8,-16,-74
-23,-15,-17,-23,-11,-17,-17,36
21,14,21,29,5,3,8,-8
2,7,2,-1,8,-9,-12,6
0,-5,2,27,23,31,35,-30
-32,-2,-5,-50,-38,-13,-4,36
-15,-6,-3,15,-14,-15,-5,-36
-45,-11,-11,-24,-24,-12,27,-4
13,11,12,24,24,1,-40,-2
-2,0,3,7,25,12,3,-30
-18,-1,-5,-12,-12,13,21,34
-7,-5,0,-14,-16,-12,-20,-56
13,3,0,4,-1,-10,-7,15
-21,1,1,12,-1,-3,13,11
2,-2,-2,-5,-7,-11,-16,-8
-4,-8,-6,6,-7,1,12,-11
-11,-2,2,2,11,-9,-20,33
-7,-2,-1,2,-1,11,-5,-92
-6,-4,-10,-12,-5,-3,-2,-2
9,0,-2,-5,-10,-6,-17,-52
39,15,8,-9,-7,10,21,49
-52,-15,-11,18,-4,-12,-14,-96
15,-2,-2,-9,3,2,11,75
7,-2,1,1,10,3,9,64
-9,-4,-2,5,-2,3,-15,-60
26,3,-1,-20,-12,-8,1,10
-6,5,11,36,22,0,5,36
-4,-7,-16,-33,-27,1,-8,-3
-32,-8,1,-5,-4,3,-9,-91
38,9,6,0,-2,-6,35,94
5,-8,-8,3,-7,-13,-55,-50
-22,2,5,0,19,6,11,55
-30,-3,6,20,14,15,2,-64
31,-2,-1,5,6,6,23,61
11,3,2,-11,-4,-2,5,9
-10,-2,-4,-7,-5,6,1,-63
14,1,-4,1,1,-28,-5,68
-21,-4,-1,-16,-20,-6,-35,-50
5,-2,-6,-7,29,13,18,49
-10,-8,-7,-14,-29,-17,-30,-52
10,-3,-11,-31,-9,2,30,85
12,10,10,30,18,0,-2,-31
-6,-9,-6,-8,-10,5,2,39
8,3,-1,1,9,7,-9,-41
-19,-2,4,-4,-8,0,3,13
18,-2,0,27,25,1,-7,30
1,-1,-3,-12,-18,-20,-9,1
12,1,2,-1,-2,11,-4,-74
24,-5,-8,4,-6,10,61,99
3,-2,-7,-28,-13,-21,-59,17
-8,1,3,-1,-7,19,21,-7
13,-5,-11,-14,-11,-17,-22,-35
-9,-6,-14,-49,-26,-5,-1,-57
3,-2,-1,4,-6,-11,-23,-49
37,4,5,14,20,-8,18,78
13,0,16,32,26,12,-8,-53
5,-5,1,-15,-30,-7,3,50
5,-2,-15,-12,-12,14,10,-37
6,0,-2,-20,-15,-10,-17,-12
26,5,0,7,12,11,38,127
3,9,15,34,44,7,-27,-116
20,-3,-1,-12,-7,4,28,127
-48,-12,-14,-11,-14,-16,-17,-114
-3,3,4,-2,0,-2,-6,0
10,-7,-12,0,-8,-6,-8,48
-21,3,1,-7,-10,6,0,-64
-8,-4,-5,-11,-11,4,7,18
-19,1,4,12,13,-18,-14,-43
15,3,1,-13,-17,-8,-15,37
-39,-6,2,5,8,4,21,-14
13,12,10,23,24,17,8,14
-33,-6,0,-19,-22,-4,-4,1
-46,-1,-2,34,12,-12,-13,-9
-29,0,5,1,-5,0,3,-71
-19,-10,-4,8,-15,-24,-33,-78
12,0,-15,-36,-20,29,38,39
-4,5,3,4,-1,0,-2,-4
-20,-19,-7,1,9,-8,-5,66
-37,1,2,31,9,5,-1,-101
-2,-2,4,6,-4,0,-2,-19
-27,-6,-12,-23,-13,-22,-38,-106
24,7,0,-14,-10,11,19,31
38,-9,-14,-24,-24,-6,2,65
-10,-9,-6,-2,8,-13,11,127
-43,-9,-2,-22,-22,14,7,-53
0,2,1,11,30,4,-17,-117
2,-2,-6,-5,-6,-2,-6,53
-28,1,1,-17,-16,-8,-15,-96
36,6,5,28,26,-1,11,123
23,5,0,-8,-18,-1,12,4
-21,2,11,31,34,3,-4,-30
-9,-4,-3,25,7,-10,-18,-60
20,3,0,-3,2,5,12,54
13,-1,3,15,12,2,-10,-33
12,3,1,-4,-10,4,11,-5
17,-3,-7,-13,1,-7,6,88
-2,-1,-8,-22,-28,-7,-11,-54
-23,-8,-13,15,6,-1,4,0
-3,3,2,-9,-6,9,10,-23
4,-10,-12,-37,-44,-22,-13,11
13,-1,-3,10,5,0,-8,-8
-18,-3,4,1,3,1,22,9
1,6,7,3,14,13,-7,29
7,4,15,22,9,-5,-26,-100
53,-1,-13,-15,-14,2,36,126
-66,-1,8,12,4,-13,-31,-88
-5,-7,-1,-5,-2,5,32,68
6,-2,-7,-1,1,3,-6,3
-33,-4,0,-1,-6,-6,-19,-74
43,-1,-8,-18,-13,-8,-7,43
-13,10,12,21,31,6,5,-16
-3,0,-3,-10,-11,6,12,34
-7,-1,-1,-2,18,-3,3,3
5,-2,-3,-19,-21,-15,-36,-55
9,-4,-10,-30,-9,10,33,55
-15,3,7,26,6,4,-12,-81
-3,-10,-9,1,-5,-7,8,81
14,2,4,11,13,6,1,10
10,2,1,3,0,-1,-16,-89
-15,1,9,16,16,1,-4,-51
30,0,5,15,28,12,8,83
-16,-3,1,-9,-17,3,16,56
3,-4,-10,-11,-27,-27,-26,5
9,0,-10,-22,2,11,15,-6
-14,5,17,27,26,-1,-18,-87
0,-11,-6,5,10,10,10,71
-2,-2,-4,-25,-8,-6,-11,-100
2,-4,-6,4,-10,-15,-16,62
-1,2,-3,-24,-24,-8,7,-19
4,3,1,22,31,12,6,-14
6,-2,-3,-2,6,-6,0,-16
8,-1,0,-15,-12,8,4,9
-5,-2,-6,-9,-19,-12,-11,-50
29,-5,-6,-11,-20,1,0,47
-14,3,5,-5,6,1,-12,-120
21,6,12,30,30,-3,17,127
12,4,0,-10,-7,16,-3,-31
-17,-1,0,10,1,-24,-5,4
-7,-6,-10,4,0,18,-5,-71
2,2,-4,-9,0,-5,2,23
20,4,17,21,18,-5,2,31
-9,5,3,31,11,-3,-2,22
18,-12,-20,-37,-49,-13,0,62
-23,-7,-24,-38,-22,-1,-7,-116
-15,4,8,18,19,7,-1,-1
14,8,2,-15,-22,-5,4,2
-32,-10,9,40,43,-16,-20,22
-9,5,7,2,-9,-1,2,-52
9,-7,-10,5,8,16,9,27
-1,4,1,-17,-6,-5,-6,29
9,0,-3,-11,-5,-22,-22,4
36,-10,-5,-16,-12,6,11,28
-25,0,5,17,9,3,4,13
-31,-3,5,2,-6,-14,-7,-95
16,-4,-11,-27,-27,11,26,44
-4,5,7,24,18,-13,-24,-56
18,-6,-7,-13,-16,-12,3,45
23,2,2,10,12,9,3,36
-14,-2,-2,-10,-8,4,10,-12
-22,2,3,37,23,16,16,35
3,-1,12,11,-9,1,-3,-37
-40,-9,-15,-18,-14,-8,-23,-96
7,6,1,20,13,1,4,77
5,-5,-6,-32,-23,1,-17,-44
0,5,-3,3,24,0,24,64
-9,-8,5,-21,-21,8,-6,-63
28,3,-6,-12,-17,2,-2,83
7,-8,-7,6,-8,-2,19,72
-35,0,4,3,12,-12,-49,-128
-10,-6,-9,8,6,27,60,127
-6,8,10,-11,4,-3,-20,-79
1,-1,3,10,16,-2,-7,26
29,8,7,-6,-15,1,14,-7
15,1,3,26,13,-5,-27,-74
-12,-3,-6,-5,-11,7,15,23
5,3,10,40,38,0,0,49
31,0,-8,-21,-41,6,14,44
-71,-11,-1,35,27,-17,-18,-41
5,-2,15,36,14,12,5,-25
