(0.973999, 0.18359375, 0.0210571289, 0.130493164)
(0.974243164, 0.183532715, 0.0212402344, 0.12902832)
(0.974243164, 0.183532715, 0.0212402344, 0.12902832)
(0.97442627, 0.183654785, 0.0208740234, 0.1274414)
(0.97442627, 0.183654785, 0.0208740234, 0.1274414)
(0.97442627, 0.183959961, 0.0202026367, 0.1272583)
(0.9743042, 0.184143066, 0.0198974609, 0.127990723)
(0.9743042, 0.184143066, 0.0198974609, 0.127990723)
(0.9743042, 0.184143066, 0.01977539, 0.127929688)
(0.9743042, 0.184143066, 0.01977539, 0.127929688)
(0.9743042, 0.184143066, 0.01977539, 0.127929688)
(0.97442627, 0.183959961, 0.0195922852, 0.12701416)
(0.9746704, 0.183776855, 0.0194702148, 0.125671387)
(0.9746704, 0.183776855, 0.0194702148, 0.125671387)
(0.9747925, 0.183837891, 0.0189208984, 0.124511719)
(0.9747925, 0.183837891, 0.0189208984, 0.124511719)
(0.9748535, 0.183654785, 0.0173339844, 0.12487793)
(0.974731445, 0.1828003, 0.0145874023, 0.1274414)
(0.974731445, 0.1828003, 0.0145874023, 0.1274414)
(0.974731445, 0.1828003, 0.0145874023, 0.1274414)
(0.974914551, 0.180541992, 0.0124511719, 0.12902832)
(0.975647, 0.177978516, 0.0111694336, 0.1274414)
(0.9761963, 0.1772461, 0.009887695, 0.124206543)
(0.9761963, 0.1772461, 0.009887695, 0.124206543)
(0.9761963, 0.1772461, 0.009887695, 0.124206543)
(0.9762573, 0.177490234, 0.008239746, 0.123413086)
(0.9762573, 0.177490234, 0.008239746, 0.123413086)
(0.9763794, 0.177856445, 0.006958008, 0.122375488)
(0.9764404, 0.178100586, 0.00610351563, 0.121582031)
(0.9764404, 0.178100586, 0.00610351563, 0.121582031)
(0.9769287, 0.178039551, 0.00518798828, 0.117492676)
(0.9769287, 0.178039551, 0.00518798828, 0.117492676)
(0.9772339, 0.17791748, 0.003967285, 0.115356445)
(0.9772339, 0.17791748, 0.003967285, 0.115356445)
(0.977172852, 0.17767334, 0.00366210938, 0.116210938)
(0.9772339, 0.177124023, 0.00372314453, 0.116455078)
(0.9772339, 0.177124023, 0.00372314453, 0.116455078)
(0.977478, 0.176452637, 0.00408935547, 0.115478516)
(0.977478, 0.176452637, 0.00408935547, 0.115478516)
(0.977844238, 0.176025391, 0.00451660156, 0.1126709)
(0.977844238, 0.176025391, 0.00451660156, 0.1126709)
(0.9781494, 0.1751709, 0.00451660156, 0.111816406)
(0.9781494, 0.1751709, 0.00451660156, 0.111816406)
(0.978027344, 0.174743652, 0.00445556641, 0.11315918)
(0.9780884, 0.174438477, 0.00457763672, 0.11315918)
(0.9780884, 0.174438477, 0.00457763672, 0.11315918)
(0.9783325, 0.174621582, 0.004760742, 0.110534668)
(0.9783325, 0.174621582, 0.004760742, 0.110534668)
(0.97857666, 0.1749878, 0.00439453125, 0.107910156)
(0.97857666, 0.175109863, 0.004760742, 0.108093262)
(0.97857666, 0.175109863, 0.004760742, 0.108093262)
(0.978393555, 0.175415039, 0.005004883, 0.108947754)
(0.978393555, 0.175415039, 0.005004883, 0.108947754)
(0.9784546, 0.175354, 0.00524902344, 0.108642578)
(0.9784546, 0.175354, 0.00524902344, 0.108642578)
(0.9785156, 0.175537109, 0.005065918, 0.107421875)
(0.9785156, 0.175537109, 0.005065918, 0.107421875)
(0.97857666, 0.175537109, 0.005126953, 0.107299805)
(0.97857666, 0.175537109, 0.005126953, 0.107299805)
(0.9784546, 0.175476074, 0.005432129, 0.1081543)
(0.9784546, 0.175476074, 0.005432129, 0.1081543)
(0.978393555, 0.175476074, 0.00537109375, 0.108703613)
(0.978393555, 0.175354, 0.005065918, 0.108825684)
(0.978393555, 0.175354, 0.005065918, 0.108825684)
(0.9784546, 0.175292969, 0.004760742, 0.108520508)
(0.9784546, 0.175292969, 0.004760742, 0.108520508)
(0.9784546, 0.175415039, 0.004333496, 0.1083374)
(0.9784546, 0.175415039, 0.004333496, 0.1083374)
(0.978393555, 0.175476074, 0.00402832031, 0.108947754)
(0.978393555, 0.175476074, 0.00402832031, 0.108947754)
(0.9782715, 0.175537109, 0.00372314453, 0.109680176)
(0.9782715, 0.175415039, 0.00323486328, 0.110046387)
(0.9782715, 0.175415039, 0.00323486328, 0.110046387)
(0.9782715, 0.175415039, 0.00317382813, 0.110046387)
(0.9782715, 0.175415039, 0.00317382813, 0.110046387)
(0.978210449, 0.175354, 0.0029296875, 0.110900879)
(0.978210449, 0.175354, 0.0029296875, 0.110900879)
(0.9781494, 0.175109863, 0.002746582, 0.1116333)
(0.978210449, 0.174804688, 0.00244140625, 0.111755371)
(0.978210449, 0.174804688, 0.00244140625, 0.111755371)
(0.9782715, 0.174499512, 0.00219726563, 0.111755371)
(0.9782715, 0.174499512, 0.00219726563, 0.111755371)
(0.9782715, 0.174255371, 0.00213623047, 0.111755371)
(0.9782715, 0.174255371, 0.00213623047, 0.111755371)
(0.9782715, 0.1739502, 0.00177001953, 0.112487793)
(0.9782715, 0.1739502, 0.00177001953, 0.112487793)
(0.9782715, 0.173400879, 0.00134277344, 0.113464355)
(0.9783325, 0.173156738, 0.000915527344, 0.113220215)
(0.9783325, 0.173156738, 0.000915527344, 0.113220215)
(0.978393555, 0.173461914, 0.000122070313, 0.112182617)
(0.978393555, 0.173461914, 0.000122070313, 0.112182617)
(0.978393555, 0.17376709, -0.0004272461, 0.111877441)
(0.978393555, 0.17376709, -0.0004272461, 0.111877441)
(0.9782715, 0.17401123, -0.0006713867, 0.112487793)
(0.978210449, 0.17401123, -0.000793457031, 0.113037109)
(0.978210449, 0.17401123, -0.000793457031, 0.113037109)
(0.978210449, 0.17401123, -0.0008544922, 0.113037109)
(0.978210449, 0.17401123, -0.0008544922, 0.113037109)
(0.978210449, 0.17401123, -0.0008544922, 0.113037109)
(0.978210449, 0.17401123, -0.0008544922, 0.113037109)
(0.978210449, 0.17401123, -0.000915527344, 0.113037109)
(0.978210449, 0.17401123, -0.000915527344, 0.113037109)
(0.9781494, 0.17401123, -0.0006713867, 0.113464355)
(0.9781494, 0.17401123, -0.0006713867, 0.113464355)
(0.9781494, 0.174072266, -0.0004272461, 0.113464355)
(0.9781494, 0.1739502, -0.0004272461, 0.11328125)
(0.9781494, 0.1739502, -0.0004272461, 0.11328125)
(0.978210449, 0.173706055, -0.000366210938, 0.113220215)
(0.978210449, 0.173706055, -0.000366210938, 0.113220215)
(0.978210449, 0.173706055, -0.000366210938, 0.11328125)
(0.978210449, 0.173706055, -0.000244140625, 0.113586426)
(0.978210449, 0.173706055, -0.000244140625, 0.113586426)
(0.978210449, 0.173706055, -0.000244140625, 0.113586426)
(0.9781494, 0.17364502, -0.000122070313, 0.113830566)
(0.9781494, 0.17364502, -0.000122070313, 0.113830566)
(0.9781494, 0.17364502, 0.000122070313, 0.114196777)
(0.9780884, 0.17364502, 0, 0.114440918)
(0.9780884, 0.17364502, 0, 0.114440918)
(0.9781494, 0.173522949, 6.10351563E-05, 0.114013672)
(0.9781494, 0.173522949, 6.10351563E-05, 0.114013672)
(0.978210449, 0.173522949, 0.000183105469, 0.113647461)
(0.978210449, 0.173522949, 0.000183105469, 0.113647461)
(0.978210449, 0.173400879, 0.0004272461, 0.1138916)
(0.9782715, 0.173217773, 0.000793457031, 0.113647461)
(0.9782715, 0.173217773, 0.000793457031, 0.113647461)
(0.9783325, 0.173278809, 0.00103759766, 0.112976074)
(0.9783325, 0.173278809, 0.00103759766, 0.112976074)
(0.978393555, 0.173156738, 0.001159668, 0.112548828)
(0.978393555, 0.173156738, 0.001159668, 0.112548828)
(0.978393555, 0.1729126, 0.00152587891, 0.112792969)
(0.978393555, 0.1729126, 0.00152587891, 0.112792969)
(0.978393555, 0.172607422, 0.001953125, 0.113525391)
(0.978393555, 0.172302246, 0.00219726563, 0.113769531)
(0.978393555, 0.172302246, 0.00219726563, 0.113769531)
(0.9784546, 0.172180176, 0.00219726563, 0.11340332)
(0.9784546, 0.172180176, 0.00219726563, 0.11340332)
(0.9785156, 0.172119141, 0.00219726563, 0.113342285)
(0.9784546, 0.17199707, 0.00219726563, 0.1138916)
(0.9784546, 0.17199707, 0.00219726563, 0.1138916)
(0.978393555, 0.171813965, 0.002319336, 0.114624023)
(0.978393555, 0.171813965, 0.002319336, 0.114624023)
(0.9783325, 0.17199707, 0.002319336, 0.114685059)
(0.9783325, 0.17199707, 0.002319336, 0.114685059)
(0.9784546, 0.172119141, 0.00213623047, 0.1138916)
(0.9784546, 0.172119141, 0.00213623047, 0.1138916)
(0.9784546, 0.172119141, 0.00213623047, 0.113952637)
(0.9784546, 0.172119141, 0.00213623047, 0.113952637)
(0.9783325, 0.172241211, 0.00207519531, 0.114746094)
(0.9783325, 0.172241211, 0.00207519531, 0.114746094)
(0.9782715, 0.172363281, 0.00201416016, 0.114868164)
(0.9783325, 0.172424316, 0.00189208984, 0.114074707)
(0.9783325, 0.172424316, 0.00189208984, 0.114074707)
(0.978393555, 0.172546387, 0.00201416016, 0.113830566)
(0.978393555, 0.172546387, 0.00201416016, 0.113830566)
(0.9783325, 0.172546387, 0.00213623047, 0.114196777)
(0.9782715, 0.172546387, 0.00207519531, 0.114562988)
(0.9782715, 0.172546387, 0.00207519531, 0.114562988)
(0.9782715, 0.172546387, 0.00207519531, 0.114562988)
(0.9782715, 0.172607422, 0.00201416016, 0.114501953)
(0.9782715, 0.172607422, 0.00189208984, 0.114318848)
(0.9782715, 0.172607422, 0.00189208984, 0.114318848)
(0.9782715, 0.172607422, 0.001953125, 0.114685059)
(0.9782715, 0.172607422, 0.001953125, 0.114685059)
(0.9782715, 0.172546387, 0.001953125, 0.114685059)
(0.9782715, 0.172546387, 0.001953125, 0.114685059)
(0.9782715, 0.172546387, 0.00183105469, 0.114440918)
(0.9783325, 0.172546387, 0.00201416016, 0.114318848)
(0.9783325, 0.172546387, 0.00201416016, 0.114318848)
(0.9783325, 0.172729492, 0.00213623047, 0.114013672)
(0.9783325, 0.172729492, 0.00213623047, 0.114013672)
(0.9783325, 0.172790527, 0.00225830078, 0.1138916)
(0.9783325, 0.172790527, 0.00225830078, 0.1138916)
(0.9783325, 0.172790527, 0.00225830078, 0.1138916)
(0.9783325, 0.172790527, 0.00225830078, 0.1138916)
(0.9783325, 0.172790527, 0.00219726563, 0.1138916)
(0.9783325, 0.172790527, 0.00219726563, 0.1138916)
(0.9783325, 0.172790527, 0.00219726563, 0.1138916)
(0.9783325, 0.172790527, 0.00213623047, 0.1138916)
(0.9783325, 0.172790527, 0.00213623047, 0.1138916)
(0.9783325, 0.172973633, 0.00201416016, 0.113708496)
(0.9783325, 0.172973633, 0.00201416016, 0.113708496)
(0.9783325, 0.172973633, 0.001953125, 0.113708496)
(0.9782715, 0.172973633, 0.00170898438, 0.114013672)
(0.9782715, 0.172973633, 0.00170898438, 0.114013672)
(0.9782715, 0.172973633, 0.00170898438, 0.113952637)
(0.9782715, 0.172973633, 0.00170898438, 0.113952637)
(0.9782715, 0.173217773, 0.00152587891, 0.11340332)
(0.9782715, 0.173217773, 0.00152587891, 0.11340332)
(0.9782715, 0.173217773, 0.00152587891, 0.113464355)
(0.9782715, 0.173217773, 0.00152587891, 0.113464355)
(0.978210449, 0.173339844, 0.00140380859, 0.113769531)
(0.978210449, 0.173339844, 0.00140380859, 0.113769531)
(0.978210449, 0.173339844, 0.00134277344, 0.113708496)
(0.978210449, 0.173339844, 0.00134277344, 0.113708496)
(0.978210449, 0.173339844, 0.00134277344, 0.113708496)
(0.9782715, 0.173400879, 0.00109863281, 0.113586426)
(0.9782715, 0.173400879, 0.00109863281, 0.113586426)
(0.9782715, 0.173400879, 0.00103759766, 0.113586426)
(0.9782715, 0.173400879, 0.00103759766, 0.113586426)
(0.9782715, 0.173400879, 0.00103759766, 0.113586426)
(0.9782715, 0.173400879, 0.00103759766, 0.113586426)
(0.9782715, 0.173400879, 0.00103759766, 0.113586426)
(0.9782715, 0.173400879, 0.00103759766, 0.113586426)
(0.9782715, 0.173400879, 0.00103759766, 0.113586426)
(0.9782715, 0.173400879, 0.0009765625, 0.113586426)
(0.9782715, 0.173400879, 0.0009765625, 0.113586426)
(0.9782715, 0.173400879, 0.000915527344, 0.113525391)
(0.9782715, 0.173400879, 0.000915527344, 0.113525391)
(0.9782715, 0.173461914, 0.0008544922, 0.113220215)
(0.9782715, 0.173461914, 0.0008544922, 0.113220215)
(0.9782715, 0.173461914, 0.0008544922, 0.113220215)
(0.978210449, 0.173522949, 0.0008544922, 0.113586426)
(0.978210449, 0.173522949, 0.0008544922, 0.113586426)
(0.978210449, 0.173522949, 0.0008544922, 0.113586426)
(0.978210449, 0.173522949, 0.0008544922, 0.113586426)
(0.9782715, 0.17364502, 0.000610351563, 0.113098145)
(0.9782715, 0.17364502, 0.000610351563, 0.113098145)
(0.9782715, 0.17376709, 0.00048828125, 0.1126709)
(0.9782715, 0.17376709, 0.00048828125, 0.1126709)
(0.9782715, 0.17376709, 0.0004272461, 0.1126709)
(0.9782715, 0.17376709, 0.000366210938, 0.1126709)
(0.9782715, 0.17376709, 0.000366210938, 0.1126709)
(0.9783325, 0.173706055, 0.000366210938, 0.112121582)
(0.9783325, 0.173706055, 0.000366210938, 0.112121582)
(0.978393555, 0.173522949, 0.000305175781, 0.112060547)
(0.978393555, 0.173522949, 0.000305175781, 0.112060547)
(0.978393555, 0.173522949, 0.0004272461, 0.112243652)
(0.9783325, 0.173461914, 0.000305175781, 0.112426758)
(0.9783325, 0.173461914, 0.000305175781, 0.112426758)
(0.9783325, 0.173461914, 0.000305175781, 0.112426758)
(0.978393555, 0.173461914, 0.000244140625, 0.112426758)
(0.978393555, 0.17364502, -6.10351563E-05, 0.111938477)
(0.978393555, 0.17364502, -6.10351563E-05, 0.111938477)
(0.9783325, 0.1739502, -0.000305175781, 0.111755371)
(0.9783325, 0.1739502, -0.000305175781, 0.111755371)
(0.9782715, 0.174072266, -0.00048828125, 0.112121582)
(0.9782715, 0.174072266, -0.00048828125, 0.112121582)
(0.978210449, 0.174194336, -0.000793457031, 0.112426758)
(0.978210449, 0.174194336, -0.000793457031, 0.112365723)
(0.978210449, 0.174194336, -0.000793457031, 0.112365723)
(0.9782715, 0.174194336, -0.0008544922, 0.112365723)
(0.9782715, 0.174194336, -0.0008544922, 0.112365723)
(0.9782715, 0.174194336, -0.0008544922, 0.112365723)
(0.9782715, 0.174194336, -0.0008544922, 0.112304688)
(0.9782715, 0.174194336, -0.0008544922, 0.112304688)
(0.9782715, 0.174194336, -0.000793457031, 0.111877441)
(0.9782715, 0.174194336, -0.000793457031, 0.111877441)
(0.9783325, 0.1741333, -0.0005493164, 0.111450195)
(0.9783325, 0.1741333, -0.0005493164, 0.111450195)
(0.978393555, 0.174072266, -0.000305175781, 0.11114502)
(0.978393555, 0.174072266, -0.000305175781, 0.11114502)
(0.978393555, 0.174072266, -0.000366210938, 0.11114502)
(0.978393555, 0.174072266, -0.000366210938, 0.11114502)
(0.9784546, 0.1741333, -0.000305175781, 0.110473633)
(0.9784546, 0.1741333, -0.000366210938, 0.110473633)
(0.9784546, 0.1741333, -0.000366210938, 0.110473633)
(0.9785156, 0.1739502, -0.000366210938, 0.1105957)
(0.9785156, 0.1739502, -0.000366210938, 0.1105957)
(0.9784546, 0.17388916, -0.0005493164, 0.111022949)
(0.9784546, 0.17388916, -0.0005493164, 0.111022949)
(0.9784546, 0.17376709, -0.0006713867, 0.11126709)
(0.9784546, 0.17376709, -0.0006713867, 0.11126709)
(0.9784546, 0.17376709, -0.0007324219, 0.111206055)
(0.9784546, 0.17376709, -0.0007324219, 0.111206055)
(0.978393555, 0.17376709, -0.000793457031, 0.111450195)
(0.978393555, 0.173828125, -0.0008544922, 0.111816406)
(0.978393555, 0.173828125, -0.0008544922, 0.111816406)
(0.978393555, 0.17388916, -0.0007324219, 0.1116333)
(0.978393555, 0.17388916, -0.0007324219, 0.1116333)
(0.978393555, 0.17388916, -0.0007324219, 0.1116333)
(0.978393555, 0.17388916, -0.0007324219, 0.1116333)
(0.978393555, 0.17388916, -0.0007324219, 0.1116333)
(0.978393555, 0.17388916, -0.000793457031, 0.1116333)
(0.978393555, 0.17388916, -0.000793457031, 0.1116333)
(0.9783325, 0.17388916, -0.000915527344, 0.111816406)
(0.9783325, 0.17388916, -0.000915527344, 0.111816406)
(0.9783325, 0.17388916, -0.000915527344, 0.111816406)
(0.9783325, 0.17388916, -0.000915527344, 0.111816406)
(0.9783325, 0.17388916, -0.0009765625, 0.111816406)
(0.9783325, 0.17388916, -0.0009765625, 0.111816406)
(0.9783325, 0.173828125, -0.000915527344, 0.111938477)
(0.9783325, 0.173828125, -0.000915527344, 0.111938477)
(0.9783325, 0.17376709, -0.0006713867, 0.112243652)
(0.9782715, 0.17388916, -0.0008544922, 0.112487793)
(0.9782715, 0.17388916, -0.0008544922, 0.112487793)
(0.9783325, 0.1739502, -0.0009765625, 0.112121582)
(0.9783325, 0.1741333, -0.00109863281, 0.111755371)
(0.9783325, 0.1741333, -0.00109863281, 0.111755371)
(0.9782715, 0.174255371, -0.000915527344, 0.111694336)
(0.9782715, 0.174255371, -0.000915527344, 0.111694336)
(0.9782715, 0.174255371, -0.000915527344, 0.111694336)
(0.9782715, 0.174255371, -0.00103759766, 0.112060547)
(0.9782715, 0.1741333, -0.00109863281, 0.112304688)
(0.9782715, 0.1741333, -0.00109863281, 0.112304688)
(0.9782715, 0.1741333, -0.00109863281, 0.112243652)
(0.9782715, 0.1741333, -0.00109863281, 0.112243652)
(0.9782715, 0.1741333, -0.001159668, 0.112243652)
(0.9782715, 0.1741333, -0.001159668, 0.112243652)
(0.9782715, 0.1741333, -0.001159668, 0.112243652)
(0.9782715, 0.1741333, -0.001159668, 0.112243652)
(0.9782715, 0.1741333, -0.001159668, 0.112243652)
(0.9782715, 0.174072266, -0.00103759766, 0.112365723)
(0.9782715, 0.174072266, -0.00103759766, 0.112365723)
(0.9782715, 0.174072266, -0.000915527344, 0.112487793)
(0.9782715, 0.174072266, -0.000915527344, 0.112487793)
(0.9782715, 0.17401123, -0.0008544922, 0.112548828)
(0.9782715, 0.17401123, -0.0008544922, 0.112548828)
(0.978210449, 0.17401123, -0.000915527344, 0.112854004)
(0.978210449, 0.1741333, -0.000915527344, 0.112609863)
(0.978210449, 0.1741333, -0.000915527344, 0.112609863)
(0.978210449, 0.1741333, -0.000915527344, 0.112548828)
(0.978210449, 0.1741333, -0.000915527344, 0.112548828)
(0.978210449, 0.1741333, -0.0009765625, 0.112548828)
(0.978210449, 0.1741333, -0.0009765625, 0.112548828)
(0.978210449, 0.1741333, -0.0009765625, 0.112548828)
(0.978210449, 0.1741333, -0.00103759766, 0.112548828)
(0.978210449, 0.1741333, -0.00103759766, 0.112548828)
(0.978210449, 0.1741333, -0.00109863281, 0.112548828)
(0.978210449, 0.1741333, -0.00109863281, 0.112548828)
(0.978210449, 0.1739502, -0.001159668, 0.112731934)
(0.978210449, 0.1739502, -0.001159668, 0.112731934)
(0.978210449, 0.173828125, -0.00128173828, 0.112915039)
(0.978210449, 0.173828125, -0.00128173828, 0.112915039)
(0.9782715, 0.173828125, -0.00128173828, 0.112854004)
(0.9782715, 0.173828125, -0.00128173828, 0.112854004)
(0.9782715, 0.173828125, -0.00128173828, 0.112854004)
(0.9782715, 0.173828125, -0.00128173828, 0.112854004)
(0.9782715, 0.173828125, -0.00128173828, 0.112854004)
(0.9782715, 0.173828125, -0.00134277344, 0.112854004)
(0.9782715, 0.173828125, -0.00134277344, 0.112854004)
(0.9782715, 0.173828125, -0.00134277344, 0.112854004)
(0.9782715, 0.17388916, -0.00140380859, 0.112792969)
(0.9782715, 0.17388916, -0.00140380859, 0.112792969)
(0.9782715, 0.17388916, -0.00140380859, 0.112792969)
(0.9782715, 0.17401123, -0.00158691406, 0.112365723)
(0.9782715, 0.17401123, -0.00158691406, 0.112365723)
(0.9782715, 0.174072266, -0.00170898438, 0.112243652)
(0.9782715, 0.174072266, -0.00170898438, 0.112243652)
(0.9782715, 0.174072266, -0.00170898438, 0.112243652)
(0.9782715, 0.174072266, -0.00177001953, 0.112243652)
(0.9782715, 0.174072266, -0.00177001953, 0.112243652)
(0.9783325, 0.174072266, -0.00189208984, 0.111755371)
(0.9783325, 0.174072266, -0.00189208984, 0.111755371)
(0.9783325, 0.174072266, -0.001953125, 0.111755371)
(0.9783325, 0.174072266, -0.001953125, 0.111755371)
(0.9783325, 0.17401123, -0.001953125, 0.112060547)
(0.9783325, 0.17401123, -0.001953125, 0.112060547)
(0.9783325, 0.17401123, -0.001953125, 0.112060547)
(0.9783325, 0.17401123, -0.001953125, 0.111999512)
(0.9783325, 0.17401123, -0.001953125, 0.111999512)
(0.9783325, 0.17401123, -0.00201416016, 0.111999512)
(0.9783325, 0.17401123, -0.00201416016, 0.111999512)
(0.9783325, 0.17401123, -0.00201416016, 0.111999512)
(0.9783325, 0.174072266, -0.00207519531, 0.111999512)
(0.9783325, 0.174072266, -0.00207519531, 0.111999512)
(0.9783325, 0.174194336, -0.00219726563, 0.1116333)
(0.9783325, 0.174194336, -0.00219726563, 0.1116333)
(0.9783325, 0.174194336, -0.00225830078, 0.1116333)
(0.9783325, 0.174194336, -0.00225830078, 0.1116333)
(0.9783325, 0.174072266, -0.002319336, 0.111877441)
(0.9783325, 0.174072266, -0.002319336, 0.111877441)
(0.9783325, 0.174072266, -0.002319336, 0.111877441)
(0.9783325, 0.174072266, -0.002319336, 0.111877441)
(0.9783325, 0.174072266, -0.002380371, 0.111816406)
(0.9783325, 0.174194336, -0.00250244141, 0.111572266)
(0.9783325, 0.174194336, -0.00250244141, 0.111572266)
(0.9783325, 0.174194336, -0.00256347656, 0.111572266)
(0.9783325, 0.174194336, -0.00256347656, 0.111572266)
(0.9782715, 0.1743164, -0.00268554688, 0.111755371)
(0.9782715, 0.1743164, -0.002746582, 0.111755371)
(0.9782715, 0.1743164, -0.002746582, 0.111755371)
(0.9782715, 0.1743164, -0.002746582, 0.111694336)
(0.9782715, 0.1743164, -0.002746582, 0.111694336)
(0.9782715, 0.1743164, -0.00280761719, 0.111694336)
(0.9782715, 0.1743164, -0.00280761719, 0.111694336)
(0.9782715, 0.174377441, -0.00268554688, 0.111572266)
(0.9782715, 0.174377441, -0.00268554688, 0.111572266)
(0.9782715, 0.174377441, -0.002746582, 0.111572266)
(0.9782715, 0.174377441, -0.002746582, 0.111572266)
(0.9782715, 0.174377441, -0.002746582, 0.11151123)
(0.9782715, 0.174377441, -0.00280761719, 0.11151123)
(0.9782715, 0.174377441, -0.00280761719, 0.11151123)
(0.9782715, 0.174377441, -0.00286865234, 0.11151123)
(0.9782715, 0.174377441, -0.00286865234, 0.11151123)
(0.978210449, 0.174621582, -0.0029296875, 0.111816406)
(0.978210449, 0.174621582, -0.0029296875, 0.111816406)
(0.9781494, 0.174865723, -0.003112793, 0.111877441)
(0.9780884, 0.175292969, -0.00341796875, 0.111877441)
(0.9780884, 0.175354, -0.00341796875, 0.111816406)
(0.9780884, 0.175354, -0.00341796875, 0.111816406)
(0.9780884, 0.175354, -0.00341796875, 0.111816406)
(0.9780884, 0.175354, -0.00341796875, 0.111816406)
(0.9780884, 0.175354, -0.003479004, 0.111816406)
(0.9780884, 0.175354, -0.003479004, 0.111816406)
(0.9780884, 0.175354, -0.003479004, 0.111816406)
(0.9780884, 0.175354, -0.003540039, 0.111816406)
(0.9780884, 0.175354, -0.003540039, 0.111816406)
(0.9780884, 0.175354, -0.003540039, 0.111816406)
(0.9780884, 0.175354, -0.003540039, 0.111816406)
(0.9780884, 0.175354, -0.00360107422, 0.111816406)
(0.9780884, 0.175354, -0.00360107422, 0.111816406)
(0.9780884, 0.175354, -0.00366210938, 0.111816406)
(0.9780884, 0.175354, -0.00366210938, 0.111816406)
(0.9780884, 0.175354, -0.00366210938, 0.111755371)
(0.9780884, 0.175354, -0.00372314453, 0.111755371)
(0.9780884, 0.175354, -0.00372314453, 0.111755371)
(0.9780884, 0.175415039, -0.00366210938, 0.111694336)
(0.9780884, 0.175415039, -0.00366210938, 0.111694336)
(0.9780884, 0.175415039, -0.00372314453, 0.1116333)
(0.9780884, 0.175415039, -0.00372314453, 0.1116333)
(0.9780884, 0.175415039, -0.00372314453, 0.1116333)
(0.9780884, 0.175415039, -0.00372314453, 0.1116333)
(0.9780884, 0.175415039, -0.00372314453, 0.1116333)
(0.9780884, 0.175415039, -0.00372314453, 0.1116333)
(0.9780884, 0.175415039, -0.00372314453, 0.1116333)
(0.9780884, 0.175476074, -0.003967285, 0.11138916)
(0.9780884, 0.175476074, -0.003967285, 0.11138916)
(0.9780884, 0.175476074, -0.00402832031, 0.11138916)
(0.9780884, 0.175476074, -0.00402832031, 0.11138916)
(0.9780884, 0.175476074, -0.00408935547, 0.11138916)
(0.9780884, 0.175476074, -0.00408935547, 0.11138916)
(0.9780884, 0.175476074, -0.00408935547, 0.11138916)
(0.9780884, 0.175476074, -0.00408935547, 0.11138916)
(0.9780884, 0.175476074, -0.00408935547, 0.11138916)
(0.9781494, 0.175292969, -0.004272461, 0.11151123)
(0.9781494, 0.175292969, -0.004272461, 0.11151123)
(0.9781494, 0.175292969, -0.004272461, 0.11151123)
(0.9781494, 0.175292969, -0.004272461, 0.11151123)
(0.9781494, 0.175292969, -0.004333496, 0.11151123)
(0.9781494, 0.175292969, -0.004333496, 0.11151123)
(0.9781494, 0.175292969, -0.004333496, 0.11151123)
(0.9781494, 0.175292969, -0.00439453125, 0.111572266)
(0.9781494, 0.175292969, -0.00439453125, 0.111572266)
(0.9781494, 0.175292969, -0.00439453125, 0.111572266)
(0.9781494, 0.175292969, -0.00439453125, 0.111572266)
(0.9781494, 0.175292969, -0.00445556641, 0.111572266)
(0.9781494, 0.175292969, -0.00445556641, 0.111572266)
(0.9781494, 0.175292969, -0.00445556641, 0.111572266)
(0.9780884, 0.175415039, -0.004638672, 0.111694336)
(0.9780884, 0.175415039, -0.004638672, 0.111694336)
(0.978027344, 0.175476074, -0.004760742, 0.111877441)
