0,0,-2,-5,-11,-10,-3,-3
-1,-1,0,1,4,8,0,0
0,-1,0,-2,-5,-13,-5,-1
-2,-2,0,-2,4,6,-1,-1
-2,-1,-1,-2,-12,-34,-4,-1
-3,0,-1,-1,2,15,-1,-1
-3,-1,-1,-1,1,11,3,-1
-1,0,0,0,-2,-8,3,-1
0,-1,-3,1,5,12,-3,-3
1,-3,-3,-4,-3,-1,-1,1
3,1,-2,-4,-6,2,-2,-3
-1,0,-1,0,-2,-7,-3,-2
1,-1,0,-1,4,16,2,1
-2,0,2,0,-7,-19,-3,0
-3,-1,-2,-1,6,11,-4,-2
1,-1,-1,-1,-4,3,1,2
-3,-1,-2,-1,2,-1,1,-1
0,-2,-1,-1,-4,-5,-1,-1
-1,-2,-3,-1,4,6,0,-3
0,-1,0,0,-10,-29,0,-2
-1,-1,-2,0,3,10,1,-3
0,-2,-1,-3,-7,-16,-2,-2
-2,-1,0,0,2,-6,1,1
-1,-1,-3,-2,0,2,-3,0
-2,-2,-1,1,-2,-7,-3,-4
-9,0,0,2,-8,-5,1,-12
1,1,0,-2,-1,-23,-6,3
-1,-1,-3,-3,-1,6,1,-2
0,0,0,1,-1,5,-2,0
0,-3,0,-1,3,11,1,-1
-3,-2,0,0,-3,-21,-7,-9
-3,2,1,1,0,15,3,1
4,-1,0,-3,-4,-9,-3,-2
4,-2,-2,-1,4,17,1,3
0,-2,-2,-1,-5,-5,-4,1
2,-2,-1,0,-2,-13,-4,3
-3,-2,-1,0,9,13,1,-5
-2,-1,-2,-2,1,9,-5,-1
-1,-1,0,0,-7,-4,1,-1
-4,0,-3,-4,1,0,-2,-8
-1,1,0,0,-6,-10,4,1
-1,0,-1,-3,3,5,-2,0
-6,-2,-2,-4,-15,-14,-10,-4
-12,-2,2,2,17,7,-1,0
7,-1,0,-3,-7,4,9,-7
-6,-3,-3,-2,-6,-20,-3,-15
2,-1,-2,2,1,17,8,-1
5,-4,-3,-5,-8,-12,-7,0
-9,-4,-4,-6,-12,-47,-19,-5
11,3,4,8,18,26,8,-1
8,1,1,-2,-5,-3,8,6
-3,-1,-2,1,0,0,-2,-3
-8,0,-2,-1,2,-3,-3,-5
-9,-1,-2,-4,-16,-8,-9,-2
-6,-3,-3,-3,-3,-20,-25,-13
-1,0,-1,-1,5,28,21,-1
3,2,0,3,6,45,9,11
-4,-3,-5,-4,-2,-8,4,13
35,-1,0,1,1,8,2,-3
-36,-7,-3,-6,-7,-41,-26,-8
-56,0,-3,-3,-8,34,-3,-44
54,3,-1,1,14,-35,23,39
-5,0,2,5,12,56,20,-12
10,0,0,-1,-18,13,-2,-9
38,3,0,-1,3,-62,-2,48
-17,-5,-5,-12,-25,2,-39,-63
0,4,11,19,46,54,56,-11
-34,-3,-7,-9,-5,-18,-16,-24
50,1,5,7,-2,-10,12,35
-5,-1,-2,4,-14,8,4,10
-29,-7,-7,-14,-18,-71,-27,2
80,5,5,11,38,102,22,25
11,2,3,2,6,37,13,-15
-9,-2,-2,-5,-21,-30,-23,1
-1,1,-3,-7,-14,-35,-12,38
-3,-4,0,6,32,-1,7,28
-34,-4,-4,-5,-28,-70,-6,-32
17,-1,0,5,51,112,43,38
-14,-1,-3,-5,-46,-64,-28,-18
-12,0,1,-1,-7,43,8,-6
20,-7,-10,-19,-88,-89,-36,11
-66,-1,2,10,77,11,-12,-36
26,2,0,16,84,104,41,2
-1,-3,-2,-5,-32,-56,-4,-14
-48,-11,-6,-5,24,57,-34,3
23,5,1,-9,-104,-121,0,-13
-4,-1,3,5,28,16,-7,42
13,2,2,5,2,43,8,-18
-24,-4,2,3,29,-67,2,-15
-4,-5,-5,-2,26,-71,-44,-6
-4,2,1,0,-7,57,20,19
2,-2,5,1,-23,48,25,21
32,11,4,9,11,7,18,39
-19,1,0,0,11,59,11,8
-10,-6,-5,-11,-46,-84,-24,-31
4,-6,-4,-14,-32,-65,-31,-8
-31,0,1,2,31,98,29,-24
19,3,7,7,33,-6,1,2
-12,-4,-5,-7,-34,-85,-17,1
2,-2,-6,5,38,9,-13,-6
19,3,-1,-8,-46,-19,20,17
-8,2,3,13,19,3,-1,-1
14,4,7,5,8,19,29,13
25,7,-4,-14,-60,-23,-23,16
-20,5,5,10,72,-92,-26,-30
10,-11,-10,-9,-11,-29,-9,16
16,-2,-2,4,28,84,11,-7
-18,-3,-4,-10,-13,-42,-17,-33
4,-1,-3,0,14,100,-26,-4
46,4,26,-3,-35,-80,23,56
-14,-2,-28,2,30,-9,-17,-20
-23,-17,0,3,9,46,8,-36
-4,-10,-12,-7,-30,-23,4,-7
-27,-1,-6,-6,7,-10,-30,-15
-2,3,13,0,-21,-8,4,-4
22,44,21,31,82,75,60,29
3,6,8,-10,-49,-93,-24,14
-5,-35,-32,-14,-47,-57,-24,-18
23,2,12,8,37,105,58,19
-6,-20,-20,-5,17,-76,-32,-21
-3,2,5,1,-15,-36,-42,-4
-3,13,4,4,-2,95,66,2
-14,-3,-3,-19,-22,-26,-36,-34
-17,-8,-4,-8,-36,-67,-26,3
12,6,12,20,79,-10,-4,6
19,3,2,5,11,106,45,-7
1,1,-7,-7,5,-76,-31,10
11,0,7,5,5,75,17,4
23,-10,-9,-11,-7,42,3,-7
-25,3,2,-10,-55,-64,-23,-17
-23,1,43,10,44,8,-30,22
1,-61,-82,-19,-77,-39,18,-31
46,-26,-7,5,34,42,-19,-1
-15,4,-11,8,91,127,34,2
-4,-12,-6,-22,-64,-120,-74,-33
-1,29,31,9,-15,-77,33,32
-16,-4,2,2,-54,96,43,0
9,-4,0,-2,5,-28,-43,-14
-25,11,-9,-6,-3,45,19,-10
-19,10,10,-8,-65,32,-30,-8
-20,14,-7,16,57,67,23,-29
-6,-19,7,-9,-102,-74,-61,-1
3,-9,-8,-6,-48,12,74,7
-30,-8,-8,-10,10,-50,-6,13
18,4,9,18,74,-3,58,11
-20,18,-2,-5,-11,-31,4,-8
-3,-16,-15,-9,-36,-122,-60,-17
17,11,17,4,3,6,28,39
-1,17,12,15,48,68,67,10
23,0,-8,-2,18,-60,-54,4
18,14,3,10,-16,45,94,29
-1,2,5,-2,36,-49,-17,-14
-8,20,-2,-14,-110,-86,-8,0
-12,-14,6,8,75,12,1,-24
11,8,-1,11,23,127,13,20
9,27,5,2,17,-5,-15,57
3,-27,-20,-20,-43,-50,4,12
-12,-6,-4,-14,-47,-50,-61,-22
-1,-1,-13,-9,-2,-24,-2,-6
5,9,18,28,77,90,20,3
10,2,7,3,-33,84,-18,26
10,6,-5,-5,7,24,29,7
-1,-13,-7,-7,-1,48,-105,-26
-14,-15,-11,-22,-62,-115,-16,-18
-8,-5,-2,-11,-30,-99,-23,-16
6,3,4,22,0,50,37,24
0,9,8,21,59,-61,-15,-2
3,-9,-7,-15,-33,-32,19,-10
-16,-9,-11,-18,-50,-46,-29,4
3,2,9,0,31,65,13,17
-11,-16,-26,-11,-89,-59,0,-13
-9,3,0,-3,45,-38,-28,-15
-9,16,3,-1,-13,20,-1,-18
1,-14,-14,-1,11,-51,3,18
-2,22,4,-8,-27,8,7,-1
-14,-20,-15,-16,-89,-76,-41,-48
-19,-5,9,18,112,79,8,-3
-4,11,8,-8,-63,-113,-43,-23
-12,31,10,-2,-24,-51,-15,18
2,-37,-22,9,65,24,59,54
-2,-4,-3,-8,-21,-42,-9,-5
-4,-7,-2,-5,-25,-37,12,-7
4,-7,-1,6,11,-66,26,-16
2,12,9,3,-27,10,-36,-10
-1,-10,-5,6,68,55,28,-20
28,8,4,8,19,127,48,19
3,-2,6,-6,0,-34,-4,-2
-3,-4,2,3,24,-35,-40,-11
-1,-4,-12,-3,17,12,-11,-4
-14,6,2,-7,-56,-31,-36,-17
5,-12,3,15,94,78,21,8
6,19,14,-1,-45,75,33,7
5,-3,-2,1,17,32,10,10
-16,-6,-6,-7,16,-53,-46,-23
3,-22,-4,-2,-22,-4,-8,-21
-11,-11,-16,-5,-10,-24,-13,-23
18,2,5,0,-16,41,43,19
22,14,-5,-6,38,-90,19,31
3,9,5,7,19,-19,24,11
5,-7,14,8,8,-2,3,-8
-12,-7,-6,-12,-51,-68,-38,-8
-23,-3,-3,1,30,48,31,-3
4,4,-9,-22,-96,-114,-16,-10
9,-1,13,22,112,127,45,30
-16,-10,-4,-5,-30,-83,-19,-11
16,0,4,4,4,32,35,7
-14,-9,-6,-19,-89,-63,-51,-12
-7,-4,-15,-15,-47,-11,-77,-25
12,7,8,24,100,113,92,42
4,-1,0,-6,-87,12,8,-4
-13,-9,-4,9,87,40,-2,4
-2,4,-3,-10,-44,-27,-2,-31
2,-7,-12,-26,-89,-126,-122,-24
42,52,19,36,76,127,111,80
-23,-33,-1,2,35,82,-38,-31
23,-7,3,11,39,66,70,60
-28,-7,-5,-12,-65,-44,-22,-15
-22,-20,-11,-10,75,-22,-49,-30
31,29,6,-7,-61,-13,6,15
-23,-4,6,8,3,-83,1,-10
-7,-6,-9,-9,-23,-34,-41,-8
1,19,-3,-2,-17,23,-21,-2
-9,-22,-1,6,38,74,26,4
-15,-8,-6,-12,-3,-64,-34,-32
27,4,-2,0,-41,-57,13,34
-17,-17,2,-2,14,16,-5,-9
8,17,0,1,10,-72,14,-10
-25,18,-2,-6,21,-16,-50,-14
8,-23,-4,-4,-57,80,23,26
-19,-17,-5,2,38,23,-30,-20
11,-7,-4,-3,6,4,15,7
15,13,12,12,10,61,27,23
-10,12,4,3,29,-43,7,-11
-6,-10,-4,-13,-52,-73,24,-14
13,32,18,26,26,80,77,56
14,-15,-11,-12,-48,-80,-70,-20
-11,-9,6,12,58,121,71,-6
22,-17,-1,-3,-43,21,44,13
-31,16,-8,-15,-28,-121,-67,-45
62,-13,0,3,-27,41,33,48
17,41,7,8,74,5,6,-21
3,-26,-8,2,-10,-20,-11,-4
-4,-11,-4,-10,-33,-26,-13,-14
-8,13,0,-10,-52,48,11,-2
-5,-8,-10,-12,-14,-78,-60,-14
9,21,7,2,-13,33,20,8
33,-22,1,0,30,79,18,-13
-26,-17,-27,-11,-32,-38,-2,-12
-12,10,5,-4,-10,38,-11,-19
-13,-2,-8,-8,-18,-80,-55,-13
-10,1,-1,7,-19,-82,2,1
-20,-2,3,2,59,71,11,-13
-22,7,4,-3,-78,-38,5,-1
6,-7,0,3,41,41,0,-25
10,-14,0,1,-7,4,-21,12
44,24,3,0,-6,-16,44,33
-3,9,-5,-8,-46,-34,-28,-7
-25,-23,-5,-13,-32,-107,-56,-12
-17,-3,-8,-7,19,-20,18,-3
18,24,5,-2,-16,-81,-34,-13
9,-24,4,9,19,71,19,16
-13,-19,-6,-9,3,-97,-72,15
16,-2,-7,1,51,110,37,12
-47,24,-1,-4,2,-57,-23,-4
41,-13,-4,-9,-29,-96,-16,-10
11,-1,2,7,11,48,12,0
-26,-28,-4,1,0,-67,-9,3
4,14,7,5,8,57,6,-24
-7,-7,-6,-10,6,-51,-15,24
-20,11,-3,-6,-42,-42,-3,-21
3,4,2,14,63,86,-11,-2
8,-6,8,7,-32,12,33,15
-4,-3,-1,7,65,-42,1,-1
-1,-15,-6,-8,-42,-56,4,5
-22,11,-10,-21,-114,-48,-17,-24
13,16,18,15,44,31,3,5
-11,17,0,15,30,-70,-22,4
3,45,8,9,-11,125,87,21
12,-20,-1,4,13,59,3,24
-26,-33,-19,-33,-63,-95,-95,-41
-7,-8,-3,-2,5,5,78,-6
14,14,7,20,110,80,19,5
-1,-14,-11,-28,-83,-100,-97,-39
-17,-39,2,20,63,113,114,17
-12,-2,-6,-9,-12,-25,-25,-6
-7,13,-4,-4,8,-45,-19,-25
30,-10,5,0,-30,-64,11,15
-6,-1,-5,-6,41,-3,-12,-3
-32,-17,0,6,18,65,6,7
11,-6,3,3,-16,61,71,25
0,-2,-2,-7,10,-10,-4,-1
29,41,6,11,37,51,56,1
-25,-20,3,5,-5,-2,10,0
5,-4,0,0,-16,-46,-27,-4
3,19,3,5,-2,-21,12,34
-25,-22,-4,-2,20,66,21,-4
21,-6,-1,-3,39,-11,-12,-9
13,14,-5,-9,-20,76,-5,-10
-13,-12,1,2,16,21,9,-6
3,1,-6,-12,-47,-128,-77,8
19,-3,0,2,4,11,7,-1
-20,-4,-4,-3,-8,-93,-33,-10
-3,17,4,12,19,86,25,2
0,-1,1,-3,1,25,7,1
10,10,4,-1,-26,-5,-4,7
16,12,-5,-9,-31,-2,4,-23
14,-18,-3,-8,0,-62,-20,-7
-27,-13,-5,-1,-14,-32,-4,-9
9,5,1,1,6,24,-3,13
-3,-5,2,6,11,29,3,12
12,30,5,-3,-14,-88,-2,5
-21,-21,-4,-1,-31,71,22,-7
7,1,-7,-12,-13,-29,-47,-25
-18,-8,-4,-6,-27,-65,-37,-8
-9,-1,1,6,34,33,18,4
4,-5,-8,-12,-9,-123,-61,-12
3,16,14,18,5,110,57,4
-14,-21,-2,0,-6,-9,7,-1
13,12,-12,-10,-21,36,-12,-4
-6,-17,-2,-1,-11,-28,-16,-53
-10,-8,-1,-7,-20,-65,7,-9
6,19,0,7,-10,98,37,21
-10,-27,0,10,64,58,10,-1
21,7,5,12,5,-31,2,15
-13,-2,-13,-18,3,-30,-75,-24
3,-3,15,8,-31,-59,17,7
-29,0,-4,-5,20,-55,-13,-17
10,3,6,6,-5,31,37,17
5,8,-5,-4,32,-99,-30,18
-5,6,-3,-6,-34,63,-14,-3
-29,-33,2,16,91,51,-6,-32
11,8,3,2,-17,19,22,18
9,12,-4,-2,-27,51,23,10
-11,-31,-12,-8,11,10,-22,-1
4,12,2,-9,-74,-33,-33,-11
26,10,1,12,82,52,1,36
-17,-26,-4,-4,-29,53,10,-14
-10,-3,-6,-11,-7,-76,-3,-7
-4,1,3,-1,-128,57,18,15
7,5,1,2,75,-59,-17,-6
30,-7,-3,-3,-56,-10,-19,27
7,-1,-1,3,53,20,30,3
-20,5,-7,-11,-45,-79,-4,-2
-4,-10,-10,-8,-14,69,6,0
18,36,11,11,13,91,54,19
1,-14,0,-4,-23,-46,-18,-9
12,-10,-2,4,24,-25,22,10
-20,10,-3,-4,2,10,-9,-15
-31,-22,-10,-23,-55,-119,-60,-39
10,23,7,5,50,7,12,3
-2,19,4,4,16,-13,14,5
9,-10,3,0,-28,-65,6,-1
4,-4,-3,-2,-11,-13,0,-4
-10,-13,-13,-14,-18,-80,-53,-20
2,-1,-3,-9,-45,-6,2,19
-12,10,1,-1,-15,-101,-38,-22
-1,5,5,14,25,26,1,-6
17,6,1,3,21,23,49,23
-22,5,0,-3,-35,-23,-27,-22
28,-23,-7,-4,51,-19,-45,-10
15,20,4,2,15,-16,31,-7
-35,-11,11,25,84,47,64,27
10,-11,-5,-3,4,-25,-5,-4
-17,19,-1,-14,-52,-61,-1,9
-12,0,0,-1,9,-69,-35,-35
14,3,1,6,6,74,-6,-3
2,13,0,-2,22,2,-5,0
-24,7,6,3,-1,46,39,-8
17,-20,-9,-9,-42,-48,-41,4
-15,-4,-5,-5,-26,33,6,-9
12,2,0,4,78,26,-4,-4
-9,3,0,0,-40,-16,-13,2
-18,6,8,8,27,49,20,10
22,-15,-5,-10,-30,-16,4,-6
-2,6,0,4,14,65,6,-7
8,-4,-2,1,11,17,4,22
12,-6,-4,-9,-6,70,26,20
-19,11,-1,0,-25,-23,-48,-25
-4,-3,2,11,72,1,16,8
-7,-6,-1,-3,-46,-37,-21,-1
6,1,2,4,32,40,29,5
3,4,-4,-21,-54,-107,-56,-14
-7,-2,-6,-1,-23,6,15,-2
29,12,5,7,27,42,34,16
-31,-13,-7,0,28,-53,-33,-20
28,6,5,9,2,88,40,58
-33,-8,-5,-16,-20,-119,-49,-22
16,-15,-10,-10,-57,-35,-42,17
-8,28,6,14,43,90,91,46
-11,-5,-4,-5,0,-57,-40,-35
21,7,2,6,27,127,31,6
-29,-15,3,4,14,18,2,20
14,13,-5,-18,-42,-53,-52,-5
-4,-21,-5,0,-18,-20,6,-11
-2,5,-6,-12,-65,-69,-3,35
-16,-7,5,9,51,4,34,-9
0,1,2,9,14,-34,-42,-3
-11,-3,7,14,49,75,92,-1
45,28,3,-7,-33,32,38,29
-60,-20,-7,-8,-30,-23,-19,-10
15,-33,-4,-6,-73,-63,19,-1
16,22,-2,-1,-9,-98,-50,-17
2,-41,-1,8,47,26,6,4
10,14,-4,-13,-62,-45,0,-15
-8,6,-2,2,44,104,20,-2
-6,-12,-2,-3,-20,-55,-56,-6
0,-2,-3,-1,-24,41,-4,-8
30,18,-2,0,26,-8,6,-13
-29,-8,1,8,72,76,-9,-3
15,5,-4,-13,-27,-55,-28,-20
-27,-16,-7,-3,2,-56,61,-50
18,14,7,13,8,125,34,45
1,0,-1,-1,-2,-45,-17,-3
-1,9,3,-1,-26,-28,16,18
-29,0,0,3,41,7,-22,1
-10,-13,-13,-25,-91,-128,-65,-51
4,-12,3,14,90,-57,27,4
48,37,5,13,18,113,52,35
-38,-31,-8,-7,-16,-44,-29,-3
-16,-20,-3,-1,7,-11,5,-12
-14,-6,-5,-10,-78,-30,-11,3
-5,-13,-6,-8,-1,40,-1,-26
0,7,-1,8,24,4,-1,10
37,12,-7,-10,-3,-27,-46,0
6,2,5,4,-37,-48,26,16
-13,-16,-10,-24,-92,-53,-31,-13
2,19,13,26,92,20,19,19
16,-3,5,3,-15,96,17,30
15,2,-3,-4,-26,7,43,-2
-12,-7,-2,2,24,-102,-27,3
4,1,-2,-3,-33,26,-42,-20
1,-5,-1,0,6,-83,-10,13
17,14,5,-5,-24,103,-1,12
-25,-9,-9,-2,32,-26,-15,-8
27,16,0,-4,-7,0,-1,-6
-53,-4,0,3,19,7,19,-38
10,9,-6,-10,-35,-46,-51,7
-6,-12,-2,-4,-12,-38,14,6
8,4,1,4,-1,-1,-11,10
6,1,-1,-4,-36,-15,-10,-10
10,11,-3,1,82,27,2,-20
-47,-31,3,8,26,98,19,-27
27,1,-5,-15,-46,-81,-16,7
-16,-14,-4,7,66,76,26,-2
-18,-15,-4,-6,-36,-109,-22,-25
-1,8,0,-2,16,5,-12,8
-12,-8,-3,-10,-31,-11,-3,-14
22,-5,-5,-4,-44,13,-20,-11
-3,3,-2,2,48,11,20,-3
-10,2,-1,3,40,24,-1,5
-8,10,-2,-10,-34,-59,-13,2
2,10,5,13,12,-3,8,-17
4,9,1,6,-6,-10,-11,11
14,7,3,0,-10,13,-9,18
2,-4,2,0,29,-11,10,-2
6,1,-5,-9,-49,-57,7,3
-1,-7,-1,1,20,-37,-22,-9
10,-9,0,-2,-31,-41,3,-13
-41,-7,-5,-4,8,19,-2,-14
-23,-7,-5,-10,-26,-37,-12,-26
-16,3,3,10,21,110,54,-2
-5,3,-4,-11,-31,-34,-43,15
-7,10,9,7,-69,-94,-44,9
-17,-3,0,10,81,33,68,3
-9,-7,-3,0,59,89,13,0
-4,10,-7,-6,-5,-22,10,-8
22,-1,0,0,-11,53,-30,1
21,14,5,5,31,45,32,35
-16,-2,1,-3,-76,-104,-40,-26
-7,0,4,7,56,107,45,25
9,-6,-6,-5,30,19,9,-2
-1,8,13,15,34,74,8,-3
33,-12,-7,-4,20,81,60,4
15,12,5,4,-17,-65,-3,-1
-23,-20,-10,-12,-33,-45,-14,-10
28,16,2,-4,-25,52,32,18
-17,-33,0,6,23,-89,-14,0
3,16,-3,1,-2,8,-7,-1
21,-3,0,6,33,17,19,-3
-19,-25,-5,-15,-47,-89,-55,-1
10,9,-2,-6,6,-8,-36,-22
3,18,-2,-2,-21,0,-1,6
9,-1,1,4,4,-27,9,1
-1,-4,-4,-12,8,-8,-37,2
-13,8,6,7,-16,-12,21,13
-10,-15,-6,-7,-34,-55,-71,-10
3,-2,0,7,49,127,90,13
-5,2,2,2,-9,-23,-42,-13
3,10,5,-2,-45,18,27,12
-6,-15,-2,4,22,-8,-3,-28
6,-2,1,-2,-12,10,15,9
0,2,-2,7,20,-12,-12,14
-1,0,-6,-21,-91,-45,-43,-32
-16,-28,-3,6,73,77,17,2
-7,18,-1,-5,-33,-128,-10,5
9,-8,-4,1,-1,6,23,-9
31,8,0,-2,7,-91,-30,14
-27,-6,-1,-8,-48,-52,-12,-12
10,-1,1,6,16,-37,-31,-8
0,14,-2,0,18,-103,-16,-3
-6,-25,-5,-3,28,72,25,8
-38,-3,1,0,-20,33,-45,4
9,-2,-2,2,25,-3,-9,-13
-15,2,-2,-10,-54,36,43,-17
-9,-5,-1,2,7,-19,8,27
4,9,0,-1,8,-10,6,-29
-7,-8,-4,-6,-32,-24,-7,-6
17,4,-3,-14,-86,16,0,5
-26,13,4,21,89,29,7,-6
28,6,1,0,-42,8,6,5
1,-2,2,3,5,70,4,6
22,-1,3,6,28,65,10,4
-7,-1,-3,-9,-62,-42,-18,-2
36,1,-1,4,44,36,38,17
-12,9,-1,1,-15,0,-4,5
7,13,7,24,94,86,26,0
-15,-10,-5,-12,-20,-34,-20,-25
-3,-14,-7,-11,32,-5,-45,1
13,16,0,-8,-56,54,33,-4
-2,-8,-2,-4,-1,-89,-23,4
9,-4,-7,-10,-22,20,-27,-12
-8,1,-2,0,-49,12,22,-3
-17,-22,-3,-4,29,-84,4,-8
-1,12,5,19,62,3,14,8
11,4,2,-2,-7,-25,-8,0
6,1,1,-4,-20,-38,11,12
-14,1,2,2,-5,39,-26,-8
-16,-19,-10,-10,-24,-64,-11,4
12,8,4,12,54,101,24,6
9,-1,4,14,38,10,43,20
1,-6,-3,-10,-62,-1,-14,0
0,-8,0,1,68,-40,-45,-16
21,18,-4,-3,-35,31,68,38
-25,-8,-1,-2,12,-41,-2,-3
20,0,2,3,-7,-2,-8,0
-27,-8,-6,-13,-14,41,-24,-7
-18,-2,-8,-8,-28,5,-48,-41
9,19,6,14,64,-21,33,46
-26,-14,-6,-6,-21,-16,-11,-16
-5,-6,4,3,16,-16,30,14
-3,-3,2,2,-5,-33,-25,-9
9,-2,-1,0,-7,-47,-56,-22
5,3,-3,-9,-18,-99,-24,2
69,12,0,1,-8,-5,5,17
-36,-23,-9,-10,-46,-63,-43,-29
8,10,2,5,40,-4,43,25
-3,0,-3,4,49,63,15,7
-6,-3,1,0,4,-10,-22,-9
15,14,6,2,-9,46,39,32
4,4,-10,-12,-14,66,-2,-3
4,1,5,9,17,28,6,-17
-21,-9,-2,1,7,64,21,0
-1,5,2,-1,2,-42,43,15
-7,-1,-3,-12,-50,-54,-37,-24
30,-1,2,7,65,13,8,15
-31,27,-6,-12,-101,-75,-39,-27
24,-33,4,13,91,95,19,23
6,-9,-2,-3,-44,-14,3,-12
-35,-9,-3,-2,3,7,0,-6
20,-1,1,0,-12,-10,-18,-2
-27,1,-7,-6,-7,-10,-34,-25
-5,-7,1,-2,-10,22,16,0
2,4,-7,-8,19,25,-42,1
-10,-6,0,-2,-15,32,47,1
-5,15,1,1,-30,-62,-22,-3
-2,-3,-1,-8,-7,24,-13,-31
-13,-9,-5,2,-16,-15,-13,11
1,-6,-4,-7,19,-2,37,10
5,3,0,-8,-49,-14,-10,-11
2,8,-3,-4,6,2,-31,6
-19,-2,-2,1,7,-60,3,-19
-1,-10,2,5,26,25,7,-25
-16,-8,-5,-12,-56,-8,-44,-6
-1,-7,-2,-1,4,-40,22,11
-8,2,2,-5,-7,8,-5,2
-1,-6,-4,1,28,0,-18,41
-4,20,0,1,17,23,7,11
-2,-11,1,5,6,17,-40,-22
11,-2,-4,-13,-47,2,-7,-1
-6,0,4,14,49,57,16,11
-3,19,-4,-7,-28,-119,-50,-23
-2,-5,2,8,63,61,57,19
7,-4,1,4,-7,67,33,-10
-5,-7,-8,-17,-12,-95,-92,-21
-5,-11,-2,5,22,41,33,-2
5,5,-1,-3,-23,70,8,-7
10,1,-4,-6,1,-89,-69,-8
5,6,5,1,-12,7,20,-3
4,-15,-3,-1,32,-12,7,4
-15,1,-1,3,16,-19,14,3
0,-1,0,-2,-26,-35,-7,6
-4,1,-3,-2,36,37,11,-4
12,-9,1,-1,-14,6,0,3
4,13,-3,-3,-14,-68,4,3
4,-16,-1,0,-9,-33,-17,-19
-1,1,0,-2,-44,50,16,0
1,0,-1,6,51,40,22,3
1,-28,-2,-4,-13,-25,5,8
2,11,-3,-3,-8,3,-16,-10
4,3,-1,1,8,35,18,26
-2,13,-3,-6,-24,-50,-6,0
-10,-13,-3,-4,-4,52,-6,4
22,9,1,5,55,122,29,28
-22,-12,-2,-8,-42,-41,-51,-4
23,3,2,6,-4,54,51,17
15,5,0,2,20,-86,-24,-10
-13,6,0,-2,-21,15,46,21
-4,9,-3,-2,10,-27,-26,-22
-11,-4,0,-4,-6,-6,-17,-8
1,-1,0,-6,-54,-76,-15,2
6,-4,0,2,-10,-9,19,10
12,-1,3,9,53,38,50,10
-3,-25,-5,-3,-46,-120,-32,-6
3,2,-2,-1,10,82,15,-14
1,15,0,-1,13,-32,-10,38
34,5,-3,-12,-24,10,-5,-15
-27,-17,-1,1,-4,-31,-2,-14
1,2,-3,-2,-2,40,-2,-4
-35,-9,-6,-5,-4,-51,3,-18
8,13,1,-2,-67,13,17,-5
2,-29,-4,-6,20,-23,-10,6
-9,-14,-2,5,37,57,6,-5
7,7,4,5,-20,0,20,-11
-26,-9,-1,5,-2,28,36,-7
14,11,1,0,52,41,-12,5
-30,0,-4,1,9,-56,-26,-8
-3,-11,-4,-5,5,-46,-24,-17
-4,-4,-2,-1,-3,-18,2,-11
13,7,2,2,-23,20,-2,10
11,20,-3,-4,6,-11,-18,-33
0,-2,-2,-3,2,35,2,8
-1,-8,-1,-8,-46,-127,-102,-12
-17,14,-4,1,42,9,40,25
73,21,3,-3,-45,6,30,13
-43,-35,-5,1,30,39,-11,-14
-10,-9,-4,-7,-55,-58,-57,-20
-6,-4,3,9,56,48,11,-2
5,20,3,-1,0,-24,40,37
7,-14,6,12,34,66,42,8
2,-6,-7,-13,-51,-57,-19,3
11,4,1,-1,2,-36,-24,-9
-21,-3,-1,-9,-33,27,2,-3
12,5,0,2,0,14,-4,-13
-5,-10,-2,5,48,34,6,-2
11,7,0,3,-19,-33,-14,-3
-17,-20,-6,-13,-15,12,8,-27
27,18,2,-7,-89,-18,2,39
-3,-5,-1,18,127,119,7,-1
-13,-2,0,-3,-38,-64,9,-7
-4,-9,-2,-3,-28,9,-40,-7
6,8,1,7,43,56,44,-19
-6,17,-4,-11,-55,-101,-18,2
-8,-12,-6,-11,-4,-61,-33,-10
-16,-7,-1,17,35,102,56,10
13,8,1,2,31,-21,-9,10
-3,0,-2,-2,1,23,41,13
-4,6,2,-5,-11,64,34,-10
3,0,1,-3,-37,-47,-76,-18
-14,-5,-5,-2,42,-19,17,8
22,9,5,0,-16,2,12,3
-33,-12,-4,-6,-20,1,2,4
4,-19,0,4,39,-24,-25,12
29,13,0,-6,-52,-49,1,5
1,-27,0,-2,10,16,-3,-12
-17,-8,-6,-5,-16,-62,-34,-17
10,2,5,4,0,-4,12,21
-7,-8,-4,-7,-8,-1,-16,-21
1,3,2,-2,-62,-4,26,14
11,9,-3,-4,37,6,-24,-4
-6,0,-3,1,43,20,33,-5
-2,0,-2,-2,-26,2,-7,-7
-20,2,-3,-2,10,-76,-16,0
23,4,3,8,15,113,25,-3
-15,1,1,-4,-29,-22,-20,15
-3,5,-2,0,37,63,15,5
-8,-2,-3,-2,12,-39,-3,-1
-1,-2,0,-5,-30,9,27,-9
-3,5,-3,-4,-24,-77,-9,1
-7,-7,-3,2,58,19,-21,-6
26,6,5,5,7,34,34,-11
-14,-9,-4,-7,-27,45,-57,-15
-3,-3,-6,-8,-22,-54,-45,-17
0,13,5,5,10,24,22,-2
-12,1,-2,-1,37,10,29,-4
6,-1,0,-1,-20,-5,-1,11
-1,3,0,2,0,-34,-17,-11
4,-7,-5,-6,-29,-39,-25,9
-15,4,1,8,27,41,5,18
11,1,-2,-9,-68,7,-4,20
8,-3,-2,-5,20,-43,-6,4
-22,-3,2,-2,4,-12,-38,-36
12,-3,-2,0,-21,17,-19,18
22,19,4,5,11,-17,27,4
-3,-52,-5,-5,-37,23,11,8
22,2,4,7,26,-10,-50,22
-12,4,-7,-13,-33,-25,-26,-31
2,6,8,14,62,34,-2,-1
-1,10,-2,-4,-6,-7,43,-3
-3,-3,-3,-10,-74,-57,-18,-5
-6,-6,4,15,62,93,37,10
3,1,1,5,16,-9,33,31
-6,6,-3,-1,-13,-9,-21,-27
-3,-1,-2,-1,46,11,12,-6
-12,-5,-5,-16,-69,-85,-65,-19
-13,0,-6,0,31,63,34,-6
0,5,6,14,54,23,-20,19
-5,-6,-4,-11,-52,-7,23,-4
8,3,2,6,24,-11,-4,1
-2,-1,-1,1,0,-12,-21,-16
-35,-2,1,-6,-49,21,9,-4
20,14,-4,8,70,67,41,-2
-23,15,1,0,3,40,-6,-4
1,-15,-8,-15,-88,-44,-21,-42
2,13,7,14,83,22,42,5
13,-4,-1,-10,-63,-77,-25,26
-16,-11,-6,-3,-11,-9,15,-30
-49,4,2,3,25,15,-30,-27
3,-1,-5,-4,-39,-28,2,1
-3,-5,-2,-4,8,-29,-66,-20
9,-7,-6,-14,-36,-78,-13,15
7,-4,-1,1,0,-1,-23,9
10,3,0,-1,-16,0,70,12
-15,-5,-2,-2,-4,12,-24,-6
-4,6,7,13,34,-19,53,12
-2,-9,-5,-10,-14,-16,-27,-1
34,5,-2,-8,3,-13,-30,-12
-11,-9,-5,-1,-26,-15,7,7
0,8,4,12,34,49,28,-21
15,0,-6,-7,-39,-20,-5,17
0,1,0,4,-5,-22,-6,0
-4,-3,2,0,-2,-43,19,-5
6,-6,-6,-8,-39,13,-18,2
-17,10,2,10,75,34,14,9
1,-12,-5,-8,-20,73,10,-4
-3,6,4,3,4,-27,9,14
0,-7,-5,-10,-29,-63,-31,8
12,8,7,1,-56,20,60,8
-11,-1,-2,8,62,7,-25,-1
1,4,1,4,-13,33,-7,12
-9,-2,-1,5,23,89,38,25
-8,-9,0,2,-10,-35,0,-41
7,-6,-6,-14,-27,-53,-52,25
10,4,-3,1,0,14,16,-7
-24,-6,-3,-3,7,-40,-19,5
12,3,-4,-10,-23,-36,-2,-19
-12,-5,-5,-2,-32,-18,3,-12
-6,-1,-1,-2,-11,-34,5,-20
16,-6,-2,4,57,19,-16,19
-16,-4,-1,6,34,53,22,-2
5,12,3,-2,-35,-28,-35,-2
-26,-12,-5,-15,-68,21,4,-28
1,-1,-3,-10,-27,-84,-21,-13
-35,-9,1,18,80,20,9,-7
-2,-3,-2,-4,-25,-2,-1,-10
-7,4,0,1,25,-2,-32,-15
17,-6,-1,-9,-67,22,26,7
6,2,0,1,38,-25,-3,8
1,5,5,10,27,105,64,-1
-18,-2,-5,-7,-5,-11,-1,2
3,1,-1,4,14,1,-18,-17
18,-5,-6,-13,-60,-65,5,20
0,3,6,7,31,-1,31,6
29,-5,-2,-8,-5,-48,-9,-20
-21,-1,-2,0,4,28,-10,8
-1,-3,-3,-6,-29,-13,-5,-21
-3,-3,-2,-5,6,-21,-42,-4
10,3,3,5,25,52,41,-11
0,18,3,2,-42,15,-4,1
1,-9,-1,1,51,-54,-59,0
-7,11,-3,-4,-5,47,7,-3
-7,-16,0,0,15,56,28,16
18,-1,2,5,15,31,-18,0
-7,0,1,0,-11,7,-6,-21
-7,-8,-5,-6,-21,-11,-14,-6
3,6,0,5,5,-27,10,13
-11,-10,-1,-3,16,-11,-25,-11
9,2,3,5,15,75,36,20
-2,1,-2,-7,-21,-3,8,5
-14,-3,-2,1,17,-4,-8,10
1,0,-1,-2,-8,-31,29,-1
8,-5,-5,-5,1,11,-5,13
4,6,2,8,16,79,27,21
-18,10,0,-1,-6,43,10,10
17,-3,-1,4,29,-1,6,-9
-10,3,0,-6,-19,-44,-14,3
0,-13,-5,-6,23,-9,-13,0
-2,7,4,11,34,22,4,12
20,-10,-5,-4,-13,29,14,6
-14,-3,0,-3,-42,-12,9,10
22,-1,0,-2,6,-38,-7,-34
-7,5,6,8,27,59,15,-2
-9,-3,-5,-8,9,-36,-21,-3
14,1,3,8,-20,66,28,17
-14,3,-1,1,16,14,-1,-8
9,-7,-2,-8,-34,-67,-25,-3
-23,-2,3,2,-42,31,46,-5
15,-3,-6,-3,76,-48,-43,-19
-12,-1,-1,2,11,-35,-6,-9
1,-8,-7,-8,-44,-23,-10,-10
-10,2,3,7,50,65,23,2
3,0,-4,-10,-50,-63,-19,0
-3,4,-1,3,4,-14,-14,23
10,-9,2,-3,1,-42,7,23
-8,-21,-3,-3,-15,-21,-9,6
16,-2,-4,-1,0,98,7,-1
1,5,4,3,-42,-69,1,1
-1,27,2,9,74,3,-13,-11
-1,-35,-2,-6,-7,-11,-12,2
-8,-12,-1,-7,-25,-2,-27,-12
-10,-8,-3,-8,-68,-46,10,0
17,7,0,7,33,74,37,14
10,16,0,1,17,-29,-19,-4
-22,1,-2,-2,-22,-97,-22,-5
31,1,1,0,-5,85,12,-2
-10,-14,-2,-2,-14,-7,-14,4
10,6,-1,-2,-6,-34,0,-11
-6,-4,-1,0,37,-10,-22,-1
-1,7,2,4,44,51,16,2
-21,-12,-6,-8,-26,-13,5,16
17,13,1,-1,-15,51,6,-16
-24,-22,-5,1,11,9,-12,-21
5,0,-1,-1,3,-13,-6,-8
9,5,-1,-1,1,5,-9,5
-4,3,-3,-5,13,-27,0,-13
1,5,2,-2,-21,13,20,31
5,1,1,1,23,-5,-13,-3
-11,-8,-4,-3,-17,-25,-3,-20
-33,4,-2,-11,-38,-33,-27,3
25,9,3,4,-14,13,59,-6
-16,-15,-7,1,17,5,-8,11
16,5,0,3,16,34,20,8
-5,14,2,-2,-18,38,-5,5
-9,-11,-5,-4,27,-45,-31,-4
5,-1,3,3,-33,28,5,19
-15,-8,-5,-3,23,-16,-24,-25
23,4,2,5,-5,34,40,26
-20,5,-1,-2,-10,-25,-15,3
3,-4,-10,-15,-16,-27,-12,-20
6,0,3,12,3,-12,-5,0
1,-3,-1,3,26,8,4,-3
5,9,2,7,20,19,16,6
-15,9,-2,-4,-6,-42,2,9
-36,-5,-4,-5,-18,51,26,-33
10,-1,2,4,-13,-18,2,-4
-1,0,-2,0,10,3,-3,0
-16,4,-2,0,27,41,-14,2
-2,-2,-7,-13,-40,-92,-28,-4
2,-9,-4,-5,-27,-70,20,-3
11,6,-4,6,69,102,21,7
-2,-4,0,0,4,-11,-14,-11
6,-1,2,-4,-31,-35,13,5
-4,-4,1,0,0,0,-7,-9
16,0,3,-2,-43,13,-6,2
6,0,-2,3,46,0,12,-2
12,-4,-1,-2,-10,51,-7,7
9,3,3,5,13,32,28,8
-9,-4,-6,-11,-45,-37,-12,-9
1,1,1,2,2,-35,-17,-7
10,-12,0,4,8,19,-21,3
-1,0,-2,1,38,30,3,11
-2,5,1,-1,-3,25,2,-3
2,-26,-5,-14,-57,-37,-9,-6
-30,4,0,2,28,-33,-4,-48
-2,-1,-1,5,17,81,-15,11
36,2,3,-1,-8,-31,23,25
-34,-19,0,4,-9,-22,0,-4
-3,1,-5,-13,-20,-37,-9,-1
-10,-5,-5,1,17,-19,-26,-35
8,4,6,9,-9,29,32,11
-7,6,0,1,10,40,5,-4
12,2,-3,-1,14,15,-15,18
-6,-3,-4,-10,-27,-78,-6,0
13,0,-5,0,18,30,-6,5
1,3,0,0,-14,-7,1,-10
5,-3,2,-2,-38,-4,0,0
-19,7,-2,5,52,42,3,6
-8,-4,-1,-4,-31,-37,-15,-7
-1,4,-1,0,13,-22,4,4
4,-4,-1,-2,-49,33,0,-1
38,-3,-2,0,4,-6,-6,11
-15,1,-1,-2,-15,-87,-24,-8
6,1,-3,0,29,37,16,3
8,9,2,3,5,51,-2,4
-11,-4,0,-9,-40,-48,-25,-10
-9,-1,2,3,16,18,10,1
-2,0,-2,-4,-14,-59,-39,2
-2,-4,-4,-3,10,13,19,-14
-8,-1,2,6,-2,-37,2,1
-3,2,-4,-2,17,66,0,3
-2,19,2,-5,-15,-38,-14,-2
-1,-12,-1,0,13,4,32,8
2,-1,-1,-4,-11,-15,-21,-9
-2,9,-2,-7,-17,6,0,-23
-13,8,3,3,6,-4,14,22
4,-6,-4,-2,-6,-62,-10,-1
-2,-2,-1,-2,12,32,-4,-3
0,1,1,0,-15,-15,17,4
-18,-11,-4,-3,0,42,15,4
1,0,-4,-7,-45,-95,-40,6
2,0,-1,1,21,15,20,19
0,-14,-3,-3,-4,1,-15,-6
-14,3,2,6,-1,23,7,-32
2,11,5,7,35,43,51,29
-4,-3,-4,-1,-8,-2,-13,-10
-11,-7,-2,-3,-9,5,-4,-2
10,-8,-5,-5,-1,12,7,-1
-35,1,-1,-3,-1,-4,-25,-36
-8,3,-1,0,-20,-30,-7,-8
0,0,2,2,26,39,35,3
2,-22,-1,5,11,16,-4,1
14,1,3,2,-9,-14,-15,-5
-11,-6,-5,-14,-42,-30,-15,-2
-11,-4,-1,5,49,-20,-14,-8
-9,-7,-7,-6,-9,-31,-17,-9
50,6,-3,0,5,78,11,18
-9,-9,3,4,-9,-5,17,1
11,4,-5,-5,-12,31,15,18
1,1,0,2,6,-26,-5,-18
7,10,3,5,15,40,-8,6
-4,-11,-5,-9,0,0,-3,7
-1,-22,-2,-2,-2,-13,-2,-1
3,3,0,-3,0,50,6,4
-13,-8,-2,-3,-50,-118,-25,-13
0,0,0,7,58,29,-3,-15
-13,6,-2,-7,-60,-47,-14,-21
7,3,4,4,7,-17,7,3
-6,-5,-1,1,30,22,1,-1
3,7,-2,-5,-23,11,29,0
0,-2,-2,-1,-13,-8,-37,-1
-19,10,-1,-9,-31,-50,-11,1
3,-3,-3,1,72,59,1,11
4,1,6,9,-27,-84,4,17
8,-1,-1,-5,-10,0,1,-1
35,3,0,-2,-1,10,5,30
-26,7,-2,-1,-31,16,5,15
0,-4,-5,-4,17,-84,-14,-25
-13,-3,1,4,15,54,6,6
8,-1,2,-5,-22,0,-10,0
5,-2,1,-4,-43,-51,-12,-21
-2,0,-3,-5,37,13,-32,-3
9,4,4,3,-32,5,42,5
-5,-4,0,6,63,-13,2,1
0,-4,-1,-1,-8,43,7,-4
-6,0,1,4,-12,57,19,6
2,2,-4,-1,23,-9,-30,-6
-25,-6,-2,2,-16,0,2,-7
12,5,-7,-10,-15,-58,0,-9
-10,2,1,2,2,55,9,14
1,-5,-4,1,-5,-75,-5,23
6,7,-3,-1,4,65,-4,-7
-3,-24,-3,-1,3,12,-17,14
8,2,1,-3,-26,-11,4,-2
2,0,4,7,27,26,33,-2
-3,-1,-1,-4,-18,-53,-6,-3
-6,2,1,4,9,-20,17,7
7,2,-1,-6,-34,20,-4,-3
-5,-7,-1,-3,10,-45,-25,1
5,-15,-5,-6,-14,-28,-4,-8
-2,6,4,3,34,58,26,4
-3,1,-1,-1,-23,-27,-8,-3
2,5,-1,-3,-14,-26,4,-5
-3,-2,-2,-2,7,-17,-30,-13
2,2,-1,1,9,20,3,6
-7,-6,-3,-4,-1,-10,-26,-16
-2,1,-3,0,10,42,13,3
-1,4,2,2,-6,12,3,-28
-16,-5,-1,1,7,-20,1,13
32,8,1,2,9,36,0,3
7,1,1,1,8,-39,-13,-25
-3,-3,-1,0,0,42,13,5
3,1,-2,-2,-9,-15,-14,-9
-3,-4,-3,-4,11,13,12,1
-24,11,-1,-1,-6,19,22,5
8,0,-3,-1,25,36,-1,10
-5,-2,4,-2,-45,-75,-23,-11
-6,-4,-2,7,58,53,16,4
14,4,1,-1,-6,5,-9,-9
0,-2,-1,-5,-37,-39,11,22
2,6,0,5,53,89,37,-17
-9,-17,-3,-2,-10,-22,-25,-10
-3,-7,-2,1,-6,4,-2,-3
3,-1,-2,-3,-1,17,-11,-4
3,-15,-3,-6,-6,-63,-25,-11
-15,7,0,3,2,6,13,5
-17,-7,-4,-1,6,24,-15,10
8,-3,-2,-6,-32,-44,-29,-15
5,2,-3,-11,-23,60,19,12
-11,-8,-5,-2,41,-51,-21,-35
-11,-4,-3,-5,-15,2,-38,-5
-5,0,1,5,20,21,46,4
9,13,1,0,-12,-8,-1,-19
-8,4,-2,-5,-48,-8,18,12
-4,-7,-3,-7,8,-68,-27,-19
14,0,2,9,20,99,20,6
-3,11,4,7,26,60,52,0
10,-5,1,0,-22,9,10,-7
