-2,-1,0,-3,-2,0,0,-1
-4,-1,-2,1,3,-2,-2,0
-3,-3,-2,-1,-3,0,-3,0
0,-2,1,2,8,0,-3,0
1,-3,-3,-3,-6,-2,0,0
-2,-2,-2,0,0,3,1,-2
-2,0,0,0,7,3,-1,-2
-2,0,-1,-3,-10,-6,-1,-1
-1,-1,2,-2,-3,-2,0,-2
-1,-1,-2,0,1,0,-1,-1
-1,0,-3,-1,-2,-1,-1,1
-2,-1,-1,0,-3,-4,0,0
1,0,0,-2,2,21,0,-1
-1,0,0,3,5,-4,1,-2
1,0,-2,-3,-3,-3,-2,0
0,1,-1,-4,-4,-2,-1,-1
0,-1,0,1,-2,-7,-1,-2
-1,-3,-2,-2,1,1,-3,-1
-2,-2,-1,-3,-7,-4,0,-1
1,0,-2,-2,-4,-7,-3,-3
-3,-1,-2,0,1,2,-1,-2
1,1,0,3,2,0,-3,-2
-1,-1,1,-2,-4,-4,-2,0
-1,-2,-1,-3,1,1,0,0
0,-1,-2,-4,-2,-10,-1,2
-1,-2,-1,-2,0,0,-1,-2
-3,1,0,0,0,0,-3,-1
-1,-2,-2,-1,0,4,-1,-2
-2,-2,-1,-2,-1,0,0,-2
-1,0,1,-2,-2,-1,0,-1
1,-3,-3,-4,0,-3,1,0
-1,-1,0,0,-1,3,-1,1
0,0,-1,0,-3,-3,-1,-2
0,0,-1,2,2,-4,-2,0
-1,2,2,-2,-4,3,-4,-1
-3,-1,-1,1,1,-9,-1,-1
-1,0,-3,-2,2,1,-3,0
1,0,-1,-4,-3,-6,0,-1
-1,0,0,0,10,-7,1,-3
-1,-3,-4,-4,-8,5,1,-2
0,-2,1,3,2,-6,1,0
-2,-1,-3,-2,-7,-1,-1,-3
-1,-3,-3,-4,-8,9,-1,-1
1,0,-2,0,4,-8,-2,0
0,-1,0,-1,-1,-1,-2,-2
-1,-1,-2,-9,-7,3,2,0
0,-2,0,1,-2,-14,0,0
-3,-1,2,1,0,11,-3,-1
-1,0,-3,-2,2,6,3,3
-1,-1,0,5,-3,-15,-6,0
-1,-2,0,-3,-6,-5,-4,-2
0,-1,1,-1,-5,-13,1,0
-1,-4,-3,-5,2,27,1,1
-2,-1,-1,2,5,-13,-3,-3
-1,0,-3,-1,3,24,1,-2
1,-1,0,2,-3,-17,-4,-2
-1,-1,-1,-3,-8,-10,-4,-3
-1,-1,-1,2,3,11,2,1
-1,-1,-1,0,-5,-13,-3,-2
-1,0,0,-3,-5,2,3,0
-3,-3,-3,-1,-8,20,-3,-4
-1,-4,-2,-3,12,15,-1,0
-1,0,2,4,3,-13,4,4
-4,-3,-4,-4,6,6,-6,-3
-2,-1,-1,3,13,-18,0,-1
2,2,0,1,-24,-31,-2,-1
1,2,0,2,9,13,-1,0
1,0,2,1,-10,-3,4,0
2,-1,2,-2,-9,-27,-3,-3
-2,-2,-3,-3,4,7,0,-4
-1,-3,-1,-2,-3,-1,-1,-2
-2,-1,-1,1,4,-2,-4,0
1,0,-2,-1,-4,-1,-2,2
-2,-2,-1,-1,4,5,6,-1
0,0,-2,3,0,3,-2,0
0,1,-1,-4,-6,0,2,-1
-3,-1,-1,-3,-15,-12,0,-1
0,-1,0,4,11,19,-1,0
-3,0,-5,-6,5,-2,0,-3
0,-2,1,6,15,2,2,0
-2,-1,2,1,-5,-9,0,-2
-2,-1,-2,-2,0,4,0,1
-1,-1,-1,-1,0,-1,-4,-2
0,-1,1,-1,-9,0,-3,2
2,2,4,10,6,3,1,1
-1,-4,-8,-17,-6,2,6,2
0,-2,-4,-13,-23,-19,-3,-3
-2,-1,-1,1,5,10,-5,-4
-2,-1,-2,2,6,21,-1,-1
4,-4,1,8,4,11,-5,3
0,1,-1,2,11,22,3,5
-6,0,-4,-6,-5,-26,-6,-9
-1,1,1,0,2,1,4,-1
-1,1,-1,2,-7,-15,-4,0
4,-7,-2,2,3,2,4,-1
-7,-3,-1,1,-3,6,1,-1
-13,-1,-2,-2,0,-2,0,-13
-1,-2,1,-1,0,-6,3,9
16,-3,0,-4,-5,-19,1,17
1,-2,-2,2,10,23,10,15
-13,-6,-2,-14,-15,-28,-24,-23
-3,3,0,0,-2,8,-5,-7
-5,5,2,1,0,-16,2,-4
4,-3,-1,1,7,14,3,-4
15,-4,-5,-5,-13,-34,-12,33
-1,-15,-3,2,9,15,-9,-7
-5,-6,0,-3,-5,20,4,5
-3,19,4,0,-12,37,22,-15
5,-3,-5,-7,-2,-10,-14,-4
1,9,-3,-3,-3,-17,14,21
-6,-1,6,2,-6,-3,-22,-13
-9,1,-8,-7,2,-22,-10,-42
2,-3,-5,-1,12,28,5,41
2,-16,-4,-3,-18,-11,-31,-4
-6,6,-1,3,5,12,24,-29
-7,9,5,-3,-14,-5,16,93
-12,-16,-6,-1,-10,-42,9,-67
-5,3,2,1,25,36,17,38
1,15,0,1,1,-18,-2,-56
-7,-8,0,-6,-9,-17,-24,-107
25,-18,-3,1,-4,-6,43,65
-6,23,-3,-4,-4,-8,-7,-36
-6,-10,-2,-3,-12,5,2,42
-17,-9,-2,-1,1,25,-4,-43
-2,14,-1,1,22,14,-42,-37
7,-6,-1,4,-2,-4,54,7
6,-3,-5,-4,4,-24,-15,62
5,-9,2,1,4,-26,-36,-52
-33,-7,-2,-9,-15,73,7,-49
-5,-7,-4,-8,-7,1,-17,-17
-10,20,4,6,7,9,-24,-80
11,-46,-15,-5,-36,-116,7,111
8,-7,2,4,17,93,-30,-22
-11,13,8,6,31,-9,22,12
14,6,3,-1,-17,-13,-7,42
-14,-5,-3,6,36,55,-26,-81
-4,10,5,-1,-37,-50,11,54
10,0,-3,7,6,7,-22,10
-13,-9,-3,-8,-14,-33,-1,-91
12,14,5,-7,12,38,63,35
20,28,3,4,-9,-60,-13,66
-8,-41,-6,-14,-16,18,-7,-73
-25,10,-1,4,-5,-14,2,41
4,18,-1,-6,-34,-4,-34,-36
22,-6,-3,-6,39,46,46,74
4,23,13,27,20,-45,-73,-71
13,0,7,27,8,61,96,89
-13,-9,-12,-49,-39,0,-7,-25
-14,2,0,-4,-12,-2,12,-25
4,4,0,5,-1,-5,2,-20
16,9,2,13,37,6,4,50
9,10,16,27,11,15,-7,46
-36,-18,-5,-9,-12,-19,-52,-119
3,9,5,5,26,-15,-32,61
-14,-12,-14,-15,-21,8,-15,18
37,19,-1,-2,14,4,11,99
4,1,13,25,18,-19,11,-68
-14,-5,-11,-39,-46,6,-4,11
-8,-11,1,27,23,4,-12,-48
-6,1,-3,-6,1,-5,9,-17
0,-1,-9,-32,-38,-7,-38,12
-5,-2,-1,-7,-21,-13,-7,-37
9,-15,0,2,20,13,-44,-66
19,3,4,20,42,2,49,4
-20,12,9,29,31,-5,-8,-35
12,-11,-15,-33,-8,14,23,21
-29,-2,0,-12,-54,-23,-48,-74
-8,-22,-6,0,-6,-10,5,-9
0,-5,-5,3,19,9,-16,-69
-16,9,7,26,27,8,72,71
25,0,-2,-22,-28,-3,72,81
8,10,-4,-7,-11,11,-36,-3
8,-7,-3,1,-5,-8,41,38
-18,-32,3,22,7,-5,-44,-43
0,-6,-2,3,28,10,43,8
-35,-11,-6,11,-16,-9,9,-55
24,19,11,-14,-3,2,-1,33
23,29,1,5,-6,-7,-3,89
4,2,3,-8,1,-8,-36,-12
-5,1,1,4,21,3,12,-40
-18,-38,0,20,-16,4,25,-7
17,18,-6,-13,-11,-5,-8,-39
-25,-3,1,2,26,6,1,11
25,-1,2,4,-17,-3,-29,57
13,33,-3,8,13,-12,1,-13
-5,-21,2,-12,-22,5,10,-48
11,-16,-5,-7,7,-10,-28,-25
-21,7,-14,-23,-25,-11,-57,43
-19,-8,-6,-15,-13,-4,26,7
26,-12,2,8,13,-2,-32,27
-31,-31,-22,-7,-11,-1,-33,-54
-4,-16,4,1,10,-6,-12,-29
20,39,7,3,19,0,8,-42
-46,-5,-10,-23,-37,-4,14,-28
13,12,-10,-25,-32,-8,-21,-76
-44,-43,1,5,13,-15,1,69
-1,-32,-14,-25,-20,-7,-6,29
30,8,17,32,54,17,25,82
24,32,0,3,-30,23,-34,-8
-9,-86,-15,-20,-29,-13,79,-6
20,105,17,11,15,8,-21,39
-14,27,-9,-28,1,-6,7,-62
4,-5,19,56,19,2,-14,68
-14,-33,-16,-27,-28,-7,-49,-45
-41,-2,-7,-15,-20,2,-1,-107
60,74,-8,-7,-20,-5,97,81
14,48,20,15,45,21,20,-43
52,79,12,20,31,-1,-56,-70
-3,-39,8,33,4,2,64,-42
-1,-80,-19,1,103,2,-50,-81
36,92,-9,-80,-101,-25,-33,19
10,-7,5,26,37,19,70,13
22,-70,-14,-16,10,19,-3,92
-20,-128,5,32,16,13,42,-61
12,51,39,49,95,-12,-16,13
37,58,17,47,68,5,-49,-128
28,-5,-8,-36,-88,-14,-1,26
-38,-71,-31,-77,-89,-18,3,-47
-39,-112,-30,-15,-23,-1,44,13
-68,-30,13,-12,-1,-4,-25,-49
-59,96,27,54,60,-19,-60,-79
106,44,17,-29,-52,18,48,103
28,-74,-12,22,34,8,26,23
-60,-17,-25,-43,-52,-11,-32,16
28,-8,11,34,50,15,9,5
-39,-60,-16,0,-4,-4,-20,-52
7,104,4,18,40,-24,-56,-18
52,11,-7,-39,-6,9,31,65
-27,23,-4,-1,71,2,-17,-50
-19,14,1,-53,-116,-15,-2,59
68,-12,5,52,105,20,69,-9
9,-5,-1,29,-81,15,20,9
90,74,-8,-2,45,-25,-43,43
-106,-32,-3,24,4,8,-35,-63
-39,25,-15,-74,-123,-14,68,95
-55,-33,6,10,11,-8,-40,-60
54,28,-6,8,6,10,15,95
-5,-29,7,76,124,6,-41,-55
-78,29,3,-29,-72,-17,-46,13
72,35,-3,-44,-38,-15,-73,14
-72,-91,-14,7,30,10,28,-43
94,34,-8,-4,-57,-2,16,51
-112,-59,-22,-22,-11,-26,-95,-59
48,0,13,28,65,27,22,40
-1,-128,-23,-28,-23,-15,-23,23
5,127,0,-45,-46,-26,35,-10
40,-19,6,6,21,-3,7,1
24,14,5,45,34,7,50,78
-12,-4,-4,41,99,-7,-24,-65
-42,13,5,-43,-64,-24,-77,55
13,-37,-5,-48,-42,8,48,-53
-59,-18,-12,-22,-12,9,-8,45
71,49,9,6,16,16,44,47
-19,14,8,68,112,-16,-35,-36
31,-21,7,18,-12,-8,-14,41
5,20,-15,-62,-50,-12,15,-13
3,7,-7,-16,-55,-7,-27,-22
38,83,26,75,64,-3,47,-43
-8,11,-5,-61,-1,4,40,30
-31,8,8,46,99,-14,-3,44
-39,-45,-1,-40,-93,0,-7,-69
40,-49,-8,-18,-23,-7,-15,-22
12,-21,1,36,32,32,6,-47
-5,56,1,19,76,-3,14,69
-16,-51,-4,-38,-99,-14,17,15
-38,-14,5,7,-27,3,-57,31
-17,-24,-7,-15,21,-20,4,-40
30,-7,-8,6,-72,14,10,-75
4,49,18,37,-2,12,-9,-14
-15,-3,5,1,42,17,21,-18
27,-1,2,15,38,6,-17,-61
-22,-19,1,6,6,-8,14,4
-2,-36,-8,7,36,14,32,61
-4,-24,4,-3,-54,19,-1,-8
-12,32,16,45,35,13,3,-46
66,10,4,0,13,-17,-32,-6
-57,-84,-6,9,74,-3,-32,0
7,104,3,-33,-59,-21,-17,3
31,-56,-6,8,62,22,16,67
-8,74,-3,-30,-117,-24,-26,-114
44,35,11,-17,3,-5,47,117
-45,-48,-13,24,121,12,2,-47
1,25,9,30,14,-5,-8,0
24,-39,-15,-33,-50,-7,-11,-23
20,-32,-21,-73,-87,-20,-19,2
-57,-21,9,40,64,6,2,-27
7,23,-4,-23,-90,4,8,-43
-20,-39,3,41,85,36,16,-12
43,68,5,-3,-21,12,-6,10
-16,-27,0,-15,27,-17,-24,-41
28,17,-21,-21,-87,-17,-53,16
-18,-55,-12,-24,52,2,-29,-43
3,27,10,30,18,8,23,7
49,25,-9,-27,-25,7,23,76
-3,-4,3,2,32,-1,-50,-30
-3,-30,-2,11,-31,2,46,-20
0,69,3,-1,70,-15,-35,-38
-17,-59,-14,-29,-105,-7,3,-1
-3,5,-3,-2,67,3,25,53
7,-47,4,12,12,-17,21,3
-94,-75,6,18,11,46,-20,30
34,57,4,-11,1,-2,-8,-19
-17,-2,-11,-40,-64,-23,15,-28
17,18,7,36,4,43,-12,73
-51,-34,-3,8,11,-12,8,-65
-19,-45,-6,11,38,22,-28,-38
11,1,4,4,9,-16,21,45
10,57,1,-18,2,-9,7,22
-3,5,-8,0,-22,-8,-2,-56
40,84,21,0,8,10,40,75
-33,-48,-1,30,31,1,-8,-128
63,33,1,-18,-22,-12,-12,22
-22,60,12,-3,-26,-12,-9,23
-3,-12,0,-3,-31,-4,4,-21
14,-32,1,11,21,-3,10,43
3,53,0,-7,28,-23,-24,0
9,-61,-9,9,-6,-4,21,8
-27,-46,0,22,71,-6,-8,-1
-24,-8,-4,-36,-122,7,-18,-6
-20,9,-11,-26,12,13,34,32
8,-14,5,20,58,-11,-12,-10
8,47,0,24,7,-10,-14,-33
-25,-50,-16,-48,-34,6,21,11
-8,0,6,1,-14,-9,-25,-13
29,21,-1,21,46,6,6,13
-3,-35,6,10,-10,-2,-2,-25
13,48,1,-2,5,-1,9,58
-19,0,6,33,65,22,-18,-19
-12,-2,-14,-73,-125,-14,13,-17
20,-47,1,35,74,8,-22,21
8,57,2,8,-22,-13,40,-3
-53,-29,4,3,-33,-4,14,-15
-14,8,7,43,115,-6,-28,-24
-8,-26,-16,-48,-71,3,35,-13
-6,-23,-6,-16,-15,3,-34,-16
-15,-30,2,12,12,6,16,4
-17,-20,-7,-12,-17,55,-17,-40
46,15,17,47,96,-9,-17,68
-12,-12,-22,-72,-40,-32,-12,-25
5,9,0,1,7,1,26,3
5,19,0,-15,-40,-39,-47,30
27,-41,4,19,10,12,88,0
-29,43,5,41,112,-1,-47,-18
-6,-34,-2,-30,-84,-5,-1,-6
3,36,-2,-17,-14,-2,29,-9
0,33,-13,-27,-46,-5,21,17
1,-84,10,46,18,18,2,22
-47,29,-7,-16,6,-23,-2,-112
-1,6,7,16,15,-1,-19,29
-16,-27,-13,-2,-23,4,7,-25
24,41,-2,-34,-36,-8,-13,14
-9,17,1,-8,-28,-7,-18,-21
22,-44,-5,-1,-26,-2,36,76
-11,45,-6,-16,20,-32,-48,2
6,-18,0,25,30,55,47,-15
-11,-9,9,36,55,-10,-15,20
21,8,-29,-70,-49,-20,8,-36
-43,20,-2,-42,-98,-9,-52,-28
39,-4,4,39,98,8,32,16
-26,-19,-2,-1,-46,-1,2,10
18,23,5,23,43,-3,13,10
-36,-22,-7,-14,-32,14,-28,-4
-99,-46,-7,23,42,-6,-26,-57
82,34,7,3,18,12,27,37
-11,-20,-7,-14,-28,-5,2,-2
-6,63,17,33,23,-1,-33,-54
21,31,11,16,40,-12,61,66
-8,-32,-7,-15,-27,5,0,-11
-8,1,1,13,46,2,-23,-12
15,-46,-9,-2,-55,5,38,14
1,-10,-1,-11,-28,-15,-9,1
-11,35,4,13,49,-15,-8,-9
-13,-32,-2,0,-1,-4,20,28
17,26,-6,-14,26,17,-22,25
40,-25,10,0,-69,-23,-12,-6
5,-4,-13,-21,-26,-4,-3,12
-19,1,11,36,29,6,-35,-5
-21,-11,8,12,72,12,44,-29
-18,11,2,-2,-84,-18,-39,39
2,-18,-7,-22,43,18,23,-9
8,-30,0,8,-4,14,9,-26
-1,37,-6,-17,-36,-20,-12,47
28,-13,-2,15,91,27,20,-49
-29,10,8,24,-13,-16,3,-22
-2,32,1,-29,-44,-17,4,-50
15,-19,-10,-39,-79,-11,11,18
5,-6,-4,-16,3,8,-14,32
-26,5,2,19,83,-4,-1,-29
30,10,3,-4,-58,8,33,0
0,-5,4,6,-21,-3,-14,69
-3,39,1,-9,-15,-17,-21,31
-15,-13,-6,-9,9,14,18,14
-4,-49,-8,2,17,6,-37,-6
4,13,0,29,74,5,35,-15
-17,7,-3,-30,-32,-6,-23,-34
23,-17,0,8,-34,8,-3,11
-2,-29,-4,-4,2,-1,-29,6
-25,19,-4,-4,66,2,5,1
-31,-71,4,62,37,14,5,-19
3,13,-17,-56,-28,-4,-6,-6
1,34,1,-33,-72,-25,-3,-24
-4,-47,0,8,1,33,4,-23
8,39,0,7,39,9,16,-4
14,2,0,29,32,6,-4,4
5,17,4,1,11,-1,-2,17
-27,-60,-10,-21,-75,-12,-23,-13
-7,43,3,-8,5,-12,-18,-36
-10,-4,2,10,-27,-21,-31,23
14,14,-2,18,82,18,25,1
24,30,5,1,0,-7,-16,-17
-2,-92,-5,-6,-9,5,4,-18
13,47,2,1,-28,-10,1,60
-8,19,-10,-2,2,-21,-12,12
12,-12,-2,20,66,19,-22,0
-29,-44,-7,-11,-30,-3,33,21
9,19,-3,-28,-66,-1,10,30
-1,-11,-1,-7,-9,-6,-24,-25
-1,4,6,28,54,-22,33,-24
4,5,-6,-14,2,-30,-28,33
13,-45,9,31,11,24,8,-12
-25,6,-11,-34,-39,-11,-14,48
15,-36,-3,0,-13,-10,-40,-49
-5,42,8,30,65,15,44,-40
4,36,-4,-11,-8,-29,-4,56
9,2,-4,1,-46,1,9,13
4,-8,-7,-12,-28,-6,8,29
8,9,-13,-35,-37,16,-4,12
-5,-31,10,18,40,10,-5,-59
-24,-13,9,51,83,10,12,13
45,45,3,-26,-27,-19,17,0
-16,-7,-11,-26,-38,21,1,18
19,2,-1,-4,1,0,-12,-27
-44,-55,1,17,45,-13,1,-25
-2,43,0,-27,-29,-10,2,-32
10,-1,3,22,36,-2,-16,14
11,-20,-18,-42,-34,32,-13,-45
-13,-23,9,2,8,3,10,61
3,-11,1,-2,-45,-16,4,43
14,11,1,2,7,-6,-41,-17
-8,-16,-2,20,41,-8,25,-9
16,26,-1,4,-26,35,19,-16
-48,-31,-6,5,0,6,8,-11
8,29,-3,-24,-19,-25,-26,13
-5,-16,5,39,48,8,-12,-24
-18,-31,-13,-53,-66,-25,-11,-20
-27,-3,2,26,70,52,13,-7
20,21,3,-1,-26,-12,-2,-16
16,17,2,18,39,6,0,89
21,39,4,17,87,-21,18,-48
-9,1,5,-40,-89,-6,-27,7
5,-33,-3,-9,-18,0,22,16
17,21,4,0,-4,0,-13,-18
18,4,-3,7,21,13,34,6
-29,5,-11,-17,13,15,10,-2
-25,43,5,32,38,5,-8,-26
-9,-37,-16,-69,-83,-26,-20,8
16,1,5,17,4,20,23,1
50,60,13,32,17,-26,-42,50
-17,-44,-5,-14,-11,13,15,19
-30,17,1,13,60,-7,-3,-43
25,29,-4,-48,-128,-1,-11,16
8,-23,-2,22,42,-4,8,-28
8,11,19,38,58,2,2,5
32,36,-5,-36,-49,1,25,18
-25,10,-6,-14,-5,-1,-14,-20
3,-15,9,19,23,23,-1,-18
-41,-1,-15,-27,-17,-1,-30,-35
-3,-74,-6,7,44,-5,10,-3
-12,34,7,-4,-5,-10,-16,-16
4,43,-8,-22,-69,-16,4,-6
17,0,-2,29,4,10,-13,-27
10,-6,4,-7,-15,-7,-43,66
-20,-9,-3,19,59,3,18,-38
10,-14,-2,-4,33,-21,0,1
11,17,1,0,-53,2,10,18
-20,-11,-3,14,-13,-6,-8,-13
12,-26,10,9,48,-5,4,19
-50,-11,-13,-25,-38,-13,-10,-55
10,-9,-7,3,88,13,9,37
4,19,-14,-48,-113,-16,21,-10
-32,-18,3,27,73,-5,-25,31
10,-8,2,8,15,7,18,-10
15,16,5,-5,-26,-25,-11,-20
-12,-14,5,21,30,9,19,36
31,-13,-5,-3,-35,5,9,-15
-13,1,-9,-2,11,5,2,-5
-39,-30,2,-3,-8,-19,-32,-28
-21,-13,2,5,11,5,40,12
12,54,-10,-34,-95,-40,-50,-8
-7,-95,0,19,38,18,-1,22
21,72,15,16,38,1,40,10
23,14,-2,8,10,3,-23,-71
11,34,8,19,13,15,33,61
25,-4,-5,-13,-11,-10,7,15
-11,-71,-15,-20,-39,-15,-12,-28
-34,-22,4,20,34,13,22,13
-28,56,-11,-17,-7,-2,-10,-62
14,-7,1,0,-3,-5,-9,3
10,10,-3,-10,-58,7,-14,12
9,-3,2,4,20,-8,-4,-19
7,-7,7,19,-2,-12,-14,-32
-27,-3,-10,-18,18,19,5,2
7,21,2,-2,-3,-8,-11,-13
11,4,5,3,-18,3,-19,-7
-14,-34,-2,-3,-4,8,11,-12
8,0,5,1,-6,3,2,8
-29,-99,-6,-12,-13,2,10,-28
54,104,6,1,17,-9,-7,1
-9,-2,5,40,42,4,-8,-6
-3,-12,-14,-51,-56,-7,-10,-11
5,5,-7,-9,-7,-1,19,-10
-29,-45,0,0,-46,-2,17,10
16,-10,1,10,43,19,-3,4
40,-23,1,18,2,-15,-24,11
-18,65,8,29,68,9,26,21
-9,-11,-13,-49,-59,-21,-49,-12
22,24,-1,-13,-3,16,43,29
-10,-37,-1,8,15,-14,-3,14
21,12,3,8,-4,-2,15,39
-26,1,1,12,0,7,-18,-29
5,-26,2,4,37,-4,-16,1
3,22,-1,-13,-26,9,13,59
-1,-1,-2,-17,-25,-1,-5,-24
9,-61,-11,10,38,-4,4,40
-7,9,3,-8,-30,13,15,-25
-11,17,5,22,25,-17,-15,-23
-8,3,-6,5,3,-2,-29,7
-19,15,-5,-27,-9,-13,14,-23
3,-37,-14,-22,-37,-8,-24,0
-15,-21,6,23,48,-3,10,10
-1,-14,-10,2,3,-6,-10,-1
26,30,10,19,20,15,4,1
-9,-37,-22,-77,-79,-26,-9,53
6,17,1,15,40,-5,-10,-26
-6,-7,-4,-21,-9,-3,3,-23
39,-1,15,57,47,16,38,11
-19,8,1,10,50,-4,-33,4
25,23,-9,-22,-50,21,35,31
5,-36,-3,-22,-80,-8,-9,3
-23,2,7,25,39,-15,-24,-36
3,-3,3,14,14,15,14,17
3,27,0,-12,-14,-17,-13,5
20,-5,1,15,19,-5,-5,1
-22,-37,-5,-11,17,25,25,2
2,10,2,-6,-45,1,-6,-74
-12,0,0,9,2,-15,-6,71
47,40,5,5,38,13,26,7
1,-17,-1,-6,-27,-1,-14,25
32,-4,-2,14,64,6,29,1
-54,-6,-9,-7,-15,17,-32,-86
-11,0,-4,-26,-65,-26,-20,12
2,-4,-13,-37,-24,-2,30,6
-8,-31,7,22,10,4,4,-53
18,34,9,17,29,-7,-1,-13
-8,-20,1,-5,1,7,1,26
-24,8,-8,-14,-7,0,-30,-94
-2,-46,-12,7,14,4,2,-13
-10,11,9,8,23,-7,5,-12
0,10,-5,-45,-84,-7,12,8
-10,16,10,34,31,-9,-10,-8
-8,-1,-7,-32,-22,2,9,43
5,-1,3,20,30,-9,1,-12
-2,6,-4,-3,8,13,-5,-11
23,-39,-3,-17,17,9,-3,29
-14,56,9,10,-60,-14,-10,-30
-5,-33,3,18,38,-2,-1,40
9,9,-2,-5,-46,-9,3,11
-19,-15,-7,-13,-5,7,-6,-49
-13,-34,0,15,24,13,3,75
11,5,-11,-25,-14,-1,-5,1
-20,21,19,57,127,16,-4,-36
-8,45,-4,-25,-63,-19,10,22
4,8,2,-6,-50,0,-14,-46
6,-2,-4,-27,-44,5,16,-7
14,-24,-2,10,45,2,-17,-18
0,-19,-2,8,17,9,22,17
-10,38,14,44,21,-6,-7,-15
6,-49,-19,-58,-24,-10,13,49
-4,33,-2,16,40,5,-15,-5
11,24,5,18,8,-4,-5,-11
-23,-56,-15,-16,40,-11,0,42
10,30,15,12,-40,1,13,-24
2,-27,-8,-15,-7,-6,3,22
-11,-43,-1,10,65,14,9,-12
-6,65,0,-13,-59,-4,2,-1
-14,-43,-5,17,61,3,-36,-51
1,-3,5,11,-9,3,8,74
-23,-34,-9,-44,-92,-19,5,-16
8,15,-2,-21,4,-11,-12,-22
-12,4,-1,8,-3,10,-7,1
2,-10,0,6,27,3,-17,-33
3,7,-2,4,1,-12,-12,27
26,-12,-1,-9,-11,-7,-3,-28
1,4,2,30,-17,2,-8,12
-11,-22,-1,11,70,13,8,-2
-5,45,3,-5,-76,0,-11,-7
-11,-31,-9,-17,1,-11,12,5
19,49,4,15,34,6,3,-7
-3,-11,5,-1,-18,-9,18,1
-22,13,-9,-18,-3,6,-11,-19
32,-3,2,16,26,-2,-7,-20
-47,-63,-3,1,13,12,-24,-16
-14,27,-8,-31,-78,-18,5,-27
-14,-20,-3,-16,-16,-17,-35,-9
2,9,3,7,20,-5,7,7
19,12,4,12,58,7,-7,-17
12,-20,-17,-35,-93,7,18,-13
-3,14,12,40,98,-1,-7,14
-9,-11,-11,-44,-103,-4,-1,-6
-5,20,3,10,-5,-15,6,-9
-13,-9,-6,-13,49,13,-4,1
9,-27,-11,-8,-23,-8,3,27
-11,-26,2,26,51,-4,-15,-22
-7,-4,-5,-12,-15,9,4,6
-9,12,0,0,-29,-24,-11,2
10,7,5,19,11,8,10,15
-14,-16,-8,-12,7,-8,-23,5
29,45,8,-4,-19,2,59,14
11,42,5,18,6,8,-16,-15
2,17,1,-9,25,-8,-1,-8
-29,-1,-4,8,11,6,4,6
40,1,-3,-26,-57,-11,-16,52
4,-28,2,12,22,-6,-6,-4
-5,39,4,18,11,-4,22,-3
-13,-16,9,31,60,15,-24,12
-11,-1,-16,-64,-96,-11,-2,41
0,-9,1,18,70,-16,-8,-3
25,-6,-4,-14,-58,12,-26,6
-7,-19,-3,7,-29,-3,13,-43
-6,19,4,15,39,1,8,-15
-3,41,2,5,6,4,5,14
17,-3,-2,-12,-6,-12,-5,6
7,-7,-4,-4,7,-9,-4,39
5,-3,-2,-12,-30,15,-6,-26
-20,-31,-2,-2,7,12,27,2
14,4,5,20,9,-5,-8,12
16,-2,-1,-16,9,11,30,25
-18,7,-6,-12,-61,-11,-12,-39
38,-19,-2,2,30,1,4,38
-21,-22,-5,-12,-44,-11,-4,18
3,41,-12,-43,-35,0,22,5
10,-18,6,30,51,8,-17,3
-23,-35,1,0,-4,7,32,-8
32,52,5,38,59,6,17,-10
16,7,4,1,-22,-8,-40,20
-38,-41,-13,-39,-23,2,26,49
2,56,4,22,30,1,0,-66
-1,-14,0,-11,-2,-6,20,77
5,-7,-6,-32,-42,0,7,-29
-28,34,9,11,5,-8,-38,-90
28,0,2,-6,-52,18,44,87
-27,-25,-6,9,40,-9,-25,14
1,18,4,8,35,-11,-17,-33
11,-17,1,11,7,16,11,4
-9,-12,-11,-35,-44,9,-67,-16
0,14,6,15,29,6,20,-53
3,-15,0,-3,-36,0,-15,107
4,-20,-7,10,37,-20,-14,-48
-13,-5,-1,-2,17,-16,-39,-18
1,26,-5,-29,-72,11,27,74
-15,14,-1,12,7,-2,-42,45
31,2,-5,-23,-36,-16,-11,20
-17,-10,3,39,50,-9,-29,-75
-5,-46,-8,-40,4,5,20,18
10,18,6,22,-11,-4,-10,-50
-1,5,9,34,79,5,-23,19
-37,-17,-15,-49,-108,-16,6,-45
-37,-29,0,5,50,-6,-40,-120
19,-10,5,7,3,13,6,-11
-10,-18,-5,0,-3,-13,21,-7
15,9,4,-3,37,1,-33,36
11,46,3,4,-81,-8,-16,-13
-19,-24,-10,-33,-7,2,0,-32
-9,-1,2,24,19,4,12,-27
12,11,1,8,29,-9,5,24
2,-7,-3,11,66,24,12,-7
-4,4,7,2,-34,-21,-26,-27
18,1,-3,0,2,16,45,47
-26,-25,-2,-4,-37,-11,-4,-25
2,5,-8,-14,66,0,20,-18
0,9,-3,8,-41,-3,-6,-70
-16,1,0,-3,-1,-1,11,17
22,-2,0,-1,10,2,15,11
-8,-29,-2,23,-12,1,-26,-64
0,20,2,-29,4,-3,18,39
-1,26,-3,-18,-23,-8,-9,-5
-4,-20,-3,-1,-2,11,0,3
5,40,9,17,-3,-10,-32,-10
4,4,3,27,51,16,64,13
7,-4,-1,-4,-24,-2,-36,8
-5,13,5,25,68,7,-5,39
-10,-21,-18,-63,-108,-10,-6,-6
-15,-23,2,17,40,11,12,21
-1,4,3,-2,28,-14,-5,-38
21,-13,-2,-3,-16,-1,4,67
-19,-14,8,35,30,2,5,-14
14,38,-10,-47,-72,-2,-17,-24
12,-24,-6,1,-9,7,28,39
5,38,-5,-8,-26,-13,-4,-25
-17,-11,1,4,4,2,45,43
11,-17,3,23,24,-6,-38,-10
-3,-10,-5,5,43,0,-23,-45
1,12,-2,-24,-60,-8,14,-11
10,-23,1,1,20,13,1,83
0,4,4,13,1,-3,-16,-7
-10,-29,-6,-18,18,6,-15,-4
-14,38,6,4,-53,0,4,-65
13,3,-2,-8,14,-15,-35,20
-21,-30,-8,-2,15,-6,34,28
-17,-10,-4,-10,-50,1,-24,14
-1,-20,1,16,81,-6,-4,-55
3,-38,-4,-28,-63,1,-13,-35
-5,12,7,25,5,-2,-2,-9
-4,-10,-6,-7,-4,6,0,-6
4,-10,2,8,42,-8,-17,4
9,20,-2,-11,-33,-1,28,-9
13,4,8,55,89,11,29,30
-27,-16,-14,-66,-97,-13,-18,-43
13,1,-3,-12,-39,0,23,23
-2,0,-1,13,54,-19,-17,-20
-6,3,-2,-24,-19,3,-5,-30
0,39,13,51,80,2,5,25
-10,-20,-7,-27,-49,11,62,-29
7,-4,2,7,13,-12,-16,-2
-7,-20,8,38,-8,3,-3,-20
17,36,-6,-32,24,4,8,-28
-2,43,4,6,2,-1,6,13
9,-10,-5,-16,-28,9,-22,-13
7,2,5,22,59,-8,-5,3
-3,-16,7,19,-33,4,4,-18
-20,-21,-2,-10,-24,9,19,87
9,18,1,21,55,-7,-38,-5
3,-12,-11,-34,-52,-15,-34,4
16,-13,-4,20,65,5,58,36
-30,10,2,9,-31,-3,-31,-61
0,-1,2,-19,-32,1,-1,37
8,3,-5,-9,38,4,16,-15
2,-9,-2,4,-24,-12,-32,12
11,-11,1,23,31,7,-16,-22
18,18,6,12,9,12,38,31
-9,25,-5,-22,-10,-4,-15,6
19,-60,4,20,54,-7,-8,-16
-12,54,-5,-33,-57,-11,-7,-7
-4,-23,-2,-24,-35,8,17,22
-8,12,4,11,23,8,25,-63
-13,2,-10,-30,-53,-2,-21,13
5,-1,4,15,65,-5,-7,10
21,-17,-7,-6,-32,-7,-1,-22
-25,-26,0,11,-4,-4,-8,-41
5,18,13,52,73,7,-2,-18
17,-16,-11,-57,-89,-10,11,21
-6,-14,-6,6,38,0,-9,-25
-9,52,-3,-18,-18,4,5,41
-23,-2,-1,4,0,-5,-16,-54
8,2,4,30,39,1,-4,104
-1,-2,0,-5,-23,-1,-15,-39
-6,-25,-1,-7,-14,-5,36,36
-11,2,1,-10,-14,3,-2,16
-4,-6,-5,0,-2,14,19,-68
-4,43,-3,8,27,-8,-7,34
-29,-31,-8,-5,-1,-5,-9,64
1,26,3,9,28,-9,-11,-25
1,-46,-1,2,-2,9,8,9
-4,-21,-8,-18,-25,7,14,-12
14,7,2,8,6,4,-10,6
-3,23,-7,-54,-76,-7,17,12
-6,-17,-2,10,28,-10,-7,4
-17,-1,6,15,3,-9,-9,10
4,-24,-2,27,79,25,9,-41
-21,-18,-8,-35,-84,-7,4,40
42,25,1,-2,7,-6,-21,2
-36,38,8,11,11,35,21,-61
38,-13,-6,1,4,-12,-52,-40
-45,23,3,0,-16,3,41,14
2,-21,0,-1,20,0,-13,-15
9,13,0,16,6,-14,9,10
17,-4,5,11,39,-8,-26,4
2,-12,-15,-39,-65,7,-3,-30
2,-21,-3,-10,-48,3,-12,-5
-5,-29,3,14,44,-12,-4,10
-4,33,8,-3,-17,3,15,2
19,26,-2,16,19,-9,2,1
-19,-11,4,18,82,3,10,-10
9,-4,-7,-15,-60,-1,-10,-6
22,-11,-8,-33,-64,-6,8,61
-28,-12,5,32,28,-4,-8,13
13,32,1,11,17,0,-8,-11
-13,-9,-3,3,91,18,-6,-10
1,3,-6,-34,-100,-17,22,-50
6,-40,7,27,50,19,-3,41
-3,49,-1,4,-15,-16,3,15
9,-33,-5,6,10,9,-3,9
-29,-13,-17,-59,-59,-15,0,-1
21,14,0,-7,9,-6,-13,4
-19,-15,3,0,-35,0,-17,7
17,45,1,-5,-19,2,28,-9
-24,-5,-7,16,34,8,-21,-15
10,8,3,3,27,-2,27,-47
-9,-42,-8,-22,-11,-5,-15,-3
3,40,6,7,27,10,-5,6
27,-25,-5,-10,-47,-17,-11,6
9,13,-9,-3,30,-4,7,39
-6,-5,0,34,16,19,-22,-30
19,9,-8,-47,-98,-22,4,-12
6,43,15,33,78,13,7,20
-5,-42,-1,19,32,1,-30,-33
-20,4,1,-24,-37,-12,13,45
-10,-9,2,31,50,3,31,53
17,79,5,-15,-31,-19,1,45
5,35,-4,-31,-29,-1,-18,-55
19,-27,3,17,63,1,29,51
-16,-14,-4,-18,-66,15,-4,-23
14,-4,-4,4,10,-7,6,11
-8,-6,9,30,27,24,37,30
2,18,-13,-31,-57,-32,1,-28
3,-9,-2,-3,-3,-19,-13,-5
-5,-21,-4,3,3,33,18,30
-9,-4,-2,-21,-31,-3,-16,-38
-1,-22,-5,6,40,9,18,7
-26,-9,-1,-3,18,-21,-61,-48
-12,-14,1,9,-14,-7,55,46
-1,29,-1,4,21,-3,1,-53
-9,-8,1,-23,-42,-3,-22,-17
14,-58,1,22,48,-1,9,23
-30,-49,-9,-16,-2,-7,-15,-30
9,52,0,-16,-41,-10,4,37
6,-5,-3,-10,-16,-32,1,-35
-33,-42,-2,32,66,32,-23,22
-11,-6,-3,-13,-56,-1,-5,-49
23,-7,-2,-10,-18,6,5,-24
6,2,4,23,48,-7,-24,1
3,30,0,-24,-65,-23,17,-1
4,-31,-1,22,64,16,-11,5
-4,0,-5,-28,-52,0,-2,-27
-1,-6,6,29,96,30,6,61
35,38,-9,-59,-105,-27,5,9
-8,-11,6,13,37,-7,-11,-14
14,1,0,18,32,3,9,10
2,-9,0,-5,-13,-14,0,-20
-17,11,6,13,6,9,14,18
-20,-2,3,4,5,2,5,-17
4,4,3,-1,-41,-20,-22,27
-6,24,1,-2,15,25,5,-20
-3,-23,1,10,10,-19,-10,-27
-9,2,-1,5,18,-1,-10,11
-20,-17,-3,11,-10,-4,-12,17
17,48,10,20,36,2,21,27
-2,-29,-11,-57,-81,5,12,-20
4,22,2,-4,-1,-3,-30,-6
12,-6,2,18,36,-6,24,21
4,-17,-13,-29,-43,-11,-4,-15
-6,-10,4,35,61,25,-4,-6
1,-4,2,7,-1,-15,-23,-28
-18,25,-6,-37,-42,-12,-5,-10
-25,-30,-3,-3,-84,-15,1,-64
11,36,5,22,67,48,10,8
16,-9,-9,-15,35,2,12,53
12,-23,5,10,-40,0,-5,-7
-25,-47,-7,-1,34,8,6,0
-7,-3,-12,-1,-8,-26,-11,-14
3,31,9,-15,-58,3,-7,-20
-2,-38,0,10,27,8,8,15
-25,-13,-7,-17,-6,7,-4,18
12,-24,-1,4,8,-11,-11,-32
12,28,0,-2,6,-2,-1,-5
11,-29,-1,1,-13,-4,-9,12
-1,36,5,12,0,10,-14,-1
2,-8,-5,-10,29,14,54,20
-6,-6,-8,-22,-3,7,-1,-32
3,28,2,2,-13,-7,4,18
3,-30,-2,-14,-5,0,-14,5
-26,2,-2,13,48,-19,-4,1
-3,-5,-8,-15,-97,2,-14,-10
-22,-16,-2,-6,30,30,8,-7
34,27,-1,8,-3,-15,-5,-56
-9,23,6,8,0,-3,-9,-3
27,0,4,16,29,-6,12,5
-4,-15,-5,1,10,1,7,16
-6,6,-1,-21,-43,-5,-4,-12
-3,36,2,-2,11,-4,-11,-34
11,-13,2,5,5,11,29,-30
-22,-12,-8,-6,-18,9,-27,51
14,11,1,23,28,1,21,23
-30,-29,-2,-19,-8,-4,-10,-13
-5,34,6,19,36,-25,10,33
-10,-27,-3,-3,-1,-9,-22,-87
-8,31,-10,-27,-48,-17,-10,24
-4,-6,-6,-34,-82,5,14,3
-10,16,6,18,96,8,-22,-17
-4,-28,-4,-5,-35,-12,43,16
-25,30,-6,3,46,17,-10,-61
51,2,2,34,30,-15,-39,36
1,-9,-11,-49,-50,13,41,21
-19,-52,5,11,21,-10,-3,-24
13,3,3,18,30,3,18,9
-18,5,-6,-30,-57,9,-6,5
-9,-24,-9,12,7,-1,-37,2
10,54,11,21,25,4,2,-5
-6,-17,-10,-13,-27,-5,-12,-3
-1,-16,4,33,74,-1,8,60
-6,-30,-10,-31,-89,-11,22,12
3,12,-1,8,47,-4,-32,-17
4,-3,0,-3,-16,0,-3,-7
-13,-17,-1,-8,-8,-18,-7,13
-10,15,7,37,60,-7,-21,17
0,45,-11,-50,-62,-21,-11,50
10,-23,3,7,11,34,7,-16
16,-22,-1,1,-9,1,-8,-35
-3,-2,2,5,12,-3,1,-8
27,-20,3,47,103,13,-2,-17
-17,10,-3,-45,-104,0,16,22
3,18,-2,-10,-21,-13,-8,-7
-7,-7,1,11,16,15,-7,2
11,5,3,13,18,-9,-1,-21
16,1,-7,-14,8,-8,0,11
4,27,9,9,-9,6,16,-17
-1,12,-1,-8,4,2,6,-21
-17,14,2,19,29,-4,13,5
10,-34,-2,-26,-64,-19,-10,17
-18,13,0,2,5,-4,-8,10
-2,-18,-4,3,-9,6,10,2
1,-18,-7,-27,-12,12,4,15
-4,36,5,25,54,-14,-10,-16
-3,10,0,6,-28,6,1,10
17,-27,-1,-7,-37,5,43,50
-24,46,-1,11,52,15,-13,-34
-16,-28,2,17,-7,-29,-1,2
10,-4,-6,-40,-49,-8,-4,11
-5,-8,-6,9,19,-21,-18,-11
-10,-18,-2,-6,-23,14,-8,-16
7,31,5,25,107,15,-4,40
-25,-26,-4,-1,-65,2,17,-46
9,15,-1,-8,-11,-8,-8,59
20,27,6,9,4,4,-4,25
5,-41,-5,-1,-2,14,7,-24
-1,-5,1,21,46,-6,-26,-1
-2,35,-3,-7,11,10,6,-36
-10,-33,-10,-27,-76,-29,-37,-8
16,40,6,23,56,18,38,3
-3,-7,-6,-8,-17,13,9,16
-28,-28,-9,-26,-49,-35,-32,-74
20,-10,-8,2,17,-2,-4,23
-12,-24,-5,-25,-38,-16,-35,6
-25,-17,-1,9,30,7,27,-41
16,52,8,16,33,7,-18,-71
-22,-58,-5,-15,-43,-6,9,10
13,49,-1,-26,-8,0,-38,17
20,31,2,11,30,7,30,28
-23,-62,6,7,37,3,-16,-21
7,48,13,32,-23,-9,23,22
1,-27,-4,-11,-46,16,6,-34
-16,-1,0,-6,10,4,5,-4
19,5,-1,5,13,20,4,34
13,-14,0,5,13,-12,-12,-17
-11,-48,2,14,16,3,15,55
-17,37,-3,-1,16,-20,-23,-93
7,-22,-8,-34,-64,9,20,-18
-3,-11,-3,-6,17,-3,3,9
21,16,1,12,13,8,20,25
-17,-15,-3,-12,-36,-16,-49,-16
-19,-42,-7,13,25,-3,12,-24
11,26,6,9,11,4,5,-21
1,17,1,7,39,-6,10,-20
27,-23,-6,-14,-53,-7,-1,39
-32,28,6,4,-16,-19,-23,11
20,-11,0,0,-1,22,12,17
-45,-31,-4,-3,4,-21,-28,-82
35,-8,-1,15,42,12,21,56
13,-11,-3,-19,-49,-6,-10,27
17,21,-3,7,23,-14,14,6
17,9,-1,-2,-6,26,-7,-39
-13,-12,2,-12,-5,-8,3,21
9,37,2,14,56,12,11,23
6,37,-5,-24,-39,3,-34,-26
-24,-25,-4,-18,-35,-18,23,33
13,-6,4,7,-16,0,13,-6
1,7,-5,9,22,5,-14,10
-16,-15,-2,-7,32,25,2,-6
-7,-33,0,24,8,7,23,22
41,55,-1,-13,-15,0,2,-1
-7,-17,5,24,11,-7,10,-19
-17,-11,-6,-48,-27,-6,6,-37
35,56,6,20,8,-1,8,23
-26,-23,0,-1,-11,0,-6,18
-8,0,-1,10,68,18,-2,-3
-15,27,7,8,-51,-5,-10,-12
5,8,-3,-27,5,-14,-22,-2
0,18,2,-6,-10,-20,11,-19
13,28,-2,3,17,36,1,1
-13,-45,-4,1,-14,-18,9,5
-18,-5,-3,-15,-17,-6,-21,1
-9,0,0,16,32,-8,0,-14
-3,10,4,-9,-48,-5,-3,-3
5,6,-5,-25,-3,-20,10,29
11,9,-4,0,-14,-5,-1,6
0,19,7,26,31,0,-18,-4
-3,-72,-16,-43,-42,-14,-25,-1
-12,70,0,15,60,26,14,4
