17,-2,-35,12,7,6,-33,6
-7,-15,-93,-22,4,5,14,11
1,2,44,-12,-15,-15,-4,-17
21,-32,-100,6,14,13,15,27
-36,6,-66,5,-2,-5,-12,-9
-12,9,-58,-11,-9,-5,6,-3
16,33,-44,2,11,12,3,19
-9,-6,9,22,23,19,3,13
33,20,-83,0,-5,-9,-1,-7
10,-4,-48,11,18,20,12,33
0,-42,52,39,11,3,4,-4
11,-13,-54,-21,1,4,2,4
3,-36,-57,-31,-3,-2,1,-3
4,23,114,30,-1,-5,-2,0
6,60,30,-22,-19,-13,-9,-7
10,-16,-106,28,15,11,3,10
11,44,81,-1,4,0,2,0
15,-42,-42,-13,1,2,3,10
-23,7,-70,-14,-11,-6,-7,-11
-18,-42,-10,11,-9,-12,-10,-13
1,46,127,20,19,16,9,16
-7,40,79,-2,-3,-1,-1,-1
7,23,-63,-6,1,-3,-2,-5
-7,23,27,14,-10,-13,-8,-7
-8,-46,-78,48,13,9,9,13
21,27,-6,-11,-11,-7,-8,-9
1,-36,-51,18,4,4,4,3
-16,4,-48,-58,-18,-13,-9,-19
-4,17,66,27,1,-2,-4,0
5,-59,-88,-46,-20,-8,-1,-10
-34,31,64,22,3,-5,-5,-11
4,30,-56,-24,-5,1,-1,7
-6,36,6,2,-9,-6,-2,-14
8,-62,-97,-29,-2,2,4,5
-25,63,72,9,5,2,-6,-1
33,-22,17,-25,1,10,12,19
-9,9,3,-9,-18,-17,-8,-13
18,-24,-46,-36,0,3,4,0
-12,73,89,-41,-13,-12,-7,-15
-10,-2,4,30,5,-1,-6,-4
5,3,21,58,5,4,2,10
-12,-25,-79,-34,-4,-3,3,-5
4,-55,-53,-9,6,8,8,11
5,2,118,-29,-19,-14,-7,-10
-4,-41,-85,-54,-7,0,3,-6
12,51,-38,60,21,12,-1,17
22,-4,-64,0,5,1,4,2
22,-19,-56,25,13,16,7,18
7,2,-30,-12,11,11,5,10
-31,35,65,-90,-26,-15,-8,-14
12,-91,-90,76,20,7,3,5
-3,30,-17,66,13,6,-1,2
2,-108,-95,-72,-37,-28,-11,-30
-48,41,5,24,0,-5,-8,-15
22,-11,126,19,-7,-8,-6,-2
-7,-14,11,-40,4,9,8,7
7,-8,103,27,5,2,-3,8
-3,60,77,54,5,-2,-6,0
2,-1,35,-17,-2,5,7,5
-1,-34,-46,17,6,5,3,3
3,-33,-17,29,6,-2,-5,-1
8,-70,27,-7,-9,-13,-5,-4
-36,-11,-94,23,18,10,6,2
-13,17,33,-23,-15,-12,-8,-10
16,-33,-76,-4,7,10,8,10
6,-15,-17,-1,5,4,6,6
-21,-17,-43,-39,-30,-22,-13,-25
-20,-52,-57,-1,12,9,6,5
-25,-2,-76,-19,-17,-16,-10,-24
-3,-60,18,-24,-1,-2,2,-3
52,50,-29,0,-6,-1,-3,9
-48,27,-31,-87,-39,-27,-15,-28
-12,99,44,41,11,-1,-7,-7
13,-22,-44,76,28,16,10,21
1,-65,-69,-13,-5,-2,2,-7
-8,-50,-33,39,-6,-10,-7,-11
1,-16,19,-26,-3,3,0,8
-7,95,42,42,2,-8,-6,-16
-23,6,-78,-44,-13,-3,-3,-3
9,50,112,40,11,2,-4,7
-5,23,63,-72,-22,-13,-2,-12
12,-42,-32,7,10,12,4,9
6,68,109,2,-13,-13,-11,-7
-12,-11,-38,34,24,17,9,11
15,22,-84,-48,-3,4,1,9
-6,-21,-88,-34,-21,-15,-8,-15
-3,-76,-39,42,15,12,4,5
-6,-10,-8,-84,-23,-10,-6,-7
-50,55,-85,-2,-23,-18,-12,-22
20,-32,-33,24,15,11,5,13
-11,3,-36,-25,-13,-12,-8,-12
34,24,52,-1,6,4,1,10
14,-5,-6,50,15,10,3,10
-7,-22,2,-66,-17,-4,1,-8
-17,-64,-19,-8,-12,-8,-6,-12
13,-17,-77,-14,-4,-6,3,-5
41,-18,60,-36,-1,0,-2,8
-24,76,4,40,-13,-21,-17,-22
22,18,87,4,15,14,9,16
-16,69,64,0,4,4,0,-3
9,-25,25,-38,-21,-7,0,0
-22,8,-95,52,9,0,-5,-9
-8,-33,-42,-26,4,6,4,4
21,22,-38,-21,-13,-11,-4,-4
-6,-33,33,63,17,10,6,5
-7,48,-45,11,-4,-5,-8,-9
35,-81,-64,-48,-6,-5,0,6
-18,-63,-60,5,-8,-7,-4,-9
-20,32,30,55,15,0,-1,-6
3,29,69,-47,-17,-7,-2,-4
8,16,88,-20,-7,-7,-3,-6
-15,56,-37,40,-1,-2,-11,-4
11,-9,-2,28,1,0,3,3
18,-45,75,-44,0,7,7,9
-18,96,-14,19,-2,-1,-4,6
8,17,15,19,-3,-9,-6,-8
-22,7,24,20,18,12,6,8
-3,61,19,-8,-14,-8,-5,-10
-5,-42,-128,31,17,13,7,6
16,-58,18,-22,-8,-3,0,0
6,-33,-59,-5,-14,-17,-7,-12
-5,-62,-23,23,16,10,6,14
-22,18,-39,-15,-22,-20,-14,-24
30,10,63,-4,11,13,10,21
8,-15,2,-53,-11,1,3,4
2,-37,31,20,16,11,6,15
12,-25,-29,-42,-10,-1,0,-3
6,5,15,1,3,0,0,-1
-14,-6,27,26,7,4,0,0
-6,44,24,-32,-15,-11,-5,-9
13,-4,1,11,12,12,7,11
-24,-43,-74,-19,-12,-8,-6,-12
-3,-47,17,-9,-2,2,-1,-2
-6,-13,0,13,4,-2,0,-2
-1,7,112,30,6,0,-2,-1
1,26,53,-20,5,7,6,7
-45,53,78,22,-16,-20,-16,-31
2,-61,-1,-34,-7,0,3,-3
-2,20,48,-28,-3,-1,-4,2
-28,-55,-3,44,19,14,9,3
19,-1,-6,31,20,18,11,23
6,-70,-27,-39,-10,-7,1,-5
-29,8,-42,36,-1,-2,2,-7
0,-79,-78,-37,-4,-4,5,-1
-30,60,-53,-24,-33,-31,-24,-36
12,-22,-128,17,9,8,4,4
-3,-1,83,49,12,5,-5,4
-4,-27,-45,9,-7,-5,1,-7
35,-62,-108,12,25,21,16,28
-32,-65,83,8,-1,0,-6,-6
-18,44,8,-46,-18,-15,-6,-16
24,100,32,86,27,15,1,18
26,-24,19,-33,-8,0,2,5
-18,-34,110,3,3,2,0,1
1,60,-53,13,-6,-5,-7,-2
23,10,79,-72,-11,-1,2,3
-41,-8,41,-21,-3,-2,-2,-11
35,16,30,16,0,-3,-1,6
7,-61,-31,15,5,2,0,-1
-6,36,-32,-17,-5,-3,1,5
4,-33,34,5,12,13,8,8
46,0,50,-37,-6,-5,0,5
-11,-30,-25,-25,-22,-18,-8,-14
2,3,39,3,2,5,-1,4
11,64,25,-29,-4,-2,3,-8
-9,52,21,56,17,3,-15,32
16,-45,-52,39,14,11,22,33
10,5,42,-6,-13,-14,-14,-45
-11,43,-92,-20,-21,-17,-11,4
10,82,-50,22,8,6,0,-4
-11,-42,-88,-15,7,12,5,6
-3,-49,10,-11,-10,-10,-5,1
-23,83,66,53,5,-4,-12,-13
-30,-30,-15,-13,-11,-6,1,-20
7,-45,22,12,21,14,6,18
-4,54,37,22,-5,-10,-4,-12
38,-51,-48,-46,-5,0,0,4
-22,83,101,-23,-5,3,0,5
-6,-4,99,1,-3,-3,-1,-10
-48,-43,49,-4,-7,-6,-7,-11
7,36,10,30,6,1,0,7
3,-96,-127,-6,-1,-1,2,-5
-10,60,43,-33,-19,-14,-8,-19
3,73,-12,-2,2,3,-5,10
25,-55,7,-11,-1,1,2,6
-16,14,-113,7,-14,-12,-4,-15
-8,0,4,27,9,4,-6,-6
-11,20,-43,-26,-18,-12,-7,-11
-8,-57,-5,34,25,16,8,11
13,12,87,-66,-35,-26,-16,-28
11,0,-14,-11,4,11,19,12
21,-57,-49,59,30,17,1,34
1,-53,-81,-42,-20,-7,1,-9
5,-47,17,7,15,11,12,9
25,-16,-14,19,-6,-13,-15,-12
9,7,29,-22,-7,3,11,8
-23,31,20,58,10,2,-4,1
-28,-18,-102,-51,-11,-2,-3,-5
16,-9,-29,-34,-11,-12,-5,-10
27,-84,-42,33,28,21,14,15
-19,92,-36,-35,-22,-16,-12,-18
29,19,9,-22,6,8,11,20
-62,21,48,26,9,5,-6,-5
12,-41,-92,-11,-13,-13,-7,-12
32,-76,86,17,17,15,13,23
-20,3,-10,13,4,7,5,-9
15,-4,-86,-28,1,4,-2,14
5,-59,-24,-6,-1,0,6,-1
-30,23,-52,45,-1,-9,-9,-6
-5,-21,-106,22,6,3,3,-2
29,15,32,10,8,10,4,11
-25,75,63,7,-5,-4,-4,-12
17,-43,-103,9,10,5,1,9
31,39,127,46,10,3,-1,9
-20,1,-81,-34,-7,-3,2,-7
13,-86,-101,-14,4,3,2,16
-3,-4,21,-48,-6,4,4,-2
-33,63,34,-22,-21,-26,-18,-29
-4,-38,29,41,10,12,7,10
-7,11,-89,-39,3,3,-1,-2
17,-98,-39,-16,-2,2,6,6
-18,6,41,4,5,1,4,2
6,-24,110,17,-5,-8,-6,0
-34,17,-14,-31,-18,-7,-4,-10
12,-2,9,47,24,16,8,14
21,22,-61,-34,-20,-14,-10,-7
-3,23,-78,5,-6,-10,7,-16
8,-58,9,43,16,5,-19,0
-32,11,34,-26,-9,-3,2,-6
-2,31,50,87,12,3,-5,3
-17,-34,-47,-16,-9,-4,0,-13
0,-19,52,-43,-33,-22,-6,-19
-10,-70,-112,-28,8,4,4,3
23,-70,-25,-6,10,12,3,10
15,-38,-44,90,27,13,6,11
-24,10,-69,-30,-7,-4,3,-6
2,33,51,40,8,4,-4,5
1,10,-4,-20,-4,2,1,0
21,-12,37,42,19,7,-14,12
9,36,48,-29,-13,-7,0,-3
23,13,89,36,10,7,3,11
-1,-9,-91,-7,1,-1,2,4
21,44,47,-63,-17,-9,-2,4
-39,-3,77,56,9,-2,-3,-9
-2,12,57,-27,-14,-15,-16,-18
21,-44,6,30,16,12,15,21
-54,-24,-115,-59,-28,-16,-12,-30
8,17,103,35,2,-10,-15,-6
-11,-43,-35,4,5,2,7,-7
9,-61,4,-40,-13,-4,-4,-9
28,-72,-44,-3,7,8,10,27
-16,-36,-103,-35,-10,-2,-2,-26
-1,69,89,14,-12,-12,-11,-7
-1,22,15,-29,-5,-1,-5,0
16,3,40,-11,3,6,9,29
-4,10,-52,-27,-27,-22,-9,-20
20,-51,-103,-18,7,8,5,15
-55,-33,-30,27,5,-1,-1,-13
-9,12,104,-6,-11,-10,-12,-17
5,-16,-68,16,6,6,7,8
-15,-85,-91,20,-7,-7,-2,-15
-6,0,-2,-31,-22,-15,-10,-7
1,36,-14,-1,4,7,-2,-8
-11,59,81,25,11,11,6,16
-30,60,74,-15,-14,-9,-2,-16
-3,-1,5,23,7,4,-6,9
12,53,68,-4,3,2,-3,-5
10,-22,-14,25,16,15,21,20
20,23,3,-18,-7,-7,-17,5
0,-36,-36,46,33,24,22,18
42,-53,-60,-69,-38,-29,-1,3
-16,-8,-34,21,10,8,-3,-16
5,-42,-5,-19,-7,0,6,-6
-25,9,27,32,-5,-12,-17,-18
3,-7,-7,41,19,9,7,8
-4,64,23,-51,-7,0,6,5
-8,40,18,-29,0,4,4,1
12,66,-13,0,-12,-11,-8,-10
20,-7,-12,-15,15,19,11,20
-5,-49,-82,39,-13,-27,-14,-17
-17,-35,-88,-4,4,11,3,5
-8,-20,-73,-22,-7,-4,-1,-7
-25,-14,16,13,-5,-3,-3,-11
25,-3,14,21,16,11,1,13
16,75,96,-36,-14,-10,-1,0
-2,-45,-60,19,7,3,7,3
-6,0,-49,-3,-9,-4,-8,-12
-2,34,16,-39,-5,-1,-1,-1
-10,-1,11,92,16,-1,1,-1
-33,72,127,-52,-50,-41,-26,-45
-16,-13,-26,-39,-7,3,2,-5
-3,-45,52,24,10,9,6,11
-3,-47,-50,-6,5,3,-1,6
-5,-10,97,43,20,12,10,17
-7,41,22,-2,-5,-8,-7,-10
16,-9,116,32,5,7,3,7
16,24,23,-60,-21,-13,-5,-7
23,-74,-108,-13,7,9,8,12
-23,54,-69,26,-4,-11,-10,-21
7,42,30,-21,-5,-2,-6,-2
-5,-11,-32,-21,0,1,11,-1
26,-18,-71,-34,-1,-1,-18,16
-12,-20,23,62,10,7,7,-2
0,-22,-52,-19,-5,-3,-5,-4
-14,-24,-74,16,-4,-9,-5,-21
-20,-43,26,-6,1,3,7,0
-37,-41,-37,13,-9,-18,-18,-26
26,-61,-60,14,3,2,6,10
-22,-13,22,-5,-3,-1,-8,-8
-13,8,20,3,1,4,5,-3
23,-48,54,-28,4,2,1,4
-27,39,31,0,-24,-24,-10,-16
15,-48,-28,-25,-5,1,-2,-2
6,-3,-64,11,9,6,2,8
16,85,57,-37,-8,-8,-3,3
6,11,53,4,-6,-1,0,6
23,47,31,-9,-2,0,2,7
-6,56,35,-4,-5,-4,-1,-5
3,15,-24,-15,3,6,2,7
8,-5,-19,5,8,7,1,7
0,38,59,27,-7,-13,-10,-3
25,16,14,-4,1,0,3,-3
-6,-43,-37,11,6,3,7,11
6,44,29,-13,-2,0,-13,-3
-20,10,-5,41,17,10,6,12
-4,12,51,2,-6,-5,4,-5
-27,-1,17,12,4,6,-2,0
-20,2,-90,3,9,5,6,-22
7,-28,-80,1,0,-1,-1,1
6,-10,-24,15,2,1,2,7
3,18,27,-53,-20,-10,-3,-11
-6,-2,-32,42,20,14,11,17
-28,1,16,-14,5,7,-4,0
13,35,2,-27,-17,-18,-12,-21
-14,-23,-23,-4,-13,-11,-8,-13
10,-2,-20,-23,-4,-1,-3,8
21,-9,-36,2,2,1,4,7
3,22,-14,-63,6,15,1,7
26,-21,72,-23,-16,-16,-6,3
3,-22,-49,-16,-1,-4,0,2
-14,29,-15,2,-8,-5,-4,-9
8,-8,82,8,3,2,-2,-2
11,-22,-95,9,6,6,0,4
11,17,47,23,13,6,10,20
15,-26,-27,-26,-3,2,14,23
-4,-14,10,85,3,-11,-19,-34
-39,47,-33,-12,-3,-4,-3,-9
-10,81,122,14,-30,-30,-22,-26
15,-11,-75,-8,10,8,6,-4
-10,-27,-63,8,-5,-5,-4,9
-6,33,-41,-42,-16,-13,-9,-16
2,-23,-47,14,14,8,2,-2
-29,41,30,34,8,1,-2,0
14,42,48,-2,-9,-7,-2,-2
30,-21,-43,20,5,-1,-3,-3
-10,-23,-9,-39,-2,6,4,9
-22,-26,33,25,-2,-7,-5,-15
6,-28,-66,-14,0,6,15,21
-3,-1,-39,18,16,16,-5,10
-30,-43,59,-6,-3,0,9,-8
27,48,-12,-39,-26,-16,-9,-11
-11,-3,-7,10,13,13,9,14
-30,62,127,-5,-3,-5,-7,-15
-4,-70,-69,-27,-7,-5,-2,-9
21,8,33,-5,-2,-1,-4,1
3,42,-42,-13,-2,2,1,-1
36,13,42,-5,9,12,7,11
-20,-2,-25,59,15,4,-1,23
-5,20,10,-31,-24,-21,-17,-30
-2,-28,70,-6,-1,3,3,3
19,-55,-88,-9,3,6,13,28
15,49,-2,8,-3,0,-2,-3
-16,-45,14,24,11,6,17,15
0,17,38,30,9,0,-27,-30
10,-19,-47,-71,-33,-24,1,-12
1,-38,-44,-20,-2,3,11,-8
8,31,38,21,12,4,-40,-1
4,-53,-93,-25,-6,5,55,27
-60,14,9,11,0,1,-10,-29
38,4,79,-8,1,2,-7,11
-19,35,-49,-15,-22,-24,-15,-38
6,-56,12,-27,4,3,1,25
-12,41,101,56,9,-1,-10,-14
13,-37,-98,-56,-12,5,23,28
-20,-4,27,57,30,18,7,19
-11,-54,96,8,-2,-6,-5,-12
-13,-51,-88,34,7,6,22,12
27,1,-12,20,1,-9,-41,-12
-26,17,-11,-48,-20,-11,10,-8
6,-3,-19,30,-1,-5,-17,-1
28,24,19,-39,-10,-3,-8,-19
-5,3,-83,-12,-4,0,9,22
-6,-45,-47,4,8,9,1,-26
5,-16,-8,2,-7,-6,-5,12
1,-24,-3,4,-1,-2,-4,9
-34,75,-2,-9,-1,2,12,-10
26,37,48,2,-11,-8,-7,-5
8,-1,-22,-1,9,9,5,3
-2,8,69,70,23,13,-7,21
1,33,127,15,-7,-10,-12,-26
21,-33,-24,27,12,14,14,27
5,-3,11,-13,-3,-2,-6,-3
8,-45,-84,25,6,5,8,11
-23,85,41,52,8,-1,-8,-8
-6,-19,-5,-17,-8,-4,-5,-5
-8,24,-18,5,6,5,3,11
-38,-42,-25,4,-1,-8,-6,-17
17,-14,-117,-40,-7,-1,2,2
-24,73,-19,-28,-3,-1,-3,-4
6,-3,-10,-37,-23,-14,-6,-16
13,-18,12,8,14,13,20,21
-29,-26,40,1,0,-8,-30,-24
37,-76,44,-28,-10,-2,10,19
-19,32,21,33,10,2,4,-2
-14,54,-2,-18,-11,-7,-8,-15
24,-27,57,-64,-19,-10,1,-21
9,0,1,61,22,12,4,11
-7,-36,-102,-66,-8,1,1,-1
19,6,99,34,1,-3,1,4
8,-50,-74,-10,2,5,7,10
20,-12,19,21,6,-2,-3,6
5,52,57,-7,-2,-2,-3,-7
-13,-15,-14,0,5,3,-1,7
6,12,12,-1,-5,0,1,4
-7,8,3,-4,1,-1,1,5
-7,49,6,55,10,0,-5,-4
19,31,61,-25,-21,-14,-7,-9
4,-11,-47,47,24,14,8,13
-16,-114,-81,-35,5,6,9,5
-8,-35,-19,-44,-18,-16,-9,-13
20,45,-37,-10,-17,-13,-12,-12
10,-37,40,13,10,7,8,11
-34,-20,13,12,-1,-1,-3,-10
-11,35,-9,-29,-22,-12,-14,-17
-3,-26,46,-53,-12,-15,-5,-4
11,27,22,-11,-5,4,2,3
20,-15,-12,-23,-4,4,0,9
-40,14,109,43,15,4,-2,-4
-7,-42,-109,18,4,0,0,-10
-38,0,36,18,2,-6,-6,-10
1,4,-79,-57,-26,-15,-8,-16
27,-32,-84,20,14,14,8,13
10,-17,15,-10,-5,-2,0,1
-14,-69,-82,-44,-16,-12,-6,-7
25,-1,-35,13,6,1,0,6
30,-97,-25,13,6,10,10,16
-20,37,72,-17,-8,-5,-7,-12
6,25,-63,48,12,3,-4,-3
1,-44,40,-84,-18,-7,-3,-2
0,17,46,5,-10,-13,-3,-10
24,-8,-68,-3,10,12,7,23
-16,11,-73,33,-1,-4,-5,-9
7,77,1,17,2,-4,-7,-6
-11,61,97,1,-5,-8,-8,-11
-3,22,2,8,1,0,-3,3
-9,-104,-63,-14,6,6,10,10
-8,24,55,24,-1,-6,-4,-2
4,-11,-26,39,9,3,0,5
6,-52,-29,-61,-6,6,7,4
9,-13,127,8,-10,-11,-10,-18
26,40,-46,17,5,8,7,13
-13,-25,-95,-42,-3,6,4,7
-9,-57,41,35,0,-7,0,-7
-14,48,-51,-3,8,8,1,7
18,-64,-41,-35,-11,0,3,5
-37,6,-37,67,19,9,0,0
-6,-50,-66,-26,-18,-18,-4,-11
11,-18,-34,-51,-11,-2,6,4
-24,24,-37,19,-1,-4,-7,-7
31,42,-8,-16,3,4,2,4
-30,65,40,68,4,-8,-11,-17
27,-7,-25,-24,-1,4,5,8
-13,-26,12,4,-3,0,1,-11
-9,-14,-37,-72,-21,-9,9,19
14,-7,3,1,1,-3,-28,-16
-21,-24,-4,-33,-11,-8,-3,-19
12,-12,-42,42,10,3,1,5
-26,61,-26,0,4,-2,1,-16
0,-12,25,-2,4,11,17,25
-2,47,-11,-10,-15,-15,-11,-11
-17,-58,-20,41,21,14,7,1
31,-24,11,-32,-18,-10,0,8
-17,-80,-128,-88,-14,-1,-12,-15
-28,63,72,17,-11,-9,-8,-15
9,-20,50,34,25,14,12,30
18,-4,44,-21,-24,-17,-8,-16
-7,23,-10,79,29,20,16,19
36,-50,96,-54,-9,-4,-3,38
-58,7,-101,10,-30,-27,-17,-49
7,-33,12,-19,9,13,4,20
13,67,118,8,-3,-4,1,-10
2,-6,-75,10,-10,-6,-3,-17
6,-5,83,0,2,2,1,10
6,50,-36,45,9,1,-9,-11
13,-13,-86,-66,-13,-4,2,4
22,19,-112,24,7,3,5,2
-5,94,23,17,6,1,-4,9
13,-39,-54,-27,-7,-1,-2,-16
-4,-13,20,37,8,4,0,8
-23,-18,-70,23,13,9,4,7
-3,57,-17,22,-5,-8,-8,-5
-12,-87,-54,-15,-14,-11,-6,-20
0,0,-33,12,4,3,5,9
4,-3,-2,13,12,5,0,5
24,-71,-46,-47,-2,8,9,10
-3,-1,-13,43,16,5,-2,5
-50,34,10,-39,-37,-36,-23,-52
-4,-3,-25,20,7,7,7,3
-5,-93,31,10,12,12,5,7
5,83,79,-105,-51,-38,-27,-33
1,-77,-50,52,22,13,7,13
-2,-51,29,7,7,7,2,4
-5,9,22,-92,-40,-23,-7,-19
14,-98,3,74,35,25,12,26
15,9,47,20,6,7,5,12
-15,26,-10,-19,-4,-3,-7,-9
-6,34,-71,-34,-20,-15,-7,-18
-1,-15,-75,16,10,12,9,8
-3,12,62,-37,-8,-3,2,4
-21,-9,-38,49,12,2,-4,-3
5,89,45,-7,3,4,0,2
-28,60,-30,62,1,-9,-7,-20
0,-31,-80,-32,-14,-9,-6,-13
-1,8,104,-28,-5,2,1,1
-3,-1,-83,-10,-5,-6,-8,-5
1,-26,46,23,5,2,-1,2
-1,-48,-12,32,26,21,17,21
-30,-43,-73,-42,-29,-18,-11,-32
18,3,124,38,3,-4,-6,-1
7,-43,-43,10,17,17,11,13
9,-30,84,-11,-9,-7,-4,-4
3,-6,-6,3,5,3,2,3
21,-43,1,0,8,6,8,16
-24,-63,-11,-28,-12,-8,-4,-14
-7,56,84,28,0,-5,-4,-4
10,11,93,77,14,4,-1,11
-13,-57,-66,-23,1,2,8,-1
17,-57,-20,-17,2,9,8,20
24,-16,23,7,-3,-7,-3,0
-7,4,-25,-40,-10,0,-2,-3
6,-114,-51,73,24,17,6,12
22,87,48,-51,-27,-17,-11,-5
-17,18,-59,28,9,4,-3,-4
20,-7,9,3,0,0,3,4
-4,58,-6,-35,-9,-4,1,1
-3,-35,-84,20,9,3,1,2
-11,5,20,-2,-1,1,-5,-1
-24,-37,47,-3,-11,-15,-5,-8
-15,-22,-35,-23,0,8,1,-2
14,71,-54,-11,4,1,-3,7
16,10,-114,-57,-24,-15,-4,-15
-17,-3,-44,4,4,2,0,-1
-14,44,78,7,1,-2,-9,-2
11,-22,38,-72,-25,-14,-8,-8
4,8,58,27,3,-1,4,2
10,31,-57,8,8,5,4,9
-4,72,15,-32,-23,-20,-11,-23
-27,-38,11,28,11,7,0,2
11,-13,-46,-3,8,9,1,12
20,47,99,-18,-7,-2,2,6
-7,-5,-80,41,12,6,2,3
-38,12,-40,-55,-25,-20,-11,-25
8,118,37,-10,-16,-12,-4,-20
48,-28,-96,-18,17,17,5,47
1,16,40,26,0,-7,-4,-4
-4,25,-50,10,-6,2,9,13
-7,-95,30,4,12,8,-1,-27
5,0,84,7,-10,-10,-2,-16
-6,-13,-29,8,1,3,-4,-6
29,33,16,25,14,5,-7,6
-9,9,-84,-15,-8,-4,1,3
-21,79,98,35,-16,-18,-18,-28
-27,-9,16,-3,0,-3,5,-6
-18,-20,47,13,13,12,7,10
-21,0,-27,-48,-8,-2,-10,0
-1,-62,-54,-3,17,9,6,9
-18,31,-22,-35,-22,-9,-10,-25
8,13,96,29,9,3,2,2
-12,-19,-10,-3,1,4,5,12
-2,-17,7,-33,-10,-4,1,2
-2,55,36,16,16,17,3,10
29,64,7,31,5,-1,6,9
-5,24,4,-15,-17,-21,-32,-26
-10,34,24,35,11,7,8,3
32,-51,3,16,1,-2,-2,15
-26,4,-22,-43,-12,-5,1,-10
-2,0,-30,57,17,14,12,24
16,41,-99,-52,-12,-6,-3,-11
-20,42,77,-26,-9,-6,-1,-8
1,-34,-46,-16,-4,3,-1,1
3,-15,8,50,17,6,8,-5
6,-23,-34,-2,0,1,-3,-8
-7,-47,-17,-10,4,3,10,10
23,15,14,44,8,0,-6,5
24,-38,-118,-80,-29,-20,-7,-15
2,-3,37,1,-4,-4,-2,-6
12,-36,9,12,11,7,6,21
-3,-44,-19,10,-3,-5,-7,-8
-4,-7,-18,3,9,7,5,8
36,-32,-3,15,1,1,-1,5
-24,-36,-64,-48,-5,0,1,-4
1,-34,-11,2,-11,-17,-15,-25
-7,-3,-15,-18,-10,-4,1,4
-11,-18,-60,-15,-5,-3,6,-2
21,-26,28,16,-2,-4,-12,2
-8,14,20,1,5,8,11,3
-12,3,6,14,3,3,4,11
-37,21,17,-10,-7,-3,-8,-20
23,25,7,25,7,-1,4,1
-2,7,-31,12,7,2,-2,3
-9,18,33,15,0,0,-1,1
11,-5,60,-35,-1,2,5,10
10,-3,-15,1,-4,-7,-5,-8
2,-26,21,-30,-7,0,2,-1
18,-9,8,17,8,16,4,10
-20,-3,-16,5,-1,-3,-7,-3
-24,-52,-14,8,-4,-7,-4,-9
-41,81,-28,30,-6,-7,-7,-15
10,-43,-56,-11,-5,-3,-1,-3
20,-5,91,26,-1,-4,-3,6
-2,19,-51,-3,-3,0,-3,-6
24,-38,43,-46,-10,-6,4,7
-6,-16,-31,1,13,10,7,16
-8,-24,-86,-21,-1,-1,-4,-9
2,40,-19,14,3,0,-1,-3
-22,14,61,-10,2,2,-2,0
-8,28,53,27,-1,-10,-4,-11
5,21,-61,-31,1,6,4,11
-12,30,0,2,4,5,4,0
-8,-19,-61,11,0,-4,-15,-4
-2,-29,-58,-22,-3,3,13,0
-33,-48,-46,27,6,4,-9,1
4,-24,23,-19,-6,-1,10,9
39,-43,-19,11,4,4,6,8
-13,42,-47,10,2,0,-4,2
-1,-38,52,24,2,-3,5,-3
15,2,-31,-11,5,7,-1,7
-7,21,-18,-15,-11,-10,-4,-12
29,-32,84,-35,5,4,-2,27
-63,8,-4,27,-8,-12,0,-46
58,12,-22,-10,-3,-1,-7,28
-16,36,114,46,6,4,3,-7
-11,56,11,17,-2,-5,-9,-16
31,36,41,-6,-12,-16,-7,20
7,-3,18,8,-1,4,20,6
-13,-23,43,-16,6,5,-19,5
4,-25,-34,-18,-2,-1,4,-2
14,-47,55,33,-3,-6,-5,19
-22,-3,-70,-13,-4,-5,5,-32
16,-24,17,-12,-7,-5,1,1
-24,-25,5,33,4,1,-4,-11
9,-2,-18,5,19,19,12,22
-16,7,-10,-49,-11,-9,-9,-11
11,-24,28,6,4,3,4,3
11,40,61,-23,-9,-8,-7,-8
-11,11,11,37,12,8,4,-3
-9,15,52,-4,-7,-9,-12,-10
-5,-69,-55,-12,6,10,5,1
-21,-24,21,-14,-7,-4,8,10
20,9,57,-4,1,5,-2,1
-10,-9,-18,1,-5,-5,-11,-4
6,36,-20,12,5,7,25,18
-25,-3,60,-3,2,-1,-19,-24
-17,26,-97,-32,-8,-9,-1,-6
2,-43,15,20,-2,-2,-7,-10
-27,18,-92,-51,-11,-4,11,19
3,-30,-33,23,4,3,-2,-2
20,33,-4,3,15,14,6,20
-1,13,41,1,-14,-13,-9,-7
-8,-26,-84,22,-2,-1,-7,-24
15,48,-3,-23,-2,0,-2,18
-19,-25,59,19,-7,-7,-6,-12
-1,-12,19,12,2,-5,-1,-9
9,13,48,-15,-8,-7,-3,-1
-8,-17,-121,11,-1,-3,5,0
2,26,35,-11,-14,-8,-9,-14
19,81,84,-9,2,3,2,22
2,3,39,37,3,-1,-6,-14
14,71,40,10,4,-2,0,-3
7,47,12,-24,-6,-2,-1,-2
3,-36,-61,24,-3,-2,2,6
-7,-2,15,11,8,6,-1,0
-11,46,70,4,4,0,-1,-2
-2,3,-1,3,-1,-6,-2,-3
4,26,12,32,14,9,5,3
-5,30,81,-25,-7,-10,-21,-6
12,-45,-42,-11,-1,5,7,7
-8,-34,-20,-25,-8,-4,-5,-4
-3,-73,-66,21,15,15,8,5
1,-2,28,44,-2,-7,3,4
-3,-7,31,-2,-11,-9,-3,-18
14,-28,-72,-3,1,3,3,16
6,-79,-53,-15,2,4,1,-2
15,40,-44,-32,-7,-3,-1,2
-44,-67,-17,3,14,11,4,7
14,3,82,25,-7,-9,-2,-13
3,-18,-56,-29,-11,-6,0,5
12,-8,0,-9,3,0,3,6
-3,-21,-50,-19,-6,-3,-6,-1
-23,10,-47,-8,8,4,-1,-2
-20,48,-18,-5,10,6,0,13
-12,-27,30,24,-19,-23,-11,-32
28,-7,-13,-5,-3,0,8,18
-6,-41,27,-30,2,6,2,3
0,20,46,33,-1,-8,-9,-13
-22,4,-75,-19,10,10,2,-1
13,-27,6,16,-1,-1,0,3
-11,-3,11,-13,-11,-12,-12,-20
-9,32,5,20,1,-2,-7,5
25,-10,-49,-46,-4,5,5,6
-15,35,13,11,-1,-6,-3,-10
22,12,-2,-11,-6,1,5,-5
-9,-37,5,-7,-1,0,-1,-5
-18,7,-68,16,12,8,-7,4
22,40,-33,-31,-27,-17,-3,-13
-26,-29,-57,-19,2,1,1,2
2,21,53,10,-6,-7,-5,-7
4,-41,-28,-13,-1,4,4,8
24,-16,106,33,16,11,0,8
-11,-1,-4,-16,-35,-35,-19,-32
4,-14,4,3,2,4,2,-9
-18,-65,-44,-34,-5,-6,0,-14
9,7,-1,27,7,2,4,19
-2,-6,-17,16,2,0,-9,5
-16,-42,-8,-11,-3,0,1,-2
19,8,4,-22,-7,-1,4,2
16,-8,-99,54,19,11,2,13
36,-39,-96,-59,-19,-8,2,-8
-9,23,7,-34,-13,-8,-9,-3
3,-8,20,23,4,2,2,0
1,4,-1,-32,-6,0,7,-3
-10,-1,17,42,28,19,8,15
33,-27,9,-5,-2,1,4,3
-30,19,-11,-28,-13,-11,-6,-5
-34,1,104,78,19,5,-7,-6
10,-42,-5,-5,-7,-3,4,-7
-19,-28,-40,-49,-16,-11,-7,-14
14,4,-15,21,3,-3,-1,14
0,-42,-45,-30,-3,2,2,3
1,66,23,-15,2,2,-5,-6
0,31,-1,62,14,6,4,5
6,-70,-60,-16,-5,-3,1,-4
-18,17,33,-20,-18,-15,-7,-18
27,80,-72,5,8,3,-2,13
-5,-77,-29,-22,-6,-4,-2,-1
-24,27,14,27,0,-1,-1,-9
5,-13,-58,-37,-13,-8,-9,-5
4,3,23,7,-1,0,1,0
11,71,-11,-20,0,-1,1,1
6,17,101,-3,-4,-7,-9,1
-33,-57,-83,-41,-18,-12,-8,-22
-11,-37,27,14,8,9,5,11
16,-1,5,17,0,-2,-3,0
6,-1,36,-5,-5,2,1,6
-14,65,68,10,7,1,-4,-5
-2,6,-14,9,-1,-1,-2,0
-7,-13,-5,-15,-3,1,3,2
-7,7,-53,-20,-1,3,-6,-8
6,-51,38,11,12,5,5,8
-33,-38,-113,28,1,1,4,-4
-35,3,122,-24,-18,-13,-10,-16
12,-39,-74,-10,7,7,11,6
1,18,-33,-22,-6,0,-4,2
11,-9,37,9,7,-1,0,11
-11,12,63,1,5,4,2,8
14,61,-6,47,3,0,2,-6
-29,-23,93,-7,-8,-3,-7,-7
3,28,-49,-17,-6,-3,0,-7
-4,77,17,32,11,4,1,7
-6,-7,-8,-47,-22,-13,-13,-18
27,-5,-118,-23,2,3,10,15
-14,35,109,35,2,1,-1,-4
-2,-12,35,16,17,16,3,13
18,56,54,17,0,-4,-5,8
6,-72,-54,-16,-7,-3,2,-4
-23,14,9,29,7,3,-7,8
29,4,-41,12,4,5,6,5
-12,-34,-5,-11,0,2,5,2
14,2,9,-2,1,2,-1,1
-15,6,-27,6,2,-2,-2,-1
26,-41,-82,-37,-2,3,-1,0
-6,14,3,6,-2,-3,10,-3
-54,8,0,14,-4,-8,-28,-16
-7,-54,9,-10,-6,-8,-2,-18
-2,7,2,-13,-13,-9,-5,-8
0,28,-13,-29,-1,1,-1,-5
13,42,53,29,7,8,10,24
7,-39,-58,-46,-15,-6,-1,-14
-1,73,-24,-9,-9,-8,-7,-8
-1,-17,42,-2,-1,-2,-3,4
-10,22,95,61,12,3,4,-2
-2,22,-51,20,-1,2,-2,3
-5,-2,-10,8,-2,-3,4,0
-3,-58,-40,2,6,8,3,6
11,102,-79,-28,-10,-11,-4,-12
4,-3,-61,-10,5,5,6,7
0,-21,18,3,-13,-11,-6,-15
-2,11,0,24,7,5,-3,8
-3,-4,-14,-14,-4,-2,2,-4
26,5,49,-9,1,1,1,7
-21,-78,30,56,28,20,9,17
30,33,38,-79,-40,-32,-18,-23
20,-34,23,16,10,7,5,7
10,-13,23,-3,3,5,5,11
-17,-22,-70,-8,-3,-3,-1,-12
-14,-15,-45,25,12,3,0,5
8,-22,-17,27,-5,-4,1,-8
-4,-26,50,18,3,1,1,0
-12,25,45,-43,-23,-17,-13,-15
-9,-1,35,11,20,18,13,11
4,30,-99,-29,-9,-8,5,-7
-20,13,-27,-7,-7,-10,-22,-12
13,-10,13,10,2,2,7,4
-2,-3,-19,10,1,1,-3,0
-18,-34,-2,6,10,8,7,2
14,-29,43,-27,-2,1,1,1
15,-30,-83,-9,4,6,0,9
-18,-63,-4,2,-7,-10,1,-8
5,13,104,-8,-7,-5,-14,-8
-21,11,-108,-33,-16,-11,1,2
-33,-14,26,12,12,8,3,-2
7,74,107,29,9,3,-7,0
24,-15,-48,0,-1,-1,3,1
5,-10,-1,26,2,4,0,3
-6,27,-3,-22,-2,0,-2,1
2,-18,-34,-3,-8,-12,-5,-11
-15,-26,-18,21,2,3,-1,2
-39,45,28,-2,2,1,0,-15
12,-31,-42,-17,4,5,0,9
-19,-8,62,42,14,9,0,1
1,13,17,-41,-12,-5,0,-2
4,9,63,23,2,-1,-1,-3
4,13,28,-7,-8,-6,2,14
-5,-37,-37,3,3,3,1,1
-4,29,15,-7,-5,-6,-7,-11
4,-15,14,1,2,5,5,5
28,76,-30,-21,-3,-9,-7,-2
-14,11,-13,2,-17,-12,0,-18
29,-35,-37,-3,6,2,-18,12
-2,2,50,-44,-11,-5,-1,-6
0,-45,-87,-11,-10,-5,4,-5
27,9,-79,-7,8,6,2,15
-1,-10,10,-8,-1,2,2,-2
16,-13,2,7,7,5,-1,8
-5,66,-2,-22,-14,-12,-10,-21
-28,7,112,-3,-6,-7,-8,-16
-7,-45,-45,-14,-6,-4,4,4
0,10,-22,-4,-2,2,0,11
-2,42,24,22,6,8,13,34
-5,15,19,35,7,6,-1,-28
25,22,45,-50,-14,-10,-4,-4
0,5,-65,30,14,8,14,6
-12,-38,30,14,0,-2,-16,-5
17,-20,-23,7,4,7,10,17
-3,9,-19,22,5,5,7,4
8,-17,15,39,2,-3,-5,-10
-9,-1,43,-12,-5,-5,2,-14
12,-2,-68,-21,-6,-2,-5,8
-14,14,-29,-11,-5,2,-3,-5
-18,-24,14,39,13,2,1,0
5,-6,53,10,-4,-4,-8,-16
-2,-43,-100,-30,-3,1,2,6
6,1,2,7,-4,-6,3,0
11,-18,34,4,-1,1,1,3
-2,-27,-29,-12,-6,-1,1,-2
-9,41,10,4,7,4,-6,18
-17,-67,82,4,-1,-5,1,-11
21,-53,57,-40,-14,-8,-11,-14
-2,5,-86,16,2,2,-1,6
9,2,-27,-24,-10,-7,-1,0
16,19,-32,6,1,-1,-3,0
3,56,-64,-23,3,3,15,8
-11,-64,-41,9,0,-2,-23,-6
30,-14,10,11,-3,-1,1,0
-9,2,39,17,6,3,10,4
-2,6,-68,-58,-11,-3,-4,-3
23,-19,62,1,0,2,7,0
-13,-28,-2,11,6,5,-2,0
-1,-15,-90,-13,3,3,-2,-6
-1,5,62,-13,-9,-6,-2,0
1,8,-31,3,4,4,7,1
-29,-6,9,0,1,-1,-4,0
9,19,62,7,1,0,-1,-7
-20,-17,-73,-14,-12,-5,-8,0
-6,39,64,-4,-2,-2,-4,-4
-15,31,9,7,-2,-3,-1,-14
4,-17,-17,5,3,2,-1,12
-29,11,11,13,-7,-14,-9,-18
-4,-3,-47,-11,-5,-6,0,-10
-3,37,50,17,13,6,3,6
-44,0,-25,-11,-8,-6,-8,-10
4,-4,50,-6,-11,-5,-11,-9
8,36,1,30,10,10,9,11
9,-14,13,-24,-2,-3,1,1
-1,-3,67,39,9,4,2,5
22,32,-100,-11,7,2,0,10
17,-76,-3,8,-1,-1,2,4
19,10,-38,-23,-15,-10,-5,-2
13,-1,-53,-20,-8,-1,3,3
13,-14,42,24,17,15,5,11
-16,-4,-34,-31,-12,-15,6,-14
6,-5,-8,23,5,2,-15,3
-5,-1,-39,-4,-5,0,9,1
-2,-3,1,10,5,-1,-1,-1
-51,19,-80,37,1,-2,-7,-12
7,58,97,-3,-11,-12,-4,-9
-4,-31,-55,-13,1,2,-3,-3
-43,23,85,41,1,-1,-4,-8
11,-20,68,8,2,-1,0,10
-11,11,32,25,3,2,2,4
-23,-45,58,-11,-4,-4,-9,-14
13,-28,-37,-16,-5,-6,4,4
0,11,-12,-14,1,3,-3,0
-1,6,14,3,2,2,4,-1
32,-3,-29,11,0,-1,-4,9
25,-9,81,-20,-13,-10,-4,-4
-5,18,64,-9,2,4,-2,-4
20,-54,-121,-26,1,1,4,7
-22,14,-19,-18,-7,-2,2,-4
-25,7,-35,-5,6,3,-3,-4
8,-10,26,1,-3,-3,-7,-8
12,25,12,-11,7,7,7,9
43,97,96,21,-1,-8,-10,-2
-23,-14,-98,-5,-11,-9,0,-12
9,47,-41,-15,0,1,15,10
-33,-44,-78,-23,-8,-9,-22,-17
16,0,71,23,8,6,9,21
-2,7,-7,-46,-12,2,0,-4
20,2,18,93,11,5,-2,3
11,-48,-89,-53,-10,-5,0,4
-26,-14,13,-2,-3,-4,-3,-26
20,16,40,-11,-6,-6,1,7
-5,-32,-27,-19,1,2,-5,-2
5,22,0,18,-5,0,1,-6
-16,42,-36,-6,-6,-4,-3,-1
12,-10,-80,31,28,21,12,20
-10,-5,22,-32,-20,-22,-10,-23
-1,-12,-32,6,1,3,6,8
7,16,-35,2,4,1,-7,12
3,-17,-47,-30,-5,-1,2,3
-7,-4,40,5,4,-1,1,1
-10,29,19,-4,-8,-6,-7,-14
-5,-93,-17,-1,9,9,8,12
14,-37,-57,-4,-5,-2,-3,3
-3,-30,-6,43,8,-2,-5,-6
6,-27,112,8,-4,-4,1,7
-13,74,-92,14,5,2,0,-8
9,50,50,-19,-9,-7,-3,-3
-6,8,-64,-59,-10,-2,-1,-9
-10,-84,-28,44,14,11,21,4
26,29,-23,-21,-7,-6,-21,6
-22,-18,95,40,-5,-9,-2,-15
-4,-46,-65,5,-2,4,6,4
5,35,16,0,8,5,5,12
16,35,76,-23,-11,-4,-4,-8
-23,-29,-66,-43,-11,-5,-2,-2
15,-36,7,2,8,7,0,4
-45,-21,1,-3,-17,-18,-14,-18
16,-30,-27,2,8,5,9,4
-5,-18,-72,28,3,-5,-11,-6
-26,36,7,-7,-7,-8,-3,-5
3,-73,-6,-35,-17,-6,-6,-10
-15,-3,-38,13,0,-5,1,-6
8,17,84,18,2,-1,-2,6
7,47,-28,-40,0,8,5,7
-7,23,37,25,12,3,-1,1
1,-33,70,27,-3,-3,3,-5
21,18,17,-11,0,-2,0,-4
-7,65,59,7,2,-1,-8,5
35,48,-58,-20,-11,-10,-5,-9
-15,-43,18,-47,-16,-4,-3,-21
6,-16,-36,16,3,5,1,6
15,44,93,1,2,-1,9,0
3,-61,-44,9,3,0,-17,0
-12,7,-39,0,-4,-4,6,3
0,-46,-61,-20,-2,4,1,-5
0,-22,-9,25,-4,-8,-7,-12
3,-9,-31,12,2,3,4,-2
13,21,-41,-38,-8,-6,-6,5
-53,-21,-26,-11,-5,-3,-6,-15
-2,-31,3,-4,3,3,1,9
-15,10,-34,18,6,0,0,-6
3,11,61,-2,-4,0,1,3
21,-48,37,13,3,4,4,4
-32,-43,0,-33,-15,-11,-11,-10
26,-1,-10,-1,8,5,6,2
-34,-14,42,16,0,-2,-4,-10
-3,32,74,27,10,5,3,7
18,10,-28,24,12,5,-1,8
-17,-7,12,-26,-7,-2,1,-6
2,-20,33,39,19,10,4,10
-4,27,-21,4,-2,-2,-4,-4
