107,78,129,74,22,28,1,-8,32,18
55,75,201,95,11,4,-12,-11,42,-8
-13,46,230,112,4,-10,-27,-30,20,-34
-68,17,211,101,-5,-27,-28,-43,-22,-55
-111,-7,122,56,-15,-30,-15,-37,-59,-71
-115,-18,37,28,-13,-28,-16,-38,-78,-75
-67,-12,1,23,9,-6,0,-42,-65,-54
0,-2,10,25,74,41,8,-19,-39,-20
22,3,17,34,71,53,12,0,-18,2
27,6,-5,29,15,17,1,0,-10,17
33,16,13,28,17,-1,-12,0,-10,39
30,-3,9,21,26,1,-11,2,-20,31
23,-32,-51,-3,16,12,15,-5,-23,93
8,-41,-36,-27,8,13,19,-7,-42,218
-18,-51,-57,-31,12,22,-3,-21,-61,212
-54,-52,-140,-39,-2,22,-33,-29,-54,-18
-105,-70,-76,-49,-25,-2,-61,-33,-4,-240
-87,-93,-55,-60,-43,-34,-55,-72,-20,-222
-80,-87,-81,-70,-46,-33,-35,-82,-62,-154
-77,-53,-148,-51,-34,-20,5,-40,-78,-104
-39,-27,-86,-7,-22,-24,13,0,-50,-53
31,-9,-19,-5,-4,-4,57,58,5,0
88,9,-10,-39,-4,18,101,113,62,52
117,19,4,-49,3,-4,16,70,65,69
158,26,5,-46,27,-7,-58,6,43,72
185,38,-19,-47,26,-14,-74,-22,28,71
182,42,1,-39,-2,-18,-39,-32,12,54
168,40,5,-45,-17,-4,-15,-10,14,58
125,15,9,-40,-6,9,-8,-6,10,49
91,6,56,-17,64,38,0,-10,13,59
80,10,71,-34,84,35,5,-10,8,90
100,-8,-10,-61,8,-5,0,-12,-17,188
120,3,-61,-61,-38,-16,-8,-19,-54,275
87,12,-54,-26,-34,1,0,-27,-91,224
14,-3,-29,-8,-17,27,15,-7,-35,28
-19,2,-10,16,-14,19,15,-1,16,-64
-63,0,16,27,-20,-8,-8,-8,32,-149
-146,-26,32,24,-31,-31,-21,-11,44,-213
-181,-31,65,44,-50,-38,-21,-27,10,-152
-180,-41,69,48,-38,-34,-19,-40,-6,-116
-188,-36,23,42,-23,-32,-17,-44,-21,-110
-171,-31,32,27,-20,-34,6,-38,-11,-79
-101,-4,28,15,-29,-34,-15,-26,13,-39
-41,14,38,22,-20,-19,-18,-26,10,-20
-11,28,52,34,30,5,11,-18,7,-3
11,38,13,32,24,7,32,-15,-3,4
6,23,-29,29,12,8,26,-8,0,18
-7,8,-44,12,15,14,2,13,14,21
10,22,-46,-7,2,8,-5,76,41,31
39,30,-23,-12,-1,4,-6,83,45,41
25,19,-17,-10,-8,11,-1,39,33,32
40,24,-40,4,6,23,6,11,29,28
48,26,19,15,52,28,24,17,34,34
43,13,19,-4,7,-3,12,14,11,28
47,0,-3,-18,-35,-6,2,10,-12,15
45,-7,-6,-28,-28,-6,35,10,-23,-8
37,-1,5,-27,-24,-5,47,11,-10,-9
29,1,29,-16,-17,-6,14,-4,-13,-10
36,23,55,-12,-15,-13,-7,-14,-13,1
23,39,68,1,8,-16,3,9,-5,3
-1,41,38,6,17,-5,9,35,7,5
-25,25,6,5,27,13,24,53,29,38
-22,21,-6,6,21,21,39,56,51,41
10,32,-3,26,29,28,46,51,60,42
15,37,22,39,28,17,38,59,42,43
11,33,71,48,10,4,44,53,22,32
-3,27,121,74,27,9,40,46,11,16
-31,32,149,73,93,18,31,33,-10,-1
-46,9,110,55,55,-2,4,7,-33,-1
-50,-7,76,40,-22,-47,-66,-42,-88,-38
-48,-1,46,25,-35,-59,-78,-79,-131,-44
-27,-7,36,5,-28,-67,-68,-104,-161,-67
2,-16,10,0,-29,-60,-53,-83,-136,-116
23,-22,-37,-32,-39,-53,-25,-10,12,-66
88,-10,-60,-61,-42,-40,-22,12,39,113
159,1,-90,-66,-47,-36,-49,-11,-7,212
187,17,-94,-75,-44,-28,-46,-2,-15,92
133,18,-92,-92,-39,1,-16,48,55,-119
55,16,-101,-88,-31,16,-6,84,107,-122
20,8,-118,-57,-15,25,-6,87,61,-48
9,-1,-138,-46,-10,33,-9,74,41,-8
-20,5,-52,-39,-4,31,-2,63,46,5
-76,2,-41,-20,5,33,1,50,29,-6
-140,-22,-18,-1,2,32,21,39,14,-21
-192,-51,-26,-7,-3,34,12,18,-8,-36
-199,-67,-32,-32,-12,13,8,-12,-34,-44
-185,-66,-18,-34,-16,0,9,-25,-66,-61
-152,-80,-26,-45,-1,17,19,-10,-76,-72
-129,-77,-37,-72,19,35,21,4,-69,-63
-70,-50,2,-53,64,62,22,9,-61,-41
29,-14,11,-33,94,78,21,29,-30,-12
141,2,-35,-33,44,61,17,36,-7,13
213,19,-97,-54,-2,36,4,32,8,62
232,23,-62,-61,-17,11,-30,35,39,82
215,18,-32,-43,5,3,-97,0,36,91
174,27,-84,-37,32,21,-118,-43,-4,165
131,46,-172,-41,39,49,-69,-47,-30,257
60,45,-158,-14,39,71,-44,-31,-45,175
-90,-9,-98,2,49,101,-23,7,14,-116
-253,-58,1,22,58,117,28,33,89,-218
-286,-54,44,45,40,88,42,31,79,-142
-270,-43,70,44,11,27,8,15,53,-106
-199,-32,74,32,-4,-15,-2,0,27,-84
-119,-1,86,44,-2,-44,-12,-3,22,-41
-73,10,117,59,29,-45,-9,11,25,-11
-59,19,85,86,10,-29,-10,19,25,-20
-42,55,79,119,20,-4,3,20,21,3
-13,81,64,137,32,18,13,5,26,28
24,94,146,134,18,14,-2,-7,16,37
48,103,224,107,12,-3,-12,-24,8,42
55,123,298,95,20,-4,21,-19,11,56
37,125,372,109,69,16,50,-3,29,76
19,108,363,111,116,17,42,31,40,107
44,93,236,79,37,-13,15,16,5,123
105,99,160,97,11,-13,-49,-65,-65,43
106,48,53,76,-5,-37,-61,-99,-85,-80
37,-47,-134,10,-51,-67,-71,-71,-64,-130
21,-98,-186,-40,-76,-82,-84,-27,-70,-73
16,-116,-162,-83,-81,-67,-60,-16,-75,8
8,-128,-224,-117,-66,-48,-40,-12,-68,134
15,-109,-206,-114,-65,-51,-37,-28,-96,164
29,-57,-167,-104,-61,-51,-43,-54,-80,-22
19,-72,-187,-115,-76,-57,-36,-39,32,-187
-46,-91,-187,-120,-74,-57,-1,-42,85,-125
-123,-75,-135,-92,-24,-20,72,-28,50,-48
-178,-56,-88,-39,25,39,149,11,28,-23
-163,-40,-30,-14,73,69,126,11,14,-6
-93,0,44,9,116,95,80,13,-5,-3
-28,24,55,13,71,69,65,10,-17,-2
11,40,32,-14,-20,23,65,12,-6,-1
78,56,15,-21,-42,22,115,55,1,17
120,62,20,0,-22,23,106,60,7,29
88,56,31,22,-1,10,48,21,7,29
91,55,11,15,-4,-8,4,-6,-6,2
127,53,-10,-1,-9,-16,-50,-30,-42,6
124,38,-55,-26,-19,-21,-67,-30,-49,33
144,22,-45,-43,-21,-5,-79,-26,-67,24
127,8,-36,-22,-13,0,-81,-30,-72,-19
33,-27,-32,-26,-18,-14,-55,0,47,-31
-45,-45,-57,-46,-31,-28,-52,29,93,-28
-76,-57,-77,-58,-34,-24,-39,21,42,-35
-85,-51,-80,-65,-8,6,-8,19,27,0
-58,-35,-84,-88,-4,25,3,35,11,120
17,-5,-72,-95,-1,17,4,35,1,239
1,23,-56,-69,22,29,1,45,6,186
-40,35,-62,-35,33,36,2,40,3,44
-25,43,18,-5,33,35,-2,10,30,21
-33,43,47,29,29,29,2,1,22,-63
-49,30,55,40,19,14,4,13,98,-233
-23,28,135,47,69,20,-6,3,121,-182
-1,31,166,62,85,8,-21,3,66,-112
-11,25,92,59,9,-6,-29,-7,16,-105
-55,-10,32,39,-21,-11,-34,-14,-8,-115
-93,-44,4,15,-22,-17,-27,6,-11,-88
-86,-44,-6,4,-13,-18,-27,0,-15,-87
-47,-53,-64,10,4,-9,-22,-4,-6,-69
-4,-33,-92,-3,18,0,-16,-4,10,-29
31,-14,-54,-20,13,4,-15,-1,20,0
43,-13,-55,-27,-9,16,2,10,40,28
51,11,-19,-38,-25,17,11,38,42,50
51,10,-18,-34,-25,20,16,50,43,58
40,2,-10,-20,-10,18,29,41,49,69
28,15,11,-5,-6,13,3,28,33,76
23,26,-32,34,14,20,-1,1,-19,150
48,43,-32,63,61,24,8,-26,-98,379
74,32,20,52,23,8,8,-27,-124,474
53,6,-28,38,-2,0,11,-16,-98,216
-5,-34,-27,11,-17,-20,9,-6,-12,-337
-9,-45,28,0,-29,-34,-10,-16,55,-391
7,-53,27,14,-35,-30,-10,1,78,-198
27,-39,44,41,-21,-31,4,-11,28,-15
51,-10,92,49,23,-14,-19,-46,-58,223
58,11,127,24,46,-11,-23,-51,-84,293
31,27,61,2,-12,-37,-46,-47,-75,-46
-53,13,34,-8,-48,-37,-20,-11,30,-437
-107,-17,30,-13,-40,-20,-16,6,94,-329
-108,-18,29,6,-17,0,11,7,75,-166
-39,8,15,27,5,7,36,13,45,-78
36,20,-66,22,20,11,42,8,27,-25
38,21,-69,17,27,26,45,-3,16,-1
39,18,29,5,4,23,57,-10,9,9
49,21,52,3,0,11,57,-12,4,26
32,26,-17,13,-9,4,30,-6,6,18
38,14,-34,-4,-18,-2,10,34,17,16
52,-4,-77,-23,-36,-10,24,106,33,29
68,-14,-63,-26,-38,-16,38,94,26,30
120,20,-19,4,30,-4,45,21,4,19
145,42,102,29,104,27,20,-21,-9,15
78,27,47,19,61,15,16,-29,-20,23
-22,14,9,3,7,1,4,-35,-21,7
-113,17,57,-16,-8,-3,-9,-17,1,-12
-136,23,64,-14,3,7,-3,7,23,-16
-122,21,84,-10,8,12,4,16,27,0
-153,13,115,15,23,9,-1,13,9,5
-206,-15,132,53,60,20,4,19,9,6
-228,-26,120,74,50,19,-7,3,4,8
-184,2,132,79,33,5,-27,-14,-13,5
-137,2,59,66,11,-6,-33,-22,12,0
-88,-24,37,47,5,-7,-21,-19,9,4
-49,-35,-4,11,-9,-9,-26,-25,-1,-4
-44,-64,-65,-39,-27,-22,1,-28,2,-10
-12,-79,-108,-86,-29,-24,7,-10,3,28
19,-62,-155,-109,-43,-22,17,13,28,64
14,-52,-155,-91,-46,-11,39,16,0,42
29,-44,-99,-53,-42,-16,22,-24,-79,14
38,-27,-59,-36,-37,-30,8,-57,-118,-2
70,8,-41,-10,-22,-32,-1,-63,-136,-35
92,-10,-70,-25,-27,-32,-1,-22,-48,-1
107,-38,-102,-79,-37,-36,0,27,61,133
140,-14,-62,-75,15,-18,-1,25,26,192
166,22,-34,-54,20,-10,-17,0,-26,80
166,9,-71,-67,-47,-27,-48,1,-5,-117
193,13,-68,-55,-58,-27,-57,-16,-12,-81
196,21,-34,-32,-40,-24,-62,-50,-76,118
143,18,-25,-21,-33,-17,-52,-59,-129,234
25,-11,-37,-36,-30,-19,-42,-26,-102,213
-92,-50,-43,-56,-13,-14,-4,31,20,15
-147,-36,-39,-46,-16,-6,-3,26,44,-201
-199,-48,-39,-31,-26,-3,23,8,30,-320
-215,-46,-31,-3,-9,-5,19,-17,-29,-207
-184,-34,-7,28,-21,-11,11,-40,-97,-86
-174,-10,37,55,-15,-8,13,-56,-136,-113
-274,-18,30,23,-11,4,38,-14,7,-186
-327,-30,19,-4,1,16,66,47,167,-100
-247,-15,47,14,49,31,48,39,135,29
-95,41,41,46,32,48,19,14,21,19
-12,53,27,43,24,53,40,34,26,-11
-14,-4,-29,4,-8,35,68,51,82,-2
37,-21,-107,-18,-20,24,60,44,98,72
61,-1,-139,-10,-6,9,38,53,109,113
98,15,-28,-3,-9,9,10,53,104,113
189,37,36,-24,11,18,2,31,73,97
224,65,71,-15,16,11,-18,-20,12,56
229,73,41,-8,-48,-22,-29,-49,-20,25
212,50,16,-26,-55,-42,-31,-45,-28,5
206,45,16,-24,-44,-32,-33,-40,-21,-14
166,42,21,-9,-34,-21,-51,-32,-10,-24
87,17,27,-16,-25,-20,-61,-18,-4,-33
16,17,43,-10,-12,-12,-58,-30,-12,-32
-29,38,69,12,0,-4,-39,-34,-13,-1
-47,37,32,43,3,2,-41,-36,-46,47
-31,40,-60,58,33,12,-28,-34,-100,138
-13,64,-89,74,56,24,-21,-23,-137,149
13,89,-6,106,73,37,-23,-36,-178,-19
30,41,43,64,34,2,-50,-21,-37,-153
52,-4,4,-2,-13,-35,-50,2,109,-109
103,0,7,-12,21,-16,-28,10,106,-31
80,2,19,-14,56,11,18,33,70,2
-14,2,-12,-38,9,7,50,58,49,-3
-108,0,-38,-67,-39,8,54,50,56,-9
-168,-5,-31,-49,-41,7,56,33,64,5
-219,-33,-58,-32,-21,-1,57,32,70,24
-283,-65,-143,-39,-14,1,51,36,54,10
-276,-81,-65,-38,-25,0,42,34,42,0
-198,-68,6,-23,-42,-1,31,28,29,5
-120,-54,-35,-19,-57,-14,3,6,6,-16
-20,-36,23,3,-52,-5,17,-4,7,7
4,-30,42,36,-25,1,47,3,17,43
-21,-9,46,50,3,4,43,-13,0,9
-65,-24,54,63,32,17,40,-24,-20,-22
-59,-4,72,85,57,36,56,8,-10,-5
-5,27,95,100,79,37,55,21,-1,23
15,34,72,82,64,12,2,13,19,15
23,30,46,66,35,6,-33,13,26,12
41,37,48,62,22,-7,-49,-4,9,-8
50,55,57,58,4,6,-44,-19,-13,-28
33,66,88,56,-1,12,-34,-11,-29,-51
38,78,96,53,-3,1,-36,3,-22,-46
27,42,100,37,13,0,-15,34,-4,-34
3,2,138,22,67,20,15,52,8,-43
1,8,89,10,46,7,2,-4,-28,-51
10,21,-84,7,-22,-18,-3,-39,-62,-58
15,24,-113,-15,-40,-13,3,-27,-60,-41
27,24,-31,-11,-34,2,27,-16,-53,-28
4,10,-33,16,-9,22,48,-15,-44,-6
-22,-4,-10,30,14,44,43,-10,-37,4
9,8,19,48,34,59,25,-2,-25,16
65,29,40,57,16,56,-3,26,-10,42
95,45,75,59,10,51,-12,54,-19,66
96,40,92,49,10,47,-16,26,-47,64
88,26,84,43,10,42,-10,-32,-99,28
56,-6,55,4,-2,19,0,-44,-70,-4
11,-61,-20,-56,-52,-5,-2,5,36,-16
-16,-77,-46,-61,-49,-11,-25,29,42,-28
-18,-88,-47,-55,-31,-17,-32,27,-1,-28
-6,-70,-73,-48,-59,-20,8,39,-37,-43
25,-35,-94,-39,-45,0,51,59,-59,-49
69,-9,-128,-21,-15,16,33,34,-64,-32
124,13,-49,-2,4,17,-3,6,-53,-5
157,19,18,9,7,9,-28,-13,-35,12
135,-3,41,4,8,-4,-16,-27,-25,21
95,5,126,36,64,7,-9,-39,-3,14
54,33,183,49,57,-6,-25,-61,5,0
37,50,110,44,-3,-23,-39,-65,-10,-8
46,53,59,35,-7,-25,-65,-53,-7,13
44,43,1,4,-13,-10,-45,-43,19,5
23,30,-44,-7,-18,-5,-35,-39,11,-27
22,6,-60,-16,-19,-1,-8,-24,-30,-52
51,-28,-54,-22,-2,23,31,0,-86,-14
62,-45,-26,-17,23,38,32,0,-120,-19
113,-29,-29,-42,8,29,17,-20,-111,-33
172,-33,-64,-69,-17,16,13,-21,-73,-22
159,-57,-119,-84,-31,18,31,1,-74,-29
117,-82,-212,-75,-42,27,60,-1,-143,-79
99,-74,-174,-58,-44,6,25,-21,-207,-86
8,-65,-103,-40,-16,-4,0,-27,-252,-74
-42,-53,-39,-17,64,36,44,-13,-259,-43
-55,-75,-44,-14,88,67,64,3,-229,-62
-117,-117,-105,-23,32,34,30,6,-196,-101
-205,-137,-119,-21,-1,17,16,1,-150,-131
-280,-73,-33,26,13,16,16,-5,-84,-189
-262,-7,59,51,2,-15,-12,-22,8,-191
-195,13,85,31,-28,-40,-28,-19,34,-145
-137,83,111,32,0,-34,-29,-33,-106,-108
-112,102,96,39,42,-15,-34,-58,-233,-61
-154,49,3,44,21,-25,-48,-64,-103,-21
-140,34,-4,33,-12,-65,-78,-83,71,33
-102,-15,-31,-8,-31,-91,-107,-79,141,70
-107,-94,-135,-70,-36,-64,-61,-16,156,124
-116,-158,-182,-108,-44,-37,-33,53,67,257
-108,-142,-191,-126,-65,-34,-20,103,117,320
-91,-95,-162,-130,-54,-24,4,128,188,161
-83,-95,-160,-146,-65,-11,49,128,221,-70
-6,-83,-145,-147,-78,-14,59,104,274,-7
89,-18,-56,-83,-56,-5,49,36,228,94
118,30,19,-12,-14,14,29,-9,139,90
81,84,42,26,24,34,55,-7,9,60
41,115,59,34,22,29,62,-27,-126,34
-19,85,82,24,23,25,46,-28,-51,0
-48,48,109,19,61,25,33,32,211,26
-48,21,96,19,38,11,11,53,358,91
-25,44,95,50,14,7,0,46,339,132
9,93,144,115,55,14,-10,26,250,149
0,70,135,120,69,27,-6,5,199,98
20,43,98,98,67,36,0,-13,167,41
61,43,71,70,48,37,14,-4,71,52
117,67,78,47,51,20,10,-2,-108,69
105,54,61,42,32,3,-23,-26,-201,25
92,30,47,21,18,14,-40,-35,-207,103
153,45,56,13,-4,1,-45,-38,-204,382
184,71,66,25,-25,-32,-51,-54,-188,645
150,71,62,23,-30,-38,-74,-46,-127,520
103,34,39,0,-23,-21,-49,-36,-39,89
32,20,57,30,18,37,3,-13,2,-558
0,10,-10,45,39,67,42,62,129,-631
29,-3,-45,31,33,61,40,56,28,-417
66,16,19,36,43,57,22,-10,-228,-302
48,37,-57,23,23,40,8,-24,-318,-265
14,38,-105,0,-5,15,25,11,-243,-254
-80,-5,-19,-26,-17,8,64,45,-192,-270
-216,-81,-8,-48,-16,-3,66,18,-211,-309
-243,-86,53,-51,29,-8,45,-10,-127,-257
-165,-49,83,-41,18,-31,-2,-29,-1,-149
-115,-32,41,-13,-49,-60,-7,-22,112,-91
-172,-75,6,0,-62,-67,20,-6,190,-78
-172,-83,-59,-39,-67,-46,6,-1,111,-80
-93,-71,-194,-77,-49,-23,3,-1,-57,-17
-39,-22,-232,-76,-31,-12,23,30,-37,55
38,-2,-211,-77,-41,-19,29,66,144,144
80,4,-212,-52,-39,-14,25,81,371,226
45,23,-72,7,0,2,23,28,435,286
60,50,89,63,49,33,26,-12,404,375
136,100,115,111,81,60,44,10,321,432
111,115,161,126,85,60,78,30,57,242
50,90,157,89,61,31,65,40,-68,38
23,46,109,56,25,-16,30,41,-84,41
-17,-29,37,-4,-16,-44,-4,-4,-182,23
-2,-33,52,-23,-52,-71,-64,-79,-189,1
-18,-35,45,-30,-83,-93,-85,-101,-106,15
-82,-89,-13,-71,-100,-81,-85,-109,-117,-38
-138,-149,-68,-108,-108,-88,-59,-25,-27,-149
-163,-175,-91,-123,-136,-109,-36,92,203,-144
-143,-152,-89,-124,-113,-100,-32,97,176,-97
-1,-71,4,-61,-21,-46,-3,39,6,-3
118,24,101,25,71,14,1,3,-82,63
72,12,5,-5,19,-10,-26,-46,-175,25
6,-29,-59,-48,-17,-41,-41,-104,-265,-80
-29,-23,-74,-78,-26,-36,-19,-57,-108,-125
-59,-35,-53,-63,-16,-21,18,28,227,-91
-51,-61,-48,-50,-5,6,50,86,584,-3
61,-30,-1,-5,42,17,57,125,708,206
170,62,87,68,98,35,32,51,288,320
193,148,148,138,112,25,-24,-108,-201,293
162,156,145,120,84,1,-45,-183,-373,215
62,61,48,21,5,-10,-23,-141,-278,214
-46,-51,-56,-68,-57,-5,4,-51,-64,157
-118,-101,-90,-100,-79,9,7,4,62,-57
-123,-103,-83,-103,-78,6,4,18,78,-249
-138,-102,-60,-95,-16,19,21,65,31,-244
-176,-100,-20,-54,68,62,61,135,24,-219
-126,-87,-28,-22,54,75,74,164,24,-154
-38,-17,1,47,49,53,5,55,-213,-125
-28,34,78,129,85,40,-81,-78,-552,-215
-60,28,86,119,52,21,-83,-118,-700,-290
-79,-9,51,56,-9,-3,-60,-75,-531,-312
-46,10,59,41,-3,12,-12,3,-373,-285
-12,47,108,68,25,31,1,-13,-365,-276
4,56,113,59,7,-2,-61,-54,-242,-257
33,31,8,-10,-32,-42,-69,-18,-9,-121
2,-26,-68,-84,-96,-65,-51,39,170,-41
-89,-90,-36,-131,-115,-49,-50,88,331,-100
-131,-123,-47,-156,-94,34,72,109,187,-135
-96,-104,-27,-145,-48,115,191,69,-264,-169
-109,-116,-46,-130,-8,105,156,24,-307,-262
-124,-110,-119,-127,-46,-24,-3,-60,-193,-257
-45,-31,-84,-91,-64,-150,-161,-170,-216,-196
134,45,-100,-103,-81,-204,-196,-150,-162,-102
277,12,-273,-157,-129,-158,-134,-57,-49,-83
392,37,-237,-99,-97,-124,-155,-121,28,73
558,141,14,7,-22,-109,-176,-268,-65,504
637,183,148,49,7,-122,-210,-276,17,780
482,100,167,20,21,-80,-165,-174,367,430
255,20,80,-48,0,13,12,-39,616,-90
242,77,31,-22,-15,122,187,-7,266,-61
148,109,44,18,22,260,364,36,-101,-51
-93,-4,-26,-35,12,271,388,161,-147,-96
-232,-88,-151,-118,-50,68,173,187,-221,-71
-86,-147,-230,-186,-130,-103,-23,83,-517,-171
216,-176,-272,-261,-203,-198,-135,-43,-612,-238
421,-142,-272,-267,-239,-240,-163,-82,-442,-211
558,-60,-151,-161,-169,-193,-181,-88,21,-150
814,64,-28,-50,-70,-150,-208,-81,486,8
820,194,119,56,23,-86,-159,15,789,128
266,291,280,209,146,85,-7,71,735,252
-590,303,398,349,291,271,164,67,-35,134
-1146,155,351,363,340,315,196,40,-338,-159
-1351,-95,246,238,315,298,196,110,-33,-269
-1253,-226,107,96,169,175,195,220,429,-100
-905,-191,20,29,54,91,149,241,434,82
-533,-119,-13,-14,19,90,150,179,131,204
-473,-175,-113,-74,-12,103,201,160,139,195
-535,-272,-251,-136,-52,73,178,194,212,27
-312,-216,-300,-166,-97,3,97,164,426,122
80,-47,-217,-124,-53,-55,-82,-32,571,311
422,113,-38,-56,-44,-88,-164,-119,673,452
687,266,129,36,-40,-87,-100,-57,712,695
967,349,234,122,2,-59,-55,-43,390,657
1124,403,316,194,12,-112,-155,-71,101,522
825,319,262,194,-19,-95,-137,-106,-16,431
218,170,201,186,23,30,-8,-34,-77,246
-203,50,176,213,96,92,-12,-32,-164,48
-399,-34,177,243,121,112,30,29,-143,29
-519,-47,190,248,124,108,89,151,-76,41
-400,32,237,314,179,102,57,134,-43,86
-495,7,185,276,166,96,9,-23,-89,39
-681,-79,73,171,108,114,34,-82,-158,-85
-682,-142,13,121,84,155,95,-104,-335,-257
-490,-108,50,124,57,149,112,-97,-406,-259
-282,-16,133,111,68,124,131,48,81,-123
-114,13,171,56,89,136,172,173,349,40
17,38,140,55,88,171,244,227,106,201
71,96,123,98,87,148,234,170,-444,146
64,102,93,91,41,-11,75,77,-593,91
81,46,-21,-10,-62,-126,-67,-58,-273,184
85,-48,-156,-88,-117,-133,-158,-148,117,217
55,-73,-206,-96,-102,-66,-86,-40,217,61
38,-87,-152,-102,-82,-1,51,98,74,-146
48,-100,-147,-108,-88,10,76,148,23,-221
26,-48,-77,-33,-47,-36,-31,63,191,-196
26,-14,-21,26,-30,-56,-61,103,314,-131
80,-35,-101,-22,-50,-10,67,162,-111,-134
91,-80,-154,-102,-89,9,183,173,-224,-115
145,27,-24,-1,-21,11,156,35,-245,-97
151,117,29,112,96,44,91,-128,-492,-176
91,63,-86,81,72,46,56,-143,-380,-199
146,24,-41,37,7,25,37,-66,245,117
194,30,-6,25,11,58,80,-46,344,383
234,83,38,41,29,58,32,-119,46,372
132,13,-22,-35,-42,0,-29,-77,203,265
21,-68,-90,-94,-75,-16,-2,13,440,249
36,-32,-47,-24,-1,5,69,110,521,209
104,36,81,84,118,34,112,159,459,12
241,145,209,170,143,-13,47,52,383,-26
307,222,255,201,88,-72,-27,-77,180,182
222,171,215,160,48,-93,-37,-116,-38,259
229,196,234,176,60,-99,-82,-145,-195,235
193,176,205,144,47,-84,-43,-88,-262,26
85,78,100,25,-25,-89,43,58,-46,-176
-4,-28,-10,-83,-89,-78,89,127,109,-187
-13,-47,-134,-97,-101,-52,66,79,153,-192
59,10,-145,-69,-76,-76,-8,39,239,-53
110,23,-111,-69,-41,-44,43,94,146,135
157,43,-74,-18,17,-14,39,63,-156,176
124,26,-69,-8,16,-82,-129,1,-76,58
-45,-73,-234,-93,-16,-128,-210,-19,25,1
-144,-129,-281,-149,-23,-104,-230,-162,-340,142
-46,-114,-170,-165,8,-77,-227,-202,-497,215
-10,-182,-192,-181,-56,-81,-160,-74,-367,-73
-182,-298,-323,-241,-136,-85,-95,112,-54,-646
-235,-309,-364,-275,-175,0,50,202,41,-721
-129,-213,-239,-222,-155,48,134,169,3,-572
-30,-89,-137,-158,-118,-12,194,132,53,-425
-3,-56,-146,-173,-130,-48,215,100,-165,-347
-10,-45,-111,-156,-83,-61,67,65,-317,-333
34,37,-19,-57,-14,-49,-14,-14,-426,-296
86,78,11,-28,-4,-49,-49,-102,-120,-114
125,122,60,6,16,-29,-93,-221,-360,-77
-86,-60,-113,-142,-103,-12,9,-160,-731,-369
-267,-243,-279,-243,-185,-30,59,-68,-835,-594
-141,-140,-208,-157,-121,-80,-56,-133,-764,-470
-82,-68,-221,-86,-56,-74,-84,-174,-591,-375
-113,-129,-216,-120,-71,-82,-22,-9,25,-239
-47,-123,-152,-137,-100,-87,58,174,658,23
159,71,-1,-22,-19,-78,-6,74,509,415
273,189,126,81,60,-80,-134,-87,164,617
146,108,67,33,20,-125,-200,-83,312,487
53,4,4,-16,-5,-115,-187,-48,572,333
140,41,77,70,89,46,-2,-27,581,365
203,157,184,131,179,146,139,75,628,410
270,278,272,168,215,168,166,210,773,502
212,208,175,117,143,154,175,247,543,485
151,126,85,54,62,124,70,176,386,409
199,155,82,35,40,80,-41,12,314,336
148,140,44,15,3,23,-52,-48,192,236
79,115,56,26,7,10,-44,7,189,162
24,41,15,-5,18,72,32,49,-185,-52
-157,-56,-53,-23,28,113,106,118,-352,-307
-282,-113,-149,2,27,61,123,254,-19,-317
-349,-148,-107,49,67,62,160,380,455,-280
-129,-20,91,82,85,90,174,382,722,-51
163,224,277,143,90,57,63,199,379,119
215,288,317,207,143,96,27,-92,-315,14
175,226,245,181,154,133,38,-244,-429,16
58,167,164,113,103,84,-3,-274,-342,13
11,99,88,66,68,47,33,-169,-427,-42
-121,14,22,73,85,51,5,-55,-291,-81
-22,89,64,121,114,52,-44,-171,-375,-42
243,203,57,137,80,16,-105,-318,-330,219
223,245,94,183,80,-4,-106,-213,102,424
140,231,205,187,81,-13,-83,-112,297,385
120,204,278,136,69,19,-46,-160,14,120
77,146,287,114,100,65,-6,-153,22,-23
23,32,167,51,20,10,32,5,328,44
-6,-31,87,22,-34,-35,37,20,253,43
30,15,107,56,-29,-48,-48,-96,50,93
52,82,129,84,-24,-52,-105,-95,-79,151
19,51,39,9,-62,-88,-86,0,41,132
-3,-13,-60,-101,-135,-157,-56,148,280,124
-92,-91,-140,-182,-113,-66,17,99,-4,-66
-105,-104,-186,-173,-75,23,47,-64,-208,-178
-75,-75,-179,-145,-51,35,48,-62,-78,-72
-11,-57,-170,-152,-51,13,39,14,139,173
103,33,-34,-54,-2,1,-1,4,89,253
185,131,115,62,41,-21,-61,-38,217,144
86,59,71,43,12,-58,-101,-119,34,-34
-80,-97,-105,-94,-48,-50,-9,-60,-227,-160
-230,-178,-178,-171,-32,-1,102,46,-177,-241
-230,-149,-173,-149,-59,10,133,112,-116,-259
-178,-108,-152,-111,-66,-16,40,18,-79,-206
-194,-102,-152,-71,-35,-48,-62,-89,-158,-224
-127,-87,-146,-33,19,-6,27,-10,-292,-160
-68,-69,-163,-94,-54,-48,43,17,-290,-206
-117,-130,-213,-179,-136,-94,-18,22,-38,-225
-175,-207,-207,-131,-42,-12,31,50,15,71
-156,-175,-112,9,61,58,84,58,-125,511
-32,-33,26,156,156,109,83,22,-256,394
42,72,122,224,171,122,36,-20,67,-321
112,161,123,121,36,36,16,-4,695,-570
222,211,119,49,-30,-18,-20,-33,653,-142
346,248,144,73,-13,-52,-87,-88,510,225
265,192,164,97,22,-23,-47,-31,418,229
116,64,135,82,15,11,-8,24,253,99
97,19,110,39,-43,-8,-40,35,86,74
51,34,141,11,-84,-42,-66,-18,-33,16
-16,1,153,20,-99,-58,-43,-54,-83,8
-39,-53,82,26,-88,-67,-30,-64,-92,177
-28,-48,-16,8,-72,-64,-30,-84,-82,270
7,-14,-67,-9,-51,-56,-25,-103,-134,107
-58,-21,-92,-9,21,-20,-9,-130,-281,-348
-135,-46,-178,-2,59,16,-12,-179,-164,-448
-83,-40,-147,-19,10,3,1,-113,-55,-184
-30,-33,-122,-65,-39,-10,9,2,-68,-93
-18,-57,-197,-113,-79,-32,-17,82,-16,-114
-53,-76,-164,-115,-57,-8,27,93,36,-179
-73,-55,-119,-73,-15,45,66,65,91,-244
-36,-52,-103,-50,-4,40,46,118,340,-194
75,-38,-96,-51,-1,41,58,175,419,-15
223,48,-44,-5,55,91,111,111,6,102
255,87,-33,6,70,82,89,8,-191,120
181,45,-120,-27,26,39,35,-14,-110,125
62,-25,-150,-61,9,54,63,5,-159,31
44,-16,-57,-30,18,51,35,-18,-200,43
90,32,-28,18,35,10,-54,-55,-137,240
103,80,2,76,60,0,-105,-87,-185,381
47,52,45,45,13,4,-66,-6,-12,311
-33,1,41,23,9,-6,-45,91,238,90
-131,-57,14,0,-8,-23,-22,111,214,-231
-172,-96,-31,-31,-28,-22,23,122,86,-303
-138,-78,-34,-25,-28,-20,24,112,-67,-287
-83,-17,23,20,10,29,42,106,-221,-264
-94,-3,70,68,73,72,32,56,-202,-279
-92,-13,81,84,136,77,-20,-10,-184,-170
-57,-6,58,64,145,87,-15,-63,-372,7
26,52,85,95,116,35,-70,-135,-208,522
110,96,107,105,88,-24,-116,-149,11,1091
96,79,52,77,67,-40,-95,-94,97,769
24,117,34,77,50,-54,-82,-80,184,-299
-82,70,13,0,-5,-61,-97,-106,-4,-703
-65,37,-22,-41,-9,-32,-80,-142,-126,-378
14,23,-133,-56,-41,-55,-99,-106,12,-89
65,-45,-165,-99,-100,-88,-141,-32,131,43
-8,-93,-96,-110,-95,-58,-116,-7,106,-25
-80,-80,-70,-86,-65,-25,-78,8,165,-43
-116,-92,-150,-80,-55,7,-24,21,111,-58
-76,-105,-229,-114,-77,-4,9,5,18,-66
32,-21,-83,-65,-23,-47,-27,3,156,55
40,11,-22,-12,-4,-31,-9,47,223,51
59,52,18,16,7,10,-7,42,184,45
91,72,43,43,41,32,-46,-16,60,70
53,18,4,8,26,33,-39,-51,-72,81
-1,-22,-18,-11,-1,10,-39,-45,-117,101
-38,-23,-12,9,5,17,-19,9,-111,7
-52,-72,-74,-20,-5,34,51,103,-103,-95
-91,-137,-141,-60,1,25,33,113,-57,-102
-159,-151,-77,-23,-28,-5,21,72,-192,-191
-199,-143,-64,-23,-87,-36,58,161,-177,-328
-237,-140,-88,-94,-108,-34,66,287,-37,-377
-159,-7,3,-58,-78,-61,-80,198,39,-342
-150,57,67,-33,-44,-44,-150,47,33,-364
-193,-4,45,-52,-49,-25,-68,2,-20,-376
-144,-15,47,-31,-17,-14,-31,-55,-124,-203
299,94,83,161,61,-27,-144,-146,76,620
228,-16,77,95,32,-5,-86,-130,-87,778
210,6,105,75,27,-12,-83,-154,-151,623
203,57,179,103,93,3,-70,-119,-113,201
94,10,141,63,73,-28,-85,-46,43,-136
0,-38,66,8,-23,-86,-104,-3,84,-123
50,-24,34,-6,-48,-68,-97,-38,-83,9
148,12,32,0,-28,-38,-108,-106,-233,94
164,0,7,-17,-50,-57,-119,-100,-220,403
95,-28,-36,-50,-77,-93,-131,-70,-130,457
17,-50,-76,-72,-66,-97,-90,15,36,-71
-102,-153,-197,-162,-112,-96,-59,135,374,-525
-152,-167,-209,-149,-75,-30,-6,120,454,-364
-83,-76,-126,-96,-34,14,6,70,277,-78
17,32,-11,-36,-20,6,-2,19,-29,109
11,59,82,32,24,16,-26,-32,-246,3
-60,8,63,31,29,25,-14,-10,-231,-132
-132,-25,35,41,34,17,-32,34,-152,-262
-201,-98,-17,72,67,45,42,133,-117,-335
-192,-121,-49,33,15,47,112,204,-140,-242
-174,-110,-43,-28,-43,36,104,125,-347,-168
-127,-91,-49,-51,-34,56,103,58,-401,-110
-33,2,-28,0,13,97,147,61,-175,-106
19,57,-36,19,15,92,170,59,-14,-125
62,131,57,79,41,36,53,-116,-25,5
63,166,121,164,135,26,-141,-363,-94,45
128,176,110,150,150,-5,-228,-354,-78,59
114,123,9,45,9,-71,-156,-96,140,88
-46,39,-46,2,-49,-30,-30,84,276,6
-70,32,75,40,-28,5,25,85,197,13
-49,20,154,57,-19,16,42,92,54,4
-28,1,177,69,-3,36,40,56,4,80
21,-9,178,96,44,51,10,-66,-99,426
57,-11,163,103,54,30,-45,-204,-331,578
0,-32,135,84,23,-19,-104,-245,-264,175
-132,-78,65,15,-31,-78,-143,-175,158,-337
-124,-52,-6,-37,-62,-119,-215,-167,235,-308
25,0,-101,-81,-88,-164,-258,-160,137,-75
109,-41,-199,-157,-105,-111,-128,-74,103,67
93,-82,-233,-187,-80,-24,-18,-19,27,227
54,-43,-181,-156,1,10,-23,-51,-80,535
93,0,-161,-143,34,43,-25,-44,-133,526
103,-34,-246,-210,-71,21,-25,39,56,-98
-17,-118,-292,-235,-113,-14,10,124,331,-354
-39,-83,-208,-155,-72,-8,50,100,159,-182
0,-39,-121,-89,-39,-12,36,60,43,-71
35,-26,-83,-53,-13,-4,18,16,16,-41
61,-12,-103,-17,23,22,28,-30,-13,-28
46,-26,-165,10,63,52,39,-24,-43,-54
38,-23,-115,16,23,7,28,-7,-18,-48
0,-26,-85,-5,7,13,76,68,30,-41
-3,-45,-58,-27,7,41,82,109,65,-15
14,-33,-31,-20,0,13,15,59,34,13
5,-33,-11,-15,9,9,2,14,-28,-43
-17,-17,-19,0,26,43,16,30,-66,-91
-6,6,-67,17,57,60,35,33,-56,-105
-33,-32,-71,-24,3,43,116,115,66,-85
6,-22,-18,11,5,26,82,79,52,-15
32,17,33,80,37,-6,18,17,-60,0
-41,24,89,87,47,-35,-24,-25,-88,-68
-110,30,157,95,46,-43,-54,-3,5,-66
-118,33,188,87,28,-34,-9,47,23,-73
-117,49,184,77,33,-5,59,56,-14,-119
-189,43,176,107,74,22,104,77,-20,-178
-194,55,181,135,103,39,75,51,-88,-167
-123,87,175,102,55,-33,-22,-31,-203,-125
-115,32,109,51,-4,-115,-126,-86,-180,-113
-145,-67,14,32,-16,-122,-139,-67,-41,-125
-151,-145,-89,-4,-19,-73,-46,20,74,-104
-141,-180,-103,-30,-9,-10,68,153,182,-39
-57,-172,-9,-10,76,80,157,223,203,161
-14,-94,47,22,177,144,162,118,-274,313
84,54,97,58,144,100,39,-117,-540,134
153,145,36,35,37,-16,-110,-213,-255,-162
59,39,-111,-105,-91,-126,-137,-54,250,-219
27,-54,-130,-155,-139,-155,-122,49,287,-79
74,-43,-107,-128,-92,-97,-39,11,213,5
115,-42,-69,-91,-38,-41,-22,-67,128,68
79,-59,-79,-94,-42,-2,-85,-189,-58,105
66,-50,-92,-100,-53,56,-32,-188,-174,124
60,-28,-85,-105,-68,61,131,16,-127,86
92,43,-28,-31,-55,-2,101,72,-155,54
45,49,-17,17,-13,-12,25,39,-223,-41
32,46,-21,20,-29,-8,12,72,-233,-103
9,33,-3,24,-25,15,26,103,-141,-141
-14,17,29,38,49,74,82,118,67,-101
58,73,148,121,137,105,47,-28,-67,-11
73,32,158,139,103,101,36,-166,-247,-21
78,10,143,118,43,81,22,-209,-334,-51
28,12,121,54,-33,5,-21,-149,-83,7
-16,13,125,46,-38,-34,-23,-19,301,105
18,34,75,46,-16,-51,-91,-25,239,113
113,36,43,37,-16,-79,-156,-76,183,321
121,-18,6,-12,-51,-70,-119,-91,108,506
66,-63,-34,-36,-66,-58,-68,-96,70,400
9,-106,-75,-66,-62,-32,-37,-38,180,144
-7,-122,-91,-90,-49,1,20,36,166,96
82,-29,-8,-4,18,28,16,52,88,138
39,-35,-21,6,27,39,67,72,94,-38
-5,-54,-53,-13,4,23,102,90,166,-60
45,48,54,32,51,2,70,83,112,0
50,91,89,35,65,-5,30,46,-64,-87
52,10,2,-1,17,-29,0,-5,-154,47
73,-10,-36,-7,16,-25,12,22,-97,253
146,79,11,7,12,-1,51,67,7,270
91,110,58,38,32,4,83,104,117,124
29,128,137,104,77,15,50,78,95,103
-35,130,193,136,117,42,9,12,-117,-294
-148,33,199,83,77,38,16,4,-16,-569
-207,-28,182,70,14,23,11,-6,46,-379
-179,-2,198,101,22,25,0,-23,14,-93
-174,-4,168,115,35,4,-48,-65,-81,16
-145,-26,102,70,15,-9,-28,-62,-109,-19
-93,-40,13,-38,-56,-25,40,17,24,-141
-118,-67,-33,-76,-80,-34,52,25,15,-246
-40,-38,-16,-38,-21,-18,36,-15,-119,-194
96,-39,-72,-57,-28,-35,-36,-54,-133,-71
151,-59,-139,-78,-42,-51,-49,-10,3,14
150,-71,-159,-104,-47,-33,-25,52,165,80
105,-81,-152,-90,-29,-1,38,48,161,105
139,-44,-100,-40,-7,-1,26,17,27,223
143,0,-93,-10,-18,-21,-3,0,-98,192
68,-10,-62,-18,-4,-11,6,-34,-84,-36
-40,-56,-78,-43,32,12,24,22,52,-207
-45,-30,-83,-49,1,-29,-3,51,157,-158
101,5,-65,-29,-62,-77,-24,30,184,14
167,40,22,21,-32,-50,-15,-6,112,170
66,45,74,56,8,-11,-4,-56,-52,132
-61,20,115,74,30,4,7,-43,-151,5
-90,27,129,54,22,8,7,-18,-265,-167
-59,79,135,44,22,27,23,41,-245,-225
-26,44,69,15,4,34,50,103,-158,-168
-54,-29,-32,-23,-15,28,57,92,-180,-203
-33,-19,-70,12,30,71,63,26,-293,-231
-18,-34,-76,15,26,58,47,5,-101,-119
-104,-83,-81,-22,-37,-39,-35,-30,128,39
-126,-71,-2,-9,-43,-65,-101,-91,177,263
-68,-12,37,0,-24,-49,-83,-79,268,378
-69,0,-2,28,-1,-19,-8,-45,286,165
-94,-22,-10,12,-10,-17,-4,-47,218,-54
-71,1,-11,3,-27,-44,-40,-50,79,-106
-96,-51,-76,-60,-76,-46,-2,-8,0,-107
-116,-124,-166,-109,-103,-28,74,77,16,31
-51,-127,-250,-117,-100,-46,34,66,2,148
14,-90,-252,-109,-74,-38,-26,14,-118,219
-11,-78,-181,-99,2,20,7,54,-281,136
-164,-94,-207,-70,52,50,56,85,-402,-240
-282,-113,-131,-51,2,29,54,103,-359,-709
-281,-93,-65,-24,-18,35,81,95,-116,-745
-172,-43,43,29,-1,34,63,92,185,-437
22,4,116,82,38,38,-5,51,590,-31
200,114,220,168,118,62,-22,-62,457,335
208,152,253,161,109,41,-49,-201,34,445
137,66,187,81,40,-16,-94,-180,-49,362
84,14,106,41,-6,-25,-45,-63,-8,246
44,-16,52,10,-17,-13,-18,-40,-23,228
-2,-38,46,-25,-34,-30,-26,-70,-68,193
-44,-12,84,-15,-46,-70,-61,-102,-128,139
-19,42,89,14,-46,-103,-123,-167,-207,619
87,74,11,11,-48,-104,-139,-167,-307,1053
115,18,5,-63,-22,-52,-37,25,-168,472
-174,-228,-182,-220,-117,-52,88,303,398,-784
-326,-359,-326,-301,-213,-70,111,368,647,-854
-223,-293,-284,-237,-164,-24,89,283,425,-446
-111,-201,-218,-135,-69,34,79,163,168,-329
49,-19,-87,0,23,68,72,34,40,-230
140,115,81,83,63,79,55,-67,-147,-103
128,112,91,76,73,92,59,-65,-123,71
185,175,167,128,111,55,-60,-147,69,318
194,176,158,120,82,31,-79,-166,-57,335
125,124,136,97,76,39,-49,-90,-29,191
125,139,151,112,80,49,-22,-72,-32,126
123,114,123,64,23,34,40,-23,-59,6
-35,-8,30,-26,-31,0,33,47,-5,-145
-98,-46,-32,-38,-32,-14,16,38,-144,-207
-76,-32,0,-26,-13,-8,27,-2,-307,-247
-51,-6,59,9,17,21,36,-52,-414,-275
-59,-30,-12,-13,9,34,74,36,-274,-216
-67,-53,-79,-49,-28,12,126,159,7,-201
4,17,-47,-9,-37,9,133,153,165,-172
6,8,-93,12,-28,23,84,88,244,-70
15,15,16,43,-12,-3,-5,6,202,58
124,105,120,103,37,-5,-87,-103,86,360
179,166,227,152,135,47,-63,-93,87,471
117,147,221,147,142,89,22,-23,60,218
19,83,153,120,79,54,45,48,69,2
61,81,122,118,43,-22,0,99,12,208
79,48,84,100,38,-45,-28,99,-10,296
-12,16,23,62,33,9,40,136,41,-161
-104,-6,36,51,24,54,109,220,288,-456
-61,16,51,93,47,55,98,208,393,-74
40,61,131,122,40,30,76,42,153,269
97,98,200,143,59,29,-3,-269,-442,93
-10,37,163,115,44,20,-55,-274,-400,-266
-72,19,155,68,-7,-19,-57,-178,-152,-253
-80,23,130,33,-44,-49,-17,-95,-184,-172
-42,35,86,49,-14,-47,-33,-82,-194,-164
14,4,84,37,13,-17,-38,-56,-139,-130
14,-35,2,-26,0,12,-33,-62,-197,-140
-56,-119,-170,-111,-57,4,30,44,-157,-98
-45,-77,-230,-138,-72,3,19,40,-227,-144
-7,16,-136,-95,-36,0,-7,-46,-212,-215
26,62,-91,-71,-21,-20,1,-47,-57,-159
93,103,-49,-64,-27,-25,-15,-68,11,-79
88,88,-52,-63,-16,8,-24,-86,99,31
58,39,-33,-48,54,30,-31,-52,143,90
85,40,-16,-40,56,10,-65,-44,146,183
92,14,-48,-70,-19,-14,-54,14,166,296
59,-53,-66,-58,-47,-31,-50,16,158,267
20,-95,-96,-49,-48,-78,-117,-69,18,200
24,-122,-135,-57,-49,-71,-83,-69,-129,111
58,-139,-175,-77,-56,-51,-37,-25,-196,60
-37,-213,-243,-72,-25,7,33,16,-176,10
-100,-218,-180,-84,-16,51,93,42,-67,99
-69,-119,-121,-52,7,27,69,22,-58,248
-80,-108,-66,-30,11,13,39,6,-84,191
-28,-79,-39,-20,13,5,-6,-37,119,152
49,-10,-27,-20,4,-6,-37,-30,128,338
118,12,-32,-18,-10,-5,-39,-18,5,466
87,42,31,30,18,-1,-26,0,18,-1
-37,-9,-34,2,38,15,19,79,245,-404
-27,-15,-69,-14,5,-10,5,60,339,-157
70,84,74,68,19,-23,-60,-46,177,276
150,137,118,124,70,-8,-97,-73,17,590
102,89,65,110,57,14,-50,-6,-43,234
-142,-92,-53,1,-5,22,43,138,155,-519
-242,-189,-122,-85,-57,26,111,219,277,-565
-174,-102,-17,-42,-10,37,98,162,176,-428
-103,16,97,30,3,13,39,90,113,-382
-120,67,137,86,11,0,-4,31,80,-384
-109,88,154,143,52,23,-26,-32,38,-260
-2,118,179,169,75,38,-30,-53,-7,-2
61,125,156,138,49,31,-19,-48,12,141
100,149,181,136,28,0,-41,-64,-73,224
48,100,193,124,27,0,12,-39,-46,229
74,100,187,94,56,27,30,-3,3,212
180,134,121,42,4,16,27,19,67,174
122,51,-25,-36,-46,-14,21,23,74,126
3,-18,-107,-89,-55,-12,28,-4,-24,67
-26,-34,-92,-103,-58,-14,20,-26,-53,88
-16,-51,-85,-91,-53,-25,15,-29,-65,241
28,2,-52,-40,-31,-24,33,-31,-105,366
47,26,-15,-21,18,9,21,-17,-140,229
-81,-56,-62,-77,28,15,35,37,-62,-154
-142,-81,-101,-94,-19,2,47,67,-64,-349
-95,-85,-135,-114,-71,-16,56,92,-27,-419
-76,-84,-137,-96,-57,-1,55,137,135,-376
-66,-26,-56,0,31,18,63,126,287,-256
-13,42,29,65,84,34,62,48,274,-120
18,92,62,77,96,58,59,-37,-46,-64
95,71,7,60,87,61,67,-14,-179,66
120,29,-45,47,50,52,79,3,-111,116
14,17,-43,35,18,30,46,-43,-93,32
9,33,69,24,-14,-13,-50,-80,-66,20
31,16,80,20,-32,-41,-102,-69,13,39
26,-14,84,21,-34,-36,-101,-64,11,16
12,-9,116,27,-35,-50,-67,-60,-46,-5
-22,-33,109,2,-44,-48,-56,-21,-49,3
-46,-67,42,-41,-73,-53,-26,-7,-9,21
-40,-67,-2,-51,-67,-55,-29,-29,0,32
-45,-71,-41,-39,-48,-25,5,0,8,30
-45,-66,-73,-38,-19,29,83,72,71,28
-23,-2,-42,3,16,51,120,79,-26,11
23,51,15,78,51,51,81,29,-288,-4
68,56,52,144,112,57,12,19,-319,3
82,31,98,162,180,82,-1,13,-330,-30
56,-9,127,152,161,70,-31,-64,-260,-88
-23,-52,91,108,55,30,-40,-48,151,-104
-80,-43,103,109,42,48,47,50,335,-98
-66,-17,140,136,69,72,73,34,135,-8
-25,-8,168,144,62,44,18,-20,-15,129
-37,-2,103,95,0,-40,-78,-96,-38,173
-74,-25,58,-4,-57,-85,-82,-90,31,105
-52,-26,9,-38,-59,-89,-90,-91,-50,-12
-59,-67,-63,-103,-76,-72,-74,-88,-142,-138
-112,-146,-175,-182,-108,-36,-27,-21,-87,-213
-169,-179,-235,-219,-122,-18,67,84,-74,-209
-116,-123,-240,-184,-97,11,87,87,-252,-188
25,2,-250,-109,-46,3,-32,-36,-163,-90
169,136,-95,-24,10,-12,-124,-116,192,226
225,152,-6,-6,53,7,-112,-124,-14,564
216,134,-2,-6,26,0,-107,-148,-219,763
209,131,11,-2,14,-31,-151,-126,-219,519
85,88,-45,-30,4,-26,-100,9,-25,-224
-95,-50,-159,-119,-22,31,42,188,269,-394
-143,-67,-128,-111,-19,42,92,270,352,-178
-67,6,3,-54,-6,16,87,216,216,-55
61,94,113,8,45,15,57,98,293,74
95,149,197,71,87,5,-4,24,256,146
-44,46,53,25,-4,-13,13,45,172,6
-110,-34,-68,-22,-52,-14,55,98,259,-10
-131,-52,-45,-17,-37,-20,43,88,221,-15
-167,-60,-47,-29,-25,-20,4,23,131,-147
-170,-63,-56,-62,-67,-49,3,0,-33,-198
-115,-71,-79,-100,-95,-71,10,-4,-402,-142
-27,-46,-61,-71,-35,-43,2,-51,-622,-190
-46,-73,-83,-86,-48,-39,-3,-15,-385,-221
-147,-191,-187,-148,-93,-61,0,22,-134,-192
-155,-210,-293,-131,-45,-12,22,-14,-2,-219
-21,-48,-98,-43,18,66,34,-65,3,103
185,125,87,47,47,26,-52,-163,-175,690
275,164,95,82,60,-3,-75,-169,-237,662
122,64,-10,-14,36,17,9,-14,-26,-81
-6,29,-29,-81,13,28,53,116,329,-392
27,73,14,-23,29,51,76,75,378,-170
80,92,43,25,38,27,33,-25,148,-1
90,80,80,66,62,8,-2,-75,16,-7
35,60,91,97,74,26,21,-16,140,-61
14,-2,36,64,42,37,59,60,195,-12
21,-46,19,68,33,36,56,104,270,75
51,2,78,131,68,31,37,115,275,194
58,15,42,148,62,31,-5,23,57,204
45,13,50,122,53,28,-71,-56,1,216
21,50,135,105,29,26,-59,2,73,306
50,89,163,93,5,1,-47,70,104,290
85,108,213,95,13,-2,-52,35,44,41
13,58,200,69,8,-5,-45,-7,3,-133
12,55,208,49,7,-22,-81,-50,-87,100
69,19,150,10,-13,-42,-100,-63,-178,501
88,-40,33,-59,-46,-35,-62,-53,-186,346
-49,-113,-86,-162,-121,-48,3,66,66,-410
-154,-163,-136,-198,-154,-61,43,124,204,-591
-111,-102,-69,-133,-95,-40,20,34,6,-389
-78,-31,10,-67,-44,-51,-53,-58,-165,-305
-68,-13,0,-62,-21,-59,-108,-103,-199,-302
-78,-38,-80,-93,-13,-53,-60,-30,50,-153
-176,-54,-123,-100,-38,-30,-10,-27,84,-106
-140,-25,-158,-72,-46,7,-7,-80,-186,-106
-106,-21,-124,-42,-15,55,14,-75,-281,-54
-106,-29,-57,-29,-13,50,36,-8,-226,-38
-57,-31,-56,-66,-28,32,70,20,-153,-77
8,-31,-67,-83,-45,0,65,-3,-97,-146
17,-24,-65,-60,-16,-6,18,-37,-160,-134
54,5,-40,-18,14,-6,-15,-54,-206,-51
94,-5,-59,3,26,-11,-37,-9,48,52
106,-1,-92,-2,6,-20,-67,10,255,157
111,47,18,-16,-22,-23,-75,-18,115,120
11,10,21,-28,-27,-7,-27,28,80,-25
-51,-38,-16,-55,-29,3,7,90,243,-4
15,-28,-2,-49,-1,13,16,81,270,187
89,-11,22,-35,22,25,25,50,131,462
88,-4,19,-20,0,9,16,12,-47,398
60,3,28,0,-3,12,13,-1,-147,-184
-16,-31,6,-7,-15,13,29,40,-26,-544
-12,-31,20,-8,-24,8,35,49,25,-292
78,23,63,12,-21,-3,36,16,-43,3
117,98,123,66,19,7,34,-47,-162,28
98,82,118,76,76,35,42,0,2,96
128,99,162,103,92,24,34,-2,64,281
170,171,224,162,83,-7,-32,-103,-148,176
54,77,133,86,44,-14,-9,21,116,-8
-52,-16,50,23,13,-2,36,116,317,-44
-54,-43,20,9,7,0,75,143,272,35
-3,12,40,35,20,-1,75,120,196,92
16,45,84,43,34,8,43,59,105,59
-6,41,72,45,38,31,37,-3,-7,82
25,54,109,94,62,29,4,-91,-167,193
22,81,130,118,61,1,-45,-114,-116,162
-72,14,49,40,-1,-7,5,3,-8,-115
-121,-25,3,-18,-32,-6,57,90,27,-236
-72,-4,7,-3,-25,-14,-3,-17,-94,-118
-7,25,35,14,5,-18,-34,-52,-82,-29
-28,47,93,46,88,30,-7,-17,26,-61
-28,50,115,35,114,59,15,-12,91,4
19,39,95,-1,41,23,21,-2,21,177
39,37,71,-5,-10,-4,-3,-13,-55,236
25,34,38,-2,-20,0,-7,-19,-110,127
-19,19,-9,14,-24,-2,-1,11,-72,-202
-86,-19,-77,-9,-41,-15,12,4,-99,-394
-94,-27,-117,-23,-37,-1,13,-21,-111,-324
-54,-33,-127,-27,-30,22,12,-22,-90,-123
-49,-42,-124,-40,-33,16,0,-41,-121,-57
-58,-60,-158,-99,-60,-15,3,3,-84,-137
-78,-121,-238,-195,-105,-27,39,75,16,-141
-127,-154,-246,-190,-79,4,53,81,51,-90
-85,-86,-162,-106,-31,-7,33,66,157,16
28,5,-70,-42,2,-25,-31,-36,69,108
79,35,-31,-21,37,-5,-46,-85,-22,131
50,26,-39,-15,46,8,-29,-41,72,77
61,63,9,19,59,26,-46,-61,61,77
117,119,92,68,82,58,-38,-71,15,145
95,86,100,55,66,75,-21,-39,-8,155
51,49,110,59,62,74,-20,-31,-65,82
4,16,91,45,30,54,27,11,-64,-18
-31,-7,52,5,9,48,71,16,-84,-140
-52,-10,48,17,106,97,68,-2,-20,-221
-35,-4,1,35,116,90,54,62,73,-212
37,39,-56,37,32,-1,14,131,172,-94
21,70,-27,68,31,-28,-34,85,79,-92
12,70,3,72,45,8,14,26,-101,-120
30,64,7,40,23,-3,55,13,-90,-86
-22,9,-7,13,13,5,81,64,33,17
-8,-15,55,20,8,2,77,88,130,260
41,38,183,85,4,-40,-13,-33,114,432
21,95,277,127,-5,-77,-84,-155,-64,324
-28,71,258,79,-46,-109,-107,-137,-25,251
-19,6,152,23,-67,-101,-67,-148,-94,155
-16,-42,11,-17,-71,-102,-83,-178,-211,4
-77,-92,-128,-78,-84,-106,-62,-122,-145,-82
-49,-78,-129,-76,-41,-80,-39,-69,-72,-61
12,-63,-124,-59,2,-68,-35,-29,-13,15
17,-79,-116,-29,6,-37,-16,-9,73,87
34,-51,-90,-9,5,-10,2,-26,131,117
20,-44,-85,-26,-20,-10,0,-39,16,58
6,-43,-81,-27,-50,-32,-16,-24,10,13
19,-20,-49,-18,-62,-59,-40,-18,44,-4
-7,-41,-94,-36,-53,-26,-3,-1,28,-54
-21,-74,-101,-62,-2,15,45,20,-69,-67
4,-46,-25,-75,-18,-1,20,-9,-254,-74
33,-35,-62,-84,-70,-51,-51,-65,-194,-25
67,-15,-136,-84,-68,-66,-93,-72,-16,58
75,-12,-231,-86,-58,-53,-39,-33,1,75
99,8,-141,-50,-21,-20,-4,-34,-90,344
166,76,-27,7,19,-6,1,-58,-112,608
201,135,-27,74,58,6,-6,-30,-41,166
32,20,-43,20,13,13,21,87,193,-495
-4,-15,-11,-13,4,36,64,116,254,-353
50,18,24,19,22,51,80,103,213,-76
14,12,44,89,44,58,80,57,83,113
70,63,64,144,64,28,43,6,-75,450
119,124,219,183,70,0,0,-38,-198,423
13,101,309,173,54,-10,8,7,-164,-221
-132,-2,255,95,35,2,14,54,-53,-559
-171,-75,192,51,22,22,11,24,-114,-408
-166,-121,52,-9,-49,-10,-23,41,-83,-344
-184,-155,-68,-86,-106,-80,-99,-16,27,-368
-157,-144,-99,-105,-102,-89,-153,-78,101,-312
-68,-72,-102,-119,-91,-69,-121,-52,194,-169
-14,-75,-154,-162,-91,-23,-45,-16,136,-61
38,-60,-139,-108,-2,44,-14,-44,-109,-19
61,-32,-98,-64,35,82,23,-45,-242,-21
63,-16,-94,-63,11,57,27,24,-124,116
80,9,-23,0,44,56,11,23,-96,189
93,69,45,51,74,75,-14,-26,-88,92
129,85,31,48,64,77,-52,-62,-92,-28
91,50,10,15,40,71,-14,-2,7,-46
11,-28,-60,-46,-3,55,18,61,254,13
-39,-83,-72,-58,-2,58,58,92,308,87
-43,-50,-17,-15,-17,12,13,35,204,146
33,52,38,45,-16,-27,-40,-39,74,153
82,73,26,64,-11,-13,-34,-72,-39,1
-32,-22,-2,-1,-55,-24,13,-54,-25,-105
-87,-44,-20,-37,-79,-54,26,-22,-31,179
-34,-26,-42,-77,-98,-59,18,2,-53,462
-15,-16,-57,-108,-67,-51,15,33,-57,118
-68,-30,-50,-94,-1,-23,44,96,48,-507
-113,-29,-50,-65,-9,-9,60,113,92,-545
-90,-17,-84,-40,-30,-7,59,109,145,-304
-56,-41,-72,-6,-12,12,55,126,222,-147
-56,-53,-14,41,28,29,32,119,219,-119
-69,-33,21,71,38,27,41,58,10,-122
-56,-20,41,49,-2,0,40,24,-41,-57
-55,1,75,56,0,5,51,21,-21,-15
-66,10,102,60,8,9,66,30,99,23
-38,65,106,83,29,16,47,-12,38,17
-6,105,83,96,57,52,21,-95,-187,-7
1,71,70,51,40,47,-26,-127,-243,29
45,52,40,4,6,-1,-85,-100,-81,88
46,43,11,-1,-5,-27,-67,-46,4,72
20,-3,-30,-21,11,-14,-31,-39,-40,25
-3,-48,-129,-76,-32,-23,4,-17,-31,9
-29,-83,-183,-97,-80,-20,41,39,-60,-73
-19,-47,-111,-46,-40,0,40,54,-100,-133
-6,2,-24,33,25,17,3,19,-103,-134
44,67,49,93,82,41,-21,-8,-44,43
114,102,75,128,104,76,-11,-12,90,392
125,119,41,171,130,86,-16,-34,50,559
99,104,94,196,190,117,-14,-61,-31,308
32,73,186,201,134,76,-62,-43,69,-60
-24,46,205,202,69,28,-50,-18,81,-131
-88,1,196,136,27,43,34,-2,49,-55
-85,-2,179,77,-20,-14,-12,-47,3,-5
-55,18,166,38,-55,-88,-26,-83,-38,-8
-29,35,133,5,-96,-132,-56,-71,-46,15
-24,17,44,-44,-109,-151,-44,-44,-10,57
-75,-69,-78,-106,-135,-137,7,38,26,-17
-133,-121,-159,-140,-139,-102,47,104,28,-105
-116,-123,-191,-135,-104,-55,16,55,-56,-107
-63,-94,-175,-108,-60,-10,-14,-13,-61,-81
-29,-39,-125,-73,-23,41,-11,-17,87,-66
32,-3,-49,-30,18,88,-10,-47,-9,-9
96,28,51,5,60,91,-19,-83,-222,50
64,23,87,14,99,66,-21,-72,-298,20
15,-17,25,-26,44,17,-38,-23,-115,-11
-29,-88,-193,-97,-73,-13,-35,68,211,-23
-39,-129,-353,-132,-117,-23,21,132,330,90
-12,-93,-288,-105,-91,-16,34,78,117,392
66,-1,-97,-18,-41,-1,35,8,-90,553
143,83,19,42,13,32,58,-46,-221,198
95,91,31,61,59,50,-8,-103,-194,-330
3,7,-18,9,40,49,-8,-52,-29,-319
-20,-61,-74,-31,-11,22,3,13,59,-65
19,-36,-51,-28,-29,-5,-22,-8,73,112
64,40,53,42,-1,0,-36,-10,78,35
62,65,107,79,8,6,-21,36,107,-106
-16,-1,60,42,-24,6,-2,47,98,-148
-4,-25,38,32,-39,14,0,20,42,-87
13,-4,51,37,-33,4,7,42,34,-56
2,32,61,63,-18,4,-9,33,29,-74
-3,51,65,86,5,19,-16,25,39,-67
33,75,85,97,11,13,-25,0,15,-16
28,38,70,69,2,0,-21,-7,-19,12
-32,-49,8,24,-3,18,7,20,-20,-20
-56,-51,6,8,-6,25,15,37,7,-50
-24,9,79,-1,13,16,-7,38,50,-16
-50,24,120,-9,36,19,-8,51,45,-31
-100,3,68,-25,-17,3,-11,42,8,-108
-88,33,54,-33,-60,-16,-18,19,-22,-92
-36,72,57,-47,-72,-23,-11,13,-14,4
6,94,72,-22,-66,-30,-20,-31,-46,71
-14,71,82,15,-33,-32,-30,-74,-92,98
-12,34,63,7,-26,-31,-23,-38,-57,121
38,0,31,-14,-23,-5,22,2,-10,108
61,-42,-5,0,-15,13,57,5,-16,165
59,-87,-62,17,4,8,48,-23,-38,378
45,-90,-58,41,34,15,43,-49,-83,365
58,-23,-21,51,53,51,75,-20,-160,-68
-53,-94,-118,-25,4,33,94,64,-38,-387
-167,-175,-180,-88,-46,-6,71,83,100,-364
-124,-122,-99,-68,-9,-18,25,36,128,-206
-77,-56,7,-29,24,-24,6,0,69,-117
-86,-53,-4,-49,-10,-35,14,22,79,-96
-75,-50,-85,-73,-49,-45,5,48,169,-34
-36,-40,-192,-75,-66,-50,-1,21,125,14
19,-38,-209,-56,-46,-28,-14,-24,44,42
60,6,-150,-19,-32,-49,-79,-19,194,100
24,42,27,46,6,-63,-123,40,175,95
33,47,110,55,72,-7,-57,56,-31,68
35,51,86,44,43,-1,-14,-17,-207,10
-7,33,-16,53,20,-26,-46,-64,-149,-57
-11,31,-36,53,29,-27,-95,-36,6,-44
7,29,41,34,30,-21,-49,6,135,17
-30,13,44,23,16,-8,5,31,110,12
-66,-13,-38,3,-3,12,30,72,-20,7
-59,-11,-25,16,32,57,54,35,-230,13
-45,-13,41,45,39,69,81,-3,-214,-29
-29,1,67,83,47,37,59,2,-125,-6
2,17,141,85,43,30,51,-11,-174,231
57,34,141,57,39,20,46,-66,-333,513
99,48,122,32,23,-12,6,-121,-362,243
-36,-13,-17,-51,-43,-64,-5,-9,14,-437
-160,-87,-186,-151,-73,-90,-7,82,288,-423
-77,-4,-70,-124,28,-22,-24,21,138,16
36,73,45,-77,67,2,-45,-42,6,288
112,86,33,-30,31,-13,-87,-77,-43,250
63,49,26,-12,3,-25,-62,-71,27,-112
-8,-2,8,-20,-6,-14,-49,-17,149,-272
48,-14,24,0,6,25,-20,4,66,-110
33,-69,0,-44,-28,7,9,36,9,-58
-31,-115,-74,-120,-67,-33,74,115,22,-138
-50,-97,-107,-132,-88,-28,92,153,-19,-207
-22,-40,-92,-99,-58,-16,-1,47,-64,-203
35,16,-25,-52,-5,-1,-68,-72,-43,-81
58,26,-48,-27,10,34,-5,-28,-13,78
73,29,-17,-6,23,42,29,16,-35,92
42,46,53,11,38,19,21,5,-45,-78
-19,33,69,40,64,37,0,-58,-94,-240
-55,14,96,46,61,29,-22,-59,-60,-229
-57,-6,82,-1,9,4,-26,-18,64,-109
-34,-8,86,-10,0,8,0,-8,62,-15
-29,-22,53,-20,-6,4,16,-10,-14,166
-3,-18,38,-17,-10,-27,-15,-32,21,583
86,40,59,7,-14,-77,-86,-72,229,714
137,106,95,52,17,-89,-143,-101,206,60
86,92,76,43,58,-43,-114,-56,97,-495
91,71,62,24,93,14,4,-20,32,-208
68,9,9,-9,41,32,111,35,79,75
77,-11,-1,2,14,31,79,40,130,144
111,-1,18,15,15,29,32,42,113,90
58,-42,10,-32,-1,45,63,100,106,-5
30,-12,11,-30,-12,56,108,108,-10,-126
-22,-27,-7,-31,-22,44,94,72,-7,-156
-17,11,27,-6,0,43,56,35,70,8
37,75,85,40,27,23,44,11,23,152
39,73,103,66,39,24,60,4,-123,34
-53,25,109,75,43,25,30,1,-125,-204
-64,40,145,86,46,19,-14,-22,-120,-135
-73,-8,92,42,7,17,2,36,-9,-70
-75,-39,58,34,-29,9,6,49,86,-62
3,1,95,69,-26,-11,-42,-9,65,37
58,24,44,65,-23,-28,-59,-60,-15,119
94,15,8,32,-19,-30,-64,-107,-140,165
112,40,35,21,-13,-30,-85,-148,-251,157
91,84,35,21,-3,-23,-77,-137,-254,109
-14,16,-64,-52,-35,-5,-14,-7,9,89
-41,27,-87,-65,-47,3,0,18,101,-1
8,36,-63,-63,-18,17,14,34,111,204
50,6,-32,-44,64,50,30,60,89,442
28,-32,-56,-57,42,62,36,74,73,215
-65,-80,-84,-97,-44,44,82,81,121,-252
-103,-119,-117,-66,-36,68,128,70,125,-297
-121,-163,-167,-49,-29,57,94,95,162,-129
-102,-142,-174,-18,-24,3,4,66,148,-56
-58,-58,-41,60,27,7,-81,-73,-41,-83
-9,15,75,129,85,31,-112,-144,-224,128
33,59,117,148,77,24,-76,-90,-254,474
3,53,149,128,38,41,-6,17,-217,187
-200,-38,49,34,-44,26,83,138,-50,-639
-326,-64,-50,2,-89,-6,92,184,69,-770
-259,-13,60,53,-70,-21,96,181,99,-516
-150,34,215,113,-21,-5,90,171,138,-257
-51,62,268,161,70,88,98,77,-96,-186
49,160,340,237,187,123,44,-53,-234,-218
10,148,242,203,121,71,39,-70,-315,-189
-47,64,64,96,17,-6,-25,-163,-269,-134
-19,17,-68,-29,-51,-30,-74,-212,-118,-47
33,-29,-152,-112,-79,-43,-70,-145,44,76
86,-117,-183,-155,-99,-52,-49,-29,261,277
22,-154,-168,-159,-66,-9,4,-16,327,319
-35,-97,-110,-110,16,18,-6,-24,273,324
-17,-64,5,-107,-2,-33,-34,-7,163,295
6,-106,-22,-162,-79,-80,-27,27,142,240
58,-118,-105,-184,-87,-73,-35,69,161,251
97,-95,-156,-165,-81,-62,-74,20,59,220
54,-95,-202,-177,-84,-45,-13,9,-9,85
94,-93,-246,-195,-108,-50,15,74,113,101
145,-68,-308,-202,-97,-31,41,148,349,232
84,-11,-202,-159,-66,-5,39,89,364,168
30,34,-80,-99,-55,8,31,36,29,92
30,36,-31,-61,-32,26,18,-25,-282,30
22,17,-3,-26,-25,1,-79,-130,-282,-52
-9,-43,-66,-19,-19,-3,-60,-87,-128,-71
6,-69,-92,0,-5,1,-23,-46,-52,-34
37,-50,-50,7,0,-4,-20,-57,-84,120
83,-26,1,13,64,40,-11,-43,-142,443
94,12,48,39,105,47,-7,-12,-149,525
76,45,35,59,56,12,-9,16,-101,-42
23,14,-16,25,5,-14,13,52,39,-606
2,25,21,50,19,-14,37,73,106,-539
14,66,100,78,47,-5,57,72,60,-299
9,55,155,95,59,10,57,45,-20,-167
-15,53,206,125,84,20,38,17,-44,-77
30,76,230,149,76,-11,-22,-32,-2,157
55,61,246,143,55,-29,-78,-43,67,366
-38,0,185,127,60,-8,-48,-39,34,232
-87,-17,69,105,49,-27,-39,-13,-59,-133
-114,-16,66,56,0,-48,-25,10,-74,-257
-100,14,69,9,-13,-28,-5,29,-3,-154
-52,73,73,-7,-2,-35,-1,0,51,-4
-42,61,9,-34,23,-32,-6,-38,-72,81
27,30,-54,-70,-9,-23,13,-38,-194,90
62,5,-96,-92,-28,-9,49,-4,-176,-59
-37,-42,-140,-142,-76,-39,50,47,10,-224
-37,-19,-120,-122,-64,-36,22,28,98,-156
1,0,-88,-47,-10,-9,1,-45,0,-72
18,23,-40,11,18,-8,-32,-102,-85,-18
33,34,7,50,73,31,-40,-74,-57,109
74,36,60,106,135,47,-46,-44,-26,334
119,43,76,82,48,-29,-66,-6,-59,400
94,64,83,63,3,-39,-35,7,-70,38
-61,-30,-2,-3,-23,15,38,43,-15,-265
-121,-70,-47,-28,-27,42,83,48,-32,-64
2,11,13,33,3,30,76,-9,-97,124
52,73,52,63,26,16,47,-54,-143,-30
-71,27,35,20,13,3,14,-39,-139,-284
-108,-17,-7,-44,-37,-22,-6,53,97,-216
-87,43,22,-32,-32,-12,4,66,97,-202
-111,36,2,-30,-18,17,56,54,1,-210
-57,22,-17,-29,-16,21,59,76,19,-77
-18,10,-49,-39,-12,24,54,101,51,9
-12,-25,-77,-30,-11,16,30,66,71,7
50,-30,0,42,50,12,-11,50,252,84
61,-14,82,116,143,61,-13,66,304,205
0,-40,80,121,118,58,-6,16,181,251
-9,2,109,143,61,31,-9,-8,81,115
-21,30,121,139,46,12,6,39,31,-58
-53,21,69,84,29,8,14,74,105,-87
-43,9,38,61,37,64,65,70,107,-101
-34,13,55,68,62,87,74,40,16,-99
1,21,67,55,37,35,14,8,0,-30
19,32,75,62,12,-11,-77,-100,-47,11
52,54,119,80,20,-38,-75,-140,-159,86
55,73,106,69,3,-49,-94,-162,-199,121
-9,19,-6,-16,-52,-48,-63,-91,-124,42
-55,-23,-88,-76,-77,-31,-19,14,-52,49
-29,6,-49,-48,-43,-25,7,76,-67,43
-24,44,17,-18,-19,-33,50,141,51,32
-31,54,26,-19,-19,-12,79,131,80,0
-10,76,60,19,7,10,27,-5,35,-27
60,129,112,80,37,-6,-49,-120,-84,-24
65,102,60,65,22,-29,-46,-89,-120,-54
-2,27,8,35,-2,-31,-26,-32,-24,-85
2,-18,-32,0,-29,-27,-4,-11,31,2
49,-45,-48,-39,-30,-21,5,5,16,401
80,-29,32,3,60,38,13,-26,-178,999
134,80,168,57,107,84,44,-82,-429,1066
64,100,183,35,39,21,-31,-111,-356,-129
-219,-48,6,-93,-76,-67,-83,-43,122,-1304
-265,-117,-129,-175,-133,-95,-45,20,402,-1036
-135,-110,-207,-196,-146,-83,-21,-11,223,-526
-56,-96,-283,-197,-136,-77,-31,-62,51,-262
-21,-73,-269,-145,-96,-58,-16,-32,36,-32
-30,-97,-200,-98,-62,-42,-9,-5,19,-18
1,-102,-206,-90,-46,-27,-3,-16,53,4
130,-12,-262,-98,-55,-52,-20,-37,-13,184
178,10,-236,-117,-81,-53,26,11,-47,417
235,72,-104,-97,-70,-31,42,63,44,522
215,97,-56,-70,-40,-23,10,28,66,290
79,23,-90,-88,-34,-11,-44,-52,26,-128
0,-29,-94,-63,-4,19,-28,-38,-36,-299
-3,-67,-106,-56,8,38,29,25,-64,-198
28,-79,-104,-40,9,43,53,59,12,-56
62,-32,-48,-11,12,17,24,68,151,-1
50,-14,0,14,16,11,16,80,233,28
82,15,59,64,45,29,14,89,137,192
90,60,109,87,83,29,6,-3,-144,320
83,59,47,55,79,16,-34,-58,-175,269
37,4,-7,1,72,34,3,25,-29,35
-44,-21,38,-8,27,26,32,51,60,-177
-65,-13,22,13,-23,-3,-4,56,150,-246
-30,-1,8,2,-48,-3,-9,75,151,-157
-56,6,12,15,-35,9,8,43,5,-122
-44,25,29,49,9,26,66,-15,-150,-131
0,36,34,56,25,33,124,5,-153,-119
-8,22,32,66,23,12,75,45,-30,-90
11,26,39,65,16,3,17,50,2,-75
84,56,82,77,32,18,18,17,-29,-36
103,83,98,102,37,29,6,-16,-33,24
83,102,140,114,33,21,-5,-12,6,55
-9,23,78,41,-27,-26,19,56,33,2
-80,-61,35,-18,-77,-63,8,70,104,-7
-17,-21,94,37,-2,-69,-92,-48,120,86
23,19,141,104,88,-38,-97,-110,97,111
-29,16,85,82,42,-39,-57,-72,54,29
-81,-8,-19,-3,-50,-79,-10,2,-57,9
6,30,-30,-22,-51,-80,17,2,-298,-13
17,-6,-88,-67,-51,-49,24,-10,-211,-38
-61,-45,-114,-57,-34,-18,-27,-46,35,-74
-78,-37,-51,-17,0,11,-18,-59,145,-74
-40,-17,4,4,10,37,11,-31,64,64
48,7,56,23,32,56,14,-4,-31,244
99,29,98,62,59,40,-17,-71,-184,203
40,11,32,67,46,0,-40,-82,-71,69
8,-30,-117,24,4,-13,-19,-14,36,15
-13,-35,-46,27,-8,-21,-54,-21,28,11
-24,-47,-8,12,2,5,-28,-22,4,0
-46,-53,5,-1,9,28,22,3,-47,-23
-5,-3,55,37,20,6,0,13,-86,27
37,32,85,63,45,15,18,24,-118,64
1,75,115,79,70,29,18,21,-123,55
-58,45,106,38,39,41,38,53,-6,137
-62,20,63,-2,12,48,41,53,107,168
-8,73,89,11,2,10,-6,7,33,-18
-33,33,15,-11,-27,-38,-9,40,-20,-246
-36,-34,-43,-6,21,-19,-46,36,-17,-189
17,-46,26,41,74,-16,-115,-42,-15,-102
4,-47,1,3,10,-20,-45,11,40,-121
-20,-72,-112,-23,-25,-6,55,86,115,-87
-7,-43,-46,-4,-11,3,89,64,-24,-93
32,-17,12,-4,-29,-28,70,-4,-182,-75
67,11,-2,-5,-48,-54,17,-41,-135,184
92,42,30,12,-12,-35,-21,-100,-134,424
84,-3,-11,-41,-40,-51,-39,-49,122,385
52,8,20,-46,-61,-78,-41,68,374,-12
31,50,62,-10,-15,-37,16,76,149,-242
19,48,30,-2,11,-10,0,-24,-36,-182
0,4,-70,-42,-8,-25,-14,-36,49,-64
-50,-97,-170,-122,-68,-26,38,43,140,-23
-19,-106,-168,-123,-80,0,80,29,4,40
7,-31,-109,-57,-45,20,91,-17,-86,105
12,27,-59,10,-20,-2,45,-56,-76,66
33,68,41,45,7,-10,12,-55,-5,-114
0,69,80,49,13,-3,-8,-27,27,-184
28,101,129,80,27,23,-15,-84,-148,47
103,151,138,109,29,27,-27,-112,-24,176
84,114,-1,79,16,28,-24,-60,95,18
18,-5,-82,-9,12,21,-11,2,110,-116
69,-26,-56,-21,42,4,-33,-4,52,-22
69,-55,-58,-59,-16,-13,-21,-5,-33,42
30,-107,-116,-125,-71,-32,-16,-8,-91,-3
33,-117,-178,-172,-106,-45,-9,48,-29,43
-3,-74,-134,-158,-104,-32,14,122,99,374
-9,-56,-93,-103,-69,6,2,46,78,537
-26,-27,-88,-56,-28,28,-53,-126,-144,-57
-167,-110,-216,-92,-60,8,-21,-56,-21,-687
-147,-122,-166,-85,-65,12,21,15,12,-486
-63,-82,-66,-38,-9,47,51,11,-164,-196
-21,-28,0,1,24,42,47,46,-60,-50
9,20,51,46,21,-12,-12,43,68,45
-23,4,-31,54,-3,-33,-35,-52,-141,-99
-16,2,-53,59,8,-9,-50,-107,-256,-167
-35,18,89,63,66,8,-39,-57,-198,-108
-9,68,166,91,100,-7,-55,-12,65,68
17,90,145,111,53,-24,-69,-4,294,314
48,87,157,98,0,-36,-53,-6,381,418
101,96,158,114,21,-13,-22,2,256,248
81,82,94,98,32,2,34,24,115,-11
25,46,48,42,27,-8,14,-6,-7,-49
-24,45,47,45,44,-12,-17,-37,-79,-73
6,59,59,50,33,-19,-18,-13,-55,-43
-6,9,-23,6,-7,-4,19,45,48,0
-82,-31,-39,8,-19,8,36,59,115,-58
-92,-42,2,-3,-37,13,69,68,138,-132
-42,-46,-8,1,-15,11,82,58,153,-45
-12,-12,-67,35,5,32,127,38,16,27
20,36,-27,78,41,56,149,-26,-268,90
64,67,38,120,77,-1,61,-102,-388,301
53,55,50,122,50,-44,-41,-172,-346,192
-62,-12,-22,40,0,-44,-72,-82,-14,-238
-136,-45,-25,-55,-51,-36,-23,69,230,-219
-108,-31,0,-61,-37,-14,-13,34,108,-58
-53,-3,-47,-28,5,21,7,-4,-24,76
19,20,-36,-23,12,32,83,61,-10,239
64,19,50,-37,-5,20,101,63,-15,238
1,3,59,-51,33,48,65,-14,-79,-116
-83,-40,19,-61,19,54,16,-61,-30,-297
-111,-78,-45,-86,-37,12,-25,-51,6,-219
-50,-38,-57,-57,-30,-31,-43,-4,-27,-81
9,-29,-149,-56,-40,-46,-16,20,-7,-23
45,-36,-129,-84,-50,-32,12,38,81,33
64,-37,-108,-82,-18,-17,12,34,105,66
86,-46,-87,-37,23,-8,20,18,17,-3
63,-59,-55,-31,-1,-22,43,54,-21,4
5,-27,4,-27,-9,-10,79,67,-29,-7
-4,45,83,19,19,15,82,-9,-110,-76
27,66,119,38,30,13,56,-43,-81,-39
53,92,95,22,20,13,6,-33,28,-1
73,101,109,38,26,20,-4,-33,-32,-23
70,30,97,42,27,11,13,24,38,-24
68,-27,63,32,20,6,26,55,85,29
71,5,59,42,0,0,24,58,3,137
57,25,15,66,22,-16,-27,-17,-82,179
20,0,-43,52,30,-3,-54,-93,-51,174
44,7,43,37,18,-11,-72,-104,-91,373
41,-19,19,17,2,5,-29,-37,-160,495
41,-52,-26,-2,-11,11,19,53,-70,249
-80,-85,-100,13,35,30,41,108,44,-422
-161,-94,-103,27,72,45,21,80,-9,-641
-158,-75,-72,16,30,23,-10,8,-160,-598
-179,-76,10,-6,-6,39,24,9,-218,-590
-184,-96,11,-42,-41,24,44,53,-233,-291
-38,-47,13,-36,-33,-8,2,41,-156,179
135,88,149,65,36,33,-37,-48,-63,208
78,104,149,51,27,46,-45,-70,161,-179
22,76,127,5,-17,2,-78,-22,256,-228
34,75,157,30,-7,-8,-91,-47,132,-63
23,100,164,45,0,-7,-74,-106,114,83
72,123,154,36,-6,-19,-94,-97,255,247
106,67,87,0,-19,-6,-71,-31,228,329
90,31,18,-33,-33,-1,-34,16,166,345
22,18,0,-36,-34,-15,-28,16,96,258
-12,9,-5,-28,11,4,-29,11,42,151
-12,-26,-16,-20,-3,1,0,49,67,84
-37,-48,-37,-26,-69,-20,-21,52,90,25
-19,-32,-24,1,-42,2,-15,27,67,0
-4,-16,12,26,-25,4,-21,-5,18,3
0,14,89,67,-8,11,-33,-10,7,43
-31,46,180,97,7,29,-20,-10,-22,20
-48,31,206,109,24,39,5,9,-32,6
-46,0,184,101,24,19,16,14,-54,-33
-52,-17,78,73,-22,-27,-39,-19,-66,-95
-44,-40,-112,23,-57,-61,-78,-56,-57,-91
-66,-51,-199,-19,-74,-65,-100,-83,-79,-94
-101,-56,-151,-61,-66,-35,-72,-69,-84,-131
-71,-55,-131,-98,-55,-21,-21,-28,-74,-118
-25,-73,-168,-133,-69,-19,-29,-15,-66,-15
0,-83,-199,-175,-68,-18,-65,-32,-47,68
-8,-77,-220,-188,-82,-39,-87,-26,-35,59
16,-64,-264,-193,-94,-58,-57,19,-7,229
44,-66,-231,-205,-96,-17,0,55,10,283
12,-58,-162,-181,-67,49,47,77,91,27
-42,-32,-114,-139,-46,48,3,75,156,-271
-10,-9,-62,-97,-22,27,-51,34,83,-258
47,-10,-30,-76,15,60,3,20,-89,-115
67,21,35,-42,68,87,73,55,-200,-23
-13,-22,-13,-81,13,56,134,141,67,6
-27,-26,-46,-70,-31,35,124,87,300,11
66,61,28,38,26,47,108,43,216,71
116,131,94,104,65,25,48,29,25,103
75,148,107,140,93,35,-16,-32,-107,20
62,143,97,133,111,56,-39,-133,-184,132
106,148,106,102,84,30,-32,-96,-126,527
160,128,96,56,22,0,6,11,-64,447
49,3,32,-11,-22,12,73,94,64,-285
-131,-102,8,-28,-53,-10,29,91,197,-550
-133,-83,63,14,-40,-21,-73,-32,28,-371
-151,-118,43,8,-51,-21,-34,-3,8,-205
-170,-162,7,-22,-76,-64,-6,79,79,-108
-157,-148,-22,-46,-62,-48,45,71,40,-128
-100,-69,-6,0,7,-12,11,-27,-109,-160
-41,-39,-23,-7,26,13,2,-62,-200,-177
1,-54,-79,-62,1,40,33,-56,-117,-58
64,-23,-81,-79,0,56,22,-87,-84,147
154,76,12,-12,42,57,-12,-128,-241,282
199,122,68,38,66,20,-42,-171,-384,408
109,38,-27,-35,20,-16,-2,-69,-161,413
31,-12,-74,-68,17,-33,-21,26,96,47
29,-3,-52,-33,38,-39,-53,49,295,-267
85,38,-15,27,19,-24,-7,6,249,-115
43,8,-12,32,13,7,46,-5,77,33
16,5,18,34,29,3,36,-24,-19,71
11,36,59,56,36,-4,43,-10,-84,-31
-56,13,55,19,13,-21,17,30,-80,-178
-118,-12,61,4,-5,-21,-20,56,-5,-188
-68,20,90,28,9,0,0,53,60,172
62,115,178,116,59,24,-9,-5,2,591
126,158,243,168,91,21,-24,-98,-158,630
64,107,182,126,73,4,-33,-110,-137,71
-12,-8,32,36,12,-19,-43,-27,98,-418
-67,-87,-58,-34,-21,-32,-30,47,287,-411
-58,-61,-27,-10,13,-10,-7,68,284,-255
-31,0,-47,53,95,42,30,50,146,-175
-29,-15,-128,35,51,32,19,46,79,-128
-34,-42,-103,-43,-44,-12,13,63,117,-84
-44,-51,-68,-98,-70,-28,15,58,141,-89
-55,-71,-87,-98,-62,-22,29,63,19,-152
-99,-101,-115,-92,-62,-23,14,71,-71,-215
-118,-95,-77,-71,-54,-4,3,38,-38,-214
-100,-62,-9,-31,6,39,-3,-5,99,-163
-36,16,0,34,50,37,-27,-11,272,-44
10,80,-50,95,57,19,-73,-64,244,70
72,136,68,148,100,46,-11,-99,-99,144
116,160,184,147,107,47,35,-138,-327,108
124,167,225,136,82,15,-4,-122,-175,158
73,119,229,116,52,28,7,-46,-22,205
6,75,237,103,57,62,23,-13,-83,109
-10,57,221,104,55,55,2,-21,-156,19
-23,-6,101,71,28,50,32,41,-67,35
-15,-24,31,55,33,61,49,45,-88,11
6,2,27,30,-13,-1,-27,12,-136,-15
15,16,0,-15,-53,-51,-56,29,-100,-16
28,31,-35,-8,-40,-39,-46,-32,-53,-47
28,70,-75,-16,-24,-22,-45,-77,6,-33
-6,78,-9,-37,-8,-7,-1,2,76,13
-75,36,12,-50,28,11,51,60,151,59
-91,-14,-27,-56,11,27,68,66,181,80
-37,-30,-32,-35,-16,10,59,64,118,12
-74,-83,-54,-60,-39,10,51,50,57,-86
-144,-141,-94,-111,-81,-8,18,22,-15,-101
-112,-114,-87,-97,-75,-17,-14,6,-172,-46
-54,-106,-100,-104,-60,-9,-20,20,-174,12
12,-91,-129,-109,-32,19,18,54,-79,63
53,-53,-106,-66,-15,19,-13,26,-30,107
90,-13,-53,-33,-6,-1,-21,-48,74,168
112,8,-57,-39,-5,0,-17,-77,70,201
138,43,-29,-39,-7,-18,-65,-67,57,220
135,46,-4,-46,-30,-40,-107,-30,87,227
103,27,-15,-42,-25,-16,-81,-18,46,191
64,-11,-88,-63,-19,10,-50,9,-15,125
37,-37,-199,-73,-40,16,1,28,-90,162
58,-21,-102,-43,-40,-11,-7,-2,-174,194
34,-18,-63,-21,-34,-21,7,2,-184,5
-57,-52,-138,-3,-29,-12,8,17,-186,-395
-79,-63,-91,15,-10,3,-38,1,-118,-436
-7,-30,-30,47,19,-1,-54,-4,-37,-176
0,15,19,80,65,13,-51,9,-13,-65
-10,20,42,113,143,78,-7,44,-26,-54
-58,-27,9,104,150,105,47,76,-43,-72
-89,-54,41,48,57,77,83,96,-13,-132
-107,-86,12,-22,1,56,101,114,73,-143
-75,-33,-8,-21,-9,28,47,101,192,-71
-62,32,-10,-9,-8,12,17,94,304,7
-99,44,97,-35,-24,18,43,50,358,67
6,106,169,-8,-6,-7,19,-26,274,239
80,137,159,5,-19,-38,-11,-105,-24,276
45,75,64,-22,-37,-58,-38,-162,-198,300
116,38,-20,-58,-42,-60,-26,-162,-230,784
265,113,-3,-15,-13,-49,-9,-129,-261,1016
217,112,-4,2,6,-36,-10,-92,-252,367
-17,-44,-118,-99,-60,-56,-56,-59,3,-178
-61,-107,-151,-116,-60,-30,-33,11,101,-230
-80,-110,-130,-84,15,21,63,137,212,-589
-128,-69,-117,-78,-15,23,86,131,197,-806
-88,26,-37,-30,-47,-10,45,82,125,-560
-59,59,24,24,-17,5,24,50,78,-322
-20,105,93,83,14,15,-30,-24,3,-212
3,115,85,103,17,6,-31,-21,-24,-168
26,69,4,75,15,12,-10,-8,48,-52
-13,21,-42,55,36,23,-12,-39,-17,-8
-107,-35,10,37,12,6,-14,6,13,-81
-84,-50,37,26,-30,-11,-26,13,-26,-90
-7,-64,-9,38,-18,-3,-39,-87,-160,-1
-9,-69,-19,41,-7,4,-41,-102,-222,4
-47,-86,-27,-12,-27,-1,6,18,-32,-39
-21,-111,-76,-62,-75,-35,10,129,269,16
36,-54,-14,-42,-35,-37,-28,74,263,32
42,-7,-4,-56,-37,-22,-3,69,338,91
55,16,8,-30,-28,-7,14,29,234,173
70,40,70,33,20,10,11,-23,-60,161
40,15,56,42,37,36,40,-8,-106,33
6,-18,-27,33,17,33,33,-35,-133,54
45,4,53,47,19,7,11,-51,-169,204
86,51,89,61,47,24,21,-46,-209,167
31,11,51,31,77,27,3,-18,-155,126
4,-8,2,0,85,31,13,47,39,140
-38,-18,-67,-28,12,27,26,57,195,-199
-101,-27,-21,-33,-51,11,46,34,208,-369
-93,-19,19,-23,-35,7,62,54,192,-226
-78,-33,43,-7,-4,2,49,57,176,-163
-69,-38,43,7,12,3,36,53,33,-168
-51,0,38,40,47,28,69,68,-110,-152
-54,30,34,89,72,39,91,90,-57,-168
-23,58,78,130,69,43,94,117,27,-123
36,96,138,191,97,55,46,35,-37,-41
54,130,215,244,134,57,-20,-126,-301,-71
60,117,255,249,119,16,-90,-195,-261,-11
68,62,236,222,72,-39,-114,-145,40,199
51,8,204,181,55,-34,-96,-94,140,297
23,32,240,149,58,-21,-102,-109,28,214
48,108,303,121,21,-87,-169,-153,-64,151
-28,43,129,3,-56,-96,-91,-91,-82,36
-134,-80,-119,-114,-109,-69,9,-10,-63,-67
-167,-131,-139,-180,-123,-46,36,49,-39,-77
-132,-120,-135,-188,-112,-26,30,72,-24,-62
-86,-83,-120,-160,-86,-24,-1,57,22,-53
-49,-50,-135,-159,-53,-33,-43,6,38,-40
15,8,-132,-134,9,2,-27,-17,-22,40
58,25,-127,-96,26,19,10,5,-89,81
80,-16,-213,-108,-33,10,-4,-17,-90,74
89,-40,-211,-120,-51,11,-9,-34,-10,90
73,-27,-215,-92,-30,33,-9,-26,43,88
46,-34,-200,-56,-15,32,5,-12,12,53
49,-18,-30,-23,-5,9,14,-3,26,62
67,13,75,13,20,14,-6,8,-7,78
62,30,84,24,16,27,-11,14,-8,77
2,25,76,11,10,45,-1,-29,-52,27
-15,32,77,3,-18,1,-36,-71,-63,30
-16,-1,17,-21,-74,-77,-64,-3,48,54
19,-45,-49,-46,-78,-83,-65,11,42,56
92,-45,-85,-26,-40,-52,-94,-28,-14,146
65,-69,-99,-35,-4,1,-16,1,-56,268
27,-79,-58,-41,38,48,83,62,-95,298
33,-60,-24,4,22,15,47,-9,-152,296
83,-2,10,72,28,7,-7,-109,-244,472
84,21,19,81,32,-1,-45,-139,-163,440
-102,-106,-45,-41,-48,-41,-53,1,143,-260
-228,-172,-126,-92,-65,-48,-30,111,212,-920
-189,-125,-194,-65,-16,-19,8,99,70,-735
-125,-41,-152,-32,38,19,72,71,-27,-339
-40,34,-11,30,54,26,85,45,-75,-37
16,76,29,88,81,31,64,19,-101,-28
0,49,49,60,55,11,29,40,61,-287
-18,11,51,-7,-8,-32,0,94,189,-345
-52,8,91,0,-16,-30,24,101,140,-266
-91,51,136,36,-4,-21,-11,4,-36,-282
-60,94,146,52,14,-12,-29,-67,-76,-224
11,94,132,45,7,-48,-35,-37,46,-74
-25,0,-1,-28,-51,-77,-6,22,76,-26
-76,-67,-100,-79,-70,-55,-21,19,64,-39
-80,-63,-112,-72,-36,-8,-29,-18,70,-35
-18,0,-71,-18,-16,-8,-35,-34,66,-9
88,45,-41,2,-48,-61,-17,-8,36,89
96,-13,-54,8,-38,-40,27,57,51,129
60,-63,-46,12,28,37,79,64,-15,126
60,-56,-20,33,77,54,76,23,-136,62
38,-54,-26,21,25,17,52,39,-128,24
71,-24,-13,17,-15,-34,-12,12,-150,56
120,4,1,30,3,-38,-13,2,-163,102
58,0,2,33,23,2,62,49,-67,75
23,6,36,44,33,21,83,45,120,75
25,9,60,52,43,9,66,18,142,96
9,0,45,37,30,6,63,0,172,119
-15,-19,50,34,33,4,23,-5,236,172
-13,3,111,70,58,0,-28,-18,201,228
-3,32,102,43,17,-16,-28,-31,109,182
11,10,25,-39,-54,-20,-6,-31,-3,230
30,-4,-9,-67,-63,-25,-10,-52,-171,213
43,9,-28,-65,-63,-36,-19,-16,-72,72
-13,-9,-45,-62,-39,-30,-15,32,58,-11
-6,2,-39,-43,-32,-65,-36,32,78,287
74,51,-18,0,-5,-69,-55,20,-43,593
80,58,34,17,25,-14,-20,27,-127,231
-62,-55,-33,-58,-18,-15,16,48,78,-413
-96,-80,-33,-61,-24,-11,58,80,153,-373
-21,-7,48,-2,31,25,42,-10,-47,-181
38,38,76,27,76,55,15,-76,-136,-22
52,55,122,55,139,104,49,-70,-185,24
17,29,99,51,102,92,97,18,-77,-71
-48,-19,21,2,-7,26,44,100,46,-99
-65,3,12,-11,-34,-33,-49,32,-46,-144
-76,-23,-47,-71,-83,-86,-102,10,43,-132
-44,-37,-94,-119,-133,-107,-107,38,247,-61
-21,-26,-77,-94,-108,-79,-63,53,239,-27
-14,1,-15,-32,-40,-18,-29,17,71,47
26,29,6,-3,7,48,18,-29,-102,88
60,83,38,35,38,56,38,-86,-311,15
8,75,27,27,26,21,26,-97,-222,-131
-2,46,-11,9,5,23,35,-47,-20,-94
50,47,-9,34,18,35,4,-15,47,37
62,54,36,38,29,16,-27,-10,94,65
53,41,68,39,42,4,-22,10,139,48
5,27,89,64,80,39,32,35,67,30
-2,44,60,77,62,30,13,-16,-10,26
23,64,59,79,51,19,-26,-77,-47,8
3,28,74,66,33,16,-31,-63,-43,22
-6,-9,40,86,46,19,-32,-38,-51,195
-10,-13,34,86,61,38,-5,-26,-108,368
-27,-13,57,79,53,58,54,23,-124,176
-48,-22,66,64,60,27,38,54,-12,-266
-165,-69,18,13,-20,-44,-6,49,100,-459
-193,-48,60,39,-24,-19,10,25,89,-300
-132,-25,63,8,-37,9,58,69,111,-111
-72,-31,22,-50,-69,-13,56,79,129,-48
-27,-41,-37,-59,-70,-38,28,56,90,-1
24,-10,-47,-31,-40,-31,-28,17,14,37
76,51,-45,-1,-17,-24,-44,-1,-7,78
60,56,-116,-5,-21,-14,-13,-30,-39,65
30,39,-72,-15,-29,1,44,-29,-84,64
30,66,-17,4,-9,22,61,-5,-24,88
37,74,-12,0,7,29,81,27,-57,196
84,38,-29,-27,13,13,87,36,-115,439
123,45,1,3,47,14,10,-42,-153,368
30,16,7,1,77,55,20,-17,-62,-247
-85,0,62,23,150,109,64,53,112,-558
-67,40,112,88,179,105,44,53,126,-334
-5,85,41,125,111,60,52,14,36,-43
3,83,99,125,61,35,64,-34,-93,148
9,78,162,136,23,-4,33,-33,-155,162
-2,65,188,116,-22,-52,-14,-49,-115,-24
-91,-26,109,37,-67,-78,-122,-100,76,-122
-115,-43,109,9,-59,-60,-132,-109,84,-65
-98,-27,110,-37,-64,-52,-125,-76,29,-62
-71,-50,0,-107,-82,-53,-133,-85,-62,-112
-70,-101,-96,-166,-102,-51,-102,-66,-120,-180
-95,-127,-195,-207,-125,-74,-88,-3,20,-185
-104,-147,-307,-222,-131,-84,-94,70,171,-177
-45,-106,-246,-207,-117,-71,-74,59,179,-28
7,-48,-183,-157,-83,-25,-32,18,77,194
66,-9,-192,-119,-37,42,23,-2,-71,304
150,41,-252,-73,1,77,45,-28,-187,380
124,3,-214,-75,15,82,53,4,-164,445
84,-20,-136,-99,-19,49,89,77,-7,333
80,15,-85,-85,-38,-31,19,62,107,-35
27,15,-82,-66,-43,-82,-70,-17,128,-133
-12,10,-176,-79,-28,-52,-53,-52,-11,-14
46,69,-79,-37,22,0,-14,-60,-65,4
86,103,64,35,97,41,12,-20,-34,-50
-34,-20,0,-4,42,36,51,34,41,-102
-45,-57,-41,-29,-14,7,27,-41,-98,-147
2,1,-4,8,3,3,43,-37,-136,-208
22,52,35,53,38,20,59,24,-55,-209
63,97,102,85,49,5,39,16,16,-142
100,111,146,89,27,-2,18,-22,-34,-65
17,75,142,66,22,38,32,-40,-90,-121
-40,53,113,32,-11,35,28,-17,-14,-165
7,74,90,8,-25,-6,-25,-30,102,-91
62,70,80,-7,-5,-17,-56,-33,142,49
88,32,-11,-30,-7,-17,-50,-35,84,108
47,-26,-97,-53,-18,-8,3,-39,-4,56
21,-85,-52,-30,-11,18,42,-37,-4,68
21,-114,-59,5,47,40,49,-22,54,111
27,-89,-95,32,77,5,19,-16,46,127
9,-33,-52,30,-7,-65,-15,-39,-21,114
-37,-18,97,28,-24,-34,-15,-86,-107,117
-11,-14,126,12,-24,2,9,-56,-71,191
55,31,149,14,-29,-17,-21,12,35,143
-1,-32,106,-28,-60,-47,-35,55,130,55
-11,-60,93,-43,-44,-28,-23,34,86,431
57,-17,85,-16,29,30,-8,15,21,815
91,19,24,-2,19,44,18,21,58,308
-104,-83,-102,-108,-56,-1,14,91,369,-550
-150,-137,-153,-179,-114,-34,-2,121,479,-556
-47,-71,-123,-120,-67,-10,-15,28,92,-260
-37,-1,-21,-36,11,8,-45,-59,-277,-200
-51,5,-79,-17,37,22,-37,-42,-256,-200
-39,-25,-129,-34,34,26,-20,0,-183,-64
-53,-39,-42,-41,17,7,6,8,-95,237
-3,0,31,-10,16,18,34,-27,-58,344
27,12,35,-9,4,20,38,-30,-57,-97
-40,-13,24,-1,8,18,32,-43,-113,-565
-32,12,69,41,47,17,2,-57,-210,-392
14,38,79,44,56,16,-53,-97,-243,-129
16,36,65,44,71,29,-68,-69,-212,-114
-27,-2,25,7,81,57,0,111,128,-144
-74,-35,-7,-24,64,67,22,132,305,-105
-57,-18,9,-8,15,51,62,118,236,2
34,52,95,69,9,40,92,144,221,185
91,120,186,152,43,47,97,79,188,251
110,175,247,206,73,36,93,28,58,297
118,182,272,213,74,0,55,22,-80,349
94,146,251,210,87,15,0,-48,-190,287
25,126,247,227,100,49,-7,-136,-222,54
-84,64,210,199,68,43,-2,-142,-227,-190
-96,55,214,147,-3,-53,-77,-86,-76,-174
-83,30,226,72,-70,-115,-122,-20,69,-93
-118,-36,152,-2,-103,-109,-91,15,2,-47
-100,-57,85,-42,-112,-102,-109,-11,-113,-72
-92,-59,51,-55,-94,-74,-70,-29,-173,-157
-100,-53,-10,-56,-62,-64,-63,-18,-110,-189
-42,-37,-145,-77,-65,-99,-131,-72,-194,-179
-15,-24,-135,-118,-56,-86,-153,-127,-220,-177
-1,-75,-212,-200,-79,-25,-58,-44,-50,-80
31,-109,-288,-242,-81,2,20,40,102,23
62,-82,-258,-200,-39,3,12,18,220,38
74,-61,-214,-153,-16,10,16,58,357,117
79,-21,-131,-94,47,39,34,52,161,154
47,14,-62,-40,128,50,11,17,5,180
71,18,-89,-71,60,2,-22,-2,2,219
120,21,-143,-96,0,-40,-50,-18,20,231
74,7,-135,-85,4,-2,2,-3,6,168
28,-22,-109,-87,-4,37,64,48,-5,112
28,-5,-54,-51,0,25,75,64,14,57
16,5,16,5,20,27,83,60,30,50
21,-15,44,32,33,36,86,66,89,100
7,-25,52,47,34,16,76,85,123,114
16,10,78,67,36,-16,28,83,100,83
-9,-8,37,15,13,-13,32,80,80,28
-25,-15,-46,3,14,4,30,25,28,-4
6,12,-60,32,51,12,-15,-48,-78,-2
-7,-23,27,41,65,-4,-26,-77,-194,-1
-26,-71,13,28,69,-3,-6,-49,-221,72
13,-40,-46,11,50,6,15,-1,-202,119
24,-15,-100,-44,0,1,14,18,-100,50
-2,-2,-33,-74,-25,-13,-19,2,13,-74
-19,42,17,-50,-6,0,-14,-27,114,-199
-32,78,55,-16,11,14,-1,-43,28,-171
-32,71,39,-10,-8,1,-24,-84,-55,-89
-3,31,-46,-33,-28,-24,-51,-70,40,95
21,4,-131,-30,45,12,-8,-25,66,120
-22,-33,-142,-28,48,22,37,41,134,-97
-20,-23,-49,-2,19,13,56,92,178,-165
56,26,21,30,26,17,56,67,68,-68
61,11,59,44,56,31,92,45,41,-32
23,-22,63,68,71,38,120,90,107,21
-22,-35,77,107,62,39,123,77,109,43
-58,-25,69,110,55,43,87,18,43,-6
2,-22,-32,73,10,-13,2,0,67,9
26,-13,-32,64,-13,-64,-64,-10,58,-15
-51,-41,52,36,-17,-65,-82,-31,-9,-94
-50,-58,99,21,-29,-62,-70,0,-37,38
-19,-31,107,12,-31,-57,-55,-29,-144,73
-51,-33,45,-47,-41,-19,-10,-46,-198,-95
-117,-89,-101,-119,-42,-20,2,5,-20,-208
-115,-75,-71,-120,26,11,21,87,141,-147
-45,-20,-45,-88,55,43,31,28,12,-109
47,32,-80,-55,25,4,-49,-155,-206,-96
57,44,-13,-47,-22,-22,-42,-148,-129,-42
57,51,8,-21,-3,-9,-55,-81,-3,1
43,38,-69,0,21,32,-43,-49,-59,-38
30,24,-109,-3,7,31,-31,-54,-98,-65
42,39,-8,9,-1,-19,-77,-64,46,18
40,11,18,-11,-30,-22,-78,-34,164,135
22,-23,-32,-16,-25,4,-49,-32,131,128
1,-51,-88,-11,-31,-8,-28,-15,68,55
3,-49,-160,-23,-42,-18,-14,26,29,48
6,-26,-118,-5,-35,-24,-20,30,-2,26
5,-10,-25,0,-25,-16,-21,23,8,25
-7,-24,12,-8,-21,-4,-31,18,8,57
27,-2,37,8,-9,-15,-31,-21,8,331
49,12,45,14,-35,-45,-35,-3,60,529
12,-4,19,-20,-59,-60,-23,40,122,180
-52,-14,10,-26,-45,-50,-68,62,129,-422
-81,-29,7,-2,-26,-2,-14,49,-55,-476
-68,-42,-82,-2,-23,45,130,48,-213,-344
-27,-18,-36,26,-3,32,120,66,-162,-252
4,31,51,99,95,59,97,34,-95,-142
53,77,21,133,158,102,78,-16,-35,-4
93,111,112,117,105,77,41,-46,-150,57
99,119,158,99,52,51,34,-52,-259,118
111,106,145,78,22,32,-3,-65,-211,265
130,100,129,67,-3,-3,-43,-53,-79,90
66,80,124,58,-8,-15,-59,-1,112,-214
18,36,98,32,-27,-13,-33,50,197,-98
3,0,63,19,-28,0,8,78,193,-14
-10,-32,-20,15,-36,-7,62,119,340,52
-19,-59,-42,-2,-35,-19,28,104,316,189
-22,-64,-13,-11,-27,-12,-23,4,93,509
5,-38,12,8,7,23,-18,-50,-144,604
51,34,38,26,33,36,19,-32,-239,-26
-58,0,-80,-12,6,-1,43,5,8,-637
-94,-4,-25,-13,31,6,63,37,127,-380
7,22,54,24,30,29,54,28,-23,-63
36,21,64,57,45,32,21,-24,-192,0
12,23,65,37,36,24,-13,-45,-172,-30
-50,-30,-8,-33,-21,17,0,16,-55,-152
-76,-66,-46,-69,-41,14,7,39,48,-362
-23,-3,17,-18,-20,-13,-30,10,76,-285
-23,2,48,24,20,4,-13,9,51,-126
26,-3,38,24,63,24,-5,5,72,78
71,28,48,27,28,-4,-49,-50,-73,92
15,18,39,32,-5,-27,-65,-18,-12,6
-28,-35,-17,10,-27,-44,-31,46,159,47
-61,-77,-53,-11,-33,-25,0,23,27,0
-83,-79,-61,-30,-35,-23,13,8,-69,-71
-72,-66,-87,-47,-50,-33,31,43,28,-58
-20,-46,-165,-60,-46,-34,35,83,177,64
51,41,-144,3,-10,-30,4,19,126,258
109,133,28,83,53,5,-32,-91,-195,310
96,134,74,84,83,77,26,-94,-389,0
-1,43,71,47,56,73,70,85,101,-63
19,82,137,98,70,86,72,122,284,389
140,207,282,218,147,132,82,-20,-64,468
73,139,229,181,139,99,75,-43,-130,-88
-60,27,127,91,99,46,64,74,210,-567
-65,20,86,52,50,14,87,138,364,-386
-27,46,81,63,8,-11,74,68,191,-129
-14,47,76,81,-3,-47,-15,-18,41,-34
28,13,57,93,-23,-72,-57,-32,16,54
23,-31,40,91,-33,-63,-31,-6,32,54
-37,-89,31,27,-69,-52,5,-2,-70,-51
-58,-84,95,-4,-79,-73,-19,-29,-56,-93
-85,-68,64,-30,-101,-89,-9,-79,-77,-121
-122,-102,-25,-91,-130,-78,17,-112,-166,-165
-126,-106,-91,-135,-128,-75,-49,-132,-111,-101
-89,-96,-180,-174,-118,-78,-127,-139,-34,-2
-63,-89,-325,-203,-115,-61,-95,-83,4,66
-41,-70,-330,-223,-104,-45,-30,-43,8,106
0,-63,-275,-222,-86,-30,-4,2,40,93
77,-28,-295,-185,-52,-11,23,72,70,105
135,9,-222,-135,-40,-10,37,73,62,135
99,-18,-201,-119,-24,6,59,68,41,139
88,-35,-170,-103,-18,31,68,71,2,129
70,-26,-86,-60,-2,37,43,78,40,132
-22,-27,-14,-13,15,39,25,71,33,67
-46,-41,43,-1,2,12,11,14,-66,-25
-13,-21,118,-1,28,0,-8,9,-81,-63
-55,-28,165,3,47,-1,-30,22,-106,-135
-87,-42,132,5,-11,-25,-62,-3,-143,-193
-85,-56,77,2,-51,-40,-78,-8,-32,-137
-63,-59,39,-8,-70,-54,-62,-27,61,-34
-7,-21,33,-1,-43,-19,-76,-92,106,50
100,59,74,43,10,16,-31,-161,19,151
182,134,120,68,46,2,-31,-147,-175,225
139,105,78,46,43,-3,-68,-111,-126,211
76,40,1,8,32,35,-72,-98,-2,190
84,13,-10,5,34,60,-18,-29,31,234
76,36,18,30,39,35,-56,17,10,188
-16,2,-29,12,18,13,-38,24,20,89
-32,6,-5,5,0,-2,-49,-9,-10,35
-13,10,-36,20,2,9,-25,15,10,19
-48,-64,-50,-12,25,49,47,131,83,9
-91,-118,-81,-22,-2,50,57,130,30,0
-68,-90,-129,-22,-26,9,-21,5,-86,7
21,14,0,0,-28,-20,-86,-54,-123,-62
10,28,44,5,-36,-38,-53,18,16,-177
-91,-50,-15,-26,-68,-46,-23,101,218,-172
-124,-39,-19,-13,-63,-30,-11,74,129,-144
-75,27,33,38,19,11,-18,-4,-117,-146
-30,39,39,82,101,44,-1,-16,-157,-142
-3,35,-30,76,56,9,-12,-20,-77,-112
48,75,69,91,43,-19,-28,-44,-51,-63
71,62,86,66,13,-24,15,-3,43,8
67,16,68,65,9,-5,34,34,155,78
28,17,77,110,28,11,15,-5,42,130
3,24,69,99,36,26,5,-51,-51,196
27,50,21,91,44,13,-37,-91,-89,188
65,78,102,100,46,-46,-98,-137,-137,154
53,65,123,74,26,-41,-81,-119,-134,231
32,21,55,32,13,13,19,-27,-124,276
43,-14,14,36,18,36,64,39,-108,137
2,-38,1,6,8,11,65,99,-80,-168
-55,-49,-14,-12,-8,19,83,97,-102,-193
30,22,34,27,49,69,107,47,-124,-91
87,102,132,69,137,103,126,40,-127,-200
-45,25,82,24,93,74,116,100,51,-331
-92,-25,57,-12,9,18,77,82,140,-247
-17,25,86,-10,-12,-31,19,20,172,19
1,48,95,1,-8,-47,-14,-10,230,130
7,68,112,43,9,-20,-8,-5,138,-1
-57,2,34,26,-9,-37,-15,-17,46,-111
-56,-56,-62,-3,-15,-47,-29,-20,71,-16
-18,-44,-27,-5,-27,-44,-29,-8,95,32
-40,-71,-21,-31,-43,-27,12,31,114,5
-61,-89,-16,-42,-45,-2,63,75,134,25
-29,-30,19,-41,-32,-15,56,50,38,42
0,-3,19,-45,-40,-69,-59,-79,-32,126
-28,-22,-30,-66,-66,-91,-86,-87,10,187
-36,-38,-55,-106,-89,-91,-78,-55,48,83
-49,-52,-96,-145,-115,-103,-77,-48,118,-136
-47,-68,-150,-146,-106,-102,-66,-68,51,-203
15,-48,-187,-134,-65,-80,-58,-51,-34,-93
30,-35,-183,-112,-52,-55,-4,-6,-26,-3
47,0,-132,-68,-28,-26,47,43,1,461
123,27,-70,-31,0,6,68,1,-54,1062
156,71,-31,37,53,46,34,-75,-189,687
-24,45,-55,78,106,61,58,11,-59,-693
-137,-27,-134,45,95,54,76,62,83,-1022
-19,-60,-156,-35,-10,22,30,-9,47,-485
73,-23,-159,-54,-47,-9,-11,-31,54,-198
15,-31,-137,-11,-14,8,-22,2,108,-179
-10,-60,-151,-33,-14,13,-25,40,218,-68
2,-55,-124,-39,-23,5,-24,36,204,28
3,-41,15,-20,-6,-11,-19,4,15,-29
18,-46,76,8,-7,-44,-18,28,-44,-35
8,-34,99,23,-18,-54,-17,28,-35,-16
-65,-74,68,13,-28,-21,38,37,-81,-49
-21,-34,31,65,1,0,25,25,-38,260
76,50,100,117,44,25,-1,-9,49,618
90,90,185,147,73,49,5,-45,-76,278
-29,17,132,90,47,24,18,0,-51,-420
-10,5,125,60,53,5,-1,11,11,-362
57,46,65,64,36,17,-29,-37,-66,-127
22,29,10,36,19,50,-27,-61,-118,-45
1,8,5,13,16,60,-5,-67,-122,3
22,0,-5,-9,-1,26,-1,-38,-109,-22
-12,-37,-21,-40,-30,-2,-9,-7,-51,-46
-21,-46,-42,-64,-21,-5,-19,-15,-28,-51
6,-70,-63,-76,33,35,20,30,-17,-35
-2,-86,-58,-92,68,44,29,58,-66,-45
-32,-43,-53,-110,-34,-17,17,49,-82,-61
-94,-40,-34,-110,-78,-32,19,11,-51,-30
-44,3,14,-53,-21,4,10,-96,-183,-11
70,72,87,24,33,23,-11,-207,-344,-47
77,43,56,17,10,0,-41,-186,-260,-36
44,-17,-24,-51,-45,-10,-6,-21,80,156
-23,-79,-78,-116,-65,-12,32,155,471,285
-16,-35,-21,-75,-56,-25,16,137,359,192
6,20,54,10,-25,-24,-18,44,80,99
9,50,78,58,16,-2,-38,-11,-79,-26
-8,31,48,60,22,-8,-75,6,24,-75
-11,-6,5,27,1,-2,-47,46,138,-43
-11,-24,-18,9,-2,33,36,74,46,-63
14,16,-11,29,36,50,40,38,-233,-94
37,61,12,45,72,40,3,21,-315,-76
13,40,58,26,25,13,-16,29,-38,0
4,31,48,10,-25,-16,-29,41,169,56
26,40,18,33,-21,-16,-23,46,128,77
29,49,-43,59,5,11,-10,49,38,35
-9,49,3,61,24,36,2,41,-10,-39
-33,37,95,61,25,35,3,28,-28,-71
-29,17,137,52,23,25,13,29,-13,-38
-4,23,130,42,7,5,7,18,2,17
25,51,139,43,3,-17,-28,-3,53,131
10,42,140,45,8,-32,-44,-24,78,290
45,85,184,93,40,-27,-29,-29,-25,323
19,101,199,115,53,-12,-24,-35,-138,109
-106,-19,71,27,1,-13,-9,1,-78,-39
-76,-37,-8,-32,-14,-24,-29,-14,-74,94
-20,-4,-82,-50,-28,-43,-54,-19,-77,77
-47,-32,-179,-68,-35,-51,-25,0,9,-180
-22,8,-79,-19,-6,-44,0,34,143,-67
42,5,-25,32,24,-29,-29,6,161,189
45,-47,-154,21,26,5,-33,-34,54,81
-4,-26,-84,41,26,19,-6,-37,-2,-196
-33,-16,8,47,37,25,-10,-58,-21,-268
-43,10,-13,47,75,58,2,-81,-81,-165
-28,40,-11,43,79,60,1,-59,-116,-84
-32,5,32,13,0,50,35,-35,-149,-25
-19,-39,-4,-36,-46,32,28,2,-92,81
11,-22,-20,-56,-73,-18,-4,43,35,111
19,-12,-42,-60,-60,-15,15,80,213,220
21,-19,-66,-72,-44,8,5,49,260,419
19,-13,-31,-48,-23,14,-8,-5,89,236
-23,-37,-13,-64,-54,12,16,-27,-138,-403
-23,-38,-4,-79,-78,2,31,-52,-230,-524
-31,-27,27,-82,-80,-27,31,12,-82,-282
-78,-99,-60,-145,-110,-25,79,104,-46,-211
-65,-132,-155,-196,-124,-1,128,149,-66,-183
-51,-96,-234,-152,-93,11,117,109,-96,-224
-63,-59,-189,-94,-49,24,91,44,-17,-169
13,15,-16,-25,8,4,17,-26,36,19
80,58,45,26,0,-40,-75,-103,-36,108
62,48,50,40,-4,-26,-59,-116,-97,24
6,29,56,48,0,13,-13,-50,42,-15
-4,21,76,63,19,19,-23,-4,177,101
11,-1,73,55,25,9,-87,-48,182,176
-30,-32,12,30,22,14,-42,-20,149,63
-24,9,-23,31,47,39,26,24,60,2
35,13,38,11,51,42,16,14,-1,49
46,-8,-26,-11,-14,-15,-22,-6,16,72
22,-18,-65,-31,-42,-34,18,36,172,70
5,-11,-36,2,-18,-22,52,71,258,71
-39,-25,-47,9,-2,6,61,58,148,26
-23,-10,-23,8,15,24,41,-47,-5,17
22,43,32,14,35,23,15,-55,-23,48
12,50,36,0,31,33,26,5,-28,42
-2,24,-40,10,13,35,41,50,-4,16
-18,33,-32,58,36,38,34,62,-21,-19
-8,38,63,94,43,31,27,30,-102,3
29,43,78,101,25,33,33,0,-180,89
42,64,86,97,19,27,15,-61,-148,157
-2,39,61,84,31,48,42,-37,-43,130
18,55,104,84,75,66,59,72,78,107
-37,43,150,75,99,58,11,77,92,49
-139,-43,96,43,39,43,25,9,-52,-84
-91,-58,65,28,-21,-9,-34,-54,-23,-97
13,-11,35,20,-28,-46,-77,-12,130,51
68,19,51,38,-14,-26,-56,0,162,124
49,34,39,36,1,-19,-55,-71,35,65
44,43,29,40,16,-20,-44,-105,-84,23
4,7,25,16,18,-15,-29,-65,-112,-15
-85,-44,-53,-44,-30,-2,24,15,-40,-53
-91,-68,-96,-84,-63,27,54,9,-45,-60
-2,-53,-77,-67,-65,-12,-18,-60,-90,-49
57,-3,-42,-33,-62,-68,-91,-103,-83,2
2,-2,-25,-23,-40,-44,-79,-100,-79,15
2,-55,-72,-45,-25,-1,-39,-65,-68,93
65,-60,-89,-27,9,18,-17,-58,-90,410
98,-13,-37,13,42,29,13,-57,-130,624
134,60,52,55,54,39,50,0,-98,220
24,-9,3,-8,0,6,62,106,150,-332
-27,-42,-7,-48,-26,-15,44,88,177,-308
37,2,30,-44,-17,-12,17,22,23,-48
56,0,33,-44,-26,-26,5,0,-28,100
15,-5,41,-36,-2,-17,-1,3,-20,-65
-50,-38,36,-33,58,28,44,42,41,-317
-77,-60,-9,-45,35,18,43,57,34,-311
-44,-45,-58,-59,-33,-55,-29,12,-21,-235
-33,-11,-61,-54,-53,-71,-56,5,-45,-175
-75,-35,-130,-81,-69,-41,5,36,-50,-122
-99,-60,-166,-89,-74,-23,35,47,-62,-66
-94,-72,-120,-91,-78,-37,44,50,-77,-100
-61,-53,-47,-38,-28,-5,32,24,-65,-263
-22,-23,-31,-18,3,36,30,1,-7,-202
37,29,-2,6,10,22,-14,-60,14,218
107,76,57,46,12,-29,-49,-94,43,579
112,67,65,39,0,-39,-58,-50,109,410
43,57,36,13,0,2,-23,7,183,-187
15,74,27,15,5,28,11,24,115,-255
34,70,2,15,27,46,20,1,-13,193
118,126,0,75,89,41,-7,-80,-153,512
172,154,41,107,78,0,-41,-89,-220,177
17,37,-41,32,25,-36,-43,-52,-120,-517
-65,-4,-42,5,12,-26,-81,-65,8,-520
-48,7,-13,11,21,-17,-81,-45,59,-301
-70,-2,-25,-17,-11,-33,-62,44,135,-221
-112,-48,-82,-77,-41,-30,-23,139,290,-101
-62,-5,-29,-29,39,18,-3,87,146,-10
0,48,8,18,75,37,-15,43,15,14
4,27,-17,39,24,7,-40,16,6,13
-31,11,-37,52,17,21,-10,19,54,-40
-47,4,54,29,7,4,13,119,274,17
-19,15,88,20,-22,-28,-23,147,363,150
9,56,50,50,3,5,-32,90,139,170
12,68,73,71,36,65,56,52,-105,54
23,108,154,109,57,58,88,14,-70,21
38,118,155,115,49,23,12,-23,21,18
44,93,126,91,34,-3,-101,-74,0,31
53,68,86,54,6,-4,-102,-46,-13,90
34,31,35,25,-13,12,-17,2,-41,116
-16,-9,-2,6,-28,28,48,12,-69,97
-43,-39,-10,-7,-19,41,52,-27,-107,6
-48,-49,-19,22,56,81,10,-34,-121,-49
-66,-58,-25,56,108,97,18,1,-90,-73
-55,-44,-4,46,53,57,19,34,-17,-41
67,0,-26,-9,-28,14,29,62,92,83
100,0,-118,-32,-43,19,43,55,95,184
30,26,-24,16,-23,2,8,-8,-28,160
6,93,163,51,5,4,-38,-61,-85,26
-50,29,153,7,-14,-11,-53,-60,-12,-78
-66,-84,29,-84,-71,-49,-67,-14,47,-48
-23,-118,-37,-144,-120,-49,-22,32,75,32
19,-87,-32,-117,-103,-21,20,57,76,-2
64,-38,-28,-84,-84,-34,16,80,105,-44
34,-21,-63,-101,-92,-56,0,65,84,-50
44,27,-74,-81,-71,-36,0,20,6,-27
87,48,-86,-34,-20,-19,8,-30,-48,0
104,39,-122,-8,6,-22,0,-79,-146,-32
48,-28,-248,-38,-21,-23,17,-43,-119,-65
-8,-101,-226,-81,-48,-4,31,-6,-132,-80
-64,-118,-136,-76,-46,-14,5,-21,-207,-119
-69,-96,-61,-61,-44,-50,-13,-49,-198,-86
-1,-48,-11,-54,-35,-50,-13,-60,-150,-29
44,-38,0,-55,-37,-28,-9,-61,-81,-85
-6,-39,-14,-62,1,-5,14,-13,78,-164
40,13,38,-14,99,31,21,-4,56,-27
111,37,15,7,99,30,-12,-31,-52,63
83,-6,-109,0,26,11,-14,-14,30,36
49,-52,-89,-5,13,54,15,49,212,111
84,-45,-22,19,23,53,13,83,193,194
81,15,50,70,34,32,5,42,40,247
53,58,71,62,33,34,28,27,-47,243
40,66,124,48,11,27,44,55,-93,59
-36,49,146,34,-28,5,33,72,-72,-173
-98,22,175,35,-25,0,14,35,-128,-145
-141,-14,177,27,-17,-21,-4,-20,-244,-74
-130,-24,138,32,-9,-30,-21,-59,-241,-65
-67,-10,58,34,10,-14,-14,-52,-61,-111
-95,-43,-28,-11,4,-25,-14,-33,107,-165
-122,-82,-81,-44,4,-19,1,-35,107,-91
-70,-60,-74,-6,8,-3,24,-47,145,59
22,4,0,84,43,-19,-14,-52,147,264
129,73,113,175,92,-22,-30,-64,96,588
194,87,51,161,82,-22,-58,-80,35,708
100,29,14,88,41,-19,-28,-39,47,274
-70,-43,11,25,2,-36,-16,10,127,-208
-144,-96,-22,-25,-29,-49,-4,47,150,-342
-176,-95,14,-55,-1,-25,12,76,147,-391
-127,-65,65,-77,-26,-56,-1,97,140,-255
-81,-58,20,-103,-73,-83,8,99,166,-125
-79,-61,-35,-126,-83,-65,3,71,187,-80
-48,-8,-37,-91,-46,-43,-51,-9,158,-32
0,71,26,-23,18,-11,-50,-28,12,-7
16,89,19,5,30,3,-29,-63,-276,-74
-23,-13,-76,-28,13,31,-14,-60,-242,-100
-14,-75,-146,-67,-30,37,56,5,-158,5
20,-26,-93,-29,-26,24,95,10,-220,164
24,25,-30,21,13,25,46,-29,-201,57
1,37,7,39,19,29,8,-27,-74,-290
-5,47,48,45,30,27,-9,-51,-51,-325
48,84,69,35,33,14,-41,-63,-1,-107
66,81,62,16,38,17,-42,-77,-1,24
33,65,68,23,84,34,-41,-94,-55,14
22,68,-6,20,85,32,-20,-57,2,33
27,55,-9,0,7,13,0,-1,19,67
63,28,18,2,-27,0,24,20,-78,62
48,-6,-13,22,-5,-22,14,9,-163,24
26,-25,-59,38,24,-14,13,-3,-196,7
-15,-41,-181,10,10,12,25,23,-75,-43
-60,-76,-227,-30,-13,0,18,75,162,3
-52,-66,-106,-30,-22,-11,16,111,256,64
-23,-44,-37,-13,-33,-16,-14,51,88,80
-30,-53,15,-13,-43,-46,-21,-27,-7,61
-29,-57,-3,-53,-58,-48,16,-14,134,151
6,-13,9,-50,-24,-16,32,-14,120,167
72,74,66,0,18,0,13,-28,-37,39
26,35,18,-31,-7,-20,-8,21,-80,-58
-44,-73,-76,-114,-55,-27,6,77,61,-33
-61,-92,-83,-124,-56,-10,25,87,156,-59
-48,-43,-64,-84,-13,29,30,45,112,-120
-4,-12,-64,-57,-1,27,29,37,55,86
78,9,-41,-25,8,17,37,6,-96,607
150,58,15,25,40,24,43,-65,-330,734
91,45,28,25,52,32,62,-61,-225,92
-64,-23,7,-17,44,18,49,-4,202,-272
-45,16,44,37,116,43,19,-35,143,-131
-58,18,-43,49,88,19,29,-25,-44,-338
-104,-33,-59,-6,-7,-24,56,62,52,-391
-32,-22,-7,-2,-8,-17,41,59,198,-210
-4,-3,16,18,11,-4,37,50,213,-138
-45,-26,34,38,15,2,51,85,176,-144
-66,-35,43,48,23,-2,68,106,146,-47
-14,3,9,73,45,1,26,51,-26,143
87,91,9,120,65,-2,-72,-78,-236,174
87,69,-40,85,25,-20,-92,-57,-26,84
25,3,-21,15,-12,-36,-82,23,127,72
44,31,78,24,9,-7,-34,19,43,53
82,93,122,57,24,4,12,16,-30,23
87,100,85,57,15,-6,18,29,-44,12
70,86,41,48,26,0,-1,-28,-86,-9
38,61,-7,40,30,27,-21,-79,-136,19
-22,4,-93,18,-2,52,56,-5,-106,39
-36,8,-25,13,-16,48,84,46,-51,-37
-45,37,104,13,-21,5,47,61,14,-128
-80,13,147,12,-11,-23,-5,32,-49,-125
-92,-14,132,-25,-28,-59,-60,16,-71,-78
-121,-13,139,-46,-21,-54,-86,1,-76,100
-111,0,156,-10,55,-14,-85,-14,15,392
-70,-40,65,-18,43,3,-63,34,125,375
-62,-106,-51,-35,-23,-1,-16,81,109,-134
-23,-33,-14,32,2,14,-22,19,-19,-461
62,24,25,98,43,39,-13,-73,-136,-351
20,-21,-16,64,13,42,16,-96,-120,-193
74,15,0,77,32,58,29,-77,-118,-75
51,42,15,106,60,121,79,39,-37,-94
-117,-3,-14,79,25,82,79,153,162,-156
-91,22,30,96,19,13,-3,72,-17,-233
-91,-19,56,66,-5,-1,-15,13,-103,-216
-117,-48,83,30,-25,0,-5,26,-36,-77
-50,-7,147,23,-41,-22,-28,58,85,119
-34,1,152,2,-53,-50,-32,46,48,74
-79,-28,82,-40,-50,-33,0,24,42,-137
-84,-28,55,-48,-1,-26,-38,-42,154,-149
-8,22,61,-69,-18,-76,-120,-128,116,4
72,22,-14,-128,-92,-130,-111,-97,112,106
101,25,-62,-98,-75,-103,-69,-116,-159,76
77,20,-89,-57,-24,-68,-85,-127,-288,39
52,-28,-211,-84,-35,-61,-72,-33,-46,13
53,-65,-256,-93,-43,-51,-43,28,68,-25
59,-56,-186,-65,-7,-28,-44,5,21,-41
57,-31,-149,-33,16,-9,-39,-17,-49,-73
70,-19,-156,-41,1,15,-8,-3,43,-37
122,-11,-122,-17,13,33,-3,-8,12,54
151,21,-68,12,22,32,9,-13,-121,193
144,26,-43,6,9,5,4,-2,-65,312
148,39,0,40,18,10,-24,-11,-76,246
139,34,20,66,34,16,-35,12,-31,167
29,-7,46,16,8,-6,-28,26,9,117
-11,-40,31,-31,-30,-18,-12,2,-83,85
5,-41,-46,-28,-26,-5,4,-11,-157,95
43,-27,-86,7,21,35,26,11,-204,37
-8,-14,26,33,46,63,75,62,-89,-108
-43,-3,95,54,37,52,74,85,172,-88
9,47,126,87,43,41,44,37,163,-35
24,81,131,89,72,39,23,10,43,-48
2,74,126,65,88,31,-8,2,-35,-82
6,27,32,6,1,-12,-22,15,58,-26
4,-32,-63,-55,-86,-49,-42,25,146,45
-21,-65,-87,-83,-98,-74,-38,12,76,51
-34,-79,-119,-111,-99,-76,-4,43,120,59
-55,-121,-178,-132,-80,-37,45,40,65,-11
-55,-96,-163,-112,-53,-27,51,4,-101,-1
12,-12,-99,-70,-12,-40,-19,-41,-159,326
116,53,-18,-42,3,-38,-109,-99,-102,549
99,43,-3,-40,-3,-4,-20,-49,-17,55
-54,-28,-69,-43,-3,35,54,45,211,-467
-80,-26,-38,-10,47,83,94,78,263,-204
-6,10,55,65,79,110,99,42,13,105
47,45,125,129,113,113,96,-3,-122,75
-26,24,138,131,119,107,77,-40,-104,-241
-67,-10,136,71,45,74,68,6,52,-326
-32,12,158,43,5,47,66,23,116,-182
-17,64,180,71,21,7,13,32,151,-116
-14,50,68,47,11,-25,-30,-14,60,-54
-11,42,90,2,-2,-41,-44,-80,2,-17
-17,31,114,-13,-17,-56,-81,-47,117,38
-36,-27,51,-38,-15,-35,-82,-32,120,60
-19,-12,69,-22,51,1,-91,-78,-41,37
0,8,33,-29,34,3,-101,-86,-130,3
-23,-49,-78,-100,-79,-36,-95,-32,55,11
3,-56,-157,-142,-98,-32,-58,46,112,75
45,-18,-172,-98,-40,4,15,35,-138,-1
40,9,-170,-75,-21,18,69,26,-152,-47
12,-6,-99,-55,-9,39,88,25,-75,-29
0,0,-41,-22,18,34,53,15,-40,-1
-2,5,-28,-13,10,11,8,9,-18,161
38,33,2,15,15,1,-3,-54,-103,425
60,66,52,31,29,13,0,-57,-157,379
7,55,57,19,15,14,-5,-3,-84,35
-59,46,42,13,8,4,-5,7,-62,32
-19,83,34,57,35,36,22,4,-72,101
-33,38,37,40,43,58,56,80,110,-334
-57,-30,-27,18,79,66,58,111,228,-383
-2,28,-18,70,85,64,26,12,34,-157
-18,28,16,49,13,41,8,-37,-114,-109
-30,22,52,28,-20,7,-35,-64,-267,-128
-75,-13,47,-6,-53,-49,-73,-73,-248,-206
-83,-45,61,-9,-50,-54,-48,-40,-59,-204
-35,-47,30,8,-24,-31,-40,3,151,-152
-1,-33,1,-5,-21,-25,-34,33,207,-92
29,0,-43,0,-33,-34,-54,16,267,49
71,62,-99,33,-15,-16,-71,-19,202,145
117,95,-9,39,0,1,-60,-59,-18,121
120,81,29,24,9,17,-18,-51,-57,101
109,55,23,14,20,31,24,-12,-18,124
101,29,47,-5,8,41,75,25,32,168
90,14,57,0,12,57,113,57,45,130
46,25,78,11,11,49,81,41,3,44
2,55,111,36,-8,27,26,7,-31,-6
-10,53,99,35,-14,10,4,14,-28,6
-19,19,23,-2,-39,6,47,63,22,29
-38,-15,-21,-43,-66,0,38,106,69,11
-80,-57,-97,-67,-71,-13,21,107,103,-31
-49,-47,-71,-56,-62,-30,12,83,172,-4
-12,-37,26,-32,-14,-6,19,84,158,48
-4,-20,71,13,51,23,17,53,10,176
6,0,52,40,41,14,-20,-89,-236,242
15,18,95,32,10,-1,-23,-148,-390,84
0,14,84,1,-12,-1,6,-83,-301,-162
-11,10,38,-25,-29,16,39,-6,-145,-313
34,33,15,-11,1,48,55,-10,-114,-296
45,20,-22,-15,16,63,24,-60,-124,-153
41,39,-30,-29,17,35,1,-35,-18,-12
57,50,-12,-44,-13,-4,1,56,113,14
9,42,10,-4,-13,-18,-5,97,197,-68
-49,21,21,29,-3,-26,-24,84,239,-46
-74,10,28,69,37,8,-25,33,186,-43
-82,-30,12,74,46,34,12,-17,179,-38
-38,-39,0,71,39,49,52,-4,245,45
-3,-14,36,88,61,54,32,-3,66,93
-25,-7,55,116,66,30,-6,-41,-232,72
-1,0,40,80,34,-20,-29,-50,-308,69
25,34,58,41,-12,-68,-86,-79,-229,111
-3,77,101,20,-35,-77,-94,-86,-252,104
-7,73,38,-3,-31,-54,-56,-99,-338,43
21,31,-78,-38,-39,-42,0,-39,-174,43
-16,-52,-71,-88,-24,-5,104,91,99,4
-111,-107,-92,-87,65,64,171,142,196,-255
-102,-82,-83,-90,57,51,140,101,247,-286
-7,-28,-53,-77,-13,-3,81,45,153,-156
68,30,1,-52,-9,-16,32,-73,-39,-63
82,31,1,-41,-12,-22,-4,-140,-100,126
95,44,-7,-33,-5,-9,12,-111,-37,264
129,95,32,-7,19,-8,3,-43,71,229
44,50,-21,-60,-17,-38,-44,-5,218,122
-40,-2,-105,-112,-69,-48,-68,-19,211,76
-25,0,-133,-105,-68,-28,-37,-41,48,50
-33,-17,-140,-89,-70,-19,-24,-27,-57,67
-47,-50,-104,-75,-79,-34,-25,5,-50,111
-16,-63,-67,-82,-78,-24,-24,24,57,111
-8,-64,-6,-59,-58,-20,-13,56,232,95
-53,-82,33,-50,-34,-6,10,87,302,56
-29,-61,58,-25,23,45,18,37,271,41
0,-6,8,21,24,21,-67,-90,72,-12
26,40,6,62,29,-24,-154,-175,-87,-20
12,44,-21,48,31,-41,-113,-178,-177,-2
-27,-3,-72,2,18,-2,13,-103,-165,-6
-17,-12,-47,-13,22,18,70,-14,-74,-14
60,19,-49,-33,6,33,66,15,-18,38
52,27,-33,-16,37,77,81,-6,5,48
-14,-12,-87,-11,6,54,101,26,0,-27
-33,-59,-89,-33,-31,26,113,62,0,-72
-30,-33,-5,-23,-32,3,88,39,-39,-70
-66,-34,-17,-10,-31,-3,73,-10,-122,-72
-96,-66,-4,-11,-35,-3,77,13,-101,-74
-55,-30,26,3,-22,-21,50,29,9,-1
-12,3,58,21,-2,-18,37,26,72,215
35,20,45,26,15,11,57,18,79,481
79,68,70,74,42,41,66,-10,-67,405
13,53,99,79,43,44,71,-6,-199,-203
-61,-2,48,46,24,22,49,14,-109,-479
-62,-32,48,27,8,10,-4,5,-50,-355
-62,-31,130,22,-2,1,-42,-43,-121,-280
-58,-40,92,8,0,-21,-60,-69,-187,-163
0,-36,58,-4,33,-23,-69,-88,-148,20
120,55,88,28,71,0,-56,-84,-120,-2
77,42,9,-9,4,-22,-38,43,239,-22
-24,3,-36,-52,-34,-40,-36,32,395,2
-4,12,-18,-27,-25,-11,-16,-42,24,-23
25,22,0,4,-26,-8,16,-28,-146,-30
25,-9,-4,0,-17,-14,45,53,-29,-24
1,-64,0,-1,-4,-8,38,98,-27,78
-15,-74,23,16,2,-10,6,43,-114,215
-20,-8,71,52,5,-7,-29,-45,-163,-3
-50,-34,38,27,-10,-14,-55,-88,-104,-287
9,-45,-19,10,-13,-28,-58,-59,-142,231
93,-26,-97,-2,-22,-40,-38,29,-86,800
129,-4,-71,-4,-34,-41,-50,38,123,358
3,-39,-100,-50,-47,-44,-36,57,390,-506
-40,-9,-71,-29,-1,-29,-29,24,291,-368
41,54,-11,-3,12,-39,-43,-35,-15,10
72,56,-18,-35,-10,-30,-17,-9,-64,19
-1,27,-66,-79,-44,-15,21,76,92,-115
-12,26,-53,-74,-38,-8,7,48,68,-94
16,7,-35,-52,-20,-14,-26,-20,-98,-59
-3,-9,-43,-21,-15,-21,-60,-42,-77,-47
-53,-55,-61,-32,-4,1,-7,29,168,-35
-68,-53,-15,-20,45,37,15,56,195,2
-59,-14,-9,-4,22,26,28,39,87,-4
-10,33,2,32,-14,-1,27,28,-50,-33
8,38,15,59,-2,0,15,38,-159,-36
-43,-14,-117,47,14,30,59,65,-122,43
-22,-7,-103,72,26,39,58,59,-86,165
44,27,35,104,52,29,6,33,-77,121
38,20,66,112,64,38,-23,31,112,-40
-14,-11,50,124,58,62,7,28,150,-103
-22,11,99,114,20,43,70,46,30,-46
-32,24,159,88,-7,15,108,76,33,-16
-23,36,189,77,9,-6,35,22,-121,-71
-21,32,152,47,2,-41,-39,-17,-188,-90
-72,6,97,9,-12,-38,-5,38,-124,-105
-101,-4,81,17,26,-27,24,67,-7,-154
-68,14,77,22,68,-13,39,47,44,-159
-35,-10,-38,-33,-15,-45,15,-37,-30,-131
26,-8,-82,-61,-44,-47,-30,-101,-31,-22
69,4,-77,-72,-54,-62,0,-25,132,142
89,25,-43,-53,-38,-55,29,2,233,195
83,20,-15,-35,-6,-20,53,14,215,122
50,-5,9,-31,16,17,78,84,212,190
32,5,84,18,61,60,87,74,-16,251
-36,-46,58,25,21,56,108,45,-142,99
-58,-33,0,51,15,22,72,4,-121,-61
-56,-20,50,32,-5,-11,29,-16,-152,-93
-61,-36,57,18,-21,-22,-4,-77,-160,-58
-65,-14,36,38,-3,-26,-60,-126,-86,-32
-45,-14,35,37,7,-35,-103,-92,54,-15
36,-12,7,-12,-32,-73,-126,-76,147,127
67,22,15,-44,-61,-111,-111,-87,165,202
31,-9,-15,-70,-60,-100,-90,-81,130,118
4,-61,-119,-122,-83,-54,-17,-17,159,115
7,-62,-175,-131,-85,-32,2,15,100,162
-26,-50,-189,-137,-60,-21,-17,-37,-60,78
-94,-69,-199,-132,-44,-7,-24,-72,-225,-55
-41,-68,-161,-105,-7,-3,-44,-65,-241,-13
40,-65,-139,-105,43,2,-56,-10,-8,220
99,-25,-99,-76,72,26,-25,40,117,526
166,42,-46,-31,49,26,1,37,70,564
87,46,-31,-12,18,16,30,20,18,73
-36,8,-39,-21,3,8,51,41,53,-474
-46,-14,-12,-13,8,21,56,27,37,-400
-7,-1,22,10,7,21,13,3,11,-166
4,2,50,34,15,0,-15,4,50,-2
23,33,79,58,21,4,-21,0,36,-23
28,73,100,65,20,5,-16,-19,-36,-101
-22,43,70,17,-20,-12,-19,-41,-121,-70
-69,2,28,-18,-49,-13,-29,13,-83,-9
-99,-28,6,-39,-28,7,17,65,-60,-70
-103,-18,5,-42,-23,52,40,70,-69,-203
-92,4,33,-3,-22,32,-4,72,19,-259
-76,14,59,21,-13,-29,-36,110,43,-205
-79,-24,16,1,-24,-21,2,119,-7,-187
-38,-58,-15,-4,-35,-5,43,100,-39,-138
14,-22,9,26,-11,-3,45,79,-91,-71
16,-14,-23,28,11,13,20,7,-47,-23
7,-9,-104,22,22,20,-33,-115,-21,-17
18,20,-8,25,45,14,-28,-111,3,37
73,71,94,63,105,17,-8,-48,68,186
79,96,150,103,155,17,-20,-17,35,261
41,36,102,56,80,10,-6,-24,-69,256
53,21,66,21,8,8,6,-34,-118,391
54,58,20,30,19,-2,3,-43,-79,348
17,36,-12,14,12,13,-6,-9,51,-87
-43,-12,-119,-2,-3,27,-6,42,197,-410
-15,6,-29,66,30,37,-20,23,97,-248
10,33,108,98,49,32,-16,32,-4,-129
-24,-26,57,36,-2,10,-8,59,85,-100
-16,-40,40,13,-26,-6,-7,39,104,19
16,3,100,63,17,-1,-11,-19,46,255
78,87,195,126,79,28,-24,-83,-74,380
65,51,132,99,65,54,-1,-81,-148,306
-12,-47,0,-6,-9,21,5,-8,-41,15
-42,-82,-43,-78,-28,-9,-40,-1,61,-315
-15,-71,-54,-64,8,16,-51,-54,-2,-300
18,-38,-144,-30,-28,0,-91,-44,-49,-236
-56,-84,-240,-40,-53,-1,-26,17,-18,-180
-118,-101,-146,-47,-47,13,39,-7,-105,-229
-64,-57,-84,-41,-49,4,18,-6,-15,-185
-23,0,-42,21,-21,-8,14,13,69,-85
17,80,40,66,14,-12,3,1,91,-54
17,80,94,68,48,12,17,18,120,-3
10,46,72,47,7,8,41,43,96,36
47,46,128,46,-2,14,28,20,-24,97
49,18,155,20,-23,17,0,6,-30,212
46,-11,98,1,-26,36,3,37,7,242
-2,-20,53,0,-11,46,50,51,-29,135
-26,-24,64,0,-16,44,85,37,-97,36
-13,-15,72,-3,-19,16,70,29,-157,0
30,19,72,-13,-59,-45,-5,7,-142,-18
19,-6,32,-9,-63,-66,-56,-5,17,-71
-36,-28,-18,11,-33,-26,-40,19,102,-76
-3,-9,-78,0,-14,-12,-67,-39,-13,-58
47,-41,-161,-75,-47,-23,-72,-76,-63,-39
41,-57,-153,-86,-62,-32,-22,-32,-64,8
9,-55,-66,-63,-36,-33,7,-9,-88,16
-25,-32,3,-31,28,4,0,-25,-160,-10
-62,-37,17,-28,32,-9,-9,-33,-209,-80
-104,-67,-12,-50,-29,-23,-2,-19,-96,-133
-81,-56,-36,-58,-42,-7,28,25,104,3
23,-13,-27,-61,-40,-10,37,60,221,398
107,18,-11,-41,-16,11,57,0,25,600
98,23,-24,-19,-8,3,9,-64,-159,223
-4,-11,-74,-42,-16,4,16,6,43,-378
-22,-18,-91,-40,-6,32,30,61,233,-425
17,-6,-81,-22,-4,26,49,80,253,-249
45,-3,-55,-21,-8,18,50,54,125,-155
68,9,-22,0,-3,15,41,43,15,-92
35,-3,-30,-5,-10,13,24,33,1,-39
-1,-13,-78,-26,-20,10,-32,-23,24,36
15,1,-70,-33,-20,6,-40,-39,43,108
56,23,0,-20,1,18,-26,-31,48,200
77,37,22,-8,4,0,-63,-40,77,239
21,14,3,-15,-4,-23,-90,-5,81,184
-25,-10,-8,-33,-24,-34,-80,15,26,113
-27,-3,-105,-45,-33,-22,-78,2,-20,56
-45,-15,-65,-23,-21,0,-47,-26,-5,-38
-39,-22,-7,-13,-1,8,-8,42,46,-24
-4,-1,44,29,73,32,-6,79,-24,95
81,80,98,103,173,87,-19,6,-203,154
100,100,-15,118,147,69,-44,-35,-145,71
79,79,-50,100,89,52,-35,-8,17,-21
125,132,119,147,112,68,-38,-13,52,-44
80,100,146,150,126,93,-2,-42,-119,29
-36,-13,-10,87,83,102,66,-36,-193,94
-114,-49,-67,50,46,79,75,-10,-100,-11
-136,-29,-8,48,22,26,24,-15,-47,-264
-115,-20,76,19,-25,-28,-26,-36,26,-245
-51,-15,81,-2,-23,-57,-41,-65,4,-105
-5,12,6,21,-6,-79,-58,-86,-1,-42
-2,33,57,49,11,-61,-63,-87,-22,-78
-20,-8,6,26,13,-30,-44,-59,-96,-126
-27,-12,20,37,15,-17,-27,-76,-185,-155
-41,-14,20,45,69,16,22,-15,-114,-115
-61,-46,-25,-6,55,5,20,102,130,14
-30,-1,-3,12,1,-46,-65,29,100,105
-6,2,3,2,-21,-32,-21,-13,19,222
-20,-22,-30,-50,-47,13,32,2,-34,253
-19,-11,-40,-64,-59,-4,13,-9,17,81
10,-5,35,-57,-55,-33,41,21,113,-161
26,-3,97,-39,-19,-10,58,41,145,-117
36,21,152,-15,15,6,26,2,31,-17
9,18,149,11,-17,-16,-6,-48,-107,18
-8,0,94,28,-19,-42,-15,-34,-75,26
25,-25,26,0,-48,-61,-4,24,31,53
23,-59,-25,-40,-70,-83,-32,19,17,22
-24,-95,-81,-76,-75,-80,-52,-11,9,-55
-22,-78,-84,-50,-36,-53,-23,-36,96,-24
4,-26,-57,-7,11,-11,9,-26,97,-29
5,-47,-67,-4,-2,6,43,5,-16,-101
-45,-78,-142,-26,-28,-8,57,19,-83,9
20,-6,-49,20,11,10,43,-16,-215,294
136,90,86,73,45,14,-2,-101,-372,543
118,55,-11,17,-4,-39,-71,-75,-227,377
22,-28,-58,-80,-48,-33,-35,-10,12,-338
-117,-99,-78,-140,-46,-5,2,64,317,-578
-64,-41,-39,-109,37,38,32,95,293,-286
13,8,-21,-67,41,27,42,71,149,-142
34,20,-58,-52,-17,5,58,95,171,-45
38,30,-65,-41,-28,-6,34,116,180,26
37,31,-101,-28,-11,4,18,103,101,34
67,37,-170,-6,0,13,9,78,139,79
69,42,-117,24,-4,-22,-48,-1,199,76
-3,2,-22,1,-21,-27,-46,-22,155,-10
-17,0,16,-16,-35,-25,11,21,190,-1
-20,31,39,-1,-37,-29,8,-5,168,50
14,85,107,43,-12,-31,-26,-82,-31,73
59,134,204,112,28,-56,-67,-99,-148,143
73,100,220,136,48,-54,-66,-86,-226,301
84,34,178,103,51,-2,1,-50,-254,534
2,-58,103,23,4,6,69,50,-155,447
-154,-122,47,-59,-56,-38,47,95,26,-65
-213,-119,5,-88,-97,-54,21,112,118,-519
-138,-80,-13,-80,-76,-32,2,71,0,-415
-4,-2,-5,-18,-7,5,-27,-7,-117,-161
18,10,-39,-7,7,11,-25,-27,50,-207
-64,-50,-27,-32,-7,14,40,3,109,-358
-60,-51,-11,-22,2,0,52,4,4,-250
-4,-25,-19,-30,36,-14,1,-3,-54,-79
46,10,-57,-40,47,-7,-15,12,24,75
11,-21,-73,-54,-12,-16,-5,37,84,77
4,-33,-45,-60,-54,-31,-9,38,61,39
28,-1,28,-31,-37,-34,-38,16,39,51
30,10,32,-5,-19,-14,-11,30,30,29
16,-7,-13,-25,-21,30,48,55,6,0
24,25,13,0,11,67,61,28,3,25
64,76,60,43,28,69,25,-39,-53,55
79,82,-7,48,5,21,-10,-61,-98,39
62,59,-12,39,-11,-18,-26,-9,-32,34
49,49,45,46,0,-13,-31,-3,2,37
51,21,10,37,-3,0,-39,6,6,22
-13,-35,-72,-5,-18,8,12,55,42,-21
-74,-83,-88,-19,-20,38,73,94,59,-59
-72,-68,-8,24,44,72,63,81,31,-55
-36,1,59,74,58,40,7,-18,-158,-51
-23,32,62,78,9,0,-14,-79,-348,-154
-50,30,77,91,15,-31,-29,-71,-206,-223
-72,14,58,101,24,-36,-47,-38,2,-227
-42,-55,-16,46,27,14,-5,18,21,-197
2,-81,-9,27,28,44,10,33,-92,-31
-16,-44,45,73,73,47,20,40,-171,210
8,12,69,97,81,28,14,60,-150,316
-61,0,80,76,21,-9,15,99,-78,6
-123,-50,52,58,-5,-24,0,81,-19,-202
0,1,39,98,34,-6,-92,-105,47,95
113,102,178,161,70,13,-87,-201,92,177
-1,38,195,64,2,40,91,-61,105,3
-16,-6,118,-22,-45,55,158,37,30,40
61,92,171,50,17,58,65,-13,71,152
125,177,193,100,48,35,-29,-109,28,228
100,170,92,45,19,0,-66,-238,-248,147
33,83,-19,-46,-52,-55,-76,-141,-19,123
-3,-55,-90,-113,-91,-65,-33,29,321,97
6,-78,-101,-112,-70,-35,4,4,163,48
12,-41,-86,-75,-31,-4,17,-41,-84,43
31,-13,-165,-48,22,4,-4,-13,-67,135
59,35,-137,9,108,42,-5,2,-64,93
27,45,-6,38,91,57,55,27,-6,-100
0,25,25,21,10,32,75,80,101,-80
38,62,81,42,-9,0,65,97,51,219
65,57,85,50,-37,-35,11,68,-5,449
38,20,54,18,-57,-29,19,106,18,202
-61,-34,44,-22,-66,-4,58,162,104,-454
-149,-61,11,-33,-39,-1,21,110,137,-631
-127,-46,-13,-32,-47,-24,-59,32,147,-398
-34,8,-16,-44,-37,-25,-74,-36,41,-203
18,22,-16,-63,-18,-1,-49,-49,-61,-108
-26,-1,-45,-81,-13,4,-29,-30,-45,-109
-36,3,-45,-94,-31,4,-37,-35,-24,-74
14,8,-57,-119,-64,-8,-26,-44,5,38
75,11,-66,-133,-61,-8,-32,-50,17,229
108,19,-52,-90,-23,12,12,-76,-105,539
130,22,-29,-38,5,24,47,-69,-188,612
132,19,-56,-17,5,29,67,-5,-135,68
-21,-99,-144,-49,-26,12,66,84,103,-472
-51,-107,-135,-6,0,32,42,72,78,-329
-50,-72,-54,57,32,44,35,31,-60,-221
-50,-60,7,89,51,44,44,-3,-111,-236
0,-15,78,73,68,48,48,-1,-52,-169
6,-5,97,52,25,12,31,-16,0,-134
-19,7,116,42,10,10,27,-27,3,-112
-18,38,134,22,17,6,21,-11,-18,2
-19,66,53,-9,-6,-27,3,-28,-96,98
-12,74,-31,-36,-14,-36,-48,-78,-137,205
-1,83,-2,-50,-11,-42,-82,-81,-64,287
46,104,13,-49,20,-38,-93,-88,40,279
50,85,25,-42,74,32,-59,-49,116,78
1,-6,-81,-78,10,53,12,55,194,-46
-30,-49,-147,-105,-39,14,19,104,212,-42
-12,-43,-187,-90,-35,4,3,78,152,83
23,-31,-195,-71,-19,24,-9,12,74,312
54,-1,-71,-25,8,24,-22,-35,-25,361
47,10,-62,-8,0,2,-1,-10,-26,9
-12,-25,-54,-17,23,5,3,39,70,-270
-26,-44,-33,-5,14,-3,-6,46,63,-160
-17,-47,-84,10,-16,3,-9,40,58,-66
-40,-66,-124,3,-21,12,3,49,110,-64
-55,-64,-115,-5,-20,23,33,75,209,-62
-61,-33,-56,34,18,54,70,73,219,-58
-29,2,31,54,33,55,66,67,123,-16
5,47,127,72,72,45,44,62,5,85
-33,60,177,86,90,46,21,-11,-244,51
-100,44,213,90,52,26,6,-74,-359,-47
-111,26,264,72,5,-19,-5,-63,-169,-69
-50,23,254,44,-39,-53,-23,-26,3,3
0,21,191,24,-49,-76,-43,-1,-5,58
-8,-4,84,-20,-43,-74,-104,-83,-115,1
-8,-13,-13,-42,-46,-75,-158,-111,-125,-16
-9,-27,-95,-59,-42,-65,-90,-47,-125,-38
-40,-63,-204,-87,-40,-41,-51,-8,-146,-102
8,-31,-175,-86,-33,-54,-100,5,-64,-73
62,-2,-135,-56,-12,-64,-127,-13,-23,-27
-3,-53,-149,-66,4,5,-20,-3,-21,-85
-62,-77,-153,-70,22,90,120,-5,-152,-108
-62,-64,-111,-29,47,103,155,0,-301,-55
-48,-13,-30,18,102,115,139,31,-352,-116
-48,63,40,66,164,148,118,33,-312,-415
-124,64,-17,97,137,127,71,44,-90,-537
-91,50,-111,90,74,62,60,70,103,-280
-22,31,-35,98,60,61,77,64,114,-55
-6,8,87,102,47,38,17,-64,-14,149
24,47,156,115,32,-12,-27,-141,-143,164
28,68,157,121,9,-44,6,-89,-134,37
-57,-12,20,58,-29,-86,-38,-14,92,-17
-34,-18,50,15,-66,-114,-129,8,212,109
-5,-9,74,-21,-84,-101,-114,2,214,190
55,19,47,-14,-58,-83,-86,-5,316,270
143,45,41,5,-19,-57,-85,-13,430,408
128,51,11,9,2,-31,-76,-32,296,464
91,53,-58,6,38,0,-36,-49,72,356
78,39,1,21,70,13,-38,-83,-28,217
40,-19,-19,-9,24,-2,-45,-46,-1,149
22,-55,-75,-44,-19,-4,-36,-18,-49,348
67,-57,-100,-60,-41,-17,-20,-24,-145,626
36,-65,-101,-77,-65,-27,-23,10,-160,451
-37,-51,-67,-79,-60,-36,-19,27,-81,-209
-72,-32,-52,-74,-62,-50,-40,38,154,-416
-118,-62,-67,-72,-58,-24,-8,-4,38,-515
-123,-75,-75,-85,-1,24,48,11,161,-568
-60,-29,-35,-46,46,56,59,56,321,-305
5,29,5,10,50,63,63,31,72,-92
61,61,30,40,58,63,77,28,-47,-49
106,86,26,71,63,48,35,8,0,-33
109,56,-43,54,39,14,13,-10,12,11
101,39,20,35,16,15,16,-4,-19,32
18,4,51,14,5,31,60,118,163,33
-81,-26,77,-8,-28,34,85,207,366,0
-99,0,114,-4,-20,50,77,139,259,-110
-67,39,115,-9,-17,41,70,99,112,-110
38,96,126,2,-40,-6,12,17,-54,10
105,116,126,25,-34,-29,-28,-63,-107,91
95,62,44,7,-27,-26,-36,-88,-129,54
38,7,-30,-19,-17,-10,-14,-65,-167,-24
16,2,-16,-24,37,16,24,21,-52,-9
6,-27,-52,-36,0,23,47,62,12,-2
22,-27,-86,-13,-10,2,21,4,-44,14
32,-9,-42,8,10,-10,-34,-49,-28,82
55,11,-10,39,31,-21,-67,-106,-68,99
54,27,34,88,64,1,-36,-91,-104,66
34,25,85,108,84,14,9,-41,-134,69
39,30,136,114,102,11,17,-34,-120,63
59,57,173,122,67,-14,-9,-12,-25,15
12,37,166,109,6,-43,-30,39,125,-35
-56,-36,132,67,-31,-57,-17,45,148,-23
-98,-72,107,33,-40,-51,-68,-32,12,-75
-111,-44,92,13,-41,-56,-87,-76,-103,-138
-102,-43,32,-21,-58,-58,-18,-64,-157,-169
-27,-50,-32,-53,-52,-42,-1,-45,-182,12
30,-39,-97,-79,-41,-38,-22,-53,-257,461
59,-55,-124,-90,-56,-40,-19,-59,-331,699
42,-48,-95,-88,-45,-29,4,-58,-287,150
-50,-53,-96,-100,-40,-34,14,-24,-66,-604
-99,-40,-96,-115,-52,-40,19,5,55,-575
-139,-97,-176,-158,-78,-44,63,80,121,-315
-101,-98,-255,-130,-57,-8,107,101,169,-296
-35,3,-134,-52,40,45,82,41,195,-379
15,66,-33,-10,88,65,60,22,202,-240
76,86,25,33,49,36,38,23,165,-3
98,104,86,78,16,2,0,1,112,208
81,85,121,83,11,-8,-22,-17,35,232
76,52,116,76,1,4,-7,-21,-8,208
61,0,47,27,-26,8,23,15,4,182
40,-31,-65,-12,-33,-12,21,26,23,151
8,-29,-176,-14,-22,-29,-23,-15,25,119
-14,-34,-107,-2,-22,-32,-36,-60,-37,62
-3,9,12,0,-20,-38,-33,-77,-60,-10
-9,19,8,-20,-25,-33,-20,-30,19,-48
-27,-2,-3,-29,-26,-21,-4,29,79,-21
-27,-7,6,-9,0,-10,-30,20,43,-11
-35,-18,-9,-15,1,22,-15,30,17,0
-38,-37,-4,-13,15,60,40,71,74,34
-22,-35,7,0,16,32,19,51,48,50
-14,-8,15,10,4,-6,-8,17,-32,28
-9,-18,0,13,6,-18,2,36,-29,26
-28,-41,-90,8,-3,-9,11,62,-11,9
-34,-44,-131,18,0,-12,-3,28,-9,-38
-3,16,4,53,18,-25,-32,4,93,-31
-7,21,92,77,51,11,-8,10,77,-32
-51,-24,96,65,91,65,46,31,34,-65
-56,-29,97,69,80,59,31,10,-59,-88
-18,1,103,83,17,-4,-33,-81,-338,-114
1,11,82,63,-19,-33,-53,-161,-407,-146
-22,-43,5,2,-46,-24,3,-73,-158,-169
-41,-64,-58,-32,-42,0,14,-17,-50,-106
-4,-31,-47,-35,-28,-5,-12,-41,0,201
98,54,38,-7,7,-37,-83,-67,133,572
134,127,91,10,21,-22,-85,-49,89,433
55,83,42,-27,12,29,11,37,77,-195
15,26,-24,-44,15,48,65,107,167,-303
12,29,-38,-5,12,44,43,93,129,-119
-1,-10,-16,-15,-5,66,51,35,44,-76
7,-41,-49,-18,-13,40,39,13,0,-36
53,-4,12,3,21,13,52,27,-3,79
87,41,77,17,47,21,37,-27,-46,208
91,71,82,-5,-3,7,13,-57,-93,181
43,67,47,-38,-34,2,40,-60,-115,-90
-5,-18,-37,-80,-38,5,45,-39,-45,-207
-24,-127,-148,-121,-64,8,52,29,82,43
-51,-122,-109,-75,-37,14,42,27,88,47
-41,-9,42,1,3,16,29,0,53,-191
-137,-20,31,-33,12,29,33,56,126,-281
-174,-66,-33,-95,-23,44,39,83,115,-257
-130,-32,4,-80,-53,34,40,23,-93,-235
-63,16,62,-22,-13,51,56,-53,-443,-255
62,45,66,0,-3,5,17,-20,-398,-224
77,0,0,-37,-21,-27,-22,59,-57,-139
41,-55,-75,-59,-15,-14,-87,30,40,-86
0,-73,-95,-73,-22,-30,-77,58,146,1
25,-28,-68,-50,-12,-28,-66,67,295,149
45,0,-102,-37,-14,-26,-52,53,252,258
20,-29,-157,-65,-39,-32,-5,40,186,317
51,-1,-49,-52,-28,-4,25,-21,158,279
51,19,-45,-39,6,37,25,-86,70,102
13,22,-20,-6,35,47,4,-107,-113,-72
38,38,53,40,27,27,24,-46,-210,61
64,60,145,72,60,30,21,-4,41,272
64,91,212,99,95,36,-20,-24,65,226
85,107,213,111,57,-15,-54,-58,0,116
82,84,174,92,9,-56,-73,-49,98,106
64,70,137,81,3,-61,-95,-54,147,117
48,58,82,66,12,-23,-77,-37,96,86
37,49,37,43,26,1,-27,-13,-6,37
26,36,35,53,42,11,-9,14,-31,-12
4,-3,-1,43,47,18,-11,24,-70,-39
-4,-34,-33,29,28,11,-16,4,-122,-3
10,-32,-9,45,17,13,-21,-9,-129,150
72,33,32,64,35,22,-24,-43,-166,163
87,88,49,74,46,10,-19,-66,-159,-6
16,30,-8,24,16,-10,-15,-10,-27,-128
-35,-37,-77,-38,-10,8,60,59,81,-92
-43,-56,-115,-45,-6,11,94,53,24,-59
-24,-45,-87,-32,-13,-13,60,2,-104,-67
-38,-38,-30,-18,-4,-24,32,-13,-84,-69
-61,-27,-60,4,2,-24,16,-26,-6,-57
-65,-18,-12,29,25,-18,3,-53,-121,-96
-45,-29,12,21,27,-20,-2,-63,-145,15
4,1,-18,20,24,-4,17,-35,-102,238
46,60,69,37,46,7,24,16,-72,388
-30,-5,21,-34,56,5,35,139,262,340
-77,-54,-29,-58,47,3,22,119,366,-63
-120,-77,-47,-31,-10,-24,27,102,320,-344
-70,-20,-29,3,-13,-30,21,34,107,-194
4,13,-69,9,1,7,16,-39,-165,53
26,-3,-37,-23,-7,21,2,-52,-229,416
68,48,28,-6,-7,-4,-1,-43,-229,634
32,66,61,0,-5,0,22,2,-114,278
-51,2,8,-61,-58,23,59,58,94,-125
-78,4,25,-56,-62,1,33,65,153,-651
-129,-19,45,-69,-66,-39,-19,74,233,-859
-107,-35,48,-73,-72,-57,-62,40,155,-558
-99,-85,-22,-81,-74,-31,-44,24,85,-350
-71,-98,-53,-60,-36,-1,-12,-14,115,-234
-49,-77,-37,-42,-12,1,3,-32,98,-156
-20,-28,-15,-47,-13,0,-28,-8,105,-70
5,-2,-19,-51,-33,-21,-57,17,89,2
16,-5,-41,-40,-20,0,-45,32,-5,41
12,-16,-114,-22,-1,21,-25,32,-28,81
0,-13,-146,-15,1,39,6,60,-14,58
16,10,-14,7,0,31,-16,79,-6,54
24,14,46,37,11,12,-46,12,-32,48
23,25,86,45,68,63,-41,-66,-32,62
41,21,58,10,28,57,-49,-102,-109,81
28,-22,-22,-40,-50,20,-57,-85,-125,103
35,-34,-68,-66,-47,28,-1,-19,-70,66
10,-26,-164,-64,-46,31,26,35,14,-61
-84,-79,-190,-76,-79,8,30,25,37,-192
-87,-90,-97,-63,-76,-3,27,28,-18,-186
-69,-48,-46,-24,-31,3,32,56,-110,-183
-63,-30,-14,5,-18,-1,22,34,-93,-197
-64,-53,-28,-19,-39,12,43,18,-24,-141
2,-8,15,11,-9,28,54,5,52,-30
91,55,100,57,25,1,-24,-31,88,76
85,52,80,29,5,3,-28,-14,0,184
68,31,-20,15,-10,13,-9,-12,-26,331
67,48,63,46,22,24,-18,-41,-99,291
62,72,108,69,95,63,20,-22,-135,147
52,59,52,37,94,43,7,-7,-24,147
9,50,-2,13,18,-11,-36,-23,77,107
31,55,0,1,-17,-39,-59,-28,82,85
70,45,10,7,-13,-26,-40,-37,0,105
58,33,13,27,-12,-23,-19,-12,41,93
36,30,-39,32,-17,-24,16,11,75,99
14,13,33,56,1,-19,5,-6,7,62
-8,-12,-9,65,21,-4,-12,-4,-3,35
-37,-34,-11,71,25,1,12,-6,3,47
-6,-31,29,46,9,-22,13,-18,3,220
59,30,81,48,11,-10,2,-35,-17,290
3,64,98,44,25,32,28,-6,-49,27
-69,-11,-25,-28,-16,25,56,64,39,-88
21,8,13,-31,-21,-10,26,49,40,49
48,48,107,29,9,-35,4,-32,-71,-15
-31,-11,67,4,-31,-53,0,-104,-140,-212
-44,-27,11,-32,-50,-53,-16,-95,8,-170
-17,-4,-31,-60,-53,-11,84,16,181,-15
-42,-46,-89,-102,-64,24,155,94,121,-20
-53,-61,-117,-88,-64,-4,90,71,2,-72
-50,-38,-77,-48,-53,-41,-16,-11,-67,-103
-17,-1,-10,-24,4,-21,-50,-84,-120,-103
-18,-9,0,-30,38,12,23,-60,-177,-63
-70,-57,-94,-69,-29,-13,78,43,-110,63
-82,-62,-216,-70,-67,-39,53,108,5,75
-87,-44,-191,-31,-44,-41,-29,123,162,-139
-100,-46,-84,-9,-28,-35,-64,113,318,-329
-41,-7,39,41,12,-10,-36,63,381,-191
85,93,168,142,85,12,-31,-8,189,22
163,182,257,189,118,21,-31,-66,-114,89
115,152,224,161,83,27,-37,-140,-329,-4
36,91,154,114,68,51,6,-97,-311,-15
13,62,57,85,49,42,22,-37,-102,-1
-7,68,-12,87,39,19,11,-21,46,-40
-32,62,54,86,44,26,24,-5,23,-79
-1,88,85,92,55,39,12,-16,-65,-65
11,140,148,122,102,57,-5,-32,-146,-53
-14,107,157,112,95,56,0,-13,-84,63
73,81,154,114,52,17,-6,-33,-22,373
171,64,165,103,42,-10,-16,-54,-82,555
95,-25,89,42,19,-15,-11,-29,-66,230
21,-61,-11,13,17,-10,-16,-43,-66,-135
-23,-45,-42,3,3,-18,-16,-22,-1,-57
-95,-95,-69,-50,-33,-39,-5,44,97,141
-68,-72,-19,-11,31,20,33,11,-14,115
-48,-33,60,40,17,41,30,-31,-69,76
-15,-2,109,80,-4,20,17,-27,-3,243
59,29,120,75,4,18,47,17,37,66
-57,-68,-5,-46,-68,-27,76,122,190,-525
-116,-94,-33,-81,-102,-81,2,90,190,-412
-78,-45,-5,-71,-98,-105,-68,2,102,-187
-48,-16,-37,-94,-79,-82,-83,-36,72,-131
-40,-12,-83,-104,-65,-51,-54,-49,1,-111
-68,-47,-129,-135,-76,-39,-37,-4,80,-80
-49,-48,-151,-163,-88,-53,-49,11,129,-28
2,-5,-171,-173,-86,-61,-52,-18,51,-3
37,-10,-188,-153,-71,-39,-25,-23,-108,-47
56,-45,-197,-137,-49,-3,26,11,-197,-59
40,-50,-131,-110,-20,18,38,37,-153,-16
-7,-56,-10,-48,60,40,11,40,-106,-20
-24,-67,30,3,63,18,-4,37,-18,-5
-32,-81,-4,20,3,-14,-19,16,29,-1
-21,-56,11,43,16,-9,-34,-58,-35,-34
3,-19,20,66,42,7,-35,-41,-27,-59
2,-1,18,44,16,1,-36,5,-47,-92
11,21,26,34,-8,-13,-51,2,-69,-84
-21,25,18,10,-19,-16,-49,48,-7,-70
-70,-23,5,-17,-39,-8,-12,86,119,-58
-97,-69,-17,-21,-39,2,34,57,236,-73
-68,-67,-88,-34,-31,5,47,32,280,-8
16,15,-45,-19,-40,-39,26,29,238,130
42,39,-27,-15,-33,-37,-18,-12,-23,192
30,28,0,14,-9,-34,-88,-100,-239,172
12,38,33,38,14,-29,-76,-102,-208,100
17,72,57,59,49,26,-8,-77,-174,-36
5,34,13,12,17,38,34,-8,55,-14
10,18,-4,-17,0,33,50,59,161,123
62,56,57,30,39,76,52,4,-24,190
57,62,67,48,39,90,66,-25,-223,118
35,47,52,49,47,36,28,0,-60,44
36,20,7,40,64,23,-10,11,158,44
65,28,0,51,125,67,-8,12,175,135
81,38,17,67,180,115,26,33,87,233
73,64,56,72,121,88,82,54,18,169
82,67,88,61,15,4,59,56,36,72
96,19,78,44,-16,-28,2,11,33,106
68,22,120,84,28,-8,-79,-104,-85,146
18,2,106,69,18,-10,-69,-130,-114,107
-16,14,103,55,7,-33,-98,-109,-86,-4
-50,2,49,9,-21,-47,-50,-4,-15,-14
-88,-20,0,-22,-28,-15,-8,4,-6,-25
-112,3,51,13,-2,9,-10,-40,-33,-103
-94,35,70,26,-22,-25,-49,-47,-1,-96
-46,47,55,0,-26,-39,-39,-4,50,131
8,33,32,-29,-28,-12,-1,10,0,468
1,14,36,-1,1,-4,-11,-28,-150,593
-43,-12,33,27,61,33,-6,-50,-207,359
-39,-25,-20,-4,35,10,-1,-24,-94,-21
-50,-39,-86,-37,-15,-10,4,15,11,-556
-112,-93,-236,-90,-42,4,32,54,125,-819
-68,-83,-223,-112,-40,28,48,28,85,-507
-20,-47,-127,-86,-23,48,51,17,-7,-242
5,-43,-141,-51,-6,73,73,15,-89,-182
58,-23,-83,-33,24,76,60,2,19,-81
87,11,-69,-19,64,59,19,11,86,14
77,11,-103,-38,7,8,3,20,78,-1
42,-12,-13,-58,-49,-28,19,39,33,-17
-4,-2,51,-48,-55,-47,1,48,84,-24
-28,25,95,-21,-44,-70,-51,8,91,-50
0,33,100,-22,-38,-79,-66,-38,49,-5
31,29,75,-21,-16,-45,-58,-39,9,76
25,25,60,-11,19,11,-10,-20,-96,43
40,22,54,-2,10,20,31,2,-205,-68
13,6,26,-4,-11,10,64,30,-254,-217
-30,-53,-48,-25,-27,-28,50,76,-225,-260
-39,-91,-85,-25,-35,-41,28,86,-156,-213
-25,-86,-86,-33,-46,-18,5,49,24,-168
1,-53,-58,-45,-37,-3,-14,12,181,-110
2,-38,-39,-51,-19,7,-13,25,264,-22
2,-25,1,-5,48,19,-15,52,412,152
-6,3,-6,25,51,2,-47,40,361,216
10,28,-5,20,4,-9,-35,-3,-6,156
16,47,0,24,7,-3,10,-21,-219,102
-51,-3,-127,0,10,23,49,36,-32,-4
-112,-70,-172,-21,0,36,89,71,37,-115
-48,-19,-14,19,30,9,71,-3,-75,-107
41,42,78,103,84,11,11,-124,-167,-15
57,48,97,119,101,44,-15,-199,-351,74
90,40,107,98,86,35,-6,-171,-379,387
170,59,114,74,64,29,15,-126,-159,823
142,75,91,48,53,33,25,5,142,566
37,110,88,38,35,22,-6,30,166,-363
-84,36,36,-14,-13,-21,-18,66,243,-680
-53,54,48,-3,-2,-9,0,51,155,-352
-4,26,29,0,12,6,14,71,109,-94
44,-28,-62,-32,-18,-10,-1,96,186,91
38,-25,-76,-30,-25,-33,-35,42,184,154
69,20,-20,27,9,-10,-43,-77,-132,124
71,29,-1,43,41,35,-30,-138,-363,111
94,75,15,38,59,53,30,-116,-355,119
89,135,59,46,39,58,119,-17,-251,-45
-31,54,64,32,38,36,129,134,75,-186
-114,-3,106,34,45,-4,40,179,372,-15
-123,9,170,70,10,-33,-6,114,407,59
-98,9,213,82,-22,-30,0,52,207,15
-42,20,244,95,-31,-41,-30,-28,-17,14
-16,12,161,58,-52,-61,-50,-41,-45,54
-31,-20,42,7,-79,-67,-37,-23,8,64
-35,-40,-76,-19,-64,-60,-16,-62,-39,13
11,-11,-114,-10,-34,-51,-17,-100,-143,-60
54,17,-37,11,-19,-33,-19,-119,-168,-69
64,37,-17,42,15,5,-14,-82,-117,-8
65,47,-93,45,27,-11,-63,-19,-15,47
46,6,-233,1,-2,-51,-91,16,75,60
28,-42,-222,-45,-24,-31,-16,69,111,61
2,-49,-123,-45,-21,-16,8,83,20,-9
-82,-81,-50,-48,3,-12,2,91,-26,-121
-121,-130,-59,-86,-52,-26,8,97,0,-120
-76,-118,-52,-91,-72,-47,-4,25,-5,11
-19,-90,-70,-97,-67,-28,-6,-24,-58,318
91,-2,-20,-54,-30,7,6,-46,-291,663
124,45,16,-12,6,41,50,-29,-322,470
24,7,-23,-27,20,48,66,-45,-107,-256
-39,-11,-44,-10,46,20,30,-12,104,-714
10,26,-44,5,86,18,23,21,291,-420
58,36,-36,-6,44,-4,20,37,353,-150
44,3,-43,-37,0,4,61,65,256,-99
17,-7,-36,-41,-9,32,97,74,149,-70
13,32,15,0,0,42,78,29,-52,-51
1,28,26,0,-4,25,52,28,-125,-47
-31,-23,-20,-38,-34,-6,45,62,-6,-29
-1,-21,-30,-23,-36,-38,-8,43,86,41
-5,-47,-68,-43,-59,-45,-28,45,29,35
-49,-101,-121,-63,-70,-49,-19,38,-91,-24
-49,-107,-155,-47,-76,-68,-47,19,-173,5
-33,-67,-28,-3,-56,-56,-57,19,-140,-40
-3,-10,62,52,-18,-26,-50,14,86,-147
-34,-13,75,55,-17,-26,-62,-37,202,-178
-34,-21,77,53,8,-9,-66,-118,1,-126
-13,-23,59,64,75,29,-16,-127,-144,-99
15,-11,12,45,52,23,31,-97,-210,-68
13,-30,-35,-16,-28,-6,28,-59,-142,19
43,2,-51,-45,-34,9,44,-2,-19,132
61,40,-59,-39,-34,31,81,50,68,136
58,53,-50,-31,-42,22,91,68,113,48
80,83,-22,-24,-36,-1,32,27,70,90
83,71,19,-7,28,14,-15,-27,-3,107
44,16,-12,-7,18,18,4,-9,-52,26
-3,-16,-13,-22,-12,2,12,25,-46,-53
-28,2,27,-3,-18,-32,-14,8,35,-49
-67,-9,0,-24,-45,-28,19,17,43,-28
-86,-56,0,-61,-64,-39,35,39,-7,72
-52,-40,7,-59,-41,-15,56,14,-99,222
26,50,85,2,30,21,82,11,-109,175
4,68,116,53,64,24,78,19,7,-37
-62,-1,46,27,34,26,74,12,-31,-163
-4,11,15,18,20,5,39,-33,-71,-21
63,20,1,-4,-17,-34,-36,-49,49,141
72,-13,-27,-21,-29,-43,-28,-11,170,202
76,22,11,24,11,-14,3,-9,110,164
86,82,35,62,42,13,15,1,-4,118
73,104,71,103,108,47,14,37,0,111
23,88,99,132,145,66,-3,45,5,96
-4,69,123,115,89,30,-27,21,-13,46
3,42,157,107,34,-10,-37,-10,23,91
25,48,160,113,21,-29,-57,-97,-60,419
66,61,224,129,33,-9,-82,-188,-301,899
76,50,190,118,51,55,-64,-230,-513,534
-131,-81,38,20,-1,34,-22,-104,-217,-657
-314,-218,-131,-124,-109,-47,1,122,312,-785
-196,-133,-108,-93,-92,-59,-43,75,95,-414
-94,-37,-46,-34,-24,-20,-81,1,-126,-354
-101,-35,-101,-78,-37,-21,-65,52,49,-320
-74,-27,-122,-108,-50,-16,-54,110,111,-254
15,36,-85,-47,-13,-6,-91,81,8,-199
63,43,-33,-22,2,-3,-92,34,44,-125
89,33,15,-16,25,19,-44,25,206,-20
67,-3,6,4,-1,35,13,26,200,65
57,-62,-73,-12,-21,38,18,17,93,124
83,-61,-115,-22,-37,-3,-26,45,85,181
73,-64,-147,-46,-50,-38,-57,-7,5,375
80,-43,-85,-54,-35,0,-84,-144,-240,880
142,17,-35,-34,-11,24,-68,-169,-375,1035
109,38,-29,-28,38,57,-33,-59,-276,196
-127,-42,-60,-65,60,75,23,89,68,-896
-201,-79,-41,-71,14,40,15,117,264,-856
-137,-58,-30,-31,-28,-15,-26,74,231,-526
-111,-63,-94,-23,-21,-11,-2,80,164,-395
-44,-11,-101,10,15,4,0,42,74,-298
31,14,6,48,24,21,-4,13,60,-124
12,40,107,80,39,39,11,26,87,17
-8,61,125,78,33,30,33,48,55,170
59,86,150,107,26,1,3,25,4,228
133,100,181,120,21,-18,-24,4,-4,125
40,42,136,55,-20,-22,-8,20,54,-22
-45,8,106,12,-36,-26,-15,17,53,38
-55,-41,59,0,-26,-18,-5,28,-1,100
-57,-113,-40,-58,-52,-36,-9,43,6,100
-66,-142,-96,-93,-47,-41,-36,32,0,43
-101,-120,-117,-81,-1,-16,-42,20,-41,-63
-105,-88,-124,-89,-17,-28,-27,10,-60,-119
-85,-62,-96,-75,-27,-34,-9,-10,-34,-132
-17,-37,-62,-39,-1,-10,29,-47,-109,-79
37,0,-41,12,13,20,33,-54,-168,-20
68,20,-24,44,38,27,16,-15,-34,51
89,14,-18,59,57,17,-4,8,69,85
109,20,14,83,84,31,-27,-47,-39,42
80,31,57,98,69,23,-49,-52,-22,0
53,34,69,95,46,8,-33,-20,35,6
35,37,79,72,34,13,0,-5,-19,-11
-2,44,113,55,20,-20,-8,-2,-62,-38
-44,-9,66,-6,-30,-71,-33,24,-50,-63
-75,-66,-4,-83,-68,-64,15,67,12,-96
-93,-80,-59,-100,-67,-49,34,55,85,-131
-101,-72,-171,-86,-71,-55,-8,-9,186,-113
-73,-50,-177,-92,-70,-44,4,-26,176,-3
-28,5,-62,-92,-56,-10,73,5,-115,38
2,30,-44,-100,-53,-22,67,29,-204,-12
38,37,-72,-90,-45,-47,13,4,-116,-11
66,14,-112,-71,-33,-44,-35,-60,-14,20
61,-11,-48,-45,1,-26,0,-45,24,149
72,0,17,-11,63,12,19,-12,-17,349
130,52,83,41,107,57,-23,-67,-123,349
102,25,44,27,57,65,26,-80,-50,119
16,-16,-26,-23,-11,53,58,1,264,37
20,12,-3,-11,-25,44,54,60,250,95
25,45,45,41,2,31,31,30,99,65
32,81,86,70,43,42,30,14,17,-47
28,72,75,74,64,52,91,67,36,-83
32,55,42,72,64,50,144,84,24,-68
-31,20,25,77,51,68,127,38,-116,-139
-49,0,45,82,26,52,96,16,-157,-65
-20,14,82,86,23,37,85,46,-56,6
-56,-4,80,50,10,33,110,92,92,-139
-75,1,89,33,-4,7,56,44,71,-170
-38,49,147,45,1,-6,-2,-36,36,22
13,100,223,69,32,7,-9,-29,71,234
4,74,152,45,3,-1,-3,-37,41,166
-61,29,91,4,-23,-14,6,-7,71,-158
-40,39,110,5,-24,-25,-9,-7,-11,-238
34,31,59,-9,-33,-40,-37,-68,-171,-113
43,-23,-41,-58,-55,-38,-45,-94,-102,10
20,-46,-111,-67,-56,-11,-22,-51,127,70
28,-23,-69,-28,2,11,-22,-16,147,68
41,8,-3,16,45,6,-46,-25,64,135
47,15,-4,32,-1,-35,-73,-46,37,237
82,36,-10,50,9,-37,-51,-36,-62,356
64,23,-83,50,26,0,18,-7,-146,533
15,-39,-131,13,8,40,33,14,-199,598
21,-21,-79,33,15,38,-12,-21,-243,368
0,0,-59,42,10,6,-16,-14,-94,101
11,-24,-52,8,8,20,17,-6,-55,-266
-9,-74,-55,-31,-15,9,13,-16,21,-760
-37,-81,-47,-63,-46,-23,-19,-10,186,-503
5,-19,5,-41,-42,-39,-63,-41,95,-102
-16,-6,16,-35,-37,-29,-26,80,321,-66
-59,-34,-7,-40,-39,-8,16,161,493,-173
-56,10,11,-1,-4,33,19,110,265,-219
-28,27,29,6,57,73,-8,78,109,-169
43,17,-11,-29,46,68,-16,74,94,-34
58,16,-78,-64,-28,35,36,64,79,21
-1,14,-61,-41,-14,43,97,40,9,-16
-53,26,-14,-1,6,19,51,11,-45,-63
-46,53,3,20,0,-10,5,18,-54,-51
-10,47,-19,-14,-32,-25,-14,25,-64,-14
-29,-6,-35,-61,-56,-45,-23,7,-75,-43
-56,-65,-61,-101,-44,-53,-38,-32,-136,-97
-78,-96,-101,-135,-93,-73,-44,-33,-117,-92
-81,-95,-111,-131,-108,-75,-41,25,21,-26
-59,-72,-151,-101,-85,-58,-88,22,5,-16
-26,-11,-187,-46,-40,-34,-125,-64,-211,-82
-42,16,-168,7,-3,-6,-105,-81,-290,-122
-44,8,-145,21,11,20,-33,-53,-197,-62
24,15,-89,28,33,33,63,17,-97,107
93,43,30,47,41,30,66,97,12,300
117,85,108,91,49,24,15,90,60,207
93,108,166,144,71,21,-7,64,17,0
39,104,219,168,79,14,-20,48,25,-61
-19,91,244,181,74,9,-35,0,1,-62
-82,50,261,168,50,13,-52,-65,-134,-160
-97,30,256,122,41,0,-78,-98,-110,-191
-68,2,197,50,44,-10,-38,-60,11,-32
-50,-32,110,-11,17,-17,-12,-7,17,143
-27,-26,54,-42,-10,-12,7,30,-175,59
-96,-67,-33,-89,-35,0,35,41,-283,-238
-166,-107,-110,-120,-52,-20,-4,4,-46,-358
-83,-74,-102,-87,-24,-19,-59,-39,256,-142
37,-29,-72,-36,23,41,-5,-12,352,116
166,48,-11,37,66,33,-5,-25,322,337
210,103,71,63,49,-26,-72,-71,114,392
172,106,63,64,35,-5,-38,-49,41,326
102,75,34,38,29,44,56,19,124,266
57,83,39,30,29,57,78,41,114,208
30,85,31,13,35,55,51,-9,-62,95
-13,47,25,-6,41,58,80,-21,-185,-7
-74,5,-10,-6,19,33,88,42,-101,-43
-130,-33,30,22,17,-16,55,54,-106,-113
-183,-110,-89,-5,-5,-8,43,-6,-202,-210
-143,-105,-165,-46,-38,-19,-5,-9,-177,-200
-92,-77,-99,-49,-65,-40,-31,20,-134,-213
-98,-81,-126,-52,-67,-22,4,30,-74,-234
-66,-44,-87,-53,-61,2,45,-7,-33,-100
66,11,0,-33,-35,8,16,-80,-45,195
126,33,25,-9,39,44,-9,-140,-63,246
95,45,36,8,117,74,-9,-112,41,32
71,29,6,-16,54,12,-17,-25,258,74
58,20,-11,-33,-33,-59,-34,-14,255,125
74,34,4,-13,-37,-66,-70,-61,133,88
85,36,9,-6,-22,-26,-46,-72,40,16
50,15,-8,-4,1,25,16,-35,-3,-33
8,-23,-37,-15,7,35,59,30,29,52
1,-50,-72,-70,-17,-1,48,79,35,60
-23,-78,-120,-105,-68,-28,4,86,-53,164
-15,-97,-154,-93,-79,-26,-22,58,-140,536
51,-46,-106,-54,-51,-2,-53,-22,-230,701
48,2,-34,-31,-20,41,-20,-77,-236,288
-60,-19,-40,-50,-37,22,46,-52,-29,-117
-136,-52,-89,-96,-78,-13,105,35,144,-483
-150,-38,-142,-82,-25,-24,58,77,168,-663
-11,37,-96,-7,60,-10,-9,10,41,7
88,84,-41,54,67,3,-15,-25,-119,300
13,40,-58,41,39,14,12,32,-82,-369
-99,-61,-200,-56,-27,13,35,114,241,-624
-11,-17,-160,-33,-20,19,12,45,114,-254
4,37,-52,1,1,15,-2,-18,-28,-147
-21,55,-18,21,15,15,9,14,22,-150
-31,53,63,31,37,28,2,10,19,-125
11,44,61,51,26,16,-26,-5,3,-59
30,16,76,33,3,2,-14,1,34,18
24,23,73,22,0,-15,23,0,48,63
14,40,89,8,-9,-28,42,16,35,72
0,65,92,4,-16,-37,12,10,9,44
10,62,84,8,-27,-51,-43,-49,14,53
13,70,105,24,-6,-36,-51,-56,-15,45
-7,53,67,36,15,2,-8,-36,-76,-10
-35,-11,-19,21,14,16,23,4,20,15
-10,-42,-12,11,8,5,32,36,96,116
33,0,41,54,35,7,33,9,33,149
52,46,118,94,53,18,21,-66,-126,117
71,61,125,107,56,18,11,-89,-198,94
96,83,130,106,69,26,9,-71,-203,104
78,50,112,57,87,59,50,66,38,299
78,48,114,65,69,56,58,134,131,372
80,50,114,73,28,42,25,104,23,132
11,-35,68,48,-2,8,-13,59,71,-70
-33,-62,75,51,-15,-11,-30,17,81,-108
-75,-52,63,27,-35,-5,0,37,18,-85
-85,-38,48,17,-24,-27,-33,9,30,-79
-76,-30,93,17,18,-27,-47,-50,29,-100
-76,-43,64,3,9,-9,15,-45,21,-93
-99,-32,34,7,5,1,53,-18,12,-88
-135,-47,29,13,15,7,51,18,-4,-106
-88,-33,20,15,12,-1,32,43,-17,-104
-24,-13,-25,14,9,0,27,56,-25,-85
-5,0,-117,2,-12,1,35,65,71,-72
0,30,20,47,11,2,11,35,170,-95
-37,45,169,86,27,14,5,33,238,-140
-10,90,238,116,52,20,-29,1,190,-80
3,104,265,133,77,39,-1,-20,5,-10
2,88,210,133,77,44,10,-72,-180,14
-24,60,100,64,22,21,16,-99,-243,-3
-91,-12,12,-28,-44,-27,14,-61,-166,-28
-84,-98,-105,-124,-109,-90,-25,-11,-92,1
-40,-164,-200,-206,-113,-109,-61,10,-82,76
-35,-187,-270,-242,-97,-100,-88,-18,-134,88
-33,-171,-298,-280,-140,-113,-85,-33,-146,-42
-69,-177,-356,-300,-163,-86,-21,24,87,-239
-102,-162,-402,-262,-126,-15,36,46,271,-254
-36,-100,-261,-192,-81,22,51,39,243,-106
112,-14,-115,-105,-27,23,23,-9,176,128
220,36,-43,-27,39,58,2,-112,-101,263
195,69,21,35,82,62,-47,-234,-431,173
173,54,2,9,34,24,-51,-192,-234,218
165,25,-30,-22,1,19,-14,-55,99,316
132,29,2,0,6,25,-4,2,200,301
134,70,69,23,8,19,-9,12,139,542
104,86,111,43,27,28,-4,-3,27,731
53,28,100,28,32,41,49,20,-34,402
1,7,116,13,65,75,110,95,27,-288
-34,0,117,6,89,58,62,53,54,-449
-83,-52,18,-60,5,-18,5,0,13,-333
-72,-67,-32,-102,-58,-65,-24,15,42,-232
-43,-50,-42,-92,-59,-70,-55,0,63,-191
-36,-40,-48,-67,-42,-76,-62,-2,71,-160
-42,-27,-42,-36,-11,-63,-21,22,66,-136
-13,-23,-47,-22,15,-27,17,23,-8,-101
61,-14,-36,17,31,3,0,-21,-148,12
73,16,-1,60,52,43,-27,-68,-203,64
66,53,42,104,84,49,-28,-27,-63,98
67,78,53,126,89,35,1,33,42,73
23,76,35,115,81,64,56,82,115,54
-12,73,67,141,96,96,86,100,65,140
-1,58,91,157,83,79,69,85,-12,160
-128,-18,117,-6,-72,-62,-101,5,253,-90
-68,10,154,-33,-83,-85,-149,-86,57,-34
-61,3,87,-68,-99,-93,-127,-120,-72,-73
-67,-32,-10,-108,-106,-81,-92,-55,-6,-77
-50,-14,-32,-97,-44,-54,-109,-32,50,-44
-54,-26,-60,-85,-42,-48,-70,-28,30,-52
10,-30,-106,-70,-62,-48,-43,-25,-18,-2
51,-20,-113,-50,-52,-39,-24,-49,-113,174
42,-47,-122,-45,-50,-43,-12,-58,-213,367
3,-82,-146,-55,-34,-33,4,-17,-208,133
-20,-77,-160,-57,-38,-45,-30,39,40,-181
-17,-22,-114,-7,-12,-43,-62,38,193,-151
-5,-4,-48,19,16,12,2,31,92,-153
-63,-50,-73,-24,0,34,55,41,98,-213
-64,-45,-61,-32,-1,21,24,-3,57,-178
-4,12,-15,2,20,25,-3,-24,-86,92
42,30,30,23,35,39,4,-44,-220,454
88,64,74,64,54,56,27,-45,-179,288
4,-3,9,27,30,35,35,-3,10,-401
-70,-45,-72,2,6,11,-3,10,173,-546
-51,-18,18,34,33,51,0,-14,16,-367
-11,13,115,54,39,62,5,-28,-20,-220
71,71,189,97,41,36,17,-6,-24,23
55,72,211,93,15,1,54,80,51,329
29,101,238,88,6,-27,36,42,45,590
119,153,292,114,32,-50,-69,-88,-65,691
87,100,235,75,74,-28,-98,-44,29,470
2,44,144,33,68,2,-40,45,140,-134
-66,-5,55,-9,-26,-30,-50,37,153,-496
-129,-104,-86,-83,-86,-55,-44,17,121,-424
-74,-133,-184,-111,-82,-32,-20,44,116,-269
-15,-101,-195,-109,-71,-18,31,101,182,-130
-1,-92,-140,-92,-70,2,116,126,118,-61
13,-23,-13,-8,-5,27,87,63,-51,-52
0,12,49,39,15,24,36,35,-160,-118
-4,3,33,39,-2,15,-2,-6,-109,-117
76,41,-33,74,9,3,-48,-96,-119,-23
88,64,3,103,32,-1,-52,-152,-228,-43
7,49,18,99,19,-31,-59,-103,-251,-123
-98,-5,-65,64,-6,-16,-15,-16,-210,-172
-174,-63,-27,43,-12,19,-5,11,-142,-195
-106,-32,63,47,25,7,-56,3,-18,-110
-7,-20,57,48,15,-29,-73,0,122,-21
9,-5,16,15,-37,-53,-56,5,291,43
-28,-21,-21,1,-11,15,-17,-19,213,22
7,-24,-54,-7,18,61,66,-93,-41,13
93,29,12,3,1,16,75,-108,-201,56
96,11,-22,-30,-34,-15,52,-27,-147,89
49,-14,-62,-75,-19,9,38,18,-121,79
0,-45,-83,-90,-9,34,38,37,-113,-4
