(0.004272461, 0.0244750977, -0.452331543, 0.8914795)
(0.004272461, 0.0244750977, -0.452331543, 0.8914795)
(0.004272461, 0.0244750977, -0.452331543, 0.8914795)
(0.004272461, 0.0244140625, -0.452331543, 0.8914795)
(0.004272461, 0.0244140625, -0.452331543, 0.8914795)
(0.004272461, 0.0244140625, -0.452331543, 0.8914795)
(0.004272461, 0.0244140625, -0.452331543, 0.8914795)
(0.004272461, 0.0244140625, -0.452331543, 0.8914795)
(0.004272461, 0.0244140625, -0.452331543, 0.8914795)
(0.004272461, 0.0244140625, -0.452331543, 0.8914795)
(0.004272461, 0.0244140625, -0.452331543, 0.8914795)
(0.004272461, 0.0244140625, -0.452331543, 0.8914795)
(0.004272461, 0.0244140625, -0.452331543, 0.8914795)
(0.004272461, 0.0244140625, -0.452331543, 0.8914795)
(0.004272461, 0.0243530273, -0.452331543, 0.8914795)
(0.004272461, 0.0243530273, -0.452331543, 0.8914795)
(0.004272461, 0.0243530273, -0.452331543, 0.8914795)
(0.004272461, 0.0242919922, -0.452331543, 0.8914795)
(0.004272461, 0.0242919922, -0.452331543, 0.8914795)
(0.004333496, 0.0242919922, -0.452331543, 0.8914795)
(0.004333496, 0.0242919922, -0.452331543, 0.8914795)
(0.004211426, 0.0243530273, -0.452331543, 0.8914795)
(0.004211426, 0.0243530273, -0.452331543, 0.8914795)
(0.004211426, 0.0243530273, -0.452331543, 0.8914795)
(0.00415039063, 0.0243530273, -0.452331543, 0.8914795)
(0.00415039063, 0.0243530273, -0.452331543, 0.8914795)
(0.00415039063, 0.0242919922, -0.452331543, 0.8914795)
(0.00415039063, 0.0242919922, -0.452331543, 0.8914795)
(0.004211426, 0.0242919922, -0.452148438, 0.891601563)
(0.004211426, 0.024230957, -0.452148438, 0.891601563)
(0.00408935547, 0.0242919922, -0.4520874, 0.891601563)
(0.00408935547, 0.0242919922, -0.4520874, 0.891601563)
(0.00408935547, 0.0242919922, -0.4520874, 0.891601563)
(0.00408935547, 0.0242919922, -0.4520874, 0.891601563)
(0.00408935547, 0.0242919922, -0.4520874, 0.891601563)
(0.00408935547, 0.0242919922, -0.4520874, 0.891601563)
(0.00408935547, 0.0242919922, -0.4520874, 0.891601563)
(0.00408935547, 0.0242919922, -0.4520874, 0.891601563)
(0.00408935547, 0.0242919922, -0.4520874, 0.891601563)
(0.003967285, 0.0243530273, -0.451965332, 0.8916626)
(0.003967285, 0.0243530273, -0.451965332, 0.8916626)
(0.003967285, 0.0243530273, -0.451965332, 0.8916626)
(0.003967285, 0.0243530273, -0.451965332, 0.8916626)
(0.00390625, 0.0243530273, -0.451965332, 0.8916626)
(0.00390625, 0.0243530273, -0.451965332, 0.8916626)
(0.00390625, 0.0242919922, -0.451965332, 0.8916626)
(0.00390625, 0.0242919922, -0.451965332, 0.8916626)
(0.00390625, 0.0242919922, -0.451965332, 0.8916626)
(0.00390625, 0.0242919922, -0.451965332, 0.8916626)
(0.00390625, 0.0242919922, -0.451965332, 0.8916626)
(0.00390625, 0.0242919922, -0.451965332, 0.8916626)
(0.00390625, 0.0242919922, -0.451965332, 0.8916626)
(0.00390625, 0.0242919922, -0.451965332, 0.8916626)
(0.00390625, 0.0242919922, -0.451965332, 0.8916626)
(0.00390625, 0.0242919922, -0.451965332, 0.8916626)
(0.00390625, 0.0242919922, -0.451965332, 0.8916626)
(0.00390625, 0.024230957, -0.451965332, 0.8916626)
(0.00366210938, 0.0242919922, -0.4520874, 0.891601563)
(0.00366210938, 0.0242919922, -0.4520874, 0.891601563)
(0.003479004, 0.0244140625, -0.452148438, 0.891601563)
(0.003479004, 0.0243530273, -0.452148438, 0.891601563)
(0.003479004, 0.0243530273, -0.452148438, 0.891601563)
(0.00341796875, 0.0241699219, -0.4522705, 0.8915405)
(0.00341796875, 0.0241699219, -0.4522705, 0.8915405)
(0.00329589844, 0.0238647461, -0.452392578, 0.8914795)
(0.00323486328, 0.0234985352, -0.4524536, 0.891418457)
(0.00323486328, 0.0234985352, -0.4524536, 0.891418457)
(0.00323486328, 0.0234985352, -0.4524536, 0.891418457)
(0.00329589844, 0.02319336, -0.452514648, 0.891418457)
(0.003112793, 0.0229492188, -0.452514648, 0.891418457)
(0.00286865234, 0.0228271484, -0.452514648, 0.891418457)
(0.00286865234, 0.0228271484, -0.452514648, 0.891418457)
(0.00268554688, 0.0225830078, -0.4524536, 0.8914795)
(0.00268554688, 0.0225830078, -0.4524536, 0.8914795)
(0.00262451172, 0.0223388672, -0.452331543, 0.8915405)
(0.00262451172, 0.0223388672, -0.452331543, 0.8915405)
(0.00262451172, 0.0223999023, -0.452331543, 0.8915405)
(0.00262451172, 0.0223999023, -0.452331543, 0.8915405)
(0.00262451172, 0.0223999023, -0.452331543, 0.8915405)
(0.00262451172, 0.0223999023, -0.452331543, 0.8915405)
(0.00262451172, 0.0224609375, -0.452331543, 0.8915405)
(0.00256347656, 0.0224609375, -0.452331543, 0.8915405)
(0.00256347656, 0.0224609375, -0.452331543, 0.8915405)
(0.00256347656, 0.0224609375, -0.452331543, 0.8915405)
(0.00256347656, 0.0224609375, -0.452331543, 0.8915405)
(0.002746582, 0.022644043, -0.452331543, 0.8915405)
(0.00280761719, 0.0228881836, -0.452331543, 0.8915405)
(0.00280761719, 0.0228881836, -0.452331543, 0.8915405)
(0.00280761719, 0.0228881836, -0.452331543, 0.8915405)
(0.0029296875, 0.0231323242, -0.452392578, 0.8914795)
(0.0029296875, 0.0231323242, -0.452392578, 0.8914795)
(0.00317382813, 0.0232543945, -0.4524536, 0.8914795)
(0.003540039, 0.0233764648, -0.452514648, 0.891418457)
(0.003540039, 0.0233764648, -0.452514648, 0.891418457)
(0.00366210938, 0.0236206055, -0.452575684, 0.891418457)
(0.00360107422, 0.02368164, -0.452636719, 0.8913574)
(0.00360107422, 0.02368164, -0.452636719, 0.8913574)
(0.00329589844, 0.0234985352, -0.452697754, 0.8913574)
(0.00317382813, 0.0232543945, -0.4527588, 0.8912964)
(0.00317382813, 0.0232543945, -0.4527588, 0.8912964)
(0.00317382813, 0.0232543945, -0.4527588, 0.8912964)
(0.00317382813, 0.0232543945, -0.4527588, 0.8912964)
(0.00317382813, 0.0232543945, -0.4527588, 0.8912964)
(0.00317382813, 0.0232543945, -0.4527588, 0.8912964)
(0.00317382813, 0.0232543945, -0.4527588, 0.8912964)
(0.00317382813, 0.0232543945, -0.4527588, 0.8912964)
(0.00317382813, 0.0232543945, -0.4527588, 0.8912964)
(0.00317382813, 0.0232543945, -0.4527588, 0.8912964)
(0.00317382813, 0.0232543945, -0.4527588, 0.8912964)
(0.00317382813, 0.0232543945, -0.4527588, 0.8912964)
(0.00317382813, 0.0232543945, -0.4527588, 0.8912964)
(0.00317382813, 0.0232543945, -0.4527588, 0.8912964)
(0.00317382813, 0.0232543945, -0.4527588, 0.8912964)
(0.00317382813, 0.0232543945, -0.4527588, 0.8912964)
(0.00323486328, 0.0232543945, -0.4527588, 0.8912964)
(0.00323486328, 0.0232543945, -0.4527588, 0.8912964)
(0.00323486328, 0.0232543945, -0.4527588, 0.8912964)
(0.00323486328, 0.0232543945, -0.4527588, 0.8912964)
(0.00323486328, 0.0232543945, -0.4527588, 0.8912964)
(0.00323486328, 0.0232543945, -0.4527588, 0.8912964)
(0.00323486328, 0.0232543945, -0.4527588, 0.8912964)
(0.00323486328, 0.02319336, -0.4527588, 0.8912964)
(0.00323486328, 0.02319336, -0.4527588, 0.8912964)
(0.00323486328, 0.02319336, -0.4527588, 0.8912964)
(0.00323486328, 0.02319336, -0.4527588, 0.8912964)
(0.00323486328, 0.02319336, -0.4527588, 0.8912964)
(0.00329589844, 0.0231323242, -0.4527588, 0.8912964)
(0.00329589844, 0.0231323242, -0.4527588, 0.8912964)
(0.00329589844, 0.0231323242, -0.4527588, 0.8912964)
(0.00329589844, 0.0231323242, -0.4527588, 0.8912964)
(0.00329589844, 0.0231323242, -0.4527588, 0.8912964)
(0.00329589844, 0.0231323242, -0.4527588, 0.8912964)
(0.00329589844, 0.0230712891, -0.4527588, 0.8912964)
(0.00329589844, 0.0230712891, -0.4527588, 0.8912964)
(0.00329589844, 0.0230712891, -0.4527588, 0.8912964)
(0.00329589844, 0.0230712891, -0.4527588, 0.8912964)
(0.00329589844, 0.0230712891, -0.4527588, 0.8912964)
(0.00329589844, 0.0230712891, -0.4527588, 0.8912964)
(0.00329589844, 0.0230712891, -0.4527588, 0.8912964)
(0.00329589844, 0.0230712891, -0.4527588, 0.8912964)
(0.00329589844, 0.0230712891, -0.4527588, 0.8912964)
(0.00329589844, 0.0230712891, -0.4527588, 0.8912964)
(0.003112793, 0.0231323242, -0.452697754, 0.8913574)
(0.003112793, 0.0231323242, -0.452697754, 0.8913574)
(0.003112793, 0.0231323242, -0.452697754, 0.8913574)
(0.00317382813, 0.0231323242, -0.452697754, 0.8913574)
(0.00317382813, 0.0231323242, -0.452697754, 0.8913574)
(0.00317382813, 0.0231323242, -0.452697754, 0.8913574)
(0.00317382813, 0.0230712891, -0.452697754, 0.8913574)
(0.00317382813, 0.0230712891, -0.452697754, 0.8913574)
(0.00317382813, 0.0230712891, -0.452697754, 0.8913574)
(0.00317382813, 0.0230712891, -0.452697754, 0.8913574)
(0.00317382813, 0.0230712891, -0.452697754, 0.8913574)
(0.00317382813, 0.0230712891, -0.452697754, 0.8913574)
(0.00317382813, 0.0230102539, -0.452697754, 0.8913574)
(0.00317382813, 0.0230102539, -0.452697754, 0.8913574)
(0.00317382813, 0.0230102539, -0.452697754, 0.8913574)
(0.00323486328, 0.0230102539, -0.452697754, 0.8913574)
(0.00323486328, 0.0230102539, -0.452697754, 0.8913574)
(0.00323486328, 0.0230102539, -0.452697754, 0.8913574)
(0.00323486328, 0.0230102539, -0.452697754, 0.8913574)
(0.00323486328, 0.0230102539, -0.452697754, 0.8913574)
(0.00323486328, 0.0230102539, -0.452697754, 0.8913574)
(0.00323486328, 0.0230102539, -0.452697754, 0.8913574)
(0.00323486328, 0.0230102539, -0.452697754, 0.8913574)
(0.003112793, 0.0227661133, -0.452697754, 0.8913574)
(0.003112793, 0.0227661133, -0.452697754, 0.8913574)
(0.00286865234, 0.0225219727, -0.4527588, 0.8912964)
(0.00286865234, 0.0225219727, -0.4527588, 0.8912964)
(0.00268554688, 0.022277832, -0.452880859, 0.8912964)
(0.00244140625, 0.0221557617, -0.4529419, 0.891235352)
(0.00213623047, 0.0222167969, -0.45300293, 0.891235352)
(0.00183105469, 0.022277832, -0.4529419, 0.891235352)
(0.00183105469, 0.022277832, -0.4529419, 0.891235352)
(0.00183105469, 0.022277832, -0.4529419, 0.891235352)
(0.00183105469, 0.022277832, -0.4529419, 0.891235352)
(0.00183105469, 0.022277832, -0.4529419, 0.891235352)
(0.00189208984, 0.022277832, -0.4529419, 0.891235352)
(0.00189208984, 0.0222167969, -0.4529419, 0.891235352)
(0.00189208984, 0.0222167969, -0.4529419, 0.891235352)
(0.00177001953, 0.0224609375, -0.45300293, 0.891235352)
(0.00183105469, 0.0232543945, -0.452880859, 0.891235352)
(0.00183105469, 0.0232543945, -0.452880859, 0.891235352)
(0.00177001953, 0.02355957, -0.452819824, 0.8912964)
(0.00158691406, 0.0238647461, -0.4527588, 0.8912964)
(0.00152587891, 0.0238647461, -0.4527588, 0.8912964)
(0.00152587891, 0.0238647461, -0.4527588, 0.8912964)
(0.00152587891, 0.0238647461, -0.4527588, 0.8912964)
(0.00152587891, 0.0238647461, -0.4527588, 0.8912964)
(0.00152587891, 0.0238037109, -0.4527588, 0.8912964)
(0.00134277344, 0.0239868164, -0.452697754, 0.8912964)
(0.00134277344, 0.0239868164, -0.452697754, 0.8912964)
(0.00103759766, 0.0241699219, -0.452697754, 0.8913574)
(-0.00152587891, 0.020690918, -0.454833984, 0.8903198)
(-0.00152587891, 0.020690918, -0.454833984, 0.8903198)
(-0.00152587891, 0.020690918, -0.454833984, 0.8903198)
(-0.00152587891, 0.0207519531, -0.454833984, 0.8903198)
(-0.00152587891, 0.0207519531, -0.454833984, 0.8903198)
(-0.00152587891, 0.020690918, -0.454833984, 0.8903198)
(-0.00164794922, 0.0208129883, -0.45489502, 0.8902588)
(-0.00164794922, 0.0208129883, -0.45489502, 0.8902588)
(-0.00177001953, 0.0208740234, -0.454956055, 0.8902588)
(-0.00177001953, 0.0208740234, -0.454956055, 0.8902588)
(-0.00177001953, 0.0208740234, -0.454956055, 0.8902588)
(-0.00177001953, 0.0208740234, -0.454956055, 0.8902588)
(-0.00177001953, 0.0208740234, -0.454956055, 0.8902588)
(-0.00177001953, 0.0208740234, -0.454956055, 0.8902588)
(-0.00177001953, 0.0208740234, -0.454956055, 0.8902588)
(-0.00177001953, 0.0208740234, -0.454956055, 0.8902588)
(-0.00177001953, 0.0208740234, -0.454956055, 0.8902588)
(-0.00177001953, 0.0208740234, -0.454956055, 0.8902588)
(-0.00177001953, 0.0208740234, -0.454956055, 0.8902588)
(-0.00170898438, 0.0208129883, -0.454956055, 0.8902588)
(-0.00170898438, 0.0208129883, -0.454956055, 0.8902588)
(-0.00170898438, 0.0208129883, -0.454956055, 0.8902588)
(-0.00170898438, 0.0208129883, -0.454956055, 0.8902588)
(-0.00170898438, 0.0208129883, -0.454956055, 0.8902588)
(-0.00170898438, 0.0208129883, -0.454956055, 0.8902588)
(-0.00170898438, 0.0208129883, -0.454956055, 0.8902588)
(-0.00170898438, 0.0208129883, -0.454956055, 0.8902588)
(-0.00170898438, 0.0208129883, -0.454956055, 0.8902588)
(-0.00164794922, 0.0208129883, -0.454956055, 0.8902588)
(-0.00164794922, 0.0208129883, -0.454956055, 0.8902588)
(-0.00170898438, 0.0208129883, -0.454956055, 0.8902588)
(-0.00170898438, 0.0208129883, -0.454956055, 0.8902588)
(-0.00170898438, 0.0207519531, -0.454956055, 0.8902588)
(-0.00170898438, 0.0207519531, -0.454956055, 0.8902588)
(-0.00170898438, 0.0207519531, -0.454956055, 0.8902588)
(-0.00170898438, 0.0207519531, -0.454956055, 0.8902588)
(-0.00170898438, 0.0207519531, -0.454956055, 0.8902588)
(-0.00170898438, 0.0207519531, -0.454956055, 0.8902588)
(-0.00170898438, 0.0207519531, -0.454956055, 0.8902588)
(-0.00170898438, 0.0207519531, -0.454956055, 0.8902588)
(-0.00170898438, 0.0207519531, -0.454956055, 0.8902588)
(-0.00170898438, 0.0209350586, -0.455078125, 0.890197754)
(-0.00170898438, 0.0209350586, -0.455078125, 0.890197754)
(-0.00164794922, 0.0211181641, -0.45513916, 0.8901367)
(-0.00164794922, 0.0210571289, -0.45513916, 0.8901367)
(-0.00164794922, 0.0210571289, -0.45513916, 0.8901367)
(-0.00164794922, 0.0210571289, -0.45513916, 0.8901367)
(-0.00164794922, 0.0210571289, -0.45513916, 0.8901367)
(-0.00158691406, 0.0210571289, -0.45513916, 0.8901367)
(-0.00158691406, 0.0210571289, -0.45513916, 0.8901367)
(-0.00158691406, 0.0210571289, -0.45513916, 0.8901367)
(-0.00158691406, 0.0209960938, -0.45513916, 0.8901367)
(-0.00158691406, 0.0209960938, -0.45513916, 0.8901367)
(-0.00158691406, 0.0209960938, -0.45513916, 0.8901367)
(-0.00158691406, 0.0209960938, -0.45513916, 0.8901367)
(-0.00158691406, 0.0209960938, -0.45513916, 0.8901367)
(-0.00158691406, 0.0210571289, -0.45513916, 0.8901367)
(-0.00158691406, 0.0210571289, -0.45513916, 0.8901367)
(-0.00152587891, 0.0210571289, -0.45513916, 0.8901367)
(-0.00152587891, 0.0210571289, -0.45513916, 0.8901367)
(-0.00152587891, 0.0210571289, -0.45513916, 0.8901367)
(-0.00152587891, 0.0210571289, -0.45513916, 0.8901367)
(-0.00152587891, 0.0210571289, -0.45513916, 0.8901367)
(-0.00152587891, 0.0210571289, -0.45513916, 0.8901367)
(-0.00152587891, 0.0210571289, -0.45513916, 0.8901367)
(-0.00152587891, 0.0210571289, -0.45513916, 0.8901367)
(-0.00152587891, 0.0211181641, -0.45513916, 0.8901367)
(-0.00152587891, 0.0211181641, -0.45513916, 0.8901367)
(-0.00152587891, 0.0211181641, -0.45513916, 0.8901367)
(-0.00152587891, 0.0211181641, -0.45513916, 0.8901367)
(-0.00152587891, 0.0211181641, -0.45513916, 0.8901367)
(-0.00146484375, 0.0211181641, -0.45513916, 0.8901367)
(-0.00146484375, 0.0211181641, -0.45513916, 0.8901367)
(-0.00146484375, 0.0211181641, -0.45513916, 0.8901367)
(-0.00146484375, 0.0211181641, -0.45513916, 0.8901367)
(-0.00146484375, 0.0211181641, -0.45513916, 0.8901367)
(-0.00146484375, 0.0211792, -0.45513916, 0.8901367)
(-0.00146484375, 0.0211792, -0.45513916, 0.8901367)
(-0.00146484375, 0.0211792, -0.45513916, 0.8901367)
(-0.00146484375, 0.0211792, -0.45513916, 0.8901367)
(-0.00146484375, 0.0211792, -0.45513916, 0.8901367)
(-0.00146484375, 0.0211792, -0.45513916, 0.8901367)
(-0.00146484375, 0.0211792, -0.45513916, 0.8901367)
(-0.00140380859, 0.0212402344, -0.45513916, 0.8901367)
(-0.00140380859, 0.0212402344, -0.45513916, 0.8901367)
(-0.00140380859, 0.0212402344, -0.45513916, 0.8901367)
(-0.00140380859, 0.0212402344, -0.45513916, 0.8901367)
(-0.00140380859, 0.0212402344, -0.45513916, 0.8901367)
(-0.00146484375, 0.0212402344, -0.45513916, 0.8901367)
(-0.00140380859, 0.02130127, -0.45513916, 0.8901367)
(-0.00140380859, 0.02130127, -0.45513916, 0.8901367)
(-0.00140380859, 0.02130127, -0.45513916, 0.8901367)
(-0.00140380859, 0.02130127, -0.45513916, 0.8901367)
(-0.00146484375, 0.021484375, -0.45513916, 0.8901367)
(-0.00146484375, 0.021484375, -0.45513916, 0.8901367)
(-0.00164794922, 0.02166748, -0.4552002, 0.8901367)
(-0.00140380859, 0.02166748, -0.45526123, 0.8900757)
(-0.00140380859, 0.02166748, -0.45526123, 0.8900757)
(-0.00140380859, 0.02166748, -0.45526123, 0.8900757)
(-0.00134277344, 0.02166748, -0.45526123, 0.8900757)
(-0.00134277344, 0.02166748, -0.45526123, 0.8900757)
(-0.00146484375, 0.0219116211, -0.455322266, 0.890014648)
(-0.00146484375, 0.0219116211, -0.455322266, 0.890014648)
(-0.00140380859, 0.0221557617, -0.455322266, 0.890014648)
(-0.00140380859, 0.0221557617, -0.455322266, 0.890014648)
(-0.00134277344, 0.0223999023, -0.455322266, 0.890014648)
(-0.00134277344, 0.0223999023, -0.455322266, 0.890014648)
(-0.00134277344, 0.0223999023, -0.455322266, 0.890014648)
(-0.00134277344, 0.0223999023, -0.455322266, 0.890014648)
(-0.00134277344, 0.0223999023, -0.455322266, 0.890014648)
(-0.00134277344, 0.0223999023, -0.455322266, 0.890014648)
(-0.00134277344, 0.0223999023, -0.455322266, 0.890014648)
(-0.00134277344, 0.0224609375, -0.455322266, 0.890014648)
(-0.00134277344, 0.0224609375, -0.455322266, 0.890014648)
(-0.00134277344, 0.0224609375, -0.455322266, 0.890014648)
(-0.00134277344, 0.0224609375, -0.455322266, 0.890014648)
(-0.00134277344, 0.0224609375, -0.455322266, 0.890014648)
(-0.00134277344, 0.0224609375, -0.455322266, 0.890014648)
(-0.00134277344, 0.0224609375, -0.455322266, 0.890014648)
(-0.00128173828, 0.0224609375, -0.455322266, 0.890014648)
(-0.00128173828, 0.0224609375, -0.455322266, 0.890014648)
(-0.00128173828, 0.0224609375, -0.455322266, 0.890014648)
(-0.00128173828, 0.0224609375, -0.455322266, 0.890014648)
(-0.00122070313, 0.0224609375, -0.455322266, 0.890014648)
(-0.00122070313, 0.0224609375, -0.455322266, 0.890014648)
(-0.00122070313, 0.0224609375, -0.455322266, 0.890014648)
(-0.00122070313, 0.0224609375, -0.455322266, 0.890014648)
(-0.00122070313, 0.0224609375, -0.455322266, 0.890014648)
(-0.00122070313, 0.0224609375, -0.455322266, 0.890014648)
(-0.00122070313, 0.0224609375, -0.455322266, 0.890014648)
(-0.001159668, 0.0224609375, -0.455322266, 0.890014648)
(-0.001159668, 0.0224609375, -0.455322266, 0.890014648)
(-0.00103759766, 0.0225219727, -0.455322266, 0.890014648)
(-0.00103759766, 0.0225830078, -0.455322266, 0.890014648)
(-0.00103759766, 0.0225830078, -0.455322266, 0.890014648)
(-0.00103759766, 0.0225830078, -0.45526123, 0.890014648)
(-0.0009765625, 0.0225830078, -0.45526123, 0.890014648)
(-0.0009765625, 0.0225830078, -0.45526123, 0.890014648)
(-0.0009765625, 0.0225830078, -0.45526123, 0.890014648)
(-0.0009765625, 0.0225830078, -0.45526123, 0.890014648)
(-0.000915527344, 0.0225830078, -0.45526123, 0.890014648)
(-0.000915527344, 0.0225830078, -0.45526123, 0.890014648)
(-0.000915527344, 0.022644043, -0.45526123, 0.890014648)
(-0.000915527344, 0.022644043, -0.45526123, 0.890014648)
(-0.000915527344, 0.022644043, -0.45526123, 0.890014648)
(-0.000915527344, 0.022644043, -0.45526123, 0.890014648)
(-0.000915527344, 0.022644043, -0.45526123, 0.890014648)
(-0.000915527344, 0.022644043, -0.45526123, 0.890014648)
(-0.000915527344, 0.022644043, -0.45526123, 0.890014648)
(-0.000915527344, 0.022644043, -0.45526123, 0.890014648)
(-0.0008544922, 0.022644043, -0.45526123, 0.890014648)
(-0.000915527344, 0.022644043, -0.45526123, 0.890014648)
(-0.000915527344, 0.022644043, -0.45526123, 0.890014648)
(-0.0008544922, 0.022644043, -0.45526123, 0.890014648)
(-0.0008544922, 0.022644043, -0.45526123, 0.890014648)
(-0.0008544922, 0.022644043, -0.45526123, 0.890014648)
(-0.0008544922, 0.022644043, -0.45526123, 0.890014648)
(-0.0008544922, 0.022644043, -0.45526123, 0.890014648)
(-0.0008544922, 0.022644043, -0.45526123, 0.890014648)
(-0.0008544922, 0.022644043, -0.45526123, 0.890014648)
(-0.0008544922, 0.022644043, -0.45526123, 0.890014648)
(-0.0008544922, 0.022644043, -0.45526123, 0.890014648)
(-0.000793457031, 0.022644043, -0.45526123, 0.890014648)
(-0.000793457031, 0.022644043, -0.45526123, 0.890014648)
(-0.000793457031, 0.022644043, -0.45526123, 0.890014648)
(-0.000793457031, 0.0227050781, -0.45526123, 0.890014648)
(-0.000793457031, 0.0227050781, -0.45526123, 0.890014648)
(-0.000793457031, 0.0227050781, -0.45526123, 0.890014648)
(-0.000793457031, 0.0227050781, -0.45526123, 0.890014648)
(-0.000793457031, 0.0227050781, -0.45526123, 0.890014648)
(-0.000793457031, 0.0227050781, -0.45526123, 0.890014648)
(-0.000793457031, 0.0227050781, -0.45526123, 0.890014648)
(-0.000793457031, 0.0227050781, -0.45526123, 0.890014648)
(-0.000793457031, 0.0227050781, -0.45526123, 0.890014648)
(-0.000793457031, 0.0227050781, -0.45526123, 0.890014648)
