-12,125,48,54,55,-84,6,51,48,2
-40,49,17,60,42,-81,-1,12,-25,-15
-21,50,1,62,33,-84,-12,-10,-47,-17
-18,60,-10,48,27,-69,-25,-24,-51,-14
-10,72,-8,31,10,-48,-60,-25,-38,-22
13,86,10,3,-13,4,-73,-24,-27,-26
66,154,49,0,-29,25,-70,-16,5,-26
37,127,34,86,-7,12,-90,-43,-51,-72
-2,94,8,126,34,20,-70,-53,-90,-94
-10,111,52,72,-15,20,-28,-18,-61,-56
-24,99,47,33,-30,19,-8,-10,-40,-78
-69,75,29,12,-13,23,0,-14,-32,-90
-96,52,1,1,-4,25,-32,-32,-62,-65
-92,38,-11,11,2,37,-62,-37,-30,-30
-94,20,-21,9,-1,48,-40,-12,18,-11
-94,-17,-105,6,-3,36,-36,21,38,13
-57,-31,-108,-4,0,8,-18,53,55,56
19,-14,-56,-14,8,-12,33,56,72,64
117,23,-62,-23,3,-42,74,72,74,68
178,9,-107,-27,-13,-50,4,95,77,73
248,2,-204,-12,-17,-61,-122,118,99,94
353,106,-211,12,-3,-67,-254,162,210,115
370,202,-114,18,0,-68,-280,154,262,99
140,48,-7,24,-1,-17,-178,117,159,90
-74,-122,-16,10,-13,48,-45,106,89,60
-180,-169,-21,-3,-14,79,-6,105,84,52
-215,-128,33,9,13,79,-18,42,81,44
-197,-71,87,54,73,79,-69,-27,45,15
-178,-32,131,100,132,114,-90,-105,-7,-2
-223,-78,67,44,106,159,-78,-233,-117,-45
-288,-171,-31,-16,59,244,-64,-305,-206,-69
-252,-134,-28,1,30,188,-126,-265,-202,4
-181,-59,4,35,23,45,-177,-195,-177,43
-146,-10,16,56,20,10,-165,-171,-178,-10
-128,5,17,49,17,29,-165,-164,-182,-72
-146,0,16,42,30,41,-152,-160,-202,-135
-118,15,3,19,35,35,-128,-155,-204,-149
-94,-5,6,18,7,25,-115,-161,-221,-147
-80,6,-37,10,-14,0,-102,-159,-220,-135
-42,11,-117,3,-29,0,-97,-149,-205,-118
13,26,-38,-2,-37,2,-81,-132,-181,-106
40,54,9,-14,-38,1,-58,-113,-163,-100
11,29,-13,-45,-52,9,-38,-100,-164,-116
-3,21,-18,-64,-43,6,-35,-93,-121,-151
108,101,6,-66,-32,0,-23,-60,-7,-146
158,60,2,-52,-42,-21,26,-23,36,-87
101,-26,-16,-26,-50,-33,99,-2,0,-41
150,1,-106,-5,-39,-31,173,19,21,-19
164,28,-71,10,-9,-15,227,56,41,-1
134,24,35,-4,7,-21,190,94,59,25
128,47,79,-12,25,-49,30,90,75,49
128,80,114,6,52,-65,-140,71,103,62
40,-6,78,1,49,-58,-127,43,68,39
-24,-85,15,-56,14,-8,25,59,82,22
6,-74,18,-62,5,74,162,95,130,36
88,-8,66,-10,16,109,172,80,156,73
127,24,106,19,37,137,65,42,160,94
138,44,75,38,66,161,-41,20,170,82
188,106,65,66,83,161,-49,10,201,62
223,143,107,31,69,116,-6,2,209,23
88,-50,-37,-32,18,67,66,29,115,-6
9,-122,-14,-76,17,48,79,51,48,-25
-4,-101,-2,-228,61,52,15,44,22,-14
-26,-94,-107,-438,35,95,-25,24,-22,-18
-44,-59,-24,-177,-34,-9,-71,-41,-95,-52
-9,65,196,348,1,-210,-195,-132,-133,-53
45,116,136,324,20,-272,-215,-104,-79,-39
-35,16,71,86,-57,-222,7,21,-73,-26
-31,6,74,29,-12,-74,242,122,1,44
-8,39,21,34,27,24,101,93,-12,59
-43,13,-3,9,28,30,-69,57,-56,40
-72,-17,-18,-9,45,41,-125,64,-61,18
-68,-35,66,-15,63,28,-166,70,-59,33
-62,-39,112,-38,59,46,-115,65,-34,34
-64,-36,106,-48,54,47,-54,50,-17,42
-100,-44,102,-48,36,17,-32,51,-13,51
-146,-39,58,-58,30,16,-34,43,-15,39
-188,-47,-74,-94,16,18,15,26,-15,11
-219,-48,-63,-110,19,18,62,25,-12,14
-233,-31,14,-93,15,2,69,30,-13,31
-236,-6,32,-97,0,-34,51,-3,-11,16
-132,108,41,-97,18,-51,41,-5,58,36
-52,178,58,-71,47,-46,34,5,98,82
-124,59,31,-64,24,-62,21,-11,-12,93
-139,-9,19,-48,12,-54,3,-17,-66,80
-124,-2,26,-45,27,-50,3,-12,-52,64
-124,-17,19,-37,35,-66,1,-30,-52,31
-119,-34,14,-53,25,-73,4,-15,-52,26
-102,-24,17,-68,18,-83,14,12,-23,24
-109,-39,12,-76,19,-88,35,1,-12,3
-95,-66,17,-88,19,-93,81,-12,-18,-16
-66,-73,32,-94,16,-89,127,-2,-14,-41
-59,-74,33,-90,4,-85,109,9,-4,-70
-67,-64,45,-90,-7,-102,107,9,-4,-87
-73,-74,49,-86,-11,-100,132,16,0,-89
-32,-67,59,-52,8,-87,134,30,12,-83
35,-34,78,-25,26,-75,120,38,16,-65
76,-32,76,-15,14,-64,103,22,-23,-56
129,-16,62,10,22,-68,71,-5,-37,-30
145,-20,55,39,26,-57,46,-29,-56,-19
142,-48,47,56,10,-51,43,-42,-68,-20
134,-55,24,40,-5,-47,17,-49,-71,-21
147,-45,39,33,5,-39,6,-48,-47,-12
237,2,27,-15,43,26,29,-19,41,15
356,90,37,-40,78,96,56,8,142,33
309,50,82,96,32,-43,14,-55,54,19
180,-49,98,177,-74,-153,-26,-96,-55,14
141,-100,94,123,-80,-105,5,-59,-26,30
137,-105,95,68,-49,-48,10,-41,-8,41
125,-116,49,-12,0,5,9,-42,-7,40
132,-153,-32,-152,14,60,50,-14,24,42
135,-114,-27,-145,0,60,73,0,49,22
98,-76,78,140,-17,-35,47,-37,11,-9
94,-29,128,225,-48,-85,43,-27,16,4
143,-3,83,119,-60,-67,36,-5,46,52
201,1,25,61,-57,-73,0,9,47,159
226,5,-21,41,-48,-62,2,10,70,257
222,13,-73,42,-30,-14,46,22,98,307
212,54,-34,57,7,2,61,39,153,288
198,105,-17,69,36,0,54,43,199,212
65,42,2,107,42,29,35,36,134,121
-25,54,36,119,42,60,24,32,103,46
-130,8,8,77,27,88,60,64,120,15
-217,-53,-49,41,3,115,91,101,139,27
-176,-42,-50,36,0,127,69,95,124,39
-84,16,-28,30,20,150,49,64,88,17
6,76,4,22,40,182,40,30,83,-36
-13,27,32,27,25,200,35,-9,1,-75
-5,15,20,31,-8,184,19,-25,-62,-77
-5,19,6,17,-48,145,12,-44,-89,-61
-19,19,-12,8,-68,106,36,-63,-94,-41
-34,35,-30,10,-73,77,48,-72,-128,-55
-41,60,-3,27,-62,57,35,-77,-146,-78
-30,101,22,45,-65,49,32,-67,-99,-75
-53,95,0,46,-62,56,29,-64,-87,-80
-84,51,-23,38,-61,53,23,-42,-100,-95
-96,40,-64,27,-72,38,18,-28,-90,-86
-100,34,-86,0,-88,34,19,-19,-80,-78
-84,32,-97,-29,-78,51,27,-9,-70,-89
-67,32,-107,-113,5,90,32,-5,-40,-79
-29,76,-160,-262,97,177,48,26,10,-66
23,178,-238,-179,64,163,35,74,105,-56
-51,188,-64,250,-46,16,-46,14,73,-91
-186,57,5,274,-104,17,-49,-24,-26,-89
-265,-31,-96,120,-119,72,0,19,-26,-61
-305,-67,-72,51,-117,109,41,56,20,-40
-302,-62,-141,4,-121,123,53,85,45,-16
-286,-54,-181,-38,-134,114,54,93,58,7
-217,-32,-72,1,-106,91,12,81,62,28
-142,-22,-26,78,-43,70,-7,43,23,52
-107,-19,-103,41,-64,35,-6,20,-15,88
-85,5,-175,5,-72,27,-12,0,-50,76
-93,20,-99,-2,-60,43,11,-20,-75,35
-121,-29,-124,-23,-61,64,33,-8,-61,19
-113,-54,-77,-39,-66,61,0,-16,-71,2
-65,-42,-54,-46,-58,38,-29,-58,-82,0
-10,-1,-25,-36,-27,55,-42,-92,-85,0
-10,-8,-15,-27,-38,53,-54,-92,-106,-10
-14,-37,-21,-43,-74,31,-53,-77,-83,-17
-35,-57,-41,-56,-73,24,-38,-60,-75,-34
-46,-66,-55,-56,-74,32,-7,-37,-71,-48
-23,-75,-47,-48,-56,43,20,-13,-42,-49
9,-62,-23,-19,-12,55,39,13,-7,-32
92,32,23,3,42,56,52,48,95,-20
185,143,25,13,62,32,40,67,186,-11
104,51,-84,12,60,14,55,72,134,-5
-19,-84,-120,-6,50,13,97,68,77,19
-33,-101,-11,-19,46,10,88,61,62,87
11,-83,10,-28,45,11,42,44,39,143
34,-70,-27,-40,35,-2,-7,57,55,179
15,-55,26,-67,15,-4,-30,75,80,145
0,-37,21,-81,4,-3,-19,87,109,65
-40,-42,15,-65,7,10,2,68,87,0
-68,-39,-54,-42,0,38,9,32,65,-37
-82,-69,-33,-34,-6,64,9,19,57,-46
-73,-85,52,-36,-6,108,39,15,25,-46
-66,-81,41,-58,-28,148,105,0,-34,-59
-50,-73,32,-74,-49,184,168,-5,-88,-57
34,-15,42,-71,-34,188,207,33,-42,-46
112,28,68,-58,-36,189,165,70,27,-38
97,-6,98,-17,-65,151,45,94,-12,-27
156,14,109,8,-56,109,-50,114,-2,5
222,21,84,-92,-40,182,10,121,17,33
249,-2,6,-338,-47,375,153,188,58,80
184,-52,-57,-343,-92,372,272,160,29,30
104,-60,-13,25,-181,-31,216,-28,-63,-94
132,-11,0,70,-298,-122,250,-95,-41,-109
63,-64,12,51,-244,1,283,-113,-105,-104
16,-91,13,-9,-213,126,324,-91,-106,-90
77,8,117,27,-151,220,283,-82,-73,-54
123,78,197,107,-74,214,92,-33,-15,11
48,28,193,126,-7,197,-100,40,62,75
-34,-25,191,148,70,291,-367,43,118,90
-56,-86,155,130,83,303,-614,18,125,75
-64,-152,71,88,58,221,-711,-17,82,75
-23,-141,26,66,16,193,-580,-35,41,62
19,-134,13,21,-24,201,-328,-8,39,41
91,-118,-18,-4,-51,184,-179,20,84,66
182,-46,45,34,-8,193,-151,35,121,128
244,-18,53,60,24,190,-136,17,81,136
306,9,0,32,9,165,-111,-8,30,96
381,120,-35,-2,-23,155,-95,-42,4,39
324,109,-60,-17,-52,161,-62,-92,-72,-30
137,-39,-96,-56,-91,151,-52,-154,-206,-90
-85,-189,-207,-167,-177,82,-10,-263,-327,-192
-233,-310,-294,-270,-263,-17,69,-339,-364,-257
-268,-350,-312,-296,-270,-57,196,-312,-343,-266
-252,-314,-303,-251,-186,-26,340,-290,-316,-253
-251,-264,-279,-243,-153,11,628,-296,-313,-284
-275,-270,-302,-306,-233,-55,742,-201,-339,-343
-307,-296,-327,-347,-279,-94,373,-105,-345,-376
-289,-280,-299,-288,-160,135,35,-48,-288,-318
-156,-177,-181,-129,92,457,532,209,-43,-128
59,71,71,106,317,333,645,404,185,114
107,160,150,174,357,37,-180,232,141,134
78,81,64,97,425,51,-527,103,110,111
42,31,11,39,682,334,-436,144,164,167
38,19,57,149,710,430,-284,133,159,206
145,132,200,363,328,36,-391,67,181,283
296,250,299,424,267,-115,-600,99,289,416
330,261,293,391,346,-96,-656,87,324,448
281,212,228,311,302,-165,-650,4,281,382
137,99,20,169,156,-273,-539,-101,158,214
42,61,-149,11,14,-313,-400,-160,56,22
81,120,-111,-40,-1,-259,-330,-130,70,-31
44,61,-44,-13,33,-141,-251,-81,22,-7
-11,-24,-25,-4,34,-100,-117,-39,-33,11
-41,-66,-64,-28,3,-152,74,14,-39,4
-53,-109,-129,-76,-54,-243,173,78,-37,-9
-64,-153,-151,-98,-60,-248,85,52,-55,-33
-79,-110,-95,-66,6,-165,-12,-29,-80,-47
-130,-60,-75,-110,98,-71,13,-70,-101,-48
-193,-97,-205,-225,152,17,140,-52,-97,-8
-156,-73,-231,-264,158,26,269,-13,-55,51
-99,-22,-76,-150,143,0,284,13,-17,87
-70,13,38,149,48,-131,165,-12,-38,43
-63,19,72,314,-102,-237,79,-75,-85,-34
-55,-3,-6,123,-184,-237,124,-79,-52,-65
-10,27,-39,-19,-212,-241,158,-60,16,-93
-44,-15,-52,-41,-175,-163,203,-42,-20,-138
-96,-78,-18,13,-73,-60,204,-43,-69,-161
-89,-75,39,47,-1,-9,173,-88,-102,-160
-35,-3,96,63,11,-27,101,-136,-105,-119
1,37,128,55,0,-105,5,-143,-89,-66
-18,12,126,48,23,-117,-12,-108,-39,-31
13,52,127,48,67,-131,18,-57,32,-14
135,251,141,8,42,-181,-2,-47,110,10
97,199,124,-5,10,-208,-15,-65,39,35
30,111,124,8,32,-197,-11,-65,-6,54
13,121,133,27,68,-184,-12,-50,26,64
20,127,125,33,84,-168,1,-21,51,83
2,108,128,54,82,-148,-1,8,61,151
-29,113,154,65,83,-138,-1,20,79,250
2,153,158,55,73,-158,1,26,95,305
35,104,99,18,47,-162,1,12,82,309
67,107,67,6,15,-160,-9,-12,77,248
97,95,48,0,12,-149,-13,-11,84,169
106,-1,-39,-23,12,-129,-15,2,117,130
97,-51,-188,-39,-5,-118,-23,33,109,106
94,-30,-193,-82,-43,-79,-11,28,91,78
98,-30,-88,-93,-39,-39,1,18,79,44
90,90,6,35,85,-12,-17,16,123,27
0,235,68,126,154,8,-19,53,124,36
-90,82,55,125,135,9,-36,49,34,39
-95,3,51,113,108,4,-29,55,34,71
-59,141,122,196,141,7,-8,52,35,89
-32,141,94,188,135,55,26,74,38,124
18,81,-54,66,60,89,37,81,60,168
117,114,-18,0,26,96,5,56,77,165
197,113,61,28,24,82,-39,23,25,139
197,109,79,81,83,104,-70,-12,-29,95
175,113,77,90,114,167,-53,-20,-28,68
151,110,46,72,96,186,-54,-1,-15,69
128,103,-29,51,72,186,-47,27,-2,70
98,109,-102,39,85,196,-52,36,12,64
72,114,-47,-49,140,293,-16,75,39,55
18,45,-81,-208,106,429,56,127,93,49
-23,-23,-98,-61,75,253,-5,88,57,3
2,-9,-23,133,-8,21,-110,21,16,-20
49,24,-48,84,-35,40,-94,29,30,4
84,63,-48,34,7,72,-78,53,45,24
135,98,-68,37,59,68,-53,90,76,65
156,84,-87,24,84,57,-41,115,103,110
221,137,-34,-75,104,74,4,157,183,166
168,155,-35,-128,82,76,19,192,221,134
4,38,1,9,-45,-92,-56,134,117,56
-63,-50,-22,86,-143,-181,-106,58,37,17
-116,-105,-88,25,-136,-85,-98,49,22,2
-140,-140,-108,-41,-106,-24,-98,44,12,-7
-132,-151,-122,-84,-92,-20,-97,36,-6,-22
-88,-132,-140,-125,-98,-37,-95,21,-10,-35
-36,-130,-141,-136,-114,-63,-78,2,-12,-24
-6,-100,-104,-125,-120,-84,-52,-17,-49,-45
23,-28,-35,-86,-122,-113,-43,4,-70,-71
12,-32,-19,-56,-134,-136,-18,14,-65,-88
5,-57,-72,-63,-135,-149,-15,7,-53,-79
2,-23,-92,-71,-121,-158,-35,-4,-55,-89
-54,17,-54,-61,-94,-135,-47,26,-45,-95
-111,67,-63,-118,11,-63,-47,78,29,-72
-137,13,-98,-282,82,36,-15,125,8,-38
-137,-4,-74,-242,-24,18,-5,180,16,-13
-158,2,47,108,-40,-90,-40,136,7,-50
-221,-85,-12,77,176,156,25,104,-7,-90
-213,-77,4,19,-37,112,25,56,2,-91
-118,14,111,133,-304,-155,41,8,11,-47
4,115,162,198,-149,-25,205,21,86,-9
93,213,185,193,-23,83,275,15,147,-17
32,88,120,106,-84,75,237,21,67,-38
53,51,89,52,-135,-4,100,51,59,-27
112,66,94,11,-112,-71,-40,81,109,8
153,41,52,-112,-67,-35,-23,109,132,22
179,0,-13,-229,-74,57,97,193,135,27
164,35,98,26,82,112,96,184,87,-25
111,83,174,256,190,-60,-17,110,75,-48
-2,-29,-34,-17,33,-238,-149,32,-10,-88
-144,-164,-177,-197,86,-77,-246,-50,-153,-207
-148,-193,-246,-110,-149,-186,-329,-97,-262,-274
79,-10,-72,62,-368,-250,176,52,-156,-110
183,109,133,157,-148,43,974,224,-24,33
135,119,212,179,5,176,662,186,-32,41
224,192,286,214,74,159,198,148,24,84
378,233,296,230,93,77,-2,83,98,77
312,34,126,141,11,-22,-10,-7,27,27
137,-116,16,38,-93,-29,-48,-78,-79,1
126,-52,72,60,-78,8,-233,-191,-117,1
51,2,99,71,-78,-60,-329,-298,-164,-62
-9,60,100,58,-107,-144,11,-233,-128,-103
-102,-12,-4,-71,-193,-195,519,-197,-162,-228
-238,-218,-169,-250,-279,-181,796,-333,-317,-441
-378,-393,-261,-297,-249,2,923,-405,-439,-529
-300,-356,-241,-246,-152,136,829,-336,-412,-457
-53,-259,-169,-172,-65,140,654,-177,-273,-313
61,-186,-182,-211,-92,102,319,-10,-136,-228
-30,-182,-268,-393,-185,135,-1,172,14,-155
-121,-95,-9,-227,-20,223,-318,191,137,1
-86,70,276,316,337,76,-786,58,126,77
-84,109,317,463,325,16,-1077,-44,83,67
-76,71,302,333,280,180,-1128,-23,129,144
-106,10,271,305,346,265,-1152,-54,162,182
-119,3,218,260,436,338,-939,-104,104,133
-37,45,172,172,334,304,-613,-53,98,120
-105,-59,80,98,94,160,-470,-4,28,15
-312,-284,-156,-158,-187,154,-176,61,-85,-165
-216,-189,-120,-104,-137,234,569,207,61,-84
-80,-46,36,63,-97,180,525,132,96,-13
-126,-74,72,107,-85,106,157,-4,-50,-90
-169,-131,-12,-113,-100,49,78,-23,-108,-131
-159,-148,-93,-357,-210,5,129,0,-66,-102
-137,-104,20,-26,-265,-85,96,-67,-90,-112
-192,-100,104,322,-149,26,169,-138,-162,-194
-247,-152,52,247,62,277,292,-136,-165,-222
-182,-149,31,124,120,225,207,-143,-146,-134
-108,-129,5,19,-15,-2,153,-150,-130,-47
-67,-115,11,-29,-87,-151,76,-116,-89,13
-47,-92,59,20,-33,-251,8,-79,-59,60
-52,-104,89,65,31,-285,-14,-36,-32,62
-67,-124,74,29,47,-320,-43,15,23,50
47,-42,104,5,34,-450,-120,15,72,97
183,40,116,-27,41,-455,-100,0,117,126
118,-44,90,-20,95,-159,23,-54,21,116
101,-4,106,-1,117,-103,24,-61,15,144
102,88,101,-25,83,-220,2,-26,29,153
134,129,79,-38,57,-286,-35,-28,31,101
178,115,61,-40,46,-354,-25,-26,40,68
207,81,53,-36,61,-442,21,-7,59,76
266,122,84,-26,91,-491,41,16,100,95
346,230,118,-22,119,-477,47,38,124,96
277,137,118,29,145,-362,61,28,44,92
205,86,147,111,191,-161,48,9,-10,47
137,63,110,100,167,8,44,27,-25,7
92,-1,-65,27,112,104,47,43,-32,-6
88,-77,-180,-5,92,153,56,12,-45,-16
92,-116,-122,-30,75,194,60,1,-52,-33
59,-100,-62,-56,76,209,53,12,-39,-49
-14,-47,-118,-44,88,229,21,1,-56,-37
-86,126,-71,-28,108,338,18,29,-29,-15
-197,157,10,-27,96,508,31,63,0,-10
-210,13,11,-12,66,399,37,89,25,7
-197,-68,-23,-23,56,265,44,92,58,29
-209,-107,-131,-54,52,165,19,82,63,15
-127,-44,-196,-68,52,45,-6,75,112,-15
37,55,-201,-75,70,-87,-15,70,199,-8
36,-18,-190,-70,67,-90,-45,41,133,7
-32,-30,-135,-73,40,158,-68,19,43,41
-28,113,-111,-122,-3,410,-92,64,55,77
-34,135,-230,-278,113,663,-40,126,86,106
-133,110,-415,-429,410,1142,55,159,88,84
-163,170,-206,-150,285,1079,-31,125,55,60
-92,254,-5,220,-104,408,-257,17,11,51
-59,179,-6,207,-280,205,-318,-8,0,69
-33,147,-30,83,-203,391,-251,12,23,86
-34,120,-98,-17,-124,575,-169,1,11,64
-52,77,-181,-187,-110,682,-76,28,49,57
-108,39,-159,-206,-59,746,-3,51,64,12
-132,48,-31,-28,132,770,5,16,35,-36
-75,111,11,-14,133,725,8,-20,53,-10
-63,135,76,161,27,474,-110,-142,24,-7
-37,139,144,318,-19,260,-195,-237,-24,-6
40,152,121,228,7,245,-165,-199,10,40
77,119,65,135,14,245,-179,-141,36,58
75,64,21,87,14,258,-172,-103,57,39
28,14,-13,63,8,291,-129,-75,56,9
17,-2,-27,42,1,255,-91,-33,98,12
33,11,-57,19,1,173,-75,6,179,28
-6,-19,-85,15,-36,98,-62,6,100,17
26,7,-2,3,-64,61,-49,8,56,1
38,41,9,-6,-83,19,-56,-11,39,-8
13,37,-2,-21,-107,-43,-64,-25,35,-22
-5,18,-10,-32,-130,-91,-47,-36,20,-42
-18,21,-3,-23,-108,-130,-46,-68,-14,-65
69,108,24,-22,-83,-213,-54,-70,27,-65
183,167,32,-19,-44,-340,-76,-98,36,-60
129,39,-47,-58,124,-334,-72,-163,-109,-78
99,-15,-83,-108,326,-190,-12,-163,-152,-79
121,22,19,39,33,-462,-29,-147,-119,-26
112,32,2,68,-298,-752,-51,-154,-104,0
81,-3,-18,-205,-85,-553,25,-114,-66,14
41,7,-67,-435,17,-349,107,-30,9,57
25,89,70,24,-85,-484,39,-49,28,31
-50,31,168,455,-140,-672,-46,-123,-83,-22
-66,-2,98,237,-163,-597,85,-87,-77,-21
-52,-14,55,77,-142,-494,200,-60,-67,-12
-52,-48,-31,0,-142,-466,189,-37,-31,7
-28,-24,-18,-26,-132,-448,103,-13,-26,-13
7,14,-18,-2,-92,-428,-47,6,5,18
66,59,104,9,-54,-382,-107,29,85,41
-32,-58,82,-49,-48,-294,10,29,47,-45
-152,-187,24,-102,-76,-233,136,11,-59,-133
-131,-165,-2,-120,-91,-237,208,41,-77,-139
-69,-138,-59,-181,-29,-214,251,104,-54,-112
-2,-102,-118,-295,17,-196,259,192,-14,-78
-4,-132,-133,-300,-159,-368,273,242,-24,-101
-95,-219,-108,-259,-403,-675,175,199,-53,-204
-50,-200,-205,-410,-405,-695,398,255,69,-218
-81,-264,-378,-651,-410,-531,611,337,77,-167
-124,-308,-501,-723,-490,-452,398,375,0,-142
-183,-338,-458,-554,-126,-123,304,494,-50,-202
-174,-289,-259,-468,545,849,973,761,62,-152
88,16,172,-27,855,1076,740,767,237,125
427,468,701,899,312,-162,-422,280,247,387
542,659,750,974,-11,-501,-664,-61,232,410
374,535,424,575,150,15,-302,-171,233,245
-53,110,155,298,122,310,-154,-504,-84,-58
-454,-291,-95,-10,-128,140,-272,-789,-440,-351
-512,-404,-260,-182,-243,41,-49,-724,-488,-412
-353,-328,-201,-192,-219,91,535,-590,-405,-359
-280,-277,-202,-213,-269,-19,928,-583,-427,-346
-251,-163,-172,-304,-240,12,726,-550,-390,-329
-250,-67,-182,-540,-2,325,536,-267,-244,-258
-221,-6,-29,-322,180,406,556,174,45,-29
-267,0,204,390,-180,-134,409,315,184,98
-257,-57,210,449,-319,4,5,237,171,118
-170,-16,209,319,-92,360,-509,191,145,148
138,255,442,489,210,319,-835,223,255,356
418,462,625,622,379,154,-1551,2,217,475
395,420,565,522,501,298,-1744,-308,43,351
232,256,397,257,512,374,-1268,-418,-56,228
-73,-23,144,-31,-122,-174,-1418,-614,-319,-84
-149,-82,101,17,-438,-395,-951,-543,-346,-160
-193,-118,32,28,-280,-13,114,-255,-237,-140
-264,-178,-53,-78,-258,-8,301,22,-140,-137
-108,-40,94,5,-182,-116,330,346,63,55
-6,60,93,41,-131,-101,353,414,142,106
-34,40,6,-50,-66,172,252,184,45,-48
-37,-15,6,-25,103,334,107,62,-34,-43
-24,-89,-47,35,182,180,112,95,-69,64
-14,-136,-114,-33,55,49,457,220,-29,92
25,-147,-97,-110,-8,45,717,370,52,116
115,-82,-10,-244,12,12,680,485,167,199
141,27,21,-306,-65,67,582,369,144,177
-45,6,28,-56,-87,35,459,56,-128,-121
-244,-136,-50,-54,-179,-3,538,-58,-267,-292
-294,-233,-182,-280,-339,-86,575,-31,-207,-246
-202,-328,-220,-354,-379,-138,360,51,-106,-117
-144,-546,-235,-300,-293,-6,303,251,15,11
-87,-574,-171,-194,-110,431,532,344,75,87
72,-471,17,48,197,816,291,238,85,180
471,-209,256,290,403,803,342,316,298,423
627,-108,347,346,510,766,446,309,344,432
367,-199,339,296,494,535,192,64,74,189
47,97,262,143,305,148,296,25,-29,35
-73,916,257,27,137,135,660,218,75,78
-41,1190,304,80,217,54,656,308,159,157
-17,644,198,-119,259,10,344,372,202,182
15,199,40,-605,2,103,-8,515,314,234
65,98,-133,-804,15,61,-137,559,421,233
-18,20,-243,-624,708,390,-47,370,312,99
-14,18,-248,-611,837,1013,343,326,231,127
-61,131,118,282,356,-178,-109,-62,-110,-115
-138,132,313,738,111,-771,-363,-269,-361,-334
-215,23,181,568,-412,-733,-150,-244,-406,-406
-297,-106,29,443,-772,-882,-562,-267,-427,-431
-97,3,56,371,-450,-886,-1001,-5,-130,-167
142,210,170,409,-109,-967,-723,99,124,87
372,428,346,527,98,-1181,-582,-23,245,309
472,518,372,474,108,-1620,-1445,-317,213,374
155,181,-85,-93,30,-1313,-1680,-631,-133,22
-256,-237,-643,-750,341,12,-1183,-610,-404,-357
-525,-496,-738,-691,576,1450,196,-310,-442,-542
-278,-278,-425,-102,-41,1307,2240,90,-158,-269
90,73,-102,513,-395,597,2695,427,172,18
304,284,-28,489,-156,609,1328,542,375,165
430,387,126,585,330,944,903,704,476,339
484,405,158,495,367,1116,735,818,555,468
493,448,223,502,490,932,-142,465,462,437
511,514,282,506,666,539,-1232,75,322,408
631,653,362,524,597,-306,-1153,140,470,562
624,660,214,317,412,-1071,262,372,609,574
438,482,31,-41,498,-1303,679,356,499,384
235,348,154,585,610,-2515,-42,92,203,157
222,335,159,623,-327,-3845,-454,0,138,134
133,138,-146,98,-478,-3860,-747,-141,7,6
382,285,-87,240,35,-2907,-6,129,225,221
1126,946,620,896,781,-1994,1078,871,992,959
1630,1447,1189,1314,1112,-2040,65,992,1393,1431
1382,1270,994,1065,873,-2321,-546,749,1180,1219
830,771,511,585,477,-2299,-187,490,735,748
584,587,371,504,420,-1909,207,398,544,533
551,596,408,590,509,-1676,346,407,533,499
338,388,224,389,315,-1658,580,330,370,306
139,136,-25,113,-3,-1794,479,167,147,126
47,13,-150,-92,-200,-1733,603,120,24,27
29,23,-206,-274,-227,-1465,1238,147,20,-37
24,18,-390,-581,-140,-900,2017,289,183,-67
-567,-527,-896,-985,-77,-425,1966,28,-192,-503
-955,-774,-837,-675,-197,-578,1858,-172,-624,-843
-301,-173,-255,-417,402,-37,2621,561,72,-212
81,15,-258,-709,1041,569,2153,863,591,281
-27,4,10,164,-9,-581,1211,350,270,93
-469,-316,-16,434,-1048,-1406,-320,-624,-538,-500
-1233,-1074,-837,-624,-980,-509,-1342,-1329,-1263,-1245
-1033,-893,-645,-470,-464,362,-1317,-827,-951,-989
244,253,538,721,866,1412,716,673,458,402
1064,989,1325,1561,1476,1437,1851,1312,1361,1326
1251,1164,1454,1667,1272,433,-313,860,1315,1431
1333,1240,1388,1449,949,-281,-2212,299,1135,1442
1273,1127,1170,1129,757,-363,-2461,227,1017,1356
1052,892,940,940,587,-669,-2465,100,753,1033
883,741,792,876,558,-766,-2265,-118,527,783
791,652,739,768,606,-465,-802,-72,456,698
579,464,544,482,384,-841,-923,-298,221,463
38,-45,28,-67,-116,-1447,-1332,-732,-387,-117
-579,-614,-532,-595,-459,-1353,294,-733,-921,-784
-920,-916,-773,-816,-509,-989,1672,-466,-1074,-1052
-754,-765,-525,-520,-213,-789,2321,-26,-712,-759
-64,-84,66,81,256,-954,2720,461,-17,-133
346,321,417,327,437,-1127,1111,563,340,261
433,387,515,368,406,-1425,-1158,571,440,443
335,295,389,233,207,-1808,-1947,476,362,370
215,135,234,96,145,-1749,-1811,343,245,286
177,20,97,-43,146,-1419,-305,356,232,339
251,65,99,-31,86,-1332,806,396,264,470
640,502,488,424,380,-1263,862,427,545,836
879,841,796,748,642,-2108,276,225,689,1011
558,583,630,565,580,-2660,-659,-183,316,608
49,17,46,42,258,-2524,-1007,-359,-95,29
-229,-262,-307,-279,78,-2483,-998,-500,-342,-353
-117,-48,-244,-408,2,-2549,-218,-459,-309,-351
179,281,-41,-497,-132,-2273,890,-17,24,-80
224,280,2,-279,-508,-1894,1232,250,82,-93
210,228,19,-65,-170,-1460,663,328,67,-200
-9,-33,-168,-373,368,-998,257,363,-7,-363
-586,-598,-574,-978,-390,-1299,308,127,-434,-750
-751,-775,-469,-686,-711,-1667,2145,394,-478,-789
-701,-709,-125,42,-428,-1770,3955,937,-261,-642
-769,-779,-330,-233,-193,-1355,3265,923,-386,-761
-635,-642,-336,-382,-198,-489,1651,512,-506,-736
-234,-210,38,128,-213,217,-428,64,-374,-416
357,365,536,614,209,202,-2065,-345,-47,151
353,379,608,723,522,765,-2268,-687,-82,186
142,192,386,402,105,-202,-2146,-403,-9,75
172,219,330,242,-274,-824,-946,228,265,214
125,220,328,322,-161,-707,443,218,184,178
-49,58,168,168,-118,-1982,-766,-417,-189,-44
-70,2,52,47,-21,-2931,-1648,-395,-151,-45
251,298,382,175,563,-1168,-582,140,320,291
182,267,381,-19,914,1044,-924,-64,248,262
-18,123,214,-63,218,259,-1021,-368,-54,21
82,340,517,823,-169,-1012,-478,-406,-145,6
295,485,579,646,415,-3489,-442,-129,49,237
149,96,-52,-815,986,-4722,602,304,194,218
-511,-597,-794,-1597,-69,-1439,878,183,-260,-396
-1174,-983,-771,-388,-1229,4602,535,-456,-1040,-1251
-973,-705,-393,280,-1031,8786,3173,-55,-778,-1134
-441,-371,-248,-16,0,6686,5372,1177,142,-336
-186,-208,-200,-426,377,1338,1940,1188,397,91
501,471,430,-34,564,-5007,-1720,613,633,695
584,635,842,979,455,-6855,-1627,-141,315,658
196,177,403,529,-420,-6526,-1605,-587,-23,338
-114,-168,-80,-220,-510,-6117,-1104,-531,-150,100
-241,-179,-32,-21,-472,-6282,73,-175,-139,-93
-291,-225,-20,-21,-200,-6066,653,350,-42,-133
-58,-86,25,-111,-321,-5708,659,629,44,38
659,580,571,271,-588,-5358,600,855,409,621
1037,1002,926,394,-588,-5035,898,876,600,895
470,571,565,130,-368,-4737,1018,625,222,333
77,215,230,73,102,-4463,-494,442,52,-20
304,249,380,391,711,-4192,-885,537,372,236
297,63,407,526,963,-3951,-1507,141,325,294
-34,-208,214,294,553,-3720,-1750,-368,-89,-8
-13,-65,245,207,316,-3507,-2333,-524,-138,-9
136,107,267,166,209,-3320,-2441,-194,112,247
466,425,517,338,308,-3136,-1319,529,656,699
834,751,855,738,769,-2939,1752,1334,1162,1105
396,241,271,314,467,-2759,2536,1225,720,576
147,-101,-268,-322,-5,-2608,1283,1012,536,152
-178,-460,-647,-857,-335,-2455,761,751,273,-164
-595,-717,-807,-1010,-228,-2300,610,139,-264,-550
-282,-407,-627,-949,778,-2169,683,219,58,-149
-66,-83,-166,-268,475,-2039,134,345,432,286
-9,163,372,839,-221,-1914,-755,215,542,449
135,272,470,861,10,-1805,-1372,-17,510,567
230,291,281,475,-82,-1689,-1396,-365,199,466
266,308,124,281,-98,-1576,312,-404,19,410
621,649,507,649,562,-1477,1145,-62,393,759
1377,1362,1147,1139,1594,-1391,685,273,1057,1507
1224,1255,1084,910,2058,-1302,-244,-129,850,1373
632,677,601,661,1847,-1229,-1018,-554,375,805
-51,-59,-200,-201,671,-1161,-336,-633,-158,105
-471,-440,-428,-130,-290,-1092,231,-508,-451,-366
-114,-132,-66,466,186,-1027,1927,250,83,-60
166,29,-70,-72,604,-969,2536,780,408,207
49,27,1,200,250,-904,1080,422,139,128
230,442,367,807,-711,-857,-658,167,171,304
700,1078,746,966,-193,-813,-1076,239,516,730
790,1130,716,787,602,-763,-257,156,562,800
309,584,237,443,315,-718,514,67,221,356
95,333,-37,310,-285,-688,929,265,151,142
-195,9,-340,-106,-484,-647,550,145,-206,-202
-469,-383,-774,-778,-1079,-601,-209,-7,-592,-486
-290,-363,-795,-972,-1308,-560,88,525,-284,-219
-258,-290,-636,-800,-1053,-532,1427,1098,3,-70
-869,-827,-978,-950,-1094,-497,777,693,-362,-564
-551,-523,-529,-397,-262,-468,14,814,122,-108
-289,-198,-21,349,677,-441,253,206,287,162
279,383,625,957,882,-411,234,-694,340,560
755,743,934,1095,1305,-392,1458,-661,591,1040
668,541,641,721,1276,-374,1985,-616,556,943
613,454,412,320,1235,-353,-380,-682,444,747
567,410,304,-92,1605,-333,-2274,-765,311,569
306,276,263,136,743,-313,-1532,-739,24,204
69,47,-31,-82,-586,-290,-513,-580,-162,-50
47,-185,-488,-1011,-1241,-275,838,-42,-1,-22
44,-283,-599,-788,-924,-259,1174,320,56,-133
11,-112,-129,247,-690,-228,101,191,-69,-240
-148,-114,4,333,-438,-223,-404,-234,-299,-405
-311,-300,-172,38,-231,-219,-421,-303,-409,-554
-542,-609,-534,-609,57,-204,-336,-215,-651,-823
-683,-838,-854,-1101,-6,-197,-960,-331,-817,-987
-204,-330,-241,64,-157,-176,-2192,-854,-742,-601
703,420,548,1032,56,-161,212,-215,110,366
979,542,777,1215,1078,-153,3126,639,666,777
369,-70,212,604,839,-143,2037,502,292,211
35,-261,-178,36,76,-144,-807,-23,-139,-195
197,139,-87,-54,43,-129,-1920,-182,-155,-105
820,809,477,204,724,-114,-1075,331,426,520
1262,1104,693,-49,1397,-99,961,879,945,1009
995,719,294,-474,1047,-83,1069,609,793,740
299,90,-7,-319,216,-69,71,18,176,79
12,-71,135,268,-127,-51,-508,-201,-165,-180
-35,-88,111,271,-544,-25,161,-52,-326,-282
-42,-174,-127,-317,-966,0,364,412,-293,-278
319,205,313,375,-713,39,1283,638,36,113
559,462,547,512,-62,122,839,332,238,434
443,425,571,490,552,535,-272,-165,213,377
168,210,364,424,553,1194,-1568,-957,-104,-29
-170,-143,-76,0,486,3016,-2186,-1220,-352,-223
-270,-297,-335,-354,-59,5936,-1954,-748,-283,-175
-349,-422,-469,-598,-1231,9000,-1432,13,-193,-302
-281,-451,-520,-737,-956,11028,220,1083,14,-263
-146,-370,-336,-361,-446,13377,1919,1421,31,-199
-25,-262,-132,94,-414,15525,1973,1162,20,-109
414,130,258,280,-269,16970,1395,559,68,187
574,283,420,286,-6,17483,247,-344,-75,293
722,498,600,303,665,16865,-236,-1007,-73,503
650,458,481,78,1417,15883,-1659,-1049,-3,591
70,8,88,-136,756,14929,-1201,-744,-244,146
-31,25,95,232,-464,14033,-351,-497,-242,40
89,211,194,321,-926,13191,-343,-390,-227,13
-24,65,-23,-107,-973,12399,-274,-479,-408,-270
-113,-199,-352,-524,-854,11655,-200,-518,-440,-529
-29,-131,-147,-340,-368,10955,75,59,-99,-289
150,166,326,68,-367,10300,-1607,623,325,157
-85,-67,133,-178,-914,9680,-2840,439,143,15
-97,-324,-248,-604,-1007,9100,-297,692,106,-75
-198,-531,-473,-639,-401,8553,2219,974,0,-294
-145,-466,-330,-378,852,8041,1871,779,-59,-283
3,-244,-375,-931,1161,7558,904,52,-109,-162
-746,-752,-812,-1233,896,7105,479,-637,-645,-671
-1037,-659,-445,-230,609,6678,346,-424,-628,-624
-922,-390,-77,354,-425,6278,-1081,-406,-515,-394
-883,-445,-382,-381,-754,5900,-2916,-630,-521,-413
-587,-413,-683,-1034,-557,5548,-2550,-117,-252,-208
-606,-743,-968,-1110,-777,5213,-148,490,-64,-280
-633,-872,-960,-1110,-852,4901,1469,703,44,-385
-619,-658,-660,-837,-602,4607,2240,204,26,-311
-486,-191,-298,-375,-592,4330,323,-1085,-185,6
-222,360,209,193,49,4072,-702,-1735,-293,238
-526,198,334,767,815,3826,51,-1278,-359,-101
-319,286,572,1264,420,3597,-190,-350,78,85
212,615,726,1191,-1356,3381,-1018,-163,471,477
467,675,591,581,-1544,3177,-1243,247,828,699
290,410,292,271,-989,2988,-963,576,822,468
-545,-403,-469,-301,-750,2807,-931,-37,-64,-466
-852,-621,-561,-248,-154,2640,814,-285,-661,-815
-487,-251,-238,-59,-112,2481,1600,-232,-532,-439
-167,16,-11,37,-313,2332,331,-383,-316,-129
-64,48,-3,-50,-393,2191,410,-308,-23,40
-312,-230,-308,-402,-772,2061,-81,-187,75,-97
-1025,-889,-789,-584,-376,1937,178,-142,-351,-809
-937,-713,-494,-47,789,1821,1381,63,-386,-803
-72,181,227,471,1037,1711,2224,343,69,-23
-561,-213,-199,70,406,1610,2321,-437,-658,-630
-1310,-898,-856,-514,128,1511,1377,-1109,-1271,-1322
-811,-504,-554,-376,162,1422,-312,-637,-637,-714
553,701,516,563,794,1336,-1281,308,701,705
1098,1214,875,887,867,1256,-2269,104,943,1173
509,592,143,-110,24,1180,-1989,-388,350,543
200,320,101,-107,531,1110,-851,-264,198,271
236,408,338,535,1389,1043,-1415,-339,109,278
229,393,300,492,257,981,-1880,-328,16,242
192,326,243,260,-839,922,-591,52,59,191
96,232,136,49,-751,866,558,535,137,92
-184,-6,-72,-103,-800,814,-1098,539,-11,-184
-371,-223,-293,-339,-697,765,-1814,266,-320,-454
-622,-537,-630,-726,-84,721,-1252,-201,-702,-885
-290,-223,-208,-83,316,675,2251,177,-279,-512
-299,-276,-121,106,288,637,3553,251,-142,-307
-470,-613,-636,-1038,894,597,1070,-152,-219,-330
-120,-417,-754,-1747,1538,562,92,-323,3,64
47,-116,-221,-479,1350,528,-361,-409,-84,94
116,93,414,838,196,496,-515,-313,-60,64
-22,-77,260,889,-1689,467,-824,72,-2,-61
-467,-618,-459,-96,-2080,437,-1243,312,-353,-499
-768,-984,-899,-846,-1816,413,200,561,-698,-873
-929,-1045,-1123,-1104,-1458,386,3000,648,-820,-1065
-1314,-1136,-1518,-1567,-1572,364,2007,-132,-1354,-1531
-943,-731,-1189,-1182,-1060,341,937,-291,-1089,-1262
482,337,49,78,392,322,-208,395,460,275
925,582,533,651,1001,301,-2840,130,851,745
1281,986,1027,1111,832,284,-2961,127,908,906
1104,869,1022,1162,777,267,-1697,-56,653,862
790,532,786,1018,925,251,144,-306,500,814
648,390,646,805,612,235,735,-574,348,760
376,141,388,449,78,223,560,-555,272,627
241,-91,92,135,-308,208,-146,-183,359,527
202,-199,-142,-136,-431,196,-843,-2,370,333
241,-184,-145,-345,-236,125,-1079,51,388,178
330,-31,41,-388,373,-82,9,276,412,261
230,-56,-129,-437,-112,29,335,76,105,50
-3,-123,-192,-22,-636,128,-944,-307,-331,-365
-161,130,6,180,-695,-77,-1285,-271,-526,-543
-12,631,261,287,-413,-77,-212,263,-261,-286
-538,303,-221,-255,-650,-236,-6,50,-664,-766
-1272,-587,-1041,-1058,-1191,-531,-444,-693,-1418,-1563
-1048,-840,-1045,-1049,-907,-640,581,-658,-1181,-1326
-707,-746,-772,-658,164,-659,1380,-283,-641,-877
-452,-437,-399,-323,830,-612,1684,-97,-294,-506
-419,-253,-208,-186,-107,-835,-653,-493,-467,-487
-40,-19,114,189,-263,-1197,-215,-108,-88,-118
568,310,445,318,-369,-2329,629,343,500,465
576,147,238,-158,-563,-2924,-227,208,436,402
96,-311,-241,-816,1246,-2502,306,204,181,-81
-329,-456,-397,-715,2771,-2220,1292,645,320,-232
-632,-303,-68,464,1643,-3164,840,326,116,-253
-732,-292,-254,-167,274,-5388,41,-15,5,-181
-411,-89,-176,-268,-831,-7075,-482,-10,-22,-10
141,193,260,758,-1241,-7902,-759,135,146,296
358,173,342,1139,-322,-8096,665,432,392,452
324,-6,-51,186,-109,-8531,1153,597,520,410
-168,-303,-372,-324,-1034,-8669,777,360,-51,-192
-703,-475,-472,-500,-1490,-8293,650,395,-607,-683
-1045,-761,-815,-977,-1292,-8114,626,746,-672,-856
-859,-655,-607,-719,-230,-7363,-223,1169,-120,-468
-688,-508,-299,-344,-10,-5414,-1224,933,168,-208
-386,-208,-22,-177,-460,-1908,-510,119,176,-1
217,378,303,-272,-69,-78,-327,-637,149,417
591,704,631,122,281,-855,-511,-559,234,641
452,578,822,815,117,-919,-823,-88,481,568
203,299,578,690,-733,616,-738,-205,412,369
352,342,451,325,-946,2725,-121,-349,257,431
574,494,564,386,-285,1607,-395,-436,200,564
629,547,772,750,315,-1104,-973,-492,165,561
383,253,463,252,221,-2717,-1142,-639,-58,297
-230,-385,-310,-821,271,-3620,-1517,-698,-398,-334
-236,-429,-211,-136,1294,-3176,637,-137,-50,-346
458,290,559,855,959,-2857,2101,175,310,301
641,436,497,235,1308,-3325,1322,226,318,515
513,336,229,-27,1767,-4123,1443,272,425,517
230,42,99,104,-161,-3869,1073,-142,132,245
-19,-401,-149,-319,-679,-3540,841,-302,-93,7
-28,-570,-154,-109,401,-3572,467,48,-24,20
-10,-496,183,741,-58,-2816,-772,-225,-256,-119
-86,-488,321,900,-517,-1618,-1076,-158,-402,-251
-36,-274,277,759,-479,-289,935,386,-127,-152
-266,-289,-114,193,-658,-516,2576,311,-136,-277
-543,-356,-591,-489,-959,-1966,2437,293,-455,-566
-521,40,-591,-651,-1035,-2818,1394,491,-559,-657
-544,55,-620,-722,-1058,-3748,-165,536,-509,-657
218,409,-23,-68,-180,-4405,-488,1173,442,200
1153,1072,742,636,524,-5295,-655,846,1155,1164
1104,1023,715,553,715,-6255,-3318,-933,560,1059
960,988,751,606,1423,-6472,-3472,-1472,131,831
759,905,739,632,1215,-6299,-1103,-986,147,652
327,334,233,302,327,-6280,1326,-605,-106,89
891,375,332,349,-4,-5776,2215,-61,202,286
1177,341,352,355,338,-5539,946,135,385,318
1280,280,246,70,1060,-4668,504,216,421,192
1872,736,546,-29,1345,-3464,188,573,853,656
2081,939,835,556,472,-3695,-902,385,800,846
1790,591,705,892,-84,-4617,-634,-127,235,568
1460,128,277,421,155,-4594,1205,-276,-155,194
1045,-243,-19,300,392,-4248,1117,-428,-475,-210
1130,8,169,381,371,-4784,680,297,-98,-20
1443,743,529,381,181,-6082,800,1428,618,482
989,608,347,91,-271,-7291,465,1596,612,305
414,-100,-145,-440,-676,-7680,-105,1549,318,-110
404,-391,-383,-828,-161,-7346,-234,1705,430,-107
538,-348,-354,-537,360,-7416,1301,1605,554,-15
924,79,87,593,175,-7191,2312,891,289,121
1273,315,178,516,-150,-6574,2731,303,198,326
1299,357,240,322,249,-5210,1857,-93,98,312
1509,584,549,493,662,-2371,-306,-202,414,551
1679,787,753,535,853,349,-1755,-251,798,897
1196,368,331,78,831,1681,-642,-276,569,726
856,207,286,404,687,881,-135,-178,226,456
978,432,584,706,184,-730,-149,115,333,521
823,340,545,630,200,-1683,-328,165,296,354
476,41,330,584,548,-2525,-458,-151,-19,-21
380,-91,150,346,456,-3408,-292,-248,-110,-116
484,-82,92,156,385,-3980,-400,-252,-29,74
460,-158,154,260,1075,-3987,-338,-95,-10,113
531,-92,378,552,1203,-4046,215,80,121,191
709,253,584,556,-226,-4569,-463,30,299,409
446,211,232,70,-775,-4757,-932,82,234,258
194,59,-3,-146,-462,-4495,-261,225,20,-1
78,42,55,-47,72,-4151,1308,228,-179,-183
-297,-207,-238,-203,245,-3157,2798,56,-478,-532
-262,-234,-375,-426,565,-2402,2613,205,-306,-390
-209,-278,-416,-547,123,-2341,1142,119,-245,-304
-297,-276,-146,-16,-548,-783,-719,-35,-288,-347
-385,-290,-98,90,-203,629,-1578,71,-266,-386
-184,-127,-338,-450,-697,592,-1442,439,-122,-210
514,495,277,95,-222,1051,2311,1023,393,387
1063,970,984,766,719,1532,2389,870,766,838
1162,1061,695,217,674,576,-856,521,1014,1021
977,880,311,-395,711,-1085,-1426,460,1004,1047
476,417,98,-519,737,-2253,-748,212,391,556
-409,-260,-67,239,-215,-2426,-278,-186,-539,-449
-713,-533,-216,194,-312,-2498,-606,0,-621,-699
-593,-476,-274,-180,95,-2655,-530,505,-231,-434
-408,-108,71,474,-120,-2712,552,752,50,-194
-322,237,252,530,-204,-2794,1164,124,0,-100
-155,390,327,238,-375,-2702,478,-729,-231,32
-70,280,135,-114,-482,-2536,-809,-912,-461,-84
-532,-302,-466,-639,-828,-2275,-1422,-430,-596,-539
-569,-270,-411,-442,-595,-1301,-927,197,-444,-609
-254,130,-73,-79,523,-166,-37,302,-98,-204
-88,271,-72,-404,1300,-177,-129,-193,110,175
437,537,84,-510,1726,-693,-531,-36,687,704
898,809,431,-49,812,-179,554,403,980,937
369,333,375,749,-399,1241,1094,296,408,433
-466,-414,-202,371,-985,1355,805,250,10,-188
-855,-676,-578,-411,-248,462,288,-137,-87,-345
-675,-312,-225,-508,243,-299,-448,-852,-112,-42
-663,-36,299,-24,-655,-1532,-1073,-1432,-411,-83
-999,-429,242,502,-779,-1311,-1164,-1423,-711,-469
-1018,-854,-221,436,-246,-1316,539,-712,-606,-656
-776,-908,-414,308,-31,-1847,2278,-117,-443,-578
-116,-391,-236,-131,328,-1662,1180,132,-101,-79
500,322,-2,-802,1008,-1017,-277,508,183,416
458,676,151,-110,100,431,-1273,391,-43,283
227,853,337,711,-1601,962,-1737,49,-151,183
247,910,439,398,-1601,305,-1195,215,293,539
-434,389,74,-234,-1605,-157,-569,-44,243,232
-1408,-329,-478,-777,-1662,-35,839,-839,-612,-734
-2453,-1516,-1225,-1088,-917,1881,1820,-1517,-1698,-1845
-2533,-1881,-1339,-923,-6,3188,807,-937,-1438,-1641
-600,-399,-53,88,402,3117,-475,291,160,99
805,536,588,449,66,1231,-1615,454,716,849
644,241,146,-128,345,-1097,-1716,179,309,379
608,186,17,-259,1457,-1895,-848,-38,367,384
537,300,133,224,1320,-2155,-28,-420,433,430
93,209,218,246,788,-2091,-133,-344,181,166
-327,45,-5,-283,-293,-1987,-925,154,-21,-11
-844,-313,-176,-43,-893,-1876,-877,291,-205,-229
-949,-451,-275,3,-936,-1765,-331,60,-215,-219
-467,-95,-158,-65,-841,-1645,714,-283,-90,58
-189,153,65,-31,-589,-1533,936,-262,75,281
-325,-24,-90,-266,44,-1433,106,-73,172,132
-659,-411,-482,-627,178,-1360,-303,-123,-95,-233
-776,-448,-354,-510,-773,-1284,-1071,-525,-520,-482
-721,-393,-230,-374,-1112,-1202,-1203,-551,-594,-508
-1052,-772,-521,-467,-456,-1019,-500,-268,-600,-749
-1322,-1065,-744,-455,38,-569,-442,-9,-507,-953
-890,-623,-354,-14,530,-500,-222,255,-208,-586
-520,-254,-159,27,600,-831,59,-86,-253,-339
-573,-406,-421,-469,348,-958,213,-7,-292,-436
-153,-110,-267,-709,-134,-920,565,245,-29,-54
193,249,174,-107,-34,-856,640,-462,5,248
196,315,385,523,1154,-805,1115,-607,110,334
97,245,205,422,811,-774,825,-117,269,266
-294,-71,-24,340,-734,-721,-31,-58,30,-118
-450,-200,-139,49,-974,-664,613,-212,-188,-289
-315,-113,-152,-135,-745,-611,402,-381,-74,-198
77,221,92,77,-563,-577,-566,-96,377,152
269,403,262,213,-292,-534,-357,274,591,444
-20,135,119,168,513,-350,-517,-99,151,171
-293,-146,43,313,579,364,-522,-776,-369,-193
-125,-68,208,454,-23,774,-799,-1036,-378,-58
-141,-204,28,114,-327,52,-1203,-1028,-361,-43
-566,-729,-545,-549,-778,-348,-1064,-1037,-670,-497
-1308,-1499,-1257,-1155,-1140,-246,64,-936,-1198,-1296
-1255,-1462,-1070,-785,-424,968,1306,-505,-1039,-1212
-75,-312,63,414,1063,2748,1437,118,-82,-58
450,207,166,24,1507,2165,-40,-3,122,427
405,460,-212,-965,1082,206,-125,-220,-61,341
170,591,92,215,-234,-575,112,-285,-220,62
25,506,301,911,-936,-602,-399,44,-34,-8
-65,259,56,327,-564,-236,-832,305,76,-130
-308,-144,-153,-12,-307,43,-517,16,-275,-457
-418,-312,-139,-55,-127,122,-165,-268,-552,-504
-311,-356,-132,-92,9,985,-154,-119,-371,-341
-267,-505,-313,-311,-356,2233,-528,140,-133,-237
-412,-652,-530,-525,-451,2501,-896,40,-175,-360
-462,-493,-567,-504,-199,3249,-586,-200,-330,-430
-193,-129,-317,-312,57,3860,-130,-351,-256,-226
201,34,63,-66,333,4296,39,-131,162,162
199,-205,118,64,312,3845,-260,-194,125,206
-105,-427,-158,-244,-173,2677,-642,-442,-231,-175
-407,-162,-280,-363,-707,1385,-1034,-591,-561,-537
-478,327,-195,-313,-424,58,-837,-566,-637,-597
-110,478,-175,-646,1031,-624,721,-141,-175,-111
134,201,-160,-540,1200,257,1366,-46,9,65
88,-47,-35,328,-431,474,233,-556,-397,-289
138,-135,-353,-318,-844,-638,313,-210,-272,-222
-75,-222,-523,-337,-331,-1554,222,30,-250,-284
-507,-492,-638,28,-797,-1862,-706,-490,-681,-726
-485,-557,-860,-730,-1192,-1973,-523,-273,-558,-626
-173,-269,-530,-807,-970,-1856,1431,593,17,-75
-156,-74,-137,-588,-603,-914,1330,627,92,139
-332,-21,107,-317,193,669,-1197,3,-108,95
-573,36,528,670,1414,1925,-1407,-185,-91,-40
-1098,-298,281,700,1483,2643,-279,74,-198,-468
-1349,-809,-468,69,760,2366,961,991,43,-549
-939,-785,-773,-365,-814,1654,1318,2213,824,-50
-502,-397,-797,-814,-2522,-140,376,2467,1066,176
-658,-329,-839,-943,-2237,-1920,-685,1303,643,-188
-556,-81,-302,-309,-1101,-2243,-1429,-846,88,-238
564,1018,1010,1013,358,-2111,-94,-1693,364,717
715,1138,1161,1227,944,-1989,318,-1600,340,858
180,533,529,586,828,-1875,78,-1073,168,441
-270,119,171,267,305,-1765,-203,-808,-84,78
-370,-14,17,109,-556,-1665,-549,-734,-291,-96
-165,-66,-124,-77,-562,-1560,-472,-490,-284,-128
3,-161,-268,-283,-413,-1469,-323,-153,-201,-164
8,-232,-388,-482,-530,-1378,65,185,16,-134
-509,-514,-618,-602,-639,-1287,-442,-34,-287,-490
-943,-575,-620,-519,-381,-1211,141,-202,-571,-725
-809,-299,-339,-253,-73,-1121,1199,-12,-346,-479
-306,147,122,173,235,-1050,-212,310,138,69
-211,108,145,132,76,-1007,-1344,445,363,251
-404,-281,-353,-282,-205,-950,-804,483,268,-58
-82,-158,-284,-227,274,-891,235,473,442,102
284,198,88,-40,719,-841,980,181,638,346
408,437,413,342,354,-797,19,-348,536,363
248,380,471,456,-10,-751,-462,-715,172,264
100,172,238,178,-174,-705,-304,-732,-94,185
-160,-168,-214,-436,-83,-660,-94,-268,-171,-53
-204,-243,-347,-833,496,-625,475,275,21,-48
-206,-193,-212,-458,-205,-604,153,117,-37,-100
-262,-247,-237,-297,-1115,-572,-242,-80,-123,-228
-297,-274,-224,-248,-244,-538,-267,-77,-87,-242
-408,-363,-227,-128,484,-507,-377,-268,-298,-365
-353,-296,-162,12,635,-462,-263,-366,-398,-361
-113,-81,90,472,421,-422,364,-162,-278,-131
-12,-43,35,141,-240,-399,323,-201,-291,-21
-15,-48,30,59,-302,-386,598,-363,-347,-45
-137,-78,186,476,459,-360,869,-395,-386,-222
-212,-139,129,402,923,-342,497,-424,-388,-334
-8,-27,76,87,175,-330,103,-426,-215,-77
150,93,134,127,-708,-312,-106,-287,-40,142
152,63,88,177,-329,-292,-514,-68,38,188
139,20,70,153,235,-264,-1326,-234,-42,171
-189,-367,-220,-116,844,-234,-1081,-584,-376,-118
218,-59,-105,-233,539,-213,-829,-280,-64,314
688,386,131,-435,-390,-200,-1338,-64,281,731
51,-236,-315,-429,114,-193,-840,-241,-66,40
-261,-461,-254,80,-202,-192,926,-243,-384,-243
134,-56,186,315,-446,-195,1173,115,-75,141
157,-79,182,174,-140,-189,36,245,63,206
-7,-273,-1,-100,-197,-172,471,534,106,96
-248,-374,-145,-321,-384,-144,668,624,-4,-160
-295,-207,-340,-816,-717,-131,75,653,66,-203
-301,-143,-556,-1343,-830,-116,-529,740,358,-111
-309,-12,-140,-350,-590,-101,-998,249,204,-142
-160,266,429,799,-234,-95,-213,-142,19,-139
-102,307,480,783,478,-104,452,-407,-20,-96
81,381,424,437,522,-114,19,-639,-85,87
57,277,290,228,434,-96,27,-497,-97,102
-77,94,111,51,277,-98,196,-127,-53,14
-64,94,180,292,-118,-89,-150,-69,-36,-42
35,107,214,355,-197,-73,-345,-15,90,-47
-40,-92,-39,-55,-348,-65,9,30,52,-51
-192,-252,-131,-154,-341,-64,129,-89,-143,-135
-137,-227,-28,21,-74,-53,-251,-162,-173,-119
-30,-346,-272,-497,142,-36,-382,19,-9,13
-12,-332,-397,-862,-68,102,-618,23,-7,11
5,-141,-34,98,-323,1090,-541,-350,-319,-175
-167,-306,-68,369,-539,1831,-372,-760,-728,-516
-298,-388,-256,-244,-216,1624,-892,-618,-662,-517
-601,-403,-568,-801,451,2504,-1308,-281,-500,-533
-1106,-497,-693,-559,199,3107,-1337,-255,-566,-824
-674,-119,-216,85,-590,1696,692,264,-114,-370
197,690,524,669,44,1182,2597,298,277,359
542,1020,686,668,302,631,1530,-9,376,652
586,920,485,260,3,-400,-48,81,376,606
285,466,74,-178,-124,-814,-257,310,69,205
41,101,-236,-414,167,-809,-155,623,-1,43
-146,-79,-246,-282,1193,-717,48,867,165,-16
-488,-242,-111,58,753,-222,506,744,213,-237
-711,-349,-57,285,-920,494,476,137,84,-329
-444,-161,42,128,-694,330,170,-233,149,26
-280,-71,-99,-546,253,255,-498,-510,146,204
-173,72,-209,-791,-26,1523,-553,-507,240,139
-79,194,146,422,-482,3591,-221,-479,230,-11
31,131,376,968,-249,4203,-20,-398,35,-53
215,96,320,517,-182,3686,653,44,185,146
77,-106,7,15,-470,3361,151,109,128,83
-378,-504,-449,-343,-356,3927,-47,-133,-187,-258
-355,-440,-400,-480,207,3023,929,142,78,-82
-168,-242,-29,-386,-4,1606,824,289,387,204
-295,-236,241,384,-80,1504,-415,-68,79,39
-302,-66,104,354,-228,-511,-459,-82,-179,-97
-85,159,-138,-130,-418,-1478,-50,289,-166,-102
44,106,-254,-358,-519,-1350,134,562,-50,-48
-6,-41,-256,-499,-508,-1386,-97,405,7,-95
-100,0,-70,-453,-123,-749,93,-109,3,-123
-162,53,210,0,556,-929,-57,-619,-73,-97
-190,-17,210,401,327,-1103,-713,-771,-168,-167
-378,-224,-72,201,-369,-826,-186,-636,-310,-330
-725,-534,-400,-195,-276,328,369,-445,-362,-442
-722,-466,-374,-232,87,2016,-94,-193,-129,-378
-95,22,-156,-448,199,2032,-36,292,384,135
66,-40,-359,-1295,433,1087,273,415,435,212
-167,-224,-209,-546,158,-84,346,-47,-28,-217
75,-22,257,862,-372,-206,327,-243,-82,-257
312,77,316,981,-134,-1112,-112,-294,-147,-238
242,28,228,730,272,-1958,-226,-343,-304,-236
173,9,103,369,80,-1960,-183,-255,-216,-109
-35,-84,-98,-29,-304,-1850,56,-165,-153,-154
-173,-149,-196,-189,-292,-1746,205,-136,-183,-291
-115,-116,-130,-177,-256,-1642,-124,-26,-36,-166
-30,-82,-62,-155,-335,-1543,-684,-19,13,-66
116,67,34,-134,-444,-1449,-792,54,78,37
76,99,76,-62,-13,-1343,-120,102,31,52
-104,-73,-118,-266,338,-1215,-306,36,-17,-24
-248,-128,-96,-232,33,-655,-789,-39,-35,-64
-311,-128,31,-13,-46,118,-596,8,-62,-90
-47,100,302,175,116,460,403,158,78,99
-95,-6,211,27,1,147,748,39,-21,-25
-77,-52,114,-56,48,-620,457,0,-16,-124
146,49,139,-27,142,-1036,105,58,150,-43
230,-56,-3,-112,251,-1079,0,167,237,74
156,-213,-110,-139,634,-1032,357,264,114,59
56,-271,-91,1,346,-981,261,120,-122,-77
94,-234,-67,-31,-271,-922,-19,179,-131,-9
114,-260,-174,-286,-227,-873,-130,230,-33,72
85,-188,-203,-401,-235,-812,-218,146,0,29
-33,0,39,34,65,-759,-311,-171,-170,-192
0,340,159,98,-27,-717,-313,-364,-285,-166
51,423,-2,-285,-551,-685,-318,-193,-211,-124
-60,82,-241,-599,-963,-638,-868,-360,-323,-285
-101,-56,-253,-575,-914,-584,-648,-347,-300,-286
-271,-236,-260,-332,-90,-447,948,-148,-244,-330
-145,-152,-145,-142,368,-167,810,-103,-130,-123
231,173,155,15,179,884,423,-93,81,233
301,307,342,183,129,1347,-21,-52,272,345
-44,137,215,147,392,112,-254,-67,58,6
-116,123,160,171,696,-569,444,-19,-140,-142
66,212,197,268,876,-606,543,-30,-91,17
85,136,136,214,686,-590,384,120,-29,48
124,111,83,115,574,-550,70,305,36,95
317,184,34,-368,906,-530,-239,606,286,323
255,110,-51,-313,335,-491,-383,675,293,210
169,39,-92,23,-743,-461,-541,409,186,132
4,-210,-432,-872,-573,-460,-385,62,6,157
-180,-293,-335,-789,27,-428,-242,-242,-162,48
-176,-50,406,796,-337,-378,-278,-547,-163,32
-113,-52,455,904,-511,-338,-640,-299,-5,73
0,18,387,498,-372,-301,-1043,3,18,20
-191,-7,177,141,-473,-272,-1154,9,-225,-297
-288,56,59,-83,-379,-78,-65,105,-209,-322
-225,98,175,-20,-222,377,772,-98,-141,-119
-221,59,176,0,-226,150,725,-557,-191,-27
-203,33,123,-41,-60,-246,415,-583,-174,1
-20,151,213,29,226,-285,238,-111,79,188
-166,43,62,-54,-163,-272,70,48,0,12
-297,-90,-228,-262,-487,-247,196,198,-41,-158
-258,-115,-306,-321,-162,-214,353,469,96,-200
-257,-201,-295,-357,813,-230,232,577,105,-73
-103,-187,-368,-741,1264,-223,387,789,297,268
-214,-207,-288,-255,-205,62,282,475,171,105
-242,-124,-68,183,-1226,864,-71,0,86,-16
-34,48,93,93,-625,1410,-146,-369,116,149
90,145,184,136,-247,1507,-124,-753,-63,136
101,171,204,305,-295,1502,-170,-694,-120,-14
-27,23,33,67,-70,2018,-68,-457,-170,-132
-22,-92,-210,-477,165,2640,-102,-332,-212,-98
86,-59,-214,-408,20,3103,-469,-355,-221,-55
-45,-69,-46,252,-415,2951,-487,-600,-475,-281
-118,-93,-93,115,-563,2270,-322,-593,-545,-399
-130,-117,-165,-56,-236,1533,-828,-582,-493,-388
-278,-230,-203,39,260,1384,-442,-477,-445,-395
-98,-113,-125,304,778,1394,484,-89,-114,-118
217,84,79,312,495,3,-170,151,221,268
480,236,216,205,36,-1065,-937,298,439,495
410,224,141,45,-92,-1264,-1375,-4,244,326
47,11,-42,-68,985,-978,245,70,119,95
-201,-75,-107,-58,1890,-1033,1735,434,174,28
-319,8,-36,203,766,-1204,937,203,-39,-125
-254,39,-52,199,-1426,-1101,202,-76,-172,-239
-91,-28,-144,38,-997,-1035,26,16,-4,-170
28,-40,-126,67,-217,-763,-293,86,37,-7
118,72,-99,-29,-374,-748,-445,236,123,188
6,69,-177,-194,-546,-414,-398,246,147,174
-186,-31,-206,-208,-328,-32,4,165,90,50
-326,-176,-218,-98,98,-103,468,71,-18,-43
-399,-320,-291,-67,261,-474,-5,-184,-248,-174
-420,-446,-445,-204,118,-890,-474,-266,-417,-309
-486,-516,-536,-395,-243,-931,-386,-188,-492,-386
-419,-341,-387,-410,-429,-873,210,16,-286,-257
-435,-165,-133,-7,38,-809,663,-10,-186,-195
-326,42,47,299,355,-767,-296,-111,-41,-24
95,315,118,149,-124,-742,-794,27,304,379
140,292,51,-56,-479,-683,-440,150,348,386
56,241,43,-80,-450,-625,595,315,291,272
-10,104,-17,-15,-143,-586,854,232,131,208
77,50,-175,-32,317,-545,570,136,64,250
110,41,-225,-162,420,-511,520,92,31,206
-115,-117,-337,-271,-486,-459,367,-175,-260,-146
-389,-498,-784,-887,-510,-270,584,-96,-327,-393
-299,-513,-800,-1149,520,897,955,437,-52,-261
81,-37,-121,-542,1226,1659,14,439,77,-3
128,-32,10,-191,1052,1242,-793,343,258,0
-21,-173,184,926,-189,1924,-930,-56,202,-81
311,119,593,1470,-369,1762,-417,-321,282,350
484,234,504,893,-214,336,-614,-458,196,503
283,148,125,299,-171,-661,-407,-310,78,308
197,119,-127,-201,-111,-867,-1,-44,146,242
229,75,-60,-131,15,-823,82,-22,96,175
308,314,311,534,98,-774,-72,-164,-76,79
281,393,201,324,122,-696,-39,-56,-40,124
92,91,-232,-515,351,-679,150,174,66,122
-89,-50,-238,-694,151,-580,-58,171,25,0
-335,72,57,316,-157,-273,-653,-256,-380,-304
-481,-55,-23,270,-638,52,-808,-276,-525,-361
-457,-256,-309,-232,-565,632,-725,106,-323,-245
-189,-140,-320,-389,-625,1419,-523,651,18,33
135,89,-73,-341,-650,1293,-201,1169,499,285
-4,-26,-69,-379,-548,1328,193,806,424,220
-69,-41,44,-116,-18,2154,455,-103,44,101
-76,-25,188,278,650,2835,913,-923,-278,-60
-27,-10,119,128,626,1481,1016,-784,-266,-35
102,42,153,0,649,583,315,-240,-19,118
89,41,276,409,793,856,-170,-47,70,109
335,326,459,563,309,-120,-366,43,272,270
390,425,468,400,33,-1169,-530,-130,187,367
239,276,326,210,-57,-1272,-417,-264,81,303
197,177,227,102,-101,-1149,-122,-214,151,291
62,26,81,-13,-90,-970,-14,-139,108,205
-137,-151,-135,-145,-113,-622,-221,-123,-17,48
-370,-337,-294,-271,-89,-106,-442,-309,-308,-226
-460,-406,-386,-397,-148,488,-404,-422,-487,-386
-345,-298,-346,-551,51,1252,128,-110,-280,-256
-181,-127,-242,-789,937,2303,583,277,-14,-72
-157,37,72,-185,901,3671,558,371,-13,-122
-178,20,267,482,-574,4047,-27,339,41,-139
-51,-97,97,152,-960,3251,-17,142,77,-85
54,-74,53,-1,-536,2820,287,-100,-163,-105
185,2,140,65,-198,2129,577,203,-84,59
290,78,57,-66,-200,841,76,605,285,213
25,-35,-223,-670,317,-637,-423,619,411,44
-420,-308,-432,-1180,1571,-1474,19,430,285,-207
-494,-217,-83,-201,1041,-1371,340,-231,-32,-238
-288,-3,364,700,-1018,-466,-58,-791,-191,-108
-183,15,383,670,-1254,463,-1219,-804,-67,-5
-119,114,339,498,-615,670,-860,-584,-49,-44
-55,287,288,442,-38,379,435,-363,-122,-146
-207,146,146,252,419,710,307,-293,-257,-300
-304,17,50,-7,137,957,226,-209,-305,-272
-295,-32,38,-29,-323,1274,582,-96,-257,-197
-296,-190,-111,-95,-234,2093,675,185,-117,-139
-199,-230,-221,-196,-302,2787,25,514,67,-22
-210,-235,-107,-141,-394,2808,-606,685,72,-64
-211,-171,-42,-86,-282,2098,-646,887,97,-93
-186,-162,-139,-199,-217,1107,-248,1096,210,-89
-39,-65,-65,-93,-28,214,-76,657,202,31
157,196,179,185,353,-515,40,-250,50,131
234,316,226,130,347,-1371,123,-1016,-109,188
209,248,181,22,236,-1924,17,-1264,-304,116
167,194,256,200,263,-2300,266,-790,-269,13
84,76,222,202,143,-2461,401,-287,-128,-26
-59,-89,-10,-158,-150,-2363,265,-52,18,-15
-148,-171,-132,-328,-195,-1948,169,-1,146,-52
-204,-264,-77,-142,240,-518,-25,-170,21,-126
-185,-368,-80,-128,703,1068,-264,-229,-15,1
14,-356,-295,-856,457,1082,-269,23,210,259
-1,-338,-160,-436,543,662,-523,-171,-73,-3
-36,-293,113,589,-37,688,-523,-412,-470,-390
150,-157,88,541,-487,447,219,-283,-363,-317
232,-2,-31,212,-49,150,173,-172,-185,-211
95,100,-74,17,-20,558,64,-65,-137,-147
-67,231,-77,-165,-408,451,57,74,-45,-53
-128,229,-116,-422,-195,-881,154,175,65,8
-77,-6,-374,-1015,584,-1959,566,416,272,136
-28,-123,-326,-656,430,-2241,4,266,179,77
-144,-109,67,445,-591,-2195,-938,-156,-244,-286
98,177,453,803,-399,-2055,-254,67,-60,-194
506,533,661,793,-2,-1930,674,345,322,101
395,355,440,457,-31,-1815,92,93,138,132
375,277,328,256,-64,-1688,-178,1,75,215
440,281,247,0,121,-1535,-200,190,228,343
365,165,-28,-485,316,-1299,-69,409,344,348
-103,-189,-147,-50,356,-558,-73,62,-63,-164
-389,-398,-174,280,-399,491,-27,-169,-319,-498
-200,-267,-188,-42,-450,626,595,132,-96,-303
-127,-175,-206,-294,-190,-59,433,140,-67,-158
-171,-236,-369,-781,-137,-661,-614,-104,-159,-165
-201,-278,-278,-308,321,-570,-224,-232,-252,-225
-136,-226,-140,273,484,-754,334,-243,-233,-210
45,-148,-159,123,257,-1203,-122,2,-26,-31
189,-71,-153,87,211,-1233,-509,197,106,118
368,108,-27,138,-541,-1198,-1023,77,135,220
398,154,26,60,-739,-1112,-448,-5,172,234
274,79,114,172,-131,-966,-132,-176,11,129
172,38,150,151,-50,-925,-97,-56,11,120
28,-28,45,-156,173,-935,185,149,73,99
-70,-147,-192,-626,449,-888,260,299,193,75
-263,-303,-248,-130,186,-715,51,-17,-36,-156
-278,-310,-139,385,628,141,159,-207,-156,-208
-125,-240,-254,-69,440,1615,111,26,3,-180
111,-150,-368,-439,-730,2676,352,396,283,-23
197,-66,-139,-89,-1053,2788,500,365,301,156
133,-27,-19,248,-434,2353,-19,-49,100,149
128,68,4,226,-43,1078,-6,-243,-1,161
54,159,126,160,-118,-63,-396,-269,5,170
-81,138,92,48,-309,-739,-945,-186,45,121
-167,38,-24,-104,-548,-1205,-905,-23,39,30
-133,56,16,-71,-460,-1258,-203,83,61,13
-18,152,143,57,-193,-1210,807,341,206,141
-108,69,14,-5,-172,-1139,1028,428,209,79
-166,-51,-95,-28,190,-922,621,106,49,-23
-131,-158,-295,-379,482,-486,-55,-35,0,-23
-281,-349,-521,-635,550,-30,-607,-115,-156,-227
-245,-251,-212,-186,85,-113,-988,-439,-418,-422
-90,-213,-122,4,-374,424,36,-412,-365,-326
226,5,140,238,48,1527,1112,-63,-43,61
390,170,412,541,161,2221,653,123,137,221
200,-66,170,299,-155,2571,-6,167,13,-1
58,-85,10,-53,-476,2222,-143,282,68,-19
-166,-26,-78,-267,-546,1204,-78,241,102,-9
-400,77,-120,-32,-97,799,148,71,-48,-206
-576,42,-168,131,255,610,267,-186,-123,-386
-551,58,-143,-26,177,9,183,-215,16,-304
-429,89,-66,-71,-33,-870,-93,-95,97,-112
-344,33,-64,-47,-206,-1466,-436,-102,-31,-50
-337,-83,-73,-42,-112,-1532,-575,-174,-148,-114
-326,-225,-182,-286,168,-1437,-415,-286,-199,-154
-362,-427,-341,-475,357,-1332,203,-267,-224,-234
-437,-535,-308,-18,407,-1205,777,-137,-272,-378
-450,-563,-416,-202,306,-1029,600,-164,-287,-438
-302,-439,-397,-454,141,-906,1434,101,-65,-232
102,150,140,89,-181,-189,1314,300,214,135
488,819,582,489,-443,1247,-553,218,339,458
501,910,525,424,-304,1910,-1620,28,256,463
301,556,313,296,-38,1873,-1449,-232,-35,193
138,240,61,211,129,1178,-270,-231,-205,-62
71,39,-108,-18,-73,357,45,-14,-11,-113
-3,-103,-219,-146,-93,-196,159,143,61,-114
-31,-94,-158,-83,17,-703,151,82,-54,-83
21,-15,-49,0,60,-1351,-209,-56,-89,-59
45,-43,-26,43,247,-1323,-309,-213,-109,-63
111,17,71,153,495,-1190,-185,-253,-41,43
209,98,73,42,737,-1177,-6,-18,98,190
267,173,79,-60,129,-1133,3,102,158,212
370,264,144,-43,-524,-1075,-98,97,200,169
243,-2,-203,-594,209,-1006,252,404,225,121
-48,-371,-582,-932,-279,-898,75,549,89,-53
-203,-568,-749,-1147,-864,-691,-176,565,24,-191
-321,-725,-815,-1112,521,-190,-38,544,15,-262
-252,-679,-603,-201,397,237,-199,258,22,-173
-162,-520,-495,-55,-1345,735,116,316,106,-104
-302,-392,-247,-7,-1461,884,520,417,-22,-402
-292,-126,152,485,-742,1011,-155,-18,-329,-568
-71,21,90,312,-598,1292,-825,-117,-286,-299
476,332,195,275,-8,538,250,155,322,370
791,551,383,277,950,-590,528,-161,518,721
522,433,319,110,1009,-1034,-681,-572,269,434
124,322,374,315,115,-995,-821,-927,-214,-20
52,380,494,470,-26,-868,205,-813,-436,-170
443,517,543,552,169,-445,556,-99,-52,84
601,369,333,344,-110,-71,16,362,208,233
442,26,8,11,-352,-120,-205,477,170,214
294,-61,-21,10,-213,19,6,355,117,130
4,-127,-37,66,10,765,-33,-328,-52,-63
-7,58,103,151,242,2005,-103,-848,-174,3
167,210,190,107,818,3086,125,-739,-127,165
234,231,123,0,1119,3797,228,-548,-51,146
-98,25,-22,15,-327,4490,75,-586,-334,-310
-118,-17,32,184,-337,4616,385,-322,-287,-346
48,165,168,187,36,4042,315,-48,-25,-60
-97,11,17,0,164,3536,146,84,111,41
-242,-196,-272,-537,-62,3076,84,171,152,100
-386,-339,-448,-815,-475,1673,316,216,89,69
-522,-438,-314,-279,-437,1644,580,176,-37,-108
-354,-359,-62,-20,-372,2488,637,210,9,-48
-168,-192,273,199,-2,2595,271,189,40,93
-144,-123,312,207,-55,3088,179,239,130,108
-353,-66,195,457,-29,3439,356,40,-151,-224
-262,224,208,478,218,3147,-120,-282,-388,-288
112,582,369,349,240,3271,-1037,-330,-234,28
450,617,261,-206,278,4245,-1077,-39,90,338
605,427,42,-462,572,5537,-524,295,300,390
464,257,98,224,-128,6933,-678,167,177,188
229,155,171,438,-730,7852,-1158,13,105,223
-16,102,152,168,-559,7569,-1370,-245,-62,181
-153,190,163,-15,-143,7395,-1249,-537,-255,-39
-246,153,102,-136,854,6864,350,-124,37,38
-428,-124,-17,69,1203,5658,652,42,66,-114
-288,-120,14,449,18,4814,-123,37,-16,-232
-219,-274,-299,-4,-623,4097,360,149,-76,-302
-293,-398,-395,-287,-373,3736,336,41,-180,-299
182,50,-26,-284,475,3568,1105,332,235,216
271,111,158,144,1274,3739,1382,316,286,290
221,5,145,388,681,3603,578,71,75,143
404,132,143,322,-653,3109,-200,-181,-41,131
549,222,147,306,-790,3407,-326,-185,-42,140
622,231,31,181,-556,3673,-148,-52,36,98
677,240,18,135,-417,4230,-103,-9,73,73
678,220,36,85,-272,4414,-94,5,42,37
594,205,-19,32,-105,4449,-32,-66,-50,-35
466,168,-43,36,26,4475,83,-233,-224,-169
118,-19,-113,-40,108,3944,232,-369,-427,-386
-283,-318,-213,-179,27,3181,391,-235,-393,-443
-555,-514,-334,-274,-125,2854,522,87,-167,-379
-614,-517,-347,-170,73,2536,464,268,85,-300
-427,-323,-80,61,-122,1217,29,291,191,-37
-124,-166,84,34,-618,381,-83,354,298,270
-74,-250,-55,-168,-93,57,238,323,263,210
-12,-261,-211,-635,609,-555,435,334,280,213
35,-140,-113,-461,427,-688,137,200,217,207
11,129,157,554,-283,-460,-721,-342,-130,-1
170,527,42,360,-660,-607,-652,-364,-113,24
121,473,-158,-92,-36,-779,-195,-160,-8,56
4,49,-407,-432,199,-702,52,-13,37,35
-49,-177,-369,-208,74,-274,21,-76,-81,-78
-95,-258,-362,-143,242,100,-34,-109,-125,-133
-52,-406,-575,-1073,1181,-21,286,167,133,25
-144,-474,-477,-1182,1285,-159,323,161,89,-56
-340,-437,-59,-221,139,-32,-114,-140,-158,-282
-243,-130,561,1134,-428,485,-387,-231,-104,-302
117,180,798,1335,-922,-504,-516,-164,33,-123
121,3,456,563,-834,-2197,-214,-67,20,-9
-17,-147,213,126,-550,-3321,-1,-109,-89,-47
41,57,79,-18,-553,-4598,-63,-161,-113,-40
29,275,-87,-85,-574,-5562,-182,-186,-125,-57
-88,165,-266,-73,-295,-5602,-379,-243,-181,-132
-262,-156,-419,-119,-51,-5111,-439,-286,-244,-254
-222,-187,-347,-422,-370,-5159,-3,-112,-119,-133
-41,87,32,-455,-365,-4484,1074,67,29,68
29,150,234,-109,-21,-4239,1320,51,12,88
-16,-79,46,30,-17,-4289,252,1,15,25
-14,-231,-84,89,116,-4371,-575,2,46,0
68,-214,-29,102,189,-4335,-438,-44,1,-2
139,-192,2,18,139,-3797,-17,47,0,21
183,-107,96,50,219,-3105,15,201,109,102
92,-46,99,40,298,-2794,-218,297,139,119
-85,-27,-50,-76,592,-2958,-399,361,140,6
-371,-264,-365,-335,640,-4213,-306,365,8,-257
-458,-407,-414,-331,-104,-5320,-98,220,-80,-365
-22,33,-23,-150,-640,-5663,6,374,246,63
275,439,216,-18,-465,-5698,-137,476,427,308
325,403,83,-67,-103,-5472,-196,168,426,269
306,236,-26,-59,593,-5156,56,-114,396,188
199,175,12,-40,840,-4855,337,-225,184,164
-44,2,-45,-62,-7,-4542,-18,-469,-147,-1
-93,-60,-60,-32,-624,-4195,-390,-458,-115,-24
19,53,0,-88,-609,-3886,-145,-104,147,120
-63,0,-72,-220,-600,-3639,-411,-273,-65,-31
-310,-179,-208,-271,-471,-3234,-302,-730,-458,-342
-541,-375,-362,-375,97,-1555,666,-748,-591,-588
-604,-543,-555,-827,1121,430,1850,-72,-310,-521
-108,-146,-131,-434,1913,1286,2531,630,237,9
246,335,532,823,458,754,852,437,247,239
372,644,757,1118,-715,-1311,-1109,-2,60,269
340,556,472,573,-52,-2668,-1511,-212,2,284
351,294,137,-47,414,-2762,-1224,-134,50,292
411,251,144,176,-24,-2629,-499,90,183,293
352,262,240,547,-183,-2261,-119,202,102,197
279,226,195,360,-318,-2239,-288,435,82,154
25,-6,-21,67,-478,-2240,-802,352,-87,-42
-181,-167,-175,-119,-509,-2249,-1024,350,-86,-153
-317,-295,-271,-312,30,-1843,-315,304,96,-173
-157,-260,-315,-635,1566,-817,1013,154,295,57
-58,-161,-168,-323,1029,630,917,-224,183,48
-227,-187,-37,375,-874,2144,247,-762,-258,-347
-203,-170,-172,-176,-942,2249,319,-312,-211,-318
-228,-221,-293,-618,-305,2935,579,668,-18,-243
-276,-224,-112,189,-207,4646,34,1310,83,-318
-129,-120,32,305,-708,5424,-1022,1245,172,-170
-114,-261,-317,-429,-178,5338,-706,672,155,-125
91,-118,-248,-329,251,4554,159,-203,-143,-63
399,180,237,553,-128,3688,541,-706,-395,-40
612,354,409,412,-116,2453,314,-596,-258,74
473,276,293,-31,875,1962,-313,-608,-207,7
115,65,310,383,347,2200,-490,-991,-448,-247
81,31,267,579,-687,2377,58,-924,-399,-170
210,48,52,151,-543,2362,1528,-238,-76,65
222,159,268,375,383,2510,868,-161,-37,150
12,226,526,746,1578,2647,-159,-348,-163,-20
-10,354,509,580,832,2804,-102,-164,51,-19
-176,299,425,448,-938,3328,-487,-272,-68,-128
-357,25,262,248,-933,3759,-486,-199,-95,-90
-113,-5,215,188,-473,4357,98,-17,83,88
116,-8,91,78,-287,4895,233,-11,117,147
-218,-355,-229,-315,-80,5122,198,10,33,-3
-455,-593,-509,-796,127,4847,281,78,-14,-126
-379,-488,-362,-338,-67,4132,91,2,-83,-167
-369,-211,-103,284,-285,3510,-214,-141,-166,-132
-278,60,-86,178,-215,2275,-277,-98,-106,-11
-143,84,-19,83,-14,531,-357,-70,-86,37
-124,-86,-61,-72,-38,-402,-423,-182,-210,-69
-276,-377,-272,-281,-60,-529,-233,-251,-348,-241
-316,-449,-258,-273,342,-181,205,-210,-344,-273
-197,-388,-211,-243,430,-124,147,-83,-203,-191
-163,-485,-334,-309,-92,-655,-124,123,-8,-95
22,-458,-435,-691,203,-1194,-417,368,225,140
-19,-496,-597,-877,-19,-1416,-743,205,65,-33
-255,-457,-542,-442,-1067,-1034,-1183,-299,-349,-381
-193,-132,-418,-686,-535,-328,248,-128,-253,-301
-96,207,-229,-689,357,-40,903,21,-106,-188
-47,348,130,371,58,27,306,-232,-225,-232
-2,119,109,414,-145,-237,488,-163,-107,-248
-2,-189,-155,-141,54,-88,392,95,139,-194
116,-165,-82,-124,64,-499,-134,126,212,61
173,-64,57,98,-249,-2051,-604,-53,91,138
116,-73,93,290,-339,-3659,-504,-197,-43,44
63,-148,57,152,-188,-4863,-19,-105,-20,17
89,-183,8,30,-73,-5606,236,68,105,78
125,-167,-36,-27,-152,-5872,212,152,161,70
61,-186,-97,-97,-224,-5592,-240,-38,-31,-93
90,-179,-115,-100,-230,-5150,-135,-31,-61,-62
121,-197,-198,-54,-225,-4804,59,-5,-4,-10
53,-346,-407,-254,-449,-4378,164,59,25,-46
-67,-418,-474,-316,-417,-3766,688,368,96,-84
-169,-325,-217,-160,-47,-3204,1149,501,24,-150
-200,-309,-63,87,361,-1842,803,364,-34,-177
-98,-317,-20,116,436,-643,260,191,26,-119
-26,-212,211,108,355,-214,-501,-96,-37,-3
57,22,348,202,297,-144,-1429,-566,-189,62
165,374,241,161,291,-907,-1272,-621,-117,139
206,453,61,-8,500,-1961,-697,-418,-26,170
252,290,-55,-98,265,-2941,-361,-212,2,216
281,250,87,-22,-395,-3273,-273,-31,22,263
319,357,132,-167,-459,-3292,-264,167,86,252
332,415,6,-412,-318,-3163,-245,336,237,186
86,122,-237,-479,70,-2854,-122,393,270,129
-44,-118,-531,-940,1504,-2517,325,472,388,130
-25,-39,-368,-921,2762,-1948,476,146,160,28
47,179,107,120,1150,-1114,1,-384,-183,-14
210,338,430,840,-889,-1047,-266,-396,-119,191
77,251,528,1109,-1334,-1061,-640,-406,-238,62
-38,50,222,428,-583,-648,-464,-57,-86,5
-262,-192,-104,21,-592,162,-294,-28,-196,-182
-330,-267,-256,-205,-1234,1154,-703,-107,-335,-274
-62,-43,-121,-145,-653,1314,-163,283,-60,2
144,211,173,237,-51,1339,1329,670,200,221
49,151,38,45,-312,1037,833,942,293,225
-77,24,-262,-485,-966,430,-295,1414,494,229
-427,-358,-701,-1018,-914,512,-1436,1224,364,-93
-509,-518,-914,-1492,362,-149,-1558,697,105,-317
-421,-420,-545,-640,1307,-402,191,167,-131,-316
-226,-92,169,873,313,219,373,-995,-238,-15
491,635,802,1269,-68,147,162,-1443,23,674
810,969,1026,1013,195,-769,499,-1131,132,877
428,650,775,704,145,-744,277,-893,-51,440
60,259,415,450,134,1328,390,-608,-127,45
102,201,279,286,188,2687,415,-360,63,42
234,264,301,223,33,2740,294,-121,194,168
251,289,330,161,-152,2879,158,-21,105,132
18,85,134,-77,-377,3424,-47,-106,-139,-86
-301,-280,-212,-360,-437,4103,-48,-227,-382,-373
-526,-470,-365,-395,-293,4679,-51,-345,-540,-532
-483,-409,-395,-404,-444,4894,-328,-513,-667,-567
-318,-284,-428,-467,-490,4585,-433,-495,-628,-540
-319,-274,-469,-482,-328,3924,-342,-408,-596,-509
-428,-403,-574,-569,-350,3053,-247,-338,-596,-495
-590,-571,-667,-658,-461,2490,-222,-391,-647,-665
-690,-653,-654,-638,-450,2374,-185,-505,-770,-877
-620,-639,-622,-584,-353,2327,-127,-421,-664,-839
-301,-448,-438,-521,-58,2301,-210,-264,-357,-505
-52,-223,-348,-453,-211,2249,-519,-187,-141,-178
23,-19,-267,-412,-866,2671,-923,-90,23,-47
-264,-140,-351,-404,-712,3764,-1028,-280,-182,-282
-576,-279,-266,-240,-134,4519,473,-215,-363,-454
-303,29,85,38,204,4548,1179,170,-113,-248
-214,-9,106,174,311,4542,64,152,-98,-255
-309,-263,-133,16,242,4455,-20,55,-211,-382
-292,-398,-307,-180,-1,4306,159,33,-233,-289
-288,-486,-442,-313,-92,4082,86,202,-122,-176
-281,-513,-507,-350,81,3825,-140,431,-12,-179
-81,-402,-445,-342,74,3161,-505,285,-45,-166
265,-138,-228,-231,-156,1763,-697,-128,-165,-95
294,-119,-205,-409,96,924,-632,-425,-162,-15
259,-89,-233,-560,251,103,-548,-390,43,149
211,171,84,434,-108,-364,23,-188,67,176
52,85,-69,474,-593,-771,224,94,109,42
-244,-186,-389,-103,-550,-1306,-132,168,178,-172
-616,-371,-424,-316,-108,-1530,-85,28,-1,-344
-703,-326,-334,-302,-159,-1156,21,107,-64,-336
-686,-256,-234,-157,-7,-664,-178,162,-176,-362
-616,-188,-100,32,527,-118,-362,-54,-270,-379
-524,-74,57,222,355,544,-131,-80,-74,-248
-340,-25,-47,-205,481,1206,236,129,333,64
-109,46,-174,-840,1422,1618,518,49,384,213
-165,79,-25,-228,339,1336,136,-410,78,17
-177,117,277,574,-1062,487,-385,-557,-73,61
58,242,317,497,-1174,-312,30,-201,159,320
-17,67,206,248,-468,-809,252,-174,62,165
-148,-62,169,113,656,-1653,469,-164,-87,-34
-178,122,477,872,632,-2586,388,-105,-129,-134
-175,268,310,635,-428,-3605,-87,33,-23,-107
-164,166,-52,-172,-347,-4412,-21,151,74,-53
127,292,-18,-557,381,-4349,668,438,380,290
145,328,222,134,984,-3391,491,247,295,267
-31,184,355,678,-42,-2591,-176,-131,-80,-48
52,167,273,336,-637,-2488,-365,64,22,18
98,140,94,38,-584,-2518,-303,203,126,60
146,123,66,-16,-518,-2169,-161,211,149,87
274,229,115,-29,-487,-1827,-8,324,243,89
393,327,164,-16,-348,-1444,351,505,423,76
457,383,373,249,116,-818,383,353,449,262
437,320,462,428,485,-591,83,90,388,425
395,197,347,389,519,-1111,151,0,340,370
259,42,175,211,287,-2113,70,-150,153,210
29,-178,-54,-80,181,-3226,-236,-224,-31,-4
56,-189,-177,-415,668,-4250,-550,-153,-16,-18
38,-248,-249,-521,1344,-4833,-584,-86,55,-30
45,-190,40,228,417,-4779,172,-29,49,11
294,-40,14,17,-948,-4571,879,110,157,214
374,-106,-377,-987,-724,-4398,1159,411,392,356
193,-107,-143,-314,-211,-3984,766,405,280,126
-88,-125,377,1055,103,-3184,419,31,-129,-288
-84,-183,243,655,132,-2548,274,-16,-108,-230
60,-113,18,161,61,-2127,6,0,-13,-116
91,106,-43,39,49,-1374,-445,-130,-99,-118
290,412,88,-2,316,-332,-533,-149,-17,80
379,281,72,-222,544,588,-426,-163,14,137
297,10,31,43,1308,1439,-75,-76,-3,27
422,61,167,419,1483,1754,231,228,210,168
517,185,255,555,-195,1580,-170,125,183,205
445,195,258,535,-739,509,-360,-4,74,114
268,84,-21,145,-396,-795,-369,75,61,-37
127,-5,-218,-192,-474,-1556,129,336,122,-82
36,-101,-283,-390,-445,-1715,547,526,170,-4
-62,-287,-511,-824,813,-1541,581,667,256,49
-79,-225,-351,-491,1358,-1245,461,482,237,108
164,233,349,730,-141,-767,-745,-74,39,328
404,459,643,1026,-639,-490,-383,74,121,630
265,252,453,726,36,-30,415,330,212,566
93,99,285,366,-48,-356,-9,331,250,422
88,79,275,245,-230,-67,-198,119,313,364
53,-15,210,223,-160,685,-29,-251,202,261
61,-40,183,215,-51,1675,128,-419,14,138
103,-16,167,154,-13,2148,176,-250,12,60
94,-32,112,47,-76,1976,136,-27,66,16
93,-17,14,-33,-149,1423,130,58,121,-9
275,261,82,-22,-193,910,91,127,261,71
273,357,93,27,-134,647,92,119,147,109
194,203,9,52,38,829,179,124,60,34
182,117,52,33,150,549,84,75,-13,-25
124,1,-113,-147,323,-273,-2,20,-149,-117
205,16,-140,-146,267,-746,535,208,-60,-20
313,57,-117,9,-103,-665,807,337,0,57
471,124,-234,-33,-6,-378,138,416,52,84
497,167,-289,-204,144,255,-530,383,30,43
118,-110,-425,-542,103,545,-963,320,-76,-84
-77,-134,-200,-349,-237,594,-718,332,41,-72
-140,19,113,208,-430,1194,753,281,83,-27
-385,-168,-169,-379,-123,2130,1177,77,58,-118
-346,-163,-312,-897,361,2883,1090,-197,-9,-81
-33,221,284,394,761,3400,209,-739,-275,-89
254,354,523,974,658,3270,-392,-979,-382,-76
461,369,395,470,11,2313,-389,-636,-89,187
240,237,311,466,-256,1363,-335,-375,26,173
48,183,210,269,-6,367,-50,-240,17,113
113,414,225,91,33,-811,-31,-157,57,174
74,419,150,5,-130,-1561,-138,50,197,245
-38,226,57,54,-307,-2065,-102,127,154,118
46,213,30,105,-222,-2206,-85,290,186,21
14,50,-143,-80,13,-1978,-142,631,431,35
-176,-179,-179,-90,139,-1315,-179,610,483,119
-115,-110,-43,-1,-125,-1116,-99,263,401,296
-87,-3,15,18,-133,-1217,337,-96,178,277
-137,4,-111,-288,245,-1449,922,-153,-7,144
-97,-38,-189,-667,563,-1410,1267,120,77,131
-103,16,97,182,447,-365,606,-46,-55,-22
-151,-17,113,324,-211,680,-299,-203,-129,-114
-166,-47,-1,5,36,1063,-635,-172,-234,-186
-82,76,65,82,213,434,-1169,-373,-378,-287
-42,10,-203,-414,532,-637,-1116,-254,-273,-237
216,157,-73,-522,549,-1497,-93,115,35,39
208,266,413,594,-257,-1799,437,-74,-101,-22
61,114,294,484,-789,-1959,-183,-121,-96,-27
-32,10,87,54,-627,-2221,-393,103,82,64
-159,-76,4,99,-304,-2987,-305,181,62,45
-100,-15,45,131,344,-3271,-151,152,69,106
43,119,128,94,869,-3048,25,106,101,190
-93,33,72,80,108,-2769,-501,-278,-228,-66
-33,109,141,118,-676,-2207,-138,-306,-237,-74
6,192,258,288,-422,-1502,1090,31,-49,29
-125,123,146,102,-282,-962,781,144,2,-25
-102,176,48,-65,-196,-259,81,215,199,-11
-256,41,-93,-164,-90,1115,-186,59,101,-144
-479,-187,-222,-340,169,2293,90,-64,-125,-228
-400,-139,-131,-159,-28,2198,275,-11,-66,-112
-174,-10,-71,-51,-246,1352,391,14,61,42
-16,63,-50,-88,-355,-90,451,212,231,164
-28,84,4,19,-575,-1375,236,227,204,102
-110,-3,-127,-122,-324,-2348,413,177,66,-94
-227,-74,-207,-192,342,-2659,625,90,-108,-212
-261,-26,-36,84,123,-2572,309,-151,-268,-226
-132,56,70,18,-657,-2425,-159,-128,-54,36
-41,56,70,-167,-875,-2189,-246,132,293,304
-185,10,119,-28,-385,-1782,174,276,305,157
-422,-22,152,143,104,-1461,453,217,-7,-239
-457,-63,61,110,294,-976,445,251,-132,-338
-247,48,109,97,463,-345,766,399,60,-129
-271,23,73,33,342,-706,730,258,32,-86
-351,-64,-65,42,407,-443,170,-9,-38,-178
-419,-111,-164,41,607,1085,-349,-388,-135,-258
-152,187,115,83,494,2296,-940,-502,4,-1
70,312,270,202,470,2690,-1328,-446,143,224
281,390,361,245,137,1670,-1083,-236,308,410
489,540,402,200,-81,6,-716,90,499,513
385,409,193,60,-34,-1480,-277,307,470,417
173,48,-14,-257,464,-2157,-261,-251,152,173
167,52,155,373,248,-1988,-411,-376,-12,30
300,142,102,78,-121,-1809,-449,-242,23,115
248,200,161,39,62,-1499,-497,-197,-42,56
-37,37,146,28,182,-1091,-964,-314,-254,-226
-224,-185,-88,-273,499,-284,-498,-165,-234,-320
-155,-169,-153,-451,1265,960,902,125,-38,-184
-224,-191,-132,-208,-468,1898,802,-51,-216,-345
-204,-177,-37,130,-1570,2027,76,-148,-343,-477
401,248,313,398,-631,1687,688,292,155,-67
669,358,305,272,-169,1237,785,520,345,87
340,-24,-52,-75,-290,619,172,558,215,-1
52,-230,-165,-207,-433,-206,-206,632,195,-32
-149,-188,-155,-227,-561,-1260,-305,634,230,-135
-212,-146,-19,-123,-336,-1664,-125,510,152,-167
-45,-30,114,42,3,-1655,-7,177,176,25
226,119,147,158,242,-1534,232,-300,170,187
370,181,199,80,287,-1426,371,-653,113,201
360,121,154,16,213,-1161,354,-686,-42,58
191,77,83,64,344,-564,300,-507,-97,-53
-91,-46,-7,-10,1052,-160,274,-189,-30,-88
-242,-65,-28,-237,2187,292,470,157,116,-21
-295,-42,-81,-594,1392,1294,493,247,123,-16
-418,-111,-28,43,-213,2457,98,-117,-150,-234
-299,9,161,583,-1480,2950,-230,-349,-247,-254
-183,87,162,350,-1259,2537,-225,-338,-246,-211
-104,79,52,-2,-692,1933,-148,-181,-158,-145
-92,-16,-135,-306,-349,1156,-41,-29,-76,-97
-93,-76,-173,-169,-502,-161,-270,-82,-152,-137
142,111,51,167,-324,-1134,-422,-57,-92,-16
474,360,249,271,-165,-1646,-215,35,66,173
444,298,153,64,-361,-1979,-448,-45,-2,35
363,177,-21,-121,-293,-1907,-199,108,115,-102
392,151,13,-44,-67,-1709,490,280,218,0
190,-20,11,-34,-65,-1530,277,107,120,34
43,-109,15,-38,13,-1077,46,10,90,26
-100,-139,25,-24,187,-352,-5,12,77,30
-227,-189,-33,-198,236,-102,27,187,178,91
-339,-306,-73,-275,470,154,73,265,123,34
-363,-314,-44,36,504,1024,172,219,0,-80
-178,-181,-25,65,25,1367,155,212,61,35
50,-27,35,5,-352,768,-35,106,136,117
123,88,151,157,-282,-141,-260,-107,18,37
0,-15,50,-82,-128,-966,-311,-242,-121,-95
-160,-265,-268,-641,452,-1076,36,-102,-129,-192
-266,-401,-506,-686,599,-586,527,45,-143,-300
-381,-437,-403,-184,-575,-891,553,-17,-231,-428
-162,-241,-124,-86,-663,-1403,587,70,0,-142
225,135,319,380,274,-1523,847,284,327,256
290,272,460,661,423,-1469,-2,25,230,264
142,207,331,516,278,-1380,-614,-276,-45,81
-36,86,124,287,419,-1283,-496,-329,-185,-46
-94,5,-19,142,578,-1143,-426,-414,-198,-59
59,30,87,278,404,-664,-440,-387,-42,96
307,119,178,315,27,0,-98,33,342,286
449,212,224,256,-90,64,-81,337,541,406
208,57,101,142,-6,912,-173,275,286,304
11,-45,12,30,32,1955,-89,162,47,200
-77,-73,-76,-222,83,2288,-20,150,-47,117
-270,-247,-324,-748,146,2127,87,238,-48,8
-371,-326,-330,-467,-109,1776,37,232,-62,-85
-313,-144,-244,84,-535,1036,-85,42,-139,-169
-210,14,-300,-180,-439,267,-42,69,12,-60
-163,-19,-294,-370,64,-452,-58,160,166,133
25,83,-133,-319,453,-1043,160,170,227,326
131,236,148,207,602,-672,402,165,171,351
198,357,390,740,297,-245,163,36,200,375
265,409,361,504,-105,-542,93,-31,246,426
298,372,238,154,-183,-104,105,11,306,461
351,407,198,10,-122,655,-123,124,375,361
138,277,235,153,-9,1391,-617,-99,72,-14
-267,-167,-100,-133,-299,2197,-294,-200,-185,-281
-416,-418,-378,-313,-102,3148,-52,-248,-173,-301
-245,-297,-292,-199,886,3757,-286,-497,-209,-163
50,-79,-111,-130,1332,4107,387,-404,-110,53
51,-16,35,104,72,4068,-232,-554,-294,-81
200,105,143,159,-504,3794,-659,-312,-122,63
252,128,102,57,-288,3068,-14,-7,58,171
43,-34,25,190,-192,1830,126,-97,-125,-37
30,-43,-43,110,-426,1117,131,-89,-155,-62
20,-96,-188,-37,-363,558,135,51,-73,24
10,-160,-201,-193,-434,-253,180,186,-14,37
73,-168,-149,-217,-173,-21,141,264,71,41
295,-50,-18,-143,551,248,117,355,229,184
305,-10,42,42,809,316,-91,267,73,6
113,-183,-61,98,-122,796,-503,22,-231,-251
111,-324,-168,-126,-786,1398,-401,103,-171,-209
113,-279,-130,-163,-387,1909,-91,32,-195,-203
-113,-324,-178,-105,239,2629,-371,-385,-386,-377
-28,-164,-76,-230,699,2446,-672,-552,-297,-247
43,-53,107,-120,293,2360,-591,-452,-132,-59
86,29,269,325,-136,2752,458,-134,137,56
240,136,130,152,-192,2368,1338,267,440,120
159,20,-36,-63,-363,1694,1113,322,351,69
11,-106,-20,-71,-334,866,712,148,76,-18
130,-73,-70,-429,373,-55,310,186,118,106
324,25,-87,-762,1034,-685,-20,281,288,341
202,22,103,17,470,-892,-419,-63,10,117
31,-15,237,801,-485,-1018,-721,-385,-285,-140
82,-35,86,328,-813,-1232,-406,-204,-114,7
47,-79,18,177,-216,-1102,-120,-127,-52,97
-75,-162,-126,88,86,-802,50,-32,-42,41
-80,-161,-207,-130,-143,-456,79,115,3,23
-99,-117,-65,24,-230,-12,-191,6,-101,-79
-182,-132,-46,16,-238,402,-432,-82,-183,-208
-256,-179,-161,-124,-331,820,-506,-80,-250,-333
-259,-214,-190,-188,-292,1355,-486,-111,-252,-388
-168,-208,-178,-189,-189,1795,-438,-2,-89,-278
-38,-116,-118,-161,-279,1519,173,188,97,-118
-59,-145,-148,-257,-305,1268,397,92,55,-146
-177,-305,-393,-515,382,769,0,-139,-83,-278
-341,-518,-580,-735,1161,-22,-297,-361,-262,-439
-56,-339,-264,-182,184,-130,-30,-347,-211,-226
341,-45,51,260,-1068,-466,261,-215,12,121
422,-15,-62,68,-669,-1340,378,96,322,165
317,83,69,86,-351,-2148,136,279,426,132
25,125,275,369,73,-1921,-89,122,165,89
-193,149,206,279,159,-1369,-141,-62,-41,77
-329,111,66,50,38,-1008,-198,-172,-150,-8
-401,-14,-10,-52,171,-445,-205,-155,-177,-84
-471,-150,-125,-293,821,165,-45,26,-168,-132
-468,-195,-246,-516,955,558,188,310,42,-103
-557,-221,-161,95,-216,1320,-67,98,-67,-242
-524,-230,-246,45,-639,2363,-182,-59,-109,-262
-504,-287,-359,-357,-184,3003,-259,-265,-180,-285
-458,-281,-414,-477,-55,2981,-875,-511,-327,-281
-45,47,-94,-409,56,2313,-237,-80,3,107
203,289,320,387,23,1347,779,132,152,230
69,143,197,418,-544,317,268,-56,-68,-39
178,199,62,99,-441,-73,420,97,112,-14
146,163,62,127,63,631,571,256,249,19
-2,33,100,219,342,1142,-81,35,85,17
83,68,84,116,498,429,-466,-97,74,137
59,74,16,22,561,-257,-256,-114,25,95
18,106,58,33,-223,-54,-207,-54,37,109
74,107,12,-148,-591,157,-159,177,210,297
114,90,7,-114,-285,199,-314,159,184,294
57,35,65,-1,98,975,-288,74,75,178
-84,-135,-126,-215,222,2177,76,213,39,60
-95,-128,-132,-216,-145,3318,277,65,-111,-47
124,59,-44,-309,-95,3794,86,-194,-67,101
340,235,10,-525,640,3662,55,-22,217,364
185,202,75,-106,582,3054,81,35,158,245
-4,130,262,440,-443,1958,-164,-50,-32,-45
-101,68,215,316,-372,1117,-52,133,30,-134
-309,-101,94,200,-23,89,-41,67,8,-165
-275,-177,-17,107,-120,-769,-59,-88,-82,-130
-69,-105,-56,43,-310,-1209,146,-33,-102,-57
-2,-88,-67,-13,-246,-1135,137,26,-111,-64
4,-77,-70,-193,64,-946,124,-78,-161,-82
-65,-124,-200,-419,340,-587,388,-260,-254,-148
-56,-1,-158,-161,313,-210,379,-375,-254,-233
192,223,13,73,195,291,136,-202,-35,-178
164,26,-56,43,359,1157,-320,-49,-39,-141
384,106,48,67,435,1997,-114,321,203,204
761,491,428,272,-378,2169,232,533,503,548
477,300,396,284,-701,2380,-45,255,397,407
108,-89,43,19,-359,3290,124,31,142,63
73,-89,-4,3,-18,3658,111,107,99,-1
47,55,143,152,98,3354,-37,222,189,66
48,172,188,133,-156,2322,-144,293,217,111
10,156,50,39,-310,1184,-36,417,331,158
-112,39,-11,22,-122,576,-5,389,304,68
-128,10,68,75,152,-11,-45,163,113,-38
-84,33,74,55,224,-420,-64,-26,-77,-61
-15,89,93,39,214,-420,-105,41,-44,57
-130,-24,-28,-94,416,16,-253,79,-21,-5
-97,-20,-121,-546,838,497,323,266,90,93
89,216,161,-74,958,239,1379,359,185,218
37,236,338,732,-14,14,1003,28,-15,37
165,281,242,527,-581,157,367,30,95,151
186,249,176,282,-364,856,190,138,159,188
-122,14,74,80,-33,2296,27,35,-95,-102
-272,-74,-45,-83,371,3174,12,35,-139,-256
-15,205,110,107,363,2896,316,221,230,-97
121,353,275,285,-82,2235,-226,5,298,29
12,240,282,297,-18,1606,-656,-315,49,53
-104,143,226,251,167,893,-511,-423,-126,-22
-69,158,203,212,227,60,194,-141,11,60
-63,130,116,87,39,-710,703,125,163,150
-107,101,19,-64,-181,-1120,342,187,207,163
-203,66,56,53,386,-982,321,154,124,15
-183,22,-60,-105,1243,-775,380,280,142,-18
-204,-79,-257,-429,1044,-500,458,328,152,-53
-148,23,36,364,463,-168,97,10,1,-131
204,331,240,656,-131,-352,-178,23,170,147
273,341,290,463,-117,-239,-142,19,148,145
284,324,374,368,123,207,-191,-105,48,79
314,312,337,258,72,1118,-200,-83,49,58
322,269,209,114,35,1970,-19,150,143,3
165,120,74,15,65,2493,121,299,41,-67
13,-35,-48,-75,16,2540,265,389,-58,-135
-50,-114,-137,-174,-85,2274,390,442,-45,-168
28,-76,-125,-164,-128,1933,233,435,29,-80
177,2,-92,-124,-166,1330,-26,300,93,16
349,146,10,-67,61,445,-411,-14,30,89
452,184,-49,-312,560,-346,-342,-142,65,110
344,43,-178,-487,558,-797,69,-219,68,99
79,-162,-155,46,531,-987,177,-447,-100,-22
127,-97,-3,438,159,-868,79,-495,-108,37
509,234,157,115,187,-1047,73,-82,243,405
558,335,239,-113,1219,-946,78,212,327,385
214,128,110,3,1145,-475,-183,128,74,0
32,37,-34,95,-509,-165,-444,51,-50,-171
97,118,206,616,-1190,410,-215,96,38,-113
118,119,244,558,-750,1143,278,95,50,-51
88,131,184,313,-448,1818,65,-6,34,-44
42,137,161,206,-268,2303,-625,-183,-37,-52
-102,-11,-32,9,-292,2105,-762,-324,-212,-177
-169,-129,-151,-97,-208,1561,107,-96,-133,-212
-65,-41,-66,-13,331,992,1342,228,111,-102
34,55,-82,-83,550,30,1388,225,211,-93
209,121,-39,-54,-68,-504,520,121,188,-109
341,81,12,51,-107,-846,-59,45,109,26
332,-21,-90,-92,31,-932,-20,6,70,128
265,28,-64,-69,-56,-980,-88,-97,12,137
79,169,113,272,67,-1839,-419,-222,-73,119
-147,182,80,66,182,-2148,-545,-137,26,175
-278,74,-22,-187,406,-994,-205,106,185,208
-261,20,-41,4,142,373,158,262,247,235
-83,127,75,164,-427,353,171,401,338,383
54,213,158,131,-298,-29,560,566,408,420
-48,96,17,-82,-290,152,796,440,182,192
-336,-172,-175,-80,-224,503,641,194,-107,-118
-394,-218,-88,112,88,658,172,102,-195,-164
-259,-33,81,152,171,382,-521,33,-105,-19
-165,25,15,-34,4,-177,-545,-23,42,147
-124,-74,-103,-135,-44,-934,-121,-18,144,298
-36,10,-2,3,-38,-1878,-148,-178,88,313
31,86,86,160,5,-2472,-455,-197,-5,220
83,93,123,303,329,-2373,-494,-27,50,215
166,127,117,238,257,-2962,-250,237,218,304
66,-19,-61,-26,-101,-3904,-237,429,202,176
-37,-164,-305,-327,-364,-4460,-307,459,164,10
0,-184,-484,-547,-353,-4339,-309,371,162,-132
-29,-217,-508,-540,-191,-3666,-181,155,57,-188
273,114,-25,42,198,-2630,158,-130,91,168
629,496,345,371,780,-1841,734,-155,241,509
470,407,237,67,669,-1801,654,-233,150,350
85,63,-94,-521,500,-1726,351,-321,10,112
-146,-74,16,314,476,-1085,331,-358,-124,-47
6,65,272,969,-299,-836,201,-211,-38,62
122,19,91,454,-476,-1485,-22,10,104,180
32,-125,-137,52,-277,-2246,-61,150,171,192
77,-62,-201,-325,363,-3352,-49,325,346,299
217,158,-33,-228,718,-4217,64,362,361,284
166,229,258,572,-194,-4412,520,169,179,116
43,73,142,497,-556,-4807,544,47,88,11
71,31,42,222,-192,-4672,326,-11,15,-41
180,122,48,121,-20,-4692,210,89,79,-68
27,7,-35,8,-84,-4608,-11,226,89,-54
-162,-146,-128,-84,-109,-4311,-269,284,-26,-134
-264,-237,-137,-169,-156,-3923,-352,208,-133,-255
-184,-206,-164,-452,-255,-2977,-60,240,-60,-171
-217,-326,-349,-887,194,-1514,1189,681,91,-181
-306,-400,-275,-381,738,-432,1554,679,27,-357
-107,-107,66,200,-192,544,804,499,114,-346
-16,28,183,239,-1055,570,100,395,156,-250
-94,-59,128,167,-744,423,-891,-247,-128,-299
-115,-104,86,151,13,1024,-1041,-695,-306,-254
15,-46,-44,-103,603,872,-293,-551,-179,-40
299,165,38,-20,659,-385,-19,-259,167,328
573,395,322,570,-42,-1569,-86,-290,302,590
524,318,232,527,-404,-2056,61,-214,252,536
337,149,22,239,170,-2292,598,83,165,331
171,-32,-172,-314,786,-2586,1208,299,43,132
-78,-151,-88,-38,113,-2111,478,6,-215,-195
-88,-92,111,432,-835,-1242,-787,-214,-257,-269
101,51,187,340,-492,-613,-1070,-84,-23,-87
158,94,181,202,-229,177,-1116,-205,39,-51
96,-3,52,110,-69,1222,-1233,-407,-94,-144
300,177,234,282,356,2447,-146,-247,58,-38
446,332,336,265,267,3151,181,-142,165,54
300,188,181,18,-98,3427,-420,-199,-42,-57
317,112,103,-98,-216,3654,-695,-185,-204,-92
346,67,41,-158,-280,3669,-449,-30,-225,-96
386,167,144,-105,-368,3560,176,97,-174,-28
215,133,149,-23,-100,3311,628,33,-265,-130
-128,-90,0,-41,332,3354,713,55,-233,-309
-278,-199,-95,-180,142,2560,567,256,-7,-197
-178,-121,-29,-131,-113,1468,265,358,64,-57
-130,-123,-98,-237,39,1248,134,279,-2,-119
-292,-271,-282,-420,311,1302,-5,116,-92,-210
-297,-250,-198,-283,-151,1573,-46,117,-51,-138
-218,-108,86,85,-121,1890,-91,-26,-146,-89
-210,-131,-2,50,77,2183,-234,-41,-62,-1
-86,-36,6,-38,-299,2707,-307,122,136,135
-66,-7,91,-52,-445,3185,-474,48,100,161
-53,23,139,-7,-218,3823,-393,73,91,170
-2,77,224,141,19,4590,132,238,241,229
129,218,372,296,20,4820,-58,7,244,328
124,196,306,205,-49,4640,-133,-269,62,253
147,135,145,106,9,4396,-6,-261,29,197
209,146,55,7,20,3979,208,-21,115,135
262,125,-42,-114,54,3409,788,257,158,24
105,-28,-165,-210,57,2483,1047,173,11,-65
-174,-251,-384,-607,542,1675,974,172,28,-48
-166,-338,-612,-1205,1449,1035,924,304,136,11
-196,-271,-282,-435,807,1051,0,-122,-249,-254
-85,70,366,755,-255,1533,-1240,-540,-458,-314
199,439,627,811,-743,1166,-1062,-429,-158,78
110,478,595,631,-553,1315,-369,-262,3,185
-125,364,526,510,-227,1581,-281,-136,59,167
-357,93,323,296,127,1965,-234,-70,87,118
-427,-138,55,41,745,2503,-76,-122,-26,-21
-271,-192,-171,-296,668,2797,226,121,38,22
-224,-234,-188,-226,-210,3190,274,288,69,46
-283,-297,-236,-123,-504,3272,51,106,-78,-100
-184,-243,-367,-308,-75,2891,50,-33,-101,-202
145,-31,-479,-937,159,2313,-230,-42,72,-130
149,-15,-254,-459,385,1657,-436,-84,-14,-61
-48,21,245,753,-379,1105,-31,-128,-206,-165
-27,-12,237,602,-849,508,-441,24,-160,-66
46,-130,71,206,-463,304,-370,302,64,200
297,97,254,262,6,-84,263,261,168,350
451,332,419,164,352,-404,616,167,240,385
341,273,260,-161,458,-512,382,168,287,238
141,16,156,136,571,-506,37,149,101,56
-13,-187,-81,101,237,-301,-15,180,-41,-79
-158,-277,-248,-20,-457,17,10,47,-274,-287
-162,-173,-10,188,-245,568,542,92,-258,-287
-162,-168,87,122,20,1110,335,92,-123,-190
-118,-177,70,33,15,1428,-272,-94,-88,-119
87,0,167,45,-86,1865,-765,-224,-60,15
159,21,92,-105,-302,1893,-579,-94,8,97
-53,-245,-201,-321,114,1764,35,-110,-137,-87
-167,-377,-323,-274,584,1890,672,-135,-273,-252
96,-77,-55,80,204,1113,891,-50,-102,-21
289,203,218,310,-57,-6,218,-29,68,228
143,120,153,199,-51,-873,-466,-204,22,180
-48,51,96,141,23,-1580,-379,-192,42,106
-64,79,-2,133,56,-2280,-146,-29,215,142
-47,56,-56,74,28,-2695,-103,87,312,212
-78,28,53,55,-46,-2748,-33,137,224,259
-95,20,34,-17,-96,-2575,-17,90,93,205
-182,-103,-98,-112,-73,-2117,146,6,-33,62
-319,-265,-208,-86,-31,-1825,225,-50,-104,-101
-347,-324,-329,-271,-282,-1748,241,9,-76,-180
-277,-304,-439,-532,-594,-1148,321,187,-2,-181
-245,-263,-479,-715,-533,-304,230,401,99,-177
-217,-117,-218,-363,99,602,237,410,57,-166
-162,-12,45,235,402,1064,10,195,-28,-145
-343,-246,-234,14,24,139,-690,-64,-258,-340
-324,-300,-349,-310,-147,-1058,-519,-32,-265,-313
275,227,89,-137,697,-1737,551,288,202,282
512,459,312,22,1399,-1695,546,200,354,486
204,242,207,308,410,-1535,-251,-79,147,191
1,35,-11,268,452,-2142,-308,-107,98,105
109,164,34,248,353,-3214,-76,-27,131,219
30,176,118,218,-1027,-3116,-328,-172,-79,111
-76,61,-9,80,-727,-2323,-309,-43,-156,31
-111,6,-46,-14,-319,-1767,-405,168,-62,54
-147,-61,-90,-111,-473,-1405,-492,272,51,53
-151,-95,-210,-238,-600,-1065,-687,286,107,-14
-27,21,-209,-135,-251,-89,-218,274,226,-59
-112,-44,-173,-56,103,1254,573,93,152,-190
-114,-20,-108,-121,-160,2000,511,-157,-82,-234
-40,58,-86,-132,-83,2436,246,-280,-213,-224
16,119,19,-132,443,2372,93,-248,-170,-144
247,263,25,-373,497,1447,-113,-15,103,148
174,182,-33,-244,363,900,57,175,190,87
201,277,234,148,574,1351,93,-10,137,31
326,359,371,162,188,1353,-71,-275,74,173
128,164,303,525,-515,853,-220,-493,-196,-45
149,190,328,570,-421,342,-241,-398,-193,-29
180,226,272,405,6,67,297,-176,-89,63
11,62,131,179,155,196,403,-149,-152,-65
-85,-51,-8,-71,363,572,391,-47,-124,-115
-96,-117,-186,-305,1014,1255,531,142,43,-99
-162,-195,-294,-232,1600,2088,558,121,22,-216
-172,-108,-86,64,768,2556,476,3,-152,-144
-86,8,86,256,-635,3238,364,64,-70,-18
18,3,-13,23,-1334,3798,80,246,97,67
229,69,-171,-363,-901,4090,-186,413,274,236
306,68,-322,-654,-454,4126,-598,252,183,252
223,13,-255,-637,232,4033,-533,131,30,125
213,81,-114,-473,1533,3956,-68,227,105,118
-78,32,168,541,1388,3600,-354,-156,-175,-59
-151,58,217,840,-695,1993,-656,-268,-245,-46
-61,46,45,440,-1271,877,-521,-96,-142,37
-31,-49,-183,100,-707,834,-471,1,-74,32
50,-65,-177,-22,-400,614,-465,-9,9,94
86,-27,-159,-32,-168,402,35,-44,-65,105
100,66,-33,51,172,-36,838,43,-129,93
-79,-73,-109,-88,420,-71,723,166,-245,-94
-118,-215,-229,-186,247,632,458,339,-209,-179
-98,-383,-452,-151,44,1375,432,399,-48,-187
152,-249,-440,-15,-93,1733,241,238,164,35
475,68,-167,65,-581,1758,-128,-110,241,224
609,330,66,45,-515,1880,-112,-541,50,103
655,424,99,-31,-203,2058,341,-487,-15,54
703,505,208,90,-179,2178,374,-76,207,69
308,238,220,273,13,2362,-182,-75,81,-136
-230,-244,-61,100,-79,1486,-704,-224,-164,-227
-246,-319,-200,-69,-236,28,-429,-146,-133,-116
-168,-170,-96,-31,-129,-908,-242,-52,-14,20
-347,-227,-203,-140,-94,-1207,-140,21,67,43
-390,-267,-241,-189,354,-1652,-130,-55,82,69
-168,-68,-5,-59,424,-2407,-4,-35,246,189
26,116,297,311,16,-2526,-301,-171,137,172
251,169,323,350,162,-2346,-525,-182,54,195
186,-45,10,-112,367,-2153,-203,77,52,154
-96,-297,-244,-341,166,-1956,57,113,-86,-29
-290,-327,-192,-30,-129,-1629,524,114,-205,-139
-356,-202,-78,91,-81,-1166,763,210,-163,-89
-411,-129,1,158,50,-502,-191,51,-156,-88
-238,-35,53,115,-39,143,-722,-138,-128,21
-109,-45,31,36,-81,380,-605,-147,-109,76
-110,-113,-81,-40,31,222,-392,-111,-128,9
-34,-20,-118,-134,-22,-384,-234,-115,-104,42
22,67,-52,-122,-166,-1255,-105,-78,-17,129
62,115,92,158,50,-2109,12,-149,-6,192
105,143,107,235,156,-2909,82,-86,46,239
75,117,46,173,161,-3391,224,19,68,142
28,63,18,125,170,-3710,119,-64,-28,-38
-89,-120,-167,-16,15,-4098,-89,-175,-198,-128
-263,-320,-326,-213,-207,-3850,-307,-158,-256,-152
-248,-239,-280,-214,-200,-3399,-138,31,-96,-33
-87,19,-18,6,38,-2798,747,301,156,179
-188,-10,-11,-45,-4,-2118,545,254,177,151
-245,-91,-164,-292,-110,-1773,-93,36,87,84
-223,-164,-285,-614,-78,-1141,-319,-47,48,30
-261,-225,-274,-689,124,-108,-306,10,-20,-38
-248,-190,-44,109,236,499,-454,106,-20,-82
-50,-21,197,563,32,583,-192,243,71,35
179,175,291,357,-4,315,225,222,116,233
167,174,220,142,-37,-110,257,105,71,236
15,59,125,78,8,-699,243,126,106,194
-89,-29,25,31,60,-1351,305,127,96,30
-46,-30,-44,-86,190,-2018,309,6,56,-65
-55,-99,-138,-147,461,-2529,425,-141,-98,-7
-69,-129,-104,-59,81,-2648,229,-237,-207,-64
24,-92,0,-68,-434,-2259,71,-129,-126,23
95,-39,64,-28,45,-1475,-310,-149,-95,94
152,5,101,-66,381,-742,-725,-163,-50,179
232,21,43,-210,104,-107,-739,21,97,299
233,-16,-23,-235,-367,132,-984,15,25,245
79,-222,-223,-456,27,512,-770,60,-138,90
25,-204,-41,-97,593,1930,-49,248,-140,27
148,-64,9,-219,550,3237,420,527,144,198
240,61,26,-311,0,3359,427,572,279,322
4,2,201,303,-565,3207,32,176,11,11
51,45,187,-12,-471,2553,90,87,-7,0
185,167,200,-65,-146,1436,353,1,-18,35
134,135,211,115,-98,514,482,-2,-76,-22
58,52,104,-73,66,-105,390,86,-53,-87
-162,-73,89,411,-51,-264,489,-105,-279,-372
-270,-161,-60,277,-888,-589,830,-239,-412,-470
-391,-345,-326,-270,-566,-988,794,-154,-470,-578
-439,-444,-455,-449,-274,-900,-177,-60,-494,-618
-123,-169,-189,-220,-476,-442,-1096,137,-141,-220
181,157,73,-12,-648,252,-1255,243,284,68
148,221,148,99,-43,748,-663,35,379,138
-103,100,111,220,316,1282,583,-301,166,124
-291,42,154,296,-59,1719,50,-899,-276,-71
-296,43,105,121,-241,1739,-355,-913,-338,-109
-251,-20,-56,-69,-265,2498,-15,-527,-197,-60
-193,-50,4,-125,118,3000,43,-315,-167,-40
-211,-168,-90,-186,382,3178,10,-102,-54,-52
-139,-129,-72,141,33,3089,-27,23,22,18
104,81,37,217,-365,1968,-139,134,130,218
116,101,99,108,-355,342,-189,61,33,186
-98,-82,-44,-51,-232,-828,-222,-80,-172,-63
-295,-289,-276,-265,-239,-1358,-252,-69,-258,-265
-343,-377,-490,-391,-238,-1413,-260,1,-200,-297
-74,-170,-368,-189,-82,-1502,-29,120,-16,-61
252,115,-60,145,91,-1137,213,312,136,168
385,154,-94,28,-2,-703,-7,375,204,243
424,154,-98,-237,-257,-574,-241,255,202,281
268,108,116,29,-107,-465,-309,-134,-153,71
55,-33,133,255,297,94,-128,-234,-328,-141
-30,-115,-18,142,238,817,344,-20,-175,-145
12,-89,31,44,-137,1344,278,-87,-104,-104
91,-45,85,-8,-106,1453,37,-214,-69,-132
44,-42,-22,-186,126,1415,-11,-126,19,-219
-282,-197,-239,-654,685,1302,38,-44,-35,-253
-474,-303,-294,-593,1089,600,59,-141,-179,-286
-357,-161,-24,272,24,-772,-216,-210,-203,-183
-159,-75,-13,194,-621,-1839,-109,117,39,64
-48,-135,-172,-156,-100,-2408,229,447,158,100
30,-122,-177,-368,285,-2540,412,389,82,16
199,15,-83,-414,396,-3080,848,275,135,115
179,72,98,197,-714,-3298,184,-190,-81,24
63,-14,42,299,-449,-3044,-249,-353,-240,-126
-195,-250,-133,156,991,-3148,26,-220,-293,-324
-295,-352,-238,4,492,-2654,260,-106,-282,-397
-153,-303,-366,-458,-572,-2173,257,147,17,-179
-136,-316,-449,-587,-632,-1564,150,341,220,-110
-80,-135,-193,-6,-807,-473,-489,-70,18,-240
64,33,-23,138,-820,-94,-802,-479,-184,-200
183,73,-111,-257,-836,-224,-282,-494,-188,-35
161,151,134,167,-47,-426,-110,-528,-328,-185
85,65,211,476,347,-650,-113,-577,-456,-275
236,44,79,310,184,-1184,838,-67,-148,-3
227,83,61,277,109,-1874,801,214,-26,84
122,97,5,76,97,-2621,87,223,27,56
169,4,-155,-310,353,-2735,-284,190,117,106
138,-202,-308,-403,663,-2749,351,66,60,84
42,-238,-229,1,383,-3210,332,-211,-63,-11
76,-43,-40,277,-384,-4030,-687,-329,-86,35
126,146,30,188,-659,-3929,-859,-104,126,209
6,159,-13,27,-567,-3376,-273,140,268,310
-278,-8,-120,-78,-342,-2696,-39,49,151,114
-400,-149,-176,-89,10,-1672,0,-106,66,-24
-447,-226,-200,-132,667,-710,18,-171,-18,-47
-328,-182,-249,-548,820,-164,35,40,95,96
-47,52,-39,-378,107,-133,-290,146,154,269
-53,123,217,503,-478,79,-953,-165,-131,120
-115,-53,-12,185,-617,-208,-796,-139,-163,39
-22,-53,-81,12,-50,-693,27,96,-15,130
64,58,40,77,119,-981,122,3,-27,102
142,104,2,-19,-11,-1554,-345,-121,-17,-22
147,84,-7,-35,74,-1973,-134,-33,2,24
23,-11,-8,-12,82,-2428,187,-14,-38,90
-6,0,-87,-58,-53,-2945,389,91,78,163
-31,-23,-145,-150,-105,-3096,613,92,71,141
-54,-27,-84,-146,-43,-2424,440,-3,57,126
-24,27,-32,-73,214,-1384,515,-49,16,92
63,120,-79,-395,1039,-715,636,39,61,93
98,154,-120,-515,1130,-449,669,221,207,109
7,134,112,328,-536,140,237,39,27,-107
-32,54,195,452,-1021,1275,-58,-4,-31,-174
-68,-30,138,248,-381,2392,-410,-33,-48,-158
-58,0,154,194,79,3000,-735,-108,-15,-72
-140,-45,78,6,547,2727,-489,-100,7,-34
-274,-100,-12,-46,91,2441,-181,-69,-40,-117
-377,-154,-82,0,-660,1948,-325,-190,-224,-257
-382,-216,-273,-476,-503,1072,-177,-81,-215,-217
-223,-81,-247,-680,65,505,793,278,14,-39
-332,-89,15,298,336,431,514,146,-146,-212
-379,-167,37,588,97,978,153,176,-104,-211
-169,-20,10,196,-231,921,118,392,166,67
4,150,7,1,-194,444,-16,362,256,222
123,263,46,-130,101,785,73,256,309,149
171,330,191,47,251,980,127,7,219,32
-110,3,14,14,426,1318,224,-210,-76,-140
-227,-190,-100,38,172,1913,-5,-225,-203,-170
33,-11,0,59,-455,2340,-442,-2,-23,59
129,54,15,50,-414,2784,-469,27,-40,7
128,76,48,113,-215,3158,-469,-112,-163,-152
167,81,53,125,-38,3155,-318,-164,-89,-148
236,49,15,101,137,3189,-143,-299,-53,-48
155,-17,-17,80,330,3024,120,-342,-127,-10
56,-97,-176,-195,525,2256,409,-214,-50,72
43,-81,-260,-382,385,1187,509,27,129,225
-66,-67,-215,-115,92,-98,373,-28,0,83
-30,-39,-117,73,-205,-1020,256,-31,-61,-34
58,-61,-43,198,-588,-1150,158,214,122,-7
213,1,-72,61,-550,-839,-153,434,336,63
230,31,-90,-10,-320,-350,-428,326,286,97
213,12,-47,-73,-250,-64,-338,230,190,135
196,-9,-107,-94,-194,106,-197,155,123,157
86,4,-70,24,107,334,-236,-8,-15,38
22,6,27,59,669,609,-60,-46,-76,-79
137,10,-59,-196,1067,891,224,97,212,87
277,104,-43,-120,458,1343,248,-22,230,104
331,171,-18,-26,-445,1818,138,-241,2,-63
217,71,-229,-694,-684,1612,198,-94,-38,-13
-36,25,-151,-568,-505,1497,-65,-25,-32,-80
-334,-72,163,441,-134,1439,-338,-139,-91,-180
-373,-111,76,337,-213,212,-139,-91,-33,-59
-287,-103,-139,3,-251,-1045,397,3,35,93
-114,46,-127,44,-82,-1537,714,148,183,217
19,134,-55,53,72,-1765,462,141,232,200
33,126,-25,102,141,-2197,9,-23,137,147
-32,109,15,110,147,-2473,-138,-184,-16,66
-150,37,2,-12,107,-2527,36,-234,-123,-50
-236,-19,-63,-159,130,-2247,103,-221,-182,-157
-217,-28,-59,-230,430,-1474,58,-204,-173,-135
-182,-36,-10,-176,421,-536,-92,-164,-116,-68
-31,40,43,-203,648,523,125,55,39,55
141,159,-28,-537,726,715,396,304,216,123
-132,-79,-146,-293,-242,547,-137,-103,-195,-216
-434,-404,-303,-184,-284,422,-741,-454,-540,-445
-284,-316,-209,-152,-377,341,-738,-226,-381,-342
94,18,144,70,-734,473,440,209,-49,-61
317,178,283,238,-566,181,763,363,105,135
471,238,250,194,-231,-598,91,441,246,320
444,213,330,307,76,-1360,-328,463,284,311
287,80,231,258,87,-1743,-130,384,209,241
113,-44,27,-22,-6,-2059,17,390,147,170
-47,-124,-145,-461,213,-2412,-146,382,46,49
-152,-106,-175,-654,476,-2798,-433,274,-23,-4
-490,-214,-90,52,-35,-2555,-837,56,-280,-276
-534,-216,-65,54,-714,-1880,-156,37,-198,-268
-204,-88,55,-124,-210,-1091,637,-219,-131,-99
37,35,283,269,90,-468,521,-478,-143,13
83,34,374,570,184,397,190,-518,-147,27
-31,-51,255,411,95,1031,23,-465,-177,-13
-166,-112,135,212,7,1569,48,-372,-95,21
-272,-172,-4,66,78,1513,343,-287,-75,-33
-271,-239,-285,-213,295,385,586,-201,-106,-155
-136,-153,-262,-173,714,-271,199,-128,-26,-119
42,54,31,182,680,28,-468,-168,30,-87
22,21,26,55,-48,-48,-447,-134,38,-88
-212,-283,-328,-463,52,-756,-111,-40,10,-94
-93,-207,-280,-656,-445,-1327,159,98,204,121
8,-10,83,233,-329,-1558,121,115,285,183
-29,-5,168,557,-262,-1850,44,91,206,48
-8,-12,101,254,-229,-1887,175,-83,87,-5
65,68,83,63,-235,-1390,127,-208,36,27
-32,19,-11,-41,-208,-880,231,2,41,-34
-33,15,40,80,64,-227,-134,260,110,22
-97,-73,-107,-45,-59,324,-495,188,-51,-53
-430,-354,-385,-366,-165,870,-644,-72,-402,-429
-523,-446,-421,-600,113,1495,-508,-76,-428,-521
-240,-199,-133,-313,27,2143,-571,12,-152,-244
177,174,321,407,121,2518,336,-11,57,86
353,227,196,152,414,2756,1057,-84,131,199
90,-16,16,13,654,2948,614,-440,-184,-10
99,46,112,341,859,1831,352,-610,-290,-40
247,171,186,214,424,633,-47,-343,-77,131
313,184,254,120,227,854,-639,-95,87,214
388,243,327,142,-193,683,-760,156,215,313
329,251,397,274,-363,265,-612,282,230,309
307,264,262,-72,-111,261,-33,413,407,272
232,207,127,-165,-137,485,185,372,435,110
0,47,157,293,-329,858,-128,-8,35,-87
-35,57,147,211,-358,1222,-217,-166,-34,-48
-42,76,154,91,-162,1590,-118,-145,-5,-27
-89,28,111,23,-59,1979,196,-46,-19,-82
-93,2,100,13,-16,2644,248,28,-27,-97
-109,-26,111,55,43,3371,138,20,-98,-164
-85,-50,-11,-125,266,3767,122,21,-80,-178
-62,-106,-290,-727,806,3482,291,126,-8,-113
-267,-306,-494,-744,571,3061,319,-3,-189,-328
-361,-347,-388,-157,-448,2532,67,-194,-365,-469
-109,-44,65,260,-637,1537,-163,-74,-179,-256
177,128,117,187,-355,450,-343,132,53,38
315,130,-53,-145,-460,-20,-296,297,210,187
422,221,109,119,-497,-120,-339,174,145,119
489,182,82,236,-325,-502,-334,-1,54,41
524,149,22,149,45,-566,351,69,93,194
606,257,31,171,194,-40,863,181,159,413
531,301,90,110,-262,403,253,104,99,447
304,234,177,22,-318,178,-39,86,24,292
-38,104,152,-89,-140,195,57,156,47,102
-343,-43,115,-88,10,687,289,256,145,-6
-502,-177,35,55,479,1547,339,141,118,-44
-493,-293,-73,-204,720,2443,229,-64,6,-55
-525,-381,-74,-101,356,2711,122,-154,-140,-208
-494,-392,-1,292,335,1829,-125,-186,-264,-229
-318,-281,-115,-208,569,521,-199,-118,-238,-117
-129,-104,-219,-771,518,-526,28,55,-150,-12
-89,-54,-249,-883,560,-1522,317,294,-53,14
-224,1,127,620,-425,-2154,-268,12,-261,-196
-194,70,283,1064,-1590,-2752,-477,8,-215,-144
-106,53,140,440,-1006,-3083,-409,106,-66,-101
-168,-92,-57,178,-458,-3132,-457,-174,-210,-274
-65,-63,-180,67,-421,-3053,-83,-253,-161,-175
180,135,-33,67,-291,-3207,368,-185,-28,41
158,137,2,-80,485,-3247,524,-135,-41,20
-34,13,-109,-247,1803,-2683,1008,166,54,-76
-337,-164,-233,7,1029,-1958,928,176,32,-376
-523,-192,-168,263,-1127,-1365,85,-89,-253,-583
-395,-101,-51,84,-1471,-1147,-484,-20,-200,-310
-100,52,91,77,-786,-794,182,198,42,0
147,143,111,65,-391,-655,293,253,186,176
196,152,82,59,-73,-899,-118,122,226,213
160,123,40,43,39,-1946,-160,-24,146,162
139,78,-15,12,45,-3117,-239,5,35,76
187,80,-35,20,36,-3838,-415,110,19,56
316,183,47,51,-143,-4494,-377,187,62,107
219,136,-62,15,-235,-5003,-297,141,23,-9
80,12,-228,-140,-401,-5448,-57,47,55,-89
49,-31,-276,-269,-550,-5502,112,-361,-69,-71
35,-42,-222,-331,-653,-5207,338,-593,-221,-78
95,10,-78,-83,-1,-3926,1104,-413,-112,-42
248,133,79,213,735,-2480,1124,8,186,111
312,179,205,393,951,-1250,249,211,260,269
457,339,341,512,836,-571,-508,50,286,429
439,324,230,293,520,-521,-895,-182,188,397
342,163,-30,-49,93,-85,-1063,-290,100,265
127,-53,-122,-31,-36,704,-815,-449,-104,-24
211,48,-53,139,325,720,392,-206,-9,6
390,213,-62,91,453,-10,350,-2,131,28
296,137,-60,61,463,-664,-138,-49,5,-105
166,-11,-128,-9,268,-1338,-183,-121,-155,-75
264,99,-38,67,22,-1882,-176,-59,-86,77
313,201,82,237,18,-2049,65,-22,-97,108
256,175,25,185,-22,-2237,20,-96,-183,25
191,122,-67,26,-169,-2572,-141,-80,-147,-13
122,71,-123,-80,-266,-2436,-137,71,-36,-38
14,0,-148,-31,-102,-1485,-47,220,-31,-131
-143,-153,-246,-59,95,-383,105,277,-168,-286
-215,-228,-331,-170,99,246,101,326,-186,-388
-274,-245,-327,-212,74,746,-172,257,-184,-479
-332,-322,-459,-532,115,1332,-345,7,-246,-490
-367,-325,-425,-585,132,2356,-629,-322,-332,-414
-218,-71,0,197,163,3317,-1187,-547,-236,-148
11,187,141,213,-267,3308,-802,-505,-60,64
-74,75,-36,3,-348,3163,-393,-403,-62,-72
64,165,109,124,323,2698,1489,53,165,150
154,187,57,-205,936,1763,2246,262,289,335
15,63,-103,-260,837,994,1243,183,158,172
13,145,173,373,216,283,-150,-117,-27,41
-12,204,393,673,-698,-48,-926,-301,-71,79
-173,35,59,225,-1066,-110,-586,-165,9,90
-244,-32,-129,-21,-719,199,-116,-23,63,68
-289,-53,-88,-35,-365,482,114,109,68,53
-286,-40,-79,-40,-147,605,30,150,25,31
-257,-16,-87,-118,-70,1127,-72,35,-101,-13
-233,-3,-64,-107,-51,1727,-90,-89,-190,-80
-199,-6,17,17,165,2260,-101,-134,-237,-100
-72,29,-47,-469,684,2457,19,119,-80,78
-93,-43,-336,-1201,873,2676,239,354,29,122
-394,-154,-168,-219,-32,3748,-32,52,-347,-219
-377,-19,172,668,-573,4547,-196,40,-287,-175
-77,254,397,660,-441,3942,-264,94,69,199
190,412,454,462,-3,2519,-357,-189,102,335
216,329,263,293,26,1706,-515,-542,-139,137
178,244,73,118,-728,992,-301,-371,-124,45
87,163,-4,-98,-735,72,360,128,86,38
-25,104,-109,-274,-568,-689,903,437,170,-62
-191,-41,-160,-265,-83,-913,1092,422,20,-184
-305,-204,-231,-257,277,-530,979,487,-15,-140
-323,-320,-266,-273,108,301,135,339,-68,-147
-59,-114,-71,-110,133,303,-561,105,-20,-17
256,198,208,169,-247,220,-593,-46,155,189
254,227,133,78,-291,555,-333,-241,158,175
200,155,19,-402,261,1005,-20,-278,126,190
125,69,45,-475,621,1740,134,-180,70,167
-112,-85,117,381,125,2265,-402,-412,-261,-107
-59,-114,-7,119,-775,1848,-716,-296,-194,-41
121,-23,-45,-52,-440,1452,-264,-54,-46,98
17,-139,-195,-8,-64,1147,196,3,-117,-34
-67,-205,-218,-95,57,426,96,100,-95,-85
-1,-183,-222,-258,489,-563,-156,253,14,-50
-3,-232,-364,-502,1077,-1681,-398,281,40,-82
-120,-281,-319,-408,481,-1995,-905,-17,-178,-147
-27,-156,-193,-172,-571,-1676,-1149,-225,-125,-10
18,-128,-224,-8,-837,-1484,-1259,-434,-160,40
180,36,-85,228,-584,-1452,-328,-401,-138,145
343,184,135,343,-229,-1384,279,-266,-78,253
236,32,-1,46,1,-1529,140,-353,-225,52
196,-128,-245,-206,434,-1018,1143,-235,-158,-180
166,-193,-314,-106,195,-9,1365,-114,-113,-209
192,-150,-286,-119,-159,316,797,101,2,18
236,23,-82,124,-42,195,119,215,135,169
121,101,197,524,63,736,-315,-13,97,155
97,174,231,412,-157,897,-387,-110,152,243
40,99,106,168,-257,599,-333,52,81,216
-22,-55,-103,-95,-240,38,-148,227,38,103
-16,-123,-208,-289,-244,-798,21,297,51,71
-104,-221,-241,-242,3,-1742,80,376,24,7
-155,-252,-243,-109,524,-2368,9,241,-63,-72
-6,-39,-74,20,132,-2507,-268,-207,-218,4
169,127,119,163,-205,-2740,-259,-383,-168,148
258,63,-41,-263,-194,-2331,46,-129,97,262
359,98,14,-136,-2,-1610,147,98,215,312
344,173,228,555,110,-1030,153,87,217,174
329,177,207,437,-31,-1232,308,172,290,147
133,23,96,144,-208,-1182,192,55,127,106
3,-89,-4,-54,-259,-569,-118,-109,50,89
33,-89,-79,-357,412,437,-127,-136,92,144
-42,-136,-137,-475,804,1666,-7,-90,-14,72
-250,-239,-132,77,-246,2125,-450,-154,-365,-206
-209,-243,-173,29,-911,1459,-635,143,-313,-213
-151,-243,-231,-239,-674,1343,-489,559,-53,-137
-164,-275,-258,-245,-382,999,-148,551,9,-205
-55,-189,-152,-79,-27,449,157,33,-9,-208
213,67,104,178,191,-68,-26,-665,-82,-6
309,188,263,396,312,-468,-144,-862,-158,128
260,131,145,237,173,-929,54,-426,-48,214
295,173,119,89,158,-1481,198,-84,45,324
249,175,91,-69,532,-1392,143,160,146,340
15,-25,-135,-293,661,-1171,27,370,143,269
-141,-209,-368,-622,173,-607,-19,340,20,122
-142,-193,-154,-89,186,129,-134,23,-120,-26
-39,-53,204,820,-314,741,-409,-489,-356,-107
136,45,113,411,-648,941,-190,-481,-362,-47
169,-5,53,42,-341,1604,-30,-242,-280,-95
114,-46,55,72,287,2538,24,-142,-215,-235
131,-4,-30,-42,590,2932,36,-272,-177,-285
-124,-196,-223,-446,-239,2507,-268,-571,-444,-382
-472,-419,-358,-588,-351,2051,-399,-400,-513,-395
-489,-271,-120,-122,180,1694,182,-81,-334,-236
-205,55,243,260,-494,1124,524,261,6,130
-6,191,341,328,-742,595,779,579,328,395
-129,6,33,45,-543,-152,409,498,223,235
-103,-76,-181,-163,-262,-754,132,435,211,180
-115,-120,-279,-176,-138,-950,59,341,258,217
-224,-195,-220,-119,-64,-905,82,185,164,116
-204,-174,-106,-75,42,-406,-224,-195,-30,50
-110,-57,-9,-70,33,-113,-505,-520,-158,55
-4,110,125,10,21,-283,-346,-590,-217,53
17,196,222,119,145,22,-184,-491,-199,17
-47,146,160,52,162,785,-40,-200,-98,-41
-193,51,93,-41,171,1629,-41,-54,-65,-56
-327,-63,-22,-358,281,1775,-43,21,-50,19
-360,-223,-268,-872,459,1276,57,84,-13,-8
-348,-376,-283,-163,396,1026,-106,-133,-234,-228
-236,-393,-160,365,-225,675,212,-170,-286,-269
-42,-248,-118,28,-58,-603,258,17,-104,-102
192,87,32,-172,475,-1954,-103,42,64,92
219,234,-64,-573,1231,-1948,31,135,224,131
-109,-65,-228,-402,471,-2346,-30,211,102,-76
-194,-215,-138,140,-831,-3430,-432,142,-89,-221
-139,-276,-168,61,-560,-3816,-623,34,-210,-322
-82,-271,-165,-89,-326,-3468,-543,27,-156,-282
-33,-108,39,163,-247,-2735,-70,-147,-145,-208
194,130,250,281,-128,-2961,553,-127,-53,41
217,45,194,96,-101,-3214,702,-5,38,116
-19,-290,-183,-432,670,-2226,946,99,-35,-59
-2,-381,-538,-1058,1027,-1359,1199,254,46,-27
81,-108,-97,-43,250,-1022,675,54,0,-73
21,113,481,1002,-401,-494,-318,-163,-54,-154
-83,38,355,492,-631,-747,-802,-189,2,-125
-197,-34,179,88,-613,-1422,-954,-262,-39,-141
-51,93,254,76,-467,-2125,-269,-124,104,-16
240,313,294,20,-348,-2960,-183,53,371,119
453,450,280,-14,-232,-3653,106,275,606,325
346,314,279,-7,-161,-4120,466,345,548,398
83,90,189,27,-50,-4099,358,253,343,188
-60,-10,92,9,6,-3896,152,247,227,29
-128,-49,57,19,129,-3300,175,291,108,-30
-65,13,77,8,135,-2534,141,326,15,13
-2,56,63,-105,264,-2006,203,418,-21,17
-36,10,-8,-259,425,-1304,245,432,43,18
-38,11,34,-62,105,-537,-123,228,107,52
-71,5,67,101,-192,217,-313,-153,-59,-39
-132,-59,-10,-49,-147,1002,-269,-302,-282,-187
-147,-93,-73,-181,48,1732,-305,-90,-250,-207
-100,-70,-108,-258,132,2169,-641,57,-171,-149
-29,48,-16,-83,-83,1996,-676,64,-55,-30
278,398,302,253,-146,1533,425,126,345,393
287,411,324,250,-105,1295,1034,-25,328,462
72,190,124,129,-3,973,745,-136,153,241
-67,33,40,50,74,673,235,-203,88,162
-206,-118,-72,-22,136,209,112,-185,8,107
-254,-192,-181,-216,278,-230,158,-187,-49,67
-8,-88,-219,-607,1118,-424,108,-138,92,272
200,62,-112,-331,1799,-219,156,26,278,405
145,144,42,207,-339,462,-95,-123,100,128
-38,36,7,45,-1840,1186,2,-32,-72,-11
-177,-42,76,123,-470,1718,246,6,-191,-34
-162,-8,131,109,298,2223,50,-56,-141,-4
-101,4,58,-179,102,2989,-113,-112,5,119
-53,57,148,-113,15,3929,-177,-257,-24,138
-85,48,198,60,39,4488,-101,-299,-138,6
-98,31,86,-133,-129,4599,14,-100,-138,-65
-92,68,167,-25,-68,4437,-33,102,-88,-22
59,163,308,135,17,3981,-393,58,-30,135
183,167,243,0,41,3289,-314,52,54,321
250,138,117,-286,494,2647,-91,174,135,393
239,62,-75,-642,989,2197,137,277,143,292
-6,-77,-141,-259,-8,2064,-103,181,-22,35
-95,7,103,288,-655,2297,-357,140,-94,-84
8,87,268,370,-258,2671,-327,64,-134,-10
-6,-7,91,33,-222,2394,-186,91,-127,33
-237,-163,-80,-160,-246,2479,-269,-205,-261,-173
-505,-366,-249,-294,-313,3097,-470,-798,-628,-474
-561,-438,-368,-438,-438,3521,-248,-886,-736,-564
-362,-279,-215,-295,-227,4059,939,-214,-275,-248
-212,-143,-46,-8,181,4770,1350,236,32,-73
-28,25,-20,-17,145,4829,722,175,101,-46
-1,21,-116,-40,133,4701,307,52,-4,-16
149,105,1,94,382,4888,-22,254,129,173
434,307,103,126,293,4595,-481,458,344,422
476,321,120,-29,60,3710,-569,482,336,434
281,217,73,-119,25,3006,-318,398,164,258
-43,70,90,125,166,2341,-241,310,-24,61
-248,-17,87,311,93,1686,-286,306,-10,7
-229,-32,68,172,-118,1282,-252,281,73,98
-169,-56,-66,-214,247,887,-217,155,143,168
-348,-313,-320,-368,837,859,-211,-115,31,-1
-251,-261,-222,-116,714,1373,81,-296,-130,-32
46,-60,-59,-112,218,2033,285,-192,-121,68
185,88,197,607,-208,2163,-135,-160,-174,13
403,185,74,180,-651,1503,-202,93,48,107
558,228,-101,-552,-67,2358,-111,119,303,121
603,290,-63,-671,155,3363,74,96,415,205
374,217,176,63,-438,3914,93,-52,209,204
81,147,278,507,-916,4402,-276,-224,0,37
-174,68,149,299,-745,3325,-491,-171,-81,-114
-571,-175,-135,15,-672,1684,-422,-378,-428,-459
-742,-384,-397,-225,-387,406,121,-327,-536,-624
-348,-194,-304,-221,-169,-123,817,117,-77,-272
144,110,-7,-48,-215,-410,729,132,115,73
188,120,9,-18,-130,-310,-131,-160,-153,-24
-3,-79,-105,-80,186,73,592,-156,-292,-227
-45,-128,-108,-21,446,-615,1597,-34,-170,-160
118,10,41,107,859,-1173,815,9,13,40
266,21,41,80,630,-816,380,229,219,214
212,-72,-77,-89,-228,-623,-333,-19,58,109
163,-37,-86,-164,8,-933,-1072,-250,-6,28
-49,-99,-153,-225,103,-745,-1057,-315,-48,-106
-167,-103,-243,-530,-187,-107,-553,-223,-24,-175
-276,-140,-318,-502,238,442,-38,-89,-117,-274
-256,-103,-341,-185,563,811,-53,108,-120,-257
-139,-113,-437,-452,540,769,148,633,175,-69
-299,-211,-279,7,126,403,-34,658,113,-271
-234,-150,-298,-97,-688,-748,-381,608,236,-384
11,28,-240,-352,-994,-1952,-536,260,327,-274
282,252,76,-16,-513,-3002,35,47,223,89
258,242,205,233,-718,-3510,297,192,114,133
-64,-24,-22,-17,-630,-3452,285,308,38,-121
-190,-82,-91,-110,-456,-3284,166,331,136,-146
-151,-4,-27,-56,-278,-2895,113,225,250,-38
-99,33,-43,-154,-179,-3345,-163,-166,158,-27
-25,92,20,-166,279,-3714,-406,-520,19,-29
-89,61,114,36,544,-3066,133,-762,-245,-155
-237,-64,64,116,623,-1463,231,-687,-341,-311
-208,-89,19,60,1233,-241,146,-438,-212,-197
6,89,46,-148,992,-178,49,-296,-66,29
123,161,88,-129,-355,-167,244,-173,-7,110
12,39,49,-138,-1076,170,446,36,3,-22
14,17,114,32,-612,598,29,124,85,-83
57,-2,105,31,-471,1018,-519,45,57,-61
32,-57,-5,-181,-419,86,-499,-79,-79,-151
-8,-95,-118,-233,-207,-1054,-139,-82,-153,-252
56,-34,-77,-147,117,-1566,393,9,-34,-184
169,86,94,-77,343,-1782,225,-35,96,-41
275,142,16,-248,375,-1615,-106,-166,124,68
282,152,21,-242,288,-1497,-159,-66,143,29
275,228,190,275,492,-1272,-235,-128,83,-109
162,39,-25,20,185,-972,16,-151,-51,-112
67,-71,-65,-158,125,-537,260,-132,-213,-183
84,-29,23,-108,235,51,272,-119,-255,-200
170,64,51,-136,115,652,84,-121,-202,-141
180,38,-22,-192,63,1632,26,-105,-133,-136
283,98,-40,-122,76,2796,-4,-43,-24,7
422,193,13,-138,-128,3049,-172,75,127,208
248,4,-129,-274,-154,2768,-230,63,43,159
87,-105,-231,-359,-173,2495,-290,72,-15,130
-22,-167,-304,-420,-230,2193,-311,200,-64,81
-244,-348,-458,-513,-298,1701,-578,225,-203,-106
-332,-316,-418,-347,-160,1425,-719,255,-197,-163
12,86,-10,72,125,733,616,538,243,228
238,243,178,122,237,467,877,351,302,301
316,209,17,-121,219,452,505,86,177,116
340,149,-7,-102,105,552,775,-2,136,72
366,183,140,111,45,876,758,-137,11,127
384,230,191,50,236,1292,169,-143,-35,134
302,143,29,-336,197,1679,-333,-92,-20,101
135,41,46,-81,-43,2184,-744,-141,-69,3
2,-32,116,105,-48,2745,-917,-223,-137,-46
-32,-101,-74,-673,773,3131,-645,-61,5,76
-102,-147,-127,-746,1683,3664,-297,18,40,100
-439,-363,-95,80,782,4045,-528,-448,-422,-296
-486,-397,-33,620,-510,4073,24,-422,-517,-402
80,68,268,529,-1227,3403,1005,230,30,139
234,194,365,314,-1197,2586,558,472,139,265
75,13,203,171,-607,2130,-73,621,127,135
-1,-39,139,233,-137,1493,-547,470,79,8
-106,-120,14,157,-71,973,-766,197,-78,-176
-140,-232,-238,2,11,635,-520,-78,-141,-233
289,11,-208,-289,353,-9,58,-147,58,102
605,193,-177,-815,521,-465,387,-35,175,326
453,228,75,0,393,-552,373,-73,28,228
133,88,223,530,447,-387,268,-106,-33,177
-140,-90,197,518,-229,324,86,-230,-65,103
-240,-86,229,717,-472,1620,-303,-380,-130,-86
-415,-287,-110,233,-85,2076,-365,-226,-145,-255
-591,-477,-341,-180,-412,2078,-185,-91,-231,-268
-388,-300,-153,24,-581,2255,-6,69,-163,-161
-71,37,62,256,-123,2747,818,343,97,39
42,218,146,403,399,3156,626,223,216,143
159,288,362,514,391,2569,-125,-6,311,354
287,327,403,431,-111,1242,-272,0,421,505
226,287,270,253,-408,-231,-304,31,276,338
46,127,84,182,-335,-1325,-199,68,87,164
-52,43,-14,145,-267,-1778,32,230,67,97
-44,31,-3,83,-230,-1907,107,341,102,52
-79,-35,-11,21,-254,-1924,-256,330,29,-66
-164,-114,-76,-54,-295,-1766,-382,437,12,-176
-199,-129,-88,-78,-248,-1435,-247,472,101,-167
-120,12,21,-2,-146,-1061,-8,186,131,-127
-126,11,90,95,-18,-628,261,-273,-60,-143
-163,-31,73,116,57,74,335,-684,-229,-175
-166,-69,-27,-31,-120,938,214,-655,-252,-206
-93,-60,-58,-111,-238,1359,545,-103,-64,-122
-130,-88,-46,-112,-176,1276,691,270,-1,-122
-300,-229,-119,-174,161,872,583,401,-45,-236
-121,-49,8,-73,555,390,253,368,152,-94
280,308,251,196,622,489,-251,103,404,174
391,366,322,297,270,-262,-730,-369,141,315
239,190,201,269,264,-1001,-545,-441,-131,170
129,57,-11,-74,-28,-2085,-589,-363,-218,45
-112,-175,-347,-544,-365,-2904,-603,-289,-173,-133
-283,-251,-225,-113,60,-3208,-285,-274,-84,-199
-55,5,123,357,492,-3093,582,84,280,136
254,293,290,340,574,-2933,508,269,537,457
137,246,327,296,192,-2633,171,59,288,337
-192,-63,83,-23,-348,-2205,275,-25,-35,4
-353,-267,-190,-401,-328,-1921,757,231,-103,-167
-193,-221,-364,-1036,427,-1170,784,722,181,7
-13,-71,-239,-1034,466,-224,140,963,342,150
-105,-5,198,289,-664,317,-856,559,79,-67
-153,13,287,643,-1034,405,-844,268,54,-166
-34,76,123,198,-275,97,-388,11,227,-45
-58,22,39,31,469,-152,-40,-291,71,42
-145,-41,26,74,500,-383,1,-338,-188,13
-63,25,46,16,182,-1098,370,39,-57,72
-98,21,163,207,-344,-1672,465,-32,-116,-37
16,40,135,108,-450,-2118,178,-294,-18,68
313,176,50,-271,-168,-2565,-54,-460,108,283
476,230,48,-321,-42,-2528,-8,-442,96,252
262,28,41,49,-5,-1838,-9,-394,-104,-52
97,-144,-136,-158,224,-1136,308,-53,-106,-187
53,-91,-216,-313,285,-733,464,233,-26,-133
3,-1,-42,52,-201,-160,43,180,-109,-137
55,85,63,23,-276,318,-401,168,-14,26
-121,-134,-269,-699,311,790,-489,31,1,5
-249,-322,-522,-1399,830,1455,-209,-33,-8,-105
-97,-129,-162,-654,983,2343,523,-135,-9,-59
-70,-32,207,568,1005,2664,570,-446,-246,-146
-54,50,400,1084,-86,2366,1,-594,-436,-190
41,52,233,482,-1123,1912,-285,-384,-325,-17
67,-48,-4,32,-462,1266,-278,-167,-207,82
313,126,80,53,-178,391,99,47,36,299
416,229,137,31,-324,-565,143,122,174,346
442,360,169,-1,-266,-1143,-84,130,273,248
230,244,128,-3,-38,-583,-152,189,292,87
111,65,127,39,-73,57,-193,345,302,144
100,-11,89,56,-143,222,-194,367,236,117
17,-84,-19,-21,-135,258,-139,346,136,1
-74,-139,-79,-85,-102,410,-192,244,-14,-116
-116,-189,-103,-154,-240,1111,-256,168,-111,-201
48,-18,45,-58,-138,1572,-347,352,166,-23
139,128,183,73,33,1898,-142,384,363,96
59,68,81,-36,-58,2460,-24,-49,124,-30
-2,-64,-52,-110,-32,2803,542,-377,-196,-208
-22,-126,-54,-63,118,2859,677,-457,-338,-304
-99,-166,-81,-72,132,2440,292,-289,-332,-336
-275,-234,-127,-96,113,1461,-49,43,-193,-275
-377,-99,-12,19,228,315,-118,221,-45,-187
-284,84,73,33,115,-906,-166,126,112,-42
-264,-24,-43,-60,-92,-1666,-245,-50,114,11
-276,-100,-144,-23,1,-1758,-56,-369,-111,-128
-233,-142,-97,13,179,-1058,202,-585,-276,-197
-138,-129,-64,-6,434,-1093,333,-362,-150,-73
49,21,13,-15,461,-2089,64,-45,50,122
87,0,-4,10,-5,-2260,-113,152,59,138
128,48,-57,45,-138,-1583,365,438,128,109
273,166,-122,-101,-231,-1345,414,805,388,188
80,-40,-258,-180,-534,-1043,-44,878,344,54
-126,-214,-342,-173,-547,-503,-712,751,234,-55
-125,-163,-249,-248,116,-251,-908,315,155,-68
-33,-62,-223,-595,1051,-12,-325,-216,87,47
-18,43,-78,-30,463,37,120,-677,-31,93
130,267,353,874,-561,-286,487,-740,-61,144
246,364,421,728,-382,-1275,516,-482,27,203
142,222,251,384,-125,-2205,539,-257,13,123
-5,23,27,138,-89,-2929,350,-204,-127,-52
0,-21,-80,-5,-144,-3587,402,-179,-159,-55
105,64,-40,-36,-218,-4162,450,-66,-35,91
6,4,-26,108,139,-4217,7,-40,-39,35
-93,-82,-154,-198,534,-4019,-367,68,-24,3
-140,-99,-329,-630,913,-4144,-495,154,-38,-78
-99,34,-137,57,768,-3439,-643,169,-95,-125
-32,73,55,545,-411,-2395,-54,458,-45,4
-54,-125,-91,143,-886,-1267,286,679,0,-45
99,-148,-204,-272,-355,-351,490,913,191,53
171,-137,-195,-252,176,259,1028,688,243,70
164,-44,-6,282,-83,390,847,0,108,30
359,261,242,444,-664,-221,191,-414,145,214
484,419,342,403,-355,-815,-487,-652,162,307
248,237,207,242,-113,-1207,-866,-660,-8,208
-36,-53,-124,-147,61,-1713,-306,-286,48,122
-129,-74,-182,-131,441,-2353,165,17,192,144
-70,53,83,310,393,-2928,-168,-143,60,64
-55,-41,-46,-80,-163,-3352,-190,-182,-9,36
-114,-147,-277,-514,-214,-3687,-75,-109,-11,-20
-117,-71,-110,82,-427,-3643,-288,-178,-12,-89
-127,-67,-42,182,-501,-3429,-396,-133,8,-55
-415,-358,-255,-13,74,-3106,-510,-136,-236,-257
-429,-326,-270,-149,-141,-2170,-338,6,-295,-240
-309,-138,-83,9,-586,-1520,121,-55,-334,-154
-359,-180,-97,-38,-563,-1519,336,-259,-356,-187
-494,-327,-302,-309,-617,-1049,-190,-440,-232,-240
-572,-356,-350,-335,-482,-50,-770,-564,-209,-332
-451,-202,-241,-213,-175,896,-418,-526,-278,-376
-278,-85,-146,-141,108,1127,-184,-360,-255,-224
-293,-125,-176,-252,109,234,-266,-248,-318,-159
-334,-203,-271,-453,90,-709,-116,2,-341,-188
-225,-293,-425,-717,275,-1290,-37,408,-203,-151
-180,-368,-442,-176,19,-1897,-551,375,-240,-205
-287,-485,-451,130,-767,-2211,-992,22,-420,-343
-191,-334,-526,-253,-705,-2630,-346,-13,-175,-151
-73,-9,-176,-10,-174,-2453,303,-169,-6,46
-260,13,77,310,190,-1779,-87,-510,-147,-76
-309,-7,160,252,409,-1399,-385,-713,-219,-71
-94,36,49,-128,823,-1564,-216,-584,-153,42
44,50,-42,-238,799,-1317,123,-297,-95,46
-98,-106,-96,164,-93,-653,-179,-315,-281,-199
-68,-174,-151,240,-514,13,-294,-239,-254,-202
74,-101,-52,201,-661,646,114,-94,-98,-51
36,-111,-66,15,-593,1017,381,58,15,40
-94,-206,-211,-183,-477,973,288,226,114,51
-253,-394,-449,-526,-344,580,279,311,130,7
-383,-473,-547,-606,-366,52,196,133,-40,-137
-514,-418,-316,-80,-233,-486,-118,-164,-396,-400
-304,-170,-25,131,-73,-1260,-320,-181,-396,-306
38,170,235,301,407,-1918,261,-154,-135,-87
94,263,238,271,708,-2254,925,-267,18,-30
138,222,157,15,302,-2449,773,-188,138,189
39,107,94,-57,-368,-2098,130,-84,34,216
79,136,178,89,-465,-1549,-723,150,109,338
200,257,334,321,-281,-1959,-1328,157,196,467
95,119,220,272,-159,-2520,-804,121,94,322
-70,-88,-51,-23,-25,-1989,-65,238,90,181
-51,-45,-31,27,239,-1181,-87,84,18,149
-64,-74,-6,-2,377,-418,34,83,4,93
-25,-62,-47,-149,237,-87,-12,-1,105,90
59,-1,-38,-165,-221,94,-201,-380,-4,44
79,-51,-105,-243,177,188,109,-355,-112,-87
412,124,74,-59,1340,311,569,-64,85,137
595,281,259,196,863,216,199,-119,150,348
666,416,299,204,119,-1189,-170,-201,196,433
509,360,284,394,315,-2116,-205,-117,268,419
4,2,76,132,115,-2680,48,-74,44,218
-282,-273,-158,-307,-459,-3653,560,116,11,77
-294,-301,-238,-485,-76,-4496,614,265,80,85
-210,-126,16,316,-175,-4642,-272,95,30,48
-127,-40,108,582,-403,-4483,-848,-45,56,53
-143,-73,-54,116,-442,-4184,-972,-208,-24,-83
-215,-223,-171,-58,-338,-3313,-685,4,109,-101
-101,-146,45,236,270,-2011,928,369,290,167
119,116,245,284,160,-2152,1401,489,358,312
23,65,156,93,-21,-1600,1326,436,249,157
-74,-5,85,1,-66,-244,1332,394,200,52
16,93,214,96,-37,29,423,187,207,129
168,212,347,241,151,-351,-112,-14,204,244
55,73,215,206,361,-597,179,68,147,105
-17,-51,56,69,374,-1401,154,132,77,46
142,26,9,-103,103,-2594,18,100,100,198
230,34,-191,-380,-38,-3098,8,75,157,325
163,-65,-334,-560,481,-3036,-9,20,100,311
46,-103,-216,-606,1651,-2884,240,34,24,182
-90,-86,16,-169,1147,-2696,399,-17,-206,-98
-141,-33,276,669,-418,-2399,67,-175,-406,-314
258,250,393,575,-610,-1904,-138,110,15,-21
354,243,231,185,177,-999,-106,183,192,96
217,93,90,9,358,-617,-141,75,30,65
235,148,266,154,-351,-88,-367,37,-9,112
260,189,356,284,-697,963,-409,51,49,136
213,100,228,154,-477,1781,-139,137,68,62
119,-42,54,-31,-313,2658,126,202,71,10
89,-25,7,-128,-100,3143,223,173,52,22
150,53,22,-241,407,2846,182,205,67,131
160,50,2,-162,839,2332,97,234,77,144
152,100,100,134,139,1604,-72,0,-11,48
240,220,179,94,-798,968,-144,-209,-78,55
328,286,206,12,-366,479,18,-61,14,139
362,307,256,16,168,208,-68,84,106,175
186,86,2,-439,596,343,15,163,98,34
6,-60,-105,-281,533,866,222,209,17,-128
-89,-115,-30,247,-506,1306,60,145,-148,-245
119,-15,-57,-107,-764,1559,57,289,-31,-53
261,37,-83,-413,26,1897,-50,241,1,80
317,67,-39,-355,781,2348,-215,329,135,171
158,37,97,183,539,3046,-354,248,-34,-36
-54,-23,72,220,-646,3895,-746,12,-291,-246
-67,-1,-69,-165,-896,4568,-632,280,-19,-118
-72,-5,-147,-342,-495,4927,-203,166,147,-3
73,128,73,-146,-24,4916,357,-378,83,215
342,388,460,308,476,4586,485,-599,70,408
480,553,591,392,724,3466,570,-187,154,432
349,416,426,149,409,2500,606,51,80,263
-58,1,125,118,238,2977,48,-142,-279,-180
-72,-62,25,90,160,2807,-265,-15,-233,-218
144,119,134,2,-212,1558,-228,358,130,94
18,26,61,-136,-380,972,-216,400,143,58
-58,21,59,-101,-239,1004,-182,321,54,-64
-131,8,75,-28,-25,1227,-16,313,120,-81
-139,34,135,89,151,1352,36,74,33,-37
-113,10,116,103,214,1626,170,-176,-114,-13
-27,-1,0,-29,80,2154,-66,-147,-64,-9
166,50,-55,-217,-173,2621,-537,74,287,-36
209,-30,-102,-309,-31,3729,-696,-9,303,-169
402,-24,-28,-358,292,4971,340,-63,192,-15
635,77,105,-93,273,5337,690,-216,75,54
730,198,264,405,-120,4655,270,-227,33,86
636,233,247,286,-247,3593,309,-90,64,162
343,187,172,137,128,2739,474,16,60,170
74,143,116,74,677,1499,577,175,178,208
-108,33,83,165,599,761,180,203,185,111
90,108,190,223,-342,1014,-252,214,170,171
216,94,17,94,-471,1154,-100,284,166,128
0,-125,-177,-71,-242,1026,300,276,14,-127
-204,-183,-153,-144,-171,1028,549,237,-96,-317
-354,-176,-126,-162,223,1182,871,165,-206,-495
-372,-231,-344,-867,1091,1342,978,320,-13,-434
-317,-241,-410,-933,964,1755,519,218,75,-371
-265,-120,72,536,-38,2518,-463,-254,-228,-443
183,297,497,943,-92,3045,-941,-210,-37,-34
308,414,518,643,-343,3240,-578,-135,109,112
-136,-14,192,344,-78,3759,-281,-177,-90,-239
-203,-146,92,334,250,3850,-276,-132,-101,-289
-13,-14,137,320,-255,3072,-326,-14,16,-118
-2,42,85,240,-526,2278,-222,47,123,-106
80,218,103,251,-354,1209,-89,-136,144,-145
34,191,83,214,-149,665,47,-366,-58,-182
-137,-15,-71,21,-194,1800,54,-225,-203,-209
-166,-105,-246,-235,-215,2072,-42,95,-73,-148
-175,-87,-252,-252,-167,310,-161,221,-10,-173
-281,-56,-131,40,5,-188,-276,193,-66,-303
-216,50,-41,109,-39,390,-212,221,-17,-220
-113,139,12,41,-77,270,-117,158,16,-145
