54,81,22,28,21,-174,-63,3,-7,-49
2,91,-42,32,26,-94,-69,-7,-18,-69
-26,101,-54,20,21,-34,-46,-8,-16,-79
-37,70,-42,7,15,-10,-16,5,8,-60
-33,31,0,-9,8,6,-2,23,7,-15
7,39,9,-23,-3,1,-5,31,2,6
29,51,-15,-30,-16,-13,-4,28,2,-2
32,60,1,-35,-12,2,1,48,0,-10
34,74,-7,-33,-4,6,29,58,31,-6
41,91,-97,-20,-9,9,38,83,55,11
139,217,-103,-25,-1,15,29,99,127,8
173,270,39,-8,14,20,25,99,162,4
51,114,92,7,0,40,8,91,71,4
-12,7,46,-18,-23,56,-3,80,-10,14
-29,-20,22,-32,-12,72,5,48,-37,-5
-21,-11,18,-25,-7,66,19,20,-52,-28
6,43,43,7,10,30,7,0,-49,-23
43,93,69,36,21,18,-10,-27,-40,-1
45,105,85,63,26,15,-16,-39,-30,-6
-16,67,73,77,27,16,-16,-51,-48,-26
-31,39,78,53,8,-5,-23,-70,-69,-21
-16,1,51,40,-13,-25,-28,-63,-66,-4
-41,-47,25,36,-33,-28,-26,-57,-44,23
-56,-90,4,23,-25,-10,-28,-58,-37,56
-31,-90,-4,3,-18,30,-36,-58,-38,49
0,-62,-10,-21,-16,59,-29,-75,-51,41
-10,-48,-7,-27,-18,50,-15,-54,-52,53
-6,-25,6,-9,-22,53,11,-31,-51,40
-5,-34,-2,4,-11,78,52,-6,-70,1
-13,-99,-39,-6,-1,79,107,46,-25,-13
34,-83,-48,0,-12,64,85,56,-4,-19
47,-39,-75,8,-9,42,18,50,6,-8
42,5,-45,-16,0,37,12,73,76,7
86,98,10,-33,-3,26,23,93,189,26
11,27,-10,-37,-23,15,26,82,143,30
-111,-95,-34,-42,-43,0,36,74,66,36
-141,-97,-5,-31,-44,1,31,63,69,61
-139,-92,3,-35,-50,-16,4,48,75,104
-123,-102,-6,-67,-68,-28,24,54,88,161
-90,-62,2,-69,-56,-6,21,59,58,137
-43,-33,24,-42,-28,11,0,58,39,81
-60,-76,-24,-25,-30,21,-3,50,5,31
-71,-76,-134,-23,-29,17,11,45,-11,-16
-44,-56,-145,-18,-39,13,52,46,-24,-47
-43,-14,-34,-7,-32,19,93,21,-39,-81
-31,16,51,-5,-17,26,69,-22,-64,-101
-18,19,37,-14,-19,7,32,-42,-93,-95
0,46,45,-22,-24,9,12,-39,-92,-89
0,36,41,-32,-33,11,14,-52,-86,-80
-28,4,40,-33,-32,-2,7,-91,-108,-49
-30,13,49,-27,-6,15,42,-129,-131,-31
-28,16,42,-14,2,35,108,-126,-136,-27
-33,12,23,-22,-4,42,141,-92,-97,-11
-39,1,19,-22,-6,9,82,-55,-44,12
-12,21,21,-16,-8,-42,-36,-11,-11,17
81,139,52,7,25,-87,-173,6,81,17
129,192,68,25,28,-141,-282,1,105,12
62,102,51,20,1,-154,-282,-20,28,-4
5,37,6,10,8,-55,-226,-32,-4,-27
-14,15,-33,2,41,79,-152,-49,-35,-25
1,14,-34,-7,57,92,-92,-53,-21,-1
9,8,-47,-14,29,51,-89,-35,-11,35
23,21,-55,-23,20,43,-94,-20,-72,31
24,32,-121,-23,26,67,-50,-2,-8,23
39,13,-160,-15,21,53,-51,3,6,31
62,-3,-67,-17,18,32,-24,18,0,34
64,-19,-29,-24,17,10,27,37,-12,18
50,-10,12,-11,25,-5,32,24,-23,0
28,-1,40,3,37,-33,7,4,-57,-31
24,1,23,-17,34,-65,23,-1,-75,-80
76,102,13,-38,23,-80,26,-16,-27,-92
64,116,-1,-41,24,-64,-8,-36,-37,-117
-34,-17,4,-29,12,-21,14,-39,-107,-127
-63,-78,5,-21,14,32,105,-5,-121,-104
-48,-103,-5,-27,19,51,122,22,-94,-78
-45,-129,-29,-40,14,50,84,35,-80,-65
-33,-125,-28,-16,19,58,108,57,-51,-42
-12,-90,-2,2,39,69,119,74,-22,-37
1,-65,16,12,42,59,110,49,-12,-37
-15,-81,31,26,42,31,98,17,-37,-24
-56,-90,28,27,38,11,60,-8,-37,-9
-65,-78,21,24,39,0,36,-30,-1,13
-68,-66,20,19,28,-7,21,-22,18,14
-58,-81,13,5,12,-31,-11,17,51,29
-36,-85,1,0,-6,-76,-64,37,102,59
24,-73,-2,-6,-35,-124,-105,28,130,80
43,-129,-20,-11,-48,-123,-82,-1,16,56
53,-136,-5,-9,-33,-95,-32,-9,-9,26
34,-122,5,5,-25,-72,-8,-18,10,3
-11,-111,-26,10,-21,-47,-5,-51,-42,-17
-54,-109,-51,19,-18,-27,3,-44,-55,-12
-76,-118,17,18,-8,-41,10,-41,-28,14
-25,-65,32,3,6,-41,14,-34,56,33
52,27,27,-2,12,-28,13,-11,145,24
14,-56,6,-11,-20,-37,13,-15,103,12
-61,-164,-6,-7,-34,-44,9,-11,36,13
-70,-174,-47,7,-30,-60,5,1,16,3
-60,-150,-134,14,-16,-65,8,11,25,5
-31,-114,-138,36,-3,-72,32,12,42,24
7,-82,-98,33,1,-91,38,27,72,62
43,-54,0,27,6,-98,50,48,107,112
42,-75,24,-1,-2,-77,38,75,104,139
74,-62,-12,-77,-26,-17,59,120,109,140
101,-43,-132,-124,-11,38,135,161,150,129
54,-52,-133,-27,18,0,111,130,123,64
-13,-58,8,106,0,-61,54,59,40,-17
-16,-45,31,89,-12,-39,51,73,46,-9
-13,-46,0,40,-29,-7,80,109,84,11
-11,-40,-30,2,-49,1,60,76,62,2
-11,22,2,22,-32,33,41,-8,6,-4
-25,63,48,68,-3,80,90,-57,-39,-35
-50,58,-8,69,16,103,135,-76,-56,-66
-55,45,-33,57,29,112,126,-82,-71,-70
-29,47,33,37,18,67,57,-109,-87,-50
32,94,31,37,24,1,-95,-133,-94,-17
170,257,99,64,67,-75,-224,-117,19,40
203,276,133,75,67,-126,-238,-87,55,95
82,135,106,65,34,-107,-182,-84,-41,134
24,70,68,37,15,-56,-99,-52,-62,151
6,53,40,23,19,-21,-50,-23,-28,158
15,65,37,40,34,-14,-34,-29,-7,116
13,69,37,38,27,-16,-42,-40,6,54
32,82,24,14,7,-23,-39,-25,44,0
16,58,0,-2,-21,-28,-13,-19,59,-38
-1,36,-3,-26,-40,-37,-20,10,94,-14
-1,35,0,-33,-40,-36,-11,42,137,48
-14,44,24,-21,-40,-17,8,65,147,105
-43,51,39,0,-39,-5,26,93,140,139
-63,68,43,4,-48,-3,31,96,132,130
-62,92,27,-17,-53,4,19,85,149,93
-14,169,0,-36,-36,23,-2,48,177,33
-28,108,-44,10,-3,50,-19,-14,75,-19
-43,65,-86,34,20,42,-29,-61,-21,-35
-21,60,3,29,23,31,-27,-82,-60,-33
-1,57,38,38,24,37,-2,-85,-104,-36
6,51,60,50,24,32,1,-73,-135,-51
8,28,36,58,34,42,-29,-62,-135,-51
60,65,-59,57,58,67,-39,-38,-58,-26
41,32,-84,61,51,70,-44,-17,-56,-7
-13,-40,-72,12,0,46,-15,-14,-111,-43
-52,-101,-23,-34,-39,46,49,-9,-176,-85
-50,-82,8,-12,-25,55,34,0,-171,-85
-25,-58,0,5,-8,49,5,11,-124,-79
-28,-67,-28,-10,-8,34,-1,24,-86,-97
-23,-54,-21,-10,0,40,0,31,-53,-115
-15,-22,29,-14,4,43,-6,21,-28,-115
-28,-24,43,-7,5,16,-21,-20,-27,-92
-20,-10,23,6,8,4,-31,-34,-6,-80
-3,-9,68,7,10,-3,-10,-5,32,-73
11,-21,54,1,18,-43,7,19,53,-31
20,-37,2,1,13,-75,-14,11,29,-13
15,-22,-33,16,17,-96,-25,-7,5,-5
69,86,67,29,28,-125,-29,-20,40,-16
112,176,111,25,35,-114,-13,-21,87,-37
55,89,110,25,30,-94,0,-40,7,-63
-42,-26,83,28,19,-41,28,-56,-78,-90
-93,-70,46,4,16,69,37,-52,-80,-93
-50,-47,44,-5,14,96,12,-25,-64,-49
5,-1,60,15,18,50,7,4,-24,7
17,28,56,12,6,30,3,21,-1,12
5,37,36,0,-11,14,0,26,7,-12
-18,15,25,12,-17,-3,3,18,-8,-28
-6,37,24,21,-13,-12,-3,-6,-22,-45
22,52,25,4,-5,-14,3,-17,-19,-35
20,40,-27,-5,-3,-16,35,-27,-26,-13
11,43,-106,2,2,-28,51,-25,-16,6
24,84,-24,11,19,-29,31,-19,-1,15
69,132,50,19,39,-15,10,-7,14,27
64,112,78,30,45,-13,2,-4,-15,66
62,106,84,38,48,-9,-5,-8,-25,98
51,93,61,22,33,-7,1,-13,-16,93
33,56,-20,11,32,12,33,-3,-9,54
5,16,-6,-7,10,22,80,11,-6,6
-23,0,-8,-25,-27,15,106,25,-4,-25
-17,59,-7,-33,-28,31,122,30,33,-59
61,223,47,-13,4,58,119,36,95,-91
30,166,27,-24,-1,47,133,33,69,-99
-74,-7,-21,-25,-27,44,101,12,-19,-99
-87,-33,-3,0,2,57,-10,-6,-47,-98
-65,-27,11,20,42,21,-172,2,-23,-54
-9,-16,3,16,46,-59,-302,8,9,-2
28,-19,-12,-3,29,-70,-278,-1,37,20
48,18,-16,-17,18,6,-150,-14,25,-5
27,24,0,-12,15,79,-2,15,22,-3
9,8,12,10,23,88,15,58,60,39
26,-31,5,12,21,47,-26,65,67,44
51,-75,-34,-10,-3,13,-40,55,46,46
65,-100,-60,-39,-32,-4,-45,38,11,28
44,-99,-74,-66,-45,-19,-39,7,-27,44
34,-30,-50,-52,-46,-23,-46,-1,-43,72
45,47,-35,-44,-32,-7,-43,-14,0,125
-50,-26,-48,-32,-29,13,-17,-43,-48,143
-94,-83,-70,-12,-35,31,11,-56,-62,96
-84,-81,-60,2,-37,30,31,-51,-65,49
-58,-48,0,11,-27,41,24,-45,-82,-28
-34,-38,8,10,-25,49,19,-25,-58,-70
-15,-24,-4,18,-16,53,23,0,-35,-87
45,61,14,25,0,41,17,23,22,-68
25,50,12,26,-2,14,16,33,10,-37
7,40,15,31,-7,12,9,28,-8,-21
16,65,18,41,0,19,18,24,-14,-7
10,60,25,45,3,17,16,19,-14,2
8,51,25,46,9,11,8,28,7,25
23,38,19,45,29,2,7,45,32,49
39,62,13,37,24,-14,10,51,37,63
29,51,0,31,10,-14,43,43,52,69
-3,11,-16,17,9,-2,45,42,59,77
-8,-4,-29,5,5,-13,32,40,60,74
-9,-18,-38,-3,-7,-18,28,28,54,65
-18,-6,-31,-6,-10,-20,9,8,41,64
-46,7,-28,-17,-17,-22,-14,10,37,61
-48,-12,-121,-36,-14,-19,-2,13,59,51
9,71,-167,-37,9,-19,-8,20,119,65
34,126,-73,-42,25,-20,-13,10,132,69
-33,21,-16,-22,16,-21,-5,-10,41,45
-50,-27,-76,0,7,-37,-14,-36,14,37
-39,-32,0,-9,6,-43,-19,-29,33,39
-41,-28,45,3,20,-49,-16,-23,24,34
-33,-22,49,10,36,-33,-6,-15,28,17
-24,-33,35,-3,34,-19,2,7,53,19
-26,-49,30,-5,16,-24,3,17,63,34
-41,-80,11,0,4,-21,-3,15,48,22
-50,-95,-3,-7,5,-9,-4,14,60,31
-63,-104,-28,-29,-13,-3,-11,34,91,59
-62,-107,-37,-31,-31,-6,-16,34,123,61
-42,-117,-48,-47,-41,-12,-18,35,133,76
-16,-102,-55,-70,-41,0,-3,33,128,108
22,-59,-53,-67,-25,18,7,18,113,113
-4,-81,-43,-50,-18,16,1,7,44,69
-15,-74,-35,-43,-13,10,22,10,-9,18
-1,-58,-21,-36,-17,-12,13,12,-35,-27
-2,-63,-32,-32,-21,0,5,-2,-59,-81
3,-55,-10,-12,13,40,6,-27,-90,-106
21,-35,52,17,51,63,0,-55,-113,-86
69,35,57,22,59,53,-7,-39,-80,-71
144,142,16,6,67,49,-5,-9,-7,-77
110,76,-31,3,50,52,1,-10,-42,-88
23,-61,43,11,15,38,-8,-27,-111,-95
5,-73,57,25,1,23,-24,-45,-125,-109
-4,-67,51,28,20,34,-19,-60,-134,-128
0,-85,58,28,35,42,-12,-50,-125,-137
3,-110,41,8,28,41,14,-30,-104,-118
10,-97,29,-1,17,55,29,11,-84,-104
-7,-137,11,2,-10,66,30,37,-92,-106
-17,-162,-5,-10,-29,56,21,43,-78,-110
-27,-171,-21,-26,-41,38,19,58,-45,-90
-31,-158,-49,-26,-41,33,11,72,-10,-77
-15,-138,-29,-27,-51,10,0,55,2,-67
-15,-121,-4,-18,-54,-16,-1,33,13,-53
51,-33,22,-9,-11,-14,20,-8,34,-25
131,64,29,9,19,15,47,-58,67,-5
5,-43,-8,6,-21,2,45,-84,-34,-38
-62,-92,-114,-18,-55,-4,39,-78,-103,-83
-44,-85,-136,-35,-76,9,47,-69,-113,-84
-46,-83,-28,-24,-56,53,68,-70,-101,-58
-30,-49,11,18,-3,95,84,-66,-68,-10
23,14,41,40,33,124,78,-32,-28,37
74,68,38,31,20,118,42,7,35,54
41,-3,31,33,-11,51,-65,8,7,80
72,18,66,59,-20,-45,-183,38,26,116
63,36,54,48,-38,-83,-176,38,27,96
-26,-45,-71,-22,-80,1,-46,-12,-26,28
-96,-112,-192,-50,-79,101,32,-21,-44,21
-104,-149,-112,-50,-42,131,102,27,-23,82
-69,-142,-37,-25,-1,106,78,48,-2,153
-52,-147,-24,-1,-1,42,-3,33,-8,131
-34,-147,-31,2,-4,0,-66,-3,-35,76
-18,-126,-38,-5,0,-30,-89,-18,-29,43
-10,-88,-41,-15,-10,-59,-129,-29,-1,20
-9,-33,-23,18,-1,-76,-133,-35,5,3
-8,8,4,32,7,-77,-101,-29,4,21
19,75,31,28,26,-51,-69,-22,8,41
73,122,-11,14,57,9,-24,-4,96,80
97,152,5,3,40,-50,-10,0,109,80
53,96,7,-6,7,-58,-7,-17,1,17
13,61,-9,-8,5,8,-5,-24,-52,-52
-13,57,-2,-14,8,66,4,-29,-78,-96
-21,48,-11,-28,18,85,38,-36,-92,-111
-2,47,-43,-31,31,49,116,-18,-86,-119
55,119,-7,-11,20,-67,186,1,-50,-96
58,154,21,13,1,-119,195,8,-38,-65
19,141,4,7,-12,-76,170,8,-45,-61
19,133,-22,-21,-33,-48,138,28,-19,-38
29,129,-35,-72,-31,-11,115,66,21,10
48,138,-20,-134,6,17,79,86,61,57
51,166,30,-33,44,-64,-44,64,75,73
48,173,81,121,21,-186,-168,-1,40,52
58,172,51,87,11,-131,-130,-19,27,31
45,115,13,32,0,-61,-53,-20,10,22
36,106,13,46,-19,-48,-29,-20,4,6
23,86,12,45,-25,-32,-20,-29,-1,-28
8,56,-4,22,-27,-12,-15,-23,15,-39
0,51,4,4,-23,-6,-9,11,43,-27
14,41,8,4,-3,14,-23,33,50,-10
53,87,-60,13,21,21,-28,30,81,-12
129,186,-75,40,47,21,-14,22,115,-14
103,105,0,53,47,11,9,4,72,7
68,-31,28,34,26,-8,1,-14,36,24
101,-43,-40,19,15,-11,-5,-9,35,14
98,-16,33,3,-6,17,-6,-20,14,2
65,43,69,2,-26,38,12,-12,20,5
59,97,9,16,-12,36,17,23,83,27
44,96,-35,20,12,38,-15,44,134,37
-1,60,33,24,21,23,-14,58,144,60
-3,36,82,8,4,-8,-11,57,151,88
9,5,64,-25,-20,9,-23,31,133,71
4,-18,15,-53,-16,45,-49,2,79,56
12,-27,9,-53,-12,41,-68,-22,4,46
14,-33,36,-54,-31,28,-16,-43,-57,19
98,31,47,-66,-25,59,89,-41,-7,23
171,101,41,-68,-23,63,78,-37,38,35
59,-18,5,-79,-57,31,17,-54,-73,5
14,-55,-6,-82,-62,20,-25,-63,-106,-33
3,39,1,-77,-57,-5,-28,-24,-81,-16
17,160,4,-63,-45,-17,-23,27,-48,25
17,88,7,-53,-43,-30,-20,58,-36,34
4,33,6,-36,-30,-29,8,91,16,28
42,91,16,-12,4,-26,44,105,92,23
-4,24,44,5,13,-24,74,70,42,7
-32,-17,38,5,32,2,65,4,-13,-32
-24,-29,37,14,39,12,-3,-88,-85,-58
-19,-37,31,19,22,4,-27,-106,-109,-58
-39,-56,0,-7,-16,4,6,-55,-123,-81
-79,-78,-72,-30,-36,5,17,-40,-112,-89
-74,-75,-63,-55,-44,5,43,-55,-61,-66
-85,-98,-34,-62,-61,11,92,-57,-33,-41
-92,-120,-57,-61,-49,49,97,-56,-56,-52
-81,-112,-53,-42,-17,65,42,-41,-30,-38
-35,-87,-21,6,11,19,-38,2,25,28
13,-70,80,65,58,-60,-158,42,69,104
33,-100,115,100,96,-109,-209,57,98,161
-13,-181,67,76,101,-27,-119,62,80,131
-16,-190,2,21,91,39,-5,54,114,56
-52,-231,-16,14,67,9,13,46,116,21
-127,-304,0,18,18,-32,-4,29,35,1
-123,-257,27,0,-16,-52,-50,-9,-22,-16
-83,-164,21,-24,-22,-35,-103,-77,-94,-43
-29,83,45,-6,1,23,-70,-86,-108,-25
39,416,60,52,65,91,-22,-45,-50,31
82,387,21,72,96,88,-131,-27,-2,50
65,182,-40,33,69,17,-244,-43,-24,18
49,112,-55,7,34,-46,-285,-61,-62,2
69,164,38,20,25,-25,-281,-74,-52,-1
26,237,141,28,12,-37,-57,-34,-43,-22
-56,123,82,-6,-26,-34,246,43,-42,-29
-89,10,-55,-16,-23,15,324,81,-13,8
-96,-38,-105,-45,-14,44,190,50,0,3
-101,-33,-34,-65,-10,59,123,22,3,2
-143,-63,-5,-49,-1,73,103,18,-13,15
-163,-36,42,-7,11,44,108,23,-25,-20
-125,10,69,11,-18,-83,97,27,-34,-22
-53,10,59,-18,-64,-159,42,35,-20,21
-28,-22,16,-38,-80,-109,33,15,-19,63
-22,-29,-8,-46,-58,-71,53,4,-12,63
20,37,-6,-51,-36,-39,95,-17,27,28
58,101,10,-44,-22,-3,136,-49,57,-5
14,59,21,-20,-6,45,192,-80,-14,-47
-21,-5,13,-13,-25,72,210,-74,-58,-83
-23,-53,-3,-24,-54,74,155,-44,-49,-115
-35,-123,-8,-24,-42,89,81,-9,-55,-127
-39,-184,-6,-13,-10,117,3,-9,-61,-130
-24,-218,-8,8,13,121,-55,-15,-59,-117
16,-224,8,44,22,64,-106,-4,-26,-92
13,-256,25,63,17,12,-190,-29,-26,-72
9,-233,26,45,-2,5,-227,-56,-42,-68
29,74,61,26,-20,-35,-197,-60,-35,-49
55,506,109,34,-27,-60,-156,-17,-21,-20
57,416,70,51,-32,-50,-106,34,-9,-43
37,169,-75,15,-49,-29,-73,69,5,-77
69,170,-64,-41,-64,-13,-32,113,70,-96
48,153,-9,-50,-61,-18,3,155,102,-95
-71,-13,-20,-52,-91,-43,-6,198,-1,-84
-93,-61,-34,-69,-121,-95,-45,241,1,-68
-92,-71,-47,-106,-159,-125,-99,256,44,-36
-73,-70,-54,-123,-190,-118,-182,262,88,-7
-44,-76,-46,-119,-208,-134,-257,314,163,19
-19,-74,-77,-117,-213,-173,-273,388,286,18
-1,-21,-79,-121,-181,-122,-220,311,283,-15
-4,0,2,-36,-49,25,-153,-25,67,-46
45,73,51,24,48,100,-96,-385,-77,0
97,119,77,43,73,61,-34,-571,-113,85
159,157,121,85,100,0,43,-617,-101,160
163,144,97,75,80,1,272,-431,-52,162
139,78,2,62,36,20,429,-98,39,160
120,26,-59,128,69,101,412,157,117,151
37,-69,-104,154,70,162,247,183,112,97
-13,-118,-115,122,7,142,121,138,88,66
-37,-153,-134,89,-3,135,45,156,107,31
-43,-146,-105,86,53,164,-25,141,102,-5
-40,-115,-60,82,69,158,-190,-79,5,-41
-21,-62,-9,132,132,222,-326,-348,-140,-82
22,10,21,156,155,234,-359,-465,-211,-108
98,137,50,157,159,284,-220,-461,-166,-99
148,223,128,210,208,364,260,-407,-125,-12
142,209,162,251,217,285,700,-271,-116,59
88,146,85,167,152,218,458,-213,-119,29
51,107,11,76,64,233,279,-174,-89,16
59,80,19,62,47,184,198,-91,-7,46
51,28,37,69,82,139,87,-5,77,60
64,6,35,94,120,125,-59,31,114,59
33,-66,-81,78,90,86,-160,5,68,29
-44,-183,-196,-17,24,114,-99,-33,-19,-36
-95,-265,-153,-59,32,189,-13,-38,-82,-69
-127,-287,-121,-67,47,189,63,-33,-122,-100
-140,-287,-154,-78,16,115,199,4,-121,-107
-137,-292,-91,-88,-10,30,220,14,-130,-96
-129,-195,-42,-80,-41,-14,149,0,-129,-107
-142,-47,-29,-84,-58,33,23,-43,-151,-147
-150,-26,-63,-84,-29,152,-48,-32,-159,-137
-140,-80,-136,-61,8,244,7,39,-104,-78
-107,-100,-56,-32,4,253,102,83,-48,-17
-52,-45,12,-9,3,179,29,79,-4,52
-25,40,21,4,13,65,-129,57,30,89
-32,-15,-32,7,18,15,-185,27,43,105
18,-67,-81,0,17,0,-151,11,93,105
49,-129,-21,-16,15,-5,-137,2,93,73
-48,-256,0,-55,-26,-77,-138,-30,-31,37
-84,-117,-23,-97,-99,-201,-178,-45,-94,33
-22,208,-111,-137,-128,-268,-179,-47,-84,38
-8,122,-114,-175,-134,-215,-143,-86,-83,15
-70,-111,-76,-174,-115,100,-66,-104,-100,-22
-69,-94,-23,-148,-79,461,22,-14,-28,-13
-45,150,45,-104,-44,575,29,39,41,12
-81,340,77,-60,-13,444,-50,-2,11,0
-130,178,56,-46,18,346,-77,-8,0,-6
-142,-11,-17,-68,32,255,-22,55,27,20
-56,-48,-26,-53,18,-91,64,172,84,86
0,-132,-30,5,23,-222,153,235,90,118
7,-258,-58,77,57,-312,175,233,83,124
50,-331,52,134,90,-347,177,224,150,125
4,-533,58,107,43,-211,183,181,137,84
-79,-695,10,57,-30,-200,136,120,26,53
-94,-433,11,8,-82,-254,51,63,-12,36
-99,-127,-44,-96,-172,-279,-67,-43,-81,21
-52,326,-87,-149,-181,-274,-156,-80,-107,86
37,623,22,-106,-159,-371,-200,-54,-74,221
80,779,138,-65,-149,-415,-213,-43,-26,243
47,874,181,-60,-113,-307,-207,-38,0,152
-32,562,192,-33,-80,-195,-154,-34,-14,30
-55,327,106,-30,-54,-107,-82,-10,12,-32
-28,110,-70,-62,-53,-49,-26,35,51,-4
34,42,-116,-76,-59,-32,-10,81,97,59
36,-85,-101,-44,-70,0,-28,77,84,72
-16,-256,-9,1,-36,58,-18,49,30,10
-41,-138,32,34,-3,58,-16,17,-1,-50
-27,101,50,78,30,-12,0,36,12,-16
13,39,95,134,70,-115,2,70,42,53
-2,-180,67,114,51,-156,-41,28,-5,41
-16,-146,28,67,29,-147,-109,-34,-67,-26
9,209,68,80,34,-138,-112,-47,-72,-55
35,362,86,83,26,-146,-84,-28,-59,-56
100,326,74,67,14,-106,22,24,1,-45
182,248,64,54,36,-33,87,89,126,-19
151,18,28,45,61,58,105,110,110,8
31,-171,-15,20,38,80,126,74,-2,-31
0,16,-12,-4,-9,0,104,63,-30,-66
-8,315,-4,-11,3,79,134,57,-18,-56
8,233,-31,-1,34,84,90,-6,-20,-8
71,171,-81,16,21,-17,44,-110,-69,23
75,188,-21,15,7,-57,79,-87,-92,-15
25,106,-10,-10,-11,-92,122,-10,-95,-53
8,57,-72,-25,-13,-94,172,54,-91,-40
0,20,-38,-54,-34,-56,171,97,-66,-17
8,1,-5,-55,-70,-31,152,137,-5,0
5,-21,10,-23,-86,46,65,146,36,-21
41,-19,60,22,-81,72,-159,54,34,-22
72,3,72,50,12,119,-327,-73,49,-14
70,-43,25,36,63,68,-450,-119,60,-20
17,-170,-70,-41,6,-64,-498,-134,32,-60
-63,-270,-103,-68,-11,-217,-570,-145,-52,-130
-67,-270,-47,-41,-27,-323,-575,-60,-119,-149
6,-97,47,9,-13,-341,-146,101,-49,-73
105,283,84,59,17,-257,278,274,89,50
151,410,130,55,-7,-151,27,300,140,101
206,326,161,24,-47,-165,-96,306,254,123
92,153,54,-24,-17,-85,-18,210,221,44
-112,-78,-6,12,119,61,48,-62,26,-50
-45,-10,125,133,152,-81,-43,-400,-87,10
43,99,214,165,116,-159,-30,-503,-145,41
35,104,152,96,37,-135,8,-392,-135,20
-21,104,97,-5,-79,-206,-25,-95,-83,-28
-65,135,117,-51,-103,-201,58,132,-24,-92
-38,202,102,-46,-86,-208,89,211,26,-80
1,215,59,-94,-99,-177,93,172,19,-36
78,199,-25,-161,-118,-111,69,74,18,8
112,79,-96,-149,-34,-29,87,-101,11,31
69,-45,-132,14,73,11,110,-395,-90,0
32,-162,-49,126,116,70,131,-462,-154,-16
19,-259,-61,80,103,123,138,-311,-98,-10
58,-211,-133,23,1,105,73,-186,3,0
47,-225,-62,9,-91,97,-24,-122,5,13
2,-462,-38,10,-104,205,-80,-125,-47,3
-22,-661,-99,21,-94,226,-81,-130,-83,12
-55,-800,-80,43,-38,211,-83,-104,-95,25
-132,-987,-117,74,129,257,-100,-67,-86,0
-185,-1077,-103,64,252,339,-142,-40,-80,-44
-98,-786,-16,-26,80,87,-257,-97,-87,-95
-12,15,70,-87,-93,-241,-148,-134,-136,-115
-73,1038,77,-68,-9,173,288,-34,-123,-94
-139,768,-16,-37,104,528,305,1,-104,-100
-120,341,-4,-29,83,443,157,5,-116,-88
-99,372,13,-42,31,316,141,-19,-129,-88
-119,193,-43,-50,0,163,95,-104,-156,-103
-117,36,-129,-97,-54,123,-12,-205,-184,-128
-122,-66,-132,-203,-123,258,-52,-268,-158,-152
-186,-116,-162,-289,-190,-5,-111,-260,-171,-153
-200,-107,-115,-298,-254,-619,-170,-125,-102,-83
-202,-321,-145,-289,-60,-447,-69,77,41,16
-90,-422,-87,-178,347,641,126,338,233,191
127,-158,129,84,129,38,94,550,455,393
206,182,267,142,-415,-1253,-140,455,514,422
88,-43,143,5,-517,-1400,-304,196,356,232
-98,-573,-86,-42,-463,-1490,-354,14,166,-35
-192,-558,-199,35,-360,-1753,-139,-38,22,-127
-173,22,-155,74,-219,-1829,256,-46,-75,-133
-120,269,-108,-41,-211,-1946,-14,-135,-147,-156
-221,291,-236,-241,-171,-1899,-322,-243,-286,-249
-329,243,-493,-380,43,-1531,-374,-325,-416,-373
-222,250,-604,-385,43,-1302,-264,-293,-432,-332
8,468,-252,-188,28,-1043,44,-134,-277,-111
215,626,366,137,145,-1355,541,95,4,140
414,728,744,438,239,-2150,1046,368,319,383
439,613,685,427,141,-2555,833,471,449,430
262,390,348,202,47,-2133,578,350,318,233
148,227,142,96,0,-1784,485,264,212,98
130,42,37,95,19,-1608,358,262,196,93
128,-32,23,116,76,-1455,147,244,195,113
99,-51,10,66,77,-1395,-50,188,99,92
48,-32,44,51,94,-1354,-227,141,3,69
-9,-21,86,71,106,-1234,-335,65,-59,16
-49,-114,49,51,119,-1087,-317,-8,-110,-44
-64,-141,17,56,123,-993,-308,-79,-147,-70
-44,46,19,13,2,-1126,-357,-151,-197,-113
-114,114,-47,-108,-152,-1055,-264,-195,-284,-236
-177,-24,-197,-241,-197,-878,-82,-244,-271,-353
-195,-306,-234,-235,-138,-1070,-3,-284,-258,-364
-237,-673,-225,-157,-115,-1413,144,-250,-276,-282
-223,-915,-139,-10,23,-819,551,-109,-185,-168
-191,-895,159,102,138,-408,614,-40,-130,-132
-133,-457,397,135,168,-509,308,-41,-101,-111
16,128,441,135,84,-931,49,67,40,25
120,639,234,89,-26,-853,-109,64,117,108
176,654,33,44,-103,-886,-323,20,149,190
85,136,-312,-76,-178,-1262,-350,-10,118,173
-211,-364,-679,-226,-150,-690,453,-105,-79,-123
-355,-600,-604,-277,-108,268,1341,-147,-225,-287
-234,-594,-251,-170,7,729,1426,-41,-161,-191
-1,-348,-39,-28,101,538,900,53,-47,-9
23,-191,-75,3,121,188,339,51,-43,-30
-36,53,-126,-12,82,-174,-338,15,-9,-56
42,592,-56,77,81,-649,-640,132,110,92
268,728,25,239,156,-848,-239,307,312,314
303,481,63,257,146,-696,-75,247,321,352
237,334,55,201,118,-361,-367,6,224,281
283,293,104,193,97,-131,-432,-81,241,341
175,69,34,127,130,-48,-411,-82,163,265
133,79,-61,52,143,-134,-289,2,151,166
250,322,79,74,31,-386,-329,72,185,163
230,262,172,53,-127,-417,-503,-52,21,100
150,95,150,24,-182,-301,-578,-134,-54,39
69,-223,15,16,-121,-165,-419,-115,11,53
-45,-587,-200,-56,-92,-107,-373,-247,-44,-3
-193,-837,-363,-151,-59,24,65,-345,-169,-132
-193,-740,-331,-206,-81,319,543,-163,-111,-137
-131,-48,-120,-219,-116,321,631,172,64,-63
-43,741,198,-102,-8,333,853,477,216,77
55,464,153,-32,60,584,1227,734,408,239
36,38,-141,-94,68,792,908,832,467,282
127,75,-69,-74,103,645,142,843,550,363
203,173,93,-38,69,323,-465,690,497,393
156,127,116,-1,128,211,-803,382,330,274
108,103,149,153,164,-1,-790,81,253,110
102,168,202,269,147,1,-575,-327,89,-24
44,91,194,244,164,259,-282,-627,-139,-114
59,102,211,217,138,294,-180,-630,-234,-118
130,203,224,151,11,184,-415,-415,-260,-85
145,228,208,94,-114,38,-679,-148,-248,-78
53,101,143,37,-212,-86,-752,-29,-301,-141
-5,-13,95,16,-176,-115,-996,14,-272,-160
93,110,141,29,-100,-172,-1407,-47,-251,-89
72,112,63,17,-53,-15,-1167,-61,-277,-95
-27,-34,-43,-15,-24,384,-349,-30,-221,-153
-213,-239,-159,-112,-59,687,-160,-281,-302,-305
-331,-307,-200,-166,-45,799,-545,-845,-576,-455
-280,-263,-137,-95,58,791,-225,-1081,-672,-412
-347,-369,-234,-148,-19,538,956,-742,-613,-446
-238,-331,-174,-135,-82,329,1378,-119,-314,-304
87,-100,161,74,54,452,865,332,22,35
130,-94,235,108,8,173,219,400,0,30
-100,-244,94,-1,-173,294,-43,196,-256,-259
-170,46,119,-12,-337,473,-613,-134,-341,-365
-152,540,147,-61,-535,-6,-1244,-439,-402,-419
-214,449,58,-173,-639,-521,-1293,-448,-402,-488
-204,331,-5,-136,-255,-157,-313,72,-140,-386
-42,498,21,15,501,1209,793,508,181,-199
275,633,145,167,728,1208,602,509,467,186
358,443,166,196,473,868,265,276,471,370
155,32,-22,64,238,616,322,-110,230,187
-77,-393,-243,-28,178,510,251,-303,79,-6
-181,-612,-323,-11,232,714,418,-273,47,-32
-125,-693,-286,39,293,1026,532,-231,74,102
4,-646,-209,65,249,708,658,-86,181,251
112,-520,-177,23,100,54,1282,117,236,309
61,-369,-177,-98,-147,-209,1242,19,106,178
-113,-187,-158,-185,-193,-43,814,-158,-69,-69
-169,-17,-28,-192,96,603,513,-205,-125,-164
-53,418,149,-205,261,1112,588,22,-6,-62
-201,360,-25,-313,-261,1005,764,192,-68,-188
-493,-363,-344,-253,-445,974,518,133,-212,-423
-446,-418,-299,-75,-170,835,16,227,-63,-312
-139,-57,30,213,166,613,93,478,187,38
129,166,117,397,696,1106,157,293,274,246
299,367,100,338,693,847,-179,77,252,310
470,592,161,79,-142,-498,-793,-37,225,355
305,302,383,-203,-762,-942,-948,-266,9,135
25,-176,738,-286,-728,-640,-530,-326,-181,-120
-131,-224,948,-214,-234,-33,-325,-256,-216,-337
-321,-260,875,-10,199,729,-311,-301,-316,-532
-374,-626,487,285,338,974,-257,-380,-416,-480
239,-245,345,547,277,207,-175,-43,24,118
658,484,8,569,23,-489,-58,391,493,584
507,159,-284,379,-92,-721,-135,488,546,555
384,410,67,255,-19,-771,-536,314,422,433
356,1416,300,111,53,-232,-908,54,253,306
325,1237,-152,65,181,360,-605,73,274,300
113,-83,-811,42,306,632,67,67,199,190
-82,-705,-729,3,241,493,182,-89,22,32
-73,-757,-449,-26,57,93,9,-157,-13,33
25,-524,-224,-8,-41,-106,-211,-154,35,87
9,-90,-154,-30,-8,301,-186,-159,12,12
-16,390,-193,-169,-27,699,-50,-147,-24,-90
28,419,-408,-336,-108,706,20,-92,-43,-160
28,360,-523,-333,-4,769,-138,-85,13,-121
-58,306,-328,-153,129,800,340,70,68,-33
-147,-134,9,4,211,1130,1490,360,129,-11
-34,-441,367,174,265,871,1641,645,315,158
154,-538,319,269,187,-368,984,903,532,366
-10,-793,-98,158,12,-975,-47,737,428,232
-32,-796,-232,66,-50,-957,-677,406,302,174
124,-235,-13,-101,-41,-571,363,328,367,275
162,347,91,-341,-137,-269,1022,233,368,294
104,279,-259,-362,-192,-197,542,-87,247,248
-82,-186,-534,-165,-388,-285,993,-631,-62,-3
-289,-491,-582,-119,-437,-2,1591,-843,-299,-263
-355,-279,-420,-37,-4,661,2327,-611,-311,-348
-189,330,-125,104,362,880,2581,-156,-91,-207
108,726,253,224,331,447,1376,-14,178,94
228,468,523,203,5,-359,109,-170,242,279
106,18,299,82,-203,-532,-272,-283,153,206
-73,-219,-65,-64,-211,270,299,-269,36,31
30,-25,-17,15,-92,919,1381,-134,83,58
143,159,210,201,188,815,1302,-92,78,110
128,85,165,99,360,716,62,-163,58,141
118,20,65,19,557,756,-665,-299,77,143
34,-11,18,197,602,116,-792,-521,-31,-10
-66,-104,29,215,150,-739,-884,-644,-161,-111
-101,-146,52,112,-83,-764,-1091,-692,-243,-122
102,67,159,231,56,-292,-799,-491,-30,122
205,186,292,322,206,-108,-534,-284,167,299
153,140,253,279,219,-143,-149,-205,200,279
76,95,170,218,220,-38,8,-71,186,199
0,90,129,148,170,-82,-710,-198,61,68
159,350,212,218,120,-292,-1040,-152,111,191
243,410,195,206,33,-258,-59,207,259,293
200,176,148,123,-90,-250,691,449,313,295
252,100,196,103,-167,-356,264,397,333,344
149,-8,118,11,-207,-319,-12,233,203,231
-4,-237,-66,-127,-135,22,249,28,29,103
-42,-458,-224,-222,-70,322,522,-12,-8,71
-81,-661,-217,-190,-24,431,423,-26,-63,45
-203,-692,-116,-151,-45,313,4,-102,-218,-39
-212,-489,-32,-83,-60,224,-244,-85,-216,-42
-96,-505,-46,40,34,281,-243,26,-48,101
38,-1006,108,168,106,320,-377,120,41,194
136,-1001,493,270,104,245,-761,37,-45,145
262,-211,583,304,187,291,-739,-57,-71,148
430,671,385,172,144,292,-545,47,86,226
286,174,49,-22,-65,137,-567,71,74,123
-43,-469,-338,-276,-288,22,-679,-107,-163,-138
-78,1486,-309,-335,-368,-52,-694,-256,-306,-319
38,2739,23,-147,-253,-51,-607,-208,-243,-241
121,1441,113,-22,-160,-61,-550,-169,-201,-103
56,666,165,40,-112,-79,-518,-310,-368,-188
-158,383,185,-80,-175,9,-656,-409,-594,-412
-396,165,104,-372,-346,238,-818,-333,-704,-600
-518,200,266,-541,-312,953,-8,-260,-765,-685
-704,34,262,-588,-180,1523,1081,-310,-944,-860
-630,-32,232,-457,-68,1436,839,-142,-818,-737
-266,509,346,-118,96,1223,267,396,-278,-309
261,1704,690,373,183,118,-311,845,308,167
561,2216,788,738,189,-1078,-596,1068,574,385
567,1270,286,515,90,-1147,-379,1299,635,358
299,-248,-334,18,-184,-824,-433,1233,622,201
-156,-1249,-766,-264,-287,-406,-629,899,390,-29
-281,-1161,-825,-287,-266,-374,-565,677,262,-10
-29,-608,-705,-295,-295,-403,-415,504,208,147
-32,-499,-500,-267,-234,-67,-9,254,-25,12
-373,-707,-473,-246,-65,576,611,-260,-498,-387
-437,-792,-477,-201,26,899,1093,-734,-592,-408
-494,-849,-469,-205,64,936,1783,-1015,-662,-430
-651,-904,-595,-304,130,859,1804,-1073,-827,-613
-441,-709,-558,-390,70,933,1060,-884,-626,-440
-276,-632,-564,-489,75,1123,441,-514,-314,-226
-193,-539,-364,-247,473,1541,116,-65,-74,-97
35,-137,95,347,472,848,-79,173,127,98
374,264,449,579,184,-345,-526,300,370,397
334,251,359,326,245,49,-1021,196,286,320
-61,-107,-41,-43,101,1264,-908,-130,-134,-85
-420,-466,-358,-239,-447,1410,-1370,-487,-516,-467
-772,-802,-618,-406,-320,1024,-1619,-621,-730,-769
-857,-975,-720,-327,224,1752,-321,-400,-654,-766
-450,-782,-451,-189,352,2024,1372,80,-239,-373
329,-302,50,-77,36,-37,870,473,404,409
704,-60,320,-41,-375,-2287,-355,408,680,800
660,59,412,15,-603,-2170,-460,172,611,735
517,599,526,-187,-512,-1265,190,174,469,507
270,996,456,-237,73,-336,595,259,259,218
74,653,193,592,764,464,420,137,106,-4
306,403,143,1026,639,152,-244,43,197,183
591,548,360,932,541,-56,-630,201,444,488
739,647,535,823,478,-202,-620,432,637,695
595,458,419,607,394,-203,-496,415,579,580
373,270,369,469,334,-66,-276,238,376,362
267,239,371,392,271,28,-86,202,265,259
105,167,301,220,42,29,16,240,145,133
-5,172,311,109,-98,123,-40,115,39,2
-26,217,308,66,-74,179,-105,98,70,-38
-83,167,136,-23,-36,258,-164,72,39,-110
-100,-21,-69,-99,3,506,-132,99,89,-120
-106,-353,-250,-136,-6,471,306,411,256,-19
-64,-501,-313,-176,-58,164,536,479,259,42
109,-321,-258,-309,-234,-226,129,251,170,83
52,-368,-298,-482,-487,-91,-30,94,25,-13
-262,-435,-90,-313,-563,241,-233,-188,-287,-357
-618,-359,39,-221,-513,302,-634,-557,-633,-744
-827,-606,-284,-406,-338,760,-550,-728,-791,-904
-512,-582,-439,-415,128,1038,-393,-580,-513,-607
36,-410,-304,-361,331,364,-254,-34,67,25
460,-77,190,15,232,-1067,-220,452,553,533
670,533,612,584,243,-1713,-450,523,717,705
690,930,723,790,241,-1346,-556,343,601,658
341,397,519,439,48,-804,482,71,212,262
-41,-185,97,16,-200,-241,1086,-74,-106,-117
-181,-427,-20,-119,-173,548,1213,-181,-216,-232
-294,-560,-95,-269,-52,1510,1645,-70,-258,-310
-224,-365,-145,-395,98,1723,1552,372,-116,-196
2,-150,-117,-158,479,1323,655,592,59,19
80,-218,-208,-137,420,839,-101,421,53,61
59,-360,-384,-700,-67,370,-520,116,23,93
129,-422,-227,-1000,59,-241,-596,90,189,230
-138,-697,71,-46,206,-1255,-1188,-405,-108,-98
-261,-983,335,1136,133,-1458,-1839,-909,-345,-344
-153,-1142,194,949,168,-566,-1628,-796,-230,-175
-298,-1053,-88,271,12,1,-1399,-711,-427,-288
-448,-232,-354,-225,-63,730,-814,-390,-545,-489
-155,861,-291,-190,110,1235,975,427,-116,-168
109,674,-45,63,368,1331,1835,731,215,197
141,156,68,108,442,469,812,564,302,329
152,-101,48,58,160,-941,129,677,494,441
332,-130,423,362,-543,-2184,-147,856,652,621
313,61,674,506,-668,-2220,-559,669,474,471
149,100,752,406,-402,-1321,-665,391,194,182
156,763,1012,247,-213,-606,-554,275,14,10
215,1735,861,-3,-26,-100,-557,207,-90,-71
176,1074,72,-131,-27,0,-601,69,-69,-41
123,503,-457,-98,-250,110,-511,-431,-190,-23
99,125,-486,-46,-147,411,-274,-891,-280,65
-101,-550,-409,-71,45,348,-33,-996,-341,20
-56,-589,-31,-50,78,33,-47,-723,-226,47
133,-482,436,-11,47,-334,-427,-218,23,219
43,-811,539,-238,-81,-270,-398,124,109,221
-207,-1008,647,-408,-197,37,-532,-127,-119,-35
-313,-230,844,-51,-110,59,-811,-522,-388,-277
-21,972,863,272,-63,-29,-368,-495,-261,-176
267,921,319,210,46,165,181,-171,45,15
351,965,-307,42,163,209,423,260,208,148
284,1068,-547,-94,81,-51,367,599,261,173
124,515,-844,-171,-126,-413,197,606,279,140
69,417,-818,-156,-67,-338,-290,548,298,148
71,427,-576,-140,322,-104,-811,557,315,168
-23,-45,-639,-380,431,11,-690,531,327,138
-222,-786,-963,-835,-272,-144,-710,302,220,25
-478,-1260,-1001,-746,-1007,-920,-1586,-238,-185,-215
-395,-1055,-644,-225,-772,-855,-327,-202,-216,-179
-128,-606,-297,-12,-305,36,2628,377,109,41
-114,-510,-134,73,-52,314,2743,556,247,53
-223,-507,-46,205,264,692,1588,246,97,-110
-85,18,182,434,657,1050,551,-340,-198,-158
244,530,331,516,695,635,-132,-478,-125,59
266,494,265,370,477,252,-178,-310,2,119
84,338,202,217,278,139,-48,-241,-58,-21
-35,126,34,85,214,212,100,-133,-57,-76
-72,-96,-153,-47,141,241,328,-104,-56,-80
-176,-295,-319,-247,-56,345,999,-205,-259,-232
-410,-519,-531,-417,-54,991,1603,-186,-493,-447
-551,-593,-567,-366,92,1248,1478,-49,-619,-558
-398,-421,-462,-305,-165,115,856,283,-501,-465
-509,-606,-641,-582,-675,-678,64,361,-524,-542
-881,-1017,-1019,-1048,-950,175,-356,73,-796,-860
-772,-895,-954,-1142,-690,1316,-1052,-13,-625,-733
-296,-259,-483,-748,-99,1098,-2041,100,-122,-234
160,497,240,309,573,695,-1852,145,148,154
771,972,881,969,652,-284,-625,93,429,732
1171,1085,1042,934,358,-1584,-52,21,735,1232
1113,871,925,798,220,-1305,-264,-127,746,1198
716,395,614,580,148,-718,-161,-275,468,724
126,-231,129,234,125,145,-141,-313,132,137
-185,-567,-43,146,260,744,48,-246,-56,-148
-223,-694,63,212,397,752,201,-239,-156,-218
-110,-436,202,184,316,358,-97,-203,-125,-144
149,844,377,201,121,-199,-530,-81,59,61
334,1637,358,188,-10,-453,-826,-73,207,147
232,906,254,119,-18,-329,-642,-74,134,66
17,221,190,142,95,57,148,-22,-37,-43
-8,42,136,134,76,304,562,-35,-128,-96
-11,142,40,8,-91,333,359,-124,-185,-153
-10,79,-63,-93,-110,582,245,-97,-153,-114
-107,-204,-207,-163,-36,918,397,30,-97,-84
-288,-498,-276,-119,165,987,376,66,-118,-190
-334,-574,-220,-46,244,582,86,63,-125,-231
-350,-523,-286,-211,-38,113,-337,-19,-224,-324
-387,-343,-400,-435,-363,28,-491,-76,-315,-407
-203,180,-205,-327,-364,-570,-37,89,-125,-189
-13,198,7,-106,-269,-1171,713,305,179,109
4,-76,-27,-80,-261,-695,358,294,289,189
16,-144,-104,-141,-271,-140,-426,204,307,181
166,2,70,16,-121,86,-403,289,333,253
208,-23,171,145,118,500,640,457,318,266
153,-223,131,190,291,929,671,285,263,208
156,-295,151,234,308,775,281,127,166,144
91,-171,176,179,196,475,497,134,39,-16
27,-8,152,118,94,214,572,37,-104,-136
-37,116,137,0,-10,-183,281,-153,-223,-223
0,411,336,-82,-144,-209,224,-268,-229,-246
12,328,222,-219,-381,-48,213,-272,-200,-265
-96,-78,-23,-320,-464,418,232,-192,-238,-322
-171,-45,-40,-148,-146,1012,27,-171,-328,-355
-219,166,-210,-75,138,1154,-299,-249,-378,-353
-169,-236,-483,-25,317,597,-192,-63,-187,-142
121,-269,-441,50,308,-63,124,254,139,194
408,201,-33,198,156,-455,438,499,405,457
447,271,440,342,83,-683,348,562,501,506
179,-441,467,307,33,-867,57,444,353,294
-37,-808,101,108,-83,-618,-92,264,80,33
-337,-1225,-410,-236,-258,-372,-207,-82,-303,-308
-435,-922,-571,-456,-419,-237,-360,-335,-495,-479
-315,164,-380,-449,-553,-443,-635,-365,-471,-494
-197,1114,-199,-373,-472,-440,-915,-337,-382,-450
10,1191,-60,-160,6,560,-267,-18,-80,-226
347,942,240,156,290,255,441,402,309,199
547,706,389,308,350,-411,-198,398,453,446
490,449,272,183,381,137,-1248,96,309,425
268,171,80,54,107,306,-1000,18,134,248
37,3,-5,-49,-325,185,93,179,41,-16
-107,-105,114,-135,-389,218,460,286,0,-185
-208,63,216,-150,-217,188,284,211,-87,-307
-179,362,457,-24,19,222,353,498,36,-232
-98,128,618,149,218,314,166,873,209,3
-206,-158,341,120,347,910,-599,359,14,-82
-364,-217,78,88,344,1536,-417,-358,-380,-324
-307,-317,-119,61,231,1526,391,-508,-446,-328
-220,-747,-192,28,0,987,290,-331,-286,-209
-382,-1168,-233,-109,11,828,76,-224,-263,-267
-198,-820,-239,-323,102,685,402,-52,-55,-101
-43,-515,-283,-371,-95,177,713,30,55,52
-216,-809,-464,11,33,331,385,-121,-121,-64
19,-766,-400,440,434,-517,-516,-69,-2,84
328,-30,-217,333,204,-1950,-966,-17,142,296
412,500,-70,99,-30,-1556,-674,138,252,400
478,706,108,44,-138,-928,78,411,415,528
341,737,80,-96,-81,-515,819,435,345,371
312,1495,98,-170,181,31,296,292,276,231
266,1312,162,56,309,127,-250,149,233,258
107,562,230,491,265,-103,-393,-81,86,202
72,366,149,404,125,-284,-391,-283,24,120
147,478,313,273,10,-452,-379,-345,-6,87
204,656,406,88,-151,-546,-527,-348,-25,92
114,458,136,-176,-204,-311,-498,-144,54,80
11,158,-80,-212,-93,24,-456,184,149,44
-144,-57,-108,-105,-149,202,-446,476,134,-58
-312,-182,-259,-175,-332,83,-206,530,19,-221
-283,-131,-256,-150,-333,21,-251,305,-80,-234
-215,-61,-230,-117,-175,65,-389,89,-132,-202
-201,-79,-177,-168,-269,-663,-583,-191,-299,-210
-192,-116,-99,-122,-286,-808,135,-318,-370,-164
39,96,157,122,70,-43,2317,91,-91,88
178,-12,236,277,238,111,2443,545,217,279
-77,-517,-58,108,136,97,1031,599,189,178
-187,-503,-75,18,52,55,172,482,110,79
-89,-177,101,10,-18,-118,-320,347,143,110
-22,-47,93,-18,-70,-188,-601,262,241,141
-74,-99,-83,-48,-90,-127,-590,53,248,113
-118,-168,-108,-90,-119,-101,-509,-343,75,24
-33,-83,9,-75,-66,6,-338,-587,-43,-70
-154,-267,-66,-79,22,452,263,-631,-278,-303
-350,-616,-210,-94,24,568,350,-576,-446,-393
-188,-528,-94,53,69,239,419,-278,-244,-162
-8,-190,64,121,70,-166,244,67,-14,27
-12,226,96,36,5,-408,-445,49,-52,13
21,311,287,98,27,-499,-1105,-322,-177,7
-16,216,450,74,-100,-530,-1325,-599,-326,-95
-136,120,323,6,-130,7,-655,-509,-386,-240
-327,-51,12,-75,-68,817,917,-306,-380,-351
-303,-177,-275,-213,-120,730,1533,-110,-245,-272
-113,-270,-415,-224,-94,307,1196,138,-3,-43
97,156,-107,9,74,346,992,403,217,151
172,337,147,176,154,287,1020,429,272,226
45,-13,-19,105,46,-150,514,200,147,114
-221,-434,-179,9,60,17,-204,-10,-74,-135
-328,-401,-160,-75,175,479,-594,128,-87,-239
-160,193,13,-51,240,495,-726,327,93,-85
175,251,217,87,204,-27,-889,403,330,221
387,-82,270,194,108,-674,-862,372,506,418
394,-398,210,249,111,-698,-800,221,526,469
291,-598,173,292,175,-230,-667,-92,305,402
208,-552,124,159,-41,-537,-773,-509,19,249
118,-70,-103,-112,-151,-339,-567,-596,-101,31
109,579,-218,-203,-156,103,96,-402,-150,-48
34,420,-244,-203,-202,374,-95,-346,-229,-75
-162,204,-367,-239,-49,999,-203,-219,-198,-105
-148,151,-293,-316,23,850,3,3,-37,12
82,55,36,-271,-151,-290,416,224,186,260
149,-73,319,76,-42,-541,1345,344,312,376
43,-223,116,138,8,-53,1732,399,347,330
-195,-375,-173,-71,-99,278,1098,195,101,47
-215,-105,-138,-109,-84,142,337,56,-1,-29
-77,246,163,50,32,-96,-338,-120,-25,12
-80,422,293,175,140,87,-456,-267,-76,-76
-79,466,392,205,51,-236,-311,-168,-34,-121
50,436,600,272,12,-526,-348,-122,-31,-83
164,791,816,255,15,-437,-233,-122,-11,-47
224,828,430,83,-33,-73,9,-60,49,-56
201,82,-389,-84,-93,162,82,38,48,-20
112,-433,-382,-80,-102,109,115,147,0,9
7,-700,57,-4,62,0,29,102,-25,-6
-6,-664,255,38,47,-299,-223,-2,-49,-13
-76,-218,463,33,-131,-863,-474,-168,-198,-145
-173,587,754,69,-213,-758,-386,-229,-322,-305
-54,1132,626,35,-196,-42,-76,-66,-227,-209
82,738,118,-55,-166,273,376,105,-94,-20
82,328,-238,-103,-61,316,733,212,-59,23
52,266,-157,-16,63,256,581,410,80,65
49,127,-345,10,-23,-178,21,414,210,120
-39,-283,-774,-33,-44,-145,-391,265,215,103
-174,-541,-837,-156,-32,127,-514,239,160,-13
-256,-562,-723,-378,-197,134,-531,173,-15,-207
-289,-569,-645,-647,-231,330,-413,79,-156,-277
-176,-498,-549,-724,26,687,-216,103,-97,-92
9,-409,-261,-206,85,60,-208,61,-3,99
260,-75,145,510,70,-644,-197,-68,83,278
414,498,235,582,48,-947,-245,-298,99,364
378,734,224,348,78,-591,362,-490,27,346
183,245,218,265,225,-157,793,-538,-87,202
74,-164,49,169,281,-68,258,-369,-46,68
61,492,76,117,239,-13,59,-149,38,27
89,677,341,183,208,100,245,-86,30,59
119,505,437,159,134,133,96,-158,-46,66
23,170,223,117,87,345,-26,-185,-126,-13
-28,-212,9,145,94,581,7,-131,-90,17
-49,-348,-53,99,60,790,-76,-112,-77,28
-143,-540,-209,-38,-137,747,-285,-143,-74,-36
-204,-918,-478,-158,-263,644,-270,-80,41,-46
-103,-1014,-501,-148,-222,301,14,37,258,64
171,-366,-177,-15,-167,-259,304,295,538,292
182,143,-9,-42,-149,-318,-286,204,362,132
-223,199,-170,-184,-3,-58,-749,-94,-170,-396
-386,271,-220,-197,47,224,-244,-76,-363,-576
-295,51,-171,-70,179,823,829,-43,-329,-457
-148,-299,-54,72,254,917,735,-131,-318,-309
-67,-106,156,94,137,8,48,-238,-464,-294
167,782,484,60,-114,-1389,-58,-93,-357,-161
316,799,280,10,-195,-1231,-29,83,-174,-14
222,272,-125,-32,-14,-165,-201,182,-144,-20
136,239,-60,14,125,73,-191,402,29,59
110,91,-1,-42,180,-332,-52,561,230,165
119,-182,-236,-236,131,-568,16,602,388,198
101,-330,-402,-347,-294,-738,-146,510,430,141
-61,-350,-295,-272,-454,-617,-177,289,230,-23
-66,40,-149,-346,-308,-33,-110,77,100,-35
14,378,0,-163,-29,344,-307,-168,-39,-63
52,428,244,418,110,29,-125,-418,-234,-96
120,304,220,407,14,272,981,-299,-147,39
54,91,124,169,-11,185,995,-214,-120,-17
-92,-100,-82,-134,-211,271,678,-118,-164,-162
-77,-157,-212,-352,-274,624,380,-42,-126,-123
-57,-181,-218,-365,-6,992,-188,-61,-74,-72
2,-123,-4,-70,341,882,-523,-20,46,49
189,29,338,518,642,315,-521,37,213,259
350,205,456,567,433,-267,-209,141,343,427
271,128,187,133,137,-226,-213,51,255,331
251,146,42,-19,-56,-358,-419,0,214,242
235,195,35,235,-186,-534,-524,-1,178,157
31,-136,-262,111,-279,-448,-507,19,64,10
-116,-277,-449,-181,-412,-255,-196,133,8,-88
-100,-177,-306,-236,-372,214,835,383,55,-64
-57,-34,22,-126,-185,649,1458,608,134,-29
-121,77,154,-134,-132,722,1000,630,94,-125
-160,-71,-30,-188,-29,969,610,511,55,-186
-168,-256,-212,-151,142,1136,567,333,60,-192
-346,-439,-326,-164,213,1006,389,-21,-158,-314
-272,-353,-224,-161,74,554,-284,-339,-318,-265
-4,8,46,-17,-152,-284,-673,-403,-297,-63
204,382,343,218,-115,-1067,7,-378,-159,107
204,236,427,345,159,-889,700,-337,-51,154
256,88,421,363,248,-572,-166,-331,61,241
292,99,381,293,81,-646,-1019,-192,124,271
252,71,464,243,41,-283,-926,-159,53,225
-8,-144,392,4,75,477,-567,-529,-266,-68
-160,108,373,-187,163,680,-375,-679,-405,-231
-86,476,316,-72,192,386,-218,-314,-199,-88
-142,-6,-174,-57,-53,37,-166,7,-71,-61
-168,-351,-176,-91,-321,-560,-166,184,23,-8
-179,-436,-44,-88,-411,-739,115,205,68,-1
-242,-538,-296,-124,-224,-483,221,45,-17,-170
-180,-769,-316,-24,122,126,190,52,43,-92
71,-727,-31,260,376,525,211,211,231,256
176,-243,-85,212,307,206,92,230,263,342
277,818,58,109,364,244,126,264,321,348
420,1051,268,133,377,179,-104,413,414,405
350,781,172,19,-96,-152,-328,598,455,353
247,598,41,-214,-428,-317,-432,735,487,297
137,180,12,0,-148,-455,-563,611,342,182
33,114,0,264,66,-542,-635,204,71,53
13,499,32,216,-1,-409,-507,-93,-60,22
-10,373,-85,99,-50,-389,-263,-146,-48,66
-128,-7,-262,-82,-75,-182,139,-166,-102,21
-165,-123,-222,-178,-66,239,811,-34,-126,-24
-46,-37,-121,-176,-80,331,1236,253,7,69
-19,7,-48,-105,-66,173,1161,164,28,58
-166,-193,-94,90,64,50,1199,-66,-56,-82
-135,-188,86,179,52,-74,1206,-194,-65,-74
-94,-283,114,62,-66,-130,459,-212,-70,-14
-124,-549,-61,-56,-73,108,-241,-121,-27,0
-127,-497,84,-8,33,402,-145,-212,-92,-44
-314,-381,-55,-117,4,540,-18,-465,-300,-282
-427,-33,-273,-423,-9,994,-330,-652,-404,-516
-20,280,-56,-287,234,1246,-668,-549,-101,-215
430,677,289,125,381,97,-887,-218,306,299
445,534,387,464,342,-675,-889,-109,338,425
223,112,188,425,265,-309,-746,-182,153,282
92,78,73,229,96,-235,-614,-229,15,151
-145,109,112,17,-62,-113,-506,-361,-298,-185
-339,66,135,-143,-117,136,-421,-487,-585,-496
-451,-136,-233,-312,-149,254,-420,-520,-640,-585
-401,-341,-481,-395,-19,348,-107,-351,-479,-418
-149,-275,-324,-355,129,515,613,59,-177,-102
-88,-264,-128,-282,-259,59,479,255,-43,-33
-18,-171,0,-110,-513,-644,183,394,74,7
248,69,144,-11,-414,-1338,118,800,416,275
327,227,312,118,-376,-1612,-254,860,498,315
150,94,162,113,-187,-1090,-552,462,273,34
88,248,-34,66,-40,-713,-588,130,138,-105
27,192,-100,48,-79,-689,-159,-15,23,-151
-144,-340,-243,-31,-121,-369,215,-267,-257,-312
-444,-854,-477,-245,-166,-101,-111,-669,-591,-593
-575,-945,-626,-341,-120,-19,-178,-725,-544,-574
-328,-238,-410,-246,-15,302,922,-413,-209,-243
7,476,51,-27,156,1063,1321,-94,77,44
289,502,390,262,312,1213,509,155,383,301
297,-88,367,417,393,685,323,153,387,327
129,-599,344,409,455,649,106,134,205,182
-69,-875,208,322,454,774,-160,24,-31,-37
-122,-799,100,219,426,616,-310,-184,-207,-164
-1,-135,70,72,178,209,-387,-272,-246,-102
145,1252,356,2,-107,-245,-320,-226,-204,-11
204,1657,655,78,-160,-682,-289,-182,-180,18
146,694,494,94,-214,-780,-285,-134,-161,-4
80,93,154,-36,-324,-607,-341,-150,-181,-41
-16,-211,-52,-117,-307,-131,-382,-234,-242,-100
-127,-659,-135,-54,-48,864,-291,-217,-230,-117
-162,-851,-161,-56,20,527,-162,-169,-164,-132
-62,-271,34,-156,-131,-357,97,-102,-93,-92
-51,997,70,-302,-134,-81,553,66,-12,-101
9,1413,-1,-210,80,253,592,165,85,-95
136,770,-326,-58,29,-185,69,133,146,40
-15,121,-554,-115,-173,-407,-380,12,-13,-41
-298,-127,-537,-288,-228,-43,-393,13,-181,-272
-531,-532,-639,-488,-248,928,-252,27,-237,-431
-567,-801,-571,-432,-33,1990,-139,119,-148,-414
-336,-499,-178,-118,355,1696,-140,322,107,-173
171,86,228,187,408,472,-41,642,518,306
492,306,382,316,127,-640,-206,567,642,575
526,308,472,344,-3,-1258,-279,191,423,548
512,318,792,292,-116,-1472,-285,-142,230,507
249,83,873,83,-290,-1164,-329,-415,-78,206
18,-99,986,-15,-355,-1140,5,-529,-265,-44
-53,49,1028,93,-129,-316,1051,-334,-207,-100
-91,155,788,305,232,517,1208,-97,-85,-60
32,-104,75,356,372,301,449,187,149,138
5,-346,-967,-5,143,129,55,344,221,121
45,-136,-1365,-309,-109,-88,-138,533,338,154
84,263,-1131,-329,-275,-518,-425,563,367,182
-32,220,-726,-312,-506,-831,-638,218,122,17
-326,43,-528,-355,-478,-281,-272,-305,-302,-312
-365,-145,-384,-223,-17,1155,327,-514,-411,-323
-99,-135,-246,-176,444,2285,973,-85,-105,-39
-39,-175,-411,-565,499,1666,1211,574,186,29
-39,-173,-399,-514,250,540,936,974,312,61
48,-110,-106,213,42,-323,27,765,240,102
111,-47,30,364,13,-431,-517,451,158,127
184,27,100,282,161,-46,-219,386,314,261
366,186,238,279,181,77,148,173,406,447
463,405,307,362,187,-243,0,-343,161,416
239,487,173,427,163,-693,-184,-779,-167,160
-123,364,-101,30,-180,-499,-56,-885,-357,-105
-345,-36,-228,-396,-430,-137,-52,-691,-393,-267
-253,-168,-22,-149,-126,-240,-41,-369,-197,-164
-68,4,321,547,291,-338,295,-240,-74,-32
38,-2,324,535,268,127,19,-146,65,102
100,-49,233,244,7,110,-679,-80,208,206
-3,-14,108,-106,-412,-460,-937,-234,89,-21
-129,-444,-209,-291,-454,-288,-282,-66,28,-156
-201,-933,-287,-239,-144,596,839,371,109,-65
-278,-878,-235,-370,2,1268,1443,414,141,-57
-104,-251,5,-260,156,973,951,252,213,47
169,910,399,357,412,208,398,111,329,199
152,1180,345,474,506,749,231,53,292,127
216,950,372,301,499,1028,-116,53,214,118
131,776,293,354,32,118,-702,-200,-48,-31
7,188,129,495,-154,-658,-1140,-363,-200,-105
-23,-263,151,424,-47,-720,-884,-367,-224,-129
-240,-369,243,164,-112,-400,-328,-307,-350,-321
-262,-87,196,-136,-83,172,-109,-290,-382,-373
29,282,-106,-463,-117,353,-3,-21,-66,-67
167,114,-351,-685,-284,90,278,376,232,159
157,379,-312,-478,-104,99,407,492,329,181
58,281,-263,-197,305,-91,283,369,250,115
-201,-424,-234,326,180,-872,-83,-6,-36,-142
-303,-649,-102,444,-180,-786,-304,-310,-272,-324
-244,-417,74,83,-293,-374,-295,-324,-290,-291
-148,15,341,-233,-482,-341,-34,-6,-119,-171
-173,-66,229,-188,-518,-306,336,300,-91,-192
-151,-475,-11,-74,-453,-437,-3,421,-5,-164
-32,-180,101,130,0,-412,-400,270,84,-72
-17,-110,217,199,685,199,-377,-163,-54,-33
-79,-572,84,4,1172,660,-507,-437,-178,-13
-280,-845,-246,-551,740,481,-1091,-542,-306,-184
-523,-476,-373,-719,-82,-382,-1381,-877,-624,-538
-451,243,-16,84,-108,-546,397,-782,-617,-586
-226,708,258,546,-93,315,1638,-388,-345,-361
74,731,179,326,-472,445,861,-67,-99,-142
351,596,123,245,-443,-302,295,255,199,148
352,476,112,88,-268,-42,291,271,248,219
235,425,150,-277,-181,875,436,231,188,169
132,111,71,-363,257,1266,428,264,166,114
-17,-134,290,403,365,339,-69,29,-47,-81
38,-183,445,744,58,-376,-303,54,-31,-34
277,-192,270,499,-131,-755,-391,198,138,215
232,-372,-94,139,-332,-962,-511,98,100,180
103,-242,-432,-342,-524,-1579,-520,81,80,37
74,325,-507,-669,-417,-1717,-340,495,200,14
85,864,-431,-530,-423,-650,-400,978,394,126
-6,599,-348,-190,-568,-155,-926,1009,432,103
21,88,-211,48,-207,-187,-774,885,502,226
11,-14,-84,80,-1,81,549,426,365,214
-160,-218,-236,-56,-81,331,690,-333,-61,-56
-129,-291,-236,5,46,758,276,-509,-199,-92
-199,-419,-278,8,205,1296,275,-510,-205,-124
-333,-499,-186,76,482,1431,485,-826,-406,-254
-189,-243,188,216,601,1108,769,-709,-299,-124
195,224,408,243,314,265,563,-227,22,206
379,280,348,221,124,-424,277,-43,101,306
218,82,252,127,61,-256,114,-221,-82,118
16,-56,86,-200,-176,455,12,-341,-213,-66
41,-34,-91,-533,-383,742,23,-291,-168,-8
6,-58,-196,-262,-61,372,117,-172,-100,31
-17,-75,-159,62,-17,-106,245,59,3,94
-44,-143,-157,-25,-55,-434,-22,177,65,110
-141,-243,-99,56,141,-442,-464,38,-25,32
-16,-143,28,107,131,-56,-419,101,67,151
265,228,260,293,357,319,-278,173,244,314
300,303,248,307,520,497,-279,226,267,331
290,63,46,136,299,357,-94,514,375,380
147,-193,-82,4,42,35,33,606,321,230
-198,-125,-167,-246,-252,-481,-521,301,-89,-236
-296,42,-32,-316,-375,-633,-615,150,-231,-384
-217,39,308,-197,-215,-17,-96,-59,-196,-276
-197,37,404,-217,-22,422,464,-499,-274,-257
-43,-230,166,-112,147,162,258,-738,-299,-99
216,-208,126,126,202,-477,46,-453,-116,168
174,87,30,79,77,-754,312,-84,-11,91
31,181,-186,-138,-151,-993,95,181,59,-30
181,144,-296,-113,-253,-1120,342,699,420,193
147,-41,-383,-95,-213,-649,636,954,512,220
66,-113,-280,-73,-137,-384,255,813,400,124
112,26,-127,-21,-96,-404,-137,328,169,99
211,229,7,4,-131,-606,-86,-331,-139,109
297,288,125,103,-34,-447,254,-695,-314,135
211,140,181,145,71,320,524,-606,-341,57
68,-6,122,134,160,788,576,-430,-292,-50
106,0,130,197,310,400,346,-327,-159,4
-29,-222,-2,134,260,128,202,-189,-56,-35
-88,-379,-198,45,192,339,219,-40,47,-54
-48,-435,-233,57,253,581,155,-6,118,-48
-222,-737,-269,22,271,595,-27,-200,-91,-200
-364,-891,-248,-75,120,461,-58,-398,-362,-338
-210,-306,-87,-90,-17,456,14,-344,-335,-252
10,220,122,33,48,581,-38,-171,-148,-60
96,691,516,73,-41,-13,-215,-163,-179,-110
143,1389,818,-43,-279,-990,-566,-189,-235,-202
291,1398,482,-121,-249,-945,-676,11,77,28
282,558,-61,-138,-80,-419,-720,224,347,232
185,-210,-293,-191,-22,-353,-1317,306,473,297
-38,-663,-377,-403,-249,-655,-1616,133,281,107
-18,-691,-94,-305,-221,-560,-1204,-7,164,127
173,-558,23,-68,20,-75,326,93,223,287
75,-335,18,46,114,366,1428,227,110,82
63,656,138,186,215,632,1001,208,35,-44
210,1109,254,208,219,520,187,186,159,134
94,154,94,16,105,465,-277,190,121,117
-113,-837,-116,-60,198,817,254,239,13,6
-264,-1390,-193,100,388,1024,853,98,-67,-58
-268,-1519,-58,348,488,859,614,-195,-122,-25
-238,-1380,44,339,363,543,299,-337,-193,-39
-179,-775,128,150,59,-61,-68,-187,-175,-122
69,592,146,-60,-203,-649,-399,-29,-68,-130
203,1821,10,-224,-374,-642,-454,-41,-92,-167
103,1536,-132,-291,-498,-438,-227,11,-182,-225
-56,724,3,-316,-406,-67,59,89,-185,-255
-105,357,243,-521,-100,582,161,80,-111,-157
9,442,621,-236,389,770,109,-13,-7,54
-149,242,745,584,489,246,-109,-228,-127,-66
-339,-543,116,613,120,37,273,-302,-206,-220
-332,-961,-435,192,134,436,435,-251,-193,-215
-290,-692,-572,-192,218,566,217,-205,-228,-267
-241,-66,-658,-402,-237,135,-11,-151,-238,-298
-201,302,-627,-367,-652,-259,-152,37,-150,-253
-122,452,-292,-292,-545,-476,33,461,58,-110
-124,163,-61,-231,-540,-395,255,811,245,-51
-223,-122,-307,-269,-489,222,190,914,275,-177
79,177,-285,-181,-424,-191,-227,927,530,21
236,228,-157,-84,-525,-1247,-443,767,622,211
228,89,-25,85,-236,-1424,-747,155,312,243
165,43,113,213,203,-959,-831,-466,-75,141
116,-84,133,171,302,-628,-191,-597,-237,86
11,-472,-184,34,375,80,1042,-499,-212,58
96,-538,-246,122,415,677,2018,-163,4,195
299,-277,-30,230,179,213,1236,-102,152,317
461,84,249,269,103,49,117,-215,164,400
429,503,403,317,217,324,-323,-244,163,413
209,313,433,348,256,122,-479,-255,59,250
-78,-272,251,243,138,-223,-195,-143,-57,49
-124,-412,-7,6,-113,-449,150,37,-57,-14
-66,23,-125,-114,-118,263,319,37,-84,-47
14,372,-157,-37,138,1068,261,50,-10,34
-35,323,-159,-108,118,944,-86,-4,-24,2
-206,114,-168,-232,53,824,-187,-37,-81,-119
-251,-116,-128,-215,173,870,-323,-49,-35,-118
-70,113,204,10,189,77,-672,-122,31,4
160,753,614,316,114,-944,-771,-219,46,115
297,1040,800,273,-9,-730,-380,-117,128,223
213,481,708,158,16,50,-79,-64,91,170
64,-1,315,29,14,258,-154,-209,-77,-25
-72,-180,-171,-135,-37,375,-375,-322,-232,-221
-318,-482,-654,-278,-154,74,-436,-234,-350,-364
-490,-689,-738,-338,-162,209,-426,-142,-420,-453
-511,-687,-791,-327,104,1345,-300,-53,-379,-429
-268,-410,-480,-178,227,755,-237,160,-130,-182
92,-8,-94,-19,-6,-945,-53,457,225,217
452,424,142,95,-284,-1694,65,786,602,655
457,394,142,72,-248,-1315,234,734,609,697
299,126,-48,32,-106,-587,540,580,404,561
260,61,-53,56,-51,-261,193,424,337,481
178,65,30,28,-154,-421,-236,280,283,340
46,16,18,-80,-326,-609,-378,252,217,169
-87,-117,-41,-142,-406,-611,-506,50,58,-9
-199,-252,-88,-146,-337,-383,-488,-371,-171,-199
-239,-346,-147,-181,-91,282,-53,-563,-314,-296
-30,-195,-43,-142,118,764,-75,-260,-99,-70
122,-217,66,8,109,350,-336,-84,42,90
-42,-745,-140,117,118,-168,-800,-186,-83,0
-109,-987,-78,256,259,32,-263,-202,-141,3
8,-327,171,343,221,306,1723,-39,-84,80
30,55,190,210,-11,-35,2005,3,-28,103
-14,65,36,-66,-288,-371,993,-89,-126,-32
121,679,-92,-217,-313,-108,873,-149,-160,-103
221,1066,-8,-105,-45,218,768,-210,-179,-68
80,739,146,11,206,455,504,-110,-184,-63
-69,176,216,89,309,621,450,271,38,-48
-65,4,95,121,176,288,28,398,166,-12
-56,41,183,66,61,10,-340,267,159,23
65,520,664,97,114,-13,-367,258,249,129
114,539,375,100,257,207,-64,273,347,197
-14,-34,-207,62,363,371,167,9,145,57
23,21,-189,39,313,226,-15,-395,-148,-42
61,31,-11,20,166,106,14,-363,-233,-71
26,-56,71,-56,-77,-238,27,-172,-180,-108
86,79,252,-12,-237,-629,-216,-98,-83,-60
211,336,533,162,-209,-694,-123,106,67,60
314,683,761,343,-17,-543,-413,4,60,99
138,502,524,311,96,-396,-817,-260,-104,-63
-186,18,29,158,19,-275,-913,-438,-314,-241
-228,-374,-144,51,-82,-373,-953,-440,-296,-197
-324,-765,-226,-39,-52,-221,-765,-321,-310,-253
-482,-749,-294,-306,-180,141,-646,-230,-505,-524
-394,-669,-274,-426,-284,474,-900,132,-359,-453
-111,-138,-210,-313,-317,240,-710,610,36,-108
-102,231,-373,-428,-294,474,-42,867,232,-81
-254,-267,-728,-835,-353,1198,283,973,251,-147
-210,-554,-917,-998,-271,936,65,610,177,-32
-49,-108,-477,-233,268,49,223,-38,31,133
12,4,-55,512,631,48,651,-602,-78,227
63,72,65,601,347,-283,632,-750,-84,275
-18,116,0,364,47,126,874,-562,-32,161
-67,-111,23,318,311,1099,979,-392,-22,56
15,-198,90,380,390,462,446,-378,-35,33
135,-370,89,310,201,-47,188,-327,18,129
159,-585,59,5,-40,57,52,-228,83,185
-81,-828,-205,-505,-271,326,-346,-259,-53,-4
-230,-301,6,-441,-88,872,-447,-347,-279,-264
-51,876,504,69,422,1403,-59,-263,-243,-209
90,952,236,328,863,700,154,-96,-15,-16
267,716,167,718,601,-915,-113,149,253,187
408,556,268,458,47,-1495,-49,502,541,391
126,-12,316,228,-418,-1139,130,471,411,268
-91,-317,186,165,-533,-656,298,362,220,113
-137,-298,-71,-68,-463,-374,286,299,111,13
-102,-191,16,-166,-568,-574,60,318,132,5
-213,-308,161,-41,-512,-591,-235,157,-37,-150
-394,-458,130,-43,-331,-355,-506,-231,-350,-414
-331,-318,330,-176,-433,-499,-558,-371,-394,-416
-195,-418,231,-236,-485,-621,-518,-271,-236,-237
-261,-911,-363,-488,-259,-71,-473,-240,-188,-212
-567,-1303,-849,-632,475,1074,-291,-501,-405,-471
-215,-666,-401,-154,941,1660,67,-449,-239,-154
232,212,-18,143,235,1416,97,-253,37,249
223,655,-187,82,-407,561,-22,-183,44,160
427,757,134,479,30,-303,-37,-18,217,287
560,357,405,849,611,-736,-28,162,395,494
389,-79,278,502,387,-613,99,293,371,450
161,-351,92,185,133,128,353,280,233,238
84,-31,-49,39,6,446,584,159,108,72
93,303,-54,-25,-92,-54,591,224,181,112
152,-22,-25,-42,-134,-951,320,407,397,284
90,-583,-48,-5,-63,-1238,3,498,463,280
-81,-975,-80,167,107,-619,-290,320,245,-10
-101,-1046,-189,118,85,-182,-60,182,64,-96
-240,-800,-440,-425,-30,331,661,-31,-209,-260
-302,-474,-567,-1011,0,1241,670,-183,-348,-372
-209,-170,-188,-856,189,1382,462,-67,-244,-264
-63,690,187,-119,10,155,217,63,-123,-147
139,1052,142,443,-418,-1250,-56,91,-34,-1
179,987,167,234,-456,-988,-69,147,105,106
-114,342,120,67,-95,136,-42,-49,-85,-125
-293,-186,-141,161,57,334,-285,-293,-327,-347
-194,58,-283,75,-14,447,-384,-332,-249,-229
-4,436,-127,81,-10,203,-78,-290,-157,-41
75,382,256,101,-35,-473,251,-200,-124,22
79,196,268,6,295,-186,889,199,36,83
124,93,37,-131,330,579,993,529,188,148
140,-11,-30,-57,-295,249,423,411,173,113
87,-119,-54,-9,-485,63,-497,122,108,94
221,99,128,-18,-450,-774,-1290,-33,143,210
231,19,243,-3,-337,-1059,-1457,-169,65,150
276,63,434,187,78,-697,-1887,-144,129,187
683,800,888,330,289,-635,-1251,279,562,650
730,973,832,15,33,-120,382,580,704,756
273,456,525,36,188,215,950,387,336,249
19,298,484,726,551,92,708,46,18,-20
76,494,172,626,308,-90,255,-263,-114,21
50,560,-117,198,25,-127,146,-311,-179,-31
-71,17,-298,15,-117,-192,326,34,-13,-9
-189,-487,-413,-55,-201,-325,315,344,146,32
-255,-563,-460,-130,-195,-259,207,419,75,-35
-140,-291,-394,-215,-214,-270,1,502,119,2
-56,-122,-354,-237,-199,-215,-51,528,278,50
-18,-136,-379,-324,-176,80,-29,411,291,84
-15,-149,-399,-627,-215,645,120,280,295,127
-110,-227,-368,-552,343,1147,394,-150,71,12
-212,-184,-110,324,752,814,119,-1049,-405,-178
-100,3,86,730,502,634,-319,-1281,-551,-153
-47,-39,34,409,386,498,-389,-874,-449,-140
-52,-203,-131,60,176,205,-62,-295,-244,-152
24,-263,-75,127,-19,-418,250,130,11,-35
63,-243,60,266,-157,-948,504,250,148,81
-27,-35,48,40,-352,-1098,-167,4,29,-36
-222,148,-26,-298,-595,-1198,-994,-333,-264,-329
-468,-63,-278,-576,-788,-987,-1408,-575,-564,-626
-769,-531,-655,-677,-618,248,-718,-587,-787,-888
-591,-451,-491,-409,-203,1169,417,-152,-492,-615
-148,-176,-2,1,161,1266,958,290,10,-76
-31,-213,202,205,422,1184,715,487,201,96
-95,-241,189,122,331,859,249,534,153,0
-23,-37,238,65,209,668,7,595,260,79
118,137,315,142,207,304,-30,559,358,239
176,91,304,118,46,-640,-69,325,340,292
330,268,439,151,-91,-1075,300,208,273,347
560,539,586,265,66,-428,663,-50,127,445
498,288,394,246,271,35,420,-352,-14,414
275,-166,74,186,330,87,193,-298,-1,279
6,-491,-172,-31,78,-157,-27,-130,-35,80
-70,-357,-282,-275,-205,-180,-45,224,56,48
11,-69,-241,-388,-341,-146,-54,402,176,121
-6,-152,-209,-391,-352,-178,-28,377,189,81
-49,-433,-120,-76,-73,-57,-39,151,184,-21
-58,-520,2,199,233,166,-9,-299,-4,-181
-118,-456,140,242,416,632,93,-622,-328,-263
-59,109,244,311,820,1047,139,-491,-313,-97
254,893,478,393,941,741,82,-118,-50,163
349,836,376,204,277,177,-18,-100,-107,51
229,972,48,-71,-432,-350,-254,-343,-334,-146
105,687,-23,-158,-485,-340,-165,-232,-253,-87
-136,-522,-11,42,-172,-24,-57,-234,-258,-149
-294,-1407,-73,199,99,85,-121,-234,-213,-138
-192,-1632,-117,146,106,53,-167,-170,-90,-16
-36,-1587,-138,-113,-53,47,-147,-137,-5,45
81,-861,-162,-558,-274,225,-113,-129,9,38
148,890,-40,-571,-271,424,-160,-77,19,-22
131,1831,34,-284,-161,403,-298,-12,23,-88
54,1514,-19,-276,56,465,-280,6,-13,-238
18,1126,-31,39,403,172,-289,48,3,-284
-11,515,2,292,92,-512,-360,109,34,-211
13,407,122,215,-253,-587,-221,235,107,-112
172,630,303,124,-324,-725,-16,329,205,-6
287,539,280,32,-341,-660,400,452,289,95
236,112,118,-36,-345,-534,29,374,241,101
115,-132,-35,-54,-213,-476,-578,137,77,-10
118,-255,-133,-118,53,-582,-952,136,165,26
-47,-519,-355,-454,134,-629,-1296,77,101,-17
-126,-443,-325,-397,140,-3,-1416,-154,-151,-135
-41,-85,87,247,-125,447,111,-211,-308,-181
-235,-236,90,379,-83,1148,2486,-72,-406,-345
-378,-174,-10,170,133,1083,1978,-44,-331,-346
-314,-286,-100,-120,-46,446,773,-44,-186,-228
-280,-467,-277,-148,-67,310,495,-87,-186,-291
-445,-748,-495,-85,55,464,545,-150,-336,-491
-525,-906,-679,-212,92,850,347,-140,-356,-516
-205,-256,-432,-164,80,582,-110,-26,-126,-208
72,112,-19,1,113,-162,-251,164,157,104
205,126,340,135,52,-291,52,399,376,307
318,748,681,234,-23,-320,172,441,428,384
294,894,610,233,43,-377,27,368,318,286
190,214,222,169,168,89,-140,136,136,131
62,-361,-84,-1,191,1041,-81,-69,-4,45
-51,-845,-322,-184,98,1631,-8,-154,-46,37
4,-630,-199,-170,79,1113,-248,-200,-41,54
63,280,-21,-287,-90,359,-342,-214,-12,44
115,954,175,-571,-185,41,-402,6,161,129
183,966,554,-362,78,-716,-681,179,268,202
207,1034,739,297,-273,-2386,-1287,93,43,65
175,943,491,228,-619,-2005,-517,414,91,43
-34,362,-118,9,-270,-462,1102,783,261,50
-330,-312,-517,-53,-62,-183,916,682,177,-58
-349,-625,-613,-99,-85,-35,596,280,-17,-117
-188,-342,-284,23,22,309,577,-88,-136,-66
-23,105,384,204,49,42,144,-315,-160,43
141,237,306,226,78,148,-302,-231,8,208
192,-63,-183,273,308,369,-509,-87,146,300
300,-96,-205,293,425,-174,-608,-95,200,416
451,329,144,188,331,-423,-380,-177,244,527
496,414,92,-194,-26,-321,22,-129,266,563
249,13,-156,-329,96,-90,-2,-245,11,271
102,-204,-23,195,464,-144,112,-173,-104,68
-101,-421,-136,42,214,90,509,88,-68,-75
-281,-553,-309,-202,304,671,462,279,-35,-222
-248,-517,-229,-15,237,457,128,305,-44,-286
-375,-735,-216,123,-319,-420,-245,49,-238,-428
-456,-626,-331,-255,-639,-498,-195,25,-185,-387
-409,-93,-203,60,-357,47,-107,74,-63,-274
-207,-229,11,415,-54,94,-164,165,72,-50
-62,-361,127,313,101,-156,-263,51,88,55
110,278,301,268,125,-459,-471,-263,2,92
183,837,465,212,-94,-606,-569,-521,-152,32
-39,521,316,84,-243,-482,-610,-775,-444,-229
-181,71,-27,-55,-303,-40,-85,-658,-449,-332
-83,-166,-155,-111,-273,568,1089,-295,-230,-200
-25,-278,-173,-34,0,1298,981,-157,-153,-147
62,-201,-59,174,457,1056,361,62,0,0
322,343,137,300,361,-316,188,497,358,339
346,703,140,118,-92,-1048,-21,691,529,370
95,335,-137,-220,-292,-736,-342,606,368,135
-145,-177,-440,-464,-402,-433,-445,491,175,-73
-339,-509,-561,-523,-338,-107,-18,393,34,-248
-448,-541,-480,-422,-45,454,915,131,-168,-358
-244,-164,-204,-279,86,715,1576,-150,-276,-255
157,471,232,119,233,547,1172,-309,-222,-24
231,588,364,382,381,176,-1,-496,-233,-30
205,368,132,-120,320,55,-295,-185,53,41
-31,-86,-158,-472,277,301,-140,-67,84,-8
-388,-348,-152,73,50,223,-377,-451,-304,-361
-237,-352,67,449,-92,-171,-626,-491,-256,-208
47,-299,234,406,-110,-607,-646,-340,-35,113
162,-403,274,304,-243,-1293,-768,-355,30,241
194,-556,203,266,-102,-1141,-417,-215,123,286
303,-113,335,280,215,13,17,85,249,329
388,392,568,348,253,228,-204,186,292,358
204,336,512,327,238,74,-365,51,134,167
37,103,207,164,153,-21,-395,-131,-64,-5
49,39,-6,-5,-74,-174,-366,-205,-144,29
29,-17,-63,-175,-204,92,-212,-295,-222,-28
-106,488,-38,-331,-155,865,275,-271,-274,-183
-37,1266,-7,-427,-110,995,524,6,-77,-87
-63,695,-299,-506,-78,813,504,268,167,-16
-343,-183,-376,-239,189,708,334,206,90,-185
-439,-345,-132,89,272,-59,134,249,34,-224
-254,70,0,-6,-96,-759,-22,381,126,-110
-57,307,-94,-166,-177,-206,-109,356,167,0
168,414,-63,-67,57,283,-131,418,266,198
326,518,147,154,151,-315,-146,400,308,298
342,359,238,310,167,-589,-234,109,241,299
250,15,231,310,146,-281,-255,-276,51,266
16,-443,20,137,24,-97,-120,-386,-220,53
-216,-712,-324,-89,-122,-115,53,-318,-384,-228
-359,-532,-458,-227,-158,48,63,-344,-472,-394
-207,193,-172,-121,33,213,150,-214,-317,-256
56,376,95,-25,13,-24,364,76,-37,47
160,100,126,-68,-137,-386,21,211,146,221
67,33,95,-61,-111,-419,-523,174,162,207
-39,-91,51,-9,-51,-329,-813,27,30,122
4,-137,49,15,-51,-170,-459,-85,-40,58
-34,-209,-66,-96,-160,-216,-455,-222,-166,-122
-46,-40,-90,-207,-273,-370,-453,-259,-225,-217
34,-85,-131,-169,-150,106,272,-16,-39,-58
22,-906,-363,-50,119,981,1065,242,158,73
-34,-1162,-210,-5,222,938,1143,286,188,4
-109,-473,59,-37,100,392,654,113,43,-174
-84,440,238,79,51,224,273,24,-14,-144
-4,572,174,113,47,337,11,51,25,-28
41,607,108,45,-31,113,-198,93,66,32
-49,390,46,-30,-117,-310,-390,32,15,-81
-201,303,-159,-129,-193,-168,-353,87,14,-173
-262,181,-246,-202,-214,263,-37,205,43,-175
-347,-222,-236,-241,-156,179,279,236,-34,-243
-249,-309,-202,-153,-87,-456,328,348,9,-137
-169,-368,-271,-114,-3,-292,281,159,-159,-129
-122,-412,-212,-65,138,72,204,-231,-406,-172
117,0,129,116,297,293,319,-449,-399,-27
253,586,491,249,190,336,457,-337,-246,78
197,463,345,81,-29,563,275,7,1,117
-20,-22,-320,-429,-72,935,-49,41,8,-67
-326,-645,-870,-731,297,1164,-243,13,-168,-299
-510,-962,-900,-754,574,1403,-177,319,-132,-373
-140,-451,-353,-893,34,382,-92,841,367,61
361,241,508,100,138,-1422,-544,769,575,434
330,613,686,1102,-37,-2495,-1327,212,278,245
138,597,259,695,-625,-2420,-1503,61,120,54
150,293,-6,318,-466,-1408,-1065,-307,-24,82
319,368,146,389,61,-88,551,-563,-63,204
44,181,152,389,557,802,1688,-637,-218,9
-252,-148,165,201,700,1295,978,-704,-349,-212
-362,-95,479,60,194,1709,498,-682,-404,-308
-331,32,567,0,-121,1425,545,-523,-364,-297
-255,-281,245,1,-330,212,425,-256,-230,-215
-371,-655,-216,-230,-710,-509,-33,-88,-216,-282
-481,-558,-527,-754,-815,-376,-671,-88,-252,-365
-436,-208,-623,-993,-425,-145,-890,-27,-201,-289
-192,-135,-592,-355,187,85,-631,213,-24,-75
287,219,31,459,114,-668,-335,621,385,371
559,374,436,946,170,-1216,461,943,771,694
517,183,317,817,410,-567,704,787,764,700
520,230,200,511,244,-504,170,519,611,678
324,131,34,45,-295,-983,-205,354,463,387
171,83,-182,-285,-577,-830,-288,266,331,89
248,275,-141,-308,-543,-593,-300,558,370,173
272,473,-167,-309,-475,-363,-14,1060,500,333
266,312,-93,-229,-371,-222,460,1056,557,410
207,67,97,143,5,-241,803,227,209,316
140,-22,119,318,287,17,684,-563,-165,161
-86,-149,-35,93,196,144,393,-859,-421,-107
-153,-149,5,65,175,219,201,-1031,-519,-196
-181,-182,83,145,355,572,270,-1248,-577,-221
-85,-86,204,271,572,876,334,-1024,-415,-123
227,221,423,410,538,394,-221,-646,-91,177
309,296,494,316,318,62,-755,-579,-49,244
246,149,416,157,121,-24,-893,-562,-80,196
267,82,451,233,85,-183,-909,-435,-30,213
206,-9,434,341,170,-257,-802,-283,-4,149
33,-253,217,110,80,-203,-655,-210,-70,-10
-114,-484,4,-145,-105,-178,-529,-215,-202,-178
-143,-755,-160,-280,-244,-164,39,-124,-214,-201
-107,-573,-183,-303,-275,-88,378,-46,-151,-127
-75,-198,-57,-204,-96,275,292,25,-76,-54
1,-100,34,-202,97,693,343,59,-27,-12
82,-32,-297,-380,89,725,319,122,45,31
106,-128,-573,-465,227,808,265,238,177,76
5,-190,-432,-568,358,785,176,176,119,-34
-108,-100,-269,-517,280,561,113,40,-50,-131
-67,148,31,370,25,-207,-95,-58,-132,-102
36,73,104,518,-194,-470,-121,15,-54,4
-53,-328,-47,169,-203,-200,-116,47,-82,-53
-125,-101,-23,44,-154,64,-117,55,-109,-124
-38,257,122,97,-81,303,-2,110,-52,-55
44,-57,108,153,-73,227,-90,72,-25,24
80,-319,82,137,-93,-149,-335,135,75,128
207,-194,234,162,-176,-784,-639,156,174,257
152,91,171,58,-332,-1057,-936,97,111,188
-144,235,-151,-215,-434,-552,-1144,-27,-125,-157
-358,-260,-547,-395,-306,291,-698,-9,-271,-385
-568,-867,-838,-490,-72,1123,1048,156,-298,-507
-555,-322,-570,-387,225,1307,1702,99,-284,-495
-278,884,-62,-148,327,678,926,-154,-233,-238
-54,810,108,58,248,4,431,-214,-74,11
126,388,218,126,81,-132,303,59,203,229
201,241,102,9,-102,-223,198,233,334,319
153,134,82,86,-69,-367,20,226,275,291
71,-70,77,155,-8,-324,-2,266,292,280
30,-69,71,77,49,-11,41,264,330,281
87,-88,42,84,146,70,-35,207,352,294
130,-461,-181,100,87,-253,-342,66,244,275
133,-690,-322,27,-148,-726,-684,-76,84,126
40,-609,-210,-88,-297,-746,-332,-118,-92,-110
-279,-448,-38,-286,-401,-458,-260,-341,-469,-527
-546,-261,77,-367,-368,176,-261,-456,-704,-781
-368,324,125,-148,-145,846,268,-160,-431,-510
97,854,331,67,44,1002,507,187,22,-32
233,831,160,-26,-119,170,349,230,118,70
138,602,-105,-68,-147,-148,257,171,96,50
-19,8,-216,-53,177,520,475,59,52,40
-122,-574,-337,-117,593,1404,570,118,62,-3
103,-523,-131,13,608,1467,391,279,261,194
188,-297,139,256,30,276,192,-10,140,153
50,36,53,166,-299,-66,264,-283,-84,-96
-65,325,-99,-95,-339,138,160,-421,-217,-339
-37,793,-132,-150,-263,-41,-49,-424,-228,-285
92,770,-2,-86,-10,134,-118,-207,-94,-44
159,393,96,-195,170,851,-47,-12,-5,42
89,212,-75,-662,21,606,-142,-33,-62,-53
-30,41,-193,-446,221,-628,-505,-85,-142,-156
-260,-193,-199,206,-174,-1647,-904,-234,-355,-408
-322,-324,-193,120,-549,-1572,-788,-127,-334,-467
-207,-364,-55,100,-153,-298,-542,84,-59,-207
269,42,476,520,309,193,-447,280,375,330
634,491,796,744,292,-762,-148,493,610,645
515,478,640,575,79,-892,154,618,487,471
284,263,309,285,-82,-663,20,371,152,153
124,146,6,79,-68,-102,30,175,-2,14
145,-27,-90,-1,-5,239,626,247,184,146
130,-296,-182,31,51,358,1227,260,259,235
55,-377,-203,77,59,276,889,68,78,125
15,-207,-193,-60,-144,-149,514,66,-18,17
-73,-69,-228,-196,-343,-588,337,9,-61,-71
-110,-121,-197,-211,-312,-560,83,-287,-159,-144
-60,-146,-115,-224,41,-6,-18,-421,-230,-136
106,-87,-34,-441,413,875,-79,-74,14,83
301,18,126,-406,617,1309,-258,263,370,312
187,-50,208,210,506,824,-536,70,181,170
48,-108,219,818,242,2,-964,-120,-57,23
165,103,324,607,-176,-595,-966,121,138,163
210,544,271,162,-374,-742,-766,73,143,164
87,693,62,-122,-449,-514,-325,-3,7,38
-55,260,-91,-146,-339,-300,22,-17,-54,-5
-62,-208,-168,-36,-154,-76,742,25,78,124
-143,-392,-269,-112,-49,321,1098,49,83,88
-173,-372,-328,-170,50,459,630,28,-35,-36
-127,-247,-286,-173,97,525,301,-33,-121,-101
-100,-73,-124,-122,71,661,94,-185,-183,-116
-111,-1,53,86,149,338,-124,-288,-223,-124
-8,54,140,261,190,-430,-175,-102,-96,1
146,139,95,209,33,-403,-85,121,81,163
170,157,77,112,5,-108,-203,167,104,144
35,-5,-17,25,71,204,-156,125,35,43
3,12,-31,-33,71,194,-61,44,38,18
159,197,126,12,-11,-148,-33,-50,60,141
225,241,223,37,-102,-510,-174,-99,61,165
188,101,186,-16,-93,-413,-262,6,72,153
-40,-394,-65,-220,-80,-131,-216,142,3,25
-307,-908,-246,-320,-174,-274,-163,166,-105,-125
-354,-983,-196,-147,46,-555,-106,58,-105,-98
-183,-859,-131,69,452,14,116,-29,65,105
28,-728,-85,247,264,305,187,-55,161,252
-24,-763,-223,98,-52,-77,118,132,120,154
-128,-127,-166,-136,-240,-258,-74,405,73,-40
-64,469,37,-173,-258,-302,-390,352,61,-86
-28,11,-190,-231,-200,-251,-406,255,76,-82
143,424,-124,-226,20,33,64,239,222,-3
245,954,163,41,559,482,814,126,235,108
327,1033,416,299,573,509,606,-273,5,156
323,1320,438,371,27,111,164,-528,-160,80
184,643,215,291,-26,104,276,-277,-6,94
-30,-94,7,107,-42,91,279,-69,59,43
-215,-422,-30,-20,-124,39,212,-14,-19,-66
-225,-389,-14,-75,-78,220,90,-118,-135,-189
-159,-70,-12,-4,98,426,-81,-219,-222,-263
-193,-93,-82,-2,168,411,-248,-256,-267,-292
-242,-500,-81,-130,0,78,-448,-347,-290,-253
-222,-623,-195,-365,-113,154,-369,-272,-173,-127
-5,-147,-180,-799,-76,750,-55,158,171,146
167,210,-82,-969,384,1091,-34,443,375,278
9,224,45,71,417,-411,-478,77,22,-17
-207,-17,-110,623,-490,-1348,-157,-185,-282,-326
-221,-129,-240,283,-497,-372,357,-97,-270,-341
-60,248,-101,-11,-155,213,396,93,-126,-173
45,555,-3,-225,125,306,172,348,44,-33
61,336,44,-31,363,564,50,401,167,52
55,168,219,597,305,182,18,82,160,113
147,191,304,544,-43,-645,356,-194,131,215
216,216,251,277,-252,-888,471,-254,98,203
164,163,235,137,-264,-350,234,-117,62,116
-40,146,207,-22,-249,23,-82,-131,-114,-123
-376,96,85,-173,-129,243,-373,-371,-389,-477
-475,-53,126,-116,93,528,-455,-475,-468,-576
-246,-262,165,52,146,698,-376,-248,-171,-232
-53,-389,124,137,-5,24,-393,-145,41,32
201,4,160,96,-185,-1098,-456,-251,59,138
364,594,281,-10,-238,-1258,-430,-160,165,139
178,514,65,-108,-55,-416,-476,-198,-1,-80
-84,-132,-231,-117,174,1036,-108,-230,-236,-227
-202,-451,-140,-81,225,1732,181,-78,-259,-243
-329,-738,-390,-182,55,1388,173,0,-266,-281
-503,-983,-643,-331,-16,1445,240,-131,-382,-407
-230,-501,-430,-208,25,783,569,-21,-181,-144
289,-68,-102,39,41,-456,654,377,381,415
318,-679,-42,181,69,-912,34,400,459,487
100,-954,157,226,144,-1030,-340,144,243,265
-62,-501,233,74,56,-1247,-508,-109,7,28
0,-129,131,-21,-133,-1013,-519,-66,22,20
220,244,296,61,-159,-922,250,168,214,203
205,829,122,80,-47,-535,1189,384,287,222
269,1704,3,56,40,-75,535,570,446,321
274,1155,-68,-1,14,0,-261,495,442,331
98,220,-168,-42,-8,255,-218,225,188,180
91,41,-71,9,40,482,-27,163,108,155
102,32,75,-31,-78,324,-105,248,113,141
76,169,314,-74,-202,153,-136,256,72,97
19,347,565,-24,-172,180,-112,131,-36,-48
-53,341,607,111,43,402,43,24,-105,-193
1,430,621,182,132,242,225,89,-5,-173
13,349,373,113,35,-119,156,203,40,-130
-99,97,-114,-73,-209,-590,-257,266,-129,-208
-103,-95,-593,-247,-343,-808,-319,278,-174,-240
-154,-415,-916,-346,-261,-262,21,162,-164,-250
-226,-630,-1007,-405,-76,170,-101,-52,-180,-265
-205,-641,-751,-480,0,523,-110,-52,-27,-145
-49,-234,-284,-430,27,1055,189,-56,172,68
82,438,111,96,496,871,251,-281,41,124
12,374,234,453,710,561,-64,-664,-316,-14
-17,179,96,73,327,340,-54,-594,-298,-50
-66,28,73,167,225,330,151,-463,-233,-79
-115,-204,-58,238,181,563,160,-372,-208,-83
23,-132,93,288,179,226,-5,-244,-40,89
189,168,457,499,245,-270,29,-107,101,235
149,143,277,353,139,-345,76,-101,101,151
30,-49,-9,106,289,-98,41,-137,18,-18
-69,-236,-103,-44,294,240,27,-106,-116,-94
-205,-446,-103,-88,-271,119,-78,-174,-256,-168
-258,-490,-116,-154,-447,84,-161,-145,-226,-171
-214,-174,-130,-247,-148,613,-211,-173,-174,-196
-68,168,102,53,35,464,112,-133,-80,-110
98,338,240,222,-316,-400,549,238,180,103
25,72,7,-9,-582,-587,206,531,282,101
-150,-353,-217,-143,-525,-413,83,635,231,-7
-232,-566,-275,-110,-290,-325,207,480,133,-56
-195,-572,-209,-73,-80,282,365,64,11,-51
37,-342,46,104,194,987,331,-80,100,152
272,20,255,243,276,429,-20,152,384,384
274,229,284,89,133,-102,-352,257,422,354
275,-56,224,-225,-137,-639,-638,134,307,257
327,-215,190,-215,-93,-785,-60,155,271,283
292,462,354,285,132,-886,381,105,157,201
77,830,253,397,43,-697,-51,-125,-12,-33
-178,264,-171,87,125,146,-14,-135,-28,-157
-95,-84,-372,-273,81,975,255,-85,-11,-95
6,3,-424,-694,-24,1686,519,52,-68,-73
-8,178,-218,-334,389,1479,395,138,-107,-130
-63,132,101,478,171,-78,-237,-80,-200,-260
-73,126,175,407,-273,-696,-345,-192,-202,-241
17,128,182,257,-47,-596,-425,-209,-80,-2
151,-167,-2,316,238,-747,-465,-54,92,238
90,-486,-92,227,197,-545,-278,19,121,250
8,-463,31,121,61,-387,-314,-43,32,149
36,-172,143,23,-65,-448,-463,30,13,91
93,106,80,5,-14,-301,-299,286,148,107
98,-38,-38,0,-45,-339,11,387,221,69
85,246,-114,-130,-300,-531,101,297,122,-40
106,435,-133,-159,-279,-385,73,250,86,-55
72,66,-31,-73,152,98,86,1,-64,-77
88,-145,132,22,392,534,105,-225,-95,-56
-16,-116,143,44,-39,187,-211,-486,-185,-176
-108,300,143,7,-402,-261,-614,-597,-311,-370
-67,578,114,-60,-313,-227,-660,-340,-165,-300
-56,-54,89,31,-83,-280,-410,-75,-97,-169
39,-495,194,219,77,-471,-195,-15,-5,29
10,-626,250,219,27,-737,-569,-186,-48,40
-147,-618,89,8,-72,-469,-830,-418,-210,-115
-221,-133,-75,-201,-105,291,-543,-459,-329,-264
-285,-278,-315,-357,-187,630,-242,-392,-374,-354
-419,-897,-749,-436,-19,708,28,-180,-303,-440
-308,-439,-592,-259,248,1075,1289,248,-77,-295
-70,475,-37,-148,-171,196,1903,275,-58,-86
53,963,189,-292,-445,-480,978,168,-91,-38
-151,689,-92,-414,-82,532,582,77,-203,-179
-179,141,-189,-356,356,1414,670,123,-180,-116
51,55,-183,-309,459,1319,835,400,147,161
24,-28,-201,-239,507,1648,763,248,189,162
5,4,42,136,406,637,202,-229,-28,80
166,237,542,974,400,-1136,-257,-345,-29,201
281,414,654,1021,-110,-1989,-322,-159,110,306
264,288,474,614,-276,-1827,-340,90,242,321
254,76,214,349,-101,-937,-346,253,379,367
239,71,77,253,57,-248,-272,197,323,319
210,41,-39,182,132,184,-177,25,222,281
211,-32,9,140,114,259,-82,-154,176,238
96,-172,51,92,112,461,38,-214,49,85
-69,-314,-15,-36,47,761,63,-97,-55,-8
-108,109,-57,-124,13,946,-2,36,-65,-24
-82,469,-66,-169,-14,931,-86,47,-60,-63
-116,209,-131,-281,-171,331,-167,37,-60,-112
-79,-87,-202,-299,-332,-789,-235,131,111,20
4,-275,-125,-80,-126,-1079,-293,62,173,138
39,-288,67,192,203,-721,-557,-66,78,158
176,-152,261,334,230,-604,-707,189,172,269
331,5,320,198,-105,-1062,-766,377,306,389
187,-65,-6,-360,-519,-1254,-656,318,213,203
-241,-357,-480,-604,-459,-977,-443,193,-92,-222
-365,-374,-342,-99,-189,-790,-86,64,-208,-344
-172,-166,-56,211,-10,-17,1729,25,-46,-144
-5,-128,68,288,262,534,2010,-79,-5,-24
-79,-376,-12,132,177,413,727,-286,-168,-121
-166,-621,-116,-88,-135,148,158,-374,-257,-211
-288,-872,-198,-224,-348,-141,-128,-644,-426,-310
-459,-933,-279,-346,-390,-116,-138,-850,-617,-483
-461,-334,-261,-333,-91,876,356,-679,-546,-496
-299,421,-87,-76,451,2199,882,-337,-274,-270
191,419,295,385,713,981,407,13,204,272
568,300,395,372,452,-278,-82,276,607,624
321,-99,-21,-235,268,269,-119,325,497,419
105,-307,-283,-863,110,927,91,536,361,235
-39,-262,-321,-683,66,1161,169,438,105,-9
-169,290,-105,370,220,770,-231,7,-239,-247
74,1117,226,762,113,-288,-475,-47,-113,-23
425,1177,625,664,45,-1550,-549,91,233,357
313,556,640,464,-88,-1469,-602,71,239,300
-77,-22,428,218,-81,-597,-534,-87,-32,-28
-304,-145,640,94,-117,-279,-494,-264,-288,-293
-428,-110,686,-40,-200,233,-196,-252,-386,-437
-418,-100,324,-123,-114,883,52,-163,-340,-391
-241,45,-110,-22,64,801,68,-133,-198,-213
-15,191,-351,-16,-139,16,3,-27,-10,-11
137,476,-359,-99,-200,-220,-128,191,177,95
221,616,-216,-34,-186,-991,-547,416,324,178
224,349,-147,-36,-417,-1789,-805,740,481,299
-36,46,-449,-292,-564,-1290,-823,865,399,92
-321,-221,-656,-470,-509,-609,-735,722,171,-180
-292,-307,-625,-416,-212,-66,-461,440,32,-199
64,-19,-274,-62,186,25,-137,252,135,111
246,252,-37,56,203,-58,63,-3,194,253
143,217,-115,-108,133,89,-38,-553,14,94
137,114,2,2,370,507,176,-899,-200,39
279,46,189,56,633,715,517,-700,-87,256
427,-69,3,-316,543,637,939,-115,210,506
369,-84,-22,-285,4,116,1232,-35,124,392
125,-42,170,442,-88,-213,830,-252,-132,79
1,227,264,610,91,-58,528,-73,-92,-24
85,393,292,400,127,-131,300,110,72,42
104,240,214,167,346,-224,179,108,105,60
6,56,88,34,582,415,420,128,65,17
-76,-148,70,143,-51,114,213,-35,-102,-45
-128,-501,59,162,-569,-627,-161,-117,-146,-40
-136,-835,30,150,-282,-486,-294,-50,-43,3
-112,-996,-55,134,-18,-369,-456,-113,-72,-43
-62,-735,-249,-97,-140,-399,-618,-88,-129,-91
-43,-154,-385,-377,-299,-536,-866,-23,-160,-195
35,115,-240,-360,-154,-266,-343,373,58,-117
82,771,-14,-157,-150,60,534,815,306,36
75,857,-32,-126,-231,-31,313,810,381,106
46,315,-107,-201,-224,-111,119,616,290,78
-5,-2,-62,-166,-75,96,314,317,117,13
60,-40,132,2,59,180,241,-48,0,36
136,33,232,204,150,52,67,-338,-95,49
95,-86,200,342,223,-35,83,-368,-150,20
27,-270,163,238,123,4,61,-444,-224,-1
-58,-196,108,140,34,-23,33,-402,-282,-91
-30,265,115,91,-41,-138,74,-256,-230,-133
-36,236,23,-6,-119,-157,96,-148,-176,-121
8,177,17,-78,-93,-75,96,-68,-111,-53
91,225,-32,-101,-16,-7,55,-15,-49,10
106,-204,-121,-90,50,45,17,-3,-18,13
-246,22,-170,-260,-139,285,107,-210,-341,-390
-190,692,42,-163,-49,361,-77,-184,-328,-359
-87,937,223,-27,117,499,-136,-92,-206,-236
-25,798,184,41,302,692,-85,10,-92,-159
6,217,10,-50,155,355,-104,57,-80,-114
36,-134,-147,-246,-184,-235,-228,85,-82,-63
-2,-375,-246,-454,-312,-306,-246,139,-42,-60
-146,-602,-340,-646,-188,183,-99,218,-72,-150
-327,-870,-462,-651,91,1008,18,340,-65,-239
-373,-526,-365,-218,265,1040,-84,231,-116,-336
-224,0,-279,382,311,143,-376,-162,-215,-314
-32,-110,-87,584,148,-341,-524,-380,-207,-122
3,-200,252,448,111,-182,-262,-279,-73,11
13,-138,469,320,-73,-730,-71,-100,47,82
42,-44,480,188,-265,-1110,-259,3,138,121
146,398,496,132,-259,-781,-511,-36,200,173
82,334,74,-32,-263,-523,-592,-165,78,29
28,21,-387,-157,-169,-229,272,-28,57,-73
139,-59,-417,-126,-8,256,1445,459,265,75
212,-72,-166,-12,33,200,1068,747,474,283
248,-76,47,43,-50,-442,363,662,482,351
290,-16,142,43,-159,-793,137,449,352,323
216,-115,131,55,-98,-482,194,143,172,249
29,-324,-3,5,2,-185,155,-70,9,124
-51,-379,-90,-122,-50,-130,-30,4,30,129
53,116,-6,-135,-68,110,-111,241,156,174
42,557,48,-70,-39,243,-69,366,129,162
-77,210,-68,-109,-39,155,-51,215,56,66
-136,-153,-155,-80,86,342,-17,-321,-116,-50
90,71,130,135,196,430,92,-646,-142,115
327,340,453,356,244,291,245,-552,-77,252
187,111,396,317,182,53,276,-276,-104,99
0,-102,214,115,-29,-232,256,75,-93,-54
-43,-72,149,14,-195,-646,36,333,13,-66
-130,-395,-73,-160,-295,-752,-41,395,109,-75
-213,-445,-304,-412,-426,-609,-113,204,56,-154
-328,-178,-433,-507,-476,-369,-16,-9,-56,-263
-329,-347,-348,-282,-180,111,423,-245,-129,-287
-161,-402,-109,-26,163,621,647,-562,-208,-217
-50,46,-6,81,299,771,289,-695,-259,-174
64,656,-16,126,398,541,-356,-449,-56,-81
176,465,100,160,406,140,-777,-196,142,112
167,149,146,110,375,39,-783,-159,89,199
81,-39,41,-55,605,712,-322,-28,17,147
-30,-130,-13,-153,540,1277,133,-21,-106,-10
-200,-264,-107,-95,81,953,3,-286,-334,-229
-180,-265,-115,-13,-123,537,-133,-234,-275,-182
-34,-150,16,104,1,288,-186,4,-73,-16
132,43,297,418,179,-437,-342,140,67,161
260,217,425,495,126,-980,-427,240,163,285
188,117,294,234,-39,-726,-286,215,121,187
-87,-209,-9,-116,-232,-343,-216,48,-97,-115
-445,-570,-450,-533,-335,229,-411,-72,-305,-430
-536,-360,-535,-665,-256,819,-90,21,-337,-570
-284,28,-261,-130,-81,527,286,106,-259,-433
15,153,5,219,-12,124,-49,65,-125,-134
178,38,113,-72,-88,106,-244,65,85,159
446,144,321,-189,-117,-556,4,160,387,497
416,107,489,373,149,-1539,316,-10,303,461
177,-194,351,770,-60,-1874,208,-235,59,217
22,-421,-42,333,-237,-861,402,-114,-1,100
-149,-539,-173,-97,-240,-273,296,-73,-121,-65
-24,-50,271,-104,-188,26,-68,-49,-45,-21
194,635,501,79,55,943,51,45,109,96
187,505,126,113,320,1492,412,173,141,123
69,-87,-184,38,289,758,411,165,8,18
33,-444,-269,-213,-28,308,449,193,2,1
12,-786,-297,-455,-165,497,519,271,91,97
-27,-1139,-200,-253,-65,-3,304,299,167,174
-224,-1397,-141,178,95,-495,-65,39,-39,-49
-308,-884,-137,350,101,-238,-194,-182,-249,-278
-46,414,8,233,58,461,-103,-83,-189,-140
178,972,177,103,-59,207,-106,60,-39,48
173,1048,265,59,-98,-134,-26,198,80,148
135,898,328,74,-45,-266,40,224,114,171
149,937,312,81,13,-267,-3,72,70,147
120,704,118,21,13,-129,-43,6,75,128
62,227,-29,-47,-34,-20,-44,100,158,157
-53,-88,-194,-166,-69,175,-8,124,155,100
-113,-109,-195,-182,-70,266,-60,106,100,6
-147,-374,-172,-121,-96,98,-171,202,98,-3
-140,-539,-202,-80,-133,-260,-276,423,152,21
-90,-193,-114,-102,-177,-414,-390,548,201,51
-151,-10,-119,-178,-240,-265,-323,374,149,7
-189,-35,-165,-212,-143,98,-46,149,87,-58
-28,215,-110,-178,-23,145,-4,140,179,7
64,314,-26,-175,-5,-18,-35,195,234,76
113,510,82,-98,100,8,8,-88,74,177
275,877,386,110,235,-142,-8,-367,-63,299
186,639,358,26,174,-290,-186,-363,-77,186
-158,32,-112,-373,177,-40,-464,-289,-137,-124
-369,-482,-611,-786,369,1000,-279,-120,-86,-262
-373,-740,-758,-1049,28,1756,801,-4,-93,-262
-293,-699,-443,-629,-361,1304,1109,-346,-358,-280
-175,-412,5,107,10,1162,447,-612,-432,-200
-8,34,388,705,621,420,-87,-627,-279,-25
256,324,700,1268,764,-902,-458,-579,-95,207
191,132,544,1071,194,-1133,-541,-583,-240,74
166,4,279,523,-175,-724,-410,-243,-168,49
252,178,269,232,-332,-954,-358,45,34,99
254,454,305,105,-296,-773,-66,98,153,54
91,245,148,44,-208,-228,729,112,136,7
-91,-115,-3,17,-68,244,947,32,-2,-8
-70,-152,-56,-53,36,688,720,-7,-14,29
-36,-290,-96,-151,-26,898,653,122,39,36
-53,-488,7,42,142,741,385,109,0,-5
-94,-713,133,234,194,-22,-35,-24,-49,-9
-130,-991,93,153,32,-541,-152,-34,-15,16
-129,-1263,18,40,-106,-757,-238,1,37,66
-31,-682,64,-53,-251,-886,-376,-10,60,119
114,992,320,-102,-334,-724,-373,17,53,152
182,1615,291,-162,-389,-526,-392,94,57,160
51,822,-131,-243,-370,-271,-423,68,-25,4
-202,133,-277,-281,-272,34,-411,-90,-181,-239
-291,53,-234,-308,-160,359,-316,-162,-212,-326
-223,90,-301,-323,51,917,32,-67,-125,-281
37,169,-246,-414,156,1222,474,275,206,32
401,270,-68,-408,340,688,501,645,601,473
269,108,92,127,513,-391,-82,365,337,318
7,21,118,402,-37,-1146,-676,-48,-60,-48
79,150,76,120,-300,-871,-430,127,-10,-29
198,143,87,184,53,-90,102,380,183,102
214,85,9,205,258,444,421,363,311,108
91,76,-91,39,156,432,301,53,168,-43
-65,-121,-7,22,82,336,140,-219,-36,-100
-30,-399,53,150,116,166,-68,-348,-101,-26
14,-633,16,203,166,-56,-387,-381,-126,6
-61,-877,70,192,169,-222,-641,-352,-167,-43
-189,-1204,52,109,162,85,-602,-215,-162,-121
-262,-1335,14,2,25,206,-758,-182,-155,-201
-216,-343,121,-127,-295,-410,-1323,-417,-319,-348
-146,1235,61,-210,-421,-547,-918,-456,-380,-399
-24,1584,-63,-124,-173,-41,1014,-101,-152,-232
155,1110,20,128,177,298,1573,186,131,65
249,577,96,237,153,-22,560,294,340,298
120,263,64,108,-50,-369,32,317,282,231
-117,166,-162,-167,-207,-271,-70,231,38,-70
-323,-135,-673,-471,-343,62,96,158,-90,-335
-488,-446,-882,-634,-320,618,407,82,-111,-445
-391,-337,-556,-525,-136,846,291,86,-46,-315
-152,-101,-187,-123,48,790,153,247,108,-88
-79,-51,-19,210,317,1164,310,234,80,-17
152,190,222,386,522,967,356,0,-27,119
467,552,546,542,521,8,193,-220,10,354
478,549,472,497,401,-327,220,-314,76,331
303,321,196,316,302,-249,157,-274,102,134
129,116,17,132,105,-295,-11,-118,105,50
62,115,5,-35,-64,-288,-153,-48,122,87
82,35,-2,-178,-161,-188,-164,-1,154,154
51,-173,29,-119,-126,-98,-128,34,114,140
-125,-514,11,44,-150,-36,-219,-39,23,0
-232,-845,-109,37,-126,168,-216,-133,-31,-80
-242,-1145,-407,-37,1,269,-234,-254,-125,-143
-291,-1259,-711,-225,-71,344,-205,-301,-288,-273
-272,-718,-711,-288,-109,276,-185,-150,-281,-276
-114,148,-291,-160,-81,-14,-209,-7,-195,-161
102,773,518,58,-82,-61,95,136,-112,-19
285,1039,967,214,-167,-457,340,254,17,173
244,1096,527,47,-197,-333,229,201,39,175
117,845,-156,-145,-107,103,44,112,41,98
47,380,-351,-154,20,18,-103,1,13,7
30,-43,-205,-112,-110,-591,-219,31,-22,24
20,-93,-27,-19,-137,-578,-280,129,-24,-2
-64,8,4,-10,-78,-383,-442,17,-118,-154
-257,-134,-304,-358,-187,-422,-658,-345,-344,-375
-239,-149,-331,-422,-133,550,-438,-489,-409,-388
166,220,225,215,346,955,233,-183,-41,25
494,338,504,538,537,179,1097,322,416,407
292,-137,305,433,307,-247,804,375,416,375
19,-511,135,310,104,-389,236,227,260,207
-52,-539,-8,167,0,-302,49,148,145,107
-29,-467,-176,21,-77,-156,-1,63,43,34
-29,-293,-233,-64,-113,15,12,95,19,-24
-50,77,-101,-59,-81,49,-52,157,39,-57
20,470,106,54,22,-85,-248,169,106,-7
26,252,162,155,187,28,-343,187,158,34
-47,-176,74,67,122,38,-386,206,125,-7
-133,-467,-77,-83,48,1,-393,256,39,-91
-166,-189,-78,-108,294,236,-374,144,-68,-135
-14,407,24,-105,346,169,-376,-13,-80,-21
69,134,-50,-93,-316,-718,-469,-110,-38,41
27,214,-179,-105,-588,-760,-309,-122,-41,-24
78,455,-174,-135,-256,57,-136,-173,-51,-115
88,71,-194,-233,-60,785,472,-132,-45,-150
-217,-123,-350,-439,74,1309,1299,-121,-235,-329
-159,366,-288,-528,-1,825,1269,66,-86,-171
185,522,-3,-384,-265,-224,706,369,324,210
297,407,253,169,1,-308,75,382,460,345
202,323,352,703,373,-322,-451,-32,173,211
54,242,278,683,101,-449,-725,-428,-95,48
-102,58,97,209,-214,-198,-495,-313,-105,-43
-262,-125,-19,-35,-236,-8,-234,-143,-75,-143
-278,-24,-24,-134,-227,52,-69,-243,-126,-183
-171,49,-13,-149,-280,-210,-180,-341,-118,-92
-122,-82,-16,-81,-174,-515,-287,-198,-48,-43
-137,-328,-174,-364,-101,-79,-59,13,63,-6
-212,-485,-360,-490,262,371,85,-36,18,-64
-263,-233,-137,195,367,-288,-120,-216,-174,-221
70,366,396,618,127,-499,-87,87,-13,41
377,537,362,479,63,-529,-27,270,179,353
281,199,-16,44,93,-137,178,226,163,336
155,29,-158,-415,400,623,397,228,188,270
105,13,-54,-242,541,605,352,187,208,254
-138,-126,24,296,95,-230,-53,-135,-78,-42
-187,-117,10,156,-526,-784,-214,-238,-179,-164
-198,-134,-144,-231,-596,-550,32,-187,-153,-226
-278,-242,-280,-407,-245,-30,314,-149,-217,-270
-186,-197,-31,128,-119,-320,20,-230,-242,-189
32,-63,295,633,-73,-693,-475,-313,-121,3
248,-58,363,502,-12,-550,-641,-188,118,247
258,-170,297,336,144,97,-563,-142,131,263
220,-314,203,292,273,410,-154,-13,99,208
92,-569,31,69,100,226,451,52,52,97
-156,-629,-165,-227,-162,109,426,-74,-159,-124
-101,168,1,-106,-156,-3,227,-110,-185,-134
37,770,172,159,44,64,719,31,-55,-4
147,445,205,165,100,164,905,208,113,143
60,-48,115,16,37,267,557,172,66,65
-218,-437,-89,-139,-35,503,308,-54,-153,-189
-337,-473,-174,-219,-97,573,45,-203,-237,-331
-261,60,-103,-295,-225,551,-190,-307,-260,-367
-313,561,-27,-317,-165,774,-180,-372,-370,-423
-201,659,116,-171,126,836,-125,-203,-261,-305
174,396,189,44,106,-78,-107,189,120,104
281,-45,103,69,-55,-892,-120,344,259,262
273,-180,-16,-118,-254,-943,-102,331,243,221
151,-250,-195,-372,-420,-93,-34,215,122,56
18,-78,-159,-312,-235,543,42,-24,-71,-139
-51,-4,-79,-147,-32,258,177,-48,-71,-114
-38,-230,-194,-36,118,-9,282,131,105,32
1,-432,-130,147,454,402,278,195,187,140
150,-516,-103,206,538,57,7,149,196,278
239,-646,-324,-10,285,-315,-10,240,299,389
191,-278,-172,-99,120,-141,194,408,332,307
76,-210,47,146,181,-254,-6,161,80,24
34,-201,99,173,342,-388,-269,-71,-68,-56
-4,503,10,-67,296,-132,-136,-83,-65,-17
-57,656,-68,-16,-39,-218,-137,-91,-78,-9
26,324,-86,158,-283,-453,-185,67,64,78
207,460,77,180,-251,-712,-277,164,178,203
83,120,79,107,-88,-446,-121,101,60,78
106,-423,94,69,1,-122,129,238,169,151
235,-683,191,132,47,-229,62,270,329,266
210,-890,178,213,94,-335,-106,56,280,280
74,-945,179,227,114,-172,-139,-122,123,225
33,95,108,47,-22,37,-39,-141,11,102
197,1649,174,-50,-138,105,54,-101,-4,74
163,1255,54,-78,-57,146,84,-12,16,56
-25,317,-106,-142,55,234,82,62,14,-2
-96,68,-188,-246,-8,293,36,181,16,-50
-219,-200,-221,-145,138,503,22,266,11,-101
-212,-326,-155,0,165,230,4,344,116,-4
-69,-308,-112,-92,-212,-371,-166,384,226,178
65,-275,-38,-100,-314,-404,-379,379,288,285
64,-272,20,-1,-204,-406,-700,187,196,206
-2,-214,27,-32,-213,-473,-909,-129,15,73
-197,-88,-121,-229,-381,-565,-1211,-435,-279,-227
-509,-367,-336,-402,-501,-721,-1323,-512,-503,-576
-512,-290,-128,-297,-351,-471,-169,-237,-398,-544
-243,462,220,-31,38,393,1185,-118,-211,-273
18,1006,247,114,249,718,1239,-175,-78,-38
85,600,110,132,217,693,911,-250,-113,-23
39,170,32,158,260,855,636,-329,-235,-91
-128,-60,-84,108,402,950,479,-501,-419,-257
-95,-22,-73,84,473,831,303,-633,-455,-299
143,201,67,125,308,233,134,-456,-234,-125
173,168,137,168,125,-107,47,-277,-138,-8
99,105,131,155,18,-192,67,-159,-152,28
84,143,114,104,-29,-398,74,-53,-119,48
134,152,120,87,-59,-696,81,162,-7,117
135,90,62,30,-40,-497,136,325,79,124
36,-15,-57,-40,25,160,80,386,88,44
78,14,-34,-35,28,228,26,540,225,106
76,-70,-24,3,-10,-174,18,648,288,127
65,-124,-15,53,-55,-464,-52,563,270,102
73,-19,62,67,-92,-412,-168,203,81,8
-31,-75,-63,-103,-108,-42,-278,-124,-97,-137
-104,-268,-384,-605,-219,652,-77,-337,-109,-190
-102,-204,-592,-1131,-136,1411,293,-417,-84,-131
-67,215,-223,-320,555,703,21,-592,-269,-244
3,305,205,695,255,-669,-351,-553,-309,-283
242,312,388,681,-92,-1076,-255,-126,22,106
388,437,551,605,-48,-1059,-200,220,233,361
248,251,318,255,-176,-832,-135,405,212,291
56,-36,-41,-124,-350,-790,-79,481,111,90
-78,-200,-192,-287,-382,-732,-44,547,117,-85
-132,-233,-302,-333,-426,-614,-37,630,230,-114
-233,-277,-341,-225,-417,-425,13,571,196,-226
-344,-359,-292,-92,-160,-448,258,443,85,-269
-185,-217,-122,-9,-85,-670,231,75,56,-77
-5,-21,62,117,47,-207,119,-146,-12,41
47,-7,69,196,106,29,191,87,93,74
7,-49,1,160,17,-96,160,249,183,60
-33,-14,99,203,170,181,172,-68,40,-9
-53,69,144,190,293,539,82,-613,-198,-120
-82,88,227,149,216,523,-111,-814,-321,-192
-61,113,351,312,227,397,-238,-643,-331,-206
-22,99,315,337,168,164,-284,-459,-299,-187
-34,-208,75,149,1,-213,-211,-264,-218,-129
25,-598,-43,56,-82,-634,-251,-107,-108,30
118,-656,-12,-65,-84,-522,-241,-21,-56,125
172,-524,6,-215,160,-210,-184,71,4,117
101,-290,-90,-364,583,385,-191,112,60,2
-163,-172,-289,-244,486,818,-219,87,-4,-189
-423,44,-445,-71,-64,404,-260,-60,-185,-351
-489,143,-440,-86,-380,-185,-329,-62,-226,-379
-481,-623,-457,-334,-606,-838,-613,17,-252,-390
-271,-716,-237,-447,-727,-1376,-569,155,-180,-251
99,162,296,-105,-342,-982,931,348,31,41
274,1001,553,188,134,224,2005,172,49,122
229,1144,468,208,205,567,1088,-175,-31,91
140,863,353,318,243,293,213,-159,59,104
42,373,324,584,338,-135,-402,-167,33,60
-109,-110,47,387,312,67,-428,-128,38,21
-99,-305,-127,131,299,436,-74,65,202,152
-41,-312,-84,68,207,403,14,113,201,148
-113,-376,-65,44,114,521,15,11,34,-35
-70,-12,57,-14,11,458,-45,-126,-81,-131
108,500,137,-123,-103,183,-137,-101,-38,-8
347,710,69,-106,59,-101,-189,155,228,278
368,466,43,41,584,103,-160,345,386,386
399,394,134,204,486,-357,-58,422,415,417
216,239,-140,-72,-485,-1135,-9,368,219,203
56,46,-396,-336,-772,-971,-38,299,73,16
154,174,-155,-252,-371,-384,283,299,160,53
192,268,296,-69,-112,-182,755,170,158,38
63,-28,362,-1,-115,-200,570,-18,30,25
0,-329,355,89,-86,-226,193,-58,10,79
75,-419,323,102,-126,-332,-92,111,130,171
145,-411,130,-10,-256,-443,-279,313,296,276
76,-401,-173,-182,-237,-298,-304,414,299,210
8,-67,-280,-283,-46,89,-314,490,269,120
-55,181,-175,-219,-102,149,-603,216,45,0
-200,-1,-174,-47,67,255,-563,-273,-266,-163
-269,13,-241,24,372,733,157,-557,-366,-236
-145,8,-145,34,371,1199,602,-542,-326,-169
-66,18,-76,-37,61,750,279,-257,-217,-126
-119,3,-61,-105,-131,165,-114,53,-163,-183
-135,-5,-2,-105,-147,-331,-437,302,-81,-217
-91,-138,-92,-165,-129,-731,-627,543,145,-157
-39,-185,-176,-277,-323,-929,-755,756,309,-42
-55,-294,-266,-342,-456,-827,-613,654,273,41
-82,-316,-350,-320,-311,-393,-172,342,125,3
-181,-265,-280,-461,-171,989,178,-30,-126,-138
-15,53,-19,-545,234,2559,906,-99,-35,-10
198,431,312,49,930,1830,889,-604,-152,103
156,269,224,697,756,503,450,-1307,-538,-75
96,26,10,457,347,451,574,-1248,-505,-113
79,-29,23,276,236,-266,372,-877,-342,-29
206,138,147,281,11,-1060,81,-412,-50,138
309,316,255,210,-141,-699,105,-165,101,229
284,440,229,38,-105,-189,247,-77,112,199
38,257,163,33,-23,-98,120,-197,-40,-36
-233,-134,-75,-18,-164,-136,-49,-328,-198,-304
-402,-307,-340,-227,-224,402,242,-323,-325,-530
-326,-240,-307,-202,-21,1429,1021,26,-184,-409
-2,-75,17,45,136,1372,904,582,277,41
0,-191,28,-23,12,794,110,705,392,143
-27,-270,-144,-509,-305,334,-559,523,363,143
129,-40,12,-450,-67,-164,-880,280,280,195
70,120,293,235,45,-459,-1177,-112,-32,-7
-88,2,106,134,-272,-456,-1163,-80,-115,-162
101,237,105,-35,167,390,-564,245,102,23
157,152,230,389,346,399,-357,167,112,146
122,-163,220,438,-141,-447,-441,-51,41,215
147,-189,225,264,-282,-814,-581,-263,-60,223
-52,-338,145,272,-120,-890,-729,-366,-214,9
-249,-235,79,237,7,-455,-587,-288,-281,-193
-341,-105,-57,58,30,403,-692,-444,-380,-314
-408,-235,-214,-139,17,1121,-965,-866,-604,-443
-490,-474,-428,-360,-105,810,-649,-972,-711,-521
-174,-376,-336,-261,21,136,1019,-180,-145,-68
370,-64,165,349,536,343,2147,635,578,582
495,-238,288,567,533,87,1403,682,712,726
287,-471,91,228,219,-62,636,341,414,457
107,-546,-133,-313,103,316,576,281,255,232
73,-500,-182,-393,126,432,500,375,302,175
46,-14,12,232,14,-16,180,240,163,79
12,899,78,336,-260,-454,23,241,84,63
-13,639,-30,10,-379,-437,33,248,108,70
-2,61,-23,-142,-286,-181,-75,34,24,-14
-67,-68,44,-35,57,198,-80,-46,-39,-79
-111,-108,102,125,252,381,-51,7,-13,-75
11,41,199,157,90,146,-158,-76,11,16
185,271,250,32,-79,42,-128,-153,33,83
192,281,138,-10,-100,150,-12,-77,47,56
12,410,144,-5,-88,256,48,-45,-66,-77
-85,293,158,-50,-74,271,-8,-125,-121,-143
-75,48,34,-133,-117,271,-43,-284,-129,-142
-136,-154,-53,-143,-34,595,-60,-373,-171,-182
-209,10,-16,35,209,492,-135,-341,-223,-246
-196,355,-11,-8,124,-78,-302,-289,-277,-329
-97,172,-29,-54,-22,-223,-273,-152,-204,-251
-36,-91,-41,-38,-18,238,47,100,-12,-57
-20,-216,-57,-26,-49,159,191,153,65,0
21,-157,-145,-48,-64,107,139,53,30,-10
102,-78,-132,-73,-55,-4,58,54,66,66
89,-195,-15,-8,4,-13,96,182,144,147
-21,-392,29,27,80,286,80,236,128,107
-39,-319,-70,-80,-15,383,-3,315,172,63
-66,-409,-193,-147,-57,452,1,420,262,101
-71,-580,-214,-153,-73,368,-19,318,286,131
13,-504,-110,-200,-101,122,-165,-10,95,119
179,127,26,-239,-85,-73,-179,-90,16,147
175,794,219,45,261,323,322,-6,14,108
22,568,274,400,515,596,481,-122,-97,-44
7,362,175,242,495,478,29,-190,-92,-97
120,289,57,-57,450,160,-45,-60,64,13
115,94,74,15,120,-191,-45,33,108,135
-42,-144,-83,132,-320,-819,-365,-184,-86,0
-139,-241,-266,-51,-453,-1022,-356,-184,-140,-68
-41,-103,-209,-80,-410,-802,-159,2,-10,24
127,119,61,146,-156,-277,-80,76,56,112
164,8,160,180,-55,77,-56,107,164,164
63,133,-1,33,-126,46,-145,-24,96,32
-22,363,-116,-73,-164,64,-97,-122,-68,-114
-44,98,-178,-105,-163,53,40,-60,-114,-136
-6,-100,-155,-82,-127,23,86,33,-96,-86
-45,-139,52,-44,-106,38,74,-36,-163,-84
-61,-174,260,-1,-87,107,96,-107,-202,-50
-28,-221,136,82,33,167,145,-41,-115,19
1,-220,-44,79,82,108,19,92,21,84
-40,-102,-129,4,31,-4,-290,121,43,78
-66,-27,-144,-38,-29,-95,-558,55,-30,86
3,39,-60,-32,9,-88,-432,-36,-90,104
40,72,-5,-66,256,194,347,43,-51,109
-67,-113,-149,-325,321,676,538,148,-39,29
-357,-506,-504,-815,-204,1207,220,68,-176,-222
-284,-522,-408,-601,16,1103,268,195,10,-129
14,-177,102,367,238,-290,76,168,207,39
187,-41,288,571,0,-768,58,90,297,174
231,-141,297,402,35,-799,87,81,336,317
135,-359,211,334,64,-602,-41,-27,186,207
30,-649,-1,210,-2,-312,48,-32,44,49
-43,-777,-200,32,-156,-309,122,-9,-38,-26
-89,-720,-275,-99,-286,-392,56,45,-157,-104
-128,-859,-389,-224,-384,-443,-19,255,-194,-140
-171,2,-369,-290,-334,-200,-78,472,-105,-139
-228,943,-239,-434,-158,242,-197,652,51,-113
-222,604,-96,-602,-2,360,-550,649,176,-66
-157,672,177,-290,-65,5,-784,316,78,-105
-41,1105,322,223,-139,-219,-623,-173,-66,-86
172,893,303,372,21,-386,-308,-543,-123,89
265,608,340,386,182,-475,370,-465,-86,183
267,493,281,283,196,35,457,-104,114,200
282,523,242,165,87,332,275,63,259,204
117,470,175,16,-77,150,294,-175,47,25
7,412,162,5,4,204,347,-401,-152,-117
-38,223,159,85,115,202,199,-415,-274,-187
-111,-7,-14,-67,95,357,11,-296,-350,-237
-26,-133,-148,-293,31,621,-135,9,-163,-67
88,-182,-132,-336,-3,792,-251,205,104,113
53,-170,-60,-276,-67,361,-274,51,82,58
-201,-254,-68,37,227,283,-430,-332,-147,-220
-274,-277,-15,443,444,619,-636,-316,-155,-292
-18,-34,50,372,256,221,-605,4,14,-70
137,189,58,246,57,-443,60,198,86,38
138,306,179,210,16,-289,894,195,47,37
43,292,297,208,114,98,653,-183,-140,-90
80,297,341,220,194,425,306,-501,-235,-164
58,260,297,200,249,743,94,-532,-326,-226
94,134,150,134,95,151,-197,-274,-212,-103
286,-36,65,109,-165,-1077,-308,112,174,229
285,-127,31,41,-277,-1322,-265,184,239,286
-13,-437,-201,-182,-134,-415,-220,-75,-7,26
-151,-636,-360,-278,158,459,-32,-243,-115,-51
-58,-490,-204,-3,430,781,427,-67,38,40
-75,-244,-46,111,145,481,607,-55,-21,9
-112,57,-99,-46,-173,177,406,-155,-138,-39
-53,23,-101,-34,-19,301,266,-97,-57,55
-54,-153,-151,-87,3,89,155,-113,-25,84
-23,-82,-183,-314,-131,29,181,-116,-23,43
70,57,-127,-484,-241,130,257,20,68,74
123,184,13,-168,-85,-362,-57,83,85,10
150,210,187,307,35,-1038,-477,121,102,-28
171,112,235,328,-88,-788,-589,225,214,75
113,161,214,162,-136,-218,-591,166,175,43
33,353,197,-58,-199,-261,-572,58,46,-54
40,393,87,-215,44,73,-88,126,101,-4
68,83,1,-78,194,346,323,245,185,90
-130,-634,-139,83,-112,-211,-57,169,72,-52
-216,-1039,-371,-37,-204,-404,-248,226,137,-91
-98,-881,-361,-203,-177,-129,-172,306,245,-21
-65,-763,-216,-273,68,446,-12,286,169,23
-104,-634,-124,-290,113,969,327,181,-27,-35
-168,-167,-135,-292,-324,386,345,-58,-265,-213
-31,170,-205,-375,-307,170,253,-76,-175,-105
76,91,-305,-601,-167,75,363,-67,-10,66
-91,-55,-144,-108,190,97,298,-391,-210,-141
-130,181,251,805,323,-71,-105,-624,-387,-297
85,624,463,658,105,-176,96,-239,-121,-46
197,683,416,316,-25,-264,403,93,113,142
97,229,270,200,8,-92,341,134,113,122
-33,-116,98,104,-1,-13,297,119,81,63
24,0,35,13,-71,-41,564,158,101,69
96,287,132,170,100,59,404,126,59,22
84,160,157,238,184,286,-282,-42,-22,-45
59,-72,176,180,172,250,-718,-217,-58,2
-24,-274,116,118,211,436,-663,-212,-16,23
-63,-456,38,89,249,614,-460,-98,97,67
-53,-733,-91,112,229,233,-384,-61,151,126
-10,-704,-38,63,57,-442,-359,-113,96,111
7,-436,31,-190,-52,-115,14,-7,84,73
113,-48,-165,-646,-55,959,633,398,262,174
224,859,-189,-508,299,896,593,558,387,245
62,1210,74,314,232,-262,-80,148,54,-7
-59,737,94,391,-237,-830,-358,57,-101,-92
-75,-2,-99,77,-347,-940,-297,254,38,13
-74,-251,-143,-55,-347,-1114,-335,250,110,50
-147,-364,-221,-126,-227,-813,-381,142,85,17
-126,-252,-304,-231,2,-140,-344,145,90,13
14,49,-103,-142,413,496,-62,120,66,57
166,293,111,78,463,976,357,128,44,193
177,421,94,46,-166,338,336,95,30,229
10,124,-183,-224,-382,286,439,69,-10,106
-47,-3,-192,-220,-307,313,385,-123,-84,18
-7,56,159,104,-38,13,307,-268,-136,6
70,225,453,236,88,-447,226,-115,-24,86
132,297,213,88,87,-490,189,6,56,143
159,153,-228,-309,-59,-43,223,177,206,173
131,6,-389,-377,-76,-51,4,225,207,181
89,73,-220,107,58,-480,-476,-33,-13,80
83,174,-13,106,-182,-501,-618,-121,-69,26
-2,137,164,49,-141,-199,-26,-60,-52,-46
-250,-204,51,68,-7,-23,235,-240,-169,-177
-314,-323,-134,0,10,-25,-18,-380,-200,-158
-152,-64,-236,-28,22,-57,-103,-142,-65,-59
2,12,-76,19,-42,-260,-61,139,119,103
19,32,57,28,-123,-286,-79,24,84,86
-48,41,-19,-28,-9,86,-26,-258,-87,-53
-142,-27,-200,-241,-41,40,7,-424,-244,-166
-183,-116,-308,-412,-85,282,176,-315,-265,-150
-145,-163,-195,-109,110,506,198,-71,-171,-56
-169,-268,-149,79,52,251,-42,52,-116,-47
-112,-168,-121,-5,-166,-121,-123,216,-14,-5
-34,1,-58,7,-225,-154,63,314,57,39
-30,177,41,-10,-239,-149,370,348,66,-8
-138,195,95,-102,-317,-344,63,370,30,-112
-291,-38,-21,-117,-217,-63,-157,413,-28,-230
-236,-131,-39,-17,81,293,-97,360,36,-129
27,24,101,65,297,300,-183,89,183,173
368,380,356,153,365,236,-349,-338,230,394
426,550,435,371,400,282,-414,-637,46,261
144,235,203,305,192,169,-362,-614,-105,71
67,351,151,207,139,191,-161,-454,-149,83
111,367,210,214,194,369,98,-206,-131,114
231,247,232,202,109,-107,122,146,19,205
268,267,217,76,129,-657,40,401,217,246
244,378,100,-148,243,-526,202,447,386,275
110,397,33,-115,-60,-269,237,-103,158,117
-96,90,136,219,-193,-405,-73,-745,-242,-144
-201,-198,11,139,-117,-353,-194,-667,-324,-244
-365,-407,-332,-396,-215,-239,-276,-476,-393,-399
-534,-486,-525,-592,-36,182,-334,-408,-507,-561
-491,-372,-359,-146,-96,768,-113,-251,-479,-507
-261,-178,-10,301,-212,782,487,34,-297,-288
-76,-257,69,245,-99,314,861,271,-96,-78
49,-419,82,120,-123,77,880,367,93,113
-85,-860,-46,8,-62,460,754,236,92,58
-54,-932,52,129,129,198,391,147,130,37
117,-779,145,240,118,-633,-3,219,209,98
166,-282,81,139,19,-654,-379,136,150,80
81,278,49,-28,-109,-294,-682,-55,31,-6
5,318,-100,-118,-147,-233,-763,-114,-69,-97
141,990,84,-109,-127,-333,-247,166,109,5
195,1363,288,-60,-128,-336,371,427,253,123
92,758,60,-80,-183,-332,207,356,173,117
9,18,-109,-196,-313,-621,-85,79,31,50
-161,-214,-159,-269,-287,-609,-83,-247,-267,-211
-272,17,-7,-57,97,-151,-15,-428,-469,-404
-205,483,156,107,300,317,-37,-396,-373,-334
-37,489,221,158,198,42,-110,-205,-76,-84
-123,32,67,62,92,-288,-205,-215,-59,-59
-206,-33,-67,-19,204,180,-111,-233,-112,-125
-21,-46,29,84,295,615,-9,27,148,91
168,-58,136,170,175,103,-159,176,297,261
111,-206,89,115,75,-284,-206,118,183,178
55,-252,77,92,135,-177,185,144,183,185
172,-102,86,179,182,-275,762,331,342,303
177,-322,-72,188,121,-304,632,362,361,305
-71,-843,-258,60,65,-58,457,213,144,91
-261,-1008,-338,-158,-13,-41,311,58,-34,-119
-299,-400,-448,-563,-122,233,285,3,-94,-205
-216,67,-476,-816,199,983,383,61,-42,-145
-228,180,-229,-154,614,719,92,-75,-124,-212
-240,293,-32,355,-19,-129,-286,-235,-212,-279
-56,273,-17,100,-136,422,-115,-61,-4,-114
104,161,67,-58,-51,828,85,126,181,55
136,72,174,-1,-261,130,33,175,197,90
0,-52,122,168,-198,-134,-22,132,99,-23
-218,-378,-43,183,128,368,135,96,0,-163
-342,-732,-98,105,182,145,183,53,-47,-223
-35,-413,281,242,-13,-1079,-25,206,199,90
218,-36,438,315,-102,-1136,-179,195,287,282
103,-291,71,180,-35,-229,-228,-51,76,102
28,-151,-131,-12,-96,41,-353,-199,-79,-37
143,628,-133,-154,-250,-242,-372,-126,-42,45
252,989,-42,-84,-245,-306,-274,32,64,160
185,434,147,-35,-51,-123,-179,65,71,114
2,-41,22,-310,142,77,-63,42,32,12
-129,-30,26,-130,156,13,-242,-118,-71,-85
-7,464,292,367,-55,-530,-397,-161,-32,-23
137,499,-59,196,-208,-703,188,54,135,150
65,0,-413,3,-148,-344,655,177,116,223
18,-86,-235,-47,-205,-292,322,179,65,219
-17,33,-42,-112,-361,-513,-241,93,28,125
-110,-95,-102,-199,-468,-558,-656,7,-49,-28
1,-92,44,12,-294,-312,-483,-40,23,62
62,-19,190,173,-61,-34,218,-84,81,80
-75,-191,-75,-109,-15,186,364,-144,1,-99
-193,-288,-345,-558,-58,672,180,-164,-95,-210
-339,-535,-557,-791,-147,660,58,-69,-147,-297
-498,-938,-615,-85,234,317,47,39,-236,-421
-157,-638,-327,464,472,291,46,316,15,-142
400,80,142,296,694,105,72,532,404,360
471,164,469,215,739,225,73,457,506,471
215,-39,505,376,256,294,-59,398,459,286
-51,39,220,297,-532,-370,-315,217,223,9
-50,311,141,90,-680,-417,-430,-30,96,-2
-3,220,204,134,-311,52,-407,-466,-190,-50
-18,24,86,186,4,504,-134,-674,-401,-137
20,33,-47,80,92,611,383,-437,-308,-99
54,115,-78,-173,20,412,354,-254,-241,-77
-36,49,-89,-210,20,207,145,-194,-191,-137
-9,92,4,81,57,-117,-16,-26,18,-100
116,197,96,138,68,-350,-84,232,233,36
169,167,142,136,30,-807,-167,431,300,180
116,95,161,105,-62,-941,-186,325,185,178
12,-54,125,70,-2,-423,-86,58,119,146
36,-104,160,110,108,254,61,-205,45,186
109,-13,226,160,174,568,53,-476,-71,206
-37,-93,33,28,173,680,135,-552,-237,-13
-212,-225,-171,-187,25,572,242,-343,-324,-214
-124,-152,-91,-243,-139,311,162,-78,-164,-89
54,51,174,75,-13,-243,-149,0,-41,85
57,67,209,198,105,-384,-207,-44,-56,85
-33,-149,2,-25,-52,-303,260,25,-73,16
-138,-345,-121,-147,-56,28,678,60,-133,-107
-27,-266,-47,-59,96,474,441,122,-11,-35
79,-305,85,130,217,372,33,160,68,41
-150,-815,-70,59,157,100,-49,-74,-176,-199
-242,-834,-121,-104,-4,7,-71,-305,-300,-302
-136,-224,52,-31,-15,65,-12,-320,-208,-142
-5,100,158,86,70,213,-150,-348,-153,-20
68,156,91,-53,11,163,-458,-407,-176,17
-30,315,-105,-356,-244,-97,-534,-321,-154,-62
1,944,-176,-371,-326,-196,-475,-132,-8,-91
-169,487,-257,-161,-125,611,-326,-32,-70,-197
-313,-402,-380,29,271,1373,-71,193,-4,-181
-156,-518,-209,135,316,371,72,579,244,30
-185,-844,-259,-196,56,174,239,827,307,74
-355,-1266,-535,-811,-86,1214,542,924,291,-25
-485,-1278,-630,-895,116,1566,615,573,72,-219
-543,-170,-267,49,266,618,172,-82,-246,-407
-289,761,136,622,256,-121,14,-150,-138,-174
81,436,253,284,280,-664,101,97,136,223
215,428,183,-93,224,-1084,-39,130,148,307
212,841,201,36,-101,-1499,-402,-46,-43,185
175,655,132,173,-113,-1039,-111,189,21,139
-29,7,-44,168,-35,-459,358,465,80,19
-207,-491,-273,-180,-114,-315,289,480,115,-92
17,-423,-268,-337,-78,-533,53,474,341,103
300,-107,-54,-206,-410,-904,-77,332,470,347
426,410,350,199,-534,-642,-184,-140,210,382
417,976,591,787,-120,-792,-271,-503,-157,240
390,980,454,661,-67,-880,-85,-460,-133,215
236,674,228,318,-113,-634,-20,-490,-88,174
120,277,14,-24,-51,-110,-99,-405,-82,137
139,55,-228,-679,-259,509,-97,-101,74,185
119,-39,-308,-1366,-557,1192,133,159,183,209
-49,-253,-220,-1196,-147,1647,359,280,109,78
-381,-519,60,392,973,487,-49,-64,-298,-328
-544,-642,184,1284,617,-1031,-536,-432,-568,-552
-281,-405,60,677,13,-1130,-287,-273,-280,-250
47,-9,143,489,104,-1076,-119,-99,-29,47
36,-55,179,400,109,-690,-159,-125,-52,12
-81,254,186,228,230,-190,-160,-196,-142,-133
-90,589,424,107,421,178,152,-181,-205,-177
29,655,540,92,216,143,400,-108,-182,-82
-23,346,116,-6,-378,-545,276,-148,-234,-131
33,179,-158,-75,-410,-791,365,30,-122,-56
126,102,-237,-88,-275,-697,490,260,54,58
138,50,-207,-49,-216,-450,374,349,156,104
166,175,-42,-40,-240,-501,41,331,221,47
99,152,-118,-120,-197,-328,-298,194,213,-76
-96,-119,-221,-151,-71,95,-405,42,72,-168
-135,-219,-139,-38,148,303,-443,9,5,-100
92,-35,22,89,190,-22,-494,81,124,129
176,100,111,112,83,-302,-554,0,87,157
50,-11,68,47,39,-316,-563,-183,-62,19
-26,0,-11,-89,-88,-395,-642,-376,-174,-90
-37,227,10,-213,-279,-586,-698,-457,-211,-169
52,257,-18,-187,-262,-682,-295,-306,-92,-78
212,237,107,-42,-105,-415,17,-12,90,86
189,-69,158,81,-28,224,-156,123,163,117
-209,-689,-72,-48,77,1286,-109,-186,-191,-229
-552,-1115,-361,-172,287,2318,-110,-577,-585,-554
-348,-910,-337,-154,294,2569,-139,-509,-528,-444
-27,-380,-169,-97,203,2147,501,-184,-288,-251
71,283,-73,-64,212,1579,1036,120,-56,-68
225,743,170,123,101,-61,573,320,280,291
90,-44,193,125,-38,-639,124,238,300,288
-200,-835,9,-46,77,683,163,109,100,42
-200,-706,83,-109,193,1151,113,90,48,-19
39,8,463,46,213,79,-80,164,182,123
193,546,414,99,109,-560,82,186,265,215
56,397,-70,-22,47,-506,402,25,137,-14
-34,465,-243,-106,25,-499,388,58,77,-90
-32,386,-238,-46,13,-1307,6,242,198,46
-71,-85,-320,-154,-168,-1949,-178,311,287,119
-94,-266,-419,-337,-273,-1499,175,335,235,77
-34,-310,-317,-94,164,-952,281,321,212,80
279,28,67,276,332,-1830,-200,190,249,242
437,158,247,349,103,-2468,-484,27,214,319
229,-214,229,233,-4,-2129,-407,-173,29,137
88,-526,167,134,-60,-1814,-312,-243,-49,14
75,-327,115,29,-110,-1673,-247,-121,14,29
-78,-30,-91,-116,-86,-1266,-124,-22,-44,-65
-288,-309,-255,-246,-114,-815,-117,78,-150,-273
-276,-231,-172,-265,-231,-1029,-339,157,-173,-310
-71,352,-91,-239,-264,-1293,-422,234,-30,-120
188,1022,-49,-189,-14,-890,-84,597,333,164
172,828,-79,-211,268,-637,215,628,374,205
-107,120,-207,-379,57,-1036,-37,52,-8,-22
-164,-47,-80,-285,-330,-1065,72,-500,-274,-83
-101,85,132,69,-59,-307,1623,-573,-319,-53
-217,21,144,323,272,321,1873,-540,-373,-165
-170,6,94,341,366,164,587,-402,-277,-136
-67,-61,1,162,217,-241,-307,-306,-153,-46
-7,-142,-28,44,122,-390,-499,-282,-111,18
61,-57,40,57,77,-290,-372,-246,-59,72
66,17,160,107,19,-616,-354,-216,-11,86
-19,-19,167,90,-80,-863,-396,-349,-73,2
1,-41,129,102,-88,-438,-340,-495,-202,-61
9,-193,112,113,140,540,-106,-427,-238,-119
-6,-400,-55,-219,392,998,69,-275,-192,-134
29,-403,-113,-518,490,625,194,3,-36,-47
65,-229,235,68,374,-612,50,241,108,68
-43,-289,316,462,-13,-1193,-200,200,58,-24
-43,-142,-9,-41,-732,-1086,-117,236,97,-27
-7,518,-81,-250,-838,-840,60,376,206,48
-41,570,-55,8,-464,-592,36,287,110,16
-27,112,-186,44,-270,-454,-61,199,58,16
57,115,-172,24,-45,-319,-131,41,56,7
184,305,-105,61,151,-159,-121,-185,92,79
119,153,-86,59,37,-235,-13,-182,53,89
-80,-299,-83,59,16,-117,89,-102,-105,-61
-60,-503,16,159,153,162,266,-10,-81,-22
-21,-686,33,222,275,363,317,119,60,76
54,-726,17,194,275,553,284,212,150,140
138,-428,24,63,75,254,155,145,88,90
192,361,31,-76,-153,5,86,142,68,36
138,606,-90,-109,-220,32,117,271,183,70
-17,-196,-360,-249,-274,106,16,416,228,15
-188,-609,-474,-384,-300,191,-89,490,138,-138
-268,-395,-323,-316,-206,292,-68,477,44,-216
-115,319,-169,-300,-276,32,-35,449,66,-90
101,647,-69,-353,-376,-411,-53,300,95,36
211,630,107,-359,-315,-178,162,-93,-14,23
120,337,102,-332,-138,584,442,-394,-184,-62
-29,1,112,36,305,896,294,-490,-240,-135
-124,-211,138,514,520,466,-212,-450,-187,-149
89,-21,170,371,149,-208,-465,-242,49,88
225,250,323,284,96,-246,-466,-176,70,164
176,168,378,313,271,-50,-524,-277,-75,85
238,92,400,353,308,-160,-615,-391,-132,70
261,190,281,251,198,-27,-513,-423,-148,-22
5,-23,-82,-35,65,225,-397,-375,-296,-191
-27,-20,-205,-423,3,600,-155,-125,-189,-100
165,190,-63,-459,287,770,410,205,90,154
111,-38,8,241,661,161,441,157,35,83
-77,-280,-41,415,361,167,259,93,-82,-116
-116,-81,-45,186,-174,135,45,156,-88,-176
-10,91,-3,70,-518,-560,-281,348,32,-72
46,2,-59,-40,-484,-691,-246,708,264,82
-105,-298,-336,-220,-462,-301,-254,917,325,18
-257,-535,-580,-365,-461,471,-222,902,189,-122
-372,-719,-548,-326,-331,852,-188,517,-43,-214
-440,-898,-544,-265,-172,1008,-257,-161,-282,-259
-274,-807,-275,-101,-58,1137,-65,-506,-262,-102
125,-382,250,357,277,472,611,-600,-58,197
402,181,540,636,509,-227,960,-704,28,348
272,456,343,390,434,118,469,-597,-43,195
143,698,200,124,175,184,9,-244,58,145
79,761,242,82,-44,64,-316,-94,95,99
-34,409,207,77,-91,175,-431,-178,-80,-46
-16,341,135,2,-54,287,-192,-214,-154,-62
40,274,102,0,29,249,45,-164,0,72
109,109,83,21,54,131,56,-42,162,215
80,0,81,51,57,-197,142,24,139,206
9,-72,54,18,32,-348,383,86,45,107
66,130,137,37,3,-299,357,133,-1,61
188,398,257,79,54,-153,113,113,-62,55
225,322,114,-68,293,201,-82,114,-118,92
169,60,-45,-262,317,362,-113,156,19,168
-53,-180,-58,-121,-194,-105,-361,-40,-94,2
-349,-516,-148,120,-131,286,-254,-158,-303,-292
-444,-688,-268,13,39,874,-27,-30,-331,-385
-297,-635,-213,-84,-86,493,-39,212,-154,-262
-152,-671,-221,-109,-263,38,55,414,66,-93
-62,-761,-215,-186,-390,9,311,391,208,56
30,-677,-83,-74,-303,149,338,40,108,142
56,-569,35,-46,-171,284,226,-262,-76,73
97,-318,120,-113,4,436,100,-200,-7,-7
166,410,151,-114,86,413,-91,-28,90,20
-16,992,68,166,92,141,-344,-101,-63,-103
-127,806,21,203,48,139,-223,-187,-197,-213
37,428,158,118,66,279,592,17,-26,-31
123,117,113,104,2,112,655,140,93,97
-35,-335,-39,119,66,-29,79,15,13,7
-138,-556,-101,138,205,324,-124,-90,-38,-79
-63,-468,98,118,225,853,-21,-6,60,21
51,-183,148,39,138,836,4,106,110,160
21,-1,-227,-157,97,858,-12,68,25,110
30,30,-387,-342,187,732,111,131,131,99
98,213,-212,-227,144,34,94,178,207,146
33,178,-145,-107,-71,-378,3,94,105,51
151,117,-48,-181,-75,-402,18,217,195,119
178,424,-25,-293,-168,-319,-101,235,188,41
-18,515,-14,-58,-261,-33,-310,130,25,-132
-159,68,27,227,-268,120,-381,66,-72,-213
-257,-386,-87,101,-261,90,-397,-35,-161,-266
-242,-442,-190,-71,-232,92,-283,-99,-182,-253
-88,-227,23,22,-13,-199,-143,-161,-142,-171
198,254,365,192,138,-625,-53,-233,-29,16
528,873,555,250,19,-338,74,-102,190,258
590,1034,543,126,-69,129,129,148,340,301
245,402,320,-107,-173,32,-94,306,233,137
52,259,269,-66,-185,-217,-439,206,24,-67
61,246,265,54,-140,-114,89,259,4,-93
-62,-221,-184,-216,-139,282,972,452,92,-91
-192,-292,-384,-287,-92,473,720,385,92,-90
-232,-319,-272,2,123,447,173,-35,-92,-87
-219,-571,-329,-63,358,783,-91,-397,-229,-60
-169,-525,-445,-537,372,1434,30,-426,-135,-22
-300,-464,-504,-620,241,1485,13,-540,-255,-157
-412,-437,-443,-299,132,1220,-19,-608,-382,-296
-372,-397,-280,-183,480,1666,267,-380,-321,-298
-196,-243,-7,68,595,1973,376,-131,-125,-128
169,265,417,415,380,-27,61,126,209,215
422,676,800,1067,51,-2230,-476,168,380,386
377,460,491,756,-383,-2029,-380,209,407,325
224,232,274,274,-385,-1073,-73,257,313,225
107,204,336,336,-121,-571,-132,143,122,169
20,103,243,371,44,-242,-215,49,23,98
3,105,82,134,-76,-66,-121,70,16,67
37,117,27,17,-113,0,-38,128,70,82
-2,-48,-50,-56,-121,64,6,208,155,88
-16,-122,-72,-37,-66,33,-98,232,174,85
-34,-116,-71,54,-41,-286,-330,174,115,61
-47,-129,-155,-63,-218,-509,-541,14,64,0
-93,-161,-208,-262,-343,-320,-791,-197,-34,-91
-197,-186,-291,-322,-318,-68,-729,-228,-196,-235
-238,18,-270,-225,-115,455,1,-36,-293,-300
-113,117,-41,-44,31,747,704,183,-132,-153
8,100,98,18,-60,189,339,77,-91,-5
-79,-23,53,-24,-157,-241,213,-239,-250,-92
-194,-203,-20,-42,-95,217,624,-299,-296,-166
-101,-136,48,70,207,819,664,-82,-62,-9
88,156,216,161,340,419,308,-115,57,140
215,214,298,194,346,136,95,-276,-5,158
272,55,315,204,258,-64,-68,-215,37,161
171,-143,191,67,84,31,-37,-14,100,92
115,-212,86,1,44,-2,42,124,187,36
51,-404,75,143,164,-221,-46,56,111,-32
-117,-286,-72,14,6,-196,-81,-116,-136,-174
-256,668,-138,-130,-17,237,-37,-250,-285,-318
-234,701,-158,-183,54,635,-141,-323,-325,-313
-176,115,-243,-260,-62,644,-140,-120,-194,-214
-125,-9,-215,-260,-153,465,-123,55,-54,-132
-45,9,-153,-198,-111,108,-118,200,25,-41
-43,-52,-169,-179,-101,-388,-157,487,180,22
120,28,11,-68,-125,-729,-136,846,416,232
227,77,134,-93,-143,-479,-31,796,358,323
185,-7,94,-139,-59,-124,14,519,318,317
41,-197,-39,13,47,-220,-53,316,215,187
-93,-266,-186,-207,-78,-208,-133,259,38,-11
-42,-69,-171,-426,-219,-86,-159,383,4,-13
41,124,-43,-94,-182,-27,157,599,141,6
43,61,47,148,37,198,218,289,154,25
108,75,175,216,418,709,459,-543,-23,79
133,19,218,334,581,1042,644,-1265,-263,84
-12,-160,208,455,384,905,321,-1332,-448,-90
-116,-284,161,404,384,818,-90,-882,-393,-196
1,-187,203,234,346,623,-406,-497,-161,-45
126,-26,352,149,25,205,-316,-351,-25,75
48,-136,254,168,-75,-70,-122,-419,-126,-29
33,-324,168,245,5,-379,-146,-364,-156,-11
28,45,180,198,-41,-448,-281,-245,-140,-19
-80,311,28,-41,-233,-291,-316,-144,-152,-86
-155,6,-143,-181,-320,-171,-401,-86,-143,-122
-131,-312,-202,-209,-343,-200,-586,-52,-118,-103
-179,-517,-234,-222,-255,94,-416,31,-162,-137
-111,-329,-120,-159,-117,208,416,238,19,-57
138,406,124,47,73,10,878,412,243,143
260,721,233,241,293,160,492,309,233,210
181,408,224,242,222,175,147,97,75,95
110,96,127,59,-81,4,-4,38,37,77
47,-251,-25,-54,-248,-45,57,152,131,136
-94,-565,-140,-65,-216,21,127,230,143,47
-59,-522,-184,-77,-93,125,84,187,176,-30
53,-326,-154,-86,-18,173,6,-24,122,-89
-34,-468,-202,-152,-59,187,-12,-113,-4,-165
-217,-654,-273,-270,-148,193,23,1,-18,-202
-257,-348,-217,-293,-117,194,25,4,-63,-222
-189,409,-105,-156,133,270,25,-10,-124,-197
13,592,31,-80,146,-34,-58,184,14,-14
133,259,125,-73,25,-194,-183,204,64,53
134,294,150,38,21,183,-194,-24,-45,-48
5,104,-81,-88,20,461,-61,-177,-87,-131
-41,-167,-214,-77,409,883,171,-153,-49,-117
-47,14,-55,120,511,893,443,-38,-31,-92
-123,51,-46,163,-72,158,165,-118,-188,-143
-146,-195,-76,76,-346,-203,-172,-244,-252,-163
-61,-132,-5,8,-59,107,-172,-196,-134,-93
84,54,-12,-58,123,59,-13,48,71,51
76,-2,-119,-71,-472,-618,-3,110,123,64
30,-181,-7,57,-958,-1177,-224,4,2,0
-56,-363,-94,-42,-769,-1012,-204,-16,-78,-100
-165,-546,-235,-82,-251,-415,-51,-43,-126,-215
1,-404,-71,-32,135,210,-1,62,43,-20
330,-233,72,-215,224,1046,159,426,469,417
512,147,81,-51,544,820,188,530,631,617
338,279,59,563,396,-202,-142,141,317,291
-127,-424,-234,279,-203,-355,-323,-112,-29,-170
-530,-651,-509,-180,-239,119,-378,-272,-321,-451
-367,76,-319,-108,11,496,171,-172,-237,-322
-33,1070,33,28,46,172,837,86,32,-41
113,1107,74,31,-79,-190,497,136,182,126
157,558,59,42,-75,-223,83,59,197,160
116,212,19,62,74,52,53,11,165,103
85,72,39,87,132,258,211,123,201,106
117,282,145,51,60,112,159,137,110,85
144,493,198,-97,-17,100,28,44,19,40
132,324,64,-364,-125,219,-24,24,51,64
82,-37,84,-129,69,-147,-174,-4,54,122
-36,-361,226,464,239,-410,-258,-109,-53,61
-7,-321,145,367,77,-155,-114,-48,-31,56
24,-249,-101,138,22,-83,-64,18,50,76
-32,-533,-189,32,-32,-179,-182,33,96,118
-39,-684,-138,-20,-174,-359,-363,81,125,134
-142,-454,-100,-142,-367,-501,-533,121,2,4
-319,-186,-213,-253,-343,-184,-576,62,-212,-222
-397,81,-218,-221,-64,531,-290,-32,-330,-360
-189,666,102,-126,35,566,468,55,-195,-226
39,606,74,-52,50,190,834,116,4,-27
-6,137,-100,-31,63,-35,490,-170,-46,0
-142,-303,-199,-27,47,-189,240,-300,-139,-42
-230,-526,-260,-123,5,58,82,-266,-132,-108
-262,-473,-300,-241,-36,713,79,-232,-129,-173
-158,-211,-172,-125,22,673,73,-142,-57,-146
39,130,127,108,182,288,57,53,103,0
143,468,286,132,217,125,102,198,197,125
136,418,246,37,211,168,91,261,196,143
131,144,132,-44,162,-27,-121,222,195,183
101,7,0,-184,18,-384,-296,184,232,187
14,-79,-66,-168,110,-473,-330,204,151,98
-8,-76,-109,-179,86,-280,-225,470,173,52
-67,-46,-20,-18,-228,-475,-134,508,94,-55
-92,-16,71,35,-258,-429,-30,272,-22,-149
-21,102,51,-153,-161,-274,-163,-56,-26,-159
-23,164,70,12,-105,-280,-320,-453,-66,-230
-79,71,96,212,-101,-12,-38,-717,-214,-232
-59,-32,-8,25,-72,531,284,-480,-81,-40
-76,-67,-132,-155,-8,518,447,-132,81,25
14,77,103,241,162,-303,336,-73,47,44
204,261,327,513,80,-1139,73,-41,81,202
112,145,215,266,-55,-664,-26,-41,-28,108
-129,-110,-22,28,124,649,-121,-108,-160,-85
49,47,32,79,257,785,-550,-239,-83,90
151,204,150,205,186,-105,-1026,-463,-114,145
-21,73,98,115,80,-120,-622,-437,-251,-9
22,110,107,100,109,170,397,-219,-165,55
183,239,205,238,162,75,661,-28,35,204
253,344,252,192,81,51,530,68,143,220
161,195,32,70,37,248,400,94,99,103
-5,-148,-99,35,71,335,140,85,3,7
-85,-243,-22,43,54,327,-165,26,-118,-85
-136,-188,-33,-63,-110,225,-370,50,-224,-193
-161,-190,-136,-220,-319,43,-421,187,-220,-252
-30,-29,-76,-228,-401,-214,-287,284,-108,-126
175,97,83,-93,-297,-378,245,328,38,79
233,50,126,0,-102,-399,316,319,166,166
120,-153,-19,-19,47,-226,115,218,254,64
-199,-550,-245,-152,-12,47,74,19,79,-171
-321,-774,-263,-206,-66,431,129,-157,-209,-247
-214,-565,-152,-125,22,769,188,-74,-257,-154
-160,-52,-84,-100,79,830,110,15,-151,-70
-252,-364,-229,-182,107,988,190,-73,-119,-97
-286,-1142,-328,-263,258,1106,438,-165,-89,-81
-181,-1185,-227,-211,606,1183,555,-180,-62,-25
-73,-508,20,-3,368,645,255,-111,-30,15
161,876,382,314,-266,-853,-218,-28,17,122
209,1527,402,390,-269,-1231,-262,52,78,165
130,709,161,196,-225,-867,-143,12,63,102
91,312,185,170,-136,-714,-266,-129,-82,-6
192,604,380,258,-1,-853,-619,-210,-109,29
234,418,270,141,-131,-862,-792,-223,-77,81
90,132,26,-27,-235,-688,-664,-86,-60,26
-76,222,-62,-121,-192,-428,-252,62,-62,-75
-237,22,-104,-195,-86,12,210,58,-147,-228
-189,-161,-91,-151,96,824,258,83,-88,-143
55,-109,0,-82,48,1090,300,268,162,157
106,23,73,-50,-75,694,237,105,138,171
-60,321,79,-35,-87,633,-6,-236,-141,-97
-281,31,-270,-283,-91,1035,-60,-265,-274,-379
-138,-210,-317,-223,110,722,-138,-27,-71,-260
160,-88,66,159,189,-550,121,240,171,60
163,-225,156,273,103,-901,411,338,251,182
68,-431,66,240,79,-590,282,228,195,136
-4,-602,-48,182,181,-34,163,65,54,38
-61,-708,-119,99,217,251,-15,32,-15,-26
-12,-448,66,40,155,43,-261,80,-72,-57
63,-133,142,-170,-67,-292,-398,59,-37,-34
36,-12,-113,-289,-145,-204,-255,77,70,-11
-48,90,-119,-73,-104,68,21,70,39,-58
-11,45,61,68,-223,-95,-191,-67,-48,-78
24,177,110,-23,-257,-47,-498,-110,-62,-76
-46,495,-11,-161,-125,508,-518,-11,-63,-117
-57,491,-24,-52,151,465,-156,35,-56,-108
79,441,163,169,268,-357,535,89,105,39
91,283,142,138,90,-563,616,64,162,91
-142,-215,-86,0,-43,-279,276,-91,-59,-79
-236,-428,-155,-22,-33,-36,416,-13,-136,-143
-155,-244,-69,12,-2,124,615,232,-36,-56
-58,-30,-39,3,1,347,653,344,78,49
-44,-154,-269,-227,-30,702,686,403,167,109
-56,-315,-527,-732,12,1365,824,586,307,144
-130,-388,-510,-788,330,1732,838,635,354,107
-276,-336,-207,128,298,443,77,73,23,-117
-165,-125,7,554,-236,-554,-516,-349,-102,-107
98,99,115,286,-228,-568,-623,-338,64,111
193,180,60,156,26,-328,-717,-332,35,165
109,78,-11,173,45,-281,-729,-409,-102,49
73,-61,-32,-97,-193,-214,-541,-401,-117,-24
41,-132,13,27,4,-189,-384,-323,-137,-68
71,-129,82,103,-88,-235,-219,-148,-41,19
171,-98,127,81,-319,-567,-243,40,105,139
154,-145,143,452,-212,-744,-397,117,174,153
150,81,-34,325,-154,-704,-241,274,229,187
229,405,-33,113,-226,-829,-3,537,364,331
178,135,-14,19,-245,-528,150,582,404,317
-8,-157,-58,45,-46,-87,154,365,229,106
-10,-168,-34,64,46,12,-53,199,229,13
75,-27,97,102,56,-59,-240,28,177,37
98,145,287,282,153,-69,-189,-349,-78,42
81,207,260,239,79,-132,-249,-606,-229,3
51,-31,99,90,38,-37,-26,-471,-172,-4
-2,-122,-45,-5,51,77,529,-242,-84,-36
-98,-142,-54,-8,98,186,376,-151,-114,-126
-136,-225,12,53,192,527,82,-77,-144,-179
-137,-183,18,-43,101,526,35,-60,-176,-185
-54,213,-1,-113,17,438,182,-82,-164,-115
32,465,29,-72,11,297,209,-6,-62,24
41,231,75,-23,55,215,106,54,-11,39
-2,97,-10,-134,222,328,41,145,-48,-49
-117,-105,-226,-336,202,280,23,292,-43,-130
-241,-123,-305,-351,-415,-400,-203,271,-97,-264
-153,17,-201,-219,-548,-595,-365,227,-54,-206
18,24,-11,-43,-185,17,-278,252,73,11
112,36,160,87,19,293,-107,275,203,153
86,-95,50,35,75,161,93,259,279,197
84,-158,-39,-26,146,261,347,161,263,207
122,-53,12,-10,131,139,333,-27,191,210
114,280,70,20,25,-205,75,-9,218,191
97,421,65,59,52,-292,-111,100,301,127
-36,52,-90,-3,28,-141,-225,8,219,-16
-342,-388,-305,-227,-162,237,-453,-366,-166,-268
-419,-544,-358,-324,-103,889,-401,-607,-452,-348
-418,-674,-363,-239,84,811,-164,-701,-576,-420
-318,-448,-198,-64,197,702,489,-593,-529,-411
-69,325,159,127,423,1123,1194,-320,-335,-147
206,612,331,153,282,246,900,-17,-79,190
320,504,315,15,-143,-782,340,16,54,243
154,564,204,47,-251,-528,135,-137,-148,3
72,674,215,175,-214,-369,15,-202,-249,-96
