10,-4,-29,0,-6,29,10,-17,-48,17
3,-16,10,8,12,32,3,-12,-57,4
22,-12,14,-5,21,41,-13,11,-48,20
30,-21,17,-13,12,21,-43,20,-15,40
-8,-24,24,3,26,10,-45,14,13,51
0,-11,33,23,21,0,-56,4,16,64
7,-2,29,7,-1,-16,-61,-19,-8,47
-32,-9,29,1,-1,-2,-6,-3,-73,-30
-68,-28,16,-4,11,8,27,5,-82,-70
-84,-27,-70,8,9,19,38,25,-23,-59
-80,-14,-63,0,3,28,38,36,-23,-48
-60,-9,13,-7,-3,15,36,15,-54,-39
-51,-12,20,-10,0,9,33,16,-36,-11
-32,-4,13,-8,-8,15,26,18,-2,26
12,2,-28,1,-19,7,22,-7,4,38
61,21,-8,6,-29,-18,5,-36,-18,40
77,28,19,4,-23,-35,-39,-55,-57,21
81,18,16,12,-20,-35,-40,-54,-56,-4
63,21,12,21,-7,-29,-46,-55,-43,-29
47,12,1,10,-5,-32,-33,-38,-31,-19
53,13,20,-12,-24,-34,-35,-19,-3,0
54,13,15,-27,-24,-34,-39,-17,1,13
56,42,18,-21,-26,-31,-35,-11,22,0
52,78,34,-29,-25,-14,-44,9,35,-8
26,82,44,-24,-32,-15,-73,3,27,-4
-10,57,64,-2,-36,-41,-97,-20,16,-73
-77,-3,55,0,-27,-39,-41,-13,15,-121
-144,-101,148,0,-42,-44,31,23,5,-146
-162,-181,348,46,-48,-60,2,-13,-41,-167
-156,-257,321,98,-34,-46,-40,-55,-81,-160
-148,-266,130,96,-23,-51,-67,-83,-68,-88
-155,-240,-79,18,-47,-69,-81,-97,-19,-19
-147,-230,-247,-76,-94,-106,-92,-100,29,26
-109,-136,-194,-122,-126,-124,-95,-109,58,46
12,92,35,-103,-116,-108,-77,-78,108,112
68,181,123,-70,-78,-69,-66,-43,203,161
48,104,-35,-48,-70,-35,-81,-34,228,125
30,68,-246,-78,-114,-52,-130,-78,139,39
0,166,-255,-145,-177,-134,-272,-206,-104,-131
-29,331,178,-166,-272,-258,-348,-305,-296,-243
-88,355,520,-168,-371,-340,-291,-303,-329,-255
-147,296,563,-178,-408,-332,-145,-181,-264,-199
-87,271,334,-195,-389,-281,-36,-50,-51,113
-69,106,34,-204,-224,-155,-20,-14,196,378
-122,-241,-273,-167,-21,52,151,118,373,394
-94,-435,-480,-35,137,229,319,273,432,268
30,-343,-576,36,107,164,172,140,319,230
157,-234,-498,78,23,71,-79,-116,58,387
129,-84,-141,152,-17,17,-240,-330,-221,341
70,0,97,159,-131,-81,-281,-424,-380,236
47,15,163,110,-281,-191,-299,-404,-373,359
-84,-122,130,181,-57,-112,-344,-482,-527,653
-206,-292,5,237,367,88,-242,-443,-652,197
-143,-353,-140,164,493,184,6,-167,-376,-285
12,-433,-224,30,247,199,206,124,180,36
108,-349,-138,3,9,239,229,213,503,350
175,142,-103,19,-164,119,60,9,232,98
246,293,-218,42,-343,-119,-179,-258,-74,-220
344,377,-312,-52,-471,-308,-256,-297,-20,-153
424,463,-189,-82,-327,-342,-237,-237,140,-186
211,203,-6,84,-14,-69,-87,-122,168,-502
18,71,406,208,252,314,82,-88,-125,-780
21,174,1149,325,390,451,-153,-419,-589,-999
48,353,1097,336,139,120,-602,-866,-810,-927
-11,334,537,302,-281,-94,-673,-1059,-796,-320
-92,153,-37,124,-274,-65,-343,-961,-597,164
-150,-88,-590,-208,-134,-66,5,-660,-101,28
0,-76,-603,-383,-251,-316,46,-488,355,153
101,33,-161,-294,-307,-566,-267,-690,271,427
-6,-69,-76,-134,147,-97,-224,-719,16,455
-26,-54,-171,20,467,474,247,-437,149,393
1,127,-158,37,-133,288,316,-419,213,218
-15,312,-101,72,-669,-166,-97,-791,-200,-336
47,366,112,101,-894,-542,-438,-1034,-597,-555
166,394,490,17,-973,-829,-629,-1164,-1117,-166
105,360,447,-91,-651,-831,-914,-1454,-1589,565
-180,103,85,-127,259,-314,-925,-1565,-1730,943
-381,-17,398,19,1032,88,-637,-1286,-1374,352
-475,-72,848,136,805,-114,-761,-1267,-919,-709
-532,-394,540,-118,16,-407,-485,-841,-318,-940
-536,-631,-80,-191,62,107,332,-81,205,-428
-483,-643,-640,50,959,1055,498,-67,302,-167
-52,-525,-912,32,745,910,333,-93,702,512
239,-345,-585,47,-71,273,-93,-265,548,920
341,57,-298,10,-401,-102,-381,-399,209,714
498,459,-428,-235,-558,-425,-205,-149,266,306
403,338,-57,-330,-701,-635,-44,72,558,-12
128,78,569,-91,-29,-49,125,27,696,-77
64,211,823,272,679,320,28,-330,593,8
0,276,550,417,900,285,-393,-846,75,-22
-424,-163,-152,268,961,501,-545,-1146,-897,-322
-749,-465,-670,-28,733,706,-91,-816,-1416,-731
-658,-218,-154,35,568,715,166,-455,-1174,-1259
-359,190,414,126,626,566,171,-274,-597,-1120
-59,294,210,-23,398,213,86,-62,-128,35
-48,-86,-158,-100,-80,-140,-116,9,463,699
-81,-253,-533,-80,-23,-81,-151,32,870,502
58,-17,-680,76,284,205,26,89,385,-39
265,290,-287,282,321,173,114,-76,-364,-371
374,457,223,411,445,34,12,-364,-549,-119
288,328,83,282,578,229,21,-413,55,127
222,149,-125,228,58,213,-21,-428,445,16
290,57,-215,179,-760,-67,28,-401,480,-51
420,34,-106,128,-1050,-532,38,-484,458,190
445,51,39,92,-1148,-861,300,-460,388,285
162,-43,-144,-55,-1035,-558,1634,106,436,244
-202,-295,-346,14,-164,-37,2495,332,87,163
-294,-282,-68,266,1244,518,2074,-175,-551,-150
-159,-13,409,184,766,241,1569,-512,-554,-468
-153,229,398,-101,157,-290,1510,-497,-33,-568
-387,101,44,-115,1096,371,1862,-804,310,-469
-475,-273,-234,-15,1934,892,2042,-1153,826,-56
-40,-48,-222,-100,1128,621,2109,-1004,1792,482
326,493,-12,-118,187,412,2361,-686,2304,587
235,557,-52,-68,363,560,2492,-669,1808,100
-69,45,-331,-126,655,770,2477,-771,1139,-306
8,-105,-290,-249,465,573,2253,-985,705,65
111,56,66,-182,259,274,2005,-1139,635,671
109,135,118,10,269,198,1950,-1167,695,853
120,36,53,24,238,255,2111,-1040,815,822
-40,-104,-71,-34,201,244,2054,-1099,932,330
-195,-64,-159,6,57,38,1776,-1257,965,-353
-248,-24,-291,55,-61,-38,1685,-1186,1090,-284
-223,-76,-435,48,159,33,1649,-1078,1166,324
-64,0,-488,-87,166,-112,1578,-970,1417,1063
21,-60,-449,-157,22,-241,1605,-896,1634,840
17,-41,-226,-5,23,-139,1508,-1179,1447,-2
87,63,-61,87,18,-89,1244,-1494,1480,-403
57,141,189,127,-78,-159,966,-1696,1229,-685
-243,295,846,238,-437,-553,572,-1936,-15,-1148
-507,296,910,106,-645,-807,734,-1724,-759,-870
-559,95,419,-77,-643,-674,1241,-1262,-381,-21
-405,200,175,-134,-917,-544,1598,-765,764,578
-152,351,106,-173,-989,-757,1221,-831,1583,914
29,273,32,-324,-949,-835,842,-843,1730,1407
-325,-97,-163,-342,-172,135,812,-707,1486,1243
-771,-320,-216,-118,509,515,913,-483,1378,351
-822,-429,-16,-22,394,210,1196,-101,1270,-619
-963,-527,1142,42,2,97,1150,-202,1103,-1163
-1125,-448,2778,257,-810,-328,867,-931,-508,-1358
-1385,-494,2513,361,-542,-552,328,-1842,-2689,-1665
-1110,-10,1109,206,775,20,415,-1607,-2217,-1139
-737,589,-499,-156,668,292,1004,-675,-538,-490
-653,373,-1814,-474,85,-41,1001,-691,-495,-518
-339,-411,-2200,-510,891,249,782,-1213,-777,254
9,-594,-1766,-237,1777,880,776,-1269,-921,1572
243,-588,-1521,-140,1038,871,1005,-567,-501,2081
336,-477,-1406,-114,380,840,1195,148,655,1834
389,367,-841,86,488,866,1125,395,1714,897
366,686,-378,382,583,691,863,282,1422,-635
355,385,-192,551,527,511,682,310,800,-535
308,279,62,602,831,481,466,360,643,169
46,126,557,733,1314,612,237,292,323,-260
-162,-132,925,672,981,390,-117,146,-4,-1025
-149,-371,638,319,328,-5,-504,5,261,-943
-292,-366,62,157,131,-119,-689,-62,56,-502
-443,-460,-547,3,-45,-88,-523,408,-509,-165
-441,-687,-862,-183,192,507,325,1100,-670,110
-219,-593,-723,-45,669,1008,1038,1234,-428,70
25,-364,-609,127,629,928,1216,1142,-313,-294
196,-216,-563,218,279,595,834,918,-225,-181
202,-270,-261,290,-235,259,428,710,-56,399
154,-129,-138,241,-856,-51,112,493,213,752
209,-75,-260,83,-950,-377,-85,389,346,658
53,-335,-201,106,-160,-347,-41,520,412,442
-29,-307,-22,153,731,52,180,947,519,168
-35,-300,-36,243,1353,455,456,1208,572,-172
4,-340,-131,239,868,412,366,973,650,-62
51,-361,-88,71,-224,72,113,802,784,456
132,-268,32,-23,-476,-190,-25,768,695,800
155,-232,104,12,124,-47,91,899,620,831
141,-208,122,232,1186,310,186,705,407,743
228,-103,242,242,816,389,96,285,-385,644
172,-131,223,25,-310,225,87,-23,-956,435
-90,-310,79,-87,-710,161,441,196,212,-17
-298,-428,30,-14,-672,154,610,573,1535,-411
-205,-267,183,119,-487,-32,367,632,1349,-394
-33,-116,281,129,-385,-176,11,404,736,-76
-105,-203,227,69,-133,-108,-142,243,232,-250
-137,-253,147,-2,72,-35,173,433,-390,-515
-72,-262,55,-66,73,-16,269,310,-1238,-250
50,-184,49,21,153,34,-229,-196,-1619,114
287,-60,94,-62,-412,-407,-649,-128,-477,646
368,-67,-36,-324,-1065,-786,-594,459,954,933
39,-274,-167,-254,-529,-488,-472,660,1102,321
-276,-409,-106,-48,417,107,-269,647,982,-291
-360,-339,-7,127,653,499,-23,834,670,-481
-302,-204,104,256,267,452,29,624,-321,-377
-142,-96,168,277,-293,181,-85,56,-1387,-98
1,3,223,328,-733,-133,-449,-558,-2325,55
116,113,255,252,-1195,-616,-999,-816,-2504,97
114,113,81,-83,-1437,-890,-1158,-436,-1727,640
-198,-87,-215,-288,-621,-388,-808,216,-314,1020
-346,-119,-280,-224,514,160,-565,784,1112,1053
-229,37,-101,-79,781,538,-85,1438,1901,737
-195,-11,109,130,279,671,327,1908,1281,-124
-110,-243,158,251,-415,259,-13,1848,-68,-185
180,-250,143,175,-771,-164,-338,1885,12,604
323,-132,94,11,-940,-326,-366,1848,645,864
43,-165,-5,31,-528,-251,-488,1191,401,260
-256,-261,-97,136,-173,-51,-533,570,-568,-283
-268,-123,-54,164,-598,36,-279,556,-1246,-508
-48,180,169,113,-827,23,-229,644,-1293,-638
150,385,392,73,-472,-113,-550,537,-985,-613
-88,205,221,76,861,-11,-779,387,-182,-576
-226,153,114,56,1264,262,-646,362,319,-382
-165,387,298,72,-71,76,-657,356,-603,-397
-241,483,404,45,-970,-310,-976,213,-1609,-429
-78,604,874,-162,-1537,-706,-1053,360,-706,29
69,343,1170,-320,-1427,-675,-921,640,1143,178
-208,-98,672,-129,71,-103,-982,348,701,-329
-222,-345,-18,-187,1299,127,-1248,-129,-1170,-221
-148,-538,-496,-491,863,-126,-1462,-246,-1792,446
-224,-655,-425,-468,101,-297,-1397,-25,-1055,684
-43,-456,-313,-453,-242,-181,-828,593,-77,832
308,-329,-446,-481,-348,-63,-455,994,-168,753
447,-486,-457,-301,-115,101,-461,762,-927,549
358,-627,-546,-91,-19,169,-477,362,-832,548
463,-136,-464,-60,-464,-20,-546,383,-111,698
424,314,-241,86,-960,-210,-559,520,176,167
196,339,34,191,-1161,-391,-557,445,374,-311
239,312,530,-89,-1685,-633,-602,569,1196,424
248,104,526,-318,-1047,-484,-660,683,1471,881
94,-225,110,-132,782,46,-832,658,1240,773
196,-273,-169,-19,1088,135,-983,766,1318,966
319,14,239,-60,445,94,-683,985,1420,1126
297,351,650,-46,344,210,-378,1059,379,163
62,222,400,162,1273,785,-477,521,-1952,-1621
53,-12,-151,145,1098,680,-677,134,-2843,-2013
129,-58,-633,-124,281,210,-839,167,-1946,-1296
128,68,-557,-155,30,44,-907,-25,-931,-835
99,216,-312,-84,171,79,-706,46,-343,-880
203,310,-209,-84,239,100,-533,188,301,-934
330,284,-85,-140,-97,-54,-655,366,674,-777
270,294,434,-85,-358,-198,-767,539,-99,-603
183,326,622,-56,-317,-170,-694,522,-946,-424
128,199,238,-49,99,-62,-622,434,-358,56
-4,56,-198,72,657,-15,-649,412,279,312
-102,92,-263,208,667,77,-561,452,78,76
16,277,-101,101,195,35,-479,486,73,-23
174,457,-25,-16,-84,-62,-421,624,704,71
183,394,-30,7,-186,-37,-391,572,906,82
120,116,-55,-15,-338,-170,-545,292,300,61
239,-85,-182,-188,-560,-306,-640,75,-79,149
156,-99,-176,-84,-336,-219,-748,-82,219,95
115,7,-60,-7,-164,-202,-774,46,437,174
249,113,-17,-160,-384,-388,-756,170,-111,384
218,-3,-137,-324,-77,-266,-483,414,-334,427
118,-29,-114,-209,537,66,-201,716,186,106
16,112,93,60,118,105,-158,910,281,-427
25,278,339,232,-547,-77,-201,866,-352,-734
148,408,485,281,-1318,-440,-407,464,-934,-645
175,312,338,120,-1637,-759,-692,81,-863,-179
119,81,34,-220,-1175,-665,-771,19,-372,255
44,4,-63,-208,208,-340,-817,-72,-192,236
-52,121,22,41,1576,-38,-919,-84,102,34
81,411,344,28,661,7,-756,287,238,137
106,519,814,-118,-479,-159,-650,467,-276,77
-91,310,860,-133,-202,-277,-764,231,-856,-113
-280,-284,424,-120,458,-129,-729,142,-897,-143
-218,-652,14,-93,655,160,-441,306,-562,-152
7,-362,-62,-39,218,101,-442,213,-567,-294
201,-24,-50,-19,-123,-42,-567,69,-658,-369
268,46,-289,-102,-293,-107,-471,278,-365,-222
200,314,-563,-240,-231,-48,-349,486,-133,-184
74,204,-471,-129,352,250,-318,525,63,-259
105,81,-191,-8,323,249,-374,567,515,-145
189,148,6,7,-99,-21,-546,421,428,-76
213,144,28,-18,-217,-151,-666,210,-185,-60
158,60,-36,-55,-148,-149,-724,137,-736,-93
106,51,-26,-87,-218,-153,-686,259,-779,-122
95,69,-13,-111,-543,-77,-418,447,-570,-139
40,-13,-92,-144,-644,-143,-421,415,-302,-87
10,-82,-141,-163,-474,-285,-632,443,209,86
127,9,-61,-195,-803,-418,-606,625,862,306
156,181,66,-63,-751,-404,-574,648,1340,344
137,426,260,147,-273,-280,-537,516,838,174
293,627,360,11,-674,-303,-309,506,-149,124
183,414,129,-220,-365,-303,-526,247,-837,9
-261,-209,-324,-245,820,57,-701,13,-975,-268
-363,-431,-437,-231,1077,243,-480,264,-328,-153
-192,355,-86,-237,170,-47,-375,492,-115,-30
-315,972,181,-166,-161,-145,-549,276,-330,-144
-604,743,332,-53,72,-55,-549,107,-222,-240
-557,58,442,9,259,-30,-457,92,-292,-324
-312,-1049,128,49,195,-77,-477,97,-150,-23
-78,-1465,-224,6,98,1,-231,530,512,441
311,-755,-360,-54,78,192,72,938,516,321
397,-131,-223,86,104,196,-31,816,-105,-62
358,22,-153,131,0,32,-240,670,108,-81
215,36,-222,81,-73,138,-9,839,631,-197
97,122,-69,151,103,178,50,596,38,-448
175,127,-52,64,119,90,-46,219,-698,-51
283,60,-127,-136,-246,-121,-144,241,-1031,281
294,39,-111,-203,-341,-219,-325,310,-493,368
237,92,-50,-185,-302,-173,-403,337,900,510
242,144,-62,-219,-307,-123,-259,337,1650,758
182,84,-161,-200,-153,30,-129,216,782,577
55,33,-77,-42,-73,163,89,285,-721,-130
-85,-63,2,67,100,255,200,302,-1389,-426
-93,-72,43,111,217,170,-22,93,-1366,-126
-121,11,216,178,159,69,-202,-84,-817,-101
-247,-36,456,197,83,-37,-336,-236,-433,-299
-283,-82,621,141,-106,-224,-475,-260,-229,-410
-178,4,481,-58,-422,-361,-508,-144,23,-473
69,-16,96,-215,-524,-293,-342,83,326,-348
49,-127,-174,-170,-407,-218,-257,149,170,73
90,62,-213,-59,-131,-227,-346,101,-333,438
177,419,-231,-59,156,-120,-265,169,-606,351
146,726,38,-79,0,-24,18,277,-179,-44
-3,816,842,152,-283,47,179,409,723,-404
-147,799,1542,568,-570,12,105,416,1053,-803
-250,335,1288,580,-1114,-351,-171,108,14,-1282
-440,-546,102,232,-1172,-550,-458,-290,-1343,-1236
-441,-826,-858,60,-162,-280,-459,-351,-1942,-791
-56,-354,-927,-104,258,-101,-343,-153,-1401,-358
100,-3,-665,-143,79,-56,-381,-117,-699,-117
64,171,-486,-136,296,105,-189,97,-185,71
53,248,-249,-128,450,196,-21,293,93,103
-84,-54,-111,-25,1083,288,-86,191,-10,27
145,-295,-244,-122,999,287,-95,178,1,190
419,-89,-422,-326,144,74,-96,286,325,428
316,-68,-373,-306,-59,-32,-120,353,867,557
174,-81,-244,-188,-26,8,-92,425,1494,390
57,-87,31,-86,-101,-14,-111,479,1638,3
-131,-110,1018,25,-180,-135,-280,220,394,-518
-331,-162,1524,63,-186,-179,-381,-147,-982,-553
-441,-327,816,38,-80,-163,-330,-182,-1314,-126
-398,-309,-211,-52,18,-184,-332,-138,-975,52
-223,-116,-796,-151,-218,-140,-222,81,-413,152
33,-5,-816,-40,-241,143,195,544,295,355
382,192,-744,53,-130,160,280,579,442,389
635,441,-561,-31,-433,-90,119,377,150,366
620,539,-248,-162,-464,-252,20,265,-87,359
295,342,-125,-82,539,53,-96,-30,-352,121
190,237,-80,62,745,247,-116,-168,-305,-46
233,142,-82,81,87,58,-148,-153,-170,-166
242,35,35,42,-513,-200,-150,-42,115,-153
250,87,89,-76,-1034,-424,-143,62,340,-106
134,41,-11,-171,-925,-415,-188,74,331,-142
38,-16,-202,-250,-330,-229,-143,178,369,103
-75,-31,-263,-149,226,113,6,247,433,378
-257,4,-57,179,1227,698,203,261,269,215
-90,290,301,375,1158,620,231,329,194,52
35,326,388,255,409,253,130,283,139,-323
47,239,256,44,-11,71,105,196,20,-414
67,168,145,-50,-129,-70,-66,24,-9,-51
147,-24,-120,-104,-45,0,-37,88,59,188
206,-5,-108,22,128,133,92,303,145,214
226,167,104,92,103,83,99,400,94,240
233,217,122,43,21,-2,48,495,645,291
83,-24,10,16,8,27,123,669,2318,273
-61,-413,-134,90,127,182,203,697,3069,99
1,-282,-20,189,171,256,182,496,1308,-142
121,-46,111,73,-91,-1,-22,68,-1258,-202
81,-67,48,-50,-119,0,-104,-120,-2004,-265
89,-34,164,-31,-120,-20,-212,-179,-1495,-322
142,-4,226,-59,-377,-202,-295,-286,-1230,-138
151,-33,241,-142,-604,-314,-301,-420,-1324,36
51,-108,330,-137,-295,-293,-367,-637,-1394,-109
-127,-186,283,27,468,-67,-386,-729,-1206,-391
-154,26,152,83,402,61,-266,-513,-809,-335
-127,289,-101,15,-54,-16,-120,-202,-431,-85
-53,409,-178,20,-125,-43,13,-1,-209,176
-36,373,-81,28,-145,-49,74,156,73,324
-118,28,-164,7,84,84,-31,103,70,101
236,-37,-277,-101,111,61,-153,3,114,-102
380,153,-142,-69,-6,-21,-119,75,162,-266
197,109,19,92,56,7,-77,70,-222,-337
195,-184,-1,94,-77,-75,-153,-43,-382,-46
199,-258,10,26,-334,-207,-182,27,-176,264
103,-173,6,-49,-640,-272,-43,307,272,360
-160,-358,-54,-27,-770,-272,-18,309,361,91
-299,-459,-12,120,-1048,-395,-216,111,135,-74
-185,-374,-68,163,-1099,-265,-165,279,115,131
101,-125,-9,21,-699,-125,54,599,397,238
131,130,-102,-71,550,148,103,598,595,-22
1,106,-241,-57,1778,545,127,514,705,-146
110,55,-131,-74,1460,658,175,420,802,199
157,133,21,-50,495,324,23,122,818,453
31,127,287,33,110,48,-139,-229,659,344
-24,137,409,6,-77,-84,-198,-559,-94,48
-105,89,124,-103,-240,-93,-165,-663,-956,-220
-239,-110,-170,-141,-222,15,-29,-435,-1208,-287
-132,-87,-247,3,129,158,41,-178,-984,-349
157,102,-119,149,405,272,59,-147,-783,-388
127,103,-70,163,441,278,45,-228,-605,-357
5,32,-93,99,402,244,54,-168,-276,-252
74,71,-27,39,210,103,-49,-160,-152,-127
135,99,25,21,32,-42,-178,-182,-57,-24
218,240,61,87,-243,-245,-393,-286,35,-78
81,368,96,93,-524,-382,-455,-238,329,-95
-73,315,186,-153,-715,-248,66,316,810,-4
-174,210,258,-236,-242,-40,249,483,878,-76
-277,-132,119,-158,623,235,259,456,900,-178
-299,-406,43,-21,642,329,238,419,378,-377
-156,-419,-86,-18,184,145,96,289,-493,-348
-50,-436,-284,-48,8,73,149,420,-148,33
34,-180,-227,17,44,111,185,489,1908,205
202,185,-204,77,-14,84,100,289,2865,128
158,213,-18,202,-205,84,109,-5,843,12
-94,52,118,208,-618,-115,-56,-435,-2050,-11
-191,-49,131,47,-922,-333,-169,-585,-2800,-40
106,59,181,-149,-437,-243,-10,-303,-1787,89
300,106,186,-100,660,81,-47,-287,-1190,129
187,73,186,43,960,266,-45,-270,-983,-18
2,27,337,26,503,103,-97,-240,-566,-167
-109,-23,517,25,99,-70,-179,-252,-2,-163
-132,-98,333,12,-50,-131,-163,-225,192,-69
-157,-183,-225,-111,-230,-164,-119,-121,78,34
-161,-212,-712,-130,-475,-201,-86,-39,-57,138
-33,-29,-615,-43,-508,-94,74,140,96,235
110,148,-374,-10,-365,-12,189,287,402,328
62,101,-201,94,486,220,245,288,384,207
44,45,-78,153,842,391,293,308,401,43
114,31,-130,44,282,197,174,193,212,118
126,34,-170,-8,-8,38,41,67,90,230
107,48,-63,-3,-99,-40,-53,54,244,218
135,136,83,-8,-208,-154,-133,33,295,154
118,197,226,-61,-320,-215,-155,79,362,93
96,168,520,-159,-383,-136,-10,201,504,73
-44,95,849,-101,-50,-105,-102,1,301,-73
-219,-97,767,1,275,-20,-128,-137,56,-189
-272,-356,140,-19,73,25,68,26,315,-133
-229,-339,-344,-18,2,46,81,110,725,-186
-88,-169,-105,97,139,158,126,125,554,-239
74,-12,193,174,227,269,190,86,-207,-129
151,43,57,93,90,197,132,-20,-772,-66
134,-5,-356,3,-86,42,25,-96,-781,-134
97,0,-352,37,-243,-100,-83,-148,-576,-303
174,107,-215,-54,-532,-149,58,72,174,-165
204,165,-363,-200,-804,-204,189,264,847,85
-100,-78,-523,-47,102,81,28,-2,169,-204
-107,-123,-351,133,800,435,24,-76,-433,-217
68,26,-163,73,310,215,61,102,-230,116
47,217,-89,20,195,33,-50,90,10,200
55,394,48,5,227,-60,-229,-74,-48,272
46,341,58,-17,56,-96,-293,-207,-132,240
26,102,-53,-81,-101,-89,-175,-179,-2,188
117,-221,-155,-194,-359,-109,22,29,291,263
60,-30,-109,-236,-448,-161,19,96,606,138
-47,394,135,-167,-478,-280,-140,10,855,47
19,494,418,-163,-753,-351,-121,43,1024,231
-29,160,414,-57,-411,-135,-34,95,916,378
-297,-483,81,216,482,214,-79,-139,-56,199
-306,-645,-225,309,1003,385,-7,-210,-572,-199
29,-315,-251,82,468,226,169,-40,31,-292
139,56,-148,-14,-75,71,222,28,160,-482
32,196,-71,85,82,121,189,42,-586,-771
-10,228,9,172,299,261,172,-13,-1412,-687
27,239,105,178,-99,34,-7,-162,-1593,-383
-10,79,128,54,-487,-192,-49,-171,-1070,-208
34,4,23,-91,-323,-177,-2,-121,-772,-182
78,42,19,-102,313,8,-12,-190,-608,-115
-68,-50,234,-28,597,178,-13,-213,-113,133
17,-205,259,-30,297,93,-3,-103,343,377
230,-378,36,-71,-46,-77,-44,-25,677,484
190,-347,-166,-57,-149,-137,-69,-10,629,387
156,-200,-338,-18,2,-85,-49,21,111,222
163,-100,-253,13,109,77,172,346,-104,61
160,-29,-124,37,48,147,325,578,278,-87
134,10,-44,45,-44,97,306,552,1158,-73
168,75,52,36,-147,35,261,468,1345,38
101,18,20,63,128,160,134,111,281,67
111,-22,-43,70,178,187,75,-107,-570,308
243,56,27,-12,-156,1,47,-170,-637,523
181,32,92,27,-50,-16,22,-195,-440,335
17,-6,139,167,242,87,34,-135,-331,-61
-68,-10,175,239,-2,42,-13,-115,-100,-306
-60,32,165,150,-521,-96,6,-40,256,-294
15,139,116,51,-779,-229,-11,-20,264,-96
17,174,61,30,-105,-96,-26,-73,-53,-10
9,128,45,-7,440,130,114,42,-97,18
-21,-20,1,-17,595,138,121,36,81,-49
-42,-215,-59,-63,384,72,53,16,335,-45
-67,-264,-133,-31,85,73,51,125,463,2
-68,-165,-98,13,-110,51,97,296,641,30
-7,-37,106,-7,-291,-20,108,488,770,84
51,49,324,-33,-216,-78,-7,310,335,96
13,19,275,-45,90,-13,33,107,99,43
-92,-71,105,-69,131,26,114,118,388,-2
-134,-91,18,-29,166,32,35,-30,56,-79
-140,-59,1,32,23,-47,-93,-429,-895,-265
-77,-37,-68,-36,-117,-56,-165,-666,-1335,-269
77,-16,-151,-78,-172,-78,-187,-677,-1047,21
116,10,-96,-28,-72,-160,-255,-621,-667,350
127,54,-49,-31,-63,-171,-188,-363,-293,407
23,31,-45,57,66,-99,-131,-91,130,191
-103,12,54,251,248,-62,-148,27,755,-65
-42,72,82,138,-166,-83,129,336,1479,49
90,194,60,-43,-587,-112,378,580,1395,125
-73,77,3,-1,21,61,202,203,-42,-436
-295,-96,-67,129,1062,480,-26,-223,-1426,-867
-169,-10,24,127,589,246,-93,-248,-1451,-462
-67,-40,-45,6,89,30,-19,-213,-763,98
88,34,-42,-42,36,35,20,-279,-321,299
37,328,256,-8,-30,-94,-182,-510,-279,160
-35,749,831,50,-140,-215,-280,-590,-529,-131
-124,779,1108,41,-222,-202,-168,-431,-701,-401
-270,266,695,40,-249,-63,71,-148,-513,-419
-313,-551,-106,-2,-140,16,166,2,-248,-260
-247,-937,-680,-53,139,64,98,-54,-42,-76
-13,-500,-774,-64,77,14,33,-95,230,235
286,3,-595,-151,-260,-159,0,-39,514,525
484,235,-474,-243,-486,-280,-5,98,776,644
314,87,-311,-193,-367,-194,57,280,774,458
-2,-92,-200,-65,178,40,37,238,546,-7
-146,-109,-82,49,355,101,61,209,813,-239
-167,-53,13,117,209,81,100,166,760,-214
-143,-30,2,69,-4,97,201,184,27,-145
-169,-73,-61,65,12,124,217,145,-594,-111
-71,-52,-65,111,297,120,69,84,-494,86
162,88,-11,76,252,49,-26,-22,-265,369
298,152,-10,-1,87,-4,-36,-181,-304,406
253,143,7,-4,52,-37,-91,-190,-189,191
169,99,22,-13,20,10,22,-55,102,103
76,76,31,19,6,28,86,9,395,5
47,101,73,15,-52,76,212,228,483,-138
30,86,62,13,-200,51,255,305,381,-179
39,90,67,5,-341,-31,208,268,567,-204
19,110,114,-40,-360,-27,161,218,459,-363
-72,74,355,-30,-91,42,138,81,-156,-477
-153,1,634,37,343,86,43,-100,-390,-300
-185,-81,470,38,285,41,-57,-177,-145,12
-192,-132,78,12,136,-27,-84,-170,103,119
-160,-114,-297,-23,17,-79,-153,-221,167,31
-37,-13,-351,-57,-122,-122,-142,-177,67,103
51,36,-306,-68,-109,-95,-111,-158,-79,204
72,-3,-279,-49,-138,-99,-102,-140,-231,291
56,-7,-193,-23,-229,-161,-128,-160,-488,279
-29,-57,-14,82,-155,-109,-182,-255,-674,146
-23,-106,250,126,70,25,-151,-298,-671,41
44,-88,365,42,74,-32,-96,-262,-573,69
-82,-131,411,2,168,-170,-241,-320,-360,82
-122,-162,257,-143,-61,-296,-360,-347,90,231
-167,-262,-74,-278,-414,-153,-6,-5,725,391
-184,-157,-5,-113,-185,-10,149,178,885,395
-50,171,234,119,52,26,80,201,371,228
36,394,274,167,-95,68,170,298,-267,-371
-15,383,-62,91,39,100,142,110,-536,-1052
-13,257,-417,67,370,230,123,-9,-311,-894
75,261,-396,71,74,167,89,-4,-228,-250
99,268,-272,-21,-501,-95,-9,-88,-256,143
93,230,-259,-103,-762,-287,-147,-177,-102,270
43,221,-235,-90,-360,-279,-283,-205,171,173
178,122,-243,-245,-237,-255,-169,-31,514,224
208,-95,-269,-349,-110,-33,108,127,589,275
39,-123,-233,-135,450,243,228,111,337,114
-57,-293,-235,20,637,294,258,167,146,-23
38,-392,-154,103,577,251,278,298,146,138
155,-311,-38,91,426,150,213,304,310,314
167,-211,12,50,214,71,128,188,631,291
112,-75,68,80,172,110,166,157,491,212
58,-2,130,137,230,187,234,85,-277,69
-35,-1,136,135,207,156,163,-120,-929,-139
-137,-14,116,137,187,119,93,-125,-870,-388
-138,-27,86,118,143,68,18,-116,-542,-361
-36,-5,116,57,-40,-101,-102,-173,-287,-124
-21,133,455,-83,-350,-312,-220,-178,-40,-92
-37,233,535,-222,-624,-427,-208,-10,329,84
-57,106,192,-191,-317,-287,-195,79,547,351
-91,-164,-209,-47,279,47,-124,104,694,454
-19,-258,-302,73,273,209,114,179,533,104
0,-140,-169,89,174,254,304,85,-139,-385
25,-45,-215,-30,-54,47,148,-87,-497,-167
43,-69,-233,-64,-124,-73,-19,-150,-543,185
75,-58,-107,52,-140,-34,-46,-147,-459,203
103,42,62,125,-398,-143,-52,-112,-206,101
68,70,127,158,-600,-264,-84,-95,79,142
-35,0,89,161,-508,-273,-118,-141,124,116
-173,-72,17,49,-424,-212,-116,-126,33,108
-366,-129,7,-62,-92,-96,-102,-60,5,-96
-336,-77,136,-45,563,121,-16,45,-131,-331
-183,-25,126,5,885,310,170,171,-433,-541
-204,-62,29,8,469,310,297,259,-187,-550
-119,-144,-183,-83,-7,56,132,190,274,-346
129,-21,-292,-121,-181,-110,4,116,566,-75
270,127,-200,-85,-183,-42,44,121,474,27
241,149,-79,-18,-172,27,106,200,432,21
137,112,36,103,183,114,109,198,503,-25
95,101,103,152,393,71,33,131,250,63
61,55,13,38,110,4,40,143,-162,213
78,31,-60,-108,-191,-65,144,160,-303,366
46,-23,-61,-113,-80,-36,141,93,-361,281
-1,-70,-75,18,312,186,49,-32,-242,35
95,33,-81,39,18,160,118,12,-89,45
77,195,-28,32,-204,22,50,-27,-74,67
18,395,205,83,-70,-23,-96,-100,-55,-78
-39,346,304,109,310,2,-182,-237,-68,-224
-71,89,332,-26,163,-83,-262,-298,216,-32
-90,-299,221,-113,-218,-205,-320,-246,928,181
-173,-492,92,-23,-254,-102,-150,-86,1647,30
-129,-233,28,48,-111,64,23,27,986,-229
-50,61,24,135,188,77,-77,-170,-911,-396
46,139,14,103,207,47,-71,-328,-1869,-322
183,152,-45,-3,-50,57,94,-127,-1094,-143
59,18,19,-1,-89,89,170,77,32,-21
-56,-38,180,-23,-77,87,124,46,144,-29
-146,-108,145,24,-11,48,-34,-163,-255,13
-117,-190,-93,26,-317,-129,-100,-156,-397,245
7,-109,28,-141,-800,-376,-120,-22,-101,342
-37,93,443,-229,-739,-420,-152,0,247,275
-233,29,313,-186,119,-114,-81,19,275,43
-205,-28,-48,-204,337,114,15,42,-122,-202
-162,-55,-14,-174,-220,-84,-106,-124,-363,-410
-166,-209,87,29,-103,-62,-35,-82,16,-442
-163,-266,-85,200,209,109,114,13,256,-417
-111,-122,-321,239,294,170,97,-136,-150,-419
141,33,-434,147,305,152,52,-234,-579,-237
344,209,-166,-10,222,25,29,-275,-578,-53
272,229,102,-69,200,33,123,-218,-350,102
160,128,118,-66,139,12,62,-243,-278,164
87,-2,-10,4,270,40,25,-230,-159,170
111,-52,-182,-5,125,73,132,-36,206,275
95,-9,-226,-28,41,109,183,92,420,211
118,65,-198,-77,-40,44,173,167,551,199
141,88,-136,-81,14,57,154,262,508,301
120,85,-61,-51,38,79,159,299,209,327
86,30,-54,-72,-123,-6,70,205,202,445
-19,-51,-74,26,129,-29,-170,-45,171,376
-122,-64,-121,54,231,-25,-130,-46,278,224
-168,46,-68,7,70,46,113,100,434,91
-187,126,36,37,-10,41,124,69,327,-31
-163,126,83,98,-116,9,102,88,231,-120
-96,17,130,147,-145,22,146,155,180,-256
25,-119,168,115,21,27,101,98,133,-386
64,-98,504,144,409,109,31,-84,-98,-345
78,37,718,154,394,79,-85,-269,-208,35
73,29,425,58,40,-90,-194,-284,-121,381
25,-51,-92,-10,-70,-143,-132,-197,-338,200
17,-74,-448,-61,-79,-4,120,-9,-347,-69
68,20,-289,-21,-16,128,281,82,-271,-70
89,35,-212,11,57,119,165,51,-295,4
74,20,-150,9,26,27,54,108,-100,57
22,61,-53,-2,-68,-30,22,97,393,21
-29,162,-13,-42,-131,-53,12,7,638,-44
-50,218,-63,-88,-205,-76,14,-17,154,-45
-78,138,-79,-84,-56,1,-22,-12,-411,-59
-29,20,-90,-37,110,50,-17,52,-528,0
46,-8,-65,-10,43,-14,9,129,-373,93
66,39,-41,-23,-104,-81,-21,173,-407,64
38,-82,-116,-127,-282,-133,-29,259,173,171
-68,-351,-169,-190,-332,-73,4,348,1630,270
-135,-363,-90,-59,-143,45,62,422,2616,154
-130,-200,94,169,368,173,69,276,1905,44
33,82,203,239,357,116,-38,-81,-126,38
212,287,150,128,-36,-66,-134,-283,-1676,108
77,170,144,59,-212,-134,-124,-259,-1825,-14
-118,-44,40,33,-89,-70,-102,-252,-1228,-267
-130,-126,-59,3,-57,10,-6,-140,-446,-301
-12,-27,-23,-15,-282,-89,-10,-93,-228,-276
12,43,-18,-52,-379,-198,-98,-172,-417,-214
7,23,-59,-82,-55,-147,-158,-205,-178,117
83,21,-60,-111,212,-41,-73,-84,374,696
59,-54,-67,-53,369,170,102,55,382,892
3,-40,45,137,446,335,257,170,-20,424
-95,30,156,213,299,337,369,212,-448,-442
-183,6,107,146,178,242,309,105,-409,-750
-144,-25,16,34,12,71,112,-31,160,-330
0,4,22,-51,-198,-71,-20,1,574,8
125,3,-1,-90,-130,-141,-99,6,649,78
113,-16,73,15,63,-112,-141,6,418,-145
0,11,240,115,-17,-77,-133,-78,-382,-515
-35,16,198,61,-189,-106,-107,-222,-728,-390
-71,5,60,-2,1,-73,-71,-239,-422,-77
-71,54,-25,-45,326,9,-59,-164,-232,37
-94,99,10,-90,-23,-80,-58,-50,-4,31
-102,109,4,-117,-442,-161,12,98,587,75
-41,-3,-58,-140,-569,-173,87,268,1152,271
-65,1,-88,-25,-199,-66,26,166,869,70
-101,242,21,61,48,34,-44,1,225,-185
-23,265,1,-82,-414,-67,-64,-26,-294,-35
-14,67,-72,-156,-472,-108,-68,-24,-492,158
-110,-268,-173,-30,321,102,-6,-12,-674,154
-9,-472,-179,24,564,290,130,152,-399,147
55,-312,-132,-19,288,263,211,235,99,153
64,-149,-110,-68,312,164,147,109,155,149
186,5,-54,-77,225,-2,0,-65,-166,210
161,65,1,35,225,16,-108,-202,-424,259
138,55,21,69,87,47,-19,-89,-76,470
79,-4,14,61,-52,9,59,53,470,454
-33,-47,65,78,-24,-4,39,63,691,142
-129,-93,413,112,47,-48,-54,-36,557,-117
-187,-114,740,121,171,12,-29,-36,159,-424
-179,-131,558,87,11,18,22,-77,-385,-545
-171,-121,99,34,-363,-170,-122,-286,-735,-418
-97,-4,-291,-84,-672,-299,-197,-344,-744,-265
-40,136,-242,-123,-571,-268,-172,-257,-556,-230
-124,183,-26,-58,169,-85,-141,-154,-312,-374
-176,102,20,-31,570,69,-44,-29,-234,-402
-156,-59,-84,-41,288,84,-36,45,21,-324
-26,-147,-284,-27,-53,89,115,242,707,-229
152,-31,-181,0,-203,41,130,229,1127,-165
104,66,595,65,-96,-60,-43,-77,748,-83
-91,21,1433,204,272,12,-105,-295,-376,-85
-173,-61,1259,199,214,121,39,-310,-1213,-39
-159,-106,289,52,-108,46,88,-293,-1077,28
26,4,-678,-111,-276,-154,-78,-319,-660,59
100,41,-966,-51,62,-63,-106,-252,-338,-40
147,142,-900,1,203,82,76,-33,-56,-10
172,182,-693,12,235,187,189,79,121,127
130,135,-399,26,236,215,217,91,199,220
264,87,-233,-11,79,86,139,23,167,261
269,16,-163,-21,20,-17,25,-44,111,276
169,-49,-212,-81,-45,-63,-17,-62,77,296
163,4,-256,-109,-61,-9,51,42,159,359
208,126,-159,-86,-65,-4,16,77,264,377
110,61,-82,-6,-230,-100,-89,12,265,243
-10,-35,-72,20,-454,-139,-60,63,311,26
-7,-15,-53,-47,-534,-31,134,238,558,-40
-19,17,8,44,67,130,182,255,584,-88
0,66,105,201,631,193,138,238,355,-92
90,163,203,132,-26,-10,87,258,103,101
124,185,189,-40,-664,-174,122,320,5,173
82,54,-6,-180,-633,-205,81,209,-19,217
12,-141,-235,-172,358,42,-112,-81,-87,282
58,-95,-147,-9,937,242,-251,-208,-79,185
111,46,38,44,468,90,-195,-51,23,-9
38,39,51,30,204,42,-60,106,491,-163
-23,36,64,47,184,68,-18,110,1157,-305
-33,36,76,50,110,33,5,-3,777,-351
-25,0,47,42,3,37,115,-110,-272,-217
-50,-4,66,9,-85,-16,67,-169,-868,-27
-113,66,96,-74,-187,-133,-69,-154,-821,-11
-179,137,113,-150,-229,-207,-177,-112,-430,-86
-212,113,88,-158,-123,-135,-162,-107,-255,-273
-131,-85,-81,-173,-75,-62,-60,-2,-225,-252
-42,-322,-261,-97,1,16,74,231,189,-23
37,-238,-112,59,112,105,176,410,827,193
106,-41,35,135,111,155,226,383,934,264
124,78,77,168,0,171,204,172,307,135
100,130,87,115,-339,-18,7,-136,-329,93
84,186,24,-22,-757,-259,-173,-312,-618,254
-3,227,-55,-28,-523,-253,-203,-278,-716,167
-81,261,51,86,91,-63,-92,-137,-790,-82
-42,196,185,76,324,62,37,-25,-765,-111
-24,-53,84,-17,278,96,115,-32,-701,-228
-3,-221,-94,-61,387,115,87,-179,-603,-287
57,-257,-198,-93,336,42,16,-288,-339,-143
72,-204,-203,-110,21,-32,24,-201,71,-43
35,-103,-42,-46,-123,-20,87,7,566,-34
0,-59,-6,-12,-115,-21,105,125,762,121
-89,-90,-20,65,276,151,64,77,589,316
-61,-43,8,108,317,184,104,162,438,325
-32,12,-31,87,114,84,109,129,206,35
-29,6,121,28,-1,-43,-9,-91,-304,-133
-59,-33,554,21,-67,-86,-66,-175,-556,-103
-129,-52,776,32,-128,-72,-62,-141,-404,-60
-98,-21,508,8,-308,-110,-58,-77,-59,177
-109,-52,-27,-61,-404,-170,-95,-51,208,256
-226,-140,-440,-82,-98,-97,-53,-102,81,-58
-85,20,-374,-51,223,65,88,-4,21,-204
104,217,-266,-19,265,155,125,21,-14,-248
134,257,-170,34,155,135,113,-4,-26,-248
73,214,-53,36,2,53,84,26,58,-209
47,145,-4,-13,-118,-72,1,24,170,-128
89,-59,-93,-74,-66,-137,-108,-44,228,39
80,-171,-161,-92,72,-88,-159,-60,277,195
29,-94,-114,-72,29,-66,-132,18,271,279
-84,-92,-73,-15,57,57,19,176,238,122
-98,-51,-48,38,95,235,260,451,571,-120
-86,39,0,131,144,257,283,499,1190,-447
-125,109,40,202,173,202,202,337,1315,-599
-98,155,68,147,144,151,124,120,675,-349
-40,136,68,98,84,54,-37,-213,-602,9
-8,83,97,60,-57,-137,-264,-520,-1731,110
-87,-14,75,-9,-207,-314,-434,-596,-1733,33
-163,-61,18,-45,-214,-299,-409,-446,-1179,-80
-89,10,-86,-103,-138,-112,-156,-141,-348,-21
-26,128,-30,-85,-37,-26,-21,70,474,95
21,45,10,-34,76,-3,-37,93,610,52
63,-149,2,10,-5,-39,-76,14,96,-24
-25,-174,-67,-23,-75,0,47,52,-314,-8
-19,-172,-148,-101,-137,111,227,142,-441,33
40,-85,-33,-58,-119,54,92,29,-372,-6
-61,-95,17,42,-11,-2,7,-27,-179,-9
-77,-138,-13,60,-26,-17,11,3,-18,105
32,-72,-41,-80,-222,-82,7,31,-23,312
113,20,86,-156,-159,-141,-2,66,-82,454
109,70,340,-88,225,-78,-7,47,-78,472
144,5,334,-52,204,-42,-35,46,147,525
112,-110,57,10,70,31,57,184,353,252
40,-114,-205,45,63,60,104,235,291,-121
-46,6,-48,57,90,48,-3,78,75,-114
-156,165,360,136,150,46,-65,-88,-335,-245
-205,103,518,114,71,14,-20,-85,-332,-342
-325,-144,385,55,-30,-31,-50,-55,66,-185
-261,-337,3,3,-112,-74,-72,-7,368,-71
46,-241,-278,-46,-117,-74,-48,53,355,-64
333,111,-414,-109,-148,-63,-55,-9,191,25
400,230,-376,-160,-314,-81,-3,98,246,220
282,155,-326,-153,-264,-33,129,296,140,146
82,22,-283,-26,155,136,144,215,-156,-111
-22,9,-142,87,355,200,77,70,-238,-116
-15,31,-85,60,106,106,7,31,-56,61
5,1,-132,8,-52,69,4,78,231,170
63,35,-22,31,-193,16,17,145,404,168
193,159,93,82,-145,-36,8,112,250,71
351,270,145,59,-173,-114,-5,113,179,56
213,168,105,24,-272,-86,19,132,87,46
-6,-21,-12,90,311,148,-76,-61,-112,-72
-21,-42,-6,115,266,109,-105,-92,88,-45
-14,-48,-21,6,-138,-12,-16,101,640,10
-81,-100,-53,-5,30,56,85,233,929,-42
-59,-43,7,26,335,139,189,267,630,-78
19,29,57,-2,258,120,158,140,-31,-19
-15,-36,-7,-24,109,122,14,-73,-549,38
-58,-41,-21,3,-26,3,-157,-262,-517,14
-35,76,43,-7,-159,-130,-243,-325,-258,94
24,109,68,-72,-274,-181,-164,-193,-55,311
96,92,260,-29,5,-114,-114,-164,-236,432
142,-4,332,-55,39,-59,-59,-79,-239,551
90,-163,124,-82,-111,31,127,81,111,425
1,-161,-122,-15,171,143,133,90,585,111
2,-28,-150,52,173,123,100,157,629,-248
1,138,17,103,-184,49,168,298,145,-502
-33,264,87,67,-646,-124,77,211,-82,-529
-114,202,146,-18,-837,-302,-113,47,-212,-459
-215,55,391,-27,-259,-261,-247,-78,-599,-505
-276,-225,314,-19,338,-122,-224,-171,-721,-460
-258,-365,-51,10,430,50,-117,-183,-286,-269
-138,-206,-311,-17,-249,-16,-86,-207,43,-124
-1,-15,-264,-46,-671,-125,-20,-168,-160,-69
-18,-93,-253,6,-35,48,48,-159,-525,-118
-13,-109,-177,49,797,233,87,-133,-553,-65
14,-16,-29,29,724,221,72,-153,-352,4
-12,7,42,12,487,142,-9,-237,-263,0
39,78,431,26,309,59,-76,-248,-188,70
77,96,522,44,102,16,-53,-204,-99,114
44,-16,29,21,68,90,69,-103,-49,87
-12,-120,-439,-38,98,92,93,-67,27,13
-58,-140,-490,-34,145,92,78,9,256,-32
-9,17,-357,29,129,102,104,105,356,15
62,250,-205,7,78,97,149,87,277,136
105,312,-126,-57,-4,80,198,178,570,352
121,260,-58,-43,-72,30,178,264,639,359
29,39,-59,3,-70,7,105,201,132,84
-28,-257,-91,-61,-142,-4,129,142,-116,98
38,-246,-90,-66,3,-83,-42,-88,-51,306
147,-101,-74,-75,-7,-138,-148,-214,107,420
147,-56,-51,-56,-86,-117,-83,-154,108,233
77,30,81,107,2,-8,32,14,-61,-152
94,135,228,196,41,24,72,-29,-292,-330
107,122,458,117,-47,-48,10,-156,-217,-149
-8,6,562,23,-62,-49,-16,-154,-21,38
-111,-34,372,25,154,55,2,-154,-57,0
-127,30,13,50,253,67,-46,-189,-212,-187
-96,77,-176,29,100,-7,-38,-142,-248,-266
-44,88,-120,2,-10,-32,27,-65,-3,-54
-21,-71,-159,-96,-125,-95,25,39,385,170
-78,-221,-202,-160,-175,-130,-23,42,523,178
-158,-206,-139,-155,-162,-151,-71,-53,596,109
-261,-237,-122,-130,-45,-9,-4,-73,469,70
-192,-140,-26,-22,64,109,127,54,-35,-15
-51,-42,30,74,132,155,213,147,-502,-180
160,85,-22,40,105,118,182,90,-362,-252
193,130,-14,25,49,36,93,-5,86,-152
56,100,0,84,93,77,115,-18,196,-159
-26,97,12,71,91,93,103,-49,-52,-147
-66,62,20,44,53,25,25,-109,-427,-102
-85,16,2,27,29,8,43,-101,-503,-101
-46,13,-14,5,2,4,67,-46,-192,-84
29,25,7,-24,-29,-32,10,-29,8,-25
77,29,17,-35,-27,-14,14,14,41,30
90,35,26,-19,21,40,70,112,-82,-73
110,67,58,18,57,40,0,119,-283,-217
54,75,89,71,40,19,-65,51,-113,-280
8,45,92,54,-138,4,7,37,508,-191
3,15,51,-10,-324,-67,20,-2,757,-12
-25,-42,1,-5,-127,-98,-94,-118,264,106
34,-27,-43,-70,-156,-182,-135,-128,-359,261
33,-32,-53,-131,-182,-167,-128,-90,-539,272
-68,-75,-23,-37,198,63,-99,-103,-379,117
-157,-60,133,11,217,56,-150,-211,-268,-63
-190,-44,494,7,97,-66,-215,-290,-233,-108
-178,-98,767,13,0,-118,-175,-273,-148,6
-128,-134,511,14,-44,-74,-56,-144,-90,137
-144,-72,252,30,-61,-83,-86,-120,-181,114
-157,-16,42,52,-51,-94,-121,-125,-237,-30
-110,28,-124,80,16,-28,-31,-16,-123,-26
-2,-1,-344,13,43,39,29,101,21,75
222,-73,-626,-131,-17,-30,-86,14,380,194
260,-8,-500,-125,-55,-64,-47,45,1075,301
212,45,-344,-53,-45,9,114,235,1445,372
174,93,-261,-29,-45,40,167,324,1309,341
119,188,-160,-55,-94,22,120,237,641,203
80,217,-82,-53,-85,-29,-10,32,110,139
60,145,-88,-76,-189,-96,-71,12,7,99
37,-30,-171,-49,-221,-58,11,28,-314,-19
11,-170,-105,32,-249,-52,-33,-87,-440,-28
60,-61,-5,23,-614,-116,40,47,-211,38
104,64,62,9,-688,-95,185,237,-254,-144
42,53,96,93,25,122,273,224,-436,-443
-21,53,144,196,615,241,176,57,-591,-490
0,61,157,175,598,218,104,-27,-611,-292
-52,7,96,97,192,187,160,2,-470,-138
-135,-27,62,128,33,148,128,-58,-355,-232
-26,41,81,103,13,8,24,-150,-251,-223
49,4,-2,10,203,-26,-11,-168,-153,-44
67,-51,-77,-30,417,102,2,-91,-90,104
105,-7,-55,-36,240,132,63,56,52,151
107,57,8,-45,-57,21,73,136,323,87
46,40,62,-22,76,34,34,88,639,8
-56,53,263,2,203,19,-55,-18,611,-100
-155,297,476,-29,-59,-106,-128,-159,42,-212
-246,363,406,-70,-255,-225,-231,-342,-446,-162
-225,270,157,-111,-343,-272,-251,-362,-467,-50
-117,-40,-155,-103,-448,-259,-218,-269,-275,-14
10,-486,-381,-55,-531,-196,-122,-113,-78,106
187,-355,-374,-48,-394,-68,75,117,144,307
123,-193,-321,17,217,32,21,29,41,201
13,-124,-220,88,832,144,-8,-40,-97,73
56,8,-96,24,504,143,65,69,-43,107
71,69,-70,-38,36,63,47,67,-53,81
60,36,-141,-28,-5,37,27,6,-171,22
12,-66,-99,-1,92,130,118,139,-75,-4
19,-123,-10,2,157,238,250,360,389,63
28,-65,23,23,122,205,210,380,794,59
35,10,50,41,68,124,99,283,741,14
44,12,32,39,-49,29,-7,143,384,89
20,-55,-22,-2,-279,-82,-75,9,69,291
29,-66,-35,-32,-379,-150,-92,-52,-85,419
66,-22,3,10,-224,-127,-80,-51,-19,381
20,-47,-46,80,307,-21,-64,-91,-96,312
-15,-54,-57,23,383,38,-11,-48,-158,255
-53,-68,-17,-85,-43,-39,31,21,144,144
-87,-92,-102,-153,-194,-41,21,48,633,38
-54,-77,-184,-163,-288,-39,10,114,835,42
35,-5,-56,-75,-91,14,50,237,573,36
208,214,110,105,372,142,45,173,-38,-54
210,343,221,191,372,142,19,-26,-450,-131
43,297,218,152,160,67,0,-143,-362,-273
-96,111,147,95,92,27,3,-180,-276,-376
-180,-194,114,66,74,25,54,-117,-273,-261
-91,-243,229,41,23,25,89,29,-202,11
68,-87,286,50,0,71,129,77,-279,109
71,-9,207,135,38,129,158,23,-482,-75
0,-36,-109,104,48,66,25,-118,-581,-206
-26,-15,-275,13,0,-43,-140,-265,-551,-228
35,48,-132,-39,-54,-90,-159,-228,-340,-106
81,66,-84,-53,-121,-79,-52,-85,-103,-9
18,30,-151,20,-34,49,92,-7,-119,-278
-30,31,-55,43,-29,97,163,-11,-223,-448
27,44,10,-21,-127,35,123,11,-91,-279
-10,-10,-4,-13,18,-3,8,-25,-72,-238
-36,-51,-22,-1,153,19,-29,-43,-4,-157
5,-10,-1,-8,-6,-72,-59,-75,534,90
22,14,-10,-7,-81,-90,-36,-53,890,265
-10,-10,-36,-17,-59,-21,15,-7,461,336
-66,-59,-70,-40,-22,-33,-63,-87,-136,323
-60,-78,-93,-66,-71,-75,-49,-68,-207,298
-24,-42,-32,-64,-189,-103,-5,43,13,258
-35,-48,111,-63,-294,-198,-107,-34,10,93
-182,-178,361,-97,-262,-261,-246,-208,-151,-195
-300,-284,642,-113,-107,-240,-292,-216,-236,-231
-316,-300,565,-103,-89,-226,-291,-182,-295,-107
-224,-172,61,-97,-169,-247,-289,-178,-443,-73
-58,138,-328,-128,-227,-193,-122,-9,-287,-61
57,508,-420,-105,-292,-101,62,136,248,27
40,667,-357,-63,-222,-11,70,78,506,-10
-13,511,-120,-34,-123,-14,-50,-86,116,-147
-76,138,182,14,103,-59,-154,-250,-465,-176
-51,-329,47,21,253,23,-86,-152,-636,31
124,-447,-272,-53,16,26,16,31,-384,68
178,-277,-380,-21,8,8,62,31,-289,-38
90,-100,-265,47,75,114,217,190,-146,36
32,-25,-224,49,-144,161,378,456,142,113
-53,-23,-185,38,-335,153,418,559,627,-20
-113,-52,-130,8,-301,145,359,580,1291,-207
-74,-57,-86,90,302,215,267,574,1489,-326
21,25,2,150,722,266,113,344,1139,-243
106,58,14,92,280,146,53,138,523,35
180,63,-96,58,-181,17,51,103,-81,258
208,106,-72,20,-331,-41,45,54,-711,251
180,149,107,47,32,-1,-6,-126,-982,37
150,135,127,61,422,38,-60,-203,-492,56
97,80,52,2,316,117,-58,-176,-75,135
110,121,86,-38,-45,93,12,-136,-150,58
90,115,82,-13,-79,-36,-65,-232,-415,-60
72,24,64,-2,-45,-145,-150,-274,-453,-25
-46,-127,-22,61,192,-83,-161,-264,-326,63
-136,-188,-69,127,290,-36,-133,-213,-193,75
-69,-65,48,130,-117,-158,-117,-140,-69,35
-25,0,174,73,-447,-150,-53,-44,-29,-22
-30,-8,237,-3,-397,-89,-25,-8,-130,-136
-102,-87,148,33,173,47,2,-51,-268,-300
-79,-89,18,-2,393,111,33,-82,-159,-119
56,-30,-71,-100,195,54,21,-71,120,347
141,14,-95,-114,165,46,7,-36,314,596
180,69,-75,-80,127,36,-23,0,364,587
134,73,19,-19,38,29,-3,-35,129,335
41,62,423,67,19,11,11,-71,-28,2
13,82,721,128,6,0,9,-17,-15,-192
-2,91,524,91,-94,-64,-5,2,-15,-113
-112,103,62,-28,-329,-261,-133,-145,-114,-85
-240,43,-305,-89,-320,-253,-228,-285,-178,-238
-161,56,-242,-53,-129,-63,-138,-209,18,-202
14,-65,-233,-74,-79,-49,-35,-40,265,-13
37,-241,-213,-42,290,73,16,32,116,-92
-12,-209,-109,-30,332,135,72,108,-67,-253
-18,-159,-70,-52,-75,28,123,188,292,-201
4,-71,-104,-64,-343,-90,130,196,816,-169
15,7,-98,-52,-217,-66,128,182,683,-171
45,23,-130,11,263,98,162,180,239,76
93,60,-130,22,369,156,169,211,-155,251
112,113,-25,44,220,113,99,253,-413,118
86,124,32,29,75,49,17,213,164,74
12,232,38,-23,-27,32,49,167,947,111
-92,385,35,22,44,82,75,26,650,-57
-137,442,160,73,140,37,-67,-304,-471,-247
-149,325,518,40,54,-60,-200,-449,-1059,-140
-58,-44,654,21,0,-40,-121,-353,-850,170
183,-307,275,0,-42,-53,-51,-262,-513,471
217,-349,-233,-99,-113,-138,-85,-261,-459,409
28,-295,-444,-120,-111,-138,-91,-254,-441,104
-101,-239,-278,-29,-25,-50,-16,-139,-186,-24
-65,-108,50,23,-7,0,68,37,234,121
-9,30,439,84,-3,-9,90,162,411,71
-67,42,459,86,-18,-25,106,195,319,-297
-43,31,-23,0,23,-13,9,36,13,-521
34,-59,-417,-45,87,28,-38,-12,-183,-390
18,-160,-372,-12,19,45,77,145,-94,-36
40,-44,-271,-55,-129,41,186,318,57,215
27,30,-253,-78,-110,73,185,349,70,62
-39,-31,-240,-61,10,84,113,266,285,-160
-42,-101,-194,-17,150,112,49,155,798,-143
144,-9,-121,-37,31,68,62,184,1199,89
195,77,-28,-4,98,84,51,131,645,120
121,92,28,82,320,139,59,49,-253,-55
170,114,34,17,152,58,74,-10,-664,-70
169,91,-40,-41,-9,1,57,16,-440,109
63,63,-3,13,-10,-9,16,49,-231,75
-44,65,219,107,20,-31,-36,-25,-224,-163
-103,-1,422,174,57,-43,-94,-131,-247,-294
-157,-141,316,142,122,51,10,-63,-152,-160
-149,-173,91,66,94,52,28,-52,-153,-88
-90,-97,-111,-31,-114,-124,-146,-149,-264,-159
-80,-8,-166,-68,-390,-264,-207,-170,-270,-217
-64,65,-117,-106,-746,-377,-131,-65,-162,-203
-59,35,123,-181,-781,-439,-134,31,-26,-140
-24,15,436,-185,-537,-349,-73,154,225,24
-134,-173,237,-72,207,-42,-69,55,198,8
-98,-208,-170,8,546,223,0,-16,115,126
22,-20,-330,0,171,108,-10,-55,136,247
63,85,-224,48,79,10,-8,-59,113,244
82,31,-254,46,-67,72,95,89,270,319
108,17,-243,-53,-440,66,168,233,438,385
104,46,-144,-61,-276,77,156,189,300,273
6,22,127,86,605,216,30,17,66,105
-80,76,370,108,792,202,-4,-20,-56,-39
-113,143,308,56,364,108,28,24,-212,-193
-161,118,70,27,103,0,9,67,-87,-229
-176,40,-175,39,124,62,27,164,487,-140
1,-23,-211,20,39,64,69,222,893,-5
187,-94,-226,-4,47,47,23,132,622,89
115,-48,-140,41,98,59,7,71,66,137
43,8,-60,36,37,20,-17,-5,-403,147
24,-44,-87,-12,-65,-19,-4,-11,-255,185
54,-50,-133,-56,-132,-46,6,-13,26,133
-8,71,-10,-14,-79,-56,-56,-85,-70,-42
-77,125,289,2,-142,-152,-179,-181,-201,-60
-89,102,287,2,-175,-131,-182,-189,-218,-29
-76,-5,107,45,-25,26,-48,-39,-137,-17
15,-159,-139,-18,-61,-18,-31,26,25,-10
63,-255,-247,-64,74,12,-70,-16,216,-10
131,-59,-130,48,244,156,10,62,143,-37
169,100,-57,83,117,137,99,165,-217,-30
151,95,-45,29,35,85,96,103,-493,104
64,50,-22,10,20,-3,-52,-98,-573,27
-33,5,-9,21,34,-73,-190,-211,-389,-142
-44,-1,-3,-7,-1,-42,-89,-81,-121,-137
-33,-5,-11,-30,-37,79,112,131,121,-24
-11,26,19,10,-19,96,113,103,223,100
-10,66,70,64,20,60,47,17,203,8
-62,71,87,98,-18,58,65,70,121,-197
-97,37,74,85,-157,42,110,129,123,-228
-77,9,37,21,-318,-5,150,126,269,-53
-82,-5,0,4,-203,-13,107,26,137,25
-76,0,7,70,134,-1,5,-137,-156,22
25,42,11,71,294,-3,-80,-220,-152,126
105,60,94,6,152,-33,-112,-261,-87,125
110,18,95,-37,-57,-51,-53,-208,-116,39
85,-18,49,-43,-117,-61,18,-141,-36,79
81,3,80,-10,-144,-47,45,-46,162,103
57,21,9,25,-217,-95,25,61,314,37
33,38,-117,15,-144,-100,-9,47,123,-74
50,61,-144,-51,-92,-77,-24,-43,-232,-77
15,-52,-197,-98,77,59,-55,-139,-353,-85
41,-71,-163,-26,222,114,-39,-91,-141,-44
49,-11,0,43,181,81,-77,-65,-91,-75
16,16,-23,65,84,42,-77,-105,-178,-183
18,29,-14,35,-43,53,71,-2,-58,-216
80,58,121,13,-192,-15,95,34,92,-128
115,44,100,-39,-391,-172,-45,-69,161,62
108,1,-13,-149,-672,-271,-72,-46,276,297
102,44,-48,-261,-859,-316,-55,91,243,438
-17,98,-79,-250,-361,-169,-55,126,97,366
-70,206,31,-55,631,159,9,171,516,354
65,330,217,84,730,259,127,241,1003,323
103,93,162,112,208,185,158,115,701,-167
78,-267,35,106,89,105,49,-125,187,-514
-28,-329,-21,84,229,49,-57,-202,-319,-425
-92,-278,-49,48,334,85,-50,-115,-819,-288
-104,-172,17,80,281,138,6,-21,-1089,-367
-74,-78,115,124,197,88,-43,-114,-1179,-438
96,10,60,27,44,-17,-100,-232,-796,-254
261,161,6,-96,-99,-102,-135,-208,-250,-48
230,174,-28,-143,-199,-130,-103,-52,115,108
109,130,-55,-84,-243,-80,32,131,316,157
35,-14,-65,-25,-385,-56,159,309,365,137
48,-156,-42,-1,-233,59,178,295,62,156
92,-83,13,28,-29,86,88,108,-107,313
52,-59,27,18,-175,-20,-2,-25,128,272
-72,-95,143,65,47,-40,-101,-200,84,118
-20,-14,280,9,-58,-136,-104,-253,-61,142
-50,-26,145,20,-41,-208,-149,-308,-280,-8
-93,-104,10,44,222,-59,-129,-280,-406,-253
-30,-67,-55,32,61,-8,-143,-208,-457,-323
50,24,25,-18,-270,-81,-71,-3,-110,-137
11,16,171,-28,-14,-6,14,132,415,-124
-31,-62,157,-17,510,147,74,148,1081,-64
29,-66,3,-113,269,151,148,239,1508,282
-19,-76,-173,-84,12,67,94,117,669,310
-34,-17,-136,-1,10,43,50,-67,-562,73
41,80,-98,30,35,48,64,-106,-860,-7
82,84,-144,26,97,85,97,-63,-541,27
53,66,-130,-21,76,74,95,-58,-376,24
-24,49,-32,-39,3,15,45,-116,-263,-53
-97,-12,-5,11,-77,4,33,-120,-94,-153
-131,-19,4,82,-205,58,97,-25,29,-195
-42,52,66,63,-375,-1,76,32,58,-65
67,107,83,-1,-599,-261,-53,2,141,191
48,81,19,-42,-502,-358,-142,-46,70,281
-70,-28,-79,-90,-246,-190,-122,-70,-21,117
-70,-59,-95,-105,19,-49,-85,-72,137,13
24,-44,-54,11,626,122,-1,-28,405,30
49,-43,12,81,759,230,58,12,227,-46
37,-19,22,30,318,163,88,5,-240,-76
-12,-26,-3,-6,119,74,65,-82,-577,-86
-64,-15,-6,-13,81,39,44,-124,-512,-100
-100,55,18,-17,66,49,72,-49,-165,-9
-102,151,249,9,34,49,100,26,21,50
-84,205,633,72,-9,25,91,100,182,32
-107,106,615,79,0,31,89,162,280,1
-12,-91,236,-3,-27,-29,-8,34,178,-81
66,-205,-267,-89,-143,-116,-115,-47,68,-152
59,-100,-362,-69,-147,-94,-84,18,76,-86
124,19,-281,-63,-171,-82,-44,54,372,144
88,-34,-320,-76,29,-60,-66,14,703,251
36,-77,-266,-30,198,42,-18,-30,540,153
47,-29,-138,-21,20,2,8,-49,208,170
58,-25,-117,-53,-80,-75,-29,-116,82,300
58,-23,-108,-40,-6,-9,21,-20,174,267
69,15,-34,-4,-5,53,53,77,26,120
34,57,64,65,-142,1,52,-25,-428,-99
30,103,116,65,-331,-78,69,-63,-608,-180
89,148,132,-35,-554,-183,33,14,-365,33
-41,-20,-7,-43,-115,-98,-67,-92,-253,88
-129,-140,-131,13,440,184,21,-100,-187,-40
-89,-71,-142,51,158,150,109,-23,-141,-126
-147,-56,-45,51,-13,60,95,-8,-14,-94
-185,-58,174,66,180,49,51,-6,173,-32
-230,-117,613,0,169,-109,-117,-131,268,27
-271,-202,884,-140,-18,-236,-262,-285,201,70
-282,-317,517,-202,-87,-263,-367,-375,-8,93
-194,-350,-131,-189,-86,-225,-320,-230,-88,230
-89,-145,-399,-134,-132,-179,-193,-2,-31,215
26,215,-327,1,-45,-15,47,218,287,-168
174,370,-356,56,-21,171,337,447,890,-499
187,341,-326,63,228,307,329,291,496,-555
109,231,-181,82,309,241,64,-49,-433,-301
69,15,-183,35,29,35,-116,-210,-982,-60
55,-94,-210,23,-2,47,-61,-111,-681,-8
68,-66,-143,39,98,109,52,49,-211,-28
114,-35,-87,50,245,119,66,67,-62,26
171,63,-30,43,102,50,-5,6,-34,161
209,138,-18,12,-152,-29,-12,32,50,279
146,114,12,24,-168,-41,35,86,-11,233
49,55,9,32,-117,-44,31,77,-158,72
50,31,-21,4,-4,-8,21,99,25,-19
46,-7,-28,7,234,85,42,143,413,-37
50,-8,-8,38,-31,49,121,180,515,-15
9,7,6,55,-347,-3,134,124,273,-41
-13,52,14,37,-379,-54,55,-32,-122,-67
59,106,-28,51,74,-51,-46,-123,-203,91
23,40,-68,73,536,16,-177,-199,-78,108
-51,-36,-16,28,179,-5,-183,-185,-87,-23
-38,-26,2,-32,-309,-56,-75,-60,-40,-55
-54,-22,-37,-43,-279,-118,-92,-45,6,-20
-103,-45,-15,-7,15,-82,-75,-38,58,44
-114,107,108,-4,-222,-108,-44,53,38,71
-160,438,327,-73,-790,-251,-72,152,-97,-77
-376,616,401,-97,-504,-220,-136,141,79,-292
-492,366,199,-21,539,53,-67,156,569,-277
-325,-1,-7,-29,728,202,104,266,878,-103
-214,-368,-171,-33,474,225,108,198,729,91
-14,-692,-251,-76,81,65,55,120,430,359
124,-546,-199,-29,38,30,85,121,-94,315
184,-168,-104,104,263,179,176,168,-479,14
424,81,-27,39,-1,81,124,42,-638,17
315,43,209,18,-217,-56,4,-200,-671,79
93,-45,280,84,-363,-126,-77,-338,-630,-7
74,-36,18,11,-645,-240,-128,-363,-532,-29
81,-26,-144,-18,-440,-257,-222,-415,-446,-11
98,31,-112,75,268,-52,-171,-319,-224,28
125,62,-105,64,656,86,-41,-122,-43,45
37,-40,-155,12,542,168,-15,1,-14,-98
-22,-68,-112,20,321,185,83,156,70,-214
-39,-43,-44,19,109,144,201,260,75,-163
-79,-18,30,27,42,132,183,144,-20,-236
-93,-17,24,1,37,45,24,-55,101,-125
-140,-23,13,-59,43,16,7,-101,212,-14
-183,-29,179,-37,31,54,60,-94,102,-217
-133,-26,256,-29,-76,26,93,-52,91,-219
-25,-45,82,0,-119,33,123,-20,17,-17
27,-65,-88,18,-227,-20,101,-29,-130,77
10,-80,-107,-28,-317,-110,25,-18,-167,127
25,-41,-152,-23,22,-7,29,74,297,158
86,66,-133,29,264,74,69,165,662,167
48,148,6,80,211,90,106,170,314,87
-40,194,409,144,157,90,133,144,15,-19
-155,153,622,180,174,146,146,104,-53,-104
-202,4,453,192,127,126,125,87,14,-30
-98,-155,31,77,-117,-77,0,33,-73,135
62,-201,-325,-83,-419,-254,-98,64,-108,299
59,-107,-295,-76,-442,-252,-100,111,51,362
189,40,-240,-130,-444,-175,-69,92,158,350
378,124,-248,-173,-337,-93,-18,81,115,291
322,154,-109,-99,-120,-118,-64,59,-27,83
45,168,29,17,253,31,-78,118,-93,-231
-82,138,25,59,351,210,93,238,300,-249
-104,43,-45,6,65,153,153,198,828,-62
-69,-65,-55,9,24,66,23,-14,837,23
41,-157,-27,27,112,29,-39,-154,210,88
106,-86,-21,40,267,40,-52,-211,-614,96
115,41,-3,-17,249,47,-68,-268,-1223,-47
73,45,-18,-90,86,76,33,-187,-1063,-149
31,21,3,-101,7,48,32,-134,-659,-116
-20,-12,-6,-38,40,29,-35,-98,-310,-25
-61,-26,-40,48,83,51,-3,-47,-134,30
-112,-33,52,102,92,84,71,2,-109,-25
-149,-75,150,91,89,85,104,3,-45,-32
-116,-111,104,82,70,58,42,-44,51,110
-10,-52,17,35,6,-9,-51,-47,46,177
42,28,68,21,-52,-56,-73,-11,0,30
36,93,362,69,-107,-86,-86,-29,-71,-219
28,97,453,82,-253,-134,-99,-56,-106,-297
16,45,241,8,-547,-225,-102,-73,-120,-267
-56,-76,-106,-127,-561,-286,-181,-118,-99,-280
-140,-141,-21,-129,-43,-190,-191,-165,-89,-256
-111,-49,374,-104,21,-210,-126,-113,-29,9
-194,-120,571,-113,-281,-293,-178,-132,-15,183
-314,-233,373,-63,-580,-276,-194,-163,48,79
-284,-218,-137,-26,-659,-218,-131,-115,134,-78
-123,-89,-432,-18,-159,-24,5,-32,134,-205
-3,12,-631,65,767,233,99,-20,11,-277
138,156,-526,64,1061,385,212,51,45,-75
215,231,-417,-32,508,361,211,119,141,172
204,172,-290,-27,168,222,149,113,219,208
153,103,118,-6,30,88,96,108,261,116
108,76,532,41,-54,-27,38,121,346,98
75,13,347,33,-114,-69,33,215,421,146
-1,-75,-111,3,16,18,88,282,362,226
-75,-108,-376,27,244,88,88,240,484,230
-84,-1,-221,111,253,133,116,244,587,42
11,133,-72,159,120,149,181,226,411,-108
83,150,-140,55,-73,110,181,150,486,-65
47,77,-139,-47,-181,30,103,109,706,-9
26,26,-98,-60,-164,-22,62,132,531,49
57,44,-95,-49,-26,49,118,165,-124,77
25,14,-184,-16,15,72,104,47,-809,192
12,55,-135,83,-61,17,1,-101,-980,196
26,105,-51,68,-163,-124,-130,-223,-764,221
-42,38,-15,0,131,-87,-139,-190,-362,242
-72,0,-21,-14,498,99,-22,-50,-128,122
-41,0,48,-16,298,104,55,39,-109,8
-4,-42,10,-1,93,95,99,112,-165,-115
123,18,-48,8,52,106,125,149,-220,-104
99,53,33,29,49,84,80,78,-176,20
48,35,64,8,20,19,-11,-83,5,109
25,22,61,-1,-13,-28,-78,-178,158,38
15,33,70,17,-69,-54,-121,-172,-16,-114
1,20,131,-22,-184,-71,-80,-128,-139,-98
40,-13,296,-106,-289,-129,-65,-49,294,108
-25,-94,311,-56,73,-78,-176,-90,684,73
-78,-100,186,-12,115,-70,-172,-68,516,-16
-96,-101,-67,-86,-161,-151,-136,-72,-60,-35
-80,-46,-259,-110,-263,-115,-41,-39,-657,-139
0,69,-181,-81,-239,-32,8,-19,-732,-154
39,38,-122,-13,207,118,-55,-109,-443,23
10,-16,-106,12,347,151,21,-31,-7,180
-66,-23,-36,-24,-30,43,132,121,316,92
-127,-1,19,-23,-218,-28,128,156,361,-57
-99,154,96,-22,-335,-112,85,108,208,-49
20,274,125,-23,-217,-125,-2,-12,60,66
26,239,-14,-2,208,13,-61,-111,-35,13
-4,58,-126,-15,250,45,6,-8,39,-39
38,-1,23,19,92,78,152,177,180,-15
17,-77,66,21,-7,79,163,212,162,-100
-5,-205,25,-6,-164,30,105,201,138,-130
3,-134,-25,10,-252,-66,15,94,66,-70
42,-56,-103,24,-164,-123,-80,-63,17,-23
61,-37,-39,3,-231,-153,-120,-154,-34,-39
-42,-104,-21,11,-68,-55,-141,-217,-188,-177
-69,-90,-11,70,249,57,-126,-233,-257,-257
-3,-8,33,62,320,49,-59,-177,-248,-234
-1,3,27,0,120,18,37,-88,-181,-145
-18,-29,25,-31,-236,-59,71,-47,-127,16
-7,-72,-30,-63,-408,-171,-47,-80,-1,257
47,-87,-47,-120,-378,-210,-125,-85,308,450
-23,-51,97,-48,-164,-223,-168,-100,617,296
-147,128,572,65,0,-188,-199,-138,621,-128
-113,268,711,1,-413,-208,-110,-82,259,-269
-149,105,266,-45,-315,-92,41,-51,-282,-167
-234,-152,-275,-26,476,142,153,16,-398,-30
-197,-266,-379,-18,698,268,167,118,-270,63
-60,-117,-250,18,448,262,177,254,107,130
86,40,-187,29,209,179,168,285,743,20
244,47,-194,0,101,150,174,258,795,-213
190,157,-74,66,26,147,112,96,-298,-398
65,193,-37,45,-35,64,-26,-177,-1173,-333
52,143,-27,-25,-64,5,-37,-176,-830,-44
84,12,0,-7,164,40,-12,-49,27,292
116,-175,-14,-23,190,31,-3,-41,230,405
116,-185,-9,-31,14,-10,-24,-66,28,276
106,-54,35,14,-17,-13,-26,-11,-97,150
-36,-44,55,74,-6,0,-56,-58,-273,-92
-142,-52,79,101,-123,-27,-56,-83,-440,-291
-80,-23,95,61,-369,-94,3,79,-273,-191
10,8,89,22,-236,-85,63,210,136,-61
82,43,78,14,90,-59,34,101,425,-36
39,-7,63,27,384,71,-39,-76,426,-49
-44,-31,154,38,379,118,-73,-144,129,-72
-70,-46,145,-28,112,0,-135,-223,-343,-64
-81,-77,32,-99,-18,-37,-123,-192,-417,22
-105,-88,-84,-70,-108,-31,-64,-45,-100,119
-135,-93,-185,-8,-169,22,61,84,262,168
-33,-26,-191,-31,-209,37,176,203,763,235
63,25,-74,-34,-147,-93,47,170,891,199
11,-7,-43,-8,156,-61,-12,70,417,68
12,15,-33,-28,56,-6,43,109,-6,90
85,70,-17,-70,-270,-30,52,154,-154,122
51,47,31,-17,17,42,44,118,-197,77
-42,6,43,72,397,156,12,1,-278,-164
-81,5,67,57,194,80,-21,-49,-277,-372
-77,12,71,22,12,-2,-37,-86,-258,-358
5,36,65,-3,-54,-30,-51,-131,-155,-17
117,43,23,-64,-85,-45,-53,-105,-101,329
160,70,9,-93,-85,-8,-24,-1,-45,334
64,72,68,-35,-129,1,0,120,114,71
-32,49,102,24,-204,-38,0,208,167,-212
-77,21,109,44,-337,-120,-25,162,94,-357
-90,-4,78,80,-195,-138,-89,75,-41,-287
-53,-48,6,121,215,75,-56,29,-152,-30
-4,-55,-31,87,280,95,-139,-155,-184,239
-39,-82,11,13,173,-23,-152,-238,-164,255
-144,-90,296,-10,-25,-92,-107,-273,-298,-37
-246,-122,448,-12,-156,-138,-90,-243,-424,-327
-289,-210,251,-14,-162,-107,8,-84,-233,-370
-149,-200,-108,-17,-18,-56,42,-19,101,-299
-33,-86,-310,-28,123,17,25,36,339,-216
28,62,-232,22,111,71,56,72,204,-168
112,137,-225,37,118,120,103,37,-62,-59
134,120,-186,12,71,88,98,22,-109,143
91,98,-99,12,-13,52,89,65,98,240
35,70,-73,43,-168,-14,79,74,355,218
31,49,-42,-12,-418,-125,65,9,706,254
-30,9,-51,-61,-446,-139,52,-40,866,224
-86,-17,-40,2,60,24,48,-105,372,58
9,41,-6,20,354,79,35,-169,-253,87
30,58,66,-26,309,21,-13,-186,-619,128
32,93,300,-36,158,-38,-64,-186,-684,115
82,83,318,-61,-22,-111,-110,-193,-536,139
29,-20,113,-74,-93,-157,-135,-195,-129,236
6,-122,-151,-94,-103,-164,-110,-154,69,297
138,-37,-276,-113,-69,-102,-43,-100,54,299
115,45,-205,-45,38,33,45,-6,110,118
45,31,-164,13,102,112,85,24,245,-134
51,14,-148,12,89,115,83,23,522,-111
116,97,-21,49,37,50,72,72,507,51
98,155,124,134,69,19,26,0,-112,-173
21,120,87,128,106,-19,-13,-101,-661,-421
-10,52,32,73,100,-4,40,-37,-483,-354
-17,-1,10,29,-7,47,165,89,2,-188
-3,-18,-43,2,-130,30,168,104,122,-42
29,5,14,12,-262,-64,24,58,-104,53
16,2,49,3,-267,-97,-22,49,35,67
-4,-8,42,7,-74,-35,-6,74,387,33
17,-5,-39,-70,-57,-73,31,114,212,-15
-56,-64,-136,-156,51,-42,9,51,-285,-43
-101,-42,-109,-117,305,115,-30,-19,-472,12
-20,81,27,-11,230,125,30,78,-149,84
34,124,74,19,29,0,5,52,-77,64
-20,-67,-92,14,14,-35,-62,-59,-106,-60
-78,-305,-159,23,-52,-8,-71,-102,84,-108
-34,-233,-99,0,-181,-1,-49,-53,204,0
80,-15,-102,-30,-169,-69,-81,-44,105,171
121,64,-41,-26,147,-30,-56,-42,-37,173
104,68,73,-11,262,59,3,21,-61,3
54,55,115,16,103,56,-5,49,-147,-131
38,36,122,14,32,23,-16,15,-239,-107
47,24,109,-7,6,66,87,58,-84,-50
17,39,98,-19,-5,73,98,79,76,-88
-43,10,29,-47,-23,1,-6,29,132,-75
-66,39,-80,-87,-106,-102,-117,7,78,11
-69,169,-72,-103,-179,-204,-213,-27,-79,16
-125,186,50,-54,-17,-153,-262,-113,-108,-96
-86,107,55,-31,-7,-61,-122,8,216,-141
14,-108,-50,-44,-121,51,144,246,534,-1
60,-155,16,42,-119,96,184,243,367,57
9,-97,56,54,-134,45,77,47,-169,-158
-9,-88,-22,-34,-17,21,16,-66,-380,-210
58,-63,-30,-34,220,7,-49,-101,-110,91
134,-5,14,-6,72,-73,-81,-100,76,409
105,68,85,43,-159,-130,-57,-91,35,438
39,183,194,154,-443,-203,-36,-101,-51,202
50,247,228,124,-711,-237,29,-10,15,16
45,213,147,-28,-607,-133,87,104,93,-58
-179,-37,-57,-35,258,66,-11,-16,-79,-324
-280,-314,-252,-81,739,203,-34,-69,-184,-392
-152,-223,-167,-167,262,118,14,30,-148,-232
-71,-85,-61,-120,61,20,5,84,-85,-170
-36,-97,-68,-48,187,107,79,187,252,0
-3,-113,-41,23,191,149,82,160,800,158
17,-99,-18,54,147,110,21,85,1044,225
31,-59,-1,60,117,95,40,52,479,97
28,-33,18,51,67,72,72,11,-289,11
8,-46,0,33,13,21,35,-24,-679,31
-3,-33,5,51,35,35,31,-21,-577,-41
2,7,46,63,57,39,15,-31,-209,-60
44,23,24,11,-5,-36,-55,-55,158,136
50,4,-15,-17,-56,-82,-104,-14,195,119
37,12,-86,21,-27,-72,-109,-15,-206,-86
32,-4,-95,46,-11,-61,-77,-60,-334,-45
43,-9,-18,39,-31,-91,-71,-103,-45,195
30,-10,-10,-2,-94,-136,-107,-137,25,195
-39,-22,-7,-14,-104,-85,-67,-76,-130,13
-62,-17,-2,-13,-33,0,-44,0,-220,45
-37,7,14,-32,-114,-81,-100,61,6,181
-45,65,32,-23,-57,-65,-76,105,362,191
-48,163,111,62,79,130,136,190,353,-44
-94,161,124,108,93,154,173,107,-25,-223
-135,38,41,69,41,82,80,-21,-274,-55
-78,-90,-23,-5,-104,-24,25,-65,-367,28
135,-126,-109,-90,-165,-96,-31,-98,-201,-27
129,-75,-47,-26,63,-45,-55,-104,-37,-45
77,-29,13,9,126,3,-21,-26,69,35
79,-36,-6,-17,55,19,25,115,313,71
27,-67,-37,-34,39,67,90,232,686,-26
-8,-59,-10,-6,32,90,115,230,1019,-131
12,3,47,42,-18,68,84,190,878,-92
29,24,42,31,-115,52,95,189,163,3
70,57,26,-7,-268,-9,112,138,-416,9
-17,4,40,-15,-149,-19,19,-6,-512,-149
-160,-108,24,30,245,23,-127,-195,-557,-261
-104,-76,25,18,163,3,-101,-192,-556,-122
-14,-20,47,-30,-218,-119,-49,-97,-350,120
33,-2,-31,-80,-464,-248,-117,-75,-82,256
90,43,-37,-83,-597,-284,-122,-26,-10,226
48,36,-35,-17,-308,-180,-114,-61,-162,-63
-127,-100,-143,63,404,156,-93,-149,-297,-335
-71,-81,-100,53,318,182,10,-47,-129,-186
-12,-19,-48,37,285,115,15,-19,-49,-55
25,18,-102,29,242,86,9,-1,2,25
23,-8,-126,8,92,48,-11,23,121,57
-1,-16,-153,0,41,43,-62,16,200,5
-8,20,-128,-20,-36,0,-96,-34,127,-105
-81,-25,86,-58,-92,-49,-121,-66,-15,-221
-189,-81,493,-23,0,-20,-113,-93,-138,-313
-215,-97,481,6,-34,-49,-117,-116,-98,-239
-120,-125,61,7,-122,-74,-130,-129,88,-116
16,-31,-200,-36,-247,-117,-148,-162,81,-67
85,153,-166,-72,-415,-102,-59,-91,-157,51
132,204,-184,-117,-461,-84,7,-53,-306,243
-17,38,-287,-29,67,40,-69,-115,-363,208
-51,-4,-218,44,267,122,-37,14,-262,83
-16,-82,-83,13,60,52,33,176,-126,45
-25,-210,-38,68,325,101,104,283,127,17
33,-72,20,100,348,152,142,224,314,-35
80,55,21,57,-59,13,2,2,380,-108
69,22,-7,1,-272,-83,-104,-90,308,-30
66,-24,6,-77,-269,-54,-35,-62,123,187
81,-28,213,-77,-12,-58,-20,-74,-107,331
50,-32,308,-40,234,9,-26,-43,-45,332
12,-56,176,-25,199,54,-60,-73,38,209
-29,-64,-30,0,76,9,-98,-129,-23,-7
-24,-12,-147,21,-18,-39,-93,-115,6,-126
33,74,-136,50,-71,-51,-58,-3,127,6
26,34,-164,58,-9,28,42,160,197,137
-27,-47,-204,49,224,151,143,248,443,101
24,11,-141,7,208,171,217,297,763,97
70,80,-85,31,91,72,99,153,506,0
43,79,-96,63,52,0,-30,-43,-193,-219
31,37,-14,31,-5,-49,-87,-181,-681,-282
63,0,-3,-22,-86,-113,-69,-193,-614,-70
56,-22,-44,-56,-84,-43,38,-102,-234,74
35,-20,18,-39,8,42,113,-58,-54,53
34,14,256,2,-10,13,107,-13,8,101
-14,35,453,63,-19,-26,18,-29,-111,95
-115,3,379,48,-107,-98,-79,-92,-316,-23
-185,-97,57,-24,-227,-150,-106,-108,-194,-190
-194,-166,-171,-51,-188,-92,-73,-60,151,-239
-135,-126,-157,-17,-24,23,11,-47,196,-215
-102,-94,-183,25,198,86,20,-74,-32,-174
-58,-90,-256,27,140,50,25,-12,-57,47
19,-16,-267,59,51,42,51,38,-67,123
53,86,-99,89,50,61,55,40,-6,44
67,158,26,74,-150,-37,29,31,114,45
87,176,39,-4,-413,-154,2,26,175,2
50,243,56,-46,-356,-141,-1,24,13,-223
-18,243,115,53,355,85,-2,-30,-190,-373
22,183,105,57,517,125,31,1,-204,-193
82,-16,-45,-10,183,70,62,33,-186,-17
113,-123,-25,33,88,70,51,38,15,81
68,-95,18,35,68,41,31,25,438,179
-16,-62,-33,-39,7,30,66,144,906,213
-69,-36,-116,-59,-29,-2,51,210,1329,151
-35,-17,-165,-42,-29,-3,47,203,1435,36
67,16,-50,29,55,82,124,153,321,-58
145,42,92,81,96,99,122,-39,-1188,-65
168,-7,62,3,18,-15,-34,-223,-1576,125
147,-26,38,-22,-7,-69,-87,-218,-1113,193
84,10,60,0,33,-19,-20,-130,-671,110
53,26,21,9,20,-11,-16,-110,-355,166
59,79,33,-6,-18,-51,-46,-152,-187,242
87,172,114,-17,-47,-51,3,-107,-89,284
78,219,163,26,-62,-21,49,-46,-120,160
29,215,203,70,-78,-39,11,-57,-94,6
-1,35,169,43,-147,-124,-65,-70,181,20
-59,-184,-28,-24,-176,-155,-81,-72,332,-103
-163,-256,-171,-56,170,68,69,-15,405,-256
-101,-131,-64,-3,264,217,195,84,374,-214
-25,18,41,14,141,179,198,104,171,-99
-25,105,84,-2,35,45,114,72,-22,33
-66,113,86,3,17,2,97,83,25,7
-135,70,29,48,83,53,60,48,-63,-141
-154,-21,-64,52,29,-6,1,-25,-210,-131
64,-104,-114,-42,-103,-107,-79,-136,-296,-66
177,-133,-86,-109,-104,-123,-123,-177,-259,77
76,-93,-24,-66,-25,-52,-60,-55,-35,210
3,-41,0,-20,-65,30,81,129,337,189
2,16,-60,-27,-256,28,158,214,756,121
9,31,-4,-26,-495,-90,103,184,856,78
-76,-43,41,49,-311,-91,-20,44,400,-25
-64,-40,32,81,-143,-52,-33,19,-80,-36
-10,32,103,84,-92,-94,-45,34,-451,-68
66,56,89,-12,40,-83,-10,79,-389,-30
29,-13,-4,-79,330,72,44,105,-4,-35
-26,-54,-98,-4,639,288,79,76,321,-78
20,0,-127,19,359,208,48,61,304,-15
31,-16,-112,-29,100,44,-62,-66,-30,71
54,-11,-16,-55,8,-46,-138,-159,-377,169
59,26,73,-14,-21,-92,-181,-187,-485,116
65,55,116,7,-97,-108,-105,-122,-299,55
82,96,153,-14,-186,-91,59,-13,-163,22
72,170,258,-49,-278,-105,78,57,-58,-23
-54,96,219,-62,-117,-34,-26,-48,-110,-128
-123,-8,69,-28,19,6,-94,-105,-185,36
-67,-80,-101,-64,-160,-91,-98,-32,-29,307
-30,-205,-192,-133,-321,-190,-91,67,390,312
-47,-200,-144,-58,113,-30,-47,101,728,95
-51,-47,-43,45,488,201,15,125,713,-122
-83,41,47,84,281,204,86,181,460,-343
-119,19,88,70,109,142,171,171,-98,-449
-33,5,69,62,106,118,137,14,-595,-413
81,16,31,46,128,41,-21,-150,-721,-285
49,2,28,32,130,34,-44,-79,-486,-81
25,27,18,70,65,87,75,109,-249,-161
4,37,11,92,-8,75,83,176,-140,-399
-7,13,41,41,-45,-7,-2,83,-42,-328
22,-36,-14,-44,-44,-81,-111,-76,109,82
31,-46,-58,-77,58,-35,-55,-114,242,370
24,0,-5,-42,63,31,64,-12,218,366
-17,19,36,-1,22,78,119,25,234,222
-95,-10,44,-19,-98,33,100,-4,170,-64
-150,-59,11,-16,-142,5,59,-34,144,-216
-142,-46,2,35,-104,47,46,-7,222,-142
-74,25,50,68,-109,-22,53,8,107,-35
12,79,80,70,95,-17,14,-56,-124,46
51,37,18,-3,165,-8,-59,-122,-166,144
45,-29,-46,-28,207,-3,-121,-155,-235,142
17,-49,-62,-5,164,0,-108,-119,-190,98
-33,-38,168,28,79,-3,-75,-67,-143,-10
-79,-26,339,39,-8,-7,-10,0,-56,-107
-113,-55,249,13,-54,-5,33,58,83,-142
-100,-77,15,-24,-87,-55,-52,-39,89,-127
-106,-78,-226,-50,-80,-97,-120,-109,119,-80
-47,0,-215,-28,-13,-54,-76,-1,130,9
53,76,-228,-8,-15,2,15,125,-65,36
104,65,-313,-1,-139,-2,45,139,-153,-21
92,43,-192,10,-326,-79,1,113,97,-55
48,21,-102,-11,-416,-129,-18,171,456,-68
4,-6,-48,28,-67,-31,-13,103,441,-115
-4,11,23,82,409,95,55,74,287,-74
0,30,44,11,294,108,108,99,8,47
-3,-1,1,-55,95,46,33,-15,-251,191
43,-4,-50,-56,79,-3,-38,-123,-247,344
131,47,-41,-52,-50,-40,11,-69,-106,458
164,73,6,-50,-133,-54,47,19,-78,436
87,18,11,-10,-104,-33,18,75,-109,312
-57,-85,-50,-9,39,64,63,117,64,88
-68,-74,-51,1,132,107,134,174,585,-78
10,0,23,22,84,82,150,179,922,-217
27,44,80,40,34,56,125,107,497,-347
53,66,85,28,0,26,59,23,-243,-219
103,57,52,-16,-69,-21,-2,-38,-647,22
100,35,-16,-18,-64,-5,4,-46,-408,86
28,13,-27,51,68,58,2,-62,2,-40
1,8,37,85,59,30,-25,-128,16,-40
-19,-17,14,62,-47,-7,-3,-131,-166,-11
-26,-29,-8,13,-153,-42,33,-126,-270,-10
-13,5,40,31,-189,-82,0,-142,-204,-28
0,34,71,68,-52,-53,4,-51,-70,-7
63,79,97,26,-226,-58,101,138,100,91
87,87,73,-8,-162,-23,101,199,159,71
23,19,16,0,22,9,-17,98,214,13
-93,-76,-55,6,48,-5,-144,-63,181,-61
-135,-56,-58,-2,79,64,-85,-106,-140,-62
-108,89,-18,-16,152,71,-22,-139,-445,34
-88,196,65,-11,295,74,15,-95,-434,156
-30,220,116,-5,130,22,8,-49,-304,146
7,26,7,-42,-20,-45,-43,-61,-216,48
56,-196,-87,-67,-34,-18,-39,-95,-114,68
118,-174,-65,-52,-64,-42,-38,-114,-41,173
70,-125,-76,-29,-47,-70,-70,-95,16,100
37,-65,-57,-12,38,7,16,28,142,3
26,-9,9,18,92,66,75,54,73,-101
-11,-2,22,21,-6,3,43,3,10,-160
-33,-11,6,-26,-123,-68,11,17,111,-98
-26,-42,-20,-29,-92,-48,11,13,64,-74
-45,-77,-32,18,40,26,18,-57,-89,-145
-41,5,-11,30,-284,-56,2,-62,-92,-166
-12,85,-9,-43,-921,-273,-110,-92,71,-12
25,86,-55,-210,-1168,-393,-179,-53,375,245
-22,25,-75,-144,-319,-252,-181,-38,365,293
5,59,46,46,918,94,-86,3,247,313
26,175,201,75,884,183,-3,47,215,276
-129,31,106,44,367,117,3,-31,51,-56
-239,-191,-59,-7,294,195,119,11,75,-226
-188,-190,-70,-2,222,188,167,85,187,-112
-20,-93,-71,0,106,108,154,124,171,-138
176,-64,-80,-32,58,54,97,103,-43,-225
107,-35,203,20,81,71,86,45,-352,-265
34,-9,406,30,41,30,40,-30,-315,-59
-7,-23,290,0,-10,-12,6,-3,-37,220
-66,-76,-2,-44,-38,-38,25,40,99,322
-65,-76,-272,-74,-44,-77,11,15,31,284
1,37,-297,-73,-67,-95,5,9,-95,144
60,175,-163,-32,37,28,53,28,-103,99
57,228,-88,30,150,180,83,20,73,113
47,248,-17,49,64,112,58,-12,284,-54
54,99,-25,2,6,34,19,-29,260,-334
48,-126,-110,-65,-45,-21,-46,-23,46,-358
79,-109,-251,-98,-104,-75,-119,4,58,-121
48,-63,-184,-43,-117,-52,-116,21,419,24
-16,7,22,62,-87,50,26,102,789,-51
-30,57,114,108,-16,158,192,187,447,-196
-59,14,49,83,142,164,146,41,-383,-189
-59,-37,-88,16,89,59,-9,-141,-967,-122
-14,-43,-129,-22,-54,-8,-88,-157,-878,-132
20,-5,-15,-24,-187,-47,-73,-72,-556,-103
38,13,11,-19,-69,-22,-25,-1,-371,12
57,5,-40,-1,110,-2,-27,18,-219,206
117,38,-29,0,38,-38,-35,35,67,358
113,70,-22,11,-33,-16,1,48,369,325
31,82,49,11,-40,5,9,11,463,217
-61,63,43,3,-10,-8,-3,-20,242,138
-94,53,46,-6,-85,-31,72,109,-41,-26
-129,-15,38,-7,-169,-54,89,135,-356,-190
-143,-94,87,44,-207,-6,71,130,-121,-167
-31,-28,201,41,-243,8,83,160,59,-263
29,28,191,61,36,44,20,48,-140,-326
-29,3,64,109,442,108,12,-12,-246,-258
-48,15,-32,49,297,34,-25,-62,-275,-174
-19,26,-19,21,39,-45,-103,-179,-226,-27
6,38,-67,4,-24,-56,-95,-223,-210,94
15,7,-103,-10,-13,-33,-59,-210,-182,72
3,-34,-72,-13,8,-5,-25,-175,-104,38
17,-30,-19,-6,-33,-13,-3,-65,47,137
46,-14,23,-7,-117,-23,8,42,319,259
72,32,44,-5,-204,-42,-11,37,681,248
75,41,30,-20,-159,-22,-8,5,723,125
21,-7,-57,10,163,51,-50,-72,200,73
30,-7,-121,-19,144,53,-35,-57,-222,271
54,1,-35,-47,21,20,6,53,-300,377
13,-4,25,-16,24,24,62,130,-81,257
-25,0,54,30,1,10,68,94,-24,163
-36,29,101,78,-50,-15,13,52,-106,-12
-88,38,229,78,-73,-43,-59,-19,-131,-278
-125,-8,388,34,-97,-35,-6,15,2,-382
-168,-89,305,13,36,61,75,97,45,-365
-151,-93,132,22,79,20,30,80,-38,-314
-135,-103,-106,-4,-40,-106,-132,-58,-193,-277
-108,-82,-221,-11,-63,-89,-150,-108,-227,-217
19,31,-177,-25,-190,-39,-37,-18,-123,-44
76,11,-196,-59,-80,-48,-56,-50,-91,112
41,-25,-167,13,397,98,-74,-90,-46,169
36,20,-57,53,349,101,-50,-40,102,137
41,41,11,13,128,52,-44,17,244,29
32,58,22,16,73,69,3,78,285,-101
-15,41,20,44,81,106,64,89,90,-198
-43,1,-1,29,57,66,38,72,-151,-79
-76,-7,1,31,51,19,-16,68,-172,52
-87,-25,0,16,27,38,28,124,42,72
-3,-1,5,-10,-65,3,28,117,168,59
73,28,28,-45,-159,-94,-25,39,110,59
99,6,14,-74,-221,-137,-14,32,113,104
55,-20,-7,-68,-175,-68,69,114,242,164
-39,24,-9,-19,95,91,72,100,271,131
-23,147,78,52,197,97,7,41,403,120
30,201,118,70,87,9,-31,35,673,107
14,125,70,42,45,-6,-34,31,380,2
-11,-99,-117,-2,23,39,25,14,-271,-64
42,-169,-139,-16,-138,33,104,26,-423,21
71,-50,5,-7,-243,-54,13,-33,-172,93
49,-35,-6,-42,-224,-108,-72,-80,-20,31
72,-41,-14,-69,-215,-87,-27,-39,-232,41
80,-47,-7,-42,26,7,9,-16,-519,79
62,-15,40,32,277,112,63,62,-515,95
21,34,298,131,155,96,92,141,-306,-74
-63,32,615,169,-106,19,57,139,-63,-348
-89,6,559,110,-236,-16,27,108,315,-354
-105,-46,221,16,-109,0,-38,18,517,-194
-122,-110,-208,-33,217,-4,-109,-104,225,-105
-82,-87,-372,-41,314,19,-119,-156,-128,-5
4,-9,-276,-4,160,-47,-160,-203,-182,84
76,-12,-284,-15,51,-59,-84,-109,53,66
94,-20,-328,-53,3,2,57,15,132,1
73,40,-141,-43,14,21,99,10,36,-48
51,88,-23,-11,22,7,61,-39,99,-69
78,80,-8,-33,0,7,48,-60,149,9
81,34,-42,-57,-31,-10,19,-61,20,159
52,53,-10,-38,-45,-41,-57,-102,-280,151
-13,161,-8,-41,-85,-102,-131,-161,-495,129
-78,199,-80,-15,-107,-113,-133,-175,-399,100
-79,139,-122,7,-224,-149,-120,-138,-194,0
-6,-38,-159,-20,-458,-221,-70,-44,-98,-24
12,-181,-154,24,-624,-232,-75,-4,-80,-14
0,-129,-87,8,-687,-201,-108,-14,-54,-26
-13,-32,-36,-55,-359,-133,-142,-48,-91,-97
-34,-32,-40,-48,378,-15,-157,-87,-167,-183
-17,-74,-97,-48,908,141,-114,-42,-105,-144
35,-28,-86,-52,580,179,0,94,54,21
32,29,-26,-42,86,101,85,183,157,232
14,56,-71,-32,-83,-38,-11,73,89,433
-16,20,21,-4,-150,-94,-68,1,-6,517
-8,-81,59,12,9,-38,-17,36,22,410
146,-143,0,5,230,44,19,49,105,272
85,-73,77,62,169,97,110,76,72,33
-53,-21,160,115,88,109,127,28,-20,-327
-132,-50,70,74,-17,49,64,-48,3,-416
-91,-95,-101,-7,-62,1,8,-104,78,-196
-63,-165,-166,-27,40,37,9,-61,251,11
-46,-174,-138,-14,126,82,88,45,343,132
-2,-72,-51,-13,69,39,104,121,338,143
23,26,-31,-37,4,-10,66,112,257,30
47,82,8,-8,-7,-18,33,81,134,-71
33,94,71,43,-51,-25,-10,4,-79,-32
4,76,90,68,-165,2,10,-9,-109,121
-17,53,104,47,-235,1,83,66,152,201
-23,54,92,12,-129,-7,38,48,218,124
-20,69,92,30,242,31,-13,-5,120,47
9,44,82,-16,337,77,40,36,60,123
-10,-13,134,-39,132,61,45,28,-82,61
-63,-102,186,11,52,29,38,82,-36,-46
7,-112,86,33,44,54,114,249,136,-113
50,-50,-80,44,31,82,174,317,160,-285
-7,0,-51,55,29,94,154,294,6,-406
6,138,51,39,-48,44,55,225,-98,-315
64,252,120,60,-183,-17,-25,139,29,-131
156,321,161,49,-355,-71,21,149,294,7
181,304,210,44,-324,-98,20,94,437,-77
63,-6,101,30,34,-9,-19,-61,254,-292
-130,-260,-99,21,404,160,-17,-161,29,-395
-170,-175,-73,35,373,185,21,-170,-240,-390
-103,-52,28,38,130,84,-13,-201,-332,-240
-94,-49,96,27,-42,-15,-77,-261,-304,-124
-62,-87,273,-3,-85,-77,-126,-271,-222,-5
-21,-70,378,-34,-116,-119,-170,-236,-143,106
-73,-98,261,-37,16,-117,-165,-170,-228,134
-130,-124,110,-34,106,-83,-123,-75,-332,102
-102,-69,105,-32,9,-94,-75,-8,-180,111
-20,54,42,-9,-20,-21,-5,28,118,97
11,138,-206,-33,-6,70,73,45,248,2
25,144,-378,-71,-8,61,34,-109,-83,-45
69,91,-306,-92,-48,-22,-104,-306,-412,127
132,-75,-325,-137,-108,-100,-200,-340,-451,319
189,-189,-315,-147,-97,-78,-148,-168,-161,411
198,-94,-167,-82,-61,-15,-45,5,154,397
98,12,0,28,43,67,50,67,221,81
-30,48,95,123,151,164,128,79,-85,-355
-66,57,119,151,157,146,88,-24,-476,-474
-45,42,73,91,82,37,-1,-102,-451,-222
11,59,96,55,35,-80,-112,-190,-336,-55
20,65,119,58,-16,-166,-186,-245,-280,-17
-29,4,68,26,-102,-110,-29,-102,-110,45
14,6,61,-58,-281,-73,138,74,20,86
-10,-43,-6,-120,-268,-29,148,73,-20,13
-78,-122,-79,-58,219,155,28,-61,-105,-114
-43,-76,-52,-2,229,137,2,-43,-7,-77
-6,-50,-31,-13,-30,43,32,13,131,3
47,-21,-29,-38,-190,-23,50,95,267,78
43,3,-16,-29,-105,-29,71,135,330,132
6,-13,-77,15,166,62,102,172,314,173
3,7,4,21,75,58,83,182,193,176
5,12,33,21,-7,83,81,111,90,37
-23,-42,-49,-3,-25,77,11,-15,228,17
9,-58,-122,-84,-189,-48,-88,-50,494,204
74,5,-150,-119,-262,-116,-87,-13,599,350
91,38,-118,-49,58,9,0,77,488,328
113,76,-43,-8,159,101,100,173,181,267
107,90,77,-15,-124,27,72,140,-103,93
67,72,113,-16,-194,-78,-45,-5,-305,-144
14,25,79,39,234,-34,-73,-86,-357,-179
-26,-24,-23,50,425,77,-34,-24,-183,-61
-38,-31,-103,25,191,41,-59,49,1,-57
-83,-38,-60,40,46,-22,-86,55,23,-226
-82,-42,-35,39,-37,-48,-43,81,38,-257
-20,-33,25,8,-89,-1,56,180,118,-61
28,-3,63,30,-59,21,91,203,53,165
52,29,92,38,32,-27,52,183,110,323
61,86,141,35,68,-15,49,183,213,150
2,61,133,52,90,21,9,97,136,-266
-68,-27,43,-1,166,117,18,67,242,-339
-37,-35,27,-21,145,84,-22,12,233,-174
-22,-10,26,-35,44,-15,-73,-63,-63,-64
-15,-13,20,-36,-13,-48,-89,-85,-406,-80
19,-27,30,-3,11,-30,-57,-67,-414,-65
22,-10,46,24,47,-13,-28,-72,-194,-111
23,23,46,32,11,-36,-80,-112,-6,-67
55,61,16,-24,-83,-99,-109,-130,-22,112
0,19,-42,-65,-26,-49,-83,-161,-270,152
-36,-22,-56,-45,20,1,-27,-140,-470,140
-12,-5,-13,6,17,-12,-20,-81,-448,158
5,24,38,55,35,-4,-24,-77,-331,24
-4,28,54,66,21,-5,-20,-120,57,-134
17,35,46,48,-44,-24,-9,-125,519,-120
43,51,38,14,-128,-71,-48,-88,536,-29
-9,14,0,-27,-158,-73,-1,-16,291,55
-109,-74,-89,-50,-55,40,109,64,39,71
-101,-88,-89,-45,-21,140,194,138,-44,58
-17,0,-6,12,-144,53,105,56,-188,-18
38,56,38,22,-143,-45,-21,-109,-449,-139
80,62,40,-26,-175,-127,-68,-133,-441,-78
13,-17,-26,-35,18,-89,-97,-91,-211,-3
-55,-80,-98,-47,177,23,-20,4,12,6
-80,-83,-124,-53,-4,52,68,116,181,17
-101,10,-60,-12,-138,9,92,202,259,-14
-89,154,67,49,-133,22,147,311,236,-115
-95,169,127,112,157,87,178,310,216,-179
-100,123,121,94,367,127,170,218,294,-134
-50,116,65,-23,42,-2,59,-7,146,-149
117,164,-61,-151,-165,-156,-95,-297,-240,-188
84,145,-43,-139,13,-139,-134,-408,-383,4
26,4,-63,-74,77,-61,-70,-318,-213,287
64,-214,-113,-5,86,23,12,-124,55,442
72,-221,-42,51,11,41,75,10,150,415
28,-103,48,14,-204,-8,101,44,59,187
-84,-70,137,1,-372,-59,68,-2,-112,-167
-218,-123,131,64,-97,35,-4,-93,-146,-381
-137,-51,127,80,5,-3,-49,-95,3,-307
0,7,-46,7,71,-119,-152,-176,-46,-229
-8,-52,-165,-64,290,0,-104,-122,-87,-137
-24,-143,-129,-112,199,85,5,14,-18,-21
22,-259,-151,-70,113,108,9,52,-64,34
72,-210,-95,0,80,98,36,91,2,115
92,-54,-19,44,87,87,42,72,83,117
146,37,-30,45,65,46,-2,-12,121,148
142,29,-85,-3,-4,0,-47,-77,115,207
91,-6,-120,-11,-26,14,-34,-38,124,157
46,-8,-18,4,-8,41,16,15,61,49
48,8,7,5,-11,32,-1,15,-12,14
84,19,22,-6,-38,-2,-10,23,1,44
71,12,33,4,-83,-33,6,27,20,45
58,11,41,-9,-167,-38,37,47,36,68
91,52,127,-43,-323,-106,31,69,106,100
7,0,220,-39,-191,-58,-16,15,177,23
-98,-100,238,33,193,125,-11,2,213,-27
-93,-111,141,51,226,100,13,23,179,38
-107,-136,-99,5,60,-22,-96,-75,21,125
-62,-62,-218,-28,-31,-81,-162,-106,25,151
-15,21,-218,-26,-6,-10,-76,-13,133,12
25,98,-157,-21,16,59,23,70,149,-109
44,176,-27,27,62,94,48,86,51,-113
-1,181,158,74,104,115,79,114,-97,17
-60,99,304,57,35,68,57,143,-252,5
-114,-114,227,17,-107,-8,29,167,-238,-136
-145,-213,56,-36,-305,-114,-19,140,-221,-207
-109,-103,-40,-59,-376,-165,-67,144,-241,-188
-69,-23,-65,-46,-177,-118,-33,210,-237,-112
-47,-31,-147,-38,48,-10,13,217,-68,47
39,-46,-249,-31,256,104,41,172,287,269
135,36,-176,-2,226,132,106,165,765,321
170,107,59,63,161,83,75,52,962,185
77,72,375,120,134,51,27,-79,864,148
-53,14,457,127,89,19,-9,-177,452,112
-146,-78,221,29,-52,-50,-21,-185,-34,67
-152,-141,-225,-85,-179,-107,-16,-162,-455,47
-63,-91,-469,-103,-165,-68,48,-115,-609,-55
41,23,-320,-5,96,39,88,-142,-723,-219
146,104,-175,19,123,25,23,-261,-788,-171
176,124,-105,11,18,4,37,-225,-560,-64
115,101,-14,63,-71,23,30,-121,-377,-147
70,65,19,74,-252,-40,-15,-54,-171,-176
34,27,0,-7,-368,-64,53,116,210,-76
-38,-32,-50,-50,-65,90,217,311,602,-8
-45,-35,-119,-32,322,167,200,330,686,-19
-23,7,-62,1,364,196,111,243,296,-126
-12,67,36,58,222,177,70,119,-385,-282
7,77,-9,50,105,116,4,-102,-694,-153
36,60,35,29,50,51,-77,-261,-513,58
72,65,76,34,34,-7,-66,-228,-274,136
92,54,66,30,30,-45,-65,-149,-49,192
77,44,37,5,8,-61,-89,-92,142,197
52,25,19,-33,-44,-73,-81,-52,235,93
46,11,-27,-89,-118,-74,-52,-9,233,-6
37,-7,-48,-121,-127,-90,-54,26,204,-16
10,-29,-24,-54,24,-69,-105,1,87,53
-6,-3,28,35,75,-56,-155,-33,-25,143
-69,7,74,71,46,-36,-124,-15,-114,56
-152,-5,66,67,41,47,44,64,-115,-158
-177,-46,28,42,37,126,174,92,21,-352
-151,-82,-12,0,-25,74,120,9,297,-269
-113,-77,-68,-24,-78,-23,-6,-116,425,-53
-66,-66,-22,-45,-147,-113,-118,-177,346,135
-73,-80,319,26,-207,-142,-112,-135,85,158
-6,-10,684,113,-298,-118,-21,-7,-77,134
58,88,616,83,-478,-129,35,34,-188,112
13,77,229,5,-400,-131,7,-71,-374,-73
8,31,-241,-164,-297,-133,1,-124,-457,-266
23,13,-371,-145,128,4,-26,-155,-468,-337
23,15,-283,48,860,264,-13,-128,-280,-204
88,17,-333,23,595,220,97,12,50,91
62,-22,-276,-36,246,131,158,88,186,194
-12,-49,-144,-47,150,80,134,122,189,139
-1,-45,-105,-83,37,-16,69,101,259,102
26,-17,-78,-45,35,-60,0,54,310,50
48,34,-17,26,62,-34,12,34,202,-4
45,56,8,52,47,-12,23,-3,12,-81
-12,35,-8,31,31,8,19,-41,45,-144
-74,16,-9,35,37,-4,0,-68,271,-207
-76,24,6,40,47,35,56,10,313,-146
-51,26,34,34,34,55,72,4,16,-2
-19,41,47,26,5,4,9,-41,-304,101
11,47,38,18,-56,-36,-14,10,-249,141
60,90,35,-43,-158,-69,8,62,84,133
50,201,65,-50,-182,-75,5,44,359,57
-32,194,-33,54,106,22,-62,-85,230,-145
-23,165,-60,63,158,39,-108,-184,-84,-121
9,22,-6,-12,-47,-53,-132,-194,-297,23
7,-172,-45,-36,-55,-60,-81,-103,-417,69
11,-142,-33,-36,-13,-6,-7,37,-163,34
35,0,-15,-57,-161,-36,59,149,356,-5
48,40,-68,-118,-300,-69,97,227,793,3
59,28,-32,-148,-231,-29,79,198,614,49
-6,16,-23,-43,207,51,-16,12,83,79
-73,49,13,47,314,10,-122,-122,-210,177
-65,120,74,53,-44,-156,-231,-150,-204,239
-127,91,59,2,-328,-240,-215,-110,-173,142
-157,0,34,-41,-386,-172,-88,-67,-237,-28
10,-88,23,-33,-129,-70,-19,-76,-295,-197
29,-79,95,96,112,55,108,39,-145,-210
-21,-58,100,148,-117,36,114,123,209,-67
-6,-107,-113,47,-214,27,7,67,499,17
-48,-119,-190,26,264,148,-98,-123,265,-114
-15,92,-92,-26,376,161,-51,-140,-70,-51
117,274,-78,-98,208,85,-8,-82,-249,107
153,256,-88,-91,144,55,-8,-49,-352,119
81,47,-57,-50,44,22,-23,-20,-268,62
22,-183,-94,-28,21,41,31,56,-13,132
36,-204,-76,-35,-20,38,99,156,254,251
-1,-168,-69,-74,-46,-16,78,183,430,222
-64,-127,112,-51,1,8,81,234,446,156
-70,-56,361,28,60,66,109,271,321,108
-28,-14,361,104,100,102,128,259,177,56
-32,-32,182,102,73,67,70,103,42,-106
-96,-65,-35,33,-3,-41,-58,-137,-235,-378
-113,-58,-117,-4,-49,-80,-71,-217,-346,-355
-22,-70,-178,-44,-71,-72,-30,-136,-156,82
97,-48,-208,-85,-72,-40,-16,-56,-17,439
156,13,-178,-82,-77,-43,-30,-53,34,545
194,63,-135,-47,-47,-27,-5,-18,71,445
108,71,-90,-15,4,42,74,62,-4,64
5,45,-42,21,41,95,135,105,-84,-270
-10,20,-52,42,59,78,105,53,119,-307
-32,23,-107,44,9,20,2,14,460,-142
-82,17,-35,87,-81,-72,-144,-90,387,-40
-94,7,77,120,-207,-108,-165,-107,68,-50
-22,66,108,50,-305,-53,-20,52,-121,-121
37,108,126,53,-26,63,48,48,-420,-257
51,71,85,60,367,159,50,-29,-530,-328
49,31,38,-20,330,143,54,-55,-522,-277
81,39,22,-60,131,88,60,-40,-536,-211
110,75,64,-45,43,27,22,-47,-457,-125
117,87,81,-36,26,9,10,2,-163,8
105,82,79,-14,24,50,104,79,186,133
63,71,113,54,61,81,137,75,227,89
23,23,88,104,62,15,36,-39,44,131
1,-28,16,62,0,-70,-52,-134,-84,188
-17,-68,-25,-6,-51,-101,-67,-136,-88,198
-3,-66,-18,-21,-49,-64,-28,-53,75,255
-17,-41,2,18,-10,7,46,38,160,241
-25,-12,31,52,33,62,88,71,69,46
5,13,-25,46,30,55,59,36,28,-115
20,13,-121,39,-15,5,-17,-31,86,-132
49,40,-80,3,-162,-79,-70,-78,112,-99
52,58,10,-25,-242,-145,-127,-120,-61,-55
16,17,24,-13,-132,-49,-148,-126,-344,97
44,-2,-6,8,-111,-55,-104,-59,-321,292
60,-35,-71,9,-21,-27,-26,33,139,329
1,-64,-56,-14,-37,-1,40,99,602,183
-6,-43,-24,-50,-1,-14,134,221,750,190
37,58,-7,-84,98,13,166,312,651,272
-16,136,71,-54,92,79,112,255,338,-64
-81,187,154,49,105,122,62,98,108,-483
-90,144,173,93,110,59,-12,-109,-161,-544
-104,-86,104,74,107,35,-71,-242,-638,-444
-90,-161,12,32,32,37,-70,-243,-880,-222
-96,-103,-52,-41,-106,8,-32,-145,-695,-26
-64,-41,-14,-79,-250,-31,13,-27,-296,15
-21,-15,-7,-48,-358,-111,-10,-18,-65,40
-37,-50,-10,1,-364,-199,-88,-91,73,5
-86,-89,-77,-32,-345,-202,-139,-140,125,-61
-103,-17,-145,-37,20,-101,-131,-99,169,-36
-128,45,-80,32,635,122,-65,16,181,-64
-98,43,61,54,609,232,12,114,178,-108
-60,-45,240,-2,146,117,64,181,132,-67
-98,-206,277,-13,-9,122,190,284,183,-33
-99,-184,202,-6,-12,56,116,179,71,-1
-57,-90,-58,-49,-44,-72,-59,-18,-148,63
2,-60,-206,-43,-69,-69,-48,-35,-178,71
83,16,-167,-2,-89,-32,36,10,-137,11
163,71,-156,22,-55,3,108,43,-156,-79
167,96,-173,28,-18,21,117,31,-190,-151
50,33,-164,-5,86,45,55,-57,-165,-181
9,-14,-130,-30,121,50,-8,-131,-81,-4
84,-1,-49,-56,-47,-60,-42,-161,-30,310
146,9,-33,-86,-158,-152,-101,-187,-32,520
173,15,-27,-114,-255,-181,-142,-155,0,573
71,-61,-59,-99,-170,-153,-178,-98,-4,419
-28,-97,-61,-60,-82,-60,-37,83,38,123
-13,1,7,2,-69,46,126,225,118,-223
51,97,89,58,7,74,86,145,150,-410
96,94,83,25,-82,5,15,76,306,-258
56,35,53,38,82,-3,-37,76,213,-171
31,44,95,63,135,32,2,120,-70,-166
14,51,113,98,124,50,31,19,-172,-176
52,65,102,87,8,10,66,2,118,-69
109,85,93,32,-66,-4,117,71,331,51
35,15,-9,20,74,54,89,-15,147,-20
-98,-89,-172,-11,191,100,25,-158,-190,-109
-121,-99,-126,-47,110,67,-15,-151,-204,-32
-89,-80,-27,-45,-39,-3,-7,15,-79,-17
-80,-21,-33,-12,-24,-12,17,153,1,-64
-133,50,7,29,88,33,16,143,15,-122
-182,71,52,34,89,60,17,120,112,-116
-234,28,115,53,39,56,48,141,307,-46
-279,-48,210,50,-8,0,16,44,170,-127
-113,-103,124,-30,-92,-101,-67,-159,-224,-239
-24,-142,-37,-88,-148,-134,-137,-228,-451,-204
122,-75,-137,-140,-201,-145,-169,-253,-471,-47
211,-46,-116,-79,-188,-76,-138,-248,-270,195
205,-25,-45,25,-279,-50,-81,-160,-56,447
199,3,-37,46,-456,-110,-83,-115,21,559
184,25,52,82,-367,-131,-76,-122,180,402
147,31,73,52,-174,-101,10,18,647,214
120,40,75,0,59,0,141,205,910,128
48,-2,56,20,358,98,79,129,604,35
19,-37,26,0,308,124,48,45,157,-98
20,-31,12,-51,-2,40,79,51,-231,-188
3,-6,25,-31,-29,27,-2,-17,-562,-210
-31,-16,29,52,331,186,-54,-122,-700,-242
-29,-10,54,63,339,109,-46,-56,-298,-135
-28,-33,258,20,115,10,-50,42,137,-9
-47,-67,338,-18,28,12,-7,139,223,-84
-75,-86,219,-14,38,-1,-21,107,33,-267
-74,-95,13,-8,17,-25,-67,15,-263,-269
-4,-50,-149,-19,0,-22,-79,-66,-459,-59
72,63,-160,-32,6,-7,-80,-124,-288,145
72,188,-121,-28,22,28,-83,-137,-179,191
66,235,-61,-48,2,25,-68,-114,-128,190
41,171,-24,-56,-26,-11,-56,-48,-62,143
60,-38,-108,-79,-30,-15,14,91,123,139
73,-185,-117,-13,51,64,88,216,233,63
37,-125,-24,76,134,140,151,224,87,-118
-23,-73,-11,73,104,106,105,148,-69,-145
-30,-60,-21,27,30,28,41,80,16,-27
-15,-46,-20,-4,-58,-29,8,81,299,83
-45,-43,-42,-15,-179,-48,51,160,534,82
-87,-34,-77,-21,-365,-65,86,234,554,-36
-83,-12,25,-4,-471,-116,48,195,327,-171
-65,-8,40,56,-257,-77,5,60,-14,-191
-25,-5,17,60,26,40,21,-43,-294,-132
67,60,29,-8,12,0,61,-27,-333,31
18,16,-97,-1,377,15,-10,-117,-230,84
-10,-28,-167,20,634,124,7,-111,-56,168
71,87,2,1,296,61,34,-48,150,324
103,197,71,-16,37,-18,0,-2,185,330
80,180,67,-17,7,-47,-9,12,-6,270
65,68,-26,-57,-9,-57,-11,16,-124,197
55,-120,-198,-95,-52,-86,-40,0,-31,152
22,-252,-142,-82,-66,-103,-43,5,148,173
-109,-242,89,-58,-74,-108,-48,-39,17,21
-242,-206,223,-48,-45,-82,-29,-102,-273,-243
-306,-228,125,-14,-3,-43,10,-95,-407,-414
-306,-215,-22,22,33,16,47,-50,-395,-506
-169,-78,-46,32,32,14,12,-20,-224,-202
12,89,15,56,49,8,0,-13,113,133
159,200,-49,54,60,22,-21,-30,488,262
178,198,-90,28,37,70,38,12,568,204
100,110,-35,29,-4,71,76,50,344,60
25,47,-21,2,-88,-9,59,35,7,4
-30,34,1,29,-64,-32,18,14,-226,-2
-81,16,10,73,121,71,12,38,-118,-16
-106,-7,4,69,165,125,77,98,117,0
-54,22,6,72,114,130,126,115,329,8
-53,29,-44,93,104,118,114,123,304,-207
-56,26,-111,67,59,88,88,104,-62,-293
-45,38,-51,24,7,35,38,49,-229,-122
-64,18,5,12,-19,-14,-11,20,62,0
-43,15,18,14,-8,-26,-23,38,660,-16
14,69,62,30,12,9,-12,42,641,-47
40,119,90,39,21,24,-15,-24,-21,-75
27,155,81,-7,-46,-10,-12,-77,-571,-44
-21,134,54,-53,-107,-35,5,-85,-553,16
-18,138,46,-64,-160,-91,-52,-74,-104,83
37,90,48,-56,-226,-153,-105,-90,102,234
113,-88,31,-78,-338,-221,-146,-167,54,359
167,-116,-3,-79,-340,-212,-139,-136,-48,426
75,-80,-88,43,101,28,-9,-99,-221,251
-15,-64,-37,143,360,214,141,-76,-240,-99
-13,2,4,118,219,179,170,-29,-149,-365
12,77,-26,42,29,53,88,8,-94,-377
-30,58,1,0,58,32,19,2,-89,-282
-85,2,33,-7,135,65,-7,23,-135,-171
-80,-22,54,15,95,17,-53,-17,-186,-109
-63,-31,58,5,19,13,0,7,-136,-86
8,-23,42,-20,-61,7,22,22,-92,-55
32,-26,22,-46,-146,-24,17,48,-20,-14
42,-9,31,-69,-295,-81,14,76,140,46
59,1,27,-71,-230,-108,-46,22,156,122
70,-41,-16,-37,172,-32,-103,-21,73,231
101,-46,-16,-17,113,-45,-61,85,78,396
89,-44,-7,-35,-134,-68,16,208,132,456
88,-4,19,-55,-261,-73,84,294,238,432
43,24,38,-50,-182,16,101,251,279,158
-122,-58,22,37,118,138,67,50,240,-306
-163,-59,13,69,225,74,12,-133,290,-435
-45,31,38,7,-24,-57,-36,-195,309,-219
-22,38,45,17,40,1,5,-82,210,-95
-37,69,81,70,178,92,65,66,-72,-144
-37,84,95,20,-67,19,85,121,-371,-93
-42,74,158,-37,-415,-120,37,70,-447,-135
-203,-35,216,12,-308,-175,-115,-138,-546,-434
-252,-80,386,86,-41,-141,-216,-306,-546,-496
-68,53,481,69,-81,-185,-215,-337,-437,-297
-78,71,269,43,327,35,-166,-374,-378,-161
-153,4,-49,-3,322,102,-109,-372,-295,-48
-123,-48,-290,-45,-36,8,-87,-295,-186,12
96,-29,-372,-63,-263,-131,-132,-248,-122,68
197,-4,-419,-90,-166,-129,-55,-135,-41,150
92,-24,-178,-63,142,-12,6,-65,-12,134
32,-65,319,4,397,82,61,-26,92,144
29,-33,811,49,412,155,122,57,309,180
12,-46,663,24,156,71,34,9,297,111
-40,-59,105,-38,-6,-60,-90,-49,161,15
-79,0,-378,-85,-38,-98,-116,-5,-74,-30
1,111,-535,-63,0,-10,25,153,-124,63
106,165,-454,-33,11,51,133,222,125,124
132,27,-427,-82,-37,19,90,150,637,168
128,-147,-371,-81,-169,-13,95,98,846,221
122,-97,-235,-43,-416,-101,66,27,425,267
127,2,-143,-88,-567,-167,55,-13,-189,267
103,15,-113,-44,-277,-110,41,6,-534,206
19,-32,-114,46,346,99,45,23,-462,-100
-78,-84,-131,54,557,268,61,81,-160,-357
-94,-74,-119,40,297,235,48,158,194,-320
-64,-16,-34,77,108,181,42,184,234,-294
-48,9,0,92,123,199,90,143,131,-234
18,34,16,75,224,157,37,57,88,24
113,67,34,30,138,19,-60,8,147,276
91,30,32,8,-2,-50,-98,-42,210,340
4,23,15,-19,-63,-71,-92,-108,324,303
-65,123,22,-59,-93,-68,-56,-84,365,234
-78,175,53,-46,-71,-48,-56,-57,66,133
-32,141,-5,-56,-80,-58,-69,-80,-448,38
40,-58,-159,-88,-102,-86,-84,-138,-826,-25
97,-204,-103,-51,-49,-30,-27,-84,-754,-71
71,-198,-57,0,13,22,5,-67,-598,-167
18,-120,-98,11,30,2,-21,-108,-357,-86
31,-28,-85,14,16,-3,4,-35,20,166
78,42,45,35,-3,7,44,86,324,256
107,79,80,40,5,31,100,191,395,126
101,120,117,67,37,80,143,219,274,-47
60,121,119,100,70,133,156,184,-7,-262
24,75,108,82,39,116,128,112,-158,-290
6,16,59,27,-63,31,32,5,-117,-100
-13,-53,-19,-1,-97,-25,-61,-96,-4,64
10,-41,-12,-17,-143,-63,-81,-89,152,215
12,-24,5,-24,-71,-37,-7,-5,206,242
-27,-37,-9,13,210,79,62,25,202,145
-62,-26,-15,39,200,76,47,56,225,53
-73,-43,-75,12,42,24,-1,75,256,18
-50,-41,-33,-12,-37,18,44,102,295,40
-18,-33,-87,-24,-62,39,94,117,307,85
-24,-28,-144,-2,-31,29,56,81,178,-69
-10,6,-33,50,31,29,-7,6,65,-320
39,53,108,82,61,11,-69,-50,29,-317
97,61,114,61,32,-18,-69,-43,-104,-185
100,49,88,17,-17,23,4,-36,-371,-109
8,4,42,-4,6,45,-2,-68,-439,-123
-53,-26,25,-5,11,15,-19,-45,-239,-114
-57,-17,26,-6,4,-5,-20,-1,-70,-107
-74,-11,36,34,42,45,21,50,-83,-134
-79,-7,62,29,25,71,75,75,-120,-138
-32,11,46,-29,-44,6,40,39,-1,-30
-7,0,5,-99,-113,-56,-14,-15,116,98
-1,-22,-30,-113,-173,-78,-17,-51,139,156
-22,-43,-58,-66,-113,-58,-22,-73,56,142
-64,-57,-32,-2,-6,-31,-71,-128,-74,80
-1,-15,14,-27,-248,-134,-82,-119,-1,149
55,32,17,-95,-469,-190,-57,-71,25,212
59,46,0,-100,-367,-172,-20,-4,31,152
-49,-35,-103,-61,83,-53,-6,26,213,25
-153,-121,-72,-20,406,103,2,82,388,-57
-184,-174,-27,-38,142,20,-23,129,363,-97
-213,-210,-36,-21,-22,-37,-30,102,153,-196
-178,-197,-87,30,7,3,48,81,166,-260
-107,-129,-20,66,161,73,87,-9,75,-242
0,41,52,66,181,41,13,-155,-118,-112
103,175,57,31,69,16,-30,-170,-202,137
147,237,54,-36,-198,-87,-28,-108,-250,252
92,160,37,-44,-196,-139,-24,-46,-184,157
-43,24,10,35,271,29,-49,-89,-227,-4
-56,9,39,83,320,135,-46,-94,-254,-12
-14,39,63,59,84,49,-23,-62,-206,17
24,60,76,18,-53,-25,-16,-26,-144,46
-7,28,60,3,-26,-58,-71,-72,-130,9
-73,-26,-19,-22,75,-108,-173,-157,-144,-44
-12,90,-24,-63,-9,-142,-191,-141,-86,207
55,159,12,-83,-67,-75,-32,5,73,510
69,148,-1,-95,-28,39,157,173,250,611
52,98,12,-53,46,84,192,230,291,459
31,-78,9,2,35,108,191,241,373,57
33,-115,-3,46,-56,77,152,169,666,-300
65,0,-16,27,-199,-4,124,164,992,-257
52,54,21,40,-292,-72,48,81,496,-180
1,80,57,39,-285,-133,-50,-73,-459,-219
-5,119,69,-39,-294,-196,-103,-128,-980,-113
-43,123,80,-14,97,-100,-115,-124,-769,-11
-110,128,174,18,395,-8,-119,-105,-336,31
-153,29,163,4,297,51,-64,-51,-139,56
-56,-29,56,10,127,35,-14,10,-43,15
-28,-113,-82,-7,52,22,-7,40,-27,-192
-85,-229,-201,11,75,61,49,82,-42,-364
-59,-114,-233,35,92,71,56,92,27,-283
-18,48,-145,34,80,60,33,110,73,-125
-21,88,-63,16,36,55,83,151,72,-45
-76,32,-42,-22,-38,27,127,186,86,-19
-103,-77,-47,-50,-124,-34,99,153,67,-40
81,-133,-96,-114,-219,-134,14,88,17,39
206,-132,-137,-100,-89,-97,-15,5,-8,196
159,-29,-65,37,81,-5,-20,-87,-41,363
114,53,127,148,91,70,35,-97,-97,235
56,77,373,197,152,107,64,-97,-138,-148
15,90,499,143,111,58,23,-151,-210,-340
-30,64,374,32,-102,-86,-101,-261,-310,-298
-76,-33,81,-62,-258,-211,-220,-334,-302,-201
-68,-142,-276,-111,-269,-204,-221,-309,-169,-63
35,-150,-331,-44,-232,-86,-52,-149,91,118
105,-64,-260,-13,-298,-39,59,-11,218,167
45,-46,-234,-50,-71,44,15,-32,76,60
26,-33,-146,6,416,154,-26,-64,-16,56
66,-8,-67,13,375,180,39,-10,99,149
69,9,-12,2,87,119,86,67,292,162
102,39,34,3,-33,26,33,107,395,191
86,32,39,12,-5,17,27,170,495,170
25,14,16,37,95,98,78,193,356,-54
3,39,-55,54,119,108,61,82,-53,-206
-9,28,-107,27,64,51,6,-8,-206,-108
-29,-24,-34,4,23,22,2,-34,-104,29
-20,-19,15,-8,-7,-1,4,-77,-42,31
3,1,14,5,-28,-8,7,-60,-34,-25
53,44,106,38,-11,-13,-34,-15,-38,-94
44,66,329,54,-1,-38,-88,-38,-101,-123
-15,40,490,24,-36,-45,-106,-69,-115,-92
-92,-36,376,-11,-23,38,-29,-30,-96,-113
-117,-80,120,-30,-36,67,22,27,-35,-125
-92,-81,-148,-22,4,87,7,46,-3,-135
-16,-15,-167,7,50,30,-22,27,-3,-92
70,43,-156,0,37,-11,12,74,53,44
119,22,-184,-15,19,6,33,104,95,161
105,1,-120,-13,-23,14,49,130,120,218
83,-30,-80,-19,-33,27,59,118,127,241
83,-23,-63,-20,-71,22,32,55,58,288
99,-7,-52,-48,-54,-19,13,-3,-7,340
114,0,-37,-40,82,15,49,-5,-51,286
91,21,-48,21,64,12,39,-28,-113,139
48,21,-4,51,48,10,60,-17,-195,-77
16,14,33,40,28,19,79,33,-204,-214
-24,-1,16,20,20,5,43,45,58,-137
-52,-21,-2,-3,9,-10,-16,16,425,-33
-107,-56,-35,5,26,28,8,45,552,-73
-118,-66,-51,18,46,64,51,111,348,-100
-93,-23,10,30,32,40,47,115,2,22
-42,9,45,32,-26,9,36,103,-110,109
13,54,76,40,-124,-38,18,43,42,-8
-4,66,57,7,-225,-71,-1,11,224,-211
-66,3,-57,-3,69,50,9,11,251,-226
-36,0,-47,26,270,119,41,-48,19,-41
40,52,8,13,79,4,-16,-180,-333,40
54,53,-37,27,15,-72,-108,-220,-713,24
20,27,18,45,14,-52,-73,-100,-497,76
1,1,46,42,-6,-32,-30,-27,253,185
2,-6,35,28,-6,-46,-73,-35,928,177
0,9,28,2,-7,-53,-90,-44,901,101
-27,69,45,-21,-60,-74,-125,-83,197,31
-57,172,73,-55,-147,-132,-187,-180,-644,61
-53,196,14,-86,-197,-191,-224,-232,-829,19
-57,75,-143,-100,-183,-175,-193,-157,-450,-107
-63,-182,-206,-103,-101,-60,-84,-45,-267,-121
-66,-259,-83,-20,9,59,20,54,-254,-28
-56,-178,3,54,72,98,72,100,-188,0
-28,-69,55,63,78,100,114,111,-42,-6
-31,-30,63,53,71,111,129,99,42,-5
23,-6,73,28,14,53,80,74,99,66
17,-4,58,17,2,17,17,59,107,68
-58,-61,27,40,129,71,-7,52,202,66
-54,-46,43,49,44,55,0,46,262,162
-15,17,81,39,-74,20,-27,22,22,90
51,57,98,3,-173,-9,-47,-6,-360,-134
49,78,61,-50,-187,2,-18,-4,-530,-393
25,159,77,-41,52,12,-63,-49,-479,-444
-14,188,110,21,157,24,-88,-50,-285,-367
-72,122,85,5,61,36,-35,7,-22,-218
-64,-13,48,-6,-25,4,-43,27,164,-114
10,-140,2,-39,-290,-91,7,102,285,-64
29,-137,-47,-85,-364,-140,-8,116,271,-58
5,-64,-29,-74,-293,-180,-75,83,103,-17
-31,-33,-2,7,7,-59,-92,0,-212,-48
-20,-31,-22,37,213,150,3,-9,-260,-21
-29,-54,-21,36,278,184,107,31,-118,-7
-49,-57,-35,39,417,170,93,33,-28,-88
-50,-50,-59,-2,243,78,22,51,65,-81
-50,-61,-12,-29,95,45,29,68,147,-14
35,-35,-1,-21,42,24,32,73,189,81
105,20,-11,-32,16,9,19,83,189,138
94,69,-110,-44,10,9,16,66,128,126
62,84,-146,-73,-4,16,12,46,66,81
24,78,-136,-103,-20,12,3,35,41,63
-31,22,-24,-73,13,25,-13,15,-58,-15
-66,-39,25,-44,9,34,41,58,-27,-19
-83,-69,3,-35,-28,1,71,78,73,52
-68,-59,20,14,33,-8,21,10,-8,66
-10,-18,50,39,-6,-20,-5,21,-8,112
15,-2,32,0,-50,-30,-38,22,91,168
58,18,0,-61,-78,-22,-66,-2,103,236
101,69,4,-79,-105,-47,-87,-25,28,256
103,60,28,-41,-89,-35,-45,26,-16,215
58,43,11,-6,-34,29,49,120,18,118
-30,46,-23,71,28,12,31,84,38,-74
-45,36,16,125,22,5,25,62,266,-120
-32,35,22,94,-112,-61,23,87,529,-90
6,11,36,41,-236,-135,-1,81,529,-125
89,3,39,-16,-257,-138,-36,2,115,-202
34,-9,63,-19,-124,-75,-62,-94,-291,-293
-92,-20,204,16,-177,-39,-53,-140,-479,-344
-164,-92,139,0,-278,-138,-90,-184,-478,-270
-190,-180,21,-12,-72,-100,-106,-162,-275,-179
-167,-153,-80,-1,278,32,-50,-62,-71,-141
-94,1,-122,-6,405,141,79,123,160,-60
-16,213,-48,26,186,127,138,217,217,33
-23,344,176,43,1,33,89,209,159,189
-109,282,308,45,-53,-24,50,173,199,318
-169,121,173,-18,-110,-53,26,109,448,401
-155,-173,-41,-108,-203,-97,-71,-9,646,489
6,-329,-309,-99,-83,-110,-183,-183,410,359
306,-123,-313,-32,145,6,-87,-178,-112,114
290,64,-168,53,191,138,96,-95,-602,-182
210,102,-115,62,125,121,126,-97,-547,-185
174,75,-78,31,5,41,57,-105,-255,-74
159,46,-39,0,-128,-16,7,-79,120,31
101,39,19,29,-124,-8,25,-63,161,-14
9,31,70,100,228,98,10,-113,-278,-163
-16,33,69,89,267,107,2,-141,-665,-205
-47,34,24,11,65,41,-13,-178,-830,-284
-105,29,-7,-32,-14,17,-52,-211,-778,-334
-41,44,-5,-38,-44,-25,-122,-194,-439,-134
89,31,-48,-25,-57,-52,-101,-90,-22,197
130,-16,-37,22,-14,31,55,102,278,302
39,-31,38,70,-47,89,180,249,365,191
-38,-57,20,66,-200,23,157,243,319,98
-40,-64,-15,49,-214,2,76,186,154,28
20,5,45,39,-206,-21,60,170,-23,-8
26,20,57,78,223,37,0,47,-168,-48
34,21,51,37,356,92,-40,9,-78,-23
35,41,53,-44,14,10,-69,-5,-72,-79
-2,14,18,-36,-70,-24,-100,-86,-159,-74
13,-20,-35,21,55,-26,-153,-174,-92,160
64,-1,-19,35,2,-25,-125,-159,60,388
94,26,18,-6,-162,-5,2,-21,140,391
100,47,34,-18,-258,-30,79,75,147,218
41,20,14,-33,-142,-33,57,77,159,74
-8,-10,17,8,-20,-24,36,75,201,46
-67,-54,-10,27,-75,-13,3,8,169,-50
-54,-58,-15,-34,-203,-66,-62,-55,163,-76
-80,-86,-40,-46,-119,-64,-55,-59,174,-71
-111,-83,-54,-20,37,10,51,39,137,-44
-78,-37,-12,-27,40,30,98,64,57,51
-89,-42,-30,-31,250,51,85,-45,-49,0
-58,-30,-29,-51,366,86,151,-3,-5,-90
-18,18,15,-28,292,129,92,15,66,-118
39,132,49,1,117,65,30,27,182,-9
115,202,48,20,28,-5,-10,6,128,116
124,195,0,34,34,-18,-14,-3,-143,121
57,62,-49,40,47,-16,-36,-31,-287,61
41,-125,-80,3,30,-10,-3,44,32,127
92,-123,-77,-8,23,10,42,121,441,218
91,-64,-23,1,12,-21,-3,84,489,213
38,-80,-20,-15,-30,-64,-59,39,401,257
-5,-81,-32,-47,-99,-105,-102,-5,308,259
17,-40,11,-53,-140,-135,-131,2,106,170
56,18,62,-36,-197,-120,-52,114,-95,39
43,100,91,-47,-197,-135,-7,72,-427,-177
-49,162,56,-56,4,-42,-7,-7,-419,-399
-106,190,0,-24,133,87,39,-3,61,-484
-79,132,49,31,167,116,33,-25,234,-402
-37,-84,28,64,121,89,34,-18,-21,-312
-45,-196,5,90,131,146,90,-23,-367,-289
-21,-132,6,56,100,151,109,-86,-593,-271
15,-48,22,41,83,102,16,-144,-398,-241
0,-37,22,3,43,77,0,-132,-194,-149
-57,-56,61,8,10,20,4,-119,-283,-122
-117,-91,264,52,7,34,0,-88,-279,-118
-109,-161,490,36,-97,-68,-59,-91,40,-6
-93,-213,497,-15,-183,-211,-139,-157,172,68
-34,-186,180,-109,-306,-299,-180,-174,101,170
27,-145,-197,-200,-376,-331,-185,-167,13,175
-24,-108,-345,-157,-182,-194,-160,-125,-49,16
-50,-66,-375,-30,110,57,-37,-14,115,-169
83,68,-321,30,182,227,183,189,417,-155
153,180,-245,72,155,206,221,257,404,-135
118,140,-135,74,116,134,164,169,221,-31
63,71,-65,39,77,95,146,166,285,114
26,34,-33,22,62,73,130,219,363,236
42,68,0,25,47,71,140,195,114,297
21,111,29,49,50,20,55,-1,-249,226
-50,81,39,55,50,-24,-44,-163,-403,77
-95,0,-13,45,57,1,-29,-163,-370,-56
-57,9,5,66,63,40,23,-119,-304,-78
-25,14,87,83,21,56,18,-68,-249,-113
55,9,159,67,-174,-16,-45,-83,-238,-204
38,-23,122,13,-592,-187,-96,-132,-333,-230
15,-17,52,-68,-942,-330,-85,-73,-242,-35
29,2,-78,-86,-451,-253,-121,-50,-78,141
-5,-32,-247,-6,562,41,-92,-23,37,184
43,-3,-188,-33,629,222,65,150,219,281
70,19,-144,-84,248,217,160,255,278,300
35,37,-78,-42,126,171,141,198,150,194
74,87,4,-45,0,69,108,150,141,166
45,18,-37,-75,30,-41,-74,3,96,128
-21,-80,-99,-55,203,-33,-187,-140,-2,22
22,-27,-97,0,146,35,-52,-48,-78,-116
29,11,-90,71,147,84,29,45,-99,-225
52,18,-105,55,81,10,-17,30,0,-106
23,7,-99,14,30,-48,-67,-5,-27,-61
-48,-19,6,43,59,-5,-7,31,-111,-116
-78,-21,23,62,76,24,48,66,24,-136
-100,5,23,67,79,31,51,123,205,-174
-108,75,211,73,62,38,62,189,434,-173
-77,139,425,73,8,28,55,183,463,-115
-112,109,368,47,-50,-27,16,62,306,-5
-179,-16,189,26,-125,-117,-54,-93,89,80
-16,-136,-116,-51,-161,-170,-160,-211,-71,99
157,-62,-201,-47,-132,-111,-130,-161,-152,78
136,38,-152,-27,-206,-58,-10,-5,-291,68
121,73,-179,-101,-296,-2,106,163,-273,61
116,151,-143,-125,-208,9,117,203,22,30
43,135,10,-12,233,63,-5,33,405,-69
1,119,88,38,273,42,-124,-90,496,-59
-35,8,117,11,78,-40,-144,-180,28,30
-84,-249,37,-3,24,-36,-70,-225,-483,68
-88,-274,-38,32,57,39,33,-215,-712,-51
-76,-137,7,93,79,65,70,-158,-565,-200
-20,-39,-17,48,12,17,53,-64,-252,-148
34,22,-78,-16,-54,-26,25,-2,-28,-12
64,58,-40,-41,-76,-63,-38,4,65,89
38,128,18,-43,-51,-68,-46,73,234,165
26,212,69,-45,-46,-25,24,186,553,221
-21,211,113,33,-77,-53,22,157,708,124
-54,56,44,80,-56,-34,10,78,452,34
-20,-122,-15,32,-100,-21,21,48,25,142
-52,-284,-66,45,191,209,109,7,-409,157
-11,-173,5,87,382,325,222,25,-512,14
5,-26,71,84,287,233,154,46,-333,-205
15,3,57,48,123,127,76,38,-152,-306
65,7,48,30,-32,-11,-52,-89,-33,-166
66,-21,35,26,-267,-150,-143,-155,39,-7
56,-44,9,-25,-509,-233,-143,-88,212,103
84,-11,9,-105,-587,-265,-131,-3,444,162
51,-39,-12,-44,60,-123,-114,-7,437,131
15,-51,-21,14,596,71,-61,-28,237,152
67,-6,-29,-38,244,29,-45,-2,7,331
77,3,-19,-72,-19,-46,-61,7,-167,394
32,-40,-25,-64,17,-32,-54,5,-134,230
5,-53,-63,-63,61,11,-27,4,-36,117
29,-14,-28,-59,38,42,44,6,26,100
45,30,27,-44,-25,27,94,13,-16,25
31,42,36,-23,8,40,114,2,-25,-24
-7,14,43,-4,-11,19,63,-46,91,-4
-65,-51,-15,-34,-79,-18,-6,-70,274,55
10,71,85,88,92,80,107,83,-281,-40
1,63,113,94,91,100,105,71,-431,-89
-33,44,103,90,79,104,84,20,-488,-193
-50,22,91,72,22,70,38,-36,-320,-199
-36,21,79,31,-38,25,5,-52,-117,-158
12,43,66,-1,-93,-36,-30,-53,-8,-81
11,14,37,7,9,-38,-59,-60,12,-51
-13,4,25,7,20,-12,-12,-15,96,-38
-40,21,32,1,-245,-36,13,19,101,-93
-33,11,15,-38,-507,-100,24,46,63,-158
-96,-56,-38,-64,-354,-124,-53,-43,-60,-206
-138,-94,-126,56,311,-8,-112,-122,-88,-184
-42,-24,-82,72,530,58,-113,-79,36,3
4,12,2,-1,284,47,-68,-37,50,98
3,-13,-9,-54,49,40,55,33,-17,96
25,-28,-19,-74,-32,-3,73,80,-145,94
35,-25,-26,-56,-53,-43,12,122,-63,114
49,-13,-21,-52,-147,-56,7,195,336,153
100,33,28,-71,-256,-85,9,215,913,214
87,46,39,-93,-250,-84,23,207,1162,229
-44,14,-1,-32,202,112,80,114,800,12
-55,41,-34,11,261,144,113,-9,7,-165
-40,31,-52,11,12,-4,-13,-215,-637,-159
-49,-2,-89,32,-48,-65,-88,-264,-750,-37
-11,-15,-13,39,-70,-66,-77,-115,-430,20
-11,39,-16,7,14,-76,-105,-85,-191,-108
-62,177,40,-32,-54,-98,-70,-34,46,-124
-75,240,112,-78,-260,-163,-44,19,212,-46
-74,128,15,-104,-285,-170,-63,-40,113,-134
-50,-180,-230,-68,50,-16,-48,-135,-114,-248
26,-268,-126,21,306,161,59,-77,-134,-135
78,-146,0,55,217,154,116,33,-57,12
91,-71,-30,29,98,99,111,46,-23,107
76,-28,-17,25,69,59,63,-9,-18,57
49,-7,41,22,68,29,24,-73,-109,-145
21,-14,32,43,61,34,27,-108,-242,-254
-29,-32,-33,40,37,37,42,-71,-231,-236
-39,-42,-87,8,10,28,47,-33,-108,-151
-16,-31,-33,1,1,20,32,-37,-34,-79
-27,-37,41,10,10,-9,-15,-64,-40,11
-56,-61,90,10,-1,-46,-62,-79,-42,106
-50,-67,160,3,-10,-47,-47,-38,0,148
-23,-72,119,-12,-18,-26,-69,-16,64,56
23,-48,20,-33,-40,-58,-108,-70,108,5
53,10,-81,-52,-93,-77,-86,-57,165,92
112,58,-67,-40,-144,-72,-39,14,216,236
159,102,-73,-11,-177,-37,38,135,224,283
125,108,-20,12,-197,-16,92,241,254,141
5,25,-23,40,-30,23,14,157,297,-77
-1,18,-26,80,166,58,-15,109,382,-137
5,30,23,86,127,39,-28,53,177,-145
-25,-7,33,63,-22,-18,-76,-45,-249,-137
-30,-29,-4,9,-208,-83,-74,-70,-493,-91
-33,-28,-23,-32,-240,-104,-81,-53,-405,-80
-42,28,20,-12,-37,-39,-100,-32,-254,-97
-21,140,66,19,275,60,-51,0,-153,-73
15,195,94,6,269,76,-3,26,-73,27
-6,135,73,-15,73,9,-15,14,-22,50
-48,-48,-17,-47,-6,-44,-30,0,-41,-18
-27,-214,-60,-39,-21,-51,-16,0,-11,-14
15,-165,-106,-37,-60,-49,15,28,51,30
-6,-94,-82,-60,-90,-50,-7,42,142,26
-47,-101,128,-59,-88,-43,-64,-7,181,-28
-53,-100,249,-40,-67,-48,-80,-37,157,-34
-58,-87,143,11,3,8,-2,17,101,0
-75,-75,-37,9,107,62,62,82,41,96
-94,15,-241,0,62,49,73,62,-91,180
-86,133,-233,51,70,80,66,44,-182,94
-72,165,-158,76,100,75,52,61,-71,31
-79,112,-97,48,63,13,5,76,105,72
-45,6,-37,5,-90,-105,-48,73,202,144
155,-97,-96,-83,-233,-118,-33,102,250,158
113,-120,-97,-57,-149,77,60,139,301,102
27,-67,-40,19,-40,110,110,151,182,51
9,-43,-4,62,205,109,134,92,-170,-53
36,0,19,41,264,57,94,-4,-377,-37
47,25,26,10,80,-9,32,-61,-249,68
38,8,3,-17,-53,-35,26,-47,70,176
40,-1,8,-13,-133,-45,22,6,274,228
83,52,-4,-10,-249,-70,50,110,344,235
96,62,-56,0,-183,-62,62,125,100,113
62,53,27,12,48,-18,63,92,-83,-6
23,8,14,-14,122,-2,26,36,27,5
20,-38,-33,-35,127,0,-8,11,261,127
50,-26,-23,-42,32,-7,9,57,394,241
14,-12,13,8,59,50,74,92,357,115
-45,29,73,98,160,143,117,89,222,-228
-67,43,71,125,200,154,97,39,-74,-441
-87,37,35,76,152,119,53,-18,-299,-422
-95,18,-1,10,26,74,33,-63,-443,-274
-87,14,-26,-32,-137,-16,-13,-58,-422,-107
-72,18,-16,-29,-164,-40,-30,35,-153,66
-57,21,61,53,128,30,-47,72,-37,55
-3,28,68,56,203,30,-84,69,-78,-24
-12,-5,31,2,133,68,-26,93,-236,-118
-8,3,32,-1,62,88,16,88,-248,-106
28,22,49,9,28,40,-22,4,-11,-21
57,32,60,16,8,-6,-67,-58,300,39
15,23,49,28,2,-10,-69,-76,322,17
-59,12,33,34,8,-4,-49,-80,29,-79
-89,-10,6,5,-34,-34,-78,-95,-239,-74
-98,-29,-21,-32,-34,-33,-94,-109,-265,-27
-143,-50,-34,-7,-101,-21,-75,-83,-138,-23
-166,-45,-24,0,-265,-51,-46,-85,-68,70
-98,-16,-23,-51,-408,-136,-61,-108,30,210
41,26,-61,-67,-132,-159,-67,-104,238,314
165,118,-56,-86,172,-64,-5,4,422,315
161,189,31,-73,139,42,76,112,522,144
75,195,80,0,129,105,50,83,301,-102
38,158,63,21,43,60,2,19,-9,-228
3,-40,2,-10,-43,-11,-19,-8,-129,-189
-58,-143,17,28,29,2,-27,-28,-240,-227
-80,-49,3,16,-96,-52,-60,-52,-287,-256
-27,26,-34,-80,-220,-114,-80,-74,-308,-119
-51,-25,-88,-115,-51,-72,-150,-165,-352,-33
-41,-70,-85,-62,226,13,-137,-153,-284,-3
47,-38,-3,19,219,64,-5,-32,-246,69
34,-39,40,71,145,79,43,-26,-335,17
-14,-57,49,53,79,50,21,-98,-372,-125
-69,-91,59,38,34,1,20,-123,-278,-246
-116,-139,28,12,0,-15,26,-81,-6,-230
-53,-109,-9,1,-12,-29,16,-61,364,-54
38,19,38,14,-17,-51,13,-34,539,-22
61,109,89,35,-1,-25,15,0,212,-124
63,106,19,28,10,9,49,18,-138,-112
54,76,-1,33,-14,-15,48,62,-217,7
68,53,11,-2,-118,-60,96,224,41,177
113,62,-5,-69,-214,-64,182,339,363,290
97,46,-48,-49,-121,-62,83,169,449,255
97,49,9,-20,-114,-52,16,0,463,234
92,84,63,-19,-162,-97,7,-81,158,86
14,37,41,0,-48,-36,-67,-219,-334,-92
-8,-16,50,-31,69,68,-60,-218,-498,-121
-81,-27,283,-9,233,138,-39,-111,-316,-137
-166,-22,379,-13,146,96,-81,-106,-157,-219
-242,-15,290,-32,-16,-57,-177,-146,-98,-289
-276,-7,133,-6,-44,-132,-202,-85,-103,-214
-210,-37,-37,33,2,-76,-135,-4,-116,-36
-37,9,-123,19,26,14,-35,68,34,160
59,-13,-288,-33,5,44,10,106,187,182
45,-103,-300,-10,40,90,80,143,191,-119
54,-13,-143,69,109,132,135,136,-19,-365
93,26,-105,78,138,74,62,-2,-240,-159
104,12,-100,39,76,-20,-50,-92,-353,175
111,34,-48,13,-13,-48,-64,-18,-142,309
85,47,-33,22,-22,28,51,63,214,204
8,16,-114,30,67,96,115,74,552,18
10,-2,-102,-8,118,106,99,42,594,54
82,29,-32,-35,55,48,58,-6,242,183
119,46,-27,-52,-19,-19,-22,-80,-259,196
130,55,-33,-92,-86,-89,-100,-108,-377,189
97,39,-29,-104,-88,-85,-46,12,-255,167
22,1,-36,-65,-40,-22,30,142,-214,91
-60,-36,-26,10,11,41,55,143,-176,-37
-82,-19,38,93,19,39,44,104,-15,-134
-45,32,87,87,-110,-7,50,103,178,-144
-75,21,34,44,-214,-31,45,81,58,-184
-148,-67,-55,45,-184,-5,-38,-56,-187,-199
-126,-89,-84,3,-372,-114,-92,-107,-192,-12
-55,-76,-86,-78,-347,-184,-78,-37,109,248
-19,-71,-78,-41,263,-2,14,81,441,346
-13,-37,-17,35,603,165,99,214,548,293
-38,5,48,47,285,147,121,247,416,201
-66,38,69,76,160,123,119,189,199,-2
-122,6,57,98,216,144,98,118,-47,-289
-76,-5,50,68,182,132,105,90,-247,-328
29,-18,25,31,92,80,92,38,-361,-148
94,-13,-15,-8,-7,-7,20,-40,-385,7
98,-2,-5,-49,-70,-78,-60,-91,-349,12
71,-4,-14,-73,-82,-94,-112,-84,-188,68
49,-18,-53,-55,-50,-34,-32,-21,-76,46
22,10,-60,-28,-42,-15,0,-21,-105,-89
6,30,4,-35,-65,-20,-4,1,-29,-93
-23,-1,-29,-35,-36,6,23,20,10,-104
-50,-31,-61,-18,7,38,4,-7,-49,-156
-72,-49,-20,0,-1,16,-64,-23,-126,-167
-57,-32,-12,13,-53,2,-22,34,-62,-129
15,41,46,64,-139,-5,6,48,6,-57
43,63,90,91,-329,-139,-113,-83,-52,-58
81,91,106,27,-524,-260,-165,-108,-12,-15
94,95,88,-13,-534,-291,-69,-6,35,80
-2,-11,-40,-18,23,-64,-1,1,1,97
-49,-12,-88,-95,307,145,73,4,78,138
-77,115,-8,-151,-30,51,7,-40,54,156
-62,167,35,-163,-82,-39,-35,-35,30,198
-72,109,123,-86,211,21,-17,3,48,224
-80,2,312,-18,154,58,42,69,109,143
-113,-68,281,52,104,97,69,91,136,-69
-191,-115,78,87,192,121,16,-9,5,-245
-203,-173,-100,57,122,49,-70,-135,-38,-91
22,-179,-255,-2,0,-60,-152,-224,-54,107
266,-124,-307,-87,-89,-70,-56,-152,61,295
215,-71,-260,-80,-53,-6,69,-59,141,340
127,-45,-201,-40,9,42,121,-21,116,247
76,-12,-107,4,40,60,111,-12,49,80
70,-5,-7,43,52,55,93,-10,-24,-204
42,-7,15,75,60,47,90,32,47,-303
27,-1,27,64,51,33,59,85,345,-166
16,-14,20,57,24,-1,39,95,722,-49
32,-12,31,45,-39,29,133,156,807,-20
39,10,56,76,-144,49,132,125,368,-106
5,5,69,114,-228,25,37,3,-161,-212
6,11,40,38,-394,-81,-5,-50,-110,-163
-9,-38,-16,-3,-193,-62,-17,-80,20,-76
-27,-60,-38,-4,180,49,64,-46,12,-36
19,-34,-33,-49,139,65,111,-59,-205,61
76,-18,-48,-61,50,27,81,-54,-296,170
50,-24,-44,-64,-48,1,65,11,-77,128
-3,-40,-83,-63,-16,17,2,-9,45,62
58,-6,-130,-85,5,7,-7,-5,221,200
94,13,-35,-76,73,20,-12,11,302,290
105,53,39,-35,71,39,36,88,163,291
9,44,34,52,102,83,82,93,-243,79
-49,7,-79,68,190,146,41,24,-444,-209
25,27,-56,29,130,89,-34,-37,-204,-159
79,44,66,22,8,-32,-82,-86,85,-10
53,16,19,12,-28,-68,-94,-120,67,107
10,12,-1,18,7,-41,-85,-148,-135,96
-19,58,34,35,43,-5,-85,-164,-388,30
-24,181,152,57,39,10,-66,-105,-377,-27
-19,243,192,46,-35,-20,-37,-46,-261,-115
-31,161,112,-14,-91,-53,-29,-33,-305,-143
-46,-36,-11,-66,-62,-67,-73,-74,-254,-115
-53,-234,-75,-54,-88,-68,-84,-66,-144,-34
-22,-210,-65,-8,-172,-80,-67,8,-35,48
-5,-118,-59,-7,-164,-86,-67,32,58,120
-8,-56,-26,0,21,-62,-68,17,149,98
6,1,23,-3,225,-41,-80,30,178,3
-12,-18,-36,-11,276,12,-35,69,123,-3
-15,-34,-17,-10,128,78,136,178,119,84
-4,0,43,12,2,28,122,141,104,87
1,105,86,35,-89,-33,41,69,59,-22
4,180,117,39,-117,7,52,68,89,-142
-1,167,1,-1,-190,-52,39,42,113,-172
-92,109,-81,-1,55,-18,25,17,18,-158
-171,-91,-54,-3,133,19,-23,-35,-112,-100
-184,-264,-96,-66,-2,-14,-44,-63,-133,29
-184,-207,-94,-92,-47,-24,-47,-39,-134,131
-110,-144,-85,-53,48,34,-45,4,-151,128
100,6,-42,-21,66,15,-35,68,-22,96
109,3,-3,43,102,71,40,144,63,-11
62,-30,30,80,121,104,53,84,0,-150
63,0,49,66,72,41,-22,-39,-86,-208
85,-6,-90,4,-2,-53,-127,-117,-111,-216
97,-30,-158,-61,-75,-104,-141,-146,-73,-143
95,-13,-31,-37,-65,-105,-128,-174,-89,-50
52,10,58,31,-61,-101,-127,-182,-103,21
-27,2,80,73,-147,-60,-49,-96,24,173
-69,-21,63,54,-143,20,83,52,188,241
-80,-19,170,32,-28,19,118,101,215,75
-120,-34,206,29,242,93,100,22,109,-119
-98,-27,123,-19,253,139,150,65,77,-74
-8,1,12,-102,-39,-11,87,127,71,66
-7,-10,-75,-98,-64,-35,43,156,441,125
-10,-18,-66,-82,-78,-34,36,168,1268,89
58,21,-55,-74,-123,-1,105,252,1806,67
25,17,-40,6,12,76,155,212,891,-52
-25,32,33,85,138,104,151,51,-636,-64
-5,72,86,81,7,35,100,-132,-1617,41
37,75,44,69,-33,-6,7,-226,-1491,9
35,33,-9,57,86,53,-34,-195,-809,-19
-19,32,34,29,1,47,-49,-140,-398,-42
-73,25,36,-25,-165,-57,-119,-156,-185,-128
-70,-34,20,-79,-233,-161,-177,-179,152,-116
-93,-116,0,-32,135,-95,-220,-250,81,-182
-51,-114,13,43,288,-12,-148,-204,-183,-183
2,-64,18,17,-8,-68,-56,-100,-127,-38
20,-7,3,-9,-279,-119,-43,-13,-77,90
51,68,-44,-9,-377,-80,14,129,110,130
10,57,-179,-31,-276,-39,35,193,179,139
-67,-11,-233,-4,104,44,95,230,172,127
-72,-13,-203,3,408,154,152,197,134,59
-2,67,-125,-18,185,97,84,64,3,-79
46,85,-52,-2,-7,28,-2,-83,-168,-160
52,82,57,43,175,56,-51,-181,-253,-135
52,72,34,48,244,86,-43,-155,-189,-10
64,68,-48,28,124,55,2,-96,-110,73
43,43,-11,35,24,6,-23,-116,-196,-8
11,5,-9,55,-99,-55,-66,-153,-281,-109
8,-13,42,37,-181,-57,-23,-90,-163,-23
7,8,39,13,-120,-39,9,-38,-11,31
-28,6,52,21,110,-14,-9,-41,53,-35
-27,-7,15,-41,207,16,3,-15,158,30
-13,-16,8,-94,46,-25,-14,2,157,163
1,-10,7,-106,-110,-78,-16,41,223,273
-10,-17,2,-91,-141,-58,7,75,263,260
-69,-37,30,-11,32,35,25,35,143,105
-54,-10,65,65,81,72,63,63,68,-98
-53,2,75,104,151,72,45,66,-6,-222
5,51,75,92,158,59,1,7,29,-183
49,116,80,48,22,29,-1,-2,83,-100
2,173,92,35,-68,-22,9,-3,104,-26
-72,269,117,31,-113,-56,-18,-8,109,70
-116,284,154,20,-82,-71,-65,5,152,108
-85,137,124,13,15,-99,-113,-10,149,94
162,-123,-78,-119,-51,-155,-136,-6,191,224
156,-310,-181,-132,-8,-50,-25,47,184,299
75,-225,-109,-38,96,70,44,108,207,222
62,-23,-32,-14,63,38,5,95,217,19
60,133,81,16,21,5,-21,54,111,-163
19,159,274,63,27,24,13,37,62,-295
-67,28,424,69,24,33,48,17,35,-317
-118,-188,263,36,-15,10,4,-50,-42,-285
-127,-287,-82,-9,-100,-32,-73,-103,-115,-258
-132,-228,-354,-61,-201,-82,-125,-153,-231,-252
-52,-74,-296,-80,-244,-111,-106,-130,-249,-129
35,-8,-195,-25,44,-20,11,-43,-230,8
70,-25,-156,26,145,30,81,-8,-191,56
117,6,-72,8,-110,-62,51,2,-149,103
72,-15,-102,-10,-16,29,-9,-54,-126,100
0,-71,-138,31,212,133,-66,-156,-107,29
64,-19,-29,21,33,20,-45,-134,-16,173
90,3,-19,-20,-68,-27,7,-65,60,312
51,-32,-52,-38,-11,10,67,55,175,394
65,-52,-99,-64,-1,22,75,185,372,459
76,-44,-63,-51,-97,-27,25,257,650,359
-9,-23,13,-20,-191,-90,-5,271,938,-14
-97,-39,-13,0,-32,10,84,257,955,-297
-95,-29,-8,41,273,161,195,213,585,-280
-21,12,57,32,245,148,158,57,86,-108
16,33,56,15,102,92,72,-116,-616,-61
8,26,197,28,66,56,42,-163,-993,-92
-4,22,407,27,1,-16,-10,-156,-1028,-68
-2,37,305,-23,-74,-77,-17,-153,-730,11
-28,26,123,-18,-60,-47,0,-128,-223,34
-47,37,-10,17,-6,-18,-11,-96,186,-44
-70,95,-92,62,49,32,30,-45,90,-185
-54,144,-55,59,69,42,25,-88,-254,-269
-31,135,-109,19,27,-4,-10,-148,-500,-263
-43,63,-104,25,14,-45,-23,-149,-412,-189
-28,-43,-54,23,-6,-9,16,-56,-92,-98
114,-17,-30,-4,-40,23,43,33,129,-26
140,50,21,1,-68,-8,10,14,226,15
70,9,-4,12,-114,-55,-59,-36,181,72
42,-18,-28,14,-226,-82,-87,-42,81,20
38,3,-30,-21,-343,-126,-59,41,57,-53
-21,-17,-47,-22,-72,-76,-48,26,60,44
-50,-49,-57,10,405,108,2,-19,56,252
42,37,-5,-36,204,37,13,-45,60,357
63,126,20,-83,-69,-73,-38,-73,60,237
62,164,57,-88,-108,-31,65,24,181,215
60,181,87,-8,-1,40,113,66,216,237
53,87,74,33,100,90,117,42,56,221
15,-94,49,29,82,79,90,-13,-187,-90
-27,-46,33,0,0,19,69,-63,-356,-519
-92,-14,-9,-11,21,-5,12,-100,-379,-637
-107,-43,-21,-4,59,3,1,-100,-223,-401
-35,-77,-3,33,83,27,43,-37,-69,-171
32,-79,125,50,60,58,83,27,69,-80
37,-105,145,2,-2,99,114,43,146,-88
16,-109,56,-8,-59,101,91,41,136,-96
11,-47,-31,-3,-144,10,40,33,39,-72
30,-4,-57,-2,-65,-39,-15,-31,-75,-51
47,9,-39,19,90,-11,-32,-71,-61,18
77,17,-72,4,-19,-20,-13,-52,48,127
46,-5,-79,-23,-102,-41,0,-9,105,118
-22,-34,-26,5,50,3,-36,-10,95,70
-23,-10,9,47,16,0,-48,4,84,93
0,23,-52,18,-211,-36,15,72,122,152
40,61,-62,-43,-425,-74,67,130,130,192
39,59,9,-45,-398,-105,10,89,92,161
18,18,4,9,7,-29,-45,22,33,103
-5,-36,-23,55,326,43,-59,-20,-34,30
0,-38,-21,36,222,34,-55,-61,-57,28
-14,-26,15,30,60,6,-52,-73,-51,53
-66,-48,-11,39,160,58,9,3,-14,90
-78,-26,-13,25,137,92,79,130,94,68
-65,-2,15,7,51,62,80,153,175,29
-81,-22,25,3,29,26,41,103,157,4
-99,-45,7,0,24,-1,-12,16,124,8
-70,-53,-1,-14,-1,-22,-48,-20,133,83
-32,-39,-9,-20,-40,-29,-38,-3,162,169
-27,-25,-59,-41,-59,-6,15,54,236,145
-80,-67,-64,-30,44,30,-18,-1,257,44
-100,-69,-10,-2,43,27,-57,-46,306,-8
-77,-67,4,0,-26,-7,-31,3,338,-12
6,-77,-31,-18,-199,-60,-7,83,501,113
61,-40,-10,-40,-418,-129,-1,111,588,203
90,53,28,-63,-529,-135,18,168,579,116
126,158,98,2,-182,-44,58,163,268,-71
100,141,105,128,653,161,32,-6,-199,-178
112,132,118,77,562,182,46,-79,-573,-89
58,97,74,3,190,92,21,-124,-878,-122
8,126,12,-5,44,24,-36,-189,-955,-184
-7,185,27,-29,-71,-43,-96,-193,-788,-177
-66,124,60,-54,-97,-17,-54,-113,-522,-170
-77,35,29,-56,-109,-21,-35,-78,-417,-188
-128,-162,-22,-14,-45,-74,-81,-73,-350,-216
-163,-299,-85,33,151,-26,-99,2,-203,-175
-135,-232,-160,33,168,7,-74,122,-58,-50
-94,-162,-101,1,67,-5,-35,159,18,68
-39,-73,-32,-5,14,29,68,178,144,151
-57,30,23,34,16,64,124,148,143,96
-84,67,45,39,18,26,98,54,58,67
-78,54,33,17,-9,-38,-5,-71,-41,124
-70,8,23,12,-67,-81,-66,-141,-204,153
32,-34,-15,-20,-118,-85,-127,-173,-304,93
263,-27,-72,-82,-201,-69,-127,-109,-159,103
233,16,-41,-81,-182,-53,-50,-1,203,102
132,23,10,-23,97,6,-29,15,539,90
81,15,32,39,260,68,-5,67,573,145
52,22,-12,52,164,68,14,58,264,75
15,26,-86,29,68,20,-11,-79,-226,-104
-27,17,-50,7,19,-2,-21,-138,-416,-129
-31,7,-1,-8,-6,0,-5,-92,-184,-27
-22,4,16,-2,-6,-13,-27,-58,16,-28
-30,-4,-19,-8,-5,-33,-38,-67,65,-47
-53,-26,-116,-11,-29,-60,-60,-83,39,-90
-66,-45,-156,-28,-95,-72,-90,-104,64,-110
-122,-96,-66,-40,-157,-82,-115,-154,-30,-137
-148,-109,8,-43,-143,-98,-135,-177,-115,-91
-109,-75,59,2,-2,-28,-81,-117,-102,-71
-13,-15,84,69,74,38,22,-7,-21,-50
50,43,117,93,6,29,53,57,71,-7
103,90,107,75,-94,-12,50,84,131,73
143,123,44,42,-71,23,90,150,257,190
108,112,-1,26,23,71,105,146,263,180
13,90,39,10,112,90,32,35,41,0
-72,152,249,2,112,35,-66,-108,-239,-173
-55,187,418,-42,-29,-54,-53,-136,-204,-158
-62,102,246,-95,-116,-122,-71,-133,-39,-128
-65,-129,-181,-139,-37,-85,-85,-78,166,-71
-40,-277,-372,-74,-7,-38,-22,31,279,43
40,-138,-203,29,29,17,45,83,201,127
123,22,-118,86,83,88,64,83,118,174
150,76,-88,97,95,118,81,61,61,69
94,75,-39,75,77,95,103,78,56,-112
8,58,8,71,120,68,70,30,-60,-256
-2,49,12,63,135,64,29,-17,-103,-174
44,69,28,35,56,56,37,15,-39,-27
74,69,51,19,-7,20,5,47,-74,32
10,21,25,25,21,4,-39,29,-155,0
-66,-25,-11,13,59,54,-24,56,-131,-57
-101,-17,-10,-9,48,92,64,110,-62,-53
-106,10,-11,-4,19,90,75,108,-62,-27
-72,15,21,13,-2,42,27,124,-24,59
-23,-13,27,29,-18,-7,-25,96,-5,167
100,-29,14,7,-105,-70,-73,93,81,221
210,28,-91,-55,-191,-90,-72,142,63,128
126,3,-82,-76,-134,-40,-22,190,36,30
73,-12,-43,-68,-127,0,81,321,417,73
28,-6,-12,-18,59,91,165,388,1052,6
29,24,-18,29,185,151,157,273,1241,-43
56,70,16,67,-28,68,56,39,558,7
43,73,95,47,-274,-75,-54,-176,-241,18
3,50,77,-18,-346,-166,-164,-337,-783,-20
-38,10,48,9,-19,-109,-215,-373,-636,-44
-44,12,36,-5,83,-76,-182,-264,-366,1
-51,-46,-44,-17,170,25,-38,-87,-317,-19
-34,-55,-131,18,334,130,74,2,-236,19
-35,-34,-143,19,213,114,71,-5,-224,29
-92,-66,-49,-1,72,72,54,-15,-202,2
-22,-31,13,-25,-6,18,-3,-31,-116,155
75,14,94,-32,-113,-66,-72,-50,-123,211
77,24,200,-45,-335,-146,-86,-50,-63,113
69,48,197,-111,-639,-199,-15,52,246,7
8,36,84,-93,-365,-111,12,50,361,-179
-75,65,-10,34,410,111,-52,-58,52,-285
-66,187,27,74,540,185,-5,-39,-206,-181
-54,291,66,31,223,104,37,3,-363,-196
-36,203,15,11,83,28,0,3,-272,-161
8,45,-4,1,22,-16,-52,-50,-117,-2
38,-37,2,-9,-53,-30,-19,-41,-38,118
28,-193,-48,-68,-149,-26,78,27,0,179
31,-208,-111,-82,-131,-1,80,19,19,217
-7,-138,-106,-38,-178,-119,-44,-64,25,192
-51,-93,-79,13,-88,-56,-84,-93,67,152
25,-23,-18,22,-70,11,-46,-29,155,224
56,-23,9,29,-4,-71,-75,-38,107,178
57,-49,-33,-13,199,-46,-53,-40,70,92
35,-48,-45,-66,195,40,7,46,69,3
-8,-48,-10,-20,104,70,-4,55,42,-57
6,-11,19,0,17,33,22,13,-22,-112
-33,8,29,-51,-62,-46,-33,-109,-148,-234
-64,8,35,-52,-89,-106,-132,-185,-209,-274
-44,-6,15,-62,-107,-80,-72,-113,-23,-146
44,-8,-16,-54,-7,6,17,-16,336,89
132,1,19,30,120,53,20,-17,570,217
110,2,53,66,125,63,41,39,512,156
39,-17,10,30,23,79,133,172,214,53
4,-24,27,21,-52,64,145,174,-124,-80
-31,-2,59,41,-79,33,85,74,-272,-220
-98,-42,53,57,-24,1,9,-70,-320,-269
-110,-91,16,59,7,-19,-4,-136,-325,-162
-41,-56,12,58,-150,-56,4,-96,-289,-74
22,11,34,0,-351,-114,18,-25,-164,-22
48,64,36,-27,-160,-112,0,34,9,75
21,43,-18,-53,144,-14,15,85,137,253
0,-30,-73,-95,58,108,146,140,198,345
30,-25,-70,-129,-183,45,176,163,255,303
-27,-48,-93,-99,-70,-28,86,69,145,70
-46,-50,-111,-21,286,38,24,-49,-56,-122
5,-9,-28,-29,234,11,3,-93,-151,-223
86,48,-1,-66,28,-51,-34,-131,-24,-76
147,97,34,-37,-17,-32,-28,-79,192,133
167,125,91,31,27,-22,-26,2,464,293
91,120,141,103,79,16,5,37,550,268
-17,110,168,156,163,104,69,64,417,-32
-120,118,148,185,230,186,107,28,180,-411
-172,140,25,138,131,162,114,-55,39,-437
-153,144,-20,96,-13,69,121,-94,-180,-300
-76,150,81,75,-104,-25,-15,-136,-398,-220
-89,24,32,11,-118,-121,-140,-192,-629,-198
-29,-139,-59,-49,-2,-111,-167,-194,-544,-182
116,-172,-126,-82,0,-39,-98,-60,-175,-120
41,-99,-72,-20,58,85,7,61,-64,-109
22,-16,-49,-4,40,71,11,57,-91,-42
50,3,-139,-41,-1,4,-25,16,-144,91
85,2,-48,-29,-9,-28,-73,-16,-190,96
78,13,26,0,-1,-24,-76,-24,-163,62
60,27,24,-3,-20,-26,-40,48,47,152
51,16,-24,-35,-56,1,44,156,174,248
28,-6,-125,-50,-41,53,84,186,-18,270
44,3,-67,-61,-32,37,69,122,-83,279
79,9,7,-49,-96,-45,32,79,214,308
49,-12,-10,-39,-153,-74,26,71,297,232
12,-5,-4,-27,-126,-29,70,56,133,51
-49,-24,-38,45,138,56,26,4,-49,-192
-62,-7,-98,37,222,39,-60,-82,-259,-333
-75,109,-21,-19,27,-69,-119,-120,-157,-284
-81,184,52,-57,-81,-100,-98,-95,19,-186
-108,181,281,-36,-113,-93,-112,-97,43,-138
-134,28,403,-30,-121,-78,-93,-38,185,-110
-152,-177,271,4,-73,-39,-19,70,364,-114
-180,-228,84,72,6,-11,-8,77,194,-145
-124,-197,81,60,42,-13,-31,-19,-231,-133
92,26,206,31,30,-9,-42,-75,-458,-86
131,167,167,30,8,11,18,-25,-387,-38
5,59,-127,22,16,-3,13,-48,-263,-54
-20,-98,-353,-67,-62,-118,-131,-162,-255,-32
1,-225,-350,-93,-132,-153,-154,-149,-150,48
-22,-271,-306,-70,-129,-92,-59,-42,-20,65
-53,-236,-274,-43,-128,-11,57,63,119,89
2,-100,-161,-32,-197,-8,135,146,249,142
51,11,-64,12,36,55,169,152,248,123
88,73,-39,83,278,149,174,110,143,96
129,128,-33,47,102,97,145,91,79,133
93,75,-46,24,108,80,85,43,68,124
55,31,-24,53,139,106,47,33,117,114
58,35,4,43,74,64,-4,37,171,138
64,35,-3,22,13,22,-23,40,193,194
75,18,-14,24,-129,-26,-18,37,177,232
66,15,-2,24,-330,-79,-1,46,115,185
72,35,16,-13,-480,-145,5,74,74,112
35,26,35,-25,-400,-170,41,105,49,0
47,31,1,-40,-34,-26,122,175,109,-11
11,-14,-45,9,475,266,145,126,12,-104
27,9,11,88,552,243,33,23,-107,-118
50,40,52,79,320,83,-79,-53,-116,23
32,52,64,32,74,-22,-103,-102,44,114
-14,21,26,-10,36,-9,-70,-87,245,46
-26,-19,14,-21,21,31,9,1,386,39
-25,-33,28,-11,-15,41,95,167,484,45
-6,4,73,21,-3,73,145,303,164,-42
0,25,118,75,1,92,130,242,-349,-125
-21,31,119,111,41,65,25,58,-348,-120
13,36,199,101,-88,-6,-37,-8,198,13
36,5,153,18,-326,-98,-41,1,333,52
12,-32,54,-42,-447,-147,-70,-23,169,110
-42,-67,-71,-90,-425,-134,-71,-39,-110,181
-93,-84,-193,-78,-133,-69,-70,-77,-377,133
-102,-70,-190,-5,260,12,-62,-106,-451,129
-68,-51,-112,-10,265,47,6,-37,-338,92
-2,-18,-83,-50,60,6,34,14,-114,-56
68,19,-110,-8,159,-14,20,-33,-49,-149
113,55,-64,18,333,23,-7,-70,-52,-71
85,59,27,-6,234,59,-28,-84,-49,64
26,17,29,-3,84,16,-55,-111,-77,112
1,-2,24,-8,23,-43,-73,-80,-37,-1
-39,-25,-52,-32,-9,-34,-25,36,-42,-127
-59,-56,-153,-49,-32,-42,-14,84,-55,-136
-67,-94,-108,-66,-39,-51,-27,57,-131,-139
-76,-90,-118,-66,-39,-54,-33,-29,-282,-62
-42,-53,-32,-65,-57,-49,-34,-107,-244,86
20,-8,25,-51,-46,-56,-45,-92,269,243
40,19,72,-1,27,-1,-37,-4,808,218
16,45,117,62,40,47,20,46,772,36
-50,36,125,96,-104,34,82,24,305,-216
-42,30,113,74,-269,-37,50,-61,-166,-292
33,60,113,25,-267,-86,7,-85,-387,-224
83,91,147,60,152,-27,-31,-50,-383,-142
77,88,137,53,384,76,28,28,-384,-128
59,54,96,-4,245,129,93,123,-278,-61
30,60,85,-26,101,106,96,181,-96,-12
-45,140,108,-8,57,96,80,123,7,-122
-118,196,93,-44,-35,38,14,-11,62,-262
-130,200,0,-97,-171,-54,-42,-88,29,-219
-150,65,2,-98,-154,-82,-55,-136,-146,-147
-107,-205,-20,-34,97,0,14,-61,-142,-35
-52,-259,-35,31,171,41,36,38,-38,-11
-58,-125,24,72,145,66,-9,12,-30,-105
-56,-36,46,66,102,26,-63,-72,-47,-78
25,0,47,-5,-9,-47,-74,-104,-21,114
105,7,43,-66,-133,-81,-9,-87,-39,286
76,-47,15,-49,-73,-49,-17,-95,-125,233
39,-97,-39,-43,27,12,20,-61,-33,157
0,-100,-62,-25,28,21,49,-8,68,89
-13,-94,-76,-18,-2,-1,41,29,129,3
0,-86,-58,6,11,0,52,47,163,0
48,-58,-9,21,21,2,44,56,198,98
75,-22,8,-9,-14,-42,-30,13,151,153
68,28,21,-41,-61,-67,-95,-6,121,121
11,17,9,-37,-69,-36,-60,55,127,33
-11,2,3,-17,-47,6,1,92,94,-52
-26,15,3,-7,-31,11,5,71,27,-134
-31,27,13,0,-23,-6,-6,76,103,-153
-4,32,35,28,-15,-24,-22,61,174,-98
45,43,40,37,-1,-20,-44,23,84,-49
87,51,-12,22,-6,-27,-64,-31,-47,-9
20,78,-76,24,-10,-17,-30,-14,-9,46
-61,113,18,41,11,14,16,47,98,19
