-50,-74,-45,-102,-91,-111,-101,102,-23,52
-56,-86,-123,-111,-67,-89,-106,39,29,164
-63,-36,-45,-52,-9,-33,-57,9,52,232
-1,16,-18,-14,10,-11,-24,-8,30,203
42,47,40,9,49,0,-23,-46,-87,70
55,83,98,70,103,23,-47,-87,-193,-153
28,121,141,123,134,45,-41,-156,-311,-441
-18,78,110,84,83,-2,-73,-229,-469,-409
-33,8,41,5,29,-34,-64,-220,-457,-110
14,12,28,-24,-5,-55,-50,-226,-349,134
63,21,32,-50,-54,-103,-147,-352,-304,305
59,12,12,-27,-35,-94,-193,-393,-266,275
27,-10,-22,-15,-1,-51,-141,-349,-188,0
8,-35,-26,-51,-26,-50,-115,-291,-53,-205
14,-48,-4,-55,-38,-59,-124,-333,57,-205
-3,-48,0,-45,-18,-61,-157,-423,75,-39
-64,-65,0,-33,-2,-46,-127,-309,43,117
-137,-80,1,-25,9,-4,37,231,73,117
-147,-73,-3,-17,8,34,115,528,44,21
-144,-77,5,-3,20,48,84,277,0,-96
-114,-54,12,14,30,29,31,51,36,-134
-50,-39,4,8,18,16,-4,105,81,-101
-15,-24,0,5,11,31,23,320,116,-68
10,-3,3,21,27,59,46,300,111,-16
30,16,11,37,45,44,46,120,105,17
53,24,10,29,44,7,26,30,93,54
76,12,-28,-11,7,-8,2,-8,126,163
96,-3,-46,-34,-42,-36,-9,-31,210,313
90,1,-57,-62,-88,-66,-3,-9,290,412
78,0,-60,-70,-94,-53,51,43,343,371
69,-9,-29,-38,-53,-12,96,96,357,264
35,-14,-37,-47,-16,14,98,111,326,114
11,-9,-75,-36,14,39,89,94,249,-60
10,8,-132,2,30,65,69,84,147,-207
-1,19,-92,29,51,69,54,51,35,-268
-11,-15,-29,16,20,33,-7,-36,-91,-139
-41,-27,-12,5,29,32,-37,-66,-105,93
-63,8,2,45,82,64,14,-24,-22,142
-69,6,-23,45,80,66,51,5,-33,18
-84,10,11,33,75,56,43,-10,-57,-104
-89,47,56,38,76,45,2,-47,-44,-107
-61,79,77,38,73,39,-27,-73,-6,21
-77,88,72,38,94,68,16,-87,33,-29
-148,100,94,65,110,84,29,-172,-94,-375
-162,82,81,44,87,54,-45,-247,-201,-490
-79,63,33,-7,29,-26,-91,-157,-150,-119
91,42,1,-29,-3,-67,-65,7,-27,567
335,24,-28,-46,-23,-78,-53,68,64,876
420,-47,-72,-106,-120,-155,-74,96,195,748
375,-81,-93,-117,-170,-151,-22,178,439,655
238,-53,-33,-37,-94,-56,47,211,566,309
64,4,44,71,40,42,110,193,444,-372
-23,17,73,119,93,85,130,137,104,-789
2,-34,-13,34,4,-20,-8,-64,-295,-443
59,-82,-194,-82,-108,-136,-75,-188,-479,-179
53,-108,-284,-129,-139,-140,-12,-99,-356,-191
43,-95,-166,-86,-79,-65,68,20,-180,-206
42,-64,-67,-22,-8,-13,64,24,-84,-96
31,-50,-13,0,0,-16,12,-23,13,267
34,-42,-47,-10,8,-17,-9,-57,55,540
24,-28,-118,-10,27,0,12,-37,24,399
-1,-30,-45,-5,15,13,36,4,-49,114
-25,-36,12,-15,-6,9,58,76,-11,31
-23,-24,28,-31,-3,17,95,136,101,177
-16,16,50,-20,17,56,112,172,207,215
-14,27,91,7,45,83,106,178,320,119
-15,58,120,56,84,109,102,148,274,-120
-12,97,47,100,89,98,54,47,17,-354
-17,75,58,87,47,56,-30,-67,-219,-461
-40,24,78,41,2,-6,-83,-159,-307,-458
-60,-17,60,31,11,-15,-79,-150,-220,-287
-67,-37,61,54,46,1,-74,-125,-171,-249
-48,-34,0,25,16,-30,-104,-154,-192,-213
-28,-29,-80,5,-10,-47,-118,-166,-129,-81
-23,-5,20,23,-6,-35,-103,-134,3,-33
-51,-5,60,25,-4,-19,-77,-72,75,-184
-77,-25,34,-8,-29,-29,-76,-23,150,-166
-61,-16,21,-9,-24,-11,-33,30,244,-88
-30,26,47,8,7,46,70,122,160,-182
15,45,50,-6,-2,46,124,100,-180,-161
15,14,18,-60,-46,-18,96,26,-318,226
14,0,-1,-63,-51,-35,52,0,-192,370
-2,7,19,-28,-5,28,63,46,-95,-33
-41,0,4,-17,26,57,65,61,-77,-341
-55,-26,-109,5,31,-3,-25,-23,-116,-179
-50,-53,-130,32,40,-25,-121,-87,-125,32
-39,-51,-77,35,65,28,-123,-91,-148,29
-37,-48,-75,12,78,70,-94,-73,-123,40
-25,-49,-38,-9,98,93,-53,-52,-65,59
-8,-26,-17,-10,85,90,-28,-71,-64,6
6,15,37,-1,9,11,-77,-167,-100,-99
2,34,63,-8,-83,-117,-161,-281,-157,-222
4,-8,-57,-75,-162,-166,-180,-290,-143,-181
11,-17,-147,-98,-161,-145,-105,-93,10,25
8,-9,-92,-44,-106,-67,0,287,166,182
22,21,-26,6,-46,-1,70,469,245,257
5,71,124,93,50,85,115,352,223,76
-18,90,155,138,103,126,96,182,145,-181
-9,74,130,91,71,74,9,59,71,-142
21,26,83,26,9,9,-71,-41,14,171
4,-12,26,-21,-52,-28,-66,-16,2,374
-9,-33,-13,-70,-76,-34,1,122,68,453
3,-52,-52,-85,-88,-34,16,146,228,510
18,-20,-40,-64,-68,-12,7,165,393,436
35,19,6,-25,-22,49,60,234,544,231
30,42,50,24,24,126,161,299,571,-32
28,87,91,73,74,185,262,311,408,-300
4,116,120,124,142,250,272,215,35,-576
-41,75,50,99,137,209,163,22,-329,-506
-24,-3,-46,-8,29,44,10,-159,-515,-81
-22,-62,-149,-82,-30,-44,-46,-163,-442,186
-63,-65,-104,-29,63,23,-32,-121,-341,7
-80,-20,-9,70,122,40,-44,-147,-215,-120
-54,-5,21,77,97,34,-38,-108,-11,51
-34,-19,-30,21,103,86,60,23,181,319
13,0,-30,-26,48,68,86,104,322,373
78,60,41,-57,-86,-46,0,79,370,96
104,63,52,-29,-88,-94,-56,56,344,-160
109,22,-15,-25,-23,-47,-54,103,345,-122
91,-22,-58,-48,-45,-33,-29,164,342,-70
-10,-62,-35,-33,-36,10,19,201,164,-212
-159,-69,14,51,78,116,70,140,-160,-291
-196,-19,63,101,140,121,27,-37,-395,-129
-125,0,41,61,123,75,-23,-112,-309,-21
-111,-42,0,-1,80,46,-47,-117,-254,-61
-121,-71,-24,-51,22,12,-53,-147,-323,-48
-105,-53,-63,-72,-45,-54,-35,-111,-331,21
-79,0,-7,-45,-98,-88,6,-47,-222,46
-39,9,-24,-5,-95,-90,-30,-57,-230,-42
-6,12,-92,4,-129,-130,-71,-109,-296,-251
-12,19,-62,-14,-123,-128,-62,-128,-302,-379
-26,2,3,-31,-107,-98,-1,-132,-205,-179
-45,-52,-90,-49,-116,-89,26,-133,-89,225
-107,-66,-63,-33,-76,-68,46,-96,7,429
-161,-70,-31,30,-9,-62,1,-128,-7,260
-90,-61,-44,62,61,-16,-12,-138,-4,189
71,-66,-74,-3,41,17,23,-95,25,259
195,-46,-42,-49,-14,-5,48,-63,93,169
178,6,43,-10,8,-30,53,-31,120,-50
110,54,67,63,49,-25,57,32,144,-152
55,65,33,121,69,12,74,73,144,-197
43,90,136,122,1,-14,58,63,143,-140
67,77,158,63,-79,-94,-3,45,97,23
67,53,113,26,-63,-73,13,37,63,-36
63,26,59,-36,-66,-85,33,-1,108,-58
80,1,6,-98,-105,-109,5,-16,248,130
111,14,4,-96,-105,-80,24,46,393,231
97,28,6,-79,-75,-40,78,129,466,241
69,9,-10,-90,-75,-28,111,215,538,307
69,0,-10,-80,-54,-2,120,288,658,259
42,31,27,-16,3,45,156,267,547,-7
-20,31,-16,20,35,58,150,116,224,-173
-76,-7,-33,0,19,19,66,5,-18,-64
-76,-23,-11,25,21,-2,-1,-23,-119,43
0,0,17,26,9,-12,-35,-70,-201,110
59,16,24,4,6,-13,-39,-88,-255,78
47,19,4,-13,24,19,-10,-50,-211,43
57,30,42,3,34,57,11,2,-53,163
58,38,179,20,-11,11,-21,-29,-48,240
13,-29,200,-3,-61,-42,-30,-83,-158,19
-26,-92,39,-75,-103,-68,-37,-79,-215,-135
38,-85,-74,-94,-96,-55,-13,35,-46,564
52,-79,-127,-74,-45,-40,-7,60,-57,948
17,-103,-186,-67,8,-15,-53,-19,-226,622
-1,-78,-160,-2,91,34,-27,-33,-223,-26
-59,11,-14,120,200,147,90,37,-101,-733
-129,95,93,166,293,243,160,44,-162,-1176
-137,44,33,43,207,181,95,-51,-268,-968
-65,-11,-61,-125,8,22,-36,-116,-197,-335
-8,16,-98,-130,-34,-6,-58,-57,13,55
3,18,-93,-63,20,25,-19,18,192,35
13,38,-49,13,100,52,37,43,260,-185
47,68,-5,58,153,102,108,59,389,-256
83,67,-80,16,134,113,164,149,629,-59
72,131,-17,47,98,99,175,148,529,61
30,216,180,124,29,37,122,27,146,-66
-70,224,243,197,41,17,73,-45,-181,-385
-122,170,185,163,31,-9,26,-138,-437,-646
-93,64,21,22,-72,-117,-108,-260,-461,-236
-20,-1,-31,-82,-146,-179,-132,-214,-270,289
61,-10,-86,-99,-153,-155,-44,-35,-39,389
87,-21,-132,-67,-118,-97,17,77,78,327
72,-16,-40,-7,-44,-44,7,39,17,159
62,-12,27,7,-4,-34,-33,-61,-79,34
5,-48,4,-12,-19,-49,-52,-100,-69,-37
1,-107,-32,-49,-48,-57,-59,-101,-52,-65
7,-110,-30,-58,-47,-51,-33,-99,-28,-81
-17,-82,-40,-39,-29,-44,-30,-93,30,-55
-10,-65,-40,-27,-6,-34,-54,-78,77,6
1,-63,-28,-34,13,-20,-42,0,154,73
27,-49,-29,-35,-9,-33,-40,94,218,230
61,-48,-34,-51,-31,-64,-92,76,294,442
71,-49,-92,-65,-62,-68,-112,29,412,615
50,-66,-117,-87,-88,-47,-56,80,497,627
44,-67,-66,-74,-79,-17,46,204,514,475
52,-29,-16,-16,-35,35,130,289,421,170
44,0,29,54,42,81,188,268,129,-376
11,39,64,90,111,106,176,180,-154,-779
0,50,64,84,120,111,92,76,-251,-466
7,34,59,75,110,100,27,-27,-318,41
11,15,54,63,117,108,34,-64,-414,0
77,-8,24,9,84,75,18,-21,-330,-79
103,-32,-56,-43,27,28,-17,-3,-142,159
52,-68,-135,-94,-35,-33,-3,53,142,336
-38,-53,-164,-55,-15,-34,56,137,351,31
-103,-20,-89,11,41,7,32,18,186,-148
-72,-56,-82,-48,-44,-66,-94,-179,-49,319
-32,-97,-122,-122,-153,-148,-158,-222,-142,476
-21,-97,-92,-139,-131,-92,-82,-110,-21,314
-17,-63,-29,-64,-15,28,41,6,141,205
-12,-45,-6,30,115,139,165,120,250,375
10,-28,2,62,168,167,231,224,366,508
-34,15,42,100,178,167,204,195,140,-52
-185,53,167,192,274,257,190,65,-464,-1287
-268,33,188,179,251,263,118,-94,-854,-1636
-236,-28,78,99,120,122,-19,-186,-780,-908
-202,-72,-58,76,193,112,-68,-228,-619,-473
-156,-66,-43,-6,198,99,-83,-245,-572,-527
-100,-59,-64,-152,13,9,-101,-225,-436,-372
-73,-45,-86,-165,-22,0,-47,-137,-254,-173
-28,16,-12,-66,-46,-76,-46,-37,-65,7
28,83,65,29,-185,-243,-117,21,143,229
46,122,43,60,-227,-301,-86,63,262,297
41,146,88,94,-171,-282,-71,54,261,209
59,169,111,64,-199,-296,-122,-5,190,157
65,168,142,40,-196,-252,-127,-76,7,-44
28,155,124,66,-153,-190,-108,-138,-203,-313
19,112,64,43,-132,-164,-93,-126,-224,-351
40,81,13,8,-101,-86,-20,-18,-16,-136
59,73,86,71,19,60,94,104,226,-102
155,88,130,148,124,159,187,165,268,-189
231,52,103,133,96,127,153,122,81,-126
156,-2,57,40,5,11,29,12,-120,-6
104,-70,-55,-77,-83,-96,-56,-84,-129,254
103,-79,-101,-142,-149,-157,-103,-157,-63,526
70,-39,-42,-115,-154,-154,-118,-173,-12,566
35,-28,-4,-62,-114,-112,-120,-169,22,482
41,-14,12,-43,-98,-90,-125,-165,38,320
48,18,31,-40,-84,-98,-123,-145,63,380
39,22,44,-48,-81,-64,-107,-130,112,423
20,8,26,-60,-68,-44,-119,-168,160,155
-15,-10,0,-80,-67,-58,-128,-117,127,-178
-17,-16,-2,-54,-53,-43,-115,-48,107,-239
1,-35,-13,-16,-15,-12,-41,7,168,-184
0,-64,-52,11,23,17,41,117,221,-58
30,-19,-36,51,67,76,138,190,249,204
68,20,-38,43,66,101,170,129,228,408
55,-2,-24,-6,16,73,131,65,153,501
40,-10,-34,-50,-50,25,55,-7,46,298
13,12,-4,-17,-55,10,22,-66,-3,-105
-48,18,-16,41,-16,5,2,-113,-20,-458
-101,-15,-122,27,-2,-38,-41,-77,11,-408
-112,-57,-90,-6,-20,-52,-2,150,161,-89
-83,-60,-43,-12,-15,-3,73,298,256,31
-59,-49,-44,-16,14,32,87,191,240,68
-39,-39,-58,13,83,77,79,71,221,169
-36,-19,-10,32,157,146,127,48,213,204
6,26,14,57,204,216,186,27,51,5
69,41,22,42,169,200,154,-72,-215,-87
100,37,-20,6,87,115,75,-158,-377,-102
136,27,21,14,31,40,48,-132,-295,-83
105,43,88,36,-41,-20,35,-111,-193,-13
-25,33,69,52,-29,-7,50,-129,-246,-80
-134,8,21,72,37,14,26,-168,-357,-187
-107,17,43,53,41,-24,-54,-228,-408,-188
-41,6,36,21,14,-38,-34,-201,-319,-180
-9,-4,20,20,2,-24,33,-138,-235,-110
13,12,20,14,-47,-37,30,-142,-152,30
28,28,45,12,-90,-60,4,-150,-63,69
37,46,76,4,-121,-78,-28,-154,7,35
14,36,46,-17,-132,-81,-38,-141,30,7
-37,-6,-1,-45,-117,-64,-3,-88,43,30
-28,-19,-22,-56,-98,-61,-36,-91,82,137
4,-15,-5,-43,-76,-75,-92,-158,158,247
17,-5,7,-30,-55,-58,-95,-183,174,263
5,-20,0,-42,-51,-13,-6,-79,143,202
-15,-44,-11,-47,-57,28,115,150,149,79
-30,-46,-1,-44,-36,32,213,349,193,-14
-14,-15,22,-12,-3,12,210,318,227,-9
16,5,43,13,11,-6,115,150,259,147
25,-22,-11,-28,-31,-38,-3,44,273,331
9,-57,-94,-66,-67,-68,-54,16,311,273
21,-27,-157,-9,-4,-21,-13,28,217,-36
17,18,-59,51,83,66,14,8,-161,-305
-20,5,37,46,93,75,54,-50,-578,-349
-63,-39,16,23,81,86,154,-17,-596,-441
-68,-40,0,12,75,108,238,40,-328,-632
-20,-11,10,14,72,79,183,33,-109,-559
-23,-20,15,15,70,50,96,8,-34,-262
-64,-29,20,40,78,51,61,-18,-70,-178
-61,-52,-79,0,-1,-13,12,-51,-9,24
-6,-42,-129,-37,-80,-69,-17,-17,120,309
52,-1,-37,-14,-73,-43,34,66,211,338
70,35,26,23,-22,-7,111,121,276,269
80,70,43,51,1,18,169,174,295,81
87,96,124,79,23,38,185,172,174,-245
64,63,43,58,9,1,110,84,50,-268
72,28,-35,-9,-40,-45,14,-1,51,152
89,14,21,-50,-60,-47,-11,3,142,351
44,0,25,-64,-60,-21,6,65,223,262
8,-5,-57,-59,-56,-12,0,40,134,109
1,13,-94,-13,-28,0,-7,-14,-6,-49
-28,-5,10,4,-10,-13,-37,-108,-167,-94
-57,-48,13,-25,-24,-34,-42,-164,-224,1
-50,-54,-17,-32,-27,-13,1,-149,-212,151
-38,-47,-12,-15,-36,-12,5,-127,-194,152
12,-8,12,-26,-81,-45,-39,-152,-131,122
66,34,55,-30,-69,-36,-45,-133,-33,71
81,77,78,18,-8,24,32,-55,44,-99
20,63,67,68,62,101,150,62,137,-344
-34,35,100,81,94,115,171,95,239,-361
-56,-5,61,40,71,45,111,18,275,-103
-30,-56,-31,-50,-4,-43,14,-69,243,169
-6,-100,-89,-141,-114,-142,-108,-105,55,211
-1,-85,-60,-138,-147,-179,-184,-146,-185,19
16,-45,-23,-87,-109,-147,-173,-166,-255,-56
26,-29,6,-46,-29,-73,-113,-115,-177,134
-13,-39,-5,-27,52,8,-32,-32,-38,286
-73,-31,18,29,130,117,94,102,52,51
-117,-13,71,58,162,176,206,243,127,-298
-110,-16,71,31,117,121,177,234,200,-298
-33,-21,44,1,79,75,81,133,187,-39
51,-16,3,-49,31,-10,-19,12,161,257
92,-15,-1,-108,-95,-133,-79,-31,228,452
94,10,29,-67,-118,-144,-43,-3,262,407
61,39,40,7,-34,-80,-21,-21,66,305
9,52,37,71,68,8,10,-48,-166,28
-18,69,121,118,133,85,29,-67,-316,-378
-34,64,120,100,122,52,-13,-112,-450,-668
-32,59,77,37,71,13,-24,-119,-398,-560
-47,43,46,-5,45,4,7,-103,-312,-373
-73,3,6,-30,13,-36,-17,-137,-306,-89
-68,-41,-22,-36,-20,-90,-77,-214,-282,304
-70,-42,-17,5,-14,-120,-105,-239,-216,270
-77,-40,-20,67,7,-94,-110,-213,-121,125
-63,-19,-17,84,48,-15,-60,-157,10,44
10,17,3,52,31,30,-31,-104,127,23
86,36,29,31,24,28,-30,-116,81,-152
138,35,34,42,13,0,-39,-154,9,-268
113,-5,5,29,-24,-11,9,2,11,-313
-5,-71,-53,-20,-63,-34,91,275,8,-264
-74,-132,-102,-76,-107,-87,78,323,108,167
-36,-139,-107,-79,-98,-72,62,268,180,450
-9,-110,-64,-26,-12,31,115,174,41,275
-9,-88,-19,15,-2,43,87,60,-110,55
-14,-36,22,47,-3,35,56,19,-124,-189
18,-8,18,38,-12,22,46,-18,-20,-70
17,-8,9,26,4,38,35,-39,-15,41
10,-6,-10,-23,-16,30,13,-34,-29,88
19,-35,-66,-73,-47,1,-13,-28,37,312
14,-76,-128,-75,-7,21,-4,8,208,529
-7,-74,-133,-34,119,107,84,129,419,254
22,-32,-86,-80,79,113,130,265,585,-26
15,-11,-46,-85,17,79,146,334,659,-15
-14,30,14,-27,50,134,208,343,551,-15
-73,45,62,50,105,154,169,162,41,-347
-111,22,72,82,69,70,-10,-168,-573,-565
-69,-2,60,73,10,-34,-182,-406,-764,-301
-3,0,46,76,-7,-113,-243,-445,-479,71
20,0,28,62,-7,-193,-219,-372,-163,204
37,10,41,42,-16,-326,-180,-323,-58,126
62,44,48,28,-62,-310,-131,-287,0,164
62,33,23,-23,-125,-182,-88,-188,20,247
40,-20,-39,-87,-158,-184,-81,72,46,325
27,-55,-72,-97,-132,-216,-68,247,120,433
33,-48,-45,-86,-84,-147,-60,187,221,503
12,-19,12,-8,9,-2,-51,57,185,296
-29,29,87,113,118,110,-8,-53,-161,-289
-99,15,91,115,104,71,53,-36,-392,-617
-149,-45,4,33,19,9,117,148,-305,-498
-110,-38,-17,4,3,44,96,217,-117,-300
-85,-10,-19,25,33,87,66,175,44,-208
-96,-20,-26,8,38,78,86,237,165,-198
-75,-13,-11,-16,17,72,95,271,157,-271
-17,0,-3,-20,10,80,78,184,87,-358
32,16,-41,-14,24,43,-2,34,37,-227
17,8,-40,-27,2,-16,-64,-80,17,192
-51,29,15,18,15,9,-26,-55,-45,375
-82,68,46,60,28,46,39,52,-126,241
-42,84,36,33,-57,2,35,37,-159,130
4,45,-16,-18,-134,-58,13,-30,-101,81
94,-9,-98,-51,-101,-47,8,-63,-15,198
152,-89,-131,-81,-46,1,-13,-76,66,345
115,-98,-102,-104,-103,-45,-82,-128,35,361
85,-24,-32,-125,-186,-110,-101,-75,68,238
37,7,25,-65,-123,-43,-6,105,93,-67
-14,2,27,-10,-63,7,29,140,48,-103
-38,-18,4,17,-26,23,15,70,0,-5
-15,2,11,55,30,72,-3,3,-163,-154
14,14,21,53,37,43,-52,-54,-242,-128
59,6,-19,17,19,7,-86,-78,-103,91
95,22,-24,-14,14,32,-54,-35,163,184
69,32,18,5,49,63,-19,1,340,117
37,43,-12,36,88,114,9,23,429,143
-3,20,-4,32,117,152,49,57,295,149
-72,-33,-13,-6,104,137,85,53,-26,-182
-112,-54,-37,-4,107,118,57,-42,-280,-489
-76,-42,-48,24,123,80,-8,-122,-248,-267
-59,-15,0,77,135,84,-6,-89,-166,-94
-84,28,60,117,123,102,34,-12,-172,-242
-59,20,36,68,69,60,-1,17,-175,-259
-18,7,19,7,-19,-27,-51,10,-96,-112
7,38,25,-22,-58,-73,-95,2,-5,21
31,52,26,-59,-89,-79,-114,-43,22,63
49,47,13,-85,-78,-73,-113,-69,14,84
59,40,3,-67,-54,-56,-73,4,122,77
35,47,19,-28,-19,-6,21,131,261,-37
25,48,6,0,7,32,81,200,255,-181
-3,34,-74,12,20,50,70,187,166,-324
-35,26,-7,45,58,91,69,124,52,-432
-57,27,61,60,94,116,67,16,-86,-307
-42,-17,15,-11,6,22,-71,-133,-231,146
19,-69,-50,-93,-90,-106,-239,-244,-301,520
60,-53,-61,-84,-106,-158,-246,-244,-255,466
68,-11,-70,-24,-62,-98,-132,-86,-126,308
51,7,15,4,-13,-22,-80,43,-40,332
17,-1,48,11,6,-8,-93,11,3,267
-23,-8,30,17,14,-21,-69,-5,34,-25
-42,-34,0,-10,-15,-31,-8,35,110,-173
-23,-30,-42,-31,-40,-32,20,99,182,-4
-7,-6,-55,-25,-34,-11,35,119,151,108
-8,0,2,-25,-15,16,43,93,49,75
-17,-18,-71,-23,-13,27,28,29,-120,-25
-12,-33,-94,-41,-23,21,-12,-43,-267,-170
3,-15,-5,-43,-7,29,-12,-70,-290,-286
-2,-18,1,-38,3,27,7,-92,-231,-277
3,-27,-21,-41,16,38,21,-85,-150,-159
22,-14,-5,-33,38,59,25,-50,-49,-16
-8,0,4,18,62,100,49,-24,-7,20
-33,9,35,70,86,108,71,-34,-10,-53
13,5,17,60,67,82,57,-24,55,3
31,15,16,54,49,67,62,-6,92,22
29,29,22,50,22,50,53,-6,63,9
47,18,-27,4,-51,-6,-8,-17,35,198
35,-12,-20,-29,-71,-25,-44,-20,17,326
9,-29,-10,-28,-28,9,-32,-9,25,244
34,-12,-39,-80,-52,24,-20,12,109,226
53,4,-4,-103,-101,2,-33,30,214,139
33,0,-36,-86,-106,-6,-41,13,243,-35
10,-2,-122,-66,-75,3,-38,-12,267,-83
5,7,-80,-13,-4,21,-10,5,271,-50
-37,-4,20,-7,0,3,3,36,115,-118
-56,-41,1,-33,-40,-59,-47,3,-136,-120
-1,-34,-13,-40,-45,-60,-49,17,-116,48
55,12,8,-19,-1,-8,-4,24,81,181
58,53,39,57,65,34,13,-18,93,118
38,62,85,110,107,35,0,-90,-20,71
0,63,99,113,114,73,1,-117,-137,-154
-23,73,76,112,104,76,-1,-132,-178,-334
-13,71,47,89,83,48,-31,-152,-160,-253
-20,43,29,18,32,21,-30,-42,-77,14
-36,10,-46,-31,-13,23,24,118,28,199
-51,6,-9,-36,-4,26,31,68,102,195
-9,26,12,-28,0,4,5,-63,155,146
73,23,30,-23,-15,-17,-13,-87,166,133
98,13,19,-21,-13,3,-5,-61,134,343
104,31,32,16,42,68,51,-36,-3,381
145,75,80,35,53,82,91,-27,-173,104
174,64,66,-9,-36,-26,5,-124,-221,-10
110,13,27,-39,-91,-101,-51,-194,-169,-122
-53,-25,33,-9,-24,-39,29,-97,-104,-342
-163,-41,8,17,15,9,100,50,-33,-323
-177,-86,-26,14,23,19,104,204,33,-255
-101,-86,-39,-4,21,4,61,184,76,-42
-30,-70,-43,-40,-15,-23,2,46,110,274
4,-73,-63,-86,-64,-38,9,90,182,426
19,-73,-87,-99,-88,-32,36,285,291,384
-11,-49,-53,-48,-60,-21,77,358,320,82
-69,0,39,43,1,58,156,289,121,-453
-96,38,91,84,17,67,102,116,-196,-432
-138,11,86,84,10,38,19,-33,-379,-18
-160,-25,65,72,60,69,48,-44,-314,-70
-124,-26,4,60,86,106,122,-10,-162,-329
-76,-15,-13,42,78,84,114,-33,-112,-385
-62,-2,1,33,78,53,53,-94,-153,-265
-45,-28,-6,25,100,31,3,-136,-194,-202
-22,-57,-21,-16,59,7,-31,-162,-131,-117
-24,-52,-16,-39,5,-1,-55,-158,-14,-20
-41,-18,13,4,15,0,-57,-105,72,-12
-42,26,46,54,52,-14,-57,-41,160,-115
-25,56,49,34,22,-55,-102,-55,178,-186
-38,47,44,17,-4,-63,-142,-121,114,-178
-28,51,9,-39,-49,-77,-140,-160,34,-114
-3,36,-23,-60,-82,-70,-78,-104,19,-29
46,53,20,4,-57,-38,61,91,73,36
128,60,59,63,-11,-9,129,234,62,135
223,31,20,15,-28,-24,136,279,69,216
216,-34,-31,-42,-65,-18,95,213,76,216
68,-84,-35,-51,-47,-18,49,96,56,140
-13,-73,-64,-54,-42,-40,-17,-9,94,293
-29,-63,-65,-84,-67,-73,-69,-69,107,498
-22,-44,-56,-88,-67,-57,-59,-38,114,383
-2,-1,-23,-50,-36,-20,-33,-13,84,161
33,49,45,-2,8,7,4,-5,-25,-120
21,49,59,24,9,2,-13,-72,-162,-221
-15,22,42,30,14,1,-25,-127,-195,-200
-10,27,8,14,31,22,-20,-113,-67,-67
5,32,-1,-3,35,54,2,-84,55,-19
-4,15,-5,11,60,95,64,-75,24,-94
-17,-6,-22,-1,63,94,72,-112,-42,-12
-28,-16,-34,-8,-1,31,61,-88,-62,98
-25,2,-12,11,-47,-19,59,20,-31,56
11,22,-17,8,-96,-68,8,74,7,24
38,43,4,29,-61,-57,-9,43,62,3
29,38,29,38,-33,-45,-6,40,87,-31
-6,37,38,33,-34,-42,6,46,81,-48
-23,23,-21,29,-42,-55,-19,11,55,-57
10,11,8,10,-52,-64,-22,-15,37,32
44,21,27,18,-26,-48,0,-33,26,251
53,24,24,6,-14,-40,-7,-64,2,418
45,23,21,-8,-23,-51,-11,-82,-62,275
-7,-1,8,-14,-27,-61,-7,-81,-114,-87
-67,-36,2,-1,-16,-52,-28,-77,-171,-262
-78,-60,-3,11,-15,-28,-31,-63,-169,-189
-46,-75,-13,9,-21,-24,-49,-66,-145,-84
-13,-63,-21,12,-23,-32,-62,-87,-116,-19
-1,-39,-11,12,-37,-40,-70,-77,-70,-3
-1,-19,-5,-12,-46,-24,-63,-39,-32,-18
-13,-15,-14,-22,-31,-14,-13,3,7,-48
-24,-28,-28,0,-8,-9,-12,7,9,-31
-18,-17,-18,14,13,-8,-27,-6,7,-4
14,1,-10,11,-8,-25,-69,-33,17,23
26,8,-16,21,-19,-23,-111,-62,23,59
24,15,-1,35,-4,0,-92,-63,26,79
28,15,0,33,1,-1,-76,-87,13,88
25,10,-75,41,4,1,-63,-81,35,75
23,6,-73,29,7,11,-53,-56,57,34
29,-3,-18,9,10,11,-52,-59,67,50
34,-12,-85,0,-13,-1,-40,-34,128,140
37,-18,-185,-12,-53,-17,-30,39,183,173
37,-15,-142,-35,-83,-49,-10,144,248,186
23,-11,-46,-32,-89,-50,-2,227,309,150
18,8,5,-19,-48,12,40,211,288,68
5,47,23,35,37,97,125,192,211,-85
-19,71,26,80,88,135,137,114,-5,-200
-32,59,78,58,43,57,31,-24,-197,-127
-40,32,84,37,8,-10,-53,-88,-217,-95
-31,9,67,28,7,6,-36,-55,-83,-73
-29,-5,16,38,30,29,-18,-16,-8,-82
-23,-4,47,60,59,36,1,-32,-70,-162
-15,19,55,51,54,57,11,-50,-121,-186
0,22,45,23,53,48,23,-58,-94,-112
8,21,-15,14,60,51,29,-56,-53,-74
9,30,-42,18,60,74,25,-45,-16,-103
11,30,34,13,35,60,35,-26,5,-160
-3,29,63,17,34,57,21,-64,-49,-186
-44,14,58,22,36,42,-17,-121,-73,-115
-33,14,46,29,36,18,-52,-158,-3,17
-6,12,0,13,35,-7,-61,-172,73,149
-40,-11,-42,-5,2,-31,-49,-95,100,67
-62,-28,-34,-36,-65,-58,-16,82,121,35
-44,-19,2,-35,-69,-32,56,255,179,67
-19,10,23,-7,-28,-1,100,205,136,53
-15,23,13,6,-11,-5,81,72,54,53
-30,-1,-74,-11,-16,-23,34,-3,-8,137
-31,-19,-57,-39,-37,-43,-25,-50,-98,157
-21,-9,10,-57,-34,-27,-30,-82,-163,65
15,-3,37,-52,-34,-13,-14,-108,-152,63
58,0,27,-77,-69,-27,-56,-115,-106,228
95,18,18,-95,-93,-48,-78,-116,-76,278
77,7,6,-90,-81,-40,-51,-25,-69,169
16,-21,-31,-53,-2,16,41,210,6,27
-12,-11,-90,4,72,52,70,250,65,-50
-15,-12,-21,17,88,43,28,109,-50,44
-33,-26,23,32,131,56,0,12,-200,327
-32,-21,28,39,115,56,-4,-5,-230,417
-39,-16,-16,16,60,39,16,50,-202,3
-77,-23,-39,1,63,68,48,78,-179,-476
-95,-31,-5,-18,10,35,25,36,-144,-557
-95,-48,-34,-9,-9,11,-8,2,-64,-386
-78,-51,-69,0,48,50,28,13,64,-291
-41,-38,-26,-22,61,78,69,27,116,-194
-4,-14,7,-52,51,59,60,40,137,-93
48,16,22,-42,19,56,16,59,152,-34
66,48,46,-3,13,32,-22,31,149,-16
65,54,73,13,7,-3,-46,-19,137,-25
56,35,60,25,10,-10,-38,-51,100,-48
49,-7,7,-7,-1,-6,2,50,136,118
27,-17,-43,-2,-16,-18,23,133,243,298
-14,-24,-13,58,33,9,31,116,301,179
-38,-38,15,105,126,96,75,104,323,-16
-38,-27,30,121,166,131,86,33,213,-203
-28,-11,27,109,138,114,62,-34,-15,-285
10,-21,-10,26,30,27,17,-81,-281,-145
80,0,-32,-27,-110,-114,-13,-104,-341,65
110,73,-24,13,-164,-175,-12,-46,-215,45
72,116,66,72,-128,-134,12,14,-75,-124
6,87,103,82,-48,-49,57,51,-4,-269
-34,29,0,93,37,34,95,76,-22,-346
-39,8,8,65,40,42,76,62,-120,-387
-2,2,56,11,-8,-21,-17,9,-120,-334
57,-13,37,-21,-53,-66,-85,-46,-53,-46
74,-22,26,-53,-96,-83,-107,-101,-55,398
31,-36,8,-79,-121,-83,-116,-133,-71,696
-12,-54,-21,-80,-102,-68,-89,-147,-193,527
-37,-95,-48,-109,-105,-86,-73,-159,-272,129
-47,-125,-94,-117,-113,-98,-97,-146,-224,-18
-42,-112,-117,-45,-34,-41,-33,-31,-91,-8
-11,-51,-116,54,80,58,58,86,28,-99
23,10,-83,96,149,126,61,116,101,-98
18,35,2,115,179,142,28,94,72,-83
-15,52,123,93,164,146,15,78,-17,-237
-41,16,87,45,139,128,7,60,-38,-246
-34,-21,8,-24,73,65,-31,3,13,-86
-14,-8,12,-20,0,14,-70,-38,36,-10
0,13,40,-10,-96,-59,-88,-59,28,-11
21,3,41,-29,-138,-123,-98,-77,47,126
37,7,56,-21,-104,-134,-105,-111,40,176
38,30,63,0,-62,-97,-119,-149,15,101
57,39,75,5,-58,-94,-129,-174,5,0
29,31,75,-8,-44,-88,-62,-80,10,-52
-13,26,61,-2,2,-15,90,172,10,-42
-37,35,76,26,39,54,174,338,-41,-88
-47,29,56,13,42,39,99,214,-46,-149
-60,-14,2,-11,17,-4,28,69,-9,-143
-30,-34,-45,-36,-18,-28,-32,20,99,106
7,-16,-62,-30,-17,-34,-57,-21,155,285
-5,0,-23,5,8,-12,-50,-55,131,138
-25,-3,-13,-40,-22,-6,-28,-35,172,-19
-15,-12,-44,-92,-65,-17,3,-12,260,-2
33,1,-25,-101,-99,-47,30,-10,319,109
39,5,-35,-74,-100,-80,22,27,388,213
49,22,-20,-37,-96,-119,-23,13,396,357
87,59,20,0,-67,-67,-30,7,333,423
76,66,18,19,-8,16,49,104,202,262
27,59,19,26,41,38,99,113,-67,-18
-28,33,24,-9,33,25,93,117,-281,-271
-9,21,14,-56,-51,-13,33,96,-273,-250
0,22,21,-30,-27,-12,1,67,-209,-169
-39,4,-61,6,28,5,-3,65,-195,-161
-66,13,-27,26,18,-5,-50,19,-207,-205
-58,33,57,51,23,-20,-59,-25,-175,-186
-36,39,71,91,43,-23,-85,-61,-198,-116
-27,26,32,52,33,-29,-108,-61,-255,-100
-26,11,23,9,19,-18,-64,0,-174,-151
-40,12,39,21,32,-14,-40,41,-46,-233
-43,-1,40,9,39,-29,-75,0,-11,-165
-31,-16,23,2,33,-28,-111,-86,-62,-19
-29,-35,-14,-4,4,-50,-138,-155,-133,152
-30,-63,-41,-11,0,-40,-120,-155,-183,119
2,-64,-22,-23,-6,-6,-17,-113,-155,64
45,-29,-7,-28,-22,4,38,-56,-86,89
55,-21,-16,-37,-7,10,40,29,2,127
51,-10,-21,-35,-3,8,23,44,70,142
72,28,17,-7,14,9,7,-8,106,119
73,33,41,16,56,35,6,-5,150,178
53,17,39,25,79,61,43,89,99,229
-6,-1,44,17,51,61,48,151,-55,78
-63,-35,0,-28,-16,-19,-31,79,-151,-108
-69,-86,-52,-50,-53,-63,-95,-41,-150,-61
-30,-79,-62,-37,-33,-36,-77,-48,-80,75
14,-63,-63,-19,-18,-22,-40,-14,-37,59
45,-57,-68,-42,-37,-38,-30,12,83,125
71,-25,-42,-58,-61,-53,-16,74,300,235
57,-1,-37,-63,-82,-30,19,151,478,214
20,-9,-36,-36,-17,33,66,182,536,91
-39,13,16,54,115,137,143,167,418,-206
-85,43,93,153,217,231,179,69,18,-480
-82,18,20,133,187,172,82,-122,-443,-432
-93,-43,-32,43,135,96,-7,-230,-663,-314
-27,-32,-34,-44,42,63,9,-149,-465,-122
57,-16,-44,-87,-33,11,8,-49,-137,191
84,-14,-23,-60,-66,-26,4,11,116,381
106,5,-4,-24,-94,-49,8,39,246,402
118,39,10,3,-87,-49,2,24,297,403
88,67,68,48,-55,-30,-4,5,184,194
49,52,79,26,-36,11,32,7,26,-7
25,11,32,-39,-64,-3,8,7,-37,-17
18,-6,-9,-86,-93,-23,-32,-12,-48,16
11,-5,-15,-75,-83,-28,-69,-49,-45,-44
1,1,-7,-49,-49,-12,-59,-42,-57,-146
-3,12,-29,-23,-6,29,16,60,3,-119
-48,1,-113,33,39,74,36,91,26,-106
-102,-27,-127,81,97,109,37,50,-14,-191
-76,-24,-8,72,93,119,66,29,-17,-201
-24,1,34,52,55,80,66,21,36,-164
22,36,41,46,21,11,15,2,109,-82
29,59,23,4,-25,-33,-42,-2,109,-24
17,55,-99,-37,-97,-92,-71,16,55,10
20,43,-71,-19,-62,-64,-27,46,-10,-87
18,17,13,10,-10,-33,-41,14,-122,-189
1,-9,10,6,-15,-40,-50,-28,-147,-82
10,-20,-34,6,-11,-11,-11,3,-53,50
-3,-7,-82,35,21,39,16,39,-1,-3
-41,-41,-30,-3,-11,-18,-57,0,42,91
-77,-90,-44,-77,-83,-72,-101,-25,91,256
-87,-80,-56,-76,-75,-33,-66,11,73,115
-72,-42,-33,-54,-33,-3,-64,-3,81,158
-39,-28,6,-43,-10,3,-43,-72,101,221
0,-5,22,-44,-18,-11,-32,-107,88,179
21,5,33,-26,12,0,-28,-99,70,126
20,-1,16,-6,36,38,-22,-81,7,89
32,-8,-22,-19,19,44,17,-15,-59,130
43,-16,-15,-59,-10,8,-3,14,-141,158
35,-30,-26,-57,9,8,-16,-13,-148,87
38,-45,-57,-39,57,69,28,43,9,0
32,-71,-71,-33,93,113,36,29,24,171
23,-72,-61,1,130,100,29,-36,-46,398
-10,-59,-39,32,142,85,7,-47,7,277
-51,-55,-45,37,132,87,3,0,91,0
-65,-31,-11,60,85,96,79,135,83,-234
-41,46,100,143,54,49,94,151,-9,-303
-2,105,126,198,3,-35,-3,13,-159,-358
-5,100,126,179,16,-42,-51,-93,-231,-404
-28,73,84,91,0,-43,-61,-126,-235,-467
-29,25,18,-10,-70,-64,-57,-75,-147,-334
-42,-22,-5,-38,-60,-36,-38,31,-24,-169
-37,-18,1,-4,-41,-6,-17,59,66,-120
-6,0,21,11,-14,36,15,59,146,-51
20,21,36,21,2,60,60,85,115,-43
61,55,66,30,-39,22,68,132,129,62
56,59,69,26,-67,-20,40,151,165,132
45,57,69,20,-30,3,32,123,107,-29
53,65,72,33,15,51,37,49,-39,-196
63,44,55,24,30,26,-7,-62,-259,0
38,5,1,-17,-28,-52,-95,-160,-400,172
7,-22,-89,-49,-83,-83,-96,-144,-316,115
-6,-10,-14,-20,-30,-8,-7,-18,-109,-55
-23,8,22,8,36,72,29,26,-29,-183
-51,-4,-91,18,29,47,-14,-35,-18,-177
-10,-22,-70,-23,-34,-31,-55,-58,47,41
19,-23,-5,-25,-47,-53,-74,-79,64,129
23,-21,0,9,-1,-41,-90,-124,40,79
0,-35,-98,29,52,5,-83,-119,11,32
-4,-44,-90,-6,57,38,7,30,91,18
25,-24,1,-19,42,35,83,174,132,96
38,-7,26,-5,30,29,91,173,73,313
48,-4,-10,-31,-17,-31,55,86,83,415
26,-18,-66,-42,-48,-55,52,90,200,177
-21,-8,-7,-25,-53,-21,47,107,176,-178
-16,4,30,-29,-50,-14,11,53,84,-210
4,-7,-73,-64,-68,-62,-51,36,110,-16
-13,-31,-123,-92,-56,-78,-71,30,119,150
-36,-43,-12,-72,-16,-26,-43,-24,-16,181
-55,-45,24,-30,60,45,-3,-86,-164,113
-60,-47,22,-18,112,79,14,-98,-127,84
-73,-32,33,29,175,113,37,-76,-43,-48
-79,-25,51,87,251,157,63,-73,-47,-324
-79,-24,42,100,261,159,55,-95,-54,-375
-36,-28,9,58,229,153,85,26,71,-159
41,-3,16,-22,54,63,73,223,243,15
77,29,56,-49,-135,-109,-34,193,317,108
97,53,83,-13,-142,-138,-88,65,385,179
114,72,82,18,-52,-62,-39,20,302,229
118,78,67,61,26,-44,-57,-105,-121,274
88,76,92,71,-6,-91,-138,-223,-515,147
7,71,111,84,-29,-73,-49,-80,-474,-214
0,76,99,42,-54,-37,76,73,-222,-297
18,79,71,-19,-93,-30,102,101,-101,-271
6,45,32,-48,-126,-65,61,39,-123,-239
11,3,-13,-76,-115,-74,28,0,-89,-69
16,-6,-16,-89,-85,-45,21,6,-4,-2
18,-20,-32,-102,-92,-68,-16,-14,86,200
-1,-42,-26,-83,-51,-69,-25,-3,198,454
-26,-6,33,41,77,46,85,88,253,316
-57,18,75,121,147,88,118,82,77,31
-99,9,65,87,107,31,60,24,-106,-169
-82,-8,-18,11,30,-7,-10,-25,-134,-63
-6,-4,-86,-51,-21,-32,-73,-69,-141,74
-12,-9,-42,-83,-41,-52,-120,-77,-114,20
-34,-14,-68,-65,-22,-51,-106,-64,-95,-153
-10,-2,-62,-35,5,-5,-71,-46,-59,-254
10,26,-7,-12,14,14,-79,-81,-66,-217
2,8,-30,5,30,12,-74,-97,-129,-126
-8,-18,11,17,55,13,10,0,-142,-30
-41,-30,23,16,33,18,12,7,-125,-35
-23,-24,24,2,-2,-16,-59,-74,-117,-6
-10,-26,10,-20,-15,-29,-67,-97,-83,34
-2,-35,-9,-47,-28,-39,-65,-83,-21,95
9,-34,-19,-40,20,-12,-68,-75,51,153
29,-20,-26,-49,31,31,-52,-31,180,193
34,-3,-12,-53,-11,18,-26,5,232,140
31,0,-4,-8,6,16,34,-14,198,40
24,2,1,30,33,20,70,-43,164,7
20,10,-5,27,2,16,91,56,180,62
32,19,4,27,0,31,107,152,155,88
46,19,16,13,9,11,37,27,16,118
49,13,21,6,14,-14,-24,-121,-110,130
39,4,28,38,35,24,22,-83,-50,54
18,0,39,65,80,94,70,12,5,-80
7,5,47,67,78,69,73,54,0,-201
-11,-9,-1,27,31,6,37,54,81,-142
-2,-19,-81,-1,28,-6,41,69,239,122
22,-2,-14,-15,9,-14,55,150,381,254
0,-4,-7,-30,-41,-12,96,295,425,-3
-37,-31,-19,-56,-82,-23,103,319,364,-229
-15,-33,-12,-44,-72,-36,19,131,165,-23
-10,1,47,14,-16,-20,-28,-116,-252,18
-26,-9,39,14,-25,-43,-53,-257,-516,-10
-40,-30,8,-11,-31,-39,-45,-233,-480,43
-39,-3,34,11,21,27,13,-137,-379,5
-38,14,33,23,34,62,65,16,-209,-33
-18,9,23,4,13,17,39,74,-140,-108
5,16,30,-3,1,-21,-31,15,-139,-110
0,3,39,7,6,-18,-38,-12,-88,-73
-12,-1,43,9,-5,-9,-26,-20,-16,-61
-13,-8,15,-14,-41,-26,-40,-46,-41,-28
-1,-34,-19,-42,-83,-75,-75,-63,-71,71
16,-32,-63,-54,-91,-88,-96,-66,-28,145
41,-7,-28,-39,-73,-44,-50,-48,43,85
63,15,-9,-53,-47,0,19,-25,146,-27
55,25,-1,-58,-19,29,47,38,289,-109
22,49,54,23,47,70,41,0,206,-264
-41,34,60,69,95,86,30,-95,-15,-360
-123,-1,35,84,126,104,47,-125,-97,-307
-139,-46,-10,69,139,96,59,-101,-97,-118
-93,-51,-45,26,77,26,24,-76,-110,225
-50,-40,-60,-31,-10,-41,-7,-46,-157,317
-52,-38,-53,-25,-2,-17,40,80,-85,154
-21,4,-35,11,42,11,59,89,27,123
22,39,16,29,33,-5,50,27,56,133
5,44,26,18,-5,-36,28,-1,49,109
9,27,4,0,-27,-36,-8,-10,46,117
3,13,-77,0,-8,-7,-37,-35,15,38
-33,16,-123,24,6,28,-3,34,32,-64
-66,-3,-32,28,33,44,31,137,61,-119
-74,-27,-22,0,25,20,29,131,129,-62
-56,-38,-43,-13,44,50,29,104,195,13
-18,-4,-22,-13,70,85,65,101,206,-8
6,10,11,18,64,85,42,71,124,-61
66,34,38,1,2,38,-6,35,3,55
122,68,56,-19,-79,-37,-22,-7,-60,258
147,112,53,-5,-124,-65,-15,19,20,170
108,121,54,-5,-120,-43,39,126,113,-209
29,82,71,0,-76,-17,62,150,63,-462
-11,60,55,-3,-75,-25,25,55,-29,-239
-48,1,26,-29,-96,-55,-20,-64,-177,-12
-77,-57,-28,-54,-105,-87,-62,-122,-305,-58
-76,-66,-45,-49,-97,-91,-58,-86,-215,-99
-44,-57,-59,-25,-78,-84,-49,-44,-42,46
-16,-66,-120,-28,-75,-76,-60,-29,79,248
-36,-67,-53,-45,-74,-39,-31,2,104,268
-64,-53,-18,-7,-15,18,38,39,80,173
-68,-62,-22,21,60,29,6,5,22,172
-51,-64,-34,-8,49,-3,-56,-60,-63,172
-17,-52,-63,-30,17,-23,-64,-65,-113,-25
8,-30,-50,-24,15,-26,-49,-39,-97,-367
1,-9,-13,15,3,-29,-53,-67,-68,-527
20,9,10,66,8,-35,-89,-115,5,-213
24,-6,6,68,34,2,-58,-81,147,112
-17,15,53,98,102,108,81,16,195,89
-10,66,113,136,132,145,162,44,124,-60
7,61,86,116,116,111,106,-44,-36,-37
21,26,-12,57,103,79,50,-71,-32,185
24,1,-40,-17,46,30,14,18,91,345
-14,12,10,-19,28,10,-24,60,108,121
-34,16,24,-12,-14,-40,-40,8,68,-76
22,48,36,-23,-105,-121,-70,-23,51,-81
88,75,31,-26,-147,-167,-111,0,79,-39
80,70,11,-21,-100,-111,-38,86,86,-97
39,51,2,0,-28,-18,97,127,-2,-259
19,30,-2,-21,-22,-17,98,81,-43,-155
0,-14,-33,-56,-52,-45,-1,21,30,132
-22,-20,0,-19,-27,-23,-19,1,67,91
-36,3,21,26,42,8,-6,-36,-70,-156
-28,-11,6,20,25,-15,-31,-101,-194,-195
-2,-21,-2,-4,-5,-31,-70,-118,-120,-33
7,-12,-13,-12,-3,-12,-87,-101,-31,5
30,-17,-45,-19,29,9,-95,-123,-9,29
41,-5,0,-42,-1,-14,-118,-165,-39,50
46,-13,10,-76,-57,-25,-34,-45,-58,54
43,-43,-46,-75,-34,8,141,179,10,115
28,-63,-146,-64,-25,9,213,238,81,183
25,-67,-146,-44,-45,-32,117,150,120,202
24,-42,-43,-35,-49,-50,16,50,117,221
36,-17,15,-28,-20,-14,16,40,164,185
35,-3,15,-17,-9,3,30,61,176,43
25,-16,0,-43,-18,6,26,67,193,27
3,-32,-24,-40,-5,6,44,96,202,12
-23,-35,-5,-10,41,30,109,146,160,-86
-44,-9,-38,24,86,75,126,130,57,-160
-31,1,-92,40,75,58,43,32,-52,-124
1,19,-53,45,67,24,-5,-81,-47,56
9,36,59,34,58,18,10,-119,-34,226
-9,28,55,30,43,51,9,-152,-157,221
-21,10,29,-11,0,37,-38,-216,-247,129
5,-10,-61,-40,6,16,-52,-239,-156,146
4,-19,-41,-25,79,47,-15,-199,-53,124
-19,-9,30,-46,44,49,25,-107,-23,47
-41,-9,42,-51,-8,35,113,152,3,-28
-41,-23,24,-28,4,30,139,306,93,20
-19,-16,29,12,14,35,103,225,211,49
13,26,75,47,27,55,98,104,199,-49
59,66,100,64,36,26,63,15,106,-188
73,83,93,42,-27,-46,-30,-35,94,-194
65,70,83,22,-68,-75,-55,36,91,-121
42,46,58,24,-41,-36,-26,116,56,-102
-36,30,76,66,33,37,20,61,-97,-258
-76,51,94,93,50,74,20,-17,-269,-453
-21,50,68,61,11,21,-29,-88,-248,-275
9,33,39,33,-10,-14,-64,-149,-203,-17
34,4,19,-20,-37,-52,-90,-134,-163,139
33,-18,-14,-39,-44,-57,-74,-78,-94,150
22,-16,-37,-19,-24,-37,-42,-39,-17,107
35,-11,-69,-11,-36,-29,-52,-16,14,95
54,-4,-5,-18,-62,-29,-84,-25,20,140
51,7,2,-23,-58,-20,-77,-44,11,141
42,27,0,-20,-54,-17,-42,-20,0,101
24,45,23,-30,-59,-32,-39,27,40,53
21,32,18,-47,-63,-39,-41,18,48,-3
3,-3,-20,-61,-61,-22,-35,9,73,-13
-23,-31,-100,-11,-10,3,-43,-15,23,-75
-52,-56,-113,63,84,47,-38,-69,-117,-182
-39,-66,-36,88,152,87,-37,-101,-247,-185
-20,-47,-12,59,116,68,-30,-110,-324,-210
-26,-20,8,25,48,45,-9,-63,-213,-175
-29,-11,33,13,0,44,33,54,-10,-24
-22,1,46,24,-15,22,41,81,65,121
-13,34,58,55,-30,-21,17,88,91,74
-19,42,72,71,-40,-57,-21,84,108,1
-11,25,74,67,0,-27,-17,33,52,114
17,14,63,37,-8,-23,-5,-8,29,257
53,0,35,-6,-63,-50,0,4,79,190
55,6,18,-13,-68,-45,2,31,126,-52
31,22,14,-6,-44,-27,17,54,47,-272
9,15,0,-4,-24,-10,35,56,-43,-298
-13,-16,-23,-3,-29,-25,46,55,-40,-156
-26,-44,-14,-3,-34,-58,-14,-27,-66,32
-13,-33,1,35,-21,-62,-86,-92,-88,-30
23,-12,14,34,-18,-73,-103,-115,21,26
42,7,19,29,16,-38,-49,-76,76,107
15,20,27,61,43,12,8,-59,-70,-4
-15,3,28,67,41,20,6,-89,-239,-55
-4,-14,12,36,10,-7,-25,-119,-240,-67
6,-12,0,24,15,-7,-48,-131,-85,13
-23,-15,-10,23,47,15,-32,-77,28,51
-53,-18,-18,8,47,26,37,53,37,40
-42,-2,2,0,17,14,49,57,-29,11
-14,2,7,1,11,-3,7,-43,-84,1
25,-3,-8,-1,-19,-44,-57,-95,8,95
20,-7,-24,-28,-73,-88,-85,-73,111,152
27,-16,-35,-62,-90,-101,-49,-21,128,79
62,-9,-96,-59,-73,-80,-14,104,140,-18
57,3,-163,-47,-43,-32,47,275,113,-108
30,10,-46,-22,-1,20,75,267,51,-168
41,6,17,-9,19,30,45,133,29,-100
47,10,7,-26,17,30,6,44,-20,-10
35,19,-11,-52,9,30,10,-1,-119,-54
13,0,-18,-71,-8,12,32,-36,-204,-133
6,-39,-41,-111,-44,-20,32,-27,-154,-8
-6,-61,-74,-117,-73,-46,8,-10,-43,156
-43,-65,-47,-65,-48,-53,-36,-31,0,175
-44,-62,-32,11,20,-28,-45,-38,47,151
-31,-58,-42,44,88,-1,-36,-27,75,107
-23,-40,-18,52,104,17,6,-5,77,45
-21,-26,-14,72,99,39,10,1,72,-6
-6,-7,7,51,33,-12,-25,0,90,33
-13,4,-1,1,-10,-57,-47,5,93,81
-21,-13,-14,-31,-16,-31,-1,59,151,-7
-23,-25,-43,-33,-9,9,52,100,173,-7
-9,-41,-56,-44,-15,15,66,103,171,155
-4,-20,-29,-54,-49,-34,36,75,150,162
2,1,13,-19,-56,-82,11,34,118,-25
20,9,33,46,7,-40,44,27,147,-124
21,43,68,89,58,45,110,60,162,61
-16,39,47,96,102,93,108,12,-11,69
-48,-5,-16,13,42,45,31,-80,-208,-127
-23,-15,-16,-56,-40,-12,-9,-92,-171,-88
28,-4,-3,-27,-49,-40,-34,-85,-27,113
77,21,15,1,-30,-42,-47,-79,56,264
80,46,15,20,4,-12,-31,-46,97,183
63,53,33,53,46,41,11,-4,81,-150
51,70,74,67,70,97,64,38,-21,-445
13,39,60,26,34,79,96,81,-109,-352
-14,29,50,34,36,65,102,82,-121,-189
-9,33,48,45,55,82,73,43,-79,-96
-15,12,2,18,55,71,31,-1,-92,-24
-49,-20,-18,10,52,45,0,-21,-157,-37
-59,-24,-18,10,44,32,-35,-35,-189,-76
-48,-11,-11,10,38,53,-29,-19,-142,-104
-40,-8,-11,-14,8,27,-41,-23,-104,-87
-26,-17,-20,-29,-26,-12,-50,-31,-60,41
-9,-34,-7,-31,-23,-22,-33,-33,3,259
-5,-53,-12,-29,-25,-31,-20,-11,56,387
-28,-61,-9,-33,-49,-42,-35,-11,122,303
-45,-65,-37,-27,-41,-24,-43,-1,185,165
-22,-67,-48,-15,-2,-10,-78,-5,159,117
11,-65,-62,-16,42,-1,-96,-22,118,148
59,-21,-44,-26,20,15,-94,-39,68,163
49,6,-41,8,50,63,-31,-31,9,17
35,25,-48,42,98,97,4,-15,-67,-198
47,39,48,76,88,85,0,-22,-57,-179
25,63,85,70,19,43,3,0,58,-9
6,63,89,54,-26,0,-4,10,108,66
3,35,8,38,-24,-7,-20,43,58,-21
-12,3,-4,8,-27,-3,-3,53,-46,-291
-35,-17,-34,-49,-64,-4,15,50,-58,-435
-57,-24,-167,-66,-65,37,125,77,-43,-359
-29,-16,-173,-27,-31,67,185,66,-79,-236
-38,33,-9,56,59,123,197,33,-107,-265
-52,62,86,86,98,137,152,-30,-140,-320
-17,43,18,39,21,27,4,-153,-144,-65
-22,-12,-13,-26,-44,-64,-100,-235,-138,164
-45,-56,-3,-60,-73,-90,-99,-152,-112,165
-15,-40,-3,-71,-81,-73,-48,12,-55,168
21,-26,0,-79,-88,-66,-61,43,22,275
45,-2,9,-71,-93,-93,-110,7,110,404
68,30,30,-14,-70,-115,-89,-5,222,418
86,58,-17,61,-14,-60,-36,20,260,291
75,65,-11,71,7,-5,10,60,220,47
26,31,15,21,-32,-20,-14,27,116,-155
-27,-39,-27,-61,-91,-63,-56,-11,61,-209
-15,-65,-53,-84,-97,-32,19,103,89,-68
18,-32,-3,-47,-67,5,56,159,73,230
29,3,35,6,-38,16,30,103,51,536
31,29,70,52,13,37,21,52,52,522
7,35,79,65,52,76,26,16,-56,58
-15,35,72,73,51,63,-11,-64,-156,-340
-13,25,61,52,21,26,-67,-152,-164,-311
-9,29,59,45,26,16,-89,-200,-205,-247
-4,47,78,61,54,47,-81,-214,-207,-282
-12,45,78,71,58,47,-77,-221,-176,-288
-39,17,43,27,13,4,-34,-158,-21,-171
-24,-13,16,-22,1,-18,2,-27,116,-73
-27,-32,2,-33,-3,-25,2,116,119,-52
-27,-24,13,-32,2,-28,14,191,50,-14
-11,3,31,-26,16,-14,51,136,-54,-10
-3,0,19,-22,30,18,71,63,-176,-53
-5,-17,1,-39,35,39,80,57,-218,26
-3,-29,-24,-84,-14,5,50,56,-183,141
-27,-36,-37,-107,-70,-12,41,107,-34,126
-26,-31,-34,-76,-49,17,50,164,135,18
2,35,-67,12,28,63,69,176,180,-135
6,94,28,78,92,118,119,174,138,-372
15,103,121,77,108,125,88,115,34,-502
10,47,79,30,78,74,22,12,-34,-252
-30,-2,21,8,43,26,-31,-71,-97,21
-46,-32,-83,25,17,-20,-101,-129,-105,202
-24,-33,-36,46,14,-39,-101,-111,-48,227
-25,-11,7,38,7,-30,-67,-83,-54,134
-4,0,1,16,0,-12,-25,-64,-39,88
-9,2,-93,-15,-7,-1,10,-49,-13,96
-25,-12,-44,-24,-14,27,16,-29,33,68
-27,-22,-6,-23,-19,44,55,-17,55,15
-27,-22,-10,-13,9,36,61,-25,58,114
-15,2,0,-20,12,45,69,1,101,259
-5,3,-11,-40,3,21,47,-18,69,97
3,-11,-22,-69,-7,-2,3,-15,69,-185
-20,-11,-11,-46,-6,-13,3,22,111,-240
-48,21,47,46,54,41,50,60,118,-174
-57,40,85,111,98,62,58,28,92,3
-10,62,70,102,65,33,13,3,39,136
29,47,43,39,-24,-59,-60,-54,-69,167
46,30,35,-3,-78,-102,-116,-121,-139,162
45,16,31,2,-51,-64,-111,-104,-97,130
42,-4,3,-7,-32,-33,-80,-55,-22,99
30,-7,-69,-5,-40,-31,-51,-20,24,94
20,-6,-83,4,-48,-45,-51,-23,14,110
32,-24,-22,-11,-55,-42,-38,0,29,144
39,-23,-5,-16,-53,-39,-57,4,81,124
16,-21,18,-10,-17,-20,-62,-7,137,96
-34,-18,19,9,18,11,-33,-12,190,76
-62,-33,-10,11,67,48,-14,-3,179,63
-66,-57,-21,-11,80,46,-30,-30,87,78
-48,-63,-32,-48,22,20,-24,-60,-71,49
-31,-54,-20,-49,11,18,-21,-83,-185,-68
25,-13,-10,-50,3,15,-6,-97,-164,-156
111,43,7,-80,-98,-25,55,-14,-84,-141
134,62,22,-58,-130,-27,144,211,0,-74
100,36,42,-3,-39,20,135,255,43,-83
44,30,48,43,22,53,71,140,89,-58
-6,19,47,56,58,94,95,104,98,-66
-16,-2,32,33,38,81,108,89,7,-66
-6,-33,-8,-5,-13,-6,32,-10,-120,50
-26,-50,-26,-20,-29,-45,-49,-82,-211,87
-21,-23,0,-10,-25,-40,-18,-41,-188,-71
-11,5,26,3,-32,-38,1,-25,-165,-178
-20,-11,29,13,-5,-18,-40,-51,-175,-166
-24,-29,6,15,13,0,-47,-36,-87,-101
-14,-24,-4,9,2,0,-42,-12,10,-48
3,-34,-26,-13,-23,-12,-42,-17,20,-42
15,-40,-68,-53,-34,-19,5,1,56,-8
8,-30,-144,-55,-22,10,85,43,129,117
-39,-5,-110,-7,25,58,153,74,145,264
-64,19,-8,9,11,26,128,24,65,216
-10,36,25,-17,-47,-54,30,-88,8,141
0,25,11,-47,-67,-77,-5,-111,33,5
-27,13,7,-55,-46,-38,32,-26,52,-47
-14,8,5,-42,-27,-29,32,37,101,42
-10,12,0,-5,-23,-40,11,31,84,101
-29,10,-24,0,-31,-50,-3,26,12,63
-28,-15,-12,-11,-27,-52,-38,12,-30,0
-20,-14,26,-3,-19,-44,-47,-19,-26,-24
-18,-10,24,-6,-16,-29,-48,-38,-34,-50
-9,-2,9,-15,-12,-25,-61,-45,-92,-60
-13,0,5,-5,-10,-33,-76,-46,-95,-62
-23,-12,-19,-5,8,-26,-49,-36,-79,-64
-27,-7,-114,-5,17,-11,-35,-26,-47,-37
-27,2,-67,7,34,-19,-72,-36,-39,-25
-41,7,23,4,23,-25,-102,-37,-19,-6
-29,27,39,-7,-4,-33,-108,-35,-8,66
13,25,20,-17,-12,-31,-104,-35,-4,105
29,17,14,-23,-6,-35,-87,-35,4,65
32,23,21,-16,-26,-40,-28,-20,5,23
40,23,35,-15,-63,-44,37,-13,49,59
43,23,36,-29,-60,-27,53,-9,130,134
38,22,27,-40,-29,-8,34,-1,174,89
24,20,33,-36,-6,6,38,9,162,-1
-2,-7,16,-61,-22,8,70,88,182,1
-30,-48,-11,-74,-36,7,103,184,168,-21
-53,-55,-13,-13,1,-4,45,115,77,-77
-65,-60,-30,42,53,-3,-35,-16,2,-70
-42,-55,-27,51,62,-27,-84,-61,41,22
-7,-51,-40,33,62,-25,-86,-55,104,151
12,-37,-34,7,86,7,-5,4,135,220
42,-24,-46,-34,51,15,73,82,162,222
32,-23,-28,-52,16,13,103,131,170,127
22,21,28,0,34,22,122,153,165,-36
52,81,47,46,26,29,128,111,131,-121
26,73,56,17,0,0,79,17,0,-74
-22,33,69,-6,-4,-17,17,-63,-113,-65
-35,-4,34,-25,12,-4,-18,-84,-220,-142
-23,-16,9,-15,46,13,-18,-79,-248,-196
-23,-24,0,26,79,31,-5,-49,-200,-230
-18,-17,20,48,76,22,10,-55,-218,-371
-6,3,30,58,63,10,-18,-76,-199,-319
-8,15,32,40,35,-12,-48,-92,-120,-24
-15,-1,18,11,-17,-28,-36,-77,-51,107
-42,-17,11,8,-17,-2,17,-49,-13,-151
-72,-14,24,42,31,53,58,-36,-3,-401
-41,-16,37,66,35,77,71,6,27,-308
-8,-20,9,40,-6,26,48,94,83,-57
-2,-18,-59,41,11,34,63,154,94,22
-24,-4,-56,85,99,110,111,105,-10,-117
-46,-20,10,73,118,78,36,-24,-110,-18
-18,-23,19,21,19,-5,-80,-110,-131,176
19,-5,-65,-8,-77,-64,-121,-107,-89,211
21,-27,-65,-18,-90,-66,-127,-78,-75,94
-9,-49,-23,-37,-89,-45,-119,-67,-65,16
-6,-37,2,-15,-61,-14,-88,-45,-34,32
5,-38,8,12,-27,-1,-70,-27,-14,64
12,-22,0,4,-7,-15,-44,-9,13,146
-7,8,13,6,14,17,20,53,82,98
-15,42,54,16,40,72,81,113,100,-201
1,37,53,15,53,95,73,76,29,-135
50,8,2,-28,18,42,-4,-10,45,706
121,2,-44,-108,-102,-82,-85,-40,68,1464
95,-21,-95,-170,-190,-169,-115,-85,31,984
73,-35,-94,-156,-163,-149,-80,-106,51,262
84,-1,-25,-83,-79,-72,-15,-52,204,-48
56,41,28,1,-6,-19,25,48,290,-294
13,56,52,35,18,0,57,156,308,-586
-7,26,30,17,12,2,53,163,250,-500
7,17,21,21,33,43,65,97,159,-289
-13,-3,-7,-14,26,57,-18,-132,-296,-163
5,16,0,4,18,41,-15,-129,-284,-202
0,34,-13,30,13,30,-4,-126,-275,-226
4,19,-2,33,0,24,24,-73,-193,-152
-7,3,-48,18,6,15,21,-38,-108,-73
-21,4,-120,24,17,21,21,-42,-43,-66
-34,11,-20,31,28,38,26,-69,-28,-112
-33,25,52,36,33,37,25,-103,-41,-140
-11,20,20,25,43,38,30,2,26,-88
20,3,1,2,24,11,-11,124,112,20
40,4,-10,-12,-7,-23,-21,101,183,76
42,19,-20,-3,-15,-33,-11,44,264,114
37,33,-22,13,-17,-38,-32,29,321,154
30,14,-80,-5,-37,-46,-38,87,310,190
10,-7,-27,-7,-23,-26,-19,123,197,148
-14,-15,24,0,7,19,60,170,81,64
-17,-5,33,-10,17,53,135,190,-12,-66
-15,-2,41,-3,23,49,105,82,-203,-176
-12,-1,37,4,-5,-2,7,-47,-344,-138
-5,-3,31,-10,-96,-80,-72,-85,-334,-96
-2,0,3,-3,-95,-85,-91,-52,-256,-138
-1,-8,-44,0,-35,-28,-42,-16,-163,-135
19,-16,-17,-11,-18,-5,-21,14,-48,66
37,-2,0,-11,-12,-16,-39,6,26,276
58,12,-5,-13,-8,-14,-49,-7,38,239
53,-3,-24,-39,-15,-7,-44,17,82,18
35,-9,-36,-61,-40,-4,-2,51,110,-118
21,-3,16,-46,-41,8,7,36,38,-75
-27,9,63,8,5,66,81,25,-80,-213
-33,-7,32,-22,-24,54,111,16,-135,-254
-9,-41,-37,-74,-62,-16,18,-45,-232,-76
44,-43,-65,-76,-29,-32,-76,-85,-193,185
55,-19,-40,-35,-1,-13,-97,-63,-61,317
26,14,0,26,39,22,-51,-23,-16,229
25,24,22,66,95,83,21,28,-23,3
-18,37,49,109,124,113,54,21,-31,-238
-62,29,-43,82,89,57,10,-15,-2,-216
-89,-7,-55,38,63,40,-30,9,71,-32
-74,-21,-17,2,33,40,-24,39,186,165
-7,8,-13,-19,-8,-1,-37,18,306,330
20,21,9,-7,-20,-26,-3,39,352,342
17,21,19,24,5,-21,43,115,352,156
-1,47,44,45,41,16,84,155,210,-115
-46,46,61,65,84,66,108,130,-1,-208
-45,25,33,48,47,-2,33,13,-156,-41
-14,36,19,20,-13,-55,-11,-69,-202,-15
14,59,-43,29,-16,-45,-20,-94,-204,-92
12,59,-106,38,8,-20,-16,-105,-167,-95
-14,21,-59,35,32,-6,-20,-102,-142,-184
-29,-20,1,11,44,-8,-37,-83,-167,-254
-37,-43,3,10,50,-25,-78,-86,-146,-182
-17,-27,12,14,38,-31,-66,-77,-118,-75
-6,2,21,-11,-10,-34,-23,-22,-26,21
-24,21,26,-1,2,-3,12,55,62,14
-34,26,28,26,37,29,51,92,108,-77
-34,16,-69,20,28,31,30,80,135,-88
-33,9,-141,22,38,29,-5,23,162,9
-31,7,-40,34,58,31,-12,-34,123,47
-23,1,25,39,64,16,-35,-92,41,65
-8,3,22,46,85,20,-85,-167,-63,80
12,23,35,11,60,34,-109,-170,-65,83
8,22,-11,-33,5,0,-96,-99,-67,51
45,22,-52,-37,-48,-30,-90,-63,-88,18
80,54,19,-34,-124,-60,-9,-21,-78,-4
64,45,62,-55,-166,-66,95,63,-64,123
31,22,66,-47,-136,-36,125,90,-27,254
0,-5,46,-41,-91,-8,97,106,-24,85
-37,-34,16,-52,-87,-22,60,122,-9,-209
-29,-50,-59,-63,-98,-62,-27,89,89,-162
25,-53,-107,-79,-97,-85,-57,66,262,142
53,-35,-22,-75,-81,-80,-17,45,364,291
65,-24,14,-51,-75,-64,12,7,255,260
36,-14,26,-31,-39,-25,23,22,37,92
9,-11,42,-2,21,39,64,96,-189,-179
28,27,71,22,54,81,90,94,-316,-352
28,15,63,-1,2,40,46,5,-317,-229
4,-18,25,-10,6,45,32,-32,-268,-121
-2,-28,32,26,96,69,41,2,-187,-230
-9,-30,42,81,150,80,29,44,-89,-297
-4,-28,36,114,184,102,3,54,15,-304
0,-35,21,115,201,121,3,12,25,-360
-8,-49,4,70,159,98,-14,-89,-80,-240
-25,-40,-7,22,83,67,-29,-154,-192,37
-14,-17,-15,-7,1,-10,-52,-67,-237,291
15,-6,-12,-36,-110,-150,-135,2,-272,392
23,0,-14,-38,-150,-200,-159,-30,-200,293
9,12,-103,-15,-113,-151,-118,-26,-87,127
-1,13,-37,17,-43,-86,-61,-5,-28,6
-9,5,54,13,-13,-34,-20,8,16,-98
-16,3,57,-8,-24,-20,3,9,38,-103
-4,-1,44,-50,-44,-30,0,12,76,90
43,-1,24,-60,-51,-19,0,26,117,278
63,4,15,-44,-34,-1,-6,48,147,267
65,2,38,-26,-13,23,8,55,175,212
66,5,45,-9,13,39,48,40,180,127
38,-2,36,-1,10,30,37,-4,129,7
-8,-4,27,20,12,30,8,-54,21,-130
-13,-1,13,20,6,29,-8,-51,-34,-99
-4,-22,-26,-17,-20,0,7,-8,-1,131
-44,-18,-66,-25,5,33,93,60,76,236
-56,4,-47,-9,19,47,124,100,138,130
-11,22,24,-2,-20,0,46,45,58,4
-2,11,10,-27,-50,-33,24,19,17,-17
-17,-18,-36,-79,-56,-32,69,46,56,-60
-49,-54,-65,-99,-68,-47,73,53,46,-123
-45,-56,-85,-50,-47,-27,61,43,26,-78
-1,-8,-66,21,5,11,70,21,-2,-19
21,19,49,75,75,43,70,-26,-27,59
39,25,70,80,93,64,49,-75,-31,110
46,59,57,61,54,60,35,-65,-45,-109
28,43,0,36,40,49,28,-32,0,-202
10,33,30,16,39,59,45,-16,76,-97
-3,21,35,14,59,79,70,-5,138,-140
-9,5,-53,3,62,90,73,-8,171,-111
3,15,-123,-5,17,42,43,-13,120,2
-5,15,-38,-47,-63,-71,-60,-79,-70,38
-26,-16,-24,-73,-115,-133,-115,-113,-261,-8
-8,-28,-7,-67,-90,-97,-37,-11,-230,-72
12,-8,14,-65,-53,-36,24,-4,-142,63
-7,5,13,-52,-35,-8,0,-72,-75,227
-39,-8,5,-25,-12,-3,-28,-113,-60,105
-69,-20,24,9,14,0,-40,-149,-140,-184
-73,-43,-2,-7,-3,-32,-66,-156,-147,-129
-40,-72,-37,-47,-35,-80,-81,-68,-59,256
-6,-51,-57,-49,-32,-47,-69,36,56,483
-7,-35,-32,-30,-14,-9,-35,73,127,469
-16,-11,-47,7,9,-4,-6,93,187,281
-17,23,-41,55,48,37,37,93,186,-6
-25,18,50,74,94,97,45,14,21,-291
-33,6,66,53,107,86,9,-73,-201,-439
-38,-9,53,-10,30,41,-13,-88,-308,-510
-22,-6,15,-41,-45,-5,-32,-59,-184,-322
16,22,-12,-19,-70,-26,-25,-5,-28,-105
39,28,-46,-15,-103,-53,-5,46,96,-52
18,21,-126,-21,-96,-60,38,66,156,-144
-38,-5,-130,-8,-35,-2,70,83,160,-286
-21,-35,-93,-21,-12,30,32,58,152,-124
-20,-47,-32,-38,-4,41,36,52,124,105
-19,-43,15,-43,-5,34,51,50,135,239
22,-12,51,-44,-40,-1,21,18,121,350
62,25,89,-11,-21,5,17,20,109,296
79,48,102,-14,-7,17,17,10,88,235
101,50,90,-45,-27,-4,1,-16,55,228
67,44,99,0,1,3,-13,-32,14,64
12,30,111,67,83,54,-9,-45,-72,-213
6,11,92,68,94,41,-26,-76,-134,-325
38,-1,35,57,58,-14,-83,-121,-116,-135
41,0,-51,62,46,-38,-113,-95,-64,52
28,-4,2,31,7,-43,-97,-38,4,57
8,-19,18,10,-9,-25,-47,14,26,-92
-27,-36,-11,3,-2,4,33,79,12,-289
-15,-37,14,1,-2,32,53,129,52,-243
41,-1,58,7,-2,34,45,115,59,47
64,28,72,39,24,54,50,69,28,233
19,17,57,68,64,82,50,-6,-53,77
-15,0,57,34,43,42,14,-63,-129,-148
-24,-20,-23,-33,-21,-14,-3,-16,-124,-131
-27,-30,-49,-40,-40,-41,-34,5,-115,-46
-22,-21,-8,-42,-37,-57,-65,9,-13,13
-18,-16,-8,-39,-29,-38,-47,36,76,67
-12,1,3,-13,-9,-7,-12,42,162,66
-3,22,15,3,10,-1,-19,63,203,22
21,52,45,27,27,10,-9,79,147,-38
11,53,51,37,33,15,-9,38,32,-79
-13,31,44,39,28,8,-13,-16,-76,-82
-15,11,28,25,7,1,-36,-26,-87,-4
-1,-11,4,-3,-22,-12,-33,-26,-55,57
3,-8,-6,-11,-24,-7,0,-39,-60,150
-7,-32,-59,-26,-16,-12,-2,-78,-115,290
-16,-54,-97,-23,-48,-42,-29,-99,-144,258
-32,-50,-58,-15,-61,-45,-12,-69,-79,43
-44,-29,-45,-20,-45,-23,-15,-62,-4,-161
-30,-23,-18,-6,-21,-11,-31,-59,38,-189
-20,10,1,28,-19,-28,-35,-33,86,-83
14,38,13,27,-41,-61,-25,-4,104,107
45,42,29,21,-59,-75,-29,-14,81,204
39,57,51,38,-36,-54,-20,-19,138,184
48,61,33,55,-2,-32,5,70,241,158
43,65,21,49,28,4,31,174,279,32
-16,49,43,65,95,95,65,145,173,-249
-75,29,38,89,148,128,114,85,-36,-405
-96,-26,1,63,127,94,120,33,-208,-250
-69,-65,-77,20,111,52,38,-35,-300,16
-60,-85,-75,-11,77,42,-31,-88,-334,0
-74,-82,-29,-12,54,72,-32,-51,-267,-106
-79,-63,-24,25,101,110,9,17,-146,1
-82,-68,-55,53,146,125,36,57,-15,134
-73,-49,-106,0,63,69,14,85,105,-10
-34,-24,-99,-95,-98,1,-24,78,153,-195
20,-27,-98,-90,-122,-43,-72,35,170,72
65,-28,-110,-42,-87,-80,-106,26,176,315
123,45,48,-7,-113,-124,-74,53,145,346
137,101,110,7,-116,-137,-7,59,0,186
107,104,89,4,-79,-72,12,43,-119,36
107,116,100,12,-59,-42,-11,16,-94,28
103,133,115,35,-20,-9,1,13,-57,-66
71,126,118,27,0,6,23,12,-70,-128
64,65,62,-24,-61,-51,-39,-46,-35,113
62,22,4,-48,-93,-95,-94,-61,47,268
18,0,20,-15,-43,-68,-58,-6,76,131
-22,-17,27,-2,-2,-17,35,63,64,-17
-57,-6,40,26,29,36,101,80,-16,-167
-63,17,49,52,51,63,107,45,-78,-247
-19,19,31,19,15,7,27,-9,-75,-159
17,-1,-15,-32,-41,-54,-38,-9,-23,-15
17,-21,-129,-54,-64,-50,-27,26,44,67
27,-26,-128,-42,-48,-15,-22,7,30,87
43,-20,-47,-34,-43,-8,-14,-31,-38,83
25,-17,-13,-39,-41,-19,-7,-44,-80,48
-28,-16,-45,-7,8,0,30,-44,-38,-10
-55,-4,-20,41,54,22,49,-39,53,-70
-48,2,40,29,40,24,27,-16,148,-50
-31,-16,-6,0,16,2,22,31,218,-30
-29,-34,-94,-2,10,-3,54,107,256,-54
-24,-34,-57,1,14,5,81,182,258,-116
16,-4,-2,10,12,-2,60,142,172,-99
64,8,-90,-32,-7,-29,11,45,111,231
73,6,-33,-64,-29,-52,-31,-11,117,662
35,2,26,-57,-44,-54,-49,-58,43,686
-12,-20,22,-46,-42,-54,-43,-95,-70,212
-59,-54,-10,-33,-12,-17,7,-62,-38,-351
-77,-49,-58,5,26,4,51,-47,-132,-642
-66,-35,-43,4,49,18,42,-77,-302,-499
-44,-33,21,9,71,49,-18,-141,-364,-243
-35,-7,-42,38,82,35,-39,-134,-303,-134
-37,-10,-46,47,47,-12,-70,-44,-223,-125
-38,-26,-1,32,29,-19,-61,-4,-172,-132
-35,-39,-18,-3,28,-4,-47,-15,-140,-130
-18,-43,18,-5,50,36,-16,9,-88,-106
5,-16,-42,-21,41,27,1,48,-20,-18
25,19,-101,-54,-8,-2,2,103,50,128
36,41,-15,-52,-2,16,16,94,48,143
52,44,71,-21,-2,6,0,30,53,70
44,24,44,-12,-30,-38,-49,-25,69,79
7,-4,13,-25,-25,-40,-64,-33,69,84
-26,-21,18,-27,-19,-16,-56,-7,64,29
-42,-17,19,-10,-5,-12,-59,-3,90,12
-16,-1,19,-8,-20,-12,-54,-2,136,86
0,4,39,15,-23,-10,-21,-12,119,88
2,27,39,32,-5,-4,18,1,9,8
-10,2,21,9,-16,-21,44,25,-47,-53
-22,4,12,0,-26,-46,9,-49,-93,-6
20,32,38,22,-13,-46,-29,-120,-190,46
33,25,44,24,1,-40,-72,-134,-199,90
29,38,39,14,-4,-15,-32,-88,-149,65
26,39,10,-5,-15,3,15,5,-49,-32
39,24,-2,2,-6,14,45,88,45,-129
49,7,29,20,-12,-5,9,51,85,-77
15,-18,14,17,-9,-16,-30,-11,68,5
-35,-25,-23,33,9,9,-21,-28,66,-46
-58,-7,-12,51,55,56,33,-38,0,-187
-52,-14,-1,32,61,52,67,21,-75,-217
-51,-14,-72,-6,29,43,74,93,-71,-124
-31,-11,-165,-15,29,60,66,94,19,10
17,-4,-111,-10,12,72,88,81,92,139
42,16,20,13,-2,39,119,116,145,305
42,37,72,41,25,32,112,144,169,391
21,50,91,68,32,17,79,111,159,104
-17,43,69,71,6,-5,48,83,139,-379
-21,28,51,56,-8,-3,32,49,106,-484
8,32,36,27,-29,-23,-5,-18,46,-122
38,17,25,6,-46,-39,-61,-55,33,161
44,33,32,2,-44,-46,-92,-71,18,147
36,25,22,-10,-48,-56,-112,-99,-36,85
24,-2,0,-30,-52,-62,-126,-123,-104,6
6,-41,-13,-47,-50,-70,-146,-156,-185,-91
2,-46,-10,-34,-39,-69,-139,-159,-211,-113
7,-43,-5,-26,-35,-40,-96,-123,-122,23
1,-32,-3,-16,-7,-5,-47,-63,2,157
-13,-28,-20,7,32,17,-10,-36,60,198
-23,-23,3,23,37,33,-6,-28,73,118
-37,-36,2,21,20,30,-12,-29,45,-7
-59,-40,0,17,16,20,40,31,22,-136
-51,-28,0,10,28,8,79,61,-6,-173
-10,-28,-11,0,24,4,86,119,22,-33
33,-26,-13,-23,20,2,65,184,113,107
59,-20,-39,-28,14,2,26,159,186,138
26,-11,-11,-15,28,9,9,88,184,88
4,-22,-11,3,73,40,18,70,175,30
0,-11,12,39,97,66,33,71,132,7
-27,1,26,70,63,46,6,5,-69,-59
-76,-20,-1,56,25,9,-33,-54,-270,-113
-81,-35,-19,22,32,6,-50,-63,-265,-97
-39,-24,-43,-15,14,9,-26,-25,-79,84
-17,-7,-40,-28,-12,1,-7,2,-2,187
-29,0,-34,-11,-25,-4,-10,0,-11,270
-43,-14,-81,-38,-55,-30,-27,-47,-22,445
-54,-58,-141,-101,-140,-117,-97,-135,-33,524
5,-53,-122,-135,-198,-170,-135,-149,13,473
77,2,-58,-103,-153,-123,-112,-97,61,443
104,45,2,-38,-61,-26,-33,-22,140,470
42,74,41,68,74,117,119,96,151,11
-49,92,120,153,175,203,169,94,-1,-714
-81,83,142,161,154,161,101,-5,-108,-768
-69,46,74,128,132,106,41,-41,-115,-488
-64,23,52,126,140,72,5,-83,-138,-334
-61,13,34,75,104,63,25,-70,-112,-259
-65,-14,-12,18,103,63,45,-17,-63,-218
-56,-11,-39,-2,84,37,46,-13,-35,-152
-49,-7,-77,26,82,37,42,-16,19,-105
-39,6,2,55,44,1,14,-12,109,-50
-15,19,30,23,-30,-65,6,18,229,-1
-17,3,3,-17,-57,-79,27,55,258,28
-18,-10,-48,-82,-107,-87,14,116,231,44
-19,-11,-128,-99,-124,-66,33,172,170,21
-10,8,-99,-43,-58,-11,48,148,43,-44
34,33,9,-26,-30,-9,-1,34,-121,0
79,63,2,-9,-32,-27,-45,-37,-158,116
103,55,38,0,-23,-19,-54,-34,-41,235
75,56,104,8,3,13,-1,-12,-32,145
29,43,108,15,18,26,22,-41,-184,-85
10,8,70,-18,-1,9,-9,-97,-298,-138
11,-15,47,-27,-10,-14,-32,-121,-277,-90
1,-23,31,-9,6,-28,-39,-123,-238,-108
-20,-37,19,15,19,-26,-73,-113,-213,-158
-44,-44,6,4,28,-19,-89,-76,-159,-207
-46,-42,1,-22,20,-18,-66,-18,-76,-197
-12,-34,-53,-37,-11,-10,-30,27,19,-102
0,-34,-50,-30,5,27,32,82,112,48
0,-23,-24,-26,30,49,74,131,193,114
3,-9,-21,-12,23,19,68,135,200,140
9,-14,-42,-6,24,3,49,110,169,174
22,14,-10,15,-12,1,30,78,104,91
38,69,116,27,-60,-25,0,42,26,-44
27,76,115,33,-45,-30,-24,-20,-46,-158
0,17,46,-12,-49,-41,-90,-101,-85,-75
19,-3,25,-30,-64,-46,-120,-132,-37,81
65,28,33,3,-38,-14,-86,-109,2,162
67,44,37,12,-10,6,-48,-77,57,454
19,34,46,9,-18,-19,-56,-63,32,609
-32,19,51,5,-21,-45,-50,-16,-44,156
-62,-20,30,-18,-17,-37,0,14,-76,-477
-61,-35,0,-41,-25,-41,9,-25,-81,-531
-9,-34,-21,-76,-51,-62,-4,-57,-27,-160
19,-29,-21,-81,-31,-24,56,-8,61,0
16,-8,-14,-55,-1,20,127,86,165,52
-14,-8,-55,-47,12,39,135,137,293,255
-62,-17,-92,-25,34,64,118,125,313,276
-62,7,13,15,68,88,108,77,250,89
-19,36,48,30,75,98,122,34,136,-17
0,38,34,36,109,104,117,-2,17,4
-13,30,16,11,96,89,67,-24,-100,52
-17,20,12,-21,31,17,-5,-48,-217,-39
2,10,-27,-31,7,-6,9,-46,-182,-41
17,22,-20,1,0,-8,4,20,-75,5
-3,11,36,31,8,-12,-41,26,-76,-12
0,4,35,40,30,0,-37,-7,-93,-23
13,5,13,40,37,25,-23,-5,-72,42
24,26,8,39,44,44,1,4,-55,96
9,25,16,36,35,44,9,-3,-53,133
4,0,3,-1,0,19,3,-4,-42,144
-11,-16,-35,-22,-6,9,5,-8,-59,-6
-27,-37,-71,-21,-3,17,-14,-28,-110,-239
-20,-44,-34,-33,-7,26,-5,-22,-117,-328
-10,-41,-33,-55,-12,22,4,17,-67,-183
-2,-32,-33,-51,2,33,8,33,-10,-43
19,-24,-15,-24,40,46,18,13,34,69
37,-18,-27,-15,48,47,2,8,90,89
41,-19,-32,-12,42,42,-20,5,158,96
39,-18,-26,2,37,31,-28,11,153,83
48,-7,-9,21,16,14,-13,14,120,20
73,6,-26,25,-17,-15,-19,-6,99,133
83,10,-11,12,-36,-23,0,4,71,207
48,54,-14,42,-33,-5,18,-12,-9,-101
35,69,-34,27,-57,-34,-20,-80,-72,-326
17,45,26,7,-67,-68,-52,-117,-61,-171
6,46,53,3,-51,-55,-35,-96,9,-28
-18,24,40,7,-26,-11,-9,-70,102,-1
-41,7,30,0,-25,8,-22,-85,163,42
-42,-9,18,2,-17,12,-23,-76,212,4
-62,-24,-4,18,-2,23,7,71,259,-116
-36,-22,-36,65,36,36,34,231,210,-176
0,13,-57,92,66,51,48,183,18,-214
-15,40,22,90,57,59,85,109,-215,-308
-38,13,30,59,37,34,48,32,-268,-173
-4,11,29,26,10,5,-39,-44,-166,72
-10,-3,27,27,-4,2,-39,-66,-129,95
-47,-31,-6,30,6,5,15,-49,-128,25
-48,-35,10,34,27,17,42,-46,-119,-61
-15,-17,24,11,2,-1,-10,-80,-90,43
-4,0,-35,-16,-25,-33,-64,-127,-25,210
-25,15,-58,-14,-14,-29,-42,-132,37,195
-51,3,-53,-13,0,6,-19,-89,64,117
-47,-21,-33,-24,-21,-1,-9,1,91,143
-20,-11,14,-45,-42,-19,-12,79,113,147
-7,-17,7,-44,-36,-15,-13,73,72,83
-11,-28,12,-29,-38,-33,-18,55,1,35
17,-27,14,-17,-32,-50,-57,21,-48,-4
54,-35,-1,-17,-27,-43,-78,-16,-44,44
65,-38,-97,-40,-25,-21,-25,22,47,137
63,-49,-200,-66,-30,0,32,94,145,190
73,-48,-195,-61,-11,17,54,109,191,214
59,-35,-88,-60,-23,4,54,112,245,236
38,-30,-18,-45,-12,30,86,124,214,187
33,-9,32,-10,1,28,74,66,49,82
32,4,54,0,-4,-9,23,-45,-138,21
8,-24,23,-5,-9,-13,10,-103,-209,51
-9,-18,14,15,-5,11,13,-104,-203,-3
12,20,73,43,-22,-9,-4,-135,-294,-167
0,30,90,65,-16,-23,-9,-117,-313,-286
-41,6,66,71,18,0,-1,-38,-245,-321
-74,-9,43,57,62,42,5,38,-181,-314
-50,9,24,17,70,53,14,37,-134,-319
-7,22,23,5,41,17,-37,-10,-66,-223
-15,-15,7,9,54,21,-49,-22,-21,-118
-15,-29,-3,18,75,36,-19,28,60,-54
19,-12,2,8,48,29,25,119,234,47
54,27,25,0,15,3,38,164,338,236
53,59,50,14,-5,-15,-1,145,343,364
38,55,58,26,11,-15,-2,113,280,152
-5,57,47,22,10,-17,12,59,7,-302
-22,51,14,1,-17,-39,-3,-33,-269,-450
-9,12,-8,-17,-35,-60,-76,-116,-368,-207
8,-4,-1,0,-15,-59,-84,-134,-303,26
22,-12,-18,-6,11,-45,-64,-85,-154,142
13,-29,-49,-40,-5,-61,-57,-59,-54,57
-28,-36,-25,-5,31,-30,-34,-30,10,-182
-47,-23,-26,36,58,11,33,64,96,-360
-79,-12,-11,58,93,77,100,149,116,-401
-99,-3,5,68,103,114,105,105,82,-208
-50,-26,-6,45,48,60,25,-23,88,243
17,-33,-68,8,5,-7,-36,-98,133,476
88,-28,-119,-41,-91,-100,-82,-76,171,627
116,-10,-156,-81,-161,-155,-62,-5,105,551
83,23,-90,-35,-115,-112,-13,-19,-24,211
34,29,40,10,-52,-51,16,-62,-134,-70
9,8,51,-5,-39,-34,34,-19,-90,-52
1,-2,56,16,3,14,47,12,-28,-30
-20,2,82,45,54,64,55,11,-50,-107
-36,-3,69,7,31,67,72,24,-56,-101
-33,-9,50,-22,23,52,65,20,-46,-103
-36,-2,38,-33,24,28,41,35,-10,-114
-16,-11,21,-41,2,12,-7,35,19,-57
15,-14,-48,-59,-38,16,-25,30,43,-7
31,-4,-134,-53,-71,-12,-38,40,41,-24
61,23,-50,-50,-128,-72,-46,45,80,77
62,31,42,-44,-126,-84,-62,50,140,299
34,9,52,-19,-54,-46,-72,54,166,272
0,-18,42,18,-6,-33,-72,25,158,-16
-24,-24,38,57,-16,-20,-55,19,103,-252
-13,-21,33,63,-37,-31,-54,18,11,-202
8,-36,2,17,-68,-55,-71,-2,-43,-27
13,-57,-5,-4,-63,-66,-79,-42,-45,147
12,-52,-13,5,-19,-45,-87,-104,-128,156
38,-64,-20,-19,-23,-43,-106,-148,-191,179
44,-78,-50,-57,-52,-54,-110,-143,-106,200
46,-63,-47,-61,-29,-21,-37,-50,69,65
29,-29,-16,-21,34,82,88,38,152,-120
33,23,5,14,63,125,149,75,117,-221
12,49,61,46,35,93,118,42,47,-257
-41,36,102,92,15,45,70,9,-6,-240
-70,24,83,106,13,20,48,8,-32,-220
-69,11,62,89,14,-3,0,-22,-130,-121
-72,-10,15,58,-4,-28,-70,-81,-205,44
-74,-29,-12,2,-29,-42,-97,-112,-216,72
-61,-28,-10,-13,-26,-18,-89,-110,-119,71
-54,-14,10,9,12,16,-58,-101,-72,-6
-35,-6,15,17,33,15,-26,-116,-77,-86
-25,-2,8,25,40,4,-12,-114,-51,-91
-30,6,-31,17,47,-6,16,-89,-26,-56
-19,8,-40,1,32,-3,45,-5,7,-42
1,18,-4,-3,8,20,75,100,37,-13
36,29,0,14,-8,21,70,97,71,30
49,49,19,3,-37,-8,36,52,97,2
28,42,30,7,-27,-13,-9,22,49,-103
-4,36,39,14,-32,-11,-17,17,5,-157
6,31,29,-2,-41,-41,-34,26,31,-69
25,34,17,-18,-38,-50,-24,29,69,63
34,42,35,-23,-28,-21,14,33,61,53
51,29,25,-26,-32,-9,-30,4,41,137
47,-5,-28,-28,-30,-24,-76,-36,78,413
46,-25,-89,-13,-7,-14,-36,-4,149,499
11,-32,-53,-8,19,16,68,37,173,268
-29,-51,-28,-2,31,20,124,48,168,19
-25,-33,-26,1,6,4,118,66,209,7
-3,6,0,25,20,20,133,105,224,12
16,44,-2,47,58,51,143,110,123,-99
2,34,-26,29,70,64,116,75,-33,-148
7,2,-51,-30,5,5,7,30,-34,19
15,-17,-30,-58,-40,-53,-81,7,103,272
25,6,-34,-36,-79,-78,-102,-5,156,288
13,8,36,-37,-72,-57,-69,-16,68,101
-12,3,40,-45,-36,-20,-35,-40,-60,-69
-44,-9,-11,-20,8,-15,-58,-84,-236,-181
-44,-7,-26,4,27,-13,-74,-101,-287,-246
-21,13,41,36,38,5,-73,-96,-218,-249
-11,0,32,30,24,18,-26,-45,-111,-169
-32,-25,-6,0,13,41,17,52,-49,-148
-48,-30,8,16,29,77,42,70,-85,-213
-58,-42,9,8,31,77,26,34,-82,-219
-34,-68,-9,-19,33,51,-18,11,22,-90
-11,-50,-21,29,117,70,-7,-15,68,-22
-7,-3,45,51,121,64,-31,-98,-71,-109
4,-3,72,32,80,29,-96,-248,-270,-152
4,-35,14,-16,46,-5,-146,-298,-275,29
18,-34,-25,-48,-18,-39,-114,-163,-90,214
51,12,31,-6,-74,-69,-26,10,1,134
66,35,73,1,-116,-95,83,153,0,-13
61,42,54,-9,-103,-111,78,126,-64,-6
78,41,33,0,-75,-105,-37,10,-104,101
71,17,-86,-7,-50,-110,-75,-34,-102,81
56,25,-100,3,-20,-55,-27,-8,-102,15
45,24,-7,7,0,-5,20,18,-112,113
28,11,23,8,-2,-10,32,5,-91,281
23,8,5,-2,-21,-41,23,-29,-43,215
16,-2,-75,-23,-39,-75,-33,-41,4,-35
10,-14,-74,-41,-18,-42,-43,-36,56,-111
25,-6,-113,-36,-4,1,-17,0,131,-29
31,8,-87,-29,-5,18,7,48,166,24
7,6,-83,-6,21,56,28,67,151,29
0,-4,-16,5,66,98,40,54,105,-36
-2,-22,27,-11,48,75,14,33,97,73
-37,-51,1,-34,19,14,-13,36,162,265
-39,-53,-26,-39,8,-7,-14,72,278,349
29,-45,-29,-62,-8,-17,5,96,375,383
78,-31,-36,-82,-59,-63,-13,94,458,331
78,8,31,-47,-87,-54,19,109,448,124
37,51,90,10,-73,-28,48,90,178,-251
-39,65,141,87,-20,-2,43,-10,-213,-634
-82,43,141,139,50,57,57,-70,-310,-613
-63,27,101,125,62,63,48,-74,-189,-315
-51,18,69,99,71,65,55,-87,-140,-200
-47,17,60,55,59,63,69,-36,-115,-195
-23,-11,18,-13,7,27,69,106,-40,-80
23,-23,-9,-46,-40,6,15,147,91,238
41,18,33,-17,-20,39,28,116,109,337
27,66,96,51,28,67,59,76,-57,24
11,23,34,12,-30,-32,-24,2,-191,-30
-17,-51,-36,-64,-93,-119,-123,-48,-240,43
-2,-38,-30,-57,-66,-90,-97,-10,-131,82
27,2,12,7,-17,-45,-52,2,-84,69
40,20,46,45,36,-12,-35,-38,-144,81
53,2,6,18,29,-30,-62,-58,-176,213
48,-21,-4,-32,-27,-62,-80,-34,-152,191
8,-42,-30,-73,-45,-72,-85,-34,-101,-22
12,-60,-47,-88,-78,-91,-98,-12,31,91
30,-60,-65,-87,-56,-43,-69,23,177,374
-2,-42,-41,-49,42,73,9,41,250,307
-70,-23,-12,26,127,168,112,90,258,-28
-79,4,33,51,136,194,187,147,282,-198
-58,17,7,55,108,157,169,99,49,-303
-52,21,12,46,58,81,91,-29,-342,-421
-32,12,38,19,-22,-28,0,-126,-541,-426
6,18,32,6,-25,-70,-28,-130,-453,-310
8,9,-5,0,18,-30,-25,-85,-253,-135
14,3,-21,-27,9,-19,-11,-50,-85,57
16,-3,-44,-43,33,-8,-18,-21,37,160
19,-30,-59,-65,36,-4,-27,15,158,260
0,-44,-75,-56,26,1,-7,44,202,279
-25,-31,-35,-21,33,9,-4,55,153,124
-45,-26,0,20,93,68,47,68,85,-162
-69,-5,34,51,119,107,83,75,91,-469
-54,16,45,41,97,88,81,86,145,-534
-16,21,45,25,49,56,55,99,231,-290
16,27,48,6,-63,-23,22,100,295,-120
29,47,50,4,-102,-47,42,77,195,-49
-7,21,35,-24,-77,-28,-22,-29,-38,109
-30,13,37,-23,-74,-56,-125,-151,-264,107
-16,25,41,-10,-53,-55,-129,-200,-376,-32
12,25,5,-12,-22,-29,-124,-210,-373,-40
30,8,-43,-26,-9,-20,-107,-170,-277,57
31,2,-97,-48,-28,-26,-100,-98,-143,121
17,-4,-104,-50,-40,-24,-51,-27,-42,131
-14,-19,-37,-32,-21,-8,7,-8,8,117
-45,-25,-7,-30,-8,3,-6,-26,-15,52
-49,-30,-3,-33,-8,8,-11,13,-20,7
-47,-44,-16,-36,7,11,2,61,-11,-16
-39,-53,-19,-54,2,-4,-1,29,3,-36
-30,-45,-21,-65,-22,-4,32,66,61,-46
1,-38,-2,-49,-35,-25,33,155,84,-33
18,-49,-63,-65,-62,-79,-33,122,142,32
6,-51,-85,-63,-62,-91,-64,69,231,100
43,10,-13,-22,-10,-17,-19,93,319,206
91,75,80,11,29,39,12,109,341,467
117,85,89,26,17,30,8,73,262,736
114,49,43,8,-27,-24,-26,27,123,620
26,-13,14,-8,-38,-30,-36,28,-32,88
-57,-50,5,15,-14,-18,-35,21,-182,-345
-27,-29,15,38,-1,-19,-57,-17,-197,-359
21,-2,22,31,5,-14,-53,-44,-172,-262
31,7,4,8,17,-5,-37,-20,-76,-68
19,0,-2,8,27,17,9,25,49,61
-14,-12,-9,0,23,23,19,17,73,5
-23,-37,-36,-20,8,20,-5,-2,113,-9
-2,-36,-39,-18,-11,38,42,62,196,-29
2,-3,-3,-8,-15,69,91,110,171,-112
11,-6,-9,1,12,58,70,72,27,-157
14,-1,2,28,53,61,42,9,-43,-139
8,41,59,75,85,77,26,-34,-52,-152
-18,48,66,90,56,37,-32,-120,-128,-183
-29,28,27,64,11,-5,-46,-122,-165,-196
-29,26,-2,33,5,9,-19,-107,-214,-214
-37,9,-19,-5,-7,-7,-62,-196,-297,-25
-8,0,-18,-34,-43,-30,-61,-203,-270,190
25,27,-7,-26,-55,-20,-39,-123,-121,285
26,15,-23,-20,-40,-9,12,-38,2,211
28,11,-4,13,-1,0,88,41,113,145
26,33,20,47,13,7,116,86,189,81
19,31,29,69,14,7,91,72,167,-36
37,17,23,49,-17,-32,33,28,152,37
32,-7,-16,-13,-42,-45,8,63,211,233
-3,-39,-53,-32,-1,-6,47,134,231,279
-14,-32,-50,-26,-4,-24,13,83,166,257
0,-9,-29,-1,14,-46,-38,-18,84,149
-39,-28,-106,63,106,0,-26,-31,28,21
-69,-32,-115,67,106,22,48,56,13,0
-40,-4,-44,21,19,26,100,143,-3,-65
-5,17,2,-6,-56,-15,48,93,-98,-344
33,9,-34,-49,-103,-88,-41,-1,-95,-226
45,5,-4,-49,-52,-63,-33,29,-5,-21
32,48,54,15,26,14,30,110,79,-113
-2,60,78,65,40,29,56,110,90,-128
-29,53,64,48,9,-4,29,46,66,58
0,25,28,-29,-36,-36,-23,-21,35,309
12,-5,-6,-58,-56,-39,-65,-61,-78,303
0,9,17,-24,-16,7,-42,-37,-200,-75
1,52,61,18,24,29,-20,-33,-211,-352
-18,51,67,23,44,21,-27,-49,-122,-372
-72,13,-27,22,57,30,-39,-57,-58,-402
-90,2,-110,16,50,29,-46,-70,-80,-298
-101,-38,-60,-19,17,-11,-56,-83,-119,-24
-108,-59,-56,-38,-12,-26,-44,-74,-165,9
-69,-29,-54,-58,-33,-6,2,-13,-73,-39
-9,-7,-36,-93,-69,-28,-3,1,29,116
25,9,-39,-60,-55,-62,-46,-31,67,241
44,51,-23,9,-17,-39,-25,-23,35,82
41,59,57,43,-13,-11,-9,-25,-43,-49
28,27,35,35,-26,-8,15,-39,-43,0
-2,0,-5,6,-9,4,63,-53,0,62
-15,-13,-18,0,37,21,59,-65,-12,59
-12,-23,-25,11,96,40,76,-39,-10,31
21,-10,-6,-13,68,49,121,28,63,-26
57,36,23,-34,-21,11,123,70,75,-127
93,70,-4,-20,-73,-67,61,51,65,-83
104,74,32,-14,-68,-85,-1,29,140,77
84,76,35,-14,-31,-65,-14,-4,156,117
36,47,-80,-21,-12,-36,-2,-21,100,117
-20,24,-89,-25,-23,-6,15,11,62,99
-28,13,8,-28,-22,5,29,33,29,63
3,21,37,-42,-17,13,25,5,38,71
32,20,23,-33,-28,-11,-8,-19,48,150
14,4,-33,-12,-19,-13,-13,-28,30,188
-8,7,16,10,31,24,6,-14,22,202
-25,15,44,21,57,52,40,1,46,107
-22,0,39,18,50,71,50,24,54,-159
-29,-7,24,11,22,29,20,-20,-100,-362
-34,-41,-55,-44,-26,-42,-66,-115,-233,-235
-35,-66,-128,-67,-49,-80,-101,-133,-214,-67
-11,-55,-102,-29,-6,-46,-82,-91,-118,10
-15,-40,-19,-6,42,1,-48,-55,-39,42
-13,-15,3,-3,41,13,0,-31,53,112
-2,-5,9,-11,9,46,64,10,154,232
0,18,33,0,-18,48,90,37,131,181
19,33,-32,-15,-68,18,82,56,108,99
62,7,-149,-100,-167,-44,36,77,139,159
86,3,-70,-122,-165,-59,-9,74,126,151
93,30,42,-58,-70,-48,-4,85,180,68
70,66,100,49,34,5,59,123,269,-47
17,97,121,136,117,46,82,96,237,-101
-25,82,80,135,100,27,56,36,108,83
-56,34,92,97,63,3,48,0,-56,101
-46,35,54,61,30,-15,27,-40,-227,-70
-46,18,35,15,-28,-43,-20,-82,-296,-120
-47,7,39,-14,-49,-46,-62,-104,-230,-25
-37,-7,15,-12,-28,-34,-62,-89,-119,79
-38,-29,-56,-25,1,-4,-1,-26,-47,85
-56,-34,-85,-29,17,22,42,35,4,-29
-67,-33,-6,-10,40,68,62,63,12,-180
-63,-43,-6,5,104,144,81,49,16,-230
-46,-35,-1,10,144,161,119,50,72,-161
7,13,9,9,72,76,94,49,131,-44
84,33,12,-54,-111,-101,-44,-29,109,169
117,25,-62,-72,-152,-163,-147,-79,120,497
109,23,0,-33,-112,-128,-124,-59,154,776
108,46,70,15,-60,-77,-59,-75,154,637
101,58,100,29,-17,-45,10,-45,145,142
50,61,134,57,45,28,78,74,22,-503
-13,68,154,88,89,106,115,142,-189,-889
-25,63,139,59,61,81,58,72,-224,-748
0,41,92,14,0,1,-19,-15,-149,-377
-8,1,47,-13,-33,-34,-57,-77,-152,-202
-42,-53,23,-23,-6,-24,-78,-130,-183,-194
-62,-76,-10,-41,17,-34,-97,-155,-149,-143
-30,-71,-29,-51,-2,-52,-109,-165,-121,-68
-2,-70,-101,-37,-24,-64,-97,-147,-137,-37
-19,-49,-136,-18,-12,-43,-68,-44,-159,-124
-30,-53,-102,-29,-23,-39,-50,107,-135,-107
-32,-70,-32,-36,-24,-33,-29,172,-53,42
-29,-54,-69,-14,1,-24,-1,149,50,105
-11,-34,-95,-14,-1,-34,-12,89,94,164
29,-29,-16,-35,-28,-59,-40,-12,112,328
48,-39,6,-46,-50,-82,-83,-76,116,439
15,-37,19,-10,-8,-43,-70,-81,0,150
-9,-28,16,-19,-14,-45,-42,-41,-133,-143
-12,-27,12,-26,-29,-51,-17,63,-108,-122
5,-3,54,25,2,-4,12,108,-32,-104
-15,33,104,90,55,52,67,116,-3,-157
-50,22,90,108,107,73,87,40,-59,-158
-42,-17,24,60,98,36,20,-51,-123,19
-21,-36,-51,-2,32,-23,-42,-78,-81,217
-49,-48,-66,13,7,-44,-34,-15,31,227
-36,-55,-26,15,4,-17,-1,62,95,130
-9,-48,4,1,-4,-14,11,86,137,36
-21,-58,12,14,54,36,82,141,189,-136
-24,-13,30,39,107,111,126,159,180,-323
-3,18,-33,38,61,60,60,67,134,-187
8,17,-31,10,16,-4,-22,-29,65,98
9,-7,14,-14,13,-10,-57,-54,-38,255
19,-11,-3,-36,-23,-17,-35,-40,-88,227
36,18,-43,-16,-64,-27,3,13,-29,172
24,59,30,-5,-87,-38,13,45,-4,169
8,37,49,-3,-43,-28,-10,2,-50,39
1,30,41,-47,-68,-38,-28,-23,-17,-198
-21,36,41,-79,-107,-44,-23,11,92,-351
-40,26,20,-29,-35,-7,15,56,177,-305
-64,20,18,16,12,30,21,59,265,-253
-50,35,51,54,27,21,-27,0,251,-170
6,46,61,42,16,6,-40,-44,163,10
-5,14,25,4,-2,-19,-52,-86,-10,135
-68,-16,-1,-2,-2,-9,-27,-72,-234,-29
-122,-41,-74,-31,-9,4,57,0,-289,-164
-107,-56,-117,-61,-34,-3,85,25,-267,-141
-70,-57,-50,-45,-23,-2,-4,-37,-271,-55
-41,-37,-20,-6,6,12,-66,-86,-241,-16
-38,-44,-10,0,51,52,-49,-87,-163,14
-11,-30,-8,9,106,85,-11,-64,-108,89
4,-6,-9,21,76,90,4,-17,-88,67
5,8,9,23,54,81,19,17,-87,-29
22,8,3,-10,28,49,2,15,-87,-5
51,9,-19,-42,-30,-14,-16,16,26,168
71,17,-7,-38,-71,-54,-27,53,183,252
99,18,-18,-42,-86,-65,-35,58,224,249
76,-3,-17,-34,-30,-17,4,69,176,214
35,6,9,24,22,1,15,39,48,118
26,39,53,78,28,-27,-35,-45,-110,-26
22,4,18,40,7,-62,-78,-79,-161,-117
1,-45,-52,4,-37,-108,-120,-82,-103,-90
13,-33,-44,-3,-42,-79,-81,-39,-12,-49
35,-8,-12,0,-36,-33,-1,16,83,27
60,1,7,-11,-24,-12,71,73,223,150
78,1,-17,-22,-32,-19,66,96,349,303
78,-1,-15,-28,-45,-20,51,126,501,468
81,34,2,-11,0,24,104,185,576,405
64,55,-4,24,71,83,156,200,479,114
6,48,-12,49,72,79,136,164,197,-224
-30,51,70,71,61,56,84,59,-157,-484
-53,43,68,104,83,65,30,-78,-354,-443
-73,17,4,81,67,4,-62,-220,-483,-279
-76,-8,54,67,68,-39,-108,-286,-501,-174
-67,-19,32,33,44,-37,-141,-295,-488,-96
-73,-40,1,-15,-9,-70,-149,-237,-455,-30
-90,-66,-33,-27,-20,-57,-87,-106,-316,52
-92,-58,-33,-26,-25,-36,-68,-82,-195,81
-60,-28,-9,-5,-13,-44,-74,-94,-71,59
-22,-18,1,-1,15,-3,-28,-48,40,21
12,-12,-5,7,0,22,62,15,128,-15
29,13,-1,19,-52,10,128,56,171,-104
21,35,-38,2,-79,6,120,72,182,-142
8,6,-20,-23,-77,-8,72,68,131,-35
8,-2,-10,-38,-82,-25,37,58,25,18
46,22,-15,-50,-112,-83,-14,25,-24,22
73,8,-144,-85,-135,-116,-77,-26,-84,24
52,-31,-171,-104,-122,-132,-114,-92,-114,5
46,-30,-66,-84,-88,-107,-113,-88,-77,-55
68,-4,-13,-18,-59,-69,-75,-48,-36,25
59,5,32,37,17,15,-14,-10,-11,186
37,26,76,68,94,82,35,6,-30,166
3,18,69,75,160,132,84,52,-42,24
-34,15,47,77,162,179,138,134,26,-72
-121,0,28,75,160,200,135,118,-49,-161
-129,-31,10,20,136,158,85,40,-85,-205
-69,-52,-1,-35,65,92,21,0,-52,-208
-25,-9,15,-22,-27,18,-17,-9,-3,-111
0,17,46,23,-6,15,-13,-3,58,-16
18,29,65,46,39,24,9,23,106,8
47,52,66,-9,-52,-45,19,77,164,31
56,47,44,-35,-98,-91,-17,78,189,77
85,35,26,-25,-85,-100,-36,30,215,201
93,33,34,0,-73,-93,-46,23,212,265
89,26,17,1,-87,-108,-59,34,258,306
79,17,-14,4,-66,-95,-38,27,330,443
36,23,12,36,4,5,47,11,230,405
-27,13,37,50,41,51,60,-57,-16,207
-60,-25,20,3,-1,-4,5,-139,-159,87
-63,-39,-17,-31,-33,-37,-3,-44,-160,-102
-69,-19,-94,-13,-5,0,60,99,-81,-403
-69,8,-29,23,41,40,66,100,-55,-533
-25,21,-18,13,55,32,45,103,75,-415
5,-7,10,-24,15,1,27,107,206,-152
20,-10,14,-28,-20,-22,-9,43,234,37
28,15,33,-11,-44,-43,-48,-24,178,129
-7,-5,-25,-27,-43,-65,-58,-104,-36,135
-23,-32,-58,-61,-57,-83,-69,-152,-215,102
31,-16,-58,-48,-39,-43,-41,-64,-79,177
57,23,43,12,28,40,3,24,86,185
38,24,72,34,56,82,10,41,117,130
35,23,41,41,59,93,0,11,102,148
2,0,5,37,65,96,15,-4,2,17
-33,-31,-21,19,43,78,20,-10,-239,-280
-33,-37,-43,8,9,36,-9,-47,-379,-446
-17,-43,-46,-17,-46,-8,-53,-79,-319,-354
0,-71,-97,-58,-79,-26,-35,-63,-192,-206
16,-99,-123,-95,-64,9,30,6,-71,-165
20,-66,-99,-79,-33,43,41,65,1,-86
20,-11,-39,-60,-21,9,-25,23,-4,142
40,12,11,-48,-47,-51,-103,-36,-28,303
45,0,-95,-18,-40,-83,-143,-96,-101,201
42,-6,-82,21,10,-58,-121,-101,-118,-14
26,-13,14,9,-8,-70,-75,-65,-31,165
33,-6,44,1,-23,-47,-32,-3,60,258
57,33,62,62,49,40,27,85,141,1
52,61,71,100,102,120,79,131,174,-157
39,82,120,89,80,85,49,72,106,-85
8,84,106,61,36,35,-10,-4,-36,-38
-49,64,104,56,34,41,0,3,-134,-147
-40,17,79,26,15,2,-15,-11,-80,-77
-3,-16,44,2,6,-51,-51,-31,63,43
-29,-13,39,20,40,-5,-17,-3,64,-192
-73,-23,33,22,45,31,9,2,-29,-384
-54,-38,16,-23,-11,-31,-30,-67,-133,-124
-37,-48,-15,-38,-57,-83,-68,-144,-220,106
-82,-39,-9,-12,-26,-30,-49,-133,-224,72
-78,-38,5,32,29,7,-36,-111,-131,112
-16,-36,-10,65,88,42,-36,-93,-9,161
26,-25,-120,48,108,54,-43,-76,67,77
48,-13,-187,0,59,23,-37,-46,75,30
56,-1,-161,-41,-10,-2,-18,38,94,85
71,6,-66,-42,-46,-14,9,88,198,237
56,42,27,-5,-73,-25,29,100,243,212
52,87,125,25,-104,-43,18,73,220,45
71,87,142,38,-87,-33,21,40,201,-2
44,54,78,35,-52,-7,33,23,126,-34
-11,-2,-13,3,-48,5,52,13,-19,21
-68,-63,-28,-48,-87,-23,54,-11,-185,60
-97,-83,-92,-98,-117,-66,33,-45,-204,37
-92,-85,-101,-99,-99,-43,16,-46,-84,87
-12,-58,-35,-80,-71,-42,20,-34,36,133
42,-10,14,-42,-29,-21,70,5,118,140
53,16,60,-10,14,16,92,37,160,86
46,39,91,19,24,19,106,61,215,-41
24,48,44,41,38,32,96,80,207,-188
11,24,-67,30,44,53,86,72,154,-103
15,5,-69,-8,44,38,71,10,49,206
33,8,2,-34,37,27,46,-32,-79,303
32,26,53,-2,34,42,60,-43,-73,82
13,39,97,53,38,25,40,-78,-68,-144
6,42,105,102,74,36,37,-86,-112,-305
-9,15,85,72,81,51,27,-98,-172,-320
-11,-14,43,-8,4,3,-30,-104,-173,-172
-9,-60,-13,-66,-63,-40,-32,-8,-69,-9
-1,-57,-19,-65,-71,-29,-26,99,39,68
1,-33,-2,-30,-53,-11,-56,113,88,8
-12,-29,2,0,-21,0,-38,100,67,-50
-7,-43,-6,-17,-10,10,-11,105,45,-44
-9,-45,-3,-23,14,22,2,107,33,-40
-7,-28,17,-20,7,23,11,82,2,-40
0,6,39,-36,-68,-24,-31,36,-5,-19
7,-1,36,-52,-82,-54,-36,12,10,-16
19,-16,5,-52,-56,-28,-31,-10,18,-12
40,-14,10,-33,-24,-7,-45,-10,20,14
50,-9,28,0,7,14,-7,26,29,-20
23,2,42,52,45,81,58,42,14,-153
8,7,54,86,89,119,91,6,-81,-241
-3,-9,23,56,72,83,69,-63,-131,-93
5,-40,-18,-14,12,23,13,-102,-14,238
7,-34,-40,-28,9,32,-7,-72,70,269
2,-19,-39,-6,36,54,10,-19,56,138
5,-16,-94,2,22,33,11,-13,-9,66
18,-11,-61,-4,-3,9,8,-7,-22,89
21,-24,-74,-38,-30,-4,-9,0,12,298
12,-41,-90,-54,-16,8,-21,10,123,721
23,-31,-53,-40,3,34,-13,36,269,950
27,-13,-10,-7,47,73,7,11,266,565
-5,-24,-27,12,90,49,-57,-99,44,-148
-2,-17,-70,6,71,14,-91,-146,-119,-469
-12,23,4,-9,19,5,-48,-74,-86,-518
-75,66,102,82,51,42,27,-48,-171,-705
-76,105,129,118,29,19,22,-106,-212,-731
-41,113,82,122,8,-6,13,-103,-95,-483
-10,79,95,88,1,12,109,88,16,-260
12,59,72,37,-18,19,193,227,136,-81
4,52,65,25,-11,14,180,143,220,30
0,43,37,10,-22,-7,141,114,203,107
-25,4,6,-34,-48,-41,83,138,55,64
-39,-18,-2,-66,-93,-93,-12,69,-93,27
-52,-17,-12,-66,-80,-80,-51,2,-195,-3
-63,13,-20,-16,-17,-33,-10,-27,-229,-168
-59,56,44,19,-14,-36,9,-67,-250,-277
-36,49,54,21,-4,-32,-7,-80,-179,-136
-16,27,28,-13,-11,-26,-23,-59,-43,108
-3,16,3,-30,-4,-25,-13,-23,40,166
-20,3,5,-4,23,-19,2,-5,32,44
-23,3,-25,1,37,-29,-37,-36,-28,-23
-19,4,-150,9,27,-28,-89,-57,-71,32
-16,9,-132,13,23,-34,-92,-39,-70,31
8,-5,-17,-1,26,-39,-88,-19,-10,39
8,-9,20,4,49,-19,-64,-7,41,87
-7,-14,22,6,60,-1,-18,15,50,94
13,-28,-11,-21,38,-22,-27,-3,-5,143
26,-37,-38,-51,26,-39,-59,-23,-54,159
6,-56,-39,-77,0,-43,-56,0,-38,93
-1,-61,-45,-88,-49,-59,-49,31,59,117
25,-47,-25,-75,-69,-65,-56,35,110,185
52,-16,1,-34,-25,-44,-53,4,68,174
64,17,24,0,0,-15,-40,-26,63,148
57,45,50,17,9,8,5,1,131,82
54,60,75,45,47,31,31,38,172,-40
37,47,66,62,86,51,32,32,126,-89
5,3,22,20,31,-17,-29,9,104,-79
-41,-33,-21,-35,-21,-80,-82,5,85,-160
-51,-29,-45,-32,-1,-59,-59,30,47,-54
-15,-18,-22,-1,39,3,1,33,-18,178
-7,-3,-10,22,83,62,53,6,-91,162
-18,-6,-5,18,88,84,38,-2,-131,-80
-36,-19,-17,-13,65,68,8,-28,-122,-131
-20,-25,-20,-52,13,35,-16,-56,-89,7
26,-7,-32,-64,-40,-23,-61,-77,-8,178
40,6,-105,-42,-11,-37,-46,-44,91,138
24,24,-14,-9,42,37,38,40,169,-79
-6,31,19,22,59,76,84,72,91,-169
-4,28,12,13,35,49,49,42,-31,-131
-14,10,10,16,2,16,6,20,-104,-134
-18,13,3,42,19,40,28,1,-126,-300
11,29,-61,55,72,84,68,-7,-122,-386
70,15,-33,22,42,52,67,31,-2,-171
70,25,12,32,47,28,25,0,105,39
46,66,75,55,69,20,-7,-74,110,36
-27,70,107,79,97,57,47,-99,23,-80
-74,40,76,49,78,63,21,-131,-42,0
-45,7,24,-18,-18,-2,-36,-107,-59,189
-42,-17,-16,-60,-62,-17,51,94,-92,95
-56,-23,-19,-60,-48,12,196,262,-5,43
-33,-14,-12,-43,-54,5,177,236,136,106
-2,21,0,-53,-118,-55,85,167,218,129
29,51,3,-64,-196,-109,5,123,261,155
50,63,9,-45,-144,-58,-2,107,226,102
30,78,30,2,-51,-14,-1,57,-17,-99
13,79,35,23,-27,-18,-42,-37,-279,-251
20,65,31,14,-33,-21,-55,-48,-260,-47
8,48,22,-6,-14,18,0,-3,-99,170
-5,20,0,-32,-7,26,30,-6,-31,125
-41,-19,-33,-43,-22,11,-10,-46,-24,-37
-55,-48,-108,-41,-26,-14,-62,-82,-47,-37
-41,-68,-219,-23,8,-36,-87,-66,-55,17
-19,-69,-206,-14,46,-25,-69,-45,-53,44
0,-56,-86,-21,25,-10,-38,-49,-75,30
5,-43,-31,-14,3,-28,-55,-60,-78,-40
13,-17,-1,-4,6,-32,-57,-41,-18,-52
8,-23,14,-4,-10,-29,-40,24,97,53
2,-28,8,-12,-27,-30,-12,65,209,200
19,-12,-2,7,-28,-34,9,55,252,261
45,-6,-3,8,-46,-24,-8,11,177,218
31,-15,-18,2,-34,-19,-29,-3,136,114
22,-14,0,24,14,19,27,48,181,33
17,24,46,77,95,106,123,113,126,-143
14,57,93,113,122,136,122,73,-11,-194
-11,41,94,100,97,86,63,-37,-208,-226
-25,4,53,41,57,54,13,-84,-288,-318
-23,-14,13,7,2,7,-44,-104,-267,-229
-8,-37,-92,-17,-22,-13,-63,-101,-236,-10
10,-49,-91,-56,-34,-30,-81,-120,-127,207
12,-32,-42,-37,-3,-14,-74,-105,7,226
1,-12,-43,4,32,24,-33,-58,55,4
17,8,-39,11,14,26,-10,-27,93,-57
22,19,-3,9,4,15,8,-5,102,-9
4,8,-21,18,30,48,93,56,105,-72
-16,-12,0,13,29,53,110,81,71,-101
-44,-10,17,2,13,24,61,36,5,-86
-67,0,37,9,4,9,32,-34,-78,-116
-73,1,30,24,26,33,21,-41,-115,-149
-55,9,17,49,68,90,52,-4,-49,-245
-25,24,-78,55,75,95,52,14,-23,-222
-5,16,-50,35,34,52,33,19,-43,41
1,-13,12,-20,-33,-2,0,-2,-72,191
26,-28,-70,-71,-108,-48,-25,-36,-15,179
38,-23,-55,-61,-126,-52,-39,-39,78,140
56,0,35,-30,-126,-58,-62,-48,118,218
49,-14,-11,-7,-59,-18,-29,-32,172,304
31,-22,0,55,93,94,43,5,134,135
57,30,88,112,123,83,48,-25,-14,-94
72,66,153,99,22,-24,-46,-111,-119,-70
58,69,142,73,-26,-81,-100,-133,-114,-87
40,44,102,58,-33,-86,-97,-95,5,-130
0,7,68,48,-25,-38,-59,-51,93,-155
-53,-22,27,9,-17,-13,-24,-33,104,-166
-85,-50,7,-20,7,7,3,71,95,-188
-114,-25,26,-22,25,40,74,168,-31,-295
-91,-22,4,-51,-9,21,43,150,-181,-145
-31,-37,-56,-90,-71,-36,-28,66,-208,166
13,-37,-47,-75,-56,-60,-72,4,-120,329
-2,-29,6,-21,23,-8,-46,-13,-61,180
-38,-28,45,20,77,28,-11,-5,-32,-10
-63,-57,16,-1,48,0,-51,-21,-41,-65
-67,-82,-11,-26,22,-1,-65,-10,-17,7
-54,-91,-53,-11,65,34,-21,22,17,101
-30,-78,-38,-11,104,58,38,49,12,123
27,-32,-13,-29,75,69,57,68,15,139
69,13,-30,6,50,74,28,55,21,174
96,45,17,33,-21,16,-19,39,114,245
100,52,17,22,-65,-59,-40,26,195,279
76,30,0,-19,-52,-60,-28,25,199,275
50,-10,-30,-54,-37,-15,5,87,209,200
7,-27,-45,-18,24,52,85,144,199,-15
2,0,27,48,68,83,86,122,63,-249
18,56,66,71,15,13,52,70,-31,-310
-10,62,57,66,8,-5,31,24,-79,-390
-42,39,3,83,48,20,14,-44,-160,-549
-24,27,14,63,72,54,18,-72,-166,-348
23,11,30,27,36,30,2,-92,-158,69
38,16,39,-14,-48,-16,17,-67,-147,152
-14,11,24,8,-28,28,70,-32,-111,-103
-22,4,-44,11,-26,-1,13,-71,-86,-181
8,-5,-87,-1,-62,-73,-62,-95,0,83
1,-1,-76,15,-39,-81,-74,-74,77,136
-4,-3,2,7,-1,-37,-42,-35,128,147
23,-23,-12,-26,-10,-15,9,-9,154,287
23,-35,-24,-73,-49,-26,19,-2,115,290
-21,-41,-34,-61,-53,-52,-36,-40,76,178
-43,-49,-57,-16,-48,-75,-92,-86,56,88
-29,-34,-118,5,-31,-74,-113,-122,19,33
-16,-13,-70,7,-6,-66,-101,-116,-8,-25
-11,11,-64,1,-14,-47,-26,14,-79,-67
2,10,-86,-32,-57,-11,47,155,-133,-107
19,4,0,-40,-45,-3,16,98,-114,-114
21,0,52,-34,-15,-18,-15,12,-91,-54
3,3,62,-10,21,-3,-41,-38,-148,-53
4,10,65,-4,27,-13,-70,-75,-183,-15
20,26,72,-17,-10,-38,-78,-71,-110,55
19,27,63,-19,-25,-30,-38,-23,28,59
-8,10,53,-7,-4,-17,4,40,127,-4
-46,3,45,15,27,18,45,76,137,-60
-30,17,53,25,43,31,51,27,94,-48
-17,-1,41,20,21,-2,21,-12,63,107
-36,-43,5,-14,-18,-7,55,51,95,296
-32,-44,-12,-23,-14,20,102,159,153,260
-15,-19,-57,13,7,40,84,159,169,85
-29,-13,-34,19,60,65,52,83,10,-243
-53,-34,-4,-6,84,71,38,33,-92,-442
-44,-27,1,-5,89,117,78,57,-40,-401
-21,-19,0,-12,89,146,120,83,-13,-199
-20,-28,-90,-39,48,87,84,27,-68,17
-9,-20,-63,-58,-41,-20,-11,-34,-59,121
47,33,72,-27,-113,-111,-66,-12,80,156
77,72,96,-8,-146,-126,-44,8,91,162
52,71,80,-19,-108,-65,6,-20,-34,101
8,7,23,-37,-49,8,-35,-86,-146,33
-45,-34,-8,-30,-9,19,-80,-111,-167,-142
-106,-28,20,41,77,64,-14,-36,-96,-341
-134,-19,47,92,168,110,22,-16,-104,-381
-127,-54,-19,75,231,155,15,-64,-202,-316
-83,-80,-83,-61,85,74,-17,-113,-263,-123
-9,-58,-110,-135,-80,-51,-101,-172,-261,184
44,-10,-69,-94,-92,-73,-103,-162,-186,401
65,30,30,-18,-99,-100,-93,-121,-73,488
79,70,84,-1,-146,-154,-122,-95,25,438
81,94,95,13,-107,-104,-88,-56,88,172
58,56,62,22,-65,-35,-14,-18,143,-148
42,7,14,12,-34,13,75,88,205,-188
58,18,-13,25,0,44,113,148,207,-18
42,18,22,43,23,40,82,77,174,156
-20,9,41,41,33,26,59,-10,89,194
-28,2,36,40,36,25,42,-64,-29,75
-37,9,40,62,62,57,74,-44,-113,-198
-54,-7,-2,42,54,54,90,0,-72,-194
-72,-42,-50,-4,30,73,99,139,77,-60
-53,-40,-26,-38,9,78,87,188,168,19
-38,-5,-7,-36,-11,49,60,123,158,47
-27,4,-6,-34,-30,11,13,43,101,94
-18,-10,-24,-28,-37,-30,-42,10,82,181
-16,-15,-1,-12,-25,-18,-29,68,157,95
-5,14,40,15,5,15,27,118,229,7
0,49,50,65,46,40,52,94,125,-121
-23,57,39,74,58,49,40,16,-132,-306
-43,30,-10,57,52,35,24,-59,-293,-346
-14,15,8,52,38,20,22,-91,-234,-200
6,-12,-16,15,-1,-18,-15,-107,-168,6
12,-44,-69,-1,-18,-50,-49,-121,-95,106
26,-45,-106,4,-14,-44,-79,-98,-13,66
0,-58,-91,27,30,19,-43,-38,7,-97
-34,-70,-99,-5,60,75,24,33,9,-87
-23,-57,-89,-49,27,71,47,75,22,119
-24,6,-28,-29,-2,19,5,56,56,86
-55,43,108,-9,-17,-14,-37,43,72,-293
-59,12,105,-10,-7,-12,-33,54,92,-455
-14,1,56,-18,-11,-10,-34,61,148,-209
24,-2,20,-30,-26,-6,-9,51,160,33
14,11,-21,-1,-26,-19,-38,-4,68,54
1,32,-83,32,-5,-43,-106,-114,-68,135
8,8,-21,0,-19,-82,-175,-200,-175,308
-25,-29,1,-14,-24,-72,-169,-210,-254,190
-47,-50,-1,-8,-5,-36,-131,-188,-293,16
-29,-35,10,20,32,21,-71,-141,-234,-49
5,-20,28,40,89,79,-12,-90,-148,-81
25,-15,30,37,130,123,63,-38,-107,-110
19,13,44,40,154,153,147,68,-98,-223
18,30,53,5,110,149,159,140,-70,-301
38,0,9,-27,70,111,89,78,-3,-51
58,-25,-10,-62,-52,-17,-31,-29,54,365
51,-20,-10,-43,-112,-118,-87,-57,46,425
36,-12,-53,-34,-123,-126,-86,-1,92,406
40,-14,-43,-44,-154,-141,-93,46,237,385
36,-10,-39,-39,-141,-129,-82,48,287,264
58,-15,-49,-43,-154,-121,-58,69,328,254
109,14,-77,-30,-163,-107,-16,112,325,268
57,34,-12,50,-59,-7,87,104,108,74
-4,76,117,143,62,91,132,63,-93,-202
-3,78,116,144,80,87,116,53,-110,-292
5,77,95,110,85,102,105,27,-149,-405
26,68,77,85,62,61,56,-76,-209,-354
40,20,44,16,-21,-9,2,-125,-146,46
52,-1,23,0,-40,-23,1,-95,-68,369
21,-17,7,13,-19,8,40,-24,-7,323
-29,-33,-11,-25,-24,6,68,88,94,15
-31,-30,-12,-58,-37,3,54,154,168,-203
-1,15,19,-28,-10,16,46,100,97,-253
12,31,24,-10,9,24,25,22,59,-123
30,28,31,-23,-1,16,6,14,164,80
21,36,53,10,14,47,24,36,144,-2
-4,13,22,8,15,59,31,18,0,-123
-36,-21,-48,-5,9,44,19,-13,-113,-145
-44,-29,-54,1,19,31,29,-9,-131,-155
-21,-12,-2,16,15,0,10,-31,-146,-124
-3,-3,15,38,3,-42,-25,-65,-150,-79
1,-4,33,47,10,-66,-45,-66,-78,16
10,-15,5,31,59,-18,-11,-42,2,90
27,-20,-13,-4,60,-3,10,3,97,168
34,-3,-7,-34,13,-20,21,89,269,228
35,19,0,-7,-23,-53,37,100,326,229
44,15,0,17,-17,-62,40,78,316,199
50,46,25,24,-20,-81,32,70,274,60
21,66,54,38,-7,-52,30,45,132,-147
9,62,66,56,11,-11,16,-14,-54,-230
20,35,-65,17,-7,-14,-22,-59,-156,-105
6,5,-143,-18,-19,-19,-39,-68,-183,-110
-28,-23,-115,-15,-24,-12,-60,-40,-177,-237
-54,-41,-25,-3,1,4,-35,-14,-111,-298
-76,-32,25,20,22,11,-13,-18,-103,-290
-64,-49,19,2,1,-33,1,-24,-162,-129
-29,-66,-19,-31,-23,-79,-33,-59,-170,119
-27,-94,-38,-72,-61,-83,-50,-61,-128,205
-35,-104,-59,-71,-60,-79,-26,-13,-39,96
-26,-74,-38,-34,4,-19,35,10,34,75
-10,-34,30,24,50,33,41,-10,13,102
-17,-24,59,48,50,20,-8,-27,-54,101
-19,-9,53,47,97,56,19,4,-70,-12
-31,6,82,80,143,95,40,-3,-104,-252
-40,-6,70,54,90,58,-30,-54,-91,-235
-28,-46,-16,-3,10,5,-81,-59,-32,-16
0,-38,-113,-20,-22,-15,-79,-3,29,22
15,-41,-60,-34,-41,-44,-55,42,123,-21
-14,-54,-15,-53,-33,-49,-31,83,223,19
-15,-45,-54,-69,-49,-50,-41,95,317,206
4,-7,-18,-85,-84,-44,-27,63,339,370
9,12,42,-60,-52,-33,34,76,247,387
17,18,78,-12,-6,0,106,108,77,308
15,21,76,16,0,27,100,53,-97,108
33,36,49,-9,-40,17,63,1,-211,-66
64,35,41,-40,-94,-50,-14,-43,-216,-18
79,40,37,-38,-124,-100,-53,-60,-100,82
62,55,34,-26,-95,-83,-47,-55,-21,79
35,39,20,-23,-50,-22,-15,-38,24,71
12,8,-18,-14,-38,2,-18,-19,17,22
1,-1,4,5,-2,19,-12,-41,-47,-146
26,4,33,12,14,24,-2,-59,-70,-109
65,13,27,25,17,21,22,-70,-69,160
77,22,29,11,9,17,49,-62,-14,207
60,6,13,3,3,11,60,26,64,-68
39,7,-10,8,12,31,81,126,111,-249
19,15,-20,18,35,60,100,119,143,-236
11,19,-37,31,59,94,132,104,151,-166
-47,-2,-17,21,41,70,149,120,97,-104
-101,-29,-20,-3,21,17,81,69,-18,-40
-100,-39,-27,-4,-1,-1,5,-3,-66,-49
-97,-34,-88,16,19,12,-25,-36,-60,-76
-78,-35,-20,48,99,41,-14,-56,-72,-30
-58,-33,-11,59,161,91,15,-64,-96,-26
-26,-9,-5,22,134,121,43,-38,-103,-62
-2,-1,-2,-32,48,88,43,6,-66,-63
7,-4,1,-34,-4,65,32,70,17,-73
29,31,-13,0,-62,2,0,107,132,-24
54,65,-5,49,-94,-90,-20,92,283,53
55,83,31,77,-61,-91,-6,92,315,68
29,66,81,61,-59,-61,-26,84,180,41
-12,35,45,4,-89,-63,-46,51,8,-17
-42,37,20,-7,-62,-41,-28,24,-83,-66
-27,22,24,-12,-39,-42,-45,-37,-149,174
0,-48,-48,-80,-97,-104,-117,-117,-139,642
-1,-85,-76,-93,-73,-95,-113,-137,-193,537
-10,-57,-62,-49,13,-23,-78,-127,-275,80
0,-26,-64,-30,56,19,-51,-99,-213,-77
33,16,-23,-3,73,35,-25,-74,-114,-169
50,35,-28,23,62,25,-40,-63,-55,-207
36,27,-55,8,44,20,-10,5,79,-176
32,16,-13,-21,22,-1,-9,63,214,-157
31,9,-19,-35,-8,-36,-43,58,247,-143
43,23,20,-36,-36,-56,-2,48,263,40
81,33,14,-43,-75,-67,15,37,243,361
70,36,33,-13,-34,-19,29,29,173,413
13,34,75,37,42,47,72,31,29,28
-19,12,72,45,65,75,96,31,-123,-389
-45,0,55,19,34,52,85,8,-161,-456
-58,-12,27,19,33,38,45,-47,-203,-288
-51,-5,22,22,33,27,-16,-116,-301,-222
-35,10,35,29,23,9,-52,-155,-317,-233
-21,-4,35,25,27,-6,-91,-187,-320,-209
-24,-21,0,2,39,5,-105,-182,-244,-132
-10,-12,-18,-16,13,-1,-86,-121,-107,-80
17,12,-5,-20,-51,-25,-53,-71,-18,-61
31,21,28,0,-34,-15,-9,-43,-13,-102
35,24,28,11,16,29,54,28,-19,-150
40,22,-2,-18,37,61,126,101,26,-112
31,1,-23,-23,35,65,139,80,59,-53
7,-9,-18,-16,37,55,79,30,47,-63
-20,-15,-22,-14,59,80,45,2,64,34
-27,-17,-5,11,115,101,25,-27,69,109
11,0,-6,-29,68,48,0,-47,76,192
54,6,-36,-82,-9,18,6,-25,126,307
64,14,-58,-78,-57,-21,2,-21,49,256
54,33,-46,-29,-94,-73,-43,-69,-113,96
47,45,-9,-4,-85,-84,-51,-82,-153,-15
40,53,42,34,-33,-60,-33,-31,-53,-58
23,45,29,46,-16,-18,2,44,51,85
20,39,23,35,-12,-5,27,65,113,177
9,29,15,20,-8,3,57,46,111,8
5,19,-14,15,-6,-7,49,6,66,-216
4,20,5,27,0,-44,-6,-45,6,-150
15,6,1,22,-15,-66,-63,-48,30,187
17,-15,-85,-7,-30,-60,-49,-11,98,322
0,-21,-61,-8,-10,-36,-36,14,97,142
2,-18,5,-5,-7,-30,-44,4,60,35
-9,-9,11,9,3,-12,-51,-8,43,22
-6,-1,29,20,38,10,-36,-4,2,-6
-12,3,35,13,39,14,-13,-7,-28,-57
-26,5,20,8,23,21,-4,-7,-20,-82
-28,-15,14,5,31,39,21,0,-10,-104
-33,-9,14,-8,29,33,29,-10,-41,-157
-35,2,13,-3,3,4,3,-53,-64,-109
-22,-5,-3,-4,-14,-17,-29,-82,-44,18
3,-7,-5,-22,-24,-9,-33,-88,-9,68
-1,5,-66,-31,-6,8,-9,-75,-4,44
-13,0,-70,-44,-10,-10,1,7,29,74
-11,-9,-18,-59,-30,-18,0,133,70,123
-8,0,-18,-49,-17,-5,13,124,69,134
9,-1,-7,-22,-10,-30,8,50,142,181
43,-5,-4,-14,-21,-40,-3,38,309,294
58,-18,-12,-33,-43,-54,-7,51,424,380
78,-15,-8,-32,-51,-46,-15,88,488,397
65,3,10,15,-4,12,30,142,505,251
2,48,35,69,38,71,83,153,342,-90
-70,77,8,110,59,87,75,58,9,-485
-96,41,-65,84,89,73,-35,-129,-275,-432
-93,-6,-108,29,72,25,-139,-236,-489,-200
-57,-31,-27,-16,32,0,-131,-173,-504,-154
-22,-20,-5,-49,8,3,-87,-113,-444,-136
-8,-16,-9,-35,18,21,-42,-85,-357,33
0,-12,26,-10,33,25,-19,-58,-259,178
-25,-2,27,13,86,52,21,28,-157,66
-66,-16,0,4,86,60,17,15,-108,-146
-77,-30,-22,-21,64,51,3,-23,-124,-165
-49,-27,-22,-12,75,88,79,49,-88,-104
-14,3,4,20,78,81,96,108,-5,-101
0,19,21,28,48,67,68,96,33,-112
-7,26,36,22,-7,22,33,95,33,-129
-23,34,32,27,-5,-6,11,93,48,-125
-36,29,10,4,1,-8,-7,50,30,-102
-43,8,-3,-25,-44,-18,-3,46,38,-62
-30,17,-13,-31,-79,-40,-9,51,108,-31
-25,19,27,-31,-92,-43,-46,29,140,16
-18,14,-5,-34,-93,-68,-79,-11,116,137
-20,0,-30,-23,-64,-86,-104,-24,77,174
-11,-11,-11,-22,-41,-46,-48,33,110,159
2,-1,-39,-10,-37,7,-3,78,152,77
-16,4,22,13,-20,35,-10,47,125,-131
-59,-26,17,24,44,53,-17,-20,65,-269
-64,-60,-7,6,96,91,26,43,89,-75
-19,-11,4,-56,17,65,73,126,80,195
14,-16,-10,-72,-16,33,74,106,15,284
28,-22,-13,-55,-36,10,23,25,-146,119
47,48,67,21,-64,-38,-27,-50,-253,-167
53,69,88,66,-54,-87,-56,-103,-259,-196
42,41,47,42,-48,-80,-49,-47,-183,-33
14,7,26,27,-29,-50,3,31,-108,51
-5,6,36,35,-3,-17,33,25,-80,4
-15,27,62,35,-13,-8,39,8,-79,-47
-17,23,59,35,-7,-13,17,0,-70,-58
1,23,45,25,14,-13,-26,-35,-85,-55
24,20,34,13,-10,-15,-51,-28,-36,-16
10,9,8,5,-24,-24,-56,-14,11,0
4,3,-9,4,-32,-13,-43,-1,8,-3
-2,10,-10,0,-30,14,-16,26,19,-4
-7,3,-9,0,-10,18,-7,42,40,-3
6,9,7,-10,-22,-8,-27,11,43,-23
37,20,-64,-35,-78,-68,-74,-43,-2,-47
43,12,-138,-55,-101,-100,-105,-58,36,77
42,-10,-102,-73,-112,-98,-107,-39,164,294
36,-23,-25,-59,-100,-87,-59,18,280,347
26,-33,-72,-55,-87,-75,-21,97,402,407
29,-29,-76,-40,-69,-67,-18,129,476,452
29,-5,8,-11,-53,-59,3,136,481,328
8,0,2,4,0,15,28,116,359,152
18,-8,-22,21,75,83,70,79,195,131
38,38,16,32,108,127,118,57,33,82
37,82,99,40,76,117,121,4,-218,-117
-6,50,88,43,64,81,84,-108,-584,-373
5,2,48,9,15,16,-10,-212,-704,-284
3,-6,34,9,10,-23,-41,-227,-515,-108
-68,-15,18,25,19,-25,-24,-170,-276,-128
-96,-34,-62,1,10,-11,-1,-71,-61,-98
-66,-37,-129,-19,-6,3,20,16,58,-160
-16,-25,-74,-16,-13,-5,9,14,87,-137
0,-24,-41,-11,12,17,17,50,99,-167
4,18,47,33,58,77,88,127,51,-492
3,54,82,60,89,115,119,121,-31,-545
-26,51,113,75,68,106,93,29,-168,-429
-60,52,110,56,20,47,36,-48,-258,-401
-49,20,52,0,-17,-29,-12,-53,-158,-136
-34,-2,25,-11,10,-20,3,-27,-68,-8
-29,-7,25,-27,7,-3,4,-31,-50,47
-27,0,16,-33,0,1,-10,-31,-39,103
-8,0,15,-24,12,18,-26,-47,-32,146
16,0,11,-31,9,18,-29,-50,-14,145
53,1,-37,-67,1,31,0,-6,50,169
43,0,-69,-70,-6,48,84,52,115,180
26,17,-10,-15,-20,25,101,99,156,133
26,26,26,34,-12,-8,49,124,210,62
29,27,35,55,27,-13,-1,108,254,74
39,35,44,34,-9,-65,-56,18,182,239
48,26,26,8,-38,-85,-100,-70,57,349
47,-29,-25,-40,-65,-105,-111,-81,11,248
15,-72,-100,-77,-79,-114,-91,-23,58,67
15,-61,-87,-69,-68,-97,-66,6,135,84
26,-33,-26,-57,-35,-62,3,54,204,215
30,-5,-39,-32,-13,-37,27,89,208,240
25,-1,-122,-39,-22,-42,-33,52,126,151
15,-10,-50,-31,-1,-22,-73,17,91,75
6,1,10,-1,8,-4,-81,-4,93,71
18,19,33,0,-3,-16,-60,-13,79,72
18,15,27,-10,9,-7,4,15,72,-57
-17,14,42,17,50,61,78,58,24,-299
-38,24,68,67,94,128,137,60,-85,-474
-19,33,48,71,87,121,111,-9,-277,-447
-20,-9,-53,7,45,75,0,-108,-426,-255
-17,-33,-103,-9,84,106,-17,-115,-399,-203
-10,-8,-126,8,96,145,5,-82,-289,-179
-30,-20,-44,-1,54,109,-4,-65,-177,-56
-53,-48,5,22,74,95,12,-43,-102,4
-55,-30,15,56,99,102,76,0,-51,-38
-38,-10,32,48,47,44,81,24,-7,-33
0,0,24,11,-52,-70,-7,17,30,36
20,27,36,-22,-148,-183,-109,-6,20,90
49,48,55,-30,-148,-169,-109,-33,-17,65
66,54,66,-27,-111,-126,-93,-44,-29,49
53,40,52,-13,-86,-106,-67,-46,-2,57
39,30,15,18,-64,-84,-58,-65,39,153
49,28,31,28,-34,-60,-56,-90,71,258
47,5,36,-4,-30,-57,-65,-124,103,429
35,-4,13,-6,-45,-43,-44,-92,150,472
31,19,20,46,-13,-3,64,75,202,162
4,45,51,81,12,57,116,137,73,-171
-16,37,44,61,3,44,46,29,-112,-288
-16,9,1,13,-27,-7,-25,-48,-182,-190
4,-16,-27,-33,-51,-49,-48,-49,-128,-19
23,-36,-61,-60,-55,-52,-56,-36,-51,113
-3,-37,-45,-50,-22,18,-13,-8,33,92
-75,-24,-30,-10,20,92,47,61,94,58
-91,-23,-6,13,34,107,84,143,135,172
-65,-10,-16,-5,18,74,67,131,147,210
-46,-9,-54,-35,-8,22,15,44,125,52
-37,-7,-31,-45,-15,11,-30,-31,85,-37
-26,23,-3,-28,-5,-8,-19,-55,45,26
-14,20,-65,-21,-11,-22,-14,-10,82,163
-8,0,-143,-35,-43,-43,-17,13,177,263
-18,-14,-76,-30,-42,-57,-31,28,247,252
-13,-12,16,-18,3,-4,-10,33,240,132
4,2,37,2,64,71,54,46,147,-61
-9,11,43,22,68,81,93,109,88,-250
-25,27,41,92,126,95,114,93,-14,-477
-16,22,-14,127,199,125,110,13,-185,-529
-16,-22,-14,48,123,61,19,-82,-279,-236
-30,-74,-79,-26,29,-15,-84,-140,-223,-21
-23,-89,-59,-38,3,-29,-94,-106,-124,-58
27,-44,6,-8,-32,-56,-107,-92,-103,-26
44,0,28,28,-57,-121,-148,-124,-132,68
-1,11,-30,57,-9,-93,-95,-110,-130,41
-30,23,10,90,30,-19,-27,-49,-47,-18
-3,16,73,53,-6,-30,-47,24,27,74
29,0,21,-43,-82,-76,-41,47,57,224
39,0,-4,-74,-106,-71,0,25,-11,217
48,6,20,-42,-80,-51,-25,6,-83,120
43,-14,9,-21,-61,-52,-45,0,-84,71
19,-23,21,-14,-35,-63,-31,24,-13,56
-8,-33,14,-15,-38,-64,-2,78,124,103
-42,-53,-12,-20,-29,-68,-13,97,214,141
-27,-29,15,1,10,-34,1,68,110,13
-7,12,40,29,54,18,16,3,-76,-136
-23,21,10,41,76,34,-21,-119,-278,-238
-32,23,-17,42,99,46,-27,-178,-314,-282
-44,13,56,52,124,68,7,-141,-187,-278
-61,5,62,61,124,79,28,-107,-108,-288
-70,-1,36,36,113,90,83,-98,-60,-249
-59,-30,-8,-11,86,86,115,-42,51,-108
-39,-31,-37,-31,66,71,139,86,128,-37
1,7,-7,-3,43,35,107,109,114,156
54,58,31,36,-17,-36,36,17,108,485
78,49,-4,44,-19,-20,47,52,213,443
56,0,-128,26,11,27,113,185,300,92
24,-12,-82,18,37,67,154,229,272,-170
13,17,18,4,-1,59,127,140,187,-117
14,57,62,2,-64,16,55,40,69,70
15,52,4,-12,-102,-49,-45,-66,-96,201
9,22,-38,-22,-51,-32,-50,-94,-213,53
18,9,-9,-37,-7,-2,-44,-78,-142,-14
6,4,22,-37,1,-7,-27,-62,-104,-61
-17,13,48,-19,-5,3,-3,-36,-223,-194
6,15,44,-19,-39,-26,-18,-28,-281,-187
31,-3,24,-28,-50,-30,-38,-28,-230,-52
31,-12,-7,-36,-52,-19,-31,-16,-155,18
22,-21,-5,-32,-35,6,-22,24,-42,14
21,-31,-5,-19,-22,15,-11,46,53,13
33,-21,-5,-14,-19,10,-30,37,109,80
48,-3,-12,-30,-30,16,-13,63,139,163
55,0,2,-18,-33,0,-43,21,83,184
51,-2,10,7,-42,-15,-107,-34,-10,105
52,9,6,7,-36,-15,-103,-14,53,92
45,20,9,11,-24,0,-49,34,167,57
27,17,25,21,-5,20,13,87,219,-37
32,30,45,25,33,45,23,46,109,-96
32,29,28,13,62,53,8,-32,-89,-173
13,-5,-35,-29,17,9,11,-40,-129,-249
-31,-41,-94,-47,0,3,27,12,-32,-223
-87,-32,-15,10,69,76,70,49,-7,-304
-115,-22,32,75,147,137,83,37,-54,-346
-83,-33,-12,64,153,136,26,-22,-115,3
-30,-67,-160,-13,82,78,-77,-91,-152,382
-24,-78,-155,-63,14,44,-66,-93,-125,185
-19,-47,-30,-53,-35,30,13,20,-46,-142
28,18,32,-33,-99,-4,72,121,49,-85
75,48,65,-33,-145,-65,54,89,116,35
70,47,76,-20,-86,-80,-1,-8,96,21
34,10,43,-18,-30,-52,-39,-86,8,66
14,-7,29,-1,-24,-52,-66,-118,-57,144
9,-2,34,40,-14,-53,-76,-122,-110,107
0,-4,-3,24,-17,-40,-38,-59,-27,138
12,-1,-4,-15,-53,-37,-20,27,94,192
21,9,-8,-11,-51,-28,-18,17,122,162
26,5,-84,0,-32,-13,-6,-1,111,67
15,12,-40,8,-27,-8,6,75,91,-56
5,3,38,7,-16,-19,10,140,61,-100
3,8,54,4,-13,-20,32,94,96,-37
8,22,65,7,0,0,41,51,98,-100
9,32,49,13,0,34,43,32,63,-209
9,45,22,-13,-18,37,51,25,60,-207
3,29,-9,-46,-36,11,44,9,49,-236
0,17,15,-28,-16,18,65,17,-34,-282
0,34,30,-19,-18,4,30,-15,-100,-120
-8,10,17,-47,-51,-31,-28,-44,-83,221
-40,-2,18,-28,-11,-7,-9,-26,-98,176
-56,-8,-11,-12,24,-4,-27,-44,-141,8
-26,-28,-21,-20,9,-27,-42,-82,-78,79
-14,-28,-18,-33,-17,-58,-89,-113,-56,189
-9,-13,10,13,12,-49,-102,-109,-72,109
4,0,48,52,58,-10,-57,-51,-31,85
-1,4,48,67,67,4,-36,-7,13,239
-21,6,30,76,53,5,-35,6,25,240
-76,-9,14,66,47,13,-8,26,108,-6
-105,-42,-42,16,15,0,1,29,158,-222
-92,-63,-102,-19,-28,-33,10,36,139,-132
-72,-77,-55,-37,-35,-51,-3,48,141,5
-51,-55,-32,-11,-8,-10,6,70,94,-51
-6,-13,-10,45,47,46,27,62,-50,-251
42,-10,1,18,36,33,-5,-9,-129,-207
75,-29,-13,-31,-31,-30,-50,-28,-18,4
86,-20,-67,-31,-42,-47,-40,10,53,135
57,-11,-69,-18,-24,-25,-22,-2,-18,185
-3,-20,19,6,19,5,0,-3,-138,52
-40,-14,58,43,61,42,22,22,-175,-129
-34,-10,66,44,66,28,12,-3,-161,-166
7,-5,58,44,50,0,-37,-70,-127,-46
16,4,44,46,41,2,-37,-72,-82,31
0,-14,-51,32,59,36,8,-31,-63,45
11,-43,-164,1,47,47,35,2,-38,136
12,-64,-127,-38,7,12,34,10,-29,182
5,-45,-106,-60,-45,-27,8,7,-7,125
-4,-25,-77,-54,-73,-54,-26,33,83,79
-3,-15,10,-49,-91,-38,-6,53,142,69
2,-27,9,-58,-99,-22,1,81,172,177
7,-16,9,-54,-71,-39,-24,53,110,257
-6,-13,20,-39,-29,-50,-19,-4,11,151
-11,8,33,8,37,9,26,26,35,-16
-6,34,6,56,100,108,96,47,-21,-257
-17,13,-25,43,77,73,65,-40,-225,-393
-22,-4,32,24,37,19,4,-93,-211,-405
-20,12,63,22,44,41,21,-51,13,-219
-31,4,39,35,97,90,73,41,209,176
-44,-7,20,17,97,106,129,134,243,287
-120,-6,35,39,87,113,151,133,106,-98
-136,-5,33,46,22,14,86,67,37,-281
-86,-7,14,43,-9,-44,-9,-40,-17,-107
-38,-5,23,60,37,-34,-61,-112,-96,-11
-8,17,28,17,-8,-49,-88,-118,-139,-1
-10,12,-7,-7,-28,-63,-91,-108,-142,-15
-3,-2,-57,-12,-36,-77,-82,-90,-62,74
19,15,-1,-12,-84,-100,-80,-70,19,165
42,26,9,-9,-73,-105,-57,-56,64,155
80,22,2,-17,-63,-83,-37,-48,140,191
99,17,15,-28,-67,-44,-37,-17,319,312
77,26,12,-22,-47,-20,-29,14,402,281
58,15,0,-37,-56,-58,-14,57,400,198
69,8,10,-26,-52,-55,2,119,363,121
53,37,37,24,6,12,52,135,156,-81
1,48,77,61,58,66,92,87,-169,-394
-61,20,63,49,67,66,74,-2,-395,-502
-58,-8,18,10,22,23,6,-83,-429,-303
-54,-42,-21,-38,-26,-20,-41,-116,-399,-144
-53,-75,-40,-50,-6,11,-32,-63,-259,-56
-38,-69,-44,-44,17,61,3,0,-107,25
-22,-51,-34,-48,16,78,-18,6,-56,45
-9,-37,-31,-44,23,61,-38,-19,-83,2
7,-26,-7,-30,29,39,-44,-34,-95,-52
22,-15,6,-28,6,0,-50,-43,-142,-72
38,-1,1,-27,-24,-39,-45,-52,-183,-69
40,-4,0,-2,-2,-42,-48,-51,-105,-16
17,-10,14,34,71,13,-14,-42,-29,-18
23,30,46,50,71,12,4,-64,-83,33
61,39,11,14,-2,-40,-42,-85,-112,315
88,24,1,-24,-65,-107,-76,-76,-54,435
55,2,-16,-23,-57,-109,-48,-28,-2,153
32,-17,-27,-17,-39,-76,-28,22,51,-142
23,-20,-3,-13,-34,-59,-21,65,84,-177
-9,-17,22,8,19,9,22,74,52,-232
-15,-4,30,17,76,50,22,38,36,-171
-37,-16,-9,-23,44,21,-36,-40,22,57
-57,-42,-29,-34,3,6,-82,-59,8,114
-23,-24,-7,10,25,41,-33,1,64,34
1,-6,2,32,42,64,14,41,94,-14
-5,-7,-10,28,50,87,60,77,101,-13
4,9,2,16,18,71,85,91,129,-3
-3,45,50,18,-15,21,62,65,95,-57
-14,53,46,5,-52,-15,44,55,56,-104
-17,19,-72,-17,-70,-19,-1,16,35,-55
5,8,-141,-51,-78,1,-1,-11,0,-10
39,-1,-58,-78,-79,-19,8,-15,-4,39
58,9,-17,-69,-61,-57,9,-16,24,123
49,0,-29,-40,6,-3,16,-31,10,141
41,-6,-4,16,58,24,-4,-19,3,118
9,-11,33,33,63,18,21,19,7,22
-1,-15,-37,17,29,3,46,62,78,64
14,-6,-56,12,9,3,46,124,200,73
13,4,24,27,34,36,66,156,289,-17
4,-10,18,3,33,35,38,119,360,-1
10,-19,-11,-16,23,18,0,87,409,126
11,-9,4,16,62,34,20,72,268,135
12,-12,0,3,39,5,7,-7,-13,69
14,-15,-15,-63,-31,-28,-17,-73,-170,83
8,-9,-19,-77,-59,-32,-29,-61,-155,3
17,-10,-24,-98,-114,-54,-18,-13,-86,-96
66,13,-41,-139,-181,-78,4,22,-4,-101
90,15,-39,-109,-115,-38,-18,2,3,-26
89,20,6,-34,-1,32,-12,-22,30,189
37,48,64,40,54,78,37,5,-16,287
-12,48,91,89,53,47,69,36,-108,118
-57,25,35,112,58,5,32,27,-127,-157
-87,-1,-54,113,95,36,18,11,-73,-372
-74,18,-64,104,126,98,85,23,-87,-470
-63,12,8,74,103,94,58,0,-165,-322
-69,-19,6,31,51,56,-6,-44,-216,-117
-63,-38,-32,-4,14,27,-14,-31,-182,-21
-35,-32,-16,-14,11,15,-29,-32,-136,0
3,-27,-3,-13,0,-12,-41,-57,-116,-29
21,-10,-1,-9,-23,-38,-30,-44,-59,-46
18,-7,-40,-19,-26,-42,-17,-24,-29,-52
20,-8,-48,-27,-20,-42,-4,-32,-65,-60
31,-8,-115,-35,-34,-53,-45,-62,-102,-58
50,23,-28,-14,-32,-47,-74,-35,-12,3
70,48,59,22,4,-22,-55,-5,63,74
52,34,70,45,18,5,-34,-3,119,170
-62,18,73,67,60,53,37,16,72,89
-98,13,59,74,96,91,100,29,-21,12
-51,-19,-1,43,97,48,60,-15,-56,203
-39,-50,-119,-2,66,26,6,-9,-32,256
-53,-41,-164,-27,19,54,27,44,73,88
-44,-24,-52,-5,19,57,55,54,78,-76
-26,-8,-16,-2,12,5,45,0,43,-113
11,-8,-45,-22,-2,-22,40,22,62,-66
57,15,35,-16,-56,-50,23,131,113,35
55,38,87,11,-71,-59,-17,88,84,68
40,57,105,25,-39,-60,-46,-1,28,98
67,97,117,27,-48,-96,-46,-21,22,155
85,101,110,33,-64,-103,-5,7,83,124
60,70,80,15,-61,-85,-14,7,81,59
49,39,55,0,-60,-75,-6,16,135,163
59,37,55,1,-38,-24,19,95,204,359
61,28,33,-2,-39,-11,-4,81,147,386
17,-7,-4,-23,-69,-33,-38,1,81,172
-23,-17,-56,-34,-75,-40,-32,-17,17,2
-43,0,-63,-13,-69,-39,-28,-9,-28,-73
-66,-9,2,8,-42,-38,-47,-63,-199,-248
-61,-15,0,20,8,-15,-34,-95,-290,-365
-51,-10,5,7,7,8,7,-49,-255,-450
-38,-16,-2,-6,0,13,12,-8,-188,-366
-30,-48,-29,-25,11,23,14,15,-60,-119
-43,-42,-28,-6,33,59,90,80,120,-44
-66,-14,-2,17,38,63,123,126,227,-76
-31,-2,5,9,12,22,77,104,263,16
12,10,18,-5,-21,-4,40,68,198,21
25,25,27,-13,-32,-3,18,46,50,-99
53,48,23,-19,-53,-28,-22,-23,-66,-74
79,59,42,-9,-55,-32,-45,-53,-78,48
48,80,90,30,-7,17,11,-27,-94,-9
9,69,22,40,27,39,33,-6,-68,-67
18,20,-66,-8,5,6,-15,-18,4,60
24,-8,-37,-36,-24,-3,-51,-32,45,165
1,-24,-34,-15,-20,22,-27,-38,20,117
-28,-29,-8,-21,-14,16,-13,-71,-68,60
-49,-55,-33,-44,-42,-16,-41,-100,-125,76
-42,-72,-49,-39,-36,-12,-55,-94,-122,146
-19,-55,-104,-19,-19,-22,-28,-53,-52,198
-1,-30,-60,-12,-28,-29,0,-16,64,180
4,-1,-13,11,5,-21,11,1,137,27
-15,34,-35,36,33,4,6,11,129,-226
-32,32,-53,55,68,59,40,75,103,-385
-26,29,-18,59,73,92,65,170,52,-344
-3,35,59,51,79,82,44,152,-24,-139
32,31,66,48,80,38,0,36,-64,71
32,28,59,31,46,-9,-29,-55,-91,217
6,17,47,31,35,-25,-21,-102,-233,92
-11,-2,22,22,37,-8,-56,-94,-315,-77
-21,-20,11,3,24,-1,-84,-88,-275,-85
-45,-27,20,2,21,-5,-75,-64,-235,-135
-43,-40,-1,-26,14,-16,-65,-52,-140,-93
-39,-43,-32,-52,4,-7,-38,-21,-15,19
-39,-40,-21,-58,6,2,-10,9,61,106
-33,-38,-26,-64,-1,1,-34,14,49,179
-38,-47,-45,-73,-19,-8,-51,16,43,183
-55,-46,-28,-56,-3,9,-46,13,56,90
-59,-11,-10,3,9,-6,-42,-6,42,101
-32,5,-6,28,-35,-63,-54,-6,69,300
0,12,14,12,-66,-79,-29,28,147,325
-1,9,16,-14,-52,-38,-5,39,162,91
4,6,-25,-37,-40,-9,23,62,175,-14
32,-3,-41,-63,-42,-2,37,86,254,158
54,8,-19,-61,-8,18,42,75,314,304
69,40,10,-30,10,6,45,49,323,298
34,33,51,1,11,-19,24,13,192,80
-33,1,42,20,30,1,43,50,102,-168
-87,-5,21,50,81,53,84,59,-25,-406
-88,4,35,81,127,83,85,-2,-215,-491
-87,-2,21,71,88,56,39,-74,-300,-226
-107,-18,22,82,97,75,41,-104,-366,-169
-122,-45,17,75,147,118,61,-97,-349,-282
-84,-26,-13,38,107,93,55,-81,-254,-279
-43,-23,-19,-7,41,43,35,-73,-153,-177
1,-9,-29,-22,-9,25,17,-53,-58,-40
54,39,-1,-7,-49,-13,10,-59,-8,46
75,68,3,24,-51,-40,-27,-75,1,46
72,76,-17,39,-28,-60,-29,-48,23,-15
57,76,-78,27,-53,-67,-24,16,68,-80
26,59,-40,11,-87,-75,-23,69,72,-137
16,32,-70,-2,-106,-70,-23,70,78,-139
45,27,-131,-49,-122,-54,-49,44,133,42
48,6,-50,-81,-120,-57,-76,22,166,243
44,-3,-2,-57,-115,-60,-71,25,184,257
51,15,16,-25,-87,-35,-57,22,133,169
43,8,20,2,-33,-10,-45,3,89,65
10,4,-24,57,53,34,4,5,41,-121
-5,12,36,70,95,75,37,0,-27,-68
0,-16,37,25,57,27,-31,-84,-115,274
-45,-62,23,3,29,9,-60,-122,-186,173
-80,-81,12,23,55,53,1,-58,-193,-133
-87,-89,-1,19,95,112,77,-15,-236,-213
-35,-62,-25,-22,65,108,107,-2,-217,-100
23,-31,-12,-40,32,92,103,21,-106,-21
37,-3,-6,-30,28,77,84,16,-36,-6
29,32,14,21,39,34,52,-10,-49,-9
-12,37,101,57,33,-6,25,-18,-47,-22
-4,36,114,60,0,-49,-15,-6,-1,-6
45,54,111,41,-52,-89,-57,-22,25,-7
52,61,101,15,-55,-91,-69,-46,13,-42
30,39,82,8,-10,-50,-62,-46,50,-88
20,40,27,9,25,5,-45,-8,103,-111
1,14,-31,-15,10,-1,-40,-15,137,17
-28,-26,-82,-70,-43,-49,-56,-33,186,204
-30,-38,-125,-93,-72,-44,-25,6,200,285
-29,-61,-55,-124,-79,-28,28,44,127,300
-38,-71,-52,-131,-80,-10,61,52,56,187
-7,-28,-17,-103,-60,14,57,56,74,146
8,14,59,-27,-8,24,41,38,50,51
-21,12,71,38,26,9,16,-12,-88,-146
-44,-12,42,45,37,-10,-33,-74,-205,-206
-21,-15,25,47,57,-1,-37,-65,-145,-93
10,13,37,47,60,23,9,-31,-25,17
0,24,51,56,86,98,36,1,68,22
-15,23,57,101,116,107,21,-3,110,27
-5,13,37,74,66,34,0,-70,94,136
13,28,30,33,1,16,9,-112,32,101
10,43,-13,25,-3,50,35,-115,-132,-145
-18,23,-16,3,-21,33,10,-41,-271,-293
-33,16,52,-7,-48,2,7,75,-232,-325
-19,13,38,-11,-47,-17,29,78,-162,-312
-15,4,9,-11,-17,-17,27,21,-99,-174
-11,-14,5,-4,13,-2,11,15,-37,-18
20,-13,31,-3,-16,-26,-30,13,8,101
55,-6,32,-1,-33,-30,-38,23,39,168
76,18,27,-10,-27,17,11,89,85,154
95,31,30,-19,-6,50,50,154,153,132
106,32,33,-4,-4,49,49,167,182,110
109,34,-8,11,-8,33,44,142,141,212
84,17,-93,17,1,8,12,58,53,325
21,-42,-45,-6,3,-19,-48,-50,-26,307
-21,-68,-38,-40,-8,-25,-84,-111,-70,187
8,-55,-25,-48,-12,-26,-110,-138,-93,118
17,-47,-30,-37,2,-14,-99,-139,-103,-28
1,-22,6,0,62,36,-28,-70,-97,-291
-32,-8,49,40,122,99,56,8,-107,-478
-47,-11,18,48,108,90,61,53,-55,-298
-16,-4,-53,16,41,19,7,41,37,14
9,1,-27,-12,-1,-30,-23,-1,82,156
6,-5,-85,-9,-1,-4,14,-21,15,29
-29,-33,-75,-35,4,26,55,-23,-77,-149
-75,-53,-85,-61,-5,-6,26,-56,-135,-265
-92,-59,-24,-54,-24,-23,3,-78,-120,-218
-72,-51,3,-13,14,-7,-23,-47,-66,-165
-35,-39,2,6,18,-21,-54,-19,-17,-160
-21,-29,11,12,-1,-31,-44,27,39,-115
-3,-37,4,0,-6,-39,-45,23,51,37
5,-44,-9,-36,-32,-58,-73,-22,73,256
0,-41,-20,-39,-42,-43,-69,-20,81,262
22,-22,13,-21,-24,-16,-12,30,123,192
55,12,39,-19,-28,-18,34,82,258,217
59,28,32,-52,-66,-44,27,74,318,195
38,17,22,-44,-72,-36,28,78,385,178
12,9,30,-9,-37,5,30,129,503,176
2,14,7,4,-25,26,27,117,381,158
4,0,-15,-41,-62,-24,-18,16,80,196
-17,-29,-30,-73,-86,-56,-55,-40,-86,152
-31,-6,20,-34,-34,1,0,-31,-135,-83
-22,21,65,23,19,41,47,-48,-236,-296
-13,8,46,4,2,23,27,-91,-318,-288
8,12,25,-16,7,33,20,-96,-317,-308
1,13,44,25,38,56,2,-128,-393,-379
14,35,43,40,37,15,-47,-177,-412,-225
57,42,35,54,24,-16,-49,-131,-253,44
52,36,28,54,13,-6,-18,-44,-71,336
34,43,-56,47,23,13,21,0,25,368
23,35,-29,41,36,13,13,0,33,26
0,28,25,22,37,20,21,0,-4,-365
-9,17,39,16,38,20,19,-29,-74,-422
-11,6,33,7,34,30,6,-65,-50,-222
-48,12,39,21,56,59,26,-62,-24,-193
-68,17,55,20,51,77,56,-16,11,-274
-39,13,-8,-13,19,46,71,73,83,-232
-19,-8,-163,-57,-30,-15,59,146,150,-45
14,-17,-211,-86,-58,-35,30,147,219,159
40,8,-140,-78,-27,-24,20,120,243,157
61,29,-17,-51,-19,-30,-17,68,163,113
39,22,19,-26,-55,-72,-80,10,28,88
-5,-1,16,4,-31,-66,-95,-18,-86,-13
-7,-10,7,31,6,-27,-75,0,-67,20
29,9,-2,16,-17,-17,-49,23,19,211
59,6,9,-12,-40,-24,-17,2,65,347
60,-6,21,-14,-18,-14,-24,-9,84,369
29,-10,-11,5,22,14,-10,11,54,199
-21,-7,-13,54,96,59,30,16,-107,-127
-39,-30,8,34,89,43,1,-19,-236,-209
-28,-46,-16,-4,46,4,-12,-18,-193,-87
-19,-53,-73,-7,43,7,-31,7,-107,-9
-24,-57,-48,1,63,23,-18,17,-53,-13
-32,-35,8,6,80,25,3,33,-1,-34
-30,-23,-6,-2,59,19,2,42,-12,-90
6,-1,12,-5,21,8,32,49,5,-100
51,1,24,7,28,24,50,69,94,126
54,6,38,21,30,36,35,101,231,399
23,6,48,11,27,24,41,114,324,278
29,-24,-8,-28,-15,0,32,116,436,139
55,-40,-17,-40,-36,-26,-6,87,452,345
45,-23,4,0,16,3,14,53,322,399
3,13,39,65,92,72,90,37,99,118
-2,67,106,96,68,79,90,-34,-244,-243
4,77,120,98,23,49,50,-108,-482,-460
-16,49,80,86,-15,-13,-9,-125,-442,-495
-3,31,32,33,-92,-103,-56,-116,-215,-217
13,6,6,-35,-150,-175,-79,-106,-108,-12
-21,-23,-7,-45,-119,-136,-37,-44,-62,1
-14,-42,-32,-61,-88,-119,-22,-21,-19,91
16,-7,-15,-61,-92,-99,0,-34,41,197
23,4,0,-23,-54,-22,38,-21,79,217
8,-10,-9,7,14,43,85,-4,95,181
-2,-3,-20,22,29,38,71,-2,53,76
-5,14,21,41,45,61,70,10,-27,-133
6,15,24,36,46,57,68,-8,-96,-270
8,13,2,1,-6,13,14,-46,-148,-241
2,7,-12,-16,-27,-9,-17,-64,-160,-164
23,3,16,-10,-25,-12,-22,-52,-88,-43
41,17,9,-17,-27,-13,-10,-36,-33,26
51,11,-8,-32,-21,-1,0,-11,12,70
52,16,5,5,-14,-18,-15,-36,49,124
37,29,23,25,-8,-38,-58,-75,49,122
4,5,-45,7,4,-31,-49,-88,36,76
-8,-21,-68,-32,-5,-31,-48,-82,33,-93
-40,-55,-94,-51,-16,-13,-40,-27,48,-245
-59,-51,-77,-30,-3,13,17,111,83,-192
-44,-22,-13,11,41,39,87,223,144,-60
-12,8,-22,51,89,70,116,231,202,39
25,9,-1,43,69,72,87,188,310,320
27,-5,18,9,32,40,44,136,353,503
-4,-8,38,17,27,39,18,88,251,190
-27,-20,40,34,38,66,-4,54,47,-258
-19,-33,20,34,64,66,-29,-6,-160,-336
-8,-42,3,17,85,31,-62,-90,-302,-173
-5,-37,-35,-2,66,12,-41,-106,-294,-82
-11,-14,-21,-8,28,1,-5,-77,-219,-36
17,17,10,0,-30,-32,-3,-67,-179,27
67,52,35,14,-87,-102,-52,-78,-127,96
79,58,34,19,-102,-106,-94,-93,-75,102
50,35,4,8,-69,-19,-87,-58,-12,81
21,23,27,6,-38,8,-44,-1,66,58
-4,15,4,18,-13,17,10,35,129,0
-17,0,-26,25,-14,23,41,60,154,-33
-33,-1,15,18,-36,21,42,76,125,-50
-17,3,27,8,-58,2,4,113,74,13
-5,0,11,-7,-58,-24,-20,104,32,89
-29,-14,-8,0,-27,-29,-33,30,-32,48
-23,-22,-71,21,-7,-21,-38,-22,-66,2
6,-12,-49,20,-11,-12,-12,-30,-50,33
-4,-9,-33,-2,-5,-19,-37,-25,-102,10
-41,-29,-82,-15,20,-22,-29,-24,-117,-39
-36,-26,-50,-23,23,6,26,-10,-62,-51
1,-5,1,-39,4,2,30,-29,-31,-40
-1,13,13,-43,-31,-19,0,-53,-15,-64
-11,23,29,-28,-62,-37,-14,-49,21,-94
-31,20,65,-6,-69,-31,-3,-9,64,-149
-47,18,83,7,-40,0,64,67,106,-216
-31,9,64,2,-16,23,128,145,129,-159
-24,-6,18,11,-15,3,103,128,120,0
-17,1,16,6,-17,-21,41,100,136,98
0,-13,10,-16,-40,-33,-5,84,191,177
26,-34,-5,-46,-45,-36,-52,61,274,302
24,-26,-25,-43,-41,-39,-59,39,313,415
18,-5,-15,-12,-35,-40,-41,24,367,420
26,9,37,6,-15,-33,-29,12,260,313
5,14,46,21,12,-35,-13,-71,-134,-92
0,28,49,32,12,-25,-40,-137,-441,-366
24,24,42,26,10,-6,-53,-98,-385,-221
47,2,37,8,19,7,-51,-54,-246,51
35,6,39,0,4,12,-27,-22,-186,286
-12,0,50,24,8,43,17,31,-206,79
-48,-10,35,45,46,55,29,45,-173,-230
-47,-26,-6,27,45,39,-8,-6,-139,-194
-42,-17,-17,27,37,24,-28,-64,-168,-82
-50,-14,-11,26,37,24,-20,-42,-160,-103
-61,-27,-42,30,40,39,-5,-1,-140,-216
-91,-39,-42,14,26,39,-20,25,-80,-300
-119,-42,-19,-6,19,22,-6,46,-28,-323
-94,-37,-10,15,33,33,0,43,5,-240
-44,-16,11,70,49,29,-30,13,16,-134
-17,21,30,122,75,-7,-44,-22,20,-92
12,44,60,104,30,-32,-24,-48,-21,-71
34,18,23,34,-27,-34,-35,-17,4,42
45,-15,-23,-10,-35,-37,-55,18,106,231
71,-14,-29,-31,-51,-45,-68,34,203,382
90,-14,-54,-52,-69,-64,-61,51,279,437
119,10,-26,-73,-80,-63,-48,73,438,476
120,41,6,-55,-51,-19,2,86,484,328
82,62,43,15,18,54,56,69,285,-12
33,69,50,43,37,80,54,-8,-63,-311
-16,44,17,9,-2,37,4,-68,-318,-233
-60,14,-9,-23,-9,19,6,-46,-400,-238
-68,2,-9,-11,-3,9,16,-6,-387,-307
-45,-11,-30,-18,-17,-27,-25,-35,-323,-156
-20,-5,-21,0,-16,-26,-26,-54,-184,-70
1,14,-2,42,15,-14,0,-32,-69,-55
3,15,10,61,39,2,16,-24,-16,-71
7,3,-7,37,21,-6,-4,-36,16,-85
7,-14,-46,12,-4,-22,-30,-40,71,-57
10,-6,-108,12,17,2,-5,0,145,-11
-2,-6,-73,24,43,42,41,29,149,57
-17,-5,-20,20,64,76,44,3,53,86
-25,7,16,36,86,84,42,-21,0,38
-31,15,14,27,102,81,56,-7,25,29
-32,-15,-21,-27,54,84,79,17,39,40
-16,-17,-25,-39,20,63,116,36,16,48
4,8,3,-27,-14,49,113,60,-8,175
-1,35,35,-1,-49,18,55,54,-15,192
-12,57,59,58,-40,-31,8,47,65,-28
-14,56,50,61,-19,-21,17,85,219,-218
2,42,29,41,-3,2,57,117,323,-169
33,39,37,48,16,29,79,101,284,-104
21,41,62,74,39,81,79,47,12,-234
-23,20,36,77,62,102,67,-23,-256,-350
-23,-15,-16,40,30,51,22,-64,-244,-78
-2,-28,-72,-26,-46,-61,-69,-92,-145,199
-7,-35,-111,-32,-6,-15,-77,-75,-110,113
-15,-48,-53,-24,51,61,-36,-16,-50,66
0,-42,-64,-45,-4,36,-8,20,45,114
12,-22,-53,-76,-83,-2,3,65,171,142
22,-9,-23,-41,-70,-12,17,129,284,82
12,8,5,-6,-29,-17,18,135,310,0
-4,-6,8,-22,-29,-34,29,126,315,-9
-12,-34,-30,-35,-39,-34,31,122,286,-7
-2,-35,-24,6,2,-1,0,45,150,14
16,-25,-9,22,27,17,-17,-54,-82,86
-2,-35,-11,-5,17,1,-79,-137,-357,-24
-15,-58,-50,-29,30,4,-88,-145,-435,-139
-3,-19,-10,-30,56,54,-33,-84,-252,-119
1,34,45,-5,34,68,3,-62,-194,-70
17,43,54,11,-11,-11,-28,-92,-187,71
31,41,29,-14,-85,-81,-61,-97,-130,137
51,42,8,-4,-67,-70,-74,-62,-85,74
64,19,9,4,-31,-57,-66,-60,-110,68
74,0,2,-26,-80,-112,-94,-69,-89,325
70,-8,-25,-55,-134,-188,-146,-91,-12,545
51,-5,-36,-36,-97,-158,-125,-56,80,425
39,0,-17,-13,-24,-74,-43,-19,118,194
15,-10,-5,-7,-1,-18,10,20,111,56
-23,11,38,13,23,20,47,65,97,-109
-72,17,49,64,63,66,70,58,-33,-436
-77,11,23,68,62,69,20,17,-124,-510
-34,17,42,41,32,23,-13,-18,-58,-224
4,15,22,14,12,12,-14,-11,35,15
6,-7,-32,0,2,28,31,56,88,-76
-30,-26,-50,4,17,67,75,96,79,-304
-38,-11,4,4,55,120,120,114,57,-354
-16,5,26,11,60,112,104,77,69,-167
14,14,38,-4,-2,19,23,22,135,48
15,16,36,0,-6,-10,9,23,181,48
0,18,23,27,24,17,20,22,188,-91
-1,16,18,40,24,29,20,12,98,-182
11,13,9,36,1,0,-1,-7,-35,-136
27,4,4,18,-41,-70,-54,-30,-69,15
15,-22,-3,-2,-34,-46,-65,-1,-1,181
-20,-34,-19,-5,6,0,-58,40,106,350
-16,-39,-54,-23,11,1,-47,43,108,354
-41,-46,-33,-19,49,42,17,56,-41,16
-66,-24,-5,-4,86,100,79,39,-224,-367
-45,-14,-33,-29,61,83,71,14,-208,-365
-17,-11,-92,-52,-19,25,35,9,-77,-180
-3,18,-29,-12,-29,-6,-7,1,23,-105
28,44,41,40,-12,-19,-32,-7,78,15
75,51,37,25,-47,-66,-51,-14,71,224
77,41,22,-8,-94,-96,-109,-58,0,350
33,26,4,5,-101,-102,-123,-76,-64,260
3,35,26,31,-91,-87,-108,-105,-197,85
9,40,34,36,-69,-65,-101,-127,-311,-28
30,16,-33,26,-15,-20,-96,-103,-237,-68
36,8,-107,19,42,-1,-59,-78,-144,39
23,-1,-80,25,77,-2,-35,-52,-101,189
-29,-17,10,29,130,-4,-60,-49,-102,153
-76,-53,1,5,112,3,-71,-38,-95,-86
-91,-91,-22,-22,-5,-18,-87,-1,-43,-229
-72,-93,-2,-11,8,-18,-95,25,0,-176
-45,-61,-8,-5,51,9,-80,44,22,-93
0,-41,-2,-56,21,13,-37,72,116,30
50,-32,-20,-84,-23,3,9,105,237,145
68,-13,14,-80,-44,7,37,128,313,206
69,17,37,-72,-65,19,94,163,343,181
32,41,60,-24,-6,92,159,201,278,-69
3,43,66,13,43,99,148,139,153,-211
17,48,65,35,58,87,95,45,63,-111
19,39,80,50,62,55,18,-64,-121,-46
-1,19,60,20,9,-38,-94,-179,-291,-1
-28,-17,0,-42,-56,-96,-150,-212,-366,-23
-37,-39,-45,-61,-57,-74,-115,-142,-235,-77
-27,-35,-27,-54,-45,-44,-47,-51,-58,-72
-6,-25,-35,-75,-53,-39,-24,20,66,30
-8,-22,-33,-68,-60,-69,-41,50,131,103
-48,-28,-26,-36,6,10,-39,43,125,65
-45,-26,-14,-23,79,83,-9,29,154,60
-21,-26,-54,-38,80,62,8,-12,165,98
-20,-24,-43,-46,58,50,29,-26,139,106
-17,-38,-41,-49,12,32,36,-18,108,112
-5,-38,-33,-22,-21,-3,41,-9,49,74
-7,-23,-2,25,-10,-36,10,3,50,145
-9,-2,14,57,23,-34,16,19,103,154
13,40,42,28,-26,-51,38,31,118,68
58,41,38,-14,-86,-70,23,15,157,186
63,20,-9,-39,-77,-44,24,21,258,363
47,25,3,-14,-36,0,65,50,248,183
1,52,-21,46,24,32,93,36,25,-220
0,60,-36,41,30,24,80,-38,-206,-331
16,52,53,10,9,-5,22,-114,-298,-82
7,44,69,27,7,-40,-31,-139,-314,130
-44,0,42,41,22,-9,-37,-98,-230,58
-86,-49,0,16,20,3,-25,-52,-124,-196
-95,-64,-26,0,30,49,12,8,-24,-293
-66,-55,-74,-18,24,51,17,42,41,-126
-7,-24,-159,-47,-21,-6,-1,68,107,0
41,0,-139,-54,-52,-23,22,73,127,-5
59,22,-18,-29,-29,4,50,74,127,-32
95,41,42,-19,-41,-28,16,41,155,83
82,23,26,0,-18,-25,17,76,184,133
34,31,-26,14,32,47,61,126,14,-134
-6,26,-69,8,30,40,15,22,-242,-299
-3,4,-21,-10,17,0,-60,-110,-362,-189
38,-12,14,-31,-46,-43,-84,-155,-324,-43
71,12,12,-30,-101,-87,-52,-80,-162,-9
94,31,39,-15,-90,-113,-15,29,21,2
56,42,58,14,-55,-57,49,87,133,-45
-12,33,14,29,-15,1,112,121,117,-206
-46,25,24,45,25,19,83,61,22,-163
-80,14,55,48,34,7,13,-69,-197,-64
-83,-14,-27,17,-15,-52,-84,-177,-394,37
-75,-35,-51,-3,-9,-35,-96,-167,-309,111
-51,-36,-14,-4,36,20,-43,-91,-145,116
-40,-36,-9,-31,28,41,18,-12,-52,71
-38,-39,-23,-54,2,31,51,38,7,58
-20,-19,8,-38,-4,36,56,39,44,93
-21,-5,-42,2,42,65,58,20,41,97
-21,6,-128,20,59,58,29,-11,27,88
-2,6,-37,31,17,-3,-6,-28,36,91
42,27,45,32,-18,-62,-48,-6,79,110
72,44,62,27,-31,-82,-82,10,119,160
75,30,40,24,10,-44,-52,13,187,372
59,18,19,7,36,-18,-15,25,235,493
47,39,33,-27,-53,-55,-5,55,241,263
9,54,70,-4,-94,-74,25,59,130,-180
-24,31,67,-11,-62,-57,45,32,-3,-401
-23,0,33,-29,-4,-19,30,34,49,-264
2,-13,19,-15,13,8,26,80,214,-57
-8,-19,19,-3,29,27,85,138,326,-24
-35,-9,14,20,112,112,145,133,307,-54
-34,-8,23,23,144,131,111,88,293,156
-3,8,44,31,123,105,26,23,192,205
-9,37,51,45,128,112,29,-18,-67,-105
-10,25,39,44,127,131,37,-59,-279,-200
-14,-13,-36,1,62,87,7,-120,-410,-84
-7,-8,12,0,33,61,12,-121,-430,-138
36,55,80,40,-39,-41,-23,-80,-365,-232
68,92,113,43,-155,-190,-102,-64,-249,-183
57,75,48,23,-148,-213,-111,-68,-143,-90
6,22,-88,26,-87,-116,-67,-35,-74,-82
-49,-22,-78,37,-51,-38,-38,21,-13,-145
-80,-51,-4,0,-56,-29,-41,46,20,-100
-76,-74,-31,-28,-56,-19,-46,46,91,-25
-58,-95,-65,-61,-47,-8,-52,56,204,43
-10,-72,-80,-96,-41,0,-41,94,317,115
37,-29,-18,-100,-65,8,-5,141,382,161
22,25,66,-15,-32,63,69,162,274,5
-14,62,116,72,37,114,87,111,28,-157
-15,28,77,70,50,56,1,-14,-116,42
-9,12,49,7,25,0,-63,-114,-235,91
4,30,29,-53,-59,-30,-73,-97,-184,-14
7,19,-20,-33,-57,-24,-53,-96,-83,-2
24,-9,-111,-27,-61,-53,-51,-131,-62,179
58,-10,-124,-46,-74,-98,-69,-131,-44,349
54,-3,-79,-56,-41,-102,-87,-124,8,292
6,-25,-35,-47,-4,-44,-82,-107,36,48
-68,-46,-23,-17,28,14,-8,-58,14,-112
-101,-38,-59,-6,43,52,61,59,-9,-71
-67,-23,-68,0,28,7,46,115,-20,61
-10,2,26,13,-12,-53,0,61,-10,162
24,19,55,9,-27,-47,1,25,16,189
33,42,46,-5,-18,-9,7,36,86,180
29,50,45,-24,-3,14,7,60,138,165
2,33,44,-22,21,38,49,93,187,101
2,24,42,-22,19,58,73,99,179,15
30,24,19,-17,18,53,56,58,77,-63
28,8,16,-24,20,16,15,2,38,-31
-22,-12,24,-2,50,1,-28,-82,-51,-67
-55,-23,12,42,90,22,-26,-135,-144,-122
-64,-33,-68,70,124,64,28,-100,-148,-105
-67,-26,-52,56,118,73,80,-58,-93,-76
-55,-17,-3,18,88,67,105,14,44,0
-44,-21,1,0,36,55,130,110,182,-38
-50,-19,-3,-15,0,40,134,146,228,-119
-53,-17,-10,-11,-27,29,103,110,100,-47
-84,-12,-15,10,-50,-32,41,17,-93,33
-100,-16,3,37,-29,-63,-38,-80,-291,-81
-63,-19,15,34,18,-31,-26,-96,-290,-140
-25,-15,17,-14,-18,-26,-14,-30,-154,-32
-25,-10,19,17,10,9,21,21,0,-6
-29,3,27,59,50,26,-1,-44,-17,10
-9,9,34,48,38,-6,-48,-114,-69,62
30,27,40,28,38,-1,-1,-79,0,117
56,23,19,-10,11,10,49,-29,5,159
62,16,-11,-26,-23,-18,41,-14,2,253
75,23,-26,-23,-81,-70,11,-13,85,327
85,35,3,-8,-95,-92,-24,-15,171,260
74,40,40,35,-43,-40,0,0,180,58
23,31,62,64,27,23,88,79,222,-68
-23,24,78,95,86,75,152,125,146,-312
-83,0,33,86,158,144,159,92,-99,-575
-92,-38,-51,44,152,131,81,20,-183,-405
-61,-60,-118,1,51,16,-12,-22,-123,-33
-29,-37,-32,7,37,5,9,6,-61,-70
-13,-9,48,45,95,57,25,0,-79,-171
-5,-4,43,37,84,76,6,-25,-124,67
13,-9,21,-21,-22,0,-7,-49,-138,251
21,-15,2,-39,-96,-52,-38,-71,-102,130
37,0,9,-23,-99,-64,-104,-95,-40,-47
54,8,11,-25,-88,-67,-154,-81,14,6
94,2,-33,-21,-76,-63,-138,-52,75,186
109,-2,-66,-18,-64,-74,-94,-51,94,327
73,11,12,5,-11,-28,-37,-44,63,233
23,13,41,48,44,32,30,20,106,43
2,12,30,51,52,45,59,66,134,-107
9,-1,-23,20,12,5,26,35,24,-120
26,-5,-137,-2,-21,-23,-18,24,26,-29
21,1,-75,5,-15,-19,-24,42,102,-28
19,-1,18,2,-1,-4,-5,33,24,-72
15,-2,38,-4,-8,-6,-5,-27,-169,-99
-8,-20,26,-13,-23,-24,-39,-77,-348,-181
-7,-32,9,-21,-33,-19,-61,-73,-322,-177
16,-35,-9,-23,-35,1,-55,-43,-145,-87
22,-29,-33,-6,-22,13,-14,18,53,-28
14,-11,-5,4,9,42,29,44,170,-40
16,-8,2,-9,19,53,47,7,175,0
12,-7,12,-20,23,42,30,-48,72,60
-2,5,29,-1,52,70,54,-37,64,101
14,-5,14,-10,47,83,79,11,101,191
32,-18,-24,-46,0,20,33,8,127,324
39,-29,-31,-83,-42,-52,-12,-11,233,457
42,-37,-39,-85,-53,-54,0,19,358,478
53,-11,-34,-54,-63,-24,17,75,349,334
59,8,-12,-41,-69,-24,33,99,185,149
51,22,1,-16,-35,-22,57,103,12,-81
11,59,77,38,28,19,89,66,-190,-408
-30,60,91,53,65,65,70,-33,-394,-510
-50,8,41,3,30,34,9,-117,-422,-211
-46,-20,-15,-3,19,19,-5,-93,-293,11
-34,-12,-3,45,86,81,56,-4,-130,-75
-16,20,7,70,108,119,80,51,-35,-171
12,46,52,82,91,89,28,8,2,-128
41,44,60,35,35,19,-49,-61,0,27
52,33,46,0,10,-3,-73,-46,-11,120
29,32,41,8,0,-9,-66,-30,-67,81
26,28,18,8,-21,-45,-47,-31,-84,74
32,3,11,-12,-42,-94,-65,-25,-53,79
31,-9,0,-29,-43,-99,-68,13,11,70
17,-24,-20,-22,-18,-73,-58,42,45,22
8,-30,-9,8,7,-36,-32,48,84,-17
-6,-20,10,26,8,-26,-46,19,42,-68
-2,-4,29,25,1,-16,-56,-18,-18,-76
-6,3,23,12,39,46,-25,-40,-68,-68
-16,-1,7,-5,76,77,-12,-69,-142,-79
-20,-12,-1,-39,43,46,-22,-50,-150,-81
-41,-23,-22,-59,29,69,16,53,-45,-124
-38,-15,-28,-74,53,129,96,176,131,-148
-10,0,1,-58,65,145,108,201,217,-119
15,17,22,-7,76,107,50,95,104,-79
43,35,43,36,72,46,-4,-17,-21,-54
89,59,46,29,7,-13,-24,-18,42,157
104,80,67,55,-44,-60,2,0,115,394
58,55,58,70,-37,-79,1,-54,29,397
6,-23,-8,-6,-79,-112,-21,-58,-9,189
-31,-60,-32,-37,-121,-128,-33,-11,20,-100
-75,-44,-47,-32,-119,-106,-7,0,-16,-301
-78,-26,-84,-32,-90,-99,-19,-38,-86,-200
-62,-30,-58,-40,-75,-107,-20,-42,-121,-49
-39,-15,-31,-30,-56,-83,-29,-30,-122,-79
-4,18,-6,-14,-24,-41,-24,-28,-105,-138
16,29,22,4,-20,-23,-12,-35,-86,-167
9,44,40,24,-21,-31,-12,-33,-55,-171
26,50,47,23,-8,-14,19,3,2,-158
30,42,2,12,17,9,56,40,39,-172
41,44,-5,-10,-4,1,34,22,47,-134
30,23,14,-28,-29,-12,17,16,39,-78
11,15,5,-11,-15,-3,27,18,47,-103
-5,1,-4,-10,17,-4,6,-16,53,-38
-1,-21,-35,-67,-25,-16,-9,-32,44,80
-5,-24,-14,-61,-33,-3,18,-24,-52,5
-29,-14,8,-16,3,8,19,-50,-179,-137
-57,-14,-86,18,16,-11,-52,-126,-274,-141
-58,-13,-161,13,-3,-33,-104,-154,-207,-24
-79,-63,-165,-8,12,-12,-114,-144,-106,73
-95,-92,-65,-8,74,36,-65,-129,-80,68
-97,-101,-19,-17,115,82,-8,-71,22,71
-104,-92,-40,-21,171,140,28,11,188,123
-72,-49,-17,-59,108,134,58,45,241,148
-21,-33,4,-69,38,110,84,18,123,103
39,0,14,-59,-32,44,80,36,69,283
91,48,33,8,-86,-68,30,134,67,461
111,84,89,85,-105,-175,-76,97,-16,291
100,74,103,51,-137,-192,-121,14,9,-10
46,45,46,2,-117,-138,-70,45,156,-248
14,29,9,-6,-73,-54,-14,111,300,-264
42,37,54,-5,-49,-13,-17,168,428,-122
43,31,64,12,-14,14,42,193,490,-41
4,29,94,60,51,71,83,153,377,-119
-8,18,79,57,49,52,30,48,200,86
9,-23,-12,-15,-4,-31,-40,-59,16,408
1,-66,-71,-81,-59,-82,-107,-118,-161,375
15,-68,-73,-104,-98,-75,-123,-105,-178,363
8,-35,-15,-59,-53,-22,-64,-63,-128,207
-14,14,50,19,27,45,8,-37,-97,-127
-21,18,57,72,77,61,15,-66,-154,-292
-24,6,27,68,63,50,-28,-132,-273,-247
-27,-28,-10,23,20,23,-29,-171,-322,-210
-31,-49,-59,-10,19,30,5,-133,-216,-113
-15,-36,-39,-29,-8,15,28,-75,-103,3
3,-15,-17,-18,-13,16,48,-59,-68,29
-10,17,21,15,23,53,84,-21,-109,-97
-42,35,49,44,55,99,105,-23,-141,-192
-31,47,53,48,36,62,74,-31,-65,-89
2,38,20,37,-4,-26,-6,-28,43,58
3,-6,-47,21,-12,-42,-39,-3,121,109
-5,-16,-7,6,-7,-23,-8,30,144,85
-12,7,18,-3,-21,-13,0,43,120,62
-6,20,22,12,5,28,42,70,72,-53
0,12,41,24,25,73,70,69,10,-107
-12,-15,30,0,-7,29,30,33,11,31
-26,-25,10,-12,-9,16,11,41,16,-101
-3,-23,-6,-27,-20,28,1,80,105,-242
9,4,-14,-23,-2,69,62,141,286,-107
0,33,28,26,74,139,123,173,395,52
-22,28,63,72,119,129,91,105,316,96
-59,-21,5,65,101,77,34,28,123,-18
-64,-32,-44,57,124,59,0,-53,-193,-235
-4,1,7,12,66,1,-65,-176,-435,-160
4,-8,-1,-32,-9,-49,-111,-231,-438,-5
8,-12,2,-32,-41,-57,-111,-170,-278,29
24,-2,7,-14,-68,-59,-73,-42,-113,37
9,6,20,13,-67,-52,-70,12,-69,-12
9,6,15,-7,-69,-71,-83,8,-85,-33
16,-3,-3,-35,-92,-95,-88,-22,-119,-4
13,-10,-10,-44,-91,-77,-75,-32,-54,29
-4,-23,-14,-21,-3,0,-62,-25,-15,-28
-12,-19,-39,-12,25,-4,-64,-44,-59,-46
-4,-27,-35,-23,-37,-61,-100,-66,-128,35
2,-37,-20,-47,-71,-69,-110,-46,-130,69
9,-41,-23,-27,-35,-28,-59,-2,-71,9
27,-17,-15,-17,-7,2,-22,21,-12,23
36,-4,-27,-32,-18,-4,-25,26,-2,87
25,-12,-100,-38,-16,-11,-11,27,16,137
32,-16,-81,-25,-2,-23,14,26,71,212
34,-22,4,3,14,-18,37,11,139,212
11,-20,21,34,24,-21,11,3,173,150
1,-12,30,46,33,-34,0,5,151,68
23,-14,11,29,32,-13,28,39,142,39
25,-2,3,26,40,21,78,81,162,-24
20,29,20,31,-11,0,59,73,157,-43
15,22,25,15,-35,-6,47,71,142,18
-37,-2,22,21,-9,47,98,103,44,-61
-79,-24,15,27,7,64,112,53,-107,-107
-79,-47,-14,27,7,32,86,-3,-176,-37
-77,-80,-59,13,64,31,59,-1,-103,82
-10,-49,-67,-51,10,-9,2,-2,-39,201
48,-5,-43,-82,-107,-91,-48,7,26,270
97,1,-82,-77,-149,-114,-43,62,144,310
133,29,-91,-45,-135,-109,-40,86,218,428
149,63,25,13,-58,-57,-9,48,128,635
130,94,85,54,11,-4,45,18,37,686
66,89,87,42,34,60,70,25,-16,348
36,63,73,8,38,94,66,14,-84,-267
46,34,46,-28,7,37,37,11,-69,-484
41,-9,8,-35,3,13,68,59,76,-378
26,-21,-4,-26,36,46,113,127,222,-251
21,3,14,0,78,102,138,178,297,-195
-15,30,36,27,113,150,168,195,288,-249
-77,30,45,55,142,181,168,184,187,-303
