-21,-41,0,45,146,94,24,7,29,-23
-4,-13,-12,56,57,51,23,26,61,1
-2,-8,12,63,10,10,13,23,68,-6
-11,-15,52,46,-9,-18,0,15,63,-12
-16,-10,50,35,-9,-27,-5,16,41,-2
26,1,31,1,-49,-40,8,51,62,27
58,-4,27,-5,-26,-22,18,50,58,31
54,-15,7,26,89,62,17,20,12,19
61,1,11,42,91,53,25,16,-2,27
54,2,10,23,40,17,20,24,-8,33
54,20,16,20,-4,-37,10,37,0,44
78,32,33,6,-91,-113,-7,35,5,40
60,-10,-1,-19,-45,40,-8,-18,-33,1
31,-51,-35,-38,23,222,-2,-53,-57,-18
67,-25,0,-34,-105,96,-3,-17,-26,15
107,25,39,-38,-272,-101,-27,20,11,74
93,24,99,-27,-293,-186,-41,24,13,66
35,-11,242,20,-136,-160,-44,-14,-16,4
-7,3,281,20,-43,-163,-62,-37,-37,-42
-36,57,167,-26,-161,-245,-87,-58,-36,-63
-59,-8,22,-62,-121,-147,-87,-74,-33,-85
-103,-130,-162,-94,-41,77,-67,-111,-87,-143
-113,-169,-264,-85,64,150,-56,-156,-156,-168
-57,-108,-207,-38,191,139,-34,-147,-158,-139
44,-14,-64,0,140,102,27,-61,-64,-58
124,74,-106,-7,157,142,78,15,14,8
171,150,-111,-39,130,192,112,51,66,60
157,182,3,-36,22,126,101,44,104,108
105,244,97,2,-26,40,25,-3,60,90
82,282,192,17,-59,11,4,-7,37,58
68,215,231,23,-195,-67,-5,17,52,52
18,88,287,39,-330,-176,-45,-3,21,25
-69,-45,181,43,-261,-170,-93,-70,-57,-46
-154,-139,35,14,-108,-179,-151,-144,-165,-135
-175,-214,-152,-79,-29,-163,-127,-146,-182,-138
-150,-241,-243,-110,33,-150,-106,-104,-125,-72
-112,-133,-165,-91,32,-159,-113,-91,-110,-30
-99,-30,-42,-40,91,-21,-72,-69,-83,-8
-41,17,-60,-14,51,114,-2,-22,-2,69
47,75,-153,-74,-195,86,34,32,56,164
13,52,-164,-127,-225,100,20,-16,37,141
-97,-84,-250,-80,142,213,4,-74,-39,0
-87,-108,-216,-11,430,342,95,0,-40,-62
4,-128,-95,2,319,249,102,40,-26,-55
29,-132,-64,4,257,183,85,73,1,-20
63,3,-66,4,178,171,87,79,24,15
98,73,-24,26,142,132,33,49,32,40
112,42,36,51,167,58,-2,44,53,63
96,45,41,26,127,-81,-32,31,73,84
51,32,-38,5,71,-92,-56,7,87,70
17,-8,-36,31,30,-31,-40,-5,84,28
-47,-48,184,61,-41,-36,-45,-32,54,-31
-154,-104,259,49,-184,62,-60,-93,-29,-141
-224,-60,305,11,-248,34,-46,-86,-70,-189
-243,31,291,2,-250,-126,-95,-87,-92,-180
-279,16,558,99,-240,-292,-238,-230,-213,-186
-228,34,936,209,-274,-362,-327,-278,-215,-89
-73,132,772,202,-187,-235,-279,-222,-77,100
-13,75,378,157,-132,-144,-164,-120,31,228
-110,-278,-132,95,-31,-71,-55,-41,88,236
-204,-543,-656,-30,79,11,13,9,113,165
-145,-437,-785,-143,75,153,82,61,115,82
-25,-171,-485,-51,32,196,108,86,80,23
90,205,-382,10,101,209,114,109,106,6
249,328,-318,-43,38,96,105,153,190,80
380,308,-243,-134,-16,49,111,155,189,139
339,318,-157,-131,35,75,127,114,52,13
91,133,-148,-56,199,270,114,12,-227,-299
-65,-37,-222,-1,152,378,169,46,-283,-347
-61,-99,-195,16,-27,265,146,116,-162,-141
-40,-139,-95,93,22,105,36,57,-65,48
-17,-93,51,159,343,76,20,40,24,213
20,-10,85,140,499,68,45,53,101,308
55,38,32,109,529,112,25,24,119,322
22,80,-82,61,493,192,0,-10,36,165
-74,79,-196,2,245,218,13,-34,-72,-91
-129,65,-231,-77,-175,75,-105,-161,-202,-320
-130,10,-82,-116,-383,-76,-247,-281,-309,-438
-106,6,253,-63,-298,-97,-206,-233,-222,-340
-18,64,566,15,-131,-35,-83,-92,-5,-112
36,138,820,129,22,86,21,2,123,-8
28,143,679,159,111,182,99,10,62,24
3,56,194,46,84,176,169,58,33,83
4,135,-261,-120,-192,12,221,231,205,188
42,163,-544,-180,-279,-114,121,238,341,260
29,-18,-599,-22,-2,63,50,140,412,341
100,20,-434,13,79,102,79,168,525,554
220,151,-162,-142,-325,-199,6,179,512,642
187,241,324,-155,-591,-387,-88,84,255,389
22,226,593,-74,-424,-102,-44,-14,-151,-71
-53,168,655,13,-173,67,24,-62,-295,-276
45,199,781,97,-44,103,10,-86,-222,-173
98,-4,653,100,-57,123,-38,-115,-178,-27
-92,-504,76,80,149,403,-84,-257,-293,-67
-328,-484,-346,71,343,464,-161,-449,-414,-233
-357,-173,-43,26,317,249,-209,-580,-517,-397
-253,-167,284,-96,-114,-41,-148,-368,-402,-436
-221,-26,358,-132,-434,-353,-231,-82,-234,-504
-305,-18,2,-89,-301,-328,-249,67,-154,-626
-327,37,-377,-66,245,96,-121,113,-141,-666
-98,228,-370,16,493,288,-3,89,-219,-567
48,272,-338,55,275,222,21,54,-371,-442
80,206,-444,-52,75,67,-49,70,-406,-226
-21,-23,-304,-112,-127,-151,-165,110,-329,-58
-73,-245,-133,-68,-219,-290,-268,102,-90,163
11,-263,-202,-5,-78,-303,-332,12,16,325
161,-43,-251,42,285,-68,-130,114,4,341
307,180,-140,77,457,176,212,401,77,338
223,182,-272,121,553,413,326,392,-3,165
116,172,-140,141,334,375,166,187,-184,-93
71,184,755,276,-192,51,-60,23,-320,-276
-51,239,1048,367,-683,-375,-264,-155,-430,-420
-246,227,671,281,-1080,-871,-522,-463,-584,-550
-441,-53,73,92,-1075,-997,-657,-686,-692,-602
-305,-202,-32,-24,-989,-849,-472,-379,-416,-334
-90,-176,308,-59,-1101,-898,-227,236,73,35
-26,-258,373,-55,-618,-717,-224,279,193,96
-73,-326,-102,-166,692,124,-165,150,169,32
-49,-326,-478,-243,1528,904,132,326,343,153
191,33,-542,-275,1173,876,243,455,473,327
222,155,-670,-270,509,587,154,343,383,250
191,277,-619,-233,132,411,119,259,275,132
192,98,-340,-109,107,366,111,237,209,119
151,-66,-197,88,351,507,187,231,105,137
159,-209,-290,149,398,562,351,261,89,213
239,-338,-422,122,326,592,440,281,96,232
306,-267,-251,217,312,557,331,199,163,221
397,-50,-104,122,-18,210,38,40,245,275
487,249,-179,-148,-507,-166,-117,-39,230,248
252,123,-254,-215,-510,-89,70,168,125,81
-83,-228,-179,-101,-160,113,207,314,-74,-132
-210,-324,-185,-36,120,64,25,136,-221,-223
-132,-146,-227,53,403,4,-168,-10,-272,-209
17,102,-64,140,81,-267,-220,-144,-334,-210
-24,138,138,44,-501,-552,-220,-159,-377,-147
-143,-357,347,-64,-767,-748,-224,6,-240,113
-277,-841,728,51,-1041,-1012,-415,-114,-232,212
-430,-924,743,43,-698,-801,-535,-390,-356,75
-518,-867,365,-10,427,-74,-556,-618,-435,35
-331,-640,172,71,943,339,-532,-532,-241,459
-6,-298,1,125,285,24,-390,-113,109,856
180,380,-347,-8,-39,0,-218,39,201,749
339,1031,-751,-222,71,249,23,75,205,495
276,508,-968,-287,261,413,417,459,408,230
219,35,-747,-201,298,383,574,747,551,-73
275,-9,-339,-46,468,324,454,677,479,-166
401,106,-170,91,745,532,534,645,563,148
405,501,24,141,634,707,592,559,510,206
312,911,372,167,278,632,500,355,265,-87
354,1180,529,92,6,376,336,124,86,-386
306,833,333,50,-149,105,178,-90,-15,-500
107,469,259,159,-124,10,57,-277,-157,-456
-42,454,437,105,-240,-181,-28,-255,-253,-442
-264,334,321,-128,-739,-619,-54,94,-150,-520
-568,-129,-189,-256,-565,-640,-116,226,-65,-557
-770,-865,-203,-61,445,12,-178,24,-171,-546
-580,-884,603,277,851,348,-104,-75,-162,-216
-342,-426,1293,405,660,275,-100,-125,-124,21
-167,37,871,135,141,-18,-231,-247,-189,0
96,365,24,-44,76,112,-48,-25,48,134
133,554,-516,-207,68,170,103,307,279,145
73,417,-480,-299,6,164,68,258,181,-64
214,165,-175,-194,127,309,157,126,134,-60
219,139,-22,-116,206,344,232,134,155,-15
130,71,150,-131,140,237,174,91,93,-10
15,-384,122,-194,58,22,-34,-54,37,48
-184,-853,-255,-331,-100,-274,-233,-98,-31,40
-160,-603,-727,-460,-222,-415,-243,111,20,102
-45,-429,-800,-451,-208,-269,-145,98,-20,194
-91,-444,-278,-484,-586,-386,-169,-55,-127,143
-204,-283,215,-485,-985,-596,-290,-166,-192,-29
-151,218,233,-232,-805,-552,-319,-169,-128,-83
63,594,187,-6,-607,-566,-310,-131,-11,97
217,331,466,123,-442,-632,-260,-76,62,295
228,359,570,327,245,-282,15,153,228,299
416,794,178,207,364,46,284,391,481,286
493,261,-52,-63,-245,-135,207,334,475,249
213,-300,-206,-115,-276,-182,-43,47,261,212
10,185,-622,-210,-84,-226,-194,-186,106,155
-87,554,-804,-357,-168,-337,-142,-202,19,-88
-181,148,-331,-217,60,37,98,-66,-1,-285
17,-344,298,121,403,541,477,239,258,-99
68,-609,811,489,519,675,655,339,369,-33
-260,-548,865,667,524,610,553,162,138,-352
-405,-90,-192,243,174,212,186,-162,-245,-638
-292,25,-1129,-299,-215,-199,-128,-324,-440,-649
-110,-438,-869,-160,-99,-67,-29,-219,-264,-258
-36,-439,143,157,47,64,18,-283,-194,-6
-148,172,849,194,-41,-18,-35,-411,-220,-34
-144,606,867,-35,-190,-111,-51,-333,-153,-12
-166,365,767,-98,-178,-131,-7,-4,124,210
-297,152,328,-21,66,-18,18,-19,117,191
-77,319,-435,-206,165,63,40,-294,-139,52
196,387,-192,-259,146,145,233,-244,-145,34
117,148,1065,31,212,190,490,286,164,107
45,244,1989,201,46,-126,238,379,196,46
212,955,2185,76,-242,-449,-73,122,23,-33
364,1337,1887,-166,-381,-507,-212,-99,-170,-218
-251,456,1171,-272,-436,-598,-450,-416,-486,-686
-514,24,-624,-466,-660,-837,-615,-593,-624,-820
-18,-296,-2029,-319,-439,-450,-223,-221,-204,-262
62,-639,-1340,352,192,103,260,217,218,145
-45,-861,-720,763,473,250,439,350,371,223
191,-427,-873,627,20,195,433,291,357,316
494,391,-789,342,-565,7,346,171,310,441
496,107,-219,326,-647,-121,281,109,273,530
295,-432,263,304,-670,-116,233,137,252,538
197,-712,270,257,-20,30,68,84,129,396
159,-884,518,326,882,-38,-292,-264,-209,92
-170,-533,1674,282,587,-195,-477,-507,-398,-148
-694,-258,2004,180,74,-502,-590,-575,-471,-408
-956,-294,1494,141,17,-476,-428,-331,-295,-410
-677,267,1222,236,-264,-395,-363,-254,-210,-323
-305,290,245,410,-124,-253,-341,-328,-284,-298
-589,-551,-913,529,652,157,-148,-331,-415,-458
-239,-282,-1970,1,625,228,-35,-255,-407,-401
526,-361,-1828,-223,285,229,224,48,-10,121
551,-354,-1202,-227,190,344,388,218,251,390
144,-9,-690,-369,153,437,337,121,160,260
20,-85,-814,-429,139,511,411,116,122,257
142,-361,-1177,-341,209,544,460,151,174,335
9,-538,-1184,-111,486,644,563,326,294,342
-82,-672,-651,328,460,521,471,206,228,263
-21,-234,-430,295,-14,-146,-237,-441,-319,-150
54,-141,-695,-186,-481,-634,-713,-686,-594,-402
-114,-506,-697,-298,-487,-405,-394,-317,-239,-198
4,-184,-135,-346,-427,-149,8,79,159,128
230,-157,-87,-344,-446,-10,254,240,354,327
435,653,-544,-348,-798,-302,185,126,353,375
450,1265,-544,-550,-1086,-799,-126,23,307,313
109,347,321,-251,-23,-232,-110,96,332,225
-81,-320,1770,374,986,358,66,132,323,207
-37,-940,2902,925,949,602,313,296,400,276
-395,-2096,2403,1117,675,800,615,547,469,111
-533,-1454,-61,333,295,470,390,297,200,-153
221,620,-1719,-581,-61,46,-3,-157,-170,-203
533,779,-1795,-528,9,241,226,17,10,129
440,1061,-1320,-282,-6,392,478,213,212,338
818,2061,-955,-380,-156,149,225,-74,-54,181
602,1101,-832,-248,164,253,143,-105,-137,46
35,101,-486,16,211,143,96,220,81,18
-24,8,-389,123,128,33,76,385,190,47
109,16,-393,143,138,109,147,276,159,114
154,61,-34,210,185,158,212,212,225,250
314,178,758,362,214,104,206,164,237,385
406,188,624,231,77,54,269,294,270,347
224,-151,-26,-33,18,145,346,344,248,180
30,-148,-270,-185,52,205,170,81,42,-13
124,655,-170,-151,-149,-21,23,-76,-42,40
134,619,69,3,-144,-105,33,-60,-16,175
151,620,261,121,146,16,108,-55,-53,209
359,835,509,223,-122,-114,201,-7,1,255
221,191,207,194,-785,-353,250,123,118,220
167,-350,-488,-48,-1162,-569,35,-14,17,113
-34,-465,-567,-10,-556,-213,9,-123,-122,-43
-235,-562,-405,244,701,286,200,64,-30,-103
-255,-502,-413,231,1497,610,256,85,-7,-114
-143,-331,-210,4,1017,576,94,-145,-127,-105
86,-77,-47,-119,360,375,71,-179,-70,41
361,377,78,-105,283,333,237,-4,125,245
489,646,124,-140,174,221,322,313,394,408
509,644,239,-135,71,88,299,522,538,475
324,359,235,-33,50,4,188,291,318,284
167,-128,46,24,-29,-86,84,80,129,159
206,-262,65,104,-50,-82,79,65,152,205
171,-94,124,157,208,102,47,-5,103,152
92,38,257,228,360,319,170,55,171,185
88,307,43,105,99,227,247,65,199,255
214,291,-255,-99,-182,-12,111,-8,142,254
145,398,138,-68,-351,-223,-55,-125,43,95
-18,563,458,-35,-314,-287,-195,-320,-134,-172
-317,174,471,7,81,-176,-209,-454,-302,-396
-415,-228,419,-30,265,-43,-79,-280,-169,-279
-299,-465,230,-49,68,-1,29,-26,41,-67
-171,-288,60,-115,-103,-95,-66,-123,-46,-42
-49,-38,-173,-144,-142,-172,-97,-123,-98,10
45,73,-473,-84,-186,-248,-180,-204,-198,40
-73,-413,-368,108,-237,-398,-398,-373,-337,-4
-322,-796,-9,232,-321,-520,-538,-413,-396,-88
-267,-616,363,252,-466,-570,-421,-334,-291,119
16,-107,333,285,-419,-366,-20,17,86,487
188,680,300,242,-287,-170,290,325,354,370
69,583,-70,175,345,353,536,523,440,-140
-175,-66,-180,149,888,757,599,494,317,-534
-165,-484,7,65,347,452,382,383,236,-521
-273,-606,35,37,-53,189,84,143,60,-446
-418,65,53,-39,2,-61,-90,-49,-104,-530
-421,896,-62,-223,-217,-314,-278,-306,-329,-707
-246,226,-122,-253,-259,-171,-269,-276,-276,-503
20,-566,159,84,333,280,6,30,56,70
214,-245,523,290,490,250,72,94,112,277
200,246,457,115,79,-44,-37,-59,-10,109
151,809,-121,-146,-137,-116,-83,-192,-135,-49
123,862,-280,-79,-72,10,33,-120,-87,-16
-175,287,529,65,119,-18,-29,-145,-127,-125
-279,-301,1323,153,320,17,-7,-72,-34,-60
-318,-360,1577,209,278,127,83,91,107,44
-314,-375,1294,73,77,69,-35,-61,-5,-33
-361,-545,695,149,-21,-142,-199,-241,-141,-112
-159,311,-501,-99,-136,-355,-388,-411,-277,-205
227,-111,-1460,-377,-24,-144,-137,-145,53,173
328,-393,-1076,-321,118,165,260,245,454,565
458,71,-944,-302,-93,87,277,306,549,667
414,346,-672,-278,-347,-56,218,251,489,503
131,172,-134,-55,-437,-96,229,242,366,160
-41,70,-46,-5,-583,-219,173,195,222,-208
-155,12,-141,-66,-539,-277,-73,-91,-95,-482
-263,-147,-257,-16,-150,-179,-311,-436,-498,-653
-325,-441,-396,99,365,152,-123,-318,-466,-596
-270,-671,-425,182,503,516,401,256,10,-207
-189,-562,-68,196,403,538,542,433,242,105
35,91,331,134,305,351,216,69,29,96
496,912,257,14,205,118,-61,-161,-142,103
574,679,13,-67,-16,-111,-153,-74,-64,255
129,-52,-108,-27,-266,-308,-199,-48,-11,104
-140,-240,119,44,-548,-476,-259,-134,-113,-223
-71,-29,390,-50,-906,-716,-270,-148,-183,-317
-135,-83,916,-66,-1047,-951,-391,-261,-263,-108
-410,-606,1270,167,-200,-606,-448,-400,-331,254
-202,-503,1104,414,778,279,27,-53,40,696
37,-628,714,320,687,679,409,209,291,703
-105,-97,338,92,372,532,326,35,83,215
-81,919,-687,-316,17,97,6,-273,-206,-55
291,1057,-1613,-684,-254,-191,-195,-295,-154,107
202,115,-1099,-511,-320,-317,-243,-44,57,222
-88,-388,-500,-277,-250,-272,-148,85,142,234
-138,-167,65,-170,-153,-220,-112,44,74,-5
-71,465,829,-169,-159,-258,-245,-217,-214,-432
-105,1087,1277,-245,-286,-358,-416,-461,-449,-615
-175,618,939,-297,-321,-315,-322,-382,-364,-422
-265,-313,211,-366,-307,-253,-167,-257,-296,-353
-255,-955,-528,-278,-80,59,141,-20,-175,-424
-22,-831,-572,135,231,385,447,254,103,-248
264,-42,-714,438,169,285,466,350,234,-104
258,664,-789,362,-423,-269,170,159,108,-62
146,263,-541,229,-725,-508,-33,86,105,81
12,-136,-247,136,-301,-179,-12,119,136,250
-86,-130,-35,30,391,271,22,5,29,231
4,102,-12,-14,527,343,74,-13,38,285
137,43,-49,18,119,184,168,179,235,424
117,-249,272,246,-256,5,189,268,340,414
-2,-398,435,466,-259,-70,133,144,242,256
-121,-251,377,342,-162,-123,148,133,191,29
-172,235,-242,-83,24,-114,-10,-33,-19,-292
-74,110,-681,-144,936,412,-8,-108,-124,-243
90,-146,-366,54,1176,670,257,158,102,346
178,-125,-177,6,470,348,229,232,135,510
175,346,-72,-83,29,25,47,101,14,177
138,514,-53,-120,-20,39,-43,-15,-103,-250
115,191,-51,-74,-2,109,2,25,-84,-270
160,124,26,-23,-111,-53,-40,30,-26,-50
96,168,243,73,-289,-296,-175,-139,-114,-54
-79,288,528,66,-483,-509,-286,-297,-249,-248
-336,70,559,47,-375,-323,-193,-277,-289,-405
-618,-438,437,56,-239,0,-114,-249,-332,-601
-666,-996,127,-91,-621,-346,-258,-142,-229,-607
-421,-1059,-421,-229,-780,-586,-302,-25,-66,-417
-270,-162,-658,-237,211,36,-227,-180,-175,-359
50,182,-570,-114,985,594,116,17,42,36
307,359,-241,-10,634,446,207,146,215,362
303,268,-135,50,-20,-24,5,70,183,409
125,190,-178,182,-308,-404,-220,-134,-68,152
-144,128,4,254,-61,-364,-383,-345,-355,-311
-212,-42,-152,19,82,-117,-223,-189,-226,-388
-65,-34,-183,-175,13,23,-7,42,43,-127
62,172,47,-146,72,122,87,72,140,102
186,247,229,-40,223,239,169,131,246,280
135,131,454,80,256,269,194,155,263,248
68,-236,392,251,219,249,191,214,317,272
159,-409,211,202,-220,-139,-13,266,361,332
317,-197,-171,-112,-753,-494,-258,98,170,238
453,370,-273,-172,-642,-390,-224,-34,27,178
441,540,-89,-121,-19,-192,-127,-24,-5,123
199,201,-111,-118,440,113,-28,40,22,43
-60,-127,-126,-109,350,209,-43,68,-33,-77
-349,-480,-148,-94,18,4,-141,18,-133,-229
-488,-591,30,-67,-281,-259,-223,-84,-235,-354
-240,-285,362,36,-71,-101,-153,-72,-195,-229
146,330,518,227,405,204,95,122,20,75
185,367,533,316,324,75,84,88,28,110
103,135,144,74,-2,-170,-120,-103,-130,52
132,205,-355,-236,-190,-324,-289,-226,-200,140
179,1,-289,-224,-78,-159,-179,5,40,287
160,25,-143,-159,29,103,14,166,172,335
51,1,-257,-197,66,216,27,104,72,245
-106,-269,-197,-136,-79,-19,-68,13,13,91
-144,-625,-182,-53,-154,-113,-20,90,125,12
-115,-680,104,9,-46,-8,68,149,189,-47
-119,-257,439,164,166,140,103,124,145,-108
44,676,301,223,199,175,132,149,187,-58
179,895,205,155,82,79,83,123,173,7
224,526,235,54,-33,11,36,77,92,69
98,331,278,-50,-260,-183,-157,-144,-203,-20
-194,52,171,-109,-474,-510,-476,-505,-552,-247
-340,-424,-190,-203,-457,-514,-453,-496,-536,-375
-205,-719,-125,-126,-168,-172,-97,-144,-198,-288
-23,-614,614,35,215,168,129,43,40,-163
117,-316,728,-15,224,147,80,24,107,-5
128,47,-52,-201,-203,-110,-48,-61,50,41
-45,686,-488,-161,-537,-323,-188,-191,-75,47
-80,213,-517,20,-273,-256,-149,-55,15,344
-40,-157,-306,106,85,-118,-40,131,164,490
-13,-78,-41,163,11,-162,-47,74,160,303
-55,64,-63,41,-364,-245,-69,3,97,28
-65,-87,-298,-94,-358,-65,22,34,80,-139
-46,-127,-184,-33,262,237,89,-12,-26,-288
34,115,138,68,566,334,241,93,82,-237
141,429,88,30,159,174,275,145,154,-221
151,456,67,-19,-115,-61,138,121,117,-193
117,555,174,-140,-439,-380,-53,134,134,-44
-182,473,189,-271,-395,-336,-229,-21,-66,-153
-418,87,81,-187,565,240,-173,-237,-356,-200
-263,-284,11,-24,815,490,25,-131,-257,108
-197,-627,28,146,315,235,-24,-56,-178,117
-262,-675,23,186,-109,-202,-225,-178,-237,-199
-368,-824,-41,154,-80,-287,-328,-273,-306,-428
-171,-953,-100,162,21,-119,-156,-45,-90,-76
88,-314,2,147,-188,-89,114,227,238,478
449,890,-134,-183,-879,-494,38,158,305,745
536,868,-585,-484,-1095,-562,-83,-24,204,659
24,33,-538,-245,102,196,-53,-251,-74,164
-288,-108,178,187,1037,731,145,-79,-25,-173
-343,143,1166,538,775,343,-28,34,18,-372
-319,-117,965,361,250,-11,-182,4,-39,-495
-327,-833,215,108,175,104,37,138,19,-502
-58,-329,-49,87,252,220,168,210,10,-342
376,639,-591,-77,44,33,44,74,-97,-144
387,514,-557,-61,-302,-263,-43,29,-103,-120
164,48,-242,25,-671,-582,-126,16,-68,-197
-118,-341,-279,11,-574,-678,-295,-178,-191,-340
-427,-669,-234,24,290,-97,-324,-348,-347,-497
-287,-540,-270,-166,317,172,-120,-160,-176,-336
-106,-339,-160,-321,-196,20,-4,2,-7,-111
-109,-173,-178,-303,-124,76,-87,-140,-165,-4
35,263,-175,-255,133,189,-81,-178,-254,113
278,464,310,-47,169,308,51,36,-41,353
407,236,239,131,188,314,198,296,224,558
372,119,94,111,286,238,183,313,225,483
273,179,228,60,297,199,162,235,146,275
236,557,50,-103,145,117,110,120,67,22
311,460,-187,-262,-12,28,41,74,47,-15
275,211,-133,-206,-65,7,67,140,141,166
96,102,-46,-6,-37,17,101,171,181,202
19,54,-23,66,40,51,109,137,145,186
-22,49,11,104,170,106,154,129,130,191
-1,46,8,123,135,111,165,122,166,153
-34,-20,-92,57,-17,-1,44,41,82,-71
-62,-34,-50,75,-132,-124,-99,-25,1,-138
17,30,500,281,-81,-115,-117,-9,66,31
93,6,1204,406,-13,-66,-9,62,165,116
-40,-368,1074,280,9,-12,94,104,190,58
-273,-664,85,-11,-41,-32,38,-6,54,78
-362,-43,-401,-196,-51,34,-32,-196,-167,94
-182,1039,-299,-261,-220,33,48,-251,-285,-34
-121,723,-309,-279,-544,-119,34,-329,-347,-355
-259,-426,-449,-185,-692,-254,-15,-305,-248,-446
-185,-696,-486,-56,-701,-508,-108,-86,13,-102
6,-230,-270,2,-493,-470,-90,143,215,172
19,36,-105,-28,36,-47,-4,9,85,171
-52,155,128,80,919,446,-17,-155,-66,194
117,476,217,-10,918,383,32,33,106,311
238,589,113,-219,100,-101,-37,63,143,324
-19,150,103,-277,-153,-254,-197,-52,-91,45
-30,-372,-225,-249,75,158,-116,-19,-159,-23
154,-465,-87,-39,8,248,132,139,50,72
-75,-439,168,111,-23,100,134,105,-16,-436
-139,123,-39,-27,57,-65,-80,-84,-181,-766
7,390,-192,-136,24,-75,-130,-79,-107,-406
97,201,27,81,169,86,44,193,165,55
61,58,328,412,456,197,113,195,149,121
15,107,153,407,426,187,181,190,71,-24
126,442,-230,151,-25,-96,-4,34,-70,-121
272,259,-304,-83,-431,-271,-97,37,45,111
45,-104,-239,-121,-349,-282,-185,-32,41,131
-305,-310,-3,8,78,-75,-316,-333,-239,-120
-379,-377,185,73,-1,-96,-217,-277,-184,-122
-288,-429,127,143,-411,-231,-9,70,138,49
-142,-348,366,99,-943,-415,10,147,265,130
45,-148,297,-124,-1361,-572,-53,95,202,75
87,0,-83,-209,-783,-431,-112,26,83,-102
-84,51,-508,5,904,142,-59,-106,-140,-388
-36,71,-488,277,1529,593,145,-34,-88,-285
-81,-105,-74,171,662,387,64,-115,-137,-157
-128,-228,-134,-134,235,294,-32,-192,-209,6
-11,-177,-162,-208,155,226,33,-80,-53,187
121,5,39,-129,128,193,86,-129,-47,220
114,67,-87,-94,39,155,39,-306,-214,94
17,-57,-141,-10,-20,114,35,-283,-266,2
-32,-204,-28,46,-37,60,91,39,-21,212
-82,-377,89,112,30,-72,-37,227,151,296
-99,-403,-196,126,259,49,-41,284,236,253
-107,-260,-78,83,392,240,75,160,153,198
-19,83,401,78,371,261,136,57,68,144
79,62,451,-66,362,220,100,-21,51,128
155,-138,110,-211,309,247,115,31,118,182
181,277,23,-146,-21,20,28,207,216,163
131,585,-152,119,-265,-93,-22,233,169,17
208,601,-78,385,-274,-106,-43,133,77,-69
183,342,107,394,-202,-103,-41,182,91,-70
130,123,56,128,-273,-155,-47,168,89,4
-15,-60,-95,-29,-397,-254,-134,22,16,119
-274,-248,-354,-110,-342,-273,-244,-133,-146,34
-362,-309,-409,-126,-190,-180,-227,-182,-252,-75
-71,-201,-29,-149,-202,-47,-53,4,-21,140
334,42,348,-116,-211,60,151,213,307,487
529,441,206,-73,-205,22,147,121,276,527
375,330,-18,-15,-22,11,124,1,75,283
118,7,-93,17,124,9,91,48,10,85
47,-133,-85,20,58,31,45,107,57,114
21,-89,29,16,-60,130,109,84,61,31
40,56,232,37,-102,203,208,15,0,-131
103,178,318,40,13,228,161,-68,-78,-68
87,146,223,16,121,171,74,-47,-84,86
-60,-208,447,57,239,32,-39,-2,-79,-109
-197,-718,410,47,269,-17,-69,54,-51,-509
-186,-825,260,102,179,0,-68,47,-11,-601
-77,-214,-83,46,-74,-109,-155,-100,-84,-493
35,478,-384,-16,-187,-159,-79,-37,-48,-367
43,623,-305,-6,-110,-84,138,150,88,-285
-3,496,-104,-157,-104,-84,122,102,63,-272
-187,319,49,-177,38,141,-63,-228,-185,-375
-284,301,87,-33,-49,136,-43,-261,-197,-255
-205,241,-155,-105,-129,-42,-22,-226,-162,-134
103,114,-232,-131,156,-61,-78,-217,-160,-45
301,229,103,-114,330,114,-17,-139,-126,137
210,162,329,-90,136,220,150,18,-10,335
-10,-221,410,96,-103,10,46,-100,-101,181
-98,-358,93,137,-145,-96,-68,-244,-239,-209
-31,56,-403,-77,-197,-153,-41,-74,-83,-201
-15,241,-375,-186,-238,-274,8,274,195,129
-5,93,64,-169,-392,-495,-60,237,202,296
-127,-79,159,-66,-164,-329,-197,-38,-43,141
-207,-7,151,86,192,26,-243,-200,-249,-192
-162,-42,216,172,227,139,-122,-66,-130,-369
17,-87,134,79,-96,-53,-5,125,71,-322
84,-91,-271,-109,-390,-246,3,148,92,-282
12,-210,-426,-116,1,7,16,105,107,-177
19,-226,-322,-95,170,158,15,71,132,26
-46,-213,-228,27,116,164,14,-58,3,5
-178,-334,-147,244,342,330,33,-230,-225,-152
-142,-454,-75,389,355,328,73,-196,-224,-143
-87,-489,8,251,127,-26,-67,-38,-75,-41
-188,-390,49,47,-203,-340,-312,-160,-158,-95
-194,2,-51,-74,-582,-491,-341,-204,-163,-47
40,252,3,-161,-972,-516,-175,-5,66,200
252,410,169,-179,-892,-423,-99,20,105,283
207,287,-49,-69,300,5,-7,38,121,233
174,187,-14,-4,1152,330,87,117,226,255
170,176,151,30,772,258,42,59,199,224
175,147,122,-2,88,-48,34,61,177,222
47,-41,-19,-65,-86,-70,29,-75,17,133
-15,-150,-22,-115,-274,19,26,-264,-165,35
-108,-168,70,-28,-253,166,77,-314,-288,-96
-274,-144,50,133,116,187,-38,-179,-234,-149
-172,-53,52,209,149,-52,-84,140,13,-37
60,-91,-33,170,-44,-100,38,330,238,126
221,-262,-132,123,-2,113,276,430,390,184
175,-262,119,223,256,320,312,287,281,131
197,-21,168,259,300,330,306,237,234,224
164,224,126,189,193,214,208,122,146,240
63,570,-129,6,167,106,58,-20,51,105
76,356,-259,-72,176,119,102,58,114,27
135,108,-78,-45,105,74,114,138,190,-3
100,-81,7,52,19,32,20,39,127,29
-122,-443,-213,107,-119,-67,-140,-201,-74,66
-225,-632,-370,37,-296,-183,-166,-178,-148,102
-113,-323,37,44,-244,-79,-23,64,-121,-170
55,251,724,101,-309,-132,10,128,-147,-444
-184,58,397,62,-132,-135,-121,-13,-260,-449
-593,-326,-144,-82,197,-66,-278,-310,-485,-497
-595,-251,-378,-383,27,-88,-290,-460,-591,-724
-201,5,-298,-430,-170,-55,-133,-237,-318,-492
33,-196,-202,-174,4,143,154,137,100,-33
150,-149,-183,4,246,282,309,359,350,226
231,277,423,43,143,180,239,226,275,216
356,963,828,88,80,126,186,59,191,198
260,931,771,20,-43,-138,10,-64,91,127
13,262,316,-203,-298,-415,-235,-231,-72,46
-134,-380,-231,-309,-315,-320,-245,-113,-23,58
-121,-708,-164,-62,-131,-90,-68,214,255,211
3,-364,-41,48,-236,-79,-1,226,325,323
154,458,-216,-171,-358,-203,-119,59,175,399
267,835,-364,-195,148,19,-68,73,130,542
299,527,-289,-39,496,266,115,192,207,544
225,233,-235,60,354,274,130,159,184,388
115,-10,-175,110,101,110,3,46,65,313
143,-165,-243,7,12,54,-43,10,-53,240
119,-19,-74,-49,75,122,68,105,-23,-38
-43,47,129,-44,112,145,99,97,-93,-484
-162,-205,135,-53,41,61,-23,-74,-268,-641
-221,-606,37,-67,-126,-54,-80,-149,-293,-458
-174,-812,-61,47,-153,-45,13,-67,-193,-243
-92,-234,-80,284,58,-51,80,-37,-170,-191
28,541,18,482,197,-8,87,-28,-128,-137
42,392,112,538,163,-59,3,20,-58,-93
-88,185,143,314,153,45,-132,-119,-152,-144
0,142,50,17,-33,53,-97,-142,-88,41
107,8,-15,-155,-342,-224,2,-16,79,255
64,-151,-58,-148,-252,-180,45,59,123,287
12,-50,-152,-9,62,119,28,18,57,202
-16,17,-156,46,270,397,89,18,32,124
8,52,-81,-83,190,210,59,-26,-5,-12
-143,27,-60,-135,-26,-20,-126,-247,-214,-273
-228,-4,-101,-55,-94,-136,-227,-351,-347,-427
-212,-236,-50,52,-240,-217,-142,-177,-218,-412
-354,-667,199,159,-559,-332,-135,-68,-123,-519
-488,-1002,23,107,-642,-320,-142,-18,-63,-524
-463,-822,185,79,-80,-133,-219,-136,-131,-340
-116,-74,406,3,637,124,-96,-55,12,184
256,337,-82,-160,642,314,162,206,341,672
287,592,-326,-249,109,158,131,220,422,601
337,613,-301,-257,-157,36,71,136,383,467
259,336,-101,-224,-289,32,92,71,276,496
126,134,25,-115,-258,57,106,21,116,412
49,51,57,-22,-29,-25,-114,-188,-195,79
10,-104,-111,-188,146,49,-148,-144,-292,-141
-17,-322,-110,-213,128,151,47,87,-178,-100
66,-190,141,10,86,134,84,126,-130,86
181,60,149,135,152,174,88,114,-83,201
261,450,-108,-18,30,-16,22,90,-20,197
279,481,-79,-85,-133,-311,-65,118,66,170
211,206,79,87,-77,-300,-24,137,98,29
98,-42,186,214,-78,-137,23,128,117,-175
-131,-330,324,298,-35,81,20,47,63,-334
-378,-451,262,272,180,349,92,-4,-43,-600
-294,-146,60,11,76,198,83,-43,-46,-609
-40,346,-139,-217,-13,82,106,-74,-1,-294
139,290,-143,-181,154,190,164,-104,7,-72
204,337,-87,-81,1,116,113,-95,22,59
224,387,-25,33,-462,-201,40,52,147,191
240,323,181,53,-826,-422,52,219,277,280
-183,-228,-86,9,-322,-364,-197,-141,-142,-191
-764,-979,-665,-116,393,-90,-345,-509,-576,-649
-777,-885,-336,-238,27,-166,-210,-288,-340,-407
-455,-869,791,2,0,-61,-17,27,23,19
-32,-546,1434,249,419,287,64,49,128,276
277,429,629,65,120,215,23,-93,-29,258
390,1096,-524,-247,-341,-18,-17,-78,-67,226
343,857,-751,-273,-249,-74,-67,-18,-39,183
294,302,-465,-181,261,191,79,32,9,89
249,157,-260,-181,454,388,250,116,74,-51
208,176,-104,-117,200,289,256,90,63,-63
187,222,66,8,17,80,100,42,38,224
53,410,293,70,-279,-273,-138,-113,-88,432
-252,466,400,25,-749,-722,-389,-289,-265,214
-519,90,173,-167,-804,-732,-422,-330,-311,-201
-553,-728,-257,-197,-316,-340,-288,-229,-165,-319
-429,-1200,-374,-25,417,300,-50,-98,-71,-197
-193,-923,-374,51,670,655,303,214,143,18
36,-483,25,113,381,296,244,311,194,44
313,-12,276,201,48,-231,-108,197,156,188
358,509,180,238,-105,-318,-140,111,113,314
211,766,33,199,-464,-359,-195,-16,-23,156
-54,199,-124,206,-470,-142,-177,-60,-77,-49
-247,-10,7,150,42,141,-57,-78,-97,-266
-132,118,301,36,738,396,124,52,76,-140
98,127,273,-119,714,419,219,209,303,229
137,-125,-282,-191,264,282,129,138,217,255
155,-133,-402,74,130,232,114,125,136,18
172,63,-156,291,106,191,130,129,80,-238
116,151,63,193,-101,32,47,0,-40,-321
82,98,191,33,-309,-114,-15,-116,-124,-227
30,-62,125,-85,-272,-228,-141,-182,-171,-100
-112,-326,55,-86,32,-133,-76,-60,-53,-25
-353,-790,221,179,148,-6,2,62,57,-66
-408,-1193,290,453,439,324,154,180,196,-6
-152,-788,240,382,486,391,366,326,372,182
57,184,112,-49,-143,17,255,138,212,96
303,1332,-279,-383,-420,-109,102,-59,0,-66
354,1086,-286,-132,85,361,219,-62,-72,-129
223,567,-117,77,336,333,129,8,-65,-130
65,243,-105,69,271,144,25,25,-91,-69
29,82,-183,36,59,83,52,141,7,100
163,144,-144,-20,-228,-85,21,248,198,290
194,230,36,11,-295,-237,-93,43,117,346
92,269,90,27,-72,-308,-235,-177,-78,293
117,352,159,-88,-269,-421,-263,-185,-89,422
-4,67,37,-126,-532,-449,-194,-109,-43,467
-270,-542,-229,31,309,232,-38,-91,-86,307
-262,-762,10,204,932,610,115,-12,-53,32
-89,-658,313,194,663,365,121,32,-29,-394
1,-415,362,65,272,144,92,28,-88,-593
-44,24,-26,-50,344,42,-8,-89,-207,-474
8,475,-217,-145,267,-76,-133,-180,-267,-231
11,13,-202,-213,-216,-203,-154,-191,-201,-30
-3,-204,-125,-156,-307,-53,42,29,40,167
44,-67,33,-59,-108,199,207,167,206,294
169,39,-92,-93,-26,279,322,226,313,433
208,447,32,-79,-143,106,210,81,203,344
54,471,314,69,-279,-254,-107,-172,-54,-49
-519,-428,284,157,-390,-553,-421,-306,-292,-581
-934,-1246,38,100,-236,-339,-466,-419,-457,-854
-606,-1193,-85,10,46,41,-43,-34,-89,-484
-70,-171,224,-88,121,138,202,241,182,-157
393,1001,121,-269,118,134,187,201,198,-68
631,1395,-202,-288,262,331,251,204,239,50
320,834,18,2,207,370,272,119,134,-17
-6,239,-22,107,-70,148,191,-22,-10,-113
-21,-262,-349,-41,-302,-137,50,-54,-8,47
25,-242,-409,33,-53,-142,-81,31,100,260
8,-83,-254,174,301,126,-7,125,225,245
102,49,-100,149,169,163,101,184,268,49
172,174,165,84,-16,35,25,66,124,-97
203,233,211,101,-86,-62,1,22,49,-31
187,173,88,55,-320,-223,13,107,103,120
92,65,46,36,-420,-327,-104,24,34,168
-82,-121,-53,-5,-231,-195,-221,-287,-289,-46
-321,-342,-210,-44,68,8,-226,-361,-413,-102
-275,-337,-155,-56,179,-13,-147,-196,-254,85
-72,-106,148,-116,32,-98,-92,-112,-167,86
9,-84,276,-92,-21,-77,42,136,61,107
45,-214,66,12,-32,22,150,225,208,275
-11,-239,65,61,-334,-143,121,241,260,405
15,124,-72,-88,-458,-243,-54,107,171,346
18,195,-256,-86,216,57,-103,-69,17,112
16,-50,-182,75,749,313,122,105,169,172
34,-48,-31,46,380,238,206,224,257,343
-11,67,126,24,26,55,87,101,75,173
-54,2,105,59,17,-20,-28,-46,-156,-15
0,-113,89,134,157,91,-25,-44,-186,0
97,5,108,143,94,142,9,-19,-147,67
207,275,36,-3,-216,-17,-34,-66,-160,124
231,223,22,-29,-253,-18,48,-82,-134,64
117,60,-16,18,119,298,226,-84,-151,-236
98,52,39,64,196,322,234,-70,-69,-318
80,53,150,106,-88,-19,-8,-98,0,-185
-14,-42,160,96,-467,-475,-281,-50,38,-135
-355,-250,30,63,-809,-766,-397,-103,-146,-454
-716,-466,-238,-54,-750,-790,-448,-255,-366,-773
-710,-796,-211,-189,-182,-293,-344,-305,-368,-688
-391,-1042,374,-121,240,107,-107,-129,-89,-308
-33,-657,571,22,382,261,48,18,134,-1
315,509,87,-8,170,187,153,167,323,256
371,1360,-316,-200,-165,-33,-29,29,199,283
300,697,-404,-233,-47,-34,6,109,283,537
159,112,-316,-141,271,221,206,156,288,723
87,31,-289,-112,399,408,341,129,203,686
82,88,-107,-116,292,381,332,71,115,339
80,165,29,-111,250,239,170,40,3,-206
91,194,64,-184,71,30,54,120,37,-465
0,66,19,-156,57,-48,-53,-41,-103,-545
-67,8,16,27,167,169,-15,-88,-157,-446
-27,125,71,99,-35,161,120,129,2,-269
4,196,138,136,-291,-149,1,135,8,-216
-116,-58,81,286,149,-120,-139,-86,-166,-332
-166,-507,210,376,540,103,-93,-93,-128,-294
-187,-855,455,355,411,257,7,-26,-40,-225
-230,-430,472,70,-31,-49,-124,-171,-149,-292
-192,400,12,-291,-468,-483,-325,-301,-227,-237
-55,553,-531,-367,-427,-416,-226,-162,-102,47
42,80,-345,-181,-77,16,64,110,148,354
63,-126,-61,-122,76,195,148,182,181,472
32,-52,-186,-147,129,217,29,-54,-96,272
55,45,-119,-52,78,118,-51,-228,-220,53
122,58,1,132,200,99,4,-193,-129,77
79,89,-101,225,327,170,52,31,55,158
55,79,-97,150,292,171,-35,101,87,91
42,-7,-59,24,199,100,-34,62,34,9
6,-48,37,-9,90,4,5,45,22,17
0,-107,326,24,-8,-23,2,-39,-14,19
-103,-183,470,76,-100,-102,-74,-144,-115,-6
-224,-154,447,82,-263,-202,-136,-254,-244,-29
-352,-14,195,86,-529,-378,-256,-369,-322,-216
-265,49,-25,159,-690,-471,-229,-231,-121,-147
-78,-198,-330,64,-565,-373,-116,-17,144,181
-12,-339,-256,-124,4,-78,-31,43,253,347
175,-440,-156,-226,209,74,90,173,371,409
263,-46,-263,-28,223,249,249,280,462,371
191,537,-142,101,161,238,168,88,215,92
350,724,-140,-4,3,91,79,-40,-4,7
374,549,-97,-142,-66,73,100,-44,-101,-48
143,198,-47,-187,-189,4,133,65,-65,-183
69,-11,-54,-147,-449,-155,81,11,-90,-204
138,-8,26,-55,-600,-169,125,78,15,84
144,51,10,21,-207,-78,95,45,28,222
51,0,-74,95,658,315,32,-24,-45,112
-5,-65,-105,-1,645,360,42,219,138,185
29,-11,-30,24,236,179,87,234,163,360
-18,3,21,81,154,102,98,94,18,347
-73,-42,40,122,241,97,20,19,-63,93
-13,-53,79,214,152,-23,-48,-6,-54,-175
-21,-90,114,364,215,-65,-108,-76,-121,-343
-105,-161,42,432,481,50,-102,-43,-129,-323
-64,-123,-59,247,236,7,-52,22,-47,-180
-187,-278,-278,-18,-215,-197,-199,-152,-182,-253
-355,-469,-481,-147,-407,-326,-281,-215,-235,-322
-206,-372,-287,-123,-304,-207,-165,-78,-96,-204
4,-10,332,54,-161,-58,-17,73,60,-91
151,414,471,-1,-284,-127,35,143,154,48
129,464,-119,-210,-375,-165,-1,106,128,101
25,171,-282,-226,-50,29,5,39,58,150
115,40,-93,-137,196,213,124,136,167,483
154,103,125,-91,-21,52,35,33,97,504
145,170,180,-15,-88,-9,-43,-85,-36,276
93,110,145,30,-4,59,7,-67,-19,158
148,6,53,35,21,55,68,0,87,184
153,-6,67,93,79,50,112,132,220,190
59,18,117,78,-233,-112,132,269,293,109
-35,34,118,92,-439,-198,87,243,257,51
-74,28,95,99,-393,-267,-4,96,168,-36
-59,43,27,30,-227,-320,-82,-17,115,-215
-169,-57,-25,61,548,204,-58,-121,-19,-354
-149,-86,-24,48,773,521,152,67,71,-140
-159,-111,-77,-41,439,332,168,151,101,-8
-111,-34,-81,-69,72,28,6,44,-2,-5
-144,25,-22,-13,-46,-23,-104,-177,-256,-205
-132,3,1,13,-130,-98,-97,-208,-301,-271
-93,-61,22,10,62,-58,-126,-269,-344,-362
-110,-67,95,-64,114,-31,-148,-315,-333,-409
-16,-92,-3,-186,-43,-26,-81,-277,-198,-212
40,-166,-335,-217,-22,145,77,-16,22,79
-113,-258,-367,-148,-55,57,59,188,112,148
-131,-130,-75,-109,-222,-90,-49,-9,-69,129
3,129,140,-90,-359,-184,-14,-37,-112,43
98,226,326,69,-225,-264,-90,34,-63,-161
120,132,511,107,-55,-159,-99,98,26,-171
53,153,651,-1,-292,-25,92,123,78,-75
-144,212,465,-50,-268,44,56,-61,-108,-229
-257,248,-16,89,433,280,-100,-225,-293,-449
-10,-60,-341,170,542,259,19,69,-13,-188
192,-210,-322,176,227,206,210,312,293,282
278,7,21,154,-76,115,211,202,260,427
167,-6,149,135,-68,105,163,48,50,156
27,-2,-31,54,-114,-31,23,33,-39,-57
-96,-39,-51,88,-171,-217,-145,129,16,-147
-200,-281,30,172,-25,-136,-149,4,-76,-238
-231,-154,-321,-66,33,-14,-128,-203,-281,-311
-148,-144,-466,-137,194,106,-34,-227,-263,-127
-78,-110,-400,-115,146,3,-85,-239,-206,80
28,121,-387,-234,-300,-319,-289,-198,-125,163
193,155,-173,-171,-326,-292,-210,49,119,222
238,114,140,37,269,-28,0,141,202,107
205,180,265,104,592,232,110,102,178,47
206,215,280,114,258,183,105,55,132,343
117,79,544,206,-123,-100,17,-10,40,447
46,-176,735,289,-72,-80,22,75,76,172
-10,-258,602,156,241,148,-31,22,27,-259
-151,-111,149,-33,227,130,-102,-109,-106,-411
-511,-261,-503,-266,-255,-234,-307,-271,-280,-471
-732,-646,-1056,-392,-483,-472,-480,-441,-420,-551
-421,-812,-650,-220,-236,-208,-177,-128,-114,-281
33,-127,62,-145,-125,-43,47,86,94,-1
382,549,127,-133,-64,60,142,167,216,244
306,608,136,-175,-239,-33,42,59,135,259
114,273,-44,-239,-507,-137,-3,14,67,206
17,61,-160,-198,-527,-176,-15,-55,-27,54
43,205,55,-66,-457,-195,50,4,46,102
36,257,-20,-106,-334,-155,67,86,180,270
-49,29,-220,-124,426,210,70,114,201,261
-101,-217,-313,46,954,513,224,236,316,293
-61,-350,-193,311,727,418,301,286,382,351
116,-66,-16,266,210,137,186,187,275,280
254,153,79,70,-133,-134,5,12,79,268
210,16,33,34,-166,-162,-29,6,3,364
100,-98,-49,46,178,98,32,-36,-108,344
130,17,59,33,398,344,249,33,-136,342
143,209,152,30,231,262,259,9,-250,7
28,280,74,-7,31,6,76,8,-289,-565
-221,-13,-83,-8,-110,-144,-52,16,-274,-1060
-287,-340,-143,66,-98,-111,-64,37,-173,-1025
-118,-407,27,123,-32,-73,-27,62,-23,-465
43,-195,243,115,125,120,4,31,35,-47
35,157,207,96,241,272,-20,-124,-86,-53
12,311,-74,57,95,259,141,-56,-56,-10
26,190,-42,-80,-176,109,214,59,-3,61
5,38,138,-157,-435,-172,90,113,36,78
-25,-53,99,-126,-223,-216,-130,35,2,96
35,-35,-8,-74,95,-116,-271,-94,-58,127
89,-60,-142,-89,95,-80,-145,-1,15,162
2,-287,-255,-5,251,148,70,110,93,82
-8,-38,-126,78,258,135,76,39,49,-106
-9,372,147,71,172,59,-50,-104,-83,-323
-27,215,376,70,78,15,-38,-54,-88,-366
-42,-5,438,142,36,-26,-59,-95,-111,-296
41,-46,347,129,-10,-60,-51,-119,-54,-159
140,120,150,29,-36,-5,47,-33,67,50
116,192,-56,21,77,171,195,47,159,267
120,-124,-112,128,192,281,298,133,261,521
183,-240,-83,174,111,188,297,230,375,789
227,154,-23,38,-179,-37,146,132,276,545
168,341,-163,-163,-267,-92,-31,-25,61,-58
64,95,-122,-77,48,-6,-102,-60,9,-169
80,33,22,7,-85,-136,-102,64,61,40
62,38,107,45,-425,-236,-92,18,-16,205
-1,62,201,23,-335,-220,-108,-67,-120,176
-111,-20,324,12,-11,-53,-36,-16,-166,-80
-215,-181,244,-1,259,128,7,18,-139,-338
-179,-275,-2,-29,504,316,40,49,-40,-279
-51,0,-270,-36,544,299,58,31,-14,-105
68,170,-322,-34,255,171,47,-46,-35,-42
73,105,-114,5,-49,65,44,-86,-65,-51
57,105,53,-9,-370,-150,-28,-45,-76,-74
-61,72,107,10,-429,-337,-234,-10,-83,-175
-115,11,44,41,-19,-284,-270,-93,-127,-202
-127,-216,-266,-85,213,-126,-115,-52,-44,-86
-192,-641,-233,-60,167,106,-43,-36,15,-17
-40,-715,237,122,47,145,61,98,145,108
54,-321,879,260,-66,94,101,95,114,84
82,420,1054,85,-481,-214,5,34,45,58
-63,652,215,-212,-772,-586,-270,-103,-75,-8
-307,-92,-351,-217,-199,-323,-320,-254,-264,-153
-217,-209,-641,-185,288,110,-118,-151,-177,-33
-14,-53,-644,-78,346,176,-18,-31,0,156
-23,-16,-639,-85,36,-70,-144,-123,-17,104
-109,-199,-526,-105,92,2,-65,1,104,136
-59,-236,-134,-14,276,175,66,118,208,336
82,-44,221,171,208,157,89,76,145,505
344,321,26,138,29,72,85,-15,10,466
267,389,-62,38,74,43,93,-43,-130,130
81,144,7,-31,94,31,116,56,-121,-100
71,-121,27,-222,-280,-130,69,87,-66,-94
40,-392,-38,-271,-246,-91,76,81,-87,-227
21,-239,13,-161,119,207,143,27,-142,-432
-63,104,19,-134,63,187,44,-123,-233,-561
-90,355,185,-114,29,229,-67,-259,-299,-501
-159,264,290,36,-124,-4,-127,-149,-166,-246
-367,-27,286,202,-161,-242,-262,-240,-194,-130
-258,-301,-66,-35,-141,-262,-279,-440,-335,-84
56,-269,-365,-199,-54,-54,47,-32,15,205
152,-51,-250,-58,43,60,212,421,376,278
43,7,-197,20,35,-64,44,363,348,41
0,-67,-221,55,104,92,-26,119,136,-39
73,-37,-67,138,27,126,-36,-47,-53,-110
99,-35,63,103,-108,-22,-41,-57,-51,-144
144,23,200,51,-86,-82,-28,59,117,239
215,135,19,50,182,38,-44,155,214,850
320,244,-106,-22,174,51,-112,69,175,1101
64,-142,-213,-99,-177,-162,-220,-116,-18,526
-293,-714,-259,-44,-331,-278,-228,-188,-162,-150
-220,-854,10,140,-89,-71,-47,-49,-81,-166
127,-321,421,204,263,181,67,54,-6,-88
382,538,599,51,248,181,59,89,4,-57
264,654,90,-64,132,116,102,145,74,3
41,504,-73,-101,-94,-168,4,44,9,-244
28,423,-178,-209,-370,-405,-52,10,-33,-374
-17,161,-148,-237,-89,-189,-11,32,27,-220
-79,28,81,-179,352,181,0,-23,13,-24
-81,-46,144,5,492,383,127,-34,-16,4
-9,-62,59,290,290,304,244,43,37,-50
7,62,76,468,126,165,114,-37,-44,-130
-14,118,34,340,42,123,62,-13,-55,-107
-22,23,3,201,85,197,183,81,46,-31
42,103,135,233,32,182,220,105,136,-145
55,159,173,158,-112,36,94,132,190,-224
-29,75,152,42,-210,-86,0,98,144,-98
-202,-117,0,-13,-65,-47,-3,47,10,-83
-230,-185,-63,-10,157,51,10,44,-9,-108
-130,-108,11,-20,122,65,25,43,77,-15
-57,28,62,-69,26,66,61,66,165,122
-12,128,68,-58,-106,50,119,101,189,206
13,180,12,-30,-468,-75,80,108,153,236
123,168,-38,-37,-731,-241,-9,125,167,251
109,30,-22,36,-278,-136,5,89,145,83
55,-36,-13,92,379,133,101,71,97,-77
192,50,108,5,-53,-56,114,138,145,35
192,81,60,-109,-578,-340,42,31,81,20
-150,-167,-274,-137,-92,-230,-152,-331,-261,-341
-515,-605,-648,-97,588,244,-238,-565,-558,-663
-410,-597,-530,-20,525,216,-207,-305,-381,-440
-75,-164,102,-51,85,-133,-234,-66,-125,-19
189,369,628,-10,-19,-121,-184,-147,-147,154
261,469,162,23,216,162,-30,-152,-182,175
136,187,0,-1,-27,77,-17,-116,-167,84
-24,85,260,-2,-469,-275,-97,-40,-91,-47
-134,196,320,-131,-648,-461,-131,78,45,-71
-184,196,338,-238,-434,-353,-81,92,73,67
-180,-25,464,-190,-69,-82,-45,-4,-6,322
41,-229,446,-69,259,200,30,9,101,667
257,-402,171,37,165,172,177,188,336,722
45,-447,-118,67,49,184,19,-45,81,343
-164,-178,-575,-63,199,245,-68,-226,-113,198
-83,97,-773,-145,267,265,117,64,174,370
14,-25,-407,-91,161,128,97,242,382,438
39,280,-114,-72,-28,-135,-144,2,109,135
65,399,-113,-154,-141,-253,-277,-114,-81,-60
86,72,12,-15,30,-76,-157,-41,-2,46
12,-193,122,178,151,96,23,56,30,0
-188,-415,107,210,133,121,95,84,-39,-148
-130,-158,-125,96,72,70,90,6,-131,-302
92,70,-155,94,144,179,190,18,-161,-479
129,86,40,137,247,335,307,60,-184,-651
100,353,-29,8,132,204,221,-13,-222,-608
53,416,72,-69,-26,-8,61,-58,-198,-383
52,370,133,-65,-67,-111,0,24,-86,-201
-9,35,82,89,29,-22,156,130,19,-112
-196,-286,127,337,-65,-85,123,158,39,-196
-325,-404,14,349,-325,-184,-32,9,-103,-303
-243,-366,-153,97,-404,-330,-132,-55,-94,-162
-15,-186,7,42,186,76,-5,83,95,68
175,156,108,44,631,362,42,105,155,130
273,555,-105,-26,571,276,-31,-7,51,51
173,486,33,103,348,89,-42,-59,-12,-23
47,160,56,236,301,119,72,42,98,77
-10,-161,-88,66,107,83,62,-6,54,153
66,-275,-258,-133,-25,84,45,-109,-23,247
72,107,-74,-149,-50,38,-17,-213,-119,239
-22,68,157,-123,-173,-127,-151,-204,-107,205
-75,-271,299,-161,-305,-193,-168,14,56,323
-106,-432,309,-155,-325,-261,-223,-2,19,294
-198,-345,-110,-180,-258,-213,-255,-127,-98,97
17,46,-492,-258,-264,-156,-135,0,49,40
190,261,-329,-226,-285,-154,-83,-23,89,-53
-6,-107,-94,-94,-39,41,19,113,47,-160
-19,-110,-149,-75,470,314,105,126,110,-110
49,219,20,-23,609,456,158,125,110,-68
228,524,120,-65,230,235,174,167,140,94
193,420,122,-94,-75,134,142,154,138,128
91,225,96,-112,-370,56,114,123,129,131
69,4,59,-156,-798,-115,144,136,158,204
-26,-86,5,-136,-630,-118,100,-26,-3,-25
-180,-100,-5,-44,225,30,-37,-306,-260,-308
-113,-6,106,45,555,93,-49,-267,-215,-202
-160,-60,97,137,316,-138,-128,-67,-65,-128
-377,-297,-50,278,118,-279,-207,-89,-105,-258
-479,-474,-271,382,-117,-368,-261,-181,-168,-312
-295,-372,-319,197,-203,-243,-110,-113,-42,-69
-98,-54,66,-41,-26,-11,-2,-92,-41,3
132,398,245,-16,211,277,66,-105,-76,40
160,490,127,47,73,85,-14,-156,-105,106
-22,86,-246,-9,-151,-152,-132,-191,-146,118
36,-337,-416,-94,-325,-173,-38,2,16,254
244,-244,-19,-115,-581,-320,28,151,186,346
308,259,320,-49,-533,-419,-29,141,212,318
195,509,196,-6,54,-125,-121,-19,62,233
-84,194,18,-10,553,150,-182,-188,-94,69
-86,-184,-253,-67,551,267,-35,-50,22,96
41,-242,-28,59,440,276,173,182,230,147
-102,-200,301,257,353,211,135,67,58,-181
-169,-197,156,117,67,227,156,-63,-135,-421
-311,-354,-156,-130,-195,226,160,-191,-252,-424
-196,-114,-217,-201,-238,59,27,-223,-257,-302
15,49,91,-63,-152,-103,-70,-19,-82,-198
75,82,234,-14,-87,-136,-81,111,28,-148
64,170,18,-35,-119,-123,-135,-37,-22,-135
-103,-29,99,-15,-347,-301,-218,-111,-64,-111
-154,-326,327,57,-365,-286,-137,-54,-3,117
-106,-551,531,137,-69,-87,15,56,100,356
-100,-498,433,113,101,-48,22,61,138,321
158,376,-217,-91,68,-124,-84,-37,62,263
616,840,-539,-184,1,-158,-34,8,94,376
593,453,-389,-126,-72,-14,238,299,323,347
250,53,-45,13,-50,196,384,431,398,-13
-8,-66,85,85,186,385,373,357,269,-401
-155,-110,185,125,348,497,344,241,102,-578
-101,69,28,3,163,273,201,104,-18,-530
-32,-73,-65,-80,9,84,158,108,67,-255
-51,86,-45,-87,119,43,114,83,105,-106
9,458,-74,-38,66,-2,31,-1,28,0
81,251,39,195,-7,26,57,-13,15,118
98,123,80,339,-38,22,85,-15,-7,81
134,106,38,231,-189,-33,98,4,1,-3
97,10,-36,71,-146,-28,64,21,0,-87
32,-117,-44,4,166,107,64,114,92,25
-34,-202,52,118,401,203,14,103,110,219
-102,-272,114,270,251,116,-91,-72,-21,279
-92,-209,-41,178,68,30,-118,-193,-139,113
-29,-152,-114,6,77,74,-46,-119,-92,50
122,86,213,0,89,67,-41,-14,30,272
268,300,103,-87,-6,-39,-82,-31,10,371
283,232,-255,-215,-83,-117,-20,-65,-87,351
126,43,-127,-171,-209,-211,-12,2,-117,234
11,-34,-30,-94,-249,-159,-96,-27,-194,-37
-86,-203,5,-24,-201,-132,-251,-167,-256,-152
-154,-460,9,58,9,-74,-229,-87,-93,27
-94,-457,44,111,233,97,-65,11,71,222
-20,-88,294,96,172,96,15,70,128,126
-73,587,348,4,-8,-27,3,31,29,-231
-168,475,24,-206,-271,-279,-173,-138,-182,-492
-284,-229,-247,-271,-388,-391,-313,-325,-345,-531
-475,-564,-403,-175,-282,-219,-235,-348,-395,-582
-390,-304,-514,-43,-283,-56,-38,-175,-241,-510
-84,20,-168,2,-446,-158,71,74,42,-152
5,59,74,-47,-35,-60,70,47,59,30
83,79,208,44,534,214,221,70,119,234
255,376,99,54,339,128,226,153,185,444
207,287,33,-22,-78,96,84,67,91,393
152,125,88,-37,-474,-64,64,0,50,257
153,123,82,-80,-634,-239,55,11,72,125
91,348,176,-134,-170,-274,-44,-79,-6,-53
-72,314,103,-190,589,151,-47,-129,-101,-239
-67,105,-62,-190,587,395,97,42,73,-154
36,-89,-54,-140,17,0,60,249,297,-23
134,-216,11,-63,-447,-290,32,275,273,-54
100,-201,-192,-57,-435,-306,-7,176,76,-95
-41,-298,-338,62,149,39,-207,-106,-211,-220
47,-143,-305,118,221,69,-281,-232,-224,-77
-74,-185,-363,75,175,-136,-269,-181,-167,70
-180,-273,-351,71,291,7,-115,-51,-51,187
-90,-41,95,90,197,92,9,57,77,253
-31,149,377,97,-3,-13,-29,41,89,144
-89,-51,-1,134,90,127,59,101,108,-31
-67,-282,-93,177,79,261,219,238,222,-84
71,-216,145,91,-163,149,202,227,205,-14
150,-9,384,31,-357,-11,105,111,88,66
192,116,218,-41,-271,-32,47,61,30,159
119,-77,198,22,35,62,36,78,36,198
-76,-196,240,144,600,294,78,77,-12,14
-79,55,119,90,701,404,109,49,-56,-163
8,369,-252,-68,268,207,21,-23,-71,-197
71,262,-277,-64,145,167,62,50,39,-90
91,121,-169,-95,125,141,76,135,121,-47
165,151,138,-82,42,30,-9,73,89,-28
144,-18,331,-22,-13,7,21,95,138,85
173,-11,243,-70,-161,-82,35,118,146,295
134,214,-89,-176,-411,-331,-141,-80,-62,398
66,318,-333,-58,-137,-205,-157,-162,-179,377
77,112,-186,284,248,148,-37,-89,-91,298
97,56,-2,472,172,102,-23,-74,3,241
62,61,38,306,83,30,0,-36,54,328
-51,-55,224,152,46,-13,-20,-22,2,381
-85,-226,285,76,5,8,9,15,33,130
-54,-311,94,-38,-44,79,80,18,75,-253
-41,-82,-79,-123,-229,-6,81,-15,45,-332
-13,201,-190,-191,-312,-67,119,22,65,-129
-28,56,-227,-193,-74,30,107,72,103,96
-68,-1,-178,-57,159,133,120,68,36,98
-69,104,-53,110,140,133,134,-52,-165,-179
-59,38,11,170,316,279,183,-185,-247,-264
-15,-4,29,155,421,283,184,-126,-148,-60
-23,-18,27,133,263,32,74,113,58,26
-60,-8,83,183,195,0,58,163,37,-220
-53,42,115,141,63,-117,-49,105,-60,-475
-104,89,175,32,-102,-238,-173,-74,-190,-556
-147,15,155,-59,-190,-246,-152,-133,-186,-399
-105,-63,87,-186,-287,-268,-105,-95,-91,-194
-63,-166,144,-237,-246,-191,-106,-130,-65,-148
29,-139,-17,-220,-130,43,-23,-96,-41,-36
102,-33,-238,-205,-129,48,29,-14,29,198
102,-83,-122,-125,-165,-67,-62,29,102,408
88,-93,31,69,-63,-96,-142,-17,108,515
-34,-122,106,204,15,-68,-148,-145,-39,337
-348,-168,178,179,-54,-185,-150,-188,-214,-256
-443,-210,161,9,-115,-289,-106,-69,-221,-695
-306,-255,338,-61,-115,-197,-5,-46,-182,-607
-124,57,618,-1,-208,-57,-27,-115,-177,-361
103,456,-19,-111,-279,10,-145,-135,-126,-108
219,208,-472,-197,-145,-44,-137,98,122,294
234,-196,-352,-108,102,89,-4,206,230,528
223,-197,-275,-22,177,240,92,174,200,592
189,-7,-201,-26,75,152,44,84,124,403
129,154,-83,-16,-17,26,-76,-78,-21,20
-14,31,81,136,-72,-91,-190,-263,-164,-141
-199,-97,156,239,1,-41,-147,-228,-169,-146
-288,-221,-4,103,103,65,12,9,-27,-146
-172,-208,59,-10,75,22,50,147,85,-51
129,53,45,-72,-104,-99,-7,154,158,-53
287,341,-219,-155,-321,-214,6,178,260,11
174,224,-129,-106,-282,-234,20,142,237,104
25,-111,-99,-43,-10,-27,44,28,82,28
26,-93,-194,-89,-54,157,116,75,67,-51
-74,-27,-139,-58,-291,59,147,98,37,-220
-148,-31,-32,-17,-279,14,144,40,-47,-276
-52,62,80,50,-13,128,144,13,-52,-122
21,83,103,125,484,288,136,-15,-19,0
93,98,109,91,463,165,153,105,110,69
155,100,98,12,-101,-84,115,174,166,65
214,106,82,-56,-547,-283,59,120,148,105
161,97,48,-124,-587,-296,-27,-7,54,84
-75,-54,-70,-166,-10,-26,-170,-267,-166,-120
-161,-96,-114,-267,-49,-88,-193,-290,-141,-127
-187,-210,-142,-278,-335,-296,-223,-237,-96,-73
-176,-434,-152,-101,-78,-51,-83,-66,-8,53
-32,-356,48,115,-45,32,53,156,91,173
-51,-219,-27,141,178,-51,-64,-6,-146,-62
-238,-465,-343,2,512,119,-44,-65,-300,-340
-414,-570,-482,-65,465,163,-38,-79,-347,-480
-302,-228,-526,-111,148,-38,-124,-129,-310,-321
-69,20,67,-74,-58,-141,-125,-89,-165,10
166,142,515,133,128,120,83,88,93,338
342,446,233,187,248,335,220,143,195,426
390,654,-1,124,114,216,231,131,173,348
337,556,126,32,44,143,206,178,198,335
249,384,284,37,101,284,315,220,262,435
172,398,391,145,85,326,361,135,165,275
96,385,368,190,-90,8,84,63,75,-92
-17,52,178,74,-169,-286,-276,-2,0,-417
-12,-214,-35,13,147,-222,-289,58,55,-283
25,-115,48,65,367,28,-102,63,107,161
21,-38,83,42,194,81,-42,-9,27,347
-20,44,-35,-29,31,-6,-80,-100,-119,158
1,48,-64,-23,50,23,-30,-37,-90,-21
23,-3,-56,-24,47,14,-38,-20,-105,-37
-19,0,-8,-8,18,0,-1,10,-99,-106
-143,-60,6,66,45,41,50,-6,-89,-304
-199,-111,12,117,72,81,55,-61,-107,-361
-87,-63,22,92,76,55,11,-104,-54,-208
84,69,112,26,80,41,0,-87,20,20
89,79,31,-60,42,-16,32,102,140,138
-12,-5,-119,-73,54,-9,100,254,180,40
30,15,-13,0,49,-9,46,130,124,89
121,40,22,-6,-5,-26,5,25,88,259
120,30,13,-26,-67,-46,19,9,89,303
84,32,15,-43,-140,-77,-8,-22,74,202
24,42,30,-14,-120,-89,-21,-23,70,5
-59,-2,62,67,13,-15,-10,-16,46,-160
-61,-8,56,101,15,7,80,32,38,-72
-61,9,33,121,14,21,137,58,63,106
-74,-13,-17,98,90,100,113,45,83,202
-64,-27,3,91,118,83,64,27,91,271
-37,-78,108,174,21,-89,-44,3,85,318
-65,-118,294,253,-112,-136,-172,-150,-28,171
-214,-53,468,299,-171,-149,-207,-232,-114,-18
-368,-187,172,159,-73,-82,-147,-197,-135,-140
-358,-196,-354,-242,-372,-229,-170,-229,-199,-229
-353,-673,-353,-338,-423,-123,-114,-215,-237,-370
-65,-502,-239,-405,-417,-104,-47,-128,-170,-395
225,152,-42,-490,-247,-109,-33,-62,-119,-304
153,440,1,-371,100,-10,-60,-17,-141,-312
170,634,-232,-247,39,-1,-87,0,-129,-244
188,377,161,-36,-279,-238,-140,-61,-111,-108
54,-106,278,26,-473,-384,-120,-79,-66,-17
-66,-532,45,19,-206,-191,4,7,0,80
-25,-258,47,225,512,204,67,23,21,114
39,-28,-194,286,687,511,100,0,50,68
145,211,-470,126,161,282,108,74,178,181
186,174,-205,74,-98,132,118,112,252,180
188,158,16,33,-151,48,122,128,258,11
161,170,0,15,-169,34,241,212,270,-155
115,176,-15,-78,-371,65,361,191,198,-83
-5,103,-42,-72,137,294,265,-86,-101,-39
49,90,0,-41,750,392,131,-220,-267,32
138,45,-10,-69,398,102,18,-4,-141,46
113,-69,35,-5,28,-138,-35,183,0,-122
49,-132,25,56,-163,-154,32,189,14,-174
-51,-213,-39,43,-307,-45,105,155,6,4
-43,-72,119,31,-476,-19,135,151,62,320
-191,54,262,63,-159,-128,-127,-169,-181,82
-492,-15,153,31,350,-120,-433,-551,-515,-554
-655,-209,-188,-142,68,-220,-426,-479,-478,-638
-514,-629,-507,-175,-118,-139,-169,-124,-141,-146
-235,-737,-205,32,150,132,146,152,142,168
76,-37,58,73,194,178,288,299,294,167
388,705,-17,-40,220,99,145,193,214,83
444,650,-84,-71,172,32,58,91,167,153
193,208,37,24,7,-60,19,45,125,136
-55,-103,30,140,23,-10,-60,-47,11,12
-151,-276,-153,90,21,9,-42,-64,-5,-7
-206,-366,-314,-50,18,56,4,-30,-1,-51
-106,-188,-90,-71,95,125,52,-13,1,-51
40,91,-5,-152,76,129,90,17,18,45
149,219,24,-236,-36,27,64,53,43,205
204,238,110,-179,-119,-133,-74,53,45,295
218,208,28,-59,-108,-177,-126,22,16,354
175,126,60,47,-84,-153,-93,-2,-16,394
159,87,102,140,-18,-50,-26,22,23,427
118,78,113,247,101,140,60,49,19,309
75,92,108,243,177,222,143,98,33,28
20,70,87,107,135,170,173,156,72,-124
-2,23,16,-5,12,65,104,169,75,-9
-10,28,-85,-19,-32,15,4,109,89,102
-21,75,-67,8,10,56,53,185,198,103
-36,150,242,105,40,69,59,175,196,-92
-22,80,469,189,76,64,0,44,68,-230
62,-66,311,207,175,140,39,26,25,-116
110,-86,49,90,108,84,25,-20,-12,-12
135,132,-217,-118,-73,-33,-40,-155,-130,21
110,151,-291,-135,-86,38,18,-185,-171,34
-80,-169,-360,-69,-64,49,-6,-276,-265,-90
-95,-185,-154,18,-116,-68,-89,-252,-240,-136
99,243,342,46,-369,-293,-63,84,48,10
140,569,759,41,-419,-224,73,115,80,-8
-68,322,361,5,122,53,-4,-243,-224,-379
-148,-176,-96,-29,470,252,-47,-264,-221,-418
-36,-322,-237,-4,217,60,-97,53,92,-176
28,-176,-266,17,23,-97,-93,139,157,-78
6,-91,-183,-13,-126,-102,27,167,165,-46
-3,-62,-180,-62,-371,-133,71,211,187,-38
10,-29,-183,-73,-386,-132,19,111,146,17
7,-3,-99,23,19,-3,0,11,79,54
58,31,40,107,295,64,47,9,104,76
66,-15,92,76,341,159,69,20,135,132
101,24,25,24,301,135,-12,-69,56,273
139,44,33,71,159,17,-52,-91,9,320
0,-51,99,159,52,-56,-91,-112,-91,-88
-236,-262,-19,108,-78,-192,-187,-229,-252,-483
-336,-430,-194,-2,-137,-216,-182,-277,-302,-271
-283,-374,-208,-38,78,-48,-100,-260,-294,-81
-125,-92,32,-33,107,-20,-69,-129,-174,-200
26,109,-51,3,26,-44,-30,90,43,-276
12,82,-180,40,98,21,40,96,79,-226
-20,26,228,31,43,-12,12,24,45,-83
145,64,510,-56,-87,-76,-17,35,99,152
134,39,370,-91,-71,-66,-4,-15,28,182
-8,38,-163,-171,-283,-185,-25,-71,-73,110
35,69,-404,-127,-512,-174,42,63,40,206
128,29,-276,-24,-557,-112,28,49,49,200
118,62,-89,32,-100,-17,-23,-97,-76,112
90,47,13,27,473,168,30,-20,-9,82
119,77,48,-42,316,185,97,156,131,89
35,69,73,-107,-72,53,-37,12,-28,-39
-164,-125,38,-171,-345,-250,-280,-242,-260,-189
-254,-372,-140,-274,-284,-252,-282,-262,-275,-167
-68,-456,-188,-194,-41,-47,-27,-7,0,140
88,-436,245,206,292,182,173,225,268,391
191,-249,287,242,295,336,300,307,394,515
143,-30,252,94,27,231,301,263,348,370
39,460,294,-99,-420,-95,41,22,76,-138
123,802,-138,-358,-979,-522,-191,-116,-86,-401
77,402,-240,-208,-736,-426,-115,-33,-56,-287
-61,-153,-122,62,297,96,-27,-92,-179,-251
-83,-271,-149,123,890,462,77,-63,-167,-166
-46,-150,-74,-31,360,147,119,23,-33,-4
-113,145,67,-170,-7,-43,-23,-120,-106,-48
-132,368,182,-111,232,80,-100,-176,-123,-73
-64,64,68,-59,467,192,-46,-107,6,48
-52,-277,-84,-60,365,162,-32,-82,46,71
-13,-261,-267,-38,90,0,-117,-154,-34,-6
-105,-60,-328,-79,-128,-94,-157,-210,-162,-188
-238,-57,-464,-83,-241,-130,-99,-104,-153,-301
-135,-192,-322,68,-190,-90,-43,21,-15,-185
-12,-128,106,148,-107,-74,-16,79,87,-30
162,124,433,182,20,30,57,163,204,191
277,325,370,222,120,139,67,84,174,308
185,222,92,157,110,124,14,-52,18,252
33,-13,39,87,56,57,-21,-41,4,169
-8,-74,-22,11,22,55,43,109,100,106
69,38,64,-19,11,95,143,263,203,121
143,161,31,-20,55,126,159,238,170,205
170,197,-24,0,107,124,144,115,74,373
120,153,69,62,107,52,52,43,19,469
83,117,78,51,8,-95,-56,119,97,282
66,88,13,-9,-25,-18,-8,99,85,-59
90,67,-14,-30,-11,98,90,47,42,-128
75,40,-74,-34,152,226,190,34,8,-75
102,78,-32,6,249,222,198,84,45,-89
137,103,16,14,166,43,81,117,73,-133
105,60,-85,-53,59,-56,-73,50,44,-35
-1,-19,-184,-115,99,97,-65,-34,-37,75
-92,-46,-148,-129,62,83,-31,-43,-81,53
-138,-27,2,-92,-19,-13,-77,-125,-136,-67
-114,55,185,1,-139,-111,-125,-174,-151,-112
-101,42,300,5,-236,-201,-126,-127,-97,-5
-118,-37,215,-50,-177,-210,-108,-78,-45,84
-139,-140,87,-53,-174,-264,-181,-147,-112,1
-72,-6,-72,-57,-285,-377,-331,-334,-253,-147
112,164,-91,21,-289,-327,-198,-177,-48,71
180,79,11,93,-167,-143,44,110,234,142
75,29,91,248,153,100,170,172,239,-249
46,109,155,318,257,216,244,194,229,-476
68,77,134,215,92,146,272,215,240,-351
11,-45,33,98,-74,119,276,219,236,-213
24,-35,39,23,-415,-71,218,285,272,-87
-137,-124,-82,38,-210,-92,-17,-53,-83,-239
-253,-264,-242,47,503,174,-204,-378,-469,-319
-127,-214,-142,-13,381,64,-145,-290,-441,-58
-30,-38,169,-69,84,-51,-43,-19,-191,230
86,184,126,18,146,48,31,146,24,365
53,188,-79,23,160,88,11,94,34,113
-78,-5,-52,0,55,20,-50,-25,-88,-166
-18,-114,-153,-25,-14,9,-5,-9,-102,-112
24,-77,-159,-65,-93,0,65,131,8,13
-48,-17,-24,-106,-195,-57,3,121,48,-17
-156,33,15,-175,-312,-141,-119,-69,-137,-166
-257,-2,14,-203,-327,-207,-176,-178,-237,-237
-277,-183,-86,-191,-343,-288,-177,-113,-174,-153
-251,-451,-139,-86,-55,-74,-80,-69,-125,-69
-68,-354,41,77,329,114,87,82,32,134
158,89,185,145,328,161,175,179,139,268
169,142,132,216,305,214,222,173,164,229
100,-40,51,204,301,222,236,164,170,141
25,-149,121,181,245,149,167,93,120,-5
-81,75,48,108,57,-48,-13,-75,-32,-154
-178,150,-155,-43,-176,-281,-216,-219,-158,-223
-225,-224,-289,-110,-182,-206,-142,-144,-82,-79
-180,-506,-394,-169,-172,-93,-26,-15,20,14
-69,-378,-216,-157,-173,-18,30,36,80,-42
241,173,-9,-157,-136,26,33,39,125,33
390,448,220,-74,-46,98,87,89,184,308
256,471,212,-77,-70,103,113,96,135,483
148,302,66,-67,-131,60,98,117,107,380
110,153,47,-20,-95,27,65,108,98,10
103,68,48,35,93,75,59,45,70,-202
172,62,37,47,180,86,66,52,89,45
255,112,69,12,88,19,38,49,121,399
239,157,140,36,-9,-9,38,10,105,412
124,127,166,99,-91,-43,50,50,90,96
69,137,182,93,-352,-226,-9,54,41,-135
56,126,137,42,-676,-397,-87,-21,-36,-111
-34,-3,-102,-72,-807,-373,-65,-49,-78,-68
-149,-108,-257,-93,-252,32,23,-112,-152,-209
-114,-58,-141,-21,642,454,156,-37,-46,-180
-46,9,47,18,693,414,163,31,18,-82
-142,-111,104,97,465,163,-20,-9,-54,-104
-259,-305,90,134,388,129,-55,-55,-125,-214
-241,-375,-30,32,214,136,17,-27,-101,-208
-66,-138,-2,-37,50,47,-6,-8,-52,-77
72,140,63,-49,-15,-28,-67,-9,-86,-35
85,145,-46,-56,41,19,-42,-29,-114,-31
22,99,-66,-43,63,39,-59,-116,-173,-29
-9,23,-69,-28,142,88,-40,-81,-176,-33
83,-19,-71,-64,27,35,67,176,67,65
121,30,65,-35,-28,-65,-42,115,69,67
56,45,118,28,14,-78,-110,-41,-46,-18
-30,-8,21,10,-49,-66,-43,-44,-55,-89
-34,-48,-31,-42,-138,-94,4,17,13,-74
-51,-53,-18,-54,-118,-117,21,45,46,-54
-130,-64,0,-21,58,-59,-19,-29,-26,-68
-175,-82,-104,-43,25,-60,-92,-132,-99,-89
-208,-224,-131,-52,-47,-59,-154,-195,-147,-115
-158,-286,13,-24,-117,-90,-103,-135,-93,-48
-41,-154,217,1,-248,-136,-24,-64,-14,88
105,284,306,2,-341,-189,7,-19,54,262
112,286,-27,-4,-48,-35,32,-9,35,275
37,93,-136,17,397,281,80,-63,-40,148
86,189,36,26,305,262,133,18,47,162
44,240,133,52,117,166,107,23,58,117
-46,132,106,82,122,121,66,-29,-13,28
-80,-86,42,62,34,-8,-11,-23,-33,-53
-104,-280,62,143,-192,-211,-122,-44,-42,-123
-205,-413,50,225,-644,-538,-332,-188,-144,-238
-416,-648,-169,176,-824,-576,-384,-291,-243,-275
-369,-599,-210,-26,-525,-292,-131,-138,-97,-37
-131,-321,317,-26,253,195,110,-76,-21,33
99,0,677,38,898,580,312,3,72,-105
320,276,-151,-209,586,522,438,193,236,-78
245,324,-514,-282,149,202,235,178,192,-42
108,220,-329,-225,-25,-4,39,52,78,-33
61,466,-314,-195,-70,-32,0,-30,4,-50
28,285,-138,-55,-25,1,32,0,14,-51
-27,69,-36,1,-7,1,27,23,34,-28
-46,-58,-67,-19,-4,3,5,55,104,37
-13,-103,-117,-62,-32,-42,-48,53,140,105
71,-24,-4,-44,-28,-46,-89,0,129,233
138,92,46,-16,-19,-42,-56,30,166,356
77,144,-68,-50,-63,-106,-47,52,121,296
-108,53,-7,-56,-133,-199,-179,-123,-110,50
-232,-108,6,-95,-212,-257,-287,-264,-289,-181
-185,-234,-69,-91,-227,-201,-200,-176,-245,-292
-14,-119,67,98,-127,-61,31,70,-39,-235
116,105,109,239,39,49,138,188,78,-32
131,153,180,246,97,85,126,169,131,203
185,145,176,114,-18,155,108,157,165,313
138,79,-45,8,105,128,45,93,118,148
139,141,-210,-21,270,102,57,55,89,30
227,102,-241,-8,240,212,166,76,132,163
156,16,-192,7,145,198,155,16,63,173
42,12,-61,20,135,81,74,36,32,88
-74,-62,-62,49,175,10,42,166,101,61
-108,-116,-35,123,240,67,79,130,77,106
-76,-80,-22,175,216,50,59,74,16,23
-35,-30,4,200,156,11,7,54,-36,-166
10,23,99,166,33,-16,-29,-4,-64,-143
26,47,105,100,-137,-46,-21,-37,-63,-79
-1,7,32,2,-215,-37,19,-9,-49,-54
9,-14,-44,-47,-107,-16,44,29,-31,-15
43,20,-17,-40,93,39,4,10,-38,32
56,33,38,-75,141,63,7,52,9,65
33,31,-44,-121,4,31,33,99,62,69
-25,-29,-140,-97,-57,22,22,82,55,27
-71,-167,-119,-40,-63,34,12,49,43,-6
-45,-277,0,6,-18,57,37,39,62,34
15,-231,94,22,0,79,63,46,89,65
1,23,32,-15,-28,39,34,38,77,-45
62,379,-133,-97,-115,-56,-42,-48,3,-112
70,295,-149,-61,-154,-136,-102,-86,6,-45
32,134,-11,-7,-252,-292,-165,-59,73,76
17,-20,66,0,-320,-337,-116,-45,82,139
-3,-139,-6,-48,-221,-195,32,41,66,132
-74,-101,33,-35,113,106,54,12,-47,1
-135,74,191,-27,236,137,-75,-191,-209,-112
-59,240,128,-143,-16,-102,-188,-288,-221,-61
-79,-64,-218,-191,-248,-257,-150,-207,-155,-15
-190,-313,-298,-186,-386,-328,-68,-72,-70,-66
-323,-403,-319,-132,-169,-174,-50,-55,-76,-244
-333,-397,-260,-81,172,146,-52,-82,-96,-340
-127,-157,154,-39,74,201,-29,3,4,-166
76,96,292,65,-142,4,-14,84,92,117
190,210,158,153,-209,-97,-5,90,86,430
63,86,98,207,-27,-94,-46,21,-34,312
-521,-428,-251,139,36,-220,-412,-406,-520,-513
-918,-1002,-612,-4,-237,-450,-672,-696,-777,-962
-623,-998,-503,-145,-562,-465,-494,-485,-481,-456
87,-353,370,-150,-885,-395,-153,-74,9,427
655,530,772,-90,-937,-362,76,243,367,996
757,1032,-61,-208,-168,-151,99,235,408,1036
372,638,-127,-137,968,378,83,72,243,586
213,402,142,11,1126,615,247,198,344,329
134,320,225,103,581,394,220,224,342,220
-24,71,211,178,276,188,105,144,167,-43
-68,-93,-15,165,133,98,52,63,12,-365
-82,-168,-143,144,79,135,87,95,-40,-536
-40,-94,-74,74,-37,57,104,167,12,-373
23,85,120,45,12,71,129,156,79,-98
57,198,43,34,268,192,157,130,79,-14
-40,97,-17,86,494,291,128,111,32,-147
-187,-64,-79,190,377,242,80,75,-1,-331
-259,-158,-138,169,238,213,99,22,-47,-406
-198,-143,-42,96,245,307,202,-33,-95,-363
-16,-6,135,52,247,321,237,-57,-117,-199
165,171,124,-37,93,162,164,-35,-45,9
218,228,-8,-45,-35,1,47,-15,10,18
91,77,119,70,-81,-79,-93,-129,-94,-155
-62,-10,126,-6,-130,-101,-151,-227,-214,-240
-123,-69,13,-160,-194,-191,-98,6,-109,-197
-15,-32,60,-69,-151,-237,-74,220,76,-48
148,99,75,51,27,-52,11,137,98,158
198,138,-79,34,49,33,109,159,154,372
166,134,9,-18,-70,-23,96,142,145,362
47,76,52,-89,-146,-44,17,42,57,152
-90,-87,-19,-124,-206,-55,-81,-67,-46,-11
-180,-205,-106,-123,-318,-186,-162,-146,-115,-99
-191,-167,-114,-61,-294,-228,-121,-124,-97,-123
-88,52,23,36,-47,-9,19,15,-24,-89
72,316,173,114,17,188,71,75,-28,-103
64,157,200,117,-79,-15,-37,2,-106,-211
88,-60,195,71,141,-51,-42,-30,-113,-242
169,37,7,4,272,71,58,57,22,-88
140,48,-109,-24,218,230,34,35,46,151
179,57,-60,-36,62,164,-17,8,123,626
147,8,-43,-39,-17,18,-34,33,206,801
69,-99,-76,-49,-32,-43,-70,53,254,604
47,-116,-64,-58,-100,-71,-112,26,271,523
56,-98,-61,-4,-87,-54,-62,38,272,623
41,54,60,107,-1,6,17,68,195,539
69,241,253,186,-138,15,79,56,12,211
50,167,299,235,-134,-1,84,81,-154,-189
-18,91,266,253,154,27,65,58,-291,-606
-82,-38,73,136,430,128,46,-24,-296,-779
-95,-88,10,81,404,209,70,-38,-214,-707
-103,-169,87,47,49,156,80,-24,-144,-536
-108,-69,71,-81,-133,36,-4,-87,-157,-311
-49,295,-125,-213,-83,-104,-159,-232,-252,-239
50,244,-139,-218,-62,-193,-162,-208,-216,-177
57,-88,26,-114,-59,-144,-28,-84,-96,-79
46,-324,172,0,-37,-64,70,0,-7,-46
48,-341,208,41,-10,166,181,57,16,-92
24,98,160,-53,-373,-8,113,41,0,-128
-7,560,-104,-221,-671,-270,-83,-60,-70,-86
-14,311,-179,-206,-394,-317,-198,-155,-112,-43
-96,-73,-204,-84,227,-86,-196,-217,-151,-89
-160,-217,-217,-5,433,95,-128,-169,-71,-62
-197,-212,-117,53,361,107,-149,-189,-59,-68
-142,-157,-35,-60,107,26,-114,-117,0,-40
-138,-126,65,-178,-122,-27,-47,-42,50,130
-117,-88,89,-157,-389,-184,-84,31,151,582
29,68,-86,-61,-514,-181,-36,109,261,862
44,-16,-59,21,-264,51,97,116,173,392
11,-4,44,77,253,225,170,50,-28,-267
46,107,8,147,307,240,110,-77,-170,-334
1,1,-59,265,146,100,25,-52,-129,-26
19,-38,-99,197,215,-90,-24,145,57,196
74,-4,-138,57,245,-28,67,209,139,156
103,18,-117,36,90,37,106,150,144,99
106,43,-10,89,49,96,88,113,142,67
98,51,101,150,137,106,75,48,76,-35
84,60,186,159,-30,28,74,-5,60,-88
-8,-28,66,81,-251,-35,69,-10,46,-42
-126,-199,-201,-14,-156,-4,59,17,35,-13
-208,-304,-197,59,55,-69,-112,-57,-42,-76
-425,-492,-181,210,-58,-318,-373,-283,-252,-294
-628,-785,-329,118,108,-238,-438,-385,-390,-438
-435,-700,-162,-69,403,11,-220,-230,-239,-213
-60,-241,339,-179,356,69,-58,-121,-54,-14
218,349,166,-206,271,99,46,25,134,138
284,477,-287,-272,59,43,64,189,295,258
146,376,-77,-312,-268,-3,-32,134,199,198
176,453,140,-231,-364,-62,-61,37,127,191
187,323,180,-107,-240,-88,1,62,155,223
169,152,107,68,-38,54,108,115,144,170
82,37,35,253,139,195,215,141,83,-28
-13,-85,-76,216,190,214,200,93,1,-180
8,-48,-186,34,132,134,123,5,-89,-182
71,64,-146,-37,75,63,44,-13,-52,-47
119,96,67,-100,3,-12,-9,39,37,185
171,87,76,-184,-102,-90,-79,-16,41,274
53,-91,-237,-293,-248,-153,-138,-137,-82,74
-52,-170,-195,-370,-406,-233,-165,-138,-118,-12
-52,-64,93,-292,-345,-215,-142,-26,-29,154
-81,16,302,-110,-140,-32,-79,34,47,146
-156,-78,91,0,-100,12,-24,63,120,-67
-174,-263,53,99,-168,-106,-42,39,142,-109
-71,-160,65,191,-160,-159,-25,52,165,42
124,119,108,212,-70,-64,50,103,201,-37
159,258,191,120,-119,4,12,38,107,-331
124,223,-32,-42,79,151,-6,-33,-4,-269
47,75,-123,-170,249,273,62,-10,-70,93
-74,-42,-8,-89,99,181,118,37,-159,265
-196,-101,-35,69,49,125,42,-3,-297,-40
-155,-19,-100,93,229,158,7,-32,-309,-466
25,116,133,201,294,85,19,7,-142,-366
115,131,258,265,232,75,76,76,3,-66
164,91,1,169,145,100,117,114,64,44
185,114,-176,101,76,66,48,44,28,174
115,54,-34,47,100,61,9,-18,-16,219
64,0,8,-10,116,84,6,-53,-27,141
26,0,-4,-75,65,16,-37,-44,-15,-2
8,37,-11,-142,18,-47,-82,-8,-19,-147
6,-14,76,-183,-77,-56,-69,20,9,-288
-16,-214,108,-110,-152,-59,-32,73,59,-340
-18,-225,171,145,-83,-31,41,67,49,-220
73,76,143,317,-89,-45,72,64,73,71
243,423,-56,296,-131,-46,15,3,68,399
193,286,-15,225,-21,58,56,-39,-9,410
7,65,43,103,-56,12,110,-36,-82,187
-42,-35,-24,-72,-192,-10,107,2,-35,96
3,-48,-41,-148,-205,-2,64,-24,35,103
68,28,122,-37,74,64,31,-87,45,136
157,94,271,77,104,35,12,52,172,190
126,33,236,67,-156,-100,50,149,205,112
-229,-250,13,27,-435,-396,-149,-55,-74,-211
-717,-624,-331,-14,-484,-612,-512,-451,-517,-606
-702,-542,-613,-241,-364,-370,-429,-448,-529,-543
-324,-324,-334,-250,151,90,-66,-97,-194,-102
94,23,204,-75,650,323,130,141,59,198
361,335,-2,20,607,372,227,232,178,243
295,303,-51,221,342,250,169,169,151,163
203,367,109,244,187,129,88,104,107,67
121,447,132,28,26,62,77,106,94,28
39,351,165,-54,-43,16,87,98,97,35
39,215,160,-45,-194,-61,35,71,76,-3
97,-37,-13,-51,-521,-174,51,134,140,97
105,-163,-125,-95,-586,-135,55,115,123,125
86,-75,-53,-81,-277,-28,29,66,62,88
8,-87,-52,31,515,94,-15,-38,-35,71
25,-75,-39,111,878,225,45,-42,-18,202
19,-115,-114,57,313,76,42,-50,0,234
-30,-204,-259,-52,-175,-72,-22,-91,-30,154
-14,-110,-131,-109,-397,-107,49,19,36,55
-53,2,190,-121,-299,-86,40,80,35,-161
-103,88,406,-80,183,89,-28,23,-63,-237
-27,82,179,17,483,206,0,11,-81,20
24,25,1,62,119,4,-10,88,-21,170
-7,1,-28,53,-59,-107,-33,73,-17,-93
-69,64,33,-14,-111,-111,-78,-34,-95,-404
-155,27,212,-102,-78,-86,-163,-156,-209,-475
-129,-18,190,-169,-144,-112,-153,-152,-204,-333
-34,-125,27,-160,-214,-183,-105,-56,-95,-122
-35,-301,42,96,17,79,36,62,20,54
-1,-252,-124,210,103,180,105,81,65,131
112,-148,-213,107,-219,-55,30,37,73,167
139,-170,-144,-10,-589,-314,-13,55,142,222
-75,-417,-292,-68,-316,-178,-56,-7,49,88
-168,-463,-235,-58,282,205,-19,-67,-50,102
51,-86,115,-54,342,267,32,-20,44,429
146,366,464,-28,244,171,55,-9,73,419
116,227,526,68,275,153,69,25,82,83
99,109,219,87,90,47,-1,-14,77,-128
25,112,-16,119,89,117,62,1,61,-258
-82,-14,-94,64,158,244,184,38,69,-440
-42,329,-159,-25,133,258,230,72,74,-423
84,392,-157,-34,91,161,186,152,110,-228
142,249,-127,-14,56,74,101,147,81,-116
118,134,-32,17,17,22,33,-31,-57,-174
65,17,-55,-19,-50,-26,0,-123,-92,-173
-10,-100,-111,-47,-72,-15,-43,-190,-134,12
-55,-196,-183,-58,-48,0,-70,-207,-142,278
-47,-201,-205,-93,-44,-14,-13,-91,-43,444
-109,-172,-97,-61,-84,-59,1,-34,-32,342
-303,-257,-210,3,-242,-266,-124,-47,-112,-55
-282,-183,-263,-28,-421,-403,-139,-36,-104,-273
-17,48,18,-58,-546,-367,9,82,52,-181
99,208,389,-19,-105,69,89,92,85,-131
135,206,167,-64,403,460,120,28,36,-39
250,187,-159,-126,338,324,161,168,194,188
233,126,-75,-95,114,58,120,277,285,250
164,87,26,-52,22,-74,27,135,146,136
92,-9,41,-7,90,-25,-37,30,24,61
33,-142,58,99,192,126,-15,51,32,103
0,-201,91,192,161,49,-45,69,52,336
-22,-75,52,147,130,-14,-90,-1,-29,393
-1,240,-150,-90,0,-91,-114,-91,-138,38
-20,178,-172,-174,-51,-65,-53,-67,-141,-234
-80,15,-52,-131,-42,-20,-19,-62,-131,-278
-52,8,39,-93,-71,-54,-70,-100,-164,-311
-17,29,65,-23,-77,-76,-76,-78,-114,-214
-47,-10,81,94,-60,-38,15,46,27,-62
-20,-14,68,227,-17,16,87,110,138,58
29,25,92,348,48,67,66,28,92,68
-26,-50,83,329,5,42,37,-39,17,-11
-220,-264,-87,146,-190,-143,-84,-154,-83,-168
-372,-449,-267,-25,-294,-324,-233,-227,-137,-232
-288,-366,-170,-10,-43,-177,-172,-174,-26,-72
-110,-12,267,0,119,6,-56,-104,44,141
49,272,98,-70,202,154,83,1,118,273
58,139,-160,-123,134,101,83,35,82,229
18,3,-17,-172,-8,-72,-80,-88,-59,163
68,12,32,-198,9,-90,-80,-81,-28,301
104,149,41,-188,8,3,44,98,146,468
154,361,186,-222,-200,-102,-40,61,164,433
143,278,321,-110,-278,-171,-71,50,149,250
81,71,279,32,-123,-74,13,116,148,-30
68,-101,131,93,-24,-52,0,88,34,-313
64,0,-153,42,-119,-75,-4,69,-79,-420
53,254,-227,112,-135,24,105,136,-89,-447
-70,203,-60,155,35,213,128,62,-182,-554
-47,133,81,86,41,204,90,0,-178,-479
-11,16,62,7,-133,70,30,-34,-163,-348
-7,-193,-53,37,-21,69,42,-37,-149,-218
30,-123,-181,81,430,101,28,-59,-122,-24
-23,-77,-269,-25,522,39,-92,-135,-119,155
-101,-138,-307,-92,171,-74,-257,-222,-179,86
-39,-57,-173,-126,-236,-234,-245,-133,-99,27
-41,45,186,-191,-489,-257,-85,11,0,-36
-36,78,342,-147,-421,-211,-46,-21,-35,-90
-33,25,129,-35,-241,-70,-3,-28,-45,-54
-175,-215,69,127,-184,-46,34,-14,-50,-42
-296,-479,-183,172,239,112,28,-25,-64,-5
-257,-479,-224,205,604,268,26,13,-9,25
-173,-452,-36,231,379,175,42,-1,-5,34
57,-215,-72,37,-87,44,127,93,94,225
238,291,41,-138,-256,35,73,44,85,319
309,581,230,-111,-61,13,-52,-94,-9,297
368,563,62,-126,64,-9,-8,35,105,249
160,163,-9,-132,20,25,40,105,129,-134
46,-44,-2,-41,96,43,33,76,80,-298
90,-6,-35,15,148,74,37,79,134,-72
91,-4,-17,-24,-32,20,0,82,192,158
32,-92,-1,-18,-115,-38,14,85,201,218
-18,-129,-36,57,116,24,40,65,140,149
17,-41,47,155,127,9,66,43,128,248
84,163,89,138,-225,-144,109,42,115,350
129,206,10,11,-352,-135,112,14,74,215
47,19,-63,1,60,122,55,-74,-40,11
18,-39,-59,-2,174,147,10,-7,-53,-86
99,6,10,0,1,-63,-59,69,-13,-42
58,-22,105,110,160,61,-45,-64,-132,37
-65,-102,135,132,101,98,17,-89,-193,98
-82,-170,1,21,-115,-42,19,-64,-180,134
-21,-148,-96,-66,105,-50,-21,-30,-104,121
75,-5,16,-45,215,14,-47,36,-6,17
81,104,-142,-62,107,18,-27,70,54,-195
-1,97,-182,-17,-23,-158,-81,23,0,-395
-132,-63,-115,33,13,-63,-91,-78,-74,-502
-203,-248,-24,32,55,56,-90,-133,-122,-357
-92,-344,70,71,125,90,-21,-59,-78,-66
55,-178,311,98,178,90,46,11,-13,262
81,-10,227,21,135,49,81,83,66,459
32,37,-7,-53,51,-21,82,109,68,306
25,290,-153,-189,-115,-98,46,55,40,36
56,270,-202,-230,-105,-25,39,66,102,-31
23,94,-80,-91,46,152,73,83,140,-59
16,75,27,8,-56,46,47,88,129,-29
-22,46,75,124,-102,-8,62,91,121,-1
-119,-40,111,258,-55,14,85,90,83,-129
-183,-146,108,256,32,39,54,65,29,-231
-186,-196,83,137,99,90,58,62,14,-197
-125,-158,144,80,92,119,118,103,26,17
33,76,74,-6,-13,60,90,45,-9,237
199,239,-123,-136,-208,-3,98,46,35,369
130,167,-112,-100,-320,-80,24,-50,6,274
-41,86,-97,59,105,22,-98,-222,-144,61
-108,48,-120,54,307,104,-51,-185,-124,-51
-367,-256,-202,-55,-86,-204,-251,-306,-268,-355
-538,-643,-259,-86,-273,-369,-351,-379,-372,-518
-345,-755,-71,-50,-110,-164,-104,-153,-156,-280
-10,-498,461,37,17,32,165,143,143,91
277,277,315,-58,-103,-2,186,240,233,287
412,645,-73,-138,-343,-106,132,234,243,339
302,343,-168,-43,-490,-274,17,133,147,160
56,275,-300,15,-211,-153,-118,-67,-85,-182
32,203,-168,69,168,85,-50,-38,-102,-294
21,117,-112,123,591,214,-11,-23,-96,-351
-46,6,-59,139,938,280,-10,-50,-48,-192
-35,-34,59,75,571,176,-10,-31,75,62
-15,-95,-6,-80,-46,29,-75,-51,76,153
34,-58,-52,-233,-275,-13,-62,-28,87,289
-4,2,-52,-247,-305,-78,-79,-56,17,243
-61,-37,-131,-133,-268,-133,-130,-89,-63,50
43,-54,-3,-1,-206,-90,-1,51,23,30
210,80,348,92,-220,-53,124,144,115,143
200,189,351,48,-242,-86,114,105,28,48
88,90,-60,-46,-3,146,178,106,-25,-62
13,-26,-118,-12,386,522,272,135,-23,-140
2,-20,-39,30,341,368,161,50,-75,-192
15,6,-79,21,102,58,20,-90,-129,-174
13,-16,-90,-21,-100,-108,-12,-1,-43,-95
17,-74,-26,-18,-71,-90,-3,168,103,29
61,-55,32,42,170,45,15,127,131,156
137,82,169,38,159,69,-16,16,82,254
127,109,187,-21,24,-36,-127,-108,-36,216
-15,59,17,-60,-197,-209,-258,-225,-159,60
-114,-4,-99,-114,-404,-191,-178,-148,-155,40
-188,-115,-131,-196,-515,-140,-29,-40,-99,85
-224,-189,32,-98,-337,-189,-65,-104,-91,176
10,-191,29,-99,-262,-285,-53,-89,27,249
178,-93,-49,-36,-410,-346,8,-66,80,114
120,144,-2,218,196,-83,-75,-208,-86,-78
192,281,26,274,649,232,14,-36,39,81
117,140,49,196,478,336,169,157,183,59
20,112,123,182,195,269,190,210,178,-341
-80,88,183,179,46,230,153,183,69,-736
-163,-47,93,129,133,183,134,147,22,-569
-102,-124,42,49,215,192,113,83,55,-40
-11,-119,66,15,134,200,78,-9,60,129
-10,25,74,52,148,183,0,-146,-92,-191
-46,127,20,56,129,60,-38,-175,-150,-328
-126,-36,-113,9,-38,-102,-107,-77,-81,-216
-134,-148,-125,-56,-103,-150,-142,-41,-33,-57
-21,3,57,-89,-52,-78,-111,-60,15,72
75,162,261,-89,-33,-51,-68,-31,106,160
60,132,164,-47,-40,-97,-109,-62,75,180
-20,-41,-4,-6,-32,-102,-153,-107,-5,194
-38,-74,-133,-40,-27,-68,-115,-56,-18,168
22,61,23,-89,-53,-22,-4,94,94,143
51,81,175,-119,-104,-17,77,217,224,97
-44,-154,80,-33,-51,-40,23,141,140,-32
-246,-376,-21,113,191,93,-59,-44,-92,-214
-58,96,-189,-126,-10,-27,-113,-127,-192,-228
142,241,-147,-219,-141,-64,-43,-61,-89,-134
158,212,31,-182,-186,-74,22,-31,-11,-40
123,230,88,-167,-137,-82,-38,-90,-37,14
50,139,160,20,-45,-60,-60,-81,-27,80
-42,-51,75,167,-27,-68,-94,-121,-73,144
-152,-336,-158,143,-105,-182,-215,-214,-158,205
-92,-384,-296,47,-295,-348,-263,-168,-93,355
89,-151,-186,-82,-606,-544,-206,-86,1,489
257,261,308,-122,-889,-645,-110,-11,36,482
275,442,359,-71,-430,-248,-17,72,98,341
73,239,206,8,435,304,-16,4,57,-5
-242,-334,-48,69,737,440,21,-64,-49,-454
-462,-741,-342,108,497,309,120,-15,-89,-758
-385,-484,-362,93,230,166,140,47,-75,-699
-317,-163,-125,18,147,149,38,-67,-142,-496
-130,64,-151,-35,188,252,167,80,35,-79
98,179,-128,9,153,185,245,280,246,254
151,229,-2,58,257,164,187,206,209,182
132,251,55,104,413,227,182,116,141,-22
80,155,53,178,409,207,146,31,63,-199
47,57,-51,140,109,123,118,-9,-14,-251
37,95,6,-53,-517,-131,0,-55,-81,-81
16,157,136,-232,-935,-319,-98,-105,-119,184
-66,51,121,-169,-438,-126,-52,-119,-165,272
-130,-169,-114,-11,232,64,4,-116,-182,39
-91,-237,-218,105,209,67,53,-35,-62,-152
56,-96,-131,81,5,1,13,-28,2,-32
140,58,146,15,278,176,78,-84,-28,72
167,213,202,-23,248,200,131,-65,-36,16
96,173,67,-29,68,60,126,60,62,46
13,59,53,-15,74,78,50,268,227,197
26,58,70,20,51,-56,-50,297,262,156
17,66,88,49,68,-61,-66,171,152,-51
14,92,87,49,63,-4,-16,103,49,-167
-74,2,-56,8,2,-54,-91,1,-107,-210
-229,-219,-309,-53,-90,-171,-235,-162,-258,-183
-241,-320,-307,-54,-79,-174,-233,-175,-226,-19
-63,-233,60,-22,-12,-72,-116,-49,-62,176
77,-39,568,-45,-48,-56,-71,-10,28,285
99,119,651,-75,-143,-104,-94,-24,47,317
107,187,284,-214,-428,-262,-118,-34,33,318
3,182,-283,-420,-823,-495,-241,-135,-75,217
-192,-273,-478,-319,-690,-324,-169,-129,-103,75
-132,-481,-209,-176,-401,-89,-14,-32,22,92
-80,-349,18,-10,162,27,0,-90,-25,51
70,70,302,155,845,329,131,5,26,146
251,353,273,169,521,251,195,199,176,320
225,564,-36,192,99,101,159,230,168,200
62,353,-49,303,217,231,153,125,19,-236
20,263,-97,245,267,206,92,-13,-110,-440
68,252,-114,118,218,172,101,-37,-108,-253
4,24,-115,101,151,163,124,-13,-96,-135
-98,-158,-103,115,30,54,55,42,-44,-142
-113,-292,-90,67,-23,-15,1,71,59,-105
-9,-259,-40,31,-30,-29,40,138,211,76
69,-124,98,45,70,49,88,180,256,124
84,65,55,98,373,186,65,87,158,32
81,276,170,159,418,203,47,30,102,-9
12,61,224,230,409,182,91,64,103,67
-37,121,169,217,329,92,49,29,21,54
-44,386,-6,54,122,-88,-111,-126,-188,-162
-67,229,-129,-110,-115,-199,-173,-203,-276,-296
-74,2,-241,-303,-375,-184,-113,-128,-178,-224
-52,-165,-195,-397,-450,-78,-11,7,-25,-73
-30,-135,-201,-312,-353,-73,-52,10,-17,-27
-195,-207,-236,-165,-340,-193,-187,-124,-168,-141
-251,-312,-239,-82,-312,-174,-155,-82,-125,-133
-96,-244,-75,-101,-195,-51,-36,49,33,-43
55,-14,267,-92,-93,28,78,148,162,124
196,227,156,-36,20,111,180,248,317,396
227,377,37,8,29,96,130,200,302,605
164,290,111,67,12,32,58,95,210,531
109,42,28,49,11,5,25,35,149,208
77,-55,-54,35,55,49,30,-4,48,-52
79,-28,-78,33,65,76,46,-6,-48,-39
81,-12,-61,33,35,52,40,-39,-164,11
22,-38,-31,44,-25,-4,-13,-133,-283,-42
-73,-122,-58,92,-62,-28,-44,-190,-307,-40
-115,-176,-76,106,-50,20,-54,-196,-244,-58
-62,-140,-70,-23,-167,-36,-38,-140,-154,-128
18,-41,-19,-93,-219,-68,11,-47,-95,-175
68,53,19,-153,-110,-87,-27,-19,-45,-33
61,67,-105,-154,164,62,-24,-56,-58,92
1,3,-34,-61,191,115,39,33,-3,-26
-63,-100,17,-9,-27,-45,-1,104,62,-226
-98,-155,-28,3,-81,-95,-65,22,18,-316
-68,-141,-37,96,110,9,-15,12,41,-172
-4,-37,79,257,125,-7,20,18,79,-14
57,194,131,207,-123,-85,19,-1,74,42
56,258,171,17,-338,-180,3,-17,40,119
-191,-11,229,18,-181,-116,-78,-187,-121,39
-320,-297,57,56,75,16,-103,-239,-169,-13
-174,-331,-99,30,38,-21,-23,-48,-6,104
-74,-250,-222,66,209,-25,-33,25,57,171
-22,69,-146,56,375,41,-29,60,73,104
37,394,76,-61,220,83,39,97,50,-183
22,419,296,-87,54,63,46,90,5,-383
45,219,280,-27,-11,38,18,54,-5,-135
87,-87,-15,-20,-58,11,20,55,16,192
137,-175,-232,43,14,21,60,104,56,254
143,-42,-151,98,146,46,71,91,60,29
129,32,-38,41,-32,-118,44,106,78,-102
71,1,-68,-5,-217,-242,53,102,61,63
26,-23,-79,-10,-91,-142,47,50,17,220
26,-9,11,43,182,220,25,-14,-40,183
88,55,83,59,-197,63,4,33,49,127
172,110,104,-23,-781,-347,-52,64,125,105
53,0,24,-2,-271,-222,-102,-98,-29,-56
-86,-126,-73,74,656,88,-80,-163,-125,-232
-256,-293,-268,25,645,224,-85,-230,-242,-453
-353,-482,-461,-22,390,301,56,-136,-188,-327
-195,-352,-278,4,306,219,159,116,64,118
32,23,218,53,199,130,88,106,135,355
124,215,340,96,150,95,78,54,151,228
5,69,85,129,95,0,22,64,152,-112
-85,-73,-1,82,3,-140,-78,120,169,-281
-61,-73,-43,1,42,-18,-17,90,128,-215
21,65,168,-49,10,68,56,90,114,-56
142,243,134,-101,-59,49,55,89,102,129
127,214,40,-94,-41,23,57,63,29,136
63,107,49,-87,-46,8,54,50,-8,49
20,63,44,-95,-69,14,38,42,-7,-57
-18,31,62,-41,-72,-16,-14,3,0,-145
-61,-37,91,61,-72,-56,-80,-58,-19,-190
-88,-132,76,126,-36,-58,-67,-77,-11,-228
-154,-274,-78,69,-46,-76,-39,-82,21,-280
-267,-413,-204,17,-115,-131,-58,-126,-13,-243
-189,-363,-249,31,-73,-84,-2,-77,-5,24
94,-89,-253,-63,-65,-73,10,-12,32,385
297,233,122,-102,-113,-36,-32,-32,39,593
319,489,181,-121,-251,-66,-91,-68,-16,475
196,378,31,-112,-290,-124,-5,49,2,192
-33,4,6,-7,12,-35,19,9,-88,-52
-315,-357,-45,50,253,60,-83,-194,-267,-227
-363,-391,-225,-70,110,42,-132,-285,-342,-237
-195,-105,-147,-151,-42,-76,-101,-222,-260,-112
-1,257,243,-111,-99,-122,-91,-134,-161,17
188,415,180,-131,-110,-69,15,32,-10,135
143,143,51,-134,47,89,70,91,56,147
88,1,95,-22,83,124,55,51,14,136
31,-26,46,-29,-93,-19,-20,-22,-63,73
-90,-37,-156,-82,-155,-143,-134,-129,-151,-88
-73,23,-254,40,49,-32,-53,-54,-72,-118
-19,16,-140,158,183,109,87,66,42,-199
-43,-2,23,162,100,124,118,94,42,-393
-72,-85,58,124,-78,54,109,84,34,-238
-8,-204,-27,58,-245,-21,75,73,48,307
70,-117,-109,3,-242,-37,9,30,32,598
95,105,-47,62,55,93,48,25,47,343
122,188,-27,47,157,141,100,65,102,73
106,97,-101,-35,126,102,70,73,109,-35
73,-102,4,13,223,131,84,86,133,-27
54,-142,208,45,156,44,40,69,133,34
30,56,340,46,102,-15,-40,-2,49,-59
16,287,256,-28,18,-69,-103,-111,-52,-173
99,560,-1,-176,-88,-187,-153,-145,-90,-190
131,421,-15,-120,14,-55,-27,-28,16,-132
108,239,29,-75,-239,31,127,70,131,-75
16,58,6,-83,-372,-6,93,20,98,-154
-27,-191,-66,29,-36,80,49,4,90,-198
57,-127,-20,167,177,113,77,107,177,-131
44,-24,-2,192,174,158,106,87,142,-141
-23,-7,-6,132,145,204,153,72,115,-57
-129,-40,27,121,46,68,25,-15,20,32
-326,-207,-25,121,-123,-154,-225,-192,-197,0
-450,-443,-189,-61,-194,-240,-350,-348,-417,-142
-377,-628,-289,-192,-47,-141,-274,-332,-424,-246
-101,-407,-17,-146,118,35,-37,-73,-145,-61
125,71,-118,-167,44,38,68,104,61,131
100,140,-410,-256,-212,-156,-24,116,80,90
19,-99,-279,-207,-220,-182,-71,77,38,-23
99,-64,46,-46,-241,-211,-73,39,44,26
51,8,214,52,-445,-299,-181,-113,-63,169
-16,-1,126,149,-549,-337,-280,-230,-163,352
-100,-191,-66,172,-379,-289,-227,-154,-104,324
-105,-313,-28,-28,58,-56,19,98,130,251
28,-27,385,-20,248,103,163,186,175,124
37,169,382,138,326,230,275,247,132,-70
25,229,-104,81,498,467,282,183,13,-205
65,342,-127,7,293,315,112,14,-135,-341
6,144,-66,49,43,43,5,-12,-141,-392
-47,-43,49,84,0,3,41,58,-22,-333
35,-17,7,16,-9,29,110,123,98,-210
178,102,9,-44,-17,59,66,111,151,8
244,228,71,-91,-33,126,71,107,191,355
244,289,61,-98,-37,117,154,205,288,500
161,172,121,-34,46,86,111,179,254,198
107,27,106,-14,27,-6,19,80,187,-68
74,-63,13,-6,-6,4,13,29,156,0
2,-53,-86,37,-125,-26,3,-23,101,169
-192,-154,-284,16,-484,-353,-161,-180,-84,195
-304,-348,-372,-9,-613,-579,-274,-288,-238,200
-295,-416,-188,138,102,-219,-175,-227,-170,253
-54,-157,153,168,362,130,63,64,122,360
47,87,154,47,327,383,87,41,80,67
143,261,211,33,215,404,162,92,96,-85
201,358,230,25,-126,155,188,137,65,-301
76,237,81,44,-23,124,131,53,-99,-719
-130,-27,8,74,181,86,14,-56,-208,-747
-219,-287,-177,9,138,9,-78,-135,-218,-284
-102,-302,-263,-70,-5,-41,-81,-28,-72,180
114,6,24,-35,-17,-47,-51,48,84,379
275,319,216,-32,-48,-14,54,111,197,438
168,344,226,-48,119,84,57,16,82,282
78,252,114,-102,200,98,0,-108,-52,127
61,104,-77,-237,-47,-69,-78,-170,-166,-65
-144,-235,-282,-208,-184,-134,-107,-205,-254,-335
-350,-479,-384,1,61,-37,-155,-227,-341,-472
-291,-425,-207,73,367,95,-142,-216,-354,-362
-74,-186,170,8,305,120,-45,-108,-222,-85
171,168,373,-30,176,142,87,131,42,84
319,435,279,-28,149,157,158,241,184,33
264,391,188,-23,56,45,99,304,254,112
152,213,235,76,-39,3,37,211,184,354
83,106,230,192,-65,69,68,128,103,356
34,60,145,275,-101,38,166,206,164,89
-11,25,19,218,-55,26,162,253,210,-68
8,84,102,10,-91,0,111,208,197,53
-95,23,71,-71,30,-6,24,49,56,47
-139,-273,-122,-6,314,128,2,-56,-31,-78
46,-163,-164,2,320,229,100,53,42,19
191,109,131,-6,131,125,34,33,59,165
280,282,319,7,49,36,-43,-55,9,266
235,153,300,51,51,21,-28,-70,-20,383
45,-92,102,7,-35,-55,-81,-96,-59,368
-79,-70,-29,30,-52,-100,-119,-68,-62,83
-121,106,-51,69,3,-72,-70,-20,-61,-338
-72,232,-225,-106,-60,-58,-23,15,-65,-604
-153,24,-292,-177,-92,-39,14,-32,-92,-607
-364,-191,-333,-148,-187,-174,-101,-185,-232,-663
-431,-263,-320,-154,-242,-213,-170,-256,-304,-591
-268,-141,-55,-167,-203,-100,-116,-237,-237,-298
-74,33,417,58,-48,45,-13,-167,-139,-82
74,118,274,235,22,94,89,-32,-5,79
106,26,-45,77,-287,-105,15,79,105,176
131,30,94,-102,-607,-357,-54,172,231,297
101,95,96,-174,-402,-282,-84,101,215,252
44,40,-45,-112,34,45,-39,11,131,71
67,-27,-54,50,315,245,72,100,188,-15
103,-12,-175,154,567,346,128,172,236,13
89,23,-165,127,478,286,109,144,215,136
120,76,-2,81,244,147,57,80,158,295
143,115,38,65,147,49,-26,-16,50,445
41,49,-3,76,147,28,-18,-56,-17,491
-19,57,-35,84,160,32,12,-32,-50,257
-45,81,18,156,225,58,39,-4,-47,16
-59,88,123,168,154,-55,-18,-41,-36,32
-51,-76,28,92,-14,-197,-91,-72,20,122
-74,-328,-81,116,-116,-266,-104,-41,72,161
-76,-401,-91,62,77,-1,-84,-32,72,85
24,-330,-87,-73,35,113,-45,-2,84,113
57,-152,-112,-257,-307,-87,-63,-18,32,108
115,87,-286,-464,-325,-24,4,18,-47,36
213,269,-144,-368,-180,58,78,103,-50,142
147,195,123,-125,-103,59,-14,-30,-215,153
39,47,143,0,-103,49,-42,-81,-298,-71
42,-29,31,0,-93,45,82,80,-140,-465
54,-15,32,27,8,77,100,106,-56,-645
54,65,46,5,91,61,36,-7,-76,-444
95,134,32,28,111,129,67,2,-17,-147
37,107,80,119,98,125,74,8,7,2
-110,-31,20,132,-51,-13,-11,-40,-28,-80
-276,-295,-296,23,-362,-164,-101,-61,-63,-190
-290,-386,-404,-64,-535,-193,-72,24,25,-142
-155,-193,-82,9,-113,-22,17,81,78,-17
36,154,345,158,541,164,140,137,128,81
82,387,577,177,470,125,91,67,12,-124
-56,255,301,127,77,36,-34,-85,-214,-502
-302,-212,70,223,-59,67,-114,-232,-371,-575
-343,-460,-99,156,-403,-137,-148,-256,-352,-387
-136,-386,-311,-92,-482,-271,-135,-202,-245,-49
64,-133,-109,-116,-59,-118,-47,-105,-74,268
255,335,195,-117,-53,-119,19,-4,86,466
388,510,6,-254,-292,-173,94,111,228,595
252,296,-63,-216,69,32,80,139,221,472
47,99,7,-4,627,379,16,-4,46,109
10,16,7,50,310,191,25,3,48,-8
-51,-146,-155,30,-308,-88,57,112,117,64
-172,-405,-254,-17,-790,-342,-10,121,89,81
-155,-481,-94,-144,-793,-394,-69,86,79,100
-154,-408,165,-135,264,74,-89,-66,-41,10
-40,-17,362,-114,834,313,-36,-77,-51,65
119,615,30,-250,417,224,-13,-58,-34,158
148,519,-162,-301,104,109,-23,-29,7,226
71,141,-56,-241,11,-39,-115,-45,24,339
25,-169,-165,-201,-58,-145,-144,29,63,433
0,-235,-239,-96,-46,-105,-76,9,-20,390
-67,-224,-248,-53,-96,-146,-139,-121,-180,304
-64,-119,-174,-120,-91,-149,-94,-76,-111,278
-71,32,111,-19,51,-7,51,54,29,68
-80,153,421,255,225,169,176,165,111,-347
-4,226,215,295,303,280,298,305,245,-631
31,187,58,206,215,209,245,310,281,-633
-38,110,125,250,147,125,142,173,156,-576
-75,61,179,308,126,105,71,35,9,-550
-47,-1,152,352,97,85,39,-49,-81,-326
-16,-80,41,259,77,95,71,-15,-77,7
40,-21,-11,147,41,76,84,70,33,130
63,126,54,29,-46,-5,61,67,68,-33
2,197,46,-100,-116,-59,84,58,37,-117
-40,98,97,-69,-203,-163,28,81,53,97
-18,-156,135,9,-183,-191,-55,24,20,294
41,-320,143,35,-126,-97,0,11,25,349
39,-319,46,35,58,34,98,32,19,285
55,40,-142,-34,67,22,38,-54,-34,159
194,540,-335,-183,-175,-65,-44,-119,-65,44
142,399,-177,-115,-214,-6,43,33,75,-9
-24,50,8,3,54,100,21,40,58,-113
-7,-132,116,113,219,104,-8,38,50,-90
56,-35,211,173,166,46,-16,50,74,11
60,19,169,166,134,-37,-100,-54,-43,-14
-39,-29,-95,42,167,-108,-227,-267,-279,-184
-88,-22,-198,10,76,-99,-199,-278,-311,-167
-60,-147,-232,-1,-25,-49,-79,-167,-226,-7
-5,-174,-268,-76,-62,1,45,-15,-94,50
65,-38,-78,-64,-92,-16,84,83,41,40
81,18,-67,-108,-147,-87,21,52,40,26
22,-42,-161,-107,-51,74,53,46,19,-27
9,-63,-91,-68,-29,117,62,59,20,-38
46,35,88,-45,-170,-9,6,-18,-26,12
93,154,172,-72,-325,-167,-25,-36,16,159
64,159,138,-49,-127,-133,-58,-7,34,191
-16,71,152,28,213,142,-2,-20,-33,43
-27,-67,88,65,226,216,65,34,-1,5
10,-166,-30,25,18,15,13,121,73,106
-17,-138,-78,13,13,5,11,72,45,60
-45,-66,-55,9,75,76,46,3,-30,-83
-65,12,28,2,41,31,0,-77,-83,-136
-51,40,105,39,-45,-64,-39,-87,-76,-127
-20,-2,135,117,-126,-163,-67,-65,-67,-177
-65,-114,111,177,-200,-278,-150,-100,-93,-207
-221,-294,-80,86,-212,-264,-167,-89,-64,-142
-241,-293,-131,-6,-139,-94,-111,-100,-54,13
-129,-147,15,-36,-74,40,-4,-77,-13,27
-15,71,61,-98,-54,-4,33,-102,-52,-220
154,197,-126,-179,-153,-30,102,-19,17,-142
135,60,-158,-145,-231,-76,140,103,131,136
57,19,-186,-73,136,59,46,79,94,231
56,58,-156,-30,409,283,85,144,176,372
29,112,59,-9,195,135,14,79,139,313
24,111,144,29,69,72,-13,33,62,72
67,107,95,84,-88,18,22,48,53,-240
97,116,86,74,-448,-91,33,80,53,-343
105,87,97,22,-568,-194,-28,18,-2,-187
-62,-72,18,119,-58,-129,-139,-174,-193,-160
-240,-264,-149,188,481,36,-115,-191,-249,-163
-226,-334,-228,134,443,142,40,-103,-168,-56
-192,-327,-125,26,376,186,68,-212,-250,-8
-131,-177,188,-7,194,21,-20,-313,-336,100
-125,-132,52,-130,-512,-389,-178,-232,-261,95
-327,-303,-684,-360,-534,-410,-350,-97,-225,-300
-377,-355,-597,-333,119,-61,-261,-17,-158,-510
-74,13,175,-111,248,65,-137,0,-42,-264
163,324,329,-37,48,61,8,120,135,89
181,359,36,-145,-67,-9,-2,103,173,270
130,188,-63,-181,-92,-70,-34,51,174,294
146,109,197,-94,-45,-53,-14,51,183,243
208,173,213,-23,0,-6,6,102,262,245
212,117,90,89,82,53,35,145,337,342
167,41,167,300,176,64,55,86,246,301
81,-29,139,468,159,23,90,61,103,-62
-69,-169,3,339,17,-71,103,50,-24,-295
-192,-303,-72,38,-104,-174,-21,-84,-171,-269
-226,-333,98,-28,8,-31,-59,-143,-237,-317
-167,-242,178,-73,1,140,36,-28,-113,-345
63,-27,80,-128,-178,81,159,148,118,-79
251,252,64,-68,-219,-9,182,216,237,322
392,371,26,-54,-183,-93,87,151,227,682
303,155,67,-19,-45,-72,-42,-9,116,670
33,65,-29,-43,-35,67,-92,-136,-44,111
44,139,-170,-99,-127,78,-48,-70,-47,-238
76,-78,-148,1,-21,129,54,56,66,-74
111,85,-103,23,-27,114,132,142,168,130
49,297,-23,21,74,119,115,92,100,4
4,108,-40,60,377,154,115,52,48,-46
61,90,-29,7,505,198,168,84,84,48
62,146,3,-46,259,149,154,51,50,34
85,234,20,-86,-55,-70,40,-31,-35,13
53,62,-45,-104,-114,-148,-48,-50,-92,38
-51,-147,-67,21,132,73,12,-45,-112,-18
-131,-106,-50,126,238,136,22,-46,-102,-197
-117,-49,-12,102,132,57,-28,2,-34,-285
-18,16,17,50,90,10,-50,66,26,-276
49,19,49,86,104,-19,-35,135,68,-172
-15,-53,83,188,250,98,-38,51,8,-74
-50,-65,33,265,266,162,37,24,-14,10
-41,-41,-25,217,120,184,145,55,-3,23
-16,7,0,49,-48,138,119,40,-10,104
33,31,-65,-18,-59,42,21,14,0,252
30,10,-47,-7,-32,-10,-27,-36,-16,194
-46,-56,-4,4,-115,-136,-129,-155,-78,-27
-66,-87,3,-19,-349,-306,-191,-199,-86,-27
25,-63,139,-68,-513,-340,-124,-96,55,201
114,-71,442,-21,-290,-169,49,99,249,343
182,0,538,36,141,96,197,282,377,295
41,-58,256,31,355,274,148,128,185,13
-230,-132,-99,-76,121,33,-82,-139,-108,-270
-80,207,-363,-157,-80,-124,-108,-82,-85,-139
6,180,-233,-94,-101,-66,59,142,80,-17
6,173,-91,-54,-188,-52,52,142,91,6
1,75,-48,-57,-202,-25,-8,51,20,19
-74,-82,-134,-120,-10,-3,-32,-20,-68,5
-88,-176,-236,-193,93,-36,-114,-137,-171,-17
-93,-251,-290,-181,19,-110,-155,-229,-225,-95
-48,-262,-294,-215,-85,-102,-70,-156,-109,-107
37,-87,0,-203,-112,-47,34,-64,-10,-142
19,75,276,14,107,57,48,-85,-67,-235
-63,8,60,176,258,87,-51,-97,-121,-100
-203,-279,-71,124,49,-125,-185,-167,-197,84
-295,-503,-310,-8,-121,-278,-213,-240,-211,315
-231,-407,-296,34,-119,-242,-103,-140,-67,651
-46,7,-37,116,-42,-86,14,6,90,569
199,589,255,17,-43,87,26,41,131,52
300,661,398,-67,-268,18,17,29,115,-267
266,431,273,-95,-543,-109,60,81,147,-123
157,228,172,-52,-408,-176,4,6,83,86
-8,-37,60,141,416,166,95,13,16,-68
-5,-21,-19,180,601,338,236,192,116,-286
47,145,-20,118,235,261,218,190,112,-342
-29,80,97,113,-38,67,73,0,-29,-177
-247,-267,29,164,-88,-62,-79,-104,-164,-185
-421,-497,-243,112,-386,-273,-239,-167,-260,-442
-454,-421,-263,-9,-450,-338,-249,-145,-242,-662
-301,-240,-41,-127,139,-153,-186,-80,-172,-653
7,-43,96,-238,441,98,-28,45,-20,-264
209,29,185,-84,315,236,129,186,165,154
256,37,-65,17,252,267,212,266,247,311
156,-29,6,77,191,176,144,186,145,243
81,143,29,51,78,43,3,21,22,195
116,352,-176,-104,-109,-92,-133,-87,-48,274
107,207,-132,-101,-271,-160,-88,0,23,250
76,56,-66,-74,-231,-113,-2,33,72,172
102,29,-24,-36,9,-7,43,19,87,160
109,45,4,4,298,134,122,76,69,34
107,65,52,30,388,240,171,135,88,-63
115,105,100,56,168,147,89,126,54,-119
50,105,107,101,31,26,-6,26,-50,-240
-36,0,-29,126,-18,7,28,16,-47,-233
-257,-265,-240,149,39,16,35,-10,-89,-175
-412,-472,-366,75,64,-45,-61,-133,-173,-74
-307,-339,-191,-37,-1,-98,-102,-151,-110,86
-95,-19,291,-3,71,22,-26,-37,27,217
74,286,582,-8,28,16,-8,14,85,250
93,261,117,-110,-88,-33,-31,13,74,185
-64,-148,-49,-1,-146,-95,-59,-82,-69,-10
-93,-284,-110,69,-178,-148,-91,-171,-181,-111
-98,-121,-189,-51,-197,-188,-110,-201,-198,-235
31,174,49,-149,-265,-271,-40,-70,-67,-189
197,310,17,-207,-53,-102,63,86,69,72
273,263,-85,-130,141,79,138,194,200,437
140,71,23,-18,231,331,106,171,225,483
29,-14,62,21,230,323,15,57,138,145
32,-78,12,41,190,150,-2,-10,69,-151
102,-56,10,55,172,125,64,70,125,-50
128,155,54,50,89,68,47,96,149,25
114,185,3,54,73,41,15,77,122,16
65,97,37,104,111,71,34,42,110,63
78,107,95,160,76,25,9,-7,76,170
87,75,47,89,-33,-30,-19,-18,53,208
68,21,9,-35,-144,-44,-5,37,70,166
84,27,44,-57,-197,-75,31,84,122,197
48,-10,20,-31,-202,-67,4,43,60,186
31,-12,5,-42,-349,-110,-11,14,-1,140
-16,-15,42,-35,-438,-173,-4,18,-49,10
-195,-239,-33,68,160,48,13,-13,-151,-238
-212,-336,-96,110,534,188,6,-1,-170,-320
-197,-354,-100,14,173,11,-82,-61,-221,-268
-176,-198,-245,-177,-118,-190,-196,-202,-349,-249
-60,171,-137,-271,-113,-219,-222,-250,-365,-172
106,176,239,-150,17,-78,-82,-105,-172,78
176,125,488,29,64,-11,-36,-21,-33,254
139,98,434,220,92,-12,-21,-7,14,259
103,112,114,270,103,11,16,-11,10,56
112,207,-102,196,139,109,134,63,16,-174
72,144,-92,124,221,144,150,103,44,-171
31,66,20,123,174,25,51,63,62,0
-83,-101,-8,154,137,65,-43,-31,2,-35
-139,-232,-144,16,-75,48,-64,-51,-33,-183
-149,-238,-216,-149,-304,-21,-56,-87,-108,-327
-118,-129,-92,-128,-361,-62,-55,-126,-145,-205
-43,2,-123,-171,-484,-228,-103,-106,-79,-1
-132,-52,-167,-170,-448,-317,-159,-135,-63,-24
-280,-267,-136,-83,-92,-159,-118,-79,-23,-147
-235,-349,-179,-72,48,36,15,45,116,-51
-32,-269,6,6,-51,116,162,138,247,297
225,46,-102,13,-187,105,286,192,294,501
291,378,-137,-122,-100,83,149,-19,88,334
290,480,74,-107,327,204,11,-218,-131,100
222,333,118,-23,189,151,65,-23,-113,-202
163,184,139,3,-519,-170,55,156,21,-215
85,128,105,-22,-933,-424,-30,111,77,-53
-269,-91,32,65,-302,-233,-123,-70,-95,-230
-393,-120,88,83,537,190,-81,-116,-163,-400
-280,-31,141,-98,517,91,-177,-168,-190,-338
-161,-116,63,-245,175,-117,-238,-165,-151,-157
-40,-178,-97,-193,49,-106,-105,-28,10,49
24,-142,-441,-85,177,126,44,83,108,77
-81,-150,-329,57,149,139,13,33,19,-70
-194,-166,24,140,65,52,-72,-60,-110,-146
-118,71,21,-4,-1,-2,-99,-71,-152,-147
56,172,-58,-126,10,24,-27,13,-76,-94
119,159,141,-36,-20,38,34,62,-11,5
142,157,29,0,-177,11,65,69,25,58
146,70,-29,-7,-476,-62,43,40,26,88
134,-40,-31,-15,-618,-166,-34,-24,-1,84
129,-78,-43,-16,-301,-80,26,-27,15,96
92,8,15,-46,438,134,135,86,100,137
68,133,24,-78,657,177,105,173,174,191
-53,1,-100,-43,252,43,-34,18,36,69
-171,-168,-46,6,-23,-134,-106,-100,-67,-58
-112,-188,4,33,-72,-183,-69,-49,-3,24
4,-79,174,145,13,0,-13,4,46,128
193,148,216,166,69,194,107,141,147,211
297,242,49,95,66,129,120,186,184,251
150,78,53,169,253,157,94,122,124,179
59,-27,64,234,327,164,102,82,101,134
46,-42,17,176,239,61,94,53,122,136
57,56,18,118,112,-66,73,62,156,161
85,165,24,100,49,-95,24,69,154,157
47,91,31,76,75,48,41,115,175,97
-11,-17,67,69,68,111,43,115,196,96
-39,-200,139,116,0,86,-14,26,111,67
-57,-291,168,59,-131,23,3,16,87,61
-55,-267,160,-30,-130,8,31,-30,1,28
-9,17,2,-104,-49,45,28,-103,-139,-106
95,523,-149,-175,-22,50,10,-122,-234,-84
92,416,-184,-139,-61,-46,-50,-59,-202,-2
-107,6,-250,-53,-129,-145,-77,5,-141,-187
-221,-254,-197,2,-1,-19,44,66,-121,-434
-127,-144,109,46,58,29,38,47,-122,-300
97,90,352,-22,-45,-39,-11,19,-67,79
126,32,75,-79,27,-21,-38,-5,-89,69
18,-143,-100,-49,137,38,-11,16,-52,-138
28,-57,-111,-73,74,17,-34,-17,-48,-148
151,157,-126,-127,-50,-74,-114,-80,-55,91
151,113,-73,-130,-97,-124,-125,-92,-5,216
71,18,3,-124,-111,-120,-106,-79,-2,205
45,-12,-10,-147,-134,-126,-61,-10,6,207
0,-50,-107,-106,-46,-43,-39,-35,-21,170
-126,-152,-119,-29,66,105,21,-63,-71,-39
-168,-216,-64,41,89,78,64,-11,-38,-148
-135,-230,-37,98,172,35,46,32,48,-49
-22,-121,74,137,220,51,30,75,151,133
95,166,155,136,112,41,-19,25,123,77
20,184,47,16,-57,18,-5,-26,51,-39
-79,37,-62,-112,-190,-23,10,-13,40,26
-95,-64,-121,-111,-246,-84,-19,5,39,177
-71,-102,-170,-25,-175,-24,-8,23,12,118
-45,-47,-52,62,-58,51,56,45,24,-120
-29,19,96,54,-4,47,52,37,4,-275
53,93,113,-3,-65,9,41,39,17,-105
120,131,83,-21,-219,-134,-8,36,16,181
154,113,84,-16,-361,-283,-55,-9,-36,280
69,28,22,7,-168,-215,-68,-89,-74,158
-47,-102,-51,43,67,18,-12,-94,-59,15
-161,-203,-108,66,-87,-13,-16,-61,-44,-212
-312,-374,-276,43,-36,-96,-143,-160,-153,-430
-251,-325,-256,-29,44,-129,-188,-162,-148,-318
-37,-105,-132,-95,-14,-52,-41,-37,-36,-48
197,147,181,-139,-26,52,79,40,38,163
346,280,244,-96,128,158,188,151,102,110
326,258,40,-71,334,235,189,115,14,-151
189,132,51,-96,205,139,69,22,-62,-306
-7,4,66,-77,20,13,-16,-20,-48,-364
-202,-84,80,18,-69,-63,-104,-117,-110,-486
-363,-130,88,-8,-152,-127,-118,-94,-128,-531
-365,-124,134,-30,-121,-69,-50,-23,-85,-420
-215,-70,105,67,-1,52,55,-13,-46,-100
-55,64,12,224,160,195,193,65,57,273
23,188,-82,186,149,164,212,94,96,307
128,115,-100,-12,5,-24,92,58,65,344
289,113,-1,-47,-135,-202,-51,56,72,510
327,187,102,2,-79,-100,-42,53,54,404
192,195,104,51,93,77,62,83,41,87
24,93,14,21,3,-6,10,44,-10,-156
-158,-162,-143,-45,-116,-54,-87,-104,-125,-305
-277,-381,-103,34,-197,9,-58,-120,-82,-238
-307,-321,135,156,-327,0,13,-33,49,-68
-272,-202,289,159,-372,-126,-56,-93,6,10
-334,-243,46,75,45,-98,-126,-170,-102,0
-232,-63,-169,-67,261,4,-26,-5,7,155
7,67,-109,-214,-124,-44,82,171,206,362
103,121,-5,-241,-174,0,126,206,244,318
33,63,115,-98,249,160,118,145,148,-8
-8,-21,12,-21,381,215,114,109,84,-220
0,41,83,59,188,92,97,56,26,-212
96,451,85,68,-153,-165,32,-40,-42,-187
192,585,61,65,-557,-404,-50,-87,-89,-211
128,233,27,89,-600,-368,-20,30,-1,-212
51,-39,-101,6,-147,-96,-77,-1,-31,-85
-42,-10,-109,4,628,362,-108,-178,-194,104
-73,44,-35,77,785,371,-76,-209,-224,272
-39,36,-23,143,405,170,-40,-115,-123,374
-114,-215,-148,172,259,143,80,46,41,282
-108,-260,-126,99,197,148,104,89,131,231
87,9,14,-42,81,60,2,12,104,304
268,142,42,-50,107,100,76,73,162,429
216,103,-14,-62,111,141,142,87,151,292
165,42,-7,-55,19,105,138,77,115,90
213,42,3,-36,-240,-1,129,94,121,94
249,91,53,-40,-556,-134,70,96,110,151
112,63,70,-12,-543,-236,-48,59,23,-41
-103,-43,-13,106,-15,-191,-102,-68,-89,-353
-155,-155,-143,131,356,-95,-55,-65,-73,-432
-127,-218,-156,9,359,33,15,22,-49,-161
-45,-123,-14,-46,278,192,94,65,-49,44
8,16,116,-67,156,209,29,2,-100,-34
95,130,-19,-128,51,99,-57,-74,-125,-37
100,102,-173,-177,-83,-59,-118,-115,-101,107
19,-6,-107,-204,-196,-93,-107,-114,-73,186
-10,-71,-7,-172,-267,-114,-81,-70,-54,-68
5,-152,5,-138,-280,-112,-61,7,16,-294
16,-142,60,-24,-136,-68,-27,55,72,-230
-31,129,62,38,30,-19,-92,-23,3,-245
-147,237,34,59,-39,-51,-142,-133,-110,-300
-287,-128,-109,101,-251,-185,-141,-180,-152,-246
-379,-667,-313,139,-126,-174,-158,-227,-150,-146
-254,-663,-353,80,-108,-141,-130,-149,-50,46
-203,-300,12,-35,-314,-256,-185,-168,-102,-54
-63,131,295,-26,-132,-99,-85,-56,-81,-182
185,437,151,-55,306,207,106,104,38,-59
222,336,175,-47,426,325,249,192,150,102
156,221,106,49,297,258,241,138,129,73
122,152,-151,97,177,211,203,91,89,93
57,125,-75,73,35,86,105,6,17,109
14,85,-2,21,-159,-125,-40,-55,-46,115
-42,-9,-80,-9,-139,-192,-92,-59,-63,126
-62,-65,-159,11,204,131,96,78,58,113
1,41,-32,25,254,251,232,187,180,21
40,131,15,-39,51,72,107,40,95,-142
55,154,-80,-156,-66,-33,-12,-106,6,-88
95,135,-33,-186,-93,-80,-68,-134,13,190
75,64,147,-18,-65,-134,-118,-68,65,251
8,-83,153,205,28,-109,-102,-31,99,119
14,-158,69,254,179,-1,13,31,144,23
41,-136,-91,106,265,67,59,33,112,30
-130,-100,-135,-22,150,13,-5,-31,-72,-134
-314,-15,-114,-8,-177,-161,-151,-170,-318,-392
-308,-63,10,32,-425,-226,-187,-184,-331,-366
-114,-102,217,-10,-433,-185,-98,-53,-166,-47
41,-90,346,-40,-100,3,10,27,-32,190
237,126,76,-65,162,184,142,157,118,328
305,236,-84,-108,28,114,153,191,174,354
200,154,-34,-56,-79,-33,40,112,143,249
53,35,-24,11,-112,-121,-37,62,101,82
-77,-97,-39,-14,-104,-59,-85,-13,15,-161
-45,-132,-94,-78,-155,-57,-70,3,6,-252
16,-92,-52,-85,-84,5,-51,5,-5,-222
56,26,68,-20,55,168,-5,-55,-61,-208
133,109,-69,-8,-122,81,95,11,3,-72
160,84,-92,-69,-507,-149,123,109,145,342
108,73,-8,-59,-629,-352,50,126,200,848
-25,17,79,96,-110,-161,-32,10,114,933
-131,-210,333,304,531,274,61,-24,73,532
-145,-411,371,317,658,376,170,-20,34,82
-94,-452,286,219,538,402,267,42,56,-91
-185,-536,200,123,422,327,232,101,21,-322
-243,-228,-315,-74,205,81,-20,-33,-146,-534
-114,-41,-410,-45,131,-66,-141,-36,-184,-582
77,272,-188,42,121,-46,-132,-42,-199,-522
202,743,27,-49,-18,-97,-180,-79,-230,-474
203,493,50,-53,-38,-48,-81,4,-73,-312
168,264,-48,-82,-104,-45,-41,32,29,-102
154,165,-84,-40,-100,-19,0,26,89,109
131,93,4,40,-25,16,47,53,149,239
106,62,24,41,0,14,91,98,196,290
129,130,-6,-38,-46,-18,101,131,239,380
136,198,0,-81,-126,-89,62,124,239,347
56,95,-8,-52,-50,78,52,58,159,198
12,40,5,-11,-22,226,100,17,60,154
6,30,-27,-22,-176,51,57,-22,-41,93
15,9,23,-13,-194,-31,-52,-110,-123,0
18,25,42,-2,-147,-123,-146,-65,-107,-48
8,76,91,37,-134,-195,-202,-96,-173,-217
-60,66,137,139,-231,-269,-271,-211,-280,-350
-191,-18,95,165,-558,-443,-315,-260,-327,-403
-393,-280,-118,2,-852,-580,-321,-243,-318,-470
-545,-563,-460,-250,-23,-214,-313,-288,-367,-511
-378,-489,-243,-283,731,265,-59,-108,-164,-216
-146,-259,188,-153,562,364,140,81,25,-1
154,85,-127,-207,358,288,192,178,141,127
249,200,-197,-159,216,152,143,152,152,200
177,83,-101,-54,96,77,124,141,181,270
114,45,-15,-50,-41,-4,109,161,212,250
81,93,177,-25,-86,-91,40,113,170,67
58,126,230,77,210,69,9,9,54,-100
68,102,181,193,311,154,18,-24,-16,-74
78,67,89,220,212,120,42,-4,-41,-47
101,59,31,130,157,102,46,2,1,78
117,62,24,11,124,54,0,-38,8,130
81,28,4,0,89,27,-11,-21,8,33
58,3,-63,8,19,5,57,77,98,128
122,52,5,16,-116,-71,46,110,234,445
98,63,64,58,-122,-123,-22,19,191,469
18,-22,11,63,136,41,-39,-107,22,79
-41,-86,5,55,121,64,-54,-145,-53,-291
-249,-212,-8,61,-79,-82,-129,-237,-210,-541
-492,-356,-173,-95,-314,-265,-218,-324,-382,-660
-527,-411,-181,-294,-404,-343,-265,-323,-361,-414
-259,-275,248,-251,-151,-177,-230,-264,-206,-9
141,47,550,-32,-25,12,0,8,84,208
318,135,290,76,-321,-83,143,218,269,181
192,178,163,251,-388,-215,54,193,233,90
91,442,-79,182,-130,-70,-71,-2,13,2
-81,281,-353,-29,-105,-57,-120,-99,-175,-193
-294,-134,-358,-73,-32,-100,-83,-113,-247,-320
-227,-274,-80,-9,-118,-208,-38,-27,-122,-58
-82,-236,103,33,159,44,-25,21,-16,212
52,-85,19,34,610,338,24,42,70,386
220,100,-82,-74,340,174,4,5,113,437
276,180,-118,-158,93,59,-2,4,117,383
208,223,-58,-90,100,89,54,84,120,253
140,166,21,24,122,102,92,165,157,55
168,96,33,50,93,99,85,177,207,86
165,40,22,28,72,79,92,157,247,272
83,-24,52,73,115,91,134,195,258,157
-30,-72,34,145,190,192,197,194,205,-124
-54,-78,24,168,242,283,194,155,175,-82
-73,41,88,167,151,191,134,70,94,36
-45,213,39,45,-77,37,51,-23,-68,-195
-12,129,1,-43,-237,-61,9,29,-95,-434
-43,-5,-5,19,-120,-92,-55,6,-115,-367
43,-15,-68,16,129,-35,-65,-7,-112,-63
230,100,27,-30,102,-36,-1,13,-47,165
150,79,247,-19,-53,-78,55,53,4,190
-51,-8,277,8,-68,-13,101,105,31,-30
-170,-135,144,30,0,130,112,98,17,-235
-136,-150,-80,60,-64,30,54,23,-59,-333
124,9,-125,120,-205,-93,55,77,24,-142
207,83,-138,23,-180,-90,28,48,41,4
25,4,-174,-53,184,98,-41,-105,-86,-69
-94,-90,-71,44,109,39,-26,-115,-111,-50
-276,-295,-156,25,-309,-296,-98,-194,-180,-21
-431,-429,-349,-145,-806,-644,-246,-294,-230,125
-307,-292,-265,-194,-913,-618,-300,-313,-221,413
-182,-128,-3,-82,-56,22,-168,-289,-207,502
13,79,270,-18,736,509,109,-72,-19,493
162,189,163,63,665,528,308,161,217,330
194,194,4,78,342,347,250,171,239,-138
113,190,-9,33,219,203,105,49,88,-469
38,192,15,-48,66,31,4,100,63,-351
-52,230,117,-148,-414,-185,-105,100,59,-316
-89,181,153,-201,-730,-264,-145,13,30,-288
-84,-38,29,-131,-321,-158,-103,-7,12,-220
-5,-272,-74,37,581,152,55,105,99,-48
118,-143,-10,80,682,319,191,238,236,123
113,200,-42,-60,189,174,108,190,153,33
43,229,5,-54,36,61,39,87,26,-93
16,108,78,46,-11,-19,-5,-3,-64,-57
-41,-119,-29,66,12,-2,-17,-36,-115,-10
-28,-391,-129,24,104,120,57,55,-35,54
76,-325,57,6,46,59,0,65,-3,86
114,-2,295,76,-35,-3,-73,35,-29,38
-34,-99,211,121,-47,-10,-141,-100,-169,-86
-311,-153,-232,127,-91,-168,-340,-417,-453,-250
-413,-191,-471,114,-151,-253,-385,-525,-518,-174
-295,-309,-385,-29,-218,-301,-220,-308,-291,65
-97,-240,-66,-50,-9,-194,-35,13,-1,167
164,48,333,132,310,48,108,199,202,214
370,312,215,77,162,88,199,244,279,286
259,187,-109,-79,-36,197,180,141,172,165
198,227,37,-93,-243,104,122,82,115,56
216,384,103,-82,-140,60,67,41,85,31
224,364,138,-77,61,118,42,58,90,110
160,262,162,-88,-41,39,45,108,61,15
69,110,88,-91,-135,-19,27,65,1,38
15,-103,-58,-73,-85,-32,-3,1,-11,291
-10,-150,-145,-44,1,-3,16,13,55,515
-35,-59,-100,-7,18,27,69,51,130,386
-67,-26,0,29,34,55,112,91,143,-56
-53,33,11,23,38,47,97,81,94,-523
23,71,-57,-7,43,79,115,54,82,-507
-8,42,2,28,67,136,146,36,62,-339
-4,49,66,80,86,168,169,24,13,-307
14,-3,71,83,69,132,148,10,31,-91
2,-150,74,68,43,7,58,36,105,193
-15,-202,109,65,-17,-107,-11,43,101,207
-35,-133,120,76,-179,-203,-22,15,91,142
-31,171,-38,-39,-434,-325,-116,-79,20,84
2,291,-190,-97,-466,-308,-165,-129,-44,63
-20,88,-131,19,32,-55,-103,-91,-53,40
-20,26,-30,0,216,22,-48,-32,-8,77
-13,-24,-51,-107,17,-47,-89,-73,-47,80
-66,-111,-125,-134,-4,-42,-120,-139,-122,100
-67,-150,-135,-102,32,-21,-95,-84,-48,218
-124,-257,-239,-81,42,52,-138,-150,-71,312
-232,-436,-296,-47,-115,-105,-200,-194,-105,337
-393,-629,-249,81,-125,-126,-153,-135,-103,134
-527,-625,-135,147,3,-90,-155,-162,-206,-312
-290,-47,158,76,27,-53,-135,-177,-275,-676
122,386,216,165,160,166,98,55,-73,-578
337,549,238,168,183,223,198,158,63,-330
327,522,147,55,53,78,112,125,34,-190
75,227,38,44,146,57,89,116,-2,-213
-65,86,36,51,225,123,81,76,-7,-175
-85,68,57,33,112,94,40,122,78,-99
-62,46,47,23,75,94,27,159,127,-44
8,71,53,18,33,39,40,154,128,141
122,109,54,-12,-94,-47,9,116,130,321
151,81,11,-93,-207,-59,-60,36,89,343
59,-28,-66,-106,-156,-67,-113,-63,41,300
33,-26,-52,-57,26,-71,-65,-93,59,391
65,15,6,16,98,8,45,-34,88,310
69,44,51,49,-137,-51,85,-6,31,-10
76,60,99,45,-336,-168,102,23,-21,-218
46,25,109,81,-95,-75,69,27,-47,-86
-27,-41,79,88,217,81,15,-44,-124,-60
-26,-16,63,59,193,48,3,-16,-100,-363
-41,19,86,79,292,49,7,14,-83,-663
-25,37,14,31,202,-28,12,-4,-91,-454
-9,-1,-61,-12,-2,-99,-47,-26,-61,-99
-15,-57,-52,-16,-51,-73,-59,-34,4,-28
-64,-109,-83,-4,143,-3,-62,-82,-47,-119
-88,-103,-67,25,254,101,-35,-57,-42,-61
-109,-87,-33,35,71,56,-9,-54,-27,-3
-148,-119,-37,34,-111,-46,-54,-137,-81,-36
-282,-295,-69,74,-296,-153,-150,-223,-183,-130
-415,-486,-22,121,-344,-129,-125,-157,-203,-273
-389,-377,190,22,-240,-118,-71,-103,-175,-401
-185,-3,304,-123,0,-99,-76,-101,-103,-277
84,316,64,-324,165,-73,-89,-82,-6,60
347,518,-69,-391,37,-53,-68,9,142,325
414,282,-150,-310,-74,-5,-5,76,248,498
262,-50,-74,-135,10,56,74,129,250,558
137,-165,-73,7,26,57,98,150,196,439
62,-91,-133,-4,-128,-64,9,72,76,341
21,-13,-188,-56,-177,-132,-43,9,13,288
5,49,-116,-76,-148,-99,-55,1,-27,131
36,250,177,-89,-222,-100,-79,-37,-54,-11
142,396,164,-109,-406,-157,-24,77,52,-73
68,150,-46,52,-102,-31,64,176,105,-207
-36,-197,-74,133,375,163,155,205,130,-157
86,-125,-6,47,301,157,179,227,172,61
144,44,57,14,-112,-2,66,133,94,70
149,54,30,-33,-385,-92,67,133,75,106
129,34,0,-120,-364,-119,67,104,59,180
64,-15,-67,-135,303,157,66,19,3,209
100,21,-12,-87,593,338,129,39,34,296
130,39,20,-73,268,223,191,88,77,234
101,11,-48,-55,76,93,140,88,51,85
82,15,-85,17,-1,-7,48,64,4,91
102,8,-51,64,-224,-173,-39,5,-50,81
161,6,-211,-96,-617,-439,-158,-91,-131,30
29,-144,-324,-235,-477,-315,-116,-113,-140,-33
-99,-241,-205,-167,68,35,-19,-83,-127,-62
-155,-97,41,-11,444,208,-11,-84,-94,-78
-217,88,280,112,382,136,-40,-49,-31,-36
-282,267,328,126,6,-70,-73,-33,32,2
-134,187,200,38,-212,-203,-125,-59,76,141
51,-87,-14,68,-158,-178,-172,-151,49,229
37,-298,-205,135,101,38,-81,-120,34,248
34,-308,-154,148,245,231,113,69,116,209
82,-48,9,130,238,225,178,145,158,55
101,144,80,71,172,167,146,105,92,-124
66,175,27,75,148,137,132,104,38,-271
4,96,98,189,144,120,126,75,4,-368
-10,66,109,268,132,87,97,26,-11,-378
3,65,84,227,63,-16,63,-28,-22,-301
32,35,64,129,-22,-81,118,14,40,-212
2,-87,23,100,-11,0,185,101,89,-189
-87,-288,-95,104,187,313,183,115,88,-101
-93,-353,-13,147,197,277,141,104,66,20
-92,-189,40,93,-6,49,69,21,-15,1
-62,209,-43,-139,-223,-150,-113,-130,-146,38
-63,245,-29,-174,-148,-133,-151,-142,-119,297
-87,80,30,-44,-85,-82,-89,-52,-17,377
-28,6,36,-23,-227,-164,-83,-2,8,96
25,73,-22,-65,-114,-91,-75,-19,-38,-138
111,143,-18,-111,-53,-22,-2,52,38,50
59,73,-5,-143,-78,-41,-43,-16,-1,185
1,-3,-95,-62,228,132,-68,-118,-99,59
23,17,-54,28,290,173,0,-34,-54,-42
35,24,74,66,165,93,-3,42,0,-137
49,37,121,120,116,43,-27,11,-15,-216
42,39,92,120,86,31,-56,-87,-84,-108
54,34,29,50,53,20,-32,-84,-106,99
59,7,-46,-30,34,6,12,-28,-54,192
0,-69,-184,-54,-1,-71,-46,-55,-84,-14
-140,-195,-324,-92,-108,-182,-140,-147,-179,-342
-195,-250,-285,-106,-82,-77,-98,-104,-140,-352
-72,-146,-51,-51,31,161,40,31,-7,-159
73,8,267,3,-2,79,87,78,88,-17
107,117,302,13,33,129,131,93,133,40
162,137,81,25,48,119,131,75,159,136
106,39,-69,15,21,-12,45,-10,87,97
24,18,-36,-24,-175,-171,-9,4,79,82
-66,5,72,-44,-423,-343,-116,16,66,126
-192,-71,112,37,-444,-335,-251,-130,-87,65
-227,-161,74,122,-231,-163,-243,-210,-158,47
-146,-196,1,112,-125,-170,-150,-142,-95,58
-40,-222,-90,113,404,-20,-58,-98,-88,-45
100,-66,-7,124,794,298,151,25,-38,-130
192,144,119,61,454,301,183,35,17,-105
182,174,28,-30,118,178,122,-19,0,-65
126,102,-42,-100,-52,75,73,8,13,-23
27,41,25,-166,-166,-74,-17,87,69,-23
-112,-59,83,-159,-241,-167,-91,50,47,-110
-192,-207,13,-124,-270,-193,-143,-70,-70,-164
-256,-368,-172,-122,-209,-181,-222,-222,-229,-141
-216,-207,-271,-205,-248,-169,-166,-166,-188,96
-27,106,-72,-320,-271,-168,-121,-104,-121,287
148,190,209,-191,-70,-20,2,22,39,372
211,216,27,-73,23,87,117,180,237,312
39,126,-98,-30,-40,-40,-1,104,177,36
-116,33,-70,14,-3,-63,-50,53,66,-132
-202,2,38,97,57,-2,12,32,-21,-249
-255,-18,162,88,-50,-94,-13,-48,-75,-279
-150,-36,144,54,-16,-62,22,-5,12,-273
-50,-2,144,66,167,95,63,6,31,-212
69,82,114,35,182,158,30,20,13,10
137,93,-54,52,189,193,101,173,50,13
104,68,-62,106,189,240,166,162,15,-61
85,60,-4,86,122,189,112,25,-105,-16
60,35,1,18,24,115,63,-47,-191,-33
103,53,5,-55,-96,51,62,-4,-155,-27
92,47,0,-99,-66,41,63,85,-73,-24
52,11,-41,-48,64,76,15,62,-15,14
29,-5,-118,18,70,72,18,27,31,235
-8,8,-182,45,68,44,8,22,69,471
-13,42,-136,22,-7,-66,-71,-3,43,423
-12,31,-40,17,-64,-119,-110,-82,-47,44
-44,-57,13,75,-64,-99,-90,-118,-100,-249
-61,-188,117,227,-59,-79,-39,-36,-35,-221
-35,-227,95,299,-121,-18,105,112,104,-124
42,-100,124,141,-408,-96,125,127,161,-24
7,35,81,-41,-502,-171,-72,-105,3,-38
-23,285,17,-104,-197,-18,-149,-223,-96,-79
66,374,-54,-173,48,51,-69,-112,-19,17
52,170,-98,-161,459,117,28,18,58,44
10,-75,-76,-110,558,185,110,162,174,56
37,-141,-82,-83,212,119,109,143,140,63
56,22,25,-73,0,5,73,62,42,117
89,100,123,-61,-100,-77,16,29,34,191
115,61,121,-38,-159,-103,-22,-7,15,239
44,-109,38,5,12,-13,-22,-66,-16,178
4,-173,-52,100,139,103,37,-27,18,194
13,-124,-80,157,155,70,34,18,38,331
0,-101,-46,181,57,-83,-42,15,51,353
-48,-153,-68,196,-186,-247,-62,-28,6,143
-90,-206,-180,114,-411,-326,-42,-35,-42,-105
-74,-171,-203,-54,-385,-250,-30,-16,-37,-126
-26,-28,-36,-136,52,-65,-80,-77,-70,-126
3,60,-67,-140,574,380,12,-46,-45,-292
24,0,-38,-114,600,588,197,113,56,-421
41,-106,63,-56,296,335,162,93,26,-304
47,-133,34,-91,107,109,34,-33,-95,-184
126,91,-15,-173,-34,-36,-62,-133,-186,-67
137,140,55,-199,-182,-155,-61,-50,-105,48
77,59,151,-151,-214,-197,-65,71,9,83
-41,-95,241,60,0,17,-55,50,29,64
-101,-115,270,288,81,70,26,36,45,34
-4,241,161,323,-50,-27,34,35,12,-69
176,369,17,233,-272,-130,48,77,47,-54
230,217,106,206,-395,-217,82,103,102,40
100,148,73,114,-377,-226,-7,-31,-31,-95
-72,65,-70,-9,-152,-87,-32,-90,-127,-281
-147,-78,-141,-56,-8,41,-38,-102,-163,-358
-56,-96,-64,-38,-83,18,-7,-75,-118,-254
151,5,-2,-27,30,17,56,25,17,-71
153,96,-40,-23,233,34,87,78,79,-52
-3,62,-34,4,444,69,-13,-59,-40,-193
-182,-61,-12,92,450,17,-185,-233,-235,-360
-297,-251,-49,243,224,-135,-245,-283,-293,-331
-396,-443,-189,213,149,-71,-108,-157,-180,-63
-437,-446,-243,69,205,74,44,-14,-80,55
-379,-203,-76,-83,80,29,-12,-70,-132,-63
-182,112,31,-250,-181,-42,0,10,-19,-76
28,266,94,-317,-263,-37,90,145,126,-54
158,111,378,-194,-201,21,162,199,209,111
353,73,418,-96,-74,105,174,166,242,496
387,87,233,-49,119,169,104,35,134,577
166,-32,111,5,0,92,43,-70,22,245
41,162,-188,-25,-274,-49,21,-116,-47,2
-39,256,-225,-75,-225,-25,38,-129,-90,51
-177,90,-78,-61,17,5,-55,-155,-138,-5
-314,-139,-110,-19,160,-57,-256,-284,-269,-141
-377,-353,-287,-77,-67,-288,-431,-334,-268,-181
-341,-379,-228,-74,-196,-291,-367,-225,-139,-204
-198,-219,50,-51,-49,-63,-117,-18,25,-76
20,48,335,-63,34,49,26,109,168,212
228,178,220,11,118,142,167,263,353,408
227,135,14,109,156,212,235,330,434,266
132,205,-39,76,28,110,124,218,290,-44
140,275,-59,-7,-123,-10,29,108,153,-167
65,144,26,59,52,53,32,50,103,-174
45,132,76,109,270,141,18,-44,32,-66
134,182,-23,50,133,107,48,26,10,92
150,120,-19,34,47,92,152,465,103,97
129,71,52,51,31,62,120,663,79,94
45,-26,-4,62,-14,-5,-11,227,-104,102
-25,-121,-156,21,-155,-76,-57,-1,-160,209
-18,-131,-229,-38,-254,-103,-25,231,-62,316
3,-36,-114,-77,-66,-29,8,292,7,305
68,138,114,-54,145,47,-24,72,-8,274
137,175,239,-1,72,72,3,59,30,241
86,-2,84,75,-93,120,78,99,15,64
19,-100,-109,70,-334,79,125,98,15,30
-27,-116,-121,64,-401,-53,104,123,53,174
-82,-140,-82,83,-31,-185,12,217,117,86
-55,-106,21,49,204,-207,-69,236,138,-91
45,43,86,-50,195,17,-96,113,51,-191
105,158,14,-87,222,153,-63,33,-28,-146
55,60,-24,-66,275,174,-17,17,-86,-195
76,32,29,-47,224,183,-5,22,-87,-258
105,42,33,-72,54,80,-5,-3,-57,-217
103,38,20,-77,2,21,-40,-18,-31,18
107,36,29,-27,-24,-6,-17,-32,14,336
64,22,-43,15,-46,-34,-6,-29,55,425
3,-8,-147,50,-45,-53,-50,-12,63,205
-27,-7,-76,107,4,-13,-31,10,79,-57
10,30,167,146,34,28,9,17,93,-77
-4,-4,254,141,29,54,32,12,49,-27
-29,-15,215,99,-19,91,96,46,11,-65
-25,-6,81,7,-86,59,101,1,-70,-167
-63,61,-130,-116,-53,-10,-4,-159,-235,-290
18,131,-142,-118,18,3,-25,-155,-173,-188
130,33,-72,-102,-81,-49,-36,-59,3,-17
53,-39,-55,-105,-118,-126,-101,-77,30,3
-19,-70,-144,-96,-127,-122,-105,-73,48,24
-33,-57,-111,-37,-311,-276,-93,-63,44,-2
-205,-273,2,-13,-399,-314,-86,-108,-63,-198
-379,-556,13,60,-220,-188,1,-67,-66,-301
-316,-525,148,157,268,249,144,65,16,-358
-13,99,173,104,330,420,161,88,19,-355
120,569,-79,-22,94,89,6,-90,-150,-286
59,428,-66,23,19,-89,-136,-237,-257,-23
-156,-104,-33,148,19,-141,-257,-363,-334,139
-174,-356,-138,116,-27,-64,-139,-261,-199,190
-16,-235,-179,-38,-134,-29,-3,-121,-36,329
-47,-81,-9,-42,-64,-26,-23,-177,-86,146
-67,84,-53,-80,-35,-21,11,-143,-84,-85
-37,86,-210,-87,114,96,124,-38,12,-130
-20,0,-28,-12,199,85,142,-10,32,-105
65,53,152,-32,8,-25,128,64,160,89
74,30,44,-36,-21,126,100,43,177,171
-25,-95,-51,36,-146,76,4,-61,65,87
-194,-252,-87,54,-360,-204,-87,-78,-37,-91
-178,-286,-109,51,-65,-152,-63,-63,-58,-129
-10,13,74,-4,280,65,5,54,74,-67
111,351,331,-34,298,164,8,79,124,-123
108,367,154,-23,238,165,30,41,84,50
-16,262,73,9,197,77,-6,-23,-2,343
-109,140,119,70,143,-12,-38,-75,-80,402
-23,70,114,58,23,-71,-25,-49,-69,183
81,-62,108,66,-102,-75,30,44,-4,-83
83,-108,-118,-41,-218,-115,-6,61,33,-166
18,-131,-251,-128,-140,-53,-77,-25,-37,-137
34,-65,-114,-71,101,55,-68,-87,-107,-106
53,36,37,21,-36,7,-41,-58,-59,-7
-83,-30,-57,81,-169,-52,-79,-77,-70,-11
-138,-146,-197,-3,-38,0,-75,-89,-78,-67
-108,-225,-250,-184,-39,23,7,-52,-16,-80
-140,-269,-209,-237,-111,61,113,-5,2,-94
-73,-169,-66,-211,-84,62,158,32,35,18
55,-35,28,-153,129,92,89,-18,43,136
9,-23,224,42,145,-1,-14,-90,4,20
-31,-4,3,49,-212,-228,-87,-64,22,-91
-27,-34,-350,-88,-693,-517,-136,-33,71,-16
-115,-16,-43,-61,-1021,-627,-128,-18,93,-2
-46,175,126,-94,-724,-306,-40,26,159,51
17,227,194,-118,107,137,15,-18,117,222
-40,-14,293,3,728,291,46,-45,41,368
90,-203,-111,40,894,408,180,44,122,418
127,-258,-260,67,667,464,271,115,159,277
121,119,-66,27,160,202,171,103,129,190
124,398,83,-99,-336,-99,-2,37,74,144
34,192,74,-83,-323,-19,-28,39,8,-203
-1,98,58,41,-168,27,4,56,-65,-659
60,101,148,190,244,59,-14,21,-76,-650
167,162,202,334,493,115,-18,-5,-21,-210
219,222,169,314,229,71,-33,-54,-17,183
220,225,144,105,65,20,-31,-48,-42,273
128,120,151,-43,107,90,-33,-81,-131,125
40,20,95,-35,88,76,-51,-113,-127,35
60,-34,71,41,-61,-71,-74,-30,-13,52
95,11,110,94,-229,-204,-18,103,111,35
4,-31,8,70,-34,-63,64,84,79,-117
-69,-191,39,56,178,164,156,42,29,-187
-89,-330,254,84,226,275,162,-12,-36,-147
-114,-458,170,18,232,386,77,-135,-147,-157
-21,-140,-341,-90,129,206,70,-71,-109,-74
62,319,-348,-128,-85,-87,-18,-28,-96,-31
105,365,-255,-43,-337,-284,-104,-49,-120,43
90,129,-165,60,-291,-189,-59,99,43,244
55,25,7,89,105,45,9,129,136,235
46,13,226,101,274,134,73,134,176,111
55,6,280,106,170,104,96,118,183,100
33,0,199,85,153,108,72,66,140,139
70,126,26,12,13,-12,-37,-53,50,106
64,161,-176,-59,-124,-103,-89,-116,2,86
65,74,-140,-70,-117,-60,-9,-46,84,103
37,40,-136,-83,-52,-47,-42,-95,2,-70
25,17,-116,-89,-134,-84,-82,-87,-29,-138
21,10,-56,-85,-268,-126,-58,26,64,58
-18,-7,-22,-56,-39,-74,-38,25,53,294
12,3,12,-43,242,81,44,7,55,413
52,42,47,-31,201,114,130,83,111,146
-3,63,76,13,82,90,130,124,90,-285
-52,67,96,34,19,19,44,77,33,-314
-91,63,67,48,4,-17,0,20,12,-221
-144,60,-7,70,17,-22,20,-22,-10,-192
-206,-49,147,126,-50,-116,-62,-110,-65,-136
-308,-260,160,167,-308,-362,-265,-279,-179,-109
-309,-449,-96,80,-533,-497,-280,-287,-167,-75
-200,-437,-148,-14,-642,-487,-143,-121,-27,16
-180,-353,-63,-26,-277,-268,-106,-84,-40,-60
-138,-147,-167,-18,495,375,67,-36,-57,-186
-25,66,-92,-20,440,405,191,88,15,-227
-76,0,99,13,302,228,116,88,-12,-278
-25,83,154,18,280,143,37,38,-40,-200
84,46,-107,-52,149,139,72,92,-6,-73
144,92,-200,-109,104,122,72,90,-47,-34
152,252,-23,-105,26,44,36,36,-73,20
131,201,-10,-103,-84,-33,36,98,14,149
85,85,-50,-125,-171,-98,11,126,38,178
75,74,-43,-115,-152,-83,-34,44,19,186
52,111,14,-36,-65,-75,-44,-35,5,196
-5,88,57,97,277,77,-55,-125,-71,54
18,41,73,153,355,138,16,-52,-29,125
39,-42,65,127,220,110,83,59,45,311
53,6,111,71,95,42,46,47,25,281
9,70,166,36,19,12,4,8,-35,41
-18,149,171,-46,-93,-14,8,6,-52,-78
105,154,20,-144,-193,-92,-29,13,-11,171
177,-107,-152,-102,-206,-165,-64,-15,14,470
69,-275,-413,-134,-404,-417,-320,-286,-192,261
-209,-515,-684,-207,-560,-535,-562,-556,-452,-212
-306,-580,-665,-238,-448,-355,-424,-433,-348,-374
-165,-232,99,-146,-200,-102,-162,-159,-93,-275
32,265,873,84,95,151,75,48,75,-321
193,514,506,154,172,305,331,307,269,-394
59,263,31,71,-151,204,325,329,269,-302
-2,116,-21,-28,-721,-74,196,273,209,-86
-61,33,-21,-89,-853,-265,33,110,53,-73
-110,-87,-86,-20,102,35,-63,-54,-114,-191
136,-35,-79,25,925,330,10,-51,-96,-90
290,-8,-74,10,528,227,34,-10,-29,186
185,-148,-171,18,106,53,0,9,14,434
117,-157,-146,-14,26,-38,16,78,106,402
-9,-80,49,-30,99,11,15,80,97,-54
-168,33,216,53,258,169,49,66,87,-279
-146,204,175,146,123,117,46,44,76,-119
-65,194,-4,182,3,76,67,15,28,-15
-25,83,-66,82,-44,125,132,72,56,19
-62,27,11,55,78,142,159,110,77,-38
-79,5,49,85,350,165,164,95,49,-19
-39,15,42,64,352,134,155,190,126,75
-25,35,27,37,135,7,47,152,99,51
-71,-61,-57,-32,-2,-118,-104,-24,-8,44
-129,-291,-256,-78,18,-20,-124,-79,-48,-13
-47,-319,-172,-20,17,-8,-84,46,67,4
44,-130,140,127,-8,-78,-56,59,106,26
96,248,517,169,-216,-217,-70,-25,59,140
170,512,278,-62,-439,-411,-128,-129,-39,235
95,-18,-89,-165,118,37,-62,-146,-117,253
4,-331,-72,-158,472,335,32,-57,-45,355
-59,-334,35,-35,277,191,54,-4,55,347
64,168,-15,7,-90,-6,-19,-53,7,114
188,558,-137,-69,-402,-199,-82,-82,-32,-36
73,253,-6,1,-372,-149,25,65,75,2
-43,77,33,85,80,27,44,63,19,-126
-73,95,25,125,234,105,3,-6,-83,-261
14,147,122,95,-5,-23,-29,-51,-126,-285
59,77,120,-23,-134,-75,-8,-4,-61,-225
71,7,149,18,-54,-3,67,82,48,-128
78,19,268,136,5,20,103,89,62,-73
0,-20,327,222,-126,-92,-8,-42,-21,-141
-157,-193,138,204,-375,-273,-147,-180,-110,-194
-250,-463,-227,-21,-414,-296,-145,-194,-120,-36
-178,-547,-371,-166,-1,-139,-143,-268,-170,168
-102,-382,46,-112,410,86,-15,-198,-152,161
-61,-59,191,-128,410,143,33,-135,-118,118
-31,183,-324,-220,140,38,0,-103,-54,115
83,379,-483,-216,5,-18,-38,-58,10,92
163,281,-238,-141,31,36,-3,-48,5,80
58,113,35,-85,94,185,151,57,0,59
-18,33,55,-40,94,239,248,145,5,14
69,71,-40,-21,-24,87,157,158,32,23
116,86,39,-12,-75,-67,40,150,84,-28
66,73,85,20,-94,-132,-42,166,111,-58
58,163,69,54,-190,-146,-15,176,89,5
99,219,31,59,-333,-156,58,220,117,-79
61,101,37,19,-259,-178,12,143,84,-60
-24,-155,-52,19,70,12,-54,-4,-27,341
74,-109,-84,34,198,90,-96,-53,-36,695
148,-10,-34,0,48,-50,-142,-79,-19,545
-28,-123,16,88,88,-75,-169,-167,-121,-117
-107,-235,36,176,151,8,-49,-105,-127,-437
-24,-263,10,147,120,61,60,-3,-51,-248
-100,-217,104,215,85,100,93,63,-11,-276
-323,-282,-3,188,-95,-25,-10,73,-4,-502
-450,-284,-247,7,-268,-183,-207,-105,-134,-773
-302,-217,-280,-172,-167,-189,-205,-153,-123,-636
-46,-2,115,-140,165,-12,-56,-7,93,-160
254,326,260,-128,95,45,26,105,240,259
406,350,-102,-116,31,143,51,129,234,414
331,173,-106,-51,-12,83,28,91,171,304
232,73,-55,1,107,51,55,90,122,204
149,46,-34,-23,324,149,75,53,65,134
84,51,-5,-109,202,141,50,-14,13,47
-19,86,17,-138,-22,73,44,-56,-64,-122
-99,159,72,-116,-53,57,78,-56,-90,-154
-118,185,121,-49,-40,53,107,-17,-29,11
-162,61,84,21,-110,-82,15,-48,-52,-22
-246,-244,-48,71,-187,-216,-81,-125,-160,-227
-186,-428,-25,134,-126,-147,16,-6,-82,-153
-118,-361,193,112,-109,-47,145,117,22,-47
-75,-15,467,10,-405,-79,119,89,-32,-99
73,485,327,-129,-716,-249,0,1,-97,-126
61,435,28,-78,-240,-88,-95,-119,-184,-135
-37,66,-135,42,336,-32,-89,-77,-91,8
-49,-250,-237,46,252,-91,-38,26,40,177
-83,-284,-307,-46,272,104,-75,-38,-4,144
-29,-171,-94,1,482,341,33,45,85,226
67,-11,73,36,255,196,100,126,152,354
126,98,-81,-1,122,102,95,133,131,317
159,158,-16,-2,49,37,45,122,89,184
207,232,13,-62,-19,12,-33,25,-6,66
163,55,-15,-53,29,30,-38,15,-20,-30
150,-75,-21,-24,49,59,13,59,32,-67
178,39,13,-57,-5,23,-9,2,41,-15
131,160,35,-100,-59,-41,-92,-103,-26,-6
43,70,-98,-108,-47,-9,-57,-53,2,-52
-13,13,-137,-13,-27,60,53,53,31,-70
22,81,20,109,-233,-2,47,22,13,120
62,168,145,18,-600,-187,-79,-136,-85,276
30,100,141,-74,-605,-272,-164,-260,-202,107
-164,-217,-106,-31,142,-39,-74,-208,-240,-304
-209,-402,-249,-4,460,136,97,-10,-78,-333
-139,-336,-269,-57,24,-81,-26,11,6,-197
-100,-198,-226,-19,45,-91,-99,-19,-1,-157
-50,51,90,122,300,43,-72,-62,-28,-156
-22,113,302,226,284,100,-11,-21,-13,-81
13,41,99,248,217,95,80,45,93,25
-44,-74,-73,220,40,-33,23,-63,24,-25
-88,-141,-110,105,-225,-159,-63,-186,-96,-154
-52,-116,-125,-33,-384,-230,-84,-194,-88,-122
-32,44,110,8,-13,-116,-106,-220,-103,-112
125,344,401,3,93,-44,-59,-74,35,-47
280,426,338,-127,-355,-143,44,145,247,163
143,236,251,-184,-426,-185,45,156,261,243
