7,25,36,17,3,9,57,-11,41,4
1,13,9,7,2,15,56,-10,36,5
-7,8,-6,0,0,7,38,-3,26,16
-9,11,-15,-1,0,9,13,4,30,14
-19,14,-28,-3,0,4,-4,11,24,1
-26,-11,-40,-22,-10,-1,3,20,3,-5
-10,-34,-66,-29,-14,-6,23,25,-7,-23
-5,-33,-18,-33,-15,-18,8,32,-3,-16
3,-17,-37,-16,-12,-27,-15,25,-7,-21
11,-14,-132,-6,-14,-29,-26,13,-26,-24
24,-14,-85,-8,-16,-40,-21,0,-30,-25
31,-18,0,-22,-19,-36,-39,-3,-24,-21
29,-27,8,-26,-9,-25,-36,3,-15,1
31,-23,-2,-18,0,-27,-27,4,-18,8
52,-15,12,-3,8,-10,-14,2,-13,17
50,-6,14,3,19,9,-21,-10,-11,19
37,-12,23,-2,29,-1,-17,-9,-9,9
24,-10,13,-3,20,-17,-24,-9,-3,10
16,-10,-1,-13,12,-11,-19,-19,-12,-7
12,-7,1,-15,6,-5,-23,-23,-43,-28
-2,-10,1,-11,3,-3,-18,-21,-64,-30
-6,-13,-55,-15,-3,8,-12,-13,-43,-44
6,-18,-93,-14,-14,-1,0,-12,-32,-47
-11,-19,-14,-25,-21,-5,17,-12,-37,-43
-26,-3,8,-16,-16,-14,4,11,-2,-40
-10,13,7,-11,0,-22,-3,12,11,-28
-5,3,-2,-14,0,-11,-20,2,1,-30
7,-8,-44,-23,-13,1,-25,0,0,-21
9,-6,-39,-4,-1,16,-5,-3,0,-17
14,-1,20,10,7,11,-10,-8,0,-10
19,-4,33,13,-1,1,-20,-14,2,-1
24,25,50,0,-7,-11,-32,-15,5,-7
38,62,82,-4,-6,-13,-25,-15,1,-8
32,83,96,-12,-11,-17,-20,-21,0,-3
20,98,77,-19,-20,-12,-4,-9,7,-15
18,83,53,-25,-27,-7,6,11,24,-6
12,46,31,-41,-25,0,38,24,31,6
-17,-10,-10,-44,-25,-14,60,10,15,11
-52,-89,-54,-36,-17,-15,58,0,2,5
-53,-111,-63,-13,-3,14,74,22,11,17
-56,-69,-35,-1,0,5,66,30,28,0
-59,-41,-27,15,7,10,32,10,19,-17
-51,-26,-15,45,15,14,25,-5,15,-20
-35,-19,-7,55,18,8,28,11,18,-20
-14,-12,-4,40,14,19,35,15,36,-10
-6,-2,-7,30,16,25,23,11,35,6
9,8,0,21,20,26,28,9,20,33
29,10,8,24,32,25,45,12,31,55
40,22,12,24,20,20,36,-1,43,58
48,38,12,27,8,0,4,-20,32,59
31,36,30,24,1,-1,-11,-36,16,36
26,14,24,7,-4,6,-12,-34,27,30
27,7,-4,-5,-11,18,-6,-15,44,22
20,6,-68,-14,-19,23,1,-6,41,18
8,8,-11,-24,-19,16,1,1,36,15
-7,-10,-12,-32,-12,19,3,18,19,1
-20,-23,-15,-21,-12,25,20,24,14,-3
-18,-36,-26,-8,-10,4,20,13,14,-22
-34,-43,-13,-4,0,9,-10,7,5,-36
-33,-36,-15,4,2,18,3,6,9,-22
-17,-27,-14,-3,-3,20,8,19,12,-5
0,-20,5,3,-8,17,-10,8,11,4
15,-17,1,11,-2,9,-10,0,10,20
15,-14,2,12,3,4,-27,-12,-2,33
28,0,26,15,7,1,-31,-17,-24,27
28,-2,1,26,8,3,-16,-23,-24,18
26,-20,-1,24,4,5,-16,-30,-38,19
17,-11,7,17,-8,8,-16,-36,-53,16
8,0,5,2,-4,6,-47,-27,-52,16
-5,-5,-8,-8,-11,-7,-57,-16,-43,20
-19,-8,-2,-17,-14,-24,-57,-19,-45,4
-19,-13,4,-7,-20,-37,-63,-26,-40,-15
-8,-19,-1,-10,-19,-40,-45,-6,-33,-28
-12,-9,9,-16,-23,-36,-6,7,-21,-24
-17,-12,5,-18,-25,-14,3,6,-4,-13
-27,-18,-12,-19,-34,-1,7,18,3,-7
-23,-9,10,-18,-32,7,-4,30,21,4
-18,-3,20,1,-21,12,-12,22,25,19
-13,9,21,0,-21,10,-15,14,11,13
15,32,23,0,-11,24,-8,6,21,12
30,34,28,-1,-10,22,-1,-3,25,19
21,34,25,-6,-9,13,29,-9,22,6
22,38,-7,-11,-17,17,30,-5,11,3
21,24,36,-8,-21,22,27,0,5,9
23,14,44,-16,-13,14,33,0,22,17
0,31,43,-24,-18,-4,9,4,23,20
-12,27,42,-17,-14,-4,-16,9,34,15
-10,27,16,2,-8,4,-16,11,26,15
-18,8,-21,0,-5,-1,-17,3,22,2
-35,-11,-9,-15,-6,-4,-13,16,40,-13
-46,-26,-14,-7,-10,-3,-15,24,50,-20
-32,-28,-28,4,-2,0,0,30,25,-19
-25,-24,-91,8,-1,5,-10,29,34,-16
-22,-16,-36,0,-12,5,-5,14,20,-6
-27,3,11,6,-14,17,1,13,29,-1
-19,15,7,3,-12,20,-4,8,16,-15
-11,23,16,1,-7,23,0,0,28,-23
-10,19,35,7,12,42,6,-4,13,-14
7,29,44,14,34,47,14,4,15,3
16,37,52,23,47,58,22,3,15,6
7,36,50,18,28,63,22,-1,18,-2
16,37,42,16,5,41,10,-1,22,1
8,26,40,5,-3,7,-5,-3,8,-1
0,9,26,-7,-9,-9,3,-6,0,0
3,13,20,-13,-20,-8,16,3,6,-11
-3,8,13,-12,-17,-6,-2,3,3,-25
-16,-7,1,-7,-15,-5,-7,5,-2,-32
-16,-6,0,-13,-26,-3,-2,6,11,-23
-15,-21,-19,-13,-25,-10,-7,7,-15,-24
-10,-30,-30,-11,-21,-7,-8,2,-24,-28
9,-23,-16,-12,-15,3,-13,1,-24,-8
15,-30,-10,-25,-7,0,-18,7,-25,-3
8,-25,7,-29,1,-7,-23,7,-27,-5
10,-9,18,-18,17,-8,-32,-7,-31,1
4,-7,16,-3,6,-15,-35,-22,-30,19
8,-5,14,-6,0,-18,-19,-33,-25,28
6,-5,-17,-4,-3,-19,-26,-41,-33,17
10,-5,-120,-7,-11,-22,-32,-35,-36,6
7,-4,-99,-9,-16,-11,-34,-29,-37,3
-1,-10,3,-18,-20,-23,-6,-35,-31,-11
-8,-3,25,-16,-21,-14,-1,-37,-23,-14
-21,-11,16,-25,-19,-3,12,-23,-4,-15
-14,-16,0,-38,-16,-5,20,-17,21,-10
-21,-13,-75,-37,-15,-1,4,5,21,-12
-17,-15,-89,-14,-6,0,-15,13,17,0
-5,-17,6,-15,4,10,-22,22,40,14
-6,-13,13,0,9,18,-5,23,39,17
2,-12,-14,12,5,12,25,13,40,26
-4,-3,-51,2,0,13,28,1,8,35
7,18,-64,-13,4,16,19,-1,0,29
25,34,-10,-1,8,1,9,-7,-14,12
24,33,72,6,11,-13,-4,-30,-26,-17
16,32,78,4,9,-5,-2,-37,-28,-21
10,27,53,0,10,9,3,-32,-20,-11
2,13,47,2,5,7,3,-23,-8,-5
0,11,40,-3,-1,-5,2,-26,-2,-4
-7,16,19,-7,2,-8,7,-21,18,-1
-11,16,29,-18,-4,-18,0,-12,22,1
-10,5,35,-26,-8,-17,3,7,23,2
-14,-13,28,-35,-20,-8,4,19,10,-8
-11,-11,13,-38,-33,-1,1,23,8,-3
1,-9,13,-42,-30,7,1,29,13,5
13,0,20,-33,-27,11,-7,21,11,9
10,-16,25,-13,-5,11,-3,12,4,7
6,-22,23,2,24,9,2,10,-10,9
11,-9,28,3,15,-5,-17,8,-28,17
8,31,55,9,8,-11,-34,-11,-43,5
8,69,76,31,13,-13,-59,-37,-71,-5
11,65,76,51,19,-11,-64,-58,-93,-7
24,63,59,45,15,-12,-66,-63,-100,2
8,44,41,10,-7,-21,-71,-60,-106,1
-8,-2,6,-22,-27,-28,-67,-63,-98,-16
-15,-79,-31,-24,-16,-14,-50,-54,-79,-26
-27,-135,-49,-10,23,17,-19,-20,-53,-22
-29,-97,-45,-12,30,18,-2,8,-36,-1
-18,-68,-79,-16,1,4,4,7,-30,1
-9,-57,-88,-21,-20,0,-3,10,-26,6
-1,-54,-108,-18,-20,2,1,17,-13,6
-1,-30,-102,-11,-16,2,8,22,-2,-5
2,-12,-4,5,-12,6,25,17,0,-5
14,-3,7,11,-9,11,42,10,4,4
27,19,23,4,-7,-1,14,8,4,22
32,34,31,6,-26,-22,0,10,0,29
33,39,51,12,-67,-59,4,1,2,25
35,36,46,15,-90,-86,-13,6,-1,32
38,33,47,16,-113,-95,-6,-1,2,41
43,48,44,4,-146,-129,0,4,13,47
45,47,54,-14,-166,-126,6,21,22,44
5,13,28,-19,-79,-44,0,6,2,5
-21,-19,1,-5,86,103,5,-10,-6,-27
-36,-28,-1,7,167,131,0,-12,-1,-27
-25,-29,-10,2,120,67,-4,10,7,-21
-21,-34,-13,-7,68,37,-4,20,15,-17
-27,-15,-10,-8,27,23,-2,26,23,-24
-33,14,-7,-12,10,11,12,34,40,-16
-11,9,-2,-6,14,10,37,38,41,-17
9,13,-9,-6,19,7,37,18,18,-11
22,14,9,-9,23,4,13,7,5,0
10,0,15,-7,26,12,-16,12,-10,-2
2,3,4,-1,41,12,-12,-1,-20,-9
10,8,0,13,38,8,-19,-12,-19,1
23,15,14,21,32,3,-10,-12,-28,19
21,9,16,16,22,-12,-9,-3,-33,22
19,-4,19,14,3,-23,-17,1,-38,13
-1,-22,147,22,-14,-31,-17,-13,-60,-5
-32,-23,319,46,-35,-57,-35,-29,-73,-24
-55,-19,260,43,-55,-90,-53,-49,-101,-58
-89,-28,138,26,-41,-86,-77,-77,-123,-81
-120,-55,-10,-12,-31,-83,-84,-77,-105,-87
-133,-96,-169,-77,-16,-26,-57,-51,-82,-85
-105,-99,-221,-88,14,26,20,9,-41,-59
-62,-38,-92,-41,32,44,44,39,-27,-23
-4,26,-57,-30,-3,-3,-15,8,-35,-18
91,4,-159,-67,-36,-53,-37,-2,-9,7
153,102,-120,-55,-13,0,-2,14,33,40
132,148,-23,-8,4,24,42,33,42,48
95,142,29,14,-40,-50,57,35,50,63
80,129,51,-2,-54,-52,39,33,56,66
46,98,39,1,42,30,8,-1,14,11
16,61,33,26,111,87,0,-26,-7,-9
21,20,41,22,24,21,-4,-24,2,16
40,-32,34,25,-172,-97,2,-7,26,55
49,1,47,64,-389,-263,-5,11,30,71
58,75,32,81,-486,-334,-18,27,26,74
63,83,12,36,-572,-400,-5,56,58,93
53,37,119,-25,-719,-580,-51,61,92,88
62,-25,204,-89,-873,-787,-132,68,123,82
-95,-214,41,-88,-353,-330,-161,-49,-9,-92
-299,-377,-188,-4,802,702,-58,-186,-191,-317
-237,-279,-239,48,1111,836,68,-126,-133,-254
-113,-104,-189,-10,674,451,62,-59,-55,-147
-34,0,-132,-38,320,276,39,-32,-18,-85
-4,22,-89,-20,183,238,65,2,15,-28
27,20,-119,-4,184,229,82,21,55,18
52,42,-135,27,187,215,117,19,91,56
72,65,-57,44,164,187,129,12,84,73
90,89,10,42,125,154,113,5,116,107
86,74,32,56,94,119,68,-1,118,100
61,58,61,78,83,89,15,-38,56,77
29,60,46,66,45,85,-14,-51,0,42
-10,93,2,26,-6,56,-8,-28,-28,-4
-15,124,-74,-13,-9,37,-28,-15,-35,-23
-33,95,-8,-31,23,62,-61,-38,-62,-48
-66,90,60,-37,1,11,-89,-72,-96,-87
2,121,29,-52,-105,-108,-107,-75,-114,-101
50,-26,-96,-40,-190,-167,-64,-33,-74,-79
67,-70,-62,6,-222,-151,16,51,-3,8
130,32,32,-3,-432,-204,43,102,74,102
107,98,53,-42,-564,-296,-51,49,48,103
-33,8,5,-39,-348,-217,-162,-93,-86,-14
-138,-124,-124,-25,142,107,-138,-185,-169,-111
-119,-180,-211,-12,598,436,32,-77,-76,-53
8,-118,-92,3,490,415,166,91,75,102
61,-67,59,48,162,228,142,108,132,157
40,-7,103,87,48,57,73,54,83,110
66,88,149,86,-23,-68,37,54,76,101
85,184,96,51,-213,-204,-27,28,42,61
50,175,38,12,-401,-331,-110,-34,-36,-25
28,99,20,-6,-378,-392,-169,-73,-68,-49
24,72,-99,-37,-275,-348,-149,-38,-21,16
27,-29,-82,-35,22,-16,-54,27,54,79
64,-5,80,12,138,96,31,84,143,153
83,113,100,19,96,85,-4,32,128,161
91,235,40,-27,53,249,-56,-75,38,94
33,189,-9,-55,-67,295,-29,-125,-43,-28
-67,55,-8,-14,42,218,17,-142,-125,-145
-96,-5,1,56,363,265,107,-67,-130,-204
-57,-50,-39,20,441,311,128,16,-81,-171
-20,-212,-46,-46,317,259,103,68,10,-85
-31,-241,121,-8,274,161,52,81,44,-49
-66,-184,116,52,389,206,41,52,37,-70
-67,-119,42,69,260,249,92,78,91,-26
-82,-130,-95,41,75,223,123,119,142,16
-58,-127,-264,0,92,217,104,96,168,67
3,-46,-146,5,89,166,66,65,159,88
13,26,-14,14,38,151,93,84,165,95
13,38,-29,-8,-83,107,102,94,150,125
9,17,-95,-44,-374,-41,62,71,107,156
0,9,-121,-48,-688,-280,-23,4,48,123
-15,-20,-67,26,-680,-484,-137,-86,-26,65
22,24,99,82,-526,-651,-143,-38,26,120
152,130,267,69,-468,-720,-32,142,258,297
215,162,326,69,-392,-605,8,232,366,317
-29,-51,174,113,29,-71,-51,0,116,-41
-289,-281,-57,124,154,351,-22,-190,-111,-335
-279,-251,-42,34,-53,47,-25,-164,-73,-310
-233,-55,-13,-80,-214,-225,-52,-123,-62,-315
-261,-1,13,-111,203,61,-79,-175,-190,-463
-224,-10,46,-64,582,368,-89,-136,-141,-422
-24,275,50,-122,185,131,-155,-18,64,-183
92,214,63,-222,-316,10,-187,37,147,-74
44,84,624,-151,-892,-374,-195,41,87,-127
-2,135,1068,-79,-1261,-785,-236,4,-31,-232
-149,8,1059,-3,-1341,-1049,-432,-208,-168,-293
-466,-222,736,18,-975,-1095,-651,-418,-245,-360
-688,-354,197,-84,-42,-601,-681,-538,-340,-447
-713,-364,-146,-148,1066,328,-473,-467,-339,-443
-604,-325,-173,-171,1289,729,-213,-159,-139,-298
-382,-169,-394,-205,560,534,-135,55,112,-57
-31,-183,-1036,-189,236,447,-58,215,357,236
242,-350,-1161,-44,233,407,160,466,569,431
292,-270,-678,75,-114,90,141,412,399,281
299,-245,-313,187,-86,-138,100,352,251,225
367,-87,-2,303,-81,-184,236,504,348,334
399,61,279,368,-641,-384,269,525,254,347
254,137,320,370,-1241,-817,77,231,-149,153
-28,260,28,247,-1007,-811,-94,-45,-640,-222
-56,571,-226,-62,-578,-622,-141,-144,-863,-309
106,741,-156,-332,-649,-862,-157,-77,-600,-76
66,429,-155,-373,179,-792,-283,-137,-463,-74
-308,101,-367,-342,1618,583,-286,-334,-639,-434
-292,29,-387,-311,1887,1366,-125,-204,-443,-378
-78,-195,-278,-136,1541,1145,19,35,-107,-90
62,-404,-161,72,1183,960,149,234,183,174
195,-299,125,93,460,771,221,406,418,314
259,-242,318,37,-141,365,107,393,371,203
210,-284,176,50,-201,218,95,412,179,-56
136,-130,-84,0,-49,266,-24,155,-167,-307
40,26,-210,-41,297,588,-158,-147,-460,-382
-18,235,437,71,362,659,-250,-346,-620,-247
-80,301,1196,213,40,201,-297,-392,-648,-81
-437,-81,869,202,-235,-135,-263,-361,-641,-209
-732,-383,262,84,-309,-335,-224,-248,-595,-404
-592,-444,-7,-39,-591,-729,-246,-3,-350,-284
-359,-489,0,-47,-578,-772,-308,71,-131,-153
-40,-188,-84,39,25,-148,-106,192,95,-43
383,244,-382,-64,276,357,151,425,427,330
655,259,-443,-259,-623,-51,182,605,760,936
494,54,-474,-404,-709,-116,-110,204,561,1146
357,-216,-611,-259,301,586,-159,-123,163,957
320,-365,-611,-66,128,543,95,89,64,683
102,-391,-439,85,-133,320,179,186,-150,377
-48,-402,19,360,478,344,122,86,-373,327
60,190,219,369,721,40,-24,7,-377,531
175,627,138,255,805,-249,-146,-64,-307,637
170,156,178,366,1164,64,65,100,-42,519
204,-106,137,383,837,496,383,347,258,309
179,-39,119,291,73,495,355,360,258,-229
-105,-99,191,110,91,450,136,203,-13,-917
-371,-203,51,-95,396,506,-24,-87,-399,-1189
-353,-78,-18,-77,9,270,-57,-231,-551,-870
-329,222,-306,-56,-546,15,-102,-233,-491,-335
-160,318,-716,-243,-931,-192,-212,-273,-430,-40
0,122,2,-53,-883,-446,-190,-245,-366,-31
67,641,1399,270,-561,-666,-102,-124,-338,-227
150,749,1397,77,120,-614,-101,13,-275,-400
-151,-124,590,-174,877,-213,-164,-64,-381,-775
-444,-683,-212,-348,675,242,-100,-119,-420,-902
-322,-495,-646,-299,188,390,58,-22,-242,-662
-61,-459,-852,-91,-379,31,216,156,71,-272
-93,-612,-1149,-122,-809,-267,48,-30,-17,-30
288,113,-926,-190,-1143,-474,27,-52,48,554
580,1181,-429,-477,-1835,-1020,51,102,315,970
298,1037,-373,-626,-1339,-978,87,128,372,843
104,493,-560,-473,370,-268,279,207,383,760
262,506,-306,-255,1180,424,617,403,545,1380
523,792,73,-10,789,717,836,434,655,1293
633,790,435,181,-205,587,939,491,712,414
299,277,647,233,-614,291,662,362,508,-269
-191,-210,558,232,-47,209,196,20,115,-546
-397,-558,216,205,1013,520,159,-50,-21,-500
-340,-830,-196,260,1576,799,441,72,45,-360
-251,-657,-683,96,1180,790,456,-80,-49,-210
-58,-153,-607,-186,-64,482,268,-187,-22,72
-6,-159,-252,-245,-751,-64,54,-300,-32,62
-254,-329,-11,-172,-314,-51,-147,-687,-326,-266
-406,-522,329,41,385,243,-15,-638,-291,-399
-511,-944,560,233,661,532,323,-214,56,-383
-383,-961,809,293,385,530,492,61,241,-208
-42,138,1989,567,-484,-347,223,77,188,56
58,1205,2392,527,-830,-911,53,-34,51,43
-95,572,1275,131,-770,-613,110,-58,28,-138
-335,343,-56,-323,-1197,-673,-172,-340,-254,-460
-531,6,-861,-729,-1624,-1279,-672,-789,-652,-759
-741,-610,-710,-596,-635,-653,-635,-880,-737,-955
-747,-406,-1022,-541,554,-25,-326,-391,-385,-929
-415,489,-1054,-683,355,-199,-503,-375,-362,-879
-328,107,-469,-657,39,-123,-776,-709,-685,-815
-208,-606,-90,-349,742,261,-284,-307,-344,-162
182,-661,109,79,1693,856,385,304,260,704
538,-563,-54,301,1622,1119,808,758,708,1242
613,-606,-367,363,834,814,839,951,885,1299
531,90,-365,281,267,290,435,635,587,842
640,1104,-428,9,-64,-86,56,207,131,230
398,663,104,153,-63,-85,30,162,45,-123
13,140,658,422,-158,110,92,207,97,-284
-163,-191,542,667,-189,117,65,102,66,-187
85,-112,238,702,-223,-37,28,89,94,67
510,228,319,729,-52,61,281,345,410,399
550,261,255,799,519,533,657,585,679,810
617,515,-502,419,963,1037,908,688,777,1132
795,509,-1068,-130,700,1057,870,528,652,1088
508,-36,-810,-205,47,600,641,200,275,697
432,426,-628,-216,-642,116,386,74,30,427
716,642,-765,-328,-1002,-135,373,390,145,383
533,217,-865,-398,-500,-298,245,486,134,-162
57,-249,-818,-320,888,244,126,559,257,-441
22,-126,-325,-67,1436,505,214,635,443,-134
315,196,193,12,946,352,431,727,561,116
621,503,450,-14,139,-1,310,655,557,313
652,541,605,112,-122,-75,161,414,438,248
382,270,462,233,66,38,265,381,347,-129
262,90,308,225,-30,-28,384,387,299,-136
299,74,114,107,-606,-276,384,360,405,409
16,130,-78,-11,-764,-239,298,232,384,572
-307,415,262,18,-683,-108,107,42,203,254
-421,798,763,80,-1021,-600,-100,-10,128,-86
-689,852,859,-9,-875,-1232,-416,-313,-194,-746
-763,414,870,-138,-674,-1286,-396,-477,-292,-846
-762,-141,535,-400,-544,-1235,-292,-353,-251,-620
-849,-761,-397,-611,479,-326,-228,-582,-523,-707
-651,-769,-829,-462,1350,1156,112,-635,-481,-499
-98,-258,-401,-233,1166,1333,301,-401,-207,-20
760,-268,-140,95,779,1096,563,39,176,588
1284,-385,-296,359,804,1112,827,346,430,851
1121,149,-428,292,682,776,758,567,552,756
675,402,-367,102,388,450,485,607,489,464
366,214,-162,86,302,299,247,405,301,406
80,27,19,134,-80,-45,18,127,140,470
-221,-102,232,211,-472,-444,-159,200,129,274
-322,-44,506,263,-700,-655,-152,362,173,172
-359,63,635,298,-534,-682,-271,-39,-199,-69
-508,-129,65,47,-348,-754,-460,-413,-456,-271
-624,-558,-253,-202,-401,-411,-405,-474,-383,-265
-472,-882,-49,-29,217,175,-28,-221,-100,-121
-62,-788,342,177,850,521,510,275,341,223
229,-427,386,161,719,748,756,522,608,417
457,267,-70,56,83,300,621,568,743,422
346,842,-643,-170,-129,-153,269,496,594,178
57,475,-540,-111,389,56,37,58,46,-202
1,159,-129,92,473,266,236,-64,-140,-249
76,346,51,75,-114,-36,208,-45,-165,-275
-214,-14,19,22,-367,-171,-60,-178,-317,-524
-596,-597,135,172,-904,-552,-319,-344,-446,-897
-808,-832,777,400,-1803,-1125,-521,-561,-603,-1158
-611,-601,1521,397,-2697,-1578,-491,-566,-393,-746
-446,-570,1119,17,-2954,-1928,-587,-646,-263,-341
-751,-828,205,-310,-460,-1089,-826,-1166,-699,-550
-746,-881,-385,-281,2208,627,-486,-1048,-641,-387
-71,204,-1075,-421,1895,1026,-85,-559,-151,119
506,1259,-1031,-703,884,545,-135,-673,-211,107
27,1025,448,-322,674,503,-109,-927,-610,-526
-791,635,1971,40,-288,-225,-267,-822,-798,-1086
-1004,-101,2963,171,-1281,-1069,-484,-195,-400,-820
-1206,-1613,2881,297,-1401,-1431,-864,-341,-498,-612
-1293,-1986,1140,-272,-1254,-1622,-1326,-1032,-1063,-898
-496,-626,-843,-699,-209,-888,-1177,-1095,-1045,-855
457,180,-1336,-546,876,344,-353,-335,-213,-112
1031,1155,-1390,-416,991,963,391,491,613,777
1102,806,-1169,14,952,1008,621,672,806,1260
984,833,-1304,125,787,849,668,683,798,1247
893,876,-1060,107,322,631,589,581,655,783
939,706,-847,11,88,511,485,466,493,596
776,313,-697,-75,-100,185,281,381,390,743
391,-201,-550,39,279,276,236,323,236,626
189,-543,-430,191,789,586,332,360,182,275
261,-579,-98,230,658,522,367,400,282,61
100,-411,-260,91,288,270,268,257,212,-3
34,405,-709,-144,-115,171,246,130,152,37
357,1033,-587,-159,-406,99,281,98,241,86
760,1125,-337,-23,-411,40,112,-78,174,104
754,630,90,195,-517,-113,53,-29,279,412
403,267,117,247,-654,-278,-42,129,313,330
-92,-142,-500,217,596,-16,-362,-229,-117,-372
-236,-377,-576,198,1278,248,-370,-387,-255,-622
-226,-295,-250,112,741,204,-235,-290,-193,-511
-102,-47,114,116,301,196,-190,-183,-70,-204
247,276,560,249,78,279,22,55,143,297
303,374,483,393,-236,70,94,19,106,503
-196,36,271,457,-440,-211,-133,-215,-149,279
-634,-477,226,358,-179,-146,-227,-375,-367,57
-668,-725,73,109,59,-36,-147,-318,-372,-114
-351,-375,69,-216,-106,-167,-127,-113,-202,-185
-51,155,32,-257,-53,-67,-61,77,35,34
209,491,-105,-106,200,237,118,200,270,293
372,479,-159,-18,202,279,167,250,363,250
307,160,-73,164,67,169,219,365,485,207
307,62,12,211,-508,-203,136,415,576,394
399,21,-49,70,-1455,-728,-125,211,421,551
154,-109,-95,-2,-1722,-944,-218,45,197,502
-270,-246,53,80,-1065,-818,-323,-198,-187,7
-323,-270,227,162,565,-157,-286,-333,-457,-332
31,-215,296,198,1718,549,30,-146,-309,-244
207,-363,227,256,1528,994,259,45,-102,-359
359,-152,264,256,896,719,263,292,143,-353
366,176,120,275,646,536,265,295,166,-139
44,145,-371,130,287,389,234,235,128,-81
-66,275,-388,-33,-379,109,39,-20,-30,-140
-32,362,-56,-109,-799,-2,-75,-379,-273,-143
-89,403,356,-185,-726,-49,-160,-630,-489,-220
-230,272,227,-175,256,40,-180,-578,-506,-388
-143,-181,-101,-132,832,56,30,372,235,-49
122,-488,213,106,384,-170,-112,598,517,293
252,-308,459,150,-135,-375,-335,219,199,143
379,-99,328,80,-63,-181,-193,140,140,148
582,324,135,24,-13,-135,-94,158,250,384
667,801,-145,-106,-552,-559,-238,41,223,517
442,553,-326,-21,-790,-733,-247,44,230,482
-135,-183,-313,85,-191,-316,-277,-140,-44,-62
-221,-164,-98,47,-31,-124,-170,-106,-91,-150
-56,-23,-39,-53,-349,-323,-12,96,127,209
-174,-230,-3,-68,297,137,7,-56,6,282
-92,-198,341,-30,1099,810,166,-89,-27,404
-2,-137,918,167,793,636,208,-31,20,384
-91,-71,1021,241,418,323,-69,-294,-252,111
-196,-459,516,57,90,-17,-226,-335,-400,15
-264,-349,151,-96,-119,-261,-239,-92,-252,190
50,917,-86,-121,-90,-225,-274,-88,-215,124
179,1315,-248,-212,-25,-137,-232,-91,-131,-210
-68,750,68,-308,-171,-268,-312,-97,-131,-674
-313,-154,27,-295,-387,-442,-444,-238,-259,-769
-250,-822,-242,-55,-449,-453,-294,-125,-210,-411
-71,-1030,-501,134,-553,-412,36,98,-41,-71
158,-199,-522,-24,-1022,-589,61,60,17,101
108,148,-102,193,-1080,-635,-265,-312,-255,-87
-19,61,414,343,-1169,-711,-514,-580,-474,-308
-269,-44,109,-15,-1433,-1186,-696,-510,-446,-397
-856,-809,-725,-243,290,-584,-812,-715,-739,-618
-833,-996,-971,-229,1739,429,-546,-801,-757,-373
-179,-506,-899,-349,1143,463,-249,-352,-252,250
79,-153,82,-195,440,208,-90,10,78,340
-10,-137,711,14,-2,35,-9,169,252,108
89,-258,323,63,-124,173,283,394,462,279
93,-291,66,15,-103,350,559,596,548,365
96,129,-483,-259,147,340,459,526,434,295
421,845,-359,-330,-58,-10,190,272,279,565
558,1248,146,-90,-507,-295,101,172,202,504
551,677,152,108,-410,34,327,363,348,241
296,82,83,197,-181,419,463,444,447,96
81,-53,26,172,-243,238,313,274,308,54
-105,-2,11,166,35,99,154,92,130,-292
-212,-36,-41,109,562,138,103,54,112,-450
-119,-11,49,120,783,192,125,160,237,-67
184,55,277,111,533,199,145,240,345,399
383,205,411,88,357,194,95,83,193,326
401,236,582,53,-30,-58,34,-23,-13,110
193,4,363,-132,-766,-595,-214,-197,-203,196
-188,-18,-178,-121,-1138,-844,-419,-415,-465,52
-896,-1023,-172,286,-286,-201,-247,-449,-711,-1023
-1053,-1312,63,302,-84,-49,-131,-235,-554,-1445
-461,-306,296,58,-656,-301,-122,-48,-224,-829
54,439,275,-35,-666,-269,-40,52,-44,-259
185,486,-573,-317,427,225,128,186,63,-26
413,119,-902,-348,1054,572,292,397,309,683
345,-297,-380,-78,596,376,95,187,211,1114
162,-368,-38,122,701,418,95,143,157,1029
203,360,448,205,628,299,112,173,162,646
327,890,421,50,203,62,32,152,85,18
166,658,319,35,41,31,63,183,75,-431
-227,227,85,11,64,-20,17,109,-55,-820
-269,170,-309,-95,57,-89,-28,32,-110,-657
-4,322,-165,-95,-34,-78,48,113,65,-160
44,314,39,-128,-198,-88,72,86,12,-78
-174,131,-80,-235,-164,104,131,12,-124,-215
-309,-232,-357,-336,-211,32,137,-10,-127,-206
-183,-352,-407,-305,-291,-35,85,37,-31,-85
-213,-85,238,-104,-476,-268,-103,108,61,-68
-466,-94,733,238,-401,-466,-292,-23,-18,-238
-746,-408,657,500,209,-170,-331,-303,-227,-467
-663,-637,229,303,266,-39,-326,-350,-211,-367
-203,-436,-359,-4,14,-110,-234,-176,-6,1
129,-61,-612,-91,-23,-69,-157,-71,137,306
104,-106,-524,-98,-58,-80,-39,25,212,544
72,-77,-288,-230,-115,-189,-113,-61,80,488
174,162,-16,-219,-65,-273,-188,-171,-51,355
330,273,93,-155,-223,-320,-54,-57,51,474
380,178,113,-221,-666,-528,96,152,261,626
213,210,476,-165,-1012,-826,-130,-7,62,179
-83,189,710,38,-487,-428,-354,-275,-261,-455
-328,-65,693,223,120,113,-274,-223,-265,-746
-398,14,702,522,243,117,1,3,-61,-674
-95,-42,385,321,-253,-301,40,115,122,-256
-5,-207,-465,-135,-94,-164,-82,11,100,6
-22,-97,-760,-229,349,180,-32,16,115,143
44,-38,-507,-66,191,51,3,23,165,218
107,60,-576,-94,64,58,17,16,147,172
56,-21,-414,-152,-116,64,-43,-82,-21,-66
-86,-283,-271,-150,-177,-45,-97,-216,-249,-368
-115,-590,-383,-124,672,434,149,-51,-203,-351
151,-387,-82,-114,861,633,444,440,270,197
321,4,120,26,224,454,403,488,463,462
219,348,88,96,-712,-44,139,229,386,329
-101,341,31,-43,-1661,-745,-225,-99,72,78
-559,-123,-170,-63,-1061,-836,-622,-510,-361,-153
-731,-461,-211,-81,453,-345,-577,-587,-482,8
-333,-533,-111,-198,566,-124,-252,-337,-192,481
22,-404,-143,-253,136,-60,-75,-111,35,646
224,-198,48,-68,-319,-191,9,106,218,901
274,26,204,66,-303,-191,95,371,437,1324
354,644,154,145,413,161,151,478,436,790
260,690,404,291,877,491,154,300,86,-471
-180,-233,520,370,887,574,195,198,-192,-1365
-431,-1018,348,285,747,516,208,165,-241,-1452
-384,-875,70,96,348,232,82,3,-313,-1072
-276,149,347,83,31,91,13,-119,-344,-688
-154,656,245,21,-252,22,13,-229,-363,-603
-161,-140,70,-11,-389,112,95,-282,-348,-500
-335,-664,4,31,-342,106,0,-441,-453,-555
-160,105,-370,-42,-109,-102,-243,-507,-472,-433
267,374,-294,-173,54,-322,-281,-229,-121,105
310,275,311,-122,-323,-515,-254,164,258,379
161,273,607,125,-393,-284,-107,147,274,265
31,343,82,81,-152,155,23,-88,50,-56
-47,418,-403,-75,-157,-9,41,-60,-44,-274
66,303,-142,20,72,-101,46,112,27,-216
162,3,86,222,605,-104,76,96,30,-88
229,-91,-13,329,652,-204,276,207,170,133
-1,92,-301,267,95,-321,104,-47,-84,-81
-314,-85,-337,170,-346,-204,-91,-283,-307,-381
-435,-96,-130,-101,-1242,-851,-342,-249,-237,-392
-750,-574,-163,-239,-1151,-959,-713,-592,-593,-722
-1222,-1571,-108,-26,-428,-408,-838,-979,-973,-1028
-1321,-2059,-408,-211,-292,-252,-721,-916,-911,-1026
-765,-1359,-486,-421,87,35,-365,-502,-464,-524
351,77,-192,-290,504,488,250,196,311,387
1019,1105,-166,-361,256,480,504,499,713,915
739,1255,71,-497,-379,57,258,216,393,709
696,973,-111,-444,-607,-85,253,160,306,795
709,661,-166,-252,-486,27,395,297,450,1286
635,574,-38,-300,-920,-264,249,310,460,1149
235,391,-21,-321,-1047,-643,-65,250,369,527
-329,-33,-129,-275,-456,-329,-202,154,149,-194
-576,-522,59,114,604,368,-219,-114,-184,-802
-411,-786,444,485,1280,637,67,77,-22,-972
-162,-722,547,399,947,417,171,216,100,-847
-51,-303,224,169,799,464,114,154,0,-457
373,784,-339,-70,750,588,215,289,132,288
565,1045,-457,-166,192,401,108,145,29,605
381,587,-117,-79,-281,221,-38,-16,-147,353
203,126,9,79,-336,38,-44,2,-157,72
80,-136,130,348,474,142,-62,-42,-177,-61
157,82,316,341,540,-8,-179,53,-61,43
121,74,63,69,186,-57,-236,-87,-133,46
144,-80,-222,-60,561,257,98,33,67,356
449,31,-97,-130,454,383,327,158,235,616
462,25,-281,-184,184,330,190,2,82,453
400,27,-404,-231,68,179,84,-8,8,357
435,75,45,-67,3,-21,-36,6,0,381
287,138,450,141,75,22,-89,-67,-51,221
-53,43,372,101,54,70,-55,-83,-90,-135
-365,-244,134,-52,-34,20,-49,8,-97,-343
-630,-533,146,-149,-100,-44,-71,68,-92,-102
-409,-312,146,-228,-252,-71,-46,97,100,517
-19,257,131,-136,-321,-173,-67,46,193,754
-57,232,182,170,-219,-354,-124,-24,110,457
-86,156,78,388,-56,-373,-131,-30,95,186
-139,-12,75,392,241,29,-137,-118,15,-273
-109,90,148,190,242,212,-42,-91,-6,-829
-75,82,75,24,130,194,23,-71,-89,-926
-37,-96,60,8,0,43,0,-52,-92,-558
28,-132,308,165,-197,-170,-69,-97,-102,-226
8,-35,398,316,-712,-555,-219,-145,-123,21
-35,214,140,88,-1216,-846,-255,-49,9,253
-287,-170,-59,19,-356,-308,-129,-96,4,145
-467,-456,-16,124,1037,692,198,-113,-25,-195
-289,5,-112,72,962,951,463,-129,-49,-363
38,272,-347,64,427,813,496,-132,-45,-198
156,-75,-335,65,135,340,281,-70,35,47
40,-190,-266,-16,124,-168,-58,196,237,113
91,149,-225,-152,137,-264,-243,362,302,21
175,239,87,-33,138,16,-114,215,180,-14
242,272,294,1,-215,-81,-41,167,169,86
361,163,305,-37,-987,-409,54,317,264,335
324,-201,355,-10,-1852,-805,82,424,396,601
-156,-383,101,11,-1302,-672,-190,5,14,109
-525,-91,-352,-61,161,-158,-351,-396,-388,-534
-402,-665,-799,-95,1311,402,-42,-139,-116,-182
68,-964,-818,-57,1311,652,262,240,310,570
122,-428,94,82,538,371,141,152,236,595
35,913,493,24,-6,-112,-212,-222,-159,123
18,1189,64,-158,-376,-313,-427,-444,-416,-105
-80,313,-381,-278,-545,-268,-435,-526,-590,-197
-161,-316,-592,-259,93,241,-83,-371,-541,-265
-93,-302,-21,65,642,557,278,74,-127,-151
10,14,309,211,130,88,187,535,309,-61
221,297,-54,67,-476,-219,110,530,408,-56
181,406,61,23,-521,-349,-60,219,228,-146
80,478,300,124,94,-80,-85,63,69,-192
191,421,213,85,462,189,109,191,136,-21
61,-17,133,122,843,287,14,-49,-51,-30
-29,-308,79,189,966,320,-13,-211,-172,-76
87,3,-137,58,784,510,114,-114,-93,-11
210,320,-155,-28,438,361,189,89,126,206
264,163,45,22,70,-4,38,31,95,254
256,7,178,54,-239,-204,-24,34,40,169
244,39,221,28,-724,-522,10,175,131,187
172,157,159,-7,-944,-544,79,238,179,149
57,304,255,52,-790,-316,-21,103,-13,-67
-95,223,350,53,120,224,-168,-184,-288,-234
-101,128,231,-47,836,543,-77,-153,-170,-116
-26,-12,54,-88,458,184,9,-30,10,65
-178,-420,-284,-36,-52,-73,-7,-52,-30,87
-249,-671,-333,98,-321,-142,-51,-77,-32,59
-79,-640,5,113,-463,-102,6,58,132,148
41,-400,387,109,-298,-7,149,195,280,163
305,228,324,-93,-378,-184,208,311,432,295
391,499,163,-200,-625,-441,75,237,413,279
-218,-130,4,-49,21,-138,-213,-258,-152,-373
-522,-236,-218,-35,487,136,-320,-480,-491,-737
-434,-316,-441,-80,199,201,-211,-411,-431,-596
-371,-382,-278,24,-159,80,-141,-366,-355,-452
-213,-221,-299,32,-260,-7,-83,-332,-281,-261
-56,-45,-103,-32,-69,69,10,-173,-95,87
95,142,503,24,88,7,58,-8,65,396
278,482,710,-25,-227,-381,-41,9,88,542
238,460,453,-240,-498,-594,-115,65,28,316
-154,-9,-76,-159,554,60,-210,-249,-370,-248
-280,-239,-366,156,1336,743,-37,-215,-347,-276
-88,-354,-170,170,624,542,203,174,110,144
6,-153,-105,0,-142,63,51,203,222,231
20,87,-334,-169,-327,-156,-213,-81,-10,123
-52,-69,-397,-179,-565,-339,-270,-131,-64,124
-121,-248,-173,-126,-899,-572,-323,-142,-61,151
-43,-209,239,-36,-494,-517,-372,-263,-157,88
260,74,297,107,-522,-567,-200,-93,19,291
354,223,168,34,-1758,-1001,-143,67,238,378
-65,71,-71,-137,-1890,-901,-395,-286,-37,-213
-525,-274,-409,-93,579,427,-217,-443,-249,-694
-185,0,-2,-111,1323,615,255,21,108,-350
393,539,448,-307,-755,-326,320,374,460,96
387,440,53,-324,-1270,-650,89,344,414,50
68,114,-218,47,1310,827,115,132,110,-188
67,195,561,518,1990,1288,359,197,-10,-126
-321,-345,704,520,442,284,121,-12,-419,-453
-937,-1439,242,505,393,76,-302,-506,-1001,-1045
-1036,-1289,-301,219,770,53,-491,-760,-1183,-1299
-344,-358,-514,-195,519,44,-229,-416,-663,-681
491,293,-77,-257,163,232,166,101,7,209
822,783,-494,-488,-7,246,266,214,246,539
697,638,-512,-375,149,295,284,70,157,461
410,280,-25,27,354,159,186,-18,90,472
341,319,359,208,56,-270,19,51,219,676
89,218,300,103,-572,-610,-148,131,329,641
-266,-124,-115,-129,-861,-232,9,82,276,366
-397,187,-462,-232,-722,-13,138,-78,119,-3
-530,1,-392,51,587,454,42,-356,-177,-206
-375,-452,158,218,745,202,-207,-343,-172,233
-355,-907,44,138,27,-222,-433,-325,-88,699
-395,-1495,87,234,-87,-115,-78,92,253,689
-193,-1219,644,74,-168,-209,44,238,308,261
219,-3,352,-180,-64,-195,-256,-118,-23,113
392,1005,-285,-138,101,133,-114,-51,5,71
55,1263,-742,-220,197,360,116,145,152,-614
-96,863,-598,-342,186,241,115,129,134,-980
70,672,50,-319,1,61,-5,-22,11,-573
287,681,194,-300,-384,-136,6,170,219,-36
398,643,100,-136,-557,-237,113,357,427,125
105,522,412,146,-586,-450,23,186,147,-375
-193,231,646,343,-957,-803,-268,-173,-364,-913
-447,-471,511,381,-916,-686,-485,-443,-712,-1003
-550,-1073,150,371,79,-195,-636,-725,-946,-720
-171,-747,347,327,229,-18,-362,-403,-533,26
-13,-272,-115,19,-298,-95,-145,-158,-233,371
69,29,-809,-303,-506,-32,276,276,210,533
118,163,-374,-382,-587,-9,537,622,557,395
106,359,-213,-239,66,371,340,379,348,46
195,366,-232,-18,1216,841,181,71,164,172
508,384,168,115,1188,729,228,149,356,714
565,341,429,36,96,239,112,119,301,722
115,107,194,12,297,21,-228,-280,-246,-29
51,377,-56,-109,574,41,-216,-231,-182,-3
81,304,137,-151,-34,-136,-193,-105,52,249
-106,-42,188,-129,-682,-620,-518,-347,-162,-77
-267,-432,78,-30,-902,-1018,-610,-407,-323,-427
-72,-653,100,0,-1387,-1111,-194,63,9,-213
-354,-835,-288,-65,-967,-649,-10,61,-105,-411
-675,-477,-872,-200,850,594,57,-232,-450,-985
-169,92,-1135,-239,1249,1011,285,-139,-312,-783
225,-13,-586,-18,934,578,283,-84,-144,-140
531,361,176,191,835,387,242,119,144,467
249,174,673,431,255,260,71,155,130,334
-219,-557,721,463,-387,-350,-76,159,121,329
-271,-706,444,326,195,-55,-60,-89,-31,737
-127,-37,638,424,1003,540,96,-179,-90,774
96,786,271,58,529,410,135,-212,-107,263
125,206,-306,-290,-286,5,108,-141,-82,-143
-34,-560,-254,-24,-473,-156,130,194,190,-170
-209,-476,-132,161,295,300,193,282,214,-558
-127,257,-140,39,745,585,134,181,117,-832
346,734,-45,-123,168,366,246,278,328,-350
318,527,-67,-228,-250,56,209,318,410,143
153,394,-126,-30,-62,-102,-34,85,231,323
102,273,-59,183,171,-161,-211,-119,40,253
-229,-239,-264,140,-188,-293,-279,-55,59,25
-169,-165,-72,50,-1223,-553,-197,79,192,-17
75,176,296,-144,-1829,-810,-126,65,154,6
101,53,101,-212,-268,-327,14,80,98,-27
207,-32,210,-144,1675,585,289,297,244,123
215,-26,340,-189,1089,595,398,468,348,214
-19,225,105,-211,219,334,88,151,16,-91
26,331,-14,-76,184,169,-103,-115,-179,-167
240,14,20,-37,99,38,-45,0,16,137
319,8,34,-107,46,85,-27,111,186,350
308,252,-145,-89,-38,87,34,248,327,481
192,264,-375,-101,-83,43,79,239,326,425
6,-80,-373,-16,121,190,158,299,415,397
72,-99,-136,255,122,199,157,320,483,411
221,91,99,371,-130,108,177,367,512,295
236,213,188,281,-467,-94,205,392,467,114
180,194,233,195,-410,-193,85,172,138,-15
80,126,478,349,-574,-451,-79,-82,-277,9
-575,-523,343,489,-1074,-750,-562,-698,-1078,-441
-1015,-1401,-308,142,-1210,-506,-589,-812,-1251,-713
-731,-1485,-633,-294,-709,-311,-318,-466,-793,-671
-43,-434,63,-302,1096,193,-323,-422,-614,-508
847,946,202,-366,1698,579,2,-8,-123,369
1062,909,-401,-485,563,392,345,412,360,1090
682,382,-119,-243,-366,-92,275,512,441,1147
300,206,2,-5,-418,-165,77,225,170,946
-76,80,-151,60,360,307,78,186,20,751
-183,152,-21,116,1059,712,213,213,6,394
-118,323,220,111,859,570,309,279,29,-332
-96,269,222,71,405,406,322,185,-29,-926
-158,-7,20,91,173,203,297,179,-38,-986
-127,-225,-57,122,-84,-126,210,175,-15,-721
26,-232,63,140,-299,-253,177,275,167,-346
-131,-354,363,160,-65,329,350,212,200,-137
-279,-372,524,169,271,680,463,-35,-6,-188
-109,40,478,123,316,530,368,-240,-153,-178
113,724,430,25,-442,-372,-110,-77,38,-27
-241,157,28,-194,-1134,-1348,-863,-92,-16,-148
-914,-1297,-817,-404,-748,-1252,-1073,-576,-533,-265
-635,-1482,-1184,-377,-351,-643,-491,-261,-254,276
-32,-571,-90,17,-297,-146,72,242,285,590
208,636,499,73,-216,225,125,164,245,176
537,1215,77,3,-431,139,326,375,469,172
497,898,87,114,-604,-286,386,472,523,171
96,284,207,137,-816,-478,292,358,275,-406
-327,-338,-106,24,11,27,169,143,42,-749
-223,-238,-134,18,1211,543,106,22,25,-506
85,29,-100,-17,1320,671,222,139,183,23
175,227,-230,-142,737,487,284,179,263,463
113,-104,-277,-155,603,338,196,70,189,567
108,-264,-108,-77,536,478,226,115,180,466
209,38,13,-19,217,365,161,157,147,298
393,439,143,-15,-216,-76,-5,97,69,194
466,528,202,122,-278,-116,-12,39,27,158
382,627,266,291,-41,-74,28,22,-42,17
0,343,233,390,401,59,-12,-126,-276,-465
-193,7,123,327,367,87,60,-67,-215,-666
-139,-159,-10,232,-57,-14,164,110,67,-289
-322,-337,-79,220,-271,-64,41,-25,15,-111
-570,-721,43,208,-280,-75,-205,-298,-218,-63
-810,-1091,100,307,-298,-178,-282,-357,-317,-142
-977,-1249,178,596,258,-81,-283,-408,-430,-442
-538,-563,-209,136,256,-88,-223,-337,-335,-278
48,178,-186,-281,-366,-183,21,123,207,447
387,922,585,-416,-827,-347,2,224,408,841
399,1205,54,-717,-580,-183,-277,-230,14,656
120,467,-362,-725,-935,-554,-472,-519,-299,303
12,-303,-475,-503,-1224,-803,-350,-393,-233,140
157,-436,-400,-291,-473,-415,-109,-168,-49,231
153,-162,-193,-125,744,2,-78,-193,-61,254
215,-59,-178,-151,676,8,12,63,231,423
-291,-816,-233,66,-416,-106,-122,-214,-89,-89
-864,-1607,-522,244,-808,-234,-325,-633,-625,-671
-403,-952,-361,-158,-1390,-802,-253,-429,-524,-202
258,516,335,-392,-1348,-1050,-382,-295,-361,367
369,757,774,-189,-409,-112,-127,-144,-133,182
87,420,154,-56,363,388,103,28,62,-246
-37,283,-389,-86,690,168,231,280,258,-348
-155,109,-181,71,725,436,220,252,203,-533
-91,-103,-34,110,366,414,25,-14,-55,-626
-14,-151,113,203,786,358,79,28,-167,-734
53,-40,245,348,1185,576,354,401,86,-382
102,252,293,252,733,494,319,315,115,-101
327,662,191,26,533,334,182,98,-19,-59
355,667,548,82,434,188,195,36,-6,-97
138,241,635,122,-288,-248,5,-142,-79,-252
-139,-490,222,91,-1040,-674,-317,-354,-162,-272
-1021,-1673,-636,52,-766,-563,-627,-663,-510,-653
-1207,-2177,-1211,94,257,97,-222,-289,-242,-434
-333,-655,-1183,-275,460,195,47,78,210,294
411,640,-340,-496,348,129,51,154,404,645
587,1160,402,-269,272,201,224,297,483,515
414,944,-159,-141,-83,71,324,421,494,343
-66,39,-205,118,-606,-496,32,168,125,-71
-522,-485,46,244,-911,-998,-527,-488,-706,-926
-647,-717,74,42,-209,-429,-382,-564,-911,-1065
-123,-319,198,-141,431,241,185,0,-305,-275
380,521,680,-47,871,910,372,137,-14,116
764,1138,427,-17,817,963,458,188,106,227
819,899,-176,-81,569,687,596,340,290,379
641,543,-75,-30,284,441,501,365,362,567
490,450,83,57,3,250,348,308,343,786
111,158,272,219,-135,108,220,161,202,573
-622,-687,315,456,-267,-411,-327,-387,-304,-168
-924,-1116,117,200,-369,-794,-699,-598,-469,-439
-497,-590,199,-74,-359,-499,-384,-332,-241,-142
117,433,497,-15,-267,66,194,12,39,280
242,911,-117,-79,2,352,322,16,-26,285
-45,146,-434,42,283,340,284,88,-19,24
-323,-438,-477,35,339,320,283,98,-22,-393
-234,-379,-386,-2,466,441,397,199,102,-446
100,138,184,-39,395,439,360,170,184,-190
381,490,177,-136,88,251,312,350,417,205
535,777,166,1,-19,2,162,521,587,535
580,909,313,60,-33,-118,67,450,547,700
622,760,176,-96,-188,-146,116,346,474,884
585,369,161,-132,-586,-270,110,251,345,935
634,240,52,-74,-806,-376,94,200,293,909
289,173,-165,-25,-31,-280,-132,-149,-70,469
-139,142,-49,33,588,105,-194,-294,-343,90
-157,138,123,45,-165,77,28,-19,-129,-36
-116,74,421,183,-1642,-737,-46,20,-37,-526
-318,-374,577,138,-1218,-839,-262,-107,-170,-1058
-402,-866,-61,216,1548,489,-192,-190,-259,-889
-229,-733,-133,256,2142,956,30,-69,-83,-314
-248,-628,-42,124,735,412,24,-58,-29,-30
-373,-363,-397,-144,-67,-113,-132,-185,-151,-151
-318,117,-323,-255,-341,-394,-111,-178,-156,-313
-36,155,-146,-131,-602,-269,214,270,219,-33
274,454,64,-138,-784,-108,204,320,352,294
139,156,212,61,58,243,-9,-14,106,295
82,-288,308,291,685,148,-68,-39,151,553
315,-367,-80,60,301,-10,97,215,447,947
477,28,125,-79,212,148,219,374,613,1061
472,514,-138,-216,505,495,216,254,431,626
308,444,-37,-41,596,640,271,241,295,127
-109,90,508,405,344,338,160,100,41,-248
-389,-255,499,453,-32,-35,-108,-182,-207,-462
-525,-336,6,173,-452,-351,-371,-470,-511,-611
-744,-514,-358,-56,-564,-437,-355,-517,-713,-724
-735,-1101,-764,-79,6,-3,-63,-288,-556,-670
-193,-810,-332,-138,307,300,171,21,-211,-651
189,-3,423,-226,-81,-67,-34,23,-156,-770
362,714,157,-333,-290,-229,-178,-59,-128,-428
370,1106,-118,-306,-705,-221,0,29,41,230
126,801,-248,-186,-876,-518,-164,-176,-128,286
-470,-566,-672,82,-71,-407,-387,-495,-482,-342
-834,-1263,-900,272,433,-77,-392,-542,-561,-714
-1064,-1213,-721,31,-684,-813,-901,-1096,-1056,-1022
-1292,-1606,-550,-231,-1350,-1325,-1131,-1388,-1348,-1172
-1084,-1470,-414,-81,50,-461,-549,-931,-906,-775
-641,-492,573,-18,280,23,-69,-233,-237,-267
-250,93,857,-54,-737,-87,166,251,285,28
87,32,-124,-282,-879,3,291,415,440,125
342,452,-416,-529,-282,120,183,316,333,57
820,1292,-92,-408,405,342,179,320,399,407
952,1167,125,-232,368,314,178,342,482,655
494,585,42,-179,84,188,28,45,176,268
12,77,-437,-198,332,50,-229,-347,-191,-104
-21,37,-166,-93,375,-36,-220,-195,-57,274
156,152,265,-76,-244,-10,247,508,529,858
-44,-78,90,-324,-1128,-271,281,493,540,631
-519,-624,-581,-427,-724,-377,-316,-304,-210,-192
-237,-528,-785,-188,148,-12,-169,-184,-188,-227
277,82,204,63,379,137,243,409,270,40
576,695,981,196,544,284,402,579,410,106
522,918,793,261,46,119,251,335,231,123
-206,480,551,395,-253,-300,-490,-512,-548,-412
-795,-328,714,670,-96,-753,-902,-915,-898,-444
-767,-878,580,402,-184,-893,-689,-653,-578,66
-337,-1012,680,179,-760,-615,-409,-293,-127,498
-38,-817,-33,-72,-1064,-526,-441,-304,-76,408
-801,-1411,-1780,-254,-91,-456,-1020,-1062,-921,-500
-1507,-2258,-2052,-15,962,-31,-883,-1032,-1091,-739
-1057,-1719,-1710,-563,493,105,-199,-243,-406,-387
14,-260,-272,-596,421,491,401,413,276,-109
998,1316,1566,-166,673,814,712,701,684,293
1608,2336,1254,-92,770,985,933,917,944,594
1489,2336,472,-164,656,990,979,936,923,358
897,1485,395,115,591,866,859,738,667,-21
604,923,378,307,502,662,726,630,540,-140
590,664,272,244,214,316,580,623,610,107
553,345,119,202,9,118,527,709,729,363
453,84,285,299,193,333,499,619,607,344
381,82,615,457,735,760,446,404,339,253
535,382,702,429,686,654,386,325,321,530
518,1048,482,58,22,167,209,149,238,595
368,966,-244,-307,-340,-71,39,0,132,309
279,557,-343,-141,-154,105,110,93,228,363
327,337,387,225,-499,-134,76,241,407,593
333,51,802,369,-920,-389,-76,140,325,534
-1,-451,482,229,-732,-536,-245,-205,-50,45
-172,-807,-333,43,163,-179,-59,-203,-106,-43
50,-527,-724,162,823,522,422,303,286,373
144,-60,-464,195,706,709,398,346,156,179
212,863,-100,139,286,426,276,175,-69,-163
128,871,-49,121,363,202,276,93,-86,-264
-158,22,-333,-31,322,-19,87,-153,-194,-265
-523,-551,-568,-122,32,-51,-199,-368,-385,-464
-552,-568,-96,98,-263,-270,-414,-368,-431,-546
-1095,-1372,738,460,-1300,-1326,-1108,-1032,-1033,-948
-2161,-3053,3,373,-1919,-1971,-1762,-1763,-1713,-1466
-2065,-3831,-1437,-115,-562,-985,-1116,-1221,-1218,-938
-787,-1433,-127,-241,396,108,-209,-339,-318,120
584,1079,958,-379,34,308,239,231,390,1105
1473,2164,-147,-603,-120,348,472,541,850,1618
1489,2175,-354,-518,426,558,543,543,774,1156
1038,1505,-86,-150,989,799,688,678,644,407
765,971,112,103,728,713,683,647,482,23
513,742,287,237,235,475,592,427,238,-266
152,652,228,244,155,454,600,387,120,-539
230,646,294,209,-160,-8,400,652,401,-171
94,410,245,166,-273,-372,39,438,260,-37
-73,327,241,125,-171,-350,-37,106,-60,128
-254,247,272,64,-325,-293,-321,-296,-377,223
-670,-262,25,-57,124,-45,-595,-689,-679,127
-560,-760,-537,-297,665,196,-336,-436,-374,448
154,-337,-381,-278,636,395,190,170,231,567
451,279,157,32,556,627,461,395,389,-158
471,518,111,57,165,521,448,350,311,-578
420,339,-13,-81,-34,347,319,263,249,-337
348,99,-49,-47,487,497,205,203,217,73
373,141,25,78,525,350,94,171,186,451
324,209,88,169,211,201,44,46,33,571
86,12,73,213,36,158,104,85,-1,324
-35,165,259,227,-361,0,116,218,110,-130
9,392,529,227,-904,-324,48,179,85,-370
19,13,750,349,-1039,-669,-114,-75,-133,-385
48,-768,1119,509,-1706,-1145,-106,52,118,-65
-648,-1612,334,257,-1627,-1076,-449,-367,-250,-510
-1487,-1364,-1004,-91,1137,423,-760,-1099,-1052,-1259
-1136,-385,-1367,-311,2271,972,-268,-676,-679,-684
-508,142,-533,-344,986,291,-119,-216,-178,-147
-124,405,136,-34,113,-85,-179,-33,23,-162
152,305,-581,75,213,120,110,301,340,50
345,167,-479,22,477,336,266,362,423,261
366,328,407,82,537,384,312,330,403,387
522,575,176,47,472,401,394,393,488,610
565,607,5,58,52,146,322,352,436,637
475,467,188,47,-985,-407,98,258,357,583
123,-35,23,-15,-1553,-805,-161,19,113,232
-484,-865,-573,-69,-530,-410,-321,-335,-343,-357
-725,-1183,-1153,-278,-26,-163,-253,-344,-421,-476
-548,-792,-830,-235,-208,-110,-115,-176,-292,-254
27,17,-91,-125,350,184,120,34,-69,190
452,302,497,-50,834,542,347,180,123,562
568,609,423,-87,829,765,357,139,94,440
540,630,268,-3,554,556,292,142,71,224
440,321,389,183,429,262,128,69,0,63
341,195,335,238,368,278,219,180,117,59
194,353,114,127,231,244,185,203,218,199
87,173,6,83,111,155,82,209,294,519
-58,-109,111,167,-125,-124,-49,277,302,469
-221,-189,155,65,-439,-301,-134,245,169,-69
-229,-128,122,-121,-572,-272,-136,49,-4,-480
-157,-551,238,94,-358,-172,-98,-63,-107,-428
65,-801,382,301,-235,-183,-26,-11,-20,-87
341,25,224,177,-454,-378,-39,31,61,81
227,668,34,-72,-103,-246,-155,-151,-129,-39
34,431,-266,-219,594,307,34,-152,-144,4
48,404,-548,-196,915,737,321,-109,-113,82
92,320,-280,-100,508,530,270,-68,-34,87
-15,150,-41,-20,-120,29,76,71,103,61
-181,-85,-129,-44,-333,-210,-3,308,265,12
-206,-194,-166,-13,14,-119,-68,244,211,53
-19,73,193,133,45,-167,-170,51,129,243
-162,222,1071,437,-384,-499,-393,-208,-119,126
-565,-230,1165,443,-634,-765,-677,-658,-614,-161
-594,-736,-16,-150,-532,-812,-813,-901,-821,158
-211,-754,-427,-425,-500,-741,-647,-643,-497,638
20,-377,-1022,-582,-617,-609,-419,-259,-176,643
43,-307,-893,-431,-932,-467,-243,-120,-56,541
-125,-608,73,-39,-1139,-478,-237,-146,-106,403
-150,-271,305,126,-193,8,14,-34,-87,45
68,382,-209,261,663,470,460,339,257,-439
141,315,-115,196,724,523,575,512,430,-972
80,161,-238,102,1178,850,555,505,346,-939
260,296,-260,3,1195,852,589,574,459,-236
349,322,15,22,679,526,370,326,334,62
358,272,149,39,285,282,263,203,212,4
302,186,220,68,38,123,238,235,208,-116
33,107,334,186,-215,-62,19,40,-16,-444
-338,-119,370,236,-479,-215,-212,-241,-344,-681
-627,-759,242,132,-789,-602,-433,-461,-570,-711
-731,-1280,133,49,-839,-713,-414,-400,-509,-571
-452,-985,335,-7,-935,-395,-51,-1,-83,-229
42,668,267,-161,-1142,-317,108,170,136,-110
396,1768,-6,-138,-529,-290,44,87,91,-57
442,1056,-101,107,982,394,242,209,197,137
401,495,-165,-4,1261,600,280,270,236,243
172,-57,-423,-218,1047,568,5,-38,-68,24
252,-90,-483,-133,1002,746,84,-22,8,211
375,173,-313,-54,544,420,115,54,161,412
302,124,-112,9,259,189,125,82,163,284
140,6,-63,36,162,173,218,183,211,155
98,-19,-7,81,158,244,197,124,139,171
203,45,20,79,23,136,128,87,178,255
322,134,151,32,-271,-151,87,104,244,238
348,152,215,-18,-854,-577,-1,178,335,143
1,-146,60,40,-1168,-751,-317,-167,-4,-209
-494,-880,-279,112,-1066,-694,-516,-515,-434,-392
-601,-1258,-253,119,-373,-473,-529,-400,-426,-2
-242,-856,291,131,-9,-126,-102,151,60,509
-52,76,806,111,399,309,63,57,-126,4
158,1010,268,-199,710,291,-127,-266,-439,-467
-7,495,-402,-236,821,380,65,-84,-235,-256
-42,5,-414,-162,506,389,295,171,74,105
-14,-179,-339,-211,185,261,304,113,126,287
3,134,-113,-123,175,214,255,-69,-1,199
62,359,-5,-38,70,152,215,-158,-143,6
-2,93,-89,32,-80,139,146,-90,-136,-171
-119,-108,-175,-26,-233,-73,-30,-14,-47,-49
-116,-121,-84,-69,32,-77,0,128,49,208
3,-44,244,39,275,50,110,257,216,421
162,-54,31,118,193,132,212,306,388,727
223,68,-14,108,-343,-72,104,194,374,784
286,513,273,-23,-1018,-371,-100,7,221,598
266,525,489,-37,-688,-268,-48,-211,-59,399
72,-103,352,13,239,131,126,-319,-266,110
-5,-314,286,150,425,387,192,-224,-288,-462
-147,-38,-9,40,-97,-92,-65,78,-70,-1042
-214,242,-139,-20,153,-211,-327,72,63,-821
-321,-110,-86,-3,549,85,-272,-87,-11,-519
-546,-629,383,115,432,12,-293,-228,-205,-499
-749,-1251,326,410,128,-183,-322,-332,-372,-430
-789,-1337,-300,190,-238,-394,-380,-409,-455,-364
-275,-488,-807,-328,-386,-375,-148,-111,-141,-31
360,441,-257,-251,-28,34,205,332,362,504
663,1028,-386,-168,427,466,369,469,532,568
553,825,-232,37,307,380,398,468,505,262
469,614,145,56,-324,-6,235,324,394,258
480,595,292,-16,-936,-427,21,134,243,485
112,202,343,79,-671,-437,-101,-40,-12,183
-154,-303,377,207,-247,-318,-64,-57,-133,38
-545,-1029,66,247,218,-52,-177,-152,-221,-302
-690,-1254,-439,180,855,421,-91,-145,-201,-676
-293,-542,-330,-21,889,424,-17,-130,-162,-491
66,26,497,-90,416,175,-62,-137,-140,-119
329,470,453,-211,98,32,-64,-33,-37,380
440,1364,-261,-489,-202,-209,-239,-142,-40,795
376,1231,-477,-426,-148,-95,-97,-54,39,1051
280,431,-233,-40,212,291,301,317,245,800
15,82,-37,209,300,314,321,296,75,-394
-94,-163,-169,264,149,151,144,157,-89,-1108
-215,-134,-15,278,18,39,55,75,-112,-1120
-359,-209,69,219,-44,-12,20,24,-70,-835
-332,-470,97,173,-141,-43,13,-4,-29,-281
-50,-472,119,1,-481,-180,53,90,91,289
376,-28,20,-98,-462,-222,164,264,321,699
269,388,17,-55,3,-155,42,-19,78,397
242,567,-118,-172,-308,-169,49,-165,-45,255
29,222,-195,-183,-230,35,-92,-386,-254,14
-44,-64,-188,-98,156,258,-38,-181,-122,-142
47,-143,-134,59,373,298,72,145,180,13
105,-33,31,94,107,242,113,108,184,160
46,-10,102,17,-417,-172,4,6,66,108
-181,-230,27,85,-23,-232,-197,-43,-102,-67
-228,-329,-183,131,636,205,-90,47,-65,-63
-109,-75,-95,24,311,149,-10,124,29,-11
-9,199,321,9,-165,-194,-31,143,94,-12
73,184,228,-102,-556,-495,-95,64,97,-5
37,-152,0,-124,-700,-474,-54,62,103,-36
-115,-225,-113,-1,-69,130,12,-5,6,-212
-176,-67,-228,27,167,228,-65,-172,-163,-238
-239,-291,-358,-114,-99,-201,-232,-313,-268,-34
-211,-322,-143,-218,-452,-458,-284,-318,-279,131
-333,-362,139,-175,-581,-329,-259,-383,-388,-52
-528,-690,-256,-38,-140,-104,-211,-477,-472,-128
-576,-991,-382,107,739,446,-51,-453,-430,100
-141,-597,9,183,960,730,274,38,100,429
278,156,725,216,476,405,291,373,454,185
235,431,621,184,57,92,31,128,154,-353
299,546,48,30,-173,-25,10,-3,8,-169
378,534,-91,-146,-387,-121,39,120,114,74
443,726,-48,-332,-543,-194,-27,210,224,57
407,532,-229,-361,-547,-243,-16,330,390,222
304,299,-227,-307,-299,-273,-79,267,368,315
222,203,214,-77,542,124,-170,-7,163,207
204,135,641,194,659,263,-124,-58,70,142
10,-30,650,296,167,76,59,191,127,23
-138,-30,339,303,-32,62,112,238,78,-188
-107,231,-262,216,59,133,13,102,-48,-366
67,166,-239,128,4,46,61,160,-29,-228
-71,-97,124,120,-65,-104,-9,3,-194,-75
-161,-280,416,58,-331,-307,-196,-243,-342,263
-81,-384,482,-149,-764,-407,-219,-270,-345,403
-159,-500,58,-290,-488,-211,-194,-271,-349,252
-250,-791,-364,-323,-57,-211,-174,-123,-110,284
-342,-238,-978,-308,-108,-497,-307,-291,-222,-25
-405,-70,-710,27,-135,-347,-191,-299,-347,-651
-314,339,20,148,248,303,87,-179,-339,-1129
-129,476,-136,55,327,428,285,50,-95,-1164
-350,-164,-377,30,235,253,92,-38,-144,-1126
-118,-104,-84,-105,252,141,-39,148,59,-596
296,218,-26,-120,394,327,170,310,273,96
353,281,-81,-28,360,366,228,234,235,436
207,183,-139,12,200,289,179,178,116,469
247,104,-82,9,35,124,113,143,82,473
330,104,38,33,-30,78,81,145,158,436
391,178,97,-8,-124,127,195,265,316,419
365,178,94,-40,-65,96,166,224,258,254
180,140,162,90,457,290,148,109,125,100
-143,176,383,226,408,247,160,46,80,-47
-375,151,417,165,-80,-62,5,-135,-49,-177
-396,-99,146,-68,-277,-218,-107,-183,-123,-239
-242,-296,-150,-117,112,52,-50,-65,-85,-218
-108,-45,104,85,193,118,36,-56,-67,-213
-146,23,50,175,-104,-143,-114,-131,-82,-237
-419,-490,-76,272,-338,-396,-448,-349,-301,-392
-634,-1444,-127,293,-726,-613,-441,-360,-341,-317
-298,-1574,-315,-71,-1206,-647,-101,3,8,98
45,-504,264,-307,-1192,-545,-102,-89,-67,26
323,969,-63,-553,-160,-1,-148,-216,-210,100
549,1147,-433,-539,749,372,21,-39,-55,455
368,456,-25,-130,1030,364,122,146,127,494
270,334,42,117,668,306,195,225,273,530
123,239,-2,224,288,193,72,18,116,523
38,34,-3,248,180,134,35,-77,-7,624
77,-178,-14,169,169,178,178,120,148,767
208,-215,-20,140,133,205,312,421,440,518
154,61,180,181,96,114,211,377,349,-303
34,465,262,79,129,-2,-2,115,33,-716
33,163,16,27,24,3,36,150,98,-312
-163,-169,-413,-92,-230,-107,-144,-106,-92,-77
-313,-275,-446,-108,-277,-126,-255,-350,-368,-112
-197,-261,-95,35,97,129,1,-187,-257,-59
67,51,493,42,105,92,120,-5,-27,-10
91,182,403,-26,7,-47,70,56,64,-76
90,300,-19,-53,294,77,27,58,85,-14
83,218,-153,-73,251,116,6,187,170,116
18,-47,14,36,130,6,-44,188,168,171
-27,-197,382,268,191,42,-43,-48,-42,71
-179,-385,467,346,145,63,-16,-141,-159,-92
-247,-422,183,195,76,35,-12,-98,-148,-228
-82,98,-262,-5,33,3,-45,52,-14,-227
151,391,-160,-81,-33,-16,-58,120,84,-119
295,372,-134,-129,-53,52,49,131,132,22
316,324,-36,-108,-50,72,84,124,131,94
184,173,240,2,-30,60,78,105,96,184
15,-23,232,94,-47,31,51,50,10,124
-201,-299,-82,37,-156,-112,-72,-102,-153,-110
-339,-442,-391,-110,-256,-237,-204,-214,-258,-329
-242,-212,-163,-108,-150,-173,-158,-142,-171,-311
55,74,2,-70,54,-4,14,21,45,-11
241,291,12,-62,147,68,116,101,167,184
118,391,25,-128,64,-72,-65,-55,60,77
-61,282,-251,-251,-47,-200,-209,-169,-21,-121
-209,-77,-158,-210,-129,-92,-70,-78,4,-292
-166,-394,-20,-144,-266,32,137,78,117,-237
9,-349,134,-113,-157,186,277,114,200,33
186,-5,192,-4,184,402,381,37,176,361
149,100,80,91,173,381,373,-58,48,412
132,294,55,25,-112,-22,48,-29,17,382
201,192,13,-101,-291,-380,-258,140,197,472
53,-130,48,-107,-227,-329,-217,136,190,396
-53,-173,216,-35,-196,-217,-57,79,61,165
44,101,212,-41,-178,-137,-51,101,-11,-33
159,80,215,129,-24,95,36,158,69,-92
69,-72,208,258,-256,-15,49,116,-3,-342
-65,91,-74,156,-610,-286,-100,-41,-177,-468
-108,-21,-72,197,-218,-51,-106,-51,-188,-326
48,58,76,105,34,0,-57,32,-81,-141
89,228,-133,-62,52,-253,-164,-64,-139,-104
7,259,-341,-50,232,-87,-148,-126,-165,-95
-66,-50,-219,-7,170,114,-62,-69,-102,-62
-112,-216,-210,-49,162,120,-13,-55,-87,-66
-51,-142,-96,-32,327,197,44,-55,-59,0
21,99,148,0,322,228,65,-55,-47,44
73,294,261,-44,31,60,29,-68,-26,80
168,303,206,-173,-505,-288,-49,-31,86,158
166,29,64,-225,-791,-480,-91,28,185,182
10,-343,-226,-97,-84,-175,-125,-69,72,203
14,-207,-332,-38,152,18,-38,-62,76,600
9,50,-149,-146,-542,-371,-126,-66,76,627
-325,-89,-96,-195,-556,-290,-283,-211,-194,-142
-529,-339,-38,14,-19,87,-188,-253,-392,-870
-545,-421,-67,192,406,160,-138,-254,-465,-962
-576,-543,-178,184,689,172,-210,-311,-506,-743
-367,-397,62,161,386,5,-231,-310,-425,-396
-193,-287,142,205,-302,-278,-234,-275,-303,7
-356,-729,-163,140,-880,-444,-135,-270,-263,128
-315,-1009,-558,-64,-764,-61,215,-63,-119,217
14,-453,29,-36,92,382,338,107,26,271
366,834,417,-110,825,490,273,207,157,278
386,1131,42,-115,1230,683,369,357,289,138
224,629,37,28,985,644,414,302,202,-79
115,459,66,-76,310,329,104,-23,-55,-504
122,491,-84,-280,-89,-4,-160,-121,-95,-527
48,267,-148,-433,-163,-141,-89,253,237,-192
-42,21,-9,-438,-213,-121,-35,297,273,-46
-246,-328,51,-152,-275,-261,-195,-24,-4,-125
-457,-676,-146,128,-57,-241,-262,-186,-156,-197
-320,-568,-201,288,58,-117,-158,-87,-14,-118
-232,-288,103,342,72,-163,-265,-224,-89,-304
-184,-70,-10,406,-27,-258,-358,-332,-201,-481
-321,-248,-388,351,-590,-550,-424,-372,-335,-602
-475,-685,-721,54,-660,-521,-377,-349,-379,-534
-86,-450,-413,-52,-476,-378,-114,-58,-50,242
406,248,677,116,-309,-419,11,115,214,885
659,828,673,42,55,33,48,101,273,863
380,658,208,-32,320,370,-14,-91,85,480
229,387,354,-65,166,152,0,-55,151,493
211,200,329,-126,-193,89,199,215,395,535
57,-121,7,-8,-132,244,398,418,508,300
120,-55,-223,159,385,461,508,460,466,158
87,-146,-88,258,660,484,439,308,231,-46
27,83,8,151,382,283,276,105,1,-180
172,474,81,-15,-125,-29,49,-80,-120,-128
247,451,284,-28,-101,-132,-58,-80,-93,100
204,319,261,25,261,84,-28,26,-31,211
270,228,143,4,-149,-109,48,167,142,304
391,313,96,-2,-713,-445,111,296,391,451
237,115,-113,55,-523,-278,169,324,478,363
-175,-201,-363,149,407,348,133,73,165,-244
-154,-117,-225,170,715,547,91,138,138,-492
-150,-88,-44,202,768,417,-39,88,81,-428
-205,-170,-20,188,578,303,-70,-61,-72,-235
-234,-246,-73,90,212,140,-119,-187,-240,-141
-154,-181,-35,-30,-6,98,-51,-143,-233,-83
-31,-107,-19,-29,-22,146,76,6,-140,-62
57,-121,353,72,57,109,16,1,-154,-82
91,-233,447,140,169,85,46,58,-124,-71
37,-274,377,180,295,85,134,211,32,-44
49,40,173,32,-154,-169,61,149,3,-71
118,588,-216,-219,-845,-457,-114,-25,-167,-19
242,393,-349,-243,-560,-154,-174,-117,-186,503
216,0,-278,-115,317,223,-38,-89,-95,893
165,-46,-175,-33,627,261,90,-58,-18,861
193,73,-15,-40,280,153,131,14,67,644
85,55,8,-48,-17,16,66,101,120,234
-167,-45,-9,-10,-47,8,41,174,84,-122
-293,-51,57,51,81,29,12,83,-79,-586
-253,34,91,116,304,38,-76,-119,-266,-1192
-230,91,78,121,224,-2,-82,-117,-266,-1422
-141,104,75,70,65,-83,-117,-147,-198,-864
-145,-40,-21,-80,-95,-205,-253,-263,-210,-361
-118,-300,-242,-126,-86,-110,-166,-178,-119,43
30,-273,-242,-37,34,66,60,48,120,404
50,-56,93,1,-30,-5,12,36,129,249
50,73,215,4,-171,-121,-108,-11,63,-72
-15,24,156,-26,-350,-201,-152,-22,39,-93
-115,-229,71,-17,-246,-178,-137,-1,76,24
57,-364,-88,-30,102,39,-1,127,238,282
209,-245,-37,-3,160,153,116,142,284,368
236,73,29,-38,12,36,31,-7,181,288
313,437,-51,-167,-146,-85,-40,-96,118,276
230,409,156,-31,-249,-182,-2,-9,128,234
-38,402,704,136,-628,-430,-15,-39,6,-23
-511,21,753,87,-1060,-784,-353,-422,-404,-443
-1166,-1054,-186,-98,-476,-547,-610,-810,-888,-974
-1250,-1670,-869,-149,91,-91,-299,-531,-706,-875
-668,-1583,-668,152,-12,29,9,-10,-119,-297
100,-749,-344,31,-145,-64,-30,96,127,109
617,313,10,-205,31,-131,-58,122,226,291
549,568,432,-86,619,220,98,272,372,266
544,978,-14,-226,539,299,165,234,312,140
529,1105,-100,-330,-5,-78,7,85,147,111
191,274,290,-95,-81,-148,-59,46,103,137
-50,-448,175,-61,73,131,11,5,63,330
9,-289,-365,-184,74,239,89,-34,30,645
123,320,-486,-187,-114,168,188,82,108,732
130,584,-208,-212,-386,11,174,163,139,312
123,537,-46,-183,-381,-41,184,220,175,-12
300,286,138,76,-349,17,444,403,415,286
290,97,202,248,-306,-5,385,262,368,374
57,-44,79,197,223,250,103,40,154,126
-37,-43,-70,96,791,357,-93,39,94,-38
36,56,-47,120,729,392,58,166,107,-99
82,67,-61,109,165,117,117,171,92,-202
181,79,18,54,-303,-202,73,189,129,-186
155,15,100,12,-470,-284,63,159,69,0
76,11,322,66,-277,-158,82,90,-50,217
-131,-154,556,236,263,102,-20,-133,-336,-142
-304,-233,519,302,760,385,-75,-288,-478,-699
-186,-159,325,133,409,136,-88,-245,-346,-550
-96,-34,-193,-170,89,-41,-190,-273,-305,28
78,507,-495,-346,35,-33,-122,-161,-196,504
150,228,-473,-224,-72,37,71,21,-23,695
131,41,-206,-52,-389,-28,118,-8,24,378
163,172,41,-49,-792,-235,-39,-167,11,175
90,50,61,-124,-582,-280,-174,-262,30,465
-31,-221,0,-116,159,-88,-46,-69,192,910
-1,-292,212,30,581,177,181,211,367,895
-17,-172,350,240,623,286,168,230,301,82
-160,-35,180,283,524,231,89,46,10,-859
-277,117,-353,-27,-29,-126,-112,-101,-141,-1010
-300,-255,-709,-124,-232,-251,-133,-145,-143,-668
-300,-607,-633,-19,250,27,49,-89,-149,-544
-139,-37,25,18,510,159,73,-121,-247,-590
21,392,361,-59,207,90,52,-65,-226,-550
24,185,61,-119,-106,154,101,82,-46,-303
-66,-72,-102,-28,-95,84,96,176,110,60
-63,-55,-150,-31,32,30,89,161,118,191
97,155,-78,-199,-209,-161,-4,161,159,190
208,137,-29,-265,-347,-204,-98,121,201,216
170,-140,-88,-142,-209,-46,-118,12,87,211
180,-127,-174,14,-199,-63,-79,-31,2,185
78,32,100,57,-356,-189,-83,-54,-56,104
-22,70,156,33,-169,-178,-158,-54,-96,43
-22,-33,28,127,234,15,-50,114,34,90
-42,29,86,303,342,139,74,120,78,-41
-21,116,93,369,299,214,178,95,30,-360
41,152,10,243,238,215,192,34,-28,-324
82,100,-10,114,146,149,173,-35,-48,-42
8,45,-129,82,31,-32,114,-11,-16,-84
-329,-222,-253,29,-298,-395,-277,-225,-252,-589
-910,-951,-509,62,-682,-767,-737,-577,-612,-1033
-976,-1432,-532,-53,-795,-525,-500,-471,-494,-769
-448,-1008,0,-181,-343,-141,-34,-108,-91,-45
189,216,709,-123,352,158,226,61,123,485
542,1259,337,-414,211,111,150,51,114,496
426,1092,-195,-510,25,126,69,88,153,340
176,530,115,-241,-13,67,-4,-11,99,255
146,270,373,34,47,75,91,64,168,304
224,260,314,169,-6,34,161,171,257,309
267,-10,145,127,-190,-131,61,115,218,319
253,-513,-9,104,-60,-50,64,96,228,422
110,-532,-98,131,222,134,15,-57,70,247
-71,-119,-162,132,-161,-114,-206,-251,-105,22
-137,79,-360,-54,-783,-466,-265,-232,-83,-145
-223,-297,-190,-145,-655,-384,-80,-81,-24,-307
-160,-496,278,-25,366,241,196,71,4,-117
71,-75,448,29,960,635,218,7,-23,263
371,587,-11,-104,493,390,126,33,73,419
344,815,-202,-125,-17,11,110,295,297,416
186,461,-76,84,-69,-24,226,375,317,429
210,267,139,196,-319,-137,238,235,223,600
288,288,226,113,-987,-327,229,218,173,601
-54,60,137,120,-659,-188,9,-50,-167,-120
-498,-314,-22,226,729,432,-116,-252,-409,-657
-447,-353,-39,198,1094,399,-70,-130,-245,-458
-103,-202,-82,66,633,405,90,-117,-71,-215
97,0,106,100,260,442,238,-210,-84,-195
25,72,158,127,265,354,360,-16,-16,-357
31,149,31,32,242,55,299,444,294,-344
-37,13,4,67,480,-12,-81,234,102,-326
-89,-112,-225,-47,523,82,-294,0,-110,-126
-68,-32,-209,-89,201,3,-308,-184,-271,-16
-119,-176,-179,-65,14,-68,-191,-148,-258,-101
-227,-330,-267,-138,-27,-65,-80,-10,-125,-180
-219,-213,-123,-157,7,-18,-38,48,-31,-165
-58,95,252,-136,-46,-77,-120,-28,-20,-75
37,242,331,-193,-205,-184,-170,-110,-25,3
-5,191,193,-152,-247,-214,-231,-187,-82,37
-62,56,206,36,-179,-159,-192,-169,-72,105
85,-119,594,123,-346,-150,-40,21,153,363
187,-382,848,192,-215,-25,116,156,283,482
131,-335,647,303,421,353,304,222,246,333
-44,131,-75,107,368,313,222,38,-28,-124
73,637,-755,-177,-25,53,-26,-217,-292,-406
222,279,-727,-165,-69,12,-15,-179,-223,-253
203,-132,-384,-89,0,83,113,39,34,22
176,-82,-125,-74,-132,76,150,175,176,222
159,136,-78,-119,-379,-48,96,167,173,275
4,-1,-84,-53,-236,-56,9,44,60,132
-33,-59,-60,64,155,57,53,24,48,90
126,62,45,142,376,98,118,111,163,182
33,6,120,128,255,23,63,71,141,119
-159,88,172,-20,-52,-160,-64,-46,5,-20
-97,477,-13,-231,-184,-202,-176,-200,-160,-201
-33,240,-40,-234,-163,-79,-136,-209,-185,-307
-92,-195,78,-27,-115,-63,-21,-83,-103,-306
-115,-291,-172,48,-106,-122,-40,-39,-36,-135
-44,-279,-286,71,71,-147,-123,-47,9,103
44,-196,-179,178,257,-11,-54,-32,92,213
-42,-197,-77,198,83,26,0,-39,111,202
-52,-189,-288,69,-114,-51,-13,-31,107,457
104,-84,-301,-16,-98,-25,40,31,147,760
231,14,37,5,-48,79,130,59,132,647
289,155,271,-3,0,197,214,99,107,273
271,231,113,-30,2,171,172,142,94,186
197,155,92,-23,-18,60,42,0,-18,134
158,54,41,-85,-69,78,90,-129,-175,6
63,9,1,-98,-63,149,168,-87,-196,-155
-49,-7,32,-35,5,94,52,-83,-174,-253
-32,39,11,-86,-133,-208,-183,103,25,-143
-41,80,39,-79,-189,-262,-166,278,177,29
-40,75,95,95,93,161,95,271,148,102
18,42,194,279,151,239,187,220,92,-99
-65,0,198,299,-70,-9,15,20,-139,-550
-207,-130,31,191,-312,-295,-262,-282,-443,-892
-322,-371,-239,-4,-204,-275,-296,-363,-517,-765
-190,-432,-217,4,265,61,-29,-124,-225,-332
-1,-156,241,194,492,215,114,0,-25,-103
94,193,310,195,369,156,99,7,-20,-89
73,264,-37,129,206,79,60,2,-36,-82
-114,-74,-182,114,27,-63,-83,-135,-139,-34
-168,-298,-324,1,-75,-116,-90,-154,-134,145
27,-120,-12,-134,-296,-244,-59,-66,-10,390
269,53,294,-210,-513,-275,-97,-20,77,391
287,4,-35,-215,-231,83,8,16,110,127
207,30,-79,-152,-56,89,189,160,226,-87
186,397,74,-158,-235,55,314,239,287,-79
88,357,75,-164,-339,158,296,109,161,-74
-150,109,25,-100,-63,177,229,28,88,-84
-250,19,27,-16,403,241,102,19,101,-117
-153,-19,18,-31,316,132,32,115,205,31
-94,-81,-54,-87,-143,-176,-32,159,270,117
-87,-76,-50,-47,-209,-238,-128,4,95,34
-40,7,84,6,73,-84,-106,-93,-19,55
10,28,-8,-1,349,147,-37,-113,-25,180
49,42,-144,-17,237,160,23,-107,-21,254
32,67,-112,12,55,31,56,-39,14,303
55,117,8,59,-101,-142,48,63,123,428
97,119,132,100,-165,-240,-26,25,112,399
66,12,184,168,-167,-148,-97,-21,80,156
1,-154,220,113,-486,-157,-21,70,111,-77
-117,-302,55,-36,-475,-112,20,95,84,-130
-280,-257,-225,-115,204,-28,-161,-170,-154,-83
-201,198,-223,-138,446,5,-197,-239,-222,213
-90,95,-52,-55,184,30,-132,-152,-188,267
-52,-120,-36,20,64,54,-77,-72,-129,36
15,-101,-15,14,-171,-46,-84,-68,-135,-131
-8,0,20,-26,-307,-141,-143,-84,-174,-290
-24,146,24,-36,-133,-62,-78,-44,-141,-282
-4,122,69,-29,37,108,85,50,-32,-76
-84,-83,219,29,361,205,28,-15,-74,-226
-118,-240,159,119,321,108,52,109,42,-453
-150,85,77,57,-154,-170,-148,-55,-99,-625
-111,468,-47,36,-334,-215,-300,-265,-272,-646
19,403,70,85,-407,-132,-64,-54,-81,-340
-42,112,110,-72,-424,-195,-28,-14,-86,-259
-88,-220,-105,-43,278,173,60,17,-99,-63
15,-277,-291,21,748,385,155,83,7,281
141,-100,-188,6,455,175,86,92,92,431
93,-114,-7,31,0,-29,37,65,115,352
-32,-182,-93,-50,-322,-65,43,-15,61,105
-118,-60,-209,-133,-276,-161,-119,-247,-129,-95
-194,15,-22,-154,44,-68,-192,-271,-143,-99
-128,131,166,-251,83,17,-174,-83,-17,-9
20,-1,396,-178,-9,-89,-129,37,136,162
165,-264,344,25,56,-39,40,120,263,319
159,-513,190,162,135,81,176,133,231,222
-18,-370,-117,157,250,207,149,40,100,40
-48,363,-348,46,105,115,53,35,79,-86
61,539,-18,12,-196,-150,-116,-118,-49,-271
-58,35,323,93,-409,-356,-198,-185,-121,-235
-278,-404,285,143,-373,-433,-267,-213,-134,74
-425,-277,23,55,-354,-401,-395,-333,-232,412
-378,5,-460,0,-187,-227,-419,-402,-291,502
-432,-429,-652,92,-57,-23,-219,-314,-344,-72
-498,-815,-738,-7,-112,41,-10,-241,-461,-983
-179,-649,-624,-117,28,243,251,-67,-338,-1060
288,-34,173,-5,242,310,363,194,-41,-366
704,768,564,-3,1,-26,256,511,330,270
807,1010,48,-209,-615,-295,285,699,593,583
330,372,-206,-131,-136,117,169,249,224,240
81,56,-53,105,797,646,119,-138,-161,-38
150,152,150,216,835,392,134,1,-59,133
115,134,180,196,659,103,10,204,106,366
81,102,146,161,476,137,45,209,128,234
78,163,111,94,229,149,100,189,61,-171
110,208,128,75,118,87,112,171,34,-264
106,158,150,143,100,62,113,133,19,-119
75,103,79,151,-11,41,96,93,-16,-167
64,56,32,55,-113,49,92,93,4,-200
55,80,55,-52,-139,-35,16,70,56,-73
30,88,64,-95,-62,-122,-51,69,86,281
-7,23,65,-107,-304,-141,23,119,82,428
-92,-79,24,-98,-656,-205,29,47,13,131
-219,-220,-98,-89,-675,-211,-126,-115,-92,-284
-470,-500,-336,-20,-314,-363,-394,-380,-323,-342
-604,-791,-485,-76,4,-353,-445,-424,-370,-200
-347,-705,-291,-217,18,-200,-232,-147,-98,-7
89,-199,436,-110,180,0,-50,-20,76,214
377,675,766,5,350,233,65,-5,90,384
505,932,101,-36,237,325,221,128,159,511
390,271,-248,-58,-173,76,184,121,134,245
306,45,-250,-40,-375,13,159,179,191,129
84,28,-53,47,-58,100,56,158,174,7
-101,18,45,151,379,123,22,79,91,-224
-85,24,60,137,412,131,83,99,76,-405
29,65,75,90,117,48,98,112,137,-170
0,-1,-4,87,219,204,125,95,146,57
44,30,11,33,84,129,190,189,216,200
48,11,55,-16,-324,-65,97,157,196,187
-97,-128,4,10,-351,-52,-82,-48,32,-9
-160,-167,-36,84,113,123,-43,-90,-41,-144
-19,-13,29,110,490,260,92,-8,-24,-2
147,233,65,-8,315,168,44,-78,-116,51
159,150,59,-48,170,137,23,-104,-153,-113
77,-32,15,-78,97,89,32,-32,-44,9
69,-34,-121,-148,-115,-97,-19,-9,40,222
181,183,-139,-232,-283,-255,-108,-71,34,404
304,255,-151,-355,-393,-349,-179,-119,23,809
269,109,-149,-313,-257,-183,-90,-24,92,1232
93,-15,75,-69,70,189,112,109,90,776
-41,14,336,107,220,281,254,229,73,-396
-47,51,381,147,164,157,161,165,23,-1216
-148,142,412,158,-23,-94,-30,-54,-89,-1035
-337,-75,305,165,-266,-284,-101,-168,-152,-571
-499,-495,32,182,-260,-139,-147,-223,-188,-512
-443,-975,-64,237,-133,29,-17,-48,23,-338
-272,-764,-42,81,-107,-98,-33,4,130,-66
-29,-55,-318,-130,80,-69,-38,97,250,216
102,275,-395,-172,101,-56,-80,58,180,307
49,206,-393,-155,43,28,-63,-59,-50,212
-149,-64,-335,-113,-60,8,-30,-106,-266,-127
-204,-34,-156,-108,-135,-80,-90,-165,-418,-457
4,259,215,0,-68,-70,-102,-169,-341,-364
137,318,390,209,70,35,0,-8,-152,-125
235,314,88,205,171,147,133,165,20,23
203,202,56,98,156,159,142,139,24,52
152,110,83,32,58,80,73,106,21,146
175,95,-2,-8,-20,26,33,90,17,165
78,11,-48,-2,-46,-4,1,13,-51,7
19,-37,-53,-36,-195,-103,-7,-18,-32,69
27,6,-15,-68,-323,-200,-49,-36,25,210
-154,5,-43,-127,-187,-187,-205,-185,-71,89
-413,1,88,-174,-403,-385,-343,-209,-96,-18
-452,-86,327,-159,-595,-606,-386,-161,-31,176
-178,-280,511,-62,-499,-407,-179,-7,153,483
-4,-392,590,162,-381,-207,0,93,192,431
61,-312,81,211,220,166,18,-51,16,169
-29,-131,-679,36,692,471,129,-37,-32,-54
-87,0,-630,43,772,497,276,92,11,-271
80,-62,-88,215,614,444,356,247,82,-436
239,368,309,240,197,127,205,168,10,-519
299,617,170,137,-340,-149,70,93,-5,-383
147,309,161,77,-891,-374,-40,58,23,-326
-233,-190,-77,11,-533,-211,-151,-151,-172,-498
-377,-461,-327,-29,439,87,-124,-206,-211,-374
-214,-378,-321,-59,699,250,56,-21,15,163
88,-61,-278,-145,254,192,170,146,256,603
310,202,-250,-208,-12,95,248,284,421,524
275,263,134,-97,-53,19,205,241,359,126
145,250,371,39,-199,-77,122,121,188,-108
19,41,427,24,-254,-44,24,-39,-18,-178
-81,-159,327,26,30,35,-69,-173,-173,-218
-72,-183,146,132,494,110,-60,-69,-77,-66
-27,59,-192,105,480,40,-46,-61,-30,247
-11,-2,-606,-92,28,-102,-69,-105,-25,664
105,-208,-563,-242,-93,52,-26,-58,58,955
328,-26,-99,-231,-168,125,70,128,287,1018
258,88,419,-125,-216,-57,-13,32,224,774
192,200,273,-121,-45,14,10,-52,84,487
89,158,46,-20,92,297,200,-40,-24,193
-76,43,67,124,-94,96,136,-136,-264,-219
-16,301,174,131,-561,-439,-21,-20,-210,-504
-38,220,137,32,-840,-593,4,291,50,-623
-194,-118,-51,-20,-531,-177,57,294,29,-559
-459,-511,-263,89,416,384,-156,-105,-299,-700
-456,-601,-341,41,642,293,-185,-221,-340,-771
-392,-378,-253,-99,407,43,-244,-301,-389,-956
-173,-99,-81,-202,216,3,-166,-220,-311,-825
20,75,-17,-237,154,94,35,36,-78,-370
67,113,3,-186,157,191,175,247,132,0
150,125,-222,-106,147,174,156,214,197,277
160,133,-145,-19,102,76,34,-23,45,369
215,171,180,86,126,69,-19,-167,-92,348
290,225,286,165,125,24,-17,-6,61,367
265,217,212,166,74,-58,-23,113,188,315
209,284,216,155,67,-12,12,65,161,139
135,336,150,121,49,-3,-12,40,136,68
-8,253,96,55,-17,-45,-58,-51,34,53
-127,40,66,-26,-124,-20,-13,-107,-60,-90
-80,-103,4,28,-163,52,121,-15,-28,-73
-25,-163,-32,118,76,92,132,27,12,84
16,-276,61,157,178,99,118,101,89,258
74,-355,246,116,-207,-86,149,268,256,370
-7,-179,142,57,-303,-183,112,246,259,195
-235,111,-33,-33,31,-86,-90,1,25,-217
-357,-56,-155,-79,190,-24,-240,-231,-191,-401
-215,41,-294,-153,81,8,-192,-187,-117,-260
75,302,-71,-154,-1,56,12,68,158,38
249,289,83,-142,-38,52,118,187,270,253
336,300,33,-154,-197,-102,4,40,138,366
182,124,-2,-114,-459,-237,-56,-23,37,257
60,28,-3,-65,-771,-407,-61,13,-7,87
-37,-61,65,10,-430,-255,-135,-121,-110,119
-54,-156,113,54,239,201,-48,-138,-1,490
31,-161,130,31,568,416,150,72,266,722
23,-134,-19,28,609,451,249,243,361,299
-64,72,-145,82,464,377,252,307,347,-356
-169,-103,9,160,180,89,67,254,274,-688
-249,-261,173,238,-110,-149,-145,108,87,-627
-253,-229,33,112,-435,-245,-205,-81,-114,-328
-183,-45,-33,-125,-545,-311,-234,-241,-351,-174
-99,28,55,-199,-26,-234,-239,-269,-454,-117
5,153,-91,-398,29,-322,-348,-232,-392,-50
-151,-187,-115,-443,-433,-546,-450,-332,-458,-210
-124,-458,157,-243,-444,-332,-210,-191,-334,-187
44,-111,254,-90,-453,-110,125,2,-171,-105
20,200,242,162,-172,135,297,-46,-204,-252
33,46,147,469,701,535,372,-69,-192,-97
-112,-85,8,470,965,487,50,-206,-359,141
-367,-635,-501,200,318,-105,-475,-355,-548,139
-171,-715,-908,-40,-143,-351,-433,-220,-363,352
112,-71,-540,-229,-158,-216,-210,-44,-87,592
302,517,269,-299,-44,-59,-147,-183,-126,396
475,764,179,-313,89,236,148,29,62,141
338,467,-118,-234,118,273,378,332,290,-246
89,12,-23,-72,-60,19,316,472,378,-298
-33,-82,80,71,-46,46,153,444,356,-95
-100,-61,190,148,215,304,116,276,220,-190
-169,-239,319,290,298,281,158,224,155,-461
-118,-105,241,359,-65,100,144,146,65,-672
72,311,-76,303,-361,-75,41,46,9,-516
84,393,-112,176,-202,-33,-60,-63,-20,-268
40,271,-39,19,86,3,-170,-166,-47,-104
16,121,109,23,471,135,-24,-18,102,77
75,262,223,24,444,165,81,45,168,110
58,454,132,-45,0,-63,14,2,88,19
-89,277,11,-143,-374,-332,-140,-87,-13,-59
-75,-84,-73,-196,-469,-358,-127,-107,12,93
121,-388,-90,-120,-541,-256,152,164,242,340
10,-478,-109,22,-13,39,116,115,100,98
-51,-337,-214,119,671,527,163,115,-8,-53
57,-31,-127,166,661,457,173,106,5,39
111,301,1,100,602,284,44,-81,-115,54
132,137,-91,27,396,153,75,-63,-83,113
95,-55,-265,-92,5,-44,51,-16,-17,79
68,-134,-274,-179,-298,-188,-72,-80,-16,147
136,-39,-114,-165,-357,-182,-98,-67,88,517
193,73,12,-80,-275,-61,59,54,189,790
142,69,102,49,76,123,37,11,113,725
88,-12,158,182,244,215,45,38,82,458
-71,-119,142,300,14,116,130,59,-23,-158
-229,-156,123,253,-341,-77,114,37,-118,-678
-131,-173,-50,73,-446,-195,61,121,-15,-489
-3,-183,-152,17,-95,-13,66,117,45,-163
-3,-93,34,105,177,198,51,62,-14,-112
179,123,39,32,-52,88,-38,98,54,23
226,213,67,41,134,85,-41,38,70,89
153,230,166,96,595,196,24,70,91,71
-5,61,43,35,402,76,-47,54,47,9
-8,90,-138,-93,-185,-264,-199,39,76,83
126,154,-34,-136,-489,-413,-196,61,135,256
46,39,-20,-130,-441,-386,-196,-21,62,137
-130,-65,-65,-77,-54,-48,-167,-125,-42,-3
-179,-126,-86,-45,158,120,-92,-108,-42,68
-211,-284,-193,-5,248,3,-105,-120,-47,318
-368,-524,-14,123,107,-145,-225,-221,-93,371
-716,-965,-152,153,-227,-385,-415,-437,-268,-116
-824,-1102,-321,32,-246,-308,-304,-368,-209,-459
-444,-434,-138,-144,-100,-79,-45,-118,-31,-356
70,359,194,-301,-128,-72,-32,-106,-76,-261
578,789,250,-386,-133,-35,22,-32,-15,72
745,751,-209,-269,22,205,330,291,181,491
513,473,25,-69,-168,44,336,314,107,349
211,167,115,42,-324,-208,145,96,-127,-45
-202,-368,2,117,-12,-114,-126,-271,-499,-447
-381,-666,57,139,-47,-57,-210,-397,-582,-476
-506,-712,230,57,-83,29,-183,-383,-522,-555
-354,-156,195,-94,115,36,-145,-222,-303,-469
169,470,311,-152,279,68,29,46,49,-68
345,725,772,-122,120,56,85,82,131,-18
194,665,685,-142,33,111,81,57,110,-136
141,401,-105,-269,-106,120,196,151,234,177
28,-15,-691,-123,-20,201,284,188,230,354
95,-35,-561,-21,-109,103,156,116,188,280
259,209,-126,56,-115,71,112,140,276,436
245,159,265,250,173,205,181,214,289,475
61,-13,330,341,472,256,174,146,137,201
-20,-75,298,270,324,171,108,78,42,25
-59,-30,-34,38,-107,-77,5,72,34,59
-100,-42,-269,-83,-273,-114,39,46,3,-103
-101,-313,-88,-42,-120,107,206,134,3,-425
1,-68,148,-12,54,161,210,173,34,-278
79,439,156,-20,-130,-108,-3,-7,-65,-174
57,532,-187,-99,-138,-246,-107,-124,-145,-238
-89,274,-270,38,250,72,-14,-115,-134,-287
-168,160,-29,117,442,405,156,-80,-80,-269
-64,-16,-41,-102,229,324,170,-46,-5,-28
3,-146,-81,-210,6,126,101,-59,-36,296
71,-261,13,-85,-40,-86,-98,-77,-67,474
184,-240,-51,119,40,-99,-135,-32,29,740
138,-274,-54,216,-79,-251,-169,123,173,944
-54,-368,29,331,-122,-260,-149,90,112,621
-264,-207,-86,281,207,5,-23,19,-26,-301
-335,-66,-101,205,525,252,129,74,-55,-1052
-213,-35,-48,98,467,289,180,121,5,-820
49,180,-93,-8,384,233,161,105,33,-221
222,283,61,-42,236,123,114,72,27,4
151,174,57,-135,-48,31,102,64,38,48
50,76,-74,-190,-277,-82,16,-93,-36,-5
2,59,19,-114,-239,-95,-67,-256,-173,-118
2,-7,-46,-14,-81,106,29,-72,-70,-52
34,-18,-8,97,-226,-32,81,232,178,49
76,102,191,210,-490,-197,-50,68,122,-12
145,153,140,92,-510,-181,-70,-17,100,42
122,105,-97,-125,-145,-219,-174,-39,85,81
-119,-46,-198,-198,222,-177,-313,-212,-65,8
-161,-91,-5,-159,41,-109,-231,-182,-30,261
-140,-251,174,-12,-250,-81,-82,-29,79,534
-228,-440,66,78,-564,-179,-116,-89,-31,243
-334,-499,-318,5,-778,-407,-275,-291,-233,-306
-447,-589,-13,151,-71,-271,-344,-415,-366,-581
-141,-363,187,77,475,-99,-281,-316,-235,-317
151,39,35,-138,290,21,-62,-27,76,0
157,368,70,-176,157,170,147,161,224,-10
208,495,31,-157,85,138,196,205,262,60
288,411,-260,-193,-21,45,208,244,349,302
60,-14,-366,-56,-220,-89,61,108,233,343
-198,-284,-219,61,-371,-136,-66,-47,36,144
-37,-131,42,47,-125,-32,38,36,69,143
233,128,396,117,384,165,95,63,57,171
336,308,526,106,451,236,106,103,24,244
318,282,105,38,310,186,212,236,73,308
305,330,-157,-22,47,15,265,236,32,44
214,266,-30,-4,-134,-142,175,97,-56,-277
72,97,28,34,-30,-5,37,-84,-178,-308
-11,-24,-50,62,300,427,108,-161,-226,-150
-46,-66,-53,121,552,699,258,-167,-221,-123
-63,-57,-23,143,546,620,326,-88,-182,-218
-37,1,23,127,398,322,196,-14,-102,-83
15,6,66,72,135,-70,-57,234,152,121
-94,-49,205,105,-39,-246,-245,191,100,13
-421,-251,249,136,-242,-415,-435,-121,-191,-377
-601,-440,42,18,-355,-458,-490,-358,-374,-624
-422,-242,-189,-250,-363,-445,-428,-336,-291,-510
46,-35,-32,-242,-207,-260,-223,-152,-51,39
273,1,-57,-64,-16,33,63,64,170,608
38,-81,-324,-67,-50,110,112,26,105,435
-190,-256,-168,-23,-32,142,132,5,46,-75
-170,-11,211,-4,-15,74,77,-7,10,-426
14,363,404,-65,-97,-44,-23,-66,-6,-322
136,281,195,-67,-116,-73,-40,-1,102,-182
-58,35,-209,-72,-158,-145,-85,-62,46,-260
-51,-230,-209,-42,-115,7,113,74,138,-10
159,-217,88,-5,-216,163,344,203,279,328
352,65,346,-13,-523,79,319,138,260,536
372,258,214,-60,-617,-203,50,-38,174,677
41,216,-291,-68,95,-292,-364,-255,-19,638
43,169,-329,-46,228,-198,-269,-16,148,713
107,-127,55,19,57,-19,-4,142,212,490
82,-231,279,114,154,171,81,54,75,367
20,-2,116,179,125,-14,-39,-80,-69,97
-275,148,-274,258,-124,-339,-276,-275,-348,-721
-769,-642,-823,224,-18,-281,-425,-455,-598,-1427
-779,-997,-1025,-36,121,-22,-264,-316,-441,-1216
-127,-218,-69,-223,-209,-66,-80,-29,-20,-414
357,663,1071,-185,-244,-132,-41,68,230,130
472,872,485,-236,140,9,76,166,342,348
231,362,17,-130,87,-48,102,199,255,245
-229,-49,59,10,-756,-431,-317,-282,-283,-278
-522,-247,-18,-79,-1604,-699,-579,-548,-543,-508
-420,-275,-329,-152,-926,-543,-462,-482,-474,-402
-196,-201,-203,86,1069,384,64,-104,-142,-146
0,55,314,136,1374,669,271,99,18,-8
370,301,158,-15,331,197,224,217,181,182
435,366,69,-24,9,122,200,196,212,225
289,295,155,7,435,384,268,169,190,181
167,350,147,19,547,323,250,100,138,101
127,284,129,120,405,177,115,16,58,57
104,-63,31,210,354,253,140,118,112,140
202,-91,-143,138,259,232,197,260,213,329
275,67,-119,9,54,-6,164,260,253,479
244,132,-56,-88,-1,-13,109,186,216,473
118,70,-69,-53,206,206,7,61,59,236
41,17,30,26,366,388,-3,0,-44,61
-18,-48,212,88,201,148,-49,-75,-111,-21
-159,-206,227,98,-58,-121,-164,-149,-168,-136
-377,-538,-65,-16,-280,-278,-245,-211,-267,-370
-504,-859,-585,-181,-405,-355,-301,-247,-278,-389
-243,-702,-578,-154,-240,-156,-69,-7,20,-53
118,-221,-68,-150,-150,-3,103,187,278,308
383,296,305,-79,-167,36,193,284,441,595
443,571,234,150,-56,82,188,268,470,757
230,304,118,227,11,49,116,110,325,641
59,8,-21,54,-286,-153,81,114,273,452
-9,-62,-180,-72,-348,-300,-13,53,142,383
69,-19,-97,-59,48,-106,-49,9,77,586
214,167,59,-62,267,209,64,107,97,611
216,284,75,-7,305,456,242,206,93,209
141,300,98,76,112,370,325,265,88,-186
113,372,199,110,-117,132,262,234,-4,-528
0,251,183,157,85,104,121,97,-193,-992
-80,61,50,116,117,45,29,32,-224,-1003
-174,-125,-88,65,-42,-127,-85,-62,-242,-701
-336,-309,-124,153,309,97,-67,-184,-342,-693
-260,-272,2,94,407,331,127,-63,-215,-557
-87,-56,248,69,240,225,137,13,-49,-129
95,236,159,-4,-27,-18,21,23,7,290
234,321,-223,-181,-220,-157,20,73,68,529
131,116,-199,-126,-15,-100,58,0,21,398
24,51,-9,-7,-93,-94,48,-79,-46,50
-16,39,59,21,-351,-63,-57,-90,-37,-110
-103,-44,28,37,-172,1,-141,-67,-44,-147
-120,-143,-10,-16,102,6,-109,-20,7,-28
-108,-217,-85,-14,-19,-112,-128,-100,-10,172
-78,-292,-270,-8,-208,-143,-125,-161,-35,249
83,-208,-292,-146,-357,-238,-153,-70,45,472
195,-18,-15,-170,-20,-245,-139,-5,140,724
246,226,284,-42,506,122,65,113,217,463
193,417,440,92,383,228,158,148,148,-261
84,340,242,109,55,51,104,93,91,-504
43,295,197,11,-245,-101,77,95,160,-210
-150,90,31,-65,-238,-173,-64,-92,4,-87
-356,-179,-215,-146,-114,-71,-149,-247,-206,-253
-222,-184,-127,-86,-467,-266,-91,-130,-118,-236
-32,33,324,-53,-1426,-918,-221,-90,-32,-133
-321,-244,363,-81,-2040,-1367,-573,-354,-275,-269
-900,-1208,-521,-21,-291,-397,-603,-575,-531,-487
-838,-1579,-764,218,1734,851,-109,-267,-284,-316
-225,-654,89,189,1319,716,267,90,87,-43
387,470,476,-24,442,451,482,349,338,185
641,1186,155,-125,133,481,511,390,360,217
571,1115,62,-108,86,402,304,233,153,115
362,742,179,-74,-116,72,32,-49,-175,-91
30,241,32,-100,87,33,-218,-265,-400,-294
-4,-34,-2,-128,201,32,-234,-105,-212,-152
-48,-103,1,-60,286,94,-197,-140,-197,-213
-208,-374,386,125,191,0,-192,-149,-206,-410
-297,-804,447,300,-65,-102,-167,-78,-119,-316
-539,-1138,-220,195,-78,-190,-286,-209,-234,-342
-621,-477,-890,-97,72,-197,-338,-313,-337,-354
-277,218,-712,-147,258,-1,-88,-89,-126,-130
139,445,-31,-138,117,60,92,94,22,58
434,583,-34,-122,-15,50,126,118,74,245
356,302,6,101,-39,45,127,120,109,416
90,-13,183,235,-341,-160,22,-20,1,267
-170,-375,440,391,-388,-265,-107,-216,-229,19
-228,-540,328,326,208,22,-125,-303,-364,57
87,-260,382,205,365,174,115,18,0,308
168,320,353,-20,-340,-119,136,266,193,-102
227,857,-218,-386,-957,-170,227,424,284,-400
365,757,-203,-366,-696,55,274,453,403,80
109,285,117,-115,396,271,33,97,147,124
-1,63,-63,-109,919,386,-7,-1,78,220
135,-59,-372,-252,486,198,-41,0,96,418
325,-245,-392,-255,95,67,-3,86,190,592
222,-244,-78,-56,29,65,49,126,243,631
85,-95,64,163,19,44,88,92,204,648
83,207,-154,230,-257,-94,57,51,193,515
46,168,-183,221,-642,-240,81,102,245,203
-25,2,77,78,-733,-304,98,193,323,23
-95,-113,258,-15,-136,-128,-74,23,139,-119
-102,-217,29,-17,598,188,-107,-96,-54,-383
-177,-200,-347,-24,855,311,30,-10,-90,-650
-235,-189,-455,-47,669,327,149,110,-33,-623
-81,-133,-251,-34,409,324,155,68,-14,-585
104,3,240,46,241,248,156,44,24,-322
172,364,341,12,-73,30,122,65,-16,-121
245,573,236,66,-273,-110,93,74,-72,-188
137,286,173,227,-96,-5,11,-68,-162,-281
17,12,53,231,228,270,34,-175,-177,-147
65,37,53,100,33,169,131,-61,-41,62
171,187,86,-45,-358,-117,171,114,150,222
200,237,122,-115,-616,-311,96,186,251,301
8,49,68,-105,-406,-339,-164,-4,68,144
-333,-300,-104,-86,-109,-278,-450,-417,-354,-203
-597,-507,-245,-142,-144,-382,-586,-611,-567,-443
-599,-623,-350,-274,-238,-416,-539,-452,-417,-378
-409,-700,-44,-149,-168,-211,-335,-234,-144,-172
-36,-396,146,118,-297,-224,-92,41,162,161
228,24,-224,86,-191,-237,120,239,325,398
452,255,-95,-82,-100,-205,178,312,399,589
420,254,73,-66,210,199,108,158,248,607
333,277,34,37,395,475,200,136,180,554
148,198,56,77,-13,209,220,135,124,402
-150,-11,-40,-33,-95,81,81,-6,-76,166
-159,-9,44,-24,117,119,-8,0,-147,-19
55,84,307,24,-25,76,63,132,-3,-58
140,6,356,92,105,146,100,107,46,51
1,-72,290,98,527,199,19,-65,-96,-31
-128,98,-52,-47,365,52,-59,-191,-210,-183
-259,223,-408,-149,52,-89,-94,-137,-228,-338
-407,-282,-444,-124,-202,-228,-159,-113,-288,-475
-534,-683,-436,-121,-381,-229,-169,-189,-398,-598
-328,-559,-212,-42,-135,-9,52,-2,-189,-395
80,106,417,106,349,210,189,122,43,-81
438,607,469,141,363,250,236,160,218,431
517,620,79,87,220,246,248,91,200,773
287,250,32,11,153,216,218,63,139,648
141,-59,-21,28,223,251,168,103,154,532
195,-54,2,107,0,-14,-11,135,228,728
161,82,55,186,-395,-307,-97,190,249,752
39,33,81,195,-494,-275,-52,138,154,467
-131,-118,-53,133,-24,-77,-29,37,23,-331
-276,-79,15,215,405,143,66,25,-100,-1357
-193,117,142,203,192,177,172,96,-120,-1553
-49,228,185,107,-87,18,148,38,-144,-1041
-85,63,411,26,-160,-40,37,-151,-221,-416
59,-38,352,-86,-363,-15,67,-92,-118,60
-137,-393,98,86,-86,59,-33,-158,-196,-132
-407,-646,-142,195,186,-2,-100,-65,-198,-511
-382,-254,-598,-19,150,-100,-94,44,-82,-423
-11,-66,-360,-107,183,-38,-9,192,174,181
153,-94,96,-140,409,129,-35,21,92,219
243,-51,47,-102,465,206,84,92,140,164
251,341,-170,-145,234,120,99,130,145,208
316,740,-114,-233,33,-91,-62,-17,42,250
305,485,224,-85,163,-114,-83,-25,62,392
317,187,316,-24,188,-58,-6,89,158,549
183,93,98,-96,-193,-175,-46,53,86,342
-233,68,-503,-256,-689,-532,-284,-178,-216,-272
-525,-345,-821,-274,-384,-369,-248,-211,-300,-587
-288,-353,-579,-270,193,185,76,76,22,-312
63,248,173,-275,30,208,122,172,159,-74
85,534,540,-152,-361,-175,-101,-53,-37,-97
-32,268,396,138,-369,-204,-74,-138,-130,-98
-98,-135,181,341,-347,-86,44,-109,-117,-31
10,4,174,227,-190,128,110,-30,2,156
35,255,268,-38,-1,155,78,72,98,281
-65,-27,129,-95,166,74,-46,-12,0,55
77,-218,-312,54,34,-45,-47,-41,-18,-58
-1,-223,-377,134,-51,-88,40,14,11,83
-89,-220,-248,6,-46,-117,97,104,31,205
-119,-195,-77,20,82,56,40,91,48,106
6,-84,-58,26,51,199,44,76,142,183
219,136,-111,-26,-214,142,118,129,306,440
161,114,78,-8,-678,-283,3,67,260,430
-43,-1,-19,-155,-667,-587,-254,-79,127,394
-226,-151,-94,-188,-16,-219,-290,-167,41,325
-169,-131,56,6,385,151,-95,-74,41,278
2,148,-12,88,439,173,24,20,65,204
125,192,-147,-12,160,-7,0,-7,18,-12
170,109,-158,-87,-218,-301,-74,-63,-77,-266
-19,-192,-172,-17,-15,-180,-47,-43,-162,-451
-325,-612,-218,78,415,343,150,48,-155,-449
-250,-647,-232,117,498,542,326,219,30,-117
-22,-203,161,121,362,367,196,146,29,68
274,318,406,81,228,179,79,88,93,319
495,509,64,-26,166,137,114,165,258,816
505,421,-40,-64,100,118,120,189,317,1178
459,418,46,-46,11,22,28,91,213,1020
292,272,73,-23,-6,-20,-15,29,106,628
107,240,157,14,-3,-18,-58,-100,-39,306
-206,133,202,102,-55,-15,-104,-330,-373,-368
-614,-352,252,204,-293,-134,-102,-477,-732,-1547
-604,-830,184,160,-641,-306,12,-222,-616,-2040
-417,-719,333,148,-575,-479,-122,-40,-378,-1541
-191,-204,425,241,-16,-252,-163,18,-172,-767
70,334,-298,39,-252,-138,23,185,98,-11
102,184,-570,-305,-550,-165,-10,152,94,124
-62,-323,-331,-223,489,252,-93,-89,-135,-94
89,-295,-28,10,1216,603,176,-19,-36,46
173,4,182,120,750,547,374,76,56,164
237,467,-55,-18,222,226,203,-32,-38,245
257,330,-117,-44,134,72,74,27,49,399
111,48,-192,-78,-36,-110,-50,136,129,312
25,8,-351,-67,-309,-208,-76,88,86,88
-9,-38,-161,7,-479,-253,-61,104,99,-72
-93,-5,188,220,-263,-101,9,88,62,-233
-224,212,457,300,-428,-232,-204,-190,-174,-456
-196,255,143,-60,-1058,-739,-448,-350,-267,-358
-210,-82,-140,-205,-686,-708,-372,-234,-124,-171
-100,-254,67,-89,282,-19,-50,4,91,44
108,-279,198,-92,539,345,144,154,261,290
176,-237,-116,-46,594,441,214,122,217,378
24,-224,-30,-26,579,430,259,73,90,330
113,307,53,-170,144,126,203,158,155,331
140,396,196,-47,252,267,135,125,146,227
95,52,416,134,515,482,160,69,160,123
72,-17,159,109,186,196,140,29,181,90
-45,406,-368,57,286,84,43,54,67,-46
17,548,-260,101,485,219,107,222,119,30
85,466,67,73,35,84,108,163,126,95
-18,252,63,-77,-386,-142,8,-32,-5,-33
-189,-294,-274,-163,-368,-272,-194,-346,-297,-247
-264,-571,-485,-71,-224,-319,-302,-506,-429,-201
-300,-711,-616,-127,-527,-583,-305,-409,-337,33
-265,-784,-575,-106,-106,-427,-255,-166,-111,304
-126,-342,71,-24,411,-31,-230,-54,21,297
83,305,369,-102,197,107,-126,-84,36,137
175,458,238,-303,-327,-192,-136,-64,67,305
-105,25,232,-218,-295,-277,-294,-212,-121,232
-316,-308,228,-239,42,-131,-301,-222,-162,264
178,88,-85,351,381,594,480,434,289,-571
153,247,92,312,62,285,306,377,220,-171
200,317,224,249,-360,72,193,229,108,-75
217,206,323,251,-297,-23,121,171,44,-75
70,-34,426,395,461,110,40,52,-107,-132
-48,-255,370,354,527,117,8,56,-76,7
-45,-230,57,32,-111,-74,12,121,32,115
-151,60,-314,-154,-311,-187,-111,-21,-79,-68
-253,118,-288,-61,-14,-97,-259,-215,-256,-298
-112,-63,-154,-36,-8,-62,-150,-85,-101,-187
3,-350,-54,-53,-257,-124,-23,27,12,-155
94,-305,96,-47,-445,-261,2,37,17,-207
138,100,-15,-93,-239,-132,59,72,101,-49
90,299,-384,-172,438,292,91,80,107,113
99,286,-308,-183,685,469,109,116,102,172
145,210,23,2,387,339,169,206,149,168
164,153,62,130,132,150,128,138,116,79
86,180,106,102,-45,36,43,-19,8,-70
-270,-84,154,70,-221,-132,-167,-359,-274,-391
-707,-762,-70,196,-422,-377,-379,-567,-515,-649
-791,-1359,-590,195,-501,-385,-283,-325,-340,-468
-395,-1188,-539,68,-197,-50,11,40,13,-5
132,-174,278,-84,48,51,17,46,113,267
379,649,493,-151,46,-71,-65,-45,88,326
216,394,-44,-65,-138,-164,-69,-67,68,331
-44,-9,-244,-133,-953,-484,-75,-24,127,325
-153,-201,-215,-243,-1067,-456,-148,-136,73,145
-261,-250,152,-55,338,143,-226,-338,-156,-253
31,232,482,-6,1056,443,-131,-230,-100,-217
362,572,-11,-208,577,202,20,58,161,400
339,458,-90,-180,-9,-19,75,99,174,739
263,229,-57,-83,81,126,98,33,74,682
436,261,-240,-178,145,328,268,218,262,759
394,448,164,-143,-190,84,186,204,212,502
302,465,211,-101,-88,92,195,187,178,77
221,189,70,51,256,311,305,244,217,-391
-90,31,179,205,539,439,294,176,84,-1002
-296,40,257,164,556,437,377,305,177,-798
-199,119,381,162,458,326,317,317,273,-232
-18,389,530,281,179,133,170,173,244,60
-264,127,160,242,34,-11,-68,-168,-96,-159
-453,-642,-429,61,106,14,-190,-380,-385,-393
-27,-709,-449,13,33,72,-6,-84,-134,-84
204,-378,75,126,14,48,35,51,57,228
236,-216,115,157,-10,-4,51,106,163,318
221,-70,81,-11,-215,-107,-12,49,143,272
215,313,-206,-301,-687,-313,-159,-116,-27,204
118,197,-122,-198,-849,-351,-207,-248,-178,220
-226,-308,-2,18,-358,-403,-418,-582,-522,-46
-256,-508,-4,-4,194,-333,-411,-590,-515,-4
-215,-504,207,38,241,-189,-242,-382,-316,71
-575,-474,400,376,-105,-327,-334,-442,-494,-276
-950,-497,-6,549,-469,-653,-453,-523,-640,-232
-930,-1050,-299,57,-751,-852,-454,-459,-519,-119
-570,-997,258,-260,-535,-566,-336,-216,-264,-366
114,-194,596,-202,-63,50,122,282,158,-350
795,850,-466,-412,446,482,389,526,409,-148
948,1252,-706,-342,796,737,370,381,290,-160
656,1161,-357,-94,454,531,355,297,195,-152
248,882,87,18,36,246,340,327,207,-128
46,503,181,76,146,266,318,372,271,-111
29,265,148,114,90,394,394,392,287,9
28,156,1,-46,-529,96,267,283,166,83
-27,3,-201,-89,-254,48,111,222,88,21
76,-127,-212,-28,630,295,165,330,307,253
111,-201,158,41,470,151,37,217,402,417
-388,-419,590,241,-491,-514,-506,-352,-96,-39
-673,-309,260,-11,-766,-746,-931,-882,-692,-557
-176,-147,89,-251,-539,-489,-572,-548,-400,-186
263,232,340,-150,-368,-344,-134,-93,83,317
491,362,-485,-228,40,-92,106,125,256,578
484,172,-653,-161,477,319,266,195,169,655
443,61,-166,-37,293,277,232,131,14,734
257,-229,-58,-91,-196,-21,133,58,-28,728
-431,-1068,-644,-125,42,20,-122,-307,-326,173
-504,-1303,-784,-30,204,80,-74,-200,-202,24
-200,-774,-133,67,4,250,282,279,247,78
185,392,386,72,-24,298,462,528,518,33
442,1276,501,-110,209,5,84,136,201,-111
437,899,310,-102,575,158,104,64,86,238
413,524,469,-44,188,147,217,212,115,139
321,381,554,5,52,166,199,188,-21,-711
76,467,296,92,82,176,184,93,-194,-1175
-24,338,-80,226,-235,54,154,81,-161,-652
0,74,-426,179,-278,-18,42,-43,-140,-208
-311,-252,-27,179,414,140,-52,-201,-211,-167
-576,-564,383,82,401,3,-209,-288,-254,-160
-685,-822,-4,-176,-106,-204,-249,-295,-251,-257
-446,-627,-728,-296,-153,-90,-78,-54,-41,-310
-106,-347,-473,-177,-43,-42,-62,24,41,-343
123,374,-114,2,-53,-53,-70,-73,0,-233
216,656,148,253,-300,-100,-3,-123,-62,-194
168,532,239,208,-663,-126,133,10,-34,-268
25,337,94,38,-75,148,236,132,9,-308
88,279,98,3,898,500,276,205,98,-35
363,528,-20,-95,550,282,162,172,141,395
415,492,-56,-66,0,63,76,125,181,626
313,177,23,47,-347,-136,128,240,325,586
193,32,-32,70,-577,-341,100,258,330,376
-82,-140,-71,148,9,-28,-129,-106,17,-14
-137,-246,-57,139,561,492,-2,-75,55,-146
-86,-385,119,104,548,463,176,79,197,-55
6,-144,342,186,540,340,45,-94,47,282
153,152,449,249,394,214,-7,16,96,780
90,611,365,110,108,4,-80,-45,-46,943
-70,911,10,-234,-202,-241,-296,-363,-425,640
-259,3,-157,-320,-220,-296,-322,-393,-459,81
-168,-295,-126,-246,-157,-194,-92,-194,-327,-579
-16,-442,-114,91,-153,-163,111,193,-66,-737
-136,-772,-178,436,-388,-385,10,339,57,-483
-319,-783,-561,248,-872,-685,-387,-60,-166,-330
-559,-769,-796,10,-842,-704,-593,-389,-376,-437
-755,-760,-1021,-346,-563,-428,-447,-348,-306,-568
-366,-498,-1037,-447,-179,-34,104,164,270,-173
250,89,-324,-274,397,235,412,451,585,212
325,483,796,-102,725,435,221,179,224,129
348,686,808,-21,767,727,221,22,45,255
447,613,400,83,327,658,393,87,107,506
419,438,323,132,-297,212,414,279,265,589
253,275,270,77,-529,-67,179,359,313,422
48,72,50,78,-78,-21,-52,88,51,40
-295,-254,-299,79,577,34,-266,-320,-379,-335
-445,-407,-213,98,409,-100,-426,-493,-493,-304
-277,-375,-29,131,314,-42,-259,-291,-188,59
132,-60,278,126,402,199,132,184,319,608
353,308,451,60,114,104,183,315,462,845
196,194,81,-56,-148,-96,-77,6,138,459
-69,-312,-549,-138,-152,-71,-166,-176,-132,-69
-133,-515,-569,-120,-181,-21,-42,-71,-113,-351
107,0,145,-6,-348,-123,13,25,-31,-225
403,662,996,25,-578,-340,-22,39,59,154
393,607,1018,87,-265,-307,-14,30,145,536
109,150,891,169,36,-27,-39,-71,97,883
-460,-635,1109,407,-261,-45,-355,-487,-312,367
-720,-896,504,281,-542,-407,-453,-615,-531,-338
-465,-589,-457,40,192,-51,-47,-216,-204,-424
-96,240,-428,27,802,141,-58,-204,-162,-608
415,709,-694,-169,695,99,2,34,41,-702
672,471,-942,-340,328,134,199,272,211,-627
493,41,-326,-59,236,201,255,232,116,-510
125,-79,-235,26,134,138,122,63,-34,-382
-321,-290,-660,-184,-155,-66,-72,-176,-271,-418
-572,-444,-825,-295,-158,50,62,-153,-318,-488
-444,-106,-437,-252,-52,264,290,75,-92,-381
-341,424,521,-185,-83,205,239,126,-16,-440
-36,698,781,-112,119,165,159,290,156,-256
341,550,733,-41,112,155,232,473,354,249
276,72,797,217,114,104,106,239,164,294
142,-61,476,364,24,-56,-115,-73,-128,36
-160,-59,-288,287,-172,-282,-323,-301,-372,-117
-547,-183,-764,132,-483,-624,-603,-517,-519,-140
-700,-751,-829,57,-587,-767,-680,-650,-549,-237
-359,-1023,-488,-74,-451,-330,-229,-251,-134,-148
266,-628,253,-93,-89,226,366,341,419,199
639,302,521,-219,142,256,421,500,547,366
786,1131,46,-490,-243,-137,142,409,442,350
558,949,-196,-430,-289,-223,-67,151,183,263
375,488,-117,-248,-168,-115,26,228,287,530
232,304,67,-22,474,352,90,211,287,546
190,308,162,170,797,573,-6,-35,46,474
90,108,298,248,220,94,-123,-149,-132,537
-220,-450,161,252,-428,-283,-67,-15,-167,240
-485,-892,-335,37,-933,-390,-19,78,-119,-419
-641,-895,-349,-64,-656,-267,-126,-116,-266,-925
-429,-487,60,104,575,294,1,-12,-2,-411
91,-110,339,306,1029,707,332,336,547,506
435,120,215,249,495,498,345,340,688,769
364,472,-67,54,224,210,208,246,568,460
322,899,21,-48,116,40,95,231,434,264
268,735,151,-38,37,50,44,165,231,253
197,313,221,29,-415,-11,125,224,220,363
82,-19,95,-1,-923,-226,92,174,67,199
-235,-533,-257,62,-76,16,-44,-126,-302,-265
-237,-398,-334,171,1001,337,28,-158,-314,-439
26,49,-20,76,886,370,161,3,-76,-278
207,273,266,-48,176,147,41,-96,-63,28
165,68,-2,-126,-14,-55,-94,-257,-222,503
39,-239,-223,-99,107,-56,-92,-189,-256,456
91,46,-87,-39,-18,-87,-83,-25,-146,220
171,422,178,35,-58,-81,-83,-22,-137,232
189,364,586,230,170,93,19,8,-129,1
-4,172,995,542,139,161,133,35,-184,-804
-355,-340,936,623,-166,29,82,-82,-316,-1345
-448,-602,-20,133,-342,-154,-58,-232,-328,-1064
-270,-207,-414,-147,-35,19,82,-106,-35,-425
-70,324,-299,-261,-192,56,190,-64,113,-134
19,367,-707,-380,-282,-80,94,-51,184,-66
-144,-146,-738,-273,-14,-164,-170,-161,48,-105
-211,-458,-553,-156,94,-53,-184,20,108,177
-15,-243,-61,-49,209,174,32,178,221,583
135,160,301,110,323,308,254,175,200,401
81,260,150,192,312,295,331,286,234,-75
-78,188,106,170,183,163,190,239,112,-458
-104,41,154,87,62,55,27,-32,-107,-314
-114,-98,74,22,-48,-46,-65,-209,-203,3
-160,-5,-142,-80,-248,-165,-142,-279,-283,7
-21,107,-314,-213,-354,-202,-127,-172,-226,-25
159,85,-245,-89,-88,-41,22,22,-64,139
197,145,96,166,36,-65,30,104,50,302
88,141,99,288,-408,-498,-113,81,81,96
-274,-90,155,126,-953,-843,-295,-130,-115,-538
-609,-492,84,-173,-625,-545,-389,-319,-300,-803
-642,-641,84,-242,346,257,-254,-290,-248,-486
-145,-257,463,-320,43,252,20,44,118,229
319,311,108,-533,-102,-80,-16,32,126,543
512,417,-185,-405,268,-109,-30,-13,95,514
264,-8,-54,25,347,49,-36,-36,45,388
81,108,-107,247,196,163,-137,-139,-90,215
160,-170,-158,324,127,148,-36,-90,-24,196
306,-299,0,254,-243,-154,84,44,142,309
267,-175,13,-44,-605,-355,120,169,233,399
-19,-12,-171,-221,-166,-28,-50,27,73,70
-325,-283,-147,68,307,138,-224,-145,-89,-263
-697,-831,-304,191,197,-18,-229,-163,-153,-442
-625,-946,-323,175,360,229,74,133,81,-305
-84,-421,425,360,596,474,346,398,339,64
300,349,291,126,541,479,323,336,273,146
382,524,-239,-63,333,431,331,324,237,95
301,736,-121,-67,21,178,116,109,41,-23
333,766,79,-90,-227,15,19,1,-16,102
123,365,128,-86,-296,-48,20,-26,-9,216
-96,-86,-117,-118,-215,-194,-74,-112,-34,295
-68,-265,-244,-134,-181,-202,-58,-56,41,410
47,-206,33,-151,-359,-230,-84,47,110,312
197,89,245,-92,-259,-144,-119,344,78,208
206,160,51,-48,-187,-101,-52,820,53,257
50,26,17,49,69,75,17,552,-51,149
-37,22,317,251,315,255,77,-52,-285,-189
-344,-290,427,400,242,97,-143,-317,-744,-762
-812,-949,-123,177,-339,-428,-532,-257,-844,-905
-638,-715,-750,-357,-1068,-857,-678,-10,-329,-465
149,359,-416,-528,-1211,-680,-326,338,203,-159
582,588,87,-206,47,23,98,615,405,12
705,544,-219,-97,1115,559,383,787,636,730
558,330,-44,-19,638,466,416,733,718,1579
254,98,382,125,-15,191,253,507,337,1205
37,93,537,219,-24,128,151,330,-16,-18
-58,280,589,275,299,154,42,108,-104,-543
-215,429,287,211,342,33,-167,-189,-276,-365
-437,-135,-81,271,-64,-261,-277,-292,-387,-255
-758,-1011,-395,258,-243,-339,-255,-332,-496,-806
-578,-672,-452,33,261,75,-9,-162,-352,-1164
-22,290,152,-247,316,223,35,-33,-161,-756
349,428,-53,-514,-53,26,-47,69,30,-139
322,127,-613,-448,-54,151,128,285,270,227
223,92,-477,-217,-110,140,158,213,211,132
217,159,-52,-80,-245,33,214,240,162,-70
195,240,42,8,-163,-14,179,130,70,-177
126,201,-82,77,126,19,76,-54,0,-50
117,114,58,110,39,-2,30,-89,38,113
78,-8,140,134,-425,-270,-99,-178,-20,150
-111,-274,137,196,-759,-531,-248,-368,-277,-140
-288,-520,-23,60,-647,-543,-342,-482,-484,-398
-270,-489,8,-30,367,-92,-415,-510,-449,-331
-86,-117,312,-18,617,125,-302,-324,-209,-70
-211,-208,-70,-145,-324,-401,-258,-251,-116,3
-941,-1035,-1011,-418,-1056,-1002,-644,-586,-471,-533
-1284,-1701,-810,-293,-627,-637,-632,-709,-628,-816
-446,-1085,-13,-140,174,207,111,-12,2,-66
545,554,639,-204,544,545,479,410,412,469
900,1347,781,-45,555,580,559,522,581,518
617,1109,259,21,405,542,539,425,522,329
204,488,-51,6,323,481,357,131,241,99
100,527,-191,-7,181,348,179,45,186,-49
161,426,-196,11,168,187,96,168,326,69
185,255,-40,67,301,152,66,117,348,357
209,252,112,123,282,184,148,80,345,613
176,220,135,173,224,188,262,133,367,554
151,179,148,243,212,256,297,114,302,297
223,284,309,287,-169,16,235,119,270,222
127,274,357,115,-805,-405,-13,77,191,104
-184,-43,289,-175,-1072,-599,-267,-172,-100,-237
-586,-710,92,-249,-43,-133,-410,-553,-489,-471
-479,-980,40,-3,883,430,-160,-457,-447,-234
-99,-471,90,129,175,104,32,-116,-144,167
24,190,-434,-145,-513,-209,-24,-34,-8,318
154,210,-351,-124,-55,45,50,2,141,531
348,346,-135,-8,624,423,196,77,276,660
437,444,-282,-49,655,491,349,297,498,699
395,347,-11,37,292,269,235,302,511,628
410,310,244,78,81,102,95,183,388,725
305,249,304,34,-124,15,68,115,286,699
154,180,163,6,-253,-115,-87,-148,-87,158
103,-75,-51,134,26,-15,-129,-305,-371,-509
-12,-341,-102,223,-124,-32,-17,-121,-257,-713
-178,-487,-166,124,-545,-226,-40,-65,-176,-556
-257,-332,-226,58,-109,-87,-74,-166,-198,-429
-190,150,42,92,640,279,27,-170,-175,-523
105,443,300,59,657,313,167,0,-36,-441
360,455,341,39,349,215,216,120,96,-198
308,275,543,104,36,94,198,130,153,-39
41,-60,477,119,-220,-73,121,68,98,-126
-682,-715,26,193,-514,-394,-332,-505,-499,-648
-958,-877,-565,138,-265,-284,-469,-710,-698,-791
-519,-680,-596,-6,138,-28,-161,-276,-209,-354
-16,-232,115,-68,187,-37,-44,65,111,31
369,456,-159,-324,104,-37,21,207,243,374
413,546,-338,-307,107,103,180,237,251,382
207,280,-108,-82,123,119,138,128,87,-117
108,187,30,9,27,38,73,1,-17,-217
93,166,162,15,-338,-204,-34,-115,-99,-87
-161,-130,111,43,-1005,-702,-221,-293,-281,-332
-672,-911,-305,66,-1084,-897,-341,-492,-516,-670
-667,-1326,-662,-51,-99,-287,-100,-272,-264,-439
-193,-779,-78,-31,748,420,142,-7,36,-76
175,205,529,-68,443,330,105,42,106,130
433,940,-242,-331,11,291,162,197,340,414
412,716,-416,-305,-118,177,111,171,347,611
294,300,-94,-174,75,14,-71,-73,98,764
243,116,-71,-89,194,-87,-198,-196,-43,679
-18,-156,-257,-3,-26,-262,-324,-323,-158,414
-102,-260,-251,23,-175,-287,-191,-190,-35,456
-80,-114,125,-24,-308,-284,-41,-21,89,500
-184,57,337,-35,-550,-173,87,84,66,81
-405,15,170,-114,-882,-209,17,3,-154,-707
-575,43,507,-183,-895,-331,-237,-288,-462,-1197
-411,142,1111,-67,-353,-414,-294,-287,-350,-954
-410,-240,1029,122,679,-237,-246,-276,-259,-763
-163,-404,111,256,914,263,210,128,159,-77
138,-391,-261,370,693,622,474,389,429,643
351,413,-487,126,376,528,299,213,258,720
366,588,-476,-13,331,322,113,10,97,465
40,-52,-207,34,340,363,135,-92,17,319
15,-364,-90,-16,91,289,185,-101,36,561
332,-142,-29,-128,-189,65,141,-37,180,695
402,245,75,-131,-331,-148,33,155,382,690
376,764,-320,-199,-209,26,168,279,449,564
177,548,-156,-10,-38,21,262,184,285,-109
-278,0,149,84,-26,-323,-16,-10,8,-926
-622,-533,165,132,-25,-461,-399,-226,-233,-1206
-800,-1068,-228,163,256,-286,-409,-238,-300,-929
-671,-992,-575,-26,400,91,-56,-27,-201,-616
-179,188,-36,-198,60,36,63,48,-152,-536
289,917,506,-133,50,27,86,62,-122,-510
481,934,227,-53,209,216,93,52,-107,-433
445,476,-118,130,110,186,112,43,-91,-235
334,111,-87,247,85,112,89,2,-64,177
295,132,-54,85,271,235,49,-117,-116,364
274,104,-42,-72,300,425,163,-163,-203,250
287,0,-51,-21,273,474,337,-12,-110,210
383,42,31,75,148,289,337,211,118,497
336,119,106,15,-114,-52,38,224,188,651
158,21,128,31,-138,-164,-128,108,125,499
10,-204,345,157,40,-66,-110,54,121,324
-82,-419,494,264,94,-26,-66,23,74,158
-155,-398,354,212,-37,-93,-70,32,26,-114
-55,167,-266,-111,-337,-270,-132,0,-11,-233
122,520,-432,-247,-678,-443,-102,25,93,118
118,311,-21,-81,-830,-546,-37,80,188,390
-243,-55,-135,12,-161,-243,-126,-108,-102,-20
-499,-286,-312,103,586,236,-141,-292,-299,-407
-589,-414,-276,198,528,228,-216,-303,-246,-477
-571,-729,-438,-114,-64,-203,-345,-237,-165,-242
-159,-702,-336,-269,-181,-230,-119,-66,-9,238
203,-134,203,-50,-102,-143,45,59,98,325
423,528,420,-3,-302,-163,106,138,165,-73
507,723,-6,-86,-459,-89,168,232,288,-84
261,362,-88,-91,-237,121,107,134,189,128
-21,73,-18,-63,167,137,53,24,113,120
-117,-22,-34,-27,495,221,51,15,115,177
63,106,48,19,303,191,130,102,184,496
77,201,127,85,62,114,191,97,157,457
-177,166,188,34,-94,6,97,-58,-72,-255
-647,-149,80,-116,-305,-289,-376,-437,-469,-1210
-689,-621,334,-50,-281,-354,-596,-496,-432,-1016
-456,-1067,676,143,-90,-166,-315,-186,-30,-233
-537,-1153,794,196,74,-130,-199,-118,46,-50
-281,-558,-92,65,322,30,-37,3,58,201
236,371,-717,-181,195,88,103,63,29,526
693,991,-329,-279,-176,-97,41,43,52,615
888,1200,-320,-291,-393,-74,129,162,178,595
511,489,-447,-195,-256,213,267,210,168,403
258,82,-338,-106,-181,169,171,137,25,156
235,56,-166,-10,196,102,80,66,-48,226
292,85,-72,79,482,137,78,48,-21,458
255,24,115,214,381,104,65,47,17,787
51,-50,236,293,220,44,38,39,6,776
-314,-286,227,371,220,20,-3,51,-22,-171
-816,-718,371,483,29,-199,-190,-92,-170,-1338
-904,-955,-21,187,-70,-215,-214,-200,-311,-1442
-399,-590,-120,-42,8,-2,73,72,-66,-657
19,261,403,-10,-25,12,57,-1,-86,-304
268,708,-301,-184,7,167,66,-36,-91,-174
185,444,-422,-218,-71,173,54,19,30,-40
146,197,-145,-159,-87,131,71,60,123,147
283,249,128,-90,68,185,115,40,168,365
446,451,106,-159,-264,4,69,17,199,643
466,347,199,-164,-578,-176,48,46,203,875
245,-86,295,50,139,23,-26,-47,67,610
105,-380,293,192,564,103,-28,21,24,284
31,-52,174,149,12,-84,6,28,-25,-73
36,608,-72,-3,-551,-178,101,117,25,-217
-105,352,-188,-75,-333,19,192,143,-18,-398
-258,-118,-106,-7,273,259,294,136,-37,-510
-241,-309,122,79,349,202,302,218,120,-425
-116,-171,431,175,193,101,131,125,108,-338
33,153,360,113,-107,-118,-125,-66,-43,-272
-70,8,-17,74,54,-33,-116,-97,-65,-194
-336,-380,-507,83,200,-61,-237,-325,-255,-320
-496,-367,-942,-75,-298,-286,-358,-459,-399,-438
-310,-337,-686,-169,-647,-322,-142,-155,-122,-224
-79,-86,32,-170,-75,-257,-52,19,78,-79
274,397,159,-81,891,153,89,108,215,32
361,510,-10,-87,752,278,151,190,232,-27
164,380,226,-170,232,183,53,124,69,-97
155,388,302,-228,-332,-58,-17,37,51,277
102,233,248,-158,-730,-198,79,83,147,565
-19,-163,43,22,-601,-326,70,43,92,249
-156,-459,-231,149,89,-19,-111,-182,-121,-310
-160,-361,-203,136,278,158,-220,-118,-64,-221
-37,-266,-204,-97,-237,-324,-273,-5,46,76
211,-106,-85,-115,-567,-461,-167,17,45,385
522,168,146,-62,-783,-429,-65,68,41,712
308,144,89,170,-299,-112,-251,-288,-357,534
-49,-76,73,309,-101,-298,-372,-435,-557,42
-527,-492,171,106,-277,-537,-344,-398,-579,-528
-904,-799,478,-62,-43,-136,-184,-387,-602,-714
-689,-691,698,-106,650,471,130,-139,-351,-431
-130,-205,-33,-198,754,493,240,151,23,-265
248,386,-503,-150,499,345,203,296,225,-198
455,507,-545,-6,500,481,283,363,357,179
416,567,-396,5,376,380,213,309,339,301
326,476,-144,13,267,296,226,284,290,204
144,179,-79,76,267,285,272,279,273,82
66,103,18,214,230,243,210,172,189,82
126,114,69,207,124,184,114,46,125,218
196,43,25,101,-5,77,41,7,128,469
219,-13,28,80,-100,-3,32,63,137,668
222,-47,55,64,-296,-71,30,131,193,687
237,3,67,-28,-484,-86,-14,79,163,606
179,99,38,-56,-304,-77,-12,23,81,512
22,23,36,91,323,35,64,93,85,127
12,57,86,122,417,56,86,178,145,-307
-12,46,156,173,78,-16,60,81,69,-361
-233,-126,215,267,-66,-54,-7,-53,-41,-362
-355,-144,23,139,12,10,-91,-206,-191,-551
-222,-259,-25,81,-194,-119,-55,-122,-106,-419
-89,-373,90,106,-292,-202,9,87,106,-176
-24,-204,84,27,68,-31,58,204,251,-127
48,218,328,-9,129,107,93,138,167,-164
69,673,-84,-142,36,103,9,-100,-78,-364
63,616,-234,-167,105,1,-110,-270,-225,-450
99,578,152,-93,-226,-272,-128,-212,-191,-235
70,377,272,-151,-732,-475,-88,-129,-148,19
-96,-412,15,-216,-666,-314,-16,-37,-63,513
-155,-862,68,-50,-454,100,225,158,186,870
-30,-501,10,-55,-548,91,198,65,212,510
-143,131,-217,-145,-62,-122,-233,-340,-142,-205
-353,-226,-345,0,808,28,-379,-312,-171,-347
-294,-528,-832,19,1002,314,-142,125,155,-114
64,-105,-701,17,619,341,76,197,156,14
294,293,112,104,373,261,103,57,-6,-6
370,738,378,21,191,152,33,-49,-87,-26
302,577,150,-34,144,185,131,41,28,196
127,149,25,-13,122,137,183,272,293,494
47,15,21,50,139,-10,13,308,356,539
-4,23,73,140,169,-24,-128,46,151,252
-63,-49,102,156,-77,-88,-113,-10,63,39
-116,-178,198,109,-617,-339,-88,-15,-17,-75
-182,-195,241,-36,-927,-592,-106,-148,-225,-352
-377,-275,159,-180,-445,-543,-287,-402,-570,-696
-454,-179,-233,-323,65,-214,-452,-480,-650,-688
-51,-70,-312,-71,103,156,-155,-82,-203,-154
51,-53,116,133,-472,-289,-125,109,5,136
-92,46,261,39,-369,-373,-184,-74,-178,121
-128,219,180,-25,444,151,-201,-250,-361,-157
-330,-100,-67,-66,437,239,-171,-253,-355,-598
-491,-767,-337,-281,-194,-166,-212,-252,-330,-807
-75,-617,-145,-272,-159,-62,26,61,72,-129
359,126,743,-103,18,31,128,197,287,517
367,145,563,-73,223,85,58,67,185,452
87,-210,-206,-52,437,237,42,-19,37,109
41,148,-535,-120,140,113,-4,-70,-78,89
190,296,-435,-1,119,180,128,46,43,314
364,185,-164,139,227,343,305,198,275,333
426,309,-165,74,241,369,323,213,334,153
316,341,-146,12,182,254,236,181,270,-88
122,155,-60,33,108,218,229,223,201,-270
95,84,-26,-2,-96,18,112,248,208,-98
204,139,46,3,-340,-105,6,71,133,177
241,180,58,-21,-497,-118,42,68,130,254
82,66,58,-45,-197,-104,21,117,125,160
-119,-45,72,-4,224,8,-1,51,44,28
-222,-73,234,107,202,-5,-70,-127,-181,-219
-165,-51,416,317,212,-11,-70,-124,-211,-289
1,-52,464,511,156,29,145,152,67,-3
5,-81,107,385,-19,-92,111,120,70,47
-3,189,-357,-79,-189,-311,-168,-226,-187,-123
23,182,-331,-80,429,160,-129,-255,-175,27
151,115,-71,61,499,283,-2,-76,38,407
56,-229,-23,109,147,21,14,-2,128,544
-133,-673,-101,128,-55,-47,-15,-54,98,559
-189,-698,86,189,-260,-79,-27,-45,83,421
-216,-317,334,170,-537,-214,-66,-73,-19,-227
-166,196,-11,-186,-1053,-502,-158,-95,-115,-786
-138,156,-263,-332,-1068,-538,-118,-14,-103,-715
-75,153,-122,-312,-391,-248,-31,37,-66,-325
-58,173,42,-178,547,205,10,-33,-120,-195
165,279,-52,-12,799,465,168,101,29,50
224,271,64,40,206,246,176,134,72,168
159,130,74,7,-72,4,45,56,14,122
80,-26,-91,-33,143,55,-32,-13,-30,68
29,-196,-174,-49,183,184,12,10,26,54
11,-322,-180,-56,138,191,60,1,52,169
53,-307,-50,-18,218,215,50,-140,-51,572
72,-95,106,-16,92,65,-96,-382,-248,815
47,26,250,-35,-136,-232,-341,-443,-305,669
-40,-146,198,-9,-195,-403,-395,-138,-105,639
-260,-512,-119,-3,-226,-432,-275,80,-18,483
-331,33,-180,-57,-391,-456,-247,13,-109,-352
-339,377,-288,-49,-306,-254,-291,-176,-292,-1478
-368,56,51,91,-29,51,-46,-62,-213,-1718
-87,-29,11,109,27,154,219,224,136,-724
188,4,-33,121,-8,207,311,330,352,109
183,152,203,124,130,200,193,142,191,160
277,317,180,47,341,252,117,42,49,135
163,107,394,149,35,56,171,118,61,118
-35,-238,483,155,-389,-135,133,140,47,108
-97,-482,381,15,-338,-130,13,17,-30,202
-266,-409,94,-79,323,94,-50,-132,-112,302
-11,364,-225,-238,568,218,-56,-125,-8,516
228,851,-138,-315,184,76,-78,-97,97,600
188,641,103,-214,-4,-35,-25,-9,203,456
125,212,-4,-160,-31,-66,35,150,273,160
138,-192,-118,-17,37,-13,96,252,291,14
99,-231,-224,106,132,21,150,258,241,-182
-15,-115,-200,109,191,32,153,185,74,-410
11,102,-74,99,242,135,144,47,-112,-394
122,173,18,137,166,100,156,76,-35,-322
87,77,26,160,230,210,169,105,12,-442
53,43,41,123,79,160,158,96,35,-455
5,22,102,96,-193,-9,77,25,18,-346
-174,-201,-32,70,-346,-173,-66,-139,-158,-395
-466,-582,-402,-64,-353,-232,-128,-258,-313,-496
-417,-533,-357,-154,-280,-143,-123,-208,-281,-429
-114,43,221,-160,66,23,-106,-163,-200,-218
77,441,640,-219,31,-90,-93,-90,-85,251
-86,18,556,-160,-135,-214,-215,-239,-228,500
-227,-404,443,-9,-59,-94,-146,-196,-185,387
-90,-216,258,180,-150,0,88,45,121,102
124,440,17,319,-307,52,268,235,331,-33
95,432,-385,163,-43,168,261,200,259,-89
81,161,-566,-63,321,138,126,126,186,-135
283,206,-3,-6,137,45,126,235,332,193
257,150,251,86,-2,0,133,263,352,439
143,-83,1,56,286,125,128,196,198,357
-14,-238,-257,-16,172,75,12,-24,-116,81
68,100,-230,-49,-206,19,-64,-232,-297,81
218,144,-146,-51,-417,-51,-10,-204,-187,400
103,-66,-160,-42,-281,-172,-142,-236,-131,267
-158,-346,-326,-37,-145,-369,-336,-269,-148,-8
-243,-408,-322,0,139,-104,-165,-146,-114,-99
-198,-216,140,126,-71,-141,-48,-123,-231,-388
-339,-299,159,73,-217,-270,-220,-136,-344,-784
-218,-468,-318,-80,218,108,-112,-3,-153,-462
92,-377,-7,0,342,291,144,137,19,-4
287,28,477,76,-151,104,208,194,36,86
581,805,89,-223,-1012,-380,151,398,280,303
363,623,-58,-297,-1010,-642,-124,145,112,176
51,151,-26,-150,7,-187,-135,-62,-80,42
152,82,-11,-114,213,1,64,163,151,323
-51,-102,-38,26,679,277,15,34,49,188
-147,-233,53,173,898,496,-50,-74,-7,69
-205,-315,-20,100,259,181,-113,-70,-28,28
-498,-564,-382,-35,126,43,-158,-140,-180,-414
-478,-536,-363,-117,203,66,-104,-129,-186,-557
-167,-178,-168,-202,151,75,-37,-103,-108,40
37,121,160,-137,177,110,43,-55,1,538
222,324,90,-93,163,103,55,11,92,690
358,311,65,-55,160,141,100,21,81,758
281,368,254,20,204,262,160,-41,-47,453
213,414,208,23,102,209,146,3,-27,-102
155,193,197,88,40,58,128,185,153,-531
23,-73,205,218,199,30,49,199,149,-781
-71,-284,229,408,213,40,34,114,73,-634
-128,-174,91,305,-30,-47,84,40,-23,-396
-51,163,-51,5,-461,-269,10,-19,-54,-88
-194,66,-11,-91,-637,-409,-170,-89,-80,102
-287,-25,-183,-222,-226,-202,-148,-93,-81,28
-190,-86,-53,-186,229,26,26,59,118,-45
-180,-127,130,70,532,330,42,-2,130,-100
0,-27,54,236,421,362,171,124,285,197
97,79,-12,183,192,148,142,168,351,415
225,253,-163,-20,-17,-37,-15,79,278,551
187,358,-135,-78,-129,-129,-93,3,173,511
103,232,-37,16,-52,-70,0,82,164,332
84,131,144,73,106,102,39,78,74,37
79,47,441,67,164,170,34,54,31,-171
47,190,548,69,178,103,25,22,-46,-334
-63,324,636,-24,117,-4,-44,-82,-262,-429
-127,329,164,-249,-134,-150,-153,-177,-432,-392
-47,-25,-420,-264,-257,-98,-95,-103,-341,-159
75,-469,-586,-119,-220,11,8,-23,-209,99
159,-311,-544,-29,-137,47,100,116,-32,189
127,-119,-310,-20,-134,20,114,158,64,71
35,-61,-139,-27,-115,-12,35,103,58,-58
25,0,-57,-14,-121,-13,8,88,102,51
-26,2,-24,-21,-270,-56,-1,48,65,22
-13,-79,-60,-94,-551,-176,7,119,149,110
-87,-364,-200,-92,-362,-242,-143,-46,87,266
-121,-574,-243,-2,151,-60,-141,-218,-37,370
-20,-419,-62,38,274,147,164,-95,15,509
46,103,98,-1,176,210,316,-3,55,450
56,387,132,80,-41,34,90,-50,73,210
-43,69,72,239,33,-158,-151,25,128,-193
-119,-151,155,220,316,-56,-97,97,70,-513
-115,-92,642,200,334,31,-4,25,-61,-484
-172,-164,949,235,264,37,57,105,-26,-276
-117,-94,522,144,149,-47,-3,57,-50,-206
-166,258,-118,-5,-154,-329,-294,-276,-370,-459
-123,168,-580,-42,-578,-530,-277,-194,-262,-281
-122,-77,-588,-91,-1070,-698,-248,-92,-95,-117
-423,-386,-566,-254,-894,-416,-349,-289,-316,-483
-477,-559,-524,-317,133,184,-89,-198,-290,-567
-44,-44,65,-268,625,418,231,78,4,-267
461,606,365,-197,305,324,317,211,206,78
481,470,115,-56,56,121,121,107,187,345
168,50,-58,-22,-96,-66,-190,-208,-14,875
24,-101,-282,-42,-254,-173,-199,-291,-61,1549
2,-190,-314,38,2,107,10,-178,2,1145
-116,-203,-149,69,274,266,104,-101,4,9
-240,-175,-152,75,189,85,62,10,6,-798
-279,-219,-327,65,-158,-154,12,131,17,-988
-147,-165,-340,106,-183,-28,156,121,-4,-1039
67,3,65,59,255,272,162,30,-35,-751
246,301,302,-94,411,311,70,-50,-25,-162
338,420,160,-89,217,112,54,99,107,275
256,267,88,35,151,50,79,260,192,353
173,166,151,145,202,102,93,212,135,234
216,183,168,201,192,127,109,176,101,67
223,230,142,161,61,48,76,132,53,-111
164,198,176,88,-113,-64,-9,39,-15,-159
50,87,134,74,-102,-63,-156,-181,-200,-180
-19,89,205,103,-164,-100,-217,-306,-285,-131
-257,72,342,75,-192,-108,-162,-225,-238,-225
-284,63,381,-54,-275,-29,-37,-50,-103,-252
-248,-142,126,-103,-159,60,47,78,33,-110
-225,-168,-299,-101,194,31,-81,-108,-103,21
84,-61,-458,-60,431,135,-6,-92,-37,368
200,-15,-219,24,283,175,218,210,249,477
249,130,-1,-43,-230,-119,179,321,382,260
238,219,141,-90,-635,-386,60,211,307,134
73,107,93,-70,-397,-233,-16,0,111,91
-121,-61,15,-13,108,118,-83,-292,-119,-20
-281,-220,-24,22,474,258,-112,-385,-271,-137
-122,-161,-24,-12,381,178,13,-176,-92,38
39,-23,82,7,156,66,77,-8,84,254
78,22,-45,-20,27,-22,20,-22,111,362
-2,-103,-141,28,-43,-85,-54,-123,16,319
-173,-315,-134,93,-79,-132,-135,-230,-99,121
-125,-347,-206,15,9,-10,-27,-101,16,33
92,-103,9,-28,54,68,90,69,187,32
259,173,175,-57,43,92,106,126,272,201
346,255,-9,-64,79,123,96,98,264,342
187,-32,-21,-19,67,74,30,36,175,238
-21,-326,-53,23,86,110,41,40,145,210
-113,-231,-42,17,61,70,5,6,78,208
-132,160,47,-36,-43,-62,-119,-81,-71,32
-181,220,53,-18,-129,-160,-152,-113,-195,-369
-189,107,-84,51,-135,-162,-129,-125,-256,-642
-130,-7,-122,140,-113,-85,-42,-59,-154,-468
-33,160,231,166,-224,-108,-73,-71,-139,-258
-18,255,364,33,-264,-129,-77,-82,-147,-162
-122,-21,-117,-130,0,20,12,-25,-119,-188
-149,-365,-354,-161,100,39,-12,-82,-197,-299
61,-221,-6,-125,-45,-58,-73,-128,-195,-123
217,56,566,9,-13,-32,-29,-38,-57,225
163,-42,290,-15,-9,-7,15,31,30,429
-113,-457,-276,-158,-92,-1,28,-51,-49,339
-308,-319,-351,-101,-22,190,131,-167,-225,-57
-175,-98,270,134,112,330,222,-168,-226,-341
-56,105,824,139,-34,68,66,-86,-105,-296
90,463,439,-168,-423,-471,-257,147,116,-104
150,557,-31,-292,-415,-466,-241,172,136,-81
158,443,-427,-215,19,7,-73,135,113,86
283,212,-570,-25,180,306,186,297,282,530
282,168,-375,57,-147,107,276,347,352,607
154,218,-142,-19,-539,-251,146,166,213,180
-157,99,-122,-27,-338,-284,-67,-85,-38,-252
-286,-129,19,128,318,41,-112,-115,-90,-187
-128,-268,287,281,743,260,-46,-15,6,142
-71,-421,413,326,394,58,-145,-84,-15,308
-61,-271,165,182,-222,-240,-285,-177,-64,398
-11,-129,-275,-18,-593,-450,-328,-258,-104,391
-66,-354,-507,-68,-507,-352,-203,-248,-121,248
-225,-287,-597,-63,54,-35,-170,-321,-241,120
-305,-172,-376,-157,532,206,-156,-258,-237,64
-295,0,291,-161,265,30,-2,38,5,-304
-165,-78,764,-3,-22,-11,131,157,120,-689
-181,104,360,-59,-196,-40,-30,-161,-134,-841
-133,298,-379,-281,-221,-66,-126,-298,-210,-514
-76,131,-374,-270,139,121,15,-43,1,-19
79,69,-147,-225,123,118,141,318,272,364
391,274,-129,-128,-43,44,202,418,379,703
375,382,-125,77,-111,-14,190,337,329,640
127,48,13,339,56,23,132,167,108,-53
-19,-249,8,489,518,365,181,86,-7,-695
93,-237,-29,414,671,550,315,188,73,-493
217,98,84,213,434,392,301,306,175,-121
236,396,218,73,151,112,147,302,156,-35
141,107,194,68,89,106,139,216,101,-85
90,195,99,22,-10,82,152,160,89,-113
146,382,-42,-47,-96,-5,78,64,28,-100
118,157,-29,15,-45,70,25,2,-31,155
157,25,201,92,-30,120,45,16,-8,437
158,-23,350,140,16,60,33,3,-14,343
33,-195,345,210,-5,-32,-14,-10,-33,169
-94,-93,96,68,-226,-163,-103,-45,-89,71
-134,297,-112,-124,-356,-230,-157,-99,-146,-15
-224,216,-191,-170,-196,-168,-199,-206,-302,-410
-279,-6,-278,-164,-330,-293,-289,-302,-437,-832
-224,-366,-310,-125,-893,-532,-177,-74,-225,-712
-68,-300,-85,-139,-948,-482,-87,61,-18,-307
-8,48,-140,-147,-172,-103,-141,-35,-33,54
-88,-60,-412,-58,794,238,-38,-73,-62,273
-38,-257,-335,26,993,477,202,124,124,322
127,-102,48,53,511,401,284,159,188,268
168,144,263,26,278,382,296,3,36,228
193,233,70,-19,196,330,245,-82,-24,237
157,161,-12,-61,38,30,4,-94,-37,133
127,202,-59,-100,-112,-287,-212,147,93,49
12,166,15,-36,-66,-230,-179,91,-57,-252
-163,-20,157,-21,-141,-250,-293,-248,-384,-498
-107,-290,-37,-56,-229,-205,-221,-179,-243,-116
-45,-329,-127,-40,-30,-135,-212,-135,-99,177
-8,-107,199,34,150,-110,-240,-231,-117,357
58,-50,451,117,-4,-92,-113,-90,-5,549
39,-193,388,112,-99,-8,75,206,203,462
84,-180,145,161,67,151,223,354,298,321
261,251,-264,3,188,149,81,191,159,352
483,473,-207,-81,123,117,13,98,127,214
435,395,173,12,27,169,121,116,147,-225
130,213,560,192,-47,79,128,161,151,-523
-594,-454,507,370,-39,-195,-183,-143,-205,-964
-1167,-1092,-69,164,-183,-394,-469,-537,-586,-1278
-839,-863,-412,-126,-244,-279,-296,-373,-362,-771
-177,-393,154,-81,-30,-47,34,5,107,-14
142,114,598,-124,11,46,136,144,278,276
307,773,-361,-322,-76,27,50,93,265,499
256,563,-694,-163,67,169,111,163,249,565
235,307,-386,-18,181,246,206,213,207,457
237,215,-125,-27,109,217,186,175,155,440
81,88,-102,-6,93,223,184,161,124,375
-7,-9,-84,13,29,142,150,105,75,139
-83,-91,-32,46,-48,56,204,160,42,-392
-11,34,-44,30,-121,-33,221,213,43,-434
109,117,-46,-16,-131,-136,12,40,-18,-86
3,-258,-262,-24,130,75,-45,-66,7,392
-104,-605,-405,-4,44,3,-38,-45,89,780
-213,-641,-292,54,-43,-88,-144,-148,-16,501
-189,-359,-30,78,-32,-20,-136,-125,-101,-165
47,-117,253,39,-67,-7,-18,48,-4,-350
278,551,355,-65,-70,-59,-49,0,-43,-195
373,754,120,-162,1,-11,0,-24,-35,-34
254,490,44,-127,-101,29,121,83,55,8
39,205,112,30,-31,33,49,29,-80,-203
-41,69,67,121,181,111,-30,39,-132,-259
-7,49,35,59,-57,28,23,98,-56,-151
84,64,0,-14,-310,-14,65,133,20,-45
143,77,-7,-52,-461,-29,63,167,96,119
10,-9,-12,-16,-135,-24,-6,70,16,113
-98,-109,-38,76,529,104,31,30,-36,33
-109,-150,-10,90,664,283,121,57,-62,-136
-222,-176,13,68,402,288,118,-39,-175,-373
-246,145,268,1,93,20,-17,-193,-288,-368
-166,412,553,-111,-196,-290,-149,-213,-284,-125
-215,265,380,-183,-168,-332,-292,-189,-287,-202
-374,-288,-103,-247,-182,-341,-482,-440,-518,-510
-341,-801,-601,-287,-468,-424,-355,-462,-478,-394
-183,-578,-382,-64,-278,-153,-101,-307,-229,267
102,27,49,172,156,161,-8,-200,-50,647
470,221,-181,74,130,-18,13,77,239,762
439,8,-252,-45,-245,-199,20,192,342,778
348,-31,60,9,-395,-47,137,198,307,692
242,47,415,229,149,300,215,206,197,99
128,100,558,356,550,308,181,161,82,-395
-58,82,197,254,310,110,79,68,0,-478
-142,144,-387,79,-132,-80,34,120,87,-188
-134,-140,-362,60,-422,-202,-6,107,146,86
-282,-383,-239,-31,-160,-118,-100,-72,5,-56
-248,-107,-160,-128,224,104,-19,-54,-25,-313
-82,292,77,-93,35,95,51,33,40,-473
67,368,130,-8,-304,12,90,120,179,-332
234,259,110,87,-236,115,236,297,368,-37
92,44,421,158,246,151,86,74,145,-217
-117,-152,486,126,500,76,-116,-248,-175,-411
-237,-145,69,-25,396,128,-51,-230,-205,-248
-269,56,-338,-174,181,124,51,-113,-101,-51
-116,-91,-198,-127,99,118,132,-22,-2,124
87,-150,-73,-62,78,69,146,162,204,342
259,145,-284,-28,53,6,6,155,269,425
151,208,-317,-53,-28,-70,-144,16,172,258
-50,89,-144,-125,-130,-188,-255,-88,93,51
17,-10,-66,-119,-134,-148,-180,-42,141,86
70,-175,18,42,-100,-104,-116,51,186,184
-105,-448,76,229,-96,-138,-172,8,86,206
-265,-672,-230,181,-64,-91,-132,-53,-2,237
-321,-706,-361,75,9,-13,-87,-125,-128,137
-143,-300,39,90,110,78,54,-22,-87,54
282,378,390,40,177,212,274,251,161,166
447,585,420,-198,-39,43,105,155,109,274
128,126,-17,-276,-130,-99,-97,-105,-123,193
-92,-306,-266,-124,-27,-52,-33,-150,-201,18
31,-41,-264,-61,-76,38,138,25,-59,4
333,54,161,-11,-170,99,173,106,97,339
505,220,483,-14,-224,18,63,153,166,469
415,288,199,-98,13,29,-12,171,93,425
168,-102,207,4,236,105,1,154,41,320
-173,-166,96,76,130,13,-77,15,-109,-97
-289,52,-79,107,-137,-67,-44,55,-55,-540
-260,440,-132,65,-270,-157,-71,19,-103,-830
-271,244,-132,81,-3,-101,-113,-103,-215,-774
-298,-169,-162,114,138,-78,-104,-132,-170,-445
-163,-87,-177,-1,124,14,-60,-120,-66,-171
132,250,109,-13,122,213,114,-21,38,-4
213,236,192,4,26,178,227,46,88,18
199,154,-55,-18,41,228,205,48,67,25
189,116,-51,-17,-245,-14,80,121,143,89
95,84,57,4,-434,-355,-71,68,79,7
-66,20,37,21,82,-172,-187,-233,-146,-53
-37,57,144,28,392,155,-93,-300,-156,290
87,-8,241,92,-6,207,127,-144,-62,715
185,103,121,114,-5,111,114,-24,66,1105
36,121,-137,-1,389,-71,-139,-159,-33,989
132,147,-301,-157,356,-145,-135,19,42,244
8,107,-108,-90,211,77,70,234,94,-895
-175,58,74,3,188,250,169,197,-17,-1325
-126,75,131,98,95,151,188,183,-8,-951
-28,106,158,143,-107,-13,153,175,43,-483
35,90,99,129,-197,-72,116,185,127,-92
-81,-89,-86,66,-22,-38,-55,-6,9,-75
-301,-333,-294,-62,90,-56,-233,-253,-185,-296
-316,-289,-279,-179,-81,-142,-202,-235,-142,-305
-159,-40,61,-200,-225,-166,-162,-181,-84,-252
86,117,232,-89,-167,-69,-27,-40,56,-7
276,116,-46,64,47,43,81,74,159,454
247,52,-86,96,128,16,59,47,71,584
196,-47,193,83,44,-10,106,141,83,316
137,-141,324,96,-62,2,115,161,95,-134
-4,-168,282,87,7,194,145,149,43,-199
-143,30,-69,-15,87,199,62,51,-71,-97
-129,235,-299,-21,39,150,10,10,-70,9
-39,187,-86,-51,-397,-66,21,34,-9,54
-76,327,8,-196,-517,-318,-144,-177,-184,-133
-50,439,-74,-250,-34,-198,-197,-318,-318,-240
-166,117,159,-172,58,-24,-155,-267,-282,-239
-249,-597,168,-102,-120,-42,-160,-93,-121,-159
-120,-854,63,24,-116,-143,-182,-30,28,43
-48,-499,-162,132,0,-117,-175,-71,71,246
-9,-18,-415,116,285,72,-38,-13,96,385
99,107,-364,83,509,320,238,226,241,420
115,112,-108,39,359,284,256,254,215,246
147,175,-50,-17,131,140,145,155,153,172
133,142,9,20,18,29,42,68,85,119
53,28,95,82,-8,-16,-22,3,-10,59
102,82,23,45,-43,-25,-14,1,-28,124
180,74,-170,-16,68,30,-11,-37,-33,225
105,16,-64,46,255,120,81,-57,-39,240
-75,1,-29,-10,144,57,71,-105,-107,93
-191,-53,-171,-194,-18,-41,20,-54,-67,-164
-206,-234,-141,-222,-80,-79,-15,10,0,-361
-137,-371,3,-124,-90,-84,2,17,14,-323
0,-260,226,-17,-65,-41,27,10,23,-51
108,138,179,2,-70,-18,61,1,45,293
159,366,-91,-81,-155,-50,70,-13,56,489
75,124,-28,7,-40,75,117,-36,19,280
8,-53,90,171,120,206,71,-86,-14,77
87,-22,136,245,2,81,54,68,144,155
116,39,104,205,-165,-48,53,100,181,-18
36,-74,14,-4,-341,-165,-5,12,97,-197
109,140,55,-144,-488,-310,-84,79,161,118
122,418,161,-72,-11,-197,-149,2,68,227
116,206,220,100,527,161,25,33,72,340
175,39,246,222,466,224,145,117,163,526
84,1,144,220,325,176,138,97,94,175
-123,-27,6,91,124,-7,-56,-86,-145,-454
-170,-25,-155,11,3,-151,-186,-220,-254,-656
-87,-164,-280,-28,7,-159,-204,-263,-259,-407
31,-361,-389,-38,2,-37,-80,-161,-146,52
122,-265,-95,-20,-79,55,69,27,-11,363
106,26,375,-16,-169,0,108,139,30,213
-124,45,370,30,-157,-66,61,84,-45,-369
-615,-129,-206,-60,-235,-262,-259,-259,-388,-1055
-934,-617,-514,-114,-344,-275,-320,-336,-482,-1224
-592,-645,-167,-102,-415,-122,-108,-65,-160,-612
0,-63,511,-63,-315,-97,26,152,114,51
321,394,459,-79,132,23,16,103,91,373
368,161,-228,-18,241,82,47,69,86,372
280,-46,-300,43,-15,-56,-16,19,73,166
281,292,-185,-77,-246,-234,-108,-47,43,46
95,171,-77,-182,-83,-44,-116,-93,37,180
64,81,-103,-268,-67,16,-26,26,180,630
237,-45,-62,-224,-187,-132,75,203,327,873
321,-212,145,-63,-168,-140,127,256,338,880
168,-211,215,85,36,46,48,114,191,774
17,341,224,112,-25,220,48,48,84,380
-60,852,121,140,-401,37,57,72,-16,-700
-132,297,-68,206,-347,10,209,235,58,-1279
-183,-1,10,333,156,90,206,163,40,-1020
-366,33,39,340,710,94,-103,-364,-418,-783
-630,-104,162,140,404,-111,-338,-742,-761,-718
-770,-500,309,-67,-131,-370,-459,-855,-837,-727
-578,-1016,434,-134,-153,-231,-301,-446,-436,-405
-164,-1142,337,-239,-170,-163,-61,199,168,185
358,-388,-319,-399,51,139,188,474,552,788
427,530,-556,-464,63,197,184,322,479,908
382,803,-492,-305,-15,125,162,208,361,939
349,483,-292,-20,17,208,282,290,383,737
220,281,4,182,13,203,319,293,304,-17
95,204,78,202,121,196,313,264,171,-621
84,173,73,144,210,166,236,133,16,-643
81,166,21,16,-119,16,123,-12,-117,-408
2,87,-93,-113,-416,-131,54,-77,-160,-200
-3,-17,-152,-118,-83,-31,95,0,-43,57
88,-84,-40,74,436,215,192,135,106,223
186,-156,197,249,254,244,243,126,132,129
95,-178,315,280,-145,48,143,-51,-9,-109
-53,-40,363,286,93,46,16,-199,-161,-308
-119,116,208,227,563,221,-109,-304,-270,-430
-112,-18,-235,13,378,132,-135,-147,-163,-399
-44,-310,-328,-41,186,111,15,140,127,-106
115,-131,-34,-30,61,78,55,94,108,36
250,229,-15,-215,-331,-217,-1,107,149,146
96,426,-85,-332,-671,-500,-236,-31,43,96
-348,168,-67,-235,-391,-241,-355,-243,-198,-73
-447,-185,6,-118,-17,-49,-258,-233,-229,-59
