(-0.45892334, -0.115783691, 0.06561279, 0.878417969)
(-0.459228516, -0.11541748, 0.06573486, 0.8782959)
(-0.459228516, -0.11541748, 0.06573486, 0.8782959)
(-0.458984375, -0.11517334, 0.06573486, 0.878479)
(-0.458740234, -0.115112305, 0.06536865, 0.8786621)
(-0.458435059, -0.11517334, 0.0646972656, 0.8788452)
(-0.458068848, -0.11541748, 0.0642089844, 0.8790283)
(-0.458068848, -0.11541748, 0.0642089844, 0.8790283)
(-0.457763672, -0.115844727, 0.06384277, 0.8791504)
(-0.457763672, -0.115844727, 0.06384277, 0.8791504)
(-0.457519531, -0.116333008, 0.06359863, 0.879272461)
(-0.457214355, -0.117370605, 0.06341553, 0.879272461)
(-0.457214355, -0.117370605, 0.06341553, 0.879272461)
(-0.45703125, -0.117736816, 0.0635376, 0.8793335)
(-0.4569702, -0.117980957, 0.06384277, 0.879272461)
(-0.4569702, -0.117980957, 0.06384277, 0.879272461)
(-0.4570923, -0.118041992, 0.06427002, 0.8792114)
(-0.457336426, -0.117675781, 0.06512451, 0.8790283)
(-0.457336426, -0.117675781, 0.06512451, 0.8790283)
(-0.457580566, -0.117492676, 0.06536865, 0.8789673)
(-0.457885742, -0.116271973, 0.06555176, 0.87890625)
(-0.457885742, -0.116271973, 0.06555176, 0.87890625)
(-0.457946777, -0.1159668, 0.06561279, 0.87890625)
(-0.457946777, -0.1159668, 0.06561279, 0.87890625)
(-0.457946777, -0.1159668, 0.06573486, 0.87890625)
(-0.457946777, -0.1159668, 0.06573486, 0.87890625)
(-0.457946777, -0.116027832, 0.06573486, 0.87890625)
(-0.457946777, -0.116027832, 0.06573486, 0.87890625)
(-0.457946777, -0.116088867, 0.06567383, 0.87890625)
(-0.457763672, -0.116027832, 0.06542969, 0.8790283)
(-0.457763672, -0.116027832, 0.06542969, 0.8790283)
(-0.457336426, -0.1159668, 0.06512451, 0.879272461)
(-0.457336426, -0.1159668, 0.06512451, 0.879272461)
(-0.45690918, -0.115844727, 0.0648193359, 0.8795166)
(-0.456665039, -0.115661621, 0.06439209, 0.8796997)
(-0.456665039, -0.115661621, 0.06439209, 0.8796997)
(-0.456481934, -0.115600586, 0.06402588, 0.8798218)
(-0.456481934, -0.115600586, 0.06402588, 0.8798218)
(-0.456298828, -0.115722656, 0.06365967, 0.879943848)
(-0.456298828, -0.115722656, 0.06365967, 0.879943848)
(-0.4560547, -0.1159668, 0.06341553, 0.8800659)
(-0.4560547, -0.1159668, 0.06341553, 0.8800659)
(-0.455871582, -0.116394043, 0.06335449, 0.880126953)
(-0.455505371, -0.118164063, 0.06286621, 0.8800659)
(-0.455505371, -0.118164063, 0.06286621, 0.8800659)
(-0.4552002, -0.118591309, 0.06286621, 0.880188)
(-0.4550171, -0.119018555, 0.0628051758, 0.880249)
(-0.4550171, -0.119018555, 0.0628051758, 0.880249)
(-0.4550171, -0.119018555, 0.0628051758, 0.880249)
(-0.454956055, -0.11920166, 0.06286621, 0.880249)
(-0.454956055, -0.11920166, 0.06286621, 0.880249)
(-0.455322266, -0.119995117, 0.06304932, 0.879943848)
(-0.455322266, -0.119995117, 0.06304932, 0.879943848)
(-0.4553833, -0.120422363, 0.06329346, 0.8798218)
(-0.4553833, -0.120422363, 0.06329346, 0.8798218)
(-0.455505371, -0.120910645, 0.06365967, 0.8796387)
(-0.455505371, -0.120910645, 0.06365967, 0.8796387)
(-0.455810547, -0.121582031, 0.06390381, 0.879394531)
(-0.456359863, -0.122192383, 0.0640869141, 0.8790283)
(-0.456359863, -0.122192383, 0.0640869141, 0.8790283)
(-0.456665039, -0.122680664, 0.06414795, 0.8787842)
(-0.456665039, -0.122680664, 0.06414795, 0.8787842)
(-0.456665039, -0.12298584, 0.0642089844, 0.878723145)
(-0.456665039, -0.12298584, 0.0642089844, 0.878723145)
(-0.4567871, -0.12322998, 0.0643310547, 0.8786621)
(-0.4570923, -0.123535156, 0.06427002, 0.878417969)
(-0.4570923, -0.123535156, 0.06427002, 0.878417969)
(-0.457519531, -0.123718262, 0.0643310547, 0.8781738)
(-0.457885742, -0.123901367, 0.064453125, 0.8779907)
(-0.458190918, -0.124267578, 0.06512451, 0.877685547)
(-0.458557129, -0.124450684, 0.06542969, 0.8774414)
(-0.458557129, -0.124450684, 0.06542969, 0.8774414)
(-0.458557129, -0.124450684, 0.06542969, 0.8774414)
(-0.45880127, -0.124328613, 0.0659790039, 0.877319336)
(-0.45880127, -0.124328613, 0.0659790039, 0.877319336)
(-0.458740234, -0.124084473, 0.0663452148, 0.877319336)
(-0.458740234, -0.124084473, 0.0663452148, 0.877319336)
(-0.45880127, -0.124084473, 0.0663452148, 0.877319336)
(-0.45880127, -0.124084473, 0.0663452148, 0.877319336)
(-0.45880127, -0.124084473, 0.0663452148, 0.877319336)
(-0.45880127, -0.124084473, 0.0663452148, 0.877319336)
(-0.4588623, -0.1239624, 0.06616211, 0.877319336)
(-0.4588623, -0.1239624, 0.06616211, 0.877319336)
(-0.45880127, -0.123840332, 0.0659790039, 0.8773804)
(-0.4584961, -0.123718262, 0.06591797, 0.8775635)
(-0.4584961, -0.123718262, 0.06591797, 0.8775635)
(-0.4584961, -0.123657227, 0.06591797, 0.8775635)
(-0.4584961, -0.123657227, 0.06591797, 0.8775635)
(-0.4584961, -0.123657227, 0.0659790039, 0.8775635)
(-0.4586792, -0.123474121, 0.0661010742, 0.877502441)
(-0.458557129, -0.122802734, 0.06677246, 0.8775635)
(-0.458557129, -0.122802734, 0.06677246, 0.8775635)
(-0.4586792, -0.122497559, 0.06689453, 0.8775635)
(-0.4586792, -0.122497559, 0.06689453, 0.8775635)
(-0.458740234, -0.122253418, 0.0670166, 0.8775635)
(-0.4588623, -0.122070313, 0.06695557, 0.877502441)
(-0.4588623, -0.122070313, 0.06695557, 0.877502441)
(-0.4590454, -0.121887207, 0.06677246, 0.8774414)
(-0.4590454, -0.121887207, 0.06677246, 0.8774414)
(-0.45916748, -0.121765137, 0.0665893555, 0.8774414)
(-0.459228516, -0.121520996, 0.0664672852, 0.8774414)
(-0.459228516, -0.121520996, 0.0664672852, 0.8774414)
(-0.459106445, -0.12109375, 0.06652832, 0.8775635)
(-0.459106445, -0.12109375, 0.06652832, 0.8775635)
(-0.4590454, -0.12109375, 0.0665893555, 0.8775635)
(-0.4590454, -0.12109375, 0.0665893555, 0.8775635)
(-0.4590454, -0.12109375, 0.0665893555, 0.8775635)
(-0.4590454, -0.12109375, 0.0665893555, 0.8775635)
(-0.459228516, -0.12097168, 0.0665893555, 0.877502441)
(-0.459228516, -0.12097168, 0.0665893555, 0.877502441)
(-0.459228516, -0.12097168, 0.0665893555, 0.877502441)
(-0.458984375, -0.12097168, 0.06665039, 0.8776245)
(-0.458984375, -0.12097168, 0.06665039, 0.8776245)
(-0.458984375, -0.12097168, 0.06665039, 0.8776245)
(-0.458984375, -0.12097168, 0.06665039, 0.8776245)
(-0.4590454, -0.120910645, 0.0667114258, 0.8776245)
(-0.4590454, -0.12097168, 0.06665039, 0.8775635)
(-0.4590454, -0.12097168, 0.06665039, 0.8775635)
(-0.4590454, -0.12097168, 0.06665039, 0.8775635)
(-0.4590454, -0.12097168, 0.06665039, 0.8775635)
(-0.4590454, -0.12097168, 0.06665039, 0.8775635)
(-0.4590454, -0.121032715, 0.06665039, 0.8775635)
(-0.459106445, -0.121032715, 0.06665039, 0.8775635)
(-0.459106445, -0.121032715, 0.06665039, 0.8775635)
(-0.459106445, -0.121032715, 0.06665039, 0.8775635)
(-0.459106445, -0.121032715, 0.06665039, 0.8775635)
(-0.459106445, -0.121032715, 0.06665039, 0.8775635)
(-0.459106445, -0.121032715, 0.06665039, 0.8775635)
(-0.459106445, -0.121032715, 0.06665039, 0.8775635)
(-0.459106445, -0.12121582, 0.06652832, 0.877502441)
(-0.459106445, -0.12121582, 0.06652832, 0.877502441)
(-0.459106445, -0.12121582, 0.06652832, 0.877502441)
(-0.459106445, -0.12121582, 0.06652832, 0.877502441)
(-0.459106445, -0.12121582, 0.06652832, 0.877502441)
(-0.459106445, -0.12121582, 0.06652832, 0.877502441)
(-0.45916748, -0.12121582, 0.06652832, 0.877502441)
(-0.45916748, -0.12121582, 0.06652832, 0.877502441)
(-0.45916748, -0.12121582, 0.06652832, 0.877502441)
(-0.45916748, -0.12121582, 0.06652832, 0.877502441)
(-0.45916748, -0.12121582, 0.06652832, 0.877502441)
(-0.45916748, -0.12121582, 0.06652832, 0.877502441)
(-0.45916748, -0.12121582, 0.06652832, 0.877502441)
(-0.45916748, -0.121276855, 0.06652832, 0.877502441)
(-0.45916748, -0.121276855, 0.06652832, 0.877502441)
(-0.45916748, -0.121276855, 0.06652832, 0.877502441)
(-0.4593506, -0.12109375, 0.0665893555, 0.8773804)
(-0.4593506, -0.12109375, 0.0665893555, 0.8773804)
(-0.459411621, -0.12109375, 0.0665893555, 0.8773804)
(-0.459411621, -0.12109375, 0.0665893555, 0.8773804)
(-0.459411621, -0.12109375, 0.0665893555, 0.8773804)
(-0.459411621, -0.12109375, 0.0665893555, 0.8773804)
(-0.4593506, -0.12109375, 0.0665893555, 0.8773804)
(-0.4593506, -0.12109375, 0.0665893555, 0.8773804)
(-0.459411621, -0.12109375, 0.0665893555, 0.8773804)
(-0.459411621, -0.12109375, 0.0665893555, 0.8773804)
(-0.459411621, -0.121154785, 0.0665893555, 0.8773804)
(-0.459411621, -0.121154785, 0.0665893555, 0.8773804)
(-0.459411621, -0.121154785, 0.0665893555, 0.8773804)
(-0.459411621, -0.121154785, 0.0665893555, 0.8773804)
(-0.459411621, -0.121154785, 0.0665893555, 0.8773804)
(-0.459411621, -0.121154785, 0.0665893555, 0.8773804)
(-0.459472656, -0.121154785, 0.0665893555, 0.8773804)
(-0.459472656, -0.121154785, 0.0665893555, 0.877319336)
(-0.459472656, -0.121154785, 0.0665893555, 0.877319336)
(-0.459472656, -0.121154785, 0.0665893555, 0.877319336)
(-0.4595337, -0.12121582, 0.0665893555, 0.877319336)
(-0.4595337, -0.12121582, 0.0665893555, 0.877319336)
(-0.4595337, -0.12121582, 0.0665893555, 0.877319336)
(-0.4595337, -0.12121582, 0.0665893555, 0.877319336)
(-0.4595337, -0.12121582, 0.0665893555, 0.877319336)
(-0.4595337, -0.12121582, 0.06652832, 0.877319336)
(-0.4595337, -0.12121582, 0.06652832, 0.877319336)
(-0.4595337, -0.121276855, 0.06652832, 0.877319336)
(-0.4595337, -0.121276855, 0.06652832, 0.877319336)
(-0.459594727, -0.121276855, 0.06652832, 0.8772583)
(-0.459594727, -0.121276855, 0.06652832, 0.8772583)
(-0.459594727, -0.121276855, 0.06652832, 0.8772583)
(-0.459594727, -0.121276855, 0.06652832, 0.8772583)
(-0.459655762, -0.121276855, 0.06652832, 0.8772583)
(-0.459655762, -0.121337891, 0.06652832, 0.877197266)
(-0.459655762, -0.121337891, 0.06652832, 0.877197266)
(-0.459655762, -0.121337891, 0.06652832, 0.877197266)
(-0.4597168, -0.121398926, 0.06652832, 0.877197266)
(-0.4597168, -0.121398926, 0.06652832, 0.877197266)
(-0.4597168, -0.121398926, 0.0664672852, 0.877197266)
(-0.4597168, -0.121398926, 0.0664672852, 0.877197266)
(-0.459655762, -0.121459961, 0.06652832, 0.877197266)
(-0.459655762, -0.121459961, 0.0664672852, 0.877197266)
(-0.459655762, -0.121459961, 0.0664672852, 0.877197266)
(-0.459594727, -0.1217041, 0.06652832, 0.877197266)
(-0.459594727, -0.1217041, 0.06652832, 0.877197266)
(-0.459655762, -0.1217041, 0.0664672852, 0.877197266)
(-0.459655762, -0.1217041, 0.0664672852, 0.877197266)
(-0.459655762, -0.1217041, 0.0664672852, 0.877197266)
(-0.459655762, -0.1217041, 0.0664672852, 0.877197266)
(-0.459655762, -0.121765137, 0.0664672852, 0.877197266)
(-0.4595337, -0.122070313, 0.06652832, 0.877197266)
(-0.459472656, -0.122314453, 0.0665893555, 0.877197266)
(-0.459472656, -0.122314453, 0.0665893555, 0.877197266)
(-0.459655762, -0.122558594, 0.0665893555, 0.8770752)
(-0.4595337, -0.122802734, 0.06652832, 0.8770752)
(-0.4595337, -0.122802734, 0.06652832, 0.8770752)
(-0.459594727, -0.122802734, 0.06652832, 0.8770752)
(-0.459594727, -0.122802734, 0.06652832, 0.8770752)
(-0.459594727, -0.122802734, 0.06652832, 0.8770752)
(-0.459594727, -0.122802734, 0.06652832, 0.8770752)
(-0.4598999, -0.12310791, 0.06652832, 0.876831055)
(-0.4598999, -0.12310791, 0.06652832, 0.876831055)
(-0.4598999, -0.12310791, 0.06652832, 0.876831055)
(-0.4598999, -0.12310791, 0.06652832, 0.876831055)
(-0.4598999, -0.123168945, 0.06652832, 0.876831055)
(-0.459960938, -0.123168945, 0.06652832, 0.876831055)
(-0.459960938, -0.123168945, 0.06652832, 0.876831055)
(-0.459960938, -0.123168945, 0.0664672852, 0.876831055)
(-0.459960938, -0.123168945, 0.0664672852, 0.876831055)
(-0.459960938, -0.12322998, 0.0664672852, 0.876831055)
(-0.460021973, -0.12322998, 0.0664672852, 0.87677)
(-0.460021973, -0.12322998, 0.0664672852, 0.87677)
(-0.460021973, -0.123291016, 0.0664672852, 0.87677)
(-0.460021973, -0.123291016, 0.0664672852, 0.87677)
(-0.460021973, -0.123291016, 0.0664672852, 0.87677)
(-0.460021973, -0.123291016, 0.0664672852, 0.87677)
(-0.460021973, -0.123291016, 0.06640625, 0.87677)
(-0.460021973, -0.123291016, 0.06640625, 0.87677)
(-0.460083, -0.123352051, 0.06640625, 0.87677)
(-0.458190918, -0.125976563, 0.06585693, 0.8773804)
(-0.458190918, -0.125976563, 0.06585693, 0.8773804)
(-0.457946777, -0.126831055, 0.06585693, 0.8773804)
(-0.457946777, -0.126831055, 0.06585693, 0.8773804)
(-0.457519531, -0.127807617, 0.0661010742, 0.8774414)
(-0.457519531, -0.127807617, 0.0661010742, 0.8774414)
(-0.457336426, -0.128723145, 0.0663452148, 0.8774414)
(-0.4567871, -0.13079834, 0.0670166, 0.877319336)
(-0.4567871, -0.13079834, 0.0670166, 0.877319336)
(-0.456542969, -0.1315918, 0.06738281, 0.877319336)
(-0.456542969, -0.1315918, 0.06738281, 0.877319336)
(-0.455932617, -0.132324219, 0.06762695, 0.877502441)
(-0.455932617, -0.132324219, 0.06762695, 0.877502441)
(-0.45526123, -0.132873535, 0.06774902, 0.8777466)
(-0.45526123, -0.132873535, 0.06774902, 0.8777466)
(-0.4547119, -0.133483887, 0.06774902, 0.8779907)
(-0.4541626, -0.134155273, 0.06781006, 0.8781128)
(-0.453857422, -0.13458252, 0.0679931641, 0.878234863)
(-0.453369141, -0.135131836, 0.0681152344, 0.878356934)
(-0.453369141, -0.135131836, 0.0681152344, 0.878356934)
(-0.4529419, -0.135742188, 0.0678710938, 0.878540039)
(-0.452575684, -0.136352539, 0.06756592, 0.8786011)
(-0.452575684, -0.136352539, 0.06756592, 0.8786011)
(-0.4520874, -0.136962891, 0.06726074, 0.8788452)
(-0.451782227, -0.137390137, 0.06707764, 0.87890625)
(-0.451782227, -0.137390137, 0.06707764, 0.87890625)
(-0.451843262, -0.137451172, 0.06707764, 0.87890625)
(-0.451782227, -0.137573242, 0.06732178, 0.8788452)
(-0.451782227, -0.137573242, 0.06732178, 0.8788452)
(-0.452026367, -0.137817383, 0.06732178, 0.878723145)
(-0.452026367, -0.1381836, 0.06719971, 0.8786621)
(-0.452026367, -0.1381836, 0.06719971, 0.8786621)
(-0.451843262, -0.138671875, 0.06713867, 0.8786621)
(-0.451843262, -0.138671875, 0.06713867, 0.8786621)
(-0.451660156, -0.139160156, 0.06707764, 0.878723145)
(-0.45135498, -0.140991211, 0.06695557, 0.878540039)
(-0.45135498, -0.140991211, 0.06695557, 0.878540039)
(-0.451293945, -0.141601563, 0.06732178, 0.878479)
(-0.451293945, -0.141601563, 0.06732178, 0.878479)
(-0.451171875, -0.142456055, 0.0678710938, 0.878356934)
(-0.451171875, -0.142456055, 0.0678710938, 0.878356934)
(-0.451293945, -0.143127441, 0.06842041, 0.8781128)
(-0.451293945, -0.143127441, 0.06842041, 0.8781128)
(-0.451293945, -0.1437378, 0.0687255859, 0.878051758)
(-0.450805664, -0.145690918, 0.06976318, 0.877868652)
(-0.450805664, -0.145690918, 0.06976318, 0.877868652)
(-0.4508667, -0.1463623, 0.07019043, 0.877685547)
(-0.4510498, -0.147033691, 0.07086182, 0.8774414)
(-0.4510498, -0.147033691, 0.07086182, 0.8774414)
(-0.451293945, -0.147583008, 0.0715332, 0.87713623)
(-0.451293945, -0.147583008, 0.0715332, 0.87713623)
(-0.4515381, -0.148071289, 0.072265625, 0.8768921)
(-0.4515381, -0.148071289, 0.072265625, 0.8768921)
(-0.452026367, -0.1484375, 0.07366943, 0.876464844)
(-0.452514648, -0.1484375, 0.07501221, 0.876098633)
(-0.452697754, -0.148498535, 0.07556152, 0.8759155)
(-0.452697754, -0.148498535, 0.07556152, 0.8759155)
(-0.452697754, -0.1486206, 0.076171875, 0.8758545)
(-0.4527588, -0.148803711, 0.0769043, 0.8757324)
(-0.4527588, -0.148803711, 0.0769043, 0.8757324)
(-0.45300293, -0.149108887, 0.07775879, 0.8754883)
(-0.45300293, -0.149108887, 0.07775879, 0.8754883)
(-0.45324707, -0.1494751, 0.0785522461, 0.875244141)
(-0.45324707, -0.1494751, 0.0785522461, 0.875244141)
(-0.453552246, -0.149780273, 0.0793457, 0.874938965)
(-0.453552246, -0.149780273, 0.0793457, 0.874938965)
(-0.453674316, -0.149963379, 0.0802001953, 0.874755859)
(-0.453674316, -0.149963379, 0.0802001953, 0.874755859)
(-0.4537964, -0.150146484, 0.08074951, 0.8746338)
(-0.4537964, -0.150146484, 0.08074951, 0.8746338)
(-0.453918457, -0.150268555, 0.08111572, 0.8745117)
(-0.454101563, -0.15045166, 0.08129883, 0.874389648)
(-0.454101563, -0.15057373, 0.08148193, 0.8743286)
(-0.4541626, -0.150817871, 0.0816040039, 0.8742676)
(-0.4543457, -0.1508789, 0.08178711, 0.8740845)
(-0.4543457, -0.1508789, 0.08178711, 0.8740845)
(-0.4545288, -0.151123047, 0.08203125, 0.8739624)
(-0.4545288, -0.151123047, 0.08203125, 0.8739624)
(-0.454650879, -0.151428223, 0.08239746, 0.873840332)
(-0.454956055, -0.151794434, 0.08288574, 0.873535156)
(-0.4550171, -0.152038574, 0.08319092, 0.8734741)
(-0.45526123, -0.152526855, 0.0836181641, 0.873168945)
(-0.455505371, -0.152526855, 0.08380127, 0.8730469)
(-0.455505371, -0.152526855, 0.08380127, 0.8730469)
(-0.4557495, -0.15246582, 0.0843505859, 0.87286377)
(-0.4557495, -0.15246582, 0.0843505859, 0.87286377)
(-0.4557495, -0.15246582, 0.0843505859, 0.87286377)
(-0.4557495, -0.15246582, 0.0843505859, 0.87286377)
(-0.455932617, -0.152282715, 0.0844726563, 0.872802734)
(-0.455932617, -0.152282715, 0.0844726563, 0.872802734)
(-0.4564209, -0.152038574, 0.08483887, 0.8725586)
(-0.4564209, -0.152038574, 0.08483887, 0.8725586)
(-0.456665039, -0.1519165, 0.08496094, 0.8724365)
(-0.456665039, -0.1519165, 0.08496094, 0.8724365)
(-0.4567871, -0.151794434, 0.08514404, 0.8723755)
(-0.4567871, -0.151794434, 0.08514404, 0.8723755)
(-0.4569702, -0.1515503, 0.08538818, 0.872314453)
(-0.45690918, -0.151489258, 0.0855102539, 0.872314453)
(-0.45690918, -0.151489258, 0.0855102539, 0.872314453)
(-0.4569702, -0.151428223, 0.0856323242, 0.872314453)
(-0.4569702, -0.151306152, 0.08581543, 0.8722534)
(-0.45703125, -0.151306152, 0.0859985352, 0.8722534)
(-0.45703125, -0.151306152, 0.0859985352, 0.8722534)
(-0.45703125, -0.151306152, 0.0859985352, 0.8722534)
(-0.45703125, -0.151306152, 0.0859985352, 0.8722534)
(-0.4570923, -0.151306152, 0.0859985352, 0.8721924)
(-0.4570923, -0.151306152, 0.0859985352, 0.8721924)
(-0.4570923, -0.151306152, 0.0859985352, 0.8721924)
(-0.4570923, -0.151306152, 0.0859985352, 0.8721924)
(-0.45715332, -0.151306152, 0.0859985352, 0.8721924)
(-0.45715332, -0.151367188, 0.0859985352, 0.872131348)
(-0.457214355, -0.151367188, 0.0859985352, 0.872131348)
(-0.457214355, -0.151367188, 0.0859985352, 0.872131348)
(-0.4574585, -0.151306152, 0.0861206055, 0.8720093)
(-0.4574585, -0.151306152, 0.0861206055, 0.8720093)
(-0.457580566, -0.151306152, 0.0863647461, 0.8718872)
(-0.457580566, -0.151306152, 0.0863647461, 0.8718872)
(-0.457580566, -0.151306152, 0.0863647461, 0.8718872)
(-0.457580566, -0.151306152, 0.0863647461, 0.8718872)
(-0.457580566, -0.151306152, 0.0863647461, 0.8718872)
(-0.457580566, -0.151306152, 0.0863647461, 0.8718872)
(-0.4576416, -0.151306152, 0.0863647461, 0.8718872)
