(-0.474060059, -0.127807617, 0.155090332, 0.85723877)
(-0.4727173, -0.128417969, 0.155578613, 0.8577881)
(-0.4749756, -0.129821777, 0.155456543, 0.8563843)
(-0.478271484, -0.129882813, 0.154907227, 0.854614258)
(-0.478271484, -0.129882813, 0.154907227, 0.854614258)
(-0.477050781, -0.127624512, 0.1506958, 0.8563843)
(-0.477050781, -0.127624512, 0.1506958, 0.8563843)
(-0.476623535, -0.1260376, 0.147766113, 0.85736084)
(-0.4732666, -0.12677002, 0.1486206, 0.8590088)
(-0.471618652, -0.130493164, 0.150085449, 0.8590698)
(-0.471618652, -0.130493164, 0.150085449, 0.8590698)
(-0.4713745, -0.132507324, 0.153381348, 0.8583374)
(-0.472839355, -0.137695313, 0.158996582, 0.855651855)
(-0.472839355, -0.137695313, 0.158996582, 0.855651855)
(-0.475402832, -0.144897461, 0.1651001, 0.8519287)
(-0.474609375, -0.1515503, 0.172790527, 0.8496704)
(-0.4727173, -0.159240723, 0.182006836, 0.8473511)
(-0.4720459, -0.167480469, 0.1897583, 0.8444214)
(-0.4720459, -0.167480469, 0.1897583, 0.8444214)
(-0.473022461, -0.176818848, 0.196289063, 0.840515137)
(-0.475402832, -0.185913086, 0.202148438, 0.8357544)
(-0.475402832, -0.185913086, 0.202148438, 0.8357544)
(-0.47668457, -0.193603516, 0.207946777, 0.831848145)
(-0.47668457, -0.193603516, 0.207946777, 0.831848145)
(-0.4779663, -0.200500488, 0.21282959, 0.8283081)
(-0.480285645, -0.206604, 0.215881348, 0.824646)
(-0.484069824, -0.212463379, 0.2175293, 0.8204956)
(-0.487426758, -0.216918945, 0.218261719, 0.8171387)
(-0.487426758, -0.216918945, 0.218261719, 0.8171387)
(-0.48840332, -0.2189331, 0.220031738, 0.815551758)
(-0.4868164, -0.219482422, 0.2220459, 0.8157959)
(-0.4868164, -0.219482422, 0.2220459, 0.8157959)
(-0.488769531, -0.219726563, 0.221252441, 0.8147583)
(-0.488769531, -0.219726563, 0.221252441, 0.8147583)
(-0.490722656, -0.219909668, 0.220947266, 0.813659668)
(-0.4928589, -0.21875, 0.2218628, 0.8123779)
(-0.4928589, -0.21875, 0.2218628, 0.8123779)
(-0.494018555, -0.2177124, 0.2220459, 0.8119507)
(-0.4920044, -0.214294434, 0.222595215, 0.8139038)
(-0.492614746, -0.214111328, 0.22277832, 0.8135376)
(-0.492614746, -0.214111328, 0.22277832, 0.8135376)
(-0.4935913, -0.213623047, 0.2230835, 0.8129883)
(-0.4935913, -0.213623047, 0.2230835, 0.8129883)
(-0.493713379, -0.212280273, 0.222900391, 0.813293457)
(-0.4937744, -0.210998535, 0.22277832, 0.813659668)
(-0.4935913, -0.209777832, 0.222900391, 0.8140259)
(-0.4935913, -0.209777832, 0.222900391, 0.8140259)
(-0.493652344, -0.209411621, 0.222961426, 0.8140869)
(-0.494873047, -0.209960938, 0.222961426, 0.8131714)
(-0.494873047, -0.209960938, 0.222961426, 0.8131714)
(-0.494873047, -0.2098999, 0.223571777, 0.8130493)
(-0.494873047, -0.2098999, 0.223571777, 0.8130493)
(-0.494934082, -0.209472656, 0.223937988, 0.8129883)
(-0.494934082, -0.209472656, 0.223937988, 0.8129883)
(-0.495056152, -0.20892334, 0.223815918, 0.813110352)
(-0.495178223, -0.208251953, 0.223876953, 0.8131714)
(-0.495178223, -0.208251953, 0.223876953, 0.8131714)
(-0.4951172, -0.208435059, 0.223815918, 0.8131714)
(-0.4951172, -0.208435059, 0.223815918, 0.8131714)
(-0.494812, -0.2086792, 0.223815918, 0.813293457)
(-0.494812, -0.2086792, 0.223815918, 0.813293457)
(-0.494140625, -0.2088623, 0.223999023, 0.813598633)
(-0.494140625, -0.2088623, 0.223999023, 0.813659668)
(-0.494567871, -0.2086792, 0.223693848, 0.813476563)
(-0.494567871, -0.2086792, 0.223693848, 0.813476563)
(-0.494934082, -0.2084961, 0.223876953, 0.813293457)
(-0.494934082, -0.2084961, 0.223876953, 0.813293457)
(-0.494689941, -0.208374023, 0.2243042, 0.8133545)
(-0.494689941, -0.208374023, 0.2243042, 0.8133545)
(-0.49432373, -0.208068848, 0.2244873, 0.813598633)
(-0.49432373, -0.208068848, 0.2244873, 0.813598633)
(-0.4940796, -0.2078247, 0.224731445, 0.8137207)
(-0.494018555, -0.2078247, 0.224731445, 0.8137207)
(-0.494018555, -0.2078247, 0.224731445, 0.8137207)
(-0.494384766, -0.208068848, 0.224731445, 0.813476563)
(-0.494384766, -0.208068848, 0.224731445, 0.813476563)
(-0.494384766, -0.208007813, 0.224731445, 0.813476563)
(-0.494384766, -0.208007813, 0.224731445, 0.813476563)
(-0.4944458, -0.208007813, 0.224731445, 0.813476563)
(-0.4944458, -0.208007813, 0.224731445, 0.813476563)
(-0.494140625, -0.2078247, 0.225036621, 0.813598633)
(-0.494140625, -0.2078247, 0.225036621, 0.813598633)
(-0.493835449, -0.207763672, 0.225036621, 0.8138428)
(-0.493896484, -0.207763672, 0.22479248, 0.8138428)
(-0.493896484, -0.207763672, 0.22479248, 0.8138428)
(-0.49432373, -0.207946777, 0.224365234, 0.813659668)
(-0.49432373, -0.207946777, 0.224365234, 0.813659668)
(-0.49432373, -0.207946777, 0.224365234, 0.813659668)
(-0.49432373, -0.207946777, 0.224365234, 0.813659668)
(-0.49432373, -0.207946777, 0.224365234, 0.813659668)
(-0.4940796, -0.207946777, 0.2243042, 0.8138428)
(-0.4942627, -0.207580566, 0.224060059, 0.8138428)
(-0.4942627, -0.207580566, 0.224060059, 0.8138428)
(-0.4940796, -0.207336426, 0.223876953, 0.8140869)
(-0.4940796, -0.207336426, 0.223876953, 0.8140869)
(-0.494384766, -0.2074585, 0.223632813, 0.813964844)
(-0.494140625, -0.207336426, 0.223571777, 0.814147949)
(-0.493896484, -0.207214355, 0.223510742, 0.814331055)
(-0.493896484, -0.207214355, 0.223510742, 0.814331055)
(-0.4935913, -0.20715332, 0.223388672, 0.8145752)
(-0.4935913, -0.20715332, 0.223388672, 0.8145752)
(-0.493652344, -0.20715332, 0.2232666, 0.8145752)
(-0.493652344, -0.20715332, 0.2232666, 0.8145752)
(-0.493652344, -0.207336426, 0.223022461, 0.8145752)
(-0.4942627, -0.20715332, 0.22253418, 0.8143921)
(-0.4942627, -0.20715332, 0.22253418, 0.8143921)
(-0.4942627, -0.207214355, 0.22253418, 0.8143921)
(-0.4942627, -0.207214355, 0.22253418, 0.8143921)
(-0.493652344, -0.206787109, 0.222595215, 0.814819336)
(-0.493652344, -0.206787109, 0.222595215, 0.814819336)
(-0.493530273, -0.206542969, 0.22253418, 0.815002441)
(-0.4935913, -0.206359863, 0.222412109, 0.8150635)
(-0.493896484, -0.206176758, 0.222167969, 0.8149414)
(-0.493896484, -0.206176758, 0.222167969, 0.8149414)
(-0.49395752, -0.206115723, 0.222167969, 0.8149414)
(-0.49395752, -0.206115723, 0.222167969, 0.8149414)
(-0.493896484, -0.205993652, 0.222351074, 0.8149414)
(-0.493469238, -0.206054688, 0.22265625, 0.8151245)
(-0.493469238, -0.206054688, 0.22265625, 0.8151245)
(-0.493347168, -0.2062378, 0.222717285, 0.8151245)
(-0.493347168, -0.2062378, 0.222717285, 0.8151245)
(-0.493530273, -0.206481934, 0.222595215, 0.815002441)
(-0.493530273, -0.206481934, 0.222595215, 0.815002441)
(-0.4935913, -0.206481934, 0.222595215, 0.8149414)
(-0.4935913, -0.206481934, 0.222595215, 0.8149414)
(-0.4935913, -0.206481934, 0.222595215, 0.8149414)
(-0.4935913, -0.206481934, 0.222595215, 0.8149414)
(-0.4935913, -0.206481934, 0.222595215, 0.8149414)
(-0.493652344, -0.206481934, 0.222595215, 0.8149414)
(-0.493713379, -0.206726074, 0.222595215, 0.814819336)
(-0.493713379, -0.206726074, 0.222595215, 0.814819336)
(-0.4937744, -0.206787109, 0.222595215, 0.8147583)
(-0.4937744, -0.206787109, 0.222595215, 0.8147583)
(-0.49420166, -0.206848145, 0.222595215, 0.81451416)
(-0.4940796, -0.206787109, 0.222839355, 0.81451416)
(-0.4940796, -0.206787109, 0.222839355, 0.81451416)
(-0.493652344, -0.206604, 0.222961426, 0.8147583)
(-0.4934082, -0.206542969, 0.22277832, 0.815002441)
(-0.4934082, -0.206542969, 0.22277832, 0.815002441)
(-0.4934082, -0.206542969, 0.22277832, 0.815002441)
(-0.4934082, -0.206542969, 0.22277832, 0.815002441)
(-0.4934082, -0.206542969, 0.22277832, 0.815002441)
(-0.4934082, -0.206542969, 0.22277832, 0.815002441)
(-0.493347168, -0.206665039, 0.222961426, 0.8149414)
(-0.493347168, -0.206665039, 0.222961426, 0.8149414)
(-0.4935913, -0.20703125, 0.222900391, 0.814697266)
(-0.4935913, -0.20703125, 0.222900391, 0.814697266)
(-0.493896484, -0.206970215, 0.222900391, 0.8145752)
(-0.494384766, -0.20715332, 0.22265625, 0.81427)
(-0.494384766, -0.20715332, 0.22265625, 0.81427)
(-0.4944458, -0.207092285, 0.22265625, 0.81427)
(-0.4944458, -0.207092285, 0.22265625, 0.81427)
(-0.493713379, -0.206848145, 0.222961426, 0.814697266)
(-0.493713379, -0.206848145, 0.222961426, 0.814697266)
(-0.4932251, -0.20715332, 0.22265625, 0.815002441)
(-0.4932251, -0.20715332, 0.22265625, 0.815002441)
(-0.493713379, -0.207214355, 0.222595215, 0.814697266)
(-0.494140625, -0.20715332, 0.2230835, 0.814331055)
(-0.494140625, -0.20715332, 0.2230835, 0.814331055)
(-0.494140625, -0.2074585, 0.223388672, 0.814147949)
(-0.494140625, -0.2074585, 0.223388672, 0.814147949)
(-0.494567871, -0.207702637, 0.223205566, 0.8139038)
(-0.4944458, -0.207336426, 0.223327637, 0.8140259)
(-0.4944458, -0.207336426, 0.223327637, 0.8140259)
(-0.494018555, -0.207275391, 0.2234497, 0.81427)
(-0.494018555, -0.207275391, 0.2234497, 0.81427)
(-0.493652344, -0.207275391, 0.223571777, 0.8144531)
(-0.493652344, -0.207275391, 0.223571777, 0.8144531)
(-0.494140625, -0.207580566, 0.223205566, 0.814209)
(-0.4940796, -0.208068848, 0.223632813, 0.813964844)
(-0.49432373, -0.207885742, 0.223815918, 0.8138428)
(-0.494384766, -0.207885742, 0.223815918, 0.813781738)
(-0.494384766, -0.207885742, 0.223815918, 0.813781738)
(-0.493042, -0.207275391, 0.2244873, 0.8145752)
(-0.493042, -0.207275391, 0.2244873, 0.8145752)
(-0.493042, -0.207336426, 0.2244873, 0.8145752)
(-0.493530273, -0.207397461, 0.224365234, 0.81427)
(-0.493530273, -0.207397461, 0.224365234, 0.81427)
(-0.493530273, -0.207397461, 0.224365234, 0.81427)
(-0.493164063, -0.207397461, 0.22479248, 0.8143921)
(-0.493164063, -0.207397461, 0.22479248, 0.8143921)
(-0.492797852, -0.207397461, 0.225036621, 0.81451416)
(-0.4923706, -0.207275391, 0.2253418, 0.814697266)
(-0.4923706, -0.207275391, 0.2253418, 0.814697266)
(-0.492431641, -0.207702637, 0.225158691, 0.81463623)
(-0.492431641, -0.207702637, 0.225158691, 0.81463623)
(-0.492980957, -0.208007813, 0.22479248, 0.814331055)
(-0.492980957, -0.208007813, 0.22479248, 0.814331055)
(-0.492980957, -0.208007813, 0.22479248, 0.814331055)
(-0.492980957, -0.207946777, 0.22479248, 0.814331055)
(-0.492980957, -0.207946777, 0.22479248, 0.814331055)
(-0.492675781, -0.208007813, 0.224853516, 0.81451416)
(-0.492736816, -0.208007813, 0.224853516, 0.8144531)
(-0.492736816, -0.208007813, 0.224853516, 0.8144531)
(-0.492736816, -0.208007813, 0.224853516, 0.8144531)
(-0.492614746, -0.208007813, 0.225097656, 0.8144531)
(-0.4928589, -0.208007813, 0.225280762, 0.81427)
(-0.4928589, -0.208007813, 0.225280762, 0.81427)
(-0.4928589, -0.208007813, 0.225280762, 0.81427)
(-0.4928589, -0.208007813, 0.225280762, 0.81427)
(-0.4925537, -0.2078247, 0.225463867, 0.8144531)
(-0.4925537, -0.2078247, 0.225463867, 0.8144531)
(-0.4925537, -0.2078247, 0.225463867, 0.8144531)
(-0.4925537, -0.2078247, 0.225463867, 0.8144531)
(-0.492919922, -0.208129883, 0.225219727, 0.814209)
(-0.492919922, -0.208129883, 0.225219727, 0.814209)
(-0.493103027, -0.208068848, 0.225463867, 0.8140869)
(-0.4925537, -0.208068848, 0.225646973, 0.814331055)
(-0.4925537, -0.208068848, 0.225646973, 0.814331055)
(-0.4921875, -0.2084961, 0.2255249, 0.81451416)
(-0.4925537, -0.208740234, 0.225219727, 0.81427)
(-0.492614746, -0.2086792, 0.225219727, 0.81427)
(-0.492614746, -0.2086792, 0.225219727, 0.81427)
(-0.492248535, -0.208740234, 0.225280762, 0.8144531)
(-0.492248535, -0.208740234, 0.225280762, 0.8144531)
(-0.4918213, -0.2086792, 0.225463867, 0.814697266)
(-0.49230957, -0.208251953, 0.224975586, 0.81463623)
(-0.49230957, -0.208251953, 0.224975586, 0.81463623)
(-0.49230957, -0.208251953, 0.224975586, 0.81463623)
(-0.491882324, -0.208190918, 0.224975586, 0.8148804)
(-0.491882324, -0.208190918, 0.224975586, 0.8148804)
(-0.491882324, -0.208190918, 0.224975586, 0.8148804)
(-0.491882324, -0.208190918, 0.224975586, 0.8148804)
(-0.491882324, -0.208190918, 0.224975586, 0.8148804)
(-0.491882324, -0.208190918, 0.224975586, 0.8148804)
(-0.49206543, -0.208129883, 0.225097656, 0.8147583)
(-0.49206543, -0.208129883, 0.225097656, 0.8147583)
(-0.49206543, -0.208068848, 0.225097656, 0.8147583)
(-0.49206543, -0.208068848, 0.225097656, 0.8147583)
(-0.492431641, -0.208007813, 0.225036621, 0.81463623)
(-0.492431641, -0.208007813, 0.225036621, 0.8145752)
(-0.492431641, -0.208007813, 0.225036621, 0.8145752)
(-0.4921875, -0.208007813, 0.225158691, 0.814697266)
(-0.4921875, -0.207946777, 0.225158691, 0.8147583)
(-0.4928589, -0.208129883, 0.2253418, 0.814209)
(-0.4928589, -0.208129883, 0.2253418, 0.814209)
(-0.4928589, -0.208190918, 0.2255249, 0.814147949)
(-0.4928589, -0.208190918, 0.2255249, 0.814147949)
(-0.492614746, -0.208190918, 0.225708008, 0.81427)
(-0.492614746, -0.208190918, 0.225708008, 0.81427)
(-0.492431641, -0.208068848, 0.225708008, 0.8143921)
(-0.492431641, -0.208068848, 0.225708008, 0.8143921)
(-0.492492676, -0.208312988, 0.225646973, 0.814331055)
(-0.4928589, -0.2088623, 0.226074219, 0.8138428)
(-0.4928589, -0.2088623, 0.226074219, 0.8138428)
(-0.492797852, -0.208557129, 0.2263794, 0.8138428)
(-0.492797852, -0.208557129, 0.2263794, 0.8138428)
(-0.492736816, -0.208312988, 0.226623535, 0.8139038)
(-0.492736816, -0.208312988, 0.226623535, 0.8139038)
(-0.4923706, -0.208374023, 0.2267456, 0.8140869)
(-0.492126465, -0.208374023, 0.226806641, 0.814209)
(-0.492126465, -0.208374023, 0.226806641, 0.814209)
(-0.491882324, -0.208618164, 0.226867676, 0.81427)
(-0.4918213, -0.20892334, 0.226806641, 0.81427)
(-0.49206543, -0.209228516, 0.226501465, 0.8140869)
(-0.49206543, -0.209228516, 0.226501465, 0.8140869)
(-0.4921875, -0.209350586, 0.226623535, 0.813964844)
(-0.4921875, -0.209350586, 0.226623535, 0.813964844)
(-0.4918213, -0.209350586, 0.227050781, 0.8140869)
(-0.491455078, -0.209472656, 0.226806641, 0.814331055)
(-0.491455078, -0.209472656, 0.226806641, 0.814331055)
(-0.4915161, -0.209472656, 0.226806641, 0.81427)
(-0.4915161, -0.209472656, 0.226806641, 0.81427)
(-0.491088867, -0.209228516, 0.226928711, 0.8145752)
(-0.491088867, -0.209228516, 0.226928711, 0.8145752)
(-0.490844727, -0.208984375, 0.227050781, 0.8147583)
(-0.490844727, -0.208984375, 0.227050781, 0.8147583)
(-0.490844727, -0.20892334, 0.227050781, 0.8147583)
(-0.490844727, -0.20892334, 0.227050781, 0.8147583)
(-0.490722656, -0.208740234, 0.227355957, 0.814819336)
(-0.490539551, -0.208740234, 0.227478027, 0.8148804)
(-0.490539551, -0.208740234, 0.227478027, 0.8148804)
(-0.490539551, -0.2086792, 0.227478027, 0.8148804)
(-0.490539551, -0.2086792, 0.227478027, 0.8148804)
(-0.490539551, -0.2086792, 0.227478027, 0.8148804)
(-0.490539551, -0.2086792, 0.227478027, 0.8148804)
(-0.49041748, -0.208557129, 0.227478027, 0.815002441)
(-0.490234375, -0.2084961, 0.227661133, 0.8150635)
(-0.490234375, -0.2084961, 0.227661133, 0.8150635)
(-0.490234375, -0.2084961, 0.227661133, 0.8150635)
(-0.490234375, -0.2084961, 0.227661133, 0.8150635)
(-0.490234375, -0.2084961, 0.227661133, 0.8150635)
(-0.49041748, -0.208618164, 0.227722168, 0.8149414)
(-0.49041748, -0.208618164, 0.227722168, 0.8148804)
(-0.49041748, -0.208618164, 0.227722168, 0.8148804)
(-0.490478516, -0.208618164, 0.227722168, 0.8148804)
(-0.490478516, -0.208618164, 0.227722168, 0.8148804)
(-0.490478516, -0.208618164, 0.227722168, 0.8148804)
(-0.490478516, -0.208618164, 0.227722168, 0.8148804)
(-0.490478516, -0.208618164, 0.227722168, 0.8148804)
(-0.490478516, -0.208618164, 0.227722168, 0.8148804)
(-0.4902954, -0.208374023, 0.227722168, 0.815002441)
(-0.490234375, -0.208312988, 0.228027344, 0.8150635)
(-0.489868164, -0.208557129, 0.22857666, 0.815002441)
(-0.489868164, -0.208557129, 0.22857666, 0.815002441)
(-0.489685059, -0.208740234, 0.2286377, 0.8150635)
(-0.489685059, -0.208740234, 0.2286377, 0.8150635)
(-0.489685059, -0.208740234, 0.2286377, 0.8150635)
(-0.489990234, -0.2084961, 0.22857666, 0.8149414)
(-0.489990234, -0.2084961, 0.22857666, 0.8149414)
(-0.490356445, -0.2084961, 0.22833252, 0.814819336)
(-0.490356445, -0.2084961, 0.22833252, 0.814819336)
(-0.490234375, -0.208068848, 0.22845459, 0.8149414)
(-0.490234375, -0.208068848, 0.22845459, 0.8149414)
(-0.49017334, -0.208068848, 0.22845459, 0.815002441)
(-0.49017334, -0.208068848, 0.22845459, 0.815002441)
(-0.490356445, -0.208007813, 0.228393555, 0.8149414)
(-0.4906006, -0.207763672, 0.228210449, 0.8148804)
(-0.4906006, -0.207763672, 0.228210449, 0.8148804)
(-0.4906006, -0.207763672, 0.228210449, 0.8148804)
(-0.490356445, -0.207580566, 0.22833252, 0.815002441)
(-0.490356445, -0.207580566, 0.22833252, 0.815002441)
(-0.4901123, -0.207519531, 0.22833252, 0.815185547)
(-0.4901123, -0.207519531, 0.22833252, 0.815185547)
(-0.490356445, -0.207580566, 0.228149414, 0.8151245)
(-0.4907837, -0.207336426, 0.228210449, 0.8148804)
(-0.4907837, -0.207336426, 0.228210449, 0.8148804)
(-0.4911499, -0.207092285, 0.228271484, 0.814697266)
(-0.4911499, -0.207092285, 0.228271484, 0.814697266)
(-0.4911499, -0.207092285, 0.228271484, 0.814697266)
(-0.4911499, -0.207092285, 0.228271484, 0.814697266)
(-0.490722656, -0.20690918, 0.228759766, 0.8148804)
(-0.490722656, -0.20690918, 0.228759766, 0.8148804)
(-0.490722656, -0.20690918, 0.228759766, 0.8148804)
(-0.491027832, -0.20690918, 0.22857666, 0.8147583)
(-0.491027832, -0.20690918, 0.22857666, 0.8147583)
(-0.491088867, -0.20690918, 0.22857666, 0.814697266)
(-0.491088867, -0.20690918, 0.22857666, 0.814697266)
(-0.490661621, -0.206726074, 0.228942871, 0.8149414)
(-0.4906006, -0.206726074, 0.228942871, 0.8149414)
(-0.4906006, -0.206726074, 0.228942871, 0.8149414)
(-0.491210938, -0.206970215, 0.2288208, 0.8145752)
(-0.491455078, -0.206970215, 0.228759766, 0.8143921)
(-0.491455078, -0.206970215, 0.228759766, 0.8143921)
