78,-1,-8,-20,-26,-14,-6,-3,6,69
95,-22,-58,-34,-35,-19,-22,-4,-19,68
70,-20,-126,-47,-49,-6,-12,3,-22,71
17,-25,-104,-32,-31,19,1,12,3,64
-42,-42,-39,4,8,23,13,28,8,49
-99,-47,6,10,22,28,30,44,0,41
-72,-1,-3,14,21,34,34,53,7,25
26,62,-11,-13,9,6,25,57,29,32
37,12,-4,-20,10,0,21,28,16,29
-6,-38,-3,-1,26,26,12,13,-32,11
-43,-19,23,7,29,38,14,1,-56,-26
-50,-13,46,21,28,26,40,3,-41,-34
-46,-25,19,25,24,17,58,13,-32,-22
-43,-18,-1,3,15,20,31,12,-38,-10
-50,10,25,0,10,17,-14,-13,-42,-13
-15,9,56,16,1,-1,-38,-41,-60,-29
128,20,72,18,-11,-20,-35,-52,-67,-32
183,3,57,9,-19,-8,-32,-37,-55,-17
93,-20,36,9,-20,-12,-5,-32,-41,-24
-8,-12,20,0,-24,-21,10,-26,-32,-20
-24,33,32,-2,-22,-16,16,-21,-23,-1
3,54,0,9,-17,-13,41,7,1,17
-5,23,-56,25,3,19,55,12,-4,20
-51,-52,-5,40,20,26,47,-5,-26,-12
-101,-96,3,32,30,22,55,10,-23,-29
-151,-72,-3,37,28,20,45,3,-25,-78
-164,-46,-8,31,33,32,29,-1,-33,-136
-115,-36,-9,26,29,28,-18,-21,-44,-140
-78,-45,1,27,13,12,-36,-25,-26,-95
-73,-83,-2,24,10,7,-8,15,34,-36
-83,-143,-21,12,9,13,-2,13,60,-17
-101,-114,0,17,3,16,-15,-9,44,-55
-163,-30,59,50,8,0,-32,-53,-10,-99
-199,80,119,49,-15,-34,-62,-97,-58,-127
-150,190,98,-12,-77,-101,-118,-157,-123,-174
-147,69,6,-84,-153,-169,-209,-222,-188,-217
-144,-49,27,-32,-118,-149,-189,-187,-166,-177
-126,-5,74,11,-60,-76,-113,-117,-99,-100
-73,370,83,19,-52,-64,-61,-66,-55,-55
27,670,69,7,-30,-43,-5,-20,-6,-13
161,170,-31,9,45,60,107,107,130,119
179,-153,-155,-11,70,100,151,185,205,176
116,-161,-156,-21,66,90,156,201,205,155
135,-68,-127,-11,58,85,154,192,191,135
95,-4,-162,0,64,61,148,179,185,94
13,8,-82,2,70,39,99,130,139,45
8,-15,-33,0,64,6,52,69,66,24
36,-3,-29,1,63,-11,11,26,23,25
33,-10,3,-2,43,-10,-30,4,2,23
0,-3,-17,-10,28,-20,-12,-8,-1,23
-3,-16,-128,-8,16,-9,16,-2,0,25
20,-5,-137,-9,8,-9,25,11,13,25
25,-8,-18,-4,4,0,16,3,-1,10
5,-14,26,-2,9,9,8,-9,-4,1
-7,-19,29,0,8,-4,3,-13,1,-1
-4,-16,41,6,4,1,-1,-29,2,-4
0,-23,39,5,-8,12,0,-29,-12,9
51,-14,32,-5,-7,-2,-5,-29,-24,-10
76,7,54,9,-1,2,4,-26,-40,-27
69,9,58,1,-5,17,-4,-24,-62,-19
149,35,29,-15,-18,0,-24,-34,-78,4
199,74,23,-25,-45,-28,-34,-42,-87,16
200,69,9,-27,-65,-48,-34,-36,-61,45
319,36,3,-25,-62,-38,-34,-4,-8,141
511,87,16,-38,-75,-62,-54,9,31,186
571,111,31,-52,-80,-81,-75,-21,5,145
333,77,3,-40,-54,-61,-81,-45,-32,97
82,73,-12,-44,-62,-48,-82,-37,-35,85
-41,42,-71,-81,-104,-76,-99,-22,32,117
-147,-70,-101,-92,-107,-74,-98,2,120,143
-203,-140,-101,-56,-72,-37,-62,29,115,108
-183,-156,-97,-7,-20,16,-7,37,76,34
-131,-137,-137,13,4,23,12,26,36,-28
-174,-62,-67,9,11,20,11,17,16,-46
-164,77,-13,14,11,8,28,17,25,-29
-194,96,19,41,23,12,61,19,30,-16
-337,-23,42,65,42,61,78,45,24,-28
-306,-67,23,48,37,73,73,67,37,-2
-251,-102,-21,26,43,46,58,69,60,27
-315,-147,-40,38,63,51,66,63,69,18
-254,-133,-34,36,58,52,62,56,57,-6
-71,-91,-47,21,38,41,62,61,82,3
29,-95,-79,8,15,17,56,63,64,12
-55,-118,-47,-4,0,-21,-4,0,-22,-28
-162,-48,73,18,-6,-57,-72,-85,-77,-89
-185,-29,144,28,-7,-72,-118,-120,-109,-127
-60,12,127,5,-30,-77,-126,-131,-124,-116
177,60,80,-29,-47,-90,-129,-130,-102,-67
324,59,27,-32,-28,-53,-98,-86,-62,-35
342,17,4,-14,10,2,-36,-26,-27,-18
388,-20,16,10,40,31,2,-7,-15,26
590,50,1,-5,4,-16,-24,-33,-16,80
574,135,12,-7,-35,-46,-59,-57,-23,118
197,94,19,21,-17,-37,-36,-51,-37,144
-106,30,51,48,2,-41,-12,-55,-20,175
23,50,60,28,-28,-72,-49,-67,2,199
223,49,22,-6,-50,-86,-83,-23,48,248
147,-32,-35,-28,-39,-46,-38,32,64,225
1,-126,-98,-50,-55,-47,-34,56,74,157
-215,-218,-118,-54,-53,-58,-63,51,99,80
-367,-257,-95,-6,11,13,-7,54,96,-20
-390,-260,-104,72,119,148,113,124,87,-97
-358,-184,-30,123,152,178,144,142,89,-141
-310,45,73,99,91,89,45,45,43,-188
-286,155,100,85,61,34,-13,-23,-43,-267
-257,107,84,80,73,42,-14,-17,-85,-304
-123,88,54,63,67,34,11,-20,-93,-302
35,122,24,51,40,8,-1,-60,-105,-275
223,254,45,14,-10,-53,-55,-118,-135,-197
284,303,59,7,-8,-58,-54,-115,-124,-119
197,185,44,30,20,-13,-7,-54,-52,-61
409,154,7,14,13,-22,10,-10,5,-15
507,144,-13,1,3,-41,4,-6,20,7
241,95,-43,3,-9,-62,-33,-44,2,34
99,66,-68,-6,-22,-80,-85,-78,-24,68
105,-15,-27,-22,-25,-65,-70,-61,-8,132
-2,-122,-65,-15,-15,-40,-14,-17,29,170
-405,-155,-7,45,38,21,35,17,57,88
-766,-125,147,128,119,116,123,73,87,-50
-644,-71,153,155,141,142,190,91,84,-119
-366,-8,51,99,99,100,132,49,42,-99
-160,90,67,42,43,55,33,14,25,-54
-54,146,32,18,22,17,-39,-24,-8,-34
-32,145,-51,5,18,4,-75,-34,-44,-36
-53,99,22,5,37,25,-56,6,-26,-26
-42,48,49,23,61,24,-19,43,0,-28
-13,29,64,35,77,37,26,83,33,-49
-66,12,77,42,89,59,36,94,49,-84
-155,-24,83,48,72,57,5,42,-15,-131
-184,-38,66,29,54,37,48,27,-46,-147
-165,-44,45,15,46,24,95,38,-30,-125
-110,-50,30,3,30,10,34,15,-37,-85
-41,-46,11,-4,17,-13,8,0,-34,-43
58,-30,-52,-31,10,-19,27,13,-13,-8
68,-11,-100,-30,-8,-20,22,10,-16,14
42,-14,-77,-29,-14,-33,14,-7,-17,12
25,1,-68,-14,-7,-19,20,-1,-28,3
0,9,28,-13,-10,-16,22,-7,-44,-9
32,46,24,-22,-15,-5,18,-23,-37,-11
126,87,7,-28,-14,-19,16,-26,-34,0
182,75,0,-28,-11,-1,29,-3,-26,15
152,54,10,-24,-13,4,39,19,-10,33
101,25,31,-25,-6,3,17,-2,-12,36
67,18,32,-12,4,4,-15,-18,-18,35
91,33,29,-24,1,-20,-22,-24,-17,37
111,26,23,-31,-3,-22,-24,-28,-14,39
80,-3,13,-34,2,-27,-7,-15,0,75
59,-26,13,-41,9,-10,0,16,25,120
194,1,14,-29,10,-14,2,34,33,137
288,15,10,-30,15,-2,26,39,33,125
324,0,-12,-35,16,4,29,9,2,97
272,8,-6,-40,-8,-10,-4,-19,2,78
64,34,-2,-54,-31,-19,-29,-29,15,42
122,50,-1,-70,-42,-35,-32,-33,32,55
255,33,-6,-51,-28,-39,-22,-27,53,91
281,47,-6,-47,-29,-22,-23,-38,21,75
172,68,-20,-73,-59,-39,-56,-70,-25,9
-206,0,-18,-82,-86,-61,-94,-103,-69,-33
-367,-61,-44,-91,-106,-61,-93,-89,-44,-5
-280,-77,-66,-103,-94,-34,-48,-26,14,42
-136,-53,-93,-92,-68,-18,-38,14,56,68
41,-50,-78,-71,-70,-29,-56,12,59,16
93,-76,-27,-55,-61,-17,-32,-5,48,-38
-93,-37,26,1,-8,45,31,42,74,-13
-129,66,44,39,31,81,73,95,114,35
-73,101,42,23,23,61,62,77,94,4
-164,71,37,25,36,66,54,52,30,-92
-37,117,2,5,0,18,-27,-15,-42,-133
159,243,-65,-47,-69,-55,-113,-103,-91,-74
205,247,-49,-67,-81,-66,-102,-112,-67,5
332,168,-55,-70,-72,-47,-62,-81,-41,65
290,50,-88,-71,-56,-37,-44,-54,-18,78
19,-110,-58,-10,0,51,34,36,59,141
-201,-188,-8,63,76,138,129,143,175,236
26,-101,11,57,52,101,86,101,153,240
291,-32,40,13,-14,36,-6,10,40,162
485,-75,8,-24,-56,-20,-64,-30,-13,77
749,-47,-61,-56,-80,-57,-106,-57,-44,57
776,-3,-82,-56,-86,-52,-105,-55,-52,75
561,-8,-69,-63,-86,-53,-93,-74,-73,57
344,-23,-68,-70,-103,-87,-98,-96,-75,54
-115,-101,-47,-34,-49,-6,-18,2,10,71
-605,-168,-10,38,58,120,91,127,105,11
-999,-160,53,129,157,193,147,179,97,-216
-918,-96,78,174,200,215,145,165,24,-389
-763,-55,84,175,194,206,141,145,17,-395
-838,-62,116,177,209,209,168,184,65,-331
-666,-76,66,138,186,190,148,161,47,-301
-431,-79,21,88,128,132,86,102,-16,-302
-347,-34,21,83,89,82,35,45,-57,-273
-281,27,35,80,57,35,-21,-3,-72,-226
-196,41,86,71,32,9,-44,-11,-74,-171
-133,12,76,39,24,-2,-23,-2,-55,-112
-90,7,37,20,21,-20,13,12,-28,-61
-20,9,21,14,14,-24,26,0,-27,-4
70,28,-4,3,7,-29,4,-12,-29,43
248,74,-34,-23,-9,-53,-26,-43,-42,93
392,120,4,-56,-56,-108,-62,-62,-34,152
291,121,0,-92,-108,-159,-111,-74,-1,221
119,108,-24,-118,-158,-179,-132,-79,10,263
170,108,-43,-121,-151,-167,-109,-59,19,275
523,149,-68,-141,-146,-166,-107,-63,11,320
503,87,-116,-151,-135,-146,-105,-47,22,315
59,-87,-114,-101,-77,-65,-19,87,142,333
-46,-152,-91,-61,-22,-13,33,177,242,413
595,-74,-84,-71,-31,-24,0,82,117,391
1328,-23,-136,-154,-100,-87,-58,-47,-30,322
1388,-35,-159,-173,-115,-92,-86,-84,-52,227
1039,3,-139,-107,-79,-63,-103,-77,-9,91
557,33,-103,-44,-28,-28,-61,-35,-10,-56
473,77,10,-35,-27,-29,-29,-73,-131,-189
186,82,1,-6,15,10,1,-63,-167,-265
-979,-41,40,117,148,172,110,68,-100,-409
-1795,-102,123,224,291,325,247,212,17,-500
-1586,-44,121,233,297,346,298,221,45,-520
-1154,-36,127,169,209,241,211,143,9,-463
-780,-63,50,100,115,123,89,96,21,-313
-579,-136,-16,51,70,73,57,106,47,-198
-495,-171,-33,15,51,69,95,108,48,-160
-335,-102,-27,12,38,37,72,82,45,-121
-116,-8,2,15,29,-12,-9,19,16,-66
-12,16,18,0,9,-29,-33,-21,17,-1
9,56,23,-10,-18,-59,-71,-62,-24,3
34,166,86,-11,-48,-99,-129,-121,-79,-20
204,247,163,4,-56,-118,-155,-161,-105,-29
435,179,141,-2,-66,-100,-86,-155,-108,6
615,132,96,-11,-47,-56,-38,-127,-99,38
428,150,88,13,-9,-18,-41,-79,-75,45
0,131,64,24,10,11,-26,-26,-29,44
-112,84,40,7,-7,4,-15,-6,-9,65
-126,44,0,-14,-29,-17,-9,7,23,121
-178,-9,-31,-19,-22,-21,9,36,66,157
-137,-45,-59,-24,-24,-25,-1,34,65,146
40,-52,-90,-36,-40,-22,-19,20,68,130
160,-43,-57,-38,-33,-27,-23,4,61,95
208,63,-10,-58,-63,-63,-75,-60,-5,36
14,119,-1,-91,-109,-96,-126,-109,-74,-40
-439,-26,-69,-114,-115,-102,-113,-103,-90,-139
-498,-122,-115,-132,-138,-140,-124,-124,-99,-129
-159,-115,-131,-147,-167,-157,-138,-130,-76,-42
168,-81,-81,-96,-95,-90,-50,-53,9,65
331,-71,-12,-15,-4,1,60,33,83,140
286,-118,12,35,54,82,118,103,121,190
257,-101,9,44,46,79,122,85,106,216
361,7,-4,10,3,17,80,24,64,244
379,92,16,-19,-49,-46,16,-34,57,223
225,116,30,-32,-83,-80,-22,-44,45,190
208,61,24,-42,-92,-107,-77,-69,14,124
558,-9,-19,-89,-135,-158,-123,-126,-28,138
1273,-71,-60,-133,-153,-167,-121,-123,10,284
1343,-155,-68,-95,-106,-98,-37,-43,93,364
-187,-138,28,34,35,46,112,82,197,297
-594,65,98,76,54,66,109,67,157,203
-168,121,28,8,-21,-8,12,-32,60,177
-417,-100,-70,-14,0,17,40,-18,44,123
-840,-263,-51,51,93,118,127,32,29,-94
-742,-148,-2,89,140,146,120,2,-109,-404
-433,13,17,90,124,130,83,-63,-243,-696
-799,36,48,156,180,188,151,3,-203,-774
-973,29,101,193,206,223,170,55,-122,-667
-624,7,122,172,175,188,153,50,-86,-495
-206,-1,113,150,151,173,148,62,-13,-312
247,23,77,88,92,104,75,29,2,-116
395,9,16,0,12,20,-16,-4,-10,-5
472,16,-35,-52,-34,-33,-70,-35,-32,15
640,73,-24,-54,-50,-35,-82,-44,-25,63
957,144,-16,-66,-70,-60,-95,-61,-21,133
1226,162,-34,-106,-110,-117,-131,-107,-44,219
1251,138,-72,-143,-144,-157,-109,-108,-17,375
863,78,-120,-159,-168,-173,-87,-95,28,467
397,-39,-131,-127,-117,-127,-44,-86,19,417
171,-129,-123,-94,-76,-95,-28,-35,35,410
-178,-95,-92,-61,-63,-86,-40,1,96,467
-238,-67,-117,-50,-50,-58,-22,27,135,487
282,-11,-134,-108,-97,-82,-46,5,84,430
-297,19,-79,-68,-88,-69,-54,16,68,222
-1075,-120,21,23,6,35,23,97,99,11
-812,-148,66,63,57,77,68,114,77,-132
-698,-142,109,129,125,134,137,149,73,-253
-1368,-258,177,236,248,254,279,214,88,-430
-1103,-184,156,187,200,201,214,123,-18,-497
-540,19,117,99,88,75,82,-9,-127,-474
-256,179,97,49,40,0,15,-49,-130,-381
-80,218,11,21,21,-13,13,-10,-77,-277
-28,99,-134,-18,-9,-25,9,23,-25,-174
384,-58,-219,-86,-62,-70,-62,-42,-66,-49
1270,-117,-176,-126,-105,-123,-138,-90,-88,129
1750,-59,-127,-131,-112,-126,-151,-88,-76,250
1549,-34,-117,-130,-119,-131,-149,-87,-78,258
1013,-121,-146,-72,-72,-96,-112,-54,-66,197
486,-150,-2,33,18,11,-18,5,0,102
139,-48,122,55,9,4,-22,0,-14,-37
-466,-14,112,3,-42,-58,-92,-72,-90,-168
-172,15,2,-79,-119,-116,-148,-101,-104,-31
607,183,-103,-163,-187,-180,-199,-133,-105,202
678,316,-122,-125,-155,-149,-144,-113,-72,344
-249,305,47,33,32,32,36,53,76,346
-668,234,140,111,137,127,113,122,103,146
-297,206,96,82,102,69,91,46,-1,-121
-221,28,51,74,103,56,101,32,0,-223
-379,-121,81,100,115,68,114,59,29,-105
-582,-155,127,107,112,70,99,62,57,-9
-783,-215,94,72,76,62,76,39,56,-79
-1008,-331,60,46,71,65,46,45,40,-148
-1132,-350,62,61,106,116,119,96,59,-257
-783,-80,86,75,91,88,122,48,-5,-396
-277,185,89,40,52,18,44,12,-19,-330
-264,93,45,-2,22,-9,-3,13,10,-135
-838,-80,36,24,49,35,30,51,17,-112
-568,49,39,22,41,29,35,31,-4,-105
470,368,-1,-73,-79,-118,-94,-92,-76,29
630,412,-40,-153,-178,-210,-195,-152,-94,143
209,193,-61,-157,-183,-205,-130,-151,-79,169
-177,-26,-100,-127,-150,-151,-50,-89,-21,111
-91,-223,-109,-73,-80,-86,-17,-39,38,108
-11,12,4,48,40,7,-1,-65,-78,-142
-224,-21,9,59,62,27,38,-29,-54,-234
25,-56,-3,32,48,26,66,15,0,-193
387,-80,-66,-25,-5,-27,5,-18,3,-48
472,-108,-113,-77,-36,-60,-24,-25,32,108
282,-20,-96,-106,-89,-126,-89,-81,15,184
284,242,-5,-151,-194,-272,-235,-235,-114,188
751,297,0,-155,-215,-306,-278,-300,-194,147
430,115,21,-10,-20,-69,-43,-59,-24,107
-139,-47,54,166,188,198,255,230,220,41
19,-198,30,154,178,195,266,243,261,-15
352,-365,19,53,64,93,141,154,219,53
158,-415,-1,42,56,77,110,167,244,192
247,-343,-75,14,16,30,37,93,151,173
559,-228,-95,6,4,17,16,20,20,-17
-238,-57,121,126,105,115,98,55,-16,-264
-1379,203,194,179,141,149,94,55,-37,-423
-1397,216,13,102,76,91,14,11,-70,-426
-896,63,-72,52,47,66,-15,-9,-82,-368
-470,-8,-2,16,27,45,-32,-13,-66,-280
-178,36,0,-12,5,14,-16,-9,-21,-161
341,79,0,-20,-7,17,32,29,65,20
904,95,-25,-67,-63,-48,-13,10,108,175
936,73,-56,-106,-122,-121,-85,-43,79,202
458,-13,-63,-89,-90,-87,-33,3,139,208
81,-91,-13,-27,-3,-20,49,79,197,316
930,169,122,48,-12,-29,-27,4,107,617
1697,217,35,-35,-68,-87,-72,-31,101,699
1809,144,-87,-142,-173,-162,-127,-74,95,689
1345,-10,-186,-186,-205,-165,-132,-66,109,642
669,-50,-179,-174,-184,-159,-138,-61,93,463
-98,-10,-127,-119,-178,-153,-161,-118,-26,28
-1048,-9,-59,-38,-97,-67,-114,-120,-109,-302
-2006,-49,92,47,10,38,-19,-38,-93,-405
-1144,71,43,-21,-51,-23,-64,-71,-88,-126
239,245,-33,-132,-159,-130,-154,-152,-88,156
891,194,-134,-153,-186,-155,-207,-160,-84,116
1097,68,-190,-153,-179,-147,-229,-141,-72,-25
863,115,-231,-175,-201,-176,-241,-145,-52,119
544,300,-252,-261,-333,-312,-341,-255,-119,292
710,390,-125,-325,-439,-423,-449,-358,-172,319
611,275,121,-124,-233,-240,-264,-182,-8,281
-519,42,378,222,149,123,153,162,213,58
-794,-450,142,263,292,311,380,342,314,-39
-298,-719,-218,90,203,270,326,308,270,94
286,-406,-215,-8,71,128,140,137,77,143
1180,13,-138,-12,22,53,41,15,-38,227
1812,175,-85,-25,-16,0,11,-62,-116,300
1455,224,111,-2,-42,-81,-55,-116,-152,434
887,270,221,-39,-164,-253,-260,-265,-192,595
70,128,250,-12,-170,-274,-312,-246,-170,382
-590,-121,235,73,11,-45,-98,-47,-50,25
-1011,-212,194,162,160,152,123,166,114,-256
-2689,-386,110,265,316,348,336,373,241,-455
-3149,-271,101,298,368,396,373,345,138,-657
-2338,-48,164,314,389,371,348,247,-15,-1023
-1312,15,220,299,334,294,341,125,-217,-1293
-565,-104,161,206,224,167,253,-18,-371,-1216
-287,-210,95,155,193,133,209,31,-254,-841
53,-129,132,197,248,196,260,163,-79,-536
-299,-1,218,269,324,274,321,218,-25,-555
-1424,-26,209,285,350,315,355,220,-14,-688
-1227,-84,89,188,260,227,280,160,-4,-592
-539,-93,0,67,124,92,132,79,66,-319
-270,-11,-71,-26,0,-58,-50,-32,77,-168
-407,30,-77,-55,-43,-109,-112,-84,-8,-247
-518,69,-5,-20,-28,-106,-152,-128,-82,-278
-532,89,3,27,3,-80,-164,-135,-98,-265
-501,12,21,59,66,-38,-127,-61,-28,-204
-325,-134,0,86,117,13,-54,19,51,-54
-120,-155,-37,82,117,34,-13,40,107,93
80,-23,-29,29,29,-21,-61,-12,75,181
220,43,-25,-7,-54,-76,-105,-29,43,260
381,19,-66,-74,-95,-82,-93,-5,71,314
999,44,-67,-177,-179,-143,-134,-48,59,454
1421,23,-109,-241,-226,-216,-169,-100,42,551
1583,-43,-152,-282,-247,-241,-193,-139,30,573
1592,-18,-198,-316,-303,-276,-246,-216,-90,455
1169,-24,-210,-287,-262,-220,-216,-177,-89,304
1243,129,-271,-329,-329,-297,-302,-235,-132,429
2176,549,-308,-389,-448,-450,-449,-412,-264,589
1104,594,-272,-302,-372,-389,-416,-360,-215,519
356,489,-133,-235,-303,-306,-341,-286,-175,328
696,414,30,-124,-184,-172,-199,-171,-99,294
-387,234,152,64,65,120,104,154,222,413
-700,96,101,103,124,200,168,207,231,99
-596,188,126,35,20,58,10,13,6,-274
45,139,100,-12,-39,-6,-8,66,197,323
1286,175,34,-94,-131,-94,-71,135,483,1188
1249,320,34,-164,-268,-275,-259,-39,383,1252
696,80,-34,-169,-264,-320,-327,-143,178,914
680,-479,-151,-117,-112,-152,-151,-14,198,833
-468,-807,-48,143,240,274,306,346,375,585
-1793,-766,70,422,569,635,643,547,318,-231
-1773,-441,37,419,531,568,541,351,-56,-967
-1346,-256,-15,197,223,225,173,10,-332,-845
-94,-50,-74,-30,-53,-78,-116,-196,-331,-190
1074,-55,-163,-247,-292,-344,-342,-355,-332,222
1378,-242,-208,-301,-338,-380,-365,-321,-203,417
299,-134,-84,-121,-126,-134,-113,-36,58,246
531,99,133,104,102,93,90,126,107,-209
1652,346,247,192,148,92,23,27,-71,-464
-836,319,325,351,320,276,183,157,-63,-767
-3270,303,311,350,311,276,193,136,-139,-1016
-2620,348,270,188,135,96,15,-15,-217,-850
-1435,44,169,183,195,200,167,209,61,-342
-176,-189,-7,115,194,245,271,353,279,98
864,-250,-151,-2,88,122,145,181,153,230
1450,-299,-235,-131,-92,-102,-92,-88,-80,254
1556,-139,-192,-214,-239,-307,-306,-339,-322,171
805,61,-57,-134,-178,-258,-222,-317,-289,165
214,13,41,64,65,-11,55,-6,35,218
-2579,-433,114,347,428,412,480,454,392,-79
-2924,-462,129,421,525,520,587,527,387,-469
-1366,-163,94,322,396,370,421,343,182,-580
-647,0,30,167,241,206,233,168,9,-581
-717,-59,11,73,152,84,106,28,-163,-765
-706,-196,-45,16,74,17,47,-23,-238,-697
-334,-310,-92,41,106,104,132,64,-134,-454
-330,-144,54,191,260,270,286,213,36,-412
-292,67,87,148,160,158,191,166,27,-424
298,159,-47,-73,-130,-138,-113,-72,-113,-141
1432,141,-132,-221,-325,-326,-301,-248,-201,207
2240,136,-205,-359,-477,-514,-483,-408,-272,391
2382,599,-219,-545,-705,-797,-756,-666,-442,504
1921,1290,-176,-674,-884,-994,-971,-887,-599,446
907,1338,-142,-614,-823,-933,-912,-814,-530,222
16,791,-80,-384,-524,-599,-579,-512,-334,-218
-75,-142,-10,-24,-26,-63,-27,-34,-23,-398
-261,-844,94,421,543,604,703,678,694,357
358,-522,95,357,483,569,651,668,750,792
1508,83,-16,-3,22,31,53,66,185,681
1182,-34,-102,23,14,-11,-39,-68,-19,504
-1067,-443,-26,370,443,466,445,344,216,181
-2957,-737,85,572,750,837,829,717,474,-248
-3359,-588,204,502,670,742,707,610,338,-801
-2750,-292,252,345,411,411,378,266,15,-1240
-1298,-226,84,118,120,110,79,-1,-131,-937
2766,127,-102,-259,-285,-315,-327,-314,-236,-69
67,199,283,152,147,115,129,71,56,-74
-1354,-51,416,370,416,414,449,348,229,-130
-1006,-184,265,249,325,356,372,343,244,-34
-1048,-37,104,90,134,171,156,191,209,237
-425,75,-48,-16,-10,-2,-8,52,209,603
501,83,-103,-185,-210,-219,-204,-72,181,864
1389,45,-136,-366,-439,-452,-443,-246,93,1127
2252,-41,-264,-520,-615,-603,-586,-407,-28,1450
1997,-227,-361,-474,-474,-431,-415,-296,-25,1101
589,-245,-274,-175,-102,-11,-19,-16,-7,162
-208,148,-194,40,138,253,240,174,34,-371
195,719,-110,-67,-26,68,60,8,-84,-637
870,1124,-63,-342,-441,-421,-441,-497,-487,-662
3170,1046,-166,-517,-709,-746,-752,-722,-445,514
4162,31,-356,-453,-575,-584,-561,-427,-1,1452
1581,-1092,-533,-372,-366,-286,-249,-35,408,1816
-1803,-1252,-461,-215,-130,4,76,311,687,1671
-2310,-532,-164,12,87,196,278,465,688,727
-313,459,67,-7,-33,0,37,123,172,-432
-593,741,210,111,83,79,80,64,-47,-870
155,488,330,258,290,240,216,58,-212,-1042
250,33,375,289,288,225,146,-133,-561,-1643
-2999,-273,625,617,618,569,448,89,-593,-2327
-3882,-326,658,743,800,779,686,338,-347,-2004
-1358,159,329,289,314,293,256,31,-393,-1005
1196,374,-39,-126,-128,-155,-128,-217,-355,-51
616,-125,-245,-173,-131,-114,-46,-32,-17,364
-1052,-603,-201,8,100,173,242,311,376,401
-1849,-703,-147,14,83,156,243,339,492,616
-1359,-391,-46,-88,-103,-81,0,110,378,809
911,-17,70,-131,-226,-251,-210,-125,136,728
1312,93,140,45,-40,-72,-16,-4,146,587
-354,72,127,180,163,165,224,185,196,180
-467,-139,-35,22,33,33,93,13,-83,-451
1498,-531,-362,-244,-213,-202,-137,-236,-397,-958
2240,-565,-411,-285,-261,-253,-196,-277,-422,-829
-974,15,192,210,153,147,171,105,-16,-438
-768,1148,599,345,179,118,132,104,122,117
1373,1479,279,-87,-282,-333,-292,-270,-85,373
2178,1263,0,-352,-561,-582,-556,-522,-367,8
77,642,124,-70,-222,-224,-233,-259,-298,-495
-2933,-203,292,385,385,422,433,372,203,-410
-2211,-796,137,406,483,557,574,529,344,71
217,-852,-136,106,199,309,319,304,187,455
1291,-359,-239,-179,-182,-73,-64,-66,-93,394
650,322,-93,-215,-292,-238,-273,-278,-336,-386
-2210,809,229,37,-106,-112,-247,-345,-666,-1770
-4514,574,329,286,194,192,53,-131,-644,-2150
-2332,-507,27,213,242,331,272,120,-234,-997
1243,-1334,-247,21,102,248,265,248,210,541
3122,-887,-322,-174,-159,-60,-26,30,252,1448
2651,-187,-247,-102,-116,-30,2,107,424,1605
3072,148,-355,-180,-196,-74,16,233,669,1793
1273,-277,-632,-403,-346,-153,-3,378,968,2010
1704,-602,-837,-652,-578,-394,-241,179,827,1705
1454,-543,-449,-458,-511,-434,-400,-158,234,544
-4039,-432,429,450,380,425,328,293,93,-942
-4609,306,876,902,849,869,692,427,-207,-2024
-2363,1097,672,494,381,364,163,-157,-760,-2205
-1038,1236,487,76,-128,-198,-381,-651,-1034,-1750
326,876,344,-89,-306,-364,-487,-664,-842,-884
2008,61,133,-59,-125,-116,-118,-147,-117,328
2665,-645,-21,60,159,254,340,433,601,942
1614,-515,-33,96,194,259,299,355,442,412
-1475,-194,133,208,251,262,222,188,151,28
-829,250,125,112,126,123,95,75,132,589
1550,411,-107,-144,-117,-122,-100,-22,221,1391
1291,181,-250,-200,-146,-131,-79,44,347,1595
-578,105,-80,-37,-7,-2,17,106,264,871
-2453,-57,125,123,132,130,138,150,143,-22
-2419,-156,90,97,117,138,143,82,-126,-1134
-907,-155,-175,-232,-239,-243,-251,-369,-642,-1914
112,-340,-409,-458,-486,-483,-515,-588,-761,-1638
2196,-419,-291,-216,-184,-151,-172,-192,-248,-586
3964,148,90,136,158,171,135,59,-50,-219
611,429,206,166,137,138,97,5,-89,-106
-425,-160,-112,-111,-94,-38,-12,-4,117,689
1295,-219,-450,-501,-502,-417,-316,-199,208,1321
1692,729,-475,-707,-828,-804,-705,-594,-81,884
-264,1333,-119,-446,-602,-625,-522,-435,-3,596
-889,1145,38,-131,-269,-292,-237,-229,-15,111
380,-117,42,30,-65,-110,-158,-278,-340,-648
-1556,-1404,140,405,441,457,414,226,-39,-830
-2869,-1177,237,680,841,941,961,788,555,-54
381,-671,-112,314,532,664,744,691,636,1041
3136,-470,-482,-221,-46,36,146,149,237,1559
1966,-188,-277,-106,-12,36,126,102,157,1109
-2730,140,184,409,485,525,587,512,395,5
-4051,441,404,521,528,543,560,402,160,-1394
-2780,547,408,387,321,307,249,0,-434,-2555
-2480,326,450,408,351,313,227,-43,-537,-2283
-995,288,377,199,126,74,52,-139,-332,-828
986,238,-31,-218,-298,-334,-280,-340,-221,385
2215,98,-397,-567,-632,-647,-521,-462,-119,1104
2958,-124,-576,-747,-787,-772,-573,-416,160,1716
3306,-307,-385,-566,-639,-622,-452,-304,253,1599
3035,-428,-291,-453,-511,-487,-389,-290,78,1097
-1460,-488,-6,38,82,131,129,114,93,-35
-3659,563,558,604,616,583,440,166,-375,-1983
-444,1347,610,563,502,382,209,-198,-887,-2329
845,547,273,330,363,317,244,-35,-455,-843
387,-373,-52,156,295,349,403,301,139,-36
-948,-846,-27,312,480,575,655,626,474,-661
-3075,-495,178,387,459,507,482,391,115,-1536
-1866,-274,105,214,242,260,232,94,-146,-804
1437,-103,-161,-151,-137,-143,-115,-180,-189,482
2439,131,-224,-303,-331,-332,-294,-249,-102,972
-192,158,89,-15,-33,-38,25,90,152,193
-2498,-49,346,260,235,190,240,211,63,-1171
-2246,-596,29,52,82,86,127,110,-20,-1042
997,-914,-484,-366,-247,-199,-92,0,133,536
4175,-481,-660,-611,-547,-545,-433,-294,21,1426
2059,21,-207,-198,-199,-236,-208,-140,21,925
-2333,247,312,358,414,385,366,365,222,-235
-2885,482,403,407,485,462,452,385,50,-1179
-996,324,221,232,323,278,316,248,-33,-1052
1091,152,110,38,65,-22,36,-4,-81,-207
2956,334,69,-159,-210,-317,-264,-247,-82,869
2326,199,-96,-230,-226,-278,-204,-131,95,1250
-784,-385,-318,-197,-66,-18,83,219,394,1174
-499,-779,-587,-322,-112,8,176,349,534,895
1575,-421,-472,-387,-291,-244,-111,-32,89,18
1075,42,-35,-153,-164,-222,-178,-262,-334,-665
-694,88,139,58,63,-19,-36,-222,-458,-814
-1843,28,51,78,65,32,-7,-65,-202,-173
-1823,-271,-114,44,86,106,102,191,248,765
-761,-191,-158,-52,-1,27,27,90,145,806
759,421,7,-224,-303,-340,-368,-369,-361,363
-329,1024,253,-199,-361,-424,-500,-526,-561,-249
-599,1304,272,-128,-274,-359,-396,-446,-491,-790
-120,37,312,245,236,226,233,119,-52,-1098
75,-519,106,157,168,188,206,152,69,-247
-365,-811,-344,-168,-156,-117,-94,-54,72,884
2247,-457,-454,-410,-430,-390,-331,-187,223,1784
4952,21,-323,-373,-370,-298,-157,139,830,2800
3795,517,19,-192,-243,-219,-75,268,934,2659
2005,460,231,-171,-361,-418,-360,-146,306,1598
-738,291,428,107,-63,-108,-160,-209,-238,256
-3177,120,449,427,403,429,295,-12,-626,-1562
-4339,-211,261,467,566,665,534,199,-515,-2190
-3367,-278,70,315,423,585,529,376,-35,-1479
-1945,-314,8,164,223,368,359,337,119,-1240
-1566,-247,23,61,43,110,68,-19,-375,-1993
-1454,-510,-39,67,89,192,174,18,-499,-1976
-342,-801,-213,-16,60,214,232,136,-261,-933
690,-538,-189,-104,-54,69,64,-3,-206,-406
-908,-209,47,62,68,172,180,192,142,-40
184,419,131,47,-24,40,91,144,271,508
2645,831,-153,-330,-478,-478,-391,-315,45,1389
5400,741,-585,-764,-946,-952,-836,-663,-23,2584
6183,8,-893,-921,-1023,-967,-832,-612,100,3085
4465,-305,-765,-643,-654,-552,-430,-290,183,2367
863,400,-110,-143,-189,-173,-186,-284,-219,553
-4587,1237,599,264,60,-30,-155,-411,-674,-1558
-4664,612,574,302,130,45,8,-123,-320,-1548
-2910,-466,150,173,132,152,208,239,230,-750
-2686,-493,142,364,362,408,414,369,222,-1013
-3476,-711,290,731,877,980,992,838,469,-1346
-2355,-272,288,661,827,948,947,743,306,-1604
-177,127,133,379,483,571,541,329,-51,-1544
1064,-100,-202,101,196,279,272,133,-121,-954
2333,-576,-598,-254,-131,-15,21,26,-6,33
3212,-650,-539,-506,-478,-390,-345,-299,-167,635
2431,-481,-230,-349,-388,-344,-264,-203,3,995
-533,25,102,27,14,83,189,298,504,1176
20,-9,-17,14,27,143,292,461,695,1110
966,-651,-189,-125,-154,-84,51,223,407,588
-2546,-844,289,232,155,164,178,204,116,-661
-4908,-457,694,663,619,609,548,411,-2,-1834
-1493,631,623,429,325,268,188,-6,-422,-1831
-285,969,414,176,56,7,-41,-206,-488,-1196
82,704,265,119,29,22,20,-45,-122,-107
816,386,71,-36,-105,-82,-76,-53,25,872
752,147,-33,-144,-205,-163,-161,-61,83,1177
-86,-97,-26,-126,-172,-119,-97,28,229,875
-172,-77,-52,-137,-172,-113,-76,72,292,98
6,82,-129,-174,-220,-190,-167,-47,110,-429
370,48,-281,-258,-312,-276,-229,-117,47,239
1055,-148,-261,-295,-331,-284,-223,-118,72,1006
1749,-147,-99,-159,-165,-126,-84,-91,-24,851
794,-244,-35,33,104,170,216,135,-10,57
-73,-341,-27,55,167,227,316,240,66,-106
374,-326,1,49,137,195,285,265,275,399
923,118,159,-9,-68,-94,-12,-18,156,487
1290,457,206,-167,-376,-496,-469,-505,-319,134
885,241,70,-183,-301,-366,-304,-332,-174,198
-60,241,30,-53,-94,-104,-44,-62,40,225
-749,597,165,24,-66,-96,-95,-162,-222,-413
-981,630,191,0,-88,-124,-143,-235,-373,-671
-498,183,56,-56,-94,-102,-102,-143,-153,-340
1173,-401,-218,-89,-25,51,95,121,196,260
2383,-347,-367,-159,-87,19,68,74,131,535
2753,-39,-316,-334,-318,-259,-194,-222,-63,615
3006,-108,-453,-618,-665,-637,-519,-491,-102,904
3300,-460,-487,-745,-833,-830,-703,-635,-145,1050
267,-527,38,-90,-169,-163,-126,-101,135,418
-3706,-191,638,743,718,778,786,705,607,-204
-6572,358,836,948,910,981,993,804,506,-850
-3901,1110,652,488,325,314,290,62,-206,-1310
-603,1404,380,45,-203,-269,-283,-460,-507,-721
1924,435,-167,-222,-352,-350,-245,-305,-48,965
3934,-1324,-869,-565,-503,-376,-169,-78,423,2562
5579,-2067,-1312,-775,-562,-383,-175,-90,299,2131
2142,-1288,-547,-139,36,188,276,227,134,-123
-4315,590,840,936,989,1012,937,648,69,-2340
-3746,1356,1084,949,920,829,689,273,-392,-2825
-1114,566,424,387,423,378,296,10,-342,-1376
570,25,8,38,135,170,169,25,-26,-35
-654,-410,46,120,195,278,309,193,205,315
-2111,-436,237,175,163,194,235,133,180,185
-1111,-264,228,90,23,5,67,-1,82,76
103,-18,137,122,64,54,116,61,148,176
-22,747,125,15,-34,-68,-29,-100,11,228
226,917,74,-111,-175,-228,-179,-266,-144,332
1,357,-14,-84,-114,-144,-81,-144,-33,347
180,17,-92,-86,-90,-91,5,-10,110,323
-73,-202,-66,-69,-48,-19,57,94,181,117
-497,-327,-8,-6,11,19,31,-31,-106,-505
-144,-367,57,120,138,109,67,-84,-294,-627
216,-453,-154,73,204,223,201,84,-136,-613
199,-527,-338,-24,168,228,247,174,39,-717
-475,-494,-266,4,167,199,227,170,45,-741
-596,-361,-101,89,209,215,223,172,46,-560
776,223,20,-84,-116,-169,-175,-210,-202,-113
1349,810,160,-232,-428,-542,-558,-579,-434,179
274,466,247,-45,-189,-278,-260,-229,-116,444
1053,-101,59,78,106,72,99,117,131,471
1517,-198,-106,58,170,157,129,108,108,355
-77,94,-27,69,138,98,17,-4,-36,155
-119,-22,-146,-11,60,32,-41,-28,-37,370
1208,-267,-545,-285,-176,-160,-182,-93,3,1040
1845,-300,-864,-688,-567,-543,-510,-340,-74,1640
3220,181,-659,-730,-746,-777,-767,-635,-410,1160
1661,770,159,-13,-105,-196,-256,-199,-215,137
-2666,507,743,646,641,567,512,553,361,-302
-2402,-312,498,544,617,605,593,697,560,-230
-1682,-459,155,196,254,256,254,392,382,-315
-1785,-235,1,55,130,128,105,181,73,-881
-1349,41,-28,39,117,122,57,68,-105,-821
-470,197,90,114,159,140,49,34,-107,-128
339,357,251,129,123,54,-17,-46,-171,237
623,297,271,59,49,-19,-65,-38,-133,200
1040,-195,-96,-181,-100,-97,-92,19,81,295
1693,-767,-431,-406,-267,-212,-178,-27,144,293
2874,-871,-330,-339,-245,-215,-191,-49,145,311
1101,-398,198,151,115,68,24,41,35,-256
-2910,138,559,516,441,368,275,185,-83,-1011
-4011,574,556,454,382,295,186,87,-263,-1254
-1274,686,346,176,102,28,-49,-65,-298,-705
1291,512,25,-161,-219,-272,-299,-205,-89,378
3188,220,-435,-602,-658,-692,-624,-390,138,1784
2925,-127,-751,-855,-864,-865,-756,-391,318,2404
583,-213,-436,-446,-431,-425,-369,-61,446,1757
-2064,118,304,329,280,246,171,257,291,206
-2449,475,706,657,575,493,323,181,-275,-1718
-1385,151,195,304,335,332,211,95,-350,-1490
-415,-105,-258,-22,93,151,67,33,-166,-295
-113,-138,-302,-24,139,222,156,155,56,489
468,-119,-189,70,196,269,183,196,142,807
-25,-237,150,194,204,223,82,99,66,420
-524,-317,357,211,158,125,-19,-20,-80,-238
-566,-452,80,101,75,58,-57,-31,-131,-595
-224,-218,-155,28,35,47,-36,16,-115,-548
548,258,-114,-15,16,55,13,112,32,-39
2076,351,-183,-179,-150,-122,-158,-62,-1,421
2836,328,-236,-293,-301,-327,-354,-287,-166,536
1546,385,-50,-199,-298,-368,-434,-403,-336,62
-922,318,271,12,-154,-260,-342,-309,-262,-11
-1277,245,196,-50,-175,-247,-274,-182,-9,604
372,-195,-287,-375,-377,-372,-307,-192,70,887
1479,-566,-463,-470,-403,-371,-251,-126,129,776
838,-385,-41,-44,-19,-29,22,113,320,387
-2197,342,551,435,331,239,221,251,400,179
-1406,859,313,53,-150,-234,-228,-147,135,357
98,559,-262,-394,-505,-518,-444,-302,34,304
-537,349,-314,-349,-356,-353,-350,-348,-351,-1007
428,223,62,60,67,48,-91,-261,-678,-2161
-875,-11,418,472,524,486,318,135,-373,-1920
-2311,-429,431,738,901,879,766,649,207,-1160
-1646,-684,118,628,851,841,719,605,160,-1020
-617,-460,-63,308,516,480,361,245,-163,-1056
-1017,-430,-73,177,374,325,233,159,-146,-759
-938,-329,-38,145,281,253,200,168,-22,-318
590,-199,-116,-60,-17,-15,2,18,21,424
1903,-243,-332,-385,-343,-348,-301,-239,-86,1084
2033,-130,-297,-372,-346,-371,-317,-213,-49,1199
535,110,10,9,29,16,55,164,325,984
-281,192,135,151,169,170,148,232,418,708
152,217,2,-28,-47,-60,-125,-15,154,371
-184,73,-99,-74,-101,-106,-156,-9,170,280
-610,-109,-72,-15,13,16,-10,122,224,0
-1130,-124,130,126,151,128,67,151,152,-392
-212,225,324,104,17,-65,-177,-159,-186,-513
658,286,228,-17,-102,-169,-287,-313,-410,-589
581,-21,-8,-86,-68,-101,-186,-204,-290,-476
120,-50,-81,-81,-34,-43,-103,-69,-69,-252
-658,34,-63,-70,-29,-28,-86,-12,74,-75
-399,29,-41,-30,10,-3,-53,44,136,103
-33,-64,-14,-6,16,-3,-39,62,158,256
-41,-213,-32,-94,-129,-151,-176,-35,152,487
-487,-454,-82,37,98,124,140,270,394,662
612,361,-116,-56,10,39,5,58,49,294
2085,628,-215,-236,-165,-133,-173,-146,-169,260
2249,405,-77,-168,-142,-139,-203,-209,-255,4
301,175,195,49,-1,-36,-113,-91,-117,-274
-994,93,294,164,116,113,22,59,-19,-502
364,165,169,82,47,54,-29,-8,-81,-173
1780,208,16,-39,-99,-118,-150,-90,-57,546
652,-22,14,-61,-108,-114,-139,-48,95,713
-713,-396,-194,-199,-189,-165,-165,-31,156,466
-1263,-526,-398,-393,-392,-365,-364,-247,-43,156
-1565,-297,-233,-259,-314,-312,-335,-265,-100,79
-1022,-123,111,135,104,100,98,145,251,307
623,-25,139,218,216,229,256,280,367,494
2499,262,-78,-145,-207,-242,-242,-230,-87,692
1707,534,-63,-159,-239,-274,-291,-280,-182,718
-356,390,78,123,119,129,101,100,67,321
-1367,-127,141,292,318,343,272,244,108,-309
-1854,-360,166,322,347,381,291,215,-41,-1203
-1258,-227,105,211,216,242,163,63,-233,-1505
-149,-30,62,156,146,159,72,5,-215,-772
529,0,6,99,116,122,42,72,-59,80
-19,-134,8,50,70,96,41,143,73,308
-440,-341,-27,6,27,75,20,123,145,180
-483,-260,-16,-26,-42,-27,-124,-26,-28,-278
503,151,-14,-140,-218,-253,-382,-298,-294,-421
-599,294,33,-90,-172,-187,-280,-219,-174,-177
-589,253,70,-7,-59,-46,-141,-82,-14,46
625,232,48,-45,-116,-130,-225,-144,-6,504
689,355,40,-90,-170,-210,-244,-85,173,1221
499,337,-18,-135,-180,-211,-190,27,450,1706
324,-174,-210,-233,-241,-225,-180,108,596,1397
24,-332,-225,-195,-192,-188,-191,-55,103,-193
-912,-27,46,194,209,174,53,-101,-522,-2011
-631,44,148,381,437,433,331,155,-326,-1918
701,-109,29,163,213,240,190,128,-106,-813
996,3,-49,6,23,42,12,7,-107,-338
-941,109,36,41,29,18,-1,12,-114,-453
-1671,256,124,70,25,-6,-75,-82,-213,-503
-840,96,67,79,46,29,-65,-93,-217,-265
97,-302,-121,59,79,103,41,64,59,424
1514,-358,-468,-318,-320,-289,-290,-161,68,1136
2693,-704,-922,-781,-770,-719,-653,-403,54,1685
2223,-910,-894,-700,-694,-619,-541,-265,198,1436
-430,-281,-97,89,104,125,172,317,390,295
-2665,194,544,735,802,795,814,734,425,-754
-1611,345,545,688,760,750,704,522,161,-597
511,493,401,329,299,228,148,-56,-315,118
1158,445,377,194,124,17,-87,-238,-404,564
912,182,191,166,132,117,41,-9,-69,704
1050,-185,-34,3,28,105,117,124,145,154
19,-154,-7,15,7,44,46,27,-72,-1047
-1106,57,116,121,79,74,37,-24,-201,-1268
-884,10,85,67,40,54,-6,-44,-148,-753
-738,-30,11,2,-2,8,-50,-102,-161,-438
-1405,-4,144,127,127,129,40,-5,-53,-284
-1297,-30,122,154,154,171,87,123,144,-116
-357,133,-4,-81,-108,-99,-143,-48,77,49
334,378,-39,-247,-343,-373,-389,-283,-52,317
937,498,-78,-382,-545,-583,-577,-425,-53,842
1520,296,-234,-538,-710,-744,-716,-531,-29,1265
329,-116,-107,-263,-345,-392,-372,-270,36,707
-1557,-304,205,300,316,282,253,174,38,-250
-1051,-2,330,497,562,551,508,371,84,-259
916,323,142,207,253,241,228,135,-74,-195
702,-178,-154,-8,97,128,178,184,104,-71
-127,-382,-267,-73,32,71,114,139,58,-434
-818,-203,-74,59,133,135,129,98,-108,-882
-554,-63,81,209,256,236,184,70,-130,-706
176,-1,131,230,269,244,205,130,32,-263
720,-58,-29,50,109,127,107,94,122,77
861,-43,-166,-112,-60,-41,-31,-46,18,88
358,-16,-181,-139,-111,-124,-76,-90,16,179
642,152,4,-62,-85,-104,-67,-51,99,336
1356,336,94,-68,-100,-125,-101,-85,70,388
1558,308,-90,-228,-254,-289,-258,-250,-54,374
2280,-17,-472,-442,-381,-381,-318,-249,-27,382
3737,-76,-573,-524,-424,-398,-321,-234,-31,317
718,112,-78,-118,-83,-116,-109,-117,-79,-73
-4499,112,523,436,387,287,195,89,-112,-678
-2648,-5,422,430,414,332,272,145,-109,-618
-1209,-4,113,272,327,294,306,217,-8,-439
-795,274,150,176,210,161,165,114,-69,-403
-464,223,215,100,86,25,14,-56,-147,-234
-462,18,226,78,55,-6,-14,-62,-93,179
85,-50,107,-29,-39,-77,-68,-40,49,719
-565,-238,-50,-124,-100,-108,-102,-2,154,811
-1247,-323,-128,-154,-116,-118,-128,-6,135,723
-457,-414,-124,-103,-45,-43,-77,25,119,707
704,-89,91,81,139,126,74,147,131,431
1282,287,169,94,130,119,50,123,154,108
990,140,1,-75,-42,-60,-134,-49,38,-108
-104,-60,-94,-58,-30,-43,-118,-57,-22,-194
-851,-257,-162,-9,38,34,-19,21,-11,-273
-548,-556,-242,-141,-72,-64,-80,-35,-31,-255
365,-433,-337,-373,-336,-373,-362,-334,-291,-491
-278,223,-81,-201,-198,-259,-233,-245,-281,-834
-146,473,174,140,213,174,209,172,71,-602
756,-39,-59,76,262,239,291,258,205,-120
821,-58,-19,47,261,204,196,159,77,-116
341,457,241,116,272,173,91,11,-155,-499
366,382,90,-4,131,54,-11,-60,-179,-429
549,-70,29,16,72,41,3,14,28,26
751,-121,24,77,-9,-36,-60,-65,-44,56
1398,27,-22,-33,-146,-151,-129,-126,-144,211
562,179,86,59,-55,-43,-15,-27,-37,551
-1221,301,167,136,56,78,65,38,23,501
-219,343,53,15,-54,-27,-63,-23,22,439
859,411,-42,-117,-216,-209,-255,-185,-106,123
302,-2,-130,-129,-168,-142,-187,-116,-53,-28
141,-511,-209,-180,-135,-78,-112,-22,54,181
-152,-739,-323,-255,-148,-68,-80,9,65,400
-1897,-647,-217,-85,58,107,48,32,-105,83
-1682,-132,9,161,321,332,246,157,-80,-32
-146,390,42,135,252,237,199,176,94,195
182,202,-147,71,86,63,87,156,197,129
189,-84,-71,96,3,-17,14,82,117,-248
676,-147,187,126,-21,-74,-71,-58,-103,-652
-640,-159,297,229,118,50,16,-31,-250,-1064
-1826,0,370,317,217,175,162,94,-178,-933
-439,105,281,165,34,6,18,-49,-140,-127
957,38,72,-47,-178,-199,-203,-258,-235,302
1678,120,26,-92,-191,-209,-210,-286,-258,424
825,220,53,-17,-79,-80,-68,-130,-82,411
75,-99,-125,-75,-95,-60,-15,-4,88,206
-559,-408,-261,-125,-110,-13,41,139,286,166
-1288,-373,-134,46,27,173,218,327,368,-251
-678,19,26,155,82,230,246,281,183,-547
781,193,14,15,-135,1,-34,-51,-114,-278
1249,69,-81,-115,-212,-144,-181,-181,-153,197
685,93,-14,18,158,-12,-34,-1,73,476
-804,176,25,124,286,145,143,210,260,376
-507,209,-1,34,88,45,70,137,200,67
-31,287,67,-3,-66,-120,-106,-114,-140,-504
-626,222,156,72,-16,-88,-99,-203,-359,-850
-234,201,151,99,51,-17,-42,-134,-240,-281
988,79,-7,-11,-22,-43,-54,-42,69,644
2001,-133,-242,-182,-156,-145,-120,-4,241,1157
1516,-4,-300,-314,-326,-349,-312,-174,131,1091
446,75,-135,-351,-438,-509,-518,-381,-61,877
226,-290,-77,-228,-293,-352,-376,-267,-75,716
-490,-487,13,13,44,39,44,159,223,690
521,-53,166,158,220,226,279,395,448,537
378,282,172,174,257,262,318,339,337,-229
-1296,627,139,109,130,95,121,53,-7,-766
-1174,795,258,93,1,-79,-89,-180,-196,-514
-1027,578,263,119,60,-18,-47,-143,-202,-443
-1330,14,148,230,302,275,242,86,-196,-1054
-1239,-491,-21,216,351,359,351,138,-275,-1471
-1507,-754,-93,212,346,379,395,233,-151,-1331
-1208,-601,-32,199,281,302,307,172,-79,-1071
-354,-289,29,114,167,185,177,91,-63,-726
201,-120,-24,-54,-46,-30,-36,-69,-113,-342
789,106,-46,-170,-199,-198,-235,-233,-164,-74
964,331,-23,-200,-240,-250,-309,-288,-178,40
703,295,-48,-179,-205,-207,-248,-212,-101,69
-435,-41,-121,-79,-33,8,-13,43,113,84
-526,-435,-194,37,181,286,274,354,405,344
84,-471,-181,66,191,278,267,335,392,517
576,-115,7,-1,-16,-18,-44,-20,96,516
704,526,249,-96,-256,-344,-387,-379,-193,509
385,749,288,-117,-260,-358,-383,-374,-207,460
-21,469,160,-51,-91,-141,-149,-163,-92,232
217,67,6,-71,-57,-60,-28,-11,32,146
446,-422,-82,-53,3,45,122,193,232,206
77,-592,-150,0,91,143,225,273,328,422
-639,-417,-97,-46,27,72,142,159,204,525
-1084,-240,-71,-77,-47,-20,56,69,119,225
-252,-134,-170,-187,-155,-128,-67,-43,7,-204
1369,-228,-262,-198,-117,-70,-43,-42,-5,-247
2536,-277,-409,-314,-221,-204,-212,-233,-166,35
2468,-189,-380,-345,-287,-307,-314,-297,-265,171
-1818,-9,63,136,177,177,128,110,0,-314
-2474,282,420,465,519,526,460,372,189,-748
-643,398,313,309,340,337,265,178,29,-685
-318,300,105,151,161,158,105,52,-44,-427
-148,120,79,96,92,85,52,35,-10,-140
-53,-90,110,92,84,73,57,82,63,67
26,41,135,57,20,-4,-6,13,-2,49
652,353,156,-73,-149,-203,-195,-146,-135,177
1071,320,88,-152,-225,-287,-285,-213,-74,624
-184,172,12,-118,-145,-159,-129,-16,181,845
-201,96,-188,-170,-156,-147,-69,69,320,974
493,-93,-226,-177,-157,-152,-136,-13,166,722
-76,-258,-50,4,60,62,14,60,4,-34
-369,-155,32,83,125,143,117,129,4,-212
-441,10,61,87,72,87,133,159,35,-414
-47,50,40,76,35,36,79,73,-114,-662
281,17,-13,0,-40,-27,-27,-37,-106,-252
210,-135,-108,-111,-143,-113,-109,-83,-61,68
354,-251,-201,-228,-254,-236,-239,-184,-109,268
234,-362,-103,-195,-201,-207,-238,-177,-92,344
1077,-79,51,-93,-134,-189,-211,-133,-4,608
214,165,166,70,40,-44,-62,26,133,764
-1011,276,156,109,149,73,35,69,73,242
-246,130,32,26,133,90,45,47,3,-304
83,-127,43,83,209,178,140,94,-69,-895
541,-545,-47,120,229,239,207,114,-134,-1032
1528,-481,-106,92,60,76,32,-20,-169,-551
164,-42,49,105,-8,-17,-73,-97,-126,-253
-1915,188,169,98,47,56,8,-7,-31,-23
-217,124,26,-39,-12,24,29,69,64,494
503,181,-26,-38,7,55,55,107,121,641
-449,195,-7,39,78,137,100,111,116,299
-563,443,0,14,0,-1,-64,-97,-108,-297
-569,354,-78,-54,-78,-114,-166,-203,-166,-232
-1529,4,32,17,58,34,17,-12,33,-112
-917,-93,67,96,162,134,149,125,147,-120
730,123,19,47,61,25,33,-8,-59,-381
544,143,-42,22,-29,-67,-65,-124,-194,-558
-232,-19,-63,76,-5,-37,-16,-82,-100,-378
-309,-348,-118,63,75,93,150,124,189,96
-499,-490,-181,13,94,128,201,213,342,503
224,-365,-230,-155,-133,-118,-16,32,286,1063
1311,-16,-146,-256,-328,-373,-278,-196,138,1441
1738,507,148,-77,-174,-255,-207,-135,131,1151
1426,954,237,-44,-125,-184,-183,-125,18,369
-239,425,-1,-151,-165,-184,-225,-208,-202,-471
-2134,-541,-101,-38,28,43,-23,-105,-344,-1163
-1496,-703,-192,-90,-5,21,-43,-154,-435,-952
-236,-399,-146,-49,-1,28,-18,-98,-244,-173
514,287,216,267,256,280,223,150,41,-13
378,465,299,315,294,309,265,233,150,-156
107,98,120,198,176,192,151,168,95,-443
-256,-152,61,184,197,224,192,205,25,-845
19,-69,124,171,156,162,94,34,-140,-609
250,97,191,148,89,59,-18,-108,-188,20
206,203,204,67,-33,-74,-142,-150,-45,755
479,171,52,-88,-192,-211,-195,-71,262,1464
521,38,-111,-189,-238,-211,-121,42,440,1408
113,-108,-230,-185,-156,-95,16,131,392,719
241,-130,-237,-104,-40,23,104,120,87,-440
-98,-159,-67,60,129,169,163,55,-238,-1521
-221,-168,38,124,189,201,196,9,-330,-1484
174,-136,-24,30,54,50,64,-85,-262,-642
305,-216,-177,-156,-149,-134,-134,-145,-112,116
1460,-248,-303,-338,-357,-351,-331,-250,-56,453
-69,-69,-156,-276,-337,-339,-327,-231,9,371
-928,179,19,-174,-279,-304,-304,-223,-59,30
-1605,103,141,-2,-90,-113,-127,-83,-55,-129
-2183,-224,263,295,294,329,293,274,153,-49
-976,-93,193,308,350,400,367,314,144,162
832,427,29,114,154,176,164,137,73,385
1028,54,-302,-7,101,160,148,179,167,277
396,-152,-314,-54,104,151,117,105,-22,-653
-98,-9,-78,25,170,162,88,38,-187,-1152
-47,207,120,155,234,157,106,82,-100,-727
685,242,105,85,131,36,3,-2,-36,-102
292,136,-36,-3,38,-86,-143,-147,-61,398
324,202,-107,27,-45,-192,-235,-228,-117,574
-123,350,0,42,-66,-130,-158,-150,-53,384
-56,242,-41,-188,-105,-42,-12,-13,88,178
43,-16,-191,-262,-241,-111,-43,-60,62,282
-230,-131,14,-3,-195,-31,36,23,82,489
28,-157,162,134,74,175,199,224,262,646
-51,-161,95,91,349,245,248,292,311,163
-102,-62,80,41,213,128,110,92,9,-781
-118,98,154,-5,24,-5,-8,-74,-241,-976
-496,-26,68,-88,-54,-24,-2,-21,-112,-314
-434,-291,-108,-157,-81,-12,14,51,78,368
-62,-403,-103,-88,27,32,30,78,128,422
431,-46,79,72,112,5,-7,27,9,157
750,262,107,37,-20,-164,-180,-197,-207,17
330,255,26,-110,-223,-341,-375,-395,-369,-175
368,233,-37,-201,-287,-354,-370,-298,-189,-46
1183,152,-90,-189,-231,-242,-200,-26,194,341
1172,-363,-84,-66,-109,-55,23,185,366,275
2385,-583,-133,-85,-154,-48,8,113,229,268
904,-401,-24,1,-107,-22,26,44,-12,-219
-3054,-42,272,304,186,262,269,214,-17,-774
-3102,269,343,362,282,354,302,208,-37,-783
-1413,259,221,235,200,270,220,131,-62,-539
-624,31,68,127,122,189,158,107,-28,-335
-480,-40,22,94,76,128,108,62,-61,-270
-195,39,32,54,10,47,33,-20,-102,-55
46,45,21,11,-34,-15,-1,-44,-49,265
472,-29,-91,-106,-132,-104,-64,-35,49,678
817,-177,-262,-290,-231,-204,-159,-56,115,980
918,-199,-344,-379,-282,-281,-263,-142,46,944
908,9,-215,-272,-217,-249,-249,-177,2,736
-356,157,33,3,55,0,-10,23,99,183
-740,224,174,232,230,135,112,85,16,-460
-257,216,148,265,98,3,-22,-51,-90,-462
-32,222,70,40,-202,-244,-226,-199,-94,457
716,-25,-201,-313,-467,-441,-334,-248,41,1572
1818,-220,-369,-451,-444,-361,-205,-89,329,1920
1131,18,-98,-127,-9,96,226,269,485,802
-291,571,136,-9,4,49,62,-72,-221,-1294
-1561,725,216,-10,-71,-77,-163,-436,-877,-2543
-2304,6,222,239,267,275,194,-86,-586,-1881
-1318,-615,170,402,527,596,554,371,18,-735
122,-715,-30,232,386,485,496,442,290,-69
745,-618,-258,-18,98,180,214,212,220,73
798,-234,-207,-124,-104,-66,-69,-53,-10,-111
-263,16,1,79,13,-7,-21,-45,-73,-360
-371,138,147,162,70,53,34,-7,-42,-245
534,103,147,60,3,-17,-43,-52,-43,74
704,81,152,50,2,-35,-60,-54,-29,255
522,73,150,52,-6,-45,-61,-38,-5,445
1377,42,92,-11,-92,-119,-120,-42,10,618
1670,92,42,-54,-149,-162,-149,-62,89,708
-198,82,-6,-55,-128,-123,-94,26,275,726
-1377,18,-77,-95,-152,-145,-86,21,263,527
-875,-97,-151,-134,-185,-155,-79,36,289,486
566,-6,-138,-130,-160,-151,-91,22,258,334
632,123,-40,-23,-20,0,14,101,172,-69
259,191,95,75,69,81,82,102,-40,-431
-143,-135,75,151,194,214,188,94,-201,-695
-1474,-397,46,265,377,426,374,217,-124,-742
-1604,-122,139,255,302,303,221,97,-158,-507
-722,-32,-39,0,14,10,-44,-83,-153,92
459,-106,-257,-190,-123,-103,-109,-79,-20,634
1298,-105,-320,-195,-89,-63,-14,89,215,774
1173,-83,-243,-142,-72,-46,14,113,224,348
-166,22,67,10,-24,-59,-79,-91,-138,-594
-1075,289,356,171,69,-22,-90,-200,-390,-1069
-995,632,365,125,-11,-119,-182,-279,-407,-851
-466,388,173,2,-82,-156,-195,-196,-211,-445
92,-278,-76,-115,-113,-139,-90,-57,48,280
818,-507,-247,-212,-166,-169,-84,-34,177,1103
533,-256,-132,-21,25,26,64,93,236,1298
-671,169,99,242,284,282,314,309,242,711
-283,241,67,207,249,263,298,296,243,300
200,29,65,50,63,38,49,60,67,-160
-13,-64,73,12,0,-53,-53,-26,-66,-518
-490,-195,18,41,80,80,114,116,44,-695
-743,-190,36,82,159,160,182,108,-63,-980
-478,-31,62,75,152,112,120,-31,-264,-926
-37,18,-5,-11,51,39,42,-84,-251,-507
8,48,-89,-95,-52,-71,-49,-111,-193,-265
-87,165,-175,-164,-108,-104,-74,-89,-92,-180
-223,164,-264,-198,-172,-156,-135,-107,-25,-54
-224,6,-202,-160,-194,-200,-202,-125,37,203
80,65,51,-52,-148,-189,-166,-69,168,585
772,315,291,66,-83,-160,-134,-40,220,860
1132,205,160,33,-61,-112,-92,0,194,839
1183,-113,-73,-72,-69,-72,-62,36,160,729
1292,-145,-185,-144,-99,-89,-116,-83,-87,255
701,24,-135,-108,-51,-28,-83,-97,-223,-323
938,82,-191,-149,-91,-52,-86,-53,-129,-178
1851,9,-229,-284,-299,-305,-322,-241,-173,-60
544,-366,-13,-125,-188,-230,-240,-195,-155,-308
-2966,-497,243,243,226,194,181,153,32,-602
-2118,39,453,423,409,376,381,358,208,-251
509,455,310,178,134,117,147,197,209,612
2193,166,-117,-200,-209,-208,-153,-90,108,1083
2201,-192,-297,-241,-199,-177,-111,-48,133,746
-943,-167,-13,135,160,168,153,162,153,-135
-2976,414,377,424,334,275,204,130,-26,-734
-1644,582,308,248,186,135,75,59,-51,-558
-535,168,11,64,87,83,50,95,23,-353
-205,-186,-61,94,184,198,172,200,21,-535
-83,-217,-93,76,176,185,157,147,0,-390
87,-214,-157,-4,64,71,91,89,54,85
71,-192,-231,-61,-27,-17,24,37,84,247
-406,-167,-250,-35,-21,-9,24,49,111,77
-86,-125,-188,-12,11,31,42,60,91,-38
404,-97,-50,-20,-2,-13,-25,-47,-56,-87
626,-88,-50,-38,-56,-87,-102,-151,-204,-168
-460,-139,-71,38,43,29,-13,-69,-197,-360
-1360,-109,22,123,171,179,139,95,-30,-365
-424,-1,63,87,138,124,122,79,32,-184
-101,159,147,49,20,-31,-50,-103,-105,-167
-85,167,181,8,-72,-133,-150,-180,-125,58
234,81,136,-37,-101,-132,-105,-114,9,376
545,-99,-14,-148,-188,-192,-104,-81,113,649
353,-354,-269,-283,-302,-288,-170,-81,188,953
1188,-304,-327,-281,-294,-284,-191,-95,206,1399
1593,-49,-128,-200,-162,-144,-84,-4,313,1851
1955,457,25,-202,-201,-197,-149,-110,175,1431
957,673,157,-145,-155,-160,-142,-139,13,-18
-2159,368,236,52,104,91,82,23,-66,-1502
-2313,107,232,206,274,266,241,114,-128,-1864
-450,11,146,249,221,183,149,49,-52,-689
693,-164,10,141,95,32,18,-4,85,313
912,-352,-209,-74,19,12,17,25,124,521
-439,-416,-271,-17,188,221,187,157,111,200
-1272,-96,-165,75,289,302,259,150,7,-347
-641,143,80,84,176,164,134,-32,-210,-871
-261,110,332,170,156,114,65,-123,-367,-1203
-460,92,284,193,174,139,59,-85,-349,-1242
-389,107,173,84,118,71,41,-11,-220,-821
58,73,77,8,13,-16,-50,-67,-131,-337
122,21,63,48,-10,-47,-68,-92,-86,-154
-102,54,39,70,-10,-43,-41,-68,-39,-136
-67,150,4,64,-118,-113,-105,-103,-32,-47
213,58,-117,0,-234,-154,-105,-90,35,175
572,-100,-143,-170,-256,-112,-51,-29,109,334
766,-121,-42,-146,-162,-42,44,71,150,318
1043,17,21,-44,-124,-59,2,-3,70,210
-68,-164,-15,-66,-108,-89,-34,-37,51,198
466,-374,-158,-211,-205,-179,-107,-92,42,377
1537,-399,-257,-366,-404,-376,-328,-296,-116,416
440,-229,-38,-152,-223,-194,-182,-173,-65,145
-1955,349,359,281,202,206,196,148,96,-303
-1691,612,301,372,338,350,341,290,194,-265
-167,354,23,170,191,211,231,218,199,62
117,86,-56,30,73,88,121,139,183,221
-168,38,27,6,26,40,66,101,131,84
-256,81,65,1,-11,-11,8,33,76,13
106,127,35,-57,-75,-86,-61,-18,49,165
227,9,-69,-91,-68,-52,-17,52,106,326
496,-79,-261,-128,-73,-13,26,105,182,631
684,-63,-380,-139,-95,-4,44,114,150,856
561,-30,-222,-100,-92,13,58,123,140,996
172,97,70,-58,-163,-61,-57,11,135,936
-224,169,171,-105,-326,-218,-193,-108,100,566
-270,-18,-20,-197,-214,-242,-207,-121,73,115
317,-100,-72,-142,63,-138,-149,-113,-49,-261
800,-91,-10,16,125,4,-63,-106,-201,-434
1033,-117,86,138,178,122,71,5,-173,-360
799,-236,85,130,188,164,144,139,-50,-351
-37,-166,65,73,134,99,71,61,-102,-571
-697,-59,95,51,95,28,0,-10,-115,-537
-765,-81,97,40,83,30,1,6,-22,-307
-258,-57,70,4,57,14,27,18,62,25
108,186,125,-25,-12,-91,-74,-113,-65,91
80,324,67,-39,-37,-119,-126,-151,-93,229
465,251,-114,-113,-60,-115,-104,-97,-36,468
-7,-139,-282,-110,-29,-59,-54,-70,-32,537
-907,-273,-185,-64,1,-17,-27,11,92,685
-889,-73,-40,33,55,42,41,86,182,581
-779,260,214,153,82,47,47,12,44,18
-250,223,234,112,58,47,22,-9,-45,-392
358,-129,-69,-35,14,38,13,-24,-155,-755
425,-204,-145,-39,49,53,12,-77,-364,-1108
-294,-51,86,109,180,167,115,3,-340,-1032
-165,222,298,152,136,88,26,-61,-230,-597
744,269,224,25,-31,-92,-129,-127,-109,-141
526,-131,17,-80,-89,-117,-81,-57,42,201
499,-337,-47,-49,-28,-45,18,25,121,308
-190,-7,14,93,89,45,78,44,42,-22
-542,288,83,148,131,80,61,39,-37,-289
-112,100,20,47,35,-18,-41,-51,-101,-91
-373,-119,-52,-82,-91,-141,-160,-181,-178,160
-599,-334,-89,-66,-14,-19,-14,-46,-17,298
-266,-277,21,117,181,221,232,252,269,320
489,124,119,97,99,113,92,152,211,242
589,180,106,2,-45,-67,-113,-66,69,714
884,204,102,-41,-116,-149,-173,-113,103,1288
349,103,3,-81,-105,-79,-53,25,244,1359
159,17,-125,-172,-164,-106,-41,17,155,813
-423,-20,-84,-140,-151,-123,-94,-118,-101,-146
-599,58,-10,-63,-99,-66,-59,-86,-123,-681
264,350,7,-111,-176,-180,-178,-209,-267,-1080
1272,431,16,-122,-208,-242,-268,-343,-445,-1215
861,-28,-115,-94,-151,-172,-200,-257,-361,-882
-196,-631,-18,124,132,150,130,82,-51,-510
-1102,-354,144,290,342,383,416,355,207,-376
-308,233,71,115,147,150,197,121,51,-377
-959,47,23,82,130,137,174,106,24,-376
-941,-90,1,89,138,157,195,139,66,-237
-357,38,-4,67,68,98,99,38,-18,-177
-156,74,59,82,73,82,84,39,4,-42
98,-126,54,80,77,81,103,99,114,252
-254,-318,2,57,77,90,130,146,160,364
-312,-264,-48,-15,11,21,71,78,114,464
373,-212,-203,-168,-113,-95,-43,-4,116,720
612,-323,-420,-298,-190,-121,-62,73,295,813
1150,-268,-381,-357,-294,-286,-244,-79,199,483
964,277,141,-108,-181,-330,-378,-302,-111,-167
-212,506,389,163,107,-31,-118,-84,-46,-274
-525,422,263,190,180,93,1,-17,-98,-126
-884,155,187,234,286,223,145,43,-278,-607
-1163,-166,87,258,390,398,368,243,-157,-873
-581,-171,-69,136,226,290,319,206,-21,-497
7,-103,-170,21,15,109,139,98,22,-60
12,-36,-54,20,-74,24,45,24,-35,-46
11,23,-23,-2,-93,-22,-5,-36,-79,-106
23,25,-47,-61,-66,-20,-43,-72,-83,-136
-43,-41,-79,-97,-30,17,-4,-11,-26,-137
-30,-56,-78,-111,-26,9,-13,22,61,6
12,-24,33,-88,-46,-20,-53,-16,68,153
12,-7,1,52,-20,-16,-36,-19,66,238
-120,23,14,91,-23,-30,-46,-27,69,268
-177,-8,-47,-13,-73,-63,-75,-51,53,283
136,18,-76,-83,-138,-151,-140,-116,18,446
633,178,50,-53,-154,-184,-167,-119,64,795
1023,205,28,-27,-138,-150,-100,-23,178,1018
762,24,-111,-54,-108,-92,-35,64,280,906
195,-129,-151,-44,-53,-31,29,111,289,427
-142,-135,-102,-55,-22,-49,-6,35,117,-198
-136,-19,-54,-61,-33,-99,-77,-86,-97,-596
340,136,42,-5,-31,-120,-96,-154,-174,-526
1109,141,0,-25,-82,-139,-134,-183,-202,-525
1611,24,-47,-74,-164,-166,-157,-192,-196,-365
946,-5,-15,-123,-147,-121,-124,-143,-170,-239
-3,-12,73,-175,-93,-47,-70,-94,-121,-246
-1694,-85,231,39,99,148,115,118,71,-316
-2476,-208,244,304,262,298,252,257,132,-403
-1152,-61,125,236,174,204,176,139,-21,-402
-25,-54,17,55,86,161,125,98,5,-90
49,-54,-12,-14,26,106,87,98,66,96
128,-17,-33,-61,-18,15,10,35,48,275
21,-67,-60,-86,-69,-64,-46,-48,-1,449
-164,-244,-148,-165,-183,-174,-112,-108,18,583
156,-417,-196,-216,-242,-227,-176,-100,61,600
390,-192,-106,-141,-158,-168,-122,-42,87,404
321,239,167,105,82,45,86,102,170,221
344,603,246,80,0,-57,-3,-14,75,141
-87,475,148,-59,-128,-169,-72,-59,36,-19
-245,195,94,-5,-1,-8,42,31,65,-266
70,122,76,62,125,130,149,52,-49,-554
-48,78,11,19,88,101,91,-40,-205,-602
-269,-13,-61,-45,0,25,5,-117,-236,-308
-65,-17,-39,-62,-32,-42,-50,-170,-202,236
630,119,17,-47,-35,-64,-75,-116,-33,913
2201,314,-73,-175,-179,-192,-175,-79,159,1450
2629,259,-256,-372,-414,-418,-384,-229,159,1399
1764,-59,-290,-331,-310,-322,-289,-170,144,621
-436,-342,-71,54,181,144,108,106,77,-592
-1964,-662,-35,267,505,487,383,276,-33,-1352
-1978,-582,-84,209,429,365,263,104,-277,-1482
-2122,-139,26,306,358,265,181,55,-236,-1151
-791,209,139,348,227,178,143,67,-112,-643
364,333,115,73,23,89,127,62,-53,-207
590,296,84,-115,-87,37,80,28,-43,-21
139,77,12,-111,-102,-14,27,-21,-28,51
-761,-203,-1,-85,-96,-41,-7,-35,3,6
-981,-297,44,-32,-38,36,72,88,120,5
-101,-165,38,41,94,174,227,229,245,91
667,-27,-24,27,110,154,180,150,109,10
251,78,49,39,48,23,20,-17,-113,-119
-443,167,156,93,-7,-88,-123,-207,-301,-226
-69,196,30,21,-60,-103,-143,-188,-185,185
486,174,-83,-63,-114,-108,-109,-69,25,565
533,99,-118,-71,-140,-114,-102,-45,69,397
374,49,-88,-44,-95,-80,-60,-15,49,165
-351,-119,-86,-36,-41,-30,-4,22,57,84
-369,-282,-31,-4,3,-3,46,87,125,210
-98,-184,81,95,86,61,100,146,141,100
-472,72,152,106,65,19,25,15,-37,-244
-302,32,85,53,0,-21,-28,-53,-121,-212
186,31,71,60,31,-1,-28,-87,-211,-251
197,162,106,89,52,33,-25,-94,-237,-299
-1,63,45,41,12,28,-32,-65,-133,-12
-90,-74,-24,-6,-14,14,-25,11,1,285
-122,-70,-74,-46,-48,-23,-42,66,115,291
-416,-76,-58,-48,-30,-10,-28,87,205,267
-319,49,-43,-30,-36,-44,-52,43,176,328
321,226,-57,-59,-101,-133,-157,-94,36,416
524,242,-29,-104,-136,-161,-186,-131,-13,462
739,100,-84,-117,-108,-101,-111,-56,26,438
604,-178,-145,-55,5,31,23,29,8,-93
-63,-242,-111,25,62,75,87,48,-47,-483
-165,-111,-81,1,-17,-3,17,63,36,-327
-52,-44,-70,-44,-56,-45,-8,63,132,-251
248,10,-9,-32,-52,-44,3,38,110,-224
18,-57,59,38,9,-4,19,-13,-29,-283
-522,-149,106,76,63,55,30,-74,-235,-530
-542,-169,47,96,129,139,112,-31,-260,-686
170,-13,-2,60,93,110,91,-3,-155,-422
62,-12,23,81,95,109,108,53,-12,-116
-64,-190,55,112,120,140,139,110,86,8
88,-41,119,75,38,42,32,5,-6,-97
-34,224,132,31,-38,-58,-85,-135,-137,-204
-577,98,20,12,-25,-35,-51,-70,-39,0
-296,-54,-2,-20,-42,-38,-58,-38,21,260
167,-115,-23,-25,-25,-30,-49,-13,64,418
469,-21,-17,-18,-15,-11,-13,65,131,442
533,46,-20,-83,-96,-84,-48,70,165,429
799,-71,-119,-160,-159,-141,-90,5,139,313
497,-58,-69,-73,-78,-74,-54,-39,-28,-89
-114,148,53,40,19,9,17,19,-24,-194
231,241,29,9,-33,-40,-29,-5,15,56
-247,151,25,41,33,5,0,-5,-11,142
5,108,34,78,109,87,57,-1,-61,193
634,110,23,39,67,55,58,-44,-142,86
354,154,-21,-4,6,-10,-4,-63,-131,-189
-74,189,-80,-62,-63,-85,-107,-68,-57,-258
-471,-69,-147,-103,-81,-99,-114,-43,31,-113
-828,-444,-179,-86,-28,-16,-17,70,184,221
-1044,-464,-130,-72,-27,-8,3,108,244,355
-507,35,21,2,-17,-21,-37,82,209,393
231,304,60,73,50,30,-17,85,133,558
421,170,66,138,92,51,-26,-2,-54,518
307,-5,159,132,85,72,2,9,-15,535
187,-78,98,16,-4,40,12,55,98,342
-37,6,48,-30,-38,12,9,19,11,-441
-227,79,39,0,-21,-8,-4,-15,-90,-905
-893,93,51,18,-18,-22,-41,-57,-174,-848
-1147,-45,39,21,-2,-9,-9,-8,-77,-438
-529,-239,36,59,93,115,153,222,194,35
604,-52,87,16,120,151,166,193,183,-2
1239,-34,-20,-139,17,42,39,23,0,-185
1159,-131,-203,-242,-75,-51,-80,-77,-82,-132
238,-77,-198,-131,12,22,-11,-16,-47,-99
-859,49,22,139,150,131,92,72,10,-192
-324,-50,38,235,122,94,57,40,16,-101
438,-91,-105,135,22,41,38,21,8,111
683,202,-66,84,-93,-47,-65,-85,-106,266
258,382,57,157,-73,0,-6,-45,-67,479
360,197,-43,73,-122,35,46,75,117,690
308,61,-57,14,-54,0,-10,36,61,274
-311,46,7,33,158,-13,-35,-18,-43,-444
-779,59,120,57,88,-45,-61,-62,-117,-774
-914,51,184,38,27,-15,-26,-25,-112,-766
-533,11,97,-25,21,28,47,68,4,-435
60,-46,-55,-103,-35,-3,30,50,74,-56
121,-127,-146,-127,-77,-45,-13,15,83,37
-38,-180,-136,-103,-96,-81,-50,-34,23,-10
-312,-144,-17,-8,-37,-39,-43,-60,-57,-88
-222,-72,118,108,73,68,57,9,-38,-46
110,48,124,99,50,39,20,-37,-79,157
547,183,-26,-6,-57,-83,-90,-137,-127,329
525,247,-112,-62,-106,-113,-121,-135,-72,285
236,232,-32,-66,-112,-111,-150,-117,-64,-43
505,137,1,-65,-86,-76,-115,-76,-62,-214
532,-187,-124,-64,-28,23,5,74,118,112
211,-405,-152,-46,34,91,101,185,265,466
-852,-165,32,21,46,36,25,83,146,213
-850,110,176,71,39,0,-41,-19,-15,-198
-269,96,186,75,69,64,57,100,66,-215
151,161,174,11,-7,-38,-43,-26,-11,-109
470,206,128,-20,-54,-91,-105,-108,-63,45
296,94,64,-3,-7,-15,-37,-25,-3,201
-246,-110,-83,-57,-11,16,20,40,63,221
-77,-221,-252,-103,-48,-8,11,35,47,20
177,-115,-159,-51,0,38,53,53,31,-189
421,-5,-52,28,56,81,92,117,78,-123
7,-32,-79,76,105,133,148,206,133,-47
-179,-36,-11,74,74,90,90,81,33,0
462,-21,48,3,-39,-47,-68,-99,-94,124
661,93,85,-25,-94,-107,-128,-132,-120,112
-361,154,147,38,-37,-49,-57,-67,-62,0
-1248,54,137,73,19,0,22,-1,-2,-123
-776,-179,-18,63,75,62,126,104,87,-134
259,-281,-101,-19,30,35,77,100,133,102
1290,-252,-125,-145,-124,-112,-120,-96,3,337
1303,-303,-120,-138,-134,-137,-131,-119,-31,309
-251,-126,64,27,2,-15,2,-29,-36,-47
-963,189,188,108,70,54,49,9,-35,-258
-831,310,190,124,86,64,33,1,-54,-307
-181,351,29,40,39,-37,-105,-147,-186,-284
435,231,-13,-21,15,-64,-147,-153,-152,-26
1298,9,-30,-73,-25,-53,-119,-102,-2,484
2163,-126,-128,-142,-98,-100,-141,-101,47,878
1336,-98,-116,-136,-44,-36,-63,-22,129,864
-483,32,-16,-49,66,123,109,151,254,491
-1438,97,65,-7,56,172,149,198,243,-80
-1489,47,-9,-20,27,138,116,139,92,-551
-1018,31,-9,50,73,145,97,88,-94,-776
-639,24,45,169,96,122,100,59,-147,-623
-454,-16,46,184,53,48,58,-13,-154,-404
-243,-44,-6,149,35,41,51,-20,-68,-166
94,-6,10,86,7,37,33,2,-25,-110
136,143,107,36,-37,-10,-36,-4,1,-153
-53,88,45,-20,-74,-70,-81,-30,33,-28
-432,-232,-20,-33,-60,-54,-55,3,68,101
-403,-599,-107,-2,16,31,82,160,211,225
-626,-563,-115,16,48,78,110,168,217,147
-778,-46,57,83,79,87,61,59,58,-75
274,362,124,38,12,9,-29,-78,-111,-179
560,329,54,-30,-48,-55,-85,-133,-149,-112
315,296,43,-83,-127,-144,-169,-193,-156,16
237,328,19,-124,-198,-236,-246,-263,-195,144
422,264,10,-118,-179,-226,-222,-223,-141,339
824,19,33,-43,-73,-105,-83,-27,89,608
836,-265,-22,3,-7,-32,1,85,252,798
270,-294,-34,-36,32,-36,-18,32,105,493
-406,-106,0,-85,76,-21,-49,-48,-88,85
-684,87,13,-115,109,-8,-33,-42,-70,109
-182,106,-22,-150,111,8,21,-1,-6,37
16,-32,-118,-73,116,70,101,99,36,-208
178,-72,-145,156,102,102,186,185,60,-269
730,110,-87,73,-12,57,153,139,-57,-514
920,153,-112,-150,-128,-32,33,21,-172,-450
430,-20,-98,-111,-120,-66,-29,-30,-155,-87
403,-232,13,17,-101,-63,-26,-3,-47,256
148,-289,98,24,-107,-57,-21,3,-11,219
-187,-219,136,81,-17,22,30,8,-64,-236
-1228,120,253,209,136,149,115,100,-40,-601
-1210,616,336,241,156,148,92,68,-70,-793
94,660,164,38,-76,-77,-132,-161,-236,-586
393,242,35,-64,-130,-120,-148,-154,-178,-169
494,-234,-50,-41,-33,-4,-17,41,60,177
730,-453,-108,-8,35,73,79,165,208,303
-138,-480,-44,103,148,178,184,217,175,30
-480,-255,-42,112,138,149,165,138,24,-182
-6,-74,-18,24,38,43,109,107,32,-9
-620,-157,-17,0,27,34,117,170,189,200
-1066,-251,-34,-1,25,42,111,202,302,385
-794,-253,-53,-7,8,32,101,188,291,486
-443,48,47,8,-33,-32,21,75,185,523
568,540,90,-124,-227,-281,-240,-187,-4,815
988,435,-49,-235,-314,-356,-306,-220,29,1034
603,63,-207,-227,-192,-187,-107,-17,187,754
156,-151,-249,-129,-47,-16,36,48,43,-24
-383,-157,-108,17,118,113,99,-19,-269,-939
-518,-215,18,117,205,185,156,-21,-329,-1074
-221,-250,70,143,194,165,141,-40,-291,-827
219,-97,106,144,177,139,139,-21,-183,-645
-63,92,131,104,102,53,83,-68,-134,-549
-636,47,81,70,65,21,64,-75,-140,-502
-408,-17,-34,8,39,6,78,-37,-62,-337
108,22,-78,-12,17,7,76,-1,41,-109
467,59,-78,-1,12,-4,62,11,84,40
495,59,-12,-18,-11,-52,40,-1,96,127
336,51,21,-38,-43,-93,-13,-30,64,185
33,-54,-37,-74,-83,-127,-58,-37,77,247
-375,-212,-96,-141,-141,-157,-114,-64,64,272
-228,-316,-152,-207,-202,-213,-161,-88,76,399
707,-316,-182,-241,-241,-236,-155,-36,167,674
1823,-205,-148,-142,-138,-110,-65,25,226,652
866,53,19,31,41,57,47,50,120,231
-533,408,169,72,40,14,-6,-119,-153,-197
462,523,125,-29,-85,-123,-143,-275,-282,-129
1096,520,91,-95,-198,-256,-234,-276,-125,339
-521,493,195,2,-89,-169,-111,-82,112,439
-1321,396,138,20,-12,-50,40,84,237,265
-1245,-96,-60,45,103,128,223,231,317,99
-601,-514,-85,145,256,319,356,311,237,-227
-408,-377,48,218,299,323,269,165,-1,-461
-361,-137,183,241,260,248,183,64,-105,-271
119,-148,22,127,154,144,120,84,-20,-33
478,-22,-149,-21,44,80,55,73,54,40
491,111,-131,-47,1,48,11,40,24,-21
120,68,-63,-53,-59,-39,-69,-24,-28,-208
-122,46,-62,-88,-105,-91,-111,-32,24,-228
-361,64,-86,-71,-75,-82,-106,-33,11,-164
107,95,-50,-26,-29,-49,-87,-44,-48,-128
815,0,-21,2,5,-2,-44,-11,-32,-16
260,-140,48,95,120,138,106,50,-95,-285
-144,-282,3,69,126,180,168,79,-133,-398
-424,-331,-104,-21,30,108,116,86,-102,-207
-105,-290,-103,-94,-61,30,66,61,-26,155
-399,-210,6,-97,-51,32,58,74,114,386
-481,145,146,-83,-88,-65,-66,-24,112,337
148,447,239,-58,-132,-149,-180,-131,22,136
479,429,144,-76,-178,-221,-256,-229,-121,61
-95,209,35,-100,-186,-202,-242,-217,-127,108
-424,-111,-120,-112,-165,-124,-136,-106,-45,56
-196,-283,-125,5,-13,45,39,16,-33,-193
100,-51,47,130,113,139,115,40,-80,-354
-24,202,144,154,108,108,96,-27,-191,-578
-185,246,154,155,119,111,95,-33,-209,-634
-85,183,149,114,116,115,93,-32,-195,-397
365,74,53,6,32,60,31,-58,-130,22
440,-55,-64,-30,23,43,29,-7,-14,276
255,-61,-76,-31,33,33,38,75,45,213
-17,-41,-32,-10,46,41,42,73,45,-99
-157,20,2,-21,22,12,-12,2,-21,-332
160,67,16,-53,-16,-42,-84,-41,-17,-119
987,105,-15,-116,-112,-120,-131,-47,115,406
1355,200,-50,-185,-238,-236,-231,-88,168,686
815,234,-47,-192,-256,-278,-258,-103,144,648
-272,178,4,-104,-174,-201,-155,-53,81,702
-395,-16,-62,-120,-148,-185,-138,-130,-108,750
-258,-390,-206,-182,-80,-85,-25,-62,-106,593
-520,-589,-256,-143,44,156,260,286,246,324
148,-407,-202,-74,77,215,307,315,228,-322
-738,-204,-2,53,79,178,198,100,-116,-1141
-993,-25,104,190,92,202,158,51,-218,-1066
-699,130,141,288,275,200,107,41,-171,-711
-785,178,215,259,470,210,134,57,-74,-498
-194,215,73,48,200,50,-14,-37,-70,-133
593,182,-216,-148,-76,-127,-190,-115,-51,358
1218,63,-354,-283,-271,-230,-252,-147,-4,762
1487,110,-374,-299,-372,-327,-334,-233,-115,696
1118,230,-292,-155,-293,-258,-277,-194,-117,337
-507,319,25,41,-114,-80,-111,-75,-80,-198
-1154,279,289,162,18,24,-26,-6,-114,-618
-682,60,331,218,152,141,118,135,-8,-540
-305,-81,315,242,240,244,214,201,90,-314
-80,-127,256,212,204,229,191,168,88,-208
153,-185,127,102,136,160,152,126,82,-95
18,-204,7,16,97,119,114,115,99,33
-308,-147,-74,-15,34,54,67,61,106,273
-634,-239,-86,-14,-15,-5,49,54,142,642
-115,-373,-248,-121,-48,-54,20,80,214,1017
970,-418,-407,-189,-42,-106,-45,27,261,1235
919,-305,-334,-102,17,-66,-32,11,212,878
304,43,-101,1,51,-42,-78,-89,-30,100
144,429,67,117,42,-53,-138,-142,-152,-429
631,449,26,120,-58,-101,-134,-80,-25,-404
643,37,-96,-140,-229,-161,-129,-24,118,-163
423,-334,-81,-332,-398,-303,-263,-153,0,106
1075,-348,-54,-331,-497,-435,-410,-310,-96,574
772,-119,136,14,-126,-88,-83,-47,47,489
-1486,204,403,446,395,416,389,319,116,-447
-1844,388,376,398,415,424,405,318,65,-910
-1014,295,283,256,258,260,274,181,-35,-764
-779,163,205,255,233,226,231,125,-102,-629
-683,11,98,254,233,221,195,96,-151,-644
-349,-24,82,181,158,122,88,28,-187,-509
134,-56,56,94,72,9,-15,-52,-163,-264
165,-62,37,83,33,20,2,-15,-14,-11
-134,214,57,29,-33,4,1,5,67,160
-103,309,50,-92,-107,-46,-52,-65,0,168
-292,212,49,-88,-56,9,-26,-74,-75,-7
-98,116,-39,-86,-22,16,-21,-63,-95,-47
83,-10,-57,-95,-36,-21,-24,-24,-16,89
-52,-100,-41,-96,-68,-66,-58,-12,73,194
44,-121,-115,-174,-155,-172,-144,-58,108,396
688,-101,-170,-256,-251,-275,-230,-138,108,796
1483,61,-107,-209,-233,-249,-223,-136,128,1078
1116,182,79,-12,-25,-54,-37,-25,110,768
-451,-15,104,118,136,130,141,95,117,107
-838,-239,-16,57,103,119,136,122,132,-326
97,-272,-125,-31,20,36,55,57,16,-507
75,-147,-119,11,80,69,51,-13,-128,-769
-971,-83,38,110,176,174,135,41,-95,-803
-1232,-109,61,103,139,154,155,75,7,-529
-453,18,98,89,94,84,116,4,-34,-383
221,134,11,56,45,15,35,-95,-142,-301
328,122,-57,3,-4,-41,-33,-133,-145,-124
-84,87,15,5,13,-18,8,-51,-68,-27
-43,3,-39,-27,-5,-6,4,-12,12,17
44,-81,-141,-48,-29,-31,5,-23,30,25
-88,-165,-204,-27,23,44,88,49,77,-33
-111,-215,-232,-25,56,97,132,118,142,46
-89,-134,-119,-3,33,62,89,89,125,142
-60,29,21,34,-5,-34,-41,-38,2,75
-47,149,87,47,-35,-90,-113,-103,-66,29
115,142,148,22,-55,-86,-84,-73,-41,96
317,85,105,5,-60,-78,-72,-77,-60,74
231,31,76,18,-38,-70,-35,-88,-67,17
83,-17,47,-12,-50,-81,-21,-93,-82,66
-100,-112,-42,-99,-131,-143,-71,-105,-68,250
126,-149,-110,-168,-202,-212,-145,-126,-22,484
257,-166,-109,-149,-190,-186,-139,-104,13,515
428,-162,-47,-45,-59,-36,14,21,55,294
1156,53,-21,-56,-88,-67,-44,-50,-23,1
544,134,-18,4,-16,-3,-26,-37,-28,-376
-933,138,118,175,189,190,157,124,37,-558
-899,27,99,174,195,216,186,157,93,-296
-374,-103,-23,69,82,119,82,111,116,-45
-134,-81,-54,-1,-1,23,11,47,90,40
295,-63,-57,-18,-19,0,21,57,118,104
530,-52,-18,21,26,27,63,85,138,115
263,-20,61,72,54,48,29,35,53,116
127,221,129,69,-14,-27,-77,-99,-72,114
-452,224,111,33,-50,-71,-112,-124,-69,198
-665,66,86,15,-29,-26,-61,-41,40,368
104,-8,20,-44,-71,-58,-109,-69,53,528
1208,96,-30,-116,-146,-133,-192,-146,16,740
1647,61,-77,-179,-203,-184,-196,-120,94,1060
1329,-129,-215,-268,-271,-231,-204,-44,246,1074
202,-162,-203,-250,-238,-176,-144,35,299,414
-623,27,-48,-67,-30,27,2,88,133,-512
-358,311,80,26,18,18,-36,-79,-177,-731
68,367,91,24,-19,-22,-98,-161,-275,-310
-12,250,143,48,-32,-36,-113,-178,-298,-166
-1042,-65,157,138,54,85,34,-13,-176,-386
-1446,-332,72,188,194,240,219,187,-88,-880
-1447,-378,62,208,257,299,262,198,-119,-1103
-685,-230,70,181,225,242,169,104,-177,-917
-129,-207,10,132,162,166,119,68,-95,-562
-236,-231,33,89,84,86,62,34,-54,-324
-171,-157,-37,11,17,29,30,18,-33,-171
113,119,-140,-58,-49,-41,-1,-16,-12,-12
44,249,-104,-47,-46,-52,-25,-10,29,130
98,-54,-78,-43,-11,-21,7,33,120,304
355,-268,-158,-134,-78,-70,-23,40,197,558
982,-297,-278,-257,-203,-178,-124,-48,133,795
910,-179,-222,-249,-225,-194,-162,-94,64,932
503,-67,-138,-181,-170,-153,-114,-54,90,962
424,-150,-115,-136,-108,-89,-62,-16,86,745
74,-161,-36,24,96,133,159,186,180,177
-156,84,167,173,235,227,234,248,93,-512
-392,214,273,185,171,129,80,39,-147,-797
-184,268,298,191,134,91,21,-24,-165,-621
-282,234,278,165,121,94,44,8,-91,-265
-124,57,87,34,37,15,15,-23,-57,-67
311,-73,-103,-74,-46,-55,-56,-95,-120,-111
477,-90,-123,-36,-2,-6,-25,-101,-153,-195
167,39,64,73,78,39,35,-42,-121,-274
-46,74,157,133,115,84,49,5,-58,-299
-344,-55,27,65,79,88,54,49,74,-145
-268,-45,2,16,29,52,26,30,63,-140
-127,29,4,23,47,78,47,41,36,-186
274,-44,-49,-4,52,99,81,75,96,-26
552,-61,12,2,13,27,-2,1,32,53
449,-8,115,23,-46,-80,-105,-119,-114,-36
-15,-76,24,-45,-46,-43,-33,-63,-83,-53
-133,-55,-40,-88,6,50,32,38,-7,-50
225,-28,-148,-197,-56,-17,-19,-5,-31,13
-22,-69,-176,-227,-73,-58,-45,-18,-12,89
-350,9,-77,-147,-54,-69,-62,-30,0,124
-882,84,20,48,-15,-70,-70,-33,14,128
-558,128,32,252,82,27,12,38,60,74
-80,217,137,240,74,38,38,81,99,59
-55,202,171,136,-23,-42,-24,35,74,108
-101,62,73,54,-21,-28,-31,-8,-1,53
-61,-19,-13,30,29,35,23,16,-31,-23
89,-59,-95,1,25,47,71,34,-2,89
54,-38,-53,9,24,41,58,8,4,110
13,11,18,3,5,6,34,-9,15,40
54,47,17,-16,-18,-27,2,-5,2,-42
184,48,-13,-32,-20,-28,1,26,-8,93
502,0,-40,-61,-38,-29,6,36,39,312
752,-47,-14,-65,-87,-87,-77,-26,54,483
866,-6,35,-41,-119,-126,-138,-50,89,668
883,161,124,-4,-152,-201,-208,-110,93,916
-346,272,177,35,-130,-219,-245,-130,120,989
-983,98,73,-27,-139,-197,-188,-41,206,793
-739,-121,-89,-122,-163,-182,-140,-33,116,217
-280,-138,-85,-75,-98,-93,-92,-87,-94,-518
387,174,59,55,49,53,54,-67,-238,-842
380,506,148,48,71,100,61,-104,-389,-947
-671,595,149,-1,-25,63,-6,-151,-470,-1155
-754,325,54,22,-36,109,69,-45,-301,-1025
-321,-104,-108,95,53,267,265,179,-14,-531
-142,-426,-204,53,156,246,274,209,96,-162
-130,-456,-195,-30,289,129,178,169,96,9
-33,-442,-163,-21,205,87,153,141,123,99
163,-288,-104,27,122,87,146,114,126,57
363,-62,-28,26,41,30,85,56,80,136
556,46,95,-21,-42,-47,-11,-14,60,328
805,79,96,-71,-136,-136,-113,-89,40,412
453,-6,19,-117,-176,-177,-154,-112,10,271
69,5,-15,-140,-197,-203,-171,-126,-72,4
-343,-73,44,-26,-56,-77,-87,-60,-66,-124
-302,-89,80,74,85,70,60,68,29,-95
-307,-172,-15,30,78,75,118,91,54,-35
-718,-70,-12,45,95,102,130,89,13,-230
133,236,16,-8,34,30,8,-19,-125,-312
616,176,11,-54,-6,-21,-63,-33,-79,-2
265,5,-58,-88,-13,-10,-15,49,80,310
174,-210,-161,-91,30,65,114,171,197,377
277,-297,-178,-117,1,51,85,146,210,290
-462,-289,-56,-23,74,64,30,115,194,126
-601,-137,129,140,196,76,2,55,103,-24
-263,223,225,149,148,-11,-82,-51,0,10
284,313,145,24,-5,-143,-185,-152,-70,255
457,152,30,-26,-41,-118,-142,-111,-44,340
566,83,-23,-17,16,-44,-40,-19,11,397
219,55,-61,-12,-25,-35,-4,-35,-27,421
-578,-89,5,19,-42,-11,50,3,-41,272
142,-217,-130,-91,-153,-84,23,41,39,336
1371,-144,-292,-255,-322,-248,-127,-72,-22,181
491,148,-40,-88,-177,-171,-113,-95,-97,-326
-1110,343,275,165,86,62,74,67,12,-469
-1126,250,274,178,96,91,75,104,74,-136
-53,44,38,22,-27,-12,-21,63,37,184
507,-106,-175,-93,-73,-33,-18,33,-11,29
283,-114,-190,-45,19,73,72,49,-92,-545
-206,-212,-119,62,169,242,246,193,-20,-760
-733,-173,-15,120,261,298,294,220,17,-695
-624,128,41,72,167,155,119,69,-55,-515
-334,271,-16,-45,7,-17,-58,-21,-9,-191
-265,124,-131,-58,-41,-50,-59,70,120,65
-473,-144,-97,22,3,2,-5,101,127,55
-473,-221,20,100,66,60,16,49,2,-182
-55,-110,39,102,68,78,23,48,5,-179
769,147,52,-12,-82,-87,-107,-103,-52,33
771,174,20,-106,-165,-199,-205,-221,-163,61
221,24,-30,-108,-83,-117,-129,-152,-130,1
-314,21,64,-53,31,-22,-42,-83,-99,-56
-618,15,66,-2,122,38,-3,-63,-106,-138
-374,-33,-13,-2,149,66,-11,-55,-97,-128
229,-2,-42,9,102,39,-28,-49,-74,-58
509,169,46,148,52,50,9,-14,-56,-74
144,248,60,119,-22,74,63,45,-23,-114
33,145,31,-61,-75,33,38,53,16,3
163,78,41,-64,-96,-12,-12,30,17,50
34,21,61,-12,-99,-33,-38,-4,-16,46
-104,60,89,-26,-52,-23,-26,2,27,137
109,185,59,-118,-85,-75,-61,-22,73,329
343,261,51,-190,-153,-155,-128,-61,101,522
420,253,35,-211,-178,-171,-143,-34,157,590
336,152,12,-143,-150,-144,-110,-21,133,370
-179,-58,-15,53,-32,-32,8,53,117,124
279,-170,-124,58,-29,-12,49,51,43,351
876,-227,-169,18,-43,-6,50,11,-14,598
1060,-303,-103,36,-34,-5,24,-21,-49,724
1256,-364,-145,-58,-19,35,63,93,109,686
995,-176,-156,-126,-19,28,81,135,189,60
-1054,-15,-29,-50,82,120,131,170,123,-765
-1934,-75,37,43,178,198,178,152,-4,-981
-1129,11,60,30,5,-53,-60,-139,-258,-672
-410,70,15,-4,-186,-287,-267,-340,-407,-281
-53,-233,-91,62,-66,-118,-96,-155,-221,-72
-132,-201,28,194,167,161,145,87,15,-57
-811,153,152,249,241,245,231,168,114,-198
-227,192,69,169,167,180,208,143,112,-243
74,-85,-47,60,84,105,160,94,58,-209
421,-18,-130,-46,-36,-42,4,-58,-80,-187
638,146,-68,-27,-16,-36,11,-35,-52,-99
762,253,75,28,29,-1,29,19,-19,-17
668,146,14,-4,-5,-39,-23,-47,-72,68
-7,-105,-100,-31,-4,-6,2,-25,-20,156
-534,-320,-163,-57,0,5,23,48,83,207
-500,-293,-153,-75,-6,-19,14,64,102,181
-254,150,48,-24,-28,-62,-72,-75,-45,-6
143,469,165,-26,-95,-144,-170,-186,-145,-113
-332,347,87,-57,-132,-160,-176,-185,-183,-201
-615,99,58,-55,-108,-140,-186,-188,-169,-56
-187,-196,105,1,-41,-55,-102,-41,90,536
-383,-403,44,45,33,24,20,119,369,898
-402,-176,-44,-43,-44,-63,-19,91,370,754
75,5,-148,-117,-82,-89,-61,-2,149,248
360,-58,-139,-38,15,4,2,-28,-20,-84
553,34,12,102,137,137,123,29,-84,-422
261,24,152,202,231,272,231,123,-76,-745
-127,-15,111,64,141,175,121,55,-108,-632
10,-27,17,-46,42,75,28,-31,-161,-453
283,2,0,-19,-14,6,-12,-33,-131,-246
558,0,-38,-25,-90,-51,-53,-51,-77,105
623,54,-33,-65,-143,-120,-107,-133,-123,301
445,-21,11,-33,-104,-86,-64,-98,-79,379
193,-239,-31,-29,-56,-31,-12,39,80,409
-151,-360,3,14,-7,10,3,67,105,55
-257,-134,130,84,90,88,52,65,25,-436
732,104,103,52,64,66,60,60,51,-322
558,-42,-11,-58,-42,-27,-26,5,56,-17
308,-141,-78,-174,-184,-188,-185,-137,-63,39
-1554,75,48,-32,-69,-120,-119,-102,-75,-161
-1964,333,217,168,148,100,99,95,44,-238
116,443,92,33,48,20,13,52,50,146
838,149,-94,-62,7,14,-12,57,94,455
140,-162,-115,26,119,130,115,159,154,308
-778,-213,80,149,210,181,172,171,108,-145
-459,-26,156,152,151,111,81,47,-53,-474
-279,37,79,85,86,59,5,-8,-121,-518
161,78,8,13,31,7,-30,-5,-57,-282
449,92,18,-5,-3,-24,-19,24,22,-69
-2,46,-40,-26,-29,-42,-49,-11,12,28
-36,-13,-75,-23,-6,8,-15,-17,-35,35
216,-15,-135,-27,10,40,-5,-27,-88,31
324,2,-192,-59,-25,-3,-9,-30,-39,193
162,-51,-153,-46,-20,-1,11,10,37,352
-153,-62,26,30,31,39,30,45,87,217
52,149,205,39,-9,-56,-68,-50,-28,-37
-33,121,212,-26,-105,-168,-170,-138,-118,-136
-222,25,129,-103,-156,-206,-225,-191,-128,-67
-442,0,66,-102,-111,-168,-180,-136,-69,-52
-561,-233,-17,-76,-40,-81,-74,-7,86,149
-18,-388,-61,-55,-2,0,8,70,142,249
1301,-261,-120,-108,-75,-75,-84,-59,-11,147
1782,52,-56,-51,-57,-83,-123,-123,-121,-110
-68,266,182,169,147,126,94,84,26,-226
-1195,297,223,258,251,225,190,178,116,25
-449,212,131,161,152,125,80,80,43,268
-17,190,131,81,51,37,-16,-8,0,358
52,180,134,33,13,-1,-23,-16,0,213
451,165,18,-40,-40,-47,-66,-68,-77,-119
419,130,-52,-57,-44,-57,-60,-30,-2,-42
22,-63,-114,-42,-9,5,20,112,167,147
-441,-150,-72,-13,-19,23,33,113,123,-156
-726,-81,84,113,-11,39,22,2,-99,-667
-420,-32,89,81,-50,53,63,-36,-184,-603
-120,-72,-6,-14,-92,53,46,-32,-160,-310
-193,-130,-88,-19,114,107,64,17,-87,-180
-181,-102,-167,-37,290,107,102,50,-18,-117
-13,-3,-62,-28,152,43,71,24,-15,-75
60,35,-18,73,37,2,33,23,-9,-40
54,-82,-50,134,27,16,29,52,54,0
79,-117,-53,41,7,28,41,73,91,52
73,-44,-32,-35,-47,-24,-10,4,29,38
-11,85,36,-47,-85,-90,-89,-81,-52,19
67,271,144,21,4,-8,-7,-27,-11,221
169,141,47,0,-3,2,33,42,56,389
163,-71,-75,-72,-59,-14,31,34,72,356
321,-213,-175,-151,-145,-92,-51,-42,30,212
455,-258,-246,-181,-209,-160,-137,-132,-11,128
1088,-121,-146,-131,-169,-173,-154,-151,15,266
695,-7,-52,7,-16,-74,-52,-27,145,467
-324,114,18,145,128,79,62,116,234,410
448,277,-41,53,61,16,-6,30,87,212
654,263,-123,-51,-24,-52,-59,-9,-13,-12
-401,155,-48,-17,2,6,-9,3,-5,-213
-1120,11,121,30,-60,-61,-59,-59,-5,-113
-998,-289,111,17,-151,-138,-126,-107,-30,122
-924,-646,-66,33,-52,20,16,57,109,432
-85,-266,-160,-66,-90,-9,-29,9,44,547
1013,136,-91,-83,-74,-40,-74,-112,-126,264
1562,321,56,14,12,0,-63,-131,-256,-333
34,262,169,179,97,81,22,-49,-211,-657
-760,255,228,325,106,115,86,0,-104,-476
-501,203,224,197,54,109,93,33,-34,-215
-577,37,165,26,55,126,112,91,48,26
-602,-163,-82,-70,3,77,89,99,92,164
-437,-246,-306,-118,-54,33,47,67,83,38
-584,-263,-184,-3,85,151,179,177,120,-246
-103,-7,-3,108,181,218,254,168,58,-445
299,147,43,62,93,120,147,20,-65,-444
378,19,17,-12,16,37,86,-2,-48,-251
661,47,-37,-69,-58,-55,-3,-39,-35,38
-50,109,-31,-24,-21,-19,3,-19,21,99
-871,185,37,99,55,49,40,11,28,-124
-617,210,19,46,-13,-45,-49,-68,-34,-234
136,128,76,-14,-51,-82,-73,-89,-75,-234
296,-5,76,-1,16,-5,2,-31,-44,-187
260,-78,41,18,49,34,2,-63,-91,-201
163,-30,48,17,28,13,2,-88,-150,-295
61,58,79,-21,-21,-57,-34,-101,-125,-200
403,85,2,-109,-115,-157,-130,-119,-27,176
1511,87,-93,-242,-250,-295,-263,-204,22,614
1899,-54,-122,-328,-337,-375,-304,-223,39,770
1282,-105,-88,-303,-309,-352,-291,-202,-14,516
-1280,-304,53,-35,46,7,8,10,19,-20
-2671,-263,170,289,462,440,427,330,124,-545
-1171,194,64,222,392,354,322,207,-18,-595
-381,165,-88,91,226,195,137,74,-94,-356
-108,14,-82,168,127,97,72,54,-33,-52
-15,73,7,196,-23,-7,-11,-5,-15,46
16,95,-22,60,-94,-23,0,66,66,19
107,63,-104,-87,-117,-27,-5,69,62,-10
146,54,4,-104,-123,-45,-51,-21,0,-44
-67,65,51,-64,-93,-43,-52,-45,-11,-73
-108,19,2,-93,-103,-68,-91,-64,-11,33
40,-209,-65,-110,-106,-73,-78,-1,121,361
151,-305,-56,-108,-108,-96,-75,36,210,738
561,-244,-7,-82,-93,-108,-92,24,223,978
806,-170,10,-43,-50,-66,-49,49,235,1044
544,34,-51,-138,-126,-131,-117,-34,171,1036
-245,153,-116,-222,-206,-224,-229,-195,-19,685
-608,0,-169,-185,-135,-148,-150,-171,-90,152
-152,-87,-91,-29,80,77,77,53,24,-256
109,-133,40,147,272,257,274,209,29,-873
107,-196,108,195,327,303,311,163,-151,-1303
690,-154,43,75,142,141,146,2,-283,-1040
1707,-171,-111,-81,-89,-55,-34,-113,-253,-546
-6,-135,15,21,-2,31,27,2,-82,-387
-1990,6,230,233,206,222,181,160,29,-496
-1090,141,188,180,152,192,123,113,-13,-384
-182,168,-2,-20,-25,37,-3,-7,-58,-164
-32,172,-50,-79,-40,21,16,11,22,9
94,103,-54,-66,-30,6,28,36,81,109
143,5,-51,-36,-43,-20,-1,-4,30,32
-7,18,56,38,-25,-28,-40,-92,-48,-54
-126,60,135,84,-23,-44,-32,-111,-53,-4
-27,93,85,42,-48,-60,-33,-82,0,88
59,81,19,-9,-92,-83,-43,-66,53,199
92,39,-3,-36,-88,-62,-19,-18,89,379
279,24,-35,-58,-74,-48,-6,-6,106,551
180,14,-23,-77,-47,-17,16,32,115,575
-133,-32,63,-51,-5,1,50,32,101,394
-206,-58,58,-62,12,29,89,69,105,132
-144,-78,-5,-58,-12,11,54,46,69,-27
51,3,14,71,-42,-59,-97,-65,-55,-24
548,103,18,84,-86,-121,-191,-128,-128,-57
995,145,-23,-20,-119,-130,-178,-115,-114,-145
907,83,-52,-42,-79,-62,-69,-4,-8,-191
422,46,-15,-39,-54,-42,-8,16,66,-98
-698,-1,9,-5,-4,19,41,42,96,59
-1188,-37,0,37,42,86,72,66,35,46
-761,-156,-77,20,62,120,102,110,45,125
-295,-358,-144,-31,72,137,147,177,126,178
215,-411,-125,-86,-5,60,74,97,53,87
457,-237,-41,-83,-53,-6,-17,-3,-78,-43
-1,143,85,-20,-21,-22,8,5,-104,-109
-166,283,91,18,-1,-24,15,0,-76,-32
281,168,18,-2,-33,-59,-47,-34,-38,53
412,132,39,38,-36,-66,-56,-7,11,50
372,35,36,73,-38,-56,-30,16,59,85
-41,-80,-13,27,-17,-6,28,63,106,105
125,123,-25,-28,-45,-67,-39,-28,-3,0
184,228,0,-63,-100,-143,-125,-140,-151,-133
-405,103,-4,-71,-122,-176,-191,-213,-259,-293
-897,-21,-9,-61,-123,-167,-206,-185,-195,-197
-1364,-163,-2,48,26,3,-30,14,0,-102
-566,-377,-45,85,120,122,110,148,165,134
649,-486,-57,64,107,130,143,204,311,552
1001,-101,31,40,35,25,18,84,234,517
-354,53,184,160,134,102,71,151,209,184
-711,237,279,214,171,114,67,102,-5,-349
181,459,219,93,-2,-72,-132,-193,-352,-602
3,119,127,137,112,73,11,-70,-275,-612
-503,-227,19,167,230,223,193,119,-80,-460
-473,-224,-62,94,162,158,163,80,-59,-276
94,1,-95,9,39,34,70,0,-59,-73
168,92,-24,-22,-6,-2,40,-1,19,101
0,95,-18,-18,-6,-11,43,49,100,221
460,151,-27,-27,-53,-50,-34,-44,5,183
301,58,-54,-16,-62,-13,-13,-64,-41,5
-48,-57,-146,-34,-81,9,46,9,42,-73
-12,-19,-112,-39,-114,14,32,2,-1,-211
388,71,-6,-14,-139,36,41,-2,-37,-157
603,-112,-42,-13,64,58,40,28,11,80
360,-190,-79,-60,156,-7,-18,-30,-45,97
-241,-101,-10,-51,46,-36,-32,-24,-62,-16
-594,-20,34,15,38,4,-7,27,32,-44
-477,43,24,7,20,-10,-30,26,54,7
-170,58,-42,-44,-15,-43,-79,-29,4,21
158,85,-3,-20,49,-16,-66,-10,25,79
463,143,26,-16,74,-32,-64,-30,46,234
431,109,20,-44,27,-68,-61,-36,106,511
238,-18,-81,-133,-72,-129,-90,-12,183,803
847,-59,-221,-274,-206,-215,-142,-7,245,980
1986,61,-220,-331,-307,-319,-259,-135,171,1138
1452,271,-8,-175,-288,-271,-284,-191,54,972
29,257,69,-21,-151,-105,-127,-67,54,580
-285,59,15,6,-62,35,50,121,218,493
469,-15,-58,-3,-21,50,63,117,174,69
-205,-92,-10,102,85,115,121,123,82,-517
-1404,-131,65,196,180,184,189,145,4,-1026
-1897,-178,166,276,276,281,235,130,-105,-1407
-1096,-100,120,220,214,247,153,33,-195,-1229
-310,-22,-5,99,101,131,63,-43,-219,-835
-300,-115,-76,90,122,127,116,33,-79,-501
-334,-71,30,138,147,102,92,20,-69,-358
-158,62,229,169,124,52,27,-51,-116,-283
74,69,187,122,86,33,12,-47,-107,-193
348,27,40,13,-24,-27,-36,-74,-90,-102
503,-116,-103,-107,-83,-72,-47,-61,-26,61
449,-244,-154,-210,-63,-41,-12,-25,5,88
274,-205,-50,-159,-13,-38,-15,-59,-32,-34
-569,-41,62,-32,20,-28,-32,-94,-88,-192
-713,129,57,46,33,-7,-30,-73,-67,-180
-235,157,35,153,21,-2,-3,-45,0,-37
-31,179,61,153,-30,5,17,-5,33,52
-13,153,83,-44,-48,32,34,-10,25,51
80,54,1,-115,-47,21,39,-19,47,93
293,-14,-136,-144,-66,-18,-1,0,111,214
386,-20,-120,-187,-99,-52,-40,-7,127,284
39,-55,-50,-180,-82,-45,-13,10,122,326
-452,-99,23,-185,-69,-34,3,28,185,479
-498,-5,24,-176,-102,-79,-25,32,214,625
-178,138,25,-31,-114,-105,-47,19,183,490
339,365,38,0,-132,-145,-106,-90,11,152
966,482,-24,-97,-184,-211,-201,-255,-237,1
792,71,-54,-18,-45,-69,-67,-159,-262,-156
20,-298,11,139,98,111,107,14,-143,-294
-809,-377,58,188,133,160,148,62,-130,-432
-695,-297,50,134,76,92,64,-18,-199,-514
-14,-111,59,67,23,32,-7,-35,-187,-432
142,-24,62,24,46,50,-2,-16,-106,-248
-75,38,24,5,69,82,5,-6,-53,-50
-247,91,-22,22,91,98,40,40,13,67
-134,82,-30,36,82,85,67,84,63,144
5,43,-46,-11,8,19,9,57,65,142
-120,-145,-142,-60,-50,-29,-9,47,52,165
140,-181,-173,-31,-34,-21,14,83,119,519
1146,-45,-64,-15,-57,-43,-2,44,156,905
1288,48,-142,-65,-91,-76,-8,28,197,1023
541,-20,-207,-107,-115,-95,-10,56,222,789
-128,-81,-159,-91,-83,-87,-4,47,101,-2
-696,-200,-77,19,55,79,111,125,19,-691
-19,-112,-67,20,52,65,53,25,-131,-689
458,-47,-58,-63,-52,-46,-85,-113,-221,-430
-25,-105,-27,-43,-8,5,-27,-27,-83,-199
-75,-11,60,-12,75,84,39,71,38,-46
-207,161,98,6,149,162,122,166,120,23
120,229,-9,-63,108,113,96,143,117,63
923,191,-87,-196,-39,-47,-47,-22,3,145
461,133,64,-70,-74,-120,-139,-130,-100,124
-1183,-43,253,214,49,-27,-54,-104,-152,-188
-1293,-122,291,285,128,45,43,-4,-163,-407
-428,7,178,187,87,37,62,57,-78,-292
412,110,68,104,-34,-38,-42,-14,-98,-116
391,13,51,39,-80,-84,-105,-57,-139,-40
-6,-165,57,26,-44,-54,-69,-21,-84,-80
-614,-144,93,83,37,18,32,59,-9,-189
-638,165,152,95,31,32,13,40,-37,-192
-271,185,157,79,16,12,-12,-9,-86,-166
-367,-51,94,64,41,6,34,16,-66,-116
-59,-114,0,8,0,-45,-23,-31,-50,66
781,19,-67,-59,-70,-110,-82,-78,-45,202
653,169,-7,-65,-66,-100,-65,-55,-14,217
218,206,30,-40,-33,-63,-28,-18,1,199
73,142,2,-13,-1,-50,-44,-19,-22,106
-361,-54,6,12,31,-5,-17,32,39,242
119,-189,-29,-26,17,-1,25,86,129,500
251,-145,-64,-44,12,17,34,104,193,638
-77,-23,-48,-27,-3,-3,7,89,202,512
192,27,-28,-61,-80,-108,-93,-13,103,293
408,-73,20,-94,-110,-149,-126,-53,34,189
191,-381,-98,-142,-109,-123,-105,-68,-48,-38
-635,-644,-199,-84,22,38,70,51,-52,-322
-955,-288,-108,52,149,175,205,158,-33,-537
-128,215,7,135,214,233,256,258,38,-571
621,221,52,75,129,118,133,167,72,-136
1037,288,33,-78,-89,-134,-138,-105,-36,298
833,356,74,-113,-174,-240,-257,-200,-79,485
525,346,45,-56,-129,-164,-157,-131,-23,528
216,169,-63,-50,-67,-56,-17,-19,34,422
-68,-30,-21,-48,-12,3,13,30,49,136
-117,-196,-83,-25,43,79,78,96,24,-412
-858,-245,-69,78,183,231,248,178,2,-903
-1237,-276,6,154,271,308,314,201,-32,-973
-836,-239,39,104,168,190,175,96,-69,-631
-790,-93,138,106,91,84,37,-21,-126,-466
-644,50,214,151,133,102,66,-11,-106,-509
118,156,111,101,91,48,24,-31,-101,-386
257,150,21,35,15,-28,-62,-57,-102,-244
212,100,11,27,-4,-45,-44,-15,-52,-94
148,35,17,13,-24,-27,-41,-20,-22,-23
46,13,21,5,-48,-25,-22,-17,-5,-42
128,53,-8,-12,-70,-23,-5,-15,21,17
470,61,-40,-97,-87,-37,-3,-8,35,156
529,17,-40,-77,-64,-43,-11,-45,-10,120
332,-23,-51,-60,-42,0,31,-42,-5,73
-358,31,28,-65,-54,-1,29,25,92,99
-592,164,47,-85,-97,-84,-55,-8,128,175
-84,299,-4,-130,-174,-182,-153,-115,50,231
-44,301,-28,-108,-158,-185,-154,-130,10,212
182,87,-13,-91,-114,-115,-93,-77,44,300
417,-147,-38,-82,-65,-70,-59,-84,11,351
112,-394,-71,-32,31,41,65,17,13,188
104,-594,-100,29,147,171,216,158,71,53
892,-315,-64,20,94,82,86,51,-45,11
1116,51,-84,-76,-72,-94,-144,-168,-200,5
-330,-9,-67,-31,-34,-55,-78,-74,-96,-89
-1344,34,29,60,78,30,22,22,-41,-306
-630,264,64,2,51,5,-13,-13,-44,-231
-89,218,-44,-115,15,-36,-50,-38,-16,17
31,35,-189,-197,36,-22,-14,-4,58,218
294,-70,-225,-154,79,27,63,103,166,408
499,-44,-90,80,116,62,108,128,200,433
183,-80,42,203,133,83,107,70,129,262
-557,-118,146,169,116,112,127,105,130,91
-474,33,277,126,-59,17,15,-16,4,-159
346,169,192,52,-266,-142,-175,-207,-195,-351
669,242,58,6,-375,-181,-216,-230,-214,-275
153,375,5,-13,-269,-132,-159,-141,-76,72
-335,249,-82,-54,50,-108,-127,-86,50,473
-234,-221,-178,-104,85,-123,-136,-46,187,823
67,-316,-170,-87,24,-74,-77,24,240,765
221,-143,-47,54,157,137,116,160,239,319
415,5,36,135,219,288,245,210,150,-143
537,201,134,61,23,123,65,-10,-121,-458
-245,224,181,39,-58,7,6,-75,-163,-504
-824,217,151,-10,-66,-27,-45,-94,-152,-376
-345,192,45,-56,-104,-88,-145,-143,-146,-138
123,100,-79,-31,-102,-99,-134,-81,-3,146
162,-106,-148,-10,-94,-102,-101,-40,83,178
51,-413,-213,131,-2,37,61,110,162,74
63,-455,-251,90,17,125,128,155,129,-106
-274,-216,-38,1,37,150,106,106,51,-345
-261,122,169,97,106,149,87,58,-37,-519
-215,-45,176,194,184,206,160,95,-64,-414
-185,-93,47,130,136,196,146,118,-27,-261
-35,-61,-19,65,62,129,103,117,16,-108
132,-42,-24,33,14,59,47,76,30,4
55,52,8,4,-51,-47,-64,-35,-47,-62
-180,76,11,-5,-99,-98,-118,-79,-84,-121
-45,43,4,-42,-97,-83,-70,-10,-8,68
768,-26,-141,-94,-99,-84,-38,0,76,359
1457,-73,-190,-134,-92,-74,-43,26,136,501
1523,78,-87,-112,-73,-82,-94,-10,89,372
-199,139,117,4,-31,-84,-150,-103,-86,-102
-1220,-2,190,82,39,-15,-89,-77,-99,-310
-934,-48,144,103,88,64,-9,-18,-35,-217
-722,34,127,97,102,98,32,20,-48,-236
-450,193,87,44,36,45,-28,-33,-104,-168
-224,296,72,20,3,12,-67,-60,-86,-28
-101,257,86,0,-22,-34,-75,-77,-85,39
-95,43,72,9,-18,-6,-11,-57,-52,110
-195,-154,35,51,34,71,85,48,60,169
-127,-100,-35,60,38,63,86,47,65,117
121,-38,-141,-1,-2,8,32,18,25,17
188,-107,-166,-38,-4,19,68,93,102,52
-61,-144,-109,-23,7,25,43,104,118,23
-312,-206,-167,-26,17,17,34,51,47,-76
-221,-130,-81,-30,24,13,43,24,4,-114
258,113,57,-22,8,-17,25,-5,-9,-122
507,153,58,-4,25,4,41,-3,-4,-110
339,85,31,5,25,24,53,12,8,-60
190,34,44,21,27,20,52,8,-9,-50
46,-33,32,4,14,2,32,0,-18,-19
-209,-129,-106,-18,-2,-6,34,17,18,26
-243,-127,-138,-13,-4,19,37,25,53,46
121,51,44,10,-4,12,1,-5,37,45
458,150,78,-21,-29,-32,-30,-18,58,181
799,90,6,-51,-33,-25,-10,19,126,512
1251,98,-40,-96,-74,-81,-44,-1,128,791
836,76,1,-113,-124,-164,-111,-54,65,724
57,-85,-20,-120,-143,-189,-138,-78,66,478
-278,-297,-120,-122,-105,-131,-78,-32,90,120
-64,-320,-145,-131,-103,-113,-63,-24,41,-99
795,-250,-177,-139,-101,-117,-101,-53,-17,-5
-283,-45,-97,1,41,16,-8,17,-4,-27
-1400,353,162,161,143,93,44,-2,-83,-292
-686,477,281,156,92,55,0,-62,-176,-451
-468,183,255,149,95,100,37,-2,-119,-427
-512,-26,132,136,101,127,79,35,-33,-336
-490,-32,70,54,63,92,85,30,27,-250
-280,56,-24,-84,-24,19,22,-8,10,-134
22,35,-82,-147,-26,21,4,-14,-8,-115
224,56,-21,-120,17,21,-6,-80,-141,-307
-111,60,94,-68,74,60,17,-91,-201,-465
-182,82,139,-27,77,64,15,-80,-167,-296
-117,57,96,107,50,17,-25,-95,-101,-134
-33,26,27,203,20,-36,-62,-69,-43,-58
36,-85,4,168,35,-11,-15,8,35,8
47,-102,62,136,53,11,-5,33,46,123
90,-32,112,101,19,-23,-36,-1,21,267
116,-33,-18,39,-25,-25,-23,-4,38,344
101,32,-96,-61,-60,-21,2,35,91,271
158,153,-18,-164,-82,-39,15,62,139,46
440,267,-64,-232,-159,-126,-109,-82,6,-120
554,273,-57,-229,-242,-207,-218,-175,-67,40
837,-7,-93,-215,-301,-273,-261,-181,-7,532
1530,-430,-178,-205,-285,-265,-191,-134,114,1089
1527,-529,-197,-138,-207,-191,-123,-85,146,1205
469,-137,-109,-110,-160,-152,-142,-121,42,823
-1032,-68,-137,-147,-104,-80,-56,-4,154,572
-1726,-245,-152,-203,-119,-106,-74,-2,118,245
-864,-224,-48,-68,21,20,14,44,-34,-368
184,-82,114,170,256,253,212,176,-57,-692
-614,28,237,440,413,383,334,221,-104,-985
-1640,41,298,512,434,383,342,174,-200,-1343
-922,250,239,328,259,203,152,-9,-368,-1399
-298,384,109,126,71,47,42,-94,-347,-1028
-90,327,61,78,64,41,52,-52,-212,-619
-144,-27,6,146,180,177,189,99,-51,-414
-50,-321,-94,138,200,212,230,173,63,-220
23,-247,-155,67,108,104,110,108,79,-100
114,-118,-73,0,28,44,51,57,48,-8
92,-77,52,23,17,30,12,22,26,23
64,-46,162,55,24,25,-2,-5,-11,15
97,-14,64,19,6,33,29,53,33,83
128,15,24,-6,-6,16,-3,55,38,130
256,-18,48,-39,-12,-8,-8,22,35,166
460,-59,20,-78,-25,-39,0,-4,24,214
617,-74,-34,-99,-36,-74,-8,-37,6,225
344,-45,-19,-68,-25,-70,-3,-42,5,162
-330,94,45,5,12,-26,-4,-45,-17,101
415,189,-37,-105,-91,-139,-111,-124,-17,328
1472,-50,-269,-317,-240,-301,-266,-239,-23,585
1933,-263,-436,-395,-317,-362,-329,-291,-59,564
391,-162,-273,-139,-171,-132,-114,-113,-13,324
-2160,262,226,255,226,204,216,144,71,26
-1327,423,284,223,393,185,209,145,114,229
-143,128,24,60,146,59,138,136,226,638
-19,-91,-133,-18,-64,-18,83,121,207,402
-171,-132,-149,-23,-89,-29,66,97,49,-244
-240,-104,-116,-1,-30,16,65,35,-81,-627
-260,-31,-54,27,13,22,29,-10,-109,-583
-89,42,60,125,25,-17,-29,-44,-110,-336
284,-32,39,216,12,-13,-41,-39,-79,-170
380,2,35,72,-35,-14,-40,-10,-48,-174
-115,155,214,-6,3,13,-23,12,-43,-165
-268,202,232,34,29,-2,-23,23,-17,-24
-410,118,172,67,16,-15,-28,22,30,130
-356,19,87,46,3,11,-2,55,132,275
-41,-66,-5,9,-4,5,5,80,153,317
154,-69,-10,2,-5,-4,0,32,41,180
224,45,40,-26,-43,-69,-75,-102,-121,-29
90,56,41,-80,-89,-111,-102,-120,-105,25
108,-48,-58,-136,-95,-71,-44,-21,36,237
403,-170,-157,-148,-37,-4,24,83,148,263
833,-135,-154,-119,8,36,56,105,170,126
584,3,-103,-96,-16,7,3,28,33,-159
-425,0,-33,-30,17,18,9,-1,-59,-348
-226,6,31,-15,-8,-35,-29,-89,-129,-164
110,-23,59,-20,-40,-85,-61,-136,-143,103
-29,-161,-43,-31,-36,-73,-31,-85,-105,226
-168,-39,-65,25,29,18,66,44,20,222
-420,104,112,96,94,74,103,152,144,102
-473,95,132,67,25,-13,-26,19,30,-166
-87,105,96,17,-27,-68,-88,-54,-41,-252
130,106,104,24,12,7,5,9,34,-111
105,132,46,-46,-9,-9,18,-8,22,-25
414,185,-28,-158,-71,-92,-64,-102,-75,-34
1211,137,-147,-291,-184,-196,-173,-163,-97,190
1731,-179,-305,-373,-242,-223,-197,-121,1,428
787,-638,-343,-256,-88,-33,-25,47,137,367
-1449,-526,-130,77,111,170,150,205,192,235
-1037,131,78,203,32,52,5,37,42,274
542,203,64,91,-36,-9,-18,0,50,290
-205,83,91,114,80,136,124,113,91,-159
-1484,109,148,177,171,201,146,102,-33,-594
-643,134,72,75,57,61,-8,-12,-145,-360
-297,80,70,43,-1,11,-93,-53,-114,-19
-313,88,128,116,90,110,23,56,-11,-114
-115,227,194,147,121,123,60,90,-31,-451
-146,230,208,83,41,19,-43,-15,-103,-501
-145,112,96,52,38,-3,-57,-36,-80,-286
-32,-68,-16,26,73,55,18,54,-14,-120
23,-165,-58,12,90,87,63,106,4,-106
74,-35,-26,-9,48,54,47,82,6,-89
271,96,-6,-68,-40,-69,-66,-65,-60,202
431,120,27,-87,-91,-146,-123,-147,-50,600
467,83,19,-96,-100,-141,-106,-101,27,765
371,-36,-57,-116,-75,-72,-17,20,149,585
301,-8,-69,-95,-47,-37,2,11,45,-108
-337,-9,-15,9,51,77,56,23,-95,-752
-678,-121,-47,44,141,158,147,99,-65,-704
-232,-132,-160,-12,115,120,132,146,66,-191
195,-78,-138,-52,34,29,46,82,121,174
549,-59,8,-100,-56,-77,-30,-6,97,363
542,-129,-17,-164,-132,-148,-71,-73,23,396
330,-125,-34,-141,-172,-187,-131,-170,-133,95
-338,27,73,8,-49,-81,-66,-163,-229,-370
-629,131,190,193,133,123,107,27,-125,-496
-411,58,159,197,146,160,171,148,3,-327
-321,-35,56,94,75,97,80,89,25,-177
-343,-139,-28,38,42,67,59,62,55,-87
-326,-159,-111,-4,8,43,67,32,19,-18
-73,-102,-158,-65,-59,-21,-17,-43,-47,81
338,-19,-163,-79,-102,-71,-91,-104,-81,178
624,15,-90,-36,-81,-80,-87,-103,-64,200
421,21,73,17,-29,-24,-10,-19,0,101
676,170,63,-2,-20,-5,9,16,40,177
501,158,-19,-13,4,24,11,52,98,354
390,62,-38,11,22,49,17,61,114,372
252,48,18,27,-4,4,-24,29,69,291
-232,-41,-20,47,3,12,14,82,148,133
-287,-46,-145,12,-28,-4,15,36,100,-177
-218,76,-139,-61,-120,-104,-100,-88,-33,-211
347,222,-98,-196,-273,-283,-257,-230,-74,136
983,263,-89,-266,-353,-407,-392,-304,-44,554
90,288,108,-124,-215,-273,-249,-133,166,844
337,311,174,-56,-161,-207,-160,-83,191,862
390,268,148,-13,-149,-210,-202,-224,-86,562
-94,69,102,128,29,21,8,-90,-156,87
-328,-358,35,232,250,336,301,198,-60,-443
-690,-519,15,206,340,471,427,330,-33,-948
-812,-382,-14,83,212,338,297,195,-101,-996
-1061,-191,-11,54,118,219,150,69,-110,-879
-3,-174,-74,0,61,133,80,73,8,-403
790,-409,-216,-42,24,87,30,76,46,-127
-620,-502,-138,59,117,168,117,159,95,-231
-1605,-323,7,86,102,129,60,92,-15,-373
-92,31,0,-48,-57,-71,-122,-106,-135,-215
1841,336,29,-81,-77,-107,-140,-125,-120,47
1247,437,143,39,39,17,-39,-73,-74,226
-803,260,218,111,66,19,-37,-87,-88,304
-1058,25,37,0,-31,-42,-67,-68,21,554
-98,-318,-263,-195,-137,-95,-59,56,291,841
714,-349,-323,-249,-192,-175,-134,2,237,517
-887,164,61,17,-4,-41,-51,-25,8,-242
-1439,585,257,148,101,50,81,26,-42,-525
-476,453,264,148,123,63,85,3,-99,-671
-199,220,230,148,131,72,57,-2,-106,-749
80,66,119,64,58,35,18,9,-24,-462
184,-51,2,-1,22,24,31,48,47,-145
266,-12,67,55,61,26,55,22,-11,-112
-276,-101,161,172,194,156,148,68,-81,-336
-633,-92,145,157,204,202,186,119,-94,-463
-124,95,46,18,37,38,37,22,-125,-340
147,30,-48,-54,-42,-46,-57,-59,-107,-133
120,-16,-39,-43,-27,-40,-55,-48,-59,-23
152,68,-25,-50,-54,-65,-83,-56,-24,73
100,77,32,-49,-59,-75,-81,-56,0,128
326,11,71,-26,-39,-50,-58,-30,6,177
696,-32,13,-65,-61,-77,-68,-54,-28,227
786,-72,-62,-110,-99,-120,-102,-87,-51,198
44,-130,-52,-70,-49,-49,-34,-52,-12,46
-680,-74,-26,-33,6,5,26,16,53,-4
-504,89,-16,-65,12,-5,-17,0,47,11
-131,86,-23,-114,75,34,7,9,38,9
-20,-71,-105,-215,118,65,43,55,86,62
100,-116,-150,-297,95,45,37,67,142,149
163,-94,-153,-325,17,-12,-8,46,159,249
97,-61,-99,-185,-5,-36,15,80,180,340
221,-26,-45,44,-84,-101,-17,4,124,409
313,-16,-53,210,-160,-146,-82,-78,37,393
107,46,-10,210,-152,-85,-18,-34,-16,167
223,181,-19,108,-112,-12,53,18,-50,-59
292,177,-42,58,-79,6,69,25,-43,-77
391,142,17,44,-86,-38,2,-46,-53,53
253,129,102,66,-81,-78,-65,-91,-64,83
180,73,112,50,-73,-100,-98,-119,-92,84
292,-6,78,33,-29,-53,-44,-89,-61,173
506,-67,12,14,0,-9,-2,-53,0,401
394,-81,-13,79,16,17,32,-31,1,472
-107,-38,2,226,54,77,56,15,-7,236
-492,-54,-72,102,37,112,88,116,110,-12
55,-39,-144,-171,-75,13,28,83,161,-107
474,0,-107,-212,-139,-104,-96,-44,78,-40
688,-75,-174,-233,-180,-163,-150,-89,82,456
538,-266,-292,-274,-208,-170,-134,-77,126,773
641,-407,-264,-208,-131,-86,-37,-10,127,739
47,-285,-104,11,101,158,189,195,189,359
-794,66,47,122,159,192,161,152,46,-139
-766,15,90,59,71,71,28,26,-86,-645
-534,-110,77,3,1,-2,-38,-41,-215,-1073
66,-35,93,-43,-60,-92,-142,-169,-360,-917
23,22,54,-30,-50,-91,-137,-152,-256,-497
-467,7,-28,-65,-61,-64,-82,-52,-51,-182
-159,-19,-67,-129,-117,-97,-99,-45,26,29
-208,54,86,13,10,35,27,51,63,27
-273,233,356,290,291,277,247,195,77,-211
-344,256,328,266,281,241,219,152,-6,-378
-520,278,154,88,117,96,100,80,-57,-349
-96,130,-5,-21,5,17,0,1,-39,-118
64,-13,-42,-14,-29,4,-30,-33,-28,14
25,-11,-5,-1,-14,4,-49,-50,-47,64
-45,-57,-19,-12,-47,-24,-110,-121,-128,20
-98,-136,-17,-6,-47,-31,-112,-137,-161,-31
304,-218,54,40,37,52,-12,-20,-29,35
13,-103,151,107,103,109,62,90,90,43
-618,-147,1,45,23,30,-11,33,95,119
0,-393,-274,-144,-133,-101,-125,-43,98,245
131,-468,-162,-1,33,72,49,119,172,79
-159,-61,127,221,216,245,200,210,174,-127
-147,402,205,167,102,82,9,-33,-59,-266
176,388,55,-3,-52,-79,-149,-178,-185,-225
-74,177,-64,-49,-71,-75,-102,-103,-109,-156
-328,104,-46,24,33,38,62,40,-4,-203
58,125,-38,31,71,82,93,41,11,-120
349,-97,-112,-12,31,51,71,22,44,121
900,-179,-148,-87,-65,-34,-31,-44,11,239
466,-2,-51,-49,-88,-42,-72,-60,-8,217
-1065,272,144,55,-53,1,-38,-22,24,105
-715,422,112,-29,-209,-132,-129,-100,21,226
-91,454,32,-128,-311,-245,-210,-137,29,541
298,405,67,-69,0,-158,-145,-75,96,725
374,117,111,81,288,56,64,78,166,629
-123,-313,-3,111,271,207,242,242,253,327
-26,-486,-105,20,140,130,205,178,100,-229
51,-407,-110,-2,75,49,92,13,-176,-759
133,-149,-77,66,121,68,103,29,-114,-505
792,58,-70,79,87,-11,23,-9,-50,-96
1556,112,-60,29,1,-114,-76,-57,-34,85
1534,88,4,10,-15,-82,-66,-58,-23,131
346,79,19,27,-2,-35,2,-45,2,113
-797,34,-15,49,0,-16,39,-8,52,24
-869,10,-17,1,7,29,88,51,63,-73
-458,-19,26,-27,17,69,133,84,40,-166
-325,-93,32,-11,54,107,171,129,82,-165
-467,-109,21,23,83,126,190,175,65,-261
-481,-64,41,56,82,103,148,109,-48,-431
-494,-94,15,63,80,85,87,30,-104,-433
-285,-81,-29,22,23,35,2,3,-93,-266
-18,-63,0,-22,-30,-2,-32,3,-42,-65
27,-75,-2,-24,-36,0,-43,9,3,104
-2,-95,-80,-45,-37,-28,-62,13,24,193
181,-37,-231,-113,-105,-94,-110,-37,-6,234
232,6,-170,-135,-147,-118,-105,-41,13,360
204,22,-94,-96,-105,-60,-63,-10,81,468
216,104,-26,-77,-84,-74,-84,-49,46,444
36,152,48,-51,-68,-61,-61,-34,33,315
21,21,-25,-56,-39,24,17,48,84,116
-22,-50,57,3,-9,40,5,10,-16,-190
-79,43,209,67,0,11,-41,-57,-110,-239
0,89,194,49,-6,-3,-21,-13,-57,63
28,-65,99,17,-13,7,8,31,59,417
-175,-270,18,-16,-20,7,30,93,197,562
-328,-356,-50,-66,-35,-13,21,102,212,310
-476,-336,-16,1,48,76,69,142,128,-283
-62,9,25,33,39,42,13,17,-100,-631
-4,274,14,-12,-46,-35,-90,-144,-263,-547
122,254,7,2,15,19,-31,-54,-155,-271
515,217,23,15,49,26,-4,-14,-78,-106
583,252,64,-16,-13,-25,-78,-88,-107,-89
433,284,51,-71,-85,-99,-140,-140,-79,-42
355,287,5,-109,-128,-145,-162,-172,-77,109
417,189,-7,-115,-132,-141,-134,-164,-67,319
476,-14,-85,-171,-157,-155,-165,-178,-79,431
819,-237,-176,-257,-184,-166,-191,-182,-75,427
1092,-338,-251,-334,-226,-164,-184,-149,-36,383
551,-295,-241,-300,-178,-81,-94,-57,30,228
508,-67,-138,-148,-85,-25,-59,-41,-8,-36
-806,326,257,264,175,147,65,30,-38,-339
-1426,449,389,391,262,209,147,74,13,-234
-398,182,178,153,107,113,110,80,117,173
591,-266,-63,-88,0,32,85,135,251,501
587,-588,-207,-30,84,92,154,204,259,229
-110,-477,-70,338,379,328,355,301,154,-467
-1782,-29,165,475,539,444,368,226,-62,-1050
-1892,318,227,297,414,329,217,54,-218,-1038
-831,328,137,62,171,105,23,-92,-271,-727
-486,29,60,-7,115,61,0,-26,-130,-376
-224,-115,7,46,42,60,26,49,8,-81
-280,-152,4,81,-70,13,53,57,32,6
-509,-90,18,113,-101,0,107,85,44,-34
-393,6,43,105,-126,-32,74,47,25,-56
-14,56,-21,19,-153,-98,-23,-45,-7,12
-12,57,-29,-30,-168,-136,-98,-107,-52,0
-1,25,-65,-50,-138,-130,-111,-90,-15,104
249,-31,-156,-86,-122,-103,-101,-34,76,359
250,-121,-200,-91,-110,-78,-87,-24,95,522
385,-21,-123,-55,-81,-76,-73,-26,59,572
681,40,-40,-10,-35,-18,-14,51,128,524
795,51,25,34,10,16,1,56,126,220
370,57,65,33,-3,-32,-51,-10,72,-97
120,39,74,10,-18,-62,-82,-63,6,-68
613,93,10,-44,-69,-121,-128,-98,-33,372
1216,60,-98,-104,-112,-143,-149,-92,16,693
662,42,-60,-101,-102,-114,-115,-61,48,371
-228,150,101,0,-27,-48,-69,-35,-9,-404
-402,52,101,84,55,20,-29,-30,-47,-728
-800,-86,44,68,116,49,25,-22,-54,-687
-721,-141,-66,-34,72,0,6,-90,-104,-500
-430,-274,-180,-117,9,-32,-38,-99,-108,-294
9,-242,-153,-71,-7,-28,-25,-68,-32,-116
1050,-15,-63,99,-38,-39,-50,-60,9,23
1174,119,47,186,-32,-28,-18,13,81,55
-424,2,125,25,6,67,101,113,177,26
-844,-133,36,-107,0,86,134,130,186,58
-389,73,-24,-90,-10,49,77,72,90,17
-285,275,-27,-14,25,38,54,22,15,31
-139,198,109,61,49,5,48,-37,-62,-71
-132,74,98,43,37,-4,39,-54,-109,-182
-168,32,33,4,12,-27,31,-28,-57,-64
134,111,35,-28,-16,-37,18,-1,-16,55
657,139,36,-27,-11,0,12,-15,-27,134
866,104,18,-12,32,34,33,-14,-42,122
380,27,7,9,50,51,52,9,-40,109
-413,-28,16,31,76,70,76,38,-9,78
-86,12,-30,-31,9,4,-8,-4,5,168
287,120,-115,-112,-89,-96,-126,-90,-40,174
179,251,-145,-122,-121,-137,-148,-124,-116,-27
-266,252,-102,-87,-123,-137,-137,-136,-145,-102
-436,49,-125,-112,-143,-141,-124,-104,-30,186
-291,-338,-217,-161,-139,-128,-66,3,163,640
180,-564,-200,-116,-77,-69,5,100,263,791
1010,-215,-5,22,37,34,58,142,259,614
173,93,141,148,147,126,137,183,229,288
-691,114,151,189,177,150,142,162,114,-198
-712,171,125,218,189,139,85,52,-124,-600
-490,125,68,161,143,103,39,-9,-246,-751
-288,13,-49,108,112,82,38,0,-223,-694
-223,-48,16,99,102,85,62,20,-155,-522
-301,-75,69,85,69,58,51,41,-62,-320
-234,-29,75,51,30,23,25,29,-40,-80
97,47,70,12,-8,2,-8,-2,-30,293
267,96,65,-20,-32,0,9,21,14,565
180,156,104,-25,-68,-50,-12,36,63,587
157,187,115,-42,-103,-95,-85,0,98,390
369,194,66,-61,-130,-145,-150,-71,11,-104
271,119,0,-71,-119,-120,-113,-53,-11,-341
274,1,-63,-85,-101,-94,-83,-43,-30,-144
-10,-172,-98,0,21,36,5,25,-84,-281
-194,-272,-119,81,132,154,134,116,-83,-466
-37,-218,-110,56,127,126,127,116,-85,-411
88,-126,-71,0,37,51,54,63,-63,-219
-176,-107,-4,5,14,39,28,51,-36,-116
-249,-81,14,4,0,31,-4,32,-40,-62
369,-80,15,-41,-55,-36,-64,-24,-49,32
697,-138,-65,-121,-126,-97,-103,-63,-35,148
64,-195,-109,-169,-131,-106,-119,-54,5,251
317,-149,-80,-153,-106,-88,-95,-1,62,306
562,-29,10,-76,-60,-41,-44,41,95,321
-690,37,130,45,59,63,43,95,114,157
-955,27,144,67,51,46,33,45,29,-63
-636,-64,33,38,38,38,81,59,43,-2
-646,-24,13,76,141,178,234,198,159,148
-142,303,-12,26,97,124,127,105,58,156
369,437,-100,-77,-24,-68,-86,-85,-69,120
250,209,-15,-110,-47,-121,-125,-109,-88,20
483,-78,23,-114,-26,-92,-107,-99,-60,35
666,-315,-23,-103,45,20,23,38,106,272
1126,-228,-112,-163,-13,-26,36,31,138,522
345,-15,-22,-102,-57,-81,-33,-47,75,482
-1078,157,228,210,82,30,24,-22,43,220
-615,181,221,226,118,83,44,7,32,177
-120,71,59,53,79,57,29,24,39,103
-208,-12,-20,14,98,98,57,78,82,-137
-430,20,27,55,99,72,43,33,16,-388
-545,44,100,85,46,0,-30,-60,-94,-534
-570,49,112,140,44,3,-32,-81,-129,-561
-321,156,135,99,14,-42,-60,-143,-163,-456
-172,182,170,95,49,3,0,-99,-118,-315
6,72,116,70,71,55,57,-3,-46,-192
313,17,75,13,44,42,54,23,-6,-102
272,-102,16,-25,21,47,46,13,9,-124
263,-139,-24,-52,-37,-1,3,-54,-54,-288
402,-81,-47,-45,-117,-50,-35,-100,-95,-267
466,16,-64,-39,-184,-54,-51,-93,-78,-117
202,30,-40,-37,-82,-34,-27,-50,-23,-10
-196,-22,-51,-32,152,-18,4,-12,11,28
-166,1,-88,-55,61,-69,-28,-43,4,36
217,-35,-124,-68,-78,-127,-76,-104,-11,92
29,-168,-32,-33,-59,-69,-16,-65,28,186
616,-104,20,-35,-56,-68,-20,-72,34,366
934,12,20,-51,-67,-68,-68,-91,11,432
-587,6,13,-6,-11,0,-22,-47,27,324
-872,72,45,-4,-20,0,-8,-28,60,253
-104,108,44,1,-15,14,0,16,110,158
237,125,62,22,8,9,22,2,79,-19
322,144,19,-47,-83,-95,-80,-139,-79,-173
-81,16,-18,-40,-74,-57,-67,-127,-105,-202
-233,2,-5,20,33,63,40,9,6,-83
-91,-100,-23,28,36,62,79,60,90,200
156,-385,-124,-7,24,72,93,110,200,608
437,-394,-155,-2,41,97,121,146,237,695
-102,-195,-89,91,147,200,263,289,320,408
-322,123,4,59,91,138,204,232,228,-43
462,189,-5,-74,-82,-41,-58,-58,-69,-341
273,8,21,-37,-58,-31,-85,-122,-139,-311
-370,0,56,50,75,30,-36,-78,-120,-245
-528,92,121,118,156,19,-69,-133,-222,-388
-271,73,122,147,166,16,-76,-147,-246,-556
-369,-31,47,146,169,101,45,-7,-92,-581
-436,-95,26,138,157,158,111,69,-38,-481
-198,-37,37,90,92,136,104,73,-24,-264
-31,6,-2,-26,-48,39,50,29,-25,-102
0,1,-33,-63,-136,-9,8,-5,-37,-45
125,39,-78,-57,-196,-68,-18,-38,-63,-3
148,57,-72,-61,-195,-101,-50,-81,-59,28
-75,18,38,-35,-131,-92,-42,-90,-62,14
-195,-14,30,-35,-94,-70,29,-29,-35,-8
-127,-54,11,-26,-42,-25,98,44,28,28
77,-47,18,10,21,30,126,69,35,63
265,73,-26,-7,-25,-5,18,-2,-39,75
344,106,-62,-20,-55,-55,-56,-65,-100,121
319,52,-114,-29,-53,-56,-61,-53,-77,227
354,7,-102,-53,-59,-51,-53,-35,-33,299
495,-19,-72,-66,-70,-73,-54,8,32,320
909,-22,-72,-66,-121,-122,-99,-2,77,437
1058,-57,-91,-80,-167,-166,-144,-57,46,571
612,18,-2,-75,-140,-150,-118,-22,112,708
-266,144,52,-105,-59,-128,-107,-3,179,783
-901,21,40,-146,85,-13,-6,65,210,434
-271,34,6,-249,86,-28,-56,-31,20,-90
285,83,-55,-306,65,-37,-82,-93,-120,-422
241,42,-134,-110,122,97,74,70,-61,-566
-166,37,-123,69,25,60,76,38,-135,-548
-1096,3,-65,51,-125,-16,1,-41,-233,-532
-937,-179,-28,34,-109,-7,-2,-56,-254,-553
-875,-241,119,284,86,148,154,62,-130,-519
-298,-56,221,417,240,273,297,192,24,-407
-47,-19,136,275,187,199,246,176,60,-248
-74,-34,80,113,21,51,102,91,38,-118
-180,-34,44,47,-40,-20,15,60,14,-63
-174,51,104,75,-9,-28,-12,15,-8,-102
-57,51,71,71,20,17,1,42,17,-59
71,-12,-33,-22,-33,-30,-39,-7,-5,30
411,7,-32,-63,-68,-77,-84,-58,-24,51
404,4,-31,-28,-40,-41,-53,-12,12,61
-43,44,-40,20,9,-12,-8,21,29,51
-72,62,24,11,-3,-29,-23,15,11,51
-80,36,47,22,2,-32,-19,-27,-27,19
-71,41,45,22,9,-30,15,-57,-38,-11
24,30,42,7,-11,-38,-5,-57,-27,22
100,-14,1,-8,-22,-34,-19,-37,1,110
5,-64,-37,-35,-27,-33,-9,-19,17,163
-8,-48,-45,-61,-51,-57,-27,-21,20,194
261,-21,-57,-83,-71,-68,-32,0,69,275
716,-27,-49,-95,-80,-74,-40,-19,50,268
1202,-29,-49,-97,-97,-118,-91,-83,-33,193
677,-34,-17,-32,-34,-54,-62,-36,3,128
-824,-108,43,57,77,92,70,111,113,77
-866,-76,15,30,49,67,76,91,115,122
-408,109,-30,-9,-15,-11,18,46,125,295
331,207,-72,-83,-108,-98,-56,-7,90,355
705,90,-202,-160,-187,-137,-90,-27,58,372
734,17,-215,-147,-151,-110,-77,-19,51,350
230,-2,-31,-19,-47,-25,-66,-4,25,259
-51,-41,14,58,46,64,7,52,61,161
127,44,-58,48,55,69,48,63,38,60
187,92,-44,-1,1,-12,-21,-36,-59,0
617,112,-53,-115,-128,-138,-159,-166,-139,-8
880,106,-130,-221,-222,-214,-201,-172,-110,-17
-219,48,-30,-124,-118,-91,-78,-37,13,-25
-1204,-9,193,93,68,64,38,36,18,-149
-1105,-107,211,134,85,65,41,18,23,58
-523,-205,62,20,-18,1,-12,35,120,588
-296,-127,-15,21,-34,5,1,85,166,615
182,51,-35,-45,-84,-35,-45,-4,43,283
730,178,18,-48,-34,14,-1,-22,-79,-140
455,99,54,71,119,170,171,149,-17,-489
-126,-214,-8,132,164,214,253,274,120,-470
-570,-345,107,174,125,139,138,144,33,-572
-758,-242,169,156,71,39,30,-36,-207,-795
-691,-329,54,184,156,170,161,59,-177,-775
-820,-161,59,247,242,271,256,136,-132,-766
-411,194,124,188,166,176,129,42,-192,-684
-71,221,144,114,92,90,64,11,-190,-533
11,117,112,44,40,42,17,5,-118,-291
177,82,85,17,17,11,-24,-25,-79,-68
131,56,57,8,3,-8,-10,-19,-36,11
24,7,23,-11,-11,-14,1,-13,-1,35
18,2,-12,-25,-29,-16,-15,-33,10,37
-54,19,-9,-46,-35,-12,-42,-33,20,-19
-113,-9,-18,-50,-18,-2,-12,0,70,17
-20,-12,-25,-49,-6,3,18,8,60,74
132,4,-44,-37,-13,-4,-5,-65,23,97
101,-12,-24,-39,-17,4,-17,-62,43,87
117,-14,-21,-52,-41,-29,-12,-27,67,75
151,-2,-61,-51,-44,-41,-10,-14,68,88
107,-4,-56,-32,-25,-16,-20,-29,47,104
109,9,-48,-20,-16,-26,-44,-42,38,107
118,31,-14,-18,-31,-25,-37,-14,34,107
108,46,-23,-27,-34,-38,-19,14,48,104
107,5,-98,-37,-33,-45,-45,-15,20,104
90,6,-84,-42,-29,-38,-64,-34,2,111
197,-1,-32,-47,-39,-63,-79,-50,-15,136
453,-49,-153,-97,-86,-117,-139,-99,-33,235
1119,-83,-163,-148,-133,-161,-181,-117,-3,400
1895,-88,-126,-199,-182,-204,-204,-124,67,636
631,-58,-122,-219,-207,-248,-208,-122,98,761
-675,-139,-175,-265,-278,-322,-294,-181,57,686
-903,-175,-230,-226,-260,-292,-260,-171,5,323
-662,-204,-40,57,98,84,117,154,201,30
-241,-85,198,290,370,366,372,336,242,-271
848,279,229,215,229,205,181,74,-76,-493
448,232,202,188,201,173,127,38,-123,-358
-828,96,175,192,209,184,166,105,-9,-48
-1034,130,206,181,181,162,148,97,28,201
-400,123,94,52,64,72,72,62,69,389
230,-43,-100,-79,-22,2,31,94,173,484
50,-216,-132,-59,5,11,39,102,174,124
-109,-100,-29,-38,30,-32,-53,-48,-13,-312
-126,43,42,3,131,-5,-64,-104,-114,-389
-260,210,136,50,198,32,-56,-97,-134,-397
-286,381,142,33,64,-45,-111,-103,-128,-422
-404,351,105,108,-9,-33,-62,-31,-38,-401
-157,220,80,88,-22,-27,-48,-68,-112,-330
245,89,67,14,-38,1,-26,-97,-148,-48
316,-112,-36,-24,-75,51,55,-24,-76,185
-81,-357,-183,-28,-76,94,133,87,31,165
-356,-375,-213,-48,-96,54,123,111,72,-114
-165,-288,-188,-117,-148,-48,8,49,36,-250
235,-81,-5,-73,-101,-53,-20,16,14,-248
616,34,147,0,-27,-45,-20,-37,-30,-152
47,-30,146,0,-9,-16,7,-19,-8,-1
-312,-132,89,-11,3,32,23,10,-15,-75
-91,-125,54,-25,22,52,25,30,-17,-88
-154,8,45,-45,41,67,54,66,38,51
69,85,34,-65,9,25,24,43,36,120
190,95,19,50,4,14,18,37,2,65
165,147,82,156,-22,-14,-45,-57,-80,-144
20,122,86,114,-52,-46,-81,-86,-68,-228
-163,43,38,45,-56,5,-47,-54,-56,-160
-363,5,42,52,-13,62,-8,-12,-36,-41
-170,60,25,21,-30,15,-28,-15,10,110
21,88,-15,-8,-56,-35,-50,-28,22,200
45,106,-14,-14,-61,-38,-45,-26,35,204
266,41,-37,-58,-91,-93,-99,-58,0,248
476,-81,-91,-95,-125,-117,-124,-74,23,416
853,-128,-150,-142,-175,-159,-136,-89,55,560
656,-34,-136,-119,-146,-140,-123,-82,17,394
-408,84,-135,0,-3,16,1,31,55,6
-606,119,-96,23,36,38,-2,-6,-38,-371
-231,97,-38,-7,-22,-47,-102,-134,-183,-430
41,-97,-4,-15,-16,-48,-108,-128,-182,-327
-183,-269,-9,-16,-1,-25,-76,-79,-145,-293
-855,-113,28,24,28,-9,-22,-26,-99,-275
-457,53,61,45,53,9,2,-4,-50,-165
214,61,53,75,109,61,60,60,10,-75
93,35,-10,82,125,83,73,79,28,-98
-281,113,-27,102,137,96,82,81,40,-69
-66,118,69,122,187,160,158,180,126,33
96,13,82,87,157,147,164,172,133,149
138,-62,-10,35,94,91,89,72,40,167
-51,-111,-114,49,91,84,98,61,17,54
200,29,32,33,43,5,62,14,-4,-54
296,20,-21,-16,10,-31,41,21,34,61
332,19,-63,-47,-4,-22,50,35,50,153
565,15,-55,-68,-33,-26,21,27,43,227
964,-36,-59,-110,-82,-83,-64,-26,51,398
1100,-127,-122,-118,-84,-101,-93,-41,52,397
-210,-242,-116,6,24,22,23,67,109,261
-1515,-169,14,86,82,81,81,101,113,41
-525,11,-1,18,-43,-60,-69,-55,-6,166
662,129,-95,-144,-196,-235,-247,-213,-79,622
919,68,-203,-306,-295,-329,-321,-250,-33,956
651,16,-200,-310,-257,-259,-217,-129,127,925
441,-41,-185,-188,-107,-94,-71,-22,118,301
-262,-142,-157,-27,36,43,58,41,46,-528
68,-1,-166,-3,7,-10,10,-19,-3,-552
-438,189,-74,82,65,27,74,55,81,-188
-873,214,5,156,140,124,181,147,139,34
-335,189,169,198,141,114,160,65,-8,-38
-198,144,290,247,178,125,140,31,-154,-396
-476,22,204,226,216,179,161,58,-190,-743
-539,-31,171,189,175,150,101,-9,-256,-902
-395,-53,174,138,122,117,63,24,-148,-612
-377,-115,137,95,106,113,78,74,-32,-345
-368,-119,127,103,101,97,83,63,-22,-362
-130,-103,85,69,62,63,66,37,-23,-298
8,-101,35,22,5,23,35,15,-11,-153
-28,-83,-28,-12,-41,-17,-3,-49,-30,-88
-227,-84,-38,-8,-10,-13,21,-33,-12,-110
-202,-38,-16,12,21,15,56,-22,2,-90
-59,0,24,-10,-4,-10,-2,-52,-17,-42
234,0,2,-42,-38,-46,-37,-33,-12,28
396,23,12,-47,-60,-41,-29,-13,7,67
173,71,13,-33,-47,-32,2,10,40,71
-157,40,-9,-24,-25,-25,27,65,82,72
-397,-67,-12,-44,-39,-52,1,20,38,41
-303,-115,-58,-82,-75,-90,-66,-44,-13,60
-70,-23,-12,-68,-64,-69,-69,-34,-6,97
395,168,61,14,-1,-1,1,5,24,80
677,186,54,5,-18,-19,-12,-19,22,70
576,123,25,-45,-58,-51,-53,-54,1,87
316,2,-29,-45,-31,-13,3,17,33,81
184,-100,-42,-26,1,33,48,56,78,111
295,-100,0,-5,-3,24,18,34,93,191
539,-60,-2,1,-11,-2,1,27,91,229
-188,-65,-18,50,44,39,22,31,63,132
-957,106,98,78,58,42,23,-14,-19,-3
-148,239,77,14,-30,-48,-83,-101,-94,72
579,169,-94,-36,-77,-92,-122,-121,-67,210
919,65,-125,-80,-108,-126,-154,-134,-58,349
703,27,-55,-82,-96,-126,-129,-120,-55,410
186,-29,-45,-31,-14,-21,33,26,57,331
-434,-115,-74,5,31,76,145,152,170,127
-634,-80,-45,-25,19,39,75,78,63,-233
-970,14,64,-2,32,8,9,-17,-101,-556
-849,139,118,1,38,-31,-40,-79,-175,-451
19,189,65,-70,-11,-93,-92,-83,-157,-109
432,85,21,-87,-4,-77,-58,-49,-136,28
383,-58,-11,24,36,4,-2,-26,-113,-60
-99,-176,-25,189,75,80,37,48,-36,-168
-305,-142,47,142,79,99,91,107,34,-145
1,-18,41,26,60,93,81,98,-1,-161
264,-11,-5,-9,52,114,97,104,-13,-132
482,-46,-116,23,11,67,82,80,-10,-13
422,-146,-177,67,-75,-17,7,48,-13,91
182,-306,-254,-150,-197,-81,-93,-7,-4,224
314,-304,-142,-329,-207,-122,-140,-87,-62,181
-93,-201,-26,-199,-48,-45,-102,-63,-88,-7
-427,24,84,-11,137,51,-32,4,-64,-163
-242,246,190,123,257,137,58,74,-20,-276
-298,279,229,162,231,146,63,96,5,-246
-540,264,169,133,173,131,86,120,25,-178
-214,193,74,63,84,83,87,85,27,-62
83,115,89,0,-67,-10,19,10,1,37
58,50,60,-65,-168,-100,-54,-36,14,185
-54,-42,24,-107,-196,-138,-89,-32,72,332
-260,-158,12,-78,-126,-69,-32,31,159,463
-324,-261,-1,-29,-11,18,34,68,159,407
-751,-236,-11,14,75,87,81,104,109,153
-518,70,-90,-27,17,21,27,81,72,23
253,239,-120,-82,-56,-53,-39,26,80,11
667,231,-37,-72,-60,-56,-33,-14,56,-29
656,121,-14,-84,-86,-72,-34,-53,41,23
351,-125,-80,-80,-53,-33,19,-18,47,65
649,-167,-103,-54,-16,12,56,13,-8,41
1257,-12,-8,-67,-65,-56,-37,-82,-93,5
898,-25,87,-5,-27,-28,-38,-73,-114,-121
-294,-42,132,62,38,34,0,-19,-85,-266
-644,104,135,79,70,76,33,14,-54,-271
-514,241,85,34,52,55,16,0,-58,-223
-361,286,56,-2,-2,0,-35,-46,-82,-179
-325,84,23,-1,3,-4,-31,-37,-68,-127
-576,-167,2,22,62,66,32,37,21,-49
-499,-189,39,31,55,69,60,43,73,25
-307,-56,84,45,54,63,62,57,79,41
-32,96,120,38,35,23,-14,-12,12,10
219,101,84,-10,-11,-45,-64,-57,-8,54
289,23,19,-42,-35,-49,-63,-47,-6,142
190,-14,18,-47,-52,-60,-73,-59,-12,199
-11,-40,26,-55,-39,-45,-58,-31,53,282
-58,-67,-11,-89,-56,-46,-40,15,132,358
-48,-40,-82,-136,-117,-84,-50,41,172,265
-120,103,-116,-155,-155,-144,-131,-72,31,-48
-130,235,-69,-92,-130,-148,-172,-172,-150,-213
589,195,-45,-20,-92,-118,-162,-168,-190,-130
657,-15,34,76,38,31,-29,-31,-92,11
193,-201,70,139,162,185,128,116,66,73
-459,-119,64,154,198,212,150,149,100,-29
-584,-6,93,122,151,144,81,77,11,-124
-179,29,95,70,77,72,0,-11,-58,-136
-23,-54,43,69,81,81,27,34,6,-91
333,-86,2,62,88,92,72,90,102,113
836,-68,-51,9,34,26,24,46,91,383
840,-48,-57,-68,-55,-80,-28,-15,91,555
145,-178,-73,-58,-34,-43,13,18,143,588
-1055,-342,-42,76,140,148,197,196,238,299
-563,143,54,14,22,-1,26,42,48,-121
228,431,-38,-132,-162,-194,-183,-132,-71,-258
289,226,-119,-138,-151,-196,-181,-111,-60,-318
298,90,-147,-139,-121,-173,-178,-132,-131,-334
29,-6,-133,-89,-61,-102,-130,-112,-172,-314
-538,-40,-54,-15,-14,-39,-81,-112,-213,-478
-909,-15,65,55,25,12,-39,-85,-183,-478
-534,-75,72,100,104,116,117,88,33,-243
-10,-226,-29,94,161,198,242,236,217,21
171,-154,-14,97,137,167,170,155,104,27
-243,-10,-28,76,71,100,59,16,-44,-133
-164,-14,12,25,5,52,3,-19,-16,7
-180,-72,14,-9,-19,2,-31,-51,0,135
-120,-110,-3,-44,-44,-28,-27,-18,59,277
184,-41,-17,-26,-22,3,19,41,101,342
381,59,-8,-27,-23,-5,8,36,93,394
355,67,-27,-68,-71,-69,-47,-21,64,508
371,81,1,-67,-83,-93,-71,-67,9,516
222,63,38,-38,-49,-47,11,-30,17,489
94,72,26,-37,-28,2,72,74,135,374
179,116,-6,-57,-37,-22,33,15,48,-147
294,92,49,-6,0,-20,0,-62,-107,-607
560,-14,83,66,46,44,49,-28,-110,-628
150,-127,28,81,72,93,97,18,-51,-545
-1003,-200,-65,89,108,155,140,45,-30,-479
-929,-102,-51,43,62,118,88,-7,-78,-375
-94,26,-15,-4,-4,31,-3,-58,-100,-226
412,139,49,20,-5,5,-32,-62,-90,-106
445,159,64,33,-3,-8,-31,-59,-84,-69
134,35,29,18,5,12,-12,-53,-82,-126
-183,-68,24,19,28,24,-7,-26,-51,-135
-207,-147,1,21,27,27,32,24,19,-38
174,-158,-36,-23,-1,-2,53,19,30,36
391,-120,-94,-67,-26,-28,27,23,42,70
355,-83,-173,-56,-22,-21,2,35,36,119
304,8,-163,-74,-54,-73,-64,-66,-31,235
600,176,-91,-98,-88,-107,-118,-126,-63,342
913,149,-70,-70,-72,-72,-110,-83,-4,360
457,79,-31,-43,-32,-24,-45,31,177,452
411,55,-14,-102,-113,-119,-114,-25,182,501
481,-8,-29,-137,-158,-178,-170,-79,93,452
147,6,-31,-119,-128,-134,-135,-19,100,465
-1092,66,-30,-8,1,-13,-49,31,63,183
-987,63,42,62,86,80,33,28,-63,-348
-743,-87,104,149,189,198,144,106,-130,-778
-330,-75,166,194,232,219,166,130,-122,-673
179,28,165,132,149,119,125,68,-63,-349
-302,60,139,56,47,25,60,-9,-46,-197
-590,64,88,25,-11,-31,15,-15,-26,-144
-206,40,0,-2,-32,-52,-16,-36,-11,-57
-436,-70,-28,46,54,55,38,29,24,-41
-346,-74,-40,18,62,49,5,10,-3,-4
-135,-21,-58,-15,19,-14,-31,-48,-78,-17
-75,41,48,25,67,21,39,-10,-63,-74
91,154,123,87,151,129,121,77,0,-107
274,177,65,50,102,98,72,54,15,11
223,64,-37,-14,26,38,10,46,38,185
159,-96,-75,-22,-2,3,-33,13,35,302
8,-183,-19,12,-21,-32,-84,-39,19,267
65,-279,39,56,4,7,-48,14,61,130
158,-287,-19,36,16,46,3,71,85,-15
37,-165,-73,-7,-6,39,10,45,43,-9
278,-134,-129,-76,-49,-21,-38,-12,0,155
324,-157,-171,-114,-61,-42,-35,20,57,302
483,-28,-54,-79,-26,-7,-4,41,87,216
969,188,48,-113,-85,-78,-98,-56,11,71
534,181,63,-130,-66,-80,-101,-78,-67,-79
-325,-39,20,-114,14,14,-8,-20,-52,-57
-535,-237,-109,-146,0,-7,0,0,12,195
-115,-313,-202,-80,-32,-41,-1,14,89,420
638,-137,-178,106,-31,-46,8,10,103,491
966,234,33,167,-50,-89,-48,-56,-26,293
500,273,204,136,-30,-95,-75,-132,-154,-188
-204,-46,123,102,52,-5,22,-57,-87,-384
-742,-117,63,116,107,70,112,57,20,-340
-845,72,80,101,63,38,59,-11,-56,-395
-221,61,20,76,12,11,16,-35,-78,-320
172,0,-57,2,-1,2,17,-6,-47,-167
151,-29,-7,-56,12,14,43,35,-27,-165
-284,-25,-28,-48,39,58,101,116,20,-161
-841,65,62,41,100,115,137,131,45,-240
-822,144,132,95,87,83,81,52,-16,-265
-653,72,73,68,21,11,30,10,-20,-138
-459,0,37,29,-36,-29,2,-22,2,-8
-367,-61,-6,-9,-64,-61,-23,-43,30,81
-481,-187,-32,16,-7,5,31,52,118,107
-730,-270,-35,109,90,111,106,140,157,39
-159,31,65,79,37,18,5,4,7,51
857,318,89,11,-37,-68,-76,-101,-64,195
951,225,30,-57,-67,-87,-67,-93,-11,308
908,133,-17,-93,-114,-126,-103,-77,43,435
989,157,-35,-142,-178,-205,-181,-107,42,419
790,136,-38,-146,-195,-201,-183,-105,44,244
153,66,-45,-114,-131,-147,-105,-8,88,142
-629,-58,-120,-108,-70,-78,-19,54,98,86
-353,-133,-171,-101,-46,-49,-12,-4,8,-14
85,-22,-65,-1,45,38,32,25,-15,-131
113,147,82,81,89,50,39,13,-47,-161
-143,86,104,108,118,53,69,32,-62,-132
-71,-100,26,87,130,93,123,90,-24,-90
-12,-161,-26,55,67,56,74,70,-4,-41
-82,-171,-46,-6,-19,-19,-7,53,65,25
184,-229,-98,-118,-120,-122,-101,-25,71,143
991,-214,-121,-136,-94,-100,-88,-46,18,174
1197,-60,-40,-47,43,-13,-20,-41,-84,-151
29,95,78,47,150,38,18,-36,-145,-430
-980,32,29,20,162,77,73,15,-81,-347
-871,-91,-139,-64,120,98,111,95,46,-75
-392,-116,-191,-127,75,94,100,114,76,12
-570,43,-30,-82,89,117,130,131,65,28
-448,301,143,38,26,40,38,30,-25,33
-288,326,230,164,-80,-91,-71,-82,-88,143
-214,125,99,164,-106,-97,-12,-43,-11,250
-233,-96,-4,103,-29,-11,126,90,127,202
5,-59,-24,85,5,22,154,161,192,68
330,163,13,69,-30,-39,77,64,54,-83
560,265,115,45,-51,-70,35,-9,-73,-117
907,238,74,-18,-65,-92,-11,-97,-141,56
672,67,-6,-54,-59,-71,-13,-79,-79,214
-289,-136,-18,-6,-7,5,50,37,64,150
-722,-204,-5,-19,-34,-7,50,43,103,52
-643,-173,-44,-76,-98,-87,-60,-66,-21,-65
-225,-136,-33,-81,-99,-81,-71,-64,-40,-80
271,-24,30,-22,-27,-3,-2,15,5,-102
121,-13,27,1,36,40,7,-4,-65,-305
474,-188,-82,-77,-36,-9,-75,-73,-81,-89
1653,-312,-223,-214,-187,-179,-228,-198,-105,247
2630,-241,-351,-292,-272,-291,-312,-260,-111,373
145,-228,-125,-78,-51,-56,-87,-52,-7,129
-1787,39,196,222,232,224,174,131,-3,-429
-698,465,287,215,194,167,122,44,-117,-577
-1551,354,299,231,232,222,179,124,-24,-467
-1530,97,214,245,246,267,204,185,60,-361
-908,-19,81,118,118,140,63,90,14,-171
-592,-76,-31,-14,-32,-17,-72,-15,-43,11
-132,-7,-40,-56,-98,-75,-121,-57,-49,36
189,114,37,-14,-8,-10,-55,-3,0,-8
179,119,116,-18,45,57,9,40,55,57
50,97,88,-43,35,68,29,64,47,32
-62,123,69,-43,27,65,47,61,15,-55
2,247,24,-11,-33,-4,-17,-28,-11,-69
-47,215,18,104,-79,-78,-77,-84,-10,-55
140,93,2,61,-140,-125,-136,-99,21,245
632,0,-44,-27,-163,-132,-131,-90,64,675
909,-11,-120,-50,-151,-104,-87,-62,62,771
242,-49,-151,4,-62,5,24,54,109,568
-330,-256,-125,26,70,146,184,242,219,188
63,-329,-154,-114,-18,40,77,131,106,-213
113,-430,-203,-221,-108,-79,-58,-33,-58,-394
-274,-291,-157,-193,-72,-105,-137,-155,-255,-517
-529,180,-32,-9,0,-86,-176,-208,-334,-530
-452,349,78,322,192,79,-6,-63,-216,-488
15,335,231,345,238,186,108,82,-41,-303
580,271,178,64,119,133,112,162,106,43
491,32,-25,-61,-22,28,44,125,128,192
314,-263,-218,-113,-130,-43,-48,23,94,238
714,-268,-294,-190,-214,-110,-148,-76,-17,213
1399,-37,-83,-118,-146,-58,-142,-114,-110,26
295,209,190,80,59,139,55,49,14,-148
-872,242,274,149,121,180,139,117,107,-166
-583,140,174,78,38,85,54,63,82,-72
-364,8,75,52,-13,16,-4,37,56,-36
-436,-26,66,66,0,3,-21,0,7,-69
-210,15,85,61,17,25,1,5,26,26
188,15,79,17,-18,-7,-21,-18,25,218
452,30,42,-37,-72,-60,-48,-52,10,394
307,17,-93,-82,-91,-62,-20,-39,34,418
-95,1,-189,-68,-50,-30,30,-5,31,181
-379,16,-139,-38,-31,-9,65,42,55,-42
-326,-6,-190,-45,-57,-43,14,16,23,-164
-16,5,-134,-31,-43,-50,-34,-51,-86,-155
352,31,-33,-42,-42,-56,-56,-91,-125,45
293,-5,-57,-59,-33,-22,7,-36,-34,161
133,-58,-159,-70,-28,1,60,23,39,42
48,-34,-228,-64,-29,0,31,-15,-16,-249
-85,43,-79,-9,-14,-22,26,-34,-40,-255
-184,78,70,23,-24,-62,-15,-60,-55,-20
-161,-10,181,30,-33,-68,-43,-79,-51,143
76,-91,156,37,7,2,35,0,48,246
697,-67,121,3,-4,-19,26,6,74,247
850,6,105,-41,-59,-92,-60,-45,41,211
543,100,132,-37,-53,-110,-93,-58,41,318
533,162,112,-66,-113,-184,-158,-118,25,529
154,139,29,-115,-166,-189,-162,-20,183,805
-224,0,-38,-128,-155,-141,-124,63,300,888
-734,-70,10,-74,-108,-96,-99,14,197,510
-1129,-101,60,12,-6,12,20,80,123,-97
-637,-101,50,50,52,72,46,79,0,-554
207,-39,56,82,98,119,43,27,-158,-667
248,-4,20,57,91,108,12,-31,-285,-785
-186,-53,-93,13,44,74,-9,-37,-247,-692
-270,-155,-169,22,62,106,60,58,-61,-408
113,-161,-79,56,129,174,126,123,-17,-355
135,-112,-7,76,147,170,104,99,-101,-402
-642,-101,23,115,160,172,117,102,-97,-283
-548,-52,6,65,85,87,48,18,-128,-87
-319,-50,-18,-6,26,29,0,2,-73,5
-143,-113,-127,-79,-41,-2,-16,34,9,-20
-22,-83,-133,-72,-42,-27,13,77,59,-186
103,78,69,60,33,-4,20,99,82,-67
459,266,221,73,-44,-105,-137,-76,-4,477
478,290,246,22,-92,-143,-187,-146,21,915
592,32,65,-41,-43,-60,-24,58,286,1166
731,-101,-107,-123,-65,-71,19,129,388,998
480,39,-36,-116,-102,-136,-84,-56,76,34
-128,143,3,-58,-54,-96,-88,-125,-165,-765
-491,167,-67,4,27,-6,-26,-129,-318,-978
-350,40,-182,-1,63,33,25,-120,-345,-772
368,-217,-185,-54,44,52,53,-63,-221,-323
846,-587,-232,-43,93,132,174,112,50,31
-983,-286,12,65,127,90,105,77,-31,-380
-821,185,115,70,83,15,-14,-33,-162,-451
-308,405,240,178,185,125,92,51,-105,-422
-184,225,259,240,286,243,231,145,-24,-439
-371,89,201,161,194,159,138,102,16,-292
-649,25,113,81,93,69,53,34,8,-239
-440,-45,-6,73,102,82,41,17,-20,-221
-134,-85,2,32,92,73,46,5,-36,-121
125,-68,30,-32,51,29,14,-17,-33,-29
122,-69,-38,-81,32,15,23,28,53,44
126,0,6,-106,-11,-19,-11,-9,28,37
269,71,11,-95,-61,-87,-97,-112,-46,29
491,57,-19,16,-70,-95,-92,-101,-3,107
163,63,-50,70,-60,-69,-67,-55,65,185
-428,67,-59,24,-51,-45,-35,-15,82,197
-204,10,-43,-35,-57,-53,-43,-26,30,189
-25,-48,-6,-45,-42,-43,-29,-24,6,131
-73,-71,10,4,24,19,37,23,-11,-3
-147,-64,29,57,62,75,85,56,-22,-93
-104,-61,23,22,33,45,37,54,14,-24
-92,-23,5,-3,54,10,-7,21,23,16
-48,8,-32,-12,67,-36,-60,-49,-42,-5
-28,-19,-59,0,54,-21,-49,-44,-50,4
-70,-21,-3,0,38,-16,-17,-26,-14,45
-83,-19,-5,-36,17,-28,-13,21,40,122
37,-65,-52,-51,0,13,38,115,129,211
108,-103,-151,-42,-69,28,29,82,122,184
133,33,-101,-15,-112,-16,-14,10,50,61
170,137,23,-30,-139,-64,-58,-63,-26,-2
109,136,34,-48,-93,-55,-57,-59,1,32
230,107,-1,-90,-89,-70,-76,-42,42,108
225,-98,-75,-83,-41,-17,-19,17,114,172
256,-214,-93,-20,32,59,75,101,153,151
430,-161,-85,-44,-1,8,-19,7,61,97
433,-84,-63,-56,-46,-60,-85,-59,2,95
427,30,-43,-2,-56,-74,-82,-74,0,96
192,140,-3,62,-50,-63,-67,-57,0,199
69,262,26,28,-51,-82,-75,-70,11,452
450,285,32,-38,-83,-129,-129,-105,40,660
274,170,-43,-95,-109,-150,-128,-18,207,733
