-45,21,48,16,5,-8,14,-32,-48,-42
-62,-27,11,12,9,2,22,-15,-32,-18
-85,-39,-50,9,12,16,12,-4,6,-13
-103,-42,-20,6,11,22,5,17,23,-21
-98,-11,31,17,25,10,0,28,13,-42
-67,5,68,25,26,7,27,19,0,-43
-17,4,49,6,15,14,21,16,17,-23
12,8,64,9,4,13,8,16,58,-2
3,-10,57,7,-5,18,-2,38,90,20
6,-23,25,-9,-8,0,-28,57,100,25
19,-19,17,-10,0,-17,-49,31,79,31
31,-9,16,-10,3,-9,-66,-6,33,32
23,15,17,-4,0,5,-70,-28,-6,16
19,49,12,1,2,0,-31,-11,-8,12
17,62,-43,0,-5,-11,-33,-16,-20,8
19,18,-71,3,-6,-6,-54,-36,-40,3
25,1,20,15,-1,1,-48,-42,-42,-4
28,-5,41,22,3,0,-35,-50,-48,-29
21,-23,25,27,0,-10,-39,-37,-48,-37
6,-16,29,34,2,-15,-52,-33,-37,-27
-4,2,50,42,0,-33,-49,-29,-24,-13
-12,-1,50,30,3,-37,-37,-29,-13,6
0,-5,13,16,0,-17,-33,-25,-17,14
14,-5,0,11,-2,-16,-33,-13,-17,14
16,-8,1,0,-3,-9,-25,-2,-22,17
32,-4,-94,-10,-6,10,13,-4,-15,25
45,11,-130,-5,-4,7,19,-8,-12,31
48,23,-48,3,-14,-7,-9,0,-1,32
56,50,10,4,-4,12,-1,14,25,31
47,56,13,4,-6,18,8,0,13,16
37,13,20,17,-16,6,-3,-24,-3,21
37,-2,20,3,-33,-8,2,-21,0,37
22,-15,-51,-19,-18,-4,-14,-16,-1,20
0,-35,-54,-15,-15,11,-25,-10,-1,9
-25,-55,18,8,-11,21,-14,1,-7,11
-17,-47,-19,7,-1,3,0,15,9,23
-1,-49,-84,0,0,-19,13,11,22,26
22,-33,-18,-12,-1,-12,29,14,14,19
25,-15,28,-6,7,-17,26,13,11,16
8,-3,11,-13,-9,-24,-1,3,-13,5
6,9,-46,-24,-23,-33,-22,-15,-40,-1
-5,13,-31,-24,-16,-38,-21,-22,-48,7
1,4,-58,-37,-17,-19,-14,-22,-34,25
30,0,-21,-41,-15,-7,-5,-24,-16,32
82,1,20,-45,-9,-10,3,-26,-12,41
171,15,9,-19,4,5,17,-12,1,31
95,26,34,18,27,39,36,4,21,18
-58,35,77,42,31,54,41,15,23,-12
-52,20,50,29,-3,29,27,8,15,-32
-16,5,1,1,-28,-5,12,10,28,-9
-21,33,24,-8,-35,-21,30,22,35,-9
-40,60,13,-21,-37,-30,30,24,42,-5
-52,45,23,-31,-48,-40,10,13,20,4
-74,-12,12,-20,-58,-35,-13,-2,-13,4
-39,-18,18,-4,-39,-29,-3,6,-6,13
59,14,42,-3,-19,-4,12,7,18,17
50,20,55,8,-10,16,10,6,5,9
14,12,47,25,-5,3,15,9,-8,-9
30,13,27,6,10,-6,9,5,-13,-11
31,-2,19,-23,11,0,0,-2,-30,-10
-4,-14,14,-21,7,-6,-1,-8,-31,-19
-21,-18,20,-7,4,2,4,-13,-25,-15
-17,-32,20,-2,10,16,8,-11,-13,-9
-3,-41,21,-6,8,21,1,-12,-11,0
30,-29,27,-13,-8,-4,13,-11,-8,9
40,7,24,-19,-12,-8,60,12,7,21
28,-9,10,-7,0,4,92,22,9,3
32,-56,-44,-5,-3,2,60,7,6,-10
-34,-90,-39,4,7,14,25,8,16,-19
-116,-108,-15,18,21,35,33,18,6,-54
-77,-42,-4,4,1,27,21,-10,-18,-67
7,52,18,-10,-20,-6,28,-37,-23,-52
30,73,27,-10,-21,-20,43,-13,4,-11
10,36,7,-16,-21,-5,38,13,26,23
-8,-3,-4,-3,-27,6,0,4,13,20
-11,10,-3,10,-21,-5,-24,-3,12,3
14,63,-4,4,-28,-4,-50,-9,10,16
46,61,-38,0,-36,9,-40,-16,-3,31
65,29,-97,-6,-30,0,-33,-13,-14,25
57,2,-53,-1,-19,-7,-29,-11,-1,16
23,6,-89,-5,-11,10,-19,-7,12,9
-10,-2,-59,-2,-7,17,-11,-4,-6,0
-6,-9,0,0,-9,-3,12,-6,-12,-11
85,11,-12,0,-5,-16,6,-26,-20,-17
193,58,12,-17,11,-14,-34,-40,-39,3
283,70,4,-58,25,-20,-41,-32,-42,41
419,51,-25,-104,16,-9,-34,-18,-9,86
429,65,-5,-168,-27,9,-24,25,47,153
350,69,-26,-143,-108,-7,-5,44,93,199
190,-1,-35,-102,-133,-26,-29,6,67,195
-84,-95,-12,-167,-112,0,-20,0,55,142
-401,-196,-12,-70,-57,21,12,23,63,52
-535,-267,-5,106,138,31,7,-17,9,-60
-372,-180,-14,183,184,31,0,-23,-25,-125
-64,-47,-30,234,34,18,6,-9,-32,-138
26,27,29,158,-21,27,33,17,-12,-136
40,87,87,82,-9,38,46,40,0,-117
72,64,75,60,5,37,37,25,-24,-112
-15,15,68,49,24,41,47,19,-27,-120
-87,30,84,42,35,31,36,11,-29,-126
-62,60,97,47,30,13,20,8,-27,-96
-101,36,90,40,29,11,16,12,-13,-85
-165,19,82,36,30,12,22,21,11,-71
-112,0,68,35,14,1,10,9,21,-54
-70,-20,40,17,0,-31,13,-17,6,-30
-60,-37,-23,8,-5,-39,16,-18,26,1
-73,-46,-11,1,-10,-41,14,-8,40,3
-77,-11,19,-8,-15,-51,13,-12,25,10
-58,15,17,-28,-34,-53,1,-30,24,17
-49,38,12,-45,-54,-65,-22,-49,10,15
-118,44,15,-45,-46,-60,-4,-26,32,32
-166,14,2,-41,-68,-49,2,-18,26,51
6,12,-21,-57,-128,-86,-91,-85,-44,52
177,24,-33,-58,-168,-129,-151,-141,-96,39
207,-28,-49,-57,-162,-115,-118,-118,-73,49
101,-143,-110,-29,-139,-30,-1,-20,-7,42
-123,-253,-65,2,45,119,167,142,101,33
-321,-177,20,-24,249,167,230,194,126,-18
-294,75,39,-79,139,56,108,65,26,-59
-150,261,43,-33,50,-23,32,9,-25,-52
37,199,27,135,50,-35,21,15,-12,-17
120,8,-19,185,60,-6,13,14,-6,11
104,-45,-56,77,37,16,-8,19,20,23
65,-52,-42,6,22,11,-11,14,24,-8
11,-30,-23,17,21,5,0,7,10,-28
-35,-9,-12,28,32,21,26,28,29,-31
-43,-31,-26,31,31,26,14,12,14,-36
2,-35,-12,40,14,-2,-25,-10,5,-8
49,-22,0,24,-4,-13,-53,-10,-1,25
90,-9,0,-4,-15,-16,-30,-9,-2,44
149,22,4,-2,9,-21,-42,-31,-1,40
128,43,28,15,90,-11,-45,-61,-33,15
10,56,62,35,150,-5,-26,-64,-47,-24
-133,63,66,55,153,14,8,-17,-19,-44
-198,4,61,40,131,45,12,-17,-46,-73
-97,12,51,12,73,65,36,3,-34,-43
-48,5,50,13,96,67,44,19,-33,-20
-50,-14,38,10,-12,32,2,10,-38,-15
-10,22,49,-5,-184,-29,-18,17,-26,2
14,44,45,-8,-157,-39,-26,5,-25,5
-20,10,6,5,-64,-29,-15,-1,-28,0
-59,-19,-15,9,-35,-26,-8,-4,-28,-4
-5,-31,-21,-6,-32,-16,-1,5,-17,6
78,-10,-58,-13,-23,-19,-4,10,-19,6
61,-6,-40,-13,-15,-5,-39,2,-18,-3
0,-10,-31,-17,-8,-11,-32,6,3,-8
-1,6,-38,-75,-7,-22,9,19,25,3
-7,23,-50,-127,-7,-3,14,35,56,9
-47,49,-44,-116,-4,-6,4,57,94,7
-36,53,-51,-70,0,-12,-22,44,90,-2
-37,11,-56,69,7,1,-48,13,35,-31
-35,14,-11,133,19,-17,-49,-3,16,-58
-7,26,19,49,-4,-18,-15,0,5,-47
8,19,-10,-15,-23,-13,-16,17,-5,-24
18,31,-118,-26,-36,-18,-35,23,-24,-15
28,53,-74,-16,-40,-17,-40,16,-32,-4
32,47,20,-12,-33,-30,-43,-2,-29,-5
19,45,7,-11,-24,-20,-32,1,-17,0
-7,29,-65,-15,-25,-21,-1,10,8,8
-18,16,-30,-16,-12,-6,21,10,0,21
21,11,30,-11,-10,-14,37,16,-8,31
73,26,26,-2,0,0,46,30,0,44
95,24,21,-11,6,11,37,41,28,43
161,17,8,-21,0,-12,0,31,3,27
251,47,-30,-38,-15,-22,-28,22,-14,20
195,44,-19,-34,-6,-24,-26,18,8,15
45,16,7,2,27,1,-24,10,14,-5
-50,-6,-54,40,44,12,-19,24,12,14
-142,-55,-173,50,62,16,-8,58,32,37
-165,-70,-134,3,34,37,4,83,75,71
-24,-15,-41,-64,-44,48,39,112,114,113
152,10,-16,-152,-133,33,71,111,122,135
303,23,-20,-241,-185,8,60,78,95,93
345,137,-71,-222,-218,-33,-28,-13,-21,-27
336,228,-45,-85,-9,-107,-157,-140,-176,-162
372,318,-10,17,127,-169,-241,-224,-243,-179
229,267,62,44,-35,-183,-240,-210,-210,-130
-118,38,89,39,-78,-137,-142,-125,-129,-126
-421,-259,64,28,47,-39,-29,-30,-46,-115
-618,-481,-11,3,201,80,62,62,34,-81
-636,-513,-42,12,279,172,118,120,91,-88
-418,-286,-20,26,255,126,63,58,32,-117
-226,-26,40,202,158,35,-19,-21,-37,-124
-82,112,123,429,53,27,4,13,5,-62
244,151,43,175,-5,48,58,66,80,22
358,74,45,-54,-17,72,115,118,141,76
396,-30,64,-58,-18,80,132,135,160,110
384,-23,49,-18,-3,65,85,67,101,86
315,66,21,-4,-3,41,27,22,35,46
190,116,0,-24,-34,-7,-10,-23,-6,30
-70,49,-78,-28,-37,-8,-7,-29,-6,30
-282,-44,-125,-20,-10,19,3,0,20,36
-193,-23,-94,-30,-9,5,2,7,26,43
-24,32,-10,-46,-22,-26,-26,-21,4,39
2,3,9,-53,-24,-38,-38,-36,-23,31
161,2,11,-76,-57,-80,-66,-76,-57,18
280,-2,27,-92,-79,-104,-98,-106,-80,0
103,-56,8,-83,-75,-81,-83,-89,-83,-43
-40,-62,1,-35,-41,-34,-42,-54,-69,-97
-17,-52,32,12,1,-6,8,-24,-27,-117
-69,-60,50,20,-12,-6,13,-23,-29,-123
-398,-56,27,42,-30,-17,11,-30,-42,-119
-670,40,-6,96,0,35,51,10,0,-106
-632,24,29,138,32,90,84,41,28,-99
-387,-5,46,108,6,76,106,42,40,-53
-131,16,77,15,-71,12,88,36,27,5
-24,-17,54,-51,-57,-3,75,35,24,32
-33,-41,8,-28,40,27,62,9,-1,14
-51,-12,9,1,80,38,71,-2,-16,4
-47,-41,8,22,83,28,53,-17,-43,0
-42,-78,-5,10,52,13,19,-23,-48,12
-35,-51,7,0,29,12,-7,-35,-65,14
-27,-23,32,-13,20,7,-26,-40,-59,11
-17,11,42,-21,31,11,-43,-48,-52,8
11,49,31,-58,61,18,-57,-62,-65,6
26,57,18,-109,71,29,-61,-42,-52,6
111,52,5,-129,63,18,-46,-37,-23,13
196,53,-15,-116,-18,-5,-38,-33,-15,15
211,32,-33,20,-78,-23,-39,-22,-30,20
186,-17,-81,83,-79,-44,-40,-9,-9,20
136,-62,-24,12,-95,-11,0,40,33,47
118,-67,-17,-43,-90,20,38,72,58,82
119,-16,-20,-59,91,17,3,22,18,68
86,-7,-10,-27,105,-24,-54,-37,-28,38
17,-31,-2,-89,2,-79,-89,-80,-44,17
-23,-35,-20,-318,187,-40,-98,-98,-64,6
195,61,-20,-541,303,59,-27,-45,-18,70
465,147,4,-790,333,165,87,65,112,202
433,91,6,-823,300,186,134,111,166,242
264,-37,-23,-307,242,159,94,79,119,173
20,-82,-23,356,304,22,-40,-70,-19,-14
-51,87,63,644,-129,-190,-142,-182,-122,-112
160,150,132,571,-411,-213,-77,-90,-37,25
48,6,114,345,-212,-31,75,92,117,121
-302,-144,43,159,-40,77,139,158,156,37
-443,-199,-30,86,-29,83,123,156,102,-61
-439,-186,-139,130,-35,21,53,82,-3,-153
-381,-122,-76,156,-35,-63,-25,-7,-67,-189
-281,-24,27,-24,-71,-82,-35,-12,-51,-141
-171,35,38,-5,-50,-57,-23,-2,-39,-94
20,136,57,350,-48,-73,-64,-41,-72,-86
126,104,64,345,-92,-49,-32,-16,-63,-53
131,-14,62,138,-86,27,64,73,27,34
81,-67,74,93,-100,50,105,113,100,88
32,-48,47,76,-90,23,74,74,75,61
21,-18,26,55,-71,0,26,41,28,46
28,-32,-1,45,-78,-18,-5,9,20,42
40,-41,-11,36,-132,0,-14,6,16,63
-4,-61,-14,31,-189,-15,16,3,23,80
-30,-77,-29,25,-238,-9,25,2,27,68
-16,-63,-18,30,15,23,22,11,58,66
29,-5,-10,38,276,26,17,7,39,51
29,45,-22,33,131,-7,33,21,34,33
-19,55,-84,7,15,-26,52,38,56,28
-35,79,-98,-33,-41,-62,33,-12,23,5
-21,137,36,-44,-55,-81,-23,-89,-51,-40
11,203,90,-40,-67,-94,-50,-123,-100,-85
56,249,92,-40,-74,-125,-94,-142,-132,-104
189,250,70,-51,-90,-129,-122,-144,-109,-101
361,232,45,-62,-75,-112,-93,-126,-89,-81
335,232,41,-70,-71,-113,-87,-137,-113,-74
228,192,40,-66,-69,-121,-101,-142,-114,-44
122,145,17,-43,-17,-63,-23,-59,-35,39
167,115,-26,-34,34,15,82,59,78,131
202,62,-96,-29,34,51,84,87,122,129
18,41,-96,-18,30,43,37,54,84,63
-89,24,-45,-23,0,7,-5,15,26,35
-317,-68,-46,-23,15,31,36,32,45,36
-422,-141,-8,-3,37,40,91,53,71,37
-330,-221,22,6,29,33,66,26,31,20
-153,-177,23,-11,-5,-3,17,-30,-38,-34
292,97,-24,-72,-82,-85,-66,-112,-99,-40
503,161,-19,-66,-73,-75,-91,-104,-78,21
279,39,-3,-25,-18,-31,-60,-31,-25,55
-33,-132,-12,-14,-2,-11,-23,8,14,44
-66,-251,-35,-47,0,-25,-6,1,33,64
-135,-397,-121,-117,15,-24,-26,-18,11,47
-142,-318,-132,-127,50,9,-9,11,20,48
-41,-130,-120,-47,77,54,36,62,40,48
-35,-122,-64,213,121,115,100,106,53,-39
60,-57,48,384,147,138,107,105,22,-114
293,77,123,157,80,94,58,46,-15,-114
129,68,133,59,76,92,36,30,-26,-117
-117,13,87,72,77,69,2,-5,-81,-146
-300,3,52,49,53,28,-24,-39,-117,-176
-344,57,40,36,69,30,-2,-32,-96,-176
-267,124,32,9,53,37,26,-13,-62,-116
-250,120,31,-36,-26,-1,24,-10,-54,-81
-292,6,45,1,-3,14,43,5,-8,-58
-196,-57,54,80,51,44,58,32,44,-2
-73,4,-61,87,42,32,47,55,75,44
-17,117,-143,29,-13,0,-6,24,27,11
-36,103,-70,-14,-23,-2,-20,-15,-27,-39
-20,47,-59,-33,-15,3,-13,-12,-34,-44
-14,5,-72,-20,8,12,-30,-15,-45,-43
-56,-10,9,-9,-9,-22,-69,-47,-73,-56
-106,-28,28,-27,-40,-66,-97,-78,-77,-50
-142,-11,15,-46,-69,-90,-112,-101,-79,-71
-164,4,-29,-52,-107,-125,-146,-131,-106,-98
-121,85,-69,-48,-116,-152,-166,-148,-110,-88
-95,214,14,-41,-112,-152,-139,-146,-100,-74
-88,313,61,7,-37,-45,-36,-45,-14,-1
106,230,44,5,-18,19,26,25,41,63
232,-50,36,9,-44,33,51,51,44,80
263,-195,-5,31,-44,78,91,84,57,95
146,-380,-5,40,-9,119,144,118,97,72
-51,-497,-37,12,-15,123,158,139,110,39
-232,-492,-58,-31,147,119,99,81,26,-46
-183,-147,-43,-27,264,67,0,-28,-72,-106
36,451,39,-17,121,-1,-6,-23,-25,-6
192,410,116,-42,57,38,24,55,69,138
319,72,64,-97,43,55,19,77,105,194
387,21,0,-90,-10,1,-27,29,91,178
536,16,-38,-16,-95,-85,-140,-59,-4,157
556,-28,-41,10,-195,-107,-159,-64,-9,191
347,-118,-37,20,-198,-52,-55,37,72,231
30,-190,-39,-118,65,49,67,106,102,138
-114,-77,-54,-442,45,45,80,67,53,-3
-158,69,-12,-598,-35,14,67,37,-1,-78
-77,111,27,-504,9,-12,47,0,-53,-137
19,69,9,-220,85,-30,0,-70,-106,-186
-246,-22,-38,241,112,-44,-80,-160,-199,-269
-558,-58,-61,405,-24,-55,-105,-177,-219,-305
-524,-69,-32,440,15,81,61,22,-25,-123
-335,-41,13,388,380,154,111,65,26,-28
-124,131,39,53,332,83,7,-68,-85,-73
67,256,130,119,180,82,24,-39,-63,-5
245,358,202,80,133,137,110,63,33,96
269,339,93,-330,28,155,125,67,68,98
208,264,23,-206,-62,110,27,-25,-12,61
50,249,-92,-147,167,48,-121,-125,-107,7
227,333,-177,9,88,-156,-238,-186,-137,18
541,386,-127,354,-194,-371,-326,-252,-174,23
550,36,-95,171,-191,-322,-319,-238,-169,8
444,-112,-115,-12,16,-78,-136,-85,-48,26
177,-143,-72,9,77,60,-7,14,5,-8
-272,-8,33,-6,-273,-90,-100,-56,-84,-134
-648,269,257,62,-575,-222,-137,-60,-89,-219
-323,481,318,217,-408,-106,0,99,79,-53
-61,-37,153,278,-72,84,169,273,267,203
-135,-453,-1,217,12,120,186,262,244,221
-33,-220,-81,59,-79,-23,28,59,56,88
-82,-200,-82,-2,-111,-88,-46,-27,-4,40
-239,-428,-22,32,-57,-39,-32,26,43,66
-214,-552,28,78,-24,13,27,74,62,84
-156,-628,-6,94,20,65,96,120,90,63
-140,-516,-35,110,105,148,175,200,169,59
-141,-214,-16,90,156,198,246,247,207,63
-86,177,28,-38,116,120,141,152,99,23
-63,292,21,-160,68,40,63,59,20,-19
-120,85,-51,-185,103,47,92,87,57,-18
-208,-116,-103,-22,138,36,91,68,38,-18
-188,-173,17,410,89,-12,48,2,-12,-31
26,-147,50,361,50,8,102,51,59,50
137,-106,-13,86,44,41,154,97,115,97
95,-46,-53,33,0,9,109,57,63,65
49,-27,-144,-3,-16,-28,55,16,14,42
36,-57,-127,-29,-32,-32,18,-5,-17,22
9,-238,-134,-56,-55,-47,-45,-46,-49,-29
-36,-357,-67,-39,-46,-58,-68,-69,-53,-50
-29,-254,41,-9,-40,-78,-94,-97,-70,-37
11,74,83,1,-51,-92,-133,-129,-112,-16
79,397,107,-1,-44,-88,-144,-124,-106,13
130,467,105,10,0,-51,-85,-70,-54,61
128,284,17,16,28,14,-4,10,32,104
113,-28,-65,-34,-4,14,-5,16,47,78
142,-198,-112,-103,-78,-71,-89,-81,-63,-6
158,-82,-103,-113,-116,-112,-132,-143,-127,-58
144,463,-4,-63,-84,-101,-120,-146,-134,-75
113,955,174,0,-69,-128,-154,-174,-163,-115
76,480,272,15,-63,-133,-175,-190,-171,-125
-53,-222,194,43,-33,-70,-120,-127,-119,-89
-212,-280,120,33,-12,-31,-76,-82,-80,-95
-154,269,95,-24,-40,-23,-78,-81,-85,-101
71,702,22,-25,3,65,-19,-10,-9,-11
200,427,-70,-15,67,140,52,61,44,41
159,480,-39,-41,16,79,2,-7,-23,-33
50,376,-27,-82,-36,10,-55,-89,-90,-94
26,-40,-17,-104,-28,11,-46,-87,-84,-91
30,-309,33,-99,19,90,23,10,-2,-35
-13,-469,-44,-170,-58,67,11,17,-13,-37
-194,-504,-24,-316,-287,-184,-241,-244,-244,-277
-238,-358,51,-283,-369,-362,-441,-471,-424,-466
-6,482,96,-151,-101,-286,-401,-440,-359,-353
264,1278,28,-170,-45,-141,-199,-196,-94,-17
252,800,-74,-304,-191,23,83,153,246,310
76,-479,-217,-283,15,247,381,463,530,525
201,-1138,-276,153,398,374,495,560,615,565
470,-693,-102,551,337,256,331,387,437,418
375,-275,18,328,99,123,182,221,251,236
233,-141,30,51,-8,111,151,175,185,166
-16,-152,3,-4,-36,110,118,129,140,136
-52,-227,-42,9,-20,75,73,77,89,113
16,-347,-73,65,54,96,71,74,78,102
-32,-184,-27,130,82,129,84,69,40,18
-226,107,24,130,2,92,41,-9,-62,-160
-617,303,133,91,-170,-9,-42,-98,-166,-315
-659,390,221,15,-344,-141,-144,-203,-255,-338
-319,342,192,-50,-218,-186,-188,-251,-260,-272
-261,107,98,-83,116,-177,-192,-278,-274,-287
-394,-682,13,-104,25,-170,-157,-226,-248,-299
-353,-1228,-46,-136,30,-46,-17,-40,-67,-153
-109,-396,-11,-212,17,-67,-61,-69,-85,-139
32,593,69,-194,-99,-164,-169,-161,-163,-157
-6,465,38,183,224,50,26,36,60,43
43,87,-119,368,816,455,375,347,357,308
148,-295,-227,-9,710,493,441,406,407,354
237,-430,-186,-463,182,365,383,359,346,331
123,-296,-135,-637,-42,355,379,336,295,253
5,-277,-143,-336,610,293,213,114,69,11
170,-192,-26,274,429,96,111,46,16,-1
472,-22,104,139,-144,32,199,210,194,217
463,127,3,-10,-263,-13,160,189,185,244
287,151,-180,-27,-295,-27,92,112,102,193
64,130,-193,-152,-192,42,120,132,104,176
-144,8,-73,-91,-157,-7,57,58,36,109
-103,-185,103,28,-346,-192,-130,-106,-126,-9
-31,-317,236,289,-341,-245,-191,-153,-171,-88
-197,-325,228,457,-190,-102,-56,-61,-127,-142
-328,-158,167,410,-171,14,55,19,-75,-159
-220,70,166,319,-230,-11,28,-16,-88,-169
45,231,125,195,-228,-61,-19,-37,-71,-96
139,217,60,81,-69,-58,-25,-27,-42,-40
62,115,93,-147,-67,-134,-120,-126,-121,-114
39,168,165,-162,-182,-206,-178,-186,-150,-136
8,560,213,-91,-243,-232,-227,-230,-174,-158
-29,726,236,-36,-194,-193,-243,-215,-167,-126
-27,394,177,28,-74,-87,-140,-105,-53,-29
-59,18,32,50,7,8,-25,0,39,24
-189,-296,15,91,84,108,68,90,84,1
-48,-432,37,136,149,150,124,116,103,11
99,-477,-33,-63,-71,-125,-165,-196,-177,-167
88,-691,-120,-317,-352,-399,-456,-476,-429,-351
517,284,-32,-401,-591,-519,-603,-631,-567,-408
1086,2060,-31,-517,-689,-561,-632,-647,-562,-302
1484,2337,-132,-644,-826,-536,-518,-490,-360,3
1352,710,-314,-458,-183,-217,-222,-165,-47,320
882,-368,-486,-370,482,-55,-66,-14,78,415
222,-215,-248,-387,67,-127,-45,23,100,337
-814,-387,-9,-84,62,133,254,332,320,274
-1003,-1039,157,657,447,477,533,556,471,193
-250,-852,354,923,543,515,495,476,407,150
-307,-504,306,513,356,394,401,380,330,145
-836,-213,182,174,107,159,203,175,130,-39
-1258,-137,86,35,-69,-77,-33,-89,-116,-303
-762,399,-37,-94,-193,-248,-238,-301,-302,-409
-623,518,70,12,-20,-64,-34,-67,-56,-178
-533,-20,110,140,223,204,240,225,226,71
-240,-704,68,195,373,389,411,421,391,263
32,-592,-1,147,377,396,423,467,427,318
72,-685,-209,50,342,374,434,456,397,271
32,-556,-372,-34,207,240,331,308,264,136
-52,-372,-250,-88,31,122,200,179,140,26
-43,-271,-87,-45,-109,14,67,57,14,-41
5,-117,-18,-10,-213,-86,-67,-57,-77,-63
-73,-340,-21,24,86,-104,-126,-115,-124,-102
-163,-212,7,1,247,-118,-173,-168,-181,-172
-43,601,56,-65,-35,-222,-234,-222,-229,-177
88,1086,28,-157,-196,-319,-320,-285,-284,-166
311,567,94,-29,-36,-108,-140,-101,-100,0
244,52,-7,-88,-86,-155,-194,-163,-160,-104
9,147,-109,-172,-222,-254,-285,-268,-278,-270
-112,306,-84,-132,-240,-180,-190,-195,-194,-238
-47,-126,-21,-6,-1,47,29,23,32,-41
259,-390,-192,38,261,188,164,174,196,153
350,-163,-212,-97,283,105,82,92,111,75
213,159,-107,-223,122,99,127,156,157,89
61,188,5,-284,165,165,211,233,220,142
116,-19,14,-205,419,237,217,226,215,167
-45,-189,-8,231,468,99,7,8,15,19
-64,81,47,477,191,-82,-193,-210,-189,-136
166,375,145,177,-112,-93,-155,-181,-190,-108
115,365,213,-19,-108,-215,-274,-308,-321,-228
-90,262,191,-20,-311,-413,-433,-450,-445,-360
-233,31,202,118,-500,-350,-348,-386,-386,-332
-335,463,221,8,-56,-122,-236,-332,-357,-327
-104,423,116,-110,4,-100,-204,-293,-291,-220
257,-508,-21,-69,-326,-64,-17,-40,-10,55
620,-801,-154,50,106,376,441,463,496,512
555,-698,-103,65,480,358,360,381,429,479
174,-420,68,-82,69,-160,-85,-48,-4,91
-69,500,175,-107,-348,-417,-267,-219,-187,-81
-464,1304,236,191,-298,-386,-265,-262,-264,-235
-644,1021,162,448,-323,-313,-240,-256,-299,-368
-313,556,93,204,-213,-112,-30,-34,-77,-137
123,-248,-1,-260,5,173,285,267,256,230
126,-951,45,-320,150,346,424,409,379,311
124,-786,129,-275,184,291,306,310,262,217
116,-417,-65,-109,52,45,38,22,-17,8
-91,-221,-390,97,-229,-277,-311,-338,-355,-307
-58,376,-345,67,-77,-56,-95,-144,-153,-120
-337,84,-241,-75,256,271,220,118,74,-14
-554,-668,-364,-175,415,308,263,141,60,-68
-203,-864,-277,265,437,411,386,306,244,159
76,-1000,-115,762,933,625,580,528,483,445
118,-561,186,840,1096,465,427,399,388,370
303,393,502,289,-133,37,161,226,218,254
358,995,553,-216,-799,-163,50,187,179,233
210,1286,447,-241,-676,-278,-192,-96,-91,11
72,1146,224,25,-586,-377,-393,-359,-335,-185
19,440,-68,14,-577,-354,-366,-345,-306,-152
-43,-200,-125,-81,-166,-233,-239,-213,-159,-45
-186,-297,99,-86,-145,-253,-238,-200,-145,-71
-176,-675,270,-37,-218,-233,-172,-124,-61,11
76,-259,161,-50,-172,-176,-106,-66,36,139
332,-202,-228,-72,-96,-41,36,76,173,281
370,-262,-373,13,101,182,255,293,320,326
231,-297,-361,7,129,211,228,266,209,145
195,-418,-285,-189,-154,-17,-74,-66,-141,-177
390,180,-195,-374,-549,-303,-375,-413,-490,-460
561,1325,36,-397,-625,-383,-467,-538,-587,-498
670,1309,299,-173,-125,-186,-334,-417,-422,-273
952,-579,301,137,706,11,-132,-183,-136,60
573,-973,326,321,290,-18,44,70,133,298
-699,-620,345,291,-151,-33,158,227,251,234
-1441,-471,162,79,-173,-72,64,107,107,-6
-1015,650,-146,-61,99,-55,-34,-10,-8,-95
-555,1630,-180,-64,264,-28,-91,-62,-67,-160
-387,1502,74,-160,139,-50,-100,-109,-138,-225
-187,613,-2,-386,-190,-145,-157,-194,-223,-258
-92,-174,-132,-376,-141,-65,-62,-88,-114,-164
-393,-187,37,-132,15,138,180,165,127,-48
-374,-635,-187,168,160,155,163,188,163,-2
-129,-959,-434,400,349,136,149,173,157,57
4,-679,-289,261,153,185,300,325,315,190
197,-690,-201,76,150,352,487,520,497,362
111,-782,-96,-8,194,286,346,365,322,185
61,-652,17,-48,163,107,142,134,94,5
66,-724,-112,-135,51,75,141,149,125,62
-56,-494,-155,-150,-84,21,31,71,51,22
-111,-476,-59,63,165,161,107,142,102,84
-214,-443,-24,34,346,228,145,164,126,69
-154,532,187,-336,-435,-134,-62,-35,-37,-47
29,1563,387,-496,-603,-347,-235,-236,-212,-182
184,1797,530,-245,-203,-335,-345,-356,-316,-278
112,763,320,166,124,-243,-319,-337,-282,-231
185,-984,-203,280,267,142,117,130,157,200
440,-1360,-472,261,183,287,337,355,358,391
145,-496,-309,54,253,146,135,133,117,128
-335,565,-184,-405,400,-37,-125,-134,-141,-146
-161,1069,-193,-767,299,-195,-301,-317,-280,-243
105,601,-185,-644,-16,-237,-328,-341,-306,-266
-56,187,-21,404,113,-154,-247,-285,-256,-259
-149,500,483,755,62,-55,-157,-208,-214,-268
-242,268,900,411,-486,-213,-278,-345,-409,-481
-453,-476,518,-20,-785,-413,-533,-646,-698,-759
-428,-202,-156,-424,-181,-295,-478,-618,-603,-652
145,-219,-551,-149,312,260,210,196,281,262
621,-138,-592,102,244,564,671,777,874,890
301,-207,-8,62,-40,309,496,611,664,629
391,-323,45,264,191,167,259,332,424,462
305,-791,-13,301,293,177,174,233,295,323
255,-941,-41,187,416,204,178,244,272,290
96,-384,47,4,225,87,27,81,75,124
-330,-116,145,-318,120,56,-44,-42,-81,-87
-831,82,297,-319,-24,116,38,25,-44,-185
-670,118,232,-6,1,171,138,142,59,-128
-110,70,114,358,149,2,-34,-22,-75,-135
256,-105,-112,403,242,83,47,91,76,76
353,-162,-310,337,-207,60,112,199,184,219
123,-366,-39,184,-400,-100,-34,37,29,58
-119,30,75,81,-293,-126,-107,-60,-95,-76
-104,217,-7,-44,-334,-238,-223,-192,-206,-147
-60,102,-80,-125,-333,-239,-227,-185,-178,-138
-28,820,-19,-67,-199,-101,-70,-34,-41,-48
17,100,145,51,-59,-18,-11,4,-21,-23
2,-645,200,44,-100,-146,-229,-245,-278,-214
163,485,171,28,-116,-185,-313,-340,-362,-245
281,1580,93,4,-96,-119,-227,-246,-253,-161
247,371,-162,-12,-78,39,12,24,9,31
108,-966,-298,138,124,236,259,299,270,221
-124,-631,-105,177,150,136,159,167,145,85
-133,325,-12,-36,2,-104,-124,-137,-157,-122
-74,1100,129,-144,45,-233,-327,-360,-377,-280
-227,1432,84,-187,-12,-446,-601,-659,-666,-537
-374,1883,50,173,25,-527,-752,-838,-834,-683
-326,1463,103,258,89,-334,-540,-615,-629,-497
-9,-763,22,269,67,62,6,12,17,60
146,-1777,-89,278,-281,77,120,161,198,163
7,-353,200,-27,-409,-62,-75,-69,-48,-62
-170,3,558,-317,-305,-120,-236,-320,-327,-320
-118,426,352,-606,-126,-13,-153,-314,-328,-302
247,1315,47,-458,684,485,407,283,274,260
342,-1120,-603,-9,968,731,768,753,748,673
268,-2015,-927,289,196,461,637,745,755,642
224,-678,-282,460,-220,275,493,619,624,521
429,-345,153,243,344,389,508,565,580,529
448,-256,190,-239,118,208,332,363,382,380
360,209,17,-367,-270,-116,-3,48,86,176
215,538,-109,-15,-286,-497,-483,-457,-382,-179
124,1429,-53,6,-420,-736,-772,-741,-640,-362
397,2314,88,-84,-151,-534,-637,-611,-506,-208
653,27,92,-418,252,-210,-366,-376,-291,-28
522,-1858,-267,-522,587,308,134,75,100,170
-647,-1373,-816,-152,1049,713,481,368,305,104
-841,-437,-964,684,1242,616,403,310,241,31
-342,244,-260,888,660,258,297,314,272,130
-252,-248,383,439,-669,28,423,555,507,320
-750,-657,684,381,-852,-23,365,481,415,155
-810,-553,336,316,-269,104,301,402,340,92
-296,-586,-210,181,60,232,372,451,403,225
-45,-867,-305,91,63,204,334,406,352,211
-141,-878,-248,83,106,246,349,408,317,172
-215,156,-93,40,64,146,195,238,135,37
-98,1374,56,-78,-141,-118,-93,-97,-160,-151
114,1623,126,-228,-378,-414,-421,-447,-478,-377
91,1303,328,-234,-467,-556,-606,-642,-660,-521
89,1041,568,-14,-259,-365,-423,-451,-446,-314
-20,425,586,140,-40,-157,-228,-236,-218,-130
-324,-480,206,190,144,60,-14,-17,-15,-28
-267,-973,-159,174,272,347,330,332,321,257
100,-568,-302,-113,111,283,358,339,324,323
821,-277,-496,-241,277,458,580,597,593,642
785,-1319,-428,-176,397,480,575,592,556,563
108,-1724,24,-34,124,-13,-39,-80,-126,-99
-245,-483,235,-68,-50,-198,-294,-338,-367,-329
12,1155,365,-274,-73,-120,-207,-221,-236,-168
361,761,302,-261,-65,-96,-156,-129,-127,-1
369,14,-3,148,0,-69,-117,-55,-43,101
223,104,-49,278,-66,-103,-184,-130,-111,59
92,899,147,161,-90,-70,-170,-146,-108,36
-304,1194,422,115,-27,-4,-122,-126,-107,-90
-754,390,321,142,112,75,-44,-43,-45,-138
-816,-1412,-201,247,336,211,89,96,105,-27
-411,-1376,-536,257,655,376,214,201,170,-10
19,-928,-576,-28,571,483,370,367,273,73
217,-916,-565,-393,66,416,383,386,275,99
-63,-205,-155,-222,319,173,103,72,-35,-201
-275,1091,294,242,256,-156,-208,-240,-316,-426
97,1042,133,196,-601,-191,-112,-77,-126,-138
130,-124,-307,0,-748,-44,102,102,57,47
126,-522,-177,130,-272,168,288,258,258,238
188,-527,17,148,395,251,288,271,308,326
276,-319,33,130,433,189,149,152,172,219
261,62,70,74,234,11,-57,-67,-49,14
178,-74,142,21,33,-134,-228,-247,-245,-148
301,188,135,-149,-252,-251,-355,-372,-359,-202
664,1084,59,-269,-432,-248,-299,-289,-245,-86
348,1164,112,-238,-473,-223,-299,-312,-296,-195
-429,1291,143,-196,-63,-240,-406,-451,-426,-323
-583,434,-62,-5,-1,-257,-338,-344,-287,-142
-392,-1007,-215,204,-137,29,103,163,200,247
-90,-1090,-336,72,44,235,328,419,442,413
-86,-630,-188,50,150,287,350,420,419,344
-18,1041,371,107,62,106,91,123,104,59
9,2532,797,175,-86,-212,-325,-367,-395,-359
-149,2206,917,209,-178,-406,-549,-633,-653,-582
-289,267,560,46,-304,-511,-615,-690,-683,-594
-400,-1107,376,-62,-265,-390,-443,-471,-460,-421
-496,-1227,325,11,-105,-104,-119,-150,-168,-255
-160,-1130,-270,23,66,110,138,121,85,13
403,-320,-1151,-118,192,289,363,386,398,368
566,-637,-1241,-58,422,621,707,759,770,683
338,-891,-205,118,437,575,603,636,628,517
147,-477,439,43,248,313,245,257,238,210
132,284,199,-353,14,208,124,148,131,176
66,366,-55,-618,-87,139,71,76,61,110
4,-448,16,-116,234,75,-38,-37,-24,-2
163,-180,229,674,133,-109,-169,-146,-113,-57
147,316,242,405,-105,-151,-185,-153,-125,-78
-112,-66,53,213,102,139,114,131,109,56
-385,-618,34,357,280,229,162,139,91,-17
-555,-49,50,151,-69,-239,-368,-445,-487,-530
-515,1127,-84,-451,-543,-612,-724,-785,-814,-785
-66,2334,-301,-822,-599,-654,-715,-731,-692,-577
350,1582,-308,-236,-283,-314,-304,-292,-237,-126
173,-88,-154,258,417,347,319,301,301,247
114,-1325,169,399,673,729,788,791,807,653
305,-1451,86,140,-58,379,588,673,752,688
266,-575,-80,-39,-158,145,280,363,439,455
115,-192,-58,15,41,196,236,252,315,333
-26,-938,-67,21,278,370,356,313,333,334
-323,-1185,-201,-80,615,510,396,288,274,181
-170,-566,-189,-224,571,410,192,89,45,-71
126,49,-226,-384,227,134,-54,-128,-164,-228
178,574,-56,-146,481,-19,-133,-219,-228,-240
143,604,212,17,293,-146,-181,-225,-210,-182
321,319,375,-143,-22,-31,17,39,58,115
338,761,349,-180,-210,-48,-18,15,38,105
-49,906,306,-271,-488,-515,-601,-600,-590,-476
-365,1010,415,227,-1091,-1019,-1121,-1137,-1113,-872
-99,1592,440,331,-1466,-817,-837,-860,-783,-479
533,673,-55,12,-1085,-340,-278,-244,-131,138
918,-1126,-870,-199,-49,166,251,356,444,541
1004,-1796,-700,123,776,644,741,862,888,790
151,-823,82,410,466,633,755,849,832,630
-543,-397,58,270,63,464,551,569,532,334
-423,-765,-144,17,-2,364,381,366,332,207
-246,-511,-132,-130,586,417,287,259,238,177
-155,-293,-119,-143,651,291,167,156,141,95
-138,-156,-73,-85,244,124,128,158,143,50
-164,157,72,47,-107,-30,23,51,37,-24
-92,447,260,135,-349,-195,-163,-135,-127,-89
188,959,389,110,-482,-285,-270,-219,-183,-69
322,1263,389,9,-455,-289,-305,-250,-202,-57
287,598,-19,-84,-294,-182,-192,-130,-71,71
311,-655,-533,-185,-177,-25,4,91,170,308
316,-1123,-241,-92,-134,-60,-36,27,108,257
-135,109,400,66,-149,-210,-242,-227,-200,-113
-390,1414,383,45,-149,-213,-259,-261,-236,-174
-233,1216,11,-160,-277,-365,-401,-417,-359,-222
-402,636,-12,-383,-467,-718,-814,-850,-777,-555
-646,5,132,-415,-569,-777,-872,-924,-837,-640
-695,821,299,-223,-472,-326,-375,-431,-380,-312
-235,180,53,-48,189,222,205,125,121,76
70,-1183,-241,173,459,271,272,242,197,26
16,-726,-173,203,24,205,349,390,338,51
216,-404,-228,202,243,484,661,690,624,292
350,-1413,-399,276,481,680,813,801,682,384
268,-1376,-255,141,270,389,462,429,320,134
29,-369,291,45,50,53,81,32,-25,-84
-378,377,691,-43,-144,-189,-182,-257,-292,-335
-528,815,353,-159,-262,-239,-185,-275,-298,-370
-232,-128,-437,-120,-69,-4,86,55,38,-83
223,-1138,-768,33,223,325,454,466,475,374
348,-1109,-321,141,310,405,500,506,496,383
601,-363,-69,53,143,189,226,230,217,167
743,101,-19,-17,0,13,34,10,22,53
137,168,29,-4,-12,-7,13,-37,-31,-18
-330,95,-16,8,29,47,36,8,-3,-30
-427,-11,-179,-45,19,31,9,10,-2,-57
-359,89,-159,-85,21,-10,-47,-66,-51,-104
-279,572,27,-113,-168,-162,-239,-282,-231,-215
-178,708,168,-87,-100,-114,-204,-266,-246,-262
-91,1059,349,33,567,-43,-161,-276,-298,-336
-103,1258,514,34,-128,-373,-376,-450,-422,-373
103,1146,505,-65,-760,-525,-455,-463,-401,-291
252,91,-28,-235,-566,-470,-437,-441,-363,-245
344,308,-256,-150,-175,-170,-120,-112,-32,38
309,-529,-29,11,30,7,54,80,163,179
3,-1523,-277,-105,9,4,10,24,68,65
-112,-731,-455,-353,173,276,289,286,284,175
1,-570,-330,-371,621,678,705,677,640,450
-43,-1060,-252,-221,724,577,616,566,524,375
25,-586,-111,235,343,342,406,345,342,306
147,19,-82,422,-98,112,173,144,207,305
136,61,-144,136,-309,-37,11,-11,79,208
102,-54,-5,103,-112,37,97,90,152,204
18,-43,124,122,109,17,42,22,46,72
20,106,155,-51,-58,-104,-85,-96,-71,-31
-24,268,141,-142,-116,-164,-170,-161,-140,-103
-261,31,301,121,-151,-360,-424,-459,-452,-380
-119,350,178,319,-147,-356,-435,-470,-452,-365
238,660,106,246,-139,-174,-224,-244,-199,-175
200,231,-44,161,-357,-145,-150,-158,-113,-139
152,-32,-51,113,-227,90,117,140,157,121
181,-518,4,138,441,333,328,360,355,336
-51,-446,56,205,419,158,174,207,200,201
-346,59,148,-182,-85,-40,38,62,56,48
-151,258,154,-538,-71,2,34,48,33,40
64,619,268,-403,-21,-22,-46,-42,-51,-27
-56,1424,371,-243,-192,-293,-349,-376,-377,-324
-101,1783,238,-91,-430,-604,-702,-755,-748,-629
92,1367,-7,-265,-487,-578,-662,-720,-689,-524
170,359,-139,-499,-240,-235,-290,-337,-278,-147
41,-991,-60,-367,170,246,214,178,250,266
-293,-1479,-99,-30,382,425,358,308,343,248
-130,-724,-307,-110,524,524,428,374,404,306
268,130,-497,-662,558,341,274,247,309,319
86,246,-249,-351,-235,0,96,114,168,189
-272,-177,-42,487,-353,-182,-61,-58,-10,-52
-300,-918,75,677,245,115,153,122,137,19
-103,-601,238,422,215,238,325,311,313,198
254,54,166,180,15,54,164,170,199,169
-3,-349,-235,225,-31,-92,-27,-42,-22,-54
-188,-620,-322,187,-113,-136,-74,-99,-74,-119
15,-177,-140,160,-210,-68,21,54,83,84
313,257,134,349,-98,-5,64,121,161,246
249,87,218,156,-43,1,34,108,152,261
155,-28,181,-143,-143,-93,-77,-15,38,193
188,480,191,-161,-208,-297,-320,-317,-286,-58
130,1121,292,-188,-438,-663,-734,-791,-784,-517
74,1621,532,-162,-684,-1035,-1128,-1229,-1208,-914
25,2615,695,-96,-645,-987,-1066,-1150,-1091,-835
187,1967,27,-220,-323,-382,-331,-299,-193,-44
213,-1372,-605,-182,187,410,549,673,737,696
-135,-1802,-493,191,673,846,946,1029,1002,772
-179,-795,-288,312,721,784,837,880,829,587
106,-286,-186,93,522,366,366,354,277,96
230,488,-162,-144,362,-70,-158,-212,-270,-361
39,1044,-445,-519,156,-317,-397,-456,-479,-484
81,105,-610,-695,201,-22,-56,-75,-96,-99
238,-1305,-296,-132,661,446,459,495,479,391
-140,-1704,167,497,71,384,525,608,556,331
-354,-812,399,500,-386,161,324,390,292,71
-110,691,272,216,-7,152,171,186,102,-29
-54,271,140,146,257,244,194,182,115,22
-206,-1000,89,184,183,230,180,170,81,-24
-153,-552,79,103,-102,-31,-39,-46,-107,-130
-14,247,98,77,-322,-179,-167,-182,-217,-163
-307,-374,-156,11,-319,-91,-89,-100,-126,-145
-429,-281,-329,-271,29,49,29,15,-20,-103
-235,180,-205,-315,365,21,-3,-44,-62,-121
173,-122,236,633,-123,10,100,115,145,154
307,16,226,411,-35,5,61,68,89,102
290,202,158,89,-119,-85,-30,-21,-13,-13
281,248,95,23,-133,-143,-81,-104,-78,-28
115,165,43,-32,-156,-195,-150,-193,-171,-127
-116,149,37,-55,-176,-221,-214,-237,-227,-209
-636,-87,114,53,-56,-99,-116,-102,-114,-179
-629,-386,153,89,-28,-59,-85,-72,-97,-172
-220,-226,93,-29,-132,-186,-210,-223,-240,-266
26,318,2,-29,-37,-67,-41,-53,-55,-101
147,313,-151,-9,55,79,102,139,151,109
230,-222,-189,-5,48,64,73,123,122,96
239,540,232,-62,-105,-172,-227,-223,-235,-180
233,777,428,-181,-298,-402,-531,-550,-576,-436
-103,398,101,-255,-577,-405,-522,-561,-607,-521
-147,173,-521,-235,-558,30,21,14,-11,-25
159,-707,-605,27,351,557,586,630,636,558
10,-714,23,645,1183,462,397,412,407,331
89,2,364,578,723,140,96,130,132,132
418,1183,476,-273,118,54,85,128,145,189
287,1099,443,-365,162,207,205,206,184,178
102,-205,169,-206,128,235,186,181,143,121
88,-688,62,-136,-58,-37,-133,-166,-189,-124
317,-523,-218,-9,-150,-217,-262,-304,-320,-164
530,-585,-616,112,-3,12,46,48,47,221
336,-464,-530,174,23,47,124,164,170,292
-163,-728,-132,229,125,63,150,172,159,127
-442,-543,249,-86,68,-78,-57,-57,-79,-113
-212,501,285,-833,-237,-69,-42,-39,-49,-18
23,1297,50,-1154,15,76,76,62,63,117
33,332,-336,-594,18,9,21,70,100,153
-40,-707,-259,84,-119,-36,24,118,155,181
-192,-926,40,238,4,44,55,109,108,64
-145,579,102,17,-70,-28,-32,4,-29,-82
-205,728,-130,169,-226,-285,-287,-247,-267,-306
17,-144,-263,326,-129,-107,-79,-25,-44,-67
189,-577,-82,300,-99,79,154,229,215,258
212,-401,-12,111,-158,8,112,152,156,217
108,-271,-62,53,-160,-107,-22,-32,-34,18
-26,-316,-117,161,20,-47,6,-21,-54,-62
-129,-392,-191,124,135,53,97,62,43,-12
-91,33,-240,-40,81,161,189,178,168,131
-76,94,-35,-170,65,139,77,62,14,-11
-140,-14,199,108,20,-97,-202,-253,-310,-308
-205,13,234,38,-401,-333,-373,-391,-423,-390
-224,-687,43,-351,-398,-389,-435,-429,-425,-363
24,-108,-38,-404,-219,-283,-271,-236,-200,-136
416,1573,223,70,-112,-35,49,94,134,157
744,551,-39,261,59,201,276,335,368,397
732,-686,-189,266,254,385,408,461,464,449
-54,-458,-97,93,182,303,323,342,319,235
-408,188,-48,20,47,155,202,195,143,50
-123,425,-40,-65,-120,-49,-6,-12,-31,-54
-89,431,97,-145,-267,-252,-249,-256,-245,-255
-6,1519,351,-126,-294,-355,-389,-415,-387,-365
155,1570,451,-31,-238,-341,-398,-447,-398,-319
93,365,361,83,-112,-219,-283,-343,-277,-161
-51,222,471,178,27,-69,-114,-159,-86,12
97,102,228,158,161,165,153,141,222,274
334,-839,-277,-24,75,144,144,158,231,321
-310,-1410,-472,-118,25,129,173,184,215,216
-602,-1214,-222,27,190,305,343,345,329,231
-207,-142,100,108,186,215,213,181,147,104
222,139,96,40,51,49,32,-21,-36,30
223,-145,-14,-21,75,90,97,63,61,147
78,-156,-205,-263,63,39,48,18,39,123
24,-199,-347,-501,-31,-80,-95,-143,-114,-4
-90,-113,-272,-74,-132,-44,-122,-188,-193,-84
-121,250,78,651,-179,70,-48,-115,-137,-77
41,1021,236,-64,-159,62,-6,-68,-45,-11
43,806,-92,-575,374,-67,-117,-147,-87,-66
-176,250,63,-36,156,-317,-279,-257,-217,-196
-317,402,329,486,-339,-372,-250,-222,-225,-218
-250,-166,151,192,-193,-119,-38,-29,-48,-90
-45,-850,-133,-117,-228,47,67,83,64,-28
67,-339,-133,-24,-216,72,66,68,54,-25
303,137,-229,-32,227,87,75,88,73,60
280,-186,-107,6,320,65,56,79,48,98
157,-579,26,40,92,32,76,131,136,233
185,-560,48,57,109,91,128,190,218,328
254,-301,127,124,212,200,207,247,255,304
122,-6,193,103,168,123,128,142,134,121
364,64,21,-34,-12,-67,-52,-36,-40,36
558,46,-281,-205,-154,-201,-166,-137,-109,70
551,67,-265,-248,-171,-179,-146,-135,-123,22
558,-24,-151,-280,-196,-113,-90,-137,-173,-118
602,239,-1,-219,-30,109,134,54,-3,-59
-234,300,109,-39,388,282,258,168,102,-45
-1764,-412,53,156,335,3,-45,-128,-187,-442
-1793,-412,19,86,-250,-295,-280,-316,-381,-599
-1031,81,81,-131,-337,-344,-307,-309,-363,-446
-338,621,114,18,123,1,61,66,56,-27
-166,45,117,222,552,372,399,368,356,175
-295,-711,-22,143,502,398,391,361,320,137
-259,-433,-6,161,235,267,255,239,185,86
40,562,79,256,47,144,163,167,117,83
285,768,61,113,-87,30,49,73,32,33
295,141,-99,-149,-3,46,63,91,90,79
86,-409,-209,-416,141,102,79,95,93,87
-36,-818,-90,-460,153,161,121,147,137,154
-119,-716,14,-132,112,106,47,41,29,42
-146,162,193,459,176,-113,-209,-265,-298,-324
46,1227,356,466,-331,-407,-433,-463,-502,-457
209,833,175,150,-357,-340,-299,-279,-294,-197
134,-605,-191,-94,-143,-86,-61,-23,-13,45
45,-527,-528,-319,-37,46,80,103,127,135
139,-108,-442,-233,128,152,197,242,247,238
215,-538,-71,151,-21,120,180,223,249,245
72,-473,82,282,-163,-7,27,61,87,74
-43,-392,33,178,-196,-139,-130,-108,-100,-95
-22,-277,67,69,-193,-205,-212,-214,-205,-194
178,306,44,12,-161,-188,-201,-190,-178,-128
266,665,-149,4,-65,-63,-51,-15,-7,43
364,457,-191,103,17,34,48,77,72,114
64,354,414,127,91,-63,-78,-132,-163,-145
-122,297,640,-207,27,-182,-221,-318,-329,-322
-17,663,406,-374,-43,-156,-210,-281,-279,-251
43,151,236,185,-57,-137,-144,-164,-140,-129
144,-186,158,533,-30,-7,42,64,91,102
171,-90,44,37,-86,103,157,178,186,185
-13,-169,-141,-60,66,125,129,142,141,86
-25,-472,-181,-214,210,124,89,98,94,40
71,-269,-45,-472,26,-26,-54,-45,-31,-21
176,227,-191,-409,-129,-38,-7,24,42,71
99,29,-114,308,8,-4,16,48,42,29
80,-582,-89,456,325,147,101,98,64,-3
80,-536,-180,-49,388,225,145,124,83,0
-241,8,-71,-532,-173,-36,-78,-79,-98,-134
-421,566,84,-340,-317,-196,-224,-187,-176,-185
-296,695,123,109,73,-171,-220,-194,-170,-189
-28,488,138,546,-378,-118,-36,-4,22,11
-29,-27,-39,293,83,-54,-20,20,32,24
-28,-284,-192,83,359,104,122,135,130,99
150,-342,-60,9,98,310,408,404,409,357
145,-567,-74,-40,-18,357,402,400,395,344
115,-261,-79,56,-23,115,86,83,90,84
189,203,37,96,-142,-150,-136,-127,-103,-62
228,452,107,-14,-137,-311,-222,-187,-144,-61
347,594,221,200,-216,-327,-247,-182,-119,-33
547,802,247,152,-299,-284,-265,-199,-138,-25
451,1600,56,-276,-368,-261,-292,-262,-202,-46
307,1218,-89,-280,-239,-170,-267,-260,-226,-82
-33,-729,-103,-107,109,63,-23,-23,-35,-8
-817,-1155,-54,-53,309,132,73,79,24,-121
-1234,-871,94,-14,-77,-75,-36,-28,-81,-289
-935,-601,271,36,-287,-206,-119,-143,-194,-327
-477,-234,234,157,-38,-40,37,14,-20,-59
-24,-403,69,190,133,295,394,433,438,454
367,-806,-404,-191,29,184,251,318,365,451
233,22,-752,-300,36,41,60,123,158,254
118,36,-626,-39,119,125,160,234,246,336
300,-470,-294,-56,-93,100,187,254,286,414
367,-558,68,-97,3,154,263,310,339,446
363,-364,176,-155,223,161,209,216,205,277
244,-372,93,-173,504,293,247,219,149,70
65,-191,103,10,529,337,272,229,122,-94
-122,36,103,302,239,205,160,124,-2,-235
-160,198,145,436,-51,12,5,-19,-102,-277
-63,243,136,284,-217,-42,-1,-1,-56,-158
-172,114,31,100,-107,27,39,41,-3,-110
-283,93,106,79,-33,23,-12,-33,-81,-159
-192,194,204,95,-17,-26,-80,-90,-147,-219
-190,159,167,69,-13,-32,-49,-43,-98,-222
-176,121,92,17,-23,-13,-38,-20,-74,-209
-143,76,84,-61,-114,-104,-147,-128,-169,-240
-124,215,164,-88,-191,-231,-277,-276,-280,-280
-19,852,369,-4,-168,-261,-323,-343,-312,-254
-126,244,324,-138,-356,-505,-589,-631,-575,-453
-181,493,92,-88,-206,-302,-361,-406,-347,-309
133,580,-226,4,140,113,121,127,193,197
315,-985,-298,131,452,433,464,498,542,517
275,-476,-96,77,274,350,368,384,410,407
197,426,-95,-145,51,157,154,156,201,204
138,13,-190,-212,160,130,149,143,211,187
64,-291,-97,-192,-129,67,173,179,233,210
-37,-393,-301,-247,-66,124,206,211,262,225
-277,-369,-211,-82,67,59,63,35,77,53
-289,-267,-19,75,-4,-35,-38,-90,-43,-25
-172,-306,44,8,-124,-77,-58,-101,-50,-5
-161,-302,47,52,-229,-258,-271,-311,-262,-197
31,661,222,107,-336,-427,-464,-520,-478,-394
386,1387,444,150,-226,-316,-338,-388,-339,-258
408,559,266,128,-57,-80,-53,-73,-18,39
263,-266,-138,141,129,171,240,239,294,284
242,-204,-246,66,151,191,261,239,290,294
275,369,-159,-71,66,31,40,31,63,134
266,410,-163,-44,-17,-9,-39,-23,25,114
220,-14,-199,-30,-8,88,83,96,142,186
158,-581,-169,-100,68,97,112,127,170,188
112,-589,-74,-87,24,2,-5,22,48,113
1,-152,82,15,3,36,-14,-11,-26,54
-131,377,70,-247,-125,-69,-165,-205,-245,-163
-361,993,-22,-218,-278,-323,-428,-512,-554,-503
-450,1691,-19,-179,-370,-447,-551,-648,-689,-665
-380,699,-12,101,147,-138,-192,-289,-328,-373
-295,-2011,-89,217,359,487,601,591,554,382
-291,-2162,31,410,433,541,671,676,627,421
189,-341,182,294,293,157,213,199,161,74
589,695,228,51,-45,-131,-89,-97,-91,-72
155,375,126,24,-56,-123,-109,-96,-97,-76
43,45,-40,-8,-23,-86,-62,-35,-22,20
263,-305,-245,-71,-28,-64,-23,5,45,114
208,-677,-290,-37,125,135,186,205,239,235
162,-465,34,-31,152,163,183,188,221,202
-242,259,213,-132,74,51,14,3,18,18
-811,653,344,-138,125,-4,-91,-125,-140,-172
-719,-91,324,-295,151,-77,-171,-239,-247,-318
-384,-402,9,-559,70,-141,-233,-326,-324,-369
-167,674,-275,23,124,27,3,-70,-47,-86
-43,-303,-258,933,201,294,335,280,307,222
28,-837,-104,350,59,410,517,482,499,343
-59,-80,54,-122,184,180,250,227,249,85
-77,236,21,-23,320,-121,-122,-153,-112,-186
240,229,55,219,-270,-275,-197,-215,-152,-132
524,271,44,-20,-367,-180,-68,-75,-10,47
372,310,82,-321,-189,-63,13,-7,25,64
173,571,299,-278,-129,-111,-76,-101,-82,-49
14,929,352,9,-191,-352,-365,-386,-362,-322
-174,668,-6,113,-249,-398,-421,-454,-425,-369
-286,-460,-365,100,-48,-43,-56,-102,-69,-42
-217,-969,-366,123,383,276,245,208,236,242
377,-460,-245,22,318,213,231,246,311,369
755,-92,-300,-113,17,51,130,167,225,312
164,-100,-300,-228,54,102,162,174,192,210
-324,-452,-109,-79,5,176,177,142,140,90
-172,-542,176,156,-357,-80,-100,-150,-159,-187
-435,256,237,118,-212,-250,-403,-462,-500,-518
-819,1248,289,-20,-60,-365,-544,-568,-617,-632
-556,614,225,88,-432,-288,-234,-169,-192,-220
40,-172,96,233,-90,136,274,355,353,341
238,-528,-47,257,150,283,341,414,406,387
108,-183,-217,59,0,65,67,120,78,56
208,-18,-272,-84,-110,-57,-54,-3,-16,6
259,-149,-208,-118,-81,-16,12,76,87,122
107,-347,-263,-44,39,133,164,223,206,159
79,-407,-113,77,132,233,246,305,260,151
134,-75,95,72,71,109,106,136,95,52
161,251,54,13,8,45,12,49,11,23
112,212,-115,-74,-12,69,62,115,96,77
-139,-50,-37,-9,14,43,27,53,29,-32
-201,-95,25,45,54,13,-3,35,13,-36
-57,-70,-21,-36,1,9,5,65,56,44
84,421,116,-82,-161,-119,-168,-123,-140,-106
193,1378,431,-92,-331,-454,-548,-522,-529,-377
172,2238,521,-188,-508,-717,-835,-824,-794,-554
19,593,126,-215,-370,-525,-602,-584,-533,-320
-47,-1929,-257,55,206,202,206,245,277,314
158,-1429,-233,174,466,560,576,656,654,617
-38,-497,-116,141,375,470,487,550,536,461
-81,-189,-6,64,165,214,231,251,238,200
-7,33,147,-67,115,36,6,2,1,9
-350,-126,171,-309,208,80,-11,-50,-68,-122
-565,-342,-4,-446,98,105,5,-70,-95,-194
-276,23,-171,25,-278,44,-21,-116,-114,-167
-41,611,-71,273,-137,-13,-84,-194,-163,-167
-110,1085,277,-5,422,-178,-246,-345,-321,-334
12,1162,283,-190,-42,-361,-300,-342,-298,-275
139,594,160,-200,-243,-216,-141,-150,-114,-89
47,-213,88,-118,-210,-199,-195,-196,-141,-102
-163,-999,-90,259,-129,-187,-194,-231,-179,-153
-24,-438,-99,471,167,98,113,74,113,139
128,-219,17,263,292,248,295,292,319,363
135,-409,14,16,186,224,289,322,327,365
260,-234,60,126,-68,91,120,160,180,269
477,-108,44,401,57,37,11,35,72,234
617,139,-3,-170,140,51,49,64,87,208
598,403,-137,-631,105,2,47,40,36,95
193,349,-166,-295,-24,-174,-148,-188,-205,-208
-336,168,-205,266,-131,-256,-239,-289,-317,-393
-237,82,-171,197,-187,-49,13,-1,-22,-130
-117,-490,-140,12,-40,225,326,342,290,151
-194,-1101,-81,10,200,382,470,465,402,245
-147,-720,139,84,203,226,263,242,193,113
-179,-223,193,174,52,-17,-21,-28,-69,-105
-87,-71,9,-21,22,42,32,32,-7,-57
-74,-6,-109,-344,-13,58,79,72,38,11
-158,175,128,-214,-93,-129,-106,-162,-186,-172
-155,393,210,95,-113,-251,-255,-362,-384,-371
190,868,164,36,-104,-140,-131,-235,-243,-227
118,383,171,-79,-60,17,74,16,25,31
-334,-374,104,5,27,18,51,-4,-25,-32
-353,-212,-140,-14,39,-26,-23,-90,-141,-140
-8,17,-307,-170,47,60,99,86,47,58
239,-159,-192,-53,63,129,218,272,259,276
72,-425,59,298,95,95,157,183,173,172
-121,-414,189,170,92,33,44,39,30,19
-213,-313,127,18,41,-80,-143,-127,-125,-100
-98,412,-117,-111,23,-46,-134,-103,-81,-33
161,754,-388,-86,300,217,121,181,200,234
249,-429,-451,-57,393,281,225,327,325,348
401,-411,-226,-18,-132,81,117,232,251,314
449,231,85,46,-321,-131,-98,9,78,179
287,416,181,23,-295,-173,-164,-84,-20,65
135,738,181,-87,-145,-163,-220,-205,-147,-128
-15,1343,215,-299,-421,-328,-442,-487,-475,-461
-91,1820,100,-474,-768,-401,-531,-603,-628,-613
-246,1298,-14,-294,89,-206,-460,-539,-568,-545
-436,-433,-263,198,1196,97,-172,-199,-211,-212
-148,-1419,-313,421,306,239,272,351,365,337
257,-1209,-133,182,-90,270,408,481,505,489
458,-497,45,66,92,259,306,321,337,387
584,-11,115,137,-25,-94,-69,-65,-22,132
699,45,72,76,-447,-334,-239,-211,-143,27
499,-616,-44,-71,-172,12,106,140,162,174
-136,-698,19,2,121,310,380,394,376,229
-366,-463,29,42,183,289,333,314,275,135
-150,-225,50,97,69,127,130,102,64,-1
-359,-76,119,174,-47,-22,-37,-56,-77,-133
-651,-176,105,68,-148,-99,-121,-146,-152,-225
-444,427,125,-49,-355,-105,-115,-136,-134,-166
-184,548,76,192,-327,-30,-44,-60,-61,-67
-109,-119,78,140,364,228,143,88,64,55
-13,-223,11,-626,309,271,201,161,139,166
14,-155,-110,-1209,214,204,162,183,191,221
-78,482,-30,-810,138,-58,-102,-35,3,51
-133,1157,181,528,-176,-380,-371,-340,-284,-174
-16,1006,283,944,-234,-372,-362,-344,-291,-134
-11,212,289,404,-244,-261,-261,-208,-188,-46
147,-13,140,178,-196,-134,-115,-31,-47,50
409,85,-136,-2,-212,-149,-142,-55,-67,-11
328,-135,-215,-16,-84,-28,-17,42,6,-21
33,-830,-219,86,125,183,201,227,172,56
2,-1140,-164,140,222,271,289,324,302,190
2,-736,7,123,139,183,172,194,164,112
-125,-462,116,107,44,63,32,5,-26,-53
-318,-496,186,59,-9,-12,-59,-94,-153,-190
-389,-227,151,10,-32,-45,-129,-122,-207,-263
-72,668,-1,-22,-38,-55,-123,-136,-186,-234
144,613,-64,-34,-40,-33,-53,-113,-111,-154
114,286,-168,-165,-57,-37,-31,-82,-53,-58
80,71,-263,-343,50,68,111,89,135,95
44,-624,-280,-328,134,127,173,165,181,165
123,-1154,-111,49,82,0,26,14,15,84
91,-573,147,405,-95,-164,-175,-158,-150,-44
217,924,185,300,-95,-13,-11,35,44,125
340,1018,82,1,28,119,114,104,98,135
253,177,-17,-159,5,7,10,-45,-61,-76
-92,-292,8,-143,-158,-147,-128,-174,-198,-253
-170,429,109,-32,-112,-65,-29,-19,-47,-133
-140,102,-70,52,94,184,196,265,237,126
-225,-579,-183,5,96,149,123,183,163,69
-208,-31,-62,6,188,71,-3,43,-3,-16
-171,349,36,-20,259,57,-57,-40,-101,-70
-51,-18,16,204,289,95,-37,-33,-85,-37
261,-36,18,144,285,189,96,119,67,116
399,271,182,-528,-125,154,131,153,106,164
241,449,335,-519,-209,9,19,10,-22,54
-146,287,213,95,-41,-113,-124,-156,-190,-178
-211,-63,-134,396,26,-50,-60,-79,-120,-133
-37,-610,-279,158,-53,55,93,87,38,51
136,173,-119,-101,-244,-84,-58,-40,-70,-10
188,1374,183,-226,-394,-425,-479,-459,-472,-365
66,1698,367,-183,-392,-636,-755,-785,-793,-681
-76,874,279,-160,-409,-539,-657,-705,-718,-638
-274,193,85,0,115,70,-4,-32,-28,-28
32,-139,-139,127,466,424,440,458,506,512
0,-1062,138,138,-16,155,226,244,278,257
-345,-1316,358,123,-39,-8,-27,-47,-37,-60
-350,-393,-76,-214,272,112,46,-40,-18,-24
0,475,-308,-492,554,551,525,435,441,406
416,237,-114,-342,233,483,614,595,627,588
529,-191,-53,320,-32,-45,155,195,260,323
318,-801,-168,584,-225,-128,48,88,113,176
243,-788,-168,472,-161,40,178,206,192,218
104,-449,-15,237,-240,-16,94,89,54,112
-174,-217,-4,-20,-421,-68,36,5,-58,-65
-482,-99,-51,-130,-43,64,119,64,-12,-151
-657,-131,-255,-187,433,143,157,79,-9,-216
-390,-331,-375,-166,358,180,187,121,37,-135
-89,-272,-240,88,457,184,160,116,43,-33
88,-60,42,43,162,-23,19,-3,-43,-59
34,-81,108,-1,-408,-196,-60,-51,-56,-92
-80,91,-38,0,-328,-178,-80,-69,-55,-106
-20,-41,-27,-122,-229,-156,-122,-116,-98,-93
109,179,58,-123,-235,-66,-39,-41,-17,25
115,153,-28,-133,-51,24,32,17,43,86
-26,-231,-106,-118,400,-44,-135,-151,-136,-76
-62,4,7,128,-5,-134,-126,-105,-90,-26
21,-177,122,127,-258,-28,45,103,119,171
206,-508,125,-19,-101,1,33,61,78,158
308,362,271,-13,-116,-128,-133,-138,-111,-33
422,1229,465,78,-118,-171,-212,-225,-214,-119
115,1045,385,95,10,-56,-109,-117,-130,-73
-196,358,22,-212,126,80,56,45,5,-39
-278,-205,-266,-667,-49,60,82,117,74,-46
-173,-210,-202,-263,-67,0,-11,105,92,-4
-37,160,-73,585,38,-49,-109,12,24,-6
58,-332,-103,447,98,133,110,241,251,197
132,-695,-152,135,56,193,224,350,377,304
109,-393,-153,6,53,139,158,247,253,199
127,-191,-245,-179,104,148,179,222,218,155
39,-103,-91,-269,96,147,156,158,109,46
-144,209,166,-72,12,-6,-51,-59,-118,-146
-188,988,501,315,-47,-307,-447,-446,-477,-425
-145,1518,600,430,-222,-436,-574,-587,-598,-498
33,790,140,226,-171,-214,-317,-316,-333,-281
127,-300,-420,-103,-23,-9,-77,-81,-77,-68
-55,-1344,-413,-114,-18,-27,-35,-58,-73,-121
-54,-573,-157,-154,-143,-119,-76,-57,-77,-108
-75,-267,-47,-140,106,117,168,239,247,210
-377,-217,-45,169,240,187,170,233,210,147
-240,248,120,183,190,120,57,90,64,68
-67,4,214,-488,58,47,-56,-45,-62,-24
-108,-294,52,-485,-119,-143,-206,-196,-206,-183
-150,-194,-226,204,-51,-141,-111,-75,-72,-87
75,-143,-199,466,283,200,272,322,344,278
67,-463,-25,263,107,217,348,415,403,355
185,-404,56,-29,-90,47,149,199,187,215
343,161,191,-122,-117,-84,-72,-21,-16,88
376,875,197,-130,-113,-170,-185,-132,-120,29
348,479,-41,-121,36,-73,-98,-70,-62,69
175,-456,-18,-22,68,116,69,78,95,144
-78,-474,64,-207,-62,195,177,158,157,117
-257,-234,-64,-495,223,241,178,162,142,68
-231,-565,-279,-488,256,27,-53,-34,-42,-89
-266,-511,-214,-80,41,-215,-295,-291,-319,-348
86,974,172,89,-321,-283,-302,-296,-329,-344
137,1386,411,281,-316,-206,-162,-114,-152,-191
-167,626,129,332,-96,-51,16,100,84,-12
-16,-385,-174,216,123,145,190,267,270,180
161,-818,-20,206,249,204,191,242,238,205
137,-648,-43,153,209,191,170,197,192,141
-70,-183,-148,30,63,133,96,119,82,23
-148,-104,-122,101,42,118,53,78,22,-27
-128,-93,-18,90,-300,24,-14,13,-34,-61
123,20,99,41,-50,46,9,41,27,59
240,415,116,185,232,16,-72,-69,-50,33
67,651,20,-92,11,-85,-152,-164,-168,-113
-92,494,-65,-282,-21,41,-4,3,-45,-17
-197,-140,-47,-101,203,137,73,78,34,54
-209,-292,260,109,63,-61,-121,-121,-127,-89
-156,333,421,116,-378,-298,-267,-254,-244,-181
-46,368,167,-12,-294,-249,-202,-181,-171,-95
-38,106,-152,-72,-64,-66,-12,0,6,36
-61,-165,-107,-22,8,4,72,71,82,106
-72,-340,-133,1,-3,-7,46,56,62,85
85,-20,-29,20,6,-27,15,38,42,71
208,-99,64,54,43,29,70,84,101,135
198,-353,1,35,30,19,55,53,89,123
228,298,25,-80,-131,-194,-160,-189,-136,-54
205,1106,173,-258,-348,-470,-451,-535,-489,-334
67,1562,197,-331,-398,-519,-502,-613,-578,-440
-8,1327,-45,-297,-255,-309,-290,-381,-336,-264
-124,-677,-364,-396,-40,-52,-29,-109,-86,-111
-291,-1299,-226,-286,218,277,290,223,220,67
56,-497,-133,-86,326,525,538,489,477,318
402,-239,-176,-5,334,602,628,591,572,481
14,-458,-78,220,337,370,329,295,278,202
-273,-345,27,362,408,159,40,23,1,-75
-174,10,121,272,-120,-150,-162,-135,-136,-166
73,98,209,231,-287,-207,-139,-63,-42,-22
213,77,164,223,-32,19,72,143,167,158
162,-308,-21,147,140,161,173,208,196,172
-171,-660,-52,83,134,136,150,149,102,35
-398,-475,101,13,-21,-44,-17,-61,-95,-169
-362,-337,90,-40,-92,-207,-210,-268,-250,-237
-226,137,-122,-17,165,-98,-164,-234,-188,-118
-180,-47,-250,-257,262,145,60,-38,-39,-11
-18,-555,-243,-603,209,426,315,206,185,133
78,-536,-185,-118,314,393,259,172,187,131
65,-228,-7,546,47,105,65,46,81,84
127,80,97,110,312,-12,-4,28,101,132
74,356,34,-33,-93,-215,-148,-88,11,36
64,484,-63,140,-590,-212,-97,-26,27,41
16,-178,-235,-351,-420,-41,51,104,123,102
-74,-147,-22,-15,70,-102,-84,-63,-37,-24
-160,289,358,359,104,-251,-291,-301,-274,-219
141,715,360,35,-195,-267,-247,-224,-210,-100
637,750,163,-294,-185,-173,-140,-98,-76,45
781,494,175,-222,-164,-249,-240,-223,-185,-71
113,937,298,99,-262,-487,-531,-545,-522,-419
-74,1258,244,214,-91,-333,-391,-414,-402,-361
223,-51,-29,140,45,29,31,49,51,31
162,-1556,-206,79,131,336,378,405,398,292
-18,-1341,-200,-1,319,341,328,337,335,218
-455,-390,-62,40,4,129,156,177,164,78
-538,261,51,58,-151,50,121,147,142,102
-360,50,3,27,-28,69,129,127,137,135
-201,-224,-57,50,47,111,159,140,141,153
-20,-145,-33,50,38,84,143,122,134,153
284,173,66,-1,-27,-14,51,13,46,128
425,364,141,-29,-91,-93,-60,-106,-65,46
110,431,170,-35,-121,-149,-136,-181,-149,-85
-272,360,95,-32,-157,-224,-255,-287,-261,-257
-464,99,-50,-21,-98,-167,-207,-223,-216,-250
-358,161,-6,19,26,40,30,20,6,-92
1,-155,55,-38,-14,129,147,159,135,13
62,-770,-127,-64,104,83,84,86,64,-58
-141,-412,-256,-112,22,-147,-149,-168,-193,-269
267,-225,-197,30,80,161,266,276,265,201
458,-510,-222,65,193,280,400,392,373,293
348,-407,-89,45,152,134,177,131,109,37
-144,-227,162,303,90,100,112,47,22,-68
-396,326,333,325,70,85,74,-10,-45,-96
-236,379,293,-30,69,37,-8,-82,-114,-113
-117,120,122,-134,-6,-83,-130,-204,-206,-164
-19,-26,74,-62,-9,-10,-46,-94,-101,-64
-13,529,107,-71,99,72,6,-8,-22,-24
134,758,-10,-134,203,26,-51,-48,-51,-18
137,267,-119,-154,131,77,13,20,-12,31
41,-243,-338,21,206,176,121,97,76,69
-132,-365,-251,4,87,80,53,41,27,-21
-145,-371,-218,-272,-110,119,153,184,162,97
40,-450,-116,-210,61,159,206,267,261,238
2,-252,38,69,-74,-45,5,36,47,92
-128,-97,121,327,-182,-137,-139,-136,-117,-44
-200,-174,67,315,-328,-154,-175,-134,-118,-8
-100,15,-149,16,-364,-99,-89,-44,-30,113
74,776,-206,-159,-122,-39,-70,-58,-28,145
18,354,-185,-82,123,-97,-164,-174,-141,-8
97,-507,-96,77,4,-127,-146,-135,-122,-21
429,-28,148,75,-86,-130,-133,-125,-129,-49
82,1300,538,104,-208,-352,-414,-451,-461,-442
-401,2175,622,-14,-382,-575,-660,-711,-732,-742
-480,856,136,-260,-337,-449,-481,-507,-513,-535
-17,-465,-304,-465,-42,17,79,96,118,79
241,-769,-195,-408,214,316,408,402,409,331
228,-1023,-286,-34,293,301,413,381,367,290
224,-831,-461,355,194,169,273,245,250,197
170,-617,-206,302,139,202,275,286,285,213
224,-415,179,195,137,215,299,336,353,260
209,-235,153,102,69,122,198,207,233,183
265,-137,-47,-7,-24,9,83,80,110,134
298,-115,-27,-2,-16,22,75,66,98,169
135,148,64,8,-37,-53,-29,-65,-36,70
-18,336,-16,-11,-30,-103,-113,-177,-137,-51
-46,338,-10,-63,-122,-101,-115,-170,-128,-90
-161,38,2,-161,-383,-191,-219,-253,-237,-222
-234,-454,-66,-26,-209,-188,-234,-243,-224,-249
130,-380,-157,153,172,-67,-82,-65,-19,-4
426,358,-5,230,82,55,65,109,170,198
231,74,10,-98,88,118,110,137,171,153
-448,-380,-5,-739,65,89,97,111,123,11
-544,-53,40,-690,0,32,33,40,62,-32
-365,164,11,408,49,161,115,114,101,23
-316,-104,-26,734,75,252,207,189,123,21
-92,465,26,-23,329,133,94,53,13,-47
-4,648,47,-334,223,-66,-82,-111,-131,-145
-39,-201,83,323,84,-73,-60,-78,-84,-118
-12,-403,204,724,215,120,97,70,68,16
-74,-179,215,51,253,62,-34,-84,-66,-90
-64,-167,89,-291,-129,-155,-199,-211,-151,-156
174,269,0,-383,-331,-94,-23,20,91,90
188,115,-183,-394,4,113,160,207,289,310
-95,-73,-173,116,121,10,-15,-10,82,118
-151,300,-28,421,-25,-121,-126,-175,-100,-41
-65,486,7,142,-121,-163,-151,-229,-188,-149
78,-138,-231,-122,-106,-8,-5,-57,-38,-65
156,-875,-244,-340,-122,238,208,166,137,23
-53,-730,-116,-369,381,416,275,171,117,-56
-173,-1,8,306,935,229,56,-59,-74,-207
135,88,76,415,-200,-66,53,66,105,42
394,-6,103,-120,-589,-18,180,258,316,310
204,194,68,45,-64,-36,12,9,42,88
32,349,48,225,-119,-157,-109,-115,-98,-46
41,334,44,104,-187,-137,-70,-55,-68,-10
12,356,51,-12,-177,-158,-138,-144,-146,-98
59,307,48,-13,-83,-68,-50,-61,-57,-5
148,69,62,-9,28,46,83,77,98,163
79,-20,51,-35,52,48,61,50,84,168
17,-45,-55,-32,13,-16,-24,-36,16,77
-193,-307,-153,-29,-61,-73,-102,-93,-41,-69
-343,6,27,132,79,25,-91,-82,-86,-163
-203,343,139,226,140,45,-123,-129,-159,-205
226,413,19,-78,-34,70,0,39,44,58
337,457,33,-209,39,152,112,177,202,246
132,-13,156,144,190,-12,-73,-24,1,47
9,-565,0,134,-69,-179,-154,-98,-84,-64
-24,-398,-121,-74,144,-110,-118,-64,-89,-89
21,233,56,-36,309,-63,-125,-96,-127,-117
56,436,107,-38,338,45,-50,-54,-83,-115
166,574,106,-51,219,110,-10,-44,-68,-82
51,834,41,-35,-337,-131,-162,-161,-162,-127
-263,-180,77,-26,-721,-302,-234,-191,-182,-184
-305,-1272,9,-71,-401,-140,-100,-60,-68,-113
-44,-93,50,-151,-87,-88,-105,-113,-110,-113
215,-129,101,83,219,92,50,-1,-5,-6
444,-628,-32,328,347,337,311,252,247,230
374,-223,-53,328,154,172,183,141,141,173
131,-135,9,385,-109,14,65,60,60,119
71,-260,40,199,-291,66,145,173,167,187
381,-158,45,-221,-474,121,197,222,235,255
269,-152,-74,-680,-431,129,189,186,186,177
-405,-251,-145,-453,421,52,-28,-35,-36,-81
-698,315,39,80,344,-134,-201,-194,-199,-265
-473,437,208,259,-28,-198,-205,-192,-201,-229
-396,-187,148,239,42,-111,-131,-121,-150,-176
-139,215,125,315,-10,-93,-95,-76,-83,-77
179,723,61,303,-117,-65,-54,-8,16,55
154,109,-90,29,-49,16,22,86,102,135
90,-630,-144,-162,31,91,83,134,164,170
132,-673,-65,-79,71,123,137,163,176,195
227,-189,33,-61,-31,-27,7,-8,-1,54
81,53,129,-154,-101,-165,-186,-233,-237,-187
0,664,229,-622,-149,-286,-339,-412,-421,-357
93,1548,249,-1198,-10,-165,-209,-267,-276,-210
119,1521,193,-601,195,53,29,21,30,67
-27,75,-129,1141,288,56,28,32,58,71
-197,-978,-487,857,236,128,124,140,175,130
-274,-864,-397,-351,8,276,342,395,405,274
-369,-249,-231,-386,-138,92,206,266,272,191
-159,-112,-104,78,-168,-143,-49,-4,25,49
140,-401,-121,222,-147,-129,-61,-18,28,88
-37,-466,-75,228,-11,113,175,207,207,165
-97,-99,-32,196,68,179,211,237,205,113
235,-389,-78,93,18,83,84,116,123,92
478,-374,-101,53,5,56,59,89,118,142
553,22,51,98,52,50,33,53,82,140
132,214,253,165,76,42,-2,1,4,15
-555,-101,256,133,19,6,-55,-57,-115,-201
-758,-590,-9,57,-6,54,25,-3,-87,-225
-482,38,-117,-19,50,96,53,9,-51,-135
-14,693,-118,-89,107,51,4,-49,-91,-84
216,721,-7,-59,104,-10,-30,-85,-100,-62
248,838,127,0,35,-143,-119,-159,-129,-81
62,332,185,53,-316,-298,-219,-236,-191,-134
-96,-261,209,-2,-312,-320,-255,-276,-248,-187
-93,-335,-43,-131,-253,-288,-259,-267,-237,-191
145,59,-255,-129,-124,-101,-67,-52,-37,-9
406,278,-320,-24,57,107,161,185,163,170
281,-403,-344,143,259,307,351,352,300,222
-42,-348,-218,134,186,188,196,173,104,1
-130,-171,97,123,117,89,69,71,32,-33
-56,-55,196,103,97,78,40,87,94,76
102,162,23,13,21,34,15,71,91,151
176,273,-7,-16,1,5,1,61,63,154
183,224,76,1,-1,-22,-54,-5,-21,91
191,271,31,1,27,-36,-109,-92,-115,13
145,314,-49,-102,-43,-56,-157,-162,-190,-114
151,-290,-145,-185,-57,166,128,106,59,4
172,-343,-201,-404,13,256,302,248,199,101
70,-215,-200,-410,218,135,138,102,63,10
-109,-243,-72,-42,127,-84,-99,-92,-109,-116
-192,9,131,317,-88,-245,-234,-224,-220,-199
-50,384,311,449,-92,-208,-206,-214,-206,-156
248,657,269,295,-80,-162,-154,-160,-153,-40
443,349,83,21,-17,-35,10,12,23,143
177,-279,-4,-20,-22,-19,45,52,59,110
-227,-166,-71,-62,0,-24,22,15,8,-3
-314,-244,-132,-270,117,78,83,75,57,30
-133,-470,-326,-456,88,104,92,119,120,137
-213,-285,-446,-87,107,29,-34,-10,-28,19
-281,123,-306,232,251,-100,-228,-253,-276,-218
-93,433,-7,210,-19,-66,-120,-119,-137,-102
-272,-103,229,202,44,101,97,105,78,11
-414,-413,129,48,180,230,207,175,74,-44
-187,-327,52,-39,-11,205,189,158,64,-19
-194,-135,63,19,-417,-60,-38,-16,-68,-102
-112,193,104,85,-489,-151,-129,-109,-160,-135
12,150,109,98,-72,-36,-73,-82,-138,-104
187,-185,76,83,144,111,52,53,-5,43
204,-405,-72,106,830,195,127,130,78,119
213,54,4,101,257,25,66,122,85,131
274,376,82,-75,-341,-107,-10,88,45,126
212,-56,-51,-166,-138,-16,20,86,32,97
-161,-8,-158,-2,105,38,43,27,-42,-80
-221,-155,-37,310,221,74,60,17,-25,-97
-76,-13,-37,291,324,79,47,-3,-21,-43
-36,-2,-91,17,256,42,13,-25,-46,-43
33,17,44,-119,-87,-6,19,3,-38,-5
130,322,179,192,-116,-52,15,29,6,71
37,232,209,296,73,-52,-12,-18,-14,37
1,319,228,-132,-201,-121,-76,-74,-76,-14
-21,321,310,-301,-367,-248,-239,-231,-235,-161
-163,-722,172,-158,-245,-160,-191,-182,-212,-193
-179,-850,-41,-246,-160,-46,-93,-101,-137,-155
58,641,-200,-409,36,-27,-99,-117,-130,-106
224,1058,-319,-407,115,-89,-98,-96,-47,6
51,27,-304,-459,-194,-270,-186,-201,-132,-85
-45,-191,-45,123,-210,-201,-94,-120,-51,-39
-89,223,233,237,57,37,87,48,87,63
-143,556,240,-32,232,154,141,84,91,42
-44,668,4,279,360,181,95,42,55,36
-56,129,-188,517,113,80,-50,-109,-92,-84
50,8,-183,-22,-285,141,62,16,-1,11
235,382,-104,-611,-425,129,176,207,223,250
89,-144,-66,-397,38,176,205,267,314,302
-176,-1220,-58,250,252,31,33,113,155,89
-34,-575,66,316,-298,-215,-109,9,68,20
93,339,76,84,-305,-163,-81,34,85,70
365,-66,-92,11,-75,38,94,198,232,246
799,-508,-42,70,25,86,118,193,230,278
1328,-380,-45,25,-40,-3,20,82,118,217
1330,-324,-85,0,-30,9,13,66,89,199
138,-169,80,15,37,16,2,27,30,89
-837,181,164,-58,28,-30,-44,-36,-52,-57
-924,334,121,-306,-57,-98,-108,-98,-133,-184
-918,173,59,-377,-108,-119,-113,-123,-166,-275
-1015,48,151,62,-73,-81,-95,-92,-151,-305
-787,309,202,421,-16,24,-33,-36,-106,-238
-457,-376,-85,96,-86,58,15,7,-59,-117
-140,-605,-192,-256,204,161,154,126,75,33
-15,-287,9,-334,140,187,200,153,111,43
-47,-101,117,-43,-158,-3,11,-27,-54,-106
-56,80,54,422,244,-67,-98,-137,-155,-187
-243,317,87,358,242,-60,-65,-100,-109,-146
-64,277,157,200,-69,-75,-36,-31,-43,-34
78,-87,167,92,-83,-62,-62,-58,-87,-60
148,-131,200,124,34,26,-28,-16,-39,-12
222,165,184,147,104,89,36,52,54,86
182,240,63,62,57,33,-6,1,19,33
134,354,111,-31,-8,-53,-92,-98,-80,-82
148,255,147,-75,50,-59,-106,-136,-115,-105
158,297,1,-55,238,17,-29,-98,-53,-54
182,71,-209,-96,202,52,19,-46,-11,11
-87,-189,-164,-105,145,94,74,41,55,21
-241,-454,-179,-13,288,261,254,248,255,180
-289,-357,-158,-71,48,33,86,90,78,41
-106,-17,-63,-231,-567,-334,-201,-176,-157,-95
53,383,-16,-162,-403,-268,-186,-152,-117,-20
268,110,-53,56,-64,-25,38,75,120,223
415,-274,3,228,175,205,267,304,363,443
268,-446,-100,134,134,171,229,269,315,344
209,-282,-176,20,30,53,104,119,174,191
95,-105,-142,-4,8,0,59,42,78,61
-8,164,-84,16,43,-24,8,-9,-26,-62
-99,450,-31,-13,45,-61,-70,-99,-127,-187
-241,382,181,217,2,-74,-98,-117,-156,-245
-368,191,393,409,43,-83,-116,-150,-208,-319
-322,63,267,116,26,-71,-98,-137,-212,-286
-180,212,71,-13,-97,-49,-42,-67,-113,-157
-108,270,-114,-78,-94,-13,5,-29,-36,-73
204,90,-241,-429,78,176,184,168,185,189
307,8,-225,-600,86,172,145,150,153,202
61,-10,-188,-267,53,32,-9,-13,-28,9
-102,-400,-77,25,24,-53,-74,-82,-86,-74
-25,-514,34,-11,1,52,51,72,87,93
31,-410,25,111,-3,90,111,135,157,148
-5,-525,17,194,30,90,79,99,89,94
42,-307,37,76,26,100,92,103,96,99
73,-76,37,-5,-33,26,13,51,37,75
97,86,-9,-79,-80,-45,-69,-23,-23,44
116,203,-36,-120,-97,-87,-94,-63,-47,20
99,303,161,-99,-100,-140,-130,-126,-93,-38
-2,350,274,-10,-87,-195,-221,-240,-196,-139
96,443,94,19,-67,-141,-169,-195,-158,-82
208,498,-46,-25,-139,-121,-152,-175,-155,-61
192,212,-173,-113,-186,-42,-66,-80,-58,23
147,2,-232,-114,28,90,19,43,54,137
28,-733,-390,-371,-137,113,61,118,139,124
-202,-1221,-282,-255,387,364,272,304,284,213
-405,-894,-206,77,1114,350,174,209,187,109
-198,-454,-75,331,351,35,-2,75,56,20
76,-199,24,489,-149,10,64,150,109,101
0,416,165,101,-154,57,86,95,50,39
-23,509,187,-89,-89,47,87,71,39,16
74,122,225,-106,-328,-72,44,72,64,29
-47,-105,194,53,-156,-137,-57,-42,-59,-107
-128,105,115,208,-32,-152,-143,-155,-180,-196
8,220,174,105,-34,-11,-27,-23,-36,-43
44,22,120,-32,-120,54,62,99,81,67
3,-2,-124,-24,-127,26,56,101,100,72
136,155,-157,-114,-124,-37,6,41,61,77
261,395,-71,-314,-100,-26,-5,-4,18,64
0,182,-75,-354,-134,-108,-98,-123,-113,-135
-351,170,109,17,-176,-280,-308,-352,-359,-407
-253,618,281,243,-177,-256,-313,-351,-344,-375
6,539,184,71,-204,-82,-114,-126,-121,-124
156,217,15,-205,-102,139,114,138,137,137
100,-220,-155,-356,313,346,312,352,334,249
-51,-918,-135,-75,369,281,268,292,273,167
15,-536,5,303,-152,28,60,60,82,45
276,292,187,27,-203,-60,-20,-52,-12,37
431,840,156,-307,181,-122,-116,-165,-140,-25
148,450,43,-152,100,-168,-146,-181,-190,-101
-539,-36,20,319,-81,-284,-255,-300,-328,-326
-732,-333,2,265,-73,-187,-162,-188,-231,-292
-407,-12,-40,96,4,4,20,49,14,-57
132,345,-138,218,-19,5,56,112,109,75
418,525,-59,336,98,104,206,236,258,229
171,-15,193,146,154,157,241,242,261,201
-236,-518,279,147,116,42,51,20,11,-31
-251,-192,58,135,121,36,-9,-19,-44,-49
15,-494,-160,-44,93,100,75,88,115,147
166,-724,-163,-392,-24,118,130,187,237,313
-116,-274,-68,-412,33,-14,-16,33,64,130
-436,-32,17,-75,-13,-275,-294,-275,-239,-208
-404,53,66,281,-152,-350,-357,-348,-324,-332
113,24,-73,213,-71,-80,-51,-21,-6,-24
450,-4,-216,-79,64,192,258,264,282,212
640,287,-141,-358,12,118,207,200,211,202
532,319,-111,-394,-46,-17,68,54,75,111
110,-88,-162,-17,9,-33,41,12,19,-19
-145,-239,-33,250,58,15,100,54,35,-82
-99,-122,184,174,30,81,155,110,97,-34
10,-286,72,1,82,88,121,69,85,22
46,-283,3,46,260,121,101,37,46,10
0,-139,43,220,310,153,98,34,32,-16
-59,81,0,192,135,78,41,-19,-40,-85
-69,-15,14,20,-241,-72,-14,-33,-21,-61
72,132,32,-162,-520,-182,-50,-19,39,55
69,365,-42,-86,-190,-111,-58,-59,4,32
64,158,-12,94,-9,5,19,-15,41,36
55,-176,109,82,-100,-17,-32,-53,-17,2
47,-113,127,-140,-24,-82,-151,-159,-122,-78
133,472,175,-6,31,-153,-218,-222,-185,-105
113,709,390,161,-141,-299,-314,-335,-291,-186
-169,307,401,-240,-321,-432,-450,-491,-467,-378
-227,738,86,-203,-356,-241,-246,-273,-279,-268
-101,691,-213,-67,-67,182,233,228,204,98
29,-713,-198,75,357,483,535,509,472,309
319,-1012,-225,62,405,272,280,262,256,200
590,-357,-270,-16,-39,-120,-88,-59,-5,97
584,-219,-294,-96,-128,-86,-49,11,65,198
466,-555,-283,-112,-19,-5,-5,51,100,232
463,-613,-118,-93,-2,-81,-109,-106,-63,69
145,36,31,-65,6,-12,0,-56,-53,-49
-647,820,159,57,86,151,176,112,71,-82
-1132,402,65,136,83,98,111,62,6,-177
-796,148,17,78,14,2,5,-41,-79,-139
-364,-74,57,29,-15,-5,7,-34,-52,-23
-111,-221,73,85,118,112,117,89,78,61
-81,134,74,104,246,117,77,36,21,3
-110,505,133,23,279,67,-68,-105,-138,-129
-69,569,94,-294,67,91,-87,-140,-167,-169
89,115,-179,-670,80,242,37,-40,-62,-101
262,64,-232,-536,-62,46,1,-34,-35,-25
71,96,-15,258,-38,-24,103,137,158,139
-135,-52,80,199,139,75,178,188,209,153
-92,-118,127,-30,-18,23,89,81,95,79
-212,-337,-2,242,-34,-152,-137,-116,-114,-84
-399,-406,-41,552,-38,-180,-202,-190,-182,-183
-275,-280,45,305,-106,-56,-67,-18,-24,-41
-102,-443,87,108,-42,75,96,169,173,151
-10,-264,142,73,10,59,61,133,153,133
121,-78,103,78,-15,-39,-62,-10,2,44
100,-53,23,51,-40,-83,-107,-93,-87,-13
11,44,3,31,-48,-104,-104,-128,-137,-55
-13,9,-49,-5,-20,-105,-86,-118,-137,-66
14,-83,-29,17,72,-67,-41,-51,-69,-16
64,472,-35,-76,-35,-91,-98,-76,-56,-4
85,597,70,-138,-1,-121,-137,-150,-118,-63
166,1008,134,-108,-123,-202,-181,-206,-215,-132
308,1253,105,-199,-383,-236,-172,-185,-222,-132
228,112,-33,-317,-208,-72,3,-2,-11,49
30,-776,-104,-198,39,143,217,216,250,287
-227,-987,-218,86,91,91,138,148,194,184
-203,-474,-178,206,61,-53,-56,-37,2,-19
-3,101,-34,-23,5,-80,-79,-66,-32,18
0,-213,56,-30,-59,-44,-33,0,25,113
-67,-890,35,-17,-55,-8,-7,33,56,117
55,-651,-49,-50,-54,0,-2,28,49,115
169,45,-48,141,60,137,133,166,172,185
152,263,-58,153,112,174,180,187,153,85
84,403,-17,225,120,115,134,83,20,-111
63,313,74,224,73,123,150,63,29,-62
-69,-523,44,145,101,187,189,123,106,12
-15,-373,23,-127,106,171,171,118,109,73
-18,-137,-35,-208,14,51,48,0,-20,-4
-24,-203,-52,-97,-44,-29,-32,-88,-81,-58
3,-115,32,-56,-113,-118,-119,-183,-133,-112
16,162,190,-76,-167,-198,-235,-297,-257,-199
10,214,274,-52,-180,-236,-312,-372,-358,-270
83,746,169,-17,-107,-152,-228,-276,-273,-188
120,427,-131,-1,6,14,-31,-52,-51,-2
172,-103,-371,-68,29,91,74,71,92,94
287,51,-386,-110,-60,133,110,123,154,136
264,14,-77,8,19,232,158,141,149,124
21,62,255,106,286,229,42,-18,-37,-60
-139,-1,120,-127,293,164,0,-54,-70,-87
-159,171,-82,-395,-213,63,47,64,60,17
-18,468,59,-285,8,38,18,88,95,99
68,563,240,-26,473,-4,-103,-72,-54,30
0,236,-1,-316,286,-52,-136,-133,-116,-32
-66,-114,-308,-772,-33,-120,-165,-138,-96,-55
-371,-107,-129,-111,-238,-287,-282,-241,-191,-216
-533,128,141,911,-258,-315,-311,-286,-258,-295
-199,208,100,682,-111,-117,-113,-97,-92,-121
182,112,-51,35,-175,53,101,153,165,155
207,-670,-82,83,20,246,339,385,390,340
77,-608,-79,76,85,251,335,339,324,244
162,-258,-49,31,-24,120,180,160,136,100
346,-118,-48,71,-34,25,79,64,54,69
369,-187,0,149,51,35,83,64,60,87
252,-172,144,140,73,45,50,30,23,43
17,-6,174,152,138,56,2,-5,-27,-3
-213,206,115,105,-3,86,-13,-20,-67,-87
-257,-26,-83,-148,-281,214,133,109,40,-40
-305,-142,-271,-385,182,331,224,182,96,-8
-189,-37,-68,-194,352,182,90,65,4,-53
-12,78,101,239,631,-14,-35,-9,-16,-21
63,163,161,328,-87,-352,-256,-191,-168,-98
-65,-99,147,-72,-824,-608,-448,-391,-365,-269
-195,590,52,-461,-523,-492,-411,-405,-399,-304
-167,923,-80,-488,-146,-144,-88,-89,-93,-91
-169,-444,-108,26,52,101,148,174,175,122
-74,-677,101,570,180,204,233,250,268,241
58,-312,128,260,51,115,162,172,213,226
89,-147,67,87,-26,69,101,117,158,172
-39,-180,88,128,53,96,86,97,113,71
-55,-138,128,91,38,28,-34,-25,-31,-31
84,3,40,-9,-36,-30,-81,-69,-65,-32
204,166,-89,-76,-88,-45,-93,-64,-54,-4
119,264,-211,-98,-91,-50,-93,-58,-41,-22
44,373,-192,-102,-93,-100,-129,-92,-64,-59
160,617,-113,-106,-111,-117,-127,-98,-64,-40
306,-90,-15,0,30,41,42,80,107,93
98,-703,67,73,126,139,141,164,176,72
14,-117,155,43,52,53,54,12,-2,-99
164,409,45,-10,61,28,24,-55,-58,-79
-106,-128,-115,-9,234,114,97,12,24,-11
-385,-884,-247,-142,166,99,94,24,29,-63
-301,-771,-207,-227,-44,-28,-46,-79,-79,-124
55,439,-40,-243,95,34,-38,-37,-36,-18
146,814,126,-248,97,160,73,67,57,90
-152,100,33,197,-15,13,-86,-140,-130,-122
-151,79,-176,357,-16,-17,-131,-201,-184,-183
-3,-108,-245,151,299,287,200,129,125,90
64,-28,59,0,230,253,229,204,184,167
389,0,192,-452,-173,46,100,142,156,231
656,-155,-32,-762,-372,-210,-119,-30,52,225
443,-259,-204,-419,-416,-291,-189,-103,-30,118
378,-175,-234,50,-269,-194,-155,-127,-94,21
672,30,-161,236,111,-25,-82,-74,-54,43
14,-210,98,345,291,161,103,127,115,76
-1022,-139,260,164,2,152,192,241,192,44
-679,192,120,31,-12,85,111,162,119,4
-57,310,-37,-210,160,39,14,43,23,-5
44,202,71,-325,-58,-101,-90,-45,-55,-68
-140,203,132,36,-184,-287,-275,-255,-243,-237
-210,516,-17,200,-171,-299,-316,-307,-270,-206
-365,224,-125,441,-129,-195,-205,-189,-168,-103
-325,-193,-190,335,-61,-24,-1,29,32,39
-242,-206,-37,121,-98,-33,15,42,34,19
-218,52,103,55,-94,-75,-48,-32,-38,-39
-109,346,254,154,75,84,108,125,97,49
37,134,202,162,132,137,167,171,135,70
85,-262,135,136,160,138,162,139,81,21
91,-149,69,105,173,119,100,90,19,-26
-3,-88,28,18,111,57,4,-2,-57,-83
-34,269,13,-83,-32,23,-1,-11,-92,-102
21,394,51,-58,-85,-55,-70,-73,-152,-124
39,91,119,65,-71,-188,-230,-228,-266,-189
17,306,117,39,-88,-210,-250,-254,-276,-181
-23,483,53,44,0,-64,-58,-79,-99,-41
-15,-70,-28,66,79,64,99,77,80,78
24,-467,-156,-14,0,-15,8,-25,-2,21
-35,-812,-199,-62,-47,-65,-50,-80,-62,-3
5,-645,10,17,27,9,25,4,24,83
155,214,55,57,84,118,140,146,190,208
-31,5,-147,-23,0,147,194,203,224,144
-28,45,-294,-161,-232,35,56,76,69,17
85,249,-316,-255,-95,70,86,107,105,87
57,-306,-22,-236,279,160,168,192,178,144
21,-376,398,-36,101,57,39,39,12,-29
26,296,300,121,-288,-113,-141,-145,-180,-200
-14,398,9,172,-60,-110,-161,-170,-192,-187
-41,-184,-111,76,339,-124,-205,-215,-201,-196
-68,-293,-61,-26,4,-179,-214,-212,-187,-193
113,594,43,-71,-127,-66,-102,-83,-45,-33
315,83,46,53,334,233,173,200,233,256
112,-739,45,172,192,227,246,276,304,297
-7,-616,6,107,34,128,152,182,222,221
-46,-111,-87,10,35,61,46,81,118,97
25,270,-205,-68,-55,-15,-12,19,33,-34
258,380,-240,-116,-143,-136,-143,-92,-70,-97
241,122,64,-65,-94,-129,-162,-113,-92,-95
-16,-94,315,31,-3,-57,-101,-79,-82,-99
-63,-84,310,94,52,10,-34,-19,-9,-19
70,449,22,-3,21,9,-19,4,24,26
168,514,-133,-77,87,17,-11,12,22,28
181,287,-122,-268,105,-2,-44,-65,-36,-12
297,74,-119,-600,0,-71,-93,-148,-106,-39
182,202,1,-69,149,42,26,-25,6,42
-129,101,72,738,154,15,34,14,33,51
-221,-523,-50,187,-204,-19,56,61,60,37
-30,-196,-58,-95,-239,-29,19,18,27,24
-32,46,93,49,-115,-20,5,-13,-4,-13
-57,-42,152,70,9,97,123,111,106,81
190,-368,131,108,85,169,187,203,222,236
217,-270,58,74,81,119,111,158,187,179
-88,-121,54,15,26,61,28,72,88,41
-368,-5,52,-16,-27,-8,-55,-27,-33,-55
-357,38,-14,-22,-21,-17,-52,-32,-29,-22
-436,-176,-85,-28,5,-3,-46,-30,-41,-83
-433,-245,-113,-82,-3,-22,-90,-93,-131,-224
-59,-283,-65,-116,-83,-48,-58,-58,-78,-128
-39,-261,-46,-119,-111,-86,-72,-57,-68,-80
370,529,18,-175,97,-1,-30,-2,-22,33
937,659,28,-326,307,216,156,162,102,184
773,120,-32,-309,395,199,106,72,25,60
160,-109,26,302,154,-116,-194,-237,-272,-260
-318,-53,80,349,-151,-181,-188,-203,-231,-262
-507,61,65,-28,-23,121,169,178,160,12
-441,46,114,234,-14,158,238,273,251,99
-300,547,143,192,-149,-66,-5,9,7,-55
-203,615,114,26,-200,-116,-47,-51,-61,-64
-290,-259,6,118,-118,18,77,77,80,33
-183,-668,-37,149,-38,94,152,145,157,92
63,-173,-53,54,-73,44,69,44,61,51
204,55,-67,38,-28,116,116,60,72,102
327,-202,-51,-21,88,195,201,128,139,218
214,-235,-177,-151,217,216,212,170,191,260
53,-35,-233,-131,111,32,43,24,63,120
-130,125,-155,-24,-175,-284,-252,-284,-229,-112
-307,190,19,-97,-306,-350,-325,-344,-287,-177
27,322,41,-213,-287,-226,-238,-249,-214,-115
463,275,-46,-156,-214,-130,-130,-177,-173,-136
426,-108,-80,177,115,-46,-43,-102,-120,-176
-191,-279,142,367,318,88,55,-4,-40,-127
-571,-36,284,123,-68,-145,-154,-237,-246,-304
-276,1202,399,94,-359,-368,-337,-394,-369,-353
-31,1439,324,172,53,-130,-130,-133,-94,-92
3,-539,-59,84,198,221,277,300,324,241
34,-1303,-272,34,156,283,355,383,382,261
28,-746,-155,-37,13,51,86,84,93,26
35,-251,-34,-101,-79,-106,-73,-99,-69,-66
83,387,10,-102,-73,-94,-50,-77,-53,-41
2,460,-3,8,61,79,126,98,113,28
-29,-53,-43,79,129,160,196,182,148,41
73,-426,-71,80,107,139,152,140,92,54
42,-623,-106,14,78,72,76,71,44,37
6,-294,53,-6,25,-18,-33,-28,-42,-10
63,569,160,-9,-16,-68,-87,-72,-93,-40
78,296,70,-51,-21,-51,-79,-58,-63,-26
2,-400,-86,-44,123,76,28,55,55,38
-1,-150,-58,-62,223,149,100,112,96,82
78,-112,-84,-153,63,140,130,154,114,139
117,85,-237,-388,-9,105,80,117,88,120
111,651,-62,-715,238,89,-14,-7,-30,19
58,370,68,-537,95,33,-37,-54,-73,-15
-166,-531,12,256,-154,-136,-184,-206,-209,-154
-45,-186,39,574,-265,-182,-178,-191,-183,-125
153,275,210,310,-115,-53,-37,-46,-39,7
23,84,279,168,-34,-128,-117,-106,-88,-82
-180,-74,194,97,-211,-214,-162,-93,-76,-127
-98,-58,-17,107,-108,-62,-10,71,104,89
72,53,-3,185,29,38,61,98,157,182
80,-207,-16,3,-16,59,94,125,164,145
22,-523,-128,-273,-138,43,97,162,182,135
10,-578,-143,-273,-50,39,70,133,149,113
17,112,-42,-42,89,20,16,44,59,38
20,154,-28,29,176,104,100,97,89,49
-62,-102,-100,-76,188,60,29,11,3,-59
-33,294,-123,14,143,-45,-113,-145,-143,-174
76,90,-60,481,49,38,32,21,6,3
42,-126,51,537,-72,18,43,60,66,68
-50,35,85,74,-67,-32,-45,-47,-23,-44
-16,-39,34,-152,12,50,19,21,37,-5
69,-44,-4,-213,42,71,42,46,73,49
101,40,-6,-347,30,52,35,45,77,56
56,97,57,-253,27,0,-16,-16,-10,-10
-32,138,126,119,16,-100,-110,-149,-150,-151
15,218,31,176,-35,-94,-78,-152,-147,-137
58,259,-59,45,-140,-98,-57,-126,-101,-59
121,28,-140,10,-99,-62,0,-37,6,59
74,152,-78,43,-4,-127,-84,-143,-97,-29
-82,424,-53,-100,-32,-275,-284,-324,-275,-214
-228,198,-115,-242,46,-103,-131,-133,-89,-118
-193,-444,-104,115,113,174,210,234,268,164
-99,-758,-39,407,-41,133,234,255,312,214
-208,-585,-111,-176,-250,-80,6,7,60,11
-156,497,-80,-352,-346,-247,-210,-226,-185,-165
46,1583,157,-141,-324,-313,-320,-336,-309,-209
241,320,210,35,-125,-134,-124,-124,-95,21
351,-327,244,109,1,3,19,17,39,143
188,50,300,120,48,47,64,68,91,178
113,-282,-29,95,142,213,252,293,330,357
137,-677,-260,40,172,286,314,354,379,348
33,-566,-244,-149,134,233,238,240,242,172
137,-327,-215,-366,143,258,238,231,200,153
187,-177,-185,-331,320,275,215,164,113,33
85,77,-86,61,179,67,4,-65,-126,-231
169,377,64,65,-368,-81,-62,-121,-177,-265
146,309,107,57,-213,-117,-51,-81,-130,-198
-23,-42,125,260,204,-145,-113,-130,-171,-209
-247,64,151,298,31,-170,-142,-128,-163,-190
-527,328,138,94,-208,-249,-199,-160,-193,-244
-401,448,146,-26,-196,-184,-122,-77,-99,-137
-230,-30,96,45,-37,-53,5,58,49,-3
-114,-437,-106,-53,-41,-28,13,52,63,7
16,-486,-406,-199,-85,-17,10,45,51,36
27,-496,-362,-58,-31,69,98,138,128,108
222,140,-138,84,80,146,154,185,168,169
330,5,73,57,103,174,158,189,184,207
192,-77,221,40,22,68,37,65,46,107
69,38,164,40,13,33,-3,11,2,77
-57,119,54,29,41,52,13,6,16,70
59,382,105,-4,2,17,-10,-16,5,77
-40,556,129,-28,37,18,-18,-27,-29,44
-335,-223,28,-110,132,101,24,-10,-52,-70
-47,-498,-61,-239,0,176,134,135,76,62
141,-83,-159,-38,233,256,205,219,162,167
-26,309,25,42,339,33,-49,-49,-100,-63
-81,662,175,63,-337,-258,-206,-174,-210,-151
-13,10,84,105,-288,-178,-151,-89,-148,-99
-63,-368,62,86,39,60,31,68,-18,-25
-206,-190,70,-125,85,162,138,154,63,20
-222,-69,-25,-247,-32,96,99,114,42,10
-287,134,-97,-20,30,-9,-18,21,-46,-57
-371,-376,-43,227,0,-103,-117,-90,-123,-160
-228,-435,23,252,23,-6,-9,-9,-38,-73
17,-101,72,191,99,83,43,24,0,-16
58,-23,113,103,182,95,40,0,-6,-11
74,-35,84,-101,-28,71,74,61,60,90
146,95,-22,-299,-319,-68,24,28,53,113
151,163,-40,-234,-199,-185,-119,-127,-109,-35
189,137,-1,-190,-1,-103,-75,-82,-65,-20
150,116,-9,-239,99,-10,-15,-16,7,32
48,195,56,491,76,-105,-127,-125,-112,-53
54,667,90,582,-12,-206,-232,-236,-209,-103
-81,674,106,18,-81,-110,-105,-104,-95,-71
-169,-60,9,16,-46,48,91,88,81,1
111,-382,-11,-128,-28,51,87,75,74,36
236,-325,49,-141,42,92,127,101,87,72
107,-43,190,25,82,99,137,116,99,20
-34,73,193,-113,97,137,151,137,102,10
-135,-95,-41,-247,121,113,95,71,40,-22
-145,-693,-272,12,172,77,69,15,-10,-58
-152,-901,-378,-139,19,21,71,-12,-44,-95
56,-346,-277,-475,-125,34,117,55,41,19
139,648,-97,-355,18,-77,-63,-83,-85,-41
-4,633,152,306,-29,-287,-301,-294,-283,-238
-48,513,303,464,-356,-296,-240,-224,-204,-193
-222,-146,157,233,-290,-197,-150,-156,-142,-155
-164,-421,-183,-73,-163,-123,-75,-94,-47,-49
64,-308,-274,-314,-86,-53,-29,1,78,111
134,-204,43,-245,-21,-8,-2,21,87,156
85,317,81,268,29,121,152,137,167,194
82,96,-20,534,48,192,242,194,206,173
175,-338,-53,183,157,218,211,170,180,150
126,-245,35,120,148,168,144,125,129,102
-3,-157,112,115,-195,73,111,108,95,86
-68,-164,43,69,175,74,28,17,0,13
-103,-187,-123,-34,363,24,-71,-119,-121,-86
32,-157,-339,-191,-49,52,52,9,28,65
86,50,-207,-10,141,200,154,113,116,127
4,34,31,197,774,187,43,7,10,-3
104,230,164,210,39,-178,-160,-134,-83,-45
169,318,269,70,-443,-342,-261,-192,-140,-43
198,249,231,-34,-270,-250,-225,-153,-120,-10
231,414,196,89,-177,-220,-224,-172,-118,-5
73,519,181,14,-90,-168,-155,-135,-78,36
-82,-175,45,-109,-45,-44,-1,27,64,170
-68,-396,-1,-92,-57,-44,-20,10,4,95
70,-85,8,-34,4,-10,0,29,5,46
-86,-114,-30,41,147,96,99,129,86,0
-233,-16,-13,91,209,99,93,89,41,-67
-309,66,-38,87,135,76,38,30,-19,-106
-299,153,-73,-45,253,121,31,8,-54,-136
-111,242,-201,-413,190,119,36,7,-32,-93
107,-29,-291,-447,-126,112,105,111,84,60
18,-208,-351,-108,-170,48,54,29,0,-4
-38,-133,-199,-6,79,180,113,58,21,-1
40,227,55,80,487,224,83,33,24,5
39,277,232,311,-109,-160,-178,-156,-134,-100
73,209,326,264,-500,-322,-239,-170,-142,-82
25,-210,176,115,-255,-224,-194,-144,-99,-47
-104,-658,42,72,-121,-145,-155,-124,-94,-45
-236,-267,-16,-45,-160,-131,-142,-118,-111,-92
-258,115,-95,-25,-32,17,20,38,29,-22
-173,85,-70,51,121,112,98,115,76,7
108,-188,32,-73,-48,45,89,75,37,-7
65,-167,-52,-134,-165,-199,-171,-206,-217,-187
93,530,3,-104,-117,-161,-144,-163,-155,-97
123,894,90,-50,-22,56,64,60,35,74
147,353,-75,-68,-52,124,147,186,170,166
46,-304,-113,-24,-73,-59,-43,4,8,38
-14,271,53,98,0,-92,-107,-78,-94,-38
2,469,123,104,43,-6,-21,-14,-15,30
-71,-169,100,65,39,24,31,39,43,75
-161,-434,43,39,56,61,68,64,73,69
-20,-183,-66,15,77,72,97,86,102,127
56,-86,-138,-24,50,40,104,90,127,153
7,-421,-4,19,47,-3,23,1,29,48
2,-206,82,32,3,-79,-107,-143,-121,-25
37,11,26,-66,-109,-155,-154,-194,-159,-24
69,-163,-90,-147,-152,-153,-119,-147,-102,-24
124,104,8,30,-55,-111,-76,-129,-104,-100
215,33,-12,206,252,135,169,121,138,66
27,-319,-156,133,262,176,166,145,163,55
-39,-218,-95,412,164,193,162,185,210,98
-90,-87,72,105,242,219,162,172,180,96
54,134,-88,-591,123,261,223,236,226,172
269,216,-160,-707,17,223,210,252,246,219
182,54,-126,-605,25,64,29,63,56,49
-104,-115,-36,-202,18,-63,-111,-87,-116,-163
-265,-1,39,263,-59,-176,-206,-194,-235,-298
-202,246,161,334,-162,-268,-281,-280,-305,-307
3,559,154,176,-256,-278,-234,-224,-232,-193
243,541,17,29,-241,-165,-72,-47,-56,-10
223,243,-80,5,-119,15,114,179,154,149
-14,-393,-85,-18,21,87,147,233,205,152
-211,-538,-53,-133,107,143,163,205,153,82
-191,-243,22,-174,138,162,162,180,113,29
-75,-322,-79,43,108,95,97,130,86,7
-106,-435,-162,335,55,20,9,55,22,-35
-12,-89,-67,167,-11,16,6,36,1,-33
-17,115,33,37,-183,-77,-115,-111,-136,-139
-42,413,35,5,-266,-127,-190,-179,-217,-171
-91,208,-143,-77,-119,-81,-134,-113,-151,-126
-141,-409,-271,-110,118,-37,-85,-65,-99,-94
8,-43,-203,0,78,30,35,86,52,59
37,-156,-163,59,67,116,150,210,165,143
0,-257,42,92,97,112,146,188,145,119
-12,-124,336,94,87,73,92,120,90,81
-42,-69,257,33,57,45,47,71,28,37
-13,7,145,-30,1,-28,-18,-1,-51,-18
21,289,118,-76,-76,-115,-112,-103,-137,-92
-60,-20,44,-175,-334,-215,-234,-226,-257,-195
4,505,110,-339,-623,-238,-240,-236,-260,-169
224,1535,126,-585,-179,-139,-152,-165,-178,-68
431,938,-131,-278,545,-22,-55,-63,-42,100
449,136,-202,539,63,-128,-86,-55,-5,153
279,-432,-162,455,-19,26,80,113,151,281
112,-799,-150,-41,22,194,205,225,252,340
-51,-623,-78,-267,-33,196,165,165,171,205
-8,-571,21,-535,172,298,256,238,175,161
-8,-383,-12,-495,473,252,194,180,107,56
-182,-205,16,375,292,-77,-98,-113,-118,-169
-342,-145,134,644,-15,-63,-38,-64,-90,-151
-481,-180,120,413,272,164,150,102,19,-61
-285,49,185,355,264,93,75,15,-38,-90
-77,168,199,47,220,107,90,19,-3,-15
-52,159,26,-294,472,225,164,74,58,51
-98,8,-3,-296,147,30,23,-23,-17,4
-113,-312,187,16,-448,-210,-120,-88,-74,-67
-19,32,253,268,-305,-190,-116,-85,-81,-108
31,575,187,313,-261,-118,-81,-54,-62,-94
-16,421,67,122,-304,-138,-123,-107,-130,-155
-17,50,87,-68,-223,-149,-162,-165,-163,-151
-21,-123,109,-251,-97,-46,-75,-98,-89,-56
15,487,38,-305,36,75,32,-16,-23,-19
173,453,-98,-20,166,111,75,25,42,36
53,152,-174,393,74,-41,-82,-133,-104,-100
0,21,15,334,-9,11,4,-74,-84,-86
196,-333,71,46,-12,125,179,109,106,122
146,-325,53,108,122,184,210,155,167,184
-49,-84,-81,24,147,161,146,108,119,108
-110,-476,-269,-155,-79,52,84,53,70,45
-21,-318,-177,-92,-173,-22,81,76,114,82
85,328,-39,-152,-88,-137,-35,-18,32,30
77,529,-13,-273,-33,-145,-104,-110,-72,-39
-52,168,4,175,13,-85,-100,-127,-131,-108
-172,-271,13,467,85,-86,-114,-134,-125,-129
-128,-54,7,327,54,-8,-24,-28,-11,-9
75,-59,100,275,-43,87,91,122,161,157
121,-356,69,168,-40,92,79,121,157,159
135,-14,72,-103,15,116,64,108,126,150
134,270,54,-223,-15,80,16,62,67,94
71,147,-4,-141,-36,16,-29,-4,1,16
-4,-89,-149,-122,-69,-64,-77,-75,-59,-17
-33,-318,-248,-86,-18,-11,4,-16,-10,32
20,-211,-39,-56,18,44,88,60,78,101
24,-21,91,-104,-42,-64,-42,-65,-23,48
-4,107,43,-79,-130,-193,-171,-192,-146,-37
80,540,71,59,-57,-117,-81,-100,-43,36
167,239,133,103,25,-9,12,13,65,115
125,-402,59,22,22,30,48,69,92,94
-10,-329,20,-37,-65,-10,33,19,12,-37
-180,-480,-13,3,-64,-81,-47,-70,-93,-190
-174,-345,-45,56,-47,-72,-64,-87,-128,-232
46,238,-18,97,-54,28,50,16,-24,-77
105,154,-39,14,-61,139,163,159,106,63
-21,-129,-106,-144,-5,153,111,126,92,16
-109,-2,-73,-135,-162,18,-41,-18,-43,-96
-78,250,-13,-90,-180,-104,-116,-110,-125,-130
-75,492,-41,0,379,-99,-146,-179,-196,-179
29,504,-19,37,389,-48,-94,-113,-134,-91
215,357,210,54,28,-53,-31,-33,-39,24
271,691,376,99,-51,-119,-122,-115,-137,-29
258,1209,246,-65,-79,-218,-237,-220,-233,-89
260,796,47,46,-228,-212,-206,-179,-161,20
-252,-835,-135,129,-235,-124,-95,-55,-36,34
-590,-2232,-358,-267,-288,34,117,188,206,175
-338,-1365,-381,-353,-226,78,156,206,219,198
193,381,-269,-180,182,215,226,252,257,260
-17,181,-116,69,515,331,318,316,297,208
-253,-192,158,222,243,180,223,216,166,3
224,-222,166,95,8,48,106,90,37,-64
361,-26,53,14,-6,13,37,12,-31,-94
223,54,-97,-20,-4,-21,-22,-38,-64,-94
71,217,24,-38,-44,-64,-82,-119,-126,-133
0,338,163,-31,-49,-68,-103,-150,-146,-136
-112,226,86,-13,-22,-38,-67,-108,-95,-111
-142,-80,-74,22,71,109,113,72,100,34
-38,-24,-144,1,67,152,154,143,169,100
-28,-146,-129,-56,-22,38,29,21,42,7
31,-196,-99,-43,-6,36,29,27,41,46
69,23,-86,-75,-41,-10,-12,-7,5,46
89,221,-47,-163,-44,-42,-55,-64,-33,-9
45,506,-29,-198,44,-36,-106,-129,-116,-90
91,448,-76,-29,165,3,-96,-117,-74,-43
190,-339,-191,77,-6,58,10,36,128,140
-17,-215,-62,-54,-86,69,40,73,156,154
-117,599,62,0,136,33,-40,-5,48,83
313,321,88,61,-87,-24,-31,32,79,171
492,-210,-66,6,-141,-72,-69,-35,35,139
250,-318,-52,-165,-117,-117,-142,-122,-58,32
151,-224,40,-414,-87,-79,-76,-47,10,90
-21,-162,13,-306,-51,-63,-47,-28,20,65
-245,-395,9,396,117,41,49,44,86,82
-382,-411,75,596,146,89,51,41,68,51
-222,-276,113,204,5,62,21,20,46,50
27,-40,113,109,-20,37,-6,-9,-1,-22
75,194,64,44,-45,-17,-57,-63,-65,-129
-18,396,-39,-70,-118,-90,-114,-128,-131,-183
-57,443,42,-49,-96,-85,-66,-109,-108,-144
-173,-1,139,40,14,22,22,-16,-30,-89
-262,-380,132,128,131,159,121,81,49,-75
-235,-193,108,90,100,120,64,16,-34,-187
-286,-115,36,-17,12,28,-44,-79,-149,-323
-151,-374,-32,-201,-67,-61,-110,-160,-189,-290
33,-89,-8,-404,-49,-24,-39,-104,-87,-122
76,269,150,-406,23,61,53,-1,3,-19
-51,-1,104,-252,202,110,67,19,13,-27
-384,-191,-75,182,459,131,26,-2,-19,-115
-285,-250,-40,588,506,188,66,56,45,-44
-93,-159,72,491,448,136,-24,-22,-44,-105
122,123,114,108,-12,43,5,21,7,-56
193,525,193,15,-502,-74,-12,41,42,16
128,571,156,-114,-440,-169,-150,-86,-83,-70
-7,330,64,-353,-324,-194,-202,-162,-170,-159
-113,470,152,-494,-305,-181,-170,-136,-161,-166
30,546,145,-289,-182,-222,-228,-171,-163,-109
202,467,-70,8,62,-65,-107,-59,-40,11
232,-216,-331,-68,215,247,208,256,245,223
155,-635,-419,-162,-17,172,166,242,222,217
21,-370,-288,162,-130,-50,-80,-17,-42,-23
-87,-101,-71,355,115,-82,-166,-149,-159,-161
-63,34,104,103,-13,24,0,36,29,-5
25,211,-14,-199,-244,65,90,146,159,132
-56,255,-130,23,-161,5,-20,4,8,14
-29,-47,-50,212,140,57,-9,-15,-20,-10
-77,-266,9,202,170,-23,-73,-79,-86,-86
49,-352,-138,76,-286,-160,-139,-87,-85,-43
165,-361,-39,-149,-417,-93,-66,-30,-18,22
171,-96,147,10,139,47,35,41,72,81
146,316,45,194,581,194,169,181,217,206
145,242,-177,-3,440,274,281,318,336,332
87,-274,-135,69,182,137,200,270,284,311
-77,-220,99,149,-206,-90,0,40,69,87
-145,-89,60,-20,-138,-116,-38,-46,-16,6
-168,-387,8,-135,-56,-38,50,18,33,66
-124,-275,55,11,-48,-19,40,19,36,87
-121,-106,93,234,-30,-90,-59,-62,-50,23
-91,-127,53,174,-18,-32,-24,-13,-13,39
51,-236,-55,14,87,141,145,184,151,149
281,-71,-33,-52,34,141,142,194,163,131
333,134,91,-10,-48,35,34,70,59,54
157,96,93,50,-21,-30,-19,19,5,14
51,-56,51,43,3,-24,-7,38,23,34
-36,-149,25,15,-1,-28,7,47,19,11
-69,337,114,-51,-74,-123,-65,-80,-124,-136
66,814,174,-176,-182,-261,-211,-268,-295,-278
135,787,146,-231,-168,-254,-263,-332,-335,-283
-21,329,88,-235,-24,-152,-211,-273,-300,-242
-101,-252,-22,-252,220,49,-5,-67,-114,-99
23,-535,-188,-230,228,226,228,210,187,137
100,-747,-230,-91,68,180,247,233,236,188
290,-61,-168,179,114,-12,12,0,35,63
351,800,73,347,-66,-39,9,28,76,152
248,869,175,220,-139,-4,59,83,105,183
178,-329,59,149,-136,-42,20,36,60,109
66,-522,17,115,-46,-23,32,17,47,97
-88,-53,38,43,-46,-88,-50,-79,-46,33
-270,-230,-11,8,-38,-57,-68,-90,-63,-56
-343,-184,-42,18,-7,-17,-32,-40,-28,-82
-261,149,-37,-40,68,18,13,19,22,-20
-159,90,-36,33,66,9,-27,-18,-26,-45
-39,138,46,399,60,19,-11,-9,-14,-66
-24,32,77,128,158,57,24,27,14,-57
-136,-74,29,-231,176,108,98,106,69,-54
-44,89,22,-209,48,64,116,117,89,-8
181,316,1,-7,-90,-26,38,44,24,-2
203,310,-27,38,-69,-62,-16,-25,-27,-58
213,166,26,-206,-99,-133,-115,-141,-124,-118
61,-75,71,-361,-83,-128,-166,-188,-221,-191
-126,-236,39,-180,-5,-66,-108,-142,-190,-177
-64,-209,-101,202,61,-10,-21,-33,-31,-29
-186,-392,-98,300,154,183,187,206,184,80
-255,-246,-46,168,101,200,209,221,170,53
-52,-100,-42,33,2,72,58,75,48,-18
-11,-162,-43,-5,-4,42,11,27,2,-30
3,63,-23,-3,2,27,-10,-5,-27,-30
-100,273,56,14,-1,-2,-52,-53,-92,-78
-168,48,46,-54,-36,-44,-99,-108,-165,-151
-61,596,100,-87,-3,-61,-106,-123,-158,-119
-83,974,80,-129,152,-3,-70,-106,-125,-99
-192,14,-34,-113,224,43,-27,-70,-73,-71
-76,-545,10,0,-17,75,99,75,87,72
73,-532,-121,30,84,104,154,118,148,150
29,66,-13,134,146,-102,-91,-131,-91,-43
132,931,267,40,-395,-296,-197,-196,-145,-60
239,962,155,-20,-361,-214,-114,-89,-32,58
205,-80,-231,5,-63,31,87,129,170,209
113,-661,-333,46,95,182,225,264,275,264
-36,-452,-97,-8,0,35,59,83,95,85
-102,-16,71,-25,-53,-60,-44,-13,0,-25
-90,366,80,1,-43,-44,-28,12,13,-3
-35,102,20,8,-28,-21,-4,29,24,35
-59,-556,-48,-14,-62,-40,-16,5,2,19
-84,-526,-64,-30,-166,-21,0,25,27,39
-70,-370,-47,-21,-116,42,63,97,62,75
-17,-356,-13,13,164,114,90,102,85,90
15,-232,25,10,-97,83,68,47,61,84
42,-11,-69,-83,-233,111,126,98,104,124
-24,187,-143,-49,533,83,13,-31,-15,-18
-34,230,-68,-56,398,-149,-156,-188,-163,-150
114,365,62,-137,-77,-185,-98,-112,-93,-77
121,402,131,-155,-106,-141,-112,-118,-102,-76
-75,171,161,-64,3,-123,-139,-170,-163,-145
-116,90,193,355,49,-69,-81,-140,-145,-129
-24,202,74,330,41,43,39,-1,19,21
39,395,-191,-201,-13,50,23,17,47,57
69,-43,-320,-576,110,40,-52,-77,-48,-14
-23,-412,-238,-340,313,118,-15,-53,-46,-48
-2,-521,-208,190,281,195,116,109,105,65
141,-532,-114,246,67,226,240,279,291,237
127,-186,-31,175,-184,55,170,226,258,212
27,-1,31,116,-257,-55,58,95,116,81
-32,36,26,85,-123,-46,2,8,2,-2
-1,-57,-47,74,-36,0,40,32,27,26
-70,-98,120,70,-22,-6,43,29,34,20
-90,-154,164,-2,-97,-97,-73,-73,-71,-50
-68,-245,93,-53,-162,-160,-150,-146,-131,-92
-28,120,-26,-36,-100,-65,-41,-25,-26,-14
113,461,-30,35,23,73,100,118,116,104
148,354,92,48,32,70,84,72,90,96
114,288,134,16,-28,-41,-16,-71,-62,-9
20,121,161,-60,-138,-194,-181,-248,-241,-149
-122,211,221,-181,-221,-297,-292,-369,-358,-275
-265,692,168,-273,-211,-291,-277,-318,-313,-306
-179,410,-51,-177,-36,-87,-99,-76,-71,-131
202,-225,-270,14,154,221,223,253,278,225
301,-643,-229,161,159,188,202,225,245,223
251,-281,-46,192,-6,-9,-5,7,37,74
6,212,-150,-161,-244,-117,-122,-135,-122,-53
-272,223,-234,-241,12,-22,-51,-85,-80,-59
-153,197,-53,-74,-25,68,101,100,116,128
76,-477,179,-86,-25,149,215,228,222,265
154,-774,82,18,89,221,269,309,294,306
-152,-490,41,305,93,149,170,203,196,155
-262,-500,109,233,184,46,-4,-19,-76,-139
-40,-145,37,166,166,8,-63,-124,-192,-238
-96,320,26,386,-4,1,-65,-130,-186,-234
-225,272,38,-37,55,122,19,-42,-88,-156
-88,625,169,-375,237,47,-68,-105,-111,-126
164,800,290,-50,-154,-210,-208,-176,-142,-105
335,-88,8,121,-295,-122,-37,21,38,45
416,-831,-178,128,19,159,233,260,255,190
145,-656,-77,134,125,165,231,221,194,92
-188,-256,-30,81,60,62,124,108,60,-16
-250,-40,-75,17,28,37,94,65,30,-38
-136,239,-11,-3,-2,-11,26,-7,-29,-93
-93,451,107,-89,-86,-126,-102,-140,-143,-156
-163,379,125,-287,-134,-213,-185,-219,-194,-185
-236,87,-29,-494,-206,-198,-142,-165,-137,-122
-192,-326,-150,-451,-87,107,227,208,246,189
-165,-467,-116,187,260,404,450,408,432,290
-110,-221,-25,226,459,295,206,126,122,42
117,116,-16,-338,-25,3,-57,-119,-103,-86
126,420,-44,-196,-197,-79,-168,-212,-199,-162
75,524,-19,246,-43,-42,-134,-171,-163,-131
24,133,18,262,61,-23,-78,-113,-89,-79
-70,-507,42,137,378,55,2,-5,14,-38
-54,-409,199,222,-44,-23,13,47,98,30
41,-80,217,183,-234,-90,-26,23,84,63
79,-183,53,-9,-24,-48,-38,8,49,59
19,0,-144,4,67,-77,-90,-62,-35,-24
42,64,-257,-9,18,-81,-103,-74,-66,-46
27,-65,-172,-87,21,-22,-57,-53,-61,-54
27,280,-49,-78,126,1,-42,-58,-62,-67
148,769,71,-22,-110,-1,21,43,54,54
221,730,122,-29,-171,-23,-1,23,42,102
6,363,98,-40,-99,-191,-213,-204,-196,-106
-252,-198,-46,32,-149,-347,-380,-396,-371,-302
-278,-514,-214,-35,-199,-232,-238,-255,-255,-218
11,21,-78,-321,-17,104,119,121,107,125
248,384,31,-528,167,298,316,346,337,329
263,570,126,-241,64,150,167,215,222,172
66,-382,-69,301,27,24,0,51,49,-18
65,-476,-61,392,15,23,4,36,27,12
166,11,80,126,-58,15,17,64,49,74
55,284,61,-3,-5,61,40,97,72,85
-61,321,54,64,100,96,73,108,87,70
-62,-289,-5,168,93,88,82,108,104,74
86,-605,-64,183,62,107,132,162,174,169
139,-458,-59,93,29,74,104,139,148,178
31,-221,21,48,-20,0,-5,25,10,55
19,153,112,15,-93,-133,-184,-166,-184,-120
115,246,27,-49,-101,-137,-190,-167,-141,-87
87,78,-14,-157,-1,-2,-55,-30,11,9
34,-261,-109,-320,116,146,101,116,138,65
80,-401,-145,-287,174,171,120,120,139,88
35,-184,-107,119,142,-10,-59,-94,-64,-56
-73,-139,17,335,148,-66,-97,-171,-119,-102
-98,-109,168,150,218,20,2,-75,-33,-31
-58,193,112,-95,267,111,87,0,13,30
-23,123,53,-4,170,45,22,-47,-32,-13
33,-13,172,119,-224,-57,-15,-63,-57,-32
82,278,253,340,-255,-120,-80,-110,-111,-67
46,265,57,312,-91,-163,-125,-143,-144,-102
7,129,-349,-222,-325,-157,-51,-35,-31,-44
-176,-64,-387,-211,-228,-65,11,56,45,-32
-203,79,-140,-63,-120,-80,-57,-33,-46,-92
-165,123,-89,-64,-118,-131,-131,-119,-128,-147
-244,-240,4,26,-62,14,11,20,22,-52
-169,-467,71,143,42,205,221,231,234,137
100,-279,28,78,177,184,175,174,189,155
231,-26,53,50,230,32,-13,-16,11,0
174,163,146,35,-25,-105,-100,-100,-90,-91
189,394,67,-64,-149,-183,-155,-136,-116,-22
97,170,54,-50,-177,-38,-68,-34,18,127
10,64,48,-93,-148,58,37,44,70,108
13,115,-37,-103,160,131,110,108,103,78
180,451,-67,-162,218,0,20,5,18,31
248,281,88,-87,-49,-170,-93,-118,-100,-52
113,-251,50,87,-14,-163,-110,-140,-120,-92
-41,-644,-43,252,29,-100,-80,-108,-93,-60
-127,-751,-1,222,-169,-103,-59,-69,-82,-73
-204,-114,-41,21,-141,-46,0,-7,-54,-82
-212,259,-129,-288,-44,119,109,115,72,41
-123,755,-4,-210,5,243,194,213,173,142
-85,486,-14,-210,207,191,113,120,90,110
-165,-511,-110,-296,334,98,20,29,15,10
-43,-409,-29,-61,105,10,-9,21,-13,-43
104,7,38,275,38,-57,-92,-65,-94,-94
235,-123,30,270,66,48,1,21,-13,-10
148,0,93,135,-12,32,2,16,-24,-36
-130,90,148,65,-29,-7,-45,-21,-70,-97
-203,338,188,56,-26,-31,-81,-48,-94,-102
-176,578,196,56,-28,-25,-125,-60,-83,-55
-270,340,28,-12,-74,-45,-175,-87,-92,-42
-432,126,-170,-79,-104,-49,-119,-73,-74,-52
-367,-140,-169,-36,-28,31,70,49,24,16
0,-178,-101,3,56,90,219,101,97,99
388,-428,-42,29,149,156,347,192,171,186
439,-388,-20,-63,105,152,307,187,151,170
166,46,73,-266,15,28,136,36,-12,-19
-26,141,137,-231,-15,-46,-42,-78,-157,-154
6,85,-54,42,-209,-117,-214,-162,-222,-180
99,54,-290,303,-108,-78,-235,-119,-142,-102
68,68,-229,289,315,25,-142,-18,-17,-21
85,-57,53,20,119,72,-14,76,78,69
72,-108,141,-97,-60,92,110,160,168,113
40,-64,-39,41,22,23,62,113,128,64
-12,-255,-134,74,46,2,45,97,114,51
-71,-129,-52,23,-9,-25,-23,5,23,-4
1,127,125,1,-85,-100,-114,-101,-69,-50
72,238,250,2,-85,-111,-126,-105,-80,-47
1,115,266,9,-38,-57,-78,-51,-38,-36
-22,66,172,-63,-52,-73,-95,-97,-83,-50
47,452,53,-209,-126,-156,-201,-194,-172,-108
79,779,142,-157,-94,-129,-135,-122,-100,-55
-62,272,257,147,16,-29,2,-24,-2,-8
-137,-761,35,189,40,5,53,10,13,-7
-99,-1106,-305,75,81,136,202,173,165,149
-72,-409,-290,-11,49,135,233,197,213,193
-5,-2,-139,-6,54,88,162,104,132,138
20,-20,-37,56,140,79,127,48,73,86
64,-61,-69,29,65,56,137,74,83,113
82,-84,-109,-64,112,99,167,113,113,131
62,-92,-98,-195,107,90,106,80,51,86
10,59,-51,-226,-203,-4,48,44,22,77
77,298,17,-51,-187,-62,-32,-50,-36,17
116,296,66,153,-87,-119,-159,-180,-159,-100
5,74,83,195,-68,-75,-131,-121,-97,-60
-62,166,131,87,-74,-65,-79,-77,-47,-35
-119,282,96,43,-48,-52,-25,-67,-37,-69
-129,144,28,57,-10,16,31,2,20,-45
-104,6,-40,-40,-62,-30,-41,-22,-5,-35
-116,-81,-218,-243,-69,-77,-78,-42,-8,-25
-239,-174,-66,8,0,-31,-54,-18,-6,-44
-223,-212,171,469,66,45,13,54,44,8
-67,-222,120,100,89,111,96,131,122,112
38,-151,-45,-140,23,127,131,154,124,101
52,135,7,-124,-36,38,46,15,-10,-58
98,425,72,-216,-57,-22,-60,-99,-130,-124
69,96,6,-256,30,-7,-54,-69,-121,-97
36,-59,-54,-122,180,40,-3,1,-29,-58
46,276,-7,5,199,181,70,66,45,5
40,51,-30,-123,124,291,109,78,51,43
43,-227,-60,-75,59,220,89,69,49,89
18,-225,-65,124,114,-15,-54,-38,-38,53
98,104,62,83,-245,-291,-206,-157,-111,56
143,248,164,-46,-374,-325,-196,-160,-103,56
-40,146,129,29,-187,-195,-128,-117,-124,-50
-60,66,11,276,28,-96,-88,-107,-139,-98
22,119,-123,-245,129,-62,-110,-164,-186,-106
-84,-220,-143,-1078,-113,-59,-76,-137,-166,-129
2,92,-9,-888,-305,-58,-29,-102,-124,-97
-114,618,2,227,368,-112,-198,-288,-329,-290
-93,386,-40,339,624,42,-98,-193,-240,-213
-82,401,-20,147,243,192,128,74,49,39
-236,-361,9,274,-200,66,97,127,122,81
-260,-614,49,580,-667,-296,-192,-114,-80,-98
32,-62,35,421,-649,-195,-79,22,75,94
205,-338,38,423,166,67,95,176,231,263
144,-510,133,352,225,41,28,66,121,100
161,242,91,67,-121,-84,-24,25,83,53
4,401,-188,-189,-195,-62,15,114,155,102
-264,236,-316,-239,-141,-93,-17,50,48,-56
-143,279,-36,-67,-64,-94,-60,-29,-54,-140
150,347,200,159,119,99,99,144,132,111
291,-612,46,205,221,242,253,311,327,321
195,-976,-83,134,168,197,216,255,269,274
-167,-628,-47,99,133,166,170,189,180,89
-203,-260,16,-2,146,136,113,96,53,-106
-87,9,73,-272,129,63,-7,-53,-112,-251
-154,8,66,-459,-15,40,-14,-90,-157,-284
-142,115,24,-111,-256,-49,-67,-156,-204,-270
-69,349,11,580,-129,-75,-111,-179,-199,-206
-28,749,-22,269,344,-23,-94,-156,-139,-146
24,657,24,-46,257,43,30,0,53,40
57,-160,48,-18,-258,22,105,145,221,226
-45,-571,41,64,-171,-17,5,58,120,155
-112,-239,-33,154,36,26,1,23,83,105
8,40,-108,11,93,73,64,76,148,154
237,35,-103,-329,92,76,88,108,165,178
297,-155,-105,-82,25,54,56,79,91,106
143,-140,-29,362,133,1,-38,-63,-72,-83
-156,-46,32,102,56,-135,-241,-307,-326,-346
-211,3,87,36,-245,-105,-174,-222,-250,-280
-147,97,72,-62,-79,44,37,44,13,-44
-75,197,24,-167,53,79,103,139,130,48
250,174,-65,-298,-103,15,54,96,120,116
288,-93,-84,-395,-72,18,46,56,89,101
80,-246,70,-368,58,27,24,-1,28,13
-216,-101,186,-116,-53,-163,-161,-186,-143,-165
-365,-22,-61,198,-87,-204,-176,-202,-173,-240
-155,-164,-230,320,-65,-75,-52,-65,-58,-118
95,38,-99,179,-59,4,43,57,72,40
200,57,74,81,-71,46,97,90,119,128
140,-47,68,-7,-179,-30,-11,-31,15,60
112,236,-63,-71,-28,-20,-43,-52,-14,32
126,212,-94,34,273,72,41,56,49,84
52,22,-25,59,88,8,37,42,55,46
20,-101,-24,-22,77,42,66,80,97,57
24,-265,-15,-134,273,166,133,118,113,97
34,-213,38,-150,193,137,132,65,58,65
61,-269,-11,178,163,151,152,79,71,69
-45,-167,17,287,275,77,25,-43,-64,-38
-133,334,130,49,-190,-151,-120,-156,-172,-125
-12,724,148,-82,-297,-227,-165,-177,-182,-122
58,865,167,-11,-127,-166,-153,-166,-189,-101
83,-129,41,86,30,32,25,53,27,67
87,-563,-131,117,139,194,188,254,229,237
-17,-313,7,61,73,103,92,142,126,148
-49,-91,100,22,1,-25,-25,6,-6,31
-39,175,40,19,15,-16,-1,18,7,18
-80,-291,-93,-35,10,5,36,72,45,-1
52,-336,-143,-23,34,64,98,134,100,58
125,47,-70,-9,1,21,37,69,25,47
-34,-80,-77,-91,-92,-100,-82,-51,-83,-35
-126,-272,-141,-207,-192,-191,-189,-163,-174,-109
-16,253,30,-200,-357,-177,-196,-181,-187,-90
112,703,240,-140,-499,-47,-53,-41,-40,24
84,201,343,40,188,173,126,120,92,127
-53,-104,196,220,638,94,34,30,12,22
-56,111,3,138,74,-112,-107,-77,-72,-42
82,698,-28,-44,-114,-185,-171,-150,-138,-66
196,827,-43,-49,-18,-37,0,-4,1,24
52,-45,-76,4,51,115,197,167,167,106
-282,-819,-83,41,67,108,180,129,131,21
-369,-1038,-192,66,108,100,168,104,130,30
-72,-738,-313,84,152,142,213,158,174,162
17,-435,-213,181,187,78,108,62,51,69
6,-66,-79,99,156,-10,-37,-65,-91,-69
103,176,67,154,78,5,-26,-49,-66,-17
157,306,117,38,314,110,41,-12,-22,17
203,367,22,-683,475,239,147,57,53,92
264,227,-4,-914,420,321,192,87,84,171
-104,-319,43,-758,336,41,-88,-186,-195,-137
-302,-23,203,-376,-544,-433,-363,-357,-333,-334
-244,946,281,141,-942,-527,-390,-318,-294,-306
-126,619,90,677,-337,-251,-246,-212,-221,-227
-43,318,-137,457,-42,10,-20,1,-47,-96
47,-291,-168,329,12,196,218,242,188,96
102,-692,-43,313,34,220,280,292,248,163
103,-302,6,141,-36,114,127,154,113,70
139,-38,53,60,-56,28,22,67,40,14
109,44,113,73,-50,-11,-18,6,-7,-12
-41,185,75,52,-113,-104,-129,-117,-130,-115
-132,357,16,0,-203,-218,-263,-234,-242,-198
-159,423,49,-58,-244,-260,-265,-246,-250,-198
-360,-14,-15,-11,-90,-105,-64,-73,-88,-123
-255,-259,-101,-1,-7,11,47,42,36,-11
89,-219,-96,-20,-7,30,72,95,110,127
23,762,121,-19,-54,-56,-88,-12,9,54
2,338,98,-102,-130,-134,-166,-108,-100,-67
27,-4,86,43,-80,-104,-159,-111,-121,-96
24,-339,44,115,34,-10,-65,-38,-51,-37
72,-1027,-150,-77,114,62,48,77,52,47
108,-561,-100,-123,65,22,0,4,-35,-64
332,398,123,321,-54,87,32,24,-14,-19
342,612,136,272,-91,218,172,159,106,101
-20,381,-59,-332,63,245,213,163,98,28
-133,-162,-270,-410,267,222,237,176,131,53
-204,-196,-205,-215,259,32,42,17,-14,-83
-216,620,34,-80,75,-81,-63,-29,-56,-110
-32,764,161,-26,44,30,66,106,83,83
-38,-489,63,210,239,73,50,46,47,52
-80,-687,-29,278,189,-24,-35,-57,-69,-42
85,-381,-81,-111,-105,-13,31,25,32,81
126,-112,84,-290,-125,67,102,93,100,152
24,111,150,-126,-116,-9,-33,-68,-79,-24
-39,62,-227,-44,-33,-15,-54,-66,-91,-73
103,151,-427,-358,-416,100,190,205,191,195
248,554,-264,-442,-121,141,206,264,270,311
28,344,-201,236,397,7,-17,24,40,76
-118,-589,-123,541,184,-23,-16,-9,-12,0
-75,-917,56,297,-60,18,38,75,54,60
28,-503,160,148,-102,12,39,70,39,74
35,-203,139,72,-76,-33,7,22,0,31
-19,-86,125,67,-47,-34,15,28,31,1
2,-11,110,54,-55,-28,8,33,35,6
44,-1,81,21,-154,-66,-50,-7,5,15
56,-19,52,-26,-238,-75,-54,-8,4,35
68,-14,16,-32,-67,-31,-25,3,7,41
52,-14,18,15,208,2,-19,0,0,21
26,-7,42,44,52,-50,-10,-6,-3,-9
-32,-24,40,59,0,-50,16,-3,-8,-31
-114,-97,10,44,57,-44,-31,-45,-68,-95
-156,-188,12,47,32,-70,-90,-91,-117,-127
-81,-93,83,174,-109,-103,-100,-82,-82,-45
37,309,75,-128,-114,-68,-45,-53,-14,47
57,321,66,-242,62,-6,-12,-62,1,93
-62,-13,21,-71,86,-2,-10,-36,31,86
-147,-188,-85,37,40,37,90,93,158,137
-313,-288,-126,256,63,7,89,76,133,46
-159,-245,15,228,-62,-135,-64,-104,-61,-109
158,-40,188,59,-223,-231,-180,-218,-179,-122
274,559,188,-112,-138,-184,-154,-207,-186,-96
309,1000,53,-228,-49,-75,-64,-137,-145,-88
149,425,-68,-159,-55,-83,-69,-130,-168,-141
177,260,12,-52,-26,-79,-69,-124,-160,-106
83,-82,-10,-30,98,59,42,-2,-22,-30
56,-578,-30,-79,256,263,267,229,222,144
38,-280,-84,-238,157,202,252,238,221,141
22,812,-93,-224,37,3,39,7,-2,-45
-16,1296,95,-88,-141,-244,-255,-326,-297,-327
54,1957,377,-84,-364,-364,-351,-428,-386,-392
-55,1039,302,-62,-340,-414,-417,-439,-406,-393
-257,-1452,-95,108,-40,-234,-216,-181,-141,-171
-265,-1723,-416,201,335,118,150,199,226,128
68,-456,-317,86,376,318,356,379,381,315
338,0,39,42,217,353,410,402,403,389
162,-378,165,-22,-103,178,221,239,268,260
-34,-681,17,-219,-185,125,146,175,187,159
-114,-625,-176,-301,85,177,151,141,149,127
-151,-482,-241,16,319,222,160,137,165,172
-119,-230,-105,-343,223,266,266,255,304,290
-150,-144,-59,-815,385,272,265,239,296,241
-190,-254,-109,30,234,-34,-35,-37,37,-16
-86,-145,-2,1196,-95,-277,-282,-288,-233,-239
220,210,198,657,-73,-91,-147,-188,-160,-106
110,269,111,68,64,52,5,-11,-9,20
5,-19,27,74,-126,13,72,95,67,30
-87,-175,56,128,-263,-29,73,99,52,-70
-40,14,26,57,-162,-59,-14,-5,-56,-150
94,160,-101,17,-89,-49,-48,-44,-76,-112
146,133,-89,5,-49,-24,-29,-24,-27,-37
52,12,-4,3,-11,15,13,21,3,-45
-7,-4,41,9,-21,9,8,32,30,-19
-15,15,47,-14,-75,-73,-65,-59,-33,-53
-70,0,-26,-17,-104,-149,-144,-165,-136,-142
-118,274,41,21,-75,-139,-116,-148,-97,-111
-167,146,55,104,55,18,24,-2,21,15
-81,-81,-43,62,68,27,9,-11,15,35
69,250,-70,-35,25,-52,-83,-94,-65,18
127,323,-44,-119,71,-47,-81,-115,-78,30
131,167,10,-268,1,85,13,-18,11,73
128,23,60,-574,-105,270,188,162,158,173
61,-90,-51,-528,163,233,140,130,140,132
-145,-189,-85,148,258,-159,-214,-217,-165,-190
-164,-101,-7,529,-165,-380,-393,-393,-342,-350
-26,-136,114,258,-440,-220,-188,-157,-138,-155
5,-399,140,-1,-338,-48,-12,41,48,-3
56,435,-3,-5,102,42,38,114,145,77
55,520,-17,107,204,71,53,126,141,94
9,49,80,114,119,112,108,176,157,116
-37,264,98,-73,42,1,1,60,55,14
-57,53,-25,-292,-35,-181,-213,-166,-146,-157
-64,536,-46,-162,-69,-225,-280,-228,-205,-168
-75,916,116,239,-9,-112,-162,-110,-86,-47
-179,-649,-61,245,68,-2,-79,-49,-35,-8
-236,-1091,-171,-20,165,146,86,84,90,71
37,185,-94,-119,66,105,126,102,137,155
371,626,-97,-124,-261,-9,77,85,155,222
458,-193,-210,10,-111,61,124,142,220,265
347,-808,-227,110,42,128,148,170,225,258
-67,-863,-87,96,-12,94,98,109,117,98
-284,-374,18,34,9,100,105,71,29,-41
-50,268,111,-59,8,17,-20,-66,-119,-176
-66,511,226,-83,0,-35,-102,-154,-205,-229
-208,245,278,-52,-26,-84,-177,-214,-252,-252
-88,483,167,69,-82,-145,-223,-209,-233,-187
52,681,30,58,-128,-145,-178,-124,-123,-84
29,305,-42,-37,-60,-20,-31,18,13,30
48,-397,-41,-1,151,238,233,275,260,224
24,-523,-200,10,111,211,207,212,193,176
-25,-448,-196,156,39,86,41,35,-3,25
40,-230,-161,159,130,67,0,-8,-42,28
-7,-179,-143,95,500,125,47,44,39,92
-217,-271,23,-118,-36,-15,7,48,64,90
-66,-52,89,-346,-414,-141,-70,0,20,99
-32,-296,-1,-315,-214,-97,-91,-49,-15,77
-304,-713,-26,-59,65,59,-7,-47,-27,3
-198,-33,65,-55,122,90,-50,-164,-159,-111
75,761,43,-516,-63,72,-13,-127,-116,-54
106,553,-118,-672,-29,179,144,83,73,86
-55,47,-26,571,359,51,40,40,36,36
179,-108,162,917,71,-119,-6,50,60,97
393,-72,134,123,-255,-79,51,80,73,99
411,26,-45,-123,-91,73,126,105,77,53
292,44,-143,-91,151,252,250,203,155,60
184,23,-149,-120,184,297,301,285,250,101
-5,-48,-145,-102,42,130,161,156,144,-3
-283,-163,107,262,-8,-82,-102,-111,-131,-220
-329,-142,299,401,-74,-176,-214,-234,-236,-252
-208,-63,258,364,-80,-130,-175,-191,-180,-172
22,-14,188,246,-106,-80,-101,-104,-76,-50
176,77,164,-89,-196,-69,-57,-22,5,35
104,271,136,-500,-75,63,37,57,45,16
-23,315,121,-762,43,98,-12,-56,-77,-94
-176,-212,44,-494,-27,36,-117,-204,-225,-234
-182,-452,-140,-192,126,91,-57,-153,-190,-203
-60,-62,-325,-144,662,201,96,6,-17,-15
55,304,-153,387,32,-34,46,68,84,109
132,381,88,560,-313,-169,-36,56,110,129
144,437,219,383,-261,-177,-83,-10,28,55
201,486,203,47,-237,-193,-107,-67,-23,7
157,491,77,-69,-149,-199,-140,-131,-67,-44
-17,775,26,97,-121,-252,-206,-209,-157,-157
24,664,-37,134,-70,-84,-24,-12,34,21
199,-395,-159,35,41,142,225,269,306,338
-33,-1343,-82,51,33,65,112,141,154,135
-290,-1165,39,-71,-86,-171,-166,-171,-163,-219
-130,544,172,-233,-134,-282,-279,-316,-278,-259
37,1251,221,-30,-88,-175,-154,-191,-153,-114
157,83,64,421,92,66,115,84,113,114
205,74,-104,162,84,89,143,94,140,137
87,402,-31,4,-28,-26,3,-51,-21,6
64,169,55,88,54,0,-6,-20,3,34
55,-389,-36,92,110,87,88,110,122,134
-30,-780,-120,-33,-57,56,92,146,157,122
-127,-651,-84,2,-83,81,108,144,162,105
-205,-360,-7,-106,-27,29,49,35,43,28
-74,66,66,-318,-33,-17,1,-43,-2,18
13,160,57,-299,22,43,76,37,81,82
-88,147,-202,-131,1,-13,9,-19,0,-35
-72,-203,-280,88,31,-13,0,-21,-28,-56
-42,-226,-76,24,12,11,30,26,-2,0
-77,-94,10,77,-27,-17,12,4,-21,11
-176,-260,8,211,17,13,14,15,22,18
-50,-230,11,88,6,41,2,19,7,22
198,-68,-19,8,-18,20,-21,10,0,51
31,-179,-2,4,0,38,18,36,15,38
-215,-335,-13,31,49,105,98,101,61,17
-145,-42,-30,26,48,101,86,84,24,-41
33,194,25,81,86,97,57,49,-19,-41
110,426,44,50,126,42,8,-12,-68,-36
172,589,43,-142,75,4,-12,-17,-58,11
77,98,-37,-209,-14,-12,-6,4,-25,43
-166,-386,-157,-80,-99,-83,-127,-146,-176,-122
-131,-283,-107,-167,-269,-126,-153,-160,-177,-117
104,215,-13,-180,-205,-132,-118,-84,-50,29
76,128,24,49,108,-93,-59,-10,33,100
-78,-282,120,246,159,14,67,123,142,166
207,-104,138,201,151,78,105,147,165,182
489,555,112,38,-49,5,3,1,14,89
372,772,70,-158,5,-52,-65,-77,-65,24
104,272,-38,-72,100,-41,-52,-66,-44,-25
-107,-183,-78,382,-7,-98,-93,-106,-120,-162
-144,-218,-53,57,-213,-233,-203,-235,-257,-330
-109,270,29,-348,-286,-233,-231,-282,-323,-377
-14,1019,138,-99,0,18,28,-47,-99,-158
109,-152,-75,116,287,356,421,366,328,237
2,-1051,-341,56,250,345,426,401,376,269
-40,-396,-260,-186,44,82,138,129,119,88
-72,53,-29,-382,-19,7,-2,6,-9,-22
-130,-270,-22,-347,-10,-15,-35,-17,-54,-61
-116,-559,-13,239,132,79,61,92,38,22
0,-330,119,420,113,147,131,159,101,74
175,-115,-9,-81,-193,43,66,84,73,77
126,-49,-157,0,-66,55,54,43,34,43
3,-141,-16,-11,707,172,96,42,23,38
-1,-92,175,-190,266,20,30,-10,2,49
-151,57,186,31,-317,-184,-104,-108,-87,-36
-208,22,12,170,-134,-102,-84,-62,-65,-22
-93,-5,27,78,-2,58,56,79,69,118
20,-3,105,-31,-137,16,19,40,42,96
39,-152,148,-16,-207,-185,-194,-178,-166,-123
4,170,152,-14,-225,-316,-296,-294,-286,-256
17,881,151,-17,-164,-243,-220,-220,-193,-172
112,639,88,155,63,29,36,45,91,103
191,303,-15,150,30,111,98,107,148,144
172,-2,-131,-16,-294,-27,-35,-18,-4,17
89,-346,-255,-38,-78,25,34,10,-12,27
-33,-87,-88,-17,428,0,-57,-124,-156,-75
-63,225,277,188,322,55,-20,-42,-71,-6
-14,-70,222,109,324,259,231,236,179,138
44,-303,-125,-531,243,347,295,297,222,112
185,88,-208,-708,168,281,164,112,43,-41
53,-30,-117,-344,559,202,49,-12,-73,-130
-258,-356,57,538,-25,-131,-160,-145,-184,-218
-168,-208,198,600,-448,-170,-101,-38,-77,-91
38,-56,221,338,-259,-67,-4,57,39,31
24,-48,166,172,-115,-21,15,78,56,46
-86,88,85,124,-80,-44,-41,24,26,-7
-54,359,-2,73,-93,-95,-121,-76,-42,-30
154,571,34,-17,-78,-30,-45,12,33,128
161,557,41,-202,-180,-59,-50,0,7,122
52,214,-60,-321,-146,-49,-27,3,-1,79
-11,-139,-73,-330,72,99,77,87,94,140
-128,-92,-22,-205,121,35,-29,-26,-21,9
-239,-27,-12,364,51,-140,-211,-217,-230,-201
-161,-321,-74,360,-8,-26,-73,-75,-93,-64
-160,-397,-73,-44,-107,24,35,56,6,-1
241,233,-27,30,-55,45,41,117,100,117
203,-722,-152,89,121,168,150,202,174,120
129,-483,-120,47,164,142,114,109,98,51
125,-81,-187,-42,102,76,76,53,41,52
62,10,-160,-119,-20,40,65,36,28,59
-137,151,-97,-55,-67,13,41,-3,-27,3
-226,258,73,-12,16,32,-8,-85,-111,-106
-141,-19,152,-135,183,77,1,-90,-112,-94
-106,-167,104,-262,179,59,17,-25,-50,-59
-173,-469,-114,-471,146,-38,-48,-21,-41,-69
-8,195,-98,-124,-250,-70,-8,61,66,71
78,585,155,799,-176,-6,57,123,138,154
-108,236,204,451,42,-108,-128,-90,-63,-25
-117,91,165,-80,-139,-195,-202,-173,-137,-94
54,-20,138,7,-269,-137,-75,-25,28,78
94,-25,111,60,-168,-96,-39,-14,69,124
76,-93,33,7,-127,-106,-76,-79,15,89
-43,-244,-56,-28,-83,-63,-68,-66,2,77
-98,280,-117,-6,-33,-8,-38,-49,-6,14
125,213,-66,37,11,36,-4,-36,8,20
183,-284,48,121,83,80,41,-4,16,-39
63,-188,-19,65,76,50,23,-4,-11,-94
-90,-143,-165,-39,38,34,36,26,-8,-127
-187,-299,-236,-77,47,65,76,76,26,-101
-54,-301,-229,-105,-14,-11,-4,-6,0,-90
-39,-174,-81,-83,-68,-88,-94,-100,-71,-134
-46,174,2,-62,-61,-93,-112,-118,-96,-122
-32,387,-2,-13,-8,-45,-81,-73,-90,-87
-112,551,33,55,52,-12,-32,-52,-68,-125
72,194,71,137,222,116,99,62,72,8
88,-273,2,91,276,209,188,121,143,83
53,-164,-36,-310,236,209,178,112,128,77
44,-159,47,-695,-107,84,115,107,144,118
63,74,238,-450,-585,-103,7,32,97,102
10,746,385,325,33,-153,-147,-143,-82,-53
-109,1291,246,433,269,-215,-290,-298,-247,-183
-73,962,11,290,-42,-146,-141,-125,-87,-47
65,128,-119,149,-142,-78,-39,-18,6,48
50,-630,-276,-18,-154,-74,-28,-13,-8,-1
139,-272,-122,-59,-124,-65,-50,-45,-53,-31
232,180,48,-15,-40,3,7,16,9,37
-18,-584,-17,-25,57,81,82,83,67,40
-180,-420,-25,41,88,93,93,84,56,-3
-107,-273,75,151,84,70,60,68,27,-32
23,-271,60,122,46,26,28,59,-4,-50
-5,115,-29,0,-39,-61,-38,-27,-88,-137
-16,128,-162,-28,-2,-40,8,-23,-71,-108
34,-201,-131,-12,122,36,51,9,-41,-50
48,-171,-56,63,209,140,150,110,47,26
21,136,54,90,109,188,215,186,137,96
-41,53,2,14,226,170,164,143,116,70
-103,-472,-41,24,-39,-12,47,36,30,9
-56,-474,-50,-49,-411,-136,-38,-23,-19,25
69,-82,40,-154,-350,-96,-28,-12,4,72
6,71,51,-95,71,8,19,23,9,54
-100,58,43,-37,190,-26,-40,-27,-47,-16
-44,84,31,6,-55,-137,-157,-125,-121,-60
103,-17,-17,193,-188,-229,-251,-197,-180,-70
132,-149,-34,-28,-161,-197,-230,-163,-128,-1
71,-190,74,-160,-115,-49,-68,-11,40,158
110,-15,85,-21,144,152,119,185,225,322
49,-140,-31,-322,376,309,238,280,286,323
-57,-134,-206,-668,224,366,309,304,291,239
-80,-131,-225,-403,-79,195,173,175,162,135
101,-203,-128,189,-188,-17,-28,-30,-14,49
164,-151,-98,406,109,33,-8,-9,-19,1
-42,-82,-34,303,41,38,66,103,58,-40
-13,190,4,-57,-123,26,102,151,93,-22
26,318,124,-184,-92,-21,-24,-9,-81,-151
-136,409,310,22,-23,-70,-139,-162,-231,-280
-73,583,177,155,-5,-63,-103,-117,-155,-198
-50,165,-79,73,-47,-64,-56,-45,-60,-113
-21,-313,-109,74,-3,8,15,37,14,-17
80,-346,-6,-104,-83,-56,-48,-57,-62,-56
44,171,62,-190,-97,-115,-114,-119,-108,-81
-135,322,55,19,12,-68,-99,-110,-123,-126
-124,-43,21,226,64,8,-26,-72,-113,-157
-81,-380,114,156,45,71,50,14,-18,-58
-67,-250,81,-199,-11,-6,11,5,8,-19
-76,581,8,-103,160,-140,-135,-127,-86,-90
33,790,29,529,108,-140,-120,-105,-56,-22
175,-251,8,395,51,105,172,192,221,224
138,-69,166,-258,74,93,102,90,123,139
6,374,49,-581,117,23,-32,-74,-56,-26
-33,173,-224,-677,61,71,48,8,13,36
-176,-189,-271,-264,11,57,19,-25,-14,-26
-228,-48,-209,328,14,-110,-189,-206,-179,-172
209,30,43,441,-406,-122,-61,1,68,138
372,-491,-56,206,67,114,182,252,321,338
208,-363,-69,37,321,64,107,132,155,119
159,-41,195,42,-236,-99,29,40,52,20
-40,-103,224,90,-115,-1,82,87,72,-5
-59,-188,75,96,99,123,170,175,142,53
105,108,45,68,8,98,144,178,123,73
58,688,175,57,-98,-51,-44,-9,-68,-94
23,672,20,-24,-148,-117,-120,-90,-113,-125
-24,-42,-235,-63,-188,-79,-89,-63,-63,-65
-1,-453,-279,-30,-348,-80,-57,-39,-41,0
29,-264,-115,-62,-109,34,62,44,51,68
-4,-132,77,7,413,85,56,-4,17,15
5,116,115,7,260,56,6,-17,-19,-9
-8,115,154,-170,90,38,-24,-29,-50,-30
10,-321,-83,-481,115,57,-30,-52,-61,-21
-82,-275,-120,-552,129,-1,-103,-137,-128,-95
-330,-101,99,-142,189,-195,-364,-414,-404,-374
-307,-63,102,333,101,-178,-309,-389,-387,-368
34,705,-31,262,-222,-73,-99,-138,-116,-64
195,493,-183,58,225,112,139,126,165,180
-10,-382,-8,268,183,118,171,202,252,186
-73,-230,141,241,-214,4,97,160,218,143
-61,-232,155,362,-154,-26,20,73,113,45
64,-213,167,230,-34,-7,22,52,104,47
107,-19,64,-78,-48,23,36,82,124,100
-34,75,37,-100,-118,-50,-55,-9,13,-11
-131,116,32,-40,-82,-48,-69,-19,-24,-48
12,164,36,-21,-97,-35,-67,-19,-25,-14
130,-280,-5,-33,-179,-11,-26,4,-18,8
112,-271,-26,-44,-188,55,33,56,15,28
38,-50,-89,-69,80,62,21,48,0,-9
-60,-130,-114,-62,225,54,36,25,-15,-38
0,-149,1,-26,35,15,38,12,23,14
55,49,215,140,-5,-10,-19,-53,-12,-2
-13,250,271,164,-32,-37,-58,-94,-61,-41
-98,84,50,-13,-202,-30,-35,-67,-50,-65
-201,-136,-91,-101,-179,-27,-58,-82,-80,-145
-139,-15,-115,-19,188,88,19,0,-3,-85
3,-44,-118,92,267,65,31,57,78,28
185,-56,-163,-8,-41,-19,85,147,169,162
217,12,-123,-112,-43,7,125,158,157,161
87,-78,-131,-59,42,41,106,112,85,64
38,-60,-153,-46,57,32,60,78,46,12
31,30,-115,-79,14,14,20,52,23,4
-17,200,-113,-157,-56,-45,-49,-29,-41,-24
-115,292,-117,-268,-22,-116,-155,-132,-131,-71
-163,84,-84,-136,28,-129,-168,-176,-159,-73
-162,-128,46,497,77,-56,-83,-108,-98,-37
-49,-287,92,374,143,90,54,47,44,66
51,-252,74,-99,74,116,83,94,108,105
136,45,60,-116,-12,61,34,33,42,46
180,155,-32,-91,-80,21,-1,9,1,24
57,55,38,8,-21,13,0,22,12,0
-4,32,91,66,-2,-14,-22,-3,-10,-43
54,84,-26,26,-17,-22,-44,-14,-9,-35
43,220,-74,-32,-18,-27,-42,-15,-6,-15
27,253,-77,-96,-2,-14,-17,-5,-9,-3
35,67,42,-140,12,6,20,20,-4,15
-23,-182,61,-146,37,39,35,44,17,19
-70,-316,61,-85,-11,-21,-42,-33,-55,-43
-179,-482,56,-27,-100,-170,-211,-213,-234,-204
-191,209,81,124,-185,-272,-326,-317,-336,-293
89,1033,122,94,-108,-83,-100,-98,-112,-50
232,414,14,12,-10,72,87,85,66,149
14,108,98,28,-33,-24,-17,-29,-38,21
-113,311,111,-10,-100,-131,-121,-119,-115,-96
-73,209,-20,-6,5,-2,5,14,11,23
3,-185,-29,-196,104,231,240,246,218,239
84,-541,-97,-371,84,272,290,299,281,315
21,-641,-181,31,276,124,82,78,91,140
-36,-424,-149,225,128,-40,-57,-70,-55,-11
122,-177,-10,177,-92,-18,59,40,37,81
196,-1,61,112,-125,-39,71,47,52,86
106,109,126,19,-53,-19,70,40,24,21
-104,319,363,14,-55,-86,-19,-82,-111,-141
-355,45,427,48,-106,-216,-190,-278,-294,-311
-344,-373,64,7,-154,-223,-196,-259,-254,-253
-62,-143,-275,-30,-111,-107,-39,-72,-53,-3
27,454,-92,19,-36,-34,28,0,33,63
-60,531,-11,-37,-81,-95,-50,-101,-71,-57
-155,774,22,-81,-142,-179,-154,-202,-185,-181
-272,401,90,71,16,-45,-91,-103,-108,-123
-276,175,136,188,275,123,58,70,47,32
-163,-587,40,60,339,210,155,183,162,129
156,-666,-93,-192,297,309,298,314,280,230
252,-5,101,-165,52,105,125,97,43,-1
145,440,288,61,-281,-177,-170,-212,-280,-317
170,914,304,99,-407,-160,-184,-229,-290,-313
107,555,94,-217,-212,16,-41,-72,-134,-164
46,-582,-324,-289,518,263,152,153,87,43
22,-960,-412,87,454,281,216,214,161,115
243,-381,-191,35,-132,250,324,324,295,267
230,6,-130,-149,149,230,257,267,263,240
-187,47,-124,116,254,-78,-80,-61,-52,-60
-225,308,-55,123,-196,-234,-164,-94,-75,-54
-126,-56,-99,-189,-57,-92,-51,18,28,40
-13,-271,-18,28,49,34,64,75,67,90
90,-197,176,317,18,2,56,27,30,82
90,-211,129,54,-194,-172,-128,-156,-142,-47
46,-431,44,-146,-357,-171,-167,-163,-160,-88
163,96,11,-240,-366,-32,-49,-24,-32,30
277,282,-38,-210,-79,148,131,133,122,204
-38,-190,-183,-20,341,171,155,129,133,138
-336,-459,-99,231,233,111,103,117,86,27
-275,-310,67,126,132,48,0,29,-2,-29
-205,-219,46,-160,205,15,-70,-50,-84,-77
-64,-65,-67,-220,62,27,-12,5,-25,-45
11,83,-15,331,164,65,18,38,15,-44
-62,163,100,492,149,21,-10,19,8,-85
-40,130,149,312,-157,-16,3,41,22,-59
77,106,104,99,-100,-2,5,14,20,-29
143,162,31,-149,9,28,3,1,26,29
132,216,38,-255,66,77,51,24,34,31
-22,122,-43,57,181,36,-24,-99,-100,-105
-262,6,-85,272,300,-79,-235,-369,-389,-357
-326,50,-95,-38,172,-54,-245,-396,-420,-392
10,832,96,137,-173,18,-21,-104,-85,-72
268,883,-4,-102,-208,22,116,115,203,202
151,105,-137,-160,-30,12,120,193,280,230
-22,-759,25,31,-227,-16,79,165,218,165
-105,-1085,-270,-26,-93,-115,-44,27,72,64
-185,-1001,-301,157,-165,-255,-185,-129,-95,-72
-152,-342,27,122,-210,-191,-121,-73,-42,-25
-50,567,242,53,-71,-8,82,126,140,147
-64,317,181,25,-78,-16,59,99,119,125
-48,-320,49,-50,-100,-52,21,45,59,51
135,51,58,23,11,43,110,102,84,75
271,253,48,112,53,28,68,34,9,47
254,152,2,104,77,0,6,-3,-35,9
155,125,-2,0,68,56,40,63,33,53
110,83,9,-23,32,71,58,74,73,66
12,96,-11,-132,7,0,-28,-22,-19,-15
-36,179,-13,-145,-59,-43,-66,-56,-60,-52
-36,270,20,-74,-48,-58,-74,-71,-85,-70
73,139,8,-63,21,0,-34,-34,-32,-4
132,-41,11,-26,50,19,-12,-12,-4,21
104,217,-15,-17,24,-7,-22,-20,-2,8
89,400,5,-27,-4,-21,-21,-18,1,0
41,99,106,-21,7,1,-13,7,16,18
-17,-131,23,-42,-5,-11,-11,-6,-4,12
-75,217,-66,-57,-48,-121,-101,-121,-95,-86
-34,376,-131,-72,-87,-130,-116,-127,-116,-83
26,118,-47,-49,-82,-66,-31,-37,-39,-19
-22,-276,35,-70,-54,-36,-18,-9,0,-6
-18,-115,0,-252,-16,18,-1,32,32,26
34,280,-9,-509,16,63,27,64,65,53
0,-214,-48,-312,101,93,65,117,133,69
-79,-480,-113,362,111,70,63,111,114,10
-42,-490,-123,349,106,161,190,230,184,85
-2,-259,-34,152,55,153,169,198,179,104
-5,-81,-23,69,-3,40,20,52,64,48
3,-38,-25,58,-18,-30,-51,-14,15,21
-102,-43,6,4,-28,-58,-98,-57,-48,-59
-248,-41,16,-42,-85,-61,-75,-61,-79,-121
-156,227,-17,-3,-248,-21,16,17,-30,-45
84,154,15,64,-231,-37,-1,-5,-22,35
-166,-573,65,58,186,-177,-218,-287,-304,-242
-322,-265,166,-137,89,-301,-361,-447,-487,-389
43,869,166,-163,-108,-235,-249,-263,-257,-110
297,311,-118,186,67,56,56,107,109,189
127,-55,6,189,194,186,156,212,173,149
77,128,53,-182,84,163,115,169,114,101
44,-270,-52,-367,27,116,79,129,91,96
-98,-423,-205,-181,84,151,138,173,147,105
-319,-697,-320,176,163,197,209,213,201,103
-296,-482,-121,162,234,283,277,250,207,80
-53,-65,67,-61,297,297,235,176,101,21
338,264,11,-272,54,185,88,41,-25,7
332,393,-17,-192,-262,136,77,9,-47,29
190,339,73,-50,172,194,96,51,0,86
-83,-19,146,168,243,-164,-232,-213,-207,-81
-224,-233,186,167,-650,-565,-431,-374,-351,-219
-153,265,215,-31,-611,-483,-364,-322,-321,-250
32,768,175,106,-177,-183,-143,-131,-165,-165
95,-27,68,289,158,121,122,110,43,-32
9,493,177,196,72,-1,-34,-88,-135,-190
48,569,61,41,-13,-14,-26,-53,-69,-107
132,-331,-331,-81,66,132,178,189,195,136
70,-706,-408,-113,51,117,206,198,205,157
-100,-653,-131,256,94,71,126,70,66,4
-108,-259,12,293,49,42,69,1,3,-54
11,35,-53,-13,-91,3,26,-36,-26,-17
-8,75,-82,-282,-202,-49,-28,-78,-71,-42
-39,73,44,-427,-174,-52,-53,-101,-88,-59
14,133,70,-189,80,-37,-55,-116,-72,-39
46,225,76,473,214,-38,-30,-77,-9,-13
171,126,133,401,48,-4,79,57,105,106
256,56,102,74,-58,-27,35,14,50,52
210,212,77,-33,-120,-127,-100,-130,-105,-60
108,380,64,-72,-143,-169,-139,-158,-127,-76
-95,370,34,-6,-21,-47,0,-13,9,-4
-268,5,36,34,20,-3,9,-2,0,-71
-211,-322,-17,13,-11,-53,-62,-70,-44,-100
49,32,-97,-9,-3,-23,-33,-18,15,8
157,-134,-116,4,45,45,48,71,84,84
12,-302,-68,-15,89,66,47,72,60,42
-70,-423,-35,-66,117,64,15,44,37,35
-43,-313,41,302,106,88,43,73,77,88
0,-112,61,340,164,132,73,94,86,98
51,25,0,-161,130,111,64,72,60,74
44,314,35,-219,-6,64,36,59,55,63
18,43,18,-82,138,71,16,33,38,47
-48,-414,-71,-12,78,19,-4,40,35,51
-107,-547,-81,-165,-247,-59,-22,43,50,61
-133,-660,-178,-287,-236,-94,-51,2,15,17
-158,-257,-242,-83,-30,-59,-56,-25,-16,-17
-50,453,-56,156,203,131,111,123,134,112
167,567,90,114,192,229,239,251,269,262
143,219,46,32,75,76,73,81,88,103
-107,45,-19,-84,37,-43,-110,-123,-158,-136
-8,416,73,-83,-7,5,-65,-80,-123,-70
29,-93,3,37,31,10,1,-2,-24,26
0,-477,-118,141,137,69,129,101,78,128
27,-174,-73,-5,90,152,201,189,169,197
-4,-28,-21,-68,-54,66,96,112,87,115
-117,-60,-58,67,-128,-104,-62,-52,-83,-55
-61,-17,0,80,-210,-196,-167,-160,-187,-131
126,60,51,-49,-354,-168,-152,-141,-150,-64
227,57,46,-20,-336,-39,-7,19,12,82
232,-30,-43,-213,228,70,94,93,77,134
125,-124,-127,-3,194,-70,-33,-46,-41,16
-6,171,-116,192,-107,-162,-120,-113,-117,-74
-60,913,61,-26,-204,-238,-204,-203,-207,-171
-110,966,100,-194,-251,-326,-283,-318,-295,-257
-60,277,48,-124,-133,-152,-110,-147,-120,-82
-25,-566,61,139,160,187,230,207,213,184
-89,-1041,82,159,214,253,272,270,232,158
-155,-731,143,127,34,32,46,37,-11,-63
-126,-90,148,221,23,-1,0,-25,-79,-113
18,117,43,49,-9,-38,-42,-71,-98,-95
39,-357,-66,-58,-40,4,16,-10,-33,-51
106,174,7,23,55,142,161,150,105,77
164,430,-56,6,75,151,175,184,149,141
60,247,-114,-23,9,50,42,67,43,29
5,-41,78,63,21,30,12,14,-6,-19
0,48,231,76,21,11,12,5,6,-4
19,188,211,61,-2,-24,-11,-14,9,16
45,245,144,22,-60,-65,-49,-41,2,11
-6,38,-79,-30,-58,-39,-26,-12,27,10
-54,-206,-104,-45,-34,5,-1,15,44,25
-60,-105,70,-43,-46,-21,-22,1,26,22
-45,138,118,-29,-43,-60,-77,-54,-42,-35
13,613,-15,-16,-26,-66,-88,-63,-43,-24
139,602,-146,-19,-8,-8,-17,31,72,90
129,20,-41,11,24,50,59,136,155,154
-8,-39,-36,-23,-23,-20,-3,60,46,37
-87,353,-43,-92,-111,-137,-117,-89,-89,-87
-59,134,35,-59,-65,-97,-109,-97,-63,-49
44,-339,95,46,56,48,-5,32,81,105
162,-426,96,61,69,56,18,52,90,148
154,-454,-49,7,50,73,100,97,111,124
