-1,4,-29,0,-1,1,23,21,-13,-29
1,5,37,-17,-4,-4,44,17,-11,-18
8,9,42,-26,3,2,41,5,-17,-17
10,28,18,-16,6,-5,28,15,-11,-1
7,48,-3,-14,21,0,27,28,4,14
-7,18,-6,-22,11,3,18,10,-20,18
-15,-8,17,-15,-6,-1,1,3,-20,27
-12,-18,15,-4,-12,-3,-25,-6,-20,18
-13,-13,20,0,-4,-4,-24,-9,-17,-15
-13,-3,35,7,21,-6,9,-1,-20,-28
0,0,39,0,30,5,20,15,-31,-15
14,8,26,-10,25,8,28,25,-20,-2
19,0,-20,-6,16,4,32,26,-3,17
20,-7,-62,-11,13,1,23,23,17,41
19,0,-1,-8,5,-7,17,24,27,34
25,-8,34,-27,-2,2,15,29,32,30
37,-6,-61,-34,-8,-3,17,31,27,45
42,-7,-138,-23,-3,-13,16,15,20,35
38,25,-62,-10,-1,5,22,19,20,40
44,74,47,-1,8,9,44,33,45,40
31,40,69,0,20,13,0,6,30,24
12,0,73,0,19,26,-36,-22,-14,-11
-7,3,84,6,31,34,-37,-31,-21,-46
-17,9,73,21,29,30,-8,-38,-22,-52
-17,-7,38,27,21,21,2,-36,-38,-49
-21,-11,35,20,17,28,4,-24,-41,-39
-4,-1,46,18,21,37,23,-13,-23,-24
2,0,8,17,16,22,23,-16,-20,-13
0,3,-3,11,7,-4,9,-23,-14,-16
3,4,-22,5,10,8,9,-12,-7,-19
6,4,19,-1,9,23,-10,0,-10,-14
1,-3,54,-3,14,15,-35,2,3,-10
0,-5,27,-12,15,3,-33,19,12,0
6,17,28,-12,4,-11,-22,37,27,12
11,45,38,-8,-11,-18,-3,62,54,45
10,17,35,-1,-15,-28,-15,44,51,61
10,-1,42,0,-13,-17,-35,-5,27,39
12,-1,45,-6,-16,-12,-10,-6,11,32
10,8,21,-5,-20,-10,3,4,9,52
13,3,19,-13,-13,-12,-18,0,8,68
0,4,21,-23,-14,-20,-34,9,14,55
-24,15,0,-25,-6,-1,-20,33,41,41
-21,6,-6,-11,-5,10,1,16,5,-5
-36,6,-13,-21,0,0,3,-5,-19,-72
-56,18,9,-20,16,-4,-8,-26,-22,-104
-54,4,18,-12,18,-2,-1,-33,-16,-99
-44,10,19,-13,9,-9,1,-34,-13,-79
-28,9,32,-16,0,-14,-20,-23,-15,-52
-12,25,28,-12,-9,-19,-35,-8,-16,-23
-10,15,0,-6,-16,-8,-24,-1,-12,-12
-11,10,-6,-8,-22,-3,-35,-13,0,-4
-9,5,-3,-2,-22,-19,-25,-2,-1,7
-5,1,-3,0,-26,-14,-22,5,-3,11
-6,4,-10,3,-29,-15,-23,-3,5,4
-5,10,-24,-1,-21,-12,-12,-13,-11,-7
0,24,-64,11,-5,5,-7,-10,-10,-2
10,55,-23,14,7,15,17,13,10,0
7,60,-104,-4,7,19,56,14,14,-2
9,21,-154,-3,4,28,55,-6,-15,4
10,13,-41,-3,-4,10,10,-23,-3,20
2,20,-20,0,-17,-14,-29,-31,4,31
-6,5,-3,-3,-10,5,-26,-28,0,18
2,-7,20,-9,-9,12,-17,-15,25,18
4,-5,10,-8,-23,0,-5,6,32,19
-4,-13,-4,-15,-23,-10,-18,7,26,17
0,-12,-1,-21,-18,-17,-22,12,25,-13
-6,-4,-7,-21,-10,-14,-16,8,12,-21
-1,-6,-9,-17,-13,-17,-6,12,5,11
-8,-22,-19,-16,-21,-28,1,10,20,41
-42,-5,-13,0,-22,-9,-7,1,29,46
-56,13,11,3,-13,-15,-17,-2,17,-1
-48,33,23,-2,11,0,-7,-1,15,-23
-35,10,22,0,7,12,-9,-5,7,-3
-30,-6,-12,-6,-4,-3,-9,-25,7,9
-22,1,-16,-2,-1,15,-6,-29,6,12
-16,-1,-11,-5,-5,23,-5,-19,9,6
-16,-3,-15,-16,-13,5,5,-13,6,9
-27,-6,-3,2,-14,7,5,-13,13,15
-15,31,11,12,-17,10,17,8,50,41
-4,45,13,-1,-12,-4,41,21,72,56
-5,18,15,-5,-22,-12,41,4,35,43
11,5,19,-5,-30,-14,40,6,32,50
21,-3,20,-6,-26,-23,43,3,9,50
6,7,16,-11,-9,-17,38,-15,10,25
0,12,6,2,0,-20,27,-21,3,13
10,19,-13,23,14,6,23,-25,-18,-3
0,59,-48,34,30,22,43,-9,-6,-31
-9,68,8,46,44,23,50,-15,-27,-52
-24,23,26,51,41,15,18,-38,-73,-62
-24,-2,19,50,35,23,12,-39,-82,-74
-19,-5,19,38,26,21,-3,-30,-71,-62
-19,-13,15,28,25,14,-17,-17,-59,-54
-20,-12,12,24,17,17,-9,1,-42,-37
-12,7,4,6,5,27,15,24,4,13
-18,-12,8,-4,4,12,1,16,18,23
-29,-34,1,-5,9,0,-2,4,10,15
-29,-28,0,-7,19,13,26,2,7,9
-11,-19,8,-18,8,-2,28,12,-5,24
12,-6,9,-11,4,-14,27,12,-5,72
34,-5,14,-1,0,-3,8,0,2,105
40,-5,4,-5,1,-6,-16,-3,18,114
51,31,2,-10,0,-1,-13,9,38,123
81,4,-8,-19,-9,2,-39,-1,8,97
63,-8,-11,-24,-8,7,-15,-8,-4,40
-12,-10,-21,-20,-4,3,26,-10,8,-34
-50,-22,-85,-9,-4,5,25,0,27,-72
-65,-24,-95,0,-4,12,24,11,20,-91
-48,-25,-41,-12,-9,-17,-2,5,6,-94
-18,-31,-37,-21,-18,-19,-21,16,15,-55
9,-17,-23,-14,-32,-23,-21,9,7,-41
37,-20,-25,-9,-31,-18,-7,2,-5,-19
42,-28,-12,7,-28,0,-1,6,8,4
22,-23,-4,2,-22,-10,-6,3,16,3
3,-15,17,-11,-13,-10,1,0,12,6
-19,-20,26,-12,-6,0,6,6,20,15
-22,5,-26,-10,-3,-20,4,13,13,-3
-6,35,-137,-15,-18,-15,15,26,19,-14
11,24,-118,-13,-10,-8,17,38,27,-3
15,-9,-28,-15,-26,-5,1,22,-2,5
12,-25,-67,-7,-24,6,-3,12,-32,-20
20,-25,-131,-19,-10,-4,-7,0,-42,-27
58,22,-29,-20,-24,-18,-37,-34,-36,26
77,29,-35,-8,-26,-24,-39,-38,-32,36
52,0,-86,-18,-15,-2,-3,-19,-22,23
65,-6,-9,-15,4,-8,-3,-27,-25,47
47,15,63,0,18,-11,-16,-54,-36,33
-7,14,88,15,23,8,-6,-42,-24,10
-38,5,77,14,14,5,13,-9,18,21
-47,-5,71,11,18,9,24,16,38,1
-48,-3,27,4,18,18,19,27,39,-12
-27,-5,59,-2,11,-3,48,20,58,-9
0,0,77,-10,0,-16,57,13,51,-2
54,-9,55,-11,-6,-21,22,11,13,4
71,-17,24,-17,-14,-42,14,4,-2,1
38,-29,-19,-21,-15,-41,13,7,3,1
12,-34,31,-23,-9,-40,14,3,-2,-8
-8,-31,37,-28,-5,-41,-12,0,-12,-8
-17,-27,20,-36,-2,-40,-42,-7,-10,-1
-15,0,23,-29,6,-24,-28,19,22,10
-10,22,29,-24,10,-18,-2,37,50,27
-4,0,25,-16,4,-25,-8,12,20,15
-1,-18,28,0,1,-4,-6,-6,-20,-5
-5,-24,25,12,4,-5,-17,-7,-30,-5
-10,-22,25,6,1,-3,-43,2,-28,3
-14,-20,29,-1,2,-10,-35,7,-32,-1
-8,-11,28,-6,2,0,-26,4,-24,-4
-7,-5,18,-11,5,0,-9,5,-27,-2
-15,-1,12,-8,0,-4,-16,-5,-35,-6
-32,3,14,-1,5,-3,0,0,-29,-23
-35,1,-7,-1,11,-4,31,10,-24,-22
-31,-4,-78,2,0,0,35,15,-19,-1
-23,-5,-87,-6,-4,1,40,23,-15,4
-27,-2,-2,-18,-12,8,7,30,-8,6
-9,11,6,-12,-1,-3,-11,36,5,18
11,12,-5,-7,-1,-5,-15,15,-12,1
22,-8,-20,-2,-5,-20,-47,-24,-70,-20
53,-5,-21,0,-12,-32,-65,-49,-60,1
63,3,-69,-30,-25,-49,-83,-66,-57,41
78,5,-47,-57,-38,-61,-90,-64,-55,44
114,31,-29,-70,-48,-64,-75,-51,-22,69
147,76,-53,-67,-48,-60,-49,-48,5,112
167,96,-44,-54,-41,-59,-16,-41,-3,105
166,70,-20,-18,-14,-37,1,-43,-7,66
146,25,-36,1,8,3,31,11,13,27
184,25,-54,-12,11,20,22,16,19,-3
339,77,-20,-19,-12,-16,-47,-43,-12,-15
459,122,44,-17,-49,-66,-105,-87,-56,-34
323,109,115,13,-46,-63,-94,-72,-66,-60
65,16,82,17,-16,-3,-26,3,-9,-64
-5,-61,25,-4,0,18,11,46,3,-79
96,-55,18,-6,1,16,6,39,-20,-101
60,-47,15,-18,9,8,13,17,-29,-111
-22,-48,-46,-12,6,4,21,5,-26,-84
-244,-42,54,41,34,35,26,29,11,-46
-580,-61,127,108,99,122,84,100,96,-19
-564,-48,127,115,105,135,118,125,109,8
-429,5,83,72,60,96,135,114,115,45
-406,-9,12,49,29,65,107,74,92,32
-489,-92,-52,54,36,62,86,44,53,-29
-495,-133,10,71,55,57,97,47,45,-58
-312,-109,68,60,49,53,98,47,34,-25
-165,-84,62,38,23,36,65,41,30,6
-138,-65,45,27,7,16,48,34,20,22
-117,-62,46,24,5,1,40,27,29,30
-89,-76,39,5,-4,3,23,8,19,36
-58,-64,38,2,-7,-11,17,0,36,21
-24,-41,34,7,-2,12,20,6,13,1
4,12,40,9,12,25,24,8,11,-2
1,60,64,21,29,23,31,10,3,-16
24,58,59,17,27,26,21,19,-10,-15
48,38,49,7,16,30,8,18,-11,-6
44,23,34,-6,9,14,-10,12,7,-13
14,1,19,-6,7,9,-9,9,10,-11
3,-9,6,1,6,23,-25,6,0,-5
28,20,9,10,4,8,-64,-19,-15,16
45,55,29,10,-3,-15,-95,-44,-42,-4
34,29,0,8,-20,3,-72,-16,-31,-55
65,29,-20,-4,-25,-9,-51,4,-10,-44
161,75,-12,-29,-38,-40,-58,-11,-12,1
166,86,-44,-58,-61,-67,-64,-20,-26,9
119,65,-132,-56,-88,-71,-78,-46,-37,10
93,40,-105,-58,-103,-63,-93,-71,-65,0
127,60,-83,-63,-105,-60,-116,-91,-79,10
198,76,-158,-88,-120,-85,-139,-101,-85,21
282,69,-97,-101,-119,-89,-120,-101,-52,29
271,30,-40,-64,-74,-34,-49,-49,6,59
-8,-52,-42,22,24,89,60,66,79,97
-95,-55,-24,72,78,142,149,125,138,124
-51,-19,18,56,59,108,145,86,107,92
-38,10,17,26,16,65,82,19,43,40
4,-2,34,22,-8,44,35,-19,-22,-4
-68,0,21,35,8,40,45,-31,-33,-46
-162,-1,9,41,37,38,86,-20,-25,-99
-144,11,36,39,53,43,83,-5,-19,-111
-84,-10,53,43,50,36,26,-35,-59,-120
-79,-10,85,73,49,21,7,-52,-69,-125
-59,-21,53,60,30,6,8,-32,-25,-83
-31,-24,14,24,30,7,8,-16,7,-50
-9,-25,-5,3,20,21,22,-20,24,-35
18,-13,0,1,6,5,0,-38,9,-9
18,5,20,23,29,0,2,-25,29,19
15,16,-11,22,25,18,23,8,55,19
11,-22,-38,6,12,17,-21,-8,19,23
-4,-41,-34,-1,8,-7,-49,-14,0,19
8,-40,-9,-1,15,-6,-52,-10,11,18
17,-39,-32,-14,25,-15,-49,-7,6,35
34,-33,1,-23,19,-29,-50,-17,0,33
27,-16,11,-11,8,-13,-45,-22,-20,6
-6,-20,-1,3,20,-4,-27,-15,-20,-17
-10,-35,17,0,24,-11,-38,-25,-22,-28
-7,-32,13,-1,16,-11,-45,-36,-37,-28
-15,-25,8,1,19,-17,-50,-41,-31,-37
-27,-28,13,-2,16,-11,-29,-47,-29,-37
-25,-24,3,-11,6,-19,1,-42,-26,-17
-12,-24,10,-18,3,-23,-3,-30,-14,-1
9,3,4,-20,-11,-26,9,-20,11,8
26,24,-8,-14,-18,-32,16,-4,18,15
16,-2,-14,-4,-11,-25,11,-5,-3,12
17,-3,-32,-8,-2,-17,16,-7,15,8
22,0,-62,-15,-6,-4,12,0,30,15
11,3,-38,-13,-9,-19,6,-20,22,2
5,8,4,6,-9,-11,-10,-52,18,-5
7,5,5,10,-3,-14,-12,-29,22,10
10,32,-14,-6,0,-19,7,11,51,30
23,51,-71,-17,-6,-23,19,27,35,31
21,19,-103,-3,-7,-23,-1,-13,-13,25
18,2,-17,-2,-6,-27,-18,-32,-18,19
3,-13,19,0,3,-10,-23,-27,-4,9
-5,-1,22,-3,1,-1,-27,-10,9,21
9,1,15,-10,-17,-20,-29,-9,12,33
18,16,22,-2,-22,-20,-31,-18,0,21
19,1,7,0,-16,-8,-46,-30,-24,4
12,10,15,18,0,2,-53,-42,-44,-14
0,0,15,17,0,-6,-32,-33,-50,-52
7,0,-10,0,-5,2,-28,-23,-49,-58
-24,-12,-27,-10,3,-1,-19,-20,-59,-65
23,3,-8,-15,-7,-15,-26,-22,-40,20
83,20,-2,-13,-10,-28,-35,-22,-23,77
69,48,-9,-12,-5,-6,-15,19,6,53
57,42,-28,-22,-11,-12,-1,32,15,59
47,14,-31,-22,-18,-36,-11,-6,-23,69
15,13,-16,-17,-14,-37,-20,-12,-21,57
0,9,-4,-16,-3,-26,-7,12,0,55
-14,-3,-22,-26,-18,-19,35,48,44,60
-7,-32,-25,-46,-27,-16,62,63,66,43
53,3,-25,-38,-16,-22,21,51,43,21
57,20,-7,-17,-2,-21,-1,43,42,-2
87,12,-8,-24,-12,-12,32,53,36,-15
151,7,19,-24,-19,-11,49,56,34,-35
198,18,33,-10,-3,4,27,22,-7,-65
308,32,38,-5,-5,-14,-4,-52,-70,-72
358,49,24,-28,-34,-64,-69,-118,-106,-5
272,0,-9,-52,-42,-79,-105,-117,-75,17
137,-73,-52,-70,-26,-46,-76,-68,-56,-55
96,-55,-70,-57,-32,-35,-69,-65,-68,-51
0,-86,-83,-44,-40,-4,-21,-8,-17,38
-56,-171,-130,-61,-14,32,42,78,74,94
-65,-154,-103,-39,19,63,56,101,83,82
-147,-68,-2,11,36,46,45,67,52,26
-143,-2,55,24,35,31,27,44,30,-27
-166,20,31,24,49,73,84,126,86,-12
-304,28,21,25,56,99,143,173,151,-9
-383,-3,54,73,59,81,91,98,73,-74
-287,-32,20,67,33,11,6,30,24,-30
-170,-3,34,33,-1,-35,-49,-32,8,50
-166,-13,-11,25,2,-28,-34,-36,25,40
-221,-32,6,45,16,2,-3,-27,5,-27
-228,-36,98,63,21,18,4,-15,-26,-51
-185,-11,116,63,26,34,11,-1,-29,-19
-56,10,107,52,18,35,11,2,-22,2
91,101,128,55,8,2,-16,-13,-35,2
162,167,124,36,-9,-22,-52,-34,-42,-2
132,186,112,19,-35,-38,-64,-45,-38,-30
96,168,80,5,-55,-39,-56,-40,-38,-41
82,143,23,-4,-58,-38,-34,-28,-12,-30
27,107,-89,-15,-51,-26,7,5,24,-13
-179,7,-83,3,-21,10,61,60,82,5
-407,-151,5,33,10,52,102,86,107,-10
-346,-211,12,27,22,68,94,87,92,-45
-206,-187,19,13,9,63,56,85,90,-47
-156,-180,-48,1,5,71,56,83,94,-31
-119,-159,-148,-2,3,80,81,70,85,-7
-99,-141,-148,-1,7,78,92,49,61,-19
-17,-74,-131,-14,-6,50,65,38,31,-14
86,31,-40,-27,-31,0,26,-2,-6,-10
129,112,58,-33,-45,-19,8,-39,-26,-29
123,112,63,-29,-63,-27,-10,-45,-35,-21
97,63,50,-29,-62,-20,-20,-25,-34,-5
70,21,42,-20,-40,-13,-7,-14,-14,-12
57,2,41,-27,-6,3,2,-11,-12,-22
86,25,42,-23,4,14,3,-11,-11,-6
104,22,27,-15,1,3,-12,-7,-5,3
82,12,29,-11,4,-1,-14,-8,-7,8
82,24,20,-1,14,5,-22,-4,-1,0
88,31,-3,-17,8,-4,-46,-7,-2,-9
73,34,-6,-14,4,6,-47,-12,-20,-10
78,29,16,7,8,-10,-63,-40,-26,22
94,23,34,15,27,-16,-49,-47,-16,39
128,51,42,8,34,-3,-14,-15,12,47
114,71,40,11,34,-17,1,5,34,14
64,29,15,-19,16,14,11,11,26,-11
59,-7,-1,-37,6,27,12,-2,15,14
78,7,1,-19,0,7,-19,-26,-15,29
73,10,12,0,-2,16,-38,-47,-28,13
73,40,14,11,4,35,-28,-43,-54,-10
63,76,28,12,10,16,-23,-26,-50,-6
6,24,10,-2,10,11,-2,7,-11,-7
-2,-14,-11,-14,4,20,45,36,0,-12
38,-8,-8,-40,-17,-24,21,6,-16,10
52,23,4,-43,-26,-52,-22,-22,-49,8
103,11,-14,-49,-25,-55,-43,-27,-61,3
176,7,-29,-47,-22,-43,-39,-22,-54,-8
237,57,-22,-21,-8,-41,-40,-22,-52,-7
214,115,22,18,8,-37,-53,-29,-34,-10
141,71,35,35,1,-35,-33,-18,-1,0
-19,25,25,34,2,-17,3,33,30,14
-142,-20,4,25,17,12,40,89,64,26
-79,-14,13,32,35,33,38,88,87,61
-26,9,18,20,26,14,11,65,86,71
-22,35,25,16,13,0,8,38,67,57
-34,28,11,20,18,16,38,58,86,46
-18,12,-13,9,23,8,51,55,74,51
-16,-25,-11,14,29,18,38,25,32,60
-22,-38,6,22,29,20,40,22,2,42
-26,-38,12,33,32,16,51,29,13,9
-67,-65,2,34,42,30,61,51,27,-11
-57,-56,-2,22,46,31,50,42,22,-25
-1,-14,-24,13,39,9,31,29,-3,-31
40,-36,-52,17,39,6,41,51,5,-24
28,-49,-68,13,35,20,53,70,26,-8
21,-21,-26,15,30,0,28,33,13,-1
9,0,45,50,28,-13,-8,-24,-28,-2
26,15,35,59,8,-29,-21,-29,-33,8
31,31,-2,47,-6,-44,-21,-17,-12,10
41,6,-110,27,-22,-40,-10,0,-1,20
32,29,-55,30,-16,-8,7,18,1,8
38,33,-18,36,-5,2,5,-3,-21,12
22,11,-35,33,-4,-4,-4,-21,-29,7
7,-5,-42,31,-1,-4,13,-6,-5,-8
23,-15,-23,21,-4,-7,19,-6,-2,-12
16,-22,-26,8,-9,8,26,-2,-3,-6
22,-35,-21,0,-5,26,21,6,-20,0
18,-4,22,-2,-2,3,19,3,-29,-12
14,51,61,3,-13,-7,26,8,-22,-38
40,71,51,9,-16,-26,16,-5,-35,-18
33,10,18,-1,-18,-9,8,-6,-47,4
4,-53,-22,-27,-16,8,24,20,0,28
-6,-64,-40,-44,-16,-8,26,13,33,61
3,-1,-18,-37,-31,-46,-8,-41,-6,55
42,60,18,-18,-22,-62,-28,-105,-68,7
-14,15,32,1,8,-23,0,-87,-68,-65
-39,-29,0,6,2,-3,-1,-46,-51,-50
-13,-20,-8,13,-17,-4,-5,-45,-39,-1
-13,-6,-7,8,-38,-12,-14,-31,-27,0
27,-7,-4,9,-51,-23,-16,-30,-24,-2
16,-30,-32,-10,-53,-13,17,-6,-7,-18
-20,-42,-64,-3,-38,-7,6,-6,-24,-63
-1,-2,-18,3,-25,-7,9,-29,-52,-92
56,82,42,11,-29,-25,9,-34,-31,-42
101,88,14,8,-34,-44,-19,-47,-30,13
54,5,-10,0,-45,-41,-7,-15,-18,24
8,-52,-7,-15,-60,-20,15,14,22,29
7,-59,-99,-30,-56,-14,25,29,52,33
-1,-28,-139,-21,-49,-11,24,29,16,32
-8,-40,-58,-28,-53,-15,56,42,28,38
-1,-56,-31,-34,-47,-14,63,44,42,39
-25,-55,-28,-20,-32,0,74,22,6,-7
-45,-36,-5,-23,-34,-4,43,9,-32,-6
-26,12,19,-24,-36,-21,-9,-20,-46,31
5,67,-18,-31,-49,-44,-33,-59,-74,43
73,60,-88,-64,-80,-69,-20,-35,-34,47
287,1,-102,-115,-117,-68,-12,23,32,84
511,25,-107,-149,-127,-85,-37,-4,45,162
596,118,-49,-129,-146,-145,-109,-104,-10,147
510,174,35,-95,-168,-224,-217,-205,-126,33
333,100,13,-87,-125,-177,-184,-148,-88,-10
195,-28,-56,-78,-79,-103,-97,-58,-2,50
26,-83,-22,-20,-20,-33,-36,-2,11,54
-68,-27,86,65,62,22,10,9,-9,-39
-74,-16,80,81,102,67,53,54,2,-55
-150,-38,52,92,127,127,126,124,68,-21
-294,-50,68,112,136,164,188,170,131,-4
-469,-87,72,105,123,150,181,165,113,-64
-441,-97,15,61,75,100,127,124,64,-124
-53,-30,-13,23,22,25,51,35,13,-121
174,1,-18,17,-3,3,2,-18,-12,-102
87,-46,-68,-9,-22,2,0,2,-19,-100
-38,-71,-110,-57,-32,-13,-22,21,-2,-43
-91,-72,-106,-56,-42,-26,-56,7,0,-11
-169,-61,-72,-22,-37,-31,-42,9,-18,-34
-326,-124,-33,40,-5,8,29,67,35,0
-394,-94,35,111,48,42,73,98,61,28
-340,5,32,150,89,71,100,84,42,-15
-335,71,37,145,92,54,84,38,7,-55
-242,95,82,99,53,6,17,-20,-39,-45
-33,119,55,73,30,0,42,-9,0,-14
80,85,91,63,32,27,60,6,20,1
-32,-29,78,71,64,103,34,21,3,4
-209,-143,45,75,84,130,44,44,32,16
-519,-280,27,91,114,143,72,105,60,4
-586,-289,5,85,118,150,94,144,92,-11
-304,-139,-8,39,87,103,70,108,77,-32
-84,2,-23,14,56,69,43,58,49,-37
49,170,67,23,25,27,-6,-27,-20,-34
87,173,90,20,10,-32,-52,-67,-15,40
49,63,-10,-35,-18,-36,-17,-10,72,87
77,28,-92,-72,-46,-31,0,11,70,84
101,22,-178,-70,-41,-6,2,29,56,60
19,10,-177,-38,-19,-15,-5,23,30,3
6,-20,-99,-15,-11,-25,-11,18,36,7
92,4,5,-26,-6,-30,-3,2,-1,18
131,104,98,-9,-1,-66,-45,-65,-69,-35
99,66,69,-21,-12,-63,-49,-58,-39,5
78,51,49,-16,-17,-54,-55,-49,-13,17
56,16,-36,-3,3,-32,-39,-44,-16,-7
56,-45,-155,-38,1,-3,0,-8,23,-5
92,0,-125,-38,-8,-2,-23,-20,13,3
84,64,4,3,5,-26,-44,-36,25,4
79,92,96,3,6,-22,-1,-10,55,17
50,59,85,-11,9,-19,9,-18,36,11
51,26,76,-22,5,-22,-28,-41,7,5
66,2,54,-19,6,-13,-35,-28,-22,7
47,-23,38,-20,-9,-12,-53,-7,-11,43
-10,-10,44,-16,-15,-15,-62,6,-18,14
12,11,49,-15,-4,-20,-58,6,-30,0
58,47,38,-30,8,-3,-13,51,18,25
79,17,6,-55,5,-10,-10,72,30,40
120,-5,-36,-58,-9,-20,-35,31,2,32
107,12,8,-38,-2,-50,-29,-14,-42,6
73,-31,-59,-26,-1,-46,-4,3,-47,5
80,-126,-181,-78,-8,-1,60,87,16,17
51,-144,-137,-81,4,36,97,130,1,-39
-56,15,34,25,30,20,-43,14,-41,-27
-65,-17,132,48,39,-2,-91,-24,-69,8
-7,41,104,24,15,-14,-93,-16,-61,15
73,105,49,5,-4,-6,-84,-2,-53,26
68,87,42,-7,1,-6,-59,20,-42,19
59,25,35,-24,0,-11,-41,16,-28,48
79,20,26,-11,15,-29,-36,-14,-25,50
66,103,41,34,30,-36,-26,-8,-8,38
18,70,59,28,28,-28,-9,19,1,33
35,5,-18,8,0,-42,-12,12,-5,51
77,19,-28,5,-22,-55,-40,-13,-14,72
67,6,-106,0,-9,-38,-54,-19,-42,30
21,-43,-177,-5,-15,-14,-14,-1,-37,4
-9,-61,-126,-13,-24,-1,-7,7,-34,17
6,-12,-1,-11,-31,-19,-38,-18,-49,-6
68,20,16,-30,-57,-36,-49,-47,-79,-52
96,18,25,-26,-42,-24,-25,-66,-95,-70
85,-42,23,0,-34,-1,-16,-27,-28,-12
168,-40,18,14,-2,25,-17,-14,-15,-12
270,33,72,13,-12,-8,-48,-45,-49,-25
388,86,62,-16,-50,-45,-64,-49,-21,71
272,-10,-68,-94,-94,-60,-21,21,108,219
132,0,-67,-116,-118,-86,-33,10,129,236
173,180,66,-41,-74,-104,-98,-111,-16,86
256,174,69,-40,-75,-114,-117,-135,-71,100
184,161,64,-13,-41,-84,-66,-77,-62,45
106,187,86,3,-41,-79,-34,-36,-35,6
58,164,31,-23,-52,-56,-11,-3,-11,12
-216,-9,-46,-22,-7,35,76,62,21,-9
-494,-37,0,37,52,80,126,78,17,-106
-421,36,47,46,17,8,44,-2,-26,-127
-298,-46,38,7,-35,-54,-34,-42,-53,-82
-148,-127,1,-1,-21,-28,-40,-21,-43,-64
-10,-191,6,38,53,68,32,57,38,-18
-40,-189,54,120,140,172,128,141,110,7
-150,-152,22,109,137,170,133,144,131,33
-168,-148,-3,40,96,145,81,126,97,12
-76,-104,-10,-12,35,122,60,108,43,-71
-117,-152,-41,-28,15,106,70,114,38,-132
-351,-238,-20,14,70,146,134,168,56,-209
-437,-171,52,60,111,140,137,149,39,-235
-322,-113,84,73,91,97,83,106,55,-120
-217,-120,53,48,61,66,38,71,47,-41
-141,-50,93,49,31,16,-22,-4,-16,-73
-130,62,105,67,36,38,-14,-17,-33,-133
-235,124,77,51,40,79,44,51,38,-145
-147,173,65,27,-4,28,5,12,14,-107
-3,151,50,8,-36,-18,-9,-16,-42,-75
33,88,-18,-46,-49,12,31,16,-37,-76
37,-1,-102,-71,-50,23,64,31,-23,-67
66,27,-61,-17,-32,18,25,-15,-58,-56
57,-16,-58,-37,-51,-6,9,-13,0,27
28,-53,-46,-44,-49,-5,16,19,34,-8
94,-37,-6,4,-10,37,14,22,-8,-88
194,29,12,26,11,21,-29,-27,-51,-62
110,146,126,86,47,-9,-87,-112,-110,-71
-106,66,86,52,29,-3,-69,-60,-27,-18
-173,19,33,21,-2,-6,-52,-9,28,6
-70,78,62,31,-21,-15,-68,-24,-15,-48
5,52,-36,6,-19,-1,-24,18,17,-41
12,-55,-151,-40,-20,22,31,88,58,24
91,-3,-141,-49,-19,21,3,37,33,35
60,108,-109,-6,-29,-11,-49,-30,-26,-37
-22,60,-40,12,-40,-32,-43,-34,-34,-45
21,56,78,35,-30,-35,-57,-50,-49,-13
22,13,0,9,-32,-26,-48,3,-9,-1
46,-81,-97,-18,-26,20,-1,65,61,39
29,-103,-108,-18,33,87,63,112,102,27
-6,65,-7,44,56,66,18,11,1,-74
30,107,91,55,5,-13,-74,-68,-67,-32
145,34,29,-27,-42,-24,-96,-34,-24,95
86,-151,-123,-75,-10,73,25,77,27,69
-38,-253,-178,-53,33,165,149,132,45,19
-9,28,60,54,46,87,40,-32,-81,-60
29,196,166,75,2,-25,-62,-95,-93,-20
-46,31,28,11,3,1,13,12,13,39
24,-65,-84,-32,12,46,53,63,67,120
65,84,77,50,28,19,-55,-47,-44,38
54,123,119,56,-3,-36,-106,-89,-92,11
137,57,48,-2,-36,-21,-73,-63,-59,37
168,117,68,26,-13,0,-50,-95,-98,-15
-36,57,31,21,8,22,-9,-47,-46,0
-56,81,41,28,23,30,-23,-11,28,34
-14,21,34,25,16,30,-44,-18,16,48
-2,-12,20,8,13,28,-57,-29,-26,29
-13,10,16,10,34,65,-51,-35,-26,-1
-15,-39,-65,-8,29,68,-21,8,4,11
77,-63,-101,-20,27,61,8,39,13,15
126,-46,-127,-13,25,51,13,35,36,62
125,29,-163,-21,-3,16,-17,8,30,93
95,61,-33,-25,-12,-18,-48,-18,18,94
50,89,72,8,9,-28,-53,-46,-15,9
-7,16,-17,-27,-13,-26,-2,-2,43,45
-8,-68,-108,-103,-70,-53,-4,9,80,110
-70,-243,-189,-96,14,50,97,57,63,51
-195,-261,-108,83,179,201,188,59,-23,-150
14,127,113,189,94,35,-34,-131,-146,-153
53,106,36,73,-3,-48,-78,-94,-52,6
-18,-123,-180,-64,-33,6,34,57,90,97
-30,-73,-128,-11,22,49,63,-2,-12,-24
-30,120,83,121,55,-2,-40,-158,-153,-88
-48,111,188,153,68,9,-45,-156,-133,-46
-164,-28,93,112,80,78,39,-44,-45,-81
-127,-9,31,76,45,39,23,-40,-20,-51
-75,46,50,56,10,-11,-37,-52,5,0
-72,90,76,26,-7,-34,-41,-22,36,15
-4,139,86,18,-11,-62,-45,-54,-6,0
535,138,62,1,-28,-68,-61,-93,-20,90
1145,114,0,-60,-90,-115,-89,-114,-33,187
604,-100,-84,-157,-166,-174,-196,-159,-4,323
238,-211,-156,-114,-81,-52,-49,-39,81,266
-90,-179,-196,-9,45,78,40,27,107,85
-470,-55,-27,76,106,135,58,17,65,-49
-758,68,126,88,122,154,77,-1,15,-107
-746,161,144,56,93,123,61,-19,-9,-86
-690,53,69,21,95,141,109,80,85,-76
-685,-125,8,7,112,165,139,133,117,-107
-776,-76,146,113,193,170,110,68,33,-222
-695,-122,81,120,213,185,132,102,16,-273
-519,-357,-201,-48,120,161,172,194,100,-108
-467,-286,-90,13,137,137,96,55,-32,-195
-320,49,158,67,23,8,-69,-130,-179,-290
-297,7,72,0,-42,8,-13,-29,-54,-222
-86,74,33,-6,-15,31,13,5,0,-147
89,74,24,3,0,51,9,-20,-24,-111
11,7,74,36,23,69,51,-16,-30,-102
-95,14,84,42,39,85,81,-7,-19,-85
7,90,31,-1,15,43,40,-32,-26,-46
113,122,0,-15,-10,-12,-9,-50,-38,-39
134,106,18,-21,-8,-25,-43,-69,-31,-18
121,73,-2,-38,-8,-23,-56,-67,-26,1
93,35,15,-28,0,-25,-58,-87,-62,-21
109,58,42,-3,7,-49,-74,-101,-83,-23
136,59,5,-21,-6,-49,-69,-72,-32,30
100,-31,-77,-50,-2,-6,3,-2,19,54
97,-30,-69,-38,-9,-1,13,-2,11,18
92,-8,-38,-15,-9,-5,-8,-23,-5,10
143,-45,-80,-18,27,60,38,4,-2,24
199,65,-47,8,42,42,23,-9,-7,25
74,94,-8,17,2,-2,-14,-42,-19,18
66,132,47,-4,-67,-75,-108,-122,-67,45
75,153,157,73,-37,-61,-139,-162,-111,3
131,75,84,39,-16,-22,-81,-108,-67,17
211,-17,0,-28,-19,-17,-43,-47,-1,76
271,-10,-1,-34,-35,-30,-77,-66,3,114
275,142,64,3,-20,-35,-95,-99,-8,103
91,3,16,-21,-13,-1,-30,-40,17,92
40,-64,-18,-45,-31,9,-3,-11,41,114
111,-36,-25,-57,-44,-11,-11,-24,25,139
75,-17,15,-22,-30,-12,-21,-44,-16,68
-40,6,59,24,11,9,-6,-20,1,8
-71,-75,-6,-13,-2,17,28,29,34,17
105,-30,-25,-18,-8,4,7,-22,-31,-8
83,-1,9,8,31,40,-2,-33,-50,-40
5,-46,-11,-3,39,46,-7,-9,-28,-2
19,30,18,-13,7,-8,-53,-12,-31,0
0,76,38,-10,12,-11,-45,-18,-38,-24
1,50,9,-10,17,29,-16,4,-15,-8
72,14,-14,-24,9,38,-14,0,18,58
76,-20,-19,-39,3,24,-25,-10,28,84
27,-100,-100,-74,12,44,39,82,113,106
20,-231,-314,-114,41,115,154,215,233,171
78,-230,-368,-106,53,114,131,177,168,143
137,32,-4,1,33,0,-36,-35,-27,22
1,0,106,57,64,-13,-58,-67,-63,9
-22,-5,72,64,71,16,-34,-38,-57,-9
5,76,64,60,49,-18,-60,-42,-51,-8
-61,-35,1,11,49,-15,-26,10,-11,18
35,42,65,2,1,-51,-68,-40,-35,44
85,55,62,-8,-25,-58,-75,-46,-51,47
32,17,33,0,-3,-39,-43,-23,-46,5
-18,16,58,28,15,-41,-41,-23,-36,-8
4,30,66,30,4,-62,-55,-33,-55,6
42,12,33,-3,6,-52,-31,-22,-66,8
19,4,31,12,12,-35,1,-10,-55,-21
27,13,18,5,-1,-33,6,17,4,-5
91,0,-21,-36,-36,-60,-4,2,15,37
75,15,-10,-23,-32,-77,-12,-36,-44,6
72,54,34,-11,-29,-81,-48,-57,-64,-5
96,-71,-102,-106,-51,-40,-10,50,52,126
108,-94,-129,-121,-40,-19,10,77,76,136
-24,-33,-7,0,31,2,10,27,-2,-40
-70,-14,30,46,62,4,1,5,-31,-61
48,119,82,59,38,-35,-30,-21,-7,0
-11,45,22,-8,-8,-70,-26,20,48,44
-80,-78,-54,-27,6,-31,10,42,28,-10
-35,-6,20,44,58,-10,5,-28,-53,-72
55,72,40,55,25,-66,-31,-73,-86,-30
97,75,-71,22,-21,-86,-54,-71,-57,19
181,42,-135,-10,-42,-104,-38,-57,-15,71
319,11,-52,-19,-44,-102,-14,-18,25,91
399,-54,-38,-37,-56,-91,-25,9,26,93
377,-53,-78,-64,-61,-84,-39,-17,-20,98
175,-24,-2,-6,-22,-70,-67,-67,-66,1
-62,-38,21,20,-2,-42,-57,-51,-42,-84
-131,-138,-85,-2,25,28,38,90,63,-29
-97,-103,-65,16,53,69,70,99,74,-28
-84,65,32,41,34,27,0,0,25,-39
-188,108,77,49,47,31,11,9,67,24
-375,-32,21,13,51,36,32,44,66,35
-357,0,16,-2,24,21,34,32,31,-15
-297,-12,-1,-25,13,5,51,34,39,-40
-236,-92,-43,-55,-11,-6,75,70,85,-3
-93,7,28,4,20,3,46,31,34,-25
31,152,84,40,33,-2,11,-1,-1,-43
-85,48,58,9,37,33,91,82,77,-35
-115,-113,-49,-31,37,52,145,130,139,34
-93,-26,26,3,34,48,88,77,37,-27
-112,-6,67,22,51,54,58,73,11,-102
-46,-38,0,-13,30,30,40,69,35,-80
-83,-39,36,19,44,28,0,-24,-61,-143
-74,29,128,52,24,-27,-111,-124,-144,-143
20,-51,-25,6,16,-18,-60,-61,-69,-42
303,-126,-134,-37,-5,-23,-12,-12,-33,9
397,-48,-26,-35,-37,-67,-79,-77,-89,-5
199,-43,-16,-64,-68,-88,-115,-86,-69,22
143,-36,-53,-109,-107,-114,-100,-65,3,44
210,37,-70,-122,-111,-94,-78,-42,22,40
258,161,19,-49,-62,-72,-48,-55,-2,10
226,201,114,32,0,-35,-14,-50,-2,-37
17,91,72,49,66,47,108,71,88,-29
8,75,75,60,65,63,138,114,132,28
8,-35,22,31,51,62,125,111,97,24
58,-53,0,0,18,18,35,39,20,60
47,43,34,-9,-12,-26,-46,-27,-39,29
-189,-76,-13,-5,8,13,2,18,3,0
-243,-85,-20,-32,-30,-34,-18,26,39,68
-156,24,-2,-55,-77,-86,-87,-37,-6,67
-46,62,-45,-71,-93,-89,-93,-65,-33,-27
-4,-122,-206,-81,-45,13,37,54,40,-42
-68,-191,-107,-46,-28,25,6,46,67,26
74,-129,-43,-22,-31,-13,-58,-31,30,112
282,-28,-6,12,-36,-59,-98,-88,-31,96
67,-124,27,50,0,-18,-34,-21,16,78
-355,-237,29,75,67,53,65,55,62,54
-546,-153,51,78,79,65,65,63,41,-26
-433,29,99,53,53,38,43,29,-5,-100
-157,172,124,34,22,-1,9,-14,-52,-131
-10,195,122,31,0,-25,-9,-34,-84,-123
-56,119,82,32,4,-16,10,-11,-47,-89
-80,64,39,25,3,2,21,19,-15,-73
6,138,33,-6,-8,-7,0,2,-15,-63
32,171,54,-13,-14,-17,-5,5,-3,-42
-43,129,58,-1,-10,-6,18,35,30,-32
-110,52,34,-10,-12,4,40,45,16,-22
-63,-31,-30,-43,-35,10,58,51,19,16
50,-59,-80,-72,-43,19,61,52,34,49
159,76,8,-29,-41,-10,11,-9,-28,10
85,89,17,10,-26,-36,-44,-35,-53,-20
-64,-25,-46,-20,-34,-5,-18,21,-12,-10
36,-42,-66,-61,-59,-5,-15,25,29,72
91,42,-66,-23,-55,-21,-58,-38,-29,31
110,61,35,-10,-72,-49,-80,-61,-38,23
90,8,29,-26,-62,-39,-54,-45,-28,13
56,2,18,-28,-43,-25,-26,-15,-32,-25
33,-37,-17,-38,-15,-12,10,17,0,-1
80,-103,-114,-73,-33,-15,14,24,28,77
75,-41,-133,-32,-16,11,23,25,11,41
2,65,24,48,-6,-25,13,-10,-26,-25
-30,54,107,66,-26,-44,-11,-33,-33,-13
17,12,44,11,-38,-30,6,0,-3,26
36,-56,-34,-30,-55,-26,6,44,24,55
27,-149,-116,-47,-33,17,73,114,94,74
60,-87,-81,-25,-17,21,57,70,76,75
64,45,25,10,-27,-36,-23,-37,-44,1
46,109,69,25,-35,-57,-27,-38,-35,23
34,35,-25,-40,-58,-61,-2,33,41,101
57,36,1,-29,-59,-88,-22,-1,18,106
31,85,110,70,-16,-67,-49,-77,-52,37
-73,7,47,47,-18,-17,-6,-31,-58,-19
-66,-16,12,5,-41,-31,5,13,-7,13
59,16,-25,-2,-47,-39,-25,5,-11,-38
58,-13,-130,-17,-37,-51,-11,25,30,6
65,-12,-34,-11,-4,-47,-16,16,15,-21
151,12,86,52,31,-48,-57,-31,-60,-57
290,47,55,28,0,-90,-95,-70,-81,-20
435,29,8,-50,-48,-121,-109,-86,-55,22
429,-25,-55,-80,-57,-87,-50,-69,-52,20
393,49,-3,-52,-49,-73,-40,-78,-66,52
185,-8,-20,-38,-24,-33,19,19,52,103
48,-66,-45,-13,20,6,70,75,108,119
-73,1,15,19,22,0,24,12,17,52
-208,25,43,33,19,-19,3,20,18,56
-261,-6,54,61,49,5,45,40,45,34
-346,-14,54,76,61,19,63,39,30,-50
-344,7,48,80,49,21,58,22,-22,-145
-251,-47,-44,21,32,49,106,95,34,-91
-240,-266,-187,-20,48,86,177,193,153,48
-148,-63,14,70,68,28,80,31,8,-54
-115,115,158,114,50,-38,-22,-83,-93,-130
-96,16,5,55,27,-48,-14,-64,-49,-65
-53,-20,-98,18,28,-32,21,-30,-1,-30
-52,-113,-69,-5,39,11,57,38,42,6
-7,-4,75,37,31,-3,-2,-7,-7,-9
30,93,134,50,11,-29,-58,-64,-38,-16
-39,47,91,34,6,-20,-57,-52,-12,12
-19,15,45,0,7,-17,-44,-40,10,53
19,28,22,-11,11,-1,-27,-25,10,52
19,46,41,16,34,18,10,-16,3,63
40,21,83,22,17,-16,4,-31,4,75
167,12,44,1,-14,-36,-6,-40,-13,75
217,35,-50,-14,-1,-27,0,-23,9,47
95,56,-106,8,16,-1,30,-1,37,-30
-19,26,-10,19,19,4,15,-15,0,-97
-60,-73,9,0,11,19,33,6,1,-76
-62,-117,-6,-11,12,15,50,45,14,-47
-58,-103,16,6,34,42,34,46,2,-85
-76,-88,10,12,28,35,20,25,-9,-97
-19,-96,-33,-33,-6,6,7,17,-9,-71
96,-68,-64,-67,-28,14,9,40,19,-16
204,5,-13,-36,-43,-18,-39,10,6,7
262,35,-18,-46,-55,-26,-58,8,5,28
244,6,-119,-88,-32,13,0,87,60,58
140,-102,-192,-98,0,75,92,156,148,129
125,-70,-106,-52,-4,50,31,78,95,152
95,7,6,9,14,4,4,1,17,111
-56,66,127,71,43,4,-4,-45,-54,1
-149,41,131,65,33,-4,-42,-47,-47,-4
-154,11,84,33,11,-17,-54,-53,-41,-3
-141,-7,33,-8,-11,-46,-65,-58,-45,-16
-89,53,7,-53,-30,-52,-66,-43,-39,-30
31,159,11,-71,-55,-88,-104,-108,-80,-59
184,235,17,-73,-99,-152,-174,-182,-166,-76
226,167,-53,-67,-98,-146,-171,-170,-151,-45
133,41,-214,-89,-57,-79,-70,-56,-26,46
82,8,-213,-77,-20,-1,5,18,33,51
-68,-96,-160,-36,25,57,51,72,43,0
-72,-88,10,56,85,74,49,38,-2,-86
127,-1,18,89,92,79,41,9,-23,-104
306,17,24,66,82,102,65,33,2,-67
430,76,134,59,36,62,16,-3,-12,8
386,44,105,29,18,38,21,11,10,49
401,72,96,16,4,23,24,21,19,72
407,154,114,7,-25,-18,-28,-19,-5,96
209,136,32,-2,-38,-32,-43,-16,-7,88
-69,46,16,-7,-32,-17,-6,5,11,34
-363,-82,-3,-25,0,36,75,82,68,9
-530,-150,-22,11,61,97,128,130,72,-55
-336,1,106,50,14,7,24,26,0,-67
-273,8,116,17,-27,-31,8,28,53,17
-454,-165,-3,-20,6,25,91,108,130,33
-418,-147,-32,-19,15,37,97,87,77,16
-196,18,41,-5,-8,-14,15,-13,-22,-38
-167,7,14,-13,-21,-12,12,-18,-16,-35
-336,-19,50,31,21,42,57,36,37,-27
-437,-6,86,70,52,62,63,60,18,-74
-375,-11,41,39,32,59,71,71,33,-78
-279,-1,13,7,10,37,59,59,20,-72
-184,-38,12,-8,8,41,44,63,7,-69
-6,-54,3,-15,-2,29,44,73,10,-54
92,-8,-14,-28,-30,-13,-6,37,-10,-34
-97,-150,-103,-27,45,52,82,100,36,-32
-58,-175,-79,-9,56,68,127,103,58,-5
76,5,-107,-25,-43,-45,24,31,32,43
15,-29,-134,-17,-46,-62,10,33,46,25
0,-71,-35,10,-9,-35,7,23,18,4
102,27,76,5,-22,-50,-50,-46,-26,41
49,22,66,18,6,-17,-33,-51,-81,-30
14,1,26,0,15,-6,-3,-29,-58,-53
45,103,46,-14,-25,-52,-14,-53,-51,-55
38,76,5,4,-16,-42,-19,-30,-37,-32
67,97,23,1,-24,-45,-36,-27,-5,-5
81,122,49,7,-11,-40,-16,-22,-14,-14
98,67,21,0,-9,-26,16,0,2,25
128,-37,-118,-47,-19,-12,39,34,4,64
143,-38,-140,-64,-24,4,54,37,-2,48
111,-30,-50,-57,-19,-11,33,26,9,42
91,-14,-2,-13,-11,-16,9,-7,-5,21
48,111,106,31,-8,-60,-52,-68,-78,-35
-29,61,103,34,0,-47,-33,-50,-54,-31
17,58,55,26,-12,-52,-70,-63,-63,-22
89,47,-12,7,-38,-61,-98,-53,-44,24
48,-4,27,0,-47,-53,-72,-43,-23,43
16,-40,11,-1,-23,-18,3,-26,-12,19
14,-16,16,13,-2,0,18,-23,-14,16
-25,0,63,27,-2,-34,-16,-69,-38,15
-24,43,54,27,6,-30,3,-62,-20,22
-13,33,-53,-6,0,-12,10,-51,-2,50
19,-13,-97,-10,-8,4,0,-36,32,54
150,-2,-78,23,-6,-7,-30,-47,26,74
193,21,-39,49,7,-20,-48,-72,-7,36
112,-32,-5,40,18,-10,-10,-55,-18,0
125,-20,-54,15,-16,-27,-26,-63,-18,40
155,29,-103,-11,-62,-50,-47,-49,13,103
103,-46,-115,-67,-52,-13,25,41,95,130
-1,-25,-73,-90,-41,-9,-6,3,59,57
-126,17,43,-47,-11,-14,-40,-41,-6,-67
-90,7,-12,-43,-5,-10,-33,-36,-7,-67
51,24,-26,-38,-13,-21,-41,-56,-46,-63
39,21,-5,-24,-20,-19,-44,-47,-59,-99
-64,-4,31,-24,-24,-22,-33,-25,-17,-89
-93,-7,38,-11,-6,-8,-16,0,-1,-71
-78,-27,31,9,10,33,17,10,23,-20
-65,-76,5,10,26,53,47,17,39,5
-29,-55,8,0,12,45,48,10,-5,-30
-4,9,45,-9,9,28,24,0,-36,-54
-4,52,85,14,7,14,1,-1,-8,-26
-64,-3,68,8,-6,23,0,49,41,15
-53,-31,33,-12,-17,18,-9,58,59,20
-18,10,11,-27,-13,33,2,51,93,52
-33,17,28,-11,11,29,10,26,65,12
0,1,54,18,18,34,6,10,16,12
7,-35,-1,-19,-23,13,40,37,45,73
-6,-80,-54,-53,-23,35,62,51,53,86
61,0,-72,-30,-24,5,25,-20,-17,60
21,-112,-126,-36,3,39,76,31,14,34
113,-131,-160,-29,16,50,89,44,0,-8
268,-39,-48,-45,-22,-16,12,-24,-20,22
198,12,13,-44,-44,-51,-40,-49,-20,25
104,27,48,-19,-31,-40,-89,-92,-52,-6
134,1,18,-31,-30,-38,-83,-80,-40,6
165,40,50,-3,-34,-42,-81,-62,-40,22
146,13,43,-8,-27,-18,-45,-23,17,95
55,-35,-11,-40,-17,9,-4,42,102,132
-93,-78,-50,-55,-24,21,6,80,123,97
-214,-103,-21,-5,20,58,45,65,92,31
-183,-50,2,32,56,98,61,14,6,-71
-134,39,28,9,18,40,-11,-30,-3,-13
-115,101,50,14,-11,-15,-76,-90,-22,4
-197,76,54,43,3,-7,-48,-80,-41,-89
-182,34,38,48,19,13,-8,-36,-26,-98
-52,47,-50,35,10,20,15,-25,18,-38
31,98,-67,26,-6,-19,-3,-69,-13,-29
26,21,-19,2,-5,-19,-13,-80,-68,-64
102,-16,-45,-26,-18,-26,-15,-71,-75,-52
445,-20,-42,-52,-47,-33,-8,-76,-68,-15
863,5,-60,-59,-75,-48,-36,-81,-67,51
1219,40,-75,-55,-83,-52,-78,-81,-69,118
1102,78,-33,-65,-91,-68,-106,-102,-67,173
500,54,-18,-67,-88,-88,-132,-144,-87,180
61,15,11,-54,-79,-85,-123,-138,-52,257
-110,45,59,-8,-46,-56,-84,-94,0,236
-267,41,58,22,-20,-20,-13,-48,26,112
-320,2,49,34,23,38,43,19,84,59
-455,-44,35,66,71,115,91,112,135,-28
-742,-135,-28,108,117,168,152,177,134,-143
-769,-208,-57,144,146,178,179,159,93,-218
-484,-94,99,133,108,100,73,47,18,-209
-527,-92,82,96,82,109,86,70,16,-240
-630,-7,99,111,90,112,100,33,-35,-285
-552,11,87,64,53,62,71,-13,-60,-215
-561,-110,39,20,31,43,95,26,-14,-159
-484,-131,18,3,31,26,88,41,12,-119
-332,-93,-83,10,40,43,92,65,37,-83
-129,9,-99,11,29,45,89,62,49,-35
35,93,1,9,14,25,62,39,30,-31
-43,10,-20,21,34,55,70,49,30,-43
-162,-88,-4,22,55,72,96,68,29,-63
-47,-19,46,13,33,46,57,48,12,-42
69,1,3,3,29,55,70,62,27,-13
66,-44,-97,-22,34,73,97,95,42,19
98,36,-79,-16,14,26,9,34,-6,10
105,147,90,22,0,-37,-88,-58,-80,-30
62,92,60,-10,-4,-20,-63,-17,-24,-11
96,78,-35,-68,-34,-9,-48,18,7,33
175,90,-11,-68,-59,-31,-59,3,-7,67
158,87,32,-50,-41,-30,-64,-3,-17,41
75,-4,11,-17,-4,-12,-41,17,-3,28
85,-37,-126,-10,-16,-6,-30,36,35,60
149,16,-119,-24,-21,-6,-18,37,65,86
122,23,44,13,-5,-21,-35,8,23,71
46,4,109,31,-6,-17,-48,-36,-40,10
56,-24,79,6,-28,-21,-35,-32,-27,13
77,-66,52,0,-23,-14,-17,-21,-4,41
92,-56,35,-1,-6,13,-10,-20,-22,26
25,-31,6,-26,-15,12,6,6,-19,-6
105,116,49,-23,-40,-43,-24,-50,-37,19
135,138,60,-14,-62,-75,-77,-76,-73,10
135,104,-17,-21,-43,-48,-59,-41,-60,-26
131,92,24,-3,-8,-35,-32,-27,-50,-22
68,55,48,0,0,-14,1,-6,-14,21
-41,19,38,7,8,-1,21,19,31,42
-52,-3,33,-5,6,-4,21,22,29,41
-22,4,17,-16,-17,-13,26,16,23,21
-1,5,-10,-24,-32,-21,26,0,28,23
13,-15,-79,-24,-29,-17,34,-6,12,21
52,-12,-81,-23,-30,-29,30,-15,16,19
48,-30,-56,-42,-36,-16,27,-15,30,43
67,-25,5,-43,-16,-14,30,-29,21,46
28,3,49,-11,1,-7,18,-38,8,9
-45,-51,23,-7,27,5,36,3,35,2
-23,-60,-28,5,125,52,66,31,58,29
-26,-20,-24,23,167,39,13,3,47,15
-31,-17,-14,12,115,0,-21,-23,13,-27
-38,-125,-53,-4,77,41,39,1,1,-46
44,-101,-53,-13,12,56,72,28,22,-10
82,30,35,7,-34,25,47,20,0,5
73,33,64,17,-35,-16,25,15,6,5
11,-38,0,16,-65,-5,38,58,53,21
-16,-89,-144,-23,-140,-36,37,60,68,85
7,-54,-125,-36,-124,-29,17,15,-12,43
29,16,14,0,-73,-24,-1,-23,-48,19
27,34,62,16,-45,-18,-11,-46,-51,5
41,84,72,11,-61,-39,-68,-67,-65,7
28,67,55,3,-70,-33,-58,-63,-44,30
-6,56,34,2,-38,-24,-36,-45,-31,14
-23,67,8,-7,-22,2,-18,-8,-12,6
-3,25,7,-22,-34,-3,-11,-1,-15,24
29,-4,-14,-11,-38,-6,11,-3,-26,14
59,-6,-82,-23,-30,-20,-8,-12,-27,5
52,-64,-108,-70,-40,2,11,15,-2,7
31,-144,-135,-86,-20,51,95,83,75,39
95,-89,-42,-49,-14,4,74,36,59,57
177,105,82,-12,-18,-56,-16,-57,13,32
22,136,80,15,-26,-72,-32,-65,-27,-33
-117,-11,-28,-16,-62,-58,11,4,8,0
-121,-45,-18,-14,-45,-31,7,11,-14,-4
-62,-13,-6,-15,-36,-35,-24,-23,-27,23
-62,-34,-18,-26,-45,-27,-35,-12,-33,-23
-24,-30,-31,-9,-28,-7,-41,-6,-54,-74
3,-5,-69,10,-18,-4,-39,-13,-54,-49
10,15,-6,13,-7,8,-31,-10,-50,-44
60,-27,-12,0,-25,15,-28,1,-30,1
207,-6,-3,-1,-6,5,-34,-16,-48,20
264,-35,-41,-7,7,32,-8,-4,-58,20
234,-60,-27,2,23,24,-2,0,-43,43
115,-72,15,22,37,24,-7,-14,-37,26
-34,10,106,35,22,-4,-37,-45,-67,-44
-217,19,119,48,52,11,11,9,-21,-63
-320,19,93,65,74,52,51,47,36,-63
-323,0,51,45,53,18,34,38,29,-74
-253,-32,35,51,49,6,20,30,14,-44
-177,-20,44,33,36,9,1,26,16,12
-56,-69,-19,-6,28,-11,-14,16,17,58
205,-64,-42,-54,0,-54,-31,-28,-13,61
441,29,-9,-65,-49,-124,-95,-108,-90,17
443,-35,-80,-93,-71,-120,-63,-88,-75,22
394,-51,-158,-93,-59,-80,-47,-83,-64,12
314,19,-28,-41,-34,-80,-115,-114,-89,-10
249,23,47,6,6,-39,-98,-61,-40,62
180,72,34,24,41,18,-43,12,48,157
-72,48,-15,27,64,44,16,75,121,174
-362,15,26,43,79,67,46,81,125,76
-341,14,46,54,86,61,51,67,127,4
174,29,46,46,49,12,13,20,76,1
743,31,2,3,-14,-46,-65,-36,-29,-30
910,16,-62,-47,-64,-80,-93,-67,-78,-53
876,54,-69,-81,-92,-117,-105,-110,-95,-54
477,43,-65,-88,-92,-106,-66,-103,-80,-37
-21,21,-53,-62,-61,-50,-22,-40,-23,-5
-419,-45,-48,1,12,17,39,35,35,-5
-821,-102,-22,60,95,109,143,127,139,-31
-1098,-71,62,148,173,173,185,161,170,-166
-1081,-49,123,193,174,187,154,161,136,-262
-1041,-95,138,206,170,223,181,186,141,-218
-809,-90,127,169,151,202,171,157,117,-138
-550,-68,66,103,104,124,117,102,87,-73
-393,-40,31,52,54,70,69,59,50,-62
-291,6,49,44,34,50,21,22,56,-38
-219,-37,18,24,8,39,19,39,76,23
-193,-86,-10,18,1,36,26,59,82,26
-151,-98,-8,-2,4,6,21,50,69,9
-108,-93,-20,-16,2,7,28,47,47,-16
10,39,17,-4,-7,-23,-22,-22,-14,-27
135,189,24,6,-30,-67,-81,-96,-56,20
78,171,80,28,-11,-65,-71,-97,-54,-5
5,155,98,28,3,-51,-51,-73,-12,-33
9,69,42,10,1,-35,-41,-68,-27,-31
108,21,-58,1,-12,-40,-51,-82,-53,20
140,31,-79,-2,-5,-36,-35,-74,-36,31
111,-14,-30,-6,8,-6,-7,-39,0,20
168,0,-30,-9,7,4,-6,-47,-13,24
215,39,-74,-3,-1,-24,-3,-62,-39,27
126,-1,-62,12,24,-1,19,-39,-24,13
0,-25,11,24,38,24,15,-13,-37,-32
-58,-83,-52,17,50,37,27,24,-18,-40
-29,-98,-122,20,37,49,20,38,27,-3
27,-73,-63,4,17,32,23,32,43,39
46,-107,-60,-34,3,12,62,65,71,70
30,-128,-59,-29,20,24,77,92,85,49
87,37,52,22,19,-14,13,17,7,-10
194,174,82,7,-19,-81,-67,-34,-3,15
174,81,-23,-34,-17,-37,-30,-4,-4,24
148,23,-20,-19,1,-25,-17,-2,15,78
123,41,0,-3,-18,-28,-62,-26,-10,61
109,19,12,21,-65,-22,-44,-34,-36,28
142,37,-7,37,-138,-39,-50,-56,-61,26
105,-21,-88,11,-182,-18,-44,-25,-55,12
52,-4,-51,7,-189,12,-17,10,6,15
42,34,-7,-22,-72,14,0,38,65,59
79,15,5,-27,207,50,7,33,50,100
123,35,43,-35,310,41,-24,-24,-18,81
86,31,38,-101,108,10,-16,-23,-35,44
52,49,53,-107,8,-5,-3,-6,-39,22
57,74,53,-33,-16,-18,-44,-25,-54,-2
14,-10,6,27,-19,-20,-33,-11,-38,-25
12,-8,44,56,13,0,-23,-8,-35,-21
56,54,89,54,1,-34,-56,-30,-63,-36
32,33,61,14,-20,-50,-38,-20,-49,-31
35,6,24,-13,-29,-42,-6,8,-8,5
77,15,15,-18,-17,-36,-11,10,5,8
118,4,-20,-21,5,-2,31,37,-6,4
193,-5,-25,2,19,15,56,60,-8,35
205,52,25,-6,-6,-46,-3,5,-23,47
163,59,-28,-33,-15,-69,-46,-30,-37,40
66,19,-25,-33,-19,-53,-39,-43,-51,-3
44,1,-10,-39,-35,-49,-44,-29,-33,18
2,-20,-36,-40,-36,-30,-32,20,14,43
-126,-46,1,-12,-8,7,-8,36,18,-39
-110,46,21,11,2,8,-27,4,-27,-92
-87,27,-65,11,-6,0,-21,16,14,22
-61,-16,-23,0,15,13,29,43,48,75
-41,19,15,0,11,0,53,38,23,47
-62,-17,-21,-1,14,9,57,46,42,19
-24,-59,-76,-11,10,-1,54,35,34,51
-5,-43,-20,-24,-1,-8,38,11,14,30
-43,-57,-18,-29,-4,-5,33,42,13,35
-7,-62,-44,-35,-14,1,36,54,27,62
27,34,-33,-22,-31,-65,-38,-20,-18,30
-40,-50,-159,-16,4,-51,-40,-7,16,6
-36,-63,-79,-6,22,-41,-29,-17,7,4
-73,-30,20,6,13,-21,-17,-17,-11,-34
-47,24,24,-12,-6,-11,-17,-9,14,-25
1,74,11,-67,-41,-14,-27,-11,33,11
-20,-22,-43,-77,-37,4,-1,32,37,11
7,24,-7,-50,-26,4,-29,26,7,6
-16,110,74,-3,-8,-12,-40,9,30,39
-54,90,125,48,8,-25,-65,-48,-18,7
21,81,97,24,1,-24,-79,-68,-57,0
107,51,47,-31,-21,-31,-64,-28,-26,29
48,-50,2,-34,-12,-10,8,31,20,39
-36,-86,-28,-6,12,28,63,64,11,-27
-28,-53,-10,-17,-7,18,30,43,13,-24
7,-36,0,-31,-11,2,-1,36,37,-23
37,-73,-12,-37,-28,-19,-30,-14,-15,-75
147,-66,-14,-38,-56,-43,-79,-69,-105,-103
291,9,-27,-56,-76,-46,-76,-60,-114,-89
308,33,-67,-30,-30,-5,1,-10,-71,-42
294,-10,-124,-15,23,49,59,54,-15,-12
229,-12,-119,-29,14,46,50,67,21,53
32,16,-6,-11,2,13,-7,4,1,85
-55,20,-26,-37,-18,-27,-73,-57,-37,65
-156,-79,-90,-69,-29,-13,-46,-27,-37,0
126,-34,-30,-56,-46,-48,-52,-52,-19,49
615,45,24,-46,-56,-80,-58,-83,-16,109
654,76,83,-2,-12,-37,-27,-62,-38,59
461,74,71,0,-11,-27,-33,-28,-16,106
275,31,29,-28,-9,-15,6,9,33,148
108,22,12,-16,1,0,53,16,62,105
-53,2,44,11,14,1,44,-5,9,6
-252,-68,42,43,47,28,60,6,-47,-111
-278,-25,61,50,26,12,12,-20,-71,-124
-168,2,59,7,-21,-26,-52,-36,-63,-59
-67,-39,-22,-54,-65,-39,-60,-10,6,75
-111,-105,-39,-56,-50,-12,-19,42,88,158
-393,-46,58,10,-16,13,-24,35,80,100
-685,0,98,38,3,21,-28,40,92,56
-701,-30,65,32,0,31,0,50,96,13
-488,-38,32,22,-18,33,15,47,58,-49
-177,-13,-42,8,-10,30,16,38,7,-69
-79,32,20,31,42,54,39,59,0,-108
-228,44,83,76,87,94,72,85,-12,-234
-333,-1,26,97,117,110,96,87,-35,-325
-419,-80,-3,104,126,104,109,90,-39,-346
-396,-112,-59,78,98,100,118,90,-40,-294
-331,-70,-3,69,67,94,105,83,-25,-226
-275,-38,36,56,53,79,79,78,-8,-164
-231,-27,9,51,35,70,58,63,4,-120
-86,-15,-54,2,-4,37,25,51,13,-69
-28,-23,-7,-31,-12,33,48,57,35,-56
6,-23,-33,-36,-4,52,111,94,94,-7
31,-9,-26,-27,-12,43,84,66,38,7
68,15,16,1,-14,31,-3,9,-18,-3
63,18,32,17,-15,31,-12,-3,-5,-3
82,34,60,22,-22,29,-1,-33,-22,25
21,-27,63,14,-6,33,17,-13,-1,47
60,-41,9,-17,-18,31,15,5,31,65
56,-71,-22,-21,-11,27,6,17,4,28
81,-21,22,9,-32,-1,-47,-11,-10,32
145,12,9,-12,-42,-37,-58,-13,5,56
205,74,17,-22,-35,-45,-58,-30,-6,52
147,56,26,-10,-24,-45,-38,-12,1,36
106,63,27,-20,-23,-48,-30,-17,6,24
119,113,12,-34,-10,-45,-9,-48,-13,12
135,120,-85,-20,13,-8,-4,-22,7,13
95,-3,-135,-13,38,17,18,15,10,30
110,45,0,-6,17,-10,-25,-7,-25,21
137,100,55,-4,-7,-44,-66,-48,-51,-14
77,24,33,2,58,-6,-45,-28,-31,-7
106,-5,5,-1,142,-8,-66,-48,-16,66
72,-23,-32,0,144,-16,-65,-46,-6,55
43,-13,-47,-17,73,-6,-44,-26,5,30
44,8,-9,-13,29,-10,-26,-24,-9,16
57,26,28,-15,-31,2,-8,11,6,41
81,50,36,-26,-52,-30,-18,12,17,49
72,24,18,-13,-77,-74,-33,-5,-5,32
56,-37,-5,12,-89,-48,10,16,-8,22
134,29,-8,-2,-116,-54,-14,3,-8,67
186,88,-74,-43,-106,-69,-53,-41,-28,86
148,36,-42,-34,-67,0,-32,-19,-36,60
47,-54,-4,-24,-34,75,8,23,23,70
44,-69,-19,-5,-55,89,25,38,39,55
77,-55,-14,8,-118,77,58,20,24,41
58,-27,0,7,-188,51,36,-22,-21,16
-8,-100,-82,-52,-281,26,31,-5,-12,38
40,-114,-202,-107,-275,41,45,34,40,86
-6,-48,-152,-37,156,95,94,50,35,-14
16,55,84,79,410,50,26,-44,-36,-47
68,87,152,98,126,-89,-106,-127,-99,-18
102,74,89,41,-73,-148,-117,-105,-77,-11
268,62,23,-22,-83,-134,-79,-61,-41,45
546,86,2,-58,-84,-158,-119,-86,-50,104
524,76,-29,-44,-87,-152,-129,-96,-80,103
298,1,-49,-45,-77,-99,-40,-30,-29,102
111,-4,-30,-30,-69,-61,2,-3,-16,40
44,-30,-141,-49,-98,-53,2,2,-5,49
-157,-84,-171,-16,-78,0,33,59,56,96
-395,4,79,53,-23,29,62,46,71,31
-523,86,161,84,44,46,58,-8,9,-117
-587,18,108,69,216,122,111,36,0,-213
-421,10,96,49,215,123,97,56,-1,-176
-218,43,95,47,107,70,24,31,-14,-96
-145,0,15,21,27,16,-3,49,20,-43
-107,-31,-3,-7,-11,-5,-13,38,27,-48
-59,-16,-10,0,11,-12,-8,28,-5,-41
-58,-40,8,23,32,1,14,41,0,-21
-58,-62,21,40,25,7,19,47,0,-22
-44,-22,15,30,21,-12,-11,20,3,-33
-21,0,-37,23,18,-19,-8,29,52,-12
-9,-18,-9,9,18,-6,27,40,70,9
-10,-64,0,2,19,10,40,21,32,7
163,-66,20,12,17,3,-12,1,1,5
355,-9,-4,30,29,8,-29,-15,-12,9
227,-42,-93,15,39,20,4,9,6,20
86,-44,-16,5,37,32,38,6,-18,17
58,74,36,7,7,-10,0,-43,-50,5
-29,101,7,-6,-1,6,27,-4,8,26
-163,33,-38,-19,8,32,70,35,65,21
-240,3,14,7,30,18,45,7,6,-31
-197,3,30,15,35,42,38,-2,-8,-24
-70,-28,-8,4,25,17,36,10,39,63
41,47,35,0,-9,-56,-17,-55,-30,30
-2,119,121,54,12,-45,-23,-83,-59,-63
-116,52,29,39,28,-5,36,3,57,4
-86,62,-74,-3,1,-33,23,11,81,33
-116,15,-29,-32,-15,-38,-14,-13,24,-49
-137,3,0,-39,-20,-47,-38,-30,-12,-68
-60,-31,-41,-55,-14,-37,-28,-14,7,-16
202,-29,-53,-77,-43,-51,-27,-29,-5,1
593,-54,-105,-101,-81,-55,-27,-13,23,64
736,-118,-191,-89,-48,-13,26,28,67,85
600,17,-89,-47,-36,-31,-10,-19,18,79
389,135,71,-15,-82,-98,-115,-132,-101,33
153,98,78,-9,-83,-91,-127,-124,-113,32
-1,52,19,-26,-56,-32,-98,-61,-41,110
-143,33,-20,-16,-23,5,-48,13,28,154
-305,15,-9,48,32,56,5,45,42,67
-341,5,107,104,86,100,53,59,26,-30
-340,17,158,125,101,89,57,41,-2,-109
-303,-53,53,58,59,44,31,12,-37,-106
-317,-134,-83,-27,14,11,26,-29,-88,-109
-215,-53,-48,-23,-20,-49,-28,-118,-134,-103
74,-43,-61,-17,-32,-54,-27,-96,-91,-47
486,32,-39,-43,-60,-64,-29,-76,-47,19
587,56,-14,-69,-68,-55,-26,-64,-33,-22
477,73,16,-43,-44,-29,-11,-60,-40,-56
0,73,86,46,17,31,44,-9,18,-17
-362,48,118,81,62,60,76,45,86,-6
-425,-2,68,59,74,90,83,72,74,-42
-465,-72,40,44,81,128,132,96,53,-62
-513,-72,93,68,101,130,133,71,38,-65
-492,-114,92,102,153,142,145,81,46,-64
-378,-99,50,78,139,124,128,87,56,-71
-356,-90,-18,47,90,94,86,94,81,-46
-298,-93,0,48,66,68,40,78,56,-14
-182,-105,10,26,48,59,33,66,40,21
-135,-114,5,12,33,50,20,60,37,28
-113,-98,0,2,15,37,23,47,31,3
-72,-81,-7,-4,-2,29,52,53,31,0
-1,0,-11,-6,-26,3,55,58,29,-3
78,104,-7,-18,-27,-7,30,42,3,-23
143,168,19,-16,-35,-32,-28,-17,-27,-17
121,117,18,-22,-36,-26,-58,-31,-22,14
84,2,-28,-36,-24,6,-16,3,3,8
57,-28,-36,-33,4,34,17,17,-14,-44
111,-2,-15,-16,2,15,-7,-3,-8,-13
155,14,24,3,6,3,-47,-43,-10,16
175,40,16,-7,-6,-9,-50,-52,-32,-8
147,24,-45,-41,4,27,26,30,16,3
65,14,-24,-21,0,26,81,65,78,30
11,29,34,0,-2,-4,32,1,27,20
84,98,84,17,-3,-38,-33,-92,-85,-38
114,111,94,40,5,-34,-31,-101,-104,-41
60,22,16,-11,-17,-40,-12,-32,-29,52
41,-32,-46,-39,-19,-30,3,-6,-21,51
58,-21,-120,-41,-22,-52,-5,-16,-26,41
43,-16,-34,-36,-20,-58,-22,-30,-31,35
46,-27,-2,-32,-26,-40,-9,-8,-27,39
85,-32,-11,-32,-12,-26,-4,0,-22,53
132,-31,-7,-28,-1,-19,-11,0,-10,79
95,-22,-8,-2,25,25,-8,32,6,34
52,-40,-15,-10,6,1,-45,24,11,28
82,-20,-6,-21,-19,-17,-66,0,-2,46
31,5,25,-15,4,12,-11,5,18,-8
-6,-22,4,-12,10,7,7,1,3,-52
35,-106,-91,-36,2,23,15,37,34,9
34,-109,-106,-34,24,48,23,65,37,-5
-6,-11,30,48,36,5,-37,5,-18,-58
28,28,68,70,17,-38,-96,-15,-11,43
-2,-36,20,68,29,-5,-61,2,7,59
-80,-37,4,63,36,12,-34,-1,-3,-6
-66,14,25,41,-13,-29,-41,3,24,11
29,11,-13,10,-29,-45,-58,-8,2,23
-11,-41,-38,-43,-20,-23,-48,-4,1,-1
18,-26,5,-80,-22,-16,-34,11,29,13
60,-4,-18,-72,-23,16,-23,24,14,22
37,58,50,-21,-19,2,-39,-4,-38,-20
40,86,73,8,-17,-3,-31,-23,-59,-18
25,38,5,1,-12,-2,-10,-21,-22,12
11,5,-23,4,-5,6,-29,-34,-8,0
19,-7,8,-1,-2,17,-41,-21,4,-8
12,-5,14,5,-9,8,-42,-9,8,-11
22,2,7,6,-6,-2,-34,-6,-1,-12
33,0,-48,-2,-10,-13,-31,-5,-8,-10
28,4,-92,-9,-21,-19,-24,-8,-1,-8
39,11,-1,0,-37,-11,-12,6,17,-5
184,48,-7,-4,-42,-9,19,26,50,13
373,44,-38,-9,-45,-11,40,18,29,29
273,10,-18,-9,-49,-31,21,-15,-20,26
122,4,-19,-19,-52,-23,12,-13,-27,33
81,21,-12,-31,-56,-36,-13,-6,-13,32
64,23,-12,-19,-30,-35,-22,-7,4,13
-38,0,-15,-2,-7,-16,-25,-5,15,-13
-254,-15,6,26,8,18,5,24,28,-30
-365,-35,18,32,26,22,33,34,48,-54
-239,-24,-1,-2,10,24,54,20,52,-23
-95,-34,-94,-44,-30,-4,52,12,28,26
-34,-56,-170,-47,-36,1,56,1,16,35
-88,-50,-54,8,-2,36,57,-6,-16,-16
-102,8,25,52,-8,-1,8,-49,-32,-9
-55,-1,20,56,2,-21,-31,-60,-33,34
-44,-14,42,45,-3,-27,-48,-45,-26,40
69,52,53,13,-45,-78,-89,-60,-32,48
228,85,-33,-9,-65,-95,-101,-71,-24,78
442,106,-71,-21,-70,-92,-95,-68,-29,109
667,74,-12,-23,-60,-54,-64,-23,-24,118
842,46,-36,-57,-75,-65,-74,-44,-36,133
966,144,-25,-106,-140,-158,-182,-164,-94,145
690,135,-30,-75,-116,-144,-171,-162,-114,100
372,37,-8,-14,-35,-52,-64,-67,-61,89
172,-17,9,24,30,25,-2,-14,-31,99
60,-11,37,41,54,47,18,9,-5,107
-126,-66,55,69,89,87,58,49,36,67
-469,-165,-17,53,95,105,107,84,63,-1
-829,-142,-5,29,54,61,76,37,10,-105
-1001,-136,2,24,46,50,57,4,-24,-147
-963,-53,58,65,68,58,54,0,-48,-217
-747,-41,60,79,74,51,62,45,6,-171
-449,-11,73,81,67,36,48,50,40,-105
-202,38,33,55,47,17,31,19,32,-91
-158,-9,19,44,44,27,59,39,40,-73
-397,-101,-23,49,62,54,103,69,57,-127
-401,-53,30,54,53,43,72,31,1,-197
-295,-43,35,41,35,25,75,48,25,-159
-219,-108,-22,21,22,29,82,64,37,-127
-138,-115,-110,-6,15,53,68,76,44,-112
-55,-73,-144,-8,1,33,31,69,56,-67
10,-30,-139,-4,-12,3,10,44,43,-35
9,-18,-122,-11,-10,17,-9,15,31,-15
73,-33,-94,-26,-13,20,-10,12,51,42
270,1,-83,-20,-29,0,-29,-16,42,48
433,23,-44,-6,-53,0,-36,-48,19,26
332,-27,0,23,-7,5,-58,-103,-77,-34
192,-38,6,35,12,4,-99,-157,-145,-59
112,-22,-38,5,-30,-8,-101,-159,-148,-55
57,-6,2,-8,204,12,-56,-99,-91,-22
-9,1,27,-13,287,71,16,-23,-33,-7
-111,59,96,-5,115,75,51,20,21,10
-232,35,77,-3,33,47,38,47,52,0
-198,-26,26,19,-41,7,32,32,31,-23
-26,32,60,30,-98,-41,-5,-2,25,7
26,-7,9,-3,-83,-32,10,39,64,14
89,3,-18,-46,-42,-21,15,28,49,-19
160,115,85,-12,-20,-34,-27,-57,-12,-29
134,117,137,12,-42,-49,-46,-91,-42,-1
71,43,88,16,-54,-13,-9,-39,8,51
38,65,82,19,-58,2,21,-12,29,37
89,120,121,3,-96,-16,-16,-54,-9,4
160,76,89,-10,-17,-1,-25,-37,-6,-6
372,69,31,-20,160,28,-26,-24,-9,13
395,41,15,-19,127,27,-8,8,4,16
219,14,24,-7,2,-9,-13,24,21,46
99,47,41,4,-43,-21,-30,3,10,60
6,69,52,4,-39,-21,-38,12,-1,56
-186,7,27,-3,0,14,5,59,29,46
-365,-62,45,40,42,52,54,92,64,6
-415,-79,41,61,64,66,72,103,56,-35
-270,-31,19,40,49,41,61,89,41,-21
-144,-19,-42,8,36,25,47,69,35,7
-80,-11,-42,-10,31,32,35,68,32,23
-24,15,-4,-11,9,6,19,46,13,33
-5,32,-6,-14,8,4,18,25,8,33
-15,6,-14,-21,23,28,7,26,-3,33
26,-20,-16,-29,28,39,20,43,-11,35
107,-9,-49,-40,11,13,30,39,-13,52
122,-22,-56,-47,-27,7,37,64,16,69
70,-14,-47,-37,-67,8,30,69,14,37
75,17,-115,-32,-36,-11,20,45,22,60
96,-43,-159,-19,7,-6,63,80,84,97
109,35,-28,15,31,2,47,53,44,38
6,63,68,21,0,-46,-30,-16,-25,20
-114,1,43,0,-22,-52,-39,-16,-38,4
-94,-11,26,-2,-8,-38,-18,3,-27,0
-82,0,22,5,-13,-38,-26,2,-8,17
-147,46,43,3,-23,-42,-40,-25,-10,-34
-133,20,23,-10,-41,-30,-26,-33,-12,-56
-12,36,19,-20,-59,-25,-27,-49,-36,-31
-56,-19,-5,-40,-88,0,17,-7,-11,-25
-59,-35,-18,-64,-116,-11,40,17,9,-11
0,1,3,-70,20,-11,34,8,9,15
-16,0,-8,-39,155,0,-3,18,-13,19
-30,-29,-25,-17,63,-20,-33,18,-2,-5
-8,-29,-27,13,-9,-33,-43,-6,-12,-49
52,2,-29,15,-52,-45,-45,-19,-17,-31
121,-25,-72,-38,-53,-41,-51,-15,-26,25
178,25,-56,-33,-38,-50,-73,-42,-57,14
137,20,-33,-3,-8,-42,-68,-44,-45,11
93,-15,-27,-3,-7,-20,-42,-23,-20,77
55,-6,-26,-5,9,-1,-15,-6,0,89
-41,-132,-112,-46,25,51,78,82,79,47
87,-25,-39,-36,-7,-17,10,17,44,11
309,122,54,3,-29,-107,-101,-92,-59,-44
388,37,11,-43,-64,-115,-126,-97,-65,6
372,-28,-48,-76,-55,-68,-81,-56,-24,66
303,-35,-45,-48,-38,-52,-57,-55,-6,86
208,0,-20,-38,-26,-41,-30,-52,-18,85
50,-26,-19,-20,1,19,38,22,65,153
-202,20,60,51,54,58,64,28,80,144
-369,126,131,88,60,66,55,15,50,60
-398,96,125,86,42,67,35,-3,-21,-114
-41,9,52,32,13,43,6,-13,-50,-140
174,-44,11,2,9,23,8,-12,-36,-81
153,-69,3,0,4,19,0,-29,-49,-56
81,-25,-57,-12,-2,-12,-29,-73,-92,-67
19,33,-110,-17,-20,-31,-33,-98,-114,-44
65,35,0,-7,-20,-19,-22,-79,-72,1
100,61,47,6,-2,8,3,-13,-11,-5
177,73,27,-7,-22,-8,-30,-21,-34,-44
547,115,4,-41,-70,-37,-47,-80,-65,-2
752,143,-12,-74,-91,-67,-46,-93,-60,95
476,147,4,-66,-87,-73,-41,-82,-42,136
32,82,2,-39,-57,-49,-33,-50,-32,63
-343,-36,-4,-21,-9,15,19,2,-2,-31
-768,-102,98,86,109,115,118,74,76,-94
-1122,-79,174,169,192,193,161,117,103,-177
-1073,-26,159,135,173,164,108,113,61,-240
-604,-11,97,80,98,93,58,54,32,-215
-312,-53,-12,40,50,54,28,33,29,-163
-304,-111,-116,12,23,24,24,29,49,-82
-264,-113,-55,12,19,17,39,30,26,-43
-178,-38,21,15,4,8,23,16,2,-33
-39,5,-6,-11,-32,-35,-12,15,6,1
27,-4,-35,-25,-34,-34,-15,34,24,33
95,18,12,-32,-12,-16,-9,22,0,28
46,-13,0,-24,9,11,17,26,-3,-2
19,-53,-10,-29,-1,4,10,22,20,36
23,-45,-10,-30,-1,-8,-10,12,6,68
44,-5,-11,-14,10,5,-15,-7,-21,55
86,30,-66,-1,30,18,5,5,-12,0
138,-17,-91,-7,27,23,9,22,-9,-31
160,15,-14,-24,1,-1,-22,-17,-38,-25
15,16,26,-28,-17,-33,-31,-42,-29,-32
12,36,45,-17,-25,-46,-41,-53,-30,-25
87,35,14,-46,-36,-47,-42,-43,-20,12
100,19,7,-36,-38,-48,-50,-49,-35,6
18,30,21,-15,-27,-40,-24,-22,-9,-17
-19,53,12,-11,-11,-20,23,30,48,25
-10,-29,-51,-14,6,13,52,82,81,85
-57,-115,-94,-28,11,40,54,90,81,56
-91,11,15,0,0,-15,-1,8,0,-19
-102,45,83,27,14,-32,7,-36,-29,-43
-37,-20,15,14,20,-3,37,-7,-20,-17
10,-3,-18,0,10,9,41,-3,-20,-7
-15,-19,-1,10,25,25,61,30,26,-20
12,-39,24,9,18,19,17,18,17,-40
40,-5,51,-5,7,16,-14,-14,-32,-46
66,60,112,20,13,-12,-48,-56,-65,-34
60,13,78,27,28,-4,-49,-34,-41,-5
63,3,-2,27,25,-9,-41,-21,-24,14
72,0,11,26,18,12,-33,-16,-5,31
66,16,-36,11,10,11,-3,17,37,50
46,27,-19,1,12,8,32,36,62,32
28,-18,-26,3,1,8,8,21,20,-3
89,-79,-170,-49,-31,-3,22,43,41,41
149,-118,-137,-71,-35,13,41,34,29,58
103,14,32,12,15,28,28,-19,-56,-34
-2,75,107,64,14,-4,-7,-59,-51,-42
-31,46,87,37,-26,-61,-46,-73,-35,-8
41,22,12,-5,-26,-51,-23,-50,-14,18
53,-1,-103,-7,-16,-19,14,-34,-2,29
44,-15,-59,6,-7,-19,45,-38,5,28
57,-7,40,12,-10,-20,21,-42,0,26
84,6,9,2,2,3,5,-45,-12,-1
67,5,-107,-29,12,24,35,-12,3,-16
39,-39,-139,-68,-2,15,53,32,41,26
7,-177,-117,-73,-20,63,122,98,103,61
39,-62,-52,-45,-81,33,61,45,32,14
120,102,36,-19,-207,-78,-116,-109,-78,6
-14,18,41,15,-266,-75,-101,-108,-76,-23
-36,-18,40,68,-44,-6,-47,-53,-45,-20
16,24,17,87,152,-11,-56,-46,-47,6
-6,-27,-5,45,53,-5,-18,4,13,42
-26,-52,0,37,159,28,52,63,50,13
19,12,40,38,156,-2,20,47,35,6
43,43,93,40,19,-53,-39,8,13,3
25,20,72,24,-31,-52,-23,29,33,32
29,-14,12,5,-15,-9,11,51,67,74
36,-45,-5,-1,9,17,23,48,52,81
64,4,31,31,17,11,4,11,19,48
17,8,33,46,38,24,-18,-8,-1,26
-6,-30,30,73,156,33,-31,-16,-14,-11
-16,-72,14,94,211,43,-30,-18,-20,-30
11,-51,6,92,143,35,-18,-27,-19,-13
49,6,25,69,80,26,-14,-34,-21,-20
188,27,31,28,-9,36,21,24,35,49
245,12,25,0,-33,50,39,57,77,91
253,0,0,-63,-85,-7,-13,-11,-7,24
317,62,-9,-106,-185,-103,-84,-81,-64,-14
254,83,-88,-153,-216,-103,-47,-17,29,54
91,43,-131,-119,-157,-63,-11,12,72,85
-64,11,-25,-46,-100,-46,-20,-12,26,54
-145,5,34,-17,-65,-32,-9,2,24,55
-177,-15,39,-5,-50,-16,6,32,27,69
-238,-46,56,19,11,30,47,40,42,66
-255,-52,74,40,56,48,57,21,54,20
-135,-60,62,50,59,52,58,29,41,-26
-64,-85,35,35,47,69,58,39,39,-46
-107,-83,10,5,33,65,55,33,17,-92
-138,-7,0,0,29,33,66,4,-9,-145
-18,84,7,25,29,13,15,-37,-45,-147
16,67,29,10,20,10,-3,-37,-52,-106
-39,8,29,-4,31,3,7,-18,-36,-87
141,-11,10,-9,42,20,35,3,-13,-51
383,-6,-8,-5,10,-14,2,-7,1,12
282,-39,-42,-34,-12,-41,-21,-10,15,13
84,-58,-55,-51,-32,-45,-5,-12,6,10
31,-57,-41,-43,-46,-57,-7,-58,-37,37
-37,-62,-29,-15,-38,-39,-20,-64,-46,58
-57,-15,-54,-18,-35,-32,-18,-48,-31,50
-166,-27,-10,0,1,16,47,10,24,46
-359,-61,-65,44,48,86,116,89,98,46
-467,-63,-35,42,55,116,143,117,125,27
-282,35,49,27,18,60,69,40,21,-79
-152,124,62,24,2,12,19,-22,-56,-173
-139,71,39,8,9,14,-6,-19,-63,-160
-150,-41,-36,-26,12,34,-9,9,-3,-72
-122,20,-1,-1,6,13,-48,-42,-53,-111
-106,99,54,6,-15,-29,-95,-97,-99,-140
-107,57,27,-10,-9,-23,-56,-64,-55,-128
-101,11,2,-18,1,8,-12,-17,-20,-91
-26,8,0,-14,-22,-7,1,-21,-11,-31
20,20,-6,-15,-47,-24,9,-28,-11,-26
-58,-8,-39,-22,-36,-11,23,-2,2,-23
-89,-51,-59,-38,-38,0,37,31,27,5
64,-37,-64,-65,-51,-13,9,4,6,30
9,-25,-64,-45,-15,13,33,23,25,-10
-82,-68,-74,-24,-1,25,47,33,50,5
27,21,-43,6,-26,-37,-40,-60,-39,3
57,21,-2,10,-20,-31,-82,-65,-48,3
91,0,13,3,-8,-11,-83,-24,-21,17
119,1,-39,6,3,16,-69,-6,-19,21
50,-19,-23,14,9,28,-31,11,0,15
-99,-18,9,20,14,32,16,28,27,1
-125,19,19,15,5,20,26,15,32,13
37,84,37,3,-10,-6,-26,-14,10,24
128,70,18,4,-22,-26,-50,-27,6,28
147,58,-40,0,-14,-20,-43,-13,3,35
155,73,17,-10,-17,-34,-39,-6,3,54
158,37,-39,-15,-9,-10,-5,14,33,88
90,-7,-68,-8,9,9,8,38,48,73
-50,-43,-21,1,38,47,50,94,81,48
-86,-72,4,12,37,58,54,92,79,51
-90,-9,1,38,34,26,7,34,19,4
-71,38,4,37,14,1,-26,-4,-17,-3
-67,-6,26,21,7,-3,-24,-3,-14,10
-42,-14,32,14,4,-8,-21,5,-6,6
0,-7,25,5,9,17,-3,15,13,11
79,17,-17,10,10,20,12,31,19,20
103,51,-10,1,14,15,25,50,27,23
96,58,11,18,13,23,11,34,24,7
93,-2,36,29,36,30,22,15,3,-12
235,23,44,-3,2,-25,20,-1,-3,40
246,16,26,-25,-20,-42,8,-7,0,66
168,15,15,-11,-26,-48,-13,-25,-36,16
76,-22,-9,-16,-26,-29,-22,0,-23,3
49,-33,-71,-26,-35,-32,-19,18,10,12
-24,-33,-149,-33,-18,-12,8,41,23,4
-111,16,-21,-9,-2,-9,17,15,5,-45
-111,76,43,18,-2,-30,-8,-35,-35,-54
-88,-6,-15,-4,-8,-15,22,-4,-5,6
-56,-93,-79,-53,-10,48,43,59,40,40
-42,-123,-139,-72,3,83,70,89,42,-7
68,97,38,6,14,9,-13,-27,-55,-53
-15,143,178,77,13,-42,-94,-94,-78,-42
-66,21,88,42,-4,-45,-76,-43,-53,-8
4,-22,17,8,-23,-40,-50,-11,-39,23
39,41,47,13,-22,-42,-56,-45,-64,-10
4,50,20,-5,-27,-38,-38,-42,-43,-6
6,0,-8,-13,-31,-40,-23,-12,-10,21
13,-37,-37,-6,-29,-43,0,12,8,35
40,14,-131,-7,-34,-44,15,27,33,62
45,31,-88,-26,-64,-66,-4,11,29,67
-10,35,22,8,-47,-67,-20,-26,-20,31
16,33,72,36,-24,-67,-33,-74,-71,5
126,-21,-18,-18,-54,-73,-38,-59,-37,49
219,-70,-123,-114,-97,-108,-40,-38,-16,96
415,-68,-116,-117,-88,-119,-49,-45,-19,124
696,10,-50,-73,-68,-99,-46,-43,-4,150
960,25,-96,-103,-82,-82,-11,7,70,253
875,0,-49,-77,-54,-43,34,10,77,273
346,60,89,44,4,1,40,-12,7,178
-179,22,140,76,60,58,49,23,27,112
-357,-3,139,87,93,99,71,16,16,-19
-266,-7,136,92,104,149,86,13,-41,-172
-313,15,122,83,70,119,62,-17,-71,-239
-523,-62,21,62,32,103,41,3,-62,-247
-563,-88,2,49,-15,77,25,15,-54,-207
-441,-58,27,49,48,49,-2,-4,-45,-156
-350,-37,4,32,139,32,-5,12,-3,-66
-340,-7,10,28,27,-11,-24,5,-21,-80
-241,60,38,46,-36,-28,-22,2,-34,-115
-89,84,12,33,-32,-22,-16,17,2,-23
-49,57,-24,28,-17,-5,-5,27,27,-1
-87,39,41,28,2,11,41,47,51,-19
-159,24,89,34,18,8,49,24,-1,-42
-231,-35,66,31,44,21,72,37,6,-56
-334,-47,37,23,64,32,82,38,24,-99
-378,-7,65,34,52,28,46,16,-9,-150
-248,-5,28,19,24,14,16,10,-13,-115
-104,-17,-7,-2,-3,19,-5,18,-1,-49
-79,-30,-7,-14,0,16,4,44,0,-34
-48,-43,-21,-28,5,7,3,37,-22,-63
11,-33,-28,-23,1,1,28,30,-30,-63
109,5,-35,-14,-18,-18,27,11,-34,-34
152,-5,-54,-31,-27,-34,-8,5,-25,-1
113,-17,-37,-37,-12,-27,-50,-7,-42,-7
31,-10,-8,-23,9,-27,-55,-11,-68,-21
-1,38,-12,-35,-2,-29,-32,7,-18,8
67,57,-33,-50,-10,-29,9,43,37,35
120,11,-35,-32,0,-11,49,56,36,37
75,-48,-7,12,32,26,74,59,21,48
-91,-99,17,42,53,67,97,71,45,57
-57,-48,18,55,46,53,74,63,26,18
115,-20,-24,19,-16,50,61,67,5,5
116,-83,-56,-15,-104,51,49,66,12,25
65,-99,-6,-14,-173,14,20,25,-12,18
58,-55,13,-22,-169,0,-7,15,-40,26
97,62,10,-19,134,6,-54,7,-42,39
200,135,8,-26,203,-27,-98,-20,-53,47
300,160,6,-49,3,-66,-109,-56,-57,36
273,193,6,-53,-46,-68,-79,-50,-36,21
103,200,25,-31,-9,-36,-18,-9,5,29
-34,130,28,-31,25,5,3,27,38,38
-138,31,8,-37,85,26,16,37,48,21
-158,-32,2,-28,159,39,-15,0,20,-3
-154,-46,9,-4,165,20,-45,-33,-7,-22
-117,-55,-12,46,103,18,-42,-24,-16,-22
-68,-61,-5,54,45,42,-35,-5,-9,-3
-14,-22,22,18,-11,53,-7,26,23,47
16,38,28,-21,-37,48,9,29,43,64
-10,48,22,-2,-118,13,6,21,46,24
-25,26,1,-6,-198,-9,33,32,67,25
-2,11,-10,-38,-217,-8,24,20,48,41
-4,-11,2,-17,-139,17,22,-2,7,4
8,1,6,-5,51,27,24,16,18,0
80,66,-2,-24,110,9,-23,8,17,41
98,33,-41,-40,13,-3,-45,13,9,44
74,-3,-56,-46,-39,-17,-17,40,57,52
45,30,-27,-29,-51,-33,-22,9,28,24
59,45,24,-7,-16,-18,-46,-48,-27,27
94,-45,-38,-12,-3,-7,1,-14,26,106
59,-61,-51,1,27,13,51,13,27,88
-38,-69,-67,9,46,41,67,47,55,83
-31,0,11,3,40,16,11,14,22,75
-43,6,48,-13,30,27,1,22,26,15
0,58,69,-85,0,11,-4,3,41,-20
118,157,78,-201,-40,-64,-63,-76,-10,-25
81,69,13,-172,-33,-58,-45,-84,-56,-51
38,14,9,17,-32,-50,-20,-65,-49,-24
39,42,30,85,-54,-67,-43,-76,-48,-15
44,58,41,36,-55,-59,-46,-73,-55,-16
17,0,16,4,-47,-37,-19,-19,2,39
0,-31,13,18,-21,-24,-15,29,34,46
-17,-46,-4,31,-4,-2,-10,40,20,13
-9,-61,-22,28,0,6,10,29,6,0
13,-51,-10,27,6,6,16,6,-23,-30
18,-50,0,28,20,-5,-10,7,-24,-45
33,-35,9,17,27,4,-20,0,-27,-43
4,-42,13,11,27,11,-10,-3,-32,-74
-23,-52,-3,14,35,31,8,18,-15,-60
-17,-37,-31,6,36,27,18,31,0,-13
-75,-108,-70,0,40,50,48,61,1,-22
-44,-111,-54,23,51,61,43,35,-35,-49
152,36,31,47,35,2,-25,-47,-71,-31
251,59,54,53,23,5,-33,-52,-75,-26
307,11,-11,17,-8,14,2,-26,-34,3
230,-27,-37,-4,-24,-6,21,-25,-19,-1
139,-12,-46,-7,-33,6,26,-22,-5,22
19,3,-50,-21,-68,-12,18,-11,15,71
-123,-2,-44,-43,-91,-36,-14,-21,38,69
-75,1,-50,-54,-103,-76,-51,-37,18,14
465,21,-63,-52,-102,-103,-92,-59,-3,26
855,-22,-107,-64,-128,-98,-91,-69,-14,71
941,24,-76,-69,-131,-118,-97,-110,-58,122
891,98,-31,-35,-117,-128,-96,-133,-73,181
515,73,-49,-32,-87,-80,-25,-57,11,203
112,9,-46,-13,-47,-14,30,39,103,257
-318,-68,-24,52,49,90,100,123,157,262
-718,-118,-5,108,132,163,153,185,186,105
-896,-96,60,152,177,168,134,146,110,-115
-944,-38,122,192,201,184,117,114,41,-274
-901,28,133,177,177,152,92,82,22,-273
-725,57,63,104,120,93,80,41,4,-201
-637,36,15,56,78,37,42,8,-16,-205
-642,-33,11,48,77,29,14,24,-18,-205
-466,-19,24,54,78,41,7,39,-19,-158
-205,-6,12,37,58,29,-3,29,-19,-119
-88,-25,-16,21,40,7,-10,6,-7,-81
-70,-30,-40,-5,8,-6,-31,-2,-5,-51
-110,-15,-23,-13,1,-8,-23,5,-12,-76
-116,22,-27,-12,1,-13,-2,10,25,-56
-91,30,-30,-6,-2,10,11,-1,24,-56
14,-4,-49,-10,-29,-18,1,-23,-23,-59
102,-58,-101,-38,-35,2,33,-6,-30,-29
86,-37,-66,-29,-21,10,7,-25,-39,-6
62,52,42,17,-18,-30,-57,-84,-63,-24
-51,8,69,58,23,17,-26,-71,-75,-84
-76,-43,18,37,34,48,25,-10,-1,-44
5,-48,-1,17,23,34,22,6,22,3
42,-18,22,8,4,3,-19,-25,-25,-8
64,36,29,6,-4,-16,-18,-23,-30,-10
93,23,-93,-13,-6,-34,1,-19,-17,18
62,-35,-160,-19,-5,-4,27,-9,-5,29
53,9,-22,-4,-12,-28,4,-31,-19,22
78,43,28,-15,-39,-58,-43,-41,1,47
132,64,7,-48,-55,-57,-39,-15,47,66
138,71,-1,-61,-49,-49,-30,-31,28,35
82,45,-8,-38,-38,-22,-30,-51,6,4
35,18,-62,-20,-23,-10,-16,-34,5,-2
34,-18,-130,-37,-16,8,0,-16,15,0
59,-8,-155,-37,-22,19,-1,-14,15,24
59,-9,-116,-31,-19,15,-4,2,32,49
66,-5,-29,-36,-13,13,11,32,73,53
81,41,47,-34,-8,1,0,10,40,33
38,-6,60,-32,2,34,22,23,24,32
12,-65,23,-37,8,56,62,51,37,36
24,-19,59,-36,5,55,77,40,44,22
84,36,40,-39,-22,37,60,9,20,37
-7,-20,11,-8,-52,13,52,-9,-19,-1
-13,8,57,8,-97,-11,20,-12,-22,4
20,19,58,16,-109,-2,29,3,24,30
29,23,71,23,-133,-45,-25,-30,8,61
32,7,71,13,-82,-36,-47,-32,-8,46
66,-33,23,-10,120,-7,-29,3,16,54
52,-52,10,2,96,6,-31,0,-2,33
26,-69,14,7,-72,-18,-9,6,1,13
2,-55,-19,-14,-169,-5,12,26,30,-3
36,7,16,-5,-193,2,12,21,55,15
236,159,124,50,37,-13,-38,-34,21,42
253,99,69,52,306,42,-20,-16,12,61
154,4,35,27,165,25,-9,-25,-34,31
112,6,36,16,42,-25,-17,-40,-47,36
70,13,22,5,10,-18,-17,-27,-47,42
-20,-18,-6,-6,20,-1,38,-2,-34,30
-142,-28,0,1,34,20,65,-3,-35,-41
-55,31,-49,35,25,-9,32,-24,-42,-57
-56,-19,-18,-5,19,-4,12,7,-4,-14
-20,-35,-6,-22,19,-11,29,11,-1,11
0,-44,5,-22,12,-2,30,10,7,16
-14,-42,-24,-10,9,8,0,11,2,-3
-7,-46,-84,-11,-2,-5,0,26,24,31
17,-62,-61,-31,-10,-2,10,28,49,53
45,-46,-14,-12,-15,-6,-2,-5,6,5
113,-9,28,-4,-27,-23,-43,-40,-20,6
130,16,-19,-26,-26,-19,-52,-35,-17,34
109,39,-14,-38,-1,-22,-59,-41,-35,7
140,39,7,-33,3,-13,-65,-48,-56,-28
199,51,10,-20,-8,-16,-54,-57,-56,0
173,50,-11,-8,9,15,-20,-19,-11,48
39,17,-13,2,68,60,55,64,94,121
-106,-6,30,26,110,63,98,77,107,88
-185,-23,18,34,143,42,60,21,34,-4
-197,-56,-30,32,163,42,53,-11,-7,-50
-163,-69,-23,10,77,32,62,-3,-29,-85
-106,-110,-53,-12,0,26,52,26,-6,-67
57,-88,-47,3,-28,39,50,35,16,-49
373,70,61,29,-19,-2,1,-28,10,-3
275,38,73,21,-52,-34,-21,-53,-27,-21
166,-7,-4,-25,-165,-72,-50,-53,-73,-19
381,90,9,-68,-215,-133,-139,-129,-129,3
444,84,2,-95,-186,-137,-174,-169,-136,1
385,41,-51,-119,-156,-122,-163,-145,-106,51
282,6,-60,-100,-129,-94,-117,-109,-47,89
120,4,-42,-69,-82,-49,-61,-57,4,110
-99,3,-14,-33,-39,-6,-11,-5,65,119
-594,-119,79,89,48,58,25,34,83,92
-896,-196,92,177,126,121,78,80,71,29
-555,-82,11,135,128,106,88,74,56,5
158,133,21,94,79,30,28,4,-2,41
740,205,71,86,10,-29,-24,-48,-33,75
643,72,50,63,-27,-35,-13,-33,-23,49
241,-14,-71,-37,-35,-6,43,18,8,21
82,39,-94,-108,-45,-3,44,9,-26,-26
-28,22,5,-73,-21,19,40,6,-43,-96
-694,-96,44,43,71,123,170,104,80,-134
-889,-88,55,71,113,137,193,121,69,-223
-792,-43,56,73,111,123,149,102,44,-236
-517,-22,59,59,97,87,75,76,29,-196
-211,-19,45,26,78,49,39,42,12,-122
-94,-40,-20,6,57,48,6,4,-33,-98
-115,-58,-161,-4,33,56,13,14,-41,-100
-144,-114,-163,-19,21,50,36,39,-32,-81
-95,-91,-44,-16,10,26,27,8,-29,-25
-19,32,51,-4,-13,-31,-34,-59,-65,-5
-138,75,101,22,-3,-37,-37,-69,-59,-75
-128,48,51,-1,4,-13,15,-27,7,-46
-35,40,40,-6,12,-28,42,-9,8,-22
-16,14,55,8,14,-34,22,-26,-32,-27
-1,-5,32,0,-1,-40,8,-20,-18,-8
10,24,7,-11,-13,-32,0,-20,-2,-4
3,37,-13,-15,-8,-34,-20,-36,-33,-43
0,32,-10,-9,-8,-26,-19,-54,-40,-70
78,32,-20,0,0,0,-10,-45,-3,-15
230,0,-21,-11,4,-3,-11,-20,18,45
313,15,-82,-3,-3,-14,-27,-22,2,62
220,-1,-143,-12,-6,-12,-29,-15,-15,62
120,-25,-155,-17,-7,-22,-48,-17,-19,44
57,-27,-111,-25,-10,-39,-70,-17,7,37
-3,-18,1,-17,2,-38,-51,-8,36,50
-34,-20,32,-18,4,-32,-14,10,46,59
-64,-22,28,-27,15,-29,10,30,66,27
-113,-15,35,-7,25,-8,15,11,13,-44
-63,-40,-41,-6,21,15,33,32,9,-11
30,-20,-92,-23,3,-1,1,12,32,57
68,52,63,-12,-15,-50,-60,-41,-15,36
55,10,88,-17,-16,-38,-72,-6,15,32
40,-59,25,-18,10,10,-14,54,51,12
24,-87,-19,-10,43,55,66,83,72,-7
38,56,59,15,35,14,7,24,45,17
32,90,116,27,7,-21,-37,-31,15,38
16,48,102,28,8,-12,-47,-58,-34,-17
53,44,60,0,-10,-11,-82,-45,-32,-2
143,31,-32,-56,-35,-35,-88,-40,-28,33
197,46,-99,-81,-35,-30,-81,-46,-21,48
128,-13,-111,-83,-41,-34,-66,-20,24,73
51,-48,-92,-48,-47,-45,-78,-31,23,14
24,6,-1,17,-75,-68,-89,-75,-29,-78
-25,-28,15,26,-87,-30,-15,-14,-3,-42
2,12,93,76,-94,0,22,-3,0,22
-13,24,128,94,-61,31,44,22,38,60
-61,6,111,91,75,53,66,45,59,38
-97,-32,77,92,105,52,57,41,40,5
-124,-65,38,41,5,35,29,19,21,-27
-52,-11,11,-12,-64,-3,-12,8,19,-44
-56,-53,-34,-43,74,-2,-13,6,14,-37
-98,-29,0,-12,244,7,-29,-23,-20,-77
-23,5,32,60,115,-31,-28,-16,-19,-41
91,52,56,72,-28,-51,-20,11,35,60
111,76,71,-116,-41,-9,-16,6,22,70
80,50,11,-143,-48,2,-20,-16,0,74
10,-8,-28,55,-80,1,16,31,36,59
-20,-16,-20,122,-132,5,15,23,3,0
-18,17,-17,54,-189,-27,-1,8,-14,1
35,7,30,11,0,-12,29,21,20,58
94,20,24,17,280,9,25,8,7,59
73,13,11,7,144,-2,3,-1,-4,38
59,27,18,9,7,-10,-7,5,-16,28
66,56,27,2,-14,-9,-31,20,-23,31
72,29,-7,-12,0,-18,-39,18,-6,59
53,-12,-28,-23,11,-10,-26,20,-9,70
18,-21,-25,-26,24,11,-13,23,5,64
-18,-21,-15,-18,23,15,-20,9,12,24
-33,0,-5,-18,17,10,-55,-8,-14,-30
-66,-21,-19,-24,16,-1,-46,-13,-28,-74
-4,-42,-50,-40,7,14,-11,13,-10,-36
188,9,-76,-30,12,31,-4,39,30,31
232,60,-10,-3,15,6,-20,22,24,41
134,34,0,-2,21,-3,-20,0,3,28
-1,-41,-3,4,15,-1,-25,-3,-32,-7
-95,-89,-37,1,10,12,2,38,-2,22
-28,-88,-49,-4,2,36,24,56,36,43
86,-76,-76,-10,-4,22,30,44,28,9
2,-52,-22,24,9,18,22,26,1,-25
-93,-30,-52,42,-7,-13,-20,-20,-29,1
-70,-44,-75,-14,-45,-32,-20,-24,-35,35
19,41,-105,-32,-62,-31,-19,-49,-57,13
30,122,-63,-13,-45,-38,-38,-81,-92,-63
-43,63,10,-6,-13,-5,-8,-54,-94,-114
-92,-13,31,-23,2,-1,3,-31,-76,-122
-69,-21,14,-19,-9,7,-19,-33,-68,-99
-11,-29,34,-9,1,3,-29,-16,-52,-59
25,-68,13,-11,-9,-2,-24,-10,-30,-31
69,-51,-10,-63,-53,-49,-28,-44,-57,-28
179,28,-15,-82,-85,-66,-42,-67,-63,-1
288,34,-57,-70,-79,-28,0,-12,6,80
280,15,-30,-66,-49,4,39,30,55,146
120,43,18,-32,-18,4,26,20,54,94
-53,52,71,38,43,56,56,64,87,45
-50,110,113,68,72,73,85,115,156,104
0,129,92,47,29,46,57,103,134,87
26,87,40,30,3,36,3,46,44,8
67,13,3,14,-6,36,-26,5,-14,-23
194,-34,-40,-33,-39,11,-12,16,9,33
212,-28,-72,-67,-65,-13,-17,16,39,120
23,7,3,-42,-56,1,-38,-14,11,43
-208,7,-2,6,-13,16,-12,0,-11,-70
-199,-51,-8,17,-9,8,-22,-9,-20,-15
-271,-102,44,41,3,37,-10,20,19,58
-351,-123,45,48,17,69,25,60,19,11
-214,-111,-17,11,-7,56,32,59,-20,-30
-129,-67,-6,12,-1,51,23,43,-35,-39
-330,-92,45,48,12,39,45,38,-8,-64
-404,-27,62,65,42,45,77,52,12,-112
-287,124,70,59,43,39,66,36,-1,-128
-261,97,40,48,25,29,47,17,-39,-167
-171,72,2,7,8,5,35,4,-71,-192
-67,27,-16,-20,-8,1,30,7,-53,-125
-36,19,5,-4,24,10,20,-1,-32,-71
-32,-6,-25,6,122,34,-18,-20,-46,-41
-16,-8,-21,24,170,33,-33,-31,-54,-28
-12,12,-17,13,120,4,-32,-19,-20,-44
-44,-39,-24,-18,45,13,-30,-5,-8,-50
-10,-19,6,-12,-2,43,-3,15,16,3
4,30,22,-16,-2,58,13,18,34,45
-21,0,-6,-17,-57,30,3,1,11,47
-15,1,5,-1,-127,-27,-12,-6,2,40
2,15,23,-16,-124,-47,-26,-9,1,34
20,16,5,-26,-72,-41,-24,-20,-16,7
33,6,-10,-16,-40,-46,-22,-24,-17,-2
50,-14,-26,-15,-25,-31,-21,-21,-8,11
64,-23,-27,-15,-12,-45,-17,-15,-6,34
69,-25,-27,-11,-13,-31,-21,-2,0,46
80,-25,-73,-20,-27,-36,-11,1,-6,40
56,-39,-115,-20,-22,-20,3,10,6,57
30,-37,-10,-1,-24,-3,15,26,34,61
20,15,21,1,-17,-12,16,30,38,45
19,31,11,-8,-6,-1,29,25,50,8
36,45,22,-14,-13,2,7,-3,1,-31
61,3,5,-32,-9,5,-2,-10,0,-4
51,2,-5,-23,-10,7,-11,-14,8,-7
29,-44,-61,-41,-8,15,4,17,19,0
45,-101,-86,-45,0,27,35,38,28,17
56,10,9,11,-9,-2,-29,-32,-8,8
47,-8,31,16,-17,-34,-45,-49,-33,-8
86,36,51,16,-9,-59,-71,-68,-39,10
85,49,-24,4,-13,-59,-70,-67,-34,11
31,31,-104,13,-7,-43,-58,-46,-31,-28
37,6,-44,0,-6,-40,-40,-20,-26,-29
56,1,8,-2,4,-14,5,-1,0,4
70,62,51,2,-11,-36,-3,-30,-24,1
49,13,41,0,-15,-22,-25,-32,-46,-3
9,-46,-18,1,10,9,18,-6,-15,-22
68,-28,-135,-17,-11,-7,12,-16,-2,8
60,-23,-155,-28,-14,-17,12,-14,2,9
74,2,-11,16,13,-1,-9,-39,-38,-19
225,66,89,37,17,-6,-31,-66,-72,-9
186,26,-23,-13,14,-1,22,-28,14,33
119,43,3,-26,6,-3,15,-23,51,50
77,30,40,-20,12,-38,-26,-49,-7,20
24,-12,23,-6,22,-40,-48,-52,-45,0
37,-29,10,11,15,-48,-57,-52,-40,-6
45,-11,19,27,-14,-41,-48,-24,-25,-35
8,-16,34,60,-24,-28,-25,12,-2,-22
-46,9,15,30,-22,-51,-47,-21,-8,-10
-122,-14,-86,-28,-3,-48,-29,-13,13,27
-108,-61,-74,-47,-31,-27,17,21,51,73
-94,-24,31,0,-2,7,55,43,30,-7
55,-24,48,27,24,34,86,63,45,2
65,-71,10,19,25,52,75,69,45,32
-51,-87,-6,-10,5,44,52,61,9,6
-117,-101,-20,-17,5,45,21,56,0,6
-121,-23,13,2,6,33,-17,21,-9,0
-148,7,17,0,-1,23,-34,2,-35,-37
-186,-3,48,-6,-6,-4,-41,-5,-49,-95
-212,-64,-8,-33,29,37,11,40,6,-84
-127,-78,-44,-35,50,60,23,31,13,-51
-22,-11,-11,-6,42,22,-22,-32,-45,-56
-4,-46,-16,-18,8,4,20,15,-1,-10
-9,-44,15,-26,-28,12,85,84,61,54
-60,-2,84,27,-9,13,115,113,108,62
-153,-49,58,60,26,19,107,106,110,68
-184,-59,55,56,29,7,56,47,55,47
-137,-45,86,46,21,9,31,28,44,2
-3,-50,50,29,27,35,53,45,13,-19
81,1,25,19,5,21,52,28,12,-33
226,84,19,10,-9,4,40,3,-21,-62
226,159,55,5,-86,-27,-1,-52,-55,-54
116,69,20,-18,-149,-30,4,-41,-28,-32
65,-9,-43,-22,-178,3,29,-6,-18,-47
90,38,-59,-12,-161,11,20,-11,-25,-34
29,41,-11,16,172,19,33,12,-2,3
-58,12,-26,37,282,25,11,0,-18,-30
66,-10,1,16,83,4,-5,2,-3,-47
154,-3,-24,-25,-13,-21,-6,35,46,-28
174,41,-76,-19,-15,-25,-23,8,17,0
126,68,-94,-5,-3,-30,-55,-45,-38,-15
73,19,-7,-37,-20,-43,-73,-47,-45,-19
21,-10,6,-41,-6,-32,-59,-18,-18,22
-110,-28,-22,2,33,26,-1,29,38,67
-254,-8,63,47,70,72,30,60,74,61
-362,7,93,63,97,82,34,59,60,-36
-373,-46,67,42,83,58,34,33,1,-100
-264,-75,65,30,68,25,3,0,-29,-88
-130,-58,61,21,46,14,-28,-14,-35,-59
-9,-4,50,10,26,24,-36,-11,-22,-34
92,10,36,12,16,38,-20,-7,-18,-31
162,29,27,0,10,1,-14,-7,-10,-9
77,24,30,5,12,-8,25,17,28,15
-65,15,54,21,24,26,32,24,25,-6
-85,-10,13,-5,12,29,25,32,25,-6
-15,-6,4,-17,-9,-4,25,22,33,25
6,14,37,-2,-7,-12,9,-5,-6,11
-4,19,-22,19,-6,3,9,-5,-15,4
-9,0,-14,18,-14,0,-10,1,-10,7
-12,-20,-26,-7,-19,1,-18,15,15,18
-34,6,-36,-23,-6,23,-7,31,62,28
26,55,35,-7,-2,22,-7,26,66,35
198,101,72,6,-5,14,-28,0,22,62
257,67,36,-3,-54,1,-35,-5,-1,69
278,19,-3,-20,-105,7,-38,0,10,68
237,-8,-25,-38,-121,5,-31,-5,0,64
85,-3,-8,-36,-115,-19,-45,-29,-42,29
-64,-9,-24,-39,4,10,-25,-1,-24,14
-151,-26,-48,-42,175,47,-13,9,-17,-11
-159,-28,-84,-38,96,18,-17,27,-1,-17
-106,40,33,9,-34,-51,-35,1,5,24
-123,31,73,28,-43,-33,-25,0,-15,8
-152,6,47,15,-20,-15,-4,11,-27,-46
-142,11,52,32,-2,-17,-15,-8,-55,-87
-86,7,29,28,-3,-11,-15,-5,-40,-63
-59,24,33,19,-2,-23,-4,24,13,-24
91,5,1,-11,-5,-22,-8,39,48,23
115,-62,-58,-11,89,14,-7,30,15,31
27,-57,-13,38,162,5,-16,-8,-32,-11
-39,-7,26,79,119,-15,-19,-53,-62,-64
-34,-10,-3,55,43,-1,-19,-30,-31,-13
-2,-14,-13,7,-16,18,2,14,18,57
69,31,18,-3,-4,40,33,36,29,72
98,55,-6,-4,-29,12,40,29,42,43
119,21,-22,-20,-122,-35,27,10,-8,45
132,15,-11,-30,-144,-47,31,12,-18,48
105,-13,-40,-16,-77,-19,23,3,-21,49
124,48,-67,0,-58,-52,-21,-38,-41,41
16,10,-125,7,-30,-15,14,7,14,80
-16,-52,-55,-4,-13,3,35,38,36,77
168,17,17,10,2,-10,0,8,-17,2
142,65,22,27,7,11,-3,4,-27,-33
7,43,-1,9,-16,-1,12,6,11,42
-71,4,-12,5,-12,-4,4,0,32,88
-63,58,31,9,-13,-11,-13,-46,12,19
-167,26,13,4,-4,-19,-21,-40,12,-67
-264,-67,-26,-4,15,21,-12,-4,25,-59
-275,-101,-66,-14,22,57,28,52,64,19
-177,-35,-37,2,24,42,21,40,80,43
-77,61,55,42,22,8,-39,-34,-3,-21
15,117,86,35,4,-27,-84,-104,-83,-30
6,15,12,-14,-3,-12,-43,-74,-50,3
78,-21,-13,-38,-23,-32,-16,-40,-29,-11
188,-8,-29,-40,-31,-52,-22,-41,-29,-1
141,-28,-41,-36,-22,-42,-9,-32,-9,3
83,-32,-137,-16,-16,-9,12,3,20,16
-21,-53,-111,-4,2,-9,26,35,8,14
-86,-59,11,10,23,-4,13,28,10,3
-67,-51,21,14,17,-3,-11,25,26,-8
-22,-47,1,6,18,-11,-6,44,52,33
-14,6,-21,4,26,1,-6,35,33,12
-9,94,29,15,24,-3,-29,-8,-18,-59
-29,116,67,25,31,-3,-32,-26,-23,-61
-66,49,53,16,28,8,-22,-5,-16,-50
-17,11,30,6,12,-3,-30,-10,-4,-2
-50,-44,-27,5,0,6,-2,-9,14,10
-48,-50,-40,-22,-23,-15,4,-32,-4,30
76,21,-22,-52,-45,-63,-39,-61,-29,49
145,21,0,-41,-27,-52,-63,-47,-34,21
161,3,12,-18,3,-10,-52,-30,-23,-12
197,17,-23,-12,17,24,-19,9,23,-6
171,16,-3,25,22,3,7,31,54,-15
-101,-61,28,84,56,42,50,50,57,-34
-241,-53,73,112,76,84,62,57,37,-67
-78,52,105,110,42,46,30,14,-7,-88
87,19,69,70,18,13,28,13,-10,-23
161,1,27,27,12,-6,7,-7,-30,5
166,21,-38,-49,-34,-32,-31,-36,-35,-16
99,-30,-124,-109,-63,-53,-43,-32,-25,-44
100,-9,-137,-77,-57,-60,-73,-56,-38,-30
55,14,-94,-7,-39,-39,-51,-45,-28,11
-46,-6,-87,9,-43,-23,-18,-10,11,48
-113,5,-123,12,-25,0,23,24,71,55
-179,79,-9,67,22,44,28,23,41,7
-293,79,123,86,51,47,32,20,63,35
-306,44,130,92,57,25,39,32,88,42
-263,9,92,101,78,32,53,27,56,-16
-197,-46,75,79,76,54,64,34,67,-13
-121,-53,81,58,44,51,65,42,84,42
-28,-13,70,45,-8,11,35,22,59,65
40,23,65,0,-56,-27,13,-9,31,38
20,-30,42,-53,-44,8,46,-3,19,-3
33,-47,-1,-84,-33,25,65,17,34,-27
37,-26,-20,-104,-52,20,62,34,56,-21
0,-24,12,-114,-62,0,8,-22,13,-20
3,-6,54,-120,-29,4,-10,-76,-28,-34
91,56,62,-108,-19,-13,-12,-87,-35,-41
85,17,12,-86,-20,8,7,-50,-4,-14
68,-11,-35,26,-18,31,22,-26,4,-5
90,-44,15,132,11,39,24,-1,0,-1
104,-38,45,70,17,36,-4,8,-6,30
72,-40,27,15,8,37,-18,6,5,46
31,-41,7,-7,-2,33,-6,-4,4,30
0,-21,14,-10,-17,13,-5,-24,-16,12
5,-34,2,-8,-50,11,19,-14,-8,19
3,-64,-21,-1,-100,15,42,7,6,16
-9,-50,-27,-11,-166,-1,20,-2,4,-5
65,49,17,-15,-232,-24,-11,-28,12,-18
96,86,21,-15,-51,-22,28,-13,52,-14
161,27,-2,-5,265,-11,30,-23,29,-9
307,-43,-45,1,153,-9,6,-40,-2,-6
256,-37,-73,19,5,-20,-4,-23,-9,-3
78,-15,-10,11,-25,-21,-25,-5,1,-5
-28,-20,-26,1,-9,-2,-9,18,21,12
-91,-47,-34,20,1,12,26,23,42,20
-105,-11,-39,22,4,6,35,6,52,18
-150,-10,-112,25,4,29,44,11,28,-16
-117,-21,-111,19,26,55,51,32,27,-31
271,26,-14,21,6,32,5,4,-3,9
363,37,33,32,4,5,-21,-13,-34,24
183,1,46,37,2,-1,-2,-11,-42,23
74,-3,35,13,-9,-4,-4,-23,-42,22
30,5,5,-23,-26,-14,-29,-13,-24,11
-32,8,-35,-39,-39,-34,-34,-1,-14,14
-130,30,12,-16,-37,-42,-51,-30,-17,-14
-307,2,25,23,-18,-22,-30,1,-14,-71
-384,-12,3,38,-7,0,-8,21,1,-93
-247,6,-18,28,-10,-7,-4,11,-8,-56
-140,1,11,21,-8,-8,-12,1,-8,-23
-80,-5,-66,14,-4,-10,-17,-6,-23,-23
-36,20,-81,0,-5,4,19,9,6,-8
-30,24,7,-5,0,12,50,27,30,-13
-18,33,-3,-23,-14,-1,19,0,-4,-22
-18,2,17,-26,-17,-11,-6,-33,-52,-31
16,-13,13,-19,0,-4,20,-22,-40,13
82,5,-3,-24,-5,-31,0,-28,-31,78
107,31,-9,-17,-27,-38,-11,-27,-30,58
139,17,14,-20,-22,-46,-8,-16,8,73
110,-11,7,-10,-18,-46,-32,-27,-1,72
-11,-47,19,-11,-13,-40,-35,-34,-24,60
-99,-77,17,-14,-12,-20,2,-20,-28,43
35,-53,12,-25,-27,-37,-15,-34,-53,16
328,-8,17,-40,-42,-51,-64,-66,-61,62
420,25,27,-37,-30,-48,-74,-73,-40,84
287,52,17,-22,-17,-25,-47,-56,-19,14
191,112,34,4,-11,-8,-37,-48,-18,-55
96,57,3,6,25,3,-50,-57,-86,-119
-3,-61,-96,-15,43,-9,-48,-34,-62,-102
-209,-105,-97,-15,2,7,-13,-20,-29,-98
-362,-40,-6,26,56,55,13,-5,-31,-139
-324,18,74,74,237,119,34,19,1,-87
-257,33,99,80,212,97,40,44,45,-17
-146,125,101,61,2,-23,2,1,26,-17
-56,126,82,44,-144,-74,29,17,45,-22
19,72,49,9,-147,-67,37,25,25,1
-50,26,44,22,-67,-25,42,18,-11,-36
-95,-26,3,9,-40,-29,43,26,-11,-59
-54,-39,-14,2,-42,-31,18,26,-14,-53
-36,-45,-13,-9,-46,-29,-2,16,-23,-40
-28,-27,-11,-13,-44,-28,-11,6,-21,-30
-1,2,-60,-5,-46,-32,-19,1,-4,-19
38,0,-54,-14,-41,-27,-30,0,-2,4
61,-11,-49,-36,-38,-16,-26,11,-1,24
64,-34,-65,-28,-18,21,0,42,0,33
41,-23,-23,7,6,24,50,43,5,32
11,-27,-58,34,21,21,61,37,-5,11
-9,-54,-59,34,39,51,68,34,-13,-1
-36,-54,-19,20,50,70,67,72,51,26
-33,-33,-76,7,44,59,57,105,110,56
35,77,5,9,17,20,14,30,30,49
-4,141,102,18,2,-12,-47,-48,-44,33
-91,-10,32,9,13,2,-18,0,-3,38
-77,-23,17,0,16,-4,-10,9,-19,4
-6,31,38,-14,-16,-26,-27,-13,-28,29
7,45,37,-23,-15,-37,-16,-15,-23,14
5,41,23,-11,0,-20,7,2,-3,-7
12,-71,-41,-24,3,-5,34,30,9,-2
130,-63,-43,-31,-1,-12,31,4,-25,-15
355,-66,-50,-48,-7,-37,-18,-33,-43,37
381,-7,18,-23,-8,-57,-77,-65,-41,78
254,6,39,-17,-18,-54,-69,-62,-23,75
181,-22,0,-57,-31,-39,-63,-45,-9,80
111,-33,-29,-66,-20,-17,-28,-9,30,76
-44,-55,-19,-30,8,5,-5,15,41,72
-175,-16,0,16,9,-7,14,18,48,43
-189,50,34,55,15,26,48,55,36,-48
-146,34,42,72,7,11,54,46,32,-99
-110,-9,1,47,-14,-5,37,16,19,-82
150,21,-8,13,-23,-27,2,-30,-22,-47
286,0,-31,-3,-31,-39,-18,-31,-10,12
150,12,-66,-9,-18,-31,12,-6,27,6
-12,109,-18,2,-23,-47,-14,-52,-12,-46
-133,113,25,9,-28,-60,-49,-77,-59,-62
-174,61,-8,9,-14,-40,-38,-55,-65,-40
-227,4,-114,-5,1,6,-16,-24,-50,-28
-304,-18,-30,16,28,21,-1,-14,-51,-72
-251,-15,37,40,24,24,3,-10,-45,-80
-143,-13,40,18,29,31,20,4,-15,-63
-90,-10,52,16,19,18,4,-7,4,-40
-64,-14,46,15,13,14,-5,-5,9,-22
-19,-7,37,0,6,-7,-12,-1,11,-9
-2,-1,15,6,-4,-11,-18,-2,-2,7
12,-24,-35,-12,-22,-10,-8,17,-4,36
37,-1,-38,-37,-31,-8,3,22,-2,61
5,-8,-19,-47,-16,-7,43,15,11,60
-42,3,36,-32,-4,0,44,0,22,30
-48,-31,36,-33,-12,-5,36,-1,6,32
-3,-49,-41,-30,-2,6,42,15,16,44
10,-47,-109,24,6,3,35,28,43,56
-28,-86,-61,46,13,21,55,62,66,48
-1,-92,9,22,24,23,51,62,48,4
70,-37,37,1,12,13,27,20,8,-27
267,90,50,-6,-1,6,16,2,21,8
398,166,49,-13,-22,-22,1,-17,23,46
312,104,34,-11,-35,-23,-46,-37,-23,67
144,10,0,4,4,0,-57,-21,-16,60
-22,-49,-21,19,37,26,-40,6,12,32
-65,-46,-41,5,34,16,-40,10,27,28
-66,-6,2,-19,5,10,-32,8,3,-30
-97,51,65,-45,-74,-19,-36,2,7,-53
-76,-16,-30,-114,-133,-10,-17,43,49,8
-118,-75,-120,-164,-145,5,-22,21,-2,-19
-4,39,36,-71,-157,-23,-87,-59,-76,-71
126,-10,34,76,-166,-19,-65,-34,-40,0
170,0,46,98,76,19,-26,-5,-1,89
102,59,116,51,273,10,-47,-29,-16,72
32,70,98,14,89,-26,-42,-6,11,52
56,87,50,-12,-13,-38,10,32,57,50
68,90,28,-18,-4,-13,46,29,67,29
39,31,21,-10,14,-1,16,-2,2,-11
0,-4,19,-20,18,18,-1,3,-31,-30
-59,-37,15,-2,33,38,11,32,-26,-46
-57,-66,-5,5,45,42,17,31,-22,-41
-47,-95,-14,24,63,71,43,55,22,8
-71,-94,3,33,65,75,41,56,8,12
-72,-67,-21,13,27,47,14,20,-34,-32
-78,-76,-36,-7,5,22,10,1,-34,-50
-49,-60,-55,-12,7,17,52,7,-23,-28
-6,-32,-144,-18,0,17,59,19,-11,-2
-36,-25,-152,0,14,18,70,30,0,-15
-114,9,-60,21,25,25,55,28,-11,-72
-105,27,43,22,14,26,34,22,-7,-72
-96,11,10,1,11,20,52,62,26,-18
-76,-36,-37,-15,-4,19,64,76,44,13
-15,-56,-15,-16,0,33,63,44,28,22
-8,3,58,25,14,33,29,8,-24,-43
5,63,99,38,-6,-13,-28,-40,-75,-66
72,49,46,1,-22,-23,-38,-56,-76,-31
117,-36,-42,-38,-17,8,-4,-25,-19,5
262,-48,-14,-34,-15,1,-3,-27,-14,45
473,48,-5,-44,-43,-55,-38,-53,-35,37
470,28,-45,-67,-60,-71,-56,-56,-46,21
395,-18,-65,-71,-51,-48,-29,-43,-50,44
267,-24,-34,-20,-8,5,24,16,12,115
69,21,25,20,40,41,53,55,55,163
-110,109,19,42,43,34,39,27,28,98
-288,99,-78,42,48,41,44,35,0,-24
-344,52,-22,29,44,53,67,60,26,-34
-351,11,31,14,29,55,62,71,36,-42
-303,19,43,39,90,59,11,32,-29,-126
-214,0,39,67,196,57,-38,-25,-105,-179
-20,-1,70,56,159,-1,-84,-73,-123,-136
257,-16,34,23,66,-14,-81,-56,-87,-61
345,-36,14,-14,-15,6,-48,-9,-32,3
317,-10,-4,-18,-12,39,19,44,26,64
244,-1,-91,-10,-7,45,4,33,36,62
125,-49,-19,2,-94,3,-38,2,17,61
-35,-61,45,-5,-150,-15,-40,-7,4,49
-249,-33,68,3,-120,-15,-30,-24,-24,-32
-451,-62,49,18,-99,15,2,-1,-13,-89
-418,-28,1,-8,-146,12,-18,-15,-41,-139
-128,65,-16,-51,-209,-38,-62,-45,-58,-108
139,102,-68,-68,-93,-41,-50,-47,-1,-26
229,109,-57,-53,51,-35,-37,-51,12,14
261,99,-5,-52,-51,-83,-81,-64,-6,47
257,104,9,-65,-6,-119,-92,-45,13,99
117,70,9,-34,65,-91,-59,-8,49,110
-147,-15,11,15,47,-22,-10,42,71,77
-288,-88,11,47,32,22,33,88,51,-10
-227,-42,8,58,48,23,31,65,17,-50
-214,17,21,65,63,34,17,39,8,-31
-312,-29,50,68,95,71,42,46,18,-24
-277,-38,38,59,97,59,30,34,12,-40
-290,-64,38,40,69,37,18,37,31,-47
-208,-81,-13,6,57,35,35,42,42,-39
-113,-79,-132,-38,42,38,44,53,44,-22
-21,-76,-91,-64,28,20,19,36,61,51
-19,-27,-2,-15,36,-4,19,15,62,20
-103,8,58,61,51,-8,-4,-18,19,-33
-134,-37,61,77,61,24,37,-12,-7,-43
-46,-14,53,44,41,-1,45,-5,3,-7
-3,8,49,5,13,-28,27,-14,-2,-18
1,11,39,-12,-5,-33,27,-12,-9,-16
15,-7,21,-15,-3,-35,27,-3,-8,8
28,-29,-6,-32,-1,-19,33,8,12,23
72,-21,-30,-53,-19,-30,39,8,12,28
106,-15,-49,-53,-28,-14,27,0,-4,23
61,-55,-66,-47,-10,1,23,13,5,21
55,-54,-75,-45,-4,0,-16,0,-3,23
45,-4,-36,-20,-2,-12,-47,-27,-34,-10
72,-37,-45,-6,-16,-7,-37,-35,-29,-14
81,-40,-26,-2,-15,-11,-28,-63,-71,-31
107,38,45,16,-21,-39,-44,-88,-73,-36
128,34,37,8,-39,-36,-43,-80,-49,-10
147,36,-29,-14,-61,-31,-69,-51,-18,33
148,37,-14,-19,-37,-30,-61,-34,-6,72
100,31,-9,-13,-28,-21,-36,-24,7,91
5,20,-24,4,-28,-23,-37,-23,-15,36
-42,20,3,21,-22,-9,-5,-17,-8,3
-74,39,31,18,3,0,33,9,33,0
-91,29,32,14,22,0,1,2,24,26
-64,3,34,23,29,-11,-28,-27,-34,15
-8,9,22,36,28,0,-28,-28,-61,8
10,-31,18,18,9,5,-27,-8,-35,17
18,-51,-4,-1,-2,1,-29,8,5,30
6,-75,-32,-10,14,24,-2,34,47,34
15,-99,-54,-11,17,29,31,62,67,55
83,-109,-45,-1,11,17,26,42,71,72
108,-72,-17,16,10,12,4,-9,-2,-31
133,2,-26,0,-6,-17,-39,-42,-41,-74
114,44,15,-1,-19,-52,-60,-56,-23,-59
111,24,-5,-19,-21,-46,-23,-13,3,-48
312,0,-31,-45,-19,-33,18,7,10,36
419,48,10,4,-1,-12,28,-15,-19,38
315,32,21,26,-6,-12,7,-27,-18,59
153,-48,-28,-12,-34,-30,-12,-31,-18,75
55,0,-100,-26,-33,-24,-36,-47,-55,5
-30,28,-82,1,-17,-25,-35,-45,-36,-39
-132,43,52,42,-9,-14,-29,-30,0,-53
-244,33,67,46,5,0,-14,-9,4,-69
-309,20,49,36,17,35,22,29,30,-76
-286,11,14,7,21,45,27,71,84,-54
-159,18,-21,-29,8,26,25,60,87,7
-114,-16,-20,-46,0,25,39,59,46,6
-105,-1,48,-31,9,14,32,51,13,-18
-104,-7,27,-3,5,46,64,59,22,-46
-124,-56,-36,45,-32,68,85,68,36,-53
-126,-64,-9,95,-82,58,86,58,17,-65
-103,-45,1,80,-128,29,69,40,-2,-61
-31,-12,26,61,92,23,57,22,-5,-46
180,38,76,81,294,15,12,-22,-26,-36
393,57,93,35,114,-22,-51,-47,-50,-11
293,27,35,-59,-18,-29,-65,-35,-13,29
106,-4,4,-101,-35,-2,-46,-31,4,-5
61,14,0,-74,-37,-17,-45,-55,-36,-10
-15,-16,-19,-48,-22,-10,-36,-31,-25,26
-141,-3,-6,-33,0,2,-8,-17,32,28
-229,-27,-48,-18,0,20,-2,-8,18,4
-232,-79,-106,-8,14,49,16,13,22,9
-129,-43,-9,7,20,50,18,11,6,27
-29,24,12,7,10,29,5,2,-20,-4
-18,5,-19,-2,7,19,36,23,0,-10
-127,0,54,21,15,26,42,15,-7,-26
-217,76,102,45,19,31,32,3,1,-34
-183,92,56,26,11,10,34,18,28,20
-62,53,25,0,-10,-21,10,-5,-8,24
-7,8,0,-8,-25,-9,8,-7,-35,-2
34,-27,-16,-20,-17,-10,7,7,-31,0
50,-9,-68,-21,-11,-11,-5,-1,-35,3
23,-6,-124,-7,-25,-11,-15,-14,-37,-1
3,-4,-90,2,-24,-21,0,-20,-28,-1
34,-1,-11,3,-17,-4,10,-5,-9,16
41,-9,6,-18,-31,-18,11,-4,-16,19
119,3,13,-19,-19,-14,3,-12,-3,23
278,13,36,-56,-19,-16,-8,-19,-5,29
281,-7,0,-114,4,-32,-44,-13,-25,34
165,-58,-63,-132,101,-15,-59,-25,-27,24
111,-43,-63,-86,119,-15,-50,-36,-56,-17
131,59,-1,32,66,-13,-55,-48,-60,-30
69,102,44,156,33,-10,-29,-28,7,52
-45,74,87,96,9,27,-11,13,44,117
-170,11,92,26,40,59,5,49,54,86
-169,-30,58,-2,-38,23,13,54,54,37
-118,-42,30,-22,-170,-36,22,57,80,37
-127,-52,28,-17,-149,-49,-15,35,66,14
-115,-47,10,6,-68,-59,-73,-13,-5,-57
0,0,6,17,-20,-40,-87,-52,-75,-120
135,41,-10,14,0,-30,-77,-45,-82,-92
197,94,23,17,0,-26,-56,-50,-45,-62
43,21,48,22,20,14,-35,-19,-15,-45
-164,-47,15,16,33,26,23,17,19,-36
-157,-6,-42,22,38,12,16,6,17,-37
5,37,16,-15,55,37,44,28,35,0
52,74,47,-17,37,4,25,6,36,17
29,19,59,-26,28,18,16,4,17,28
-11,-31,0,-21,34,40,34,21,22,10
-10,-52,-40,2,10,22,19,6,0,-12
16,-24,17,9,-17,-8,-17,-8,-5,6
45,-13,27,33,-20,-19,-9,5,-4,28
70,24,69,56,0,-31,-11,-6,-13,3
109,68,67,42,14,-29,-14,-12,15,-14
121,16,-56,17,13,-17,-5,8,44,-1
95,-15,-32,21,7,-3,-25,-18,12,5
80,15,45,7,-6,-20,-46,-28,-4,0
87,54,38,-21,-22,-29,-51,-15,-10,-1
85,40,26,-29,-28,-27,-38,-17,-14,-4
47,24,29,-6,-44,-2,-4,-25,-18,-1
15,-1,6,5,-48,2,29,-4,-2,-4
64,-22,6,2,-60,22,46,13,20,24
93,-17,6,8,-33,32,42,11,16,33
68,-30,-13,1,135,21,21,-9,-5,27
-10,-20,-24,-6,197,8,2,-25,-4,20
-56,-22,-32,-19,39,-36,-17,7,44,67
-115,-58,-54,-20,-31,-41,7,44,77,68
-199,17,44,16,-3,-21,18,31,39,-42
-223,123,85,33,27,0,10,31,43,-87
-132,62,32,3,16,8,20,61,83,2
-20,26,42,17,6,-15,-23,28,29,33
-4,8,44,29,5,1,-28,9,-21,5
25,0,19,16,-30,-14,-50,-16,-47,-16
160,9,-46,12,-43,-9,-53,-25,-24,-5
388,-28,-174,5,-32,0,-21,14,29,70
328,-38,-127,-1,-10,22,-9,38,60,97
150,23,23,6,-19,4,-58,-24,6,62
17,71,72,0,-28,-33,-77,-63,-21,15
-169,-15,43,-24,-18,-21,-40,-29,-11,-58
-282,-53,16,-2,9,13,35,21,-9,-118
-270,-29,14,11,15,51,103,60,19,-83
-232,5,18,5,-1,26,88,50,34,-20
-181,3,8,0,0,-2,65,38,34,-6
-158,-25,16,8,14,2,49,39,25,-14
-44,-2,-20,-20,-15,-22,20,37,46,47
32,-20,-134,-47,-25,-21,43,52,53,88
70,-9,-119,-40,-16,-32,38,21,6,73
95,7,-20,-24,-11,-35,11,-24,-27,42
74,-15,-44,0,11,-10,8,-6,-25,23
30,-113,-145,-6,46,55,56,46,27,45
-25,-68,-41,12,61,40,41,19,28,14
-144,48,90,57,72,3,-18,-43,-18,-100
-157,26,97,51,63,20,-25,-50,-53,-117
-105,4,123,34,33,2,-43,-34,-61,-64
-57,-2,101,29,34,7,-35,-14,-39,-28
132,33,66,27,29,5,-48,-27,-25,34
310,49,72,28,9,-9,-54,-41,-32,56
288,11,54,-9,0,-17,-51,-54,-48,26
243,12,21,-35,-8,-51,-60,-57,-46,10
185,-6,-7,-50,-29,-63,-62,-65,-48,9
113,-29,-17,-54,-29,-41,-36,-49,-30,8
2,-37,10,-16,-5,-6,9,-9,0,-12
-150,-35,27,22,21,27,43,20,11,-45
-312,-39,3,25,29,52,87,43,41,-65
-306,-34,-32,23,30,53,93,47,44,-54
-227,-2,-6,18,38,45,108,46,44,-59
-205,-29,-5,13,26,48,94,70,40,-46
-120,-47,-12,-4,3,30,56,37,0,-32
-61,-25,24,1,4,-8,32,1,-32,-23
-10,-12,16,2,0,-10,28,7,-13,-2
7,-35,-43,-19,-10,0,49,37,25,29
-13,-47,-85,-12,-5,9,60,44,9,-6
-9,26,1,37,15,10,40,-2,-33,-61
2,70,48,35,21,0,29,-2,-10,-23
27,23,13,13,14,0,-8,-10,-24,9
49,4,6,3,8,23,2,-20,-49,-43
79,37,24,-25,-14,0,-13,-27,-56,-51
37,25,2,-44,-30,-2,-23,-12,-23,16
31,26,-95,-49,-42,-24,-31,-20,-20,41
-4,38,-61,-35,-57,-41,-48,-30,-22,32
-65,25,0,8,-62,-43,-45,-13,4,53
2,27,-12,12,-56,-14,-44,-10,-6,48
154,33,-3,-9,-40,17,-23,0,-20,-13
278,48,9,-23,-25,17,-22,-12,-30,-18
293,51,13,-16,-20,24,-16,-13,-9,2
147,-2,-71,-9,-18,14,6,18,22,38
-138,-76,-94,7,4,23,28,50,50,50
-258,-79,10,10,7,25,22,53,43,39
-219,-47,33,-9,5,15,40,44,80,43
-207,-36,29,-9,0,10,32,14,46,20
-184,-48,22,-5,1,19,18,8,14,-1
-2,77,-4,-1,-17,-9,-12,-20,-4,6
44,171,1,3,-25,-16,-24,-23,-13,-25
-14,102,-83,-17,-19,1,20,13,-2,-12
24,24,-35,-19,-17,8,73,35,10,40
60,-14,31,7,-7,0,67,41,13,53
33,-32,22,3,-21,-27,47,19,-6,38
40,-27,26,-10,-32,-11,35,18,-8,24
54,-24,-3,-4,-56,23,38,16,-28,-28
60,7,16,-6,-116,-4,-8,-31,-69,-71
-57,30,38,2,-182,-19,-45,-61,-59,-74
-187,16,-79,-4,-199,-15,-47,-40,-14,-71
-55,20,-106,-4,89,4,-35,-36,0,-61
278,40,-4,-2,268,-7,-52,-54,-18,-17
333,-3,6,-28,85,-28,-62,-46,-1,50
138,-43,4,-26,1,-21,-50,-26,8,72
39,13,65,3,64,-34,-74,-56,-32,1
-29,-11,0,12,146,-34,-65,-35,-13,-23
-84,-78,-45,1,127,-16,-29,14,2,8
-72,-57,1,18,99,15,-1,27,1,2
-47,56,37,40,57,51,51,60,56,-9
44,133,58,2,37,51,83,76,79,15
29,81,-7,-54,19,26,48,24,14,4
-53,16,-10,-69,-70,-30,-29,-11,-28,-1
-99,-10,22,-71,-153,-70,-49,-7,-22,9
-129,-48,3,29,-133,-48,-17,32,10,4
-200,-91,15,128,-68,-1,6,38,35,5
-212,-76,47,68,-21,16,0,28,0,0
-60,-24,54,-40,-39,9,-20,27,-11,43
57,-33,22,-61,-47,-8,-20,25,5,99
89,-54,-16,-57,-39,0,-6,45,28,133
122,-1,-9,-31,-41,-9,-3,7,0,117
123,61,52,-1,-8,-10,10,-38,-50,37
81,59,29,-15,-5,-14,21,-24,-23,18
20,54,14,-13,-5,-20,27,4,15,54
-80,36,-3,3,6,0,64,32,65,42
-244,13,15,19,5,0,45,9,10,-72
-283,-6,54,45,33,25,42,5,-27,-123
-168,-16,51,30,27,19,-1,13,-11,-53
-63,-17,17,7,5,9,-19,-2,-6,3
-28,-34,6,7,6,11,-5,0,2,0
14,-38,4,10,11,3,3,1,0,0
41,-2,-6,-1,2,5,-10,3,1,0
7,43,-10,-8,-11,-9,-41,-2,14,2
-17,19,-24,-21,-19,-11,-64,-19,-20,-11
-2,-10,-39,-29,-22,-13,-52,-22,-51,-24
21,-18,-37,-23,-18,-10,-32,-19,-54,-12
79,-4,-39,-9,-1,-15,-25,-27,-37,-11
136,19,-78,-3,10,-6,-29,-10,-16,21
76,6,-7,5,9,6,-3,30,19,59
-27,-44,-4,-4,16,20,40,63,47,40
-11,-49,-88,-11,6,20,49,42,13,15
-25,-55,-144,16,17,20,48,32,-17,-8
-4,-15,-62,8,-1,-6,16,2,-39,16
96,55,-7,-13,-14,-27,-36,-30,-65,7
231,92,-74,-4,0,-28,-44,-30,-66,21
307,12,-62,-15,10,6,0,20,20,107
336,56,44,17,21,8,-2,9,22,80
332,124,70,23,17,2,-20,-25,-9,5
199,61,22,-13,-8,-27,-40,-40,-46,-38
12,18,14,-17,-24,-45,-71,-45,-55,-12
-194,-11,14,1,13,-6,-37,-24,-27,-42
-364,-10,56,30,37,25,-11,-19,-30,-130
-255,-23,26,33,33,32,0,-5,-8,-92
-40,-15,-16,24,25,37,8,2,0,-37
38,49,-72,28,24,35,-5,0,-26,-33
35,57,-137,8,2,1,0,-12,-33,-1
-28,-13,-124,-31,-38,-10,7,-10,-2,29
-61,-58,-70,-53,-50,-10,23,14,-3,-4
-12,-48,-76,-68,-51,-13,35,33,16,-1
64,36,-26,-63,-52,-37,12,-8,14,39
-5,79,-17,-7,-34,-48,2,-31,23,30
-115,-7,-16,-10,-14,-20,57,52,102,61
-184,4,92,17,8,-3,60,65,89,49
-250,13,167,54,42,9,50,55,55,23
-240,10,156,67,58,27,44,22,27,-25
-190,-5,132,70,74,39,37,-27,-14,-64
-147,-8,73,74,73,25,9,-54,-43,-87
-82,-8,54,52,65,16,-29,-57,-51,-69
-38,-10,-46,26,60,27,-51,-57,-38,-36
-5,12,-110,6,40,18,-29,-38,19,-6
40,29,-51,6,29,16,-22,-36,34,-6
34,22,53,6,16,24,-29,-35,2,-33
21,-34,37,-22,-5,17,-27,-11,10,1
2,-37,43,-20,-36,34,-21,-6,15,3
-20,-29,44,-29,-50,45,-1,-1,29,4
-23,-25,23,-56,-62,38,-7,-5,32,20
16,-57,-46,-69,-48,15,-4,0,55,40
94,-32,-65,-64,74,18,-13,-15,53,51
72,3,5,16,131,18,-22,-29,28,-1
245,32,59,89,31,-45,-51,-67,-27,-46
421,46,76,39,-40,-100,-84,-93,-37,16
222,9,38,-25,-27,-76,-50,-66,-4,29
24,-43,-22,-36,-11,-40,-29,-53,0,21
-14,-37,-18,21,-4,-22,-22,-53,-8,15
-37,-5,-1,165,0,-12,-13,-30,20,30
-142,-12,25,106,-11,30,-10,7,44,26
-300,-44,26,-86,7,80,21,44,60,14
-138,-19,4,-107,-3,68,14,43,94,38
-10,33,-9,-45,-2,35,35,55,115,24
-90,14,-5,1,35,57,78,69,71,-16
-99,-8,0,-23,21,42,30,40,43,9
-55,9,-25,-43,-3,1,-7,18,65,73
-56,26,-71,-36,-18,-25,-6,7,64,55
-24,-25,-139,-43,-24,-33,-29,-26,4,20
4,-50,-43,-50,-27,-41,-44,-37,-36,-4
-50,-70,-23,-61,-20,-9,-13,-5,-43,-51
-15,-41,-37,-63,-9,5,1,10,-22,-49
79,40,-15,-42,-14,0,-10,-22,-11,-14
64,8,18,-1,0,11,1,-23,-21,-10
-2,-40,1,6,12,24,32,1,5,-6
-18,-126,-65,17,20,55,79,45,15,4
42,-36,-12,38,12,41,49,3,-22,-28
66,115,98,61,0,11,-18,-75,-68,-46
-10,80,100,41,-10,0,-33,-62,-52,-45
-32,32,63,14,-2,4,-36,-38,-40,-42
20,12,25,-11,-10,2,-12,-24,-40,-3
108,48,21,-24,-27,-10,12,-12,-16,25
259,91,12,-39,-44,-20,11,-2,21,65
382,67,-31,-66,-59,-30,-4,6,19,101
310,21,-30,-50,-58,-36,-9,16,-8,85
170,-17,0,-8,-16,-12,-24,4,-31,31
15,-89,-56,3,81,0,-39,-23,-59,-34
-137,-159,-105,-1,144,22,-46,-17,-69,-53
-114,-128,-39,11,111,26,-49,-14,-67,-43
-42,-97,-60,-42,48,5,-27,-13,-43,-23
-6,-41,-99,-126,-35,8,0,1,-29,4
24,-7,-49,-148,-46,25,26,28,-8,36
18,-16,-27,-95,-84,-4,-14,14,-16,36
-32,10,36,36,-125,-25,-39,-4,-20,24
-118,38,65,166,-98,-21,-36,-5,-22,-19
-265,10,10,111,-34,12,3,18,-5,-70
-376,11,-41,64,1,49,34,45,27,-53
-271,42,-44,39,-11,34,17,26,28,3
-124,47,-1,7,-26,11,6,16,23,50
-131,5,-10,14,-11,7,19,32,53,64
-147,-20,-16,19,-6,25,29,55,67,74
-117,1,55,29,-4,35,25,51,70,34
-7,5,0,6,-14,24,30,21,29,-26
77,16,-51,3,-15,-10,38,7,-11,-62
71,43,22,27,1,-18,52,22,12,-43
74,24,18,35,12,-11,48,29,29,-16
35,-25,18,28,25,0,12,7,-19,-45
15,-12,48,29,6,21,-9,-22,-44,-58
44,-13,33,-3,-86,23,-3,-23,-33,-21
65,-39,-6,-86,-153,1,-9,-3,-12,11
41,-65,-19,-149,-203,-10,-27,-1,-16,6
19,-15,25,-112,-93,17,-36,-7,-35,-49
7,-19,24,-51,268,61,-3,6,-24,-85
200,33,24,-27,208,10,-30,-27,-52,-71
433,78,17,-46,15,-55,-34,-33,-61,-8
398,66,-40,-50,-47,-74,-26,-37,-43,22
271,74,-24,-43,-51,-74,-52,-41,-31,32
179,69,14,-42,-43,-73,-51,-33,-12,61
105,45,-18,-33,-34,-55,-21,1,29,110
-68,-5,-28,-22,-8,-22,6,50,72,106
-360,-31,-9,31,22,4,14,48,57,-12
-456,-41,54,66,72,29,48,41,24,-134
-156,-13,41,48,54,21,51,26,10,-79
8,7,21,21,15,12,31,10,7,-11
11,-50,-26,-8,21,39,47,44,24,0
113,-97,-101,-46,11,43,66,58,69,65
165,-44,-142,-45,-6,6,5,8,45,52
118,112,38,1,-14,-46,-72,-63,-4,1
1,24,-10,-22,-17,-35,-49,-14,34,18
0,-41,-96,-39,-9,-8,-26,6,21,52
70,57,-1,-16,-9,-37,-35,-38,-9,100
61,90,7,-20,-25,-44,-27,-33,12,122
-33,52,43,-5,-17,-34,-24,-7,34,102
-154,21,30,11,6,-13,-15,25,43,68
-165,-9,15,1,14,-5,-12,35,25,14
-10,-14,-5,-6,-12,-13,-32,-4,-17,-35
101,7,8,5,-22,-36,-66,-53,-45,-37
28,-6,44,21,-2,-26,-58,-52,-64,-57
-194,-44,26,25,28,14,-12,-25,-64,-136
-345,-69,12,46,63,53,29,17,-40,-174
-307,-88,14,48,69,73,37,37,-19,-159
-210,-95,-17,25,69,84,65,64,34,-96
-143,-79,-16,15,74,82,86,74,64,-57
-105,-34,40,23,60,51,31,26,13,-66
-73,-33,-11,2,28,39,-7,7,-22,-56
-29,-41,-33,0,5,21,4,4,-25,-35
76,2,20,-1,-3,-2,33,-2,-22,-10
223,21,30,-3,-2,15,59,19,7,46
265,8,25,-4,-8,9,57,22,24,70
212,1,28,-15,-19,-24,48,6,6,61
136,11,57,-16,-16,-45,14,-29,-24,60
41,-9,26,-10,-18,-36,21,-16,-22,64
-60,-14,-15,-21,-14,-10,47,13,-13,10
-149,15,10,2,0,-12,46,16,-20,-53
-159,31,50,32,10,-27,29,10,-24,-88
-60,-19,-7,7,0,1,35,47,32,-18
31,4,-2,15,0,5,31,24,22,7
-4,68,64,64,18,-3,7,-37,-45,-52
-49,69,60,52,-2,-15,-18,-32,-48,-69
16,21,15,11,-18,-19,-20,-16,-11,-21
102,-13,-52,-29,-27,-11,-13,-7,10,15
114,-25,-71,-44,-27,-15,-6,0,-6,24
103,18,7,-12,-13,-29,-24,-22,-17,20
71,31,9,-27,-6,-16,-15,0,13,18
4,89,20,-2,11,-15,-6,21,69,2
-45,86,28,59,35,2,4,17,59,-9
-32,14,26,81,47,-7,0,11,25,13
-19,29,43,51,32,-8,0,1,34,61
-77,2,31,12,21,-7,4,9,34,49
-99,-59,-12,14,7,-15,-3,16,40,16
-74,-50,-14,25,-4,-9,-3,21,39,7
-25,-25,16,35,-21,-32,1,9,25,36
-4,-63,6,35,-34,-24,2,13,16,68
80,-44,-14,26,-21,-10,-18,6,-1,39
135,22,-89,33,-10,5,-38,-21,-58,-48
119,26,-65,30,-3,14,-46,-24,-75,-57
80,-18,-6,20,0,18,-25,-16,-60,-51
51,-13,-45,11,7,33,-8,0,-49,-43
24,40,-111,8,17,48,10,25,-37,-38
-58,50,-8,41,26,35,10,25,-13,-24
-91,8,25,29,13,16,7,32,4,25
-23,-28,-7,-6,4,53,42,16,-6,-26
40,46,34,3,-2,18,26,-21,-21,-10
43,70,30,-8,-14,-24,18,-24,-11,16
49,58,38,0,-14,-11,22,-23,4,38
32,83,49,5,-18,-16,32,-6,56,47
7,76,26,-7,-17,-11,58,22,94,43
4,40,10,-2,-10,-14,46,6,55,43
0,32,13,10,-5,-35,9,-29,15,20
31,28,15,8,-1,-38,-5,-41,-9,13
281,43,9,0,-1,-34,-8,-42,-16,32
513,66,2,-15,-26,-40,-16,-61,-28,51
353,58,-29,-46,-57,-49,-30,-76,-40,50
178,25,-58,-62,-76,-41,-57,-55,-26,82
126,22,-44,-68,-87,-49,-83,-49,-28,94
198,78,-32,-69,-83,-57,-79,-49,-40,69
255,109,-10,-41,-41,-47,-73,-57,-39,78
35,45,-6,-2,64,-37,-63,-37,-9,82
-183,-29,-17,21,109,-27,-30,-10,27,42
-110,-18,-26,-8,38,-38,-48,-24,42,67
64,-12,-62,-47,-48,-49,-43,-6,74,129
191,-36,-9,-91,-110,-50,-31,-3,53,124
15,-117,-23,-120,-39,-7,23,30,41,59
-37,-126,-49,-119,-82,-57,-22,-5,27,70
61,-84,-18,-94,-175,-114,-47,-35,0,46
78,-143,-40,-38,-148,-69,0,-18,14,20
0,-106,-27,135,-54,-19,4,-46,-46,-65
-170,3,24,185,9,20,14,-56,-90,-207
-235,34,71,93,20,49,30,-5,-15,-186
-201,-50,48,48,35,69,54,49,36,-84
-102,-7,-15,41,17,72,39,35,19,-50
-107,62,15,48,-26,56,16,12,-9,-39
-151,-16,33,23,-49,40,24,30,39,49
-217,-79,22,20,-43,63,52,56,57,77
-325,-61,60,54,102,93,83,89,84,97
-436,-28,33,73,294,123,94,114,117,84
-494,42,23,104,207,90,65,93,69,-72
-359,61,99,118,82,42,22,59,-3,-183
-193,-19,32,91,54,25,21,51,-18,-175
-126,8,40,104,73,23,-8,13,-67,-173
-98,73,71,87,54,22,-22,-9,-79,-175
-90,0,-35,73,46,62,47,33,-37,-141
-14,2,-100,17,44,56,54,31,-11,-69
15,102,13,-38,23,1,22,6,22,-28
11,81,40,-45,11,6,30,18,3,-34
33,48,35,-29,1,15,16,14,-25,-25
57,11,33,-33,-11,-23,-8,3,8,20
55,-12,22,-28,-6,-39,-12,-13,-11,15
41,-5,28,-13,0,-26,-8,-13,-38,-29
50,-21,16,-19,-3,-10,0,7,-33,-15
75,2,9,-30,1,-20,-3,10,0,25
81,-19,8,-39,0,-18,-8,4,8,19
94,-16,4,-37,-15,-12,-4,11,11,25
91,-15,-27,-24,-21,-23,-2,15,10,31
111,-6,-135,-42,-22,-20,6,19,16,37
109,-3,-182,-55,-31,-32,2,24,30,48
73,-6,-63,-39,-16,-26,-3,19,37,39
58,-17,2,-26,7,-14,-10,17,30,10
89,-18,17,-14,-6,6,-13,17,16,6
260,-10,2,-10,-24,10,-7,13,2,21
386,0,4,-10,-30,0,-21,-11,16,48
243,-4,-2,-18,-29,0,-25,-4,26,30
121,0,0,-17,-29,4,-8,0,0,18
29,31,69,22,-22,-12,-5,-33,-25,4
-67,0,54,33,-3,-23,-4,-34,-8,12
-117,-18,-24,3,-3,0,20,-11,24,10
-193,-34,23,8,0,2,24,-16,24,-8
-178,-57,11,-2,0,13,21,-6,19,-2
-73,-51,-22,-24,-8,8,10,0,21,12
-6,-41,-33,-32,-23,-11,-4,-1,22,25
7,-31,-2,-11,-20,-26,-22,-13,22,30
9,-27,5,-2,-21,-36,-28,-13,21,36
32,-9,0,-13,-23,-22,-9,11,28,44
0,-35,-24,-17,-10,3,40,64,70,34
-10,-15,13,-11,-17,-5,-4,19,8,22
15,30,37,-10,-20,-24,-52,-24,-41,29
-5,8,19,-22,-3,0,-43,-23,-36,16
6,19,13,-15,0,-1,-15,-39,-44,2
-6,-14,12,-4,9,7,-2,-23,-32,5
-19,-29,-2,11,23,14,19,8,-27,-1
46,15,17,71,32,23,29,25,4,-6
174,6,5,86,35,26,3,18,-6,-6
217,-3,0,44,16,-2,-27,-33,-85,-27
171,15,-5,17,8,-8,-28,-40,-80,-19
114,2,-4,3,6,-8,-19,-37,-57,-3
46,-16,-16,6,-1,-8,-9,-23,-40,-1
-29,-11,5,17,14,-3,2,2,-18,18
-87,24,7,9,35,8,16,29,16,16
-125,29,-2,-9,28,35,14,40,35,-7
-125,1,-22,-26,-24,39,15,17,3,-32
-73,-5,-6,-46,-117,2,2,-13,0,-14
-62,-29,-67,-31,-188,-3,8,-30,-15,-16
-43,-2,-27,20,-169,-14,21,-54,-29,-21
0,44,36,63,161,18,16,-51,-15,-4
2,21,50,71,288,36,-18,-59,-38,-2
-8,-16,16,41,110,18,-3,-14,-2,-3
79,-32,-5,3,15,3,7,21,26,12
198,30,5,-19,-16,-20,-21,8,23,53
122,-16,-2,0,-3,3,6,13,13,13
68,0,34,17,0,1,-34,-28,-23,-7
36,10,39,15,-5,-27,-74,-59,-41,-15
-28,-12,2,-10,-12,-18,-61,-43,-30,-29
28,22,0,-21,-18,-27,-39,-18,-7,-38
256,82,7,-10,-2,-10,-21,8,17,13
263,59,-5,-9,7,-2,-26,14,-10,27
232,21,-32,-32,-30,-31,-47,-14,-57,29
201,34,-27,-40,-58,-50,-52,-46,-49,31
37,-12,-19,-23,-39,-18,5,-15,-13,33
-216,-88,-3,17,21,46,40,56,18,35
-310,-35,18,45,50,66,30,74,36,-7
-366,11,41,54,53,69,28,69,30,-68
-381,-22,44,61,60,79,70,69,37,-65
-297,-17,30,49,52,61,94,48,23,-34
-151,5,6,13,17,42,74,26,9,-25
28,33,-1,-12,-2,14,43,-2,-16,-40
98,30,11,-11,-3,-8,9,-11,-35,-40
86,21,6,-19,-8,-13,-22,-18,-38,-6
38,8,-8,-14,-2,-27,-40,-12,-19,19
46,10,-21,-16,1,-10,-20,20,9,36
34,11,-21,-24,0,-15,-18,25,35,52
68,42,-7,-16,-15,-38,-27,7,33,51
270,21,0,-12,-10,-28,-12,12,32,77
255,-39,-67,-5,24,3,5,25,52,78
48,5,-75,-2,18,4,-13,-9,23,32
-32,43,-30,-29,-17,-54,-58,-47,-8,15
-61,28,-21,-37,-1,-23,-16,-11,31,14
-146,10,-17,-23,54,13,10,7,35,-37
-195,-27,-5,-27,111,-14,-48,-66,-52,-86
-239,-98,-61,-12,114,-12,-55,-60,-57,-89
-136,-73,-82,-18,77,0,-31,-43,-40,-67
-75,-32,-98,-52,16,13,-18,-19,-31,-58
-96,-65,-62,-71,8,45,31,44,14,-21
-70,-51,8,-57,37,44,40,43,14,-28
-36,-34,-36,-47,-46,5,37,42,32,0
14,0,-110,11,-112,-34,60,49,58,59
57,55,0,162,-77,-58,20,-3,-2,12
123,64,91,111,-73,-83,-14,-46,-51,-1
172,23,37,4,-77,-83,-8,-28,-38,20
245,-7,-41,-32,-64,-64,14,-9,-19,39
300,-7,-24,-53,-59,-55,5,5,-27,32
299,45,11,-42,-53,-52,-28,-13,-13,32
137,-1,17,-20,-28,-27,-22,-4,18,93
-31,-36,-3,-10,-9,0,-17,0,8,82
-122,-21,-2,7,-2,27,-2,1,-1,27
-174,-26,43,39,20,33,37,1,-14,-32
-241,-38,67,47,35,58,42,9,-11,-65
-298,-9,100,69,42,66,1,11,-25,-83
-298,-2,81,71,45,71,5,27,-9,-93
-255,-66,4,31,31,65,34,51,20,-50
-161,-67,-54,5,11,36,14,19,9,-42
-84,25,22,25,9,0,-37,-36,-35,-65
-68,21,51,15,17,-9,-37,-31,-33,-52
-40,-1,35,0,15,-21,-28,-16,-22,-35
-2,7,43,3,1,-22,-7,-18,-13,-24
9,-4,12,-10,-10,-15,31,-7,4,-18
18,-19,-53,-24,-18,-7,41,10,11,-17
42,-5,-100,-30,-36,-13,-9,1,8,-2
4,-8,-6,-32,-29,0,-13,1,25,-2
0,12,23,-34,-25,-7,-30,-3,3,-1
23,6,13,-30,-24,4,-18,-6,0,17
62,-4,-8,-30,-27,-9,12,-3,6,45
62,-55,-25,-36,-10,11,57,35,48,60
101,-27,-47,-24,-7,27,71,37,55,70
154,95,-39,4,-15,-15,34,-20,31,78
19,35,35,13,-7,-13,31,-27,-1,23
-58,-66,20,3,19,19,55,11,11,-44
-16,-27,19,14,14,28,24,5,0,-47
19,-26,5,34,6,19,10,18,5,-32
67,-6,5,35,2,-9,-18,3,21,-3
46,9,-21,33,1,-30,-46,-29,-2,24
30,5,-93,34,12,-34,-19,-31,-17,16
171,23,-5,22,-8,-30,-43,-45,-35,29
281,43,34,-22,-35,-49,-76,-57,-45,71
219,31,5,-101,-49,-50,-88,-65,-46,69
111,-22,5,-146,-50,-45,-76,-54,-29,69
75,-58,-11,-148,-45,-16,-45,-21,-8,81
65,-56,1,-115,-22,28,-12,7,11,105
-8,-35,21,-56,8,32,-1,16,32,52
-128,-62,31,20,40,54,16,23,16,-32
-68,-88,25,54,52,83,45,44,4,-46
-28,0,53,69,43,70,41,50,21,-7
-55,110,34,38,0,21,8,20,9,19
-80,106,-4,12,-35,-23,-26,-7,-30,-12
-39,46,-19,6,-49,-35,-56,-25,-46,-66
32,46,-24,-9,-47,-36,-52,-33,-44,-76
-107,29,-30,-5,-8,4,7,16,-2,-63
-315,-54,-35,21,23,46,60,61,27,-65
-189,-53,-2,0,-1,14,27,32,-7,-50
-70,-8,3,11,-16,-8,-5,-13,-37,-34
-63,-10,5,33,-4,-16,-7,-22,-32,-27
-59,-13,-24,31,-15,-13,-1,-22,-20,-10
-24,-13,-50,1,-13,-5,22,-21,-24,-19
-5,7,32,9,-9,1,4,-29,-39,-42
-18,-18,3,24,-5,0,29,-30,-30,-46
16,-27,-32,-7,-6,1,32,-22,-35,-22
34,-15,35,-16,-8,-8,1,-33,-53,-20
41,-24,27,-17,-10,-8,4,-30,-21,-19
81,-32,-3,-3,-10,7,32,-6,15,37
110,-31,-27,-3,7,16,39,23,41,50
103,15,-10,9,25,29,31,25,47,19
36,52,-22,9,30,37,30,42,62,9
-13,52,-102,9,1,-11,-16,-3,32,1
74,22,-91,14,-7,-32,-38,-50,-16,-16
152,40,-13,18,11,-28,-20,-59,-33,-16
102,45,-28,8,1,-23,-31,-50,-20,0
21,18,-31,0,-17,-22,-27,-32,-23,-8
-11,-8,9,0,-12,10,-9,-15,-2,-3
-64,-4,20,20,10,15,18,-5,35,31
-125,-7,6,39,26,16,41,-9,22,30
-158,0,13,25,22,20,23,-19,-1,-5
-152,-30,34,14,22,11,37,1,21,-14
-86,-53,15,11,12,21,58,8,19,-3
-10,-31,13,17,2,23,65,-4,8,11
-12,-37,-9,15,-3,0,57,1,26,19
-24,-23,40,19,-10,-12,30,-7,20,-4
-32,-30,55,16,0,0,41,1,7,-31
-6,-17,53,20,-9,-11,25,-8,-11,-28
10,-21,14,11,-7,-6,19,2,-11,-8
16,17,15,6,-9,-29,-15,-3,-24,0
-19,23,41,26,-12,-33,-25,1,-25,-8
-42,-7,53,37,-7,-25,-13,10,-22,-19
9,19,57,31,-2,-29,-20,-1,-23,-2
59,43,28,13,-14,-28,0,23,31,28
64,61,-1,-9,-19,-28,24,42,80,64
11,33,1,13,-4,-7,16,33,36,29
-15,-3,20,21,5,-11,-18,4,-22,-7
46,33,1,1,-23,-48,-71,-33,-52,13
74,22,-35,-20,-27,-31,-54,-22,-32,26
54,27,8,-5,-13,-18,-46,-18,-32,-1
43,0,9,9,-1,-14,-37,5,-10,0
15,-26,-12,0,2,-3,-7,34,-1,1
-31,-53,-103,-17,-24,-6,-8,30,-9,16
-48,-77,-194,-17,-4,4,-23,21,-9,40
-51,-57,-102,-11,-39,0,-28,0,-31,15
-41,1,12,7,-102,-3,-34,-11,-36,-18
91,-2,2,9,132,33,3,6,3,29
258,19,31,-17,168,51,17,28,37,103
286,65,-21,-81,-19,-8,8,20,32,79
234,-4,-87,-135,-49,-52,-21,2,-3,32
167,-25,-17,-121,60,-53,-51,-25,-52,-23
118,9,33,-67,28,-47,-67,-20,-47,-28
7,-27,29,66,-29,-35,-28,27,1,-25
-147,-27,50,184,-13,-5,15,38,10,-81
-197,-10,53,102,12,35,46,44,24,-93
-166,19,46,41,17,45,69,42,56,-76
-159,19,49,27,25,56,103,78,116,3
-149,15,26,24,38,71,97,83,98,22
-164,17,-45,16,39,78,60,38,5,-27
-58,30,-31,24,60,52,37,-18,-50,-52
-36,16,-24,5,34,40,42,-9,-37,-75
-9,-20,-32,-40,-19,42,69,31,3,-34
25,10,-32,-28,-67,19,58,23,-9,-16
31,27,-51,0,-50,-11,18,-11,-28,-28
-17,-68,-46,-2,-20,10,13,13,-4,3
18,-88,6,20,29,22,-4,-4,-19,9
150,66,81,35,20,-15,-48,-52,-27,13
209,55,20,8,-22,-44,-66,-30,-1,6
124,-18,-28,1,-12,-3,-34,0,14,26
-51,1,79,26,-2,23,-34,-21,10,26
-25,61,86,28,-14,8,-40,-25,45,65
75,0,52,1,-31,-4,-44,-41,0,55
69,-75,17,-29,-43,-12,-21,-52,-33,15
-63,-97,-11,-32,-30,-3,13,-23,-20,22
-158,-40,-5,-34,-28,0,19,-5,-18,18
-28,72,35,-38,-45,-31,-11,-31,-21,56
14,93,39,-32,-48,-54,-24,-39,-16,88
-46,83,38,-24,-37,-41,-24,-15,1,94
-121,60,47,-15,-9,-26,-27,-23,-8,51
-127,38,51,8,15,11,-9,-24,-13,9
-65,57,42,15,27,22,21,-16,3,22
-73,58,58,17,25,30,46,5,26,37
-176,9,52,14,45,59,90,38,60,-10
-196,-9,26,0,36,39,64,31,47,-91
-49,-33,-33,-10,-2,0,-5,0,7,-125
78,-11,-32,-19,-14,-18,-41,-45,-50,-117
39,7,7,16,-5,-29,-44,-56,-62,-85
-28,-24,-4,29,13,3,-18,-34,-32,-59
-44,-53,-61,24,33,16,18,-13,-9,-63
-10,-38,-86,15,25,17,21,-3,-10,-64
-20,-25,-55,-3,6,11,23,9,0,-44
-104,-29,-18,-14,-3,0,34,27,25,-26
-225,-24,-2,22,28,34,70,62,81,-12
-134,39,-61,43,37,21,68,48,92,19
-24,45,-105,11,14,-15,37,16,45,5
-36,24,-26,-4,2,6,32,17,26,-18
-15,13,58,1,15,0,8,-3,-8,-13
22,-8,48,-25,16,-1,3,-22,-19,15
13,-8,24,-46,17,12,13,-22,-26,5
10,16,28,-66,3,-2,-4,-17,-17,4
13,-9,9,-49,0,11,-19,12,11,18
11,-61,-6,2,19,35,-11,40,27,18
34,-65,-11,27,38,13,-4,17,7,18
105,5,46,54,36,-13,-45,-33,-23,35
66,11,60,69,41,-19,-56,-22,-8,53
-51,-68,40,64,45,0,-19,14,44,42
-71,-79,22,50,25,33,20,23,42,15
89,18,43,42,-8,-9,10,-7,9,11
232,102,37,-22,-36,-35,-25,-34,-9,24
227,138,12,-91,-61,-35,-52,-36,-12,23
187,110,-9,-107,-46,-37,-76,-38,5,35
127,74,-4,-86,-18,-41,-73,-29,-10,52
84,76,12,-49,-14,-50,-65,-20,-4,41
17,57,18,-19,-10,-35,-62,-8,-18,-10
-74,-4,9,-9,1,-1,-36,17,-20,-27
-103,-46,-23,-18,29,19,10,70,54,16
-95,-101,-77,-32,46,54,41,91,77,50
-94,-57,-29,-12,42,55,11,38,3,-15
54,59,29,-2,19,1,-40,-29,-65,-49
-8,32,55,6,28,2,-37,-15,-32,-28
-151,-31,42,25,62,39,12,21,6,-23
-103,-47,3,5,46,27,42,37,25,1
-30,21,23,6,14,-4,9,13,7,-12
31,34,18,10,-2,-7,2,9,-13,-6
178,38,20,17,-9,-18,15,-1,-19,23
210,16,53,39,1,-22,18,-18,-11,45
172,0,38,-4,-20,-44,1,-24,-13,66
105,1,15,-20,-28,-47,-22,-32,-29,45
12,-20,-9,-16,-25,-31,-6,-11,-15,5
-79,-29,-24,-11,-18,-17,14,8,25,11
-180,-44,-11,0,4,-1,31,28,32,-34
-234,-32,10,27,16,-1,24,14,-8,-90
-177,0,32,28,12,-7,15,10,-22,-75
-111,-20,-11,3,16,-7,23,23,-5,-43
-90,-37,-34,-15,21,11,32,30,22,-22
-85,-19,-13,-66,25,17,32,6,15,-21
-56,3,0,-88,0,0,16,-12,10,-4
11,51,7,-70,-13,8,20,0,39,26
11,44,-20,14,-4,17,25,5,8,3
-18,-13,-44,155,-9,11,-18,-1,-26,-10
31,20,27,139,-19,-2,-64,-28,-50,-7
71,19,24,35,-34,-13,-41,-15,-28,11
91,8,-26,-13,-59,-18,-16,7,-15,8
108,1,-46,-31,-70,-26,-23,24,7,12
159,-6,-59,-52,-48,-18,-15,42,42,45
225,12,-32,-56,-22,-31,-17,3,8,28
122,-16,-31,-40,74,-11,2,18,13,17
26,-49,-60,-58,150,2,-13,26,40,-7
40,-42,-72,-79,69,-48,-79,-15,-3,-25
74,-70,-75,-65,-10,-74,-116,-50,-38,-52
380,-54,-80,-68,-63,-20,-50,5,13,6
518,17,8,3,-29,19,0,33,42,79
292,109,114,85,-23,-5,-31,-9,-2,85
55,89,84,61,-98,-2,-9,27,27,65
-147,13,65,52,-134,18,0,60,41,62
-273,-36,56,52,-129,40,8,46,32,32
-392,-24,56,58,-149,33,16,43,-3,-66
-509,-36,60,71,-117,58,33,59,-19,-154
-413,-45,45,82,212,102,70,78,-15,-140
-231,-34,21,72,317,85,40,73,4,-73
-168,-16,33,59,128,51,36,68,11,-48
-129,12,38,44,36,30,58,54,2,-36
-60,37,14,18,11,12,41,34,11,-19
-29,36,14,7,17,8,3,18,4,-10
-28,13,4,-11,12,-2,-6,6,-20,0
-23,-8,-21,-23,3,-7,-5,-6,-23,13
3,-28,-34,-28,7,17,1,-9,-9,23
25,-11,-21,-20,0,7,2,-4,-1,12
37,-20,-9,-33,-13,-3,-14,-22,-7,-4
37,-31,-30,-40,-26,3,-21,-27,-22,0
67,-3,-103,-11,-11,-8,-8,-27,-29,10
126,9,-139,27,25,16,24,-16,-8,35
171,30,-132,18,37,19,27,-11,-10,47
121,37,-102,7,23,0,15,-17,-12,21
73,58,-47,8,6,-8,21,-16,11,11
30,70,0,8,4,-9,57,5,57,39
7,11,19,0,3,-11,57,19,45,38
-13,-43,7,-15,-1,-10,20,9,-2,7
-41,-23,0,-14,7,0,20,10,-15,-32
-1,-2,-39,-40,-23,-1,18,1,8,-18
1,37,1,-20,-41,-39,-19,-30,2,-27
31,39,0,6,-18,-40,-41,-31,-4,0
128,-8,-20,-29,-12,-20,-19,-10,34,58
125,3,40,-30,-5,2,-6,-10,5,31
25,3,44,-26,-6,3,8,-11,-19,7
-46,-7,37,-17,-26,-2,-22,-19,-26,2
49,-22,30,-16,-20,1,-24,-20,-19,17
146,-24,33,0,-16,1,-23,-23,-30,28
159,6,32,34,-30,-1,-39,-39,-38,28
131,56,41,55,-32,-19,-45,-39,-21,40
51,47,24,34,-24,-15,-28,-11,24,50
-32,-15,-8,-20,-30,-14,-9,1,23,49
-127,-10,17,-24,-25,-16,-7,1,1,-12
-202,-11,34,-1,-3,5,8,24,0,-65
-162,-4,26,-6,-7,-2,-2,25,31,-4
-120,15,23,-24,-36,-25,-29,-5,17,-5
-103,26,1,-33,-40,-23,-24,-6,18,-16
-12,31,-72,-25,-30,-14,-9,10,23,23
68,6,-52,-12,-20,-2,-5,-2,18,52
120,33,10,6,-4,18,-11,-2,11,41
296,36,22,28,7,13,-5,-1,10,14
302,8,47,34,25,35,9,-7,14,0
97,-34,5,5,11,52,22,1,20,16
-50,-15,-5,4,0,23,-4,-27,-3,-5
-108,47,49,32,-9,-1,-31,-64,-50,-48
-123,10,21,-8,-44,-7,-29,-40,-26,-19
-138,-13,-25,-27,-48,-4,4,-25,-9,-13
-215,10,17,8,-17,23,17,-33,-31,-68
-198,7,16,32,2,32,23,-14,-18,-30
-165,-57,-17,-9,-3,32,39,42,43,53
-137,-78,-33,-37,-16,34,60,74,69,73
-63,-17,35,0,5,38,28,37,30,14
-88,-8,54,27,41,40,38,37,66,-19
-59,-32,29,14,39,18,30,31,75,1
-6,-48,43,23,34,8,8,-18,-11,-30
100,-35,27,0,17,0,15,-32,-25,14
44,-34,20,-7,10,-2,9,-24,-8,42
69,17,-4,7,12,-5,-17,-4,-61,-48
-17,-19,-6,69,18,-18,-7,-10,-59,-55
-6,-10,9,83,42,-17,-29,-32,-83,-61
-35,-14,36,84,61,-9,-46,-25,-81,-65
-63,0,42,48,38,-23,-52,-15,-58,-65
-45,50,31,45,26,-23,-37,-35,-68,-66
-27,56,15,13,0,-19,-13,-32,-59,-35
19,30,-45,-39,-11,-31,-13,-38,-58,-11
43,32,-120,-47,-12,-17,-8,-23,-46,-29
33,10,-153,-45,-15,-21,-7,16,-28,-30
78,-18,-115,-59,-38,-15,-6,34,1,26
95,-50,-67,-77,-42,-8,9,39,25,75
-3,-29,20,-15,-12,4,24,19,-5,5
-19,37,80,18,6,9,13,1,-11,-21
1,23,36,-3,3,3,39,28,19,10
42,8,-17,-1,4,5,21,13,24,35
34,-7,-9,20,13,12,5,-8,14,1
43,-15,22,9,6,13,17,-9,7,-16
34,-45,-5,-6,6,32,30,1,7,-7
26,-54,-10,0,14,47,49,14,14,19
48,-31,7,9,14,12,24,13,20,52
26,-28,-3,-8,-1,-3,-8,20,24,31
39,-46,-19,-22,-4,17,-23,14,-18,9
150,66,26,-28,-64,-59,-52,-72,-22,54
106,6,-16,-41,-43,-35,1,-28,-7,25
27,10,-1,2,4,13,36,-24,-32,-46
-43,98,101,62,1,-27,-45,-99,-97,-109
-26,72,76,39,-10,-32,-48,-74,-34,-69
111,55,22,13,-10,-27,-64,-69,-19,-12
119,48,10,5,35,-10,-62,-68,-37,-7
131,3,-14,8,139,5,-57,-56,-37,1
154,-28,-44,-39,101,2,-69,-62,-18,10
109,-40,-48,-95,-4,-15,-60,-54,-8,20
74,-39,-53,-119,-108,-19,-59,-47,-31,32
112,-5,-65,-117,-178,-14,-49,-33,-20,56
37,14,-54,12,-72,-20,-19,-10,51,77
-30,10,-3,160,85,-12,-13,-4,43,50
-15,35,55,102,9,-22,-14,5,15,25
185,45,68,17,-100,-31,2,36,44,74
279,11,42,-15,-97,-9,16,53,89,96
80,-12,28,-6,-25,36,44,80,89,90
-30,-10,26,4,37,44,69,84,81,48
-129,6,33,-10,47,36,84,77,72,-37
-262,-22,36,-26,26,47,81,82,39,-73
-329,-47,14,-25,-24,33,54,44,14,-88
-391,-80,-20,-17,-67,-5,38,30,16,-115
-309,-58,-6,3,-47,-28,3,12,2,-91
-196,-33,32,37,-16,-48,-26,-11,-23,-68
-173,-45,32,27,20,-22,-13,1,-25,-61
-139,-66,-6,-14,22,7,19,33,16,-14
-116,-21,4,-23,13,27,27,40,36,0
-55,85,62,-19,-7,-6,-18,-10,-10,-7
-90,41,36,-28,1,-11,-17,-7,-23,-19
-115,-14,17,-31,7,-4,-10,21,-15,-39
-60,-33,12,15,7,-15,-4,20,-11,-40
101,-9,16,45,-10,-32,-22,-6,-5,-10
220,6,18,14,-27,-47,-35,-21,3,27
208,14,-1,-26,-32,-43,-21,-8,6,39
138,-17,-24,-46,-36,-26,-14,-2,4,46
81,-23,-7,-41,-23,-24,-26,-14,-1,56
58,-2,14,-11,-5,-5,-17,-14,-3,54
-23,15,-13,0,0,6,0,7,33,58
-110,20,-8,15,12,16,-1,16,9,-10
-185,20,53,33,39,18,-3,0,-26,-95
-117,19,51,23,36,5,-10,2,-14,-70
-43,-15,9,-14,25,7,3,24,14,-22
20,-39,-25,-25,19,10,25,36,38,14
129,9,8,-18,13,-3,-9,8,12,46
141,45,20,-19,5,-16,-18,-1,22,52
-6,-20,-40,-36,15,16,44,40,54,20
-12,-9,-8,5,25,13,19,-2,7,-5
70,44,-4,33,17,-19,-16,-43,-9,45
20,32,-11,1,17,-18,21,1,60,55
-12,16,12,-20,13,-13,50,27,91,59
16,-14,25,-18,-1,-29,31,2,37,59
11,-45,13,-14,1,-10,21,-3,16,48
-9,-53,-12,-12,5,10,27,5,17,32
37,-11,5,-7,9,20,12,3,4,0
122,60,13,-20,-5,3,-44,-26,-21,-5
113,54,-10,-24,-10,2,-41,-30,-1,41
12,-6,-4,-7,29,52,-16,-6,17,37
24,48,55,10,48,44,-42,-34,-37,-33
-9,55,64,16,35,30,-32,-6,-27,-52
9,-7,35,2,24,12,-33,-2,-19,-7
38,-14,13,-3,25,5,-11,-17,-50,-19
37,-49,-25,-15,14,22,32,4,-36,-18
46,-38,-48,-24,-35,37,55,9,7,-2
-7,23,-42,-23,-116,0,35,-2,28,-12
-33,36,24,-4,-172,-21,-5,-32,-22,-50
-35,15,54,25,-58,24,-6,-15,-24,-46
-22,-5,29,36,274,35,20,-5,14,4
4,-17,0,27,221,12,6,-34,12,9
24,1,-25,19,44,-18,0,-27,9,29
28,25,-28,7,2,-34,12,-21,13,33
37,56,-13,-19,5,-13,16,-8,18,14
93,78,-14,-33,9,-17,18,-1,40,18
97,68,0,-13,23,0,-3,-10,28,16
135,84,-21,-1,15,-5,-27,-17,7,4
199,46,-57,-17,-3,9,-28,-5,15,32
201,19,-57,-32,-24,-7,-45,-30,-7,18
181,47,16,-7,-23,-18,-56,-45,-31,-2
194,33,38,12,-1,-5,-30,-18,-20,23
116,25,33,6,2,-2,-9,2,15,74
13,14,11,-1,-6,-4,-25,-13,-2,26
-65,8,-8,-7,-12,-9,-20,-33,-45,-37
-29,2,-2,4,-11,1,-20,-41,-72,-67
124,8,-2,5,1,-4,-11,-22,-59,-73
54,-39,-15,3,24,24,16,5,-49,-60
27,-51,-10,9,22,39,35,7,-44,-22
102,11,-7,-5,-4,-7,14,-9,-35,1
31,37,-9,-19,-6,-15,11,9,-4,13
-95,47,-1,-25,-15,-34,-23,-31,-44,-14
-253,-5,-28,-23,-16,-20,-35,-40,-82,-39
-408,-69,-124,-23,2,-4,-14,4,-35,-44
-425,-74,-56,-24,30,25,29,13,-20,-78
-369,-64,-8,-15,48,51,78,9,-13,-117
-207,-18,1,-16,32,8,43,-18,-13,-59
-136,-2,5,-9,8,5,31,-16,-12,-54
-83,-19,-3,-12,0,-2,24,-4,-11,-35
-57,-41,-11,-17,-11,-10,27,-10,-1,-5
-32,-19,3,-2,0,-11,-1,-63,-36,-22
-9,17,21,19,12,-13,-17,-75,-46,-40
-63,-53,-23,0,12,11,-4,-8,12,-17
-60,-45,-43,-6,11,17,-4,12,24,-14
7,40,4,-1,-12,3,-30,-14,8,-4
26,45,9,2,-20,-4,-36,-7,-5,7
28,26,-60,0,-26,-14,-32,-9,-16,8
41,8,-144,-7,-23,11,-27,-3,-18,17
84,-19,-109,-17,-19,23,-16,14,4,62
33,-23,-15,4,3,33,-4,27,0,36
34,54,37,10,3,24,-40,-3,-10,6
29,17,-7,-25,-7,12,-26,16,14,31
7,3,-6,-43,-4,11,-20,34,14,13
22,72,51,-55,0,15,-37,-2,-7,-17
37,74,41,-72,44,13,-48,-33,-18,-11
12,39,9,-18,167,21,-21,-34,-30,-8
-20,0,-34,76,162,16,-30,-28,-17,-2
36,-1,-34,105,21,6,-12,9,18,39
44,-6,-58,8,-34,51,60,94,66,70
39,31,-9,3,-51,24,39,69,34,59
59,62,44,-4,-129,-40,-14,18,-13,38
55,93,88,11,-165,-51,-31,10,-27,16
16,81,78,17,-119,-43,-31,-6,-16,33
0,30,37,0,-80,-18,-29,-4,0,38
0,0,0,-28,-62,-8,-17,14,3,20
-8,-42,-52,-56,-33,34,9,41,29,39
-7,-40,-48,-65,-9,48,50,53,58,56
-5,-56,-43,-63,-15,25,50,33,37,57
-23,-47,-38,5,-13,22,37,25,-17,-8
-11,-42,-16,55,-17,22,26,20,-34,-49
66,-42,-40,16,-49,-5,0,7,-35,-18
94,-21,-34,-22,-64,-30,-14,-2,-25,1
57,-5,-18,-17,-34,-12,14,15,-25,-14
122,0,-22,-7,-20,-1,29,50,30,32
267,11,-33,-14,-28,0,37,65,88,118
281,-5,-22,-41,-44,-43,15,25,47,124
176,-37,-15,-26,-32,-33,7,4,-2,81
165,23,46,-1,-15,-39,-25,-42,-23,88
15,21,56,0,-19,-25,-45,-26,-4,39
-135,-70,15,-7,-12,0,-11,9,7,-4
-151,-44,41,17,3,13,14,-1,-16,-56
-99,6,40,23,-9,27,-1,-13,-15,-60
-100,-31,-32,10,-9,38,1,12,2,-45
-183,-60,-75,12,19,59,34,36,1,-50
-139,-26,19,26,30,44,50,19,-13,-25
-108,6,91,45,34,22,42,-1,0,-16
-197,-37,53,38,32,35,68,41,53,-48
-179,-61,17,27,37,31,91,57,51,-56
28,-30,28,24,40,17,50,28,46,2
117,-3,15,8,31,15,13,17,48,40
74,8,11,10,15,13,-25,0,-10,-7
-10,1,31,10,1,-20,-61,-32,-59,-65
-78,-17,7,8,0,-21,-52,-29,-37,-41
-137,-38,-5,5,0,-5,-19,-12,-20,-29
-182,21,42,8,1,-13,-15,-24,-18,-66
-204,37,53,8,12,9,2,-28,-4,-71
-140,47,57,5,18,26,23,-19,11,-41
-94,19,29,3,9,23,6,-8,17,-9
-69,-6,16,-9,-1,24,-13,-2,32,15
-24,17,0,-20,-17,24,-19,-1,35,23
3,1,-6,-26,-10,39,-14,-1,36,0
56,19,19,-9,1,42,-10,-18,14,-13
98,35,9,-5,14,29,28,-3,2,8
127,5,-23,-7,6,18,48,5,1,24
227,15,-16,-28,-5,0,11,-20,-25,10
274,18,-52,-24,-22,-9,-11,-43,-47,3
223,9,-41,-23,-24,-13,-12,-35,-40,-12
184,5,-31,-52,-33,-15,0,-13,-5,57
91,-30,-30,-37,-16,-1,21,16,32,122
-23,-7,1,-13,-7,-17,19,2,52,94
-55,24,-20,-9,-29,-31,-5,-25,32,77
-66,16,-71,-16,-26,-7,15,12,83,72
26,-18,-70,-11,20,28,38,45,102,43
160,-15,66,55,52,29,28,18,7,-61
63,22,107,92,65,34,37,3,-25,-96
-45,56,91,73,62,36,26,-15,-32,-81
-127,42,58,53,53,42,18,-16,-25,-76
-150,1,37,27,35,38,0,-5,-5,-68
-160,14,36,8,25,5,-12,-15,-10,-72
-223,-19,14,4,14,-11,-12,-11,-11,-58
-232,-57,-5,24,29,18,16,19,3,-57
-192,-66,-10,20,32,31,9,22,13,-52
-164,-86,6,10,33,41,-8,31,13,-38
-95,-70,12,14,30,36,-12,29,3,-29
-39,-44,15,5,30,6,-19,15,8,-16
-1,-14,16,3,29,-4,-15,28,27,-2
23,21,15,-3,23,-27,-9,23,26,11
-3,17,21,-25,-4,-40,-29,-11,-21,-4
2,27,13,-22,-20,-52,-47,-24,-37,-15
3,-15,-32,-29,-16,-24,-28,15,-6,0
39,-36,-40,-27,-6,-23,-24,25,1,4
77,-7,-52,-18,11,-17,-36,11,-25,0
110,16,-50,-22,10,-3,-17,6,-18,0
8,-2,1,-3,14,31,20,40,29,6
-71,-29,15,3,36,44,34,57,38,8
-39,-41,28,8,41,18,0,10,9,-9
-15,-16,36,3,37,-3,-9,-15,-7,-46
54,2,0,-28,-27,-7,-19,-35,-18,-35
100,13,-39,-87,-107,-31,-33,-28,-9,12
73,-25,-46,-131,-156,-43,-17,0,3,9
122,-35,-41,-131,-179,-37,-2,0,12,10
192,-17,-30,-85,54,-29,0,-11,26,44
185,15,-20,48,287,-20,-15,-35,-6,43
40,24,31,190,160,-18,-10,-41,-41,-4
-17,43,78,113,54,-35,10,-13,-17,26
244,95,55,-4,2,-54,30,9,20,74
319,73,12,-34,17,-31,45,20,35,77
95,-2,22,-5,26,29,40,36,69,40
-80,-51,3,43,-2,51,63,53,108,9
-55,-35,-25,40,-57,30,73,51,82,1
-39,-27,-32,27,-98,1,55,10,14,-7
-46,-7,-11,4,-56,-1,45,-8,-23,-21
-103,-40,5,26,171,52,62,9,-24,-35
-186,-107,-21,48,203,67,70,41,3,-26
-133,-46,-81,27,30,-11,19,24,0,1
-70,46,-119,13,-36,-55,-35,-7,-31,-21
-61,59,-90,-3,-17,-25,-27,-4,-38,-35
-87,74,24,13,-13,-23,-26,-17,-55,-36
-143,-9,-34,23,57,10,-9,-12,-36,-19
-103,-19,25,29,119,8,-25,-31,-46,-28
57,-26,6,-12,55,-13,-30,-17,-14,31
300,-11,0,-43,9,-8,-18,2,14,35
295,3,4,-32,-17,32,5,27,25,47
198,19,28,-18,-22,20,-1,19,-3,67
54,-12,12,-4,-36,-13,-25,-4,-4,60
-64,-48,0,37,-98,-26,-27,-5,7,49
-103,-54,-44,79,-115,-27,-3,8,7,34
-112,-24,-12,93,-77,-6,27,28,14,-4
-111,23,-19,51,-50,25,32,28,13,-31
-115,57,-101,-21,-31,52,49,35,17,-57
-181,33,-68,-34,-13,59,96,77,49,-46
-152,-13,21,-28,-21,32,78,66,53,-4
-65,-4,60,-5,-34,-13,1,10,-8,-9
-18,21,82,14,-50,-42,-34,-17,-28,1
-15,0,3,2,-50,-42,0,-3,8,12
12,-37,-40,-14,-42,-23,56,19,6,5
152,-17,29,5,-30,-13,38,-2,-40,1
231,33,53,42,-23,-40,-3,-33,-43,26
142,46,-9,43,-22,-44,0,-59,-56,11
15,-21,2,26,-22,-41,7,-57,-51,2
-12,-45,8,12,-32,-42,5,-56,-37,3
-37,-46,2,-6,-43,-46,-4,-32,-14,40
-89,-46,-13,-43,-60,-35,-28,4,26,15
-33,10,27,-9,-27,-3,-28,0,31,-7
28,38,69,-7,-35,-22,-50,-26,-8,24
19,42,71,10,-10,15,-18,-3,-18,-12
-7,8,35,5,-3,20,5,20,4,-11
-17,-9,0,-8,8,10,34,31,33,27
-77,-6,23,17,23,22,61,18,10,-11
-121,-20,42,31,31,29,33,7,-19,-50
-56,0,45,7,13,7,23,17,25,-7
-29,-1,34,4,13,2,17,19,30,-1
-45,-46,20,27,27,19,4,-11,-47,-39
42,35,26,54,2,-15,-41,-64,-78,-40
73,58,-19,19,-35,-39,-60,-70,-65,-35
21,-4,-23,-26,-31,-17,0,-31,-36,-42
-10,-9,-24,7,3,12,23,-29,-39,-51
-18,-7,20,36,-3,15,19,-20,-13,-19
-5,-16,43,18,-4,15,15,-12,-13,-12
3,-9,27,-1,1,2,3,-13,-32,-16
0,8,22,-3,-1,0,-21,-22,-19,-5
-11,-13,-14,8,-3,9,-6,-7,2,33
-44,-34,-28,3,4,-7,6,-1,1,39
0,-5,-9,7,-2,-27,-22,-19,-11,27
45,9,-59,15,-13,-35,-29,-23,-18,21
33,23,-56,9,-8,-31,9,10,26,44
-2,20,5,-3,-3,-12,31,43,65,37
-5,9,-6,-11,-10,-29,-10,10,18,-7
-1,-14,-13,-10,-10,-18,-25,-7,-18,-31
52,-15,-45,-1,-12,-4,-34,-10,-29,-3
85,-36,-40,-21,-16,5,-37,3,-16,22
86,-43,-14,-16,-6,18,-6,8,0,8
180,17,28,-3,-8,-4,-5,-16,-21,-25
189,24,6,-7,-15,-1,-5,-19,-27,-29
106,10,-32,-10,-12,-16,-10,-25,-39,-34
79,-5,7,-15,-22,-18,-14,-33,-40,-55
141,9,22,-28,-26,-22,-21,-33,-23,-39
143,7,30,-18,-12,-22,-8,-8,0,8
2,-12,29,-10,7,-4,-4,27,21,17
-131,-8,27,-8,10,-6,-22,38,21,1
-204,14,35,-10,17,5,-11,35,33,-7
-220,4,2,0,25,-2,-10,33,28,-26
-190,7,11,13,25,-3,-6,29,40,-32
-159,1,18,14,24,6,18,20,43,-24
-132,-20,-5,10,23,0,19,12,35,-8
-83,-27,-62,8,14,-3,-12,12,31,-3
-43,-22,-83,-6,0,-9,-16,14,22,-7
-31,7,15,-2,13,7,9,23,23,-7
-33,31,29,12,27,35,39,23,52,-19
-25,8,26,11,29,22,25,10,25,-32
-22,-39,15,11,21,9,4,3,-16,-36
-31,-54,10,14,5,30,-7,10,-17,-20
-21,-21,18,8,-1,22,-35,-2,-27,-10
-13,-19,10,3,-7,-1,-32,3,-32,6
-12,-25,12,2,1,0,-26,9,-14,15
-5,-9,16,5,19,8,-10,18,25,19
12,3,30,3,6,-18,-10,6,16,14
6,-4,18,0,2,-17,9,14,26,20
34,11,10,-2,-6,-39,10,6,14,27
28,23,17,-3,4,-22,0,-1,0,27
7,2,5,-7,13,-10,-15,-4,1,23
4,-23,-96,-28,1,3,-24,-5,24,32
10,-17,-190,-23,-2,30,-7,3,32,23
-9,35,-52,-2,3,4,-28,-16,-3,-24
-16,2,38,0,-4,-4,-31,-5,3,6
28,-28,8,-13,1,11,3,7,7,24
48,31,40,11,23,6,-4,-27,-37,-12
-52,-27,14,-4,34,24,-3,9,13,-15
-60,-51,18,-15,18,21,-1,14,34,8
-30,-22,42,0,18,-2,13,4,18,0
-10,16,32,6,17,-8,24,23,54,10
0,25,32,16,9,-12,24,33,79,25
14,-10,21,9,-3,-28,24,12,37,33
26,-32,-36,-7,-14,-24,15,8,31,24
13,-23,-71,-2,-18,-30,5,-21,4,-32
20,-2,3,3,-4,-28,0,-39,-11,-54
77,-19,-10,-17,4,-29,-12,-19,8,48
70,-6,0,-21,2,-23,-23,-29,18,65
23,33,55,10,11,-18,-47,-57,-36,-24
-10,32,46,21,6,0,-49,-42,-28,-28
-7,-1,30,23,0,4,-23,-26,-11,-2
-1,-29,9,15,7,20,-10,-19,-3,12
6,-2,-11,15,11,9,-27,-40,-18,1
51,53,-13,1,-1,6,19,-11,10,17
157,58,-23,-21,-2,4,76,29,58,59
246,64,2,-4,11,4,71,20,44,52
211,39,34,6,-1,-5,4,-27,-8,36
278,26,14,-22,-30,-32,-42,-54,-46,41
405,22,-15,-59,-50,-26,-27,-49,-26,67
251,16,-9,-50,-39,-29,-30,-35,-5,70
40,46,39,-10,-19,-25,-34,-36,-19,35
-59,45,43,0,-24,-33,12,-25,3,26
-102,20,-46,7,-6,0,66,23,52,30
-118,-7,-43,5,-7,2,57,34,33,8
-273,-38,22,1,-4,-8,31,8,2,-58
-432,-80,-18,6,12,-5,41,4,-7,-90
-337,-28,-40,-1,5,4,3,-6,-39,-61
-183,8,31,12,13,1,-4,-20,-56,-29
-72,10,51,35,30,21,9,0,-31,-21
14,32,34,23,33,46,15,29,-17,-23
-43,-12,7,12,32,59,27,51,3,-19
-133,-40,16,13,35,49,36,54,8,-27
-136,-48,8,8,27,32,20,47,9,-15
-86,-83,-122,2,17,49,1,61,36,1
-32,-99,-123,-6,14,44,-3,54,43,0
-12,-69,-28,-15,7,6,1,32,42,14
-46,-36,29,-6,15,1,-7,26,33,25
-5,85,82,16,8,-18,-38,-4,-6,-3
30,98,50,11,-10,-17,-31,-6,-15,-23
33,61,37,7,11,24,-14,11,-20,-66
33,69,38,7,22,15,-14,6,-12,-45
-2,29,-1,2,-2,2,-25,22,15,27
-35,-7,17,16,-2,18,-28,26,-1,23
-62,18,63,37,5,21,-31,0,-30,-34
-33,43,65,37,5,5,-22,-13,-41,-60
7,0,23,14,-6,10,-15,-18,-28,-27
51,-16,-12,-18,-22,1,-4,-18,3,39
141,-9,-26,-17,-21,-7,13,-20,-4,39
176,40,-5,-19,-27,-6,8,-30,-21,0
74,59,-5,-14,-22,-25,-9,-21,-8,-27
18,12,-106,-4,-11,-17,-6,-5,-14,-29
72,-9,-69,-9,-9,6,7,19,4,0
128,-14,-29,-45,-44,-36,-7,8,14,60
148,-22,-23,-76,-67,-77,-6,2,33,96
206,-26,-19,-64,-68,-54,-1,18,42,94
309,26,33,-29,-52,-37,-14,-14,-32,22
402,-5,14,-32,-42,-32,10,8,-3,56
359,-16,3,-33,-32,-17,7,13,25,91
293,27,8,-20,-21,4,-7,-2,44,102
148,59,30,0,-8,0,-1,1,38,50
-50,46,53,42,33,15,28,-10,-5,-39
-194,-19,45,25,53,50,78,11,-16,-29
-307,-54,39,21,117,82,99,13,-16,-38
-414,-44,30,50,232,98,73,-5,-46,-124
-406,-42,-75,39,220,94,64,7,-36,-125
-371,-21,-91,22,143,83,42,12,-24,-117
-325,39,22,-2,75,88,55,37,29,-83
-203,58,53,-27,30,80,98,70,94,-11
-131,11,47,-27,11,34,88,31,47,-6
-93,-9,31,-5,-103,-44,24,-7,-1,-16
-45,9,40,-4,-168,-85,-5,-5,-2,6
-14,9,53,12,-119,-76,-5,-11,5,15
-31,-18,36,17,-58,-51,-5,-29,-19,17
-43,-40,25,-8,-28,-33,2,-25,-12,15
-17,-1,30,-22,-27,-29,5,-1,31,29
-6,45,33,-21,-18,-36,-11,1,29,25
-21,-2,13,-23,-1,-13,-24,-5,-12,11
-30,-55,-12,-26,9,-4,-11,3,-16,5
-17,-58,-12,-5,-18,-23,-13,-3,9,6
7,-65,-37,13,-32,-42,-20,-16,7,4
42,-40,-55,-12,-30,-42,-27,-41,-25,-11
100,45,-11,-20,-37,-43,-46,-56,-34,-6
58,44,9,-8,-35,-23,-43,-36,-14,0
46,31,-50,-24,-32,-23,-24,-20,-16,22
47,1,-83,-40,-27,-10,-6,-8,-8,51
55,16,9,-66,-26,-23,-18,-27,-19,54
27,12,22,-72,6,-12,2,-10,-21,45
9,12,29,-31,16,-27,-4,1,-19,23
41,36,17,0,10,-29,-2,3,-8,15
82,37,-41,124,33,-22,10,-1,1,0
76,18,-19,195,26,-20,-12,-25,-43,-43
33,11,-8,89,4,-16,-8,-27,-49,-56
59,-18,-24,-41,0,18,35,7,6,-3
106,-4,-20,-98,-16,13,26,-3,12,24
55,-23,-76,-74,-14,23,10,5,3,0
13,-24,-18,-32,-8,32,9,4,10,4
26,85,75,-2,3,3,-20,-17,3,1
-28,127,85,0,6,4,-9,-2,12,-49
174,89,31,-26,-7,-4,19,22,54,-6
307,70,2,-38,-22,-37,15,4,48,37
171,24,21,-26,-24,-50,-14,-28,-27,2
90,11,21,-12,-26,-40,-34,-34,-46,1
30,-14,-28,-25,-12,-9,-2,0,-20,33
-105,-70,-80,-24,2,43,48,50,24,60
-200,-26,-5,0,14,37,52,38,18,54
-282,-5,76,34,42,17,32,8,-13,-34
-259,-43,49,30,51,33,37,34,-14,-55
-143,-42,12,8,35,44,39,40,-4,-25
-82,-25,0,1,25,17,29,14,-5,-24
-75,-21,-9,-4,12,7,29,6,-9,-20
-30,-9,8,-2,14,6,17,-9,-12,4
106,22,15,0,25,-1,-15,-18,-11,38
189,0,-47,6,16,8,-64,-14,-7,89
207,16,-96,9,12,-2,-60,-20,-12,106
203,30,-13,-7,-7,-17,-45,-29,-14,110
161,10,-5,-31,-36,-48,-53,-26,-14,106
72,-29,-59,-58,-62,-73,-53,-34,-22,94
-85,-61,-89,-54,-53,-53,-33,-15,-11,44
-173,-56,-56,-23,-19,-12,7,26,25,-9
-62,-18,-47,-21,-10,-6,20,48,61,6
-30,-23,-105,0,5,2,13,46,75,5
-132,-66,-109,10,23,14,-1,21,29,-93
-66,-7,-24,26,27,22,-31,-22,-29,-118
42,68,23,58,7,1,-65,-41,-29,-58
-26,34,59,45,18,24,-45,3,-10,-71
-33,54,32,14,13,34,-30,10,-9,-104
-41,41,0,0,-8,14,-2,7,5,-98
-73,-19,-19,-10,-2,30,18,10,-12,-78
-7,24,8,-2,-3,22,-10,-10,-44,-51
96,73,13,-5,-21,-3,-40,-8,-25,7
95,39,-12,-12,-20,15,-24,28,6,8
71,21,20,8,0,17,1,16,11,-11
44,51,98,45,25,6,-11,-11,-2,19
-45,4,83,53,47,36,9,15,15,8
-72,-14,34,39,50,54,69,54,68,20
-15,-33,7,8,23,19,55,63,71,40
-13,9,50,-4,-33,-32,-16,7,5,-4
-28,21,53,-13,-54,-58,-47,-3,7,25
3,-48,13,-19,-23,-14,-23,6,-2,37
5,-46,14,2,24,21,-5,-18,-44,-26
-56,-32,37,21,48,18,-12,-40,-56,-58
-82,-60,-10,13,38,43,20,7,6,-41
-46,-68,-33,0,-39,37,2,11,4,-24
-28,-57,-7,2,-102,16,-14,1,-10,-15
-32,-42,11,3,-147,10,-3,0,-4,-22
-25,-41,-8,5,-133,34,4,3,-4,-28
4,2,-13,18,182,70,-9,8,-10,-11
8,10,-40,34,304,71,-24,-6,-16,-14
13,-20,-52,19,114,36,-20,-5,-8,-19
43,-24,-16,1,22,6,-20,3,6,0
66,53,28,-3,1,-20,-39,-20,5,-1
40,51,47,-1,5,-23,-27,-13,16,1
17,-4,5,1,17,-1,15,14,27,10
-2,-18,-2,17,24,29,45,13,22,19
-7,-7,-11,23,35,32,33,-9,2,2
-16,2,0,31,43,13,22,-21,-16,-17
-29,22,-35,29,22,11,38,14,14,11
-22,24,-84,22,13,30,53,56,70,38
-19,-37,-39,0,0,45,28,57,62,43
-7,-38,-26,2,-6,34,-4,23,33,34
28,13,19,13,-19,-17,-53,-34,-15,13
106,-6,-21,-11,-21,-18,-55,-25,-37,8
311,14,-1,-10,-23,-3,-54,-25,-32,55
335,5,33,2,-8,-11,-44,-14,-7,71
246,-11,26,5,-17,-21,-37,-2,-16,55
145,-9,10,-2,-40,-18,-46,-27,-24,37
32,-18,-13,-3,-43,-19,-37,-19,-19,17
-43,-3,13,2,-44,-12,-17,-36,-27,13
-13,63,38,9,-32,-22,-5,-39,-29,6
85,79,0,-2,-5,-13,43,4,10,23
5,21,-22,-11,14,15,77,46,35,-9
-98,10,-25,-14,16,31,66,49,31,-39
-161,-1,-33,-5,17,19,60,29,13,-19
-136,27,-73,9,-1,-22,15,-5,-2,14
-83,27,-24,20,2,0,30,21,31,56
-35,3,-12,34,-2,-1,38,28,27,10
-149,47,53,56,-7,-18,-11,-23,-22,-67
-239,21,38,43,14,7,-31,-17,-14,-34
-246,8,-61,23,17,17,-20,0,1,-10
-211,58,3,18,19,10,1,4,49,4
