41,83,15,-24,11,-21,-13,-59,2,13
-57,-119,-35,-32,-24,-12,16,20,-16,29
-59,-117,-16,-13,-9,2,42,150,-20,4
-62,-113,-9,-7,-4,13,1,105,-52,-37
-10,43,20,3,19,11,-8,73,-41,-46
30,186,13,19,54,7,24,90,8,-10
-45,-47,-17,16,10,23,14,11,-44,-3
-67,-113,33,20,-7,36,13,-10,-59,-2
-69,-101,21,20,-11,32,12,-25,-55,2
-64,-89,22,16,-18,16,14,-24,-52,12
-42,-86,31,13,-26,7,5,8,-22,33
-18,-71,33,16,-19,0,-3,32,0,41
-23,-63,37,15,-6,0,-4,44,12,38
-29,-73,18,6,-6,-1,-1,53,15,52
-29,-71,-15,-1,-6,2,2,28,23,57
-28,-74,-17,-10,-3,-10,0,-42,15,56
-26,-71,-5,-14,-12,-19,-9,-124,10,49
-12,-61,14,0,7,-6,14,-150,26,45
-9,-54,27,17,23,10,10,-116,20,19
43,108,53,32,57,25,24,-24,55,-2
12,95,3,17,38,31,42,31,45,-29
-48,-3,-55,17,12,24,42,104,32,-42
-51,8,47,49,36,15,45,250,87,-20
-66,-38,96,70,35,9,45,249,74,-31
-52,-86,45,35,14,1,45,98,11,-45
-33,-106,5,22,9,4,43,-4,-27,-63
0,-13,36,30,35,1,51,-94,-40,-53
120,299,93,54,95,-5,39,-82,2,-50
160,330,102,71,97,0,21,-60,-22,-49
56,53,43,38,31,14,-36,-183,-127,-47
9,-45,22,15,18,0,-63,-243,-130,-21
0,-40,21,-6,5,-13,-53,-198,-100,-7
2,-44,33,-10,-16,-19,-33,-151,-70,5
14,-39,21,6,-5,11,-25,-115,-62,12
86,96,13,18,36,22,-5,-11,11,55
123,182,12,2,48,11,1,27,59,80
12,-37,-7,-37,3,12,-13,-48,-15,67
-26,-89,-46,-45,-2,18,-4,-49,-41,51
-27,-99,-83,-26,7,19,7,-17,-50,34
-37,-94,-138,-27,6,6,38,21,-28,27
-51,-98,-145,-26,-3,2,50,31,-20,16
-43,-93,-30,-23,-4,6,39,36,-8,9
-26,-87,-9,-25,0,7,17,22,-6,16
-20,-84,-4,-22,0,19,3,0,4,26
-16,-79,14,-16,6,19,-14,-37,9,32
-6,-56,32,0,12,20,0,-65,6,35
-7,-46,26,0,25,16,24,-39,7,37
-18,-43,31,-10,13,8,16,-14,6,36
-15,-18,34,-22,9,-2,-13,-16,11,22
90,186,35,-8,34,-14,-22,33,59,23
150,278,17,0,45,-18,-20,60,77,24
33,1,-94,-25,-2,-17,-23,-4,45,28
14,-57,-133,-40,-28,-32,-17,29,65,37
29,-57,-74,-54,-52,-41,-15,65,84,22
20,-55,-24,-66,-59,-30,-13,59,63,17
-1,-47,8,-56,-50,-15,8,75,73,40
34,41,35,-43,-36,-12,33,105,103,42
140,302,62,8,23,-31,54,122,148,42
156,366,-18,40,52,-41,48,25,103,33
138,313,-11,53,69,-19,29,-101,2,20
52,70,2,57,42,13,-4,-129,-94,5
-13,-71,25,41,10,24,-13,-112,-156,-24
-44,-79,7,4,-24,3,-40,-106,-159,-81
-77,-98,22,-23,-44,-24,-69,-7,-75,-84
-100,-116,29,2,-27,-21,-58,60,-12,-77
-111,-143,-8,15,-16,-17,-40,78,6,-73
-90,-155,1,-14,-32,-27,-15,102,-12,-78
-80,-170,-28,-28,-41,-4,22,115,-17,-93
-92,-161,-5,-14,-29,17,41,109,2,-81
-100,-136,-6,-15,-31,4,29,72,12,-86
-107,-103,4,-13,-47,-7,27,17,-4,-107
-38,17,15,13,-10,-15,28,-32,17,-69
67,153,56,35,31,-19,3,-67,54,1
-32,-48,21,30,-1,-8,-9,-150,-3,20
-48,-92,17,20,-12,8,-23,-227,-59,-10
-29,-63,49,29,-2,17,-6,-248,-82,0
5,-49,97,46,16,30,32,-168,-70,41
28,-45,86,47,13,33,33,-93,-30,49
49,-19,58,33,12,26,27,-83,3,33
154,204,86,41,57,15,48,11,76,38
218,413,104,44,94,17,62,101,133,47
191,377,-4,43,79,14,48,106,137,53
114,221,-55,21,44,7,21,63,98,37
-31,-90,-16,-6,-23,18,20,-19,8,-4
-72,-150,5,-12,-26,24,45,-17,7,-9
-85,-165,-65,-31,-34,19,60,2,26,-2
-75,-100,-87,-30,-25,6,66,32,34,-12
8,154,12,-6,7,-6,58,69,54,-47
-55,23,-14,-17,-24,2,35,-31,-11,-66
-86,-127,0,-35,-39,-5,21,-105,-59,-52
-78,-149,17,-47,-38,-12,10,-11,-53,-18
-71,-129,16,-39,-44,-16,-7,113,-41,5
-66,-100,18,-19,-44,-14,-10,82,-78,-9
-67,-96,21,0,-15,-4,-43,6,-61,-5
-53,-96,3,6,0,3,-62,-16,-44,-1
-50,-104,-2,-3,5,3,-77,-43,-50,-4
-45,-76,0,-13,-8,-4,-95,-58,-70,-27
-26,-53,-10,-19,-27,-1,-105,-85,-98,-13
2,-56,-9,-15,-6,5,-100,-115,-70,23
10,-48,-3,-11,-7,16,-66,-103,-38,37
-7,-41,-26,-14,-18,14,-36,-76,-34,16
44,60,-93,-18,-6,6,-43,-32,-32,-33
193,374,28,-7,28,-15,-55,44,31,-52
169,331,71,-3,33,-27,-44,42,41,5
10,2,19,-12,-12,-26,-20,-19,-23,50
-42,-82,0,-8,-22,-17,-3,-33,-37,57
-63,-73,-46,2,-15,2,14,-34,-38,5
-59,-69,-34,-7,-16,15,16,-40,-53,-42
-42,-34,15,0,-7,18,21,-54,-38,-44
18,119,46,22,18,5,35,-2,23,-64
-43,30,17,6,-18,-6,16,40,86,-104
-106,-75,-7,0,-25,18,23,56,87,-135
-107,-82,12,35,30,45,55,54,55,-120
-93,-76,12,49,42,54,72,63,27,-97
-79,-73,-3,38,13,33,111,92,32,-66
-60,-82,-15,16,-8,12,124,110,79,-38
-6,21,-4,11,7,13,111,70,99,4
101,244,34,42,62,17,137,16,81,42
30,88,21,19,25,32,109,-97,-27,30
-41,-60,-12,-24,-22,26,70,-154,-77,0
-70,-80,-48,-38,-44,10,55,-170,-76,-34
-74,-75,-48,-37,-40,1,55,-182,-88,-25
-32,-62,-35,-38,-34,-3,31,-74,-73,0
23,-33,-19,-27,-42,-18,6,77,-51,11
141,133,-5,-23,-33,-36,7,124,-37,-11
101,56,-35,-22,-46,-24,-3,47,-75,-13
42,-9,-22,-3,-31,-3,-27,-37,-80,32
26,-3,5,22,-8,6,-26,-65,-66,61
-3,-34,42,31,12,6,-25,-60,-54,60
-18,-80,10,21,15,2,-5,-49,-37,52
-16,-95,-15,4,6,5,-1,-33,-32,43
40,7,-4,-1,21,0,15,24,15,45
53,104,19,-2,34,-7,40,126,53,23
-45,-54,-17,-24,-9,5,68,167,29,1
-47,-66,-44,-27,-19,15,79,173,30,-14
-39,-57,-23,-7,-4,17,83,124,22,-28
-66,-69,3,-2,6,12,68,71,7,-58
-117,-94,-6,-29,-15,-15,72,118,21,-106
-116,-66,-41,-54,-29,-36,104,173,51,-81
45,188,-52,-10,42,-26,111,96,67,-18
150,374,-62,32,90,5,102,-60,52,28
116,285,15,27,60,-6,53,-171,3,50
-14,-3,28,-6,-12,-35,-4,-235,-58,38
-47,-77,30,-26,-36,-40,-21,-72,-32,41
-6,-51,63,16,3,3,-32,84,34,50
16,-42,70,62,35,29,-47,90,68,45
40,-58,46,53,39,28,-36,73,102,52
49,-63,39,41,37,22,-31,4,81,58
51,-64,35,35,28,17,-63,-71,43,47
35,-56,14,12,-8,-4,-89,-65,14,28
21,-69,-13,-9,-27,-14,-84,-42,-17,31
10,-76,-8,-20,-31,-13,-82,22,-53,21
6,-53,2,-15,-21,-2,-82,84,-76,1
2,-24,1,-21,-29,-5,-83,-5,-85,-19
39,47,-47,-23,-25,-24,-83,-68,-62,-30
14,-14,-78,-24,-33,-22,-64,-50,-59,-28
3,-43,-15,-25,-29,-22,-44,-65,-47,-13
14,-37,-38,-10,2,-3,-33,-169,-56,8
16,-30,-14,1,19,3,-36,-193,-37,23
36,-17,-51,29,34,21,-23,-67,7,57
43,13,-107,54,31,26,-16,-68,19,66
50,107,-51,48,37,11,-11,-72,39,64
143,346,82,53,82,0,7,18,87,56
169,428,120,52,101,7,5,32,80,35
116,320,104,45,69,3,-9,-25,41,6
-21,13,58,33,-8,1,-30,-151,-32,-3
-45,-67,23,14,-34,-7,-58,-174,-63,21
-34,-83,-98,-4,-57,-18,-60,-127,-57,38
-31,-58,-115,-4,-60,-12,-10,12,1,22
69,167,36,28,3,7,19,124,58,16
71,140,56,24,-2,8,-4,76,28,-19
-17,-86,0,-16,-51,-2,-26,-5,-33,-50
-28,-100,-39,-23,-33,0,-16,-8,-24,-66
-60,-112,-72,-2,-6,13,1,-15,-26,-80
-75,-115,-19,8,1,29,24,-10,-13,-79
-34,-88,-12,6,-3,22,34,-8,17,-52
-3,-65,20,2,-8,10,14,-22,17,-41
0,-65,17,7,-3,7,1,-21,19,-33
-23,-72,38,4,1,0,2,-9,21,-15
-34,-59,33,-7,-1,6,-15,-1,41,5
-26,-30,36,-5,-16,6,-33,30,65,19
-22,-22,21,-14,-32,1,-18,78,82,0
-27,-33,0,-21,-45,-3,4,101,92,-6
-29,-21,-11,-20,-41,-17,6,128,111,-4
47,139,8,-5,-11,-40,0,161,149,-13
0,28,-11,-20,-26,-51,-28,74,77,-25
-36,-46,-19,-28,-25,-46,-27,-61,1,-21
-26,-26,-67,-15,-12,-26,-23,-192,-54,-14
-7,7,-41,-10,-4,-24,-16,-228,-89,-19
-20,25,25,-18,-7,-41,-14,-70,-58,-59
-29,16,44,-7,4,-40,-14,6,-25,-65
21,105,80,37,52,-25,-3,-30,0,-48
160,325,101,56,101,-16,18,77,39,-7
135,193,47,33,69,-3,0,140,0,14
30,-76,-25,2,22,9,-26,62,-70,8
14,-89,-22,-9,11,2,-8,35,-45,36
20,-82,-6,-14,1,0,0,51,-46,66
25,-72,-10,-10,0,-2,5,30,-47,65
47,-15,-17,-22,-4,15,4,2,-62,47
122,230,9,-14,21,3,-3,98,16,74
142,330,-5,-15,15,-13,-10,144,60,85
26,87,-7,-26,-23,4,-12,40,-7,57
-33,-79,-14,-39,-34,22,-19,0,-14,11
-50,-105,-49,-46,-41,25,-36,3,13,-25
-78,-112,-35,-24,-28,35,-22,10,22,-47
-74,-143,-65,-31,-12,32,0,27,13,-46
-94,-174,-123,-22,0,37,45,29,-13,-79
-114,-183,-127,-18,-15,28,50,33,-40,-132
-103,-160,-47,-27,-29,20,49,45,-37,-115
-87,-122,-27,-17,-10,19,59,40,-9,-62
-82,-88,3,-5,11,21,40,14,4,-38
-72,-64,19,-2,14,13,9,-9,1,-21
-60,-38,21,0,8,6,-15,-47,-4,-8
-36,7,51,28,44,5,-26,-88,23,1
2,90,76,38,69,2,-36,-108,75,14
-3,25,48,20,36,8,-45,-124,75,16
-10,-11,20,8,17,8,-32,-86,71,23
0,-9,27,8,26,9,-21,-54,44,53
5,-2,26,0,21,6,0,6,38,54
-7,-25,-28,-37,-8,0,46,128,70,41
-24,-52,-56,-61,-43,-3,67,213,79,9
5,46,-23,-37,-24,0,85,233,65,0
80,304,59,9,53,2,85,278,91,-14
70,307,58,31,70,8,36,249,58,-21
-27,15,-46,0,3,17,-10,101,-31,-44
-60,-93,-69,-8,-14,15,-31,-44,-86,-35
-61,-78,-57,-3,12,12,-42,-157,-85,40
-58,-55,-119,-2,23,12,-31,-144,-57,97
-21,-29,-81,-6,27,6,-35,-36,-66,91
19,18,-32,-25,15,-6,-46,-13,-53,66
6,-30,-13,-42,-11,-20,-80,-59,-77,41
6,-56,12,-36,-12,-24,-84,-64,-82,30
18,-57,42,-19,-7,-26,-84,-52,-75,14
30,-71,47,-15,-14,-27,-41,-4,-51,4
24,-71,41,-19,-7,-29,10,49,-38,3
13,-59,52,0,0,-29,17,33,-21,5
81,95,74,20,15,-23,0,48,27,-7
63,119,39,0,-17,-13,-35,30,21,-33
-36,-46,0,-23,-56,-5,-33,-38,-31,-31
-68,-65,-18,-52,-79,-14,-11,-59,-9,-20
-74,-63,-37,-64,-94,-18,-5,-80,1,-5
-72,-43,-24,-43,-71,-22,-20,-9,28,-19
-62,-60,-5,-38,-55,-29,-19,29,56,-26
-22,-27,-29,-31,-47,-34,-25,14,70,-6
125,248,-3,-15,9,-21,-35,148,147,-3
186,347,53,24,59,-8,-22,194,145,71
81,80,27,21,22,14,-4,187,34,104
25,-33,27,22,12,30,2,200,-1,70
21,-23,39,37,23,33,-20,-20,-31,38
20,-35,50,59,45,41,-26,-196,-68,24
8,-42,50,67,48,41,-29,-194,-99,11
46,90,73,68,71,28,-15,-42,-71,-5
74,220,80,67,81,8,-14,66,-35,-29
-42,-26,29,27,6,-3,-36,-10,-84,-42
-86,-108,3,-11,-29,-16,-52,-40,-75,-33
-94,-111,-11,-16,-41,-22,-35,-47,-17,-46
-77,-120,-25,-28,-43,-16,-1,-56,-41,-69
-73,-121,-28,-20,-34,-19,2,-89,-44,-60
-69,-104,-8,-4,-23,-31,-9,-106,-49,-45
-46,-81,-5,-1,-18,-28,-3,-105,-45,-28
-14,-47,-14,-5,-37,-11,-2,-93,-40,-27
5,-32,-13,0,-34,-1,11,-51,8,4
-2,-34,-23,0,-5,2,46,21,60,29
-20,-46,-97,-6,4,-1,68,71,83,27
-35,-49,-66,-21,6,-3,58,98,83,26
-26,-24,-20,-29,-1,-16,44,103,81,13
58,141,30,5,37,-15,68,134,126,42
62,120,23,11,28,-20,71,89,104,61
-9,-24,-5,-6,0,-11,57,-39,32,49
-12,-17,5,3,9,9,38,-133,-26,41
4,-8,30,25,22,21,20,-168,-44,66
17,3,30,17,24,15,14,-143,-18,58
16,0,16,0,9,2,4,-108,2,34
43,48,7,-1,14,-2,-28,-83,4,-5
164,336,69,37,67,-15,-24,4,50,-11
191,397,106,55,84,-14,-7,73,60,8
81,94,56,33,29,8,-19,15,-24,15
22,-37,29,21,0,9,-27,-64,-69,2
-10,-59,28,28,11,-5,-31,-71,-75,-20
-41,-80,18,8,18,-7,-54,-45,-64,-35
-51,-87,4,0,9,-15,-28,37,-32,-44
10,65,16,16,29,-28,38,182,8,-44
94,252,22,15,52,-40,52,294,74,-46
25,84,-13,-18,10,-25,37,278,53,-39
-83,-130,-26,-29,-26,2,29,228,0,-57
-97,-147,-39,-49,-33,4,14,215,-1,-66
-82,-150,-52,-59,-44,-22,-5,135,5,-46
-60,-128,-46,-36,-43,-30,-12,-26,0,-29
-57,-111,-33,-22,-41,-10,-34,-120,-27,-36
-51,-75,-11,-3,-18,8,-19,-150,-53,-53
-45,-44,5,13,2,24,-2,-200,-65,-43
-19,-18,26,19,8,18,-36,-268,-57,-34
-8,-4,41,30,4,23,-73,-328,-80,-23
-6,7,27,32,10,24,-81,-321,-77,-18
9,-9,-10,45,9,22,-62,-140,-29,20
32,-16,-29,27,3,23,-53,14,6,43
95,129,-2,13,3,10,-67,29,48,10
66,87,-25,16,-30,-15,-86,-10,26,-7
8,-61,-26,13,-45,-37,-46,113,40,36
34,-41,-46,18,-5,-15,-7,279,38,59
36,-43,-77,25,7,6,-11,243,17,65
30,-71,-55,-8,-19,3,-27,129,34,53
-11,-95,-33,-15,-17,10,-4,39,12,36
0,-30,-10,6,23,28,25,-14,-30,17
108,226,36,29,63,20,34,29,16,-5
103,261,32,13,47,4,31,25,1,-37
-26,-13,-7,-20,-11,3,-4,32,-54,-38
-43,-98,-14,-29,-25,-4,-27,125,1,7
-18,-72,-2,-24,-40,-11,-44,70,51,3
-18,-59,-10,-23,-52,-15,-58,37,44,-18
-10,-45,1,-8,-34,-11,-36,40,-7,-13
52,-8,-15,-4,-21,2,-10,15,-42,28
68,-27,-38,-9,-2,39,-4,-118,-27,72
53,-39,-31,0,0,49,-6,-207,0,98
21,-35,-20,-9,-11,20,-29,-192,10,86
-36,-51,-34,-42,-52,-37,-67,-158,6,16
-46,-40,-59,-56,-70,-46,-55,-38,4,-17
-48,-18,-12,-34,-52,-34,-45,-12,-26,-55
-72,-58,2,-28,-42,-30,0,136,23,-70
-56,-97,7,-24,-30,-16,26,292,99,-45
-16,-87,34,19,8,11,2,232,96,-30
-44,-75,45,40,28,23,15,41,31,-75
-101,-85,23,24,26,31,75,-34,-55,-133
-125,-86,4,8,11,33,112,32,-80,-150
-109,-70,17,10,20,35,128,126,-114,-145
-66,-25,48,57,52,52,77,72,-173,-132
28,153,81,63,90,38,45,-60,-186,-104
12,86,47,19,61,24,71,-213,-233,-102
-9,-23,0,-1,17,39,67,-147,-246,-76
36,15,-60,-19,-3,32,17,-3,-145,-12
46,25,-7,0,2,15,-22,37,-78,56
33,4,-24,39,26,5,-50,59,12,86
2,-51,-100,21,-2,-7,-63,-40,109,72
-18,-49,-86,-65,-65,-59,-82,-83,186,23
41,176,-58,-98,-70,-118,-118,-58,212,-41
16,201,-43,-82,-74,-136,-139,-123,154,-68
-94,-27,-40,-59,-95,-107,-87,11,59,-95
-152,-124,-66,-66,-85,-45,134,534,74,-117
-192,-175,-96,-104,-95,-7,254,636,-53,-165
-143,-141,-58,-77,-54,10,160,139,-159,-127
-95,-124,-35,-45,-26,1,71,-432,-226,-91
-36,-81,9,-7,0,26,42,-575,-182,-52
41,-6,38,18,5,38,-26,-620,-127,1
57,9,30,18,-1,12,-29,-517,-119,20
78,45,68,63,47,49,7,-383,-43,37
116,92,29,89,69,78,23,192,153,94
105,81,50,77,59,85,85,771,273,95
66,54,54,47,12,50,84,499,184,80
85,105,37,9,-15,6,75,315,129,103
65,143,15,-55,-38,-55,35,309,247,109
-94,-114,-77,-131,-117,-118,-21,355,282,47
-89,-118,-90,-124,-107,-121,-75,286,219,29
-32,-49,-64,-77,-69,-111,-114,-82,148,47
54,33,23,1,-2,-41,-33,-418,96,98
126,123,153,104,106,86,58,-689,-136,112
89,133,158,118,116,112,82,-624,-335,43
121,292,104,50,59,20,59,-461,-320,-2
121,298,59,5,19,-51,-17,-640,-195,8
-126,-104,-63,-66,-88,-124,-99,-804,-136,-58
-245,-268,-182,-158,-170,-183,-96,-308,13,-122
-278,-310,-211,-206,-199,-165,87,838,176,-126
-277,-264,-177,-180,-145,-80,319,1554,131,-155
-128,-122,-61,-79,-39,36,465,1538,211,-15
58,64,58,16,50,101,456,878,232,117
274,392,167,128,167,116,334,132,303,205
299,458,197,171,191,69,148,-301,208,185
183,369,107,100,113,-2,-15,-164,141,121
64,76,-54,3,10,-65,-93,94,219,127
-68,-159,-158,-62,-45,-83,52,402,213,71
-191,-251,-124,-124,-93,-88,225,574,152,-38
-247,-324,-188,-179,-168,-95,277,168,-13,-156
-171,-313,-189,-189,-184,-95,115,-912,-438,-205
-19,-141,-43,-47,-55,30,113,-1061,-737,-157
13,-72,-24,-6,-13,87,219,101,-336,-94
-91,-155,-78,-104,-111,-22,207,919,164,-80
-29,-108,-56,-99,-115,-26,251,977,468,45
64,22,36,-11,-27,30,203,541,501,135
60,90,74,37,21,21,61,-171,250,78
59,176,87,46,54,5,102,-86,-15,-20
155,357,176,119,133,49,124,-153,-93,19
61,122,144,110,99,60,-34,-598,-21,35
6,-17,0,68,50,23,-93,-683,38,-7
60,-23,-37,92,89,31,-65,-899,-91,18
94,35,97,153,155,79,-26,-1036,-228,52
25,-24,76,72,70,34,69,-755,-89,50
44,1,41,43,66,63,279,-454,-96,87
320,441,227,231,285,243,445,-288,-241,197
552,799,456,399,442,308,314,-598,-485,254
542,813,453,390,405,281,118,-1000,-640,196
370,555,318,274,275,189,-97,-1411,-607,105
86,104,118,97,102,50,-177,-1188,-381,28
-85,-106,-53,-72,-52,-73,-97,-531,-81,-30
-225,-243,-180,-201,-161,-173,-69,-245,2,-107
-297,-247,-258,-275,-223,-256,-65,36,58,-178
-298,-221,-297,-310,-227,-246,90,765,175,-182
-283,-365,-264,-281,-207,-113,287,1259,272,-106
-190,-342,-122,-182,-132,-30,250,1152,155,-51
-83,-178,15,-55,-31,5,72,437,27,-23
3,-45,26,0,18,4,8,-235,44,53
126,108,125,92,103,50,-6,-637,-47,120
167,150,138,90,131,92,-184,-1121,-401,104
0,-49,-1,-26,0,-17,-264,-1031,-502,-30
-171,-253,-121,-114,-95,-83,-148,-386,-306,-157
-254,-352,-242,-182,-160,-119,27,345,-2,-191
-259,-377,-319,-215,-203,-130,166,837,299,-145
-186,-261,-232,-161,-175,-101,118,958,616,-46
-86,-113,-148,-95,-125,-33,40,902,843,33
84,116,61,62,20,114,-66,-49,361,56
117,46,221,255,284,247,-179,177,-735,15
4,-120,-10,82,115,124,-154,580,-378,-15
-276,-372,-284,-134,-82,-63,-151,1023,18,-149
-491,-548,-551,-380,-325,-304,-222,1506,673,-238
-407,-305,-573,-422,-376,-408,-290,1657,1041,-243
-117,108,-233,-203,-157,-242,-258,1381,1004,-133
115,260,38,45,92,15,-256,7,378,-28
245,226,199,240,272,231,-383,-1789,-695,2
442,463,454,514,527,485,-359,-2435,-1496,62
442,549,537,557,574,549,-234,-1928,-1468,97
279,342,422,368,386,351,-261,-1145,-862,97
38,-37,90,49,70,62,-317,-90,-161,34
-120,-300,-141,-155,-110,-94,-181,757,232,-14
-163,-312,-174,-152,-131,-105,41,1463,406,-28
-180,-292,-225,-135,-122,-43,256,1666,437,-24
-111,-210,-219,-104,-45,51,228,553,59,-20
-4,-57,-110,-23,32,72,-166,-607,-254,-10
40,-10,-7,46,76,61,-401,-808,10,83
118,42,91,99,111,31,-486,-665,287,202
305,280,156,125,149,5,-478,-539,439,292
206,107,94,116,90,13,-362,-532,461,293
61,-38,-43,71,35,34,-200,-457,108,174
-23,-61,-71,25,39,88,5,188,-211,39
-16,-24,31,62,107,165,203,1107,-106,46
37,39,103,126,174,224,282,906,-127,76
1,-13,41,82,136,186,291,461,-42,57
-63,4,-80,-31,31,56,234,463,307,29
-53,160,-117,-118,-63,-84,64,429,467,-45
-258,-163,-213,-193,-178,-148,90,740,182,-191
-446,-402,-317,-261,-273,-169,331,1368,-64,-361
-335,-320,-242,-194,-205,-66,499,1235,-278,-326
-73,-56,17,60,13,124,491,341,-474,-164
153,138,125,218,137,176,192,-878,-415,18
233,182,63,215,182,145,-128,-1688,35,181
361,444,182,234,226,109,-429,-2304,12,238
413,600,215,232,210,11,-759,-2424,-284,188
320,563,127,181,169,-56,-754,-1704,-357,81
151,298,47,101,75,-47,-475,-602,-184,23
-55,-73,5,1,-23,-5,-203,649,272,-27
-107,-158,1,-26,-29,57,180,1638,868,11
-201,-269,-127,-121,-134,-27,322,2477,1107,13
-385,-463,-344,-329,-337,-201,193,2105,963,-107
-511,-598,-463,-427,-403,-280,132,1346,639,-226
-386,-467,-310,-286,-252,-174,95,688,-49,-241
-24,-95,22,62,74,116,144,183,-553,-56
182,165,159,296,292,313,202,-671,-837,43
239,250,233,355,345,366,143,-1362,-1082,37
342,324,360,375,358,388,226,-1016,-607,208
423,431,419,360,321,313,127,-795,-144,341
456,609,432,327,281,189,3,-862,-63,310
179,265,262,166,107,59,-30,-622,-139,114
-81,-73,28,8,-36,42,140,120,-181,-75
-299,-341,-235,-193,-203,-72,243,945,151,-217
-512,-562,-471,-407,-400,-281,148,1448,610,-305
-473,-491,-416,-376,-374,-309,-28,346,586,-233
-335,-317,-245,-248,-296,-283,-237,-640,460,-147
44,136,90,22,-54,-137,-484,-1517,201,36
627,863,561,444,368,179,-426,-2170,49,400
687,934,575,486,429,256,-196,-1633,238,486
424,475,340,294,252,200,18,-424,13,353
352,271,352,322,266,287,21,-571,-612,244
248,204,268,283,228,279,-73,-1023,-1037,50
77,75,50,152,139,211,66,-438,-691,-88
-6,27,-2,88,101,141,113,178,-57,-82
-1,140,41,20,33,33,38,495,111,-75
-142,-75,-151,-159,-169,-155,-21,1009,194,-112
-425,-495,-438,-386,-416,-308,80,1543,143,-265
-487,-598,-515,-464,-467,-294,269,1862,268,-303
-438,-565,-545,-422,-421,-271,253,1705,526,-263
-252,-378,-388,-233,-241,-145,200,275,463,-113
38,-71,-66,19,-14,-18,-185,-1677,271,94
196,119,153,151,84,-13,-528,-1709,95,169
277,214,341,254,191,75,-516,-1392,-532,133
408,340,451,385,344,221,-460,-1911,-841,179
394,351,445,339,291,186,-443,-2096,-790,138
83,68,116,44,27,65,-82,-60,-218,-39
-169,-188,-123,-146,-116,41,398,1735,222,-140
-211,-231,-149,-174,-135,47,785,2603,357,-100
-127,-111,-79,-148,-120,27,791,2101,351,-11
145,300,180,35,56,46,330,354,158,91
43,75,89,4,-4,-39,-73,-540,12,68
-179,-222,-122,-154,-189,-256,-361,-968,-82,-27
-277,-327,-235,-252,-273,-399,-488,-1129,-37,-94
-384,-432,-417,-373,-375,-499,-462,-621,313,-148
-392,-392,-317,-321,-323,-361,-111,86,630,-137
-307,-313,-212,-271,-275,-270,-8,606,651,-129
-93,-41,-89,-183,-157,-195,-7,1590,593,-38
175,367,77,-33,-16,-152,-134,1827,789,141
502,731,380,352,362,158,-280,-540,119,294
524,661,564,591,605,494,-11,-1834,-962,139
159,187,392,383,452,503,307,-1690,-1705,-225
-31,-37,139,130,187,277,209,-1206,-1396,-282
-148,-205,-60,-89,-77,-39,17,58,-503,-179
-217,-290,-218,-276,-301,-321,-175,860,201,-104
-257,-229,-320,-399,-436,-512,-274,624,534,-61
-380,-404,-397,-484,-553,-580,-324,479,835,-73
-301,-367,-308,-396,-441,-463,-340,442,1138,-37
-188,-243,-150,-239,-255,-267,-130,625,1208,17
108,38,108,63,89,164,397,527,757,195
488,419,408,473,492,575,483,-868,-538,315
568,565,547,631,610,587,72,-2025,-1478,220
374,407,441,430,390,353,-110,-1673,-1222,89
178,216,336,229,193,170,-128,-966,-762,-6
6,12,165,70,36,85,40,141,-228,-50
-91,-143,-62,-98,-148,-43,92,714,5,-93
-216,-276,-236,-270,-311,-220,-8,473,-130,-194
-341,-401,-367,-415,-440,-347,-53,190,-392,-321
-540,-571,-514,-552,-576,-480,-25,476,-426,-438
-738,-725,-647,-684,-688,-614,153,1702,278,-479
-592,-588,-556,-626,-621,-591,263,2519,1333,-242
-294,-348,-266,-344,-372,-369,142,1692,1722,56
65,31,137,59,13,21,136,12,830,170
473,435,546,471,432,455,142,-1591,-527,305
583,523,618,565,518,495,-114,-2198,-811,345
374,355,440,431,415,395,-85,-1836,-727,162
297,286,303,321,309,325,-63,-1124,-614,106
324,372,219,278,262,212,-151,-460,-572,99
371,588,260,250,255,139,-152,-737,-612,60
306,507,193,145,152,54,-137,-957,-297,79
115,126,10,37,-8,-5,-135,-794,-117,35
-49,-130,-191,-99,-174,-78,-103,288,129,-49
-150,-248,-289,-211,-284,-163,-66,1160,463,-30
-323,-424,-358,-378,-456,-350,-134,1383,494,-115
-546,-622,-482,-565,-630,-521,-80,2015,699,-241
-743,-829,-661,-678,-682,-553,65,2839,1105,-376
-681,-788,-634,-601,-492,-448,-12,2384,1276,-333
-344,-412,-316,-308,-196,-215,-204,447,928,-155
-25,-51,2,-10,31,20,-164,-1111,446,15
469,482,484,433,427,381,-218,-2385,-640,257
778,774,752,695,632,509,-331,-2234,-1490,410
711,662,733,629,539,408,-189,-798,-1086,470
369,378,350,287,275,244,142,263,-502,160
224,345,95,42,123,129,302,695,1,-28
50,105,5,-40,19,21,7,58,48,-34
-39,-94,18,-17,-42,-58,-365,-645,-195,18
-139,-180,-44,-71,-114,-141,-443,-569,-198,-66
-144,-192,-72,-73,-80,-78,-265,165,422,-40
-166,-229,-109,-120,-100,-64,-51,148,774,-1
-232,-221,-185,-217,-203,-151,58,353,540,-74
-57,102,-10,-46,-46,-27,162,87,-420,-185
109,184,206,173,126,138,4,-902,-933,-100
147,159,267,252,202,231,-62,-205,-450,45
34,24,148,169,148,159,29,1408,-135,-6
-212,-216,-124,-72,-63,-58,5,1623,-19,-191
-423,-453,-412,-339,-276,-232,-48,1129,16,-314
-316,-342,-305,-275,-252,-283,-314,491,-13,-192
43,99,-9,-35,-90,-261,-557,-179,584,156
377,557,253,160,107,-160,-590,-991,1294,482
145,216,71,9,-31,-150,-316,2,1412,353
-123,-166,-57,-73,-74,-9,93,1033,910,82
-82,-124,18,3,48,190,492,1478,-59,-64
248,171,304,314,370,536,782,589,-802,71
449,380,458,529,578,698,579,-476,-1160,173
356,319,338,419,437,429,84,-542,-1007,162
4,-48,-49,29,44,18,-87,77,-367,77
-278,-337,-241,-252,-199,-207,-224,-46,-143,-88
-185,-208,-82,-119,-53,-102,-323,-820,-256,-81
82,92,212,175,206,101,-376,-1915,-453,69
-51,-14,55,61,71,9,-395,-1443,-507,-64
-279,-224,-152,-176,-166,-175,-156,565,-145,-209
-149,-154,-111,-190,-161,-64,525,2872,913,84
164,152,115,3,29,93,622,2969,1114,390
287,263,265,148,108,15,-174,-86,278,402
280,235,260,198,136,-5,-450,-1907,30,348
202,171,163,116,70,-83,-437,-1669,267,253
-100,-110,-134,-140,-130,-179,-78,316,517,12
-192,-166,-160,-146,-90,-56,242,1377,187,-115
-212,-169,-154,-172,-125,-86,189,1443,70,-100
-374,-311,-365,-395,-356,-331,126,2163,399,-193
-196,-12,-250,-313,-275,-306,174,1590,710,-110
397,628,191,123,124,-29,-37,-1013,140,252
884,1030,595,599,567,327,-452,-3990,-986,491
637,570,532,542,516,415,-293,-2456,-829,341
127,20,154,172,183,225,66,40,-148,55
-269,-350,-262,-215,-188,-122,-26,349,-137,-220
-494,-588,-525,-492,-474,-432,-188,610,-10,-324
-228,-249,-276,-259,-245,-246,-11,992,227,-110
369,372,329,370,391,394,250,-290,-42,272
488,509,591,616,588,519,115,-925,-442,279
102,131,264,288,267,271,294,805,-64,36
-248,-268,-99,-69,-36,48,476,1806,441,-132
-429,-473,-311,-242,-175,-64,370,1093,375,-296
-335,-394,-293,-229,-193,-170,-36,459,303,-276
37,-25,61,83,74,7,-298,-356,-203,-91
164,108,217,212,184,129,-235,-850,-620,-124
88,43,120,131,111,97,-5,-20,-317,-116
-190,-251,-267,-194,-204,-216,-100,1229,573,-85
-397,-481,-492,-472,-473,-490,-228,1083,1034,-89
-205,-281,-336,-290,-283,-238,57,-133,138,-73
-4,-43,-77,-70,-74,-53,-94,-1022,-464,-53
68,106,105,121,122,81,-155,-911,-701,-111
181,340,124,176,201,102,-63,157,-261,-97
394,624,276,222,257,85,-216,-148,16,-4
420,505,354,286,281,163,-135,-336,-39,170
166,100,166,116,97,37,-175,-284,325,188
-77,-160,-104,-136,-136,-146,-221,-256,267,19
-305,-389,-426,-404,-409,-355,-237,-205,19,-148
-319,-376,-463,-368,-394,-341,-93,680,-47,-193
-166,-196,-274,-212,-181,-44,554,2328,655,-7
52,37,-25,-57,-49,66,464,1358,690,157
124,159,151,102,45,30,-349,-1720,-476,68
24,93,137,50,-42,-147,-663,-1901,-578,-10
41,43,134,6,-90,-157,-273,-121,549,193
-65,-84,-5,-61,-110,-12,192,515,594,110
39,52,123,107,85,139,25,-1010,-990,-23
208,233,216,225,188,158,-130,-933,-1170,133
-2,-9,-111,-58,-113,-135,-123,419,73,176
-460,-465,-470,-386,-381,-336,99,1184,595,-142
-415,-386,-274,-177,-95,-12,291,862,465,-288
24,20,141,192,273,334,212,-561,-160,-88
222,152,236,256,304,323,179,-495,-353,31
16,32,115,131,147,148,66,539,-479,-166
29,160,262,230,210,155,-64,-566,-615,-93
247,344,383,332,324,283,42,-994,-234,136
335,397,334,288,305,280,138,-383,-184,169
54,15,58,46,21,44,117,100,-142,34
-195,-239,-209,-211,-221,-188,-5,172,-13,-154
-605,-640,-633,-602,-608,-588,-337,-193,295,-412
-987,-999,-993,-939,-955,-961,-466,347,1276,-513
-724,-697,-664,-607,-622,-563,130,1188,1812,-256
-32,18,33,35,41,218,877,1758,1407,123
509,776,568,520,526,525,498,-160,-865,-18
660,970,519,485,510,346,-136,-469,-1743,-86
471,693,280,237,232,71,-181,850,-570,137
321,382,340,295,239,149,18,391,-70,271
308,210,348,331,289,273,166,-564,-202,318
216,62,184,178,147,126,-35,-1350,-388,244
94,-8,101,108,70,-15,-259,-1975,-543,115
-52,-49,-42,-17,-28,-135,-286,-1591,-344,-52
-113,56,-152,-147,-121,-249,-251,-438,34,-223
-320,-109,-391,-379,-315,-404,-136,360,302,-375
-748,-589,-858,-842,-815,-870,-97,1872,1173,-473
-867,-915,-997,-1001,-994,-923,231,2607,1708,-241
-300,-466,-413,-407,-355,-9,1255,2414,1664,256
337,261,324,327,362,581,853,873,652,402
616,608,692,682,623,541,-199,-1675,-1089,246
334,272,386,356,307,242,-146,-753,-1248,72
-28,-110,-31,7,-22,-10,57,784,-656,-99
-131,-209,-228,-114,-134,-139,15,1298,392,-47
130,42,18,105,83,55,7,-471,371,155
242,221,215,340,316,288,-11,-1883,-448,58
46,18,108,140,106,60,-177,-1198,-612,-144
-221,-294,-225,-244,-312,-404,-483,-1110,-303,-252
-382,-409,-449,-490,-563,-692,-643,-2107,-103,-289
-451,-424,-562,-587,-563,-540,118,-529,404,-266
-257,-318,-369,-251,-174,62,1177,2673,1070,-31
203,183,247,357,434,627,1216,2804,592,160
363,356,501,550,574,611,413,-49,-916,75
192,152,250,270,272,312,186,-519,-672,46
30,-12,42,67,52,95,169,206,6,64
-121,-142,-68,-62,-70,-53,66,1166,212,-50
-50,47,-72,-118,-112,-202,-57,1521,343,-95
125,314,-3,-72,-92,-277,-220,291,161,-11
199,239,116,46,-43,-242,-516,-1650,-295,95
265,177,231,161,45,-120,-669,-2527,-247,224
125,26,105,64,-6,-78,-548,-2156,71,118
-138,-205,-85,-65,-85,-55,-188,-1155,159,-127
-402,-437,-286,-213,-143,48,574,1099,568,-263
-489,-504,-438,-350,-250,-15,615,2140,530,-317
-358,-368,-347,-318,-304,-210,-81,526,-217,-291
-69,-134,-44,-86,-103,-50,18,279,-576,-43
231,140,220,190,189,278,349,377,-402,238
335,268,383,383,394,444,176,-219,-661,237
126,116,174,264,287,327,-29,-554,-831,-33
-196,-177,-184,-91,-95,-78,-236,163,-326,-243
-129,-172,-263,-266,-336,-475,-642,39,416,34
91,7,-26,-94,-197,-400,-631,-917,651,316
136,55,126,68,14,-70,-115,-731,458,238
-8,-91,-41,-82,-63,-17,293,730,480,79
-44,-107,-52,-70,-47,52,428,858,473,8
317,292,374,341,278,196,-109,-1339,-393,112
229,205,273,246,145,-23,-560,-2164,-455,54
-77,-56,-28,27,32,10,-173,-1580,-503,-185
75,184,104,153,263,330,268,-189,-723,-184
280,475,173,162,306,354,532,1996,-55,3
111,142,35,7,53,124,357,1889,155,78
-222,-259,-212,-215,-223,-145,190,1762,26,-94
-435,-421,-327,-307,-345,-277,83,1568,250,-238
-328,-305,-210,-195,-238,-150,316,656,770,-128
-234,-253,-153,-147,-166,-31,418,-84,736,-45
-138,-141,-50,-73,-140,-95,136,315,245,-18
289,412,267,209,142,-9,-228,-320,-45,152
302,520,224,163,154,-87,-472,-1540,124,129
-51,142,-55,-103,-67,-193,-92,-1528,-170,-201
-319,-306,-277,-251,-206,-173,123,-34,-164,-363
-23,-72,75,105,135,262,114,-120,-375,-175
317,227,344,345,315,420,134,-465,-412,137
87,-3,76,67,37,15,-111,570,-364,42
-98,-214,-246,-170,-175,-224,-125,2039,235,67
-56,-183,-229,-186,-198,-161,-22,1185,1043,241
207,147,228,211,221,282,14,-1905,34,226
220,237,305,322,337,361,-193,-3055,-1180,-12
-9,53,60,12,-1,44,-79,-548,-850,-193
-125,-148,-162,-209,-258,-226,120,1398,44,-139
128,70,98,69,29,110,557,1214,483,155
177,152,215,202,204,321,593,1007,312,133
154,176,80,69,99,101,-5,295,207,69
179,117,73,39,4,-165,-743,-1318,147,257
224,196,211,177,107,-98,-804,-2443,-356,278
-80,-14,31,33,0,-36,-405,-1463,-880,-163
-659,-588,-503,-478,-453,-340,54,964,-161,-548
-734,-691,-589,-572,-535,-406,231,2421,785,-436
5,4,78,50,52,139,548,2062,923,195
517,568,502,452,477,538,653,156,194,404
389,600,406,387,475,503,407,-265,-364,60
272,349,350,398,442,482,79,-526,-763,-23
206,185,228,318,322,314,-152,-459,-797,-25
-15,-49,-10,28,52,55,44,788,-234,-96
-338,-400,-433,-400,-388,-369,63,2322,994,-106
-407,-540,-604,-645,-676,-690,-260,1739,1441,30
-210,-313,-402,-485,-575,-726,-1053,-2518,7,14
89,258,-71,-123,-244,-536,-1497,-5826,-1313,-57
347,630,249,134,64,-234,-887,-3790,-733,157
452,730,483,397,400,221,110,172,459,257
271,362,324,344,452,547,903,2934,630,146
154,50,190,248,358,578,1019,2835,340,125
147,58,203,269,356,509,710,989,-221,21
16,-81,28,101,162,295,327,1049,-77,-77
48,24,-26,41,121,244,208,553,-417,-164
-4,67,-184,-140,-70,-39,-45,793,-214,-253
-412,-453,-480,-450,-477,-438,-276,1493,488,-268
-445,-549,-447,-447,-497,-473,-373,481,719,-181
-26,-102,27,16,-9,-84,-602,-1891,247,40
112,82,243,253,266,189,-490,-2451,-274,18
-62,-50,138,153,194,230,-50,-1313,-1166,-215
-13,-72,7,-37,-26,32,42,-626,-741,63
338,293,135,10,-16,-35,-101,-1251,291,574
266,229,167,84,3,-83,-312,-1563,363,475
-32,-10,-10,0,-38,-21,39,897,113,0
-129,-85,-54,-39,-14,97,435,2114,251,-185
-32,-19,4,49,74,206,542,833,23,-125
-435,-443,-442,-252,-209,-36,591,2057,78,-311
-608,-641,-552,-372,-295,-151,396,2852,622,-326
-224,-193,-189,-155,-79,-81,-49,993,488,-6
315,480,280,220,244,44,-632,-2667,-568,211
342,404,433,358,289,70,-889,-4443,-1436,151
19,16,154,97,68,-60,-563,-2102,-1064,-35
53,5,90,61,39,-52,-308,-436,-408,84
197,118,187,136,145,221,435,491,390,260
73,-3,75,19,79,349,1075,2532,1006,216
-51,-71,-6,-49,8,254,912,2665,1002,126
-13,193,49,15,98,139,502,1006,232,-67
-14,179,74,31,93,28,-63,-423,-569,-194
-330,-317,-247,-271,-277,-358,-540,3,-291,-292
-535,-577,-537,-547,-590,-650,-611,1237,752,-250
-428,-495,-467,-491,-532,-585,-477,746,1046,-75
-193,-228,-203,-222,-249,-324,-494,-1465,211,18
342,275,213,219,146,27,-484,-3174,-511,310
688,600,453,550,512,512,137,-1622,12,589
534,460,434,479,486,570,432,474,-266,379
-63,-102,-19,5,14,109,314,1552,-14,-99
-302,-336,-254,-215,-194,-44,514,2268,244,-271
-17,-50,50,68,89,298,683,738,-262,-107
276,269,367,398,439,577,486,-834,-1219,-50
137,162,253,325,412,435,179,-12,-952,-154
185,226,227,253,281,251,152,52,-423,27
362,431,243,165,114,4,-53,-850,-187,286
39,-25,-49,-82,-152,-297,-509,-1173,-118,207
-501,-597,-513,-490,-463,-541,-766,-171,354,-82
-787,-906,-844,-829,-806,-815,-371,2100,1402,-179
-807,-911,-897,-904,-901,-892,-122,3018,2210,-80
-383,-415,-375,-399,-390,-369,139,1413,1645,58
416,458,552,524,523,501,92,-2439,-782,105
797,923,844,797,764,619,-358,-4440,-2355,40
811,1058,684,599,571,271,-738,-3408,-1699,148
726,938,716,623,562,214,-694,-1978,-945,265
230,244,335,298,259,133,-174,207,-282,95
-397,-546,-421,-373,-305,-219,184,2004,732,-110
-482,-586,-531,-437,-355,-255,298,1890,1041,-108
-177,-223,-237,-69,11,193,872,2195,333,-76
8,47,84,170,249,362,654,1104,-662,-178
19,174,11,8,60,-12,114,1050,-53,-101
-194,-34,-269,-316,-280,-312,269,1771,928,-15
-272,-269,-245,-335,-349,-229,306,481,457,-21
-132,-238,-165,-248,-315,-225,-85,-792,-465,-32
143,11,61,35,-30,-11,-78,-1603,-305,209
262,167,284,273,228,198,-99,-1902,-129,295
184,166,278,290,281,245,-60,-530,-336,78
87,113,153,168,202,190,22,-58,-295,-46
50,14,54,38,41,15,-106,-77,94,89
25,-99,-39,-100,-147,-177,-354,-63,592,282
-34,-154,-133,-200,-292,-389,-683,-1121,587,218
-287,-329,-279,-293,-377,-472,-568,-846,563,-80
-359,-335,-253,-215,-239,-190,229,1311,418,-265
-266,-235,-195,-95,0,238,1056,3181,19,-259
133,180,132,244,337,468,632,797,-486,-18
275,457,229,226,271,208,-121,-940,-442,83
209,338,170,144,136,61,-199,-739,-564,136
75,78,27,11,-51,-66,-68,-206,-208,173
-139,-191,-199,-249,-362,-383,-192,411,434,97
-376,-473,-411,-457,-518,-558,-497,-270,385,-121
-174,-239,-131,-122,-147,-240,-547,-1596,-199,-195
169,161,251,248,177,59,-440,-2197,-613,-152
256,271,194,161,121,93,80,-237,-173,-16
279,391,145,125,176,178,569,1751,837,159
331,386,324,346,397,441,542,311,15,260
164,45,205,249,252,302,201,-923,-616,226
-61,-208,-91,-43,-51,38,154,25,345,231
-221,-255,-188,-108,-80,51,372,821,256,11
-173,-144,-73,-17,23,150,418,425,-469,-204
-112,-85,37,71,89,147,125,-139,-951,-373
-429,-416,-270,-247,-241,-229,-94,1212,-305,-539
-551,-600,-498,-501,-517,-565,-326,1096,256,-426
-459,-570,-529,-506,-567,-626,-485,-581,625,-170
-235,-320,-367,-251,-285,-349,-370,-806,1167,38
25,0,-70,72,107,126,186,1039,1004,128
233,232,228,317,366,441,502,1581,22,146
535,484,507,473,458,452,144,-575,-897,240
481,495,367,283,278,217,-116,-1361,-655,172
398,466,398,360,380,378,-11,-1333,-974,-91
223,285,332,372,385,426,59,-616,-939,-269
6,98,196,164,154,123,-277,-806,-893,-341
-65,-67,-24,-82,-147,-250,-615,-1207,-452,-164
-227,-299,-295,-316,-329,-272,-2,408,583,-73
-390,-474,-441,-432,-369,-145,681,2736,1406,-93
-362,-374,-422,-383,-321,-95,677,2628,1028,-109
150,306,-32,-53,5,28,296,852,593,223
396,606,216,115,178,130,192,622,674,387
228,406,203,161,189,193,174,324,-13,92
131,156,245,216,185,219,-204,-935,-519,-9
156,148,282,199,134,129,-520,-1955,-509,67
168,154,282,207,131,12,-671,-2676,-791,39
-28,20,174,101,55,-84,-374,-1575,-724,-161
-241,-140,-129,-182,-196,-263,-121,248,-69,-242
-231,-235,-333,-297,-314,-334,-195,122,249,-106
-55,-146,-154,-99,-113,-146,-240,-709,327,95
-24,-76,9,18,52,46,86,257,187,60
-191,-238,-127,-112,-57,45,449,2581,415,-52
-269,-303,-202,-215,-195,-101,271,2447,245,-132
-216,-240,-190,-174,-198,-197,-76,854,-192,-144
16,-15,-13,52,19,0,-29,-460,-202,52
222,192,234,251,245,246,2,-1669,-392,175
255,232,252,225,214,189,-251,-2072,-753,131
51,31,33,-19,-59,-87,-469,-649,-128,103
-282,-249,-236,-217,-234,-245,-380,951,849,-8
-277,-247,-157,-126,-132,-128,1,1498,797,-47
-221,-295,-204,-187,-219,-231,28,1482,651,17
-116,-230,-194,-173,-173,-114,208,1042,574,142
198,218,-33,32,44,108,246,-314,276,228
278,520,89,117,146,108,-69,-1630,-520,-50
-89,76,-76,-57,-33,-24,-122,-1267,-847,-354
-367,-368,-283,-207,-202,-122,11,916,215,-253
-230,-238,-197,-98,-112,-117,-152,1563,897,-33
236,230,212,288,252,215,2,491,126,124
741,694,599,660,574,569,140,-1305,-1377,321
735,729,607,559,454,359,-186,-1777,-1103,425
405,573,312,175,127,19,-65,-275,142,287
-16,73,-8,-58,-60,19,243,694,529,34
-229,-200,-57,-42,-46,39,12,-397,4,-183
-194,-178,-40,-45,-41,-45,-216,-1264,-453,-201
-155,-179,-43,-63,-61,-28,75,-12,-310,-93
-406,-523,-444,-453,-439,-371,162,2095,627,-50
-483,-605,-551,-549,-560,-534,-130,1886,1772,-33
68,108,57,56,48,74,61,413,1167,75
389,419,424,401,405,428,275,54,-24,172
361,320,402,400,396,401,152,-146,-742,134
149,129,204,215,207,151,-51,-131,-704,-36
61,49,107,91,32,-51,-130,-776,-457,-21
-39,-117,-79,-123,-179,-218,101,-1160,312,184
-144,-241,-206,-231,-221,-173,394,-805,641,178
-145,-146,-94,-38,28,104,534,326,-88,-147
-119,-95,-53,28,105,150,291,1112,-646,-298
-28,-62,-11,-11,9,16,50,739,-181,-52
182,114,137,101,86,87,42,329,164,220
222,214,261,258,300,273,-135,-399,-113,165
180,217,281,327,356,247,-363,-1157,-588,12
32,70,117,155,168,-33,-666,-1774,-818,-111
-37,34,-14,-2,33,-176,-715,-1605,-714,-135
111,319,43,-23,28,-201,-454,-729,-64,-29
166,364,41,-74,-53,-195,-17,338,1072,197
-100,-194,-174,-211,-201,-130,388,618,1069,235
-260,-410,-285,-264,-214,-100,480,856,-77,-77
-217,-341,-242,-211,-172,-109,500,1694,187,-89
-71,-175,-107,-93,-85,-47,416,1657,690,130
-57,-130,-110,-63,-51,6,50,467,76,67
-92,-84,-177,-111,-83,-77,-300,-17,-75,-51
-132,104,-176,-170,-72,-154,-189,352,155,-279
-152,112,-148,-173,-84,-136,-10,34,-269,-434
-162,-183,-222,-253,-266,-262,20,913,317,-172
37,-161,-130,-164,-180,-160,157,1471,1231,279
442,261,359,332,319,270,-104,-1263,117,454
582,497,613,585,568,430,-397,-2991,-1203,314
371,331,410,374,381,274,-222,-1863,-698,233
136,100,67,9,-3,-95,-267,-558,80,177
-60,-107,-118,-171,-228,-391,-554,-800,209,31
-1,17,113,57,34,-86,-356,-2229,-436,-124
-94,-83,42,29,99,185,194,-965,-833,-377
-181,-235,-119,-110,-27,92,355,1621,-659,-393
-214,-291,-194,-207,-174,-165,-7,1747,233,-204
-171,-237,-162,-206,-180,-189,-8,849,915,0
-136,-85,-107,-153,-103,-101,152,1610,1116,-4
14,189,59,-5,76,86,249,1186,109,-116
107,145,154,119,173,262,373,40,-803,-21
161,146,201,189,191,280,252,-809,-622,134
221,163,229,225,213,238,30,-811,-133,238
38,-7,58,70,68,86,111,710,12,56
-332,-365,-367,-261,-246,-154,314,2266,551,-169
-484,-516,-538,-432,-389,-292,313,1941,1329,-158
-267,-142,-308,-286,-203,-201,135,659,1104,-95
-83,113,-91,-123,-54,-149,-308,-1063,-300,-110
115,139,193,185,164,94,-360,-2205,-1202,14
385,365,466,486,478,410,-191,-2045,-1216,149
437,408,452,501,511,488,136,-1154,-1093,215
175,147,84,200,192,171,41,-614,-667,78
-38,-19,-36,0,-48,-153,-355,-1227,-244,-20
53,152,105,68,18,-129,-479,-2296,-76,16
266,500,160,124,171,104,92,-301,168,105
185,460,34,32,111,115,232,1737,273,25
76,352,40,1,90,171,368,1704,219,-71
-250,-105,-135,-158,-133,0,332,1077,279,-162
-636,-663,-597,-625,-643,-517,151,2284,1592,-132
-682,-759,-659,-692,-741,-627,365,3296,2630,-22
-404,-458,-283,-312,-372,-264,395,1002,1178,-97
125,47,248,213,150,137,-319,-3439,-1626,-99
316,197,363,344,285,186,-659,-4062,-2223,-117
14,-87,78,98,77,65,-194,-702,-885,-183
-26,-100,83,92,101,160,247,1070,-267,-75
-3,-94,77,100,92,136,423,972,18,48
-88,-221,-61,1,13,82,1018,1365,597,97
-148,-219,-134,-38,12,82,1201,1523,562,20
-82,-48,-143,-64,-10,5,735,525,326,-62
195,318,-4,-78,-63,-160,9,-801,184,63
220,239,127,30,-70,-179,-413,-1548,-124,127
303,277,343,236,97,33,-298,-2007,-1152,-7
57,-34,31,-51,-185,-207,7,-541,-805,-136
-284,-379,-279,-273,-306,-282,178,791,158,-235
-214,-269,-133,-83,-61,-93,51,113,307,-181
-339,-341,-305,-205,-223,-362,-595,-1033,286,-270
-215,-72,-299,-267,-237,-376,-334,-574,832,-144
159,365,-17,-73,48,167,1022,1684,1153,232
410,469,335,295,365,571,1053,1849,37,346
531,497,600,604,606,704,477,453,-1051,243
274,244,359,386,384,466,192,322,-857,61
82,3,98,114,83,100,-260,112,-417,-16
-39,-153,-114,2,-59,-99,-515,68,-233,-22
-220,-267,-241,-156,-149,-185,-252,395,33,-106
-328,-359,-364,-346,-312,-330,-111,903,759,-83
-227,-333,-212,-185,-184,-186,-157,326,977,70
77,21,156,163,138,186,-111,-1091,-204,102
142,130,261,242,173,201,-389,-2340,-1122,-33
-134,-167,-128,-98,-180,-224,-596,-931,-177,-94
-410,-487,-520,-394,-421,-388,-235,1240,659,-187
-89,-137,-73,-14,-13,111,423,1344,241,-60
89,87,203,239,213,347,548,755,-282,-84
120,123,221,213,141,162,70,118,-551,-51
209,145,184,155,43,-50,-327,-626,-141,233
288,138,141,100,-28,-92,-331,-1593,359,506
33,-80,-74,-135,-253,-224,-30,-587,422,297
97,65,94,55,30,82,115,328,-22,37
226,293,340,326,377,398,-59,-241,-685,-124
87,227,169,135,171,140,-78,149,-253,-136
-52,46,-79,-119,-91,-146,-257,294,417,-20
-141,-204,-182,-167,-142,-103,-266,20,613,32
-129,-163,-72,-39,26,78,-164,115,-34,-168
-212,-245,-141,-113,-77,-70,-201,942,-205,-257
-406,-465,-399,-380,-359,-297,-50,1551,603,-197
-338,-382,-344,-380,-403,-343,-144,322,637,-106
-139,-157,-154,-228,-282,-372,-631,-1516,-11,-54
345,493,269,203,216,44,-282,-1721,-740,107
787,1039,596,513,559,410,149,-1049,-698,471
502,721,388,342,416,362,232,-640,-277,285
-73,-50,-41,-29,-2,92,314,1027,482,-72
-246,-335,-249,-203,-222,-59,448,2179,1565,54
-190,-276,-186,-124,-104,-8,258,2306,1696,234
92,58,160,222,261,267,-56,300,-191,167
379,388,430,496,492,453,-246,-1704,-1771,85
313,312,377,374,326,178,-703,-2284,-1448,28
69,101,172,141,60,-189,-1006,-2296,-953,-85
-271,-219,-190,-161,-204,-319,-521,-656,-119,-256
-400,-434,-400,-376,-334,-176,357,1246,564,-150
-11,-62,15,23,82,242,485,1134,194,147
32,-8,54,41,29,10,-268,77,-63,125
-144,-254,-302,-351,-388,-471,-600,-435,656,156
-25,-34,-221,-271,-230,-248,-145,-660,1219,172
135,160,122,181,253,382,425,-54,334,27
234,229,262,341,415,549,511,757,-811,15
-17,-35,28,36,83,171,305,1302,-493,-52
-280,-298,-268,-271,-233,-121,286,1898,332,-132
-508,-509,-470,-466,-428,-319,94,1877,321,-323
-311,-264,-206,-202,-187,-157,-77,-161,-20,-242
267,433,345,311,317,225,-94,-1960,-279,53
313,606,270,257,313,195,17,-700,-125,-36
285,339,149,193,186,194,58,-113,-311,90
302,255,211,176,105,105,-134,-823,-490,309
116,119,65,76,-2,-41,-174,-876,-439,196
-134,-129,-231,-95,-144,-166,18,-429,-60,71
-562,-536,-529,-436,-466,-483,60,715,979,-77
-723,-767,-670,-661,-672,-692,-55,1052,1744,-99
-195,-117,-260,-266,-216,-283,-24,-250,1139,62
537,729,464,445,574,569,270,-1249,-563,123
683,875,624,612,720,763,440,299,-940,115
581,694,607,578,584,523,-75,-297,-1052,105
331,292,435,422,373,354,-262,-973,-1094,60
63,39,199,219,198,250,0,-620,-765,-102
-129,-127,13,30,36,89,57,149,-415,-239
-333,-359,-300,-319,-345,-338,-217,677,-213,-259
-405,-460,-518,-488,-571,-605,-471,362,153,-192
-152,-213,-223,-219,-281,-259,-16,342,756,58
-271,-342,-271,-294,-315,-242,205,1463,873,-38
-647,-784,-791,-733,-750,-699,-53,2468,1478,-121
-564,-742,-699,-692,-693,-575,30,1140,1628,94
100,-27,83,70,102,178,64,-1279,526,377
734,711,798,773,774,646,-424,-2942,-1632,344
983,1192,1014,934,919,612,-654,-3100,-2096,157
710,903,698,621,615,447,-278,-1357,-933,147
114,117,137,130,150,200,110,525,-301,-41
-101,-146,-89,-80,-57,-19,-40,379,-286,-159
-41,-57,39,-4,-11,-6,-84,-150,-302,-102
-3,0,69,5,-3,47,130,1,-2,-2
4,-101,-34,-89,-103,-88,-115,140,369,145
-19,-21,-148,-114,-82,-113,-234,519,374,21
-129,89,-264,-139,-18,-24,77,754,-209,-297
-450,-391,-408,-342,-276,-162,224,943,-598,-434
-603,-676,-590,-602,-607,-500,-19,1102,48,-289
-477,-603,-535,-575,-597,-529,-172,243,1022,3
-205,-286,-197,-199,-205,-139,72,-250,946,122
-198,-209,-97,-98,-98,-8,181,565,652,21
-159,-156,-100,-112,-146,-146,-88,431,588,74
277,421,212,203,219,101,-72,-1248,121,260
552,812,562,508,548,365,-186,-2028,-1141,71
226,340,294,300,278,192,-212,-746,-975,-196
-108,-110,-67,13,-16,81,263,1493,290,-201
-111,-144,-4,20,50,192,562,1877,369,-193
-10,-42,109,132,208,370,613,550,-242,-200
74,38,132,144,186,285,329,-355,-377,-21
164,215,174,134,141,91,-226,-845,-324,25
152,304,138,82,66,-149,-686,-1014,-167,14
47,64,148,126,19,-228,-737,-908,-47,77
-4,-37,126,113,2,-171,-367,-582,-73,35
-60,-146,-20,-43,-117,-157,-22,-270,143,34
-20,-165,-82,-84,-110,20,538,311,500,113
-277,-416,-337,-316,-270,3,1060,1367,477,-151
-397,-441,-402,-358,-316,-153,766,1590,41,-399
-255,-133,-227,-186,-92,-5,235,1409,271,-368
-223,-232,-199,-200,-113,108,372,1537,763,-35
-113,-208,-156,-203,-212,-84,182,759,194,89
-237,-317,-264,-284,-346,-376,-238,1192,-157,-186
-62,-187,-138,-179,-263,-376,-475,92,816,81
234,114,161,135,68,-11,-392,-2105,583,365
355,312,374,355,315,279,-200,-2229,-225,313
544,616,628,603,585,538,-113,-1728,-1405,124
430,493,538,530,524,497,-26,-797,-1149,28
188,164,283,316,286,296,80,-200,-511,55
69,-23,60,68,15,39,76,358,-10,134
-78,-205,-152,-168,-252,-191,116,1044,770,149
-197,-288,-219,-210,-274,-290,-132,796,885,35
-130,-139,-57,-14,-5,-95,-284,-828,-333,-103
35,139,126,168,182,96,-130,-2195,-1513,-217
-47,233,-39,-29,-8,-76,109,-442,-480,-215
-195,70,-218,-237,-204,-209,223,1467,621,-111
-355,-342,-287,-292,-295,-199,292,2038,902,-70
-481,-610,-482,-405,-395,-243,313,1933,896,-144
-196,-319,-219,-92,-77,28,102,598,335,-119
227,108,185,277,223,214,-271,-569,-265,107
333,228,291,327,225,67,-760,-1935,-507,206
332,269,282,244,130,-108,-1012,-3031,-464,217
268,292,333,283,182,47,-527,-2111,-637,100
42,60,158,139,117,243,503,1189,-470,-48
109,58,90,156,145,334,700,1455,-208,73
110,35,23,103,53,180,447,510,73,110
-2,-77,-40,-79,-156,-62,260,195,179,56
-92,-142,-154,-147,-163,-172,-82,-628,15,-13
-191,-178,-268,-178,-101,-228,-407,-970,-149,-58
-254,-212,-310,-311,-211,-278,-161,-53,363,-12
-252,-277,-313,-339,-283,-242,70,1290,1053,67
-280,-297,-339,-282,-256,-193,124,2037,1232,7
-97,-39,-25,35,66,122,196,410,311,-66
-17,5,67,43,100,130,296,-37,-381,-170
-101,-182,-172,-228,-207,-181,129,754,36,-45
-31,-133,-108,-141,-138,-181,-206,407,120,179
225,234,89,120,129,-98,-723,-1036,-261,235
375,577,200,236,267,2,-431,-1239,-230,210
241,441,203,213,301,210,329,464,-32,45
125,134,197,237,285,295,256,30,-380,-43
48,-52,79,78,75,104,-8,-287,-224,21
174,-14,67,-7,-45,-36,-120,-37,304,312
154,17,121,90,68,23,-192,-634,-180,229
-38,-84,28,50,50,-32,-397,-1256,-837,-122
32,48,120,130,126,-7,-378,-1383,-719,-175
119,81,178,136,114,102,181,-96,117,65
-10,-88,-38,-85,-93,-31,499,1670,790,122
-168,-228,-254,-228,-197,-132,399,1919,749,-27
-110,-107,-139,-100,-58,45,357,615,14,-103
-22,35,99,124,160,280,490,-357,-720,-141
-147,-134,-29,-3,35,170,484,642,-524,-239
-138,-124,-216,-210,-170,-64,303,1578,445,-118
-130,-136,-164,-134,-98,-71,144,603,805,-48
-50,-51,75,144,169,192,245,-750,98,-113
119,113,218,246,267,287,241,-629,-312,-83
228,178,226,204,173,131,-99,-594,-544,26
326,274,291,245,184,76,-434,-1413,-568,201
265,214,225,178,135,11,-477,-1088,-225,248
106,132,79,64,67,-29,-266,-610,-118,88
59,279,-44,-37,38,-50,-34,-169,-69,-57
-26,94,-91,-102,-68,-134,-13,66,-42,-70
-47,-72,-86,-156,-239,-294,-187,230,167,47
-79,-118,-136,-243,-381,-461,-247,-229,489,89
-185,-248,-238,-324,-388,-399,95,-180,842,25
-223,-262,-169,-183,-91,-6,196,529,791,-46
6,15,106,103,167,251,198,261,-77,-21
92,187,168,154,171,171,6,919,-13,22
-71,0,-21,-15,7,1,61,2086,431,1
-36,1,60,52,68,50,-36,367,-163,-86
132,132,227,239,227,186,-188,-1629,-830,-102
132,85,168,188,189,199,-44,-855,-460,-45
40,-65,-17,-15,8,49,203,835,365,104
-70,-178,-140,-147,-102,-50,202,1355,827,155
-67,-58,-76,-85,-6,8,-30,265,286,-45
98,344,99,46,154,35,-257,-878,-788,-322
149,391,119,14,40,-148,-493,-1264,-779,-227
32,3,-46,-107,-143,-186,-183,-299,155,101
32,-50,-18,-42,-31,35,205,403,302,202
-48,-120,-63,-56,-22,37,170,1034,382,144
-34,-125,-148,-47,-49,-32,34,627,128,151
131,50,-9,90,54,93,53,-776,-304,162
184,213,122,168,143,148,38,-1163,-507,59
22,117,108,128,124,78,-103,-1371,-870,-212
-152,-44,-26,2,13,-6,-102,-563,-835,-396
-86,-23,-116,-41,-51,-54,56,530,-116,-203
-36,-29,-80,-23,-48,-99,-54,160,261,55
-46,-56,38,36,6,-37,-117,-177,237,129
74,47,163,146,132,153,32,-192,3,150
154,105,142,79,60,76,75,382,225,259
-71,-111,-176,-232,-249,-299,-188,846,721,162
-467,-523,-516,-537,-555,-591,-390,1139,1135,-95
-291,-340,-252,-256,-232,-191,-19,841,1113,50
160,110,251,240,278,351,297,-354,-231,189
158,106,224,197,216,236,-11,-788,-1072,67
12,-35,52,41,21,63,-67,-502,-582,7
-47,-65,15,12,18,87,144,-544,-242,-96
-278,-115,-214,-194,-108,-77,82,349,-199,-431
-388,-130,-429,-420,-342,-393,-180,1016,409,-400
-175,-132,-313,-344,-363,-417,-152,727,1261,108
129,18,14,-32,-83,-69,153,454,997,341
366,338,375,337,284,244,-7,-355,-416,170
568,597,638,600,578,522,-46,-1041,-1055,239
359,404,383,371,405,377,24,-627,-546,216
156,213,163,151,197,158,-9,-743,-493,74
3,7,-14,-20,23,-40,-140,-818,-441,-38
-115,-190,-77,-47,-20,-26,-132,-659,-184,-128
-159,-205,-55,-5,40,74,116,212,-317,-334
-275,-334,-185,-130,-70,36,365,2042,53,-363
-253,-311,-212,-203,-155,-48,287,1761,305,-209
-146,-162,-131,-104,-67,35,301,344,174,-105
14,6,-11,17,11,85,319,-483,126,1
136,197,4,-25,-39,-1,416,374,737,138
-25,24,-44,-93,-98,-100,164,1149,790,20
-143,-105,-72,-106,-157,-341,-676,-264,-120,-120
1,40,73,11,-101,-412,-965,-2061,-669,-2
-96,-94,-72,-102,-152,-335,-602,-1864,-106,39
-204,-231,-272,-236,-205,-220,-230,-1248,669,143
-151,-147,-185,-185,-157,-145,-104,-796,454,141
-51,-21,-74,-173,-199,-232,-185,288,85,18
213,318,71,-36,14,4,306,972,106,62
260,286,219,151,208,312,737,1549,81,91
165,171,258,198,218,341,654,1972,-126,24
204,215,236,274,303,382,340,760,-434,69
164,113,196,264,280,340,279,119,-371,69
58,-20,140,171,210,307,427,158,-353,-65
-9,-90,34,73,132,253,425,115,-212,-146
15,-69,-60,-51,-6,72,238,-1,17,-53
-29,-141,-132,-145,-129,-67,52,-109,27,16
-1,-133,-131,-129,-140,-111,-112,-33,-142,6
33,-75,-81,-118,-161,-202,-402,74,-104,23
-44,-70,-86,-160,-227,-299,-617,-256,120,68
-50,-75,-113,-182,-221,-276,-447,-275,299,140
-104,-110,-80,-114,-122,-149,-336,-417,-225,-63
-173,-51,-109,-82,-80,-89,-113,262,-435,-280
153,402,65,62,120,113,230,225,-109,-143
184,331,38,-11,28,8,117,142,805,126
-20,-13,-15,-41,-65,-59,-91,298,1069,181
-47,-22,58,83,84,159,1,285,362,73
-31,23,122,128,102,96,-268,-888,-714,-74
-75,-37,52,56,13,-38,-199,-1036,-476,-117
-147,-180,-150,-87,-65,-9,372,200,283,-57
-112,-165,-167,-108,-24,126,760,810,98,-49
-79,-132,-89,-42,16,170,562,-138,-439,-61
-106,-142,-77,-91,-130,-129,-277,-1307,-488,-79
-9,-64,-36,-63,-156,-305,-1003,-1764,-174,30
146,126,156,186,120,26,-372,-932,188,138
138,167,225,295,271,309,175,-176,-231,-77
23,27,69,142,111,225,111,364,-254,-173
-310,-283,-265,-233,-244,-161,-67,1053,353,-222
-433,-388,-369,-324,-285,-317,-71,1899,497,-225
-102,-127,-65,-47,-31,-35,177,1172,316,32
4,-36,-17,-16,-17,29,262,331,389,110
-72,-56,-60,-63,-114,-116,76,394,797,53
178,203,225,182,90,62,103,263,319,195
387,364,400,350,270,220,-115,-630,-567,292
260,262,281,237,220,201,-210,-938,-745,101
217,346,174,114,182,217,220,158,-406,-51
205,449,101,95,192,218,303,360,-409,-106
-47,50,-122,-57,-43,-32,43,464,-138,-57
-208,-248,-204,-201,-238,-199,17,678,99,-6
-147,-185,-157,-101,-128,-40,179,297,129,30
11,28,68,101,49,59,-84,-938,-215,0
84,60,71,16,-115,-218,-622,-2048,-220,132
-42,-91,-168,-256,-419,-565,-685,-1272,493,259
-218,-251,-321,-403,-545,-646,-359,14,911,179
-228,-263,-179,-213,-314,-400,-460,-984,-124,-35
28,58,198,246,230,50,-679,-1982,-1120,-144
117,178,331,388,408,354,66,250,-668,-152
215,244,359,407,468,668,1055,1924,112,12
131,151,229,279,359,535,801,1437,-40,-31
11,21,69,100,175,260,381,827,-141,-72
35,136,-17,11,98,156,211,334,83,-12
-114,-69,-166,-132,-98,-32,67,580,534,-41
-239,-253,-219,-232,-235,-142,119,815,1142,-43
-203,-272,-217,-229,-239,-138,239,747,1202,58
-49,-185,-172,-118,-106,-5,271,468,483,121
135,23,53,110,120,183,142,-221,-621,47
240,286,311,331,289,248,-225,-936,-1128,-52
217,424,321,284,242,132,-331,-740,-792,-87
-43,199,-100,-110,-79,-184,-284,215,-362,-196
-524,-470,-533,-509,-487,-524,-264,963,-214,-394
-459,-500,-429,-395,-404,-396,-107,-25,36,-307
77,-20,-61,44,-15,-62,-236,-2587,-41,77
431,306,192,304,191,66,-441,-3009,64,388
484,397,382,440,355,295,-173,-910,106,364
237,237,317,327,311,341,123,806,-17,68
26,39,66,29,39,66,31,944,197,4
-138,-230,-165,-206,-232,-202,-76,743,389,114
-202,-286,-203,-205,-235,-160,74,696,91,59
-138,-179,-129,-84,-104,-25,110,583,-282,-54
-190,-217,-195,-144,-167,-93,70,891,-17,-106
-422,-436,-442,-365,-376,-311,-63,1382,374,-316
-259,-312,-347,-281,-289,-225,-55,1057,1014,-117
234,256,140,131,163,234,419,-326,849,250
677,933,503,515,579,475,259,-2168,-729,210
555,779,490,419,432,283,-92,-1603,-1214,63
15,48,74,-27,-62,-99,-42,252,-303,-62
-304,-302,-230,-265,-242,-228,116,812,136,-143
-362,-330,-241,-231,-161,-115,218,1157,328,-197
1,12,72,81,121,130,189,443,15,-36
105,126,141,177,196,214,147,-311,-513,-26
-32,-10,-173,-44,-52,-76,-21,-306,-282,-47
-187,-290,-345,-290,-293,-288,-170,-569,545,148
-256,-392,-325,-356,-358,-295,-262,-666,763,250
-91,-157,-10,-48,-71,-57,-310,-671,18,122
173,102,261,263,241,249,34,-107,-101,117
435,350,494,494,449,437,272,-563,-469,170
364,301,421,382,325,325,325,-495,-611,67
70,70,134,86,62,-1,-121,-709,-584,-157
-292,-272,-230,-282,-308,-543,-1160,-1990,-558,-387
-353,-386,-371,-394,-459,-712,-1287,-2309,-89,-250
-199,-237,-215,-232,-246,-297,-228,-68,577,67
-261,-236,-174,-217,-187,-17,808,2958,892,47
-313,-290,-235,-251,-217,-6,1023,3965,848,-39
-135,-181,-123,-124,-94,53,810,1976,27,-65
227,216,233,210,257,351,638,374,-572,-33
561,689,451,378,475,486,463,305,-141,46
631,789,441,329,429,328,-12,-523,171,214
376,391,294,247,271,213,-180,-913,-247,248
98,72,25,129,121,101,-192,-732,-400,114
-38,-24,-85,39,41,45,-61,-480,-349,-38
-53,-36,-111,10,9,67,123,-134,-208,-21
-117,-123,-228,-103,-110,-44,131,383,320,35
-61,-69,-147,-125,-149,-141,-109,-110,600,176
-49,-54,-5,-40,-63,-94,-188,-425,287,119
-143,-179,-83,-47,-93,-141,-155,19,120,2
-242,-275,-159,-150,-212,-282,-297,-355,245,-46
-288,-291,-173,-178,-208,-270,-429,-862,10,-122
-261,-251,-142,-149,-160,-160,-173,-426,-341,-199
-255,-219,-128,-147,-196,-214,-228,-1158,-780,-291
-269,-209,-210,-267,-348,-436,-308,-876,-99,-201
-368,-209,-435,-470,-487,-562,15,519,1127,-156
-162,-47,-181,-153,-110,25,911,2083,1375,42
434,563,578,554,552,686,782,754,202,254
543,592,663,592,499,518,85,-513,-954,163
367,363,472,412,274,226,162,155,-943,84
125,102,248,267,274,274,53,-392,-1106,-142
-76,-141,-23,34,141,205,-302,-311,-351,-110
74,43,17,6,80,63,-229,221,204,104
158,265,89,56,139,36,-223,155,-7,-10
10,4,26,32,59,0,-227,147,83,51
-23,-94,-11,-3,41,64,33,170,48,142
-45,-119,-63,-80,-46,10,38,53,-60,102
-66,-111,-64,-105,-114,-126,-262,-373,-52,3
-158,-154,-62,-65,-31,-48,-180,-721,-332,-238
-24,-2,72,94,150,183,271,-428,-454,-187
127,159,131,184,227,312,589,25,-76,-18
-112,-147,-182,-108,-93,-34,152,-48,278,-43
-287,-390,-397,-406,-390,-403,-430,-295,316,-57
-290,-293,-320,-337,-315,-345,-416,28,42,-193
-26,53,14,0,-10,-9,79,524,-122,-101
129,186,223,166,134,118,229,-95,-19,116
106,52,125,71,52,-28,-127,-979,115,230
61,29,-60,-102,-82,-200,-273,355,998,321
-9,115,-209,-215,-97,-182,-42,1522,1286,100
-154,-84,-243,-231,-98,-52,357,2494,1083,-38
-250,-306,-248,-193,-120,-39,299,1553,370,-42
-248,-268,-198,-172,-160,-129,101,85,-399,-97
-63,-60,-28,-29,-38,-28,-7,-687,-741,-119
123,132,167,154,150,182,-94,-527,-471,-64
412,445,498,476,454,410,-128,-1329,-416,133
387,454,488,460,451,393,63,-1054,-508,129
97,140,268,236,255,272,166,-607,-547,-38
-165,-202,-95,-98,-33,13,58,-222,-155,-109
-184,-293,-258,-254,-217,-227,-198,-363,111,-15
24,-84,-32,-103,-113,-128,-59,-29,234,139
142,62,106,29,3,4,124,442,118,116
42,-16,-4,-65,-116,-146,-187,622,252,59
125,98,52,-34,-80,-111,-296,179,296,142
150,149,169,135,153,105,-137,-568,-369,4
59,73,185,199,231,165,60,-787,-716,-117
26,70,147,156,156,97,52,-617,-309,-31
-164,-106,-93,-35,-32,-62,-62,1,221,-101
-503,-473,-448,-388,-338,-317,-112,711,311,-330
-742,-717,-658,-629,-603,-591,-221,402,510,-455
-524,-482,-458,-429,-412,-446,-121,-441,815,-274
21,128,-114,-151,-97,-92,456,1041,741,17
610,791,341,258,331,304,697,1167,-78,266
688,765,550,523,565,502,177,-756,-702,326
457,409,456,473,444,374,-323,-1949,-742,250
295,251,318,322,264,155,-470,-2270,-652,182
22,8,78,72,31,2,-115,-950,-307,79
-165,-148,-72,-97,-132,-78,268,1439,476,37
-73,-64,-61,-90,-122,-98,229,1970,777,106
16,-5,-4,-22,-63,-62,-4,810,126,32
-2,-12,65,57,36,73,69,82,-625,-156
-118,-150,-105,-49,-44,24,222,723,-443,-147
-302,-366,-379,-299,-242,-109,468,1638,449,-26
-374,-425,-456,-420,-376,-249,282,906,509,-41
-325,-380,-502,-422,-459,-426,-275,-281,180,-91
-329,-341,-504,-426,-478,-488,-280,11,497,-64
-106,-98,-260,-287,-292,-274,19,641,971,193
-112,-154,-131,-137,-141,-134,-182,757,947,143
-8,-34,92,96,66,13,-344,-430,495,56
345,376,524,513,446,405,-123,-1638,-624,2
656,718,849,807,713,620,-150,-1981,-1328,111
585,548,629,566,468,343,-335,-1949,-1008,263
251,195,247,211,160,120,-209,-1488,-826,114
140,212,142,117,133,70,-120,-1219,-987,-117
149,259,54,33,43,-122,-248,-1116,-751,-142
-161,-184,-119,-74,-103,-186,-94,-40,-114,-203
-367,-369,-217,-165,-161,-159,249,1329,731,-260
-293,-317,-187,-140,-119,-36,593,2065,892,-163
-203,-336,-240,-243,-187,71,753,2772,814,-44
-92,-254,-179,-179,-144,168,758,2371,432,13
151,64,97,103,81,256,573,760,88,117
341,359,335,306,247,352,260,-897,-435,89
240,232,252,238,162,229,-24,-1052,-769,-37
-38,-69,-55,-102,-168,-132,-209,-345,-431,-121
-107,-192,-200,-292,-388,-379,-196,-91,470,34
-55,-142,-108,-137,-122,-143,-276,-1282,693,103
-2,-56,16,44,124,121,-75,-1367,101,-36
185,151,207,213,261,303,374,-79,-294,-2
206,274,132,105,157,145,15,549,12,89
123,326,-55,-92,-30,-173,-442,724,380,81
16,90,-142,-219,-218,-381,-578,130,409,77
-124,-187,-173,-235,-266,-370,-522,-566,307,-26
-403,-417,-315,-303,-270,-289,-284,425,-19,-401
-312,-362,-234,-229,-182,-141,-81,969,-129,-345
228,88,149,120,164,222,192,-141,-94,137
418,307,298,260,309,366,284,-678,-537,210
444,386,367,289,295,239,-44,-1526,-904,186
411,356,479,412,375,261,-162,-1891,-886,198
54,-32,182,193,225,245,224,497,-15,41
-227,-306,-152,-93,-21,84,221,827,87,-151
-228,-299,-199,-150,-84,34,145,-59,-301,-244
-152,-211,-115,-83,-47,60,280,51,-285,-151
-54,-103,-52,-44,-44,49,281,184,-30,59
9,-23,-79,-124,-158,-163,-66,195,614,209
12,11,-25,-53,-63,-93,-70,530,763,161
-23,4,33,49,51,63,116,788,233,-30
-32,12,45,56,66,73,79,570,161,-53
-103,-89,-38,-44,-29,-9,74,730,627,66
-181,-245,-201,-199,-186,-129,79,587,750,66
-167,-230,-202,-179,-160,-92,27,54,451,1
-9,24,-28,-34,-19,-59,-88,-127,14,8
177,404,69,39,81,-92,-216,-369,-432,-45
-212,37,-328,-281,-237,-464,-695,-514,-298,-340
-695,-639,-681,-593,-596,-806,-1137,-254,193,-497
-476,-526,-465,-407,-401,-437,-247,827,898,-209
231,156,202,186,188,308,741,396,708,272
578,548,540,496,419,422,248,-1647,-886,290
244,275,295,236,145,90,7,-1741,-1388,-13
-77,10,61,31,7,6,124,-692,-664,-185
178,150,267,289,318,408,396,-80,156,112
284,231,338,366,382,486,313,683,236,189
47,34,111,111,91,157,-119,487,259,-6
-174,-186,-122,-121,-164,-120,-261,549,531,-125
-176,-197,-136,-151,-218,-235,-364,-462,12,-122
16,-56,-22,-88,-190,-133,-6,-300,-455,36
165,97,53,-71,-175,-139,68,818,-91,197
112,139,13,-69,-94,-82,66,891,-162,86
-10,-83,-92,-102,-124,-165,-17,57,-326,65
213,102,76,84,103,-41,168,480,208,302
107,48,-41,122,270,278,330,1325,623,221
-113,-87,-138,48,222,297,136,384,0,-157
-149,-102,-91,-54,39,72,-135,-638,-367,-254
4,105,61,30,45,-14,-348,-1264,-493,-125
429,588,300,253,258,105,-317,-1139,-336,184
492,637,361,287,316,178,-86,-783,-54,345
58,78,123,93,101,72,-22,-420,-56,183
-56,-67,38,30,-6,-66,-237,-1195,-146,105
-116,-139,-45,-8,-31,-70,-196,-1326,-237,43
-194,-272,-268,-168,-156,-85,169,1134,225,15
-91,-230,-246,-145,-133,-41,303,1891,577,107
-40,-136,-155,-108,-117,-124,6,450,477,28
-109,-81,-35,-30,-24,-59,-61,-281,233,-140
-303,-249,-136,-33,20,31,-19,-79,-113,-348
-188,-134,-97,83,103,82,-133,-300,-400,-299
-111,-111,-27,7,-8,26,153,469,347,-132
-42,-110,-34,-104,-105,85,626,1982,1015,104
55,1,99,64,87,255,321,606,-220,-61
-25,-18,82,39,65,8,-362,-1416,-1176,-314
-33,75,-60,-84,-25,-272,-536,-1421,-561,-186
-9,168,-183,-134,-35,-199,-15,775,65,-50
-235,-233,-327,-324,-218,-150,458,2317,926,49
-214,-318,-211,-253,-194,-22,533,1856,822,120
112,57,153,89,101,198,265,-423,-117,167
164,166,263,174,153,124,-254,-1774,-768,-13
-44,1,80,-31,-78,-157,-443,-843,-803,-252
-165,-152,-96,-178,-213,-226,-217,175,-250,-293
-85,-148,-115,-201,-214,-191,-38,953,855,38
84,-22,70,-3,-21,-2,-8,-98,873,258
137,58,130,116,124,129,-62,-1202,90,119
-49,-119,-127,-55,-38,-8,-39,-636,-217,-86
-203,-279,-224,-204,-215,-180,-49,-82,-281,-157
-276,-314,-251,-296,-363,-484,-564,286,-302,-257
-228,-249,-210,-274,-363,-522,-622,596,143,-205
370,375,313,258,231,217,80,-604,-106,171
590,573,540,553,566,700,471,-912,-505,250
213,175,138,232,251,428,515,1007,207,101
143,106,153,136,128,242,487,1221,93,122
366,373,444,356,313,305,146,-1134,-707,229
383,416,452,372,307,230,-282,-2302,-838,273
128,181,278,223,164,73,-352,-2257,-570,109
-26,65,99,104,138,147,98,-767,-93,-32
-44,174,-40,-20,135,194,559,2219,498,-150
-105,60,-155,-129,-1,39,334,2030,467,-166
-297,-323,-351,-284,-258,-237,-54,1587,631,-168
-385,-459,-413,-361,-325,-260,173,2285,1050,-193
-177,-238,-183,-148,-117,-62,280,718,165,-126
-168,-180,-104,-77,-87,-112,-17,-922,-907,-227
-112,-111,-24,-11,-39,-66,-160,-1721,-654,-87
131,107,115,115,80,41,-281,-1498,212,236
131,118,143,177,163,140,-169,-498,552,229
-53,-20,52,93,111,125,42,-173,109,-65
-128,-106,-55,-44,-51,-26,248,501,-202,-148
-46,-38,-17,-43,-100,-86,241,993,36,1
-113,-101,-42,-125,-196,-172,110,1294,257,14
-274,-266,-204,-228,-286,-226,-36,738,152,-86
-291,-229,-272,-253,-300,-329,-428,-485,11,-182
-86,-49,-235,-241,-311,-452,-772,-900,72,-28
95,11,-9,-26,-111,-142,-170,-780,257,262
268,213,281,274,238,331,674,-597,102,290
291,255,324,319,257,327,609,-276,-463,117
363,355,381,422,360,366,46,-630,-899,45
371,361,338,361,311,348,-118,-667,-670,126
173,136,128,90,68,89,-136,-8,45,145
156,259,36,48,146,58,-42,593,334,94
-12,125,-156,-103,-12,-125,-144,545,166,-42
-283,-283,-254,-214,-225,-283,-343,14,-194,-164
-157,-167,-103,-69,-112,-175,-189,52,-81,-53
-212,-180,-103,-80,-98,-77,233,153,-30,-110
-414,-376,-304,-281,-256,-118,636,-123,-114,-271
-116,-184,-204,-191,-190,-61,409,-1145,228,106
223,187,86,143,93,76,-227,-911,209,305
263,309,281,290,206,131,-428,580,1,194
266,259,308,275,170,150,-220,528,-25,258
225,203,264,252,221,246,83,248,175,284
111,94,137,141,167,207,38,88,228,191
29,26,-6,57,87,154,-52,-151,-70,-34
-31,1,13,58,71,107,-57,-135,-273,-277
7,59,58,39,20,-9,-166,-69,66,-220
194,343,58,-24,-4,-116,-224,172,336,-18
175,424,-39,-116,-14,-75,67,1021,417,5
2,143,-111,-58,18,42,238,817,178,-23
-153,-88,-84,11,46,98,132,-297,-274,-164
-177,-160,9,37,42,63,-43,-1004,-390,-192
-145,-225,-47,-30,-89,-125,-231,-884,-235,-82
-182,-326,-176,-184,-234,-233,-37,390,262,-20
-315,-420,-354,-370,-367,-286,342,2101,1003,-61
-319,-398,-367,-383,-351,-221,447,1489,1122,-40
-211,-305,-259,-290,-312,-218,-7,-320,182,-52
-51,-129,-140,-153,-217,-174,-286,-1194,-584,-40
-106,-131,-157,-110,-159,-152,-361,-852,-872,-169
-33,-14,19,35,47,59,-390,-523,-764,-116
232,233,266,224,198,171,-403,-1366,-419,178
240,241,252,187,128,-15,-381,-1441,5,223
84,141,99,64,38,-125,-252,-198,-50,17
-286,-223,-160,-106,-72,-188,-285,629,-287,-329
-285,-235,-135,-37,-1,-94,-308,361,-219,-309
194,139,203,240,253,179,-215,-952,-125,145
335,241,260,246,232,269,52,-430,-119,258
91,9,23,45,50,162,155,1011,99,85
41,3,21,48,82,147,242,1164,208,59
95,197,124,113,155,140,381,845,260,72
139,397,60,41,47,2,521,1145,512,107
113,268,21,19,-21,-29,488,804,276,132
52,-1,27,43,-9,40,270,308,-177,97
-44,-152,-67,-4,40,134,-115,260,-14,90
-153,-207,-150,-89,-75,-14,-127,548,291,18
-113,-156,-133,-82,-118,-123,-154,179,243,-27
51,18,-28,-15,-60,-134,-390,-919,-57,38
-22,16,-174,-171,-220,-292,-411,-783,75,14
-271,-217,-358,-356,-384,-426,-231,243,734,-65
-337,-297,-302,-311,-303,-249,173,847,761,-134
-215,-183,-66,-97,-96,-29,261,-187,-142,-195
65,39,152,100,66,65,75,-957,-344,-10
131,-28,84,101,104,149,226,538,253,128
-17,-131,-9,80,115,194,296,1498,-42,-109
280,314,294,330,345,340,145,-140,-792,-97
440,471,354,351,329,260,-110,-1698,-994,93
227,163,182,190,139,115,-244,-1623,-861,55
-28,-70,-32,-19,-41,-24,-112,-801,-720,-108
-124,-140,-115,-116,-151,-129,-58,-411,-511,-136
-118,-157,-153,-153,-194,-168,-22,872,224,-2
-78,-139,-128,-119,-123,-123,-29,1178,803,115
-150,-136,-157,-140,-142,-197,-301,-25,409,-112
-224,6,-240,-222,-186,-306,-209,380,186,-331
-300,-153,-364,-357,-305,-330,269,1706,811,-226
-235,-311,-282,-239,-194,-122,356,341,925,-49
50,-16,63,141,158,197,388,402,453,105
322,263,290,406,406,474,565,698,-224,184
338,274,352,382,384,482,512,-91,-670,127
229,179,276,279,306,394,66,-344,-428,92
165,166,213,237,268,243,-537,-724,-366,28
18,16,32,40,38,-47,-608,-528,-182,-9
-125,-149,-141,-108,-116,-173,-424,-580,-216,-38
48,39,22,45,10,-36,-184,-1195,-344,103
200,173,194,171,109,131,113,-962,-202,248
-19,-60,-8,-19,-65,14,234,129,-3,58
-299,-381,-337,-335,-357,-232,443,1956,486,-30
-189,-267,-284,-320,-331,-267,346,1671,789,140
166,293,1,-48,-5,-40,181,368,249,73
321,574,228,164,231,149,-42,-571,-487,-119
17,146,103,80,67,-19,-359,-739,-459,-216
-230,-205,-145,-57,-78,-121,-214,1,182,-177
-120,-142,-184,9,44,92,208,42,273,-45
128,112,53,215,217,219,41,-1467,-423,40
215,219,221,230,154,-2,-595,-2832,-1174,58
254,242,185,78,-38,-256,-815,-2130,-693,221
18,-39,-94,-195,-277,-334,-316,636,607,222
-257,-313,-254,-292,-275,-160,380,2389,1304,61
-318,-306,-258,-258,-217,-116,407,1747,941,-107
-189,-193,-175,-177,-169,-117,221,860,641,-69
-333,-322,-299,-303,-315,-281,138,1731,1037,-132
-477,-492,-407,-430,-431,-426,5,1848,1110,-202
-74,-129,-13,-61,-42,-81,40,-182,-21,-6
255,293,352,331,308,143,-295,-2522,-1363,-101
305,320,385,355,270,136,-318,-3051,-1302,-107
246,191,253,174,137,151,175,-1299,-26,112
166,114,178,210,313,446,548,817,349,68
235,226,273,388,551,674,530,1452,-275,23
254,229,272,306,389,421,282,653,-616,81
85,59,80,71,88,115,209,656,-404,17
72,92,-23,-83,-57,-66,198,1197,109,-29
300,429,78,-11,44,-37,153,627,276,94
214,291,109,54,88,56,-19,-769,-71,154
-224,-253,-159,-152,-131,-92,-247,-745,-47,-31
-423,-466,-336,-300,-269,-195,-137,590,447,-145
-281,-309,-184,-150,-113,-23,169,1394,687,-69
-84,-119,-88,-18,-40,0,79,906,359,72
12,-49,-129,-76,-140,-228,-447,-640,-72,170
-34,-69,-226,-167,-235,-406,-841,-1603,-24,132
-6,-18,-19,-18,-87,-232,-759,-1843,-453,-43
164,176,187,181,137,120,-85,-725,-773,-99
88,74,99,66,67,136,178,553,-153,-57
-176,-240,-220,-259,-265,-190,-12,646,504,-1
-315,-441,-433,-459,-471,-379,67,86,237,-24
-105,-231,-285,-205,-215,-66,496,217,-216,20
298,315,300,331,383,407,448,116,-123,200
462,532,600,607,651,562,-17,-802,-435,205
305,320,415,420,427,381,-18,-785,-629,132
56,114,180,201,218,189,63,-311,-448,48
-75,14,67,79,113,94,61,60,-276,-53
-206,-119,-80,-75,-45,-57,107,799,-4,-103
-302,-176,-79,-92,-86,-97,160,793,15,-222
-184,-59,59,12,-24,-43,92,50,-38,-229
95,246,83,40,40,-95,-124,-617,9,-55
17,140,-113,-171,-144,-247,-80,-389,525,42
-294,-262,-277,-320,-353,-315,-86,-351,910,-21
-540,-589,-491,-420,-386,-232,64,797,1149,-214
-174,-295,-277,-122,-50,50,282,1119,811,51
176,60,68,139,180,253,189,722,-76,210
247,217,327,290,308,327,123,111,-853,31
259,274,359,328,338,291,99,-249,-791,-61
173,148,227,177,166,94,-149,139,-376,-49
127,18,89,1,-27,-63,-258,48,87,70
67,-57,-21,-83,-126,-161,-292,137,490,144
70,-12,23,-22,-80,-146,-310,52,508,211
9,-34,31,-13,-59,-115,-298,-544,-247,125
2,-34,10,-10,-48,-127,-416,-1051,-843,48
20,0,-79,-111,-137,-174,-232,-266,-333,70
104,272,-110,-204,-149,-141,117,860,367,60
124,412,34,-93,-15,0,435,1719,777,-4
63,202,200,130,137,142,242,507,465,-29
75,95,250,226,194,156,-174,-1679,-306,-67
10,35,165,121,71,-6,-412,-1837,-600,-120
-110,-121,-13,-87,-124,-164,-191,-76,-198,-43
-213,-266,-200,-261,-246,-157,313,1122,359,60
-178,-183,-165,-194,-156,-66,317,691,399,79
-93,-52,-3,18,50,55,-22,-376,-101,59
6,-26,10,139,175,193,-59,-1118,-340,87
61,-37,75,106,132,167,-114,-1240,-322,102
-104,-243,-143,-154,-136,-127,-130,635,489,76
-241,-321,-259,-211,-170,-118,96,1588,635,-108
-148,-154,-74,-29,4,19,50,363,-115,-274
-11,27,62,105,106,28,-142,-569,-818,-345
-58,6,-24,18,18,-119,-480,-558,-664,-333
-53,-38,-15,26,1,-147,-700,-1647,-255,-171
-55,-70,-2,-26,-46,-137,-347,-1353,299,-33
-215,-285,-249,-287,-276,-197,280,1119,900,-24
10,-20,-15,-44,-29,116,613,1902,533,63
178,258,249,216,252,454,899,2072,-205,-4
250,392,304,259,275,418,659,1012,-658,7
212,446,196,123,175,235,500,268,-341,28
193,471,66,57,115,99,330,32,15,24
110,137,-26,10,-35,-74,61,-73,107,133
-3,-185,-47,-10,-27,6,-119,-264,65,202
15,-120,39,68,111,124,-501,-941,-129,107
-83,-124,-22,-17,-30,-75,-608,-924,-132,-47
-314,-316,-236,-230,-278,-338,-596,-195,147,-229
-364,-380,-323,-323,-339,-376,-286,854,426,-333
-269,-273,-287,-274,-260,-248,62,714,184,-349
-224,-239,-178,-165,-192,-161,-56,-441,-328,-303
-240,-264,-194,-199,-230,-246,-205,-147,134,-125
11,-84,-57,-89,-110,-78,333,821,756,305
413,298,336,306,308,383,656,-424,323,551
325,252,340,338,387,469,186,-1696,-597,258
111,35,117,90,134,126,-177,-1023,-608,117
153,98,61,40,72,-9,-203,-141,27,196
174,133,142,121,156,119,94,835,389,188
103,47,123,111,158,176,149,599,103,60
128,54,133,113,133,124,-88,-603,-470,1
55,-22,21,-10,-23,-58,-298,-884,-429,-49
-91,-156,-153,-203,-248,-331,-510,-336,148,-48
-33,-77,-80,-139,-244,-368,-516,355,699,132
51,98,62,26,-5,11,256,1061,673,134
170,383,121,61,173,278,761,1097,-27,-113
218,408,143,75,210,200,276,410,-635,-231
10,5,-32,-97,-97,-153,-175,-3,-321,-112
-158,-210,-163,-184,-215,-181,-66,-26,16,-53
-301,-368,-380,-286,-242,-129,189,-16,344,-77
-463,-538,-587,-517,-480,-324,317,894,718,-129
-617,-532,-576,-591,-611,-536,150,940,551,-337
-317,-179,-212,-294,-331,-322,220,549,-229,-257
211,211,287,216,181,195,203,-216,-374,135
427,419,577,556,557,572,13,-844,-174,293
500,430,560,538,495,437,-340,-1451,-257,371
336,238,355,362,336,284,-395,-1905,-496,217
295,261,377,411,415,414,-149,-1800,-935,52
245,231,296,313,281,240,-146,-681,-621,73
77,144,85,109,92,17,-138,605,-95,22
163,432,138,99,169,14,-23,843,-25,-29
159,377,89,38,104,-79,-142,568,27,-56
-38,-48,-56,-76,-102,-220,-299,298,222,-5
-9,-88,-29,-67,-113,-122,-8,358,563,150
-50,-96,-54,-86,-72,19,324,470,469,95
-228,-195,-110,-125,-101,5,405,649,-79,-201
-192,-179,-96,-95,-90,-15,351,-1,-475,-195
-91,-102,-88,-80,-62,-39,132,-445,-145,66
-101,-165,-164,-81,-82,-128,-374,-1120,68,162
-134,-189,-165,-104,-147,-214,-499,-679,343,161
-48,-130,-123,-143,-220,-234,-278,-29,564,258
156,45,62,28,-12,60,282,736,634,339
63,-8,17,47,32,147,406,684,344,137
-112,-137,-83,-43,-65,12,291,239,-114,-120
-135,-136,-124,-78,-80,14,520,161,-331,-175
-108,-114,-124,-56,-36,73,503,87,-237,-124
-201,-216,-156,-89,-109,-43,-11,462,-12,-172
-358,-331,-261,-205,-248,-200,-306,1381,635,-238
-264,-250,-176,-140,-169,-162,-182,1358,843,-162
30,-8,58,58,12,-18,-160,60,324,64
191,142,210,191,155,104,-246,-1032,-774,106
163,162,256,239,248,174,-339,-1503,-1175,-54
229,366,226,184,204,59,-385,-1211,-881,-112
312,509,109,71,109,-55,-128,-570,-508,-93
196,227,25,47,61,40,119,-430,-405,-87
31,-75,-17,-39,-78,14,77,-232,-34,10
-16,-130,-40,-39,-75,28,83,86,465,111
-1,-58,42,69,38,127,130,9,357,43
-249,-260,-155,-155,-180,-97,33,471,290,-191
-557,-549,-513,-528,-521,-451,-42,1317,759,-334
-431,-431,-460,-489,-500,-492,-77,1095,1026,-177
-17,-47,-16,-33,-66,-125,-204,-824,-233,-67
286,260,315,304,266,222,-173,-1505,-1053,-12
500,462,537,535,512,520,39,-1262,-677,219
298,277,344,335,315,327,28,-154,-131,162
96,102,158,148,111,121,-46,385,-86,-16
76,84,131,124,96,183,288,852,-4,-32
32,75,20,83,96,203,407,1020,106,-34
-31,-41,-33,3,17,115,265,614,73,-43
32,0,36,16,34,132,170,-75,67,42
36,2,4,-51,-14,101,178,-243,142,103
0,-20,-30,-109,-101,7,263,-36,72,44
-64,-22,-7,-85,-131,-1,311,-58,-196,-110
-85,-40,-26,-116,-236,-147,-4,-121,-168,-132
13,68,-33,-108,-186,-357,-696,-33,627,95
189,309,-51,-110,-110,-469,-948,14,1551,309
42,109,-157,-172,-116,-312,-561,-298,732,100
-150,-200,-145,-93,-44,-41,24,306,-336,-149
23,-49,87,148,181,230,299,130,-369,6
94,21,170,222,242,271,213,-522,-279,167
-67,-93,63,113,147,194,140,-794,-292,8
-249,-237,-128,-80,-4,107,332,531,-78,-183
-99,-84,-79,-73,3,82,382,855,11,-89
37,4,37,29,63,93,290,185,-266,4
106,58,115,128,154,160,86,-797,-591,-44
99,52,92,129,178,154,-155,-829,-374,-34
-108,-153,-121,-107,-75,-91,-248,701,245,-26
-311,-354,-316,-330,-324,-366,-342,1168,144,-164
-357,-439,-451,-487,-482,-537,-349,659,-56,-151
-41,-97,-212,-263,-248,-289,-128,128,326,132
287,442,160,115,155,37,-93,9,573,172
305,419,359,346,380,331,-92,-1012,-262,68
123,87,125,186,188,179,-192,-1689,-625,79
28,-21,-94,64,42,65,-1,-1098,-606,28
91,79,-11,106,73,161,401,334,-205,57
130,65,53,101,60,155,422,539,-102,37
-10,-77,-42,-30,-51,-64,-180,-187,-221,-142
-142,-86,-176,-184,-146,-232,-569,-106,-97,-314
-180,-152,-191,-206,-216,-226,-163,679,274,-221
-16,-33,-10,-60,-92,-53,267,1006,620,108
-63,-77,-79,-77,-99,-88,51,402,341,135
-1,-6,35,103,66,76,-44,-328,3,198
-8,-41,31,111,74,94,-5,80,-293,107
-250,-301,-207,-179,-224,-177,46,1588,61,-95
-258,-268,-255,-272,-310,-338,-177,909,383,-111
160,177,94,61,-3,-162,-481,-1714,249,172
333,403,379,352,291,164,-286,-3249,-267,184
143,261,267,268,241,212,64,-1991,-382,-1
-110,-107,-101,-34,-42,43,490,734,83,-54
20,-62,-40,47,33,135,676,1667,238,114
90,49,124,147,130,239,600,1480,88,102
117,120,180,176,193,272,324,473,76,85
80,228,46,60,203,223,-142,137,278,12
85,324,-13,-12,116,82,-76,700,138,-21
-45,58,-15,-5,47,3,-191,601,-360,-113
-174,-191,-133,-110,-100,-152,-488,64,-18,-111
-170,-242,-193,-188,-167,-133,-191,265,515,-67
38,-32,19,-2,9,86,207,-130,140,-26
147,94,70,113,84,55,-51,-1134,-588,-11
135,106,-70,60,32,-57,-310,-1346,-458,34
59,40,-112,-27,-49,-148,-347,-598,30,77
-57,-91,-77,-59,-68,-113,-291,-248,-65,-1
-32,-32,43,50,98,96,25,-58,-273,-72
12,61,186,163,190,151,180,-46,-240,-68
-53,-24,52,62,61,18,195,133,-129,-87
-248,-267,-284,-220,-222,-245,36,760,41,-189
-148,-181,-179,-201,-194,-196,170,380,171,-12
284,282,232,184,166,133,271,-592,-29,271
122,150,195,155,128,40,-120,-587,-310,64
-368,-384,-305,-348,-344,-380,-161,1154,462,-125
-493,-564,-498,-517,-483,-369,413,2431,1245,-10
-277,-302,-258,-224,-159,12,629,1420,483,-64
-15,47,92,149,225,321,304,-229,-797,-254
105,192,256,249,284,288,-147,-445,-505,-118
174,317,267,239,263,204,-292,-488,219,35
390,624,301,233,273,145,-170,-191,615,162
409,558,305,279,285,192,98,-114,181,182
232,222,257,291,264,224,134,-639,-765,48
94,53,149,175,144,100,10,-862,-838,2
172,107,209,196,141,87,-133,-1444,-525,204
101,39,128,99,12,-102,-549,-2634,-471,242
-26,-59,-45,-71,-164,-336,-888,-3254,-440,147
-193,-194,-257,-264,-275,-344,-369,-739,65,-14
-390,-436,-362,-339,-231,-43,660,3013,825,-128
-266,-329,-209,-188,-60,169,1010,3436,1070,-62
-55,-124,-6,-27,25,141,755,1709,408,1
46,-21,59,31,-10,7,471,855,-11,0
67,8,76,58,0,-15,138,181,-83,-10
45,-6,60,27,-12,-24,-313,-730,-338,-26
-15,2,-44,-78,-63,-90,-627,-1024,-518,-135
-43,110,-135,-173,-134,-206,-358,-385,-185,-184
-105,-86,-153,-208,-240,-174,140,143,431,12
-28,-65,-9,-64,-88,135,564,821,640,162
38,10,51,26,27,232,390,1289,425,142
-54,-42,2,51,29,-41,-210,347,68,-17
-142,-118,-23,1,3,-258,-528,-458,-79,-109
-56,-137,-74,-76,-1,-231,-515,-770,-45,-28
193,162,76,40,111,-60,-285,-1272,-206,68
72,44,75,59,102,74,66,-673,-649,-141
-235,-267,-226,-191,-137,-20,300,826,-439,-305
-189,-236,-169,-186,-163,-77,191,680,214,-87
-44,-135,-102,-131,-189,-224,-295,43,665,144
-149,-241,-188,-209,-292,-348,-443,319,483,0
25,-50,34,61,65,56,-132,-738,-23,24
197,203,179,255,293,255,13,-592,-239,141
224,288,282,343,347,224,-181,-844,-442,122
272,295,320,365,335,191,-410,-1767,-638,181
212,218,264,251,223,110,-308,-1215,-296,166
28,21,82,89,66,63,-71,-367,4,49
-50,-75,-18,17,12,39,113,69,-67,-45
-88,-79,-4,61,62,49,79,-126,-129,-113
-142,-76,-21,63,84,60,140,-76,80,-146
2,168,-66,-76,-29,-32,464,1626,680,-5
198,379,-48,-86,-68,-18,485,1975,668,171
196,233,93,87,35,90,167,317,23,189
31,-33,38,-2,-29,114,305,-32,-191,103
-54,-140,-63,-79,-36,80,229,-82,-88,55
-114,-202,-110,-139,-84,-14,13,63,-141,-78
-136,-210,-147,-184,-194,-141,-126,256,-130,-166
72,66,65,15,-32,-17,-180,112,12,4
119,169,171,131,99,112,-109,138,74,107
-32,-2,39,22,21,40,-71,128,64,73
-118,-80,-35,-50,-52,-36,10,333,-7,-26
-193,-105,-48,-85,-81,-51,228,513,-71,-179
-323,-245,-157,-188,-169,-126,292,334,-85,-353
-290,-302,-215,-209,-173,-157,77,-340,25,-314
-6,-97,-47,-62,-85,-206,-271,-501,375,17
62,-46,-126,-169,-220,-376,-422,418,651,158
-205,-279,-313,-328,-354,-343,-214,1089,857,-15
-374,-378,-392,-380,-377,-341,-217,667,938,-205
-209,-168,-175,-178,-232,-340,-128,84,195,-217
290,299,321,272,126,-108,-33,-1184,-989,36
521,457,512,432,276,242,180,-1251,-1236,192
519,415,478,462,439,662,227,-622,-630,238
439,474,361,370,488,568,255,235,-230,173
441,727,299,292,473,389,74,128,-150,79
313,555,203,196,279,169,-62,-292,-242,70
160,210,142,75,12,-70,-286,-1185,-335,191
135,116,120,44,-64,-119,-271,-1831,-208,292
47,-57,4,-28,-91,-126,-301,-2000,-121,236
-245,-397,-302,-210,-94,7,-304,5,142,-22
-451,-556,-532,-336,-211,-72,-24,2622,650,-181
-569,-541,-519,-400,-322,-273,-147,2310,683,-300
-362,-338,-249,-200,-142,-104,26,909,289,-164
-9,-36,24,35,66,150,626,347,136,90
130,54,121,106,87,130,471,299,181,153
147,99,221,219,194,216,149,-190,-123,16
88,59,192,223,215,215,47,-631,-500,-134
78,57,113,195,214,225,124,-800,-562,-113
114,191,93,130,183,222,317,-126,-250,-42
132,267,25,-3,65,101,240,50,67,-26
-144,-155,-192,-185,-192,-131,-55,-131,179,-116
-542,-577,-540,-537,-556,-529,-431,518,867,-241
-616,-654,-636,-630,-621,-622,-426,1365,1662,-74
-311,-324,-314,-317,-339,-408,-492,-306,504,47
-166,-158,-123,-203,-309,-503,-965,-1768,-1122,-68
50,84,71,-39,-155,-308,-570,-1200,-848,-17
332,505,401,322,312,339,596,212,-132,-29
423,492,563,568,612,769,852,436,-518,1
392,371,477,516,538,570,81,-1005,-638,138
310,240,302,343,341,356,-83,-1172,-241,214
348,252,247,309,290,360,230,-22,-95,285
225,144,108,204,203,264,340,851,-66,241
48,-23,15,42,45,114,306,973,56,109
-38,-69,-71,-84,-87,10,359,1262,116,-51
-124,-85,-55,-117,-130,-43,349,1152,238,-116
-155,-118,-2,-48,-16,33,178,510,117,-187
-110,-155,-44,-46,13,66,164,131,-70,-191
-225,-289,-230,-184,-140,-94,40,389,-53,-197
-298,-345,-353,-325,-312,-354,-331,126,28,-131
-58,-75,-140,-134,-188,-330,-594,-966,126,147
43,0,-88,-104,-167,-308,-534,-629,865,377
34,166,-154,-154,-173,-311,-225,111,1407,330
-21,228,-196,-105,-99,-220,-42,-303,553,-31
-6,105,21,129,128,146,342,-581,-646,-315
-5,9,143,221,287,475,889,897,-602,-374
208,152,189,269,330,513,625,1021,-336,-85
283,164,101,166,156,176,-128,-536,-653,97
138,48,55,29,-1,-88,-392,-1325,-700,159
105,88,74,39,24,-73,-292,-733,-242,191
59,-35,-13,-47,-52,-94,-192,23,137,220
-14,-116,-25,-56,-82,-142,-365,-690,78,148
-109,-101,25,2,-25,-123,-389,-1124,-265,-135
-327,-263,-140,-169,-210,-340,-362,-446,-271,-358
-367,-357,-280,-320,-392,-498,-116,526,455,-213
-361,-385,-316,-324,-372,-290,202,675,702,-97
-350,-341,-293,-284,-279,-177,16,1132,287,-150
-243,-233,-237,-237,-183,-175,84,2010,624,-78
123,74,111,97,136,141,289,634,1166,238
294,285,345,333,375,386,264,-196,841,253
246,251,320,343,398,424,232,-294,-218,87
241,254,333,375,416,408,175,-448,-1129,-56
180,167,257,305,330,306,255,-143,-836,-34
48,13,108,158,192,219,468,610,-340,-69
1,117,30,31,74,35,242,776,-171,-138
148,401,59,-1,47,-85,-87,102,-182,-70
177,288,119,54,62,-41,-336,-987,-345,-4
-13,-38,17,-46,-61,-104,-269,-1014,-264,-74
-336,-376,-332,-341,-316,-238,108,647,273,-208
-480,-504,-549,-448,-390,-277,402,1730,490,-277
-217,-223,-249,-232,-211,-184,148,73,58,-132
268,262,287,212,186,128,-267,-1994,-399,155
361,307,326,271,225,100,-354,-1023,-256,239
154,19,88,48,2,-84,-263,-169,-65,193
23,-58,51,28,21,-12,-213,-766,-359,37
-165,-190,-131,-88,-67,-37,-165,-552,-420,-192
-75,-109,-44,-35,-15,29,26,66,-8,-74
103,25,22,46,35,63,267,950,595,201
134,39,0,-17,-71,-86,128,999,1189,385
241,329,183,74,72,16,63,645,979,318
311,559,322,213,245,164,-45,-68,157,124
69,184,207,168,148,117,-93,-573,-646,-68
41,104,164,129,47,28,-104,-808,-752,-55
109,136,137,68,-21,-26,60,-425,-420,88
39,79,71,48,75,81,31,-452,-238,57
-92,-44,-3,-16,17,27,-116,-563,-262,-39
-157,-102,-61,-85,-76,-66,12,36,-71,-66
-113,-17,-113,-169,-187,-182,165,629,224,-50
-158,-184,-146,-199,-297,-236,149,568,403,-1
-209,-229,-169,-157,-222,-167,103,214,367,-84
-238,-218,-135,-61,-3,61,16,360,81,-214
-75,-26,50,129,227,299,164,521,-166,-126
-27,104,179,267,334,403,229,-49,-569,-159
-147,-66,0,42,88,111,43,43,-326,-132
-152,-190,-262,-237,-238,-239,-71,750,338,145
-110,-194,-278,-223,-260,-216,-56,454,414,230
-14,-49,-50,-22,-68,-72,-222,-656,137,119
138,98,108,80,7,-116,-586,-1185,174,164
88,26,41,0,-71,-203,-557,-669,93,121
-201,-203,-201,-210,-234,-271,-280,-337,-408,-189
-307,-280,-259,-225,-237,-216,-74,431,-555,-289
-80,-39,-38,-65,-68,-81,0,995,-61,-71
126,262,-3,-67,-36,-83,20,664,202,-78
368,502,144,161,183,87,-108,-879,82,88
292,277,197,235,203,140,-345,-1916,-52,202
97,35,92,52,-29,-147,-826,-3015,-316,59
-245,-235,-184,-192,-263,-343,-852,-2548,-243,-259
-233,-164,-67,-66,-56,-21,12,379,160,-233
-70,-43,83,94,150,289,851,3223,446,-61
25,44,94,91,121,238,775,2166,-31,-52
-73,-110,-115,-125,-175,-170,293,484,-363,-47
-176,-247,-253,-317,-442,-636,-2,533,-99,-33
-144,-200,-187,-210,-252,-301,174,1548,520,36
120,50,87,92,119,420,610,1567,498,227
277,218,222,342,429,738,272,108,112,258
246,193,174,349,390,472,-72,-1177,-221,164
76,59,47,144,169,194,-135,-1174,-393,-9
-206,-199,-159,-160,-106,-64,-28,419,-133,-219
-294,-359,-259,-284,-218,-140,169,2343,789,-51
-16,-102,-39,-94,-51,-45,29,973,847,298
278,229,272,193,187,112,-233,-1364,3,370
382,377,404,295,273,194,-227,-1530,-395,278
256,224,256,202,195,172,4,-349,-259,93
92,97,120,114,116,111,96,-147,-145,-86
-122,42,-88,-71,-15,-57,13,-707,-174,-287
-187,116,-168,-148,-31,-88,69,-400,-151,-308
-125,6,-100,-82,-17,-8,116,753,341,-68
-47,-38,29,-2,-5,35,0,410,524,98
57,46,113,84,70,130,104,-356,91,68
-33,-31,84,77,83,176,172,-488,-429,-176
-183,-193,-55,-24,-12,60,105,261,-539,-351
-160,-209,-106,-75,-42,-7,114,820,-349,-261
-129,-166,-102,-83,-50,-76,-2,190,-295,-229
26,34,98,117,119,113,-45,-943,-656,-167
100,154,149,117,89,157,0,-1137,-683,-51
43,75,74,-19,-95,-47,-172,-554,67,104
12,-6,52,-13,-95,-82,-226,223,325,144
94,12,60,88,32,57,-18,415,206,232
196,98,103,168,125,63,-244,-1010,-58,287
245,297,94,91,90,-35,-120,-1152,-95,198
54,125,-137,-165,-124,-170,238,677,178,-7
-176,-299,-292,-295,-318,-294,138,1889,467,-89
-131,-266,-208,-199,-228,-211,-10,1205,540,-26
-101,-186,-188,-131,-151,-145,0,803,784,64
-334,-405,-412,-324,-326,-264,171,1551,1342,3
-477,-536,-505,-425,-406,-288,407,1561,1283,-92
-191,-180,-302,-198,-182,-112,366,95,135,-82
195,250,46,50,44,51,212,-990,-641,57
300,234,146,105,-17,-64,-517,-2163,-864,218
392,339,300,194,18,-161,-1132,-3128,-892,286
433,458,506,422,325,139,-524,-2044,-693,101
205,232,348,356,397,462,603,641,-90,-81
-33,-56,89,162,295,498,660,1409,66,-160
-86,-108,24,41,122,198,-39,594,-142,-178
-10,-3,55,25,60,50,-205,602,84,-39
36,-5,35,26,28,19,9,704,313,112
-13,-32,-11,0,-18,-15,338,345,168,81
-166,-172,-188,-164,-160,-103,536,594,220,-43
-256,-269,-243,-230,-210,-120,486,337,-65,-179
-229,-270,-188,-135,-134,-103,-33,-484,-576,-244
-149,-233,-177,-107,-138,-134,-358,86,-500,-153
21,-68,-162,-142,-150,-145,-234,523,130,61
540,593,197,161,185,103,-97,-617,396,322
512,636,367,311,324,215,-127,-938,-12,138
139,221,300,288,301,314,158,-255,-472,-208
72,137,270,288,301,325,207,-250,-727,-346
41,-2,56,53,1,-38,-258,-418,-161,-124
-185,-305,-310,-325,-416,-478,-584,39,613,44
-152,-233,-277,-295,-358,-400,-355,507,699,136
33,74,-18,-61,-110,-149,-319,-482,40,98
-95,-16,-28,-80,-162,-201,-410,-1317,-63,8
-136,-107,-64,-105,-204,-208,-147,-411,338,78
-17,-100,-16,-30,-93,6,238,323,511,173
24,27,187,235,238,277,78,-252,-372,-48
31,129,277,316,308,213,-261,-958,-884,-178
-15,8,61,90,101,91,80,281,-211,-95
-38,5,8,68,123,189,324,1153,211,-21
26,69,96,144,183,228,224,967,162,62
161,81,124,139,143,153,46,255,-41,150
193,133,153,112,89,24,-107,-170,-129,77
50,21,5,15,-10,-36,-73,2,-166,-26
-90,-145,-279,-144,-131,-79,-74,-31,-63,-4
-335,-381,-471,-364,-376,-469,-742,-1027,103,-69
-660,-673,-652,-635,-712,-925,-1196,-1244,362,-272
-375,-289,-433,-496,-507,-657,-442,125,745,-178
345,477,160,76,143,176,757,1406,676,145
412,418,347,314,410,603,1024,1707,243,161
377,332,390,380,382,503,414,252,-361,163
355,327,331,338,269,332,192,-610,-680,125
163,173,188,232,192,324,464,-40,-532,6
-25,-15,66,79,96,293,635,770,-181,-89
-177,-141,-113,-80,27,178,410,1090,202,-180
-270,-221,-231,-223,-127,-87,5,902,553,-178
-192,-211,-158,-211,-179,-179,-154,466,560,-22
-7,-56,-42,-38,-49,-81,-231,-403,91,106
-33,-64,-126,-15,-41,-96,-340,-1052,-580,-26
-20,-67,-77,-67,-109,-170,-395,-585,-102,86
84,82,144,81,17,-96,-336,-600,93,176
146,202,266,208,165,90,-19,-390,-366,69
304,489,285,227,236,136,144,185,-320,66
207,416,228,198,240,118,23,-207,-111,-13
12,59,161,163,174,108,-148,-1121,-264,-90
-55,-97,-24,-19,-44,-90,-262,-1425,-89,-37
-253,-317,-255,-260,-288,-252,-102,-392,102,-154
-261,-317,-208,-214,-212,-89,343,1333,247,-159
-88,-106,40,6,39,186,561,1683,89,-48
-43,-26,41,-11,41,145,342,1470,51,-47
-17,24,11,2,20,68,179,1102,225,-11
-87,-102,1,33,33,104,181,416,140,-25
-191,-157,-49,-18,32,151,241,133,-305,-164
-191,-144,-76,-50,-46,21,22,-107,-457,-185
-205,-251,-240,-198,-165,-160,-28,184,133,-55
-211,-297,-346,-300,-188,-224,-39,351,406,7
-256,-304,-414,-385,-310,-383,-271,80,203,-35
-161,-145,-236,-305,-321,-461,-533,-745,52,33
129,105,91,-20,-123,-321,-827,-2726,-139,269
357,324,339,214,62,-119,-466,-3082,-442,354
322,352,394,289,157,82,247,-1414,-359,298
50,111,154,120,11,-70,119,-380,27,97
-20,45,49,162,164,154,-74,188,114,33
217,276,234,363,410,470,92,1342,131,213
332,441,318,333,372,413,279,1338,60,221
172,443,109,93,251,284,541,1143,148,-13
-43,123,-78,-59,106,181,582,1280,555,-86
-179,-231,-170,-130,-53,60,408,1809,766,-50
-229,-297,-189,-138,-78,10,237,1955,287,-151
-212,-237,-162,-85,-56,-19,74,1203,-307,-242
-310,-303,-245,-177,-162,-118,34,1038,-13,-317
-359,-356,-300,-297,-300,-277,-151,225,143,-305
-321,-336,-357,-402,-455,-550,-636,-1450,-326,-243
-497,-581,-590,-636,-723,-893,-944,-1535,-176,-230
-357,-474,-546,-527,-597,-709,-459,-366,1418,194
151,56,47,11,4,24,210,-347,1578,566
325,319,359,303,343,382,60,-1592,-182,304
409,449,469,436,464,472,-58,-1847,-1138,148
348,399,377,392,401,391,265,101,-632,184
19,58,58,85,89,40,96,551,-269,-40
78,78,142,107,102,53,49,-321,-335,-78
162,149,266,263,306,360,398,384,-148,-50
-27,14,163,216,310,364,216,958,-277,-245
-100,-21,29,94,98,-18,-521,-408,-913,-365
-8,41,5,42,5,-51,-203,-537,-682,-185
4,5,-3,-58,-48,101,548,306,406,79
-113,-163,-183,-240,-201,-23,528,642,887,87
115,199,-14,-28,31,104,532,616,233,46
541,665,385,364,395,360,406,-108,-348,235
454,391,354,329,271,303,-48,-471,-261,325
373,188,271,247,162,209,-301,-830,-227,378
186,37,153,123,82,-6,-441,-1088,-365,154
-146,-234,-122,-158,-203,-368,-670,-1036,-513,-264
-356,-392,-306,-365,-424,-586,-818,-603,-653,-530
-404,-425,-419,-448,-487,-556,-457,-42,19,-412
-153,-186,-170,-199,-222,-201,-16,-370,871,-31
-41,-156,-100,-127,-191,-148,20,0,1499,188
-88,-216,-149,-149,-212,-172,123,890,842,54
9,-51,20,52,42,139,565,1748,247,58
135,81,166,208,239,399,771,1355,-32,128
63,-12,90,153,215,365,577,1288,-152,72
177,134,188,257,290,333,180,10,-821,13
298,351,265,295,325,268,7,-581,-715,-2
153,134,146,146,143,129,-70,-546,-88,88
62,56,110,97,74,62,-183,-1090,-179,68
66,133,174,155,92,41,-214,-1359,-570,-41
95,151,198,163,112,125,111,-425,-445,-51
14,0,70,55,19,97,243,280,-128,-15
-131,-122,-134,-70,-98,-78,-138,-203,-78,-80
-71,2,-255,-131,-126,-196,-467,-1203,-237,-96
156,254,-88,-102,-96,-222,-435,-1429,-180,-5
38,-8,-66,-96,-129,-183,-136,-183,67,-27
-31,-106,-43,-10,-3,59,253,710,272,-28
-25,-72,-75,47,68,148,396,805,121,0
-12,-106,-111,-5,-6,49,265,782,1,69
-35,-112,-29,4,1,28,50,373,-62,32
-218,-257,-187,-145,-107,-69,-2,863,767,-57
-299,-277,-297,-265,-194,-194,-190,959,1067,-152
-235,-214,-275,-249,-219,-267,-378,264,347,-94
-171,-66,-84,-95,-110,-189,-307,-347,-583,-146
-191,-122,-35,-81,-111,-192,-349,-1028,-611,-178
-87,-146,-41,-22,-37,-63,-55,-793,21,-11
73,-42,76,123,153,252,559,409,203,83
161,8,120,119,158,297,570,711,0,79
207,179,61,59,111,153,163,499,-15,115
211,418,40,-37,19,-63,-59,257,-42,92
103,263,44,-59,-62,-81,146,394,-22,63
56,49,116,32,-36,-17,223,144,30,105
35,2,92,40,-27,-61,72,139,23,82
-84,-104,-20,-44,-37,-51,-136,-222,-48,-19
-177,-180,-92,-72,31,102,-180,-931,-146,-110
-146,-155,-126,-125,-91,-47,-104,-805,-38,-73
-2,-7,-83,-121,-132,-132,47,-313,195,32
192,134,110,19,-33,-46,89,-305,94,127
222,183,234,180,174,103,-9,-382,-339,109
72,63,158,193,248,166,-167,78,-376,41
26,-16,40,91,92,-41,-434,34,-132,70
34,-27,-5,19,-6,-142,-461,-326,-36,92
-12,-17,1,-11,-42,-125,-342,-863,-185,55
-35,-8,-46,-42,-56,-81,-128,-19,88,52
-40,-37,-71,-35,-27,-2,62,418,343,67
-171,-189,-241,-226,-216,-176,75,142,676,81
-320,-305,-339,-327,-309,-235,227,581,938,-1
-344,-298,-281,-191,-169,-77,368,1497,590,-153
-124,-120,-21,50,55,118,215,878,-3,-100
77,28,131,155,159,151,-114,-416,-261,31
89,49,71,59,52,-52,-215,-433,-317,4
210,366,90,1,-1,-350,-109,270,-261,-35
270,484,115,-3,-42,-385,-98,120,-93,98
56,118,22,41,13,53,-174,-1024,-195,58
-81,-51,-43,116,185,439,-128,-1106,-478,-99
-11,0,-13,122,172,381,361,1069,-244,-46
-39,-47,-17,17,33,204,330,1848,43,-26
-228,-235,-160,-180,-190,-108,17,1627,79,-177
-415,-425,-433,-430,-425,-412,-221,1524,530,-241
-338,-428,-394,-427,-437,-473,-298,525,1189,13
13,-75,22,-21,-21,-55,-213,-952,783,223
259,237,375,366,389,411,-234,-1442,-330,128
254,230,392,353,368,364,-232,-624,-547,52
255,225,344,282,277,293,27,-548,-478,86
193,188,258,194,173,202,89,-1293,-768,14
3,13,-14,-85,-121,-116,-132,-903,-338,-30
-186,-106,-259,-329,-336,-375,-145,811,365,-89
-320,-297,-247,-305,-314,-281,-14,863,235,-239
-311,-308,-209,-304,-371,-320,-20,289,-76,-331
-236,-297,-258,-339,-447,-323,328,1274,474,-155
120,2,-19,12,-8,174,662,1496,776,190
439,335,269,445,519,627,125,-223,154,453
416,394,396,484,519,501,-169,-618,-401,351
335,361,255,244,301,277,112,217,-177,246
284,335,101,49,108,55,164,147,110,205
130,100,116,67,30,27,88,-633,-190,121
38,3,100,59,3,32,-17,-1120,-387,-9
-32,-80,43,22,13,3,-258,-1343,-432,-92
-37,-70,62,59,77,48,-145,-371,-313,-88
-8,-9,84,88,99,84,66,478,-285,-76
-84,-58,5,2,13,-34,-42,255,-143,-141
-110,-69,-81,-34,-22,-84,18,-143,-74,-197
-201,-161,-243,-98,-113,-205,-100,-529,-421,-283
-430,-400,-487,-382,-459,-571,-512,-403,-91,-326
-410,-430,-400,-453,-566,-632,-658,-12,1142,-73
-104,-156,-39,-94,-63,25,204,959,1470,134
159,145,281,295,438,569,747,673,109,38
256,299,393,399,499,548,454,-817,-1333,-98
189,369,236,231,317,286,374,17,-1016,-142
296,530,97,73,137,54,243,914,-300,78
178,190,-44,-111,-92,-123,18,1082,595,302
-17,-159,-144,-186,-176,-122,-14,1062,1082,262
-18,-86,-7,-57,-50,-19,-24,466,231,-4
-30,-14,116,46,40,25,-161,-847,-704,-175
-175,-125,15,-69,-114,-162,-343,-1006,-642,-287
-200,-159,-65,-102,-152,-251,-535,-869,-92,-204
-66,-55,-42,-16,-29,-41,-73,-343,486,90
-77,-183,-174,-96,-56,111,544,896,456,174
-53,-175,-52,-43,-14,104,366,402,-361,46
19,-68,72,44,25,30,74,-819,-706,-51
98,48,112,99,77,36,-19,-915,-226,-23
54,21,23,59,62,6,-83,294,293,-72
-26,-50,-10,-13,-21,-47,-198,586,435,-59
-36,-43,-64,-100,-110,-91,-88,421,277,-40
-114,-141,-124,-161,-171,-67,263,1126,378,-55
-197,-235,-162,-205,-206,-72,276,1504,459,-65
-25,-64,16,-29,-33,-32,-57,790,288,16
95,103,201,192,166,55,-383,-998,-398,-41
69,82,174,173,155,5,-471,-1653,-445,-52
150,121,140,117,107,45,-130,-1092,4,167
304,252,160,83,94,95,168,-864,148,326
424,607,248,137,195,66,-120,-1394,-460,44
295,551,153,49,49,-146,-435,-1039,-560,-176
46,102,-49,-89,-118,-208,-231,-359,-268,-91
0,-12,-48,-52,-41,-35,101,-155,-45,21
29,27,54,71,76,70,118,-689,34,24
-12,4,-10,74,34,-75,-145,-397,439,-7
-165,-193,-229,-137,-232,-389,-387,985,860,-9
-325,-354,-370,-338,-384,-386,187,3153,779,-108
-292,-301,-265,-252,-212,-62,615,2710,247,-117
-91,-142,-153,-88,-30,99,457,1005,318,87
-25,-72,-65,-6,45,129,311,280,288,123
125,170,270,289,319,334,67,-1024,-734,0
381,438,479,485,483,479,104,-1158,-1076,118
286,311,243,243,239,225,46,-445,-500,184
178,247,140,80,52,-50,-209,-303,-169,143
106,243,122,65,79,-43,-161,18,75,73
-185,-156,-167,-93,-36,23,214,645,362,6
-278,-299,-307,-207,-151,-46,198,582,616,-3
-221,-162,-103,-68,-69,-59,11,36,214,-49
-78,-22,153,149,115,89,64,-545,-555,-86
64,-49,102,159,150,120,-22,-1133,-867,-57
89,-10,68,99,68,-36,-373,-1792,-559,54
82,158,28,20,0,-141,-328,-1149,-255,28
-31,77,-126,-144,-119,-171,109,518,118,-91
-153,-230,-211,-194,-201,-155,243,894,234,-34
-216,-269,-240,-118,-37,-31,-39,375,6,-98
-188,-179,-140,-8,86,77,-67,82,-76,-157
-94,-78,-9,53,87,34,-90,-428,33,-78
63,85,127,152,119,-10,-375,-1295,-158,38
159,175,161,155,107,-24,-359,-1416,-415,48
37,25,-42,-59,-86,-128,-135,-396,-5,28
-56,-131,-126,-127,-151,-109,123,547,684,140
-50,-96,-54,-41,-54,-15,234,346,336,75
-151,-152,-115,-69,-76,-28,159,407,-287,-174
-227,-226,-226,-178,-170,-61,354,1439,182,-205
-130,-148,-145,-132,-122,70,779,1313,739,-24
69,57,51,62,50,240,808,467,231,57
163,375,205,224,270,307,451,168,-255,-81
132,546,248,265,354,274,217,-210,-712,-318
-118,40,-66,-57,-27,-49,5,240,-105,-236
-165,-334,-261,-265,-303,-301,-258,920,1196,236
-40,-219,-123,-115,-179,-162,-21,894,1287,422
126,-23,65,99,52,36,-52,-226,-113,242
138,16,76,108,60,-3,-248,-770,-626,123
77,30,73,53,3,-93,-294,-570,-343,61
-33,-29,-20,-50,-104,-246,-433,-159,9,-7
-151,-131,-69,-76,-115,-250,-463,-308,88,-91
-236,-224,-152,-94,-78,-139,-155,-122,269,-136
-440,-439,-397,-279,-228,-189,7,94,197,-285
-516,-530,-484,-436,-418,-436,-274,-92,-142,-346
-129,-219,-215,-237,-272,-327,-234,-911,-204,58
140,49,28,-17,-48,-22,-288,-1812,11,343
412,431,370,308,312,336,-105,-1665,-248,342
518,568,603,544,557,562,271,-303,-670,206
267,352,419,387,397,376,180,268,-811,-114
-65,18,77,67,83,51,-15,-15,-277,-265
-131,-80,-27,-63,-113,-265,-335,21,241,-136
31,9,4,-59,-208,-463,-271,575,488,145
387,341,238,166,-22,-247,514,425,146,414
340,356,172,157,114,168,898,635,-177,328
101,325,-35,23,213,490,443,1651,10,-8
-114,118,-121,-84,184,339,-171,1258,-35,-272
-184,-107,-98,-69,59,72,-187,639,-92,-237
-29,-29,-2,14,37,75,0,805,287,-2
5,-43,-60,-56,-50,7,87,974,916,138
-59,-101,-110,-111,-113,-41,81,490,964,151
-94,-188,-212,-151,-146,-81,-105,-149,221,39
-13,-100,-169,-66,-31,-2,-162,-407,-486,-62
111,32,76,53,49,28,-276,-406,-478,84
-55,-95,-26,-71,-97,-104,-238,158,-20,84
-68,-108,-8,-42,-66,-37,-22,397,390,129
20,-33,1,50,45,78,-5,-440,340,207
82,41,30,153,187,220,61,-1564,-598,102
157,169,258,297,319,323,139,-1898,-1428,-106
105,184,212,181,209,162,89,-742,-1042,-226
53,128,65,5,26,-43,-10,583,-187,-158
-75,-122,-58,-94,-106,-129,-132,268,211,-71
-195,-253,-220,-218,-254,-307,-556,-1500,121,-34
-272,-347,-343,-343,-391,-444,-543,-1277,369,-47
-201,-258,-251,-270,-276,-226,75,1215,895,-40
-37,-21,-8,-26,-7,114,571,2333,440,-80
134,223,213,221,224,295,324,496,-357,-59
192,426,163,191,231,157,-119,-628,-398,-66
-31,196,-1,12,45,-79,-403,-365,-146,-174
-177,-186,-90,-84,-135,-220,-446,-107,-35,-112
133,32,119,73,0,-65,-283,-968,-191,108
366,242,260,212,128,168,216,-667,-242,259
209,174,139,99,37,132,486,637,165,218
3,45,-25,-18,-53,-31,102,178,-162,6
-19,117,65,36,19,11,-55,-65,-435,-108
-102,-7,-2,-45,-35,14,204,922,52,-12
-83,-141,-49,-79,-100,17,375,1363,682,193
47,-98,-3,-24,-55,24,238,1055,995,339
104,-41,31,10,-21,24,200,428,677,301
84,-21,62,70,61,130,273,-161,177,94
20,-49,52,89,114,172,219,-132,-52,-75
1,-2,86,90,108,95,-5,-530,-365,-157
154,238,118,58,116,34,-85,-373,-168,-111
149,277,9,-54,17,-90,-161,217,514,-78
-79,-42,-72,-75,-46,-90,-115,-215,433,-117
-137,-119,-62,30,40,12,-108,-1385,-465,-249
-155,-125,-76,7,-12,-50,-240,-2010,-778,-296
-501,-480,-411,-399,-434,-471,-435,-774,-467,-434
-883,-826,-761,-776,-813,-863,-416,1701,-62,-580
-832,-777,-757,-782,-810,-802,10,2682,401,-424
-299,-373,-412,-436,-438,-312,415,986,733,22
355,234,228,260,271,378,300,-622,806,416
782,728,792,768,739,710,160,-635,200,568
829,816,860,805,724,654,-161,-1412,-772,482
595,575,622,554,443,373,-299,-1429,-1039,275
284,269,334,266,212,243,113,-9,-653,55
6,18,67,89,110,196,256,736,-158,-76
-58,-42,-91,-31,22,72,15,404,163,-26
-13,-34,-16,-3,39,65,-60,-43,82,2
-1,36,64,92,122,136,-43,-288,-370,-117
-51,63,82,97,89,82,-115,-370,-390,-120
-102,2,50,8,-62,-93,-236,-267,-207,-61
-158,-173,-112,-174,-276,-273,-178,192,70,-9
-156,-225,-198,-260,-330,-269,79,813,390,6
-55,-33,-135,-170,-165,-100,282,762,431,35
116,307,-3,-53,8,33,425,769,372,74
67,162,-77,-129,-64,-53,145,419,331,53
-8,-74,-72,-93,-84,-86,-262,-450,196,12
44,-16,47,17,-12,1,-210,-969,-256,-43
-48,-86,-35,-64,-80,-38,-60,-582,-382,-82
-3,-64,-20,-40,-60,17,93,-16,155,72
81,40,75,63,51,91,20,-585,54,54
54,51,53,62,79,100,-101,-1456,-280,-34
-71,-120,-63,-32,-30,8,-117,-1266,-164,-12
-220,-295,-249,-191,-207,-152,-114,373,343,-60
-440,-498,-458,-385,-380,-304,-70,2233,730,-218
-569,-612,-571,-551,-548,-533,-305,2226,674,-298
-492,-506,-453,-459,-435,-407,-70,1650,378,-331
-95,-75,4,19,29,95,322,630,105,-156
494,561,510,485,479,470,312,-741,-159,257
752,836,757,712,634,450,-386,-2820,-878,338
485,471,555,512,394,261,-471,-2611,-759,177
123,67,113,105,97,143,106,-39,-78,24
-22,-128,-70,-83,-30,30,154,1302,254,75
42,-74,-23,-39,-32,-39,-163,368,-139,83
157,84,64,80,52,8,-173,-341,-148,172
237,210,62,126,107,20,-254,-1059,169,298
162,314,14,24,96,-35,-247,-1055,-38,29
-108,48,-97,-81,62,109,426,1063,-316,-393
-264,-235,-150,-81,26,187,745,2069,-81,-342
-355,-415,-363,-310,-246,-108,439,1720,513,-94
-442,-508,-453,-435,-390,-284,154,1343,292,-153
-357,-379,-303,-288,-264,-212,-35,644,144,-127
-3,-77,-26,-24,-37,-29,-80,-675,37,131
147,85,63,82,92,29,-291,-1590,-125,108
-152,-135,-170,-159,-169,-325,-738,-1163,-38,-197
-378,-372,-388,-428,-464,-573,-532,509,208,-277
-81,-88,-169,-194,-188,-114,402,1853,379,74
353,359,304,271,297,416,584,391,-232,339
427,426,470,415,434,484,149,-639,-362,301
357,313,418,369,373,360,-90,-672,-37,229
377,313,394,353,384,373,69,-536,-170,98
427,502,340,286,382,338,289,-120,-373,-64
380,547,302,244,336,277,379,75,-337,-64
124,147,168,117,118,101,169,-197,-220,-8
-65,-181,-64,-79,-144,-130,-300,-767,-34,20
-178,-259,-197,-208,-321,-365,-784,-1865,14,-33
-217,-236,-157,-150,-249,-472,-994,-2484,-194,-98
-299,-302,-195,-176,-264,-513,-531,-588,7,-116
-279,-336,-326,-346,-440,-527,16,1108,423,-21
-7,-167,-183,-223,-248,-12,779,1280,464,214
244,122,217,193,157,400,1069,1652,397,277
100,114,200,321,369,564,879,2561,139,-44
-4,41,33,247,365,535,367,1038,-117,-143
-7,34,31,79,114,133,-295,-1151,-155,-51
-104,-63,-109,-111,-123,-202,-586,-815,-80,-89
-120,-87,-235,-161,-185,-252,-340,1381,277,-69
43,79,-49,-31,-22,14,201,1568,425,70
237,246,241,256,247,295,233,-490,-271,104
226,211,176,271,276,309,70,-1102,-618,22
15,-26,-7,68,120,202,178,-577,-396,-51
-303,-332,-227,-215,-178,-107,6,-623,-194,-199
-351,-399,-359,-400,-437,-473,-354,-751,221,-98
-18,-86,-132,-186,-250,-317,-267,-439,639,227
224,276,203,109,148,146,90,-557,114,137
232,402,187,73,199,238,268,487,-163,-60
88,166,68,4,104,167,324,1935,269,-31
-93,-145,-30,-68,-25,2,61,1174,175,7
-145,-204,-82,-107,-119,-116,-115,504,121,45
-185,-202,-65,-85,-125,-115,-55,467,123,-43
-38,-10,142,118,76,103,155,-77,-156,-65
40,100,229,195,176,206,194,-366,-314,-140
45,137,173,144,155,161,-156,-1099,-475,-191
7,47,74,49,-9,-89,-661,-2101,-627,-72
66,21,-15,-52,-157,-296,-811,-2309,-359,129
103,65,25,0,-47,-104,-193,-674,206,147
-30,0,42,43,43,88,318,1341,454,-25
-102,-105,-68,-74,-73,-37,177,1669,467,-3
-262,-325,-315,-322,-296,-253,56,1467,872,15
-437,-424,-506,-524,-456,-408,55,1809,1535,-32
-341,-335,-418,-446,-409,-362,119,1342,1274,46
110,80,141,164,154,214,312,-405,-304,160
410,441,533,579,565,549,132,-1575,-1353,114
306,372,456,494,494,461,-31,-1452,-1163,9
160,210,271,276,250,243,-67,-930,-708,-22
62,119,134,106,63,81,3,-388,-434,-53
40,153,85,64,48,42,4,-351,-386,-91
148,443,200,195,234,180,194,-479,-487,-125
41,220,153,142,171,111,102,-805,-541,-111
-199,-246,-171,-177,-176,-225,-212,-526,-308,-111
-200,-297,-228,-281,-312,-402,-396,-233,263,41
103,-19,24,-90,-154,-248,-463,-1489,487,365
6,-125,-135,-220,-288,-401,-819,-1972,281,200
-268,-334,-339,-376,-437,-596,-954,-1026,182,-109
-34,15,18,-32,-57,-205,-347,137,-7,-57
64,105,195,197,209,338,882,1432,-160,-48
79,44,157,221,272,642,1609,2327,-17,24
-66,-144,-86,-8,64,294,835,2032,360,20
-255,-330,-266,-213,-149,-79,194,1383,633,-1
-169,-223,-151,-131,-101,-62,188,1028,313,29
88,49,107,98,90,72,0,140,-118,114
297,271,257,217,168,75,-362,-844,-206,182
338,502,238,178,199,58,-296,-1079,-215,7
183,363,67,32,119,41,-15,-497,-137,-177
-32,-39,-52,-45,-18,-27,30,380,5,-178
-137,-240,-159,-135,-138,-114,-51,533,66,-116
-184,-308,-278,-237,-275,-265,-212,-30,128,-60
-148,-204,-234,-194,-276,-293,-296,-722,104,3
-21,-9,0,-22,-84,-45,109,-167,149,67
232,273,176,155,87,47,61,-282,68,207
64,170,32,-25,-107,-253,-416,-301,285,165
-466,-366,-416,-470,-488,-498,-286,1532,1184,-88
-400,-413,-308,-314,-288,-146,262,2009,1250,-21
-67,-160,25,64,142,306,569,1254,349,2
68,-25,138,187,282,385,432,385,-376,-102
-3,-63,80,123,177,205,169,-187,-546,-178
-8,-53,27,39,57,-25,-278,-1236,-717,-135
49,62,70,58,23,-171,-553,-1557,-641,-54
-70,-49,15,33,33,-17,19,-177,-381,-132
-169,-122,-48,9,54,115,240,36,-465,-224
21,68,139,166,157,67,-383,-1938,-851,-99
328,294,344,301,220,57,-401,-1038,-339,237
180,127,168,123,63,23,12,504,-19,166
-390,-421,-375,-339,-312,-220,54,1490,61,-261
-460,-477,-447,-390,-327,-193,222,1895,616,-212
-62,-60,-27,9,53,167,336,223,455,42
157,155,231,254,291,345,348,-565,-139,67
137,123,212,246,277,334,531,-4,-511,-48
39,0,26,50,71,136,492,701,-288,-99
-135,-230,-225,-241,-234,-215,154,1081,695,31
-252,-341,-334,-378,-400,-402,-245,-17,1267,116
-133,-117,-195,-256,-326,-465,-599,-1136,1125,138
232,433,54,-51,-162,-584,-554,-928,743,180
493,684,252,196,52,-343,1,-34,-135,222
267,299,211,209,106,58,5,-11,-873,86
56,20,107,150,282,476,-252,-371,-709,22
-7,-115,-34,-12,83,166,-296,19,-230,35
-87,-106,0,30,101,146,135,404,-714,-191
-217,-133,3,58,170,311,638,850,-559,-366
-98,27,-24,-40,55,124,366,320,49,-168
-194,-181,-276,-353,-321,-270,37,686,698,-10
-66,-135,-191,-257,-253,-142,190,1630,1036,259
436,429,398,355,352,370,-23,-195,71,420
631,660,686,666,631,517,-512,-2811,-1344,258
374,347,362,448,410,296,-529,-2878,-1340,32
189,87,81,203,179,118,-89,-1459,-628,-4
116,5,26,39,65,104,333,511,130,59
80,142,-6,-31,71,166,431,1229,603,19
-194,-153,-236,-219,-157,-103,-79,828,605,-65
-375,-408,-391,-344,-351,-452,-484,430,467,-115
-390,-393,-241,-220,-229,-320,-387,-250,365,-207
-426,-382,-226,-166,-136,-85,-51,-138,-265,-391
-224,-246,-173,-138,-113,-18,151,771,-211,-180
-9,-52,24,24,20,101,147,1050,135,83
35,48,81,76,57,67,-52,872,127,77
3,-33,-4,-11,-57,-73,-107,234,504,166
-5,-82,-38,-38,-88,-56,74,-576,522,272
-13,-19,42,32,-13,-20,73,-749,-47,121
29,63,147,111,62,-4,-176,-780,-517,-81
109,71,110,75,25,-29,-341,-1243,-777,-94
198,92,112,46,18,-27,-208,-1467,-830,37
80,56,21,-1,65,134,442,424,263,48
136,309,10,17,157,222,675,1836,948,46
186,395,104,121,219,197,309,1450,308,-53
59,100,95,117,108,88,-48,607,-535,-171
11,-13,100,116,74,46,-222,69,-596,-142
-41,-92,8,44,34,32,-152,-104,-200,-101
-47,-111,-38,5,7,32,47,15,141,-55
45,-15,34,44,30,26,-37,-519,0,23
136,127,134,126,138,119,-29,-756,-200,60
17,14,34,22,-7,-10,-127,-432,-179,11
-251,-270,-242,-253,-289,-254,-218,-302,-121,-162
-260,-290,-302,-324,-371,-322,-199,-413,132,-125
73,41,-17,-44,-123,-156,-311,-1320,287,149
184,181,120,129,61,-1,-216,-1116,74,113
203,262,245,234,131,-62,-486,-1329,-490,14
179,210,218,190,101,-80,-432,-966,-121,161
-66,-153,-180,-108,-64,5,346,1217,784,194
-78,-156,-126,-62,-24,122,685,1366,632,172
7,-63,9,12,27,207,733,281,75,109
-217,-274,-189,-172,-132,77,864,854,96,-137
-266,-303,-216,-187,-186,-64,588,1124,63,-224
-38,-78,5,0,-47,4,298,557,-191,-147
48,22,101,106,157,195,-250,-268,-527,-178
114,195,36,40,141,84,-588,-646,-670,-167
157,321,-55,-89,11,-105,-434,-227,-261,-87
57,102,-75,-87,-63,-143,-381,-660,145,16
-33,-73,-15,-23,-33,-32,-195,-1243,5,30
-106,-170,-85,-83,-68,8,149,-463,-27,-45
-13,-87,5,13,47,200,490,796,302,55
-1,-40,55,56,66,143,213,859,233,69
59,86,82,94,77,58,-36,308,106,77
114,197,126,99,91,42,-47,13,-110,71
41,118,93,65,58,18,-90,117,-364,-15
-62,-10,-28,-4,26,47,48,777,31,-91
-191,-179,-167,-156,-134,-120,-96,865,487,-109
-279,-301,-190,-220,-260,-272,-204,800,603,-63
-273,-396,-257,-273,-308,-280,55,1221,1057,81
-32,-231,-146,-140,-154,-111,118,85,938,287
219,141,86,81,68,-4,-167,-1051,153,318
325,277,265,236,173,24,-511,-1884,-849,197
255,192,228,215,154,60,-405,-1897,-975,118
35,5,59,91,111,168,143,-510,-422,-20
6,-6,65,86,126,232,393,123,-242,-108
-42,-20,56,60,50,87,270,-261,-225,-200
-145,-99,-68,-59,-93,-87,94,-69,76,-171
108,195,84,104,90,69,131,224,203,7
183,361,-2,69,121,102,428,1336,553,-9
-141,-156,-281,-255,-215,-188,304,1619,930,-3
-230,-354,-344,-333,-325,-299,-60,519,545,100
-95,-126,-147,-123,-153,-193,-407,-1049,-624,63
-5,25,-10,0,-45,-84,-319,-919,-769,36
61,116,78,104,80,98,30,514,9,82
49,95,89,103,69,26,-81,1020,65,-55
86,133,110,115,84,-14,-176,557,-273,-136
82,155,207,173,130,108,77,105,-361,-105
91,194,270,231,193,217,169,-165,-471,-101
31,40,113,141,149,207,124,-191,-302,-43
-179,-187,-135,-89,-73,-64,-152,-907,108,-88
-328,-368,-326,-311,-306,-324,-300,-835,865,-60
-237,-331,-293,-275,-292,-321,-175,173,981,100
-1,-8,-63,-11,-22,-93,-175,-57,-85,59
280,524,190,263,314,158,-357,-727,-1058,-83
175,369,108,152,227,152,14,231,-536,-73
55,33,44,72,107,198,534,873,-123,67
-100,-117,-59,-18,5,156,597,1284,-73,-19
-275,-297,-240,-203,-207,-112,191,1340,259,-126
-181,-233,-160,-126,-125,-88,2,559,316,-34
-91,-151,-116,-77,-81,-27,116,71,253,55
-153,-203,-237,-195,-225,-163,110,230,345,33
-181,-256,-227,-215,-273,-292,-266,-583,9,-37
-85,-137,-120,-106,-185,-303,-609,-1176,-482,-3
-153,-179,-155,-158,-218,-289,-391,248,-201,-12
-13,-43,11,-49,-96,-108,-95,355,146,101
262,253,285,229,190,193,205,-420,602,320
358,344,395,361,338,358,232,-945,62,332
286,276,287,302,310,346,174,-444,-372,188
256,254,276,299,313,392,238,-536,-348,133
142,115,193,211,201,362,257,241,-194,15
109,70,67,70,7,181,74,585,32,-16
64,83,39,-19,-102,-81,-182,253,237,0
16,31,41,-31,-108,-185,-178,402,368,5
-28,-104,-23,-8,32,-53,-239,-84,185,-46
-23,-98,-92,-40,41,-65,-358,-843,-322,-119
59,184,-102,-148,-91,-319,-513,-1022,-135,-110
-129,130,-287,-381,-353,-556,-293,494,726,-108
-368,-300,-383,-420,-380,-305,425,2134,998,-55
-23,-136,-4,1,42,226,698,892,17,103
364,308,436,457,433,457,137,-1426,-1184,60
383,354,429,435,356,240,-419,-1883,-909,49
174,152,241,281,265,227,-82,-501,42,16
-19,-12,77,114,173,294,535,1440,429,-37
-65,-45,39,62,126,197,391,932,-2,-101
22,-3,119,117,131,128,97,-266,-445,-15
-38,-44,79,80,94,95,120,-26,-484,-113
-133,-166,-86,-17,9,14,145,436,-142,-147
-208,-266,-231,-186,-160,-128,190,794,268,-29
-324,-396,-339,-364,-343,-242,229,905,434,-68
-308,-354,-300,-356,-315,-254,22,196,188,-139
-46,-31,-43,-99,-34,-123,-280,-806,-167,-63
59,55,69,47,82,-2,-201,-680,-191,15
84,136,116,149,162,140,16,-472,-112,3
26,112,115,126,142,152,169,-508,-232,-87
54,49,107,77,57,78,208,-465,14,85
132,56,99,105,50,13,-18,-580,6,188
128,63,-22,90,54,-5,-43,-193,-12,76
150,170,-30,56,32,-66,-100,251,-119,-32
318,511,140,87,121,-72,-230,9,-58,31
251,361,104,58,104,1,-49,254,103,113
-66,-101,-45,-31,-15,27,72,702,179,29
-229,-269,-151,-113,-87,-27,-61,399,153,-87
-258,-347,-300,-209,-184,-172,-200,148,395,-59
-239,-334,-288,-219,-212,-198,-99,517,669,21
-91,-142,-58,-52,-52,-15,96,206,394,19
129,106,119,88,83,39,-99,-651,-397,29
145,91,129,88,54,0,-221,-438,-607,19
45,0,-27,15,11,11,9,-216,11,3
-35,-67,-155,-29,-23,-19,87,-111,234,-7
-73,-106,-67,-33,-26,2,116,-107,85,-48
-54,-82,8,0,8,66,250,359,40,-59
-158,-150,-83,-87,-94,-75,149,918,183,-138
-283,-196,-229,-265,-284,-363,-171,968,391,-233
-251,-34,-312,-402,-420,-607,-415,962,554,-163
-309,-140,-324,-375,-375,-500,-409,93,250,-191
-126,-100,-3,-49,-49,-154,-45,-400,-234,-77
177,121,251,170,94,-116,211,657,35,221
327,268,378,324,237,162,414,71,-79,267
197,190,281,290,315,571,165,-942,-540,16
100,114,161,166,241,448,-198,-756,-523,-70
290,317,294,231,204,190,-330,-678,-453,87
256,240,301,216,180,164,-239,-601,-370,166
21,-39,56,15,33,119,-64,8,-34,58
-28,-131,-86,-53,-3,81,-35,92,198,9
-28,-112,-53,-45,-9,45,29,377,354,26
55,34,44,61,71,98,-5,272,-74,-14
170,163,81,171,159,123,-109,-420,-511,28
75,81,13,76,65,37,-23,-353,-312,13
-173,-244,-280,-189,-169,-110,56,118,38,-100
-256,-305,-316,-212,-211,-200,-194,-216,225,-132
-179,-214,-137,-166,-209,-316,-387,-548,619,-35
-100,-139,-59,-136,-223,-296,-101,-375,681,104
91,72,142,52,-44,-11,340,-133,67,157
289,248,302,224,190,291,415,376,-626,136
184,187,195,132,192,245,-193,-493,-891,-24
82,322,53,-47,35,-68,-378,-772,-533,-129
173,484,85,97,172,61,-232,-1006,-257,-60
70,139,39,128,182,239,221,5,56,-20
-56,-136,-1,10,50,179,412,1025,327,-7
-60,-128,-13,-14,17,159,518,1135,403,44
-237,-318,-324,-273,-256,-81,486,1959,1055,37
-325,-415,-488,-428,-436,-316,255,2318,1217,45
-294,-357,-345,-369,-388,-299,44,1506,364,-20
-116,-178,-123,-169,-172,-132,-57,271,-344,-47
61,-17,62,29,0,18,25,-55,26,97
212,170,226,208,197,193,29,-1015,-92,175
204,206,278,254,251,202,-207,-1569,-512,9
25,77,200,158,154,73,-327,-1225,-594,-219
14,30,154,118,120,58,-160,-454,-393,-156
255,202,243,178,184,178,100,-193,-385,142
303,318,287,245,233,179,16,-719,-511,168
132,182,159,230,202,110,-97,-989,-537,35
55,88,50,142,87,-20,-191,-574,-197,19
-174,-155,-116,-99,-142,-116,52,336,198,-97
-385,-400,-403,-369,-371,-256,130,435,369,-159
-423,-417,-476,-414,-421,-403,-168,12,518,-145
-630,-595,-588,-596,-597,-609,-151,1335,896,-266
-367,-233,-355,-380,-312,-290,237,1149,726,-224
299,588,224,181,273,188,298,-147,18,-3
442,614,407,397,471,370,33,31,-287,126
110,107,169,170,187,102,-323,14,-69,38
-119,-61,-8,-23,-71,-106,-284,576,248,-90
-117,-63,-72,-98,-169,-157,-56,1094,298,-4
239,245,251,198,119,69,53,-24,-293,247
386,403,456,404,355,309,183,-1071,-603,323
298,343,321,307,297,322,180,-1934,-665,220
44,79,86,79,87,144,-180,-1919,-452,62
-182,-158,-131,-108,-69,-3,-14,-185,91,-30
-365,-336,-225,-215,-198,-201,120,1514,401,-178
-298,-318,-202,-221,-245,-294,-81,930,237,-165
-44,-128,-93,-113,-168,-235,-172,-154,212,60
186,110,46,89,15,-1,91,-572,299,234
232,241,227,292,228,257,266,-1248,-403,76
140,212,315,299,250,294,179,-889,-666,-112
65,99,151,141,88,95,29,495,-229,-64
-6,-21,40,87,114,72,-57,264,-95,2
-44,-83,-1,65,132,141,101,293,88,43
-97,-93,-50,31,84,162,346,1433,380,0
-190,-160,-148,-82,-88,-42,53,1447,192,-128
-123,-39,-77,-115,-159,-187,-271,440,-96,-114
-17,234,-61,-119,-59,-99,-166,-511,-321,-193
15,265,-71,-122,-1,4,32,-826,-432,-195
-18,56,54,19,52,127,249,-849,-363,-38
-148,-164,-61,-29,-26,85,318,148,28,-37
-261,-343,-268,-270,-308,-240,-110,689,711,27
-156,-289,-196,-240,-263,-238,-319,-198,782,172
28,-85,5,-14,-24,-28,-148,-459,147,179
193,155,156,92,61,25,35,-103,-31,212
144,115,85,22,-20,-63,32,-196,111,210
-34,-47,-52,-41,-64,-81,-30,307,214,13
-80,-112,-56,-61,-87,-31,142,1281,314,-70
-20,-67,8,-10,-49,0,121,644,-7,-86
65,36,118,105,83,92,-75,-689,-277,-34
120,23,83,87,55,-15,-388,-1676,-342,67
-197,-284,-278,-291,-287,-391,-432,-229,65,-141
-503,-380,-604,-605,-525,-618,-225,1676,543,-420
-242,-93,-354,-360,-278,-338,-20,916,839,-177
315,271,290,259,275,294,274,-1054,308,309
434,366,456,456,452,555,518,-1333,-785,276
405,367,425,428,418,511,429,-341,-1032,122
404,353,353,400,388,462,521,567,-819,83
208,192,225,308,322,427,508,690,-490,-3
40,98,119,113,115,85,-71,351,-302,-87
-71,-31,-118,-89,-144,-232,-438,181,44,-46
-147,-147,-182,-193,-245,-247,-297,350,491,-7
-39,-11,53,2,-3,13,-154,-122,330,39
76,73,173,173,177,174,-90,-525,-288,81
51,-42,35,62,70,83,-86,-521,-407,137
-61,-185,-141,-89,-69,-38,-91,-441,7,158
-189,-235,-240,-182,-147,-116,-62,-73,91,19
-209,-109,-173,-133,-76,-53,122,267,70,-197
14,114,96,126,145,167,134,-422,20,-106
209,249,263,263,231,191,-63,-1140,-107,60
166,147,177,145,78,26,-117,-836,-13,105
11,-66,-60,-79,-145,-174,-201,-270,258,72
-267,-406,-434,-385,-417,-365,-89,710,794,29
-470,-600,-566,-537,-534,-405,120,1340,1195,-2
-450,-427,-524,-533,-447,-352,153,1278,1071,-151
95,303,-8,-66,-6,-76,-147,-485,23,-76
577,746,551,500,450,300,-275,-2644,-986,151
500,552,555,489,416,343,-162,-1774,-952,145
-71,-52,-10,-57,-64,-50,-112,780,-200,-96
-474,-457,-402,-416,-395,-321,-24,2116,255,-250
-285,-355,-285,-300,-277,-182,76,1441,550,0
58,-51,-2,-26,0,57,102,737,820,309
240,213,224,240,255,243,64,-81,53,225
128,116,202,242,284,324,202,202,-698,-60
45,50,153,164,196,230,148,406,-712,-136
117,70,118,104,104,107,25,-125,-436,-9
182,83,97,97,73,37,-118,-496,-150,111
65,-3,-54,49,37,16,-42,-207,67,60
-106,-104,-89,-35,-19,-5,43,37,-33,-138
-143,-44,-184,-186,-126,-164,-44,465,79,-290
-170,-44,-315,-348,-271,-395,-223,741,324,-249
-112,-137,-177,-224,-215,-329,-451,-743,11,6
40,7,66,5,-20,-177,-606,-2326,-371,139
-173,-172,-45,-86,-94,-164,-350,-1289,-518,-191
-316,-332,-275,-269,-262,-167,174,1075,131,-302
-55,-114,-254,-166,-178,-32,414,1787,1136,92
58,65,-157,-75,-86,-39,164,1235,962,158
-131,-2,-144,-152,-145,-209,-88,536,614,-90
-113,-128,37,19,33,24,127,-152,377,-37
232,141,299,295,300,262,112,-313,137,173
455,393,516,506,510,434,25,-1650,-798,182
395,376,489,491,521,453,54,-1715,-1255,95
268,273,346,354,386,329,23,-1227,-894,68
160,164,241,258,283,206,-37,-345,-619,7
22,45,-2,47,36,-56,-68,-260,-497,-100
-74,-162,-217,-228,-288,-344,33,-152,-164,-50
-40,-125,-113,-167,-267,-381,-121,-763,-168,-22
-143,-179,-124,-165,-219,-366,-334,-1093,-183,-168
-306,-407,-335,-312,-242,-215,-192,1812,927,-107
-208,-333,-290,-286,-208,-71,258,3788,1678,133
159,96,114,116,196,359,458,1251,536,191
373,446,421,432,500,595,304,-830,-883,-14
337,584,358,339,407,413,364,-366,-791,-114
195,399,199,155,174,129,219,417,-128,-28
28,4,16,2,1,-67,-174,13,329,80
-32,-117,-110,-40,-12,-63,-338,-706,291,58
-168,-175,-117,-106,-61,-71,-110,-64,146,-57
-260,-310,-209,-230,-236,-358,93,787,334,-71
-314,-373,-296,-291,-319,-437,112,690,357,-157
-156,-155,-162,-153,-117,26,80,308,210,-147
-122,-119,-128,-99,11,240,-129,303,357,-67
-226,-195,-214,-206,-148,-123,-384,230,334,-84
-54,8,-27,-49,-40,-54,-433,-1134,-124,-41
205,257,234,192,163,193,-93,-1588,-378,54
262,295,283,354,338,456,254,-748,-788,-31
132,136,182,257,262,382,159,-421,-750,-63
78,-1,27,-7,-27,-41,-64,17,75,153
119,4,-13,-73,-104,-129,-63,258,341,222
169,95,186,122,58,38,-139,-636,-262,119
151,118,214,167,95,45,-213,-1212,-833,-20
-41,-88,1,17,76,80,15,85,-535,-81
-122,-211,-156,-137,-60,34,258,1611,125,89
-87,-189,-149,-162,-135,-54,108,825,254,130
-45,-108,-83,-118,-111,-59,-47,-110,389,63
36,131,-41,-96,-68,-107,-122,-526,480,76
122,319,-11,-97,-94,-229,-260,-838,201,76
103,210,96,25,0,-68,-220,-901,-305,-38
-46,-36,50,30,27,67,31,704,-178,-124
-251,-233,-189,-105,-70,18,297,2190,388,-218
-344,-326,-292,-217,-198,-156,138,1401,552,-249
-222,-252,-276,-209,-234,-268,-152,-40,184,-86
150,92,31,12,-27,-134,-229,-1332,-139,219
242,239,211,136,140,66,-84,-1000,-95,193
46,77,143,108,136,133,-68,168,-25,31
-56,-28,70,49,69,61,-48,458,-57,-52
13,6,108,89,89,128,262,355,-182,50
15,-31,70,67,63,138,315,1,-293,125
32,-27,24,47,42,98,165,-124,-241,125
81,70,106,92,87,121,115,-33,-113,74
174,327,163,87,126,80,89,59,44,-23
23,227,-18,-116,-114,-252,-241,147,7,-186
-318,-316,-291,-341,-420,-511,-470,231,57,-261
-289,-365,-286,-265,-277,-225,-14,303,726,-106
-18,-103,-29,25,54,164,175,-1006,760,129
154,117,168,195,176,231,54,-790,16,192
62,124,206,182,149,194,155,816,-333,55
18,139,119,66,42,82,266,1260,-138,34
95,166,58,21,18,47,170,457,168,156
-31,-22,15,9,-19,31,42,-270,0,130
-58,13,62,68,63,104,93,-690,-294,-2
-7,29,103,87,90,104,174,-522,-419,-30
8,-28,93,71,44,9,59,-1,-266,-8
-20,-81,17,10,-47,-142,-312,-422,-148,-28
-95,-196,-163,-164,-242,-358,-431,-231,158,-16
-341,-406,-442,-452,-472,-530,-75,705,775,-63
-697,-751,-792,-686,-666,-589,364,1713,1112,-289
-581,-629,-574,-487,-470,-335,512,1714,937,-287
38,11,105,87,45,38,-53,-763,254,86
437,419,474,456,416,337,-289,-1611,-542,296
334,318,330,373,339,229,-457,-1007,-1076,108
123,105,27,136,92,-15,-322,408,-641,-56
168,229,132,137,127,84,-28,-107,-392,-73
310,554,279,225,323,352,291,-1299,-715,-174
138,353,113,41,101,111,161,-794,-584,-241
-49,-30,-21,-60,-59,-50,-56,376,45,-63
11,7,107,92,105,45,-319,532,100,23
140,115,202,188,205,159,-290,114,-127,84
178,132,201,191,223,249,34,-125,39,171
80,34,91,88,115,191,245,-188,-19,100
3,16,3,-6,25,42,193,-622,-193,-38
-163,-142,-168,-142,-144,-130,-17,-1022,153,-44
-143,-207,-247,-214,-233,-169,98,-359,784,171
-33,-122,-120,-117,-138,-75,161,712,812,238
85,50,97,98,84,102,157,1387,104,74
-33,-39,-14,-34,-77,-117,-108,1071,98,-54
-124,-119,-143,-202,-292,-433,-478,594,666,26
-120,-53,-100,-175,-257,-462,-608,-289,388,28
-112,47,48,1,-48,-194,-352,-1010,-316,-132
33,141,205,235,216,203,193,-707,-280,-25
101,158,208,276,247,245,260,-591,-244,8
63,71,82,189,164,235,393,-233,-534,11
-34,-131,-102,-7,53,286,664,1782,-41,33
-43,-133,-73,25,159,379,509,1659,42,-23
38,32,84,147,238,327,352,644,-215,-95
155,328,212,216,286,299,348,129,-229,-91
144,335,117,113,179,153,244,0,-123,-43
-4,52,9,6,18,7,104,18,-159,-55
2,-30,38,41,-2,-9,-41,-207,-260,-36
50,-22,5,18,-49,-56,-204,-280,-42,64
40,-41,-63,-75,-131,-157,-383,-272,175,112
7,-47,-112,-97,-161,-243,-483,-554,34,13
-63,-69,-111,-131,-183,-267,-503,-888,-153,-101
-202,-225,-238,-268,-273,-297,-378,-595,-74,-158
-270,-382,-338,-365,-338,-237,210,856,425,-31
-133,-278,-225,-246,-235,-117,389,1557,766,190
-39,-147,-107,-121,-123,-62,171,1130,540,226
29,-45,14,-16,4,21,52,22,15,128
145,111,176,148,164,163,-59,-1463,-580,55
158,184,199,174,176,155,-172,-2271,-808,-60
80,243,29,-19,31,-26,-120,-1356,-181,-138
-35,58,-202,-216,-166,-206,159,585,672,46
-76,-151,-125,-131,-158,-150,330,1289,699,148
-35,-87,-9,-42,-120,-167,176,432,207,10
-126,-124,-77,-118,-159,-223,-82,213,633,-11
-275,-272,-239,-216,-166,-61,-198,603,617,-39
-106,-91,-65,-24,6,121,-137,121,-220,-8
174,298,235,291,342,216,-289,-592,-1000,-42
343,469,342,464,523,353,-152,-1216,-948,-62
250,239,333,381,403,436,387,-738,-498,-70
161,86,202,167,181,242,373,-17,-161,-7
25,-76,19,-6,8,68,270,626,-63,8
-66,-111,-20,6,51,79,261,681,-193,-64
-38,-56,0,-1,26,41,69,292,-154,-39
-53,-47,-28,-79,-80,-82,-94,244,120,29
-3,83,48,-27,-32,-97,-259,12,160,11
-45,43,67,17,-18,-93,-341,21,66,-62
-183,-148,-55,-55,-51,-46,-51,323,30,-143
-182,-199,-247,-158,-139,-78,36,174,160,-55
-98,-122,-231,-208,-189,-151,-113,-264,126,-7
43,45,-76,-96,-138,-143,-165,-1195,-134,28
181,127,51,20,-87,-71,-79,-2314,-163,155
206,170,27,21,-55,-9,276,-180,294,195
241,336,44,-16,40,34,510,2108,581,151
170,225,74,65,252,258,384,1005,70,45
-76,-138,-38,-4,159,253,299,603,-226,-95
-199,-235,-130,-125,-57,30,51,987,-68,-190
-242,-271,-163,-162,-159,-99,-51,1097,341,-156
-301,-384,-239,-227,-227,-140,53,716,709,-68
-397,-517,-407,-407,-398,-344,-217,801,858,-41
-342,-368,-308,-318,-325,-312,-285,1726,832,-73
28,0,107,71,29,26,-180,453,296,117
229,187,303,233,177,133,-197,-1022,-270,246
166,132,278,234,193,151,-173,-1078,-519,114
146,117,243,258,230,198,-70,-1004,-865,1
244,220,288,267,209,128,-365,-1843,-998,78
228,193,229,165,83,-57,-664,-2367,-773,92
139,140,177,121,58,-2,-162,-1251,-424,2
51,45,123,102,113,176,371,-525,-390,-108
-10,-52,52,86,107,118,8,-675,-378,-153
-37,-77,-58,30,18,-15,-283,-401,-65,-84
-166,-198,-200,-144,-156,-152,-235,-5,96,-82
-144,-174,-137,-161,-221,-263,-23,490,92,-105
-66,-87,-44,-73,-175,-306,540,1587,314,-50
4,-1,-17,-53,-153,-188,835,1925,440,106
27,147,-107,-208,-245,-135,196,1096,408,88
-173,-28,-394,-509,-485,-471,-708,313,880,-27
-259,-249,-358,-437,-486,-565,-838,472,1482,55
104,109,174,151,141,186,-282,143,749,205
225,252,318,341,354,434,114,-405,-154,125
146,131,245,285,349,520,474,-1050,-376,67
208,192,320,353,388,527,359,-1669,-694,97
334,277,309,339,382,465,355,-584,-785,161
173,61,67,119,175,313,566,1723,-301,50
-88,-186,-103,-34,11,136,473,1677,-202,-178
-376,-424,-330,-264,-231,-171,202,1217,-127,-372
-556,-567,-511,-444,-418,-417,-63,915,313,-395
-270,-269,-225,-176,-157,-163,-67,-410,410,-127
116,160,206,226,238,197,-126,-1477,-294,-13
273,316,275,259,274,281,-74,-980,-651,-36
355,499,201,134,192,164,105,119,-192,73
264,385,180,119,160,102,33,-7,-78,105
117,90,68,80,78,49,-157,-905,-142,124
-40,-66,-88,-57,-61,-70,-153,-757,-83,-4
-147,-174,-187,-152,-161,-118,64,363,66,-115
-240,-322,-319,-331,-351,-260,217,1745,559,-37
-347,-427,-425,-451,-431,-399,-63,1360,696,3
-92,-150,-263,-334,-286,-352,-248,161,695,238
275,212,106,38,37,-59,-272,-425,402,360
291,205,268,195,129,-53,-615,-1666,-180,216
3,-62,19,-41,-99,-290,-624,-1874,-556,-100
-170,-248,-244,-202,-185,-203,-44,111,-438,-228
117,38,27,56,91,145,351,1023,-261,50
317,253,257,257,273,359,367,510,-185,207
149,153,200,189,239,296,216,169,-64,-25
119,192,227,254,358,361,297,322,43,-116
42,89,191,211,325,326,421,407,-103,-84
-33,-11,60,29,108,28,-40,-677,-475,-62
-123,-128,-124,-134,-131,-315,-676,-2157,-717,-63
-66,-51,-85,-112,-169,-410,-900,-2522,-174,102
-7,65,43,-16,-44,-176,-324,-1131,472,128
-120,-62,-70,-71,-21,52,461,738,360,-78
15,165,17,23,132,191,676,1420,-85,-111
288,543,206,152,294,291,572,1188,-19,48
205,321,185,144,229,219,282,-4,67,45
-78,-130,-22,-7,29,68,124,-354,186,-99
-172,-240,-152,-118,-97,-93,-48,619,489,-166
-81,-139,-87,-92,-131,-210,-380,1007,644,-36
-11,8,-6,-20,-78,-171,-500,193,398,6
-55,92,0,-8,-42,-75,-269,-268,-96,-114
-94,45,-38,-43,-18,0,126,525,-68,-113
-18,-21,51,65,98,156,347,958,-5,23
-65,-125,-9,36,44,102,284,788,41,-17
-203,-296,-164,-81,-79,3,222,493,-234,-185
-46,-133,0,75,58,98,64,-695,-826,-174
140,50,135,182,146,139,42,-531,-570,-45
104,49,113,161,138,153,127,25,-295,-68
145,115,103,136,126,147,94,-165,-252,0
135,104,84,80,38,20,-210,-854,-224,73
97,8,-22,-8,-88,-140,-430,-944,135,205
-69,-167,-190,-175,-236,-249,-349,-275,356,102
-180,-220,-208,-212,-224,-237,-203,509,323,-62
16,12,32,27,21,36,89,478,273,100
138,117,152,168,161,167,84,-644,-104,164
