-14,-23,-2,-57,-50,-4,78,75,160,17
-8,31,17,-31,-50,-13,108,121,246,11
-16,2,18,-26,-59,-19,95,165,242,16
-26,-69,-10,-35,-65,-27,67,212,210,35
-17,-115,-55,-58,-70,-55,0,204,62,47
2,-42,-11,0,-16,15,71,112,178,44
-18,-1,26,45,26,53,80,11,142,12
-29,4,-17,49,47,57,59,-12,69,-15
-2,38,-17,52,68,68,22,-38,-3,-40
54,137,36,34,60,27,-46,-56,-103,-31
4,62,50,48,32,44,-16,-122,64,32
0,4,55,43,20,55,-22,-153,93,65
16,-1,56,28,16,54,-18,-159,62,46
0,-39,7,-14,-19,17,-49,-152,-24,-1
-26,-70,-40,-47,-37,-19,-66,-147,-164,-38
-10,8,-1,-2,-9,10,42,-72,39,-58
54,136,31,10,17,9,77,88,100,-61
38,52,12,6,10,21,53,110,85,-37
-1,16,-63,-12,-22,-8,-3,73,70,-21
7,9,-31,-50,-58,-68,-69,23,-41,-19
6,57,72,6,-24,-36,-74,-176,7,-23
-26,52,118,59,31,26,-17,-241,60,-42
-33,-13,93,73,70,52,-3,-278,6,-38
-23,-23,0,50,61,37,18,-157,-29,-44
-44,-84,-122,-11,17,-15,-10,142,-163,-38
-75,-98,-22,-10,12,-1,10,200,-66,-19
-60,-53,50,8,14,18,0,78,13,-7
-36,-24,62,11,10,0,-9,-7,0,6
-17,-32,47,10,7,-8,-3,-17,-38,10
-18,-91,-10,-36,-21,-55,-65,-7,-172,14
-26,-41,0,-40,-19,-37,-23,24,-29,22
45,109,27,-34,-3,-20,0,56,61,22
64,127,11,-51,-7,-33,-3,40,62,30
12,-1,-17,-63,-49,-62,-32,3,-18,22
-2,-27,-14,-76,-61,-88,-119,-21,-196,-21
-21,44,54,-9,-17,-23,-52,-11,-42,-41
-28,29,61,9,4,14,-2,21,46,-41
-27,-40,-9,-6,0,23,18,49,83,-17
0,1,-35,-12,6,7,-3,77,46,-20
39,23,-50,-56,-6,-45,-100,104,-106,-23
-15,-45,-27,-32,-20,-29,-33,99,42,-13
-30,-6,-3,-24,-25,-17,8,96,94,-10
-24,14,-2,-26,-29,-8,33,86,108,-2
-13,21,-6,-43,-28,-17,34,55,34,7
-10,-43,-3,-43,-27,-40,-30,20,-131,15
2,-12,40,25,20,10,37,-34,26,26
75,175,56,37,51,22,62,-55,57,37
88,162,23,12,23,10,38,-39,0,46
8,-46,-8,-29,-33,-10,-6,-36,-84,25
-4,-93,-28,-62,-50,-35,-71,-15,-182,12
0,-42,-16,-35,-44,-4,24,27,11,11
-9,-61,-40,-35,-55,0,72,86,62,-9
-26,-78,-81,-41,-56,2,76,123,65,-23
-12,-35,-107,-48,-33,-12,31,124,-12,-38
-13,-10,-72,-41,-25,-44,-31,81,-135,-51
-39,-26,-25,-8,-33,-20,36,1,28,-22
-32,-28,-19,-20,-37,-13,35,-73,67,-3
-46,-20,-45,-8,-12,8,25,-159,67,-1
-31,0,-15,20,24,25,19,-209,61,15
-5,-13,18,23,22,6,-76,-303,-100,37
7,35,37,45,26,21,-91,-325,-38,36
19,111,51,57,38,25,-55,-157,63,28
-11,68,27,35,30,9,-36,96,73,27
-12,36,28,29,35,12,-13,211,63,40
1,-9,17,1,15,-18,-77,132,-101,46
22,23,12,9,15,-15,-37,46,21,57
3,25,-5,0,12,0,-2,11,90,49
-32,-12,-7,-6,9,19,0,10,57,32
3,43,15,12,34,20,-1,44,32,43
115,126,-19,-17,43,-24,-59,89,-111,28
58,4,-34,-15,10,-3,19,75,4,17
-7,-55,-27,-4,-15,13,50,73,75,11
-45,-84,-35,-20,-21,10,44,77,78,-12
-69,-101,-60,-23,-12,-5,28,64,18,-34
-71,-134,-96,-33,-9,-31,-67,22,-175,-44
-63,-55,-28,11,13,2,-33,-23,-38,-45
1,82,14,33,34,13,-5,-51,29,-74
-45,3,18,19,13,2,-20,-141,8,-74
-42,-7,21,18,10,-12,-63,-105,-26,-56
18,-17,-36,-11,-12,-26,-97,50,-128,-21
26,10,-36,-20,-18,-4,18,47,68,9
-13,-14,-4,-49,-40,-18,85,141,131,6
-31,-39,-24,-61,-56,-54,90,212,167,-12
-8,-27,-58,-57,-51,-67,34,124,55,-28
-5,-21,-62,-29,-18,-57,-52,-60,-167,-51
4,84,16,33,12,-7,-12,-121,-17,-27
26,156,58,46,7,-3,2,39,47,-14
59,210,159,98,58,12,13,20,15,-4
73,105,155,122,90,38,-21,-124,-119,12
35,-37,36,46,61,8,-59,-121,-227,28
23,-51,-14,13,59,29,44,-17,10,67
67,73,17,29,83,34,77,82,121,71
92,102,-39,19,66,20,60,136,151,73
27,-111,-98,-33,2,-8,-2,111,23,67
-40,-213,-95,-60,-33,-34,-32,108,-80,39
-66,-111,-49,-11,-29,2,46,136,107,30
-65,-94,-57,-7,-15,4,21,54,50,1
-29,-63,-44,-31,-2,-16,-60,-112,-142,-26
9,-164,-75,-85,-12,-101,-321,-336,-746,-34
23,-48,46,28,47,-12,-169,-362,-402,-34
16,33,88,81,60,49,2,-151,18,-26
-19,-2,59,72,42,43,30,41,106,-22
-28,-53,35,50,37,19,6,96,47,-25
-4,-103,-8,3,15,-11,-2,27,-62,17
26,9,31,63,52,48,85,-63,100,52
86,219,69,97,104,93,116,0,149,102
49,158,39,31,60,90,154,74,155,127
-13,1,-13,-36,6,42,83,12,14,68
-29,12,-32,-57,-25,-8,0,-49,-51,17
-54,29,-77,74,-28,-26,15,91,261,-3
-25,-13,0,14,-45,-13,13,-11,209,6
33,-11,-17,-56,-54,-38,-55,-44,-23,23
57,-149,-173,-167,-119,-136,-237,77,-451,3
36,-88,-153,-128,-116,-81,-105,96,-80,-17
50,34,-62,-10,-48,-36,-31,-54,84,-39
44,95,-101,51,15,-7,-49,-184,15,-61
21,144,17,33,36,-10,-79,-218,-145,-81
-35,90,116,37,42,16,-18,-125,-197,-94
-87,-38,48,36,43,68,118,10,27,-69
-78,-67,-15,21,23,47,146,69,81,-76
-104,-94,-35,-3,-10,20,130,30,70,-77
-76,-123,-43,-27,-30,10,83,-57,88,-52
-25,-135,-63,-36,-36,7,38,-172,95,-16
11,-46,-12,7,10,43,42,-178,108,18
73,113,55,49,52,96,43,-112,109,39
76,191,40,22,18,73,45,11,105,52
92,403,106,53,42,45,66,250,92,28
120,381,110,57,53,-17,0,296,-51,34
21,48,60,9,-19,-35,31,243,107,37
-73,-120,-24,-34,-62,-47,50,221,181,21
-101,-211,-110,-87,-75,-32,61,199,183,0
-106,-210,-96,-65,-50,-19,44,126,55,-58
-125,-178,1,12,14,-9,21,53,-171,-101
-110,-92,56,86,83,50,126,-45,-29,-90
-24,0,34,106,115,79,146,-109,54,-26
-2,-42,-2,86,74,84,127,-137,37,29
-18,-68,-16,43,37,35,89,-42,-51,2
-43,-53,29,46,49,18,6,-134,-195,-38
-66,21,91,97,59,48,27,-163,-54,-49
-67,-15,-10,46,18,44,9,-85,14,-50
-22,-52,-49,0,3,35,32,-127,26,-23
49,-24,-17,-52,-13,-10,14,-141,-53,14
60,34,-13,-69,-26,-40,-34,-200,-124,22
50,136,-29,-1,14,4,36,-289,30,-6
38,132,-6,-1,-1,0,31,-240,44,-42
7,83,10,-31,-26,-23,52,-5,91,-51
-25,-34,-41,-30,-25,-40,44,161,34,-38
-57,-168,-93,-33,-22,-48,17,120,-26,-16
-52,-122,-28,-22,-6,-14,84,21,77,-14
15,105,-25,-19,35,-1,125,149,126,-9
64,209,26,-23,25,-14,113,294,136,-29
11,-5,-6,-72,-37,-56,41,170,-57,-25
11,-89,-21,-89,-44,-48,14,-13,-151,44
18,-21,16,-55,-30,-7,82,-80,26,87
36,4,-3,-63,-37,0,76,-146,90,125
72,67,15,-58,-21,8,60,-218,78,135
98,136,49,-43,-26,-9,19,-246,-6,100
85,70,22,-60,-43,-52,-43,-239,-193,81
63,25,74,23,18,0,53,-135,-28,92
84,40,129,84,61,35,99,84,71,102
75,-39,-12,-14,-15,-10,76,89,107,124
9,-99,-120,-69,-50,-42,66,28,86,114
-62,-170,-218,-59,-20,-36,33,31,-57,86
-48,-118,-166,-13,37,52,134,60,104,46
45,182,17,37,76,38,116,7,108,-42
48,234,88,29,16,-12,25,-129,36,-110
19,39,48,-40,-65,-59,2,-132,-40,-111
-5,-137,-16,-68,-60,-61,0,-45,-205,-119
-42,-127,-13,-34,0,21,100,46,-37,-113
-61,-99,-74,-69,-5,49,119,134,19,-112
-79,-11,-46,-42,-5,38,92,163,1,-128
-25,105,-23,-66,-45,-40,11,194,-26,-90
-28,-5,-43,-88,-74,-95,-73,77,-115,-7
-30,-71,-4,-33,-25,-25,-47,-265,-29,33
70,-56,-51,-24,7,19,-44,-535,-82,51
103,71,-84,-50,-5,0,-82,-610,-77,11
66,270,20,-4,-8,-60,-205,-670,-174,-88
45,388,144,96,27,-80,-276,-857,-353,-156
-47,251,71,19,-39,-118,-234,-794,-123,-161
-147,-127,-79,-77,-86,-112,-158,-508,42,-133
-207,-490,-158,-93,-84,-66,-44,-178,111,-80
-251,-599,-282,-184,-140,-65,55,323,71,-75
-248,-447,-229,-148,-91,3,246,890,113,-81
-71,-104,36,66,69,137,415,1004,372,52
76,44,137,155,125,156,301,401,206,131
122,-9,-40,17,21,78,169,113,104,163
123,41,-189,-112,-41,-28,49,352,72,118
140,236,0,2,40,-6,12,336,-18,65
120,195,155,128,62,54,32,-8,-26,62
59,100,135,129,54,36,39,-131,-64,80
-38,-70,18,57,20,19,92,-70,-23,144
-89,-214,-112,-30,-40,-29,61,42,-105,126
-104,-226,-166,-70,-72,-57,64,35,-105,49
-91,-121,-240,-69,-61,-50,82,-187,22,-37
-87,6,-219,-63,-58,-79,42,-416,-30,-138
-198,-43,-75,-31,-73,-73,65,-558,-103,-253
-234,-152,-94,-32,-64,-69,82,-615,-148,-274
-156,-201,-119,-28,-17,-44,22,-700,-273,-211
-65,-29,35,96,85,50,75,-832,-127,-176
36,100,143,236,196,121,119,-663,-28,-110
13,-19,-84,116,123,106,244,-74,107,-81
-77,-45,-132,-18,16,41,381,618,96,-111
-140,-63,-28,-6,23,11,311,749,-38,-114
-130,-95,-20,10,27,29,265,273,48,-78
-46,-143,-146,-56,5,22,205,-225,1,-1
-52,-91,-144,-46,8,35,181,-475,-74,-37
-76,-12,-69,2,25,12,145,-492,-161,-74
0,10,-97,-22,8,-55,86,-410,-240,-30
77,141,-15,-21,-11,-42,191,-170,10,58
172,405,102,28,33,-2,274,114,167,127
209,412,114,39,38,10,257,-120,103,128
97,21,-107,-85,-90,-90,121,-610,-144,63
-33,-151,-155,-117,-130,-118,95,-637,-290,-31
-35,-99,-85,-39,-51,-19,214,-67,5,19
-21,-168,-240,-70,-38,7,203,179,87,91
-63,-128,-189,-53,-24,-19,95,-321,-27,12
-29,1,-92,-28,-4,-68,-42,-616,-213,-66
33,2,-100,-48,-20,-92,-71,-468,-295,-86
53,75,-34,22,27,-50,63,-189,-112,-90
23,7,-40,27,23,-17,139,-149,-38,-78
-13,-10,-1,37,9,5,201,-263,48,-79
-10,-47,-55,-22,-21,-35,114,-357,-84,-56
-55,-97,-188,-121,-95,-92,72,-181,-77,-57
-105,-57,-238,-95,-91,-60,223,156,196,-97
-85,-4,-246,-71,-14,23,410,453,298,-72
-123,-130,-307,-123,-53,12,390,365,249,-9
-103,-162,-262,-112,-71,-37,221,136,-5,-4
-117,-54,-47,0,-7,-7,153,-114,-127,-43
-100,77,24,24,-9,5,171,-486,-78,-35
-133,-44,-61,-60,-58,-44,154,-667,-72,-9
-106,-75,-63,-32,-15,-24,139,-635,-63,-14
36,53,-20,-4,43,-22,58,-500,-131,19
81,-39,-60,-27,26,-32,9,-588,-153,16
57,-18,-12,12,-21,-63,62,-515,-45,-65
-22,-65,-90,-82,-110,-104,129,63,148,-70
-48,-173,-165,-129,-122,-106,91,407,-17,-34
-48,-239,-139,-119,-88,-94,-79,220,-506,-36
-65,-102,-75,-39,-48,-15,95,165,4,-6
-76,-90,-135,-59,-54,6,192,177,183,33
-64,-129,-161,-70,-65,6,157,-31,150,54
-34,-119,-199,-90,-99,-79,-16,-261,-56,31
20,77,-114,-74,-108,-115,-114,-506,-111,-23
-7,179,-95,-38,-89,-96,-118,-752,39,-76
-118,38,66,93,7,-29,-101,-687,-58,-106
-55,-192,-229,-98,-73,-108,-236,-715,-359,-56
-8,-276,-395,-281,-166,-225,-382,-547,-725,-78
-79,-84,-40,-7,-21,-18,-37,203,-26,-95
-26,-41,23,77,21,-20,-117,70,-12,-82
-41,-37,12,65,5,-94,-286,-263,-131,-81
-20,-65,-4,43,24,-66,-274,-211,-81,35
-19,-82,-99,10,24,-40,-237,-343,68,121
83,224,51,64,82,34,75,-118,89,2
-64,18,-117,-51,-18,48,228,439,197,-68
-74,-78,-119,-88,-36,5,112,837,10,-58
-149,-141,-45,-78,-22,-72,-132,494,-572,-137
-140,67,51,4,-10,4,53,160,-98,-158
-101,6,-122,-108,-89,-25,70,134,149,-98
-129,41,-42,-79,-66,-26,35,413,346,-44
-117,-74,42,-10,-1,-4,-50,302,288,19
-106,-270,-35,-8,0,0,-74,-240,98,7
-60,-231,-24,16,6,16,0,-567,55,9
-38,-164,-6,-3,-18,0,109,-350,-17,5
-40,-135,2,6,21,66,268,261,-14,7
27,-80,10,16,47,73,164,152,-195,59
87,-8,8,-5,14,55,112,-69,-61,116
95,95,-6,-23,-3,32,149,-172,174,109
172,240,-48,-62,-11,-26,122,-190,246,93
187,294,-20,-37,9,-4,109,-50,190,64
128,134,-19,-20,-7,14,55,-68,-21,20
30,32,61,31,5,-3,-43,-129,-219,-31
-29,110,155,78,-3,-22,-61,-187,-29,-25
-32,-22,13,-56,-115,-107,-134,-331,72,24
-90,-222,-160,-165,-171,-138,-157,-414,145,38
-121,-189,-125,-128,-99,-123,-188,-471,53,3
-36,-123,-68,-50,-1,1,-25,-230,-79,9
62,76,44,109,123,165,230,569,119,32
89,236,173,118,96,125,141,656,117,-7
29,61,90,29,17,17,-79,-172,-13,-48
-83,-72,75,70,46,10,-228,-518,-162,-78
-100,-171,-94,-39,-52,-73,-348,-568,-202,-89
-45,8,2,21,0,-21,-302,-337,49,-57
37,320,139,96,54,-11,-309,65,257,-33
-109,-26,-94,-82,-124,-127,-320,414,301,-35
-103,-149,-61,-72,-97,-89,-310,413,131,9
-11,-98,-7,-26,-52,-57,-365,-157,-1,42
-12,-27,8,-5,-18,15,-294,-201,-104,-94
63,32,40,52,66,135,-88,424,-17,4
97,144,66,43,75,130,-42,1242,-32,56
11,-81,-101,-87,-22,5,-243,1247,-378,23
-33,-7,-96,-12,-6,65,-106,839,-42,13
49,74,-97,-13,-17,100,-107,342,0,56
161,250,-141,0,-10,83,-290,-287,-133,37
123,376,-3,73,12,5,-516,-676,-349,-28
80,147,161,118,10,-38,-639,-816,-305,39
23,-26,81,13,-72,-88,-596,-710,-28,117
-90,-75,24,-14,-87,-87,-522,-270,49,56
-75,-106,-10,-61,-127,-94,-394,145,76,5
-36,-145,-77,-125,-164,-73,-200,1081,126,9
-46,-144,-120,-146,-135,4,17,1525,236,-24
-6,-20,-92,-69,-24,87,31,942,247,-36
-65,-8,-58,-57,-25,40,-171,176,88,-109
-162,-13,68,16,-38,-51,-424,-539,-73,-174
-3,65,-50,-104,-128,-173,-649,-711,-215,-85
30,223,-115,-196,-209,-200,-664,-250,-124,-21
52,485,76,-9,-49,-28,-443,230,-55,31
-45,495,414,264,159,117,-210,459,-26,28
-92,79,488,354,203,177,-45,486,215,71
58,-304,143,160,132,192,70,992,194,202
-9,-326,-140,-10,28,153,216,1241,263,99
-1,-41,-239,-88,-59,72,222,1067,338,-23
155,365,46,-1,-20,20,-3,633,201,-78
15,145,208,71,-11,6,-94,434,74,-85
-138,-237,20,-2,-25,16,-134,465,-68,-20
-142,-227,-72,-22,-3,66,-109,438,17,28
-75,-104,-21,1,36,81,-67,344,168,64
0,-50,73,70,81,91,-109,288,226,49
100,35,111,52,53,60,-191,222,223,73
132,89,166,71,82,26,-294,193,9,75
151,56,187,112,117,61,-254,238,53,127
122,153,194,87,71,53,-242,269,124,125
86,58,36,-5,22,41,-219,316,191,143
96,17,-54,-25,44,82,-183,293,225,153
86,148,52,66,194,84,-245,205,109,56
47,356,309,213,348,19,-361,152,5,-5
4,256,177,100,194,-59,-308,427,389,111
33,121,-90,-74,118,-59,-243,887,632,239
131,216,21,33,178,0,-313,715,535,233
124,95,102,92,188,41,-328,207,188,204
118,-17,-5,28,151,65,-277,122,85,203
226,117,107,124,227,176,-214,-18,155,222
257,197,258,225,276,218,-288,-174,-31,173
153,247,304,229,238,155,-263,100,-57,56
146,265,260,159,182,86,-356,26,-206,21
64,98,108,67,124,76,-417,-109,-223,16
-7,120,96,103,101,74,-295,244,10,-13
-4,76,119,146,98,70,-201,345,97,31
45,-14,115,189,158,100,-236,-13,82,55
46,-109,35,145,162,52,-417,-282,-72,66
18,-39,50,108,123,37,-401,-276,-94,41
66,74,46,60,84,51,-247,98,153,76
162,233,-16,-27,48,15,-204,398,217,85
65,142,-7,-33,-19,-40,-269,44,-3,-21
22,111,119,36,-17,-104,-412,-19,-265,-102
16,-15,124,30,-9,-62,-319,159,-102,-38
-74,-210,-21,-53,-49,-6,-103,341,227,12
-82,-184,-46,-26,-30,36,-26,543,165,-35
35,27,-33,-4,-10,22,-44,776,90,7
225,248,-110,-59,-52,-86,-240,263,-169,9
150,185,59,-9,-52,-86,-276,-323,-227,-65
73,141,256,106,20,4,-168,-384,-117,-52
57,-40,164,69,18,25,-78,113,84,66
-58,-160,16,-27,-49,-31,-140,420,233,64
-128,-154,90,3,-49,-94,-327,33,-38,-14
-51,-60,197,67,-20,-86,-344,-142,-4,1
42,57,146,74,-11,-71,-229,-30,64,41
43,134,120,44,1,-29,-57,-295,-25,15
0,94,-66,-129,-111,-61,144,-129,-39,-112
-52,81,-24,-146,-122,-78,297,478,-199,-215
-134,79,215,23,-24,6,457,677,-94,-218
-159,-220,-3,1,-24,37,503,518,91,-120
-172,-303,-24,15,-15,48,521,449,181,-78
-40,-204,70,20,1,53,538,371,233,-14
104,72,8,-49,-36,-60,361,131,152,11
45,119,71,-15,-37,-89,165,-254,-22,-5
89,99,89,56,15,4,104,-481,4,24
221,53,47,28,17,24,48,-389,0,80
237,45,92,-3,-9,-5,-2,-345,-15,143
219,47,29,-78,-46,-68,-85,-267,-120,152
120,74,20,-44,-2,-41,21,-43,-84,101
63,310,267,165,149,72,219,157,81,-9
80,370,327,164,129,52,171,122,28,-55
117,245,350,145,74,90,110,-69,-61,-15
112,274,447,184,70,73,-32,-202,-249,-3
-14,-207,71,-64,-82,-18,-49,-80,-96,117
-168,-325,-28,-27,-5,92,106,27,89,92
-146,-136,78,30,42,117,151,7,14,-4
-95,-6,130,6,2,44,126,-7,-13,-50
-20,25,184,7,-11,-19,-23,-29,-132,-40
-47,-56,114,-49,-84,-43,-77,203,-6,-18
-48,-17,29,-79,-104,-27,16,360,155,-12
-29,6,35,-27,-63,6,112,319,130,-24
57,25,-4,4,-39,26,127,242,101,1
132,75,39,13,-14,35,3,79,-111,22
168,171,108,-2,-5,251,99,221,242,191
93,-57,40,-69,-73,-67,-24,169,18,146
-65,-263,-15,-80,-126,-280,-144,33,-187,56
-123,-336,-166,-121,-131,-240,-281,23,-398,-25
-78,-230,-167,-79,-87,-63,-84,127,79,-55
13,-63,-86,-4,-56,-25,-4,258,178,-15
55,62,41,48,-36,-34,-15,240,129,43
58,57,142,20,-39,-37,-95,195,-27,107
60,88,196,48,-13,5,-63,18,4,140
90,144,235,106,37,47,15,111,165,154
37,80,224,92,19,22,-19,168,160,115
-8,-16,133,22,-26,-10,-58,64,98,71
7,-38,97,-24,-47,-48,-145,-30,-110,40
22,13,66,-39,-48,-53,-123,-86,-20,46
99,219,52,75,36,-16,-73,-142,100,35
168,401,144,301,187,53,62,142,167,3
83,205,303,312,222,154,202,433,167,30
91,12,248,115,116,124,139,173,-72,88
94,-128,51,-69,12,123,224,46,75,167
-11,-31,106,42,70,142,207,13,149,84
-59,17,173,58,-4,7,69,-93,79,3
26,-47,24,-119,-148,-84,0,-218,17,92
57,20,-71,-175,-176,-119,-23,-193,-127,116
35,-21,-50,-118,-153,-56,98,-163,-25,118
42,-27,49,-50,-115,-18,241,198,57,97
22,-43,31,10,-17,-13,209,321,76,35
20,50,8,35,71,-34,87,233,0,-18
58,113,38,18,51,-40,34,322,-185,-20
67,-7,137,57,42,27,209,310,33,50
84,-104,24,-51,-44,-13,241,260,107,67
14,-51,10,-68,-52,-3,228,212,69,22
-10,-10,64,-1,-11,19,192,79,18,4
7,-37,37,67,46,8,106,28,-145,-39
13,12,30,147,83,21,83,-2,-176,-100
-15,159,162,200,99,50,159,-43,-41,-142
-29,-9,36,53,26,9,216,-19,13,-108
-67,-19,9,27,44,46,259,1,14,-118
40,384,133,76,101,31,138,-56,-175,-156
102,352,8,-74,-23,-56,57,-120,-201,-79
19,171,-74,-105,-75,-58,52,-126,-46,3
-88,75,81,30,1,-26,56,-123,12,23
-44,-101,10,-10,-26,-25,106,-75,79,54
114,-116,-91,-112,-107,-92,-6,-91,-66,67
96,-49,-47,-30,-43,-77,17,-43,-8,37
33,-28,-72,7,21,-33,104,236,224,38
-45,-53,-48,-25,-9,-66,42,167,201,1
-117,-46,110,66,43,-6,17,-169,20,-20
-113,-158,118,86,90,30,-64,-363,-234,8
-90,-271,-47,-46,0,3,-38,-320,-126,59
-137,-255,-116,-127,-103,-32,100,149,100,52
-83,-224,-101,-124,-121,-28,207,618,249,45
74,-162,-43,-88,-88,-1,203,408,207,44
126,-171,-87,-92,-76,-74,57,65,-71,3
62,-196,-139,-58,-73,-71,26,-238,16,-7
54,-7,37,55,31,9,54,-549,39,3
191,346,196,164,117,59,4,-852,-68,32
335,462,1,-38,-54,-74,-122,-921,-117,92
282,300,64,-93,-133,-130,-136,-261,-268,57
132,-31,12,-10,-71,-30,63,610,23,91
-64,-131,-21,38,26,27,143,786,201,61
-66,93,66,108,129,82,208,721,252,16
11,175,111,153,144,114,288,711,223,16
-38,-96,14,2,16,8,117,390,-20,25
-63,-171,-72,-19,14,41,186,42,45,-5
-28,-16,-3,50,43,72,196,-253,-12,-42
57,0,-68,28,16,45,46,-502,-92,-23
94,106,66,28,1,0,-45,-559,-139,-39
61,189,160,50,14,-59,-121,-552,-224,-59
-72,-9,126,58,41,-9,-22,-472,-128,-78
-141,-144,35,1,13,15,136,-205,39,-144
-136,-227,-68,-94,-59,-30,87,-219,-34,-171
-141,-180,-36,-51,-25,-3,104,-269,-140,-186
-125,-49,69,16,24,35,148,-41,-338,-195
-95,-62,22,0,25,55,194,-120,-259,-156
73,258,-30,12,83,134,330,-315,-74,-111
255,656,88,70,152,184,359,-419,-44,-83
188,542,331,190,131,140,242,-297,-37,-64
134,103,173,122,38,24,113,241,-10,68
-14,-320,-172,-44,-63,-72,74,408,187,135
-240,-463,-149,-36,-38,-55,24,61,233,88
-183,-278,-55,-37,-41,-81,-69,-419,90,63
-126,-88,-23,-54,-61,-87,-38,-618,-14,11
-112,-38,-79,-115,-97,-135,-57,-529,-170,-54
-122,-116,-137,-91,-110,-124,24,-368,-53,-78
-87,-51,-30,-36,-85,-70,225,-62,140,-47
-53,-49,-12,-76,-119,-70,327,-61,187,-14
-64,-35,-82,-122,-156,-92,326,-22,133,-74
-6,80,48,6,-34,9,367,400,102,-87
30,191,136,59,21,44,363,583,-5,-66
78,215,50,-2,3,33,432,531,-95,-23
72,196,160,127,119,144,502,82,-251,-55
7,123,296,230,161,145,466,-299,-354,-59
95,-249,-21,49,36,32,296,-407,-428,123
94,-345,-289,-155,-117,-42,296,-292,-59,235
42,-32,-26,-47,-55,-40,183,-352,65,139
9,192,161,63,4,-82,-17,-367,64,22
43,75,42,-4,-28,-114,-53,-274,20,24
189,83,-74,-17,34,-43,30,-346,-197,37
141,268,64,62,51,51,280,162,1,19
59,357,58,54,46,74,345,187,61,2
-32,87,20,47,76,106,290,-30,-38,-8
-86,-189,79,69,86,-13,-145,-319,-884,-60
-78,-381,-106,-95,-61,-130,-192,-338,-770,58
7,-144,-137,-99,-88,-57,173,-236,181,119
-25,-17,27,51,19,15,192,-248,174,47
-122,-129,13,76,39,9,157,-208,162,33
-193,-99,22,51,26,-42,35,-171,-31,5
-120,-85,-26,-21,-22,-35,72,38,143,27
-159,-129,-29,-14,-30,-22,115,192,300,21
-140,-121,1,8,-11,17,145,224,367,58
-51,-43,16,43,39,63,78,79,248,83
-16,-8,-7,54,47,31,-73,-233,-82,38
-30,-41,2,33,50,54,37,-374,22,13
-11,-15,39,26,53,56,98,-370,0,-21
-2,13,60,3,-2,9,127,-37,40,-26
41,-3,47,22,26,41,182,231,43,28
23,-104,-25,-1,22,15,48,133,-105,55
94,196,-20,-54,-6,-9,43,133,129,15
154,392,11,-46,17,-13,63,150,160,-10
80,211,-42,-67,-21,-21,-35,49,13,-30
30,-92,-171,-210,-125,-155,-492,-137,-901,-54
-14,-93,-61,-111,-90,-120,-505,-299,-908,-73
-63,-82,74,70,24,56,-60,-373,58,-2
-63,-152,24,20,6,21,-54,-417,92,-5
-63,-106,26,0,-20,9,-39,-388,50,-12
6,-116,-64,-28,-21,0,-129,-277,-134,-6
98,84,-32,28,-11,36,7,168,23,-50
272,394,13,169,25,32,107,255,67,-31
296,423,46,215,118,-10,39,17,73,10
151,194,75,65,90,8,93,113,179,13
-123,-344,-165,-401,-283,-37,70,579,463,115
-87,-81,-34,-147,-85,184,83,379,316,61
-94,-7,-3,217,149,265,14,199,60,-33
-152,-197,-40,129,73,-23,-298,99,-521,-110
-155,-207,17,-29,-41,-349,-372,27,-478,-125
-119,-136,116,-65,-73,-121,-24,105,184,-30
-107,-92,126,-3,-42,-62,-39,-41,129,-35
2,40,22,-11,-58,-96,-161,-196,3,-58
66,26,-79,-131,-142,-220,-442,-239,-604,-91
-29,-124,-81,-197,-224,-277,-491,-319,-671,-71
16,21,-56,-154,-204,-185,-209,-347,-4,40
49,123,17,-87,-124,-73,-8,-97,334,91
60,72,2,-4,-42,-16,80,278,439,128
42,60,-128,31,31,-11,-18,365,204,70
157,241,-99,86,141,27,35,178,112,45
146,350,77,219,236,114,166,189,61,36
25,-39,28,215,235,240,329,505,129,96
-132,-400,-117,123,158,217,306,492,128,78
-216,-250,-18,66,58,117,122,442,-129,-28
-108,-5,68,5,10,86,97,338,-21,-5
-47,-114,-83,-82,-15,72,59,135,106,55
-46,-88,-8,-37,-4,37,-8,-3,107,21
16,162,275,106,76,51,-59,-140,28,-42
83,327,201,35,67,12,-104,-214,-82,-62
-42,64,30,-40,3,44,2,-283,95,-72
-98,-52,141,-7,0,67,72,-134,113,-96
-33,-63,133,89,30,66,80,116,132,-44
35,-66,53,145,48,68,2,110,52,-7
72,-55,51,94,64,45,-123,88,-88,7
55,24,217,89,64,54,-45,90,170,36
25,298,532,140,47,-15,-111,-228,237,7
-31,187,301,-50,-88,-117,-225,-599,195,0
-54,-45,-112,-165,-136,-167,-377,-779,-31,0
-35,10,-67,48,-20,-156,-476,-921,-123,-63
0,8,142,132,38,-66,-257,-368,-95,-103
-38,59,313,101,52,55,109,992,-45,-97
-34,151,238,-14,-37,23,122,1131,34,10
14,136,190,-118,-131,-95,-176,243,87,63
117,114,232,21,-58,-145,-437,-368,14,52
259,177,58,34,-47,-142,-434,-399,69,50
190,81,-309,-28,8,-17,-138,513,300,115
40,-182,-497,26,107,105,136,686,301,114
-107,-411,-519,-40,106,122,171,452,139,68
-198,-438,-420,-152,81,111,8,93,-204,-44
-171,-399,-369,-201,37,123,-1,-334,-208,-68
-81,-66,-190,-22,85,88,-16,-351,-62,-99
41,209,-84,347,148,72,-30,30,49,-88
83,85,-205,244,81,110,109,424,111,-40
134,221,15,169,117,123,32,218,-183,-85
166,474,389,419,189,142,-58,54,-86,-80
197,127,-62,7,46,46,-112,96,142,107
199,-50,-404,-287,-39,12,-50,265,236,166
89,-9,-306,-320,-87,-4,-22,441,255,103
-38,-317,-378,-329,-138,-97,-138,475,112,111
-292,-605,-455,-113,-11,-38,-39,374,224,118
-333,-372,-215,-13,50,-19,11,89,160,69
-60,-15,48,14,49,-9,18,-87,94,70
104,224,196,39,55,20,-2,-72,-17,66
102,288,206,68,65,0,-128,-101,-323,1
-18,263,218,137,87,12,-39,-54,-42,-33
-32,40,69,63,71,13,30,40,296,19
26,-333,-248,-166,-86,-35,30,122,374,111
-6,-262,-139,-140,-55,-12,-50,-201,49,5
-48,-29,75,-5,41,24,-146,-324,-297,-105
-44,20,46,108,123,90,-37,-319,-146,-45
-49,-60,-82,117,122,71,-75,-410,-139,19
-15,-88,-142,26,49,7,-114,-396,-114,35
34,-30,-124,-44,20,-2,-75,-248,-82,53
47,58,-86,-97,-51,-14,-8,4,46,37
7,14,-4,-80,-44,-25,43,171,101,53
5,-2,47,-66,-44,-76,-81,116,-40,44
13,-263,-45,-162,-87,-144,-399,72,-694,-8
-16,-252,6,-38,14,-16,-176,182,-401,-50
36,50,148,112,40,25,1,144,22,-66
28,185,80,102,-13,-76,-106,64,0,-41
-14,-52,-244,-41,-72,-104,-143,-18,25,46
-59,-108,-173,-77,-105,-115,-181,-195,-10,48
-71,-293,-218,-124,-141,-167,-304,-334,-204,17
-83,-216,-197,-148,-164,-214,-356,-313,-207,-46
-40,-18,-74,-90,-105,-190,-322,-173,-204,-47
31,173,92,47,17,-33,-40,41,0,16
70,209,128,75,51,34,98,214,92,18
73,221,73,77,100,67,148,364,12,-31
-25,90,63,86,96,121,275,203,121,-69
-64,12,39,43,63,111,293,281,86,-83
-55,83,41,40,43,85,281,259,15,-145
-102,157,86,64,36,82,257,188,-12,-185
-117,108,135,68,31,65,197,395,110,-161
-35,-78,120,77,61,60,122,140,104,-72
91,-106,-16,18,53,34,10,-181,51,2
13,-138,-102,-84,-40,-21,-78,-276,106,-16
28,-44,-83,-64,-53,20,-3,-246,123,-34
10,46,-17,-20,-38,42,169,129,-18,-73
-46,49,35,-34,-86,-11,215,360,168,-73
-106,-247,-166,-183,-209,-130,48,362,357,-5
-158,-291,-213,-206,-249,-195,-85,482,406,-21
-98,-17,-103,-147,-201,-159,-54,402,341,-76
69,261,17,-53,-71,-65,-18,99,163,-83
92,243,107,62,99,172,44,-5,45,-53
65,0,103,63,109,325,119,-87,68,67
33,-203,-41,-57,14,252,159,-89,139,188
-38,-201,-105,-74,0,-45,40,-67,52,152
-19,-59,43,46,92,-146,-99,-183,-254,70
-17,51,106,56,77,-53,7,-281,-144,26
120,363,124,42,74,-22,101,-121,-110,-47
279,680,105,19,69,-1,216,179,-141,-93
151,313,-130,-79,-13,-35,191,103,-162,-56
-13,12,7,29,62,-9,86,-68,-293,-38
-95,-105,183,162,159,104,179,-260,-123,-27
-125,-288,35,48,54,57,105,-319,-1,-2
-121,-321,-94,-100,-85,-95,-114,-145,183,36
-85,-175,-44,-64,-67,-174,-374,-2,210,38
2,-111,0,-7,-21,-159,-388,-41,59,44
-13,-2,78,48,-32,-33,-100,-7,187,-2
-2,58,44,-61,-152,101,61,111,103,7
42,103,-14,-88,-155,247,173,-85,-58,55
94,216,129,21,-101,120,72,-520,-370,0
72,76,228,154,69,-25,-76,-669,-631,-95
87,-105,61,90,135,-67,27,-66,-229,-57
150,44,-81,-53,24,-223,-52,269,-26,-42
145,79,-173,-164,-146,-249,56,341,79,-42
99,124,-69,-22,-19,-81,113,171,-65,-95
43,102,99,112,91,22,85,-99,-253,-77
-54,-203,30,33,52,7,98,-248,-18,27
-160,-203,57,41,50,-14,-123,-409,29,30
-201,-132,8,-42,-52,-99,-248,-240,128,33
-39,-38,-145,-152,-122,-171,-209,-131,59,48
70,122,-108,-108,-70,-136,-36,-57,0,61
-38,-29,-30,-19,-40,-48,222,189,198,93
-55,-115,-35,-46,-61,-56,137,73,261,123
-25,-79,-7,-46,-75,-68,45,-279,210,130
-42,-41,4,-34,-80,-60,46,-259,79,104
-120,-168,-94,-95,-102,-107,8,131,-142,30
-139,-114,-82,-81,-78,-66,142,201,-21,-15
-78,29,-71,-75,-74,-49,184,246,126,-10
-53,18,-128,-103,-87,-39,179,333,181,-17
-17,89,42,45,39,31,150,5,-99,-69
87,1,163,128,119,98,128,-209,-407,-4
128,-84,123,132,128,140,168,-211,-139,83
40,-14,121,147,129,127,96,-292,-59,35
15,30,116,125,104,87,40,-332,-103,-34
30,148,150,138,146,72,48,-305,-150,-77
67,164,90,86,109,19,-3,-133,-235,-66
13,-22,-75,-26,6,-2,70,62,-39,-55
7,39,-83,50,52,38,112,60,-34,-95
13,153,35,87,48,22,80,27,29,-85
48,16,-67,-125,-132,-101,-36,-12,19,-42
-3,-36,-51,-109,-117,-95,-134,-236,-236,-77
-61,61,97,40,0,-15,-73,-331,-60,-76
12,-35,-41,-29,-21,-46,-89,-187,106,-15
-86,-124,-50,-40,-10,-22,-36,4,160,-59
-87,-89,39,-1,-6,-15,-45,21,71,-61
-106,-183,-54,-87,-76,-75,-140,-143,-80,-47
-89,-150,-47,-66,-33,-4,-25,-349,-3,-58
-85,-78,20,2,10,62,85,-95,-79,-81
-44,-15,48,19,1,85,207,557,-65,-37
-34,-14,-22,3,1,60,150,492,-15,-31
-24,-17,-6,27,17,58,65,422,43,-36
21,-26,24,52,41,41,-2,97,-3,-3
39,-16,31,53,17,4,-56,-65,-42,20
56,-101,-57,11,0,-28,-142,-107,-234,51
74,-213,-99,-71,-45,-123,-366,-137,-750,31
80,31,11,23,-7,-52,-134,-75,-295,11
109,311,35,15,-1,-32,17,83,58,3
87,299,-29,12,20,-14,5,196,113,11
15,-36,-83,-33,-23,-37,-62,192,-12,21
-14,-124,-69,-60,-62,-63,-116,-8,-155,-5
8,54,-39,-62,-63,-42,-55,-65,-6,-38
1,237,143,34,8,5,-28,28,12,-124
91,317,193,98,52,41,2,64,41,-107
122,41,-152,-101,-52,-30,-42,101,36,66
-34,-139,-140,-62,-22,-29,-63,98,60,104
-84,-262,30,13,-3,-10,-22,18,191,89
-90,-416,-137,-84,-62,-12,33,51,213,115
-153,-166,-40,-39,-15,29,72,12,144,59
-99,61,32,-29,-21,5,18,-110,42,58
-55,-37,-19,-40,-29,-15,-98,-182,-152,62
-25,0,41,47,49,26,-37,-245,20,49
30,97,51,76,88,47,-32,-273,93,22
-40,26,63,56,29,0,-31,-154,136,5
-38,109,76,23,-26,-19,1,-63,136,18
0,98,37,-25,-64,3,25,117,210,71
16,88,6,-48,-95,-28,-36,51,259,82
76,138,-69,-135,-202,-132,-140,-173,149,5
151,254,-95,-92,-157,-190,-196,-180,-36,-154
54,361,8,19,12,-178,-116,327,-52,-241
-58,-71,-55,2,107,-42,68,653,-54,-132
-149,-387,-68,-16,64,51,232,565,34,-12
-185,-300,-23,-7,39,62,238,339,0,33
-135,-197,-27,-4,46,73,206,143,26,54
-38,-112,0,-2,41,60,125,68,-38,67
7,-44,48,52,68,54,14,-108,-151,59
11,41,80,131,129,113,70,-176,21,71
4,62,77,92,105,109,75,-109,22,50
-15,27,33,37,48,61,49,-110,-20,21
4,71,-106,-43,-19,-7,-62,-154,-150,26
20,127,-76,-74,-61,-51,-136,-135,-201,27
-6,38,117,-17,-17,2,-71,-85,14,66
-28,-195,-18,-106,-82,-28,-59,12,65,90
-51,-179,-78,-158,-139,-52,-32,230,138,67
29,-29,-89,-119,-103,-64,-76,145,14,38
38,81,-24,4,-8,-36,-131,-248,-152,-55
-89,-31,65,43,-12,-17,-116,-510,-144,-141
-112,-133,-26,-65,-105,-97,-138,-368,-77,-106
-98,-151,-72,-76,-77,-72,-71,-39,7,-83
-44,-36,-1,63,45,31,11,403,-14,-103
101,55,-14,163,31,-2,-68,690,-152,-43
149,163,0,42,-2,5,66,666,63,8
76,130,31,-51,42,104,245,396,132,16
-37,-44,46,-13,49,127,195,-36,-29,10
-8,103,67,24,71,122,137,-254,-148,-36
117,190,78,43,73,84,-3,-364,-333,-37
78,143,165,128,110,84,-12,-205,-104,-32
-3,-129,3,77,92,90,34,129,58,36
-76,16,-40,40,60,63,13,167,50,-1
-60,195,17,63,64,10,-46,48,-33,-57
21,156,149,88,45,-37,-154,-5,-171,-20
91,-17,-14,-63,-80,-59,-58,28,102,102
2,-130,-52,-67,-65,12,49,122,196,91
-37,-165,-69,-62,-54,23,98,166,222,69
-30,-165,-127,-107,-101,-30,76,98,232,57
-49,-112,-97,-68,-92,-62,-2,39,187,17
-30,-16,-104,-14,-40,-43,-23,53,160,13
64,164,-112,25,9,-16,35,70,161,50
87,142,-76,20,31,-21,-7,54,-28,76
16,-42,17,12,3,-10,4,135,-89,83
2,-25,82,40,15,37,69,99,93,77
7,-35,61,36,27,30,26,-82,38,39
8,-32,52,67,68,83,21,-239,-62,-5
68,104,93,137,132,138,8,-391,-168,-40
137,264,93,80,67,75,-31,-449,-187,-47
138,179,102,18,-5,-16,-60,-414,-129,-42
71,-20,102,74,25,-16,-109,-326,-180,-87
-47,-163,33,39,-12,-41,-108,63,-131,-125
-83,-194,-89,-63,-93,-52,28,292,168,-50
-93,-168,-267,-142,-126,-34,53,264,199,15
-64,-125,-230,-126,-91,-34,-23,236,-2,11
-24,-23,-60,-52,-19,7,81,184,115,15
55,125,29,3,23,20,93,96,126,20
47,-16,-3,-31,-23,13,54,-12,68,38
43,71,39,-14,-44,-21,-6,-36,36,10
68,125,24,-30,-73,-39,-61,-39,29,4
44,12,16,-4,-42,-20,-70,-38,43,24
1,-61,25,23,0,2,-61,-70,24,12
54,71,133,55,23,28,-63,-129,-18,3
151,465,415,162,74,18,-37,-83,0,16
151,357,188,-81,-106,-86,-11,107,199,117
-97,-131,-131,-88,-165,-145,-46,99,256,72
-224,-274,-108,130,-6,-114,-77,-55,107,-41
-255,-242,-62,12,-18,-90,-62,-17,37,-90
-179,-278,-159,-140,-65,-77,-63,200,-3,-46
-39,-216,-170,-69,17,36,14,180,-98,45
22,-31,14,55,92,125,77,-166,-54,40
27,4,10,53,64,93,10,-334,-81,-16
-9,-55,8,23,32,51,-31,-378,-92,-61
-21,-62,26,3,3,24,-73,-413,-86,-73
-21,-62,21,-4,-2,5,-54,-111,-16,-57
0,-38,20,-3,-2,33,46,657,138,6
30,-11,13,7,17,34,69,751,138,51
30,-20,-23,-9,-5,17,-1,371,5,45
92,113,-39,-21,16,-28,-103,188,-211,9
113,247,20,36,61,-3,-44,113,-49,-4
6,34,-100,28,31,3,-27,29,-6,0
-44,1,-30,26,48,39,-7,5,24,-23
-24,94,51,8,28,21,-42,-7,60,-36
48,204,-24,-58,-43,-48,-108,23,44,-49
34,278,62,-9,-41,-76,-110,83,-4,-101
9,112,114,69,9,-32,0,224,66,-33
46,-156,-19,-3,9,-7,138,364,235,103
25,-345,-166,-100,-47,0,90,181,221,146
3,-171,-39,-7,6,9,-24,-173,72,93
8,-73,58,66,55,29,-96,-386,-16,116
7,-46,15,28,40,22,-104,-359,12,174
3,26,60,34,17,-7,-98,-302,-12,117
-13,98,88,54,12,-20,-109,-354,-69,41
-13,15,13,4,10,-51,-147,-231,-84,-1
-15,-149,-101,-98,-48,-92,-187,-46,-27,-39
-39,-50,-115,-109,-70,-42,-98,-146,57,-91
-49,30,-44,-53,-28,40,-9,-150,-22,-117
3,64,90,48,30,37,-61,-145,-83,-91
25,-62,47,50,37,28,-55,41,-57,-54
0,-147,-21,21,13,7,27,321,-18,-59
27,25,-64,16,9,-25,46,368,6,-56
166,300,3,39,50,-3,13,329,88,-14
117,208,2,5,15,-7,-22,242,116,-1
-23,-27,-21,-19,-37,-18,-47,118,4,-33
-19,-112,-54,-24,-43,-25,-49,3,-28,-20
1,-81,28,-19,-63,-48,-104,-65,-21,-20
-49,-126,-2,-64,-102,-60,-120,-139,36,14
-84,-83,11,-26,-55,-29,-77,-252,18,13
7,118,13,-26,-48,-75,-117,-196,42,8
43,35,-18,-6,-18,-81,-78,26,73,60
122,32,15,61,112,43,133,202,48,148
101,153,94,66,87,60,131,167,5,138
45,35,24,1,22,26,0,-25,-6,140
-13,-99,-57,-55,-15,18,-2,-196,-33,124
-34,-136,-115,-96,-57,10,48,-80,-23,26
30,28,-86,-77,-37,0,81,285,23,-21
98,187,2,-3,28,17,110,263,-40,-12
54,83,87,60,72,86,159,-81,-156,37
70,29,165,125,130,98,-41,-556,-376,51
3,-113,39,60,79,53,-173,-685,-215,11
-105,-148,-23,38,45,31,-56,-133,-74,-64
-97,-115,-1,54,50,33,47,431,6,-76
-30,-9,27,21,19,-28,-50,226,-70,-91
79,231,16,-18,-10,-99,-89,43,-132,-117
66,306,54,12,2,-98,-39,39,-159,-175
-89,40,15,-32,-57,-77,45,95,-83,-178
-150,-173,-89,-60,-42,-41,94,73,-91,-131
-119,-133,-26,14,39,10,67,-140,-252,-121
-71,-73,-8,28,51,9,-36,-299,-194,-80
-37,-74,-57,27,78,42,-91,-250,-145,-36
28,106,76,97,119,121,-38,-255,-71,-25
23,73,53,45,52,63,-55,-317,18,8
-36,-71,-20,-20,-18,22,21,-96,241,73
-60,-69,-6,-4,-2,46,88,97,289,117
5,10,56,38,23,51,129,372,167,129
140,53,41,18,-3,43,109,244,65,151
98,75,88,42,-8,22,53,24,94,141
53,34,29,-57,-82,-44,11,7,232,168
139,241,-74,-125,-95,-45,86,122,299,134
95,246,-119,-43,-27,17,171,171,196,23
-117,-97,10,146,87,77,151,64,66,-72
-205,-259,-102,47,33,31,100,2,9,-103
-127,-90,-214,-26,-11,-11,66,-28,-37,-142
31,148,-154,-58,-74,-81,-38,-95,-205,-173
30,154,120,145,23,-66,-82,-147,-308,-187
25,93,226,300,115,-14,-29,-104,-72,-104
-64,-40,22,0,31,0,2,-16,61,-15
-135,-33,-65,-137,-22,36,21,-33,60,-20
-15,130,-42,-71,-30,-3,-16,-67,29,-34
-15,-42,21,6,14,14,-9,-36,42,-19
-59,-231,-77,-2,27,28,31,23,109,12
-102,-216,-34,6,13,33,42,57,92,-18
-37,-156,-7,-39,-46,-30,-30,-5,28,-56
1,-15,-28,-84,-80,-73,-53,-13,40,-54
-21,58,-3,-43,-68,-49,-28,27,81,-14
-24,-87,-28,-60,-65,-30,-15,84,131,35
-40,-102,-2,-21,-32,-8,-6,88,108,37
-2,-72,15,-7,-25,0,0,53,73,48
-8,-54,5,-11,-20,-2,-18,11,25,54
-15,-45,0,-34,-28,-10,-42,-52,-40,39
59,134,82,6,43,-2,-46,-77,-95,8
137,376,142,52,98,4,-34,0,-29,-2
59,226,77,30,70,10,-33,66,-6,-14
-48,-67,-19,-21,-6,-1,-56,44,-18,2
-62,-80,-54,-46,-29,-6,-63,33,-20,-1
-45,-41,-5,-9,0,7,-45,41,-11,1
-17,-74,-21,-20,-6,-12,-46,61,32,33
10,-121,-63,-17,1,-20,-41,40,46,72
57,3,-21,45,48,-6,-45,-32,15,103
34,-15,-35,39,22,-16,-61,-149,-25,105
4,-38,-14,6,-15,-36,-85,-191,-46,78
-15,-65,-69,-83,-64,-61,-68,26,38,58
-21,-53,-51,-78,-61,-40,-36,78,33,39
-7,-21,56,18,20,21,-32,-62,-76,11
28,-55,6,-1,4,0,-55,-140,-113,16
36,9,-38,-38,-30,-36,-81,-123,-86,-24
-2,82,-18,-39,-47,-51,-104,19,-6,-57
-37,5,-12,-54,-95,-75,-150,-61,4,-64
-48,38,-2,-46,-105,-73,-172,-340,-67,-91
-96,-1,-13,-4,-55,-49,-153,-362,-65,-110
-96,-49,-50,-34,-70,-81,-138,-188,68,-74
-7,-107,-129,-101,-96,-64,-76,28,195,47
66,-19,-53,-8,24,79,52,412,154,115
154,269,48,59,106,115,106,598,63,66
117,195,60,67,101,89,69,348,6,44
-47,-61,-2,35,41,68,36,210,33,27
-50,-81,-57,-11,5,54,67,359,130,12
18,-1,-50,-6,-3,24,52,252,109,22
18,67,-4,9,-12,-28,-17,-61,-167,-30
-22,2,-14,-24,-36,-43,-46,-217,-230,-81
18,0,54,61,50,58,31,-83,-42,-25
101,6,42,126,107,105,6,-129,-60,66
130,30,30,95,94,118,-120,-609,-211,80
142,161,-6,46,68,186,-178,-612,-286,18
77,130,-62,16,49,286,-52,41,-103,-8
26,63,76,122,115,268,14,228,-9,-2
58,-43,91,90,61,-71,-82,65,5,21
68,-148,7,19,14,-224,-119,8,39,40
129,91,19,42,60,-102,-47,5,29,-2
63,136,45,7,-20,-108,-58,-161,-65,-62
-22,-26,-31,-50,-102,-130,-95,-297,-79,-53
-28,-63,-113,-128,-154,-166,-109,-272,3,-18
-75,-80,-125,-104,-143,-146,-106,-102,107,13
-108,-201,-50,-37,-57,-60,-24,169,219,45
-98,-268,-46,-15,-30,-9,85,389,240,43
20,-45,33,39,28,23,118,244,149,45
115,85,45,51,31,32,97,-126,61,37
34,36,68,73,22,38,83,-214,-33,-20
35,-60,47,76,19,46,27,-399,-216,-71
54,-79,56,16,-58,-8,-25,-372,-259,-128
33,-97,46,-29,-98,-34,-24,-10,-116,-104
-23,-83,47,-9,-49,34,52,203,14,-63
-3,5,48,52,54,119,139,162,63,-23
-24,80,10,67,136,90,135,26,33,-83
-43,-39,-58,-17,70,22,116,-56,0,-126
-39,-30,-23,-11,19,10,111,-34,-16,-121
-42,-30,-24,-14,6,17,149,195,22,-45
-45,-25,-31,-29,-12,-32,74,128,49,25
-22,-14,-54,-76,-64,-84,-11,30,90,55
-3,-32,-117,-138,-115,-110,-65,28,128,72
37,158,-24,-61,-33,-65,1,76,77,27
167,399,52,13,87,20,141,215,56,8
186,322,17,-13,55,22,133,193,22,16
44,21,-2,-44,-11,-7,43,-14,-44,54
-35,-161,60,23,39,20,1,-208,-72,89
-20,-258,-32,-1,45,20,16,-136,-31,62
-104,-142,0,-14,35,17,54,-37,-14,-36
-148,-46,25,-15,39,0,67,-82,-65,-93
-135,-39,-3,-8,24,-25,85,-16,-77,-92
-158,-155,-62,-20,-15,-50,59,70,-56,-78
-179,-195,-59,-46,-49,-57,34,154,-14,-83
-163,-193,-60,-82,-84,-76,36,216,60,-86
-97,-137,-42,-57,-60,-47,67,263,109,-42
-30,-50,21,91,19,9,88,120,42,8
50,41,12,173,66,51,81,-227,-73,53
139,173,12,-70,6,69,68,-452,-110,96
137,180,27,-193,-51,65,36,-412,-26,96
55,70,33,61,24,23,-12,-230,3,34
2,-7,28,314,161,20,-99,10,-188,-2
-5,-56,42,160,103,24,-25,102,-120,6
-18,-56,12,3,20,34,106,172,50,21
6,-42,-11,-83,-33,14,134,163,79,45
30,18,17,-79,-29,10,111,56,61,51
150,299,50,-27,19,17,54,-43,68,47
115,248,33,-31,3,10,-40,-149,33,45
34,121,52,-6,-20,-32,-149,-219,-11,27
28,161,98,55,-2,-49,-165,-212,-12,-1
-36,65,79,49,10,-24,-76,-158,18,-8
-72,-41,68,63,61,46,-11,-135,24,8
-41,39,140,78,48,30,26,-110,-22,-3
43,47,78,-21,-26,-9,110,62,39,39
-22,-16,58,-8,-8,17,123,71,68,27
-99,-50,-22,-4,-5,46,122,-7,23,0
-106,-113,-62,-33,9,48,133,-13,31,17
-50,-75,-39,-13,28,62,125,-22,18,0
36,-19,-65,-75,-39,27,112,-37,2,4
-31,2,121,30,11,-1,75,-47,-12,-40
-56,-14,155,0,-41,-65,-29,-42,5,-47
4,106,126,-82,-75,-115,-98,13,-127,-29
-44,51,166,-3,-32,-59,-31,2,-112,-51
-82,9,143,25,-24,-30,11,-37,-11,-66
-11,126,42,-35,-45,-53,-40,-80,-1,-48
52,236,84,-12,-18,-51,-87,-133,-36,-31
32,178,176,48,7,-40,-116,-164,-46,-7
-6,-128,-104,-4,-2,-12,-86,-130,85,63
7,-162,-290,-65,-8,11,-66,-175,121,86
-55,-126,-267,-81,-27,5,-70,-233,41,28
-104,-131,-260,-94,-66,-27,-50,-32,63,-32
-83,-2,-190,-107,-104,-57,-5,235,140,-51
-93,9,-169,-127,-119,-35,77,381,153,-84
-81,-52,-24,-8,0,60,163,499,149,-66
-74,-270,-49,-17,6,72,157,408,165,-3
-92,-278,-104,-67,-49,3,76,268,116,-7
-51,60,-17,-6,-5,0,46,247,33,0
-40,96,21,48,22,11,43,55,-88,23
1,39,14,54,28,15,17,-155,-127,42
57,10,33,83,43,23,-68,-294,-165,48
117,-16,-36,52,50,19,-92,-311,-138,52
84,15,-28,25,39,3,-90,-288,-158,12
26,17,34,55,55,5,-95,-128,-148,3
90,147,37,77,93,36,-1,165,-73,-16
125,320,-20,3,67,36,95,244,9,-65
-2,140,-71,-14,17,12,88,68,-12,-76
-123,-146,-135,-25,-26,-20,17,-88,-49,-36
-102,-190,-132,-71,-71,-44,0,97,23,19
36,-19,-4,0,-26,12,47,293,52,96
94,74,105,94,43,61,9,158,-15,126
45,-17,-9,57,6,21,-84,11,-70,66
35,-81,-113,-14,-49,-32,-97,175,-18,19
9,-79,19,-7,-53,-45,-60,298,0,-7
17,-57,-40,-55,-88,-65,-54,153,20,30
16,-85,-110,-59,-53,2,2,22,108,55
23,40,82,113,91,114,-8,-182,59,-3
-4,12,124,129,72,93,-57,-159,14,-25
-19,-106,0,30,25,51,-19,-58,56,-18
-35,5,43,34,45,29,-20,-109,20,-64
-72,32,88,43,37,9,-55,-126,-16,-79
-15,-63,29,23,34,22,-89,-123,3,-43
17,1,43,53,57,19,-146,-349,-82,-12
30,37,14,18,17,0,-140,-428,-127,15
-5,-1,-5,9,15,10,-64,-396,-117,20
20,-5,2,5,23,-4,-96,-491,-118,33
45,66,1,13,35,-4,-105,-437,-87,22
149,343,71,24,50,-10,0,115,41,7
185,352,119,9,33,-22,127,466,99,26
119,42,30,-26,-32,-27,109,255,19,58
30,-41,-23,-48,-61,-34,48,153,-28,20
-76,-107,-113,-126,-113,-46,58,245,-59,-38
-64,-67,-46,-82,-81,-55,-97,133,-260,-55
-28,-10,56,34,3,-27,-87,95,-19,-28
-64,-76,-68,-31,-43,-71,-24,66,151,-36
-133,-246,-138,-109,-117,-113,-63,-162,132,-50
-157,-320,-166,-139,-146,-121,-84,-229,19,-64
-126,-306,-162,-132,-100,-59,-19,135,-140,-30
-58,-68,1,0,18,93,119,313,65,5
-2,102,117,70,64,95,10,0,40,-41
44,182,187,111,102,71,-57,-166,-17,-45
135,254,181,115,114,69,-71,-45,47,69
238,363,50,119,141,63,-47,-64,54,134
108,169,-14,86,100,46,-40,-199,-49,40
-73,25,73,76,50,52,24,-39,-48,-68
-123,-154,7,0,3,35,32,-67,-14,-42
-168,-181,-68,-82,-71,-6,33,-261,13,-11
-183,-161,-101,-145,-150,-47,35,-112,92,-68
-104,-100,-45,-132,-139,-18,78,281,176,-86
74,146,115,-3,-27,78,212,524,209,-37
77,130,178,90,37,117,294,559,247,25
12,-8,176,118,105,78,197,356,196,23
-29,72,188,98,92,-2,39,144,114,-9
-25,104,92,-8,-45,-69,-20,82,52,-9
-2,226,203,-64,-103,-90,24,54,-55,-38
47,303,243,0,-32,-33,37,-62,-172,-49
4,157,212,190,144,98,84,-20,-139,5
32,-230,-233,53,102,88,65,41,-41,130
31,-296,-340,-69,21,38,-23,-172,-144,162
11,-115,-103,-19,26,34,4,-212,-68,162
10,-107,-54,-60,-11,16,59,-81,133,165
40,-89,-63,-86,-72,-30,-27,-30,60,132
20,-115,-98,-69,-33,-24,-222,-107,-219,59
5,-51,-45,-6,45,63,-176,-147,-87,18
97,134,20,15,77,41,-134,-104,-15,27
153,318,79,21,70,7,-97,-47,12,36
115,105,-20,-24,-22,-32,-100,-43,19,64
77,-28,-85,14,-29,-27,-90,-90,-20,46
60,-3,-11,27,1,1,-57,-129,-38,11
15,-87,-50,-23,-17,-7,-35,-65,-25,-44
-16,-189,-186,-81,-47,-13,-12,9,-2,-69
-53,-136,-146,-43,-32,-4,-10,21,-23,-128
-108,-55,-58,3,-21,-14,-27,91,-27,-169
-84,-131,-156,-91,-79,-29,21,287,37,-130
27,-45,-153,-96,-85,-25,5,287,18,-97
20,161,78,81,30,5,-79,-13,-118,-135
-1,136,254,147,65,11,-140,-317,-189,-107
-13,-28,334,66,18,-2,-113,-450,-133,-22
-4,70,499,116,21,12,-103,-521,-139,-16
41,298,551,244,20,-47,-132,-326,-89,-43
81,282,452,99,-45,-49,-69,170,73,0
87,189,154,-11,-41,19,-32,166,77,29
-1,38,-46,41,15,52,-25,18,53,27
-16,-205,-233,38,44,76,12,23,111,78
-33,-295,-397,-74,-15,60,34,118,151,95
-124,-195,-272,-129,-55,12,38,297,151,12
-68,21,-127,-100,-35,-12,42,451,161,-14
58,323,-63,0,70,23,69,365,136,-18
43,245,-98,-7,57,36,38,106,83,5
-39,-104,-225,-70,-21,41,-7,-181,45,59
-26,-173,-207,-84,-50,1,-89,-342,20,73
0,-112,-115,-70,-50,-22,-175,-478,-49,58
-12,-136,-136,-45,-26,-15,-154,-491,-92,46
-43,-121,-94,51,43,10,-97,-283,-144,-20
-56,-69,-68,33,46,5,2,164,-148,-67
-31,-33,6,9,33,28,94,227,-178,-43
-51,-37,72,8,17,38,116,265,-139,-69
-107,-90,44,-42,-24,-11,40,444,4,-122
-99,-22,152,-1,21,-8,-54,220,-63,-134
-72,-15,91,16,18,-29,-105,17,-96,-132
13,-25,-92,-51,-29,-61,-111,-23,-59,-49
155,-1,-332,-170,-107,-115,-147,126,-99,29
231,213,-135,-43,4,-7,44,328,155,61
165,152,150,179,174,136,171,245,253,127
70,-90,45,65,104,82,106,-22,204,129
-61,-148,-97,-72,-29,1,19,-150,96,46
-88,-147,-128,-78,-58,-1,-24,-168,28,16
-71,-173,-140,-105,-50,-31,-81,-175,-128,30
-73,-127,-99,-98,-60,-46,-48,-146,-76,31
-20,96,-17,-41,-20,-26,22,-65,134,16
-43,23,10,0,-3,-13,9,-20,130,0
-64,-127,-52,-30,-20,-31,-17,194,78,9
-47,-145,-44,4,13,-4,-21,216,-114,-3
-11,-40,55,74,59,47,68,-41,-58,-23
-7,21,66,52,38,7,39,-164,-55,-63
1,33,36,31,21,-4,33,-252,-81,-44
28,95,9,31,37,5,63,-239,-83,-27
30,123,-2,5,28,-8,51,-38,-54,-33
-1,-47,-32,-6,2,-23,-16,82,-26,-19
7,-37,-90,5,8,-21,-92,-36,-1,-3
-84,-23,50,64,21,-9,-84,186,57,-68
-70,-151,-70,-38,-48,-70,-29,425,138,-5
-33,-136,-94,-65,-64,-85,-58,380,20,55
48,-31,-99,-85,-49,-130,-242,231,-433,49
132,195,-39,-42,-20,-74,-118,101,-200,72
166,253,56,6,-26,-21,-37,-200,30,90
136,249,129,20,-45,-62,-119,-382,-36,70
44,167,164,65,-19,-40,-63,-392,13,53
-12,-90,70,59,0,12,54,-338,79,69
-17,-169,-1,52,43,122,201,-142,76,42
25,-6,-7,55,64,272,279,3,27,18
48,122,46,107,89,339,194,53,-2,-30
-1,125,125,158,103,214,104,388,87,-48
-63,-21,30,66,30,-133,8,370,95,-74
-67,-113,2,-11,-15,-203,0,229,77,-90
-57,-59,7,-15,-17,-73,42,183,97,-66
-42,1,-61,-6,-4,-9,51,173,133,-34
-10,56,-70,2,-7,-4,44,143,186,-18
67,123,26,27,-2,-14,29,22,133,-15
81,47,73,49,14,-4,-16,-190,-18,0
45,-11,55,26,-4,-26,-91,-374,-97,10
14,-26,32,23,-16,-37,-157,-281,-39,15
5,0,36,16,-20,-47,-178,-26,1,40
-14,-146,-134,-50,-46,-35,-71,221,67,81
-51,-168,-112,-48,-42,-26,-40,218,81,45
-19,-40,-16,-24,-20,-40,-40,185,38,-6
46,124,-38,-51,-14,-78,-69,291,-96,-9
31,72,-36,-48,-28,-66,29,326,60,13
-29,-107,-22,-52,-78,-50,58,234,128,15
-21,-110,-50,-45,-60,-10,55,128,125,30
-30,-19,36,28,10,36,45,143,113,31
-18,29,59,27,0,10,-15,121,59,53
-9,16,31,3,-32,-25,-68,-44,1,65
67,33,-18,-26,-61,-51,-98,-170,-27,62
80,32,-22,-25,-84,-57,-122,-349,-113,52
25,-11,20,-10,-68,-59,-141,-386,-172,39
-1,-74,32,3,-37,-41,-138,-282,-157,14
0,-100,8,-37,-55,-58,-164,-144,-58,7
-12,-101,-17,-33,-36,-28,-130,-192,15,40
21,-26,38,28,9,11,-98,-323,-28,15
126,165,77,39,52,24,-56,-98,0,-14
240,430,116,60,109,71,27,127,62,-11
63,194,83,38,52,42,27,113,-10,-67
-94,-93,-3,-29,-19,-21,-68,117,-190,-121
-113,-173,-72,-58,-29,32,115,375,22,-84
5,-50,-34,-13,10,99,248,495,47,-35
45,130,118,120,93,99,36,170,-195,-65
44,14,81,121,97,92,-47,-2,-65,-9
98,-65,-74,28,73,91,38,56,158,82
3,-69,-1,50,50,54,6,-70,53,24
-65,-62,64,86,48,43,-12,-106,16,-15
-147,-19,60,51,15,46,40,198,143,-25
-115,-22,-3,-28,-50,-7,71,404,253,-12
-48,33,21,-24,-60,-36,26,263,196,5
-40,-18,12,-14,-57,-43,9,99,111,7
-42,-53,-25,-15,-47,-32,60,106,82,2
-46,-78,-49,-38,-53,-6,114,154,72,13
-70,-132,-88,-80,-70,-16,108,104,44,-2
-90,-111,-86,-54,-47,-5,80,-16,-12,-44
-78,-128,-105,-61,-48,3,78,-70,-46,-27
-35,-94,-43,-21,-17,23,47,-117,-72,-14
8,-46,-22,-22,-7,8,-41,-120,-66,0
47,35,-3,-6,13,-11,-106,-57,-53,-7
153,286,54,25,56,-18,-152,-52,-18,-28
178,324,-19,14,37,-23,-169,-81,10,6
84,94,-52,-20,3,-5,-138,-144,11,35
75,92,-36,-43,-10,19,-88,-202,-21,-6
49,227,-23,26,36,49,-33,-170,-63,-75
28,194,33,67,30,5,-27,-100,-80,-102
11,38,32,21,-12,-15,0,-52,-56,-73
-47,-61,-5,-2,-5,7,50,-54,-52,-60
-95,-222,-89,-30,12,50,68,-136,-61,-64
-103,-203,-86,-2,14,46,62,-246,-100,-83
-62,-133,-44,5,21,28,16,-325,-118,-77
-107,-138,17,11,49,54,-6,-347,-158,-108
-120,-115,32,37,59,62,5,-213,-163,-114
-80,-62,8,12,34,38,47,50,-85,-77
-26,20,-28,-21,-18,6,77,156,66,-46
36,116,43,-70,-82,-16,127,310,190,-8
53,67,50,-124,-138,-36,90,227,151,29
86,40,8,-163,-178,-81,1,26,118,42
13,-53,8,-31,-67,-50,-20,-70,98,19
-98,-176,-40,127,130,26,-2,-135,34,-16
-97,-205,-135,89,147,59,71,129,59,11
-67,-61,-64,93,128,95,100,38,-47,-16
15,134,37,76,90,57,85,-206,-144,-48
48,311,86,63,66,22,65,-57,-86,-56
52,177,74,24,33,-4,3,-77,-115,-19
-67,-123,-82,-76,-36,-13,16,-145,-107,17
-156,-180,-91,-68,-34,-32,34,-225,-37,-4
-114,-241,-125,-73,-44,-51,8,-135,52,6
-81,-179,-68,-47,-29,-17,73,312,167,22
47,-2,46,4,33,62,109,487,227,106
118,87,58,-19,11,37,29,291,119,92
85,53,23,-73,-56,-11,6,166,46,45
86,120,99,-28,-31,-27,5,110,0,70
92,5,48,-24,-50,-98,-37,73,-180,108
57,-34,36,134,13,-42,51,-36,-17,102
35,-16,37,55,-2,-14,14,-241,27,96
13,-54,-18,-148,-78,-29,-83,-446,10,108
70,59,-47,-193,-87,-44,-133,-431,5,81
142,236,41,-98,-17,-48,-112,17,106,65
62,49,88,-24,-1,-9,-47,205,119,80
27,-47,75,-12,12,62,26,2,-81,29
17,-61,43,-55,19,105,122,-28,-148,0
3,-15,49,14,44,105,144,-67,-124,-9
-39,-39,1,27,25,62,100,41,-75,-21
-20,38,41,23,20,14,29,104,-41,-30
46,201,108,56,40,4,15,71,-18,-27
-36,12,43,0,7,-1,45,64,11,-48
-99,-96,-82,-56,-48,-28,49,113,26,-103
-68,-29,-56,-29,-25,-31,22,-10,-73,-144
2,9,18,12,18,14,48,-88,-110,-115
25,54,0,-16,-20,-18,55,-46,-89,-97
-3,84,9,-40,-57,-57,15,-34,-82,-92
-14,45,45,14,-6,-9,47,-83,-35,-55
10,38,44,23,30,36,77,-217,55,13
38,8,5,-26,-15,-15,32,-279,159,83
-23,-53,40,58,49,38,12,-177,151,58
-52,-118,-71,21,23,32,31,-83,167,76
-31,-127,-129,-62,-49,-43,-13,-171,160,119
0,-82,-46,-89,-67,-90,-90,-281,199,153
51,37,-25,-95,-83,-117,-159,-486,205,170
94,148,-33,-92,-80,-125,-172,-562,138,117
43,30,-66,-64,-59,-85,-104,-288,31,49
51,18,-22,-19,-18,-13,51,482,53,35
-2,47,0,19,0,12,86,594,-25,-43
-60,-41,7,1,-18,0,42,206,-109,-74
-109,-199,-77,-63,-54,-14,22,143,-77,-69
-95,-205,-180,-89,-32,7,33,260,-64,-109
7,129,0,74,159,121,156,268,-103,-126
112,505,286,251,262,109,54,-57,-178,-146
50,119,108,58,45,-59,-85,-45,-119,-79
-95,-242,-84,-57,-26,-16,60,334,-8,-40
-63,-104,9,28,49,82,208,371,0,-18
-36,4,108,76,79,94,220,117,5,-2
-38,-28,102,77,68,78,146,6,-18,-14
-33,-62,40,41,51,44,93,-41,-108,-12
-10,27,68,36,43,26,39,-136,-117,0
20,-55,18,-6,10,-4,-32,-212,-99,24
-9,-70,0,3,29,-1,-82,-307,-111,20
-15,-29,25,34,48,13,-91,-353,-129,8
-2,-1,-2,19,12,-12,-112,-214,-86,-18
-13,-37,-40,-28,-31,-50,-91,24,-3,0
-37,-93,-42,-43,-42,-44,-24,22,-19,19
-27,-15,-29,-35,-28,-40,-25,-91,-26,-6
-56,-28,-20,-40,-33,-39,-61,-225,-14,-15
-86,-43,-10,-26,-40,-37,-124,-281,-27,-4
-32,39,-10,-16,-33,-43,-159,-160,-8,32
26,86,22,10,1,-32,-158,-172,-58,65
24,71,0,34,42,15,-76,-161,-128,58
-39,-49,-83,-7,31,70,92,480,30,31
-13,-40,-28,-22,37,70,154,793,183,14
83,248,52,16,73,38,139,596,159,-15
105,322,39,-5,55,2,103,368,115,-27
-15,71,49,-3,12,-24,101,204,42,-58
-95,-85,50,-3,3,-20,96,117,-26,-67
-95,-172,-15,-7,13,2,67,4,-30,-33
-62,-133,2,29,11,7,-2,-136,-42,16
1,-5,16,12,-35,-48,-112,-176,-79,13
78,188,36,-42,-80,-87,-191,-97,-74,4
114,262,-6,-74,-58,-76,-199,-23,-26,13
65,100,35,-1,1,-21,-169,-58,-66,-9
93,80,34,-9,-19,-34,-142,-88,-64,16
49,-62,-79,-81,-68,-38,-68,-66,-21,26
-68,-201,-111,-54,-39,28,32,19,11,-6
-132,-238,-148,-7,-1,59,66,83,13,-49
-122,-100,-37,71,36,21,0,17,-24,-91
-47,59,5,29,0,-29,-14,3,-5,-56
-74,-139,-118,-76,-59,-37,12,-10,29,-30
-76,-115,-114,-72,-48,-14,1,-118,7,-74
-70,23,38,-4,-28,64,22,-171,-43,-109
-49,28,92,10,-60,165,40,-11,-10,-62
-48,-125,-30,-60,-80,167,60,330,135,23
-63,-124,-62,-40,-35,-28,60,386,133,8
-59,-71,-69,-42,-21,-210,102,335,107,-55
-33,-27,-34,-1,19,-79,156,226,94,-51
42,71,1,28,15,-6,75,-74,44,-33
85,117,-24,37,-1,8,-13,-269,1,-21
60,-11,-15,0,-37,-8,-43,-174,32,39
-8,-79,-22,4,-27,8,-9,15,44,54
-104,-85,31,43,6,-1,-28,-167,-36,-4
-52,-30,-8,28,-2,-61,-61,-115,-43,-30
82,229,-26,-24,-15,-120,-87,204,96,-47
126,364,-35,-62,-30,-125,-83,394,187,-34
121,390,109,89,95,31,42,386,144,45
108,98,138,126,109,109,85,18,-14,111
78,16,106,94,78,75,-11,-340,-136,106
51,27,163,113,50,38,-52,-420,-201,83
44,-71,71,21,-46,-5,-23,-338,-149,93
22,-91,36,-15,-70,2,15,-137,-36,94
-11,-130,-27,-42,-89,4,67,97,75,66
-53,-179,-150,-75,-91,21,121,235,139,44
-50,-90,-3,55,60,64,88,81,-8,-2
10,-81,4,56,123,64,85,118,-72,6
13,-125,-109,-56,15,31,54,94,-56,24
34,-46,-46,-15,0,47,36,7,-86,27
86,95,83,51,35,57,17,-134,-108,34
85,86,80,67,63,63,7,-226,-70,56
6,-28,33,67,45,43,-21,-154,-1,41
4,-27,-31,32,-14,-21,-92,-253,-30,7
-7,-67,-21,-32,-57,-51,-89,-270,-17,0
-72,-78,-84,-64,-64,-15,54,117,33,-50
-93,-65,-51,-59,-66,-12,105,296,39,-83
-46,-24,48,25,5,21,79,126,1,-35
101,166,29,51,78,66,84,-75,-11,7
114,188,30,39,74,61,55,-125,-7,-11
-4,-5,15,24,22,50,26,-138,-49,-23
31,77,10,-11,-16,-18,-37,-232,-87,-39
117,247,9,-36,-57,-46,-46,-318,-81,-44
60,252,159,75,4,-7,-20,-260,-10,-30
-9,10,181,122,55,55,8,15,104,79
18,-133,11,22,30,43,39,179,174,132
42,85,-46,-39,4,-7,37,182,199,67
10,82,-81,-64,-32,-37,26,433,257,27
-47,-98,-74,-22,-46,-25,29,408,174,19
-64,-149,-95,-33,-45,-13,13,88,14,-2
-73,-179,-120,-91,-82,-59,-42,-65,-46,-17
-31,-124,-71,-72,-53,-51,-96,-175,-93,2
-3,-79,-53,-32,-16,-1,-35,-16,-136,19
63,86,-56,17,39,42,53,106,-130,29
94,127,23,60,74,53,75,185,-86,32
-13,-71,54,62,57,45,56,164,-86,-5
-54,-157,0,22,16,27,63,38,-86,-8
-91,-161,-39,-16,-24,-7,35,-34,-43,16
-70,-122,-64,-45,-48,-15,11,-53,-6,29
-39,-79,-35,-25,-14,22,35,-44,26,17
-48,28,123,115,84,65,48,-19,16,-63
-31,114,145,122,70,17,-14,22,-15,-99
-43,-113,-51,-29,-45,-6,-3,110,37,-13
-21,-75,5,-9,-11,18,38,29,32,22
-36,-30,65,22,17,10,22,-89,-38,-23
-34,-90,5,-21,-29,-36,-18,-128,2,-5
30,-133,-90,-102,-79,-84,-39,-135,80,73
45,-37,0,-26,-9,-42,-26,-109,131,135
113,73,71,37,52,21,-27,-97,206,189
97,-25,5,-27,2,-23,-80,-219,144,156
18,-17,6,-26,-30,-52,-125,-271,30,49
17,52,-5,-21,-30,-36,-122,-183,-62,-17
10,70,-39,47,49,59,-40,30,-95,-43
16,32,-69,67,64,57,3,-9,-102,-4
17,-48,-67,30,23,17,9,9,-36,24
-20,9,-43,-27,-21,-31,50,315,51,-5
28,226,5,-13,21,-41,90,314,59,-6
0,131,41,-4,30,1,113,85,-13,-39
-103,-192,-80,-71,-55,-26,82,128,23,-97
-68,-187,-59,-33,-27,8,67,277,85,-101
-25,-43,42,29,40,51,20,131,-26,-82
16,21,72,83,89,65,-61,-79,-158,-67
34,83,36,80,80,39,-73,-128,-188,-70
12,125,90,30,42,-2,-65,-162,-168,-116
-37,-21,11,-14,-14,-26,-22,-185,-133,-109
-40,-193,-139,-84,-68,-13,38,-140,-53,-48
-75,-138,-46,-54,-21,-8,-3,-76,-22,-77
-118,-74,19,1,26,29,-17,-78,-38,-100
-26,-106,-24,5,26,74,24,-263,-47,-17
46,-12,75,61,48,51,-28,-309,-48,35
77,76,105,70,35,-14,-71,-163,32,52
31,87,46,36,-2,-49,-123,-197,72,9
-52,-73,-73,-34,-34,-88,-110,-21,-65,-42
-100,-105,-74,-59,-45,-50,67,236,18,-64
-70,-32,-97,-19,-21,6,144,274,119,-28
-27,-13,-55,0,-1,44,93,349,117,-11
13,1,49,16,24,44,19,218,68,0
37,40,78,54,37,47,-46,-76,-23,12
87,211,111,57,44,29,-22,-110,9,28
194,465,123,32,57,1,-32,-36,87,43
166,383,73,7,31,-15,-37,-9,81,44
38,102,47,15,-15,-4,-40,-49,9,17
40,88,75,26,-30,-18,-54,-67,-47,0
57,44,75,18,-29,-10,-34,-49,-37,45
7,-29,80,0,-49,-17,-27,-49,-37,69
-15,-59,61,-46,-82,-51,-60,-48,-27,64
-41,-123,-3,-53,-66,-49,-59,-49,-31,38
-30,-142,28,-11,-22,-5,-66,-151,-66,34
14,-108,11,-23,-33,-22,-86,-262,-52,36
-15,-53,52,0,-24,-15,-70,-334,-64,-33
-29,-31,66,65,36,4,-71,-391,-75,-60
-32,-54,-57,-13,-38,-31,-84,-100,51,-5
-28,-55,-92,-80,-97,-72,-64,226,177,16
6,161,-55,-64,-68,-72,-14,295,151,-51
11,190,-30,-43,-71,-61,37,601,122,-69
-68,-32,-5,-17,-90,-58,24,630,64,-60
-182,-195,-64,14,-18,-2,7,240,-52,-108
-167,-199,-53,-19,3,32,45,0,-93,-113
-110,-48,19,-31,-12,3,66,-11,-63,-104
-78,43,137,36,27,30,84,72,-25,-96
66,120,153,77,95,111,127,40,41,19
127,96,33,-3,57,87,55,-57,78,65
47,-104,-51,-90,-29,28,-50,-45,57,52
30,-116,-65,-105,-76,-48,-161,-43,-129,23
45,-62,-35,-56,-54,-12,-46,-104,-6,62
20,0,-42,-34,-43,-13,10,-167,31,70
-38,-44,-161,-55,-64,-31,-11,-92,-14,21
-33,42,-58,-54,-67,-20,-4,46,-12,-6
-19,168,25,-76,-97,-35,-42,152,53,-36
-32,108,54,29,-20,9,-41,95,42,-13
-20,58,69,97,48,56,-51,-23,-2,4
0,39,0,19,14,26,-65,-132,14,40
-4,47,-52,-21,8,-4,-102,-224,-3,30
-65,41,24,80,69,20,-70,-230,-41,-15
-91,-189,-4,71,64,19,-31,-46,79,27
-25,-248,-84,37,57,9,-25,73,138,58
86,-4,-65,179,114,12,51,268,121,55
57,-68,9,190,128,92,148,253,71,93
77,-80,21,-9,54,133,198,268,73,154
74,-67,-9,-118,-29,79,158,189,39,159
35,-59,-4,-54,7,65,96,27,-37,110
-17,-78,-2,-7,15,40,37,-86,-76,65
8,-49,-9,-11,4,27,20,-114,-69,82
89,111,-64,-10,11,7,4,-70,-33,92
59,61,-82,-7,-1,-4,-4,-76,-48,64
-15,-38,-30,-17,3,26,45,-90,-80,15
-27,-41,8,-13,10,32,43,-114,-61,-10
17,-4,-10,-12,0,-5,-21,-134,-44,-20
67,15,-100,13,24,-12,-50,-174,-35,-17
68,84,-68,42,58,19,-40,-245,-104,-77
73,154,36,18,34,-23,-49,-132,-119,-105
-5,31,-73,-90,-44,-86,-23,44,-57,-80
-174,-165,-234,-156,-93,-66,88,33,-46,-135
-171,-17,-205,-90,-52,-27,82,-86,-103,-185
-96,94,1,-17,-26,-42,5,-105,-65,-140
-98,-65,20,-34,-37,-45,-53,-262,34,-76
-127,-230,-53,-77,-46,-23,-99,-149,122,-47
-23,-92,30,-10,22,25,-109,195,105,3
139,269,162,92,116,26,-109,289,83,22
176,387,117,42,96,-22,-87,315,64,-6
128,332,76,21,100,21,36,404,65,-14
36,138,-33,24,110,95,150,295,13,-38
17,-66,-163,0,79,96,167,272,-147,-50
38,56,46,70,65,43,-3,117,-267,-70
12,36,128,58,7,41,-48,-113,-87,-19
-9,-62,23,-27,-42,111,-5,-102,-49,57
-8,-98,10,-38,-35,211,66,-2,-57,126
-10,-99,66,13,11,179,72,11,-54,120
-13,-119,31,-2,12,-105,-10,-31,-21,58
-42,-122,-6,-10,-10,-213,-49,-41,16,3
-41,-87,-8,-16,-23,-127,-37,-63,43,-16
-53,-98,4,-30,-39,-81,-24,-128,22,-23
-46,-103,-23,-55,-49,-53,13,-117,39,-34
-8,20,-34,-67,-49,-77,8,-98,92,-87
-50,-42,-83,-57,-58,-76,-33,-142,85,-93
-89,-43,-115,-22,-50,-53,-1,-25,99,-72
-107,-57,-78,-40,-77,-68,27,195,178,-39
-75,21,29,18,-31,-64,-71,61,92,-62
-7,4,57,62,20,19,-14,12,9,-26
50,-12,58,90,75,94,106,28,17,40
152,202,134,101,122,104,148,-32,7,78
285,484,162,95,120,56,58,-133,-24,82
210,301,59,62,82,16,7,-94,-73,65
53,-27,-10,34,36,13,47,-3,-71,65
-11,-46,45,33,13,29,78,32,-27,41
-42,-36,50,12,-6,19,59,30,34,17
-30,-67,-20,-25,-35,-31,-7,-7,41,24
0,8,-1,-6,-6,-24,-60,-62,-41,10
3,77,21,7,28,18,-24,-45,-71,-23
-69,1,42,55,59,67,9,-53,-76,-32
-113,-47,38,85,73,59,-5,-119,-48,-15
-84,-123,-21,5,-1,-12,-70,-156,-1,17
-41,-181,-82,-57,-52,-42,-109,-140,52,40
-72,-159,-65,-53,-38,-33,-100,-75,84,21
-86,-112,-34,-19,-15,6,-55,26,89,23
-5,3,-25,-17,0,6,0,52,100,69
67,99,-42,-19,11,0,41,76,65,55
1,-3,-10,0,-15,27,78,313,5,4
-40,-46,-15,-20,-45,24,94,404,-15,-19
-10,31,-6,-37,-57,-11,-1,47,-94,-55
12,19,-26,-13,-40,4,-78,-140,-93,-53
-16,-56,-167,-9,-23,32,-103,-140,-43,-40
-10,46,-110,32,8,48,-98,-105,-52,-51
68,217,-24,28,18,24,-85,-45,-1,-32
63,69,-27,-55,-59,-21,-85,22,75,14
50,135,17,20,-16,18,-56,-37,54,24
81,131,40,50,6,53,-43,-217,-42,44
-42,-18,33,-38,-58,-12,-66,-288,-99,0
-138,-173,0,-70,-82,-67,-67,-216,-33,-29
-121,-232,-87,-110,-98,-75,-37,-92,64,-40
-81,-127,-60,-65,-48,-36,32,249,196,-47
-8,4,92,83,48,46,69,406,204,9
72,0,93,74,33,7,-45,-36,0,41
151,44,102,30,0,-35,-166,-364,-124,56
148,-9,18,-20,-30,-9,-125,-262,-45,88
36,16,52,38,9,23,-40,-47,-14,-8
-58,57,117,56,-4,-8,-15,179,-21,-113
-101,-24,14,-15,-71,-30,59,581,141,-70
-31,34,-115,-85,-64,-42,116,535,195,-23
5,114,-51,-48,-12,3,121,313,98,-46
-23,-23,39,25,21,64,86,-2,-54,-64
-36,-90,50,34,10,70,5,-205,-171,-67
-18,-76,36,32,18,66,-39,-8,-146,-25
-17,-75,-2,13,-9,0,-61,79,-68,3
-15,-61,-89,-26,-57,-61,-88,34,-26,-10
-23,-58,-108,-54,-58,-59,-28,102,47,2
3,-89,-56,-51,-39,-10,76,62,72,51
72,-23,18,17,5,37,47,-243,-3,93
121,134,58,0,-23,-25,-99,-401,-37,88
148,166,93,-12,-50,-74,-150,-390,-40,92
111,83,133,88,43,-7,-133,-432,-55,86
67,93,175,142,68,-9,-167,-512,-77,71
34,15,63,41,-1,-27,-38,-164,89,90
-2,179,29,35,41,4,136,218,258,4
-72,112,-16,25,7,-6,98,148,180,-82
-135,-115,-71,-38,-70,-23,163,248,89,-101
-74,-124,-35,-5,-44,8,185,223,0,-60
-25,-97,1,27,-5,47,134,98,-70,-50
23,-61,50,47,9,50,63,90,-141,-60
14,-48,41,24,-5,45,84,157,-152,-75
14,77,35,-2,3,22,76,156,-144,-106
-12,53,12,-39,-43,-30,-21,-3,-137,-137
-54,-35,-16,-38,-73,-50,-62,-132,-129,-118
-22,1,-34,-44,-85,-93,-87,-179,-96,-76
-39,1,-42,-67,-89,-105,-134,-193,-105,-74
-18,44,1,-31,-41,-82,-167,-139,-66,-32
37,28,50,-8,-8,-44,-123,-23,28,58
27,-34,32,0,-6,-41,-70,221,113,65
-6,-48,30,21,20,-11,-9,301,122,29
-93,-150,-91,-58,-24,-16,55,185,25,-46
-81,-114,-144,-86,-28,11,173,297,14,-48
0,44,65,65,82,109,196,175,-45,3
103,50,96,101,114,125,151,-122,-96,75
81,-8,68,46,82,95,116,-304,-53,94
24,0,54,43,60,58,60,-307,-42,38
60,116,72,35,42,52,56,-206,11,14
92,103,71,26,0,42,72,-119,55,58
98,22,-1,-36,-81,-67,66,-13,43,111
66,93,-12,4,2,-27,37,-148,-48,60
28,109,97,60,77,55,40,-320,-85,24
-13,70,110,39,52,16,4,-343,-65,0
-10,2,52,-6,-1,-27,18,-1,47,22
45,-55,-46,-58,-26,-38,108,478,191,99
128,120,-161,-53,17,-26,97,418,224,128
94,215,-59,-11,34,-30,0,173,131,47
-30,-3,1,-17,-9,-24,-2,10,6,-39
-89,-66,5,-9,0,23,33,-48,-37,-58
-105,-50,4,-11,-3,25,25,-47,-44,-64
-102,-76,16,5,0,15,21,-16,-24,-70
-89,-99,39,34,20,15,18,0,-12,-70
-43,-53,0,-26,-31,-12,32,37,58,-32
-66,-122,-81,-94,-105,-52,33,95,97,-27
-77,-144,-77,-101,-109,-40,33,123,30,-66
-63,-107,-61,-69,-86,-35,36,140,-6,-89
-38,-67,-45,-35,-58,4,49,121,1,-59
-26,-76,-32,0,-14,52,33,1,7,-21
4,-25,34,16,-7,28,-18,-121,-24,0
53,46,12,36,23,34,-28,-212,-77,29
104,260,33,73,68,48,-29,-182,-65,66
83,195,35,27,42,37,-26,-70,-11,90
23,49,32,-11,0,27,-57,-53,-34,50
59,69,12,-29,-32,-16,-101,-60,-53,32
23,66,12,-5,-24,-26,-95,-49,-51,30
-24,34,92,51,16,-3,-42,-123,-55,46
-36,-105,-27,-49,-37,-44,-37,-200,3,97
-46,-73,-79,-79,-39,-36,-60,-196,38,101
-43,1,-55,-65,-30,-40,-113,-197,-6,93
-37,31,-13,-20,-8,-43,-160,-232,-62,99
-69,-83,-5,2,15,-25,-53,114,66,83
-55,-211,-77,-45,-27,-33,28,438,207,87
-3,-161,-46,-46,-38,-55,-58,118,122,89
26,-59,-3,-65,-90,-57,-62,-63,30,72
51,36,17,-91,-111,13,48,173,34,34
118,274,44,-61,-60,180,164,460,111,12
57,124,36,-65,-88,205,165,268,85,1
-85,-120,-89,-17,5,-23,49,77,51,-93
-169,-132,-103,69,144,-230,-114,-102,-6,-196
-85,-56,9,71,133,-125,-136,-62,-17,-126
58,9,96,122,178,43,19,257,-10,6
75,30,94,113,157,68,83,303,-37,9
56,118,73,109,146,55,92,107,-60,-25
-21,97,56,91,126,69,114,31,-79,-89
-70,18,57,69,92,59,96,-2,-81,-146
-30,9,78,69,72,36,64,-58,-77,-130
18,-102,-60,-27,3,-18,40,-52,-23,-48
-23,-85,-55,-8,7,-13,10,-45,-19,-35
-29,-10,-39,-12,16,-21,-34,-60,-39,-28
-10,48,-22,-30,2,-30,-35,-41,-27,-4
29,100,80,27,27,-3,-27,-133,-42,0
86,16,56,2,-7,-52,-108,-334,-61,51
112,-88,-44,-51,-48,-90,-172,-405,-32,104
55,-58,-12,-11,-28,-53,-165,-405,-5,90
31,-8,-39,-48,-70,-65,-139,-249,40,75
-48,-26,-40,-44,-64,-36,-47,-40,74,-2
-89,-24,15,-6,-29,-1,76,-4,55,-54
-14,92,-21,-35,-25,4,127,50,81,-55
-2,225,37,21,25,60,186,281,110,-105
-61,105,138,138,65,104,156,301,52,-89
-70,-99,-62,106,63,100,32,82,12,-32
-52,-131,-149,10,-3,35,-85,-110,-62,-48
-40,3,15,40,-18,-22,-151,-296,-136,-81
-30,-33,3,6,-47,-20,-70,-175,-95,-64
-14,-81,-30,-33,-24,25,137,219,-4,-13
26,34,16,10,58,109,289,387,29,17
-52,-94,-15,29,46,125,207,12,-36,26
-50,-56,-41,38,38,76,65,-142,-62,31
-34,-45,-12,21,24,34,15,137,38,57
4,-10,80,42,24,22,18,154,40,70
8,-49,-8,-46,-52,-44,51,136,93,62
-2,-109,-94,-82,-54,-26,106,208,139,27
42,18,-27,16,23,16,52,127,13,-26
58,144,10,37,19,-21,-19,11,-92,-53
55,48,27,7,26,2,-25,-125,-115,14
5,-34,44,0,21,30,1,-146,-86,22
-18,-29,-26,-26,-46,-29,-17,-187,-83,-18
-30,-19,-84,-14,-43,-49,-22,-165,-91,-34
-15,-8,-24,-31,-39,-33,2,67,-53,2
19,34,18,-31,-24,-24,42,209,21,36
77,73,-4,-12,13,21,84,262,106,108
68,-5,-28,5,14,50,61,117,69,133
24,-34,22,0,4,34,1,-82,25,86
1,-40,0,0,-1,29,-27,-110,48,41
-27,-63,-6,-5,-10,4,-25,-33,86,9
-55,-60,2,6,10,16,11,-44,34,-48
-14,3,6,-14,-7,10,0,-64,-26,-57
124,213,27,-7,16,26,9,88,0,-17
129,328,108,62,65,27,-15,45,-14,-37
42,70,64,34,-4,-4,-79,-79,-66,-39
27,-57,1,4,-27,-3,-32,-14,-50,-50
-8,-61,34,30,-7,2,38,53,-58,-67
-54,-170,-52,-33,-28,-1,60,94,-20,-34
-82,-157,-72,-57,-46,-13,29,76,28,-32
-46,-18,-26,-22,-35,-33,-10,-5,20,-56
3,40,14,1,-12,-23,-29,-135,-12,-43
5,-16,21,-8,-19,-25,-54,-203,-9,-17
-12,-27,26,-3,-15,-34,-49,-140,21,-30
-18,-35,7,-6,-14,-12,-29,-64,38,-39
-32,-32,1,8,-2,-8,-27,-59,43,-39
-47,-18,15,16,8,-3,-25,-116,21,-33
-14,14,-46,10,14,16,-23,-150,17,-14
48,178,-55,9,46,37,30,-69,42,0
87,292,40,-1,53,37,67,20,71,5
8,82,14,-7,14,2,28,27,48,-16
-56,-71,8,-5,4,-37,-31,-82,16,-28
-51,-73,21,-1,22,-30,-69,-145,0,-14
-49,-83,17,-7,5,-40,-113,-106,-13,-12
-49,-87,-6,-50,-24,-42,-119,43,3,-7
-13,-28,-16,-48,-39,-15,-32,173,21,21
34,25,54,116,17,2,19,71,-2,53
4,-28,-8,25,-19,-1,8,5,-15,34
-14,-47,-51,-128,-55,20,0,61,19,39
-8,-51,-103,-85,-26,9,-16,14,3,45
-14,-39,-157,-53,-20,-12,-39,-61,-16,19
1,-13,-63,-75,-49,-19,-52,-11,-1,25
50,41,6,-49,-50,-25,-40,-59,-3,30
111,280,103,23,1,-22,-69,-219,-38,-20
65,268,96,8,-15,-23,-93,-92,-18,-47
-16,2,21,-47,-64,-26,-55,351,90,-12
57,-35,-17,-135,-124,-66,-180,313,-75,27
53,2,35,-148,-132,-78,-175,143,-80,31
19,-42,52,-101,-83,-10,-32,138,45,38
-35,-134,-18,117,36,2,-1,100,15,14
-53,-29,-33,234,74,-49,-7,140,12,-25
7,95,-52,-21,-70,-76,80,280,79,13
-25,-49,-150,-196,-158,-33,119,288,106,31
4,-48,-136,-205,-185,-29,85,232,101,27
-5,1,20,-27,-58,35,48,-5,0,20
-41,-35,124,138,144,71,-10,-208,-44,28
-23,-116,-4,36,139,58,-66,-306,-33,51
-20,-105,-93,-68,30,10,-59,-132,19,12
12,65,81,38,70,12,-59,158,124,-9
55,139,191,122,95,45,-91,111,151,50
13,32,8,16,23,12,-96,-42,144,112
-16,-4,-87,-41,-20,-17,-35,-77,125,107
20,64,-23,-15,-10,-23,-43,-121,69,51
16,104,27,23,-5,-40,-49,-117,-25,-7
-10,49,-25,-3,-17,-12,39,72,-48,-31
4,61,-3,1,-1,8,77,6,-53,-22
114,201,-11,-4,11,-22,56,-36,-24,-25
81,157,-33,6,43,19,46,140,-1,-26
-35,-10,-74,19,62,73,34,151,-38,-37
-9,28,-32,8,16,34,10,9,-94,-28
-8,-26,-128,-11,-21,-12,-2,-2,-37,11
-40,-109,-123,-32,-43,-31,-28,89,49,24
-52,-160,-131,-100,-89,-57,-22,220,109,34
-51,-8,-69,-6,-16,-5,37,236,73,2
0,-43,11,65,13,14,47,-11,-15,60
-23,-271,-65,-21,-31,11,49,-273,-58,158
-26,-272,-58,-31,-26,24,34,-353,-226,115
44,-121,-96,-44,-56,-13,-6,-334,-360,36
53,149,-50,0,-54,-30,22,-304,-186,-45
38,181,41,63,-12,-10,-42,-307,-129,-49
38,145,106,106,44,-14,-109,-303,-76,-28
47,-11,19,34,10,-28,-117,-231,-11,5
-39,-207,-40,-40,-52,-36,-81,-183,16,-14
-58,-145,-76,-40,-69,-62,-69,-186,35,-41
-88,-42,-10,30,-23,-57,-1,7,69,-64
-65,-30,17,69,32,-17,59,189,82,-41
-69,-65,10,25,14,-18,34,140,68,-28
-74,-32,9,72,61,35,31,5,18,-27
21,118,20,71,96,37,20,-128,-22,-56
30,117,42,13,42,23,30,-141,-63,-100
-16,-23,50,-14,-1,137,148,128,-30,-91
-8,-30,70,25,18,284,249,507,41,-74
-15,-61,95,53,33,228,160,334,-18,-69
-71,-186,-50,-41,-30,-139,-53,-51,-251,-103
-137,-142,-92,-51,-42,-241,-18,-279,-103,-125
-94,-10,43,-8,1,-105,3,-234,-37,-117
-17,-4,86,14,23,-5,64,115,40,-58
22,-8,83,36,33,68,215,579,163,49
14,-15,66,4,-2,32,204,577,194,73
-14,-40,3,-20,-27,-19,113,326,116,45
-27,-34,-20,-29,-25,-28,69,113,48,15
-2,-12,41,-2,-11,-25,34,-140,13,28
53,53,90,33,55,18,6,-278,-13,53
162,315,184,107,160,65,-53,-353,-8,71
138,314,198,123,145,46,-155,-461,0,78
76,120,139,72,62,7,-185,-306,110,88
63,12,64,10,27,6,-65,277,314,100
54,-52,36,-18,5,15,-5,339,232,79
12,-60,15,-44,-28,0,-6,238,94,39
-19,-55,-31,-46,-16,-6,17,218,8,-5
2,0,-63,-34,19,7,35,221,-5,-19
33,24,-18,-52,-1,-3,-1,173,-14,-1
30,-44,-19,-62,-47,-30,-78,-25,-53,-4
66,-29,-9,-35,-20,-12,-121,-342,-135,-8
61,33,24,27,38,21,-103,-525,-217,-46
40,93,35,26,44,12,-70,-500,-182,-69
16,165,133,67,83,29,-60,-519,-133,-74
12,113,139,58,76,43,-43,-221,-49,-24
-12,-6,7,-12,33,40,28,541,217,35
-67,-132,-36,-9,23,16,-29,462,268,44
-77,-129,-7,-28,-30,-80,-142,131,204,20
-66,-141,-64,-79,-76,-98,-94,235,256,9
-45,-112,-140,-82,-66,-61,-24,264,224,27
2,-52,-44,-6,22,43,40,-37,63,23
42,8,51,60,95,133,138,-177,-74,10
50,89,34,42,86,124,204,-1,-161,-52
137,291,24,28,79,79,184,19,-204,-67
135,228,-5,26,46,40,87,-50,-178,-25
36,-2,-1,15,1,31,36,-60,-118,0
0,-42,10,2,-8,67,76,53,-53,15
-2,1,7,9,0,173,113,129,-7,26
22,-13,-44,-39,-45,203,47,72,-46,31
56,-41,-82,-97,-97,86,-56,16,-161,58
57,50,-31,-58,-61,-146,-158,-61,13,74
23,52,11,-10,-12,-175,-235,-103,29,54
31,64,-15,-33,-26,-80,-145,-17,42,27
20,43,-35,-59,-58,-113,-183,9,-142,-10
-35,28,0,-20,-28,-73,-115,-6,-92,-19
-64,-57,-48,-24,-1,-19,17,9,43,16
-34,-52,-35,2,13,-1,63,77,54,28
33,130,136,107,74,33,67,227,95,61
55,36,93,83,61,19,2,200,152,107
-13,-104,-62,-26,-20,-36,-47,31,111,79
-79,-85,-76,-58,-44,-81,-92,-229,8,7
-96,-5,15,-38,-63,-131,-165,-439,-67,-41
-93,-77,9,-38,-87,-152,-171,-437,-68,-37
-11,-153,-52,-1,-29,-86,-118,-329,-41,14
86,-65,-34,63,58,-3,-58,-249,-27,55
175,225,109,112,134,55,-17,18,21,40
133,200,102,116,125,82,-11,0,-13,30
-7,-28,15,29,36,57,-42,-240,-102,-24
-102,-135,-48,-68,-58,-11,-52,-189,-102,-77
-114,-145,-63,-101,-84,-52,-39,-66,-102,-84
-80,-123,-69,-84,-79,-49,5,275,-68,-67
-42,-76,-47,-51,-48,-9,106,755,59,0
41,32,23,-11,-1,12,130,515,57,52
89,120,100,62,44,9,39,23,-31,44
112,138,101,74,50,17,-33,-260,-82,41
94,116,46,4,2,28,-3,-339,-126,44
27,87,80,-9,-34,43,68,-294,-122,2
-51,-74,15,-56,-83,38,130,159,40,-54
-83,-193,-100,-123,-139,-54,143,663,254,-31
-90,-140,-115,-90,-65,-73,47,436,259,8
-3,52,-82,-24,38,-36,-51,80,203,39
19,38,-69,-22,17,-37,-80,-68,42,10
-12,52,-32,0,9,2,-18,50,-89,-48
-24,138,55,74,70,85,79,78,-162,-66
-29,223,215,151,105,86,90,5,-174,-54
-24,-23,91,74,52,59,62,7,-64,16
-41,-230,-67,-20,-4,40,54,61,21,38
-30,-124,-73,-12,2,19,33,88,23,8
-81,-27,-2,11,-14,-33,-20,33,-34,-70
-121,-134,-65,-10,-48,-49,-28,29,-22,-91
-116,-161,-66,-53,-49,-40,4,52,-18,-94
-143,-148,-54,-57,-53,-40,21,77,-40,-105
-111,-87,-20,-45,-38,-33,33,72,-63,-93
-47,-44,-1,-34,-19,-10,36,-4,-61,-49
-22,-47,-5,-30,-27,-13,-13,-158,-32,-5
15,13,9,-14,-34,-45,-72,-358,-5,49
61,11,35,9,-40,-36,-104,-642,-16,120
89,6,20,-8,-47,-57,-114,-672,4,166
106,52,50,24,13,-27,-83,-401,65,221
127,77,73,104,73,21,-27,-114,100,208
16,-7,28,64,47,28,54,177,30,53
-30,-43,7,47,51,53,129,424,-67,-24
87,141,48,83,102,56,40,328,-113,-16
208,393,89,107,131,43,-47,117,-89,-17
117,221,35,33,65,20,6,88,-40,-55
-45,-54,-23,-33,-21,24,73,141,-2,-79
-93,-103,-31,-13,2,78,141,173,21,-74
-97,-87,-5,29,31,80,156,143,35,-63
-82,-57,14,45,27,62,95,38,12,-63
-66,-46,-24,-4,-11,39,66,0,-14,-62
-28,-7,-52,-24,-18,28,49,14,-31,-71
4,0,-32,0,-17,0,-53,-59,-62,-72
68,60,-19,4,-15,-46,-98,-117,-79,-41
98,63,-53,-17,-34,-67,-53,-83,-46,11
80,0,-136,-7,-38,-70,-12,-53,2,28
34,12,-61,64,-5,-41,-20,-62,-8,0
-41,-48,38,44,-20,-39,-7,-34,38,18
-20,1,-34,-18,-27,-24,28,20,109,50
-43,-10,-39,-26,-46,-46,13,28,107,21
-97,-27,0,5,-18,-26,-24,-4,50,-33
-84,-65,-66,-19,-12,-14,-76,-51,10,-34
-77,-76,-18,-27,-36,-47,-113,-42,0,-9
-89,-88,-9,-20,-25,-48,-99,8,0,-12
-97,-77,-14,2,2,-29,-80,-10,-13,-29
-55,12,40,40,50,46,-17,-217,-70,-18
65,232,79,48,86,54,51,-418,-83,-7
-54,43,-85,-23,-9,-12,33,-319,-26,-49
-149,-148,-85,-67,-71,-21,24,-198,-47,-66
-114,-131,-27,-45,-34,41,83,260,-25,-16
-75,-59,-44,-1,4,58,147,880,101,38
4,-5,20,38,36,50,144,632,29,60
62,8,97,51,61,45,106,119,-91,54
103,69,109,66,72,45,29,-171,-99,56
63,31,85,49,40,35,-20,-60,-31,37
34,-5,56,25,13,45,-16,23,-26,18
28,5,38,6,4,25,-20,-17,-42,18
15,16,25,-16,-12,-9,-84,-40,-28,20
-5,31,45,-1,-18,-35,-127,-87,-35,4
-18,-30,-2,-24,-32,-21,-87,-53,17,29
13,-27,-41,-64,-38,-22,-28,47,97,53
107,163,18,-23,6,-7,13,75,98,60
133,143,44,6,17,24,-2,-64,41,70
105,32,-44,-36,-22,46,9,5,75,107
84,-44,-99,-51,-6,109,125,281,197,169
41,37,47,88,70,243,134,163,120,137
82,234,240,153,50,239,9,-57,-26,87
96,-10,28,-68,-121,-33,-83,-33,36,169
59,-122,-96,-97,-92,-288,-110,-15,60,108
-6,-144,-87,-48,-39,-218,-108,-64,32,37
-18,-119,-24,-33,-34,-107,-94,-190,-19,1
-27,-93,-13,-33,-43,-88,-70,-256,-44,-42
-76,-109,-33,-26,-44,-85,-48,-226,-55,-84
-81,-118,-33,-25,-48,-68,-32,-173,-63,-94
-59,-113,-32,-20,-45,-90,-103,-182,-55,-90
-48,-95,-45,-12,-18,-91,-149,-124,-84,-138
-44,-75,-50,-13,-1,-48,-120,-88,-203,-185
-87,-138,-72,-28,-12,0,-41,4,-236,-197
-76,-116,-32,-12,10,47,81,145,-167,-147
51,-5,46,57,63,87,93,219,-98,-18
103,44,101,103,111,89,20,214,-41,28
57,23,68,78,87,48,-20,135,11,2
38,2,30,51,41,13,-39,28,28,-12
75,154,5,25,43,22,-15,13,49,-32
134,408,32,14,56,11,-5,-70,-7,-61
113,360,85,43,44,-16,-46,-183,-70,-68
38,96,34,19,0,-5,-34,-100,-29,-11
2,-79,31,24,30,50,34,144,30,40
15,-122,-6,-5,39,34,13,156,-21,46
-31,-172,-136,-24,12,-24,-70,28,-182,20
-22,-92,-186,-20,1,-3,-1,15,27,47
39,-21,-128,-35,-10,22,40,64,103,75
34,28,-40,-48,-40,-20,26,146,92,39
16,-25,-60,-73,-53,-49,22,186,103,30
-66,-36,45,31,16,9,54,168,113,20
-113,-78,31,-3,-19,-30,46,86,146,59
-94,-126,-56,-87,-71,-68,4,-63,166,108
-65,-101,-42,-105,-72,-80,-78,-272,103,88
-30,14,-41,-81,-46,-88,-156,-347,69,58
-63,-66,-62,-80,-71,-127,-213,-390,58,75
-70,-117,-36,-54,-73,-113,-211,-369,75,88
-48,-38,14,-10,-47,-89,-134,-203,119,41
-115,-45,1,-3,-45,-65,20,-37,104,-100
-140,-53,48,36,17,13,175,455,135,-160
-71,-37,67,89,115,130,303,691,90,-90
25,70,79,132,158,180,376,675,72,-41
133,304,122,153,183,170,320,364,52,-48
100,276,125,138,161,145,226,79,-45,-78
-11,62,82,76,71,80,92,-22,-103,-88
-36,-15,10,18,0,32,-16,-42,-73,-74
-52,-85,-71,-69,-50,22,-20,20,8,-47
-84,-108,-60,-89,-53,11,36,70,11,-78
-99,-52,-31,-33,-30,-5,57,31,-36,-105
-74,-17,-52,0,-1,20,65,-17,-31,-69
-45,-15,-25,17,1,33,45,-110,-26,-26
-20,-17,10,12,2,36,-5,-138,-41,8
13,-24,-19,10,-2,13,-47,-149,-68,45
10,-37,-23,-33,-61,-38,-61,-206,-103,34
-15,-32,-26,-43,-75,-33,-58,-261,-141,-2
-40,-38,10,-19,-54,-30,-55,-209,-130,-22
6,29,14,-42,-84,-26,-30,-13,-47,-19
146,210,-2,-20,-36,62,71,183,58,42
149,194,33,-15,-51,78,81,116,34,57
152,257,51,-48,-135,-18,-28,-80,-40,40
114,230,17,-35,-95,-63,-101,-153,-26,43
-11,22,63,79,109,0,-58,-105,6,40
-49,-236,8,5,68,4,-3,-33,56,87
-35,-284,-64,-76,-28,-7,23,8,53,86
-31,-36,-1,-32,-6,8,33,10,3,10
-72,-16,44,190,71,21,31,-11,-19,-15
-54,-53,53,168,50,2,-20,-74,-24,4
-29,-25,44,-26,-10,1,-81,-197,-38,0
-41,-31,32,-77,-33,3,-125,-294,-66,-31
-69,-51,12,-49,-25,-14,-139,-358,-98,-64
-93,-81,-27,-29,-34,-38,-109,-292,-93,-85
-87,-40,-37,-57,-58,-39,-47,0,-3,-73
7,64,19,-41,-39,-31,-19,189,41,0
99,131,56,-35,-40,-4,9,285,63,55
101,141,63,2,-2,28,-3,156,52,59
21,18,30,56,52,34,-39,-50,32,2
-56,-133,-109,-23,-7,-2,-15,-32,47,-42
-76,-148,-111,-79,-64,-35,28,14,-13,-80
-32,-90,-85,-60,-32,-1,132,189,-27,-44
61,78,-63,-46,7,24,188,230,15,-8
101,168,-18,-7,31,31,129,-66,36,3
27,52,-9,-12,12,1,-2,-362,-40,-24
-42,-60,-39,-35,-23,-40,-32,-2,27,-16
-30,-65,-6,-5,0,-34,-59,344,135,39
2,-27,0,5,9,-41,-132,208,92,57
13,79,87,82,80,22,-38,319,-9,21
70,192,178,167,146,79,71,307,-93,-14
41,99,63,96,107,52,99,319,-47,-37
-5,-6,51,87,115,71,141,226,-32,-37
19,-40,3,21,62,44,90,60,-24,21
21,-108,-71,-55,-1,24,81,106,12,55
19,-12,-57,-75,-20,25,81,158,22,55
27,61,17,-37,-21,7,30,154,6,59
35,66,102,22,1,-36,-43,143,-8,53
30,1,-33,-80,-70,-95,-44,175,24,60
-1,-25,-127,-97,-68,-66,-25,129,-15,23
0,72,-61,-59,-45,-61,-51,-12,-103,-34
-14,22,-3,-45,-28,-22,-1,-61,-94,-27
3,-152,-54,-46,-29,9,31,-73,-36,21
27,-210,-134,-88,-66,-14,-35,-162,-23,41
24,-141,-95,-76,-65,63,-108,-325,-171,16
86,46,-48,-24,-29,139,-14,-281,71,18
162,308,33,35,3,-7,-20,56,232,-23
105,278,28,80,40,-231,-199,70,113,-60
19,-27,-95,65,50,-122,-142,-151,29,-4
-36,-64,-15,71,53,0,-47,-364,-82,-17
-26,-54,13,51,42,19,-40,-387,-143,-48
-23,-22,15,30,15,-4,-41,-189,-73,-73
-28,36,73,87,52,12,2,17,35,-51
21,91,140,130,82,27,-5,-20,11,16
21,-71,45,19,7,-55,-193,-275,-175,41
9,-46,37,20,-8,-47,-192,-489,-24,47
6,-4,53,62,19,6,-126,-451,13,39
13,-11,18,37,6,18,-22,-188,62,53
44,-2,21,19,-2,3,5,95,2,69
13,-99,-32,-49,-22,-4,5,278,-85,53
-39,0,-48,-66,-34,-1,132,531,167,8
118,333,12,-6,3,-20,128,643,227,25
178,340,63,29,-8,-29,37,386,165,65
102,21,-44,-40,-83,-54,-33,193,28,80
55,-84,-89,-48,-72,-73,-60,150,-50,59
13,-67,-33,22,18,-12,2,-42,54,39
-49,-104,-36,29,63,39,15,-197,-37,-23
-37,-89,-142,12,64,50,26,-256,-103,-46
37,118,-78,61,114,67,50,-309,-118,-48
-47,16,46,84,107,77,6,-389,-181,-86
-87,-85,65,69,77,55,-42,-308,-337,-105
-33,-13,78,79,81,57,34,-48,-191,-82
-52,-8,73,68,86,52,81,61,-61,-92
-120,-126,8,11,31,-5,-8,96,-117,-131
-99,-125,-22,-2,0,73,-33,74,-67,-110
-7,10,0,41,36,215,21,-97,70,-33
21,27,3,43,38,167,12,-169,57,9
-42,-68,-138,-8,-23,-129,16,-111,25,-24
-68,-113,-98,-62,-78,-241,7,-40,-164,-42
-58,-102,-26,-73,-103,-88,115,81,-114,-31
-43,-57,24,-23,-74,-32,201,30,76,-3
-17,-61,12,-14,-3,-39,113,-135,24,-19
-13,3,15,-20,10,-5,82,152,91,-21
80,190,32,-26,10,-6,-11,262,-2,23
141,288,93,8,39,-17,-41,95,0,61
33,108,76,9,9,-8,43,83,120,49
-26,-50,11,-42,-35,-2,68,171,143,27
-24,-48,21,-45,-41,-22,34,180,112,59
-15,-82,6,-53,-51,-38,-27,141,-61,80
-14,-66,-16,-48,-48,4,11,58,30,85
10,61,74,37,27,65,56,-144,115,56
6,50,41,62,39,66,25,-294,68,38
-53,-74,-42,5,-3,41,32,-222,72,35
-62,-118,12,2,-26,2,-56,-124,-96,-18
-65,-80,25,12,-44,-12,-36,-52,-4,-46
-70,-39,16,13,-40,8,43,-3,109,-55
-61,-27,-29,0,-48,-3,47,-26,93,-56
-15,-14,-9,-6,-66,-57,-2,-152,-8,-76
16,-37,-8,-21,-66,-107,-117,-279,-245,-87
-35,-52,-34,-35,-69,-80,-101,-355,-150,-96
-3,57,-5,32,34,25,-17,118,79,-94
35,53,-21,83,81,72,11,254,71,-21
34,-159,-87,-26,31,19,-101,308,-268,26
-40,-217,-89,-57,0,-8,-102,331,-249,-4
84,253,50,63,95,35,-35,-83,257,32
92,255,68,21,46,-19,-97,-323,111,0
-22,-50,-98,-89,-59,-127,-265,-351,-424,-53
-54,-254,-187,-128,-81,-153,-267,-357,-695,-47
-35,-64,59,1,-32,-41,-9,-260,-216,-40
38,12,121,69,44,55,192,465,99,66
36,-61,65,8,52,66,104,499,-130,87
20,-141,10,-33,0,21,-55,234,-413,67
23,32,89,57,35,94,112,349,154,84
8,69,128,99,59,104,107,244,193,62
-5,48,77,67,20,68,75,63,108,41
7,6,-47,8,-18,0,-11,4,-93,24
-10,30,24,27,-19,4,25,38,-13,26
45,175,101,50,31,45,112,20,181,74
118,259,49,2,26,31,122,60,262,109
12,28,3,-17,-24,5,63,45,185,81
-18,-65,-13,-77,-72,-44,-50,11,-67,45
-28,-69,-51,-107,-89,-38,10,-27,-3,27
-41,-74,-44,-81,-85,-22,87,-59,84,9
-40,-72,-28,-56,-57,13,152,-63,68,-27
-23,41,10,-14,-1,53,125,-71,64,-55
46,130,14,-30,11,11,-34,-20,-67,-59
-25,-3,31,-14,-6,-3,-76,59,52,-26
-14,-53,-9,-23,-2,-29,-123,132,-9,-7
18,38,-7,-19,1,-20,-73,87,6,-19
23,128,65,-27,-25,-30,-21,8,120,-47
33,-1,-48,-56,-47,-69,-132,-17,-16,-50
82,-61,59,75,49,13,-46,-175,83,71
107,21,48,49,39,44,3,-84,77,121
23,-44,0,-23,-5,-35,-278,-294,-433,55
-99,-126,-10,-62,-39,-83,-323,-54,-433,-11
-101,-27,52,10,-21,1,-59,170,145,4
-129,-27,38,6,-42,56,7,-23,166,6
-81,-61,-14,0,-38,167,64,-189,112,28
65,127,-18,37,27,214,56,-217,-78,25
-74,-59,31,75,80,-72,69,224,172,-21
-102,-99,-37,43,56,-6,72,153,117,-44
-111,-209,-117,-11,27,-45,-138,76,-327,-87
-92,-193,-78,-36,-11,-74,-181,-44,-332,-78
-59,-4,-5,-20,-8,-48,15,-43,206,-68
-74,-36,-25,-19,-7,-30,41,42,213,-93
-89,-68,-18,15,10,-8,49,115,109,-123
-13,-50,-14,24,44,10,19,179,-46,-66
15,62,52,75,22,34,73,-203,273,32
1,47,-6,75,38,47,61,27,257,22
0,-96,-104,-26,-5,-31,-136,4,-333,-39
-24,-42,-28,-17,-2,-37,-159,-72,-493,-100
-37,163,83,49,8,22,49,-93,37,-73
-54,18,-6,0,-20,21,95,-99,113,-21
-63,-71,-13,11,2,54,149,-129,103,-16
-57,-170,-68,-26,-2,30,116,48,-24,1
33,257,-35,-16,-7,-4,112,110,291,34
71,257,-10,-14,-26,-35,68,172,192,47
62,32,-53,-90,-87,-113,-183,83,-305,64
16,-51,-18,-58,-61,-96,-200,-8,-320,74
9,5,82,75,45,55,81,115,295,104
-14,-21,46,76,49,55,32,25,335,63
-51,29,-20,43,-4,0,-24,-48,272,-3
-42,3,-37,-40,-58,-54,-76,-73,43,-55
-63,-27,-22,-18,-53,-45,-32,-206,87,-78
-31,12,27,63,0,1,-20,-379,21,-105
-13,70,85,124,55,42,-50,-411,-109,-133
-16,37,92,118,75,83,63,2,-105,-121
20,-24,39,84,81,80,91,277,-179,-89
117,255,94,32,42,75,91,-64,42,-39
152,377,115,2,-22,31,61,0,64,-30
-8,-12,-10,-93,-126,-10,37,159,7,-37
-79,-288,-127,-176,-148,-102,-219,169,-652,-59
-56,-292,-140,-119,-76,-85,-207,109,-688,-35
-64,-91,-72,31,89,48,126,49,105,-15
-77,-76,-137,-21,63,24,127,24,206,-7
1,31,-50,-34,13,48,132,89,219,26
134,179,59,35,74,82,27,-70,10,78
100,112,128,118,107,110,18,-232,103,112
48,101,138,141,99,108,45,-242,150,89
78,92,23,76,39,74,48,-210,188,95
45,68,1,17,-34,-1,-22,-248,155,60
8,-48,-74,-31,-76,-78,-136,-307,-65,12
0,-66,-49,-64,-36,65,148,106,205,45
25,-7,22,-14,-19,190,190,277,237,63
38,3,61,3,-7,223,185,187,179,62
12,-205,-75,-88,16,-1,-120,110,-565,7
-44,-226,-91,-116,-18,-273,-270,51,-652,-66
-36,-54,-23,-90,-72,-196,-18,88,187,-21
-32,-64,-50,-97,-77,-123,-64,7,209,3
30,53,-27,-53,-35,-89,-94,116,169,-2
241,427,42,-2,36,-56,-115,307,46,36
270,525,153,81,87,-2,2,253,173,45
105,132,124,103,71,21,57,54,161,44
-2,-138,-15,12,28,13,49,2,152,42
-46,-177,-65,-52,-15,-4,6,-15,76,-14
-55,-177,-52,-67,-46,-52,-93,-48,-158,-51
-53,-122,-67,-49,-54,-44,-29,-83,-21,-87
-34,-22,-130,-39,-50,-12,-9,-126,33,-121
-25,-21,-73,-41,-62,-1,6,-121,59,-123
-39,-79,-45,-50,-80,-47,-1,-4,94,-100
-41,-83,25,-7,-62,-75,-84,21,-19,-99
-35,-37,16,-8,11,43,149,135,310,89
-1,39,45,18,29,62,143,199,255,155
46,103,71,24,40,56,50,-6,42,129
54,-130,-45,-96,-11,-83,-331,-16,-852,62
2,-264,-187,-141,-58,-80,-256,121,-817,54
-21,-6,-84,-21,-11,73,186,127,146,78
-36,90,-1,-6,-14,63,195,-20,162,21
5,181,66,-13,-20,30,148,-14,109,-20
57,198,105,60,16,-10,-34,61,-121,-43
52,127,166,196,93,20,23,63,9,-37
101,115,120,302,152,25,107,119,171,-36
148,186,-65,133,86,-7,82,201,285,-5
2,-20,-124,-114,-16,0,37,199,232,-1
-100,-60,-42,-113,-30,17,-11,107,-68,-68
-30,75,-13,-22,20,71,91,3,36,-32
-16,42,65,40,53,84,105,-90,38,-8
-30,39,129,98,92,87,88,-138,-12,-13
-8,10,120,108,108,68,-5,-206,-83,5
14,-44,41,38,70,12,-135,-230,-217,42
-32,-42,23,-16,-18,-3,-41,-155,17,27
-42,-59,-9,-76,-76,-12,-23,159,90,-4
-15,-72,-49,-101,-90,-37,-23,311,62,-2
-64,-323,-194,-230,-157,-180,-323,198,-810,-62
-79,-329,-205,-216,-142,-142,-252,72,-791,-64
11,126,-13,-22,-3,46,155,-9,220,-1
11,222,66,39,53,75,110,-98,263,-9
-92,35,91,59,43,73,35,-214,174,-24
-50,-78,19,2,2,14,-67,-228,-18,8
5,-68,-17,-15,-5,31,21,-227,151,79
23,19,4,8,8,63,45,-259,206,83
40,106,65,62,30,75,35,-260,205,83
74,185,117,93,36,52,-10,-178,185,130
97,123,-41,21,5,-24,-153,-67,40,168
7,-52,-99,-18,-22,-11,-83,-10,142,119
-26,-25,-66,-13,-40,-8,-18,52,152,51
-16,10,-12,15,-12,-3,35,140,131,31
-32,2,8,9,4,-4,19,139,21,-25
-17,-110,-27,-15,-8,-17,-41,41,-176,-41
-1,-17,54,38,17,23,-1,-62,0,-17
11,64,64,23,-21,3,5,-71,62,-38
11,18,63,11,-15,25,48,-85,-4,-70
13,-10,55,35,13,40,51,-115,-114,-78
9,-63,-28,42,26,29,-5,-111,-263,-78
20,25,22,46,19,48,77,-97,-25,-52
-9,11,-46,0,-21,7,20,-100,135,-37
-23,49,-135,-72,-60,-56,-91,16,140,-37
79,210,-68,-121,-66,-144,-327,-7,-381,-55
95,207,-18,-62,-33,-85,-190,37,-132,-26
21,43,53,79,42,42,24,71,216,14
-20,0,60,98,56,45,29,-63,170,22
-33,-94,-40,-39,-19,4,-12,34,97,24
22,-106,-53,-66,-32,7,0,416,-7,49
35,32,48,2,-34,55,146,481,203,73
15,13,40,-16,-76,3,121,321,192,79
-22,-44,76,25,-19,-20,45,224,33,46
-93,-244,-13,24,67,-30,-261,60,-637,-31
-98,-178,-17,29,48,-11,-183,-109,-385,-28
-71,-52,-6,23,14,21,3,-186,77,7
-68,-4,43,18,12,18,-5,-220,78,-13
-41,-10,13,-58,-37,-36,-48,-69,35,-40
-19,-107,-112,-136,-87,-69,-82,254,-49,-40
20,-23,-82,-39,8,17,99,355,153,14
20,-6,-31,-24,4,-4,91,382,163,15
25,21,66,43,35,0,71,276,58,-10
21,-155,-20,-46,-3,-82,-187,62,-535,-19
3,-69,20,-5,25,-50,-112,-56,-318,-21
114,307,98,48,59,-3,42,-137,112,-1
148,360,15,-3,48,-8,70,-169,198,24
34,80,-31,-8,32,17,56,-361,93,21
22,-23,29,57,75,51,-33,-550,-104,50
21,93,93,99,51,52,33,-129,195,66
12,53,21,49,11,39,102,57,192,69
12,24,-46,18,11,16,38,-124,-8,48
14,-124,-86,-71,-25,-40,-179,-148,-566,17
10,-96,-27,-28,-5,117,-23,-97,-330,19
48,81,-6,47,36,287,208,-127,33,37
80,113,-53,1,-22,154,215,-140,79,42
29,78,-15,-33,-56,-176,2,-85,40,-14
-22,-71,-68,-64,-68,-235,-103,112,-2,-25
-7,32,-42,72,109,43,99,79,206,-31
-58,50,55,163,174,82,105,131,167,-118
-106,-60,80,94,37,-51,-56,42,-4,-113
-86,-201,-125,-121,-121,-207,-302,32,-510,-40
-49,-143,-80,-72,-67,-92,-116,91,-199,26
-31,-31,-6,-16,-36,-18,65,18,216,56
-28,-44,-14,-31,-41,-43,82,-54,204,42
32,48,-1,-24,-28,-42,46,-19,119,21
83,102,-33,-46,-50,-88,5,58,-8,38
27,5,-7,-15,-32,-24,157,106,175,74
-1,-46,18,6,0,29,178,63,224,100
-41,-133,-59,-19,-15,14,120,-56,182,80
-13,-109,76,44,11,21,44,-336,62,-104
-82,-278,-88,-49,-38,-35,8,-252,-141,-114
-129,-307,-114,-104,-78,-130,-201,30,-555,-147
-17,-34,5,6,8,17,27,48,246,-53
-68,-16,44,26,11,4,1,-139,227,-88
-36,27,-34,-22,-18,-42,-51,-165,75,-51
78,108,-84,-106,-56,-167,-305,186,-460,-14
99,178,72,0,23,-46,-117,360,-220,22
36,116,204,171,130,159,218,376,123,37
23,15,95,165,141,210,227,158,45,65
-6,-48,-12,70,61,184,129,-25,-74,55
4,-56,17,7,-5,232,88,63,-164,38
22,6,32,26,-13,300,231,310,147,59
36,50,30,20,-13,118,195,366,245,42
-16,-10,14,-8,-39,-171,38,209,219,-5
-50,-53,0,-27,-40,-175,-49,98,102,-5
-60,-84,-31,-50,-31,-92,-84,-18,-64,-28
-70,12,25,31,6,26,121,-214,78,-30
-55,24,48,40,21,64,165,-185,75,-25
5,42,-4,-10,-27,-13,129,-103,-45,-5
25,-81,-114,-95,-53,-120,-107,-86,-541,-25
-28,36,32,4,24,1,32,-98,-227,-60
-55,-2,23,21,23,32,125,-16,174,13
-58,-98,-37,-18,-12,-1,26,91,242,46
-64,-61,-58,-44,-46,-20,-12,113,113,24
-57,-13,-65,-53,-55,-62,-48,66,-40,-9
50,284,-5,27,28,-27,98,102,234,33
106,369,70,30,52,-41,83,-13,212,57
-13,41,-13,-3,-17,-94,-72,-69,37,59
-96,-266,-155,-91,-87,-188,-368,43,-424,30
-79,-114,-105,-19,-29,-104,-239,-157,-82,26
-43,5,42,28,8,-17,-87,-296,195,22
-37,-9,46,31,29,47,60,-170,187,25
-3,12,57,45,58,71,70,5,74,36
21,13,69,29,21,30,12,145,-30,24
-7,-10,77,53,33,58,49,-9,68,-7
-28,0,85,90,74,83,29,-200,28,-45
16,29,85,113,92,99,-3,-335,24,-14
40,16,97,74,67,74,-88,-421,-89,28
16,-29,55,9,8,27,-82,-302,-141,13
91,186,41,-3,0,16,181,162,198,-50
49,112,-8,-52,-44,-45,101,13,127,-66
-45,-108,-58,-72,-73,-62,-20,-186,-180,-100
-55,-224,-106,-109,-69,-94,-218,-182,-641,-116
74,76,82,57,44,70,85,391,111,15
101,83,72,67,54,64,37,181,155,53
120,155,0,0,15,-4,-81,52,55,9
121,59,-62,-76,6,-78,-323,-32,-568,-17
11,43,68,34,41,2,-156,-173,-218,0
-51,83,141,80,20,14,-37,-174,143,30
-32,-79,6,-35,-52,-36,15,83,206,107
-9,-155,-98,-97,-52,-32,79,330,136,111
-26,-102,-83,-113,-71,-61,19,202,10,18
-35,9,10,-42,-67,-21,130,209,251,-46
-14,43,40,1,-36,112,219,313,343,-66
-37,-50,-19,-33,-45,218,238,297,329,-34
9,-101,-35,-23,-19,185,196,214,171,10
31,-95,-45,9,26,-96,-82,23,7,16
43,37,62,90,71,-39,-21,-209,-3,1
2,22,51,90,80,3,104,-84,0,-34
0,70,23,78,105,-10,2,-17,-154,-89
110,127,-21,39,115,-75,-247,-41,-606,-121
115,246,118,101,105,-29,-139,-177,-250,-131
12,79,138,89,39,-32,-83,-321,-2,-76
-52,-118,14,-13,-25,-56,-78,-311,103,10
-94,-95,-38,-60,-41,-54,-121,-187,3,-2
-38,-39,-115,-82,-69,-66,-162,-21,-88,-15
-73,-13,-97,-118,-98,-86,-17,38,147,-64
-75,12,-94,-103,-102,-59,94,186,127,-65
-40,-22,-75,-86,-63,-9,51,-92,-119,-18
-49,-191,-106,-83,-8,-50,-222,-604,-744,-22
-64,-14,51,41,64,53,-48,-430,-223,-39
-9,54,24,4,-2,101,183,634,351,75
27,81,-95,-57,-50,84,266,887,382,122
42,174,16,-21,-37,36,178,472,123,72
22,60,47,-24,-48,-27,38,238,6,70
-13,-231,-29,9,30,40,-50,76,254,113
-50,-172,-11,-1,19,8,-46,16,313,141
-86,-165,-18,-21,24,-31,-89,25,177,115
-82,-273,-68,-80,-13,-115,-329,2,-339,67
23745,25664,-19397,32243,6549,1754,12178,-14353,-32587,-994
-1311,-1292,1243,2034,-324,-72,-718,653,2215,169
-1163,-1054,1223,1963,-285,-77,-681,352,1911,84
-1193,-1223,1110,1845,-288,-78,-669,398,1699,18
-1185,-1339,971,1680,-322,-121,-694,591,1409,-30
-1125,-1244,943,1593,-301,-97,-538,666,1419,-60
-1057,-1096,963,1568,-228,-36,-405,623,1383,-81
-990,-1007,923,1494,-192,2,-396,530,1298,-80
-912,-979,831,1394,-155,7,-442,510,1134,-75
-855,-957,751,1303,-137,21,-433,444,1052,-68
-793,-838,646,1244,-173,-1,-392,385,1173,-72
-750,-788,627,1145,-189,-41,-383,269,1125,-25
-747,-893,564,978,-234,-80,-392,241,887,29
-695,-940,469,848,-263,-142,-572,329,452,5
-538,-415,559,910,-173,-49,-301,351,1138,6
-563,-532,473,814,-218,-66,-301,226,996,-5
-605,-792,283,623,-319,-161,-364,435,699,-7
-578,-873,187,533,-306,-235,-565,694,112,-2
-514,-570,433,829,-106,-62,-280,622,604,60
-425,-482,528,992,6,45,-99,399,838,133
-425,-508,339,707,-63,15,-102,320,782,88
-393,-324,251,521,-108,-12,-160,358,642,16
-334,-305,293,419,-193,-64,-231,360,536,39
-352,-420,279,359,-265,-37,-126,390,723,92
-340,-376,264,355,-241,-17,-89,360,732,89
-302,-336,208,366,-206,4,-50,208,658,114
-286,-345,246,391,-162,2,-104,36,443,105
-285,-365,260,424,-32,-9,-180,-29,343,76
-249,-257,209,365,-33,23,-94,126,506,51
-252,-228,263,365,-65,18,-119,99,421,20
-227,-257,256,324,-98,-37,-271,42,167,6
-234,-422,120,190,-158,-139,-423,47,-230,5
-254,-275,180,255,-92,-43,-137,61,238,6
-231,-172,246,308,-29,33,-49,9,412,-12
-207,-128,220,278,-32,15,-53,-2,513,3
-159,-49,189,235,-23,-15,-66,126,401,8
-98,102,209,258,24,4,-40,344,322,23
-240,-192,183,246,-33,42,72,257,410,-29
-215,-223,119,198,-29,49,84,146,360,-14
-182,-257,64,125,-42,8,-49,6,87,12
-175,-395,-40,-6,-128,-116,-353,-42,-430,14
-174,-216,-4,31,-128,-93,-189,-85,66,19
-172,-117,19,50,-126,-95,-99,-234,246,-19
-191,-190,-8,32,-159,-111,-115,-210,228,-45
-167,-222,-19,15,-163,-116,-127,271,163,-39
-101,-166,56,69,-109,-55,-89,322,81,-25
14,-22,184,205,53,335,155,-64,201,86
19,25,225,258,116,279,161,65,185,58
4,-2,179,197,97,-53,-62,73,-112,-16
-19,-144,97,119,61,-178,-353,-20,-627,-78
-17,-11,182,203,97,-10,-110,-68,-70,-65
-67,-77,50,135,60,44,30,32,218,-53
-89,-52,63,110,41,46,59,155,235,-62
-76,-88,68,83,24,13,-23,225,120,-42
-80,-74,53,48,-8,-22,-64,199,119,-14
32,276,61,48,13,-23,16,-14,294,-8
25,240,13,5,-19,-56,-10,-44,309,12
-57,-121,-98,-82,-97,-88,-107,46,72,19
-46,-300,-128,-73,-100,-108,-236,242,-413,21
-6,-91,19,68,11,57,85,267,106,54
-55,-19,-12,110,52,113,179,162,271,20
-124,-28,-7,96,23,63,146,62,183,-44
-129,-33,72,39,-30,-1,32,-79,-19,-94
-91,-150,-5,-16,-71,-27,0,-84,-21,-69
-57,-153,4,55,-16,-1,47,-12,166,-26
-22,-21,139,175,138,109,35,25,120,-29
44,56,177,211,197,192,68,4,127,39
37,-23,90,124,109,119,-47,-121,-25,40
-14,-65,45,65,36,49,-80,-119,4,-2
125,345,0,-32,-67,-90,-17,131,309,17
16,92,-64,-48,-76,-40,2,249,340,39
-96,-175,-30,-1,-39,-18,-56,282,20,27
-40,-319,-96,-62,-60,-81,-197,134,-438,28
-50,-118,-42,-13,-48,-5,21,-32,-31,14
-107,-25,7,4,-59,-22,56,-87,21,-67
-91,-25,4,-6,-68,-16,104,101,28,-79
29,64,7,1,-17,-2,92,274,-27,-7
36,36,42,45,13,8,52,15,-59,27
59,28,93,118,104,154,198,-285,-33,70
93,100,179,176,136,158,136,-453,-65,49
67,7,113,90,56,41,-77,-373,-299,9
4,-197,-51,-54,-50,-66,-264,-201,-648,-18
-15,-28,2,18,0,34,23,-77,-51,-9
-4,74,-10,48,7,48,90,-59,103,-41
-15,54,4,58,15,51,62,-49,94,-57
-32,8,-8,64,40,29,-25,-46,-84,-80
-82,-29,31,77,51,14,-66,-62,-66,-75
-94,-70,76,64,-6,-32,-70,-194,196,22
-72,-136,-48,-39,-75,-53,-39,-112,194,64
14,-33,-151,-129,-92,-110,-89,71,-69,43
101,53,-255,-190,-79,-168,-218,201,-457,16
64,101,-101,-49,-29,-18,51,218,140,62
-1,-12,32,-10,-16,89,127,123,278,88
-22,-49,26,-18,-15,197,135,171,274,64
-22,-80,0,-14,-28,227,84,41,61,50
-20,-55,20,17,-17,72,94,-159,8,45
-42,30,30,47,15,-159,-12,-265,89,0
-11,81,53,74,40,-118,-49,-311,77,-3
-6,46,92,112,65,-18,-21,-327,63,12
21,4,75,80,50,-11,-88,-118,-45,38
41,1,68,53,44,28,-16,149,90,64
11,41,33,17,0,22,96,200,123,-44
18,60,15,-3,-14,16,128,510,168,-37
17,29,-4,-43,-25,-37,-22,380,-158,-56
-9,-106,-51,-88,-85,-109,-192,347,-403,-82
-79,31,89,48,-10,0,-107,1,138,-76
-139,-162,-81,-31,-65,-42,-143,-187,157,-42
-145,-297,-274,-127,-118,-108,-248,-314,-193,-58
-142,-314,-299,-167,-153,-171,-373,-228,-677,-107
-62,16,-21,-4,-25,-5,20,169,43,-60
119,319,133,124,132,115,226,472,271,59
129,263,74,66,102,112,270,360,258,83
24,26,22,7,24,40,158,217,22,36
32,30,32,0,-5,7,74,78,2,47
48,119,106,50,4,9,73,-33,141,63
70,104,145,72,-13,-36,17,-63,183,101
57,-41,-19,-26,-70,-64,-47,-63,239,141
48,-57,-113,-74,-53,-69,-108,-47,46,90
17,-2,-84,-16,-11,-29,-36,-25,32,36
49,8,28,46,47,82,115,-36,188,107
73,7,101,67,48,73,76,-134,160,132
81,-8,32,-28,-30,-42,-99,-149,-162,105
57,-44,-43,-126,-127,-157,-254,-59,-428,53
-1,58,-25,-102,-119,-82,39,175,241,27
9,149,-42,-93,-14,-32,79,206,363,-33
-65,-42,-54,-63,12,1,65,105,245,-53
-133,-148,-41,-79,-44,-42,-17,22,22,-29
-85,-121,9,-3,-12,10,-9,-64,-22,0
57,-7,62,90,65,109,121,-52,-23,70
79,55,70,83,93,143,131,-109,-15,81
116,167,104,72,110,83,-25,-71,-332,43
30,-87,25,0,41,-4,-169,-61,-638,1
-53,-71,47,38,16,35,32,49,30,2
-56,-71,20,9,-13,-15,-8,208,149,-29
-61,-88,-15,-25,-50,-45,-15,276,132,-36
-45,-114,-95,-69,-85,-79,-69,224,-71,-60
-36,-37,-33,-32,-56,-56,-23,97,-16,-95
-13,77,80,57,32,41,79,-225,78,-110
11,92,98,84,65,75,50,-531,-8,-95
-22,48,91,76,48,90,11,-557,-30,-99
-52,54,103,83,47,79,32,-435,35,-109
-38,39,74,82,60,68,56,-341,89,-100
-54,30,60,71,51,61,78,-189,56,-92
-71,-4,-7,54,41,51,106,190,88,-62
-51,5,-113,35,19,42,106,360,139,-50
54,223,-42,15,37,33,114,201,184,-32
119,359,31,3,45,8,60,-22,155,-3
71,186,35,11,22,7,-23,-310,42,9
85,133,4,9,16,4,-102,-535,-42,30
96,185,-12,17,24,9,-94,-409,-11,26
7,136,134,113,89,50,10,84,114,16
-46,-127,73,54,33,68,60,251,209,50
-49,-209,-80,-48,-37,135,34,-6,162,43
-107,-172,-103,-85,-50,165,-6,-232,47,-33
-135,-176,-93,-60,-60,-20,-33,-128,21,-67
-63,-134,-140,-36,-33,-257,-52,171,32,-62
37,-60,-43,15,18,-130,64,675,136,31
69,0,59,78,66,6,126,679,143,82
38,12,43,75,62,12,80,302,32,52
29,21,18,84,65,12,67,222,32,41
36,68,72,85,74,15,71,209,70,55
1,-12,11,25,38,16,115,213,104,69
-32,-37,-6,-1,5,10,134,220,114,63
-34,-33,-1,-3,3,36,99,164,97,44
-30,-40,4,-17,-14,144,96,116,88,31
4,-17,26,10,9,241,116,61,70,18
51,24,82,42,33,113,49,-44,0,12
80,106,69,30,44,-175,-132,-188,-69,1
105,101,-16,-21,14,-156,-101,-172,-9,45
44,-38,-32,-26,-22,-89,-55,-160,1,30
4,-29,34,3,-20,-77,-81,-164,-24,-12
-67,-128,-24,-34,-26,-85,-41,-139,-10,-18
-88,-145,-53,-42,-33,-82,15,-123,-23,-58
-84,-76,-15,-17,-28,-48,64,-51,-24,-73
-48,-9,21,5,-3,-6,101,63,43,-17
89,268,62,29,61,10,90,93,122,49
98,266,62,14,40,-7,63,91,115,41
22,1,20,-28,-41,-43,95,113,119,30
7,-45,-17,-45,-68,-78,83,106,146,19
-11,-46,-24,-25,-14,-19,16,10,93,-31
8,68,17,6,5,0,-89,-165,-6,-78
26,139,38,0,-34,-66,-179,-337,-73,-81
56,144,-33,-26,-31,-81,-168,-341,-52,-40
104,201,-5,12,37,-23,-81,-255,-19,-35
11,-88,-69,20,12,1,-38,-94,-18,-39
-54,-220,-99,-20,-24,-21,10,219,46,-33
-79,-161,-80,-33,-34,-34,92,514,133,-26
-86,-126,-67,-47,-54,-14,114,566,172,-13
-67,-149,-68,-53,-72,-41,64,393,162,11
-19,-110,-45,-45,-63,-100,-1,160,94,29
43,63,-22,-17,-33,-89,8,-158,-84,-9
13,19,-7,9,-13,-8,57,-454,-290,-66
-2,-10,49,34,19,73,107,-318,-335,-58
27,-23,67,45,37,110,73,-195,-279,-20
20,-55,36,22,45,94,4,-327,-254,-16
8,-23,43,34,54,61,-61,-252,-239,-29
7,5,23,7,17,6,-126,-90,-152,-24
-5,30,30,-5,13,-10,-152,36,-12,-15
-18,3,30,5,11,-36,-131,88,32,-15
-13,-11,21,15,15,-25,-93,-80,-32,-9
0,21,25,11,18,6,-15,-77,-18,-9
19,53,29,24,10,13,63,158,61,37
37,23,24,1,-16,4,87,207,98,81
39,-32,-21,-39,-46,-5,51,160,84,77
50,-20,-23,-35,-37,6,23,121,106,108
154,242,2,-24,15,8,40,146,181,151
198,358,13,-16,40,-1,70,91,171,128
87,165,41,10,12,14,35,-116,47,47
56,62,58,35,-3,-2,-7,-184,-39,-25
63,15,9,11,-20,-16,-14,-154,-6,-24
-27,-125,-72,-32,-28,1,5,-170,19,-21
-118,-112,-47,-36,-32,-7,-32,-201,1,-66
-148,-24,-92,-28,-36,-35,-45,69,70,-86
-152,26,-88,5,-22,-30,-30,23,6,-140
-134,2,46,29,0,-7,-24,-3,-17,-117
-21,-80,75,57,42,36,11,237,82,20
58,-180,-59,-7,20,20,-17,342,74,95
78,-106,-10,40,60,43,-38,189,-67,84
61,-25,21,43,50,49,-16,-5,-107,80
16,-17,-21,-7,-12,8,-34,-70,-55,56
-24,-38,-33,-40,-68,-30,-84,-121,-37,0
-32,-70,-42,-61,-78,-35,-121,-277,-57,-12
-23,-120,-97,-85,-95,-58,-176,-432,-32,15
-2,-82,-87,-80,-110,-123,-237,-477,22,37
13,25,-38,-52,-83,-123,-220,-297,69,24
-53,-16,-63,-97,-112,-115,-87,131,93,-51
-91,-73,-57,-82,-93,-65,133,632,73,-81
56,100,4,-27,-18,-7,271,980,161,-7
232,349,-77,-23,14,-7,252,784,202,29
98,233,-10,1,21,12,165,312,53,-10
-72,-139,-6,-23,9,58,154,-52,-44,22
-68,-164,-21,-43,0,67,113,-22,-87,2
-25,-126,17,-14,23,75,3,-11,-107,17
2,-63,55,45,76,56,-73,-241,-132,29
7,0,61,71,86,35,-93,-411,-151,11
24,102,161,147,97,42,-106,-500,-195,-36
19,-7,42,61,6,-9,-111,-485,-159,-29
-32,-61,-161,-40,-53,-40,-47,-213,-102,-83
-85,-71,-118,-38,-31,-25,83,200,-22,-142
-85,-51,40,17,24,38,214,348,-1,-116
-32,-14,99,62,71,106,219,131,-30,-23
-1,1,57,46,56,86,74,-104,-53,31
40,108,-6,62,76,63,-19,-234,-66,56
45,129,64,88,98,53,-80,-337,-98,54
-2,14,95,53,64,39,-82,-252,-90,37
-19,-6,64,19,35,16,-66,-83,-24,9
-36,-14,52,-1,12,9,-11,-102,-32,-4
-41,-11,12,7,0,4,8,-141,-41,5
-48,-5,-26,-10,-15,-13,0,-127,-39,-14
-39,30,-66,-43,-19,-35,39,93,44,-28
67,190,11,-21,21,-14,99,305,130,3
40,108,10,37,36,0,62,206,74,5
-27,-87,-31,-13,-48,-55,-77,-12,12,2
-47,-129,-29,-70,-89,-81,-137,-132,-8,-11
-46,-141,-40,-77,-83,-79,-90,-120,10,-2
-41,-139,-53,-78,-54,-25,-24,26,45,22
19,-27,32,21,21,52,24,147,34,46
70,82,77,59,51,66,50,96,17,67
34,0,23,17,5,30,23,-92,-26,51
-8,-79,-65,-9,-16,14,15,35,6,62
-25,-98,-69,-22,-36,6,10,238,33,89
-10,-71,-39,-10,-32,8,16,174,5,96
12,-31,-54,2,-19,28,72,83,-2,81
-2,-22,-1,-10,-28,14,60,27,4,40
8,28,36,-19,-26,0,25,28,9,29
120,262,24,-9,12,-12,23,75,44,45
136,328,-45,-3,20,-4,33,111,59,33
30,28,-97,-37,-33,-22,31,77,47,33
-30,-93,-121,-46,-41,-13,47,52,62,36
-38,-81,-95,-35,-30,2,47,28,64,29
-41,-91,-17,-37,-21,2,20,-22,46,16
-51,-52,41,-1,-3,8,7,-61,11,-9
-32,32,87,24,14,11,-4,-85,-11,-16
-5,-36,24,-39,-33,-23,0,-69,30,4
-17,-99,-29,-47,-44,-38,-6,-49,39,-8
-16,-70,-81,-7,-16,-18,-36,-36,25,-26
-10,-60,-9,3,-2,2,-37,-30,10,-45
-37,-55,42,21,3,31,-29,-30,-7,-78
-60,-68,-16,31,19,54,-19,-24,-15,-95
-52,-31,29,43,38,49,-19,-18,-14,-93
-30,14,-24,37,50,24,-27,-5,-13,-84
-56,-47,-56,0,28,6,-28,-14,-26,-40
-40,-82,-1,-37,16,-3,-35,-2,-12,12
-13,-63,11,-62,-4,-14,-63,1,-16,33
-8,3,75,-37,8,-12,-74,-19,-34,33
-10,-2,47,-26,19,-9,-52,-32,-27,28
59,188,94,38,70,-18,-69,-81,-48,-14
143,357,83,37,85,-45,-98,-65,-23,-11
42,119,28,15,41,-57,-136,-140,-124,0
-54,-289,-93,-121,-74,-203,-441,-323,-872,-44
-37,-302,-171,-120,-80,-193,-483,-433,-893,-65
-33,-101,-110,-21,-35,-53,-116,-419,-39,-33
-49,-48,-33,-8,-36,-33,-52,-305,16,-32
-52,-32,-64,10,8,36,85,260,76,-40
-17,0,11,36,65,55,83,648,-36,-39
-39,23,64,79,67,50,114,484,27,-64
-53,42,53,61,30,48,161,429,113,-49
-49,-25,16,32,7,44,161,387,142,0
-45,-89,-30,-14,-41,6,78,322,91,0
-62,-96,-10,-45,-75,-20,-54,229,-122,-48
-78,106,28,-12,-55,-11,16,-91,95,-63
-86,37,7,14,-21,32,43,-182,64,-33
-56,-87,3,24,14,86,85,-122,22,32
4,-300,-89,-86,-28,-36,-219,-158,-627,29
-30,-319,-104,-114,-57,-94,-273,-116,-690,-27
-41,-89,-10,-15,-36,15,73,175,215,9
-4,-10,18,1,-47,-23,71,305,420,48
43,137,78,10,-38,-74,-4,214,420,57
174,395,86,10,-22,-106,-32,172,388,54
111,210,-13,-55,-83,-107,45,198,296,47
-18,-2,-1,-42,-97,-67,118,391,279,13
-22,-15,11,-25,-87,-32,126,353,297,3
42,38,14,4,-18,29,130,49,170,21
33,133,111,91,64,71,83,-274,-2,-20
0,52,142,148,107,78,70,-366,-40,-25
25,16,108,173,140,106,77,-409,-71,-20
10,-12,15,113,106,102,87,-473,-108,-6
-13,-54,-9,117,111,97,84,-433,-107,13
16,-9,86,161,140,100,14,-276,-69,34
29,20,120,136,119,59,-49,-296,-74,25
4,-19,60,80,74,6,-96,-403,-98,-19
-14,-11,32,59,54,14,-81,-470,-146,-45
-4,96,49,68,63,126,-47,-408,-121,-39
102,263,51,-16,18,190,-30,-162,51,52
164,318,75,-11,23,152,-27,222,191,139
64,111,78,7,41,-52,-32,307,167,128
-40,-31,14,0,3,-154,9,180,16,13
-40,-49,-9,2,15,-22,54,101,-34,-3
4,-68,12,33,74,50,33,93,11,45
40,8,69,49,59,31,3,110,38,75
35,0,-28,-41,-41,-20,-18,91,89,108
9,-84,-94,-88,-87,-41,-51,-48,98,116
-11,-122,-139,-120,-129,-78,-49,-138,109,108
-24,-114,-125,-120,-137,-100,-12,-94,99,69
-45,-82,-57,-71,-107,-104,-48,-42,90,63
-20,-49,-25,-22,-89,-90,-175,-60,80,64
20,24,44,59,-3,-33,-206,-118,1,54
30,76,-6,77,61,38,-88,-73,-50,1
-40,9,-79,5,10,109,19,-3,-30,-97
-128,-112,-106,-72,-67,159,108,31,12,-150
-87,-80,-92,-81,-74,151,186,-27,23,-114
-58,-44,-46,-55,-51,-88,96,185,82,-77
-77,-46,-42,-61,-37,-202,21,841,280,-52
-71,-7,-8,-41,-29,-74,107,815,281,-35
-24,63,21,4,-13,14,105,317,134,-19
129,320,62,40,48,4,9,94,73,31
178,498,124,87,156,39,-35,13,19,-9
80,252,111,69,123,57,10,-131,-89,-36
4,16,33,23,36,38,5,-268,-193,-44
-7,9,32,19,12,27,33,-223,-171,-45
5,16,66,21,4,0,52,-103,-95,-21
48,-11,19,15,37,13,18,-82,-77,0
69,-9,-64,-10,49,37,18,-91,-86,-9
55,52,-30,-7,25,19,14,-70,-65,-25
9,6,-5,-25,-25,-13,-44,-52,-14,10
-78,-152,-47,-31,-23,5,-40,-5,54,55
-127,-156,-52,11,0,26,-30,23,39,22
-132,-131,-52,7,-2,8,-46,9,-10,-28
-96,-109,-74,-1,-14,-4,-65,-30,-51,-26
-35,-50,-23,5,-1,8,-66,3,-20,32
39,89,-6,-2,18,24,-44,46,24,70
-42,10,-62,0,31,54,2,30,12,82
-106,-65,9,53,40,59,38,39,-12,52
-58,-75,6,-4,-18,-10,0,62,-5,37
-43,-93,-28,-39,-48,-26,-34,47,-35,-5
-40,-86,-25,-25,-26,-1,-21,11,-64,-62
-22,-69,-72,-14,-19,5,0,3,-41,-86
18,22,-169,-36,-37,-49,-22,99,32,-120
89,237,-96,-51,-30,-102,-40,300,153,-139
-21,14,-76,-80,-79,-104,-33,417,198,-132
-78,-108,-80,-72,-80,-77,-15,177,120,-121
-25,-12,-21,-16,-19,-4,-6,-219,-13,-103
18,77,89,57,11,13,-71,-506,-163,-115
47,56,94,38,-1,11,-102,-426,-169,-83
74,31,85,20,6,28,-85,-211,-105,-31
58,94,111,54,68,61,-45,-140,-62,-7
3,-31,88,64,77,72,2,-113,-39,0
-9,-94,38,14,27,30,33,-109,-17,20
-11,-61,-63,-29,-3,9,56,-65,-5,12
-30,-65,-159,-57,-19,5,53,-36,-5,-19
-8,-58,-84,-42,-15,8,-4,-46,1,-20
11,-47,0,-15,-8,11,-32,-83,24,-6
20,35,55,0,-12,-8,-85,-113,27,6
60,231,102,31,15,-19,-104,-73,39,10
52,208,102,40,18,-12,-33,-51,40,1
-17,14,62,11,-15,-7,23,40,22,-6
-37,-33,43,7,-16,24,95,202,32,7
-54,-37,24,-9,-13,42,108,148,8,-7
-56,-12,23,-14,-7,36,66,41,-48,-38
-43,29,59,12,6,24,10,-35,-79,-49
-19,70,70,10,19,18,-25,-97,-99,-42
-46,51,58,-7,-3,-8,-34,-122,-117,-60
-46,6,2,-49,-43,-32,-5,8,-75,-72
-11,12,2,-71,-68,-53,-8,-4,-83,-81
-13,31,-24,-110,-123,-102,-45,-200,-92,-56
-65,-110,-59,-106,-125,-103,-9,-134,4,-16
-88,-244,-29,-37,-30,-26,1,-36,148,36
-34,-264,-54,-28,-5,-24,-99,-144,224,88
-46,-204,-51,-35,-38,-97,-196,-113,132,24
-62,-127,-9,-9,-43,-75,-27,589,101,18
-1,-36,29,30,7,28,222,983,112,66
32,-19,38,43,49,79,212,478,-12,51
0,-50,28,23,50,82,118,206,-120,-23
10,-22,50,42,69,109,96,72,-162,-18
30,14,50,41,55,92,40,-59,-145,3
80,197,34,20,48,13,41,283,14,-3
131,321,27,27,60,-30,130,705,172,10
105,130,-5,16,50,5,112,366,101,42
45,29,46,27,37,7,0,22,8,36
-6,-20,17,6,1,-26,-28,-53,-8,33
-28,-93,-42,-46,-34,-35,-5,-137,18,50
0,-60,-109,-41,-25,-17,-41,-241,-3,60
26,-2,-118,-20,-13,-22,-46,-220,-4,51
47,4,-54,-9,-2,-18,-32,-192,37,59
74,18,86,48,59,23,-17,-244,65,90
113,69,178,125,110,51,-14,-302,57,97
47,-26,62,29,18,-5,-6,-66,87,73
-58,-97,-1,-14,-8,-8,52,143,73,15
-94,-115,-18,-32,-15,-11,84,73,25,-23
-68,-75,-5,-30,-10,-16,64,-148,5,-19
19,60,-24,-38,-5,-30,48,-389,-48,-29
9,-27,-49,-18,0,5,51,-501,-146,-44
15,42,-24,36,38,46,30,-334,-155,-61
18,71,38,55,58,50,-8,-101,-78,-12
38,54,90,88,67,47,-28,-8,-2,50
37,54,124,75,15,-21,-126,-6,36,51
53,-34,7,-39,-72,-88,-83,107,96,91
121,106,39,-5,0,-39,43,140,69,120
209,326,129,79,122,114,111,108,54,129
114,21,-26,-18,-10,156,62,11,66,144
40,-151,-102,-88,-111,109,60,-69,78,118
1,-155,-91,-83,-105,-116,-6,-107,58,70
-13,-145,-91,-74,-93,-297,-121,-121,11,12
-1,-94,-32,-38,-59,-181,-95,-255,-27,-7
1,-56,10,-5,-11,-77,-76,-305,-115,-20
25,-32,12,19,29,-18,28,120,-150,-21
17,-100,-84,-39,-26,-25,81,319,-166,-41
-1,-46,-52,-39,-16,10,98,217,-188,-100
32,43,75,26,42,147,149,385,-122,-85
-13,-32,54,20,43,188,-2,185,-25,-51
-83,-118,-53,-56,-7,-133,-79,94,-14,-67
-85,-26,-60,-68,12,-215,-123,-13,-194,-94
45,85,-80,-109,17,-164,-353,-115,-771,-95
23,142,3,-31,50,-45,-203,-144,-375,-72
-80,-23,21,-6,30,4,-28,-132,-22,-62
-83,-60,4,-29,6,-4,-2,-35,-2,-61
-67,-49,-1,6,3,1,29,148,70,-35
-75,-69,-12,13,-2,10,55,288,141,-27
-91,-34,-1,13,-8,23,70,289,104,-48
-48,24,-10,2,-5,9,94,372,123,-42
-82,-24,14,20,7,12,124,286,110,-45
-90,-66,-15,-15,-1,18,135,98,89,-21
-62,-81,-43,-56,-33,13,81,-28,67,3
0,-61,-18,-39,-43,1,-19,-178,-102,31
45,-43,5,-33,-21,-1,-90,-237,-242,58
66,45,87,53,38,47,-47,-264,-54,87
81,74,82,62,52,50,-36,-181,21,111
84,45,-3,23,23,46,-13,-95,104,157
57,-1,28,64,26,55,-4,-127,112,183
37,2,53,56,4,31,-21,-172,62,227
4,-31,-26,-45,-81,-24,-49,-261,-8,185
3,-31,-60,-67,-117,-88,-78,-144,40,103
1,-51,-77,-72,-86,-109,-183,65,-82,19
40,0,-162,-79,-5,-138,-386,160,-667,-82
64,222,-18,69,112,10,-84,132,-206,-101
12,68,70,88,97,67,59,-18,37,-102
-27,-103,-8,17,27,55,87,7,42,-122
-48,-125,-45,-14,5,36,132,95,61,-145
-42,-103,-117,19,16,37,88,92,54,-143
-52,-100,-144,7,9,3,-72,44,-109,-133
-34,37,0,2,-2,-3,-63,30,-1,-112
5,127,15,-15,-10,0,-36,5,33,-100
25,75,-49,-56,-26,-31,-112,-25,-168,-87
-1,149,55,39,36,26,-25,-5,8,-72
-35,97,129,111,63,43,10,3,94,-57
15,-36,10,32,14,13,19,40,162,23
9,-16,-30,-3,-4,-6,13,37,161,23
-10,75,48,38,19,5,0,24,130,14
42,153,49,28,19,7,36,86,165,47
-5,-115,-55,-45,-45,-12,71,170,202,91
-56,-162,-93,-64,-68,-43,102,219,213,88
-86,-122,-108,-88,-87,-44,94,90,184,63
-79,-89,-61,-100,-104,-54,39,-224,114,21
-59,-50,-37,-34,-39,19,-14,-315,71,11
49,112,50,52,70,54,-164,-204,-108,13
111,168,20,21,92,-16,-321,75,-468,-12
29,32,31,43,71,30,-112,-110,-185,-41
37,57,66,69,34,46,-33,-373,2,-26
64,102,69,44,-6,28,-23,-444,14,2
50,93,107,77,-13,34,49,-203,63,38
1,-50,8,2,-50,-57,33,128,28,28
-10,-111,-88,-26,20,-63,-26,296,-70,0
36,62,3,47,91,30,59,442,114,13
14,42,21,44,54,42,72,304,115,30
3,-6,17,31,38,37,29,127,108,48
-6,-55,-27,29,45,56,25,23,81,16
-31,1,31,67,51,56,21,-56,31,-62
-20,53,74,21,-10,-16,6,27,67,-74
-8,-93,-53,-42,-24,12,132,418,216,-15
82,148,57,64,76,58,157,222,155,-23
189,336,47,35,61,11,90,10,162,24
82,164,19,11,15,24,104,35,170,32
-30,9,46,25,-16,34,95,0,93,13
-3,-17,-28,5,-36,15,37,-53,24,26
-27,-55,-150,9,-36,8,29,-65,-17,26
-51,-78,-104,10,-35,18,97,-31,-10,19
-35,-38,-4,0,-44,15,101,-10,28,35
-14,39,29,-16,-66,-32,26,-11,36,42
-28,0,30,5,-63,-62,-34,-65,-10,55
-18,-31,-18,29,-29,-29,-25,-89,-2,95
-2,-86,-69,-48,-68,-60,-84,62,13,119
-2,-85,-107,-75,-83,-100,-155,220,-93,71
-6,-32,-37,-45,-59,-50,-62,136,-138,8
-22,8,26,0,-21,43,153,123,70,-8
-23,14,25,5,11,63,170,47,139,-23
-42,-29,3,14,20,52,84,-135,24,-72
-16,-64,-13,22,19,46,72,-211,-61,-94
32,-35,11,45,37,54,45,-284,-126,-81
24,-27,17,28,21,20,-76,-266,-284,-86
8,6,25,25,8,-7,-114,-167,-215,-81
2,2,16,42,2,8,-68,-96,-35,-35
15,49,30,42,4,-1,-120,-119,-32,-13
131,271,66,29,30,-9,-144,-76,28,1
126,288,54,13,60,-1,-107,-49,56,15
16,79,38,5,28,14,-73,-105,-2,7
11,-11,13,4,2,25,-16,-67,11,40
11,-26,8,3,4,42,12,-12,47,71
4,-45,-55,-28,-37,122,54,12,70,96
-2,9,-116,-41,-53,213,119,31,81,87
11,86,-71,7,-17,161,165,89,92,73
-21,7,44,31,26,-102,-40,22,7,45
-30,-131,-14,-60,-23,-185,-198,-4,-155,73
-21,-86,2,-32,-34,-123,-60,35,35,103
-14,-73,-29,-18,-22,-112,-7,26,62,95
-23,-104,-92,-44,-23,-95,-66,-39,-59,41
-36,-132,-19,-28,0,-59,-109,-151,-229,-30
-36,-34,19,-3,27,-19,-39,-177,-39,-72
-22,74,-61,-27,6,-72,-48,50,73,-118
-47,-54,-45,-29,-21,-66,-53,201,85,-120
-6,-25,22,13,13,-21,-33,234,43,-101
19,43,41,58,59,16,36,244,55,-67
3,-28,-27,35,55,23,30,126,8,-39
-33,-90,-25,-2,31,20,-46,-56,-138,-62
-55,-40,57,9,25,142,58,-84,55,-83
-24,122,58,22,43,214,96,-87,85,-86
33,259,96,52,77,88,91,-126,49,-63
-41,67,91,41,41,-154,29,-122,-24,-57
-45,7,99,46,8,-140,71,133,35,-28
-12,-82,41,9,-3,-72,63,197,-47,30
9,-95,11,-9,-12,-52,46,-15,-63,55
8,-72,27,-9,-15,-38,29,-174,-83,44
28,-54,5,-14,-16,-42,-2,-172,-152,27
46,53,12,10,8,-9,89,37,52,13
0,45,56,16,12,-9,101,204,132,5
-6,21,69,9,-9,-11,74,151,149,14
-8,-38,12,-33,-19,12,76,124,151,36
26,-25,5,-40,-21,9,64,96,122,50
68,78,38,5,1,-19,55,32,87,104
69,158,96,55,29,-35,17,-49,78,191
131,265,70,-1,0,-76,-29,-114,114,232
180,323,26,-13,31,-50,-15,-186,137,208
81,105,-16,-16,26,-30,-16,-310,54,128
-182,-288,-93,-58,-48,-7,27,169,-246,-130
-184,-290,-101,-66,-35,-3,1,381,-176,-136
-150,-322,-141,-108,-43,-85,-213,389,-577,-139
-116,-313,-190,-100,-44,-107,-286,168,-666,-147
-67,-125,-88,0,19,-33,-130,-30,-268,-107
-16,-11,-36,65,57,9,-15,-168,-89,-81
16,-10,-40,46,31,12,-9,-146,-112,-58
28,6,34,24,34,47,67,-145,42,-26
32,11,57,20,46,68,110,-156,33,-5
28,39,57,5,29,73,124,-17,97,-2
26,10,42,-12,1,50,17,108,175,0
34,0,-15,-41,-18,22,-17,140,214,24
-9,-9,-132,-95,-61,-37,24,94,196,10
-73,-25,-132,-55,-65,-69,12,37,156,-35
-116,-169,-152,-119,-130,-116,37,74,192,-26
-74,-130,-69,-54,-65,-38,90,-23,142,32
83,83,86,87,72,81,90,-5,142,151
216,349,135,93,108,81,0,54,194,200
182,340,77,53,86,24,-67,-176,104,92
28,26,-79,7,0,-17,-133,-376,-115,28
-48,-156,-100,-57,-67,-76,-204,-341,-286,-19
-75,-168,-34,-63,-72,-58,-56,88,-134,-59
-32,-92,0,-20,-36,-2,125,369,122,-24
17,-44,46,38,15,13,84,182,-103,-8
25,108,96,115,75,47,124,-17,-27,-51
15,27,29,96,77,55,67,-140,-82,-65
2,-54,44,84,71,52,-28,-238,-232,-47
-6,37,88,97,67,49,-7,-361,-58,-11
-8,23,43,59,28,22,-42,-381,-7,-9
-32,7,89,47,17,10,-51,-350,2,-26
-32,12,113,55,-6,-4,-32,-360,-8,-40
-22,16,70,32,-21,-25,26,-320,-13,-28
-5,16,24,8,-3,-15,46,-216,3,-4
-31,-34,-96,-8,-13,8,81,-82,43,-1
0,5,-117,-29,-24,19,59,173,-38,-26
42,102,58,22,18,37,27,108,-99,-16
49,149,148,88,70,66,94,90,9,27
45,-20,34,24,18,40,68,0,32,49
4,-157,-17,-32,-23,23,30,168,108,25
91,6,10,-29,17,28,-11,508,68,41
-28,-73,17,-21,-24,-35,-33,280,130,84
-42,-165,-69,-106,-78,-97,-114,261,15,67
-54,-214,-112,-123,-83,-112,-111,221,-109,51
-35,-286,-138,-156,-118,-157,-177,110,-457,25
-26,-102,-66,-94,-89,-74,14,15,-66,13
5,62,37,-12,-19,-3,132,1,175,12
7,30,88,51,31,38,61,-122,82,-6
-2,59,116,98,75,64,4,-296,-75,-60
-19,60,93,64,49,72,98,-186,-92,-92
-78,-65,4,22,-10,33,127,13,-3,-131
-84,-93,-35,0,-11,27,160,28,7,-140
-4,75,-9,-11,25,3,25,47,-220,-119
74,177,-62,-72,14,-64,-159,91,-540,-82
-11,117,30,-11,18,36,82,88,-21,-49
-49,-33,46,19,9,80,108,8,77,-43
-16,-28,69,32,14,57,22,-49,81,-7
-29,-62,48,-12,-10,-5,-123,-14,-38,12
-57,-63,8,-18,-14,-19,-111,24,2,12
-8,36,-25,-8,-14,-9,-30,5,168,31
-21,-29,0,-26,-27,3,-29,-14,129,37
-18,-118,-57,-82,-48,-29,-145,-15,-181,36
-24,-217,-115,-142,-87,-95,-344,-21,-710,27
8,18,-1,-40,-37,-20,-106,-9,-127,55
37,119,31,-9,-33,-20,9,-3,210,75
46,125,48,-8,-26,-15,12,-6,201,82
80,127,35,-21,-33,-49,-42,-4,27,62
61,106,52,6,-37,-52,-26,-11,-13,17
47,111,111,76,1,14,45,-29,134,12
49,71,107,81,10,24,36,-41,140,23
14,-28,52,27,-6,-1,24,-56,140,33
-61,-154,-30,-41,-34,-16,-28,-15,3,13
-37,-131,-41,-28,-25,-22,-49,-7,11,-6
107,393,48,42,68,-15,-14,-29,159,-19
49,299,38,44,50,-24,-28,-96,100,-43
-95,-160,-41,-44,-38,-76,-183,-232,-294,-73
-152,-400,-175,-163,-122,-162,-330,-32,-686,-107
-151,-170,-66,-82,-79,-35,65,310,94,-94
-129,-111,-39,-60,-68,-14,114,256,248,-72
-147,-142,-92,-82,-81,3,140,401,270,-40
-86,-63,-60,-38,-26,61,190,631,123,-16
-36,-77,-25,-19,-1,70,197,520,-48,8
-59,-75,-25,-25,-23,42,154,193,-5,-19
-60,-28,-27,-11,-34,36,102,-96,129,-43
-47,-10,-7,3,-33,23,14,-273,111,-56
-35,24,39,9,-42,-20,-131,-406,-24,-63
37,77,46,-4,-52,-15,-114,-325,69,14
165,156,113,69,25,63,28,-200,226,128
196,189,191,170,115,124,69,-180,173,195
136,116,109,110,51,71,25,-222,180,178
39,-8,-19,-20,-68,-52,-96,105,123,140
40,-1,-20,-2,-34,-10,-1,294,155,159
100,134,35,85,40,70,5,-220,-78,63
120,142,81,93,50,105,-51,-192,-52,57
170,258,118,91,71,26,-224,-95,-336,-5
201,278,12,48,69,-35,-286,93,-570,-66
37,142,-18,76,52,46,25,39,-33,-69
-73,-21,32,52,-1,51,92,-39,29,-81
-81,-96,26,25,-32,25,77,-29,26,-90
-82,-155,-6,11,-34,-33,-63,-42,-166,-120
-115,-160,-30,15,24,-29,-155,-53,-272,-134
-96,-77,-13,67,56,-2,-92,15,-80,-92
-64,-1,7,98,88,29,42,21,94,-60
-58,-44,-15,72,82,35,53,0,74,-43
-51,-93,-154,3,20,-17,-13,-7,-90,-29
-18,-62,-186,-13,-1,1,34,-116,-20,-4
24,62,-36,-13,-28,-29,4,-130,153,11
31,83,29,-24,-48,-60,-27,-102,153,25
47,17,-66,-100,-68,-104,-130,214,-169,41
-41,-151,-107,-115,-72,-116,-183,506,-525,13
-53,-34,25,28,27,40,154,230,75,55
-6,17,82,93,95,93,158,-141,122,77
12,32,64,85,80,63,79,-229,86,68
-9,-74,-86,-46,-12,-18,-34,-78,-44,72
4,-24,-159,-43,-7,-18,-26,-25,37,81
208,292,-22,-13,41,16,34,-105,230,143
122,99,-15,-32,-9,31,115,-50,214,131
74,-102,-48,-78,-80,73,-21,-53,-173,120
63,-285,-156,-183,-160,46,-174,17,-605,114
39,-156,-101,-71,-72,94,175,244,72,140
-46,6,-104,25,69,-73,120,193,215,47
-47,123,-65,29,51,-189,-66,56,93,-26
39,159,-42,-15,2,-120,-73,68,-89,-38
10,97,9,18,25,-50,48,48,-58,-38
-44,20,117,74,61,17,150,7,102,-61
-41,-164,-1,3,24,31,184,230,243,-52
-33,-190,-46,-15,6,42,168,252,268,-68
-48,-77,47,38,33,39,29,-4,-39,-118
-48,12,103,67,48,41,-26,-146,-57,-106
-10,138,107,91,68,62,27,-154,101,-61
105,388,125,99,93,53,61,-54,166,-48
78,293,97,62,59,49,68,-38,146,-49
-29,-5,-10,2,-2,21,-27,-58,-77,-70
-54,18,10,28,-4,18,1,-27,6,-91
38,5,2,-7,-11,38,71,-112,153,-25
7,70,16,3,-2,38,23,-286,102,-47
-27,-23,-63,-75,-52,-73,-207,-450,-336,-89
-90,-204,-121,-182,-150,-218,-436,-437,-701,-105
-95,-126,-76,-124,-142,-146,-172,-135,-14,-35
-57,-89,-8,-43,-67,-22,0,357,296,40
-8,-106,24,18,24,62,26,483,297,103
-8,-159,9,27,15,35,-79,273,48,74
-85,-88,59,44,-5,56,-42,160,83,5
-70,-60,-32,-25,-31,158,115,259,261,2
-5,2,15,4,8,259,213,245,238,56
26,51,100,81,64,107,161,-110,10,50
13,-4,77,78,87,-113,39,-320,-371,-27
13,-4,90,89,95,12,101,-123,-243,-31
3,30,68,51,44,33,85,-28,-3,-23
-14,22,27,17,45,48,167,66,20,-44
86,139,-20,-43,56,-18,-14,87,-379,-57
130,190,-101,-91,39,-68,-168,14,-603,-61
5,88,-16,-4,18,30,99,-36,44,-40
-60,-29,-3,12,0,37,125,-93,106,-52
-50,28,67,59,30,45,78,-223,38,-69
-28,-13,47,33,17,43,-52,-200,-113,-45
-32,-38,46,31,38,38,-109,110,-85,-36
15,29,50,46,41,13,-59,104,63,-3
13,17,0,-9,-14,-6,9,6,203,42
-48,-37,17,-15,-29,16,60,-11,188,41
-69,-83,0,-35,-31,-5,-2,-26,4,27
-64,-44,24,-19,-25,1,34,-29,120,30
-32,17,50,5,-23,18,54,-7,266,52
9,22,0,-8,-36,6,22,-9,242,89
81,-5,-71,-68,-51,-69,-162,10,-192,89
42,-156,-91,-116,-91,-106,-250,19,-482,55
45,-13,-8,-46,-71,-25,51,82,161,68
62,29,-51,-27,-71,-29,55,67,228,75
43,46,-85,-3,-61,-18,45,12,164,49
39,-12,-39,-54,-76,-48,-51,-30,-59,38
24,-20,-17,-64,-64,-39,-47,-18,41,53
-1,-29,8,-13,-25,0,23,21,175,20
-29,-51,16,4,-3,4,60,29,159,-17
-42,-65,13,-2,-6,3,42,-58,82,-23
-37,-115,-4,-30,-14,-23,-15,-97,-176,-39
-20,-114,-3,-32,-26,-21,45,-47,-253,-39
17,-28,28,13,-7,17,98,-97,-79,-15
27,28,13,21,-4,23,58,-185,92,2
33,55,-23,29,8,27,79,123,184,14
148,286,52,59,64,-2,-3,266,65,36
5,-9,50,35,36,46,-18,-39,32,-38
7,3,34,12,27,43,-30,-26,-7,-52
0,-111,-50,-65,0,-28,-202,-71,-412,-64
-19,-146,-88,-82,-12,-51,-227,-148,-444,-63
-7,122,16,-8,30,-4,-29,-322,67,-48
42,325,46,-5,43,-42,-42,-368,120,-59
-15,183,38,-18,-5,-66,-36,-122,144,-70
-64,-93,-37,-66,-60,-70,-104,-12,-47,-36
50,141,159,95,89,107,142,137,149,46
-2,44,74,9,29,52,64,139,143,39
-23,-149,-65,-103,-35,-54,-142,105,-211,28
-40,-257,-125,-147,-78,-105,-229,132,-366,26
-35,-126,-74,-64,-48,0,40,218,128,42
0,-33,-2,5,3,57,148,437,242,44
33,-17,-10,25,25,55,107,419,186,52
31,-75,-2,4,14,26,-9,209,-42,53
18,133,85,50,30,65,80,56,133,-7
-67,-2,12,8,-4,8,61,177,101,-71
-111,-196,-127,-96,-61,-81,-84,342,-273,-115
-95,-248,-146,-109,-69,-73,-76,292,-321,-105
-72,-76,-31,-14,-25,23,137,190,174,-65
-22,29,42,31,2,43,85,17,137,-12
69,137,94,79,61,68,25,-147,63,63
204,373,115,80,107,33,-107,-163,-66,60
11,46,19,-4,-22,35,65,139,206,-26
-16,-25,-41,-64,-56,-18,16,125,187,-24
-12,-99,-129,-122,-79,-93,-215,-45,-293,-58
25,-85,-109,-108,-39,-74,-287,-259,-529,-50
58,172,133,85,87,59,-29,-366,-26,-13
11,138,115,81,56,52,25,-293,181,20
-4,-8,-12,-5,-21,8,44,-120,196,47
-37,-90,-34,-13,-6,-12,12,-32,1,8
-38,-38,-14,10,8,14,72,-7,135,-12
-17,39,-6,9,14,33,137,7,202,-47
-11,82,-2,1,7,22,130,-9,157,-69
13,106,31,28,25,38,91,-81,75,-49
74,184,125,82,83,32,-97,-195,-110,-51
-90,-189,-47,-10,-2,31,-11,-22,103,-27
-82,-147,-42,-23,-18,15,9,-67,80,-12
-76,-98,-32,-22,-23,-2,-7,-106,30,-21
-36,-162,-107,-86,-46,-77,-234,-93,-449,7
18,-102,-79,-47,-19,-52,-192,-52,-463,71
100,260,82,60,49,35,40,-97,148,114
171,374,67,45,61,0,-47,-128,218,139
60,58,-48,2,0,6,3,-95,138,105
-14,-77,-121,10,-9,-2,17,-91,-102,29
-53,-122,-75,-6,-35,-43,-4,-252,-190,-5
-56,-159,-71,-72,-73,-46,69,-378,-42,8
-33,-109,-59,-61,-68,-17,104,-348,103,36
60,53,52,49,25,59,104,-176,111,97
112,142,155,120,102,115,108,211,53,107
69,85,65,24,-6,44,102,419,302,135
30,68,50,21,-19,23,68,360,249,89
-38,19,30,20,-16,13,50,445,206,28
-54,-232,-202,-107,-85,-96,-196,401,-317,-9
-38,-291,-270,-145,-124,-135,-237,243,-385,-17
8,78,0,9,-19,-30,62,216,195,-19
66,278,67,50,46,-9,132,331,233,-19
15,146,44,35,26,4,104,276,154,-10
-38,-74,-8,-28,-26,-31,-45,65,-82,-39
-36,-67,-1,-14,-8,3,-5,-10,15,-68
-62,-38,16,11,9,40,61,-53,31,-99
-32,1,5,49,35,58,54,-179,-46,-102
33,66,21,90,78,64,13,-292,-149,-96
77,102,93,43,43,3,-105,-326,-341,-105
6,11,100,30,17,-12,-87,-223,-262,-97
-8,-40,48,16,14,19,41,-95,40,-55
20,51,71,33,18,36,83,-100,124,-13
41,39,50,19,10,17,77,-83,77,-2
46,-65,-26,-27,-29,-36,24,-41,-73,-16
-22,-30,-19,7,9,36,128,163,234,-19
-67,-60,-21,-11,-9,12,114,227,256,-4
-114,-90,-25,-43,-61,-72,-7,192,172,17
-84,-287,-164,-162,-139,-218,-363,42,-539,38
-41,-262,-168,-165,-132,-225,-376,-126,-604,101
-35,-19,-38,-35,-56,-55,12,-296,198,172
-39,5,-19,6,-12,29,59,-446,192,150
41,133,59,62,44,82,71,-355,80,75
187,368,116,114,112,84,62,-95,-112,2
145,359,57,105,110,87,124,182,123,-53
-3,54,-8,31,28,65,157,175,205,-117
-23,-3,42,41,25,72,157,101,147,-142
-21,13,68,67,48,97,139,25,54,-111
-19,-71,0,14,19,28,-12,-69,-216,-92
-13,-89,-15,1,1,-5,-54,-147,-250,-74
-25,-3,-6,8,-22,-13,-15,-220,-43,-67
-46,-9,-24,-15,-54,-13,10,-218,81,-60
-73,-52,-31,-54,-75,-33,34,-109,86,-62
-85,-95,-95,-70,-70,-32,36,96,-36,-46
16,10,-78,24,23,91,174,135,234,47
17,2,-17,0,25,64,131,81,202,23
91,115,23,11,40,47,64,206,126,45
129,50,-59,-73,-6,-91,-302,200,-565,31
36,-117,-66,-96,-42,-119,-377,41,-686,27
35,48,-15,-5,16,14,11,68,144,70
24,69,-33,29,27,26,84,107,223,71
-21,63,106,85,37,17,61,97,170,54
-66,-100,9,25,1,-5,-10,145,10,55
-51,-111,-144,-1,-20,24,106,203,171,41
5,133,-120,9,14,23,159,203,232,2
59,264,-38,53,54,25,102,97,161,-33
-20,7,-18,34,13,13,28,-60,22,-41
-64,-110,-7,-18,-18,-23,-63,-88,-192,-44
-68,-98,33,-24,-10,-23,-72,-108,-185,-41
-51,-5,106,34,21,17,8,-189,2,-21
-35,-27,75,7,5,11,57,-270,55,-46
-32,-55,15,20,6,20,70,-337,-1,-43
-45,-82,-12,-20,-22,-12,-2,-333,-161,-51
-89,-124,-36,-77,-74,-23,97,-97,92,-50
-80,-94,3,-43,-55,-33,83,170,228,-50
-62,-32,55,15,-18,-25,-1,279,250,-32
-70,-63,14,-3,-39,-51,-14,682,208,-44
-45,-87,-20,-16,-38,-67,34,900,54,-29
140,349,150,105,79,49,14,-338,5,30
225,552,214,121,101,46,-68,-390,20,37
135,251,162,72,41,9,-189,-266,26,75
-10,-303,-106,-123,-114,-205,-605,-180,-705,42
-46,-450,-265,-183,-162,-211,-487,290,-562,27
-16,-163,-54,-25,-63,-10,46,483,364,54
2,-48,54,40,5,55,96,26,219,34
21,-11,45,40,30,55,33,-323,43,12
54,-2,34,32,38,40,-65,-233,-195,17
63,-1,86,65,48,80,19,208,-155,57
48,21,52,31,14,69,113,299,91,108
58,83,55,28,14,53,114,91,161,111
55,102,61,32,3,32,66,12,111,85
28,7,53,12,8,0,-25,-18,-58,58
13,13,45,26,46,34,42,-96,89,68
44,95,39,34,63,59,85,-196,148,93
41,110,53,49,73,62,78,-218,132,86
31,69,54,43,60,53,40,-165,78,92
60,23,0,-4,4,0,-56,-169,-111,100
72,95,-14,-17,-23,0,36,-131,55,83
44,44,-60,-45,-30,-9,85,86,190,71
24,-89,-92,-29,-19,-10,54,156,231,96
38,-34,-80,-81,-44,-52,-17,71,126,87
91,139,-77,-126,-29,-91,-82,55,-42,54
-67,-19,-72,-54,-36,-28,6,-286,61,-80
-109,-69,-36,-55,-47,-11,1,-400,1,-157
-156,-107,-57,-82,-55,-42,-80,-348,-85,-210
-147,-352,-228,-201,-106,-215,-527,-175,-983,-233
-68,-317,-155,-145,-39,-185,-522,99,-1069,-160
-22,77,113,50,81,0,-42,344,78,-110
-14,111,172,101,100,62,43,410,287,-76
16,90,169,109,95,98,146,142,219,-41
14,11,101,24,43,46,135,-60,-22,-50
-2,24,83,21,25,43,190,-144,60,-81
-31,10,35,57,47,45,196,-222,75,-114
-19,-16,-2,74,83,44,128,-279,41,-100
48,84,57,38,87,22,25,18,124,-39
116,154,36,-12,61,-11,-54,484,28,17
10,66,52,1,34,15,55,515,161,24
-13,54,68,-7,10,23,100,308,177,14
-19,27,35,-39,-2,43,165,247,156,24
-29,-1,6,-34,-6,40,160,262,68,10
-39,-87,-56,-46,-20,3,42,183,-129,-6
-40,-52,-56,-36,-25,22,113,147,72,2
48,203,59,12,29,35,115,53,132,2
72,220,71,6,36,27,119,69,132,1
-21,-61,-12,-48,-3,3,55,49,63,18
-20,-152,-76,-93,-44,-37,-83,-15,-123,36
12,-89,-75,-80,-49,-32,-58,44,-94,64
46,40,-70,-6,1,24,64,53,108,109
42,96,-6,61,52,68,122,-61,139,111
17,62,76,53,52,50,98,-139,58,98
15,-20,26,-13,20,-12,-3,-189,-114,80
-15,-18,32,18,19,8,59,-185,31,48
-28,-15,31,49,28,23,59,-192,19,29
-26,-13,24,29,24,16,37,-162,-11,8
-29,-23,28,25,22,-8,-31,-132,-88,-31
-43,-73,38,22,11,-40,-112,-177,-209,-46
79,180,4,3,0,-62,-73,-125,149,-48
113,289,-11,-33,-17,-92,-62,-52,181,-70
3,9,-46,-53,-59,-102,-102,-106,-17,-64
-73,-330,-165,-130,-114,-155,-269,152,-617,-86
-63,-230,-110,-71,-65,-43,-5,377,-294,-51
-34,-13,-23,65,40,82,206,65,63,-13
-27,38,47,91,56,64,122,-176,46,-1
-17,50,34,31,4,8,-2,-291,-27,-13
-55,-32,-6,-7,-16,-36,-76,-213,-211,-44
-64,-119,-2,14,0,2,-13,-44,-166,-31
31,-14,76,89,66,75,108,84,92,57
18,16,52,60,48,51,97,12,133,66
-10,-32,-7,13,11,13,23,-148,0,53
0,-58,4,12,6,-6,-68,-302,-193,42
41,40,15,37,13,29,18,-155,131,67
43,-5,19,26,5,23,49,-128,105,58
21,-74,-20,-26,-22,-14,-3,95,47,54
-20,-249,-119,-117,-63,-103,-262,196,-456,36
-37,-155,-68,-31,-9,-20,-76,107,-177,13
-16,49,47,68,58,71,108,37,217,-6
49,155,70,76,39,40,11,-26,177,-9
130,214,-29,24,28,19,-72,-24,125,24
216,328,-71,-36,18,-20,-138,-6,34,46
116,243,65,54,67,57,20,3,190,37
-44,-60,47,64,56,90,122,77,206,10
-100,-115,-29,41,23,68,144,174,175,-20
-162,-113,-132,19,4,33,66,141,18,-70
-153,-107,-53,7,-2,-14,-46,69,-167,-99
-103,-158,-47,-25,-19,-25,-37,73,-81,-48
-70,-21,-5,2,3,15,63,75,143,-37
-69,-8,31,46,18,41,85,4,129,-45
-36,-13,61,49,14,6,1,-80,-18,-29
-26,-88,-10,-23,-37,-43,-84,-82,-102,0
-8,8,19,18,9,25,12,-48,127,16
15,37,-5,22,0,11,-17,-120,111,27
109,135,-1,-1,-4,-52,-145,-285,-44,48
130,45,-47,-83,-41,-177,-439,-427,-573,48
46,-38,10,-20,-28,-114,-311,-541,-216,70
29,-2,36,30,-4,-43,-158,-604,138,86
-25,-54,-37,-28,-49,-21,-37,-267,198,24
-93,-106,-54,-69,-83,0,123,577,195,-39
-37,-102,-59,-50,-65,19,149,908,75,-6
127,219,68,64,55,68,201,574,236,58
152,235,51,51,50,39,128,343,178,58
68,-17,-38,-31,-15,17,17,170,20,46
25,-251,-160,-122,-57,-59,-254,94,-584,-1
-17,-194,-160,-91,-39,-56,-180,115,-371,-27
-54,-53,-32,-18,-15,-1,38,166,105,-46
-67,-90,-38,-6,-12,18,53,172,158,-8
-64,-58,-21,-5,-3,13,-6,112,101,-5
-91,-95,-63,-60,-30,-9,-55,49,-39,-28
-81,-46,-21,-30,-15,32,39,-90,93,-56
-63,14,17,10,2,24,8,-235,86,-55
-50,36,31,34,20,0,-23,-154,98,-49
-46,17,30,37,21,1,-56,-161,22,-14
-27,12,59,40,46,-1,-123,-408,-129,0
98,376,119,95,107,13,11,-214,131,-49
148,505,138,114,152,71,126,-68,95,-43
33,161,85,68,98,96,102,167,-67,-12
-23,-161,24,8,38,3,-173,323,-587,-2
-29,-50,77,69,66,34,-85,127,-251,-11
-41,25,62,70,62,71,55,27,92,-9
-46,22,43,44,38,60,46,53,117,-24
-45,23,42,28,32,24,6,84,25,-25
-49,-63,-5,6,24,-14,-73,43,-134,32
-34,-91,-20,-5,7,-23,-45,18,-75,86
-3,-1,13,0,7,-9,34,-33,136,94
-19,16,-1,-1,1,-12,40,-54,155,65
-63,-33,-5,-19,-10,-14,38,51,82,22
-53,-100,-12,-20,4,-16,2,-7,-40,18
8,-16,-7,8,12,23,52,-20,133,10
-14,-49,-74,0,-22,-20,47,-105,71,-3
-25,-111,-173,-45,-55,-75,-20,-134,-135,-4
-30,-285,-200,-155,-115,-168,-309,-149,-716,-18
-4,-123,-68,-63,-62,-66,-148,-140,-249,-10
78,78,63,76,34,66,49,-65,182,59
84,67,49,72,48,72,71,-44,226,58
107,168,81,26,28,19,38,-135,228,9
197,385,110,31,48,-11,14,-139,269,11
110,260,91,38,30,1,-4,-220,236,19
-30,9,58,34,0,16,-9,-318,157,0
-58,-29,38,27,-9,6,27,-184,137,-26
-38,-32,14,10,-10,38,138,261,216,-6
-28,-66,-15,-6,-11,62,125,326,119,12
-62,-80,-28,-18,-17,14,38,144,1,-17
-67,-12,-24,-14,-9,1,104,305,243,-42
-38,-12,-38,-7,-25,11,110,374,219,-28
-24,59,6,19,-23,11,95,304,160,-39
-15,114,96,69,4,23,70,174,83,-39
-31,34,30,21,-14,0,44,50,69,-10
-119,-102,-83,-61,-83,-47,57,10,70,-40
-136,-98,-16,3,-23,2,41,-227,-62,-81
-54,29,44,59,49,23,15,-356,-113,-51
0,60,44,54,55,33,13,-109,12,-17
-6,-54,-20,39,38,68,35,148,129,23
-15,-111,-77,-31,-35,13,10,221,164,44
-59,-76,-10,-5,-53,-21,42,207,143,31
-48,-88,-25,-16,-66,-23,44,72,112,44
-11,-57,-31,-40,-93,-52,-20,-200,46,34
8,73,97,24,-55,-72,-106,-338,-21,-17
157,237,115,62,16,-67,-128,-260,42,52
138,96,13,-5,-10,-38,-39,-166,77,119
2,-21,2,-9,-27,6,15,-94,-24,36
7,-41,-44,-48,-42,12,71,334,-100,11
28,-3,9,-24,-12,34,131,341,-234,-8
36,98,126,78,68,115,213,-60,-131,-27
57,37,153,118,104,139,143,-252,-127,-6
43,-72,51,70,84,107,77,-223,-104,15
28,-140,-28,19,35,69,24,-139,-68,-2
-3,-94,3,12,-8,28,-17,-112,-33,-27
-6,-30,-2,1,-36,0,-38,-95,16,-13
19,15,-18,-12,-38,-16,-67,-62,60,14
36,27,-16,14,-16,-5,-70,-40,78,35
49,35,25,40,2,20,-26,-26,71,42
75,52,-64,13,-5,4,-1,22,101,68
174,249,-120,-34,-15,-33,19,129,191,136
212,330,-10,-23,-14,-51,48,116,162,126
73,77,-58,-14,-46,-50,33,27,71,76
-5,-29,-157,-28,-73,-62,-3,-23,29,34
-23,-50,-135,-62,-87,-69,-1,-36,37,13
-83,-99,-55,-75,-74,-71,60,26,56,-31
-119,-109,-12,-12,-15,-5,115,60,6,-76
-96,-64,-9,34,29,46,114,30,-21,-66
-92,-138,-126,1,31,37,-5,-27,-98,-56
-109,-192,-108,-48,-9,1,-89,-178,-213,-95
-70,-79,-1,-26,-19,7,1,-314,-27,-97
-71,-66,17,-33,-37,-12,-1,-168,33,-99
-70,-44,32,-29,-25,-7,-42,-20,21,-97
-64,-37,57,2,9,21,-21,76,-19,-84
-22,7,102,38,50,53,22,264,6,-31
