7,-62,-58,-143,-188,28,-12,49,-3,14
-6,-63,23,54,-75,17,-15,18,-12,21
-49,-84,30,330,110,6,-37,-35,-54,-14
-28,-13,-7,208,199,6,-41,-71,-59,-53
192,368,11,40,232,2,-52,-32,23,-31
262,486,27,-26,112,2,-55,-57,43,-20
81,115,-20,-44,0,7,-49,-173,-36,-36
-1,-60,-27,-20,-15,-3,-58,-250,-76,-57
-5,-43,3,-32,-14,-2,-58,-271,-88,-50
-27,-49,15,-36,-5,31,-49,-283,-103,-61
-30,-34,37,2,16,38,-50,-226,-104,-66
2,57,81,98,75,45,-67,-132,-67,-52
-26,0,53,199,136,44,-92,-215,-88,-73
-25,-52,2,131,80,28,-74,-137,-43,-46
11,-29,0,27,4,2,-51,-10,-2,-8
14,-30,6,-3,-31,-7,-25,2,-14,-5
-37,-73,-23,-9,-29,3,7,51,-14,-50
-121,-121,-49,-23,-13,17,64,229,12,-113
-126,-70,-40,-14,1,28,122,302,33,-113
13,232,0,45,80,31,116,216,25,-76
17,170,7,54,91,29,88,47,-27,-41
-42,-27,22,75,64,27,37,-101,-63,-15
-45,-34,49,132,62,13,-34,-225,-93,1
-51,-45,51,130,42,6,-97,-188,-106,-3
-41,-42,58,109,-12,-29,-108,39,-39,-5
-26,-33,63,100,-21,-74,-81,139,19,16
65,109,25,58,70,-59,-55,80,39,64
55,73,-45,-93,23,-16,-12,-3,32,82
-56,-121,-105,-181,-63,-17,28,-61,-22,38
-75,-145,-59,-187,-80,-57,29,-100,-61,-30
-73,-138,10,-58,-128,-75,27,-131,-60,-67
-51,-131,-15,33,-171,-81,49,-76,-20,-40
-30,-95,-16,80,-107,-70,56,16,11,-20
6,-24,0,120,28,-57,51,146,53,-3
0,-1,-57,-17,34,-42,113,554,197,-6
-100,-141,-98,-141,-21,-35,174,867,338,-20
-89,-139,-74,-140,-71,-17,167,718,303,-10
-54,-92,-10,-22,-26,4,136,433,136,-8
-45,-56,43,110,42,13,95,142,1,-33
0,-9,54,128,23,19,41,-80,-15,-4
40,25,53,-3,-21,55,40,-212,-28,30
118,232,57,-138,-34,59,58,-135,39,34
204,481,38,-167,-42,40,93,-5,112,42
127,264,33,-168,-98,45,149,-63,96,52
-3,-43,-43,-75,-105,32,134,-239,-51,25
-1,-72,-48,-20,22,54,103,-358,-121,9
40,-42,9,-13,48,77,115,-333,-24,42
74,-14,15,-41,-55,42,100,-320,-2,91
62,21,-22,-11,-13,43,91,-412,-114,59
80,72,21,-32,100,62,88,-411,-160,31
73,13,13,-85,48,51,52,-356,-155,35
29,-20,-4,-34,2,13,29,-320,-119,27
-43,-82,22,239,112,-32,-43,-363,-207,-33
-75,-115,29,238,119,-77,-81,-202,-207,-63
32,-17,36,162,101,-24,-26,75,-9,54
117,42,29,189,147,46,33,92,91,137
103,85,32,87,58,23,49,53,58,93
66,24,65,16,-28,14,95,97,51,69
33,-44,15,-105,-46,32,151,246,28,55
14,-46,-9,-141,-8,57,207,398,38,49
24,2,62,-84,-14,42,203,216,-24,33
59,32,119,-47,-17,-32,123,-170,-117,26
53,19,87,-71,-64,-128,88,-370,-134,36
11,26,40,25,-58,-242,165,-190,-45,-5
93,323,29,187,96,-125,-70,-92,24,-67
99,354,4,47,57,44,-307,-204,64,-77
15,39,34,-18,-73,53,-217,-270,107,-13
51,-16,119,66,-3,122,-85,-207,152,48
13,-67,24,-85,-47,111,-72,-235,43,-12
-104,-188,-105,-104,-87,31,-100,-122,-26,-104
-121,-194,-141,-106,14,-42,-75,142,10,-114
-67,-79,-91,-84,89,-50,-71,215,-21,-92
-53,-78,-84,-157,-87,-84,-29,344,-33,-82
-69,-100,-94,-211,-211,-71,50,556,28,-72
-46,-84,-84,-197,-194,0,191,663,122,-50
-7,-42,-129,-36,-59,72,255,517,66,-23
-25,-74,-94,144,115,65,197,342,-14,-29
-6,-66,43,180,246,68,135,70,-9,4
73,60,116,162,239,142,44,-200,-17,28
214,380,165,105,211,214,36,-98,8,-1
79,181,108,94,85,107,9,63,-58,-36
-67,-111,-5,101,13,56,-32,97,-137,-61
-84,-156,-80,-39,-52,38,-72,48,-127,-89
-108,-171,-118,-124,-158,-35,-137,-10,-94,-105
-114,-175,-104,32,-127,-51,-129,14,-9,-91
-57,-93,10,273,32,-16,-155,10,91,-45
90,218,228,410,107,-29,-245,-184,30,-28
36,146,285,481,85,-14,-257,-371,-139,-57
-83,-54,179,444,105,13,-161,-360,-253,-103
-39,-41,97,274,208,110,-75,-365,-236,-49
28,-19,15,-62,141,159,-3,-360,-98,54
58,-1,-2,-230,-17,70,-1,-233,78,141
115,40,-7,-308,-57,44,-1,54,190,221
147,103,-21,-334,-40,73,30,146,121,203
91,70,-58,-302,-60,67,86,-31,80,145
-10,-57,-84,-239,-98,16,36,-249,53,94
-86,-116,-95,-246,-151,-17,24,-216,22,28
-144,-185,-155,-339,-229,-19,121,98,29,-31
-164,-211,-188,-411,-265,-24,136,372,68,-39
-133,-180,-147,-320,-211,-25,110,546,115,-5
-138,-158,-116,33,-18,-35,14,549,168,-24
-36,99,-88,92,38,-78,-53,458,211,-20
147,397,-29,-60,4,-100,9,668,330,70
155,229,-16,-75,-19,-34,30,784,322,154
72,21,43,9,11,19,-17,527,178,117
24,-30,96,78,61,54,-10,229,61,38
29,-19,158,200,110,82,-101,-488,-117,27
-17,-40,138,255,122,98,-108,-830,-267,-29
-116,-80,-12,177,44,36,-58,-366,-252,-138
-113,-35,20,90,-32,-31,4,-11,-210,-129
-24,14,83,-27,-44,-27,62,25,-120,-10
96,110,153,-145,-22,23,129,175,5,107
124,86,115,40,133,99,178,366,15,164
110,45,152,206,226,158,81,-106,-105,159
124,71,167,118,114,114,-112,-614,-190,140
58,51,118,43,48,52,-335,-777,-239,66
-16,55,68,43,-23,-59,-273,-587,-220,-46
-121,-74,-67,-86,-223,-106,-1,-298,-177,-145
-234,-225,-297,-318,-439,-168,184,154,0,-210
-342,-345,-374,-511,-540,-215,301,602,120,-280
-296,-321,-302,-258,-163,-112,408,918,122,-236
-206,-243,-186,17,211,22,425,1113,170,-151
-134,-169,-202,-210,147,29,334,827,117,-88
48,89,31,-266,-20,-9,270,488,126,1
271,560,278,-135,-124,-31,243,233,130,44
271,550,312,-85,-266,-49,232,-131,-9,29
50,112,287,241,-229,5,-95,-410,-193,-41
-14,-28,247,846,76,27,-313,-703,-282,-58
75,20,221,806,484,110,-216,-979,-260,38
102,23,16,484,705,152,-154,-887,-172,88
53,-37,-175,96,456,111,-47,-307,43,97
17,-38,-194,-317,120,69,65,115,287,96
-13,-116,-184,-450,-16,51,48,-8,279,83
4,-99,-108,-400,-74,53,72,146,226,87
73,-3,37,-159,8,61,164,578,317,162
139,64,183,96,99,54,149,205,199,213
182,115,297,283,123,33,89,-409,-109,218
166,137,349,476,188,34,-109,-700,-345,161
209,271,385,608,287,116,-390,-741,-339,123
376,586,311,525,371,121,-304,-562,-160,136
177,260,166,264,231,130,-100,-436,-147,79
-8,-31,-26,-186,-106,-2,-60,-301,-128,10
-105,-137,-171,-501,-361,-184,4,132,-21,-72
-127,-143,-129,-335,-277,-190,102,559,90,-60
-134,-167,-66,74,48,-48,229,583,49,-80
-203,-227,-150,-20,50,-1,455,861,76,-133
-84,18,-144,-202,-82,-89,529,952,167,-84
-59,-14,-86,-177,-130,-139,463,559,84,-23
-211,-229,-168,-153,-42,57,139,274,10,-113
-280,-309,-286,-258,-96,88,-183,196,94,-184
-201,-233,-232,-251,-191,-98,-125,27,196,-116
-83,-98,-74,-49,-100,-124,-100,-459,105,-35
6,1,64,123,25,-60,-43,-714,-22,-1
23,47,52,36,7,41,308,-153,22,-4
83,108,93,86,57,154,450,496,113,52
181,121,162,248,191,347,320,405,97,180
292,204,257,165,39,322,261,84,0,279
249,184,320,102,-144,157,126,-155,-65,239
112,84,277,122,-258,-1,10,28,109,154
-147,-144,74,327,-148,-130,-74,265,208,-54
-288,-296,-230,151,-45,-233,-121,514,288,-183
5,86,-369,-384,-98,-258,-106,494,403,-81
239,384,-350,-452,27,-159,-24,152,278,-4
149,136,-227,-250,58,-79,0,-248,-76,17
36,-59,-117,-137,4,30,109,-479,-398,-15
15,-79,-42,-90,-29,93,290,-330,-442,-3
-10,-83,-39,-20,-48,62,221,-138,-389,-6
-47,-85,-38,228,-4,5,91,-29,-235,-55
-37,-32,33,405,-86,-19,86,413,-2,-73
-32,-21,9,428,-241,-20,55,327,122,-37
-3,-51,14,236,-286,49,12,-579,-45,33
-8,-90,-53,-80,-207,52,-49,-1079,-136,44
-46,-116,-56,-80,-36,-57,-203,-1406,-255,2
-81,-140,-68,-82,115,-61,-269,-1483,-473,-91
-70,-117,-61,94,321,48,-116,-688,-265,-61
-42,-98,-142,-7,291,78,104,563,218,39
26,13,-135,-208,226,45,191,1134,379,70
34,-1,-162,-320,17,9,242,1046,443,85
2,-43,-141,-227,-45,50,322,963,408,71
-18,-62,-23,-159,-4,118,323,766,172,36
-51,-84,11,-205,-72,-4,183,480,-36,-21
-37,-69,18,-132,-128,-136,80,184,-99,-44
-14,-37,-18,285,-37,-174,-52,6,80,-13
57,132,40,583,98,-175,-154,25,402,56
182,456,162,332,304,12,-57,236,568,122
184,411,206,207,275,152,13,76,248,100
34,101,186,40,65,133,-98,-686,-194,7
-109,-48,10,-233,-64,44,-116,-826,-208,-75
-220,-173,-148,-264,-77,-43,-108,-405,-131,-170
-173,-146,-128,-131,-37,-53,-80,-33,-67,-129
-80,-45,-72,-239,-89,-13,15,106,-66,-92
109,169,87,-114,23,93,32,-267,-203,-35
205,172,172,183,242,212,12,-660,-277,70
201,113,151,159,273,233,0,-919,-382,70
161,80,105,69,196,187,-8,-1117,-471,21
117,76,149,132,142,103,-58,-1126,-477,-20
12,0,144,275,130,27,-7,-535,-330,-97
-93,-71,90,310,145,28,105,292,-100,-149
8,108,-47,160,150,78,81,259,48,-72
227,437,-81,-146,40,-65,-140,30,238,87
115,104,-168,-307,-162,-177,-343,-133,246,133
104,-3,-184,-331,-251,-151,-323,-24,294,174
120,60,-52,-197,-148,-54,-151,88,288,164
-13,-24,89,64,63,69,110,274,132,27
-168,-167,1,99,89,90,219,427,133,-98
-239,-236,-157,-107,-20,-7,176,525,98,-183
-158,-51,-150,-161,-71,-101,183,781,95,-180
-174,-188,-149,-181,-184,-231,146,607,63,-116
-92,-180,-106,-191,-309,-475,168,525,160,-3
33,-33,-49,-142,-270,-454,208,256,136,91
104,108,158,-15,-133,-79,178,-292,9,113
51,101,346,145,26,311,1,-342,64,59
-119,-73,198,205,41,173,13,138,139,-35
-163,-101,114,344,126,20,-24,111,-51,-117
-184,-156,38,348,34,-66,-277,3,49,-140
-208,-230,26,258,-201,-198,-458,62,180,-119
-100,-142,3,39,-312,-252,-444,-309,84,-5
-47,-98,-1,-69,-167,-144,-428,-942,-86,1
-69,-147,-87,-124,150,6,-385,-976,-240,-50
-165,-237,-302,-403,56,0,-238,-239,-62,-114
-236,-271,-439,-617,-242,-152,-69,602,306,-160
8,145,-357,-438,-213,-140,120,1459,683,-43
379,590,-42,12,147,222,332,991,631,212
300,326,146,168,254,499,682,380,83,261
177,117,197,155,233,418,319,-202,-330,154
216,181,254,118,143,176,-316,-763,-483,128
145,109,143,-61,-117,-73,-217,-161,-212,105
68,39,86,-62,-242,-206,-61,121,19,71
134,143,235,247,-75,-134,46,-200,10,93
67,112,256,377,80,173,-132,-379,-208,17
37,29,156,557,345,279,-156,-490,-384,20
120,70,65,489,543,238,-116,-916,-471,91
83,22,46,86,321,168,-128,-815,-382,52
25,-38,-70,-316,-49,14,-171,-283,-123,48
-12,-69,-132,-380,-166,-107,-257,-2,95,32
-64,-79,-133,-250,-136,-126,-200,264,299,1
-138,-80,-218,-243,-172,-160,-136,421,443,-36
-166,-131,-269,-211,-193,-188,-222,177,296,-62
-129,-104,-168,-105,-125,-53,-142,20,113,-63
-120,-142,-144,-95,-168,-12,-13,118,254,-17
-118,-196,-138,-192,-395,-212,-50,110,442,39
-139,-214,-128,-79,-363,-279,0,164,390,26
-87,-133,0,115,-60,-96,-60,-236,-73,9
-26,72,142,465,309,143,-335,-610,-560,-114
142,410,195,551,538,154,-355,-743,-573,-142
167,314,212,431,470,66,-290,-752,-395,-28
-12,-40,182,329,106,-39,-296,-725,-408,-24
-30,-109,111,35,-78,12,-63,-25,-149,4
107,27,189,-89,-87,153,140,322,-23,107
187,150,164,-352,-212,191,34,55,-161,164
19,-12,-83,-588,-323,-31,-201,0,-92,4
-224,-202,-211,-357,-196,-254,-321,156,43,-240
-407,-394,-245,-38,-83,-255,-207,340,101,-342
-382,-401,-270,234,-26,-160,-28,541,220,-259
-237,-283,-255,-36,48,-60,-53,133,107,-146
-18,-83,-129,-255,120,63,-63,-661,-154,-9
138,119,106,-126,101,152,-43,-1379,-473,50
174,182,222,0,110,160,-77,-1172,-431,92
274,406,305,42,98,157,35,-241,27,174
421,661,370,142,154,237,258,555,279,243
177,228,231,203,121,215,276,529,42,134
21,24,129,215,210,146,179,240,-123,30
18,19,107,160,221,70,102,232,4,42
28,9,75,187,92,10,57,299,188,80
-97,-121,-51,69,-77,-124,-52,442,362,35
-196,-195,-241,-247,-252,-236,-152,622,624,-3
-94,106,-302,-400,-262,-293,-199,986,915,-9
-160,-9,-316,-260,-26,-232,-184,933,1013,-36
-276,-301,-248,-198,-46,-180,-107,572,759,-41
-177,-209,-107,-93,-55,-110,-46,-254,10,-32
60,40,131,177,80,56,69,-743,-664,54
188,148,198,323,174,181,185,-428,-718,107
151,66,52,158,156,121,47,-433,-537,80
58,-23,-173,-241,-33,-39,-46,-309,-274,8
-26,-123,-299,-491,-322,-193,-47,132,80,27
-161,-272,-223,-418,-408,-262,27,993,380,-7
-159,-278,-186,-320,-369,-195,60,926,412,8
28,-94,-46,-225,-272,-158,-81,-101,197,100
109,28,119,66,-15,-34,-234,-673,-187,68
49,-30,140,342,163,82,-16,-487,-352,13
86,36,129,324,164,123,105,-912,-436,17
270,462,199,260,186,78,23,-524,-154,29
257,528,115,0,-7,-68,-73,690,435,72
23,56,-55,-205,-169,-149,-147,692,384,39
-65,-91,60,157,94,32,-6,247,-32,-53
76,52,264,548,432,315,200,-32,-175,23
147,107,264,323,338,325,174,127,-216,75
92,43,89,-69,53,202,-34,6,-305,2
-34,-24,-125,-238,-129,26,-80,12,-137,-104
-155,-140,-174,-168,-109,-21,-55,-50,-90,-194
-263,-263,-239,-152,-75,-5,39,280,-50,-262
-261,-275,-222,-231,-92,-34,38,640,-23,-234
-136,-142,-35,-125,-59,20,-2,327,-168,-124
21,44,140,-15,43,191,99,-512,-358,-29
84,150,272,262,189,173,-48,-852,-339,-35
-2,116,243,464,203,62,-211,-941,-336,-131
54,215,210,209,10,70,-233,-1275,-425,-117
105,173,148,-18,-152,112,-206,-875,-283,-9
13,39,73,12,-179,64,-103,-386,-141,-15
-85,-64,-4,26,-61,-6,-109,-321,-142,-96
-120,-122,-104,71,-11,-93,-308,-533,-29,-118
-102,-171,-234,73,85,-140,-360,-362,167,-66
-118,-189,-180,20,98,-115,-129,589,359,-22
66,162,46,226,106,-30,98,1122,485,64
176,455,108,350,148,-28,35,720,206,-23
17,123,-82,247,-32,-89,-63,578,56,-73
-74,-186,-201,-5,-148,-18,52,544,13,3
-44,-174,-88,-167,-178,2,166,324,-2,33
-92,-218,-149,-389,-93,-44,196,978,185,0
-96,-211,-183,-524,-74,-204,213,1369,441,49
-44,-93,-69,-306,-181,-492,257,906,497,66
55,70,86,-63,-189,-422,240,169,349,94
6,-60,59,-121,-235,38,103,-148,198,87
89,-22,83,-144,-220,223,-152,-227,28,146
108,-26,49,-103,-258,-71,-123,-294,-156,146
-116,-236,-117,91,20,-37,-71,-122,-246,-41
-219,-271,-96,258,239,179,-55,-53,-293,-173
-151,-152,-23,112,10,76,-37,-190,-332,-171
-166,-25,-106,-249,-211,-220,-199,-179,-237,-239
-291,-167,-193,-507,-214,-428,-343,-203,-42,-291
-284,-290,-230,-459,-263,-512,-296,-391,-10,-198
-200,-248,-228,-42,-59,-161,-258,-97,150,-98
-131,-174,-100,39,294,337,-226,381,286,-50
139,113,171,83,430,409,-180,-401,90,99
396,371,395,183,384,373,-241,-1154,-155,239
464,483,461,279,332,275,-322,-922,-548,227
460,655,411,328,286,142,-252,-304,-429,190
272,353,253,259,176,46,-64,271,-169,148
37,-13,42,161,67,-41,-57,279,-74,76
-49,-103,-114,65,-4,-76,-56,-138,-127,15
57,-27,-164,-144,-65,-55,9,-167,-59,88
133,70,-37,-313,-86,3,94,13,-39,137
56,82,179,51,83,230,298,279,-216,5
-44,41,213,291,258,410,457,541,-31,-70
-132,-106,-3,160,172,258,217,521,159,-84
-155,-107,-5,208,-32,28,-36,390,102,-99
-156,-73,114,207,-218,-134,-121,433,151,-80
-122,-106,33,101,-219,-149,-102,417,223,-19
-187,-207,-121,347,121,-76,-15,330,-10,-59
-235,-267,-281,235,225,-75,-4,258,-164,-81
-190,-204,-360,-452,-141,-201,-48,168,-17,-53
17,59,-324,-788,-340,-216,-49,176,220,76
147,76,-144,-567,-230,-121,-89,29,361,266
125,68,7,-189,-30,-64,-116,-240,436,269
-105,-164,-160,-246,-121,-72,-149,-434,459,85
-221,-302,-280,-353,-209,-162,-135,-33,637,10
-246,-328,-268,-301,-188,-212,-10,512,575,-35
-154,-211,-189,-137,-71,-115,170,516,188,-61
71,178,16,43,114,23,215,437,-2,1
200,475,117,64,141,-18,94,423,22,0
232,334,213,149,123,37,-88,-428,106,74
156,85,231,179,38,87,-103,-777,151,92
29,-44,190,166,-19,79,116,40,100,11
3,-56,174,236,125,76,-23,472,-382,-51
221,133,225,141,216,217,44,273,-792,89
308,242,145,-75,81,164,-59,-152,-774,140
233,214,117,-31,-66,-19,-260,-416,-725,52
81,46,91,62,-200,-85,-225,-321,-556,10
-70,-93,-27,184,-90,-104,-194,-472,-418,-67
-179,-241,-256,187,128,-108,-229,-688,-379,-124
-229,-324,-422,-87,101,-142,-211,-443,-200,-107
-263,-343,-356,-380,-245,-213,-126,381,172,-123
-230,-293,-267,-490,-471,-276,-14,1536,685,-70
13,62,-52,-199,-90,-119,122,1587,878,36
67,91,94,62,108,-31,24,380,560,65
-37,-41,146,180,-19,17,-164,-897,-78,-78
-47,4,212,264,-41,146,-144,-996,-441,-194
-55,13,191,177,-10,165,76,-108,-297,-180
49,80,107,94,219,267,337,512,14,-5
80,78,25,-41,323,298,370,380,167,47
140,193,23,-91,240,219,337,134,114,55
258,517,58,-43,156,22,208,525,250,87
171,384,54,35,6,-142,83,664,510,129
-34,-58,-12,45,-75,-134,13,158,342,70
-28,-82,60,87,-35,-113,-151,-419,82,7
88,27,99,40,28,0,-173,-873,84,49
156,73,-12,-80,67,83,-209,-1120,-18,88
91,32,29,2,126,93,-186,-1048,-159,6
-24,56,15,68,60,-17,-66,-580,-122,-151
-276,-220,-163,-66,-131,-159,25,322,17,-317
-374,-438,-266,-191,-245,-194,153,1499,208,-306
-143,-243,-84,51,-29,-33,184,1709,277,-95
-12,-68,45,135,33,64,-40,643,143,-12
116,120,228,187,-53,59,-372,-861,-514,-14
206,242,256,413,10,31,-491,-1195,-715,11
90,149,1,565,234,40,-181,-410,-538,-63
7,118,-161,187,100,-29,170,194,-248,-138
-238,-249,-298,-544,-142,-99,276,258,-130,-211
-307,-342,-261,-698,-155,6,293,-118,-202,-253
-87,-140,-34,-483,-228,38,258,-463,-248,-90
107,53,175,-102,-58,109,214,-325,-164,56
162,169,447,404,194,180,25,-320,17,99
146,165,468,811,370,70,-294,223,453,120
169,292,306,789,340,56,-241,886,656,91
82,76,71,576,226,123,-149,648,399,81
81,-71,-119,314,151,192,-16,-2,-108,116
189,42,-149,-156,53,218,141,-561,-522,146
183,92,-147,-490,-74,125,327,-609,-480,99
29,-10,-184,-514,-135,45,463,132,-91,8
-101,-108,-196,-462,-229,60,216,669,251,-48
-5,59,-89,-345,-202,47,192,704,514,19
115,397,41,-61,-12,1,212,523,610,40
-7,309,31,241,159,-112,-46,-5,512,-94
-27,212,-55,188,161,-200,-329,-445,409,-84
-66,-55,-171,-52,-55,-247,-615,-659,137,-34
-68,-150,-65,-162,-174,-159,-398,-135,-93,-16
-37,-97,153,26,-273,-213,209,766,-212,13
47,-31,219,88,-425,-546,521,883,-39,99
99,112,117,82,-447,-688,522,764,145,139
-143,-164,-153,-218,-161,32,-49,793,195,-16
-195,-278,-316,-367,50,384,-466,353,141,-72
-53,-158,-211,21,136,146,-317,-241,27,32
16,-66,-21,219,191,123,-241,-1029,-228,52
-109,-153,-34,33,250,233,-111,-1346,-568,-99
-149,-185,4,-145,231,248,-103,-1237,-725,-156
-21,-96,85,-53,54,141,-148,-347,-330,-7
101,-9,29,45,-6,92,-100,350,39,143
134,37,25,-79,-14,155,71,305,-220,100
84,-22,-54,-235,-55,171,298,604,-336,43
-9,-129,-169,-229,-31,58,264,716,-102,32
-148,-250,-353,-210,-30,-103,94,217,101,-39
-228,-309,-383,-255,-187,-209,-56,-249,129,-134
-311,-344,-338,-303,-344,-295,-131,322,348,-219
-214,-13,-264,-256,-324,-302,-217,781,659,-191
107,461,39,-78,-189,-255,-264,-162,617,0
154,300,168,12,-51,-17,-72,-795,60,92
26,15,78,3,114,170,162,-401,-260,36
101,88,193,203,260,222,219,38,-290,96
134,121,237,263,352,165,20,78,-145,154
118,70,131,102,220,17,-81,-242,-89,247
105,119,32,-53,-19,-170,-99,-119,-145,212
108,316,-26,-62,-40,-173,124,868,236,113
-129,-96,-133,-96,-145,-143,286,2035,1019,69
-212,-317,-122,-60,-164,-92,212,1920,1293,114
-75,-153,65,40,-89,24,-79,144,689,151
142,114,266,83,-57,19,-314,-1144,-137,202
219,207,309,294,135,23,-397,-2005,-790,143
23,21,134,528,259,-47,-367,-1721,-925,-74
-45,53,7,409,214,-30,-86,-448,-579,-171
-108,-103,-108,256,304,108,169,-38,-220,-97
-140,-230,-177,-120,83,114,254,65,47,-36
-60,-141,-104,-345,-73,87,213,253,67,17
99,74,109,-166,2,98,170,228,-406,21
156,133,160,28,66,122,295,812,-344,61
58,51,8,25,25,108,285,757,-204,0
105,189,59,54,73,132,415,107,-111,-5
190,336,199,117,146,164,518,-638,-80,23
75,97,151,82,52,28,76,-1181,-271,-4
-31,-27,26,-77,-65,-109,-220,-1126,-251,-79
-138,-125,-106,-221,-173,-186,-204,-326,12,-129
-147,-141,-113,-191,-218,-190,-183,367,219,-82
-138,-139,-49,-107,-217,-201,-351,156,87,-53
-123,-68,90,170,-74,-139,-331,-140,-97,-125
66,337,201,340,38,-14,-41,106,-72,-140
123,536,120,359,76,-76,1,420,216,-142
-35,335,161,283,-27,-208,-77,425,455,-161
-253,-147,-9,-11,-176,-244,-219,304,433,-169
-100,-158,-154,-365,-296,-164,-257,185,454,31
223,104,87,4,-132,31,-43,-228,281,295
201,85,136,289,77,33,-13,-555,-194,193
22,-9,-126,6,346,42,204,180,-432,-41
46,197,-243,-322,273,85,514,1139,-71,-81
-12,52,-184,-258,79,126,522,1050,188,-60
-131,-273,-170,-21,-6,7,129,390,82,-60
-63,-230,-115,70,-94,-144,-156,49,-23,5
-7,-176,43,119,-82,-127,-230,-329,-85,41
-188,-338,-74,22,-140,-50,-92,-415,-42,-115
-351,-467,-273,-233,-281,-135,-8,45,70,-237
-243,-305,-276,-382,-293,-156,12,434,166,-163
45,-42,68,65,-36,38,66,-446,-152,32
302,219,479,626,209,200,75,-1067,-392,198
278,266,566,779,302,94,-261,-904,-117,223
185,218,434,410,213,23,-100,-589,96,137
91,77,98,-222,94,66,294,203,244,89
-29,-70,-119,-335,77,51,199,404,363,41
-41,2,-46,-142,121,64,-239,-548,-48,-58
16,53,16,-118,30,-48,-336,-819,-301,-51
10,-49,-25,-110,-72,-129,-261,-327,-202,-13
-58,-124,-176,-91,-77,-108,-223,9,-116,-75
-82,-125,-127,77,-5,-2,-198,29,-142,-96
-200,-215,-99,128,-58,0,-63,409,51,-175
-280,-277,-167,41,-202,-132,52,894,452,-165
-209,-169,-104,43,-240,-194,62,873,582,-126
0,271,27,87,-235,-128,200,592,424,-105
218,539,140,317,56,142,438,270,45,-27
342,338,210,604,670,484,342,-226,-433,135
330,226,281,232,430,307,-62,-1067,-770,137
244,205,201,-420,-224,-165,-564,-1742,-771,68
6,-71,-29,-648,-549,-467,-744,-1487,-461,-33
-238,-340,-161,-393,-434,-330,-328,-286,-110,-134
-286,-367,-328,-298,-171,57,346,761,50,-144
-169,-302,-391,-380,-161,100,658,1274,238,-38
19,-143,-234,-247,-41,-31,680,1249,393,127
228,95,76,15,44,-167,485,227,-115,187
240,125,160,193,71,-133,-7,-138,-219,175
-64,-143,-53,118,181,247,-448,202,-38,-78
-185,-228,-164,-140,113,267,-175,599,211,-169
-94,-111,-115,-270,-85,53,-45,752,318,-101
-5,97,-75,-229,-49,72,182,1017,375,-56
79,85,88,9,142,309,239,273,139,73
120,91,157,25,32,216,-11,-623,-54,119
94,85,129,-91,-173,19,-159,-738,86,146
90,69,63,-153,-253,-49,-88,-482,80,144
106,53,28,-36,-111,-16,-17,-439,-53,132
100,36,83,215,226,39,-108,-554,-210,84
108,172,41,183,309,5,-141,-617,-330,-9
114,317,-85,-45,106,-160,-332,-557,-269,-76
-67,-76,-185,-201,-102,-97,-389,-393,-80,-56
-139,-235,-199,-341,-303,-67,-243,-21,378,22
-62,-126,-96,-321,-352,-118,-231,-300,331,54
-60,-119,-40,-65,-162,-114,-82,-337,26,-13
-220,-278,-88,227,135,-159,88,949,109,-156
-108,-159,-29,132,86,-137,202,1415,385,-42
170,153,225,205,-6,13,318,1,161,151
303,219,359,282,-79,114,357,-949,-200,242
243,137,211,53,-185,5,197,-738,-281,159
54,-48,-45,-113,-127,-32,101,-61,-19,26
-284,-358,-369,-166,64,1,145,1324,304,-162
-273,-316,-292,-60,142,-37,-17,1140,70,-159
109,68,70,215,201,56,-67,336,-188,107
382,462,326,421,418,233,91,-7,-114,221
463,730,405,463,540,225,132,37,12,141
72,223,12,109,185,-131,283,377,103,-1
-288,-343,-392,-305,-280,-512,299,891,325,-101
-263,-321,-272,-317,-418,-358,240,985,389,-130
-136,-136,78,61,-133,217,30,281,139,-144
40,76,373,463,148,328,-168,-875,-375,-110
104,158,445,786,306,295,-90,-1365,-1002,-145
51,97,209,716,418,254,-18,-1012,-870,-182
-122,-162,-205,103,332,272,72,-472,-284,-161
-96,-126,-152,-131,125,218,63,-320,20,-73
5,29,53,-285,14,214,-106,-653,-119,-18
43,23,-54,-445,-54,137,-109,-494,-55,86
55,10,-38,-302,-50,73,-83,-37,68,150
11,21,86,-8,112,148,-33,173,-67,48
44,91,130,128,225,215,33,217,-37,25
42,61,85,85,158,143,15,271,149,69
-91,-121,-61,-50,-6,-38,-91,71,146,8
-169,-207,-143,-182,-191,-208,-224,-382,-46,-50
-250,-241,-172,-337,-374,-321,-202,-331,-74,-152
-347,-311,-293,-502,-498,-413,-164,178,307,-204
-221,-188,-191,-165,-193,-276,-83,248,516,-88
17,74,58,167,129,83,315,388,392,51
151,385,188,275,144,208,489,780,97,8
271,541,311,552,177,197,181,608,-254,59
169,229,277,727,240,133,-211,248,-265,93
83,94,181,412,179,49,-275,71,-167,74
0,0,-126,-289,-42,-68,-279,-44,-98,32
-110,-143,-294,-493,-183,-169,-313,40,40,13
-142,-198,-220,-398,-226,-227,-309,221,137,-2
-83,-78,-93,-185,75,-58,-185,121,68,-43
-24,-7,2,-90,84,41,0,-365,-59,-13
-21,-60,32,-93,-91,-32,113,-474,-131,43
-185,-255,-144,-47,-40,-118,81,-186,-18,-75
-360,-421,-327,-165,-26,-157,129,26,165,-211
-387,-433,-328,-211,-125,-77,50,290,292,-236
-116,-168,-49,99,-27,-3,101,646,375,-25
125,140,113,248,-19,-31,77,322,8,84
390,523,323,199,-55,14,-24,21,-267,143
311,314,288,8,-155,90,140,392,49,194
84,68,180,38,-207,-14,101,340,190,56
-88,-112,-26,98,82,-47,-114,-115,223,-81
-185,-220,-177,-66,233,-78,-253,-192,260,-122
-268,-295,-261,-375,-55,-203,-223,127,341,-156
-162,-193,-175,-434,-158,-139,44,247,302,-81
180,313,117,-127,77,80,337,289,320,91
445,673,271,126,243,255,547,114,285,253
432,417,370,319,330,331,235,-1216,-609,236
309,234,345,374,389,298,-70,-1564,-1052,90
206,137,178,109,169,206,-81,-645,-681,54
144,56,34,-122,-98,90,-39,195,-208,99
-20,-81,-93,-224,-298,-133,-17,405,47,38
-174,-158,-52,-70,-344,-258,43,487,255,-51
-234,-187,-76,-42,-362,-285,125,790,523,-67
-336,-332,-359,-344,-417,-289,-4,882,654,-87
-171,-131,-287,-213,-139,-135,-68,265,428,9
53,133,35,96,260,79,46,-683,56,99
177,294,421,535,404,162,-11,-909,-361,75
135,297,596,887,532,284,-68,-1087,-820,-84
-47,41,315,632,366,202,221,-379,-685,-206
-38,27,14,144,179,87,409,690,-66,-139
97,198,-193,-284,39,14,371,983,334,-42
46,-21,-347,-430,-131,-98,48,862,427,80
-136,-316,-467,-523,-275,-220,-129,636,344,57
-200,-361,-393,-565,-420,-210,337,1229,296,-1
-54,-211,-113,-396,-339,-49,562,1009,131,84
56,-73,88,-123,-188,60,286,47,47,146
19,-25,162,11,-220,59,65,-153,118,113
-71,-56,65,59,-219,-49,-135,27,198,13
-42,-93,90,368,91,-73,-422,-146,292,46
48,9,185,219,97,-184,-588,-387,291,65
141,101,53,-299,-79,-243,-367,-867,-1,101
206,126,-29,-65,89,-68,-62,-1079,-524,87
192,80,33,135,279,285,-67,-345,-799,33
320,174,139,67,239,367,163,-207,-735,196
262,199,172,179,188,262,125,-320,-324,163
-40,6,180,414,386,291,-80,-458,-155,-74
-91,-1,193,298,264,301,-11,-622,-60,-112
21,96,198,70,-87,32,-233,-668,10,-47
-87,-58,-11,-37,-376,-259,-350,-331,97,-108
-191,-197,-224,-91,-321,-364,-143,-70,25,-178
-301,-289,-415,-343,-173,-312,-51,-328,-57,-255
-295,-179,-264,-310,-41,-215,-288,-681,93,-246
-15,228,-50,-130,162,-34,-158,-535,540,-10
41,241,-12,0,98,13,10,429,734,94
-33,-13,69,154,5,-58,1,949,483,66
8,-15,138,121,45,44,269,671,165,65
45,62,187,94,166,197,498,730,-236,29
-66,-34,-2,-88,163,119,355,566,-657,-124
-263,-274,-297,-317,-15,-42,136,247,-535,-272
-422,-415,-478,-512,-253,-225,77,885,241,-320
-321,-387,-354,-354,-296,-217,-21,1056,867,-110
-4,-171,-133,-156,-164,-20,-128,350,880,225
240,57,55,-24,0,193,-181,-529,41,321
367,227,204,155,109,189,-263,-810,-577,276
333,229,162,119,66,50,-184,-492,-594,176
260,162,104,65,86,94,22,-210,-496,120
287,266,173,120,146,168,59,-64,-452,102
285,371,187,167,219,231,115,82,-268,33
105,27,56,88,134,226,175,-61,-176,5
52,-73,-22,0,-11,41,-41,-629,-178,26
38,-57,13,-65,-148,-107,-234,-824,-28,49
-44,-41,70,-179,-351,-177,-150,-374,248,-7
-111,-76,11,-328,-517,-232,112,342,583,-15
-116,-127,-106,-167,-348,-258,178,542,747,43
-258,-141,-289,57,-34,-356,91,616,583,-156
-278,-97,-281,37,143,-210,24,388,318,-247
16,12,115,154,89,111,-33,-801,-119,-7
224,202,313,214,86,309,-129,-1314,-645,87
190,204,354,407,165,184,-240,-933,-866,3
161,185,310,512,422,119,-356,-892,-809,-51
28,19,33,257,442,56,-254,-635,-432,-74
0,-20,-162,139,327,45,-71,-261,-217,-47
-94,-73,-180,-71,111,11,-8,121,-159,-131
-337,-326,-222,-257,-92,0,236,651,55,-261
-326,-291,-105,-137,-60,59,372,696,354,-228
-225,-197,-101,8,-53,51,429,723,673,-86
-119,-112,-46,192,-98,-156,498,835,676,27
19,-23,39,255,-137,-434,521,855,290,122
217,186,150,108,-174,-354,251,-108,-435,236
375,524,177,-271,-118,139,-554,-817,-582,215
361,656,97,-429,-81,219,-889,-338,3,109
98,208,-32,-216,-8,70,-527,24,237,50
-60,-104,-65,93,196,141,1,548,259,46
25,-19,-46,90,164,165,184,522,202,127
-14,-33,-13,9,15,27,-11,134,96,70
-219,-229,-127,-60,-72,-7,145,903,461,-81
-315,-323,-234,-221,-181,-17,248,1077,706,-122
-226,-215,-229,-244,-243,-50,-3,47,353,-110
-121,-177,-218,-73,-174,-20,-59,-229,29,-59
95,21,-8,279,241,172,-25,-810,-311,51
342,315,262,276,395,255,-131,-1633,-748,163
405,407,369,257,319,238,-198,-1466,-749,198
200,214,280,325,385,265,-162,-989,-543,58
59,52,144,127,220,156,-53,-426,-252,35
50,54,70,142,43,26,157,19,-38,92
-2,-63,47,439,134,16,162,-268,-239,46
-89,-169,18,179,107,62,116,-543,-367,-32
-53,-97,32,-146,-28,113,142,-427,-327,-51
-111,-146,-73,-325,-274,-31,180,276,-71,-103
-158,-190,-144,-391,-173,-87,170,504,59,-115
-182,-195,-210,-449,-43,-70,33,392,86,-118
-170,-118,-237,-426,-204,-168,7,746,327,-130
24,256,-117,-292,-271,-303,22,774,436,-99
-78,105,-112,-146,-413,-482,-51,1079,424,-153
-273,-302,-93,168,-359,-384,-43,1567,510,-115
-185,-241,48,428,-24,-131,59,1636,551,10
144,71,224,298,231,177,186,691,300,232
352,249,176,-120,350,408,149,-707,-258,299
310,215,43,-259,323,308,-78,-887,-334,212
218,207,100,8,180,77,-312,-345,-2,150
49,19,59,85,52,-15,-267,-210,163,92
-29,-85,-16,4,14,-42,-50,-491,18,5
-80,-118,-48,-81,-96,-186,-34,-389,21,-8
-53,-51,46,-6,-69,-189,-39,-602,-119,20
2,24,152,160,134,43,110,-864,-295,20
-105,-95,-14,34,135,225,-75,2,99,-38
-70,-2,-93,-81,10,125,43,957,424,10
-137,38,-144,-140,-79,28,182,614,255,-121
-353,-296,-297,-248,-268,-131,280,396,108,-272
-354,-349,-316,-218,-302,-123,490,972,216,-214
-189,-209,-189,-191,-348,-83,305,900,387,-19
-62,-71,-51,-211,-465,-128,-65,563,436,101
106,75,82,-112,-360,-73,-212,-206,131,232
203,177,145,243,44,29,-387,-1534,-566,217
263,427,180,333,327,-62,-782,-2161,-797,100
242,429,166,129,376,-74,-835,-1885,-449,68
105,145,247,218,248,35,-400,-827,-88,68
108,147,318,432,328,181,-72,-86,-180,39
80,121,251,284,204,237,128,54,-360,-10
-86,-78,-110,-164,-154,131,260,686,-160,-55
-271,-309,-417,-307,-322,-101,156,1155,220,-114
-334,-344,-372,-138,-150,-344,-81,800,265,-182
-290,-286,-268,-209,-82,-360,-49,709,326,-157
-183,-257,-265,-172,-83,-189,99,576,295,-70
-10,-113,-134,29,23,56,300,512,180,25
53,-41,2,-1,-95,117,463,1203,392,98
43,-33,17,-93,-212,41,415,1932,700,137
119,64,26,-72,-116,65,296,1500,694,220
128,138,112,22,48,38,90,340,140,145
235,498,331,234,308,99,-42,-769,-628,-48
183,560,291,375,398,108,-118,-978,-618,-211
6,101,37,35,31,3,-68,-695,-294,-112
23,-50,-9,-76,-47,-47,-23,-927,-379,15
84,18,49,54,167,-16,14,-991,-553,14
120,95,136,179,166,47,43,-849,-555,13
40,53,199,349,169,59,39,-834,-390,-48
24,20,188,445,182,-50,-36,-435,-97,-31
12,-43,54,378,135,-195,-168,-138,135,-5
-125,-256,-84,133,27,-142,-25,212,347,-61
-158,-297,-96,-298,-161,-74,155,655,533,-65
-6,-101,67,-366,-159,-1,90,124,172,-3
149,132,306,-22,-24,-1,55,-808,-441,57
91,112,262,242,43,2,118,-364,-405,49
-41,-18,138,440,180,112,-13,37,-132,-16
-73,-13,76,361,196,74,-36,199,102,-37
-129,-168,-160,-266,-86,0,71,757,496,42
-170,-265,-349,-719,-296,-89,-31,608,631,53
-192,-264,-327,-568,-291,-111,-57,355,468,-20
-94,-136,-127,-261,-136,0,-16,-354,134,-36
81,40,41,-15,47,188,10,-846,-265,30
175,137,37,99,44,212,-72,-843,-486,63
269,330,132,166,-50,55,-77,-369,-369,82
296,606,247,320,20,-183,-455,-303,-197,-57
87,340,166,266,24,-199,-370,-316,-139,-159
-111,-110,-3,23,60,11,52,52,-4,-94
-85,-173,-111,-242,-37,5,120,699,433,28
-167,-268,-193,-337,-302,-169,51,728,540,-52
-219,-356,-275,-315,-450,-357,-58,1216,739,-49
-181,-270,-99,151,-225,-274,-63,1144,590,-47
13,12,80,462,143,46,63,555,-12,-32
48,-13,-38,-80,389,335,312,-150,-720,-91
90,-11,-97,-303,383,489,656,-534,-974,-83
152,46,-43,-204,219,395,660,-419,-680,28
166,134,144,118,214,245,314,-543,-285,128
193,216,362,419,270,198,-128,-1139,-398,124
134,153,329,475,258,188,-267,-1013,-441,70
55,101,234,393,159,82,-314,-365,-402,-26
12,51,167,211,43,-5,-403,-477,-352,-61
-53,-115,-126,-392,-277,-112,-345,-171,-17,-9
-115,-194,-360,-651,-469,-210,-287,3,170,13
-124,-179,-352,-425,-391,-183,-141,-188,166,24
-84,-156,-206,-274,-233,-239,-296,-4,241,54
-12,-92,-64,-190,-31,-223,-461,28,283,110
55,23,13,55,97,-142,-351,-171,244,142
125,285,24,167,194,-28,-122,84,267,2
149,375,65,154,185,45,235,889,443,-23
3,42,73,-62,-93,-197,513,1438,479,57
-37,-90,68,-210,-101,-273,535,1141,402,119
-38,-37,59,-206,-115,0,298,223,196,64
-43,-7,6,-168,-162,303,78,7,122,26
-65,-69,-72,-79,-213,89,144,253,106,7
-263,-256,-257,242,75,-76,35,608,73,-180
-315,-343,-368,174,166,-86,-112,774,106,-223
-155,-228,-228,-61,28,-8,-70,718,152,-61
-63,-144,-131,-58,-36,-44,-250,137,107,-6
83,0,82,251,113,64,-95,-260,28,101
145,92,140,65,117,160,73,-248,-163,98
36,-10,-30,-275,-19,141,134,-5,-362,-61
-91,-106,-163,-328,-71,53,244,204,-274,-169
14,229,-77,-192,32,-10,305,236,-104,-153
121,390,-18,-103,-19,-137,31,-62,-2,-88
57,87,-8,-107,-161,-199,-213,-568,7,-20
97,23,74,-39,-135,6,-63,-866,167,121
119,25,8,18,-105,21,-377,-1169,370,233
28,-56,-46,109,-20,-199,-1027,-1638,99,145
-34,-85,-25,146,179,-205,-846,-1716,-340,-4
-89,-67,-150,45,102,-125,-115,-449,-347,-84
-21,-39,-63,-6,-38,-129,59,783,-30,15
3,-28,56,70,81,96,-236,506,-280,24
71,31,135,150,151,207,-60,287,-232,82
-36,-70,64,179,188,340,388,198,-242,-51
-173,-171,-33,90,88,255,582,330,-214,-188
-17,-54,50,-22,1,93,388,595,-93,-43
200,134,152,-77,41,171,296,366,-211,111
218,204,228,63,132,243,265,255,-14,138
66,27,139,113,127,198,170,77,214,111
-6,-46,46,54,79,137,83,-79,62,35
35,17,96,149,91,95,39,-116,14,68
87,84,183,269,134,73,-6,-252,-9,73
64,51,156,202,35,-56,-115,-165,16,53
-57,-96,-75,-98,-216,-212,-65,523,391,17
-115,-58,-285,-322,-365,-192,320,1458,906,-39
52,308,-156,-307,-280,-53,434,1404,969,-7
142,291,43,-172,-61,16,12,-191,407,68
72,4,85,50,210,149,-198,-1203,-366,50
-29,-88,109,284,217,124,-157,-733,-579,-71
-157,-189,66,254,47,-29,-71,-218,-396,-178
-206,-225,0,189,-17,-75,50,28,-263,-192
-149,-156,-64,125,10,-175,0,29,-127,-97
-44,-17,-102,-7,38,-225,-78,-149,33,-13
-118,-127,-101,-182,-201,-244,-115,-358,45,-65
-88,-136,-68,-271,-317,-215,-166,-586,186,-11
49,-38,-10,-182,-119,20,-190,-585,234,95
159,52,63,-11,31,74,-127,-499,-152,110
233,118,102,57,74,71,-28,59,-150,173
212,88,42,44,70,120,124,45,-18,214
138,67,-3,9,21,51,23,-79,-144,117
124,75,94,77,7,-68,-247,-393,-479,62
177,137,222,251,103,18,-295,-788,-631,87
181,124,205,237,88,161,134,128,-285,132
139,82,119,73,-117,87,353,1010,3,141
156,128,132,-93,-302,59,278,635,64,150
126,95,24,-167,-364,65,161,149,124,135
13,22,-50,66,-155,34,37,-70,52,-16
-24,226,16,302,72,-67,-90,27,57,-217
-140,174,-126,72,4,-264,-159,508,153,-315
-490,-390,-498,-389,-235,-359,3,1452,530,-396
-636,-648,-738,-420,-42,-216,292,1826,1014,-337
-426,-490,-500,-385,-124,-204,226,1074,1067,-89
-131,-225,-202,-293,-128,-172,-112,59,657,105
2,-63,0,-20,42,-36,-257,-590,11,109
27,78,116,111,20,23,-29,-217,-461,7
11,76,164,207,-25,114,302,34,-533,-88
-185,-161,58,222,-184,-1,368,276,-477,-282
-61,-43,236,802,102,107,411,250,-484,-207
246,234,414,920,520,268,322,-370,-420,68
413,364,337,355,722,475,55,-1242,-431,226
413,341,177,-180,412,392,-378,-1580,-326,253
340,306,23,-343,105,146,-577,-1338,-92,214
347,556,50,-154,20,0,-382,-659,217,153
165,456,-13,-54,25,7,-166,-180,274,11
-22,77,-27,-17,29,28,-175,-567,-108,-61
1,-5,64,-58,-32,13,-108,-595,-266,-30
-51,-92,1,-156,-126,-18,55,-37,1,-27
-25,-52,72,-19,20,73,109,-180,42,-4
21,25,169,134,158,180,217,-435,-107,-3
-36,17,72,23,53,95,341,80,-49,-90
-120,-102,-46,-87,-67,-5,343,736,84,-101
-55,-72,39,11,28,34,203,312,-143,-24
-40,-61,66,26,44,11,61,-102,-195,8
-50,-106,-10,-93,-93,-68,-20,185,-21,48
-53,-129,-86,-143,-147,-177,-359,-63,-39,50
-82,-161,-110,-155,-151,-232,-527,-395,-82,-11
-156,-200,-177,-208,-188,-250,-351,52,177,-61
-140,-143,-177,-187,-144,-174,-183,558,408,-30
-116,-169,-130,-127,-95,-120,-161,644,335,26
-103,-160,-85,-35,-69,-107,42,568,208,19
-101,-122,-21,132,-4,-26,322,85,-132,-49
-18,-43,61,232,39,154,495,-183,-361,-30
7,-8,55,176,-19,115,392,-140,-254,4
-81,-75,-48,-91,-70,-120,-113,-88,-90,-62
-100,88,-70,-283,-101,-78,-187,157,144,-136
15,401,-23,-290,-157,-109,-108,346,339,-162
-59,157,-66,-262,-292,-283,-314,325,231,-194
-276,-289,-282,-248,-310,-315,-164,784,173,-229
-346,-412,-404,-266,-141,-148,203,1171,271,-179
-240,-299,-321,-142,11,22,319,503,157,-90
-120,-169,-94,16,114,89,218,-93,220,-22
-55,-76,17,105,129,63,31,-884,-88,-29
-56,-20,54,210,87,-36,-54,-625,-322,-84
12,-11,69,304,30,-143,47,208,-306,18
119,63,59,195,-93,-235,-70,-345,-287,158
126,56,45,-106,-255,-86,-406,-885,-30,231
110,57,113,-118,-166,251,-509,-857,241,226
177,157,313,186,215,198,-295,-474,427,272
285,268,397,331,310,125,-15,-97,231,294
291,294,314,381,275,79,122,-5,-118,216
246,264,350,369,321,208,405,-349,-507,135
214,257,379,184,146,235,451,-334,-426,114
-1,66,205,115,17,253,-100,171,-132,-25
-115,-82,43,187,-26,81,-305,758,75,-82
-44,-83,-144,-191,-152,-23,-86,682,102,-30
-60,-148,-303,-328,30,93,130,272,42,-80
-185,-160,-304,-204,223,103,296,304,66,-237
-99,187,-211,-216,97,2,414,749,265,-286
-107,185,-216,-324,-179,-212,309,1580,618,-190
-193,-179,-203,-252,-274,-280,150,1766,768,-4
-177,-257,-144,-81,-189,-191,26,952,529,51
-87,-174,-100,-44,-151,-148,-88,149,449,91
45,1,81,295,189,-5,-350,-1145,-152,78
96,101,256,705,545,102,-509,-1950,-946,-12
92,156,315,662,515,15,-369,-1920,-1023,-35
-106,-43,252,467,150,-244,-304,-1474,-781,-163
-173,-153,219,338,-69,-316,-156,-349,-294,-156
-74,-104,86,-41,-254,-163,141,852,395,21
11,-39,-72,-293,-207,154,210,275,321,66
200,174,-72,-410,17,373,38,-529,-184,101
338,288,120,-220,244,440,0,-392,-449,195
355,301,208,23,329,399,93,-180,-523,186
324,416,107,45,248,316,236,277,-255,112
253,195,31,-20,128,278,277,246,-112,122
115,-52,-96,-102,-30,95,94,13,31,72
-17,-139,-172,-158,-96,-12,15,41,269,-8
-81,-170,-122,-143,-71,63,279,284,476,-14
-131,-188,-77,-66,-66,97,610,670,403,-34
-144,-170,-2,58,-26,124,678,670,41,-93
15,132,137,213,102,100,453,-4,-363,-109
3,84,115,158,74,45,183,-133,-268,-89
-16,-48,9,-90,23,60,-71,-186,-135,-23
25,-11,-15,-109,75,-17,-582,-798,-173,39
4,-22,56,14,-35,-146,-783,-982,-133,52
-103,-142,12,-86,-289,-244,-592,-612,28,5
-212,-239,-47,-95,-368,-319,-530,-273,231,-64
-143,-128,-32,156,-232,-352,-563,-65,282,-22
-94,-73,-131,309,5,-261,-405,69,271,-12
-172,-241,-344,-356,-63,-232,-182,-8,237,-45
-285,-381,-537,-893,-442,-351,-24,122,381,-95
-368,-497,-669,-929,-624,-421,91,800,648,-143
-343,-477,-595,-711,-540,-461,61,1870,949,-124
-194,-296,-379,-432,-339,-259,320,2505,1061,-8
130,90,42,0,51,93,336,1884,648,161
523,681,453,432,449,324,16,-381,-465,224
721,1021,574,548,557,349,-221,-1427,-811,267
491,624,436,385,363,289,-264,-1548,-655,198
295,266,317,172,112,289,-152,-1351,-546,147
212,176,255,117,-8,270,-52,-771,-298,125
35,-15,86,49,-111,174,162,493,-71,-2
-83,-118,-8,127,116,152,266,1105,-120,-101
-153,-141,-97,107,391,157,291,963,-199,-219
-74,-47,-71,0,208,110,293,707,-212,-155
5,-9,25,40,89,81,180,-85,-252,1
85,61,87,128,118,112,68,-902,-340,46
47,34,65,130,128,144,39,-910,-332,3
-9,-13,37,107,115,96,18,-508,-205,-24
-3,-29,9,58,40,-9,-83,-391,-120,-24
-53,-89,-121,-78,-107,-160,-86,-230,66,-31
-3,-10,-171,-224,-267,-248,8,-255,240,48
6,-35,-145,-175,-362,-301,-26,-399,202,98
-170,-175,-120,59,-316,-274,-6,137,256,-50
-295,-262,-146,-19,-485,-357,0,576,404,-118
-208,-228,-182,-299,-555,-330,-221,834,594,20
-138,-180,-121,-135,-90,-50,-245,643,389,59
-29,-51,25,225,392,240,69,72,-205,62
173,226,81,-6,288,282,134,-105,-547,75
389,671,204,-5,142,171,-1,-133,-337,84
333,572,240,114,66,106,-51,-490,-148,56
140,132,180,249,113,80,-115,-1027,-109,38
8,-48,152,269,154,-34,-192,-634,119,5
-90,-164,36,106,-95,-211,-189,349,593,-15
-192,-232,-26,-37,-436,-383,-143,685,774,-93
-303,-288,-72,-7,-340,-252,-184,746,661,-206
-232,-179,-161,43,46,78,-78,531,377,-188
-32,-29,-15,137,353,193,-135,-462,-145,-58
165,127,68,34,322,229,-65,-1124,-613,45
78,6,-74,-209,90,131,146,-778,-503,4
-57,-139,-42,-24,47,45,149,-19,-448,-95
-2,-45,52,-50,25,163,248,470,-352,-22
87,21,13,-135,32,246,291,368,-155,118
136,122,2,33,180,215,218,-107,-120,117
232,397,46,20,211,87,83,-261,-214,28
61,81,-36,-67,70,-41,-8,-260,-270,4
-10,-106,-79,-21,-81,-126,0,164,-62,56
-22,-119,-57,-31,-145,-172,60,573,233,67
-85,-123,-57,-121,-196,-249,-61,463,324,43
-143,-132,-6,-85,-204,-354,-328,226,298,0
-124,-99,37,-27,-220,-387,-343,313,289,-18
3,177,109,95,-51,-108,43,87,-63,-67
11,79,131,218,103,160,174,-369,-292,-66
-80,-115,40,323,160,133,-45,-412,-258,-123
-152,-209,-139,164,156,54,-38,159,-8,-166
-154,-233,-291,-350,-119,-118,67,611,295,-110
28,-58,-108,-373,-182,-60,307,534,476,93
148,48,30,-202,-74,163,622,111,252,179
95,54,32,-19,150,525,734,83,-166,69
-20,5,16,52,270,474,26,-324,-361,-83
-87,-82,9,34,138,109,-261,-497,-143,-104
-118,-85,25,40,12,0,-95,-233,55,-91
-176,-134,-27,-15,-232,-308,69,68,82,-79
-242,-192,-81,-35,-355,-498,259,445,64,-92
-274,-233,-138,65,-97,-131,266,377,11,-157
-181,-178,-185,-38,226,403,285,373,319,-111
97,210,-58,-7,311,304,-44,94,429,51
228,521,153,186,207,83,-371,176,194,57
238,456,338,363,194,40,-495,59,-118,89
97,121,265,289,142,81,-451,-324,-289,80
72,37,138,72,82,77,-230,-324,-299,77
85,24,8,-110,65,1,-249,-612,-278,66
97,53,29,-26,97,-68,-302,-1042,-285,36
133,134,105,78,99,-63,-144,-567,-148,48
0,-26,-83,-148,-119,-132,15,497,95,1
-248,-314,-281,-288,-246,-150,-147,886,171,-133
-204,-265,-303,-224,-180,-34,-31,811,26,-117
-8,-55,-79,-143,-124,157,212,99,-256,10
52,39,140,-117,-123,162,106,-724,-404,21
-8,-23,138,142,3,73,-66,-922,-424,-72
-86,-126,23,508,220,56,-21,-211,-123,-113
-54,-70,-66,180,136,-26,-28,294,274,-16
-60,-124,-146,-251,-45,-109,-152,-119,372,38
-58,-133,-180,-321,-197,-169,-282,-891,196,15
-109,-159,-154,-250,-193,-160,-212,-650,46,-75
-74,-148,-88,-164,-153,-137,-52,389,-23,-49
16,-67,-20,-67,-67,-33,146,722,-6,43
0,-33,28,-20,-26,45,300,676,20,17
57,187,121,6,-57,58,338,475,-9,-1
251,609,262,104,-29,107,407,629,263,100
241,442,172,98,-103,57,183,402,369,163
49,-33,-9,146,-130,-74,-65,-63,198,131
21,-89,50,208,-10,-144,-95,70,152,131
-12,-104,6,45,-39,-149,3,319,126,101
-103,-164,-34,78,28,-105,-65,-214,-131,-23
-118,-124,23,257,191,-22,-161,-690,-313,-103
-22,22,76,355,206,-23,-248,-731,-245,-106
94,59,45,106,174,40,-124,-385,-21,36
100,11,-106,-336,26,112,120,298,293,114
10,-62,-83,-348,-116,71,184,132,145,13
-60,-79,22,-85,-68,40,160,-217,-287,-124
-89,-71,50,100,76,144,233,14,-437,-187
-107,-53,80,196,121,174,234,606,-78,-169
-6,155,90,255,123,62,104,474,128,-127
241,553,198,328,186,53,69,-106,105,-37
40,151,155,7,-241,-82,70,72,229,12
-79,-108,-34,-381,-607,-253,28,269,439,67
-77,-102,-51,-239,-575,-377,-158,49,396,90
-65,-66,-46,42,-240,-330,-272,-180,67,7
59,32,-30,-92,160,53,12,-193,-239,36
144,157,142,-14,379,388,430,-211,-367,75
311,467,331,80,322,391,433,-315,-306,154
277,304,330,122,99,232,130,-542,-337,174
142,73,182,206,57,85,-80,-383,-231,88
-10,-97,-55,175,210,-19,-148,-113,-137,-23
-43,-139,-98,159,240,-219,-416,94,56,14
-3,-111,12,67,56,-336,-703,115,190,86
-120,-248,-131,-143,-113,-159,-344,378,267,23
-183,-212,-263,-290,-143,52,33,-52,83,-114
-215,-208,-369,-449,-257,-42,-52,-485,-59,-172
-275,-372,-400,-607,-402,-178,-52,12,52,-123
-158,-218,-128,-260,-182,-47,216,500,-9,-58
31,18,225,437,340,225,447,-121,-283,2
185,195,350,659,495,293,315,-1043,-465,59
198,150,161,299,282,204,154,-717,-191,141
127,59,-102,-172,-61,-25,-167,-56,126,162
195,189,-193,-429,-221,-164,-190,65,242,174
163,60,-128,-290,-105,53,136,301,212,214
71,-31,-57,-74,18,96,164,428,82,132
-15,-96,-113,-194,-187,-163,-5,869,205,52
-110,-196,-202,-256,-291,-267,32,1133,266,-14
-170,-248,-216,-195,-195,-147,59,796,181,-66
-134,-169,-63,36,15,40,-98,447,152,-64
161,245,173,319,186,53,-260,63,226,71
321,533,220,352,189,-37,-293,-237,246,86
66,68,91,187,17,-17,-310,-343,101,-25
-90,-164,-76,-155,-201,32,32,112,170,-88
-113,-183,-141,-289,-258,76,394,317,74,-121
-112,-146,-92,-111,-200,60,310,299,-142,-150
-48,-78,-10,50,-45,86,192,-223,-519,-116
12,-6,-46,4,176,70,181,-591,-599,-55
-6,6,-138,-115,146,-38,177,-268,-15,-53
-62,-119,-164,-185,-60,-17,323,-72,430,-26
-113,-161,-155,-144,-38,60,266,-7,348,-64
-169,-168,-92,18,16,79,76,218,15,-147
-91,-68,110,288,144,155,-125,-57,-414,-146
77,109,274,538,378,256,-233,-406,-692,-78
25,62,154,461,416,206,-112,-238,-487,-99
-59,85,-52,14,115,-77,-40,211,-88,-166
-5,299,-134,-307,-193,-328,158,518,386,-96
-91,89,-193,-404,-379,-452,122,-76,396,-59
-261,-274,-233,-271,-246,-174,-382,-534,229,-123
-144,-187,-110,-99,-66,2,-510,80,282,1
40,10,87,94,101,65,-319,483,126,128
127,110,177,211,272,236,39,455,18,164
138,132,163,184,291,316,260,-13,-97,113
211,223,202,169,212,248,192,-121,-97,134
139,80,120,41,-11,67,11,201,189,194
-19,-99,-37,-101,-196,-121,-54,600,453,156
-100,-145,-19,68,-186,-220,-188,562,267,48
556,730,325,-49,122,-66,57,-1037,-379,241
342,317,275,-82,-150,-10,-37,-757,-690,137
127,41,110,55,-34,166,-215,-231,-586,15
79,4,23,184,181,159,-213,-372,-172,56
0,-67,-30,52,205,37,-253,-925,27,55
-63,-124,-90,-63,118,-69,-321,-1043,123,-1
-198,-182,-174,-153,-19,-99,-70,-449,75,-150
-142,-4,-56,-7,54,-9,236,63,-192,-184
-182,-153,-54,-13,1,39,362,174,-477,-202
-196,-191,-63,-53,-32,82,481,686,-398,-204
-56,-61,-16,65,53,78,295,744,-347,-105
-23,-21,-21,185,127,22,-81,540,-160,-67
-53,-26,62,150,25,-58,-163,248,-10,-65
5,44,140,155,-78,-164,-53,-414,-8,1
57,149,157,109,-148,-409,58,-534,-47,8
-46,45,41,106,-91,-363,209,-271,-46,-58
-154,-98,-156,52,155,214,237,-255,-27,-129
-76,-76,-108,-232,50,352,113,154,142,-50
-8,-36,33,-242,-133,130,115,747,394,56
29,-7,107,-29,-139,51,79,467,326,95
14,-36,31,173,46,24,-78,0,191,70
-4,3,-20,182,212,114,-83,-183,-16,-52
184,420,46,-16,159,121,-42,-37,-12,-80
201,480,77,-65,45,81,71,216,117,-58
-37,34,-3,-66,-57,82,187,174,46,-63
-74,-89,-16,-71,-118,92,338,31,74,-10
-37,-36,5,-59,-148,-107,-56,-175,193,23
-83,-89,-37,-34,-122,-353,-625,-310,244,-2
-107,-146,-44,-13,-68,-254,-577,-55,321,-1
-164,-143,-79,-32,-69,-110,-254,552,346,-79
-137,-128,-59,85,28,43,-1,445,131,-68
-85,-125,10,169,118,154,248,-22,-125,-1
34,-26,70,-18,48,145,322,-652,-303,66
107,40,109,-196,-160,-25,82,-959,-332,100
44,14,80,-38,-228,-149,-116,-776,-173,79
-25,-33,102,443,-12,-75,-43,-447,-27,61
15,7,127,297,33,-41,-16,144,237,104
23,34,56,-40,-85,-25,61,727,502,121
-54,-104,-68,-258,-280,-27,280,1142,486,39
-185,-266,-297,-428,-267,-65,395,1447,434,-90
-178,-253,-303,-312,36,-16,325,1089,238,-99
-44,-105,-87,-13,181,35,90,152,4,-3
80,70,119,298,179,-3,-304,-950,-352,36
124,162,242,601,400,148,-270,-1457,-687,-10
243,404,261,443,407,200,-38,-749,-559,-20
358,619,144,49,153,31,-11,107,-101,9
194,268,5,-317,-154,-107,-70,170,78,37
-3,-128,-171,-488,-205,-131,-100,38,215,62
-162,-268,-269,-459,-178,-210,-100,-113,227,-34
-224,-308,-242,-279,-129,-122,94,-142,138,-82
-213,-297,-178,-157,-124,-66,242,335,207,-44
-70,-119,-58,117,21,-9,102,229,270,72
99,68,45,120,-49,-121,-248,-472,199,204
27,-70,-79,-248,-453,-414,-540,-421,261,251
28,-84,-135,-362,-555,-361,-462,-84,357,295
-4,-77,-71,-79,-121,44,-268,131,96,200
-68,-99,-5,187,153,147,-46,531,115,88
-76,-80,33,263,411,299,144,772,42,-1
31,36,73,129,473,356,134,496,-429,-19
236,381,165,51,294,225,-52,-122,-789,-19
168,405,72,-116,89,153,76,20,-555,-100
-44,-40,-49,-202,-146,109,306,271,-150,-81
64,34,80,-48,-114,115,266,-168,-77,57
96,61,98,25,-102,-22,-154,-384,58,88
1,-47,-16,94,38,-130,-381,-325,185,45
-25,-89,-62,27,117,-189,-368,-287,169,57
14,-9,-62,-84,-26,-192,-213,67,155,73
72,170,14,-25,-13,-56,47,364,116,61
-35,-11,77,130,40,88,239,-107,-118,-30
-120,-90,110,270,81,105,282,-230,-121,-108
-130,-119,44,187,-28,-66,50,-468,-38,-85
-98,-123,-31,-14,-103,-156,-150,-816,-96,-78
-212,-255,-223,-294,-176,-240,-243,-329,-29,-165
-249,-294,-268,-269,-175,-288,-348,216,23,-185
-25,-13,-36,-34,-30,-185,-232,592,32,-46
65,61,94,87,80,-13,48,713,-124,11
-18,-47,35,66,37,48,260,897,-153,-55
-140,-136,-60,10,-50,89,241,470,-187,-186
-223,-197,-131,-18,-107,142,287,380,-48,-230
-269,-238,-233,-121,-194,6,358,855,265,-213
-191,-152,-132,-105,-114,-101,407,1002,530,-112
171,258,239,154,178,62,494,-18,431,165
460,788,459,278,271,348,161,-1053,53,196
460,765,457,192,134,402,-254,-1222,-328,135
289,300,311,273,165,306,-293,-1021,-531,156
244,156,165,618,507,354,-294,-1120,-710,137
188,128,20,376,448,323,-190,-858,-607,105
62,-2,-46,2,156,195,-1,-367,-302,58
-34,-93,-32,-106,11,149,79,-104,-56,3
-57,-64,-93,-181,-27,74,47,-33,76,-17
-115,-155,-153,-181,-70,-29,-57,-162,67,-61
-103,-171,-100,-75,-61,-113,-155,-459,24,-64
-108,-162,-63,-96,-92,-131,-122,-406,35,-87
-124,-161,-25,-79,-68,-29,82,-3,75,-104
-78,-95,56,-13,-29,54,294,287,56,-52
-22,-44,57,-23,-62,30,438,319,0,-6
7,-37,-69,-99,-164,-151,294,415,152,36
-99,-146,-251,-211,-190,-198,-34,1086,514,-1
-182,-270,-354,-212,-63,4,-196,1398,660,-51
-211,-279,-325,-131,-51,-7,74,1103,530,-83
-153,-215,-125,-32,-35,13,292,696,256,-37
64,1,78,21,30,79,101,-354,-306,76
135,66,95,10,29,20,-204,-894,-525,107
135,58,44,-20,-63,-120,-323,-734,-245,156
291,371,105,69,-9,-179,-344,-502,-113,140
367,619,193,197,110,-71,-131,-56,-17,59
152,249,139,159,8,21,44,205,48,-8
-28,-46,110,167,-123,-70,-46,275,0,-67
-73,-121,30,147,-122,-96,-89,722,121,-57
-119,-194,-59,-36,-176,-15,-83,592,51,-73
-73,-150,-32,-84,-167,-37,-62,-82,-114,-43
69,18,35,-78,15,-11,-69,-637,-225,37
150,115,24,-104,78,56,-7,-904,-203,87
11,-73,-96,-160,105,21,108,-368,14,18
-161,-223,-168,-142,41,-86,94,640,393,-79
-253,-277,-179,-134,-80,-155,186,1286,642,-138
-240,-231,-123,-98,-81,-32,401,1357,586,-116
-246,-234,-85,9,-26,74,469,1101,185,-165
-184,-150,3,196,41,121,331,150,-213,-177
37,253,155,312,120,62,125,-496,-372,-128
130,395,201,250,52,-97,-218,-769,-364,-81
60,87,149,-60,-158,-124,-551,-1338,-449,-39
106,76,129,-180,-230,-103,-547,-1512,-373,42
62,30,115,241,21,-95,-375,-1045,-317,59
-41,-95,37,464,363,8,-76,-316,-260,33
-39,-140,-56,-73,296,69,308,320,-25,95
77,-27,-109,-412,-65,-32,428,298,106,135
88,44,-167,-413,-222,-107,397,-184,0,23
-44,-176,-165,-291,-203,-49,295,-217,63,-30
-21,-146,-64,-184,-123,-22,34,-30,142,1
9,-56,19,-66,-38,-6,-77,410,246,43
3,-65,4,-68,-107,-229,-206,606,337,83
99,0,33,-3,-126,-469,-344,154,4,113
298,208,253,197,75,-203,-347,66,-141,230
253,247,257,215,263,394,-224,159,9,148
-48,-43,10,26,128,336,-137,522,137,-71
-207,-208,-107,-79,4,149,65,876,229,-184
-266,-259,-191,-150,-40,110,212,885,273,-232
-78,-89,-72,-59,10,131,223,798,159,-102
106,40,31,13,21,74,-37,348,43,39
165,80,77,86,39,16,-328,-240,-72,93
210,241,190,233,133,71,-315,-372,-62,66
340,624,285,266,259,178,-74,-319,29,31
299,545,234,198,235,156,2,-383,232,61
91,90,30,126,48,-11,-178,-340,515,100
67,-9,11,104,-71,-132,-332,-565,450,115
52,-40,76,98,-115,-119,-281,-853,-23,57
-117,-194,-94,175,12,-108,-101,-1028,-436,-96
-258,-313,-281,68,21,-133,78,-1019,-603,-228
-320,-292,-245,-140,-130,-89,165,-266,-413,-295
-357,-340,-231,-6,-68,-66,237,252,6,-243
-203,-214,-160,14,-19,-1,272,172,234,-81
-12,-24,17,-126,-101,57,63,-320,57,44
156,145,151,-299,-142,55,-56,-34,-155,131
273,238,229,-121,-37,122,18,304,-222,208
220,185,173,129,77,326,331,283,-269,150
179,134,20,196,177,373,539,334,-98,136
35,-19,-87,9,116,24,-44,306,-61,26
-63,-125,-38,58,133,-159,-304,206,-194,-44
115,73,205,178,79,-73,-101,-244,-239,84
247,200,312,189,47,-6,-9,-339,-153,189
69,36,153,143,51,-14,35,254,-34,52
-138,-135,-7,27,-14,3,-121,82,-126,-160
-88,-30,5,-92,-66,24,-265,-471,-209,-139
102,346,39,-112,51,29,-227,-640,-125,-106
120,468,52,49,157,-28,-125,-488,-139,-158
-112,-3,-173,-102,-14,-176,-101,-429,-93,-155
-317,-393,-444,-436,-336,-336,-86,-14,152,-167
-297,-376,-355,-451,-610,-394,-108,413,278,-106
-142,-191,-153,-88,-372,-258,-77,514,309,17
-65,-81,4,158,1,-115,45,655,394,50
98,165,195,199,381,83,207,646,356,93
298,390,251,47,476,329,370,595,234,221
198,157,179,19,223,327,355,452,-70,173
111,89,199,116,88,134,112,172,-157,73
-1,-22,125,99,21,-35,-118,64,59,-18
-113,-154,-62,-139,-119,-96,-107,-18,231,-82
-164,-210,-187,-423,-345,-59,87,-234,239,-85
-56,-68,-35,-324,-381,-33,141,-508,93,0
68,206,121,2,-187,67,206,-299,-112,20
-73,-13,40,336,219,134,131,-293,-288,-85
-35,-60,66,468,629,239,158,-308,-344,-36
81,41,134,329,461,232,222,115,-101,113
96,27,58,48,185,161,189,73,-40,141
101,23,23,-118,-24,15,53,-99,-42,144
71,29,52,-97,-111,-95,-66,-124,-15,127
83,141,48,-32,-55,-156,0,2,85,81
171,381,130,160,35,-205,230,236,242,40
-67,-28,18,85,-105,-256,266,442,376,0
-242,-285,-222,-276,-251,-227,-112,426,460,-73
-277,-338,-355,-489,-215,-5,-361,239,350,-141
-238,-325,-314,-356,-189,-39,-213,310,224,-147
-116,-205,-112,-41,-41,28,79,232,22,-84
56,-12,93,212,127,188,452,-145,-291,16
73,75,160,299,214,274,517,-133,-499,-22
-18,-55,81,121,151,221,218,-177,-442,-63
4,-48,83,32,56,90,-50,-499,-385,-42
-30,-66,33,-17,-17,-31,-308,-632,-293,-75
-99,-112,-87,-207,-108,-181,-699,-715,-48,-78
-112,-143,-154,-359,-159,-226,-767,-780,41,-70
-98,-127,-116,-321,-161,-123,-314,-201,45,-48
95,174,62,-187,-102,-25,9,472,190,81
326,632,268,86,124,109,111,303,246,176
143,409,264,486,318,111,14,22,-10,43
-176,-105,161,559,252,-36,-142,52,-172,-119
-203,-202,4,82,-84,-167,-138,195,24,-99
-103,-136,-90,-72,-160,-156,-137,78,93,13
18,-64,-130,162,-33,-94,-124,-31,63,132
71,-25,-175,-84,-22,-87,-67,-256,-70,126
-13,-85,-239,-418,-121,-166,-38,-223,-153,-10
-202,-289,-306,-483,-299,-232,-18,305,20,-128
-298,-370,-320,-434,-333,-165,237,923,347,-160
-196,-280,-230,-271,-195,19,487,1211,541,-78
-65,-155,-137,-105,-50,126,239,442,388,-3
53,-4,5,29,78,219,54,-201,9,42
109,103,173,137,135,210,50,111,-180,61
113,179,200,173,147,185,83,511,46,56
104,142,148,112,61,112,113,510,171,99
157,132,171,132,-2,64,7,-517,-33,156
249,241,278,197,-67,10,-166,-1287,-267,213
143,150,270,225,-218,-91,-201,-876,-248,154
-31,-1,186,363,-107,-56,-237,-688,-232,-15
-94,-39,154,697,165,-110,-307,-880,-276,-88
-112,5,144,597,64,-228,-247,-646,-18,-73
75,384,106,-151,-211,-241,-118,-175,394,-3
199,568,164,-269,-4,-18,-67,61,455,27
-107,-36,-75,-9,185,155,187,1203,663,-47
-290,-440,-445,-291,142,86,234,1238,474,-127
-197,-378,-497,-545,15,18,127,460,-141,-126
-49,-194,-295,-497,-158,-16,72,-97,-425,-23
106,33,46,-105,-71,-1,-85,-642,-612,50
161,226,326,330,125,38,-307,-788,-469,53
135,185,295,419,139,52,-162,-594,-305,85
156,91,215,432,238,254,347,-195,-307,169
302,179,250,360,353,323,343,62,-285,316
357,240,223,84,212,193,-59,-304,-359,326
269,168,133,-159,-52,44,-182,-383,-298,246
140,78,98,-181,-161,46,14,0,-166,141
73,43,24,-5,-24,70,174,302,-79,62
59,114,-94,-26,121,-43,133,538,121,-20
-90,-124,-184,-192,-30,-124,57,555,207,-53
-33,-122,-131,-131,-190,-156,-27,115,154,23
38,-51,11,105,-129,-96,-107,-549,-28,37
-34,-107,-18,320,115,-24,-160,-544,-137,-67
-71,-132,-94,99,52,-81,-195,44,70,-79
1,-44,-76,-204,-162,-74,-137,148,199,-14
3,111,-51,-107,13,46,77,442,315,-61
-46,255,70,284,142,4,78,720,330,-186
-298,-168,84,459,-30,-134,22,588,152,-251
-366,-381,-130,126,-237,-207,178,709,136,-200
-263,-315,-195,-184,-339,-172,273,533,96,-96
-156,-211,-182,-428,-310,-93,299,34,-38,-33
-24,-124,-329,-809,-278,-48,245,-232,136,118
29,-43,-304,-821,-500,-257,-149,-485,257,160
-30,0,-128,-544,-616,-356,-441,-541,258,20
-129,-139,-82,-20,-266,-176,-286,70,470,-46
-153,-159,-68,611,344,199,100,900,377,-101
-181,-163,-49,475,503,276,370,1084,60,-190
-132,-148,-25,200,352,154,285,291,-103,-127
-29,-31,36,188,106,52,100,-211,-282,-46
11,5,47,317,247,146,148,183,-230,-28
178,299,142,165,391,348,113,-18,-245,36
337,648,276,-39,248,319,-99,-358,-238,105
248,476,279,-79,89,253,-11,-459,-198,99
-11,59,132,125,178,205,86,-126,-128,-20
-154,-131,32,169,188,92,110,75,-126,-129
-174,-170,-73,-81,22,-36,82,289,-67,-115
-151,-182,-225,-379,-153,-164,16,496,35,-50
-143,-189,-276,-325,-128,-178,-12,575,53,-50
-19,-52,-228,-170,-44,-76,-24,149,49,17
146,50,-37,-63,22,69,-106,-841,-135,157
159,85,-3,21,12,-31,-120,-873,-272,164
100,51,88,89,-121,-368,103,-454,-308,72
78,42,129,162,-123,-191,541,-33,-197,24
-30,-43,56,148,13,394,508,225,-25,-40
-75,-67,-78,-12,59,418,-129,112,59,-55
20,67,-58,-111,103,232,-262,-193,-27,-4
52,59,9,-21,164,78,-414,-329,-133,31
83,49,98,73,123,-69,-566,-385,-171,80
130,91,87,43,64,-71,-508,-763,-225,121
63,16,29,-23,25,-49,-314,-713,-115,108
-39,-81,-58,-126,-91,-151,-156,-267,115,84
-101,-136,-111,-176,-209,-300,-60,87,228,18
-73,-42,-60,-116,-229,-319,48,328,384,-58
-79,226,-158,-115,-107,-158,-262,279,488,-231
-164,177,-209,-165,-84,-160,-455,-69,393,-295
-204,-96,-89,-57,-90,-138,-243,-481,215,-185
-158,-121,56,50,-49,33,208,-309,88,-107
-140,-106,77,87,-39,148,585,99,127,-86
-187,-168,-18,-44,-45,169,487,705,510,-75
-225,-252,-133,15,4,37,282,1199,394,-93
-60,-68,1,104,-26,-49,206,1132,-82,-54
150,113,137,66,-13,52,288,1059,-190,104
211,162,225,277,278,254,359,398,-252,173
285,253,341,418,555,420,254,-708,-437,193
276,277,361,323,461,414,227,-1252,-548,160
182,192,277,142,244,218,-163,-1198,-505,70
175,166,201,-6,19,8,-555,-1003,-329,81
194,194,59,-163,-227,-117,-354,-164,121,157
116,185,-167,-315,-314,-223,-159,652,501,93
-119,-138,-212,-198,-7,-69,136,532,334,-49
-136,-181,-192,-161,66,2,258,436,241,-96
-95,-129,-130,-143,-104,-130,52,254,218,-84
-110,-107,-29,-44,-158,-137,66,313,211,-79
-96,-80,-6,-47,-125,-77,237,754,202,-54
16,15,18,-18,0,7,259,276,-21,8
147,311,137,162,194,119,119,-727,-446,-67
119,441,203,282,306,224,176,-709,-679,-188
-41,44,85,263,166,150,155,-165,-499,-116
-30,-64,55,286,44,-5,-45,-66,-199,31
-102,-181,-88,-12,-184,-72,-27,-58,-63,30
-84,-205,-172,-416,-502,-165,-38,-105,12,68
-59,-138,-124,-311,-380,-145,-143,-396,-114,55
-16,-49,-24,33,125,50,-42,-431,-203,52
150,144,138,192,430,245,134,-239,-97,181
137,60,108,79,227,180,130,-126,37,196
28,-25,87,71,-39,17,94,163,101,98
-76,-101,107,114,-190,-148,-83,378,117,-4
-96,-101,107,198,-159,-198,-249,-145,-21,-46
-86,-67,91,345,-26,-150,-156,-826,-244,-43
-42,-50,9,239,-9,-136,-53,-897,-280,-42
130,186,-62,-66,-96,-175,13,-171,108,6
292,428,40,-135,-47,-70,146,245,468,110
93,44,-31,-176,54,66,190,415,448,115
-48,-174,-215,-343,47,108,81,607,401,54
-42,-133,-173,-290,-30,50,-51,536,303,34
-33,-67,-27,-26,23,72,-60,17,60,-42
-25,-45,46,110,58,160,41,-107,-13,-94
-6,31,83,157,23,93,-45,-190,37,-120
12,142,11,47,-156,-52,-46,129,166,-145
-56,-52,-146,-103,-260,-16,-16,346,179,-71
-125,-157,-243,92,-40,98,-38,455,73,-117
-154,-157,-193,280,234,115,42,233,-195,-175
-200,-209,-198,-93,173,0,160,207,-286,-238
-149,-197,-238,-473,-146,-134,277,446,-144,-166
-30,-84,-107,-313,-243,-167,266,487,-17,-46
132,115,-47,-75,-135,-110,63,204,17,69
160,125,90,40,0,-58,-187,-252,-24,119
15,-27,84,72,136,116,-464,-446,-63,21
-82,-94,18,35,188,235,-356,-287,-181,-81
-21,-46,16,13,94,88,-235,-275,-243,-41
-2,-29,-7,-24,-29,-58,-150,-174,-22,22
-56,-86,-47,-26,-48,-58,149,85,272,51
-124,-73,-9,102,-42,-90,190,145,370,0
-102,172,53,193,-167,-235,0,116,390,-61
-158,95,8,124,-403,-372,-137,128,231,-140
-362,-370,-219,-149,-527,-343,-89,921,180,-247
-325,-462,-359,-205,-189,-235,-91,1670,323,-161
-88,-239,-238,-201,112,-170,-121,1298,547,84
289,111,-112,-331,170,35,-18,-338,278,368
495,378,150,-12,315,289,-16,-1964,-537,403
376,373,251,245,363,317,-3,-2177,-1018,159
157,110,74,78,148,183,74,-997,-642,12
108,6,42,36,56,123,162,246,-224,44
141,61,211,252,181,147,115,396,-126,68
154,71,252,236,186,161,48,27,9,102
108,18,75,-35,45,153,145,-226,38,82
65,-6,-75,-173,-158,-29,-81,-189,14,29
99,88,-59,-177,-229,-100,-249,139,129,-10
87,192,36,-109,-137,-76,-167,302,240,-80
-128,-117,-32,47,-9,-78,-193,53,220,-173
-135,-123,0,168,164,-100,-350,-330,177,-148
-60,-40,67,89,15,-106,-276,-193,230,-55
-70,-41,2,-25,-192,-30,100,188,151,-66
-41,-25,-8,-128,-251,61,480,632,0,-68
-5,38,107,59,-74,93,492,457,-94,-65
144,362,202,291,264,38,170,140,-136,-34
200,426,122,113,298,3,-20,-155,-239,11
7,-26,-85,-117,54,31,-95,-464,-378,-19
-153,-249,-171,-206,-119,-21,-107,-245,-6,-75
-223,-310,-235,-255,-200,-135,-223,-21,262,-74
-173,-224,-141,-160,-126,-106,-268,205,381,-14
2,-82,-13,-36,-84,-199,-1,371,404,134
134,59,53,45,-152,-432,271,-38,60,198
197,153,133,113,-130,-301,225,-685,-311,169
93,26,125,188,-34,162,41,-824,-487,70
163,83,201,336,112,253,182,-66,-324,169
192,120,227,179,116,286,303,-49,-288,221
120,65,111,28,181,522,-125,-504,-425,129
57,14,-16,-32,215,357,-215,-406,-294,75
-74,-94,-71,-147,137,121,-58,197,-48,-39
-23,122,-107,-213,13,9,-14,827,300,-128
109,391,-10,-112,55,-8,-230,769,482,-123
-55,60,-37,-66,14,-61,-497,338,334,-142
-218,-242,-89,-40,-54,-89,-393,428,208,-156
-99,-150,-13,77,-48,-5,-98,473,26,-42
59,4,51,133,-60,38,22,-60,-265,62
-22,-68,-40,57,-105,-5,24,-170,-219,-12
-103,-102,-118,2,-11,12,113,169,37,-81
-150,-130,-85,17,161,75,237,365,145,-87
-134,-169,34,120,132,84,277,46,-55,-58
23,22,201,181,109,103,216,-549,-389,-5
183,197,308,160,115,118,83,-821,-486,73
101,107,218,89,68,68,-28,-462,-359,10
13,11,171,231,138,122,3,-101,-150,-20
-46,-57,70,248,187,102,-79,-74,0,-21
-93,-84,-57,128,134,-50,-167,184,186,-42
-137,-181,-154,67,116,-82,-98,386,279,-31
-154,-206,-193,-146,7,-65,45,489,330,-36
-125,-172,-166,-352,-179,-108,135,590,360,-41
-57,-115,-131,-414,-246,-162,139,572,349,-1
-60,-114,-144,-337,-222,-200,70,439,420,25
-64,-115,-120,-229,-159,-208,-52,85,422,40
-13,-7,-92,-178,-126,-206,-73,205,293,-13
187,390,17,-88,-43,-98,47,403,81,-53
194,369,54,4,-15,55,103,-52,-201,-47
-18,-30,-18,-12,-99,63,14,-248,-267,-51
-82,-150,-119,-124,-202,-64,-111,76,106,-11
-114,-190,-131,-171,-165,-153,-186,206,254,-2
-147,-191,-24,-33,24,-144,-218,-164,39,-63
-140,-141,40,15,-52,-138,-161,-497,-217,-111
-96,-51,36,134,0,-61,108,-429,-399,-140
-26,-67,71,413,310,167,389,-536,-449,-85
129,30,98,178,288,244,496,-568,-372,73
277,163,132,-63,61,101,117,-541,-271,235
317,198,187,-67,-29,-14,-304,-353,-135,302
223,137,174,77,20,-59,-495,-439,-64,241
145,101,210,233,23,-77,-544,-562,-52,158
130,196,320,456,20,-109,-398,-559,-73,79
44,175,245,549,52,-135,-194,-519,-143,-43
-228,-254,-80,340,80,-131,-32,-59,-135,-175
-303,-374,-301,-212,-34,-170,69,676,157,-127
-234,-348,-521,-1021,-391,-211,156,1010,383,16
-151,-270,-486,-949,-319,-185,248,1073,503,77
15,-74,-64,-200,-21,-1,398,924,634,174
63,0,39,34,75,205,463,632,513,152
159,296,65,31,166,373,475,474,129,53
153,314,88,71,231,253,16,114,-168,-16
57,24,67,67,168,130,-92,-371,-353,-9
86,1,55,46,78,155,298,-111,-274,62
110,13,-46,14,-13,137,297,320,-34,157
59,-31,-39,29,-14,55,-310,296,39,149
-33,-61,94,157,-28,-90,-381,221,103,78
-105,-49,94,107,-131,-136,-134,196,104,-44
-89,-39,67,10,-282,-87,-54,-108,110,-47
-18,-40,74,334,-129,17,-112,-793,50,17
62,61,82,590,231,39,-193,-1013,-134,-13
29,70,42,202,375,83,-246,-545,-243,-134
23,26,-30,-392,100,-37,-253,146,-104,-116
-48,-98,-212,-587,-221,-220,-253,456,11,-82
-138,-166,-291,-480,-285,-212,-260,148,-13,-124
78,274,-77,-221,-46,-35,-160,-478,-34,-104
269,556,128,55,224,155,-67,-271,274,5
183,246,113,106,160,114,4,-424,195,81
83,43,110,68,37,37,41,-834,-284,25
79,18,127,36,14,59,174,0,-263,39
23,-85,40,49,134,197,238,541,-28,76
11,-114,7,100,174,243,214,183,-31,96
99,45,61,171,16,16,-150,-503,-60,104
34,40,133,249,-121,-142,-327,-517,-60,-13
-92,-138,34,128,-278,-227,-216,300,104,-79
-66,-132,-80,-137,-250,-217,-212,458,240,-15
-92,-144,-98,-269,-9,-55,-130,213,167,-57
-124,-143,-43,-176,104,103,15,30,-141,-176
-54,-40,101,12,94,254,264,342,-319,-170
21,46,174,173,31,243,287,391,-245,-78
79,141,130,144,107,137,65,-231,-228,-4
53,68,54,-1,75,20,-109,-533,-201,61
39,24,43,68,47,-20,-100,-448,-116,90
46,36,66,150,218,19,43,-253,-128,74
49,38,76,-24,121,37,304,229,-22,99
-39,-41,11,-252,-217,5,500,564,116,98
-107,-131,-40,-170,-240,16,599,627,138,39
-56,0,-33,219,133,-13,258,309,-12,-89
91,341,-14,253,328,-92,-103,82,-76,-165
42,218,-101,-133,47,-102,-7,415,87,-118
-103,-151,-192,-273,-175,-74,16,687,314,-46
-77,-164,-115,-187,-153,-53,-54,489,458,2
-52,-124,-92,-123,-103,-29,-133,65,409,20
-99,-165,-145,-160,-147,-36,-66,71,359,-14
-173,-178,-164,-206,-258,-99,-92,-129,157,-111
-95,-41,-97,-193,-308,-171,-188,-515,-47,-99
-99,-112,-58,-80,-261,-168,-141,-401,-26,-71
-98,-110,-19,171,31,-89,-66,-383,0,-65
-96,-68,25,248,197,-24,61,-671,-199,-80
-47,-3,103,254,171,37,64,-1010,-205,-24
7,64,194,352,212,106,-36,-955,-284,13
39,95,287,455,254,120,-134,-161,-215,35
134,267,184,252,222,83,-219,-33,-53,78
129,224,61,56,175,105,24,337,170,102
-3,-31,-25,-20,85,140,338,775,227,64
-13,-23,-83,-163,40,202,532,695,65,31
36,24,23,-174,22,233,618,104,-182,44
62,25,28,-147,-88,-51,401,-53,-127,113
46,-19,-40,-182,-249,-314,146,223,77,153
26,-5,-19,-102,-194,-185,-149,132,57,86
147,339,116,99,14,-86,-452,-15,-39,-4
122,289,165,261,-1,-376,-335,-91,-115,-23
-42,-21,133,308,-112,-433,-269,-283,-218,-49
-109,-134,-26,292,-4,-13,-343,-312,-218,-84
-133,-219,-198,207,222,323,-353,-97,-78,-36
-90,-187,-188,-8,140,187,-194,32,82,45
-109,-155,-153,-373,-113,131,30,26,181,21
-50,-20,-96,-589,-271,66,174,82,268,26
-58,-26,-100,-486,-295,-43,73,-133,268,0
-118,-132,-130,-343,-258,-66,46,-421,75,-47
-106,-144,-82,-177,-182,-79,-16,-110,-69,-52
-5,-67,33,-5,-114,-69,-53,108,-163,23
19,-18,34,33,-82,-42,-69,-83,-168,42
7,-7,63,197,115,104,31,89,-104,11
48,73,82,195,305,171,-5,-5,-40,26
179,449,154,124,330,113,-161,-268,30,25
191,555,190,112,166,0,-212,-379,70,2
31,144,109,109,16,-75,-198,-391,9,-30
-97,-111,6,112,-78,-65,0,-82,-55,-86
-103,-145,-128,75,-149,9,300,532,62,-41
-62,-140,-131,34,-175,72,458,955,333,52
-44,-123,-25,22,-152,7,385,995,586,92
-17,-63,-92,-237,-51,-95,242,1067,655,116
-88,-114,-201,-434,-64,-100,198,1154,454,32
-226,-236,-184,-180,-108,-106,137,937,219,-79
-299,-297,-108,80,-135,-188,18,562,54,-151
-196,-213,20,148,-90,-112,6,0,-88,-85
-60,-86,77,71,-108,-41,-21,-390,-98,33
34,-7,48,-143,-191,21,-26,-815,-142,99
152,96,-45,-22,22,144,-16,-1152,-396,141
270,256,110,498,381,194,-165,-1384,-730,131
287,240,246,413,466,180,-193,-1361,-780,156
280,205,196,100,448,169,6,-1030,-534,193
241,143,169,39,250,121,80,-654,-164,182
150,20,88,20,63,26,-175,-636,13,121
44,-105,-124,-204,-97,-26,-199,-379,116,60
-16,-155,-185,-270,-163,-58,46,199,194,8
3,41,-144,-175,-43,31,362,440,103,-125
158,441,-13,-88,44,46,399,528,113,-159
50,233,1,-98,-38,35,299,384,-48,-165
-114,-125,-28,-221,-280,-56,178,83,-197,-137
-77,-120,0,-182,-331,-131,41,-163,-158,-72
-5,-61,60,45,-181,-110,5,282,191,16
-18,-65,35,62,-22,-9,-177,847,442,23
-120,-146,-68,99,209,8,-171,827,415,-69
-123,-122,-92,31,181,-54,-82,381,279,-125
-129,-200,-115,-84,20,-84,-67,-38,59,-154
-132,-187,-68,75,124,30,-80,-536,-290,-195
-16,-50,50,190,188,106,-194,-1031,-666,-143
59,57,65,92,141,140,-83,-743,-727,-76
-55,-30,-105,-24,84,173,217,139,-246,-111
-64,-44,-57,78,114,183,319,387,1,-86
9,120,38,142,123,78,278,429,48,-12
8,101,37,206,103,-12,225,247,77,44
-53,-63,42,265,48,-39,196,127,194,58
-90,-84,8,87,-140,-173,157,159,416,58
-158,-136,-111,-204,-398,-358,-37,79,571,19
-201,-190,-216,-372,-411,-404,-328,228,701,-4
-282,-284,-348,-475,-404,-448,-395,607,676,-82
-211,-177,-320,-434,-334,-352,-168,785,403,-86
63,280,-117,-225,-10,88,46,125,49,-29
205,306,91,41,157,246,-88,-1095,-278,91
212,185,263,221,110,220,-228,-1268,-386,145
293,274,378,263,19,228,47,-617,-321,200
286,282,356,318,20,220,289,-122,-319,188
91,108,214,453,263,94,-27,29,-227,40
-29,-15,38,258,401,7,-243,-130,-122,-21
-50,30,-41,-74,358,149,-242,-48,-92,-75
-42,16,-12,-134,188,203,-70,38,-147,-78
-28,5,21,50,57,54,30,-116,-274,-70
-14,60,162,226,-133,-45,62,-298,-137,-70
1,78,263,217,-307,-81,106,-182,123,-1
33,33,153,67,-377,-70,249,507,337,103
-18,-68,-34,15,-85,-10,247,808,312,112
-82,-95,-154,-105,325,121,56,567,79,8
15,270,-126,-108,387,169,12,-12,-191,-99
56,357,-45,-87,82,73,138,440,-134,-117
-57,-62,-160,-138,-218,-33,44,644,8,-80
-26,-87,33,242,-15,77,-18,-231,-184,-27
8,22,240,531,91,77,-108,-959,-355,-31
-110,-118,28,183,92,-93,-297,-954,-322,-137
-116,-161,-108,-56,215,-130,-471,-756,-123,-89
1,-52,-84,225,319,-18,-515,-1064,-115,-9
-6,-114,-221,355,280,17,-330,-557,-23,-3
-3,-104,-135,2,175,43,-107,177,131,40
25,-25,8,-188,58,89,104,263,6,39
100,86,166,-103,-31,135,429,443,-27,81
164,117,232,-68,-117,73,295,467,66,162
62,-1,119,-46,-209,-50,42,263,171,118
73,30,16,-239,-347,-184,-5,247,288,126
53,59,18,-113,-179,-159,90,185,207,56
-91,-132,-9,76,24,-11,215,23,38,-71
-167,-195,-140,-118,15,17,170,-22,-72,-146
-151,-144,-158,-184,-34,-4,133,324,-34,-108
-119,-83,-66,-108,-116,-57,-30,471,117,-24
-139,-78,-18,-101,-183,-99,-254,-20,96,-59
-109,-39,24,73,-155,-120,-284,-330,84,-43
54,255,112,391,58,-129,-271,-400,136,1
191,549,140,365,288,-79,-209,-458,32,0
216,385,149,17,236,-1,-74,-416,-85,114
177,135,74,-292,-7,35,58,0,-47,206
13,-17,28,-130,-32,63,198,492,-17,98
-41,-73,-35,-74,-159,31,110,365,-118,33
-62,-154,-53,-38,-321,-110,160,394,-97,25
-14,-105,-49,180,-183,-190,265,476,-52,78
70,-17,-83,140,151,-137,259,254,13,146
6,-131,-99,163,389,165,-154,-132,-63,66
66,-102,-107,-67,134,172,-299,-151,-18,68
44,-159,-262,-525,-181,133,-44,0,65,42
-80,-237,-267,-528,-334,82,29,100,74,-72
-121,-208,-145,-266,-196,62,47,447,195,-77
-170,-239,-208,-198,43,76,171,1171,412,-55
-115,-168,-263,-344,-16,-11,191,1150,558,-20
-171,-204,-238,-333,-161,-119,112,559,440,-69
-247,-257,-249,-272,-223,-225,-63,50,191,-148
-144,-141,-98,-129,-135,-157,-120,-217,63,-115
-68,-69,9,2,4,60,196,408,340,-41
-125,-164,-126,-201,-170,72,545,901,457,-77
0,-49,-77,-326,-369,-80,179,357,260,2
124,163,88,-152,-246,-63,-198,-677,-199,4
360,649,275,368,298,91,-275,-1413,-641,10
527,804,472,753,700,197,-302,-1436,-877,88
496,511,526,613,598,275,-192,-928,-726,226
289,214,336,377,330,253,-24,-370,-311,204
46,-56,68,141,114,138,101,308,-65,89
-37,-161,-127,-192,-69,23,119,686,-65,48
-103,-180,-171,-278,-139,-31,22,417,-202,16
-163,-142,-140,-237,-195,-105,-95,69,-129,-25
-251,-251,-168,-252,-278,-214,-262,-116,77,-46
-282,-317,-191,-244,-319,-372,-488,-27,285,-35
-183,-216,-114,-155,-277,-416,-382,131,431,40
-31,-69,-8,-120,-281,-318,-33,457,485,134
60,18,138,61,-194,-67,243,265,97,119
12,-21,160,351,103,164,-17,-604,-477,-34
-10,18,111,519,295,147,-135,-292,-216,-91
123,356,49,268,201,100,104,260,252,-46
104,327,-104,-268,35,60,202,489,284,-90
-4,18,-81,-236,50,190,265,160,-26,-182
-62,-72,-45,-76,96,117,318,-359,-291,-271
-47,-54,44,33,70,-97,409,-667,-402,-230
5,-7,78,51,50,-7,395,-443,-355,-88
-37,-37,25,18,80,361,51,-200,-77,-45
51,98,88,58,137,351,-136,-52,62,-2
98,99,150,132,133,173,-133,410,172,42
53,46,169,207,125,73,-354,101,50,-8
47,84,207,273,75,131,-255,-478,-274,-45
60,119,276,357,-39,153,6,-543,-462,-23
-27,50,337,448,-142,64,24,-331,-380,-41
-200,-74,347,802,-13,-7,-25,-243,-368,-187
-147,23,364,1075,334,-56,-116,-409,-377,-184
36,137,136,584,449,26,62,-227,-213,-30
-7,-65,-299,-312,428,210,303,27,-18,6
-116,-202,-449,-961,12,91,159,140,100,-29
-40,-126,-279,-910,-370,-91,-106,12,110,44
28,-85,-226,-657,-268,24,-84,139,162,103
50,-62,-116,-355,-94,98,3,41,213,127
77,25,24,-173,-138,-38,-177,-464,298,126
119,271,49,-168,-287,-259,-199,-47,680,118
96,370,-35,-194,-393,-423,-230,347,874,71
-76,-7,-189,-59,-225,-238,-197,599,715,8
-44,-163,-209,22,81,45,106,577,411,78
58,-76,-131,-87,171,156,208,-181,-332,59
53,-55,3,23,271,293,186,100,-559,6
85,13,197,177,175,241,32,61,-437,27
200,166,323,264,76,141,-73,-158,-489,39
203,180,240,290,144,123,-1,-45,-427,53
123,39,45,107,216,40,-10,-240,-336,40
101,15,68,-23,113,-15,-58,-378,-216,22
113,72,262,189,-1,-26,-37,-201,-56,55
60,29,227,296,-116,-140,-133,155,89,44
-74,-144,-43,280,-32,-167,-94,529,183,-19
-82,-187,-254,-98,-107,-170,-9,465,256,5
-2,-50,-232,-362,-159,-89,136,468,310,36
-49,-125,-184,-255,-23,-34,155,421,267,6
-115,-220,-193,-216,19,-99,-6,166,258,-42
-148,-224,-176,-196,56,52,8,-21,108,-86
-122,-178,-122,-58,67,107,125,80,-109,-99
-59,-114,-86,-58,-9,-42,83,155,-187,-72
-86,-166,-174,-153,-133,-196,-26,49,-58,-52
-88,-71,-115,-70,-168,-282,-149,77,213,-35
176,491,224,251,16,-227,-229,45,456,47
306,614,404,314,87,-51,-124,13,405,143
97,141,274,90,-15,47,69,22,91,66
-103,-154,16,-55,30,43,151,263,-21,-51
-134,-251,-221,-273,-43,3,105,398,81,-40
-54,-174,-254,-338,-25,152,61,-152,-98,-7
23,-62,-107,-153,67,310,41,-505,-378,-7
96,124,37,47,172,403,166,-321,-348,21
112,130,138,144,191,319,127,-266,-228,90
79,66,122,111,96,113,-236,-818,-282,104
70,53,88,89,45,0,-345,-1222,-258,99
48,14,94,22,-31,-71,-390,-1320,-167,83
7,-42,74,-129,-169,-122,-314,-1047,-37,46
-89,-156,-78,-120,-252,-156,-102,-89,256,2
-126,-125,-175,185,-88,-185,-44,798,358,-113
33,217,-158,9,54,-158,55,1613,514,-165
27,142,-175,-200,-22,-138,186,2007,589,-97
81,-35,-13,-82,-39,-46,223,1561,459,167
193,47,181,107,61,59,299,995,166,275
194,49,140,108,16,189,430,391,-103,233
89,-75,12,-57,-167,191,410,-127,-201,127
-14,-142,-55,-20,-209,58,197,178,0,66
-122,-130,-94,122,-135,-201,-228,394,141,-35
-138,-174,-93,-56,-271,-244,-225,47,-4,-64
-88,-170,-116,-218,-350,-205,-169,-386,-65,-20
-82,-134,-91,-117,-18,-108,-181,-779,-213,-58
-169,-211,-138,-122,18,-148,-240,-572,-159,-145
-245,-286,-193,-123,-22,-223,-366,-228,161,-189
-256,-271,-262,-336,-65,-214,-248,170,498,-190
-126,-102,-218,-404,-206,-186,101,549,700,-43
31,106,140,-2,-25,-89,124,219,391,79
10,78,368,412,167,29,211,73,-232,50
100,177,434,539,245,125,331,-603,-1107,13
264,304,425,415,124,-14,208,-882,-1029,101
229,207,148,94,-8,-22,-44,-526,-341,129
114,51,-128,-90,-55,155,-100,861,361,145
103,39,-148,-109,-109,107,168,1284,663,183
213,391,113,101,41,119,127,-207,70,36
323,678,436,321,314,210,-61,-1298,-426,-55
140,346,449,282,435,246,-178,-1379,-745,-168
-7,107,320,112,288,210,-168,-1280,-942,-237
-80,-37,-44,-153,165,231,-29,-717,-670,-193
-190,-222,-289,-196,68,150,189,340,25,-120
-221,-292,-303,-166,-94,-55,180,934,616,-55
-175,-182,-224,-221,-197,-163,17,82,455,-118
-270,-242,-254,-307,-289,-202,12,-718,88,-251
-381,-399,-278,-136,-204,-223,139,160,70,-251
-149,-178,37,-55,-167,-226,77,345,32,-50
89,86,439,-77,-234,-136,74,215,70,118
-12,32,500,-3,-172,40,89,968,310,28
-278,-249,211,62,-175,-157,-198,1258,685,-166
-352,-344,-74,179,4,-189,5,1434,902,-199
-234,-163,-205,394,232,80,475,1162,529,-181
-26,-3,-37,516,343,327,691,255,119,-22
285,346,433,428,338,484,593,-923,-528,121
457,586,798,158,214,462,331,-1636,-1039,172
372,617,1159,249,291,309,-170,-2031,-1176,90
180,510,1243,443,399,85,-590,-1702,-878,-24
102,433,1136,379,242,25,-381,-789,-618,-43
178,512,765,327,164,151,81,-194,-410,16
280,628,307,231,124,132,212,75,-173,34
185,284,-64,160,82,50,151,-91,-105,42
33,-193,-645,169,182,91,218,-415,-153,62
-2,-290,-833,-8,155,29,163,-477,-116,68
-15,-323,-912,-304,-9,-64,30,-542,-63,67
-5,-264,-741,-405,-86,-99,-31,-359,44,77
-1,-87,-277,-417,-233,-122,-127,71,264,85
-80,0,-10,-166,-126,-120,-281,177,344,0
-163,-56,102,-10,-75,-208,-426,63,338,-52
-35,55,50,-46,-147,-286,-562,-242,326,72
91,111,-49,64,-107,-268,-584,-542,181,156
35,-54,-216,161,-67,-175,-390,-511,5,74
-44,-149,-69,200,-32,21,-3,-350,-99,-16
-49,-65,455,153,-123,28,302,-178,-103,-25
-119,63,710,54,-118,-61,506,226,-31,-152
10,497,747,-112,-21,-89,483,749,186,-202
-6,415,266,-323,-185,-113,274,738,308,-135
-160,-103,-538,-458,-479,-49,167,824,357,-71
-66,-265,-880,-229,-427,-53,243,927,390,71
9,-357,-1022,105,-62,-145,224,516,211,119
-19,-406,-971,186,384,-160,98,217,55,82
-39,-339,-780,-233,440,149,-165,224,126,72
-32,-171,-546,-384,185,356,-400,310,153,37
-88,-192,-408,-296,33,187,-159,422,115,-5
-100,-194,-295,-346,-69,142,120,350,89,-8
-70,-141,-33,-288,-178,38,89,52,-11,19
-57,-120,78,-182,-216,-95,-38,-95,-8,25
-109,-183,80,106,-87,-129,-76,80,-12,-47
-185,-263,-75,354,17,-121,-64,482,36,-137
-218,-246,-89,531,104,-59,155,621,68,-174
-142,-207,-81,559,106,-53,471,770,182,-66
1,-140,-69,372,160,37,263,462,203,101
47,-151,-357,-234,162,94,-64,-333,-47,107
23,-191,-604,-628,-173,-96,-228,-502,-125,51
79,-83,-508,-595,-372,-299,-509,-180,-32,104
111,-26,-268,-270,-40,-171,-579,-137,45,156
35,-49,-194,-114,177,28,-358,-373,31,76
158,281,-96,-233,115,106,-64,-108,54,26
192,315,32,-156,123,150,-129,-186,18,79
-94,-147,-135,-212,-105,-82,-289,710,151,19
-214,-315,-268,-310,-371,-334,-283,1541,340,-4
-269,-367,-338,-382,-610,-451,-262,1716,554,16
-251,-341,-313,-378,-633,-439,-173,1156,601,41
-62,-132,-113,-202,-282,-195,17,-274,291,113
88,140,37,-23,297,80,192,-1133,-80,66
92,176,66,27,333,183,305,-924,-214,12
118,109,112,108,213,335,516,313,-21,104
215,224,247,210,208,407,510,494,52,174
270,283,442,282,200,250,-27,-267,-22,221
222,248,465,390,279,166,-636,-778,-317,126
144,186,381,511,309,157,-758,-1021,-757,-52
124,178,245,424,214,94,-670,-840,-806,-82
82,155,197,214,105,45,-449,-170,-396,-30
34,0,22,-60,31,71,-227,-34,-180,26
8,-27,-15,-124,116,100,-168,-470,-258,16
50,53,149,41,138,87,-131,-653,-341,49
14,12,121,7,19,30,2,-285,-240,30
-103,-78,53,-7,24,81,205,482,-36,-78
-216,-172,-32,-59,-20,57,212,1004,194,-152
-90,66,0,-19,-17,-27,128,1008,408,-78
103,435,31,0,11,-98,20,589,446,-2
22,199,-60,-60,-38,-91,18,221,339,-13
-35,-62,-9,10,19,31,95,-130,39,0
-1,-34,49,54,81,78,177,159,38,15
-9,-20,32,-18,-16,-35,130,484,119,0
33,33,124,51,-9,-24,184,141,0,23
-19,4,138,116,-34,14,229,330,18,-2
-135,-46,103,79,-90,19,223,905,72,-101
-158,-113,209,109,-65,44,120,892,193,-70
-87,-74,272,-13,-97,-43,-159,162,248,8
-17,-35,181,-106,-52,-76,-450,-580,145,67
-78,-116,-39,-70,-90,-207,-570,-757,176,31
-161,-205,-250,-101,-207,-327,-433,-539,322,-34
-88,-113,-281,-44,-192,-193,-65,-47,395,34
59,177,-212,-63,-195,-103,60,420,505,91
160,437,-147,38,-88,-23,-176,256,102,5
-37,21,-3,270,0,-26,-203,49,-564,-154
-126,-153,67,381,259,0,-176,57,-1031,-306
-22,-51,76,279,318,59,-286,-366,-1019,-234
65,34,151,433,384,166,-241,-979,-786,-89
107,75,270,410,402,203,36,-923,-525,8
190,248,350,-45,51,104,356,-431,-328,46
314,507,337,-297,-165,135,510,207,-158,66
226,228,169,-217,-70,308,257,311,-13,96
80,-63,-91,-142,-53,111,-110,-39,99,55
-21,-198,-270,-317,-186,-87,-312,-393,96,-6
-68,-213,-256,-316,-311,-188,-360,-494,114,-44
-203,-242,-45,-16,-104,-185,-257,-191,80,-160
-225,-192,244,178,158,-71,5,191,79,-177
-139,-52,328,109,96,-34,169,471,154,-107
-54,1,226,110,-26,-84,88,558,150,-30
89,41,23,38,-47,-45,54,327,154,96
204,125,-74,-59,-107,34,164,-52,210,214
218,150,-86,-169,-152,87,260,-644,-50,198
74,57,137,-19,-22,118,304,-794,-260,27
-38,70,622,340,247,149,264,-469,-228,-105
-37,191,799,300,286,193,293,193,-28,-110
125,562,663,281,234,121,194,575,155,-90
190,579,224,207,81,-5,-126,180,115,-39
30,37,-427,-299,-271,-43,-138,-39,67,23
-89,-278,-786,-607,-372,-21,116,283,146,15
-137,-365,-672,-159,-49,20,269,699,278,-4
-267,-471,-546,-223,-129,-184,-124,686,297,-94
-291,-419,-330,-401,-333,-234,-60,580,183,-139
-171,-192,-100,-91,-149,-36,287,425,180,-69
-89,-116,-22,335,193,-24,-104,-330,-29,-33
20,-57,95,184,123,-138,-504,-693,-141,17
79,1,183,63,3,-147,-524,-482,-54,74
142,102,320,340,44,-39,-496,-459,-35,121
123,70,194,399,121,-104,-428,-428,-85,96
-43,-104,-9,190,154,-133,-213,252,38,-13
-12,-42,46,-88,34,-88,-80,719,167,40
49,53,133,-377,-111,-66,4,463,145,49
-50,-126,-74,-473,-148,-38,173,439,187,-19
-94,-200,-232,-356,-192,-134,118,496,289,2
-117,-210,-322,-190,-91,-58,119,353,170,-6
-111,-156,-300,-142,-34,47,90,239,90,-3
-103,-122,-288,-162,-83,-30,-23,139,126,6
-86,-107,-286,-129,-75,-43,17,-18,-55,-12
43,114,-169,-57,7,-56,43,-151,-299,-29
226,430,120,72,168,-7,48,-288,-380,-20
175,297,394,109,143,64,78,-247,-266,37
67,59,492,136,20,120,174,-214,-178,70
-2,18,478,267,-137,86,133,-284,-130,30
-56,6,333,367,-201,34,-20,-383,-122,-14
-43,-7,87,440,-88,-31,-318,-612,-140,-27
-65,-73,-115,504,352,50,-421,-825,-168,-65
-54,-85,-209,177,358,96,-195,-504,-19,-44
-62,-193,-347,-370,-116,31,117,283,265,51
0,-196,-472,-807,-392,-127,166,455,393,137
27,-150,-405,-606,-170,-46,207,483,342,136
-29,-114,-191,-150,78,105,290,354,198,57
-118,-127,-104,-8,115,198,376,-429,-182,-99
-170,-151,-133,-56,57,236,418,-118,-135,-156
-56,52,-165,-226,-108,96,396,1104,315,-76
44,241,-102,-180,-160,-106,67,984,364,-25
26,-2,38,34,-113,-143,-399,-41,112,72
90,20,142,136,-18,-46,-454,-570,-204,88
178,128,209,202,67,85,-263,-714,-444,114
226,176,228,177,70,108,-156,-734,-279,194
102,9,37,52,-1,-23,-110,-410,49,167
0,-59,-97,107,56,-58,-10,12,218,99
108,150,-33,69,46,47,64,-284,191,123
57,-20,-57,-144,-134,96,156,-394,-41,43
0,-62,-37,-142,-208,35,135,-35,-236,-100
-16,-20,30,-32,-122,-9,55,150,-261,-137
49,48,117,-68,-80,28,109,169,-14,-10
91,80,127,-173,-294,-26,58,-184,150,102
-11,-4,21,-88,-189,-143,-42,-625,-31,15
-183,-103,-79,305,414,-242,-233,-393,-217,-200
-292,-257,-159,182,264,-293,-77,98,-80,-213
-251,-317,-299,-340,-191,-176,131,609,370,-85
-176,-303,-344,-430,-298,-137,133,1338,867,36
1,-131,-141,-174,-65,58,299,1171,849,160
203,97,111,90,140,228,356,16,273,210
316,266,327,253,181,91,270,-550,-215,215
290,350,371,280,210,4,188,-485,-484,63
342,669,331,252,321,239,238,-163,-499,-108
230,513,165,184,343,566,90,272,-337,-169
-23,0,33,145,203,366,-64,260,-300,-172
-88,-141,-21,97,127,127,38,-80,-200,-146
-102,-165,-71,-11,63,53,23,-215,61,-92
-27,-103,-86,-130,-3,51,-62,-519,160,19
17,-47,-8,-56,13,100,129,-453,121,50
-3,8,64,137,99,164,285,61,-75,-16
12,42,201,229,162,190,209,-201,-458,-8
16,10,152,144,121,138,-6,-397,-552,-8
-15,-35,80,144,113,79,-330,-448,-354,-20
0,0,137,211,111,19,-576,-699,-246,-13
-48,-73,54,115,0,-76,-407,-403,-134,-55
-107,-160,-59,114,-49,-168,-139,3,-5,-78
-52,-107,-95,105,-8,-141,125,157,166,-38
-9,-43,-84,-158,-164,-132,250,165,256,-9
-18,-60,17,-291,-332,-138,223,-47,103,-8
-68,-51,213,-152,-327,-116,119,-231,-89,-85
-105,-56,271,73,-253,-155,49,-241,-90,-124
-160,-78,216,285,-87,-178,-226,-713,-168,-194
-135,-75,184,181,-11,-139,-401,-1147,-269,-187
-139,-114,-116,-424,-186,-219,-339,-741,-213,-171
12,196,-210,-466,-10,-106,-38,167,14,-132
214,436,25,-15,222,148,320,1132,426,69
154,143,46,65,124,223,457,1448,584,216
127,52,-96,50,101,193,313,906,311,177
85,19,-120,104,168,188,197,128,-67,68
89,11,-6,126,225,241,178,-256,-200,46
33,-33,60,152,85,201,270,-159,-120,33
7,49,66,121,-112,-35,68,-128,-20,-4
-21,140,116,344,-61,-250,-471,-435,-57,-78
-84,-15,214,757,209,-158,-484,-559,-115,-63
-15,17,236,927,333,95,-2,-310,-69,5
-16,-59,22,245,93,205,293,30,32,44
62,-29,-137,-545,-309,148,345,212,169,127
-12,-66,-211,-560,-201,-27,259,176,196,42
-91,-125,-165,-192,258,-101,139,87,204,-48
96,214,-120,-271,204,-87,10,73,233,25
225,334,-127,-347,-32,-157,-312,368,381,157
86,-88,-207,-387,-127,-114,-296,543,337,194
43,-100,32,-260,-101,8,-54,388,64,142
10,-21,319,-18,-106,-25,3,164,-59,65
-47,7,441,322,-53,-133,-105,-133,-139,-35
-72,0,412,525,-30,-167,-123,-109,-177,-77
13,82,132,253,-56,-90,36,251,-67,-10
81,46,-434,-377,-111,-17,21,127,38,67
-130,-335,-714,-401,85,40,-12,-27,-13,-37
-189,-323,-493,-355,104,-43,-33,42,-55,-126
-115,-251,-423,-592,-174,-161,37,313,67,-76
-107,-237,-337,-486,-206,-79,176,477,138,-45
-60,-146,-138,-183,-161,-64,99,330,68,-30
-35,-61,16,122,-132,-64,22,-59,-40,-30
37,98,90,291,-131,-44,-33,-557,-146,14
69,111,241,356,-193,-128,-237,-1144,-230,80
55,63,305,201,-176,-186,-332,-1365,-202,76
-37,-55,133,112,55,-213,-422,-717,54,7
-233,-253,-59,51,-41,-202,-164,703,405,-107
-356,-380,-318,-199,-206,-141,255,1494,619,-173
-163,-208,-292,-179,-121,-47,310,1450,515,-62
177,200,-114,-321,-130,7,158,931,245,99
315,579,-97,-347,46,5,-45,94,-110,-3
95,342,-82,-70,212,24,-50,-89,-323,-190
-113,-135,-98,-11,273,58,132,424,-87,-139
-95,-223,-84,-190,123,68,181,226,66,-56
-15,-124,-86,-333,-129,84,287,138,112,37
192,106,39,106,68,159,246,-347,201,234
209,147,78,319,258,87,98,-769,182,276
171,165,26,70,235,38,80,-242,75,207
13,-22,-72,-170,-9,16,-7,323,-65,98
-211,-212,-213,-255,-112,44,84,626,-195,-66
-249,-234,-196,-195,-117,-27,62,574,-255,-111
-111,-130,-62,-87,-56,-23,-37,-182,-156,-10
-19,-51,-12,29,25,40,14,-198,180,99
58,1,70,87,46,15,0,284,473,191
54,28,97,91,-1,-114,-166,508,545,168
43,51,119,127,-3,-127,-195,99,375,99
62,69,211,334,81,-107,-115,-767,22,62
91,130,227,413,157,9,142,-1330,-538,-76
28,77,168,114,27,154,501,-563,-533,-174
90,143,260,246,283,486,187,-393,-674,-168
113,168,274,279,408,528,-167,-997,-849,-189
158,238,177,99,206,279,-161,-1337,-648,-104
237,467,-12,-131,26,-10,-346,-1622,-367,-52
49,369,-145,-299,-199,-366,-569,-1314,-92,-211
-549,-464,-571,-681,-678,-749,-510,594,458,-464
-830,-942,-852,-894,-879,-748,-2,2869,1017,-487
-472,-623,-541,-564,-473,-253,589,3504,1072,-165
51,-110,-13,-12,94,311,770,2337,589,217
431,319,468,485,525,644,592,297,-413,402
621,609,766,784,665,686,325,-1555,-1171,432
415,495,665,780,490,407,93,-1801,-1146,200
56,111,363,595,209,128,82,-1278,-663,-8
-47,-52,170,444,119,33,233,-604,-152,-12
40,-12,11,52,90,42,231,-251,295,106
104,29,-23,-267,-14,90,117,-1029,161,88
75,50,90,-282,-272,31,-20,-1312,-210,-28
100,154,199,-192,-341,-33,-123,-900,-415,-65
155,407,222,152,-44,-83,-231,-349,-361,-79
179,414,168,393,421,-15,-178,-469,-459,-45
145,148,48,173,313,-23,-86,-491,-213,57
31,16,28,119,-60,-170,-292,-474,-35,-5
-160,-159,-60,253,-152,-239,-413,-141,-13,-157
-209,-207,-57,293,-142,-208,-6,594,109,-162
-59,-46,222,184,-7,47,326,590,78,-12
149,294,382,-77,190,292,393,129,-121,52
218,354,133,-321,143,257,220,-49,-56,79
136,109,47,-215,-108,87,67,-264,-44,118
51,-5,157,137,-41,57,43,-143,-28,48
-78,-92,185,239,44,131,248,417,138,-40
-94,-59,179,249,-74,141,441,620,331,-13
-24,-22,-111,232,-103,67,404,461,328,78
-131,-163,-373,80,62,-50,-83,104,88,-49
-191,-227,-432,-182,8,-91,-21,60,12,-131
-151,-247,-353,-441,-272,-136,142,104,95,-39
-135,-230,-305,-470,-408,-242,-12,32,117,-11
-137,-231,-319,-280,-78,-193,-201,-3,122,0
-172,-246,-242,-125,89,-37,-279,-83,123,-32
-157,-200,-113,-85,-46,-80,-501,-310,132,-20
-157,-175,-9,18,-22,-84,-468,-471,65,-43
-94,24,48,31,13,-63,-265,-397,19,-82
123,402,-22,-206,-72,-126,-237,249,194,-17
199,334,-43,-307,-105,-133,-41,1085,348,137
163,108,117,-13,12,-55,53,616,243,216
64,-12,129,56,-2,-52,32,106,135,142
-25,-119,-21,-101,-131,-58,-50,193,76,90
-39,-163,-141,-196,-185,-97,-36,427,125,97
-97,-215,-206,40,62,-58,-16,497,109,12
-163,-197,-232,-80,30,-70,-39,395,179,-68
-209,-248,-308,-387,-244,-175,-183,259,290,-85
-155,-206,-279,-284,-300,-281,-221,292,335,-42
-12,-61,-95,443,-24,-445,-129,407,282,82
122,100,121,877,310,-242,15,10,-38,105
55,67,183,648,484,462,52,-315,-331,-11
56,50,192,253,404,752,-89,-807,-367,8
133,128,218,-130,66,436,-39,-1079,-321,68
103,116,201,-253,-184,113,25,-963,-344,27
5,21,111,-241,-84,158,200,-308,-371,-54
-61,-79,-99,-251,83,311,370,457,-222,-115
-72,-137,-218,-182,74,240,432,959,3,-86
-46,-117,-167,-76,40,106,315,787,151,-36
-44,-103,-135,-6,-28,-52,15,124,335,36
14,13,-43,157,6,-82,-345,-270,661,133
80,322,10,-14,-101,-135,-531,106,1016,120
94,408,-13,-264,-274,-250,-452,770,1094,121
55,128,34,-232,-196,-115,-240,309,516,210
104,26,79,85,170,166,-142,-1106,-408,216
176,91,145,206,291,243,-243,-1969,-1085,146
118,61,132,60,-49,26,-295,-827,-822,104
-28,-71,10,-89,-280,-208,-192,755,-114,93
-152,-150,-130,-220,-260,-210,-69,1096,171,19
-194,-196,-158,-242,-40,-52,-27,771,-59,-68
-157,-210,-130,-287,-30,-106,-7,639,-255,-76
-114,-210,-122,-282,-160,-205,29,932,-149,-23
-96,-202,-106,-211,-147,-89,202,1125,84,12
-68,-138,-65,-108,-31,81,474,1154,281,-11
-83,-116,-55,-40,38,157,580,778,232,-127
-78,-68,-31,11,66,181,473,298,86,-172
189,378,206,217,135,119,183,-40,-69,-137
286,463,444,523,190,108,-106,-540,-454,-98
222,263,511,684,256,158,-355,-1170,-788,-28
218,246,439,552,349,203,-277,-1240,-502,51
157,162,200,109,359,204,-120,-1026,-183,62
75,42,-19,-222,225,221,51,-811,-126,4
22,-17,-95,-250,52,162,56,-649,-72,-35
-18,72,-57,-59,84,36,-40,-253,16,-125
-81,27,26,212,166,-41,-61,-26,47,-164
-69,-111,-19,58,5,-81,-54,-615,-95,-64
46,-14,13,-22,-64,-100,-103,-1029,-173,60
59,5,58,44,-65,-173,-222,-869,-88,91
69,10,44,39,-71,-160,-90,-186,71,111
67,19,70,19,-52,-50,226,866,459,183
-124,-126,-104,-121,-111,-58,268,1016,517,36
-154,-81,-117,-151,-160,-137,26,793,362,-48
-120,-64,6,-55,-186,-72,-41,378,151,-38
-165,-97,25,-34,-227,2,12,-127,-97,-127
-186,-136,-72,48,-184,-11,107,-239,-280,-185
-122,-108,-98,169,36,-26,326,-14,-269,-128
-116,-100,-72,-33,10,-73,537,753,45,-87
-202,-199,-153,-268,-220,-139,521,1154,421,-95
-173,-90,-259,-304,-231,-280,296,1085,643,-65
23,294,-189,-207,-153,-437,-133,777,732,25
-9,169,-88,-40,-197,-414,-193,323,355,-14
-147,-113,98,418,75,-3,-257,-300,-243,-135
-97,-81,294,562,321,262,74,-205,-364,-115
14,7,206,70,245,360,527,162,-337,-13
73,16,-49,-347,58,310,416,11,-293,56
-20,-69,-101,-35,115,182,205,366,-165,-18
-126,-99,-47,393,382,109,-61,355,-220,-168
42,12,79,203,252,56,-411,-156,-280,-5
157,75,-19,-134,-5,-64,-753,-217,-159,135
117,38,-81,-222,-152,-140,-596,-51,12,121
115,44,58,-115,-66,-44,-252,-67,143,145
75,6,-86,-81,-18,-18,-154,-160,98,122
29,-46,-225,-86,57,4,-58,-784,-145,62
118,74,-167,-51,80,58,-117,-1102,-310,85
49,-11,-172,-55,-27,58,-80,-399,-202,27
-80,-169,-206,-89,-104,38,22,217,67,-27
-86,-148,-129,-144,-179,31,196,763,382,0
-49,-86,29,-182,-285,-40,214,993,577,69
9,-12,115,-31,-245,-127,-137,391,394,99
39,27,174,319,115,3,-180,-428,36,68
74,113,206,405,339,97,-55,-870,-231,44
265,531,319,325,264,12,-12,-701,-206,92
271,576,306,242,124,-103,-95,-497,-53,101
97,137,139,47,-26,-162,-210,-659,-73,86
32,-40,-19,-186,-45,-152,-322,-774,-165,66
23,-41,-37,-125,5,-157,-265,-376,-60,51
-8,-58,9,-46,-87,-138,-115,67,78,6
-51,-69,42,10,-75,55,64,521,147,-57
-62,19,158,12,-99,124,131,402,52,-147
-210,-108,160,-74,-123,161,276,421,20,-267
-305,-243,77,46,-66,176,406,846,204,-272
-237,-209,-95,360,21,96,193,757,275,-192
-177,-185,-176,174,22,4,32,400,240,-129
-114,-197,-224,-49,-43,37,86,348,287,-28
0,-97,-256,-9,-71,-12,-69,182,216,70
38,-14,-180,-52,-6,-101,-319,-302,-143,30
30,58,-176,-170,20,-96,-354,-595,-327,-84
-102,-187,-229,-345,-260,-139,-316,-267,-278,-91
-61,-194,-263,-348,-376,-206,-325,201,17,18
35,-57,-147,-87,-284,-185,-193,710,263,120
143,40,-24,-119,-218,-96,43,1299,490,219
158,34,16,-78,116,73,69,678,435,219
82,-2,31,215,351,121,-50,-74,45,109
154,258,44,97,303,145,-43,-134,-139,40
279,487,89,-190,146,135,51,-126,-260,62
169,146,133,-196,12,87,39,-331,-324,85
118,52,203,59,39,41,-34,-551,-224,76
84,51,222,163,46,-10,-96,-325,-104,61
-13,7,188,145,42,7,38,90,-12,-24
-61,-37,147,41,40,85,238,175,-57,-119
-30,-25,45,-89,35,83,152,-173,-103,-123
11,10,8,51,109,62,8,-385,-226,-97
25,-46,13,168,96,36,-84,-325,-199,-13
-15,-83,-45,187,135,61,33,137,-17,23
-26,-69,18,14,7,22,131,291,7,19
-2,-15,113,-190,-186,-51,80,62,-45,21
-66,-72,16,-322,-246,-124,59,-167,-92,-33
-77,-64,20,-250,-355,-206,-139,-467,-166,-82
101,226,24,-155,-356,-255,-357,-553,-56,-34
211,457,27,173,64,-132,-336,-379,131,-46
160,246,27,233,330,26,-191,-308,257,43
82,18,27,-3,286,102,-1,-116,284,140
20,-42,-6,-97,104,158,247,59,204,101
-84,-144,-112,-174,-67,174,552,-72,48,0
-153,-194,-122,-165,-91,-31,242,-412,-121,-83
-61,-52,-15,-39,-8,-163,-12,-360,-147,-43
-3,39,12,-19,18,-78,111,326,26,-2
-139,-146,-106,-217,-233,-300,-16,873,36,-47
-39,-66,-70,-362,-553,-588,24,945,70,61
36,15,36,-294,-587,-242,119,296,5,103
-74,-49,119,85,-141,284,-184,-198,25,-3
-171,-128,59,450,416,337,-390,-312,-120,-154
-200,-208,-140,298,488,244,-146,-34,-202,-170
-56,-80,-148,71,371,118,-26,309,-43,-11
6,-24,-87,-4,123,6,-59,510,171,108
28,-9,-3,24,37,-29,-89,564,403,171
-33,-52,-29,-11,-16,-69,4,605,434,98
-139,-127,-139,-49,-34,-69,164,688,305,-51
-113,-101,-67,-96,-58,-27,317,856,228,-41
8,-4,47,2,9,73,433,729,153,61
134,159,126,131,157,244,122,-559,-189,88
353,583,251,278,335,340,-242,-1702,-634,72
363,625,352,362,373,318,-104,-1717,-839,37
115,167,239,247,182,202,55,-1315,-727,-53
-10,-24,120,102,0,86,94,-730,-443,-88
-30,-67,39,-24,-167,-64,35,-150,-125,-36
-27,-77,-17,26,-110,-72,9,-107,40,20
-14,-80,-60,55,125,2,-44,-256,98,33
53,36,4,58,151,-45,-333,-542,46,29
-43,-57,3,22,40,-71,-366,-528,-77,-39
-198,-202,-67,-74,-63,-91,-191,-250,-104,-129
-230,-218,-72,-28,-75,-90,-127,-117,-70,-145
-165,-135,60,258,44,42,200,770,256,-68
-47,1,186,478,117,123,470,1074,396,10
-6,49,168,494,102,85,252,349,180,-17
57,139,125,233,29,43,128,283,74,-22
149,253,16,-111,-37,33,186,251,107,51
58,-16,-164,-255,-145,-45,82,-220,125,111
-3,-60,-75,-39,-115,-165,-208,-573,67,59
-31,-86,-66,-57,-51,-194,-251,-443,125,28
-83,-134,-198,-190,-72,-145,40,402,293,17
-214,-240,-249,-170,-57,-92,465,1624,316,-86
-153,-148,-171,-246,-46,6,648,1703,199,-102
45,202,-81,-324,-60,14,467,890,172,-74
74,276,-53,-410,-217,-112,155,541,259,-65
-67,-122,-119,-317,-278,-127,-35,189,183,-48
-30,-121,-26,234,-47,-115,-313,-513,-153,-29
12,-53,82,618,181,-48,-369,-875,-408,-60
95,43,125,344,233,219,-57,-909,-480,-38
224,190,239,67,123,313,53,-758,-495,84
259,252,195,-185,110,216,34,-298,-222,162
191,196,156,-185,193,164,21,-203,-114,123
120,53,136,-62,64,112,10,-133,-6,100
104,-8,53,-85,-153,-41,74,135,236,139
58,-62,-51,-111,-293,-219,120,141,346,149
-60,-168,-144,-30,-366,-296,162,76,364,83
-243,-300,-245,233,-273,-122,-123,32,324,-77
-273,-285,-192,403,-163,-127,-477,-234,135,-156
-2,149,-33,320,41,-216,-464,-402,-13,-87
217,450,-33,-106,249,-100,-221,-287,-98,31
79,75,-315,-716,93,52,132,-109,-194,61
121,-8,-152,-441,133,225,239,-484,-283,146
80,2,15,-128,58,166,90,-384,-47,109
-111,-175,-51,-179,-69,18,49,354,69,-50
-120,-206,-53,-192,-112,-46,134,1060,203,-52
-79,-130,-49,-138,-71,-50,157,1040,188,-60
-72,-101,-102,-43,0,17,192,737,91,-90
-139,-198,-211,-35,8,39,185,272,-58,-116
-78,-76,63,137,103,85,68,-378,-357,-105
65,72,309,245,129,71,-114,-878,-407,10
44,33,175,142,85,0,-164,-817,-321,25
78,65,159,128,62,-31,-136,-964,-334,43
123,99,198,97,-7,-32,39,-583,-227,75
157,181,242,133,34,36,314,189,6,82
148,161,265,96,-74,25,218,-113,31,42
81,97,199,-154,-373,-72,127,-124,26,-22
-18,-10,71,-286,-484,-111,174,343,182,-60
-158,-204,-49,66,-77,-77,122,414,226,-121
-202,-302,-158,227,418,-28,-57,169,203,-134
-132,-236,-231,-15,244,-98,-219,90,201,-79
-57,-67,-232,-113,-18,-192,-309,-73,39,-72
-32,196,-223,-66,-35,-197,-218,-22,-18,-133
-57,156,-66,60,53,-95,29,447,70,-125
-80,-83,7,239,137,-34,-2,631,376,4
14,-54,39,239,187,-45,-102,264,593,150
42,-38,33,-1,53,29,30,-375,261,129
0,-88,-50,-250,-94,118,187,-965,-287,21
60,-42,-31,-234,-84,122,100,-1511,-766,-4
105,77,30,-91,-42,25,-104,-1635,-741,-28
44,4,25,-89,-106,-90,-309,-1157,-265,-17
24,-7,66,-30,-66,-22,-182,284,306,31
-49,-65,75,52,-3,127,255,1813,705,46
-101,-81,143,269,51,130,297,1729,519,-33
-132,-59,223,425,142,50,55,822,-59,-184
-138,-84,106,250,84,-9,46,629,-183,-187
-78,-13,-64,58,28,-2,175,883,138,-77
-154,-48,-213,-266,-160,-89,141,696,251,-106
-270,-278,-264,-457,-281,-91,83,304,130,-155
-140,-142,-93,-315,-240,-85,9,-6,105,-93
51,80,65,-79,-54,-72,-182,-606,-65,9
167,188,109,187,205,99,-237,-1245,-411,67
181,151,168,359,309,199,-119,-1195,-596,66
144,81,25,102,143,197,90,-578,-370,56
188,358,18,-136,-82,55,192,-240,-102,27
132,351,17,-315,-312,-66,82,-78,109,55
71,80,97,-210,-371,17,118,-129,158,144
13,1,101,26,-320,-5,50,-198,67,82
-207,-203,-36,435,116,19,118,-92,-252,-162
-192,-209,-102,522,436,120,296,-333,-339,-133
-57,-75,-23,314,435,187,429,-435,-340,8
0,2,8,43,359,188,486,27,-77,87
8,-21,-161,-238,150,132,380,356,268,127
-47,-111,-139,-114,27,72,192,785,488,105
-58,-121,-67,45,-82,-106,-252,738,462,104
96,38,111,24,-164,-223,-699,-297,110,197
192,126,138,-234,-311,-164,-594,-985,-193,235
154,70,-21,-74,-181,-16,-178,-807,-332,181
35,15,18,568,207,-41,-52,-424,-314,37
103,348,249,637,353,-19,90,113,-177,-66
153,513,264,415,93,-21,292,1167,68,-104
75,204,174,64,-190,-104,202,1243,114,-41
-9,-40,-41,-424,-107,4,90,579,126,-20
-98,-174,-283,-654,160,158,70,-31,37,-92
-137,-216,-298,-451,133,15,92,-226,-1,-120
-126,-166,-108,-172,-16,-154,283,-148,24,-118
-37,0,68,-56,-5,-22,233,-332,-61,-94
55,120,137,-26,-22,42,-195,-423,-91,-19
59,30,50,-111,-72,8,-442,-349,-80,42
-7,-68,-83,-157,-19,25,-331,-459,-74,10
-82,-173,-184,-216,-36,27,-97,-430,61,-18
-75,-179,-217,-302,-138,-150,-91,-324,211,20
-61,-111,-131,-225,-184,-349,-343,-181,212,7
-180,-157,-86,-88,-116,-307,-348,186,310,-115
-205,-144,-117,-43,-48,-76,-18,348,383,-160
-119,-125,-132,-62,-40,98,270,621,317,-54
45,-15,-37,55,8,185,446,997,187,87
122,78,166,167,66,199,273,159,-181,90
88,88,177,118,94,147,1,-445,-251,16
-1,6,88,30,30,110,25,-247,-12,-31
-93,-68,-34,-8,-29,136,197,61,95,-86
1,119,28,86,58,205,295,305,44,-68
322,611,232,200,170,257,331,209,-1,76
330,533,280,102,45,134,8,-237,-252,129
22,32,125,38,-55,0,-269,-377,-282,18
-139,-184,-27,111,99,-42,-273,-78,-131,-73
-152,-190,-23,228,241,15,-185,-62,-92,-75
-70,-125,53,379,146,34,-165,-353,-84,-1
-28,-65,94,476,137,0,-164,-396,-117,28
45,68,177,349,83,-42,-182,-499,-214,36
95,35,105,-103,-117,-55,-190,-571,-229,121
94,-9,-4,-325,-202,-35,-60,-54,19,185
89,-11,-93,-318,-77,56,20,190,154,209
143,53,-58,-274,-9,50,-142,162,116,259
60,-28,-70,-194,6,-36,-261,296,63,179
-102,-161,-157,-167,-70,-131,-199,185,65,53
-113,-70,-168,-167,-178,-238,-117,393,360,43
-127,-27,-107,-105,-119,-144,-80,753,666,33
-173,-179,-42,-76,-149,-18,156,788,694,14
-57,-59,110,175,-43,42,81,271,324,19
58,52,160,297,133,135,-41,-162,-284,10
-12,-50,-5,37,91,101,64,360,-522,-60
-61,-94,-90,-209,12,17,42,389,-469,-103
-29,-28,-59,-282,-177,-44,38,385,-102,-64
93,282,28,-104,-158,-110,-18,211,193,-24
-3,152,-77,-45,-80,-98,4,-153,140,-80
-95,-164,-142,82,120,100,162,-410,-108,-110
56,-48,15,185,98,272,304,-267,-101,17
104,29,140,178,-68,189,144,-195,-15,79
-5,-64,54,49,-56,-94,-374,-134,-4,-2
-63,-136,-11,-25,49,-109,-307,235,88,-19
-27,-24,24,-105,-85,-17,12,648,129,-37
-16,22,89,57,-114,-11,116,669,136,-31
-85,-104,-12,186,78,-27,25,326,38,-52
-116,-143,-81,40,166,-56,2,-4,-80,-99
-137,-135,-81,-161,-2,-65,16,-113,-173,-154
-242,-241,-238,-299,-49,-44,194,-110,-266,-258
-199,-212,-257,-260,-58,-103,226,-735,-397,-228
-61,-63,-166,-231,-154,-206,196,-1089,-425,-140
241,447,40,-119,-86,-237,202,-606,-123,0
403,681,206,102,190,108,99,-154,102,147
147,220,125,130,249,339,-341,305,98,114
143,98,103,161,172,121,-314,602,356,215
216,152,39,170,60,-141,-105,458,460,303
197,110,81,161,22,-38,47,320,253,258
113,36,165,214,129,410,-66,-102,-1,137
-14,-36,94,163,40,305,-125,-261,-39,17
-138,-195,-62,-30,-203,-16,19,73,156,-3
-128,-232,-67,-36,-290,-196,40,738,287,20
-152,-252,-188,107,-186,-292,-130,1083,262,-23
-202,-276,-219,170,63,-94,-133,364,-24,-114
-91,-135,35,58,186,175,-118,-469,-209,-99
-5,-9,146,-91,1,84,-271,-696,-302,-70
4,26,84,20,62,9,-283,-581,-342,-104
88,145,128,167,254,17,-235,-570,-383,-83
147,167,257,107,226,54,-148,-612,-582,-54
73,98,288,103,75,66,-92,-167,-304,-106
-65,-56,149,67,30,84,32,293,183,-130
-59,-143,-65,-69,-17,102,239,698,451,-28
-58,-214,-317,-363,-194,-37,235,993,520,22
-129,-279,-489,-402,-220,-154,49,338,216,-62
114,123,-273,-118,-11,-46,-49,-410,-145,-28
415,636,46,39,139,39,-208,-756,-176,63
293,418,121,19,58,-33,-320,-735,-187,62
45,-13,130,19,-44,-90,-99,-25,-33,53
-39,-96,137,-2,-79,-110,96,520,131,27
-90,-131,4,-155,-198,-216,155,958,210,-17
-102,-163,-150,-213,-232,-173,380,889,161,-38
100,22,-14,37,-40,23,411,138,30,86
236,176,65,275,211,264,118,-617,-111,157
193,139,196,438,319,336,-137,-1603,-530,122
153,135,301,511,227,238,-146,-1243,-571,87
69,45,213,300,-156,14,-65,220,-107,73
13,0,219,77,-428,-104,13,606,139,47
45,23,155,32,-341,-40,123,374,179,74
-5,-46,-83,-75,-102,-46,105,89,123,32
-24,26,-269,-239,320,13,108,-80,46,-35
-115,-43,-291,-298,371,104,177,84,-71,-107
-178,-210,-255,-299,2,-121,90,135,-147,-127
-143,-194,-194,-265,-227,-380,-128,205,0,-54
-172,-233,-198,-299,-310,-454,-299,503,268,5
-188,-222,-155,-228,-183,-263,-256,657,454,13
-189,-179,-103,-153,-82,-114,-112,415,421,-23
-126,-44,-35,-98,-40,69,117,263,341,-72
179,463,182,94,125,252,275,61,142,-33
181,374,283,466,302,269,148,-534,-185,-14
0,58,220,585,345,189,46,-925,-439,-66
47,103,286,352,174,69,49,-928,-547,-23
69,99,193,113,119,67,66,-626,-426,9
-36,-60,-3,61,222,98,-92,-363,-355,-61
-123,-162,-2,72,112,-60,-209,-223,-321,-118
19,48,95,-142,-162,-137,-140,-110,-75,14
31,46,114,-146,-230,-117,-259,-91,164,79
-106,-122,76,81,4,-40,-301,-33,197,-2
-123,-148,-16,-12,140,66,-177,-58,258,0
-120,-189,-232,-154,-8,-25,-161,-266,247,3
-201,-294,-335,-61,-58,-84,7,850,206,-76
-165,-245,-171,0,21,91,315,1732,89,-63
-20,-8,52,27,50,252,289,629,-113,-8
154,391,105,-6,18,127,59,-30,-96,4
162,404,72,-8,-23,-17,-83,-182,-99,24
24,16,-51,-184,-119,-10,-76,-422,-129,97
30,-59,-131,-290,-101,6,-128,-290,-39,184
2,-59,-67,-148,-121,9,-117,-57,53,125
-98,-131,-7,-4,-220,-37,-81,29,74,29
-37,-52,96,334,-97,-70,-122,211,152,55
67,110,160,608,208,-61,-165,-3,203,87
29,56,73,209,211,-1,-93,-299,79,19
50,11,-51,-435,111,156,110,-282,16,34
-58,-90,-86,-556,-46,115,270,79,0,-66
-236,-237,-104,-441,-221,-4,412,789,53,-195
-251,-267,-191,-372,-324,-70,462,1263,183,-191
-192,-237,-230,-32,-198,-97,400,792,74,-134
-104,-140,-175,66,17,-75,282,22,-149,-93
44,33,-53,-11,273,61,-51,-626,-320,-47
222,188,229,174,331,202,-293,-808,-307,109
249,248,292,193,240,180,-189,-578,-186,162
145,147,172,66,103,-20,-365,-327,-19,120
54,67,115,64,58,-149,-507,-152,70,53
-29,-17,28,24,44,-134,-350,-12,73,0
-47,-54,-64,-89,0,-111,-176,-13,67,-17
77,201,-75,-164,-3,-37,-69,-58,88,-22
262,552,33,-35,15,11,-22,95,168,18
170,305,131,106,-31,49,-5,110,75,45
-9,-40,75,23,-170,18,-56,111,22,15
-70,-113,69,-23,-308,-97,-119,462,214,-9
-120,-118,145,224,-209,-169,-117,686,268,-52
-210,-212,60,323,-80,-173,-87,661,144,-137
-182,-214,-77,238,50,-96,35,400,81,-146
-35,-80,-138,-1,-47,-69,57,-271,51,-44
-30,-193,-309,-395,-224,-125,-28,-893,-55,-16
-214,-388,-453,-450,-130,-296,-336,-1087,-20,-151
-348,-472,-434,-269,-107,-365,-650,-440,285,-221
-223,-328,-236,-78,-104,-249,-500,827,692,-60
-31,-112,-71,-18,42,-6,-166,1029,654,126
85,49,38,-25,120,175,51,15,15,111
219,296,150,9,178,289,321,-197,-476,46
157,199,147,43,200,339,444,151,-560,32
116,112,243,199,258,358,354,145,-559,65
212,199,344,284,292,364,313,103,-460,108
166,142,227,194,197,261,243,-17,-386,65
78,62,129,98,83,114,164,-32,-340,17
40,6,62,85,16,26,49,-168,-269,43
117,127,28,43,-7,-18,-70,-264,-164,99
264,469,41,-84,-51,-97,-152,12,68,84
159,260,49,-121,-145,-100,-189,-32,113,47
54,27,98,-39,-120,-76,-187,-144,108,37
33,-30,124,221,110,-66,-161,-170,70,45
45,-63,79,207,127,-84,-152,-189,65,67
160,20,94,136,89,-41,-119,-500,-87,141
151,30,49,36,81,16,-9,-738,-268,108
35,23,-45,-18,55,29,12,-752,-210,-7
-135,-134,-164,-94,-75,21,16,-503,-66,-111
-137,-125,-97,-39,-181,16,-81,-501,-179,-109
-67,-47,-25,70,-190,-47,-197,-133,-89,-39
-32,-42,-68,-23,-129,8,-49,489,129,4
-32,-35,-124,-91,-1,73,113,379,72,-33
-61,-31,-70,-108,-1,24,295,383,144,-66
-63,19,-18,-153,-285,-154,536,826,385,-32
109,384,51,-119,-413,-296,674,1133,566,55
63,311,44,39,-46,-39,485,1057,503,16
-204,-193,-154,81,397,220,54,892,320,-80
-224,-295,-282,-153,173,98,-121,492,193,-58
-229,-320,-307,-346,-164,-102,-30,24,156,-87
-300,-374,-280,-271,-239,-188,-22,-338,114,-186
-297,-360,-235,-185,-274,-231,-12,-245,59,-230
-208,-256,-192,-33,-135,-166,99,552,173,-183
-129,-212,-129,97,81,-42,96,1142,324,-58
-12,-96,-10,-36,122,111,126,434,5,14
258,147,180,-30,176,366,379,-387,-441,163
360,264,230,123,226,366,195,-882,-705,192
258,209,215,204,221,273,24,-816,-696,100
143,125,179,179,185,233,-32,-521,-444,28
102,114,159,134,167,177,-140,-574,-300,3
150,151,123,123,130,102,-289,-782,-246,36
128,81,37,89,47,47,-199,-753,-193,59
122,88,76,84,6,83,99,-644,-154,58
79,68,130,53,-12,34,82,-544,-139,27
-29,-8,-22,-7,-9,-77,-418,-613,-207,-83
-69,-67,-136,-89,-76,-82,-271,-315,-76,-101
-130,-145,-121,-39,-64,-90,-15,89,83,-108
-95,93,-30,93,-1,-155,25,297,89,-147
-2,380,144,65,-166,-239,40,541,155,-165
-53,148,261,-31,-484,-418,109,722,231,-108
-100,-62,145,2,-513,-576,289,801,294,-26
-96,-107,26,185,-107,-319,407,559,290,8
-106,-197,-139,-75,150,130,-33,175,143,13
-81,-235,-249,-294,199,217,-509,-214,45,39
-18,-125,-56,15,256,109,-492,-331,28,70
72,33,222,408,259,122,-441,-273,67,104
152,70,286,431,156,134,-280,-497,9,170
91,19,174,169,-2,65,-210,-698,-127,84
-26,-87,-44,-96,-96,0,-179,-793,-131,-15
10,-54,-60,-23,-139,-39,-136,-910,-78,16
73,-5,-96,-86,2,97,162,-492,-1,73
155,53,-112,-298,105,188,346,675,307,176
261,266,-12,-337,50,71,-4,817,459,208
138,89,-61,-342,-58,-70,-280,213,290,129
37,-108,-130,-296,-109,-111,-84,50,255,85
-12,-140,-153,-255,-127,-24,50,110,210,15
-73,-157,-175,-243,-159,13,87,501,142,-33
-73,-137,-137,-204,-144,-22,146,908,85,-45
-66,-82,-81,-146,-124,-101,-31,355,-71,-64
8,112,-16,-99,-47,-54,-60,-81,8,-45
185,474,121,-11,87,83,42,81,270,2
113,219,126,20,20,95,130,84,232,33
-27,-60,62,42,-3,58,181,377,196,-9
-205,-234,-42,192,152,24,119,621,-1,-186
-223,-230,-65,107,147,58,81,428,-245,-214
-55,-58,51,83,107,122,97,-103,-452,-72
88,96,197,256,186,126,85,-573,-499,40
115,180,193,267,207,133,147,-16,-271,55
31,64,163,308,193,142,70,204,-60,29
-81,-70,68,251,111,26,-204,-219,-55,-47
-107,-115,11,151,-38,-175,-249,-80,13,-19
-52,-58,79,77,-97,-177,-107,262,5,26
56,59,177,0,-79,-11,-36,-211,-183,68
81,86,157,31,-4,51,-34,-463,-348,50
7,98,33,163,117,91,108,-103,-221,-42
50,312,-59,-135,-104,3,235,265,31,-55
-27,175,-154,-431,-354,-117,252,241,123,-60
-244,-245,-217,-359,-217,-118,247,42,112,-158
-350,-370,-193,-120,60,-47,123,86,63,-250
-238,-245,-84,-95,-22,-119,-61,413,244,-144
-18,-70,-77,-127,-128,-158,-160,576,542,86
76,17,-116,-46,-85,-23,-83,37,347,113
17,29,-114,-20,-124,-22,-67,-450,81,2
4,-22,-52,-23,-140,-118,-151,-718,-87,1
158,84,77,60,126,2,-225,-1036,-236,122
241,167,70,181,368,202,-226,-1254,-287,186
165,105,78,174,249,147,-173,-559,-232,145
105,50,100,119,109,122,12,418,-98,107
66,39,96,93,59,85,140,491,-91,78
3,52,40,71,55,16,157,406,-66,9
-15,45,8,27,84,37,259,549,-38,-11
-81,-75,40,22,74,10,146,267,-84,-45
-77,-72,26,-49,-10,-63,-60,-103,-116,-60
-32,-13,17,-60,-44,-29,-68,19,-74,-38
-37,-6,66,106,39,45,-48,-39,-140,-57
-86,-60,-9,84,49,85,16,-69,-91,-74
-116,-91,-141,-55,-22,44,101,158,103,-68
32,235,-89,-73,-18,-26,125,264,206,-36
148,436,16,-34,-6,-96,9,30,163,12
26,80,-30,-60,-124,-77,56,138,96,14
-63,-149,-87,-116,-234,-87,184,101,62,10
-13,-111,-44,-136,-325,-144,69,-221,-32,64
50,-45,40,-103,-300,-190,-65,-179,-36,135
79,-25,58,-2,-126,-264,-110,-386,-81,164
76,34,22,150,43,-206,-52,-786,-221,109
66,77,-81,173,227,27,-32,-617,-252,-30
-22,-40,-103,-3,122,100,-33,508,129,-89
-84,-116,-134,-54,75,131,47,1472,622,-42
-142,-176,-127,-25,45,50,-90,768,393,-69
-210,-235,-157,-66,-19,24,-9,96,35,-174
-182,-208,-166,-71,-20,66,164,202,-40,-164
-46,-67,-179,-55,-45,3,92,114,7,-68
70,182,-78,15,4,16,156,307,169,-59
-15,28,11,48,43,112,271,319,147,-64
-65,-37,107,177,140,164,247,58,-60,-67
0,64,251,427,269,180,24,-568,-411,-70
67,163,270,562,296,149,-126,-863,-478,-37
134,199,300,586,258,135,-126,-747,-255,39
177,190,404,150,1,119,-128,-390,-69,107
213,310,300,-308,-298,-36,-100,-34,-27,87
255,509,194,-381,-405,-253,62,290,31,42
21,47,24,16,-132,-372,83,221,57,-21
-166,-255,-95,286,181,-223,11,187,76,-110
-213,-324,-207,-13,-24,-76,128,335,154,-125
-189,-353,-328,-76,-25,-67,435,468,258,-55
-214,-373,-369,-191,-3,-152,-8,-30,48,-86
-208,-281,-337,-441,-134,-133,-409,-459,-244,-167
9,8,-140,-395,-194,-139,-478,-200,-180,-31
138,86,123,94,-85,-189,-669,-284,-66,127
49,6,245,607,85,-100,-484,-533,30,83
19,14,292,558,190,184,-96,-841,5,69
-17,-22,195,389,287,354,74,-339,-8,67
-5,-12,88,26,118,318,137,178,-30,85
21,9,-55,-555,-18,256,111,6,-102,88
101,141,-132,-611,50,190,43,-108,-148,70
290,525,40,-162,197,204,94,-9,-35,88
244,403,78,-88,72,120,177,-38,-9,99
19,-32,-112,-258,-214,-281,130,105,41,52
16,-68,-116,-288,-346,-434,134,763,259,63
-10,-45,13,-183,-251,21,59,787,248,31
-97,-115,-12,-55,-59,381,-199,468,128,-76
-86,-84,5,120,135,231,-192,223,78,-83
33,56,59,93,314,192,111,-2,-9,-14
65,17,4,14,218,110,145,-56,-66,46
0,-43,-24,48,98,-11,-42,-9,-37,13
-20,-19,124,117,58,-34,-87,-39,-20,1
-53,4,250,200,-77,-82,-99,-100,-56,-20
-137,-34,218,175,-271,-183,-148,42,-59,-80
-139,-39,137,161,-353,-189,-85,413,61,-88
-139,-28,30,137,-166,-106,52,781,248,-81
-88,-86,-161,-21,223,58,142,719,427,-1
-56,-153,-261,-59,357,180,93,-4,362,18
-110,-160,-299,-188,199,149,112,-341,135,-68
-184,-216,-400,-428,-57,27,211,139,97,-126
-222,-236,-230,-275,-103,-97,204,584,46,-167
-236,-237,-181,-162,-117,-97,196,559,25,-159
-159,-130,-152,-100,-86,-19,165,504,165,-43
36,245,-39,43,67,69,93,179,221,17
187,413,64,137,152,84,36,-641,-199,42
301,302,189,143,134,187,183,-1809,-754,168
334,223,229,111,54,205,199,-2132,-819,262
242,106,72,1,-64,110,32,-1135,-291,284
90,-24,-8,-62,-95,-165,-420,-383,-34,165
88,13,13,-4,-68,-375,-578,-115,-3,120
146,121,52,106,104,-80,-202,506,-18,112
104,72,63,110,184,170,138,557,-52,86
80,16,-24,95,158,190,155,52,-119,115
73,18,-72,60,82,113,77,-99,-207,144
68,15,17,21,11,-11,-81,92,-124,175
97,59,119,51,28,14,-110,93,-10,184
19,16,84,15,-2,5,-68,24,22,95
-92,-59,-3,-69,-89,-129,-94,-43,56,-32
-96,-8,3,-53,-52,-107,-60,-256,41,-94
-128,-89,15,-5,-12,-25,-98,-437,-20,-110
-94,-77,27,49,41,1,-195,-662,-63,-118
-87,-59,39,43,32,-21,-82,-488,-42,-169
-150,-125,-21,-27,-35,-28,189,469,125,-243
-207,-177,-90,-98,-94,-84,154,879,262,-251
-266,-234,-170,-181,-144,-151,95,645,196,-261
-312,-165,-241,-292,-261,-317,15,1045,460,-305
-168,179,-148,-190,-210,-412,-98,1187,747,-234
72,260,73,112,-39,-276,-81,682,778,18
176,120,190,257,45,-55,-52,279,606,191
145,55,178,209,98,118,-37,0,70,118
135,29,127,72,116,205,69,-375,-321,93
76,26,150,182,195,224,51,-496,-523,39
-12,-10,86,225,179,112,56,-428,-463,-7
9,19,-50,-102,-51,79,207,-314,-530,-5
17,-38,-68,-145,-177,51,281,-306,-498,-6
13,-54,78,172,-130,8,260,-58,-126,19
-68,-138,153,333,-82,-87,46,118,154,26
-75,-157,9,104,-111,-159,-181,7,172,25
39,-45,25,80,-34,-108,-164,-320,74,40
162,77,48,-92,-47,-39,54,-439,-66,94
201,217,-173,-472,-107,-122,133,298,185,64
146,395,-216,-381,-8,-161,54,893,477,-90
-24,164,-111,-109,72,-30,29,781,351,-139
-88,-116,-82,-24,79,117,18,226,-9,-50
-69,-144,-103,-44,24,140,41,-316,-327,-35
15,-59,38,70,53,110,27,-1021,-570,11
94,26,201,333,181,132,-74,-1160,-628,7
111,68,246,465,181,124,-198,-788,-406,12
53,53,128,266,93,12,-206,-393,-120,17
-37,-97,-40,12,-60,-61,-148,-119,18,41
1,-76,-67,-90,15,14,-88,-60,50,115
62,21,81,0,153,130,-42,-383,-167,128
144,128,248,156,132,175,28,-559,-173,194
83,36,176,228,74,111,85,-459,43,194
0,-52,115,218,-41,-27,-88,-664,44,128
-39,-67,-41,-43,-222,-134,-188,-244,102,112
-29,-65,-168,-25,-186,-71,-62,237,29,120
15,-15,-69,43,38,61,10,46,-208,87
61,84,190,-31,218,180,111,-118,-219,56
53,147,335,-54,88,160,97,-290,-153,-17
-15,150,318,28,-203,-57,-112,-457,-167,-94
-61,124,237,293,-207,-134,-226,-571,-205,-106
-65,88,-9,464,64,-113,-247,-639,-70,-108
60,270,-361,-95,220,-66,55,-154,240,-123
151,294,-427,-645,-124,-44,472,774,595,-14
-109,-142,-341,-580,-422,-72,511,1284,656,-60
-515,-539,-233,3,-60,50,558,1892,619,-342
-583,-563,-149,176,42,14,558,2170,488,-409
-388,-384,-129,-25,-203,-124,169,1538,185,-269
-244,-265,-190,-305,-300,-245,-331,656,-52,-207
-195,-183,-298,-494,-212,-297,-435,64,-34,-233
-142,-213,-390,-493,-145,-254,-105,129,406,-83
-34,-149,-328,-340,-10,-122,372,467,518,61
104,52,33,-32,148,92,409,524,110,130
271,269,403,230,352,404,14,-748,-548,207
343,343,414,261,275,308,-28,-1442,-547,268
174,160,173,98,61,53,49,-1075,-279,146
19,5,-50,7,11,-29,4,-850,-159,7
-92,-71,-138,-12,69,-28,-46,-575,-139,-106
-41,-59,-41,90,183,49,0,-3,-242,-48
164,117,152,135,227,173,-26,171,-278,130
191,123,130,-15,17,66,-316,-203,-103,210
47,-4,22,-172,-224,-145,-575,-506,23,144
-6,-82,-38,-131,-229,-252,-708,-1260,-120,105
-94,-134,-26,271,27,-318,-739,-1301,-151,14
-94,24,-22,331,28,-325,-400,-66,220,-39
-41,277,-13,283,44,-123,200,866,423,-104
-101,26,-138,250,166,161,748,1941,530,-71
-90,-189,-95,-94,123,284,716,1937,410,24
19,-72,-10,-509,-155,241,520,1162,266,104
242,131,84,-422,-188,294,311,137,84,273
355,240,232,45,42,319,-11,-374,-275,321
254,190,164,336,269,278,-297,-686,-486,193
123,100,31,189,323,212,-250,-1003,-453,69
47,-54,7,21,160,145,-51,-1135,-322,54
-24,-151,-69,-104,-91,12,-43,-451,-103,1
-12,-107,-19,-47,-108,-6,-25,207,39,33
67,26,135,27,-57,4,-21,281,279,117
-40,-62,53,-151,-142,-158,34,689,510,26
-112,-115,46,-22,-188,-393,213,717,357,-85
81,230,304,292,-123,-562,390,-28,-7,-58
254,611,305,428,220,-263,113,-868,-359,-108
296,585,229,321,478,486,-344,-1722,-930,-99
144,169,69,5,277,593,-223,-1498,-883,-52
-64,-131,-149,-202,0,304,89,189,-169,-81
-222,-309,-298,-272,-120,99,241,2156,552,-101
-359,-436,-377,-360,-280,-135,147,2391,771,-159
-375,-409,-385,-388,-330,-239,13,1850,705,-175
-235,-281,-290,-320,-264,-154,34,976,634,-73
-44,-169,-113,-187,-234,-9,-47,-77,339,79
238,124,195,-1,-161,86,-274,-1064,-38,230
419,328,334,175,-84,115,-321,-1122,-386,285
351,266,276,320,70,54,-348,-958,-523,187
218,116,162,342,311,62,-297,-965,-506,95
126,73,131,344,439,100,-182,-1039,-497,9
34,59,139,441,361,56,-2,-605,-411,-107
-115,-77,-47,421,148,-13,91,-215,-277,-178
-95,-67,37,341,37,-96,84,-195,-195,-143
-49,-46,43,36,67,-25,99,-103,-57,-61
-87,-87,-3,-169,176,193,216,241,154,-34
-101,-92,20,-283,-62,156,206,362,234,-33
-127,-160,-142,-359,-262,-8,147,337,223,-47
-47,-35,-138,-97,-121,-35,129,121,186,-10
180,431,-18,214,168,23,82,-98,139,0
182,424,-79,24,125,82,67,-355,-6,-16
-106,-110,-188,-415,-280,-110,-80,-296,96,-69
-316,-417,-350,-793,-634,-418,-272,263,519,-193
-378,-492,-350,-540,-580,-506,-214,971,779,-234
-258,-378,-200,121,-199,-257,245,1269,673,-114
-8,-98,88,365,177,109,529,318,-13,26
305,256,301,387,354,316,388,-833,-738,144
409,293,256,449,354,361,207,-750,-736,200
279,137,123,201,237,403,291,-274,-374,162
89,-12,-1,-197,-16,187,52,-161,-164,72
-84,-114,-55,-327,-180,-163,-343,-135,-78,-51
-109,-92,41,-160,-145,-206,-215,-70,-17,-43
-54,-16,136,-39,-103,-161,-169,-346,-35,21
-27,44,141,-40,-92,-45,-125,-495,-13,55
-42,32,55,-100,-148,-45,-263,-575,31,0
-84,-62,-61,-148,-224,-5,-193,-72,141,-30
-86,-116,-156,-157,-288,14,16,833,314,5
-132,-177,-172,126,-122,-27,44,1013,161,-27
-132,-160,1,540,315,-6,70,568,-94,-75
-83,-126,10,237,267,-77,54,356,18,-43
-76,-114,-53,-53,-22,-171,62,478,217,-15
52,179,-7,-82,-111,-165,10,435,280,-52
173,445,6,-166,-132,-193,-127,135,313,-76
14,153,3,-261,-71,-104,-106,197,256,-97
-39,-28,72,-231,62,117,100,642,129,-36
49,53,211,-55,7,111,78,212,-17,34
147,158,238,36,-139,-9,-86,-485,-121,130
86,73,64,28,-231,-48,-157,-800,-262,125
-108,-136,-125,1,-199,-132,-203,-548,-318,-35
-297,-296,-259,-64,-51,-260,-200,359,57,-140
-232,-281,-226,-189,-102,-281,-96,730,441,20
-121,-202,-231,-363,-243,-214,-80,11,357,89
-38,-113,-151,-162,-28,47,-8,-759,36,67
210,154,169,359,402,336,70,-1095,-209,178
258,222,248,503,504,395,241,-573,-411,126
127,116,96,278,384,369,562,372,-266,-3
122,319,30,111,308,214,520,554,-107,-131
105,379,53,59,178,33,159,50,-265,-227
-40,-20,34,67,16,-5,74,126,-293,-206
-34,-84,31,36,-140,-147,13,470,-18,-72
-47,-132,-98,-141,-257,-294,-292,355,214,-15
-88,-195,-211,-218,-282,-347,-284,196,324,15
-131,-248,-238,-215,-267,-300,-319,-134,248,13
-153,-164,-185,-146,-110,-106,-553,-804,-99,-95
-79,16,-65,10,30,16,-276,-866,-326,-120
-180,-190,-65,83,90,207,211,171,-40,-175
-224,-234,-72,58,47,163,387,794,529,-152
-132,-113,16,-41,-85,-7,214,558,659,-37
-144,-100,2,-222,-251,-71,122,439,418,-45
-147,-115,-27,-96,-145,59,294,511,-100,-93
76,90,168,204,59,181,314,143,-617,15
282,294,213,202,82,47,16,-110,-698,147
225,188,162,190,66,-15,-250,-336,-585,138
188,133,125,361,205,53,-257,-676,-525,133
194,128,136,294,457,108,-177,-741,-432,147
116,86,204,257,441,70,-130,-525,-214,128
79,104,265,278,261,21,-96,-496,-180,76
113,146,270,236,155,-36,-159,-495,-96,79
168,253,72,9,86,-91,-127,-397,29,112
300,591,-62,-163,38,1,103,-68,139,103
134,370,-132,-235,-19,179,37,180,178,4
-175,-213,-319,-343,-158,106,-90,262,202,-64
-297,-398,-389,-405,-262,-27,60,518,329,-102
-344,-438,-372,-389,-309,-104,35,337,347,-167
-359,-423,-265,-325,-291,-175,-110,-78,213,-230
-327,-331,-142,-212,-221,-199,-120,-70,229,-235
-122,-51,43,-28,-124,-80,-6,-147,221,-119
109,129,228,236,74,178,94,-303,-120,41
66,49,82,202,64,223,65,283,-153,2
58,-7,-31,34,36,172,149,739,78,28
117,35,7,35,228,144,225,399,8,87
26,-40,-16,35,165,56,63,216,25,29
-126,-166,-78,-28,-85,-135,-131,490,188,-57
-142,-121,-31,28,-170,-279,-203,549,290,-35
-78,-72,-37,159,-37,-301,-158,413,405,61
-15,-105,-96,-25,-35,-209,-86,53,376,112
77,9,-26,-182,13,61,-81,-478,-3,112
117,100,94,-62,162,241,-181,-762,-410,59
57,91,171,233,253,207,-195,-448,-355,0
-49,23,143,316,237,158,-62,92,-142,-68
-117,-9,80,223,138,86,37,159,-18,-101
27,294,22,-18,33,-54,22,84,172,-73
62,386,-80,-265,-114,-160,38,-43,241,-90
-13,73,-126,-430,-278,-158,-52,-524,125,12
30,-18,-69,-334,-301,-120,-224,-859,-97,121
-81,-93,-39,111,-73,-58,-80,-736,-442,-19
-88,-84,-34,249,54,64,149,-182,-551,-55
26,22,81,215,122,110,134,412,-307,58
195,245,148,414,426,150,129,247,-117,159
276,368,184,353,402,141,38,-92,-27,202
106,77,106,85,78,41,-24,-89,-36,122
74,-5,41,-78,-116,-182,106,478,91,101
3,-75,-34,-82,-158,-454,273,978,239,62
-15,-62,-65,-183,-184,-473,178,916,318,53
-81,-105,-121,-309,-218,-61,-94,693,268,-10
-111,-92,-93,-354,-192,213,-248,375,112,-71
58,196,82,-194,-170,126,-171,27,72,22
61,101,119,219,-151,50,-100,-285,78,93
12,-19,51,478,-15,67,-5,-236,170,118
11,-72,-28,87,24,85,-50,-123,243,144
-65,-160,-156,-169,-29,12,-131,-21,196,52
-112,-194,-155,-143,-4,13,40,101,132,-10
-36,-106,-26,50,120,77,81,-35,-23,-3
96,137,41,129,267,110,-45,-165,-134,-21
259,457,68,44,214,20,-171,114,88,-13
119,185,13,-56,22,7,-159,225,135,-14
86,55,-23,-137,-70,21,-7,11,-50,13
91,4,-28,-178,-80,37,3,-442,-387,4
-123,-195,-176,-261,-177,-5,-2,-617,-417,-158
-439,-467,-350,-344,-340,-180,98,326,57,-354
-518,-507,-270,-125,-331,-304,188,1346,520,-360
-299,-236,-4,35,-215,-273,254,1404,805,-185
-1,-57,6,-199,-88,-39,313,725,747,102
103,-1,2,-124,100,155,232,-341,101,108
148,75,165,119,249,286,149,-841,-565,33
225,177,322,272,322,331,-38,-1067,-1005,23
239,227,374,319,256,298,-238,-1228,-1026,22
199,183,271,165,10,128,-176,-739,-595,50
233,303,218,126,-97,-7,-27,-228,-239,95
333,551,283,304,49,-150,-232,-369,-121,102
199,186,161,320,309,-145,-474,-692,-111,123
162,40,100,268,364,-37,-412,-829,-18,192
145,-1,89,114,59,-80,-237,-744,33,178
84,-52,-4,83,-44,-120,-235,-467,31,109
-41,-113,-11,73,10,-41,-20,325,63,6
-93,-107,42,-238,-119,-23,262,1205,171,-34
45,159,-16,-350,-147,35,339,1122,185,37
56,14,-250,-257,-94,133,270,485,81,73
11,-127,-301,-107,-12,143,172,9,-28,13
-50,-176,-247,-42,14,118,142,34,11,-53
-113,-172,-136,-65,-81,10,216,273,62,-107
-105,-129,-64,-92,-182,-72,389,411,87,-87
-112,-115,-15,-85,-164,-31,450,299,89,-85
-152,-97,22,-63,-27,106,240,-76,17,-161
-221,-208,-80,-111,-80,-93,-317,-309,-61,-217
-307,-381,-224,-244,-379,-328,-386,63,131,-250
-371,-424,-230,-276,-528,-311,-240,733,455,-296
-343,-373,-192,-196,-501,-217,-57,1387,706,-249
-260,-333,-279,-154,-261,-151,129,1715,780,-151
-1,-89,-80,-92,135,-4,284,1006,451,47
302,263,222,105,409,272,338,-561,-273,183
454,667,385,303,531,316,174,-1099,-525,110
312,499,339,551,648,264,-30,-1153,-616,-3
93,96,191,345,386,166,-146,-1225,-710,-63
22,-16,11,-28,92,71,-93,-992,-570,-48
-56,-107,-71,-141,-88,-80,-27,-729,-395,-58
-104,-121,-37,-101,-147,-95,98,-389,-127,-31
-51,-49,41,-4,-53,76,54,6,255,58
-69,48,-21,-27,-9,82,-110,367,438,3
-155,-21,-153,-95,14,-51,13,958,577,-36
-97,-125,-96,-24,122,-28,-105,757,596,87
64,31,43,97,162,27,-217,-302,176,145
112,79,54,133,142,56,-130,-626,-229,101
176,126,126,148,111,40,-149,-522,-244,140
204,176,228,176,123,40,-189,-753,-276,173
177,199,197,137,112,71,-165,-705,-168,144
182,316,159,122,116,26,-214,-845,-55,103
57,92,61,37,-10,-93,-95,-717,24,70
-28,-69,-56,-48,-115,-154,335,799,201,51
21,-24,-17,-53,-72,-35,642,1559,154,71
-14,-13,-81,-78,41,178,230,650,-224,6
-96,-75,-83,-26,37,140,-120,-19,-440,-48
-107,-118,4,69,-60,-61,-116,-23,-266,-21
-87,-23,-120,-33,-196,-291,-201,300,-19,-84
-53,152,-207,-149,-278,-422,-291,532,199,-152
-235,-203,-229,-281,-305,-262,-187,720,275,-126
-213,-276,-252,-341,-267,-90,28,564,231,-61
-166,-192,-184,-119,-43,107,254,178,1,-100
-83,-91,16,101,261,268,314,128,-113,-127
46,30,143,164,369,315,220,-350,-179,-38
133,134,190,150,233,214,-12,-855,-345,36
142,193,169,148,160,114,-129,-605,-277,32
54,57,121,96,83,79,-83,-96,-77,28
13,-3,65,102,22,40,-19,60,46,17
-1,-34,81,188,29,14,3,63,67,12
-18,-42,94,251,42,-28,-44,61,-12,-8
-72,-79,19,220,23,-79,-94,-11,-129,-66
-87,-106,-85,-38,-10,-82,-132,-140,-108,-60
51,108,-54,-307,-131,-82,-159,-174,143,31
180,344,-7,-413,-328,-115,-113,-25,372,146
43,-7,-87,-287,-404,-165,-56,177,367,140
-21,-120,-202,-212,-305,-121,37,320,287,77
-142,-209,-165,120,-4,-24,136,402,49,-92
-210,-242,-52,294,170,-62,59,293,-104,-202
-141,-181,-19,148,71,-134,-73,108,-114,-151
-34,-52,-2,173,-14,-122,-80,-136,-62,-62
208,282,165,302,176,-31,-115,-760,-52,58
168,191,219,268,184,9,-233,-1240,-227,83
87,102,122,151,209,125,-87,-638,-181,60
42,42,51,-60,106,159,90,-25,-113,3
18,12,15,-199,-25,113,136,115,-1,25
8,-7,-3,-355,-167,-18,47,-2,30,66
-29,-88,-123,-316,-174,-129,-38,239,121,20
26,-10,-146,-182,-89,-144,-15,652,258,4
-6,-63,-126,-141,-90,-106,54,513,282,-2
-75,-173,-86,-192,-200,-77,176,513,267,29
-61,-138,-16,-243,-286,-25,328,467,13,61
-29,-106,39,-162,-337,15,240,-61,-142,95
-40,-73,98,280,-110,49,-62,-519,-251,69
39,35,201,420,140,60,-67,-110,-244,98
109,117,134,354,356,215,151,546,-171,133
183,350,-44,0,349,233,304,808,15,102
167,213,-162,-263,111,-7,232,750,200,145
104,22,-40,-184,-115,-377,81,249,154,107
0,-48,0,-82,-110,-380,103,-73,30,-42
-52,-98,-25,-96,-63,84,-23,-195,-73,-140
-53,-118,-90,-147,-41,246,-318,-330,-135,-142
-22,-113,-120,-120,-32,46,-373,-370,-87,-81
66,103,-75,-86,-13,-24,-349,-359,91,-10
90,159,-1,-4,15,13,-223,-528,123,0
-86,-92,0,-30,-33,35,32,-240,82,-109
-149,-142,-20,-97,-146,-38,113,69,111,-163
-157,-175,-47,-165,-257,-133,53,78,134,-158
-105,-135,-24,-111,-238,-175,-14,0,87,-109
-19,-44,69,160,3,-121,-105,-327,-87,-96
62,77,127,274,237,-47,-204,-562,-272,-140
