-41,-35,-6,-8,-50,9,58,48,34,41
-17,-13,0,-3,-29,6,36,24,-12,15
8,7,18,1,-9,2,-10,-11,-142,-17
7,17,33,13,18,1,-41,-36,-114,-19
-3,10,43,10,24,1,-45,-44,-64,-16
-7,-1,19,-1,8,0,-39,-37,-26,-22
-4,5,0,-16,2,-11,-5,-32,0,-3
6,6,-9,-22,9,-13,0,-22,48,21
-1,-3,-4,-18,-4,-3,0,-18,25,11
-9,-17,1,-11,-5,-9,-1,-18,8,-3
-11,-17,-22,-20,-1,-8,2,-12,18,-6
-6,-18,-32,-28,11,-11,8,7,29,9
4,3,-21,-11,22,-13,-7,20,60,9
-6,7,-10,-7,20,5,-4,6,46,-5
-12,-2,-1,-8,6,9,-12,-1,19,-4
10,21,5,2,13,20,1,-3,53,-1
28,41,1,34,43,31,-16,-18,39,-18
7,12,3,27,25,12,-35,-15,-22,-24
-5,1,12,24,17,-8,-22,-13,-14,-28
-19,-4,13,15,-16,-13,-21,-23,-31,-16
-10,-6,5,1,-22,-14,-21,-9,-32,7
11,4,-2,8,8,-10,0,11,42,15
-1,5,-5,7,-8,8,78,21,131,26
10,32,-8,18,16,2,91,18,188,28
0,1,-13,-3,-7,-17,-16,5,-37,-13
-35,-31,-26,-37,-69,-25,-68,-1,-197,-27
-26,-31,-26,-21,-58,-12,-39,9,-139,-24
-6,-17,-18,-17,-17,-8,-8,23,-56,-26
9,13,-4,-15,19,-4,-2,36,1,-21
27,13,-1,0,6,-2,32,43,59,-9
27,0,8,-1,-11,2,28,8,31,0
-2,-21,16,-7,-34,2,-16,-27,-74,-16
0,-5,13,8,18,8,1,-23,-50,-23
13,2,13,11,41,3,-5,-2,6,4
4,-10,17,-7,-8,-12,-16,-9,-26,29
-7,-27,17,-16,-30,-24,-36,-25,-91,46
35,15,10,11,39,4,2,-19,19,34
43,17,-10,3,48,3,53,-4,87,14
17,-22,-17,-14,-4,-18,-18,-32,-97,-20
-36,-45,3,-3,-53,-18,-70,-49,-213,-38
-12,0,22,20,-11,-20,-49,-39,-123,-36
2,16,18,11,-4,-27,-41,-20,-64,-27
-40,-10,13,-14,-51,-16,-26,14,-62,0
-41,-16,5,-21,-55,-18,-27,33,-53,17
-25,-11,-2,-5,-18,-16,-9,33,-1,5
-23,-13,-14,19,13,7,32,56,105,33
-18,-9,-27,19,17,19,31,70,53,5
1,19,-14,13,29,9,20,68,48,-2
38,42,-12,6,34,-9,21,25,49,0
25,2,-5,-25,-19,-16,2,-10,-40,13
-3,-10,1,-39,-41,-15,-21,-30,-92,3
-6,7,8,-18,-12,-5,-9,-41,-82,-23
-17,4,17,-2,3,0,-9,-42,-38,-34
-25,-7,0,3,0,-4,-6,-25,-45,-32
-11,-4,-17,-6,-15,-2,-7,-3,-3,-7
0,-12,-22,-15,-22,5,16,8,28,10
10,-14,-15,-12,-15,10,0,6,40,16
12,5,-15,9,17,6,8,6,60,9
17,22,-5,12,46,5,6,23,93,0
-3,7,12,-8,7,4,14,11,73,0
17,7,32,-12,-5,0,52,7,134,49
34,4,25,-8,-4,-9,7,-13,11,32
10,-6,15,-3,-2,-4,-54,-43,-168,-19
2,-19,9,-5,0,11,-40,-20,-120,-17
-1,-11,3,-4,4,8,-3,-6,-41,-1
-3,0,-7,13,0,6,0,4,13,17
-9,-3,-22,19,-6,-6,12,14,58,17
-25,-12,-29,10,-17,1,20,30,67,3
-26,-11,-21,0,-13,15,21,42,16,-8
-4,-13,1,3,-11,22,26,32,0,1
14,1,11,13,13,19,4,2,-8,0
-2,13,6,9,27,14,0,-22,-12,-11
-29,0,3,25,24,9,-2,-28,-28,-28
-46,3,4,42,42,22,10,-28,-23,-60
-33,-4,17,25,34,26,26,-13,41,-27
2,-13,9,-8,0,-1,17,-6,74,28
16,-14,4,-18,-5,-14,-8,-9,22,28
8,2,16,-3,-8,-1,-17,-15,0,19
4,9,14,5,-1,4,12,-2,11,18
1,6,1,10,-14,-3,26,23,28,22
6,0,1,2,-20,-21,6,25,12,14
24,11,5,-1,-13,-20,16,20,36,9
38,35,6,-11,7,-8,69,19,182,33
27,22,9,0,-8,0,69,9,160,33
6,-10,5,0,-11,2,-13,-6,-81,-24
0,-10,-2,2,-4,0,-30,-30,-126,-32
9,5,1,0,-9,-6,-29,-28,-49,-8
20,13,9,-9,-20,-11,-25,-6,16,29
13,16,-1,-13,-14,-4,-13,0,18,18
-6,28,-14,-8,-9,2,12,-13,28,0
-23,16,-9,5,4,-1,2,5,11,-11
-31,-8,-8,14,5,-2,-6,25,-13,-22
-5,8,-9,28,41,10,6,34,46,-28
33,35,-7,31,83,19,17,39,140,-23
35,24,-4,23,50,24,35,21,142,-4
7,-3,10,6,-19,16,18,-16,9,11
-20,-19,12,-7,-54,9,-26,-40,-87,12
0,12,1,14,-10,7,-11,-30,-41,9
1,-1,9,7,-23,-1,-11,-22,-45,26
16,-4,4,-8,-13,1,-12,-18,-24,29
19,-1,-5,-6,-6,2,-33,-8,0,18
20,4,-10,7,14,2,-19,1,26,6
-27,-48,-6,-29,-49,-8,-30,3,-87,0
-25,-36,8,-22,-30,-11,-26,2,-74,1
-23,-19,0,-12,-16,-6,-4,-3,0,19
-6,-8,-9,-15,5,-28,31,-5,76,39
-1,-9,-8,-23,4,-20,-10,-12,-54,-9
-16,-17,-9,-27,-17,-10,-25,-7,-111,-21
-8,-18,1,-11,0,-7,2,-4,-103,-34
-28,-29,8,6,10,11,2,-2,-87,-42
-32,-28,12,15,10,-2,15,2,-48,-33
-16,-15,0,2,0,-12,6,6,-27,-1
6,2,-16,-1,-5,-9,19,4,40,22
16,1,-23,-7,-14,-7,-6,-12,-63,1
7,9,-36,-3,-5,-5,-13,-5,-81,-5
22,19,-14,-5,13,-15,8,26,105,32
19,8,-17,-1,13,-8,45,21,180,44
-6,-28,-18,-13,-33,-8,-22,-5,-22,-9
-19,-25,-16,-24,-23,9,-57,-18,-145,-34
-4,-15,-12,-17,-6,6,-37,4,-65,-17
5,-10,-5,-5,11,0,-21,16,-1,-14
14,6,-5,-5,21,5,1,24,26,-3
16,13,-15,-3,29,12,30,21,43,-8
-1,-3,-3,-16,-13,-7,10,17,8,-2
-4,0,3,-6,0,2,-4,-7,-43,-14
-10,4,1,9,6,0,-29,-32,-52,-31
11,18,20,27,18,-14,-60,-57,-33,-19
32,27,33,22,4,-25,-52,-33,7,8
31,29,35,21,11,-17,-36,-35,26,8
11,23,29,23,19,-5,-32,-47,-7,-17
-7,4,24,18,14,4,-10,-27,-8,-21
-4,-1,12,-4,21,6,4,-10,-15,-13
2,-6,9,-26,8,11,3,0,-19,3
-18,-16,-2,-22,5,8,27,12,17,-9
-24,-12,7,-12,14,11,17,12,26,-27
-7,-11,11,-6,-2,17,0,0,0,-22
8,-2,-9,-9,2,6,6,-3,15,15
13,-8,0,-12,-5,14,25,8,67,32
4,-4,-17,-14,0,9,85,30,196,42
-11,-11,-25,-10,1,17,67,27,143,13
-22,-24,0,-10,-16,22,-32,15,-115,-43
-14,-19,2,-31,-35,9,-52,14,-156,-27
-2,0,-3,-18,-26,-14,-36,4,-80,21
-8,22,-4,13,-8,-20,-32,-11,-38,10
-11,25,-13,21,5,-16,-9,-32,-26,-16
0,16,-12,12,-7,-16,21,-4,43,2
3,0,-16,-6,-26,-5,15,36,61,26
8,-16,-17,-4,-28,-5,32,36,21,27
17,-5,-4,0,-9,6,15,9,-1,38
29,17,3,8,12,1,-6,-25,-15,30
38,26,4,22,22,-5,-13,-32,-2,13
14,1,3,14,4,14,1,-9,0,-3
-4,0,9,14,11,28,31,10,54,-12
0,19,16,20,24,12,36,12,107,-8
-6,15,14,11,13,9,21,7,11,-38
-14,14,5,-10,11,12,34,1,-21,-67
-20,9,5,6,11,18,19,-13,-27,-70
-10,14,13,10,17,24,28,-22,-25,-29
16,9,1,-1,16,3,17,-17,3,5
52,31,-13,8,49,-14,26,1,114,17
59,42,-19,16,63,-14,42,35,187,36
29,28,-3,18,30,-17,38,53,141,36
-4,0,9,7,-12,-13,7,45,30,20
10,14,20,15,39,19,-3,41,37,9
7,20,18,15,53,25,21,29,47,8
-22,12,19,4,-11,13,6,11,-39,10
-58,-36,16,-5,-77,2,-30,-25,-163,8
-42,-34,10,-6,-55,4,-12,-33,-77,13
-10,-10,16,-1,-8,-3,35,-34,120,45
2,6,15,-7,8,-1,-2,-41,13,22
31,36,-2,3,28,-9,-40,-49,-23,-19
3,1,-5,-6,-13,0,-33,-40,-46,-25
-36,-49,-11,-28,-63,9,-32,-17,-105,-11
-33,-46,-24,-23,-52,12,0,5,-55,-8
-19,-31,-24,-1,-16,15,3,20,-15,-19
7,6,-14,15,14,8,29,24,108,-2
21,12,-13,-11,19,-4,67,21,178,29
4,-12,-3,-27,-8,0,14,9,-41,-12
-2,3,-2,-11,-6,10,-31,-13,-135,-49
-12,-5,-14,-6,-9,0,4,-10,-79,-29
-8,-7,-7,-11,-8,-4,6,-7,-35,-6
-11,5,0,-11,-9,-3,5,5,-23,3
-16,-7,4,-1,-13,-3,19,10,-12,13
-21,-8,0,7,-7,0,12,9,9,2
-1,17,-5,17,3,1,-17,7,-33,-14
17,10,1,3,3,-9,-12,17,-54,-3
5,-7,7,-15,5,-8,-17,27,-46,0
1,-5,3,-20,0,7,4,17,-30,2
10,-3,-12,-11,9,3,-3,3,-36,-8
2,0,-13,-7,16,5,0,-4,-30,-5
-3,0,6,-4,10,-4,16,1,23,21
-14,-2,24,11,7,-8,-11,2,20,22
-11,-7,15,21,-2,-10,-2,2,-10,28
3,-11,-1,20,11,-17,9,2,-10,30
25,11,-18,25,50,-3,4,-2,51,21
26,22,-24,20,38,0,14,-17,64,17
25,29,-16,22,35,-15,11,-13,67,18
18,31,-19,8,44,-9,6,-7,84,21
-1,19,-19,-9,0,-1,49,-1,146,37
-18,-10,-11,-25,-52,3,7,1,13,14
0,-7,0,-18,-16,16,-71,-1,-124,-28
0,-15,8,-17,-16,4,-66,-3,-126,-29
-15,-38,-3,-13,-43,-10,-52,-4,-91,-11
-9,-22,-7,4,-19,-14,-45,-13,-53,3
-18,-36,-20,8,-37,-19,-41,-20,-62,-4
-27,-27,-18,-10,-39,-23,-44,-11,-39,-9
-40,-29,-19,-25,-53,-17,-48,5,-58,-2
-20,-18,-10,-19,-23,-15,-23,10,-11,-8
-2,-7,10,-12,-3,-15,-2,12,42,-21
10,0,12,-5,-6,-4,12,22,44,-5
28,14,16,5,13,7,24,20,27,2
35,8,10,15,7,4,11,8,-14,2
34,11,6,19,8,8,30,-4,-4,13
18,8,3,22,17,14,33,-11,35,10
7,-5,3,0,12,2,-8,-4,-53,-18
4,2,0,-2,21,6,16,4,-11,-2
-1,20,2,14,34,3,20,-7,38,4
-17,8,0,8,6,10,10,-1,16,10
-29,-3,-2,0,5,24,22,19,31,13
-26,-16,-9,-10,-21,30,-1,39,18,22
2,10,-11,3,0,26,38,39,141,39
5,4,11,10,0,24,36,25,106,28
-9,-3,20,5,4,21,-45,-10,-105,-32
-18,12,23,-3,10,15,-28,-16,-97,-46
-7,19,12,-1,12,3,-7,-14,-36,-24
12,19,0,-9,3,-10,16,-6,9,8
14,17,1,-5,4,-7,14,-3,43,13
0,22,4,29,19,2,23,20,103,11
16,45,6,39,64,22,42,46,196,10
15,34,5,39,63,30,23,22,110,0
10,3,4,28,36,17,-9,-4,8,-9
0,-4,3,13,-21,2,-7,-9,-46,-23
1,22,-7,4,6,3,11,-1,17,-22
-7,16,11,-17,0,6,14,-4,19,-10
-40,-29,19,-35,-71,-6,14,-9,-59,-6
-50,-47,1,-34,-93,-10,51,-2,14,19
-11,-29,-10,-28,-49,4,61,9,107,50
20,-22,-11,-30,-20,-4,-17,10,-37,16
33,4,-3,-3,32,-5,-51,-21,-66,-31
10,-8,7,-2,12,6,-60,-31,-45,-27
0,-24,5,-6,-32,-5,-63,-30,-62,-10
-16,-42,9,-1,-43,-23,-47,-22,-91,-5
-37,-41,4,4,-15,-23,-20,-30,-56,-19
-36,-4,4,24,8,-21,0,-26,-18,-23
15,42,16,7,-16,-37,-43,-10,-44,-14
39,45,23,-15,-30,-44,-43,7,-20,5
23,20,15,-19,-24,-34,-24,28,-17,11
-12,-4,12,-19,-6,-6,-1,33,-23,12
-18,-44,21,-9,12,19,0,28,-23,21
-11,-70,23,19,42,39,30,52,18,52
12,0,24,30,56,33,39,40,44,65
29,50,5,11,33,15,-4,-1,-23,31
8,16,-17,-5,17,3,-29,-37,-61,-9
6,-29,-43,-9,20,13,-14,-40,-51,-18
10,-66,-53,-4,19,20,19,-25,-4,2
-2,-33,-28,2,12,-4,0,-31,9,0
3,12,4,-1,-11,-34,-5,-36,-4,-19
17,47,1,-10,2,-25,6,-25,49,-8
13,50,-8,-3,17,-24,64,-4,179,19
16,36,-4,0,13,-22,28,-7,66,0
38,38,-3,7,49,-6,-43,-16,-44,-33
31,21,-8,12,37,-9,-28,-5,-44,-21
4,2,-6,-9,-12,-22,-32,10,-56,-19
3,25,0,-5,6,-12,-10,12,11,-12
4,8,-1,-6,-9,-2,-6,17,33,-14
-4,-5,5,-13,-34,-6,-5,27,-23,-27
-1,51,18,-12,-45,4,-14,18,-53,-27
-39,24,5,-36,-81,-3,-20,-1,-136,-23
-20,-16,-11,-12,-30,-2,-17,-10,-66,-36
-23,-86,-21,-4,-16,-7,1,-22,-37,-46
-47,-178,-20,-18,-27,5,-7,-27,-87,-24
-18,-168,-11,-7,-4,24,5,-28,-52,9
18,-68,-3,-1,4,20,11,-26,25,37
23,10,-6,-5,-8,-1,8,-30,55,50
0,11,3,-5,-16,-12,-6,-44,-59,9
0,24,13,5,-7,-28,0,-28,-27,1
-10,33,18,-2,-9,-36,30,-1,0,7
11,78,23,5,-13,-19,26,21,55,19
29,67,18,22,18,8,33,49,127,18
5,12,14,18,12,16,43,58,86,4
-3,-22,16,22,8,32,63,52,110,10
-13,-18,11,28,16,33,36,33,43,2
-8,1,16,34,37,27,-18,-17,-149,-29
-13,17,24,50,54,25,-20,-45,-147,-44
-17,32,11,34,39,25,-25,-33,-70,-40
-14,27,6,20,21,8,-19,-19,-9,-22
2,8,-13,-7,5,-8,-15,-13,27,6
13,4,-22,-16,-4,-10,8,0,84,20
10,4,-15,-23,-10,-8,1,3,76,23
13,3,-21,-20,-12,-13,-13,-5,24,22
20,15,-10,-14,5,1,2,-5,34,26
18,10,-10,-6,-2,-2,11,-5,56,19
47,20,-20,13,39,0,32,12,120,20
56,36,-15,17,57,-16,16,25,150,26
36,31,0,15,26,-7,11,25,120,23
10,28,0,8,2,0,77,17,193,33
-42,-24,-8,-21,-58,-7,70,9,73,26
-42,-43,-1,-30,-65,-5,-26,8,-168,-10
-27,-28,-1,-23,-42,-2,-34,23,-177,-13
-13,-8,-10,2,-14,13,-5,27,-71,15
-4,10,0,5,-5,23,-2,20,-24,27
-6,5,4,8,-8,19,-5,11,-3,21
-4,-7,-12,7,-5,16,-2,0,44,4
-11,0,-8,2,-10,8,3,-14,39,-15
-20,-5,8,13,3,7,-12,-5,25,-46
-22,-1,0,-3,10,7,7,2,51,-37
-22,2,3,4,4,15,36,11,61,-12
-19,12,17,34,17,20,20,0,30,-15
-19,14,31,28,12,11,-4,-4,-2,-22
-20,6,23,8,5,-2,14,5,5,-8
-15,-2,7,-3,-3,-16,11,-2,0,6
8,-16,-11,-9,-25,-23,-34,-7,-89,12
37,-14,-10,-16,-24,-15,-41,-11,-71,17
55,16,-8,-17,-2,-19,-35,-22,10,10
38,52,3,-11,0,-12,-17,-23,30,4
41,112,22,-7,11,-18,-22,-22,41,-3
29,96,26,-10,8,-11,-21,-34,17,-1
-24,-2,11,-13,-31,10,-13,-15,-21,13
-46,-78,-5,-2,-9,32,26,14,-12,13
-42,-100,1,8,-5,32,11,22,-71,1
-23,-105,0,6,5,19,-7,17,-51,2
-20,-40,-17,11,8,21,-5,24,-12,1
-12,18,-15,1,7,3,-16,5,-14,0
2,-12,-27,-15,2,0,-7,17,4,20
23,-23,-43,-20,16,21,19,58,57,52
60,2,-64,-3,49,48,83,87,182,72
17,-19,-55,-13,16,22,38,44,58,17
-44,7,19,-8,-24,-27,-7,-14,-74,-42
-26,81,60,8,-19,-39,-29,-31,-65,-44
14,152,65,13,0,-38,-12,-27,-11,-17
17,101,61,5,-3,-29,-15,-22,10,-23
-14,-16,44,9,-1,-20,-2,-37,-6,-48
-18,-91,21,16,2,-7,14,-37,43,-32
-17,-142,-2,11,21,0,44,-9,142,12
-23,-135,-20,8,28,14,35,13,82,3
-19,-56,-7,5,13,13,-17,6,-67,-28
10,4,-22,-3,-1,-13,-53,-8,-142,-38
19,40,-19,-6,-19,-18,-36,-3,-81,-18
11,31,-2,-9,-14,6,-21,8,-40,13
12,30,-5,-5,-7,18,8,13,-6,29
21,42,0,-1,4,2,37,5,119,39
12,22,1,-7,-5,-16,-16,-30,8,1
11,-5,6,-5,-30,-23,-88,-46,-147,-37
-4,-35,-5,5,-16,-28,-69,-41,-115,-27
-11,-86,-8,-19,-18,-35,-38,-15,-67,-11
3,-61,45,-8,-35,-51,-54,-34,-53,-14
-6,11,120,22,-42,-70,-76,-72,-83,-58
7,173,119,38,-31,-69,-65,-64,-85,-62
11,204,39,24,-9,-37,-26,-11,-56,-25
-5,148,-58,7,29,9,34,60,-12,3
-3,-45,-187,14,92,119,136,174,93,72
7,-314,-236,11,125,188,190,234,159,127
25,-219,-58,20,71,74,71,97,61,70
5,-6,73,17,-12,-32,-44,-27,-51,-9
5,98,55,-3,-39,-48,-59,-76,-60,-21
28,122,20,-18,-37,-42,8,-52,94,29
24,58,-6,-17,-27,-28,3,-30,76,20
1,-25,-22,-30,-37,-14,-69,-38,-120,-20
-16,-80,-16,-25,-29,-5,-65,-28,-137,-18
-8,-55,-7,8,29,1,-7,-9,-26,-31
13,33,6,24,81,13,44,-2,65,-43
16,64,1,10,58,1,40,5,80,-19
-7,22,-4,-22,-1,-14,7,11,51,-2
-43,-18,2,-47,-48,-3,-36,-6,-56,-15
-49,-15,23,-25,-56,4,-37,-37,-145,-30
-16,-10,27,-6,-31,5,-11,-35,-84,8
23,-6,12,-27,-29,-13,-8,-23,-2,53
37,9,8,-26,-25,-23,-2,-15,30,51
22,10,4,-15,-4,-14,-6,2,67,37
28,29,2,6,29,-9,17,4,122,22
-8,-1,-9,-7,-19,-21,0,-18,15,-5
-31,-24,-6,0,-30,-6,-5,-8,-8,-6
-41,-21,-12,-11,-15,4,-4,7,-14,-13
-46,-17,-7,-10,-37,6,4,11,-44,-20
-17,-8,-1,9,-18,12,12,21,-9,-2
18,5,5,18,-1,-1,0,29,20,-2
30,16,4,14,12,-3,-7,24,3,7
20,13,13,13,8,0,13,27,42,36
22,14,-2,10,14,9,46,10,120,64
28,16,-18,20,23,20,23,-21,13,17
15,5,-17,16,16,26,-13,-20,-103,-29
0,4,-3,14,2,20,4,-10,-62,-47
-15,9,10,15,-1,12,0,-14,-25,-54
-23,13,1,19,11,7,-2,-7,4,-53
-14,19,1,8,14,4,8,11,65,-43
-13,19,3,-2,23,8,18,28,98,-51
-31,8,6,-9,16,18,17,34,5,-73
-18,5,12,7,20,23,20,34,-20,-42
0,8,-3,-1,10,5,3,-2,-38,7
5,-4,-19,-16,3,-5,1,-17,-30,23
15,-7,-17,-25,10,-7,-5,2,-6,21
21,4,-4,-26,22,-5,16,9,11,23
44,29,6,-4,48,8,54,11,128,34
12,-1,16,-7,-5,9,12,4,38,20
0,2,8,20,0,7,-3,1,-8,3
-27,1,9,29,15,14,8,0,38,-11
-45,-29,18,9,-25,12,-13,-2,-20,-15
-28,-24,13,10,-41,10,-4,1,-38,8
-5,-5,12,9,-25,0,-8,4,-7,30
1,-4,10,-6,-5,8,20,17,39,45
6,15,1,-8,5,12,81,15,147,66
15,23,-3,-11,25,9,33,-18,40,27
25,31,1,0,31,13,-15,-22,-55,-9
13,-7,1,-10,-28,12,-11,-14,-81,-16
7,-12,9,-23,-42,11,-21,-19,-56,5
3,-8,11,-21,-39,-1,-26,-22,-46,8
31,18,4,11,2,-19,0,-25,16,-12
43,34,-4,35,50,-7,25,-11,102,-6
22,9,-9,24,31,-11,20,5,28,-5
-9,-23,-14,-9,-13,-13,-3,15,-44,-6
-18,-51,-7,-19,-29,-1,-9,23,-67,-3
-37,-43,7,-21,-39,-13,-12,20,-103,2
-37,-21,6,-4,-24,-7,-41,2,-92,-2
-16,-7,-3,2,-7,-2,-29,-2,-44,-9
-7,0,11,3,1,-9,-8,-3,3,12
2,23,20,9,15,-12,55,-6,149,40
4,13,14,24,4,-22,20,-13,77,15
2,-20,-4,18,-7,-13,-57,-10,-128,-32
-9,-28,-21,-6,-6,-4,-56,-11,-121,-22
-19,-17,-18,-21,-6,11,-42,-25,-71,1
-21,-10,-23,-26,-2,5,-34,-20,-35,8
-28,-12,-12,-1,10,6,0,-10,-14,-1
-18,-9,-6,7,13,8,8,3,20,-6
6,-4,-11,1,-1,-12,-22,17,-5,4
-3,12,-7,0,3,-1,-31,30,-25,11
7,13,-4,0,2,-9,-22,14,-25,3
29,9,-2,-6,1,-29,-31,-1,-26,-3
25,11,-4,0,-2,-24,-24,-11,-23,-4
21,24,2,9,23,-10,-17,-2,5,13
9,15,-1,5,31,-21,-11,10,6,14
-2,3,-20,13,43,-6,-3,23,55,-2
10,16,-39,12,63,-7,22,16,109,-8
19,34,-12,-2,38,-11,-10,-2,64,-7
5,10,8,-6,-11,-6,-24,-6,8,1
0,-13,7,-8,-6,-8,-19,-4,-5,13
-4,45,9,-11,0,17,-10,4,8,17
-29,87,8,-27,-38,20,-24,0,-37,-3
-26,23,0,-20,-41,-6,14,-16,0,3
-33,-88,-9,-22,-56,-20,19,-39,3,6
-27,-151,-30,-7,-9,4,-5,-29,-33,-23
-13,-176,-34,3,17,23,-13,0,-62,-23
-3,-82,-12,-9,-18,17,21,39,-27,4
-16,10,-3,-31,-49,8,20,64,-16,6
-3,45,19,-9,-22,18,14,60,-17,6
8,43,52,26,14,28,44,33,-45,-16
3,36,37,47,35,25,25,-4,-57,-40
13,25,18,40,24,5,0,-5,-82,-34
15,8,13,14,4,-8,0,-12,-81,-11
7,5,16,6,0,-11,-21,-40,-61,-9
13,19,22,6,0,-12,-31,-71,-59,-15
5,18,9,0,2,-5,-42,-79,-35,-16
-10,0,-2,0,4,-10,-17,-52,-4,-15
-20,-15,-3,-3,-2,-9,14,-19,53,-2
-1,2,-9,-21,-12,-24,-3,7,37,-13
15,3,-22,-19,-14,-13,0,21,32,8
16,14,-26,-23,-1,-4,2,9,28,32
17,50,-7,-12,1,-1,5,-5,28,25
-6,26,16,11,9,6,9,3,28,3
-11,-27,17,5,11,-4,2,17,24,0
-36,-66,0,7,5,-7,43,32,78,2
-38,-46,3,26,25,-10,99,45,234,22
39,5,2,24,53,-14,63,42,214,18
62,50,4,-4,27,-22,-39,25,1,-19
33,48,-17,-17,-18,-16,-53,26,-73,-14
-27,-10,-22,-25,-61,-7,-22,43,-139,0
-44,-16,3,-1,-21,16,-8,30,-102,-7
-25,-1,10,16,3,19,-10,13,-64,-18
-2,-1,-19,-1,-12,8,-8,3,-6,-6
8,-23,-27,-2,-10,11,-28,-13,-12,-5
22,0,1,24,9,16,-57,-44,-39,-24
36,14,36,37,18,5,-51,-60,-32,-22
38,20,38,23,27,15,-24,-53,-14,-1
15,12,14,5,8,11,-7,-22,11,18
-3,-8,-7,-12,-8,5,13,6,30,15
-7,0,-19,-32,-6,-1,56,26,111,22
-2,28,-29,-38,-2,6,104,37,223,43
-2,22,-4,-35,-9,6,50,40,99,37
-4,9,12,-22,-7,4,-26,37,-84,0
-6,5,12,-4,-5,13,-21,21,-70,-6
-4,11,21,7,-1,7,-1,-15,-25,-7
0,1,37,4,-2,8,-11,-25,-14,-14
-5,-6,12,10,0,25,6,-13,-4,-11
-19,0,-4,9,0,25,23,-3,32,-8
-6,-31,-8,6,-12,26,14,1,26,-8
24,-59,-36,-19,1,40,22,1,38,12
28,-2,-6,-14,11,31,6,-4,30,35
24,48,33,21,12,0,-24,-37,8,8
19,52,34,26,17,-5,-27,-46,41,-20
-3,32,25,8,4,-1,-6,-30,35,-24
2,24,18,9,-12,-3,-4,-16,25,-11
25,23,6,17,1,-8,9,-6,44,1
1,-1,-21,-5,-10,-9,0,-7,-11,-1
0,0,-25,0,-5,0,8,0,-13,2
9,0,-17,5,2,-6,40,7,-6,3
9,2,-7,-1,-1,-18,31,7,0,-5
16,12,-7,3,29,-20,19,16,44,-10
46,36,-4,26,70,-20,43,23,128,-2
40,46,12,40,71,-16,61,18,221,19
20,49,17,40,40,-14,23,10,178,11
-26,0,5,18,-6,-9,-50,7,-68,-22
-23,-4,3,14,-12,-2,-56,18,-113,-17
-50,-49,2,-22,-65,-9,-47,13,-144,14
-86,-110,-19,-55,-74,6,-22,11,-150,25
-48,-66,-14,-35,-15,14,4,4,-67,18
-26,-43,-12,-36,-16,15,-7,-3,-45,29
-11,-7,0,-31,-8,6,1,-26,-37,28
-1,0,1,-12,0,0,-28,-36,-56,-2
0,-5,6,6,11,-2,-21,-25,-58,-2
-1,-6,-5,1,3,-5,-11,-18,-63,0
8,-8,-17,-2,2,-2,10,-2,-35,1
19,-4,0,2,-1,0,0,0,-4,2
24,14,22,28,29,9,1,-21,40,-3
27,24,6,22,32,13,26,-19,92,14
7,-4,-12,-3,-29,1,-5,-18,-10,0
-5,-9,-16,10,-32,-1,-20,-19,-53,-9
-12,-2,-9,21,-23,0,-19,-14,-23,-26
-12,-2,0,5,-15,-2,-2,11,34,-24
-5,-1,6,-6,-6,12,3,42,67,-2
-25,-10,9,0,4,12,38,63,69,3
-42,-1,10,5,7,6,64,52,96,-6
-26,16,6,9,16,-3,98,32,182,18
8,51,0,0,3,-2,21,14,41,5
19,93,9,-1,-4,2,-56,-9,-138,-18
16,39,16,0,17,-1,-48,-10,-81,-17
3,-48,5,-3,4,-4,-23,1,-3,-14
-19,-113,-28,15,-12,4,-3,15,10,1
-18,-120,-31,25,6,5,40,32,28,17
-18,-21,0,7,-13,-8,23,2,12,27
-20,82,16,6,-17,-33,-34,-27,-47,-2
-20,60,3,0,-13,-28,-25,-32,-51,-8
-14,26,-3,-17,-16,-14,-5,-30,-22,-8
-2,8,-4,-22,-19,-4,0,-38,3,-2
16,-8,-24,-7,-2,12,14,-11,44,11
21,0,-6,7,8,19,25,21,50,20
24,13,16,7,-1,9,40,33,109,14
27,39,11,5,10,9,64,33,169,27
21,40,32,1,5,13,-17,10,-40,-9
4,57,68,-5,0,10,-63,-21,-116,-43
-9,72,64,4,-2,1,-54,-35,-92,-45
-15,21,36,-6,-9,-7,-38,-29,-72,-27
3,-41,7,-11,-20,-9,-26,-25,-55,-4
25,-124,-15,-3,-16,-15,-19,0,-9,41
50,-98,-43,-11,-14,-13,19,17,85,78
32,116,-21,-28,-29,-28,-30,-19,-3,16
-13,163,-21,-16,-13,-10,-10,1,-13,-25
-32,42,-60,25,55,67,76,86,79,14
7,-15,-57,52,106,106,123,111,113,56
0,-124,-23,28,80,75,69,66,73,38
-10,-134,-13,-12,0,-4,-1,3,22,-15
-10,-94,7,-24,-26,-29,-12,-22,36,-41
-8,-18,34,0,-14,-21,-14,-18,32,-31
17,50,27,-9,-12,-26,-9,-18,4,-12
23,30,18,-19,-25,-18,-18,-21,-13,-6
6,31,21,0,-17,-19,-18,-53,-27,-16
-4,25,12,17,-18,-22,-16,-50,-21,-18
17,30,-9,29,33,-15,16,-28,53,5
18,13,-14,24,28,-6,24,-9,46,10
3,0,-6,11,-8,-1,43,4,95,29
7,11,8,8,4,0,22,2,103,34
-12,-22,1,-37,-41,0,-50,-4,-117,1
-11,-21,3,-28,-24,0,-61,-5,-136,-2
-4,0,11,1,11,-10,-40,-8,-55,-1
11,22,8,19,51,7,-12,-4,35,-9
22,30,7,27,62,2,-8,0,89,-10
-1,-2,13,29,14,-6,0,7,48,0
-38,-53,3,-10,-72,-6,-16,-1,-95,3
-20,-36,-4,-15,-46,0,-13,2,-97,5
0,-7,4,-3,-5,-7,-7,6,-37,4
-12,0,-5,-2,1,-9,-6,14,-24,2
-34,-14,-10,-10,-18,0,6,22,-31,-35
-37,-23,-15,-9,-11,8,0,27,-28,-75
-19,-15,-41,-10,-14,11,14,17,-14,-60
5,25,-24,-4,-5,-6,8,-4,10,-28
15,26,2,-9,6,-10,-13,-7,-30,6
11,16,6,-13,6,-5,-4,-6,-28,32
16,10,-1,-25,10,-6,-2,-8,-26,43
35,15,-17,-6,31,-9,20,-11,12,42
34,6,-20,-3,36,-2,13,-8,33,24
32,6,-22,-8,34,-5,14,4,51,14
11,12,2,-9,20,-14,57,20,152,28
-20,-4,42,-11,-17,2,79,31,336,77
-20,-20,36,-27,-36,-1,-14,17,143,56
-15,-27,13,-17,-34,1,-80,-2,-114,4
-11,-26,-16,5,-22,11,-59,-9,-209,-23
-13,-17,-29,21,-10,9,-39,-13,-210,-27
0,-18,0,12,-7,24,-18,-26,-9,-20
8,-4,10,8,3,19,-5,-22,5,-23
2,2,-8,24,22,-3,-6,-41,-130,-45
7,11,-30,35,29,-19,-28,-50,-295,-65
7,11,-6,-1,3,-19,-21,-24,-135,-37
4,7,33,-8,-8,-19,-18,-13,81,-4
1,17,20,1,6,-28,5,-5,-6,-1
19,26,-3,16,34,-29,1,0,-155,-3
0,-2,-12,1,13,-24,-13,-18,-154,-17
-23,-33,-28,-13,-28,-16,-21,-7,-68,4
0,-22,-23,-5,-2,-2,12,16,48,27
16,-9,0,1,23,-3,-27,8,-7,-18
8,-17,-6,9,22,1,-26,15,-7,-18
-28,-46,-13,-10,-26,13,-32,29,-38,-4
-15,-29,-20,-9,-20,-4,-24,28,-4,12
12,-3,-16,5,22,-11,-10,14,41,17
13,-1,-13,6,4,-2,-4,-7,20,11
3,-9,-19,-10,-14,-3,-7,-17,-42,0
-14,-21,-5,-14,-44,-4,-20,-22,-89,0
-27,-17,3,-14,-59,-10,-14,-17,-89,0
-14,1,4,-11,-37,-6,-4,-7,-32,0
1,26,15,2,-14,0,-2,4,34,12
-5,22,31,27,9,1,-6,3,39,-2
-6,23,22,29,16,7,14,23,62,-11
7,32,14,21,45,18,47,54,181,-5
19,14,6,-16,39,6,27,36,95,-4
27,-11,-16,-48,-10,-14,0,27,-27,39
48,22,-14,-32,-13,-16,4,30,-13,45
32,29,-11,1,-1,-3,33,11,-25,-10
-3,-10,-23,-12,5,-3,23,-14,-34,-42
-21,-28,-6,-10,-3,-3,8,-26,-17,-23
0,0,7,-1,-3,15,23,-11,31,0
3,3,4,1,1,14,62,10,153,26
-10,11,10,5,6,21,55,28,125,8
-34,15,23,21,20,19,-4,7,-61,-63
-34,0,42,30,15,12,-38,-31,-155,-78
0,3,37,34,23,5,-39,-60,-141,-50
4,2,21,20,7,-1,-34,-43,-74,-15
-5,-6,-1,3,-4,-8,-22,-29,-18,-5
7,-14,-11,-8,-5,-11,-3,-22,42,24
24,-4,-13,-25,-11,-34,-30,-18,18,35
49,15,-25,-2,13,-30,-19,4,42,21
40,7,-14,1,4,-8,-1,15,41,9
3,-23,-5,-21,-36,-12,0,13,-18,18
0,-6,-14,0,0,-2,7,6,21,31
13,23,-11,18,26,-7,24,2,64,38
6,13,-3,5,11,-9,12,1,77,41
8,23,1,3,33,3,33,11,141,46
-21,-5,7,-19,-5,7,6,9,45,16
-46,-28,4,-34,-50,14,-12,-3,-52,-19
-30,8,14,-11,0,22,3,-5,-43,-33
-34,14,20,-1,-14,13,-13,-15,-48,-33
-20,17,34,-4,0,9,-9,-12,122,-14
-21,-4,19,-8,-13,4,-9,0,100,-3
-3,0,-3,1,-6,1,44,25,110,27
24,46,-29,15,-7,-3,58,12,18,46
42,82,-15,12,2,-4,-30,-8,-118,22
17,23,34,1,2,3,-60,-9,-34,-4
-15,-52,37,0,4,3,-20,-11,76,-10
-31,-142,-10,-3,-5,-8,-1,7,-73,3
-24,-149,-12,7,23,11,30,28,19,33
1,-21,-11,12,18,0,21,13,-59,23
17,42,-19,7,-15,-13,-2,-9,-178,2
9,26,-6,0,-18,-11,-15,-17,-125,-25
0,6,0,-4,-8,-3,2,-12,-61,-34
5,1,-7,-18,-2,-3,9,3,0,-24
3,8,-3,-19,-20,-3,-3,16,27,-2
0,0,7,-26,-12,-21,21,3,16,-3
-9,2,16,-22,1,-30,10,-14,13,-20
-22,17,23,19,11,-10,38,-6,96,-12
-12,41,20,27,10,1,44,0,101,-4
-4,55,0,13,6,2,-27,-11,-61,-30
-10,42,-2,12,-3,14,-9,0,-56,-20
1,-2,14,18,0,25,-3,5,-16,-3
6,-47,10,23,20,7,14,21,36,4
11,-79,5,10,14,-4,6,16,22,10
8,-68,11,0,-5,-8,7,4,22,21
8,-4,-8,-14,-23,-15,24,-4,50,30
10,22,-20,-16,-31,-8,-22,-9,-38,9
20,24,-30,-7,-15,-7,-8,6,-8,2
39,47,-30,14,59,18,17,8,93,7
32,59,-4,28,84,36,26,-10,115,0
2,43,9,5,45,29,27,-12,70,-9
-9,32,9,0,11,27,18,-2,36,-12
-9,23,9,19,31,26,29,2,89,-14
-34,12,6,0,3,18,12,10,22,-24
-37,3,17,-1,-7,12,-12,3,-53,-34
-23,-7,5,0,-4,16,6,7,-63,-30
-54,-62,-6,-46,-82,6,-3,10,-155,-5
-39,-43,-10,-33,-71,-8,3,3,-119,0
-18,-19,-13,-6,-42,-3,19,-2,-63,8
2,-5,-10,3,-13,-9,21,3,21,26
31,12,-11,7,3,-14,49,0,170,58
26,-9,-14,2,3,-6,6,-21,71,32
2,-28,-13,-8,-3,-7,-66,-19,-96,-12
-1,-22,-7,-6,0,-9,-44,9,-54,-2
-12,-15,10,6,0,-13,-33,7,-28,3
-9,1,14,2,-3,-10,-26,-8,-26,-16
-6,-6,18,0,-1,-2,-29,-18,-19,-7
-23,0,7,-6,-7,-14,-13,-4,39,0
-22,0,-2,-12,0,-12,-14,1,37,-15
-13,-9,-13,-9,-7,3,-10,7,17,-2
3,0,-23,-11,-4,3,14,18,28,32
23,-2,-23,-34,-10,-2,32,25,49,42
26,5,15,-43,8,19,25,27,156,40
23,12,7,-9,1,24,24,24,9,22
15,-2,-13,-2,-13,5,29,22,-87,18
28,2,-4,2,-3,-6,2,28,-66,23
42,22,12,13,35,13,5,47,37,14
19,9,19,-8,15,16,9,35,158,25
16,5,0,-8,16,1,-7,0,29,16
-3,7,9,3,21,9,-11,-28,11,-13
-1,3,-19,21,20,5,-14,-46,-138,-23
9,25,-16,42,63,12,10,-50,-85,-34
3,34,-21,38,59,4,53,-29,112,-27
-15,6,-13,0,-1,-4,44,-3,119,-18
-54,-65,-19,-40,-98,-5,-62,10,-168,-48
-34,-61,-13,-17,-84,-4,-85,22,-206,-38
-10,-18,18,2,-27,-1,-49,18,-103,-10
-9,0,24,7,4,3,-19,13,-29,1
3,-5,12,8,14,0,-6,12,9,9
57,35,7,25,71,9,21,3,102,13
52,45,1,41,86,14,33,-3,99,1
14,10,-3,20,34,1,0,-12,4,-9
-17,-35,-6,-11,-40,-10,-14,-22,-106,-10
31,15,9,18,16,2,-10,-18,-11,-9
49,34,5,33,46,-6,4,-34,54,-7
31,24,7,20,4,-28,-16,-37,23,-4
-10,-20,-5,3,-39,-31,-21,-18,-41,-11
-42,-42,-8,-11,-85,-22,-1,8,-21,23
-8,0,4,1,-33,-16,18,28,62,25
0,16,3,-1,-6,-23,-10,15,-9,-7
-37,-30,-6,-19,-41,-24,-19,-7,-109,-12
-35,-27,-6,-9,-37,-12,-9,-16,-95,9
-21,-11,-12,-9,-29,-14,-1,5,-42,24
-16,-9,-16,-10,-8,5,17,17,-1,0
-21,-13,-19,-14,-3,15,18,39,76,-15
-17,-19,-24,-14,-12,-4,17,43,94,-3
-17,-16,-15,-14,-10,-5,-24,25,-28,-28
-6,-12,-4,-11,-1,3,-3,11,-44,-44
-12,-9,9,-7,13,24,11,14,-36,-38
-1,8,18,1,12,13,18,29,-10,3
19,23,23,0,0,9,26,21,3,27
16,14,20,11,14,18,3,0,6,35
14,2,16,17,7,10,-2,-36,20,25
21,0,12,18,6,1,-35,-75,-51,6
20,4,7,4,-7,-6,-44,-83,-68,4
26,-7,2,-19,-23,-19,-40,-57,-45,-4
28,9,4,-22,-19,-24,-33,-22,-4,6
20,16,-6,-8,-20,-30,-13,-7,16,22
11,37,-7,6,0,-21,13,-7,49,16
9,49,-10,9,21,-8,28,-12,105,27
-13,-9,-39,-5,8,-2,81,16,234,41
-54,-99,-63,-8,10,20,41,34,89,-16
-53,-60,-4,6,7,26,-21,10,-122,-66
4,41,20,35,53,25,18,10,-18,-39
33,69,16,50,104,33,66,28,107,-10
12,62,13,36,77,31,54,20,64,14
-14,10,26,9,-6,0,-3,-1,-35,24
-15,-17,29,-11,-33,-13,-4,-27,-53,33
37,14,14,1,22,-17,-19,-28,5,24
36,23,6,1,14,-20,-1,5,42,26
7,5,8,0,-18,-9,-15,3,-19,12
-34,-24,22,-17,-78,-3,-38,-41,-144,-17
-50,-22,21,-26,-72,5,-36,-31,-160,-42
-38,-3,5,-15,-27,14,2,4,-80,-34
-22,-10,-9,-16,-10,16,6,15,6,-1
-1,3,-4,0,27,20,14,16,87,25
32,47,-7,26,74,27,19,14,156,15
16,14,-9,12,28,22,-5,2,71,-1
-36,-49,-6,-34,-61,0,-14,-15,-92,-6
-44,-45,-12,-38,-60,-10,-16,-8,-112,-4
-15,-9,-14,-25,-23,-15,5,27,-45,0
0,-2,-14,-13,5,-2,8,43,-2,3
5,8,-10,0,8,2,33,34,83,23
-6,23,4,-5,9,-5,45,10,81,18
18,39,3,-5,49,-13,17,-2,10,-21
48,50,-6,19,71,-9,-2,-10,25,-25
0,-3,-19,-12,-18,-17,-14,-13,-60,-6
6,-1,-23,-10,-15,4,-6,12,-36,5
46,34,-5,9,51,21,25,8,68,11
46,19,6,16,43,2,10,-8,77,30
17,2,11,13,6,-5,-10,-37,22,16
5,-2,14,2,10,-7,3,-25,16,0
-30,-39,7,-20,-38,-23,-15,-2,-53,-11
-55,-68,10,-15,-79,-20,-30,0,-126,-18
-24,-37,19,11,-47,0,-27,-3,-50,-15
-7,-14,26,30,-14,-8,-19,-1,12,0
6,2,27,31,7,-13,-21,-2,28,5
22,18,12,16,33,6,42,13,120,19
7,-16,-10,-6,6,3,42,35,20,11
-7,-26,-9,-16,-12,0,-20,23,-123,-18
-6,-8,-16,-22,-15,-12,-8,-1,-66,-23
-15,-7,-3,-17,-14,-8,4,-1,-25,-23
-23,-8,10,-12,-13,0,18,1,-18,-15
-22,9,21,-14,-7,7,-1,-16,-13,-5
-22,22,15,-14,-2,-7,-2,-15,54,19
-11,-5,7,-5,-1,3,0,-10,42,43
7,1,-2,-8,-12,4,-33,-11,-58,16
8,3,-4,-3,0,9,-16,11,-38,6
7,-21,-13,-5,7,3,-23,-2,-11,5
9,1,-3,-1,6,5,-27,-12,-9,11
2,17,5,-4,6,12,-27,-16,-8,0
8,25,4,0,0,11,-11,-12,19,-3
8,30,8,9,4,9,0,1,38,0
-16,0,3,9,3,19,-1,3,-13,-31
-19,-16,0,18,4,13,-1,9,-24,-34
-6,-18,-9,29,-5,3,5,20,-14,-15
11,-7,-7,25,-4,-3,5,20,5,15
21,2,-7,17,4,0,18,10,10,19
39,22,-14,-4,9,3,25,6,37,32
59,24,-19,-15,2,4,46,11,145,83
31,-7,-21,-17,-11,0,68,17,162,74
13,-12,-19,-26,-20,-4,0,-2,-30,4
2,-13,-10,-23,-23,-6,-58,-21,-145,-22
-5,-23,0,-13,-17,1,-36,-10,-78,-34
-21,-11,18,-5,-16,2,-32,-25,-52,-74
-41,9,25,13,-8,6,-30,-34,-64,-126
-54,15,17,27,-1,5,-21,-24,-48,-128
-41,8,-1,7,-1,8,0,2,-4,-85
-1,-11,-19,-10,-3,7,-7,16,-20,-12
23,-11,-29,-14,-13,7,-1,23,13,42
25,12,-19,-6,1,0,-7,2,28,45
20,30,13,14,8,-12,2,-13,19,36
16,6,11,15,17,-11,1,-1,0,23
3,15,2,14,6,-24,-1,-3,-28,11
11,16,2,9,-1,-14,-5,-13,-20,2
9,-11,-1,8,-8,-11,-7,-13,-36,11
-9,-32,0,19,11,-12,-2,3,-33,7
-6,-27,13,27,36,1,14,5,7,-7
18,2,36,31,53,6,8,7,43,-14
-1,-27,10,-18,-23,-25,-23,5,-46,5
-14,-38,-2,-38,-50,-30,-21,3,-64,13
2,-28,-14,-29,-31,-15,18,12,-7,8
6,-16,-7,-18,-6,-12,61,31,109,18
-1,-5,-12,-19,-3,-14,23,31,83,2
-13,-6,-14,-20,-4,-8,-39,14,-81,-32
-18,7,-5,-13,-1,7,-54,-3,-110,-36
-12,17,7,-7,17,9,-33,-15,-38,-23
-20,8,23,0,10,11,-4,-3,2,-24
-13,-4,10,1,-4,-1,5,2,6,9
5,-13,1,4,-6,9,1,32,29,43
6,-3,-2,11,18,12,-1,27,20,32
1,12,4,19,25,7,-9,0,6,7
15,23,18,20,20,-7,1,-21,9,6
38,41,8,22,51,-7,6,-16,65,-3
20,30,-20,5,30,-7,19,-15,83,-5
27,28,-35,11,23,-3,29,1,131,11
-7,-15,-30,-12,-36,6,35,12,60,43
-14,3,-12,-18,-39,4,73,14,100,57
-4,32,18,-4,-3,21,20,-9,89,3
-11,-2,26,-16,7,24,-26,-5,76,-30
-23,-19,10,-18,2,7,-15,4,45,-20
-36,-22,-2,0,2,3,-12,-6,7,-8
-13,-16,-21,12,5,-11,2,1,-118,-11
7,2,-32,5,-14,-26,-5,1,-251,9
7,1,-19,-4,-27,-30,26,3,-109,50
10,-5,-2,-5,-24,-18,3,-2,-80,31
10,-11,0,6,-8,-11,-19,-25,-102,-25
-2,-7,7,19,1,0,4,-11,-42,-35
-9,11,18,12,12,6,14,7,4,-4
13,12,23,6,9,4,35,-3,35,3
7,-8,14,-8,-7,2,14,-21,2,17
0,-3,1,-4,-21,0,-7,-15,5,28
-3,-4,-5,-6,-14,-3,9,-3,11,28
-20,-13,-8,-3,-21,0,-17,-3,-37,-2
-22,-7,-11,6,-9,15,-16,-12,-44,-15
-15,5,-4,12,3,-1,-24,-7,-38,-2
-14,-3,-11,10,-5,-9,-31,-18,-31,-9
-11,-18,-24,2,-3,0,-32,-12,-26,-7
-1,-12,-33,-9,-9,2,-9,6,-5,2
3,-6,-24,-15,12,0,16,21,91,6
3,-17,7,-3,13,4,3,30,56,-14
9,-11,25,2,2,0,-29,36,-21,-20
17,6,20,-10,-7,-5,-14,35,-14,-2
-1,42,4,-15,-10,-9,-16,36,-9,1
-13,50,-3,-7,-20,-6,-3,44,2,-1
1,8,-19,5,-7,-8,-8,45,18,6
23,-40,-52,21,30,0,49,54,144,34
15,-21,-30,18,29,5,110,37,258,72
-26,11,25,-11,-18,-6,-16,-16,-48,12
-18,24,43,-12,-5,-11,-83,-44,-159,-17
-7,17,33,-1,-5,-15,-49,-41,-100,-13
-9,10,14,-1,-6,-4,-23,-38,-64,-14
-12,6,5,2,0,-1,-26,-48,-51,1
-9,-2,15,10,25,7,-29,-65,-30,11
0,-6,14,15,27,10,-19,-41,18,21
1,-14,19,0,11,7,-20,-19,9,16
0,-2,25,0,21,6,-14,-30,-9,-12
-4,-12,24,5,6,6,-18,-23,-7,-15
7,-12,14,-9,-14,-9,-15,4,12,0
17,-2,10,-11,-22,-12,11,13,33,4
12,-5,6,0,-11,-10,29,16,28,-2
-2,-2,8,0,-3,5,30,17,64,-6
19,30,15,23,50,32,84,29,238,1
-19,-8,6,-1,4,23,52,19,79,-14
-30,-8,-10,-12,-21,-1,-9,0,-87,-23
-6,-8,-16,-9,-32,-9,-5,3,-93,-10
16,-1,6,8,-16,9,0,5,19,6
17,10,26,20,7,20,3,2,71,6
16,26,32,22,33,15,-4,-5,131,-2
-3,10,31,16,29,10,-10,-11,173,5
-6,0,-15,-4,12,-6,-17,0,-41,-11
1,-5,-7,-6,-1,0,-15,17,3,-11
12,-5,12,18,13,17,-3,15,129,2
9,-17,-7,14,16,0,16,4,-13,8
9,13,-22,11,13,-14,22,-1,-122,-1
2,21,-25,2,2,-14,0,-9,-112,-10
-8,16,-6,-14,3,-4,26,1,98,8
-11,0,-37,-25,-16,-13,53,4,10,33
-4,-16,-37,-47,-31,-16,-5,-15,-202,-19
0,-8,-27,-32,-11,-15,-27,-25,-195,-40
-1,-14,-9,-20,-8,-7,-16,-26,-107,-19
20,1,-3,2,23,3,-20,-30,-24,-14
36,12,-4,14,43,0,-16,-10,52,0
16,-2,-20,-8,-8,-3,-18,9,32,13
44,33,-17,17,51,5,39,4,217,7
25,19,-7,24,53,16,25,-7,119,-22
-32,-24,1,6,-11,9,-20,-18,-87,-41
-57,-43,1,-4,-47,11,-15,-12,-146,-20
-33,-28,1,-5,-48,-7,-19,-15,-112,14
11,11,12,6,-16,-17,-16,-16,-45,23
40,45,14,16,27,-5,-12,-7,74,12
-5,-5,17,-20,-37,-9,-29,4,-3,18
-20,-15,11,-33,-48,-16,-16,25,-35,15
-13,-33,1,-26,-25,-6,2,52,-15,-9
4,-35,0,-5,-8,6,11,55,3,-6
11,-10,8,9,3,2,16,14,-17,8
-2,4,13,10,9,2,0,-15,-28,6
3,9,-5,14,1,-6,0,-3,-11,1
17,5,-17,13,8,-2,11,21,45,3
20,12,-24,5,10,2,70,31,162,31
7,25,-24,15,12,0,77,16,149,30
-16,1,-3,4,7,13,-15,10,-106,-36
-36,-11,-1,-1,10,19,-41,4,-201,-73
-29,-3,-4,-7,2,10,-27,-2,-115,-48
-17,-7,0,-13,0,9,-3,-4,-55,-10
-1,-14,-15,-10,-7,1,6,11,-8,15
10,-16,-21,-10,-15,-17,12,20,32,29
18,-8,-8,1,-3,-8,13,24,48,34
18,7,-5,-7,5,2,-1,0,47,33
11,1,4,-14,0,5,6,-1,35,32
1,3,18,0,3,5,-1,9,7,21
0,3,19,9,4,12,10,-12,-3,0
9,-1,9,0,-16,-3,7,-14,-12,-11
-1,1,7,-17,-13,-7,5,0,5,-9
3,4,9,-7,3,0,22,7,67,13
-1,4,19,14,11,19,3,11,49,7
10,12,24,24,33,33,9,-1,26,0
38,16,4,24,36,22,-2,-1,24,0
32,9,-16,9,22,19,-5,-5,17,-13
25,47,-7,24,74,20,19,-23,75,-37
-8,26,10,32,58,25,4,-24,46,-26
-36,-20,11,8,3,-6,5,-16,8,-12
-35,-39,2,-7,-37,-23,19,-18,72,21
13,0,-15,2,20,-25,-3,-28,54,11
22,20,-8,0,18,-36,-44,-33,-75,-22
-6,-14,17,-19,-40,-20,-39,-11,-53,13
-30,-52,27,-33,-80,4,-28,16,111,44
-21,-42,-7,-20,-57,0,-3,18,32,25
15,-1,-34,6,-16,-23,-1,14,-97,6
0,-5,-16,-15,-33,-8,7,3,-57,7
-7,-7,-36,-15,-24,0,-14,-5,-143,-13
16,22,-20,4,42,6,6,3,-28,-40
-8,7,-3,-4,38,15,10,17,15,-35
-30,-24,18,-34,-18,9,-16,23,74,-8
-15,-30,8,-22,-40,5,-25,11,16,-2
-17,-23,-14,-9,-45,-14,-40,-14,-202,5
10,5,9,4,-32,-14,-28,-20,-86,15
39,32,12,19,24,6,-4,0,54,17
47,34,4,39,76,10,-9,3,43,-8
32,21,4,16,61,-2,12,-7,15,-20
3,3,7,6,21,-11,3,-8,-25,-22
-48,-42,-1,-27,-48,-17,-13,-6,-97,-7
-62,-53,-5,-54,-72,-27,-24,-3,-119,24
-28,-30,-6,-30,-32,-17,14,1,-16,28
28,35,2,7,43,13,100,34,252,48
35,63,1,21,74,21,55,15,163,10
0,26,0,13,32,3,-37,-15,-82,-24
-33,-9,17,-7,-36,8,-54,-6,-80,-12
-30,-43,24,-20,-65,19,-52,2,-7,8
-22,-42,-13,-11,-54,2,-26,0,-175,0
11,1,-13,10,0,0,0,18,-63,12
56,42,-7,19,58,0,26,30,119,39
44,39,8,11,54,4,16,-4,66,6
-11,0,20,-5,-5,-4,-30,-36,-82,-34
-46,-29,13,-21,-58,-5,-30,-47,-157,-29
8,3,10,0,-21,-7,-3,-25,-33,-15
12,21,10,-1,-26,-9,6,-8,5,3
-6,20,3,-18,-29,-13,14,1,-11,23
-4,10,-14,-15,-10,-5,35,13,51,34
-2,4,-12,2,-4,-1,59,31,172,36
-14,10,-5,7,0,-4,47,40,131,-3
-22,-1,6,10,6,-7,-41,6,-79,-62
-10,-6,5,19,3,-7,-64,5,-113,-38
10,-9,-11,18,3,14,-21,23,-40,-6
17,-17,-16,4,0,17,13,27,-8,4
17,-16,-8,-7,-8,-2,-1,3,1,5
0,-7,4,-7,-3,0,17,-11,32,8
-9,13,10,-3,8,10,21,-16,28,0
-10,9,8,-9,0,6,13,-23,8,-14
-28,-14,-11,-26,-4,0,30,-4,29,-14
-36,-14,-23,-17,0,4,9,16,34,5
-19,-4,-14,4,6,2,-1,20,41,25
16,4,1,19,-6,-11,6,24,48,41
35,20,24,24,11,0,5,7,29,41
25,29,37,36,19,10,15,-23,14,11
18,9,34,27,20,4,-6,-31,-57,-35
7,-11,20,7,0,-8,9,-32,-55,-24
-7,-20,-5,-5,-21,-17,18,-28,-33,-13
-3,-8,-27,-9,-14,3,19,-4,43,-29
-15,-8,-29,4,0,19,32,25,47,-45
-7,8,10,31,34,47,26,31,130,-32
9,34,41,37,61,56,49,48,412,15
13,22,17,27,39,27,77,41,293,43
10,7,0,3,11,-1,0,3,-141,-13
31,14,-13,1,40,-20,-52,-28,-255,-40
34,7,4,-10,25,-4,-43,-39,-95,-22
-2,-15,20,-42,-35,-11,-47,-35,-3,2
29,28,-26,18,16,-19,-20,-33,-69,19
46,40,-22,41,30,-11,-4,-40,-45,26
23,19,1,6,2,-14,-13,-48,-19,13
-8,-33,17,-39,-60,-24,-43,-28,23,7
-12,-29,-13,-36,-55,-36,-36,4,-49,11
10,5,-42,-7,9,-33,6,9,-81,5
-20,-24,-31,-12,-26,-10,-3,8,-84,18
-36,-33,2,-5,-53,0,-7,19,-100,31
-4,-20,16,13,-16,-3,-20,3,-27,30
15,-8,5,21,24,3,27,3,161,33
0,2,-5,-15,-2,-5,-6,1,106,10
-19,-3,14,-28,-21,0,-50,-12,65,-23
-16,11,31,-10,2,3,-33,-26,134,-39
-35,-1,-12,-1,0,6,0,-25,-43,-56
-48,-23,-32,-2,-16,8,1,-7,-137,-56
-38,-37,-42,-18,-19,-1,7,3,-86,-33
-25,-16,-28,-22,-18,1,8,11,-5,-4
-9,10,-15,2,12,11,59,14,134,23
7,6,0,9,18,26,-3,2,3,-11
19,6,7,6,20,20,-53,0,-108,-22
20,7,5,-4,9,8,-34,17,-52,10
23,14,8,1,9,4,-4,20,-2,30
10,21,14,17,3,16,6,3,7,15
8,15,1,10,6,20,33,3,26,0
1,-4,-4,11,9,20,52,16,81,1
6,1,-1,16,12,19,16,-8,47,6
7,0,11,0,-11,-5,6,-23,-23,14
13,8,12,1,-7,-19,-12,-23,-9,12
-1,23,14,9,-3,-14,-15,-24,-6,-3
-20,10,16,0,-10,-17,-14,-19,-25,-16
-6,9,1,-4,-17,-4,0,-1,-23,0
0,3,0,0,-14,11,4,8,46,23
0,1,5,2,-11,19,54,37,148,40
-2,5,0,2,-9,20,54,33,86,16
-15,-9,-11,-10,-3,6,-6,-1,-74,-19
-9,-21,-21,-10,11,-2,-4,-4,-85,-21
5,-3,-5,0,6,6,4,0,-33,-7
9,20,8,12,12,-5,3,-2,-4,2
8,30,2,0,13,-16,29,12,40,19
5,31,-10,-19,10,-8,24,21,71,22
6,31,-15,6,15,-5,9,14,20,2
41,65,2,38,54,5,33,6,60,-5
41,49,10,32,54,5,42,16,92,-8
-18,-13,12,0,-18,-10,1,11,-30,2
-11,2,10,-2,-7,0,4,-13,-26,5
-12,1,20,1,-3,11,-24,-36,-45,9
-18,-18,2,0,-19,6,-36,-35,-64,7
-8,-17,-1,-7,-12,2,-20,-23,9,1
-8,-10,31,-7,4,21,-4,-3,159,-3
-5,4,40,-6,14,17,-9,9,266,0
3,11,-4,3,8,-4,11,15,39,-21
-9,0,-29,-3,-4,-3,16,32,-122,-15
2,-3,-11,18,3,13,12,43,-43,-1
-12,-10,8,5,-2,15,29,30,14,13
3,0,30,-1,-5,12,72,31,267,51
10,3,-1,5,-2,-2,87,27,235,56
-9,-22,-46,-9,-37,-13,-10,-3,-173,1
-5,-20,-39,-10,-26,3,-45,-13,-268,-33
12,-11,-16,-1,-4,19,-12,-20,-154,-23
18,0,7,-1,11,21,-5,-32,-75,-15
14,25,23,1,13,9,-34,-49,-62,-23
9,46,42,17,17,3,-33,-54,-50,-34
-6,23,34,11,7,4,-22,-29,-18,-29
-28,-8,11,13,6,-1,-19,-10,-39,-43
-27,-19,-11,10,1,-11,-27,-2,-14,-27
-18,-18,-22,2,-4,-4,-20,-3,40,7
-9,-11,-15,16,-13,5,-25,16,88,18
-2,-13,-14,3,-27,8,-18,29,28,28
-2,-6,0,0,-2,12,0,24,16,25
14,9,9,21,46,17,47,5,130,-3
0,-13,12,4,17,6,-10,-12,76,-23
-12,-18,10,-18,-8,11,-46,10,85,-6
-3,-12,-26,-19,-24,-8,-28,16,-82,1
12,1,-13,0,-12,1,2,15,-78,10
22,17,4,5,5,2,14,20,5,15
22,12,10,0,-1,0,22,23,14,20
27,0,4,0,5,0,59,27,47,32
26,15,-5,1,7,0,97,29,159,44
7,2,-5,-20,-9,1,13,17,-34,0
-11,-8,-3,-27,-12,-3,-22,2,-131,-24
-10,-17,13,-19,0,3,-2,3,-77,-21
-11,-20,5,-9,12,17,-11,-4,-63,-17
-16,-9,-1,-4,20,12,11,-16,-37,-36
-9,-1,-2,-1,7,13,23,10,20,-28
6,12,1,7,11,5,46,9,112,8
21,13,6,23,1,-12,-7,-40,5,11
25,0,1,22,0,-10,-30,-47,-47,24
15,-10,0,1,-2,-27,-4,-9,0,23
11,-17,1,-7,-13,-34,13,-6,14,6
1,-12,-8,-18,-13,-25,-1,-13,-1,-1
-17,-15,-12,1,-13,-7,18,-18,-19,-18
-13,-6,0,31,2,10,22,-15,19,-24
-14,17,3,47,23,12,37,-1,95,1
-8,32,6,49,29,13,4,-11,18,-19
-5,41,3,16,3,12,-52,-15,-128,-43
6,28,0,-10,6,9,-26,-16,-88,1
4,0,7,-16,16,4,-5,-26,-38,18
1,-18,18,-7,16,0,-9,-36,-19,11
-4,-20,12,0,-2,-20,1,-32,1,3
0,-9,-1,0,-14,-4,23,-10,61,14
-10,0,-9,2,-9,2,13,10,47,1
-39,-13,-1,5,-5,-5,-9,5,12,-33
-53,-15,4,9,6,-13,-17,10,-9,-55
-37,-4,11,3,2,5,1,34,25,-38
-2,4,23,0,15,10,-7,31,21,-5
33,21,15,5,-1,-5,-12,25,17,25
48,31,7,5,-3,-11,-6,24,43,35
31,17,-5,-1,-11,-10,0,20,49,34
30,5,-13,-15,-10,0,-5,11,31,43
30,12,-3,-6,-5,6,-13,1,38,33
40,47,10,13,28,16,10,6,102,27
22,26,19,1,7,27,9,19,134,46
-3,0,35,-7,-9,26,7,12,185,44
4,1,27,0,4,22,6,-8,106,31
8,11,-16,3,1,8,25,-9,22,37
-20,-4,-35,-18,-12,-2,23,1,19,10
-33,-21,-7,-13,-10,3,-49,-6,-14,-53
-31,-11,-23,8,-9,6,-56,-21,-237,-72
-23,-8,-25,5,-4,1,-19,-27,-233,-65
-16,-13,-25,-7,3,0,-20,-7,-103,-19
0,-20,-20,-17,-21,4,-4,5,-46,35
2,-11,-7,-9,-13,8,21,1,16,37
-4,-6,-1,-1,-5,-10,42,1,16,6
0,-21,-4,-20,-15,-19,39,12,-40,-8
0,-37,-16,-31,-20,-6,27,23,-39,4
-2,-25,-10,-11,0,-5,13,19,14,16
19,-6,-10,16,21,-5,7,1,36,8
31,13,-3,18,54,11,7,-10,54,-8
38,43,15,34,88,23,14,-26,106,-12
9,22,34,14,15,8,18,-38,82,10
-7,-13,14,-4,-29,2,-39,-30,-69,7
-28,-45,-2,-39,-57,-10,-53,-15,-155,-6
-35,-51,0,-49,-70,-30,-48,-3,-133,-24
-24,-25,-4,-14,-41,-23,-32,14,-55,-27
-23,-14,-2,-11,-24,-17,-19,21,-38,-20
-22,-6,-8,-11,-7,-15,9,12,-14,-2
-12,16,-7,1,14,0,43,8,62,9
17,43,0,21,36,4,68,0,131,27
35,32,-5,18,24,-4,-19,-8,-12,3
4,-6,5,1,8,-10,-51,-4,-13,-22
-14,-9,41,-10,21,2,-16,-11,119,-33
-7,-3,4,18,3,-13,-8,-13,-69,-36
-11,1,-13,14,-6,-14,13,6,-132,-18
6,3,-8,-1,-10,-10,12,14,-74,5
1,15,-10,-15,-8,-7,2,9,-46,19
-14,-7,2,-8,4,-7,-5,-6,-72,7
-15,-13,6,-5,18,-2,-12,-24,-69,-3
-5,-6,9,-7,6,-8,11,-22,-39,2
1,1,5,0,0,-6,2,1,-3,9
15,4,0,4,-9,0,0,6,15,18
19,7,8,7,0,12,15,15,32,17
15,12,-5,18,7,7,32,41,98,33
18,21,-7,35,4,5,53,54,178,51
25,13,3,30,22,1,21,26,62,12
9,-1,6,14,8,7,-39,1,-110,-42
-21,-19,-9,-7,-16,16,-35,-5,-128,-59
-2,-10,-13,-37,-11,6,-10,-7,-58,-31
50,22,-15,-19,39,0,9,8,62,-3
45,7,6,-6,3,-9,-14,18,49,29
14,4,19,-10,-24,-16,-17,0,-2,38
-1,1,0,-6,-9,5,-10,-3,-20,0
-8,-11,-10,2,-7,4,-17,6,-9,-30
-12,1,-7,15,6,5,5,27,4,-28
1,6,11,10,7,1,8,45,113,-14
-14,4,35,-23,0,20,9,45,251,9
-19,-6,18,-14,-3,10,22,16,139,19
-10,-1,2,-5,2,-5,20,-21,12,13
-1,9,-7,-1,0,-14,10,-32,-57,-3
13,16,-39,11,29,-17,8,-26,-171,-16
11,23,-38,33,37,-15,-8,-14,-62,-11
-2,7,-21,21,0,-12,-13,-20,-27,-1
-26,8,-5,3,-14,-19,-25,-14,-39,-10
-1,45,21,19,17,-2,-1,-17,4,-12
0,28,31,26,16,-1,-6,-23,14,1
-31,-23,6,-29,-50,-11,14,-11,52,36
3,-5,-10,-40,-12,-1,39,-5,105,31
29,-2,-18,-27,13,13,-20,-6,-36,-16
3,-49,-27,-23,-29,14,-35,0,-154,-10
-32,-81,-1,-35,-83,-2,-50,0,-186,-13
-17,-52,18,-14,-48,0,-35,0,-104,-2
4,-27,38,-12,-2,16,-11,20,91,18
2,-15,8,-24,0,2,40,24,3,10
-3,-16,-6,-8,-8,-2,39,19,-133,-10
-8,-19,-8,6,-3,3,3,-6,-145,-30
-12,-8,10,15,12,5,1,-16,-91,-21
3,7,31,20,22,-7,-16,-22,-53,-15
9,14,32,27,30,-10,-16,-27,-42,-38
8,8,-5,10,16,-8,-12,6,15,-12
10,17,-15,-7,17,0,16,34,128,17
16,19,-11,0,13,6,41,19,139,36
-8,-10,-28,-13,-14,-9,-26,-20,-111,15
-20,-6,-27,-11,-13,-8,-21,-20,-119,13
-24,1,7,-10,1,6,-12,5,73,9
-27,4,8,0,21,3,-5,23,145,-16
-26,-24,-34,2,-2,-10,-10,12,-106,-32
-9,-28,-30,-10,-1,0,-1,10,-93,-16
13,-4,-23,-21,-10,-6,4,23,31,27
22,3,-15,-17,-4,-2,6,23,91,46
25,20,-13,10,35,1,-12,2,34,-13
29,30,11,42,58,-13,-22,-18,39,-40
19,32,17,29,62,-16,-17,-23,26,-49
6,8,0,-16,4,-34,-23,-20,-20,-28
12,-6,-16,-24,-50,-32,-10,-4,-40,6
32,6,-15,-1,-26,-18,0,7,14,21
32,6,-3,3,3,-6,8,-3,22,10
6,-10,12,9,6,-16,-17,-10,-26,2
-10,-16,8,-3,-3,-12,-10,4,-45,11
10,5,-5,-3,45,-2,11,26,41,1
-1,-3,-19,-25,3,-5,23,42,34,-7
-21,-19,-2,-26,-23,11,32,43,-2,4
-29,-19,6,-4,-26,34,13,23,-16,20
-10,-1,9,8,0,24,29,1,78,41
3,25,16,25,24,29,55,2,200,56
-27,1,11,-2,-24,24,-23,-18,-42,-7
-58,-32,20,-30,-70,11,-95,-45,-281,-55
-42,-18,29,-8,-37,-3,-73,-60,-244,-66
-15,-4,34,5,4,7,-42,-35,11,-49
0,11,21,19,32,12,5,-1,166,-17
0,13,-27,7,5,-11,18,9,-45,-10
26,16,-31,-5,2,-14,14,5,-45,18
25,21,-5,-10,-4,-7,-7,-6,-28,37
9,2,11,-10,-8,4,-9,-9,51,27
25,2,21,-1,27,17,7,1,170,5
33,11,-22,16,31,0,1,8,-20,10
-25,-31,-33,-8,-31,-8,-16,14,-162,-2
-26,-32,-28,-14,-37,-15,-19,12,-93,-11
-5,-17,-12,-5,-30,-14,5,1,-9,7
7,-14,0,-6,-31,-1,-21,-18,-34,6
1,-9,-4,-14,-23,4,-27,-6,-39,-5
1,4,-1,-14,-10,6,-7,0,4,-15
-4,6,-8,-10,-7,15,-6,-2,16,-3
-10,5,-10,-9,-4,16,1,8,25,7
-9,-1,-3,-12,-12,11,9,4,20,5
3,10,7,3,9,-1,14,-19,69,12
35,50,1,39,66,-5,97,-10,285,49
43,49,-6,31,63,0,59,-9,238,50
6,0,-18,1,11,-5,-39,-5,-18,9
-35,-45,5,-35,-50,-16,-59,17,-37,13
-29,-37,22,-27,-44,3,-28,39,23,21
14,12,-10,16,26,-3,16,39,-86,5
21,16,-4,14,33,-7,17,49,-56,19
21,-2,2,-1,0,-6,31,44,6,58
9,-17,0,-21,-27,-2,-6,24,-38,45
16,0,-8,-5,-1,-1,-17,-3,-52,13
7,4,-9,5,18,4,-19,-22,-44,-6
-9,4,28,13,17,9,-14,-32,21,-23
-21,-22,39,-11,-15,5,-11,-2,106,-12
-13,-17,-10,-5,-16,-2,3,10,-58,-12
-60,-30,-22,-20,-29,-12,-12,-28,-136,-49
-43,-2,-2,-11,-9,-2,-10,-43,-48,-44
-8,4,15,-10,-13,-5,-43,-24,-114,-30
8,0,8,-5,-15,-3,-18,-15,-100,7
9,8,18,2,0,-1,-2,-18,-71,11
1,9,19,11,5,4,0,-17,-42,6
-1,0,23,15,6,5,-1,-18,-15,-4
6,-10,13,-4,8,2,7,-5,21,1
16,2,-9,-5,-12,0,25,12,106,20
16,15,-11,0,-3,-13,36,18,118,8
16,-9,-11,2,11,-3,-18,3,-6,-33
-9,-33,-9,-3,-9,8,-26,8,-39,-25
-14,-17,0,-1,-10,1,-16,22,-8,0
-1,14,0,1,-2,2,-12,22,6,7
7,28,-1,1,4,7,-12,16,4,14
7,13,0,-3,2,4,9,3,20,13
6,16,5,4,-6,3,7,-18,62,11
24,28,9,10,21,6,0,-17,107,12
19,35,2,16,37,8,-5,-21,79,11
-12,-4,25,7,-1,6,-8,-25,122,14
0,7,-7,4,6,-11,1,-27,4,3
24,34,-42,3,37,-9,33,-24,-24,-12
0,4,-38,-23,-2,-1,4,-7,-36,-6
-30,-18,-11,-48,-49,-9,17,-4,-14,9
-21,2,7,-20,-12,0,29,3,89,14
10,28,19,17,46,27,-9,22,62,-38
20,40,34,45,78,39,-30,38,-4,-59
-3,17,39,23,50,21,-26,23,-40,-47
-34,-47,47,-16,-26,9,-32,5,10,-17
-27,-42,11,3,-18,2,5,4,-78,-5
8,-5,-30,32,23,-3,32,-4,-77,-9
8,-5,-18,18,6,8,55,8,18,6
-12,-22,-1,0,-19,5,8,-5,-93,-18
-38,-24,21,-17,-62,-16,-34,-27,-164,-5
-37,-38,14,-23,-83,-16,-42,-26,-147,0
-12,-28,-9,-7,-50,-8,-17,-5,-52,-1
-12,-14,-21,-1,-38,-7,-7,2,-2,4
3,-4,-11,-4,-24,7,6,5,44,0
25,3,-4,3,6,4,17,1,127,18
27,-8,-7,-7,3,-9,-7,-5,41,23
17,-5,0,-7,-1,-1,-25,-16,51,22
16,7,11,2,8,11,1,-13,116,13
3,1,-26,-5,-21,-18,3,0,-99,8
1,10,-14,-7,-20,-31,21,13,-71,4
4,20,-5,0,-5,-9,15,17,-25,-15
-13,20,-3,18,18,0,40,14,25,-54
-21,4,8,23,46,20,113,-2,144,-45
-17,-11,16,11,38,26,53,-10,5,-46
8,-7,10,15,31,10,-6,-33,-86,-33
11,-11,0,3,4,-6,-16,-44,-82,4
2,-27,-22,-8,-17,-19,-12,-13,-29,28
17,-14,-10,0,-11,-15,-3,0,93,34
29,22,18,11,26,13,7,8,254,36
40,43,-22,43,39,-1,46,6,132,28
-3,16,-24,31,-6,-6,5,-14,-135,-15
-17,-6,0,17,-18,-10,-24,-20,-201,-36
-3,0,5,16,-11,-3,2,-7,-113,-23
1,-1,3,3,-18,8,16,11,-64,-9
-5,3,3,-3,-8,1,17,14,-38,-6
-6,2,8,3,-3,0,23,33,-11,8
10,-1,-7,17,-5,-2,31,47,41,22
11,1,-20,12,-4,-9,21,30,43,23
8,10,-18,3,-2,-11,0,-4,-2,11
14,13,1,-2,-11,-10,-30,-33,0,28
8,7,20,-3,-17,-1,-40,-33,13,19
11,10,18,-6,-12,1,-38,-23,40,4
11,7,8,-3,0,5,-16,2,67,11
12,7,13,-11,7,27,-4,30,75,12
11,8,0,0,24,34,11,37,55,11
-7,4,7,14,39,25,-4,25,4,-24
3,40,7,29,85,26,31,23,73,-54
-1,36,4,10,50,14,31,15,89,-28
12,23,14,0,47,5,19,-1,79,-4
-19,-15,47,-39,-20,2,10,-8,108,17
-28,-30,15,-43,-51,-11,12,-11,-65,19
-16,-8,-8,-19,-32,-19,21,-21,-110,25
22,17,7,18,18,-11,63,-11,132,43
51,44,7,44,77,2,42,-17,160,19
10,9,-2,14,46,4,-35,-50,-44,-30
-30,-48,-12,-28,-31,0,-48,-35,-88,-15
-39,-56,8,-40,-65,11,-41,-3,55,8
-24,-42,-25,-32,-45,1,-17,8,-6,13
-6,-25,-45,-16,-17,-21,-8,10,-103,4
2,5,-29,12,19,-12,48,17,87,21
-30,-11,-14,-3,-22,2,21,5,4,3
-31,-7,-7,-11,-13,-14,-66,-11,-122,-24
-16,15,3,9,15,-22,-61,-17,-84,-26
-8,19,13,15,14,-16,-31,-13,-47,-31
-6,11,-4,-1,-2,-16,-8,-10,-12,-11
3,7,-19,-1,-17,-15,12,3,23,19
9,8,-5,4,-19,-6,14,9,89,46
-9,8,0,12,-2,0,32,9,115,24
-22,-3,1,15,2,5,4,20,16,-18
-3,8,11,29,39,24,10,34,56,4
23,33,19,29,50,28,27,24,66,-4
7,14,23,-5,-3,17,16,25,-37,1
14,18,38,4,11,20,-18,9,-35,-1
35,43,28,21,52,24,15,-4,32,-18
25,28,10,9,41,35,40,14,163,-8
-33,-23,16,-12,-14,15,-19,11,131,-9
-16,-12,-2,0,-21,-10,-25,0,-9,4
18,-3,-6,6,-7,-14,-19,-8,-61,20
12,-1,-12,2,-3,-4,-4,-7,-97,15
6,0,9,-9,16,7,4,1,38,9
-4,1,-25,-8,1,-13,8,5,-63,4
0,-3,-38,-16,-8,-24,33,5,-77,20
15,8,-8,-7,6,-7,62,8,84,31
6,10,17,-5,2,0,-12,-1,-67,-22
7,16,15,4,13,7,-29,-4,-83,-21
13,8,0,11,-7,1,-6,-3,-20,3
-4,-9,-20,27,-18,-4,-7,-6,-19,14
-11,-5,-34,28,-12,1,-4,0,-20,-3
2,3,-21,12,1,1,32,2,15,-2
3,10,-16,4,0,-4,77,11,118,11
-19,-1,-5,-9,-5,3,9,-7,7,-27
-8,-5,2,-14,-9,0,-7,-13,-29,-42
1,3,4,-1,10,3,14,-5,15,-39
-14,-2,-2,20,8,13,11,4,19,-38
-10,3,0,10,10,13,14,0,21,-13
7,17,0,1,20,14,15,-12,23,3
11,16,13,6,12,13,7,-13,24,14
28,25,27,10,20,8,4,-5,31,8
21,19,13,15,20,-5,-2,-11,1,8
23,12,-1,14,19,0,-1,-11,75,6
6,-9,5,-20,4,10,9,-1,147,3
0,-12,-9,-23,-15,-21,3,-6,15,-2
-15,-15,-30,-17,-28,-24,-6,-2,-148,-14
-25,-6,-12,-9,-9,-5,11,13,-76,-15
-16,5,-11,-5,-3,4,42,46,70,14
-6,-4,-3,-10,-16,6,1,39,17,19
-13,-13,14,-4,-11,19,-32,21,-96,5
-4,-3,37,5,-5,12,-27,-2,-72,9
6,-4,26,4,-1,13,0,-11,-52,0
3,-10,-3,-6,-3,10,9,-18,-20,-10
-3,-11,-1,-2,4,0,-9,-30,-1,-9
35,33,25,39,81,0,37,-22,159,28
65,44,38,67,91,-6,30,0,207,45
18,3,29,16,16,-10,-51,4,-6,27
-18,-27,14,-17,-47,0,-47,9,-85,-1
-19,-27,0,-9,-36,1,-22,25,-93,-29
-26,-51,-6,-16,-38,-11,8,19,-107,-45
-27,-43,-7,-13,-40,-5,-1,1,-77,-26
-18,-14,0,-10,-14,4,6,-1,37,-32
-4,23,7,2,19,18,59,0,289,0
-1,18,-26,-7,7,3,7,-24,-27,-4
9,7,-30,-6,-19,-9,-66,-44,-231,-10
-7,-6,-20,9,-13,-8,-46,-15,-121,4
-36,-16,-5,7,-17,1,-3,17,-38,-13
-38,-20,0,7,-4,17,9,39,5,-15
-10,-1,-4,-11,9,19,0,30,9,0
17,37,0,-4,14,17,23,10,67,47
26,21,3,4,25,7,5,9,65,45
45,19,11,5,37,0,-30,-6,-3,10
23,-9,16,-6,-3,-28,-21,-16,-66,-1
6,-18,3,-6,-29,-25,-14,-2,-61,-8
32,6,-8,13,16,0,15,26,59,2
9,0,-5,-3,4,-4,0,26,51,-2
-9,-6,-4,-15,-12,-9,1,23,69,-10
10,8,6,-3,-3,-6,12,41,82,8
40,17,26,7,4,12,-24,29,55,13
9,-11,-6,-6,-20,-5,-17,-2,-86,10
-11,-2,-14,-5,-17,-5,-15,-13,-108,-6
-10,7,-1,-1,-18,-1,-4,-16,-64,-1
2,12,8,-3,-20,-4,4,-15,9,11
0,10,13,-15,-3,-3,6,-31,6,12
-7,11,3,-14,-2,-7,47,-20,78,40
-11,15,-15,2,4,0,69,-6,130,33
-24,-4,2,14,-1,10,-30,-31,-79,-22
-18,-3,15,22,10,11,-49,-35,-107,-28
2,-4,2,0,5,14,-19,-17,-25,-6
0,13,-8,-7,8,4,4,0,11,-4
-13,6,-21,-21,-2,-6,-6,8,-7,1
-16,11,-3,-11,-5,11,20,22,54,19
-13,4,10,1,2,17,42,16,88,36
-7,1,9,-8,-14,8,-14,6,-21,28
-24,-12,-3,-20,-17,5,-14,19,-87,7
-16,-11,-8,-4,-5,6,-12,18,-64,2
-12,-7,-4,14,10,12,0,4,-13,5
-4,1,0,16,-2,11,20,0,40,23
12,0,2,-3,-20,-4,3,9,57,34
16,10,6,6,-24,-15,11,11,59,16
12,17,1,21,-2,-19,19,9,28,-13
15,19,4,8,11,-16,7,0,7,-38
1,6,0,-14,1,-7,7,-28,-14,-14
-21,-13,-18,-25,-3,8,15,-28,-13,6
-23,-19,-12,-21,6,22,14,-3,2,-2
-18,-16,-1,-3,6,26,23,20,25,-8
-3,-8,-3,15,7,16,44,16,61,-4
14,24,-8,34,62,16,83,9,204,9
32,47,-3,37,85,8,24,-14,92,-30
-6,6,-3,11,7,-3,-53,-32,-116,-54
-42,-28,-8,-4,-51,-7,-48,-24,-142,-28
-25,-25,7,1,-46,-5,-28,-7,-117,-13
-13,-17,6,7,-33,-8,-7,-9,-102,-12
-9,-6,8,1,-22,-24,-7,-11,-46,-8
2,-1,-2,-8,-13,-32,30,2,82,30
-6,3,-24,-31,-10,-21,21,-10,56,26
-1,7,-10,-13,-4,-11,-27,-15,-27,-3
3,7,2,19,-9,-6,-25,-19,-25,-13
12,1,1,18,-6,-6,-14,-17,-24,-8
23,-5,10,4,0,-8,-17,-1,-10,-20
31,-2,7,-16,4,-3,-3,20,29,-28
32,13,11,-18,30,4,-9,21,77,-28
69,62,15,18,81,15,49,32,249,11
49,41,9,18,39,8,5,23,80,15
2,-25,11,-18,-42,-11,-48,31,-119,8
-28,-74,-5,-35,-100,-19,-40,41,-189,24
-14,-54,0,-22,-54,-6,-24,29,-123,15
-1,-25,8,-6,-2,-5,-6,8,-41,0
39,21,6,45,72,3,7,-9,128,5
42,36,-6,47,75,16,28,-13,225,13
7,4,-4,22,25,7,-1,-34,53,-8
-33,-27,8,-2,-25,-11,-59,-55,-131,-35
-6,-7,-3,15,0,-14,-49,-42,-92,-33
16,3,-7,15,21,-6,-31,-10,-40,1
-9,-26,-11,-15,-19,-7,-18,10,-54,9
-43,-72,-11,-49,-89,-10,-34,19,-131,0
-34,-54,-6,-47,-71,-8,-30,24,-87,9
-22,-13,2,-34,-30,1,-4,18,-14,11
-6,11,0,-17,-4,1,-7,6,-38,-1
20,23,-5,-2,25,0,1,9,-4,-20
45,50,-21,17,56,-3,28,16,86,-2
33,47,-13,9,60,-15,8,8,94,20
7,15,10,2,25,-1,9,8,62,21
-22,-22,29,-21,-34,-10,11,17,-34,37
7,-5,31,0,-6,-5,4,23,-42,36
10,-1,22,1,7,-14,22,19,-51,5
-37,-63,0,-43,-60,-22,-5,-9,-191,5
-39,-59,-1,-33,-49,-1,-15,-23,-184,0
-22,-33,1,-24,-16,13,-22,-27,-98,-10
-8,-18,-16,-15,-2,0,-16,-13,-36,3
5,-3,-16,-8,4,-5,-6,-15,12,20
9,1,-14,0,1,-5,-4,-34,35,40
3,15,-9,17,5,-7,39,-33,121,50
-6,4,-11,14,7,5,5,-31,41,6
-20,-7,-5,8,7,0,-47,-40,-109,-49
1,3,1,9,18,-15,-33,-26,-92,-41
35,15,-5,2,25,-19,11,0,-1,9
22,6,-6,-14,2,-4,-2,0,-7,28
2,2,-2,0,-2,4,8,-17,-41,-9
-1,0,4,4,4,10,35,-12,-1,-23
-1,-16,-1,-12,-6,16,14,-3,5,-24
-16,-14,0,-9,-19,6,6,-6,-5,-33
-28,-9,4,0,-17,-3,-4,-13,3,-36
-33,-10,6,-2,-3,-11,-21,0,8,-51
-37,-23,-1,-12,0,-8,-11,35,30,-56
-6,4,5,0,-3,-3,-9,32,27,-34
21,27,8,12,-13,-3,0,14,50,2
26,20,-5,19,-7,0,29,9,156,42
18,-4,-9,-5,-15,-1,-27,-7,1,6
-3,-15,-1,-18,-22,-19,-50,-5,-106,-10
-5,-9,-4,-11,-17,-22,-36,-6,-67,-1
-4,-4,3,-4,-5,-8,-12,-7,-31,-7
2,0,17,14,11,4,-10,-10,-3,-11
25,15,11,17,16,0,-7,-16,5,-10
62,44,-6,44,45,5,32,9,140,10
51,29,-7,35,52,1,-4,24,87,2
9,-12,-10,-11,-7,-13,-29,15,-57,-11
8,5,-16,-17,0,1,12,32,-22,0
9,15,-14,-3,21,13,44,48,41,6
7,13,4,-5,15,19,30,32,33,9
-2,17,18,-1,18,23,9,14,-6,12
-7,28,3,8,18,12,38,8,75,21
0,25,-5,7,20,4,84,9,193,36
-33,-35,-4,-31,-51,-9,-17,-1,-75,-10
-54,-65,-12,-73,-86,-14,-56,-16,-227,-25
-23,-30,-13,-50,-40,2,-35,-16,-135,-13
-2,-7,-2,-17,-22,0,-23,-17,-65,-3
-1,-4,2,-3,-11,-10,-5,-23,-33,-1
0,1,5,7,0,-11,19,-18,-5,4
16,23,9,16,16,4,47,18,99,20
42,37,2,32,50,10,26,45,106,-6
54,58,-9,47,82,22,40,49,121,-15
22,24,-6,34,63,24,41,30,69,-5
-8,-19,-3,38,13,18,10,1,-36,0
-46,-53,3,-3,-43,10,7,-27,-148,9
-27,-43,-13,-7,-30,14,-7,-48,-116,14
-6,-15,-22,0,-24,15,8,-36,-29,28
-1,13,-20,18,-4,-11,16,-14,56,16
-16,11,-2,23,22,-8,-19,-11,52,-22
0,29,0,39,85,10,10,-2,118,-45
22,41,1,44,81,3,-1,-17,117,-25
8,35,3,26,22,0,-27,-35,29,-20
-17,15,-4,6,0,-7,-34,-24,-29,-19
-45,-28,-9,-23,-36,-16,-26,-6,-36,-3
-44,-44,-5,-41,-58,-15,11,11,31,32
-26,-27,2,-44,-57,0,22,-3,25,30
-3,12,1,-24,-7,11,1,-20,-16,-35
6,28,1,3,20,0,-15,-11,16,-51
-5,19,4,-4,6,2,3,15,59,-21
-5,5,-6,-21,-7,11,34,48,96,14
17,14,0,0,10,7,33,67,99,23
-5,-1,29,-5,-30,2,16,34,-19,19
-19,-8,31,1,-53,1,10,-9,-92,0
-25,-10,19,19,-26,2,-25,-31,-196,-44
12,21,2,37,21,-6,0,-11,-71,-48
-5,2,2,15,3,-14,-2,-13,-52,-21
-20,-29,-3,0,-12,-7,-2,-25,-61,25
20,-6,-6,-11,-1,1,10,-31,14,44
47,12,4,3,14,-10,-11,-50,50,44
26,-4,5,-3,0,-11,3,-38,60,39
0,-14,-7,-17,-11,-8,1,2,17,14
-17,-6,0,-13,-9,10,2,21,13,-12
-17,9,7,1,-8,8,25,20,38,-7
-3,0,6,-7,-4,3,20,6,42,2
0,6,6,-3,9,9,4,-7,11,-17
-2,27,19,13,16,14,11,-13,11,-32
-1,26,13,20,30,3,29,2,81,-14
12,23,6,30,32,-1,40,16,171,28
2,0,-2,14,7,1,-22,5,-6,-5
-1,-8,-10,0,1,0,-33,-7,-43,-2
-13,-18,-13,-14,-4,-16,-18,-13,-46,4
1,-9,-2,-22,4,-16,11,3,-18,24
10,-7,-7,-15,-6,9,7,11,12,34
4,1,-8,-8,9,18,22,15,58,35
14,15,-4,1,29,8,56,36,175,50
-8,-12,11,-7,-12,-1,-25,17,-1,12
0,-5,12,18,-8,-2,-64,0,-58,4
9,17,11,40,1,-6,-51,-13,-42,9
25,8,0,26,-5,-9,-22,-8,-15,21
20,2,5,-4,-17,-14,-13,5,16,29
10,9,13,-12,-7,-1,1,25,22,16
6,20,12,-9,-1,-4,27,28,61,20
0,7,9,-2,12,0,51,28,139,31
-1,-9,-4,-5,10,-1,-23,8,-43,-17
14,7,8,11,46,-1,-32,-1,-50,-12
38,27,9,41,69,13,9,8,65,13
25,8,7,22,27,11,27,14,66,2
-31,-32,15,-19,-58,0,-27,-17,-106,-42
-44,-26,29,-8,-50,-1,-35,-46,-135,-53
-16,-4,23,2,-4,-10,0,-34,9,-20
-4,-6,3,-14,-6,1,-20,-5,-34,-27
-18,-9,-14,-12,-14,11,-13,12,-33,-33
-28,-13,-5,-15,-12,22,13,29,0,-22
-6,-5,-13,-13,4,20,21,22,7,0
5,-8,-20,-10,-8,7,9,7,-6,-4
6,-7,-10,-10,3,2,18,4,15,-11
16,7,-4,-15,12,8,48,15,85,15
1,-4,-9,-19,-6,0,43,20,46,17
-1,-3,-16,1,-9,2,7,10,-38,0
-3,-1,10,18,3,-2,0,0,-30,-7
-11,-3,14,24,9,-6,0,-4,-5,-12
-5,-6,1,10,1,-2,-3,-9,12,0
8,3,-1,7,-3,-1,10,-24,14,11
12,13,-4,13,-10,-2,14,-40,9,19
12,11,-13,0,-10,-7,-13,-49,-5,21
8,3,-12,-16,-13,-10,-21,-48,-4,23
0,7,-7,-17,-6,-4,-30,-30,-2,4
-12,-14,-19,-12,-2,-7,-17,-27,8,0
-5,-14,-25,-8,1,-6,-6,-25,24,2
-21,-12,-22,-24,-26,-2,0,-4,11,17
-44,-11,-29,-23,-28,-9,15,18,25,14
-38,4,-14,3,0,4,30,33,107,0
-13,31,8,22,47,22,53,36,196,4
4,44,17,28,60,27,27,32,65,-27
-1,10,10,4,1,12,-33,10,-171,-52
-4,-31,0,-6,-42,7,-38,2,-194,-15
30,-21,0,-9,-24,2,-9,7,-99,13
36,6,17,8,0,-3,-39,-15,-64,4
24,5,18,16,19,2,-61,-24,-47,-15
28,9,18,22,27,8,-29,2,35,-6
-13,-18,11,-1,-10,-4,-34,19,-47,-4
-16,-22,-21,-18,-22,-16,-21,29,-37,17
-4,-15,-29,-15,-25,-14,-12,30,-16,7
-7,-16,-15,-7,-17,3,3,31,-28,-1
5,1,-4,-4,-10,3,18,14,-45,4
16,15,14,8,-3,-8,10,14,-42,15
14,4,15,9,10,-5,40,23,50,39
-2,-3,-1,10,6,-17,53,13,128,27
-23,-27,-5,-2,-3,-14,-34,-2,-53,-25
-13,-22,2,-1,3,-2,-33,-4,-82,-26
21,0,-12,10,36,10,-1,-7,14,-9
5,-5,-9,-2,17,0,10,0,8,-5
-40,-24,8,-28,-13,-13,0,-8,-75,-11
-27,5,14,-9,9,1,-2,-7,-26,-16
6,44,12,-5,0,-1,37,15,107,10
10,37,14,-13,5,-19,-7,20,5,0
4,4,-2,-9,8,0,-8,8,-44,5
-6,-14,-4,-10,14,11,11,0,-29,11
-15,-8,-9,2,17,-1,0,0,-14,5
-11,-17,-7,-1,-12,-14,-7,-12,-36,16
6,-18,6,-4,-6,-11,-7,-16,-37,22
17,-21,-2,0,0,2,34,0,53,19
14,0,-4,-2,-6,7,45,-6,99,16
15,0,13,11,-18,-4,-64,-45,-116,-25
27,-6,23,14,2,-9,-56,-38,-126,-24
29,1,26,13,-4,-10,-38,-2,-36,0
23,8,18,6,-10,-6,-22,17,42,10
25,-3,11,-1,1,-2,-13,13,50,10
36,23,-4,1,45,6,25,31,107,17
35,33,-23,-3,56,1,54,41,200,20
12,4,-16,-25,15,2,-16,21,24,10
-29,-29,-5,-44,-51,-1,-54,2,-126,10
-28,-5,0,-27,-28,4,-34,-12,-92,-9
0,35,3,16,31,12,-18,-25,16,-38
-35,9,1,4,-4,6,-22,-32,-41,-55
-53,-20,12,-5,-29,-13,-35,-23,-81,-45
-43,-28,3,3,-26,-13,-18,-16,-48,-25
-10,-12,-19,4,8,-1,-15,-12,6,-33
14,-4,-34,1,11,22,2,2,65,-1
7,-23,-24,0,-5,16,-3,0,41,22
1,-31,-14,-6,-23,0,-21,-9,-40,28
13,-19,-11,1,-8,-13,-39,-3,-28,25
30,2,-10,7,13,-6,-31,1,-5,13
17,-5,-12,-3,-5,-13,1,32,9,18
-4,-19,-8,-17,-36,-18,44,51,48,32
-2,-11,-1,-13,-29,-8,-3,35,-49,10
6,17,5,2,-7,-5,-21,1,-89,-5
16,35,-1,21,13,-1,2,-4,0,3
-2,13,-4,30,-3,7,28,-11,6,-3
-26,4,-9,26,6,17,26,-26,-23,-5
-46,0,7,14,-8,17,1,-40,-80,-5
-33,-11,10,1,-28,0,14,-39,-36,16
21,37,12,14,32,0,-3,-39,29,4
11,14,9,8,16,6,-23,-29,-58,-6
-46,-37,5,-52,-62,-5,-13,5,-142,-4
-37,-34,-6,-44,-54,0,5,3,-98,-8
-16,-15,-5,-8,-10,-1,5,-19,-59,-17
-1,0,8,5,-1,3,20,-33,-33,-29
8,31,1,6,30,-1,38,10,68,-22
46,61,-15,37,77,5,59,40,209,-1
33,25,-26,21,21,-3,49,31,121,6
-26,-35,-11,-17,-61,-18,8,9,-54,31
-27,-51,-14,-11,-56,-17,-12,-2,-93,18
5,-17,-3,11,5,-6,32,0,-37,-1
51,23,11,29,86,-6,51,-6,80,-23
31,0,16,12,86,1,25,-19,83,-33
19,-4,4,6,52,-3,51,-4,149,3
12,0,-1,5,21,0,54,15,159,36
-4,-8,5,-14,-2,-2,-28,2,-80,-11
-32,-21,9,-26,-61,-6,-46,1,-201,-21
-36,-19,13,-15,-55,1,-55,14,-166,-15
-14,-10,12,-12,-14,14,-46,12,-97,-9
18,4,-2,-7,11,17,-26,24,1,3
48,50,-7,13,52,24,28,26,167,-2
34,47,1,18,54,18,58,22,200,-1
6,16,12,17,29,0,-24,6,3,-25
-3,-2,10,4,-10,1,-30,-14,-54,-25
-38,-40,-9,-41,-88,-1,-29,-8,-123,2
-36,-34,-9,-42,-102,-19,-23,0,-128,22
-29,-26,-5,-13,-46,-11,-19,-5,-68,22
-16,-18,-2,-2,-2,-9,-6,-4,-8,27
1,5,1,5,17,3,16,19,97,49
-11,-2,5,10,14,12,-12,16,26,14
-11,-14,19,4,14,4,-44,7,-50,-6
-5,-5,18,7,9,3,-34,-2,-12,-12
-5,-8,12,14,2,6,-6,-4,15,-10
9,-5,1,0,0,-1,-1,-13,20,3
16,3,-1,1,0,-3,-14,-20,8,3
20,6,6,16,11,-7,-9,-23,37,16
21,11,8,26,29,-8,19,-22,108,32
15,11,10,16,11,-9,-12,-25,18,-4
9,18,10,9,-3,0,-14,-8,-7,-5
-6,-3,-3,-6,-7,-12,14,12,-21,9
-7,-18,-7,-5,-13,-21,1,21,-25,0
-14,-16,-4,-3,0,-18,14,36,4,-14
1,3,13,-4,18,-18,4,35,14,-16
47,49,17,15,58,-11,23,33,88,-2
58,47,22,19,62,-1,30,7,106,2
21,16,5,-2,21,-10,-11,-19,18,-4
0,-15,-22,-26,-30,-12,-16,-21,-38,5
18,1,-15,-6,-3,3,7,-13,24,1
20,14,-13,3,11,2,24,-7,41,0
-16,-3,-9,-12,-15,-6,9,11,-9,7
-30,-6,-7,-15,-32,-1,31,29,24,6
3,7,-5,6,10,20,69,49,177,12
8,0,0,0,11,16,6,31,9,-26
-2,3,2,5,2,11,-30,15,-100,-43
-39,-21,12,-13,-36,14,-34,-1,-148,-28
-53,-42,22,-30,-61,8,-37,-7,-147,-8
-20,-24,9,-15,-39,7,-28,-17,-84,3
10,-5,-1,-13,-24,11,-9,-29,-26,14
41,24,-8,16,14,0,34,-19,128,30
74,70,-22,39,68,-4,12,-12,157,2
53,54,-16,12,41,-8,-20,-14,49,-11
6,17,-19,-20,-21,-7,-41,-7,-28,-5
-9,-12,-11,-29,-43,-6,-33,0,-52,-18
10,0,0,9,-1,10,-19,-3,14,-21
5,-2,-5,24,11,7,-27,-17,14,-4
-16,-13,-19,2,7,7,-6,-18,11,11
-38,-27,-17,-9,-14,11,-6,-16,-31,4
-25,2,-14,11,13,17,5,-3,-18,-8
-5,17,0,9,17,13,34,5,15,5
-10,4,0,-1,-3,10,26,0,-31,22
-6,-11,5,-1,-3,-9,29,-6,-52,13
-12,-27,1,-5,-13,-5,14,3,-72,0
-43,-51,-8,-44,-78,-17,-5,1,-159,15
-13,-20,-3,-41,-52,-26,52,25,8,51
-2,3,-8,-34,-28,-21,32,36,44,29
41,31,-4,-13,37,-6,-21,26,2,-17
56,40,8,11,75,5,-20,17,77,-5
27,16,17,0,44,0,-13,-3,60,-4
-2,0,21,-2,-3,1,-20,-7,-17,-3
-27,-21,15,-6,-32,6,-33,-18,-77,-4
17,17,10,20,31,18,11,-12,71,2
12,11,10,24,30,3,29,-3,106,-1
-11,1,15,32,-1,-3,-27,-9,-45,-40
-44,-7,7,18,-24,4,-13,-3,-87,-30
-31,-11,-17,4,-17,12,-11,8,-67,-8
-11,-9,-9,7,2,10,-1,16,-44,6
19,10,-1,16,41,8,16,8,16,4
14,1,8,11,36,2,1,-21,9,5
-38,-30,8,-7,-21,-20,-34,-42,-86,2
-68,-38,-5,-30,-52,-32,-59,-57,-161,-2
-36,-13,0,-20,-22,-23,-43,-37,-89,-4
-5,-1,9,-16,-5,-28,-23,-20,-14,0
8,12,0,0,21,-26,0,-9,44,1
53,46,-6,33,78,-4,20,3,137,-10
44,37,-14,19,48,-6,0,5,92,-7
-19,-29,-9,-10,-33,-9,0,9,-9,0
-34,-42,-7,-26,-52,-12,21,10,30,15
-19,-35,-14,-34,-41,-8,14,-2,-15,2
-23,-30,-10,-22,-30,-7,-27,-21,-108,-26
-17,-16,1,-10,-2,4,-12,-22,-64,-25
-12,3,8,-3,6,25,2,-5,-20,-11
-9,2,-7,2,7,21,19,-1,21,-5
-6,8,-3,6,11,23,28,-2,46,-6
-1,10,3,2,11,23,32,4,55,4
4,0,0,2,20,29,10,-3,4,-3
0,13,-3,1,29,19,-2,8,-21,-7
2,15,-1,-14,36,1,10,8,-8,-11
-4,-4,12,-11,6,-11,0,-1,-23,-7
0,-6,13,4,-8,-6,2,-5,-11,0
12,3,2,-3,-5,-11,1,17,13,17
22,25,2,7,6,-1,53,32,88,40
66,54,3,31,64,19,90,25,224,52
59,59,-11,33,82,18,19,9,94,7
8,16,-15,11,21,3,-13,3,-29,0
-45,-24,-6,2,-37,-20,-9,-8,-107,0
-10,3,-4,12,4,2,6,-9,2,-5
6,-11,-5,-11,2,-5,9,-13,17,12
-9,-13,-9,-27,3,-7,-18,-22,12,10
-35,-13,-8,-12,-6,-4,14,-8,76,12
-75,-67,-9,-37,-70,-7,-22,-4,-128,-27
-56,-58,-9,-28,-71,-17,-22,4,-153,-24
-15,-24,-6,-4,-38,-5,5,22,-47,5
25,21,8,34,27,14,29,52,75,23
51,50,10,53,70,27,44,38,125,16
35,32,-7,37,33,21,20,24,72,25
18,18,-7,25,-3,1,6,17,66,49
-14,-11,17,13,-30,-5,-17,-1,-36,10
-48,-36,32,-7,-47,12,-26,-9,-171,-20
-39,-23,11,-19,-47,24,20,4,-151,-13
-15,2,2,-16,-21,18,7,4,-54,-10
-10,4,-2,-4,-6,-10,-11,1,-11,-2
20,11,0,-5,-10,-15,-29,-6,-2,11
44,21,4,-6,-14,-20,-29,-2,23,27
43,32,0,6,-7,-21,23,-11,134,53
27,12,7,4,-4,-11,-10,-24,50,39
3,-9,6,-18,-5,-26,-60,-23,-75,-19
10,-7,-9,-18,5,-3,-25,-17,-5,-33
10,-11,-15,-24,-10,0,-23,-10,-32,-32
13,-7,5,2,-11,-5,-20,-11,-35,-34
10,-5,19,14,-5,-8,-16,-14,-19,-39
-2,1,16,20,6,-4,43,-4,50,-41
6,14,18,25,21,7,60,25,77,-34
-8,-11,10,8,3,7,-7,34,-13,-23
-24,-13,0,-8,-11,-5,-1,36,3,0
-30,9,-5,-3,-3,-2,2,40,25,-3
-17,6,-16,-1,-8,3,30,56,69,30
-10,-7,-17,-23,-6,22,61,83,136,82
8,21,-17,-40,-1,23,51,68,110,80
11,30,-12,-19,10,18,42,10,49,37
-13,5,-10,2,9,21,-3,-36,-72,-41
-19,-11,0,27,29,18,-23,-33,-88,-64
-11,-8,10,46,33,7,-20,-29,-42,-48
-13,2,20,42,24,10,-15,-53,-42,-41
3,16,34,32,12,14,-20,-61,-39,-38
7,23,33,22,-3,9,-6,-53,-24,-4
8,21,14,7,3,-5,8,-22,56,33
13,2,3,-6,-3,-1,49,16,130,36
4,-9,0,-15,-4,6,0,7,-14,-3
-17,-6,2,-3,-5,-3,-19,-6,-47,-20
-15,-3,1,6,6,-3,-6,0,-10,-21
3,6,-4,3,1,-1,-14,17,24,-10
13,7,5,-3,3,0,5,17,34,-4
19,7,13,-5,9,2,6,-4,74,3
0,-10,0,-10,-1,-11,1,-15,33,0
-6,-19,-4,3,-9,-6,-17,-11,-34,-17
-3,-22,-3,-2,-5,5,-22,-16,-26,-18
0,-19,-12,-4,-5,8,-27,-27,-6,-12
0,-14,-12,-7,-9,12,-27,-16,6,-6
3,-16,-12,-8,-18,18,-5,3,13,-6
8,-27,-24,-10,-16,4,13,22,36,-7
22,-10,-24,3,-13,-1,57,48,116,16
27,12,-11,17,0,2,78,68,142,39
20,10,6,1,0,6,-3,49,-39,-13
38,38,-3,8,23,16,-3,26,-38,-11
40,44,-6,7,33,18,15,10,0,5
19,5,-4,0,-10,19,0,10,-45,12
28,10,13,16,-10,11,-7,-15,-35,12
30,26,21,22,16,-2,-15,-24,19,14
6,9,13,12,11,-8,5,-33,66,31
-25,0,-8,-3,5,3,-40,-39,-55,-7
-32,3,-7,-14,15,11,-29,-25,-45,-24
-23,-3,0,-6,-2,-14,-45,-22,-41,4
-10,-3,12,11,0,-7,-24,-22,-23,21
0,3,22,13,20,13,0,-12,42,33
0,-1,17,-7,14,15,31,6,48,20
-8,-10,7,-2,20,6,57,6,46,-6
-30,-32,4,7,-8,3,18,-5,-51,-25
-26,-25,4,5,-12,9,3,-5,-83,-19
-14,-17,-6,12,7,10,15,1,-40,-22
0,9,-8,19,34,13,13,9,37,-21
-9,-4,-1,2,-9,-4,4,21,18,0
5,2,5,6,-31,-21,-10,12,8,32
21,17,2,8,-6,-13,-3,-11,49,44
21,19,-7,-3,3,-4,58,9,177,71
9,-2,-16,-23,6,-15,4,20,44,50
32,13,-23,-1,54,-17,-32,7,12,-4
45,30,-22,14,57,-3,-13,4,73,-30
-1,-3,-3,-4,9,4,-21,10,14,-33
2,-6,9,-3,-1,6,-16,5,15,-13
-10,-11,0,-13,-12,0,-22,6,-10,2
11,25,-6,11,33,4,8,1,33,-10
11,26,1,30,28,6,-11,-6,19,-24
9,2,3,13,13,9,1,-2,-5,-11
-2,-24,0,-16,-25,-1,3,5,-40,5
-28,-34,-1,-36,-61,-24,0,0,-80,4
-29,-33,-1,-43,-64,-19,8,13,-80,11
-22,-14,-12,-24,-39,-6,3,7,-33,9
-4,-4,1,-8,-22,-2,29,3,39,23
0,10,4,-5,-14,-9,64,21,155,48
-7,24,11,2,3,5,14,0,41,1
18,52,21,28,54,15,4,-11,-3,-47
19,35,41,18,42,16,37,-4,3,-44
-4,-10,25,-11,-29,0,10,-7,-71,-21
8,3,4,-16,-29,8,-2,-18,-66,-18
10,6,-5,-13,-16,10,0,-15,-49,-31
2,7,0,4,-5,17,14,-2,52,20
-2,11,2,14,12,15,6,8,98,34
-34,-1,8,12,11,6,-40,-35,-95,-58
-41,-2,4,23,0,7,-24,-19,-66,-58
-10,0,2,14,-3,7,9,2,18,11
18,19,-2,13,19,8,4,-11,69,28
48,44,-9,19,72,6,20,3,146,16
6,6,-8,-8,10,-8,27,12,55,15
-27,-32,-5,-20,-48,-23,1,8,-41,15
-17,-18,11,6,-27,-12,-11,-14,-66,-4
-3,0,1,4,-16,-2,-2,-14,-55,9
0,2,-5,-3,-12,8,-2,-17,-44,13
-1,-6,-1,-19,-12,13,17,-14,-26,9
-4,-18,-5,-23,-15,6,17,-8,-2,19
11,-21,-19,-28,-14,4,4,-14,12,41
23,1,-7,-26,-5,10,35,-4,105,69
21,12,3,-17,-4,4,33,0,115,56
11,-5,-2,-18,-8,-6,-40,-4,-42,-3
2,-15,-9,-21,-14,-2,-18,8,-49,-11
-10,-28,-16,-18,-6,-1,15,21,-27,-7
-16,-25,-25,4,-1,-7,9,31,-12,0
-12,-7,-24,26,4,4,14,30,6,-9
-21,10,1,25,19,15,29,30,39,-28
-6,26,24,25,28,-1,33,12,67,-30
8,20,29,13,-10,-6,-31,-13,-81,-45
12,8,20,-6,-7,2,-13,-13,-81,-35
6,18,0,0,-6,12,-9,-4,-50,-28
-11,25,1,15,10,13,-6,-13,-21,-19
-15,25,2,24,8,1,-30,-43,-30,-4
-6,20,3,20,3,-17,-52,-55,-34,-6
5,22,16,13,2,-14,-35,-23,30,2
31,25,16,21,40,-2,-10,5,115,-11
41,23,17,27,67,9,8,23,125,-7
15,2,6,23,38,9,2,42,65,13
-52,-50,-8,-17,-37,-19,-9,42,-79,15
-65,-59,8,-28,-54,-24,-33,20,-149,11
-36,-35,7,-17,-29,-13,-35,2,-100,6
-17,-27,-19,-11,-17,0,-17,7,-4,19
-6,-9,-31,-6,-1,-4,42,14,126,36
1,-6,-17,-8,-1,0,-32,-3,-25,4
14,-5,2,-6,-2,3,-67,-17,-107,-25
26,-9,6,-4,-10,-10,-40,-21,-56,-22
30,-8,-3,4,-2,-9,3,-12,-14,-3
20,6,-3,0,7,-4,0,0,-8,-1
16,8,7,-16,3,0,-4,4,-3,-1
24,14,18,-27,0,-12,28,7,68,19
12,4,9,-22,-1,-29,-2,0,7,-9
2,-10,-8,-23,-6,-16,2,0,-38,-21
-1,-11,-7,-15,-8,-8,8,-2,-7,-2
-5,-12,-16,0,-5,7,18,0,-3,11
-5,-17,-19,-5,-3,1,21,0,-16,9
-12,-16,-14,-7,5,2,-3,-8,-24,-15
-9,-9,-19,7,15,1,19,-27,24,2
-3,-5,-17,8,20,-10,16,-50,52,22
8,1,-12,-4,7,-4,-30,-63,-51,-11
11,13,-12,-5,-3,-1,0,-37,-25,-19
-1,10,-11,4,-15,-18,5,8,14,-16
-8,23,9,19,-9,-8,17,52,36,-7
-10,16,14,23,10,4,26,62,13,-1
5,3,26,22,11,9,9,27,-32,0
4,10,26,19,17,5,33,7,64,40
9,14,19,15,19,7,26,-19,77,47
6,10,9,2,3,-4,-47,-52,-106,-6
10,-1,-6,-13,-22,-1,-32,-31,-105,-2
0,-7,-8,-15,-19,6,-8,0,-59,3
-14,-19,-11,-10,-21,-4,11,5,-42,0
-22,-9,-6,-3,-18,-2,-3,19,-31,-17
-29,0,-2,0,-8,-9,2,36,4,-16
-30,-10,-1,-4,-6,-9,26,40,55,17
-14,-29,-4,-11,-15,1,-8,19,7,11
9,-19,-2,-10,-2,0,-13,-13,-26,-15
33,21,10,15,38,9,-8,-34,46,-14
46,38,15,27,58,0,-16,-40,83,-10
37,28,-6,3,37,-11,-20,-34,61,1
6,2,0,-21,-15,-2,-15,-7,12,19
-16,-10,-1,-11,-11,-5,57,18,75,22
-28,-8,-10,4,14,-1,34,9,58,-5
-69,-40,-16,-14,-11,-6,-56,-1,-125,-53
-72,-49,-13,-25,-42,-5,-54,-2,-167,-32
10,3,-8,14,26,11,-22,-12,-40,-13
38,24,-14,11,51,9,-15,-17,4,5
33,-6,-24,-6,-2,0,-18,-5,-14,13
13,-27,-18,-13,-37,-10,4,-3,8,18
12,-17,-22,-13,-32,-20,14,9,27,7
8,-8,-10,-23,-24,-10,-41,2,-85,-28
-9,-21,0,-17,-23,0,-42,1,-96,-13
2,-6,-11,18,-1,3,-20,14,-4,-20
-25,-18,1,12,-24,2,-14,18,-14,-23
-12,-18,8,11,-22,13,0,42,57,-6
40,16,0,25,25,12,34,65,164,22
29,19,1,16,39,16,54,40,109,16
2,16,20,19,28,21,0,-14,-41,-36
-21,0,26,15,3,4,-14,-36,-124,-47
-42,-5,11,-17,-17,-6,-18,-34,-122,-32
-8,-3,-4,-24,-7,-10,-9,-33,-46,-7
-2,-19,-12,-30,-35,-11,-11,-23,-56,8
21,13,-20,-9,11,-6,-11,-18,9,18
4,0,-25,-8,-5,-10,-21,-22,-18,32
-38,-41,-11,-26,-62,-16,-53,-28,-143,21
-24,-33,3,-32,-54,-5,-43,3,-106,19
2,-13,3,-28,-25,-3,-19,27,-9,14
11,0,-1,-9,8,15,0,25,34,-3
2,0,1,-4,12,12,19,-1,14,-6
2,14,0,0,10,4,14,-4,21,-11
2,14,2,17,15,4,37,16,60,-4
22,24,14,43,37,6,48,20,107,13
23,21,18,20,26,1,24,12,62,41
14,4,12,-4,-3,1,31,10,22,40
11,13,0,1,3,1,42,4,35,27
3,14,-4,17,8,0,27,8,19,12
-11,7,-3,8,-5,-6,14,4,-24,1
5,6,9,1,-5,-8,13,-2,-6,3
2,0,12,0,-13,-18,-1,-3,0,-3
-1,2,14,-4,-22,-9,36,9,56,17
-32,-19,11,-23,-39,-2,12,4,-11,20
-44,-29,-2,-23,-28,6,-37,-5,-132,-8
-27,-10,-2,-13,-3,8,-48,-17,-155,-31
-6,20,23,-3,13,15,-24,-25,-77,-21
-9,17,20,0,15,23,-11,-23,-28,-8
8,11,-6,-3,3,15,0,-4,43,16
21,33,-18,4,25,25,71,22,207,59
5,20,-16,-7,17,31,46,13,127,19
-2,0,-3,-19,-1,-3,-24,1,-46,-14
-3,7,2,4,4,-6,-25,-7,-39,-8
4,9,-3,15,16,-9,-23,0,-21,-14
14,6,8,-1,7,-9,-14,0,-10,-11
18,9,14,-2,-4,-7,-14,6,1,8
15,11,10,8,-6,-7,11,11,42,23
9,13,13,18,-6,-5,-6,2,30,0
0,6,14,15,0,4,-20,1,-16,-27
15,9,24,9,15,7,-21,-4,-24,-22
18,0,5,4,4,14,-13,-3,-23,-13
-13,-18,-15,4,-6,13,-14,-10,-45,-27
-30,-29,-10,2,0,18,13,-14,-53,-46
-22,-29,-10,-2,0,7,19,8,22,-27
5,13,0,11,13,-4,52,20,176,29
7,22,4,13,1,-4,24,28,95,22
-14,0,-15,-11,10,6,-18,38,-20,-9
2,28,-10,2,43,31,16,33,48,-20
-6,22,-3,12,40,16,42,24,72,-1
14,45,-5,29,58,13,49,12,112,16
17,24,4,8,33,-2,28,-18,55,7
11,9,10,-10,-13,-17,41,-37,38,35
8,2,3,0,-16,-34,19,-44,13,40
-8,-32,9,7,-19,-36,-51,-51,-110,0
-9,-32,6,6,-17,-33,-31,-41,-51,12
3,-17,5,8,-6,-17,-6,-9,47,21
-35,-42,12,-17,-47,-16,-2,24,-8,7
-58,-66,14,-32,-64,-20,-21,39,-70,-6
-12,-12,0,-1,-31,-13,0,32,24,-9
0,21,-9,-9,-7,-6,37,35,107,1
-22,-8,-16,-26,-27,1,-3,30,-23,15
-17,3,0,-1,2,5,7,6,-61,-17
-18,9,9,-1,16,10,5,-20,-89,-58
-6,14,3,-5,27,14,-8,-24,-76,-39
6,15,1,3,14,-2,4,-27,-39,0
16,13,13,6,12,-13,-1,-27,-13,12
19,16,14,16,18,0,12,-22,48,27
34,15,4,11,26,4,30,-1,118,43
27,2,-4,0,1,-6,-18,20,24,19
11,-3,-19,-4,-8,-16,-51,25,-67,-7
7,-6,-14,2,-12,-8,-35,18,-51,-15
7,0,-5,4,2,-1,-13,1,-27,-2
2,0,-3,4,17,13,-15,-12,-24,-2
7,31,-9,15,31,30,14,-20,43,-18
24,52,-4,30,56,21,47,-4,184,-2
15,17,-9,7,37,20,5,-7,85,-10
-24,-35,-11,-22,-32,10,-3,-17,-38,-16
-7,-26,-9,-22,-31,5,-5,-8,-27,-4
26,17,0,-1,4,6,4,-5,44,3
-28,-11,10,-19,-26,6,-12,-15,-50,-9
-39,-23,15,-15,-31,3,-23,-3,-62,-27
-11,-3,11,2,-13,5,24,29,64,2
0,0,10,5,3,8,4,24,73,4
4,-7,-2,6,14,2,-12,4,-6,-14
19,9,-5,16,7,3,3,2,8,0
23,16,0,16,13,3,3,3,32,16
23,18,5,4,0,-5,20,3,32,30
15,12,0,2,-4,-13,12,-10,17,38
5,8,0,15,-5,-6,12,-28,26,31
7,26,16,35,12,0,68,-35,115,31
-13,8,15,0,-2,-1,15,-17,-9,-4
-20,-19,-1,-29,-4,-5,-27,5,-88,-31
-11,-3,-6,3,35,11,5,16,41,-30
-46,-26,-18,0,-3,16,2,-3,-30,-26
-39,-34,-33,7,-22,-3,-10,6,-28,-22
-2,-21,-25,4,-18,2,19,38,13,5
16,-5,-17,-2,-4,4,34,50,68,28
17,8,-19,8,-1,10,16,42,44,27
25,21,-14,26,14,24,12,19,13,16
14,13,-7,32,14,33,25,8,17,10
20,6,-3,39,22,17,7,-9,6,-11
16,-2,6,22,21,8,-7,-19,-15,-19
0,-18,2,7,-6,4,-4,-25,-19,-1
2,-6,5,6,-3,15,-6,-17,14,19
-3,25,10,8,9,9,59,-1,130,28
-21,17,7,3,2,12,19,-2,0,-12
-22,8,24,-4,5,9,-42,-7,-115,-30
15,51,31,6,15,8,-25,4,-17,-6
21,39,11,-5,0,6,-9,5,21,6
12,-22,-19,-34,-30,-33,-43,-14,-129,4
-8,2,-16,-11,-21,-9,9,-32,-66,-3
-5,42,-4,9,-6,11,90,-34,124,23
-3,11,-8,-6,-10,-5,39,-22,41,8
-5,-22,-5,-13,-19,-19,-27,-14,-53,-26
-6,-22,-12,0,-19,-16,-17,-20,-41,-11
-9,-23,-8,-1,-22,-12,-21,-26,-33,-2
-8,-25,-13,-21,-22,-18,-19,-3,-29,4
9,-25,-21,-16,-7,-17,14,13,-4,11
9,-22,-9,7,9,-10,12,25,29,11
4,-10,-1,2,0,-8,7,54,63,16
3,0,-2,-6,-1,-10,14,63,48,22
4,4,-9,-2,0,-1,17,40,0,17
1,-1,-10,0,8,3,-3,13,-26,19
20,18,4,3,2,-3,-2,0,-4,22
28,29,14,5,-4,-5,-5,8,22,25
7,14,23,-1,-4,0,-10,1,20,-10
-6,21,31,12,38,13,22,3,78,-32
-29,18,31,23,54,25,25,-1,44,-60
-51,-3,13,30,28,28,-51,-27,-119,-102
-49,1,18,22,24,16,-45,-30,-96,-65
-25,24,22,18,17,8,-35,-26,-63,-27
-2,11,10,-3,-11,-7,-13,-19,-45,1
11,-6,-12,-14,-6,-10,0,-4,-25,-1
26,-14,-28,-28,-7,-6,23,-3,29,26
29,-7,-21,-19,1,-14,41,4,103,58
3,-16,-16,-16,-23,-14,-13,12,-12,24
1,-21,-18,-13,-21,3,-11,25,-16,20
9,-5,-15,-7,-16,-4,27,25,-4,19
-5,3,-7,4,-8,4,24,13,3,-1
-3,-9,3,5,-1,13,-8,9,17,-3
9,10,18,9,28,2,7,22,84,-2
32,43,32,29,45,2,46,17,186,20
15,16,26,19,18,-2,-1,1,63,8
-15,-15,12,2,-4,-8,-28,-7,-59,-18
-9,-3,12,-1,-1,-12,-26,-17,-23,-18
-12,8,10,-20,0,-11,-23,-7,-22,-27
-38,-11,7,-40,-38,-2,-2,0,-72,-40
-39,-32,8,-24,-29,16,-2,1,-80,-27
-7,-30,29,-5,-16,5,17,0,-13,6
8,-10,28,22,-6,2,66,-7,108,56
8,-11,0,32,-1,6,14,-15,-30,27
6,-12,-29,11,-8,0,-30,-2,-100,3
10,11,-19,8,-11,5,-8,3,-37,4
15,24,-1,17,10,-1,0,1,11,16
39,38,10,29,39,-2,-17,-14,82,19
22,12,9,3,14,-9,-20,-29,36,-10
-14,-13,2,-21,-27,-11,-11,-12,-12,-12
-13,-14,-7,-24,-29,0,-1,9,-12,-4
-1,-9,-12,-25,-14,1,0,17,3,-2
-16,-13,-12,-13,-14,-3,-2,18,15,-7
-10,-12,-16,-21,-16,-1,16,8,3,-24
18,-12,-2,-22,-8,-2,16,18,8,-9
22,-3,-2,-22,-13,0,-4,33,7,4
15,0,-3,-17,-6,7,20,33,71,17
26,5,-8,-7,7,0,72,41,178,57
22,-9,-4,4,11,13,3,18,3,17
2,-18,6,6,17,12,-35,-9,-92,-11
-1,-12,2,11,6,2,-14,-24,-65,-13
1,-12,11,13,11,-1,-16,-30,-43,-5
10,-3,17,7,10,-6,-26,-20,-29,0
8,1,15,8,14,-14,-37,-22,-40,-7
-2,11,6,1,1,-16,-20,-10,-6,-3
-10,10,5,-2,2,-14,-18,-8,-74,-17
-15,4,-1,-6,11,0,-21,-8,-107,-21
-16,0,-17,-4,2,5,-17,0,-74,2
-11,-7,-23,-5,15,-8,-39,-2,-50,-4
-17,-17,-18,-9,18,-30,-36,-16,-29,-9
-20,-29,-17,-25,16,-18,-42,-25,-32,-21
1,-17,-27,-29,12,-10,-25,-14,-7,-16
15,-2,-16,-15,1,-11,-22,3,4,0
0,-21,-10,-19,-24,-18,-28,7,-37,1
1,-31,-20,-15,-32,-7,-26,7,-12,11
7,-29,-22,-12,-16,-5,-10,9,7,22
16,-6,-12,2,-5,-9,-25,13,11,23
30,-1,-8,19,-8,-9,-15,8,-3,19
14,-3,4,15,7,6,-8,13,-31,5
-17,1,12,27,35,8,49,8,25,-11
-27,13,22,42,33,-1,55,-1,65,-30
-15,-5,21,16,11,-12,-24,-14,-97,-34
-7,-13,0,4,-4,-3,-31,-16,-134,-23
-17,-5,2,1,-18,-1,-24,-12,-101,-16
-8,-4,-5,12,-19,9,-4,-2,-29,-6
1,10,0,9,-24,1,-13,-16,2,19
23,34,-14,3,-22,-21,7,-27,44,49
33,38,-16,-10,-15,-26,0,-25,54,61
11,2,-9,-26,-19,-10,-31,-25,-73,5
-18,-15,-14,-22,-8,2,-11,-27,-64,-30
-16,-6,-15,-18,4,9,-9,-30,-40,-35
24,12,-7,1,22,7,-24,-14,3,-5
36,25,5,23,46,7,-5,-12,21,-1
-12,-6,5,-1,0,-3,2,0,-13,2
-3,1,5,3,2,2,50,25,96,26
35,21,-6,28,38,9,23,28,85,-1
-3,-3,0,17,-4,-6,-26,10,-64,-23
-3,1,18,8,-11,-10,-18,-2,-55,-12
-9,-7,24,-15,-42,-8,-29,-10,-104,10
0,-9,8,-16,-37,-5,-18,-1,-80,25
2,-17,-2,-15,-15,-3,-17,4,-42,25
-7,-19,-8,-22,-6,-5,12,3,19,25
19,-5,-9,-3,13,7,25,15,88,12
27,-1,-4,2,1,-2,-7,16,6,-13
1,-17,-2,-12,-7,-4,-19,7,-25,-29
-28,-38,-3,-33,-20,-2,0,13,-18,-51
-41,-36,-1,-44,-20,-5,-1,29,-31,-69
-33,-14,1,-25,-3,-1,20,44,-14,-37
9,14,10,13,27,8,37,58,99,29
17,26,28,27,25,7,70,42,179,57
17,25,22,23,10,-12,44,15,78,44
36,10,25,17,-1,-17,-35,3,-56,17
39,12,12,9,11,-8,-22,-4,-23,20
15,12,6,0,28,-7,-15,-40,-36,-4
-12,3,5,-11,0,-4,-31,-50,-72,-34
-36,-9,-1,-13,-24,-6,-27,-29,-78,-50
-4,2,-10,14,0,22,9,-1,71,-10
-20,-19,-13,3,-25,8,47,18,118,61
-33,-39,-2,-14,-45,-15,-53,14,-73,34
-21,-24,-4,-31,-26,-9,-63,3,-114,6
-5,-14,-14,-26,-18,7,-25,0,-71,8
-10,-3,3,-28,-3,9,-15,-12,-47,-3
-13,1,24,-12,0,14,-11,-37,-81,-28
1,6,22,5,14,23,-5,-41,-34,-32
7,10,6,13,8,12,42,-7,82,12
10,8,-2,18,-3,-1,22,-15,2,8
11,6,-9,4,-3,-11,1,-23,-35,3
-2,-6,-7,-19,-10,-14,13,4,-1,8
0,-4,4,-4,-17,-21,7,33,33,13
12,1,9,8,-2,-12,23,35,32,0
12,2,16,25,17,0,17,19,6,-23
16,9,27,24,25,16,25,17,16,-18
12,3,11,15,13,10,38,23,-5,-1
0,-6,-7,1,1,-9,7,21,-45,-5
-1,-10,-10,-2,-10,-22,-1,5,-31,0
0,-22,-27,-5,-17,-16,7,7,5,6
-6,-16,-39,-17,-15,-9,-14,2,18,5
-3,-3,-24,-12,-1,2,3,0,24,4
7,2,7,7,7,13,10,16,73,27
26,23,6,31,31,6,46,2,207,40
48,47,8,43,46,8,23,-31,151,-1
40,22,-14,19,27,-8,-27,-24,-13,-43
23,4,-19,4,4,-6,0,-3,-8,-25
-14,-17,-1,-6,-27,-20,-10,-12,-52,-10
-55,-46,2,-24,-52,-21,-22,-17,-137,0
-46,-27,5,-16,-36,-10,-5,-8,-93,-3
-16,5,1,-3,5,0,40,4,35,6
44,48,7,19,59,25,61,13,141,13
32,26,16,10,46,21,0,-3,31,-11
-28,-28,12,-12,-11,7,-22,-9,-87,-4
-50,-43,3,-26,-42,5,-31,-24,-132,-3
-36,-35,-6,-27,-31,8,-36,-39,-87,0
-22,-25,-8,-25,-26,1,-24,-24,-31,-6
-22,-6,-9,-22,-17,10,-2,-24,8,-14
-16,3,-13,0,-4,10,26,-26,76,-10
-26,-4,-5,7,-2,-2,-35,-34,-77,-46
-26,-9,7,32,-2,-10,-32,-34,-100,-55
-19,-5,15,43,7,0,-2,-15,-20,-37
3,3,8,21,-1,2,8,11,6,-14
16,8,-7,1,3,0,5,16,-1,11
12,14,-1,-11,-8,-2,29,9,2,24
18,29,4,-1,-10,-3,45,2,67,37
21,22,5,-5,0,-4,51,7,128,60
5,4,10,-19,-2,-4,-29,15,-47,22
9,0,-1,-20,-14,-16,-44,21,-98,18
4,-1,-3,-10,-6,-16,0,19,-47,15
-2,-4,0,0,-3,1,4,9,-14,32
-2,2,-4,-3,-3,9,0,10,-2,51
0,5,-4,-2,6,11,22,12,26,42
0,20,-2,5,5,6,34,1,91,31
6,25,1,10,17,-1,-29,-9,21,-12
5,16,-4,24,39,17,-32,-15,31,-32
-33,-5,-7,10,-2,13,-21,-16,-39,-28
-30,-10,0,2,-7,3,-13,-5,-25,-28
-25,-13,-3,-3,7,3,23,19,26,-26
7,-1,-3,6,37,2,38,31,72,-16
29,19,1,14,42,3,17,15,74,-2
6,13,11,15,28,15,21,4,-3,-8
-38,-10,25,-2,-4,3,-6,3,-74,-5
-39,-18,16,-19,-19,-16,-26,15,-83,0
0,6,9,-18,0,-3,0,15,-9,17
24,12,9,-9,10,9,4,2,27,28
41,17,4,12,41,6,20,-13,67,27
50,15,2,11,19,-1,9,-9,78,59
24,4,4,-2,-2,-12,5,-21,91,68
19,13,7,-5,5,-8,-1,-42,44,34
15,11,-11,-4,9,-12,-50,-28,-44,-22
-8,-18,-27,-26,-7,-13,-45,17,-42,-18
-16,-30,-22,-38,-24,-12,-32,46,13,0
-33,-45,-16,-29,-34,-17,-42,35,-23,-9
-26,-19,-4,-13,-25,-19,-34,16,-21,-22
-10,3,2,0,-15,4,-15,14,-6,-32
-11,-3,0,-10,-12,10,-10,14,-35,-30
10,-4,10,-12,-10,-6,-15,18,-38,-13
23,4,8,-1,3,-6,-10,-4,-29,-14
33,1,0,-6,10,1,-2,-16,-42,-22
34,-5,-15,-11,2,1,12,0,-23,-9
31,1,-16,-3,-7,-1,-3,19,-9,-2
28,17,-13,4,1,-2,11,24,31,4
22,36,-6,16,22,10,43,30,160,42
12,21,-6,23,29,15,-8,4,34,17
28,18,-6,18,51,7,-37,-12,-48,-14
36,31,15,36,61,14,-10,-33,12,-28
16,19,10,23,20,14,-10,-40,6,-17
-39,-35,4,-12,-35,3,-14,-25,-46,-18
-79,-67,-3,-27,-57,-3,-7,-16,-63,-32
-51,-15,1,0,-20,4,43,9,77,-4
-63,-23,13,7,-16,9,30,37,33,-12
-22,-20,7,5,-5,18,-9,49,-37,4
29,1,9,-3,-10,22,0,47,-32,44
57,36,13,12,10,3,0,31,9,48
69,47,0,30,24,-2,13,3,62,22
20,1,-10,12,-10,1,-14,-29,-48,-3
-34,-41,-4,-18,-52,-9,-11,-36,-122,4
-30,-31,-8,-22,-33,-6,7,-29,-57,15
-22,-20,3,-6,-8,-3,-5,-30,-60,-7
-11,-7,10,25,1,-6,-13,-39,-33,-22
-12,0,4,19,4,-5,-2,-21,13,-32
-19,-3,-10,4,-2,6,-2,4,14,-16
-26,-17,0,-10,-3,-8,0,8,3,12
-9,0,13,-6,-10,-13,-2,8,14,24
0,14,6,-1,-8,-12,51,5,93,44
3,19,-7,-3,2,-6,86,4,156,46
3,-3,0,-15,3,-7,6,1,16,-3
0,-9,4,-21,0,3,-33,1,-92,-24
-6,0,8,-13,4,7,1,-3,-58,1
-2,10,6,1,7,6,0,-22,-31,1
0,16,13,8,19,4,0,-36,-12,-14
8,22,4,9,28,-1,-2,-25,33,-10
8,7,-1,1,6,-12,15,-17,84,-7
-15,-7,-3,-1,-1,-22,-21,-18,-22,-38
-14,2,-14,-2,-1,-10,-10,10,-5,-34
-5,4,-12,-2,-3,-2,-5,35,-2,-30
-6,-4,-4,-5,-16,-18,11,28,-30,-32
4,7,2,6,-10,-10,7,23,-37,-15
6,15,0,14,-3,-7,2,30,-16,3
-6,2,-11,-1,-4,11,52,46,91,26
-9,1,-11,-8,0,13,51,35,94,29
-12,9,0,-15,-6,3,-17,-4,-57,-2
-4,13,1,-1,-13,0,-21,-16,-65,0
9,24,12,18,-4,-10,-20,-41,-54,2
24,33,23,17,-9,-8,-18,-45,-28,0
30,26,10,-8,-4,1,-20,-28,-9,7
12,-1,-4,-22,-3,-5,16,-3,53,6
0,0,-7,-7,-2,2,31,21,109,16
-8,-18,-15,7,2,1,-19,16,-15,-13
-13,-14,-6,9,7,4,-19,0,-20,-19
-9,-6,2,3,11,3,-12,-14,-9,-9
-4,-12,-8,-12,5,-8,-17,-11,-14,28
-9,-15,-11,-23,-12,-14,-8,1,-4,41
1,-7,-4,-9,-7,-5,1,1,6,27
0,12,6,-6,4,7,6,-3,21,23
-11,6,12,0,18,10,3,-17,-35,7
-7,-13,9,2,12,10,-6,-14,-54,-17
-6,-10,9,6,30,10,-4,1,0,-34
6,16,6,27,45,11,3,27,97,-34
16,49,10,70,53,24,28,39,168,-22
8,31,10,50,29,20,10,22,108,-13
20,8,6,17,-1,-5,13,12,55,9
1,-15,12,1,-23,-15,45,5,38,22
26,-10,5,0,-4,-5,-25,-15,-71,-12
13,-10,-4,-15,-11,-4,-62,-38,-146,-24
-5,-6,-13,-24,-25,-21,-46,-34,-104,-12
2,-8,-22,-24,-24,-18,-24,-13,-57,11
18,2,-11,-22,-18,-16,-14,9,32,38
9,-1,-11,-7,-23,-8,-2,19,111,52
-12,-11,6,-6,-20,17,32,40,112,55
-25,-14,-1,3,0,22,41,34,6,17
17,2,-5,22,12,20,-20,37,-80,-52
23,5,0,8,0,1,-12,27,-70,-57
-5,-5,-6,-8,-11,-9,-5,-5,-97,-51
-33,-12,-7,1,-6,-13,7,-15,-80,-56
-57,-32,-6,-2,-24,-6,-16,-4,-98,-34
-39,-41,-9,-6,-20,-4,-18,-13,-84,13
0,-20,-15,-5,-22,-8,-16,-20,-15,36
15,-12,-21,-14,-21,0,-9,-2,-5,32
15,-6,-32,-13,-9,6,-1,19,8,39
7,-4,-16,-5,0,-2,3,8,1,23
-5,-8,21,5,20,-2,0,-22,-25,-10
10,12,25,14,13,-5,-10,-41,-24,-5
29,41,24,26,14,-25,-37,-53,5,10
19,42,27,23,12,-13,21,-48,82,14
-6,18,11,6,23,5,57,-26,114,1
-27,-11,2,-21,8,2,-31,-27,-48,-38
-21,-21,-12,-28,-10,3,-57,-11,-104,-38
-15,-23,0,-14,-11,11,-18,3,-41,-15
-10,-23,3,-11,-8,18,-2,11,-10,-6
4,-23,-9,-20,-3,3,13,11,9,1
11,-19,-14,-12,-1,0,24,21,36,14
10,-10,-6,1,1,-1,34,38,32,21
3,-10,-2,1,7,-9,26,30,23,8
6,0,5,-1,0,-3,20,30,26,14
12,5,4,-1,-5,1,32,25,34,17
18,16,5,-11,-2,9,28,27,52,18
11,20,11,18,-7,14,18,19,32,11
7,6,18,13,-2,11,25,0,38,27
13,17,19,2,23,19,33,-12,124,55
18,16,9,8,31,12,20,-16,65,19
3,15,1,7,16,-2,-18,-40,-108,-44
-1,12,5,6,7,2,-23,-35,-107,-47
6,4,-6,-3,-2,1,-11,-15,-62,-35
6,-8,-13,-18,1,0,5,9,-24,-26
-10,-1,0,-8,13,2,14,8,3,-25
-16,3,12,-13,25,1,23,14,53,-14
5,16,-1,4,24,6,25,27,119,3
18,17,-12,13,28,7,-4,11,29,-16
20,15,-5,21,26,11,-1,1,35,-20
30,22,0,16,21,0,13,-12,68,-13
-7,-9,-3,-16,-27,-15,-7,-29,-42,0
-35,-32,-6,-18,-51,-21,-32,-36,-118,8
-11,-11,-10,4,-9,-26,-22,-27,-44,-2
27,17,-7,0,14,-20,4,0,83,11
-10,-26,-13,-27,-29,-13,-25,0,-12,16
-26,-29,-18,-24,-39,-18,-33,26,-29,19
-14,0,-10,11,-26,-25,-23,35,7,4
-2,11,-5,23,0,-2,-10,28,16,-3
-7,0,-9,8,11,9,-9,26,25,2
-4,-4,-7,4,1,13,9,28,27,10
-1,9,-17,5,3,7,33,17,55,11
0,17,-10,11,6,7,42,12,123,28
0,12,-5,2,-1,9,-40,-10,-44,-15
9,7,4,16,-4,3,-66,-35,-115,-21
12,11,17,23,8,14,-24,-46,-101,-9
-8,5,11,7,-10,13,-6,-37,-78,-4
-8,-15,-2,-16,-12,-4,0,-18,-54,11
-3,-16,-15,-23,-15,-7,12,7,-1,17
11,-2,-6,-14,2,-3,65,35,97,30
7,-13,4,-7,0,-5,6,21,14,-5
9,-7,-3,13,-10,0,-17,2,-30,-16
13,9,7,26,10,5,-6,-5,-3,-4
1,2,18,12,8,7,-2,-2,-26,2
2,12,18,0,-10,-5,-10,-16,-27,9
0,6,16,-8,-11,-4,-12,-25,-42,4
-13,-7,4,-10,-7,1,0,-20,-20,13
-19,-12,-5,-21,-1,-5,1,-9,0,29
9,-2,6,-19,-4,-10,-14,-9,-1,44
15,-2,15,-7,1,-3,-16,-3,23,29
-5,-2,12,10,11,10,-14,11,38,6
-14,1,8,19,18,10,2,23,32,-9
-7,8,5,25,15,7,19,48,49,-20
16,34,5,33,49,9,18,63,67,-31
1,39,20,36,50,9,13,31,23,-42
-18,20,23,32,38,4,-1,10,2,-52
-21,7,13,23,34,11,18,16,34,-40
-23,-3,9,-18,12,10,8,1,-11,-4
-25,-27,13,-46,-41,-11,-6,-29,-83,20
28,-8,12,-25,-29,-7,-11,-48,-9,36
45,4,3,-12,-12,-2,-27,-45,34,25
22,-5,-8,-8,-6,4,-21,-32,29,3
-6,-20,-10,-17,-19,13,-2,-13,-1,2
-9,-32,-15,-22,-24,2,5,-13,-26,0
-9,-20,-19,-12,-13,0,6,2,-4,-1
-15,-10,-16,7,-5,-6,3,25,5,3
-26,-16,-17,-8,-21,-4,0,10,-73,-4
-21,-15,-15,-19,-34,-4,7,2,-83,-4
4,-12,-7,-20,-34,-8,3,10,-25,19
11,14,-10,-5,-4,2,59,19,123,64
13,15,-6,7,4,8,67,6,142,52
24,5,2,16,-2,-5,1,-2,47,28
7,-4,4,5,-8,-23,-48,-2,-86,-1
-19,-10,0,2,-16,-21,-63,-7,-151,-31
-21,12,12,11,-9,-6,-41,-23,-76,-23
-25,8,13,7,-1,-9,-23,-21,-23,-19
-27,-3,5,13,8,5,9,0,72,-12
-10,-1,21,24,24,7,30,8,128,5
-7,0,30,15,18,5,-49,-13,-94,-22
-10,0,10,4,7,-7,-52,-16,-121,-7
-9,3,7,-3,0,10,-21,0,-57,-10
4,7,8,-11,-5,16,15,7,6,-20
-10,3,0,-22,-10,2,10,3,-5,-20
-6,3,-7,-6,-8,-5,9,9,21,2
12,2,-5,-11,4,-4,6,18,54,20
14,23,-14,-11,17,-1,-7,11,24,3
42,46,-17,29,38,12,1,17,80,0
34,37,-16,33,33,7,20,13,89,0
11,-3,-16,1,14,0,16,16,42,0
11,-7,-17,6,27,-2,23,27,32,-20
1,-6,-4,0,22,-9,34,6,14,-31
-1,-4,-7,-9,1,-22,41,-3,51,6
10,13,-14,-6,2,-11,48,-20,87,20
9,3,-7,-22,-5,-12,-29,-31,-71,-21
8,-7,-1,-29,-6,-7,-20,-8,-73,-27
19,-5,-1,-8,15,13,21,19,-1,-19
-6,-12,-3,7,29,26,14,16,9,-20
-31,-20,-6,20,2,30,14,19,-20,5
-42,-30,-3,-15,-41,4,10,20,-63,31
-30,-11,7,-16,-35,0,25,-3,0,39
-25,3,9,-1,-25,-1,-42,-36,-92,4
-17,6,16,9,-15,-5,-58,-39,-77,0
-3,0,11,-5,-23,-1,-29,-20,-13,-4
7,-7,6,-14,-18,-5,-3,-13,-6,-4
1,-9,-6,0,-7,-2,0,-10,-6,-19
3,-17,-12,16,11,4,-8,-11,4,-35
10,8,-7,28,16,0,17,2,89,-16
10,28,1,29,5,-4,0,4,58,-1
-1,3,-2,18,-8,-4,-32,3,-27,-13
-2,-4,-21,8,-5,0,-2,24,-14,-12
-11,-9,-21,0,0,5,15,55,58,-13
-11,-10,-17,0,12,23,33,81,114,-1
-4,2,-2,3,11,25,45,52,38,-4
10,8,0,8,13,20,35,15,-11,0
27,9,8,9,3,2,30,4,93,45
25,18,13,4,10,12,32,0,58,39
-1,6,3,0,0,19,-19,-26,-104,1
-24,3,9,6,7,16,-40,-42,-138,-33
-15,-4,19,13,20,12,-25,-31,-78,-25
31,24,20,10,26,4,3,6,53,28
52,38,15,7,26,15,24,20,119,51
20,15,5,4,9,12,23,10,99,34
0,2,-11,-13,0,1,33,11,51,21
-5,-15,-8,-31,-29,-17,12,5,-9,9
0,-20,0,-13,-33,-34,10,-7,-17,7
-25,-24,6,-19,-35,-24,10,-24,-61,-11
-32,-29,17,-20,-33,-21,-4,-35,-104,-25
31,19,12,5,-2,-18,10,-28,-7,-14
36,18,13,16,3,-9,21,-22,37,5
0,-20,0,-2,-21,-8,31,-6,76,43
1,-28,-9,-12,-19,-8,24,-17,58,37
0,-14,-23,-19,-17,-12,-31,-41,-119,-10
11,-12,-28,-14,-19,-8,-32,-26,-83,-10
-2,-9,-44,-24,-18,0,-23,-15,-20,5
-8,2,-37,-23,-16,18,6,-11,-7,7
0,23,-17,-13,-3,17,24,6,9,0
2,32,0,-4,5,7,26,16,79,7
2,18,2,6,4,6,7,28,46,-2
-5,0,19,11,1,18,-21,29,-32,-29
-18,1,19,22,-2,25,-10,38,-27,-52
-7,15,16,30,0,23,5,34,-26,-55
7,12,21,31,20,5,-15,15,-22,-44
10,4,6,19,19,0,-9,3,-1,-14
12,0,5,-2,3,1,13,4,32,26
0,11,4,-9,-5,-1,7,15,61,42
-8,12,13,-3,0,1,-17,7,6,37
9,8,14,4,4,18,-12,2,11,31
-7,-8,4,-11,0,31,-2,3,0,13
-2,-10,4,-15,2,33,-17,0,5,7
39,7,-4,18,35,25,11,-20,60,3
43,8,-13,15,26,9,6,-19,42,-16
-7,-18,2,-7,9,-9,23,-17,31,0
-24,-28,-2,-12,-4,-5,23,-17,9,0
-28,-29,-3,-6,-13,1,-51,-12,-115,-40
-19,-13,-10,-8,-4,-6,-34,-7,-79,-33
-3,-6,-22,-5,6,-18,-29,-14,-33,-12
-8,13,-11,10,14,-13,-18,-11,0,-8
-16,9,2,25,11,-6,-7,-1,19,-13
-16,6,-1,15,4,0,44,11,92,17
2,16,-5,-10,0,-6,69,24,143,52
11,-1,0,-15,-13,-6,-16,8,15,19
11,0,0,-3,-19,2,-16,0,7,10
3,3,-4,8,-12,0,-13,-1,14,-6
-16,16,5,15,-2,2,9,-11,6,-27
-15,13,11,5,8,8,10,-15,-1,-30
-7,0,7,-9,-5,5,-3,0,1,-27
-15,-3,-3,9,0,0,12,-2,1,-21
-5,-3,2,8,-9,-1,-2,-5,22,4
-1,0,8,6,-16,3,21,3,41,16
8,10,13,12,2,17,30,3,39,14
5,10,27,22,30,22,13,-17,20,-2
-21,0,34,22,17,23,12,-18,18,-20
-23,5,17,11,10,16,9,1,18,-19
-18,15,7,2,7,14,18,9,37,-13
-21,25,3,12,34,20,57,24,109,-8
-14,15,1,2,23,3,17,16,-6,-36
8,-4,-5,-12,-1,-9,-29,2,-53,-5
18,10,-3,-8,-3,-9,-16,-14,0,29
21,19,13,4,10,-9,-15,-21,34,27
26,16,11,13,32,-6,-1,-12,33,22
25,10,7,13,23,-1,29,14,22,10
12,9,5,7,15,3,52,41,84,9
7,7,1,-6,13,10,22,34,11,-11
16,0,-10,-4,14,8,16,5,-49,-19
-6,-17,-5,2,2,1,20,-23,-74,-20
5,-13,-6,9,-6,-7,0,-21,-40,-11
26,1,-8,11,0,-9,-3,-9,0,21
30,8,-21,7,-3,-13,-4,-5,23,30
17,6,-12,9,-7,-7,5,0,76,37
17,16,-8,15,8,0,55,1,168,53
-1,-2,-12,-6,-8,-5,-8,-12,-24,-2
-12,-12,0,-13,-17,-14,-48,-10,-106,-20
-21,-21,-4,-39,-12,-8,-9,-6,-41,-12
-23,-25,-6,-33,-4,-9,8,19,5,-16
-16,-24,1,-16,1,5,12,38,30,-7
-21,-10,13,-21,18,11,33,48,52,-2
-14,5,21,13,27,28,61,63,146,21
-14,11,24,26,17,28,10,32,20,-11
-6,14,21,27,13,8,-33,-19,-90,-14
5,10,16,18,4,1,-16,-46,-67,9
8,7,-17,1,7,13,-12,-29,-28,17
13,2,-20,-10,-14,-5,-19,-19,-20,32
8,10,-13,10,-21,-13,-47,-33,-31,25
16,34,7,30,13,-2,-45,-39,-3,12
4,22,22,25,12,-2,-36,-29,-25,5
-5,-6,22,-2,2,-6,-25,-14,-68,10
-26,-25,1,-17,-7,-13,-17,16,-39,20
-43,-19,-8,-9,-8,-9,2,26,-9,3
-27,-12,-9,-11,-9,-12,6,7,-16,-9
-10,3,-3,-5,-10,-14,-6,-1,-15,-9
8,-8,-3,-11,-23,-19,1,-14,0,9
14,-2,1,-3,-11,-26,49,-10,96,34
1,-4,1,-8,-21,-11,26,0,61,21
-5,-14,-1,-13,-28,3,-61,-9,-59,-15
3,-3,-9,-2,-27,9,-56,12,-24,-3
2,-9,-9,-2,-22,-3,-40,17,-48,-3
6,3,3,2,-10,-2,-25,1,-89,-24
5,14,12,7,5,-8,-13,-15,-68,-24
7,17,4,-1,3,0,1,1,19,12
19,5,-3,-18,-9,-8,24,30,75,34
7,-7,-10,-31,-9,-7,0,22,-19,-7
-5,-2,-2,-17,4,-1,15,26,-28,-28
-11,1,-1,2,10,-2,27,32,-13,-46
4,-10,-1,4,26,-2,-6,8,-25,-44
36,2,-20,9,25,-1,-7,-22,-18,-13
71,23,-29,10,33,3,-14,-10,54,7
38,-2,-25,-18,-4,-10,-24,-1,20,3
-19,-42,-19,-45,-51,-28,-33,-6,-89,6
-30,-33,-5,-28,-22,-20,-24,-10,-80,-9
-29,-22,0,-12,-6,-16,-25,-7,-42,-37
-22,-10,1,3,-6,-3,-7,21,20,-30
-9,-10,4,3,0,-4,-2,52,73,-9
0,1,0,15,20,9,21,54,113,7
5,16,-14,21,26,10,42,17,112,-1
-25,0,-2,-2,-10,-10,57,-30,-5,-9
-26,-7,17,-26,-1,-10,-10,-46,-195,-44
-18,-10,19,-9,8,-6,-24,-37,-186,-36
-4,-21,14,5,-2,-3,-22,-34,-139,-9
-1,-24,3,1,6,-7,-32,-51,-93,18
4,2,-5,-4,0,-11,-31,-36,-27,40
13,7,2,0,14,-8,-13,-16,14,32
14,7,8,11,16,-3,21,-5,109,26
0,0,0,-11,-8,-13,-13,11,8,0
-2,0,-10,-44,-23,-9,-25,24,-41,-4
-5,-15,-22,-28,-22,6,6,42,9,3
-10,-14,-23,-3,-6,21,4,45,53,-8
4,-3,-9,9,16,22,20,25,41,-1
3,-11,0,12,13,6,-6,-9,-34,-8
-5,-10,17,20,10,0,1,-27,-20,-11
-19,5,16,15,1,-2,19,-17,-1,6
-7,9,8,12,-2,5,-22,-15,-55,-11
-7,7,-2,10,-1,2,-21,-22,-54,-5
-24,-4,-14,-3,-26,-1,-20,-31,-82,-8
-25,-21,-18,-15,-29,-13,-20,-33,-49,10
-5,-22,-11,-12,-18,-30,-12,-10,-14,21
23,7,0,-3,-16,-27,8,9,55,34
29,9,5,2,-13,-13,60,52,199,54
3,-3,0,3,-19,-5,50,64,122,14
-2,-1,2,-6,-17,1,-4,57,-49,-20
-1,13,19,6,3,8,-2,45,-46,-12
-17,12,35,41,19,20,18,11,-31,-14
-18,0,29,29,28,24,27,-1,-21,-15
0,-1,20,5,23,14,8,-3,-3,1
4,-3,2,-4,1,8,29,-16,35,14
2,-6,-10,-7,-9,7,5,-32,20,10
3,7,-11,-10,-11,12,-26,-55,-25,-3
2,5,-13,-2,0,15,-17,-51,1,-5
-1,-6,-18,6,11,1,-13,-27,5,-9
1,-3,-15,-4,5,-7,-4,7,15,6
2,2,-8,-7,12,-8,-3,15,9,20
-5,2,-11,-8,10,1,16,5,8,14
16,8,-15,5,21,7,83,24,113,46
20,-1,-9,14,8,10,36,23,49,30
14,-2,10,12,-10,5,-36,-6,-72,-10
2,7,16,7,-6,-9,-32,-10,-46,-12
-8,14,14,0,3,-7,-7,-18,-21,-14
11,15,14,-12,-2,-7,-3,-18,5,-1
23,15,17,-4,11,2,-15,-16,2,2
35,12,7,11,17,0,5,0,65,13
22,-8,2,12,8,0,-10,3,66,11
5,-18,1,3,9,0,-23,-10,-33,-14
1,-14,-3,-7,0,5,1,11,-14,1
-4,-7,-16,-18,-8,14,19,27,13,12
10,-8,-15,-18,-9,16,27,28,24,21
8,-10,-11,-23,-6,22,16,22,15,31
22,-5,-28,-13,-13,10,18,8,24,36
37,9,-39,-3,7,10,28,20,48,38
9,10,-8,12,11,11,-2,-7,-22,-2
8,32,17,31,24,1,-4,-42,-43,-22
33,60,7,49,31,11,-4,-19,22,-28
32,51,16,36,26,15,0,0,63,-49
0,36,18,16,15,6,18,0,34,-32
-22,0,7,10,-6,0,4,-4,14,-11
-32,-17,-2,-1,-7,-15,28,12,96,8
-11,-14,-6,-11,-11,-22,50,43,198,53
-26,-26,-8,-26,-25,-22,-20,30,-29,35
-52,-35,1,-37,-34,-11,-40,-22,-159,-4
-31,-5,9,-32,-21,-4,-31,-25,-106,3
-24,4,18,-11,-14,3,-3,-9,-63,11
-27,-12,14,-8,-6,4,4,-20,-47,-33
-1,-3,0,-11,-12,-13,2,-17,-4,-31
15,12,3,-9,-16,-23,51,-1,84,-14
0,-2,3,-12,-19,-10,6,-1,-32,-25
12,3,2,-5,-10,-4,-11,3,-59,-4
13,8,-2,7,0,3,13,3,-33,-4
4,8,8,21,15,23,8,0,-13,-35
18,1,-2,14,16,6,-4,7,36,-16
22,-5,5,11,17,-5,1,5,57,10
12,8,6,16,16,-1,0,-5,84,20
11,23,1,5,10,-1,24,-13,97,24
-4,6,-13,0,5,-1,-34,-30,-96,-18
-4,1,-7,14,-2,-13,-38,-25,-81,5
7,1,11,19,-7,0,-18,-21,-21,27
-3,0,22,26,-1,19,-2,-13,-11,14
-27,-10,5,12,5,20,35,11,6,-1
-36,-10,-12,-4,-9,0,53,14,44,1
-41,-3,-7,-2,-6,-5,70,32,138,22
-28,-10,23,-4,-2,-9,-9,31,8,-30
-17,-4,28,7,13,16,-10,29,-26,-64
9,-1,18,14,21,27,2,35,35,-41
67,26,13,24,35,16,-9,10,53,1
66,27,0,7,22,-12,-34,-23,20,18
28,7,0,2,-1,-25,-40,-19,21,8
-15,-12,-7,-8,-12,-28,-9,-2,33,-4
-16,-9,-19,0,-21,-11,-15,11,37,-8
-21,-12,-21,-5,-29,-20,-10,5,-26,8
-13,-17,-8,-16,-30,-14,-12,5,-71,23
10,-6,-1,-12,-15,2,1,17,-73,13
4,-14,-3,-3,-4,7,10,16,-68,-16
-4,-9,0,7,0,14,-5,-2,-72,-26
-6,-9,-7,14,5,20,10,-8,-29,-12
4,3,-5,14,3,16,39,-10,49,12
-7,-5,-13,-7,-16,14,4,-19,-49,9
-5,-5,-14,-12,-6,4,0,-9,-24,18
-7,7,-14,-5,4,6,0,2,16,25
-9,6,-8,0,6,11,11,10,25,15
-12,6,-8,1,6,15,30,14,21,5
-29,14,0,-4,11,8,13,15,22,-10
-18,14,13,4,26,20,18,13,107,-1
-7,13,3,13,32,14,47,10,192,7
-13,9,3,17,14,4,43,9,103,11
-6,10,15,22,17,-2,-17,-32,-76,-2
-4,8,5,13,16,-14,-52,-58,-122,2
-8,19,-1,1,2,-13,-27,-37,-68,-2
-4,17,3,-4,10,10,-2,-18,-31,-10
2,10,3,-8,0,15,29,-1,20,-4
4,11,4,-5,-3,0,36,-1,64,9
-9,7,4,4,-2,-5,1,-15,15,-2
-5,-2,-4,2,1,-5,3,-4,24,-22
-9,2,0,-7,8,7,7,-8,35,-25
-9,-1,12,6,7,11,-12,-12,14,-16
-2,0,15,8,2,8,-11,-6,11,-8
6,-12,1,0,-22,12,-13,0,24,-4
19,-9,0,-1,-3,5,9,23,112,19
38,12,-5,0,2,4,33,34,125,30
53,16,-4,-1,7,14,-37,23,-39,-9
49,18,7,5,-5,12,-40,10,-54,-2
57,29,4,7,3,11,-19,10,-1,9
40,17,-5,4,4,-10,-28,10,-11,11
4,3,-4,-10,-10,-16,-16,1,-47,15
8,-1,0,10,8,-13,-2,4,20,31
6,0,-2,10,-5,-22,24,8,83,34
-35,-33,-8,-24,-41,-16,-26,0,-79,-10
-56,-42,-2,-23,-35,-13,-26,5,-92,-30
-38,-24,7,-12,-5,-3,-15,12,-37,-32
-22,-6,6,0,18,10,-12,4,-16,-36
0,22,9,9,18,13,-1,-4,-25,-40
-4,20,0,6,6,0,-34,-19,-65,-42
0,3,-4,0,6,-11,22,-18,33,5
16,-6,-12,-9,-8,-8,39,-11,82,46
17,-15,-17,-35,-15,0,-42,-18,-91,21
32,0,-7,-31,-6,-9,-36,-27,-79,15
31,10,-8,-14,-4,-15,-27,-41,-54,22
16,0,-6,-13,0,-21,-17,-43,-33,-1
-5,-16,-10,-13,-1,-16,-8,4,15,-17
-14,-14,-12,-6,-5,-10,47,63,108,3
-16,-2,-12,4,6,12,91,69,152,13
-35,-21,-8,5,-2,16,12,33,-30,-21
-50,-23,-9,2,-5,6,1,18,-67,-30
-38,-9,-10,-15,-12,2,23,11,-37,-17
-12,0,-3,-13,-6,0,4,-7,-17,-8
11,3,-4,4,2,-14,-12,-18,-25,0
13,-7,2,7,4,-21,-4,-13,-4,10
-9,-3,-5,12,16,-4,9,-14,2,17
-19,-1,-6,14,13,7,11,-14,-30,-1
-18,6,6,25,20,-2,0,-1,-40,-21
-13,7,8,21,11,-2,-8,16,-17,-19
13,7,9,15,6,2,8,28,21,8
12,-5,8,15,7,6,-3,8,12,18
4,-9,11,12,-3,5,-13,-5,-16,9
5,4,3,6,15,7,1,-18,14,22
3,1,0,22,25,20,12,-26,88,24
0,-6,9,21,14,17,-21,-39,-64,-12
-3,-11,2,-4,-1,8,-31,-12,-124,-19
0,-11,-11,-19,-19,-8,-8,3,-63,3
-7,-14,-18,-7,-18,-7,2,-5,-32,-4
-6,-19,-3,-12,-10,9,0,0,-39,-33
-4,-20,5,-11,0,-1,19,17,-9,-28
-5,-15,1,-4,-10,-13,37,38,105,23
-8,-6,-4,-7,-18,-10,6,39,40,4
-7,-10,-11,-15,-24,-7,-2,25,-17,-4
22,-17,-7,-17,-20,-5,6,10,2,26
25,-12,-13,-18,-6,-11,-2,-3,23,42
-2,-12,-7,-31,0,-7,17,14,34,19
8,-13,4,-23,-3,0,7,18,52,22
26,0,8,7,5,4,-2,12,48,37
20,14,24,33,6,7,1,-2,29,27
9,15,32,27,9,4,-25,-22,-44,-14
-2,10,32,19,6,8,-15,-25,-57,-27
-5,-7,21,3,16,22,-6,-25,-45,-11
-15,-23,13,-9,5,14,-19,-23,-46,-3
-5,-15,3,-1,5,-13,-21,-28,-35,-8
4,1,-9,13,2,-5,-25,-27,-14,-9
-3,8,-11,11,9,-3,11,-22,114,0
-13,14,-6,3,11,-1,-9,-20,93,-20
0,13,-3,-23,-11,-8,-75,-27,-99,-55
-6,6,9,-20,-8,-17,-56,-26,-115,-29
-6,1,11,-8,-5,-16,-29,-14,-66,-13
-8,-8,-5,-4,-1,-10,-27,-4,-21,-9
0,-9,-11,6,0,0,-19,1,-4,7
10,-1,0,5,6,-1,20,0,51,32
18,11,4,13,-9,-3,36,5,91,39
9,10,-25,1,-22,-11,-19,8,-53,6
5,12,-28,-5,-23,-13,5,23,-46,7
3,-1,-34,-16,-8,-9,0,31,-13,11
17,-12,-35,-26,0,-3,5,32,-3,13
16,-1,-8,-12,2,3,7,9,1,7
15,7,9,-3,-8,13,8,6,23,2
22,19,7,-15,-3,4,59,12,118,29
10,10,-1,-35,-5,2,35,7,53,2
-3,-13,-1,-23,-16,0,-41,-8,-119,-25
-11,-6,7,7,-9,3,-34,-3,-87,-5
1,-3,12,10,1,-4,-22,-3,-44,0
10,5,2,3,-6,2,-10,-12,-47,4
13,10,-5,4,-1,0,-1,-18,-50,10
9,13,-10,0,3,-8,44,-6,21,25
9,7,-12,-7,13,-7,59,13,75,31
-1,-9,-4,-2,10,-25,-23,5,-36,0
-21,-2,0,-3,2,-23,-29,8,-55,7
-19,-10,-5,-11,-3,-22,-20,-4,-25,15
-13,-17,-8,-14,0,-22,-7,-15,-14,-6
-18,-10,4,-10,10,-23,-5,1,0,-23
-27,0,2,-9,10,-6,5,26,25,-23
-18,3,1,-8,4,1,2,39,52,1
0,0,-2,-10,-14,0,-13,34,27,24
14,4,-11,-7,-19,5,-16,26,5,12
10,-4,-7,19,7,4,10,-11,4,-19
10,-1,-9,-2,-9,8,37,-11,98,22
34,23,-10,-1,12,2,-24,-23,-12,-10
45,27,-14,1,22,6,-18,-1,-15,-27
14,12,-3,-8,4,0,-17,-3,-40,-21
-25,-14,10,-5,-20,1,-14,-19,-106,-26
-7,0,3,4,8,12,-10,-22,-48,-13
20,34,1,7,28,5,7,0,54,4
20,18,-6,0,10,9,38,13,134,28
-14,-16,-11,-15,-12,12,-15,12,-18,-3
-20,-29,-5,-5,3,4,-35,13,-78,-16
3,-17,-14,0,11,2,-20,17,-4,-7
6,-18,-17,-6,-12,-10,-10,7,11,0
-3,-22,-17,-13,-23,-16,-8,6,-17,-2
10,0,-11,-2,-4,-1,7,20,15,0
13,9,-8,2,-3,9,0,28,67,14
4,-5,0,1,-15,1,0,5,37,27
-16,-21,14,4,-5,22,-11,-27,-40,15
-2,-10,27,20,12,26,3,-26,7,12
-2,-19,26,14,1,20,2,-3,-8,26
9,-7,16,19,-1,11,12,9,-25,23
-8,-9,10,5,-16,14,0,-8,-99,0
-21,-13,31,6,-16,4,-8,-29,-107,-17
-1,11,26,15,-7,-10,48,-8,55,12
16,20,14,11,-7,-20,0,-4,10,10
21,17,20,26,-6,-20,-65,-24,-142,-31
0,10,23,19,3,-16,-19,-29,-95,-61
-19,-2,0,5,5,-12,20,-11,-20,-38
-10,-5,-21,-8,0,-9,8,9,3,13
-1,-3,-22,-17,-4,-7,4,1,4,23
7,-1,-13,-6,-6,-2,27,0,80,18
-8,-4,-15,-6,-1,-1,25,7,69,4
-5,-16,-21,-17,-1,-1,-16,0,-70,-23
-1,-15,-4,-11,8,5,-11,0,-52,-14
-14,-12,5,-13,1,-6,-7,-8,-35,-20
-25,-6,-5,-10,-4,-4,-12,-16,-24,-27
-23,-5,-9,0,-8,-5,5,9,13,-18
-9,-3,-14,3,-2,-18,21,27,51,-3
-4,9,-8,8,14,-17,66,21,159,35
29,31,4,14,33,0,29,16,133,19
24,8,8,7,26,13,-36,8,17,-22
-12,-4,15,1,15,3,-9,5,11,-16
-51,-6,28,-11,-15,-3,-9,-11,-65,-3
-34,-4,24,-10,-24,-5,-18,-15,-68,12
-7,-3,10,-14,-23,-4,-29,-4,-22,17
-17,-4,9,-14,-8,-4,3,-1,31,4
-27,-2,10,4,1,2,11,-5,18,-7
-18,-1,-1,4,9,15,-18,-10,-53,-23
0,2,-15,-11,0,25,-18,15,-1,2
24,14,-22,-6,2,25,2,34,30,19
25,16,-11,-1,-1,23,18,22,6,-10
16,11,-13,2,-2,19,8,3,-6,-11
7,3,-3,8,12,17,0,-8,-2,3
4,7,12,11,19,3,-7,-17,11,12
5,3,21,8,17,-6,-23,-6,-8,1
17,5,7,5,5,-7,-15,19,12,21
0,4,-9,15,-1,-10,22,31,30,35
-2,15,-7,29,10,-3,23,10,10,16
-5,3,-7,32,20,6,22,-14,-13,-1
-2,4,-2,15,2,0,39,-2,-12,3
14,10,12,2,0,6,40,0,33,14
16,21,18,0,5,12,54,-10,107,37
15,18,18,0,-10,-1,13,-31,-16,19
5,6,15,-12,-26,2,-24,-28,-122,-9
-3,-4,8,-11,-14,7,0,-8,-71,-24
-10,-16,-9,-5,0,14,41,14,15,-35
-31,-15,-14,-6,-15,8,34,13,35,-40
-32,-5,-18,-14,-16,-5,16,5,43,-36
-20,5,-31,-9,-1,-10,45,17,127,-5
-7,2,-20,-13,-8,-9,1,-4,-3,-17
12,8,-7,1,-7,-13,-32,-15,-64,-22
4,14,6,12,0,-2,-21,-13,-34,-10
-4,0,-3,21,8,0,-17,14,3,-3
3,3,-11,28,8,9,6,30,13,3
13,17,-8,17,17,0,15,38,24,10
16,6,-6,13,20,3,16,32,41,2
13,1,5,17,13,9,17,5,-1,-13
3,-11,5,4,8,15,3,-17,-45,-29
0,-13,9,-16,-3,17,-1,-3,14,-6
-13,-24,3,-24,-10,-4,3,21,37,13
0,-11,8,-16,-4,7,-17,12,52,16
17,8,27,3,2,6,-24,-3,66,21
23,26,38,20,5,19,-16,-10,81,11
30,47,40,33,22,31,35,11,165,22
13,30,39,33,20,27,5,-6,14,1
-14,-11,26,19,6,12,-48,-26,-141,-31
-21,-24,2,18,-5,-1,-25,-33,-128,-39
-22,-5,9,7,-2,-3,-24,-52,-88,-43
-27,8,14,0,21,-3,-19,-52,-45,-34
-12,-4,-12,-15,13,-13,-21,-35,9,-8
12,16,-28,-10,7,-16,35,-11,129,36
1,1,-12,1,-2,0,24,-14,68,41
-14,-11,-1,-6,-12,-1,-22,-15,-46,20
-9,-1,-8,-28,-9,-13,10,8,-17,23
1,-3,-16,-33,-25,-20,16,20,0,48
7,6,-14,-24,-21,-5,22,23,11,37
7,12,-3,-11,-18,-6,32,23,15,10
4,22,-1,-6,-9,-2,37,24,53,7
10,27,10,-4,15,9,67,25,87,16
-1,16,18,0,18,7,-3,7,-35,-13
-9,0,0,1,7,10,-1,5,-41,-35
-31,-14,-15,-7,5,4,4,22,11,-56
-32,-22,-22,-5,9,14,10,44,39,-33
2,-13,-4,0,0,8,31,18,23,1
22,-5,17,-4,-20,0,23,-10,8,37
32,15,21,0,-6,4,1,0,77,64
35,21,13,10,2,-5,-7,-4,110,50
20,14,6,7,5,-15,-46,-25,-40,-18
5,4,3,7,1,-9,-29,-13,-37,-33
-26,-22,-7,-17,-27,0,3,0,-29,-35
12,5,-11,-4,10,-8,0,30,61,-23
32,20,-7,12,31,-6,8,15,79,-5
10,0,13,9,24,-6,3,-12,8,-9
-24,-17,5,-5,-5,-15,-18,-39,-69,-18
11,0,-1,8,11,8,7,-5,10,15
26,3,0,4,8,15,2,14,46,25
-1,-3,0,-2,-1,17,-8,5,3,14
-30,-26,7,-15,-27,9,1,-11,-73,15
-40,-27,8,-5,-19,2,-13,-25,-89,-3
-36,-8,6,4,-2,10,-6,-16,-52,-22
-15,1,0,6,4,20,29,14,78,3
-1,4,1,12,-1,14,28,36,117,18
2,4,-10,12,-6,21,-28,14,-67,-23
3,-5,-2,6,8,20,-25,14,-64,-17
4,-3,1,11,2,7,-32,11,-32,-2
2,-10,-2,12,-8,3,-29,2,-2,-8
-3,-15,-6,1,-18,7,-11,7,4,7
6,-11,-8,-4,-6,9,8,7,60,42
9,-10,-3,-11,0,9,6,9,126,50
-9,-18,1,-12,9,3,-35,-13,-20,0
-14,-14,-9,-3,12,-4,-19,-2,-18,-12
-4,-4,-11,6,19,2,11,1,6,-13
-1,6,2,5,11,5,4,-31,-1,-11
-1,-6,1,-3,0,4,-6,-57,-41,-6
-2,-15,-6,-4,-14,-1,0,-56,-58,-10
9,-8,-21,2,-18,-22,5,-24,21,8
9,0,-17,2,-24,-11,15,0,39,11
21,14,3,-4,-12,6,26,13,48,16
27,32,21,4,4,10,22,29,66,3
28,29,32,9,20,9,10,49,40,0
32,27,17,22,28,11,26,63,38,6
56,49,-5,36,48,9,19,45,66,1
43,40,-3,26,41,-2,10,17,57,8
17,30,-11,20,26,-6,55,-1,132,34
-26,-13,-4,-2,-26,-10,0,-50,-88,-2
-29,-16,17,-5,-35,-23,-54,-79,-213,-36
5,23,22,9,-5,-16,-45,-62,-65,-26
34,41,16,17,27,0,-40,-17,62,-15
26,20,12,5,13,0,-31,-7,35,-27
2,-20,-3,-7,-9,-6,-15,-7,5,-11
-5,-16,-4,-19,-12,-19,50,14,83,35
-9,-20,3,-20,0,2,31,42,62,29
-27,-22,5,-14,-4,9,-1,41,8,-13
-12,7,16,0,-7,-8,13,31,-6,-17
1,15,28,10,24,-1,29,8,-20,-26
15,-7,28,6,19,0,22,7,10,-2
10,-29,10,-5,-11,-18,14,22,-6,31
-13,-37,-7,-18,-37,-14,32,16,-44,27
-10,-14,-19,-10,-11,-5,34,16,14,8
8,27,-22,9,16,0,-22,-6,-4,-33
-27,1,0,17,10,9,-31,-55,-84,-43
-42,-19,19,2,-12,13,-25,-46,-90,-5
-26,-5,13,-12,-21,4,-8,-13,-25,24
-19,-13,-5,-18,-20,-3,7,-7,2,16
-15,-20,-24,-16,-19,3,-1,5,21,11
-1,-13,-23,-11,-13,4,28,21,125,22
-3,-8,-13,-8,-1,2,33,12,110,14
-22,-11,-11,-15,-16,0,-13,-3,-73,-26
-28,-3,-9,2,-12,11,-9,-2,-71,-40
-32,1,-3,14,-1,15,23,-8,-33,-39
-22,14,10,15,19,20,0,-19,-30,-41
-11,22,15,28,21,15,-27,-30,-44,-37
15,30,23,42,15,10,-18,-10,24,-2
11,24,14,17,4,-2,-4,2,52,29
28,28,2,2,8,-7,6,2,35,14
32,31,-4,18,27,10,7,3,47,-1
29,25,-10,6,14,0,-12,0,34,4
24,13,0,-11,-7,-28,-12,-14,-5,25
6,7,-2,-6,-8,-20,-27,-17,-33,19
4,16,-8,6,7,0,-6,7,16,9
7,4,-11,8,0,-7,47,32,133,30
5,-15,-7,-2,-14,-4,-4,30,29,22
6,-23,-7,0,9,3,-21,9,-69,-9
4,-22,-6,24,10,-1,-11,-6,-86,-19
-12,-24,-2,26,0,-8,-11,-9,-78,-17
-16,-26,-15,8,-18,4,8,-4,-43,1
-38,-37,-15,-6,-41,3,-2,-10,-76,-1
-10,-33,-2,-4,-36,3,19,2,-7,26
27,1,5,-3,-11,-1,65,17,175,84
16,3,8,-15,-2,-26,27,13,71,51
6,1,11,-36,11,-26,-56,-14,-128,-10
20,13,13,-8,28,-16,-56,-12,-64,-22
-2,-16,6,15,15,-12,-41,0,-52,-22
-1,-7,0,16,4,-11,-17,0,-14,-5
-11,-6,15,7,-3,-8,-25,-30,-42,-15
-27,8,16,15,1,8,0,-37,-16,-44
-35,-6,14,14,-1,12,-22,-16,-26,-36
-22,-23,-2,-8,-15,-2,-3,13,-13,-4
-1,-14,-11,-23,-15,-7,1,6,-1,12
8,-8,-20,-29,-9,-13,-11,-13,-2,10
11,-6,-17,-17,-2,-8,0,-19,-14,1
0,4,3,-15,9,-9,-2,-26,-31,-4
1,24,0,-10,5,-13,20,-16,42,17
17,27,-13,-8,4,-11,67,9,171,52
19,3,-4,-8,13,-1,1,4,19,5
0,-9,4,0,-1,-1,-26,-6,-103,-6
-3,-1,15,-2,-21,-5,-24,-5,-85,-5
-12,-2,17,2,-15,13,-12,11,-52,-10
-21,-1,7,-5,-21,17,3,18,-34,-18
-7,5,-4,-5,-16,18,9,24,-5,-11
0,23,-12,-10,-1,14,61,41,90,16
0,23,-18,-7,-2,9,62,50,127,30
-18,4,-10,-18,-15,-12,-28,5,-21,-14
-22,-6,-3,-10,-18,-11,-53,-47,-94,-44
-7,-10,-19,-15,-20,-12,-16,-28,-60,-50
10,-26,-27,-17,-14,-14,-17,-17,-45,-45
-2,-12,-10,-6,8,1,-3,-15,-4,-23
-19,5,-7,11,18,7,-12,-3,68,9
-19,7,-16,18,3,0,-9,-8,60,6
-3,14,-19,2,-7,-5,-27,0,-54,-23
0,11,-13,-16,-15,-12,0,23,-27,-11
-1,10,0,-1,-15,-10,3,25,10,-4
2,23,29,33,24,0,-20,5,11,-3
6,24,38,38,45,-1,2,6,23,-3
6,28,27,22,22,12,6,27,27,5
7,22,8,6,6,21,42,44,112,41
16,9,-7,-13,5,10,31,30,41,31
15,-10,-15,-22,8,0,-24,-13,-131,-22
5,-13,-3,-13,-1,-10,-25,-19,-107,-24
3,-13,10,-4,-9,1,-27,-14,-44,-13
8,-16,7,2,-7,7,-19,-31,-15,-6
-4,0,6,5,-5,14,-15,-43,-13,-1
-16,-4,5,0,0,3,11,-26,20,-6
-3,-18,5,-1,10,5,26,-4,26,-12
3,-11,23,1,0,10,-6,2,-17,-6
10,0,17,5,4,16,-3,19,-7,10
23,-4,-13,6,0,0,11,32,26,30
27,0,-27,0,-1,-3,15,35,47,43
22,6,-20,1,2,-1,29,37,67,32
13,6,-16,0,3,4,40,40,89,26
14,15,-2,21,19,6,81,38,214,24
2,13,8,15,2,-7,39,15,100,-6
-6,2,11,8,8,1,-10,-7,-61,-41
-42,-14,23,-7,-12,-4,-12,-26,-131,-42
-34,-8,23,-8,-16,-8,-36,-33,-110,-15
3,14,11,6,7,0,-18,-25,-32,5
15,5,3,11,25,3,-20,-12,27,19
-9,-14,-18,-13,-8,-6,6,-6,57,38
-7,-9,-20,-28,-11,2,11,-1,52,35
-5,-5,-17,-25,-9,3,-38,-16,-59,10
8,-5,-20,-17,16,0,-15,-14,-19,-3
38,20,-17,2,41,5,-14,-3,53,-15
28,2,-17,-2,4,4,-9,4,32,-1
-3,-14,-1,-19,-30,-11,-7,-1,-64,9
-7,-7,-3,-12,-26,-13,6,5,-45,23
-7,-2,-4,3,-12,1,22,6,8,30
-5,0,-1,3,-5,4,-11,7,-16,11
0,6,2,5,4,5,-7,-4,-17,12
-1,4,8,10,0,-3,-6,-26,-32,13
-13,-5,-1,8,10,-17,-4,-29,-26,-2
-29,-21,-4,5,9,-33,16,-10,-8,-19
-38,-18,-5,2,22,-17,8,-14,-7,-52
-40,-3,4,-1,19,-3,46,0,39,-43
-14,7,2,-1,15,-5,68,19,92,-6
9,-7,-5,-8,-11,-9,-20,7,-64,-22
20,-11,-1,-12,-12,-10,-48,-1,-87,-6
21,-9,3,-20,-13,-5,-20,-6,-51,7
16,0,5,-10,-1,6,-17,-10,-31,23
11,-4,-2,4,3,20,-7,-14,-28,16
6,2,6,9,-2,10,-12,-8,-1,1
11,20,15,11,10,0,8,-8,60,13
4,11,2,0,4,1,-6,-18,-39,5
-9,-9,-1,-9,0,3,-14,-2,-50,8
2,3,0,0,-11,6,5,25,5,25
27,12,0,8,9,1,5,36,57,10
0,-8,11,3,-5,-5,-3,31,19,-9
-6,-18,20,1,-11,-6,6,20,8,9
19,1,16,8,-8,-7,16,34,74,35
15,6,15,5,-7,0,15,25,68,21
9,-2,6,-4,-9,0,-13,-5,-23,-2
14,2,5,-6,12,3,-33,-28,-44,-19
-6,7,12,-7,21,-2,-38,-38,-56,-13
-21,-1,13,-1,16,-8,-44,-32,-47,-16
-12,-12,0,-3,0,-13,-26,-17,-26,-8
-1,-10,-11,4,-15,-7,2,6,15,3
6,3,-2,6,-5,-8,76,28,149,7
0,8,12,9,7,-6,36,13,21,-35
-8,1,17,17,20,0,-26,-10,-127,-63
-11,-2,10,22,6,6,-2,1,-58,-27
-12,5,-8,12,-1,-2,-9,15,-29,-13
7,12,-8,-1,-6,-5,-13,5,-26,0
19,19,2,-6,-1,9,-13,4,-13,26
24,12,-12,-11,-4,18,2,12,34,41
18,7,-30,-17,-5,5,10,0,3,36
11,-10,-37,-25,-7,-9,-20,-14,-34,19
18,-25,-27,-8,-7,-7,-29,-19,-19,0
24,-15,-11,1,-22,-1,-38,-14,14,2
11,-3,1,0,-24,1,-8,-4,23,5
-6,1,2,-7,-16,2,-9,-14,13,0
-14,2,7,-8,0,0,15,-8,65,10
-12,12,7,-3,16,-3,80,10,171,18
-42,1,-10,-16,0,3,40,16,2,-30
-36,-17,-13,-22,-12,2,-11,17,-108,-40
-20,-18,-13,-28,-2,-11,17,12,-61,-5
-22,-18,-8,-21,-3,-14,12,11,-3,6
-5,2,-6,11,1,-3,11,17,22,7
3,11,-8,12,2,12,24,19,4,14
14,28,-7,15,17,20,48,29,61,40
36,44,2,19,28,21,27,27,49,33
21,8,8,12,20,14,0,9,-48,4
15,-2,26,17,27,13,0,-7,-33,4
0,3,33,35,33,12,-25,-32,-52,-26
-13,0,27,31,32,9,-25,-66,-88,-54
-9,-3,28,11,24,8,-35,-72,-75,-35
0,2,14,10,14,-3,-17,-37,10,-29
-10,-5,3,6,-4,-14,-5,10,48,-24
-17,-28,0,-19,-35,-17,-18,24,-24,-11
21,-9,-7,2,3,0,-17,17,36,-6
17,0,-6,0,12,0,-14,3,24,-9
5,-1,-13,-12,-21,-12,-23,0,-12,7
2,-9,-22,-12,-27,-7,-19,18,0,32
-5,-11,-27,-10,-33,-12,-6,20,2,21
-3,-11,-13,-12,-28,-12,3,8,40,22
1,-7,-1,-12,-11,-11,17,2,50,26
4,-12,-13,-19,-25,-13,-22,1,-62,6
7,-8,-11,-27,-34,-13,-13,2,-52,0
2,-13,-6,-21,-26,0,-2,-4,-39,-11
-1,-21,1,-5,-6,8,15,-8,-20,-22
-5,-20,3,-10,10,7,22,3,-14,-27
-3,-5,9,-17,21,11,2,4,3,-22
-9,2,13,4,11,14,20,7,48,-23
-22,8,13,14,6,9,-20,-3,-56,-44
-25,15,10,4,-10,0,-33,-19,-55,-24
-19,4,4,7,-5,8,-11,-13,-26,-4
-15,4,1,25,-4,7,-1,-3,-7,-13
-5,7,5,21,0,0,15,-7,0,-11
6,-2,0,-5,-3,-3,0,-8,11,4
16,2,-13,-13,8,-19,33,-6,107,44
19,10,-22,-10,-3,-20,37,-12,108,51
-5,-16,-12,-13,0,-17,-36,-24,-89,-8
-5,-15,-6,-16,0,-1,-12,-1,-66,-11
-15,-3,-12,-26,-1,0,7,15,-11,5
-4,1,-7,-2,5,-5,19,23,1,20
20,31,1,29,8,5,42,46,43,29
12,25,6,23,2,9,50,47,71,38
18,31,15,26,17,2,90,39,181,49
18,23,16,22,33,-4,13,18,46,-3
6,-1,11,4,1,-1,-34,4,-84,-14
4,1,3,-8,0,-4,-20,-5,-53,-10
5,13,0,-1,14,11,-4,-9,-9,-25
13,9,-3,16,20,19,10,-18,-7,-16
19,5,4,19,8,8,-1,-20,-22,8
-13,-9,9,-14,-21,-27,-11,-38,-54,22
-41,-24,14,-46,-40,-24,-32,-39,-110,22
-24,-18,11,-21,-20,0,-29,-7,-83,17
-10,-17,10,-11,-14,0,-14,-5,-44,13
-17,-26,0,-11,-12,2,-17,-13,-40,3
-29,-21,0,-2,-5,14,-12,-18,-24,-20
-38,-5,9,15,0,4,-24,-17,6,-31
-12,22,27,35,-1,6,11,-5,53,-30
22,36,19,32,5,15,76,31,195,30
30,14,-4,6,-7,6,8,42,51,19
22,1,-20,-21,-8,3,-42,41,-71,6
8,8,-13,-10,-5,11,-36,33,-62,-6
6,13,-8,21,2,12,-18,10,-49,3
9,13,-1,19,7,17,-12,-7,-15,32
15,13,-13,2,14,6,14,-15,3,28
16,17,-14,14,18,-5,64,-25,65,29
0,8,0,4,19,-4,15,-43,-15,-7
1,-1,13,0,7,-3,-26,-37,-71,-25
11,-2,8,1,-2,2,-13,-5,-8,-4
4,-1,8,7,7,-4,0,17,29,15
-9,-4,4,0,2,-6,28,30,20,3
-12,2,0,-5,6,0,27,24,7,-21
12,11,-2,-9,-1,4,11,12,31,-11
19,11,-12,-14,-7,6,20,17,47,19
5,-4,-9,-9,-1,23,21,15,39,16
21,9,-7,21,26,23,1,17,84,3
37,29,3,14,24,11,6,16,92,1
28,32,4,5,10,9,15,17,73,-6
5,4,-10,-9,-7,4,-4,-4,12,-18
-3,-6,-23,-1,-2,9,6,7,37,-2
-5,-15,-11,0,13,13,36,22,76,36
-30,-29,3,-4,-9,2,19,-22,-12,19
-40,-42,-8,-15,-45,-11,-12,-37,-92,6
-13,-24,1,-9,-35,-15,8,-28,-54,15
-8,-2,16,8,-12,-20,10,-24,-49,8
-15,18,34,23,9,-1,-14,-42,-45,-4
-12,16,35,19,41,7,-15,-21,-6,-20
4,29,22,40,54,18,14,20,104,-38
0,29,14,23,32,21,37,41,98,-38
-21,-10,-2,-29,-12,1,-3,15,-79,-36
-14,-20,-12,-30,-29,-1,-24,6,-108,-4
1,-15,-14,-17,-28,0,-20,25,-63,7
5,-13,-14,0,-21,-4,1,35,-21,3
4,-1,-1,28,-11,4,-23,22,-14,0
4,-2,24,31,12,13,-19,5,28,-1
17,20,21,27,24,17,38,29,202,22
1,15,13,4,6,6,50,43,187,18
-34,-7,-4,-1,8,-1,-14,26,-60,-58
-32,-17,-3,-7,7,1,-47,12,-116,-64
0,-20,0,-4,1,-16,-55,-10,-52,-27
10,-9,-9,-6,-16,-22,-58,-11,-21,-22
0,2,-4,-4,-17,-17,-36,1,14,-27
-2,12,1,-9,-2,-10,-7,16,78,-11
-1,2,-6,-22,3,-24,3,10,134,23
-4,-22,-3,-27,-3,-15,-54,-25,-87,-1
6,-19,-6,-17,-3,-16,-63,-36,-171,-10
7,-17,-8,-13,0,-10,-39,-22,-119,6
-6,-16,-15,-2,-7,-18,-10,-3,-69,14
8,-3,-13,19,13,-11,-18,1,-6,16
20,-1,0,19,13,-7,-2,13,26,11
-22,-21,-3,-21,-20,-14,-2,-9,-39,14
-21,-12,-6,-15,-10,-12,-11,-14,-71,1
5,-2,-6,-1,20,-5,3,-1,-24,6
-7,-21,-7,-34,-15,-8,0,-6,-61,5
-9,-19,-14,-30,-15,0,6,-10,-47,-13
5,-5,-8,-13,-2,-1,-16,-10,-39,-10
11,10,9,6,8,-6,-10,-8,-21,2
10,3,-3,17,6,6,14,0,43,22
6,25,-20,22,7,21,61,-6,108,21
-24,13,-7,12,5,24,-10,-15,-58,-44
-16,0,7,1,6,23,-20,14,-74,-32
-10,1,12,-2,6,9,0,13,-43,-11
-17,3,12,4,-10,0,-20,-9,-48,-13
-13,3,7,-1,-16,-6,-12,1,-18,1
15,14,-2,-6,2,-9,1,9,41,0
57,52,-6,6,35,-16,55,2,160,11
38,30,-2,10,11,-3,6,-12,35,0
15,-9,-5,-7,-13,6,-31,-13,-28,-8
0,-31,-12,-26,-23,-13,-9,-3,-23,7
26,-7,-13,-21,-4,-9,-1,-1,25,9
27,0,-16,-2,-2,-6,0,-9,26,14
-17,-30,-15,-2,-12,-13,-20,-22,-49,11
-35,-32,-13,-20,-22,-25,-2,-12,-61,4
-13,-5,-15,-5,9,-2,6,18,32,0
-23,-11,-9,-6,-23,-5,14,34,42,-3
-1,3,-4,3,-16,0,13,43,67,22
12,12,0,12,-3,9,5,31,38,37
-1,-4,13,9,6,3,7,27,-22,15
-14,-8,19,5,0,0,4,5,-85,-25
-39,-10,23,0,-12,-8,12,-25,-100,-43
-30,-5,15,-8,-15,-2,50,-8,72,5
-4,4,9,7,-1,22,19,-7,56,-17
10,20,7,19,6,6,-25,-28,-39,-60
-3,0,7,-4,-21,-12,-23,-41,-85,-23
2,-5,3,-17,-33,-11,-20,-42,-69,4
10,7,-5,-16,-12,-21,-9,-47,-6,17
2,2,-6,-12,-4,-8,-8,-29,21,19
-8,0,-4,0,-4,0,24,9,92,37
-19,-18,-2,-4,1,7,23,24,76,22
-14,-25,-9,-15,-2,6,-11,13,-47,-14
-1,-6,-22,-13,-3,4,-13,19,-24,-5
8,7,-18,-15,-8,7,0,26,7,10
4,7,-21,-11,0,4,2,17,31,12
0,13,-20,-10,0,14,3,16,39,12
6,20,-1,1,3,15,24,3,46,9
0,27,22,20,22,13,30,-11,46,-12
-13,19,20,29,47,11,-9,-37,-35,-38
0,23,24,20,34,23,-7,-38,-42,-41
11,18,24,21,12,17,-14,-29,-24,-22
10,9,17,4,5,5,-3,-26,2,-1
6,-5,-13,-14,-4,5,-13,-5,24,20
12,-8,-29,-8,-3,4,2,4,35,46
18,-7,-25,-11,2,-2,23,0,85,44
23,-5,-14,5,0,3,51,3,163,40
14,-11,0,-1,-12,-10,6,3,48,9
-7,-28,0,-6,4,-7,-50,7,-81,-23
-20,-25,-8,-15,11,15,-28,27,-53,-31
-26,0,10,5,22,20,0,29,-16,-48
-18,19,32,29,45,23,15,30,-13,-53
-7,18,12,23,37,15,35,38,0,-16
13,21,1,20,13,3,44,35,28,36
24,3,10,25,-1,9,4,16,9,51
25,0,10,9,-9,9,14,1,25,48
13,0,0,-24,-4,-1,9,-10,24,30
7,4,5,-23,-6,-20,-14,-29,7,30
29,25,15,9,16,-14,-17,-30,46,40
13,18,14,6,1,6,-24,-30,32,19
-17,11,10,3,-14,0,18,-22,69,1
-25,9,-1,18,-16,4,44,17,120,-8
-21,-15,-11,27,-4,7,-35,10,-48,-43
-2,-12,-6,21,-5,6,-41,-3,-87,-29
15,0,-18,9,-4,-3,-26,-1,-54,-3
10,-2,-13,15,4,6,-16,-3,-26,-16
0,-1,-1,19,17,17,-6,4,-20,-37
4,-1,7,18,23,6,27,2,17,-26
17,4,0,10,7,1,64,6,108,26
18,-9,-12,-2,-6,2,-8,7,16,26
38,4,-4,2,0,4,-11,20,35,1
7,-2,0,-15,-17,-13,-12,-2,-26,-11
-11,-20,3,-20,-25,-19,-3,-20,-56,-14
-4,-13,6,-2,-4,-10,-3,-12,-24,-10
5,12,8,2,0,-6,1,0,3,-1
12,13,10,-8,0,5,21,17,45,17
14,5,12,-11,-4,12,12,21,10,12
-2,-1,-7,-11,0,20,7,19,-31,7
-17,0,-2,-13,-9,16,24,16,-24,18
-11,1,15,1,-9,16,6,11,12,26
-18,-2,21,8,6,12,7,-22,25,0
-22,7,16,19,21,6,10,-34,-1,-17
7,11,10,6,5,-11,1,-18,44,9
49,26,15,-2,-5,-19,21,-32,135,52
29,13,24,-2,7,-14,-16,-58,-23,-2
-8,-2,5,0,10,-21,-41,-44,-153,-49
-13,-6,-3,-7,24,-10,-12,-2,-82,-42
1,-10,-6,-7,15,-3,1,28,-17,-18
22,-9,-2,-8,20,0,17,33,25,14
6,-3,-7,-4,19,3,25,22,30,18
-8,-5,-14,6,-11,10,41,20,65,26
-10,-7,-9,2,-19,14,20,2,8,2
-19,-9,-15,-3,-17,14,3,1,-81,-16
-6,-1,-21,2,-9,16,-4,4,-33,4
1,-3,-4,3,-3,5,-10,-6,-20,4
-2,-10,13,6,10,10,-17,-16,-32,-7
-7,3,11,0,-1,4,-27,-11,-22,-5
13,4,-11,5,-3,-13,-3,21,68,13
28,0,-23,-3,-1,-12,8,39,135,14
11,-13,-25,-32,-17,-9,14,51,108,0
-26,-28,-9,-38,-20,-9,10,47,23,-11
-47,-26,5,-25,-29,-25,-15,10,-85,-13
-27,-8,1,-8,-7,-16,-9,-2,-66,-24
-12,7,0,2,11,-2,-12,-3,-19,-18
-1,19,17,10,19,20,6,-13,-11,-16
1,29,15,20,17,22,50,-24,63,6
-9,29,13,20,19,29,72,-31,117,20
-17,14,8,1,4,23,0,-23,-26,-6
-12,-7,-7,-30,-2,5,-45,-14,-128,-22
4,-10,-4,-27,0,-16,-24,-2,-89,-3
7,-2,1,-7,4,-9,-4,-6,-38,19
26,5,14,6,18,-4,10,-3,14,19
28,11,0,7,8,-8,13,0,69,7
-15,-2,-3,-12,-25,-11,17,-16,31,1
-19,-5,4,-14,-35,-15,-1,-14,-37,-17
-20,-7,13,-3,-18,-6,-8,-17,-53,-33
-14,4,12,3,-8,3,20,-17,-11,-53
2,19,14,12,1,0,25,4,29,-30
6,15,11,17,-9,-10,0,5,32,-2
1,0,0,15,-9,-16,-5,0,30,-4
14,6,-7,7,7,-8,57,7,108,25
24,-2,-22,0,1,-11,52,5,105,41
11,-22,-17,-11,-14,-9,-54,1,-60,3
1,-14,-20,-6,-1,2,-47,5,-49,16
8,1,-13,8,-7,5,-24,4,-2,34
36,22,0,35,8,-11,-8,-1,47,22
3,4,2,-1,-12,-14,-21,-7,-3,10
-12,-1,-6,-23,-4,-10,-10,9,15,-3
-7,-3,-9,-9,4,3,0,16,32,0
-28,-19,4,-31,-3,9,-10,-4,-50,-7
-13,-8,10,-24,9,5,1,-26,-57,-39
-14,-4,13,-7,15,6,6,-27,-59,-44
-3,-10,8,6,0,5,2,-7,-34,-17
6,-3,-7,25,0,1,13,25,14,0
24,7,1,15,0,-6,3,30,44,30
30,13,5,3,0,0,8,35,121,55
38,16,-3,-5,12,6,6,25,77,25
-1,-9,0,-24,-18,-9,-31,4,-97,5
-4,-7,9,-15,-24,-12,-14,12,-82,9
6,-1,15,6,-12,1,-12,3,-40,19
3,0,6,-4,-13,-6,-20,-23,-38,10
1,-18,-5,-12,-12,-4,-10,-26,-54,12
-7,-16,-12,-12,-11,2,-2,-17,-27,15
11,14,-5,-10,0,-5,39,-19,84,30
8,2,-7,-19,-1,-3,-9,-29,-54,0
-4,-22,-16,-19,-8,0,-39,-17,-136,-28
-13,-26,-15,-1,-3,7,-26,-7,-93,-21
-27,-15,-7,1,16,6,-29,-20,-83,-25
-29,-8,4,-1,3,0,-29,-17,-69,-39
-25,1,8,0,-2,-2,-4,4,-38,-39
-2,13,7,5,4,9,39,25,62,0
22,3,0,-7,-6,4,-8,6,-18,10
19,-6,-9,-27,-11,-7,-37,-10,-100,2
8,-7,-11,-23,-10,-22,-28,-26,-73,-4
-11,-16,-12,-3,3,-16,0,-18,-65,-11
-11,-12,-11,-1,0,1,14,0,-41,-13
-4,-10,-7,-2,1,7,6,5,-19,-1
0,-8,-18,1,5,0,22,14,14,22
5,-3,-15,0,-1,-14,18,0,21,19
1,-3,-12,-9,-9,-27,-13,-21,-22,-3
-2,-12,-15,-16,-5,-14,6,-21,-2,-11
7,-21,-11,-11,-6,-17,4,9,42,3
35,-4,-6,1,8,-1,10,62,105,30
47,27,20,38,40,13,9,57,129,8
23,22,31,70,59,19,-3,37,99,-18
21,27,25,61,44,13,42,20,149,11
3,13,18,13,15,1,62,11,124,31
-13,-17,8,-8,0,-16,-23,28,-22,-17
-24,-38,8,-6,-14,-4,-58,27,-107,-60
-39,-34,8,-13,-24,-2,-41,11,-131,-65
-18,-13,15,0,0,3,-28,-5,-100,-38
19,17,15,14,31,13,-36,-5,-41,1
30,12,4,18,22,3,-40,-6,-20,22
31,6,-3,12,0,-7,-42,-26,-25,30
0,-13,-9,-4,-23,-20,-54,-31,-80,24
-29,-12,-17,-16,-19,-24,-56,-33,-73,17
-7,13,-11,-1,-6,-7,-25,-28,0,17
-12,3,-9,-8,-17,3,6,-9,12,9
-43,-14,-16,-24,-21,-4,3,-6,-39,-11
-44,-9,-14,-8,-13,3,14,2,-40,-24
-43,-7,-11,-6,-16,5,39,15,51,-7
-30,0,-15,-10,-4,-3,30,6,31,-8
-21,-1,-25,-16,-20,-8,-1,-17,-90,-16
0,2,-4,1,-2,-3,-7,-12,-19,2
17,12,7,14,6,-3,16,1,36,17
12,1,1,7,-1,-4,14,0,9,18
12,-1,-4,11,-8,1,2,2,0,25
22,-4,-1,20,-1,7,28,10,69,46
7,-5,3,8,-7,15,31,11,86,38
-19,-7,5,-7,0,1,4,0,-27,0
-29,-7,5,-16,-5,-2,12,6,-5,8
-18,2,6,-7,-3,14,4,8,16,0
-19,3,25,6,4,20,10,-3,6,-19
-16,22,28,11,9,24,-3,-15,-16,-12
-9,27,23,16,7,21,-18,-30,-1,-15
6,31,9,15,13,17,1,-25,63,-1
-12,2,8,-4,-6,1,-4,-27,2,-23
-21,-13,5,-10,-3,-7,4,-10,0,-31
-3,-11,-6,-8,-11,-9,4,8,40,-2
11,-3,-5,-1,-7,-6,17,17,39,5
20,10,3,2,-7,3,26,15,36,-2
31,12,18,5,1,9,0,35,34,9
26,15,7,14,-3,13,35,48,96,33
22,32,-9,21,5,14,73,45,186,59
26,24,-7,11,6,7,-14,-9,0,24
18,20,-10,0,0,4,-33,-30,-84,-1
2,20,-14,-3,-2,4,-18,-24,-52,-10
-12,1,-13,8,9,13,-7,-22,-29,-23
-16,-2,2,14,12,17,-11,-21,-27,-39
2,7,-2,11,7,4,0,-1,31,-25
18,22,-1,0,4,1,60,20,148,20
-2,-9,-16,-15,-9,-8,4,34,16,13
-33,-33,-11,0,0,-5,-20,21,-48,-31
-40,-12,-4,7,18,7,10,21,-3,-32
-14,18,6,13,10,5,3,23,46,5
14,17,20,2,-2,18,0,8,39,12
18,15,32,3,9,12,-3,-8,-2,1
23,41,46,37,15,0,0,-22,28,3
27,40,36,43,29,0,17,-30,43,4
13,9,18,0,7,-3,2,-23,-37,-5
3,-7,-9,-24,-14,-13,-1,-1,-10,11
-12,-20,-27,-31,-5,-8,20,9,32,5
-17,-26,-35,-24,16,7,41,33,44,-16
33,29,-19,7,45,16,56,42,118,-13
46,48,-11,18,34,10,47,30,131,3
23,48,-6,11,13,5,73,15,170,35
0,30,13,19,1,-6,59,-16,91,34
-56,-27,2,-12,-37,-21,-43,-48,-208,-21
-45,-34,-3,-12,-27,-13,-75,-40,-245,-24
-1,-20,1,6,3,-10,-49,-6,-89,0
13,-3,-5,8,-3,-2,-19,13,-2,11
-5,-14,-6,-22,-51,-16,0,27,-26,17
3,0,-3,-28,-39,-7,13,42,13,21
2,-1,2,-11,-11,8,14,26,-4,8
1,-22,11,-4,0,10,-8,5,-42,0
12,-13,-1,-8,-3,1,-22,8,-24,16
25,-15,-15,-11,-20,-2,-16,17,-10,27
11,-21,-12,0,-10,0,-11,8,-12,18
-3,-23,-10,-4,-4,1,8,5,-9,-2
0,-22,-5,-7,18,10,25,4,24,14
17,0,5,-1,22,13,39,-16,116,28
6,7,13,5,18,2,-6,-43,38,0
-8,-2,5,1,6,-3,-62,-65,-106,-30
-13,-13,6,-7,7,-1,-54,-53,-82,-26
-7,-10,9,-3,1,-4,-24,-37,-31,-14
-12,-5,0,-3,0,3,-16,-23,-6,-28
-13,-8,-1,0,9,3,-3,-4,3,-27
2,7,5,3,7,-6,0,-9,49,-8
17,12,3,2,5,-21,-3,-30,46,-5
23,-8,-2,-2,-20,-29,-29,-22,-20,0
14,-19,5,11,-8,-15,-8,5,-7,12
-5,-22,0,10,1,-16,-4,1,-22,-16
-4,0,2,17,30,1,2,8,8,-47
13,19,6,29,40,13,26,24,73,-38
17,18,1,19,13,0,14,30,67,-4
-7,-12,-9,-5,-17,-7,-2,16,-1,18
-6,-19,-25,-32,-30,-16,-31,-13,-64,9
30,5,-27,-10,-3,9,-36,-5,14,-3
-7,1,-15,-12,-14,17,-16,7,7,7
-24,-12,-7,-3,-14,16,-7,14,32,2
-14,-4,-2,4,-8,7,1,13,51,-1
-11,8,-3,2,-7,7,-18,-15,-9,4
-2,15,-5,14,6,8,9,-20,8,13
-4,3,-1,13,3,0,7,-25,25,13
-11,-17,-4,5,-13,-8,-57,-22,-136,-28
-14,-11,6,10,-15,-9,-59,-20,-162,-39
-17,2,31,15,0,-16,-49,-33,-154,-31
18,16,18,20,32,-22,-25,-5,-52,-2
15,-12,-6,-21,-2,-21,-4,31,-41,31
26,0,-11,-15,-6,-6,17,48,17,51
26,9,-7,15,-8,-1,58,50,106,52
4,-14,-3,2,-17,6,2,20,-16,-4
-3,-17,-4,-9,-9,5,-3,5,-50,-14
-24,-9,-1,-20,-3,-9,0,10,-85,0
-26,-20,8,-31,-19,-13,-1,-1,-119,-8
15,1,-5,4,16,-3,30,1,-13,-22
18,3,7,16,29,6,21,-3,32,-24
-23,-15,4,0,3,-3,29,6,40,-7
-52,-41,-19,-33,-41,-21,0,0,-45,13
-19,-22,-2,-31,-34,-20,-20,-13,-68,19
39,16,0,-2,11,-15,-1,0,38,22
47,26,-9,-5,23,-1,-13,20,70,43
21,6,-7,-4,6,0,-8,17,25,38
3,-3,5,-6,4,-6,0,19,-20,7
-6,8,5,0,16,-1,42,11,16,13
-7,9,3,-3,21,7,109,28,147,41
-10,8,4,-2,-6,5,85,24,127,27
-12,0,6,2,-9,-8,-14,11,-29,-30
-21,-17,-7,-12,-20,-14,-55,8,-101,-40
-20,-5,-15,-13,-20,-8,-51,-2,-99,-8
0,13,-7,13,-4,-2,-26,-14,-57,-1
0,6,1,10,-6,0,-16,-26,-53,-29
-14,-4,3,-11,-23,2,-13,-25,-94,-36
1,12,10,0,0,10,-14,-22,-82,-37
12,17,27,33,23,5,-27,-40,-57,-40
-7,-10,20,34,17,-2,-34,-43,-64,-38
0,0,16,23,18,9,-17,-17,5,-32
3,0,9,8,22,-5,-4,-1,55,-16
0,-2,3,-12,-11,-8,7,23,63,13
-29,-33,-4,-39,-55,-8,4,14,-26,22
-17,-24,-4,-20,-37,-7,26,12,29,42
-3,0,-3,-7,-16,-9,23,-4,43,27
-3,0,-2,-25,-11,-14,-43,-10,-105,-22
-4,-1,12,-21,-6,-13,-33,-7,-96,-29
4,-1,11,-4,0,-6,-16,3,-30,1
29,2,13,0,19,4,8,22,33,27
40,0,1,-11,28,14,4,22,91,33
39,0,-16,-6,15,20,32,21,161,50
32,2,-29,0,-3,20,29,13,118,37
12,1,-13,3,10,15,-22,-10,4,2
-24,-18,0,-8,-5,3,-21,-41,-79,-6
-43,-24,-5,-23,-29,6,-16,-31,-108,8
-24,-14,-21,-18,-12,19,14,-5,-42,8
-20,0,-17,-6,2,31,3,-15,-37,-27
-10,15,7,7,17,14,3,-30,-17,-27
3,4,6,17,18,13,4,-25,31,0
2,-2,3,16,13,12,-19,-18,-14,-10
15,23,26,30,6,6,-7,-16,-18,-7
36,27,30,17,-4,-7,0,-17,-7,14
46,3,0,2,-3,-14,14,1,32,46
30,6,-23,8,-2,0,18,14,33,60
-2,8,-13,5,-3,17,17,-5,-8,18
-20,26,8,37,16,14,27,-23,37,-13
-14,36,28,66,45,-3,-1,-33,44,-28
-18,21,30,44,32,-6,-66,-32,-82,-71
-32,-4,-1,0,-1,-19,-33,14,-35,-71
-40,-20,-16,-26,-14,4,4,63,66,-51
-21,-20,-9,-22,-11,12,23,67,81,-21
0,-13,0,-29,-3,2,10,24,57,7
22,-15,0,-30,2,2,12,4,71,27
28,-1,-10,-20,8,5,49,6,120,48
16,2,-10,-5,5,3,-8,1,-15,2
10,21,-6,13,4,-1,-7,6,-4,2
2,35,9,19,16,5,23,8,-21,-3
1,40,2,28,53,5,24,4,1,-13
-20,-11,-9,8,22,6,23,18,-9,-7
-20,-40,-7,-8,-7,4,32,44,2,15
-3,-28,-7,4,9,13,56,48,66,19
4,-35,-17,-1,13,19,25,51,45,24
-5,0,13,1,10,-6,-8,20,7,0
-17,42,60,13,-3,-27,-48,-41,-44,-33
-1,11,25,7,6,6,-28,-31,-20,-19
9,-1,-14,-1,-2,0,-25,-17,9,9
13,0,-24,-9,-2,-12,-11,-19,18,23
23,17,-10,-6,0,-8,18,-10,60,29
15,29,-10,-2,1,-18,93,13,180,36
-7,22,-10,0,3,-6,63,4,103,-4
-5,1,-7,-1,2,-6,-30,0,-44,-31
6,-3,-6,-1,8,-10,-35,18,-29,-3
-10,-22,1,-23,-25,-21,-18,4,-68,13
0,-7,5,-6,-8,-2,-8,-3,-42,15
10,0,2,0,-9,-5,0,14,-15,16
18,-3,-2,7,-3,-11,19,20,26,29
14,-19,-4,18,1,-6,14,15,11,24
19,-17,-11,0,5,-3,15,0,3,26
-2,-13,-18,6,5,29,14,-1,34,19
-35,-9,4,26,4,29,-31,-16,10,-14
-40,-8,19,28,3,7,-42,-29,10,-24
-7,-5,0,2,-9,-2,-32,-7,16,-1
11,17,-2,-6,-1,8,-2,-14,18,7
25,32,4,3,9,5,21,-18,84,19
13,22,14,-3,12,4,0,-27,-21,-14
37,20,-1,0,30,9,-4,-3,1,-26
41,19,-24,1,32,9,19,23,83,-23
3,11,-15,-2,4,9,38,21,51,-21
-35,0,7,-14,-27,-1,18,-1,-37,-32
-55,-2,16,-25,-48,-10,-15,-9,-94,-24
-49,6,-1,-21,-22,-12,24,10,15,7
-30,1,-9,-24,2,-13,18,13,19,-17
13,16,-18,-3,6,3,-12,9,10,-32
21,15,-7,1,-1,10,9,5,16,-9
-7,-5,-1,-23,-24,-1,-9,-10,-49,8
3,-7,-3,-7,-22,6,-5,-15,-42,-3
14,11,9,1,-2,22,-5,-18,-21,-13
-4,22,18,7,12,28,-10,-22,11,-14
-19,-2,16,4,-6,23,5,-12,26,-10
1,-9,11,0,12,12,-7,0,13,-13
32,9,3,6,12,5,13,-3,39,2
12,-9,-6,0,-14,-4,14,-14,-9,14
-17,-25,-1,-9,-39,-14,-9,-7,-42,16
-20,-18,2,-9,-29,-1,9,23,24,16
-11,-3,3,2,-19,7,45,51,85,34
2,-3,2,19,11,16,100,43,198,50
19,7,14,30,17,16,71,17,174,55
20,4,23,19,6,-7,-31,-14,-56,17
16,4,24,19,3,-7,-9,-22,-83,-13
8,5,9,21,20,8,11,-21,-66,-34
-11,1,0,14,15,7,-8,-19,-58,-26
-16,9,14,24,7,15,-16,-34,-48,-35
-17,28,25,43,16,4,-13,-39,6,-44
-26,27,29,46,8,9,2,-20,62,-44
-39,6,22,16,-7,17,-25,-8,-69,-59
-15,2,2,0,-6,15,-13,12,-47,-3
16,0,-14,3,5,8,-1,22,26,54
13,-1,-37,2,-2,4,-16,17,34,51
15,-9,-26,-8,0,-5,-13,18,46,40
41,1,-24,-5,7,-7,11,34,111,53
6,-14,-14,-28,-3,-8,0,8,38,44
3,-9,1,-15,-3,-7,-6,11,-18,15
19,5,7,5,18,9,15,23,8,-15
20,13,9,19,26,9,11,13,16,-27
0,2,12,11,-3,-7,1,5,-13,-6
-14,-13,-9,0,-14,-8,-10,-8,-51,0
-4,-7,-22,-15,-10,-7,-27,-8,-28,-4
11,1,-19,-7,-4,1,2,10,56,24
23,-6,-4,7,3,-4,13,19,144,29
10,-4,-11,-11,0,-16,-23,-3,34,0
0,-9,-15,-43,-16,-4,-45,-2,-110,-32
0,-11,-24,-49,-32,5,-29,13,-81,-13
2,-9,-23,-32,-32,-5,-3,20,-26,-5
4,-14,-3,-19,-22,-21,-6,22,7,-5
-5,-17,6,-16,-11,-16,11,33,17,8
-11,-10,15,-3,-4,-7,18,42,30,7
-14,-11,18,0,8,10,-6,16,-26,-21
-18,2,21,25,25,13,5,-8,-35,-32
-17,9,24,29,23,13,-1,-23,-51,-42
-7,26,36,38,32,17,-20,-72,-87,-51
-1,36,41,35,41,3,-24,-84,-95,-21
17,26,8,1,22,3,-13,-43,-52,2
12,4,-8,-10,-17,4,21,-2,35,36
2,-5,-16,-6,-25,0,39,19,141,58
-8,-18,-21,-19,-35,-9,-22,18,-31,14
-9,-18,-12,-18,-41,-16,-49,32,-94,4
15,-7,-7,-13,-22,-18,-23,26,-48,1
17,-1,-2,-14,-1,-1,-15,13,-39,-5
1,-18,4,-18,-2,-12,-27,-6,-62,-5
9,0,8,8,5,-14,-20,-18,-22,8
12,13,-1,16,25,-8,6,-5,65,34
10,1,-12,-8,10,-25,-19,-12,-27,6
12,-14,-7,-14,8,-20,-47,-33,-99,-4
1,-28,0,-11,-7,0,-28,-33,-99,-9
-17,-45,-18,-11,-17,0,8,3,-59,-20
-19,-43,-29,-14,-29,-9,19,29,-14,-12
-14,-18,-14,-5,-22,-31,2,6,-14,-13
4,12,-1,-9,-12,-43,24,-5,-8,-17
15,29,10,-6,-12,-44,13,-11,-20,-15
-1,26,7,6,1,-39,0,-11,-22,-33
-15,21,-2,19,45,-4,38,4,43,-56
-30,4,9,25,35,5,27,-4,3,-56
-1,27,2,42,46,2,20,-8,35,-23
5,-3,0,22,22,-4,1,-11,-1,2
-28,-51,0,-6,-36,-9,-14,-4,-43,26
-21,-27,-9,-19,-45,1,35,39,107,72
-10,-13,-2,-31,-51,-11,2,14,22,44
-5,-15,-1,-28,-36,-11,-54,-13,-123,-18
-15,-17,-12,-16,-19,5,-27,-16,-99,-16
-7,-19,-13,-14,-11,3,-13,-17,-72,-2
5,-18,-10,-11,-1,-3,17,0,-19,-5
13,-12,-4,-17,-2,-2,8,5,17,16
15,0,4,-3,-1,-7,25,0,70,32
5,6,7,4,12,-11,23,0,57,35
-1,-6,4,1,6,-17,-43,-18,-73,-6
6,-11,-2,-16,-8,-14,-32,-1,-74,-7
10,-5,-1,-41,-8,-6,-13,22,-32,8
10,-3,-3,-35,0,-3,-7,12,-15,5
7,-2,-5,-5,6,5,-13,0,-15,5
4,-6,6,8,12,7,-7,-16,-17,-1
11,1,1,16,16,12,-17,-15,-6,6
14,0,-10,5,11,-2,-12,-14,-21,16
18,4,-12,1,4,0,-13,-9,-6,28
12,11,3,20,5,-14,-17,-25,11,30
14,8,9,16,-2,-11,-20,-11,33,33
0,0,3,1,-13,10,12,26,68,43
-17,-14,-3,-1,5,26,16,40,61,24
-17,1,8,20,22,31,16,6,32,-25
-14,12,18,38,35,22,61,-2,70,-45
1,10,4,39,34,15,42,12,43,-58
25,18,1,21,38,5,-22,0,-33,-55
35,16,2,12,48,1,-23,-6,11,-26
24,2,-8,-13,18,-5,-18,12,52,0
6,-11,-5,-23,-26,3,-6,44,33,37
10,-1,-7,-10,-13,5,0,45,26,48
20,1,-19,-3,4,9,5,27,22,32
14,1,-19,4,0,-4,-22,-8,-70,-3
-31,-26,-26,-2,-45,-5,-31,-19,-160,-6
-55,-46,-14,-1,-58,-4,-28,-25,-187,-11
-30,-12,0,17,-5,4,-22,-35,-113,-20
4,18,1,28,37,17,-6,-30,17,-16
-21,-11,-2,-4,13,7,14,-32,-12,-11
-32,-17,-9,-26,-24,-4,30,-16,37,14
-8,9,-16,-18,-14,-2,32,9,168,32
-7,-11,-28,-20,-24,-5,-36,-5,-6,-9
-11,-24,-19,-32,-31,-8,-41,1,-41,-7
0,8,7,-31,-15,-17,-27,10,1,3
4,29,30,-9,-11,-13,-3,4,-7,-3
20,25,23,0,-4,-7,1,1,-10,-13
26,14,11,8,1,-26,13,-1,11,-2
8,19,13,12,0,-20,68,-1,88,18
-13,-3,6,-2,-9,-8,14,7,3,-24
-7,-7,0,-7,0,3,-9,19,-16,-20
20,0,-7,-7,-4,10,2,19,6,2
13,-4,-10,11,16,15,-1,3,-4,0
-2,-4,4,2,31,26,-6,-8,-33,-13
-5,-3,4,9,27,28,-17,-17,-27,-11
-8,15,9,0,16,22,15,-11,18,3
-3,13,0,-7,0,1,11,2,-14,0
-21,-1,-15,-19,-3,0,-4,2,-35,-7
-22,7,-6,-13,-1,12,11,-6,-16,0
-1,8,13,3,2,7,17,-3,18,13
14,5,19,8,3,0,34,11,49,39
7,-2,17,3,6,9,19,0,18,14
14,0,12,6,4,4,15,-1,23,13
26,13,3,8,2,1,64,4,146,75
31,5,-3,14,4,4,13,7,66,64
8,-23,1,-10,-13,-10,-39,0,-71,14
-11,-26,6,-23,-22,-10,-1,-2,-31,1
-21,-3,13,-9,-2,-8,8,8,-6,-13
-28,11,23,5,5,9,9,3,-24,-28
-31,-1,8,-7,16,14,11,2,-18,-36
-28,5,-9,-8,23,14,34,9,67,-47
-23,4,-11,19,10,17,13,-3,31,-48
-10,-5,-17,7,13,26,-61,-31,-69,-43
-4,-17,-13,0,15,15,-68,-53,-59,-9
-7,-12,1,0,10,3,-60,-44,-30,8
13,0,0,-6,-4,-10,-40,-18,17,27
26,14,-2,4,-6,-13,-16,-9,26,30
21,12,-4,5,-24,-6,0,19,2,22
12,0,-4,2,-10,-3,10,34,2,17
1,-18,-10,0,-3,-12,-2,21,-22,-2
-5,-12,-12,-8,7,-7,-1,32,0,0
15,0,-6,-16,18,6,20,19,44,-11
29,17,7,8,31,0,17,-14,26,-29
-5,1,37,13,7,-1,-4,-48,-100,-15
-15,6,39,25,2,5,-13,-47,-74,-6
-19,11,21,33,16,2,27,-10,44,16
-10,6,10,40,24,3,66,28,131,26
-2,-6,14,37,31,13,10,33,46,-11
45,35,4,40,66,7,-32,35,63,-29
37,32,-9,19,48,0,-31,46,90,-6
1,15,-1,-2,-3,-4,-33,33,2,-3
-39,-14,9,-11,-53,0,-43,6,-119,-7
-19,-1,0,5,-33,0,-33,-6,-64,14
46,36,-11,29,38,-11,-11,16,110,47
21,19,-9,12,9,-14,-7,14,70,33
-24,3,-18,-7,-6,-12,-4,12,11,5
-32,-9,-10,-24,-9,-18,7,10,-4,-13
-24,5,8,-8,3,0,5,-2,17,-18
-11,5,18,-6,-6,-12,8,-16,12,-6
9,-5,1,-11,-32,-16,-2,-11,-1,10
20,20,-5,6,18,0,47,15,105,31
8,19,0,0,8,1,61,6,76,33
-23,-21,0,-27,-34,-8,-30,-26,-161,-20
-18,-29,0,-24,-31,-15,-30,-33,-170,-26
-29,-31,-6,-15,-34,-6,-23,-30,-147,-10
-61,-62,-12,-33,-64,0,-20,-14,-148,-19
-57,-50,-14,-38,-48,3,-22,-13,-78,-28
-34,-23,-17,-35,-32,4,-3,-5,-2,-24
3,0,0,-44,-15,1,32,11,63,-3
22,11,0,-44,-9,6,-1,-5,-56,-5
39,20,3,-16,-3,3,-11,-4,-29,11
28,19,-6,23,2,-3,-2,9,18,15
18,11,5,24,-11,-4,-1,0,-6,13
18,1,6,16,-5,-7,11,0,0,16
0,-1,1,17,11,10,21,0,-2,-4
-18,14,2,24,29,23,28,3,17,-32
-20,12,3,7,18,22,19,18,32,-31
-1,1,-1,-6,3,14,7,44,52,-9
8,-3,-12,-1,-15,6,0,22,37,8
19,5,-8,4,-9,11,2,-15,7,-4
13,3,4,3,0,11,-8,-10,6,-16
13,1,9,1,8,16,8,17,20,-6
33,-1,-3,5,16,0,7,6,46,6
39,19,-12,14,37,-4,54,2,170,25
10,-15,-20,-19,-9,-8,4,2,11,-6
-1,-33,5,-15,-25,-7,-33,11,-86,-7
8,-13,14,-3,-16,-5,-3,18,-39,15
4,0,2,6,-6,-16,-6,12,-10,14
22,27,6,41,22,1,9,3,39,12
52,61,13,54,61,16,0,1,90,-4
24,47,2,37,49,15,-8,12,68,-2
-23,-12,1,-15,-37,-2,-30,0,-55,8
-43,-24,2,-18,-47,-13,-37,-15,-93,-1
-47,-7,8,-2,-2,-8,-17,-12,-58,0
-38,-11,-10,4,5,0,1,0,-25,3
-19,0,-10,5,1,13,-3,0,-24,-4
-19,-4,-5,-30,-3,3,1,7,0,-13
-7,-2,-3,-23,-1,2,11,16,45,-14
-12,4,0,9,11,7,15,14,68,0
-22,1,-4,20,4,-2,9,-8,-23,-28
-4,8,1,17,8,4,11,-21,-5,-15
29,15,5,30,35,13,25,-26,65,20
-7,-10,0,-1,-3,6,32,-15,1,45
-21,-6,2,-21,-7,5,13,-19,-15,46
-10,9,2,-19,5,-3,7,-27,26,35
3,7,-6,-9,11,-4,37,-13,117,45
9,-2,-8,0,0,-9,45,-11,152,24
0,-16,-13,-13,-26,-5,-7,-24,-20,-23
-2,-16,-20,-27,-31,-16,-43,-23,-123,-46
-14,-1,-7,-18,-10,0,-20,-7,-72,-35
-8,6,-2,-2,-2,22,3,7,-43,-28
7,15,-3,2,4,13,-1,2,-21,-15
7,13,4,-8,14,10,2,-8,21,1
21,-3,9,0,12,-5,-7,-14,20,11
20,-1,21,15,10,-7,-27,-28,-29,5
0,5,29,25,17,0,-35,-36,-29,7
11,6,5,19,9,2,-28,-25,12,11
32,25,-14,22,21,9,-21,-15,66,3
4,-3,-10,1,-8,6,-11,-6,22,-2
1,-11,-6,-7,-15,0,7,22,47,27
11,0,-4,6,12,0,61,44,150,32
20,14,0,17,13,-2,39,28,70,-9
2,0,18,6,-1,-7,-55,-17,-174,-76
-4,10,33,-8,14,-3,-53,-32,-175,-77
-19,3,7,-19,10,11,-25,-8,-100,-49
-17,-17,-17,-24,-10,6,-5,18,-25,-7
-2,-11,-13,-22,-28,4,15,37,32,38
17,17,-1,-10,-17,-4,32,46,108,59
30,29,4,6,0,1,50,37,138,46
-2,1,17,-1,-20,6,-7,10,-43,-10
-16,-21,10,-4,-17,-6,-13,13,-52,-3
-8,-17,-8,-2,-20,0,13,12,10,10
-22,-24,-15,-4,-23,2,13,4,47,0
-21,-27,-10,-11,-22,-10,4,-8,55,-5
0,-15,-9,-9,-17,-8,-6,-27,45,10
13,10,1,17,1,-9,5,-33,72,19
4,2,-1,16,8,7,-13,-21,-22,-3
3,-19,-1,8,3,21,-25,2,-71,-24
20,-8,6,0,17,9,-11,6,-31,-15
15,-5,12,6,19,3,-21,-7,-10,-2
2,5,5,12,30,3,-5,-22,2,-15
3,9,16,9,12,-9,-3,-4,-1,-10
10,14,12,9,0,3,48,23,57,21
17,27,-4,18,-6,8,93,29,140,39
0,16,-11,5,-20,1,-5,14,-41,0
-6,4,-17,-13,-17,6,-31,3,-104,-17
-10,1,-10,-9,-1,10,3,2,-53,-5
-10,0,-9,-6,3,10,4,17,-15,9
-7,0,-7,-12,17,5,5,30,7,13
-23,2,-6,-19,0,3,-7,24,7,6
-15,9,0,-3,3,10,30,30,92,12
5,4,-3,-14,8,10,10,35,65,6
20,13,-16,-5,1,10,-7,31,40,19
20,16,0,12,-3,0,-1,17,40,32
8,0,9,19,-21,-20,-18,20,-8,19
-3,-2,4,13,-5,-11,-8,13,-6,0
0,-6,-1,14,12,-5,-20,2,-24,-18
0,5,0,-2,8,-12,2,8,-7,-16
