-12,-2,15,34,12,-46,10,22,-33,-123
4,23,53,74,36,-63,11,7,-117,-185
51,56,91,109,61,-39,22,15,-160,-164
140,74,74,112,65,-17,16,39,-77,46
157,67,43,93,60,-7,7,36,-16,168
141,37,45,71,43,-2,0,21,-12,168
109,7,22,78,35,0,-15,-14,-30,160
62,-22,4,85,27,-8,-28,-45,-50,118
20,-38,0,63,0,-12,-20,-48,-55,77
9,-46,-23,11,-29,-26,-10,-39,-27,103
13,-63,-56,-28,-47,-41,9,-25,-2,96
-26,-89,-69,-43,-53,-38,37,8,23,28
-62,-95,-68,-33,-46,-31,53,12,-16,-74
-83,-73,-43,-1,-5,-7,38,22,-38,-119
-49,-51,-130,16,10,7,36,16,-20,-89
-5,-43,-168,24,2,3,16,13,8,-37
37,-18,-43,12,1,-14,-23,-17,8,5
43,2,33,18,6,-12,-36,-27,-16,45
19,3,53,50,50,23,-14,-5,-17,37
69,63,87,74,67,46,8,21,-18,66
105,106,110,98,68,53,18,26,-1,110
75,91,104,95,84,65,29,32,45,132
82,69,73,58,52,62,33,67,101,179
77,25,33,15,1,18,49,84,160,212
63,4,-14,-5,-13,-10,33,49,139,212
48,14,-37,-9,-32,-16,10,-7,58,137
-1,-1,11,-6,-36,-11,16,-30,-26,-40
-58,-5,33,-10,-35,1,58,1,-71,-196
-105,-12,42,11,-7,12,70,-10,-103,-304
-136,-43,0,1,-21,27,63,-47,-106,-312
-112,-57,-114,-22,-40,39,68,-65,-75,-229
-85,-57,-202,-34,-38,44,83,-66,-48,-120
-33,-33,-136,-23,-30,46,89,-24,5,-6
-8,-36,-7,-1,-22,28,53,-25,15,14
25,-5,40,15,0,-4,-27,14,49,42
156,105,95,64,30,-41,-152,44,109,155
161,129,117,100,39,-3,-128,28,76,123
51,45,79,73,38,57,-37,28,7,25
13,-12,36,47,60,85,13,58,38,22
43,-14,30,20,46,73,19,60,75,76
6,-31,14,11,28,60,18,51,90,52
-20,-46,3,0,1,43,-1,29,71,56
0,-27,4,9,-7,-7,-48,-17,26,60
-26,-50,-11,19,-27,-26,-54,-36,-4,17
-42,-72,-74,-9,-68,-45,-43,-39,-13,0
-47,-55,-86,-27,-88,-68,-46,-78,-79,-43
-63,-63,-90,-62,-92,-71,-29,-92,-137,-73
-21,-79,-154,-126,-112,-46,7,-34,-61,10
35,-53,-190,-125,-111,-47,4,-15,-4,81
75,-2,-57,-86,-83,-49,-57,-55,-7,114
104,-2,-5,-73,-67,-32,-39,-35,4,144
100,15,13,-45,-35,-18,6,17,22,144
96,59,80,29,22,2,-16,-1,-2,112
44,60,104,65,60,27,10,23,6,20
-19,20,81,70,80,64,52,60,18,-52
-10,10,66,71,73,56,35,21,-2,-28
-1,9,68,70,42,25,-7,-26,-28,-10
-40,-9,68,68,15,34,8,-91,-102,-70
-71,-26,63,81,38,96,51,-96,-79,-86
-58,-25,44,53,24,108,63,-71,-22,-86
-45,-17,16,13,-4,93,100,-20,24,-84
-80,-65,-3,-14,-8,70,137,-21,5,-145
-153,-93,-37,-8,-15,33,140,-50,-22,-210
-124,-59,-17,7,-30,-31,69,-57,2,-160
-45,-5,19,9,-52,-107,-32,-35,38,-40
-6,-4,18,-12,-57,-157,-48,101,79,24
15,-3,14,-30,-61,-189,-62,143,99,26
57,44,39,-9,-20,-166,-150,6,58,54
5,30,16,46,63,-32,-89,-38,2,39
-1,11,-76,60,83,23,-1,-10,-7,65
20,15,-10,63,89,18,-1,-38,-78,48
-4,-6,23,45,67,32,-19,-40,-85,29
21,-4,17,-3,30,6,-28,10,30,97
-1,-18,0,-11,20,-9,-41,0,48,113
-13,-31,-26,-26,-11,-26,-44,-41,29,93
-49,-30,-18,-50,-25,-20,-45,-60,18,26
-78,-43,-54,-67,-42,-5,-6,-19,49,35
-5,-41,-78,-112,-89,-46,-25,12,126,132
32,-33,-117,-125,-103,-76,-45,1,139,146
7,-33,-100,-116,-76,-55,-48,-34,90,58
-29,-1,11,-44,-22,-15,-34,-59,-7,-72
-52,25,72,32,49,23,-4,-55,-65,-169
-47,29,75,63,71,46,21,-30,-84,-191
3,16,62,49,56,63,38,38,-6,-6
75,44,65,28,49,65,7,30,39,163
148,76,92,46,42,14,-112,-85,-12,210
103,37,76,59,32,5,-116,-65,9,164
10,-40,0,24,24,42,14,59,82,47
-7,-26,-17,29,33,25,29,26,53,-94
-19,3,6,32,45,6,-39,-87,-65,-257
-37,25,50,35,43,10,-72,-137,-108,-314
-7,21,71,36,44,29,-56,-76,-50,-134
-27,-31,43,16,28,43,63,110,56,80
-76,-75,-31,-41,-5,71,185,153,82,88
-122,-68,-21,-43,-4,76,162,27,-18,-46
-88,-30,33,2,15,59,101,1,-39,-84
5,35,54,0,6,23,110,68,-13,-30
13,16,25,-21,4,113,195,108,-38,-56
-29,-48,-12,-44,25,234,221,39,-55,15
-20,-112,-61,-92,15,209,149,42,2,179
9,-104,-79,-89,-2,176,58,58,78,206
31,-46,-14,-18,14,113,-9,-32,2,80
13,5,45,37,51,7,-42,-81,-79,-96
-11,53,99,100,79,-109,-125,-53,-22,-196
34,100,140,126,68,-219,-233,1,54,-153
45,69,86,73,3,-209,-134,254,139,-25
50,46,52,36,-50,-195,-104,283,133,56
70,112,106,87,-20,-157,-152,25,-14,4
-6,56,68,82,1,-84,-86,-14,-71,-59
-58,-51,-58,-30,-45,-62,19,138,94,-5
-46,-41,-61,-47,-61,-54,52,119,103,-15
-59,-31,-50,-33,-51,-40,58,64,20,-117
-100,-48,-46,-28,-59,-36,33,38,-13,-162
-88,-29,-35,-17,-55,-56,2,3,-13,-114
-26,-2,-58,-19,-60,-84,-33,-40,4,-19
46,19,-37,-14,-47,-61,-38,-63,16,98
59,17,-101,-24,-21,-21,-2,-23,39,136
71,23,-54,-15,-32,-15,-1,-24,73,164
76,26,-103,-1,-27,-8,1,-15,84,161
70,65,-2,49,24,32,9,8,37,105
63,80,80,83,72,64,38,22,31,85
77,81,77,72,76,65,40,43,66,114
46,79,87,88,99,85,63,33,32,60
18,70,75,83,91,78,46,-20,-60,-3
40,80,76,63,68,69,36,-5,-53,-51
74,55,61,27,24,49,64,32,15,29
51,2,3,-6,-16,30,94,34,33,157
67,-8,-28,-57,-48,-24,58,2,39,321
92,1,-75,-104,-100,-66,1,-12,74,443
32,-13,-151,-73,-90,-74,-30,-55,20,345
-15,-28,-111,-31,-48,-54,-12,-98,-45,186
-42,-49,-36,-29,-45,-17,8,-83,-67,83
-54,-52,-11,2,-3,20,-3,-107,-124,-83
-53,-33,40,48,34,60,-2,-93,-169,-227
-83,-22,69,78,72,106,63,-32,-127,-252
-90,-39,25,43,60,104,94,12,-15,-141
-64,-21,45,61,65,75,48,-57,-48,-159
-14,-17,72,79,64,74,28,-77,-17,-53
18,-28,52,36,43,79,50,4,64,-10
-34,-4,71,55,66,124,100,74,13,-180
-87,11,100,99,85,140,154,143,-29,-205
-51,23,70,56,39,93,165,125,9,-95
3,7,11,-34,-46,28,99,54,46,-2
-21,-29,-27,-60,-89,-15,63,5,25,-49
-53,-58,-37,-66,-82,-39,17,38,35,-68
-15,-29,2,-31,-50,-84,-121,56,73,4
14,21,31,15,1,-70,-159,91,90,-4
20,32,24,8,18,-44,-135,87,73,23
4,-15,-4,-7,-6,-28,-117,48,34,108
-9,-7,19,13,11,22,-36,-12,-69,39
0,-1,34,35,34,78,60,-38,-111,-12
57,3,-14,15,4,40,21,-53,-94,52
112,46,-52,24,2,19,-4,-17,-41,66
102,54,-74,42,25,37,34,78,27,44
35,34,23,34,30,62,85,87,0,-28
10,47,87,78,55,99,99,-11,-82,-54
9,44,71,77,86,116,69,-76,-102,3
24,30,6,53,66,88,66,-105,-78,26
107,97,-44,52,16,26,21,-187,-87,68
43,84,8,49,17,75,48,-207,-143,-17
-177,-84,-15,-18,16,141,91,0,-51,-173
-222,-175,-112,-103,-20,68,-7,179,153,-123
-109,-129,-99,-106,-66,-48,-75,175,246,31
-35,-76,-95,-85,-84,-108,-102,85,196,112
-53,-81,-102,-77,-71,-111,-114,-7,127,90
-50,-74,-57,-89,-65,-133,-113,-52,113,111
-32,-41,-26,-70,-45,-118,-92,-23,113,72
-33,7,29,-1,0,-92,-26,49,53,-64
-4,52,95,51,33,-44,33,99,-77,-150
52,65,94,52,37,-9,40,110,-68,-117
45,42,54,43,45,37,74,89,23,-92
-2,-5,5,0,28,47,70,105,76,-35
48,3,3,-8,17,20,29,59,67,68
54,12,31,15,18,33,13,19,6,81
35,28,67,35,22,38,21,45,6,37
19,43,83,59,42,60,-10,8,-33,-49
-14,47,99,97,69,82,-11,-30,-57,-129
-16,23,60,67,41,63,4,11,-3,-110
-30,-12,5,12,1,36,31,41,49,-92
-1,-2,-4,7,-38,4,-4,1,32,-48
-2,-23,-6,1,-30,-17,-14,-33,12,3
-29,-86,-79,-3,1,47,38,-8,33,30
-35,-105,-158,20,30,110,81,25,49,51
14,-63,-34,44,49,111,63,-13,1,131
114,-24,8,-12,-1,38,33,11,63,296
150,-3,10,-27,-13,11,44,44,103,329
146,7,22,-10,22,88,33,-13,4,242
121,-26,-17,-18,33,143,-55,-63,-26,165
67,-60,-61,-25,10,121,-162,-85,1,128
88,-22,-19,-37,-29,58,-179,-105,41,163
104,4,13,-25,-20,34,-75,-84,33,146
42,-16,4,-1,-12,21,43,-86,-25,32
-41,-22,34,59,23,3,73,-98,-112,-146
-118,0,94,131,76,-22,29,-122,-211,-330
-63,0,58,73,4,-79,-34,-73,-132,-273
-16,-27,-8,-14,-75,-131,55,190,8,-175
-29,-53,-50,-34,-84,-119,112,358,101,-89
10,-21,-28,-18,-47,-60,55,202,110,37
19,-1,-6,9,-12,0,64,126,71,128
25,1,-17,13,5,20,145,154,90,144
72,62,28,65,35,29,196,135,104,120
95,96,40,80,34,17,170,109,150,94
41,66,31,76,47,50,154,140,165,0
-8,59,16,62,47,74,143,136,145,-128
-27,51,-31,52,41,84,153,97,42,-184
22,48,-120,57,46,71,140,33,-81,-48
61,34,-114,43,40,69,62,-5,-37,97
59,26,-37,-1,14,70,1,-25,28,183
65,20,-53,-39,-15,47,-7,-15,73,263
5,-19,-94,-74,-22,32,13,-9,77,175
-56,-32,-68,-71,-27,-40,-50,-52,20,47
-85,-37,-58,-46,-32,-125,-156,-104,33,-55
-107,-32,-78,-16,-15,-141,-140,-116,18,-118
-82,-20,-25,-11,-27,-174,-115,-131,-40,-105
-34,0,-11,-1,-38,-148,-73,-85,46,-11
40,64,48,35,2,-100,-36,-49,88,74
67,125,70,47,28,-72,-14,-35,28,0
3,105,45,79,79,-21,17,-17,-67,-150
20,101,72,85,85,25,29,16,-89,-86
80,119,64,71,68,20,28,33,-61,7
111,122,69,53,74,20,21,21,-77,-26
85,106,83,53,61,3,-2,-7,-82,-29
64,76,59,41,34,-19,-28,-9,-22,37
76,72,37,24,9,-42,-48,-57,0,68
2,1,-17,-22,-5,-59,-59,-76,-34,16
-45,-39,-82,-72,-34,-66,-31,-35,0,22
-45,-54,-105,-95,-72,-86,-38,-30,-25,15
-46,-56,-101,-105,-78,-90,-48,-67,-116,-43
-68,-68,-74,-94,-64,-61,-1,-30,-115,-117
-4,-4,-44,-54,-36,-49,-18,-25,-90,-86
-8,30,-6,-19,1,-29,-31,-20,-89,-69
-20,26,-42,10,26,-7,-44,-19,-82,-44
11,34,-86,25,41,-12,-77,-62,-90,21
90,103,-80,43,31,-32,-109,-87,-61,155
100,89,-45,24,15,-27,-62,-7,-22,201
81,46,10,-11,9,-6,-4,75,18,182
98,54,-57,-28,5,14,10,48,22,173
56,58,-101,-11,11,43,7,-88,-90,44
-49,46,1,-1,26,67,-5,-184,-170,-100
-24,46,33,-5,0,49,-11,-233,-201,-121
12,53,19,-19,-32,9,0,-243,-157,-95
-58,8,-22,-42,-30,20,78,-154,-56,-102
-157,-65,-46,-51,-14,22,104,-65,-4,-146
-163,-42,0,-20,11,-46,-26,3,22,-163
-99,38,69,44,10,-130,-165,176,101,-116
-103,44,20,38,-19,-130,-151,249,128,-83
-79,41,19,8,-31,-109,-113,98,119,-26
-73,45,41,9,-28,-73,-77,57,135,-6
-76,30,0,-15,-30,-44,-11,172,214,15
-59,26,-21,-33,-26,-6,63,229,224,40
15,60,19,-10,-13,17,90,136,127,64
33,61,39,-4,-25,-10,70,78,58,44
67,94,55,7,-20,-45,32,26,4,44
65,105,57,26,9,-25,30,-6,-69,11
18,75,17,26,21,-3,54,8,-81,-39
29,92,57,28,28,7,40,-6,-70,-26
29,75,44,7,17,-8,-5,-36,-49,13
11,31,1,-14,-24,-33,-46,-54,-17,33
-29,11,-14,-11,-33,-57,-65,-82,-51,-16
-32,23,16,-2,-36,-79,-79,-134,-137,-62
-48,8,36,9,-30,-63,-45,-123,-168,-95
-98,-67,-26,-42,-41,-55,-4,-50,-106,-102
-109,-98,-63,-85,-78,-59,-14,0,-53,-62
-26,-64,-81,-119,-118,-85,-34,3,0,58
57,-33,-85,-148,-144,-110,-93,-55,-4,90
58,2,-53,-81,-93,-68,-104,-95,-65,4
16,35,-41,-1,-8,21,-8,4,-38,-104
-14,58,12,88,93,95,90,64,-34,-148
27,63,25,85,97,101,81,68,-16,-8
58,26,-43,27,58,65,10,51,-5,68
32,-2,-67,8,42,47,3,42,1,70
24,14,-133,16,34,55,1,33,7,93
43,36,-115,36,55,59,12,12,22,115
58,47,-80,17,30,23,8,5,41,89
54,41,22,3,16,2,-4,-21,-9,7
24,30,48,-2,12,14,9,-25,-49,-35
-17,-22,3,-45,-21,8,23,3,-11,-25
-60,-60,-19,-80,-43,-8,0,-7,29,-33
-87,-69,-17,-64,-42,-7,0,-37,-12,-65
-114,-65,-19,-21,-7,7,24,-48,-105,-150
-78,-26,0,-1,9,10,61,-8,-27,-108
6,30,2,-15,-14,-17,65,5,72,6
23,47,29,7,0,-28,26,-50,62,44
41,18,-16,-19,-30,-43,31,13,180,140
95,33,-17,-31,-53,-42,39,36,187,180
71,47,16,10,-1,0,46,-20,17,106
71,68,43,48,50,68,68,20,-14,91
92,76,55,37,53,66,43,15,-1,92
106,94,28,57,53,49,8,-45,-65,75
70,72,58,83,56,58,-4,-68,-88,92
37,24,58,48,29,32,-4,-29,-10,121
38,26,43,12,-19,-13,-53,-85,-6,100
0,-20,2,-32,-57,-22,-64,-118,-75,20
-114,-127,-88,-74,-72,15,37,-8,-45,-64
-112,-162,-116,-84,-74,17,85,38,35,79
-36,-134,-94,-97,-92,-14,42,22,101,273
-20,-92,-55,-76,-91,-64,-14,-71,56,250
-29,-91,-61,-74,-102,-94,-48,-72,74,209
6,-114,-134,-124,-163,-124,-63,27,137,213
-5,-111,-131,-138,-168,-120,-46,69,75,60
-14,-21,-22,-38,-61,-6,16,72,-41,-151
-26,63,90,88,86,165,124,55,-120,-236
-49,63,112,126,143,251,207,26,-190,-286
-72,93,121,189,214,398,272,30,-230,-421
-80,129,150,226,244,420,255,14,-205,-408
-14,192,135,219,180,245,93,-85,-223,-278
-7,136,130,140,89,84,-46,-126,-182,-198
-96,24,59,44,30,-3,-68,-59,-62,-190
-89,0,8,-18,-16,-112,-163,-53,42,-119
-11,17,6,-44,-73,-246,-268,-92,60,-2
17,20,8,-46,-89,-276,-164,-4,49,61
-33,-21,-43,-80,-98,-212,5,131,41,88
-66,-22,-37,-41,-50,-162,4,71,14,132
-8,15,8,3,-11,-141,-141,-60,43,196
18,39,23,5,10,-88,-215,-163,53,179
21,28,2,-25,22,-44,-170,-161,29,83
-24,-6,-39,-38,47,24,-39,-80,-16,-94
-47,38,-57,15,80,51,22,-103,-104,-229
-28,88,33,46,62,32,10,-152,-168,-220
-45,21,3,-17,5,81,74,-14,-4,-84
32,32,-24,-45,-68,93,207,173,252,122
81,62,-98,-58,-130,13,280,306,372,217
42,12,-115,-63,-99,-32,179,235,354,172
18,-6,-23,-63,-67,-29,74,101,204,99
40,-3,-13,-75,-74,-52,4,46,90,132
-4,-25,-22,-92,-81,-63,23,101,11,66
-83,-22,0,-62,-63,-43,40,107,-117,-107
-82,-24,-4,-59,-64,-40,6,38,-117,-103
-56,-69,-74,-118,-112,-23,70,42,15,11
-24,-105,-110,-177,-154,42,213,42,74,93
24,-80,-99,-179,-172,65,243,-20,25,146
23,-20,-41,-79,-84,106,264,-59,-85,35
-102,-47,-112,-20,31,222,369,36,-111,-139
-149,-64,-164,-8,76,301,343,5,-187,-240
-83,-3,-51,31,92,226,112,-99,-283,-237
24,82,120,87,108,64,-309,-132,-213,-120
88,91,131,78,106,-27,-505,-169,-126,-19
91,75,42,53,71,-60,-358,-249,-112,0
97,50,48,18,20,-95,-274,-261,-78,20
129,9,41,-22,-16,-155,-283,-166,73,116
131,14,47,-9,-22,-188,-231,-154,96,99
62,29,73,17,-9,-164,-141,-124,61,-6
35,88,154,91,26,-163,-155,-66,-23,-34
11,82,175,121,63,-121,-105,49,-50,-55
-35,-12,71,41,22,-85,-37,224,96,-32
-31,-54,3,-22,-34,-62,51,497,302,46
-2,-35,1,-46,-78,-66,99,540,268,54
-15,10,56,5,-27,-33,98,313,76,-67
-37,58,104,71,34,-9,16,62,-80,-118
-40,18,55,33,10,-16,-16,-33,-88,-51
-41,-25,0,-8,1,10,32,-14,-103,-7
-14,-2,15,21,31,36,31,-23,-181,-6
55,55,-1,52,50,36,4,-57,-215,-3
67,94,41,94,72,40,-31,-120,-300,-71
46,84,111,103,81,58,-33,-113,-271,-86
20,33,53,37,39,74,16,-37,-105,-25
-24,-17,-7,-15,-8,74,59,-42,-45,-41
-60,-21,-8,-18,-33,44,31,-99,-58,-68
-71,-25,-8,-36,-67,-9,-9,-181,-55,-61
-72,-50,-40,-60,-90,-37,24,-176,-72,-39
-112,-124,-113,-108,-107,-18,99,-54,-36,-1
-112,-147,-130,-123,-90,-2,103,107,86,75
-41,-55,-41,-57,-40,-64,-65,118,121,148
-5,-16,-3,-11,-5,-57,-121,118,177,182
25,27,27,1,-18,-27,-34,115,195,179
-11,37,59,44,22,30,-4,-1,80,74
-46,6,44,57,65,100,-12,-51,83,36
-55,-15,24,26,53,92,-14,-65,34,-4
-7,19,19,-7,14,64,-37,-129,-71,-20
76,105,90,49,39,3,-109,-215,-168,-20
39,85,84,83,81,-27,-183,-257,-180,-99
24,23,48,52,49,-75,-143,-154,-79,-94
26,56,90,66,34,-120,-57,-49,-9,-48
-4,45,78,58,14,-126,32,52,44,-41
-22,-19,-5,-13,-49,-99,85,151,66,-29
-54,-67,-69,-48,-58,-43,87,123,31,-45
-90,-74,-53,-36,-38,-10,58,34,-16,-99
-110,-106,-73,-56,-54,-15,32,13,12,-95
-132,-149,-108,-92,-81,-32,5,0,-15,-72
-123,-142,-98,-73,-74,-20,-16,-7,-58,-65
-78,-113,-56,-22,-40,-5,-47,-10,-55,-39
-32,-75,-46,-3,-4,6,-54,-4,-23,-26
-30,-59,-33,-2,29,30,-26,17,-45,-43
-12,-57,-27,5,56,127,58,125,26,-21
6,-31,-8,22,86,187,75,129,52,-1
69,-8,-3,31,79,148,9,30,66,86
82,0,4,41,87,107,-12,-39,65,113
76,6,8,49,81,27,-41,-80,3,96
67,-2,-18,4,25,-53,-62,-45,-25,82
28,-6,-15,5,31,-75,-50,-2,8,36
36,-10,-11,-5,1,-114,-54,26,103,70
18,-39,-31,-31,-34,-150,-26,29,133,102
-16,-70,-85,-39,-52,-119,32,23,106,109
-59,-91,-91,-57,-60,-30,138,34,86,55
-114,-148,-200,-123,-106,58,241,13,66,-27
-125,-161,-259,-173,-150,89,325,-16,39,-88
-113,-150,-186,-209,-166,81,354,-43,11,-135
-104,-147,-188,-216,-174,77,425,-84,-61,-188
-105,-106,-136,-172,-152,53,366,-158,-158,-238
-13,6,-3,-53,-47,-24,-26,-288,-244,-156
57,73,82,33,47,-41,-388,-264,-174,24
72,97,117,88,80,-114,-434,-33,-46,37
20,71,51,100,74,-100,-230,130,-67,-112
-8,53,60,77,55,-65,-147,134,-62,-129
46,78,113,86,64,-137,-358,51,-16,-4
141,95,131,76,69,-142,-443,0,41,122
134,96,113,64,59,-41,-219,64,58,100
43,65,56,40,43,64,-62,168,88,35
8,28,16,-12,19,99,-46,140,67,20
29,59,51,-3,15,74,-81,9,29,26
2,43,56,28,22,60,-74,-72,-11,7
-61,-1,-2,31,11,-5,-69,-125,-61,-76
-74,-29,-111,-20,-46,-89,-65,-115,-51,-84
-92,-70,-69,-54,-59,-122,-44,-72,-58,-94
-75,-78,-76,-51,-73,-134,-3,-13,-29,-85
-43,-68,-159,-56,-69,-131,28,14,11,-23
0,-68,-114,-85,-84,-127,36,-15,48,81
100,3,4,-43,-60,-139,10,-39,63,167
192,91,106,45,-6,-112,-29,30,77,255
153,47,75,44,18,-40,-30,63,77,218
27,-16,8,14,35,34,17,59,120,68
34,-6,-13,-13,-2,20,66,84,137,23
43,14,8,9,20,41,73,-27,4,-33
26,12,2,13,19,41,82,-50,-41,-16
32,18,26,17,19,6,41,72,19,65
62,74,74,51,6,-31,-11,235,47,65
-16,43,6,38,6,-14,-9,240,2,-66
-102,-38,-76,-10,-27,16,89,179,-18,-146
-111,-52,-21,-15,-40,50,136,154,-60,-175
-55,-35,-2,-11,-27,79,74,63,-119,-148
20,-40,-36,-54,-49,37,23,62,-72,-35
3,-50,-39,-37,-45,7,26,143,23,-29
-16,-22,-10,-5,-28,-24,-9,142,75,-42
4,33,26,28,-5,-73,-104,55,99,-12
-1,38,15,30,17,-39,-111,-27,80,-1
-23,-10,-29,-16,13,67,-6,-32,17,-19
-23,-38,-44,-35,7,120,43,-44,-6,-42
-32,-52,-53,-37,-4,135,74,-67,15,-35
-9,-60,-74,-48,-22,110,118,-32,141,15
10,-34,-40,-24,-34,82,157,-27,129,68
78,-3,-16,-19,-52,0,86,-64,71,257
144,27,25,-13,-59,-107,-83,-116,-14,312
134,50,53,12,-35,-121,-215,-128,18,201
49,-22,-13,-48,-51,-28,-140,-153,2,110
-52,-85,-73,-73,-68,39,-32,-207,-133,33
-121,-99,-60,-48,-35,54,19,-149,-123,-121
-148,-104,-60,-48,-32,22,95,20,-42,-192
-45,-33,-21,-20,-49,-32,108,74,-80,-102
-7,-3,-39,3,-33,-61,70,16,-138,-111
-21,16,-9,41,7,-80,61,28,-84,-155
24,66,91,62,15,-101,39,54,6,-96
97,116,136,88,31,-128,-43,103,67,3
76,113,168,118,77,-79,-89,113,25,-15
50,109,160,128,103,-23,-68,11,-126,-104
38,95,118,120,92,3,-31,-58,-154,-80
57,61,67,88,39,-6,-39,-71,-88,82
24,23,42,47,11,-34,-68,-122,-157,92
9,15,35,18,-12,-55,0,-138,-254,51
4,10,22,-22,-43,-65,59,-68,-116,39
-50,-47,-36,-51,-53,-36,84,27,31,-26
-108,-97,-70,-65,-53,-18,93,60,40,-115
-113,-84,-42,-63,-61,-30,38,11,4,-70
-84,-74,-59,-77,-83,-50,-30,-4,69,20
-103,-94,-136,-68,-76,-69,-91,-42,37,-62
-100,-108,-205,-55,-37,-56,-114,-47,-17,-157
-102,-135,-122,-68,-30,9,-44,-53,-113,-193
-106,-135,-86,-63,-17,52,57,-43,-115,-192
-53,-116,-95,-66,-21,63,161,-40,0,-117
-51,-100,-63,-43,18,98,216,-88,7,-72
40,-44,-14,-13,41,70,137,-89,68,125
122,34,39,18,64,55,-44,-9,123,277
142,97,92,63,79,-10,-237,-17,95,260
120,85,90,77,61,-52,-243,-105,-26,224
123,97,94,84,55,-38,-206,-144,-158,130
88,86,73,64,37,-51,-184,-98,-185,7
31,67,64,47,35,-34,-79,38,-52,-124
-21,68,115,92,64,14,-33,50,-40,-273
-100,40,130,128,91,47,-42,-77,-156,-317
-165,-9,88,85,70,51,54,10,-139,-323
-83,-49,-21,-37,-24,-11,119,198,27,-131
-53,-39,-23,-40,-11,-17,91,121,-9,-87
-61,-25,-15,-7,33,18,88,42,-34,-98
-28,8,-26,18,54,40,83,5,-57,-49
5,18,24,38,59,47,57,-21,-91,-6
50,50,41,54,64,53,33,-9,3,5
67,56,44,70,87,92,54,27,93,60
68,40,32,61,88,121,64,55,123,117
44,25,-11,17,70,110,35,56,173,143
23,-11,-50,-47,23,101,4,63,279,174
18,-53,-94,-99,-35,104,11,34,365,229
-18,-104,-136,-110,-36,137,64,1,367,232
-104,-178,-220,-124,-16,135,124,35,270,178
-55,-143,-211,-111,-19,40,64,-45,80,201
-17,-93,-226,-99,-65,-63,3,-146,-94,160
-49,-91,-240,-91,-69,-78,76,-142,-219,-15
-73,-40,-86,-20,-23,-53,158,-145,-327,-245
-23,51,128,67,-8,-81,104,-88,-260,-269
-37,13,97,21,-65,-67,177,277,-58,-174
-77,-53,5,-68,-119,-73,282,443,83,-102
-18,-47,-9,-81,-131,-91,155,255,105,-6
61,-6,11,-52,-86,-71,-82,2,10,131
85,0,43,-21,-18,-26,-208,-206,-178,147
80,3,57,2,12,-23,-185,-177,-128,149
55,-3,49,28,37,7,-69,-71,9,31
-17,-29,37,36,64,42,60,-44,-37,-110
-51,-11,40,40,32,-15,24,-78,-73,-101
-54,33,96,78,36,-94,-94,-4,-67,-91
-118,40,74,110,68,-68,-49,168,-66,-223
-146,11,10,73,27,-49,3,123,-141,-297
-77,38,93,47,2,-89,-170,-110,-332,-271
-82,-3,59,3,-26,-71,-285,-245,-469,-243
-80,-27,19,-24,-57,-34,-140,-121,-347,-171
-40,-31,-18,-48,-76,-59,-8,87,-20,-72
-102,-89,-60,-76,-67,-25,34,172,156,-55
-96,-77,2,-61,-38,-3,15,102,71,-21
-23,-13,36,-28,-13,0,1,38,6,23
9,15,43,-22,-17,-1,-21,-12,-71,45
16,30,45,-2,-4,5,-48,-55,-123,52
80,40,19,-6,-12,-16,-30,-35,-12,170
156,71,27,-8,-19,-40,-26,-26,119,249
185,92,18,14,-16,-39,-28,-51,126,231
227,131,-58,40,5,-8,-22,-56,136,202
155,128,-2,76,57,28,6,-34,128,98
58,89,74,53,31,7,22,-39,133,72
61,39,45,-5,-15,-45,-14,-73,178,250
34,-32,-27,-56,-48,-46,-4,-45,197,367
3,-76,-81,-91,-69,3,21,-18,171,284
-9,-64,-58,-55,-22,104,43,-24,120,135
-57,-56,-20,-15,43,172,66,-1,88,-50
-128,-73,-28,3,57,178,50,17,91,-205
-160,-50,19,48,89,131,12,-5,80,-258
-129,-33,19,56,66,52,-31,-48,-46,-143
-132,-95,-40,10,30,28,-5,3,-186,-103
-136,-146,-83,-19,30,35,70,124,-156,-126
-77,-62,-77,1,44,30,68,83,-169,-212
11,40,-102,67,76,32,43,38,-136,-223
50,59,-16,95,98,27,18,36,-41,-112
30,50,56,96,103,13,10,24,54,-7
-26,-12,23,48,67,23,48,52,92,1
-39,-34,-15,-21,-21,-3,-19,-4,42,-34
-36,-24,-10,-70,-84,-23,-39,-35,41,-52
6,8,8,-63,-92,7,31,-29,58,13
41,32,20,-37,-87,81,136,-14,38,51
9,0,-27,-41,-85,131,194,10,10,-1
-19,12,4,-22,-56,106,90,11,-59,-19
-39,17,30,-3,-40,26,-75,25,-46,2
-20,6,20,-18,-56,-44,-123,19,-39,13
9,31,7,-23,-61,-49,-55,-25,-91,-17
-31,-4,-94,-50,-67,-34,49,40,-88,-56
-50,-39,-157,-75,-72,-37,100,130,0,-44
35,10,-10,-30,-53,-114,4,180,147,37
116,78,76,41,-15,-164,-167,150,256,160
115,95,0,64,19,-125,-187,64,220,120
81,96,-41,84,76,-45,-68,9,95,4
105,117,-15,113,107,6,-8,-13,56,44
141,102,-7,94,80,27,0,-11,87,139
128,73,53,60,52,19,-6,-28,48,156
72,26,89,22,25,6,-32,-38,-39,142
17,6,102,7,1,-30,-73,-97,-90,112
5,31,104,43,8,-46,-110,-205,-79,69
-14,-12,22,-22,-45,-66,-73,-102,139,139
30,-20,-69,-120,-140,-123,5,15,297,227
37,3,-24,-87,-119,-117,58,-8,129,135
18,28,0,-9,-25,-22,73,-67,-113,-53
27,35,29,-4,1,44,26,-91,-173,-145
-32,-10,27,-21,-21,46,-21,-66,-144,-161
-68,-36,-19,-49,-67,15,-16,7,47,-95
2,-20,-23,-72,-108,-63,-78,56,264,61
80,2,-51,-75,-111,-104,-207,-32,298,179
67,1,-85,-40,-47,-9,-153,-130,66,65
9,45,33,41,53,160,117,-57,-109,-188
-54,59,38,84,93,249,345,127,-101,-282
-130,2,-58,72,95,250,384,151,-89,-264
-100,-46,-52,15,30,153,274,58,-84,-131
-40,-31,-100,-8,2,74,146,44,-1,-49
-12,-9,-60,2,1,-25,-79,12,-3,-61
35,18,8,42,13,-150,-372,-18,8,5
9,21,-26,37,13,-168,-387,-68,-29,2
4,13,7,25,18,-106,-235,-78,-67,-59
10,27,23,53,42,-44,-107,-72,-102,-117
4,31,100,55,31,-13,-53,-43,-86,-129
-3,10,97,44,44,23,-25,27,-56,-73
-2,2,82,55,64,52,19,79,-35,-36
12,11,89,56,53,43,23,60,-78,-35
23,9,83,48,40,30,11,13,-85,8
53,7,79,42,24,23,0,20,-41,99
86,31,91,45,27,31,8,11,-26,92
95,2,60,2,6,18,-8,-13,14,128
119,1,29,-30,-33,-15,-6,-36,60,254
129,27,19,-19,-50,-42,-50,-64,62,283
69,-17,20,-31,-79,-76,-70,-11,214,303
37,-83,-41,-90,-122,-115,-89,-24,248,335
30,-110,-79,-115,-142,-141,-106,-94,102,317
25,-106,-51,-121,-136,-128,-87,-127,-70,131
25,-20,-7,-62,-79,-66,-27,-84,-124,-136
-27,49,-19,11,-8,9,62,-6,-93,-267
-27,75,35,31,15,33,74,10,13,-150
-90,-110,-33,0,85,272,156,-62,-37,-220
11,-16,34,55,99,228,100,-153,-276,-275
96,104,148,138,141,168,46,-223,-340,-226
139,200,233,192,163,69,-28,-261,-293,-121
96,177,229,168,139,2,-55,-187,-244,-28
-6,55,118,81,81,-27,-45,-64,-112,-43
-61,-30,19,8,9,-61,11,176,176,32
-29,-74,-58,-79,-92,-122,107,541,477,174
-22,-71,-71,-110,-134,-140,77,460,443,174
-111,-78,-52,-66,-88,-80,47,138,204,25
-192,-91,-40,-30,-46,-31,59,3,69,-114
-155,-60,-29,-14,-39,-46,49,-1,-40,-141
-123,-32,14,-4,-30,-40,92,64,-224,-253
-154,-52,26,-8,-17,1,149,139,-329,-350
-108,-46,10,-8,13,39,137,145,-150,-260
-47,-17,-4,-1,37,63,110,167,19,-142
39,48,44,28,33,42,24,88,13,-6
108,103,88,63,41,15,-59,-62,-65,99
81,78,81,46,44,28,-50,-80,-38,136
68,48,42,12,29,16,-1,1,160,172
85,25,-9,-63,-37,-39,-26,41,269,234
54,-23,-51,-117,-78,-70,-56,26,163,150
-20,-78,-90,-116,-72,-26,12,29,-11,-11
-48,-100,-98,-82,-48,7,64,70,27,-66
-6,-100,-95,-85,-63,-30,21,20,81,11
31,-80,-82,-86,-76,-65,-32,-72,14,21
-19,-60,-44,-42,-35,-24,-19,-95,-48,-76
-84,-46,-14,0,29,34,24,-47,-16,-100
-58,-18,-7,5,38,41,-13,-73,7,-60
-57,-22,-7,17,60,91,0,-73,-22,-111
-69,-46,-61,11,82,164,38,8,22,-104
-45,-23,-30,34,95,179,55,48,47,-38
9,28,45,65,120,163,44,38,41,12
82,95,75,65,103,63,4,9,37,78
159,120,71,47,50,-48,-50,-23,36,235
204,139,80,53,29,-105,-81,-5,71,345
196,135,80,61,23,-144,-98,32,94,295
163,109,74,48,-5,-134,-111,11,16,185
92,11,-34,-29,-68,-117,-92,10,-22,177
-15,-89,-120,-120,-124,-94,-66,0,45,111
-171,-148,-132,-113,-62,21,11,-19,65,-182
-290,-175,-133,-87,-20,92,98,16,58,-398
-202,-108,-190,-85,-57,40,71,-78,-10,-298
-88,-31,-188,-64,-69,-6,22,-208,-136,-225
8,35,-2,-4,-20,-25,-34,-291,-273,-140
73,83,103,59,19,-44,-102,-213,-232,30
46,66,123,87,55,-48,-83,1,-52,119
61,78,117,92,57,-34,39,225,151,238
119,90,100,71,42,-17,46,203,198,327
123,83,90,48,35,-20,-44,24,-43,227
58,7,12,1,16,-25,-66,-30,-145,113
-29,-75,-54,-41,2,-12,-7,39,-126,42
0,2,1,3,46,25,37,47,-38,3
29,98,100,79,111,90,56,6,-54,-105
38,118,123,97,119,109,42,-12,-59,-91
-22,62,99,81,101,93,18,-17,-51,-130
-45,38,85,84,79,52,0,-49,-18,-154
-2,92,102,82,45,-3,-46,-136,-32,-172
-101,20,40,35,3,15,-6,-57,-15,-254
-224,-127,-87,-53,-35,36,101,122,72,-251
-197,-148,-106,-77,-41,25,90,116,111,-186
-76,-67,-64,-62,-34,7,28,40,119,-110
20,-6,-20,-50,-36,19,25,-39,53,-33
1,-27,-20,-36,-18,62,39,-37,11,-18
-60,-81,-54,-38,3,95,73,47,79,-1
-20,-35,-26,-7,15,88,40,23,54,-1
36,33,25,21,38,94,40,-54,-77,-21
42,11,7,-16,24,117,118,4,-11,42
67,18,-41,-17,15,116,73,14,112,178
80,23,-114,-3,6,125,36,22,150,225
86,6,-136,-28,-6,133,144,181,181,220
31,-37,-174,-56,-35,96,211,251,115,127
-18,-47,-92,-73,-49,14,129,139,-7,58
7,-11,-58,-71,-77,-145,-127,15,-81,73
19,25,9,-47,-97,-267,-371,-27,-36,92
24,-10,7,-76,-126,-290,-351,2,32,193
39,-63,-47,-132,-160,-310,-250,55,110,300
86,-36,-73,-131,-139,-259,-216,21,181,396
78,-36,-129,-104,-112,-192,-205,-59,188,481
0,-86,-140,-84,-76,-117,-138,-87,115,319
-61,-88,-102,-58,-28,-58,-88,-88,-32,61
-71,-5,16,4,23,-14,-44,-108,-165,-227
-109,72,120,112,127,99,53,-97,-305,-550
-72,139,132,209,215,219,157,-52,-329,-550
-2,144,90,188,196,212,165,40,-188,-249
16,103,98,97,115,114,157,117,4,-104
40,84,74,54,59,56,105,86,49,-38
42,57,43,21,22,38,78,80,40,-11
22,32,76,3,0,39,38,79,-9,8
3,24,34,-13,-20,25,14,50,36,12
25,29,-44,-22,-43,-1,21,4,105,17
-23,5,-67,-14,-29,5,47,-33,69,-39
-80,-23,-32,-6,-2,34,98,21,28,-99
-122,-27,67,10,32,59,162,78,-17,-95
-78,-23,56,-13,35,61,161,46,15,-30
-17,-11,32,-34,8,83,120,21,93,0
32,52,45,12,16,54,-19,-49,95,44
128,87,27,12,7,3,-135,-158,94,155
81,25,35,-31,-5,44,-71,-169,28,200
-44,-28,17,-22,42,182,72,-133,-87,89
-24,-20,-1,13,103,221,124,-144,-129,9
2,-10,-47,29,115,166,151,-179,-179,49
-2,-46,-60,-10,78,98,144,-181,-195,26
22,-46,-40,-22,28,58,68,-122,-124,45
82,20,49,15,11,-37,-136,-44,-29,18
143,106,110,64,30,-177,-434,-126,14,0
113,113,126,89,26,-167,-472,-136,-5,-7
25,66,79,45,-14,-33,-205,155,-20,-43
-58,-15,-64,-19,-67,20,18,202,-59,-89
-100,-88,-228,-101,-102,80,173,78,-71,-81
-82,-87,-174,-106,-101,32,183,-10,-121,-70
-91,-82,-39,-61,-60,-32,69,-1,-151,-140
-50,-36,39,-4,-22,-128,-108,63,-5,-176
72,48,89,22,-37,-266,-215,112,210,-33
75,32,77,0,-64,-259,-105,222,218,69
69,50,99,14,-44,-178,-48,177,56,83
72,51,114,48,-13,-111,10,138,-38,102
49,39,107,56,13,-64,16,72,-110,71
95,72,100,56,32,-19,13,19,-30,53
136,85,79,23,44,-5,10,3,86,81
119,52,43,-9,14,-25,0,-12,120,153
84,8,-10,-37,-13,-21,10,-52,58,197
53,-20,-28,-40,-13,-10,-8,-101,-3,192
41,-3,-7,-19,15,4,-27,-92,-30,146
-16,-36,-43,-50,13,28,7,-38,-7,72
-120,-54,-69,-30,28,40,27,-73,-71,-154
-148,-32,-68,-5,14,33,43,-56,-58,-265
-152,-41,-107,-9,9,97,63,-6,21,-259
-166,-82,-125,-38,-15,163,76,-32,18,-205
-130,-98,-75,-79,-44,161,80,-16,60,-15
-45,-70,-77,-97,-79,87,49,-38,97,121
-11,-61,-77,-105,-87,-3,69,-29,133,133
25,-50,-76,-94,-64,-50,78,12,140,151
108,35,-46,-24,0,-104,-8,1,104,230
95,92,13,66,81,-129,-100,-21,68,139
67,87,16,94,94,-65,-70,-18,68,16
76,73,-20,65,37,-43,-12,47,82,42
56,72,58,54,21,-36,15,52,39,27
7,61,132,67,19,3,23,-12,-42,-92
19,54,42,40,-76,-10,30,0,-84,-167
7,12,-74,-2,-118,-39,37,45,-56,-168
-26,-29,-91,-39,-77,-34,9,29,-5,-134
-51,-45,-15,-62,-83,-60,-3,-11,25,-84
-68,-52,46,-44,-79,-56,-14,-41,21,-75
-76,-47,54,-30,-60,-49,-34,-51,-61,-101
-56,-50,26,-34,-44,-44,-15,-27,-72,-62
-24,-54,13,-32,-36,-10,46,-3,-38,1
12,-51,6,-40,-34,7,38,49,24,47
38,-31,10,-34,-22,7,9,68,56,29
22,21,67,17,22,26,8,72,47,-43
26,45,29,46,49,32,-15,41,30,-25
73,51,-42,39,57,14,-69,-35,-41,131
131,86,17,43,65,14,-72,-97,-124,311
70,49,92,51,78,35,6,-45,-122,265
30,-7,93,26,72,42,48,47,-25,144
-27,-50,57,-9,37,36,48,30,-62,32
-62,-48,55,-13,36,41,49,6,-109,59
-16,-6,48,-24,0,0,19,-23,-32,124
11,-1,8,-53,-60,-48,-41,-38,37,109
-35,-38,-32,-45,-70,-37,-35,0,84,37
-82,-45,-18,-27,-27,19,48,79,129,-52
-94,-29,-11,-40,-12,4,50,75,125,-134
-76,-17,0,-38,-15,-9,17,22,141,-182
-62,-7,11,6,23,23,43,37,188,-123
-28,-1,20,34,55,64,100,22,184,52
-60,-53,-14,9,44,97,134,41,87,65
-47,-24,-42,13,56,95,137,4,-31,-78
-2,26,24,41,74,72,103,-61,-159,-154
33,16,42,22,65,67,76,-48,-145,-124
43,-2,49,-7,26,21,-28,-63,-158,-62
69,79,78,24,24,-76,-175,-145,-199,-6
-9,42,21,40,57,-59,-100,-47,-154,-52
-23,-7,17,9,55,17,55,164,-15,-93
39,26,47,1,43,21,42,159,105,-37
14,27,45,-3,43,27,31,95,175,-70
-81,-19,24,-9,37,25,25,38,77,-184
-118,-46,-12,-31,13,1,-1,-14,-25,-219
-121,-68,-32,-50,2,-7,-8,-30,-64,-161
-111,-72,-12,-32,19,0,6,-54,-99,-117
-42,-29,-5,-4,43,-7,13,-62,-46,-78
22,18,35,22,68,24,46,-41,-16,-50
41,43,41,20,59,38,62,-24,21,-8
63,53,43,15,53,31,28,-15,54,68
87,79,71,45,76,21,36,-18,116,125
89,96,76,64,95,29,51,16,154,185
93,84,74,54,80,29,60,30,108,215
66,58,78,43,55,38,84,33,-2,214
21,29,63,29,33,62,151,71,-70,161
-13,0,61,11,-2,66,179,46,-149,22
-31,1,59,26,6,79,142,20,-172,-76
-36,4,25,12,-7,77,78,31,-110,-92
-68,-10,-21,-32,-42,25,-3,59,62,-136
-89,-50,-69,-79,-85,-61,-171,3,163,-126
-97,-79,-95,-97,-97,-118,-298,-68,167,-76
-49,-88,-124,-135,-104,-163,-346,-120,125,9
-2,-61,-92,-96,-61,-118,-270,-152,1,61
27,-13,-23,-33,-10,-26,-114,-28,-113,51
-6,-12,-60,-38,-23,59,60,148,-122,18
-14,-28,-60,-29,1,82,63,179,-17,14
33,-1,-36,-9,14,66,-14,105,101,74
84,9,-25,-9,7,46,-70,-3,70,136
102,38,7,30,44,26,-84,-122,-73,114
62,18,17,51,32,-21,-90,-168,-213,61
88,15,12,36,-25,-106,-110,-156,-159,108
183,67,16,40,-74,-207,-118,-11,81,240
210,86,-59,23,-87,-161,19,268,285,300
191,51,-53,-32,-107,-78,72,252,257,263
146,1,-42,-65,-130,-100,-40,20,169,181
-35,-114,-142,-103,-110,-32,26,-28,80,-40
-131,-139,-146,-91,-80,12,94,-89,-140,-283
-127,-59,-23,12,-10,30,84,-224,-426,-409
-133,-26,66,55,13,28,70,-282,-545,-371
-150,-21,70,60,21,8,56,-250,-460,-326
-119,3,79,62,34,-4,25,-157,-230,-170
-9,58,113,86,54,-27,-55,-70,-63,24
43,86,103,79,38,-10,-12,112,7,26
16,58,47,41,7,86,114,150,27,-30
-5,30,8,23,27,151,189,40,9,27
12,23,-1,20,33,162,238,34,66,120
11,6,-15,7,35,148,301,110,166,95
-3,4,7,19,30,69,184,86,109,16
51,74,75,62,18,-39,-77,45,118,25
47,93,61,64,22,-95,-212,36,125,-10
-38,14,-13,17,6,-89,-116,79,149,-79
-80,-25,-43,-23,-25,-66,-66,72,185,-67
-145,-70,-49,-37,-37,-16,-40,13,42,-125
-153,-73,-45,-23,-3,51,40,-19,-85,-182
-117,-67,-53,-50,-20,47,78,-25,-37,-100
-94,-84,-68,-73,-58,8,79,-28,6,5
-47,-66,-58,-78,-63,0,49,-54,-48,101
36,-15,-1,-42,-39,-2,29,-116,-75,171
70,16,20,-12,-23,-27,-11,-104,17,225
89,47,19,8,-11,-64,-119,-31,119,260
93,54,18,34,17,-66,-146,32,128,183
106,69,57,44,32,-34,-79,47,93,58
138,115,43,66,50,13,-32,25,50,37
135,84,-18,64,73,26,-43,-5,-5,62
120,43,22,43,53,32,-48,-16,26,76
78,31,-17,31,28,18,-51,-53,53,127
45,24,-5,26,24,20,-34,-34,45,165
30,6,18,4,3,29,-9,33,26,82
-14,-22,-15,-21,-23,8,-2,49,27,-31
-19,-46,-99,-47,-61,-20,-30,16,35,-128
-36,-33,-118,-21,-41,10,-20,-9,-19,-239
-86,-40,-47,16,-3,46,15,29,-29,-278
-92,-50,0,21,-3,40,5,0,-26,-220
-60,-61,20,10,-13,18,-33,-60,-112,-124
-54,-66,41,12,2,28,-5,-33,-117,-74
-46,-54,22,14,32,51,0,-15,-86,-46
-17,-16,21,24,36,46,-7,-15,-34,0
9,27,57,63,64,48,-6,-26,13,0
32,48,55,80,88,78,12,-4,25,-28
55,28,-20,42,66,85,49,73,87,17
84,30,-130,32,42,73,58,120,144,122
109,26,-104,11,23,53,34,119,155,229
100,-5,-23,-35,-6,11,-7,63,153,314
53,-31,-48,-63,-45,-23,-27,-10,103,277
9,-30,-28,-48,-51,-41,-21,-28,54,125
-42,-53,-2,-57,-69,-66,-40,-49,30,-18
-120,-64,-1,-62,-72,-60,-43,-61,7,-214
-167,-27,47,0,-4,-2,7,-44,-76,-374
-136,18,0,57,53,14,35,-35,-92,-457
-96,16,-35,47,59,21,42,-9,-39,-381
-57,12,32,18,41,28,50,37,20,-218
-19,5,62,1,31,26,48,54,34,-21
51,31,93,27,47,12,3,6,19,181
126,78,126,70,58,-3,-34,-37,24,241
131,105,102,79,75,23,9,10,72,189
113,80,44,61,66,29,31,39,70,103
92,39,28,16,26,-11,-23,-1,47,62
59,22,17,-38,-22,-84,-98,-50,3,78
69,32,3,-70,-76,-122,-133,-69,-19,108
89,35,4,-56,-79,-105,-112,-63,-56,83
48,-16,-41,-72,-94,-109,-81,11,16,112
-1,-78,-124,-123,-132,-124,-69,39,68,115
-53,-107,-186,-123,-124,-125,-79,-55,-66,-99
-190,-135,-191,-71,-43,-40,0,-50,-159,-344
-237,-136,-65,6,44,45,99,23,-93,-360
-194,-80,35,50,72,64,124,28,-69,-148
-80,-18,38,47,59,55,131,77,32,6
2,13,-24,40,29,42,94,115,108,65
47,33,-61,43,24,28,50,82,122,105
45,20,13,42,30,37,30,73,93,83
64,8,66,50,20,19,8,64,71,144
96,27,90,68,35,0,-15,24,62,210
70,16,69,50,21,-12,-20,-17,-3,152
57,10,37,19,-7,-10,-16,0,-3,84
67,18,-2,7,-14,-24,-27,6,30,46
56,37,-57,-3,-15,-28,-26,9,70,20
7,42,-24,5,-4,-2,24,43,67,-44
-50,37,27,24,0,23,54,33,6,-32
-83,-6,19,12,-13,6,33,-14,-57,-79
-77,-48,-3,-18,-37,-15,31,-28,-43,-144
-60,-42,12,-1,-36,-25,39,-28,-50,-239
-74,-32,23,11,-18,-9,53,-13,-74,-320
-80,-44,43,9,-9,-5,61,-7,-96,-248
0,-17,32,8,1,6,56,6,8,-100
46,3,8,3,-1,11,49,17,109,74
51,-5,-23,-16,-21,-14,8,-18,126,208
20,-16,-25,-18,-25,-22,2,-40,80,224
55,10,-39,-39,-20,-10,27,-16,66,229
115,28,-39,-58,-19,-3,19,14,88,227
87,52,18,-1,36,82,35,7,16,114
-9,35,37,48,87,158,40,-12,-108,-40
-78,-18,-17,39,78,135,27,-28,-138,-126
-84,-36,-49,-2,28,90,21,-16,-86,-112
-53,-22,-15,-12,16,3,-21,-43,-149,-116
-49,-28,8,-11,13,-48,-52,-54,-185,-117
-54,-52,-10,-26,-24,-91,-63,-25,-111,-62
-45,-35,-8,-31,-50,-137,-82,-31,-64,-50
-12,2,25,-17,-44,-116,-25,-26,-47,-44
-16,2,34,-10,-25,-89,8,-50,-80,-42
-58,-10,30,-2,8,-51,0,-70,-147,-46
-52,1,13,-13,45,-9,-15,-56,-98,-118
-39,-6,8,-6,77,20,-12,-41,-71,-145
-23,-4,-35,20,106,48,3,0,-29,-74
8,20,-12,35,109,87,7,46,-9,9
39,32,27,41,82,66,15,41,9,52
90,68,64,74,72,35,0,25,42,106
122,112,107,101,34,27,-23,25,60,128
133,112,108,79,-44,-18,-19,56,112,187
74,48,45,24,-48,-29,-18,83,169,163
36,25,28,7,-41,-19,-26,43,42,60
15,31,63,19,-67,-13,-20,23,-120,-34
-23,-3,49,6,-69,-17,-20,-9,-144,-63
-6,-20,30,-20,-81,-64,-66,-83,-103,24
46,14,-33,-20,-88,-83,-118,-124,-88,112
22,7,-35,-41,-70,-33,-68,-46,2,129
-24,-27,-44,-43,-38,-12,-10,18,85,55
-14,-20,-42,-7,-3,0,11,17,61,-13
13,-13,-15,-4,16,26,37,55,93,-39
19,-9,2,20,29,72,48,57,69,-51
68,45,39,46,44,59,17,6,76,27
158,111,89,75,59,17,-37,-50,107,128
148,102,97,92,56,26,37,47,92,128
100,30,3,25,-6,13,108,201,121,162
92,-13,-91,-36,-50,-24,64,179,142,129
66,-18,-54,-42,-40,-31,13,67,50,0
3,-47,-6,-30,-17,-25,-33,-26,-88,-66
1,-31,-4,-25,-13,-14,-49,-56,-108,15
-67,-59,-37,-37,-41,-13,-30,-20,-85,59
-126,-91,-62,-43,-51,-27,-20,-22,-43,25
-101,-77,-59,-52,-65,-45,-33,-31,44,51
-39,-54,-38,-49,-71,-41,-13,-10,114,114
18,-8,3,-20,-57,-25,-5,-5,168,135
11,10,28,-13,-12,16,31,15,151,64
-45,-41,-50,-38,5,89,140,94,147,-33
-37,-69,-64,-46,7,106,181,125,129,-25
21,-33,-29,-33,10,71,150,103,89,9
99,37,34,6,17,25,29,4,54,77
126,107,82,51,33,-20,-123,-96,9,102
67,65,25,40,50,64,-2,-73,2,109
27,10,-22,12,53,180,231,37,-51,11
2,6,22,29,51,162,236,-32,-165,-181
-77,3,46,75,109,217,240,-132,-258,-463
-163,6,44,135,194,349,267,-160,-338,-590
-142,19,57,128,159,277,124,-152,-305,-489
-38,67,109,124,94,51,-191,-203,-245,-303
-15,63,91,98,41,-128,-389,-144,-138,-208
-81,-23,-7,-6,-39,-138,-248,111,-41,-157
-94,-71,-83,-83,-95,-125,-80,185,11,-25
-80,-56,-66,-58,-75,-130,-30,92,8,23
-11,25,26,33,-16,-99,18,55,91,55
69,75,62,75,-8,-95,81,128,165,183
104,49,51,47,-29,-91,113,256,190,326
120,51,32,27,-29,-50,42,199,176,309
128,75,35,28,-13,-41,-48,64,137,186
143,99,39,41,-10,-94,-155,-10,74,161
116,73,-45,42,16,-89,-186,-3,66,111
82,31,-104,18,4,-62,-137,53,104,124
92,46,9,41,7,-59,-92,65,140,208
52,27,25,20,17,-32,-51,48,100,133
8,0,-12,-5,2,0,-58,12,86,11
-80,-55,-61,-32,-10,6,-91,-41,115,-67
-139,-95,-96,-78,-28,21,-122,-92,188,-102
-128,-102,-108,-111,-75,-9,-153,-144,133,-97
-131,-104,-114,-104,-96,-26,-171,-208,-103,-200
-78,-55,-39,-64,-74,-27,-147,-303,-402,-231
-33,-14,5,-30,-70,-94,-128,-258,-414,-128
-13,5,18,-29,-75,-144,-52,16,-176,-27
28,45,68,1,-44,-100,37,83,-138,-57
-17,37,72,32,1,-17,66,-65,-235,-176
-93,12,0,54,54,108,177,-35,-175,-260
-147,-14,-116,55,102,239,305,101,-79,-294
-121,-31,-134,48,91,245,325,172,-17,-174
-81,-30,-95,47,85,172,220,125,14,3
-2,12,25,47,72,55,26,81,57,122
37,50,113,69,54,-92,-185,-25,9,116
14,45,105,57,37,-141,-181,-72,-85,33
-32,-2,79,5,3,-149,-54,47,-45,16
-30,-13,40,-19,-34,-159,-11,71,-23,-28
-59,-24,21,-23,-43,-107,23,115,-17,-111
-76,-43,0,-51,-56,-71,64,166,42,-85
-71,-79,-40,-74,-70,-52,81,128,32,-1
-83,-135,-94,-119,-84,-41,90,118,100,103
1,-97,-144,-150,-110,-70,48,87,212,247
92,-20,-132,-103,-86,-66,-19,11,186,298
115,26,1,-40,-36,-38,-39,-25,120,242
103,82,100,46,30,13,-27,-81,20,67
69,120,156,98,93,48,-10,-86,31,-48
70,134,174,122,147,76,51,-19,137,67
82,116,159,122,152,86,51,-51,113,221
68,93,152,102,114,64,0,-114,32,229
99,90,69,52,56,13,-55,-129,65,171
101,76,-94,-9,2,-13,-63,-104,91,71
4,23,-115,-51,-12,8,-13,-54,58,-52
-76,-52,-36,-60,-21,21,18,-23,9,-39
-68,-92,-72,-97,-65,-5,-18,-16,65,38
-44,-101,-92,-125,-106,-45,-56,-59,7,42
-70,-84,-132,-99,-96,-63,-72,-92,-107,-57
-119,-61,-157,-40,-43,-11,-37,-60,-174,-211
-171,-82,-77,-20,-5,37,0,-51,-204,-283
-153,-74,-3,-23,32,143,56,-71,-130,-162
-68,-70,-33,-43,32,256,98,-98,-45,75
1,-59,-2,-21,37,274,141,-101,-40,262
56,-23,22,-5,53,233,170,-64,-21,275
135,16,29,0,36,142,178,-39,-9,309
211,92,77,27,18,52,109,-33,-24,301
217,153,138,94,45,-46,-114,41,7,99
143,193,226,181,98,-150,-275,80,52,-143
52,112,178,148,73,-150,-164,91,77,-109
-3,17,65,63,4,-92,-86,89,126,-41
-42,0,43,44,-1,-79,-156,-29,77,-98
-54,-6,40,31,33,-40,-218,-170,-81,-153
-58,-21,19,3,20,-29,-138,-157,-127,-145
-121,-50,-10,-20,-42,-45,40,29,-92,-183
-185,-107,-48,-56,-63,-45,135,178,-19,-189
-171,-91,-45,-49,-47,-22,67,150,23,-131
-86,-47,-8,-25,-29,-24,13,125,79,-57
0,-16,8,-21,-24,-36,31,187,213,54
28,-3,2,-22,-31,-18,13,168,193,126
21,2,11,-18,-6,27,6,81,18,72
-5,23,33,21,52,89,31,37,-95,-27
35,47,28,22,76,91,34,1,-83,-40
79,55,34,13,67,40,20,2,4,77
127,55,15,-8,19,2,39,53,149,180
164,86,32,-14,-28,-42,31,73,200,223
139,102,50,1,-33,-70,0,56,163,225
120,72,49,3,-30,-36,31,70,126,254
88,21,21,-42,-49,-5,84,-1,52,200
-71,-90,-56,-110,-96,2,113,-30,-26,-37
-185,-174,-138,-161,-131,15,161,62,13,-238
-140,-145,-155,-152,-138,3,133,74,60,-178
-94,-87,-128,-128,-115,20,90,16,33,-117
-54,-9,-77,-65,-70,-29,-20,9,1,-143
38,100,-23,44,-27,-148,-272,-17,36,41
85,69,25,18,-32,-193,-348,-95,-8,223
86,-14,-34,-64,-64,-143,-232,-82,33,252
46,-44,-48,-76,-46,-60,-104,-31,73,136
-24,-47,4,-10,36,46,-13,-39,-31,-42
-102,-52,33,24,62,73,5,-76,-139,-158
-126,-39,33,50,70,68,0,-87,-166,-288
-119,10,10,113,146,119,51,-93,-217,-371
-137,26,1,134,176,134,59,-113,-271,-380
-105,3,-47,87,128,59,-43,-123,-188,-232
-49,-4,-82,48,62,-16,-115,2,-53,-100
-35,-11,-59,28,12,-21,-49,198,5,-63
-25,-6,35,-7,-19,-18,-40,141,-14,-79
-44,-48,24,-52,-59,-31,-72,27,-19,-54
-60,-89,-25,-93,-77,-43,-59,-20,14,-15
-29,-71,-12,-84,-73,-52,-72,-66,-14,10
-14,-64,1,-53,-33,-16,-55,-70,-74,2
-30,-65,24,-35,14,36,20,6,-70,2
-22,-6,89,35,73,102,70,70,3,-13
-14,21,95,59,94,122,87,55,-1,-17
-48,-22,9,46,106,129,137,87,9,-48
-21,-19,36,39,74,85,119,97,48,14
52,39,89,49,61,36,31,28,27,60
78,70,113,46,47,0,-24,5,28,104
62,53,88,20,25,-14,1,68,73,79
-16,-5,11,-9,2,-3,93,167,126,-64
-43,-22,-6,-32,-24,-27,83,149,117,-102
-4,-34,-15,-67,-72,-78,38,134,157,-7
47,-23,-17,-81,-89,-125,-3,52,141,82
69,32,16,-47,-61,-117,-45,-71,-2,53
36,33,3,-21,-22,-42,-14,-101,-94,-18
17,-32,-84,-72,-55,13,16,-48,2,37
47,-52,-166,-96,-79,9,-19,-53,80,146
67,-15,-42,-36,-19,51,-76,-189,-60,155
33,0,22,12,56,123,-39,-204,-172,102
-37,-57,14,30,75,120,33,-87,-181,57
0,-42,4,20,53,68,49,-67,-97,78
93,48,60,29,52,15,108,-49,-28,66
83,79,87,43,40,-6,234,79,-47,-24
38,52,76,17,7,-32,245,196,-30,-94
49,49,75,29,1,-54,132,112,7,-21
4,36,5,63,68,-4,77,36,-26,34
0,-6,-61,43,71,0,0,28,27,19
43,4,12,21,35,-80,-169,-25,114,17
50,15,32,20,15,-96,-263,-102,101,19
8,23,47,36,26,-48,-209,-123,0,-42
-44,-9,39,9,6,-28,-157,-89,-61,-22
-54,-34,-54,-53,-51,-64,-138,-101,-76,-4
-41,-90,-138,-129,-86,-73,-72,-53,-8,63
-63,-138,-156,-154,-82,-54,-14,4,52,118
-31,-117,-149,-156,-98,-93,-19,8,65,118
44,-41,-56,-113,-77,-119,-78,-18,23,124
98,53,32,-26,-2,-61,-100,-44,-8,30
70,88,100,63,104,85,-61,-75,-102,-138
61,90,112,89,134,153,-33,-94,-151,-123
137,67,58,34,60,110,-50,-48,-39,218
177,47,31,7,-49,4,-79,-44,33,486
148,27,48,23,-100,-80,-82,-26,47,528
145,48,74,36,-50,-107,-72,-56,-2,425
100,36,69,50,13,-77,-30,-111,-90,201
25,6,14,18,6,-37,7,-133,-116,-148
-94,-40,-102,-48,-75,21,107,-14,24,-440
-209,-100,-160,-76,-99,37,161,5,20,-519
-234,-127,-134,-59,-57,62,168,-52,-96,-486
-201,-130,-88,-57,-46,69,200,-50,-102,-389
-114,-79,-75,-76,-70,39,185,-13,-20,-230
-30,5,-62,-24,-41,14,114,8,-8,-129
11,60,73,46,20,-1,-24,66,100,12
80,75,125,70,41,-49,-184,133,239,274
176,70,67,-9,-34,-109,-248,96,268,445
213,40,-13,-82,-92,-102,-239,-55,149,395
155,-17,-96,-97,-78,-58,-177,-109,69,231
53,-58,-91,-70,-29,-2,-96,-120,-38,19
-61,-45,2,-1,54,74,-24,-90,-84,-276
-46,47,141,141,173,145,35,25,-27,-225
6,96,195,181,173,131,108,198,31,27
-27,34,109,95,84,66,100,170,39,60
-62,-12,84,54,43,-5,-7,6,-33,-41
-59,-15,72,39,2,-27,-3,3,-156,-174
-53,-14,27,-8,-44,-33,56,83,-118,-240
-80,-54,-7,-57,-82,-63,7,36,-77,-181
-130,-112,-61,-87,-69,-26,30,68,-15,-48
-102,-73,-28,-55,-27,2,29,69,40,-67
5,22,19,-12,-21,-1,20,44,113,-4
43,6,-5,-48,-45,20,73,81,159,224
78,-19,-37,-91,-51,28,97,71,120,413
79,-51,-72,-117,-63,-2,27,69,42,549
121,-36,-61,-92,-54,-36,-12,68,57,664
187,27,18,-18,-7,-26,-35,23,-45,430
122,22,40,19,29,-14,-15,29,-164,-38
-9,25,43,56,59,16,-47,-24,-263,-513
-72,41,52,80,93,91,-12,-9,-190,-617
-82,16,30,73,99,128,81,123,-11,-418
-94,9,35,69,93,99,68,151,53,-277
-105,8,13,42,54,28,21,91,69,-177
-149,-37,-29,-5,0,-20,-16,-4,7,-174
-188,-57,-28,6,-5,-23,-19,-61,-107,-277
-166,-53,-13,20,5,-4,-15,-52,-115,-248
-58,-47,-38,-11,-40,-33,-45,-58,-31,-36
-10,-31,-46,-25,-57,-35,-55,-52,1,35
-79,-78,-71,-41,-53,6,11,17,-15,-46
-94,-60,-64,-38,-26,31,67,45,-18,-84
-25,7,-22,-1,8,6,18,-22,-42,-154
20,58,21,34,38,35,25,-32,-71,-177
18,72,66,97,99,94,90,7,-37,-147
-21,50,100,123,125,106,94,-17,-30,-79
-6,35,51,58,76,81,61,-3,60,2
44,40,10,18,33,34,-2,-34,102,41
77,51,19,20,7,4,-50,-106,28,115
89,59,45,19,6,-6,-79,-162,-91,151
18,5,4,2,-6,24,-4,-69,-79,26
5,9,-6,4,-24,21,10,-40,-53,-81
15,30,-28,1,-45,-28,-35,-76,-50,-88
-49,-9,-82,-19,-60,4,-8,-57,2,-159
-108,-75,-74,-64,-67,103,53,-42,26,-212
-80,-72,-92,-68,-50,133,83,-66,46,-115
-30,-40,-145,-64,-61,105,90,-37,84,-1
38,6,-60,-66,-77,53,90,-39,76,67
84,39,7,-15,-43,16,111,-51,21,94
154,84,47,21,-29,-44,58,23,95,187
211,98,45,19,-54,-153,-107,77,232,353
176,58,10,2,-67,-168,-137,29,257,412
104,22,6,-8,-65,-108,-96,2,204,389
136,29,-3,-53,-103,-153,-126,13,161,418
146,30,8,-41,-87,-193,-251,-73,-7,369
114,16,-45,-18,-46,-115,-234,-75,-17,430
98,8,-72,-51,-57,-86,-141,-24,90,411
82,-13,-54,-72,-86,-124,-142,-66,10,223
28,-27,-66,-38,-50,-85,-112,-58,-52,-9
-70,-51,-59,-7,-3,-9,-68,-55,-119,-258
-222,-58,-5,47,56,60,20,-11,-207,-582
-281,-54,-28,66,61,64,71,7,-219,-680
-195,-27,-114,39,22,30,27,-20,-163,-443
-76,0,-81,-6,-20,24,19,0,-12,-176
47,12,-42,-43,-48,-11,1,11,77,23
85,26,-22,-30,-59,-43,-72,-91,-4,112
37,-15,-41,-46,-53,-28,-32,-61,15,152
25,-34,-40,-34,-24,3,27,-2,99,183
22,0,33,45,52,55,29,-75,-23,54
72,98,123,133,120,86,-16,-131,-114,9
22,104,115,123,118,110,84,109,6,30
-75,53,89,112,112,159,196,268,82,-145
-80,79,120,143,139,175,139,142,17,-267
-58,59,106,110,108,143,32,14,-49,-202
-45,18,80,83,93,136,10,-31,-67,-153
-70,-10,44,51,88,138,30,-54,-84,-164
-101,-45,4,21,69,132,49,-65,-71,-178
-58,-32,-2,13,37,68,7,-109,-89,-62
-17,-28,-24,-19,-43,-26,-47,-137,-57,191
-15,-38,-41,-47,-67,-87,-56,-74,48,349
-23,-16,4,7,-8,-83,-28,-44,54,309
-50,-15,20,43,45,-47,33,23,69,119
-108,-45,0,37,56,-20,80,86,68,-153
-92,-1,45,66,45,-1,63,60,-1,-311
-3,59,89,82,45,-2,30,-14,-113,-228
70,18,34,18,-8,-19,44,68,-15,134
130,0,-48,-43,-54,-27,46,134,174,467
191,35,-11,-50,-61,-50,7,84,260,533
180,14,-32,-74,-87,-62,-16,91,299,368
91,-18,-64,-104,-117,-86,-48,30,153,111
-3,-20,-38,-80,-108,-98,-79,-58,-54,-155
-38,-12,-8,-57,-83,-86,-98,-74,-135,-249
-46,-17,-22,-72,-67,-68,-73,-110,-159,-270
-32,-52,-63,-109,-90,-82,-46,-91,-72,-149
-48,-90,-82,-131,-113,-98,-15,-13,26,-17
-68,-90,-88,-118,-106,-78,30,46,22,2
-38,-60,-74,-96,-68,-38,43,52,17,-37
-26,-34,-51,-44,-5,10,57,37,0,-54
22,6,4,-4,23,11,59,-8,-54,-16
61,39,44,11,20,5,51,-26,-105,-61
85,70,59,29,30,8,66,5,-40,-88
130,112,97,64,58,26,44,11,20,11
70,107,135,119,133,103,48,13,-20,-11
-25,20,71,95,153,198,82,21,-28,-79
-53,-35,15,35,110,197,67,6,4,-95
-10,-22,-24,7,58,117,12,-53,-44,-26
38,24,-49,0,14,69,1,-32,-71,19
-15,5,-42,-3,5,23,15,20,-54,-11
-68,-30,-34,-21,-21,-35,46,56,0,-114
-83,-42,-23,-28,-54,-98,32,66,33,-113
-59,-40,-12,-37,-83,-164,-23,23,51,-35
-40,-38,-35,-60,-101,-154,-24,24,81,13
-51,-62,-57,-75,-99,-114,33,94,146,49
-42,-46,-37,-36,-60,-69,38,97,138,53
11,13,9,2,-22,-56,7,13,74,86
42,38,45,27,24,-36,-15,-41,-17,86
44,65,95,57,46,-21,-37,-53,-62,91
75,85,105,66,38,-8,-17,-45,-25,108
52,56,3,30,45,52,106,74,111,101
1,25,-21,8,31,72,157,181,174,57
-6,20,22,10,16,54,106,137,108,51
-46,-1,-9,13,16,62,88,28,-47,9
-61,-14,-23,3,11,45,52,26,-29,0
-15,28,19,0,-3,-15,-66,-1,21,31
26,28,29,-2,0,-34,-187,-55,46,81
-2,-42,-30,-42,-11,47,-104,-62,54,102
-33,-108,-96,-89,-48,84,-25,-60,35,156
-35,-117,-110,-92,-54,49,-30,-99,0,175
-41,-90,-71,-79,-50,4,-60,-132,-68,102
13,-54,-47,-73,-70,-46,-133,-154,-76,113
92,-4,-21,-30,-70,-79,-176,-167,-164,129
69,15,54,7,-22,-58,-122,-120,-236,-15
-3,20,69,43,44,-29,-63,-55,-156,-210
-9,15,38,44,60,-37,-24,-29,-89,-238
-19,22,42,46,46,-43,59,58,-60,-185
-39,25,50,40,38,-23,48,125,-37,-146
-22,-9,10,-7,28,-15,-6,99,57,-62
12,-34,-43,-51,1,-13,-16,84,153,118
49,-15,-59,-51,-11,-36,-34,36,173,182
62,29,1,7,6,-29,-34,-3,121,114
-4,40,40,74,56,33,31,58,59,-61
-64,28,33,68,54,68,33,14,-78,-178
-90,13,10,44,24,31,-10,-76,-134,-162
-121,-51,-59,-21,-32,-20,1,-51,-38,-109
-44,-66,-114,-95,-102,-98,-31,-70,46,18
-22,-63,-136,-112,-120,-103,-62,-56,97,65
-2,-30,-89,-78,-75,-35,-19,38,114,48
6,24,4,-5,-6,-3,-1,68,63,65
40,74,64,66,37,18,2,47,10,83
71,87,1,94,87,55,22,38,-17,140
99,66,-90,51,68,12,-10,0,26,285
99,71,-16,31,39,-9,-43,-45,-2,290
71,85,47,62,64,23,-9,-80,-101,121
52,84,81,74,97,58,29,-61,-101,-95
21,94,108,93,107,78,57,-29,-111,-258
-24,61,72,75,80,46,14,-57,-136,-280
-70,-4,3,12,28,30,30,16,-72,-224
-99,-23,-13,-11,12,41,42,49,-66,-210
-132,-49,-19,-15,5,35,30,0,-121,-210
-161,-86,-43,-46,-29,50,30,-24,-120,-226
-195,-130,-84,-87,-52,52,3,-42,-95,-197
-177,-130,-97,-97,-55,52,-10,-50,-29,-113
-167,-119,-58,-67,-21,63,43,-52,-49,-61
-143,-94,-52,-36,25,52,80,-65,-90,-67
-77,-47,-89,-26,34,44,63,-66,-63,-54
14,19,-1,30,65,15,-17,-17,-7,-33
90,87,91,100,109,-42,-123,47,38,17
116,97,120,106,97,-59,-60,135,94,118
149,95,113,92,69,-12,65,143,128,272
137,67,75,65,41,96,231,54,115,281
109,54,52,43,-30,148,328,-1,112,151
100,46,16,2,-76,121,317,9,167,62
14,17,27,-8,-24,160,286,-33,91,-67
-99,-64,-17,-33,3,189,324,-25,-25,-142
-153,-95,-76,-49,-28,81,203,7,-39,-136
-17,-21,-60,-29,-64,-148,-230,-48,38,2
112,61,42,11,-66,-302,-535,-44,118,148
81,5,2,-28,-93,-290,-398,148,153,210
37,-79,-107,-109,-148,-247,-223,201,167,278
37,-88,-189,-108,-107,-137,-171,47,97,232
-3,-94,-147,-73,-25,18,-106,-24,-2,57
-27,-74,-119,-22,22,78,-69,-73,-99,-126
-47,-52,-75,12,44,90,-60,-97,-148,-243
-11,-15,-2,32,47,77,-53,-68,-65,-235
86,74,97,71,61,21,-88,-69,-44,-108
128,106,155,108,77,-42,-121,-93,-119,-64
89,65,132,87,46,-71,-67,9,-49,-25
93,21,36,-4,-17,-27,39,189,102,78
48,-13,-2,-45,-31,83,62,122,80,35
-15,-50,-14,-46,-27,123,56,-7,23,-37
-62,-72,-31,-49,-20,102,60,-89,-73,-95
-57,-51,-7,-40,-30,49,89,-134,-128,-138
-36,-26,40,-8,-27,-46,73,-129,-86,-33
30,3,37,-14,-56,-169,27,28,81,246
116,-4,-57,-72,-107,-242,-42,200,217,583
213,21,-8,-87,-122,-277,-208,156,230,779
240,43,-1,-84,-129,-263,-210,23,164,650
162,8,-39,-104,-138,-189,-47,54,190,373
17,-51,-77,-121,-111,-99,101,211,171,13
-136,-59,-15,-42,-12,8,185,183,-52,-431
-233,-10,79,80,111,137,229,153,-129,-771
-181,37,104,125,153,168,207,156,15,-487
-53,61,109,119,144,111,123,113,125,-39
-5,51,66,101,120,36,0,36,84,79
-40,47,71,89,88,37,-12,-6,14,-13
-69,29,80,73,56,51,35,-31,-84,-142
-55,42,90,79,52,38,47,-112,-261,-250
-27,73,124,91,50,15,26,-160,-299,-231
8,68,91,66,25,-14,-12,-155,-191,-196
-37,-3,3,-15,-26,-14,-18,-71,-38,-179
-52,-50,-59,-61,-47,-13,-38,-78,3,-132
-42,-50,-62,-62,-60,-20,-38,-103,-17,-95
-56,-28,-7,-27,-18,-1,-6,-120,-105,-108
-43,15,44,32,41,17,-2,-113,-169,-148
39,51,-6,59,55,40,-4,-51,-101,-29
118,53,-65,13,26,21,8,11,2,217
115,20,-17,-14,5,23,40,91,81,295
135,36,22,4,-14,5,3,66,46,278
133,57,17,35,10,8,-33,21,-27,183
73,44,40,40,36,56,0,49,-6,11
33,29,58,47,68,90,35,60,26,-135
63,47,10,42,66,52,0,-14,0,-98
61,37,-31,22,32,16,-27,-41,-27,-38
62,10,24,-14,-19,-8,-39,-40,-22,67
83,1,1,-34,-42,-34,-73,-71,-5,166
43,-13,-9,-17,-42,-69,-128,-189,-131,54
7,-40,-62,-46,-81,-92,-131,-246,-221,-20
-19,-122,-166,-156,-152,-100,-37,-65,-46,-36
-108,-140,-126,-129,-106,-60,12,-30,-49,-210
-178,-122,-97,-64,-38,12,31,-25,-36,-382
-195,-122,-119,-56,13,120,110,58,67,-297
-149,-85,-42,-51,31,166,146,105,148,-89
-81,-3,35,-1,50,146,130,102,164,15
-34,16,50,13,62,130,176,137,153,55
-46,4,18,-1,60,117,189,199,116,28
-8,23,31,33,63,62,92,78,-59,28
74,74,79,83,71,-2,-22,-93,-223,69
121,93,74,75,54,-50,-51,-79,-170,78
69,37,-48,21,-10,-70,-16,4,-17,92
-4,-3,-88,1,-21,-88,12,39,39,60
-12,13,3,0,-12,-69,22,53,78,36
-8,23,-9,1,-25,-65,0,18,90,52
-49,-13,-65,-12,-33,-59,4,-19,54,18
-45,-29,-85,-56,-71,-77,-1,-40,33,51
-42,-17,-21,-43,-59,-84,0,-52,2,68
-54,-9,1,-4,-11,-38,16,-23,-16,33
-39,-3,1,-9,0,-11,36,57,44,68
-5,-11,-4,-20,-21,-37,3,15,38,129
12,-34,-24,-24,-26,-19,-11,0,15,155
62,10,-33,4,21,39,25,69,34,143
126,101,-2,63,73,85,-12,27,27,153
77,107,13,91,91,94,-37,33,20,120
31,81,95,78,68,52,-61,63,63,131
14,24,52,32,20,13,-101,24,77,151
45,44,37,13,-7,-24,-142,-63,-7,82
16,23,15,-14,-49,-15,-96,-89,-120,-82
-75,-31,-7,-53,-61,13,-20,-6,-153,-228
-110,-38,6,-28,-35,27,-32,-43,-186,-287
-129,-87,-19,-27,-42,9,-61,-102,-130,-228
-91,-82,-49,-62,-63,-10,-51,-99,-26,-53
-75,-69,-110,-46,-47,-25,-107,-104,-63,-13
-70,-26,-65,29,7,-36,-187,-113,-147,-44
-80,-41,0,28,10,-20,-160,-133,-173,-82
-26,-27,15,11,-17,-30,-83,-100,-101,-7
54,9,50,0,-9,-46,9,-36,-45,2
46,32,84,20,42,46,224,41,-99,-94
11,-1,35,-17,20,96,330,27,-90,-72
-4,-12,0,-14,6,141,324,60,-16,-54
11,45,62,41,12,120,226,59,-7,-100
6,56,104,73,32,57,128,5,27,-69
33,67,101,88,50,23,88,4,115,67
100,90,103,71,54,-41,-143,-13,142,177
130,88,94,74,46,-114,-378,24,168,225
131,80,99,90,54,-152,-432,113,210,250
76,16,42,22,19,-78,-301,185,175,246
12,-69,-80,-67,-41,5,-118,144,148,295
-9,-135,-166,-128,-83,44,-7,15,41,280
-7,-99,-89,-112,-92,37,47,-109,-118,156
-56,-83,-93,-89,-76,-5,169,-73,-89,20
-80,-134,-221,-129,-100,-41,233,57,121,-2
-89,-111,-188,-124,-106,-88,192,37,109,-90
-77,-42,-41,-73,-79,-85,76,-22,-51,-232
-37,-34,-2,-33,-50,-94,-121,60,-32,-228
28,25,51,15,-21,-161,-317,41,5,-80
103,36,71,6,-37,-184,-373,-67,-57,-1
73,32,85,29,11,-67,-204,-84,-137,-123
27,63,110,65,55,20,-44,-54,-94,-193
34,105,136,90,61,22,-14,10,23,-101
86,126,138,89,35,-21,10,153,77,-4
84,126,157,95,33,-21,50,164,-9,-52
16,106,161,111,49,0,32,69,-75,-106
-60,30,20,49,17,14,37,36,-15,-37
-95,-50,-59,-26,-43,1,41,31,72,7
-100,-76,-38,-40,-54,0,39,7,66,-2
-109,-92,-41,-66,-50,-9,1,-53,-3,-3
-121,-114,-112,-81,-79,-33,-31,-70,-32,-57
-115,-95,-135,-36,-41,-21,-11,-61,-27,-117
-56,-61,-31,1,-11,18,-13,-38,19,-63
-17,-35,-46,21,15,81,-16,-20,23,-32
-14,-26,-54,31,34,108,31,72,47,-15
29,-9,7,30,21,72,-4,51,-17,16
46,6,33,47,32,81,-37,-53,-156,-35
38,36,43,45,30,79,-34,-73,-139,-40
25,19,37,35,24,62,-38,-68,-44,17
18,35,49,54,54,78,-13,-54,36,71
47,63,57,39,42,77,4,-43,59,97
83,38,23,-7,-8,12,7,-72,33,131
92,-21,-91,-67,-68,-28,9,-59,31,180
23,-77,-202,-132,-121,-45,28,5,71,125
-65,-107,-115,-134,-133,-78,7,6,58,23
-81,-96,-62,-93,-108,-83,-28,4,32,-19
-76,-99,-86,-90,-103,-71,19,107,58,-44
-67,-103,-145,-105,-107,-93,42,200,106,-93
-25,-75,-101,-91,-92,-93,0,95,83,-103
44,-13,1,-50,-59,-86,-47,-20,-5,-28
37,11,42,-7,-7,-35,-11,2,-48,-19
-10,-21,42,23,63,83,54,65,-15,18
20,-29,36,35,88,139,42,35,-15,166
44,11,54,52,76,108,-1,-21,-95,187
81,72,101,90,82,79,-49,-104,-223,92
84,84,98,86,53,41,-32,-121,-247,-79
43,68,69,46,24,-13,-18,-106,-185,-213
-41,45,66,21,9,-56,-26,-125,-150,-298
-63,50,76,36,-5,-132,-27,-113,-55,-261
-58,55,61,28,-38,-167,-10,-76,3,-144
-87,-5,5,-29,-80,-118,110,113,105,-41
-124,-68,-60,-82,-108,-105,173,248,234,-36
-70,-28,-36,-67,-83,-99,76,119,164,-73
6,-8,-20,-55,-65,-115,-33,-15,107,51
-50,-86,-80,-68,-18,-89,-42,-12,84,109
-68,-60,-26,4,67,-39,-21,-76,-101,4
-58,-26,44,70,135,57,39,-78,-204,-87
-22,-60,-28,22,111,95,69,23,-80,-61
58,-21,-119,0,60,62,21,13,-12,25
120,44,-25,22,63,71,46,18,44,112
152,68,46,23,32,131,118,61,160,233
149,62,31,9,-58,122,107,55,192,293
57,48,62,21,-25,128,71,18,93,149
-31,25,82,59,42,138,106,45,36,4
-31,34,65,74,44,90,71,30,19,8
-6,42,71,64,21,-10,-51,-29,-5,-25
-60,0,59,34,5,-91,-92,-54,-33,-146
-126,-72,-13,-29,-47,-110,-61,-41,-49,-230
-142,-104,-48,-59,-83,-115,-26,-32,-46,-227
-57,-76,-62,-72,-99,-106,-51,-92,-30,-116
2,-39,-4,-59,-72,-74,-45,-194,-69,-27
-78,-114,-68,-73,-40,24,111,-53,5,-1
-88,-132,-108,-80,-40,63,205,112,117,85
0,-46,-64,-52,-31,30,160,80,81,189
44,12,-18,18,15,28,124,59,12,191
81,68,65,92,72,0,44,90,5,77
116,103,18,115,105,-36,-49,108,31,34
104,117,9,92,65,-24,-59,49,4,28
52,92,76,71,34,6,-80,-14,-65,-81
-22,17,25,32,12,26,-80,-9,0,-139
-41,-40,-42,-18,-25,39,-3,31,89,-100
-10,-32,-35,-29,-39,39,78,-5,17,-57
31,-4,-1,-24,-51,15,84,-18,-22,-44
14,-24,-35,-81,-69,13,53,-46,-47,-81
-57,-57,-46,-71,-48,14,37,-105,-155,-157
-13,-19,-35,-42,-56,-28,15,-120,-203,-93
-36,-42,-41,-46,-58,-62,-11,17,-77,-17
-95,-90,-64,-57,-30,-82,-128,-11,-10,-39
-37,-55,-48,-56,-29,-71,-140,-31,14,36
17,-17,-19,-17,13,-26,-68,26,38,82
89,62,8,70,78,10,-56,41,11,70
137,84,16,82,92,40,11,214,95,109
89,54,49,76,98,137,124,379,165,94
86,80,54,101,125,193,103,220,125,82
75,73,22,93,134,231,120,67,93,96
40,54,76,76,121,272,159,-6,54,98
85,67,53,39,37,131,17,-47,107,290
117,68,22,-12,-41,-38,-160,-107,141,450
62,26,-53,-63,-83,-77,-129,-79,133,354
-49,-57,-84,-109,-121,-111,-86,-46,51,103
-83,-75,-103,-143,-193,-235,-122,-92,-39,-95
-91,-40,-183,-118,-180,-264,-144,-79,0,-239
-135,-32,-202,-68,-113,-179,-81,-77,6,-332
-111,-24,-106,-54,-69,-137,-79,-114,-53,-275
-50,19,-66,-10,-28,-126,-146,-84,-98,-148
-1,92,94,78,56,-85,-196,-34,-96,-26
9,98,106,98,85,-9,-143,-16,-71,22
-6,64,-19,68,69,43,-84,-33,-61,9
-8,52,-28,85,88,71,-55,-70,-52,-10
6,78,73,101,86,78,-21,-78,-52,-38
26,92,127,110,82,84,26,-92,-97,-135
23,89,136,123,117,115,69,-96,-159,-188
0,75,111,137,139,111,80,-71,-136,-132
38,76,-5,127,100,37,-1,-39,-32,-3
67,53,12,101,60,41,18,118,75,96
11,-11,2,31,20,48,90,163,102,132
0,-51,-44,-53,-62,-36,56,76,63,200
-9,-83,-79,-90,-105,-82,-3,12,26,198
19,-83,-172,-99,-117,-85,-54,-76,-63,140
-22,-101,-129,-91,-112,-25,2,-140,-180,-54
-158,-109,-13,-35,-49,70,92,-172,-308,-357
-176,-99,10,-1,20,111,179,-105,-200,-358
-47,-42,11,-16,19,66,164,-90,-90,-136
55,-10,15,-27,0,19,131,-68,-8,75
-7,-45,17,-5,42,46,153,86,104,88
38,13,61,41,79,-1,-37,181,193,104
196,156,159,128,108,-77,-286,31,86,176
162,165,174,153,117,-79,-250,-36,7,97
84,65,52,63,35,-47,-15,114,63,44
0,-21,-4,0,-36,-28,76,165,40,-11
-25,-45,-34,-11,-30,-24,2,22,-93,-69
4,-41,-137,-29,-42,-29,-41,-56,-103,-29
-8,-61,-140,-87,-93,-57,-4,79,53,54
-51,-94,-110,-131,-128,-78,28,191,128,99
-38,-86,-80,-137,-148,-112,-20,116,96,149
-20,-100,-89,-158,-165,-120,-50,43,110,182
0,-65,-67,-129,-128,-96,-67,-9,79,194
1,-6,-6,-37,-56,-50,-74,-73,10,138
14,18,20,-1,-29,-23,-38,-23,83,137
65,59,52,19,-16,-22,-16,11,191,237
148,141,135,81,30,5,-13,-2,168,301
119,133,148,103,80,58,42,34,76,287
55,39,42,22,56,79,108,122,48,255
-2,-12,-24,-25,16,103,157,176,11,63
-66,17,11,14,46,130,157,71,-176,-366
-138,50,57,67,100,167,154,13,-281,-730
-155,53,105,119,147,208,167,30,-239,-737
-137,46,127,132,184,243,161,-6,-222,-623
-112,21,93,100,165,236,124,-96,-200,-424
-91,-12,22,52,107,144,68,-97,-126,-215
-126,-72,-28,-5,51,63,49,-75,-111,-128
-161,-106,-68,-58,-20,4,80,-48,-75,-80
-121,-84,-72,-77,-54,-72,29,-5,19,-3
-9,1,6,-22,-36,-147,-121,-17,36,151
94,46,28,19,-21,-171,-207,-6,70,300
151,73,29,36,-9,-127,-176,-23,83,339
137,66,68,52,6,-82,-132,-74,53,241
90,47,45,33,1,-46,-107,-51,70,114
-14,23,19,16,-6,-19,-78,-9,72,-125
-64,21,-2,21,6,0,-68,-42,16,-297
-45,35,12,44,28,41,-29,-45,13,-225
12,54,29,59,48,107,48,18,65,-40
38,60,30,58,47,122,128,104,63,22
10,34,22,32,24,86,140,139,32,21
-17,5,16,17,34,59,57,35,-16,7
-48,-31,-13,-15,14,22,0,-55,-83,-17
-48,-27,-27,-42,-33,-82,-55,-80,-70,-1
-29,-32,-42,-67,-72,-149,-86,-81,-67,-3
-40,-42,-41,-60,-92,-153,-65,-65,-77,-36
-27,-33,-42,-56,-97,-176,-44,-30,-25,-5
-30,-14,-4,-7,-54,-137,-13,-27,-30,-42
5,25,53,41,2,-71,-11,-29,-16,2
25,23,32,27,31,9,67,39,101,97
45,-17,-53,-31,25,120,197,136,209,173
68,-44,-126,-91,-26,122,238,110,221,259
34,-97,-269,-139,-54,136,177,1,159,303
57,-96,-204,-142,-59,111,72,-30,154,344
146,-22,-78,-103,-34,58,17,-64,81,288
191,76,-8,-13,44,-13,-59,-161,-30,210
114,110,73,75,132,-40,-166,-255,-104,53
40,108,132,97,135,-8,-211,-214,-45,-25
52,110,142,99,96,-34,-253,-102,56,56
20,67,111,73,47,-57,-130,190,147,37
-75,8,61,39,0,-87,-15,305,81,-155
-94,0,64,47,-8,-147,-77,36,-84,-287
-77,20,86,66,0,-150,-93,-105,-142,-302
-72,-4,27,20,-35,-54,-29,-158,-172,-214
-127,-115,-110,-89,-74,40,70,-101,-184,-156
-93,-143,-151,-136,-110,23,130,20,-39,3
28,-55,-76,-98,-120,-6,139,-25,58,146
75,8,-11,-60,-96,-5,137,-90,9,116
47,36,29,3,-13,21,144,-7,-21,-4
-14,50,70,60,63,50,153,153,54,-85
-35,37,58,45,69,54,110,213,88,-50
1,40,55,24,39,24,46,185,107,45
-20,29,52,42,63,1,-67,106,72,20
-29,-3,14,11,36,-16,-92,108,106,-9
20,25,19,0,24,-24,-84,56,30,-54
44,24,24,-10,3,-37,-68,4,-15,-23
-37,-53,-31,-55,-22,-27,-11,33,25,2
-48,-70,-62,-97,-64,-45,-45,-26,-40,-16
-18,-65,-82,-122,-80,-55,-93,-80,-94,-51
-7,-33,-129,-89,-56,-31,-95,-118,-155,-108
-23,-21,-89,-46,-21,8,-53,-138,-177,-142
-2,-43,-36,-54,-17,19,-36,-102,-67,-65
37,-16,-15,-40,-3,23,-30,-105,28,72
101,38,38,4,24,16,-19,-141,21,189
161,41,26,1,-3,-20,-10,23,159,369
194,30,8,-27,-46,-81,9,223,310,492
210,27,-4,-44,-49,-85,-93,39,169,464
174,-10,-23,-46,-32,-81,-128,-113,-26,299
89,-16,-17,-21,13,-20,19,-7,-114,95
107,40,39,9,36,23,119,137,-84,73
104,56,76,38,72,53,113,177,-58,79
46,21,53,23,51,40,71,134,-66,19
-14,-25,-9,-17,2,16,62,142,48,-5
-107,-44,-11,-8,-7,20,45,120,97,-173
-210,-54,6,13,14,37,27,55,30,-423
-260,-90,1,26,31,46,39,9,-28,-500
-238,-90,-20,18,38,52,50,2,-5,-495
-137,-53,-30,11,23,77,90,-58,-17,-378
-74,-22,-4,24,45,136,137,-142,-91,-302
-34,-10,9,34,43,146,179,-147,-104,-219
-3,-5,-9,15,35,126,195,-84,-38,-132
23,16,-4,-11,36,84,160,-33,8,-58
27,28,10,26,60,43,41,-42,-15,-38
49,56,13,70,99,-4,-121,22,45,21
127,134,126,116,106,-86,-269,19,87,181
149,135,127,91,78,-101,-269,-95,14,230
95,75,62,51,45,-58,-159,-94,-36,140
-8,12,11,26,18,-18,-83,-68,-55,-42
-113,-38,-52,5,17,19,-17,-78,-11,-187
-157,-70,-132,-21,-12,25,24,-48,80,-151
-176,-95,-94,-47,-16,22,27,-51,68,-137
-188,-98,-95,-32,-7,20,43,-64,-2,-167
-153,-68,-141,-17,-30,-20,54,-20,3,-113
-83,-26,-91,-18,-48,-54,9,54,7,-3
10,58,-23,26,-27,-70,-127,34,-36,66
54,110,136,98,26,-66,-204,-66,-91,79
68,112,160,86,25,-63,-141,-34,18,154
117,71,69,1,-37,-44,-102,36,102,210
67,-1,3,-43,-33,15,-16,120,82,132
78,44,64,-1,30,37,18,127,0,115
146,81,100,20,32,8,-25,36,-31,255
131,39,42,11,9,-3,-49,15,40,339
95,-11,-17,-31,-16,-25,-42,64,173,338
88,-20,-33,-61,-59,-64,-35,119,237,256
75,-29,-40,-84,-92,-93,-71,67,223,157
56,-74,-100,-154,-158,-142,-117,0,190,132
28,-73,-170,-193,-192,-124,-88,-8,175,186
-8,-80,-259,-175,-150,-60,-37,-79,-17,130
-55,-81,-167,-129,-97,9,-13,-161,-251,-59
-45,-59,-51,-104,-76,43,28,-153,-243,-107
-23,-27,-8,-54,-35,70,111,-103,-137,-23
6,16,-27,11,25,82,136,-91,-140,-1
-42,5,12,46,77,129,168,-84,-253,-251
-149,-26,83,81,122,193,261,28,-223,-448
-198,-47,82,101,147,187,225,174,-26,-378
-167,-30,102,122,151,115,91,143,15,-252
-121,20,117,126,164,117,105,91,-39,-230
-43,60,108,98,128,98,107,69,-40,-155
15,72,87,73,74,12,-13,25,8,-63
49,84,126,74,55,-69,-169,-33,24,-3
41,70,104,70,68,-59,-189,-82,-14,3
-28,43,78,61,80,-15,-117,-84,-37,-97
-78,11,3,51,50,-5,-61,-54,-1,-143
-96,0,-114,39,9,13,-39,-101,-33,-145
-127,-30,-105,25,22,59,31,-71,-21,-85
-114,-67,-39,-15,-4,93,99,-11,70,52
-2,-23,-30,-29,-19,117,23,-89,50,138
32,-17,-52,-36,-4,125,-48,-181,0,100
-11,-38,2,-14,33,200,-15,-230,-66,-32
-72,-58,2,14,83,248,25,-145,17,-65
-72,-91,-52,-22,72,220,62,114,242,24
-57,-93,-66,-28,44,126,69,255,242,41
-59,-37,39,19,91,7,-60,63,-14,-125
32,70,124,67,114,-95,-126,-39,-165,-156
103,97,101,30,36,-187,58,163,-119,-15
82,63,68,24,9,-209,99,152,-130,25
50,12,51,29,12,-165,87,28,-81,79
45,-20,14,-5,-30,-130,115,81,45,128
77,-5,12,-27,-88,-118,52,111,79,186
94,35,50,-9,-188,-182,-109,80,51,176
62,15,29,-28,-190,-205,-181,15,-8,78
44,11,2,-46,-155,-167,-166,-53,-83,11
-5,-12,2,-7,-97,-108,-121,-82,-148,-104
-61,-45,-29,-13,-67,-65,-48,-58,-100,-132
-54,-64,-122,-62,-104,-93,-11,-13,11,-28
2,-39,-168,-65,-110,-115,-31,-6,40,126
86,24,-17,-25,-70,-87,-73,-50,9,273
134,66,49,7,-29,-40,6,-14,-8,341
119,63,51,27,4,26,151,103,4,273
84,59,-75,17,-9,43,192,145,64,141
54,25,-136,-2,-18,61,167,131,120,42
60,27,-24,1,-9,78,125,85,80,-17
57,33,44,28,19,85,88,26,18,-53
61,17,-52,17,25,63,39,25,67,28
78,3,-50,-12,3,10,-51,22,135,137
44,7,-15,3,10,-13,-124,-25,98,138
-11,12,-8,6,5,-2,-107,-42,23,36
-23,3,31,-41,-27,-29,-115,-79,-11,-12
-80,-71,-10,-105,-73,-24,-83,-79,-8,-56
-115,-108,-51,-115,-88,-17,-41,-81,-28,-150
-108,-83,-33,-79,-77,-17,-60,-92,-60,-207
-101,-67,-11,-41,-60,-12,-39,-95,-67,-231
-84,-36,2,-17,-41,4,6,-68,-61,-234
-38,4,29,32,18,23,25,-21,-5,-91
49,31,38,49,41,-4,-10,41,74,171
144,86,42,65,28,-35,-22,128,93,338
192,122,95,57,6,-44,-67,45,58,353
157,89,44,16,-18,-35,-91,11,134,298
106,58,22,22,-10,-47,-103,-2,103,133
59,26,48,22,11,-41,-95,-22,13,9
51,-5,-6,-17,-19,-40,-59,18,65,68
47,-11,-71,-9,-27,-38,-36,12,49,146
63,-31,-98,-42,-49,-56,-26,27,48,205
38,-38,-50,-57,-55,-31,-36,-7,-20,85
-64,-75,-53,-39,-35,13,-35,-11,-63,-180
-178,-64,16,33,47,89,-10,-57,-186,-499
-221,-58,48,103,90,153,24,-98,-254,-561
-166,-46,74,126,94,135,23,-97,-190,-432
-81,-27,49,89,74,67,2,-65,-67,-190
-58,-51,6,46,76,63,63,-44,-56,46
-66,-77,-8,48,119,113,158,21,-121,122
-40,-61,-1,32,114,103,159,95,-123,74
52,30,67,40,71,93,84,30,-130,53
47,18,49,37,75,129,91,35,-102,-14
-98,-68,-3,12,103,199,171,112,-42,-228
-126,-31,32,34,113,252,244,28,-48,-381
-52,-5,51,16,28,206,284,-2,30,-272
-42,-7,30,-26,-32,128,252,-31,1,-169
-30,-13,21,-36,-51,17,160,-2,16,-76
14,-7,5,-59,-93,-102,3,51,133,65
33,9,21,-49,-95,-174,-172,29,181,168
53,-9,32,-30,-82,-267,-404,41,236,248
50,-18,-12,-36,-74,-249,-359,104,256,307
40,-10,-8,-37,-83,-190,-188,74,154,251
53,12,6,-33,-74,-146,-123,-41,42,225
39,34,-11,13,-2,-37,-30,-90,-85,166
24,31,26,25,27,51,80,-29,-65,93
0,15,33,20,39,72,80,42,4,-23
22,54,56,46,33,53,24,19,18,-109
51,100,12,64,35,11,-29,37,70,-91
56,91,-47,63,39,-27,-128,4,45,-33
22,32,-92,13,14,0,-91,19,74,26
6,-18,-28,-20,7,21,10,79,118,51
5,-13,-19,-7,12,10,32,19,26,-15
73,5,6,-33,-31,-25,9,7,34,39
99,-6,-12,-72,-88,-80,-18,43,169,143
87,-18,-119,-82,-99,-116,-77,-16,174,178
62,-40,-125,-88,-80,-59,-60,-52,143,204
8,-54,-30,-74,-46,-28,-11,-36,129,172
-29,-39,0,-51,-20,-10,7,-19,102,94
-13,8,-35,-18,-9,-6,15,11,68,32
-13,5,-50,-12,-13,-22,-3,-14,-29,-45
-63,-17,35,0,11,3,3,-45,-152,-192
-2,43,91,32,41,18,-22,-99,-252,-144
40,45,91,41,61,23,-12,-63,-231,-18
57,39,93,46,68,39,5,-7,-185,9
92,18,47,5,50,70,-12,-33,-127,94
82,8,28,-4,46,105,-30,-124,-178,88
46,-1,20,-7,24,104,8,-164,-206,7
-9,-5,32,6,28,111,71,-110,-155,-171
-44,1,37,27,44,73,92,-42,-83,-227
-61,-10,15,11,18,-4,80,-38,13,-134
-153,-45,-65,-17,-18,-54,43,-56,-3,-194
-203,-40,-56,-3,-17,-66,-37,-117,-126,-233
-165,-36,20,4,-20,-87,-112,-137,-93,-114
-93,-70,-31,-45,-84,-117,-63,100,119,115
-32,-107,-115,-131,-168,-135,9,272,208,254
5,-113,-140,-179,-166,-93,-6,121,124,253
0,-82,-86,-118,-76,24,26,32,43,79
-28,-33,-16,-22,3,87,103,63,29,-122
-61,30,61,64,79,154,194,146,-13,-259
-79,69,129,128,152,222,202,61,-122,-209
-81,79,137,141,162,195,123,-98,-264,-215
-79,80,132,134,149,143,93,-125,-270,-305
-78,87,132,121,126,94,130,-60,-137,-277
-60,82,125,93,95,24,147,-68,-81,-183
28,104,113,87,55,-58,81,-51,-15,-45
117,152,134,80,10,-149,-78,19,53,105
64,91,82,49,-2,-146,-140,105,120,140
-10,36,24,3,-10,-66,-71,130,155,83
-62,-15,-64,-27,-13,-39,-27,119,154,28
-109,-82,-93,-47,-16,-43,5,74,150,28
-22,-86,-82,-79,-39,-40,8,35,189,158
-8,-84,-67,-72,-30,-1,17,23,169,138
-27,-62,-56,-57,-22,20,11,30,117,64
11,-32,-45,-58,-51,-16,-65,5,129,117
49,-3,-20,-47,-55,-47,-97,-67,57,129
56,23,18,-15,-25,-27,-39,-121,-114,-10
47,49,37,0,9,12,51,-69,-186,-97
27,48,29,4,34,52,157,18,-99,-50
54,86,-13,33,47,78,144,35,-15,57
58,93,36,60,60,57,32,3,-30,63
82,114,117,85,67,10,-76,-54,-46,47
102,135,144,59,13,-60,-161,-83,-32,54
122,107,97,0,-42,-114,-244,-95,-9,77
28,9,2,-69,-54,-35,-213,-111,-21,-16
-98,-100,-111,-128,-65,54,-138,-103,-52,-93
-115,-113,-205,-131,-91,14,-148,-128,-44,-54
-68,-98,-225,-132,-108,-1,-99,-164,-32,-9
-6,-90,-223,-141,-108,-13,-23,-187,36,81
15,-43,-78,-81,-72,-48,26,-171,78,105
7,-60,-22,-59,-48,-80,177,98,143,127
37,-67,-80,-61,-55,-100,262,430,229,234
76,-53,-147,-85,-80,-102,208,394,172,326
80,-55,-105,-97,-92,-73,96,176,77,309
122,-11,-87,-86,-80,-56,37,67,68,270
140,12,-5,-52,-44,-67,-26,-34,-53,109
168,104,16,40,39,-36,-85,-79,-181,4
146,124,-18,110,106,36,-56,7,-129,37
91,53,-64,81,84,46,-27,151,23,53
56,38,-40,66,66,0,-74,113,13,7
54,0,-12,4,23,-24,-67,66,33,63
-24,-54,2,-32,20,-28,-68,9,-7,-76
-131,-81,3,-37,32,-21,-67,-56,-78,-289
-180,-78,21,-12,54,-13,-57,-75,-102,-320
-246,-96,32,22,116,73,49,-45,-107,-363
-231,-96,24,17,116,122,161,3,-80,-305
-154,-67,11,-4,56,95,197,95,45,-152
-86,-42,31,20,14,88,193,133,73,-41
21,28,86,38,-51,61,157,117,83,80
79,66,106,33,-93,-17,85,85,84,113
107,67,56,19,-73,-86,-36,55,90,127
110,59,68,23,-10,-56,-132,-35,18,115
26,20,49,21,37,48,-61,-90,-68,15
-53,-29,5,-13,11,90,36,-73,-70,-30
-50,-39,1,-29,0,83,71,-95,-40,-13
-27,-32,4,-36,-8,84,89,-133,-48,-30
-32,-29,2,-39,-11,32,117,-109,-40,-79
-79,-34,-9,-17,-5,34,103,-18,2,-160
-29,33,36,42,10,-10,-44,53,72,-82
63,105,58,84,5,-117,-217,56,153,52
86,81,60,56,-40,-145,-198,33,170,78
51,3,14,-14,-81,-108,-86,49,157,148
49,-22,-18,-45,-85,-95,-48,29,87,270
81,-8,-61,-27,-75,-95,-60,-33,0,277
55,-8,-73,2,-34,-31,-16,0,-60,125
31,13,42,60,14,20,25,30,-95,-64
31,45,101,117,49,28,14,28,-54,-148
-1,34,103,111,58,39,1,6,-28,-202
17,40,86,72,48,37,5,-6,-29,-183
51,31,56,48,25,26,-24,7,2,-53
7,-12,9,30,33,35,-9,36,17,-8
13,22,40,43,43,22,-22,-11,-64,-23
38,50,71,45,35,9,-27,-52,-139,66
37,20,29,9,5,8,-13,-46,-60,222
36,-24,-27,-24,-34,-5,-11,-47,21,214
6,-93,-118,-87,-84,-43,-43,-51,82,122
-28,-143,-204,-161,-146,-104,-79,-77,118,21
-93,-123,-189,-140,-128,-102,-72,-119,32,-170
-148,-84,-126,-58,-60,-52,-33,-138,-98,-309
-59,13,33,36,17,-30,-82,-177,-188,-230
23,55,82,77,57,1,-50,25,-130,-122
-37,5,50,61,79,77,46,205,-76,-177
-85,-2,45,77,154,189,63,63,-183,-270
-18,55,61,98,173,216,52,-12,-223,-242
57,94,85,93,114,174,30,-13,-119,-80
84,85,57,61,36,61,-9,15,18,70
86,66,66,41,4,-24,-15,27,120,144
53,40,50,22,0,-66,26,37,178,142
19,16,28,27,-11,-84,31,24,130,101
-3,16,24,35,4,-60,84,42,37,47
24,33,13,12,-10,-57,143,101,46,42
-9,1,-19,-12,-30,-46,132,107,-10,-50
-75,-42,-48,-15,-20,3,91,0,-89,-145
-57,-66,-77,-43,-39,5,50,-106,-60,-60
-48,-75,-54,-68,-57,-27,22,-146,-27,41
-40,-64,-43,-68,-54,-49,-38,-136,3,96
-1,-16,8,-6,-8,-50,-74,-83,14,106
43,31,43,30,24,-28,22,32,99,107
43,39,24,-7,7,-8,106,151,130,11
34,61,44,34,41,23,87,72,54,-76
49,82,81,71,77,38,69,38,21,-34
69,102,89,69,61,20,64,63,4,-4
29,63,48,40,29,10,30,49,21,3
85,78,-13,13,-4,-11,15,30,63,78
107,138,71,76,20,0,15,-19,9,91
78,110,9,54,11,3,16,-40,-17,96
13,5,-68,-32,-16,-1,28,16,14,53
-25,-88,-97,-100,-15,4,57,98,102,43
-3,-105,-119,-125,-29,-21,38,89,112,57
0,-106,-121,-130,-63,-64,0,43,60,3
-16,-94,-127,-107,-54,-59,-20,-25,-23,-49
-65,-89,-57,-57,-22,-8,2,-36,-38,-39
-113,-113,-55,-40,-8,31,37,-4,-6,-45
-122,-107,-105,-28,9,35,35,-40,-61,-88
-80,-47,-24,1,9,5,-33,-138,-137,-83
-53,-47,12,-6,-12,-10,-58,-118,-69,-23
-19,-40,-19,-43,-38,-60,-115,-63,65,113
67,21,24,-17,1,-55,-155,-130,63,159
46,47,68,66,111,127,0,-17,12,56
-33,27,75,115,178,271,116,129,-12,-47
-28,53,109,157,196,272,91,85,-78,-132
-46,34,95,134,183,242,66,10,-123,-184
-100,-25,42,65,124,174,32,-2,-61,-133
-97,-49,-7,6,68,84,-13,17,21,-60
-75,-56,-37,-44,-7,-39,-75,-1,61,9
4,-13,3,-50,-50,-116,-148,-78,13,76
-42,-7,34,-24,-34,-97,-77,-66,-79,-36
-145,-57,-4,-36,-33,-66,18,-4,-117,-156
-128,-69,-38,-58,-73,-90,7,22,-15,-94
-26,-22,-36,-71,-91,-97,-57,-4,90,37
1,-1,-23,-44,-56,-96,-88,-59,21,16
-60,1,17,26,23,-52,-69,-107,-172,-124
-57,33,63,72,73,-8,-9,-47,-132,-128
27,60,59,59,61,18,9,2,14,10
71,74,59,41,62,37,12,49,88,95
44,71,56,47,71,67,73,66,70,86
33,63,48,57,58,98,121,74,27,49
55,81,64,65,-8,90,138,100,74,101
87,75,52,16,-78,15,83,66,108,209
54,18,-3,-30,-88,-9,36,0,79,191
20,-8,-36,-47,-105,-33,-42,-72,5,109
-16,-5,-15,-23,-70,-49,-127,-111,-27,-1
-103,-24,5,12,-14,-6,-89,-103,-48,-181
-161,-64,-19,17,-31,-6,-20,-91,-72,-313
-132,-53,-26,24,-53,-13,38,-25,-45,-278
-40,-24,-21,32,-41,-21,-5,61,22,-64
40,38,36,76,6,-60,-162,49,54,113
64,60,54,75,38,-46,-153,8,61,193
49,24,14,9,48,50,-27,-4,72,169
51,14,-9,-62,-12,98,83,4,102,146
35,-6,-44,-100,-94,80,135,12,84,89
-3,-39,-61,-85,-67,61,112,-51,-24,-18
-17,-38,-56,-79,-37,28,107,-68,-65,-75
-27,-22,-25,-32,1,2,58,-39,-45,-113
29,22,45,36,52,-46,-94,-10,-46,-82
105,104,128,84,45,-93,-199,144,25,11
130,141,157,90,32,-125,-226,140,19,31
53,67,74,44,25,-105,-164,51,-5,4
-40,-34,-42,-40,-29,-58,-88,38,0,-10
-63,-83,-81,-96,-76,-63,-58,54,4,-16
-4,-69,-93,-113,-120,-107,-64,42,0,56
66,-3,-45,-87,-128,-112,-92,29,31,143
85,39,2,-53,-98,-94,-91,28,83,153
61,35,-4,-35,-62,-46,-55,17,83,129
42,20,-5,-13,-21,7,17,-8,30,90
47,7,-14,-26,-7,23,26,-17,26,75
62,47,25,11,54,61,5,-26,-20,4
87,65,54,38,71,72,-1,-35,-73,-15
115,58,53,41,52,79,7,-21,-30,75
108,30,-5,10,43,74,7,-7,14,180
108,6,-127,-37,7,36,0,-47,14,247
48,-3,-62,-17,18,27,4,-73,-22,185
-28,-18,30,44,55,39,15,-78,-115,90
-39,-42,7,21,23,9,64,-33,-110,9
-71,-63,-39,-20,-24,-10,124,127,46,-86
-84,-64,-55,-43,-66,-39,92,109,72,-196
-136,-67,-32,-24,-51,-30,67,34,-4,-345
-171,-56,-93,-2,-11,1,27,-9,-67,-404
-142,-58,-129,-22,-20,13,-24,-81,-114,-312
-151,-43,4,3,11,45,7,-97,-154,-278
-68,-10,54,23,29,39,13,-70,-145,-190
52,21,61,18,4,-3,-20,-72,-87,-61
76,42,85,58,14,-3,-39,-103,-51,-12
69,48,72,59,26,25,-8,-55,-50,-22
30,33,32,36,25,66,34,24,-29,-68
38,37,41,40,47,51,32,4,3,-46
83,46,54,51,55,53,32,26,126,69
4,7,31,49,71,136,74,37,154,60
-29,0,11,53,79,159,57,-27,36,26
-29,-29,-91,43,71,149,54,0,35,46
-25,-60,-98,10,13,79,35,9,81,120
3,-94,-68,-82,-88,-42,1,4,106,177
-20,-139,-138,-154,-177,-165,-27,-19,117,180
-19,-119,-126,-140,-191,-249,-80,-74,81,144
15,-22,-18,-65,-118,-209,-98,-119,-6,61
-11,-7,20,-36,-61,-98,60,7,-26,-102
-15,35,42,12,-5,-35,112,91,-45,-134
-15,49,-40,44,34,-15,34,84,-35,-19
-12,-1,-127,3,34,-15,-30,95,-14,63
59,18,-99,-7,29,-13,-46,-11,-85,121
97,32,0,-18,9,-9,-16,-14,-58,143
77,49,48,2,2,7,15,38,-2,25
55,64,89,24,25,17,-19,-18,-18,-77
42,41,75,14,28,70,19,-37,-14,-87
-25,-2,9,-1,56,185,102,12,-16,-127
-42,-17,37,5,93,193,79,3,-49,-146
-51,-29,38,4,51,127,60,116,-8,-130
-61,-38,6,-14,-12,61,22,202,5,-130
-48,-25,12,-27,-46,-43,-57,90,-25,-142
-25,-1,-8,-23,-69,-133,-61,76,-35,-135
-31,-26,-15,-33,-80,-153,-41,89,-30,-93
-31,-46,-51,-48,-95,-150,-31,90,44,-22
4,-37,-66,-73,-111,-150,-20,99,134,85
67,0,-43,-60,-104,-153,-41,69,176,188
92,11,30,-29,-73,-114,-23,75,213,239
117,32,51,1,-36,-80,-23,57,197,279
74,24,57,37,9,-30,-47,44,174,250
36,41,96,82,67,28,-20,21,74,123
53,72,122,110,83,58,13,-31,-60,19
131,110,132,127,79,37,-13,-121,-180,32
133,131,80,120,82,27,-18,-118,-171,9
57,120,52,103,78,38,2,-31,-37,-27
19,81,75,80,56,5,-30,-28,31,-1
-10,12,-32,32,20,-30,-22,-50,31,-32
-48,-43,-136,-25,-40,-48,-9,-46,24,-122
-88,-86,-109,-83,-90,-81,16,-21,56,-175
-98,-147,-137,-146,-136,-83,18,-8,86,-69
-106,-173,-207,-170,-136,-64,42,-23,46,58
-70,-123,-125,-106,-85,-42,67,-35,38,155
29,-44,-36,-55,-66,-25,45,-73,64,244
96,-2,0,-21,-16,26,41,-18,119,242
29,0,34,38,70,96,80,69,142,60
-2,12,11,73,115,132,74,79,102,-92
3,27,-70,67,113,126,-4,24,-31,-236
37,88,11,99,138,110,-68,-46,-213,-391
119,172,185,148,156,95,-175,-134,-362,-383
110,143,176,102,117,57,-162,-145,-339,-287
23,52,109,61,88,25,-89,-96,-265,-237
-33,0,69,45,65,13,-1,16,-138,-148
-48,-27,41,23,24,-5,60,115,-6,-29
-33,-57,0,-17,-27,-28,37,86,-5,69
-53,-94,-51,-64,-64,-9,22,-18,-50,131
-96,-127,-68,-91,-75,38,34,-90,-71,132
-121,-139,-132,-109,-89,88,114,-90,-42,88
-150,-174,-175,-108,-65,145,187,-51,-24,-4
-158,-187,-131,-103,-9,180,178,-16,-28,-80
-151,-144,-56,-72,56,144,99,34,-25,-164
-92,-34,49,25,109,62,-71,7,-42,-226
-14,57,103,104,76,15,-129,-44,-86,-174
65,106,89,109,11,-79,-166,-43,-53,-37
73,59,33,23,-26,-150,-177,35,104,100
86,55,31,3,-35,-168,-125,134,201,160
132,106,71,54,-12,-165,-84,261,243,202
104,92,78,43,-4,-134,-59,241,199,207
47,48,42,18,-12,-90,-63,82,109,183
13,5,3,14,-24,-79,-58,-21,40,128
10,-8,11,22,-21,-53,-82,-76,21,117
42,18,37,17,-15,-37,-104,-112,4,165
4,2,37,9,-11,-14,-82,-102,-19,114
-61,-37,-7,-22,-33,-22,-18,13,75,104
-101,-64,-26,-35,-22,-24,-2,33,84,24
-118,-58,-27,-28,-15,-24,6,-8,7,-59
-128,-44,-20,-16,6,14,36,-33,-83,-129
-96,-35,-61,-6,35,120,76,-50,-100,-92
-22,-11,-60,-14,16,160,104,-54,-32,25
-4,-10,-86,-9,0,147,151,-27,23,74
-5,-8,-51,-13,1,129,180,3,43,55
16,19,23,6,22,96,178,-14,10,15
17,26,40,20,22,43,147,37,27,-6
66,41,41,28,9,-39,5,200,140,126
118,110,105,89,69,-74,-158,124,43,127
92,111,145,108,96,-40,-129,-19,-64,5
65,68,87,68,54,-50,-85,-56,-40,-51
33,44,75,55,47,-41,-126,-140,-83,-114
-14,-5,-3,-15,-6,-42,-170,-138,-106,-182
-104,-89,-64,-85,-49,-34,-96,-30,-33,-229
-121,-98,-84,-98,-74,-33,19,3,-8,-174
-108,-103,-78,-96,-82,-24,86,21,-1,-131
-73,-91,-83,-90,-68,-11,89,13,-9,-94
-17,-57,-79,-40,-15,-11,12,28,-16,-45
62,-16,0,-11,20,-75,-153,34,19,68
107,33,18,13,41,-116,-241,16,59,162
100,28,-90,16,73,-42,-170,11,72,231
128,44,-130,23,86,10,-106,-6,100,293
127,49,-108,18,65,24,-96,-9,106,280
106,47,-5,11,38,44,-60,-3,93,241
112,83,96,42,-19,36,-30,-32,-11,186
124,114,128,61,-44,-7,-39,-94,-160,88
83,86,109,54,-22,-5,-47,-80,-170,43
63,40,65,0,-55,-32,-42,-53,-61,88
21,-7,15,-22,-74,-43,43,49,3,34
-100,-44,38,5,-25,20,103,113,-7,-125
-177,-61,13,2,12,114,105,61,-1,-216
-154,-73,-22,-22,15,132,107,49,60,-144
-101,-72,-41,-47,-20,110,89,48,91,-5
-83,-100,-67,-59,-41,68,61,17,43,90
-58,-92,-59,-38,-31,11,56,-27,-52,97
7,-53,-12,-2,-7,-28,71,-7,-55,103
58,-13,7,6,-10,-76,46,7,17,175
49,15,46,31,6,-101,-21,-42,-18,72
-9,11,44,40,44,-37,-17,-85,-91,-115
-35,19,23,49,60,37,14,-63,-92,-185
0,45,35,50,61,69,24,-62,-103,-217
49,105,96,79,73,49,-10,-129,-179,-264
19,98,120,96,102,47,3,-138,-183,-276
-75,3,42,61,99,96,90,-95,-139,-242
-94,-20,9,19,62,61,89,-89,-86,-163
-16,29,24,8,11,-25,-13,-135,-29,-73
7,13,5,-21,-58,-93,-49,3,130,74
-39,-62,-59,-88,-162,-141,6,259,262,130
-72,-77,-55,-91,-176,-128,17,189,157,45
-54,-35,-28,-44,-115,-88,2,47,20,7
-23,-3,0,-28,-76,-36,-14,8,-19,4
-50,-23,-35,-42,-60,4,1,72,11,-3
-29,-13,-66,-42,-51,0,16,105,66,43
37,22,-7,-33,-59,-14,6,28,21,79
54,31,35,-6,-12,7,16,-29,-30,58
62,17,12,-10,27,24,49,28,59,83
98,31,1,-11,25,2,17,32,94,122
109,43,27,-1,18,-18,-15,6,16,61
62,40,24,-3,17,4,55,106,-4,1
16,14,-2,2,24,21,68,131,10,3
-28,-20,0,0,15,12,7,21,-23,-9
-22,-8,20,3,24,-6,-48,-57,-51,15
-39,-17,21,-1,-7,-2,-36,-43,-13,51
-75,-74,-51,-58,-61,-19,0,27,69,97
-107,-120,-107,-96,-83,-65,-39,-31,-1,87
-42,-79,-81,-98,-84,-82,-62,-91,-43,155
30,-50,-82,-102,-113,-98,-26,-76,74,251
49,-38,-90,-115,-138,-108,46,-29,193,269
34,1,-49,-100,-111,-92,83,-16,91,104
-35,36,39,19,0,-7,155,55,-68,-147
-99,51,81,94,103,73,169,98,-100,-250
-25,77,84,82,109,53,107,34,-102,-207
34,96,90,83,138,33,59,-1,-82,-157
42,80,97,74,179,36,-11,2,-18,-96
111,91,95,40,114,80,-37,34,45,53
111,64,77,7,40,89,20,60,78,183
50,9,22,-15,34,52,10,19,78,184
23,-15,-18,-41,2,22,-23,-9,91,156
7,-43,-48,-36,2,31,-28,-49,44,79
-37,-64,-79,-18,13,38,-16,-60,-71,-98
-139,-92,-58,-23,12,15,-4,-76,-183,-298
-235,-111,-33,0,26,15,19,-94,-175,-403
-203,-77,-4,10,27,39,33,-73,-137,-328
-101,-46,-26,-36,-16,13,19,-50,-83,-176
-52,-18,-5,-9,6,26,14,-40,-44,-97
-5,21,35,30,57,35,5,-64,-34,-6
48,29,65,51,76,47,-17,-79,-26,74
65,45,66,64,78,78,-22,-40,19,131
54,34,25,33,36,108,14,-12,66,152
44,7,-12,11,31,113,95,5,59,168
54,25,-24,8,25,138,249,7,7,126
28,11,-12,12,40,179,384,49,-5,1
0,-10,-9,16,24,168,414,92,7,-71
-14,-25,-30,-17,-37,59,277,109,76,-59
17,-22,-25,-29,-79,-74,45,112,143,-2
64,18,-5,-39,-113,-189,-187,48,137,11
85,56,29,-9,-109,-277,-389,-54,69,-20
47,59,50,35,-41,-243,-462,-126,-22,-64
-14,14,11,20,-11,-137,-315,-140,-71,-122
-56,-31,-34,-11,-26,-104,-177,-126,-67,-143
-18,1,-7,5,-21,-91,-120,-96,-67,-140
62,63,38,34,2,-84,-69,6,-25,-47
111,59,39,34,7,-52,-25,116,33,89
85,21,17,40,27,5,-17,73,46,200
83,11,8,47,50,34,-10,49,66,298
117,16,-33,26,33,9,-10,44,44,289
152,52,-21,26,18,-32,-58,-20,-53,165
82,31,-10,20,9,-31,-57,-37,-149,-103
-43,-34,-29,3,12,12,2,6,-148,-306
-56,-20,-39,18,17,-22,-8,16,-91,-252
-36,-1,-3,33,22,-30,-57,-11,-78,-166
-51,5,-33,51,60,24,-40,-22,-80,-103
-22,17,-87,44,54,9,-59,-46,-18,25
3,-11,-55,-38,-28,-35,-86,-60,2,52
-64,-51,-62,-63,-47,5,-6,-22,-32,-69
-98,-57,-43,-38,-14,108,88,27,-61,-124
-91,-51,-19,-11,5,143,93,28,-51,-112
-81,-55,-39,-26,-17,129,70,24,-1,-51
-31,-41,-51,-43,-20,72,30,17,40,14
25,0,-20,-24,-5,32,-23,-13,22,36
73,41,-11,-4,-7,-18,-105,-74,-40,26
91,72,-19,15,8,-17,-144,-95,-65,24
70,66,16,47,52,16,-120,-106,-53,20
-26,-22,-18,11,18,27,-34,-77,-24,14
-75,-56,-34,12,-13,5,19,-38,-4,40
10,2,19,54,-1,-60,11,-39,4,113
47,47,69,83,25,-102,52,69,58,118
67,88,34,91,62,-137,83,229,148,95
52,75,-72,40,46,-134,123,303,209,46
-13,30,-103,-29,-24,-103,82,205,234,-7
3,28,-7,-82,-136,-112,31,105,173,6
-21,21,56,-69,-139,-88,47,47,27,-59
-39,14,63,-25,-67,-41,70,52,-6,-87
-56,-23,27,-21,-43,-7,37,44,73,-22
-43,-18,13,-7,-36,-12,7,61,139,45
0,-4,0,-25,-51,-43,-12,37,163,110
59,11,-53,-30,-44,-27,-30,-3,126,139
78,37,5,1,-1,33,-2,8,42,115
42,65,35,42,48,77,35,31,-32,40
34,73,34,64,70,74,33,44,-37,44
7,42,65,48,91,51,2,27,-37,16
-1,23,34,21,92,15,-44,-16,-85,-29
-2,-4,0,-6,75,24,-36,-18,-73,24
-31,-57,-32,-55,45,23,5,-12,-40,182
-39,-79,-95,-62,30,7,-18,-75,-49,236
-15,-94,-106,-103,-35,-10,-20,-39,56,248
-2,-77,-61,-112,-93,-33,0,-13,98,148
-44,-36,-11,-73,-141,-52,33,20,118,10
-77,-17,4,-61,-167,-40,69,111,219,-36
-113,-35,-1,-53,-118,-14,27,82,195,-194
-108,-30,3,-38,-92,-10,-32,17,120,-220
-58,-16,16,-33,-101,-44,-37,-6,85,-127
-9,16,-6,-15,-72,-27,-36,-37,-56,-96
-9,24,1,9,-1,53,15,-22,-183,-36
-24,-8,26,14,18,89,61,70,-103,32
13,-3,32,28,20,80,37,70,-45,80
53,35,56,36,24,45,-7,-14,-101,99
114,76,69,57,40,22,-66,-114,-194,20
138,135,85,86,44,16,-118,-198,-244,-99
94,143,75,101,63,56,-97,-222,-241,-173
-22,27,-17,44,46,83,2,-121,-143,-142
-101,-54,-24,-11,6,58,88,-59,-70,-135
-97,-48,-11,-12,5,45,138,-74,-83,-175
-150,-60,-17,-2,15,80,193,-10,-63,-241
-146,-55,-26,14,6,65,158,14,-36,-211
-84,-57,-91,11,-25,23,131,5,-73,-153
-82,-93,-68,-21,-25,17,127,57,-98,-173
-46,-63,-25,-17,7,5,49,-30,-151,-178
10,0,33,26,56,-10,-37,-107,-154,-70
23,6,34,31,82,-8,-115,-95,-39,73
74,22,29,10,51,6,-78,-52,71,230
133,86,81,31,33,-22,-83,-51,123,299
156,110,114,52,17,-72,-71,72,153,297
91,52,52,4,-39,-92,9,230,209,202
7,0,17,0,-25,-41,37,151,151,-5
-30,-30,-15,-13,22,13,45,102,70,-80
-39,-49,-25,-13,67,43,69,135,101,-7
-10,-36,-13,-15,86,45,41,134,197,120
-6,-31,-59,-49,19,38,-3,108,213,150
-74,-39,-149,-44,-31,59,-39,10,36,-47
-131,-62,-170,-32,-24,30,-55,-75,-143,-224
-111,-60,-135,-29,-22,-5,-77,-120,-225,-263
-56,-29,-37,-14,27,0,-77,-96,-240,-242
-47,-27,22,0,54,6,-66,-44,-181,-187
12,-16,24,-10,15,-19,-61,10,-77,-41
62,-1,18,-43,-25,-44,-45,61,6,64
50,3,-29,-36,-23,-43,-7,87,59,65
42,20,-40,3,-3,-34,7,67,57,39
54,42,36,10,-3,-44,-14,30,62,83
75,59,50,25,6,-28,-26,-22,40,114
54,38,28,16,18,-8,-25,-22,37,89
25,33,46,-1,13,8,0,-4,43,38
15,26,34,0,-6,14,37,-19,-21,4
19,13,12,0,-25,18,97,-11,-41,2
13,8,22,13,-15,13,103,-24,-37,-9
-38,-26,-37,-11,-15,16,97,-28,-3,-25
-104,-82,-68,-58,-33,30,97,-36,3,-56
-142,-124,-146,-79,-60,22,50,-74,-20,-107
-126,-111,-216,-85,-79,-13,-47,-118,5,-74
-78,-71,-105,-60,-38,-48,-174,-189,-3,-24
-60,-57,-24,-31,13,9,-128,-175,-29,-40
-46,-20,32,21,58,59,-29,-117,-22,-23
19,40,83,79,92,39,-51,-77,3,45
63,72,96,96,98,8,-112,-43,24,68
87,87,98,104,97,0,-65,-51,-2,47
134,125,130,102,88,-16,-7,-21,1,97
168,127,122,67,45,-47,59,163,103,215
162,121,99,35,23,-47,81,223,133,292
157,87,12,22,19,-31,63,133,116,323
92,11,-5,4,11,-17,66,82,126,309
52,-45,-36,-60,-25,-42,70,97,217,317
27,-59,-63,-77,-53,-52,53,42,168,238
1,-48,-49,-71,-61,-52,25,-23,68,123
-83,-63,-83,-64,-55,-19,64,6,35,-88
-123,-71,-58,-41,-42,9,104,8,-23,-274
-85,-40,-11,-32,-37,11,95,3,-81,-297
-35,-9,5,-20,-23,-17,81,0,-73,-259
-36,3,19,11,2,-11,42,-12,-81,-258
-54,8,-6,33,36,21,39,-12,-121,-267
-28,11,17,43,47,25,48,6,-111,-171
15,15,23,32,27,19,41,29,-35,-32
41,25,1,3,-6,-33,-36,-10,2,115
16,-26,-4,11,-8,-23,-54,-80,-43,101
-26,-38,14,48,22,15,-54,-103,-129,-37
-31,-2,48,81,66,90,-38,-77,-138,-143
-38,-28,17,66,108,192,17,-66,-135,-164
-119,-79,-16,12,124,285,109,-84,-193,-259
-112,-69,-10,-25,82,279,173,-47,-189,-271
-50,-35,4,-46,38,216,207,17,-84,-153
-57,-61,-43,-84,-45,99,177,21,-8,-84
-80,-89,-67,-80,-88,-24,110,4,5,-104
-72,-62,-34,-30,-67,-86,-2,-25,-27,-110
-12,-25,-4,-9,-41,-122,-167,7,31,2
63,13,17,-1,-38,-163,-250,-16,66,93
108,49,33,3,-39,-116,-175,-73,71,121
142,72,48,26,-33,-68,-100,-59,115,174
199,125,30,59,-25,-112,-121,33,115,239
202,140,92,71,-20,-104,-38,206,161,258
140,101,90,32,-33,-32,67,179,152,226
112,72,49,-20,-77,-38,105,152,144,200
133,95,62,-26,-96,-69,70,130,82,138
141,139,117,30,-46,-40,13,54,-39,31
48,77,96,38,-10,26,29,47,-87,-73
-26,20,44,26,6,83,52,64,-43,-82
-29,19,45,31,14,121,-2,11,-45,-49
2,14,50,30,23,96,-84,-35,-15,42
-11,-25,9,19,23,78,-92,-29,32,63
-63,-84,-51,-23,16,39,-54,4,72,7
-49,-86,-88,-51,-13,-26,-68,-14,109,-6
-31,-58,-160,-48,-28,-71,-100,-44,74,-45
-44,-29,-114,-10,-14,-99,-95,-7,8,-136
-12,-13,-116,0,-28,-123,-94,1,-20,-106
73,-14,-102,-32,-71,-155,-82,34,58,79
126,20,13,-9,-49,-143,-79,46,83,167
94,40,52,45,11,-76,-54,53,66,125
20,-13,-43,40,52,-1,-20,24,-50,-1
-29,-40,-30,32,77,33,-13,-55,-166,-69
-30,-40,0,-1,45,37,47,12,-37,4
-1,-25,-70,-22,4,26,82,27,1,42
11,-18,-113,-23,-4,19,72,-15,-39,57
25,-25,-78,-40,-28,15,76,1,-16,100
11,-44,-73,-64,-74,4,75,27,8,85
-21,-37,-24,-78,-173,-50,43,22,-4,25
-47,-24,-92,-82,-212,-130,-56,-43,-54,-69
-54,-34,-28,-39,-49,-97,-151,-81,-47,-118
-33,-20,58,-7,79,-30,-148,-83,-3,-91
3,1,80,-31,37,-80,-125,-82,28,-38
4,-8,47,-34,15,-61,-82,-50,26,-34
-45,-25,9,-15,60,36,14,39,19,-104
-36,10,70,39,137,96,60,57,-4,-121
21,63,108,79,169,136,23,2,-27,-19
121,99,103,83,132,119,-52,-78,-4,176
139,67,47,50,88,89,-53,-110,30,266
114,35,34,6,45,75,-28,-110,56,298
64,9,40,-11,32,65,-3,-153,-8,199
13,-15,15,-28,21,20,52,-196,-90,93
-41,-15,19,-10,18,-8,87,-156,-38,8
-45,5,55,46,35,-21,16,-114,22,-16
-15,26,74,72,48,-61,15,-10,45,-11
-40,3,54,42,13,-83,100,325,113,-67
-120,-43,17,-6,-33,-57,138,448,126,-246
-117,-35,4,-41,-67,-90,72,292,135,-256
-115,-50,-13,-60,-64,-99,46,185,171,-140
-158,-103,-47,-59,-60,-89,70,147,145,-99
-131,-79,-19,-1,-34,-68,111,65,10,-106
-87,-39,-51,27,25,19,115,-6,-83,-100
-76,-54,-138,27,81,109,108,-27,-81,-77
-27,-10,-29,42,131,130,47,-64,-125,-88
10,32,71,57,175,160,7,-63,-158,-47
9,19,64,27,140,172,8,0,-102,26
24,39,105,20,53,81,-107,-21,-66,39
47,66,133,54,35,-28,-231,-124,-119,12
68,52,97,27,-35,-126,-279,-237,-218,-44
14,-1,28,-32,-99,-158,-245,-260,-236,-128
-65,-43,-3,-65,-138,-146,-165,-230,-230,-212
-122,-81,-22,-62,-139,-131,-30,-86,-199,-260
-156,-95,-26,-62,-104,-79,140,110,-95,-290
-146,-76,-17,-51,-49,-22,162,151,11,-180
-44,-4,32,-21,-16,23,81,156,106,35
65,84,93,6,-49,21,-27,184,186,188
92,91,90,32,-41,-10,-57,133,157,213
45,61,58,39,-14,-4,-27,71,111,173
39,35,44,35,-3,-13,-30,23,87,134
50,17,28,40,21,0,-8,-8,58,89
38,15,18,49,67,26,-11,-13,8,41
-6,-2,-1,47,91,45,-21,-23,-40,-36
-52,-25,-61,32,81,54,-13,-49,-64,-99
-20,-19,-40,0,4,46,-19,-41,-23,-55
19,3,-51,-12,-51,5,-27,-57,-5,13
10,8,-81,1,-34,-22,-28,-70,-2,26
-3,-16,-84,4,-14,-17,-27,-56,39,45
-47,-26,-32,5,38,58,26,-56,20,9
-21,0,7,-3,63,84,17,-54,9,5
38,55,41,-25,19,70,16,35,122,70
35,54,51,-39,-26,39,76,119,210,93
-4,4,15,-58,-49,17,81,72,138,30
-38,-13,-39,-48,-44,16,26,-3,17,-37
-36,-10,-72,-27,-28,24,10,8,-8,-24
-9,-3,12,3,6,37,19,39,-13,8
73,35,1,5,2,4,-3,-27,-66,32
116,61,46,4,5,-24,-21,-71,-84,72
128,83,107,38,16,-30,-35,-96,-90,87
123,70,3,44,11,1,7,-38,-53,93
39,-5,-76,-6,-2,50,41,19,-29,45
2,-42,-49,-31,-6,86,19,-1,-39,12
16,-29,5,-3,18,76,-23,-93,-83,6
20,-49,-14,-27,13,45,-33,-63,-60,38
1,-67,-43,-57,-2,-8,8,37,27,52
43,-33,-15,-54,-70,-74,0,36,42,89
72,-17,-19,-69,-150,-155,-14,33,84,127
31,-56,-43,-95,-165,-181,-47,1,60,88
-12,-90,-76,-136,-168,-164,-23,-1,45,44
0,-84,-78,-124,-154,-153,-2,-23,27,33
4,-53,-38,-55,-79,-68,25,-26,-13,-22
-45,-24,15,22,24,34,119,67,37,-91
-96,-26,10,57,66,82,167,103,54,-127
-43,1,7,69,64,78,112,41,6,-83
24,29,79,65,77,64,79,13,-5,-14
36,35,82,81,91,75,105,30,15,2
86,70,98,96,75,47,77,18,50,59
96,69,85,73,40,-3,-32,-23,86,107
73,53,80,56,47,-12,-93,-66,24,82
42,53,86,64,76,10,-98,-98,-85,-16
-11,32,65,67,69,30,-76,-98,-96,-74
-69,-30,16,19,22,33,-39,-59,26,-35
-38,-59,-45,-52,-51,-12,-53,-64,77,40
-29,-50,-45,-70,-70,-44,-52,-87,35,14
-22,-28,-42,-92,-87,-53,17,-78,-25,-33
-61,-70,-78,-121,-116,-55,48,-44,-27,-61
-78,-93,-90,-128,-122,-48,3,-57,-4,-19
-85,-88,-101,-89,-71,-17,0,-33,-11,-34
-68,-66,-71,-48,-22,17,30,28,18,3
12,-7,-5,-4,-2,6,1,33,33,199
121,70,40,35,13,-36,-112,0,64,428
205,119,62,54,33,-27,-185,-48,98,544
183,96,60,48,65,31,-121,-43,57,413
95,30,26,24,74,47,-90,-23,0,151
-18,2,26,19,60,33,-111,-71,-61,-146
-90,21,50,37,65,46,-87,-105,-77,-346
-151,-34,-5,9,59,69,-2,-54,-22,-305
-142,-115,-139,-78,-25,17,27,3,18,-109
-90,-116,-247,-124,-83,-55,-20,-64,-76,-53
-73,-103,-164,-104,-73,-111,-83,-126,-184,-147
-63,-77,-56,-59,-34,-109,-56,-17,-196,-289
-120,-78,-38,-30,17,-18,41,104,-186,-426
-190,-64,3,17,95,94,88,73,-183,-515
-135,-21,46,52,130,154,129,119,-35,-293
-55,-5,48,48,98,139,119,131,87,-63
16,34,53,38,10,58,98,97,109,59
86,84,31,49,-70,-27,47,68,110,173
95,92,20,66,-51,-61,-27,-1,84,199
58,69,24,61,-16,-41,-6,33,81,123
0,16,11,48,24,29,85,168,103,-2
-11,40,87,104,76,72,76,126,16,-132
27,97,138,129,101,86,18,11,-100,-154
41,85,105,84,53,44,-6,-3,-101,-91
33,65,68,53,13,5,-27,-41,-107,-48
-14,13,16,0,-14,0,15,-10,-71,-59
-44,-57,-60,-86,-83,-27,74,64,81,18
-52,-106,-128,-137,-143,-87,61,110,252,109
-72,-118,-159,-154,-162,-104,50,138,343,115
-74,-70,-169,-93,-116,-41,60,76,233,46
-46,-16,-84,-36,-58,-23,27,-43,1,-1
-45,14,24,18,2,12,26,-54,-110,8
2,50,39,50,35,57,8,-75,-208,-5
70,79,-13,48,25,62,-6,-52,-165,40
92,76,37,40,6,30,-7,-11,-42,117
101,91,43,70,26,23,-28,-31,-17,119
101,106,53,95,72,19,-59,-83,-75,66
70,106,113,117,78,13,-62,-100,-84,22
56,92,119,112,53,-4,-72,-91,-61,38
34,54,109,98,47,-3,-73,-67,-18,60
9,9,47,49,28,53,-61,-79,30,69
17,6,-2,-1,26,133,-75,-138,10,81
-16,-10,-36,-1,56,158,-91,-240,-121,-6
-23,-20,-87,-22,38,149,-80,-278,-216,-77
-27,-25,-78,-56,-14,84,-57,-257,-196,-103
-57,-71,-27,-50,1,50,-83,-275,-173,-123
-47,-77,-30,-25,48,-8,-161,-304,-115,-56
4,-44,-21,-17,43,-48,-72,-123,49,46
19,-24,-29,-71,-42,-8,217,177,108,90
62,41,10,-76,-116,-7,352,286,40,93
25,36,6,-37,-87,-3,317,330,32,39
-23,-12,-122,-53,-42,45,274,329,90,18
-21,-7,-98,-53,-30,60,207,339,113,14
70,81,72,22,-2,-49,-82,302,102,74
129,124,138,67,22,-148,-353,185,117,137
97,73,102,44,8,-108,-309,122,143,154
63,30,66,15,-8,-55,-196,63,120,122
5,0,26,-16,-35,-52,-120,18,62,46
-42,-21,-6,-37,-76,-96,-71,47,52,-11
-56,-38,3,-39,-75,-135,-82,21,18,-56
-101,-59,4,-42,-66,-123,-73,-34,-79,-145
-104,-68,-9,-46,-59,-109,-57,-63,-124,-131
-85,-40,10,-12,-35,-86,-54,-84,-115,-112
-83,-54,-13,-12,-16,-63,-37,-52,-31,-99
-69,-85,-90,-45,-42,-91,-40,-28,21,-21
-8,-73,-157,-61,-58,-75,-22,16,79,149
63,-31,-58,-58,-31,-52,-6,9,96,318
98,-2,-20,-44,16,-12,7,-2,92,378
80,7,-19,-20,46,43,39,3,88,311
71,38,16,5,23,60,40,6,89,206
35,59,46,45,36,129,44,-28,60,14
-46,45,63,84,121,201,70,-52,15,-201
-79,27,71,93,174,211,94,-26,1,-263
-46,34,64,88,185,180,59,-41,-37,-205
16,45,68,48,139,140,39,-64,-27,-51
55,39,35,-42,-27,60,25,-54,11,145
22,-14,-30,-93,-130,-93,-29,-79,-11,179
-1,-50,-86,-112,-155,-169,-33,-70,-21,114
-3,-56,-94,-126,-171,-185,-14,-59,4,105
23,-50,-90,-123,-154,-185,-39,-61,42,79
-42,-40,-34,-43,-57,-117,-32,-38,-1,-153
-124,-1,41,31,12,-33,93,89,-17,-363
-116,32,71,62,32,29,228,219,-2,-283
-118,13,64,73,49,64,208,129,-75,-193
-91,17,55,78,52,83,156,47,-114,-170
-55,25,44,77,66,77,85,25,-66,-120
13,49,46,75,61,33,9,-28,-36,-38
63,80,-3,71,30,-5,-78,-57,-9,37
77,78,6,47,14,-26,-146,-17,56,110
119,91,54,34,17,-29,-155,-7,65,167
111,76,33,13,-1,-40,-130,-31,36,146
24,4,-7,-14,-18,-9,-48,-10,3,-7
-70,-51,-53,-27,-16,29,21,34,-18,-134
-92,-64,-54,-19,-21,22,7,-40,-101,-162
-95,-43,-46,-6,-9,14,23,-65,-111,-139
-93,-12,-15,0,15,9,58,-29,-38,-112
-43,8,-4,-11,0,-21,33,-51,5,-34
-32,-6,-19,-21,5,-31,21,-47,19,0
-30,-20,-35,-32,4,-16,38,-8,36,5
1,-3,-57,-35,-5,-1,33,16,66,14
9,18,-82,-14,28,9,19,-28,43,-25
42,14,-103,-11,23,22,44,49,175,63
29,5,-12,12,37,43,74,121,272,99
25,32,44,47,77,49,65,81,146,55
44,63,67,79,115,76,99,68,29,33
65,61,58,68,99,89,101,64,58,95
49,34,29,44,68,82,29,-10,21,85
-2,7,27,43,96,165,-3,-96,-113,-16
-27,-31,-2,32,108,213,0,-133,-179,-38
-20,-66,-38,-21,48,164,-15,-103,-142,6
-31,-82,-62,-58,-2,88,-42,-130,-120,-13
-45,-81,-47,-65,-52,-23,-80,-134,-48,-13
-88,-101,-76,-76,-71,-82,-69,-65,45,6
-111,-87,-55,-64,-63,-128,-4,117,127,-13
-77,-22,3,-20,-59,-165,89,262,132,-59
-53,-18,-2,-31,-51,-160,70,159,65,-47
17,-10,-1,-26,-42,-127,0,44,-12,22
82,22,15,-18,-24,-92,-27,28,-66,88
107,39,34,-4,1,-66,-51,2,-84,122
96,36,18,23,26,-24,-63,-8,-47,130
53,34,10,43,40,3,-48,2,-7,117
82,45,23,21,3,0,-40,30,25,118
125,51,35,10,-13,-9,-55,12,35,148
96,33,34,19,5,-2,-62,-11,-14,99
62,26,29,21,23,4,-74,-49,-48,-31
20,9,31,21,36,7,-54,-22,-19,-92
-14,-10,19,18,28,6,-24,14,15,-76
-85,-41,-31,7,25,20,-12,17,2,-119
-86,-41,0,-9,0,6,-9,-43,-32,-109
-42,-31,-9,-32,-32,-26,-45,-97,-42,0
-42,-22,-102,-41,-36,-24,-32,-128,-85,7
-17,-11,-90,-49,-36,-28,14,-103,-164,-83
-31,-21,-18,-46,-22,-26,48,-14,-159,-181
-89,-47,-69,-15,51,11,61,23,-124,-289
-95,-42,-15,42,107,2,19,-55,-153,-332
-81,-30,-37,96,151,-16,-61,-128,-182,-261
-1,-24,-21,82,168,0,-101,-109,-61,-54
40,-13,9,41,133,15,-22,-1,46,68
31,-13,3,8,73,34,118,181,108,75
65,2,8,-31,-40,20,135,218,135,106
90,28,11,-89,-170,2,131,182,147,127
52,23,12,-80,-179,9,141,120,115,81
-24,-4,-23,-11,-70,20,103,46,31,-15
-93,-43,-148,9,-6,25,73,5,-30,-107
-113,-53,-157,30,21,17,35,-19,-48,-134
-105,-62,-58,31,33,19,32,-26,-50,-122
-70,-29,38,15,36,59,64,0,4,-94
13,41,87,-8,-45,83,113,68,93,30
59,57,90,-4,-65,44,80,66,121,115
78,50,57,10,-23,3,-6,31,100,138
84,45,47,14,7,7,-40,4,62,128
98,50,-2,16,11,22,-59,-28,18,123
142,50,-47,12,7,5,-88,-54,33,192
148,36,18,-10,-21,-28,-104,-56,64,203
129,28,23,-19,-41,-36,-88,-58,77,145
84,14,39,-2,-38,-24,-48,-57,58,48
37,15,47,15,-7,-22,-7,-45,34,-15
30,37,21,42,5,-22,-10,-41,-39,-18
56,29,-56,39,4,-18,21,9,-65,48
36,-9,-21,-13,-31,-47,65,102,-22,53
23,-36,10,-50,-53,-71,20,87,-21,45
-14,-54,2,-41,-31,-38,-42,-13,-107,-11
-66,-63,-1,-10,9,22,12,-13,-150,-92
-87,-58,15,16,27,54,87,-15,-125,-108
-53,-25,36,51,48,43,84,-42,-60,-53
49,23,60,48,23,-50,-21,-46,20,99
127,71,65,33,-14,-101,-88,48,30,178
146,103,81,46,-15,-103,-89,76,-42,155
117,99,80,64,9,-81,-138,-30,-89,117
53,39,32,29,38,-38,-182,-22,30,95
23,14,9,-7,0,13,-114,-5,52,12
17,48,44,5,-19,54,-24,3,-25,-163
-33,46,68,43,26,76,10,7,-50,-298
-69,-20,0,7,33,60,57,40,39,-127
-16,-38,-33,-31,9,12,51,52,122,197
120,37,19,-5,-24,-42,-24,62,139,399
224,89,56,16,-34,-104,-101,59,178,434
123,5,-5,-26,-76,-126,-83,13,112,233
-59,-104,-86,-69,-84,-55,11,-10,2,-74
-185,-108,-61,-10,-17,127,73,-52,-130,-390
-248,-75,-1,57,72,289,115,-55,-152,-559
-197,-39,21,59,128,301,76,-83,-81,-423
-150,-25,27,55,187,256,-20,-110,-58,-252
-90,-9,57,78,202,201,-46,-60,-18,-158
28,86,126,102,97,106,-6,-2,19,-47
6,56,87,48,7,10,98,90,91,-22
-34,6,40,-3,-37,-95,135,112,109,-18
-11,0,11,-33,-86,-176,118,96,101,31
22,5,-3,-44,-89,-158,61,85,97,84
19,11,13,-28,-55,-105,-1,8,81,72
-7,-12,-17,-58,-51,-69,-44,-35,105,80
3,-9,-33,-66,-70,-109,-139,-103,56,120
63,33,4,-36,-59,-170,-249,-158,1,162
47,23,11,-40,-51,-153,-209,-49,7,126
-36,-59,-63,-104,-83,-118,-95,66,4,40
-87,-89,-70,-93,-84,-102,-74,3,-134,-86
-74,-53,-6,-7,-54,-110,-115,-122,-258,-173
-77,-49,-13,20,-43,-98,-101,-107,-163,-159
-65,-62,-42,15,-11,-23,-36,-37,-3,-65
26,-21,-36,30,31,19,-13,-39,69,109
107,16,-14,37,47,39,-49,-96,1,228
154,57,31,53,85,87,18,-6,15,283
225,117,60,10,32,48,49,81,103,390
179,76,2,-54,-40,8,46,45,97,329
55,11,-16,-32,-40,-14,51,1,4,121
-33,8,-48,20,1,-23,95,101,-63,-90
-78,-8,-114,20,13,-10,159,207,-37,-212
-85,-41,-80,-19,-23,-6,104,114,-9,-197
-74,-69,-50,-53,-54,-18,31,15,23,-72
-46,-71,-82,-75,-95,-50,-25,-81,15,21
-60,-85,-172,-87,-114,-62,-17,-127,-13,-5
-125,-94,-178,-69,-88,1,60,-123,-2,-96
-183,-115,-80,-68,-75,70,163,-111,-13,-185
-176,-88,-44,-75,-70,81,251,-18,-5,-257
-79,16,47,1,17,100,306,132,-5,-207
16,96,129,71,97,127,308,168,-50,-93
29,79,118,75,108,119,245,67,-84,-54
48,55,10,56,85,86,137,67,9,16
87,81,-12,78,63,1,-89,94,112,105
114,132,126,115,66,-70,-262,48,117,127
106,144,169,140,81,-61,-239,-28,59,95
77,122,155,132,64,-33,-108,-10,22,74
61,92,73,94,31,-31,-1,79,8,68
8,61,-4,55,13,-21,3,56,-28,52
-23,28,69,54,23,-16,-20,-1,-77,13
-48,-10,62,39,17,-17,-32,-33,-106,-67
-89,-34,9,10,5,-20,-44,-55,-129,-190
-125,-62,-81,-19,-11,-22,-30,-25,-81,-197
-121,-82,-131,-37,-31,-30,-18,-11,-25,-98
-112,-85,-96,-15,-15,-7,-7,-14,-40,-63
-86,-62,-36,1,3,19,-31,-8,-51,-54
-54,-28,18,11,29,31,-42,-25,-49,-27
4,-19,5,14,14,10,-59,-43,-20,46
59,-13,-108,-3,-1,-20,-59,-38,30,130
50,-27,-129,-19,12,0,-4,44,106,129
65,-3,29,16,40,14,-9,12,61,114
104,54,105,39,60,21,-36,-41,21,140
85,43,20,23,43,16,-36,-11,58,120
133,20,-107,-51,-33,-36,-31,25,123,169
190,40,-12,-71,-82,-97,-82,-7,111,213
161,-14,-3,-103,-138,-118,-91,-43,50,231
102,-46,-13,-106,-121,-117,-53,-59,-36,169
38,-44,10,-62,-59,-110,-29,-40,-66,79
-12,-32,-6,-16,7,-71,-26,-54,-52,-5
-84,-52,19,6,81,-23,-33,-60,-43,-110
-152,-55,42,-8,69,49,32,11,0,-194
-179,-43,42,-26,8,68,66,28,-33,-292
-176,-51,26,-8,44,51,45,1,-124,-349
-130,-37,33,25,84,78,55,13,-123,-275
-58,3,52,28,58,109,64,58,-33,-136
-39,-4,-18,19,37,66,36,78,42,-49
-67,-41,-109,2,49,22,-7,65,81,9
-52,-15,-123,16,85,24,16,42,75,82
-16,19,-89,44,145,46,43,18,61,93
17,48,46,60,186,44,20,-53,14,86
53,71,112,53,159,45,10,-106,-3,63
69,94,78,0,32,65,55,-33,103,60
75,94,-11,-42,-124,14,79,52,185,52
52,77,77,-26,-171,-45,64,55,106,-4
-4,38,118,4,-74,-17,49,51,-13,-101
-60,-20,83,7,-33,1,23,32,-62,-167
-74,-21,90,12,-42,-17,-14,-48,-98,-139
-77,-17,88,18,-24,4,-37,-68,-131,-103
-70,-54,20,-24,-42,2,-8,-37,-71,-33
0,-12,18,-23,-62,-17,15,-47,-52,47
61,15,10,-31,-55,-3,58,6,-6,132
72,-9,-24,-54,-47,25,97,113,116,264
105,19,5,-37,-38,0,22,70,106,303
68,-6,-4,-24,-26,18,9,86,102,201
1,-64,-39,-27,-10,46,14,176,115,78
31,-66,-43,-35,-11,-29,-136,90,44,71
50,-50,-26,-26,-12,-36,-222,-57,-77,79
-14,-86,-35,-24,0,8,-162,-131,-148,15
-47,-95,-112,-38,-5,13,-109,-158,-167,-12
-53,-96,-84,-55,-21,16,-42,-156,-154,-49
-128,-112,-44,-50,-5,58,53,-136,-169,-244
-207,-98,-12,4,49,105,107,-122,-165,-414
-148,-42,35,39,58,85,100,-75,-25,-262
-23,21,69,65,32,14,74,22,113,18
47,67,95,78,6,-52,3,121,115,115
58,35,62,24,-33,-80,0,213,86,95
17,3,25,18,-9,-57,3,171,43,18
17,14,51,53,43,-17,-51,76,16,-39
22,18,38,39,31,21,-32,54,45,-41
-17,14,24,72,59,50,7,9,-18,-107
33,42,-7,76,73,60,39,9,-23,-56
70,75,70,82,76,79,40,0,-28,-16
32,69,67,72,91,78,47,-21,-62,-69
3,23,17,49,85,70,58,-14,-30,-66
15,-11,17,30,50,44,42,-29,0,-17
40,-22,-7,0,-10,18,12,-55,15,23
26,-36,-28,-40,-75,-21,-46,-87,23,54
-20,-101,-97,-83,-119,-80,-76,-106,51,88
-46,-119,-122,-100,-123,-67,-61,-128,32,64
-50,-99,-107,-103,-101,-6,-35,-156,-32,-14
-79,-67,-57,-80,-60,16,57,-97,-69,-129
-63,-26,-56,-16,-3,55,67,89,20,-113
10,30,-73,20,33,14,-55,171,102,12
37,56,34,39,63,-41,-85,97,34,26
61,60,81,31,42,-56,-18,81,24,27
86,54,74,15,-16,-59,9,100,49,45
126,70,69,27,-4,-66,-46,57,53,164
157,56,42,14,0,-69,-87,23,95,336
164,47,-26,-37,-30,-69,-86,33,161,411
130,14,3,-57,-35,-29,-51,3,110,319
93,31,45,-27,-15,-30,-17,-43,12,160
37,55,105,35,41,19,51,-33,-84,-85
-15,68,121,58,46,62,100,-12,-146,-244
-86,27,63,15,5,48,76,23,-104,-295
-135,-26,7,-28,-37,4,49,39,-47,-262
-122,-47,-14,-44,-62,-46,-42,-10,-43,-167
-110,-64,-22,-38,-52,-69,-67,-41,-64,-163
-115,-76,-46,-29,-28,-29,-9,-4,-8,-141
-101,-75,-60,-21,-12,5,19,16,45,-73
-64,-54,-123,-16,7,9,4,-20,-24,-50
0,-31,-53,6,22,22,19,-6,-59,-10
35,-23,-2,12,21,32,56,58,37,84
46,5,-47,38,62,76,50,11,4,81
58,31,4,72,104,168,54,-26,-53,40
67,48,60,62,88,165,43,-20,-30,34
85,35,25,23,31,80,12,-9,20,59
89,32,-35,2,-5,-5,-9,3,67,82
29,26,-81,9,5,-25,-19,-6,45,3
-8,2,-1,5,10,-41,-26,-23,10,-3
41,16,43,11,-11,-99,-81,-83,-16,139
43,14,32,-3,-29,-142,-105,-121,-26,226
50,5,-21,-18,-55,-173,-136,-162,-3,279
44,-19,-13,-27,-50,-136,-156,-190,-3,243
-6,-54,-17,-33,-31,-61,-115,-174,-4,114
-94,-78,-58,-38,-21,3,-42,-102,67,-75
-142,-59,-49,-23,-5,34,25,-45,113,-244
-61,18,1,-5,-7,23,78,3,100,-232
10,78,52,20,2,28,78,6,40,-170
74,115,61,37,11,-9,48,105,97,-55
87,93,40,-6,-32,-46,73,267,154,1
25,38,-12,-34,-47,-53,73,216,59,-72
7,39,-54,-8,-25,-36,74,147,-4,-111
10,35,6,3,-3,0,59,121,4,-85
13,1,-3,-24,-30,7,49,92,58,10
15,-31,-26,-61,-55,1,32,59,92,87
-6,-50,-63,-66,-75,-11,-5,-15,7,64
-29,-66,-165,-89,-73,-42,-53,-80,-68,16
-53,-93,-170,-131,-66,-59,-77,-70,-48,-20
-84,-98,-82,-106,-36,-16,-70,-32,-35,-81
-57,-44,-8,-55,-2,1,-42,-23,-53,-134
-46,-17,23,-28,15,1,-32,-63,-93,-132
-7,-16,23,-24,-12,-5,-45,-86,-73,1
16,-9,21,-36,-62,-15,-47,-49,-21,174
54,34,46,-25,-111,-24,-31,-13,13,278
59,43,34,-6,-89,-19,-20,2,20,225
43,23,31,2,-12,20,-4,14,4,121
69,44,48,23,22,36,29,16,-16,12
48,48,45,33,43,43,21,-12,-73,-169
9,50,44,65,63,85,40,-4,-69,-238
-18,49,7,78,65,83,51,11,-39,-215
1,54,33,72,75,59,43,15,-24,-155
-15,30,22,47,55,47,43,-3,-32,-105
-30,9,8,12,2,34,61,-6,-3,-51
-45,-25,-22,-26,-20,11,64,19,89,11
-78,-54,-42,-54,-50,-16,13,-11,94,7
-91,-92,-89,-101,-97,-56,-56,-89,6,-17
-62,-108,-105,-128,-133,-108,-72,-68,42,28
-60,-121,-113,-123,-117,-91,-53,-32,93,63
-36,-104,-142,-105,-69,-36,-18,4,127,58
-21,-42,-62,-50,16,40,27,26,38,-41
-5,24,39,45,120,107,59,15,-115,-164
-11,62,95,101,157,141,130,29,-140,-177
-9,62,83,97,144,123,91,31,-28,-48
40,67,81,100,135,107,42,24,28,37
103,91,79,104,117,105,18,1,14,61
115,105,111,108,109,83,-8,-45,-43,34
106,106,123,89,94,49,1,-57,-64,20
58,77,91,53,61,8,-20,-65,-55,13
16,43,70,30,55,-5,-30,-51,-74,-22
2,22,57,10,42,-9,-20,-26,-60,-38
-24,-14,-1,-25,-8,-35,-48,-32,-41,-13
-65,-70,-61,-75,-61,-58,-48,0,-4,20
-49,-69,-67,-88,-94,-88,-82,-48,-45,63
-47,-79,-67,-90,-107,-110,-93,-75,-22,115
-67,-92,-115,-83,-90,-83,-65,-38,59,122
9,-60,-170,-99,-101,-108,-71,-7,112,151
38,-12,-84,-46,-47,-60,-20,39,106,99
45,52,-31,34,27,8,25,25,39,65
21,30,-17,41,48,31,41,45,13,0
33,36,-76,35,53,29,62,47,-19,-76
102,65,-6,38,21,-1,17,-5,-38,26
90,14,31,22,2,11,17,11,17,176
43,-31,-4,0,11,11,37,53,86,223
37,-1,9,25,24,-24,14,43,87,190
20,4,18,22,39,-60,17,63,100,104
16,1,-26,-11,29,-37,58,83,96,1
64,55,47,-31,-36,4,82,67,13,-58
53,70,97,-37,-87,-12,73,30,-96,-137
4,36,70,-31,-63,-16,47,-15,-141,-189
-57,-22,22,-40,-50,11,40,-46,-157,-218
-119,-83,-50,-59,-59,26,86,11,-103,-217
-133,-116,-71,-66,-33,46,63,37,-66,-194
-84,-74,-28,-43,9,73,59,-51,-114,-119
-46,-31,-8,-17,39,106,104,-90,-116,-31
-35,-36,-46,-37,40,120,114,-49,-24,37
-24,-38,-20,-26,37,93,89,-45,3,16
-37,-7,35,31,72,115,82,-65,-36,-86
-51,44,96,103,112,92,11,-112,-122,-192
-19,102,150,135,124,14,-116,-103,-68,-176
57,121,144,132,113,-63,-246,-37,86,-40
60,92,35,105,82,-74,-170,171,150,31
50,54,3,30,20,-60,-50,347,190,92
40,37,23,0,-15,-42,-38,193,166,111
-30,18,-20,8,6,0,-17,86,64,18
-60,-5,5,13,3,-5,-44,13,-63,-22
-34,-17,9,-24,-49,-55,-96,-10,-40,69
-35,-31,-21,-55,-85,-66,-103,-17,-8,83
-34,-43,-32,-37,-83,-61,-106,-44,-66,-9
-23,-47,-36,-18,-72,-86,-95,-38,-72,15
9,-36,-45,-6,-35,-49,-44,-9,-45,108
21,-11,-59,12,-12,-9,36,58,-14,141
82,14,-41,-16,-43,-5,42,82,33,192
114,31,-7,-74,-100,19,26,61,71,156
69,31,10,-52,-106,32,20,18,11,1
24,21,24,-23,-61,11,-34,-4,26,-79
35,32,43,0,4,49,-16,-54,-6,-61
34,36,72,36,66,97,82,-46,-54,-55
23,2,45,12,57,39,62,2,11,-17
40,-5,36,0,19,-42,-52,60,121,52
16,6,35,12,17,-52,-125,56,85,10
-45,-34,14,-11,0,-50,-86,20,8,-37
-76,-92,-48,-58,-55,-85,-42,-9,6,8
-52,-132,-120,-119,-116,-123,-65,-71,-10,89
-19,-146,-148,-134,-128,-94,-61,-127,-64,174
47,-79,-95,-67,-62,-4,-48,-145,-136,153
103,19,-14,-9,-3,51,-20,-118,-138,89
79,37,16,8,22,84,20,-45,-27,47
-24,8,21,41,64,90,27,-14,-15,-61
-40,50,69,99,94,32,-26,-104,-144,-163
-57,64,86,123,94,18,23,-68,-131,-255
-81,35,64,96,109,36,114,4,-28,-239
-57,35,54,80,120,43,84,-7,75,-106
-6,55,67,71,112,24,12,-24,147,38
54,100,104,92,83,20,70,40,152,92
40,104,101,82,30,5,124,124,85,29
-32,55,54,47,24,1,107,72,4,-79
-50,36,36,48,51,57,98,-5,-56,-125
-22,23,28,17,14,87,74,-62,-110,-126
-11,23,18,-1,-27,40,1,-108,-118,-76
-52,-31,-32,-36,-25,0,-15,-53,-110,-51
-128,-129,-116,-84,-40,-30,2,34,-90,-36
-143,-161,-150,-94,-62,-108,-77,-32,-85,-2
-83,-114,-113,-80,-76,-183,-163,-114,-96,37
-30,-45,-79,-33,-39,-180,-155,-116,-102,28
-11,-31,-66,-24,-1,-148,-67,-63,-58,31
39,-34,-68,-61,-19,-128,39,53,107,98
85,22,-6,-22,-4,-5,152,136,232,147
152,106,63,7,-63,106,216,191,341,236
89,58,39,-23,-90,141,227,255,310,175
-31,-1,19,-15,-19,138,193,205,133,8
-64,15,48,37,24,134,94,37,-76,-90
-75,21,73,76,61,76,-20,-33,-163,-120
-7,71,93,79,59,-7,-145,6,-99,-17
29,79,69,50,13,-57,-102,168,35,47
11,41,-18,-11,-41,-110,-68,129,50,21
2,33,-51,-25,-69,-120,-110,-30,-47,-31
-58,-11,-43,-11,-50,-66,-62,-25,-84,-133
-61,-20,-15,-13,-33,-36,-30,-13,-79,-135
8,35,33,18,-14,-20,-48,-36,-67,-50
19,53,81,53,20,18,-54,-33,-65,-1
72,52,73,30,22,33,-26,0,9,121
120,72,55,11,3,13,-32,-18,45,193
99,63,48,6,0,10,-1,-11,62,170
81,49,36,-8,-20,14,53,47,90,99
53,45,21,-9,-30,26,110,68,84,2
10,52,38,13,-15,29,99,36,49,-92
-30,45,55,33,25,40,94,36,74,-103
-56,19,9,26,27,48,83,64,95,-9
-65,-23,-10,6,39,50,63,51,39,25
-62,-48,-8,7,36,34,20,14,-8,18
-19,-38,-6,17,20,-18,-77,-47,9,96
-24,-43,-27,1,15,-29,-145,-94,-28,91
-65,-58,-48,-25,-9,-10,-114,-90,-93,3
-103,-56,-74,-32,-14,-13,-86,-70,-101,-60
-83,-59,-113,-42,-31,-59,-130,-61,-53,-31
-37,-51,-63,-56,-48,-102,-161,-47,23,60
-22,-50,-50,-51,-33,-77,-95,3,52,132
-53,-81,-92,-58,-2,-5,17,63,45,154
-35,-70,-55,-68,11,38,71,23,25,133
25,-12,-20,-58,12,66,78,-50,-42,99
49,24,22,-14,31,101,138,-43,-58,40
41,40,40,42,69,134,182,-14,-10,-38
12,33,13,34,79,145,162,-17,1,-60
-17,7,0,6,64,140,139,-53,-12,-74
24,58,46,29,57,169,54,-192,-50,-10
73,114,112,54,34,129,-77,-223,-46,102
-43,-25,-16,-38,-20,89,-31,85,44,126
-190,-185,-163,-126,1,124,67,181,34,36
-167,-169,-193,-88,45,124,80,59,-13,51
-75,-96,-112,-72,-7,16,29,-8,26,181
11,-10,-23,-66,-65,-149,-132,44,143,227
84,53,18,-42,-89,-291,-291,33,176,182
37,42,15,-27,-61,-256,-241,-1,65,-42
-77,29,52,42,32,-94,-77,88,17,-340
-51,43,70,58,19,-67,6,204,114,-243
58,85,70,32,-47,-128,-18,224,138,-75
120,119,116,53,-12,-93,-83,86,45,-48
123,143,148,110,74,3,-58,4,-32,-108
88,118,125,108,82,16,-42,17,17,-88
-5,74,73,80,74,18,-20,-1,11,-121
-51,25,42,61,38,12,-12,-88,-153,-212
-62,-23,11,44,9,15,-12,-122,-318,-311
-74,-51,0,36,1,15,-6,-116,-317,-308
-106,-89,-31,11,-1,2,39,-105,-214,-245
-116,-99,-88,-27,-12,-29,53,-95,-93,-178
-71,-92,-115,-61,-22,-50,13,-89,-35,-75
10,-35,-52,-51,-36,-31,-23,-38,18,87
124,58,-12,-54,-103,-35,-79,42,114,290
111,38,-44,-42,-97,-30,-100,47,155,341
109,33,26,8,0,48,-83,0,116,338
104,53,73,52,84,147,-31,3,69,203
75,60,100,64,110,186,37,42,-32,0
78,52,66,34,91,156,51,62,-35,-57
58,53,20,32,81,116,-8,9,-15,-38
36,68,0,35,66,38,-47,-38,-46,-31
16,55,54,59,36,-30,-60,-47,-75,-41
13,31,43,40,-11,-91,-48,-5,-29,-15
55,7,-34,-10,-62,-153,-51,8,22,68
44,5,-7,-26,-64,-102,19,7,-10,53
-44,-16,-7,-25,-41,-37,95,9,-42,-33
-83,-53,-37,-41,-52,-44,73,-29,-55,-65
-83,-65,-45,-51,-65,-55,51,-34,-33,-73
-109,-61,-47,-51,-62,-21,55,-4,-4,-94
-130,-50,-37,-30,-47,6,72,29,14,-94
-96,-33,-22,-28,-40,1,58,31,16,-67
-40,4,16,0,-31,2,41,1,12,-21
-4,17,25,16,-22,5,36,10,55,47
34,-19,-20,-6,-28,-19,-1,13,120,176
56,-45,-57,-15,-36,-39,-42,-8,126,250
67,-34,-45,-12,-20,-35,-39,-36,66,204
100,-4,-17,6,4,-13,-56,-79,11,161
109,9,-15,-3,19,2,-52,-35,78,173
102,19,-21,-39,-17,11,-27,29,144,104
64,31,-15,-49,-40,23,11,26,65,-8
27,24,-1,-21,-14,35,18,-19,-62,-90
-12,32,23,28,40,55,36,-35,-93,-67
-42,-1,-21,-11,3,15,23,-40,6,93
-32,-32,-46,-44,-13,-8,22,-47,93,193
-27,-64,-72,-51,-14,0,30,-60,105,216
-94,-96,-86,-46,24,27,66,-38,27,44
-113,-83,-40,-31,42,41,118,-1,-26,-87
-67,-32,-2,0,14,43,105,-3,-71,-173
-59,-3,41,34,17,32,104,17,-135,-291
-60,5,52,50,32,35,113,103,-122,-302
-54,3,48,55,36,57,98,109,-57,-249
-44,24,63,67,56,52,69,32,-93,-251
8,28,36,41,27,5,2,-22,-139,-174
85,19,-1,0,-24,-34,-39,8,-59,-11
102,31,-3,-1,-42,-40,-70,19,0,44
75,45,-15,36,9,58,0,26,-3,-34
47,62,-23,101,87,192,86,8,-50,-108
48,75,-40,121,109,218,31,-36,-91,-111
16,46,-25,90,87,189,-3,-26,-64,-88
-33,-8,16,47,42,104,-34,-53,-52,-86
-97,-73,-60,0,-9,37,-33,-68,-38,-125
-119,-110,-91,-56,-59,-30,10,-35,9,-99
-80,-67,-19,-57,-80,-181,-102,-58,24,-61
-56,-34,-7,-13,-53,-231,-197,7,70,-30
-5,-2,-44,-4,-55,-209,-107,169,149,45
9,-3,-46,-38,-79,-138,-61,95,105,75
-16,-21,-28,-59,-62,-34,-60,-38,27,36
-46,-50,-74,-54,-17,45,24,-58,10,-25
-69,-63,-76,-49,17,94,117,-47,14,-63
-30,-26,-1,1,58,135,179,-110,-110,-150
14,19,42,43,78,150,227,-135,-189,-142
42,41,38,37,63,103,162,-88,-84,4
128,93,86,75,68,-9,-14,-17,95,154
170,130,73,101,77,-95,-138,74,153,210
113,71,-24,25,20,-50,13,310,115,137
50,14,10,-37,-34,10,131,352,104,67
24,0,32,-31,-25,6,17,157,80,55
40,15,35,-36,-51,-48,-103,34,88,60
58,31,36,-53,-80,-96,-146,-56,66,30
23,49,79,-9,-69,-132,-159,-180,-73,-66
-68,-6,38,-3,-41,-113,-125,-153,-110,-138
-145,-93,-40,-48,-10,-105,-138,-62,-48,-130
-107,-67,-26,-22,42,-77,-151,-10,19,-48
-3,4,1,18,82,-48,-145,-6,52,59
75,58,-19,61,91,-59,-113,-15,40,131
98,50,-13,70,73,-34,-59,14,64,151
97,18,39,27,31,-32,-33,79,153,166
63,24,67,8,-14,16,35,133,165,108
50,53,86,11,-66,49,83,127,149,78
49,39,72,0,-73,18,36,81,159,85
49,-16,20,-34,-77,-21,-15,10,158,104
75,-28,7,-58,-101,-67,-35,-61,82,107
48,3,-15,-29,-84,-66,-8,-98,-65,-13
-8,-2,-115,-1,-41,-37,0,-125,-198,-148
-56,-55,-102,-29,-48,-50,-22,-76,-186,-160
-12,-31,-55,-21,-51,-90,-46,-9,-106,-81
46,15,21,21,-19,-51,-16,85,-22,47
37,23,55,41,10,8,-25,68,6,131
44,18,30,21,-1,4,-71,-30,20,143
41,-9,0,-12,-11,15,-19,-4,76,104
26,-30,-15,-54,-35,28,11,19,62,16
9,-1,17,-18,5,49,19,-28,-54,-92
-10,14,14,28,48,80,100,42,-50,-49
26,-1,25,14,41,49,137,121,54,218
92,1,19,-22,-5,0,48,48,54,458
85,9,-2,-9,-9,14,47,-19,19,452
26,-3,-36,18,14,70,89,-69,2,319
-29,-11,33,28,22,76,57,-130,-106,9
-153,-67,-28,-9,16,138,132,-100,-157,-373
-185,-110,-152,-96,-41,161,193,-57,-98,-416
-214,-139,-179,-120,-43,166,237,-71,-135,-421
-266,-148,-129,-91,16,213,233,-48,-162,-497
-204,-113,-87,-64,26,151,104,-5,-32,-373
-152,-86,-63,-38,26,99,35,-4,42,-225
-65,-12,36,18,64,57,-63,-21,8,-95
50,106,184,106,115,-32,-200,-37,-44,-31
69,136,195,127,111,-85,-149,-39,-39,-15
44,96,113,96,75,-93,-25,8,15,22
50,60,70,54,30,-110,23,32,30,60
82,83,100,42,0,-76,26,30,22,93
102,108,75,52,7,-9,8,63,71,117
54,78,35,43,18,24,5,91,117,103
14,42,64,27,27,24,-22,73,109,77
24,28,59,12,23,4,-69,2,24,52
39,19,48,7,11,-29,-98,-71,-57,30
6,-27,0,-26,-34,-64,-81,-54,-34,59
-54,-82,-99,-49,-74,-122,-45,-3,64,123
-61,-98,-69,-76,-112,-158,-45,-14,129,171
-28,-103,-82,-124,-164,-199,-88,-32,150,242
-14,-70,-97,-124,-159,-161,-68,-15,150,249
-38,-62,-41,-90,-122,-95,-14,18,100,191
-37,-43,-11,-53,-51,-57,-5,14,9,127
-19,-36,2,-7,34,-18,-2,-16,-98,-41
-46,-4,47,32,72,27,2,-12,-166,-250
-37,34,102,77,93,51,32,-29,-203,-343
4,78,143,119,119,52,48,-68,-224,-273
46,107,158,133,137,48,35,-71,-186,-167
68,78,122,98,119,67,70,-13,-106,-58
134,94,105,40,61,82,64,33,-22,72
175,116,108,4,-33,74,18,64,48,141
106,46,56,-24,-57,28,-24,100,110,124
11,-39,-62,-54,-34,19,-47,119,138,70
-29,-78,-124,-68,-28,18,-47,45,57,26
-31,-64,-45,-64,-39,-6,-28,-20,-22,-10
-29,-44,-10,-55,-29,-25,-28,-52,-52,-25
-67,-84,-43,-69,-52,-25,-46,-61,-51,-51
-99,-130,-119,-112,-87,-51,-65,-41,28,-1
-72,-121,-109,-116,-88,-84,-73,-44,94,82
7,-49,-63,-73,-53,-63,-68,-58,17,54
25,28,-43,21,27,26,34,-29,-125,-86
38,29,-22,23,52,46,101,45,-80,-54
61,9,38,12,59,35,87,56,-17,22
78,33,61,45,78,33,85,56,-2,53
85,69,66,66,88,36,93,74,1,91
83,51,59,66,78,51,84,67,32,157
91,45,41,42,51,52,75,62,71,198
78,32,34,43,45,45,56,31,71,204
30,4,25,37,45,39,12,-24,34,106
-24,-21,-6,29,34,25,-40,-95,-14,14
-82,-64,-87,13,19,34,-40,-128,-12,-54
-143,-121,-125,-35,-11,34,-44,-156,-13,-125
-154,-119,-158,-24,-12,6,-58,-194,-48,-181
-138,-85,-84,7,14,30,-5,-197,-61,-178
-175,-124,-67,-5,54,82,110,-104,-59,-159
-131,-138,-103,-41,48,82,215,116,44,-27
12,-42,-24,-14,6,81,238,277,167,117
77,39,37,13,-37,57,155,180,163,127
98,99,77,12,-67,-2,47,27,59,97
137,127,84,0,-75,-68,-64,-62,-4,110
177,107,63,7,-46,-72,-126,4,24,204
197,95,14,21,21,-24,-179,12,25,309
189,81,-58,33,39,7,-166,88,35,267
77,15,-28,-13,-9,7,-76,256,62,87
-49,-57,-46,-64,-33,-3,-46,173,-23,-163
-104,-74,-51,-67,-29,-18,-72,43,-118,-326
-72,-38,-90,-31,-7,-25,-59,15,-85,-291
-26,-6,-19,-28,-8,-61,-58,-9,-69,-173
-20,3,14,-34,-26,-118,-83,-33,-113,-124
-57,-6,7,-43,-52,-148,-57,-20,-102,-126
-26,6,15,-33,-61,-163,-54,-54,-116,-109
24,24,21,-22,-63,-133,-56,-55,-83,-52
-33,21,33,-7,-22,-69,18,-19,-62,-88
-123,-9,40,26,45,5,84,-2,-115,-178
-122,-14,46,43,58,25,59,-41,-155,-224
-50,2,36,28,24,10,19,-60,-116,-118
22,17,22,-7,4,17,36,7,-5,24
78,47,41,7,23,17,35,20,41,110
85,73,42,34,25,14,17,7,55,103
64,59,42,23,6,9,-16,-17,52,79
35,43,46,17,17,7,-48,-43,21,50
22,17,13,-12,-22,-40,-57,-40,9,56
18,-5,-87,-50,-69,-63,31,46,27,60
5,-49,-117,-110,-108,-60,46,66,45,37
-17,-58,-52,-95,-95,-47,-18,-33,9,-46
-96,-70,-32,-44,-56,-18,17,-78,-10,-134
-151,-96,-36,-23,-35,45,125,-26,96,-23
-131,-80,-28,-25,-40,56,148,14,176,111
-127,-67,-107,-42,-45,34,100,-22,114,48
-105,-52,-88,-17,7,81,54,-82,-51,-84
1,42,55,69,52,97,18,-94,-126,-50
130,150,133,125,75,67,30,-1,-79,41
174,158,114,114,76,59,-12,120,48,113
107,50,-54,56,88,147,-66,67,165,151
6,0,-106,58,123,244,-7,-40,83,42
-44,18,-29,96,139,266,97,-53,-89,-108
-79,6,-54,86,108,267,187,-16,-130,-187
-73,-31,-14,9,42,173,176,-42,-22,-97
-16,-24,13,-31,-29,42,103,-95,61,58
60,44,75,0,-69,-104,-20,-159,28,135
39,52,83,2,-89,-221,-39,-53,49,86
-89,-40,5,-50,-110,-212,135,211,123,-64
-144,-71,-13,-33,-78,-130,191,262,41,-194
-62,-28,25,-6,-56,-149,-4,129,-17,-133
37,29,60,17,-37,-170,-142,71,33,6
58,38,60,26,-12,-125,-123,40,54,59
44,28,53,8,-5,-81,-86,-10,13,52
48,30,41,16,12,-60,-71,-26,22,78
29,0,0,12,22,-36,-28,-20,56,79
11,-24,22,0,21,23,39,-4,67,52
34,4,48,15,49,91,72,-29,18,53
65,8,45,24,57,93,92,-59,2,85
72,-9,8,-19,25,44,112,-23,60,131
62,-17,-17,-39,4,6,127,15,72,139
62,-28,-33,-55,-15,-20,92,54,77,172
123,19,25,-31,-19,-81,-128,46,68,231
108,24,23,-4,0,-115,-277,28,-7,164
16,-8,-9,3,5,-55,-168,36,-75,-17
-38,-6,6,24,26,-11,-76,20,-124,-144
-77,-19,15,36,17,-13,-83,-13,-136,-170
-89,-35,17,37,14,-35,-130,-37,-145,-161
-66,-30,-11,10,20,-37,-105,-43,-103,-69
-13,-5,-16,4,-19,-53,-91,-49,-51,24
32,-6,-20,20,-38,-71,-104,-67,-33,38
28,-13,-22,23,-35,-60,-69,-26,19,-3
26,-1,-6,21,-12,-37,-47,24,88,17
86,35,24,38,26,-20,-91,-56,20,111
137,77,59,58,95,45,-97,-128,-97,135
129,95,86,42,91,122,-19,-43,-90,61
97,81,57,-30,-24,126,69,51,-41,-57
13,37,33,-20,-40,95,57,54,-54,-262
-35,6,6,0,-7,60,12,1,-62,-311
-38,-8,-3,8,2,13,-34,-28,-26,-198
-54,-31,-15,-12,-4,-2,-51,-31,19,-92
-78,-60,-61,-40,-24,-15,-48,-18,36,-67
-54,-32,-52,-59,-44,-24,-13,-12,39,-49
-52,-43,-73,-127,-134,3,57,0,115,3
-49,-90,-113,-173,-185,47,67,-61,136,95
-84,-110,-138,-141,-86,128,88,-134,-5,90
-67,-56,-93,-70,-15,164,128,-138,-99,16
-14,15,-5,-19,2,144,123,-137,-59,-1
35,81,67,27,5,70,20,-161,-25,-39
81,139,153,114,70,-15,-78,-133,-19,-7
75,96,125,115,99,-18,-30,24,-20,5
105,70,90,72,58,-67,-26,137,21,83
98,49,50,52,25,-104,-41,220,42,148
-17,-27,-6,26,9,-64,22,282,35,95
-101,-93,-49,1,0,-39,22,119,-3,-15
-111,-90,-33,9,8,-11,0,-10,-43,-132
-95,-43,13,43,58,16,-31,-94,-196,-272
-72,-9,28,53,78,9,-76,-149,-338,-324
-58,-4,29,36,40,-32,-86,-134,-267,-244
-5,17,54,7,-34,-25,18,-2,-115,-110
25,17,30,-63,-175,-34,146,201,36,3
16,0,-2,-75,-186,-54,122,221,62,29
19,13,14,-37,-102,-18,35,133,44,85
17,-28,-6,-36,-51,92,35,97,69,123
30,-18,-18,-29,-15,147,69,57,68,127
76,32,16,15,22,138,16,-18,23,141
96,55,51,44,52,99,-36,-86,-20,94
50,28,26,33,53,99,20,-35,-18,-3
27,9,5,21,37,48,47,20,31,-22
76,64,0,37,20,-44,-29,-18,43,59
101,77,-52,12,-48,-125,-55,8,63,99
44,-3,-34,-57,-117,-155,48,183,114,64
10,-40,-45,-99,-150,-165,35,199,139,61
29,-20,-30,-76,-135,-162,-84,60,81,83
-9,-51,-42,-61,-100,-112,-98,-24,29,39
-75,-89,-117,-61,-83,-69,-69,-29,45,6
-118,-127,-189,-71,-90,-38,-43,-14,102,3
-138,-131,-140,-74,-88,-38,-26,7,169,-4
-113,-85,-46,-28,-37,-6,37,25,123,-40
-41,-27,16,41,28,43,74,-48,-73,-33
-53,-49,20,51,65,148,72,-88,-164,-83
-99,-102,-29,15,77,230,108,-56,-108,-102
-105,-103,-48,3,77,215,153,-43,-65,-76
-97,-83,-28,14,71,122,129,-84,-84,-82
-85,-77,-19,27,81,52,93,-111,-63,-70
-3,-51,-10,26,95,-7,40,-104,18,46
96,22,37,71,129,-108,-101,-50,97,174
197,114,113,100,126,-160,-173,21,196,340
242,138,107,35,30,-144,-87,127,253,533
234,109,57,-32,-76,-91,-32,142,290,626
114,58,24,-41,-74,-38,-20,132,233,420
27,46,43,-22,-48,-41,-33,100,120,158
-40,18,13,-57,-71,-69,-77,22,4,-44
-124,-47,-45,-98,-102,-54,-42,27,-44,-250
-182,-87,-74,-91,-102,-43,0,59,-94,-419
-105,-50,-39,-60,-75,-68,-19,-1,-184,-362
-57,0,-4,-27,-75,-50,-57,-79,-231,-266
-81,-17,7,-8,-63,6,-2,-59,-160,-167
-65,-26,-22,-27,-66,30,63,13,-4,-40
-30,7,5,-4,-33,37,89,15,-9,-105
-27,44,40,60,20,51,121,-26,-88,-197
-47,37,29,50,32,55,139,27,40,-112
-22,34,10,24,13,15,78,24,69,-9
46,96,71,67,98,4,-29,-32,-81,-50
60,152,134,110,228,21,-114,-33,-127,-122
52,87,52,32,146,10,-116,-33,-87,-138
3,30,-15,-11,60,-1,-102,-44,-67,-160
-61,-8,-8,-5,51,-4,-129,-71,-81,-183
-118,-48,-28,-12,42,5,-99,-87,-85,-173
-123,-59,-54,-38,2,0,-67,-95,-77,-82
-115,-84,-100,-56,-7,34,17,-109,-112,-8
-110,-103,-117,-83,-35,53,136,-83,-105,-20
-83,-89,-101,-86,-45,23,200,-13,-14,-31
-84,-52,-52,-31,0,38,204,18,35,-38
-47,-12,21,28,34,35,173,-12,0,-27
18,28,42,54,53,-9,58,4,25,35
108,79,-9,66,54,-57,-183,35,83,141
188,159,69,101,69,-73,-320,-11,54,192
164,174,140,115,81,-47,-243,-44,6,92
74,139,131,120,104,45,-100,-19,3,10
60,98,75,61,79,60,-48,8,71,90
35,43,0,-7,36,51,-43,-44,54,56
-47,-15,-67,-14,22,78,-11,-81,3,-46
-88,-44,-144,-16,12,72,31,-98,-10,-97
-88,-63,-111,-48,-30,20,81,-75,51,-59
-119,-71,-112,-78,-54,-20,97,-68,66,-60
-140,-30,-7,-7,-5,-22,65,-127,-106,-183
-29,38,31,24,-4,-85,-19,11,-55,-106
92,82,-33,3,-46,-183,-116,177,125,85
121,87,-15,0,-37,-163,-85,182,189,178
78,25,13,-15,-24,-91,15,141,203,163
42,7,8,-13,-12,-34,56,126,190,115
40,32,30,4,4,4,38,118,172,72
52,42,33,-2,8,2,-5,91,140,78
102,66,45,-3,-12,-28,-88,0,37,85
201,122,77,6,-23,-74,-156,-131,-137,142
239,125,87,23,-8,-41,-119,-165,-198,300
122,23,28,16,5,33,-7,-58,-114,290
-10,-59,-30,-16,-19,38,13,-5,-29,177
-58,-87,-47,-32,-34,26,14,16,-15,33
-126,-124,-37,-20,-6,61,76,36,-84,-203
-191,-136,-40,-4,14,98,159,41,-121,-348
-174,-104,-32,-18,8,92,192,31,-96,-285
-147,-112,-20,-25,-10,100,183,-10,-93,-170
-135,-110,-12,-10,-9,87,169,-17,-25,-35
-98,-72,-21,-6,0,79,151,12,25,45
-48,-46,-27,3,0,46,37,-24,-1,39
16,-14,-1,3,-6,-25,-108,-74,5,81
19,-16,-87,10,8,-22,-133,-123,-17,57
46,0,-85,51,39,-13,-169,-119,-39,34
96,66,60,89,51,-35,-188,14,-60,-2
95,80,111,89,43,-30,-107,159,6,17
71,41,79,43,42,0,-42,133,116,79
40,4,27,-3,15,22,14,98,191,114
20,-8,9,-14,0,-4,5,24,153,85
5,-23,-2,-23,-30,-33,-21,9,143,11
-1,-48,-78,-69,-67,-50,0,108,134,-28
14,-22,-17,-50,-55,-48,-42,64,-31,-104
-4,20,58,18,2,-31,-93,-24,-85,-122
-60,-10,52,49,40,-27,-92,-35,19,-65
-13,-27,-11,-20,-2,-63,-118,-62,148,95
12,-59,-82,-99,-60,-90,-118,-102,197,186
-29,-82,-47,-75,-28,-22,-2,-113,46,88
17,-3,51,21,56,44,93,-27,-110,-20
59,84,122,96,120,74,135,176,-97,-56
39,76,0,79,120,109,154,184,-123,-93
-1,28,-84,38,82,116,177,125,-92,-48
-10,12,-17,37,57,104,147,150,1,46
-11,1,41,31,35,121,78,91,10,51
18,-24,6,-20,-16,83,19,30,8,53
-11,-45,-6,-41,-37,57,18,-35,-99,-94
-70,-44,-3,-31,-12,134,52,-120,-251,-240
-61,-60,-37,-47,-30,149,96,-103,-249,-227
-67,-47,-33,-38,-23,138,142,-67,-206,-248
-74,-11,13,-15,-7,131,148,-83,-181,-239
-75,-4,29,-8,-40,44,119,-65,-124,-143
-60,-34,6,-56,-90,-87,24,-26,-42,-72
-22,-36,-1,-76,-101,-205,-129,41,33,36
-1,-9,2,-37,-93,-271,-203,35,41,52
46,6,-9,-26,-103,-260,-161,25,26,53
95,25,39,-16,-90,-239,-137,20,19,54
75,35,41,-3,-43,-209,-132,-14,-7,17
55,28,18,0,-14,-179,-91,-25,-1,39
91,43,1,3,20,-128,-77,-54,-1,100
104,95,62,39,53,10,-9,-76,-41,61
46,98,107,90,68,132,95,-43,-31,-8
-15,47,79,103,83,101,77,-35,62,7
-24,-1,27,54,46,24,30,0,187,113
44,20,25,16,-3,-43,-42,50,266,274
54,18,29,17,-1,-77,-95,63,182,248
12,4,18,17,-2,-48,-45,57,29,88
-20,-11,5,-1,-7,-8,26,102,-48,-55
-50,-55,-54,-43,-42,-11,36,70,-44,-112
-68,-94,-93,-80,-80,-62,9,35,-14,-118
-17,-86,-107,-82,-96,-131,-67,-20,-4,-63
21,-50,-81,-54,-61,-110,-126,-90,-33,-7
3,-52,-67,-14,19,-29,-93,-90,-39,14
-18,-44,-134,14,70,4,-30,-66,-59,-6
-7,-12,-124,66,93,70,29,-64,-123,-58
16,45,17,99,80,119,68,-9,-84,-22
53,90,76,108,73,110,30,-42,-53,33
73,95,73,68,67,93,36,-45,-7,58
57,79,71,43,60,119,125,73,101,37
54,77,76,46,58,110,169,135,223,76
66,81,90,42,46,49,109,56,154,74
57,80,98,40,37,14,36,-28,-4,32
34,44,51,2,-14,-7,44,-9,-21,12
14,0,20,-32,-61,-35,32,-41,-12,15
-49,-48,-17,-43,-67,-37,42,-28,-3,-31
-77,-86,-50,-55,-69,-31,43,47,50,-61
-57,-91,-87,-62,-63,-22,33,65,64,-18
-54,-72,-59,-50,-61,-13,26,36,53,35
-30,-39,-9,-10,-30,11,1,-17,-16,74
-10,11,6,32,19,48,9,-52,-66,61
39,25,7,0,-10,27,27,11,60,85
58,35,14,19,5,26,9,-10,38,5
41,27,11,29,23,35,28,6,12,-100
20,23,27,39,34,37,29,20,24,-154
-35,-77,-104,-14,-24,87,111,-36,-55,-38
-137,-152,-116,-62,-84,22,88,-123,-122,-139
-228,-166,-115,-38,-85,-1,93,-178,-160,-251
-214,-133,-163,-17,-45,-61,-46,-133,-64,-246
-165,-83,-70,28,33,-106,-205,-47,18,-195
-88,-8,49,77,109,-23,-139,-20,1,-119
55,82,78,18,29,64,7,49,58,79
212,168,130,-30,-116,30,14,120,167,308
269,190,143,-9,-121,-55,-80,54,164,467
190,100,69,11,65,28,-36,37,132,383
43,7,11,11,139,132,41,63,72,95
-49,-24,-8,12,124,168,45,33,-22,-168
-73,-18,4,49,143,175,27,27,-27,-255
-101,-23,-47,42,129,139,-21,-33,-11,-232
-54,-6,-157,19,70,34,-101,-89,43,-139
43,34,-91,7,13,-64,-213,-140,65,-18
75,29,9,5,-31,-107,-207,-123,62,1
82,28,33,-1,-72,-154,-159,-15,62,-22
73,30,35,-29,-110,-182,-157,43,79,14
43,-6,-8,-67,-141,-164,-117,40,110,55
2,-46,-46,-98,-158,-140,-82,-30,9,-4
-62,-59,-59,-84,-132,-88,-51,-68,-88,-104
-101,-72,-89,-94,-120,-30,64,40,-30,-102
-63,-50,-51,-71,-105,-2,103,35,26,-54
-7,-34,-35,-49,-87,10,118,13,51,-27
3,-24,-12,-36,-42,-5,92,11,70,-10
27,48,79,56,38,0,12,32,51,-58
107,150,171,135,106,0,-32,107,53,8
113,133,156,128,117,36,-16,73,16,28
27,36,66,75,99,89,15,-28,-8,-5
11,-9,25,8,55,96,48,-35,24,3
31,4,30,-4,43,76,46,-61,-29,-11
13,-4,11,-1,24,47,49,-104,-70,-10
-4,-19,-26,-21,-14,0,19,-151,-78,53
2,16,-32,0,-19,-47,-18,-173,-98,91
22,71,39,51,-1,-103,-74,-7,-12,119
8,52,41,36,-9,-70,7,318,105,138
-32,4,-2,-21,-22,13,77,303,123,118
-42,4,3,-9,8,75,75,148,78,36
-10,41,38,9,6,90,59,79,22,-50
68,105,42,31,0,24,-11,-30,-51,-39
109,133,-48,41,15,-39,-42,-119,-120,7
24,65,-72,47,55,-32,42,-60,-145,-25
-58,-28,-16,34,42,-31,79,54,-77,27
-74,-73,15,16,3,-28,67,69,-49,122
-58,-117,-23,-34,-30,-12,99,64,-24,217
-37,-130,-72,-83,-56,-25,100,69,57,283
28,-89,-64,-82,-76,-52,43,59,139,300
75,-29,-24,-66,-79,-67,-38,-21,54,219
