-192,-85,-147,-86,-35,14,33,10,32,-139
-177,-99,-94,-97,-48,-22,34,0,1,-174
-170,-139,-93,-95,-60,-48,59,-6,-29,-166
-157,-123,-70,-73,-57,-55,57,-8,-68,-167
-143,-77,-37,-44,-35,-50,52,7,-76,-179
-172,-119,-61,-60,-28,-9,87,95,-12,-153
-147,-92,-72,-65,-23,16,99,109,-19,-113
-24,51,7,-48,-28,-13,47,47,-33,-43
48,75,45,-29,-24,-12,-3,5,0,54
53,44,67,1,-2,0,-27,-45,-28,57
56,23,63,23,6,1,-72,-79,-76,41
91,51,80,36,18,-14,-97,-106,-57,83
139,127,121,59,28,-42,-137,-143,-11,137
155,116,151,71,12,-82,-198,-150,3,155
109,72,135,58,9,-73,-183,-107,37,122
40,13,64,22,-3,-56,-137,-32,82,81
35,-11,22,-16,-25,-71,-118,-5,85,52
79,14,9,-50,-79,-100,-136,-32,25,35
72,57,10,-62,-107,-126,-133,-65,-30,26
6,9,-31,-48,-97,-97,-85,-78,-34,5
-39,-44,-181,-42,-81,-62,-54,-98,-73,-60
-13,-17,-178,-31,-67,-61,-59,-75,-71,-56
49,60,-5,0,-44,-41,-56,-30,-37,11
112,119,110,32,-19,-59,-82,-68,-66,48
156,156,144,60,24,-48,-63,-90,-106,48
89,42,63,34,50,37,43,22,-67,9
40,-24,28,31,94,75,114,100,-5,29
84,6,47,43,75,44,69,51,9,82
112,2,41,30,33,7,27,-18,-19,72
116,44,63,37,21,-8,10,-58,-39,19
78,61,79,61,30,11,16,-52,-45,-53
-13,17,68,78,45,45,31,-40,-17,-72
-31,-1,53,57,23,38,28,-45,36,-30
-48,-21,17,16,-10,15,32,-26,96,-11
-72,-50,-18,-14,-49,5,47,6,111,-31
-54,-54,-33,-39,-80,-16,15,-29,63,-62
-60,-53,-41,-38,-75,-2,10,-14,83,-65
-79,-67,-55,-18,-49,25,23,17,63,-81
-85,-71,-13,-2,-18,42,7,38,16,-73
-45,-56,0,10,3,46,-3,63,-2,-38
7,-14,14,12,5,36,-13,64,22,-11
40,36,66,45,27,31,-23,58,45,14
43,31,80,60,37,28,-12,44,48,40
66,16,46,18,18,7,-20,13,23,85
83,32,35,8,11,9,-13,0,-23,120
70,21,33,16,10,7,-16,-17,-76,117
49,13,28,4,-2,-1,-48,-16,-85,97
25,9,28,6,-10,12,-29,17,-30,72
11,-5,1,3,-27,28,14,70,44,74
33,-11,-16,-30,-45,12,0,65,44,62
15,-29,-30,-52,-64,-11,8,58,9,-2
-53,-58,-64,-55,-67,-7,40,79,5,-63
-151,-114,-111,-67,-61,6,81,77,-30,-132
-179,-100,-104,-68,-38,11,83,71,-36,-106
-136,-52,-114,-51,10,26,80,85,-20,-58
-99,-34,-84,-28,23,19,44,63,-35,-54
-58,-34,-13,-12,0,0,12,51,-61,-54
-4,-13,18,11,8,5,24,82,-19,-27
-19,3,26,55,49,34,25,102,6,-9
-73,11,51,96,105,92,23,75,2,-15
-93,-37,48,92,119,98,-16,5,-36,-8
-88,-59,26,76,106,71,-44,-25,-54,-18
-59,-7,30,38,49,59,-39,12,2,-20
-17,77,41,40,30,59,-9,56,60,24
-19,80,28,62,38,60,33,110,123,65
-64,27,17,48,19,44,33,92,120,35
-83,-10,16,28,1,8,-6,8,84,-2
-73,0,-7,3,0,-20,-38,-42,114,-10
-82,-50,-48,-55,-53,-79,-48,-37,131,-12
-39,-31,-21,-66,-97,-131,-63,-58,102,24
15,22,16,-23,-78,-101,-74,-101,-9,47
-1,27,31,22,-22,-61,-53,-127,-99,0
-44,-4,-17,13,4,-14,11,-105,-107,-34
-66,-62,-83,-20,-1,21,56,-66,-55,-8
-54,-90,-91,-57,-15,29,82,22,31,40
-17,-60,-68,-51,-11,40,55,75,62,76
26,15,-26,-15,6,21,25,73,27,62
83,83,16,15,9,4,-19,32,-10,35
136,128,33,35,-1,-25,-75,-33,-23,59
122,87,35,39,18,-18,-112,-66,-21,49
53,22,10,40,31,13,-83,-58,-17,7
0,-23,-10,36,35,18,-36,-41,6,1
23,-34,-17,36,18,3,-26,-61,7,22
-10,-55,-65,28,13,-9,-29,-49,-22,-26
-86,-125,-115,-22,-14,-32,-27,-14,-43,-102
-103,-145,-110,-59,-39,-45,-30,-25,-56,-123
-55,-111,-80,-37,-36,-48,-45,-49,-92,-90
-54,-106,-65,-32,-45,-48,-46,-63,-132,-110
-22,-57,-66,-35,-47,-20,-23,-69,-128,-134
27,41,-33,-24,-22,7,10,-63,-116,-106
-3,8,-31,-4,-11,44,34,-59,-125,-103
-4,6,22,17,-2,71,33,-43,-104,-71
86,127,91,45,33,53,38,-11,-20,34
177,159,30,39,23,11,15,-1,22,127
179,145,-40,15,8,-9,-10,8,30,166
166,161,35,5,38,11,15,11,44,171
161,225,67,21,92,52,76,17,74,176
95,140,38,23,69,40,28,2,39,102
35,2,38,0,8,0,-48,-20,31,13
5,-4,51,-17,-42,-46,-59,-76,-20,-74
-44,16,61,-30,-65,-100,-20,-97,-37,-120
-38,38,71,-14,-61,-95,7,-27,42,-115
-22,41,70,-9,-76,-88,-17,20,82,-64
-32,-2,42,-36,-84,-95,-14,17,74,-14
-51,-57,2,-54,-81,-74,31,47,100,27
-43,-64,-1,-38,-66,-53,38,71,115,74
-40,-60,10,-12,-39,-12,75,94,122,78
-53,-61,11,2,-26,1,96,117,129,54
8,-19,5,7,-23,-9,73,97,116,50
74,36,-60,18,-12,-4,31,73,80,35
82,52,-30,44,11,13,13,33,-17,-25
91,57,-13,56,38,28,-1,-15,-127,-144
98,37,4,42,54,31,0,-55,-126,-150
99,11,41,14,43,30,-14,-79,-76,9
82,-13,18,-9,17,12,-32,-78,-58,74
36,-8,-13,-37,-7,14,-52,-82,-69,-1
-12,16,-41,-34,-3,29,-27,-79,-62,-49
-28,-20,-89,-34,-24,9,0,-45,-53,-76
-45,41,-7,-4,-17,-26,58,3,-9,-89
-77,102,54,24,10,-46,97,56,29,-67
-112,59,-4,30,30,-16,95,68,-5,-43
-137,7,-83,43,29,14,78,60,-41,-77
-136,-61,-15,43,20,24,70,76,-76,-105
-85,-43,68,55,33,35,70,110,-69,-90
-50,-19,39,73,51,38,58,136,-37,-42
-8,-29,-43,51,35,21,34,132,-22,30
31,-9,20,30,21,2,2,89,-55,56
65,29,78,51,35,-5,-31,36,-64,60
79,23,99,70,53,6,-54,17,-62,53
68,-28,60,48,64,41,32,54,-7,57
33,-85,22,30,72,47,72,69,32,50
-23,-117,4,24,81,44,36,5,37,18
-79,-143,-31,-19,49,9,8,-63,40,-7
-146,-175,-71,-80,7,-29,0,-82,35,-50
-146,-162,-82,-110,-34,-56,-15,-76,32,-66
-123,-126,-72,-98,-51,-45,-7,-71,63,-39
-97,-87,-62,-90,-56,-12,38,-9,95,-18
-21,-19,-21,-70,-60,4,62,46,94,18
58,71,43,-25,-53,3,32,56,67,50
104,95,64,1,-33,0,-29,53,83,108
92,128,87,23,-6,0,-57,19,104,141
-1,126,86,33,18,15,-51,8,72,102
-64,84,61,47,41,35,-2,3,58,62
-35,73,76,64,69,51,11,-44,82,77
26,56,61,47,70,44,-19,-76,65,111
64,59,59,46,67,38,-38,-104,-4,102
95,70,73,76,70,23,-74,-145,-67,97
82,18,1,30,27,16,-94,-143,-90,70
49,0,-26,-23,-16,20,-85,-111,-75,33
12,0,-20,-42,-40,-2,-56,-58,-23,11
-33,-48,-32,-67,-61,-23,-24,-15,22,-44
-77,-100,-81,-77,-90,-63,-37,4,63,-49
-81,-126,-124,-87,-98,-82,-73,32,87,-15
-61,-132,-107,-85,-79,-76,-84,52,54,30
-54,-108,-69,-47,-52,-58,-67,45,-44,22
-77,-96,-48,-15,1,5,11,71,-108,-46
-99,-141,-124,-25,29,62,100,134,-101,-111
-94,-136,-206,-42,34,65,77,84,-161,-152
-48,-47,-88,-34,50,62,38,35,-166,-140
31,28,-6,-22,54,76,63,44,-102,-60
147,74,46,18,68,101,96,30,-50,18
152,79,91,75,95,120,110,-36,-81,28
92,55,89,71,85,91,38,-114,-134,14
87,64,63,19,16,0,-53,-155,-118,17
78,67,35,-24,-34,-57,-93,-142,-47,21
50,75,23,-42,-60,-76,-115,-117,9,12
7,64,21,-42,-60,-66,-44,-56,94,-10
-56,25,20,-24,-45,-51,18,-22,135,-37
-136,-33,-19,-27,-57,-55,21,-20,83,-65
-144,-66,-68,-55,-76,-51,-7,-17,45,-61
-43,-52,-73,-59,-61,-25,0,-16,45,-35
55,9,-45,-22,-16,19,45,-6,45,-7
84,16,-47,-23,-14,19,70,0,52,23
81,-9,-50,-25,-24,16,59,-17,30,47
88,3,-26,-5,-24,12,52,-39,0,80
113,28,11,37,0,-2,34,-32,-10,131
94,57,47,74,43,-11,17,1,-29,125
19,51,64,70,59,-22,26,95,-27,67
-29,36,74,67,66,-24,28,241,74,63
36,89,118,99,85,-26,-45,243,161,141
0,54,63,101,87,0,-26,221,135,89
-102,-33,-12,83,83,16,47,202,120,-3
-89,-34,41,84,67,14,85,160,106,-59
-88,-30,52,64,38,17,71,112,106,-89
-159,-96,1,35,34,17,39,-11,78,-144
-164,-119,-57,-21,-2,-12,-39,-184,-5,-184
-126,-47,-39,-48,-28,-31,-89,-261,-6,-134
-74,14,-5,-45,-28,-41,-105,-225,23,-49
12,27,-2,-44,-31,-35,-119,-214,22,55
126,43,0,-43,-43,-56,-169,-232,-8,174
222,74,23,-38,-51,-81,-199,-204,-18,308
174,38,9,-46,-51,-37,-103,-44,49,320
89,-13,-40,-79,-42,30,21,188,157,215
46,23,-6,-46,2,64,49,243,160,89
20,40,1,-11,25,40,21,181,107,67
34,30,-104,-15,14,29,6,102,40,74
58,48,-101,-39,-7,6,-25,16,-43,24
12,13,-8,-53,-40,-46,-52,-78,-120,-90
-1,29,41,-26,-16,-61,-82,-123,-112,-130
8,47,50,-6,-18,-29,-88,-94,-64,-134
-26,16,34,-19,-31,-20,-45,-52,-64,-200
-67,-27,-1,-20,-38,-29,19,-36,-62,-187
-97,-105,-43,-31,-14,0,37,-26,-50,-125
-114,-127,-52,-36,-21,-8,41,12,3,-110
-104,-140,-51,-22,-22,-7,42,31,12,-95
-59,-114,-27,-5,4,26,97,81,52,-6
1,-46,6,28,43,70,141,141,87,83
9,-60,-2,28,48,78,118,119,21,77
35,-52,3,24,43,55,42,45,-80,48
78,-13,36,13,44,47,24,21,-135,9
86,47,30,-7,32,53,35,33,-116,-8
89,118,8,-30,0,13,4,32,-39,-5
54,124,24,-24,-25,-43,-49,-38,-22,-18
-9,43,0,-31,-47,-83,-99,-96,-16,-32
-23,15,-7,-45,-60,-91,-133,-140,8,-17
-20,-1,-7,-51,-54,-81,-105,-171,32,22
-34,-1,-23,-50,-43,-60,-53,-171,8,4
-73,11,-31,-62,-34,-28,-14,-155,-27,-134
-113,10,-18,-46,-31,4,20,-118,-55,-271
-89,5,-53,-18,-1,4,18,-100,-83,-276
-14,31,-119,22,59,21,37,-73,-54,-183
41,39,-3,65,98,69,26,-27,-18,-109
78,34,77,78,92,62,14,16,21,-39
107,53,74,59,66,66,49,68,102,36
148,43,48,44,54,93,83,120,109,78
211,58,39,13,7,49,61,142,77,129
198,45,20,-13,-25,-7,25,141,40,166
80,-17,-4,-32,-26,-16,6,123,-9,105
-13,-50,-29,-37,-16,-3,29,149,-10,52
-58,-29,-14,-25,-20,-7,46,225,30,62
-76,-8,-3,-29,-50,-9,61,241,66,54
-45,7,-17,-15,-40,-1,47,135,72,28
-76,22,-58,11,-5,11,13,20,46,-50
-154,28,-39,19,3,18,75,0,62,-143
-171,6,2,25,7,24,101,-6,102,-127
-119,-27,-59,6,16,20,56,-56,98,-8
4,-8,-12,-16,4,-23,-58,-153,26,127
95,14,-23,-43,-38,-88,-167,-172,-26,187
146,-19,-168,-80,-61,-111,-160,-80,-12,191
201,-45,-265,-92,-67,-55,-103,7,-33,205
191,-86,-180,-85,-68,-3,-30,98,-65,192
164,-116,-91,-63,-69,12,22,173,-32,195
99,-110,-69,-42,-51,41,123,237,8,159
-29,-106,-16,8,0,98,220,344,80,-14
-149,-97,55,72,70,132,222,342,63,-223
-191,-86,48,72,73,99,160,269,17,-259
-152,-20,76,84,50,68,94,170,21,-227
-115,10,28,80,41,46,47,13,-6,-219
-105,31,-89,45,35,-10,-38,-199,-118,-216
-5,109,-56,-11,-9,-113,-178,-365,-187,-135
96,121,34,-60,-59,-176,-214,-363,-72,0
51,85,55,-34,-32,-128,-162,-297,81,59
-19,49,74,30,45,-55,-114,-275,107,67
-74,-17,53,55,103,-10,-43,-235,55,31
-101,-59,1,36,110,7,46,-51,62,1
-81,-27,-67,65,129,44,128,121,50,-44
-60,-13,-98,105,145,71,180,303,50,-26
-126,-91,-119,93,145,119,221,464,64,-34
-182,-146,-73,40,85,122,221,470,10,-138
-176,-124,-54,-38,0,81,105,303,-73,-231
-211,-111,-29,-63,1,96,57,128,-159,-263
-228,-100,26,-7,27,118,14,-87,-238,-295
-158,-48,65,15,13,83,-96,-296,-244,-257
-50,32,78,20,-1,68,-157,-387,-210,-116
82,155,140,56,4,13,-178,-343,-149,4
166,198,175,114,38,-46,-133,-209,-19,113
129,132,137,142,53,-48,-112,-135,74,150
110,83,93,53,-62,-98,-159,-139,30,136
154,72,79,-23,-163,-179,-187,-146,7,160
154,64,-6,-19,-143,-177,-154,-146,97,219
92,41,-18,-16,-95,-108,-83,-108,226,253
69,16,1,-49,-96,-64,-30,-63,209,244
105,66,-72,-65,-107,-62,-32,-32,116,205
135,145,14,-7,-50,0,-4,-9,55,112
88,116,80,55,21,47,17,4,-5,4
29,81,91,96,75,44,-29,-24,-85,-63
61,87,111,109,106,59,-67,-54,-99,-56
152,68,127,102,83,66,-65,-20,-94,-36
230,100,126,87,53,25,-74,-19,-104,-13
218,78,95,46,34,-23,-80,-34,-105,-10
141,-19,24,10,18,-19,-32,-17,-21,74
23,-120,-37,-26,21,24,54,18,63,129
-7,-59,-36,-46,-4,28,65,-52,4,102
29,90,-27,-92,-80,-50,1,-147,-60,46
-71,31,-75,-108,-95,-68,15,-99,-55,-41
-155,-54,-115,-65,-75,-60,26,0,-7,-82
-103,-41,-31,-36,-82,-133,-82,-51,-28,-94
-38,-31,-6,-54,-100,-173,-136,-60,-17,-88
-3,-22,9,-33,-64,-108,-80,7,0,-78
-22,-33,-39,5,-11,-44,-5,31,-57,-81
12,-13,4,23,17,-31,0,-6,-74,-28
102,14,53,38,38,-18,1,68,69,108
125,0,63,65,61,7,9,127,174,184
120,-21,77,92,82,55,51,120,100,131
124,-58,55,61,71,56,99,170,91,115
118,-75,-4,7,49,30,99,180,120,128
99,-41,-94,-44,19,24,73,135,128,119
147,25,-66,-60,16,5,0,24,93,146
141,-17,-78,-66,0,-26,-59,-53,94,245
108,-93,-70,-78,-17,-40,-66,-98,107,353
132,-33,-24,-74,-27,-62,-109,-220,-12,331
192,19,3,-75,-65,-60,-112,-224,-89,250
273,155,62,-64,-93,-68,-55,-127,-39,223
184,229,92,-28,-84,-45,3,-28,44,123
-3,112,14,-29,-71,-9,59,60,50,-34
-90,13,-9,-64,-91,-29,63,75,23,-154
-176,-5,20,-18,-53,-15,53,44,0,-315
-245,-18,47,42,1,16,59,25,10,-375
-227,-43,46,72,59,58,78,15,23,-280
-163,10,69,111,85,59,14,-63,-83,-230
-72,63,96,132,97,47,-26,-86,-144,-162
-51,23,35,83,67,35,11,13,-104,-126
-48,4,-23,27,24,28,37,72,-74,-165
-101,-24,-45,21,24,35,22,26,-122,-248
-184,-70,-8,46,63,74,47,15,-110,-285
-229,-81,38,89,117,122,86,1,-54,-184
-247,-104,32,90,122,140,106,-18,-46,-109
-225,-166,-80,6,49,85,75,7,-17,-105
-121,-102,-75,-45,-9,20,32,22,5,-51
-15,-19,-34,-63,-37,-1,8,19,-33,-37
5,-53,-65,-64,-17,20,52,53,-32,-51
80,-42,-82,-44,-12,0,39,64,2,73
171,-21,-48,-47,-35,-44,-18,38,13,180
147,-34,-33,-61,-34,-60,-85,-38,-44,83
62,0,-14,-41,19,-48,-125,-103,-113,-57
5,38,8,14,77,29,-32,-43,-74,-97
-96,41,49,73,121,107,69,84,3,-97
-147,57,92,90,132,100,85,108,23,1
-123,18,73,71,119,74,59,105,17,126
-54,5,50,57,75,67,69,134,30,163
-7,9,42,44,5,-2,20,93,28,139
-51,-39,-10,-6,-44,-81,-36,83,44,69
-81,-71,-58,-37,-66,-113,-35,120,31,-1
-60,-77,-59,-52,-65,-95,0,218,60,-40
-4,-68,-80,-87,-96,-72,47,297,113,-38
-35,-47,-58,-82,-68,-11,67,235,102,-134
-118,-31,-37,-32,-7,78,93,137,77,-180
-49,28,-71,-27,-13,90,109,41,64,-73
101,73,-3,-20,-12,88,91,-80,-15,77
140,57,28,43,63,106,37,-214,-95,132
103,38,67,142,133,78,16,-250,-78,123
96,81,128,196,146,64,16,-202,-63,99
45,55,111,150,107,43,20,-104,-64,70
-22,-34,53,94,68,26,27,25,4,53
-66,-75,36,84,86,41,42,63,40,36
-16,16,64,63,70,36,33,100,138,76
72,112,66,26,19,34,6,150,206,169
75,25,-9,-28,-26,8,10,190,174,236
51,-34,-85,-72,-82,-45,-7,183,137,235
-5,-62,-101,-104,-115,-88,-46,72,76,140
-62,-98,-127,-108,-107,-96,-52,-31,23,19
-66,-94,-131,-113,-122,-126,-98,-121,-8,-60
-47,-33,-125,-152,-148,-150,-127,-193,-64,-156
-59,5,-109,-144,-115,-121,-95,-181,-106,-228
-51,-32,-127,-77,-38,-43,-51,-134,-76,-162
18,-4,-45,-17,29,28,5,-74,-15,-57
86,39,19,0,36,32,32,-20,24,-7
65,43,42,3,29,50,60,13,-10,-16
15,16,67,41,63,68,70,11,-71,-34
16,35,94,99,75,37,40,-24,-109,-67
88,116,125,90,34,-2,-40,-79,-133,-22
121,135,125,44,-31,-36,-102,-84,-120,29
123,116,125,34,-49,-98,-125,-94,-124,53
95,128,124,59,-9,-134,-165,-122,-110,51
87,122,99,55,-12,-180,-220,-175,-151,34
101,83,47,-6,-80,-212,-256,-238,-200,30
54,5,-26,-72,-103,-147,-165,-174,-165,45
-72,-88,-82,-81,-76,-55,-37,-67,-57,13
-148,-110,-69,-64,-35,-10,32,-23,-3,12
-115,-77,-53,-43,-33,-14,50,4,58,92
-92,-82,-41,-8,-5,-9,23,0,53,81
-79,-66,-39,3,12,-5,30,44,61,40
-86,-39,-19,15,45,34,88,105,81,-30
-100,6,65,74,96,109,168,179,149,-75
-71,42,102,111,118,118,158,165,150,-71
-53,4,58,96,103,79,112,94,96,-42
-7,7,49,67,67,48,69,11,6,-13
11,28,22,45,32,69,49,-24,-65,-40
-14,23,-35,42,28,88,83,35,-33,-40
-31,-29,-23,10,15,78,121,132,50,17
-38,-55,-37,19,34,62,129,150,67,35
-44,-126,-51,21,30,67,127,156,95,57
-62,-167,-63,18,44,111,159,120,122,35
-76,-171,-69,-5,30,91,130,32,86,12
-138,-234,-137,-65,-16,44,70,-23,43,-12
-123,-234,-171,-117,-46,2,49,19,110,9
90,-23,-90,-103,-70,-29,11,18,145,140
205,184,-30,-128,-126,-72,-3,-31,127,214
221,267,38,-83,-116,-93,-32,-65,124,262
260,262,130,4,-66,-120,-97,-117,66,278
196,196,127,23,-58,-107,-108,-70,23,182
62,87,47,-18,-54,-51,-60,8,34,8
35,91,51,-4,-24,-33,-78,-68,-66,-187
42,104,55,22,9,-14,-86,-101,-103,-215
17,66,30,44,40,16,-48,-48,-77,-171
28,77,30,36,23,7,-39,-11,-77,-94
78,96,20,25,-15,-39,-46,6,-7,57
91,64,31,39,-10,-39,-73,16,42,173
25,18,48,48,10,-35,-94,32,67,144
-113,-100,-3,40,51,-26,-36,103,62,32
-178,-153,-78,16,57,1,47,234,57,-50
-154,-98,-187,9,37,0,91,337,77,-81
-173,-154,-290,-19,19,16,154,353,73,-140
-258,-283,-349,-89,-11,53,213,310,7,-270
-330,-349,-291,-123,8,83,222,224,-64,-401
-303,-303,-152,-42,79,99,85,-12,-144,-438
-185,-189,-42,21,90,70,-66,-117,-92,-274
-125,-91,21,37,83,95,-89,-55,9,-56
-101,-33,-31,51,75,130,-51,7,33,32
44,153,-1,48,22,105,-50,35,43,32
158,209,138,48,-10,68,-46,0,68,91
110,54,84,13,-26,-6,-71,-110,-4,91
59,-34,13,-12,-14,-42,-63,-245,-78,109
58,-61,34,-16,-27,-69,-65,-281,-73,155
-17,-90,-5,-42,-48,-84,-82,-272,-113,87
-78,-78,-11,-26,-26,-62,-102,-272,-160,-42
-55,-65,-4,-9,-31,-22,-99,-195,-106,6
28,-19,-8,-47,-75,-48,-99,-151,-78,122
62,33,-9,-81,-111,-85,-119,-166,-60,141
65,21,-21,-69,-109,-80,-113,-127,2,89
114,84,8,-53,-93,-73,-120,-104,-30,51
141,130,-20,-73,-120,-68,-108,-44,-28,53
155,175,15,-98,-146,-88,-80,17,33,45
146,217,136,-5,-81,-98,-61,-5,39,-14
92,200,90,53,-12,-25,-45,-5,101,-81
43,162,77,43,12,45,-9,38,200,-77
140,215,200,42,12,63,28,67,129,-2
165,185,158,0,-6,44,35,117,-2,-13
122,180,117,5,8,37,16,87,-36,-56
149,236,137,19,35,30,33,17,-2,31
188,200,142,45,29,1,11,-41,35,179
184,134,121,69,42,18,65,26,153,263
124,21,33,-3,-14,-12,65,3,162,210
52,-81,-45,-74,-80,-76,0,-106,63,103
4,-128,-42,-66,-98,-109,-32,-153,4,104
-38,-130,-34,-20,-62,-59,7,-80,-36,77
-119,-142,-41,-31,-24,-21,73,52,-70,-93
-157,-116,-17,-43,-7,10,98,149,-69,-238
-125,-44,30,19,53,70,89,149,-85,-300
-84,-31,37,42,96,125,75,160,-72,-288
-102,-41,21,42,109,148,88,172,-62,-287
-151,-19,8,24,92,127,80,96,-118,-312
-210,-35,-37,-3,73,101,56,35,-181,-288
-140,9,-87,10,93,72,11,-29,-203,-199
-23,46,24,82,132,94,6,-74,-136,-58
30,77,104,121,142,87,3,-55,-60,46
20,59,80,89,132,82,25,-2,-37,44
0,-2,33,43,98,57,-15,8,-38,31
32,-19,7,23,55,12,-42,-32,64,97
36,-43,-19,-8,30,12,-6,-86,172,140
15,-84,-50,-46,-18,-13,-23,-103,124,109
0,-99,-56,-78,-57,-20,-28,-31,126,100
-9,-76,-55,-78,-70,-34,-47,-18,103,99
0,5,-14,-71,-89,-69,-90,-82,27,81
69,81,2,-74,-108,-86,-95,-102,0,103
87,74,23,-36,-70,-91,-74,-60,-4,110
37,24,7,-25,-56,-87,-65,-27,-36,1
-72,-40,-17,-13,-7,-44,-41,-14,-84,-197
-50,-28,1,34,54,25,41,48,-59,-224
78,41,60,78,72,60,114,178,34,-86
87,17,69,102,97,99,203,368,109,13
3,-69,27,93,94,110,227,542,137,-28
-82,-188,-80,48,91,144,257,588,126,-9
-78,-219,-87,28,73,190,334,633,162,76
-15,-161,-62,-3,18,134,243,491,132,57
-47,-143,-45,-31,-19,56,117,160,47,-41
-52,-109,-34,-11,-55,8,49,-75,59,-39
-31,-25,-138,-33,-92,-60,-33,-267,27,-37
-21,64,-122,-56,-106,-128,-108,-404,-26,-40
-6,157,-13,-107,-150,-215,-226,-442,-75,-40
-59,131,-5,-108,-163,-253,-326,-377,-152,-76
-106,11,-70,-51,-89,-178,-258,-253,-179,-65
-39,-40,6,-16,-18,-85,-149,-146,-123,19
24,-47,16,-16,4,-11,-77,-85,-58,83
24,-43,41,12,39,24,-90,-106,-54,86
-16,-63,72,78,110,61,-110,-163,-65,8
40,-82,36,103,128,73,-93,-136,-18,44
45,-125,-43,83,113,88,-70,-73,60,134
80,0,-6,31,59,52,-126,-192,-70,114
166,251,37,-15,-34,-30,-188,-288,-221,44
68,200,98,-17,-33,-32,-100,-154,-139,11
-12,57,77,-4,-6,-5,-7,3,9,44
-23,17,64,43,34,36,43,44,46,83
21,111,104,78,55,46,27,-43,17,84
43,206,106,46,15,-44,-42,-134,-57,26
-98,51,3,-50,-76,-92,4,-4,-57,-71
-222,-155,-138,-106,-98,-20,136,184,68,-56
-171,-223,-179,-80,-67,14,147,211,107,82
-139,-261,-90,-40,-37,27,106,200,34,166
-209,-397,-134,-74,-23,56,120,180,-65,117
-129,-313,-112,-100,-13,62,99,136,-144,28
117,-55,-8,-59,2,53,73,142,-156,-37
139,-44,24,19,67,107,88,213,-69,-30
212,67,74,25,41,30,-5,159,-11,37
294,289,132,-11,-30,-64,-130,56,-8,54
214,314,134,-14,-57,-102,-162,10,80,103
182,190,88,-6,-51,-84,-133,-25,242,202
164,109,54,-31,-47,-45,-102,-131,242,207
14,9,-9,-70,-51,-33,-84,-193,107,66
-59,51,-64,-115,-102,-88,-135,-238,-9,-57
-57,139,-22,-90,-82,-111,-147,-226,-27,-165
-133,39,21,8,15,0,-31,-152,-35,-280
-282,-131,-43,19,59,101,160,69,31,-323
-286,-165,-62,15,56,103,228,188,69,-228
-137,-63,10,43,35,63,172,176,87,3
-58,25,66,87,45,53,187,252,123,131
-72,46,23,71,14,4,191,362,65,-38
-166,0,-5,-7,-50,-29,180,384,11,-219
-191,-30,-50,-45,-61,-23,145,336,-27,-196
-151,-76,-36,-6,-11,-15,70,243,-33,-80
-78,-68,-18,13,9,24,105,319,90,44
-17,54,20,23,47,92,188,323,118,61
100,234,118,51,28,89,179,151,-1,94
186,224,154,85,33,35,25,-180,9,205
187,130,155,101,58,-16,-183,-547,-17,224
227,125,101,36,-16,-47,-233,-556,-37,169
155,9,9,-37,-62,-41,-169,-415,-50,47
62,-134,-123,-82,-64,-39,-173,-425,-85,-16
-41,-211,-245,-135,-89,-65,-226,-414,-118,-54
-71,-190,-197,-173,-105,-72,-153,-272,-91,-65
65,58,-85,-127,-75,-101,-111,-163,-81,-38
133,201,34,-40,-17,-99,-89,-108,-95,-2
87,141,68,26,46,-61,-83,-77,-101,-14
71,83,62,62,83,-52,-96,-82,-61,-45
20,28,42,54,72,-40,-52,-25,-76,-93
-43,-46,16,52,48,-24,-10,50,-103,-131
-41,-71,48,101,93,54,24,4,-108,-57
-76,-62,59,106,111,111,63,16,-133,-84
-177,-45,49,35,60,112,110,112,-132,-200
-162,-40,4,-44,-2,111,123,143,-124,-150
-84,-66,-43,-80,-46,86,87,131,-105,-103
-46,-80,-62,-110,-94,19,55,172,30,-86
12,7,-40,-134,-140,-87,8,166,131,-33
92,171,17,-105,-129,-141,-22,117,113,15
88,164,5,-101,-120,-180,-55,23,71,34
55,52,-40,-70,-98,-189,-77,-79,73,163
31,-62,-99,-45,-51,-133,-78,-132,138,314
-7,-71,-57,-19,13,-37,-29,-137,102,276
-22,-71,-28,40,100,49,63,-68,5,234
-24,-126,-42,68,166,88,108,-11,-19,269
-23,-147,-25,74,191,121,132,-2,-22,217
-49,-114,12,103,182,134,119,-52,-94,-47
-82,-14,110,163,189,142,93,-105,-203,-379
-53,138,234,196,188,153,94,-61,-247,-520
-12,193,209,145,119,149,129,148,-177,-471
-7,126,85,30,9,112,110,264,-65,-271
5,43,13,-46,-91,33,70,341,129,-86
-21,-50,-53,-92,-122,6,82,344,180,-49
-15,-69,-42,-79,-106,15,98,255,158,-5
-93,-112,-39,-48,-80,38,116,147,169,10
-145,-151,-90,-97,-99,-14,56,-35,39,-60
-106,-109,-121,-135,-149,-90,-39,-114,-19,-29
33,-77,-36,-44,-86,-77,-37,-83,25,187
134,-88,-2,8,-26,-40,7,30,0,325
192,-4,-15,-19,-41,-48,-22,116,-70,292
345,162,34,-33,-62,-77,-92,87,-126,271
387,147,60,-3,-45,-85,-115,25,-55,319
268,47,67,58,33,-21,-57,-77,-95,241
105,-31,50,91,102,45,-33,-107,-145,130
0,-101,37,99,130,51,-24,-47,-44,79
-1,-64,81,112,109,22,-76,-111,-54,11
-72,-70,39,44,32,2,-52,-74,-66,-110
-71,44,-4,-37,-29,-1,13,85,-56,-219
-101,131,-29,-70,-41,14,37,192,-18,-269
-149,57,-43,-48,-26,15,28,213,65,-174
-52,116,-31,-62,-74,-84,-76,77,27,-60
-10,89,-56,-112,-118,-121,-83,-57,7,-49
-40,-2,-79,-114,-104,-79,-46,-201,57,-67
37,53,-37,-66,-70,-48,-66,-349,62,-23
-63,28,-49,-17,-18,-25,-67,-401,-15,-69
-182,-21,-114,6,18,21,-16,-310,-13,-52
-51,101,24,28,11,7,-15,-258,15,87
37,157,81,34,9,-22,-71,-269,-4,98
40,104,37,39,14,10,-40,-187,-18,12
-6,18,-33,20,29,31,-15,-73,-55,-75
36,10,21,36,47,12,-40,-44,-73,-15
170,76,81,81,77,8,-76,-62,-86,141
176,50,72,82,93,20,-35,-36,-73,184
117,-5,45,89,106,51,71,102,-1,191
52,-20,64,121,121,89,142,199,61,156
-45,-75,36,99,105,62,153,196,98,100
-89,-135,-27,52,88,50,143,186,103,35
-41,-140,-81,-25,26,30,128,99,69,-29
-37,-175,-108,-70,-17,16,88,-17,15,-96
-120,-274,-154,-85,-38,13,47,-74,37,-145
-181,-325,-171,-98,-69,-11,-16,-153,69,-133
-191,-365,-183,-111,-75,-5,-34,-138,57,-70
-155,-300,-150,-107,-49,39,43,-10,9,-85
-82,-132,-106,-56,0,110,132,131,-15,-121
-31,-64,-72,-29,18,120,173,208,-35,-156
2,28,0,3,31,127,231,261,60,-81
142,230,85,48,44,106,210,179,141,50
187,300,138,71,49,47,92,-11,12,117
178,219,125,84,51,7,-4,-36,0,233
246,204,133,103,24,-53,-142,-95,65,371
298,288,199,110,2,-100,-207,-229,32,348
250,231,145,47,-48,-111,-171,-178,5,238
186,134,73,-4,-97,-105,-116,-61,32,164
48,81,6,-50,-125,-141,-119,-7,1,-14
-100,3,-100,-63,-102,-113,-92,49,-17,-93
-188,-128,-174,-74,-70,-28,-13,176,109,-97
-200,-179,-148,-87,-60,-21,-16,169,126,-144
-139,-135,-80,-52,-48,-50,-46,82,82,-99
-33,-38,-21,-33,-43,-76,-69,12,31,-67
38,40,-86,-65,-52,-94,-103,-74,-66,-131
0,11,-178,-72,-48,-60,-63,-42,-120,-184
-60,-15,-109,-57,-12,41,39,35,-178,-186
-80,-1,-51,-24,15,130,77,13,-245,-197
-36,38,85,54,54,188,67,-94,-251,-120
19,69,143,88,61,201,95,-29,-143,22
24,76,159,111,50,76,93,204,36,104
49,30,104,73,18,-60,85,415,277,201
-15,-147,-10,42,42,-9,110,497,369,184
-77,-252,-87,20,13,21,146,495,324,104
-85,-230,-167,-23,-60,-20,134,466,257,30
-79,-115,-158,-79,-90,-4,112,370,185,-42
-67,22,-50,-48,-27,84,114,172,103,-65
-16,85,14,10,16,113,56,-208,3,-59
-1,53,28,-3,14,38,-125,-570,-151,-129
-16,14,6,-31,10,23,-185,-617,-165,-178
84,100,40,-32,-4,18,-150,-541,-110,-116
101,96,32,-32,-4,24,-65,-359,-125,-53
102,74,4,2,27,30,-21,-169,-104,23
66,119,29,15,-5,-31,-60,-82,-74,28
-37,92,79,54,25,-32,-16,4,-57,0
-35,83,144,155,141,44,58,48,-73,18
24,85,130,162,147,19,53,56,-32,95
98,90,10,102,103,-35,-36,-5,11,126
92,67,-57,82,105,-27,-91,-127,0,53
-1,-19,-16,42,97,0,-44,-162,-26,-43
49,27,-43,-23,30,-12,-17,-172,-82,-95
92,56,-11,-35,-9,-42,-71,-210,-85,-44
-8,-26,-52,-85,-71,-109,-128,-186,0,-4
-75,-76,-121,-179,-203,-197,-136,-107,39,20
-19,-51,-101,-208,-274,-220,-99,-38,46,77
-14,-85,-84,-203,-245,-182,-61,46,70,145
5,-59,-70,-199,-216,-170,-67,132,65,152
38,-30,-44,-137,-148,-133,-44,202,109,192
67,-5,-86,-105,-91,-35,24,257,141,193
106,31,-51,-72,-44,20,37,204,83,158
115,55,117,63,83,95,71,166,97,167
62,55,164,199,219,194,167,169,58,106
3,-22,161,239,247,198,132,101,-46,-9
-10,-69,125,250,223,129,20,-9,-86,-109
-69,-136,118,217,177,60,-31,-31,-134,-199
-129,-224,73,151,133,74,25,24,-115,-216
-115,-174,34,84,102,42,-17,-40,-110,-202
-145,2,72,54,73,-15,-108,-101,-123,-219
-220,-50,-12,-3,41,-25,-114,-52,-72,-179
-186,-179,-165,-84,-21,-6,-67,42,-6,-117
-2,-45,-93,-113,-82,-10,-23,115,77,-34
121,42,-44,-91,-93,9,48,157,126,36
139,88,-39,-100,-107,-3,79,151,109,11
84,116,10,-90,-131,-21,74,120,44,-36
36,52,12,-72,-130,-30,27,28,-54,-66
36,41,49,-29,-98,-65,-39,-80,-50,-83
59,119,119,43,-33,-64,-83,-183,1,-111
-18,140,101,60,12,-18,-55,-197,-105,-249
-49,57,42,14,-12,-41,-102,-185,-211,-265
98,122,72,19,-20,-79,-187,-179,-149,-39
127,124,58,17,-10,-35,-106,-53,-26,89
48,83,17,7,5,-4,-16,-16,-15,1
-57,29,1,25,24,13,21,13,1,-72
-105,-49,-1,32,56,37,86,105,64,-71
-114,-91,-71,-5,4,6,79,160,103,-70
-62,-41,-81,-2,-10,2,66,241,165,8
6,28,16,25,-1,-8,15,200,142,62
-44,-25,32,23,-20,1,48,115,118,24
-184,-199,-82,-32,-29,45,192,207,196,-31
-226,-288,-114,-18,27,92,247,165,190,-17
-168,-247,-14,91,110,142,206,3,116,57
-151,-276,6,149,150,153,139,-45,25,73
-81,-217,-38,102,86,69,43,76,-71,68
49,-46,-15,42,31,-4,-34,130,-106,61
33,-95,8,45,85,72,-4,120,-32,90
65,-21,4,13,60,80,-11,73,55,160
133,208,-52,-37,-19,-8,-102,-27,73,212
191,342,-23,-64,-80,-67,-143,-72,53,238
256,355,54,-83,-123,-139,-202,-162,17,245
300,301,124,-48,-109,-161,-235,-298,-25,263
305,268,104,-59,-132,-176,-208,-282,-104,210
271,187,28,-140,-167,-205,-191,-216,-93,182
214,51,-60,-177,-181,-178,-157,-54,-27,178
93,-9,-97,-179,-156,-122,-113,-1,-88,-17
-145,-85,-89,-126,-92,-29,-72,-52,-136,-268
-310,-106,-52,-44,29,47,-10,-78,-127,-407
-322,-81,-9,28,115,83,52,-68,-45,-216
-185,-9,27,55,117,59,34,-56,49,117
-60,36,50,57,91,35,22,-90,25,214
-34,17,38,60,94,35,-24,-173,-121,105
-34,7,24,42,84,33,-25,-92,-120,20
50,96,42,37,48,-21,-74,-46,-54,35
93,188,105,97,73,-19,-92,-93,-52,18
28,142,79,100,65,4,-38,-19,-23,-19
-66,-13,-2,24,-13,-6,11,89,-13,-7
-64,-73,-83,-55,-73,-19,58,114,-22,79
41,-57,-94,-97,-87,-15,93,113,1,277
65,-80,-53,-51,-38,20,135,181,56,379
35,-104,-8,4,0,31,109,190,66,317
-30,-145,-27,11,-8,6,46,154,32,174
-74,-149,-43,7,5,1,11,60,16,-23
-139,-146,-34,9,21,41,37,-64,19,-274
-190,-113,-19,16,37,79,74,-136,70,-418
-211,-31,27,32,32,81,100,-137,59,-542
-204,41,36,35,-6,49,80,-108,-25,-544
-179,7,13,51,-6,45,60,-11,66,-397
-95,0,31,55,4,21,61,8,96,-205
-18,45,67,74,6,-30,60,28,58,-80
64,80,63,61,3,-43,85,84,59,48
124,58,50,49,14,-72,64,70,94,164
97,-3,35,57,27,-78,25,106,90,153
71,-13,26,67,37,-63,27,201,103,143
19,-41,-6,46,35,-27,112,343,134,50
-91,-100,-60,11,27,58,215,393,46,-138
-142,-154,-87,3,65,139,232,262,-105,-278
-132,-160,-60,0,75,195,216,195,-148,-353
-87,-117,-66,-8,58,179,143,126,-172,-362
79,28,-4,0,18,62,-76,-112,-162,-282
151,37,14,9,7,-29,-225,-366,-149,-210
144,44,42,29,0,-70,-236,-486,-116,-96
125,112,118,66,-5,-107,-268,-573,-11,120
0,39,73,58,13,-113,-239,-512,24,241
-61,0,23,17,-17,-154,-232,-369,-65,231
1,33,13,-21,-48,-180,-251,-313,-102,222
44,25,-16,-57,-60,-147,-239,-264,-107,177
128,112,5,-44,-52,-72,-134,-100,-30,210
206,175,78,20,-16,-2,-24,50,60,329
167,123,71,29,-16,7,-21,90,84,342
85,15,15,-22,-60,-26,-26,112,92,235
57,66,10,-70,-118,-50,2,146,123,120
42,130,22,-74,-119,-9,39,212,178,100
-94,-7,-16,-41,-66,37,73,259,137,70
-143,-108,-71,-41,-72,-23,70,268,95,29
-207,-197,-138,-65,-95,-74,59,207,37,-67
-296,-225,-206,-54,-66,-34,42,82,-57,-237
-273,-179,-197,-32,-41,13,85,54,-96,-290
-179,-147,-80,-11,-7,71,130,60,-61,-207
-129,-164,-50,1,65,176,199,55,-70,-182
-79,-139,-79,7,96,229,232,66,-54,-195
27,-55,-40,0,58,144,143,35,19,-71
204,125,60,-16,-18,15,44,-13,41,132
288,226,96,0,-32,-51,-34,-52,47,283
220,111,63,16,2,-52,-82,-142,62,432
316,78,56,3,-24,-106,-119,-153,76,620
363,103,-11,-40,-73,-132,-92,-60,78,673
176,11,-56,-51,-55,-105,-55,-41,-30,458
35,-50,-13,-22,-9,-59,-9,9,-65,240
32,22,22,4,20,-36,15,59,-31,39
-21,53,25,14,37,-60,-21,51,16,-173
-156,-8,17,27,60,-46,7,39,10,-396
-286,-63,7,60,116,24,51,-54,-28,-563
-299,-65,59,124,199,93,76,-112,67,-531
-242,-75,96,161,243,126,96,-54,47,-370
-195,-104,59,135,209,132,98,45,-12,-275
-199,-118,49,121,192,188,136,157,-41,-301
-151,-49,72,120,153,226,226,279,-3,-259
-21,-9,66,69,54,159,203,281,23,-143
124,56,67,3,-40,30,70,308,171,21
198,147,20,-28,-78,-24,-57,158,208,109
165,207,30,-58,-72,-59,-195,-113,-14,69
169,271,78,-33,-77,-109,-208,-130,-78,137
166,178,22,-56,-98,-120,-111,53,-30,239
138,65,-28,-62,-54,-53,-15,117,74,268
98,-15,-68,-70,-14,-22,-36,-74,71,206
61,-101,-144,-95,-10,-19,-55,-179,55,139
70,-139,-241,-106,-20,27,-24,-238,8,144
57,-156,-299,-62,10,31,-72,-331,-56,163
53,-167,-217,-33,3,-85,-202,-275,-50,143
-55,-175,-78,-12,13,-111,-219,-177,-1,-7
-77,-108,-12,-7,12,-66,-125,-79,46,12
-73,-115,-31,3,24,6,-17,24,60,193
34,41,-2,5,25,43,22,58,94,290
68,233,1,-17,-54,-51,-42,0,37,112
-99,65,-60,-5,-60,-37,-17,-48,-25,-113
-195,-97,27,47,24,111,99,-23,31,-272
-196,-86,48,65,90,232,175,24,23,-301
-120,10,97,77,118,244,149,0,-73,-162
-107,37,91,63,129,207,89,14,-77,-103
35,153,95,33,100,131,43,-15,-68,-117
127,113,98,61,97,62,-16,-83,-14,-14
202,44,63,121,118,-4,-98,-128,-29,70
251,0,35,96,75,-85,-135,-117,-55,124
283,112,30,18,-43,-152,-146,-76,-64,139
186,251,56,-83,-142,-167,-70,9,-26,78
63,155,-19,-159,-189,-155,3,104,31,26
43,116,-3,-146,-205,-166,-40,74,16,-56
16,153,24,-131,-182,-129,-46,11,7,-35
-106,84,-16,-124,-127,-64,33,8,27,-27
-137,34,-48,-111,-91,-26,44,-14,19,-89
-62,64,-95,-48,-41,-4,-13,-80,-25,-119
-25,58,-61,-2,3,16,-17,-39,-52,-101
-11,11,13,3,8,25,41,165,5,-30
26,8,31,24,49,76,127,353,101,4
30,13,15,62,129,149,166,346,111,-95
-30,0,-3,87,167,183,175,288,90,-209
-146,-111,-7,41,135,207,237,299,33,-290
-220,-191,-56,6,105,200,264,220,-15,-292
-96,-129,-3,42,96,119,138,22,53,-71
25,-70,58,63,53,10,10,-194,6,109
71,-19,79,15,-31,-73,-85,-302,-95,156
50,27,25,-108,-165,-192,-157,-232,-117,97
9,-21,-33,-154,-193,-223,-175,-104,-19,79
66,-23,-36,-138,-167,-212,-222,-94,36,114
24,-65,-78,-144,-146,-210,-209,-17,-15,51
-18,-86,-119,-131,-99,-145,-91,167,12,5
-86,-194,-128,-49,-1,-47,-24,209,-11,-61
-28,-130,-15,73,117,29,-23,93,-5,-69
42,-11,85,160,180,63,-37,-82,-40,-47
-1,-32,99,153,173,77,-21,-205,-142,-51
26,-12,134,176,178,93,-25,-269,-115,64
113,78,251,245,172,105,-58,-305,-42,180
175,141,245,193,93,86,-56,-194,16,265
206,145,129,79,8,54,-31,-22,81,324
236,165,64,1,-84,-47,-97,-29,39,305
148,139,47,-43,-159,-107,-128,-122,-48,115
7,0,-8,-92,-162,-103,-60,-62,-30,-40
-91,-128,-87,-135,-165,-106,-12,8,6,-96
-163,-226,-133,-136,-157,-99,18,50,-22,-112
-184,-171,-131,-111,-78,-31,48,-6,-54,-114
-132,-21,-55,-66,-5,18,43,-60,-108,-203
-59,93,55,17,32,55,75,49,-52,-184
42,150,86,52,25,91,154,174,58,-20
5,114,21,9,0,73,179,207,67,43
-11,54,3,0,-3,62,160,253,77,105
25,30,24,37,28,84,152,265,82,182
11,22,28,69,54,82,128,251,75,151
-33,13,34,69,75,63,86,134,45,65
12,55,19,35,67,57,49,0,20,44
59,28,-94,-24,26,51,25,-108,-85,82
7,-78,-214,-51,2,22,7,-192,-129,83
37,-66,-171,-7,20,-4,-20,-187,6,227
140,-18,-123,12,-19,-23,2,-118,59,324
213,6,-76,31,-54,-26,6,-103,18,334
169,-3,6,28,-92,-71,-52,-76,0,257
-22,-46,37,33,-101,-137,-116,-74,-123,-104
-160,-38,102,56,-64,-140,-70,55,-169,-433
-143,-25,67,7,-44,-151,6,225,-127,-473
-283,-215,-90,-40,45,-2,137,323,-129,-523
-405,-341,-119,-18,130,163,237,350,-124,-551
-309,-283,-42,51,169,251,249,332,0,-398
-261,-291,-50,56,216,293,222,257,100,-252
-289,-303,-88,42,212,286,110,49,15,-180
-100,-91,-11,34,143,135,-161,-201,-107,-115
187,202,78,16,73,0,-313,-337,-73,7
301,256,100,-2,54,12,-203,-289,8,106
240,219,84,-56,-38,-18,-50,-140,38,101
169,206,27,-133,-147,-83,-22,-36,-8,49
116,105,-33,-140,-195,-133,-73,-34,-24,59
172,56,-27,-143,-225,-219,-140,-37,87,202
190,48,-63,-142,-248,-272,-166,-6,220,303
4,-36,-160,-147,-214,-234,-120,-19,174,102
-326,-180,-134,-124,-118,-102,-21,3,2,-289
-387,-117,-98,-18,6,15,37,15,-55,-367
-238,21,9,55,81,103,81,1,-48,-191
-137,12,52,57,74,98,90,19,-80,-124
-7,46,69,28,45,34,25,-44,-127,-84
179,161,60,14,15,-3,0,-66,-94,70
250,186,-8,15,-2,-39,-2,-8,-9,176
184,110,55,26,-8,-68,-19,-16,32,192
168,117,99,77,41,-54,-84,-158,-25,178
196,173,124,113,46,-99,-175,-294,-55,179
128,119,106,68,26,-112,-170,-257,-84,119
80,25,29,32,19,-53,-57,-81,-8,121
110,28,-3,41,22,-9,-2,-2,53,182
201,85,69,41,23,13,31,15,107,307
242,31,36,4,-16,18,81,63,133,364
214,-18,-69,-67,-87,19,105,76,58,203
84,-69,-141,-91,-98,35,127,76,4,-45
-22,-118,-198,-82,-101,15,76,28,-41,-199
19,-19,-48,-60,-113,-38,7,-10,-29,-251
65,68,66,-32,-101,-76,-65,-12,4,-217
-102,24,61,-24,-62,-67,-92,-106,-93,-279
-257,-58,26,18,37,18,-58,-132,-81,-239
-99,-81,31,65,73,41,-59,-85,18,201
57,-63,68,111,97,61,-45,-15,12,416
61,-48,79,129,108,80,-41,-48,-75,227
-37,-96,80,146,142,80,-31,-53,-121,-74
-153,-183,35,115,137,82,40,86,-20,-311
-205,-205,-22,97,117,87,64,159,18,-405
-252,-212,-81,128,132,93,92,182,-52,-386
-314,-242,-100,80,98,77,95,190,-37,-275
-314,-207,-103,-52,-10,14,54,128,-66,-74
-347,-241,-111,-111,-84,-18,53,173,-26,65
-185,-235,-136,-119,-133,-25,59,214,65,203
-49,-174,-108,-142,-146,-33,42,108,61,190
-53,-177,-90,-133,-132,-80,-30,-31,93,123
-28,-89,-93,-136,-145,-133,-90,-47,77,62
132,230,11,-127,-132,-155,-102,-23,-10,-113
97,298,75,-43,-36,-42,-10,43,-44,-229
71,287,17,-4,16,19,49,84,-68,-232
83,235,-62,-6,17,19,67,175,-110,-163
-6,61,-133,-5,56,97,130,316,-131,-150
-32,21,-99,2,72,126,133,261,-128,-159
22,68,82,56,81,107,42,49,-62,-103
-15,72,133,60,77,47,-18,-112,-66,-79
-30,49,84,16,30,11,-16,-147,-76,-16
-39,-29,60,13,-1,-38,-105,-224,34,108
-56,-138,16,24,-5,-71,-145,-263,132,145
5,-168,6,19,18,-77,-129,-240,148,222
140,-122,-16,-12,11,-56,-58,-140,209,346
96,-188,-44,-37,0,0,27,-31,216,280
3,-143,-81,-49,8,52,103,85,229,119
-21,60,-120,-111,-59,23,89,137,107,-100
-95,51,-111,-157,-121,35,136,292,4,-172
-70,60,-44,-114,-116,62,199,336,-5,-119
61,220,101,-34,-70,56,161,166,24,-84
62,276,140,18,-24,0,56,-115,-27,-93
162,284,186,112,52,-34,-93,-500,-88,29
281,272,237,179,118,4,-108,-454,-83,199
342,294,263,176,115,-14,-99,-305,-46,287
300,296,201,89,23,-68,-112,-235,8,254
200,225,90,-38,-85,-110,-77,-111,-22,135
129,135,46,-68,-104,-86,-53,-22,-32,98
122,71,12,-66,-102,-88,-111,-68,-29,103
87,37,-9,-74,-96,-107,-181,-176,10,84
7,-56,-92,-130,-137,-138,-150,-191,-20,16
-37,-88,-116,-143,-137,-135,-116,-185,-125,-64
-49,-73,-69,-102,-95,-117,-96,-105,-152,-142
-150,-136,-162,-97,-70,-72,-21,116,-85,-239
-303,-234,-230,-38,11,39,87,311,40,-303
-362,-252,-73,58,134,128,135,253,34,-302
-235,-206,39,154,204,197,147,82,96,-4
-34,-132,90,196,222,217,136,-46,124,345
68,-90,87,161,166,172,134,-4,43,394
150,29,88,125,144,115,154,155,56,303
210,146,90,120,159,81,123,186,122,275
196,154,-28,66,136,57,95,95,122,249
44,83,-46,23,97,17,48,50,83,10
-99,45,-6,3,45,-19,-19,46,28,-297
-222,29,80,74,85,52,-55,-47,7,-456
-189,45,111,83,80,38,-138,-115,19,-362
-31,107,96,31,-21,-22,-123,-54,17,-132
59,85,64,-20,-117,-71,-57,29,90,68
75,21,-3,-86,-168,-95,8,47,127,154
15,-43,-59,-102,-148,-83,83,70,135,143
-23,-54,-65,-72,-110,-99,73,21,112,126
20,-5,-82,-47,-61,-109,3,-135,39,113
52,44,-15,-38,-38,-52,-14,-194,-49,77
6,22,5,-47,-29,4,14,-104,-84,-17
51,73,37,12,26,71,58,53,48,29
132,202,104,77,76,66,44,102,135,119
91,177,77,37,59,47,35,125,3,37
85,78,34,28,65,83,63,169,-9,47
78,-5,-31,0,39,58,58,207,49,125
37,-19,-43,-37,31,17,8,183,31,14
-16,-24,24,-7,53,1,-64,47,-42,-168
42,20,83,43,30,-5,-60,-72,-20,-140
84,54,88,37,-14,-98,-134,-219,-5,-85
-87,-94,-40,-47,-65,-145,-181,-291,-132,-222
-338,-262,-143,-93,-39,-15,16,-15,-133,-396
-429,-328,-198,-112,32,103,201,221,-84,-354
-326,-286,-158,-85,85,215,237,197,-73,-176
-177,-174,-78,-45,44,207,191,167,-29,-51
-80,-111,-1,3,-12,31,62,135,-22,18
11,-95,1,35,-8,-48,-50,25,-9,92
99,-35,19,32,2,-14,-81,39,93,232
167,87,79,53,-3,-40,-117,14,80,305
168,163,112,78,-14,-81,-187,-95,-2,259
155,96,125,91,10,-23,-115,-130,-10,330
259,82,148,133,66,35,-44,-188,-22,439
343,195,154,130,55,7,-38,-288,-132,374
200,176,100,88,57,5,-68,-301,-265,92
19,37,11,66,67,15,-77,-245,-237,-78
15,46,-24,-25,-18,-8,-40,-118,-103,-71
-108,-57,-166,-186,-102,-61,-49,-72,-85,-206
-280,-249,-303,-261,-130,-79,-36,-13,-68,-349
-216,-285,-297,-239,-121,-73,23,95,12,-223
-147,-266,-317,-190,-87,-12,76,185,50,-42
-106,-162,-272,-159,-90,13,95,320,111,4
-33,-31,-115,-147,-137,0,133,503,169,32
195,192,50,-54,-123,-65,21,290,205,126
234,241,125,15,-76,-115,-129,-81,90,108
63,122,63,33,-24,-72,-147,-224,-28,-68
-122,51,114,114,62,15,-80,-186,-75,-260
-191,12,172,177,124,48,-61,-104,-133,-258
-126,-23,117,164,124,28,-105,-103,-116,-41
-87,-38,125,148,131,20,-95,-74,5,24
16,33,157,148,120,37,-8,53,74,51
172,158,146,118,86,103,109,135,110,130
157,110,115,103,83,109,156,105,129,192
-30,-155,28,52,61,65,139,39,49,159
-158,-333,-58,2,32,61,168,14,-37,62
-255,-472,-162,-61,8,91,203,104,-77,-146
-228,-441,-139,-53,17,70,137,132,-97,-272
-142,-213,-23,8,58,43,86,163,-55,-376
-104,85,49,12,32,3,39,130,-48,-455
9,352,114,10,-17,-39,-51,-18,38,-261
112,408,144,8,-51,-91,-133,-165,190,21
101,289,93,-44,-117,-131,-144,-202,166,190
86,157,-4,-123,-172,-173,-153,-113,91,290
163,145,-61,-83,-115,-155,-141,-53,-4,317
265,202,-65,15,-34,-108,-126,-59,8,322
266,213,60,65,9,-48,-63,2,-5,272
173,168,79,47,15,0,-49,-28,-128,65
122,142,27,27,3,10,-46,-85,-132,-29
-55,24,41,14,21,25,6,-72,-91,-107
-180,-44,17,22,31,36,41,-46,-80,-139
-91,-35,35,28,-6,2,-14,0,-73,-47
-6,-11,33,3,-61,-60,-60,130,-29,38
-66,-86,-45,-65,-103,-100,-11,203,-60,-2
-170,-184,-215,-119,-117,-62,54,143,-143,-127
-241,-189,-233,-90,-96,-37,21,-28,-211,-305
-231,-141,-93,-58,-48,-24,-55,-153,-226,-394
-210,-157,-118,-116,-43,11,-14,-30,-92,-283
-100,-146,-137,-130,-42,41,-12,-71,67,37
98,-39,-45,-49,23,61,-84,-222,168,398
208,26,1,14,88,77,-81,-205,201,576
288,51,56,73,108,59,-59,-76,174,558
291,29,61,78,100,78,-12,27,53,471
189,-30,60,73,85,80,35,106,-25,285
55,-43,58,72,52,46,49,94,-117,-76
-175,-128,-15,39,39,57,64,49,-251,-494
-245,-111,-8,93,62,93,51,-29,-262,-609
-190,-18,121,146,86,120,66,-27,-145,-475
-163,-3,34,85,29,81,79,79,15,-314
-173,-9,-80,5,-46,-30,-18,89,40,-258
-208,-6,-44,-100,-130,-141,-72,44,-54,-217
-167,-27,-42,-125,-146,-144,-5,67,18,-84
-87,-38,-29,-58,-99,-103,19,54,97,-1
1,-46,-12,-3,-13,-13,30,12,133,78
80,-13,-8,19,41,45,62,-2,140,153
107,40,19,33,51,64,60,-30,42,143
129,35,7,33,30,22,46,27,-11,120
133,61,43,96,43,-33,-11,-18,-69,78
54,42,41,126,70,22,24,38,-93,42
-5,-11,57,44,13,18,76,248,-6,114
-2,-13,110,17,-66,-86,1,312,40,190
-24,-29,109,18,-50,-66,-10,270,58,84
-12,-14,54,-30,-52,-2,27,243,131,42
97,39,55,-37,-43,15,59,145,242,198
122,15,20,-43,-26,55,83,-42,252,270
116,50,-1,-51,-19,45,53,-207,100,149
77,91,-39,-47,-40,-19,-18,-306,-56,-3
-49,15,-73,-102,-99,-72,-81,-310,-164,-176
-112,-30,-75,-120,-110,-95,-112,-263,-144,-250
-97,-24,-29,-76,-69,-28,-54,-144,-23,-192
-106,-11,4,-36,-19,34,51,5,44,-115
-20,29,76,53,43,29,54,34,95,-6
91,13,52,115,61,-5,18,10,121,96
96,-52,-64,106,65,-17,-6,77,73,68
-22,-127,-33,105,70,8,41,193,-3,-33
-156,-203,-42,50,52,38,142,380,-33,-82
-233,-298,-95,-15,36,29,133,442,-73,-82
-172,-282,-57,-12,59,20,58,429,-44,66
-3,-86,-16,-15,56,27,29,379,55,214
114,62,-58,-66,31,44,7,98,9,170
238,91,-68,-63,12,67,-55,-224,8,211
263,71,-17,-46,-63,-51,-199,-537,-55,210
179,58,47,-45,-157,-238,-361,-684,-217,25
0,-3,29,-57,-183,-238,-317,-589,-337,-245
-140,-56,32,-55,-165,-154,-205,-443,-354,-421
-100,67,87,-29,-137,-78,-131,-327,-291,-410
27,217,92,-63,-146,-41,-77,-135,-93,-130
-108,38,9,-86,-88,17,22,69,138,139
-198,-73,-30,-50,-33,46,30,76,161,115
-152,-22,23,16,10,60,25,34,63,-58
-85,-3,28,56,60,105,95,99,30,-81
51,76,46,85,73,78,113,114,0,5
114,130,100,122,81,26,65,41,-35,62
62,7,2,75,73,16,53,-4,-51,67
107,21,-19,22,54,15,75,-18,-51,33
102,43,-80,38,49,11,82,41,25,-5
94,49,-10,90,50,-9,-10,-70,-17,-12
103,20,77,100,35,-70,-138,-140,29,92
137,18,55,39,-14,-119,-157,-97,121,223
42,-23,29,-10,-38,-65,-46,-12,167,191
-123,-118,-16,-25,4,21,58,48,188,104
-60,-15,-18,-33,26,157,204,117,199,117
62,82,-28,-87,8,189,290,100,82,62
-55,-5,-103,-110,30,152,257,128,-40,-112
-93,11,-61,-57,61,79,121,95,-65,-205
-180,-41,-22,11,105,78,82,83,-77,-276
-119,-22,19,83,141,149,178,163,0,-171
37,90,53,140,122,139,158,111,28,-28
109,148,79,177,111,118,68,-53,44,66
190,247,228,180,100,82,-20,-142,73,141
202,307,236,115,36,2,-89,-191,16,87
61,208,93,-8,-30,-57,-86,-149,19,-31
-120,-23,-65,-64,-24,-1,6,16,146,-40
-76,-73,-78,-64,-16,4,-1,70,144,50
-5,-63,-26,-63,-31,-13,-42,113,134,131
105,2,-8,-86,-94,-45,-38,169,197,255
144,50,11,-87,-148,-129,-70,177,202,289
57,-49,-49,-138,-205,-190,-97,140,107,162
18,-67,-104,-186,-226,-181,-49,114,9,19
22,-91,-165,-216,-205,-147,19,124,2,35
57,-106,-218,-243,-209,-91,56,183,27,125
51,-104,-186,-167,-91,29,57,198,-21,95
-72,-130,-105,-14,85,95,-7,72,-117,-128
-167,-77,0,107,194,112,-52,-106,-173,-342
-154,-16,69,145,216,123,-37,-171,-131,-347
-73,35,128,138,178,118,50,-49,-27,-224
-8,55,114,139,142,121,122,58,11,-132
16,58,81,105,96,17,-15,-13,-47,-218
38,108,102,66,42,-37,-80,-47,-62,-251
-22,89,43,3,-3,-32,-21,24,-78,-242
-39,7,-41,-59,-48,-58,25,82,-87,-138
12,-56,-43,-15,-11,-51,55,-32,-114,3
98,-11,42,76,39,-8,33,-162,-45,125
124,69,111,106,61,45,1,-241,-44,72
223,194,113,41,-11,-12,-88,-280,-122,-20
230,167,36,-45,-96,-101,-135,-255,-101,31
70,13,-58,-74,-69,-95,-163,-334,-68,0
-39,-48,-74,-35,-12,-36,-138,-285,7,-43
-93,-50,-44,24,49,87,23,-61,72,-7
-87,-37,-3,51,74,138,100,33,82,89
-89,-47,22,46,42,33,33,53,64,168
-147,-61,-3,39,36,31,41,127,55,119
-122,-32,8,39,44,41,60,200,89,93
-3,66,71,100,77,17,24,186,132,166
43,76,97,134,124,49,54,163,117,174
-58,-85,44,109,122,64,85,177,62,49
-152,-202,-10,72,120,81,143,164,56,14
-37,-194,-32,18,57,78,154,51,41,165
170,-24,-46,-99,-116,-98,23,-30,-25,283
213,48,-84,-162,-199,-216,-61,37,-42,252
186,28,-74,-158,-165,-180,-74,106,15,185
96,10,-79,-126,-124,-119,-82,130,72,123
68,71,-61,-108,-108,-91,-77,162,98,-9
3,180,-15,-81,-85,-98,-49,43,20,-226
-108,244,67,20,4,-60,-63,-235,-99,-318
19,258,117,77,53,-22,-64,-302,-87,-158
125,175,85,34,15,-26,-65,-184,-164,-22
118,60,13,1,4,-51,-101,-199,-270,-14
110,76,-24,-15,28,-24,-86,-179,-216,21
7,39,-1,1,59,36,-44,-94,-138,8
-124,-38,14,47,65,40,-32,-46,-133,-81
-183,-91,-5,11,37,-6,-35,-54,-81,-87
-122,-77,6,-19,6,-14,-59,-62,70,-43
-32,-65,11,-8,-9,-22,-71,-12,109,-39
-100,-122,-48,-45,-34,-24,-3,85,50,-147
-167,-171,-113,-105,-54,15,103,284,2,-259
-108,-114,-101,-141,-81,6,142,397,-3,-294
-7,-67,-45,-78,-36,0,101,260,19,-214
-42,-83,-9,14,31,0,82,144,41,-181
-155,-141,-35,32,33,-17,68,163,71,-173
-140,-141,-30,24,22,-45,32,176,71,-76
-67,-128,-58,-23,-4,-59,44,127,-20,22
-31,-78,-43,-54,-40,-27,88,120,-62,22
-45,20,-33,-84,-87,-56,77,126,-40,-22
-99,29,-29,-6,15,-32,31,-57,-111,-108
-20,66,74,96,112,21,8,-136,-85,-100
217,282,161,135,151,16,-48,-198,21,91
326,299,184,167,188,30,-59,-267,24,244
275,104,119,135,184,89,27,-173,48,313
295,46,76,94,139,87,55,-109,135,410
311,45,14,61,74,62,51,-86,211,487
166,-65,-95,5,12,43,36,-121,182,366
-47,-150,-92,-32,-16,28,-7,-127,134,136
-180,-161,-97,-30,-16,-8,-48,-101,108,-52
-211,-128,-84,-41,-70,-100,-115,-75,68,-126
-210,-72,-29,-48,-94,-133,-97,-40,24,-187
-63,66,-34,-61,-101,-94,-61,-92,-29,-127
113,166,-21,-18,-80,-53,-69,-124,-60,19
187,135,69,-2,-88,-30,-37,17,0,166
184,111,47,-43,-141,-41,15,264,77,265
144,110,48,-18,-116,-66,43,433,45,250
192,124,53,-3,-77,-34,134,552,6,252
300,133,37,-23,-77,-8,179,524,42,380
315,124,-4,-57,-107,-50,131,304,68,423
155,0,-40,-54,-103,-41,48,9,48,241
-12,-129,-91,-51,-62,-6,-4,-267,-76,-64
-171,-189,-130,-67,-51,1,-70,-388,-235,-433
-318,-190,-51,-8,0,12,-145,-449,-263,-646
-392,-194,-16,70,73,69,-69,-265,-132,-546
-409,-219,-45,65,62,65,16,-11,-46,-440
-421,-264,-37,54,60,43,35,87,-74,-466
-385,-208,-29,69,104,61,75,127,-118,-436
-238,-100,-8,47,113,61,74,59,-24,-237
-39,-6,89,88,96,46,25,-24,152,58
51,10,103,87,21,8,-32,28,143,163
26,-12,93,67,25,7,-84,18,37,111
43,38,121,93,84,56,-83,-90,7,80
51,91,109,74,100,67,-64,-204,-71,12
67,149,59,56,107,26,-93,-191,-135,-58
0,45,-51,-32,39,2,-66,-40,-116,-97
-102,-73,-138,-73,25,47,23,-10,-162,-143
-152,-154,-205,-50,47,67,27,-98,-212,-157
-227,-255,-139,38,97,113,64,0,-112,-173
-174,-250,-32,109,139,206,171,186,117,-55
-50,-155,5,98,97,240,245,252,229,70
100,-36,118,41,-33,114,96,49,138,92
310,201,154,4,-102,-52,-91,-243,1,169
297,304,76,-109,-179,-157,-166,-294,-126,88
138,256,-18,-209,-281,-257,-224,-188,-165,-46
-66,105,-67,-219,-299,-247,-200,-97,-176,-147
-37,29,-74,-152,-193,-152,-117,-12,-150,-97
145,64,-35,-65,-87,-114,-120,-34,-30,124
288,86,22,-34,-70,-118,-157,-123,126,328
363,132,20,-66,-79,-78,-113,-138,144,429
298,94,-32,-41,-33,-17,-84,-194,74,428
193,66,-54,74,58,41,-81,-178,43,403
67,79,50,131,78,44,-15,-33,26,187
-153,18,111,119,66,44,61,124,20,-179
-339,-43,104,133,137,84,118,305,92,-387
-285,-13,109,147,148,71,134,424,143,-272
-168,-21,114,112,91,12,118,414,133,-114
-125,-81,79,76,63,5,98,330,144,-26
-99,-121,13,22,5,5,92,219,213,16
-89,-137,-19,-36,-62,-61,7,-34,105,-43
-14,-52,-11,-48,-72,-91,-75,-338,-126,-144
60,-37,-75,-64,-54,-32,-67,-450,-257,-68
96,-37,-69,-83,-69,-34,-54,-273,-228,105
129,10,-9,-66,-66,-22,-23,10,-89,193
129,22,53,-6,-28,32,18,208,111,210
153,-13,29,1,-27,60,97,300,352,330
274,18,0,5,-10,38,24,128,370,492
343,112,81,65,47,-39,-189,-222,202,516
130,52,-30,41,63,-51,-114,-155,-26,196
-156,-70,-209,5,85,62,150,201,-153,-228
-320,-139,-225,17,130,165,270,288,-251,-483
-322,-134,-194,-3,91,122,217,259,-274,-459
-241,-112,-136,-27,6,92,126,180,-284,-370
-269,-116,-71,-18,-14,120,104,49,-271,-410
-263,-94,-123,-37,-53,74,58,-19,-141,-415
-140,-30,-38,-77,-132,-52,-38,6,59,-316
-119,-36,-36,-67,-146,-128,-114,-114,108,-244
-136,-116,-16,-38,-70,-63,-76,-263,40,-121
-96,-154,-14,28,11,5,-14,-235,18,71
-46,-154,-75,41,27,11,17,-134,-15,202
45,-72,7,12,-12,-22,-63,-185,-121,212
164,84,110,0,-57,-42,-120,-184,-116,191
110,52,105,26,0,-22,-44,16,-40,91
66,41,123,95,89,5,10,110,7,10
47,45,152,150,165,43,16,109,66,16
87,22,151,114,162,84,73,148,201,98
182,97,142,80,149,126,85,55,211,232
162,84,81,30,106,137,53,-46,75,207
157,99,51,-2,46,88,-24,-88,-14,73
223,240,95,-11,-27,5,-82,-94,-51,67
79,78,27,-71,-79,-18,-35,-3,-17,89
3,-49,-37,-95,-109,-61,-16,30,113,181
17,2,-16,-84,-130,-125,-106,-121,109,241
-39,50,17,-99,-141,-155,-160,-224,64,147
-23,42,4,-103,-128,-158,-147,-181,110,176
73,32,-37,-97,-104,-124,-92,-102,133,258
61,30,-160,-94,-59,-47,-13,30,123,61
-7,63,-99,-60,8,29,57,155,28,-219
63,107,49,9,67,92,78,202,-13,-192
127,65,62,38,65,71,45,127,-10,-8
79,0,41,60,88,54,16,23,-52,-2
-111,-111,35,85,126,92,53,-31,-115,-222
-287,-149,90,153,194,185,125,-65,-96,-449
-288,-123,166,214,248,261,173,-23,-90,-436
-124,-3,157,166,201,236,130,-44,-83,-212
45,195,153,78,103,136,31,-112,-43,-6
70,259,111,15,-14,18,-17,-65,-24,0
-104,142,4,-63,-126,-101,-34,84,2,-122
-271,-55,-111,-96,-99,-97,-36,175,-41,-222
-225,-67,-133,-103,-67,-45,9,248,-80,-242
-186,-116,-113,-119,-73,-9,76,372,16,-221
-143,-135,-193,-160,-97,-38,44,310,47,-189
42,36,-162,-40,-12,-96,-121,-88,7,-46
141,113,-1,81,104,-78,-167,-327,-95,86
86,33,49,99,146,-26,-77,-222,-131,151
0,-100,-25,16,77,-32,-41,-124,-26,163
-5,-121,0,4,46,-56,-97,-163,-80,109
25,-82,55,36,49,-37,-82,-56,-132,59
100,10,52,34,59,72,30,140,-25,100
364,253,26,23,44,166,150,199,246,338
464,302,31,-8,-36,167,213,180,405,485
239,100,-26,-74,-122,7,78,86,285,374
173,28,-82,-147,-195,-154,-63,38,155,310
228,101,-9,-103,-159,-178,-137,-84,83,337
134,44,-2,-59,-111,-152,-184,-190,-29,221
-50,-102,-15,-71,-82,-83,-53,-25,-54,-27
-112,-118,-31,-43,-33,-8,61,142,-2,-202
-12,0,3,-31,-32,-20,44,124,-5,-188
-31,-14,21,-36,-38,0,84,118,23,-124
-86,-36,2,-15,1,38,113,87,49,-93
-29,53,-24,32,25,57,75,9,-14,-130
5,48,4,45,36,22,0,-44,-78,-183
-38,-16,13,26,41,-7,-88,-105,-85,-164
-86,-29,60,70,98,79,-39,-133,-17,-104
-74,20,100,76,89,93,-28,-175,-66,-60
-85,77,83,26,23,23,-46,-160,-109,14
-167,-13,-11,-40,-18,11,-3,-68,-118,49
-172,-105,-43,-65,-25,3,-54,-60,-93,-2
-84,-67,-18,-54,2,-12,-111,-26,-3,28
48,50,-73,-32,20,20,-44,149,96,130
89,72,-13,-17,-38,8,45,303,156,127
20,-9,41,13,-34,-36,37,137,74,-23
47,-23,50,52,13,-14,19,-90,4,-100
74,-38,40,48,47,9,45,-80,-79,-127
57,-57,13,11,28,1,71,97,-15,-103
21,-124,-35,-59,-80,-49,55,179,75,-87
-48,-174,-55,-82,-128,-71,30,148,164,-65
15,-123,-13,-38,-80,-26,8,-26,265,175
146,-55,-16,-19,-80,13,26,-112,335,511
177,-26,-156,-97,-136,-6,70,62,240,657
127,-43,-110,-109,-125,-19,33,95,106,523
79,-82,-26,-47,-63,7,29,79,26,340
35,-10,38,24,-1,24,17,33,-129,23
25,195,165,106,82,70,35,-49,-230,-390
-53,196,195,137,83,59,36,-68,-150,-500
-74,99,108,55,8,9,-24,-194,-123,-370
-76,88,82,48,22,8,-55,-340,-195,-274
1,156,143,103,23,7,-61,-339,-204,-193
26,92,85,41,-30,-87,-89,-99,-200,-161
-63,-77,-50,-53,-106,-157,-55,122,-151,-175
-140,-229,-116,-59,-103,-151,-25,141,-126,-239
-188,-244,-69,25,-20,-108,-36,23,-135,-394
-294,-143,1,101,82,-25,0,-103,-198,-626
-326,-30,26,152,141,69,40,-109,-198,-595
-129,118,85,161,162,101,31,-87,21,-163
45,230,216,163,146,76,-19,-185,95,112
-15,126,148,104,116,93,36,-83,24,19
-6,60,79,66,108,125,86,22,15,-6
205,151,112,75,96,75,-22,-76,81,204
191,85,22,-28,37,39,-53,-36,84,254
6,-68,-142,-162,16,35,-2,98,20,155
-28,8,-140,-159,12,16,-37,55,-46,111
-4,75,-64,-95,-25,22,-45,54,-42,139
-92,-19,-68,-62,-27,69,89,233,74,86
-99,-39,-47,-32,-16,85,152,278,138,57
-107,-46,-26,-5,-11,89,109,136,150,13
-108,-64,-34,-53,-62,15,-27,-62,81,-29
-37,-19,-75,-108,-136,-102,-140,-215,6,-31
36,47,-65,-106,-133,-125,-145,-252,-67,-27
103,72,-99,-116,-149,-150,-212,-280,-170,15
168,88,-62,-114,-162,-164,-209,-194,-125,162
172,0,-105,-119,-152,-138,-120,15,24,314
153,-52,-100,-98,-133,-137,-66,177,155,362
79,-104,-58,-72,-75,-51,50,299,142,287
27,-138,-51,-38,-6,63,179,419,115,203
68,-115,-23,21,55,114,209,386,126,225
189,-84,-87,-22,-4,39,153,315,57,318
236,-58,-173,-115,-107,-70,64,352,-12,300
193,40,-50,-108,-120,-150,-78,203,-14,134
105,109,70,-8,-32,-128,-203,-111,-12,-29
-54,-14,10,67,48,-42,-179,-284,18,-63
-123,-72,-14,118,119,10,-154,-391,-52,-114
-182,-90,76,191,201,25,-127,-414,-42,-216
-349,-255,-58,112,135,58,22,-217,6,-304
-434,-265,-118,18,57,83,148,-68,-53,-388
-363,-164,-132,13,45,110,206,95,-19,-302
-330,-121,-55,35,60,144,158,198,36,-181
-256,-84,-16,48,114,169,90,236,10,-146
-75,-17,59,91,203,249,160,400,112,-60
267,183,160,124,188,215,163,385,254,136
352,238,163,106,119,106,84,250,207,266
250,319,97,11,33,-72,-109,-83,6,86
130,397,35,-91,-85,-241,-260,-388,-209,-129
21,255,-31,-97,-56,-216,-238,-463,-245,-11
209,197,-5,-42,-17,-162,-225,-449,-202,243
290,130,25,-37,-27,-115,-218,-445,-205,277
368,170,101,-3,-55,-38,-178,-373,-84,288
390,233,129,0,-102,-7,-82,-206,102,293
202,111,19,-50,-96,-8,-26,-87,128,180
-47,-65,-38,-56,-115,-96,-74,-106,11,-62
-317,-192,-60,-48,-84,-71,-47,-81,-106,-402
-440,-202,-51,-32,-21,-14,8,-3,-115,-591
-298,-73,4,22,65,59,62,-9,-76,-450
-158,4,57,116,156,119,96,-47,-90,-230
-97,-12,78,182,165,116,129,41,-71,-12
-14,-28,12,145,84,93,138,187,-4,181
58,-55,-81,72,-4,28,99,210,42,273
179,-20,-19,13,-92,-23,60,209,162,352
228,31,80,-21,-126,-79,8,125,94,238
234,106,84,-33,-140,-124,-99,-15,-2,135
241,133,38,-69,-149,-144,-153,-43,51,190
116,-6,-40,-103,-106,-90,-154,-54,-2,103
-31,-101,-55,-48,-35,-35,-95,-79,-69,-60
-180,-142,-81,-9,-9,-4,-15,-19,-42,-270
-369,-181,-49,6,42,70,96,82,-16,-512
-472,-240,-29,32,85,136,151,80,-53,-571
-362,-130,32,73,112,108,96,4,-109,-420
-244,23,63,60,87,71,113,107,-133,-290
-318,-92,-122,-67,-1,52,182,312,-139,-301
-266,-141,-164,-81,-15,13,104,316,-102,-230
-160,-113,-52,17,66,61,55,277,-53,-123
-91,-83,-19,33,82,84,59,240,-2,-65
71,-14,-9,46,95,101,19,34,105,82
249,94,104,115,159,144,10,-185,143,316
375,251,212,170,162,109,-48,-402,67,450
451,347,261,164,91,33,-82,-380,81,477
423,311,157,48,-45,-80,-90,-182,155,448
316,202,-14,-117,-169,-152,-84,-12,140,415
161,37,-105,-144,-161,-118,-34,90,95,335
-12,-120,-132,-130,-128,-67,48,182,84,164
-203,-223,-123,-95,-52,36,143,261,101,-21
-327,-277,-100,-43,20,122,215,266,116,-165
-341,-259,-109,-65,-24,16,118,215,70,-280
-339,-189,-102,-76,-42,3,96,197,-75,-376
-229,-124,-51,-7,11,63,106,148,-75,-252
-31,-22,-32,35,50,51,59,64,-46,-78
103,118,32,71,69,19,11,-17,-33,94
136,53,52,94,91,-7,-13,-24,74,274
162,-42,51,64,50,-54,-64,-21,123,365
171,-91,28,34,39,-59,-50,46,144,358
110,-135,-27,33,85,30,32,120,160,196
-12,-140,-62,37,103,111,146,203,188,-70
-123,-138,-110,46,84,145,199,168,62,-215
29,111,-50,37,51,119,122,-20,-46,-95
175,409,130,29,33,72,13,-222,-68,-32
153,406,180,15,0,-19,-95,-317,-64,-55
87,265,154,38,2,-88,-223,-387,-28,-4
-54,80,102,69,48,-42,-181,-344,-79,-6
-77,0,35,15,6,-24,-136,-326,-160,47
-46,-15,-29,-85,-113,-110,-149,-256,-171,80
-72,-59,-83,-153,-188,-174,-146,-112,-159,-12
-87,-73,-129,-186,-188,-175,-137,-17,-78,-35
-78,-64,-111,-166,-169,-168,-87,28,67,15
0,3,-21,-91,-133,-171,-100,-32,102,70
95,40,25,-50,-103,-167,-159,-116,26,122
86,2,8,-44,-92,-172,-183,-71,0,106
5,-49,29,10,-60,-130,-160,5,-19,-36
-84,-97,35,52,19,-22,-54,99,-89,-172
-183,-128,32,100,103,83,63,187,-115,-260
-294,-159,12,153,192,161,144,162,-161,-383
-245,-119,45,200,256,185,138,25,-220,-397
-129,-65,47,156,210,146,81,-27,-137,-244
-98,3,48,104,138,80,37,69,-60,-177
-121,19,82,89,50,35,5,137,27,-128
-68,8,4,-15,-89,-48,-52,27,107,-41
-29,-69,-196,-131,-141,-45,-42,-50,156,-7
-20,-133,-235,-214,-145,-2,12,-16,138,6
-4,-143,-172,-205,-112,46,37,1,56,30
108,-25,-51,-130,-74,52,32,7,0,156
214,110,35,-67,-44,46,44,53,23,272
209,126,55,1,-5,37,24,-13,-6,214
113,56,-46,19,32,29,17,-57,-21,66
8,-4,-85,32,86,113,82,-31,11,-31
119,109,50,37,82,138,108,57,35,44
230,180,68,-6,25,106,97,87,44,134
193,119,6,-38,3,69,134,118,-24,133
189,137,51,24,38,71,164,172,-35,135
97,65,-19,18,14,23,148,298,20,140
94,38,-87,-11,-68,-90,86,356,112,238
255,125,48,-18,-141,-199,-11,204,242,447
291,96,20,-78,-184,-265,-138,-120,238,500
229,58,-19,-112,-177,-321,-309,-383,87,376
92,4,-21,-101,-116,-286,-312,-405,0,156
-94,-38,2,-37,20,-89,-160,-357,-55,-179
-165,20,106,65,69,31,-39,-273,-86,-372
-203,-9,84,6,-59,-43,-19,-197,-106,-392
-337,-134,-57,-80,-75,-37,48,-30,-48,-446
-318,-111,-57,-50,19,77,160,157,85,-350
-193,-45,0,-6,74,149,176,270,207,-122
-57,9,19,4,74,149,148,400,265,70
27,40,60,39,69,163,162,493,158,57
-47,-19,43,80,114,122,155,392,-3,-71
-89,-60,30,79,114,46,50,146,-98,-128
-45,-51,13,43,91,57,24,17,-113,-83
-38,-73,-49,-17,55,103,76,-1,-80,-11
-8,-130,-69,-22,54,118,93,-138,-73,130
-33,-203,-57,4,97,165,131,-169,-43,174
-47,-228,-46,26,92,140,126,1,-8,101
-6,-191,-43,36,40,5,70,140,-12,-19
4,-133,-91,-4,-16,-68,-15,92,-29,-171
18,43,-41,17,-21,-102,-115,-100,-75,-282
-19,102,-45,7,-22,-100,-146,-200,-65,-162
-30,64,-169,-72,-68,-104,-174,-214,-72,38
107,135,-81,-67,-107,-124,-237,-300,27,190
187,224,85,-31,-125,-131,-241,-276,28,179
102,149,91,34,-72,-42,-120,-98,39,94
16,21,120,105,8,21,-40,-27,-9,120
49,20,189,164,68,-5,-59,-56,0,257
135,96,170,117,35,-89,-101,-58,36,360
170,134,107,40,-25,-109,-122,-5,-36,324
140,63,71,25,-20,-90,-64,85,-71,268
75,-89,27,14,2,-37,21,133,-33,160
-46,-159,4,13,61,64,120,180,2,-81
-130,-181,-35,16,88,141,232,288,52,-261
-171,-199,-82,-54,37,169,269,292,54,-365
-227,-131,-43,-84,-10,119,164,58,-12,-463
-311,-80,0,-82,-88,16,17,-199,-209,-544
-194,47,17,-128,-169,-72,-78,-242,-274,-428
89,153,12,-124,-160,-113,-109,-172,-148,-103
99,45,-21,-67,-56,-76,-54,-18,-42,45
-69,-87,-27,-25,23,-12,-30,-25,-28,-21
59,105,95,73,132,48,-70,-200,59,95
201,230,76,78,103,58,-65,-203,98,270
12,27,-40,39,97,136,56,54,51,215
-90,-70,-64,26,127,160,58,163,62,59
-102,-28,21,34,133,117,8,94,-2,-146
-91,20,61,48,157,125,68,53,48,-190
55,140,98,73,152,108,94,32,122,-73
31,182,94,42,54,16,58,113,26,-179
-125,64,68,16,-15,-87,-8,107,-90,-243
-119,-16,32,-33,-98,-136,-43,59,-131,-139
-21,23,48,-40,-100,-138,-62,1,-90,-54
-98,-72,-37,-75,-69,-78,-45,64,27,15
-64,-114,-108,-108,-87,-118,-96,56,46,227
104,0,-51,-50,-45,-140,-172,-170,-12,339
279,152,103,63,47,-128,-275,-508,-94,342
400,266,169,130,95,-92,-243,-467,-38,349
347,184,129,93,35,-82,-99,-122,123,320
134,1,42,48,-11,-52,-42,-4,90,111
-4,-40,-14,24,-46,-43,-52,-77,-143,-262
-110,-14,26,5,-56,-25,-19,-46,-224,-526
-157,-77,13,-16,-30,40,35,62,-86,-357
-97,-171,-33,-33,-17,77,66,170,69,64
71,-62,-51,-66,-36,72,93,211,76,258
134,53,-78,-114,-78,53,116,149,-4,300
91,27,-95,-160,-117,25,100,102,-17,335
65,10,-83,-123,-88,3,40,16,4,285
52,23,-50,-80,-70,-28,6,30,9,191
-65,0,-80,-89,-78,-51,26,49,-27,-29
-206,-51,-82,-65,-47,17,122,76,76,-147
-196,-20,-42,-12,5,100,173,99,154,-157
-146,34,26,68,64,112,125,49,117,-197
-62,12,-11,45,43,91,103,91,117,-97
-9,-44,-32,19,55,107,89,33,96,4
11,-11,34,68,103,108,53,-72,66,-23
-82,-49,-54,32,83,75,42,9,-8,-139
-170,-95,-196,-18,50,56,83,181,-32,-179
12,20,-43,21,45,2,6,155,-54,91
189,117,116,50,47,-44,-94,104,-113,303
190,72,90,33,60,-51,-104,67,-67,347
128,16,73,38,43,-66,-116,-25,6,331
95,7,59,33,-16,-95,-127,-175,-29,229
34,-31,12,1,-45,-76,-101,-241,-103,33
-168,-151,-9,7,1,-18,-86,-301,-190,-299
-361,-242,-17,92,94,55,-32,-272,-193,-565
-408,-276,-19,154,128,92,48,-170,-160,-611
-272,-218,22,163,155,107,57,-134,-137,-398
-111,-194,-48,106,109,41,-7,-96,-138,-216
-39,-234,-103,16,11,-21,6,74,-179,-156
67,-90,24,-27,-64,-5,114,306,-105,-7
208,264,63,-172,-237,-73,77,358,-5,227
312,426,30,-258,-295,-193,-67,212,15,376
333,325,-24,-206,-170,-157,-38,151,74,371
277,169,-46,-110,-40,-28,27,95,168,355
294,166,-8,-38,22,7,-46,-72,191,371
385,287,70,-30,-47,-103,-183,-141,206,344
259,247,56,-43,-73,-111,-135,-33,127,23
1,110,47,-25,-23,-8,1,-13,10,-429
-77,39,69,28,49,65,69,-54,-17,-378
14,60,67,51,93,76,86,-110,26,-40
11,54,17,46,83,28,46,-161,2,54
-121,-26,-8,74,110,-17,-40,-255,5,-60
-223,-126,16,69,112,-41,-80,-286,51,-128
-220,-143,-11,32,56,-69,-73,-216,-10,-146
-259,-160,-7,24,53,-33,-56,-192,-125,-236
-319,-155,51,84,94,54,-2,-85,-143,-320
-228,-124,62,105,82,143,100,69,-103,-217
-205,-195,-34,6,1,172,157,184,-146,-171
-162,-207,-77,-26,1,162,216,352,-13,-56
70,-63,27,49,44,59,197,425,188,203
229,57,85,58,-7,-37,140,353,226,252
191,50,82,23,-47,-75,73,207,250,148
85,-1,34,-5,-32,-69,28,4,150,56
167,114,34,-24,-42,-106,-59,-187,-20,76
227,235,74,-25,-79,-139,-96,-155,-12,123
71,121,56,-18,-83,-110,-72,-89,2,107
-44,-21,-12,-50,-71,-61,-61,-82,14,80
-75,-87,-68,-106,-107,-71,-92,-125,-67,-3
-49,-115,-95,-137,-164,-140,-100,-139,-92,-11
15,-66,-60,-115,-141,-135,-74,-128,-56,76
-7,-47,-69,-121,-147,-150,-110,-102,-89,89
-37,-56,-95,-102,-127,-140,-106,-33,-31,96
-29,-54,-37,-37,-58,-66,-61,3,25,27
-68,-13,32,51,38,32,-6,50,83,-140
-119,9,33,67,89,116,109,242,161,-223
-136,-56,-13,27,79,113,196,403,179,-185
-76,-145,-57,36,79,79,196,410,138,-61
7,-163,-35,113,140,92,141,343,117,102
23,-165,-36,100,132,75,100,375,86,95
-46,-193,-99,36,78,31,69,362,92,15
29,-91,-33,75,128,56,-18,23,43,33
143,75,38,77,120,47,-64,-243,-2,96
162,187,73,7,10,-19,-118,-421,-30,131
113,177,83,7,0,-25,-77,-389,13,151
32,116,54,11,-1,-9,-44,-294,-4,70
-112,2,-8,-30,-31,-2,-45,-250,-49,-99
-225,-88,-39,-31,13,58,19,-211,-124,-232
-293,-114,2,24,65,88,32,-251,-225,-367
-242,-43,3,0,28,39,-13,-223,-210,-336
-173,-70,-126,-47,17,25,-4,-109,-131,-187
-180,-145,-215,-33,50,60,37,26,-56,-39
-135,-123,-114,-26,18,49,52,191,57,85
66,30,-66,-8,-14,6,4,288,214,287
226,77,-41,46,8,1,-106,42,246,423
258,44,-35,67,13,32,-98,-165,213,418
258,64,-25,31,-10,-12,-111,-180,129,375
342,196,-24,-5,-17,-106,-166,-157,21,330
387,219,65,-9,-43,-136,-174,-159,-26,301
336,248,102,-50,-76,-134,-63,-39,-2,210
175,206,57,-125,-141,-156,-6,87,-16,-60
44,99,35,-95,-133,-123,28,124,-50,-303
-88,-32,36,-16,-29,-28,49,143,-102,-357
-172,-164,-4,17,29,50,105,213,-69,-181
-120,-237,-64,-17,11,80,175,297,20,42
-77,-214,-120,-29,7,79,108,160,50,90
-30,-152,-120,-52,-23,44,-23,-37,-79,0
-56,-127,-53,-56,-30,48,29,38,-155,-35
-98,-64,-24,-59,-56,62,81,187,-84,-36
-115,50,14,-108,-126,-8,33,235,43,-102
-170,115,78,-50,-79,9,11,161,160,-219
-232,125,126,24,-9,51,71,190,113,-287
-168,77,86,6,-6,9,77,286,10,-145
-49,63,38,-4,0,2,17,187,-12,6
81,94,-71,-12,19,41,39,110,9,55
73,7,-98,-46,16,78,136,121,54,93
-22,-116,-75,-75,-23,89,217,121,58,15
-56,-124,-35,-41,-13,101,186,92,98,-82
-59,-105,8,-13,-25,31,9,-48,74,-181
-56,-70,79,53,-16,-90,-163,-205,-46,-244
0,3,135,89,-27,-144,-192,-212,2,-175
39,98,98,32,-63,-174,-186,-213,-70,-210
-34,121,89,40,-10,-123,-141,-271,-91,-328
-73,65,2,37,-6,-50,-43,-171,-46,-233
-64,3,-126,16,-13,-16,27,-47,1,44
-57,-16,-56,10,-32,-48,2,-52,-23,245
-7,-3,38,31,-29,-77,-95,-188,-114,273
106,69,95,54,21,-87,-211,-416,-149,245
43,76,92,45,43,17,-141,-404,-133,45
11,59,47,9,32,94,5,-296,-160,-26
155,122,76,46,45,134,79,-268,-152,86
186,171,150,127,67,149,123,-160,-100,6
46,103,116,126,94,67,71,-41,-153,-209
42,78,108,88,67,-6,30,154,-30,-103
85,90,90,43,10,-22,21,237,165,57
76,68,85,10,-73,-35,24,130,217,90
-16,-26,21,-21,-98,4,55,29,241,82
-106,-154,-133,-92,-102,64,102,86,242,82
-86,-143,-167,-99,-104,42,67,83,168,101
-28,-68,-51,-40,-30,55,29,8,78,89
61,-23,-97,-41,-5,51,-44,-32,4,101
72,-71,-219,-63,1,52,-47,-27,-42,93
44,-92,-177,-44,30,62,-28,-36,-90,-5
-35,-95,-28,19,91,78,-9,-61,-164,-150
-139,-98,28,72,140,119,48,34,-134,-195
-113,-103,66,108,157,128,120,150,-64,-70
-17,-52,121,148,168,103,146,191,-3,67
36,0,95,174,197,111,157,201,82,140
86,34,73,162,161,58,94,148,131,187
190,68,133,115,35,-58,-13,98,137,203
171,1,42,43,-33,-59,-7,129,145,188
32,-64,-6,-14,-59,-40,-28,74,13,-1
-62,-1,-79,-117,-123,-70,-70,27,-120,-92
-124,-26,-130,-227,-238,-168,-136,47,-144,6
-142,-105,-128,-246,-240,-187,-127,84,-54,86
-137,-113,-123,-233,-207,-118,-53,151,37,40
-139,-79,-200,-186,-119,-12,27,248,237,17
-99,-70,-184,-95,-17,49,19,212,327,30
38,17,-7,-31,21,60,36,139,220,99
48,81,106,26,35,59,63,147,63,31
-23,58,83,57,71,87,66,185,-56,-117
4,30,99,88,101,80,48,202,-86,-181
-26,-70,-18,37,90,59,40,126,-88,-286
-20,-48,-81,60,110,69,43,12,-27,-347
65,137,112,134,164,84,0,-164,32,-270
86,279,166,135,136,52,-66,-341,-12,-219
51,227,116,107,86,9,-117,-466,-30,-112
23,92,4,56,9,-45,-161,-427,-36,-23
-55,-36,-148,-5,-51,-51,-140,-237,-8,-8
-166,-191,-187,-66,-99,-38,-56,-32,-11,-63
-193,-236,-67,-55,-122,-77,-4,72,0,-99
-228,-272,23,36,-50,-49,26,87,43,-45
-266,-311,-49,83,61,5,43,76,105,48
-142,-214,-117,49,67,29,7,0,86,67
102,15,-6,-22,1,42,-15,-87,62,187
245,136,103,-44,-19,43,-32,-99,6,291
339,159,140,-21,-21,7,-73,-62,19,393
447,225,160,4,-32,2,-104,-117,51,475
393,209,189,64,-17,-10,-148,-200,-51,388
256,187,125,64,-20,-26,-147,-132,-155,175
136,130,55,12,-69,-57,-140,-59,-151,-24
6,83,61,-66,-112,-100,-96,1,-264,-282
-40,98,13,-120,-142,-63,-7,101,-229,-347
-64,45,0,-97,-97,5,70,143,-98,-254
-150,-52,-27,-79,-71,25,65,41,-110,-250
-142,-20,-12,-52,-56,35,56,-76,-131,-227
-116,-27,19,-14,-49,37,85,-45,-24,-136
-74,-52,15,-15,-48,17,46,-73,33,-8
-22,-65,-28,-75,-79,-12,-18,-144,40,148
-30,-97,-90,-127,-89,-15,-22,-116,35,205
-30,-107,-106,-101,-48,-20,-6,-58,29,175
80,-61,-69,-47,1,-16,-15,-19,20,286
164,-15,-41,17,34,-40,-66,37,-4,401
230,64,24,36,23,-89,-117,107,14,430
228,154,76,76,64,-83,-131,86,9,343
125,61,70,62,61,-24,-81,70,126,206
65,2,69,54,51,0,-30,26,148,49
3,9,44,18,-18,-54,-1,-15,59,-80
-121,-64,-39,-17,-63,-67,38,6,-36,-149
-259,-189,-198,-88,-68,-11,87,74,-88,-203
-336,-258,-319,-134,-29,29,66,34,-160,-323
-340,-180,-126,-42,85,118,46,-83,-189,-437
-210,-7,27,60,116,245,173,66,-5,-305
-20,138,112,70,1,160,288,272,242,8
119,168,129,20,-30,15,170,147,362,224
94,3,-12,-54,-44,-44,17,13,363,219
79,-57,-39,-38,-3,-33,-52,-24,235,172
92,-9,34,31,87,35,-54,-28,80,73
108,49,31,83,139,87,-51,-33,12,16
44,8,14,96,141,129,3,23,58,-3
-58,-34,19,60,134,155,104,65,68,-66
-156,-46,-67,21,111,145,132,-3,60,-137
-122,20,-59,38,46,68,18,-120,37,-120
-25,104,21,32,-17,-6,-12,-48,7,-64
42,129,90,37,-33,-40,-34,-13,25,-23
68,146,161,126,26,-99,-122,-112,-23,-100
18,100,107,143,73,-70,-80,-65,-28,-191
-43,-13,68,94,47,-17,-37,-11,-17,-235
-93,-72,45,53,56,51,13,-102,-24,-294
-133,-147,-3,6,31,48,26,-127,-79,-325
-113,-212,-61,-15,-28,-17,18,-2,-191,-341
-125,-243,-97,-58,-86,-62,-3,111,-285,-322
-133,-252,-123,-101,-115,-77,-54,101,-242,-119
-208,-223,-99,-85,-78,-44,-34,75,-197,25
-168,-72,40,25,9,41,65,71,-55,169
57,144,120,37,18,45,67,-9,54,299
243,267,69,-14,-23,13,-70,-122,117,448
314,192,-63,-10,-51,-18,-127,-112,192,579
334,150,-22,18,-60,-60,-135,-106,133,539
298,176,78,38,-37,-69,-91,-63,-29,378
193,94,68,38,-31,-61,-85,-52,-94,236
67,45,27,77,-24,-56,-109,-96,-95,8
0,49,13,44,-29,-17,-12,-3,-90,-159
-49,-63,-79,5,-5,64,197,252,-35,-130
46,-31,-40,-11,-19,53,222,288,-30,16
118,3,-19,-105,-128,-62,104,159,-72,117
14,-106,-127,-191,-169,-56,83,126,-113,0
-88,-142,-210,-254,-163,-10,148,185,-107,-192
-137,-185,-241,-263,-167,2,147,164,-121,-231
-87,-111,-140,-167,-107,-36,-61,-136,-112,-111
-41,-4,-2,-24,-16,-71,-223,-297,-54,-14
-81,-9,87,79,70,-23,-144,-220,31,-59
-69,22,110,98,84,5,-65,-214,-10,-119
81,115,115,52,43,-22,-103,-238,13,24
159,143,115,31,31,-20,-74,-165,55,137
105,117,99,18,25,30,-27,-64,73,54
24,144,89,11,16,56,-47,-14,70,-97
-66,141,63,2,24,49,-16,81,103,-175
-106,94,80,37,66,75,68,229,228,-147
-102,53,109,77,89,88,91,221,230,-39
-80,22,85,58,62,40,77,174,245,91
-40,37,92,59,15,-33,61,71,243,163
2,17,43,41,-37,-62,78,32,168,192
-8,-25,-27,15,-79,-65,79,42,100,94
-82,-76,-154,-7,-44,-5,87,15,7,-80
-131,-110,-190,-30,-1,44,107,17,-69,-164
-173,-123,-107,-37,24,52,110,9,-137,-230
-250,-201,-100,-42,38,67,107,40,-119,-299
-219,-154,-72,23,94,123,124,107,-105,-293
-143,-75,1,82,141,148,138,189,-107,-275
-23,-7,95,113,141,137,151,237,-57,-163
-3,-42,96,151,172,159,124,97,14,-33
69,-21,132,221,226,132,29,-70,57,110
91,11,109,198,202,37,-86,-189,-38,140
85,61,68,122,129,-41,-168,-259,-161,62
103,22,11,34,33,-98,-144,-89,-34,189
67,-64,-46,-36,-39,-76,-36,153,85,243
26,-66,-53,-96,-119,-104,-46,194,85,122
89,25,-16,-164,-223,-197,-145,17,8,51
40,16,-44,-197,-224,-204,-139,-130,19,22
-49,-50,-124,-212,-223,-227,-106,-228,-22,-84
-9,-34,-122,-170,-197,-203,-108,-336,-114,-155
111,185,-2,-58,-73,-134,-125,-422,-253,-172
150,253,93,33,19,-50,-120,-333,-195,-37
219,182,100,33,9,-37,-124,-201,6,339
247,139,37,-13,-26,-103,-143,-112,56,485
269,133,27,-34,-14,-82,-114,-67,20,477
280,148,23,-7,27,-38,-35,-26,-63,340
175,70,16,18,14,-57,-52,-52,-143,56
0,-72,-30,-10,-16,-96,-76,8,-138,-245
-120,-125,-118,-36,10,-89,-33,97,-104,-365
-163,-140,-258,-53,68,-39,14,123,-65,-295
-169,-114,-207,-32,103,-20,49,104,-81,-233
-155,-102,-36,41,140,60,89,59,-98,-191
-165,-125,15,106,112,119,189,144,-122,-220
-351,-218,-32,75,20,102,286,254,-303,-431
-452,-245,-48,31,-45,115,385,425,-314,-394
-341,-197,-72,-57,-186,134,422,636,-15,-103
-204,-126,-71,-113,-200,120,353,676,193,46
-44,26,39,-25,-79,129,214,451,284,30
90,167,146,75,20,73,-7,17,310,50
170,233,187,135,115,46,-163,-437,291,95
306,312,223,153,113,-1,-293,-698,252,263
303,238,170,95,58,-16,-310,-616,103,281
229,203,105,64,60,22,-152,-318,83,184
161,220,86,65,95,48,-66,-167,95,161
87,128,47,71,127,91,-9,-135,73,165
79,72,30,39,112,83,6,-110,69,161
81,73,16,39,94,80,53,-51,30,81
16,79,-49,26,48,67,134,56,-23,-22
-76,17,-3,-24,-27,-16,28,6,-25,-62
-78,0,2,-49,-57,-75,-114,-79,-4,-97
-116,-93,-48,-65,-89,-93,-123,-1,76,-75
-143,-121,-74,-83,-125,-112,-48,37,9,-117
-170,-132,-80,-89,-137,-100,-21,92,-7,-144
-178,-139,-37,-74,-110,-59,7,178,76,-121
-131,-111,-39,-33,-38,-11,-10,148,114,-3
-12,-30,-17,59,66,45,-20,28,92,239
42,1,-1,67,103,92,51,18,42,349
13,-82,-27,-16,21,38,36,30,34,272
68,-61,-30,-55,-19,38,4,34,90,173
142,40,15,-8,29,52,-51,-10,36,55
141,93,88,74,75,25,-98,-84,-122,-89
37,52,100,144,138,45,7,15,-222,-147
27,80,-5,99,86,31,84,168,-177,-104
98,150,-45,50,5,-17,98,272,-24,36
72,36,-18,-4,-42,7,146,388,93,100
61,-40,-91,-106,-119,-10,170,381,105,157
196,47,-124,-149,-149,-92,104,183,1,275
263,-7,-140,-137,-153,-74,38,2,48,395
166,-119,-177,-129,-132,-27,-16,-70,61,328
42,-185,-184,-155,-143,-62,-52,26,58,137
2,-117,-122,-144,-178,-101,-35,61,-41,-39
-76,-23,-6,-55,-112,-48,-22,-114,-136,-97
-139,37,93,68,26,21,-41,-300,-141,-139
-145,30,120,109,77,27,-62,-349,-72,-142
-146,-24,85,89,94,38,-89,-341,-80,-170
-81,26,84,63,100,58,-114,-335,-107,-256
-53,69,26,45,78,32,-104,-209,-16,-344
-86,108,52,80,107,44,-39,43,66,-346
-170,86,68,75,103,29,25,217,113,-275
-223,-10,13,36,49,-23,-27,172,88,-206
-132,-21,-67,12,-29,-87,-104,35,20,-137
-37,14,-81,-11,-91,-133,-119,-72,97,-15
-158,-79,-68,-61,-102,-133,-80,-10,92,-11
-324,-231,-159,-66,-65,-134,-63,-9,-63,-186
-290,-223,-234,-4,26,-81,-12,35,-121,-188
-173,-123,-167,85,188,77,107,145,-135,-116
-78,-76,-74,129,223,134,116,201,-57,8
70,-2,51,97,145,59,73,210,1,126
112,57,142,116,151,97,79,77,28,151
77,90,180,137,167,110,14,-180,80,139
102,94,144,83,92,41,-16,-225,39,179
163,117,102,47,43,-5,-48,-189,-52,242
259,234,97,37,36,-40,-148,-225,-92,314
302,245,118,34,29,-29,-189,-256,-130,324
286,178,129,69,56,21,-156,-247,-111,290
213,107,86,58,36,18,-119,-135,-16,269
135,39,47,29,3,3,-56,-12,86,225
154,22,76,35,-5,-17,-54,-84,74,195
148,84,27,37,-24,-40,-37,-123,-72,48
31,141,3,-3,-21,-27,60,-9,-99,-121
-74,-14,-61,-147,-167,-117,89,80,-44,-142
-64,-72,-150,-208,-210,-86,165,218,8,-116
-143,-164,-196,-212,-154,-8,209,333,-45,-218
-273,-287,-241,-219,-110,8,121,266,-111,-325
-241,-240,-185,-140,-39,47,98,277,-39,-266
-78,-100,-31,-26,31,111,113,319,151,-105
-8,0,84,71,94,162,123,281,213,-79
18,48,140,119,96,174,146,231,216,-73
33,64,119,108,54,106,106,114,133,-129
87,128,131,73,8,29,19,-70,23,-159
92,110,96,14,-54,-26,-26,-63,-54,-154
124,47,49,-9,-54,-76,-63,-81,-77,0
52,-55,14,-1,-5,-28,-54,-18,-90,160
-106,-133,-43,-16,11,86,128,222,-111,141
-233,-134,-104,-69,-8,105,187,232,-61,21
-227,-96,-83,-60,0,97,182,120,-12,-121
-11,150,22,-15,0,95,237,118,81,-156
48,238,72,9,-31,42,162,-29,142,-142
-31,147,71,22,-19,4,-17,-370,23,-142
-14,60,35,2,-41,-78,-140,-508,9,-54
53,70,-9,0,-57,-132,-158,-356,-57,-35
13,26,34,18,-8,-58,-103,-176,-97,-100
17,-3,-17,41,48,21,-40,-66,36,-60
122,33,-4,68,88,28,-1,71,163,118
148,4,-40,81,134,11,29,187,195,251
77,-119,-98,75,144,70,46,209,78,247
46,-164,-31,43,86,107,105,191,99,315
63,-101,-48,-21,13,37,71,49,-49,304
89,-117,-66,-75,-66,-89,-137,-232,-239,223
173,-79,-13,-96,-113,-193,-292,-387,-279,113
155,-38,20,-57,-95,-152,-171,-169,-171,103
47,-20,-19,-28,-74,-40,11,48,24,189
-59,18,-22,-74,-94,-53,38,51,26,129
-94,-29,-47,-124,-125,-72,35,44,-49,-97
-144,-21,-41,-134,-130,-57,-5,-67,-203,-447
-204,11,23,-85,-95,-45,-38,-70,-152,-628
-195,6,60,-40,-32,-3,3,68,17,-464
-72,24,140,67,73,-8,-89,-72,111,-144
63,88,124,88,85,-65,-201,-235,56,19
112,104,102,80,85,-33,-156,-189,-33,92
87,115,119,98,130,36,-79,-139,-45,115
111,167,114,122,191,94,-7,-160,-82,97
240,261,91,137,208,98,19,-145,-51,166
191,147,8,108,174,118,77,-7,6,208
108,57,-49,71,81,67,49,67,81,204
-13,13,-22,35,23,-2,10,94,36,98
-103,-92,-1,-10,-40,-54,-1,200,36,17
-79,-142,-55,-87,-127,-121,-19,278,52,-15
-116,-110,-131,-118,-145,-133,21,315,-111,-192
-135,-78,-146,-80,-90,-120,48,240,-212,-284
-68,-64,-72,-61,-28,-83,10,137,-74,-138
-49,-141,-128,-106,-31,-74,-88,-54,-53,-100
-106,-178,-247,-126,-13,-39,-77,-197,-172,-186
-27,-34,-157,-59,13,77,13,-161,-65,-53
145,147,31,-12,12,110,107,-57,76,167
169,158,134,27,8,80,67,-66,30,205
78,85,168,31,-9,93,46,60,132,156
-78,-72,98,9,7,89,78,271,231,61
-126,-129,88,61,54,20,23,250,266,2
-115,-58,150,161,143,59,62,205,185,-111
-28,30,186,200,161,121,112,238,121,-113
50,17,176,164,106,114,117,234,148,-35
-19,-126,81,116,121,171,159,163,94,-135
23,-85,30,83,144,195,127,55,16,-177
154,100,-9,12,98,109,38,14,-104,-107
118,109,-32,-82,-42,-67,-122,-98,-100,44
80,128,3,-107,-160,-194,-257,-308,-66,138
-30,100,-15,-130,-218,-236,-245,-349,-131,51
-130,-3,-84,-154,-193,-193,-118,-288,-250,-29
-63,8,-68,-126,-133,-136,-45,-269,-300,74
24,19,-78,-121,-114,-109,-50,-186,-272,150
37,-76,-119,-176,-137,-84,-21,32,-170,116
48,-129,-125,-179,-131,-55,4,236,-46,51
164,-68,-121,-113,-86,-18,7,269,52,194
238,0,-42,3,-8,23,52,265,98,280
142,6,31,57,85,101,135,196,74,122
42,5,64,97,105,73,51,-19,64,-59
95,97,159,135,94,37,-27,-162,181,-54
172,217,236,163,130,58,-61,-332,135,-6
122,242,217,175,170,72,-25,-358,-32,-102
-21,135,121,138,133,42,-29,-282,-99,-235
-29,88,34,83,55,0,-50,-237,-109,-175
11,5,-42,17,-18,-40,-55,-167,-36,9
-102,-193,-107,-76,-91,-104,-38,-87,-27,95
-145,-236,-140,-67,-70,-90,9,-27,-98,58
-64,-120,-205,-38,-42,-48,24,-45,-134,-29
0,-24,-193,-55,-84,-35,58,-52,-120,-184
-70,-85,-85,-66,-93,-26,52,4,-100,-274
-162,-95,1,-55,-61,-24,71,111,-62,-306
-191,-37,42,-31,-3,34,105,160,11,-281
-202,14,62,-9,47,51,68,96,-16,-227
-233,-38,53,40,90,45,16,60,30,-109
-176,-31,-30,37,68,11,-38,46,159,29
-121,-16,-37,26,54,6,-84,18,137,43
-89,-68,12,4,42,74,31,163,162,60
18,-47,31,-12,-1,143,170,307,297,169
147,89,96,7,-36,107,114,213,211,182
165,61,59,-7,-58,-13,-10,62,130,144
106,-49,-18,-68,-104,-102,-115,-116,80,160
30,-108,-53,-102,-118,-115,-109,-204,-63,133
-3,-114,-90,-104,-129,-123,-80,-220,-197,90
41,-48,-85,-67,-71,-88,-32,-92,-194,98
27,-39,-47,-43,-64,-105,-41,59,-96,42
64,75,-10,-23,-27,-106,-52,55,-11,0
193,242,88,76,106,-30,5,-46,42,99
129,157,120,137,170,46,54,-96,50,101
49,30,104,102,108,47,51,28,80,103
5,-45,66,51,31,18,12,111,47,81
5,-39,54,57,48,52,9,78,-68,21
20,-17,67,93,117,137,59,7,-75,5
-37,23,-4,83,171,216,141,42,-4,-104
-171,-26,-142,47,136,184,172,153,61,-229
-208,-111,-206,34,74,125,109,155,49,-140
-92,-102,-131,13,20,43,22,108,98,89
66,-44,-1,-22,-45,-47,-17,205,236,332
101,-18,15,-65,-88,-64,-38,256,229,283
25,-45,6,-88,-130,-84,-36,211,112,19
-60,-96,-20,-114,-150,-64,-1,60,1,-190
-153,-171,-100,-136,-120,30,90,-49,-58,-343
-225,-207,-98,-101,-68,88,107,-95,-106,-481
-183,-182,-98,-64,-63,40,53,-7,-130,-376
-115,-56,-84,-43,-24,7,40,42,-229,-244
-81,-29,-38,-73,-55,-31,38,164,-59,-122
0,-30,-18,-49,-93,-40,45,258,113,88
9,-100,-32,0,-70,-45,16,102,11,242
15,-123,-45,31,12,-18,-14,-12,-61,299
120,-48,47,105,104,6,-14,73,86,387
172,13,172,144,108,-25,-56,28,262,418
229,125,201,131,56,-66,-127,-170,307,401
220,167,194,98,40,-52,-191,-459,117,209
83,57,122,78,50,10,-150,-539,-119,-153
1,18,113,70,33,45,-79,-454,-230,-334
115,159,151,-1,-70,-80,-204,-461,-214,-205
129,198,119,-26,-105,-142,-259,-394,-146,-135
7,90,23,-29,-64,-100,-170,-253,-76,-172
-43,-7,-47,-68,-70,-102,-88,-140,37,-127
-6,37,-43,-65,-46,-56,-9,-31,25,-129
-44,100,-3,-28,0,23,45,-7,-96,-251
-148,50,22,-6,0,70,97,66,-97,-296
-197,34,-6,-10,-14,85,126,165,-104,-208
-20,110,-7,-17,-49,33,38,130,-138,60
167,131,-8,-30,-62,-46,-42,103,-133,329
237,71,-30,-50,-79,-145,-113,113,-92,427
199,0,-56,-30,-42,-128,-84,191,38,389
174,42,-76,-5,13,-34,-18,206,134,276
121,57,-25,21,63,38,34,166,158,197
17,-26,0,16,0,41,66,122,162,24
-85,-59,7,16,-40,-3,-5,-62,65,-227
-244,-71,16,39,15,-10,-82,-213,-83,-496
-362,-69,-26,23,93,41,-19,-99,-95,-576
-249,-34,-57,-1,115,123,59,4,14,-277
-112,-38,-37,-1,65,163,113,97,98,-10
-155,-96,-113,-30,-46,66,104,155,98,0
-271,-212,-150,-61,-60,12,61,114,32,-56
-188,-184,-119,-53,-36,12,74,101,12,41
-59,-74,-72,-13,0,64,71,34,-106,30
0,-9,0,24,60,83,36,-69,-200,-17
8,-62,-2,16,36,48,-43,-102,-164,88
27,-148,-93,-69,-29,-4,-56,-26,-108,171
64,-157,-196,-71,-22,-49,-8,182,-66,155
109,-44,-114,9,75,-66,33,436,100,123
151,107,-20,15,138,32,126,572,282,95
115,71,-8,-25,31,85,149,477,319,49
110,157,10,5,-24,23,40,53,207,-57
69,154,-2,100,39,-3,-91,-333,203,-60
-44,-56,14,40,-52,-84,-171,-433,75,-10
-110,-145,-16,-66,-161,-157,-176,-323,-49,62
-42,-99,-15,-96,-173,-61,-40,-129,79,299
51,-89,-5,-103,-151,4,51,-57,141,468
81,-99,5,-43,-99,34,110,31,157,419
77,-54,1,17,-19,44,155,143,117,241
-25,-78,-10,74,68,-15,37,107,-7,68
92,12,63,89,66,-90,-101,25,-79,84
162,16,-42,38,22,-84,-36,100,21,85
127,80,13,32,52,-24,40,171,60,-140
207,338,243,126,100,30,0,-8,-29,-218
135,306,269,172,92,36,-71,-292,-112,-152
16,118,153,72,12,-14,-68,-280,-78,-108
-26,109,93,10,-33,-56,-90,-250,-52,-147
-75,177,108,33,-6,-20,-67,-180,-124,-242
-127,73,83,18,19,15,35,73,-80,-252
-84,22,66,41,57,24,66,89,41,-95
-42,-17,-3,51,82,77,54,-71,98,4
-81,-135,-161,-31,54,146,38,-143,-34,-41
11,-122,-87,-72,0,69,-9,-109,-36,37
101,-63,-11,-84,-61,-38,-61,-79,61,124
124,-50,5,-97,-125,-96,-113,-59,103,193
177,-23,6,-97,-144,-106,-124,0,101,285
137,-33,-18,-82,-116,-91,-72,20,-10,243
-14,-98,-62,-59,-65,-101,-35,-25,-203,-39
-65,34,2,-7,0,-68,-48,-140,-311,-295
-4,63,41,16,-6,-3,-48,-141,-230,-259
103,90,70,25,-17,20,-42,12,-85,-102
142,85,110,59,3,-18,-71,106,-109,-57
124,117,68,54,28,-79,-85,29,-240,-83
124,186,56,58,79,-38,-14,-84,-197,-61
141,226,7,32,84,30,68,-82,-186,-71
43,224,-22,-37,25,21,120,63,-107,-101
-165,-6,-100,-110,-31,14,127,217,131,-72
-211,-99,-118,-94,5,7,28,85,275,-70
-203,-71,-84,-35,14,3,9,-4,264,-149
-211,-82,-29,-27,-27,-33,2,35,123,-207
-247,-159,-49,-51,-48,-60,-83,-24,60,-175
-270,-201,-38,3,22,-20,-86,-60,41,-91
-168,-95,26,82,111,67,32,5,8,20
-102,-113,30,84,88,132,159,113,105,150
-65,-178,26,55,32,111,155,128,198,191
47,-135,-7,-17,-11,67,112,29,166,238
154,-100,-37,-40,4,76,119,20,105,336
200,-41,-15,52,102,130,108,-2,41,341
270,35,47,88,162,171,121,15,3,331
231,12,30,48,124,188,197,181,-40,286
66,-106,-18,10,50,152,222,318,-26,178
50,-5,-4,-26,-72,6,84,256,-38,62
152,280,-18,-86,-219,-174,-99,96,-77,-48
65,301,6,-128,-282,-284,-189,73,-62,-169
-198,25,-30,-162,-230,-320,-218,-19,-125,-306
-243,-46,-81,-115,-164,-309,-185,-152,-228,-264
-228,-108,-99,-91,-149,-242,-186,-216,-190,-179
-261,-178,-61,-61,-61,-91,-98,-146,-105,-173
-195,-156,-5,-27,-7,2,-16,7,0,-92
-111,16,44,3,-1,1,-56,-99,-45,-50
-32,197,100,70,78,31,-135,-362,-103,-78
-21,186,167,131,107,65,-161,-344,-48,-52
-87,70,166,117,95,46,-87,-107,-115,-45
-73,66,115,110,136,89,15,67,-38,88
5,72,67,70,92,66,-9,37,-7,169
120,67,69,34,31,-4,-76,-26,137,348
183,109,7,31,41,-1,-56,-99,129,365
187,139,13,59,88,37,-7,-122,-60,133
108,34,-4,34,81,51,74,10,-22,-3
5,-78,-106,-21,48,29,100,86,90,-57
-89,-97,-182,-43,24,-4,88,61,62,-207
-115,-108,-189,-69,-27,-46,50,45,-24,-267
-113,-81,-83,-32,5,-5,39,-59,-140,-328
-128,-9,-50,48,86,49,43,-217,-201,-386
-151,-45,-27,70,48,30,-18,-252,-164,-273
-96,-50,84,81,29,42,12,-103,-64,-31
-59,-73,123,108,59,79,134,185,60,105
-44,-95,83,98,87,122,253,425,77,51
14,-86,-19,45,77,159,289,503,78,32
109,1,-8,-1,41,134,232,437,68,82
237,113,68,-4,6,38,91,259,86,156
185,144,60,39,75,46,65,90,27,28
70,67,42,9,12,-3,5,-57,54,-116
-41,18,37,-12,-28,-13,-63,-192,188,-129
-10,143,98,-7,-46,-13,-38,-143,185,-22
-29,61,43,-23,-62,-4,42,4,101,55
-88,-104,-115,-65,-69,-37,-17,-97,34,60
-154,-147,-238,-89,-96,-105,-86,-189,-11,14
-123,-98,-165,-79,-63,-109,-76,-142,-34,7
-48,-76,-76,-67,-30,-86,-40,-77,-88,-16
-41,-60,-19,-54,-36,-77,-103,-110,-77,-64
-8,38,83,38,23,11,-114,-111,-26,-34
80,106,157,154,57,75,-80,-53,82,75
106,16,79,89,14,43,-87,-2,106,141
111,-48,51,6,-36,9,-66,61,72,136
145,-26,42,6,-32,13,-50,105,13,151
201,-22,27,-19,-27,23,-63,94,-7,244
308,89,76,-22,-47,-30,-122,9,-76,331
341,106,61,-34,-55,-39,-105,22,-78,429
270,72,-4,-36,0,23,24,106,-38,371
232,44,-31,0,51,33,72,53,-16,292
153,-105,-142,-41,-37,-48,-68,-72,17,227
88,-115,-148,-82,-101,-119,-145,-125,-26,83
-70,-120,-81,-71,-92,-113,-79,-45,-70,-216
-328,-209,-137,-23,-14,3,52,60,-11,-495
-450,-288,-102,1,27,57,94,69,11,-485
-306,-191,-32,-20,-15,-13,4,-28,-47,-288
-124,-27,10,-16,-28,-52,-28,-84,-154,-188
-107,-33,-33,-25,4,-9,42,-59,-208,-178
-210,-114,-97,-79,-20,60,133,54,-213,-277
-228,-128,-186,-106,-40,85,202,262,-120,-276
-141,-70,-142,-121,-64,54,227,463,-60,-169
7,10,16,-31,-12,30,195,531,45,1
178,112,144,73,36,36,119,362,207,286
259,234,255,168,95,44,5,50,176,373
262,336,279,230,150,69,-33,-159,158,325
156,200,182,106,8,-69,-216,-283,87,235
86,112,82,-38,-130,-240,-336,-286,15,120
73,145,4,-98,-149,-231,-259,-175,-42,63
-26,16,-76,-138,-187,-174,-108,44,0,-12
-156,-101,-85,-120,-194,-85,58,221,50,-198
-200,-91,-43,-63,-108,-8,159,289,182,-258
-153,-56,-6,-2,-5,24,128,122,209,-139
-77,-24,47,109,138,67,54,-259,164,-33
26,75,93,170,204,87,55,-395,38,20
14,65,76,147,137,3,34,-321,-48,-7
-91,-10,-2,129,117,-14,-21,-282,-138,-106
-70,23,70,127,120,28,-20,-209,-155,-49
24,76,152,71,99,33,-17,-125,-59,61
10,17,123,75,155,154,59,24,22,-25
10,-29,97,107,200,310,174,131,124,0
94,-22,101,116,175,238,131,90,230,255
256,68,113,92,106,101,26,84,223,494
407,197,43,13,-7,-36,-77,55,156,514
441,254,14,-50,-46,-103,-66,49,136,453
305,145,-63,-65,-27,-66,-2,13,7,225
0,-106,-180,-69,-35,-5,24,-4,-82,-89
-202,-237,-123,-57,-46,-12,-9,-67,-76,-238
-230,-120,-41,-32,-30,-20,-33,-115,-94,-357
-306,-42,-44,-23,17,88,83,-49,-106,-544
-345,-93,-137,-99,-66,85,140,120,-151,-477
-314,-157,-150,-183,-178,4,118,309,-148,-295
-270,-175,-89,-116,-110,30,79,290,-162,-228
-194,-177,-57,-51,-33,53,96,230,-95,-175
38,-58,-20,-47,-66,-24,27,155,42,18
209,101,110,34,-55,-94,-135,-145,5,156
259,209,186,100,-29,-136,-282,-395,-23,186
159,173,131,52,-28,-58,-184,-189,41,73
52,86,66,33,11,49,-33,1,-19,-97
-57,10,6,39,84,146,126,167,-113,-195
-110,-45,-24,32,101,156,172,245,-139,-152
-106,-45,8,76,149,129,153,220,-143,-71
-138,-116,16,93,160,107,141,201,-139,-63
-268,-296,-97,0,116,137,168,216,-121,-178
-280,-286,-156,-102,-12,102,167,244,28,-212
-142,-96,-147,-169,-141,-25,68,172,128,-130
-31,13,-119,-191,-187,-95,-88,1,50,-37
60,7,-134,-188,-204,-150,-175,-103,86,192
160,39,-109,-145,-164,-166,-135,-77,111,317
239,163,-103,-75,-65,-117,-118,-64,51,326
278,153,-63,-57,-62,-158,-236,-126,49,326
302,130,55,0,-39,-116,-296,-193,30,296
296,205,193,106,57,29,-161,-121,126,262
63,199,196,127,86,55,-76,-140,11,-65
-202,116,163,141,161,103,8,-249,-163,-375
-200,60,145,114,148,139,49,-284,-113,-252
-115,46,86,75,108,103,8,-332,-50,-44
-91,-18,-15,-4,30,101,57,-148,42,95
-35,-20,-91,-50,-19,75,131,58,145,170
99,163,13,32,27,41,63,-62,210,259
132,154,-24,22,-17,-5,20,-109,222,253
157,42,-126,-52,-97,-58,-15,-93,98,229
146,-45,-125,-96,-141,-98,-56,-86,-35,127
101,-120,-51,-79,-116,-99,-60,-67,-48,65
92,-121,14,-8,-55,-78,-45,0,-5,113
94,-139,24,28,7,-23,-47,57,13,147
110,-150,-23,10,34,12,-18,99,-15,132
16,-124,-41,24,97,81,15,58,-141,-92
-194,-179,-24,68,167,137,8,5,-160,-275
-312,-175,2,100,187,123,0,-2,-213,-384
-253,-90,52,124,162,119,6,17,-217,-337
-100,5,96,99,98,74,2,72,-39,-106
0,113,117,27,-19,-55,-82,43,-2,-49
44,132,108,-43,-83,-114,-131,-38,-12,-41
103,135,100,-92,-121,-105,-73,-58,6,23
121,90,14,-173,-196,-106,12,91,102,137
54,-59,-94,-209,-222,-107,65,256,204,199
40,-66,-118,-180,-159,-72,139,357,154,136
38,-28,-120,-162,-140,-88,131,411,80,126
100,21,-82,-142,-163,-130,69,335,80,228
150,84,-76,-127,-128,-122,30,90,6,275
165,69,-88,-140,-116,-123,-29,-94,-71,250
143,-26,-71,-109,-107,-113,-109,-227,-12,206
108,-4,14,-9,-17,-20,-108,-324,-60,88
68,70,53,46,38,44,-21,-276,-11,-24
0,14,59,78,52,44,-8,-217,-1,-91
-85,-29,82,120,132,105,30,-136,-49,-280
-151,-48,81,131,152,178,103,-24,-66,-390
-213,-51,34,104,93,162,150,122,-77,-432
-199,-19,52,52,40,117,157,262,1,-375
-133,-10,35,25,-4,57,123,312,80,-275
-100,-1,13,36,-17,-34,-8,157,-26,-260
-134,-33,5,28,-33,-88,-81,116,-74,-250
-207,-100,-28,19,-15,-38,-8,159,-17,-235
-142,-52,19,78,54,12,22,33,38,-174
-55,9,70,81,53,-18,22,6,110,-83
-27,33,92,53,36,-25,39,75,146,8
63,42,63,25,35,-18,47,156,223,176
77,37,-16,14,70,49,141,230,139,136
45,-8,-98,-18,91,111,171,110,20,69
50,-34,-106,1,107,107,78,-95,-97,60
154,88,-6,59,114,26,-103,-316,-174,133
241,97,63,65,28,-74,-292,-460,-182,245
144,9,-31,15,-10,-52,-230,-342,-156,214
43,-29,5,0,22,-18,-139,-146,-50,159
62,-34,47,13,61,15,-104,-77,50,239
41,-56,27,22,78,56,-41,37,103,263
-37,-84,12,28,60,45,51,150,75,90
-182,-171,-46,-24,4,5,121,262,24,-151
-268,-116,-68,-51,4,-16,145,249,11,-305
-186,-39,-91,-62,-2,-15,94,123,12,-124
-9,14,-79,15,40,-14,33,2,49,143
67,15,25,77,51,-7,-39,-184,29,185
117,-49,73,59,-13,-33,-165,-342,79,177
174,-20,74,1,-86,-34,-172,-332,124,164
102,42,63,-3,-44,59,-76,-289,-13,28
12,123,-3,4,3,118,0,-209,-176,-106
-1,291,-118,-74,-59,22,8,-99,-292,-119
-60,140,-213,-162,-134,-28,33,110,-197,-43
-102,-60,-267,-177,-116,32,109,277,-49,-53
114,109,117,8,-86,-249,-243,-16,178,139
8,-11,-29,-57,-108,-223,-173,-38,71,23
-79,-41,-163,-29,-44,-145,-84,-117,-92,-132
-159,-84,-195,-52,-30,-135,-21,-114,-154,-236
-208,-192,-141,-111,-90,-173,-10,-57,-120,-287
-178,-248,-109,-127,-85,-140,-49,-13,42,-214
-114,-207,-87,-107,-18,-27,-49,89,174,-79
30,-108,-76,-100,5,29,-17,329,260,98
115,-88,-50,-76,14,78,33,398,197,167
218,-28,46,-22,-3,81,36,245,191,236
241,15,92,38,3,2,16,8,105,228
131,-32,101,78,63,26,40,-50,-13,122
13,-64,143,116,105,28,-17,-146,-120,82
8,-2,167,190,152,77,-73,-348,-83,150
110,128,248,208,99,115,-63,-356,93,270
77,202,239,108,-19,-3,-93,-199,113,232
33,215,165,33,-99,-102,-119,-87,105,233
73,157,138,24,-85,-69,-71,-72,149,302
161,82,44,-22,-89,-34,-42,-118,148,364
172,-16,-131,-116,-104,-28,3,-123,83,331
151,-68,-167,-144,-109,-44,-7,-88,2,159
60,-88,-96,-113,-119,-104,-79,-92,-155,-182
-11,-30,-44,-47,-60,-86,-36,32,-251,-504
-83,119,45,17,52,-12,65,144,-336,-730
-227,134,52,12,70,77,218,335,-265,-806
-319,97,6,8,88,163,263,436,-40,-724
-266,49,-34,-11,46,155,187,340,96,-424
-156,62,-131,-30,-23,62,73,27,-29,-252
-48,174,0,54,70,87,3,-253,-185,-233
139,336,160,150,163,85,0,-199,-102,-22
138,277,145,155,179,68,38,-45,-5,123
69,109,101,98,106,34,29,52,114,162
91,34,89,79,61,32,15,10,245,249
56,-68,40,27,-5,-13,-31,-91,267,296
-36,-147,-32,-43,-74,-70,-54,-55,161,210
-58,-162,-89,-72,-103,-44,21,52,107,139
-112,-206,-162,-128,-134,-38,21,47,-14,-21
-219,-237,-175,-132,-114,-8,87,101,-137,-235
-250,-209,-95,-57,-5,95,207,187,-266,-360
-174,-99,0,22,55,129,197,218,-295,-310
-152,-38,90,100,82,87,95,267,-98,-219
-135,-51,123,137,106,71,34,215,160,-34
-4,34,128,130,111,18,-45,13,151,80
95,147,97,106,124,-34,-86,-144,-5,91
136,159,88,93,90,-23,-57,-192,-98,127
196,214,90,144,131,21,0,-125,-135,185
254,209,34,125,125,-3,-10,-70,-138,266
154,39,3,57,63,-15,-20,39,-131,196
10,-145,-74,-30,-24,-17,-10,124,32,134
4,-138,-13,-25,-57,-34,-81,-28,101,99
68,-74,27,-19,-77,-58,-143,-191,108,61
6,-36,23,-34,-42,-21,-108,-218,67,-72
-40,8,30,-16,-2,-1,-89,-220,71,-107
-130,-72,-41,-74,-46,-69,-76,-161,-8,-186
-157,-83,-72,-116,-110,-99,-10,49,-100,-167
-59,-62,-58,-114,-140,-78,70,216,-96,-6
31,-20,-71,-80,-82,-31,99,193,-128,64
68,7,-67,-13,-19,41,136,201,-53,121
101,-28,-27,-12,-4,52,127,178,134,217
116,-20,-5,-3,4,11,35,21,167,217
21,-36,22,58,79,29,-20,-108,151,120
45,4,77,113,135,54,-38,-139,254,201
191,39,90,82,104,42,-79,-123,249,358
260,46,57,14,12,-2,-110,-144,15,329
255,68,4,-81,-99,-55,-103,-135,-97,226
84,4,-102,-157,-139,-71,-41,-12,-93,68
-35,-15,-92,-114,-79,-68,-38,-59,-135,-44
-94,1,-33,-4,5,-102,-105,-175,-243,-232
-247,-47,-142,61,98,-45,-47,-91,-256,-477
-343,-94,-231,60,128,-30,1,24,-183,-499
-253,-111,-155,-3,57,-117,-89,-38,-168,-347
-136,-123,-134,-67,-12,-84,-67,-44,-112,-182
-61,-112,-65,-65,-84,5,21,23,-72,-61
45,-85,-81,-49,-113,47,84,111,-14,51
156,-37,-83,-13,-51,75,90,142,68,147
253,33,22,26,60,124,79,115,117,169
359,170,96,44,73,105,30,64,133,186
335,189,142,62,57,34,-27,1,109,281
152,66,103,46,23,-18,-105,-28,46,263
-76,-21,20,-12,-8,0,-98,-28,12,1
-189,9,-2,-46,-51,9,-40,11,35,-309
-183,143,43,-23,-62,8,20,-8,36,-398
-91,226,64,6,-40,19,69,-24,13,-223
-16,149,-5,-26,-52,18,79,14,80,-23
-30,5,-29,-59,-101,-10,65,74,188,54
-112,-116,-57,-93,-134,-48,10,36,161,-20
-154,-174,-133,-122,-123,-92,-2,7,125,1
-207,-261,-162,-148,-151,-127,15,65,72,17
-205,-252,-120,-118,-125,-64,76,60,28,-25
-84,-111,-5,-18,-15,32,90,7,82,13
131,191,168,107,71,101,101,36,144,144
226,347,207,112,46,70,70,44,142,165
76,233,121,44,4,15,6,-52,-51,-106
0,140,96,45,5,7,-33,-85,-140,-163
42,158,110,85,46,16,17,48,-126,15
43,177,105,123,89,28,0,123,-142,98
15,128,107,112,75,0,-115,41,-80,75
65,84,44,91,73,9,-128,-23,65,91
112,-10,-21,24,39,23,-72,-50,205,207
66,-61,-50,-29,16,43,30,-46,21,138
-36,-110,-79,-61,0,58,73,-26,-83,-21
-91,-142,-76,-68,-3,51,46,-109,-47,-102
45,5,15,-7,-4,38,31,-145,23,-33
45,81,77,79,19,61,77,-99,68,-12
-106,58,40,113,92,88,127,-26,-11,-181
-155,5,-15,82,78,45,63,-54,-119,-250
-123,-93,-8,68,36,4,-47,-94,-132,-180
-73,-111,-29,73,37,-1,-47,34,-105,-104
-69,-111,-67,71,37,37,29,210,-74,-78
-109,-141,-6,16,36,87,48,226,-33,-66
0,-44,50,24,26,32,-42,136,41,52
84,6,57,43,21,20,-32,138,163,188
149,16,66,58,44,64,31,170,218,307
133,-48,31,35,13,54,-4,61,159,359
49,-116,-8,-20,-53,6,-30,-64,105,305
-64,-190,-82,-102,-140,-64,-4,-13,66,164
11,-56,-77,-101,-116,-76,13,-33,30,150
181,125,-72,-50,-87,-98,-52,-142,100,299
160,105,-200,-111,-144,-149,-134,-240,29,217
90,94,-155,-142,-136,-141,-133,-230,44,97
73,79,-75,-106,-98,-119,-114,-191,50,72
78,39,-64,-99,-115,-123,-106,-131,3,136
85,56,-5,-46,-105,-89,-67,-28,-16,123
-27,17,-38,-24,-77,-38,14,86,-139,-254
-282,-111,-181,-83,-70,13,160,313,-193,-672
-268,-32,-63,-18,2,68,198,265,-189,-679
-139,88,110,93,99,114,199,151,-134,-460
-8,121,155,137,150,169,233,152,27,-187
-24,36,77,123,179,202,259,166,-52,-120
-16,64,26,130,178,182,218,135,-137,-83
102,150,9,86,137,32,33,-35,-19,46
66,64,-13,11,64,-58,-91,-145,9,14
-48,-57,-11,-21,51,-39,-171,-245,-34,-67
-106,-58,18,-8,80,-33,-239,-407,-166,-149
-47,13,65,18,22,-64,-212,-323,-62,-49
18,-19,28,-15,-57,-115,-144,-99,110,112
0,-123,-128,-113,-95,-82,-73,28,140,109
-122,-240,-265,-117,-73,0,-5,7,105,118
-122,-250,-243,-106,-79,13,12,-63,-11,190
-67,-199,-92,-92,-98,2,37,-29,-20,319
28,-90,-32,-85,-88,-55,6,-7,-52,349
21,-11,-1,-44,-22,-90,-77,-64,-170,192
49,163,39,25,44,-52,-82,-72,-131,29
64,318,122,63,44,-24,-65,14,-40,-128
28,269,265,108,59,38,33,150,119,-92
-37,101,211,112,95,122,122,302,143,-110
13,55,136,57,71,108,110,337,37,-154
88,59,80,-21,-3,27,63,337,-59,-27
71,11,7,-95,-87,-26,84,392,-13,36
-26,-14,-28,-129,-95,-68,28,242,8,-85
-69,-6,-9,-91,-70,-87,-59,0,-69,-249
-134,-67,-44,-61,-29,-70,-52,-178,-203,-426
-156,-20,-94,30,73,-6,-56,-338,-231,-431
-45,43,13,80,63,51,-8,-235,-25,-205
50,21,62,48,8,44,37,-180,24,-43
100,6,-76,22,15,24,21,-194,-12,26
128,70,-145,10,33,8,13,-141,-87,23
154,171,-27,60,95,12,-1,-147,-122,50
100,85,-13,28,75,-17,-30,-85,-109,124
-3,-106,-43,-14,35,-27,-8,130,-49,184
32,-71,-13,41,46,-25,1,206,55,224
103,117,140,117,77,2,0,181,173,210
58,140,177,81,26,7,13,220,193,51
49,142,62,45,40,66,102,204,141,-27
60,110,60,53,89,115,133,81,170,31
-31,-24,27,27,62,36,15,-139,48,-34
-176,-180,-71,1,22,-28,-85,-238,-43,-142
-109,-226,-93,-11,-8,-28,-52,-152,61,-46
46,-170,-57,-77,-30,-21,-6,-52,131,78
152,-56,-64,-146,-81,-39,37,51,88,127
121,40,-53,-144,-114,-32,68,101,-16,108
-10,-56,-45,-120,-147,-61,22,82,25,138
-19,-111,-24,-94,-134,-60,-15,118,81,145
-46,-101,-7,-64,-83,-22,-18,134,15,-17
-163,-90,37,-10,-15,-2,-37,27,-147,-250
-220,61,86,61,83,52,-27,-181,-349,-418
-104,210,170,133,127,69,-64,-306,-328,-286
16,108,168,104,79,10,-118,-264,-192,-88
67,76,140,70,60,-3,-128,-191,-12,-56
129,123,128,48,44,20,-107,-74,160,0
67,39,90,37,41,80,-31,86,87,62
9,-51,8,-17,6,89,24,234,151,185
5,-81,-35,-79,-57,75,49,266,196,194
-24,-117,-68,-109,-51,78,27,164,145,135
-20,-103,-30,-106,-72,0,11,103,98,149
-14,-99,-23,-126,-126,-100,0,50,109,175
48,-17,7,-109,-137,-166,-103,-130,-7,137
16,35,21,-72,-89,-95,-92,-170,-100,-29
-43,-2,-39,-65,-31,13,55,17,-35,-172
9,-26,-25,-46,-15,11,52,111,60,26
80,0,27,-37,-21,-24,-32,35,145,333
156,17,50,0,-19,-44,-78,-38,213,479
216,-2,31,12,-42,-90,-111,-48,172,495
273,-33,-8,-2,-45,-82,-78,36,233,541
257,-70,-21,1,-30,-70,-41,153,214,492
178,-77,6,54,22,-59,-27,108,56,233
13,-81,16,102,62,-28,24,98,-71,-148
-175,-87,74,154,110,38,80,151,-101,-401
-200,-48,55,133,144,126,116,29,-147,-412
-130,85,50,82,113,109,44,-144,-199,-428
-212,71,63,105,123,124,75,-122,-147,-441
-286,30,52,85,81,102,118,-104,-149,-398
-246,22,-32,54,33,27,83,-173,-193,-302
-245,-74,-26,31,17,1,43,-207,-124,-241
-206,-127,-30,-49,-3,40,55,-105,-86,-213
-139,-121,-130,-116,-45,38,77,43,-19,-145
-98,-92,-261,-155,-82,17,49,52,39,-21
-68,-87,-161,-119,-40,40,80,29,111,111
-34,-31,-4,-30,0,61,93,-5,85,94
-66,16,78,22,6,-15,1,16,-2,-40
-26,41,23,-1,-18,-89,-20,132,-20,-66
59,119,-7,26,18,-33,41,140,-37,-106
138,165,148,92,92,20,13,-35,16,-73
125,150,149,106,131,60,-14,-126,-37,-27
0,0,75,110,142,70,18,-41,-49,-27
48,-51,55,130,150,77,21,4,26,77
218,83,5,115,158,95,21,-10,31,249
209,24,-10,54,87,55,14,15,56,309
72,-195,-81,-78,-53,-32,-47,9,62,154
-91,-308,-179,-169,-149,-90,-57,50,3,-120
-160,-197,-140,-165,-158,-76,29,241,12,-247
-48,33,-87,-172,-200,-137,-18,215,-65,-136
-45,41,-49,-139,-173,-160,-59,162,-72,-20
-12,61,-72,-64,-118,-169,-94,64,-104,-59
51,104,-65,2,-65,-133,-119,-97,-45,-44
23,98,70,92,74,-2,-55,-214,17,78
20,93,151,116,136,103,7,-214,128,196
22,71,110,55,79,84,21,-140,104,138
49,87,75,6,1,52,13,-36,30,38
57,37,53,10,-16,58,61,131,105,104
21,-100,11,23,-22,37,130,224,67,157
22,-208,-57,-18,-53,-12,162,294,-42,98
61,-198,-78,-36,-80,-99,78,242,-61,106
32,-143,-41,-20,-68,-152,-36,79,-95,124
140,-9,-14,-32,-79,-167,-125,-54,31,313
306,128,-26,-54,-45,-163,-137,-115,145,559
317,133,-86,-92,-31,-127,-89,-89,177,587
307,137,-87,-152,-169,-170,-82,-93,87,468
251,189,-46,-149,-212,-197,-129,-88,-3,270
81,131,-16,-76,-89,-125,-116,-36,-28,-55
-52,-1,-19,-63,-27,-56,-93,-46,2,-241
-208,-49,-15,-37,64,68,-32,-131,-27,-514
-371,-55,73,101,205,253,81,-204,-45,-740
-307,23,196,233,253,272,90,-328,-87,-663
-109,190,257,248,226,173,-27,-438,-192,-461
-77,196,123,130,134,62,-54,-341,-215,-350
-114,78,-70,27,57,8,0,-146,-131,-257
-122,1,-41,22,91,53,100,-33,-150,-210
0,-13,42,26,55,122,172,47,-72,-102
139,15,75,53,-39,88,205,179,86,42
155,-12,-22,26,-78,-18,112,264,190,89
70,-20,-3,21,-16,-31,31,243,136,25
-41,-4,25,63,120,43,78,127,36,-72
-154,-72,44,78,155,83,50,-38,61,-75
-279,-139,43,72,86,40,40,-47,23,-89
-314,-193,-37,25,66,28,88,47,-16,-113
-40,-14,-5,0,20,-19,-20,-100,-6,-10
75,97,50,34,20,-24,-104,-238,-106,-55
89,62,54,9,-55,-42,-104,-149,-94,-31
195,112,33,-68,-174,-83,-118,-27,0,77
246,165,38,-65,-175,-53,-162,-63,-69,121
115,108,57,-31,-110,23,-87,14,-101,44
-31,31,55,7,-51,67,24,153,-51,28
17,16,76,33,-35,53,18,92,-114,151
57,-66,-11,-12,-38,33,24,60,-88,276
18,-128,-84,-47,-24,29,74,125,69,340
49,-97,-92,-29,-17,22,116,162,159,364
46,-126,-158,-27,-23,21,125,203,139,297
-26,-148,-75,-8,-10,8,62,171,11,105
-87,-144,-18,22,-13,-6,7,92,-33,-51
-168,-186,-7,26,0,49,53,90,32,-168
-206,-182,1,60,69,153,81,118,159,-265
-159,-143,-46,22,42,147,63,145,165,-210
-100,-112,-187,-64,-28,99,28,156,81,-130
-17,-67,-169,-77,-8,126,97,297,173,4
87,59,-8,-7,59,86,104,221,161,99
175,155,81,74,110,20,-13,-133,-73,138
318,298,156,133,106,-90,-136,-288,-238,266
372,357,183,171,103,-167,-214,-339,-299,368
254,218,165,168,97,-95,-145,-315,-235,391
150,87,58,43,9,-45,-42,-129,-85,438
17,-45,-93,-78,-64,-86,-42,53,-41,336
-134,-171,-145,-108,-98,-137,-85,103,-17,131
-201,-143,-76,-70,-55,-95,-54,129,53,-92
-262,-121,-57,-85,-40,-60,12,211,200,-212
-351,-128,-125,-124,-30,-20,97,289,172,-438
-359,-34,-95,-106,-21,37,101,212,83,-573
-234,75,77,2,-25,2,-28,-84,83,-463
-133,146,185,105,-27,-78,-158,-300,109,-317
-176,4,68,31,-75,-131,-192,-340,-24,-271
-88,-22,-11,-21,-81,-172,-178,-278,-100,-130
59,14,8,-31,-101,-195,-150,-151,-58,100
112,-1,29,-38,-112,-153,-86,7,28,232
140,13,-31,-12,-75,-76,-4,135,37,282
130,0,-6,24,-12,8,58,165,25,224
109,1,15,53,55,66,102,62,36,148
102,103,53,91,120,95,110,-75,-107,20
11,68,1,50,98,116,95,-76,-196,-108
-1,-56,-40,11,18,59,14,-67,-31,35
22,-85,-28,2,-13,3,-70,-20,157,182
-82,-123,-38,-34,-56,-17,-53,41,143,149
-138,-239,-118,-124,-105,-49,-25,150,84,166
-27,-216,-171,-195,-155,-90,-43,151,54,237
100,-85,-210,-165,-131,-85,-51,38,31,188
79,-94,-200,-118,-95,-10,-49,-112,-4,-38
26,-43,-127,-55,-34,106,-9,-321,-125,-278
24,60,-3,26,16,160,-4,-291,-143,-299
18,127,182,119,73,36,-75,-115,-124,-309
-24,113,210,154,111,-31,-62,47,-15,-214
-53,184,189,100,73,-39,-69,29,-99,-166
-14,317,154,57,37,-48,-87,-72,-238,-246
96,352,131,137,108,55,27,-37,-240,-162
144,250,107,189,157,148,117,46,-126,51
164,175,120,167,149,134,93,36,-56,191
157,69,76,105,98,73,-14,-70,-153,179
64,-88,-11,34,45,60,-50,-32,-114,154
-16,-208,-77,-35,-4,53,14,117,-19,162
-17,-192,-88,-53,-51,-10,29,160,38,211
-35,-179,-110,-113,-129,-93,0,95,45,194
-135,-194,-141,-154,-161,-153,5,68,17,57
-141,-172,-88,-125,-147,-193,-56,0,155,8
-96,-99,-42,-88,-86,-133,-49,-1,210,-90
-110,-22,47,-30,-24,10,43,55,187,-256
-66,132,119,46,-19,78,46,-35,95,-264
69,200,140,65,0,64,-19,-118,0,-44
219,146,97,27,-17,53,-45,-58,69,228
179,41,28,-24,-38,29,-36,35,114,238
62,-19,3,-26,-26,7,-90,-84,-33,59
-29,-57,11,4,29,57,-64,-150,-142,-83
-56,-44,-5,-21,45,136,80,51,18,-76
24,113,32,12,82,150,147,124,32,-76
6,175,89,82,115,131,160,134,-90,-190
-109,67,79,67,89,101,205,290,-16,-285
-132,-43,12,23,19,33,206,450,111,-178
-86,-71,-38,-44,-80,-77,130,377,80,-107
-120,-173,-115,-101,-148,-120,90,194,-9,-82
-131,-270,-187,-152,-198,-122,81,115,-105,-15
-30,-234,-184,-137,-160,-140,8,86,-174,55
100,-121,-140,-84,-58,-107,-54,10,-124,178
137,-88,-59,-42,19,-41,-54,-47,-24,286
217,-4,57,43,96,100,30,-6,95,326
381,187,170,88,76,113,-14,-197,89,307
297,211,129,26,8,-20,-131,-285,-12,90
-52,35,41,10,43,-21,-106,-128,-6,-182
-282,-132,-59,23,81,22,-56,-119,-107,-317
-205,-164,-71,20,71,-2,-85,-224,-172,-212
-56,-77,-14,-8,46,-18,-116,-262,-201,-138
80,0,-36,-36,11,33,-40,-84,-107,-4
92,17,-9,-62,-40,-3,-30,90,-54,44
-95,-65,-49,-61,-74,-80,-59,105,-148,-71
-203,-158,-118,-83,-76,-112,-71,41,-183,-77
-152,-155,-65,-49,-4,-61,-51,-85,-150,39
-66,-42,20,22,84,-18,-7,-192,-76,113
34,179,98,90,136,-32,-10,-260,75,87
-35,178,93,122,152,20,-12,-256,47,-128
-106,100,159,185,131,109,34,-182,39,-225
-59,85,241,206,59,97,87,-54,220,-51
-41,-28,102,99,43,123,154,86,183,63
-14,-50,7,18,38,108,112,70,-11,32
7,39,35,27,44,49,-3,-39,-142,-47
75,152,39,36,49,54,9,-5,-174,21
126,88,28,16,-22,36,-9,40,-98,191
201,119,11,-35,-123,-74,-125,-18,-57,287
285,181,-23,-61,-157,-136,-163,-59,59,369
192,72,-22,-22,-94,-64,-74,-17,187,347
49,-48,-10,7,-48,-27,-5,15,279,255
-67,-116,-69,-3,-34,-26,8,7,200,72
-223,-124,-57,-44,-27,42,65,39,104,-225
-265,-26,-83,-70,3,55,149,68,-43,-358
-226,-31,-155,-78,41,66,178,14,-79,-266
-206,-115,-239,-104,-13,40,150,38,-45,-192
-181,-165,-292,-127,-135,-37,125,128,79,-72
-172,-198,-149,-73,-135,-62,105,168,123,-19
-41,-160,-26,-25,-96,-40,76,114,38,19
113,-68,55,22,-48,-66,-25,89,54,146
293,50,160,107,37,-16,-60,125,115,299
391,102,193,120,53,43,-34,187,115,352
308,102,174,84,35,34,-36,166,120,307
223,198,140,32,29,16,-27,90,82,178
90,247,86,10,25,-10,-30,47,-93,-69
-131,81,-6,-33,-4,-55,-57,39,-158,-284
-271,-30,-38,-36,7,-34,-56,67,-62,-383
-269,-27,-35,-2,67,54,5,41,17,-376
-202,-19,-27,6,75,67,14,-68,89,-245
-144,-24,2,-3,-4,-4,-18,-68,108,-26
-92,-26,-40,-41,-93,-51,-12,-48,115,86
-106,-102,-64,-71,-138,-92,-41,-185,-46,-8
-68,-28,-51,-44,-97,-86,-61,-342,-135,-69
-44,14,-90,-37,-46,-47,-12,-308,-190,-112
-57,-45,-137,-39,-23,4,60,-92,-218,-214
-13,-28,-19,-3,21,66,99,62,-162,-234
130,43,82,77,77,104,86,167,-78,-20
220,63,66,123,45,65,33,165,26,167
110,-28,1,86,11,23,-13,103,79,152
30,-75,70,98,65,54,-46,-40,92,160
107,-21,127,157,135,87,-12,-124,130,299
134,10,98,118,103,61,29,-39,129,293
78,67,55,82,75,-2,-8,-49,9,80
-50,73,45,60,63,29,-29,-53,-20,-179
-254,-69,-36,-19,44,90,52,97,-158,-435
-202,-77,-40,-89,-25,39,78,219,-188,-319
-140,-108,-77,-135,-62,-9,95,196,-74,-128
-168,-222,-178,-203,-67,-2,112,64,23,25
-25,-152,-152,-193,-85,-27,74,-54,142,248
120,-29,-82,-133,-84,-55,10,-86,226,358
188,13,-20,-74,-60,-86,-70,-175,186,366
261,82,28,4,0,-91,-117,-260,119,334
280,82,53,46,16,-114,-148,-292,118,340
217,-7,25,22,-12,-118,-132,-246,175,342
96,-80,-42,-5,-10,-92,-93,-140,139,215
-7,-97,-44,24,43,-59,-87,-120,65,-18
-119,-84,88,122,146,25,-36,-51,18,-225
-40,68,194,216,252,128,77,80,8,-226
66,115,81,150,256,134,143,189,4,-75
23,-4,-40,59,198,101,107,191,-16,0
41,-54,-30,66,144,101,76,118,-45,90
25,-101,3,59,75,127,140,170,60,130
-86,-158,-5,-1,-39,66,135,220,86,-17
-301,-205,-41,-52,-121,-58,18,116,-73,-302
-330,6,19,-70,-146,-157,-164,-186,-239,-535
-158,281,161,-33,-106,-182,-276,-407,-383,-609
-72,256,128,-42,-93,-119,-235,-309,-231,-435
-19,163,48,-84,-118,-6,-55,0,75,-216
71,211,-30,-117,-97,17,34,98,23,-93
31,160,-56,-70,-32,13,2,44,-40,-58
-17,91,-59,-53,-1,-2,-42,-5,-46,7
36,117,-96,-62,34,20,12,28,-61,116
115,95,-87,-47,22,21,12,99,22,168
115,42,-58,-11,8,-1,-17,162,58,189
109,6,-61,-17,-11,15,-8,221,48,261
142,16,-48,-25,-21,32,17,203,56,291
165,112,-12,8,-2,28,45,155,84,197
104,128,17,35,-18,-45,56,138,107,67
-54,12,18,37,-8,-37,85,161,96,-85
-151,-53,36,68,71,49,107,129,143,-141
-175,-105,-11,47,73,95,138,116,139,-152
-163,-133,-48,2,6,76,123,49,-13,-205
-118,-113,-3,7,-34,4,30,-61,-95,-187
-73,-89,14,-13,-109,-71,-31,-110,-127,-97
-52,-104,-14,-13,-96,-52,28,-36,-120,76
107,-5,69,48,-22,-27,0,-124,-70,366
231,84,86,56,42,24,-33,-224,29,540
252,152,34,-7,19,31,-99,-294,18,471
200,162,-13,-59,-3,-5,-105,-179,-58,375
70,57,-86,-114,-33,-39,-67,129,-23,275
-115,-96,-162,-150,-59,-29,0,426,-38,12
-254,-105,-137,-102,-6,66,134,569,-67,-323
-333,-49,-42,-20,-2,54,118,473,-76,-557
-210,31,70,54,-16,18,59,212,-11,-521
-18,116,101,70,14,2,6,-132,-43,-474
115,175,138,92,51,-3,-71,-533,-133,-410
209,185,173,113,54,-9,-112,-788,-168,-166
200,109,31,70,13,-39,-87,-636,-144,63
56,-37,-71,-29,-47,-41,12,-245,-7,85
-57,-148,-114,-76,-71,-65,31,-91,52,72
-164,-167,-153,-60,9,-69,22,-92,38,-5
-196,-132,-71,-15,27,2,86,85,53,-113
-162,-49,9,46,-20,76,177,307,93,-172
-174,-57,-63,73,20,88,149,301,116,-171
-198,-105,13,92,92,73,-2,72,52,-184
-103,8,118,146,166,136,-45,-62,106,-101
5,58,106,119,138,173,6,-61,115,34
102,70,21,25,46,73,-7,-43,53,164
215,100,27,-23,-32,-35,-91,-101,-66,241
251,118,1,-91,-106,-69,-128,-108,-135,259
238,85,-63,-138,-132,-127,-177,-116,-130,319
229,2,-37,-113,-116,-191,-234,-117,-147,364
144,-95,-76,-101,-51,-153,-157,-33,-52,307
10,-188,-149,-129,-37,-122,-124,18,66,203
-160,-236,-149,-125,-45,-110,-148,-34,-4,-7
-279,-253,-112,-91,-93,-72,-113,-39,-10,-176
-224,-181,-131,-35,-147,-86,-44,-19,6,-158
-67,-79,-69,11,-52,-38,-24,-30,-61,-66
37,35,100,82,117,89,10,0,-104,-134
14,67,160,125,185,167,54,28,-134,-256
29,135,198,113,137,120,67,22,-124,-252
30,146,171,76,107,104,81,79,-73,-180
-11,54,28,40,86,90,81,155,-23,-137
-46,-6,48,44,69,56,52,132,0,-115
-9,-34,101,95,63,32,27,98,29,33
33,-65,60,94,7,-22,16,92,85,138
13,-104,-67,28,-72,-105,-9,20,19,141
-11,-156,-63,-24,-87,-105,10,62,-21,94
-97,-207,-59,-72,-79,-82,8,126,-99,-87
-126,-186,-56,-112,-56,-35,-13,127,-75,-222
-133,-146,-40,-63,3,73,54,110,24,-257
-150,-129,-83,-103,-90,130,129,50,169,-226
-38,-70,-138,-189,-187,38,91,-28,226,-57
106,49,-46,-173,-215,-78,-46,-111,203,90
91,31,-16,-135,-169,-110,-103,-126,248,224
100,51,41,-62,-100,-97,-116,-126,149,311
197,163,75,-2,-46,-72,-33,-1,166,442
183,153,75,9,8,-2,89,154,202,423
221,197,36,15,34,57,127,220,185,328
271,201,36,42,64,89,102,244,167,312
220,123,73,43,81,77,48,250,117,200
130,21,47,5,42,23,-32,221,28,39
-28,-63,26,23,36,-6,-41,64,-125,-260
-167,-94,59,89,71,69,2,-130,-212,-466
-165,-29,88,102,71,98,23,-242,-211,-418
-159,-15,52,88,9,35,12,-279,-174,-375
-148,-1,75,70,-19,-13,-27,-228,-94,-256
-88,-3,59,13,-77,-119,-154,-307,-97,-89
-145,-141,-77,-92,-153,-221,-219,-232,-179,-86
-260,-254,-175,-141,-137,-184,-88,113,-148,-185
-291,-272,-174,-113,-46,-57,12,311,-53,-192
-199,-205,-143,-114,9,72,94,397,13,-101
26,-8,-46,-104,-42,92,73,357,92,27
181,121,-2,-70,-95,45,7,218,128,107
206,122,54,15,-4,49,-12,17,32,165
200,70,103,108,110,106,-23,-240,-53,290
176,24,73,86,123,94,-82,-314,-21,366
253,76,122,110,127,65,-99,-272,117,448
294,127,113,122,102,38,-92,-275,151,485
260,174,47,85,20,-19,-60,-210,63,299
174,180,124,51,-47,-54,-25,-163,9,129
32,127,85,-6,-97,-67,8,-53,2,-54
-124,-1,-40,-101,-133,-78,53,100,-4,-178
-157,-105,-133,-196,-176,-126,10,48,-46,-219
-145,-62,-109,-163,-130,-103,-50,-116,6,-239
-127,-32,-146,-76,-37,-30,4,-76,100,-111
-130,-99,-185,-59,-14,17,49,38,-42,-21
-96,-123,-146,-36,-5,86,76,126,-64,38
-4,-83,-45,0,10,114,77,172,10,128
110,-11,-2,-27,-18,37,24,156,105,232
182,86,55,-1,-40,-59,-36,95,129,209
194,134,141,104,48,-29,-73,-100,71,132
276,175,206,183,107,0,-120,-334,83,216
170,103,190,190,142,-42,-162,-384,-41,114
-37,-10,132,147,189,-17,-81,-175,-47,-89
-164,-60,53,79,135,82,89,86,35,-250
-316,-81,40,31,33,107,213,287,74,-415
-311,-22,26,-14,-25,93,200,248,41,-375
-145,44,23,-3,37,132,142,71,23,-154
-130,-66,-45,-13,65,123,107,-29,1,-50
-131,-150,-86,-32,26,64,25,-92,-79,-54
-17,-92,-58,28,46,58,17,-93,-82,1
40,-74,-97,33,24,79,62,68,23,143
1,-171,-134,-70,-53,39,96,227,92,291
134,-40,-44,-43,-37,-32,25,293,139,407
183,102,36,8,-7,-62,-69,265,130,286
75,64,11,-43,-53,-68,-44,222,46,-63
-23,18,2,-62,-37,-42,-6,50,-52,-367
47,145,89,1,20,-7,-55,-266,-162,-404
161,267,167,41,25,-42,-190,-495,-169,-212
116,205,151,44,23,-73,-227,-424,-181,-139
183,155,73,16,8,-63,-164,-203,-144,-43
287,165,-7,30,1,-34,-113,-81,-30,117
265,129,29,15,-24,-27,-90,-65,96,281
152,-6,-24,-54,-48,-47,-101,-100,81,253
40,-57,-125,-103,-62,-100,-117,-194,-50,66
-54,-87,-188,-128,-108,-107,-39,-101,-44,-78
-301,-205,-157,-154,-134,-40,144,236,54,-307
-480,-149,-109,-126,-91,6,213,369,53,-534
-379,-33,-28,-61,-29,3,156,327,38,-395
-229,-24,22,1,37,52,166,299,67,-228
-218,-88,-63,24,104,145,264,376,137,-217
-228,-145,-127,4,128,163,283,413,159,-171
-56,-44,39,96,189,128,97,70,69,29
133,80,168,191,215,88,-62,-200,38,269
154,71,158,163,163,51,-73,-109,9,327
132,76,138,118,103,9,-78,-94,-16,309
88,65,77,84,48,-35,-124,-195,-2,306
-2,-49,3,10,-17,-53,-102,-206,-84,263
-18,-81,-56,-43,-65,-44,-52,-185,-192,131
67,-107,-68,-21,-39,-27,-50,-167,-171,111
92,-164,-89,-34,-16,-1,-25,-122,-66,149
78,-177,-137,-102,-52,6,76,11,54,163
81,-111,-158,-163,-120,-39,104,77,48,97
135,63,-80,-155,-177,-99,20,40,108,68
160,141,18,-76,-143,-118,-29,-1,138,117
124,122,42,-33,-111,-131,-88,-101,40,120
46,78,4,-38,-129,-142,-115,-85,-29,42
-16,56,73,73,-19,-84,-101,-61,-39,-134
-98,71,159,176,89,-9,-59,-47,-14,-342
-212,118,186,215,159,80,2,-62,-48,-527
-106,231,199,187,173,128,31,-109,22,-410
27,249,177,129,125,107,44,-91,28,-161
-80,74,11,73,73,88,80,45,-28,-92
-106,27,-71,29,49,34,40,43,-43,-44
-32,83,16,-32,-12,-2,49,85,-43,-29
-72,9,-28,-82,-38,-7,78,161,-39,-55
-81,-84,-83,-86,-43,-35,45,144,-13,-43
-40,-66,-51,-39,-22,-45,11,61,-32,-32
-35,-53,-50,-60,-64,-73,9,1,-8,10
-83,-131,-111,-126,-132,-104,0,-48,-23,16
-110,-174,-124,-130,-125,-90,-12,-85,-40,52
-95,-151,-96,-114,-112,-99,-29,-105,-79,24
-85,-114,-92,-91,-127,-149,-96,-105,-119,-85
-68,-133,-83,-61,-100,-124,-131,-83,-111,-79
-22,-125,-36,-13,1,-27,-76,18,73,52
-5,-91,-10,56,108,51,-21,60,181,113
79,-51,32,90,186,122,-8,-22,148,218
151,-39,70,146,225,199,29,-73,114,378
110,-85,-25,150,159,157,25,-79,37,325
58,-53,-51,100,64,-6,-105,-115,-67,124
3,31,-14,30,-9,-112,-166,-64,-96,-3
-6,65,56,-20,-32,-105,-90,135,20,40
103,106,81,6,36,4,-17,235,108,200
312,226,74,45,64,89,68,291,210,430
336,214,30,-58,-68,-4,101,309,257,447
163,27,-81,-162,-134,-73,77,241,167,292
45,-56,-103,-136,-77,-70,30,176,-1,67
32,2,-30,-48,0,-85,-50,26,-210,-74
81,88,59,30,64,-21,-50,-178,-226,-2
14,52,53,24,19,41,12,-231,-180,-25
-102,26,32,12,26,61,11,-232,-176,-240
-227,23,32,29,74,97,28,-169,-166,-402
-282,-36,0,-5,66,138,75,11,-65,-292
-312,-81,-17,-5,94,189,87,139,91,-211
-195,28,54,65,150,176,21,60,179,-108
-137,108,147,145,185,96,-93,-200,25,-129
-162,66,137,140,211,117,-15,-202,-127,-254
-119,39,85,94,118,129,156,92,-70,-274
-32,20,63,49,-88,9,188,267,-4,-138
-76,-110,-42,-42,-119,-70,57,192,-90,-81
-105,-156,-90,-49,-28,-37,40,211,-107,-78
-89,-139,-115,-89,-20,29,155,362,-35,-57
-44,-137,-166,-119,-17,56,205,350,79,85
89,-53,-113,-91,-22,0,145,186,144,297
223,55,-13,-40,-33,-66,24,-49,196,445
331,156,57,3,-62,-116,-86,-281,261,490
286,134,34,-66,-141,-161,-161,-331,98,286
256,156,79,-49,-137,-210,-282,-357,71,142
82,145,133,63,-18,-157,-315,-378,55,-106
-129,8,42,54,51,-18,-114,-135,-59,-359
-157,-39,-11,17,61,56,34,37,-106,-398
-19,48,17,11,43,45,41,24,-95,-150
50,53,21,22,61,72,75,5,-32,184
66,48,42,44,53,66,72,41,39,263
126,38,41,50,34,63,65,31,30,206
152,-33,-10,8,21,63,79,18,-13,161
125,-111,-65,-34,-8,59,89,121,8,183
101,-155,-116,-64,-40,28,48,186,116,223
61,-154,-137,-114,-110,-88,-59,49,162,156
-28,-99,-120,-130,-179,-215,-156,-204,-10,-84
-96,8,-32,-25,-139,-255,-208,-378,-191,-328
-269,-68,-80,34,-65,-263,-243,-350,-281,-571
-383,-94,-27,37,12,-203,-217,-244,-236,-662
-287,-25,52,53,98,-1,-54,-68,-133,-464
-111,68,122,95,143,182,94,114,-61,-275
-75,131,109,151,101,104,111,211,4,-239
-148,73,5,165,121,36,87,242,46,-164
-65,115,76,143,131,49,67,217,46,-41
41,151,118,87,91,33,35,169,47,31
106,110,38,41,45,70,24,133,61,138
178,138,89,56,35,61,-10,126,83,259
222,135,80,58,24,7,-77,65,78,351
223,59,-13,46,13,-33,-107,-21,96,350
140,-30,-47,-14,-16,-42,-58,-19,94,255
49,-80,-53,-36,-23,-17,-3,6,110,171
-5,-88,-29,11,16,16,14,-9,62,71
-73,-120,-45,10,48,58,85,56,-25,-60
-166,-144,-71,8,53,79,152,157,7,-210
-234,-144,-87,45,67,78,180,165,34,-318
-198,-116,-33,84,101,89,152,56,10,-239
-152,-121,0,88,76,48,84,-33,-15,-76
-56,-12,27,60,39,8,28,-37,-11,13
81,120,55,48,54,32,37,-27,6,88
89,107,5,0,24,20,90,146,-56,17
65,57,-43,-24,2,-10,38,178,-163,-83
152,164,2,13,8,-40,-88,-25,-179,-32
198,221,68,-3,-10,-32,-129,-114,-168,38
147,178,63,-30,-38,-8,-107,-87,-88,52
41,49,10,-79,-78,-25,-126,-136,-22,11
14,-5,-18,-72,-73,-49,-157,-288,13,38
5,-92,-97,-74,-67,-51,-110,-292,13,128
-9,-184,-197,-175,-128,-84,-115,-201,-37,233
19,-136,-227,-241,-210,-126,-93,-39,29,354
57,-74,-271,-252,-229,-125,-30,146,145,430
92,-28,-219,-219,-212,-121,6,214,151,454
187,15,-137,-159,-161,-167,-55,73,90,511
297,57,-68,-136,-148,-229,-138,-109,0,395
260,25,-100,-122,-98,-184,-77,-114,-77,110
128,-85,-129,-109,-37,-87,9,38,-103,-72
71,-97,-74,-68,28,10,61,168,-100,-59
48,1,72,77,126,163,147,284,-45,4
33,107,199,195,136,243,191,232,-72,-49
-162,62,169,168,105,216,207,137,-3,-392
-348,14,104,118,97,252,249,73,71,-610
-250,40,116,70,40,223,183,-52,44,-372
-114,85,63,45,39,132,46,-143,8,-96
-38,55,-92,25,24,20,-61,-104,85,84
-25,-5,-132,-6,-37,-44,-86,-24,153,120
-168,-94,-62,-30,-61,-19,20,60,129,-88
-248,-183,-65,-52,-74,-7,63,-8,95,-262
-137,-103,6,9,-57,-84,-49,-172,50,-238
-87,-12,89,81,-10,-72,-72,-179,59,-183
2,43,122,98,82,8,-27,-132,102,24
125,107,139,85,82,54,54,-36,80,151
104,129,98,75,30,76,102,51,-57,-3
-28,77,33,82,59,102,163,151,-70,-120
-173,-13,63,108,110,148,210,337,4,-191
-103,-17,92,115,117,132,186,507,88,-180
-33,-55,46,69,63,84,130,534,111,-145
-31,-77,5,27,39,36,56,390,114,-148
118,58,112,109,89,9,-42,24,70,-16
218,130,134,87,58,-39,-119,-307,-54,68
42,17,14,-10,10,-25,-66,-397,-177,-47
-123,-78,-24,-12,19,23,-30,-336,-189,-61
-91,-111,-19,14,36,52,-42,-292,-135,124
64,-94,-27,-9,18,49,19,-147,-18,356
159,-54,-51,-72,-49,-16,9,-57,63,462
141,-44,-84,-103,-61,-31,17,75,106,390
116,21,-106,-100,-59,-29,9,85,67,248
56,23,-53,-122,-109,-54,-79,-96,-112,44
-63,-74,-42,-117,-103,-62,-117,-112,-229,-89
-155,-142,-83,-95,-51,-74,-126,-51,-226,-167
-120,-172,-119,-78,-32,-118,-123,93,-155,-138
83,-89,-44,-32,-36,-153,-179,59,-77,7
324,71,58,-6,-35,-140,-232,-111,-11,318
442,227,126,24,-34,-151,-250,-192,110,555
436,313,97,-20,-73,-192,-227,-157,100,457
292,207,40,-26,-61,-163,-173,-56,-10,255
8,5,-4,23,33,-34,-63,-43,-98,35
-197,-127,-47,59,105,121,119,9,-31,-106
-276,-128,-21,54,99,119,213,62,73,-281
-477,-187,-9,9,35,43,176,45,-44,-694
-534,-230,-4,14,23,20,101,-29,-89,-844
-336,-102,54,74,28,-10,-1,-120,1,-506
-109,96,45,9,-29,-64,-47,-119,67,-220
9,244,24,-62,-71,-63,-10,-89,7,-185
29,183,-13,-58,-31,-8,4,-94,-112,-164
67,137,4,-24,12,10,32,-16,-100,-46
25,100,57,56,69,33,56,71,-118,-55
-71,-16,52,96,106,50,92,117,-112,-102
-81,-58,25,95,116,73,113,164,-22,-14
-13,-75,0,54,70,63,115,263,122,114
85,-28,28,73,97,77,68,217,243,183
144,-1,0,69,111,125,77,171,168,246
139,0,20,62,79,88,91,262,138,293
118,17,54,69,64,40,39,199,166,248
139,53,3,59,51,-10,-45,-2,120,161
95,34,-23,21,6,-69,-59,-160,40,11
19,-1,-47,-41,-89,-145,-129,-340,-4,-87
2,49,-31,-73,-162,-184,-187,-381,-89,-116
3,107,1,-84,-192,-129,-120,-151,-92,-75
-37,63,-54,-204,-260,-74,-50,102,-62,52
-61,-26,-147,-254,-247,-44,-32,106,-12,189
-11,-37,-130,-151,-91,1,-61,-52,-52,171
26,-6,-49,-58,30,12,-100,-210,-137,34
97,64,40,25,41,-43,-126,-283,-133,9
130,76,60,48,52,-58,-106,-225,-107,-19
58,21,-54,28,87,3,-82,-116,-76,-48
16,-1,-68,32,4,33,-11,21,56,87
80,12,52,44,-71,59,56,121,197,372
123,-40,-95,-35,-113,41,53,120,231,628
135,-167,-259,-140,-130,-16,44,136,168,714
186,-186,-169,-152,-104,-64,36,147,30,615
229,-108,-66,-75,-39,-60,-22,82,-78,419
226,-28,-11,-40,-37,-84,-105,8,-89,163
118,-17,-5,-53,-116,-107,-93,45,47,-97
-54,-20,71,21,-67,-84,-54,-37,48,-430
-172,23,149,112,49,4,1,-162,-16,-625
-375,4,170,165,112,133,145,-131,-120,-873
-396,58,181,180,69,181,251,47,-139,-925
-344,42,158,168,110,227,321,171,-65,-740
-334,-48,92,134,145,243,287,150,-41,-526
-185,-46,77,109,129,193,204,254,132,-177
-1,31,103,103,141,152,127,306,274,122
130,67,96,88,99,89,46,222,267,274
129,34,64,55,29,0,-25,45,121,248
80,35,41,1,-31,-59,-23,-17,-4,162
20,10,28,-20,-32,-79,-33,-58,-121,92
13,-14,31,-10,7,-53,-25,-72,-216,51
-15,-37,18,-29,-11,19,74,171,-169,0
-94,-69,-38,-60,-80,44,127,278,-124,-114
-231,-92,-63,-92,-106,-28,31,38,-170,-291
-349,-200,-116,-131,-110,-103,-54,-62,-103,-305
-368,-203,-220,-204,-143,-132,-74,47,-99,-305
-202,-10,-227,-207,-109,-98,-49,74,-56,-192
15,100,-69,-58,48,37,27,-41,91,50
159,188,75,88,142,136,69,-184,54,163
222,263,177,148,177,137,45,-209,11,186
233,231,182,115,100,-18,-74,-134,36,170
278,198,167,80,8,-148,-195,-131,78,248
268,112,120,59,-26,-137,-225,-171,116,370
245,-1,57,45,-19,-61,-168,-133,165,457
219,6,48,47,-10,-45,-99,-52,112,378
116,16,18,16,9,-37,-76,24,67,180
30,0,-23,-40,-18,-33,-94,-1,23,75
12,-12,-31,-40,-47,0,-52,-2,116,157
70,14,10,29,9,17,-9,1,178,365
114,29,40,64,41,-31,-64,-142,75,374
77,-26,-19,26,39,-68,-110,-253,-29,236
72,-95,-5,3,24,-15,-53,-134,-10,138
79,-94,30,6,-44,-14,-5,-37,4,23
11,-49,30,-44,-123,-53,-22,21,-57,-150
-138,-19,-18,-83,-106,-16,12,128,-121,-418
-330,-95,-108,-94,-47,82,118,245,-91,-560
-244,-65,-95,-46,23,135,173,243,4,-333
-63,66,-34,18,87,136,151,91,55,-132
32,192,23,54,99,123,78,-110,-28,-86
20,162,42,95,154,120,63,-156,-120,22
-63,-63,-99,58,120,103,62,-78,-102,71
-140,-148,-175,48,65,50,-39,-79,-103,38
-85,-29,-53,53,44,-7,-155,-113,-136,-17
-14,74,53,24,13,-18,-143,-91,-165,-101
54,140,102,35,-18,17,-49,-66,-58,-63
90,138,99,49,-14,21,-8,-93,59,53
4,-12,1,-18,-42,-51,-6,6,77,67
-27,-56,-26,-100,-117,-131,-10,85,60,11
-66,-81,-87,-174,-192,-137,-19,73,28,-96
-154,-136,-128,-159,-159,-65,24,77,15,-163
-107,-94,-120,-102,-101,0,34,81,45,-12
23,-16,-128,-39,-57,5,-7,53,67,203
54,4,-25,-11,-20,2,-1,21,45,169
60,21,48,11,19,16,-3,4,-19,39
24,28,65,41,64,3,-31,51,-56,-54
0,4,84,50,58,-19,-53,116,-81,-86
-69,-18,80,58,75,12,-8,163,-57,-106
-113,-25,95,118,113,65,55,188,-40,-153
-107,-39,104,146,160,135,74,88,-103,-189
-41,-4,70,81,132,144,79,-43,-111,-108
90,98,40,34,41,55,13,-136,-44,66
178,133,95,25,-20,-25,-114,-199,-35,225
200,128,84,9,-40,-69,-157,-161,-29,254
-17,-53,-110,-132,-126,-59,-23,90,97,74
-186,-185,-265,-209,-176,-104,19,212,155,-112
-177,-193,-206,-174,-148,-120,-40,65,17,-223
-157,-222,-179,-172,-96,-35,-18,42,78,-179
-171,-212,-168,-160,-41,36,61,161,121,-137
-168,-209,-162,-134,11,121,153,315,99,-48
-63,-164,-141,-99,5,189,231,381,89,41
32,-91,-33,-9,-17,193,293,317,-1,5
54,-34,30,41,17,113,295,225,-114,-95
-36,-111,-2,24,74,96,265,250,-207,-200
-95,-160,13,69,139,96,228,311,-162,-211
33,12,140,179,173,61,88,147,-49,-42
199,229,230,202,157,0,-42,21,-16,165
288,306,244,174,126,-51,-170,-147,139,294
351,312,222,160,26,-113,-238,-244,346,441
271,246,127,62,-62,-146,-157,-154,206,347
73,129,50,-22,-84,-113,-55,-133,70,71
-23,83,42,-15,-83,-136,-141,-386,-44,-99
-25,43,52,0,-73,-142,-211,-490,-157,-166
-28,-14,56,35,-23,-92,-172,-478,-161,-183
6,-15,66,56,-7,-66,-175,-399,-123,-184
40,-2,70,50,-12,-75,-184,-311,-114,-167
126,66,34,-7,-48,-91,-129,-174,-37,-46
179,32,-62,-87,-85,-58,-45,-55,13,48
196,7,-80,-105,-71,-38,-50,-53,-37,69
150,13,-58,-100,-11,-16,-35,8,-71,9
49,-30,-39,-57,20,69,18,102,-90,-94
-81,-15,-15,-21,-45,117,88,132,-143,-225
-233,29,-66,-37,-64,78,125,152,-135,-282
-300,-22,-61,-9,-5,76,160,234,25,-94
-250,-52,29,46,43,40,114,314,166,56
-191,-48,47,74,49,-7,66,254,165,32
-131,-34,-7,78,52,-3,24,9,149,65
9,20,14,78,39,-25,-66,-247,172,231
7,-52,11,10,-5,-51,-82,-243,129,245
-47,-126,-67,-69,-26,-33,-49,-170,6,135
-18,-109,-74,-99,-22,-2,-16,-156,-82,132
41,-61,-58,-76,-24,14,-10,-144,-105,205
75,27,11,-17,9,63,45,-24,-68,229
35,4,2,5,26,99,122,124,-6,204
-77,-71,-59,-45,4,85,106,202,-28,41
-95,-40,-74,-79,-33,24,74,363,34,-83
-29,21,-24,-49,-24,10,68,471,94,-45
10,5,8,17,67,92,109,403,65,3
7,-4,37,128,172,181,161,272,142,18
21,-33,28,115,132,134,97,51,102,74
100,15,47,47,30,-55,-111,-223,-56,168
204,110,65,-17,-95,-245,-329,-370,-119,228
181,181,20,-17,-100,-282,-360,-291,-78,101
-16,164,-55,-5,-50,-179,-268,-145,6,-173
-235,-17,-87,-41,-30,-41,-69,8,33,-421
-311,-144,-61,-27,15,98,104,-9,59,-414
-292,-205,-90,-64,16,127,164,-68,-1,-286
-212,-201,-83,-90,11,71,146,32,-51,-116
-46,-117,18,-11,88,69,92,54,18,102
55,-84,49,21,105,42,71,42,46,196
51,-91,29,-17,68,-7,23,-17,-28,164
129,-3,57,-32,-15,-50,-3,-38,-33,220
245,190,121,-45,-180,-145,-23,-17,-3,317
208,232,76,-72,-257,-204,-49,14,-55,279
12,81,-15,-64,-214,-225,-102,-4,-201,20
-110,-8,-9,19,-77,-198,-106,3,-285,-322
-116,-63,40,87,104,-80,-31,67,-224,-403
-31,-19,115,130,235,96,106,227,-116,-316
180,144,235,169,210,254,215,256,96,-93
159,98,146,67,44,203,175,119,251,-44
-61,-70,16,-26,-28,83,118,-8,186,-140
-142,-95,3,-16,-25,37,64,-167,138,-172
-63,12,-7,32,0,10,-25,-243,97,-93
-71,-37,-90,17,-10,4,-9,-135,91,-83
-153,-151,-233,-105,-93,-18,90,48,58,-185
-126,-108,-160,-150,-102,-41,90,77,-54,-190
-92,-72,-69,-107,-28,-43,10,2,-131,-154
-27,44,-26,-64,29,-45,-66,-6,-126,-99
116,236,138,26,74,34,-111,-82,-93,24
130,240,214,106,109,93,-83,-191,-97,96
76,102,140,94,138,106,-8,-165,10,95
208,139,89,66,83,6,-42,-127,79,225
344,222,117,42,11,-61,-96,-119,44,376
289,148,107,20,2,-61,-67,-61,47,412
181,30,44,3,-2,-49,-23,-1,80,389
86,-25,1,-11,-27,-30,50,122,146,301
-53,-54,-28,-33,-32,-7,101,136,95,21
-156,-107,-54,-63,-50,-8,67,36,39,-189
-192,-150,-81,-84,-57,-18,42,6,71,-164
-101,-99,-62,-62,-59,-72,4,17,134,-8
-133,-119,-90,-31,-2,-45,-3,52,102,-62
-269,-229,-137,-68,6,-3,38,134,-4,-220
-303,-308,-185,-97,30,41,93,228,-128,-265
-254,-276,-230,-79,52,77,104,230,-210,-289
-113,-124,-136,-10,79,126,96,144,-148,-207
80,76,54,67,83,160,122,106,-42,-44
262,226,167,84,69,145,50,20,122,158
337,250,219,89,53,-11,-164,-283,182,278
269,197,192,94,41,-144,-308,-475,10,200
110,98,117,80,30,-102,-243,-403,-109,57
-82,-32,15,54,31,-45,-112,-186,-116,-85
-155,-129,-89,44,37,-72,-76,-138,-117,-159
-139,-152,-66,53,74,-31,-90,-201,-134,-51
-79,-129,-27,4,52,-10,-68,-145,-98,61
-5,-39,-26,-48,-19,-3,-9,-31,-10,51
104,171,42,-33,-53,0,46,22,101,102
105,163,-88,-72,-82,-20,48,-40,102,193
67,77,-143,-119,-144,-123,-61,-113,58,156
139,130,8,-103,-187,-156,-121,-73,60,89
72,69,50,-91,-169,-101,-59,33,22,-9
-60,-40,-12,-97,-104,-80,5,99,-73,-80
26,11,-17,-57,-43,-69,-14,31,-154,48
99,46,6,-24,-6,-38,-45,-50,-196,101
-36,-49,22,32,57,39,-3,-50,-268,-87
-216,-168,9,117,174,204,164,135,-244,-299
-155,-142,48,158,225,236,247,275,-91,-208
0,-4,125,182,190,83,192,216,29,-53
0,32,82,138,123,-13,79,85,88,-44
-11,51,3,45,82,11,11,10,83,-67
-24,49,-67,-12,54,26,-8,-33,121,-78
-71,-32,-99,-74,-15,35,-6,-15,186,-41
-93,-79,-45,-146,-165,8,-14,-65,132,25
-48,-18,-38,-174,-269,-45,2,1,92,102
109,40,3,-111,-205,-118,12,150,92,253
186,-52,-39,-94,-165,-124,33,297,88,365
167,-94,-47,-76,-124,-94,76,370,158,331
180,-2,39,-5,-55,-33,40,131,181,245
112,10,45,2,-24,23,36,-88,153,106
12,-14,31,22,16,39,13,-194,30,-33
-30,34,116,111,112,81,16,-154,-24,-102
-68,128,198,177,165,123,51,-54,27,-151
-43,155,159,120,124,110,24,-57,74,23
-37,57,99,93,102,87,29,-26,121,120
-17,21,77,75,69,53,54,16,79,83
63,80,72,42,15,-19,-47,-107,-42,2
33,76,18,-9,-11,-35,-88,-150,-127,-179
-77,-21,-67,-43,-11,23,36,23,-117,-330
-115,-78,-155,-40,-27,35,84,100,-130,-317
-91,-60,-118,-53,-58,16,81,110,-132,-220
7,-18,-95,-89,-83,-8,94,146,-60,-19
