(0.0358886719, 0.0548706055, 0.997680664, -0.0159912109)
(0.03491211, 0.0593261719, 0.997497559, -0.0160522461)
(0.0333251953, 0.0701293945, 0.9968262, -0.0158081055)
(0.0333251953, 0.0701293945, 0.9968262, -0.0158081055)
(0.030456543, 0.08880615, 0.995422363, -0.0150756836)
(0.030456543, 0.08880615, 0.995422363, -0.0150756836)
(0.025390625, 0.113647461, 0.993042, -0.0140991211)
(0.025390625, 0.113647461, 0.993042, -0.0140991211)
(0.01763916, 0.144470215, 0.9891968, -0.0139160156)
(0.01763916, 0.144470215, 0.9891968, -0.0139160156)
(0.00958251953, 0.179199219, 0.9836426, -0.0143432617)
(0.00207519531, 0.21496582, 0.9764404, -0.0169677734)
(0.00207519531, 0.21496582, 0.9764404, -0.0169677734)
(-0.00244140625, 0.242858887, 0.969848633, -0.01977539)
(-0.00244140625, 0.242858887, 0.969848633, -0.01977539)
(-0.00482177734, 0.260192871, 0.965271, -0.021484375)
(-0.00482177734, 0.260192871, 0.965271, -0.021484375)
(-0.00598144531, 0.271484375, 0.962097168, -0.0224609375)
(-0.007019043, 0.281677246, 0.9591675, -0.0232543945)
(-0.007019043, 0.281677246, 0.9591675, -0.0232543945)
(-0.0078125, 0.291564941, 0.956176758, -0.02331543)
(-0.0078125, 0.291564941, 0.956176758, -0.02331543)
(-0.00720214844, 0.298339844, 0.954101563, -0.0231323242)
(-0.00720214844, 0.298339844, 0.954101563, -0.0231323242)
(-0.005493164, 0.304138184, 0.9522705, -0.0229492188)
(-0.005493164, 0.304138184, 0.9522705, -0.0229492188)
(-0.00341796875, 0.3093872, 0.950622559, -0.022644043)
(-0.00048828125, 0.3133545, 0.9493408, -0.0230712891)
(-0.00048828125, 0.3133545, 0.9493408, -0.0230712891)
(0.00280761719, 0.316772461, 0.948181152, -0.0241699219)
(0.00280761719, 0.316772461, 0.948181152, -0.0241699219)
(0.00640869141, 0.3199463, 0.9470215, -0.02545166)
(0.00640869141, 0.3199463, 0.9470215, -0.02545166)
(0.009765625, 0.3225708, 0.9460449, -0.0266113281)
(0.0126342773, 0.3248291, 0.945251465, -0.0272827148)
(0.0126342773, 0.3248291, 0.945251465, -0.0272827148)
(0.0150146484, 0.3267212, 0.9445801, -0.02758789)
(0.0150146484, 0.3267212, 0.9445801, -0.02758789)
(0.01727295, 0.3287964, 0.9437866, -0.0274047852)
(0.0191650391, 0.330688477, 0.943115234, -0.0267944336)
(0.0191650391, 0.330688477, 0.943115234, -0.0267944336)
(0.0191650391, 0.330688477, 0.943115234, -0.0267944336)
(0.0191650391, 0.330688477, 0.943115234, -0.0267944336)
(0.020324707, 0.3324585, 0.9425049, -0.0258789063)
(0.0208129883, 0.333251953, 0.942260742, -0.0246582031)
(0.0211792, 0.334411621, 0.941894531, -0.0229492188)
(0.0211792, 0.334411621, 0.941894531, -0.0229492188)
(0.0211792, 0.334411621, 0.941894531, -0.0229492188)
(0.0219116211, 0.335632324, 0.9414673, -0.0211792)
(0.0219116211, 0.335632324, 0.9414673, -0.0211792)
(0.0225830078, 0.3373413, 0.940856934, -0.0193481445)
(0.0225830078, 0.3373413, 0.940856934, -0.0193481445)
(0.0228271484, 0.3392334, 0.940185547, -0.0174560547)
(0.0228881836, 0.3404541, 0.939819336, -0.01550293)
(0.0228881836, 0.3404541, 0.939819336, -0.01550293)
(0.0230102539, 0.342041016, 0.93927, -0.0139160156)
(0.02331543, 0.343322754, 0.938781738, -0.0126953125)
(0.02331543, 0.343322754, 0.938781738, -0.0126953125)
(0.0233764648, 0.344238281, 0.938476563, -0.0116577148)
(0.0233764648, 0.344238281, 0.938476563, -0.0116577148)
(0.0229492188, 0.345214844, 0.938110352, -0.010559082)
(0.0229492188, 0.345214844, 0.938110352, -0.010559082)
(0.0223388672, 0.346618652, 0.9376831, -0.009521484)
(0.0223388672, 0.346618652, 0.9376831, -0.009521484)
(0.0219726563, 0.3480835, 0.9371338, -0.008605957)
(0.0220336914, 0.348938, 0.9368286, -0.0078125)
(0.0220336914, 0.348938, 0.9368286, -0.0078125)
(0.0220336914, 0.348938, 0.9368286, -0.0078125)
(0.0220947266, 0.3496704, 0.936523438, -0.007019043)
(0.0225219727, 0.350646973, 0.9361572, -0.00640869141)
(0.0225219727, 0.350646973, 0.9361572, -0.00640869141)
(0.0225219727, 0.350646973, 0.9361572, -0.00640869141)
(0.0231323242, 0.3519287, 0.935668945, -0.00604248047)
(0.0241699219, 0.3526001, 0.9354248, -0.00610351563)
(0.0251464844, 0.3526001, 0.93536377, -0.00640869141)
(0.0251464844, 0.3526001, 0.93536377, -0.00640869141)
(0.0263671875, 0.3529663, 0.935180664, -0.006713867)
(0.0263671875, 0.3529663, 0.935180664, -0.006713867)
(0.0277709961, 0.354370117, 0.934631348, -0.007019043)
(0.0277709961, 0.354370117, 0.934631348, -0.007019043)
(0.0289917, 0.3557129, 0.934082031, -0.00714111328)
(0.0289917, 0.3557129, 0.934082031, -0.00714111328)
(0.0295410156, 0.356567383, 0.9337158, -0.00732421875)
(0.0299072266, 0.35723877, 0.9334717, -0.0078125)
(0.0299072266, 0.35723877, 0.9334717, -0.0078125)
(0.030090332, 0.357910156, 0.9331665, -0.008361816)
(0.030090332, 0.357910156, 0.9331665, -0.008361816)
(0.030090332, 0.359375, 0.9326172, -0.009094238)
(0.030090332, 0.359375, 0.9326172, -0.009094238)
(0.0299682617, 0.3602295, 0.932251, -0.0100708008)
(0.0297851563, 0.361083984, 0.9319458, -0.0113525391)
(0.0297851563, 0.361083984, 0.9319458, -0.0113525391)
(0.0296630859, 0.3623047, 0.9314575, -0.0130004883)
(0.0296630859, 0.3623047, 0.9314575, -0.0130004883)
(0.0294189453, 0.36340332, 0.930969238, -0.0150146484)
(0.0294189453, 0.36340332, 0.930969238, -0.0150146484)
(0.0286865234, 0.3640747, 0.9307251, -0.0173339844)
(0.0286865234, 0.3640747, 0.9307251, -0.0173339844)
(0.0274047852, 0.364318848, 0.930603, -0.0197143555)
(0.0259399414, 0.36517334, 0.9302368, -0.0223388672)
(0.0259399414, 0.36517334, 0.9302368, -0.0223388672)
(0.024597168, 0.3661499, 0.9298706, -0.0252685547)
(0.024597168, 0.3661499, 0.9298706, -0.0252685547)
(0.02319336, 0.3661499, 0.9298096, -0.0283813477)
(0.02319336, 0.3661499, 0.9298096, -0.0283813477)
(0.0218505859, 0.3661499, 0.929748535, -0.0315551758)
(0.0207519531, 0.3671875, 0.929260254, -0.0344848633)
(0.0207519531, 0.3671875, 0.929260254, -0.0344848633)
(0.0197143555, 0.368896484, 0.9284668, -0.03704834)
(0.0197143555, 0.368896484, 0.9284668, -0.03704834)
(0.0185546875, 0.370239258, 0.927856445, -0.03894043)
(0.0185546875, 0.370239258, 0.927856445, -0.03894043)
(0.0168457031, 0.3723755, 0.927001953, -0.039855957)
(0.0168457031, 0.3723755, 0.927001953, -0.039855957)
(0.0149536133, 0.374938965, 0.9260254, -0.040222168)
(0.0126953125, 0.377319336, 0.925109863, -0.0402832031)
(0.0126953125, 0.377319336, 0.925109863, -0.0402832031)
(0.0108032227, 0.379455566, 0.924194336, -0.0402832031)
(0.0108032227, 0.379455566, 0.924194336, -0.0402832031)
(0.009765625, 0.381713867, 0.9232788, -0.0406494141)
(0.009765625, 0.381713867, 0.9232788, -0.0406494141)
(0.009277344, 0.383300781, 0.9226074, -0.0413208)
(0.008972168, 0.3843994, 0.922119141, -0.0419921875)
(0.008972168, 0.3843994, 0.922119141, -0.0419921875)
(0.009094238, 0.385498047, 0.921630859, -0.04248047)
(0.009094238, 0.385498047, 0.921630859, -0.04248047)
(0.009887695, 0.3864746, 0.9212036, -0.04284668)
(0.009887695, 0.3864746, 0.9212036, -0.04284668)
(0.0112915039, 0.387390137, 0.9208374, -0.0429077148)
(0.0112915039, 0.387390137, 0.9208374, -0.0429077148)
(0.0130004883, 0.388305664, 0.920410156, -0.0424194336)
(0.0130004883, 0.388305664, 0.920410156, -0.0424194336)
(0.0149536133, 0.389343262, 0.9199829, -0.0413818359)
(0.0170288086, 0.390075684, 0.91973877, -0.0399780273)
(0.0170288086, 0.390075684, 0.91973877, -0.0399780273)
(0.0187988281, 0.3899536, 0.9197998, -0.0383300781)
(0.0187988281, 0.3899536, 0.9197998, -0.0383300781)
(0.0197143555, 0.389831543, 0.9199219, -0.0362548828)
(0.01977539, 0.3894043, 0.920166, -0.0341186523)
(0.01977539, 0.3894043, 0.920166, -0.0341186523)
(0.0198364258, 0.38861084, 0.920593262, -0.03265381)
(0.0198364258, 0.38861084, 0.920593262, -0.03265381)
(0.0209960938, 0.38659668, 0.9213867, -0.0319824219)
(0.0209960938, 0.38659668, 0.9213867, -0.0319824219)
(0.0234375, 0.384155273, 0.9223633, -0.03161621)
(0.0234375, 0.384155273, 0.9223633, -0.03161621)
(0.0272827148, 0.382019043, 0.923156738, -0.0311889648)
(0.0272827148, 0.382019043, 0.923156738, -0.0311889648)
(0.03149414, 0.3803711, 0.9237671, -0.030090332)
(0.0348510742, 0.379272461, 0.9241333, -0.0280761719)
(0.0348510742, 0.379272461, 0.9241333, -0.0280761719)
(0.0368042, 0.3786621, 0.924377441, -0.025390625)
(0.0368042, 0.3786621, 0.924377441, -0.025390625)
(0.0380249023, 0.37890625, 0.9243164, -0.0224609375)
(0.0393676758, 0.3795166, 0.924072266, -0.0197143555)
(0.0393676758, 0.3795166, 0.924072266, -0.0197143555)
(0.0393676758, 0.3795166, 0.924072266, -0.0197143555)
(0.04095459, 0.379821777, 0.9239502, -0.0170898438)
(0.04095459, 0.379821777, 0.9239502, -0.0170898438)
(0.0422363281, 0.380188, 0.9237671, -0.0145874023)
(0.04284668, 0.380615234, 0.923584, -0.0123291016)
(0.04284668, 0.380615234, 0.923584, -0.0123291016)
(0.0424194336, 0.380188, 0.9238281, -0.0104370117)
(0.0424194336, 0.380188, 0.9238281, -0.0104370117)
(0.04107666, 0.37902832, 0.924377441, -0.009094238)
(0.0393676758, 0.3779297, 0.924926758, -0.008239746)
(0.0393676758, 0.3779297, 0.924926758, -0.008239746)
(0.0378417969, 0.376708984, 0.9254761, -0.00799560547)
(0.0378417969, 0.376708984, 0.9254761, -0.00799560547)
(0.0368042, 0.374267578, 0.9265137, -0.008483887)
(0.0368042, 0.374267578, 0.9265137, -0.008483887)
(0.0362548828, 0.371521, 0.9276123, -0.009277344)
(0.0362548828, 0.371521, 0.9276123, -0.009277344)
(0.0361938477, 0.369018555, 0.928588867, -0.0100097656)
(0.0361938477, 0.369018555, 0.928588867, -0.0100097656)
(0.0360717773, 0.366638184, 0.9295654, -0.0103149414)
(0.0357666, 0.3642578, 0.930480957, -0.0100708008)
(0.0357666, 0.3642578, 0.930480957, -0.0100708008)
(0.03527832, 0.362976074, 0.9310303, -0.009460449)
(0.03527832, 0.362976074, 0.9310303, -0.009460449)
(0.0346069336, 0.361694336, 0.9315796, -0.0087890625)
(0.03363037, 0.360473633, 0.9320679, -0.008117676)
(0.03363037, 0.360473633, 0.9320679, -0.008117676)
(0.0325927734, 0.359924316, 0.932312, -0.007751465)
(0.0325927734, 0.359924316, 0.932312, -0.007751465)
(0.0315551758, 0.3600464, 0.932312, -0.007385254)
(0.0315551758, 0.3600464, 0.932312, -0.007385254)
(0.0305786133, 0.3602295, 0.932312, -0.00714111328)
(0.0305786133, 0.3602295, 0.932312, -0.00714111328)
(0.0297241211, 0.360351563, 0.932251, -0.00714111328)
(0.0297241211, 0.360351563, 0.932251, -0.00714111328)
(0.0288696289, 0.359680176, 0.932556152, -0.007385254)
(0.0278930664, 0.358642578, 0.9329834, -0.00799560547)
(0.0278930664, 0.358642578, 0.9329834, -0.00799560547)
(0.0269775391, 0.357910156, 0.9332886, -0.008728027)
(0.0269775391, 0.357910156, 0.9332886, -0.008728027)
(0.0261230469, 0.3574829, 0.9334717, -0.009216309)
(0.02545166, 0.357177734, 0.93359375, -0.009460449)
(0.02545166, 0.357177734, 0.93359375, -0.009460449)
(0.02545166, 0.357177734, 0.93359375, -0.009460449)
(0.02520752, 0.35723877, 0.93359375, -0.009460449)
(0.02520752, 0.3574829, 0.9334717, -0.009338379)
(0.02520752, 0.3574829, 0.9334717, -0.009338379)
(0.02532959, 0.357543945, 0.9334717, -0.009216309)
(0.02532959, 0.357543945, 0.9334717, -0.009216309)
(0.02532959, 0.358032227, 0.9332886, -0.009033203)
(0.02532959, 0.358032227, 0.9332886, -0.009033203)
(0.02545166, 0.358581543, 0.933044434, -0.008850098)
(0.02557373, 0.3587036, 0.9329834, -0.008666992)
(0.02557373, 0.3587036, 0.9329834, -0.008666992)
(0.02557373, 0.358825684, 0.9329834, -0.008666992)
(0.02557373, 0.358825684, 0.9329834, -0.008666992)
(0.0258789063, 0.3590088, 0.932922363, -0.0087890625)
(0.0258789063, 0.3590088, 0.932922363, -0.0087890625)
(0.0264892578, 0.359313965, 0.932739258, -0.008850098)
(0.0264892578, 0.359313965, 0.932739258, -0.008850098)
(0.02722168, 0.359375, 0.932739258, -0.008850098)
(0.02722168, 0.359375, 0.932739258, -0.008850098)
(0.0280761719, 0.35949707, 0.9326172, -0.008728027)
(0.0280761719, 0.35949707, 0.9326172, -0.008728027)
(0.0289917, 0.360168457, 0.932373047, -0.008605957)
(0.0299072266, 0.361022949, 0.932006836, -0.008605957)
(0.0299072266, 0.361022949, 0.932006836, -0.008605957)
(0.0305175781, 0.3614502, 0.93182373, -0.008728027)
(0.0305175781, 0.3614502, 0.93182373, -0.008728027)
(0.0307006836, 0.3614502, 0.9317627, -0.008911133)
(0.0306396484, 0.361877441, 0.9316406, -0.009216309)
(0.0306396484, 0.361877441, 0.9316406, -0.009216309)
(0.0306396484, 0.361877441, 0.9316406, -0.009216309)
(0.0305175781, 0.3619995, 0.9315796, -0.00958251953)
(0.0305786133, 0.362121582, 0.931518555, -0.009887695)
(0.0305786133, 0.362121582, 0.931518555, -0.009887695)
(0.0307617188, 0.362426758, 0.9313965, -0.0101318359)
(0.0307617188, 0.362426758, 0.9313965, -0.0101318359)
(0.0308227539, 0.362426758, 0.9313965, -0.0101928711)
(0.0308227539, 0.362426758, 0.9313965, -0.0101928711)
(0.0307006836, 0.3619995, 0.9315796, -0.0103759766)
(0.0307006836, 0.3619995, 0.9315796, -0.0103759766)
(0.0305175781, 0.361572266, 0.9317627, -0.0106201172)
(0.0302734375, 0.3614502, 0.9317627, -0.0108032227)
(0.0302734375, 0.3614502, 0.9317627, -0.0108032227)
(0.0301513672, 0.361206055, 0.931884766, -0.010925293)
(0.0301513672, 0.361206055, 0.931884766, -0.010925293)
(0.0301513672, 0.3609619, 0.932006836, -0.0109863281)
(0.0301513672, 0.3609619, 0.932006836, -0.0109863281)
(0.0301513672, 0.3609619, 0.932006836, -0.0109863281)
(0.0303955078, 0.360717773, 0.9320679, -0.0110473633)
(0.0303955078, 0.360717773, 0.9320679, -0.0110473633)
(0.0305175781, 0.3607788, 0.9320679, -0.0112304688)
(0.0305175781, 0.3607788, 0.9320679, -0.0112304688)
(0.0305786133, 0.360839844, 0.932006836, -0.0114746094)
(0.0305786133, 0.360839844, 0.932006836, -0.0114746094)
(0.0307006836, 0.3607788, 0.9320679, -0.01184082)
(0.0307006836, 0.3607788, 0.9320679, -0.01184082)
(0.0307617188, 0.3605957, 0.9320679, -0.0122680664)
(0.0306396484, 0.3602295, 0.932189941, -0.0127563477)
(0.0306396484, 0.3602295, 0.932189941, -0.0127563477)
(0.030456543, 0.359619141, 0.9324951, -0.0132446289)
(0.030456543, 0.359619141, 0.9324951, -0.0132446289)
(0.0302124023, 0.359130859, 0.9326172, -0.01373291)
(0.0302124023, 0.359130859, 0.9326172, -0.01373291)
(0.030090332, 0.358886719, 0.932739258, -0.0140991211)
(0.030090332, 0.358886719, 0.932739258, -0.0140991211)
(0.0301513672, 0.358459473, 0.932922363, -0.0142822266)
(0.0303344727, 0.357849121, 0.933105469, -0.0145263672)
(0.0303344727, 0.357849121, 0.933105469, -0.0145263672)
(0.0303344727, 0.357849121, 0.933105469, -0.0145263672)
(0.0306396484, 0.3574829, 0.9332886, -0.0148925781)
(0.03100586, 0.35723877, 0.9333496, -0.0155639648)
(0.03125, 0.3571167, 0.9333496, -0.0165405273)
(0.03125, 0.3571167, 0.9333496, -0.0165405273)
(0.03149414, 0.3569336, 0.933410645, -0.01751709)
(0.03149414, 0.3569336, 0.933410645, -0.01751709)
(0.03149414, 0.356994629, 0.9333496, -0.018371582)
(0.03149414, 0.356994629, 0.9333496, -0.018371582)
(0.03137207, 0.356628418, 0.9334717, -0.0191040039)
(0.03137207, 0.356628418, 0.9334717, -0.0191040039)
(0.03100586, 0.356140137, 0.9336548, -0.0198364258)
(0.03100586, 0.356140137, 0.9336548, -0.0198364258)
(0.0307006836, 0.35559082, 0.9338989, -0.0203857422)
(0.030456543, 0.35534668, 0.933959961, -0.0206298828)
(0.030456543, 0.35534668, 0.933959961, -0.0206298828)
(0.0302124023, 0.354980469, 0.934082031, -0.0206298828)
(0.0302124023, 0.354980469, 0.934082031, -0.0206298828)
(0.0300292969, 0.3546753, 0.934265137, -0.020324707)
(0.0299682617, 0.3544922, 0.9343262, -0.01977539)
(0.0299682617, 0.3544922, 0.9343262, -0.01977539)
(0.0299682617, 0.3544922, 0.9343262, -0.01977539)
(0.0300292969, 0.3544922, 0.9343262, -0.0190429688)
(0.0300292969, 0.3544922, 0.9343262, -0.0190429688)
(0.0300292969, 0.3544922, 0.9343262, -0.0190429688)
(0.0300292969, 0.3544922, 0.9343262, -0.0190429688)
(0.030456543, 0.3550415, 0.934143066, -0.01776123)
(0.0309448242, 0.35559082, 0.933959961, -0.0174560547)
(0.0309448242, 0.35559082, 0.933959961, -0.0174560547)
(0.0309448242, 0.35559082, 0.933959961, -0.0174560547)
(0.03149414, 0.355957031, 0.933776855, -0.01739502)
(0.032043457, 0.356384277, 0.93359375, -0.01727295)
(0.032043457, 0.356384277, 0.93359375, -0.01727295)
(0.032043457, 0.356384277, 0.93359375, -0.01727295)
(0.0327148438, 0.3577881, 0.933044434, -0.0169677734)
(0.0327148438, 0.3577881, 0.933044434, -0.0169677734)
(0.0328369141, 0.3581543, 0.932922363, -0.0169067383)
(0.0328369141, 0.3581543, 0.932922363, -0.0169067383)
(0.03253174, 0.358459473, 0.9328003, -0.0168457031)
(0.03253174, 0.358459473, 0.9328003, -0.0168457031)
(0.032043457, 0.3587036, 0.9326782, -0.0166625977)
(0.032043457, 0.3587036, 0.9326782, -0.0166625977)
(0.03149414, 0.358825684, 0.9326782, -0.0165405273)
(0.0307006836, 0.3583374, 0.9328613, -0.0164794922)
(0.0307006836, 0.3583374, 0.9328613, -0.0164794922)
(0.0307006836, 0.3583374, 0.9328613, -0.0164794922)
(0.0298461914, 0.3581543, 0.9329834, -0.0166015625)
(0.0289306641, 0.358276367, 0.9329834, -0.016784668)
(0.0283813477, 0.3583374, 0.9329834, -0.0172119141)
(0.0283813477, 0.3583374, 0.9329834, -0.0172119141)
(0.0279541016, 0.358215332, 0.933044434, -0.0177001953)
(0.0279541016, 0.358215332, 0.933044434, -0.0177001953)
(0.0278320313, 0.357910156, 0.933105469, -0.0181884766)
(0.0278320313, 0.357910156, 0.933105469, -0.0181884766)
(0.0277099609, 0.358032227, 0.933044434, -0.0185546875)
(0.0277099609, 0.358032227, 0.933044434, -0.0185546875)
(0.02746582, 0.357910156, 0.933105469, -0.0190429688)
(0.02746582, 0.357910156, 0.933105469, -0.0190429688)
(0.0271606445, 0.3577881, 0.9331665, -0.0193481445)
(0.0268554688, 0.358032227, 0.933044434, -0.01965332)
(0.0268554688, 0.358032227, 0.933044434, -0.01965332)
(0.0266113281, 0.358276367, 0.9329834, -0.0200195313)
(0.0266113281, 0.358276367, 0.9329834, -0.0200195313)
(0.0262451172, 0.3583374, 0.9329834, -0.0205078125)
(0.0258178711, 0.358032227, 0.933044434, -0.0212402344)
(0.0258178711, 0.358032227, 0.933044434, -0.0212402344)
(0.02545166, 0.35760498, 0.933227539, -0.0219726563)
(0.02545166, 0.35760498, 0.933227539, -0.0219726563)
(0.0252685547, 0.3572998, 0.9333496, -0.022644043)
(0.0252685547, 0.3572998, 0.9333496, -0.022644043)
(0.0252685547, 0.3572998, 0.9333496, -0.022644043)
(0.0251464844, 0.356689453, 0.9335327, -0.0232543945)
(0.02508545, 0.356018066, 0.933776855, -0.02368164)
(0.02508545, 0.356018066, 0.933776855, -0.02368164)
(0.02508545, 0.356018066, 0.933776855, -0.02368164)
(0.02508545, 0.3557129, 0.9338989, -0.0239257813)
(0.02520752, 0.3554077, 0.934021, -0.0241699219)
(0.02532959, 0.354919434, 0.9342041, -0.0244140625)
(0.02532959, 0.354919434, 0.9342041, -0.0244140625)
(0.0256958, 0.354614258, 0.934265137, -0.0247802734)
(0.0256958, 0.354614258, 0.934265137, -0.0247802734)
(0.0261230469, 0.354187, 0.934448242, -0.0251464844)
(0.0261230469, 0.354187, 0.934448242, -0.0251464844)
(0.026550293, 0.3536377, 0.934631348, -0.025390625)
(0.026550293, 0.3536377, 0.934631348, -0.025390625)
(0.0269165039, 0.353210449, 0.9347534, -0.02557373)
(0.0271606445, 0.352722168, 0.9349365, -0.0256347656)
(0.0271606445, 0.352722168, 0.9349365, -0.0256347656)
(0.02722168, 0.352294922, 0.9351196, -0.0256347656)
(0.02722168, 0.352294922, 0.9351196, -0.0256347656)
(0.02722168, 0.351989746, 0.9352417, -0.0255126953)
(0.0269775391, 0.351318359, 0.93548584, -0.025390625)
(0.0269775391, 0.351318359, 0.93548584, -0.025390625)
(0.0267944336, 0.350830078, 0.935668945, -0.02532959)
(0.0267944336, 0.350830078, 0.935668945, -0.02532959)
(0.0267944336, 0.350830078, 0.935668945, -0.02532959)
(0.0266723633, 0.350708, 0.93573, -0.025390625)
(0.0264282227, 0.350097656, 0.9359741, -0.02532959)
(0.0264282227, 0.350097656, 0.9359741, -0.02532959)
(0.0264282227, 0.350097656, 0.9359741, -0.02532959)
(0.0262451172, 0.349609375, 0.9361572, -0.0252685547)
(0.026184082, 0.3491211, 0.936340332, -0.0251464844)
(0.026184082, 0.3491211, 0.936340332, -0.0251464844)
(0.026184082, 0.3486328, 0.936523438, -0.0249633789)
(0.0262451172, 0.3484497, 0.9365845, -0.0247802734)
(0.0262451172, 0.3484497, 0.9365845, -0.0247802734)
(0.0262451172, 0.3484497, 0.9365845, -0.0247802734)
(0.0263671875, 0.347961426, 0.9367676, -0.024597168)
(0.0264892578, 0.34753418, 0.9369507, -0.0245361328)
(0.026550293, 0.347167969, 0.937072754, -0.0245361328)
(0.026550293, 0.347167969, 0.937072754, -0.0245361328)
(0.026550293, 0.347167969, 0.937072754, -0.0245361328)
(0.0268554688, 0.3468628, 0.9371948, -0.024597168)
(0.02734375, 0.346801758, 0.9371948, -0.024597168)
(0.02734375, 0.346801758, 0.9371948, -0.024597168)
(0.0279541016, 0.346618652, 0.9371948, -0.0245361328)
(0.0279541016, 0.346618652, 0.9371948, -0.0245361328)
(0.0285644531, 0.3460083, 0.937438965, -0.0244750977)
(0.0285644531, 0.3460083, 0.937438965, -0.0244750977)
(0.0289306641, 0.34576416, 0.9375, -0.0243530273)
(0.0289306641, 0.34576416, 0.9375, -0.0243530273)
(0.0290527344, 0.345703125, 0.937561035, -0.024230957)
(0.0288696289, 0.3453369, 0.9376831, -0.0239257813)
(0.0288696289, 0.3453369, 0.9376831, -0.0239257813)
(0.0287475586, 0.345397949, 0.9376831, -0.0236206055)
(0.0287475586, 0.345397949, 0.9376831, -0.0236206055)
(0.0286254883, 0.3451538, 0.9378052, -0.02331543)
(0.0286254883, 0.3451538, 0.9378052, -0.02331543)
(0.0283813477, 0.345031738, 0.9378052, -0.0230712891)
(0.0279541016, 0.3449707, 0.9378662, -0.0228271484)
(0.0279541016, 0.3449707, 0.9378662, -0.0228271484)
(0.0274047852, 0.3447876, 0.9379883, -0.0225830078)
(0.0274047852, 0.3447876, 0.9379883, -0.0225830078)
(0.02709961, 0.344909668, 0.937927246, -0.0224609375)
(0.02709961, 0.344909668, 0.937927246, -0.0224609375)
(0.02709961, 0.344909668, 0.937927246, -0.0224609375)
(0.0268554688, 0.344543457, 0.938110352, -0.022277832)
(0.0268554688, 0.344543457, 0.938110352, -0.022277832)
(0.0268554688, 0.344543457, 0.938110352, -0.022277832)
(0.0268554688, 0.344543457, 0.938110352, -0.022277832)
(0.0269165039, 0.344543457, 0.938110352, -0.0223388672)
(0.0269165039, 0.344543457, 0.938110352, -0.0223388672)
(0.02709961, 0.344360352, 0.9381714, -0.0222167969)
(0.02709961, 0.344360352, 0.9381714, -0.0222167969)
(0.02709961, 0.344360352, 0.9381714, -0.0222167969)
(0.02709961, 0.344360352, 0.9381714, -0.0222167969)
(0.0271606445, 0.344360352, 0.9381714, -0.0222167969)
(0.0271606445, 0.3444214, 0.938110352, -0.0222167969)
(0.0271606445, 0.3444214, 0.938110352, -0.0222167969)
(0.0271606445, 0.3444214, 0.938110352, -0.022277832)
(0.0271606445, 0.3444214, 0.938110352, -0.022277832)
(0.02722168, 0.3444214, 0.938110352, -0.022277832)
(0.02722168, 0.3444214, 0.938110352, -0.022277832)
(0.02722168, 0.3444214, 0.938110352, -0.022277832)
(0.02722168, 0.344482422, 0.938110352, -0.022277832)
(0.02722168, 0.344482422, 0.938110352, -0.022277832)
(0.0271606445, 0.344360352, 0.938110352, -0.0223999023)
(0.0271606445, 0.344360352, 0.938110352, -0.0223999023)
(0.0269775391, 0.3441162, 0.9382324, -0.0225219727)
(0.0269775391, 0.3441162, 0.9382324, -0.0225219727)
(0.0268554688, 0.34375, 0.9383545, -0.0225830078)
(0.0268554688, 0.34375, 0.9383545, -0.0225830078)
(0.0266723633, 0.3435669, 0.9384155, -0.022644043)
(0.0264282227, 0.342956543, 0.938659668, -0.0225830078)
(0.0264282227, 0.342956543, 0.938659668, -0.0225830078)
(0.0261230469, 0.342834473, 0.9387207, -0.0225219727)
(0.0261230469, 0.342834473, 0.9387207, -0.0225219727)
(0.0261230469, 0.342834473, 0.9387207, -0.0225219727)
(0.0261230469, 0.342834473, 0.9387207, -0.0225219727)
(0.0261230469, 0.342834473, 0.9387207, -0.0225219727)
(0.0261230469, 0.342834473, 0.9387207, -0.0225219727)
(0.026184082, 0.342834473, 0.9387207, -0.0225219727)
(0.026184082, 0.342834473, 0.9387207, -0.0225219727)
(0.026184082, 0.342834473, 0.9387207, -0.0225219727)
(0.026184082, 0.342590332, 0.938781738, -0.022644043)
(0.026184082, 0.342590332, 0.938781738, -0.022644043)
(0.0261230469, 0.3421631, 0.938964844, -0.022644043)
(0.0261230469, 0.3421631, 0.938964844, -0.022644043)
(0.0261230469, 0.34161377, 0.939147949, -0.0225219727)
(0.0261230469, 0.34161377, 0.939147949, -0.0225219727)
(0.0261230469, 0.34161377, 0.939147949, -0.0225219727)
(0.0261230469, 0.34161377, 0.939147949, -0.0225219727)
