(0.0142211914, 0.0107421875, 0.9176636, 0.396789551)
(0.0161132813, 0.01171875, 0.9185791, 0.394714355)
(0.0161132813, 0.01171875, 0.9185791, 0.394714355)
(0.0181274414, 0.0159301758, 0.9203491, 0.3902588)
(0.0181274414, 0.0159301758, 0.9203491, 0.3902588)
(0.0193481445, 0.0182495117, 0.922485352, 0.3850708)
(0.0193481445, 0.0182495117, 0.922485352, 0.3850708)
(0.017578125, 0.0142211914, 0.924377441, 0.3807373)
(0.016418457, 0.01171875, 0.9254761, 0.378173828)
(0.016418457, 0.01171875, 0.9254761, 0.378173828)
(0.016418457, 0.01171875, 0.9254761, 0.378173828)
(0.018371582, 0.016418457, 0.9260864, 0.3764038)
(0.0209350586, 0.020690918, 0.9265747, 0.37487793)
(0.0218505859, 0.0203857422, 0.9268799, 0.374084473)
(0.0218505859, 0.0203857422, 0.9268799, 0.374084473)
(0.0218505859, 0.0203857422, 0.9268799, 0.374084473)
(0.022277832, 0.0197143555, 0.9273071, 0.373046875)
(0.0228271484, 0.0203857422, 0.9277954, 0.371765137)
(0.0228271484, 0.0203857422, 0.9277954, 0.371765137)
(0.0234985352, 0.0205688477, 0.928222656, 0.3706665)
(0.0234985352, 0.0205688477, 0.928222656, 0.3706665)
(0.0236206055, 0.01965332, 0.928405762, 0.3701172)
(0.0230712891, 0.0184936523, 0.928588867, 0.369750977)
(0.0230712891, 0.0184936523, 0.928588867, 0.369750977)
(0.0225830078, 0.0180053711, 0.928833, 0.36932373)
(0.0225830078, 0.0180053711, 0.928833, 0.36932373)
(0.0222167969, 0.0181884766, 0.9289551, 0.369018555)
(0.0222167969, 0.0181884766, 0.9289551, 0.369018555)
(0.022277832, 0.0185546875, 0.9290161, 0.3687744)
(0.0221557617, 0.0180053711, 0.929077148, 0.368713379)
(0.0221557617, 0.0180053711, 0.929077148, 0.368713379)
(0.0221557617, 0.0180053711, 0.929077148, 0.368713379)
(0.0220947266, 0.0178833, 0.9291382, 0.368530273)
(0.0224609375, 0.0180664063, 0.9291992, 0.368286133)
(0.0224609375, 0.0180664063, 0.9291992, 0.368286133)
(0.0224609375, 0.0180664063, 0.9291992, 0.368286133)
(0.0228271484, 0.0179443359, 0.9293213, 0.367980957)
(0.0231323242, 0.0184326172, 0.9293823, 0.3678589)
(0.0231323242, 0.0184326172, 0.9293823, 0.3678589)
(0.0236206055, 0.01965332, 0.9293823, 0.367797852)
(0.0239868164, 0.0208740234, 0.9293213, 0.367736816)
(0.0239868164, 0.0208740234, 0.9293213, 0.367736816)
(0.0237426758, 0.02130127, 0.929260254, 0.367980957)
(0.0237426758, 0.02130127, 0.929260254, 0.367980957)
(0.0231323242, 0.0206298828, 0.9291382, 0.368286133)
(0.0231323242, 0.0206298828, 0.9291382, 0.368286133)
(0.0228881836, 0.0211792, 0.9290161, 0.368530273)
(0.0228881836, 0.0211792, 0.9290161, 0.368530273)
(0.0225830078, 0.02166748, 0.9289551, 0.368835449)
(0.0225830078, 0.02166748, 0.9289551, 0.368835449)
(0.0220336914, 0.02154541, 0.928772, 0.36920166)
(0.0221557617, 0.0219116211, 0.928588867, 0.3696289)
(0.0221557617, 0.0219116211, 0.928588867, 0.3696289)
(0.0225219727, 0.0227050781, 0.928405762, 0.370056152)
(0.0225219727, 0.0227050781, 0.928405762, 0.370056152)
(0.0224609375, 0.0227050781, 0.9281616, 0.3706665)
(0.0224609375, 0.0227050781, 0.9281616, 0.3706665)
(0.0223999023, 0.0230102539, 0.9279785, 0.3711548)
(0.022644043, 0.0238037109, 0.9277954, 0.371459961)
(0.022644043, 0.0238037109, 0.9277954, 0.371459961)
(0.0227661133, 0.0239868164, 0.9276123, 0.3718872)
(0.0227661133, 0.0239868164, 0.9276123, 0.3718872)
(0.0229492188, 0.0246582031, 0.9274292, 0.3723755)
(0.0229492188, 0.0246582031, 0.9274292, 0.3723755)
(0.0231323242, 0.02520752, 0.927185059, 0.37286377)
(0.0231323242, 0.02520752, 0.927185059, 0.37286377)
(0.0230712891, 0.0256347656, 0.9269409, 0.373474121)
(0.0229492188, 0.0264282227, 0.9267578, 0.3739624)
(0.0229492188, 0.0264282227, 0.9267578, 0.3739624)
(0.0228881836, 0.02746582, 0.926452637, 0.374511719)
(0.0228881836, 0.02746582, 0.926452637, 0.374511719)
(0.0230102539, 0.028503418, 0.926269531, 0.375)
(0.0230102539, 0.028503418, 0.926269531, 0.375)
(0.0229492188, 0.0291748047, 0.925964355, 0.3756714)
(0.022644043, 0.0294189453, 0.9257202, 0.3762207)
(0.022644043, 0.0294189453, 0.9257202, 0.3762207)
(0.0224609375, 0.0302734375, 0.9255371, 0.376708984)
(0.0224609375, 0.0302734375, 0.9255371, 0.376708984)
(0.0225219727, 0.03173828, 0.925292969, 0.37713623)
(0.0225219727, 0.03173828, 0.925292969, 0.37713623)
(0.0223388672, 0.0330810547, 0.9249878, 0.377807617)
(0.0223388672, 0.0330810547, 0.9249878, 0.377807617)
(0.0221557617, 0.0339355469, 0.9246826, 0.378479)
(0.0220947266, 0.03479004, 0.9244385, 0.37902832)
(0.0220947266, 0.03479004, 0.9244385, 0.37902832)
(0.0220947266, 0.03479004, 0.9244385, 0.37902832)
(0.0221557617, 0.035949707, 0.924194336, 0.3795166)
(0.0220947266, 0.037109375, 0.9239502, 0.380004883)
(0.0216064453, 0.03692627, 0.923706055, 0.380615234)
(0.0216064453, 0.03692627, 0.923706055, 0.380615234)
(0.0216064453, 0.03692627, 0.923706055, 0.380615234)
(0.0212402344, 0.03692627, 0.923522949, 0.38104248)
(0.0212402344, 0.03692627, 0.923522949, 0.38104248)
(0.0211181641, 0.03765869, 0.923339844, 0.3814087)
(0.0210571289, 0.0388793945, 0.923156738, 0.3817749)
(0.0210571289, 0.0388793945, 0.923156738, 0.3817749)
(0.02154541, 0.04034424, 0.9229126, 0.3821411)
(0.02154541, 0.04034424, 0.9229126, 0.3821411)
(0.0220947266, 0.0413818359, 0.9227295, 0.382507324)
(0.0223999023, 0.0418701172, 0.9225464, 0.382873535)
(0.0223999023, 0.0418701172, 0.9225464, 0.382873535)
(0.0228271484, 0.0424194336, 0.9224243, 0.3829956)
(0.0228271484, 0.0424194336, 0.9224243, 0.3829956)
(0.02319336, 0.0429077148, 0.9223633, 0.383117676)
(0.02319336, 0.0429077148, 0.9223633, 0.383117676)
(0.0233764648, 0.04321289, 0.922302246, 0.383239746)
(0.0233764648, 0.04321289, 0.922302246, 0.383239746)
(0.02355957, 0.0432739258, 0.9221802, 0.383422852)
(0.02355957, 0.0432739258, 0.9221802, 0.383422852)
(0.02368164, 0.04321289, 0.922119141, 0.383605957)
(0.02368164, 0.04321289, 0.922119141, 0.383605957)
(0.0238647461, 0.0431518555, 0.9220581, 0.383728027)
(0.0238647461, 0.0425415039, 0.9220581, 0.383789063)
(0.0238647461, 0.0425415039, 0.9220581, 0.383789063)
(0.0238647461, 0.0425415039, 0.9220581, 0.383789063)
(0.0236206055, 0.0419921875, 0.9220581, 0.383911133)
(0.02368164, 0.0419311523, 0.9219971, 0.3840332)
(0.0237426758, 0.0416259766, 0.921936035, 0.3842163)
(0.0237426758, 0.0416259766, 0.921936035, 0.3842163)
(0.0237426758, 0.0416259766, 0.921936035, 0.3842163)
(0.0240478516, 0.04168701, 0.921875, 0.3843994)
(0.024597168, 0.041809082, 0.921813965, 0.384521484)
(0.024597168, 0.041809082, 0.921813965, 0.384521484)
(0.0250244141, 0.04095459, 0.9216919, 0.384765625)
(0.0250244141, 0.04095459, 0.9216919, 0.384765625)
(0.02532959, 0.0400390625, 0.921630859, 0.3850708)
(0.02532959, 0.0400390625, 0.921630859, 0.3850708)
(0.02532959, 0.0400390625, 0.921630859, 0.3850708)
(0.02508545, 0.0380859375, 0.921447754, 0.385681152)
(0.02508545, 0.0380859375, 0.921447754, 0.385681152)
(0.02508545, 0.0380859375, 0.921447754, 0.385681152)
(0.02508545, 0.0380859375, 0.921447754, 0.385681152)
(0.0255126953, 0.0388793945, 0.9212036, 0.386230469)
(0.0255126953, 0.0388793945, 0.9212036, 0.386230469)
(0.02545166, 0.0383911133, 0.921081543, 0.38659668)
(0.02545166, 0.0383911133, 0.921081543, 0.38659668)
(0.0249023438, 0.03717041, 0.9209595, 0.3869629)
(0.0247802734, 0.0366210938, 0.920898438, 0.387207031)
(0.0247802734, 0.0366210938, 0.920898438, 0.387207031)
(0.0250244141, 0.0363769531, 0.920776367, 0.387451172)
(0.0250244141, 0.0363769531, 0.920776367, 0.387451172)
(0.02545166, 0.0358886719, 0.920715332, 0.387634277)
(0.02545166, 0.0358886719, 0.920715332, 0.387634277)
(0.0261230469, 0.0354614258, 0.920593262, 0.387878418)
(0.0266723633, 0.0349731445, 0.9205322, 0.388122559)
(0.0266723633, 0.0349731445, 0.9205322, 0.388122559)
(0.0266723633, 0.0349731445, 0.9205322, 0.388122559)
(0.02709961, 0.0344238281, 0.920410156, 0.388427734)
(0.02734375, 0.0341186523, 0.9202881, 0.3887329)
(0.02734375, 0.0341186523, 0.9202881, 0.3887329)
(0.02746582, 0.0338134766, 0.920105, 0.389099121)
(0.02746582, 0.0338134766, 0.920105, 0.389099121)
(0.02746582, 0.0338134766, 0.920105, 0.389099121)
(0.0275268555, 0.03186035, 0.91986084, 0.3899536)
(0.0275268555, 0.03186035, 0.91986084, 0.3899536)
(0.0275268555, 0.03186035, 0.91986084, 0.3899536)
(0.0278930664, 0.03161621, 0.919555664, 0.39050293)
(0.0286254883, 0.0321044922, 0.919189453, 0.391357422)
(0.0286254883, 0.0321044922, 0.919189453, 0.391357422)
(0.029296875, 0.03265381, 0.9187622, 0.392272949)
(0.029296875, 0.03265381, 0.9187622, 0.392272949)
(0.0297241211, 0.033203125, 0.918396, 0.3930664)
(0.0299682617, 0.0339355469, 0.918151855, 0.3935547)
(0.0299682617, 0.0339355469, 0.918151855, 0.3935547)
(0.0299682617, 0.0339355469, 0.918151855, 0.3935547)
(0.0299072266, 0.0348510742, 0.9180298, 0.393798828)
(0.02947998, 0.0357055664, 0.91796875, 0.393798828)
(0.02947998, 0.0357055664, 0.91796875, 0.393798828)
(0.0287475586, 0.0361328125, 0.9180908, 0.3935547)
(0.0276489258, 0.03656006, 0.918396, 0.3928833)
(0.0276489258, 0.03656006, 0.918396, 0.3928833)
(0.026550293, 0.03704834, 0.918823242, 0.3918457)
(0.026550293, 0.03704834, 0.918823242, 0.3918457)
(0.026550293, 0.03704834, 0.918823242, 0.3918457)
(0.02532959, 0.03717041, 0.9193115, 0.390930176)
(0.0241699219, 0.03704834, 0.9196167, 0.390136719)
(0.0241699219, 0.03704834, 0.9196167, 0.390136719)
(0.0225830078, 0.0361938477, 0.91986084, 0.3897705)
(0.02130127, 0.0362548828, 0.9199219, 0.389709473)
(0.02130127, 0.0362548828, 0.9199219, 0.389709473)
(0.02130127, 0.0362548828, 0.9199219, 0.389709473)
(0.02130127, 0.0362548828, 0.9199219, 0.389709473)
(0.0202636719, 0.0363769531, 0.9197998, 0.390136719)
(0.0199584961, 0.03656006, 0.9194946, 0.3908081)
(0.0204467773, 0.03704834, 0.919189453, 0.3914795)
(0.0204467773, 0.03704834, 0.919189453, 0.3914795)
(0.0216064453, 0.0380859375, 0.9188843, 0.391967773)
(0.022644043, 0.03869629, 0.9185791, 0.392578125)
(0.022644043, 0.03869629, 0.9185791, 0.392578125)
(0.0232543945, 0.0386352539, 0.9182739, 0.393310547)
(0.0232543945, 0.0386352539, 0.9182739, 0.393310547)
(0.0234375, 0.03845215, 0.9178467, 0.3942871)
(0.0234375, 0.03845215, 0.9178467, 0.3942871)
(0.0239868164, 0.0388793945, 0.9172363, 0.395629883)
(0.0239868164, 0.0388793945, 0.9172363, 0.395629883)
(0.0249633789, 0.0394897461, 0.9165039, 0.397155762)
(0.0249633789, 0.0394897461, 0.9165039, 0.397155762)
(0.0249633789, 0.0394897461, 0.9165039, 0.397155762)
(0.0272827148, 0.041015625, 0.914917, 0.40057373)
(0.0272827148, 0.041015625, 0.914917, 0.40057373)
(0.0283813477, 0.0418701172, 0.9142456, 0.401855469)
(0.0283813477, 0.0418701172, 0.9142456, 0.401855469)
(0.0288085938, 0.041809082, 0.9137573, 0.402893066)
(0.0289306641, 0.0408935547, 0.913452148, 0.403686523)
(0.0289306641, 0.0408935547, 0.913452148, 0.403686523)
(0.0289306641, 0.0408935547, 0.913452148, 0.403686523)
(0.0289306641, 0.0408935547, 0.913452148, 0.403686523)
(0.028137207, 0.03918457, 0.9133911, 0.40411377)
(0.0270385742, 0.038269043, 0.9135742, 0.403869629)
(0.0270385742, 0.038269043, 0.9135742, 0.403869629)
(0.0270385742, 0.038269043, 0.9135742, 0.403869629)
(0.024230957, 0.0366210938, 0.9142456, 0.4025879)
(0.024230957, 0.0366210938, 0.9142456, 0.4025879)
(0.0234375, 0.03564453, 0.914672852, 0.401855469)
(0.0234375, 0.03564453, 0.914672852, 0.401855469)
(0.0232543945, 0.0353393555, 0.914917, 0.401306152)
(0.0236206055, 0.0357055664, 0.914978, 0.401062)
(0.0236206055, 0.0357055664, 0.914978, 0.401062)
(0.0239257813, 0.0362548828, 0.914855957, 0.401306152)
(0.0239257813, 0.0362548828, 0.914855957, 0.401306152)
(0.0244140625, 0.0372314453, 0.9146118, 0.401794434)
(0.0244140625, 0.0372314453, 0.9146118, 0.401794434)
(0.0244140625, 0.0372314453, 0.9146118, 0.401794434)
(0.02557373, 0.0387573242, 0.9141846, 0.40246582)
(0.02557373, 0.0387573242, 0.9141846, 0.40246582)
(0.0263061523, 0.03955078, 0.9141846, 0.4024048)
(0.0263061523, 0.03955078, 0.9141846, 0.4024048)
(0.0263061523, 0.03955078, 0.9141846, 0.4024048)
(0.0270385742, 0.0399780273, 0.9142456, 0.402160645)
(0.0274047852, 0.0397338867, 0.9143677, 0.4019165)
(0.0274047852, 0.0397338867, 0.9143677, 0.4019165)
(0.0274047852, 0.0397338867, 0.9143677, 0.4019165)
(0.0269165039, 0.0378417969, 0.9144287, 0.401977539)
(0.0269165039, 0.0378417969, 0.9144287, 0.401977539)
(0.0269165039, 0.0378417969, 0.9144287, 0.401977539)
(0.0269165039, 0.0378417969, 0.9144287, 0.401977539)
(0.0249633789, 0.03692627, 0.9144287, 0.402160645)
(0.0249633789, 0.03692627, 0.9144287, 0.402160645)
(0.0245361328, 0.0380249023, 0.9142456, 0.402526855)
(0.0245361328, 0.0380249023, 0.9142456, 0.402526855)
(0.0239257813, 0.0387573242, 0.914001465, 0.403076172)
(0.0232543945, 0.03918457, 0.913818359, 0.403503418)
(0.0232543945, 0.03918457, 0.913818359, 0.403503418)
(0.0232543945, 0.03918457, 0.913818359, 0.403503418)
(0.0227661133, 0.0392456055, 0.9136963, 0.403686523)
(0.0223388672, 0.0393676758, 0.9137573, 0.4036255)
(0.0223388672, 0.0393676758, 0.9137573, 0.4036255)
(0.0223388672, 0.0393676758, 0.9137573, 0.4036255)
(0.0223388672, 0.0393676758, 0.9137573, 0.4036255)
(0.02166748, 0.0397338867, 0.913818359, 0.403503418)
(0.0216064453, 0.0401611328, 0.9137573, 0.4036255)
(0.0216064453, 0.0401611328, 0.9137573, 0.4036255)
(0.0216064453, 0.0401611328, 0.9137573, 0.4036255)
(0.0216064453, 0.04034424, 0.9137573, 0.403564453)
(0.02130127, 0.0402832031, 0.9138794, 0.4033203)
(0.02130127, 0.0402832031, 0.9138794, 0.4033203)
(0.0211181641, 0.0404052734, 0.9140625, 0.402893066)
(0.0209350586, 0.0405273438, 0.9142456, 0.40246582)
(0.0209350586, 0.0405273438, 0.9142456, 0.40246582)
(0.0209350586, 0.0405273438, 0.9142456, 0.40246582)
(0.0207519531, 0.04034424, 0.914489746, 0.402038574)
(0.0205688477, 0.0399169922, 0.914672852, 0.401611328)
(0.0205688477, 0.0399169922, 0.914672852, 0.401611328)
(0.0205688477, 0.0396118164, 0.914855957, 0.401245117)
(0.0205688477, 0.0396118164, 0.914855957, 0.401245117)
(0.0205688477, 0.03918457, 0.914917, 0.401062)
(0.0203857422, 0.0383300781, 0.914978, 0.401062)
(0.0203857422, 0.0383300781, 0.914978, 0.401062)
(0.0203857422, 0.0383300781, 0.914978, 0.401062)
(0.0202026367, 0.03765869, 0.914978, 0.401123047)
(0.0202026367, 0.0375976563, 0.914978, 0.401123047)
(0.0202026367, 0.0375976563, 0.914978, 0.401123047)
(0.0202026367, 0.0375976563, 0.914978, 0.401123047)
(0.0202636719, 0.0375976563, 0.914978, 0.401123047)
(0.0202636719, 0.0375976563, 0.914978, 0.401123047)
(0.0202636719, 0.0375976563, 0.914978, 0.401123047)
(0.0202636719, 0.0375976563, 0.914978, 0.401123047)
(0.020324707, 0.03729248, 0.914978, 0.401245117)
(0.0204467773, 0.03692627, 0.914917, 0.401306152)
(0.0206298828, 0.0368042, 0.914855957, 0.401428223)
(0.0206298828, 0.0368042, 0.914855957, 0.401428223)
(0.0208129883, 0.03656006, 0.9147949, 0.4015503)
(0.0208129883, 0.03656006, 0.9147949, 0.4015503)
(0.0211792, 0.036315918, 0.9147949, 0.401672363)
(0.0211792, 0.036315918, 0.9147949, 0.401672363)
(0.0217285156, 0.03656006, 0.914672852, 0.401794434)
(0.0225219727, 0.0368042, 0.9145508, 0.401977539)
(0.0225219727, 0.0368042, 0.9145508, 0.401977539)
(0.0225219727, 0.0368042, 0.9145508, 0.401977539)
(0.0230102539, 0.0363769531, 0.9144287, 0.40234375)
(0.0234375, 0.0360107422, 0.9142456, 0.402771)
(0.0239868164, 0.035949707, 0.914001465, 0.403381348)
(0.0239868164, 0.035949707, 0.914001465, 0.403381348)
(0.0239868164, 0.035949707, 0.914001465, 0.403381348)
(0.0244750977, 0.03564453, 0.9136963, 0.4039917)
(0.0248413086, 0.03527832, 0.913452148, 0.404541016)
(0.0248413086, 0.03527832, 0.913452148, 0.404541016)
(0.0248413086, 0.03527832, 0.913452148, 0.404541016)
(0.0249023438, 0.0350952148, 0.913269043, 0.404907227)
(0.0248413086, 0.03503418, 0.913147, 0.4052124)
(0.024597168, 0.03491211, 0.912963867, 0.405639648)
(0.024597168, 0.03491211, 0.912963867, 0.405639648)
(0.0241699219, 0.0345459, 0.9127197, 0.40625)
(0.0241699219, 0.0345459, 0.9127197, 0.40625)
(0.0241699219, 0.0345459, 0.9127197, 0.40625)
(0.0241699219, 0.0345459, 0.9127197, 0.40625)
(0.0233764648, 0.034362793, 0.9122925, 0.407348633)
(0.0233764648, 0.034362793, 0.9122925, 0.407348633)
(0.0230712891, 0.0343017578, 0.9121094, 0.407714844)
(0.0230712891, 0.0343017578, 0.9121094, 0.407714844)
(0.0229492188, 0.033996582, 0.91204834, 0.407897949)
(0.0227661133, 0.0336914063, 0.91204834, 0.407958984)
(0.0227661133, 0.0336914063, 0.91204834, 0.407958984)
(0.0227661133, 0.0336914063, 0.91204834, 0.407958984)
(0.0227661133, 0.0336914063, 0.91204834, 0.407958984)
(0.0227661133, 0.033203125, 0.91204834, 0.407958984)
(0.0230102539, 0.03289795, 0.91204834, 0.40802002)
(0.0230102539, 0.03289795, 0.91204834, 0.40802002)
(0.0230102539, 0.03289795, 0.91204834, 0.40802002)
(0.02331543, 0.032409668, 0.91204834, 0.40802002)
(0.02331543, 0.03173828, 0.9121094, 0.407897949)
(0.02331543, 0.03173828, 0.9121094, 0.407897949)
(0.02331543, 0.03173828, 0.9121094, 0.407897949)
(0.0236206055, 0.03173828, 0.9122925, 0.4074707)
(0.0238037109, 0.0317993164, 0.9125366, 0.4069214)
(0.0238037109, 0.0317993164, 0.9125366, 0.4069214)
(0.0238037109, 0.0317993164, 0.9125366, 0.4069214)
(0.0239257813, 0.0321044922, 0.912780762, 0.4064331)
(0.0241088867, 0.0319213867, 0.912902832, 0.40612793)
(0.0241088867, 0.0319213867, 0.912902832, 0.40612793)
(0.0241088867, 0.0319213867, 0.912902832, 0.40612793)
(0.0247192383, 0.0308837891, 0.912963867, 0.4060669)
(0.0247192383, 0.0308837891, 0.912963867, 0.4060669)
(0.02520752, 0.03100586, 0.912963867, 0.406005859)
(0.02520752, 0.03100586, 0.912963867, 0.406005859)
(0.0258789063, 0.03112793, 0.912963867, 0.4058838)
(0.026184082, 0.0310668945, 0.9130249, 0.405761719)
(0.026184082, 0.0310668945, 0.9130249, 0.405761719)
(0.026184082, 0.0310668945, 0.9130249, 0.405761719)
(0.0263061523, 0.0307617188, 0.913085938, 0.405700684)
(0.0262451172, 0.0302734375, 0.913085938, 0.405700684)
(0.0262451172, 0.0302734375, 0.913085938, 0.405700684)
(0.0262451172, 0.0302734375, 0.913085938, 0.405700684)
(0.0267944336, 0.030090332, 0.9130249, 0.405822754)
(0.0267944336, 0.030090332, 0.9130249, 0.405822754)
(0.02758789, 0.0308837891, 0.9128418, 0.4060669)
(0.02758789, 0.0308837891, 0.9128418, 0.4060669)
(0.02758789, 0.0308837891, 0.9128418, 0.4060669)
(0.0282592773, 0.0311889648, 0.9127197, 0.40637207)
(0.0288085938, 0.03137207, 0.9126587, 0.40637207)
(0.0288085938, 0.03137207, 0.9126587, 0.40637207)
(0.0288085938, 0.03137207, 0.9126587, 0.40637207)
(0.02960205, 0.0322265625, 0.912902832, 0.405700684)
(0.02960205, 0.0322265625, 0.912902832, 0.405700684)
(0.02960205, 0.0322265625, 0.912902832, 0.405700684)
(0.02960205, 0.0322265625, 0.912902832, 0.405700684)
(0.029296875, 0.0321044922, 0.913085938, 0.405334473)
(0.0289306641, 0.0316772461, 0.9133911, 0.404785156)
(0.0283813477, 0.0308837891, 0.9135742, 0.4043579)
(0.0283813477, 0.0308837891, 0.9135742, 0.4043579)
(0.0278930664, 0.0299682617, 0.913818359, 0.403930664)
(0.02758789, 0.02947998, 0.9139404, 0.403747559)
(0.02758789, 0.02947998, 0.9139404, 0.403747559)
(0.02758789, 0.02947998, 0.9139404, 0.403747559)
(0.02758789, 0.0298461914, 0.9139404, 0.403686523)
(0.0280761719, 0.0307006836, 0.913818359, 0.4038086)
(0.0280761719, 0.0307006836, 0.913818359, 0.4038086)
(0.0280761719, 0.0307006836, 0.913818359, 0.4038086)
(0.0283813477, 0.0311889648, 0.9136963, 0.404052734)
(0.0284423828, 0.03125, 0.9136963, 0.404052734)
(0.0284423828, 0.03125, 0.9136963, 0.404052734)
(0.0284423828, 0.03125, 0.9136963, 0.404052734)
(0.0284423828, 0.03125, 0.9136963, 0.404052734)
(0.0286865234, 0.0324707031, 0.9138794, 0.4036255)
(0.0288085938, 0.0330810547, 0.9139404, 0.403381348)
(0.0288085938, 0.0330810547, 0.9139404, 0.403381348)
(0.0288085938, 0.0330810547, 0.9139404, 0.403381348)
(0.0286254883, 0.0335693359, 0.9140625, 0.403076172)
(0.028503418, 0.0340576172, 0.9142456, 0.402648926)
(0.028503418, 0.0340576172, 0.9142456, 0.402648926)
(0.028503418, 0.0340576172, 0.9142456, 0.402648926)
(0.0280151367, 0.03527832, 0.9145508, 0.401794434)
(0.0280151367, 0.03527832, 0.9145508, 0.401794434)
(0.0280151367, 0.03527832, 0.9145508, 0.401794434)
(0.0280151367, 0.03527832, 0.9145508, 0.401794434)
(0.0270385742, 0.0357055664, 0.914917, 0.401123047)
(0.0270385742, 0.0357055664, 0.914917, 0.401123047)
(0.0266113281, 0.0360107422, 0.915039063, 0.400817871)
(0.0263061523, 0.0360717773, 0.9151001, 0.400634766)
(0.0263061523, 0.0360717773, 0.9151001, 0.400634766)
(0.0263061523, 0.0360107422, 0.9151001, 0.400634766)
(0.0263061523, 0.0360107422, 0.9151001, 0.400634766)
(0.0263061523, 0.0360107422, 0.9151001, 0.400634766)
(0.026550293, 0.0361328125, 0.915039063, 0.4006958)
(0.0267333984, 0.0360717773, 0.914978, 0.400939941)
(0.0267333984, 0.0360717773, 0.914978, 0.400939941)
(0.0267333984, 0.0360717773, 0.914978, 0.400939941)
(0.0267333984, 0.0360717773, 0.914978, 0.400939941)
(0.0270385742, 0.0357666, 0.914855957, 0.401184082)
(0.02709961, 0.0354614258, 0.914855957, 0.401184082)
(0.02709961, 0.0354614258, 0.914855957, 0.401184082)
(0.02709961, 0.0354614258, 0.914855957, 0.401184082)
(0.02709961, 0.0354614258, 0.914855957, 0.401184082)
(0.0272827148, 0.03540039, 0.914855957, 0.401123047)
(0.0272827148, 0.03540039, 0.914855957, 0.401123047)
(0.0271606445, 0.0349731445, 0.914917, 0.401123047)
(0.02709961, 0.0347290039, 0.914978, 0.401000977)
(0.02709961, 0.0347290039, 0.914978, 0.401000977)
(0.02709961, 0.0347290039, 0.914978, 0.401000977)
(0.02709961, 0.0347290039, 0.914978, 0.401000977)
(0.02709961, 0.0347290039, 0.914978, 0.401000977)
(0.02709961, 0.0347290039, 0.914978, 0.401000977)
(0.0271606445, 0.03479004, 0.914978, 0.401000977)
(0.0271606445, 0.03479004, 0.914978, 0.401000977)
(0.0271606445, 0.03479004, 0.914978, 0.401000977)
(0.02722168, 0.0344848633, 0.915039063, 0.400939941)
(0.02722168, 0.0344848633, 0.915039063, 0.400939941)
(0.02722168, 0.0344848633, 0.915039063, 0.400939941)
(0.0272827148, 0.0344848633, 0.915039063, 0.400939941)
(0.0272827148, 0.0344848633, 0.915039063, 0.400939941)
(0.0272827148, 0.0344848633, 0.915039063, 0.400939941)
(0.0272827148, 0.0344848633, 0.915039063, 0.400939941)
(0.0272827148, 0.0344848633, 0.915039063, 0.400939941)
(0.02722168, 0.0343017578, 0.915039063, 0.400817871)
(0.02722168, 0.0343017578, 0.915039063, 0.400817871)
(0.02722168, 0.0343017578, 0.915039063, 0.400817871)
(0.02722168, 0.0343017578, 0.915039063, 0.400817871)
(0.02722168, 0.0343017578, 0.915039063, 0.400817871)
(0.02722168, 0.0343017578, 0.915039063, 0.400817871)
(0.02722168, 0.0343017578, 0.915039063, 0.400817871)
(0.0272827148, 0.0340576172, 0.9151001, 0.4006958)
(0.0272827148, 0.0340576172, 0.9151001, 0.4006958)
(0.0272827148, 0.0340576172, 0.9151001, 0.4006958)
(0.0272827148, 0.0340576172, 0.9151001, 0.4006958)
(0.0272827148, 0.0340576172, 0.9151001, 0.4006958)
(0.02746582, 0.03375244, 0.9151001, 0.400817871)
(0.02746582, 0.03375244, 0.9151001, 0.400817871)
(0.02746582, 0.0335083, 0.915039063, 0.4008789)
(0.02746582, 0.0335083, 0.915039063, 0.4008789)
(0.0275268555, 0.0335083, 0.915039063, 0.4008789)
(0.0275268555, 0.0335083, 0.915039063, 0.4008789)
(0.0275268555, 0.0335083, 0.915039063, 0.4008789)
(0.0275268555, 0.0334472656, 0.915039063, 0.4008789)
(0.0275268555, 0.0334472656, 0.915039063, 0.4008789)
(0.0276489258, 0.03375244, 0.915039063, 0.400817871)
(0.0276489258, 0.03375244, 0.915039063, 0.400817871)
(0.0277709961, 0.03387451, 0.915039063, 0.4008789)
(0.0277709961, 0.03387451, 0.915039063, 0.4008789)
