(0.0165405273, 0.0474243164, 0.9937744, -0.0991210938)
(0.0163574219, 0.04864502, 0.9937744, -0.09881592)
(0.0165405273, 0.0497436523, 0.993652344, -0.0991210938)
(0.0165405273, 0.0497436523, 0.993652344, -0.0991210938)
(0.0178222656, 0.05041504, 0.9935913, -0.0994873047)
(0.0178222656, 0.05041504, 0.9935913, -0.0994873047)
(0.01727295, 0.05407715, 0.9934082, -0.099609375)
(0.0161743164, 0.05218506, 0.993469238, -0.09967041)
(0.0161743164, 0.05218506, 0.993469238, -0.09967041)
(0.0194702148, 0.0502319336, 0.9934082, -0.101074219)
(0.0194702148, 0.0502319336, 0.9934082, -0.101074219)
(0.0205688477, 0.0502319336, 0.993347168, -0.101074219)
(0.0204467773, 0.05432129, 0.9932251, -0.100585938)
(0.0204467773, 0.05432129, 0.9932251, -0.100585938)
(0.0193481445, 0.0587768555, 0.9929199, -0.101013184)
(0.0193481445, 0.0587768555, 0.9929199, -0.101013184)
(0.0189208984, 0.05834961, 0.9929199, -0.101257324)
(0.0193481445, 0.05822754, 0.9928589, -0.102050781)
(0.0193481445, 0.05822754, 0.9928589, -0.102050781)
(0.0193481445, 0.05822754, 0.9928589, -0.102050781)
(0.0204467773, 0.0553588867, 0.992980957, -0.102355957)
(0.0210571289, 0.0546264648, 0.992980957, -0.102233887)
(0.0210571289, 0.0546264648, 0.992980957, -0.102233887)
(0.0210571289, 0.055847168, 0.9929199, -0.102233887)
(0.0210571289, 0.055847168, 0.9929199, -0.102233887)
(0.0206298828, 0.0594482422, 0.9926758, -0.102722168)
(0.0206298828, 0.0594482422, 0.9926758, -0.102722168)
(0.0208740234, 0.0596313477, 0.992614746, -0.103515625)
(0.021484375, 0.05670166, 0.9927368, -0.103393555)
(0.021484375, 0.05670166, 0.9927368, -0.103393555)
(0.0220336914, 0.05609131, 0.992797852, -0.103210449)
(0.0220336914, 0.05609131, 0.992797852, -0.103210449)
(0.0221557617, 0.0577392578, 0.9927368, -0.103027344)
(0.0219726563, 0.05883789, 0.9926758, -0.103027344)
(0.0219726563, 0.05883789, 0.9926758, -0.103027344)
(0.0219726563, 0.0579223633, 0.9926758, -0.103210449)
(0.0219726563, 0.0579223633, 0.9926758, -0.103210449)
(0.0220947266, 0.05633545, 0.992797852, -0.103210449)
(0.0220947266, 0.05633545, 0.992797852, -0.103210449)
(0.0221557617, 0.05633545, 0.992797852, -0.103027344)
(0.0221557617, 0.05633545, 0.992797852, -0.103027344)
(0.0221557617, 0.0576171875, 0.9927368, -0.102844238)
(0.0221557617, 0.0576171875, 0.9927368, -0.102844238)
(0.022277832, 0.0584106445, 0.9927368, -0.102661133)
(0.022277832, 0.0584106445, 0.9927368, -0.102661133)
(0.022277832, 0.0574951172, 0.992797852, -0.102478027)
(0.0222167969, 0.05657959, 0.9928589, -0.102294922)
(0.0222167969, 0.05657959, 0.9928589, -0.102294922)
(0.0221557617, 0.05718994, 0.9928589, -0.102111816)
(0.0221557617, 0.05718994, 0.9928589, -0.102111816)
(0.0220336914, 0.0584106445, 0.992797852, -0.102111816)
(0.0220336914, 0.0584106445, 0.992797852, -0.102111816)
(0.0222167969, 0.05810547, 0.992797852, -0.102111816)
(0.0222167969, 0.05810547, 0.992797852, -0.102111816)
(0.022277832, 0.0579223633, 0.992797852, -0.101928711)
(0.0220947266, 0.05859375, 0.992797852, -0.101806641)
(0.0220947266, 0.05859375, 0.992797852, -0.101806641)
(0.0219116211, 0.059753418, 0.9927368, -0.101745605)
(0.0219116211, 0.059753418, 0.9927368, -0.101745605)
(0.0218505859, 0.05999756, 0.9927368, -0.101806641)
(0.0218505859, 0.05999756, 0.9927368, -0.101806641)
(0.0217285156, 0.0595703125, 0.9927368, -0.101745605)
(0.02166748, 0.05908203, 0.992797852, -0.10168457)
(0.02166748, 0.05908203, 0.992797852, -0.10168457)
(0.02154541, 0.059387207, 0.992797852, -0.101623535)
(0.02154541, 0.059387207, 0.992797852, -0.101623535)
(0.02142334, 0.0601806641, 0.9927368, -0.101501465)
(0.02142334, 0.0601806641, 0.9927368, -0.101501465)
(0.02130127, 0.06048584, 0.9927368, -0.101623535)
(0.02130127, 0.06048584, 0.9927368, -0.101623535)
(0.0211792, 0.06036377, 0.9927368, -0.101623535)
(0.0211792, 0.06036377, 0.9927368, -0.101623535)
(0.0211792, 0.05999756, 0.9927368, -0.10168457)
(0.0211792, 0.0600585938, 0.9927368, -0.10168457)
(0.0211792, 0.0600585938, 0.9927368, -0.10168457)
(0.0211792, 0.0600585938, 0.9927368, -0.10168457)
(0.0211792, 0.0600585938, 0.9927368, -0.10168457)
(0.0211792, 0.0600585938, 0.9927368, -0.101806641)
(0.0211792, 0.059753418, 0.9927368, -0.101867676)
(0.0211792, 0.059753418, 0.9927368, -0.101867676)
(0.0211792, 0.059753418, 0.9927368, -0.101867676)
(0.0211792, 0.059753418, 0.9927368, -0.101867676)
(0.02130127, 0.0599365234, 0.9927368, -0.101867676)
(0.02130127, 0.0599365234, 0.9927368, -0.101867676)
(0.02142334, 0.0604248047, 0.9927368, -0.101806641)
(0.02142334, 0.0603027344, 0.9927368, -0.101806641)
(0.02142334, 0.0603027344, 0.9927368, -0.101806641)
(0.02142334, 0.0603027344, 0.9927368, -0.101806641)
(0.0213623047, 0.06072998, 0.9926758, -0.101928711)
(0.0213623047, 0.06072998, 0.9926758, -0.101928711)
(0.02142334, 0.0611572266, 0.992614746, -0.101989746)
(0.02142334, 0.0611572266, 0.992614746, -0.101989746)
(0.02142334, 0.0611572266, 0.992614746, -0.101989746)
(0.02142334, 0.0611572266, 0.992614746, -0.101989746)
(0.02142334, 0.0611572266, 0.992614746, -0.101989746)
(0.02142334, 0.0611572266, 0.992614746, -0.101989746)
(0.021484375, 0.06121826, 0.992614746, -0.101989746)
(0.021484375, 0.06121826, 0.992614746, -0.101989746)
(0.021484375, 0.06121826, 0.992614746, -0.101989746)
(0.02142334, 0.0615844727, 0.992614746, -0.102050781)
(0.02142334, 0.0615844727, 0.992614746, -0.102050781)
(0.02142334, 0.0616455078, 0.992614746, -0.102050781)
(0.0213623047, 0.0614013672, 0.992614746, -0.102050781)
(0.0213623047, 0.0614013672, 0.992614746, -0.102050781)
(0.0212402344, 0.06097412, 0.9926758, -0.102111816)
(0.0211792, 0.06072998, 0.9926758, -0.102111816)
(0.0211792, 0.06072998, 0.9926758, -0.102111816)
(0.0211181641, 0.0603027344, 0.9926758, -0.102050781)
(0.0211181641, 0.0603027344, 0.9926758, -0.102050781)
(0.0211181641, 0.059753418, 0.9927368, -0.101928711)
(0.0209960938, 0.059753418, 0.9927368, -0.10168457)
(0.0209960938, 0.059753418, 0.9927368, -0.10168457)
(0.0209960938, 0.059753418, 0.992797852, -0.10168457)
(0.0209960938, 0.059753418, 0.992797852, -0.10168457)
(0.0209960938, 0.0598144531, 0.9927368, -0.10168457)
(0.0211181641, 0.0592651367, 0.992797852, -0.10144043)
(0.0211181641, 0.0592651367, 0.992797852, -0.10144043)
(0.0210571289, 0.059387207, 0.9928589, -0.101257324)
(0.0210571289, 0.059387207, 0.9928589, -0.101257324)
(0.0211181641, 0.0595092773, 0.9928589, -0.101135254)
(0.0211181641, 0.0595092773, 0.9928589, -0.101135254)
(0.0211792, 0.0595703125, 0.9928589, -0.101135254)
(0.0211792, 0.0595703125, 0.9928589, -0.101135254)
(0.02130127, 0.0592041, 0.9928589, -0.100952148)
(0.02130127, 0.0592041, 0.9928589, -0.100952148)
(0.0213623047, 0.0592041, 0.9928589, -0.100952148)
(0.0213623047, 0.0592041, 0.9928589, -0.100952148)
(0.0213623047, 0.0595703125, 0.9928589, -0.100830078)
(0.02166748, 0.0596923828, 0.9928589, -0.100585938)
(0.02166748, 0.0596923828, 0.9928589, -0.100585938)
(0.02166748, 0.059753418, 0.9928589, -0.100585938)
(0.02166748, 0.059753418, 0.9928589, -0.100585938)
(0.02166748, 0.0596923828, 0.9928589, -0.100585938)
(0.02166748, 0.0599365234, 0.9928589, -0.100585938)
(0.02166748, 0.0599365234, 0.9928589, -0.100585938)
(0.02166748, 0.0599365234, 0.9928589, -0.100585938)
(0.02166748, 0.0599365234, 0.9928589, -0.100585938)
(0.0217285156, 0.05999756, 0.9928589, -0.100585938)
(0.0217285156, 0.05999756, 0.9928589, -0.100585938)
(0.0217285156, 0.05999756, 0.9928589, -0.100585938)
(0.0217285156, 0.05999756, 0.9928589, -0.100585938)
(0.0218505859, 0.06036377, 0.9928589, -0.1005249)
(0.0218505859, 0.06036377, 0.9928589, -0.1005249)
(0.02178955, 0.0604248047, 0.9928589, -0.1005249)
(0.02178955, 0.06097412, 0.992797852, -0.100585938)
(0.02178955, 0.06097412, 0.992797852, -0.100585938)
(0.02178955, 0.06097412, 0.992797852, -0.100585938)
(0.02178955, 0.06097412, 0.992797852, -0.100585938)
(0.02178955, 0.06097412, 0.992797852, -0.100585938)
(0.02178955, 0.06097412, 0.992797852, -0.100585938)
(0.0218505859, 0.06097412, 0.992797852, -0.100585938)
(0.02178955, 0.0612792969, 0.9927368, -0.100708008)
(0.02178955, 0.0612792969, 0.9927368, -0.100708008)
(0.0216064453, 0.0614013672, 0.9927368, -0.100830078)
(0.0216064453, 0.0614013672, 0.9927368, -0.100830078)
(0.02142334, 0.0616455078, 0.9927368, -0.101074219)
(0.02142334, 0.0615844727, 0.9926758, -0.101318359)
(0.02154541, 0.0617675781, 0.9926758, -0.101501465)
(0.02154541, 0.0617675781, 0.9926758, -0.101501465)
(0.02154541, 0.0617675781, 0.9926758, -0.101501465)
(0.021484375, 0.06201172, 0.992614746, -0.1015625)
(0.0213623047, 0.0621948242, 0.992614746, -0.101745605)
(0.0213623047, 0.0621948242, 0.992614746, -0.101745605)
(0.0212402344, 0.0624389648, 0.9925537, -0.101989746)
(0.0212402344, 0.0624389648, 0.9925537, -0.101989746)
(0.0211181641, 0.0621948242, 0.9925537, -0.102233887)
(0.0211181641, 0.0621948242, 0.9925537, -0.102233887)
(0.0209960938, 0.06201172, 0.9925537, -0.102478027)
(0.0209350586, 0.06225586, 0.9924927, -0.102722168)
(0.0209350586, 0.06225586, 0.9924927, -0.102722168)
(0.0208740234, 0.0624389648, 0.9924927, -0.102966309)
(0.0208740234, 0.0624389648, 0.9924927, -0.102966309)
(0.0207519531, 0.0621948242, 0.9924927, -0.103271484)
(0.020690918, 0.0618286133, 0.9924927, -0.103393555)
(0.020690918, 0.0618286133, 0.9924927, -0.103393555)
(0.020690918, 0.0618286133, 0.9924927, -0.103393555)
(0.020690918, 0.0618286133, 0.9924927, -0.103393555)
(0.0205688477, 0.06213379, 0.992431641, -0.10345459)
(0.0205688477, 0.06213379, 0.992431641, -0.10345459)
(0.0205688477, 0.0621948242, 0.992431641, -0.10345459)
(0.0205688477, 0.0621948242, 0.992431641, -0.10345459)
(0.0205688477, 0.0615844727, 0.9924927, -0.103637695)
(0.0205688477, 0.0615844727, 0.9924927, -0.103637695)
(0.0205688477, 0.061340332, 0.9924927, -0.103759766)
(0.0205688477, 0.061340332, 0.9924927, -0.103759766)
(0.0205688477, 0.061340332, 0.9924927, -0.103759766)
(0.0205688477, 0.061340332, 0.9924927, -0.103759766)
(0.0205688477, 0.061340332, 0.9924927, -0.103759766)
(0.020690918, 0.0609130859, 0.9924927, -0.103881836)
(0.020690918, 0.0609130859, 0.9924927, -0.103881836)
(0.020690918, 0.06060791, 0.9924927, -0.103942871)
(0.020690918, 0.06060791, 0.9924927, -0.103942871)
(0.020690918, 0.0606689453, 0.9924927, -0.103942871)
(0.020690918, 0.0606689453, 0.9924927, -0.103942871)
(0.0208129883, 0.0604248047, 0.9924927, -0.104064941)
(0.0208129883, 0.0601806641, 0.9924927, -0.104125977)
(0.0208129883, 0.0601806641, 0.9924927, -0.104125977)
(0.0207519531, 0.0602417, 0.9924927, -0.104125977)
(0.0207519531, 0.0602417, 0.9924927, -0.104125977)
(0.020690918, 0.05999756, 0.9924927, -0.104125977)
(0.020690918, 0.0594482422, 0.9925537, -0.104187012)
(0.020690918, 0.0594482422, 0.9925537, -0.104187012)
(0.0207519531, 0.05883789, 0.9925537, -0.104187012)
(0.0207519531, 0.05883789, 0.9925537, -0.104187012)
(0.020690918, 0.0586547852, 0.9925537, -0.104187012)
(0.020690918, 0.0586547852, 0.9925537, -0.104187012)
(0.020690918, 0.0586547852, 0.9925537, -0.104187012)
(0.020690918, 0.0586547852, 0.9925537, -0.104187012)
(0.0205688477, 0.05895996, 0.9925537, -0.104064941)
(0.0205688477, 0.05895996, 0.9925537, -0.104064941)
(0.0205688477, 0.05895996, 0.9925537, -0.104064941)
(0.0205688477, 0.05895996, 0.9925537, -0.104064941)
(0.0205688477, 0.0590209961, 0.9925537, -0.104064941)
(0.0205688477, 0.0590209961, 0.9925537, -0.104064941)
(0.0205688477, 0.0590209961, 0.9925537, -0.104064941)
(0.0205688477, 0.05908203, 0.9925537, -0.104064941)
(0.0205688477, 0.05908203, 0.9925537, -0.104064941)
(0.0205688477, 0.05908203, 0.9925537, -0.104064941)
(0.0205688477, 0.05908203, 0.9925537, -0.104064941)
(0.0205688477, 0.05908203, 0.9925537, -0.104064941)
(0.0204467773, 0.0591430664, 0.992614746, -0.103881836)
(0.0204467773, 0.0591430664, 0.992614746, -0.103881836)
(0.0201416016, 0.0593261719, 0.9925537, -0.103881836)
(0.0201416016, 0.0593261719, 0.9925537, -0.103881836)
(0.0198974609, 0.0598144531, 0.9925537, -0.104003906)
(0.0198974609, 0.0598144531, 0.9925537, -0.104003906)
(0.0197143555, 0.0595092773, 0.9925537, -0.104064941)
(0.0197143555, 0.0595092773, 0.9925537, -0.104064941)
(0.01953125, 0.0598144531, 0.9925537, -0.104064941)
(0.01940918, 0.0601806641, 0.9925537, -0.104003906)
(0.01940918, 0.0601806641, 0.9925537, -0.104003906)
(0.0192260742, 0.06072998, 0.9924927, -0.104064941)
(0.0192260742, 0.06072998, 0.9924927, -0.104064941)
(0.0192260742, 0.06072998, 0.9924927, -0.104064941)
(0.0191040039, 0.0610351563, 0.9924927, -0.104125977)
(0.0191040039, 0.0610351563, 0.9924927, -0.104125977)
(0.0191040039, 0.0610351563, 0.9924927, -0.104125977)
(0.0189819336, 0.0614013672, 0.992431641, -0.104187012)
(0.0189208984, 0.0616455078, 0.992431641, -0.104248047)
(0.0189208984, 0.0616455078, 0.992431641, -0.104248047)
(0.0188598633, 0.0620727539, 0.992431641, -0.104187012)
(0.0188598633, 0.0620727539, 0.992431641, -0.104187012)
(0.018737793, 0.06262207, 0.9923706, -0.104248047)
(0.018737793, 0.06262207, 0.9923706, -0.104248047)
(0.0186767578, 0.06304932, 0.9923706, -0.104125977)
(0.0186767578, 0.06311035, 0.9923706, -0.104125977)
(0.0186767578, 0.06311035, 0.9923706, -0.104125977)
(0.0186767578, 0.06311035, 0.9923706, -0.104125977)
(0.0186767578, 0.06311035, 0.9923706, -0.104125977)
(0.0185546875, 0.06378174, 0.9923096, -0.104248047)
(0.0185546875, 0.06378174, 0.9923096, -0.104248047)
(0.0185546875, 0.06378174, 0.9923096, -0.104248047)
(0.0185546875, 0.06378174, 0.9923096, -0.104248047)
(0.0186157227, 0.06378174, 0.9923096, -0.104248047)
(0.0186157227, 0.06378174, 0.9923096, -0.104248047)
(0.0186157227, 0.0642089844, 0.992248535, -0.104248047)
(0.0186157227, 0.06427002, 0.992248535, -0.104248047)
(0.0186157227, 0.06427002, 0.992248535, -0.104248047)
(0.0186157227, 0.0642089844, 0.992248535, -0.104248047)
(0.0186157227, 0.0642089844, 0.992248535, -0.104248047)
(0.0185546875, 0.0647583, 0.992248535, -0.104187012)
(0.0185546875, 0.0647583, 0.992248535, -0.104187012)
(0.0185546875, 0.06512451, 0.992248535, -0.104187012)
(0.0185546875, 0.06518555, 0.9921875, -0.104187012)
(0.0185546875, 0.06518555, 0.9921875, -0.104187012)
(0.0185546875, 0.06512451, 0.9921875, -0.104187012)
(0.0185546875, 0.06512451, 0.9921875, -0.104187012)
(0.0184936523, 0.06561279, 0.9921875, -0.104248047)
(0.0184936523, 0.06561279, 0.9921875, -0.104248047)
(0.0184936523, 0.06567383, 0.9921875, -0.104248047)
(0.0184936523, 0.06567383, 0.9921875, -0.104248047)
(0.0184936523, 0.06555176, 0.9921875, -0.104309082)
(0.0184936523, 0.06555176, 0.9921875, -0.104309082)
(0.0184936523, 0.06555176, 0.9921875, -0.104309082)
(0.0185546875, 0.06555176, 0.9921875, -0.104309082)
(0.0185546875, 0.06555176, 0.9921875, -0.104309082)
(0.0185546875, 0.06555176, 0.9921875, -0.104309082)
(0.0184936523, 0.06591797, 0.992126465, -0.104309082)
(0.0184936523, 0.06591797, 0.992126465, -0.104309082)
(0.0184936523, 0.06591797, 0.992126465, -0.104309082)
(0.0184936523, 0.0659790039, 0.992126465, -0.104309082)
(0.0184936523, 0.0659790039, 0.992126465, -0.104309082)
(0.0184936523, 0.0657959, 0.9921875, -0.104309082)
(0.0184936523, 0.06585693, 0.9921875, -0.104309082)
(0.0184936523, 0.06585693, 0.9921875, -0.104309082)
(0.0184936523, 0.06585693, 0.9921875, -0.104309082)
(0.0184936523, 0.06585693, 0.9921875, -0.104309082)
(0.0184936523, 0.06585693, 0.9921875, -0.104309082)
(0.0184936523, 0.06591797, 0.992126465, -0.104309082)
(0.0184936523, 0.06591797, 0.992126465, -0.104309082)
(0.0184936523, 0.06591797, 0.992126465, -0.104309082)
(0.0184936523, 0.06591797, 0.992126465, -0.104309082)
(0.0184936523, 0.06591797, 0.992126465, -0.104309082)
(0.0185546875, 0.06591797, 0.992126465, -0.104309082)
(0.0185546875, 0.06591797, 0.992126465, -0.104309082)
(0.0185546875, 0.06591797, 0.992126465, -0.104309082)
(0.0185546875, 0.06591797, 0.992126465, -0.104309082)
(0.0185546875, 0.06591797, 0.992126465, -0.104309082)
(0.0184936523, 0.0661010742, 0.992126465, -0.104431152)
(0.0184936523, 0.0661010742, 0.992126465, -0.104431152)
(0.0184936523, 0.0661010742, 0.992126465, -0.104431152)
(0.0184936523, 0.0661010742, 0.992126465, -0.104431152)
(0.0185546875, 0.06628418, 0.992126465, -0.104492188)
(0.0184936523, 0.0663452148, 0.992126465, -0.104492188)
(0.0184936523, 0.0663452148, 0.992126465, -0.104492188)
(0.0184326172, 0.0661010742, 0.992126465, -0.104431152)
(0.0184326172, 0.0661010742, 0.992126465, -0.104431152)
(0.0184326172, 0.0661010742, 0.992126465, -0.104431152)
(0.0184326172, 0.0661010742, 0.992126465, -0.104431152)
(0.0184326172, 0.0661010742, 0.992126465, -0.104431152)
(0.0184326172, 0.06616211, 0.992126465, -0.104431152)
(0.0184326172, 0.06616211, 0.992126465, -0.104431152)
(0.0184326172, 0.06616211, 0.992126465, -0.104431152)
(0.0184326172, 0.06616211, 0.992126465, -0.104431152)
(0.0184326172, 0.06616211, 0.992126465, -0.104431152)
(0.0184326172, 0.06616211, 0.992126465, -0.104431152)
(0.0184326172, 0.0662231445, 0.992126465, -0.104431152)
(0.0184326172, 0.0662231445, 0.992126465, -0.104431152)
(0.0184326172, 0.0662231445, 0.992126465, -0.104431152)
(0.0185546875, 0.06585693, 0.9921875, -0.104309082)
(0.0185546875, 0.06585693, 0.9921875, -0.104309082)
(0.0186767578, 0.0662231445, 0.992126465, -0.104064941)
(0.0186767578, 0.0662231445, 0.992126465, -0.104064941)
(0.0186767578, 0.0662231445, 0.992126465, -0.104064941)
(0.0186767578, 0.0662231445, 0.992126465, -0.104064941)
(0.0186767578, 0.0662231445, 0.992126465, -0.104064941)
(0.0186767578, 0.0662231445, 0.992126465, -0.104064941)
(0.0191650391, 0.06585693, 0.9921875, -0.1038208)
(0.0194702148, 0.0661010742, 0.9921875, -0.103637695)
(0.0194702148, 0.0661010742, 0.9921875, -0.103637695)
(0.0194702148, 0.0661010742, 0.9921875, -0.103637695)
(0.01977539, 0.06677246, 0.9921875, -0.10345459)
(0.0198974609, 0.06677246, 0.9921875, -0.10345459)
(0.0198974609, 0.06677246, 0.9921875, -0.10345459)
(0.0198974609, 0.06677246, 0.9921875, -0.10345459)
(0.0204467773, 0.06585693, 0.9921875, -0.103393555)
(0.0204467773, 0.06585693, 0.9921875, -0.103393555)
(0.0204467773, 0.06585693, 0.9921875, -0.103393555)
(0.0204467773, 0.06585693, 0.9921875, -0.103393555)
(0.02130127, 0.0665893555, 0.9921875, -0.103210449)
(0.02130127, 0.0665893555, 0.9921875, -0.103210449)
(0.02166748, 0.0665893555, 0.9921875, -0.103027344)
(0.02166748, 0.0665893555, 0.9921875, -0.103027344)
(0.0219116211, 0.06652832, 0.9921875, -0.102844238)
(0.0220336914, 0.06640625, 0.9921875, -0.102844238)
(0.0220336914, 0.06640625, 0.9921875, -0.102844238)
(0.0220336914, 0.06640625, 0.9921875, -0.102844238)
(0.022277832, 0.06628418, 0.9921875, -0.102905273)
(0.0225219727, 0.06573486, 0.9921875, -0.103149414)
(0.0225219727, 0.06573486, 0.9921875, -0.103149414)
(0.0225219727, 0.06573486, 0.9921875, -0.103149414)
(0.0225219727, 0.06573486, 0.9921875, -0.103149414)
(0.0227050781, 0.0647583, 0.992248535, -0.103515625)
(0.0227050781, 0.0647583, 0.992248535, -0.103515625)
(0.0227050781, 0.0647583, 0.992248535, -0.103515625)
(0.0227050781, 0.0647583, 0.992248535, -0.103515625)
(0.0228881836, 0.0648193359, 0.9921875, -0.104064941)
(0.0231323242, 0.0645751953, 0.992126465, -0.104309082)
(0.0231323242, 0.0645751953, 0.992126465, -0.104309082)
(0.0231323242, 0.0645751953, 0.992126465, -0.104309082)
(0.02368164, 0.0639648438, 0.992126465, -0.104736328)
(0.02368164, 0.0639648438, 0.992126465, -0.104736328)
(0.02368164, 0.0639648438, 0.992126465, -0.104736328)
(0.0238647461, 0.0640869141, 0.9920654, -0.105041504)
(0.0240478516, 0.06414795, 0.9920044, -0.105529785)
(0.0241699219, 0.06390381, 0.9920044, -0.1060791)
(0.0241699219, 0.06390381, 0.9920044, -0.1060791)
(0.0241699219, 0.06390381, 0.9920044, -0.1060791)
(0.024230957, 0.0635376, 0.991943359, -0.106445313)
(0.024230957, 0.0635376, 0.991943359, -0.106445313)
(0.0243530273, 0.0635376, 0.991943359, -0.106750488)
(0.0243530273, 0.06365967, 0.9918823, -0.107055664)
(0.0243530273, 0.06365967, 0.9918823, -0.107055664)
(0.0244140625, 0.06390381, 0.9918213, -0.107299805)
(0.0244140625, 0.06390381, 0.9918213, -0.107299805)
(0.0244140625, 0.06390381, 0.9918213, -0.107299805)
(0.0244140625, 0.06390381, 0.9918213, -0.10736084)
(0.0244140625, 0.0645751953, 0.991760254, -0.10748291)
(0.0244140625, 0.0645751953, 0.991760254, -0.10748291)
(0.0244140625, 0.0645751953, 0.991760254, -0.10748291)
(0.0244140625, 0.0645751953, 0.991760254, -0.10748291)
(0.024597168, 0.06585693, 0.9916992, -0.10748291)
(0.024597168, 0.06585693, 0.9916992, -0.10748291)
(0.024597168, 0.0661010742, 0.9916382, -0.107543945)
(0.024597168, 0.0661010742, 0.9916382, -0.107543945)
(0.0247192383, 0.0663452148, 0.9916382, -0.10748291)
(0.0246582031, 0.06665039, 0.9916382, -0.10748291)
(0.0246582031, 0.06665039, 0.9916382, -0.10748291)
(0.0246582031, 0.06665039, 0.9916382, -0.10748291)
(0.0246582031, 0.0667114258, 0.9916382, -0.10748291)
(0.0246582031, 0.0667114258, 0.9916382, -0.10748291)
(0.0246582031, 0.0667114258, 0.9916382, -0.10748291)
(0.0246582031, 0.0667114258, 0.9916382, -0.10748291)
(0.0245361328, 0.06616211, 0.9916382, -0.10760498)
(0.0243530273, 0.06567383, 0.9916992, -0.10760498)
(0.0243530273, 0.06567383, 0.9916992, -0.10760498)
(0.0240478516, 0.06542969, 0.9916992, -0.10760498)
(0.0240478516, 0.06542969, 0.9916992, -0.10760498)
(0.0238647461, 0.06506348, 0.991760254, -0.107421875)
(0.0238647461, 0.06506348, 0.991760254, -0.107421875)
(0.0238647461, 0.06506348, 0.991760254, -0.107421875)
(0.0238647461, 0.06506348, 0.991760254, -0.107421875)
(0.0239868164, 0.06463623, 0.9918213, -0.107299805)
(0.0239868164, 0.06463623, 0.9918213, -0.107299805)
(0.0239868164, 0.06463623, 0.9918213, -0.107299805)
(0.0239868164, 0.06463623, 0.9918213, -0.107299805)
(0.024230957, 0.0643310547, 0.9918213, -0.1071167)
(0.024230957, 0.0643310547, 0.9918213, -0.1071167)
(0.024230957, 0.0643310547, 0.9918213, -0.1071167)
(0.024230957, 0.0643310547, 0.9918213, -0.1071167)
(0.0242919922, 0.06414795, 0.9918213, -0.107177734)
(0.0246582031, 0.0642089844, 0.9918213, -0.10736084)
(0.0246582031, 0.0642089844, 0.9918213, -0.10736084)
(0.0246582031, 0.0642089844, 0.9918213, -0.10736084)
(0.0249633789, 0.06390381, 0.9918213, -0.107299805)
(0.0252685547, 0.0639648438, 0.9918213, -0.10723877)
(0.0252685547, 0.0639648438, 0.9918213, -0.10723877)
(0.0252685547, 0.0639648438, 0.9918213, -0.10723877)
(0.02532959, 0.064453125, 0.9918213, -0.10723877)
(0.0252685547, 0.06402588, 0.9918213, -0.107177734)
(0.0252685547, 0.06402588, 0.9918213, -0.107177734)
(0.0252685547, 0.0642089844, 0.9918213, -0.1071167)
(0.0251464844, 0.0648193359, 0.9918213, -0.106994629)
(0.0251464844, 0.0648193359, 0.9918213, -0.106994629)
(0.0251464844, 0.0648193359, 0.9918213, -0.106994629)
(0.02520752, 0.06488037, 0.9918213, -0.106994629)
(0.02520752, 0.06488037, 0.991760254, -0.106994629)
(0.02520752, 0.06488037, 0.991760254, -0.106994629)
(0.02520752, 0.06488037, 0.991760254, -0.106994629)
(0.0251464844, 0.06561279, 0.991760254, -0.106933594)
(0.02520752, 0.06665039, 0.9916992, -0.106994629)
(0.02520752, 0.06665039, 0.9916992, -0.106994629)
(0.02520752, 0.06665039, 0.9916992, -0.106994629)
(0.025390625, 0.06842041, 0.9915161, -0.1071167)
(0.02545166, 0.06964111, 0.991394043, -0.107849121)
(0.02545166, 0.06964111, 0.991394043, -0.107849121)
(0.0256347656, 0.0702514648, 0.991333, -0.107849121)
