22,-16,32,-14,23,-10,-11,-10,-49,15
35,-15,26,-23,8,-11,-16,-1,-29,37
18,-20,11,-29,-3,-5,5,29,-9,38
16,-6,-10,-26,0,0,41,37,-20,40
40,-6,-5,-32,-5,-6,4,-3,-26,37
63,0,12,-34,-5,-13,-43,-22,-29,25
61,19,10,-19,-6,-6,-38,-21,-21,10
49,29,-16,-18,0,4,-23,-29,-23,-2
38,66,-78,-10,-7,11,-30,-31,-46,-16
34,108,-77,-7,-11,8,-32,-35,-40,-23
31,78,5,-8,-6,-5,-21,-27,-26,-14
11,31,48,-11,-16,-24,-4,-26,-18,-17
-5,20,-15,-8,-18,-6,7,-10,6,-12
-3,15,-2,-5,-8,7,38,9,13,-13
5,11,15,-3,-4,6,32,-4,4,-13
7,16,-84,-28,-6,6,-1,-15,6,7
7,23,-110,-26,-15,5,-6,-12,9,1
0,10,-23,-14,-9,4,-8,-5,13,18
-30,-41,21,-5,2,4,-3,0,16,36
-41,-61,26,-9,9,7,9,3,29,3
-38,-70,23,-5,-1,6,7,16,42,-28
-36,-76,32,3,-9,6,21,46,46,-28
-31,-43,51,8,0,14,32,61,35,-6
-26,-31,44,8,1,17,20,41,26,-18
-19,-31,56,10,7,8,18,18,24,-16
11,18,67,16,14,9,18,12,30,15
28,25,51,21,10,0,3,0,37,9
19,4,50,17,11,-12,-7,-12,46,-21
14,24,49,12,8,-33,-1,-15,21,-26
20,54,47,3,11,-34,18,-12,19,-11
31,61,39,2,3,-23,20,-11,35,5
30,70,40,5,-1,-5,44,-4,14,15
28,75,23,4,-3,-6,58,12,-11,15
21,60,17,-2,-9,-5,50,5,-27,6
-1,15,15,-1,-19,-22,27,-4,-37,9
-3,-53,3,-2,-18,-39,0,-17,-50,8
4,-53,5,-3,-14,-46,-16,-25,-61,-6
17,-25,2,-6,-9,-43,-25,-13,-72,-26
4,-2,-26,10,0,-16,-8,-1,-73,-38
20,0,-45,12,-9,-15,16,6,-55,-14
9,-73,12,7,-4,-17,39,4,-32,10
-25,-143,5,2,7,-13,53,3,-33,8
-39,-139,-6,11,4,-16,33,11,-21,1
-36,-143,-13,21,0,-3,20,11,4,9
-19,-121,-16,19,-6,9,-7,-2,15,14
3,-81,-4,18,-4,7,-21,8,18,39
-4,-59,8,19,3,12,-3,22,25,39
-59,-34,-2,16,10,29,10,-13,0,-11
-56,0,-2,21,3,14,-12,-28,-9,-41
-17,40,18,14,9,1,-43,-3,7,-35
0,38,17,0,-1,1,-85,-1,-85,-31
-23,-14,7,-9,-11,-14,-140,-18,-200,-35
-20,9,22,14,10,0,-51,0,3,-29
15,59,28,11,-4,1,-23,-4,45,-22
12,126,32,16,-18,8,-8,4,23,-24
-15,123,11,3,-11,7,-2,7,-19,-26
-16,90,-15,-24,-43,-2,8,-8,-25,-28
16,62,-35,-26,-63,-7,36,-26,-12,-4
54,59,-50,-8,-49,-8,37,-28,14,26
46,38,-3,-5,-25,-13,35,-29,20,36
37,-34,-23,-22,-26,-24,26,-20,37,95
25,-76,-51,-20,-26,-18,23,0,57,128
33,18,-13,-4,-19,2,6,19,59,80
24,117,26,0,-38,-6,9,6,20,21
0,120,27,15,-37,-10,29,2,1,-15
-46,57,21,20,-25,-3,23,-34,2,-50
-80,-16,3,28,-2,26,36,-42,24,-53
-62,-35,-9,26,5,53,47,-12,58,1
-38,-20,-22,28,5,56,29,-20,69,49
-46,-30,-45,23,14,67,13,-6,73,41
-64,-28,-20,27,20,50,23,2,64,19
-52,-17,-71,11,8,25,33,-3,48,16
-13,-17,-52,-9,-12,6,4,-15,25,7
18,8,-18,-8,-15,-3,2,-19,2,11
17,22,-11,1,-16,2,6,-12,-8,10
25,25,-7,2,-24,0,0,-15,-13,18
46,53,-3,9,-26,-20,-16,-27,-25,17
68,56,-37,17,-15,-31,-29,-33,-32,9
89,35,-104,3,-25,-47,-44,-37,-40,7
102,32,-15,-12,-34,-50,-48,-28,-46,6
64,38,7,-19,-26,-31,-23,-24,-66,-12
40,23,4,-32,-21,-45,-17,-31,-64,-21
71,42,39,-20,-24,-50,-48,-44,-56,8
71,68,60,-2,-19,-20,-55,-48,-55,46
10,103,59,31,5,18,-26,-24,-44,39
-76,80,28,51,35,47,26,27,-30,7
-117,-50,-10,29,29,33,20,28,-26,-19
-140,-147,-2,26,23,20,26,29,-34,-56
-152,-153,-6,46,31,33,28,61,-16,-77
-130,-32,19,50,29,14,-2,36,-27,-83
-117,41,-3,42,-6,-25,-8,6,-41,-78
-59,-16,-65,8,-44,-64,-4,-18,-36,-47
-22,-40,-46,0,-40,-41,-1,-22,-11,-26
-4,-52,-52,5,-18,0,15,-16,18,-5
45,-14,-63,-20,-20,-24,15,-8,24,-1
122,63,-53,-37,-45,-70,-14,-7,13,-1
212,174,31,-42,-60,-61,-38,-13,9,22
252,254,63,-29,-39,-50,-40,-10,1,26
206,208,66,-3,3,-23,-18,2,-4,11
115,141,63,25,25,17,2,36,30,31
36,51,35,19,34,43,13,90,85,77
-82,-164,-6,5,42,48,55,104,89,53
-198,-239,-41,-6,53,43,66,64,44,-18
-220,-196,-24,9,63,48,67,48,41,-29
-145,-138,-15,16,52,38,50,50,79,4
-81,-92,-36,4,41,35,22,33,89,21
-61,-122,-34,-11,15,7,1,26,58,22
-90,-170,-2,-11,10,12,15,48,46,32
-96,-125,8,6,21,18,5,50,10,13
-55,-4,0,-2,10,7,-20,23,-33,-34
24,175,12,-18,-7,-19,-50,-19,-65,-39
105,341,76,-18,-29,-47,-80,-31,-77,-9
136,429,134,-4,-45,-52,-83,-14,-84,4
152,418,135,4,-34,-31,-70,-13,-114,-9
186,386,120,-3,-17,-33,-54,-20,-112,0
116,177,89,13,17,-23,-31,-10,-88,-1
-81,-265,-3,0,31,6,-1,-25,-70,-17
-231,-598,-90,-17,29,25,45,-30,-41,-8
-207,-506,-58,-12,28,20,47,-35,-32,-11
-118,-238,7,-10,20,1,-7,-54,-37,0
-51,-126,20,-8,13,3,-29,-60,-25,20
21,-124,33,0,21,17,-14,27,9,75
70,-77,18,9,33,38,27,144,61,114
38,-51,5,14,43,53,38,123,72,99
-25,-91,-29,-9,41,46,44,64,52,57
-27,-106,-60,-12,25,29,26,15,35,28
-49,-59,-24,-1,17,12,-1,-19,6,-3
-106,116,41,14,11,-2,-30,-44,-30,-65
-91,320,108,21,-6,-47,-80,-100,-73,-101
11,337,82,1,-18,-73,-92,-108,-78,-61
78,254,49,-11,-14,-48,-55,-78,-50,-6
114,207,53,11,-6,-40,-29,-58,-12,6
132,149,66,24,-5,-26,1,-36,33,40
83,71,12,11,-4,4,15,-14,66,51
65,92,-66,-2,12,35,56,7,65,25
100,277,8,9,13,27,48,-16,45,6
87,282,67,28,19,30,52,-17,61,45
-6,82,20,19,33,38,95,22,85,66
-86,10,-14,-8,18,13,51,7,33,14
-87,56,17,-7,-5,-17,-6,-31,-35,-48
0,15,6,-2,2,3,11,-16,-27,-11
2,-230,-112,-29,11,29,57,20,16,53
-59,-377,-153,-60,-5,16,45,2,-2,36
-33,-193,-34,-42,-11,-6,-5,-25,-43,-2
62,78,25,-7,-2,-4,-27,-14,-59,1
41,86,19,-9,-10,-18,-42,-1,-57,-8
-71,-79,1,-24,-36,-31,-38,-7,-64,-37
-22,0,-15,-34,-53,-47,-24,-24,-80,-41
87,46,-53,-32,-43,-60,-12,-27,-36,-4
90,-113,-16,-4,-4,-23,10,-3,5,18
37,-230,9,16,17,11,36,-18,6,9
-8,-90,48,27,8,8,17,-92,-62,-43
9,94,72,11,-14,-43,-46,-153,-144,-110
70,147,65,-15,-45,-79,-75,-140,-161,-120
67,137,15,-30,-61,-94,-107,-112,-135,-92
45,149,-10,-45,-63,-101,-106,-93,-88,-53
136,115,4,-42,-66,-93,-100,-68,-72,-5
182,-59,-21,-10,-31,-44,-76,0,-5,46
82,-236,-101,32,33,23,2,76,87,91
40,-65,-50,57,42,32,10,47,85,69
87,241,141,40,-3,-20,-42,-24,9,-7
170,433,172,34,-17,-31,-52,-59,-54,-55
173,512,233,80,25,-16,-37,-55,-47,-79
19,381,239,122,47,-3,-10,-7,-19,-100
-13,35,47,79,32,12,11,28,-10,-81
62,-290,-177,19,11,26,18,33,32,-7
165,-107,-124,21,-12,-4,0,-4,35,51
321,264,-16,12,-36,-52,-39,-4,70,136
326,498,9,-11,-54,-66,-30,-3,73,151
150,381,3,-29,-36,-41,26,10,85,100
-112,-12,-15,24,65,78,155,132,148,48
-125,-124,0,52,77,92,162,131,115,-32
174,-93,46,67,42,45,107,54,79,-32
309,-317,46,77,35,27,55,24,72,23
96,-542,0,98,68,67,66,90,116,73
-40,-213,10,48,15,29,36,51,104,40
-70,41,-68,-88,-108,-113,-79,-93,-39,-69
-148,-33,-157,-167,-157,-167,-134,-156,-130,-124
-244,-287,-192,-149,-126,-125,-86,-108,-110,-93
-12,-152,-239,-162,-149,-141,-109,-97,-88,-12
405,313,-214,-201,-211,-193,-183,-143,-107,74
396,421,-197,-195,-179,-170,-180,-131,-115,56
224,408,-84,-115,-135,-142,-191,-112,-125,22
486,834,160,-39,-153,-219,-271,-189,-179,39
450,746,198,5,-87,-173,-182,-147,-148,28
-93,15,72,80,88,14,64,79,-1,-28
-343,-422,55,84,123,61,144,146,69,-37
-252,-207,188,92,76,47,81,42,54,-12
-140,-41,177,66,76,154,45,10,14,-30
-153,33,115,49,71,128,54,43,10,-53
-135,5,42,13,62,54,30,45,46,22
60,6,17,-3,53,32,9,37,64,62
155,102,57,-14,24,44,9,33,38,-1
-8,27,50,-14,29,82,40,49,-18,-135
-81,69,46,16,58,119,85,67,-20,-131
-41,44,10,93,130,182,151,144,129,20
-343,-559,-211,84,159,237,216,227,214,48
-782,-976,-367,3,142,230,247,256,203,-18
-851,-927,-260,55,175,248,256,243,202,-13
-954,-1131,-102,110,208,260,251,241,182,-70
-815,-829,-66,51,123,171,139,132,79,-153
-386,-265,-92,-32,18,45,-3,-9,-26,-175
-42,-143,-168,-57,-14,11,-36,-40,-39,-89
145,-89,-187,-69,-19,11,-9,-31,-16,-16
353,222,-111,-74,-58,-13,-7,-40,14,60
220,163,-75,-40,-27,29,30,30,72,92
-280,-572,-164,8,106,164,191,198,195,81
-554,-904,-233,-15,117,172,204,185,163,-1
-356,-442,-135,-37,52,85,100,64,61,-25
-86,-44,-48,-19,26,37,35,28,9,6
19,37,0,5,16,16,2,30,-17,13
163,13,21,4,1,-2,-9,23,-26,45
255,-29,30,15,15,10,-26,27,-18,50
335,103,26,49,48,8,-55,7,-47,9
565,424,59,40,23,-34,-121,-53,-97,-17
616,708,195,5,-12,-61,-162,-78,-112,20
538,748,153,-63,-88,-117,-200,-95,-116,40
537,612,27,-145,-188,-189,-251,-147,-160,27
325,449,56,-87,-117,-119,-162,-95,-115,35
85,240,110,-5,-20,-33,-76,-6,-37,21
44,65,91,-18,-21,-38,-88,-16,-49,-2
41,-35,93,-5,-16,-19,-78,-15,-38,15
217,55,83,17,17,23,-15,59,38,99
380,195,78,65,77,83,51,119,90,133
210,-61,-43,49,68,92,54,93,71,43
-158,-85,-117,-60,-29,5,-18,-8,-41,-120
-199,169,-83,-72,-49,-31,-32,-40,-70,-129
-235,-86,-30,-23,-4,-3,32,5,-6,-50
-381,-296,79,2,-9,-38,-17,-40,-22,-27
-387,-58,217,-18,-81,-153,-156,-198,-131,-104
-64,496,403,10,-104,-199,-198,-251,-170,-118
327,885,420,31,-83,-178,-173,-213,-132,-33
543,1058,252,4,-60,-121,-136,-152,-58,51
475,855,-3,10,60,51,40,41,110,127
-118,-141,-245,-13,114,145,157,146,169,16
-655,-861,-293,-74,26,46,51,20,34,-158
-41,13,20,-66,-64,-98,-108,-126,-62,-73
728,795,245,-8,-68,-133,-155,-158,-45,88
804,828,252,15,-50,-95,-97,-102,0,144
336,224,85,0,-20,-35,-2,-4,74,122
54,-187,-34,-15,43,45,99,87,129,82
58,-381,-148,-53,53,59,104,114,134,72
-253,-641,-248,-89,12,15,24,47,14,-105
-369,-104,-139,-54,-10,-12,-40,-21,-103,-237
-411,355,167,31,20,-11,-38,-37,-136,-254
-125,514,326,112,87,64,31,37,-24,-94
329,447,196,49,35,4,-22,16,40,95
135,-618,-119,10,68,38,28,54,97,220
-684,-1608,-435,-42,110,130,140,126,95,89
-842,-1080,-328,-21,121,128,165,127,55,-24
-762,-672,-53,45,125,100,97,58,-22,-112
-653,-349,139,59,74,62,11,-21,-94,-176
-247,-58,292,121,77,49,-3,-47,-103,-88
-219,-109,315,219,174,131,60,6,-73,-110
-524,-87,219,176,174,150,76,61,-47,-212
-597,-164,-95,2,64,73,40,45,-24,-186
-386,-155,-367,-143,-58,-16,-26,-12,-46,-97
12,129,-325,-171,-112,-72,-83,-68,-40,15
414,320,-166,-144,-127,-125,-134,-103,-23,133
647,264,-103,-121,-120,-122,-122,-60,29,220
991,661,104,-96,-156,-177,-173,-94,-1,230
1076,1182,451,3,-165,-215,-230,-173,-86,135
544,1130,669,116,-78,-152,-198,-195,-177,-71
35,637,584,160,12,-46,-87,-147,-192,-220
-321,-89,181,87,34,24,-17,-73,-124,-221
-591,-929,-472,-69,49,111,121,131,83,-61
-393,-840,-669,-167,13,119,169,178,168,35
226,-171,-317,-115,-32,40,54,83,146,171
555,-1,-98,4,24,75,52,100,173,272
401,-156,-109,74,106,168,136,190,271,311
165,-309,-230,44,121,207,194,256,309,293
-191,-449,-238,23,78,152,130,167,146,62
-508,-359,19,95,74,113,63,55,-1,-156
-323,215,305,152,74,82,35,-12,-53,-190
67,515,252,94,14,23,-15,-75,-63,-81
203,674,42,-35,-64,-33,-14,-47,34,72
83,430,-171,-113,-72,13,51,11,89,142
-222,-290,-410,-159,-45,43,61,-5,35,32
-7,-159,-325,-188,-161,-120,-141,-208,-162,-87
253,53,-168,-188,-243,-250,-288,-333,-276,-100
647,412,66,-93,-175,-203,-222,-269,-206,13
803,236,189,23,-41,-54,-44,-87,16,209
447,-183,132,101,112,135,150,96,178,258
162,-243,-6,58,106,165,192,127,172,188
-624,-715,-181,-74,-25,38,55,-16,-12,-87
-995,-286,-9,-77,-94,-94,-86,-190,-210,-336
-311,485,335,46,-25,-65,-92,-182,-188,-215
596,1174,598,174,68,27,-2,-34,7,150
1129,1436,633,253,168,155,153,163,250,479
655,566,449,283,257,255,238,240,276,377
-478,-372,223,183,174,151,72,14,-49,-131
-640,-534,-14,53,43,5,-98,-169,-240,-321
-136,67,-118,-34,-45,-89,-176,-226,-268,-274
259,539,-140,-101,-113,-138,-194,-237,-229,-150
-51,-3,42,-30,-34,-43,-44,-138,-129,-88
-233,-272,-67,-103,-59,-33,16,-109,-69,-62
37,31,-193,-157,-94,-56,-14,-91,-13,77
-3,-205,-236,-175,-137,-125,-91,-132,-37,120
-475,-1059,-478,-236,-136,-79,-21,-57,16,96
-1110,-1464,-314,-67,40,98,153,77,82,2
-795,-1264,-66,142,203,192,180,68,30,-71
-190,-411,80,179,178,120,89,-32,-81,-113
123,359,189,170,176,167,143,72,30,-5
-218,11,-109,105,225,297,307,257,206,52
-828,146,-428,-114,32,102,151,105,48,-151
-345,975,-396,-278,-141,-70,-4,-18,-35,-117
521,1246,-103,-220,-127,-59,17,24,61,107
823,736,155,-73,-52,-34,40,32,108,202
226,-310,313,97,63,6,48,9,43,56
-225,-428,360,180,108,19,48,-4,-32,-105
-282,180,26,69,28,-32,14,-21,-78,-187
-258,-265,-538,-147,-104,-122,-44,-64,-116,-207
288,38,-572,-251,-233,-158,-168,-177,-175,-110
1138,628,-253,-174,-223,-148,-185,-137,-68,166
301,-304,-212,-123,-155,-140,-124,-82,-36,60
-855,-404,-98,-73,-69,-52,-26,-31,-43,-195
-675,-111,327,213,196,205,200,208,180,-16
-382,86,791,331,214,159,130,118,74,-43
62,651,997,211,-2,-107,-142,-168,-171,-130
235,576,601,22,-166,-238,-257,-257,-208,-108
383,98,75,-96,-185,-205,-204,-184,-152,-133
422,-403,-479,-188,-104,-58,-2,21,23,-47
425,-804,-908,-199,38,164,257,263,266,182
766,-565,-689,-125,63,155,243,220,231,269
998,255,-333,-82,-7,35,99,109,161,300
834,365,-255,-124,-120,-93,-69,-4,54,254
-400,210,-146,-83,-126,-147,-143,-121,-142,-156
-1694,300,126,104,40,5,-33,-80,-226,-545
-1744,-353,162,269,267,255,231,176,-18,-438
-756,-385,100,232,213,200,210,184,53,-183
181,-202,54,103,53,39,84,100,73,93
548,-324,-35,-55,-105,-113,-37,-1,39,213
948,704,107,-136,-256,-306,-230,-193,-115,183
1352,1588,481,-103,-371,-475,-397,-375,-276,94
1455,1305,783,26,-324,-456,-436,-376,-251,201
768,-738,174,178,85,36,54,95,121,293
-1092,-2787,-658,198,495,581,626,587,371,-54
-1569,-641,-11,188,407,470,486,429,113,-441
-1398,306,531,239,271,267,269,236,-74,-523
-1221,370,552,146,68,23,7,14,-200,-471
-669,17,-1,-39,-85,-87,-93,-72,-183,-261
-170,-60,-472,-183,-163,-150,-113,-101,-172,-120
255,25,-552,-164,-90,-67,1,51,25,131
682,445,-388,-85,61,127,213,294,346,517
893,492,-265,-82,32,83,193,268,353,566
831,67,-205,-70,-66,-50,76,120,214,410
1061,880,606,103,-112,-175,-121,-94,-7,268
755,544,960,229,-93,-229,-238,-251,-214,-3
-251,-161,659,309,28,-128,-200,-292,-328,-297
-1021,-964,-178,108,32,-13,-55,-161,-235,-385
-618,-420,-650,-210,-136,-87,-42,-97,-125,-187
-386,-272,-850,-348,-196,-103,-19,-42,-98,-122
-90,-100,-692,-214,-51,65,151,136,68,-12
333,5,-516,-167,-37,39,153,145,127,88
-28,-266,-230,-34,30,47,121,100,75,-36
-839,-437,179,227,234,228,235,204,98,-182
-966,-357,251,225,255,281,294,289,181,-67
-803,-533,378,122,100,148,180,198,186,79
-953,-409,383,66,-6,24,49,83,121,51
-593,41,416,61,-33,-30,-26,0,54,39
-172,-72,214,77,-59,-76,-105,-111,-65,-25
398,315,-341,55,-99,-123,-189,-200,-133,12
413,131,-80,239,118,71,30,-14,39,181
-51,-326,239,222,168,151,107,57,63,102
-469,-438,-220,-104,50,127,135,114,104,20
-286,-330,-326,-276,13,188,278,317,355,258
563,73,160,-124,12,124,195,246,352,402
1269,248,289,-26,-14,14,51,92,226,390
1451,672,-106,-134,-155,-139,-139,-117,-12,183
1141,1325,-433,-187,-206,-201,-211,-196,-141,67
269,252,-790,-321,-251,-263,-316,-231,-355,-78
40,-72,-570,-336,-260,-234,-246,-202,-211,-121
833,925,93,-192,-262,-272,-271,-246,-115,-7
946,763,-71,-168,-182,-185,-155,-130,-28,66
654,192,-263,-34,65,106,135,143,156,114
650,-221,-73,84,121,108,120,125,138,138
-231,-1001,-16,44,23,-13,4,32,52,55
-1772,-1456,-145,-8,55,63,79,70,-28,-328
-2291,-1141,288,213,264,240,192,121,-72,-511
-1973,-559,445,218,222,181,145,68,-120,-479
-1344,-169,172,0,25,29,76,70,4,-176
-908,-282,-99,-69,-33,-29,26,37,43,-41
-465,-48,-200,0,38,19,36,22,-10,-90
360,166,-258,-37,19,24,61,76,57,66
1594,507,-210,-106,-72,-64,3,90,152,349
2636,842,-96,-168,-213,-226,-180,-42,74,445
2496,838,84,-158,-259,-273,-238,-128,-28,338
682,142,357,28,-97,-96,-78,-60,-80,15
-974,-381,350,201,108,83,77,44,-66,-212
-1235,223,352,226,122,45,2,-86,-219,-470
-309,1543,648,116,-108,-220,-315,-401,-471,-591
754,1469,465,-14,-213,-283,-353,-307,-258,-144
601,-297,-146,-65,-118,-122,-128,-37,-11,93
-120,-1006,-446,-16,-9,-2,9,34,-15,34
-1080,-677,-356,-28,-16,-35,-35,-65,-153,-238
-1303,-738,119,125,119,52,66,25,-81,-328
-778,-636,256,202,254,225,235,163,79,-75
24,911,375,167,165,132,95,-3,-59,-87
785,1403,243,129,58,11,7,-22,48,177
464,231,-18,54,6,-40,-21,18,186,365
-554,-1245,-468,-49,28,37,85,78,202,190
-798,-1129,-549,-108,65,144,201,209,294,77
-179,-389,11,7,91,158,201,241,336,145
-311,-521,225,72,110,140,186,179,269,116
-589,-228,-32,10,69,86,97,23,50,-73
8,322,-363,-100,23,83,112,27,30,-11
1038,1057,-162,-50,-11,30,64,52,136,195
1650,1250,72,-87,-120,-88,-78,-4,146,396
1017,448,76,-111,-148,-132,-122,-47,76,371
-247,-268,-30,-10,-36,-26,-6,-6,22,147
-912,-683,19,86,-5,-16,-18,-96,-87,-73
-897,-113,181,107,-29,-65,-90,-168,-155,-194
-302,371,165,35,-44,-56,-53,-89,-55,-105
531,343,103,-13,-28,-15,22,24,107,119
307,486,245,7,-67,-78,-68,-65,-33,23
-116,-453,135,66,15,1,3,-38,-130,-192
-224,-744,194,21,0,-18,5,-49,-136,-243
-178,286,464,-5,-50,-71,-20,-47,-85,-161
-899,736,599,110,32,-15,-2,-113,-237,-490
-1115,711,317,146,49,-12,-28,-149,-247,-473
-149,585,6,171,80,27,33,24,105,165
462,458,-180,172,107,63,54,109,261,520
-115,-720,-195,84,45,7,-56,32,160,401
-1110,-1528,-435,-5,46,44,-16,26,71,29
56,338,-281,-102,-67,-61,-106,-83,-43,24
1593,1843,-40,-234,-295,-284,-302,-224,-145,240
1659,1321,-170,-294,-284,-222,-210,-101,-30,396
47,-844,-583,-224,-56,60,114,150,106,217
-1183,-1958,-772,-85,127,262,317,283,139,13
-843,-621,-358,-126,0,128,177,158,26,-102
392,612,-20,-135,-93,-9,24,47,-10,14
1182,923,60,-148,-200,-156,-145,-79,-58,183
1180,692,84,-109,-177,-164,-193,-117,-81,256
962,1239,470,66,-91,-136,-209,-143,-90,265
-227,476,762,193,-18,-85,-217,-170,-197,-41
-1618,-485,627,174,82,60,-41,-36,-180,-311
-1001,-862,-114,-73,51,105,131,152,21,-161
812,510,-588,-303,-101,0,70,150,114,129
1467,2156,-330,-229,-163,-69,-78,-11,0,92
-289,96,-437,-84,19,214,130,128,26,-181
-1550,-897,-378,-31,58,179,143,102,-100,-422
-1134,-258,-183,19,56,101,94,57,-175,-407
-6,342,185,38,6,38,43,41,-113,-162
1569,573,347,-5,-65,-25,-11,19,-20,249
1912,436,437,31,-61,-51,-83,-56,-25,410
257,-666,339,26,-62,-81,-146,-100,10,223
-2081,-1044,-15,54,7,-17,-109,-107,-65,-365
-1865,162,41,201,190,207,115,103,124,-288
-772,-17,243,264,209,211,90,78,99,-148
110,469,131,81,-27,-63,-209,-263,-285,-414
859,867,104,14,-104,-123,-235,-277,-278,-314
666,99,17,75,28,52,17,21,50,-20
-299,-1008,-540,95,249,377,394,422,439,201
-1056,-1033,-794,-82,168,333,383,394,424,205
-936,-433,-685,-215,-28,71,131,146,241,181
-131,74,-434,-260,-173,-112,-63,-47,62,95
778,533,-233,-267,-289,-241,-212,-186,-74,104
1420,738,94,-113,-245,-271,-278,-227,-123,195
1307,394,277,50,-78,-158,-184,-121,-25,244
237,384,530,159,0,-102,-148,-117,-102,-56
-433,1066,625,72,-62,-146,-186,-161,-211,-268
-198,715,287,-131,-141,-133,-133,-38,-64,5
-12,-882,-352,-203,-80,-43,-15,73,100,283
-36,-1294,-505,-77,45,39,38,70,102,258
81,-302,-182,37,57,-10,-71,-47,-32,143
-151,201,133,133,76,-1,-93,-112,-162,-88
-460,-75,77,89,78,57,-15,-12,-132,-200
-721,-319,-52,62,130,150,112,129,-14,-231
-463,-16,154,123,130,112,59,65,-54,-273
721,681,449,150,49,6,-62,-27,-43,-25
1446,803,178,6,-101,-135,-167,-83,34,339
1286,-218,-598,-415,-408,-386,-366,-226,-38,362
1185,390,-619,-624,-632,-624,-582,-462,-229,198
813,304,102,-230,-327,-379,-372,-341,-173,82
-320,-630,295,171,152,139,114,64,25,-111
-101,548,476,248,175,134,97,29,-56,-248
647,1089,578,373,280,230,221,135,46,-93
-693,-354,429,506,454,395,372,234,86,-186
-2051,-1273,64,328,283,224,198,63,-93,-433
-1479,-886,-471,19,17,0,7,-71,-202,-462
-206,-316,-786,-257,-127,-80,-38,-50,-97,-169
243,-215,-503,-342,-237,-186,-134,-101,-52,4
-8,188,-102,-199,-201,-212,-184,-143,-71,-29
28,204,-139,-91,-85,-109,-83,-84,3,-4
506,110,-48,43,76,72,95,115,240,180
630,-82,56,142,174,173,148,143,225,177
15,-480,32,132,161,144,110,69,100,0
-85,118,23,-8,-7,0,-2,2,79,116
810,768,127,15,3,10,-4,15,100,269
1316,482,205,78,30,-14,-32,-38,68,389
-521,-1201,-177,0,79,84,100,51,85,-13
-1431,-417,-99,-70,14,46,78,34,-23,-459
-213,237,-143,-125,-80,-36,17,4,-28,-220
620,-214,-551,-306,-246,-188,-114,-95,-40,18
-97,-456,-219,-115,-112,-97,-70,-53,-14,-68
-379,480,722,289,120,17,12,-23,-19,-115
-125,270,808,468,367,290,271,219,178,46
-308,-741,307,381,446,465,456,420,378,189
-668,-387,-93,94,192,201,191,168,152,90
-1451,72,80,-60,-56,-111,-98,-172,-194,-313
-1579,-448,-24,106,151,120,155,41,-88,-386
-776,-277,-103,136,179,165,202,96,-41,-246
317,230,-89,9,-12,-24,34,-21,-49,0
591,268,-163,-101,-93,-74,8,-10,-2,84
-225,-339,-279,-166,-71,-24,47,15,-8,-79
-134,-217,-196,-75,29,48,100,100,143,8
904,330,-114,-83,12,31,114,136,282,410
1071,657,42,-33,10,1,43,68,218,454
445,260,161,10,-34,-70,-78,-50,31,160
-363,-158,192,22,-99,-170,-219,-220,-173,-129
-193,-255,90,50,-86,-181,-204,-245,-171,-44
469,353,41,-50,-178,-256,-234,-253,-119,110
1027,1097,200,-140,-306,-364,-366,-343,-138,282
1228,962,-26,-223,-325,-363,-373,-324,-96,385
433,572,368,34,-82,-158,-181,-167,-59,104
-1623,-674,903,489,365,227,157,51,-79,-520
-1774,-811,613,501,447,327,291,174,12,-469
-387,-431,-91,137,181,156,202,161,111,-22
730,-71,-80,-173,-92,-34,78,94,174,293
762,158,-183,-422,-319,-128,-36,19,145,409
402,74,-114,-395,-363,-194,-196,-171,-70,153
496,60,-239,-157,-196,-156,-157,-167,-87,62
1217,164,-711,-69,37,125,179,185,244,368
1135,411,-575,-114,-29,51,92,73,113,168
-981,-108,-60,-33,-82,-74,-101,-215,-298,-567
-2164,-260,154,119,71,80,44,-51,-196,-647
-643,517,370,176,45,4,-33,-49,-125,-308
839,986,294,149,-77,-163,-199,-171,-164,-95
760,131,160,117,-75,-170,-167,-123,-103,-48
-364,-1337,-86,64,60,35,92,123,83,-78
-1175,-1626,-344,-44,110,116,225,246,181,-118
-517,200,197,-7,67,51,87,29,54,-156
-117,746,537,137,105,96,-36,-175,-117,-255
-82,653,154,235,183,134,34,-66,-11,-147
-119,392,-136,181,175,160,131,72,160,53
-730,-653,-262,75,119,144,143,93,179,88
-888,-621,-174,-30,47,90,105,69,124,20
407,412,-129,-130,-28,39,77,93,220,324
2171,811,-239,-211,-144,-65,1,58,285,749
2642,746,-154,-133,-147,-116,-82,6,268,856
1322,652,239,20,-139,-220,-282,-245,-83,337
-482,570,389,49,-148,-318,-391,-414,-368,-213
-348,479,173,-64,-192,-324,-336,-303,-228,-27
-311,476,140,-54,-117,-225,-208,-171,-157,-98
-1018,-651,39,159,190,104,119,74,-47,-389
-500,-932,-462,80,266,261,330,270,86,-337
679,326,-352,-62,66,94,134,125,17,-155
297,-24,50,17,109,238,173,139,47,-90
-880,-248,534,180,169,310,162,78,-23,-308
-1328,162,841,192,30,50,-89,-167,-260,-523
-637,377,529,70,-130,-170,-258,-300,-360,-454
757,407,-207,-89,-66,-44,-26,13,21,139
1527,-91,-678,-85,123,230,286,355,408,629
209,-808,-466,41,150,228,246,294,332,417
-1771,-902,-275,62,21,39,42,60,51,-157
-1507,103,-324,2,-108,-106,-39,-10,1,-216
-332,263,-310,43,-27,-9,72,90,113,72
87,382,-237,12,-57,-56,2,20,19,83
207,960,-66,-7,-152,-184,-162,-114,-92,20
207,554,-112,-8,-124,-168,-139,-59,4,94
562,255,-143,-43,-110,-142,-68,20,75,166
597,90,-23,13,-75,-110,-25,-12,-10,11
-216,-478,-47,68,-14,-19,26,-7,-78,-256
-1019,-816,-154,90,34,79,81,35,-33,-366
-220,-243,-110,119,66,135,139,89,37,-179
454,-251,-54,29,-33,1,39,40,-25,-132
549,-144,-29,-66,-147,-149,-109,-57,-74,-100
630,492,159,-75,-164,-169,-150,-129,-150,-129
2094,2206,255,-197,-308,-311,-308,-285,-151,114
3459,2194,289,-216,-332,-341,-349,-275,51,577
1984,-56,219,-14,-22,-7,-23,65,379,679
-1627,-1477,407,266,291,248,197,96,110,-262
-3133,242,1002,319,133,-24,-144,-353,-501,-995
-1844,982,925,417,101,-109,-237,-382,-387,-475
-1162,176,498,521,317,138,40,-60,-31,-56
-1151,-405,402,427,362,242,185,125,72,-109
-177,20,-223,-31,-34,-70,-62,-5,-9,-8
830,508,-656,-259,-164,-132,-52,93,202,388
1441,215,-810,-283,-110,-37,65,268,436,716
1431,341,-222,-120,-28,1,-4,134,293,665
-329,-1332,-381,-21,81,161,47,21,24,179
-1644,-1345,-649,-70,84,196,104,16,-112,-270
-536,-187,-371,-176,-67,-19,13,12,-27,-69
279,243,-120,-217,-177,-174,-87,-72,-43,56
-127,633,-38,-136,-90,-105,-41,-62,-95,-148
-564,366,-133,16,127,136,169,122,20,-170
-285,-292,-426,16,195,241,291,280,195,72
-362,-856,-640,-131,81,137,206,205,158,4
234,70,-42,-133,-61,-56,-21,-48,-94,-133
1710,1142,556,-1,-89,-159,-142,-141,-91,196
1563,902,420,-37,-130,-183,-151,-101,3,362
603,104,-70,-141,-117,-80,0,73,132,285
324,-205,-423,-233,-163,-100,-19,35,54,174
1147,604,-37,-139,-172,-217,-222,-231,-204,41
1278,145,302,-47,-184,-319,-384,-440,-426,-153
-335,-155,469,75,-67,-224,-292,-396,-438,-432
-1502,31,197,147,155,99,64,-21,-57,-307
-2280,-831,-203,112,292,344,340,265,165,-276
-2396,-943,14,153,295,349,343,283,161,-359
-1634,-330,310,320,338,333,254,162,10,-443
-707,357,219,180,195,185,109,51,-26,-268
-102,193,-273,-55,95,151,164,181,190,81
234,-362,-714,-194,5,120,186,261,321,261
845,-242,-478,-227,-133,-53,14,119,268,436
976,-103,-238,-174,-149,-140,-82,-29,108,335
92,-142,-56,-85,-146,-182,-199,-227,-220,-175
-578,538,368,-95,-166,-145,-273,-290,-314,-343
1286,1332,693,-167,-268,-248,-336,-244,-139,204
2465,1349,573,-103,-218,-241,-272,-153,-16,439
642,-611,-61,-22,14,23,3,75,27,-21
-1526,-1251,-185,174,253,216,203,187,-73,-654
-1389,-173,342,346,304,190,161,79,-192,-634
-981,-354,6,140,194,146,116,56,-127,-292
-218,-58,-205,-131,-29,-31,-26,-51,-112,3
918,476,-348,-403,-331,-315,-272,-184,-110,320
1029,286,-240,-386,-329,-325,-293,-142,-69,209
-306,-641,-213,-119,7,-25,-33,50,-143,-268
-694,-1005,-260,33,193,177,119,152,-142,-360
-73,-329,-153,-22,79,77,73,71,20,-32
-163,116,110,72,90,41,61,47,92,156
-190,304,99,29,-10,-63,-36,-13,107,324
388,336,49,-60,-106,-157,-113,-54,162,468
369,-322,-88,-4,52,42,107,152,257,359
-268,-867,-314,-11,186,232,309,334,283,127
-180,242,-149,-99,46,78,125,156,157,50
1061,1163,228,-69,-89,-71,-82,-16,159,387
1511,1173,833,28,-193,-231,-285,-197,44,478
588,825,1209,161,-207,-362,-449,-424,-278,4
-883,-1236,334,132,15,-57,-178,-255,-325,-531
-1092,-1450,-361,-163,0,58,7,-53,-190,-561
-338,216,-62,-124,-35,4,-5,-24,-132,-372
-696,-339,-114,111,199,212,201,155,-5,-287
-617,99,-40,191,164,92,96,23,-122,-255
330,1297,176,66,-107,-242,-224,-266,-341,-188
1016,1211,-151,-166,-248,-339,-262,-257,-289,-104
880,286,-479,-138,-53,-74,25,13,-97,-168
550,-501,-523,-14,147,167,274,228,60,-249
166,-1115,-581,-14,209,310,380,336,186,-57
-614,-1072,-410,-116,117,319,302,234,146,12
-1102,1,98,-57,114,312,225,158,76,-56
-588,598,369,21,31,62,53,31,80,192
181,527,256,-86,-180,-219,-186,-141,97,474
727,131,-122,-206,-280,-293,-230,-138,141,519
851,-6,-197,-98,-109,-95,-39,44,250,553
522,420,377,175,120,96,107,91,153,280
823,1362,940,296,111,21,-48,-105,-84,38
874,328,704,225,13,-57,-175,-159,-86,60
5,-1037,95,9,-156,-195,-292,-258,-158,28
-1223,-665,-445,-79,-133,-151,-208,-245,-247,-293
-1095,-1,-398,-49,-17,6,-2,-70,-153,-446
-213,199,5,18,51,102,144,131,79,-185
18,57,208,72,87,117,150,177,164,15
-236,212,207,63,72,65,55,87,123,72
-854,27,254,100,85,14,-11,-32,-15,-46
-1419,-55,349,179,69,-47,-108,-156,-154,-251
-533,215,-13,12,0,4,-51,-38,-17,4
742,22,-541,-223,-102,68,-18,38,112,365
1249,24,-540,-223,-84,81,14,88,150,381
445,-248,178,12,65,131,118,157,158,130
-440,-209,441,50,68,61,51,80,56,-122
-47,-207,123,-47,-45,-79,-86,-43,17,-47
510,-545,-343,-130,-89,-82,-54,-7,121,233
121,-311,-531,-131,-57,-18,45,90,193,214
-636,446,-256,-68,-13,17,39,62,72,-122
-415,401,-192,-120,-82,-81,-54,-18,-30,-184
-25,-317,-322,-65,46,49,58,28,-21,-147
833,-145,-507,14,174,215,227,150,149,175
1532,362,-407,-24,90,132,161,169,277,528
547,-373,-297,-19,69,94,94,140,194,324
-1231,-881,137,113,90,51,-12,-56,-125,-301
-1037,874,808,178,-12,-153,-241,-347,-398,-505
-348,1120,907,120,-86,-232,-278,-357,-366,-315
-831,-62,424,43,-56,-141,-122,-174,-206,-251
-795,-324,52,-92,-93,-119,-56,-98,-86,-184
-370,-349,-169,-65,35,53,115,119,104,18
-388,-370,-131,204,239,194,237,240,167,62
-403,-488,-223,123,158,182,188,165,64,-39
78,-110,-217,-26,81,201,159,108,-18,-119
1319,639,328,8,12,65,79,82,53,191
2330,804,658,107,-25,2,-6,61,197,592
1325,-317,183,-1,-97,-86,-89,-34,101,415
-766,-1247,-814,-256,-161,-137,-81,-88,-82,-130
-752,-368,-799,-234,-88,-55,-15,-64,-142,-294
-109,419,-351,-178,-94,-76,-59,-57,-181,-216
-139,112,-99,-134,-116,-136,-156,-47,-320,-149
-371,-4,33,3,-5,-10,-52,-10,-251,-313
-131,-145,-61,54,68,94,60,53,-93,-211
229,-299,79,128,78,95,45,0,-86,-136
278,-308,228,166,77,61,11,-48,-48,73
-60,-293,160,143,141,120,23,75,21,278
-152,539,245,122,98,90,36,0,28,68
-109,897,289,23,-124,-171,-181,-301,-245,-212
-173,488,-53,-157,-254,-286,-240,-324,-163,-25
-59,172,-180,-126,-189,-186,-116,-131,138,317
162,304,-17,5,-65,-87,-53,-57,168,289
694,725,221,85,-4,-42,-17,-47,89,153
376,652,306,112,-26,-75,-73,-136,-49,-75
160,-353,-169,-32,-37,-18,13,-5,114,93
605,-870,-458,-154,24,149,248,334,515,593
495,-193,25,-107,-34,47,115,216,379,460
-337,303,390,-116,-216,-214,-172,-90,25,154
-1312,-333,291,26,-102,-155,-179,-181,-213,-260
-1738,-867,20,196,159,93,17,-91,-306,-680
-805,-188,51,286,279,255,195,107,-131,-557
719,354,-80,110,127,143,147,156,30,-71
2525,1222,-73,-114,-65,-23,31,103,138,514
3104,1161,-32,-187,-111,-73,24,114,247,755
1071,136,125,-39,-80,-132,-60,-55,30,181
-1488,264,619,282,3,-163,-195,-307,-362,-656
-1899,-355,424,413,171,34,-19,-127,-168,-495
-841,-1450,43,221,133,65,58,3,69,48
37,-251,416,94,26,-32,-61,-61,61,281
699,868,191,-129,-186,-201,-242,-175,-53,310
1375,822,-400,-406,-327,-253,-224,-98,73,492
562,-495,-486,-210,-25,58,99,157,202,302
-2110,-2530,-435,154,390,405,403,316,135,-413
-2675,-1526,-522,156,447,448,490,398,149,-587
-913,427,-246,95,270,244,369,345,224,-134
99,1067,520,145,100,4,133,89,42,-87
307,743,725,207,58,-121,-45,-161,-200,-275
1168,786,152,3,-56,-191,-147,-216,-179,-50
1846,762,-47,-201,-177,-149,-211,-186,-12,338
602,458,503,-8,-87,-44,-212,-232,-119,74
-1244,-205,810,244,134,25,-33,-141,-206,-354
-1753,-642,613,321,203,50,39,-50,-164,-410
-1188,-606,197,171,68,-29,-3,-27,-73,-253
-653,-625,-117,-3,-10,-23,49,57,55,-97
-71,-611,-513,-189,-54,60,125,161,190,116
794,36,-919,-373,-55,191,187,195,208,256
1576,592,-811,-329,-17,170,201,241,312,505
1724,980,-268,-58,41,71,144,181,246,484
974,1178,466,147,-15,-113,-129,-172,-200,-64
235,449,375,6,-135,-183,-241,-259,-219,-171
-394,-1813,-347,-139,-13,94,74,120,209,-9
-1240,-2136,-624,-140,98,239,258,250,178,-391
-1871,-1020,-178,-7,102,156,142,58,-113,-712
-1020,232,442,151,124,103,58,-4,-53,-266
-253,742,716,278,166,95,22,-22,-3,10
-187,55,191,117,75,47,-1,-8,27,78
-274,-704,-600,-9,87,129,141,147,180,196
-3,-782,-436,73,159,190,234,215,218,248
60,-608,-55,82,96,110,152,136,137,224
-579,-604,-248,-80,-26,18,42,62,68,87
-649,-297,-376,-162,-67,-11,-53,-5,-25,-33
129,644,-56,-114,-106,-93,-167,-133,-168,-37
757,747,113,-36,-54,-62,-115,-86,-119,101
1310,545,-33,-60,-33,-20,-59,-32,-13,223
1035,470,-35,-147,-144,-127,-174,-144,-83,112
74,-12,-44,-135,-138,-142,-155,-165,-157,-119
-659,-535,-159,-91,-37,-40,4,-17,-64,-158
-733,-132,-132,-76,-25,-51,30,24,-25,-146
-393,207,12,-43,-16,-100,17,62,30,24
463,-4,84,7,27,-53,66,103,112,220
1089,-581,-229,-79,-1,53,84,114,127,294
941,-476,-211,-36,0,69,50,102,104,228
-249,-147,215,92,30,11,-11,7,-42,-46
-1208,46,286,102,19,-34,-56,-82,-167,-321
-1086,-164,132,56,-26,-61,-67,-82,-146,-235
-272,135,-8,-44,-94,-98,-80,-66,-63,22
711,655,64,-65,-138,-167,-153,-148,-48,249
1638,596,264,7,-155,-248,-244,-235,-73,382
1868,-125,112,32,-131,-213,-195,-166,-3,396
1027,-207,159,51,-97,-190,-187,-188,-127,21
200,266,560,102,0,-52,-56,-76,-88,-136
0,218,323,1,2,5,48,23,-24,-124
335,344,-415,-286,-190,-164,-100,-90,-146,-188
1097,972,-645,-390,-257,-205,-129,-73,-79,-65
1464,802,-300,-232,-165,-122,-40,33,110,133
-628,-821,112,238,262,244,278,210,127,-247
-2429,-1892,53,314,376,367,348,153,-43,-560
-1598,-785,-89,38,77,89,96,-52,-92,-209
-43,708,78,-155,-183,-174,-122,-144,-2,260
292,864,333,18,-61,-63,-43,-21,105,272
-260,-129,221,153,129,143,144,121,139,-11
-527,-580,-41,105,173,218,262,237,221,27
-138,-566,-33,70,138,140,219,210,192,117
-44,-459,1,74,52,-33,34,31,17,15
-221,-176,69,71,38,-85,-2,26,77,114
102,221,109,-33,-40,-140,-46,-11,42,32
600,467,42,-109,-96,-136,-61,-51,-28,-12
787,250,46,-119,-98,-55,-97,-122,-98,-36
273,-213,2,-59,-13,60,-56,-86,-97,-119
-503,-821,-97,-45,41,98,73,68,11,-93
-990,-434,286,98,104,69,94,60,-55,-168
-1345,-382,546,296,210,124,77,-22,-244,-504
-1097,-329,90,125,122,93,38,-3,-110,-294
-265,264,-169,47,48,54,12,45,114,190
933,699,-328,-75,-63,-22,-14,89,226,572
1493,355,-365,-186,-140,-93,-75,53,216,670
674,-514,-576,-150,-99,-56,-64,0,21,257
-594,-835,-488,-59,-12,9,11,-15,-117,-209
-418,-510,-353,-45,19,71,104,84,3,-116
590,362,-239,-69,-20,44,103,142,152,239
1465,652,-38,-82,-112,-85,-30,25,145,500
1224,145,72,-110,-208,-236,-197,-137,17,435
-219,-393,332,-76,-209,-299,-288,-305,-278,-154
-939,254,824,81,-42,-139,-147,-240,-372,-565
-246,866,914,111,7,-50,-52,-121,-239,-414
-241,362,877,180,21,-89,-151,-211,-330,-500
-767,-81,675,344,170,29,-67,-162,-307,-575
-540,-828,-306,245,372,377,367,310,187,-162
-247,-1407,-1069,-78,284,419,528,521,500,204
107,-458,-506,-52,173,212,339,307,341,190
202,117,-33,77,191,148,235,164,173,121
145,140,295,156,158,64,89,19,58,118
-10,-300,214,96,49,-66,-49,-120,-47,61
-195,-10,109,54,9,-73,-85,-166,-130,-116
-440,71,6,23,-6,-6,-75,-143,-121,-165
-47,-231,-447,-86,24,187,76,78,142,159
-40,-430,-378,2,143,243,194,213,251,186
24,-494,93,162,152,84,76,104,105,32
643,-632,-134,-35,-29,-51,-42,20,76,160
1266,668,-520,-396,-342,-318,-272,-162,-31,234
889,869,-471,-391,-378,-389,-372,-256,-145,75
-579,-330,-236,-97,-87,-99,-112,-84,-88,-188
-1333,-386,144,115,121,114,72,43,-66,-371
-586,49,303,186,181,172,122,94,8,-189
374,234,225,103,104,86,72,76,65,58
828,261,10,-62,-46,-52,-34,10,40,179
953,395,67,-130,-164,-181,-149,-89,-3,271
566,159,75,-46,-121,-175,-160,-120,-33,189
85,-255,9,-35,-126,-189,-187,-169,-133,21
-53,48,322,-4,-133,-176,-264,-246,-193,-29
-39,534,461,-56,-165,-135,-249,-189,-117,27
663,236,193,-194,-227,-174,-159,-28,79,332
972,-359,-214,-216,-102,31,132,281,344,593
1044,277,19,34,76,187,235,331,278,439
1174,1099,590,118,-77,-115,-168,-159,-218,5
746,437,956,108,-211,-355,-458,-524,-569,-395
-1019,-880,734,289,104,-4,-112,-242,-353,-711
-2501,-2348,27,401,408,402,323,181,11,-673
-2393,-1286,-110,230,272,297,281,152,21,-480
-1204,157,11,34,5,5,2,-61,-118,-319
-445,-91,-629,-144,9,81,119,83,13,-159
242,-101,-805,-198,43,134,182,160,127,-11
1039,573,-470,-169,-23,70,110,120,198,213
877,557,-135,-66,34,128,167,193,270,287
-3,215,207,105,152,184,194,180,221,178
-683,-348,139,99,109,136,102,68,116,165
-573,-1057,-244,63,111,153,100,94,141,203
-131,-631,-355,-15,69,132,121,153,209,226
-103,-86,-468,-153,-72,7,65,91,135,87
314,422,-294,-65,-63,-20,66,66,102,39
641,171,225,98,-11,-60,-8,-9,54,87
936,-251,239,134,4,-103,-85,-68,93,287
220,-258,205,176,54,-90,-65,-115,-22,39
-1099,65,337,63,70,-6,86,-13,-141,-441
-562,155,722,0,14,17,121,58,-74,-352
423,123,685,-135,-212,-123,-154,-182,-191,-261
153,105,113,-222,-308,-206,-337,-432,-475,-539
-67,916,-106,-29,-76,-61,-217,-397,-510,-611
-204,202,-225,165,134,126,-20,-142,-167,-214
-824,-249,-63,344,277,245,136,119,201,190
-861,-521,-339,201,223,246,188,226,311,344
235,-79,-660,-132,5,121,169,255,324,478
1037,550,-257,-169,-79,19,95,205,268,467
408,252,179,35,6,20,31,101,83,145
-394,-530,-307,-44,-23,-21,-47,-17,-82,-123
670,267,-466,-246,-217,-201,-185,-66,55,325
1246,378,-116,-173,-220,-210,-190,-38,182,602
-483,-612,-61,44,43,23,-21,-6,-24,-75
-1611,-976,-208,84,224,280,257,229,25,-371
-837,-395,-77,66,201,294,318,294,100,-227
-177,-17,8,73,131,168,194,156,-10,-203
287,-258,-271,8,118,164,163,199,93,30
310,-351,23,47,53,45,23,45,13,-56
72,-229,241,-37,-106,-169,-199,-208,-213,-211
223,-87,40,-117,-136,-157,-179,-145,-120,80
136,-415,-100,-118,-89,-77,-84,-24,90,347
204,294,82,-133,-198,-248,-273,-208,-9,317
1276,1377,267,-154,-302,-377,-399,-288,-56,499
2398,1523,337,-35,-145,-163,-158,-35,212,798
1687,546,130,80,46,47,29,82,225,578
-892,-1491,-208,0,35,11,-12,-41,-57,-161
-2853,-1233,29,132,161,131,113,11,-166,-773
-1854,-312,191,282,250,213,184,90,-87,-586
-900,-316,103,221,179,161,154,68,-37,-275
-842,-590,118,186,145,140,161,48,-35,-227
-629,-22,244,163,126,116,120,11,-50,-193
-196,169,202,122,85,65,66,-23,-5,-48
-146,-339,154,149,106,73,88,16,33,-33
-51,-388,41,130,144,111,165,114,83,-86
599,345,-191,-129,-61,-35,74,52,90,17
1044,619,-166,-231,-208,-168,-88,-98,18,152
558,128,-450,-283,-189,-103,-56,-55,64,235
-53,-127,-330,-133,-9,60,118,103,164,220
58,432,129,23,24,19,33,-10,31,107
342,294,259,58,-15,-28,-39,-35,22,150
148,-201,348,158,43,-16,-39,-46,-43,-73
-360,445,357,113,13,-66,-90,-130,-221,-391
-212,626,106,-30,-40,-91,-73,-106,-188,-299
874,0,-153,-75,-16,-14,22,50,54,122
2102,358,-259,-206,-111,-70,10,107,210,571
1250,-130,-306,-196,-100,-60,-10,102,181,472
-1527,-778,124,9,15,-20,-47,-48,-119,-274
-2097,-442,384,128,79,2,-59,-130,-219,-411
-1155,-216,253,124,67,-45,-121,-164,-235,-279
-386,-73,-64,17,-1,-102,-161,-148,-223,-181
133,68,-190,-18,9,-45,-78,-11,-76,-17
392,-43,-150,-37,36,18,23,104,38,90
631,778,446,30,-46,-137,-99,-43,-22,179
1182,1343,668,-32,-194,-289,-271,-166,-37,366
1299,884,303,-149,-242,-165,-300,-172,-57,299
917,126,-32,-178,-188,-63,-163,-77,-56,70
312,-840,-274,-24,64,144,137,130,-3,-219
286,-900,-353,233,407,442,444,355,159,-231
493,-583,-318,65,275,321,348,346,321,135
-382,-764,-249,-148,-7,74,158,198,233,134
-1048,-244,-77,-25,-33,-8,13,-19,-126,-372
-1152,-308,77,151,110,69,18,-59,-247,-474
-642,-546,503,189,125,71,28,-36,-192,-333
343,466,1077,140,-60,-148,-183,-256,-332,-272
847,1509,1442,73,-200,-290,-303,-373,-331,-62
845,759,737,-93,-237,-282,-259,-302,-183,279
65,-748,-552,-161,-20,47,128,92,134,334
-908,-700,-1169,-144,106,217,321,296,307,99
-1268,-735,-1056,43,208,259,332,290,332,49
-1102,-797,-749,109,209,237,287,222,243,46
-597,-193,-43,142,142,120,125,47,60,-90
-3,322,422,137,43,-32,-55,-132,-81,-157
363,844,207,11,-64,-119,-116,-162,-70,-73
409,810,-270,-234,-204,-174,-122,-122,-9,0
117,-152,-683,-302,-146,-55,31,42,124,128
157,-197,-358,-170,-60,6,59,71,129,187
626,-239,-282,-101,-15,56,73,93,133,260
798,-336,-281,-103,-32,33,41,65,102,258
931,9,-403,-218,-138,-81,-39,18,114,321
659,528,-171,-216,-205,-163,-121,-49,77,238
-249,-143,53,36,11,38,27,18,5,-155
-700,-755,26,176,186,204,187,114,-23,-246
-885,-687,47,155,153,186,149,84,-78,-312
-775,-398,-3,45,48,93,48,74,5,-176
-466,-146,-29,-26,-11,36,-25,56,-13,-153
493,295,-20,-104,-124,-93,-134,-60,-128,-95
1331,577,90,-79,-182,-189,-212,-148,-142,93
1498,-1,35,-140,-213,-200,-196,-82,2,388
710,-102,-11,-205,-288,-286,-287,-197,-167,0
85,813,158,-56,-173,-224,-274,-290,-326,-314
-395,667,283,136,92,59,14,3,-24,-79
-893,-155,226,228,205,191,186,165,138,40
-889,-856,-50,109,101,105,115,82,86,89
-357,-829,-248,-33,-10,23,37,50,123,255
-611,-487,-45,70,83,91,37,15,23,8
-1062,-50,297,168,116,88,-25,-74,-154,-309
-676,51,-19,52,78,120,55,79,67,-61
-127,-208,-236,0,97,172,165,210,260,202
186,28,-56,16,81,140,143,183,252,288
343,329,183,80,72,88,108,169,259,311
541,346,449,166,22,-52,-70,-11,69,161
630,465,549,215,-31,-191,-237,-203,-175,-15
900,673,213,24,-126,-264,-275,-241,-189,56
910,765,121,-215,-333,-411,-380,-303,-178,95
-62,-44,298,-50,-130,-146,-146,-115,-57,-31
-892,-571,293,188,205,291,167,97,12,-204
-1548,-690,238,292,325,395,234,95,-99,-479
-1290,-857,85,253,265,279,168,48,-116,-421
-608,-864,-420,0,122,203,181,157,66,-117
89,-146,-454,-182,-21,62,110,141,86,6
833,144,-216,-178,-60,-5,62,91,60,105
1233,445,122,-73,-27,-12,45,46,20,140
739,18,311,-55,-118,-166,-147,-177,-166,-54
-148,-285,131,-183,-256,-299,-317,-329,-255,-180
-394,-279,-216,-152,-126,-87,-152,-206,-195,-225
-383,173,-303,-2,86,174,77,28,23,-145
-274,490,97,97,92,59,9,8,66,-110
5,630,238,75,-25,-111,-164,-132,-69,-108
111,654,53,-13,-64,-118,-154,-114,-66,-36
-134,-27,-134,-13,40,47,39,107,189,211
-496,-867,-489,-29,138,241,279,346,385,343
-619,-851,-412,-16,104,186,230,237,205,135
-361,-177,-143,-8,35,63,136,93,45,10
-86,-180,-140,2,41,98,173,151,121,98
-80,-31,47,70,22,46,70,57,8,40
193,356,313,104,16,-1,-10,-33,-95,-34
1281,1006,438,-27,-116,-166,-136,-119,-110,118
2601,1407,341,-199,-313,-353,-284,-171,-34,474
2675,1085,239,-298,-401,-427,-344,-175,59,682
969,-47,-83,-252,-332,-350,-315,-231,-89,307
-843,-743,-410,-78,-24,-20,-90,-126,-160,-82
-1210,-1178,-362,134,272,289,199,146,77,-34
-753,-794,-291,78,190,216,216,170,130,-59
353,922,-15,-137,-138,-119,-92,-68,-53,31
671,1562,540,-47,-164,-182,-149,-107,-82,38
210,983,523,103,18,0,0,7,-59,-164
-168,-488,-236,-66,9,48,44,66,-38,-166
-1201,-1370,-599,-104,59,134,145,161,4,-308
-1682,-827,-315,63,182,231,237,204,-6,-546
-759,-142,-252,150,221,232,215,195,62,-257
-241,322,-78,195,211,196,167,172,106,-37
37,193,-8,43,59,85,88,160,159,133
84,-382,-60,-88,-78,-55,-25,62,31,68
-115,-431,78,22,-65,-77,-109,-91,-274,-350
-234,-486,24,75,0,-38,-82,-150,-408,-529
-312,-353,-62,59,22,-25,-45,-141,-316,-445
-112,-216,-137,39,46,33,14,-26,-64,-168
107,-90,-192,-11,36,69,63,59,130,76
802,523,124,-33,-80,-64,-70,-33,160,409
1415,672,338,-76,-177,-174,-139,-44,240,622
805,53,188,-95,-125,-112,-54,-6,198,342
-255,-130,45,-28,-48,-42,-54,-88,-51,-186
-682,60,-117,35,59,64,3,-86,-212,-498
-474,74,82,84,152,183,158,76,-24,-204
-478,294,599,133,123,165,137,124,133,103
-611,216,829,35,-10,20,-31,29,11,149
-364,-319,88,-170,-175,-163,-190,-102,-97,166
4,-227,-345,-59,-119,-133,-126,-106,27,131
-26,-470,-416,62,-3,-41,1,-32,73,88
-162,-499,-473,107,123,112,205,121,169,63
44,-84,-317,98,114,62,106,76,46,216
-198,-36,-202,51,65,34,6,-31,-95,116
-268,293,286,142,86,109,14,-100,-76,21
-360,362,515,158,50,9,-59,-141,-83,68
-262,303,440,159,82,24,0,-28,16,112
364,1020,665,92,-49,-146,-153,-170,-103,62
1122,1388,717,56,-105,-215,-234,-224,-126,136
1339,-164,-282,-94,-72,-92,-61,19,116,387
872,-1404,-878,-166,-56,-66,-27,66,118,308
22,-1053,-601,-71,-48,-124,-99,-69,-111,-113
-700,-110,-224,-16,20,-42,-40,-66,-227,-462
-569,303,633,120,77,41,34,-29,-207,-421
-585,-127,578,51,34,48,100,64,-9,-99
-627,-73,-188,-135,-24,52,101,115,85,43
593,282,-748,-375,-222,-95,-62,-20,73,294
2957,775,-554,-300,-248,-115,-93,33,329,896
3361,901,-119,-90,-143,-94,-40,93,358,873
545,-122,19,120,67,52,92,69,41,-64
-1775,-720,-215,120,172,175,174,63,-183,-771
-1849,-1052,-404,42,175,201,222,112,-108,-608
-1231,-387,51,66,109,101,134,72,17,-126
-584,383,552,72,53,40,79,78,132,163
104,256,154,-108,-44,-18,33,62,138,245
255,125,-245,-224,-126,-110,-103,-58,7,161
-757,-773,-239,-82,-30,-50,-88,-109,-161,-305
-1409,-1078,-291,181,195,146,75,-22,-163,-555
-1068,-301,-257,248,230,177,97,17,-115,-401
-391,411,69,121,110,98,35,11,-29,-125
19,437,153,21,62,71,37,61,121,178
157,189,-71,-62,51,95,96,154,246,274
64,38,-122,-66,49,81,101,163,254,199
544,188,21,-85,-27,-16,27,103,230,266
1029,470,195,-54,-62,-94,-45,23,160,292
1258,626,332,32,-69,-167,-144,-111,8,278
610,92,132,19,-74,-155,-170,-166,-67,75
-568,-472,-164,-14,37,-3,-24,-49,-52,-215
-448,92,-97,-2,75,36,24,16,8,-130
75,21,-116,6,61,38,25,39,61,-48
297,-323,-63,7,58,53,44,57,73,-56
368,-353,-76,-69,28,54,96,127,126,2
499,147,-184,-262,-155,-53,60,159,152,77
193,362,-165,-311,-218,-99,24,104,8,-116
-47,297,339,56,-25,-31,-19,-55,-271,-330
95,208,612,325,88,-40,-112,-231,-466,-491
-135,-16,521,216,-8,-147,-224,-320,-531,-462
-1024,-259,451,142,-12,-135,-197,-272,-391,-255
-1119,-129,523,174,25,-70,-150,-190,-109,44
-553,486,688,222,48,-44,-136,-151,10,71
-138,732,354,66,-34,-105,-143,-118,-41,6
-141,10,-87,33,62,35,52,72,48,41
-376,-699,-548,32,173,196,259,265,171,91
-806,-943,-854,-64,106,132,197,190,81,-68
-608,-644,-630,-3,117,152,181,152,78,-72
90,-74,-191,57,125,238,142,135,74,30
448,-58,173,17,63,237,73,132,118,188
921,46,159,-112,-89,26,-37,98,205,426
1810,754,-65,-321,-345,-288,-291,-120,54,537
1516,1087,33,-316,-399,-404,-395,-239,-102,346
-354,-634,-55,11,30,40,47,107,54,3
-652,-1190,-538,75,228,305,308,300,212,-32
732,504,-259,-37,41,64,72,125,181,217
1549,1851,411,-27,-119,-173,-181,-109,35,249
937,1475,493,56,-54,-108,-158,-162,-149,-100
-413,-539,81,89,52,5,-61,-99,-177,-312
-1466,-1787,-312,-47,-45,-106,-157,-189,-273,-472
-1416,-747,-86,-161,-127,-187,-208,-244,-298,-471
-825,77,370,-36,27,20,22,13,-7,-281
-515,-7,287,23,108,133,162,162,102,-208
-643,-222,32,28,57,56,71,75,22,-102
-746,-563,-188,88,87,74,61,45,53,16
-138,-497,-348,84,130,125,125,130,189,67
431,17,-262,-44,18,16,34,6,87,6
370,280,-147,-94,-54,-53,-35,-76,54,82
206,489,-64,-92,-87,-109,-81,-105,43,176
93,371,-23,22,-3,-27,-4,-5,109,229
91,12,103,184,120,60,67,82,160,157
571,-22,297,193,51,-83,-87,-73,43,159
928,543,208,49,-57,-177,-149,-122,10,212
218,-181,-138,-8,70,46,152,159,181,221
-822,-759,12,99,258,279,405,357,249,13
-945,-10,575,175,141,119,164,91,2,-154
-647,345,297,26,-39,45,-63,-112,-162,-173
275,180,-141,-133,-122,49,-96,-92,-115,-3
1259,482,186,82,-26,-59,-77,-44,-58,165
1514,323,390,283,142,32,53,53,26,295
386,-542,228,249,182,114,113,59,3,114
-1325,-174,102,169,161,138,80,-22,-160,-420
-1082,868,251,59,4,-17,-65,-112,-137,-282
-962,-106,-68,-51,-124,-191,-190,-222,-235,-300
-672,-601,-564,-103,-108,-134,-96,-116,-189,-268
100,-213,-305,-104,-89,-41,-6,9,-29,-22
271,123,214,-60,-89,-47,-33,-47,-53,0
-22,-101,168,-59,-91,-82,-56,-90,-100,-98
236,-198,-270,-223,-153,-129,-62,-67,-40,-38
654,10,-339,-277,-160,-98,-3,44,88,109
329,-69,-317,-106,22,97,144,167,138,49
-274,84,-229,23,126,212,168,145,45,-208
-223,53,-54,-8,36,84,55,38,-43,-246
319,-61,94,-47,-42,-38,-43,-76,-199,-333
741,-58,125,-19,-9,-28,-25,-75,-207,-272
1112,169,343,35,-10,-44,-42,-55,-96,54
813,-115,-72,-69,-82,-75,-56,-40,-23,178
-37,-181,-571,-177,-91,-16,4,57,176,445
-484,-226,-520,-190,-77,20,113,243,572,841
165,-513,-536,-253,-119,-6,112,272,597,797
532,-98,-200,-137,-111,-99,-39,38,214,378
-51,385,319,44,-61,-126,-105,-119,-86,-55
-547,506,621,138,0,-54,-49,-102,-150,-240
-135,538,794,163,1,-93,-60,-125,-178,-140
-116,285,707,228,137,38,99,49,-15,-114
-448,-1,601,344,264,168,196,141,50,-224
-614,-493,88,295,243,126,113,18,-130,-401
-38,-30,-291,-10,-31,-137,-174,-229,-291,-373
556,400,-687,-388,-308,-262,-259,-226,-59,125
-303,-184,-766,-376,-170,23,-40,10,117,123
-1215,-754,-377,-20,164,287,224,262,173,-98
-611,-359,55,171,222,245,230,246,71,-203
350,-187,3,80,102,108,118,134,-43,-278
378,-294,-102,-31,31,54,57,55,-126,-351
95,-344,-108,-91,-34,17,-6,-16,-203,-339
189,-245,-67,-80,-56,-22,-34,-51,-190,-164
269,104,61,36,-10,-33,-60,-68,-136,-43
528,502,313,54,-70,-114,-155,-151,-160,12
777,490,554,-21,-184,-251,-269,-285,-181,207
778,114,381,34,-105,-165,-173,-206,-14,439
663,305,317,162,34,-36,-102,-138,53,310
474,661,287,144,38,-18,-89,-107,75,225
745,489,-46,-106,-103,-71,-85,-54,119,270
1344,658,24,-288,-288,-243,-271,-206,11,332
658,460,246,-168,-179,-146,-161,-121,74,350
-1079,-572,41,-41,-6,43,38,23,78,-56
-1749,-1094,-377,-19,41,113,150,178,262,159
-1520,-663,-397,-16,59,109,171,235,331,328
-1128,393,100,122,93,51,52,24,-24,-258
-115,530,525,305,165,63,32,-79,-202,-418
1161,310,436,150,42,-14,50,-15,-41,11
1706,705,22,-15,-28,-34,77,46,44,251
887,177,-378,-112,-18,-8,152,130,137,273
-669,-952,-450,54,164,184,333,291,280,82
-943,-662,-525,73,143,152,239,184,67,-268
-25,-48,-357,-149,-129,-159,-115,-56,-318,-264
359,865,-14,-271,-351,-404,-302,-331,-438,-321
747,995,385,-134,-274,-361,-322,-371,-424,-168
378,53,705,169,58,-19,-60,-93,-77,86
-859,-1477,364,251,277,279,227,178,276,175
-1352,-817,-14,69,92,157,85,45,121,-21
-1251,-666,-857,-71,52,144,167,183,146,-73
-967,-996,-1204,-199,146,328,408,467,387,145
-452,-263,-510,-108,61,171,237,313,308,249
218,780,-39,-5,-58,-65,-61,9,90,307
576,777,152,-14,-113,-158,-144,-100,21,314
393,638,365,5,-47,-80,-43,-27,92,222
-108,389,404,126,102,28,37,10,47,-6
-467,35,80,101,130,90,98,51,-33,-249
-680,-278,-182,47,135,191,181,112,-65,-411
-374,-458,-402,40,153,228,209,120,-54,-328
170,-228,-385,-54,53,174,151,51,-1,-73
411,177,-169,-84,-48,90,14,-57,18,117
492,788,9,-56,-107,-76,-116,-101,73,204
570,605,105,-31,-83,-85,-84,-34,132,272
1034,-11,-31,-57,-21,27,41,78,167,336
1920,-152,147,-49,-59,-41,-31,9,51,252
1699,115,563,90,-104,-192,-241,-247,-230,-60
-315,-273,841,336,-26,-215,-318,-445,-552,-744
-1631,29,727,367,58,-93,-144,-279,-446,-808
-372,472,452,99,2,1,18,49,37,-33
476,-275,-12,-101,-23,47,72,135,179,101
374,-654,-579,-250,-55,10,58,66,78,21
-768,-126,-299,-181,-50,-25,-15,-47,-105,-120
-1298,990,555,100,-58,-167,-244,-259,-314,-275
-596,944,380,174,-33,-156,-225,-181,-186,-113
352,11,-227,130,63,-12,-47,4,-19,117
-95,-1341,-518,51,115,49,78,103,72,153
-1276,-1552,-263,125,231,197,229,238,187,3
-1109,-500,82,179,195,178,136,112,77,-101
-814,-331,111,103,97,162,29,-29,-29,-89
-48,615,601,140,52,81,-55,-68,11,139
1521,626,224,3,-3,61,27,144,308,783
1728,-319,-452,-209,-49,80,138,323,463,888
-47,-573,-492,-305,-103,12,76,182,179,166
-999,422,-82,-277,-173,-104,-71,-26,-107,-342
-537,903,614,14,-119,-166,-210,-241,-294,-414
-288,467,634,162,-75,-180,-231,-298,-268,-301
-253,-306,-64,112,32,1,12,1,87,120
369,-209,-727,-62,71,114,182,238,368,520
964,483,-668,-124,9,47,111,158,272,530
902,670,91,-71,-107,-143,-133,-113,-32,271
379,569,550,6,-135,-222,-250,-269,-259,-115
742,1124,772,86,-142,-233,-264,-264,-263,-95
692,412,605,125,-68,-116,-137,-110,-153,-71
-762,-1424,-157,26,38,58,64,72,-74,-341
-1207,-1569,-440,-5,188,287,304,266,32,-439
48,-506,307,189,219,258,240,181,14,-274
641,469,1111,311,56,-55,-164,-226,-247,-334
118,621,1060,321,-83,-289,-449,-527,-475,-502
-700,385,20,213,-22,-173,-309,-391,-409,-580
-861,-153,-299,20,67,98,71,65,72,-100
288,82,-99,-151,-16,112,183,273,476,629
1300,470,-207,-158,-14,106,163,247,508,785
814,-286,-907,-195,-44,52,74,96,258,464
-3,-600,-1154,-278,-104,7,37,39,99,191
-1175,-919,-1022,-211,28,172,224,183,116,-143
-1335,-492,-518,-54,37,128,166,85,-77,-465
-528,-102,-141,91,-63,-75,-81,-167,-319,-576
-309,90,306,269,-7,-88,-112,-178,-286,-479
-288,18,519,185,9,-30,-11,-25,34,9
-62,59,-34,-178,-119,-77,21,47,202,334
218,613,-503,-377,-139,-8,74,146,288,356
660,576,-441,-321,-37,127,190,269,384,362
1249,491,-103,-177,-4,115,161,217,267,255
1170,99,-211,-80,-23,26,24,51,8,-8
-138,-318,-222,56,47,45,7,-42,-228,-376
-640,-105,109,107,78,101,97,61,-58,-51
228,252,72,90,154,224,286,305,336,518
774,-54,-46,-79,24,79,126,150,191,380
185,-350,282,-41,-28,-39,-43,-50,-135,-174
-630,-735,403,214,165,104,60,14,-205,-533
-911,-566,508,321,172,60,-14,-114,-375,-730
-724,-91,535,257,89,-14,-84,-203,-421,-566
-175,-15,376,155,88,30,-29,-87,-184,-117
107,-277,-96,1,-49,-87,-119,-80,-89,-48
122,-884,-966,-262,-168,-101,-40,98,203,230
-311,-755,-1167,-312,-86,49,150,208,216,3
-104,267,-390,-187,-68,-20,1,-88,-205,-392
1022,659,-57,-216,-140,-130,-125,-181,-144,102
867,512,49,-117,-84,-72,-38,-39,61,212
-415,533,650,232,65,-43,-89,-162,-172,-199
-1240,-240,437,291,115,6,-78,-176,-158,-184
-893,-718,-442,-29,3,12,-11,-26,78,178
-272,68,-595,-271,-166,-94,-48,10,181,417
190,678,-81,-43,-12,13,41,114,297,516
404,-119,124,226,173,140,120,126,199,306
548,-710,109,163,128,98,88,89,170,377
-80,-797,-92,21,93,123,144,145,192,252
-698,-362,-4,40,156,200,213,148,60,-146
-569,415,372,-78,9,64,101,53,-8,-177
-215,653,502,-135,-109,-74,-10,44,131,182
238,756,374,-97,-118,-103,-54,25,115,206
394,510,-295,-246,-228,-186,-165,-108,-84,-43
314,899,-207,-204,-232,-230,-213,-202,-178,-12
-117,629,264,-6,-94,-152,-183,-222,-231,-82
-182,-670,-134,-2,-49,-128,-181,-227,-230,-110
145,-681,-450,87,44,-15,-69,-111,-124,-68
208,-99,-408,54,89,67,24,39,-1,-34
145,-40,-475,-136,40,93,117,202,254,229
251,400,-275,-202,-19,60,116,202,267,338
210,186,-336,-207,-26,82,178,217,229,331
64,-143,-207,-59,46,127,204,246,278,333
-303,-495,161,139,141,150,159,180,146,123
-326,-383,509,258,146,75,39,48,-36,-71
-130,-432,422,186,55,-17,-81,-55,-110,-145
144,159,274,35,6,-12,-71,-35,-107,-175
561,716,550,75,-24,-60,-113,-84,-151,-185
546,343,432,51,-39,-51,-75,-25,-56,-44
-96,-489,166,43,-1,22,4,55,1,-6
-901,-848,-174,10,-11,7,-20,42,-17,36
-853,-165,-38,60,11,-29,-76,-51,-144,-110
197,126,-98,-43,-68,-91,-80,-33,-77,66
1346,435,-183,-149,-182,-173,-151,-35,-18,273
1392,809,252,-29,-153,-237,-275,-198,-208,21
-93,508,981,244,76,-110,-221,-264,-428,-676
-960,82,1276,386,225,40,-89,-202,-447,-964
-256,609,1198,365,196,64,-8,-47,-168,-357
181,302,770,266,94,0,-29,18,-4,-24
-176,-758,237,270,103,-5,-30,-27,-140,-295
-67,-737,-483,79,53,-6,7,-82,-206,-263
201,462,-433,-292,-147,-110,-61,-106,-82,110
-311,13,-467,-406,-184,-54,32,126,296,441
-624,-526,-1066,-446,-86,107,229,326,466,445
-544,-364,-1314,-351,27,204,331,341,431,357
-293,-191,-706,-78,135,221,307,259,325,266
155,106,11,123,137,127,168,122,179,202
482,362,44,132,61,46,61,32,89,185
-132,-203,-477,-8,56,92,133,95,110,63
-640,-545,-383,-52,22,50,83,42,40,-124
595,-162,-406,-144,-134,-112,-65,-60,34,98
2004,313,-483,-186,-259,-250,-194,-147,-15,282
1193,515,173,-131,-304,-352,-338,-303,-240,-39
-1127,106,221,-112,-188,-228,-247,-317,-433,-660
-1198,160,15,21,135,113,82,-45,-212,-588
-442,-91,108,94,166,117,66,4,-38,-224
-329,-579,132,175,161,76,25,-13,-11,-84
-384,-1088,-109,153,174,136,97,106,132,61
-260,-504,118,118,133,134,110,156,95,-69
136,237,332,3,8,41,58,108,40,-127
177,594,595,-15,-88,-78,-56,-14,-85,-211
761,535,496,-107,-202,-184,-144,-86,-118,-32
1202,437,96,-176,-222,-209,-189,-140,-88,199
1243,815,-226,-56,-124,-174,-235,-227,-144,32
1075,545,-549,7,50,14,-34,-44,-41,18
718,-112,-648,-145,-3,35,56,102,163,360
-12,-502,-518,-156,-64,-5,36,105,201,466
-1211,-773,-77,121,112,123,119,105,66,27
-1368,-760,367,336,244,195,153,46,-69,-237
-1028,-318,327,305,211,122,73,-41,-134,-250
-831,115,-93,147,143,120,106,34,-30,-142
-917,-58,-19,53,73,102,128,100,127,19
-118,506,251,-61,-64,-35,24,66,250,467
840,1494,1186,80,-101,-156,-142,-89,156,559
1737,1850,1530,186,-102,-229,-286,-253,-58,379
1047,216,308,-62,-162,-217,-235,-220,-123,105
-732,-1136,-773,-231,-95,-44,0,-21,-53,-236
-713,-999,-789,-31,144,239,255,246,198,-63
457,-1050,-955,-151,80,206,252,296,344,353
368,-727,-711,-261,-125,-44,-24,54,105,190
-462,-510,-404,-154,-118,-113,-142,-102,-152,-263
-461,-199,-136,20,37,3,-36,-58,-154,-423
-364,90,291,140,116,69,11,-58,-151,-401
-461,409,639,172,129,133,77,59,56,-38
-400,245,294,34,81,138,141,178,275,326
-122,227,-155,-158,-100,-7,32,103,241,386
50,136,-340,-239,-157,-63,-23,53,181,319
-189,87,-3,-50,17,59,54,69,95,72
-356,-128,374,179,110,68,19,-29,-90,-194
52,109,419,213,58,-67,-139,-184,-290,-332
638,412,456,115,3,-127,-223,-161,-395,-236
651,475,374,45,-2,-84,-76,-105,-225,-268
-32,279,154,103,16,-61,-55,-192,-288,-640
-561,-95,-97,275,154,65,49,-73,-97,-428
-592,-543,-109,300,234,153,82,91,26,55
-202,-632,-34,10,84,52,-4,124,11,317
-224,-96,250,-130,-127,-141,-184,-111,-193,17
-420,17,-22,-102,-154,-154,-176,-232,-273,-347
-40,-156,-473,-41,-22,-8,-6,-68,-74,-78
250,-192,-207,42,107,160,174,183,211,167
555,-100,31,63,91,123,100,234,118,167
525,-301,-265,-58,-40,23,58,139,169,110
223,-199,-194,-87,-105,-68,-57,-67,-45,-195
349,271,101,-51,-125,-134,-149,-210,-151,-55
408,-46,-307,-176,-102,-51,-18,10,99,374
204,-488,-706,-270,-28,79,110,288,323,682
-166,-293,-534,-117,58,149,207,285,405,440
199,553,269,107,78,43,37,-19,-5,-126
865,1091,729,151,-26,-117,-160,-253,-307,-355
1594,921,390,-81,-175,-205,-226,-191,-241,-61
1703,973,202,-234,-243,-271,-284,-134,-184,230
-897,-202,-172,-83,-47,-20,-1,-25,-68,-176
-997,-357,-137,92,82,82,103,57,38,29
-694,-526,180,219,154,30,-82,-14,-377,-67
-611,-936,184,61,38,-139,-359,-111,-738,-85
-327,-197,199,34,25,-8,-7,0,-9,15
-244,-271,-64,-54,41,99,177,95,109,-132
13,-11,-307,-177,-58,13,88,-51,-75,-227
657,605,-196,-190,-117,-81,-49,-166,-205,-198
1336,683,-18,-84,-74,-82,-104,-76,-71,250
826,229,378,144,34,6,-5,-34,121,291
-867,-47,531,210,-4,-94,-142,-232,-195,-279
-2048,-457,-4,79,-27,-49,-58,-145,-147,-402
-1763,-695,-455,107,240,295,294,260,226,-20
-791,-56,-14,164,345,388,344,354,223,125
-103,469,357,129,201,234,246,227,273,149
91,432,405,137,114,102,120,133,256,224
31,118,303,187,82,22,25,52,165,107
41,-395,124,162,27,-26,-27,-28,38,-37
-138,-831,-479,-4,-39,-34,-19,-35,47,-20
-31,-240,-553,-128,-116,-69,-21,-6,72,55
421,371,-46,-17,-5,56,118,110,136,131
990,195,217,23,41,107,162,88,61,-37
1203,-177,24,-82,-54,-27,20,-57,-25,-54
533,-85,-31,-169,-146,-166,-182,-160,-200,33
154,485,-3,-197,-225,-208,-190,-177,-86,78
292,142,-299,-230,-229,-186,-131,-124,38,139
146,-372,-721,-266,-71,7,19,32,-59,-30
284,-51,-622,-186,54,167,154,171,59,99
424,-52,-286,-103,10,78,31,88,44,311
-113,403,-4,-75,-112,-77,-106,-88,-13,142
-684,292,137,62,-11,19,4,-12,82,8
-409,69,230,187,136,161,157,150,215,33
-123,319,637,280,185,170,129,91,112,-149
-340,212,975,195,27,-39,-130,-78,-141,-106
-625,-168,683,12,-121,-131,-152,-110,-22,48
-659,-130,360,-117,-201,-192,-168,-149,-46,-42
-194,187,-173,-42,-50,-19,8,4,70,26
761,437,-380,154,192,195,202,210,245,310
1310,-53,-271,170,121,37,-67,-15,-93,239
1088,33,236,39,-130,-238,-323,-379,-316,-132
30,863,1200,101,-200,-328,-396,-480,-419,-450
-957,517,1366,211,-106,-238,-288,-389,-345,-535
-811,-212,61,-2,-91,-94,-68,-101,-15,-246
-701,-1195,-1019,-187,-52,54,160,176,278,59
-1050,-1356,-1134,-159,121,295,408,393,392,12
-749,-226,-574,-16,213,384,471,423,289,-138
109,542,-189,36,132,260,322,256,78,-191
677,740,-286,-77,10,121,138,130,-119,-278
646,176,-521,-102,38,127,121,152,-174,-348
140,-636,-279,-27,55,156,163,115,37,-309
311,-637,-122,-65,-43,51,65,96,308,245
479,-229,-27,-111,-97,-15,-2,53,386,623
-44,205,202,-76,-105,-72,-90,-93,111,360
-680,98,211,0,-56,-64,-158,-137,-232,-164
-502,280,-91,-54,-91,-82,-138,-146,-159,-275
220,262,-505,-138,-24,48,77,98,208,241
734,5,-454,-194,-54,34,86,106,190,279
963,78,-113,-134,-112,-58,-54,-65,-78,-81
1393,213,84,-27,-71,-67,-83,-99,-171,-262
1051,-27,124,125,28,-46,-81,-154,-264,-400
22,-28,273,309,184,76,26,-74,-160,-303
-654,97,229,324,183,58,17,1,104,203
-802,90,184,195,85,-43,-64,40,262,724
-1244,61,665,324,172,-13,-94,1,-59,296
-1003,-23,1093,400,207,63,1,-34,-52,-30
-535,-183,460,90,9,-25,-33,-54,-41,-51
-184,-340,-467,-261,-155,-55,-9,6,31,30
-18,-341,-662,-299,-130,0,55,131,100,141
149,-273,-710,-263,-105,-32,-30,90,-45,146
286,-25,-623,-272,-163,-105,-42,12,95,201
293,229,-365,-236,-155,-114,-41,28,164,288
174,258,-187,-33,57,89,155,143,183,134
354,275,-3,109,113,100,163,83,91,20
192,454,537,244,72,-14,18,-99,-73,-118
451,481,1019,332,108,10,26,-77,-39,-22
1165,-31,763,217,72,31,75,10,62,150
1094,-421,-41,-158,-208,-201,-133,-182,-168,-84
-105,71,-260,-402,-580,-632,-614,-704,-793,-843
-210,740,165,-94,-412,-558,-617,-727,-814,-820
-392,203,107,224,62,-33,-76,-145,-165,-249
-1021,-410,-94,230,274,280,347,355,480,327
-1492,-1216,-672,23,270,373,504,541,671,346
-1219,-434,-251,9,170,251,324,335,346,105
-618,204,232,35,123,177,82,158,-38,-1
-149,-79,70,-16,101,200,167,208,131,42
342,-313,-106,-36,56,141,160,187,221,232
1256,314,-63,-40,-25,10,14,69,176,440
1934,886,-41,-110,-141,-120,-134,-48,75,451
2017,816,-518,-365,-309,-278,-291,-128,-139,419
930,169,-728,-402,-318,-266,-235,-150,-15,284
-583,-339,-246,-80,-42,-27,-32,-52,1,-182
-1213,-892,285,196,214,223,206,130,-20,-562
-650,-1010,567,230,207,224,212,197,-17,-390
-439,-570,394,-27,-64,-86,-126,-44,-281,-228
-803,7,119,-12,-42,-67,-108,-153,-259,-312
-745,347,-264,53,144,169,143,79,20,-87
-757,221,-266,56,157,177,163,121,95,6
-399,44,-147,17,116,126,105,111,70,89
320,394,415,164,187,135,53,115,-34,67
717,640,831,240,128,76,43,66,114,156
198,185,912,272,75,-16,-50,-90,-9,44
-731,-21,394,372,146,-28,-135,-254,-249,-386
-480,164,-98,151,-6,-176,-274,-328,-337,-323
367,-100,-252,-179,-212,-296,-307,-237,-237,71
866,-166,-353,-249,-216,-165,-82,-45,152,396
796,-37,-456,-178,-109,-26,35,41,148,263
97,-452,-532,-157,6,115,173,156,137,10
-419,-373,-117,-63,32,76,126,113,15,-69
-162,351,335,124,84,55,35,35,-151,-183
583,343,-66,-64,-26,24,95,105,180,121
926,468,-479,-326,-222,-198,-90,-28,172,255
-38,186,-267,-176,-179,-280,-217,-288,-273,-375
-639,-353,-272,-46,-8,-51,-123,-216,-462,-578
-264,-517,-214,-51,51,109,-11,-12,-150,-45
-208,-496,-90,-23,30,55,55,60,215,253
-263,-370,-60,-65,17,49,93,124,307,387
-581,-223,211,69,122,137,149,141,259,223
-840,-325,305,167,200,153,117,122,64,71
-606,-160,188,104,81,-3,-66,-45,-173,-88
148,610,473,51,-89,-189,-212,-265,-273,-239
948,990,780,0,-196,-290,-317,-337,-284,-206
1181,235,553,9,-127,-192,-178,-165,-72,41
333,-806,-203,22,36,29,98,129,215,266
-545,-658,-435,86,249,293,355,364,409,334
-745,-584,-337,35,234,317,352,327,338,186
-339,190,59,72,85,93,73,7,29,-132
43,667,335,197,50,-22,-79,-159,-140,-276
100,704,282,115,-14,-76,-96,-157,-139,-155
654,812,34,7,-52,-66,-28,-56,26,198
1227,768,-232,-190,-175,-149,-75,-37,165,526
885,300,-461,-307,-153,-76,8,66,225,423
-192,-833,-709,-261,1,131,216,230,236,74
-933,-905,-425,-84,50,122,147,95,14,-326
-1055,-694,35,65,101,121,102,20,-79,-400
-623,-109,483,123,122,93,91,-19,-95,-299
-114,268,516,69,66,50,108,34,84,98
-151,183,471,100,51,24,90,40,80,94
-420,66,553,194,75,3,4,-26,-189,-227
524,-120,-217,34,-41,-38,-75,-78,-110,-230
625,86,-552,-75,-37,3,-20,14,41,-24
-197,-84,-630,-150,-25,32,5,30,0,-24
-462,-342,-537,-214,-91,-144,-279,-46,-496,67
-161,-147,-300,-174,-102,-185,-295,-23,-440,79
-125,-237,-61,2,-3,16,69,40,102,-112
-191,-359,70,47,69,82,174,96,166,-36
25,-249,109,59,97,101,166,158,261,214
148,-478,-8,70,86,56,24,91,108,251
256,-728,-159,5,18,-16,-57,9,-6,302
335,224,217,104,15,-36,-46,-44,53,126
640,731,143,50,-27,-52,-75,-13,144,223
613,992,137,3,-57,-63,-72,2,167,201
1088,1005,187,-107,-133,-112,-143,-16,18,221
1430,520,167,-135,-190,-188,-246,-100,-79,250
834,55,-126,-159,-211,-202,-201,-152,-28,135
-953,-186,-233,-58,-107,-121,-134,-184,-177,-329
-1806,-67,-30,115,57,37,10,-93,-127,-424
-1230,169,258,197,164,107,80,23,-159,-301
-618,-5,244,186,184,161,126,50,-173,-343
-17,46,-91,-101,-56,-17,1,-92,-149,-450
147,147,187,12,52,97,90,37,-27,-407
5,-318,30,-78,22,75,19,160,-80,-122
-80,-171,243,-156,-130,-221,-431,-31,-673,87
-306,174,687,22,-108,-178,-256,-163,-258,-47
-479,-45,523,107,7,-21,-20,-112,-29,-42
-769,-561,106,204,152,124,118,-14,12,-220
-515,-744,-201,163,189,169,114,73,2,-141
416,-178,-453,-22,41,51,0,38,48,124
893,505,-233,-31,-19,-2,-3,-41,59,-67
591,506,54,28,-26,-36,-36,-77,41,-71
39,457,667,169,10,-17,-44,-43,196,232
-97,548,937,183,36,-12,-75,11,155,424
0,613,708,67,-26,-73,-94,-39,34,227
0,-497,-846,-17,115,168,187,160,192,27
-14,-306,-860,-6,195,289,329,306,315,100
224,-113,-76,-27,36,53,15,96,-100,-80
559,162,290,-117,-153,-241,-374,-154,-653,-282
667,644,-79,-289,-288,-267,-230,-155,-208,-168
617,464,-205,-297,-273,-246,-167,-172,-48,-51
62,-458,-67,-57,-109,-134,-132,-249,-175,-236
84,-613,-176,3,1,-32,-87,-155,-217,-282
954,135,-116,-1,15,20,-18,-10,88,165
-485,-367,63,160,184,239,284,223,514,516
-1363,-887,68,163,151,166,186,99,311,143
-712,-564,-321,49,119,75,23,34,-58,71
515,-107,-735,-237,-31,-68,-187,59,-314,357
1039,768,-541,-258,-164,-109,-101,-25,97,392
113,440,-253,-128,-74,-42,-19,-63,86,73
-1500,-35,179,169,160,166,146,44,36,-315
-881,234,353,245,147,113,59,42,-70,-201
408,254,-39,24,4,49,67,117,124,175
350,471,368,-40,-33,36,80,39,130,37
-97,-177,118,-18,-25,18,34,-35,-7,-211
-93,-586,-488,-192,-81,-67,-77,-47,-299,-223
-312,-458,-438,-122,52,14,-112,69,-504,-72
-343,-200,-84,147,208,261,278,224,227,100
522,-98,4,98,55,102,161,82,332,342
1436,133,-122,-17,-45,0,49,14,340,557
978,335,16,-105,-77,-80,-75,-97,-15,198
-2,692,325,-79,-88,-117,-115,-185,-204,-233
508,569,410,36,-56,-62,0,-98,121,-8
51,-410,-6,80,62,52,120,14,220,88
-1271,-949,-291,91,160,124,94,85,-35,-178
-1320,-579,-137,91,153,71,-72,58,-501,-328
-931,-711,-324,0,117,252,258,160,28,-257
-308,-492,-642,-193,-40,179,278,194,188,-153
249,-295,-653,-247,-109,38,162,161,195,-42
384,441,-223,-112,-65,-30,-22,-7,-126,-221
398,1078,428,55,-58,-100,-177,-208,-251,-208
80,627,376,96,-57,-100,-128,-161,101,283
-426,138,26,70,-62,-107,-103,-109,236,265
-339,240,1,49,-63,-80,-68,-106,201,183
-126,-176,134,10,-11,-17,-12,16,168,327
-24,-139,467,36,-34,-56,-22,-4,169,270
203,615,836,313,72,-38,-76,-171,-52,-133
590,403,70,280,216,189,183,133,218,123
1051,-9,-314,4,117,146,113,258,146,443
414,-1404,-457,-128,36,13,-66,158,-244,230
-321,-6,-604,-158,-59,-91,11,-36,-13,-164
-510,76,-552,-203,-105,-133,-11,-36,-57,-266
-873,-126,77,-27,51,-28,-11,3,-364,-503
-778,-668,57,-30,111,49,-109,35,-710,-504
-250,-210,93,12,72,88,136,72,26,-219
-153,123,213,26,10,14,116,33,218,1
-343,261,233,57,40,17,101,1,219,73
-69,254,116,58,61,-12,24,5,70,108
261,381,172,66,87,106,66,104,176,228
418,498,660,145,42,108,2,-27,212,165
-36,158,750,139,-82,-117,-169,-284,-98,-210
31,609,453,27,-188,-273,-273,-356,-210,-304
924,1067,-48,-144,-180,-200,-203,-136,-104,60
2473,1212,-335,-304,-181,-81,-37,71,192,583
1494,590,66,-99,-308,-392,-434,-429,-161,135
-2270,-1394,263,336,204,119,44,-74,-133,-611
-2757,-1726,461,494,493,433,291,277,-133,-643
-1462,-1180,76,131,207,172,42,220,-318,-348
-650,-674,-458,-138,-9,102,201,275,285,0
-174,-445,-573,-149,-42,108,217,242,401,143
602,330,-374,-115,-81,28,88,81,226,143
1467,872,-53,-21,-72,-44,-43,-68,38,102
1219,384,-125,-13,-31,-15,4,-12,75,189
-207,-275,-82,59,86,113,159,117,167,6
-1172,-214,429,270,184,156,127,33,2,-435
-804,-119,346,201,104,66,46,-46,-82,-446
-40,19,66,-53,-77,-74,-22,-66,10,-141
380,414,60,-97,-144,-135,-77,-120,-9,-43
724,995,483,15,-99,-131,-105,-154,-80,-18
959,986,848,-9,-186,-258,-241,-267,-147,48
536,-131,332,-85,-185,-235,-206,-228,-80,145
137,-803,-441,-180,-129,-151,-111,-44,4,280
-167,-883,-938,-119,33,51,111,220,198,441
-467,-277,-945,-50,219,340,445,453,498,428
-528,-176,-525,-38,168,268,361,328,437,289
-886,-286,56,55,76,82,143,100,175,-25
277,338,319,32,-57,-120,-125,-92,-122,10
1934,1173,442,-71,-221,-279,-277,-209,-186,214
2582,1377,162,-182,-319,-330,-256,-226,-11,345
645,258,-316,-154,-204,-211,-166,-183,-46,97
-981,-170,-355,80,108,75,79,-23,3,-78
-220,586,139,177,158,92,88,-10,103,229
100,-34,108,11,-25,-56,-21,-56,194,379
-403,-360,-254,-122,-58,-43,29,-30,125,6
-1056,-421,-461,-41,119,163,204,79,18,-437
-1372,-1101,-627,-1,199,259,296,182,57,-451
-702,-1076,-273,72,190,230,273,183,76,-320
501,-28,503,157,101,83,81,22,-54,-320
649,99,56,-96,-29,-13,54,76,98,115
-107,178,24,-2,15,-14,-6,-14,-11,62
-931,-150,96,160,167,51,-89,-9,-325,-57
-839,-570,27,131,137,16,-148,41,-373,15
13,157,435,126,5,-47,-84,-25,78,290
383,535,721,214,-42,-145,-195,-185,-9,211
348,325,446,167,-133,-246,-297,-270,-135,103
53,-142,113,-48,-200,-257,-309,-185,-226,89
42,105,211,-50,2,44,49,95,67,98
364,213,317,1,8,29,18,-5,20,-58
858,-80,-515,-261,-161,-120,-84,-69,-73,-133
1953,711,-594,-390,-266,-189,-126,-57,-18,-16
2605,1143,-334,-227,-101,-23,31,86,112,145
1320,-264,-647,-142,144,283,376,396,315,233
-1039,-1427,-569,-93,180,298,396,357,223,-114
-2113,-267,277,46,46,18,39,-40,-114,-449
-1660,601,644,159,7,-91,-140,-228,-234,-363
-951,94,351,123,-27,-133,-196,-244,-190,-201
-611,-952,-168,59,62,27,-44,-49,12,-33
234,-547,-297,13,155,210,158,168,228,190
167,-7,169,-56,33,88,66,116,220,217
-1483,77,537,55,10,19,-32,5,40,-179
-1808,-228,542,137,89,80,10,112,-43,-201
-805,-182,427,84,56,39,16,124,48,110
-243,-37,341,158,47,25,31,30,91,105
298,234,-86,8,-87,-101,-111,-120,-55,-2
1095,896,-463,-108,-115,-106,-99,-84,-2,133
1303,840,-362,-103,-104,-122,-150,-84,-171,61
616,43,-119,69,53,64,30,80,-34,-45
-226,-645,-71,153,172,226,204,211,202,-2
-1160,-1267,-121,87,115,163,120,97,56,-148
-1343,-760,111,188,170,180,137,82,8,-248
-339,410,223,130,93,86,62,38,57,-97
783,1172,444,-12,-96,-102,-115,-120,-29,-16
1382,582,-35,-122,-157,-131,-115,-168,-79,74
1451,-252,-346,-62,-48,11,27,-31,78,298
1326,-385,-383,-131,-105,-35,1,-9,174,442
277,-442,-461,-304,-252,-181,-150,-137,16,203
-1041,-200,-463,-262,-143,-59,-23,12,95,79
-496,263,-228,-159,-58,0,87,165,238,236
897,583,9,-66,-39,-40,104,194,202,242
952,150,50,70,45,-12,110,133,29,-77
-17,-319,6,97,67,-58,-19,-20,-287,-407
178,645,158,-6,-98,-210,-279,-273,-485,-367
886,1269,155,-113,-227,-234,-348,-332,-247,95
202,495,353,39,-105,-136,-204,-174,-44,180
-1157,-933,96,137,137,176,133,125,149,5
-1038,-1159,-366,14,211,314,291,350,201,75
-305,-393,-329,-76,60,108,127,204,108,146
-553,28,-26,6,46,66,100,103,100,-116
-882,-26,420,254,184,133,112,72,17,-365
-710,21,884,419,242,113,12,-29,-99,-483
-323,157,1389,570,246,19,-151,-235,-325,-626
-60,-545,118,174,15,-90,-181,-247,-289,-504
378,-909,-855,-218,-87,-9,14,66,162,221
478,-866,-523,-265,-17,141,253,366,552,780
20,316,162,-151,-45,52,162,191,265,266
-711,584,180,-11,-41,-38,-51,-125,-197,-463
-477,33,-265,9,-1,-5,-65,-94,-90,-199
-438,-256,-509,-61,-29,16,8,39,159,237
-696,-280,-427,-57,-3,36,76,65,120,135
-581,-35,30,47,51,36,56,-8,-60,-146
-98,170,186,35,106,88,57,75,-158,-123
1384,728,-366,-293,-278,-219,-134,-45,69,446
2180,1456,-244,-325,-381,-373,-322,-186,-77,446
2379,850,-120,-322,-366,-457,-568,-290,-597,173
1182,-416,-112,-146,-111,-175,-274,-121,-668,-307
-826,-778,68,0,31,51,99,-42,-245,-696
-1369,391,610,89,-2,-31,8,-171,-257,-656
-8,1350,1325,198,-52,-152,-179,-318,-254,-111
479,1077,938,172,-69,-184,-231,-314,-178,56
-293,-60,-73,98,-18,-61,-95,-131,-40,-71
-1488,-1217,-546,117,148,184,170,173,158,-202
-1441,-1198,-256,99,112,169,176,178,135,-107
-511,-577,-97,-1,31,127,134,173,217,297
1188,244,-319,-87,39,179,224,310,452,775
2457,928,-295,-88,-12,81,131,184,354,884
1424,426,-203,-151,-140,-110,-78,-30,154,609
-550,78,66,87,16,-33,-78,-68,9,-21
-682,189,314,301,122,15,-61,-76,-80,-264
108,60,253,148,-39,-170,-244,-171,-324,-205
161,-881,-25,34,2,-71,-103,-58,-256,-211
-317,-1868,-510,-98,136,223,289,283,152,-87
1,-966,-736,-295,41,209,334,423,392,309
876,512,-92,-173,-67,0,67,179,263,481
1193,1027,258,-2,-90,-179,-242,-122,-134,416
-312,144,34,81,59,-25,-95,-53,-83,64
-1887,-731,-63,244,313,274,222,133,51,-384
-1938,-483,65,278,318,291,262,129,-1,-468
-1275,6,-4,92,143,135,134,17,-57,-348
-858,-65,66,69,119,119,110,22,21,-183
-577,-359,-71,40,88,104,115,42,66,-85
302,34,-230,-126,-61,-29,17,3,58,102
1524,386,-416,-313,-194,-119,-63,-15,120,395
1424,78,-212,-273,-232,-198,-158,-138,32,372
-184,-262,319,-31,-133,-190,-166,-254,-152,-81
-1522,-54,704,197,17,-69,-59,-195,-204,-541
-1244,-52,418,246,165,132,120,42,42,-406
-430,-277,-192,68,228,284,295,242,222,-109
496,280,-151,-44,111,179,224,178,168,55
1259,592,35,-76,-11,29,90,41,140,244
630,126,83,-43,-14,-4,41,3,98,209
-321,159,96,8,-8,-12,24,-23,-43,-98
-473,130,-218,-85,-55,-40,23,-32,-99,-250
-453,-207,-288,0,39,51,92,18,-77,-278
-417,-543,-87,103,87,79,68,3,-96,-330
386,590,509,165,20,-28,-70,-99,-64,-98
1282,1236,511,91,-38,-61,-82,-91,69,305
1416,391,-88,-189,-97,-21,47,75,276,496
667,-465,-144,-258,-167,-108,-22,-12,140,210
-49,-331,97,-87,-118,-145,-109,-159,-149,-251
-1,-23,-208,-137,-184,-218,-207,-226,-224,-147
-77,195,-379,-104,-101,-110,-137,-124,-94,82
-533,-76,-7,71,86,81,49,41,-3,-25
-340,203,572,29,-5,-9,7,10,-19,-3
183,436,566,-128,-151,-147,-125,-92,-57,15
147,119,122,-203,-271,-293,-304,-281,-259,-254
-171,45,-407,-148,-258,-326,-356,-367,-393,-436
-98,521,-480,87,2,-62,-119,-134,-158,-159
-600,386,-108,212,210,175,145,147,100,53
-826,-262,179,220,251,243,215,222,181,82
-101,-424,144,63,36,16,-41,0,35,106
1169,42,9,-133,-165,-146,-173,-79,45,410
1332,52,-133,-259,-263,-191,-176,-54,93,530
149,-398,-181,-46,-36,14,16,68,78,104
-149,-262,-92,259,287,308,286,279,158,-73
861,45,-271,136,183,223,234,257,185,133
1116,110,-397,-124,-88,-63,-8,54,54,242
390,243,-166,-175,-149,-148,-99,-36,-8,126
-950,116,427,150,176,149,128,96,-5,-177
-2106,-930,507,406,386,316,279,155,-39,-421
-1711,-1178,55,254,261,212,193,94,-70,-412
-396,-41,-184,-127,-4,6,27,-10,-54,-29
624,1098,-35,-315,-245,-226,-172,-90,58,512
623,664,-79,-234,-196,-197,-145,-26,155,455
235,-546,-324,-57,21,13,78,117,156,158
158,-882,-155,118,194,180,240,198,131,17
145,-440,221,144,147,88,136,67,49,-24
-184,253,491,183,116,4,-3,-97,-174,-352
-470,158,575,238,132,0,-76,-160,-317,-580
-624,429,1088,396,115,-104,-243,-362,-538,-759
-482,482,872,271,38,-141,-234,-293,-343,-480
-337,-168,-226,-110,-67,-42,11,98,193,236
-260,-378,-764,-298,-82,75,200,333,446,502
-384,-656,-960,-302,-18,142,267,296,268,122
-191,-602,-786,-178,40,58,70,73,-213,-218
467,533,114,57,40,-44,-92,-124,-277,-159
1217,1642,1016,199,-71,-214,-251,-274,-135,168
1442,1606,1348,200,-186,-381,-443,-472,-306,118
237,84,868,-81,-274,-368,-372,-409,-306,-228
-830,-918,-174,-311,-209,-184,-134,-144,-100,-314
-701,-366,-533,-174,-55,-18,-6,-3,-15,-206
-252,-400,-887,-18,103,167,199,260,285,240
413,-70,-858,-81,62,144,197,302,440,672
865,283,-820,-246,-32,80,136,199,368,588
793,-355,-781,-197,49,172,259,277,407,490
-291,-1272,-514,31,217,297,379,370,386,233
-985,-679,-207,100,185,202,222,187,121,-186
-472,307,73,70,60,27,-2,-47,-89,-341
176,601,310,33,-44,-95,-156,-184,-186,-277
342,141,181,-34,-80,-106,-147,-140,-69,0
272,127,84,-74,-70,-58,-84,-63,21,108
128,158,214,26,16,16,7,15,30,-49
288,313,86,117,99,123,131,158,157,47
-62,-347,36,187,126,131,126,131,144,68
-777,-952,-107,80,33,-4,-83,-62,-240,-235
-698,-142,404,157,47,-32,-163,-196,-356,-400
-198,435,1008,292,49,-76,-168,-236,-216,-264
648,440,821,150,-91,-200,-228,-224,-111,54
1113,223,-224,-124,-197,-217,-172,-141,-91,25
997,471,-618,-178,-126,-93,-7,15,16,-33
661,290,-602,-156,-3,101,150,192,281,275
-66,-459,-631,-211,-45,161,102,145,282,370
-604,-1307,-747,-255,-62,109,129,130,235,313
-996,-1449,-517,-121,45,192,284,252,284,182
-987,-233,-198,-61,28,143,202,223,229,6
-671,531,61,1,2,81,112,131,114,-165
13,958,88,-20,4,81,99,86,49,-190
1323,1361,13,-96,-42,63,87,128,157,184
1522,855,163,24,-9,53,64,117,145,302
224,-68,395,189,7,-31,-96,-92,-122,-90
-1342,-199,445,225,1,-84,-196,-247,-370,-575
-1283,-54,324,144,-27,-92,-195,-235,-339,-520
-897,-192,411,89,-1,-3,-80,-122,-278,-498
-908,-530,406,128,113,139,83,46,-68,-245
-245,-732,-63,-4,55,121,97,165,240,365
845,12,-163,-107,-119,-95,-101,-10,170,493
1060,430,165,-51,-196,-231,-241,-207,-74,224
291,-80,137,-28,-160,-207,-203,-207,-169,-71
177,175,-91,-103,-147,-163,-159,-127,-78,28
749,563,-120,-225,-262,-304,-318,-273,-191,68
559,466,-8,-205,-245,-295,-313,-329,-313,-138
-362,-253,-149,-23,20,32,34,-39,-119,-285
-382,-104,-141,121,200,241,255,203,152,-92
276,15,-41,170,218,226,203,226,249,303
825,-157,48,122,105,103,49,106,150,422
451,-175,139,51,-10,-38,-70,-17,28,211
-138,249,417,99,16,-11,-41,-25,-55,-127
-189,700,690,221,52,21,-15,-47,-189,-402
621,894,332,103,-70,-126,-172,-169,-282,-234
684,402,213,140,5,-100,-239,-161,-409,-183
-885,-776,355,266,147,90,2,-22,-177,-325
-1240,-855,412,96,37,73,51,40,45,-99
89,134,115,-38,-91,-44,-32,-7,119,226
998,290,-690,-332,-316,-283,-215,-129,108,432
565,-281,-1029,-410,-230,-130,-49,66,268,459
-663,-553,-727,-201,35,158,205,212,192,-43
-1162,-1098,-314,65,246,333,350,273,160,-296
-442,-1140,-262,184,352,434,456,394,256,-168
170,-824,-419,48,175,238,233,180,34,-204
152,-285,-370,-102,-25,26,-20,-57,-150,-187
-190,193,-147,-128,-65,-15,-45,-64,-92,-66
-701,220,-280,-215,-100,4,40,90,147,82
-819,-16,-386,-197,-46,63,137,201,320,233
-442,9,-87,-12,58,78,114,116,148,110
-189,28,87,61,29,3,-9,1,-31,53
1,37,57,1,-12,-28,-32,17,-14,139
224,207,112,-6,18,9,28,80,35,123
384,400,306,87,60,30,63,89,31,79
507,229,325,91,61,28,51,96,22,89
279,-288,85,-32,-34,-102,-135,-15,-196,87
-145,-285,-129,-111,-68,-71,-65,-2,-77,65
-6,19,-230,-108,-45,-24,-30,9,5,127
412,304,-100,-109,-53,-40,-32,18,76,205
237,508,300,-31,-26,-19,-15,44,94,157
378,963,578,89,-49,-118,-163,-147,-118,-12
1236,1145,654,140,-78,-204,-270,-294,-297,-93
1947,1060,513,80,-161,-304,-363,-361,-286,53
1106,250,-5,26,-109,-204,-212,-243,-187,-4
-389,-811,-536,-45,20,2,42,-43,-115,-299
-1297,-879,-391,-15,126,152,214,99,-24,-429
-1451,-828,-57,19,185,225,279,177,84,-187
-1101,-707,-58,-28,105,141,157,123,174,147
-518,-181,-25,-35,51,96,85,90,152,170
105,630,205,-130,-127,-81,-98,-87,-38,27
615,1163,562,-177,-316,-343,-354,-344,-262,-43
458,1057,443,-182,-310,-350,-335,-336,-283,-138
-265,101,171,-88,-117,-127,-119,-145,-146,-247
-120,193,490,142,54,30,1,-23,8,12
952,669,508,282,124,63,0,14,108,387
962,221,160,268,153,39,-89,-1,-35,419
-264,-875,39,306,239,135,47,0,-69,-70
-1289,-1191,-62,203,182,131,102,-5,-121,-465
-398,112,-94,36,41,50,53,12,-9,-170
1297,1234,133,-8,-50,-70,-71,-48,7,174
2240,1293,-115,-128,-168,-230,-280,-172,-203,273
840,-328,-816,-246,-186,-141,-127,-131,-72,81
-1264,-1530,-991,-153,44,144,224,159,208,36
-1665,-995,-551,-88,186,321,427,375,430,101
-1465,-651,-226,-72,132,259,380,307,297,-97
-1101,-389,107,106,136,170,256,129,101,-260
-806,-160,193,139,146,172,227,139,116,-186
-423,233,657,91,41,33,94,55,87,-53
-170,463,984,87,-50,-64,-62,-100,-120,-170
-175,-90,601,35,-107,-95,-142,-237,-290,-364
70,-432,6,31,-110,-112,-151,-238,-232,-305
947,43,-443,-103,-176,-136,-142,-129,-28,43
1066,-81,-919,-265,-161,-64,-60,6,137,237
309,-669,-885,-74,45,102,50,71,69,80
-288,-715,-631,-14,29,55,-4,43,62,103
-491,-66,-135,10,36,64,-1,81,155,237
-327,221,83,33,88,119,75,131,142,185
-159,376,67,1,70,129,104,148,94,116
380,583,55,-36,-21,35,31,96,78,207
780,667,255,61,-53,-68,-94,-44,-34,185
98,-244,251,72,-58,-149,-221,-152,-323,-60
-463,-648,169,34,-95,-197,-230,-232,-320,-322
-186,-202,160,25,-58,-140,-142,-170,-195,-277
-204,-504,-390,-97,88,137,200,189,149,11
-340,16,-479,-89,182,298,368,350,344,124
-421,270,-199,-16,102,152,194,172,228,69
-342,154,67,29,32,8,11,-8,77,29
-255,66,104,121,41,-4,-35,-62,7,-43
-21,187,170,136,35,-11,-28,-24,55,24
177,329,37,37,-6,-11,-10,6,60,23
440,389,72,-16,0,17,46,35,8,-99
568,166,234,-43,-29,-22,22,-16,-79,-159
625,145,207,-136,-158,-145,-87,-92,-107,-68
404,589,391,-54,-118,-116,-75,-91,-105,-83
-10,242,480,91,-1,-28,-9,-74,-56,-22
154,106,-9,120,81,37,-24,-25,13,124
355,-510,-346,-42,9,29,48,117,182,390
718,173,-463,-202,-130,-123,-122,65,52,515
852,982,-108,-198,-240,-396,-570,-258,-633,193
824,780,341,-20,-246,-402,-504,-405,-479,14
322,-477,331,124,-102,-192,-208,-227,-118,-40
-350,-558,263,163,83,44,48,16,81,-164
-775,13,360,132,170,186,206,175,172,-209
-767,-437,-165,-58,71,143,191,161,128,-174
-227,-362,-479,-169,-25,38,122,91,87,-30
231,-301,-551,-176,-6,73,141,104,127,138
659,79,-357,-208,-87,8,71,77,216,382
1173,422,-419,-222,-120,-10,54,118,300,538
921,142,-304,-80,-25,69,97,114,227,338
-26,-329,-178,37,5,25,22,-33,-29,-83
-1451,-589,-157,70,39,15,-6,-121,-231,-559
-1543,-136,159,204,191,163,145,32,-62,-425
-805,-268,297,269,247,226,225,150,150,-94
-580,-459,270,220,178,159,185,111,172,-36
-588,-110,184,162,106,116,149,107,161,-27
-331,379,96,103,32,33,84,-7,-4,-144
31,470,1,39,-1,-25,42,-80,-77,-134
-112,8,365,44,15,-11,63,2,65,40
-276,50,1311,201,58,15,76,42,93,22
-287,32,1383,190,-27,-90,-47,-89,-112,-265
71,93,561,96,-144,-243,-203,-257,-336,-458
737,307,-567,-70,-176,-217,-140,-153,-201,-216
1523,1089,-736,-229,-247,-250,-174,-127,-89,114
1381,906,-334,-133,-181,-201,-142,-103,-38,189
194,-819,-617,-147,-66,-25,49,91,192,389
-1105,-1261,-948,-278,-12,98,191,182,193,95
-999,-196,-429,-146,48,92,137,96,72,-158
-199,352,-32,-4,64,63,78,40,58,-4
210,489,-3,34,30,17,-2,-30,-8,81
-40,75,62,100,49,23,0,-53,-106,-19
-384,-348,57,222,120,44,9,-60,-150,-205
-137,-84,158,241,76,-42,-106,-160,-191,-93
355,97,76,67,-27,-104,-158,-128,-60,220
623,293,-51,-82,0,11,9,97,179,414
710,471,382,-12,55,64,67,115,133,207
1002,249,143,-94,-81,-69,-73,-48,-84,-30
1257,693,29,-198,-192,-187,-197,-167,-170,-3
1235,516,-200,-203,-90,-33,-35,40,58,304
431,-370,-512,-128,114,221,221,275,237,290
-467,-868,-371,-128,24,110,125,196,248,327
-468,-377,10,-14,-55,-62,-50,26,187,348
-256,9,4,18,-67,-119,-138,-127,-59,23
-113,317,96,19,-128,-201,-216,-264,-292,-287
-447,-83,158,190,22,-48,-42,-129,-244,-421
-979,-67,467,324,254,212,220,85,-157,-536
-1353,-196,907,303,251,198,196,42,-224,-631
-498,-74,572,121,48,11,15,-33,-153,-357
957,132,-52,-62,-80,-102,-123,-67,12,122
646,-70,-87,-21,-9,-24,-66,-26,72,78
-1253,-989,-281,2,88,92,45,-6,-23,-362
-1073,-315,-214,-3,69,77,60,-22,-37,-239
-502,-121,-392,-77,103,159,193,134,95,-117
-448,-203,-236,-46,132,210,224,206,175,-50
-128,207,545,121,114,129,127,169,218,145
138,762,1485,334,98,28,-16,14,81,34
-76,312,1208,248,-41,-142,-227,-218,-212,-221
20,-305,-6,9,-161,-241,-287,-280,-317,-360
505,-727,-1180,-166,-95,-77,-83,-17,-127,-205
792,-647,-1703,-386,-35,102,112,238,43,115
440,-553,-1314,-429,-61,128,220,302,387,578
-291,-91,-737,-282,-18,139,213,298,483,650
-357,331,-171,-125,-14,68,118,180,427,623
-16,379,-124,-133,-54,-3,46,83,286,466
446,826,211,-25,-36,-55,-52,-50,63,147
986,1375,603,138,19,-46,-82,-78,3,123
717,476,469,94,-46,-85,-92,-84,33,233
-361,-751,-97,-81,-78,-64,-26,-36,-11,2
-748,-642,-329,-103,-14,26,47,5,-60,-248
-330,57,-146,-68,-66,-62,-69,-60,-89,-205
-94,282,108,-19,-87,-128,-122,-117,-108,-115
-77,-111,98,4,-19,-65,-40,-60,-71,-51
-346,-591,-12,-22,10,9,50,41,0,-58
-254,-741,-159,-18,34,146,78,81,54,-24
-37,-216,37,62,35,91,-30,-37,-113,-173
152,432,310,209,64,-4,-89,-96,-128,-109
108,451,271,175,20,-33,-87,-43,32,41
-228,231,56,67,49,49,27,60,120,26
-575,-91,-91,-18,101,149,139,120,89,-182
173,65,40,-90,-34,-4,-9,1,10,-78
977,72,231,-31,-109,-138,-146,-149,-90,150
816,-402,249,45,-89,-143,-190,-219,-178,130
-240,-440,-20,21,-5,-12,-57,-87,-122,-55
-751,394,-26,112,178,203,184,147,104,13
-183,737,154,207,205,211,191,198,204,282
455,36,43,81,60,62,25,66,106,257
485,-304,-261,-22,-10,-6,-41,-12,5,137
33,2,74,76,35,7,-46,-68,-86,-41
-456,34,357,136,52,2,-62,-124,-157,-169
-791,-158,145,62,26,2,-38,-116,-175,-228
-565,-58,-5,-72,-74,-83,-71,-110,-143,-118
66,251,-147,-154,-216,-231,-224,-228,-199,-20
675,587,19,-140,-196,-197,-202,-193,-143,66
1152,844,493,-31,-47,-61,-86,-61,-52,132
756,-222,273,-7,-12,-24,-13,-16,-34,67
-309,-1393,-383,-89,-28,-1,56,23,-31,-112
-537,-460,-575,-64,-36,-5,37,-16,-87,-205
-79,318,-456,32,31,35,72,14,-35,-113
470,273,-205,11,32,13,82,27,54,19
519,-138,-127,-83,-22,-15,94,59,110,123
413,-94,-16,-115,-74,-50,45,23,44,58
638,532,198,-83,-138,-149,-105,-115,-95,-11
784,508,30,-160,-207,-184,-136,-91,-5,139
334,425,-156,-160,-136,-78,1,66,202,290
-125,409,-215,-40,23,83,143,175,241,177
-433,272,18,119,109,89,108,48,17,-150
-367,311,351,163,97,53,45,-35,-125,-292
-164,-83,319,157,150,130,165,123,-12,-239
-57,-550,103,148,174,176,227,176,20,-216
-458,-653,-114,23,20,1,38,-56,-180,-312
-847,-131,11,131,80,19,22,-151,-305,-468
-722,0,420,277,219,154,118,-43,-151,-330
-267,-30,578,194,93,26,-16,-44,61,-24
461,317,660,67,-28,-69,-74,2,116,125
987,899,852,59,-103,-157,-181,-91,-99,20
730,662,628,52,-158,-258,-293,-273,-347,-238
787,186,-63,-45,-152,-239,-271,-281,-340,-140
1237,121,-791,-249,-183,-183,-179,-83,75,461
1152,-159,-966,-319,-114,-18,58,212,450,664
437,-737,-852,-224,25,161,236,321,335,160
438,-625,-636,-130,44,130,134,127,12,-103
357,-121,-449,-165,-83,-50,-67,-99,-113,-67
34,388,-119,-198,-202,-184,-178,-152,9,416
-560,633,372,8,-105,-134,-130,-72,153,602
-764,881,706,219,-16,-108,-157,-123,33,283
-720,199,265,105,-15,-48,-96,-76,-9,43
-965,-798,-64,-75,-55,-18,-41,-74,-125,-313
-1350,-1177,76,103,184,235,226,135,-93,-481
-1345,-854,-65,237,382,444,431,307,43,-337
-549,-410,-470,59,198,258,229,190,127,-12
236,507,-30,125,77,62,21,25,56,50
42,-242,-192,59,49,58,84,102,158,192
-1043,-1259,-638,-146,18,100,165,140,77,-41
-1148,-771,-590,-167,26,121,186,165,75,-53
-660,-61,-250,-54,125,205,257,257,217,119
-275,103,19,24,167,229,247,216,132,-80
108,151,122,32,117,157,149,113,-23,-366
663,-88,44,-50,9,25,-4,-3,-148,-537
997,-28,-50,-116,-91,-96,-92,-62,-217,-499
974,256,-107,-103,-124,-131,-141,-148,-263,-334
534,342,-5,-72,-104,-136,-151,-231,-309,-252
159,166,45,-101,-106,-113,-104,-74,77,314
98,10,219,-87,-121,-107,-74,105,516,906
534,232,469,6,-133,-170,-185,-74,199,449
303,37,359,-22,-244,-334,-379,-351,-188,100
-555,-22,94,-47,-200,-279,-310,-284,-109,104
-1098,-63,80,148,121,52,-8,-36,73,140
-1017,-136,18,214,282,236,167,113,207,321
-629,115,438,210,296,287,227,216,365,392
-31,608,1080,315,207,130,50,38,175,167
705,1452,1101,322,78,-86,-149,-171,-69,48
1044,1189,194,76,-84,-198,-199,-187,-92,99
777,660,-123,-91,-134,-177,-121,-54,71,310
-31,-193,154,-89,-65,-53,-11,51,146,342
-632,-881,91,-111,-24,6,4,35,56,124
-748,-539,84,-88,-59,-69,-143,-170,-217,-226
-301,-346,54,-33,-89,-114,-231,-273,-382,-393
1365,382,-183,-26,-153,-229,-325,-286,-331,-80
2116,892,-579,-174,-208,-244,-286,-203,-174,141
505,319,-694,-60,69,93,75,91,6,-156
-1435,-665,-338,179,375,430,408,381,184,-298
-2088,-874,206,318,415,417,364,312,124,-299
-1590,-652,380,302,322,318,267,222,31,-321
-1110,-1052,-42,141,203,227,210,182,18,-239
-642,-1439,-1095,-192,93,215,239,248,151,67
173,-52,-813,-290,-36,67,98,118,83,108
654,591,-78,-102,-35,-9,4,-4,-21,6
515,251,116,2,-13,-18,-33,-31,-48,2
436,37,-91,-121,-129,-113,-85,-60,-33,184
1203,582,-185,-313,-281,-231,-143,-58,100,525
1693,483,-56,-318,-273,-220,-116,-34,131,465
1055,-215,-171,-172,-97,-45,42,36,74,161
138,-54,-14,38,97,101,128,54,58,7
-184,484,78,32,59,56,41,-1,16,66
239,557,-4,-54,2,43,45,109,180,357
504,326,222,-11,-26,-10,-3,87,178,365
-512,-62,492,76,-6,-40,-90,-75,-123,-265
-1278,6,568,74,-7,-56,-130,-198,-320,-613
-1004,-234,287,73,30,12,-21,-51,-115,-343
-943,-1147,-181,40,64,114,137,182,202,53
-783,-812,-168,40,39,85,100,161,216,134
-743,533,314,222,45,-22,-87,-117,-154,-271
-1047,214,292,216,-10,-121,-207,-289,-402,-624
-869,-452,-33,17,-65,-137,-152,-193,-291,-502
-127,-318,-8,7,77,61,95,85,17,-159
775,194,-323,-65,101,115,202,220,202,174
1322,604,-433,-117,18,45,120,144,103,152
884,302,-178,-123,9,126,85,98,-10,-26
157,157,96,-45,-22,46,-45,-45,-153,-201
-172,123,61,12,0,-8,-36,-13,-31,-100
-486,-314,-140,63,120,126,116,148,92,-111
-740,-726,-225,86,216,253,227,236,80,-199
121,269,93,95,115,97,63,71,34,28
852,602,394,77,-3,-56,-80,-62,-44,164
1097,483,733,0,-155,-221,-197,-147,-21,412
681,460,727,69,-94,-151,-131,-99,-4,295
146,-337,187,11,-85,-138,-111,-124,-136,-33
-297,-939,-499,-79,-126,-181,-179,-207,-225,-206
-546,-725,-787,-61,-1,-12,-16,-26,-91,-263
-504,174,-339,-3,53,58,44,30,-130,-346
-33,688,176,101,135,143,114,115,-6,-50
1063,408,31,39,68,91,80,102,105,222
1830,-93,-403,-151,-115,-83,-92,-53,64,434
846,-597,-537,-166,-108,-78,-59,14,171,431
-857,-483,-95,33,44,35,28,29,6,-207
-1270,-418,213,106,94,76,36,-23,-169,-415
-530,-122,168,29,22,0,-30,-78,-135,-133
-278,60,-194,-67,9,32,42,42,41,118
-652,-81,-125,35,140,172,211,195,143,9
-551,-87,74,82,124,126,187,169,186,39
-264,173,195,-5,-7,-14,21,27,161,202
-183,242,272,-3,-27,-47,-38,-11,115,174
-523,-280,-3,-45,-35,-24,-8,27,123,102
-188,208,-200,-123,-99,-57,-55,-22,61,127
785,409,-221,-125,-138,-109,-107,-78,28,258
1402,209,4,-84,-165,-188,-177,-190,-122,143
1617,388,296,-21,-149,-206,-181,-249,-246,-81
1435,688,134,-114,-173,-201,-148,-229,-220,-115
964,777,43,-146,-94,-72,-5,-63,-46,33
-149,357,127,66,88,87,128,60,68,-11
-1138,-681,-177,97,131,144,171,120,134,5
-1186,-833,-296,18,29,24,24,0,57,51
-732,126,-39,-75,-147,-187,-153,-153,-17,25
-145,517,74,-161,-225,-246,-150,-159,-4,25
232,128,-55,-96,-34,10,139,109,157,57
641,6,9,71,153,183,262,209,194,104
594,106,548,208,120,81,85,13,-26,-89
-30,149,920,256,31,-60,-86,-188,-247,-342
-1058,-365,416,147,-15,-90,-137,-233,-320,-548
-1422,-477,-281,3,-2,-28,-43,-91,-156,-410
-916,-127,-192,115,122,110,114,136,139,10
-367,-189,-182,116,163,173,184,216,194,57
128,-341,-268,11,103,137,181,179,139,64
469,-228,-209,-83,-13,16,93,76,99,214
606,-119,-284,-89,-76,-38,-1,39,144,395
160,64,-234,65,24,41,31,76,137,231
11,311,125,129,61,40,36,43,34,3
-79,-50,249,59,-12,-25,-21,-21,-55,-96
-26,-246,-12,25,1,26,30,64,39,7
290,-184,91,84,118,154,177,206,152,83
945,119,489,99,96,130,165,167,109,166
1233,891,625,55,-13,-36,-39,-97,-130,40
1026,857,389,-33,-169,-260,-317,-343,-327,-75
501,416,-131,-34,-119,-182,-274,-275,-301,-128
443,721,-432,-194,-132,-92,-120,-88,-100,75
431,974,-344,-286,-224,-166,-157,-55,6,317
350,596,-326,-152,-129,-132,-160,-95,-42,207
663,-19,-353,-95,-57,-37,-72,-36,8,245
-390,-1322,-588,-82,78,188,189,161,44,-61
-1732,-1482,-246,46,120,186,173,83,-105,-523
-2032,-886,240,199,140,101,62,-29,-145,-567
-2090,-877,117,211,224,199,133,52,-128,-650
-1496,-615,-275,105,215,230,161,115,-59,-429
-541,-269,-282,-25,101,154,124,183,171,190
16,-268,-439,-133,40,159,160,288,334,432
173,-134,-473,-161,-9,115,144,257,227,243
167,65,-137,-28,-9,55,54,122,60,-2
372,160,-82,19,-35,-27,-50,10,-13,-23
858,518,46,1,-95,-137,-160,-119,-86,4
1289,512,343,-6,-113,-164,-182,-107,6,183
1066,-20,522,107,27,-14,2,86,245,344
412,-235,304,123,58,36,74,76,147,138
-128,-59,57,-36,-97,-107,-56,-69,-25,21
-221,-199,-12,-28,-85,-67,-59,-79,-15,35
-146,62,171,48,-46,-80,-100,-165,-121,-162
-234,636,144,-10,-92,-139,-156,-188,-188,-259
-527,231,103,63,0,-48,-59,-56,-60,-157
-1005,-476,-121,116,116,116,94,65,18,-180
-607,-159,-91,-29,9,38,31,28,82,72
404,793,432,-19,-90,-125,-156,-152,-46,76
1045,1390,773,9,-198,-281,-331,-342,-220,-91
620,904,691,23,-161,-192,-253,-275,-281,-336
86,177,302,112,36,54,28,20,-163,-466
-14,198,161,274,188,155,162,129,-119,-472
-281,-36,16,281,195,143,115,22,-151,-396
-356,-823,-314,-32,-51,-42,-69,-97,-93,-260
180,-1296,-699,-204,-72,44,37,69,169,60
511,-704,-785,-209,5,121,146,186,274,279
568,140,-332,-90,8,61,93,122,172,228
62,184,-131,27,3,6,-5,-6,-19,96
-715,-499,-384,-20,36,66,72,122,118,249
-753,-345,-347,-87,34,70,86,171,263,418
-292,384,29,-41,36,57,50,117,183,317
494,939,426,10,-48,-70,-90,-39,24,180
1343,693,315,-72,-147,-149,-168,-74,47,379
1442,-60,224,-132,-181,-153,-124,0,179,523
901,152,445,-63,-174,-173,-130,-89,-34,65
397,-85,352,-78,-148,-119,-87,-112,-178,-139
-215,-408,109,82,64,75,83,-8,-160,-212
-740,255,-95,115,142,157,165,70,-85,-198
-1026,-90,-438,0,60,94,111,77,1,-40
-809,-815,-817,-100,47,103,110,93,15,-65
-738,-667,-596,-36,117,172,159,116,-54,-295
-997,-180,-63,31,107,126,140,95,-73,-403
-887,-123,-66,1,54,81,120,116,70,-124
-369,312,13,1,1,0,-1,22,45,80
135,574,381,100,0,-84,-130,-104,-101,-4
293,66,219,90,43,-24,-31,-18,-32,-3
331,11,80,29,35,9,56,81,83,183
208,248,-37,-81,-83,-86,-34,42,94,345
15,154,150,-40,-75,-96,-61,14,44,294
-292,-89,442,136,43,-13,-30,-11,-34,24
-52,-132,66,13,-16,-73,-100,-75,-47,-11
219,-134,-380,-138,-74,-88,-70,-28,13,33
380,212,-165,13,47,2,15,0,-29,-45
479,703,233,125,34,-58,-105,-156,-169,-21
344,281,208,120,31,-42,-69,-108,-56,166
293,-59,77,33,12,-27,0,-16,14,88
498,86,-48,-117,-90,-81,-18,48,126,247
131,83,-43,-59,-11,-26,43,101,184,313
-512,-355,19,58,127,100,134,127,121,20
-582,-28,189,70,107,122,91,64,7,-173
-81,-498,-44,0,36,108,40,32,-43,-177
1093,-274,59,-57,-176,-198,-220,-217,-268,-212
1492,331,410,-118,-359,-442,-463,-450,-449,-364
206,167,182,-160,-304,-376,-379,-350,-312,-455
-1171,96,-56,-62,-34,-65,-75,-92,-103,-377
-1743,-794,-340,52,289,339,347,357,290,-67
-1249,-889,-297,121,371,460,499,533,448,126
-394,-138,-384,-42,167,259,297,292,286,154
157,133,-290,-96,58,118,118,98,165,157
378,-105,-132,-8,71,91,86,85,113,138
94,256,144,79,114,94,74,50,45,103
-183,540,349,43,45,22,4,17,48,160
151,169,256,-31,-82,-93,-70,5,113,271
297,-426,-127,-62,-92,-52,-28,82,208,407
23,-364,-292,-16,11,41,97,131,201,354
-236,589,160,175,111,40,36,-42,-90,-60
-270,468,253,196,129,39,22,-56,-141,-139
-311,-575,-41,122,125,93,100,38,-31,-53
-162,-366,171,48,62,75,77,28,-34,-65
203,315,749,35,-53,-72,-97,-99,-143,-53
472,543,608,16,-117,-154,-177,-166,-193,-67
699,680,-98,-67,-140,-161,-161,-152,-181,-64
1150,284,-370,-70,-86,-51,-31,-12,-12,183
1002,-414,-286,-91,-68,0,62,56,91,241
93,-495,-242,-138,-174,-159,-103,-179,-164,-102
-556,537,38,-53,-130,-148,-114,-192,-219,-256
-413,547,152,89,57,80,116,72,36,-75
-117,-106,-2,70,99,145,186,166,156,108
-222,-784,-366,-87,27,90,157,144,131,105
-176,-412,-353,-166,-73,-8,41,21,-11,-23
183,116,288,-27,-71,-30,-53,-72,-114,-79
328,62,111,-35,-67,-17,-36,-19,-16,38
-238,-368,-386,-56,21,99,99,156,137,88
-803,346,3,83,62,79,52,43,-75,-283
-260,699,153,123,30,-28,-67,-139,-239,-371
404,109,-218,-58,-73,-111,-92,-115,-111,-31
742,28,-263,-102,-40,-34,55,75,123,275
273,-165,10,12,40,28,84,79,99,109
-341,412,521,167,26,-51,-92,-85,-114,-235
-277,138,640,316,144,34,-38,-22,-98,-310
9,-852,128,193,101,16,-49,-50,-134,-400
556,-222,26,15,-50,-104,-167,-199,-324,-635
1609,1067,-73,-243,-225,-188,-194,-158,-247,-437
1656,138,-658,-400,-184,-51,-25,57,72,26
463,-876,-959,-354,-115,-23,59,83,160,354
31,-170,-571,-346,-250,-236,-174,-130,91,770
-192,480,-113,-207,-201,-171,-168,-85,197,778
-943,133,73,46,29,55,19,59,228,242
-1297,155,304,258,218,166,130,71,60,-219
-525,210,80,113,135,127,165,126,124,9
350,352,-33,-75,15,64,144,199,280,373
316,466,88,-71,-15,-2,42,104,170,266
-461,-51,109,47,52,36,24,35,4,-94
-839,-579,60,95,73,52,30,23,-85,-266
-520,-570,249,183,125,69,48,48,-82,-214
18,-671,498,241,155,61,47,67,-66,-120
737,19,395,118,26,-60,-60,-12,-42,85
1535,1207,140,-59,-203,-282,-273,-175,-63,375
1668,1283,100,-156,-308,-389,-366,-246,-85,516
322,418,54,-127,-162,-215,-183,-99,-77,157
-1615,-117,324,98,85,43,6,-62,-250,-496
-1959,-796,165,207,216,247,93,-95,-392,-785
-835,-969,-210,81,133,167,54,-61,-285,-507
-339,-689,-158,116,199,197,133,76,-118,-316
-391,-17,216,74,114,99,63,32,-80,-217
-207,873,703,122,-23,-86,-157,-127,-141,-111
-66,591,619,265,81,-18,-143,-71,-250,-46
-124,101,-15,197,170,156,105,119,65,87
-504,-525,-464,-16,68,104,143,101,77,-92
-286,-363,-350,-109,-29,27,61,30,-22,-240
973,888,-19,-86,-90,-66,-73,-80,-113,-169
2022,553,-159,-89,-122,-121,-145,-121,-82,116
1268,-749,-627,-127,-33,47,66,79,98,165
-517,-1006,-868,-224,-29,88,192,143,85,-157
-1193,-414,-569,-269,-67,65,177,155,146,-198
-931,-121,120,-169,-78,-4,86,72,125,-119
-614,-138,372,-21,-27,-32,8,-88,-69,-154
-682,-390,253,43,0,-22,-24,-109,-82,-130
-432,-414,-50,92,64,69,59,80,185,103
401,90,47,229,209,158,61,155,106,187
1154,338,290,259,191,135,48,85,97,210
1104,-188,53,72,24,25,39,71,220,537
-13,-386,-311,-108,-82,-38,36,76,327,676
-975,79,-399,-161,-93,-47,4,5,207,322
-976,271,-113,20,50,62,41,-22,60,44
-702,151,96,162,105,66,4,-63,-4,-1
-533,-173,-85,88,35,5,-11,-68,1,6
-105,84,-204,-86,-108,-108,-66,-91,-4,87
-43,140,-98,-88,-127,-117,-66,-67,-5,95
14,-42,-84,-9,1,26,47,35,45,94
525,-205,-2,9,75,98,132,106,117,192
1011,196,447,-15,-23,-30,-5,20,98,288
766,815,801,3,-143,-200,-223,-167,-61,156
66,586,479,-86,-204,-280,-292,-265,-221,-161
-206,67,-348,-146,-156,-172,-179,-145,-197,-297
367,332,-763,-180,-92,-39,-38,30,-28,-145
646,115,-580,-124,-40,3,-13,26,-61,-237
537,-361,-502,-118,5,66,73,72,-91,-284
309,-415,-332,-21,106,184,185,172,-2,-102
-526,-171,336,152,85,60,-6,-33,-180,-205
-719,-584,624,181,12,-65,-133,-111,-108,113
290,-353,235,32,-38,-69,-78,22,130,326
1030,112,-48,-123,-97,-52,-21,108,179,295
116,-447,-354,-110,11,99,116,198,115,-6
-588,-219,-240,-27,48,81,31,65,0,-100
12,647,308,89,3,-44,-141,-112,-101,-30
940,1311,683,68,-120,-234,-321,-271,-201,37
1262,1484,459,-120,-297,-383,-429,-327,-203,200
380,639,-88,-252,-255,-237,-240,-134,-76,179
-264,-528,-648,-177,-7,75,97,154,134,113
-885,-936,-410,113,317,380,377,315,171,-175
-891,-1010,55,202,301,334,324,231,122,-102
-2,-519,-180,-50,46,127,160,186,231,356
190,-151,-360,-114,-12,52,66,132,179,276
-548,63,49,68,53,13,-38,-29,-66,-152
-852,139,239,189,124,77,6,-20,-100,-277
-515,-285,35,200,195,196,148,120,81,-69
-123,-308,-3,75,121,147,143,172,212,167
275,85,229,51,50,50,64,119,165,208
295,647,567,136,11,-55,-97,-100,-93,-28
140,706,652,136,-72,-202,-283,-328,-358,-295
42,608,306,41,-150,-272,-335,-372,-410,-413
314,-8,-106,-86,-189,-230,-223,-249,-262,-262
-86,-785,-301,-110,-92,-75,4,-48,-128,-287
-353,-797,-134,45,104,125,190,134,37,-231
-210,-273,-58,34,71,86,125,123,87,-101
138,167,-55,39,109,108,170,231,257,207
828,566,187,106,145,120,177,269,406,561
1253,387,-50,-70,-54,-38,8,116,329,649
336,-187,23,-111,-114,-13,-93,-32,66,262
-990,-293,370,57,9,32,-66,-43,-115,-158
-1411,-515,361,169,122,73,-5,-21,-183,-346
-1333,-592,223,197,110,38,-26,-80,-202,-429
-1039,-317,-142,81,18,-36,-73,-99,-160,-330
-457,-8,-561,-34,19,27,28,67,12,-112
-129,70,-580,61,151,183,175,225,161,56
-189,29,119,177,155,140,137,141,86,47
132,553,832,167,-23,-120,-125,-158,-146,-76
1695,1746,1084,148,-107,-245,-275,-264,-152,206
2738,1000,450,28,-89,-154,-127,-64,138,674
1223,-914,-254,-144,-98,-96,-48,-8,126,416
-1809,-1134,-69,-51,33,35,28,-14,-109,-436
-2289,-463,38,57,119,92,103,22,-111,-651
-1179,-509,-549,-84,29,37,107,57,4,-353
-601,-545,-953,-232,-18,47,149,156,121,-72
-223,204,-452,-197,-44,9,86,116,69,-120
-79,589,188,-44,-63,-66,-56,-64,-152,-390
195,350,76,-36,-112,-148,-172,-201,-286,-396
780,213,-421,-180,-181,-161,-166,-157,-135,-8
926,216,-416,-159,-70,54,63,118,230,435
503,-127,-229,30,154,255,317,358,452,593
45,-156,68,129,170,204,259,259,288,304
113,-237,213,96,31,23,69,76,119,108
-17,-166,114,76,-24,-63,-22,11,50,-12
-460,-94,-27,47,-16,-59,-61,-52,-31,-182
-305,48,-124,43,-26,-99,-116,-130,-149,-292
335,269,-71,-39,-114,-176,-157,-181,-222,-361
1034,365,-148,-122,-87,-43,18,11,-30,-139
1439,44,-42,-73,-14,55,86,103,86,139
36,-1135,181,111,81,61,53,19,0,-46
-1589,-1369,36,102,98,73,90,10,-107,-382
-1569,-691,-164,4,33,24,80,23,-142,-459
-1108,-283,-299,34,117,145,216,168,-55,-409
-576,57,-352,-18,120,199,238,235,53,-221
-42,349,-195,-145,-60,22,79,119,108,109
529,134,6,-163,-144,-103,-41,58,234,545
884,544,93,-99,-124,-131,-92,-34,142,543
1114,645,66,-73,-94,-92,-77,-1,179,676
558,326,33,-21,-9,21,26,120,269,601
-190,-187,184,67,21,11,-22,-6,41,132
-293,-154,190,0,-80,-123,-153,-194,-179,-97
-75,-120,103,-1,-45,-80,-85,-144,-163,-79
97,268,279,85,26,-26,-25,-101,-143,-140
227,1104,603,214,79,-8,-53,-158,-197,-189
712,1222,559,212,14,-68,-148,-185,-122,52
1150,507,434,-27,-178,-203,-241,-130,70,527
266,-562,41,-201,-193,-164,-163,-30,120,532
-1115,-674,-165,-96,-58,-51,-68,-41,-57,-67
-1527,-118,-136,128,103,59,-12,-79,-220,-482
-857,210,-22,185,175,110,51,-19,-126,-329
-49,-158,30,63,52,38,18,40,30,-7
299,-273,15,-5,-16,12,28,95,101,132
573,-6,-116,-95,-76,-14,18,111,109,153
755,389,-83,-76,-81,-38,-6,56,36,104
909,675,16,25,-24,-20,-33,-12,-41,126
638,242,120,12,27,59,25,73,41,118
-47,-491,130,-41,4,42,8,39,-51,-97
-577,-286,0,-92,-47,-36,-72,-113,-239,-394
-70,685,-116,-141,-73,-26,-52,-83,-154,-293
576,989,286,21,0,18,-44,-71,-147,-347
818,692,841,194,78,19,-65,-157,-293,-521
1322,585,559,80,-49,-135,-184,-260,-321,-230
1403,-315,-873,-288,-146,-112,-97,-102,-66,165
328,-695,-1352,-500,-200,-81,-36,44,210,391
-780,-279,-486,-220,-107,-60,-52,-6,178,113
-1161,-490,-162,-17,8,11,-14,-45,82,-17
-1196,-979,-309,17,110,147,174,140,295,234
-1345,-646,-140,95,182,234,279,230,344,120
-1207,-350,3,153,194,237,275,229,297,85
-932,-328,-106,104,120,166,194,164,226,124
-816,-303,-276,51,115,179,184,147,131,-25
-481,-230,-214,2,53,103,104,82,60,-90
103,187,-101,-9,-18,6,0,-7,0,-53
722,508,-27,-35,-78,-61,-59,-55,-43,0
1369,539,44,-87,-148,-130,-134,-115,-66,101
1115,116,264,87,-41,-60,-85,-82,-42,101
54,-90,629,344,139,52,-8,-74,-148,-227
-106,398,572,284,70,-5,-70,-88,-135,-143
-9,322,258,60,-57,-45,-72,-15,34,145
-222,-398,-92,-136,-84,9,64,111,143,133
-115,400,89,-142,-120,-63,-21,-25,-47,-25
-127,703,482,31,-34,-23,-13,-54,-115,-90
-84,720,557,102,-45,-64,-53,-65,25,135
-525,-37,271,135,48,28,26,-9,20,-58
-629,-629,-51,-1,9,45,54,43,-11,-141
-426,-474,-292,-101,-16,55,57,74,24,-73
-276,-336,-473,-140,-20,35,33,-13,-139,-311
-120,-488,-488,-108,-35,9,37,-60,-195,-338
-171,-773,-441,-68,30,84,64,5,-76,-152
-275,-245,12,-27,6,34,-36,-51,-23,-59
-180,135,255,9,-16,-21,-53,-52,58,168
40,142,315,17,-29,-26,-44,13,142,312
157,-27,291,50,26,47,22,101,175,287
-143,-104,153,84,103,118,65,115,117,203
-376,-33,32,59,23,-21,-90,-70,-81,26
199,298,-104,0,-47,-109,-163,-119,-93,120
754,87,-400,-159,-112,-122,-150,-60,-5,249
746,-117,-452,-142,-68,-35,-40,66,62,184
515,391,-147,-16,20,32,23,105,41,39
491,567,16,33,27,16,-9,54,45,91
109,94,62,14,4,9,-11,38,40,57
20,118,189,8,-41,-62,-101,-84,-97,-89
617,428,130,20,-20,-77,-129,-126,-161,-136
1052,195,-172,-7,-16,-33,-62,-24,-25,53
422,-232,10,-14,-52,-61,-82,-61,-70,24
-455,-256,258,-15,-116,-164,-194,-214,-258,-292
-394,-883,-298,-116,-92,-95,-106,-71,-68,-56
-160,-476,-264,-52,86,101,94,130,100,3
-27,249,210,48,140,116,113,98,42,-79
-69,232,230,22,57,16,46,35,45,78
246,-19,125,19,41,17,73,88,103,250
304,1,-6,55,50,41,79,89,85,175
-76,314,-45,80,79,65,78,64,52,-34
-617,264,126,78,75,46,44,9,0,-227
-824,-8,311,75,92,48,52,22,-12,-359
-240,187,317,61,66,38,22,-3,-19,-305
304,415,221,-16,1,0,-34,-82,-89,-305
150,225,197,-16,27,27,-6,-63,-75,-243
-271,-279,290,44,39,5,-8,-25,12,50
-216,-351,103,-38,-52,-86,-48,-74,-60,57
385,49,-200,-81,-86,-109,-62,-69,-38,41
1016,304,-531,-168,-132,-103,-50,42,179,345
780,307,-345,-122,-115,-59,-8,65,147,246
366,480,79,124,8,-51,-10,-65,-97,-122
-99,213,214,299,149,21,42,-89,-165,-275
-460,242,344,314,200,103,122,-23,-133,-314
-284,-258,-187,13,66,74,168,76,-60,-181
-247,-941,-791,-331,-115,-3,151,123,122,124
-650,-949,-428,-189,-38,27,112,138,314,318
-980,-581,102,44,108,109,99,122,266,175
-163,560,243,-183,-167,-155,-111,-81,8,54
631,315,61,-348,-355,-336,-236,-200,-146,-51
461,-471,-168,-95,-131,-163,-122,-161,-237,-239
-31,-168,-97,182,181,135,104,-13,-197,-326
29,823,10,183,174,129,94,-8,-119,-73
796,866,-136,25,22,6,28,58,214,581
864,-315,-290,35,32,39,57,129,343,699
-128,-822,-51,102,66,47,-6,37,92,182
-823,-161,474,72,3,-32,-105,-96,-127,-269
-763,0,625,25,14,20,-8,-16,-79,-291
985,872,-202,-122,-88,-92,-76,51,134,417
563,801,197,23,-28,-77,-63,-41,-2,154
-346,-554,-261,-48,5,-28,12,-27,-54,-53
-530,-1279,-697,-160,-11,-11,69,54,28,-29
329,-18,-362,-117,-75,-73,3,37,61,152
1064,804,237,22,-63,-86,-20,30,115,316
252,477,989,235,71,16,1,-36,-17,19
-830,157,1051,290,120,17,-49,-159,-262,-451
-1172,-221,213,142,100,52,19,-96,-227,-543
-937,-679,-278,56,156,189,215,109,-22,-359
-778,-742,-146,60,140,185,233,162,58,-199
-615,-637,-227,38,69,89,75,15,-54,-190
-90,-54,-285,-41,-57,-80,-113,-178,-193,-208
499,277,-224,-97,-145,-171,-190,-217,-219,-193
1606,710,-395,-249,-247,-243,-213,-175,-151,-20
2202,409,-677,-418,-317,-265,-219,-131,-101,159
1137,-473,-659,-338,-127,-20,29,95,78,152
-554,-423,-345,-132,146,294,370,375,325,53
-866,221,95,32,198,310,351,366,440,239
317,1015,636,157,142,155,139,194,420,514
1407,1306,665,150,30,-24,-67,9,297,659
936,438,225,104,-90,-222,-287,-264,-86,250
-572,-493,-138,169,6,-143,-209,-259,-264,-307
-920,-925,-380,116,116,44,30,19,11,-147
-927,-759,-152,59,102,65,94,92,75,-110
-921,-601,219,100,139,121,114,78,12,-124
-1229,-790,149,72,156,178,139,92,-2,-118
-1171,-689,-55,-42,58,87,105,89,30,-4
-942,-195,110,43,72,53,102,110,64,-46
-750,6,39,103,55,-1,-13,-23,-98,-244
-575,167,243,140,62,65,-88,-127,-213,-355
-361,72,473,151,62,45,-76,-88,-155,-204
-215,25,274,60,70,61,51,9,-52,-61
-163,-72,115,34,83,89,110,30,17,-55
95,66,-20,40,27,-10,1,-33,-10,8
427,359,-222,0,12,-12,14,13,23,61
488,211,-340,-161,-81,-33,1,26,22,124
310,140,-292,-205,-158,-84,-58,-18,-5,113
269,99,-289,-200,-196,-132,-114,-31,22,256
324,131,-235,-112,-126,-111,-112,-50,40,294
427,173,88,55,-3,-45,-83,-57,30,272
519,-87,81,90,42,23,-2,-4,13,167
362,-537,-229,-12,28,62,105,84,30,56
6,-396,-116,-57,-33,-20,43,3,-57,-50
-261,246,229,-4,-62,-90,-49,-91,-103,-38
-288,791,1018,192,8,-34,-54,-112,-130,-115
-367,788,1569,282,-1,-64,-137,-209,-261,-298
-461,425,1042,226,-43,-147,-202,-242,-282,-329
-257,224,136,140,-61,-166,-212,-203,-177,-210
321,-58,-582,47,-10,-43,-72,-13,82,158
693,-33,-970,-207,-83,-18,-3,80,209,389
325,-366,-731,-237,-53,31,63,130,224,302
199,-479,-460,-57,40,124,132,165,211,225
605,-310,-601,-38,68,135,136,172,193,236
575,-220,-608,-92,21,81,83,140,176,192
528,497,-208,-110,-87,-42,-42,31,84,139
714,797,115,-177,-200,-163,-126,-19,46,199
442,165,67,-50,-85,-63,-21,22,21,9
657,-19,-264,11,20,38,52,27,-35,-85
1163,-185,-536,-119,-61,-17,-9,-14,-34,101
603,-74,-145,-116,-131,-104,-112,-103,-50,46
-1067,-622,24,2,20,33,19,-15,-39,-320
-1464,-476,40,64,96,91,96,25,-97,-507
-736,76,360,99,24,-4,-35,-80,-180,-378
-340,354,242,2,-91,-133,-172,-205,-273,-336
-387,162,46,16,-35,-88,-91,-172,-224,-323
-265,-134,72,84,93,64,105,55,129,65
-82,-78,91,100,137,119,159,139,250,204
-14,-15,121,66,58,27,43,24,25,-3
-57,153,196,128,67,20,2,-9,-47,-86
80,91,228,103,75,60,31,35,70,46
303,-218,31,-77,-10,30,31,75,193,317
414,-308,-2,-146,-79,-42,-7,48,164,339
97,-387,-23,-2,30,41,79,97,58,0
573,230,-178,11,44,76,60,69,-80,-179
1768,1109,-241,-182,-162,-128,-138,-122,-226,-53
2447,808,-224,-225,-198,-162,-127,-101,-75,370
1428,220,-232,-204,-180,-160,-136,-93,38,487
-911,-283,212,11,4,-7,-40,-12,46,97
-2023,-445,394,98,62,57,1,25,37,-119
-1668,-977,70,133,199,248,197,202,141,-117
-1080,-808,-8,158,217,249,195,197,93,-155
-720,-20,4,128,89,56,-7,-40,-156,-292
-536,-180,-87,57,49,27,-27,-89,-248,-378
281,-95,-314,-91,-52,-43,-44,-94,-202,-270
865,291,-220,-66,-65,-45,-39,-83,-152,-175
253,-39,-138,10,16,52,34,-21,-122,-146
-401,-168,-19,79,89,119,73,66,-28,-111
-658,164,434,219,151,141,82,81,-13,-154
-292,868,661,231,100,60,-6,-22,-70,-107
177,580,328,90,4,-14,-66,-49,-10,-7
471,-354,-473,-219,-122,-64,-84,-4,137,273
661,102,-545,-229,-102,-19,-41,30,200,503
576,155,-8,-55,-21,34,36,86,252,581
450,277,360,33,-24,4,18,64,224,450
218,518,425,88,15,44,45,49,89,105
-27,95,372,34,-33,1,-28,-34,-59,-75
-680,-668,431,42,12,62,0,-8,-50,-106
-1333,-829,203,82,110,169,105,71,-21,-211
-1341,-694,-248,-73,-30,31,27,-26,-103,-239
-834,-458,-637,-128,-92,-68,-27,-55,-87,-90
-292,-104,-641,-104,-17,31,97,93,95,98
-61,-65,-383,-67,24,74,136,108,107,48
452,9,-291,-72,16,68,108,112,164,215
689,111,-237,-71,1,54,97,153,243,347
482,146,50,-14,-11,11,15,92,186,270
298,219,265,14,-61,-74,-124,-81,-15,36
315,916,448,20,-119,-180,-242,-236,-185,-115
627,660,144,-103,-184,-194,-210,-172,-75,66
-207,-482,-451,-213,-123,-33,-10,30,75,33
-766,-412,-57,-16,54,104,134,126,86,-109
-6,450,654,206,32,-61,-133,-87,-182,-84
662,659,573,186,-56,-176,-280,-179,-297,-9
707,732,339,210,0,-47,-94,-105,-139,-67
496,-259,-59,129,72,70,55,20,-36,-21
-183,-925,-484,-92,22,93,115,90,87,75
-1034,-622,-269,33,167,218,236,162,127,-101
-1314,126,277,165,166,146,120,8,-78,-442
-947,346,582,171,82,22,0,-101,-183,-454
-720,138,469,129,57,9,56,-47,-99,-340
-364,25,318,-17,-65,-76,-19,-72,-67,-181
-161,-258,-7,-79,-29,-6,32,-1,23,-28
-122,-387,-216,-28,54,76,100,53,70,9
23,-110,-298,-129,-23,26,66,37,46,37
284,205,-258,-189,-79,-12,54,40,68,137
648,56,-274,-97,-23,31,108,89,128,190
763,-388,-434,-62,-26,8,73,74,104,185
723,97,-230,-65,-127,-134,-106,-88,-45,125
824,600,34,-60,-135,-161,-174,-98,-35,145
1102,527,-1,-166,-157,-129,-131,0,77,298
1297,192,-204,-198,-107,-47,4,124,195,380
1495,134,-421,-235,-92,-10,84,187,229,399
1918,886,-21,-158,-166,-154,-117,-41,17,324
473,551,508,27,-177,-291,-327,-330,-355,-210
-1492,-330,904,288,43,-105,-180,-288,-486,-748
-1325,-527,540,234,109,22,-61,-169,-427,-743
-226,-353,-373,-72,78,101,51,59,-101,-198
-130,-275,-715,-129,120,212,214,265,197,176
-935,-646,-573,-23,166,248,261,254,207,89
-1351,-634,-35,195,236,241,223,170,165,30
-1101,-266,4,172,185,168,156,141,162,63
-250,517,117,36,-4,-40,-37,-14,25,36
783,878,337,19,-92,-168,-167,-156,-136,-4
1117,687,528,-14,-126,-215,-198,-171,-149,63
204,-122,321,-71,-83,-124,-72,-65,-74,6
-957,-714,-66,-27,66,87,106,75,-16,-196
-953,-832,-429,-35,178,304,285,268,175,-100
-100,-58,-332,-66,153,272,278,284,249,109
147,337,101,28,95,116,106,124,141,182
-493,-2,390,148,62,-4,-32,-48,-26,-26
-809,-360,349,146,49,-42,-72,-85,-88,-136
-392,-356,-202,-62,-50,-90,-120,-82,-115,-114
163,17,-502,-249,-89,-78,-45,-30,-100,-158
550,697,279,31,37,-38,-55,-98,-195,-314
856,1325,1010,314,63,-108,-186,-264,-406,-551
1175,653,424,117,-55,-153,-188,-262,-357,-379
1184,-397,-686,-235,-141,-114,-59,-74,-62,30
901,-505,-498,-292,-155,-111,-43,-19,66,232
70,-314,-70,-310,-232,-191,-165,-154,-58,207
-819,-182,-24,-230,-206,-185,-215,-189,-83,165
-1022,-133,-294,15,58,65,39,122,299,327
-669,-273,-685,38,225,271,289,385,562,537
-368,-178,-529,-13,147,166,160,205,270,194
-139,-325,-171,44,109,109,108,105,128,47
-361,-802,-74,117,174,166,190,140,148,17
-691,-660,1,164,195,185,190,101,47,-165
-545,181,70,76,81,59,58,-21,-41,-152
-248,472,146,59,32,13,21,0,79,89
-70,433,219,105,38,14,14,16,79,22
-48,238,67,88,47,28,-7,-17,-100,-298
215,320,73,121,67,59,23,0,-141,-338
598,449,315,129,41,44,1,0,-88,-145
646,66,278,75,9,-2,-55,-37,-51,34
414,-52,-13,3,21,2,-36,7,70,179
303,-41,-68,-7,22,5,-17,59,219,338
434,-395,-263,-112,-67,-42,-9,115,373,639
9,-1082,-495,-123,-42,5,49,137,300,406
-636,-371,-57,34,22,6,0,-12,-30,-211
43,1070,629,223,31,-87,-127,-172,-147,-158
371,743,675,193,24,-88,-127,-143,-33,178
-59,14,269,114,54,-12,-64,-72,10,149
131,-76,-33,9,-3,-60,-82,-100,-47,14
677,454,-28,-198,-248,-294,-250,-203,-103,81
-71,28,-406,-243,-189,-189,-135,-95,-59,-68
-1004,-340,-271,-91,40,91,113,87,-23,-312
-356,146,113,-42,45,67,67,56,-16,-134
522,389,77,-105,-55,-25,-6,69,102,193
395,-124,-212,-186,-68,-6,37,122,144,104
-439,-297,88,-49,54,84,82,101,-6,-211
-450,84,468,125,88,35,-21,-72,-197,-349
89,177,233,86,19,-18,-76,-85,-131,-168
128,79,-119,17,52,40,42,54,5,-54
-235,-130,9,59,81,33,58,-7,-106,-256
9,-324,-144,-6,17,-10,24,-42,-126,-201
568,96,-162,-99,-52,-67,-14,-54,-56,-13
572,-120,-282,-109,-19,-13,35,43,81,104
94,-756,-510,-86,37,109,128,183,227,181
-659,-981,-297,3,57,82,95,126,165,132
-622,158,181,58,35,1,-8,35,80,196
139,848,564,65,-14,-76,-92,-32,-23,153
30,237,399,-26,-81,-157,-157,-100,-94,9
-264,-260,-147,-116,-117,-165,-159,-65,-44,11
145,2,-292,-46,-4,-8,-1,95,76,122
241,-317,-136,-23,24,32,38,127,14,-59
-427,-695,-20,-45,-20,-18,-18,46,-176,-400
-867,-357,98,-27,-36,-51,-39,-27,-292,-539
-683,-45,18,64,70,48,37,19,-185,-357
14,415,-35,101,120,124,74,80,18,114
737,659,66,-1,-51,-64,-91,-43,47,311
1010,367,38,-52,-168,-209,-244,-156,46,327
379,-130,-86,-60,-150,-183,-223,-166,-25,155
-338,107,438,158,79,49,6,3,-12,-117
-388,-21,913,334,209,167,105,68,19,-124
-375,-634,467,188,163,156,163,103,61,9
-463,-881,-427,-71,54,123,200,170,171,137
-434,-121,-586,-44,39,62,113,76,69,61
60,715,-341,-48,-73,-94,-88,-126,-107,44
949,783,-23,-45,-142,-174,-188,-160,-55,241
1701,586,-80,-125,-189,-186,-182,-99,76,432
1203,575,22,-157,-261,-285,-297,-216,-90,170
188,592,-66,-130,-209,-215,-233,-207,-203,-174
-120,564,-104,7,-11,11,-10,-14,-52,-186
-416,-231,-138,107,114,117,120,91,71,-83
-666,-788,-299,91,135,138,145,94,51,-123
-365,-649,-109,47,100,89,121,99,62,-89
-373,-185,96,13,33,9,45,36,25,-82
-124,307,307,72,8,-47,-47,-69,-47,-18
92,287,319,142,75,1,21,-1,35,40
-59,215,435,120,56,43,18,-9,-19,-94
116,290,269,41,2,34,-2,-20,-24,-110
570,260,195,50,28,4,70,87,170,164
714,149,170,-43,-36,-31,84,124,253,356
-267,-616,-344,-202,-129,-78,67,83,178,216
-803,-521,-280,-129,-72,-14,44,5,25,-18
-361,18,201,105,99,151,120,18,-10,-92
-563,-14,250,240,160,180,155,-1,-134,-357
-659,-111,-152,139,97,84,97,-40,-167,-374
-237,-321,-460,-81,2,46,98,35,25,-90
205,284,-359,-130,-55,6,32,32,65,13
451,490,-39,-100,-113,-72,-64,-48,-11,33
276,216,-78,-57,-84,-34,-27,-3,-15,42
20,-356,-354,6,-31,-5,-6,16,-67,-90
644,-469,-228,-52,-116,-99,-74,-27,-86,42
929,-711,-254,-130,-128,-65,10,35,-1,200
187,-711,-420,-152,-81,-18,61,22,-24,-24
-314,-2,-21,-37,-66,-72,-49,-54,-32,-53
142,470,273,-35,-101,-120,-152,-42,30,345
263,420,248,-19,-16,-25,-78,72,-6,463
-453,250,311,154,160,166,105,128,84,151
-652,-26,160,148,137,155,78,63,-13,-84
-395,-21,-39,18,14,19,-31,-49,-113,-180
-358,41,-106,32,13,10,-55,-69,-99,-233
-362,-307,-238,15,63,89,49,21,-6,-232
-449,-351,78,105,95,70,52,-2,-50,-350
-135,245,615,180,74,6,-1,-58,-79,-335
1068,864,824,86,24,0,64,46,119,159
2434,1271,776,-152,-152,-105,46,124,363,863
1969,549,159,-361,-349,-314,-151,-74,211,782
-1115,-1094,-461,-152,-130,-142,-143,-216,-215,-253
-2348,-1468,-550,151,204,209,89,-55,-220,-663
-1364,-44,-120,234,209,161,41,-53,-143,-403
-549,310,-2,174,128,64,-9,-70,-117,-165
-364,-183,-321,102,121,100,65,13,-61,-148
-439,-368,-413,65,132,142,120,113,97,17
-404,-354,-253,60,129,174,179,170,175,129
-331,-269,-56,31,104,153,172,172,133,73
30,155,-107,-99,-4,56,94,124,94,105
304,374,-138,-120,-36,24,52,74,46,96
325,51,-62,-24,-4,13,26,33,12,62
211,34,52,35,-27,-61,-52,-59,-76,21
331,678,332,37,-86,-161,-139,-138,-88,143
593,1193,554,4,-141,-222,-200,-172,-119,147
776,413,212,-152,-204,-232,-194,-143,-137,59
1300,-195,-199,-171,-179,-176,-134,-100,-82,148
1216,-328,-113,47,17,-23,-34,-64,-80,153
-16,-302,249,350,240,143,116,6,-103,-105
-963,-673,189,274,187,141,144,25,-114,-302
-645,-193,111,14,-19,-13,10,-44,-137,-289
69,703,253,26,-13,-39,-5,-25,-55,-76
121,505,67,17,4,2,34,32,16,-6
-107,-164,-91,-44,-5,34,53,71,45,-39
-72,-286,138,30,18,15,-3,16,21,-43
-273,-71,254,-31,-78,-110,-141,-145,-166,-199
-363,204,359,-36,-137,-184,-198,-238,-300,-284
-396,-63,-140,-144,-178,-182,-138,-163,-164,-81
-560,-628,-1010,-191,6,110,171,210,268,220
-512,-468,-993,-98,111,206,228,301,391,320
-420,-230,-430,-1,97,106,104,148,198,171
-125,-73,-39,102,58,0,-28,-35,-1,39
732,625,321,116,-61,-131,-163,-165,-84,134
1687,874,322,67,-97,-142,-153,-96,51,386
1796,507,36,-65,-72,-54,-43,48,161,358
626,-609,-263,-226,-91,-3,45,85,80,-28
50,-273,-88,-221,-135,-46,-8,18,-25,-223
71,61,-150,-221,-163,-78,-30,-8,-38,-150
-671,-231,-229,-169,-76,23,77,27,-40,-233
-1133,-214,-91,1,43,101,112,38,-37,-353
-1391,-306,9,130,147,171,155,73,-30,-489
-1106,-269,72,99,80,93,66,-8,-62,-285
-342,365,362,111,16,-25,-49,-124,-87,51
232,373,252,136,91,57,47,-2,17,130
726,270,-35,29,77,85,109,128,183,224
989,-256,-138,-87,19,90,131,166,218,213
742,-188,13,-150,-76,-17,22,53,24,42
-316,245,419,70,57,58,52,49,-69,-180
-1091,77,307,91,62,61,29,53,-9,-178
-649,59,-85,-7,1,33,37,60,24,-170
74,184,171,12,18,53,-4,-11,-33,-71
51,-28,336,28,-17,-26,-106,-98,-43,40
-515,-141,134,49,21,-13,-48,-52,-23,-152
-350,-183,-217,9,14,-21,-12,-20,46,17
147,207,70,22,-32,-62,-68,-63,26,180
459,217,345,38,-35,-20,-60,-9,73,205
540,-226,278,0,-21,24,-22,93,143,143
675,-4,75,-91,-123,-108,-112,-42,-76,-152
863,860,-19,-62,-148,-190,-214,-210,-273,-177
544,370,-240,1,-15,-25,-42,-37,-84,134
-137,-383,-255,0,27,48,68,89,105,353
-702,-794,-191,60,91,88,113,117,177,351
-549,-597,-176,-13,43,53,85,156,249,322
-244,232,88,-16,-9,2,-17,36,109,142
-149,152,-188,-135,-99,-58,-73,-33,-13,29
-177,100,-199,-106,-24,7,-21,53,-98,13
-57,296,233,124,78,25,-48,-9,-197,-104
-69,-31,430,207,104,70,5,-5,-82,-104
-14,-119,621,188,50,23,-2,-58,-137,-134
-8,-53,145,15,-69,-94,-55,-88,-143,-81
-256,-212,-569,-132,-45,-25,40,16,-32,0
-677,-605,-615,-226,-36,21,56,12,-35,-109
-614,44,-92,-85,-15,7,-12,-41,-33,-60
25,397,70,19,22,25,-2,-11,52,177
247,205,-21,-10,-22,-46,-67,-90,-5,150
100,-176,-331,-122,-91,-132,-121,-133,-54,56
-183,-377,-236,-72,-19,-58,-31,-31,-20,-80
-138,-580,-311,-35,75,87,147,113,66,-73
119,-843,-495,-86,93,161,253,204,170,82
475,-474,-284,-82,33,90,146,138,111,85
731,240,52,-10,1,21,25,14,-20,-34
854,625,109,16,1,-1,-55,-26,-25,-37
931,1001,212,97,51,21,-49,-46,-53,-131
1034,1348,496,164,46,-16,-92,-108,-109,-107
1362,948,411,70,-17,-75,-111,-79,5,284
734,-581,23,33,32,-1,-12,-6,18,246
-430,-1618,-393,-153,-89,-82,-74,-62,-13,58
-1116,-382,-289,-222,-132,-103,-71,-55,30,-56
-993,264,32,-60,-2,17,45,54,90,-120
-741,296,150,-40,-26,3,15,12,39,-120
-644,46,88,-34,-28,-2,3,-6,51,-23
-94,481,13,-101,-114,-111,-82,-68,42,64
445,654,-44,-167,-182,-191,-198,-128,8,106
68,73,97,-2,-41,-73,-108,-74,3,-47
-849,-539,207,209,211,166,127,110,112,-77
-846,-539,-21,139,218,202,196,154,156,18
-433,-103,24,124,153,125,129,40,45,-41
-175,155,331,177,104,61,58,-13,8,-75
-9,14,338,157,77,51,41,15,51,10
213,-736,-243,-43,32,67,101,105,172,196
432,-818,-432,-178,-23,48,138,125,209,263
769,234,45,-156,-111,-65,-8,-59,23,106
867,574,38,-137,-88,-66,-12,-74,2,94
205,130,-99,-98,-7,32,113,51,98,66
-541,120,-29,67,115,117,152,59,36,-105
-295,-87,-130,68,95,60,38,-27,-49,-91
165,149,-110,-69,-82,-120,-171,-163,-148,-81
341,728,308,-13,-138,-182,-246,-227,-219,-186
511,338,346,79,19,10,-31,-18,-37,-70
291,-253,114,48,89,125,104,126,82,17
-164,-299,155,7,37,53,-12,30,-27,-98
-619,-595,-115,12,25,33,-74,-20,-79,-169
-565,-433,-313,-2,24,56,-27,30,-20,-71
297,480,-235,-125,-96,-53,-62,9,34,159
1027,995,-196,-179,-175,-125,-96,11,79,337
1168,641,-116,-125,-137,-94,-80,11,38,231
101,-156,10,-21,-41,-81,-98,-102,-175,-262
-664,-178,267,140,86,19,-36,-75,-200,-428
-767,-624,504,310,254,217,122,96,-8,-280
-843,-554,763,279,153,123,10,-40,-81,-260
-699,408,762,89,-92,-141,-218,-251,-239,-137
-694,89,179,-25,-98,-153,-172,-192,-227,-234
-807,-481,-491,-8,45,30,51,57,-41,-246
-488,-184,-191,136,122,86,137,136,39,-67
13,185,78,100,31,6,26,5,-33,-7
283,387,163,0,-62,-6,-115,-127,-114,15
467,720,528,58,-107,-98,-201,-187,-158,8
1006,424,536,77,-56,-38,-62,2,38,221
1172,-623,-121,-137,-89,31,10,123,185,383
120,-1625,-877,-229,-51,79,52,151,178,212
-740,-424,-858,-125,0,40,30,88,85,54
-875,282,-483,12,85,102,69,116,78,9
-441,86,-296,19,56,94,71,102,80,12
-196,60,-192,-5,-16,13,22,40,49,52
-288,32,-150,37,0,9,-8,27,58,28
-65,2,-264,10,7,36,20,48,44,24
318,173,-239,-44,11,43,79,66,32,40
453,505,260,-11,11,-2,31,-5,-76,-103
281,-222,143,-20,47,23,57,34,-20,-121
332,-232,44,24,4,-51,-49,-55,-13,-45
753,454,-14,31,-66,-126,-124,-94,-2,69
1247,297,-279,-77,-63,-39,7,76,167,260
1010,291,-259,-153,-61,5,70,125,170,126
271,8,-61,-123,-44,16,50,73,81,-7
-743,-557,-117,-174,-117,-78,-62,-45,-24,-88
-941,-575,-52,-91,-112,-132,-128,-123,-65,-143
-462,331,390,178,25,-88,-104,-177,-182,-330
-116,492,442,224,22,-111,-110,-194,-192,-263
-219,8,266,95,-31,-126,-94,-150,-79,4
178,389,524,49,0,-67,-16,-8,149,410
506,659,509,29,37,2,43,84,260,504
185,131,192,110,173,180,161,191,257,202
-555,-899,-274,91,188,206,176,192,155,-87
-719,-799,-522,-44,107,155,151,172,86,-131
-324,-355,-616,-191,-21,49,74,109,45,-60
-220,171,-114,-57,-4,18,37,51,-42,-105
0,576,234,42,-8,-38,-15,-25,-86,-85
698,1361,384,-44,-122,-168,-116,-77,-24,142
965,1352,439,-41,-107,-162,-129,-75,-31,150
211,192,290,49,8,-68,-102,-103,-157,-102
316,-207,95,24,21,-40,-60,-51,-87,-97
1019,64,-45,-6,-30,-77,-60,-17,-8,118
796,-760,-346,25,59,38,74,105,59,181
-929,-1772,-616,9,174,196,235,207,8,-320
-1526,-847,-208,-17,93,123,114,69,-179,-592
-809,154,302,-39,-25,-23,-53,-76,-243,-315
14,414,656,-77,-120,-141,-155,-117,-70,105
387,543,813,2,-102,-151,-168,-128,32,227
74,-392,-17,-46,-55,-102,-134,-106,-88,107
-459,-1056,-727,-92,18,-21,-54,19,-95,156
-536,-567,-570,51,122,99,116,135,160,203
-410,-13,-339,92,104,81,94,107,120,76
-390,-247,-395,2,81,107,150,153,172,74
-89,-609,-498,-63,105,152,182,254,204,214
516,229,40,11,58,37,22,116,4,170
482,961,785,103,9,-42,-40,-78,-84,-178
-25,584,514,-19,-89,-127,-104,-172,-195,-430
-299,171,-275,-80,-21,-20,10,-70,-135,-386
-365,0,-438,29,150,176,167,77,13,-165
-114,-31,-164,60,140,121,114,32,48,71
126,287,135,54,32,-16,-27,-97,-30,34
523,664,120,-31,-89,-143,-119,-189,-61,158
533,401,120,-40,-111,-172,-132,-184,-35,203
124,-392,60,-14,-61,-91,-69,-91,20,117
-20,-133,163,75,28,16,27,7,50,47
188,35,156,88,70,74,105,56,108,61
555,34,30,17,12,38,87,22,121,100
654,68,-215,-89,-45,19,52,10,107,84
237,-257,-451,-163,-83,14,61,71,205,169
-444,-560,-463,-119,-70,-8,50,31,175,92
-542,-323,-304,-19,-34,-27,13,-56,23,-55
-98,-18,-111,2,4,-2,9,-36,3,11
-237,333,146,90,86,68,42,25,8,-50
-631,667,565,231,166,117,56,4,-46,-210
-580,703,683,237,139,85,-4,-65,-95,-191
-400,-197,51,-17,-12,-23,-54,-61,-72,-67
-295,-990,-693,-278,-114,-46,6,72,85,152
-392,-901,-598,-187,-16,63,151,191,189,196
-391,-378,-126,6,96,140,179,143,63,-9
-59,41,136,61,86,100,113,71,-33,-63
274,89,151,80,52,45,62,43,-47,29
631,127,78,124,76,41,42,46,-21,159
714,75,84,88,51,32,49,104,94,284
316,-131,17,-2,-14,-30,-2,65,72,213
-255,-132,-56,-25,-21,-53,-46,-18,-84,-63
-387,-67,112,45,46,12,8,3,-78,-132
-238,232,398,79,10,-61,-111,-119,-177,-156
204,863,415,-25,-106,-169,-234,-198,-217,-101
984,706,143,-40,-58,-71,-135,-50,-53,145
1571,196,-166,-38,-24,-4,-21,56,67,305
1342,-77,-238,-86,-76,-74,-72,0,25,217
-158,15,174,-33,-111,-162,-206,-149,-151,-153
-898,328,389,96,-27,-98,-170,-132,-162,-218
-860,-150,-34,36,76,72,34,66,25,-44
-326,-240,-464,-185,-23,50,54,129,111,134
768,1090,-110,-208,-150,-93,-86,34,59,255
1109,1411,342,-39,-112,-119,-140,-44,-26,196
405,69,138,22,-44,-81,-83,-26,-30,50
-51,-846,-297,-82,-55,-13,9,74,72,67
-198,-1524,-378,-97,-73,-2,22,66,55,18
-860,-1055,-110,33,-27,-36,-61,-122,-212,-375
-1001,308,303,170,61,-14,-101,-207,-349,-560
-483,437,334,128,55,-1,-72,-115,-264,-337
-230,107,415,145,95,36,-55,-7,-214,-99
-562,99,621,285,163,103,44,5,-66,-173
-552,509,520,197,14,-44,-79,-122,-115,-247
-399,61,84,48,-116,-155,-169,-178,-123,-209
-221,-401,41,86,-50,-89,-119,-125,-77,-136
-13,-184,272,223,107,99,86,46,59,-7
148,-504,-114,140,255,356,432,408,395,291
352,-282,-573,-154,103,266,403,427,470,395
444,443,-279,-263,-113,-14,91,129,196,176
337,26,-463,-306,-200,-123,-49,8,69,82
627,211,-444,-209,-168,-119,-84,-20,33,197
1142,561,-244,-246,-239,-188,-147,-60,77,402
758,64,-213,-331,-338,-291,-218,-124,10,303
-201,-81,-94,-256,-289,-243,-184,-145,-96,-50
-11,250,-32,-30,-41,9,41,25,8,-54
604,683,267,234,124,97,98,22,-1,26
307,479,132,187,58,7,26,-66,-74,-59
-462,-330,-34,98,40,9,28,-45,-96,-222
-74,-428,286,167,83,52,60,7,-73,-110
