-26,30,80,16,-3,-51,-55,-54,-59,-43
-5,70,73,12,6,-32,-57,-55,-49,-30
-29,19,-10,-24,-12,-12,-55,-42,-43,-13
-32,34,-82,-46,-28,-15,-46,-30,-45,-9
-5,183,-55,-41,-30,-25,-37,-10,-55,-13
20,158,-26,-39,-18,-17,-5,35,-57,-5
77,85,1,-12,-6,-19,-21,2,-77,14
106,-30,7,31,21,-1,-21,-1,-61,23
94,-99,-5,52,46,18,6,-1,-39,47
15,-146,-39,45,63,31,29,6,-31,39
-66,-150,-85,6,37,44,14,46,-28,8
-68,-12,-165,-29,-6,14,-7,69,-35,-10
-31,100,-77,-22,-14,-20,-42,39,-58,-21
-4,101,8,-17,-18,-13,-43,14,-47,-16
12,63,23,-11,-38,-1,-32,-13,-43,-8
9,12,51,4,-32,11,-30,-58,-49,-18
23,28,72,20,-28,5,-19,-67,-25,4
61,98,68,5,-15,15,-17,-9,17,70
100,175,82,10,-16,5,-19,8,34,101
104,107,42,5,-21,-35,-33,-15,48,101
53,4,-34,-33,-21,-46,-17,-26,32,71
-22,-54,-74,-51,-24,-20,28,-37,10,13
-59,-180,-220,-80,-59,-17,48,-61,-7,-10
-12,-105,-214,-128,-102,-32,7,-99,-11,10
-44,-60,-97,-87,-86,-9,17,-127,-20,-27
-86,-142,-133,-46,-50,29,52,-78,-28,-51
-69,-192,-131,-41,-32,39,62,16,32,-32
-46,-126,-62,-27,-32,23,41,59,59,-12
-10,22,13,-5,-35,9,-11,74,31,-8
13,55,96,22,-11,14,-19,96,33,-14
30,32,77,24,11,13,-9,67,41,4
52,44,39,23,21,-7,-22,50,64,28
47,90,-39,60,48,-41,-21,38,71,25
33,54,-22,86,62,-51,-30,6,51,15
19,35,30,85,65,-32,-28,-3,22,0
10,74,105,76,56,-2,-27,-14,-22,-35
1,55,115,56,51,50,-22,-19,-42,-39
-9,-23,54,36,35,51,2,16,-15,-18
-41,-62,36,35,24,19,18,30,-13,-34
-75,-89,38,59,30,21,37,33,-30,-63
-78,-105,10,56,22,17,28,34,-28,-43
-59,-104,-17,30,-1,-1,-11,25,-7,33
-21,-67,-25,22,-13,-17,-37,-17,-6,43
6,-21,-49,12,-12,-15,-31,-31,-27,19
15,28,28,1,-14,-12,-21,-32,-37,15
16,71,55,-5,-15,-3,-16,-30,-41,3
16,81,80,8,-12,1,2,-25,-26,-6
1,26,54,18,-12,13,13,-17,-19,-3
-14,-29,36,29,10,22,23,-17,-18,12
-9,-31,2,33,23,17,15,-21,-15,15
-24,-98,-27,26,17,21,17,-6,-12,4
-41,-154,-55,13,19,34,40,15,-6,5
-3,-49,-24,-6,9,28,30,-9,-17,-9
12,5,-11,-9,-4,25,7,-16,-19,-17
9,-10,-13,-9,-6,28,-2,-2,-4,3
7,22,29,6,-9,25,-10,11,12,7
34,102,75,15,-16,0,-4,2,15,-2
81,233,117,10,-22,-20,0,-23,12,0
84,315,126,16,-36,-16,-5,-5,20,5
74,177,49,-1,-33,-10,-1,23,30,23
81,25,-44,-32,-27,-13,5,19,38,37
82,-97,-88,-17,-8,0,15,20,36,51
71,-191,-115,14,16,23,30,34,50,68
37,-230,-76,8,25,25,18,32,60,73
-33,-173,-85,6,0,-1,-24,1,42,25
-74,-41,23,8,-19,-12,-45,-31,15,-29
-50,119,60,1,-20,-14,-48,-43,4,-41
-15,218,42,-15,-40,-33,-46,-47,4,-34
34,233,59,-11,-29,-44,-47,-39,13,-17
86,201,79,5,7,-34,-29,-20,21,-2
77,83,68,40,48,0,19,3,39,5
46,99,79,46,35,-10,12,-28,-3,-28
30,63,140,60,42,0,8,-20,-22,-29
-39,-98,146,78,70,28,25,7,9,-23
-100,-142,48,50,60,35,27,14,10,-39
-75,-116,-89,-2,23,14,19,12,6,-35
-46,-201,-160,-30,9,9,29,25,31,-15
-9,-197,-202,-44,-8,8,44,31,21,9
39,-78,-205,-27,-2,2,47,15,-15,2
67,1,-37,12,1,2,29,-9,-50,-10
58,-14,28,13,5,10,28,-16,-51,-1
6,-35,-7,0,7,2,27,-4,-40,-4
-44,32,-27,-16,5,4,14,-6,-28,-34
-40,29,-52,-46,-10,-9,-11,-18,-38,-46
-10,-29,-65,-53,-25,-13,-23,-11,-52,-38
11,152,-24,-51,-42,-23,-53,-22,-71,-35
19,310,18,-46,-46,-20,-69,-39,-82,-35
19,311,-8,-8,-22,-4,-47,-36,-62,-35
34,193,-52,-4,-7,14,-10,-8,-23,-20
-16,-95,-53,-14,10,37,36,20,16,-31
-66,-229,-82,-15,32,52,68,31,10,-59
-64,-110,-121,-17,20,17,42,12,-20,-91
-34,53,-39,-7,-6,-4,1,9,-27,-104
-10,94,64,-1,0,3,8,25,-31,-115
20,-12,45,14,18,18,21,15,1,-103
77,-128,-38,-1,9,0,6,7,39,-21
91,-130,-56,-22,-3,-23,-17,-3,52,50
62,-52,10,-28,-22,-42,-50,-34,47,64
87,77,72,-30,-43,-44,-76,-54,79,105
137,228,140,9,-24,-58,-87,-42,83,115
114,299,208,63,18,-28,-79,-40,48,72
80,173,115,57,33,4,-29,-30,36,88
44,-119,-53,-11,28,5,-33,33,-91,153
-37,-308,-146,-19,25,35,50,65,-13,123
-67,-170,-82,-19,0,23,93,22,36,46
-17,81,33,-2,-6,-1,42,-12,14,23
16,158,86,19,-9,-3,-12,-8,28,14
-51,72,87,29,18,19,-8,23,39,-13
-111,-178,1,16,35,30,6,44,42,-27
-85,-237,-48,7,11,2,1,26,23,-11
-44,-147,-17,29,28,10,28,14,20,-1
-47,-94,-38,38,25,13,38,7,6,-11
-59,-99,-23,25,0,4,16,1,-13,-28
-44,-52,-32,8,-20,-12,-16,-21,-35,-23
-15,-33,2,9,-22,-3,-28,-6,-24,14
-36,-90,35,13,0,21,-9,22,-8,9
-60,-148,7,2,5,39,0,25,0,-12
-48,-4,-15,-23,-21,0,-25,-13,-33,-41
-29,105,4,-29,-41,-31,-39,-42,-54,-46
-24,68,29,-22,-31,-28,-29,-43,-40,-23
-20,20,5,-18,-20,-25,5,-24,-20,-9
1,14,-26,-15,-15,-6,20,-5,-6,-3
7,27,-12,-7,-23,10,36,4,-5,-14
10,13,-17,-21,-34,12,44,9,-14,-37
24,14,-44,-26,-39,10,51,8,-24,-42
39,117,16,-14,-28,-2,54,10,-12,-39
41,253,100,8,-26,-20,9,-8,-15,-51
28,301,149,39,-10,-20,-27,-37,-28,-66
5,267,158,65,8,-8,-36,-67,-29,-63
-17,65,87,57,18,13,-20,-46,-5,-28
-31,-203,-61,2,11,21,-19,-24,40,6
-32,-261,-159,-49,-13,5,-38,-15,73,39
-29,-103,-114,-47,-21,-10,-61,-26,46,42
-20,58,-35,-20,-14,-22,-93,-47,25,43
-29,96,-8,13,2,1,-71,-33,44,52
-18,59,54,22,15,16,-24,-22,40,18
4,12,51,6,2,11,16,-17,25,7
16,-34,27,12,3,27,24,10,16,28
12,-30,41,29,17,13,11,-9,10,20
24,7,77,49,29,-2,-36,-60,7,15
-1,-42,32,58,53,14,-28,-47,30,25
-4,-15,-53,-13,7,0,-33,0,49,46
66,100,-63,-65,-33,-29,-22,22,18,42
119,66,-114,-89,-43,-22,-11,24,-5,57
92,17,-123,-73,-36,-31,-43,4,-46,42
41,5,-55,-30,-10,-41,-54,-46,-71,10
-8,14,27,4,-7,-31,-28,-63,-81,-26
-45,-50,5,7,-12,-10,-6,-44,-51,-6
-83,-107,-1,10,4,5,14,-7,-22,9
-71,-98,-25,4,3,15,41,32,-7,10
-39,-2,-2,13,-8,2,33,38,-11,0
-38,39,40,33,6,3,19,31,-15,-12
-70,8,25,41,27,23,31,41,-18,-31
-48,7,31,39,18,22,7,19,-29,-34
-32,0,50,53,22,13,-6,-11,-21,-40
-39,107,72,56,14,10,-12,-10,-40,-86
-20,216,58,46,23,24,-3,7,-28,-114
8,229,53,45,31,28,14,0,-36,-124
40,152,37,44,28,38,28,-6,-45,-114
55,-81,-28,33,30,50,27,11,-16,-49
61,-204,-113,-6,-1,20,0,2,37,31
71,-110,-106,-42,-26,-36,-42,-46,37,91
49,-49,-69,-46,-35,-35,-41,-49,30,85
-4,-62,-66,-32,-21,-10,15,-20,38,47
-84,-60,5,-16,2,4,35,-11,36,-18
-129,-151,68,8,26,16,50,-2,21,-70
-92,-224,58,15,28,17,87,37,65,-53
-35,-189,22,26,39,32,97,62,103,-18
-40,-167,-13,35,44,46,78,58,80,-15
-56,-179,-91,-4,28,20,49,49,52,12
-43,-23,-187,-70,-36,-38,-1,8,41,64
-12,62,-122,-57,-48,-59,9,-11,20,3
27,44,-100,-31,-32,-31,30,0,5,-28
37,70,-59,-15,-22,-12,21,0,-7,-19
54,69,-2,-11,-11,1,12,5,8,38
54,95,-15,-9,-14,-15,-13,20,21,110
60,127,44,-1,-16,-32,-21,9,6,106
63,94,69,4,-21,-31,-14,2,-16,62
48,74,81,0,-18,-24,-21,0,-9,76
29,-32,80,-6,-22,-13,-31,2,6,95
9,-172,25,-18,-17,-4,-20,19,3,68
-8,-86,-19,-43,-39,-21,-37,1,-7,57
-2,125,-25,-76,-68,-67,-86,-48,-36,31
-12,33,-15,-41,-30,-48,-69,-41,-19,17
-24,-53,-14,-3,11,-9,-35,-6,14,38
-26,-17,43,19,19,1,-39,-7,0,15
-48,68,87,16,7,0,-63,-5,-27,-21
-51,237,133,9,-15,-23,-61,-23,-60,-57
-43,267,160,15,-2,-23,21,-4,-49,-57
-58,112,48,13,14,34,120,42,-8,-32
-67,-5,-80,-5,14,36,108,59,2,-10
-43,-73,-197,-27,3,15,63,53,-4,-14
16,-91,-111,-19,8,9,45,50,3,3
61,-54,-24,-12,12,23,39,42,13,12
78,2,-10,-14,21,24,46,33,29,9
67,83,-1,-37,14,14,68,24,8,-9
23,112,6,-42,-5,-3,38,9,-32,-55
2,99,7,-33,-22,-7,0,17,-20,-65
2,-4,10,-31,-42,-20,-5,0,-9,-74
7,-106,10,-19,-28,-10,5,-8,-17,-62
-16,-186,-39,-19,-7,17,37,1,-13,-49
-36,-170,-69,-15,7,26,62,16,-4,-34
-31,-107,-24,2,23,15,39,22,29,9
-42,-78,-8,11,31,13,20,36,55,51
-73,-115,-11,18,48,36,25,49,41,18
-75,-126,9,32,54,42,3,29,7,-18
-12,-36,36,18,23,25,-38,-3,-29,-9
76,77,27,7,-3,-21,-75,-31,-38,9
83,63,15,5,6,-40,-86,-23,-47,8
64,28,-25,-25,-3,-40,-77,-22,-57,-6
59,68,33,-30,-17,-39,-80,-31,-70,-25
57,121,106,3,-7,-10,-58,-12,-80,-44
37,130,115,35,22,34,-22,41,-65,-49
17,27,61,48,47,59,12,68,-37,-33
3,-10,1,24,39,28,-8,22,-21,-10
15,77,1,6,27,-11,-44,-5,-10,21
62,108,39,30,16,-12,-34,-11,-7,28
120,38,102,42,9,0,7,-3,-17,22
154,-29,108,38,0,0,43,8,-11,35
145,-26,26,17,-7,-4,52,36,44,71
12,151,-20,-14,-41,-34,20,-19,-8,-13
-98,114,-27,-27,-72,-70,-5,-78,-61,-97
-77,38,4,-36,-69,-66,0,-80,-28,-82
-51,-56,19,1,-21,-6,68,-22,17,-47
-50,-79,-11,3,12,23,130,37,29,-29
-33,-55,-69,-18,15,16,96,49,37,-9
-25,-82,-70,5,13,25,48,43,27,-7
-36,-82,-41,20,28,37,34,47,16,-26
-26,-29,-15,5,9,4,9,14,8,-32
-2,55,18,-1,-20,-22,-24,-11,11,-17
49,60,16,-6,-38,-34,-55,-16,19,-17
69,3,9,-11,-34,-43,-52,-39,10,-49
69,50,33,-22,-38,-60,-72,-76,-29,-81
63,205,58,-37,-61,-61,-85,-76,-2,-24
31,279,106,-27,-66,-42,-54,-48,47,51
-14,154,86,-36,-59,-19,-23,-9,79,74
-39,-90,-37,-41,-20,26,19,66,148,132
-160,-334,-114,30,66,92,68,95,168,125
-140,-218,-52,73,80,69,39,32,112,64
0,48,54,45,35,22,6,-18,36,18
38,44,58,32,30,37,40,-6,3,0
9,-40,9,22,52,68,100,38,19,-4
0,-98,-13,45,82,98,135,64,24,19
-28,-273,-83,39,68,93,89,51,4,9
-53,-219,-114,12,43,38,1,16,1,8
-44,-37,-60,4,24,1,-50,-8,3,-11
-15,62,5,0,-3,-13,-62,-11,-27,-32
5,36,-18,-14,-19,-34,-51,-11,-59,-65
62,1,-76,-1,-12,-43,-58,-43,-78,-103
167,64,14,48,19,-17,-57,-66,-114,-114
229,-7,51,62,37,31,51,-8,-62,-39
229,-65,53,83,56,48,131,28,-25,-5
144,-86,93,98,73,39,137,38,-34,-88
52,-92,146,75,59,20,114,26,-36,-114
-29,117,62,6,-7,-52,16,-36,-51,-29
-59,450,71,-39,-62,-95,-43,-53,-25,82
-52,379,107,-23,-44,-83,-3,36,53,132
-90,-32,-51,-43,-13,-43,68,103,118,134
-112,-176,-156,-119,-60,-73,40,61,107,98
-69,-13,-80,-113,-92,-121,-26,-3,14,4
30,213,81,-43,-73,-98,-86,-51,-53,-76
101,317,168,-5,-63,-87,-97,-81,-59,-71
83,170,140,9,-35,-64,-108,-90,-43,-22
60,-119,9,-5,-11,-6,-99,-56,-13,36
34,-293,-105,-8,12,42,-70,-28,32,79
-20,-229,-143,-16,28,44,-81,-14,83,118
-72,-124,-209,-65,-18,5,-94,-4,106,151
-113,82,-160,-49,-25,-27,-83,-25,82,130
-115,320,69,20,-4,-30,-65,-51,53,77
-45,554,323,67,7,-26,-63,-77,19,52
40,730,413,112,44,18,-40,-90,-28,-35
68,418,328,127,104,84,22,-46,-15,-19
51,-363,0,80,119,120,67,51,76,73
-1,-715,-256,30,107,132,59,99,140,85
-74,-551,-262,26,107,100,40,67,82,-24
-126,-396,-210,-8,69,60,11,22,21,-115
-81,-221,-163,-43,33,35,-4,-12,-39,-189
14,-205,-77,0,57,58,14,2,-94,-214
32,-280,-13,39,73,55,23,7,-108,-200
52,-238,29,67,73,42,38,22,-69,-155
106,109,86,50,22,7,28,-4,-92,-133
157,196,69,-40,-55,-46,39,-11,-41,37
84,109,52,-61,-85,-38,68,28,38,171
-83,238,51,-39,-64,-36,12,17,31,97
-134,272,23,-40,-29,-54,-57,-20,-23,10
-125,-28,-46,-14,0,-71,-109,-81,-67,-27
-119,-222,-187,-47,-29,-70,-131,-95,-74,-14
-76,-75,-158,-52,-20,-54,-130,-65,-18,46
-47,158,18,10,-4,-74,-157,-72,32,93
-33,372,146,52,-15,-100,-210,-113,-14,71
-19,467,295,88,2,-86,-192,-135,-56,-2
-1,456,403,115,26,-48,-113,-119,-61,-43
-6,298,272,75,27,-2,2,-78,-45,-23
-37,-11,35,18,32,56,187,26,15,-1
-48,-119,-78,-17,12,67,287,98,33,-10
-22,-193,-77,-19,-12,35,250,110,27,-11
91,251,161,11,-23,-3,118,20,-36,-56
65,360,343,86,32,32,79,-21,-99,-154
-74,-360,119,87,87,98,161,61,-33,-139
-50,-570,-101,47,95,138,187,124,57,-65
153,-579,-341,-55,58,119,177,145,86,-38
427,-529,-581,-196,-52,26,120,131,92,-28
627,62,-378,-203,-141,-103,-60,39,50,-19
601,196,-153,-125,-115,-112,-150,-16,-14,-57
401,239,-5,-89,-79,-90,-161,-69,-95,-147
162,392,131,-8,-27,-92,-197,-183,-192,-163
-11,208,106,-12,-40,-129,-253,-245,-168,7
-158,45,-80,-108,-69,-115,-213,-101,40,209
-148,265,-116,-124,-52,-51,-105,-17,102,147
-54,175,-199,-116,13,65,56,35,30,15
-191,-337,-313,-43,108,159,198,104,-36,-13
-292,-516,-217,24,129,141,167,124,-184,-20
-174,-294,-123,20,89,128,196,172,57,96
-54,-134,-82,38,80,106,151,203,168,228
20,126,178,96,88,48,69,117,136,211
16,481,432,171,108,29,8,27,14,5
-41,470,445,199,112,36,-18,-25,-102,-190
-19,217,277,142,70,7,-45,-19,-86,-131
111,70,210,93,31,-49,-80,-25,-68,-81
80,-431,-55,2,-10,-64,-87,-13,-14,-7
-71,-591,-191,-62,-52,-68,-60,-34,-24,37
-158,-219,5,-21,-49,-71,-42,-24,-56,-15
-134,-50,0,35,29,-1,7,38,7,39
-24,330,7,10,22,7,22,54,82,141
-121,294,-181,-73,-22,-2,29,90,178,268
-288,-181,-465,-179,-66,-23,24,56,173,188
-112,-185,-338,-180,-101,-71,-38,-43,70,63
6,-127,-65,-77,-59,-80,-71,-91,3,2
-52,-257,8,-3,16,-22,-17,-65,-3,-31
-162,-260,-10,51,88,66,45,9,-5,-31
-297,-105,21,121,154,160,99,53,-9,-15
-461,-291,-61,133,184,229,180,135,46,-24
-470,-418,-177,36,119,205,188,195,124,1
-253,-42,-80,-61,-3,71,60,86,55,13
-52,270,-23,-103,-93,-39,-62,-6,5,23
42,180,-25,-43,-70,-27,-54,16,73,93
92,-65,-35,-22,-43,-30,-21,50,160,212
85,-119,-159,-136,-106,-84,-5,42,166,195
102,-28,-119,-148,-104,-95,-12,15,107,105
98,12,30,-9,-32,-84,-67,-34,20,-32
228,106,69,9,-16,-66,-73,-35,0,-134
660,308,-32,-91,-45,-26,-13,33,-4,-171
735,291,-20,-67,29,57,39,18,-129,-411
670,123,-15,27,102,89,14,-87,-358,-781
598,123,39,70,106,57,-50,-181,-494,-984
357,175,168,83,71,-18,-149,-251,-483,-868
362,99,172,5,-43,-131,-252,-239,-260,-192
238,-166,94,0,-23,-86,-165,-91,35,351
-118,-431,-7,47,82,43,-17,49,184,435
-226,-531,-138,38,89,71,4,121,351,690
-473,-477,-139,48,106,104,47,121,294,531
-580,86,-36,-2,20,-4,-27,-18,71,280
-597,371,70,-39,-67,-123,-115,-132,-48,211
-520,84,46,-18,-48,-94,-63,-109,-37,216
-327,-82,7,-1,-18,-49,4,-46,-21,151
8,264,9,-74,-86,-103,-27,-49,-31,55
337,539,22,-120,-125,-164,-73,-119,-118,-61
426,611,147,-38,-78,-149,-87,-185,-242,-177
331,531,237,19,-41,-120,-91,-201,-291,-226
256,461,218,-24,-54,-125,-133,-186,-258,-180
289,288,79,-129,-108,-163,-203,-164,-153,-36
175,43,-23,-134,-101,-142,-215,-111,-27,92
-199,-46,-21,-47,26,7,-63,9,14,-26
-380,-213,-187,-60,82,141,149,158,78,-92
-319,-91,37,94,118,89,108,41,-28,-92
-298,-96,354,227,145,21,54,-33,-38,65
-412,-231,373,234,192,98,159,108,148,186
-446,-408,276,233,234,186,282,236,209,44
-316,-854,-127,120,207,226,319,270,138,-34
-201,-841,-365,26,141,208,282,248,110,25
10,-385,-264,-26,50,110,213,132,46,24
79,-121,-278,-51,-4,41,195,31,-31,-55
117,358,-126,-65,-50,-14,133,-23,-66,-91
397,668,223,-1,-31,-50,22,-84,-96,-54
704,717,260,8,-10,-48,-49,-108,-141,-164
741,735,125,-45,-45,-73,-83,-130,-230,-374
645,924,177,-46,-69,-66,-72,-118,-229,-329
343,750,281,15,-44,-17,-49,-84,-171,-179
-96,211,222,22,-17,9,-9,-22,18,150
-562,-501,-14,13,20,82,115,164,425,608
-717,-915,-368,-20,61,165,243,347,699,833
-595,-897,-581,-151,-49,70,167,258,527,639
-596,-778,-426,-129,-65,11,98,117,222,253
-598,-529,-141,-36,-31,-3,50,19,48,68
-443,-294,-91,-42,-55,-21,-15,14,77,175
-255,-190,-138,-97,-74,-31,-47,31,95,166
-123,-69,-119,-99,-62,-33,-43,21,31,35
-30,-15,-69,-52,-7,4,3,14,12,-19
-57,-13,18,20,46,49,26,-18,-47,-74
-159,-71,134,97,81,41,-18,-64,-146,-140
-257,-165,209,136,104,40,-40,-85,-162,-153
-336,-172,215,155,129,65,5,-21,-52,-68
-279,-107,121,156,122,101,39,61,67,68
-201,-105,60,132,146,158,102,99,44,16
-128,-263,-28,78,161,205,151,113,-32,-135
-3,-362,-80,58,143,191,124,87,-97,-202
237,-55,49,34,51,84,-21,13,-117,-146
545,212,150,-37,-45,-22,-126,-24,-104,-51
579,384,309,7,-25,-32,-110,-53,-121,-84
437,422,415,129,1,-55,-155,-131,-160,-71
223,460,348,121,-18,-83,-214,-170,-116,73
-19,431,324,91,-46,-110,-249,-164,-89,78
-132,185,95,4,-70,-129,-194,-74,35,128
-38,135,-83,-35,-58,-80,-104,27,179,250
-30,-214,-350,-113,-86,-47,-9,82,212,269
-50,-535,-594,-275,-212,-115,15,90,164,187
148,-258,-469,-234,-216,-160,-33,31,36,53
359,70,-235,-143,-162,-140,-50,-28,-58,16
319,225,-79,-81,-87,-43,15,-43,-84,-33
107,168,27,0,21,101,63,-33,-111,-145
-132,63,118,118,159,246,48,9,-66,-175
-269,19,301,259,246,254,-30,34,67,-19
-308,86,396,277,227,220,-54,81,189,95
-284,131,339,177,126,151,-32,108,202,51
-154,71,89,3,-32,17,-127,38,114,39
56,366,15,-122,-185,-115,-209,-40,54,66
116,205,-50,-158,-220,-118,-80,11,81,80
9,-241,-130,-134,-168,-67,73,87,96,72
-13,-196,-121,-111,-161,-102,97,49,67,49
-63,105,69,-41,-140,-139,18,-60,-43,-56
-45,358,299,26,-121,-150,-57,-130,-130,-116
30,424,429,78,-82,-144,-58,-87,-104,-63
54,422,470,119,-25,-85,-9,-12,-81,-26
148,315,322,115,21,-10,36,26,-55,6
152,-225,-150,-40,-2,40,108,89,23,77
66,-311,-249,-108,-27,53,111,91,29,62
85,39,10,-45,-45,2,14,-13,-113,-52
219,-82,41,-19,-28,-4,-16,-28,-131,-66
237,-494,-248,-104,-67,-20,-12,33,-93,-118
157,-486,-442,-165,-145,-91,-24,19,-155,-249
311,-148,-346,-165,-155,-100,4,0,-169,-271
207,-49,-144,-77,-78,-36,51,9,-198,-346
52,157,-1,-53,-62,-51,40,-27,-211,-308
109,432,92,-53,-89,-102,-38,-100,-139,-97
63,252,46,-17,-52,-63,-26,-81,-27,30
168,155,-20,-44,-40,-19,10,-9,105,142
252,111,31,0,-11,-4,19,12,92,56
156,-55,130,123,82,34,35,-4,-16,-149
258,243,265,128,57,-15,-19,-53,-98,-133
587,686,285,54,-19,-81,-89,-53,-6,137
403,184,-58,-59,-31,-55,-28,-21,18,45
-99,-189,-191,-82,-22,-35,-24,-67,-96,-217
-529,-306,31,27,0,-62,-40,-125,-176,-331
-710,-515,-7,46,32,-7,40,-24,-50,-85
-639,-570,-147,22,74,102,162,163,222,199
-374,-369,-109,55,113,159,235,208,323,210
-136,-11,24,81,89,91,146,59,138,-21
38,79,-22,7,-10,-10,13,-36,48,19
66,141,-33,-86,-110,-77,-53,-79,27,27
89,123,-33,-126,-132,-86,-45,-87,-41,-98
50,-212,-80,-27,-27,18,41,13,49,-2
-80,-569,-236,3,38,90,95,111,156,114
-105,-486,-329,-53,12,72,61,127,178,227
12,-96,-8,0,-10,20,-30,67,165,398
-10,-41,303,165,75,70,2,73,123,165
-5,-1,233,137,74,78,32,70,31,-104
39,-145,-57,-55,-13,17,23,43,-37,-166
33,-305,-278,-129,-54,-26,-13,-17,-87,-130
224,-154,-444,-204,-89,-28,5,14,-40,-44
597,379,-342,-276,-160,-91,-19,-30,-121,-89
673,690,-2,-189,-149,-123,-74,-89,-108,84
429,868,276,21,-44,-114,-154,-171,-77,367
-18,500,220,93,17,-64,-158,-195,-92,362
-384,108,-22,64,53,19,-55,-56,-6,269
-830,-193,-79,106,136,125,97,113,170,151
-913,-694,-162,80,138,124,119,112,145,2
-541,-323,-92,11,27,-5,-4,0,10,-81
-194,127,55,34,16,-30,-25,-2,-26,-139
-10,29,-10,64,83,38,57,55,-11,-164
7,-212,-94,61,126,99,121,101,38,-67
171,-107,32,71,83,81,69,42,-2,-52
324,9,119,3,-46,-29,-39,-31,10,136
317,189,192,-16,-106,-75,-100,-39,46,194
350,530,323,65,-36,-27,-116,-53,-35,29
276,501,341,162,68,54,-45,5,-3,16
126,79,299,239,156,145,44,88,136,184
19,-15,331,273,181,182,84,142,234,284
-144,-437,157,202,165,201,123,193,255,179
-492,-787,-287,-46,22,102,51,116,139,-15
-558,-81,-416,-245,-181,-106,-136,-79,-62,-180
-366,536,11,-138,-172,-157,-240,-215,-200,-249
-226,483,408,84,-16,-64,-212,-197,-172,-164
-102,548,511,180,41,-35,-207,-125,-49,9
-84,237,260,101,39,-8,-145,-21,63,59
-164,-505,-337,-114,-17,28,-33,80,139,88
-1,-157,-496,-262,-148,-36,-27,41,99,99
172,521,-86,-146,-153,-70,-43,-96,-79,-33
120,489,101,12,-36,25,93,-84,-127,-133
-49,-198,-33,49,88,177,298,49,-33,-117
-109,-580,-222,-20,66,190,370,141,60,-66
-130,-496,-312,-118,-25,118,350,154,74,-46
-184,-440,-342,-146,-46,100,304,138,46,-70
-216,-324,-262,-89,-4,133,258,106,41,-75
-244,-203,-117,-13,13,124,175,40,6,-107
-161,-157,-44,17,24,115,141,31,-7,-121
-93,87,158,49,8,62,62,0,-59,-124
35,603,496,106,-32,-38,-82,-54,-108,-129
212,965,686,157,3,-41,-110,-12,-31,-36
264,678,596,208,72,4,-76,75,70,72
184,-80,227,230,121,59,-52,107,99,86
112,-442,-171,92,71,42,-79,50,64,114
-34,-726,-481,-84,-9,-8,-128,-12,20,80
-80,-379,-447,-196,-143,-134,-179,-99,-88,-11
149,133,-189,-201,-212,-222,-220,-153,-177,64
222,130,-56,-117,-131,-162,-173,-101,-271,105
181,257,70,42,10,-29,0,-48,-93,47
214,291,-28,44,15,-25,14,-31,-69,-10
208,287,0,9,-47,-88,-88,-95,-147,-131
195,82,41,15,-61,-98,-140,-81,-90,-112
270,-127,1,3,-81,-103,-112,-23,23,24
278,-468,-48,-37,-104,-80,-70,24,101,147
84,-804,-132,-23,-55,-25,-10,50,129,155
-235,-721,-80,44,19,19,20,28,72,10
-345,-289,-31,11,-2,9,86,57,57,-39
-206,503,43,-52,-91,-72,43,-20,-66,-104
21,1109,381,-11,-140,-174,-78,-181,-239,-184
142,1071,690,111,-78,-154,-114,-197,-227,-195
192,586,657,195,31,-21,-40,-82,-59,-22
200,-26,264,142,96,109,108,93,123,150
174,-555,-467,-99,18,140,218,225,187,182
272,-861,-1021,-361,-142,20,152,179,139,70
259,-734,-742,-297,-147,-40,59,48,15,-126
260,-280,-311,-172,-122,-100,-35,-94,-134,-271
343,-19,-194,-137,-114,-122,-74,-156,-190,-285
205,82,-111,-68,-50,-94,-66,-144,-157,-170
8,194,76,22,27,-31,-40,-38,51,98
-51,475,318,113,74,-3,-76,-1,145,139
82,780,594,180,93,-29,-129,-80,31,26
50,720,522,101,37,-58,-154,-78,23,5
-116,441,308,96,55,-32,-135,-19,46,-18
-382,-223,15,123,151,51,-67,-5,15,-87
-469,-394,-149,76,150,69,29,-15,30,-36
-286,-217,-60,84,128,87,155,11,49,7
39,-176,26,59,52,70,201,40,35,-6
138,-306,-125,1,18,51,210,122,61,9
115,-389,-409,-87,8,50,175,184,96,-1
309,-183,-382,-157,-46,-25,75,73,-46,-39
375,26,-284,-164,-77,-90,-2,-32,-149,-62
216,-144,-212,-115,-42,-55,13,23,-31,33
95,-249,-101,-35,-5,-36,17,33,38,129
-114,-289,94,25,27,-43,-27,-54,-113,-97
-379,-340,29,-18,35,19,25,21,-44,-109
-504,-114,-83,-71,54,121,136,191,174,54
-307,-31,41,53,94,105,98,135,133,17
-184,-85,179,188,142,45,-14,-3,-38,-161
-106,114,188,152,99,-19,-90,-84,-143,-209
-32,696,306,103,6,-82,-136,-151,-203,-196
21,995,382,105,-34,-104,-133,-180,-238,-119
96,700,294,108,1,-16,-58,-69,-68,188
19,-74,27,98,86,88,52,66,94,268
98,-279,-161,38,84,101,62,89,100,148
153,-24,-136,-52,-25,-6,-33,1,8,24
13,-146,-236,-113,-95,-71,-73,-24,41,22
-112,-257,-208,-95,-96,-68,-69,29,250,324
-220,-185,70,46,-9,8,6,77,284,449
-289,-92,305,182,84,105,145,148,271,368
-112,105,363,157,55,68,187,174,267,313
-121,-178,176,63,43,42,143,138,177,217
-305,-644,-315,-111,-17,-4,48,63,87,75
-227,-293,-385,-171,-84,-67,-50,-17,21,-9
-128,-122,-144,-84,-72,-65,-54,-38,-6,-49
-5,31,11,-22,-58,-87,-76,-75,-70,-158
223,296,218,28,-32,-84,-120,-131,-159,-278
342,200,226,21,-15,-55,-110,-111,-141,-265
285,-346,-215,-118,-48,-15,-46,13,-2,-125
108,-310,-382,-182,-56,9,-18,55,20,-150
-56,64,-126,-25,37,21,-64,-46,-112,-150
-127,120,129,86,85,45,-31,-28,-18,161
-87,309,334,116,57,32,8,26,74,285
1,531,393,96,7,0,-10,20,24,169
-49,379,253,47,11,13,-12,22,-16,61
-171,-323,-320,-119,-38,-6,-69,52,18,50
-118,-375,-525,-222,-95,-67,-138,53,55,121
4,115,-166,-134,-93,-106,-180,-37,6,130
98,332,44,-28,-5,-4,-118,-50,-1,110
205,380,155,39,43,61,-81,-41,6,112
156,173,200,59,26,67,-31,-7,3,76
-46,-122,113,29,2,70,65,26,-23,0
-156,-277,-86,-59,-20,63,97,35,-52,-87
-41,-47,-185,-116,-10,99,98,89,-16,-30
-23,-28,-58,54,103,148,23,68,-48,-86
12,-88,59,186,161,146,-2,10,-91,-141
20,-153,-29,116,104,105,22,-14,-101,-127
52,0,43,89,44,27,53,-59,-115,-113
155,274,296,136,46,18,110,-69,-105,-80
328,453,279,63,-21,-18,109,-37,-82,-25
306,427,223,42,-41,-27,107,-2,-89,-102
10,-277,-64,27,24,71,210,133,14,-99
-278,-921,-475,-70,42,142,299,283,174,14
-368,-952,-542,-137,-26,40,164,236,201,32
-152,-333,-190,-108,-111,-116,-41,37,66,14
-25,200,133,-55,-138,-191,-187,-116,-89,-80
-48,296,205,-2,-80,-149,-204,-73,-115,-185
26,195,148,15,-38,-75,-160,-21,-107,-218
9,-47,14,13,14,-7,-88,3,-80,-199
18,19,35,8,3,-32,-80,-38,-49,-126
143,317,178,20,-19,-65,-66,-83,11,88
97,375,284,89,11,-29,-25,-82,50,153
-85,169,291,92,35,8,14,-48,38,15
-263,-206,73,-16,-8,-13,12,-18,78,-87
-179,-133,-86,-98,-84,-108,-57,-50,96,-45
-74,-49,-202,-107,-100,-100,-42,-36,89,35
-58,-196,-285,-94,-64,-21,13,18,109,89
12,105,112,14,-19,-19,-28,-51,30,-23
118,507,432,89,-30,-86,-75,-136,-42,-105
173,414,403,117,2,-75,-39,-116,-99,-174
228,-99,-86,5,7,-9,51,2,-73,-187
286,-258,-555,-200,-90,-33,43,26,-42,-135
376,-326,-579,-253,-146,-98,-27,-36,-110,-159
382,-278,-317,-161,-116,-108,-84,-105,-222,-304
379,-189,-113,-66,-78,-94,-110,-128,-264,-404
488,-251,-217,-68,-78,-72,-81,-86,-214,-336
545,-170,-166,-67,-59,-45,-48,-65,-192,-245
248,-89,-17,32,25,42,10,-20,-117,-180
-86,-109,63,99,111,106,87,41,-20,-20
-421,167,273,206,219,177,152,93,25,30
-615,285,429,305,273,204,139,109,64,30
-523,48,260,262,244,186,116,164,227,320
-367,137,34,137,138,99,37,99,198,294
-152,158,34,43,18,-17,-98,-50,21,110
-58,184,136,14,-39,-72,-161,-141,-79,8
22,466,286,89,-1,-65,-145,-134,-36,93
52,249,339,156,59,-1,-97,-74,60,224
87,-79,195,96,36,23,-48,0,112,200
143,-314,-5,22,2,46,41,93,167,236
43,-503,-302,-38,36,119,151,223,242,239
-168,-343,-521,-137,-9,98,133,174,134,-52
-297,-246,-631,-288,-175,-65,17,67,28,-215
-292,-60,-331,-234,-200,-126,-19,46,62,-55
-1,87,-102,-136,-146,-133,-113,-12,114,194
160,236,-12,-96,-123,-143,-207,-110,27,183
120,360,120,-27,-66,-88,-174,-149,-65,111
-37,72,128,-22,-48,-59,-142,-90,10,188
-236,-70,115,-17,-35,-42,-86,-26,73,95
-189,14,161,54,32,18,16,1,62,64
-116,-64,116,107,110,92,144,41,67,59
-54,-210,-9,77,122,116,234,70,64,-19
19,-198,-171,17,71,90,246,81,50,-10
98,114,-305,-98,-43,-13,126,43,61,68
27,51,-189,-116,-72,-62,50,24,59,66
-41,28,-49,-61,-67,-48,32,19,61,68
-175,-57,5,27,-14,22,46,51,74,21
-193,259,319,163,85,75,34,56,29,-88
-48,715,685,263,155,81,9,4,-53,-178
34,845,788,318,167,65,-12,-50,-113,-228
-11,476,590,266,150,87,36,-8,-51,-190
-192,-650,-252,-55,8,61,50,37,-28,-137
-129,-982,-797,-288,-122,-16,0,32,-6,9
58,-424,-506,-211,-97,-28,-36,2,-8,106
122,-289,-216,-126,-50,-11,-68,-11,-46,35
216,-252,-146,-133,-56,-12,-100,-37,-80,-47
262,-132,-140,-80,-55,-22,-116,-77,-122,-95
215,-35,-254,-117,-86,-35,-94,-55,-99,-66
190,19,-228,-187,-137,-54,-88,-23,-65,7
36,-11,-70,-83,-63,-21,-71,-33,-99,1
-139,28,105,77,31,16,12,-23,-57,72
-210,-112,177,179,96,91,144,101,94,201
-251,-260,84,166,183,243,285,237,169,118
-139,-258,-41,84,152,263,260,218,115,37
-44,-143,-125,3,71,178,160,173,76,11
-47,19,-139,-50,9,74,14,64,21,-26
-7,26,-102,-37,-6,44,-28,-5,8,26
-24,30,9,16,8,23,-59,-54,-14,13
-49,26,41,13,-23,-38,-145,-158,-62,-37
-34,17,58,20,-33,-55,-177,-189,-41,-46
64,105,39,0,-59,-38,-94,-138,-18,-31
167,174,66,-53,-74,-7,31,-52,9,20
206,249,-32,-78,-67,7,156,46,69,78
92,336,0,-39,-57,-26,111,7,-6,-1
61,332,178,57,-9,-62,-52,-51,-57,-41
21,275,175,111,7,-62,-114,-43,-18,-33
-38,240,134,57,-37,-78,-102,-59,-26,-51
-41,141,69,-25,-58,-48,-35,-26,29,-25
-11,202,199,-25,-98,-77,-58,-59,-1,-36
91,520,517,60,-91,-123,-96,-133,-70,-36
146,667,677,170,-20,-76,-74,-134,-92,-34
41,93,352,166,65,44,5,-30,-39,-1
-52,-637,-387,-100,1,90,109,111,76,94
-11,-648,-516,-183,-62,37,123,124,64,103
88,-69,-68,-16,-51,-51,0,-19,-99,-39
217,607,308,62,-67,-136,-129,-148,-217,-115
190,527,391,90,-33,-118,-125,-150,-215,-137
101,-55,0,-18,-41,-57,-44,-77,-138,-79
-7,-612,-483,-109,-4,32,90,60,-8,27
-74,-853,-626,-91,95,129,234,181,149,147
-149,-418,-337,-37,84,115,178,110,96,59
-175,-252,-256,-76,20,73,128,87,97,12
-103,-235,-223,-104,-27,35,42,67,127,70
-32,-64,-69,-52,-19,7,-19,19,43,18
-48,-20,-48,-31,-15,1,9,29,-37,-113
-35,-45,5,22,27,24,68,38,-67,-180
103,9,188,98,60,17,85,67,-48,-166
283,215,284,91,26,-33,49,76,-11,-120
347,470,309,43,-23,-78,-27,2,-48,-131
176,139,116,-77,-109,-131,-68,-21,-22,-54
28,-134,-179,-218,-201,-148,-43,18,119,177
-149,-239,-311,-171,-118,-110,-55,-42,55,122
-254,-171,-138,24,48,-26,-83,-129,-102,-97
36,-111,-73,54,51,-15,-97,-109,-74,-4
362,-14,68,57,41,-28,-93,-70,-21,14
451,-2,247,124,93,26,-13,-19,-10,-67
396,-127,143,97,100,57,48,44,38,-32
279,-105,-21,3,35,3,-4,-2,-15,-71
157,-44,7,4,18,-23,-63,-109,-147,-171
115,30,-25,29,25,-23,-67,-100,-84,-1
117,351,50,31,-25,-51,-92,-81,-4,107
235,803,286,5,-89,-120,-142,-159,-136,-122
50,619,285,14,-69,-95,-94,-151,-244,-414
-342,126,96,3,-13,-29,-7,-74,-197,-400
-526,-29,35,5,13,5,24,0,-27,-15
-536,-70,-59,23,39,54,68,120,261,391
-335,198,-63,33,48,71,86,169,402,572
-308,88,-60,27,44,46,28,82,213,364
-393,-483,-193,16,72,92,54,103,138,221
-211,-578,-194,25,86,124,75,155,187,337
-51,-272,-45,54,71,83,52,132,196,393
-26,72,89,51,39,37,12,55,107,223
-66,116,126,35,19,21,-22,-2,-10,79
-99,47,100,18,-13,4,-51,-41,-95,-32
-28,179,194,35,-28,-31,-113,-93,-143,-98
14,193,183,43,-6,-57,-130,-102,-118,-56
-84,-218,-48,-1,13,-9,-35,-42,-67,-46
-153,-733,-349,-68,44,80,89,95,51,58
-124,-577,-419,-119,11,74,112,130,154,196
-108,-205,-332,-125,-26,22,69,46,106,159
-150,15,-120,-75,-36,-7,44,-6,16,44
-87,55,84,20,-14,-1,24,0,9,-11
91,230,247,65,-12,-23,-14,-14,22,11
158,412,320,93,2,-39,-48,-41,1,51
66,319,112,25,-13,-46,-84,-64,-24,-14
-49,42,-168,-68,-41,-21,-78,-46,-6,-34
-119,-206,-251,-74,-30,-2,-49,-33,6,-44
-103,-202,-201,-69,-20,17,19,-7,18,-34
-113,-184,-92,-20,28,70,102,25,21,-68
-74,-30,19,35,65,83,116,11,15,-104
-51,-170,-40,42,80,117,137,42,27,-79
-6,-255,-134,15,75,109,114,86,72,23
110,82,11,8,27,41,-14,60,52,67
155,579,351,68,29,7,-65,4,-61,-81
205,978,696,198,74,0,-80,-90,-176,-193
301,898,817,287,128,42,-13,-86,-171,-130
340,319,396,238,168,101,138,35,-4,43
60,-801,-384,49,160,168,261,175,154,114
-272,-1199,-836,-193,7,71,162,129,132,48
-289,-308,-536,-254,-155,-129,-48,-63,-35,-109
-125,-6,-289,-179,-158,-146,-29,-61,-50,-75
-58,14,-142,-112,-118,-96,44,-13,-27,-32
15,85,-19,-71,-95,-79,34,-11,-24,4
82,177,7,-77,-93,-93,-21,6,-19,59
125,240,-8,-84,-85,-83,-80,-14,-31,56
126,256,-3,-61,-66,-50,-94,-36,-43,34
71,97,54,-18,-45,-32,-113,-64,-55,22
42,-169,-39,-29,-53,-79,-140,-100,-43,32
51,-123,-13,-51,-67,-80,-142,-104,-60,30
48,0,67,-19,-48,-46,-122,-59,-52,13
49,26,56,-21,-44,-39,-104,-10,-37,2
59,26,-72,-63,-74,-35,-52,32,0,42
53,-105,-197,-140,-94,20,77,69,69,59
96,22,-186,-154,-78,44,166,62,53,44
193,265,-20,-36,-48,-14,98,-27,-50,-38
195,259,84,57,-2,-37,29,-70,-111,-92
60,60,136,117,56,-9,-27,-53,-113,-130
-98,-201,146,123,75,-3,-66,-13,-126,-202
-113,-332,60,63,53,-12,-52,97,-64,-228
81,-212,-5,-17,2,-15,-47,126,-12,-196
305,-18,-9,-55,-55,-22,-62,65,-2,-109
311,149,47,-50,-80,-62,-102,-35,-57,-135
283,294,77,-46,-78,-87,-133,-124,-110,-230
349,374,0,-89,-107,-113,-109,-146,-81,-176
496,210,-67,-123,-122,-141,-26,-89,35,47
317,50,54,54,5,-58,56,-19,74,84
56,12,211,177,98,43,79,21,41,-66
-33,-139,231,166,88,70,47,34,65,-8
-101,-37,268,152,78,53,-30,-38,39,174
-394,-4,324,169,95,70,-45,-38,34,156
-541,18,201,148,119,108,2,1,88,76
-490,31,-7,19,59,87,4,14,121,129
-477,-218,-199,-72,20,84,8,56,196,209
-382,37,18,60,55,70,-33,17,121,118
-232,263,176,104,57,42,-56,-43,19,22
-133,161,178,62,43,31,-87,-72,-21,4
-21,85,184,25,-10,-19,-128,-88,-36,31
137,38,172,17,-50,-49,-53,-49,-26,22
148,-209,158,57,-19,-13,130,38,-16,-64
105,-469,53,97,56,99,331,134,-22,-148
198,-703,-280,-5,46,107,379,166,-80,-251
369,-219,-419,-175,-86,-54,143,7,-246,-351
356,86,-393,-225,-152,-128,-29,-90,-279,-315
158,-65,-363,-150,-51,-13,18,32,-68,-108
-3,-99,-260,-86,0,33,45,75,40,121
-111,-12,-88,-28,7,18,24,53,36,127
-316,-47,-8,-1,13,27,32,92,113,42
-228,56,-6,-29,-37,-34,-51,16,94,70
18,141,-46,-81,-79,-88,-92,-37,38,211
106,232,-43,-88,-91,-80,-67,-20,24,181
154,253,-29,-84,-101,-71,-32,-9,-4,89
145,201,-56,-14,-44,-33,-21,25,8,53
113,129,45,86,25,2,-54,-22,-54,-20
51,-186,62,81,38,21,-26,-3,-14,126
-201,-327,43,59,53,61,38,108,85,222
-384,-291,9,46,49,65,61,110,38,13
-297,-39,-57,-19,9,34,74,96,78,-32
-164,73,-37,-6,50,68,97,71,8,-194
63,38,-23,0,60,81,53,7,-60,-256
355,23,-81,-60,-4,23,-13,-32,-5,23
522,34,-7,-57,-22,-35,-71,-69,32,254
434,92,107,19,23,-25,-78,-93,-8,272
127,191,136,89,95,32,-18,-63,31,307
-315,107,111,129,144,90,41,21,153,314
-650,-43,55,114,143,91,66,77,152,163
-666,42,68,98,145,77,68,120,134,83
-432,133,158,82,81,-1,-41,43,84,139
-258,285,259,77,7,-68,-121,-54,25,85
-170,197,197,6,-48,-95,-152,-63,-4,27
-116,-113,-69,-65,-38,-80,-131,-35,19,55
-95,-37,-207,-89,-41,-84,-150,-64,-9,44
-59,72,-47,-60,-46,-104,-174,-102,-90,-4
-26,-14,11,0,4,-30,-117,-47,-67,0
-45,-193,-162,-8,47,65,24,67,-19,-22
-2,-172,-202,-10,36,56,66,45,-44,-63
83,-60,-65,1,21,29,66,-4,-82,-95
102,-58,20,35,66,74,113,19,-70,-87
116,31,42,58,88,68,39,37,-46,-52
170,240,100,22,36,-26,-68,38,-1,100
112,97,52,-12,-12,-57,-105,45,29,162
-6,-18,-34,-32,-12,-8,-65,30,13,59
-67,22,50,15,23,63,45,0,-19,-57
-42,78,134,30,-2,50,98,-13,-33,-74
-1,226,248,17,-61,-27,-16,-52,-76,-82
-61,209,284,47,-31,-46,-148,-122,-125,-136
-81,322,316,98,17,-16,-181,-125,-149,-191
-66,-46,96,35,10,25,-69,-15,-96,-153
-13,-648,-314,-61,14,85,121,174,77,0
40,-552,-421,-81,3,79,178,229,138,48
156,-298,-297,-72,-18,38,118,155,112,88
207,120,-23,-31,-23,4,53,9,33,52
251,380,168,46,5,10,69,-38,1,26
273,500,334,133,38,6,109,-51,-6,8
111,314,298,107,36,-4,71,-63,-22,-46
-27,152,63,-24,-46,-51,-11,-43,-10,-88
-110,-247,-205,-131,-92,-40,12,10,36,-93
-101,-491,-403,-155,-68,4,101,98,105,-19
-106,-494,-370,-119,-42,15,136,131,128,0
-38,-242,-176,-80,-44,-21,66,22,12,-49
50,-123,-33,-23,-18,-23,31,13,-29,-55
114,-22,18,32,13,13,33,70,-2,-1
99,-24,-42,44,10,20,48,96,8,12
-5,-171,-20,65,53,48,73,107,13,-13
-49,28,94,91,96,52,44,75,-6,-48
-25,89,34,74,76,28,31,45,-4,-26
-61,-40,-176,25,54,62,44,14,0,-10
-45,-16,-252,-37,-10,32,6,-57,-46,-30
49,-109,-248,-106,-52,11,7,-23,6,24
120,42,-84,-92,-52,-12,-10,-17,24,45
166,143,-51,-116,-111,-80,-51,-95,-44,34
168,179,-71,-110,-133,-99,-58,-124,-93,4
72,88,66,66,12,-27,-57,-128,-198,-148
126,2,42,39,12,-12,-43,-66,-134,-113
205,-86,-67,-73,-42,-8,-24,-16,-29,9
132,-87,-16,-22,-25,-23,-46,-10,-61,-41
42,-87,-15,12,-4,-35,-51,11,-78,-115
11,-86,-55,8,27,0,7,27,-45,-112
-17,114,136,92,75,14,-4,-51,-88,-163
-32,275,228,105,69,4,-34,-106,-137,-200
-59,341,236,86,64,6,-15,-91,-158,-243
55,336,289,121,80,14,-4,-76,-161,-225
276,374,414,161,71,-32,-28,-88,-144,-193
452,318,431,164,57,-36,-58,-81,-108,-211
364,-125,134,48,17,-28,-73,-91,-136,-287
180,-305,-78,-58,-65,-89,-107,-160,-233,-388
-3,-294,-136,-66,-75,-65,-69,-115,-64,-121
-186,-118,-217,-85,-55,9,16,43,262,347
-327,-284,-212,-55,-4,55,71,103,346,423
-321,-539,-189,-25,14,46,96,94,254,170
-94,-159,36,3,-7,-14,22,4,86,-32
-12,95,198,54,-7,-23,17,-20,37,-2
11,88,268,91,10,0,45,0,86,171
-145,-20,154,93,61,61,78,32,85,121
-167,-25,-198,-72,-5,40,53,105,211,285
-157,-171,-258,-70,-16,20,37,73,250,403
-232,-312,-277,-55,-3,36,77,46,127,73
-44,-125,-296,-146,-77,-9,43,16,53,-58
86,-88,-219,-140,-92,-30,34,6,35,-50
87,-64,-125,-78,-42,-6,47,13,-7,-82
57,131,-8,-17,3,17,35,-14,-67,-79
115,346,135,20,15,5,-55,-94,-103,49
134,369,170,25,25,3,-130,-83,-26,261
113,290,188,112,90,36,-94,-19,33,281
153,30,116,127,97,34,-41,3,15,193
191,-169,-176,-50,-12,-11,-21,49,76,239
127,-124,-219,-99,-57,-23,0,64,65,209
5,-12,-22,1,-3,-14,-4,7,-49,52
-122,102,122,105,78,12,-2,-20,-119,-77
-260,110,135,132,110,26,-46,7,-68,-95
-214,-33,-37,61,80,-2,-124,11,17,-11
-122,120,-18,-16,-13,-67,-150,-40,28,39
-116,175,68,-24,-31,-67,-90,-54,-26,-52
-141,88,89,12,0,-7,6,-27,-53,-136
-122,46,89,20,15,30,82,6,-35,-145
-35,-109,-19,-2,28,53,104,44,18,-63
-35,-171,-86,-7,9,51,44,21,17,-50
-96,-78,47,14,-7,8,0,-37,-47,-96
-48,-121,27,-25,-50,-25,-2,-21,32,90
37,-211,-86,-63,-82,-38,8,32,150,238
94,-55,-41,-44,-63,-21,12,22,77,133
118,114,85,22,-11,10,28,49,11,28
89,311,219,87,39,32,32,50,9,-14
7,546,362,164,97,65,-8,-16,-24,-77
-41,410,311,121,64,51,-57,-26,7,-31
-102,-153,32,-31,-52,-26,-74,-3,50,3
-116,-269,-36,-52,-73,-45,-135,-72,-21,-64
-39,-16,90,34,-9,-9,-125,-129,-105,-119
15,-259,-31,24,31,62,48,-30,-52,-53
-17,-430,-191,-6,58,109,216,79,26,5
-22,-58,-163,-28,35,69,250,128,64,15
-14,399,-115,-101,-35,-5,191,126,56,28
-24,379,-38,-92,-55,-34,101,53,-17,-13
-94,-85,-157,-114,-59,-22,35,9,-34,-47
-82,-316,-306,-162,-84,-2,15,1,21,-3
-23,-227,-293,-125,-71,0,-12,14,24,15
-13,-110,-106,-9,-3,6,-71,-4,-26,-39
-9,24,87,69,46,24,-97,-52,-88,-86
51,250,143,56,30,13,-94,-44,-96,-74
128,228,51,-48,-31,-43,-128,-8,-31,13
149,139,-151,-149,-86,-108,-153,-45,-20,34
129,66,-87,-77,-42,-54,-48,30,-8,10
32,-26,40,0,-24,-34,-23,-4,-69,-112
3,-144,22,10,-12,-9,-4,-15,-51,-129
35,-218,-33,0,21,44,31,62,42,-51
-43,-119,99,64,50,51,16,45,41,-104
-72,77,280,133,93,49,-34,-33,-24,-178
-22,220,318,117,56,5,-80,-78,-52,-132
-8,-113,83,26,8,-16,-25,-41,29,-36
42,-250,-67,-1,35,26,62,3,90,40
135,65,-2,-22,5,-22,32,-60,17,46
179,236,119,-20,-27,-57,-58,-60,-26,11
133,87,98,7,12,0,-41,43,72,78
52,-326,-274,-74,3,17,-12,45,84,29
44,-464,-501,-188,-69,-23,-39,22,2,-106
107,-283,-387,-224,-127,-69,-29,-10,-79,-216
258,-132,-302,-193,-119,-79,39,-5,-78,-189
266,-49,-169,-103,-34,-30,85,20,-100,-247
167,120,134,27,38,-2,35,-34,-222,-366
-55,219,294,107,58,6,-17,-113,-310,-422
-245,182,255,126,57,23,-10,-87,-206,-288
-194,29,73,42,15,32,12,37,146,297
-116,-70,-189,-69,-8,27,36,97,331,572
-18,5,-217,-73,2,34,60,86,234,378
-34,79,-47,-30,5,36,57,50,96,197
-35,139,35,-7,-18,-6,-9,-21,-28,127
-63,9,0,20,3,5,-15,-22,-51,143
-199,-257,13,80,85,98,57,29,-39,50
-187,-324,34,99,101,127,97,79,21,29
0,-172,68,95,87,106,71,63,60,33
182,-41,21,28,46,62,31,29,78,110
200,61,-65,-68,-38,-29,-19,-12,111,182
243,156,-68,-115,-130,-133,-93,-87,44,169
267,249,83,-60,-139,-157,-109,-126,-31,113
206,313,168,-3,-74,-94,-21,-60,-25,20
157,422,246,58,1,-59,-28,-42,-42,-46
127,346,168,76,44,-20,-82,-56,-32,102
-43,18,-38,45,61,22,-37,-18,34,215
-293,-152,-131,-6,29,12,-4,-6,76,161
-285,97,-96,-75,-43,-34,-4,-17,83,102
-186,363,102,-97,-78,-56,46,35,118,86
-31,447,356,-24,-72,-33,90,103,189,147
61,286,385,-6,-56,-24,101,183,274,211
-159,42,492,315,158,52,41,86,122,-29
-302,-538,165,352,246,140,48,55,61,-125
-320,-985,-607,-31,69,66,17,35,82,-71
-187,-513,-592,-172,-64,-12,-14,-53,13,-47
-105,-183,-286,-107,-62,-25,-15,-64,-11,-56
-46,168,-94,-61,-42,-54,-63,-79,-51,-77
-88,135,5,-4,0,-28,-51,-61,-60,-48
-125,44,32,35,28,19,-8,8,-55,-49
-35,119,83,56,48,66,0,25,-68,-57
72,222,87,48,62,82,31,43,-74,-34
87,241,46,1,41,39,55,44,-81,-58
97,195,32,-53,-20,-10,39,3,-64,-52
73,-88,-94,-94,-60,-16,32,6,-22,-36
-27,-213,-59,-19,-40,3,37,-33,-70,-107
-33,-105,-33,-23,-39,-13,5,-80,-81,-101
-13,-10,-50,-52,-28,-23,-49,-56,-30,-47
-62,-58,-60,-44,-1,10,-18,47,29,-15
22,36,-57,-63,-19,-1,-35,102,70,33
125,179,21,-29,-29,-27,-60,33,-1,32
101,132,103,61,45,19,-45,-38,-84,-31
2,183,50,64,65,37,-1,-69,-119,-79
-102,26,-70,8,13,-8,4,-52,-98,-101
-118,-418,-187,8,37,31,86,21,31,-9
-62,-266,-148,-12,11,22,101,42,86,41
16,-85,-31,-18,-12,-32,23,0,56,32
29,-49,28,26,11,-38,-35,-32,3,19
12,170,224,94,36,-13,-2,-16,-58,-55
79,491,450,172,40,-13,6,9,-66,-78
147,716,620,218,60,-24,-41,-57,-89,-99
172,609,612,207,59,-26,-58,-104,-81,-106
133,119,276,103,29,-20,-2,-53,-6,-73
170,-189,-166,-68,-54,-44,8,-13,36,-41
213,-504,-537,-213,-98,-12,56,88,158,114
159,-454,-502,-222,-84,11,69,101,204,177
18,-258,-236,-112,-50,-30,-46,-64,22,-5
-94,-133,-99,-31,-34,-55,-109,-157,-60,-64
-113,129,134,67,4,-41,-86,-99,-14,0
-92,312,285,121,15,-30,-72,-28,-1,32
-125,184,61,61,8,4,-20,39,-11,-34
-82,-180,-220,-32,-19,6,21,91,9,-18
78,-50,-170,-86,-57,-23,17,62,10,46
212,191,-95,-94,-95,-72,-11,6,6,103
158,-46,-114,-74,-58,-59,-38,15,37,111
77,-36,-62,-44,-20,-22,-79,0,-3,53
-47,-136,94,37,16,4,-99,-50,-86,-40
-170,-364,111,96,80,46,-66,-42,-105,-89
-153,-284,31,78,65,62,-29,-17,-107,-138
-32,-253,-121,15,39,52,17,27,-61,-137
169,-187,-211,-58,-9,15,45,7,-84,-215
471,167,-142,-92,-70,-27,57,-40,-208,-414
788,636,118,-64,-129,-120,-12,-139,-335,-541
653,784,477,52,-79,-106,-74,-177,-389,-577
139,463,489,127,10,-45,-51,-145,-318,-524
-304,-36,233,136,83,50,39,-78,-204,-390
-493,-522,-194,12,64,104,120,63,94,194
-525,-827,-728,-177,-16,76,165,204,490,787
-346,-514,-564,-141,-31,50,141,162,484,689
-170,-313,-177,-10,12,48,111,60,206,250
-111,-164,-117,6,-4,19,47,-5,66,114
-200,-80,-72,27,6,20,28,-36,11,111
-384,-9,90,84,51,65,41,-21,13,91
-476,88,141,124,94,115,76,26,71,95
-425,48,182,169,132,133,112,58,100,6
-240,-5,122,113,86,92,71,39,91,37
-71,98,74,48,31,28,24,17,117,168
-29,183,1,7,-9,-25,-8,-4,143,228
47,198,-128,-63,-57,-66,-16,-10,122,238
180,181,-87,-54,-38,-63,2,27,121,221
322,43,-140,-57,-23,-44,-4,40,81,144
367,-45,-148,-76,-57,-27,-40,57,66,112
352,-83,-64,-74,-78,-54,-118,-15,18,32
263,-169,25,-20,-46,-81,-170,-120,-80,-115
96,-105,101,6,-43,-80,-156,-149,-125,-191
0,86,162,30,-28,-55,-105,-124,-100,-131
-45,196,82,54,2,-11,-16,-45,-22,2
-66,305,135,29,4,20,65,56,79,171
-130,336,205,38,22,61,114,122,157,223
-221,148,133,73,72,88,150,161,176,127
-215,-12,76,80,80,61,80,96,76,2
-226,-45,65,46,43,3,-38,-16,-72,-149
-119,16,71,13,4,-47,-110,-63,-115,-195
-8,-165,23,18,-1,-44,-119,-63,-112,-170
-39,-344,-15,11,-2,-17,-41,-63,-128,-185
-7,-82,91,55,3,-11,-23,-52,-151,-119
17,210,172,34,-10,-37,-34,-57,-137,20
-61,175,92,-43,-7,29,58,64,-39,89
-172,-103,-80,-61,33,104,111,191,80,117
-261,-510,-263,10,39,88,75,170,66,20
-178,-438,-348,-36,-2,59,15,100,38,-11
-73,-53,-115,5,1,44,-50,-22,-40,-38
36,137,64,12,-26,-2,-72,-46,-26,0
85,167,58,-22,-62,-55,-100,-29,-3,64
36,-11,-37,-34,-46,-42,-14,-9,0,79
22,-245,-117,-37,-32,-18,26,-3,0,64
14,-297,-196,-87,-55,-13,10,38,25,60
78,-147,-207,-150,-109,-57,-38,57,48,86
22,62,29,-4,-29,-46,-88,-70,-99,-69
-12,208,130,46,18,-47,-65,-130,-161,-157
-2,170,121,32,13,-43,-40,-154,-144,-133
3,74,33,50,40,3,18,-92,-70,-93
42,83,43,61,67,42,67,4,35,-8
37,268,116,53,50,26,30,-40,20,-20
80,390,99,0,-12,-19,6,-40,36,-16
153,273,11,-46,-33,-35,26,7,79,66
179,176,6,-57,-36,-37,-23,7,71,83
183,30,-36,-51,-21,8,19,19,105,86
95,4,-14,-39,3,62,65,61,104,31
51,137,93,8,-12,1,3,24,8,-59
43,303,224,65,-46,-58,-86,-41,-67,-134
44,421,218,70,-37,-52,-117,-40,-81,-147
-66,192,189,69,-2,-46,-116,-104,-152,-219
-165,-347,-38,17,2,-12,-47,-68,-103,-151
-142,-496,-193,-43,-32,17,63,38,-17,-20
-30,-108,29,-15,-30,28,150,65,-31,10
36,-43,141,36,12,62,217,160,44,89
19,-121,59,16,16,79,206,178,95,163
-106,-271,-218,-26,30,89,162,130,34,56
-115,-425,-389,-55,30,49,73,96,0,14
66,-182,-210,-35,-6,-37,-106,-47,-46,11
202,26,-67,-19,-32,-99,-226,-139,-96,-8
180,25,-23,4,-12,-89,-209,-137,-114,-53
54,18,2,21,10,-30,-88,-114,-139,-148
-58,46,31,36,3,4,13,-96,-136,-224
-10,203,120,49,-15,-14,46,-54,-78,-166
173,362,314,101,-14,-41,21,-29,-39,-91
314,404,427,151,14,-43,-16,-49,-75,-131
348,229,409,166,43,-16,-50,-88,-124,-114
249,26,198,135,72,35,-23,-39,-80,-40
-33,-99,-185,-8,41,37,4,30,-16,-18
-224,-214,-340,-87,-11,8,-25,38,30,55
-277,-233,-242,-56,-9,-15,-40,24,66,100
-136,-103,-111,-39,-21,-37,3,23,90,116
76,-29,-146,-44,-25,-25,72,15,49,53
306,-53,-182,-47,-56,-43,60,-31,-8,-25
399,290,-135,-76,-121,-97,-28,-99,-92,-112
287,304,-71,-67,-122,-109,-96,-153,-174,-219
171,-195,-150,-46,-37,-3,-30,-59,-47,-86
115,-417,-213,-48,17,54,7,10,72,71
1,-228,-71,1,35,36,-28,-29,52,138
-153,-87,56,66,69,40,-21,-20,122,206
-243,49,167,105,93,47,-17,-24,108,128
-334,113,216,77,48,17,-5,-34,86,168
-373,59,144,54,26,36,83,37,164,300
-425,96,161,82,67,102,227,173,260,277
-399,-89,66,62,67,114,251,220,267,241
-269,-291,-144,-61,0,38,135,134,211,233
-178,-210,-164,-93,-27,3,76,60,129,165
-119,-90,-53,-66,-21,-8,35,41,58,83
-29,55,139,-8,8,-21,-7,58,24,93
-5,50,174,60,70,23,-16,71,32,71
8,108,80,95,114,60,-24,37,-29,-28
35,0,16,49,83,38,-36,7,-98,-126
54,-205,-198,-78,-11,-17,2,5,-80,-109
113,-25,-275,-128,-70,-70,0,16,-27,-25
98,15,-118,-89,-53,-85,-3,0,-52,26
66,93,63,5,3,-58,-17,-35,-96,-5
7,157,194,45,18,-42,-36,-11,-32,94
-24,45,159,6,-26,-59,-32,48,84,242
-7,91,184,39,1,-20,-25,30,26,104
55,284,282,112,54,14,-44,-9,-54,-26
81,274,251,148,89,46,7,47,13,32
110,444,206,103,55,19,0,62,35,58
138,680,292,51,-17,-60,-140,-36,-55,-40
102,374,109,-35,-72,-100,-184,-86,-95,-83
-79,-268,-231,-114,-51,-24,-78,-30,-25,-70
-158,-583,-345,-128,-44,15,-7,-3,30,-55
-108,-650,-348,-100,-30,31,47,50,51,-30
-18,-314,-193,-77,-39,12,54,59,60,-9
50,12,-30,-57,-50,5,-3,25,69,-10
30,144,-4,-47,-45,7,-44,28,81,-5
-4,19,-87,-43,-48,-3,-56,18,70,-9
27,-84,-20,-4,-20,-3,-56,7,51,-15
73,-11,132,34,1,1,-48,-40,5,-59
119,53,228,78,26,-5,-54,-96,-62,-117
194,81,255,94,30,-10,-89,-172,-91,-78
276,467,431,131,28,-28,-110,-181,-125,-57
142,251,332,107,22,-44,-76,-91,-93,-55
7,-155,-76,-35,-13,-40,17,56,12,16
-126,-441,-435,-143,-5,27,141,136,44,42
-277,-536,-578,-165,48,106,220,197,59,-5
-255,-202,-391,-99,60,98,134,169,19,-79
-138,58,-140,15,67,49,5,32,-77,-158
-66,53,-108,-4,21,3,-36,-55,-120,-199
-21,-75,-149,-12,-19,0,-6,-35,-91,-153
-4,-158,-57,27,10,10,2,-14,-55,-133
-35,-91,88,43,33,-12,-24,-62,-73,-177
-14,-172,70,19,24,-33,-38,-52,-33,-158
171,-142,24,-18,-16,-50,-68,-11,15,-64
268,130,74,-14,-24,-43,-132,0,-1,-60
248,326,100,21,-10,-41,-150,-35,-64,-133
85,134,47,12,-23,-26,-71,-83,-123,-164
-136,-72,-12,-35,-38,-21,68,-35,-121,-120
-133,228,89,-16,-19,-16,184,14,-48,45
-115,211,67,33,3,13,187,50,27,94
-20,-6,101,71,53,42,128,61,68,40
13,44,201,81,62,45,96,1,51,12
58,-93,102,38,30,39,76,7,118,114
110,-344,-105,-15,27,56,76,85,169,168
139,-144,-124,-39,27,60,69,95,103,80
145,84,-58,-41,21,59,59,18,18,29
125,56,-75,-60,9,56,44,-17,-15,58
71,-3,-83,-64,-7,55,54,-13,-20,9
40,-86,-137,-71,-15,42,98,61,55,17
-22,-66,-123,-88,-35,17,105,109,85,18
-95,-12,-35,-62,-42,-13,25,57,31,-34
-63,47,19,-91,-77,-69,-81,-4,-36,-86
7,127,104,-65,-93,-124,-163,-74,-103,-151
49,31,154,0,-40,-84,-153,-75,-89,-86
42,-29,106,0,3,-26,-97,-19,7,71
21,-59,86,28,53,0,-54,6,42,61
-60,-305,-68,64,130,55,-33,33,65,36
-42,-153,-167,-26,63,13,-98,6,61,161
105,115,-106,-70,-46,-93,-186,-94,-2,209
164,183,-76,-61,-88,-129,-210,-143,-50,158
146,138,-60,-81,-105,-103,-128,-90,-27,132
85,132,76,-52,-75,-70,-38,-73,-61,52
-46,48,205,60,2,-4,29,-64,-110,-95
-83,-63,176,108,69,57,84,-1,-70,-119
-68,-131,4,72,79,102,145,68,-21,-72
-56,31,-32,31,58,95,132,102,-13,-76
-16,233,59,18,42,68,71,89,-9,-83
68,-10,-21,-15,12,32,34,50,-45,-116
283,-177,-133,-94,-50,-33,-9,-9,-85,-117
331,-141,-93,-89,-65,-84,-69,-65,-145,-152
203,-171,-44,-44,-28,-63,-61,-92,-190,-238
142,-32,51,-10,-11,-45,-87,-99,-157,-173
95,364,230,49,6,-70,-122,-64,-26,12
-51,661,311,76,33,-16,-64,33,138,109
-146,661,350,68,54,24,-20,49,170,65
-215,56,246,107,68,33,-27,-13,72,-29
-201,-461,10,99,67,59,8,-12,88,7
-48,-131,109,101,70,77,46,29,159,151
35,76,100,87,80,74,52,51,193,267
-185,-186,-307,-84,20,49,62,37,145,159
-254,-187,-415,-149,-46,-26,50,-17,74,84
-128,41,-150,-26,-1,3,98,10,100,175
-8,206,73,53,55,43,144,58,132,111
0,280,197,69,52,26,132,17,35,-78
-131,-123,-21,2,2,-6,108,23,-14,-193
-235,-586,-289,-77,-47,-27,25,14,-51,-248
-170,-352,-184,-63,-61,-57,-65,-24,-93,-263
-89,-91,-106,-70,-51,-87,-88,-12,-39,-112
22,-31,-136,-112,-70,-81,-65,23,79,174
-17,148,-66,-108,-66,-61,0,14,75,147
-61,227,0,-75,-77,-56,34,-40,0,27
-83,101,101,6,-34,-28,48,-51,-44,20
-100,37,86,32,-3,-29,45,-40,-88,-45
91,-60,-91,-39,-23,-26,37,32,-33,28
219,-312,-255,-93,-1,35,63,150,46,113
282,-127,-220,-106,-26,14,-16,125,-3,63
248,186,0,-67,-37,-28,-109,-6,-95,-52
101,342,246,68,47,12,-141,-81,-102,-93
-95,344,392,170,125,57,-119,-70,-62,-67
-343,92,422,245,174,112,-35,-32,1,-95
-415,-505,245,232,193,129,38,-16,29,-92
-169,-682,-9,103,125,100,67,-10,21,37
18,-210,33,66,77,94,102,42,55,145
1,44,-117,-74,-29,22,86,-4,0,29
82,338,-172,-182,-135,-90,28,-70,-60,-22
72,184,-144,-110,-89,-61,30,-47,-65,-41
66,220,-70,-59,-50,-32,3,-39,-57,-16
111,188,72,-52,-76,-53,-51,-62,-28,54
123,-10,-4,-72,-75,-44,-10,1,11,83
160,-63,-111,-133,-99,-11,41,47,50,135
99,-234,-295,-214,-114,28,76,60,34,87
-66,-318,-277,-103,-43,34,45,-12,-23,-36
-70,-158,-134,-35,-21,10,31,-16,39,55
-63,109,31,-21,-31,-12,0,-15,73,94
-152,241,199,92,50,29,-40,-47,19,11
-176,255,269,134,99,65,-46,-31,35,5
-92,143,189,72,92,53,-84,-37,31,24
-92,-131,47,76,95,48,-80,-41,31,31
-99,-278,-73,34,64,53,10,2,65,29
-20,-162,-95,-21,9,14,31,20,89,64
41,-90,-69,-9,-10,-42,-9,-22,69,60
56,-74,-43,-5,-21,-36,6,-31,44,46
70,-48,-92,-11,-38,-18,43,-12,20,44
55,-10,-90,0,-31,11,122,7,-20,-3
87,68,67,17,0,15,169,21,-51,-49
148,143,133,33,7,-2,114,27,-54,-59
180,83,90,17,7,0,51,43,-22,-58
103,-27,1,8,19,17,37,34,-57,-154
49,-84,9,-15,5,-1,2,1,-143,-289
128,54,25,-54,-49,-72,-73,-64,-208,-296
131,329,48,-81,-91,-116,-156,-143,-241,-209
6,308,72,-64,-76,-99,-173,-156,-221,-150
-83,-10,103,15,1,-6,-80,-21,-91,31
-130,-221,172,83,53,57,6,54,55,227
-131,-239,247,111,83,89,85,73,104,227
-7,-187,238,113,81,86,95,81,78,112
141,-323,-24,52,54,81,105,117,131,126
277,124,-176,-69,-30,0,32,62,98,151
410,716,139,-22,-49,-37,-85,-42,-7,107
298,520,174,32,0,10,-83,-22,5,100
30,455,137,41,21,29,-61,-7,28,47
-301,-183,-104,17,49,62,-8,29,57,4
-353,-518,-361,-69,17,44,-4,39,39,-21
-160,-382,-360,-123,-56,-12,-71,-13,-30,-72
-10,-156,-293,-121,-67,-31,-60,-11,-38,-63
-2,5,-182,-93,-71,-58,-81,-47,-75,-108
135,240,-21,-17,-34,-56,-92,-76,-127,-149
244,377,167,74,18,-22,-67,-77,-133,-172
215,375,225,100,2,-24,-24,-50,-92,-167
66,205,171,91,-5,-7,-21,-19,-63,-180
-206,-143,4,57,20,18,-24,5,-20,-197
-382,-562,-148,-1,16,27,27,56,75,-39
-286,-451,-171,-14,1,27,50,104,184,205
-190,-158,-84,10,-2,9,29,79,140,209
-110,-7,21,18,0,9,33,63,55,85
-32,-31,68,31,4,1,47,63,65,98
-16,-203,43,21,25,26,102,85,124,162
-95,-355,-130,-2,72,71,158,111,150,148
-90,-163,-146,-16,57,31,91,34,84,76
-43,39,-141,-25,-1,-44,-34,-50,3,18
-98,-112,-187,-33,-14,-38,-73,-43,-23,-30
-85,-135,-69,-24,-17,-16,-72,-8,-43,-54
-11,26,86,2,-5,-39,-96,10,-74,-67
101,196,161,5,-27,-92,-135,16,-31,-11
140,389,225,-25,-57,-101,-128,7,-43,25
52,470,321,21,-48,-86,-78,-16,-117,-52
51,370,283,50,-18,-24,-29,-13,-107,-52
126,101,105,57,37,40,-2,8,-81,-31
151,-370,-110,57,109,74,21,48,-23,0
151,-421,-217,-20,61,39,22,90,53,90
7,-175,-131,7,41,23,8,34,-7,-21
-99,-52,-55,84,84,69,24,21,-19,-46
-18,-61,22,93,79,56,15,32,38,147
-68,-172,-71,46,21,-13,-58,-36,-8,139
-141,-136,-33,3,-34,-78,-143,-117,-109,-31
-140,29,57,17,-33,-58,-127,-67,-65,-49
-113,176,131,25,-38,-75,-156,-58,-19,-20
-81,298,171,6,-63,-93,-217,-123,-56,-37
-61,322,199,4,-77,-93,-197,-167,-94,-71
-35,74,84,-14,-65,-52,-107,-123,-60,-44
21,-216,-211,-85,-65,16,57,9,48,45
42,-182,-278,-130,-70,33,147,91,87,50
63,-27,-172,-87,-59,14,66,72,5,-9
157,90,-69,-36,-47,-13,2,-2,-29,-13
234,179,-29,-28,-41,-22,44,-47,-16,67
206,193,8,-36,-58,-10,95,-21,24,135
107,321,144,22,-41,-2,74,-21,21,92
37,445,353,117,1,-4,12,-45,4,31
48,507,433,133,3,-23,-13,-33,16,12
44,342,402,146,36,14,11,-4,19,-12
-118,-259,192,157,123,160,204,97,39,-93
-125,-526,-139,41,98,186,239,133,46,-83
8,-333,-143,-10,20,116,97,63,1,-4
78,-156,-56,-48,-55,5,-26,0,-72,-29
153,143,7,-57,-80,-38,-30,-33,-94,-67
163,102,-19,-45,-51,-31,9,-44,-105,-61
79,-327,-320,-72,-7,27,83,45,4,74
-21,-266,-353,-43,15,35,65,81,70,163
-100,-77,-99,24,31,31,53,45,39,112
-135,-43,-95,-2,23,33,56,29,-8,55
-124,21,-99,-25,1,-10,-23,-33,-104,-54
-143,117,-12,-2,30,-16,-91,-52,-125,-124
-151,25,45,54,54,2,-107,-40,-68,-115
-136,-155,28,80,70,37,-55,-22,-14,-90
-94,-319,-117,37,52,88,32,38,59,-15
-18,-244,-139,1,32,65,56,67,77,14
67,-82,-133,-29,-6,9,32,58,25,-41
126,-94,-146,-57,-44,-26,-3,11,-54,-134
215,123,-23,-78,-114,-117,-76,-99,-186,-241
335,490,216,-23,-116,-159,-103,-175,-269,-272
318,611,398,68,-51,-116,-30,-135,-221,-239
144,351,355,112,27,-35,40,-66,-136,-214
-171,-500,-93,55,89,60,121,69,28,-65
-263,-423,-284,-47,45,71,124,154,239,229
-59,201,-98,-92,-43,-23,1,99,253,365
81,369,68,-35,-26,-46,-87,-14,159,317
94,311,181,62,20,-29,-98,-98,72,177
-26,-285,-110,-19,14,-2,-5,-34,124,166
-136,-516,-358,-116,-22,19,86,34,175,183
-175,-178,-135,-58,-11,19,111,7,134,89
-159,20,165,51,36,48,101,0,81,25
-90,27,275,120,49,43,63,-2,38,36
46,-11,118,86,46,33,82,38,85,114
-1,-75,-114,3,31,39,50,85,94,116
-173,-228,-281,-62,9,40,39,99,64,13
-79,12,-278,-144,-70,-25,-24,46,1,-33
153,141,-250,-181,-103,-64,-61,28,-35,-37
113,32,-122,-45,-26,-34,-63,9,-94,-141
94,109,53,59,-1,-44,-88,-40,-151,-213
147,194,109,7,-41,-61,-99,-60,-166,-213
235,205,69,-44,-71,-86,-76,-69,-154,-164
233,31,42,-3,-52,-68,-80,-94,-124,-108
255,-169,-69,59,-7,-42,-76,-80,-80,-78
429,158,-85,60,7,-32,-28,-37,-29,-14
-410,459,247,23,-56,-78,-46,-77,141,199
-303,424,234,39,-29,-35,-5,-61,109,95
-242,58,183,119,57,29,60,-22,91,29
-380,-490,-81,94,94,97,131,78,147,19
-429,-679,-214,2,47,75,90,69,110,-33
-266,-462,-134,-47,-19,1,-11,-8,25,-63
-90,-139,-44,-53,-62,-28,-55,-41,-14,-49
3,-69,-172,-68,-38,-25,-19,-27,9,-21
13,-100,-195,-55,15,24,41,6,19,-17
-39,-217,-135,42,107,95,70,11,-28,-67
-55,-223,-127,45,123,115,101,13,-48,-89
-104,-114,-42,62,105,77,107,-17,-95,-167
-189,11,65,91,111,46,114,7,-62,-146
-180,60,80,76,87,22,66,36,2,10
-148,-11,13,23,52,3,-2,69,55,137
-113,-65,-23,1,32,-6,-19,92,90,110
-28,31,26,0,-5,-40,-71,52,60,45
15,37,40,-14,-46,-40,-120,13,40,38
-23,-53,-5,-57,-83,-55,-129,1,30,71
-17,10,-18,-60,-108,-66,-150,-17,31,124
61,172,93,-22,-80,-66,-188,-52,30,124
152,299,285,15,-56,-77,-158,-40,-2,81
146,323,411,87,-5,-28,-38,-20,-54,8
72,274,279,78,14,17,112,2,-81,-55
70,148,12,16,8,29,163,50,-16,-16
77,-83,-294,-87,-29,23,114,77,74,74
22,-81,-323,-108,-56,-13,43,24,54,43
-25,-87,-159,-48,-24,-6,22,-16,19,-7
30,-35,-79,-20,-6,17,12,4,32,23
115,44,-20,-20,2,0,-2,21,60,66
152,181,8,-39,-27,-39,-39,7,51,61
142,319,137,4,-23,-24,-55,-7,18,32
132,444,366,109,27,7,-84,-45,-29,-8
140,588,497,163,57,3,-93,-79,-50,-35
108,585,399,133,52,10,-45,-78,-43,-45
-58,-277,-98,-6,15,32,32,36,27,-11
-121,-821,-477,-134,-25,34,39,153,87,16
-23,-372,-264,-88,-16,37,12,83,39,-1
-91,-170,-152,-56,-5,44,38,-1,-33,-87
-175,-267,-207,-28,19,59,62,-33,-99,-134
-110,-206,-158,-25,5,43,65,-21,-107,-84
2,-21,-50,-44,-37,-6,55,12,-39,16
19,17,-9,-39,-21,-31,21,30,-28,31
7,-32,63,-13,-6,-43,0,88,-33,23
68,113,173,20,-12,-64,-53,105,2,64
72,13,151,28,11,-50,-64,55,19,92
78,-59,-18,-23,19,-23,-24,3,37,102
76,43,-117,-65,-9,-34,-1,-15,33,68
55,14,-108,-50,-25,-27,-22,-15,10,11
26,3,-52,4,-3,-22,-30,-21,-8,-36
40,112,66,48,15,-23,-29,4,0,-16
57,205,136,39,12,-11,-25,54,31,42
-39,72,-56,-29,-7,2,-18,87,47,36
-110,-143,-203,-47,-20,15,-16,54,26,-12
-32,-105,-176,-41,-37,8,-42,-14,13,-14
77,36,4,-3,-37,-32,-74,-75,-2,2
94,25,138,44,-6,-51,-86,-108,-33,-34
22,-21,228,100,30,-9,-61,-103,-87,-117
-63,0,264,154,63,38,-11,-75,-101,-163
-40,164,239,164,92,62,16,-49,-89,-145
-6,361,176,114,77,51,22,-44,-98,-159
134,831,282,48,-14,-43,-71,-153,-198,-241
316,1229,531,87,-27,-81,-123,-249,-280,-348
334,888,473,135,58,-1,-45,-181,-215,-355
136,-206,-100,9,70,87,90,-3,-48,-264
-3,-872,-485,-113,46,166,235,151,90,-166
-33,-872,-351,-68,34,152,250,163,74,-94
-73,-677,-271,-11,41,108,212,126,92,127
-146,-752,-420,-71,25,71,168,146,182,230
-68,-639,-431,-148,-31,-10,37,53,63,75
111,-312,-233,-139,-79,-69,-62,-62,-42,56
206,142,-74,-104,-109,-97,-94,-82,17,197
116,279,-64,-94,-125,-74,-67,-30,133,305
-100,40,10,2,2,19,17,16,120,212
-222,-136,66,86,88,63,14,-24,-22,62
-242,-122,61,75,77,35,-2,-39,-7,116
-266,-61,43,54,78,50,74,48,147,244
-60,132,25,20,46,37,94,87,163,261
264,280,34,-35,-19,-23,34,32,59,132
432,136,5,-69,-56,-42,-9,18,14,79
379,100,69,-100,-117,-100,-58,-31,-50,11
199,-16,106,-97,-142,-134,-87,-88,-136,-86
10,-78,103,-44,-82,-99,-55,-66,-129,-107
-187,-46,56,-19,-21,-25,14,19,-40,-36
-256,-301,-193,-50,11,35,104,111,60,17
-144,-144,-115,-46,24,28,71,82,51,20
-48,191,22,-67,-47,-52,-36,-25,24,83
-72,349,105,-42,-53,-65,-31,-10,55,166
-171,362,60,-17,-29,-13,17,53,98,161
-209,52,-39,-34,-21,4,3,64,100,125
-176,33,-79,-54,-37,-37,-65,28,85,113
-114,415,100,42,2,-45,-80,-32,16,39
-74,598,346,97,15,-33,-88,-81,-47,-25
0,665,433,62,-5,-51,-131,-85,-45,-35
10,396,259,31,-14,-31,-98,-77,-34,-16
-47,-152,-154,-72,-12,10,-38,-44,-21,-31
-39,-471,-436,-176,-22,47,19,55,48,18
-50,-553,-275,35,58,45,-27,4,7,-35
-29,-395,-35,181,123,55,-53,-50,-38,-88
11,-294,-77,97,107,76,11,-1,14,-65
74,-289,-150,24,84,77,77,48,104,56
184,-43,-47,17,48,26,51,1,84,127
235,194,121,59,55,-7,-22,-60,-4,82
89,124,184,92,72,14,-49,-49,-49,12
-46,-75,47,52,24,22,9,7,6,31
-155,-318,-176,-34,-16,14,57,34,37,37
-196,-223,-140,-81,-51,-6,57,-9,-3,-1
-84,36,-48,-114,-108,-67,18,-52,-26,3
-16,-5,-88,-130,-139,-81,6,-59,-32,7
33,-24,-155,-130,-120,-33,35,-7,-23,17
62,-17,-120,-131,-89,-1,106,104,0,29
-7,-36,-26,-31,0,51,111,112,-41,-53
-57,-17,79,71,48,72,44,23,-75,-97
-52,-34,62,57,24,51,20,-48,-70,-69
-42,-69,-16,3,3,45,40,-30,-13,-44
-42,-65,-16,-13,-12,30,49,-34,-2,-46
-49,0,44,5,-6,15,-2,-44,-35,-66
-33,80,89,41,7,14,-7,-14,-48,-67
1,164,20,46,21,37,21,38,-19,-41
53,205,-34,39,30,48,41,93,29,14
-5,7,90,55,52,44,42,70,22,-20
-1,2,196,87,56,19,-7,31,32,-6
76,270,278,107,60,13,-43,0,36,42
75,260,252,82,42,-5,-76,-27,3,15
71,155,101,32,16,-13,-101,-46,-42,-16
88,73,17,-6,4,-13,-51,-50,-58,-8
123,77,114,11,19,-34,-27,-43,-19,43
150,134,116,23,35,-33,21,-11,20,75
8,-116,33,16,47,9,92,39,22,16
-83,-224,-58,-28,-22,-27,42,-4,-17,-62
0,-107,-216,-145,-118,-72,-16,-20,10,-39
28,-167,-296,-173,-114,-61,-24,-3,18,-27
-2,-133,-180,-93,-42,-48,12,14,5,-55
56,-82,-224,-74,-5,-10,52,48,24,-8
83,-134,-342,-124,-11,5,57,81,57,55
19,-200,-314,-95,1,29,62,38,74,47
-128,-258,-103,56,92,76,73,-7,52,-9
-151,-177,27,84,111,88,89,1,27,-77
-59,-86,-27,19,54,57,73,6,-4,-143
58,83,-83,-8,33,47,51,-2,-37,-185
141,298,14,12,27,41,37,-45,-83,-195
179,399,180,42,15,9,-18,-90,-92,-171
201,306,188,70,15,-5,-35,-64,-57,-77
120,57,211,102,40,6,-27,-32,-19,9
33,-459,51,34,28,18,-24,35,67,158
87,-602,-215,-18,26,42,27,93,128,222
159,-285,-304,-69,-33,-12,7,26,46,97
140,105,-158,-107,-96,-98,-38,-61,-32,30
-24,283,80,-63,-70,-100,-63,-83,-57,-24
-153,339,165,-15,-40,-79,-111,-95,-72,-20
-141,265,195,40,4,-34,-115,-68,-2,132
-67,209,139,16,-7,-19,-95,-14,90,243
-69,-64,-102,-71,-32,-10,-75,37,134,234
-86,-152,-164,-88,-34,-21,-97,-22,43,127
-100,-114,-35,5,31,22,-56,-55,-41,2
-144,-199,-37,74,77,79,61,-28,-85,-112
-60,-134,11,79,62,74,120,0,-124,-179
95,-28,32,43,32,42,136,0,-125,-181
252,67,24,-1,3,18,101,1,-99,-131
331,260,29,-26,-21,-2,47,-20,-101,-137
313,336,185,26,-22,-9,21,-53,-140,-193
219,357,411,92,-23,-28,-19,-113,-194,-153
183,448,471,124,13,-20,-33,-109,-134,18
77,180,355,156,90,46,36,1,27,169
-119,-140,-54,92,81,62,82,69,126,183
-253,-206,-236,7,34,49,69,70,127,107
-263,-276,-171,-8,23,44,37,42,108,108
-308,-292,-185,-60,-25,-27,-11,13,132,157
-397,-292,-168,-42,-35,-33,5,24,113,79
-300,-49,19,-13,-49,-39,-20,7,73,19
-152,30,23,-27,-35,-17,29,69,94,47
-118,-214,-112,-41,-4,25,111,153,139,100
-121,-246,-155,-20,-15,15,76,126,111,75
-49,-207,-136,-45,-46,4,33,82,60,24
26,-72,-32,-67,-57,8,37,52,23,-4
57,128,69,-49,-57,-7,2,1,-1,-45
173,315,158,-1,-52,-59,-74,-78,-67,-93
238,368,229,55,-29,-79,-123,-122,-114,-95
188,181,194,61,7,-44,-104,-81,-44,11
27,-55,44,24,19,-27,-90,-44,10,59
-173,-208,-154,-11,9,-2,-46,-20,-22,-32
-226,-254,-190,-21,14,55,61,59,17,52
-278,-198,-43,-8,12,75,124,111,47,142
-244,-107,48,12,25,48,121,50,-57,-19
-95,-3,45,1,26,32,76,5,-123,-134
117,174,102,4,21,37,59,12,-100,-94
216,185,93,11,32,66,55,49,-44,5
195,77,45,21,39,91,60,68,14,45
122,-107,-33,-30,29,47,62,42,42,76
16,-209,-97,-57,-8,-8,18,-12,15,54
-71,-91,-63,-67,-10,-33,-58,-26,-129,2
-67,139,25,-44,-5,-46,-88,-28,-177,-11
-60,190,140,58,54,-1,-29,-27,-42,-49
-123,3,132,108,89,22,-1,-27,-70,-104
-96,-146,53,50,61,11,18,0,0,-3
12,60,123,43,16,-20,-14,-14,44,41
70,321,203,34,-45,-45,-73,23,64,28
35,369,167,-20,-94,-99,-167,-14,34,8
-27,154,77,0,-32,-46,-118,-54,49,41
-93,-352,-204,-49,-8,20,-1,1,103,74
-66,-223,-244,-86,-39,0,39,3,81,50
28,102,-97,-39,-24,-1,16,-5,42,3
73,139,-13,-3,11,16,18,7,43,7
33,9,-5,14,25,8,-11,-24,27,-23
30,18,-55,36,24,5,-25,-59,32,-38
11,-65,67,55,31,14,-18,-82,35,-71
-24,-197,96,50,40,6,-30,-61,37,-76
-21,-10,53,23,4,-12,-15,-47,-3,-74
-45,302,31,-15,-32,-36,17,-19,-85,-192
23,309,18,-38,-44,-19,49,9,-97,-208
89,-28,-90,-43,-19,13,67,58,-70,-163
118,-330,-235,-77,-8,28,29,84,-32,-128
114,-264,-192,-56,12,30,-41,78,21,-70
69,25,-62,-20,14,12,-120,22,27,-21
1,178,38,8,28,10,-105,-6,42,47
-68,207,67,18,13,14,-76,1,82,82
-116,15,-21,17,-13,7,-74,25,119,41
-34,22,-23,10,-20,-6,-63,27,111,29
35,5,28,8,-8,-7,-30,33,108,103
94,-42,12,-7,-17,-23,-26,9,77,87
142,-58,-20,-42,-55,-48,16,10,46,45
143,-201,-133,-92,-64,-38,90,55,70,73
-13,-397,-170,3,-12,7,103,61,21,-10
-98,-306,16,84,26,40,81,47,-58,-96
-56,-20,161,61,13,22,85,55,-41,-67
-10,45,112,62,24,38,71,68,20,65
15,60,85,95,26,6,-28,-33,-49,47
137,-56,-24,32,-10,-55,-90,-86,-82,40
268,-33,-117,-9,-1,-45,-73,-44,-48,85
242,171,-32,-16,16,-28,-44,1,-40,76
77,331,13,-27,7,-20,-39,-10,-76,-34
-121,320,90,-10,-3,-11,-37,-39,-126,-157
-179,316,254,41,1,-50,-65,-82,-121,-131
-187,350,375,86,16,-62,-95,-92,-100,-57
-141,249,351,98,32,-27,-65,-50,-68,-23
-77,-34,145,66,43,15,-31,18,17,4
-15,-227,-108,2,46,42,23,72,63,9
114,-148,-240,-61,22,36,57,67,36,-52
286,-81,-280,-108,-9,26,56,72,-3,-102
414,-46,-279,-179,-81,-28,0,22,-66,-128
458,62,-240,-252,-149,-84,-37,-28,-53,-70
281,42,-87,-110,-80,-69,-56,-54,-56,-11
-75,116,125,118,47,-49,-99,-137,-146,-67
-283,207,287,135,72,-3,-75,-83,-83,-111
-306,69,327,145,90,41,-22,4,-35,-141
-258,-61,228,122,75,43,-18,15,-34,-144
-184,-299,47,54,31,21,-16,14,11,-68
-64,-285,12,46,50,52,29,38,69,45
2,55,10,45,62,49,24,27,46,47
-22,-108,-202,-76,3,28,27,60,126,175
-121,-589,-465,-149,-5,71,95,161,263,289
-145,-641,-463,-107,34,123,128,204,273,225
-10,-317,-240,-80,2,58,33,139,212,151
228,84,-113,-120,-101,-78,-129,20,92,142
244,106,-31,-70,-115,-143,-203,-55,-17,138
112,-83,-38,-21,-69,-113,-162,-74,-52,166
-25,79,-15,-4,-24,-48,-51,-48,-54,124
-85,466,132,4,-12,2,26,-46,-103,-16
-39,458,191,13,-27,4,24,-34,-93,-63
-83,143,133,10,-31,7,8,-31,-86,-82
-92,-92,23,-5,-26,15,15,-2,-75,-84
22,153,26,-55,-88,-50,-54,-30,-61,25
88,536,272,-10,-94,-100,-130,-95,-67,100
39,754,599,144,0,-54,-132,-143,-131,15
21,588,702,224,67,9,-89,-138,-158,-66
-38,-203,318,176,110,85,25,-29,-23,10
-78,-769,-251,3,67,77,37,78,129,122
-105,-1001,-602,-125,25,74,87,143,193,182
-208,-645,-600,-165,1,89,154,129,129,85
-247,-165,-448,-158,-32,50,134,78,14,-55
-86,-15,-237,-118,-74,-24,73,16,0,21
81,-13,-140,-97,-83,-63,-15,-24,32,111
125,40,-111,-75,-58,-42,-35,-40,22,44
141,161,-42,-36,-44,-6,-3,-29,-5,-13
116,171,78,29,-15,17,30,-8,-7,-35
58,60,156,38,-33,14,10,-10,-8,-13
19,-166,103,43,-26,16,-24,2,6,33
12,-246,-44,53,33,56,68,53,55,11
35,-32,-216,-39,-8,35,143,47,37,-41
127,208,-187,-107,-80,-13,182,12,-2,-27
123,178,-55,-64,-60,8,233,60,89,44
35,130,8,-10,-23,21,177,86,120,39
-100,249,78,89,23,-4,26,1,-12,-98
-242,326,226,157,73,9,-50,-55,-93,-206
-252,49,183,121,52,-1,-70,-24,-40,-125
-167,-130,-27,17,-18,-37,-79,21,13,-14
-72,-90,-199,-41,-48,-77,-98,-25,-25,-26
-22,-127,-173,-40,-23,-89,-123,-70,-45,-14
-86,-199,-39,7,36,-17,-71,-51,-56,-33
-115,-202,13,49,89,47,-27,-42,-70,-51
-24,-26,51,12,45,6,-37,-30,-32,13
56,52,42,-7,1,-23,-52,4,15,51
120,-139,-57,-46,-27,-59,-69,-22,8,54
98,-115,-42,-53,-26,-51,-41,-37,-52,3
33,192,83,-5,14,-8,-7,-54,-88,-84
56,401,230,32,20,-34,-56,-85,-86,-77
85,412,308,74,22,-71,-125,-111,-59,-35
16,190,228,85,22,-39,-101,-72,-22,-12
-87,-244,-50,10,7,11,1,59,44,35
-72,-220,-61,-20,0,11,62,76,53,-15
15,131,168,20,6,-21,40,17,4,-50
36,168,153,31,12,-30,20,-1,4,-12
4,6,6,14,25,4,36,24,44,9
-97,-83,-96,-57,-15,15,31,51,37,-33
-176,-27,-87,-60,-43,-12,-7,-6,-47,-112
-151,-24,-32,-14,12,-6,-7,-2,-49,-97
-101,-270,-143,-46,42,46,63,83,29,-42
-34,-276,-156,-47,18,56,64,77,25,-71
90,-14,11,-11,-14,-9,-29,-41,-78,-174
124,32,30,29,7,-4,-21,-60,-76,-168
102,-76,-68,40,53,60,67,15,57,-39
85,-9,-150,-20,33,25,71,-2,63,-14
23,102,-114,-55,-15,-46,18,-37,43,30
-19,77,-13,-12,-13,-35,28,18,149,214
-23,103,62,22,15,-3,50,33,174,226
76,350,250,87,44,-8,21,-38,23,40
164,510,413,142,58,-41,-23,-73,-62,-58
192,563,509,178,58,-43,-50,-101,-118,-124
153,156,281,92,23,-18,-40,-96,-120,-138
164,-195,-58,-46,-47,-32,6,-4,-19,-30
164,-80,-208,-153,-81,-25,32,46,3,19
-96,-119,-284,-176,-77,-40,-13,-31,-82,-84
-166,-90,-191,-104,-70,-71,-60,-68,-73,-55
-49,-202,-194,-122,-57,-13,10,42,89,143
53,-273,-282,-161,-48,15,74,113,189,279
106,-75,-218,-82,-63,-18,51,69,140,242
19,131,85,-3,-79,-76,-16,-30,10,55
-134,258,347,187,27,-41,-72,-137,-142,-135
-186,289,511,256,90,-4,-39,-100,-102,-105
-233,50,384,201,112,62,71,52,44,-17
-245,-279,-78,39,75,76,108,122,105,-15
-171,-121,-248,-68,0,-8,13,20,-2,-130
70,324,38,-22,-12,-60,-91,-119,-128,-201
243,463,241,68,26,-34,-81,-119,-98,-100
134,27,89,66,34,-1,-31,-42,12,53
-153,-881,-528,-57,10,72,86,96,158,235
-191,-686,-583,-124,-24,69,113,129,206,295
-100,-213,-324,-135,-57,20,76,79,136,172
-42,-118,-172,-102,-45,14,67,67,88,70
-41,-81,-36,2,24,35,35,-8,4,-17
-13,-19,56,48,66,57,44,-19,2,13
22,122,131,77,85,69,69,45,43,93
-19,252,251,116,92,60,25,51,31,79
-56,385,302,107,58,28,-48,34,-6,47
-51,149,133,29,0,-7,-71,48,5,8
79,-77,-10,-27,-37,-18,-57,64,38,21
147,98,115,-15,-58,-57,-97,15,-23,13
66,238,302,37,-53,-93,-129,-44,-103,-86
15,178,332,49,-55,-91,-125,-39,-102,-59
23,-102,90,11,-27,-44,-69,18,4,127
-131,-106,-36,53,56,17,-27,25,5,103
-180,-16,-47,31,31,3,-70,-39,-43,-15
-134,-202,-233,-48,-6,20,-77,-51,-47,-14
-92,-405,-268,-20,46,73,-15,6,13,14
-53,-264,-187,-9,74,67,-29,23,65,43
-33,24,-69,-3,44,27,-74,4,50,38
21,167,218,80,34,-4,-100,-45,-20,-3
37,44,241,94,35,1,-59,-13,-20,-18
-25,-117,52,12,12,33,49,84,30,20
-44,286,108,-12,-21,11,77,63,-18,-63
-36,756,213,-15,-53,-45,17,-58,-127,-186
54,838,263,46,-30,-25,-28,-92,-160,-179
15,266,128,68,28,44,12,-33,-85,-96
-70,-259,-204,-48,2,48,31,7,-29,-46
-31,-486,-421,-144,-43,27,42,51,40,49
38,-651,-597,-201,-57,31,110,116,150,164
126,-350,-434,-163,-75,-17,82,85,116,107
261,4,-182,-104,-76,-94,-15,23,52,47
287,120,-53,-47,-58,-101,-64,-19,40,41
167,71,33,-7,-62,-93,-85,-65,-2,11
-12,-119,-26,-50,-91,-79,-55,-77,-16,-22
-117,-234,-46,-57,-85,-40,1,-75,-19,-65
-98,-246,-64,-59,-70,3,83,3,35,-16
-75,-277,-132,-59,-35,30,151,63,104,42
-111,-256,-70,-7,24,51,163,55,59,-21
-140,-83,69,74,91,65,153,18,-41,-131
-26,271,317,119,87,39,92,-36,-115,-164
41,539,506,201,102,35,-3,-103,-197,-228
66,726,516,220,98,29,-87,-154,-233,-276
50,285,285,129,87,41,-69,-100,-170,-212
-17,-594,-361,-37,74,112,41,70,29,-14
79,-460,-520,-150,5,66,36,73,94,130
154,-3,-184,-116,-27,-12,-18,-32,0,75
69,-16,-29,-55,-4,-10,-10,-66,-53,-7
-28,33,-54,-33,31,38,46,20,-5,29
-120,243,-28,-49,19,46,85,83,51,75
-91,157,-35,-47,0,18,47,102,65,52
36,11,-47,-55,-43,-55,-81,45,33,45
62,-147,8,-23,-55,-94,-122,-10,16,24
45,-99,90,1,-55,-96,-154,-50,11,15
66,86,128,-6,-67,-100,-158,-45,18,30
67,112,68,-30,-73,-77,-84,-16,0,12
21,-96,-46,-6,-27,-29,20,21,-30,-34
59,-148,-44,49,20,11,71,63,1,-25
161,200,197,137,69,30,71,61,8,-46
214,439,285,165,93,43,46,32,-53,-148
207,443,222,113,77,51,27,-31,-156,-288
232,1,13,-1,9,11,-18,-89,-175,-270
345,-57,17,-10,-8,-4,-30,-52,-32,-62
258,57,28,6,10,28,13,14,64,43
26,38,-150,-22,9,42,42,53,82,69
-190,-28,-272,-65,-22,22,37,51,91,91
-266,-315,-331,-129,-63,-17,25,42,96,109
-207,-410,-272,-137,-72,-43,20,27,143,235
-215,-345,-80,-42,-20,-14,40,27,161,272
-219,-299,45,34,23,20,44,23,88,112
-219,-229,19,43,39,42,72,53,75,47
-186,-15,-52,-16,7,38,57,41,41,0
-77,73,-60,-55,-20,14,19,10,-36,-78
113,61,-55,-85,-42,-18,-3,12,-43,-27
206,78,-58,-124,-72,-48,-10,18,-27,33
166,175,115,-10,-51,-58,-57,-66,-105,-30
40,322,317,106,-11,-75,-89,-101,-161,-130
-41,441,357,94,3,-57,-30,-65,-124,-96
-140,192,258,105,64,24,50,-33,-77,-38
-177,-332,-5,67,84,75,66,17,15,16
-100,-519,-162,26,77,65,11,31,20,19
-52,-359,-146,40,97,59,-9,64,3,50
49,-95,-90,-15,18,-12,-55,10,14,141
178,72,-29,-30,-12,-33,-74,-19,29,179
303,168,43,-5,4,-39,-67,-19,24,194
270,88,45,-13,6,-39,-56,-7,18,180
68,-131,4,46,60,12,2,19,-8,27
-25,-151,62,111,91,42,62,15,-38,-104
71,90,79,44,46,38,60,16,13,-49
122,445,172,-4,-38,-6,-23,-36,-9,-67
40,604,452,124,-30,-9,-11,-58,-87,-169
-92,146,255,101,-6,14,98,18,-14,-167
-146,-195,-116,-13,-15,15,140,56,79,-40
-125,-40,-124,-84,-47,-12,135,52,94,21
-38,53,-149,-144,-95,-33,85,17,80,5
-34,225,-1,-59,-69,-50,-6,-56,-4,-66
-130,319,241,87,11,-36,-67,-129,-83,-150
-130,326,307,135,54,1,-48,-94,-23,-38
-72,323,236,117,57,29,-14,-41,60,59
4,-101,-102,15,44,50,45,86,170,132
-11,-596,-376,-76,2,35,35,115,188,117
14,-681,-410,-118,-42,-18,-56,12,62,-10
121,-491,-386,-126,-55,-46,-88,-37,-18,-58
166,-221,-253,-100,-51,-70,-118,-75,-77,-82
185,-104,-156,-76,-52,-54,-134,-88,-70,-43
189,-18,-89,-70,-51,-54,-112,-99,-62,16
83,20,-67,-63,-35,-15,-28,-51,-60,37
-161,55,30,-11,3,34,55,3,-39,-19
-337,50,52,48,17,57,103,105,57,5
-317,-2,47,53,10,45,100,141,94,16
-175,-122,83,33,-32,-18,45,40,0,-36
39,-91,50,-31,-84,-76,5,-7,-44,-33
265,69,56,-95,-131,-78,-12,10,-11,63
308,179,67,-3,-61,-63,-63,-16,-36,24
203,-13,2,95,54,22,-29,7,-33,-31
47,-157,34,147,122,74,33,43,-23,-23
-88,-254,106,193,170,92,67,19,-24,25
-209,-377,1,125,128,83,97,35,18,101
-274,-132,-64,51,62,53,90,31,25,44
-150,370,-3,3,5,-21,9,-37,-49,-83
-93,285,-30,-28,-35,-57,-68,-82,-93,-158
-88,109,-33,-2,2,-11,-35,-33,-57,-173
-60,56,-41,7,27,8,-5,-19,-56,-143
-4,35,-73,-28,1,-26,-2,-43,-47,-78
0,-31,-5,-26,12,-16,8,-36,-46,-75
13,-53,64,18,29,-17,-11,-68,-57,-54
57,50,146,46,20,-53,-53,-104,-64,-42
101,145,213,72,16,-13,-64,-33,-31,12
49,104,178,60,8,28,-4,79,65,124
29,273,174,39,-37,-28,-48,17,87,145
104,624,353,84,-43,-88,-166,-116,0,93
163,723,468,103,-37,-83,-172,-129,3,67
96,189,181,23,-55,-39,-48,-31,80,70
120,-10,-49,-53,-63,14,82,86,169,157
105,-192,-152,-103,-92,-18,67,75,145,154
-6,-677,-554,-142,-83,-16,43,71,118,78
-111,-536,-620,-160,-73,2,36,59,59,-1
-186,-275,-227,-75,-29,41,43,39,-27,-111
-159,-69,-16,-23,22,90,110,68,-46,-123
-100,59,1,-20,32,103,154,62,-36,-90
6,74,25,18,20,55,63,-6,-86,-83
123,-94,-154,8,-16,6,-69,-40,-118,-70
142,-106,-276,-46,-32,0,-85,-2,-96,-44
60,-179,-175,-65,-42,-41,-104,-38,-121,-111
-62,-314,-144,-36,-2,1,-36,-2,-155,-199
-60,-240,-123,-60,-38,11,-9,40,-131,-141
51,59,-41,-110,-106,-76,-96,-8,-110,-101
167,104,-12,-76,-84,-70,-104,-21,-78,-73
233,28,-63,-27,-56,-48,-72,-47,-38,-9
226,12,-54,0,-46,-32,-29,-68,-50,-39
262,73,103,42,6,21,33,-18,-65,-79
188,175,244,94,55,34,46,60,8,54
125,294,258,103,48,2,-1,54,64,204
-8,141,118,59,44,-25,-28,18,55,156
-173,2,91,46,74,24,5,31,56,91
-225,-3,105,17,58,26,29,10,63,116
-200,296,218,24,28,-3,-10,-38,28,22
98,692,522,105,17,-60,-101,-122,-65,-76
252,637,576,152,13,-48,-120,-124,-60,-35
249,447,471,149,39,-2,-40,-28,40,163
14,-392,-90,32,69,68,132,109,142,240
-252,-904,-679,-180,-9,74,191,143,150,151
-186,-417,-518,-231,-67,6,85,95,116,121
-181,-115,-199,-106,-22,-6,13,34,71,87
-221,-48,-11,22,30,31,-1,24,15,-33
-110,-49,-21,-20,-4,20,-21,34,35,0
-28,-53,-9,15,-2,0,-47,-19,40,16
22,-77,76,89,34,7,-34,-43,45,-17
60,-24,233,151,76,40,43,-49,46,-47
31,-161,211,151,89,87,147,-11,51,-1
-22,-413,42,82,81,142,260,79,111,58
-130,-456,-178,15,66,162,319,142,134,66
-296,-223,-206,22,38,102,240,94,97,32
-188,54,-180,-70,-69,-15,123,65,78,71
62,331,-101,-116,-132,-91,4,34,46,124
115,387,55,-36,-66,-57,-51,26,11,69
148,480,167,29,-12,-33,-60,7,-53,-65
116,266,79,16,-21,-47,-92,-58,-123,-166
-4,-6,-121,-43,-32,-34,-115,-66,-137,-202
-48,-5,-74,-38,18,11,-95,-21,-130,-222
-132,-250,-144,0,35,-8,-111,-18,-81,-137
-34,-273,-143,-13,-17,-91,-173,-58,-5,139
-3,-205,-61,-24,-34,-111,-183,-86,-9,182
-41,-140,25,6,4,-77,-147,-67,-41,38
-72,-43,91,41,32,-12,-85,-10,-18,-11
-76,69,70,21,25,14,-18,37,-9,-19
-29,105,10,-38,-29,-33,-18,1,-59,-24
-17,-278,-102,-67,-41,-13,13,-24,-106,-109
17,-216,-97,-33,-4,23,38,-30,-152,-203
83,184,30,14,23,22,46,-70,-163,-184
134,306,32,-1,-9,-32,55,-73,-84,-10
75,208,31,-5,-18,-40,70,-24,6,86
31,102,18,-26,-5,-34,43,23,102,140
15,181,67,-18,15,-54,-6,58,191,201
27,215,140,30,38,-39,-29,44,161,182
86,163,175,37,9,-67,-59,-16,82,156
108,138,183,46,15,-25,-63,-32,63,155
49,217,161,66,49,34,-79,-58,3,85
-3,355,200,91,72,78,-48,-72,-44,3
-94,121,49,67,102,135,11,-18,-16,-51
-139,-282,-171,10,105,116,10,46,51,-57
28,-36,-76,1,62,43,-96,-2,46,15
153,199,91,33,34,10,-114,2,28,60
32,177,184,105,65,47,-19,3,-22,-50
-75,-62,26,102,87,87,108,38,22,-49
-183,-444,-170,74,108,112,191,122,106,-25
-259,-625,-111,50,75,91,163,95,48,-115
-108,-439,-41,-13,-18,22,155,59,3,-134
234,-118,-78,-123,-129,-51,166,56,14,-45
416,80,-127,-204,-187,-75,143,81,42,56
391,310,-130,-207,-178,-72,106,41,20,44
106,135,-64,-79,-100,-72,31,-78,-107,-120
-281,-433,-197,-22,-30,-35,11,-80,-129,-116
-427,-315,-263,-70,-48,-41,12,-20,-28,43
-370,-33,-95,-19,-22,-25,25,8,-2,10
-203,0,-57,32,17,12,8,14,-17,-37
-85,75,-55,55,40,41,-12,58,-5,-32
-30,102,-42,53,52,57,-21,63,-12,-30
-11,65,43,45,34,31,-26,11,-37,-16
-58,-43,17,29,30,28,-1,-3,-24,12
-100,-151,-29,14,22,33,-4,-12,-19,-16
-11,92,45,-5,-12,-2,-69,-48,-20,-1
27,334,205,43,-5,-24,-117,-85,-54,-59
12,264,237,74,13,-36,-144,-123,-84,-116
16,105,166,61,20,-25,-149,-108,-54,-104
26,-30,98,43,18,-11,-117,-80,4,-59
60,-87,105,14,-3,-44,-89,-59,45,57
88,-208,22,-19,-32,-69,-73,-50,84,182
18,-360,-257,-53,-19,-13,59,32,129,212
-69,-107,-336,-74,-8,14,151,45,109,121
-142,-78,-216,-73,1,28,165,36,82,16
-70,-89,-161,-74,-5,18,93,48,62,-48
11,0,-104,-49,-12,-3,78,53,39,-75
35,131,23,-23,-30,-18,69,28,-10,-82
76,306,122,-42,-64,-65,3,-14,-38,-70
110,289,85,-47,-43,-45,-6,19,-10,-34
149,142,34,17,29,42,43,70,26,9
165,127,120,102,117,91,65,35,12,7
205,103,183,121,121,81,53,5,1,4
410,212,218,37,11,2,0,9,-1,45
585,274,255,-38,-76,-42,-24,0,-9,81
382,281,320,72,10,-16,-35,-49,-111,-81
139,512,404,170,103,8,-93,-139,-232,-247
27,46,89,14,34,-9,-91,-111,-126,-103
-165,-631,-297,-50,25,27,-14,1,42,85
-348,-547,-305,-10,53,40,4,29,88,101
-386,-323,-215,-15,10,1,-57,-21,26,-9
-318,-243,-189,-23,5,11,-57,30,60,-3
-123,-126,-184,-37,5,7,-74,48,81,103
19,64,-107,-71,-31,-21,-93,18,64,174
-18,57,-22,-45,-15,-10,-69,27,69,131
-81,174,130,27,5,-14,-76,-12,12,42
-145,301,284,102,31,-2,-58,-60,-93,-75
-102,374,285,112,17,12,-11,-68,-119,-141
26,373,205,88,-14,19,17,-40,-85,-102
72,36,117,60,-8,50,76,3,-13,-41
23,-306,-29,39,36,76,131,12,-6,-70
23,-347,-70,12,41,54,80,-30,-68,-48
108,-345,-167,-39,16,15,19,-36,-30,88
90,-48,-181,-81,-17,-7,-17,-29,-8,60
25,-52,-258,-133,-44,-7,-50,-9,-1,-6
15,-173,-196,-64,0,34,-70,4,3,-47
-1,-78,-1,57,72,58,-74,-24,-56,-133
4,186,150,40,45,40,-93,-65,-110,-181
-14,411,243,52,32,39,-45,-48,-116,-173
-58,234,157,68,11,34,74,22,-2,10
-86,-113,-40,9,19,58,246,116,152,163
-143,-411,-173,4,52,82,261,136,127,58
-84,-443,-160,-9,10,43,130,113,63,0
129,193,0,-62,-100,-82,-50,10,26,67
81,411,131,-55,-131,-140,-123,-107,-47,-14
-32,157,134,-5,-63,-87,-88,-101,-42,-43
-71,30,45,15,-20,-33,-47,-35,38,54
-160,-49,-137,-24,-19,0,7,41,101,119
-165,-115,-223,-96,-68,-15,24,67,120,68
-50,-157,-164,-92,-70,-40,21,49,62,-5
19,-256,-93,-48,-22,-35,20,44,-10,-65
33,-224,-72,-63,-29,-37,3,41,-5,-44
9,-15,-13,-76,-28,-19,6,65,50,62
-40,263,92,9,3,11,6,58,53,134
19,398,209,101,25,-25,-56,-7,-18,92
73,326,198,81,6,-55,-96,-62,-92,51
-58,-16,26,25,15,-5,-61,-66,-109,-27
-126,-308,-224,-61,-2,22,-29,-15,-54,-23
-12,-136,-226,-87,-41,-26,-62,-17,-48,21
68,-116,-197,-77,-55,-66,-69,-40,-41,60
3,-191,-175,-68,-26,-9,15,41,24,94
-118,-120,-61,-22,0,21,26,66,-15,-41
-49,27,-21,-5,-2,-12,-46,-1,-72,-90
28,113,-42,-3,-8,-32,-74,-47,-41,26
-43,162,-77,4,-5,-31,-48,-67,1,72
-140,172,-75,4,-6,-12,-22,-6,68,84
-53,131,-22,-33,-41,-56,-22,20,116,158
-19,51,111,0,-5,-51,-21,-37,36,83
-94,-153,123,58,73,43,59,20,18,-10
-89,-132,129,83,83,73,79,52,30,-32
26,33,166,57,36,33,27,32,47,8
123,156,196,48,47,48,31,32,67,32
46,58,133,43,76,76,68,22,31,-11
-108,-298,12,33,104,100,102,62,12,-58
-148,-454,-128,-21,55,75,77,64,39,-38
-45,-189,-164,-52,10,29,85,77,75,13
123,204,-25,-40,-16,-13,41,46,39,29
199,360,25,-62,-64,-77,-37,-51,0,16
98,168,85,-15,-22,-51,-32,-73,-26,-31
-40,-5,109,57,58,18,4,-71,-56,-109
-61,-97,-17,40,52,37,13,-21,-9,-80
-83,-101,-64,26,58,80,66,19,30,-33
-91,-62,-16,20,55,94,70,44,42,16
-76,-18,-13,-1,23,50,48,78,49,32
-23,-9,-4,-25,-21,0,8,41,33,-3
5,-33,0,-46,-63,-3,-13,31,32,0
-21,-57,16,-17,-44,12,-28,6,-4,-50
-52,-77,-13,6,-22,24,-25,-8,-53,-119
-49,-84,-2,-9,-35,6,-34,-10,-76,-135
-29,-18,22,-15,-39,-12,-45,-26,-66,-139
-3,113,56,4,-31,-9,-27,-28,-70,-136
50,203,92,14,-24,-19,-5,-38,-77,-109
124,174,109,17,-16,-47,-45,-64,-80,-44
165,69,36,36,-1,-41,-82,-68,-70,56
156,-19,75,44,28,-6,-81,-57,-15,103
198,-1,80,22,28,20,-87,-50,11,74
284,41,140,55,34,20,-104,-80,-44,17
256,-28,119,52,25,17,-65,-57,-63,16
149,-83,79,13,1,-1,-28,-37,-47,19
43,-93,93,27,12,0,26,3,-6,-9
-85,-3,63,56,49,38,117,58,13,-91
-115,202,-14,47,56,50,135,45,-4,-140
2,110,-96,-20,1,12,89,27,27,-70
116,-17,-100,1,12,14,75,12,18,-32
62,-45,-69,53,48,26,64,-19,5,-22
-64,-72,-94,1,10,8,1,-27,29,51
-124,-15,-96,-59,-52,-30,-48,-42,60,178
-162,22,-67,-64,-58,-35,-30,-17,45,129
-125,42,12,-16,-38,-14,5,20,30,-6
-42,111,70,14,-23,20,26,55,33,-78
-12,118,57,0,-30,48,35,66,64,-67
-56,-100,-14,-28,-39,40,23,39,55,-26
-125,-57,-22,-37,-47,26,12,20,44,-36
-117,251,67,-61,-72,0,11,25,87,-42
-12,309,132,-81,-91,-41,-17,-37,67,-1
109,286,153,5,-57,-75,-40,-121,-42,-20
234,204,137,72,-1,-40,3,-64,-39,-50
251,-118,15,44,34,38,108,83,85,22
127,-212,-43,-26,-2,28,102,97,82,51
18,-52,100,-24,-51,-45,10,-15,-22,44
-129,-15,253,99,13,2,32,-7,-39,-4
-132,125,345,192,87,57,75,6,-43,-81
-100,-264,31,151,136,162,181,131,57,17
-194,-662,-582,-104,41,145,197,216,144,69
-39,-125,-523,-240,-120,-37,3,71,56,43
149,249,-227,-150,-118,-94,-113,-41,-39,76
201,59,-114,-40,-14,-14,-74,-50,-85,-10
209,-63,-87,-17,30,22,-15,-8,-33,34
128,-110,-50,-22,6,-8,-32,-18,0,127
-11,-87,-98,-48,-25,-32,-59,-60,-43,111
-41,57,-125,-73,-45,-41,-63,-74,-25,129
-56,-113,-115,-72,-58,-47,-51,-40,73,245
-159,-83,-28,-33,-46,-52,-42,-2,105,225
-157,-61,-5,4,-8,-36,-51,16,88,146
-98,-74,-35,-13,-15,-38,-63,20,46,84
-81,-28,-93,-93,-49,-39,-45,21,28,46
-94,-47,-110,-112,-56,-23,-50,-1,-11,-4
-127,-89,18,29,-27,-41,-113,-82,-106,-115
-50,-96,61,50,-26,-48,-107,-98,-114,-139
116,-18,28,-16,-71,-90,-105,-75,-94,-133
293,46,-10,-87,-123,-128,-113,-65,-67,-102
456,48,-52,-97,-128,-159,-116,-89,-51,-41
365,0,-23,-15,-40,-87,-50,-66,-53,-78
130,-21,57,63,52,26,66,-17,-74,-152
-66,37,151,107,88,70,128,-4,-83,-156
-237,241,278,162,114,95,122,0,-77,-113
-391,360,351,199,143,124,88,15,-24,2
-426,319,277,150,119,95,78,72,112,59
-132,-94,-10,6,41,19,25,62,111,121
156,-261,-180,-76,-23,-60,-99,14,-117,168
262,146,-17,-20,-48,-105,-101,-53,-55,60
204,322,140,31,-37,-89,-65,-70,-25,-9
97,482,400,108,-2,-48,-47,-47,-31,-24
58,447,503,120,18,-12,-2,19,28,53
35,14,173,0,10,27,64,141,159,134
-19,18,18,45,55,39,34,82,45,-67
-74,-97,-190,39,84,55,30,24,-21,-150
-205,-744,-496,-80,45,67,69,60,96,3
-293,-671,-438,-107,6,76,82,73,136,36
-251,-280,-283,-99,-13,57,105,95,151,90
-197,-237,-190,-10,28,68,102,74,119,111
-142,-204,-131,57,62,64,59,23,56,53
-61,-145,-98,8,19,8,22,-6,39,59
22,-17,-82,-48,-21,-47,-53,-27,31,64
73,0,-30,-63,-21,-55,-70,-25,-9,32
135,34,-3,-74,-35,-62,-65,-23,-26,13
139,79,83,-34,-35,-89,-79,-48,-66,-21
44,32,123,13,-11,-78,-72,-47,-79,-32
2,41,61,7,-4,-38,-62,-8,-42,-18
15,114,24,4,-2,-29,-16,10,-71,-44
5,38,25,13,8,-24,12,-23,-98,-37
-39,-13,94,30,11,-24,14,-33,-89,25
-81,72,128,21,-2,-43,7,-25,-74,25
-38,52,57,-7,-22,-38,26,0,-34,17
28,-46,29,6,-12,0,44,5,-12,1
120,-78,105,54,6,10,30,-9,43,34
172,-2,222,90,6,-2,-1,10,76,35
172,266,272,64,-14,-30,-53,10,49,-8
130,502,131,-8,-35,-19,-68,-29,-3,-78
28,55,-232,-127,-48,20,-15,22,-13,-69
32,-324,-417,-149,-56,12,-20,47,4,-9
60,-254,-268,-84,-53,-24,-59,-17,-38,0
22,-157,-157,-55,-20,-7,-32,-25,-43,13
-65,-119,-88,-12,22,16,-6,-27,-57,-41
-54,-84,-73,17,51,37,5,-38,-89,-105
39,-65,-85,15,65,51,22,-13,-101,-145
198,-30,-56,-23,44,31,26,9,-51,-41
227,33,22,1,44,28,19,-12,-53,-24
141,90,134,61,66,24,-25,-54,-103,-131
47,121,169,45,39,-11,-57,-33,-45,-57
26,178,187,14,22,-27,-59,-5,55,182
-68,271,224,30,27,-18,-50,-29,52,216
-123,292,276,64,22,-8,-36,-57,-30,54
-93,152,160,53,13,-4,-49,-46,-43,0
-77,103,54,40,27,18,-33,-21,0,13
-136,-319,-161,-30,20,38,45,55,73,61
-44,-570,-340,-120,-56,-8,35,61,93,90
148,-178,-261,-135,-97,-39,-16,-2,12,29
274,-30,-167,-88,-69,-10,-24,-45,-81,-105
358,-78,-69,-33,-44,-20,-55,-72,-111,-170
378,-101,-25,-15,-49,-56,-121,-104,-100,-114
261,-85,15,39,-7,-5,-101,-89,-58,-59
6,67,110,95,54,49,-20,-41,-19,-47
-96,277,165,70,38,49,36,4,71,63
-33,438,224,60,13,45,58,50,142,266
-188,449,224,96,64,86,115,94,126,184
-346,-98,-150,28,82,104,124,107,69,13
-319,-502,-428,5,97,122,133,132,80,-51
-119,-160,-203,50,79,81,94,62,26,-61
24,86,45,20,-2,-14,20,-3,-32,-53
22,57,99,4,-26,-50,-4,-4,-43,-42
10,-29,12,-10,-33,-49,-21,0,0,77
-97,-110,-123,-56,-50,-22,-15,10,64,161
-161,39,-51,-42,-54,-36,-42,-26,31,78
-95,162,44,10,-21,-54,-53,-20,62,115
-116,39,52,37,13,-21,-24,16,77,96
-81,85,146,33,7,-10,-13,-52,-59,-55
24,407,274,35,-18,-12,0,-90,-150,-130
41,379,270,6,-25,-7,12,-51,-121,-91
-30,-178,32,-54,-24,16,18,3,-15,24
-136,-640,-105,-28,26,60,32,42,56,180
-149,-311,-64,-28,13,54,35,57,58,177
-24,141,44,-45,-55,-15,-23,31,25,76
39,-67,-120,-104,-93,-21,1,101,84,92
22,-165,-325,-178,-106,-25,10,132,134,148
-47,-129,-224,-83,-34,-7,-3,33,-8,3
2,-76,-151,-71,-4,26,74,8,-51,-37
146,-89,-159,-70,-14,15,67,29,9,79
182,-53,-153,10,-6,-11,-19,-1,-20,52
146,66,-164,2,-11,-16,-44,0,-44,-56
84,105,-18,18,-3,-12,-68,-36,-92,-168
16,87,114,48,26,-10,-60,-52,-91,-206
-19,7,122,62,50,12,-40,-45,-60,-212
-115,-188,38,54,81,47,4,-4,-2,-181
-215,-199,0,51,81,56,38,41,46,-82
-242,-132,34,53,52,48,50,44,85,26
-217,-146,30,37,35,42,94,69,109,74
-99,-25,89,50,30,48,85,63,71,45
43,110,124,49,2,39,64,52,59,61
96,219,159,44,0,29,65,19,58,86
41,141,105,19,-7,32,36,-11,49,43
4,154,77,13,4,59,48,-11,11,-26
-27,137,86,38,26,65,57,8,2,-71
-83,-101,-132,11,15,54,33,29,11,-90
-40,-224,-246,-31,5,48,11,51,27,-67
98,-143,-103,-53,-27,12,-31,23,6,5
166,19,5,-49,-42,-22,-77,-36,-41,-7
140,197,94,-18,-27,-73,-116,-80,-97,-101
96,239,141,13,2,-83,-126,-66,-63,-96
-46,44,60,15,24,-39,-93,-12,-3,-67
-132,-12,41,-14,-8,-68,-145,-39,-1,-68
-123,86,114,-9,-20,-89,-145,-88,-59,-89
84,398,217,22,-42,-89,-136,-94,-60,60
185,544,296,64,-48,-111,-123,-89,-25,160
119,329,266,54,-30,-85,-92,-46,-22,86
31,-266,-48,-3,-11,-29,-27,30,12,69
-58,-741,-295,-36,52,75,84,117,71,72
-107,-618,-306,-55,72,112,121,124,24,-8
-52,-265,-301,-97,32,62,69,72,-36,-70
42,-34,-309,-157,-49,1,0,0,-104,-147
91,20,-226,-157,-73,-9,-13,-19,-147,-198
119,57,-16,-6,-15,-7,-16,-78,-211,-282
154,55,45,17,-7,-34,8,-95,-164,-241
123,10,22,1,8,-21,57,-56,-92,-140
153,-18,6,-18,6,-18,49,-35,-62,-19
147,3,50,10,16,-9,28,-4,8,117
11,82,141,70,62,12,32,19,44,58
-64,169,207,91,81,14,-14,5,12,-16
-10,193,222,78,57,-15,-95,-41,0,-9
164,93,87,22,4,-53,-110,-59,5,7
311,-138,-150,-58,-63,-49,-61,9,69,49
311,-144,-187,-72,-73,-31,-66,19,72,41
140,-13,-34,-16,-48,-63,-104,-60,-39,-91
-77,-69,27,8,-51,-68,-93,-77,-54,-47
-337,-144,42,-8,-53,-21,-6,46,113,206
-389,106,120,-31,-69,-2,38,165,258,318
-137,535,196,-1,-75,-21,16,110,173,213
-5,612,194,81,21,2,35,7,40,79
-70,299,137,141,116,68,94,-4,17,19
-168,-354,-166,39,83,68,144,66,101,61
-166,-697,-361,-104,-4,35,101,106,144,92
-136,-352,-142,-51,-6,27,40,61,78,23
-115,-58,81,29,39,33,18,3,-32,-42
-84,-41,55,17,10,-4,-10,-53,-103,-92
-22,10,-1,-45,-66,-62,-53,-68,-98,-65
54,44,41,-33,-70,-76,-41,-22,-37,24
65,20,57,-10,-35,-45,-7,24,1,59
41,-28,20,-22,-27,-45,-49,25,3,45
-42,-115,-1,-48,-29,-61,-86,12,0,30
-159,-9,68,-31,-9,-54,-59,19,14,-19
-134,205,168,20,19,-20,5,11,0,-86
-58,282,119,62,45,18,48,3,-15,-79
-16,163,-10,58,43,39,59,16,-6,-46
46,59,-1,28,14,52,90,29,4,-12
101,215,128,63,42,56,86,-30,-42,-64
162,191,23,2,24,24,63,-34,-14,-46
84,-246,-344,-125,-48,12,62,2,37,-13
54,-395,-370,-99,-40,28,35,-26,10,-25
58,-313,-203,-26,-17,35,8,-6,19,20
-7,-309,-141,-33,-22,15,0,-5,29,48
-42,-160,-57,-30,-20,-16,-44,-33,9,14
-90,-125,18,13,-3,-22,-73,-3,52,48
-126,-147,27,57,38,8,-42,22,88,77
-120,63,37,41,33,30,11,29,61,54
-40,260,117,8,-22,9,72,5,53,32
38,275,147,9,-38,7,120,14,37,49
95,252,83,24,-31,0,76,5,30,61
76,115,21,42,-1,22,34,9,27,50
43,112,59,11,-17,19,27,-1,-9,-4
20,149,85,14,-19,-7,8,-45,-45,-57
21,32,52,42,9,-19,-2,-76,-83,-127
57,-136,-69,24,15,-4,8,-58,-102,-134
89,-63,-18,-20,7,23,33,88,-25,-62
123,-14,-6,-63,-27,15,12,111,65,92
-46,-109,39,36,20,24,-28,10,19,42
-172,-7,59,144,78,57,-34,-28,-24,-37
-38,93,51,97,48,43,-24,26,42,118
63,133,89,68,30,21,-20,34,38,111
122,171,30,28,1,-4,-38,0,-17,40
86,-101,-113,-39,-25,-15,-40,22,-21,28
52,0,-102,-42,-38,-39,-60,-26,-52,25
-29,115,-24,10,-35,-51,-92,-95,-80,-33
-112,211,116,19,-40,-29,-89,-105,-118,-127
-95,149,175,21,-32,-14,-27,-64,-105,-100
4,-148,80,32,8,27,85,27,8,36
79,-314,-41,7,15,39,134,70,77,106
133,-296,-77,-3,18,34,113,74,75,90
131,-60,-35,-6,15,16,76,47,49,23
87,177,-11,-15,-3,-2,36,12,40,12
65,394,28,-66,-48,-32,-14,-9,58,35
-11,256,5,-73,-29,-8,-22,-7,47,-27
-142,-360,-155,-9,17,4,-28,-50,-14,-105
-83,-373,-236,-18,-17,-31,-57,-75,-44,-138
52,33,-64,-40,-53,-72,-54,-92,-87,-142
216,278,69,-19,-53,-63,-17,-75,-79,-57
246,298,208,28,-24,-28,-4,-55,-53,-24
142,69,245,65,25,20,59,-15,-10,-46
31,-340,67,78,71,81,145,73,63,-26
-51,-589,-226,-49,21,78,166,160,160,92
-43,-226,-311,-142,-64,-5,51,81,105,97
-39,107,-168,-57,-16,-2,-3,-33,-56,-95
0,14,-38,11,48,49,67,-38,-107,-145
137,-9,-11,0,35,34,81,-25,-75,-74
109,-26,0,8,29,17,25,13,-35,-50
-18,-21,16,29,48,39,16,31,-72,-147
-63,25,-45,-1,30,33,7,7,-157,-251
-58,102,-59,-42,-9,-7,-24,-37,-123,-86
-65,185,41,-29,-16,-30,-21,-44,-17,136
-168,208,144,22,-1,-44,-39,-54,8,77
-93,243,171,26,-8,-52,-85,-80,-48,-35
-23,165,139,15,-3,-42,-79,-92,-65,-66
-70,-183,-1,12,8,-22,-77,-75,-15,31
-76,-221,-25,34,39,3,-61,-28,31,135
-49,27,155,99,87,17,-38,-1,52,138
-46,320,393,174,113,36,-22,6,48,131
5,424,447,200,116,41,-42,26,44,108
64,25,126,101,78,30,-5,83,69,128
23,-335,-222,-22,43,61,86,116,94,141
-132,-279,-258,-29,54,92,116,102,73,30
-213,-309,-241,-37,31,49,50,34,25,-86
-50,-226,-284,-130,-82,-37,-61,-30,46,40
99,68,-166,-147,-102,-82,-109,-62,33,85
84,90,-23,-52,-24,-43,-77,-61,-19,-18
-15,35,35,2,7,-10,-68,-51,-36,-66
-119,104,104,26,2,-10,-76,-12,26,1
-176,125,156,45,32,31,-10,99,134,49
-190,-4,121,53,53,42,25,89,135,5
-115,-107,11,4,9,-4,7,10,102,12
-84,-117,-144,-49,-52,-56,-28,-45,55,-9
-91,-109,-202,-52,-71,-70,-56,-78,-25,-71
-47,51,-11,-24,-63,-47,-4,-92,-67,-96
20,130,66,-14,-67,-45,54,-55,-54,-42
0,-116,-46,7,-13,29,135,75,-11,-19
-6,-235,-225,-7,2,71,112,164,53,-4
28,-49,-152,-25,-13,8,16,76,30,-4
33,56,-2,-4,-13,-28,-46,-20,-48,-58
25,104,67,15,-2,-38,-84,-73,-114,-112
-7,91,78,20,-19,-48,-88,-74,-115,-83
55,38,4,-23,-57,-56,-28,-4,-44,98
115,81,69,-17,-44,-36,62,87,13,177
39,-29,-25,-66,-26,16,133,157,61,120
-32,-228,-190,-85,-8,36,151,130,41,82
-25,-99,-117,37,31,24,74,9,-60,-4
33,132,0,64,53,30,31,-11,-75,-32
27,199,147,90,62,32,-16,-43,-67,-39
35,252,309,107,46,3,-114,-116,-89,-62
75,170,267,75,13,-21,-179,-160,-95,-42
47,-53,125,31,2,6,-138,-88,-53,-10
-21,-232,-3,3,15,45,-37,26,0,-14
-18,-167,-8,10,26,52,28,60,26,-7
-16,-220,-30,22,54,80,134,78,62,39
-38,-240,-42,15,63,82,189,76,47,52
-10,-140,-37,-6,22,29,136,23,0,7
53,125,5,-11,0,9,106,14,-7,31
67,163,27,9,21,35,109,63,31,49
0,-15,-121,-33,4,36,87,147,63,20
0,-33,-210,-42,2,27,94,136,45,-23
52,40,-43,0,32,23,88,106,19,-55
85,165,67,11,21,10,73,56,10,-51
76,234,124,2,-15,-1,34,-18,-13,-69
39,208,121,-2,-23,9,39,-20,4,-50
41,107,87,1,-2,10,15,-26,43,33
-9,-137,10,37,43,18,-58,-58,2,31
-27,-207,-26,53,68,35,-108,-86,-50,-12
23,0,5,9,16,-6,-153,-115,-62,-30
13,51,17,-13,-32,-31,-139,-121,-66,-32
-12,-82,-4,-26,-37,-15,-74,-127,-71,-30
-7,-36,-13,-41,-43,-3,0,-93,-81,-13
18,42,31,-30,-35,0,89,-29,-50,18
71,96,51,-22,-40,0,143,69,1,54
60,82,5,-26,-32,20,129,121,15,35
60,54,-90,-80,-55,12,109,113,33,3
88,136,8,-76,-68,-10,64,38,-15,-37
84,252,154,36,3,1,-11,-73,-89,-88
143,324,258,149,65,0,-104,-134,-128,-102
233,345,271,108,35,-23,-108,-84,-69,-11
243,150,20,-31,-27,-37,-41,51,79,131
149,20,-102,-81,-46,-46,-45,62,78,133
128,8,23,-17,-22,-58,-114,-94,-57,15
188,97,198,56,-1,-56,-144,-168,-129,-44
91,110,236,99,14,-41,-103,-114,-107,-79
24,125,126,35,-18,-54,-84,-75,-97,-174
62,-48,-154,-100,-98,-89,-85,-64,-80,-129
-96,-510,-388,-155,-89,-53,-23,32,37,44
-285,-537,-274,-67,-17,24,31,151,142,69
-257,-286,-65,7,26,35,9,107,115,-10
-253,-272,-80,38,27,30,-15,16,7,-107
-316,-335,-189,39,58,88,39,25,3,-117
-306,-229,-153,0,48,88,72,75,137,40
-183,-15,-32,-2,27,61,59,62,182,91
-103,118,71,41,30,65,40,31,96,-37
3,202,72,26,-3,21,4,-1,21,-28
-61,144,16,7,-7,-6,1,20,45,105
-184,98,-40,23,15,23,15,30,71,116
-155,128,84,54,18,27,-2,2,50,135
-110,116,103,48,20,7,-26,-8,27,108
-117,97,49,8,3,1,-20,15,52,100
-62,124,68,-8,-17,-13,-45,0,35,138
20,129,111,-10,-30,-61,-99,-40,9,125
14,194,223,29,-21,-63,-91,-50,-33,22
-65,-37,154,49,24,11,-15,-23,-57,-47
-61,-330,-26,7,44,54,33,21,-24,-6
49,-260,-81,-27,2,0,-40,33,-22,13
106,19,-47,-56,-61,-68,-113,-8,-79,-51
89,149,-39,-46,-49,-38,-57,-6,-71,-68
127,217,-139,-66,-68,-28,0,-8,-72,-58
132,14,-170,-82,-52,17,130,93,29,16
108,-79,-117,-55,-3,77,192,150,100,67
98,-38,-11,-5,13,48,94,44,2,-23
-45,-76,86,76,33,24,6,-18,-54,-144
-29,88,73,49,27,19,-1,5,13,-104
20,61,8,-5,2,-14,-36,-2,52,-7
-5,-47,-7,4,16,1,-36,0,59,66
-38,-75,6,38,35,22,-26,2,63,100
-14,-116,-133,-22,15,-9,-53,-20,36,59
39,-80,-152,-75,-5,-22,-43,-22,13,53
42,6,14,23,28,-25,-33,-66,-43,-32
36,-59,81,68,28,-31,-40,-75,-15,-19
53,-78,67,13,-14,-24,-8,-48,48,54
67,50,133,5,-38,-30,34,-19,45,46
47,83,60,-19,-51,-22,60,21,41,23
71,-1,-131,-109,-107,-61,35,61,59,47
123,-138,-288,-197,-150,-59,42,120,124,109
7,-67,-223,-149,-115,-67,11,74,81,28
-127,15,-76,3,-14,-66,-49,-38,-36,-58
-124,10,16,44,19,-24,-29,-59,-43,-2
-124,-65,14,34,29,3,0,-22,8,61
-69,-69,32,36,42,25,-18,-1,28,112
-57,-35,7,58,74,51,-15,-21,0,58
-77,80,5,73,77,57,-23,-19,-40,-21
-40,229,63,26,25,22,-51,-14,-80,-54
27,232,55,-23,-17,-9,-52,-15,-85,-33
25,24,-51,-34,-8,12,3,16,-50,-11
1,-207,-196,-39,-18,3,36,36,-15,0
11,-104,-42,-12,-36,-47,8,42,-13,-8
21,65,113,17,-28,-85,-52,57,-8,3
37,67,91,12,-27,-89,-71,39,-3,43
13,-22,56,19,6,-37,-20,62,13,47
-26,-80,61,24,29,-2,-13,87,11,19
-46,-34,38,8,11,-12,-36,26,-15,-7
-56,197,91,17,-6,-37,-83,-56,-62,-55
-6,394,254,45,-1,-63,-106,-98,-88,-61
82,429,275,81,18,-37,-77,-139,-64,-15
109,92,95,71,55,40,32,-43,25,34
37,-326,-126,22,65,78,105,54,80,60
0,-232,-82,10,33,36,49,8,14,-26
3,66,57,37,15,13,20,-35,-74,-127
38,203,141,45,10,7,-28,-51,-77,-116
43,12,31,18,-5,10,-25,-15,2,-53
-54,-291,-165,-43,-22,29,42,102,82,-28
-95,-357,-176,-42,-12,39,54,119,96,-31
-56,-96,-44,16,12,58,52,61,32,-51
-36,59,153,76,33,66,37,2,4,-31
-37,111,135,61,33,42,2,-27,46,41
-39,184,50,24,-14,-18,-44,-65,21,39
-3,97,57,21,-32,-25,-34,-77,-12,-6
-41,-129,-59,-13,-10,35,91,2,4,-6
-42,-93,-171,-96,-45,35,141,44,3,0
3,-110,-161,-49,-38,15,71,16,-61,-75
99,-134,-201,-25,-24,-3,-27,-14,-108,-119
226,-12,-231,-72,-47,-22,-81,-8,-103,-111
355,21,-199,-78,-33,-39,-98,-19,-106,-135
432,-13,-183,-72,-25,-64,-112,-63,-142,-171
372,-55,-122,-70,-42,-76,-106,-88,-164,-120
199,-48,-79,-82,-66,-85,-113,-79,-97,43
-69,-100,-2,-27,-21,-42,-85,-24,53,255
-140,-73,69,15,25,7,-56,26,167,341
-125,-7,75,33,31,26,-24,40,138,225
-47,28,65,25,28,27,-19,42,65,101
88,22,39,11,24,25,-15,34,10,28
22,-110,0,-24,-4,7,-14,20,-46,-76
-57,-108,-33,-66,-19,-35,-5,2,-86,-169
-149,6,40,3,37,-1,51,-6,-97,-197
-337,88,179,120,101,78,139,21,-109,-282
-338,189,217,132,92,114,163,50,-142,-347
-373,163,204,120,73,84,96,33,-126,-335
-242,102,173,84,56,37,54,19,-23,-98
119,331,188,72,46,12,46,0,51,185
221,339,82,39,30,10,45,-5,71,207
74,-31,-143,-40,-1,3,54,6,72,100
-86,-150,-173,-68,-25,-13,40,6,51,-6
-115,-133,-87,-55,-31,-13,18,4,76,-23
-110,-183,-35,-60,-47,-18,-39,-6,75,-11
44,-38,49,-98,-106,-92,-117,-68,45,40
112,87,200,-6,-56,-82,-126,-78,49,104
26,116,292,135,72,14,-72,-25,83,135
-30,211,259,179,121,38,-55,-17,94,155
-123,14,100,128,117,63,-13,38,132,155
-80,105,5,29,44,35,-17,38,122,150
3,-189,-206,-73,-17,19,3,27,103,157
-14,-494,-507,-190,-71,5,34,46,54,115
27,-120,-366,-164,-66,0,76,56,27,105
46,43,-134,-69,-43,-6,74,18,-24,45
58,106,-50,-40,-65,-41,6,-16,-63,33
86,-76,-195,-76,-98,-74,-28,-11,-38,54
89,-223,-296,-107,-105,-61,-7,10,0,38
81,-160,-154,-93,-81,-26,25,6,-23,0
69,-135,-104,-68,-29,20,15,7,-68,-80
20,-87,-32,-27,14,31,-36,-24,-122,-151
-52,-118,16,13,39,18,-63,-53,-89,-116
-131,-117,49,29,45,21,-56,-39,-33,-70
-142,76,184,53,32,15,-40,-30,-27,-56
-34,191,261,65,27,17,-30,-26,8,83
17,170,224,83,56,37,-24,-5,34,127
6,0,56,53,43,37,0,59,62,87
-10,-194,-158,-38,0,8,10,85,75,76
48,-34,-162,-51,-27,-19,18,14,13,43
126,73,-42,-32,-33,-24,45,-23,-14,11
141,35,-19,-32,-27,-26,37,-28,-4,-11
109,21,-34,-35,-20,-39,-23,-26,1,-27
19,181,68,-6,-16,-48,-54,-60,-26,-70
-113,194,128,15,9,-15,-14,-36,-40,-85
-141,106,64,-20,20,17,40,36,16,-19
-117,28,34,11,31,10,19,30,29,-7
-76,-7,70,70,53,-2,-3,-21,-12,-56
-55,16,123,98,81,35,14,-41,-54,-124
-8,-3,100,87,64,55,22,-18,-29,-105
54,-56,-18,3,-7,9,6,14,12,-23
91,-63,-55,-58,-44,-35,-6,-2,8,18
23,-127,-27,-57,-36,-46,1,-18,-35,-32
-67,-108,0,-16,-25,-33,7,-34,-81,-94
-99,0,19,10,14,12,33,-32,-111,-116
-86,-75,-101,3,48,45,38,34,-24,-39
-52,-134,-152,-22,28,35,23,80,31,-19
55,6,-109,-96,-16,2,13,35,-29,-58
206,147,-92,-120,-57,-43,-51,-23,-71,-47
203,195,129,36,-7,-87,-154,-114,-154,-126
236,270,322,122,47,-67,-147,-147,-198,-175
201,190,186,70,48,-3,8,-32,-101,-31
-2,-59,89,132,118,98,194,81,6,42
-141,-337,7,135,149,156,306,172,63,50
-166,-474,-139,17,81,122,266,202,98,45
-47,-180,-148,-106,-74,0,100,147,115,52
119,338,-37,-160,-197,-134,-64,27,67,25
170,435,-81,-182,-223,-196,-158,-43,-7,-45
110,127,-151,-147,-181,-137,-125,-31,-51,-71
6,-10,-94,-53,-86,-44,-28,-17,-55,-53
-180,-93,-44,19,-5,17,5,-14,-32,-66
-243,21,3,13,-1,2,-42,-46,-31,-92
-192,146,47,-9,-41,-41,-96,-98,-1,-7
-116,146,58,-7,-62,-56,-104,-97,74,149
-11,94,74,1,-56,-67,-94,-93,82,185
-20,-58,95,45,-13,-12,-21,-35,45,49
-20,-165,35,53,16,39,87,50,41,-59
14,-118,15,53,33,71,142,100,39,-106
34,80,62,47,31,73,144,97,20,-152
88,115,-20,11,-10,16,78,10,-60,-204
80,-175,-181,-16,-17,8,34,-2,-79,-194
77,-202,-174,-57,-36,0,8,23,-68,-157
103,-107,-132,-72,-51,-22,-14,16,-72,-139
157,-70,-55,-51,-22,2,-14,1,-43,-34
282,-30,-54,-29,-14,10,-73,-25,8,197
167,16,-1,45,36,1,-123,-81,1,238
-27,78,98,97,100,40,-79,-77,14,153
-23,125,144,87,83,35,-117,-71,69,244
-64,48,142,71,57,25,-120,-37,111,304
-194,-133,70,56,58,57,-42,23,103,207
-195,-72,129,73,63,77,37,36,64,160
-157,103,164,75,46,58,98,26,33,106
-101,140,108,25,-13,-27,49,4,51,71
-99,-40,-15,-19,-22,-36,32,39,77,31
-102,-116,-85,-30,-2,-10,25,60,38,-48
-80,-122,-124,-62,-37,-16,25,34,14,-62
38,43,-43,-79,-95,-48,11,-16,18,27
154,274,149,-24,-94,-74,-2,-46,-13,59
294,442,282,44,-37,-52,-37,-66,-70,-48
437,368,188,18,-25,-20,-38,-40,-56,-66
336,-10,-76,-33,0,11,33,10,-12,-11
89,2,-165,-59,19,39,62,16,-18,-60
-87,-23,-271,-113,9,66,70,14,-14,-1
-253,-155,-256,-19,46,74,51,-35,-34,37
-343,-135,-129,43,45,54,22,1,50,94
-174,-169,-124,-40,-12,35,27,96,201,239
-154,-304,-107,-12,18,28,32,50,106,75
-163,-255,5,84,98,39,14,-47,-53,-90
-168,-82,165,123,107,31,11,-74,-79,-112
-164,-5,284,152,104,38,22,-31,5,-56
-124,72,295,181,92,41,40,-6,57,-29
0,6,95,129,70,55,98,41,105,23
107,-239,-257,11,39,67,144,113,202,173
124,-269,-275,-80,-17,8,88,74,160,169
94,-135,-166,-93,-62,-54,-11,-7,37,54
13,-36,-81,-53,-50,-71,-45,-28,0,-7
-56,-11,16,-11,-11,-48,-39,-33,-16,-51
-72,51,37,-17,-6,-40,-53,-64,-63,-102
-7,59,40,-47,-41,-51,-108,-87,-97,-147
65,-47,3,-46,-48,-35,-79,-42,-82,-138
114,-67,7,-13,9,37,-31,9,-87,-102
144,116,74,14,27,54,-35,-8,-103,-82
69,138,84,13,6,30,-37,-19,-62,14
-98,47,65,2,-6,27,18,-35,-50,77
-186,48,65,0,-17,22,23,-38,-13,90
-57,243,54,-8,-45,-18,15,-6,12,80
69,340,104,0,-32,-15,38,24,7,41
65,257,93,10,-12,2,7,19,-41,-2
13,17,85,20,17,18,-34,2,-77,-39
3,-173,3,-6,30,14,-28,-3,-41,-32
22,-135,-51,-45,4,-23,-33,-21,-13,-21
18,-31,-47,-56,-20,-52,-32,-32,7,7
23,-91,-60,-35,-20,-39,6,-10,62,55
-88,-194,-105,-11,13,5,52,-9,9,-47
-175,-74,-96,-10,29,18,77,-27,-73,-201
-113,50,-33,-29,-9,-4,72,-22,-63,-211
-58,69,1,-13,-12,-3,83,16,-30,-158
-28,50,25,40,22,8,83,22,-24,-170
61,107,133,83,67,14,49,27,6,-163
153,239,223,99,70,8,8,15,14,-133
235,429,331,83,5,-44,-34,-48,1,-17
269,551,402,47,-41,-111,-90,-107,-27,-21
279,436,282,-3,-74,-142,-127,-132,-79,-73
284,399,113,-51,-94,-145,-129,-121,-90,-37
201,-186,-191,-88,-56,-78,-48,-38,7,70
22,-647,-429,-130,-44,-36,-7,46,68,142
-187,-599,-340,-84,-8,15,-21,67,70,124
-266,-497,-329,-61,13,32,-37,68,100,155
-248,-223,-259,-61,9,19,-65,68,149,171
-180,-97,-133,-43,10,22,-65,57,109,113
-73,-46,-2,5,30,42,-55,59,49,79
3,-5,89,45,22,20,-57,35,3,81
25,60,99,47,14,-2,-33,33,21,124
-15,-56,45,58,34,19,20,64,83,158
-114,-363,-155,-3,12,10,57,88,92,117
-94,-122,-240,-141,-100,-66,-5,16,4,44
13,201,-111,-99,-109,-83,-66,-42,-67,-27
72,294,74,2,-52,-68,-79,-35,-68,-35
57,305,196,58,-4,-19,-80,-46,-93,-112
20,176,113,62,33,30,-5,-25,-89,-166
3,-87,-2,73,81,125,140,55,-44,-149
-24,-382,-108,65,119,186,241,113,-3,-123
13,-290,-122,25,87,135,184,93,17,-72
175,-136,-96,-24,25,43,93,36,19,16
188,-154,-89,-39,-16,3,42,0,10,60
119,-78,-62,-25,-9,-7,5,-12,10,68
61,106,0,-7,6,-46,-70,-43,-6,37
-37,291,64,7,7,-81,-131,-56,-35,-26
-191,292,134,29,-6,-99,-131,-33,-10,-53
-266,65,103,5,-58,-131,-105,-21,36,-14
-94,-85,-76,-50,-86,-82,-40,7,79,77
-33,38,-33,-21,-18,-17,5,15,49,18
8,213,80,20,30,6,10,23,9,-48
85,332,145,73,50,20,-19,-4,-4,-69
74,253,211,97,56,31,-26,-42,-41,-135
91,33,87,16,23,17,11,3,0,-57
35,-54,-42,-46,12,34,95,70,17,-72
-121,-78,38,26,33,39,118,32,-81,-213
-78,34,89,28,15,9,73,16,-80,-86
-26,155,45,-22,-30,-45,-8,20,12,144
-122,102,107,-1,5,-29,-23,-17,-2,112
-225,-245,-47,0,50,34,54,41,15,88
-209,-491,-219,-20,47,49,82,80,30,115
-98,-286,-134,-15,40,31,44,29,2,76
29,-49,-9,3,20,5,3,-8,4,78
83,56,57,11,5,-28,-14,-8,22,77
94,151,126,16,-17,-58,-29,-12,34,83
110,240,101,-36,-55,-52,-42,12,74,136
73,185,103,-15,-4,6,-34,4,21,89
60,99,152,101,68,25,-39,-69,-82,-33
106,-49,53,85,68,29,-18,-35,-49,-36
137,-300,-195,-24,19,14,-18,32,-14,-25
190,-80,-178,-51,-48,-55,-66,3,-70,-74
167,-26,-98,-1,-41,-38,-31,8,1,-14
90,-93,-122,38,-4,30,52,11,31,-4
78,-78,-69,35,25,48,109,-20,4,-42
34,-108,-70,13,24,43,101,-32,2,-5
-114,-47,-76,-6,17,24,55,1,36,47
-169,116,-15,-10,-2,-1,-12,-1,36,30
-144,96,36,-8,-16,-9,-39,-10,24,-52
-154,102,130,54,18,-6,-14,-10,26,-99
-179,110,151,140,72,21,9,-19,41,-77
-56,165,191,107,44,-5,14,2,88,31
33,227,176,59,19,-13,22,-13,57,32
11,117,85,18,-5,5,63,-12,48,24
23,171,28,-57,-65,-49,32,-1,90,62
60,226,14,-68,-84,-74,-10,-48,33,-6
2,-189,-128,-29,-36,-30,-19,-75,-27,-62
-88,-487,-229,-27,-13,-8,2,-14,20,-21
-68,-353,-205,-34,-10,-4,7,47,57,34
-3,-126,-115,-55,-38,7,-1,88,55,80
-61,-15,44,11,0,14,7,31,-29,-18
-90,174,234,80,39,17,8,-41,-114,-123
3,322,260,13,1,4,-3,-47,-102,-67
85,350,261,39,-3,-27,-27,-73,-91,12
60,-70,38,21,-14,-39,-37,-44,-51,75
2,-569,-366,-107,-42,8,24,47,34,75
20,-409,-345,-101,-17,26,42,44,40,33
85,-88,-169,-50,-11,8,0,-25,-31,-15
75,55,-103,-22,-6,24,-10,-58,-88,-71
-21,85,-55,2,-1,20,-20,-82,-116,-163
-102,46,54,15,10,-2,-21,-98,-121,-204
-28,-58,48,3,-1,-7,-27,-105,-99,-182
226,-134,-82,-32,-29,-23,-28,-80,-47,-67
392,-35,-76,-19,-17,-14,-52,-26,-29,-50
343,63,-2,7,23,18,-42,0,-21,-5
145,127,21,14,33,34,-7,13,35,126
-197,159,127,66,61,50,32,38,49,83
-309,91,168,90,65,41,61,48,91,141
-265,-105,108,75,78,60,74,65,82,89
-98,-279,16,41,72,49,78,52,2,-88
137,-238,-13,8,40,24,91,23,-46,-163
198,-99,-34,-5,45,27,102,4,-52,-99
139,147,-87,-14,15,-5,39,-68,-60,-22
-21,403,38,-3,-1,-18,-6,-105,-36,-19
-219,354,214,47,38,5,10,-53,71,89
-289,251,192,40,13,1,1,48,161,197
-212,187,152,38,16,-15,-2,105,169,247
-173,-128,75,49,51,17,11,89,100,146
-100,-100,69,47,47,54,30,66,62,65
-37,-191,-29,30,30,80,26,79,69,123
-53,-358,-238,-62,-8,59,19,90,101,159
-97,-133,-238,-120,-67,3,-39,3,7,60
-99,5,-159,-95,-61,11,-31,-29,-15,46
-71,-42,-139,-49,-39,31,9,5,6,49
-31,-13,-127,-40,-32,31,30,9,-35,-11
17,42,-60,-43,-39,22,14,-2,-58,-22
19,45,-51,-38,-33,12,-10,18,-38,8
-1,58,24,-9,-2,10,-68,41,-51,-43
-22,3,59,7,11,-5,-102,47,-60,-95
-3,-55,26,-3,11,-28,-111,30,-56,-59
25,-60,-6,-21,-9,-49,-127,-29,-64,-21
22,-14,37,-8,-12,-59,-145,-101,-102,-62
15,0,42,-11,-11,-35,-100,-118,-86,-73
39,-21,3,-55,-36,-1,14,-55,-28,-41
107,-5,-13,-66,-46,13,95,1,-21,-36
123,28,12,-34,-42,6,139,28,-26,-40
138,154,91,-5,-48,-22,107,26,-18,-42
228,404,227,-9,-92,-113,-56,-14,8,7
172,520,327,28,-71,-123,-130,-71,-35,-21
-10,472,351,89,6,-65,-91,-95,-77,-108
-77,116,181,60,22,-7,-77,-40,-18,-133
-51,-276,-95,-34,-4,22,-31,14,29,-119
-14,-123,-122,-71,-11,30,8,26,19,-130
52,40,-13,-63,-7,15,29,10,28,-83
120,125,27,-66,-32,-39,-17,-29,39,9
176,176,42,-30,-26,-44,-80,-26,77,135
36,-212,-63,44,72,60,20,79,179,213
-31,-370,-163,11,79,93,109,148,225,230
11,-64,-126,-60,9,56,95,108,145,152
22,75,-153,-99,-29,49,86,70,84,120
-106,-75,-116,-31,4,31,21,15,36,40
-133,-216,-93,17,27,16,-17,-43,-10,-41
-110,-172,-49,34,37,32,-3,-57,-40,-81
-111,-140,-39,12,18,9,-5,-48,-142,-66
-70,-100,-38,-34,-29,-25,-39,-61,-273,0
-10,-17,-35,-14,-31,1,31,-36,-67,86
-10,49,22,1,-20,-1,51,-10,-28,40
37,139,38,-19,-47,-40,13,-43,-58,-72
108,92,6,-10,-30,-50,21,-62,-67,-122
114,-120,-63,1,8,-2,38,-28,-28,-102
69,-219,-92,-12,8,-4,18,-14,-3,-60
17,-196,-84,-23,5,-5,5,15,30,-3
-43,-96,-27,-8,13,-1,2,13,11,10
-83,10,-16,-4,1,9,13,36,50,113
-3,144,0,-21,-54,-17,-7,36,92,184
79,146,3,-37,-65,-52,-37,-2,53,117
78,173,56,-11,-20,-25,-14,0,48,38
52,202,121,32,6,-2,16,-20,34,-5
49,190,180,79,20,0,25,-54,6,-14
92,209,170,60,18,0,15,0,24,-6
62,56,53,25,22,2,33,102,77,-19
21,-23,-31,-4,-2,10,50,99,66,-31
98,-11,-59,-81,-48,-16,59,-7,-13,-65
208,-15,-31,-45,-38,-30,33,-80,-73,-125
164,13,7,86,8,-21,-10,-91,-100,-206
184,161,68,54,-14,-32,-31,-43,-61,-125
152,210,76,7,-25,-23,-36,-3,-9,-34
3,313,154,52,-3,-18,-76,-24,-9,-65
-185,-5,113,119,60,33,-31,-10,17,-61
-274,-448,-99,102,108,100,80,69,75,69
-232,-301,-1,102,116,111,73,70,70,148
-254,-251,-12,86,108,103,53,84,56,128
-303,-303,-178,0,45,104,75,137,45,90
-145,-153,-203,-65,-21,63,66,149,21,125
-3,-164,-156,-67,-30,44,74,114,7,78
39,-165,-97,-13,12,54,76,75,-37,-35
75,0,-12,22,60,59,70,40,-84,-99
116,245,15,8,48,35,30,-9,-88,-113
41,261,-64,-30,0,-37,-64,-80,-72,-104
-32,131,-79,-57,-41,-66,-111,-100,-45,-32
-79,-15,13,-37,-36,-47,-106,-116,-19,47
-147,-51,107,-14,-25,-54,-130,-150,-45,5
-85,23,178,-24,-44,-90,-138,-119,8,31
34,23,152,0,-24,-53,-85,-88,21,58
83,-43,72,43,1,-5,-18,-88,6,27
32,-224,-92,-18,1,20,40,-55,19,14
-50,-126,-87,-18,14,23,82,9,41,11
-79,128,-5,8,11,16,85,44,95,21
-36,201,0,-43,-2,15,121,77,119,62
98,221,-33,-85,-25,11,131,83,113,120
190,127,2,-8,-48,-45,21,-1,25,-5
372,38,-9,-17,-72,-83,-33,-12,-4,-43
429,45,44,-46,-74,-51,-21,13,6,-9
302,61,80,-25,-36,-18,-39,-4,-4,-12
71,105,108,18,6,-9,-84,-18,-16,-33
-244,57,128,71,50,-15,-121,-41,-43,-29
-418,-3,29,63,51,0,-90,-36,-15,7
-380,-208,-100,29,48,27,-15,-8,-4,8
-228,-221,-143,17,66,42,8,20,4,25
-101,-212,-146,19,74,58,-1,33,-14,48
-36,-196,-91,0,51,32,-60,-9,-66,-9
45,-194,-79,-35,1,-47,-121,-55,-84,-29
42,-106,-63,-48,-38,-97,-125,-47,-54,-2
24,-36,0,-26,-28,-66,-71,-7,3,21
7,-6,15,-7,-13,-30,10,30,1,-17
18,-28,1,-12,-17,-30,14,33,-27,-31
-27,-128,-47,-2,3,-15,-1,28,-36,-33
-58,-127,-83,-8,0,5,8,19,-53,-132
71,55,-17,-7,-4,-10,-22,-27,-59,-157
172,170,32,-4,-4,-34,-59,-60,-66,-147
104,170,45,18,2,-28,-28,-34,-47,-146
-26,78,49,49,33,0,8,-39,-7,-102
-104,-61,-25,39,52,33,40,-25,74,67
-129,-36,45,71,83,60,62,12,124,223
-54,99,138,88,52,32,13,-11,128,246
23,126,161,57,-28,-5,-19,-38,128,248
47,146,193,51,-18,-2,5,-23,113,158
180,189,232,51,-9,-16,1,-21,57,79
212,60,227,75,10,-11,0,18,18,49
130,67,228,109,48,16,-4,43,-10,-14
55,-8,176,130,104,80,18,93,19,-35
-74,-264,-17,43,86,79,22,81,41,15
-127,-223,-52,-32,21,-10,-36,-29,-25,19
-43,64,85,-24,-10,-63,-70,-84,-65,51
21,153,125,-6,5,-47,-53,-84,-91,-34
120,78,81,1,17,-22,-54,-66,-84,-84
157,-238,-209,-54,4,11,-43,-3,-1,-2
103,-211,-352,-147,-29,10,-36,28,18,12
49,13,-262,-177,-62,-27,-62,14,-30,-53
-22,162,-111,-93,-40,-46,-68,-36,-115,-149
-13,349,30,-27,-35,-47,-60,-54,-159,-175
126,409,139,-8,-38,-46,-18,-12,-94,-61
76,281,76,-9,-28,-40,46,28,1,36
-48,-16,-97,-52,-39,-17,103,71,74,81
-180,-313,-211,-79,-38,17,148,76,72,17
-151,-269,-129,-32,-4,26,131,71,80,28
-56,-121,11,34,20,33,54,65,99,106
-32,-51,106,70,23,40,14,38,54,40
-50,-72,101,82,46,54,24,34,54,-15
-100,-167,35,79,47,37,0,21,53,11
-143,-372,-126,11,17,-2,-14,6,50,46
-135,-230,-217,-62,-40,-22,-17,-3,4,-14
-40,-6,-143,-64,-52,-19,19,15,-43,-91
3,31,-56,-46,-34,4,91,42,-37,-104
34,102,4,-34,-28,1,67,48,-21,-83
91,245,53,-12,-33,-9,19,40,-17,-73
123,295,80,-4,-42,-16,-4,-3,-53,-108
196,255,60,-30,-48,-11,19,-58,-64,-79
207,68,9,-22,-18,27,52,-30,-23,-16
62,-200,11,41,41,52,56,4,9,-43
-17,-89,119,85,40,28,12,12,0,-82
-91,45,208,75,14,1,-18,22,31,-49
-136,120,256,73,13,-2,-35,-16,61,28
-153,5,267,125,67,64,17,-7,51,9
-109,-393,-80,44,55,91,89,80,135,106
-60,-427,-375,-84,2,49,53,78,180,221
14,-99,-286,-127,-61,-30,-80,-29,69,141
58,139,-173,-115,-81,-71,-177,-72,-25,61
28,194,0,-61,-63,-74,-231,-69,-106,9
24,155,142,6,-41,-79,-239,-64,-158,-22
25,177,230,56,-16,-49,-137,-70,-157,-42
7,19,162,42,-8,-28,-43,-45,-121,-28
24,-238,-109,-27,-15,-17,38,10,-53,9
74,-243,-260,-79,-14,19,134,88,-13,-4
76,-120,-184,-72,-8,29,118,87,-54,-106
31,-42,-101,-45,14,37,50,26,-138,-214
-2,22,-70,-34,12,38,-5,-9,-157,-201
-27,35,-58,-6,15,46,-1,-8,-98,-144
39,-18,-49,8,0,32,5,-38,-77,-50
69,46,-27,5,-5,19,26,-42,-74,9
148,157,69,24,10,18,82,-37,-54,30
176,270,148,39,1,-10,93,-29,-9,55
67,256,131,27,-17,-18,88,-7,12,13
-59,32,21,5,-36,-31,59,0,-25,-39
-25,-220,-143,-72,-87,-103,-24,-22,18,30
97,-262,-192,-121,-112,-111,-26,2,105,84
90,-187,-157,-123,-130,-81,2,36,102,4
29,-47,-68,-89,-94,-51,-16,-9,-21,-172
46,151,15,-56,-42,-41,-27,-43,-39,-114
-19,205,108,54,20,-9,-28,-29,18,25
-150,167,227,175,87,50,-24,-9,62,142
-209,105,226,195,145,144,58,83,191,308
-228,-12,147,201,166,171,94,102,184,282
-232,51,141,179,140,139,72,69,111,144
-217,102,163,141,108,105,50,47,97,100
-193,-174,50,79,64,77,40,62,109,110
25,-246,-38,11,23,25,-1,45,77,100
306,-93,-89,-55,-50,-47,-66,-27,11,51
320,55,-106,-136,-136,-134,-110,-93,-61,8
205,159,-25,-107,-122,-121,-73,-82,-74,-1
53,224,129,-6,-64,-84,-39,-79,-99,-51
-128,253,162,61,6,-29,10,-44,-48,-32
-232,76,-65,58,59,49,45,30,84,97
-205,-48,-225,-1,26,40,-3,35,93,128
-71,-22,-164,-34,-6,-6,-17,39,31,85
-16,-204,-137,-78,-13,18,39,77,13,68
41,5,-104,-124,-37,3,45,56,-8,58
-23,324,242,105,51,-2,-11,-41,-117,-109
-77,172,358,206,96,11,-42,-42,-116,-156
-115,-131,181,94,70,21,-50,-19,-74,-114
-139,-510,-90,0,52,52,-17,19,-27,-69
-96,-756,-320,-39,47,98,61,97,42,19
-7,-361,-319,-97,-5,39,43,67,20,19
72,-18,-253,-119,-48,-28,-19,-6,-10,-23
38,44,-187,-98,-43,-41,-45,-63,-73,-87
2,74,-105,-89,-46,-37,-47,-94,-96,-89
-40,39,-48,-89,-58,-31,-44,-64,-41,-9
-86,-2,26,-20,-6,-19,-5,4,-9,0
-60,32,64,26,12,-7,48,42,51,50
15,132,63,-3,-17,-16,63,55,70,77
65,204,84,-26,-28,-17,53,72,45,18
73,99,55,-35,-27,-3,55,61,50,50
-2,-60,46,8,3,27,49,37,46,11
-81,-142,89,100,63,40,30,-9,-13,-83
-91,-66,86,115,72,38,27,-17,-21,-84
-66,27,-17,21,18,10,17,-18,20,-42
-19,-54,-130,-58,-39,-8,15,0,70,24
38,33,-124,-103,-96,-22,7,2,63,32
103,148,-31,-71,-82,-11,-17,-2,9,-11
129,225,83,5,-15,0,-42,6,-43,-89
135,287,124,47,6,-14,-47,15,-63,-128
151,175,41,17,-10,-33,-45,18,-71,-67
96,28,-32,-27,-31,-42,-49,0,-82,-76
-7,16,-49,-28,-22,-8,-27,-34,-83,-87
-115,-181,-30,5,8,27,-13,-41,-49,-22
-168,-240,-27,-2,22,32,-23,-14,7,24
-110,-120,-1,-20,19,12,-25,0,70,76
-4,21,80,2,11,-1,-58,-20,73,96
42,178,201,55,29,4,-86,-54,1,40
64,286,224,81,60,9,-70,-74,-50,24
66,210,172,73,60,9,-29,-52,-48,10
28,-54,83,46,44,4,-6,-50,-46,-12
2,-123,5,22,34,24,-15,-39,-58,-42
21,18,-6,-21,-1,27,-29,0,-31,-28
7,102,-39,-38,-43,27,12,45,39,5
-5,43,-111,-34,-46,20,55,63,95,43
0,-83,-121,-47,-34,29,83,94,142,121
-17,2,-55,-35,-21,34,66,92,119,96
68,178,-1,-38,-32,-6,-4,1,58,34
145,-11,-75,-62,-38,-15,-22,-72,-20,-56
166,-169,-151,-96,-78,-33,-24,-106,-55,-93
166,-149,-130,-101,-97,-63,8,-45,-14,-65
114,-138,-94,-65,-79,-56,39,-35,17,-13
-14,-83,-74,-32,-35,-13,92,-58,-2,-16
-145,-70,-6,18,19,14,125,-35,7,-10
-163,-45,51,48,41,17,83,63,59,40
-123,-62,54,60,40,16,25,119,81,16
-100,-89,-5,81,56,54,61,105,6,-47
-18,-35,-6,73,60,53,79,79,-55,-78
95,216,178,59,41,10,52,44,-93,-92
135,369,219,32,-2,-22,32,26,-84,-77
113,325,153,24,-26,-15,6,6,-79,-105
40,93,-30,-7,-27,-2,-11,-4,-83,-115
-35,-243,-170,-34,-29,4,-18,17,-40,-80
22,-179,-109,-29,-27,2,-21,23,-39,-96
229,30,-30,-27,-23,5,-23,28,-76,-122
438,79,-7,-30,-44,-15,-47,21,-118,-137
474,19,-20,-33,-69,-52,-88,-28,-126,-150
360,-98,-99,-50,-60,-54,-104,-69,-103,-158
227,-169,-99,-45,-39,-44,-122,-94,-46,-10
-12,-46,-69,-14,-20,-46,-148,-128,8,222
-259,128,18,11,-16,-69,-158,-107,111,355
-384,124,148,77,44,-10,-56,-14,205,290
-367,64,185,113,90,58,58,23,130,109
-293,21,156,94,65,71,113,42,73,81
-290,25,133,81,58,85,119,72,88,65
-220,8,110,84,62,85,95,44,50,19
-196,27,35,19,2,27,39,20,5,-45
-159,75,60,-6,-26,4,12,-1,-11,-83
-120,-84,74,56,29,53,48,12,13,-52
-88,-269,-16,68,66,69,52,30,28,-61
21,-46,-33,23,10,10,-1,4,30,-67
129,7,-52,-40,-64,-60,-71,-30,49,8
175,-160,-168,-104,-99,-89,-92,-42,58,100
59,-28,-149,-110,-59,-63,-70,-37,14,-1
-50,31,-31,-30,28,39,24,-7,-69,-156
-85,28,44,33,57,80,93,5,-120,-167
-132,-152,-90,14,46,56,97,35,-41,0
-184,-173,-109,13,74,67,94,77,34,50
-80,-2,-21,32,89,73,55,41,-7,-3
28,-51,-71,0,48,27,-13,-30,-52,-57
140,-27,-71,-21,4,-34,-88,-95,-124,-103
234,56,18,-17,-28,-93,-126,-112,-126,-3
230,66,15,-51,-52,-112,-134,-70,-37,113
193,127,-6,-114,-81,-100,-94,-2,67,235
42,314,165,-17,-18,-17,-13,38,62,177
-58,301,318,163,72,65,21,25,-7,120
-74,142,237,149,79,71,23,54,18,102
-40,-51,86,58,44,57,18,58,23,30
-31,-427,-156,-29,-6,33,26,39,30,26
-114,-391,-272,-95,-68,-12,0,-4,4,-5
-107,1,-189,-109,-99,-51,-48,-31,-20,-4
-90,103,-65,-58,-62,-23,-15,-8,15,53
-58,162,-43,-23,-43,-19,-15,10,30,88
53,131,-25,-34,-48,-14,-20,24,71,152
18,47,-22,-43,-31,19,28,47,94,125
-60,-35,-24,-42,-22,42,62,70,84,67
-106,-82,-7,20,19,49,45,26,22,-5
-89,100,126,73,34,21,-11,-44,-40,-68
-22,392,257,34,-6,-29,-58,-81,-65,-95
62,526,347,47,-18,-71,-82,-111,-98,-115
83,564,542,170,25,-77,-68,-97,-120,-119
91,163,293,119,28,-44,-36,-12,-13,-29
-12,-540,-161,22,45,31,49,108,128,77
-157,-654,-271,1,80,65,89,121,142,79
-180,-331,-196,0,73,53,48,65,88,61
-166,-218,-333,-88,-1,2,9,55,58,40
-111,-244,-404,-127,-40,-18,-11,37,12,-4
-42,-113,-306,-108,-47,-37,-33,18,-42,-46
1,-106,-210,-83,-23,-18,-19,34,-46,-91
0,-54,27,27,10,-19,-35,-9,-95,-145
64,46,110,55,9,-26,-33,-12,-115,-118
98,-28,-14,-30,-11,2,34,56,-48,-44
96,-88,-135,-103,-55,-1,99,99,-7,-13
134,39,-134,-108,-61,-35,86,54,-38,-19
55,38,-67,-25,-10,8,71,15,-49,-44
-51,-1,-15,9,8,17,60,13,-47,-105
-57,-2,19,23,-11,-35,-26,-38,-94,-174
29,21,57,28,-6,-37,-53,-75,-76,-103
175,19,14,-24,-12,-1,-20,-39,39,103
197,4,17,-20,15,35,21,7,45,147
166,42,49,13,22,30,12,-3,14,62
128,145,71,26,-6,-12,-71,-84,-5,24
-50,122,122,-2,-33,-43,-120,-109,5,44
-189,59,119,-9,-29,-58,-120,-63,65,107
-196,-46,65,-3,0,-48,-92,4,128,147
-95,-222,-66,-28,12,-5,17,70,137,124
31,-98,-57,-50,-15,-6,44,66,97,93
84,39,-25,-49,-49,-28,20,46,62,69
39,-14,19,9,-8,17,40,45,50,19
-24,-21,104,74,32,30,25,44,35,-12
-9,58,94,39,15,4,12,36,35,-31
134,169,116,0,-38,-60,-55,-19,-21,-104
375,211,82,-33,-61,-83,-95,-66,-78,-149
403,295,96,-17,-13,-29,-19,-64,-95,-177
377,358,166,25,28,-3,35,-63,-120,-176
243,214,144,39,38,-12,51,-82,-137,-136
10,-91,63,27,18,-25,47,-73,-151,-169
-162,-152,10,-5,18,21,88,29,-59,-67
-281,-113,20,32,68,72,137,94,9,-17
-222,-141,-15,81,110,79,111,54,-7,31
-234,-47,-1,36,82,57,69,28,13,98
-235,32,-59,-30,27,29,50,11,28,122
-171,-201,-131,-46,9,43,53,20,43,136
-58,-246,-200,-107,-61,-20,14,-4,41,111
80,56,-177,-127,-130,-104,-86,-68,6,95
107,315,102,-36,-82,-111,-146,-123,-57,3
-17,234,194,58,6,-54,-119,-124,-112,-112
-151,-108,-3,61,54,10,-64,-13,-2,-64
-99,-223,-111,45,64,35,-36,98,172,150
-17,-170,-142,22,47,27,-36,96,196,231
17,-125,-166,-32,5,5,-57,58,150,189
15,8,-82,-45,-56,-34,-120,0,69,67
-49,120,91,18,-39,-59,-127,-95,-31,-50
-95,-26,73,38,-6,-23,-51,-114,-77,-130
-22,-213,-86,-6,-22,12,3,-64,-52,-150
103,-205,-209,-55,-36,4,48,-43,-29,-159
136,-323,-236,-69,-19,26,103,6,-31,-165
111,-222,-178,-58,-21,17,63,15,-64,-189
81,-37,-77,-49,-40,-24,20,-5,-104,-207
19,24,-4,-9,-21,-25,48,17,-51,-130
-70,70,47,18,19,7,77,74,64,0
-150,68,89,66,54,13,53,69,96,25
-158,27,108,85,76,-1,-22,47,-82,-3
-20,81,122,85,48,-8,10,2,40,159
64,152,181,82,35,-9,14,-8,158,312
57,242,183,90,62,28,14,19,131,182
207,257,156,42,34,13,7,11,99,190
212,-84,0,-4,12,4,30,14,84,218
112,-136,-181,-53,-16,-25,-5,-17,28,133
90,236,-120,-48,-43,-60,-69,-58,-46,7
-6,191,8,10,15,-2,-52,-48,-79,-67
-152,42,35,53,59,31,-11,-47,-106,-113
-171,121,85,52,29,-4,-3,-39,-102,-136
-81,224,191,71,37,2,21,-9,-78,-138
33,290,236,63,24,-17,6,-13,-56,-45
77,212,205,35,-11,-45,-38,-32,-41,22
58,-70,33,17,-16,-22,-9,-5,-1,42
-56,-423,-221,-47,-7,1,41,35,60,65
-97,-308,-285,-93,-40,-15,32,37,83,72
-30,-126,-190,-80,-48,-17,2,23,85,80
-9,-69,-159,-54,-28,6,0,52,41,41
-9,-121,-165,-35,-2,31,-9,66,18,-12
-7,-170,-85,12,48,57,-24,9,-41,-91
-91,-249,-109,32,88,92,10,18,-41,-79
-166,-193,-62,27,85,108,40,65,70,51
-150,-14,26,27,63,83,14,56,103,70
-57,98,96,21,31,34,-20,12,44,0
-10,87,120,14,2,18,-11,-22,-8,-48
-13,97,133,18,3,18,-14,-30,-11,-59
32,213,227,44,-7,-22,-60,-44,30,-21
123,342,248,-11,-81,-99,-123,-60,51,41
161,387,190,-51,-115,-124,-136,-72,30,35
141,306,189,47,-21,-53,-81,-59,-19,-43
86,49,69,61,36,37,0,18,-8,-65
-11,-309,-151,-27,6,35,31,44,22,-32
-66,-324,-235,-81,-9,41,78,37,18,-7
-137,-265,-144,-38,15,81,138,59,4,-48
-97,-160,-36,10,14,66,91,21,-10,-71
-74,-105,-14,7,2,18,5,-31,-52,-98
-54,-66,-12,3,-3,-18,-25,-72,-60,-111
-17,-3,26,37,17,19,37,-58,-75,-111
58,73,42,24,11,25,89,-8,-97,-107
334,353,111,-51,-48,-35,25,10,-80,-26
449,420,202,0,-30,-54,-79,-20,-74,-49
312,231,262,116,0,-40,-168,-69,-97,-90
166,88,163,116,12,-35,-181,-72,-79,-72
-93,-516,-75,101,68,21,-100,1,11,34
-383,-618,-222,24,57,51,-37,33,60,73
-403,-33,-118,-39,-41,-46,-61,-35,-2,4
-182,219,37,-9,-69,-73,-65,-57,-12,80
-36,172,45,30,-42,-15,-6,12,19,105
-40,27,-21,25,-8,38,49,98,71,95
-74,-159,-146,-33,2,84,69,145,126,109
-59,-172,-250,-105,-11,72,41,100,126,85
-49,-82,-96,-1,26,58,-1,2,35,9
61,-1,53,54,38,40,-2,-32,15,38
137,14,107,23,0,22,-16,-24,1,58
90,14,136,30,9,31,15,10,-34,2
1,54,147,98,58,68,78,49,-36,-74
-87,-77,-47,94,57,39,50,61,-21,-90
-100,-134,-221,-18,-6,-10,-8,61,16,-28
-10,40,-122,-49,-36,-18,-27,0,23,0
68,62,-17,-34,-52,-23,-20,-53,10,-27
108,121,36,-55,-94,-40,0,-72,-5,-22
74,237,60,-47,-99,-52,19,-55,-42,-36
38,310,69,-42,-76,-47,37,-24,-28,-9
-1,224,68,-27,-44,-17,22,-9,-23,7
-45,68,58,0,-16,6,19,7,-32,13
-18,7,84,6,-9,2,9,5,-18,21
20,-11,78,-6,-16,-12,2,15,8,53
23,-10,57,-4,-11,-1,15,32,-13,14
34,-35,18,-24,-33,-26,-6,16,-39,8
124,72,56,-35,-56,-73,-47,-23,-67,-18
162,143,215,42,-5,-45,-44,-49,-88,-51
121,214,271,58,17,-12,-34,-56,-110,-61
71,169,171,47,20,11,-27,-17,-73,0
-32,-228,-84,32,55,75,70,104,65,125
-151,-396,-281,-39,54,82,121,128,96,128
-163,-225,-239,-74,12,28,81,64,50,45
-86,-215,-193,-75,-18,-4,42,-16,-9,-27
58,-242,-198,-78,-46,-12,-8,-47,-28,-54
246,-64,-110,-57,-54,-17,-42,-51,-60,-114
427,77,-52,-79,-76,-28,-47,-49,-94,-167
398,177,8,-36,-59,-14,-71,-65,-139,-198
303,191,80,31,-3,-27,-89,-92,-91,-54
161,53,41,36,14,-27,-39,-41,34,148
-115,-78,76,103,52,-7,-23,-57,3,61
-333,-193,58,101,64,33,8,-17,43,60
-386,-92,135,95,59,78,57,42,84,28
-289,190,270,106,38,62,27,40,43,-18
-169,164,167,43,3,51,44,45,76,68
-178,-207,-91,-18,-10,44,102,64,151,135
-124,-122,-201,-74,-58,-19,52,51,148,149
-32,205,-89,-101,-107,-61,-33,-1,61,116
-3,388,41,-80,-104,-93,-61,-62,-29,21
-35,213,70,-3,-26,-23,18,-13,-9,36
-92,-108,2,51,59,67,111,43,55,75
-81,-205,-104,33,75,97,124,75,79,84
-6,-127,-108,-12,25,68,97,74,51,52
72,27,-9,-16,-6,14,61,43,0,29
171,114,0,-18,-18,-12,32,38,-13,16
206,64,-46,-26,-27,-33,-45,23,-39,-28
99,-34,-193,-59,-47,-53,-112,14,-72,-59
-73,-47,-162,-78,-51,-53,-111,-5,-62,-16
-177,32,-40,-49,-27,-45,-121,-35,-38,1
-150,17,8,-33,-22,-37,-149,-35,0,38
-159,-251,-48,-33,-17,-10,-72,-22,13,35
-180,-339,-80,-24,0,22,65,-6,-15,-39
-119,-191,-51,-20,10,37,178,43,8,-5
-65,-38,-137,-53,-25,11,199,82,43,76
-47,-15,-152,-27,-23,0,92,81,39,79
-46,-34,-78,43,29,24,8,44,18,16
-2,8,-28,47,41,15,-10,-6,-38,-42
71,57,10,28,25,6,-19,-45,-82,-104
137,135,188,50,58,24,6,-52,-96,-146
201,259,274,61,78,35,37,-45,-78,-158
237,303,219,24,47,25,37,-35,-14,-86
177,243,121,19,39,0,-16,-89,-35,-57
55,-5,-91,-7,28,-10,0,-83,-19,-42
-50,-96,-146,-32,25,25,71,19,41,2
-151,-70,53,50,77,77,114,74,62,25
-140,-99,95,72,77,73,65,60,82,52
-40,-41,89,48,39,30,12,52,107,64
110,-20,35,-4,-11,-28,-36,31,100,67
106,-90,-112,-57,-73,-83,-59,9,38,54
72,-102,-86,-92,-122,-103,-42,12,12,53
75,-36,22,-77,-123,-87,-34,21,10,32
14,-5,116,0,-44,-40,-23,8,-25,-44
-102,-59,122,38,17,-5,-15,5,-50,-99
-146,-137,71,52,50,27,12,41,-20,-72
-138,-188,-74,-7,6,6,15,32,-24,-41
-74,120,-94,-85,-74,-77,-61,-78,-92,-2
28,419,96,-23,-53,-82,-91,-148,-105,55
52,424,177,36,0,-53,-54,-113,-56,37
48,372,146,51,34,-23,23,-3,-2,37
8,81,44,20,16,-17,14,68,11,6
-84,-259,-15,8,24,-2,-5,69,16,-39
-100,-7,87,41,32,2,-48,55,-18,-100
-16,290,290,113,64,10,-43,0,-63,-113
-14,7,236,116,69,15,3,-3,-35,-49
-71,-434,-105,16,42,32,39,68,72,57
-11,-386,-361,-100,-27,8,8,62,78,79
30,-341,-310,-103,-41,-18,13,24,75,81
5,-278,-161,-68,-16,-8,52,22,65,29
55,0,-22,-30,-5,-13,69,42,64,-14
81,166,76,24,36,10,67,19,6,-110
91,322,125,49,36,-6,14,-29,-34,-149
86,326,61,-5,-24,-64,-66,-87,-57,-172
182,600,159,-36,-88,-129,-122,-120,-79,-175
292,696,307,-18,-79,-123,-108,-90,-68,-110
301,276,127,-59,-53,-54,-10,6,35,44
107,-196,-46,17,27,30,52,30,27,35
-52,-354,12,108,94,77,52,-4,-6,6
-111,-270,71,117,125,94,66,12,42,31
-177,-221,-43,67,95,80,33,34,72,5
-156,-378,-249,-9,43,28,-44,22,56,9
-128,-353,-368,-98,-1,-4,-60,9,18,-29
-119,-441,-579,-230,-59,-13,25,83,38,14
-66,-369,-412,-135,-45,-17,32,52,17,72
25,-174,-147,4,5,-11,1,4,12,175
-5,-103,-158,-14,13,6,-5,14,26,156
-62,52,-106,-40,-13,-10,-14,-39,-8,32
-25,172,66,18,9,-26,-29,-103,-64,-20
-19,154,194,83,35,-17,-62,-147,-97,-51
-3,114,228,95,62,16,-56,-120,-67,-38
44,106,218,84,51,22,-38,-82,-33,-25
109,-54,61,10,-2,9,-43,-50,17,85
101,-62,-146,-56,-31,18,-45,-17,59,101
57,2,-219,-95,-70,-34,-105,-31,36,-10
72,-46,-145,-84,-91,-97,-157,-81,-24,-116
205,17,-83,-78,-97,-108,-143,-104,-24,-66
303,99,-37,-33,-59,-72,-84,-80,-9,-3
229,116,22,-9,-41,-60,-83,-97,-63,-58
-13,-45,-50,-14,-54,-46,-51,-63,-72,-95
-170,-78,-19,11,-28,16,60,21,-15,-46
-166,63,160,59,7,51,97,59,19,20
-81,231,245,83,18,51,95,57,16,51
50,304,147,-5,-9,48,97,78,43,79
35,52,-25,-27,1,53,105,76,12,108
-109,-130,-110,-6,21,35,108,51,-10,79
-32,3,-49,-16,-23,-16,60,24,34,119
98,8,-14,-1,-26,-37,3,7,37,117
108,86,14,-14,-33,-43,-9,-28,-19,7
49,12,9,-32,-34,-27,1,-23,-35,-47
-22,5,147,63,2,-21,-14,-52,-61,-51
-98,112,214,105,35,2,5,-7,-18,-27
-229,220,116,61,38,35,42,65,47,-18
-228,319,48,24,25,9,-4,28,11,-73
-205,-146,-100,6,55,27,11,16,-4,-88
-200,-473,-215,-1,73,59,48,76,53,-21
-200,-308,-83,52,86,52,32,69,53,-4
-196,-22,107,92,95,44,26,32,38,-49
-117,190,197,84,85,32,48,19,55,-58
-18,257,112,22,32,8,51,13,54,5
-74,-160,-73,-15,19,55,104,84,76,50
-111,-548,-277,-45,21,95,151,143,110,56
-23,-229,-218,-74,-4,44,85,68,66,14
51,-37,-111,-83,-12,42,68,40,33,-3
36,-119,-120,-38,20,82,94,49,27,0
19,-23,-96,14,33,45,36,-31,-30,-21
31,94,36,43,35,0,-11,-96,-77,-42
32,48,16,1,20,11,42,-39,-30,9
-22,-181,-131,-87,-18,21,78,40,23,61
-46,-130,-196,-115,-42,-7,6,7,-8,24
18,53,-26,-64,-24,-36,-87,-47,-59,-25
65,135,44,-14,-2,-44,-120,-58,-75,-38
87,110,-44,14,3,-44,-113,-27,-77,-44
106,105,-53,-1,-7,-45,-88,-21,-79,-28
124,161,57,-23,-30,-28,-58,-21,-53,12
131,175,64,-35,-25,-16,-53,-10,-26,16
116,154,60,-64,-29,-23,-60,1,-28,-13
94,78,10,-79,-41,-26,-60,17,-35,-28
49,27,43,-3,4,-23,-73,-24,-67,-60
-8,-100,173,98,62,15,-49,-42,-63,-84
-105,-300,110,101,97,55,-4,-1,-17,-76
-44,-191,29,49,60,17,-28,-5,13,26
38,-34,-2,35,17,-3,-67,-21,15,113
28,26,41,7,6,6,-57,15,14,64
10,56,88,-9,-23,6,-60,41,7,15
11,149,116,-42,-63,-7,-48,24,-9,-8
-3,66,61,-46,-44,38,33,64,17,-20
-20,-53,-15,-29,-16,70,92,87,30,-2
-22,-47,-2,0,7,50,86,49,-11,-34
-60,-63,23,25,41,67,70,47,-20,-70
-75,-107,15,37,52,83,49,68,-1,-43
-75,-73,60,51,39,58,50,53,34,-22
-77,-90,98,56,21,25,59,22,40,-51
-25,-94,70,24,-3,2,41,3,28,-45
80,103,108,-11,-42,-33,6,-14,26,-6
121,245,193,-11,-54,-50,-9,-23,13,11
113,296,219,-10,-66,-64,-27,-54,-14,7
117,335,195,11,-59,-64,-59,-76,-41,-52
134,177,126,22,-38,-49,-52,-82,-43,-75
142,-52,-76,-38,-41,-33,-51,-62,0,-4
115,-144,-192,-72,-35,0,-16,8,56,56
65,-75,-126,-48,-36,8,29,74,78,68
-68,-31,-15,6,-31,0,50,78,39,-22
-159,37,30,22,-12,16,89,96,28,-70
-167,85,-88,-3,-16,29,105,109,52,7
-131,136,-38,-13,-20,20,43,53,-6,11
-39,171,37,-64,-13,21,-19,-34,-76,-11
6,44,-36,-113,-12,30,-22,-14,-50,7
-21,61,128,80,43,13,-40,-33,-85,-35
36,78,193,134,35,2,-20,-13,-61,-7
14,-187,81,119,72,64,64,76,0,6
-11,-403,30,109,98,88,63,91,53,38
-27,-309,24,72,73,53,7,46,66,103
29,-24,49,42,41,8,-36,-19,8,68
148,73,0,45,51,19,-22,-37,-33,-21
160,22,-88,24,57,39,29,15,-7,-45
136,-217,-274,-58,3,17,25,18,7,22
141,-182,-238,-90,-44,-33,-25,-21,-12,38
156,38,-60,-37,-34,-42,-61,-55,-61,-37
39,56,-55,-14,-7,-37,-76,-58,-57,-48
-134,-32,-83,-7,2,-29,-62,-11,17,33
-197,-36,33,31,15,-17,-59,-2,41,34
-230,-47,34,54,15,-12,-53,-20,32,21
-258,-134,-56,47,13,32,4,17,46,41
-213,-173,-50,17,-1,56,40,49,47,17
-125,-122,-27,-15,-43,13,29,5,8,-53
-86,-85,-5,-30,-37,-31,0,-23,-13,-92
