-17,-1,-8,37,68,55,40,41,40,11
-9,-24,-66,26,42,38,38,34,31,8
-7,-18,-24,14,20,35,56,13,15,19
6,8,14,11,27,38,56,-3,-19,33
8,9,24,30,27,29,19,-32,-36,0
1,4,-53,35,10,4,-17,-62,-50,-44
4,22,-77,25,29,-8,-22,-69,-36,-36
13,45,7,29,46,4,-12,-58,7,9
28,20,56,31,21,19,8,-34,29,13
12,-18,21,17,-16,-14,0,1,42,-8
0,-36,0,-3,-20,-19,22,64,98,32
6,-34,29,12,7,7,40,81,92,29
14,-37,40,21,6,5,16,43,33,-11
12,-45,19,0,-10,-4,16,25,5,-16
20,-39,22,4,-7,-10,-8,-4,-17,-21
11,-26,32,-2,0,-7,-41,-30,-45,-33
6,-28,31,-4,-5,16,-33,-41,-70,-51
-1,-24,30,9,-1,22,-28,-49,-88,-24
0,-10,48,18,-8,-27,-79,-65,-76,8
13,24,64,24,-15,-56,-119,-85,-79,7
14,11,49,8,-22,-55,-105,-125,-134,-76
-3,-2,21,-6,-5,-32,-53,-127,-148,-91
-6,-1,14,-16,7,-21,-23,-106,-149,-34
-4,-6,9,-9,5,-19,-1,-44,-130,8
-6,-18,16,0,6,5,12,24,-90,11
-6,-13,20,13,22,12,17,71,-72,-1
1,-12,-5,14,18,0,22,48,-44,8
-5,-24,-31,1,5,8,31,77,0,47
-14,-29,-23,7,0,10,-15,181,80,59
19,4,-9,30,40,-3,-72,142,132,77
35,3,21,23,40,-5,-87,17,84,75
15,-62,0,-29,-4,-39,-169,-26,-151,29
3,-45,9,-24,-8,-33,-119,-47,-114,-20
-7,-14,15,-4,-2,-7,-38,-15,24,12
-3,-8,12,-7,-3,9,-29,5,36,24
7,-23,23,-11,-4,18,-28,-6,19,-21
7,-14,27,-18,1,16,5,-26,13,-17
4,-9,19,-20,-4,20,21,-46,4,-25
-6,-3,11,-29,-31,30,-10,-47,-2,-25
-4,-5,-2,-34,-39,36,0,-37,3,-15
7,-11,-8,-35,-37,23,22,-42,-3,-26
-9,-6,2,-22,-29,22,51,-7,33,5
-27,-16,-2,-15,-19,34,79,20,63,-16
-16,-11,-5,-15,-17,30,81,29,75,-18
-1,0,-5,-23,-34,19,62,13,52,-90
-3,17,-10,-23,-37,31,42,-4,34,-114
-21,10,6,-8,-21,48,7,-6,42,-82
-30,10,-39,9,-1,48,18,6,56,-44
-20,8,-46,9,-7,34,7,-17,21,-103
-5,8,22,15,-4,26,-23,-37,11,-92
0,22,28,29,5,22,-31,-23,31,-6
11,18,20,9,0,9,-43,-19,32,24
8,10,-2,-4,-15,-3,-38,-10,19,15
-3,6,-4,-28,-8,3,3,17,-1,-9
-7,-7,4,-42,4,9,26,16,-13,-1
-5,-2,8,-46,-11,17,9,-3,-34,-48
-1,1,18,-41,-20,7,-4,-27,-68,-103
-10,-4,13,-35,-25,0,-4,-30,-79,-108
5,9,-2,-36,-13,-7,-32,-29,-64,-97
16,13,12,-31,9,-4,-36,-21,-39,-80
3,15,-3,-22,12,5,-34,-13,-35,-80
-13,-1,-19,-29,2,12,-10,3,-41,-68
-8,-16,-25,-31,-4,15,-8,19,-39,-61
-3,-6,-23,-31,-5,14,-13,16,-37,-53
-6,-15,-22,-21,1,4,-22,9,-50,-61
-15,-17,-16,-26,13,-1,-11,-1,-51,-52
-20,-9,-18,-9,21,5,11,-16,-26,-42
-17,9,-31,3,40,10,28,-39,-34,-44
-10,18,-21,-11,16,9,25,-56,-65,-31
-8,0,-16,-26,4,-6,21,-65,-57,-9
8,13,-9,-23,0,-36,-5,-60,-45,0
23,24,1,-12,2,-20,-25,-61,-42,0
17,15,-6,-14,-12,-1,7,-4,-24,-5
10,4,-19,-6,-2,-3,26,77,19,-5
24,3,-17,4,16,-13,5,124,74,14
15,-4,-15,-3,18,-20,-18,99,90,37
-4,-2,-10,-26,1,-27,-49,59,83,52
3,-6,-14,-33,-15,-46,-75,26,65,39
8,-16,-41,-27,-25,-35,-39,27,76,42
0,-33,-52,-30,-30,-7,27,68,96,40
-11,-20,-46,-36,-25,-12,22,72,82,38
-3,-15,-127,-35,-26,-28,-1,39,68,28
4,12,-187,-17,-28,-17,6,27,77,47
11,33,-102,2,-24,-13,8,9,59,32
9,35,-4,19,-20,-16,16,-8,29,12
12,22,17,36,-7,-10,37,-11,11,8
23,25,15,29,-4,-1,32,-4,8,25
13,15,32,15,-5,-26,-11,-19,-2,16
16,20,35,30,2,-40,-24,-33,-22,5
20,46,26,40,21,-28,-19,-35,-38,0
17,58,-62,25,28,-17,-22,-28,-56,13
1,20,-135,-2,11,-1,-11,-22,-75,9
-3,3,-56,-15,0,10,10,-24,-76,9
13,15,25,-28,-2,-7,-7,-44,-77,22
6,0,14,-41,-4,-3,3,-19,-59,12
-11,-32,4,-40,-2,20,35,54,-8,8
-15,-16,-8,-27,-7,13,53,62,14,19
3,-3,8,-20,-9,8,35,32,-3,21
14,5,1,-17,-11,2,3,16,-4,24
10,-2,12,-6,-8,7,1,8,-7,19
9,-18,17,10,-4,24,9,-9,-9,18
9,7,-4,31,1,27,5,-15,-14,16
3,9,-45,43,9,23,2,-27,-38,6
-14,8,0,36,20,0,7,-38,-40,-7
-33,37,26,44,31,-3,-4,-43,-12,-24
-34,41,37,32,32,3,-26,-40,-24,-32
-36,18,26,0,18,1,-23,-14,-35,-1
-35,4,17,-3,18,-13,-16,0,-18,5
-28,-3,16,-7,9,-5,-3,28,9,-13
-18,-2,16,0,7,17,22,32,14,-7
-9,3,24,5,1,18,30,15,18,0
-16,6,8,15,-6,30,75,23,38,4
-27,4,-2,10,-18,49,117,60,61,1
-36,-1,-18,14,-22,28,93,42,66,-1
-37,-5,-2,22,-19,15,56,11,47,-5
-27,-5,36,29,-15,5,26,2,25,-4
-24,-20,23,21,-18,-3,-12,14,39,-9
-9,-1,25,25,-11,-10,-40,4,17,-11
9,35,49,48,7,-21,-74,-40,28,0
20,43,52,55,26,-23,-83,-84,18,5
7,10,21,24,15,-5,-36,-113,-34,-5
1,-5,21,-2,-8,-28,-25,-114,-61,16
-1,-11,10,-8,-19,-36,-36,-82,-47,36
-7,-26,1,-16,-29,-32,-46,-65,-50,2
-11,-14,14,-14,-20,-42,-49,-68,-60,-11
-3,-7,30,-3,-18,-25,-43,-39,-44,2
4,-3,26,2,-11,-24,-31,60,19,25
22,24,14,0,2,-32,-17,200,88,44
45,17,6,-6,0,-26,-27,166,61,47
40,-6,10,-7,-8,-20,-28,90,-2,37
38,2,7,-18,-11,-7,-20,65,-9,36
54,18,-4,-16,-9,0,-14,51,-10,52
50,9,-39,1,0,-15,-37,2,-26,22
45,0,-11,6,-5,-21,-30,-4,-16,24
35,8,22,10,-22,-4,21,22,-3,15
28,8,10,18,-26,-10,34,29,-6,7
33,-3,-14,17,-17,-12,51,5,-4,7
42,7,15,22,-15,4,44,-14,11,14
35,13,25,26,1,17,30,1,25,37
39,-14,5,36,25,14,16,0,13,20
43,-37,-10,32,15,14,-12,-46,-7,-22
39,-35,-21,16,5,17,-29,-33,0,2
32,-24,-75,7,16,-5,-37,69,68,92
20,-27,-43,-2,28,-15,-23,120,120,101
28,-38,-5,-2,22,3,10,78,117,85
36,-35,-9,-8,31,20,54,42,103,124
32,-29,1,-2,25,22,57,42,74,104
20,-22,8,7,18,22,45,29,59,67
26,-20,-20,22,22,20,46,61,111,122
24,-3,-40,44,42,31,61,120,164,132
31,1,6,43,34,40,45,104,135,113
30,4,12,17,4,35,25,56,99,105
16,2,9,3,-1,34,36,46,91,67
3,0,-39,7,0,12,26,35,52,39
18,11,-92,9,6,-8,3,12,47,51
33,24,-42,4,7,-10,-3,7,31,57
25,15,15,5,0,-9,3,13,29,81
20,3,24,20,-3,-13,6,0,-10,37
-2,30,-12,36,3,-33,-10,-34,-64,5
-17,41,25,28,8,-39,-4,-12,-47,-5
-22,10,47,-1,5,-33,7,-8,-32,-57
-36,5,30,-13,3,-9,17,-20,-52,-128
-33,13,-1,-19,8,2,24,-10,-45,-135
-28,14,9,-8,33,0,52,-25,-31,-118
-19,27,15,3,64,15,65,-23,11,-30
-8,24,23,-1,53,21,62,-18,11,17
12,45,61,1,35,5,0,-10,-2,17
24,61,75,6,36,-10,-49,6,4,27
11,33,44,0,16,-8,-44,-48,-48,-56
-17,0,32,-10,1,0,-19,-56,-45,-87
-22,-14,28,-20,13,-16,-15,-36,-15,-24
-25,-1,25,-42,22,-11,-14,-20,-16,8
-24,-12,14,-49,16,8,-8,-12,-38,-5
-27,-39,0,-32,3,6,11,8,-43,4
-35,-40,-2,-35,-2,-2,21,9,-33,-20
-27,-34,8,-37,-12,3,36,8,-25,-17
-15,-34,6,-40,-22,22,37,43,12,13
-21,-43,4,-25,-20,33,18,56,37,4
-2,3,13,-2,-6,11,-14,-16,12,-19
7,21,13,-3,-13,6,-11,-58,-1,-3
-3,-3,0,-9,-20,1,31,-49,6,-9
-6,-11,-15,-12,-23,-7,44,-48,3,-40
4,-8,-79,-15,-3,4,49,-43,7,-1
17,-20,-27,-12,0,4,45,-40,10,-3
16,-3,19,4,12,4,34,-37,0,-23
18,6,28,12,17,4,9,-8,0,-4
20,15,15,16,32,4,-2,-19,24,10
3,10,14,15,36,-2,13,-58,2,-39
-7,-8,25,1,13,5,49,-62,-26,-82
-9,-7,23,3,11,24,63,-27,-14,-17
-13,12,13,-2,13,31,49,-16,5,16
-9,27,26,-5,10,28,43,13,35,30
-12,15,33,-21,21,41,62,84,70,6
-9,22,28,-20,26,48,70,94,85,23
9,28,19,-21,24,41,31,67,53,38
5,24,10,-20,19,25,7,30,-3,-3
-3,12,23,-25,0,5,6,-15,-53,-93
-11,8,13,-13,-6,-3,0,-32,-77,-143
-19,-1,5,-15,-7,2,-15,-31,-78,-142
-5,-2,-27,-22,0,3,-22,-50,-91,-126
10,-9,-137,-23,5,-10,-24,-75,-104,-120
27,-4,-127,-6,13,-14,-28,-83,-88,-109
24,-8,-9,-13,-1,-17,-54,-67,-75,-94
9,-32,23,-21,-19,-10,-45,-26,-68,-93
1,-29,14,-3,-6,-16,-28,-7,-62,-90
5,-24,2,16,-2,-44,-61,33,-15,-63
27,-6,29,22,-10,-37,-70,44,0,-30
28,0,34,22,-13,-32,-76,-6,-28,-33
15,-4,23,25,-7,-34,-69,17,5,-29
23,5,26,33,9,-17,-70,12,38,36
15,-10,11,24,-12,-17,-50,-6,35,3
-8,-25,8,29,-6,-7,-2,33,67,-10
-4,4,6,38,0,15,23,46,70,65
-11,5,-68,42,1,26,34,77,71,73
-12,-6,-41,30,5,14,54,117,80,64
0,4,11,20,-3,-9,50,83,60,23
3,-14,12,10,-14,-15,33,54,38,-55
-2,-15,-1,3,-26,6,2,41,28,-76
3,-10,-15,12,-22,32,1,31,23,-69
10,-19,-6,13,-31,35,-2,24,29,-62
15,-10,8,12,-47,0,-47,4,27,-47
16,-7,19,26,-33,-20,-63,-3,27,-32
25,10,34,25,-13,-12,-53,-18,33,-25
11,30,30,38,10,14,7,-27,40,-24
0,40,34,56,18,39,19,-18,60,3
3,30,39,55,31,37,27,4,86,102
0,18,-5,42,31,12,39,12,74,126
0,11,-42,23,-2,1,32,2,37,104
-4,2,22,13,-10,7,-5,-32,-12,15
-1,-6,22,3,-14,11,-32,-48,-65,-40
2,6,13,-2,-14,2,-40,-64,-77,-46
0,18,9,8,-9,-5,-37,-52,-45,-39
-7,-6,-17,-1,-13,-11,-32,-21,-22,-25
-12,-24,-27,-24,-30,-13,-24,-22,-31,-20
-17,-24,-27,-39,-39,-20,-34,-18,-37,-13
-15,-35,-34,-43,-49,-37,-36,0,-39,-3
-14,-34,-38,-46,-61,-23,-7,8,-36,-2
-10,-37,-48,-44,-59,-2,-4,32,-31,4
-3,-16,-40,-17,-49,0,0,48,-12,5
7,-26,-21,6,-35,0,19,39,-15,-10
10,-13,-4,21,-19,5,-5,-3,-37,-30
24,-3,27,45,1,9,-52,-59,-61,-22
28,8,27,48,5,22,-66,-79,-80,-11
24,19,12,25,-1,26,-44,-42,-47,13
13,13,-11,4,-1,14,-4,34,25,115
6,15,-10,3,14,-3,4,58,78,197
3,35,-14,-2,40,6,10,39,108,169
-1,42,-8,-12,39,11,6,47,110,159
20,14,-7,-31,-3,15,18,61,88,134
19,5,0,-25,-13,-1,9,22,45,59
8,10,7,-7,-24,-38,-68,-25,-3,-20
7,9,-60,-6,-36,-32,-101,-38,6,-41
1,-8,-156,-12,-41,-21,-79,-38,7,-58
-2,-20,-181,-27,-41,-19,-35,-29,-1,-65
-7,-33,-190,-29,-46,6,12,3,9,-21
-8,-30,-110,-38,-31,24,50,44,49,49
-5,-29,-6,-50,-11,35,59,40,49,62
-16,-34,13,-50,-7,32,48,18,33,51
-15,-36,13,-43,0,25,42,-1,27,-17
-14,-27,41,-33,4,14,32,-26,39,-16
-12,-5,35,-15,0,-9,21,-55,71,47
-17,11,-34,-3,6,-9,16,-4,73,79
-20,34,39,14,16,7,20,67,61,64
-10,49,120,40,21,7,12,72,68,24
-16,39,116,50,17,-10,3,25,45,-5
0,27,87,36,24,-7,6,-3,8,21
-1,6,65,5,5,-6,10,-25,-23,18
-11,-9,36,-38,-2,-19,-10,-30,-51,-10
-8,-12,6,-47,0,-36,-44,-19,-55,-63
22,22,-8,-31,11,-34,-51,18,-5,-43
27,9,-20,-22,16,-8,-19,18,-6,-39
3,-38,-20,-14,24,-7,7,-8,-48,-67
-7,-43,-5,-28,27,-9,12,-18,-48,-13
-2,-30,-15,-23,4,11,25,-6,-29,46
13,-10,4,0,4,27,54,-15,-45,61
13,-22,19,-1,0,21,42,17,-55,40
1,-25,23,-10,-3,7,41,77,-43,-5
1,-28,29,0,0,6,54,96,-10,59
0,-3,20,16,-3,0,44,111,21,95
-14,1,-28,25,-11,-2,25,95,35,78
-22,-10,16,23,-22,13,9,56,22,19
-28,8,31,31,-20,11,18,43,14,36
-27,9,30,37,0,-7,18,36,3,66
-5,20,40,43,24,-11,8,24,-3,52
-4,24,24,41,16,-13,-16,6,-25,18
-10,2,16,18,-2,-16,-32,0,-50,30
-1,13,30,10,-10,-20,-30,-4,-33,51
1,36,29,10,-9,-13,-21,-30,-46,25
-12,27,-15,-5,-20,1,-13,-60,-96,-63
-19,7,16,-15,-30,-3,-9,-70,-114,-112
-14,16,20,-18,-38,-23,4,-76,-94,-103
0,42,-66,-7,-23,-2,40,-61,-46,-40
0,18,-2,8,-24,19,61,-35,-16,17
4,4,38,21,-13,25,53,6,19,7
3,19,32,6,-7,8,35,12,41,-13
-8,23,14,15,-4,-19,43,34,60,28
-3,7,-1,25,3,-15,42,27,45,32
2,-6,-7,18,12,-12,32,17,21,6
23,5,-12,24,24,-20,12,-22,-25,-31
30,-2,-5,50,33,-13,-3,-48,-63,-25
16,-22,7,49,21,0,-1,-45,-78,-21
5,-18,-9,8,0,-10,22,1,-52,19
10,-21,-25,-24,-13,-10,43,40,-29,6
15,0,-20,-18,-15,2,32,60,-6,20
12,14,-48,-5,-4,27,-7,52,0,13
3,17,-1,-8,9,40,-25,28,19,28
9,25,6,11,33,23,-39,-2,30,27
12,46,13,26,37,11,-68,-40,18,20
19,47,20,19,-2,-1,-81,-64,-9,11
10,19,19,27,-13,6,-58,-46,6,29
-1,5,13,46,-3,18,-45,-47,-10,3
-10,5,30,54,11,16,-33,-44,-23,-13
-5,21,27,48,6,0,-36,-49,-40,-33
1,20,23,33,3,-6,-17,-22,-7,-4
-10,0,-30,17,3,-5,0,-1,11,-13
-12,3,12,5,-4,-2,-5,-8,12,4
-24,3,30,-19,-2,3,1,6,17,16
-33,0,1,-45,-11,-21,12,53,50,12
-27,-6,-11,-41,-12,-24,19,63,77,34
-18,-9,-6,-30,-4,-19,23,32,49,32
-2,6,-5,-20,5,-22,21,17,51,49
4,2,13,-14,2,-19,31,14,59,35
11,-4,34,-12,2,-1,27,16,54,28
6,-4,36,-22,6,0,24,10,34,24
2,-7,32,-22,20,-7,-19,-1,-1,-1
-6,-1,28,-25,20,-10,-32,-18,-27,-4
-9,4,13,-37,16,0,-27,-14,-52,8
-16,-6,-3,-49,11,-12,-41,-46,-110,-44
-31,-19,0,-58,-2,-21,-25,-108,-147,-28
-39,-10,24,-61,-24,-21,15,-161,-200,-44
-36,13,33,-58,-27,-30,-5,-182,-225,-52
-41,13,42,-57,-34,-41,-36,-219,-263,-139
-44,7,31,-50,-41,-32,-34,-217,-261,-178
-37,2,18,-38,-29,-29,-27,-168,-224,-161
-20,17,33,-5,16,-34,-106,-44,-146,-121
24,56,39,28,56,-64,-185,153,1,-61
75,85,14,5,91,-12,-110,172,91,-1
66,72,-3,-24,126,61,21,114,90,28
10,21,-27,-21,121,72,48,73,37,15
-42,-17,-42,-19,96,60,55,62,17,-6
-59,-27,-45,-60,5,44,56,73,20,-29
-30,-2,-49,-98,-77,34,49,96,47,5
-10,3,-134,-72,-56,38,53,93,92,62
4,21,-155,-29,-7,37,27,71,109,94
7,27,-50,-19,20,35,31,74,120,72
10,11,41,-10,20,35,38,87,125,98
15,16,44,11,12,32,14,35,108,118
32,35,33,16,18,41,1,2,80,123
24,34,21,3,30,41,21,20,75,129
23,38,48,0,34,47,36,35,105,169
28,47,1,0,34,29,22,22,103,134
-16,46,-94,-4,37,29,44,59,135,132
-45,17,-24,-1,21,51,45,72,117,91
-34,0,38,3,24,48,36,32,73,41
-29,-15,36,-1,23,25,22,13,50,41
-28,-22,29,16,16,11,-6,1,29,31
-20,-12,30,26,17,1,-16,-45,-37,-49
-11,3,37,18,1,-17,-9,-81,-98,-108
-5,4,30,8,0,-46,2,-73,-83,-55
-27,-15,14,-5,-23,-53,15,-38,-57,17
-28,-30,7,-12,-49,-44,26,-41,-87,-7
-18,-15,3,-13,-53,-49,3,-73,-131,-85
-21,-20,-3,-13,-44,-29,-23,-67,-129,-124
-29,-36,-31,-28,-38,-8,-3,-36,-104,-119
-11,-18,-13,-26,-12,-16,6,3,-37,-49
22,19,4,5,9,-25,9,35,24,55
36,30,5,37,26,-17,53,33,32,59
24,8,3,38,11,-19,69,27,-3,8
-3,-39,0,14,-15,-20,65,-6,-54,-94
-2,-31,-3,-5,-28,-3,53,-32,-57,-117
-9,-32,-6,-23,-33,7,30,29,-20,-103
-10,-33,12,-26,-22,0,-19,102,33,-80
6,3,35,1,-9,-31,-78,-11,8,-73
6,17,53,9,8,-27,-82,-103,-33,-78
0,3,41,8,1,5,-42,-110,-62,-88
4,-11,34,13,-15,-4,-14,-94,-66,-86
4,-15,37,-6,-12,-23,3,-66,-59,-74
10,-14,25,-13,-7,-14,19,-30,-38,-61
21,-16,11,-1,-5,-17,17,-16,-26,-44
30,-27,0,3,-1,-20,-3,6,-11,-37
29,-20,-37,0,-1,-3,-5,32,26,-5
28,-8,-18,2,12,15,-4,33,51,14
8,-10,-7,-4,17,16,-9,24,75,13
-12,-13,-12,-5,18,-8,-11,11,86,-14
-18,-20,-17,-20,8,-16,23,21,81,-27
2,-19,-9,-18,8,0,17,0,49,-23
5,-3,8,-11,6,-16,-19,-33,-5,-37
7,8,10,-11,-2,-28,-33,-67,-62,-44
10,26,3,4,15,-28,-21,-106,-88,-46
12,30,-1,29,9,-21,-19,-146,-109,-56
6,4,0,23,-5,-9,-23,-187,-136,-57
6,5,-9,5,-25,-5,-39,-219,-163,-61
8,3,-34,-14,-40,-19,-17,-204,-140,-53
15,-19,-32,-36,-50,-27,-4,-150,-105,-49
28,-4,-6,-24,-48,-22,-62,-62,-41,-38
28,15,12,-3,-27,-23,-80,164,105,-2
35,30,7,16,-19,7,-36,318,186,48
40,22,-18,28,-11,42,-9,287,162,62
38,31,-32,26,1,63,16,181,109,59
36,21,-136,4,-3,65,36,130,82,61
24,-6,-170,3,-6,55,38,98,73,39
0,-30,-85,12,-18,28,44,56,69,18
-30,-44,-38,19,-34,-24,14,1,25,-27
-60,-48,-38,5,-32,-41,-13,-5,34,-46
-55,-20,-48,-35,-48,-23,-31,30,72,-18
-34,-36,-28,-33,-50,-15,-36,46,59,2
-22,-41,-22,14,-12,1,-21,70,49,-4
-9,-16,22,30,7,23,12,70,79,16
0,-14,13,16,-4,32,47,61,87,35
1,-14,-10,0,1,49,84,70,96,79
7,-10,22,13,10,56,92,75,97,62
8,0,20,16,4,44,73,65,90,57
11,5,19,17,-11,40,77,40,84,59
18,13,20,27,-15,35,39,15,59,21
20,14,-27,31,-3,25,-13,-4,45,8
34,9,-42,40,0,13,-33,-19,36,0
46,6,42,59,-9,-5,-10,-22,15,0
38,1,-2,45,-17,-25,-22,-21,-12,-2
11,0,-108,32,-21,-32,-21,-19,-35,3
-2,-4,-116,22,-30,-52,-26,-37,-60,11
-3,-8,-41,-4,-46,-60,-35,-56,-60,-16
-7,-14,9,-25,-51,-57,-34,-41,-67,-29
0,-32,-2,-38,-47,-40,-12,-8,-66,-32
-12,-22,-11,-30,-39,-14,-4,4,-64,-27
-8,-32,-56,-16,-18,-21,-22,-20,-74,-40
0,-10,27,-1,-10,-8,-25,-10,-30,-22
25,18,59,7,14,16,-17,10,40,19
29,8,54,6,34,28,-48,-43,19,29
20,-8,50,2,34,33,-40,-57,12,25
19,8,40,-2,31,49,7,-9,31,18
28,10,-51,-6,12,38,18,-2,-6,16
43,0,-56,-4,-2,11,3,-18,-30,25
23,-5,32,-9,-15,-7,2,0,-2,19
-15,-17,33,-9,-21,15,4,48,34,1
-14,-9,35,-10,-27,10,-13,38,4,-3
-4,15,48,6,-22,-21,-39,-14,-20,2
1,29,58,14,-21,-40,-16,-36,-11,2
-7,16,48,15,-27,-10,-9,-23,0,8
-2,0,52,19,-21,-3,-18,-21,2,12
-10,-1,47,21,-18,-27,-17,-26,2,5
-21,20,46,32,-24,-40,-45,-30,-4,0
-16,25,52,42,-13,-26,-61,-55,-15,2
-29,22,28,36,-9,-24,-46,-71,-22,1
-41,18,-18,23,-14,-10,-20,-60,-17,15
-47,2,18,6,-16,-6,9,-43,0,3
-42,0,21,7,-27,-17,36,-45,7,-15
-24,0,19,7,-10,-3,69,-21,26,6
-10,-10,19,6,20,30,87,4,43,30
-1,9,26,21,41,51,90,54,82,38
10,14,20,35,50,41,45,39,85,36
8,-5,-3,44,39,3,-21,24,56,64
9,-46,-77,11,21,-54,-121,45,-100,96
-5,-12,-16,18,9,-10,-39,86,-4,40
-8,3,56,17,10,33,15,80,28,-2
-8,-10,56,20,-3,33,17,63,20,-8
-31,-7,0,20,-20,32,-1,58,21,-4
-37,-16,-109,9,-46,23,-17,61,-1,-19
-39,-21,-31,1,-49,18,-26,38,-19,-35
-44,-28,37,20,12,11,-42,-19,-44,-52
-57,-45,29,39,119,19,-87,-79,-67,-73
-53,-18,33,43,158,13,-101,-98,-84,-65
-21,11,52,46,105,14,-98,-89,-64,-44
7,25,63,36,31,8,-77,-69,-9,-32
41,63,52,46,-50,-23,-45,-29,45,-6
71,78,57,64,-110,-38,-19,-23,38,14
97,56,24,42,-77,-28,-4,-19,18,28
97,33,-87,37,4,-30,22,7,20,27
47,-1,-43,54,46,-34,38,1,0,1
4,-26,-18,0,34,-37,10,-27,-36,-22
0,-29,-12,-41,-11,-57,-6,-63,-62,-35
-10,1,-18,-44,-40,-56,-15,-69,-49,-33
-28,20,0,-26,-18,-33,0,-50,-12,7
-49,15,68,6,6,2,15,-32,-9,67
-50,17,104,45,15,0,-27,-42,-7,66
-63,-6,96,89,22,-9,-42,-83,7,75
-83,-12,66,120,22,-27,-15,-43,41,61
-39,-5,9,89,11,-12,38,103,172,93
16,-5,-45,28,0,15,46,153,224,143
15,-6,-76,-34,-9,2,-3,121,193,164
-4,-28,-67,-85,-20,-1,-33,51,99,118
-9,-54,-92,-109,-21,-12,-39,46,32,68
21,-43,-126,-140,-15,11,16,174,79,104
34,-31,-127,-75,33,83,80,177,85,142
30,-25,-104,19,64,108,85,86,3,122
40,-16,-68,27,40,73,63,8,-54,80
56,12,-46,7,12,39,46,2,-29,96
60,33,17,8,22,59,71,48,21,117
77,54,40,20,53,64,63,13,12,94
72,65,9,42,29,44,21,-85,-47,0
52,52,-102,32,10,39,19,-93,-41,-11
48,47,-57,17,3,14,2,-47,-7,65
33,23,25,1,-6,-7,-1,-25,20,61
1,-16,11,-13,-19,3,41,56,76,22
-18,-22,7,-6,-19,13,57,59,95,-60
-8,0,31,20,-18,0,47,32,83,-17
18,41,79,55,-9,-19,30,-5,30,47
46,55,99,61,-20,-56,-1,-63,-39,-27
31,37,84,50,-47,-66,-9,-106,-108,-133
10,14,0,39,-58,-68,34,-104,-110,-106
3,14,-65,20,-51,-76,34,-77,-68,-23
9,33,17,8,-49,-73,17,-42,-33,-42
13,57,12,-11,-57,-61,5,-54,-20,-44
20,50,40,-48,-48,-54,-2,-51,7,14
36,44,20,-49,-3,-6,14,-7,82,27
15,16,17,-60,44,108,105,116,186,70
3,-14,-24,-83,91,179,195,179,174,60
28,-4,-15,-66,81,169,232,180,140,92
39,-9,11,-26,75,155,223,181,130,101
3,-26,5,9,108,121,142,142,82,29
-32,-47,-7,27,111,87,66,64,21,-39
-35,-44,-8,12,91,56,24,0,0,-4
-23,-57,-23,-25,28,-16,-61,-46,-52,2
13,-41,-19,-44,-13,-80,-158,-88,-87,-15
48,-25,-6,-38,-9,-55,-171,-77,-62,-63
49,-4,8,-23,7,-21,-119,-28,-39,-65
13,-6,-2,-17,21,-10,-46,28,-37,-67
8,-11,-6,-14,42,2,3,58,-9,19
13,-23,-2,-33,29,1,16,48,-3,67
18,-13,-8,-35,13,5,15,26,-3,62
1,-24,-18,-48,-8,24,47,35,-14,23
-4,-34,-16,-54,-26,25,79,18,-10,12
7,-10,-2,-36,-27,3,51,0,11,36
34,43,13,-9,-43,-13,-13,-46,-10,37
44,75,49,21,-31,-36,-55,-84,-17,-3
30,69,81,13,-41,-56,-85,-96,-50,-71
16,58,67,-2,-49,-44,-80,-59,-49,-6
19,46,53,-14,-35,-47,-63,-18,-14,24
15,33,36,-26,-36,-68,-67,-9,-14,24
13,43,40,-23,-54,-78,-99,-63,-52,-40
25,63,57,0,-49,-80,-118,-79,-47,-24
48,75,85,32,-18,-54,-79,-60,-7,49
53,96,84,27,-26,-21,-44,-52,-4,48
28,70,63,11,-30,15,-20,-46,-18,-10
-1,49,57,9,-12,34,-13,-65,-37,-111
16,54,77,6,-11,23,-22,-51,-32,-127
74,54,51,-12,-16,31,12,93,77,-37
103,39,-6,-16,19,67,76,181,130,91
54,-1,-47,21,86,110,102,166,82,130
21,-41,-99,43,109,114,89,107,37,97
1,-66,-182,69,122,113,83,66,-10,73
-10,-71,-88,90,134,124,60,30,-59,35
-38,-73,-38,72,117,85,5,-26,-93,10
-15,-38,-12,25,42,14,-49,-77,-135,-20
-27,-38,-15,-17,-16,-14,-72,-101,-159,-111
-50,-72,-24,-24,-35,-5,-50,-64,-128,-190
-79,-74,13,1,-19,0,-34,-19,-97,-198
-83,-47,48,38,-22,-26,-37,-3,-82,-178
-65,-15,78,68,-45,-75,-68,-39,-92,-146
-46,-8,122,120,-59,-105,-91,-68,-91,-121
-23,25,190,194,-45,-128,-103,-100,-109,-74
-36,45,225,253,-19,-116,-67,-83,-80,-18
-32,61,228,281,-6,-123,-57,-76,-49,3
21,80,182,233,-16,-132,-81,-95,-55,32
38,49,73,81,-67,-143,-92,-90,-43,-7
-3,3,-5,-62,-124,-142,-95,-123,-39,-114
-33,-19,-35,-129,-134,-121,-127,-126,-15,-136
-63,-37,-78,-184,-81,-70,-121,-124,-33,-130
-102,-105,-163,-248,-50,0,-65,-136,-118,-179
-74,-131,-214,-284,-88,25,23,-16,-49,-107
-27,-65,-122,-183,-70,26,37,50,-7,-61
-62,-29,15,-58,-5,13,-28,14,-77,-136
-119,-46,72,-21,11,13,-64,-38,-166,-223
-75,3,102,15,22,43,-27,-80,-176,-197
-41,28,92,32,59,107,50,-35,-106,-125
-61,24,89,61,98,162,114,30,-53,-107
23,84,124,85,86,144,130,92,41,-27
101,111,120,85,57,98,85,164,181,94
96,65,26,50,71,41,-29,193,212,146
21,-21,-90,28,134,52,-78,137,146,91
-38,-79,-143,50,156,76,-61,19,6,1
-50,-90,-152,8,114,95,13,-12,-27,56
-40,-75,-149,-50,46,97,90,19,49,147
4,-81,-239,-158,-4,127,192,147,185,238
14,-64,-280,-208,-18,208,263,232,234,199
6,-20,-133,-221,-53,212,235,150,155,68
-35,1,-74,-148,-38,116,87,-29,5,-11
-62,-16,-89,-166,-68,-6,-35,-135,-95,-23
-57,-31,-144,-232,-99,-22,-56,-126,-107,-7
-23,10,-185,-128,-52,7,-30,-92,-69,20
24,15,-162,-47,16,64,63,-2,29,29
25,-81,-176,-103,55,170,242,170,157,46
-18,-166,-263,-109,125,268,367,262,228,83
-128,-201,-262,-53,180,265,327,150,142,-9
-129,-146,-178,-64,117,200,263,18,41,-82
-37,-49,-51,-66,21,213,241,11,-28,-144
51,46,67,-27,-39,142,200,53,-12,-119
111,93,102,6,-120,-42,93,79,31,-57
122,103,129,50,-144,-153,-46,64,23,-13
124,145,214,136,-96,-186,-164,-12,-14,53
219,289,331,189,-88,-282,-340,-124,-37,152
325,349,311,170,-82,-360,-481,-181,12,232
239,272,194,136,-86,-472,-595,-222,18,222
74,144,109,79,-117,-504,-624,-272,-48,114
-60,-7,0,-30,-93,-324,-427,-189,-56,9
-76,-76,-55,-67,-74,-159,-187,-72,0,-2
-53,-83,-51,-34,-33,-55,-58,-24,25,30
-96,-105,-16,11,39,45,41,8,36,82
-170,-122,28,74,84,120,114,34,24,48
-187,-87,58,108,70,80,114,-9,-22,-17
-129,-46,59,106,56,66,120,-37,-35,-98
-64,0,53,91,33,63,133,23,55,-75
-31,41,91,23,-115,-67,11,0,9,-27
-36,57,107,-19,-237,-174,-99,-75,-73,-18
-65,94,282,143,-189,-175,-101,-139,-117,-67
-19,161,343,261,-91,-56,77,-93,-68,-41
13,158,248,217,-52,64,272,-65,-37,-114
20,140,149,145,-36,127,383,-45,-57,-146
66,100,22,-54,-37,192,450,36,1,-67
116,57,-107,-310,-23,308,506,148,93,34
121,-24,-265,-438,53,378,550,355,255,163
85,-175,-500,-511,135,432,556,560,411,323
23,-246,-517,-332,261,380,350,404,303,286
-61,-241,-379,-32,341,169,4,100,82,110
-34,-150,-234,26,236,-41,-213,-28,16,23
20,-91,-92,20,112,-152,-285,-72,-24,17
-53,-96,10,76,67,-146,-269,-159,-109,-59
-76,-42,174,129,13,-194,-305,-238,-185,-123
-45,51,313,204,-58,-357,-466,-326,-259,-166
-23,115,355,244,-108,-450,-654,-368,-303,-207
-20,166,343,238,-142,-489,-727,-433,-374,-271
-31,183,337,194,-194,-507,-654,-495,-389,-289
108,223,291,95,-199,-337,-386,-327,-203,-96
245,180,48,-115,-115,2,16,73,117,155
162,13,-176,-256,-38,204,238,230,205,152
-42,-154,-266,-340,-30,274,284,180,69,-37
-157,-184,-189,-264,-11,296,312,159,13,-136
-149,-108,23,-99,6,295,323,184,69,-78
-246,-150,110,73,115,384,358,183,61,-37
-458,-268,66,176,212,451,396,115,-79,-198
-475,-308,-63,74,120,456,518,187,-92,-240
-247,-174,-37,73,12,417,644,297,32,-102
-70,-1,84,194,37,321,596,305,89,-51
80,103,60,63,-24,178,458,307,165,125
90,56,-97,-104,-45,53,292,287,234,240
143,54,-113,-129,-10,-42,117,294,311,293
301,204,51,-12,10,-257,-209,184,341,322
326,259,161,83,40,-404,-469,-18,240,223
232,222,206,110,67,-386,-487,-138,133,113
255,229,254,232,124,-311,-375,-108,175,181
96,141,337,431,215,-215,-300,-168,56,31
-100,29,387,530,215,-207,-356,-344,-189,-209
-118,13,458,644,118,-303,-483,-405,-270,-152
-20,105,491,626,-24,-419,-553,-371,-213,-18
-76,86,378,320,-263,-551,-607,-474,-301,-93
-66,115,338,128,-358,-630,-689,-685,-450,-175
44,89,45,-161,-290,-476,-534,-687,-379,-87
133,-8,-254,-415,-195,-126,-73,-459,-208,58
106,-113,-499,-421,12,233,434,-238,-140,169
233,-155,-721,-661,49,477,772,89,113,404
256,-124,-648,-560,137,536,708,242,198,433
73,-291,-721,-386,322,483,437,478,254,218
-58,-380,-760,-555,249,454,329,733,413,139
-171,-326,-484,-415,182,472,267,738,333,33
-107,-153,-115,-50,190,453,143,670,313,73
23,30,163,127,58,194,-58,397,244,123
-27,74,314,206,-98,-169,-268,-20,-32,-90
-72,66,288,-13,-252,-265,-288,-150,-172,-207
-111,105,273,-288,-357,-159,-185,-185,-268,-299
-110,104,119,-429,-336,-16,26,-109,-253,-290
-8,43,-76,-417,-218,275,382,143,-73,-46
136,77,-25,-20,155,653,750,344,75,168
92,-46,-146,192,353,669,821,395,67,152
218,-46,-215,25,92,414,707,427,197,294
228,8,-91,143,37,150,415,188,119,249
8,-92,-78,166,49,-55,89,-152,-146,4
-45,-66,65,230,-1,-202,-126,-360,-272,-76
-143,73,612,665,0,-477,-498,-702,-607,-345
-240,205,1006,886,-75,-652,-742,-800,-787,-559
-120,297,932,775,-217,-814,-926,-505,-517,-421
-53,259,619,490,-339,-989,-1075,-375,-211,-183
-102,148,280,23,-415,-701,-641,-455,-287,-166
-65,102,-42,-558,-476,-218,77,-206,-248,-192
85,-5,-568,-1008,-331,189,587,288,112,136
-34,-206,-768,-692,93,326,570,419,240,169
-54,-214,-618,-199,335,277,372,325,240,60
198,-69,-383,244,521,576,644,641,581,295
129,-244,-511,330,752,795,825,1160,971,358
-222,-486,-663,135,754,484,313,933,736,110
-377,-536,-651,-34,564,164,-182,298,276,-63
-301,-384,-473,-110,374,96,-289,33,96,-38
-129,-154,-154,-38,199,12,-299,5,86,11
-4,22,117,67,-55,-255,-419,-26,101,34
122,165,245,96,-256,-542,-647,-95,120,171
82,173,309,98,-245,-573,-715,-268,-27,117
0,147,376,81,-180,-343,-427,-279,-134,17
27,173,381,11,-230,-224,-155,-206,-118,-9
42,100,118,-163,-209,-131,-46,-167,-105,-31
-79,-12,-190,-412,-286,-179,-143,-240,-188,-83
64,88,-242,-493,-329,-213,-120,-140,-54,61
168,89,-307,-374,-242,-301,-129,-16,80,178
214,83,-225,-248,-130,-297,-111,-21,108,177
293,243,187,199,-5,-210,-25,-10,112,213
223,291,484,511,19,-139,45,21,51,161
115,258,487,373,-43,-91,25,1,-43,93
2,189,366,11,-179,-109,-35,-154,-180,-39
4,193,190,-386,-362,-174,-59,-315,-284,-75
193,188,-133,-785,-427,-39,155,-66,-34,151
172,130,-118,-464,-181,102,210,33,-12,86
119,43,-76,-15,132,266,299,-42,-123,-6
86,-208,-466,-211,240,440,535,69,44,141
-284,-519,-676,-349,330,396,447,-76,-155,-146
-415,-459,-400,-169,324,301,244,-84,-204,-357
-126,-68,55,-16,164,178,118,154,113,-201
73,163,248,132,70,63,126,390,282,-59
148,245,407,420,80,52,194,465,276,49
123,199,577,794,230,-5,62,319,199,115
-145,10,676,965,277,-213,-256,-145,-113,-148
-347,-129,589,869,173,-325,-441,-520,-431,-415
-330,-93,466,434,-69,-306,-516,-647,-542,-508
-186,65,368,62,-174,-178,-512,-565,-454,-403
-78,141,156,-102,-85,-66,-468,-361,-246,-316
199,70,-442,-710,-17,217,-59,211,365,142
214,-186,-905,-952,100,260,175,436,578,370
48,-288,-777,-721,-72,-182,-46,194,310,250
189,-51,-354,-228,-141,-296,-19,260,363,364
216,31,-9,305,141,-142,85,324,370,372
33,-82,-17,326,248,12,159,265,191,157
-115,-90,80,236,77,22,126,43,-62,-43
-50,65,140,-156,-200,-28,94,-104,-207,-114
2,128,80,-517,-378,-46,56,-219,-307,-163
48,113,-31,-557,-371,26,131,-163,-268,-127
303,169,-82,-478,-242,278,467,234,107,261
387,81,-208,-410,-45,479,721,444,290,429
-7,-207,-266,-175,203,373,560,293,27,58
-236,-299,-260,-24,300,312,383,242,-113,-219
-46,-123,-346,-67,323,250,202,345,73,-3
130,6,-258,-46,221,55,-52,402,352,235
202,64,-35,228,251,58,-159,233,372,319
101,0,34,462,338,50,-289,-153,49,73
61,-2,40,432,172,-54,-335,-180,-49,39
-39,-56,79,550,228,-159,-408,-190,-107,-12
-84,-75,13,214,73,-200,-359,-203,-153,-85
-77,-90,-181,-275,-170,-160,-173,-68,-70,-91
-53,-46,-163,-425,-299,-139,-80,18,-16,-109
41,83,-51,-297,-264,-128,-35,181,45,-21
81,55,-52,-172,-110,41,157,378,195,119
50,-60,-100,-112,39,310,471,392,255,170
-62,-81,-14,139,185,410,610,207,100,14
-138,-64,179,362,202,330,520,53,-55,-188
-174,-70,221,404,150,223,333,-63,-172,-244
-54,48,301,373,100,198,212,-41,-117,-76
35,123,330,399,75,122,37,-7,-44,8
70,119,240,331,55,30,-121,33,25,12
21,-18,-45,-57,-23,-176,-361,-77,7,4
-15,-51,-71,-280,-186,-503,-732,-324,-86,-71
-31,38,144,-74,-234,-631,-800,-458,-144,-163
-79,80,213,51,-223,-459,-480,-474,-249,-244
-93,124,388,138,-212,-253,-144,-334,-280,-217
-32,184,540,414,-77,-88,62,-71,-124,-170
-127,64,452,633,56,-69,14,-77,-133,-276
-155,-29,131,286,-38,-58,54,-200,-280,-300
-48,-90,-234,-251,-133,36,241,-229,-264,-163
74,-135,-576,-839,-195,194,418,-120,-81,35
178,-164,-793,-1111,-131,300,403,23,124,198
128,-102,-518,-648,17,249,153,-51,115,177
-33,-54,-115,-111,85,128,-124,-117,-24,-23
-181,-62,222,369,128,-18,-373,-64,-52,-174
-128,29,408,598,70,-154,-574,44,83,-97
-88,95,410,514,-35,-249,-647,-6,67,-94
-78,96,284,279,-142,-224,-475,-268,-169,-160
69,135,-16,-27,-146,-8,-104,-153,-196,-46
255,174,-214,-275,-100,234,305,236,44,196
220,99,-170,-211,-51,207,362,382,131,223
47,-22,-178,-59,81,72,185,207,-23,52
-34,-64,-124,-33,56,23,86,47,-138,-56
6,-75,-191,-263,-52,80,190,67,-61,11
-78,-246,-433,-320,176,237,243,130,-4,-14
-170,-263,-333,-236,335,288,66,282,142,14
5,12,89,-118,162,278,2,477,459,217
69,183,353,-24,9,209,23,404,409,173
144,274,422,20,-119,65,10,258,234,238
288,379,414,167,-174,-145,-121,144,199,291
435,354,17,147,-83,-176,-82,239,355,395
151,-32,-324,184,224,-169,-127,116,204,171
-80,-225,-398,16,171,-119,-99,-37,21,-21
-136,-201,-295,-144,22,0,5,-104,-90,-144
-49,-102,-121,-110,36,112,97,-38,-51,-91
15,-82,-99,-92,20,162,251,53,53,8
-135,-165,-42,79,79,172,324,-53,-111,-156
-170,-125,106,265,110,134,245,-146,-302,-258
-1,88,269,278,44,63,118,-65,-239,-123
8,87,279,259,36,49,-39,-81,-148,-66
-102,-36,162,190,-24,11,-246,-295,-176,-125
-203,-58,253,239,-1,27,-388,-301,-167,-236
-227,0,496,451,45,92,-345,-134,-60,-262
-299,-34,454,548,104,97,-309,-303,-165,-390
-315,-35,280,385,42,89,-255,-365,-266,-430
-83,102,216,178,-69,28,-146,-154,-66,-174
201,149,-72,-340,-224,-83,23,194,294,211
372,197,-153,-399,-171,-66,140,459,492,449
505,389,185,370,69,-116,28,456,506,535
504,339,145,751,188,-262,-78,410,479,564
251,105,-134,593,256,-326,-163,205,263,305
-90,-173,-380,-16,164,-310,-273,-80,-49,-55
-50,-210,-543,-853,-122,-191,-199,-38,-1,1
2,-188,-536,-1159,-293,-121,-164,-14,33,69
-101,-187,-254,-658,-214,-79,-197,-125,-87,-41
-142,-71,197,42,-153,-139,-254,-249,-242,-131
-150,-39,320,281,-215,-239,-279,-325,-325,-190
-159,-38,221,259,-303,-381,-369,-429,-404,-250
-173,-57,69,61,-251,-366,-382,-511,-513,-298
-29,-57,-91,-334,-253,-128,-43,-265,-344,-123
115,54,124,-362,-249,187,386,85,-88,85
55,157,444,84,-46,348,473,166,-126,8
76,249,493,31,-167,349,448,200,-44,17
97,220,198,-314,-350,278,400,178,31,95
66,89,-101,-409,-265,277,318,57,27,123
2,-131,-476,-232,243,418,281,82,158,152
-202,-329,-587,365,788,313,78,-12,133,-2
-243,-214,-175,621,588,-50,-199,-368,-147,-201
-36,50,159,344,98,-205,-153,-270,-122,-104
233,154,41,118,59,17,218,200,264,227
223,9,-315,-125,140,216,398,508,478,316
-36,-180,-446,-345,112,112,105,352,275,55
-45,-111,-315,-352,39,-20,-163,183,168,30
150,38,-201,-271,24,56,-30,313,343,210
169,28,-193,-200,87,62,42,323,336,225
-55,-103,-128,-7,199,-86,-134,96,84,-10
-105,-104,-77,-31,136,-132,-136,94,31,-81
-33,12,57,11,66,-63,-39,135,80,0
36,106,196,114,19,-40,-9,68,52,30
55,136,238,171,19,-47,-10,-42,-5,2
31,109,179,99,-20,-47,-20,-131,-55,-11
6,20,-42,-158,-138,-76,7,-133,-17,29
5,-76,-261,-273,-69,-41,83,-100,12,52
-24,-102,-195,-14,142,-10,51,-87,-2,61
-75,-113,-93,103,202,18,-5,27,53,53
-3,-36,5,57,154,83,6,124,184,99
36,-4,49,45,115,110,5,105,161,86
-46,-43,92,133,99,112,48,57,71,20
-121,-43,188,306,115,76,80,-15,3,-40
-160,7,290,440,81,-9,3,-162,-188,-116
-157,53,349,459,14,-92,-79,-285,-387,-160
-163,21,310,278,-80,-116,-96,-346,-497,-224
-67,41,166,-38,-170,-48,-9,-302,-399,-167
157,133,-6,-260,-210,62,117,-93,-144,65
240,152,-50,-277,-256,3,121,9,-27,251
0,-30,-20,-180,-139,-1,57,-89,-214,97
-200,-176,115,44,-24,-5,-27,-151,-383,-110
-179,-134,272,391,24,-81,-140,-102,-349,-151
-83,-83,218,558,91,-128,-174,28,-166,-88
-134,-124,91,266,-31,-200,-204,9,-107,-71
-189,-60,143,-76,-264,-284,-237,-25,-133,-124
-58,73,93,-394,-358,-257,-142,-11,-11,-13
168,127,-202,-643,-304,-27,90,106,218,197
238,137,-198,-496,-151,172,213,154,283,228
123,11,-252,-319,41,175,260,191,143,163
-38,-103,-185,-34,128,103,208,200,21,89
-49,16,275,365,75,68,127,173,4,61
-17,125,459,540,1,-7,29,9,-88,-29
-63,96,332,485,-50,-97,-25,-73,-145,-133
-222,-57,165,342,-25,-314,-335,-194,-251,-279
-213,-112,-95,-166,-119,-359,-487,-224,-142,-166
70,40,-182,-577,-195,-107,-141,-53,131,147
326,266,109,-408,-225,98,176,123,277,314
359,377,491,181,-105,211,254,98,208,293
241,386,761,760,95,257,232,-63,-15,118
202,314,561,769,210,352,349,-44,-30,87
191,114,27,351,263,445,462,111,96,230
-80,-296,-605,-191,407,419,394,85,27,22
-36,-395,-952,-675,344,436,497,390,273,145
-100,-476,-988,-600,352,358,460,534,374,180
-296,-516,-770,-332,319,208,287,347,205,-63
-171,-278,-392,-215,122,166,259,428,303,-21
-79,-133,-200,-132,42,76,141,346,294,53
-44,-44,-74,-31,47,1,63,144,149,15
-71,-26,-27,24,30,-16,23,37,52,-44
-77,21,44,67,-6,-75,-97,-80,-21,-28
-17,126,187,102,-56,-171,-246,-186,-62,3
47,179,221,21,-156,-246,-331,-264,-84,-39
91,182,220,0,-194,-243,-298,-235,-69,31
136,207,219,153,-112,-140,-148,-101,15,170
219,222,141,230,-39,-48,-57,0,96,193
162,120,23,223,78,-110,-160,-55,34,74
10,24,9,207,154,-219,-318,-229,-136,-24
17,37,42,23,33,-180,-268,-324,-166,-10
17,-22,-31,-135,-44,-20,-92,-342,-154,-42
-111,-87,23,-25,-43,47,-54,-427,-263,-207
-272,-147,80,33,-89,-67,-213,-586,-410,-367
-318,-140,201,107,-125,-151,-299,-578,-465,-419
-292,-84,264,183,-176,-246,-353,-359,-357,-334
-257,-47,181,93,-243,-314,-361,-142,-260,-279
-68,49,102,-16,-223,-199,-203,208,0,-126
314,253,211,205,-51,-19,55,388,301,253
357,248,174,278,68,84,211,351,297,385
58,48,193,446,143,35,92,76,-2,58
-244,-118,193,502,198,-119,-118,-351,-396,-345
-213,-51,59,-168,-194,-267,-85,-403,-458,-354
17,84,-266,-1108,-590,-162,162,-117,-258,-52
204,150,-354,-1259,-524,96,382,218,16,127
329,238,-63,-719,-265,302,469,450,288,253
403,218,-71,-356,-94,448,592,684,583,480
261,-76,-444,-53,303,535,603,880,799,527
-128,-446,-711,116,620,441,300,502,555,167
-173,-336,-499,37,426,223,36,67,234,-15
-67,-108,-182,91,213,22,-49,-65,48,25
0,6,-48,60,97,-59,-66,-40,-29,92
4,18,-22,82,151,-45,-116,48,6,111
-3,-6,-26,107,205,-62,-171,73,83,97
15,13,-5,39,188,-61,-157,-27,69,60
77,72,37,13,110,-58,-60,-66,54,87
59,77,107,17,9,-41,20,-134,-24,46
-32,39,184,85,-56,2,1,-239,-170,-99
-66,27,240,135,-179,-82,-108,-300,-234,-200
-100,42,239,168,-198,-144,-211,-273,-227,-300
-78,125,262,206,-122,-182,-269,-211,-183,-260
13,197,280,199,-42,-173,-237,-133,-88,-70
136,240,387,221,-51,-132,-83,146,160,157
182,278,575,539,-26,-190,-40,257,240,231
16,209,663,954,75,-263,-163,-87,-63,-64
-116,118,500,775,-45,-278,-226,-312,-268,-289
-138,-40,-27,85,-154,-199,-178,-286,-276,-225
-10,-105,-483,-633,-212,-49,-5,-79,-77,-1
120,-44,-455,-654,-186,62,95,27,32,119
75,-98,-320,-116,98,125,107,-38,2,41
-46,-111,10,422,218,2,-98,-295,-196,-117
-165,-93,207,433,13,-168,-263,-530,-438,-235
-273,-205,-137,-121,-238,-231,-208,-558,-542,-282
-249,-226,-289,-593,-351,-218,-129,-449,-476,-262
11,-63,-345,-893,-396,-149,-53,-75,-95,-32
380,153,-407,-977,-307,131,271,508,495,442
446,242,-225,-521,-96,292,425,563,559,519
337,176,-155,-25,154,258,298,361,402,325
114,-24,-167,378,482,160,61,349,343,97
49,-69,-126,275,408,96,-22,465,365,53
109,3,-85,-194,102,114,100,386,312,84
61,-63,-198,-468,-27,241,318,234,200,36
78,-46,-204,-219,19,364,501,218,176,36
17,-77,-99,144,118,372,502,152,91,-23
-183,-222,-73,339,232,282,281,-80,-135,-236
-297,-241,-13,303,184,131,5,-288,-330,-418
-196,-120,56,18,-18,85,-30,-133,-238,-339
-83,-30,35,-209,-112,11,-80,104,-49,-198
14,55,48,-172,-95,-25,-114,108,24,-87
7,66,169,128,0,-5,-63,-52,3,-81
-58,136,602,700,40,-156,-110,-203,-112,-159
-79,221,872,1008,-55,-424,-295,-222,-170,-137
-188,156,795,933,-138,-530,-484,-415,-303,-253
-121,73,403,453,-115,-310,-411,-451,-227,-170
-23,-95,-258,-309,-68,-131,-255,-229,6,-44
18,-218,-623,-676,25,-104,-224,26,199,72
158,-132,-583,-666,38,103,33,267,385,305
249,34,-326,-281,158,355,372,329,412,390
144,49,-131,91,296,333,408,271,272,186
51,1,-39,28,172,164,275,212,135,-3
80,17,-83,-202,9,80,209,141,98,9
18,-83,-227,-366,-38,-25,78,19,-11,-78
-24,-65,-161,-307,-56,-114,-114,-97,-81,-163
6,10,-20,-81,74,-38,-197,-157,-77,-140
-6,-20,9,0,160,119,-50,-121,-32,-82
-21,-16,139,223,232,142,36,-49,-30,-77
-27,-22,105,240,98,-1,17,36,-31,-88
-34,-51,-29,57,-40,-70,13,28,-45,-60
-20,-93,-204,-166,8,-22,72,174,1,68
116,-33,-339,-429,39,127,207,320,152,218
131,-9,-241,-398,-56,87,163,248,161,176
117,91,111,-70,-113,-37,19,178,148,162
187,231,362,212,-98,-71,-123,110,152,232
204,281,345,254,-126,-103,-208,-8,76,189
135,204,221,185,-128,-121,-175,-111,1,82
161,160,73,-43,-141,-86,-88,-90,11,86
154,90,-123,-490,-190,-10,17,-21,35,71
-30,-52,-177,-561,-165,-1,20,-54,-11,-44
-78,-11,-13,-66,-25,75,65,-31,-6,-84
49,134,143,55,-111,126,174,98,106,63
73,47,-18,144,65,176,206,195,196,181
-120,-191,-246,330,384,81,2,-16,6,-7
-243,-282,-276,145,286,-26,-147,-220,-189,-206
-149,-185,-230,-15,133,-8,-125,-213,-157,-200
-14,-50,-176,22,65,-3,-98,-121,-40,-58
12,2,-9,106,5,-71,-91,-86,32,8
7,55,146,182,4,-99,-53,-44,40,43
-11,90,201,226,48,-21,12,10,16,73
5,99,237,205,32,11,32,24,2,40
-25,107,329,169,-58,-49,-19,-81,-95,-105
-96,63,286,61,-171,-153,-117,-209,-217,-238
-145,7,167,-19,-218,-206,-249,-398,-295,-291
-188,-17,156,175,-158,-250,-357,-656,-473,-294
-223,-110,34,253,-26,-187,-303,-613,-469,-263
-233,-218,-215,97,105,-86,-197,-469,-326,-234
-108,-124,-183,-18,30,38,24,-291,-193,-37
-21,-38,-73,-41,-9,153,216,-36,-54,77
-80,-86,-148,-183,3,94,150,325,124,49
-26,-58,-231,-450,-58,66,100,324,194,150
-31,-81,-281,-452,24,119,116,-53,-4,57
-142,-166,-334,-225,132,125,60,-105,-125,-81
-157,-145,-259,-209,40,54,-36,279,68,-121
-118,-48,-27,-127,-21,-86,-183,381,119,-148
-62,5,105,-15,-89,-203,-260,205,34,-122
68,92,166,5,-124,-117,-157,273,156,8
173,99,86,-41,-76,86,119,374,335,179
156,106,246,235,-1,100,163,217,249,202
54,98,390,576,81,-24,61,-21,32,126
-13,50,213,426,33,-67,25,-110,-96,99
-51,5,-12,141,-22,-31,1,-134,-139,17
-21,-24,-293,-244,-66,25,32,84,8,19
64,-35,-437,-460,-32,121,145,267,202,113
72,16,-251,-235,68,161,187,76,66,107
20,19,-128,-153,52,123,113,-28,-96,102
90,107,8,-80,14,56,75,74,1,178
36,112,145,202,123,79,122,129,29,89
-61,89,306,375,125,137,152,-4,-67,-116
2,284,762,745,100,87,88,-52,-60,-93
70,343,821,870,41,19,69,76,20,49
-4,162,421,730,-19,-85,-7,40,-28,45
-42,102,80,556,-54,-106,-131,-87,-111,3
11,-2,-371,-40,-60,0,-122,-36,-8,77
-82,-267,-911,-960,-189,54,-95,-9,66,8
-147,-240,-754,-1052,-290,0,-128,-102,-42,-105
16,63,-114,-417,-243,-24,-53,-105,-51,-15
24,114,198,43,-123,-84,-55,-144,-81,-54
1,125,388,204,-107,-122,-24,-116,-74,-50
-10,119,421,190,-171,-162,-49,-67,-81,-6
-142,2,255,271,-64,-246,-172,-203,-248,-148
-97,-30,-5,14,-55,-200,-71,-141,-218,-99
79,-84,-411,-399,-39,-2,227,182,65,133
50,-250,-673,-537,177,87,295,283,176,108
1,-204,-423,-375,154,26,117,111,42,23
7,-39,53,11,26,-22,-24,-60,-109,4
-80,-19,337,400,23,-96,-160,-175,-229,-144
-94,-34,276,377,-10,-125,-209,-176,-230,-110
-144,-104,41,113,-26,-205,-374,-296,-306,-118
-142,-120,-119,-210,-92,-275,-483,-451,-354,-162
21,-103,-361,-486,-150,-34,-165,-165,-65,80
198,-72,-441,-329,136,284,181,227,285,282
28,-147,-297,15,336,180,72,19,142,52
-59,-110,-161,-44,134,51,-8,-56,0,-69
103,29,-191,-194,48,152,156,267,180,111
182,78,-108,-138,137,197,202,497,325,222
150,79,0,34,161,132,171,435,288,272
64,24,39,42,124,90,161,263,156,185
-20,-21,19,-34,70,77,162,86,40,21
-45,2,9,-53,50,50,190,25,24,-6
-42,25,61,-98,-19,-33,174,114,59,55
-32,8,28,-196,-118,-26,164,256,152,94
-26,12,47,-130,-83,68,133,148,86,42
35,102,143,49,22,146,129,-67,-27,30
89,178,145,95,20,95,15,-243,-91,-8
46,160,170,41,-43,-51,-153,-440,-184,-114
-5,101,251,72,-45,-102,-175,-511,-262,-191
40,120,253,138,-33,-11,-26,-237,-123,-73
67,84,135,103,-43,21,55,217,165,43
17,-38,-74,106,68,-17,47,351,251,58
-34,-122,-223,175,205,17,52,258,203,54
22,-47,-79,134,85,-1,-6,139,171,43
12,2,-75,56,-60,-69,-51,69,123,33
-45,-30,-107,-2,-13,-59,-22,84,91,-39
-32,-59,-66,-11,38,-17,-26,64,58,-97
6,-28,-1,-24,-1,-5,-47,109,102,-67
-21,-34,3,-72,-53,19,-5,114,77,-65
-51,-49,11,-12,-62,30,22,65,-27,-103
-56,-13,107,96,-26,30,8,-28,-119,-126
-8,50,228,258,30,79,43,-38,-100,-84
19,68,217,316,37,112,96,-19,-72,-32
-68,13,143,373,85,151,112,-75,-142,-106
-192,-69,142,333,69,65,30,-188,-255,-233
-194,-84,123,58,-76,-124,-93,-207,-226,-204
-163,-77,147,-138,-244,-225,-143,-155,-183,-117
-113,-19,238,-5,-214,-183,-138,-172,-157,-122
-112,-32,78,-15,-103,-109,-113,-200,-148,-160
32,32,25,-242,-215,-22,20,-59,-19,-17
174,112,113,-222,-193,84,162,50,127,141
169,49,-55,-218,-72,156,261,147,189,178
89,3,-87,-350,-144,100,170,128,88,78
-28,-88,-110,-381,-117,163,124,147,47,-7
-202,-250,-168,32,221,214,-2,-5,-48,-148
-208,-249,-178,119,293,206,-78,-121,-85,-173
-47,-132,-157,1,136,184,38,-12,59,2
-23,-130,-192,-7,89,62,-10,-77,56,9
-59,-108,-114,66,108,-25,-60,-182,-59,-64
-34,-7,44,129,66,-22,17,-185,-50,-61
-31,55,224,194,-17,-2,126,-187,-53,-86
-49,32,241,231,-45,-57,115,-199,-106,-100
-42,77,346,424,-21,-152,32,-184,-120,-11
29,189,515,583,-77,-243,-107,-175,-95,53
97,278,610,505,-78,-233,-208,-97,26,67
17,258,583,432,-78,-253,-324,-43,12,44
-10,208,421,125,-238,-367,-450,-162,-64,-7
127,80,-120,-330,-207,-229,-191,-18,137,113
304,-68,-690,-470,171,86,169,202,370,380
168,-223,-803,-486,236,30,37,-52,140,243
-1,-249,-496,-238,201,-36,-63,-218,-113,12
-43,-150,-184,-14,81,-132,-138,-184,-168,-48
-44,-75,-88,-156,-113,-239,-245,-226,-137,-60
-59,-4,-43,-348,-268,-268,-261,-147,-110,-67
4,61,-15,-488,-321,-208,-208,192,122,-6
98,117,24,-473,-193,33,-38,258,247,50
194,120,4,-329,-9,225,163,363,310,184
-65,-164,-145,24,242,87,14,376,207,-14
-203,-281,-180,363,407,50,-47,521,199,-114
-2,-3,126,485,287,99,6,355,143,-11
87,113,252,453,131,80,-7,70,-6,9
-3,25,160,429,113,79,-18,-75,-116,-69
-110,-95,-87,239,88,83,-13,-130,-162,-135
-121,-102,-130,-77,-66,16,-38,-147,-169,-118
-116,-101,-118,-303,-208,-33,-27,-76,-125,-108
-114,-64,-85,-352,-247,-57,-23,29,-54,-66
-25,3,-45,-367,-248,-32,-25,105,51,47
1,46,110,-174,-200,-87,-111,21,40,0
2,138,268,27,-218,-175,-202,-146,-74,-87
90,171,163,-113,-219,-63,-49,-52,-5,25
215,103,-178,-315,-42,165,210,211,253,260
138,-70,-440,-239,162,206,237,254,288,262
50,-125,-310,9,280,209,216,213,220,159
122,-32,-109,219,361,273,262,225,270,157
46,-32,-12,304,355,207,164,78,106,21
-23,-32,19,298,267,123,80,-35,-11,-77
-15,16,-37,176,152,125,65,-69,-42,-74
-34,4,-87,51,93,178,51,-137,-61,-125
-49,-112,-154,-150,67,221,85,-142,-81,-110
-64,-149,-145,-143,81,199,116,-151,-142,-62
-49,-89,-72,-45,60,135,85,-163,-125,-67
-36,-71,-36,-6,36,64,45,-123,-98,-105
0,-39,-60,4,-1,17,59,29,-20,-52
37,1,11,14,-65,-68,55,110,42,9
74,0,81,-14,-129,-142,24,83,55,44
78,9,70,-24,-140,-161,-27,101,88,91
41,10,50,-9,-135,-144,-46,98,56,60
49,43,142,55,-149,-186,-88,-57,-55,31
45,91,281,211,-121,-231,-144,-201,-145,-6
32,138,468,437,-66,-191,-180,-229,-171,-89
-6,147,559,541,-38,-168,-183,-142,-116,-133
-13,148,479,352,-133,-258,-259,-120,-100,-113
-61,38,234,-8,-328,-378,-421,-187,-139,-135
-93,-84,-47,-330,-352,-305,-374,-118,-70,-128
109,11,-177,-476,-220,-64,-85,62,152,92
172,43,-180,-290,-65,81,114,141,174,175
83,-29,-199,-196,0,117,188,135,72,63
116,-10,-189,-182,28,131,228,119,59,84
55,-66,-177,0,190,184,236,118,77,35
-172,-207,-159,218,341,122,82,-50,-79,-194
-229,-159,100,285,126,-71,-158,-308,-279,-301
-130,31,418,338,-61,-128,-206,-328,-271,-227
-102,155,508,407,-77,-87,-153,-247,-207,-215
-21,251,555,508,-23,-57,-134,-204,-173,-146
163,306,397,339,-38,54,59,51,36,75
279,185,-50,-44,-30,249,345,374,328,302
123,-137,-550,-458,120,345,442,329,313,253
-120,-365,-772,-624,155,274,296,63,67,-1
-23,-201,-537,-503,103,235,248,-24,39,14
-60,-178,-329,-149,211,156,233,-110,-12,-23
-179,-229,-258,23,246,50,106,-316,-213,-170
-150,-136,-152,-45,122,40,44,-453,-317,-165
-84,-26,-29,-60,21,19,28,-468,-295,-116
11,80,48,-19,-39,-84,-27,-285,-130,-37
27,92,20,49,-20,-134,-57,-42,29,12
21,61,0,70,-24,-111,-44,116,152,51
13,26,58,35,-63,-44,37,432,272,79
34,36,69,-8,-35,31,57,626,358,121
79,55,19,-64,15,85,47,541,369,175
34,-22,-94,-148,98,191,125,449,294,134
-30,-37,-54,-62,155,225,127,247,111,45
-31,30,113,71,89,142,55,97,2,16
32,106,230,102,0,-36,-53,44,-9,69
93,140,252,71,-7,-188,-182,14,18,132
78,149,246,76,-37,-309,-284,-96,-34,116
20,150,315,163,-123,-427,-353,-190,-129,63
-19,159,382,278,-107,-315,-301,-186,-144,-20
37,205,376,412,-55,-157,-183,-182,-132,4
-269,-360,-598,-667,-151,-104,209,-17,-276,-93
-227,-335,-553,-188,201,11,180,123,-164,-21
45,-98,-396,-42,329,172,243,325,132,176
85,-9,-282,50,311,144,68,359,258,246
112,109,-72,-34,80,-24,-92,182,187,227
118,157,62,-271,-215,-179,-150,-123,-23,76
48,110,111,-291,-325,-156,-111,-161,-82,65
86,161,100,-216,-353,-118,-54,-9,1,161
134,161,9,-164,-296,-116,-50,107,138,168
2,0,-100,128,19,-64,-52,117,133,15
-25,-64,-178,56,161,118,108,124,94,44
11,-63,-260,-167,110,208,200,82,76,145
-122,-165,-288,-12,235,170,115,-50,-54,-6
-154,-174,-213,-29,177,127,83,-31,-70,-102
68,48,27,17,91,168,155,202,136,142
181,211,240,228,65,185,175,186,167,208
189,266,266,287,23,226,189,37,63,152
127,239,371,338,52,181,65,-107,-53,91
3,133,336,289,6,58,-48,-265,-190,-56
-157,-45,209,173,-77,-39,-96,-352,-295,-223
-294,-179,118,226,-37,-65,-116,-346,-360,-323
-291,-78,225,571,8,-120,-172,-305,-356,-279
-247,-18,298,414,-108,-258,-322,-372,-354,-339
-77,110,244,12,-256,-357,-390,-335,-272,-255
257,192,-85,-471,-313,-205,-153,70,154,160
416,120,-345,-687,-276,16,117,383,465,458
236,-110,-573,-630,-58,98,182,295,391,355
52,-223,-549,-261,233,42,63,86,183,135
48,-165,-354,-62,219,-5,17,82,85,74
39,-99,-122,-12,142,80,84,124,50,22
-28,-80,-23,51,146,130,109,2,-47,-22
-8,-31,42,116,147,89,68,-83,-97,29
-32,-27,37,147,133,54,18,-17,-68,9
-131,-91,25,86,93,37,-9,18,-72,-99
-192,-117,33,-63,-36,-51,-95,-77,-130,-242
-198,-110,-23,-188,-133,-122,-134,-138,-153,-249
-149,-41,17,-155,-168,-159,-95,-101,-154,-177
-67,25,176,-122,-182,-105,-43,66,-50,-65
49,90,199,-64,-142,3,51,191,74,42
197,145,128,7,-64,101,134,297,245,145
170,101,78,19,11,112,68,176,230,101
0,15,39,-5,32,30,-78,-127,2,2
-44,-54,-68,-84,55,13,-109,-149,-24,15
-48,-119,-194,-241,42,76,-5,44,58,34
-64,-98,-120,-128,51,136,47,-2,19,-69
-65,-36,18,71,49,127,71,-29,2,-67
-30,12,97,186,35,101,84,-13,-5,-23
-31,-7,53,151,-6,45,80,16,21,-24
-53,-36,-21,29,-60,22,100,7,56,-112
-10,-35,-132,-84,-37,91,146,-22,65,-71
90,35,-123,-97,-33,95,161,34,77,97
90,43,-46,5,-9,51,131,82,108,134
109,90,110,155,-7,40,106,70,117,131
121,155,253,360,42,46,59,-4,47,87
86,124,213,386,52,14,-3,95,58,97
78,118,210,258,-4,-67,-99,188,135,104
31,118,119,35,-37,-109,-209,-3,21,-12
6,68,-22,-241,-73,-113,-202,-67,2,-96
35,26,-91,-276,-52,-32,-77,47,75,-51
19,15,18,33,56,30,-10,67,-16,1
1,37,158,87,52,56,45,47,-84,10
-8,62,180,-10,-22,25,41,-9,-113,-9
-50,78,276,117,-88,-89,-28,-112,-214,-96
-45,106,326,284,-120,-123,-50,-89,-208,-131
3,80,125,246,-52,-5,37,32,-25,32
-137,-155,-266,88,46,-9,-23,-28,-53,1
-308,-356,-458,-257,-14,-132,-181,-223,-212,-187
-181,-263,-403,-392,-67,-58,-175,-166,-109,-151
-92,-111,-80,-38,-32,-49,-205,-68,-16,-89
-88,-19,202,256,-62,-106,-218,-172,-84,-121
-116,-10,226,225,-113,-145,-186,-234,-172,-125
-131,-9,133,35,-154,-163,-165,-239,-214,-79
-104,4,47,-191,-241,-182,-181,-239,-207,-66
-24,15,-123,-373,-275,-156,-152,-159,-126,-30
90,-18,-333,-441,-125,96,134,78,119,117
25,-126,-281,-212,21,161,224,84,150,47
-105,-200,-215,102,194,118,169,-43,-12,-34
-102,-154,-212,100,155,92,120,-52,-84,-2
-16,-37,-67,109,54,65,86,5,-27,53
-4,36,213,152,23,49,16,-137,-54,-30
30,65,287,41,-36,124,91,-125,-15,-20
51,85,231,-29,-39,199,207,-52,4,42
29,63,176,7,10,206,175,0,18,20
4,-27,10,6,81,178,105,138,107,-12
-17,-123,-200,-137,113,186,144,215,178,-34
-71,-186,-281,-131,141,119,111,182,153,-26
-48,-62,-62,159,107,-104,-42,48,122,45
74,100,73,107,-96,-280,-161,-28,161,122
116,110,77,-5,-166,-230,-160,-93,90,46
142,95,-66,-109,-132,-56,-52,-64,100,30
160,62,-275,-249,-79,43,62,23,151,134
86,-18,-307,-240,4,66,100,152,175,180
-27,-101,-142,-59,97,71,68,198,136,109
-76,-122,-42,49,124,91,33,195,66,27
-26,-67,-49,58,80,106,40,102,30,10
0,-23,15,84,52,82,39,-61,-63,-64
-2,1,116,71,-8,19,-12,-170,-194,-85
14,9,105,30,-47,-13,-34,-152,-163,30
19,8,85,26,-29,37,-28,-153,-136,64
57,42,69,40,0,126,-12,-68,-99,70
58,30,32,91,74,164,15,52,3,27
-36,-31,42,173,167,124,-25,-59,-25,-76
-80,0,159,116,82,10,-96,-130,-120,-97
-42,90,310,48,-59,-104,-201,-270,-221,-160
59,203,388,103,-208,-354,-313,-322,-262,-139
53,188,358,148,-318,-533,-351,-226,-213,-128
7,85,155,23,-314,-493,-304,-226,-189,-130
44,20,-57,-159,-192,-347,-153,-35,-79,-9
130,6,-160,-129,44,-49,105,256,165,188
-7,-109,-185,132,261,120,229,353,221,112
-58,-127,-198,67,124,96,241,386,218,40
-35,-54,-8,59,-49,-23,56,215,93,-49
-145,-47,344,349,-103,-212,-228,-16,-81,-170
-98,104,727,625,-86,-247,-322,-163,-151,-154
-72,171,675,513,-120,-193,-256,-283,-251,-206
-77,126,387,187,-189,-146,-119,-207,-263,-171
49,81,-34,-292,-134,68,164,144,-19,25
236,4,-590,-787,-7,398,504,491,333,309
234,-143,-872,-830,129,474,571,508,440,324
-28,-281,-700,-366,324,308,316,181,143,93
-17,-158,-482,-145,287,258,239,44,55,80
6,-100,-328,-71,250,247,256,64,85,93
-13,-79,-157,-4,180,185,211,52,63,55
10,-13,-51,-7,100,100,103,-22,54,23
37,47,19,-4,78,-22,-88,-120,44,8
35,62,22,-52,0,-129,-165,-119,1,22
55,79,-13,-132,-43,-76,-84,13,35,105
52,70,25,-124,-22,0,-45,31,47,132
2,32,52,-60,-11,2,-20,8,17,62
-18,19,34,-28,-26,4,1,-76,-57,-56
-16,26,-22,24,42,33,62,-125,-100,-6
-89,-37,-25,125,100,74,117,-135,-172,-20
-91,-13,74,153,29,33,90,-3,-153,-59
-67,33,240,209,0,-44,-47,36,-109,-118
-135,1,331,307,-16,-85,-136,-86,-121,-246
-158,0,315,251,-79,-141,-247,-249,-206,-258
-101,19,218,49,-162,-189,-325,-263,-183,-137
-76,22,155,-59,-251,-218,-265,-312,-214,-106
-57,71,242,31,-219,-149,-133,-304,-247,-122
10,111,196,100,-74,9,51,-84,-127,-97
32,90,115,129,7,-28,23,244,49,-76
34,81,95,9,-62,-127,-132,346,138,11
156,135,-8,-260,-143,-30,-57,200,172,197
132,-67,-501,-646,-36,161,70,117,164,221
36,-210,-658,-546,209,280,100,86,175,113
17,-152,-410,-105,376,252,52,-64,75,46
-43,-127,-258,66,332,128,-5,-225,-91,7
-27,-61,-144,56,205,100,51,-36,-14,5
-33,-61,-106,-4,76,68,154,306,141,-39
-35,-63,-76,-14,49,97,203,647,294,-96
-11,-5,0,48,125,162,167,609,342,-51
-27,15,38,81,130,128,116,283,188,-15
-47,-3,50,71,69,61,74,95,47,-39
-34,0,91,69,24,33,-14,-14,0,-93
13,57,130,87,-24,-5,-104,-158,-41,-141
28,60,105,64,-140,-107,-165,-160,-30,-103
28,32,85,45,-234,-237,-233,-108,5,-50
-28,-11,20,117,-152,-203,-234,-78,-9,-29
-55,-3,82,190,-72,-156,-241,-108,-40,-57
-70,0,99,137,-132,-194,-260,-139,-49,-123
-63,-7,79,26,-184,-165,-169,-106,-22,-149
-26,19,16,-76,-168,-136,-46,-65,-9,-80
0,13,-117,-113,-69,-38,112,27,53,38
39,25,-61,-16,30,34,238,86,97,82
83,58,8,56,50,107,312,124,145,67
41,35,77,126,64,119,253,17,67,12
-50,-13,142,171,50,46,112,-161,-59,-58
-74,-36,114,95,18,-12,-2,-198,-81,-81
-45,-9,27,-82,-26,-53,-95,-173,-67,0
1,27,-17,-189,-83,-50,-126,-155,-33,25
-23,21,-2,-152,-122,-41,-63,-93,-29,-17
22,35,-32,-146,-132,-7,29,31,25,-26
139,96,-9,-147,-96,101,154,177,174,81
131,94,56,-88,-66,102,158,115,99,136
73,40,57,-61,-61,50,157,47,-3,98
128,44,63,34,0,113,259,131,63,157
94,-7,52,169,109,211,286,127,58,128
-41,-117,-59,190,176,183,211,30,-7,-26
-171,-179,-53,187,186,51,88,-79,-151,-207
-133,-85,75,175,82,-38,-2,-115,-201,-195
11,27,70,3,-35,-61,-64,-117,-138,-68
104,72,39,-94,-86,-101,-151,-141,-89,13
101,70,42,-214,-184,-169,-192,-139,-97,-29
76,128,207,-165,-236,-211,-217,-144,-124,-26
137,220,328,68,-88,-139,-154,-103,-57,87
131,165,246,249,76,-58,-28,-15,3,108
2,-15,-6,214,110,-1,74,-73,-87,-16
-161,-131,16,317,116,26,88,-220,-250,-172
-293,-174,312,583,131,0,34,-302,-347,-365
-354,-222,319,626,147,-87,-116,-347,-419,-395
-258,-199,35,186,-54,-193,-238,-137,-273,-231
-1,-56,-208,-274,-197,-156,-235,125,47,-5
192,9,-411,-633,-174,-73,-179,116,200,201
325,-2,-601,-690,36,89,-13,166,361,394
317,43,-335,-145,237,74,-47,74,309,345
110,-7,-166,2,95,-138,-234,-92,88,110
7,-13,-148,-51,-22,-161,-244,-76,12,-32
9,49,24,24,12,-110,-208,-112,-36,-98
41,49,-40,-145,-3,2,-53,12,78,-26
73,-19,-248,-381,-48,136,163,353,331,127
57,-12,-143,-204,-18,143,190,382,297,94
-81,-72,-103,-11,36,47,44,102,-27,-100
-122,-90,-122,-44,12,5,-28,-58,-159,-153
-49,-25,-75,-73,0,47,19,21,-29,-61
-17,3,-24,-38,6,66,39,41,40,-8
-64,-23,-35,-25,-27,26,-9,-46,-46,-49
-79,0,14,49,-40,0,-50,-177,-174,-136
-110,-27,70,103,-55,16,-20,-218,-280,-190
-106,-15,96,110,-88,-6,-67,-251,-303,-187
-52,35,99,60,-65,52,-3,-180,-180,-120
2,41,57,4,-9,131,115,-7,-36,-22
-16,11,37,4,38,144,140,77,15,31
-52,-33,41,67,105,197,195,222,91,-1
79,69,150,88,57,194,261,385,228,125
209,204,265,71,-10,113,260,468,318,255
196,211,255,23,-56,92,195,354,269,230
187,198,180,-10,-50,202,216,278,216,198
185,183,150,40,-77,179,193,182,108,150
218,160,1,-57,-129,91,138,155,107,198
-7,-188,-398,-118,123,-25,-26,22,-22,57
-196,-305,-372,172,311,-162,-226,-188,-176,-147
-138,-144,-156,189,147,-262,-289,-208,-111,-92
-125,-85,-74,129,45,-262,-267,-103,-60,-67
-101,-30,-9,60,-20,-229,-226,-52,-48,-78
-35,5,-21,-55,-55,-163,-130,-108,-68,-7
9,9,-73,-118,-75,-84,15,-101,-39,25
44,52,0,-63,-62,-38,104,-19,17,56
62,63,13,-17,-39,33,164,106,92,78
38,30,-26,21,25,125,214,117,51,76
-44,-26,-107,13,37,114,131,16,-40,-18
-134,-78,-56,-40,-47,35,3,-127,-148,-128
-204,-114,27,-34,-104,0,-61,-286,-287,-225
-273,-151,38,-30,-121,4,-12,-369,-438,-294
-237,-104,62,48,-74,8,2,-359,-431,-286
-51,32,133,177,-3,31,3,-227,-226,-122
76,134,163,213,-2,2,-1,-159,-123,-4
164,122,49,179,102,31,58,32,78,110
133,49,-16,198,185,56,81,354,279,182
80,45,102,170,153,53,-29,277,268,186
22,25,113,84,130,90,-96,56,86,95
2,34,94,36,65,54,-115,53,41,23
-45,0,0,-38,7,-4,-124,-14,-16,-36
-102,-96,-160,-131,9,6,-70,-52,-77,-103
-60,-54,-245,-171,70,52,8,-41,-41,-75
-46,-22,-207,-151,51,-19,9,-107,-71,-53
1,-12,-119,-129,-102,-165,-30,-95,-71,-11
-14,0,12,-19,-193,-268,-153,-113,-102,-8
-18,61,210,138,-130,-222,-222,-160,-107,-25
71,160,346,252,-97,-189,-232,-175,-80,0
107,167,261,217,-102,-167,-201,-83,24,34
111,136,114,82,-74,-146,-169,121,161,37
107,87,-65,-173,-45,-49,-28,362,299,110
59,-9,-234,-379,-74,25,100,272,226,103
59,-57,-295,-518,-102,91,222,225,228,138
56,-52,-183,-227,59,168,277,197,226,130
7,-27,-62,49,164,143,212,135,188,44
-15,-31,-36,60,129,58,66,2,119,0
-3,-2,59,125,108,-6,-35,-139,29,6
13,61,191,215,72,-23,-13,-144,-16,0
-22,38,164,223,53,-29,-37,-151,-39,-57
0,46,103,86,-24,-61,-81,-106,19,-33
15,31,35,-123,-113,-43,-48,-99,7,22
19,12,-28,-326,-198,5,9,-45,-41,30
-45,-40,-60,-295,-221,-25,2,55,-89,-58
-123,-19,59,0,-117,-79,-74,-49,-223,-182
-123,55,206,151,-108,-119,-119,-87,-254,-208
-98,52,215,190,-86,-108,-99,-114,-249,-158
-52,22,125,168,33,7,-23,-50,-168,-59
-40,-102,-174,-41,186,240,137,74,-46,28
27,-163,-423,-329,226,353,267,212,129,132
-3,-183,-345,-246,326,327,220,148,112,93
-111,-137,-34,67,363,269,74,-76,-108,-24
-116,-44,158,92,139,193,25,-175,-197,-80
-86,-45,162,70,-34,98,106,-60,-98,-51
-40,-25,155,133,-44,1,135,131,-2,-21
37,39,127,170,0,-28,128,254,100,53
160,65,-32,23,12,-74,116,310,234,207
126,-16,-173,-159,-41,-160,37,135,131,172
43,-61,-163,-178,-27,-121,11,-67,2,88
-17,-32,-93,-14,36,-48,-68,-208,-106,19
24,60,86,146,51,-26,-113,-160,-79,41
46,118,165,178,26,-81,-172,-179,-64,50
3,93,139,153,21,-170,-257,-130,-75,-8
-36,59,103,32,-41,-267,-315,75,-14,-83
-11,35,26,-200,-131,-237,-224,228,84,-35
90,43,-46,-263,-145,-97,-53,203,151,98
98,71,47,-63,-81,-55,-32,69,97,83
72,94,122,33,-60,-51,-39,-31,0,39
102,137,113,60,-12,22,34,-64,0,58
227,201,11,-73,-6,138,236,35,139,173
125,58,-163,-217,16,155,274,19,61,134
-154,-205,-352,-72,130,81,143,-172,-181,-95
-114,-172,-236,13,98,75,114,-168,-123,-78
-98,-128,-99,100,122,93,109,-89,-83,23
-120,-116,-83,73,89,82,58,26,-49,31
-117,-95,-4,46,55,37,-88,10,1,-30
-90,-73,8,21,39,20,-175,-170,-45,-74
-68,-58,11,-63,-42,-35,-146,-210,-124,-66
-77,-69,-28,-146,-143,-96,-133,-135,-158,-40
-87,-41,51,-78,-186,-131,-159,-141,-177,-74
-77,-3,198,57,-196,-175,-173,-221,-151,-114
-53,27,231,205,-139,-167,-129,-263,-143,-110
-87,-2,63,253,-44,-64,-5,-192,-123,-108
-27,-22,-89,131,25,82,218,196,174,34
57,-58,-230,-114,73,179,376,456,321,151
-22,-133,-240,-224,78,80,230,320,125,23
-72,-102,-120,-214,32,-17,28,150,11,-57
-28,-15,-30,-247,-3,-27,-58,134,45,57
1,32,51,-140,31,24,-54,191,181,139
9,96,232,110,65,38,-70,170,195,114
83,151,392,332,25,52,-51,-18,70,67
73,97,375,491,81,61,-45,-128,-36,20
-130,-89,167,410,58,-62,-211,-251,-175,-111
-167,-152,-32,185,-46,-98,-256,-220,-144,-123
-116,-144,-234,-106,-26,-80,-200,-147,-72,-71
-1,-97,-384,-380,14,7,-41,17,47,46
111,-42,-407,-448,67,123,170,158,185,184
92,-18,-279,-320,54,132,223,116,159,171
42,-2,-133,-210,14,138,203,42,56,30
6,-25,-70,-67,62,193,237,19,-9,-95
-41,-56,-49,44,68,135,173,-78,-114,-111
-25,-38,-35,10,1,64,129,-69,-61,-18
-1,15,49,44,-33,6,54,20,14,16
-8,60,136,137,-48,-88,-90,-46,-19,-16
-24,63,149,173,-87,-168,-196,-199,-92,-76
35,101,111,96,-134,-223,-228,-209,-91,-116
118,114,-39,-175,-201,-185,-135,8,50,-33
164,47,-249,-330,-112,-41,36,246,231,140
49,-32,-163,-92,136,42,62,170,103,125
13,-39,-83,-67,120,100,103,139,28,122
46,-14,-19,-70,44,112,161,108,44,139
57,3,26,-27,29,78,170,128,71,115
25,-14,28,47,55,42,97,107,39,70
49,17,67,63,17,8,37,179,89,53
132,115,111,65,-2,14,-10,452,244,146
179,176,68,77,-3,-16,-111,350,227,170
124,113,114,66,8,-119,-193,-32,-13,101
68,88,167,15,-11,-130,-196,-201,-124,10
8,105,248,43,-86,-133,-215,-330,-272,-72
-95,90,381,182,-127,-181,-244,-449,-389,-168
-141,100,442,277,-166,-173,-195,-412,-360,-212
-66,129,394,347,-113,-118,-87,-320,-261,-142
-22,118,264,353,-44,-70,-57,-248,-174,-93
-33,17,77,280,29,10,-3,-7,-19,-75
56,-44,-107,154,97,150,156,399,209,73
-108,-217,-262,-8,144,133,148,420,182,-2
-234,-260,-178,-141,69,64,48,155,27,-126
-145,-98,62,-73,-12,20,-25,-74,-88,-100
-46,54,72,5,-22,1,-46,-127,-134,-94
0,92,33,-30,-68,-64,-88,-81,-130,-40
36,35,-21,-77,-43,-34,-52,68,12,91
64,-30,-163,-98,10,15,18,203,165,159
-33,-176,-387,-221,101,4,16,116,133,43
-87,-189,-393,-250,92,71,72,43,37,-29
-47,-135,-267,-299,33,143,180,157,97,81
-25,-80,-155,-169,82,170,193,111,82,106
-17,-32,-48,-36,56,146,161,-54,-5,21
-54,-27,40,-32,-23,82,72,-223,-112,-108
-82,22,182,66,-64,11,85,-205,-150,-102
-19,101,339,234,-45,11,139,-161,-121,-44
57,145,351,307,-1,87,143,-160,-60,-16
82,144,252,274,13,103,154,-10,47,48
47,60,53,133,58,82,133,264,160,77
0,-34,-151,-108,89,-14,23,412,223,-6
-18,-86,-262,-343,10,-59,-47,329,228,-22
32,-63,-232,-393,-73,-15,-26,252,287,87
33,-17,-94,-183,-61,-31,-74,98,197,106
36,34,49,-6,-34,-119,-202,-43,91,73
68,86,135,6,-94,-190,-267,-112,12,77
48,59,87,-12,-90,-165,-239,-108,4,73
-23,14,94,68,-6,-131,-273,-83,-42,5
-20,45,140,37,-67,-165,-293,-128,-101,-54
46,99,147,-56,-122,-131,-196,-118,-91,-2
132,109,4,-71,-54,16,5,5,13,164
101,50,-25,93,117,98,88,119,68,194
88,38,21,171,179,134,132,205,146,158
77,28,7,152,185,144,161,170,111,44
-93,-41,138,261,150,18,3,-43,-112,-144
-205,-60,296,396,49,-77,-84,-173,-229,-215
-200,7,413,520,-7,-112,-131,-208,-289,-230
-178,62,399,470,-51,-171,-172,-277,-319,-250
-109,93,145,192,-124,-169,-98,-290,-264,-228
7,-4,-360,-376,-120,32,144,-90,-53,-48
161,-93,-599,-673,-25,282,434,204,231,234
167,-128,-545,-539,117,400,544,279,308,269
-15,-196,-415,-289,219,310,396,117,106,50
-91,-106,-167,-100,172,215,281,25,-15,-6
-46,13,19,-35,91,162,176,19,2,51
-5,57,45,-36,29,101,63,-74,-11,82
21,52,26,-43,-24,-9,-11,-202,-51,0
65,67,84,33,-61,-139,-139,-305,-62,-40
120,113,198,136,-47,-194,-192,-343,-54,6
106,105,207,136,-28,-154,-148,-263,-55,18
42,96,237,172,-12,-111,-149,-175,-109,-69
0,89,252,217,-63,-171,-264,-263,-202,-163
2,63,153,96,-111,-162,-281,-176,-125,-145
78,61,5,42,-56,-24,-83,117,110,65
49,-3,-74,50,53,33,-19,176,128,71
-51,-89,-178,-73,51,2,-66,150,70,-15
32,-27,-163,-157,-48,36,65,383,202,21
106,55,4,-111,-93,39,168,474,238,44
90,43,15,-182,-167,6,122,377,167,44
20,-45,-56,-262,-198,-14,39,196,64,17
-88,-152,-151,-299,-127,-41,-5,63,-50,5
-93,-126,-103,-161,-31,-31,-38,-41,-107,1
38,-30,-1,110,111,106,40,23,20,110
104,21,57,340,243,159,70,-2,41,85
-21,-41,64,327,195,29,-37,-175,-123,-65
-149,-107,11,213,131,-47,-123,-338,-266,-193
-109,-52,24,58,21,-136,-192,-389,-294,-175
25,20,0,-136,-112,-169,-184,-329,-192,-81
10,-68,-144,-268,-147,-59,-57,-172,-70,-89
8,-131,-224,-273,-78,115,104,46,99,-17
89,-68,-160,-66,14,123,176,274,286,107
80,-68,-184,34,90,26,130,487,369,167
3,-90,-228,2,107,-67,39,271,153,61
-17,-79,-101,-70,9,-37,93,52,4,-11
-60,-96,-43,-88,-59,22,166,-24,-27,-56
-66,-104,-44,-40,-102,9,145,6,8,-74
-40,-65,-42,16,-82,4,112,108,54,-22
8,18,76,44,-73,3,17,117,69,41
52,83,107,76,-32,39,-51,89,130,103
89,127,157,127,7,75,-72,-66,112,76
79,139,222,131,19,100,-34,-100,84,25
89,125,161,75,1,127,44,-76,60,4
51,48,61,91,40,99,89,-67,-21,-13
21,-13,-5,119,95,53,92,6,-35,-34
-38,-77,18,163,99,18,21,-1,-58,-58
-58,-83,63,172,33,-6,-27,7,-13,-66
-34,-49,72,121,-6,0,-30,18,4,-72
-26,-24,62,86,-8,-48,-121,-26,-60,-35
-6,-10,5,0,-3,-59,-165,-56,-57,-3
0,-54,-115,-181,5,14,-59,-44,-30,8
-5,-68,-141,-220,10,84,84,6,-11,46
18,-35,-62,-72,6,76,111,42,13,41
13,-22,-28,-21,-8,25,66,18,7,28
-25,-17,30,27,6,-4,-21,-45,-48,-18
-45,7,148,110,8,-43,-131,-155,-137,-56
-64,15,130,82,-22,-31,-145,-235,-188,-142
-57,33,88,24,-19,45,-67,-230,-187,-129
-61,34,73,5,-34,46,-30,-214,-172,-86
-39,49,53,-33,-66,-14,-32,-184,-142,-47
38,69,-21,-142,-82,-51,-2,-41,-45,50
93,76,-51,-137,-99,-60,-2,109,74,119
48,49,5,-5,-50,-58,-16,70,90,104
-72,-38,-32,125,47,-47,-21,-16,33,-21
-153,-49,3,259,126,-49,-29,-187,-114,-87
-172,-32,-4,249,121,-30,29,-313,-259,-98
-141,-2,-35,104,49,-5,97,-333,-315,-89
-56,50,6,-157,-100,0,144,-274,-257,-73
124,113,-14,-339,-176,13,225,5,32,74
162,105,-25,-336,-205,-28,214,389,304,235
74,20,-54,-403,-254,-56,156,557,425,207
65,27,-40,-367,-206,-30,78,557,442,176
78,53,75,-93,-13,56,30,492,372,170
-32,-3,152,133,113,-10,-113,117,93,-55
-105,12,244,203,87,-88,-217,-166,-87,-192
-49,77,282,216,88,-69,-173,-152,-50,-145
64,143,213,171,87,-71,-90,-35,-18,-46
101,131,112,135,41,-98,-46,15,-26,34
126,61,-82,42,-8,-25,109,160,102,92
-42,-166,-308,30,155,40,118,86,3,-24
-89,-227,-351,-16,144,88,116,37,-22,-18
3,-101,-234,-81,-31,56,113,23,45,40
6,-24,-152,-24,-41,16,-23,-165,-92,-40
-42,0,-106,28,-23,21,-98,-343,-254,-122
-91,-1,59,95,-23,-18,-65,-377,-315,-148
-146,-31,60,229,21,-89,-36,-383,-284,-193
-102,7,41,261,-2,-232,-142,-350,-201,-136
-55,27,140,194,-71,-357,-273,-133,-71,-53
-81,27,188,184,-65,-383,-390,196,13,7
-130,23,196,172,-40,-313,-404,259,41,-15
-94,26,128,123,-14,-186,-318,68,-8,-13
-7,57,3,124,-6,-92,-193,-69,-47,8
44,90,24,99,8,-3,-37,-86,-43,17
74,56,-36,-88,47,121,152,-32,-10,27
55,-5,-159,-328,18,176,242,-23,-31,32
32,-14,-168,-296,19,200,276,24,-49,39
40,-5,-135,-142,38,166,232,116,-9,-2
40,-35,-247,-158,35,82,169,147,26,-4
-49,-126,-270,-172,17,-16,68,169,12,-40
-67,-115,-170,-103,-47,-99,3,236,58,-17
-121,-88,-19,-111,-196,-189,-108,64,-43,-128
-139,-17,116,-249,-313,-204,-172,-134,-186,-200
-106,33,150,-345,-318,-177,-173,-189,-202,-162
14,90,163,-290,-249,-79,-37,-73,-44,-33
190,204,210,-73,-100,69,150,101,126,175
311,221,111,158,153,283,349,296,279,326
207,28,-207,111,324,371,399,337,272,254
-69,-188,-389,71,321,214,141,53,-50,-43
-109,-128,-168,109,214,187,44,-58,-113,-109
6,1,-29,126,153,201,46,-60,-86,-9
3,-11,-83,140,82,114,27,-118,-91,35
-79,-89,-24,131,24,-1,-16,-219,-171,-13
-137,-119,14,54,-32,-126,-74,-325,-286,-92
-149,-102,-14,-45,-78,-166,-97,-376,-370,-149
-61,-31,4,-133,-98,-134,-32,-181,-207,-53
104,55,17,-183,-44,-32,57,185,130,160
191,137,49,-75,85,89,92,319,273,269
151,96,113,96,93,107,40,192,231,187
50,-2,111,263,156,89,33,171,215,58
-37,-75,71,224,164,19,38,67,94,13
-55,-47,121,148,54,-41,54,-11,-28,-25
33,64,212,131,-11,0,114,136,30,51
11,63,218,149,20,75,180,191,55,63
-95,11,171,246,92,72,134,82,-4,-41
-105,27,104,178,73,34,29,25,-43,-88
-33,44,4,20,34,26,-75,94,44,-50
16,1,-111,-192,-22,3,-106,-16,69,-5
-1,-78,-197,-245,-8,-5,-88,-56,55,-20
70,-14,-117,-89,26,8,-6,74,159,77
103,48,0,48,15,-21,-1,119,219,128
118,91,68,134,8,-62,-67,169,262,107
88,98,62,122,15,-38,-128,38,185,45
27,31,-1,-21,-26,34,-76,-57,60,0
12,-8,0,-122,-70,56,-2,-48,-3,-40
-1,-10,34,-105,-57,65,50,37,-28,-62
-13,0,84,16,-18,60,41,46,-63,-53
-43,19,134,121,-32,4,-62,-69,-144,-104
-53,6,131,147,-53,0,-56,-114,-189,-120
-30,17,90,159,-49,13,-38,-135,-151,-95
-41,-21,-3,148,11,38,-60,-222,-160,-77
-49,-77,-63,72,46,64,-51,-288,-158,-101
-62,-93,-82,13,38,77,-1,-229,-150,-94
-110,-135,-111,-51,-16,-15,-37,-282,-190,-108
-77,-116,-128,-97,-77,-42,-56,-290,-139,-106
-31,-87,-131,-168,-86,39,13,-139,-46,-29
-28,-77,-156,-227,-36,148,125,149,62,4
-25,-32,-78,-171,1,125,83,375,111,-19
34,12,-57,-144,-36,-15,-31,298,136,16
82,19,-109,-161,-69,-138,-93,220,160,69
88,20,-77,-80,-20,-187,-131,221,179,103
73,31,-13,-14,26,-119,-98,178,193,135
80,28,-2,-14,49,-22,-20,82,110,121
81,47,25,-26,8,-50,-46,-3,6,87
69,81,63,-20,-43,-157,-139,-47,-36,19
39,71,67,-42,-83,-181,-153,31,29,45
43,53,102,-49,-123,-134,-83,26,27,61
40,66,98,-62,-151,-70,-9,-26,-11,17
-12,60,55,-84,-131,-35,37,-76,-66,-56
-70,55,109,-66,-127,-20,31,-125,-136,-110
-16,76,96,-28,-119,71,131,3,-9,-23
-27,52,196,134,-29,90,162,66,42,-10
-150,-44,214,402,106,22,48,-42,-56,-178
-169,-96,89,399,139,-8,50,-38,-80,-150
-104,-100,-92,141,89,22,92,2,-19,-74
-40,-56,-66,112,150,50,46,-24,-13,42
34,34,73,247,230,47,-8,-67,-13,102
70,72,44,194,162,6,-13,-41,9,114
56,37,-14,60,24,-12,28,23,6,50
54,-48,-154,-151,-17,76,151,98,24,91
-77,-163,-267,-60,145,61,57,-65,-132,25
-168,-152,-115,60,59,-107,-146,-272,-347,-139
-129,-36,104,93,-118,-237,-269,-356,-390,-191
-111,-83,-42,-145,-172,-170,-269,-373,-337,-183
-95,-165,-233,-393,-128,-119,-301,-405,-287,-168
-59,-91,-125,-230,-16,-94,-300,-322,-187,-140
47,27,-33,-185,-31,-17,-143,-135,-106,-49
168,92,-20,-227,-76,105,79,143,78,102
182,97,43,-169,-129,103,89,330,208,160
127,71,65,-143,-137,-23,-65,379,242,124
142,82,50,-149,-121,-50,-105,276,205,115
87,19,19,-12,-4,-10,-48,98,69,44
-37,-90,-50,239,162,-3,-23,0,-57,-63
-15,-25,55,276,143,-3,6,6,-12,-33
121,128,149,206,60,10,27,127,192,127
140,143,142,252,63,6,-24,74,181,110
79,104,54,203,85,-3,-48,-64,-1,9
39,51,-48,28,30,-31,-32,-94,-67,-14
119,42,-147,-38,16,64,107,27,55,88
70,-58,-135,-102,70,211,246,92,127,71
-156,-215,-181,-175,44,175,143,-31,0,-181
-136,-160,-110,-90,32,114,58,-42,-21,-207
0,-28,-2,-30,40,115,49,49,23,-72
120,31,-49,-135,36,154,66,223,146,100
71,-76,-176,-181,112,151,40,214,175,75
19,-154,-217,-144,141,55,-19,70,111,68
60,-44,-71,-86,40,-41,-58,-1,74,99
94,58,89,56,40,-46,-73,-67,-5,108
88,102,185,127,38,-43,-93,-179,-106,59
62,134,223,87,-59,-100,-116,-289,-167,50
33,145,280,53,-154,-137,-103,-369,-215,40
21,146,278,52,-196,-141,-40,-390,-200,-1
82,150,155,2,-168,-33,94,-323,-93,20
96,39,-100,-123,-34,195,318,-161,44,85
20,-96,-251,-166,77,311,432,47,121,99
-139,-195,-215,-90,115,219,306,232,113,-62
-110,-108,-81,-66,58,137,212,562,285,-58
-21,6,9,-55,33,79,127,611,394,3
12,15,-9,-39,41,36,61,440,301,98
46,5,-51,-84,16,3,50,339,200,131
77,36,26,-21,-2,-80,-56,234,124,89
54,50,99,96,-5,-150,-136,68,35,18
-48,-26,58,108,8,-137,-117,19,-20,-55
-138,-79,20,85,7,-102,-131,-50,-79,-154
-156,-76,43,31,-14,-115,-221,-175,-190,-178
-93,15,108,-66,-88,-173,-336,-287,-276,-191
-38,66,114,-165,-156,-148,-308,-281,-231,-180
97,131,114,-176,-187,-59,-175,-152,-48,-43
250,198,105,-116,-134,10,-31,4,114,152
179,131,51,-24,-60,25,25,9,65,138
25,-4,-58,-1,50,95,107,-24,-65,-51
-34,-87,-135,-29,109,90,126,-90,-209,-155
-87,-124,-137,23,135,73,152,-154,-266,-138
-164,-152,-51,81,109,41,123,-146,-244,-190
-196,-105,99,139,-4,-57,-11,-124,-235,-308
-169,-52,170,123,-144,-158,-104,28,-125,-253
-110,55,296,237,-150,-223,-208,123,-8,-117
-51,108,308,296,-69,-163,-209,73,60,-68
13,77,66,96,-7,-37,-32,166,152,44
29,-1,-175,-37,112,121,138,214,222,67
6,-57,-254,-110,164,171,175,148,159,34
-69,-115,-277,-188,110,98,96,6,1,-49
-7,-76,-310,-394,-24,136,169,34,44,14
29,-30,-221,-275,-20,150,209,28,86,96
19,19,-80,-158,-32,82,148,-89,18,104
24,87,124,-40,-58,-14,13,-219,-65,15
69,166,257,71,-71,-72,-84,-212,-47,3
114,250,320,147,-30,-80,-115,-168,-2,63
141,263,299,172,11,-57,-141,-75,13,106
137,194,199,144,0,-70,-181,-42,7,83
-36,23,78,229,65,-71,-170,-158,-148,-51
-112,-102,-64,214,65,44,-17,-156,-131,-105
-141,-156,-143,131,60,117,87,-185,-168,-157
-244,-246,-202,94,149,93,47,-300,-339,-265
-191,-217,-209,1,210,183,125,-124,-221,-183
-73,-176,-287,-221,162,261,183,154,40,-44
53,-110,-307,-353,-18,127,137,278,248,99
106,-46,-209,-264,-86,-61,17,339,269,134
162,51,-61,-98,-24,-83,-75,526,317,206
218,124,87,58,10,-19,-114,435,306,273
192,127,121,90,-23,-32,-110,74,133,189
83,53,58,73,-59,-56,-121,-127,-51,72
-5,-25,-8,75,-16,-26,-81,-123,-120,3
-36,-47,-24,4,-12,0,-50,-39,-101,8
-21,-15,-44,-24,9,39,3,49,-65,44
14,10,-30,-25,23,66,22,132,5,90
56,57,-39,-7,-45,-31,-45,137,50,169
61,89,33,40,-75,-113,-91,42,-13,180
43,86,143,44,-76,-151,-131,-84,-94,98
34,72,118,24,-76,-148,-92,-82,-68,26
44,53,105,58,-84,-143,-23,43,-37,55
2,82,171,146,-73,-159,-38,3,-134,-13
12,108,193,128,-127,-133,-16,-109,-179,-38
25,93,226,170,-154,-109,8,-200,-171,-81
27,76,244,168,-211,-143,-24,-231,-126,-103
17,30,134,61,-219,-116,-32,-241,-76,-94
41,-21,-102,-83,-119,-42,44,-176,11,19
-86,-184,-265,-149,69,47,143,-22,-7,9
-205,-258,-255,-169,124,134,150,111,-26,-88
-156,-144,-67,-171,-8,99,62,102,-3,-97
-64,-2,140,-25,-92,111,50,58,6,-122
-43,-1,128,98,-8,283,158,81,0,-115
-51,-69,-83,72,134,470,269,152,-8,-53
-1,-80,-240,16,278,480,182,48,-12,31
-27,-158,-335,-86,348,429,106,-183,-83,7
-122,-216,-267,-52,359,332,77,-347,-189,-95
-145,-160,-100,48,265,158,47,-324,-197,-64
-78,-16,100,110,39,-112,-63,-234,-125,-33
-4,122,281,155,-223,-410,-240,-166,-57,-15
65,149,243,87,-345,-484,-272,109,138,44
146,119,114,35,-255,-345,-192,411,342,160
200,137,77,18,-149,-226,-180,202,276,175
93,53,-46,-85,-137,-122,-118,0,134,63
68,-2,-169,-178,-75,-44,-72,55,111,79
82,-3,-186,-152,5,-74,-140,99,117,188
44,15,-66,-71,-10,-183,-262,-97,-57,96
79,95,70,-41,-148,-295,-353,-185,-151,1
103,120,128,23,-182,-252,-288,-112,-126,-80
172,134,138,82,-103,-80,-63,30,-6,14
142,148,142,89,-38,55,86,2,-23,76
-38,90,176,140,73,153,121,-253,-243,-100
-216,-64,130,126,115,199,172,-346,-317,-229
-310,-185,-34,-54,50,219,213,-221,-270,-275
-259,-141,-132,-216,-28,242,229,-76,-184,-196
-230,-153,-225,-310,-26,216,185,61,-122,-170
-176,-186,-359,-324,35,290,242,392,98,-124
10,-128,-441,-378,156,499,409,785,499,91
68,-104,-257,-148,335,648,566,761,597,188
-59,-158,-63,307,484,608,609,440,327,9
-180,-191,-21,425,393,334,413,147,88,-185
-69,-41,70,293,134,14,151,29,99,-102
3,66,132,166,4,-101,28,-135,21,25
-10,51,71,2,-79,-131,3,-112,-46,54
59,71,10,-86,-131,-248,-141,-69,9,124
110,130,79,38,-137,-495,-473,-153,77,132
96,128,143,127,-120,-619,-651,-91,117,90
167,200,197,78,-70,-554,-617,-40,36,105
233,250,189,-74,-82,-384,-478,-8,23,194
204,195,95,-175,-81,-171,-265,76,125,253
143,116,7,-191,-85,-73,-142,66,125,184
87,112,51,-158,-124,-80,-127,-64,9,43
28,106,110,-161,-209,-55,-69,-120,-81,-38
-75,35,95,-133,-199,-78,-63,-216,-187,-66
-112,32,230,142,-94,-57,-42,-269,-240,-73
-72,104,353,396,34,59,56,-164,-199,-76
-78,27,162,366,175,166,129,72,-46,-93
-139,-118,-83,228,252,42,-50,-23,-86,-163
-151,-175,-164,172,265,-77,-154,-204,-159,-108
89,-37,-184,-29,149,-76,-2,72,149,203
203,23,-227,-240,103,0,134,239,314,301
42,-80,-240,-189,208,107,154,15,94,66
-56,-78,-129,-107,205,163,124,-200,-107,-30
-81,-52,-76,-180,38,165,141,-143,-144,-35
-99,-37,-91,-184,-26,115,142,45,-139,-127
-96,-45,-138,-218,-20,115,111,-20,-150,-214
26,73,49,-133,-16,63,39,-125,-114,-90
201,231,203,39,-11,-5,39,33,36,106
195,158,129,146,79,-6,42,244,163,179
0,-86,-10,267,250,10,-33,190,116,7
-32,-104,-26,219,154,-78,-67,54,57,-47
9,-26,27,159,-59,-214,-44,74,61,26
-90,-85,46,169,-58,-140,53,166,44,-22
-253,-166,40,134,12,-66,62,66,-103,-208
-156,-43,97,51,-59,-139,-10,15,-99,-212
9,68,132,-10,-164,-167,25,23,7,-147
109,108,105,11,-178,-100,77,108,125,-39
164,103,2,-27,-128,-81,39,210,252,80
75,-9,-134,-97,-57,-65,-75,44,127,15
9,-62,-128,-178,-46,44,-31,-41,15,14
-65,-123,-118,-301,-96,94,67,100,11,-23
-75,-120,-79,-272,-11,136,132,118,10,-76
45,0,14,-125,114,215,195,111,82,-7
85,70,82,6,142,225,221,140,131,103
116,78,70,91,138,269,305,238,198,176
157,22,-15,79,138,288,330,291,244,210
67,-72,-45,69,135,121,106,117,92,105
38,-17,60,108,79,-71,-101,-36,0,74
62,34,85,66,-11,-133,-137,-47,-26,72
86,26,-21,8,-65,-155,-160,-74,-45,7
70,11,11,-7,-74,-151,-136,-89,-54,-40
-9,-8,111,137,-7,-107,-143,-148,-132,-56
-36,14,185,201,26,-148,-282,-260,-238,-54
-13,41,143,94,-68,-226,-382,-331,-228,-73
-21,10,-17,-3,-95,-227,-367,-353,-223,-52
0,-34,-164,-159,-126,-151,-216,-270,-144,1
-26,-46,-41,-166,-133,-101,-85,-192,-100,-42
-51,-42,6,-179,-127,-33,100,-5,-36,-4
-45,-36,27,-35,-68,31,195,74,0,15
-10,12,109,138,-15,60,150,2,14,-5
67,93,174,184,6,88,127,-4,69,30
99,27,-31,82,62,129,175,106,156,132
4,-117,-225,-21,157,206,137,109,151,56
-97,-146,-176,85,246,194,-37,-84,20,-73
-98,-62,17,190,143,125,-95,-103,-26,-109
-135,3,142,173,-11,11,-89,4,-57,-169
-149,11,130,76,-107,-81,-114,-56,-117,-241
-104,-13,25,-114,-223,-132,-99,-125,-124,-252
-62,-12,9,-37,-217,-200,-78,-138,-134,-151
-82,-72,-56,1,-113,-228,-70,-141,-153,-101
-66,-152,-219,-219,-94,-107,62,-63,-48,-51
-61,-178,-261,-205,-41,-4,136,20,55,-62
20,-67,-205,-185,-64,25,184,101,125,26
151,9,-266,-274,-76,156,370,295,287,222
214,5,-273,-293,4,316,470,405,376,278
203,15,-162,-164,72,284,313,257,256,161
131,0,-67,24,105,142,129,104,126,79
23,-53,-18,90,94,53,16,35,66,35
-7,-86,-77,27,81,31,-28,50,77,75
0,-66,-55,11,40,-9,-87,13,57,59
-7,-18,40,40,-20,-57,-188,-63,2,-23
50,90,126,65,-29,-91,-237,-121,-32,21
86,170,201,52,-65,-111,-262,-181,-77,57
48,118,124,13,-132,-126,-215,-176,-108,6
70,93,130,55,-139,-115,-112,-178,-121,-43
59,48,142,70,-110,-40,-5,-135,-76,-68
-6,-44,24,96,-18,73,143,-79,-73,-29
-122,-138,-110,190,119,158,211,-150,-176,-60
-209,-194,-172,48,129,160,162,-248,-256,-169
-158,-138,-143,-124,69,186,183,-223,-209,-167
-86,-56,-8,-96,50,177,150,-213,-127,-155
-5,82,163,128,64,65,-33,-316,-130,-57
49,163,235,299,81,-24,-181,-315,-129,0
67,151,294,313,31,-98,-164,-64,-11,18
50,87,232,200,-55,-161,-105,330,140,-29
10,46,112,92,-18,-166,-88,585,256,35
-23,13,14,-59,-5,-120,-30,537,260,81
11,-24,-116,-186,-20,-19,79,371,224,109
30,-88,-263,-255,8,49,116,200,151,116
-91,-157,-206,-181,45,-7,-18,-66,-81,-71
-129,-128,-113,-121,-17,-58,-100,-146,-207,-108
-17,-27,-131,-122,-59,-18,-49,-66,-161,-26
37,11,-104,-96,-21,13,-42,-51,-93,-4
27,-10,-90,8,111,27,-15,-65,-48,-4
50,5,-27,95,100,-41,25,0,0,101
56,17,5,71,21,-22,107,153,82,137
74,34,16,54,86,128,225,259,148,151
36,10,-15,98,149,195,274,159,75,87
-55,8,71,129,84,107,222,-4,-79,-33
-110,2,111,72,-31,-11,136,-100,-187,-136
-93,-24,27,-27,-98,-81,-8,-114,-144,-115
-60,6,14,-67,-102,-111,-144,-105,-101,-55
-88,-18,-54,-83,-59,-39,-108,-104,-140,-88
-98,-65,-134,-106,-17,75,72,36,-89,-74
-30,-17,-74,-90,4,148,253,223,50,40
41,56,30,-45,-29,104,302,299,96,103
54,67,55,32,18,46,252,210,107,70
18,32,22,48,63,28,172,74,64,-36
13,39,15,-65,-36,-58,77,40,31,-30
33,62,41,-78,-88,-111,33,50,35,48
37,56,40,-31,-80,-74,-5,31,53,53
55,68,48,5,-110,-142,-243,-30,73,38
102,138,227,64,-149,-333,-583,-208,28,-1
110,186,315,89,-144,-452,-757,-357,0,10
37,99,211,-11,-151,-382,-641,-347,-26,6
16,91,170,-83,-156,-238,-376,-290,-73,-27
34,110,201,-51,-154,-150,-151,-224,-66,-61
1,71,167,-1,-149,-121,-67,-197,-69,-88
74,121,131,-26,-192,-54,-4,-88,14,32
217,242,197,134,-74,48,51,1,115,150
268,189,80,177,93,173,127,112,210,190
155,31,-109,114,167,162,37,87,159,113
-23,-96,-158,260,277,109,-93,-62,16,-105
-174,-168,-108,468,368,-44,-235,-327,-192,-301
-290,-183,-40,422,277,-209,-297,-560,-403,-420
-192,-80,33,126,20,-133,-100,-447,-333,-324
-78,-7,-31,-144,-6,108,202,-197,-164,-187
37,-40,-244,-430,-24,270,473,103,49,12
-6,-171,-403,-533,-35,268,532,370,194,60
-67,-220,-388,-432,-11,207,425,459,221,2
-66,-187,-281,-259,62,188,273,335,134,-28
-42,-135,-151,-158,52,154,207,263,79,-36
-78,-110,-109,-69,53,125,156,249,55,-65
-51,-78,-83,-54,28,59,27,208,63,-24
49,4,-2,-15,6,-63,-225,85,109,71
83,43,34,7,10,-183,-453,-61,71,106
63,49,30,-31,-5,-175,-456,-132,11,63
68,100,60,-25,-10,-111,-314,-127,-5,31
-2,80,99,2,-3,-45,-154,-85,-1,-3
14,75,94,-13,-17,-7,-52,-44,-2,8
86,94,45,-21,-29,35,8,-17,28,69
136,92,95,0,-42,64,30,-27,40,95
128,70,141,17,-39,61,64,-43,15,92
79,56,148,60,-18,74,68,-72,-23,56
59,71,140,36,-44,42,40,-86,-43,-13
62,92,101,-32,-106,-39,-14,-67,-23,-11
61,73,69,-39,-106,-44,-22,8,31,111
16,2,28,18,-41,-20,47,45,47,190
-12,-27,-15,-35,-37,19,175,106,59,177
-53,-42,-12,-61,-43,71,221,94,9,53
-105,-88,-20,-34,-35,46,133,18,-51,-63
-85,-66,-54,-26,2,42,77,-31,-43,-46
-75,-56,-72,-51,50,151,255,103,37,-19
-110,-93,-99,-48,96,306,548,353,189,47
-74,-52,-97,-41,125,418,700,457,258,144
-61,-44,-52,3,129,397,724,429,176,102
-118,-80,-35,39,90,287,608,243,14,-75
-98,-78,-46,16,36,225,434,143,-12,-112
-93,-91,-90,-30,-22,115,190,103,-1,-91
-72,-66,-87,-39,-43,-39,-83,51,44,-59
8,57,72,72,-38,-210,-481,-134,38,-10
77,144,245,220,-9,-386,-895,-196,22,86
115,185,305,321,36,-400,-962,-216,48,84
21,103,198,327,26,-290,-629,-269,-54,-32
-65,32,197,319,-35,-229,-369,-269,-143,-105
-61,26,256,209,-77,-150,-250,-239,-134,-81
-23,46,243,77,-65,-52,-169,-169,-100,-17
-53,65,203,-50,-105,-51,-180,-162,-161,-84
-34,122,140,-195,-226,-139,-266,-198,-221,-121
77,184,81,-137,-229,-130,-232,-103,-131,52
124,104,-37,43,-43,-83,-201,-73,-30,133
17,-96,-190,24,99,-64,-207,-162,-105,28
-27,-105,-105,129,152,7,-121,-196,-184,9
-45,-52,18,270,197,63,-54,-213,-209,-85
-99,-66,-2,217,175,75,54,-142,-170,-138
-75,-94,-185,-109,77,116,200,115,32,16
-4,-130,-314,-362,9,135,253,319,213,132
-24,-150,-275,-379,-36,94,205,293,186,116
35,-52,-101,-203,1,85,174,237,179,83
63,2,-31,-42,85,105,165,207,135,76
38,6,-53,2,119,137,179,204,68,89
16,-3,-51,-5,65,120,128,163,33,34
22,-5,-26,-34,0,89,78,90,24,5
6,-36,-48,-110,-46,66,144,92,-1,48
-40,-61,-70,-145,-96,26,165,71,-55,10
-64,-68,-11,-69,-106,-11,97,27,-70,-71
1,-5,20,-11,-78,-6,66,62,-6,25
42,36,26,-30,-53,18,5,67,31,88
52,58,48,9,-29,-32,-125,0,46,72
97,117,111,77,-29,-161,-275,-82,73,41
113,134,123,122,11,-223,-307,-157,60,40
89,111,131,171,65,-173,-235,-225,-40,43
57,73,119,130,38,-79,-130,-324,-159,0
33,54,126,74,-14,-27,-42,-360,-163,-37
-29,9,120,59,-20,13,9,-282,-117,-40
-91,-52,52,30,-35,60,64,-188,-70,-111
-140,-123,-53,-51,-27,125,82,-173,-79,-180
-160,-109,-61,-73,-30,57,-41,-135,-143,-220
-48,-16,-12,-53,-52,-65,-165,136,6,-122
88,41,29,-45,-40,-88,-181,212,137,-28
158,30,-37,-113,-28,34,21,181,174,104
96,-36,-90,-9,54,148,238,200,195,63
32,-83,-204,24,75,213,363,370,258,40
23,-88,-273,-45,9,230,449,521,351,144
-48,-106,-173,-12,35,205,441,403,250,115
-112,-109,-132,-31,48,144,347,265,112,16
-112,-75,-83,-64,-14,92,213,253,46,-46
-85,-44,15,-15,-90,-12,23,203,19,-125
-52,24,159,104,-137,-174,-233,22,-34,-114
24,121,281,243,-95,-246,-473,-125,-13,-57
79,162,355,401,35,-232,-612,-264,-38,-35
24,136,310,478,124,-214,-597,-418,-175,-148
0,86,157,360,121,-184,-423,-366,-178,-158
30,5,-61,17,24,-184,-243,-181,-38,-41
17,-101,-238,-334,-173,-190,-214,-137,-13,-14
-3,-94,-196,-293,-179,-182,-274,-237,-81,-48
26,-2,-21,-36,-55,-109,-269,-276,-110,-36
22,10,26,43,-1,-26,-149,-167,-43,-16
17,58,114,84,-3,0,-107,-172,-40,-45
42,139,179,3,-81,0,-74,-205,-61,-34
110,134,116,-143,-127,32,66,-155,-26,26
64,25,-36,-234,-104,128,297,-102,-61,-30
26,-24,-109,-233,-140,110,450,-66,-138,-45
72,-38,-165,-176,-81,188,661,97,-28,55
-51,-177,-241,-74,43,280,746,237,61,-9
-174,-247,-263,-2,128,265,623,222,31,-106
-83,-142,-137,104,161,206,421,310,152,-25
69,1,-68,63,149,162,204,497,371,128
77,-36,-125,12,167,110,-17,356,353,174
47,-66,-174,39,133,22,-94,83,157,154
18,-47,-163,-42,52,-6,-52,172,110,144
-49,-28,-21,-56,79,27,-59,101,5,7
-26,29,-4,-7,67,51,-18,39,-54,-41
-18,2,-16,-28,60,89,20,78,-44,-31
-50,-44,-47,-53,76,95,-14,21,-78,-54
-53,-18,-12,-19,45,40,-121,-59,-59,-41
-38,3,59,44,-7,-88,-280,-128,-61,-6
-17,29,96,61,-31,-178,-398,-192,-68,32
-62,54,158,70,-30,-197,-376,-185,-114,-26
-112,63,164,2,-58,-127,-235,-106,-148,-123
-143,54,155,-37,-103,-81,-156,-148,-190,-173
-82,30,89,-110,-125,25,31,-39,-101,-63
35,11,-37,-191,-92,158,295,198,105,92
25,-34,-177,-42,126,242,398,283,174,100
-77,-102,-244,189,322,201,289,162,75,-10
-118,-131,-114,101,178,103,190,107,-3,-78
-61,-106,46,128,64,45,175,88,-52,-58
43,-20,153,227,-8,-42,87,-15,-60,18
55,5,173,271,-46,-173,-49,-108,-24,59
-20,16,188,250,-31,-231,-128,-263,-161,-57
-87,-29,46,26,-34,-140,-89,-390,-344,-164
-38,-62,-138,-240,-44,73,53,-364,-307,-90
41,-50,-170,-289,-28,239,218,-256,-129,75
71,-7,-69,-149,-25,284,229,-301,-94,87
36,-11,1,-2,48,323,145,-305,-93,19
47,-33,-45,58,130,230,11,-233,2,69
115,23,-83,62,72,97,4,85,230,198
94,23,-37,-31,-32,-15,104,392,378,203
6,-52,-60,-107,-72,-85,81,326,272,92
-46,-77,-116,-64,-65,-146,19,526,304,129
-10,-11,-36,7,-125,-301,-111,569,355,134
102,95,118,57,-155,-449,-340,276,285,123
159,128,119,122,2,-354,-435,37,181,129
64,49,46,153,153,-126,-289,-13,85,71
35,39,4,112,134,6,-44,98,106,130
79,103,47,106,93,13,113,131,114,152
107,101,63,58,21,-32,132,77,52,98
103,39,-29,-114,-82,-89,134,59,52,27
110,1,-186,-204,-91,-73,124,54,48,39
41,-30,-256,-142,-41,-57,71,24,-42,59
-47,-56,-196,-94,-58,-74,-23,15,-106,0
-13,-24,-29,-7,-65,-170,-265,-42,-98,-13
95,84,149,119,12,-191,-462,-246,-91,13
82,85,187,172,65,-127,-353,-265,-92,66
-73,-19,149,135,27,-65,-129,-146,-115,45
-166,-68,107,85,2,-68,-12,-57,-134,-26
-148,-84,76,26,-17,-58,28,-41,-158,-47
-160,-105,92,2,-46,-25,67,-71,-204,-112
-203,-97,162,6,-72,2,45,-107,-228,-259
-145,-25,172,-12,-94,23,9,-99,-204,-205
-55,62,225,28,-87,26,-13,-60,-139,-57
-45,51,202,116,-53,-41,-135,-91,-117,-12
63,96,87,146,-13,-111,-199,-56,1,79
188,129,49,31,20,-82,-116,14,179,160
163,34,-32,-49,56,-5,-23,-43,183,153
96,-15,1,114,93,96,65,-126,72,104
108,81,140,173,10,109,117,-221,-47,33
129,117,108,120,-41,108,104,-214,-55,80
52,26,-56,-31,-41,49,26,-173,-42,101
-8,-60,-208,-293,-29,60,93,85,83,83
26,-84,-302,-480,-15,183,255,426,322,156
22,-119,-307,-381,79,186,200,358,323,100
0,-103,-180,-56,191,126,78,207,252,74
-2,-27,-43,106,179,15,-63,117,179,90
26,58,60,142,131,-68,-135,-3,48,63
-3,79,125,86,37,-55,-67,-44,-65,-36
-61,43,106,59,-9,4,47,-15,-138,-130
-47,39,66,39,13,75,128,-8,-121,-156
-19,0,-11,8,51,92,161,20,9,-108
-105,-79,-111,-42,20,46,142,8,15,-111
-106,-74,-93,-128,-46,39,136,59,41,-29
-36,5,-7,-64,-44,62,184,106,76,45
-18,68,58,18,-31,66,230,90,32,14
-38,73,65,7,-15,67,231,40,-33,-72
-51,64,76,-25,-58,19,191,20,-41,-109
-77,53,80,20,-73,-40,143,50,-49,-115
-71,38,33,84,-17,-63,47,67,-60,-133
-115,-40,-57,155,68,-130,-163,-66,-98,-144
-147,-99,-104,189,86,-216,-386,-250,-167,-195
-74,-40,-28,180,82,-188,-406,-289,-174,-216
14,26,-8,90,39,-161,-402,-247,-124,-83
64,44,3,-14,-21,-171,-408,-207,-76,54
87,56,22,-78,-31,-132,-326,-206,-40,94
66,0,-22,-91,-7,-72,-227,-190,-40,19
80,34,22,-59,-26,-15,-120,-154,-52,-8
18,21,54,-15,-53,25,94,-67,-72,1
-57,-11,25,-1,-60,18,244,-38,-110,-67
-53,0,-11,-41,-60,24,279,-19,-121,-134
24,36,-68,-141,-52,79,317,147,6,-133
67,63,-52,-128,-32,62,313,238,112,-72
104,117,14,-51,-74,-37,97,135,111,31
182,155,108,43,-32,-82,-104,75,173,211
137,83,105,164,139,-38,-272,-11,158,241
60,34,80,209,232,-9,-399,-124,97,172
-14,-19,32,152,194,31,-276,-152,27,0
-36,-17,-12,117,174,147,43,-24,63,-29
9,-17,-133,30,162,246,252,172,170,102
0,-37,-185,-50,148,248,303,205,155,112
16,-18,-125,-92,107,210,302,155,65,50
12,-25,-99,-152,35,151,225,45,-15,-24
6,-20,-101,-132,-7,132,177,4,-15,44
8,3,-6,33,33,111,108,-6,1,78
-68,-17,11,158,90,55,18,-20,-50,-61
-156,-98,-82,79,13,-16,-27,-53,-140,-262
-185,-139,-102,-92,-124,-125,-131,-115,-187,-298
-99,-55,-109,-181,-189,-207,-282,-201,-187,-209
22,78,58,-96,-177,-140,-230,-155,-99,-30
116,169,272,-13,-165,-22,-22,-18,-8,108
150,170,257,-13,-172,26,71,29,-19,114
94,137,165,-45,-213,-26,58,-31,-94,51
74,110,59,-116,-253,-53,14,-102,-158,-17
102,66,-10,-158,-139,61,152,-24,-92,-27
-60,-147,-189,-28,188,211,282,22,-121,-147
-302,-345,-302,147,431,253,248,-18,-211,-280
-217,-230,-195,50,269,170,182,62,-111,-118
-80,-70,-47,-15,87,69,176,149,-12,-17
-67,-42,-1,-48,15,39,220,304,108,-39
-89,-54,-22,-92,3,21,189,279,119,-81
-54,-35,-66,-114,-76,-73,36,145,75,7
-18,-4,8,-45,-91,-102,59,102,34,27
-15,-12,32,32,-4,17,273,115,35,10
17,-33,30,44,59,99,345,137,99,4
59,-26,24,26,63,85,277,264,202,78
14,-55,-17,6,51,82,180,333,244,132
-36,-88,-64,-7,6,72,85,302,235,105
6,-21,-84,-63,-42,40,-66,119,182,78
54,51,19,-15,52,78,-214,-45,131,-13
57,97,120,119,137,49,-333,-231,24,-64
33,98,131,134,67,-8,-280,-269,-9,-80
59,120,191,113,-35,-65,-252,-243,42,-13
128,174,231,143,-10,-203,-493,-299,66,140
209,243,259,169,-25,-328,-587,-294,108,241
212,234,152,133,-78,-239,-298,-128,141,215
129,105,-6,19,-72,-31,-32,46,136,63
-26,-37,-68,4,-33,-28,-86,-42,-31,-148
-120,-83,-68,42,-42,-137,-186,-197,-248,-305
-133,-112,-72,-11,-46,-143,-113,-135,-269,-253
-165,-142,-86,-43,-52,-187,-185,-157,-296,-210
-161,-110,-48,-53,-84,-267,-332,-254,-298,-195
-50,-4,-27,-78,-103,-317,-359,-218,-133,-124
92,68,-23,-96,-119,-230,-158,-62,54,36
122,89,31,-52,-166,-105,144,55,111,176
76,66,55,0,-159,42,419,115,78,154
40,32,111,117,-111,154,536,209,67,83
-8,-5,178,243,-75,198,503,258,109,-24
9,-10,109,268,-31,124,286,159,160,-6
20,31,75,268,59,-56,-123,-111,2,10
70,69,-5,77,66,-115,-352,-214,-88,-26
174,67,-151,-207,61,30,-252,9,28,-2
240,-4,-279,-384,72,78,-245,43,177,68
258,1,-190,-268,25,16,-240,-89,157,185
230,52,-64,-32,59,10,-134,-161,37,185
153,42,-43,15,55,0,-52,-145,-4,102
56,0,-7,-10,10,-4,56,-58,-26,-36
-60,-32,27,-10,-11,19,132,4,-110,-176
-157,-42,57,5,-35,28,99,-48,-335,-327
-291,-117,32,-40,-98,-1,48,-25,-461,-513
-329,-129,72,39,-96,-38,-115,-64,-353,-521
-197,-3,196,182,-106,-136,-333,-138,-203,-379
-36,103,236,216,-93,-155,-347,-127,-69,-131
32,125,164,197,-1,-70,-294,-37,64,27
43,136,74,171,39,-52,-257,-39,97,7
72,118,-41,-86,-33,-9,-16,34,163,0
43,15,-162,-339,-95,66,196,130,194,-8
-54,-74,-187,-277,-4,93,186,88,91,-37
-64,-59,-119,-74,85,33,86,34,30,-57
15,-10,-72,-35,33,48,142,133,134,51
-7,-19,-33,-24,8,68,139,149,139,-32
-54,-20,-70,-35,35,85,77,80,57,-139
-72,1,-46,-47,63,110,60,65,-4,-123
-47,5,34,56,71,70,3,4,-58,-71
-42,-24,-16,146,141,119,51,-28,-93,-46
-25,-117,-112,-8,146,263,312,109,-14,-33
-106,-195,-119,-48,96,219,340,93,-48,-121
-170,-201,-90,-53,-1,104,244,13,-116,-122
-117,-147,-102,-99,-38,131,310,148,-33,-20
-36,-116,-138,-133,32,228,506,482,202,102
-85,-194,-207,-184,75,296,608,500,247,26
-4,-137,-168,-201,39,371,688,337,237,63
140,-8,-130,-95,67,398,690,259,196,163
145,-1,-97,-42,65,294,531,171,118,128
94,-34,-82,-32,50,121,201,-18,27,78
98,-8,29,26,39,-104,-230,-222,-87,60
169,110,129,58,-23,-263,-557,-196,-80,140
86,73,99,55,-23,-324,-683,29,-12,92
0,4,65,55,-6,-373,-837,-148,-115,11
-5,-11,44,4,-31,-329,-789,-344,-134,-15
17,4,60,-12,-33,-171,-466,-278,-70,3
-19,-13,77,-23,-25,0,-130,-135,-102,5
-58,-29,89,3,-16,70,10,-44,-127,-4
-83,-52,80,60,5,80,11,-21,-88,-25
-30,-32,64,97,-5,12,-70,1,60,-7
82,63,133,180,-8,-195,-367,-143,98,45
162,164,232,306,-33,-372,-581,-280,56,175
72,129,264,469,6,-368,-494,-282,26,211
23,96,274,495,40,-286,-373,-264,-29,139
10,106,236,284,-49,-214,-238,-219,-86,0
-121,-8,100,-19,-159,-139,-52,-110,-179,-182
-253,-115,-40,-310,-223,-48,85,-50,-305,-294
-247,-167,-209,-572,-264,26,203,50,-200,-231
-217,-271,-341,-554,-145,127,312,108,-39,-146
-226,-297,-298,-211,54,208,375,35,-42,-205
-199,-229,-257,-107,58,222,412,-22,-135,-246
-213,-202,-258,-143,-7,183,376,22,-182,-264
-63,-92,-167,-153,-9,258,438,243,36,-32
21,-29,-58,-93,0,245,421,304,133,86
16,-18,-17,-39,-55,73,285,214,128,68
61,10,-18,4,-30,0,164,165,183,71
110,73,41,52,66,-36,39,216,246,188
149,135,108,80,82,-149,-168,189,236,268
139,135,68,42,-12,-250,-337,29,126,200
160,143,6,6,-46,-210,-280,-9,111,104
175,128,23,0,-22,-157,-161,16,111,69
167,127,16,26,29,-153,-256,-78,-12,64
216,147,24,23,1,-164,-295,-105,-10,40
149,95,-59,-8,-37,-98,-88,-11,32,-10
31,-7,-47,-20,2,105,224,74,0,-83
-110,-144,-86,-11,48,119,278,70,-59,-159
-160,-146,-21,83,79,3,51,-103,-138,-226
-92,-21,234,278,64,-54,-90,-299,-228,-258
-33,42,298,283,33,1,-11,-250,-167,-202
-28,88,320,232,4,0,-14,-259,-148,-187
0,161,404,246,-36,-98,-133,-390,-208,-180
173,270,381,143,-111,-170,-236,-374,-172,-61
305,256,120,-131,-118,-101,-177,-286,-97,60
180,27,-229,-323,-39,102,100,6,-3,51
-21,-189,-503,-331,62,213,283,83,-17,-56
-105,-229,-496,-270,117,217,341,106,-72,-162
-78,-134,-290,-276,83,242,439,446,123,-105
-17,-4,-109,-205,58,197,346,563,290,-1
-1,14,-56,-157,46,162,256,639,413,78
-66,-72,-96,-90,115,143,110,472,344,36
-164,-141,-67,133,277,102,-155,107,100,-113
-83,-18,74,207,258,-1,-481,-188,7,-91
18,114,207,206,178,-103,-618,-318,-10,-19
45,155,226,140,59,-134,-444,-259,-36,-1
66,192,243,183,-7,-121,-174,-144,-56,15
63,213,309,264,6,-4,109,-53,-26,37
77,197,283,225,-48,53,244,25,74,76
84,156,162,145,-131,-29,150,14,133,104
-40,-2,5,38,-132,-151,-20,-131,-32,-21
-87,-121,-156,-169,-99,-155,-69,-161,-103,-47
28,-95,-273,-424,-144,-4,81,55,43,90
0,-80,-232,-311,-49,101,156,77,-5,57
-51,-92,-163,-100,101,180,216,90,29,-1
-4,-49,-64,9,136,140,202,204,153,56
1,-62,-114,-32,64,36,209,335,189,71
-20,-60,-208,-102,-37,-87,118,294,126,35
-30,-23,-72,-89,-51,-164,-85,22,-9,-13
-31,-23,-17,-60,-12,-115,-218,-120,-80,-38
-8,16,29,-4,49,-92,-353,-157,-95,-7
38,85,104,96,128,-87,-451,-271,-131,20
10,67,88,108,107,-47,-310,-239,-142,-21
-46,28,87,102,10,-57,-122,-143,-134,-67
-64,-2,69,51,-73,-99,-11,-31,-115,-82
-45,-14,25,17,-93,-117,18,19,-82,-50
-67,-34,4,30,-91,-57,150,18,-96,-79
-98,-55,19,-7,-116,5,313,76,-88,-86
-116,-91,-34,-92,-127,51,403,157,-33,-46
-137,-92,-18,-104,-119,73,351,114,-15,-39
-106,-64,29,-90,-149,34,222,34,1,-21
-26,-26,6,-110,-155,0,97,9,72,57
84,47,-40,-49,-44,61,59,5,95,161
183,114,-19,52,77,69,-49,-6,105,192
217,100,-66,-39,60,-38,-267,27,206,221
229,118,-10,26,100,-157,-523,-140,151,228
226,159,101,123,94,-220,-620,-277,70,185
150,140,107,75,23,-212,-484,-226,67,120
100,82,74,8,-35,-151,-264,-116,57,113
76,54,98,35,-66,-80,-87,-57,58,115
27,42,130,73,-50,-30,-28,-74,44,81
-16,4,102,69,-16,20,-11,-94,18,16
-15,-10,83,94,-5,27,-45,-112,-42,-12
-43,-43,50,113,-5,11,-42,-96,-141,-75
-38,-28,26,126,0,88,220,15,-212,-165
-1,5,26,156,12,229,568,198,-205,-155
-45,-24,59,187,9,230,612,162,-232,-196
-119,-100,-54,4,-67,147,523,58,-269,-247
-138,-130,-209,-285,-196,63,442,63,-245,-213
-166,-180,-327,-483,-249,70,420,194,-143,-180
-154,-204,-365,-405,-146,104,331,281,-17,-106
-30,-107,-308,-223,-27,16,-37,206,143,99
93,27,-125,-32,88,-45,-300,121,268,276
15,-20,-14,193,257,102,-159,105,201,200
-36,-29,6,207,260,161,-40,98,116,76
3,26,12,120,148,80,-113,43,101,64
47,59,13,106,152,92,-198,-20,85,114
49,74,57,127,156,85,-291,-141,14,91
9,52,76,107,120,24,-257,-174,-24,21
-61,-17,16,35,58,16,-88,-130,-51,-82
-56,-58,-47,-28,-33,-9,38,-77,-20,-73
11,-37,-26,-49,-109,-61,113,-10,55,11
10,-14,12,-7,-92,4,270,74,101,37
-37,-43,-13,6,-39,142,425,107,58,3
-58,-86,-43,-12,-11,177,446,95,15,4
-117,-135,-86,0,59,190,387,63,-53,-44
-212,-208,-115,36,110,277,456,149,-33,-78
-217,-189,9,88,23,278,458,220,-1,-60
-173,-77,125,144,-73,62,103,74,-66,-107
30,117,265,219,-67,-252,-494,-183,-92,-39
185,244,325,236,-26,-325,-673,-331,-79,67
209,215,212,90,20,-34,-160,-143,28,126
185,107,-18,-166,6,247,376,167,186,191
126,0,-138,-284,47,428,741,329,261,189
25,-17,-71,-160,161,490,753,230,156,75
-25,-11,-19,-151,69,226,369,33,24,-8
-57,-85,-105,-196,-25,-65,-28,-43,-20,-22
-81,-137,-174,-114,7,-209,-294,16,-18,-15
-35,-74,-144,-115,-89,-307,-543,7,0,-8
83,40,-12,-73,-152,-413,-753,-82,28,41
151,124,38,6,-120,-485,-936,-208,55,101
168,167,63,54,-78,-472,-889,-269,65,128
138,151,103,39,-80,-400,-611,-165,89,105
101,108,60,-4,-113,-286,-309,-13,100,74
66,55,30,-23,-125,-119,11,96,105,50
32,40,21,-12,-91,7,178,130,66,20
0,30,12,-28,-106,1,252,147,1,-14
-40,1,26,3,-59,-56,186,101,-92,-80
-73,4,68,130,112,-40,-44,-128,-261,-153
-40,42,109,195,169,-11,-238,-289,-303,-142
87,99,157,158,69,-105,-398,-343,-219,38
155,139,197,151,16,-185,-524,-396,-189,169
122,133,233,114,-38,-201,-536,-406,-183,116
88,126,241,65,-94,-209,-520,-400,-195,43
87,110,156,-53,-142,-185,-419,-333,-163,25
80,92,88,-133,-149,-144,-303,-256,-113,18
86,106,62,-93,-121,-173,-327,-262,-113,0
102,63,-43,-24,20,-109,-210,-187,-60,-14
10,-68,-137,75,160,7,-22,-77,-27,-49
-40,-93,-39,292,176,43,98,41,88,-24
-63,-99,-27,441,203,54,169,72,143,-15
-90,-55,-47,433,203,68,165,-129,-26,-84
-177,-48,42,306,106,31,87,-271,-187,-203
-220,-140,-69,-21,-80,-56,-12,-397,-337,-299
-135,-186,-271,-402,-249,-15,97,-308,-326,-251
-86,-219,-317,-488,-265,115,352,80,-135,-167
-47,-183,-262,-285,-97,251,559,386,33,-114
-19,-109,-142,-179,8,257,526,435,145,-18
33,2,12,-130,6,187,434,520,328,137
115,96,74,-168,-8,200,456,575,431,218
102,84,35,-192,21,238,498,532,397,162
-58,-13,-31,-179,-15,209,525,459,187,-44
-182,-112,-53,-13,14,104,305,262,-32,-164
-155,-90,9,138,95,-14,-22,9,-123,-118
-140,-94,1,87,124,-80,-154,-84,-123,-84
-154,-99,-22,-14,48,-63,-52,-17,-93,-65
-57,-32,-17,-23,10,-25,27,96,-13,22
26,24,-31,50,62,53,93,228,40,78
47,50,21,101,107,129,132,261,89,114
60,43,-8,90,115,98,48,172,131,147
84,-13,-84,-8,47,-21,-135,65,139,217
105,-19,-69,-70,20,-125,-400,-143,64,233
104,33,12,-51,16,-112,-471,-251,-17,164
69,62,97,7,10,-52,-350,-203,-41,76
44,78,197,129,42,12,-249,-184,-75,28
-20,50,231,205,32,48,-146,-188,-132,-47
-53,2,132,151,4,79,10,-139,-126,-55
-81,-47,35,66,-33,109,174,-89,-83,-47
-74,-52,-71,-61,-94,80,319,-1,0,-16
-81,-106,-244,-256,-121,8,387,94,96,28
-92,-177,-377,-372,-110,-61,359,186,197,94
-88,-151,-242,-243,-83,-9,289,176,205,88
-79,-110,-112,-168,-82,55,187,131,120,4
-44,-45,-47,-87,-25,81,88,179,109,5
46,74,54,-5,3,30,-76,95,154,66
148,179,135,68,9,-18,-197,-70,212,165
135,143,48,60,-6,-42,-198,-132,189,164
92,83,2,-2,-13,-9,-58,-13,208,145
61,39,-24,-20,74,139,278,188,196,120
-39,-57,-91,-35,176,225,500,293,96,62
-114,-115,-94,-8,178,212,525,327,-1,-94
-119,-83,-82,6,131,140,417,240,-67,-222
-92,-27,-52,8,60,13,205,87,-93,-179
-53,-32,9,-37,-55,-37,134,46,-48,-100
-45,-19,56,50,-30,-18,75,-10,-24,-60
14,56,195,274,133,-5,-221,-203,-2,21
81,116,272,400,196,-90,-522,-431,-59,61
11,83,293,439,94,-281,-647,-570,-194,-27
-79,43,305,325,-79,-452,-666,-613,-297,-126
-85,14,180,47,-184,-497,-627,-549,-329,-155
-63,-9,34,-245,-305,-494,-577,-434,-345,-165
15,45,22,-380,-429,-505,-487,-207,-222,-113
181,85,-110,-413,-350,-314,-183,24,2,73
234,46,-307,-310,-76,-15,158,106,81,163
110,-42,-316,-126,167,148,242,136,84,107
13,-94,-181,-117,219,201,236,214,139,52
-2,-45,-49,-85,204,189,142,206,109,12
-12,-7,2,-54,132,101,83,312,121,56
-12,-5,51,-16,28,-12,33,252,73,50
-28,4,80,-28,-56,-45,-46,72,10,-6
-55,-17,77,-52,-83,-19,-72,37,0,-51
-42,-19,71,-45,-87,-30,-18,66,-12,-59
3,17,78,-5,-72,2,65,120,40,-7
56,46,40,-4,-21,102,141,171,139,84
93,65,11,-2,25,84,102,169,172,141
56,46,50,41,16,-18,-19,71,112,154
-1,-11,17,1,19,12,-4,15,41,109
-38,-39,-23,-43,37,88,38,8,26,-1
-46,-32,-79,-34,39,107,10,-38,10,-13
-87,-72,-123,43,75,64,-47,-196,-128,-94
-127,-64,52,177,78,38,-38,-312,-281,-180
-56,14,162,255,4,24,90,-266,-266,-152
26,78,189,241,-37,-26,131,-225,-185,-100
59,93,185,212,-74,-97,78,-167,-85,-38
34,60,117,157,-66,-170,-32,-60,51,0
-11,-31,-92,-41,-43,-120,-11,208,169,57
-70,-105,-163,-133,39,-5,15,418,217,53
-138,-93,-34,17,132,119,-10,235,107,-37
-174,-121,-65,8,104,147,66,88,54,-51
-98,-75,-147,-133,-11,150,234,106,67,-24
-40,-56,-172,-200,-52,196,372,158,68,6
2,-62,-197,-218,-27,215,417,212,105,76
83,-30,-215,-218,0,170,316,192,169,176
163,43,-130,-148,-28,64,98,63,148,221
232,181,62,-11,-42,-40,-61,-38,89,218
208,214,142,63,-42,-85,-109,-36,25,183
134,175,81,122,-41,-96,-107,-21,-2,114
105,131,36,173,-29,-91,-67,-13,39,135
-12,27,18,139,-32,8,150,83,45,84
-117,-50,22,0,-61,92,299,153,-61,-53
-159,-84,3,-114,-37,150,255,108,-160,-134
-139,-77,10,-157,9,143,106,-96,-256,-108
-55,-24,3,-196,-105,30,27,-206,-274,-67
-4,31,58,-61,-155,-58,-30,-194,-242,-60
73,95,75,114,-13,-69,-241,-295,-186,42
45,-1,-60,157,173,-142,-552,-519,-224,19
79,-13,-46,158,154,-237,-601,-442,-174,33
143,45,-53,26,16,-228,-379,84,158,209
144,55,-67,-16,21,-129,-228,491,437,350
119,63,43,103,113,14,-127,362,324,285
54,18,40,124,123,75,-43,123,81,141
5,-55,-53,5,51,29,-25,47,-53,37
-36,-76,-35,-15,-1,-8,-78,-28,-144,-49
-76,-52,28,44,-22,-42,-136,-50,-138,-104
-20,-7,59,57,-52,-68,-132,-15,-2,-14
44,22,63,57,-62,-43,-76,-65,59,15
44,17,20,28,-52,12,-25,-110,68,93
57,28,-77,-28,-33,74,25,-94,101,146
105,59,-19,-74,-1,115,39,-134,56,146
67,26,-16,-123,-14,129,139,-38,-9,22
-124,-100,-123,-191,-72,114,266,238,-91,-186
-237,-132,-110,-82,-32,80,257,274,-214,-350
-178,-105,-70,-37,-2,89,210,218,-128,-287
-100,-52,8,-21,1,59,97,105,-63,-224
-48,-17,85,45,-19,20,15,8,-60,-139
-26,-6,51,50,-79,7,104,15,-44,-94
-45,-19,-19,68,-78,-12,152,36,-27,-123
-49,-48,-2,46,-15,-8,44,-22,-33,-145
-93,-86,-15,-69,18,37,41,-77,-85,-129
-125,-134,-7,-88,53,131,166,-40,-94,-113
-80,-117,20,31,124,216,271,82,19,-31
-65,-87,25,209,200,206,220,102,90,47
26,37,173,304,182,82,-56,-55,53,146
83,133,278,318,99,-36,-242,-161,-14,181
29,106,199,109,-37,-153,-289,-140,-67,65
-41,35,61,-145,-129,-199,-295,-110,-16,50
10,47,59,-141,-161,-219,-322,-181,-17,42
64,51,92,-58,-142,-200,-295,-196,-7,113
66,18,24,-27,-77,-135,-150,-37,84,155
81,-8,-78,-33,20,-37,29,145,181,213
100,-35,-128,-24,128,144,136,135,139,206
-7,-97,-123,48,226,222,117,53,26,78
-116,-83,-47,35,174,97,-44,-63,-80,-86
-64,77,66,-13,76,-15,-200,-183,-127,-62
8,202,87,27,-49,-139,-279,-269,-169,-121
103,285,144,-36,-202,-263,-247,-188,-140,-76
188,284,79,-150,-274,-297,-135,-197,-134,61
96,108,-181,-230,-216,-160,116,-219,-178,60
-77,-117,-328,-246,-68,65,334,-175,-269,-193
-24,-145,-273,-296,29,275,455,44,-112,-123
63,-132,-264,-310,161,483,498,202,20,3
-29,-59,-120,-140,274,555,499,195,-38,-59
-134,-24,-11,26,290,501,434,230,-77,-165
-78,35,29,51,140,309,230,283,90,-62
97,166,100,57,-4,9,-74,270,280,175
180,217,170,138,-1,-210,-190,186,357,332
46,54,107,264,55,-291,-176,85,237,240
-69,-54,94,200,-1,-228,-243,69,156,104
-95,-17,175,183,-68,-182,-348,-3,100,-4
-99,0,145,101,-172,-146,-281,20,117,-41
-69,14,85,33,-190,-104,-139,91,138,-8
-44,28,84,60,-82,-91,-86,72,141,56
-40,35,61,63,2,-46,-51,0,126,97
-28,29,22,-3,38,-7,34,4,132,119
-71,-7,-33,-87,5,9,63,0,98,56
-109,-12,-2,-97,-52,-11,52,12,45,4
-100,12,115,-21,-110,-74,8,32,18,-31
-95,23,196,129,-80,-79,-1,-6,-19,-44
-132,4,230,326,21,-125,-66,-113,-116,-100
-159,-38,213,445,78,-159,-125,-185,-179,-145
-182,-107,88,410,185,-74,-137,-191,-175,-152
-180,-146,-44,303,277,20,-111,-229,-194,-159
-174,-151,-129,82,191,77,-42,-169,-136,-146
-103,-75,-157,-196,22,207,68,-69,-46,-90
18,-6,-185,-450,-164,245,165,27,19,31
56,-58,-296,-503,-149,181,276,166,95,146
32,-67,-233,-277,-120,-87,190,84,29,107
8,-32,-165,-205,-88,-133,191,-69,-100,10
-93,-132,-283,-197,32,97,487,-86,-240,-107
-160,-213,-349,-174,130,318,855,157,-169,-108
-187,-244,-299,-133,167,438,994,305,-120,-121
-91,-138,-172,-99,98,395,830,221,-128,-65
70,5,-67,-116,-86,158,470,115,21,99
186,123,54,-31,-201,-174,-25,-6,140,231
221,169,148,85,-128,-268,-313,-253,66,229
197,162,205,175,-49,-270,-519,-679,-217,81
133,153,286,313,-5,-381,-795,-767,-348,-85
21,112,276,353,42,-401,-867,-417,-199,-135
-49,65,205,226,6,-357,-744,-52,-25,-100
-28,81,210,80,-81,-431,-675,190,127,-61
66,161,277,31,-133,-549,-772,261,245,36
196,261,310,23,-203,-576,-840,227,405,164
238,268,250,12,-188,-342,-555,245,401,217
117,122,43,-24,-148,-156,-194,232,248,96
76,38,-135,-39,-42,-57,29,240,200,37
96,40,-141,-100,35,32,140,242,199,85
92,-40,-309,-319,49,143,288,344,278,141
4,-102,-306,-238,124,107,175,248,154,-15
-15,-74,-211,-73,170,110,86,116,30,-139
9,-47,-153,17,197,146,68,-20,-8,-133
8,-43,-109,61,152,101,38,-45,53,-70
34,-2,-113,1,35,17,16,17,157,85
83,50,-86,-22,-6,39,-28,-8,157,129
71,62,14,40,86,192,33,-46,100,113
21,42,54,101,152,292,137,-60,27,70
-27,22,127,188,138,274,137,-103,-56,-20
-63,3,162,236,104,176,155,-71,-93,-75
-99,-41,115,198,94,178,340,45,-43,-34
-107,-51,46,100,29,216,521,140,-60,-66
-105,-75,-92,-112,-28,212,535,171,-108,-125
-106,-119,-204,-359,-100,200,463,179,-102,-54
-21,-87,-229,-354,-60,237,420,315,42,96
56,-33,-190,-127,33,176,269,346,170,164
77,20,33,151,133,-12,-58,168,170,177
117,93,176,198,105,-197,-400,-66,111,193
145,169,237,148,8,-327,-570,-309,-53,142
91,128,189,58,-98,-362,-511,-320,-160,27
-33,-7,78,-7,-141,-191,-294,-236,-214,-101
-78,-27,58,54,-100,-38,-97,-90,-201,-111
-93,-1,58,112,-51,-23,-29,18,-222,-148
-119,-30,-28,29,-91,-89,-74,-13,-211,-165
-63,-27,-55,-64,-153,-157,-161,-78,-150,-92
-25,-2,-48,-66,-113,-109,-170,-179,-124,-26
-17,32,13,33,11,4,-185,-278,-121,-44
5,35,0,11,68,25,-228,-331,-69,9
1,-5,-70,-77,50,17,-190,-327,-72,31
4,0,-39,-88,0,42,-73,-236,-66,40
-4,-18,-17,-43,-1,78,84,-44,-18,37
-61,-55,-9,-9,-19,85,188,207,38,-63
-64,-13,80,68,-20,94,204,258,28,-165
-66,26,144,111,-10,104,196,101,-98,-206
-56,49,145,30,-32,117,259,117,-93,-154
-87,27,122,-4,-63,100,268,54,-67,-84
-81,27,38,16,-74,84,162,-70,-51,-38
-13,57,-19,62,-44,54,-15,-138,24,76
8,34,-87,188,69,-29,-257,-208,75,115
31,42,-29,270,140,-82,-397,-195,119,111
-43,-40,-103,110,142,0,-197,-61,45,17
-67,-82,-175,-129,87,144,136,128,69,-1
-43,-90,-202,-334,15,208,321,313,209,36
-53,-91,-158,-289,41,214,330,288,201,76
-32,-56,-92,-114,55,148,220,130,66,56
11,-49,-71,-71,24,82,121,100,22,19
29,-41,-34,-58,-15,-8,12,104,48,25
54,9,15,-9,-24,-101,-162,35,40,79
76,37,37,17,-54,-189,-365,-34,38,107
75,42,76,44,-60,-198,-410,-107,-5,81
27,27,104,24,-93,-141,-268,-190,-155,-55
-10,2,84,-13,-121,-89,-161,-221,-216,-133
-13,-17,42,-39,-113,-36,-102,-175,-197,-99
-19,-58,-37,-72,-70,101,137,-34,-127,-18
-4,-83,-82,-88,-9,225,369,108,-18,74
-21,-85,-81,-40,58,272,489,198,27,78
-109,-137,-66,35,137,243,422,131,-52,-72
-118,-134,-74,-37,92,129,286,102,-57,-104
-83,-95,-27,-45,4,9,134,92,-56,-80
-44,-41,22,21,-8,-78,-67,-29,-109,-66
66,22,-29,-3,-23,-92,-221,-84,-24,33
220,85,-125,-26,-26,-105,-248,-62,93,127
296,137,1,10,-35,-164,-281,-77,125,220
257,160,103,56,-44,-224,-373,-151,77,216
191,155,41,85,-20,-238,-376,-212,1,146
116,94,117,129,-26,-216,-290,-219,-72,-9
9,38,202,173,-14,-122,-155,-159,-76,-142
-40,9,210,183,-9,-27,-23,-99,-84,-173
-74,-34,88,48,-26,24,78,-37,-106,-204
-146,-108,-62,-108,-16,78,123,55,-96,-255
-137,-111,-39,-191,-21,127,150,8,-114,-250
-70,-86,-149,-258,-63,193,263,57,-47,-187
-15,-81,-282,-294,-36,290,424,198,83,-84
-67,-153,-227,-83,120,226,386,208,69,-86
-108,-144,-94,130,140,5,123,50,-42,-138
-35,-13,12,68,-21,-126,-90,-17,5,-67
11,50,94,54,-16,-113,-197,3,88,19
-20,18,57,44,24,-35,-160,-34,95,44
-64,-39,-58,4,3,14,-61,-20,82,35
-59,-38,1,-28,4,37,-35,-19,56,52
-15,-5,58,-50,-6,-2,-112,-77,-12,43
32,11,77,-31,-31,-61,-129,-16,-50,-13
-23,-19,76,25,18,25,68,64,-126,-107
-60,-44,16,81,45,154,226,69,-168,-142
10,-4,-30,138,37,127,229,28,-160,-82
-40,-38,-33,196,84,18,159,-3,-199,-129
-97,-56,34,187,49,-90,160,80,-157,-176
-49,7,113,61,-91,-128,147,43,-115,-121
48,55,77,-38,-181,-87,65,-114,-142,-34
105,35,0,-97,-159,-90,-24,-192,-122,40
65,-83,-186,-209,-98,-42,66,-11,35,76
31,-108,-178,-189,-61,62,202,96,112,59
-60,-133,-113,-77,12,131,155,12,5,-75
-90,-126,-89,64,120,150,42,67,-1,-113
23,-29,43,110,116,65,-45,266,193,27
90,22,83,77,36,-97,-155,182,224,120
93,22,111,107,27,-159,-193,114,191,126
86,15,126,102,22,-134,-145,131,215,139
57,-3,94,19,-29,-125,-118,72,203,129
14,-8,89,-35,-80,-140,-163,-61,88,60
-35,18,155,28,-106,-169,-256,-214,-103,-64
-42,79,231,82,-121,-228,-326,-213,-152,-111
-10,91,162,-67,-123,-197,-263,-211,-99,-62
0,19,-21,-203,-43,-85,-164,-223,-98,-23
8,-14,-125,-236,16,24,-49,-168,-49,29
69,0,-179,-283,6,109,89,-24,101,130
138,29,-157,-265,-23,121,179,110,223,206
186,79,-32,-122,-6,72,140,151,278,238
136,110,71,69,111,33,68,35,193,172
66,85,42,87,134,24,53,-22,103,81
93,87,11,12,129,122,119,27,109,125
88,57,-23,3,91,163,128,129,120,173
102,56,-86,-43,33,128,88,166,107,183
50,13,-103,-100,-10,98,93,201,63,85
-53,-35,-13,-43,-36,16,-55,141,-81,-111
-75,-10,91,88,-9,-72,-256,-42,-146,-139
-20,32,125,133,2,-92,-268,-88,-80,-45
31,41,91,69,-25,-97,-177,-36,-28,20
41,20,36,21,8,-57,-91,17,20,52
8,-3,-5,0,65,26,-30,-59,-45,6
-7,-3,-18,-38,67,84,10,-97,-99,-6
-12,12,-30,-45,67,136,72,-59,-115,-14
-2,30,-29,-24,50,148,143,24,-107,-32
-21,9,-122,-13,38,157,185,64,-85,-50
-63,-49,-181,-89,-15,127,206,93,-59,-62
-77,-66,-104,-80,-18,67,132,84,-43,-40
-92,-71,-24,-14,46,74,69,0,-89,-62
-88,-44,23,-22,41,78,56,-2,-52,-24
-58,0,96,1,25,53,7,-17,-11,28
-65,-16,117,47,15,51,32,-31,-33,6
-57,7,126,81,-28,-25,32,-18,-31,-9
5,96,172,179,-80,-214,-89,-36,6,23
36,154,240,283,-43,-216,-105,-54,9,35
50,123,183,257,7,-97,12,-39,-47,19
69,47,9,65,-16,14,208,32,-32,27
77,-5,-84,-123,-64,164,394,82,20,75
88,-3,-80,-125,-37,201,370,46,33,116
86,-20,-135,-105,66,177,201,1,55,149
58,-43,-187,-88,128,74,17,-60,36,160
17,-33,-165,-42,107,-20,-81,-112,-10,89
-16,-32,-134,-51,34,-83,-172,-33,-5,32
17,34,-49,-52,-30,-178,-341,-2,20,43
43,63,20,7,-26,-215,-395,32,83,87
41,69,24,66,18,-108,-241,60,135,106
11,52,-25,107,75,-14,-98,20,128,88
-21,17,-114,80,66,0,-56,-59,57,35
-32,-18,-66,18,19,-34,1,-52,19,19
-24,-13,-34,-16,-5,-25,79,-73,-67,-16
-55,-29,-56,-49,-33,32,173,-16,-94,-32
-45,-2,6,-6,-44,23,164,4,-92,-39
-9,42,107,62,-79,-63,51,-30,-89,-22
-27,26,138,89,-104,-61,38,10,-71,-29
-66,-28,80,51,-95,14,47,9,-89,-71
-69,-43,34,27,-92,-51,-70,-76,-137,-85
-22,-17,-48,-73,-135,-134,-146,-54,-64,-14
44,17,-65,-89,-108,-95,-123,20,27,86
28,5,-53,-24,-36,-56,-101,42,42,110
-17,-26,13,50,30,-26,-121,20,56,92
-29,-10,111,123,60,-8,-194,-49,68,77
9,7,85,42,76,92,-99,-120,41,90
-19,-67,-42,-83,87,202,76,-102,-14,56
-88,-121,-119,-132,78,269,240,-1,-41,-9
-112,-115,-104,-114,15,226,347,66,-61,-68
-96,-95,-85,-119,-92,83,310,74,-106,-127
-69,-91,-72,-109,-131,39,233,77,-105,-119
-85,-79,-22,-20,-49,74,183,75,-100,-115
-67,-49,-29,23,50,136,97,120,-78,-62
-26,-21,0,69,125,157,20,21,-65,59
3,1,-6,120,210,170,30,-17,-54,100
21,18,-8,129,193,162,84,108,70,126
47,24,7,70,14,34,50,160,200,147
65,28,16,28,-148,-185,-63,71,185,163
48,16,34,41,-149,-247,-113,12,140,140
14,4,75,82,-78,-179,-159,6,103,18
7,29,175,153,-42,-166,-217,11,73,-44
26,76,232,180,-50,-206,-245,-17,50,36
36,115,239,197,-55,-224,-220,-72,27,58
55,137,267,139,-91,-174,-114,-55,35,52
64,97,142,58,-76,-16,75,13,94,125
90,44,-25,17,15,115,249,86,124,168
47,-38,-175,-55,69,133,304,133,93,90
-91,-164,-253,-168,38,63,216,78,-35,-34
-135,-178,-217,-234,-60,38,182,19,-121,-113
-93,-79,-76,-150,-75,39,112,-35,-114,-131
-35,5,11,-85,-26,18,-7,-96,-78,-56
-18,21,53,-8,104,74,-114,-180,-88,-55
94,101,89,72,182,82,-179,-186,-10,66
190,165,94,68,124,46,-58,-57,74,160
126,96,48,80,119,115,101,121,122,144
22,-22,-66,78,182,135,68,137,125,41
-12,-56,-119,21,118,-56,-112,23,100,2
27,27,-34,11,-33,-215,-123,63,166,71
-5,20,-19,-31,-132,-207,-96,112,147,11
-58,-40,-36,-74,-186,-187,-148,43,32,-44
-75,-37,-32,-44,-150,-233,-288,-58,-76,-97
-69,-27,33,59,-79,-276,-443,-190,-178,-142
-92,-39,71,153,-29,-227,-356,-295,-245,-131
-197,-100,71,188,-18,-146,-133,-234,-273,-214
-247,-126,94,163,-6,-125,-52,-98,-230,-241
-219,-82,101,133,2,-153,-116,-64,-222,-222
-109,16,113,94,-21,-144,-144,-124,-222,-147
83,68,3,-64,-65,-14,-12,26,-38,6
161,20,-257,-320,-113,124,157,245,190,150
169,6,-201,-336,-102,84,91,249,265,216
197,82,-28,-158,-67,-80,-143,123,243,231
169,113,-78,-37,-12,-119,-191,24,164,175
108,81,-146,2,23,-47,-81,-41,84,89
57,45,-25,35,22,14,11,-52,47,1
36,27,0,51,47,43,23,-39,6,-43
41,54,-6,-42,6,37,37,-9,2,-25
40,80,19,-99,-77,8,35,-28,32,12
67,118,64,-112,-121,11,68,-30,49,45
111,137,54,-102,-105,55,124,42,123,139
145,131,-44,-18,-35,143,182,132,233,216
124,52,-130,21,38,173,219,164,230,206
-16,-73,-91,33,73,141,229,151,140,91
-152,-117,-5,163,141,129,218,70,-37,-77
-138,-47,88,208,128,112,195,23,-96,-151
-112,-39,35,146,68,126,231,66,-45,-120
-96,-46,-10,105,27,118,218,66,-60,-17
-145,-41,89,149,8,51,147,-24,-77,-47
-151,1,175,170,34,-6,-11,-175,-129,-105
-98,2,122,43,18,-71,-155,-191,-97,-55
-114,-83,-79,-80,15,-70,-221,-202,-88,-42
-76,-67,-153,-1,108,27,-142,-107,-41,-47
-43,-60,-147,105,195,105,-12,89,96,-5
-80,-110,-90,21,117,128,107,208,155,-11
-92,-123,-126,-179,-27,162,205,164,147,-34
-42,-93,-127,-249,-80,165,238,49,61,-58
24,-4,-65,-216,-82,104,274,45,37,-4
91,61,-18,-197,-110,56,296,202,117,64
144,70,-6,-122,-108,37,294,345,210,125
120,41,-56,-9,0,2,156,291,194,121
41,0,-103,-18,36,-44,-19,137,75,75
32,-3,-99,-73,31,-69,-135,-23,-33,22
5,-35,-30,-103,0,-47,-218,-105,-85,-105
-33,-46,12,-26,-27,-44,-267,-142,-132,-207
-47,-27,32,126,-33,-56,-298,-202,-206,-245
-106,-76,16,134,-66,-103,-303,-255,-276,-313
-150,-118,28,58,-94,-115,-275,-223,-251,-316
-138,-134,-12,-69,-121,-111,-192,-206,-192,-230
-159,-138,-40,-92,-84,-48,-108,-240,-213,-168
-139,-93,-16,13,-28,29,-67,-309,-266,-172
-83,-16,39,84,49,35,-99,-400,-260,-165
-11,-5,-8,42,74,0,-165,-341,-165,-156
44,-1,20,34,52,8,-168,-246,-147,-159
74,8,22,6,54,21,-128,-254,-197,-157
109,26,-24,-113,-12,16,-36,-172,-68,-37
96,1,-5,-149,-93,-24,-28,-74,44,21
95,6,28,-96,-102,-6,-57,195,226,99
130,68,80,-1,9,89,-70,408,425,243
98,58,51,31,113,169,-84,190,350,241
55,-1,-2,22,136,148,-8,100,208,141
23,-37,-69,27,166,160,93,190,156,102
-8,-46,-129,90,171,173,134,301,174,101
-23,-17,-89,91,104,109,184,360,146,34
1,46,71,64,37,55,153,241,42,-50
29,74,95,33,-71,4,97,127,9,0
32,33,34,28,-74,28,116,60,16,43
16,-11,23,56,6,63,130,0,-12,16
-36,-77,-4,69,63,51,78,14,-45,-43
-31,-54,56,110,61,-2,0,45,-37,33
45,10,109,147,85,-32,-3,50,-20,104
77,36,135,175,53,-40,101,100,54,130
60,51,171,183,10,-110,120,164,114,124
22,46,127,112,15,-82,87,160,100,95
-32,-10,-13,-92,-84,-117,8,77,12,28
-90,-87,-114,-202,-147,-191,-80,-8,-85,-65
-57,-45,-61,-159,-105,-178,-178,-89,-112,-87
73,53,-23,-118,-35,-95,-192,-21,61,102
138,95,33,12,19,-82,-227,9,143,187
101,83,62,77,23,-116,-250,-49,42,90
32,72,99,89,-2,-100,-171,-159,-92,-20
16,63,121,166,27,-47,-73,-205,-121,-52
-36,16,31,146,-12,-6,35,-157,-144,-123
-119,-76,1,-14,-118,-27,95,-133,-250,-311
-172,-141,-60,-183,-181,-15,162,-60,-257,-337
-130,-103,-95,-232,-144,5,196,-10,-124,-169
-81,-76,-110,-205,-49,29,147,-71,-75,-89
-47,-59,-154,-202,-14,91,192,-62,-52,-81
-6,-26,-107,-69,20,153,280,97,53,-45
8,32,51,143,118,153,173,92,118,29
64,114,149,189,86,56,-7,-54,107,48
89,143,180,108,-65,-65,-59,-130,65,24
85,152,211,87,-106,-126,-158,-240,-29,-11
70,158,231,68,-60,-53,-193,-340,-124,-10
30,84,149,17,-26,79,-43,-228,-109,-28
-12,-2,86,71,8,97,61,-65,-68,-96
-155,-111,-7,92,74,-17,-20,152,4,-138
-193,-135,-94,-33,34,-106,-97,334,136,-66
-88,-81,-78,-59,-15,-95,-58,257,147,40
77,2,-103,-188,-73,-47,35,191,138,120
162,71,-60,-156,-87,-105,-29,92,104,131
131,78,37,31,3,-197,-231,-136,-30,44
85,59,57,60,64,-136,-286,-219,-51,1
100,74,29,-91,0,-84,-302,-187,-48,-8
124,100,35,-78,19,-54,-230,-68,-66,-27
126,76,29,-5,67,-8,-106,98,-18,2
109,49,11,-4,81,33,-35,132,20,37
59,17,-11,-25,68,21,14,20,-27,17
3,-31,-79,-57,96,159,138,-62,-122,-56
-47,-68,-93,-57,138,304,272,-106,-198,-127
-42,-62,-61,-29,128,323,342,-80,-163,-122
-22,-50,-94,-21,82,297,349,-71,-147,-98
-76,-116,-165,-104,45,308,321,-17,-121,-91
-96,-126,-133,-85,40,278,294,97,-20,-67
-61,-77,-127,-42,43,155,249,222,99,-14
0,9,-84,0,-6,22,216,313,205,49
-11,30,56,11,-96,-84,136,174,130,8
-63,-4,48,-27,-146,-111,65,55,23,-69
-33,-9,22,-53,-140,-108,-19,63,76,-18
8,19,45,-2,-76,-132,-168,44,104,21
38,48,51,38,-35,-181,-327,-76,52,40
138,92,18,64,-1,-207,-385,-113,68,140
148,95,2,48,26,-153,-307,-107,66,178
61,30,20,5,2,-62,-135,-40,33,90
14,-15,50,50,-6,3,-6,89,27,50
10,6,139,142,18,-12,-16,39,-16,29
20,25,175,158,18,-56,-36,-43,-72,-9
-29,6,135,126,12,-63,-36,-59,-124,-57
-111,-72,80,70,0,0,72,24,-97,-99
-146,-98,61,0,-38,19,130,20,-110,-104
-130,-83,-8,-122,-118,-3,100,-51,-173,-124
-30,-20,0,-152,-175,-18,151,-53,-154,-45
0,7,95,-8,-177,-97,159,-94,-158,-36
-13,36,180,145,-167,-144,133,-122,-197,-82
17,57,109,186,-51,-60,142,-57,-139,-57
-9,-35,-71,112,41,40,122,0,-72,-28
11,-88,-113,13,18,17,10,141,105,50
136,35,56,112,79,-46,-179,179,268,170
239,104,117,193,144,-20,-229,88,307,249
267,107,105,182,103,-13,-163,-31,240,239
155,42,54,144,34,-24,-153,-146,71,92
28,-9,-6,25,-8,0,-119,-244,-100,-51
-11,-8,-67,-127,-19,56,-40,-261,-191,-103
-125,-116,-189,-239,12,127,97,-157,-189,-170
-239,-203,-224,-281,12,202,239,14,-113,-213
-228,-193,-187,-264,-33,206,263,132,-17,-187
-174,-159,-200,-218,-38,177,244,238,137,-73
-127,-86,-74,-92,4,108,114,210,176,-17
-79,-3,41,-3,47,14,-86,64,113,-35
45,57,41,14,86,-53,-148,51,158,73
101,52,-80,18,123,-65,-59,110,218,155
54,19,-84,59,148,-78,-24,58,155,84
25,8,23,54,120,-32,44,49,91,30
0,-13,-19,32,58,11,61,31,42,4
20,-5,29,16,-9,-31,14,-1,9,-1
52,10,44,-24,-63,-68,-46,-30,-20,-21
92,45,26,-63,-70,-108,-121,-29,27,15
86,76,39,-43,2,-101,-135,-5,86,45
62,72,61,-8,29,-26,-38,11,29,4
31,31,60,23,21,89,128,120,10,-20
38,15,14,56,27,124,228,133,-6,-8
-19,-42,0,64,40,90,209,20,-108,-70
-109,-105,-31,27,6,-10,103,-83,-189,-141
-133,-102,-1,33,-13,-89,17,-144,-200,-133
-70,-51,46,53,6,-74,-14,-164,-180,-72
-27,-7,66,31,-7,-17,-7,-166,-143,-10
-19,35,90,74,-14,-47,-113,-198,-111,-4
4,75,103,105,0,-53,-186,-128,-29,14
55,74,40,42,-31,-31,-145,-85,30,45
72,48,-67,-56,-29,54,-115,-92,46,59
48,7,-103,-95,28,136,-75,25,114,58
81,29,-62,-58,111,154,-45,154,182,99
35,26,-3,-12,165,135,13,241,198,79
-9,-15,-19,-21,129,138,186,279,195,54
-38,-24,-28,0,74,112,260,197,121,9
-39,20,14,12,0,35,174,123,19,-44
22,77,73,22,-75,-106,-24,90,13,-15
89,124,117,63,-68,-166,-101,4,78,69
77,119,159,147,5,-127,-100,-23,127,123
57,148,221,243,45,-128,-215,-93,108,103
66,168,250,267,51,-141,-275,-169,56,89
11,107,214,186,-2,-117,-175,-165,-14,26
-84,41,121,14,-92,-148,-144,-137,-80,-52
-159,-57,-68,-179,-176,-171,-109,-112,-122,-139
-173,-129,-193,-307,-170,-82,41,63,32,-71
-134,-102,-95,-162,-115,23,123,124,151,9
-84,-23,77,134,-41,40,143,26,95,18
-60,18,162,351,53,-8,107,-104,-32,-33
-67,44,212,394,79,-55,68,-175,-148,-107
-143,-10,110,131,-65,-86,93,-87,-193,-206
-200,-109,-111,-249,-147,-31,124,-69,-235,-264
-80,-86,-239,-486,-79,133,188,-20,-120,-128
68,4,-189,-433,-17,224,218,126,83,71
182,121,-81,-235,56,184,60,104,149,190
208,159,-36,-75,130,79,-131,-36,126,198
108,89,22,104,189,13,-248,-158,82,134
102,93,23,109,75,-53,-243,-67,91,151
99,105,-48,134,26,-99,-177,46,44,119
-16,39,-7,134,49,-110,-163,-7,-81,-31
-67,-29,-44,3,26,-79,-89,95,-64,-60
-23,-52,-114,-141,35,-7,8,168,-60,-23
18,-41,-188,-255,49,137,126,167,-9,19
58,-28,-134,-192,104,280,270,153,55,67
31,-59,-115,-92,134,324,307,145,53,55
-43,-120,-151,-85,75,282,271,183,60,33
-80,-130,-134,-73,33,170,162,163,54,37
-31,-61,-25,-17,-16,-7,11,43,34,38
19,11,35,-3,-117,-138,-65,22,44,65
11,30,56,-4,-149,-99,-8,77,46,60
25,64,86,21,-120,-68,25,55,25,-4
61,93,133,68,-83,-49,13,-3,-23,-24
81,73,104,71,-58,11,35,-9,-6,2
64,48,71,77,-26,25,21,-39,-9,6
-8,-5,29,85,33,59,35,-90,-84,-69
-3,-12,-8,1,39,68,-31,-154,-75,-30
36,-7,-49,-122,-22,13,-200,-227,-50,58
12,-9,-75,-175,-38,-62,-280,-257,-53,69
-34,3,-21,-106,-41,-85,-224,-262,-59,10
-140,-27,25,25,-22,-23,-80,-276,-156,-131
-201,-86,-19,69,-16,34,47,-191,-192,-210
-184,-94,-6,37,-77,-20,199,75,-46,-152
-103,-58,7,30,-63,-62,328,201,60,-43
-46,-28,-16,27,-44,-36,377,326,144,40
-10,2,-25,2,-56,-27,279,416,175,67
-25,-10,-12,68,-15,10,114,295,119,37
-47,-36,-23,-14,-30,57,-8,136,64,27
2,7,-31,-123,-44,53,-144,79,97,90
123,117,78,-63,-33,-26,-243,24,144,191
118,153,176,78,50,-21,-195,-34,96,185
97,171,167,176,69,34,-57,13,104,214
99,180,248,251,35,73,46,59,96,222
-4,97,219,188,-12,39,33,-29,-28,121
-126,-21,78,66,-99,-75,-83,-180,-244,-108
-113,8,75,-17,-158,-184,-206,-260,-336,-143
29,114,105,-29,-159,-223,-311,-292,-269,-1
138,115,25,-5,-139,-241,-372,-295,-142,126
119,4,-121,68,33,-192,-311,-253,-76,121
24,-139,-253,44,206,-55,-161,-149,-15,95
10,-163,-313,-216,115,40,-8,-12,50,86
22,-129,-310,-321,27,28,66,121,99,58
29,-89,-208,-188,77,46,112,234,129,41
53,-18,-119,-34,117,67,139,301,149,63
56,9,-94,-6,80,56,182,359,180,60
11,0,-14,0,47,36,159,278,114,-6
-29,-29,11,7,9,26,71,74,8,-65
-69,-62,-8,-11,11,59,44,-68,-42,-89
-77,-45,-27,-27,4,66,91,-61,-37,-87
-74,-58,-4,-23,-7,78,123,-23,-34,-84
-100,-68,3,0,24,144,152,-12,-63,-91
-81,-68,0,-5,22,109,191,-8,-68,-43
-17,-35,-18,-14,9,70,237,10,-31,33
-14,-34,4,17,81,82,162,16,-21,35
-75,-51,-18,67,124,100,23,-94,-93,-50
-122,-55,-25,49,67,49,-75,-104,-114,-135
-70,-15,8,24,-4,-51,-156,-64,-65,-122
-21,30,57,45,-34,-122,-195,-76,-83,-93
22,78,108,96,-58,-201,-240,-96,-60,-39
81,113,103,78,-129,-248,-232,-75,44,70
80,70,27,8,-152,-185,-81,-4,160,151
11,10,-33,45,-66,-117,8,-13,116,114
-34,-1,-60,120,0,-93,-31,-86,49,75
-27,38,37,139,17,-69,-76,-140,37,72
-14,47,12,72,17,-56,-122,-121,6,26
-82,-44,-141,-51,-6,-89,-126,-52,-83,-97
-158,-130,-265,-162,-11,-24,-89,-20,-123,-177
-134,-158,-242,-248,-25,90,8,-7,-65,-107
-98,-139,-145,-206,28,182,174,177,68,-22
-39,-87,-59,-95,83,215,249,292,107,-16
35,-17,38,-26,51,136,249,202,25,-23
103,64,134,-4,-44,-1,203,98,-27,11
171,125,211,7,-147,-181,64,-3,-36,58
142,117,244,39,-121,-182,-87,-131,-68,40
79,50,142,21,-82,-151,-218,-187,-34,10
17,-11,50,33,-48,-222,-382,-183,1,0
41,32,60,60,-52,-268,-488,-144,17,22
79,60,95,174,-5,-185,-380,-45,31,46
61,65,193,393,108,-35,-156,-74,-5,4
-16,53,256,423,107,-17,-57,-185,-124,-104
-48,14,213,325,24,-57,-40,-216,-208,-138
-12,-24,90,118,-2,-10,31,-155,-207,-131
76,3,-12,-162,-35,90,124,-86,-136,-51
126,-18,-185,-409,-90,189,221,78,42,102
46,-139,-355,-490,-87,217,287,375,280,184
-106,-180,-250,-208,49,135,198,341,205,54
-116,-56,-7,64,99,140,141,138,79,-11
-63,10,42,133,51,118,84,23,59,-23
-40,11,28,64,-24,46,-37,-90,5,-28
-55,-21,-5,-90,-100,24,-95,-122,-50,-68
-34,-19,-23,-213,-155,55,-23,10,25,-27
31,7,-16,-142,-92,89,2,105,129,46
56,60,79,37,-3,17,-116,-47,86,42
-45,-5,28,124,45,-51,-165,-140,-15,-59
-158,-133,-127,29,49,-9,-47,6,-25,-124
-51,-82,-171,-87,92,47,21,155,69,-34
66,-14,-146,-129,51,-73,-63,160,135,65
90,10,-83,-161,-51,-189,-160,56,121,119
18,-14,-13,-34,11,-109,-153,-40,76,81
-4,-28,8,74,64,-62,-124,-109,44,36
43,32,12,24,10,-39,-30,-97,42,58
58,54,-14,-5,40,46,67,-66,8,22
23,16,6,-19,52,48,54,-80,-66,-32
39,48,99,12,16,4,-17,-66,-113,-44
116,135,101,-18,-20,5,-2,63,-54,61
138,137,5,-44,-24,78,123,100,22,204
43,55,-4,42,34,125,166,-3,-11,150
-83,-50,-81,162,116,92,112,-71,-88,-2
-117,-93,-91,48,72,71,139,-84,-111,-2
-82,-101,-124,-132,-47,51,146,-129,-121,18
-15,-36,-92,-138,-73,0,68,-167,-126,39
42,40,25,-109,-37,-51,34,-66,-61,106
144,102,76,-35,-20,-62,77,235,150,195
198,120,59,55,2,-58,63,418,314,265
181,96,44,142,74,-35,-26,418,325,299
49,7,43,179,106,-23,-36,333,229,162
-42,-44,24,122,63,-9,30,188,107,55
-93,-92,-8,20,0,-2,61,45,-28,0
-97,-93,-18,-43,-30,-36,14,-42,-80,-26
-44,-38,29,9,14,15,11,-70,-34,34
-30,-6,21,1,37,50,34,-97,-12,68
-14,6,-11,-22,-47,-42,-28,-140,-49,39
50,12,-126,-57,-61,-69,-15,-99,-15,97
73,9,-112,-74,-28,-8,44,-18,32,62
17,-30,-57,-53,3,61,114,69,12,-47
-11,-36,2,-10,38,68,118,75,-15,-39
5,1,61,13,-4,-8,20,-12,-18,-29
-14,-1,107,10,-60,-43,-73,-64,-12,-68
13,32,157,47,-21,-19,-118,-81,13,-13
84,77,149,51,-7,-13,-113,-64,54,44
71,82,109,59,-18,-46,-91,-13,111,93
9,25,65,115,31,-19,-84,-2,101,50
-34,-38,-3,95,69,13,-68,-32,49,-19
-50,-43,21,62,24,28,-41,-73,23,10
-63,-21,60,60,-42,3,-49,-144,-34,-7
-93,-20,70,103,-57,-69,-96,-217,-99,-68
-49,-1,40,83,-46,-36,-40,-170,-68,-55
24,51,3,66,-1,72,96,-74,-27,30
37,57,-62,45,98,185,246,-15,-55,-15
-42,-29,-164,-29,161,203,280,106,-31,-25
-52,-50,-166,-117,114,179,267,248,28,15
-11,-21,-113,-154,40,158,197,146,10,27
47,5,-93,-112,38,122,76,53,9,92
99,30,-41,-32,37,58,-44,35,51,114
101,61,25,5,10,-25,-232,-42,-6,2
84,70,71,14,-10,-55,-221,-39,-75,-41
57,54,115,20,-34,-79,-155,16,-89,-2
87,88,136,47,0,-133,-237,-34,-115,9
55,83,128,87,68,-114,-275,-153,-130,-2
-64,16,122,190,124,-20,-194,-214,-172,-57
-71,8,94,179,119,36,-66,-182,-176,-106
15,22,10,57,74,31,13,-91,-109,-57
15,-5,-30,-32,12,8,15,-60,-57,24
13,0,-35,-104,-82,-36,-61,-127,-97,-28
-5,-27,-74,-129,-105,-53,-51,16,-40,-89
-75,-113,-140,-123,-92,-31,66,256,32,-184
-66,-91,-98,-76,-40,45,182,292,88,-77
-19,-40,-45,-36,31,122,188,191,81,7
-48,-62,-17,0,70,164,163,127,14,-102
-126,-112,-29,54,57,147,168,49,-79,-190
-119,-70,14,68,25,93,161,-36,-126,-184
-119,-41,-6,27,25,97,156,-26,-111,-136
-132,-53,-101,38,17,111,168,22,-105,-148
-3,16,-37,33,-42,85,250,116,0,-33
143,66,-92,-48,-84,103,315,222,165,163
145,30,-112,-77,-40,169,352,229,216,138
29,-30,-94,-41,5,99,269,123,98,29
-96,-79,-148,-63,-51,-43,70,-4,-31,-61
-127,-87,-207,-135,-127,-96,-48,-74,-48,-123
-73,-58,-59,-114,-151,-114,-161,-46,-16,-134
15,23,122,23,-70,-146,-361,-46,42,-50
49,63,167,73,6,-108,-325,-55,108,28
51,62,164,65,61,5,-145,-44,140,112
89,110,202,114,56,29,-148,-196,86,210
89,105,198,111,-4,-27,-151,-291,18,192
48,54,136,69,-29,-35,-39,-274,-73,40
-28,-17,27,51,24,69,137,-219,-173,-156
-189,-182,-142,14,102,211,313,-30,-198,-223
-199,-219,-190,-46,122,239,309,162,-100,-133
-25,-72,-60,-24,99,176,152,241,30,34
95,15,-1,-63,56,125,84,188,73,92
106,10,-45,-127,10,83,72,141,53,82
73,17,-80,-170,16,32,42,177,67,96
120,96,-2,-66,34,-114,-86,83,54,147
184,158,113,36,-12,-236,-131,15,23,169
226,185,146,44,-2,-172,-34,68,50,155
153,106,139,99,47,-39,116,133,71,46
22,40,199,222,77,11,168,47,-13,-83
