215,218,-25,-746,-132,39,-177,-38,104,143
144,290,-18,-635,232,100,-110,-78,142,182
146,306,-97,-242,255,146,309,85,219,297
100,428,10,210,-12,65,314,181,155,231
4,533,252,561,-482,-160,-167,-107,-157,-34
36,349,191,393,-595,-171,33,-42,-129,-20
70,169,-47,240,-242,-133,360,207,79,171
56,72,36,305,74,-180,197,174,83,119
-11,-43,85,39,-71,-162,-171,0,-31,-147
56,-28,-50,-433,-408,-213,-460,-87,-72,-161
140,141,38,-326,-436,-214,-532,-101,-27,-23
124,255,-10,-459,-119,26,-363,-37,115,183
18,237,-228,-680,366,325,-196,-56,203,281
-222,244,-285,-644,385,306,-146,-107,180,144
-438,4,-168,-232,79,308,311,73,179,70
-496,-321,-19,262,4,334,575,271,95,-14
-270,-375,305,544,-86,67,256,191,-129,-146
52,-162,296,552,-291,-212,150,140,-118,-42
178,-47,-175,11,-4,-49,169,154,78,282
77,0,-226,-74,34,53,-24,117,207,363
-154,72,56,62,-276,-47,-67,55,156,4
-373,188,408,228,-373,-206,-74,-116,-124,-345
-360,218,361,32,-67,-60,162,-114,-242,-366
-179,103,161,-169,257,235,385,-27,-126,-192
-111,2,7,174,601,435,348,10,-16,-53
-82,144,-113,229,545,327,117,37,4,-30
51,243,-196,-215,148,150,-53,171,115,80
37,124,-150,-204,-18,-138,-299,102,101,-1
55,74,-42,34,-37,-346,-611,-73,127,-14
34,-27,41,86,-267,-448,-479,13,228,78
-106,-156,-25,-142,-470,-273,109,239,256,28
-150,-241,-7,108,-273,-109,277,171,149,-36
57,-115,-107,65,-28,-31,135,-7,32,-17
179,-6,-232,-130,393,96,24,-138,-106,-103
43,15,-30,535,918,126,-89,-315,-262,-265
2,7,-10,572,883,46,-282,-387,-221,-114
138,0,-216,73,512,30,-610,-427,-40,169
29,-62,-135,212,-251,-168,-919,-559,-213,-43
-51,-43,-71,755,-97,-278,-791,-608,-468,-244
48,99,-247,61,1234,228,-283,-252,-281,-134
163,90,-488,-804,1432,469,-12,168,181,236
33,-51,-574,-823,314,267,285,265,274,299
-668,-316,-151,180,-454,92,675,51,-346,-480
-652,-176,438,0,-709,292,1051,152,-473,-623
14,50,180,-668,-456,419,790,345,5,-2
311,154,-317,-721,237,120,363,345,251,285
306,260,-385,-14,400,-186,-85,249,264,298
221,257,-200,236,557,-229,-488,-158,61,189
111,343,87,-240,868,10,-338,-386,-95,-69
51,454,571,208,572,165,240,-332,-226,-232
-30,270,157,161,-638,-46,343,-102,-119,-153
-160,109,173,274,-1683,-294,138,-46,-141,-187
-35,51,181,-213,-1471,-96,122,176,116,46
48,166,152,-281,-539,-17,-184,67,204,86
113,197,-63,-448,133,272,-401,-119,291,145
254,390,-451,-1096,-49,373,125,-17,314,173
341,493,-349,-930,-45,155,373,11,135,41
239,-115,-145,-157,1078,215,-168,-125,12,74
6,-613,-236,58,1735,464,44,-66,-16,228
-5,-400,-385,-47,864,354,484,256,172,404
-43,-189,-396,-182,-206,133,285,267,196,169
-98,-128,-82,320,-694,-232,-380,-251,-114,-141
-128,-83,304,1465,-609,-538,-158,-413,-315,-259
-62,-11,397,905,-462,-358,252,-124,-148,-100
-38,130,206,-19,-285,-221,145,69,11,18
-43,335,108,-413,-400,-221,324,339,103,-24
-96,295,182,-166,-234,8,411,480,160,-186
79,198,8,-198,-546,13,237,314,200,-27
360,206,-21,-196,-960,-387,-147,89,197,230
77,86,244,552,-500,-449,-355,-142,-78,-85
-415,-100,371,861,113,-261,-262,-197,-276,-441
-484,-86,312,262,26,-166,-147,-30,-170,-366
-397,-43,-38,-206,-47,79,73,164,30,-187
-335,-104,-343,-228,215,172,170,78,47,-41
-276,-300,-301,-20,1041,291,279,-52,-38,2
-48,-369,-146,302,1600,443,202,44,29,78
308,-205,-334,212,925,171,-10,81,155,338
522,214,-278,-344,7,-50,-228,39,204,455
195,403,58,403,-77,-203,-500,-388,-187,154
-157,176,371,1008,931,158,-445,-638,-513,-111
49,158,63,252,936,260,-273,-203,-212,-93
187,448,-190,-328,306,3,-377,-132,-80,-204
-36,629,227,132,368,-163,-493,-473,-392,-543
-136,573,631,605,-322,-615,-228,-352,-407,-415
218,432,1,-525,-582,-475,204,147,95,229
514,59,-542,-1227,-697,-47,292,450,450,560
263,-528,-571,-717,-928,94,-408,246,263,271
-12,-598,43,243,-961,57,-968,-232,-102,-78
226,-380,355,84,-782,245,-619,-249,63,138
496,-361,-81,-675,-704,383,314,21,285,308
429,-373,-348,-707,-923,121,839,454,285,290
381,-29,16,238,-176,-232,-269,197,76,303
193,238,-6,517,1207,-230,-770,-274,-141,172
-225,296,-319,-121,1652,129,259,-189,-108,12
-673,140,-306,-265,1201,312,799,197,133,-57
-1002,-102,-146,-240,208,403,222,274,170,-333
-1015,-353,1,-121,-313,377,-458,103,-97,-690
-495,-370,-251,-493,-282,422,-777,387,156,-377
-90,21,186,294,11,112,-1372,-14,109,-208
35,249,437,840,802,-10,-1366,-485,-60,-193
231,304,-32,47,1519,365,-207,-278,202,157
537,454,-59,-658,1317,258,160,-113,455,602
622,417,226,-363,797,88,99,-93,369,608
42,-380,-331,63,790,320,773,-20,-66,73
-446,-684,-566,845,1402,618,1261,6,-473,-460
-386,-309,-435,579,1697,526,743,-189,-577,-541
40,29,-467,-1076,986,208,326,24,-101,173
134,306,-185,-809,-296,-218,-82,-119,-46,355
-364,645,1063,1648,-1110,-649,-420,-575,-461,-479
-678,651,1056,1380,-1763,-497,-51,-327,-348,-807
-533,544,614,265,-1836,-617,560,90,-188,-619
-301,291,511,432,-563,-477,587,101,-273,-484
-4,-355,70,-31,118,-147,282,114,-133,-162
208,-760,-492,-776,277,20,36,-43,-279,-19
717,-444,-618,-1275,-284,-90,-197,26,-52,457
1046,222,-173,-958,-650,-213,-366,84,251,856
482,348,261,82,453,-111,-670,-140,75,504
134,276,414,752,205,-228,-832,9,186,442
179,349,579,1086,-272,-386,-1232,100,337,451
138,139,304,-156,-194,208,-667,464,438,331
10,-193,-204,-725,-937,308,443,525,289,32
-119,-293,-603,-1248,-648,639,1141,192,51,-116
277,-150,-872,-1840,-42,539,510,-87,266,344
439,1,-269,-698,581,277,-41,-195,361,420
431,487,422,526,564,-149,-605,-105,345,322
268,864,1169,1717,-644,-1073,-1310,-445,-71,-99
123,524,1291,2334,-923,-1208,-1217,-570,-250,-299
-107,-53,311,594,-579,-391,110,-54,0,-113
-342,-120,-68,96,-888,-255,1800,421,-178,-220
-405,-42,-101,310,-936,-417,1746,390,-526,-485
-360,203,-127,-120,-402,-102,1313,412,-520,-649
-21,216,183,-115,496,245,920,278,-228,-487
128,-294,52,-336,864,553,946,117,-109,31
227,-442,-500,-556,274,382,635,-8,-74,597
-5,-289,-702,-408,-1321,-171,84,-4,-20,185
-358,-255,-351,-506,-1196,-139,-87,-45,-92,-279
-518,-380,-181,-407,680,371,140,-43,-43,-352
-490,-448,-66,300,1999,517,-296,-111,73,-245
-94,-323,-287,94,1021,245,-901,-3,408,212
-135,-78,-191,637,-923,-103,-1061,-275,252,192
-211,154,185,313,-1351,184,236,-151,20,35
11,335,239,-406,-809,71,1186,463,175,73
47,283,-186,-824,-434,40,1086,696,333,139
-211,48,10,119,-742,-157,638,26,-153,-164
-143,223,967,1568,-780,-580,-399,-605,-449,-360
45,292,725,950,-892,-385,-385,-234,-54,-153
8,138,252,233,-741,-396,-407,213,297,13
27,49,103,274,332,-406,-1006,270,348,96
170,120,157,283,1134,-271,-1484,-16,299,177
293,323,242,17,235,-415,-1683,-314,254,233
381,503,172,-497,-460,-415,-626,-230,203,266
450,444,4,-938,-746,45,883,84,209,319
71,-11,-240,-597,-662,230,1436,-204,-437,-226
-133,-121,-443,-164,78,338,1009,-294,-745,-514
123,182,-475,-479,995,562,411,-194,-443,-223
556,315,-594,-811,2146,684,217,135,126,270
597,136,-306,488,1877,253,-167,92,209,406
-40,-75,117,1515,323,-117,-877,-585,-361,-64
-438,-220,-102,417,-600,205,-694,-548,-437,-279
-163,-343,-185,-607,-875,494,-174,-40,152,177
-10,-300,-184,-837,-642,274,-220,-12,217,154
333,81,-74,-347,89,-70,-1144,-290,141,230
356,294,304,1060,1420,-509,-1302,-498,-222,142
398,228,166,1533,3494,-178,-299,-290,-321,205
822,109,-921,-1301,3691,833,611,444,545,840
354,-379,-1392,-2418,1408,971,1258,373,474,435
-537,-665,-381,-209,-1398,238,1034,-91,-395,-588
-622,-508,386,715,-2489,257,718,221,-323,-454
82,139,88,-456,-3083,-676,202,550,268,296
545,1327,967,250,-2795,-1784,-505,360,383,445
150,1311,805,884,-1963,-1151,-451,167,137,39
-281,694,495,701,-1162,-633,-553,-49,-135,-336
-112,540,474,-191,-199,-460,-528,115,-25,-270
-1,478,175,-950,184,-271,-337,48,0,-229
16,419,122,-344,-13,-163,-475,-386,-147,-294
-115,-146,334,1190,-238,135,-886,-792,-319,-266
191,-567,263,743,-710,353,-1015,-641,-232,273
394,-462,171,162,-488,214,-628,-349,-123,459
334,-156,-53,-51,-334,-48,683,-71,-41,256
124,-269,-401,-292,-532,57,2446,396,-69,-28
-80,-278,-318,-223,-769,-116,1671,593,-60,-135
-423,-119,23,37,-495,-303,431,545,103,-205
-585,-339,-70,116,121,7,263,524,370,-27
-312,-158,-231,342,546,186,404,184,250,87
-129,159,-354,583,938,247,293,-256,-192,-164
-104,-25,-627,-476,1086,187,-153,-431,-381,-304
99,-72,-819,-1295,807,200,-148,-232,-163,49
154,-62,-571,-664,333,197,-79,-72,93,311
33,-58,151,211,-67,229,-49,-32,82,110
-190,-206,544,888,-452,-252,-506,-96,-42,-327
41,42,404,621,-406,-465,-991,37,189,-93
430,366,228,104,-649,-496,-850,243,360,357
292,289,148,396,-305,-441,-492,-16,119,204
170,-156,-300,-68,7,26,531,-82,69,76
111,-362,-408,-322,-38,347,902,-193,-120,-15
268,-158,-267,-347,-95,299,206,-298,-142,25
283,28,-111,-130,-145,159,-182,-213,-7,34
155,200,172,402,-215,-83,-137,-30,6,109
76,220,266,624,-145,-387,-315,188,35,285
42,79,245,468,150,-377,-894,276,161,363
-166,-310,-60,-50,583,-51,-458,369,227,161
-184,-507,-379,-322,1870,438,290,466,132,1
-65,-569,-761,-830,2300,939,304,271,104,55
-396,-581,-608,-147,1373,773,-161,-460,-311,-299
-485,-286,46,905,422,153,-869,-1108,-623,-359
-252,-63,195,147,0,-34,-157,-579,-304,1
-544,-334,-10,148,413,-40,775,-134,-433,-396
-831,-582,16,419,1818,413,526,-81,-643,-838
-584,-305,199,-332,852,151,-397,209,-333,-594
186,200,-168,-1979,-482,-112,-707,715,404,231
545,147,-263,-2182,-1200,43,143,927,722,586
-31,0,684,1368,-681,-482,493,-94,-261,-201
-81,51,687,1713,1618,65,938,-583,-654,-356
599,300,-228,-1457,875,387,1171,165,165,446
311,410,321,-972,-1203,-304,-108,-190,31,327
-295,121,1090,778,-1485,-384,-796,-637,-358,-74
-30,79,1039,-21,-1072,15,-141,-169,85,169
299,27,822,-622,-887,178,448,39,261,282
604,39,733,233,-806,-334,-150,151,302,460
538,30,752,899,-1221,-956,-983,310,336,603
355,208,739,316,-1509,-1054,-820,304,336,427
52,422,1074,449,-1134,-678,-98,-47,-67,-188
-330,159,766,342,-95,125,637,-38,-352,-691
-214,-89,401,211,398,290,58,293,0,-344
-13,-88,238,40,61,53,-672,-48,134,58
-37,53,268,-113,-392,-295,-892,-665,-176,-53
-20,368,433,-123,171,-384,-660,-475,-176,-243
-19,380,469,-385,756,-38,476,124,-61,-283
-277,-128,681,-110,314,1,1086,299,-188,-358
-317,-660,758,-130,99,272,1053,483,13,-149
-62,-521,665,377,-60,122,-289,197,59,-5
-164,-580,190,1087,121,-258,-816,-368,-324,-212
-59,-333,-344,98,113,176,562,-205,-201,36
237,238,-344,-1008,9,347,706,-123,104,391
80,182,-139,-765,557,403,158,-327,-48,141
-373,-308,-66,948,1063,191,-355,-292,-268,-234
-220,-563,-504,160,1425,512,-90,251,212,96
151,-339,-882,-1471,427,438,853,633,483,364
277,400,-186,-920,-1022,-144,186,26,-93,105
270,1366,997,191,-1690,-693,-952,-671,-657,-370
433,1520,1194,991,-1757,-911,-366,-651,-569,-385
545,703,324,-58,-951,-373,564,-176,-134,29
301,-88,175,-156,643,-54,278,-149,-63,184
-47,-720,163,303,1116,70,184,-13,24,141
-114,-917,12,755,143,-196,-224,112,153,49
-152,-682,429,950,-307,-298,-872,-249,-118,-261
-315,-469,365,490,207,132,-616,-281,-233,-346
-283,-411,-416,-509,1207,569,-414,-48,71,52
-290,-484,-999,-1730,1100,698,427,268,310,178
-284,-368,-745,-1945,312,625,684,397,342,64
-136,-112,3,-133,-329,389,-261,310,340,79
-263,71,617,1676,-194,-166,-779,110,25,-135
-30,203,106,52,24,34,102,590,355,170
14,54,-175,-233,-859,-5,1333,744,500,364
-278,-291,-300,-107,-743,67,1104,615,319,216
-248,-259,-155,-338,-753,-148,221,469,358,217
-183,-47,317,465,-491,-410,-406,-105,81,41
-457,-126,331,900,110,190,-196,-799,-575,-465
-470,-96,-4,229,592,614,426,-726,-689,-528
102,202,-485,-1161,1598,612,792,139,124,203
505,286,-734,-1460,1888,483,690,772,786,715
-30,217,281,1276,887,-533,-469,-63,-9,-44
-357,307,1073,1992,-279,-883,-784,-539,-585,-535
56,258,597,276,-1786,-446,-149,-160,-159,-58
263,231,372,102,-1524,-273,-266,-117,77,209
349,115,-81,-69,-1062,-283,-396,67,218,400
401,-70,-312,-117,-305,-238,-39,119,158,384
307,-262,-239,60,403,-104,304,98,67,80
139,-344,-66,276,185,-152,7,-128,47,-50
137,-355,-185,1,-525,-307,-153,58,251,386
-9,-394,-410,-555,-521,221,374,394,278,413
-276,-216,-418,-459,-210,312,357,376,72,-168
-293,-47,-346,-158,290,314,0,167,49,-306
-162,211,-1,212,154,-21,-460,-205,-121,-233
-2,296,424,595,34,-237,-874,-321,-195,-97
118,-33,-42,-38,404,256,-392,-321,-49,129
60,-131,-356,-477,287,580,512,-271,-84,66
28,-193,-527,-604,607,567,772,124,66,87
-21,-207,-405,-337,1007,304,665,374,198,68
5,19,-245,446,609,86,138,253,113,-62
234,132,-335,378,-123,-261,-885,44,91,-11
619,291,-251,-400,-712,-688,-1702,-106,307,329
487,137,-107,209,-65,-403,-1699,-470,89,300
158,-104,-304,307,1155,221,-408,-381,-126,228
-198,-294,-764,-410,2401,710,1159,255,-11,-20
-660,-405,-613,146,2349,367,537,-49,-300,-586
-864,-231,191,1264,542,-372,-546,-498,-686,-1048
-317,359,445,635,-1743,-604,-570,-42,-285,-610
458,1021,267,-795,-2866,-783,-791,491,488,355
559,737,-317,-1295,-2257,-610,16,419,582,690
56,227,-276,-243,-1297,-81,1629,94,92,162
-253,-71,-108,362,-753,260,1858,-137,-299,-120
-131,-190,-245,180,-577,59,922,-113,-176,78
-196,-113,-273,175,-346,-75,216,-183,-205,-136
-300,-230,-191,138,-270,-106,113,-172,-308,-429
-68,-525,-274,-64,-286,-89,40,-5,-148,-213
307,-453,-589,-487,-181,89,261,280,183,236
540,333,-706,-699,-190,100,163,374,300,452
381,713,-621,-67,-274,-88,-486,59,161,265
108,697,-187,411,-201,-225,-957,-271,4,-19
1,237,180,322,195,22,-632,-288,-55,-60
-46,-438,6,261,321,235,-81,-127,79,46
-179,-735,-129,186,209,232,455,56,139,40
-155,-397,-202,147,316,201,135,289,313,174
-109,-233,-422,-55,622,274,48,418,377,366
-107,-253,-624,-485,710,363,104,302,229,304
-45,-271,-681,-848,1204,614,26,-51,50,216
-39,-295,-570,-518,2098,534,-127,-228,-37,13
-427,-435,-417,477,1326,132,393,-129,-206,-487
-650,-263,-362,386,-580,-221,441,254,-252,-595
-151,119,-32,39,-1550,-317,-659,670,383,221
-91,-1,109,-284,-1436,-472,-1026,564,663,475
-280,-116,-146,-536,-129,-84,-313,13,271,42
-454,-119,-814,-990,999,618,296,-444,-287,-450
-415,-333,-1194,-744,2492,936,671,-412,-453,-419
-227,-148,-615,151,3498,830,889,-135,-351,-325
-230,229,193,1229,2598,178,211,-126,-341,-435
-71,37,505,1741,-124,-593,-971,-288,-144,-191
529,-1,235,202,-2605,-513,-520,100,385,462
649,132,73,-635,-3033,-640,47,203,389,609
199,58,616,545,-1950,-742,-120,-427,-367,218
-189,-63,376,894,-519,-204,-94,-610,-686,-194
-346,103,132,322,-129,29,54,-201,-404,-274
-158,351,132,-207,-429,-93,-246,-187,-145,-95
-32,256,288,-276,-579,32,547,-235,-150,-190
-281,-252,376,232,3,-139,597,337,5,-307
-198,-545,48,116,921,-150,-350,523,281,34
138,-233,-537,-1118,1138,351,5,284,341,345
93,-15,-652,-1336,542,609,553,129,209,180
-416,-92,80,1585,337,-57,172,-165,-324,-527
-274,-189,311,2262,1428,58,-270,-220,-370,-499
439,-220,-403,-338,643,208,-160,24,232,216
526,-66,-296,-664,-599,-289,-169,-172,205,324
255,103,409,214,-1206,-334,352,20,91,283
-71,52,370,251,-1546,-170,668,294,111,95
-403,-118,157,111,-752,-95,292,141,-20,-274
-532,-291,-14,-120,-493,13,181,73,-27,-334
-454,-261,12,179,-136,46,6,-63,-36,-250
-183,-147,83,238,-13,82,68,-38,-8,-122
184,25,81,-112,-486,-155,94,190,160,114
331,69,70,-366,-518,-149,-82,290,303,237
256,9,93,-317,-363,27,-272,228,359,290
174,40,112,-162,-379,-59,-611,77,271,243
143,-9,0,-143,-245,-55,-515,23,112,139
98,-18,-87,-209,-221,0,-111,-35,-12,98
6,79,-14,-194,-212,-42,19,-152,-79,49
-187,-139,-72,-157,-90,-15,55,101,-17,-15
-267,-270,-167,-65,248,126,-84,325,75,-41
-247,-221,-218,-252,666,416,-116,144,103,6
-147,-57,-265,-593,965,816,128,-204,3,26
43,186,-281,-569,1039,735,-272,-380,-7,87
4,85,-573,-764,933,426,-305,-159,88,106
14,-62,-684,-952,1477,-20,-16,257,162,92
174,164,32,-160,1240,-183,-327,483,164,68
-266,88,1057,2489,-621,-616,-762,-191,-366,-427
-263,51,607,1395,-1296,-364,-52,-417,-409,-278
131,432,10,-646,-704,75,-88,65,121,218
51,568,-78,-785,489,236,-537,375,287,123
-131,223,-103,-472,788,435,-188,221,110,-109
46,125,-103,-406,-217,322,488,-83,-43,-150
365,121,154,20,-1510,-444,359,-171,-64,-48
296,-148,361,795,-1356,-830,-4,-347,-310,-179
-5,-248,58,365,-108,-273,488,-371,-553,-369
36,-34,-239,-524,1593,356,907,66,-156,7
168,-79,-453,-798,2100,499,877,398,342,413
-161,-632,-804,94,664,108,627,86,84,119
-557,-849,-317,404,-1136,3,541,-90,-363,-351
-359,-252,384,505,-1844,-54,588,36,-389,-415
-48,76,163,-181,-1200,-201,258,184,-141,-157
191,178,-85,-705,-502,-161,-144,174,118,192
354,553,192,-109,-238,-215,-640,-158,127,213
10,544,204,479,237,-14,-627,-507,-214,-288
-48,227,-195,-652,1298,502,56,-174,-67,-204
246,-24,-273,-1136,1659,690,301,145,208,284
20,-336,-233,538,862,255,-457,-386,-141,44
-236,-263,219,2505,797,-370,-1523,-795,-330,-215
-24,55,435,1087,272,-454,-1716,-588,-67,-25
274,221,264,-468,-657,-720,-1063,-127,218,162
489,-34,-350,-604,678,25,584,335,364,407
351,-288,-770,-926,2082,949,1599,590,323,362
111,74,-567,-892,1082,327,457,330,208,155
-386,299,785,1759,-659,-965,-1551,-696,-491,-371
-184,-128,1001,1317,-1715,-265,-684,-61,-172,-133
400,-173,27,-1513,-2638,83,478,918,464,312
400,188,-438,-2105,-669,182,160,576,298,177
183,235,-627,-1867,443,764,876,281,189,234
177,338,-187,562,730,346,658,-79,74,309
-44,463,540,2359,679,-783,53,-52,-175,-78
-122,76,685,663,20,-609,369,281,-133,-263
48,-420,474,-134,-260,146,897,74,-94,-60
120,-491,-71,-184,-1250,122,895,-73,-7,227
-181,-342,104,139,-1598,-328,216,-26,-28,-1
-468,-71,325,130,-1150,-346,1,131,21,-248
-513,102,315,228,-681,-256,12,194,86,-271
-306,28,58,7,-368,-43,109,116,160,-3
-132,-30,-95,-128,-151,62,-168,-144,109,27
-109,-242,-137,-28,696,380,-294,-402,-58,-137
-2,-232,-34,-54,1040,454,-312,-175,-125,-172
252,131,174,105,631,130,-613,182,59,23
191,165,136,851,697,-369,-827,191,64,12
293,-5,-464,-522,2559,64,-65,330,280,232
695,62,-1295,-3020,2816,661,473,551,749,782
424,260,-879,-1377,111,236,125,-128,207,393
-400,489,1014,2067,-2158,211,413,-968,-950,-795
-165,448,1209,1276,-3119,25,809,-453,-766,-707
454,95,391,100,-2169,-724,33,-14,-73,16
598,96,28,-134,-1125,-610,-560,-7,112,323
371,345,46,-144,-641,-317,-469,-21,73,265
203,436,-6,-342,-678,-315,57,403,233,180
-16,109,21,-171,-236,-196,-64,563,338,130
-194,-231,186,194,227,-26,-426,95,214,65
-232,-437,145,170,57,148,165,-238,9,65
-536,-395,11,222,-79,219,576,-129,-206,-282
-472,-168,-60,241,363,65,-277,-51,-103,-223
-146,53,-133,-221,967,102,-1052,-329,-21,112
66,226,107,-247,1215,161,-1283,-572,-72,27
403,399,324,69,1508,222,-1160,-572,-213,-148
964,336,-637,-1210,963,421,109,-166,-94,132
727,-503,-1490,-1487,1213,712,1363,96,-194,63
96,-705,-586,429,1691,660,1494,135,-400,-395
-315,-411,659,2257,695,-262,386,-151,-584,-720
-402,-168,860,1621,-397,-972,-463,-198,-478,-624
170,297,586,344,-733,-835,-831,51,43,8
709,533,421,-254,-1797,-680,-567,337,512,589
362,-108,62,-357,-1456,-71,806,681,581,675
-220,-163,-130,-218,-1142,149,823,532,429,496
-587,347,109,45,-563,214,308,-22,132,95
-684,185,239,33,-278,248,234,-82,155,78
-756,87,295,-20,-137,225,663,182,257,-22
-705,299,279,-100,14,286,642,321,265,-142
-699,706,212,-191,212,291,413,208,83,-399
-524,913,206,-84,351,190,-15,29,-108,-445
-243,383,78,-91,188,129,-326,-79,-78,-178
-136,-185,96,95,-306,-257,-185,-80,-96,26
-91,-504,139,362,-446,-397,-18,22,-99,-23
12,-809,-243,94,-26,-46,-59,294,67,-109
306,-530,-581,-40,772,152,-460,471,257,12
422,-113,-486,253,1656,180,-668,251,286,198
130,-215,-237,651,1363,79,-420,-116,144,280
-179,-226,-154,117,-315,-300,-356,-196,-49,133
-100,56,-105,-591,-1321,-181,-34,-156,-118,-60
230,145,-175,-526,-1271,73,263,-245,-111,-8
500,-37,-240,-531,-698,-48,33,-4,-2,184
710,134,102,-363,-303,-242,-512,127,239,525
671,647,461,-52,279,-167,-767,-290,123,470
308,860,486,278,447,-305,-860,-509,-96,94
-300,918,-51,217,-93,-324,-526,-401,-449,-643
-359,795,-306,-33,-408,-128,38,-306,-648,-847
-128,195,-99,579,543,16,-313,-478,-495,-459
-173,-504,-338,263,1760,280,-277,41,26,-187
-285,-906,-625,-921,956,433,491,930,485,57
-160,-522,11,-570,-146,290,566,911,648,298
99,323,435,228,-781,267,591,449,324,276
196,217,311,397,-505,-166,-274,97,-7,208
54,-346,-110,5,-40,-99,-358,-210,-198,95
51,-780,-441,-379,156,323,366,-288,-97,264
226,-605,-727,-2050,768,905,1225,130,338,536
-24,-335,-1027,-2839,946,1062,2134,431,288,196
-346,187,218,418,894,-100,542,-147,-298,-412
-631,574,1559,3716,487,-960,-916,-729,-895,-890
-482,707,1436,2546,-985,-821,-259,-482,-858,-826
183,380,459,-375,-1443,-254,736,250,-26,70
433,-289,-293,-920,-1082,91,820,455,343,555
98,-441,-387,-400,-1007,-17,380,47,-56,26
-13,-223,38,374,-776,-360,-177,-162,-275,-318
59,3,113,400,-493,-350,-221,-119,-228,-255
72,79,1,176,-345,-193,-46,-155,-195,-141
70,-16,3,96,-245,-155,-112,-128,-94,4
97,78,24,-31,-260,-114,-128,-35,18,83
163,85,30,62,119,11,-70,33,111,159
332,67,35,-1,509,127,-47,46,139,249
316,35,17,-111,174,48,-232,-135,5,209
-85,-52,-21,318,-109,-75,-509,-451,-357,-206
-168,-64,-75,228,-56,25,-395,-353,-262,-146
-39,-74,-183,-180,-105,34,37,62,134,141
-27,69,7,-39,425,45,-177,25,104,30
43,83,31,-45,656,204,-166,15,186,191
-85,-158,-221,-395,157,148,329,267,230,206
-499,-325,7,-209,-175,29,77,128,-74,-297
-526,-258,246,235,19,59,-6,-4,-211,-466
-173,0,25,-33,-25,-88,64,146,-41,-231
22,332,-85,-47,462,-418,-132,117,40,-42
130,567,108,229,936,-559,-174,-39,-18,50
304,372,94,354,282,-368,-253,-40,11,240
535,42,-23,75,-220,168,-411,34,168,543
503,-29,-59,-362,135,597,-392,-4,189,355
104,-29,-217,-394,818,668,-633,-11,207,-62
-35,357,-234,-43,503,435,-848,-240,42,-260
80,920,142,372,-117,-80,-396,-498,-222,-339
300,755,-158,-855,598,54,1262,285,75,145
470,198,-695,-1605,884,311,1059,746,361,563
155,-372,-503,384,-325,-136,-1255,244,24,22
-173,-588,326,1738,-386,-185,-2366,-625,-389,-455
-139,-371,118,-42,-364,190,-262,-653,-205,-158
-87,-233,-635,-774,698,263,1794,47,245,421
-111,307,-390,-184,1405,-166,414,193,381,507
-444,465,180,94,196,-425,-394,-243,-105,-262
-539,251,243,43,-92,158,1010,46,-243,-512
-280,13,86,596,-593,16,953,416,-5,-80
-270,-150,186,459,-1010,-460,108,75,-248,-224
-423,-118,71,-90,-695,-72,548,-103,-403,-559
-401,-172,-14,-179,75,280,718,-76,-269,-423
-126,27,-222,-586,414,242,115,55,33,-49
175,493,-116,-568,-653,-141,-741,158,291,168
128,635,315,246,-1574,-765,-1352,150,190,66
374,574,457,585,-1414,-786,-936,124,275,329
460,-13,292,374,-518,-24,1103,-48,174,451
303,-411,342,223,178,298,1163,-238,3,389
127,-418,158,169,437,133,-242,-309,74,378
-191,-140,87,289,251,82,-431,-210,111,124
-210,0,-67,-133,-109,182,303,180,262,43
-96,-199,-602,-976,-147,529,771,343,216,-8
-117,-327,-652,-800,-217,377,448,187,-29,-154
-10,-50,-206,-32,-441,-315,-217,-16,-85,-107
131,358,170,404,-570,-734,-428,-74,-67,-25
49,533,253,372,-242,-416,-316,-178,-174,-130
136,792,328,303,-297,-178,-606,-237,-177,-154
393,893,337,191,188,-48,-1331,-397,-115,-42
585,632,330,131,1428,247,-2024,-473,57,193
884,286,-309,-1103,2476,576,-1223,276,728,758
641,-165,-1065,-2370,1931,810,962,1017,855,794
-418,-704,-643,-114,14,-16,1000,344,-135,-158
-1046,-921,422,2313,-700,-112,524,-336,-832,-898
-655,-733,556,1164,-1745,-227,423,10,-460,-613
-65,-271,259,-171,-1303,-355,279,-169,-374,-274
180,-19,69,-202,318,102,460,-499,-495,-175
267,175,-212,-324,624,131,794,-76,-195,66
485,611,-396,-577,380,-115,818,282,97,327
682,685,-614,-1159,367,67,544,268,209,306
414,432,186,131,-474,-378,-322,72,-84,-87
238,496,626,630,-1048,-474,-744,-66,-120,-146
168,767,306,-82,-1536,-349,41,-279,-44,25
-245,777,585,848,-881,-334,572,-311,-206,-153
-381,262,343,562,-290,5,421,302,196,89
-574,-361,249,275,-142,118,202,368,302,24
-753,-673,204,318,161,228,330,134,157,-79
-695,-551,2,276,402,253,264,20,90,-29
-581,-260,-95,156,389,236,170,-63,-24,-130
-319,159,-52,-43,189,173,-6,-120,-130,-226
11,704,-78,-600,98,265,102,33,-27,-101
70,848,-84,-517,384,492,47,-11,-56,-73
-87,654,68,18,447,373,-371,-289,-264,-293
47,416,191,-364,124,167,-306,-151,-163,-165
105,-401,72,-345,180,176,182,218,90,126
59,-767,-174,189,272,101,197,269,145,196
-60,-607,-133,596,15,-168,-221,4,-138,-78
-71,-768,43,613,-468,-502,-438,-119,-197,-136
273,-428,164,361,-406,-454,-393,-149,-13,77
506,-111,214,72,-60,-118,-246,-203,103,284
409,-116,170,-59,-277,-138,12,86,283,412
306,-98,116,-39,-486,-286,15,355,328,269
177,-88,26,25,-206,-84,-63,114,64,9
93,-14,-109,-51,-136,44,40,-88,-130,-98
43,175,-84,-111,-129,-41,-407,12,74,79
-194,80,39,-142,109,-71,-975,175,302,143
-350,49,191,184,464,-163,-1431,249,317,71
-416,2,346,890,642,-242,-936,89,181,-18
-454,-209,170,579,562,133,966,-164,-150,-200
-239,-226,-240,-157,777,455,1045,-316,-292,-116
-143,-297,-504,-267,1228,579,-250,-448,-278,-6
61,-180,-387,-315,1029,349,-1189,-436,17,190
270,-18,-310,-945,302,8,-241,380,602,504
23,20,-15,-978,-115,16,250,821,667,300
-140,117,291,509,-5,-288,-1800,44,225,11
-200,149,509,1638,132,-396,-1197,-502,-212,-173
-248,-194,241,183,-290,186,1713,-245,-440,-291
-462,-551,-150,-587,-767,382,3063,217,-675,-569
-69,84,184,55,-508,-181,1034,328,-256,-241
100,480,380,361,445,-356,-168,186,14,-42
73,363,44,0,1274,-26,179,175,114,66
54,396,-71,-233,522,43,317,-87,-103,-38
-16,15,-74,191,-542,-32,194,-248,-282,-115
206,-293,-169,-48,-715,166,299,-115,-38,203
97,-311,-181,-578,-930,246,485,-23,40,65
-118,-86,31,-138,-812,-79,205,-16,-1,-187
6,51,17,83,-609,-69,153,189,170,0
233,82,-122,-214,-669,-112,89,306,221,216
255,-73,-98,-265,-596,-260,-252,271,89,42
300,-224,-198,-212,-401,-187,-246,43,-7,19
250,-7,-142,-114,-254,-76,199,-160,-178,-14
163,191,32,21,-191,-77,114,7,-74,46
0,263,109,28,-116,-100,-316,93,93,78
-137,275,229,99,12,-43,-372,-62,6,-114
-204,-17,252,182,168,47,-109,-171,-140,-255
-64,-81,98,57,208,54,-24,-216,-185,-147
160,169,-26,-137,185,74,-68,-217,-181,-14
175,190,-124,-358,340,203,35,-79,-56,5
177,107,-165,-424,78,56,147,150,100,50
277,-13,-178,-127,-275,-143,-33,201,95,164
191,-168,-145,206,-431,-252,-243,210,119,201
18,-173,-43,-120,-175,-122,-328,182,192,106
-230,-284,18,-188,399,214,-179,-123,3,-82
-202,-393,-89,122,675,473,48,-272,-86,-38
-52,-262,-148,162,402,393,26,-183,-10,27
143,96,160,322,219,35,-302,-161,27,37
326,191,45,230,432,-58,-263,-86,32,96
319,16,-292,-300,837,313,84,5,97,167
374,-144,-455,-555,624,355,339,214,287,368
204,-38,-236,-420,247,221,47,175,181,109
-304,-35,174,637,-152,-217,-681,-351,-288,-412
-489,-147,386,1052,-227,-316,-427,-494,-453,-432
-168,-22,113,-112,-624,-450,304,-89,-94,-94
1,162,78,-424,-615,-482,551,81,20,-63
-44,-9,114,341,-193,-164,93,-86,-95,-100
10,-151,150,480,-59,80,32,-44,-63,11
25,-358,-121,-137,-348,85,195,229,101,137
-89,-432,-18,-119,-485,-110,-199,61,-1,2
17,-249,109,-16,-541,-219,-280,-69,-89,-55
292,347,28,-258,-470,-119,54,42,7,46
379,714,-114,-593,-296,-44,-87,151,176,116
307,661,-3,-535,170,-20,-316,173,257,203
83,165,249,19,765,61,-370,-80,74,145
-230,-247,194,543,347,-119,-61,-249,-222,-151
-353,-46,144,666,-506,-491,-305,-216,-409,-414
-234,17,-86,-49,-684,-282,-303,-112,-351,-398
98,60,-152,-304,-147,-7,-419,-79,-104,-96
191,-127,143,-106,204,300,216,-83,14,-36
201,-433,119,-148,312,385,736,253,293,109
413,-343,-99,-342,732,263,583,447,471,438
355,-122,-236,-440,1144,197,247,267,262,323
-119,66,28,693,631,2,-226,-317,-269,-270
-438,-116,148,1521,-36,-73,-386,-688,-525,-487
-213,-202,-8,-19,-670,-24,156,-59,20,-45
-68,-242,188,-303,-662,-142,302,186,190,85
-68,-443,121,-175,-374,0,154,480,328,163
-82,-449,71,49,-106,-85,-755,514,432,218
26,-360,-37,266,374,-62,-870,215,264,250
20,-522,-405,18,678,250,333,-104,-30,281
-43,-480,-739,-460,879,516,1007,-288,-100,221
-122,-320,-685,-690,919,302,328,-135,40,60
-467,-357,29,374,331,-54,135,-162,-224,-378
-564,-72,698,1137,-323,-373,-206,-352,-516,-636
-119,175,296,-282,-645,64,54,222,54,-88
91,147,25,-723,-645,131,190,303,291,247
-39,41,138,48,-83,130,390,54,81,130
39,27,233,175,-264,110,372,151,121,191
141,19,152,-35,-351,-27,-75,75,116,205
57,-40,88,84,-227,-153,-589,-48,3,47
138,-5,-146,-306,340,-28,-614,166,171,120
405,125,-424,-1276,1024,219,-204,374,390,362
128,-178,-396,-1038,728,515,644,149,143,148
-474,-487,-16,906,235,280,539,-296,-378,-363
-458,-316,249,1120,-268,-143,88,-234,-395,-398
-167,-126,179,168,-422,-52,127,196,-33,-193
-116,-189,-60,-249,-511,-4,-153,391,153,-40
-61,-89,116,102,-733,-295,-608,157,102,139
-40,92,216,237,-137,-110,-769,-331,-9,22
-80,61,73,151,725,296,-505,-514,-77,-154
142,-31,-88,-49,610,145,-433,-123,23,-8
283,-53,-196,-319,-280,-325,-140,76,38,127
140,-49,-116,-487,-786,-325,871,76,-209,-76
62,27,73,-84,-523,-184,941,127,-224,-124
142,-19,-145,-259,696,246,599,176,26,93
384,246,-546,-1117,1425,383,573,302,268,336
43,497,-101,355,845,-94,-83,-219,-253,-134
-492,398,919,2228,-74,-729,-658,-775,-888,-757
10,328,769,564,-535,-235,38,-77,-185,-31
559,197,314,-717,-1077,-103,39,232,407,749
457,-228,222,-365,-1018,-190,-518,79,403,627
-62,-595,96,319,-622,-339,-650,198,268,109
-520,-642,-136,158,606,-38,-308,395,150,-252
-397,-455,-349,-626,1332,214,-272,269,180,-119
-187,-42,-261,-886,832,413,206,-157,-6,-31
-442,387,77,-60,-81,553,783,-394,-397,-420
-240,581,178,364,-814,413,998,-6,-209,-339
111,-39,-90,435,-239,207,363,278,155,2
304,-341,-227,67,220,106,-164,202,235,190
286,-375,-273,-61,-150,-169,-404,-64,140,196
42,-298,-163,-157,205,20,-482,-257,-77,-54
230,-32,-256,-787,6,314,-576,-78,-40,-18
730,341,-80,-587,-898,-297,-655,154,171,279
772,441,182,309,-1003,-608,232,263,99,246
705,514,361,680,-700,-530,266,0,-22,185
458,634,413,343,-220,-244,-74,-225,-61,100
156,571,361,-68,-112,-16,129,-10,-15,74
-116,232,388,-50,-111,152,84,-63,-2,53
-385,-252,382,185,-125,126,-459,-465,-87,4
-665,-649,103,379,32,153,-506,-455,-114,-99
-858,-839,-336,306,652,347,-404,-257,-116,-264
-683,-552,-556,-157,1024,215,-12,22,-76,-150
-175,-22,-522,-561,605,-101,333,372,222,207
-17,148,-287,-296,-147,-260,1196,528,237,105
35,541,320,133,-733,-189,953,362,73,-72
10,726,388,402,-707,-152,-143,-28,-126,-180
-181,209,121,-234,-380,-32,-581,-303,-392,-323
-187,-96,231,-239,289,184,-850,-591,-434,-321
93,-363,-130,-268,663,309,-548,-197,165,137
66,-922,-425,-25,307,139,46,565,620,422
-145,-691,-269,-21,-472,-230,496,844,509,247
-269,-250,46,208,-786,-163,971,367,22,-49
-231,-249,-105,210,-11,321,1159,-227,-369,-214
41,-252,-197,283,553,249,515,-85,-139,5
266,-165,-181,132,489,103,-60,2,87,297
334,-112,18,26,149,-145,-247,5,68,291
232,-122,32,-248,-160,-157,-103,240,124,171
65,-153,-141,-407,-353,29,131,200,70,104
37,75,22,65,257,-11,164,-102,-83,71
-250,266,345,650,1654,291,159,-125,-179,-276
-298,122,247,740,2543,600,24,77,-32,-326
-89,-248,-131,967,1784,279,-255,-63,-68,-235
60,-350,-351,422,-563,-671,-551,-491,-399,-322
207,-3,-371,-992,-1841,-772,-206,-239,-266,-182
190,352,73,-566,-1378,-430,-255,24,115,158
34,449,619,396,-665,-302,-570,-174,126,226
108,299,369,8,-585,-125,-473,-2,273,323
203,65,54,-435,-392,89,-267,143,366,286
-118,-243,-72,-409,-85,210,-93,2,68,-32
-216,-420,-94,-62,-60,107,-424,-212,-5,41
-265,-410,-59,91,547,216,-273,-223,-75,-130
-66,-132,-281,-879,1847,639,-38,215,2,-167
151,151,-391,-1155,1707,763,111,290,8,-119
152,294,-270,-255,353,370,593,-239,-303,-171
263,536,-166,-27,-597,-285,928,-303,-281,38
247,363,-298,-466,-1215,-347,678,123,13,110
-369,-245,385,1382,-1084,-276,-49,-218,-328,-422
-585,-405,616,1181,-671,124,-134,-213,-276,-436
-148,-33,359,-22,-665,-87,-38,95,59,-31
222,201,246,-351,-251,-333,190,303,239,207
262,353,-28,-802,-143,-46,448,190,114,152
165,574,-173,-758,-493,41,224,-63,-99,65
21,426,203,333,-710,-161,-184,-259,-264,-58
-24,108,313,805,-510,-446,-338,-209,-223,-129
-57,-383,-52,438,-147,-162,-253,109,78,-27
-104,-962,-175,327,100,132,-294,261,291,78
14,-1133,33,380,349,114,-361,129,327,182
-47,-748,29,18,596,175,262,88,218,133
-156,-256,-8,-232,901,345,530,289,207,63
-225,-74,-1,62,519,335,206,158,146,-9
-159,-250,-215,102,-63,282,188,106,131,104
-156,-370,-511,-47,-121,137,-23,-69,-38,32
-183,-143,-309,197,418,90,-726,-391,-173,-150
-33,80,-56,114,341,47,-1460,-311,-2,-8
243,312,390,171,-78,-416,-1582,-60,252,273
396,391,436,-117,-309,-354,236,431,396,482
143,155,114,-331,-566,-183,1587,385,16,181
3,89,95,153,75,-154,569,10,-237,-112
118,243,-172,-257,346,108,245,155,-50,-46
284,290,-291,-919,609,338,350,168,103,103
72,214,-26,35,1158,495,316,-159,-215,-181
-155,89,123,1071,1191,510,-110,-323,-397,-400
86,-64,-55,-389,513,582,122,141,164,78
168,-192,-32,-1114,-757,-56,16,171,269,283
83,-265,366,263,-1294,-820,-550,-196,-66,79
129,-600,189,823,-949,-528,-593,-91,-98,56
271,-615,-461,-230,-858,-202,-411,68,2,116
368,15,-440,-481,-547,-217,-368,-70,6,58
132,487,166,164,61,-193,405,-304,-279,-209
98,702,377,307,227,-32,760,-148,-258,-132
108,789,217,52,72,7,88,-75,-66,65
-229,390,173,316,104,-54,-87,-252,-335,-242
-495,23,182,891,407,-153,-564,-375,-493,-520
-343,-129,53,39,191,-90,-974,-95,-175,-338
59,-538,-426,-1084,-249,100,-317,649,532,336
330,-270,-329,-606,-136,195,880,738,726,639
132,5,228,882,451,45,1091,28,111,194
-163,-132,66,899,502,-46,547,-424,-408,-130
-130,-51,-131,302,196,-14,-180,-210,-181,-39
0,91,1,-253,529,312,-260,-25,33,-64
163,203,-279,-1357,515,293,-140,-20,73,-29
237,164,-780,-1508,1000,407,215,-70,18,216
36,41,-246,814,982,138,57,-112,-100,139
-549,-289,232,1736,325,-82,-69,-60,-383,-504
-585,-455,-16,262,411,69,256,203,-262,-496
-118,-354,261,-265,1218,619,191,142,99,-45
132,-485,-263,-928,312,986,374,156,230,134
315,-199,-409,-1080,-2001,-4,-139,192,288,270
270,268,262,278,-2124,-1146,-607,-187,-73,131
140,432,338,475,-488,-846,-906,-428,-194,6
219,778,63,-383,-457,-524,-664,-233,25,36
178,986,495,32,-671,-324,2,-165,-71,-22
119,684,731,716,-306,-141,458,72,-58,-73
47,-86,122,569,-113,-3,596,198,-16,-131
-70,-569,-114,127,628,91,533,89,-34,-123
-309,-645,-104,-61,846,43,483,70,-45,-197
-485,-456,-52,851,-28,-350,-66,-146,-231,-363
-206,179,55,479,-843,-154,-308,27,-20,-143
159,448,44,-709,-1326,-49,-470,237,258,131
203,95,37,-480,-578,-58,-762,-93,151,129
95,-201,-77,-291,18,243,-337,-373,-49,18
-120,-327,-277,-597,216,374,480,-127,-57,-80
-135,-42,-112,-259,232,350,-153,-251,-56,-129
53,155,-142,363,206,221,-713,-505,-56,-91
295,-31,-427,-257,381,344,172,7,210,159
233,-81,-127,12,641,66,411,407,200,153
75,-70,335,861,713,-414,-316,74,-4,43
-127,-260,59,116,-110,-577,273,73,-68,-96
-226,-312,-149,-219,-709,-498,585,520,19,-165
-289,-131,-16,52,-468,-170,181,297,-58,-228
-147,68,-91,-319,-605,164,453,-45,-19,-97
-36,-288,-236,-353,-431,171,523,-44,94,62
37,-711,-274,-250,-124,121,225,50,95,83
202,-496,-202,-228,-185,-5,88,61,72,125
351,-85,-141,-146,-118,-184,-86,113,138,255
255,81,30,110,358,-213,-265,-2,91,185
135,54,35,139,280,-69,14,42,71,138
32,-9,31,62,-216,-45,144,38,-14,74
-132,-73,214,157,-429,-58,-23,-9,-71,-70
-250,10,254,65,-225,-5,-424,87,75,-62
-326,123,150,-9,-101,-102,-666,160,136,-40
-243,15,4,4,82,-91,-552,143,119,-2
-50,-111,8,130,217,-58,-67,0,73,58
-22,-233,8,350,506,63,335,-288,-61,51
-40,-170,49,378,414,-80,-271,-308,12,69
34,116,51,-124,-180,-179,-529,-97,162,140
127,127,-156,-633,-345,134,255,178,223,235
168,-8,-381,-666,-437,238,1017,268,178,302
90,123,-143,-429,-134,251,786,13,-25,141
-76,376,468,419,125,62,-51,-102,-189,-203
-196,162,467,1076,576,-97,-668,-1,-188,-402
-89,-72,25,184,704,8,-585,-26,-53,-215
-217,-194,-257,-529,530,434,610,-182,-222,-183
-293,-244,-428,-529,177,677,1169,-38,-219,-115
-177,-18,-281,-343,-396,320,575,139,-25,12
-148,258,56,-5,-439,-115,-67,8,-79,-118
32,408,105,-208,108,-121,-302,-33,-35,-61
399,463,-168,-1084,598,287,-196,182,288,368
529,95,-214,-873,846,439,-517,42,302,616
231,-60,440,1005,905,118,-1242,-438,-67,195
-164,-100,261,1223,1139,233,-851,-308,-131,-307
-244,-67,114,421,1700,183,157,25,-120,-345
-86,254,509,894,23,-707,-500,-223,-327,-211
-128,133,12,634,-1420,-923,-890,-385,-381,-329
-60,17,-272,-526,-1565,-148,497,-96,-131,-218
-108,127,104,-452,-1341,-32,1436,-40,-239,-267
-86,-319,10,13,-389,-37,822,160,-92,-68
-104,-944,-284,420,571,181,292,152,90,108
62,-737,-466,-123,941,428,266,185,266,282
74,-318,-592,-616,247,209,325,212,172,148
40,-82,-235,-237,-901,-429,-202,93,23,-31
13,163,184,459,-843,-460,-692,-124,-54,-131
139,282,36,235,-778,-242,-479,0,193,182
256,337,-155,1,-734,-213,-133,7,239,423
226,385,-88,34,276,-20,28,74,170,288
80,37,-173,-195,849,179,185,226,137,85
-37,-473,-361,-278,384,99,-309,132,66,-10
-96,-488,-380,5,-109,41,-306,-63,7,-10
-92,47,-337,-224,-479,119,911,-8,-102,-71
-160,471,188,162,-382,-273,451,-112,-305,-237
-6,303,244,250,-92,-117,-123,57,-21,41
39,-48,-158,-255,-138,89,69,259,173,87
73,-198,-150,-286,-197,140,220,165,141,7
28,-280,-38,110,-374,26,443,22,-7,-44
-22,16,133,256,-261,-110,125,-13,-30,3
-11,167,157,52,-145,-71,41,8,15,66
30,100,74,-38,-123,-73,-117,14,60,73
120,78,-36,-56,-120,-105,-301,-17,122,122
146,54,-13,-36,-113,-94,-395,-93,70,155
-17,48,39,74,130,122,-464,-199,-61,-9
-154,115,-36,58,194,197,-728,-198,-25,-99
-213,40,-22,28,102,104,-616,-242,-9,-108
-169,0,37,19,170,89,359,-82,-76,-93
-67,-184,61,60,572,122,762,329,44,3
41,-424,-64,-85,790,138,531,425,201,133
24,-398,-237,-113,568,194,684,89,-23,5
78,79,-216,-13,-172,-47,83,-128,-255,-159
201,370,9,-19,-255,-40,-458,-167,-247,-155
200,212,183,159,-375,-153,-776,-248,-174,-64
164,59,121,-51,-226,-126,-671,-176,65,146
-60,-2,77,97,547,175,-362,-330,-102,-14
-184,-79,-70,33,1786,427,126,-287,-260,-154
286,-9,-156,-755,1662,295,458,391,293,388
8,-349,-98,17,313,-55,463,309,160,192
-509,-365,387,1514,-785,-471,195,-275,-418,-424
-67,205,326,-42,-1031,27,409,94,11,-81
324,519,199,-660,-845,-15,-39,183,271,171
299,292,23,-329,-565,-94,-120,67,231,149
110,14,-68,-108,-574,-106,170,-22,-7,-1
59,-109,-2,35,-526,-177,237,127,4,-4
-113,-228,-53,55,-199,113,237,118,-16,-86
-194,-139,95,134,15,229,41,-108,-68,-115
-68,62,219,49,118,214,93,-132,-64,-92
88,195,239,-80,90,190,356,144,97,49
58,146,121,-149,-77,62,320,228,121,68
-39,66,40,-89,-165,-39,-8,112,44,32
45,-2,38,-113,288,54,-112,73,84,203
287,54,-208,-1165,686,355,82,268,313,399
343,343,-397,-2238,879,650,294,345,368,320
44,402,149,-427,201,122,-248,-53,9,-57
-454,216,1072,2823,-760,-985,-1103,-586,-522,-541
-335,-20,680,1485,-889,-809,-439,-220,-290,-291
-154,-370,-112,-144,-756,-257,369,-6,-57,-25
-139,-284,-31,55,-167,-14,154,-69,-65,-10
45,66,111,73,-52,-36,-163,53,67,90
218,59,90,96,-113,-123,-446,147,174,205
252,20,2,71,-16,-74,-549,87,146,208
239,56,-110,-197,16,-9,-25,46,139,190
0,-224,-32,-94,25,50,782,-40,-126,-117
-195,-236,292,301,107,8,361,-244,-431,-423
-13,265,375,351,-35,-51,-109,-180,-277,-270
241,736,344,16,-148,-142,-228,-16,-16,35
350,809,244,-388,-227,-185,-298,96,108,224
144,360,226,-285,-83,-107,-96,157,22,26
-85,-231,5,-40,-15,-107,-18,-17,-119,-194
-93,-365,-351,-30,-29,48,106,-70,-37,-94
-181,-121,-313,83,212,253,403,93,99,-11
-141,173,-168,99,261,231,227,189,201,78
-25,34,-211,6,119,132,-7,162,197,120
-97,-214,-181,259,338,144,-165,-67,-85,-123
-184,-91,-33,459,497,80,-664,-201,-292,-292
-118,-38,-133,77,116,-235,-1102,-173,-212,-42
-65,113,-238,-286,-63,-164,-487,58,44,146
-95,441,-158,-447,-103,99,327,185,143,41
-29,324,5,-225,409,288,325,-13,69,-6
175,47,50,90,623,376,350,-237,-119,-3
186,-389,-151,-299,455,162,867,49,-127,-18
163,-705,-188,-516,74,-146,498,368,165,241
87,-458,-9,189,-118,-164,86,70,66,179
142,156,287,453,-435,-56,150,-71,-94,-25
240,401,277,48,-681,-83,-64,-28,-49,-68
162,224,96,-86,-231,4,-432,-118,-106,-66
43,146,78,-60,132,120,-530,-173,-138,-58
-27,162,19,-178,379,155,2,-94,-35,7
-289,2,-135,-444,390,170,653,178,147,28
-502,-20,80,43,172,72,399,145,109,-83
-635,-148,185,1056,162,-30,43,-128,-154,-309
-383,-232,-58,571,130,-121,123,-75,-115,-189
41,-133,-209,-458,-172,-90,171,195,206,188
142,-62,-155,-515,-506,-67,-48,263,326,297
-1,-49,107,74,-306,24,-227,75,209,161
-130,73,244,320,120,157,12,-169,-62,-61
-32,101,-7,-81,663,337,337,-29,-8,-30
65,99,-122,-281,483,295,245,155,155,82
10,102,-3,-126,-316,-34,-130,69,45,21
-128,-91,61,87,-717,-347,-270,-91,-158,-132
44,-76,276,196,-104,-262,-154,-42,-105,-21
174,49,346,329,217,-182,-66,-56,-51,0
-14,92,34,170,53,3,65,-93,-109,-137
-9,204,-243,83,-193,50,-49,-86,-65,-68
200,252,-269,65,-75,1,-247,-113,-20,121
111,157,-90,142,271,-2,-298,-166,-128,-5
-98,-247,-236,-132,363,135,-168,-169,-102,-87
-59,-587,-390,-609,45,216,-203,-137,64,114
126,-373,-199,-581,-183,259,-257,29,261,311
27,-156,-149,-63,420,239,176,181,131,87
-48,-132,-308,-203,786,477,712,413,127,31
-149,65,-34,97,36,241,355,228,-16,-64
-35,282,208,223,-679,-372,-260,142,-9,-41
241,213,207,209,-885,-606,-411,281,179,171
157,47,123,51,-773,-462,-125,125,93,74
-40,7,184,191,-218,-116,220,-146,-153,-134
-110,-194,181,207,6,92,239,-115,-93,-80
-152,-203,139,118,-29,63,103,44,54,-7
-84,-66,92,22,-116,-23,-20,42,116,32
1,-108,65,5,-135,-72,-19,-23,51,-4
-48,-235,62,7,-95,-29,-63,-54,-94,-145
-82,-264,43,-60,-39,14,-312,-50,-72,-129
-26,-211,-80,-176,-14,-31,-689,-96,19,13
119,183,-79,-207,-48,-129,-777,-260,-54,61
194,591,14,-104,-204,-110,-221,-232,-70,69
62,547,19,-58,-325,-20,151,-129,-87,-48
49,421,93,12,93,-76,-856,-160,-19,-47
216,293,15,-183,723,-101,-1349,105,222,91
295,-59,-259,-677,1272,128,-779,618,408,133
184,-221,-278,-400,985,314,237,416,315,101
-272,-362,-95,350,-50,501,2159,-299,-341,-286
-322,-138,193,599,-707,131,2062,-381,-546,-342
64,202,405,540,-676,-274,626,-108,-229,-33
160,-170,116,130,-350,-40,242,68,32,135
110,-271,-18,113,103,10,189,80,95,140
5,-173,175,408,396,-13,192,30,26,41
-79,-208,172,188,233,-20,22,-108,-92,-54
-123,-109,-18,-46,-211,-142,-238,-319,-289,-282
-103,94,-20,271,-290,-112,-321,-339,-306,-387
-11,261,28,-130,-326,-13,-214,-161,-80,-202
56,333,140,-142,-309,-9,-213,-55,73,-38
35,236,159,27,-107,-58,-115,-34,123,40
-32,-203,-33,45,2,-15,134,140,186,126
-104,-443,-155,22,1,11,242,423,190,19
-16,-127,-56,18,-38,-117,-52,469,242,68
188,308,72,-19,-73,-155,-250,-66,91,173
194,300,83,-47,-51,-56,165,-321,-173,0
39,104,44,-33,-19,-7,187,-169,-240,-131
-112,-127,47,-16,6,-4,33,-31,-134,-81
-154,-248,-27,32,155,21,-67,66,75,38
-25,-58,-157,34,421,16,-209,61,197,163
115,59,-127,156,628,7,-389,-106,110,243
-72,-136,108,528,612,88,-241,-242,-123,19
-97,-311,-53,106,362,284,153,95,21,-17
180,-408,-375,-564,896,524,502,498,364,224
263,-274,-311,-345,1074,477,254,425,375,237
29,-226,-184,-73,-20,229,-64,-40,16,-70
-261,-228,-97,133,-818,-201,-73,-408,-399,-392
-22,38,25,-181,-427,-405,177,-4,-21,-64
115,206,-158,-416,88,-280,194,174,183,116
-53,337,-55,370,-182,-418,-177,-113,-111,-66
-82,330,41,286,-719,-231,-123,-86,-90,-48
-81,-2,31,-30,-553,7,74,92,67,41
-124,-212,96,64,-234,42,85,129,121,51
-136,-132,250,118,-93,49,23,72,75,-29
-137,-74,319,63,-66,45,-107,30,34,-101
-105,-97,161,14,-22,21,-289,-12,41,-68
-38,-130,47,-95,43,-7,-318,-45,41,22
-66,-342,-85,-393,-22,39,58,120,128,71
61,-134,-405,-205,132,16,411,135,-10,-22
-90,-141,-348,-329,470,204,487,-188,-275,-181
-10,-55,-250,-688,618,319,527,-120,-141,-31
82,83,-101,-698,629,467,465,101,62,103
-22,99,80,73,-27,261,348,219,96,41
-154,166,297,791,-524,-259,-275,-105,-122,-202
-9,315,448,864,-558,-702,-506,-252,-269,-213
215,547,381,259,-336,-549,-411,-36,-97,1
268,478,158,-165,31,-88,-190,166,74,148
218,-12,81,-172,106,276,-3,156,98,200
199,-439,-75,-39,-2,253,-133,52,126,238
310,-319,7,154,100,124,-419,-93,161,282
697,-37,185,230,76,-43,-442,-46,195,360
881,137,151,-8,-90,-76,-139,22,116,236
631,129,34,-122,-205,-10,331,-170,-225,-73
196,-169,-166,-250,-189,-1,390,-287,-371,-172
-36,-359,-253,-527,-54,152,323,-33,-129,-56
-141,-304,-211,-427,-128,119,240,208,48,-4
-263,-179,-56,520,-235,-210,-205,49,64,-11
-386,-114,-53,588,-39,-214,-98,17,12,-58
-343,-85,-149,68,-97,-17,217,224,126,6
-215,35,-62,-38,-174,7,258,114,58,-24
20,93,-37,-108,-209,-51,14,36,86,104
95,-39,-168,-131,-115,-67,-160,33,105,113
-107,-243,-230,-58,80,55,-238,13,83,-30
-224,-254,-65,54,103,145,-195,66,120,-31
-205,-28,123,213,26,22,-184,77,51,-42
-116,95,84,-93,11,-121,-124,143,-17,-39
-85,230,60,-504,10,-142,44,215,25,58
-163,318,245,-19,42,-72,179,51,13,88
-308,194,433,807,90,-8,111,-309,-250,-144
-402,-122,168,367,85,123,113,-219,-276,-268
-372,-234,157,225,165,19,-99,-29,-122,-206
-161,-20,203,114,219,-143,-336,39,39,-23
-29,315,125,-358,174,-124,-267,99,175,117
-22,319,38,-534,379,193,-42,160,215,139
-152,68,-76,-265,257,408,219,146,149,63
-219,-119,-158,91,1,386,379,-20,-13,-87
98,-207,-169,32,-368,103,308,-72,-94,-95
488,-172,30,245,-382,-276,-259,-34,46,109
406,-201,138,117,-224,-262,-415,73,221,216
129,-191,100,51,-79,-194,-234,170,284,247
35,30,-97,121,445,-14,-267,68,113,98
75,307,-166,127,837,252,-900,-464,-265,-223
18,253,-259,-201,325,349,-778,-826,-532,-440
94,175,-303,-610,-362,213,-316,-626,-322,-224
73,80,-134,-457,-754,-221,495,165,251,202
-375,-271,164,146,-369,-124,1126,454,228,115
-448,-302,55,95,22,86,948,220,-80,-85
-185,22,64,181,-14,-79,474,255,-40,-32
-245,91,118,400,454,27,201,209,-17,-91
-279,-122,-61,-56,1066,296,150,387,149,47
-104,-253,-232,-359,1131,304,15,390,308,226
-80,-245,-295,-78,165,-13,119,6,97,65
-233,-128,-73,68,-498,-52,134,-189,-145,-160
-172,113,58,-182,44,344,-126,-35,-22,-13
-194,214,135,-69,385,465,-332,-103,33,-2
-125,381,156,216,-299,31,-484,-43,70,28
37,510,238,217,-1092,-586,-233,109,83,83
156,395,64,-105,-1004,-511,80,173,67,87
57,129,-69,-133,-570,-169,122,-87,-97,-110
-70,65,-30,272,334,79,-137,-449,-371,-328
10,96,11,426,885,228,-362,-417,-359,-287
285,46,-157,-124,930,289,-313,245,95,35
650,265,-199,-804,836,186,-325,749,513,446
634,331,45,-565,269,125,-552,72,295,387
104,152,71,334,-245,106,346,-630,-317,-130
-64,480,162,286,-482,-283,684,-312,-402,-218
330,691,126,-352,-541,-515,0,54,33,249
407,514,263,325,-534,-563,-347,-173,19,298
251,347,158,366,-629,-343,-133,-48,74,131
110,157,-18,-368,-677,-99,33,197,191,89
-121,1,121,-83,-235,-44,-169,-49,0,-43
-266,129,297,485,181,13,-36,-237,-239,-227
-415,48,58,507,258,23,264,-107,-234,-331
-351,-93,-13,574,269,-174,-69,27,-31,-155
-47,-101,-29,181,228,-168,-261,80,63,189
2,237,92,-333,43,-84,-80,14,9,115
-171,575,207,-350,81,162,360,0,9,-52
-157,867,214,-230,-71,247,554,-15,-55,-112
-30,889,224,-5,-86,-45,242,-30,-76,-48
149,522,116,-78,-191,-138,-49,-62,-26,36
243,-63,-13,-38,-232,-65,-218,-108,-45,-1
303,-378,-320,-129,-251,121,-289,-71,12,-18
192,-523,-388,-33,-56,175,-273,-51,-15,-105
-17,-478,-53,114,397,198,15,99,29,-82
-55,-376,3,-269,742,261,334,257,231,140
10,-189,-22,-326,512,174,539,208,198,128
-10,-68,61,566,583,135,-26,-96,-102,-121
92,64,-161,138,511,282,-119,-99,-182,-169
144,123,-397,-600,-190,103,6,86,-45,-62
-16,68,-95,69,-845,-492,-339,-39,-94,-25
-151,-15,85,453,-759,-407,-333,-206,-168,-34
-190,-76,-29,137,-265,18,-96,-107,-28,29
-177,-137,150,59,-114,-23,8,192,135,1
-125,-144,116,-44,-156,-118,-69,229,185,-28
-325,-200,-61,-154,-24,171,617,60,36,-158
-336,153,44,-152,85,196,637,61,-59,-230
-146,306,161,-127,-79,-87,288,243,31,-121
-56,38,126,86,-180,-120,228,400,215,32
-75,-413,-26,-11,33,145,311,306,303,79
-79,-705,-134,-228,186,361,399,137,209,39
-13,-496,-152,95,26,230,203,-46,42,-9
-60,-184,-120,326,-101,60,21,-192,-165,-170
-2,-123,-122,53,221,98,-301,-224,-130,-84
153,-16,-266,-40,1056,353,-539,-311,-80,99
240,276,-294,21,1756,639,-510,-325,-8,126
264,308,-337,-67,1295,499,-202,-205,129,172
1,2,-235,256,-179,-346,8,-102,-42,-47
-74,-61,216,571,-651,-789,-412,-148,-163,-115
73,-5,373,-334,-571,-132,-93,177,140,148
103,-20,181,-758,-470,325,415,271,156,180
-1,-107,80,-58,-544,22,238,-47,-152,-21
44,-116,129,518,-666,-419,-373,-196,-175,-9
58,-202,144,109,-254,-179,-224,-18,-47,45
-2,-258,149,27,-116,-54,-20,94,-1,-4
108,38,168,76,76,-55,-421,8,80,20
257,355,144,12,213,-49,-496,-86,70,110
229,363,87,-86,-30,50,267,-88,-105,-5
-19,63,-19,-194,-367,154,876,-58,-306,-223
-9,-154,-50,-270,-135,106,394,37,-95,-21
63,-368,-70,-351,259,209,193,183,163,195
30,-161,-88,-233,226,211,2,177,182,102
-13,226,78,-6,-428,-199,-175,21,7,-76
32,396,365,369,-599,-485,-142,-124,-115,-138
4,262,391,416,65,-40,-277,-324,-225,-221
-119,-245,45,-49,265,387,-255,-334,-265,-247
7,-376,-141,-369,-60,105,-536,-331,-96,9
114,-181,81,-164,-247,-396,-238,-214,108,96
40,119,396,147,-144,-425,324,51,67,3
136,285,351,335,29,-143,5,170,43,73
365,166,-88,-181,-280,-87,-55,462,258,287
435,101,-254,-321,-354,-182,-258,466,330,331
171,-44,-229,-103,-283,-157,-292,58,29,78
37,-89,-77,123,-65,3,2,-326,-127,35
-84,-132,-29,32,349,206,487,-421,-199,-37
-68,-266,-259,-496,234,79,503,176,119,115
55,-212,-159,-341,50,-48,131,289,197,184
-96,-233,202,747,-24,-56,-94,-44,-139,-102
-133,-187,5,492,-127,25,-363,42,-71,-40
-133,-27,-120,146,226,-100,-889,43,50,23
-56,173,-131,-47,1044,-49,-825,-119,35,14
201,185,-246,-602,1113,55,-17,134,192,240
162,68,-98,-314,380,84,351,43,81,153
-143,-110,-13,84,-276,87,436,-106,-138,-190
-87,-158,-224,-683,-540,338,874,123,-40,-187
50,33,-81,-850,-622,192,443,6,20,-93
68,174,329,124,-485,-224,-440,-255,-54,-86
63,239,562,1020,-356,-235,-312,-348,-255,-200
134,259,241,52,-149,15,351,-72,-247,-222
370,311,180,-280,9,26,293,191,1,-58
619,273,283,306,208,-121,73,164,73,17
648,5,-55,346,785,-75,-86,130,138,97
442,-259,-411,473,1018,-61,-400,23,153,91
99,-208,-193,187,618,-52,-582,-194,-69,-115
-125,-166,-132,-221,267,193,-351,-233,-49,23
-386,-306,-227,138,-30,162,480,-99,-89,139
-741,-375,-43,15,141,399,1115,15,-297,-198
-857,-307,-5,-93,913,548,697,202,-103,-266
-813,-200,159,-95,863,458,357,366,166,-118
-883,-201,119,-96,-362,114,51,81,-83,-252
-554,261,206,-177,-1809,-424,-154,-68,-184,-205
34,612,327,-63,-1802,-585,-97,104,31,100
204,263,124,-151,-1047,-412,-202,26,-9,74
293,-17,-21,-181,-542,-321,-475,-100,-99,72
432,18,-215,-192,-202,-268,-758,-137,0,229
369,222,-244,-202,105,-181,-587,-27,142,287
160,211,12,53,400,-2,-77,132,158,176
-173,-268,113,362,866,301,488,134,1,-29
-201,-532,-429,-266,1182,818,1003,214,60,27
32,-26,-682,-900,565,711,595,156,114,106
-69,385,169,189,-240,-153,-395,-268,-220,-201
-290,398,673,934,-561,-443,-471,-287,-338,-420
-78,540,497,305,-880,-563,-178,1,-44,-156
73,244,290,97,-625,-374,35,58,48,-3
29,1,92,80,-163,71,27,-238,-148,-126
107,25,74,4,232,161,-382,-402,-131,-71
300,-307,-66,-94,563,122,-124,-162,149,221
309,-732,-311,-350,855,97,710,376,379,414
207,-800,-153,47,698,-2,439,511,380,386
-36,-855,-80,787,-287,-251,-140,147,91,97
-165,-613,-35,354,-688,-3,-78,94,-37,-82
-47,-282,116,-197,-566,162,18,54,-29,-40
-92,-231,60,-170,-244,45,-12,-68,-58,-18
-4,-131,27,-238,-110,-70,-241,12,138,217
-66,32,79,-230,264,27,-135,9,139,225
-393,228,-54,-70,617,249,406,30,-68,-60
-571,268,-183,45,157,229,275,33,-187,-259
-349,339,-82,-311,-466,-39,-334,28,-90,-230
-22,240,341,347,-736,-478,-762,-35,-19,-154
145,9,290,421,-353,-310,-401,-35,3,-90
127,70,163,281,-1,-96,153,-141,-85,-165
198,234,-28,136,23,-114,216,-143,-28,-21
63,155,-305,-68,53,-108,600,116,92,91
-130,119,-329,-122,275,-99,291,274,118,13
-87,-23,-286,-199,327,-79,-240,95,186,27
-81,-110,-132,-90,478,-93,-304,-90,153,32
-153,48,201,324,430,25,-214,-181,36,-51
-87,-48,352,426,22,16,-597,-62,107,67
244,5,146,-334,-221,-1,-635,172,331,363
281,34,-35,-609,-82,85,174,160,158,249
112,-284,-290,-656,49,185,614,52,-151,-36
145,-362,-248,-177,-233,-195,-71,97,-207,-38
84,25,143,596,-316,-464,-583,33,-240,-145
-58,425,146,-17,243,201,343,-8,-176,-266
25,498,-12,-473,149,530,1122,44,-91,-119
131,147,69,207,-79,115,441,149,87,141
-111,-321,58,135,-452,-77,145,-62,-25,28
-299,-228,122,140,-139,14,249,-278,-295,-218
-101,-47,17,181,-159,90,231,-73,-57,68
7,57,-36,0,-270,36,89,31,150,244
84,193,2,-70,-156,22,18,15,189,212
145,260,176,-8,-108,-13,-71,-39,33,112
190,293,315,71,-17,5,-191,-162,-101,4
213,72,261,125,59,-2,-297,-174,-102,-26
124,-369,-86,1,103,-15,-226,32,36,-6
5,-473,-325,-269,-19,-48,-26,263,166,116
-202,-369,-355,-314,-55,69,221,398,169,48
-373,-268,-147,230,257,195,209,204,31,-164
-123,-64,-63,375,443,197,-132,-223,-83,-78
123,10,-142,15,242,82,-393,-322,-20,138
202,99,28,7,-74,-129,-609,-194,12,162
294,198,177,74,-170,-96,-724,-144,50,155
318,192,56,-95,-154,40,24,-126,4,104
198,164,-34,-209,388,297,662,-164,-111,-49
261,7,-225,-376,477,358,502,-29,-36,30
328,-119,-242,-221,-47,60,209,-52,-110,11
308,34,178,325,-213,-271,-463,-386,-321,-129
418,391,177,259,-36,-278,-734,-266,-156,-21
363,514,60,-208,-1,-97,-465,-149,-119,-9
143,294,-29,-590,587,377,334,-135,-291,-178
204,226,-152,-829,1475,817,484,-161,-151,-76
239,49,-419,-1011,1586,923,470,121,271,206
-214,-516,-463,-55,364,293,155,286,301,66
-855,-596,185,1347,-487,-227,-488,-98,-90,-361
-945,-272,394,855,-1313,-479,-514,-56,-9,-227
-608,-152,312,345,-1094,-545,-27,58,247,44
-293,-133,141,171,-581,-336,394,141,140,7
-30,-111,-22,-63,-442,-283,18,166,61,-11
67,-16,-18,-17,-200,-184,-569,-82,89,-1
-6,269,-70,83,240,35,-269,-166,46,-55
9,309,-157,123,327,214,522,23,49,71
-68,97,-111,4,-3,234,861,179,2,116
-366,-130,-36,-64,-426,25,570,142,-106,-142
-223,86,131,101,-459,-203,265,112,-73,-160
222,202,146,74,-286,-206,67,96,43,33
328,0,184,219,-41,-272,-164,-121,25,147
219,-224,229,220,86,-264,-161,-66,73,240
-8,-496,49,15,595,-18,-380,-14,55,49
66,-630,-222,-598,967,228,-584,-52,148,164
240,-270,-314,-1061,641,238,-276,-18,191,320
-20,204,-59,248,-34,145,527,-192,-266,-80
-395,302,163,1009,-497,-39,547,-193,-431,-363
-138,348,195,56,-233,70,22,274,101,86
-97,-115,5,-124,-11,52,-292,437,360,216
-240,-514,-313,-33,-103,-102,-184,307,266,33
-432,-538,-343,-55,1,-39,429,17,-95,-227
-317,-344,-210,-91,525,77,718,24,-149,-77
-121,98,242,748,503,-170,113,-72,-160,-16
159,508,336,518,-70,-163,-138,-16,-38,69
429,420,149,-192,-429,8,-110,220,208,351
232,113,53,-62,-397,-98,-533,153,202,262
41,13,-60,-224,-47,-237,-813,154,258,151
17,122,-226,-401,356,30,-521,91,181,104
-48,128,49,565,976,312,-446,-281,-65,-91
-169,-64,272,984,772,344,-3,-410,-256,-345
-33,-188,-24,-310,-264,51,201,-83,-64,-178
-77,-305,-249,-668,-572,-79,526,156,-41,-146
62,169,-57,-411,-815,-213,601,108,-64,-106
234,530,141,-133,-585,-125,404,-193,-149,-65
172,506,173,12,-281,-25,405,-185,-252,-90
148,459,187,-125,-128,-82,178,19,-135,-43
160,-1,-122,-258,-115,8,87,170,81,109
114,-339,-169,147,-194,-28,-163,-38,-18,74
72,-355,4,302,-189,-42,-472,-42,-68,36
38,-354,37,-9,-160,3,-598,230,137,153
-38,-168,35,-122,-147,10,-572,111,166,147
-19,30,-44,-374,159,234,78,12,110,54
192,115,-97,-633,790,298,-49,293,273,103
246,-40,-253,-418,1031,155,-471,236,173,77
2,-197,-299,397,651,51,-135,-380,-318,-203
29,73,88,744,-168,-127,157,-761,-437,-219
76,105,168,258,-391,-11,640,-283,-266,-87
-55,-50,77,-17,-346,34,814,186,-135,-41
-122,-37,55,-11,-254,65,213,-1,-125,-115
-132,-79,-101,22,-125,-7,-292,-264,-132,-171
-161,-189,-48,324,389,-3,-260,-193,-71,-126
-221,-340,-86,211,551,249,164,91,76,-62
-187,-327,-201,-293,-118,263,143,152,155,31
-94,-93,-214,-522,-168,244,278,134,96,54
116,295,-121,-289,225,249,430,328,295,208
166,435,-202,-301,56,283,214,232,248,186
6,134,-124,43,-627,-249,131,-82,-68,-82
121,128,253,514,-828,-710,-2,-125,-106,-48
203,105,223,278,-395,-377,-65,-26,-21,63
231,72,159,96,-141,-204,-379,-54,-61,92
303,261,153,82,-110,-291,-702,-19,36,123
264,165,20,-16,-189,-322,-585,107,63,133
207,32,-62,-7,-117,-190,-304,24,16,125
-27,-105,-142,-51,71,134,243,-69,-108,-88
-125,-120,-26,-156,137,272,373,-129,-89,-135
-54,-258,130,-105,38,178,-176,-225,-8,-8
-74,-313,114,190,71,29,-275,-225,-127,-110
141,-16,0,206,-47,-227,-79,-178,-139,-122
499,496,-62,-61,-51,-424,-2,-11,-127,4
582,830,-209,-564,-33,-369,-185,75,20,172
468,680,-330,-849,-131,-130,236,63,127,289
198,110,-122,-120,179,147,574,-10,24,199
-244,-260,228,634,205,128,87,-144,-113,-88
-439,-207,411,723,314,117,-101,-100,-47,-209
-202,170,533,704,403,19,-182,161,98,-88
145,427,176,-195,272,67,-224,422,392,209
-15,233,-104,-567,25,184,-539,70,223,134
-492,-199,-111,-269,-14,284,-570,-421,-223,-267
-430,-251,267,208,686,299,-267,-414,-203,-239
-222,-434,-232,-435,834,475,1191,247,176,68
-227,-207,-473,-153,529,200,1268,438,205,107
-269,-127,-131,684,-118,-214,233,154,11,12
-280,-353,-81,990,-550,-302,-170,-155,-136,-94
-194,-302,-154,396,-364,-183,-241,-211,-189,-107
-21,-116,150,-106,-367,-84,-37,42,-5,45
-45,-192,84,-149,-415,-1,350,383,195,105
-92,-152,-84,-191,-287,27,224,371,218,112
-45,-101,-78,-113,116,-19,-162,102,118,110
-38,-65,-48,-74,396,-104,-673,-44,-12,67
-19,16,-127,-189,356,-41,-887,-83,-45,42
-22,-117,-212,-412,-131,169,-335,-69,80,41
-177,-292,6,420,-40,362,445,-170,-90,-146
-156,-200,-37,209,10,241,481,-48,-164,-265
169,217,72,-171,6,-223,-479,-57,-32,-102
355,517,364,63,-84,-244,-558,-118,71,62
184,228,324,348,-199,-125,338,61,66,127
19,-14,20,-50,-121,92,890,254,75,216
-94,22,-57,-165,-15,275,341,60,28,-22
-122,21,-117,-71,-100,146,-35,-46,-19,-226
71,166,-9,199,17,-167,2,48,72,-116
270,307,12,10,242,-171,170,111,105,3
315,119,-113,-251,204,-95,-92,-101,20,86
360,-43,-201,-695,-319,30,-108,-49,112,239
102,-205,-115,-315,-509,37,-159,139,190,169
-101,-118,39,318,-264,-224,-491,218,206,76
-84,33,-92,-45,468,-45,-702,253,232,40
-105,-79,-301,-317,1053,307,-459,-84,-44,-97
-128,-285,-363,-269,957,656,341,-284,-304,-186
-161,-169,-163,-151,443,586,298,-56,-281,-181
-37,172,207,409,-330,-272,-898,115,-104,-44
-23,240,195,157,-665,-433,-949,202,-15,35
-242,-67,-151,-650,-1575,-280,396,384,35,-78
-129,-261,-42,-396,-1076,-276,223,-57,20,-20
119,-107,154,257,271,-42,141,-500,41,113
133,61,83,420,202,111,1111,-107,105,113
-109,53,56,548,6,-61,916,10,-262,-251
-304,30,-132,212,57,-221,478,-131,-475,-459
-156,98,-300,-312,-97,-235,217,18,-130,-189
58,216,-106,-235,-15,-163,8,-1,127,100
-55,133,351,550,722,148,-161,-244,-39,2
-103,-272,74,82,1164,517,102,-80,3,45
-83,-448,-286,-242,707,332,39,24,160,99
-230,-159,-33,692,-199,-225,-134,-186,-1,-140
-251,290,449,916,-477,-299,66,-66,-96,-264
123,560,129,-523,-163,135,20,205,219,94
408,560,-49,-646,-55,-29,-605,47,253,287
286,266,60,540,-368,-451,-1090,-153,0,114
108,179,167,381,-519,-321,-321,1,-174,19
100,265,227,-314,-298,-6,419,179,-153,97
-2,86,-26,-588,-22,132,164,104,-19,15
-136,-528,-574,-968,28,445,278,102,103,-42
23,-814,-718,-999,276,524,257,-101,75,88
181,-660,-476,-286,604,296,247,-168,15,210
134,-202,-1,403,334,-9,239,2,-51,79
-166,89,775,1563,-305,-250,244,18,-246,-355
-129,31,368,154,-730,-158,305,246,-1,-229
8,-58,146,-343,-752,-204,-43,232,123,13
39,-118,214,337,-412,-372,-482,87,123,102
140,122,260,276,-283,-344,-673,-43,125,200
171,340,212,-14,-165,-122,-489,-110,135,271
-14,575,220,52,4,183,-141,-340,-130,21
6,765,269,220,511,333,-170,-428,-256,-156
56,376,210,424,1149,356,-223,-192,13,-69
-19,-71,139,301,901,194,179,148,72,-65
-89,-481,-65,132,-236,-212,200,226,-5,-60
-103,-408,-38,65,-859,-346,125,116,-46,-18
-6,80,-45,-368,-744,-11,259,80,18,86
-84,249,-112,-267,-492,-10,388,-48,-122,-40
40,155,-92,-100,-266,-102,345,-150,-305,-126
199,-319,-148,-96,-181,-105,258,26,-211,-68
125,-580,-149,-81,-124,-59,258,193,-69,-59
58,-378,-112,-30,-55,2,83,130,-28,10
118,-26,-134,-39,-31,-58,-56,46,38,163
90,230,-25,16,58,-11,-84,5,94,101
-37,41,67,101,119,28,53,-9,48,-74
-52,81,162,126,504,13,-17,-1,4,-103
-79,310,135,25,1116,147,30,85,93,-64
-96,305,-6,64,873,216,46,96,181,-35
-108,-108,-291,-48,4,152,-17,-14,98,12
-35,-106,-272,-239,-745,-27,117,-80,55,47
47,-18,-72,-83,-609,-41,283,86,154,136
38,-233,-64,-8,-246,4,210,217,181,123
17,-248,-55,72,62,-5,-91,134,48,48
20,-31,-55,219,514,4,-367,-76,-94,-42
14,142,4,268,501,-38,-610,-293,-224,-114
33,230,81,-21,-124,-161,-442,-282,-215,-80
181,244,-54,-594,-538,-28,-22,189,104,178
100,33,-306,-862,-59,304,77,194,142,151
3,-112,-309,-728,522,540,114,-12,-85,-18
81,-31,-90,-278,235,344,34,-124,-235,-112
206,30,129,465,-424,-344,-187,148,-172,-123
421,203,103,172,-608,-563,-369,373,192,108
330,219,-253,-592,316,99,114,35,186,151
210,71,-340,-559,475,439,672,-104,114,187
-148,-118,74,786,66,-123,130,-287,-283,-147
-291,-239,329,1248,-139,-501,-207,-213,-333,-270
-178,-294,78,101,-114,-124,58,133,44,-11
-251,-256,23,-292,-210,39,155,134,116,74
-340,59,87,-292,-263,10,63,-43,4,-28
-169,514,182,39,-158,-152,-189,-189,-116,-134
142,604,305,689,282,-222,-569,-273,-145,-146
212,351,159,259,327,-171,-687,-50,25,-10
43,0,-63,-17,116,-78,-536,11,0,3
-96,-181,-208,85,1,-15,-309,-306,-185,-90
-124,37,-126,-207,-88,192,479,-302,-193,-76
94,84,-50,-372,-218,103,449,146,67,138
242,-187,-20,-299,-338,-256,-503,430,352,301
204,-462,-141,-323,-132,-216,-537,487,547,420
-47,-451,-17,12,142,119,-66,114,256,196
-109,55,-1,-140,218,373,673,39,-80,-124
-53,463,143,142,29,135,339,-126,-300,-319
-331,200,301,624,-2,-13,317,-543,-650,-577
-432,-256,76,210,-258,-94,629,-51,-242,-231
-557,-622,-54,-23,-279,-29,515,260,124,56
-578,-503,89,83,23,105,244,75,-6,-23
-424,-208,76,30,44,42,122,86,25,-33
-197,-49,-1,-86,-18,-30,-44,170,197,70
56,155,30,-52,-31,-52,-406,0,230,143
150,280,54,50,1,-66,-564,-165,161,92
47,143,-48,1,-18,45,201,-88,75,-17
2,164,-108,-120,-108,67,566,-7,6,-73
109,169,-75,-177,-103,-33,194,53,43,6
224,70,-7,-101,-12,-83,-117,-66,-41,59
175,0,-59,-52,220,9,-86,-185,-53,5
71,137,-156,-130,601,257,134,-129,25,21
146,390,-152,-267,437,346,130,-13,135,126
144,313,76,113,149,216,-75,-79,61,101
110,120,289,573,-139,-257,-153,-133,-45,66
93,11,278,456,-316,-462,57,16,13,45
2,-57,177,154,-141,-260,11,27,-9,-95
-60,-138,-1,-6,34,-117,-63,13,5,-80
-64,-39,-87,-155,-35,-68,-51,38,-25,-39
-79,81,-102,-274,-101,97,77,114,10,-98
11,144,-171,-333,-449,64,89,91,-21,-80
9,185,-36,-134,-323,-51,-22,-92,-161,-101
42,190,11,-24,-4,-31,-190,-83,-16,-8
261,249,-76,-67,97,-60,-438,75,220,286
267,146,-160,-55,398,78,-508,92,220,298
48,-77,15,172,472,216,-242,110,241,108
-169,-296,212,568,144,107,-13,59,161,-80
-206,-350,121,206,-140,29,95,101,19,-100
-82,-243,-3,-127,-175,6,86,165,108,60
-165,-183,-98,-96,-202,63,453,-83,-10,-40
-190,82,-11,-4,-73,109,383,-178,-122,-111
-112,255,92,-54,-105,-30,212,18,-35,-14
-107,210,111,-90,-158,-116,171,107,-115,-82
-123,137,195,-9,-90,-48,74,0,-195,-213
-143,-94,115,134,77,34,140,-76,-227,-229
-120,-195,32,356,643,98,6,-44,-187,-133
10,-12,-47,236,1195,180,-100,37,-119,-10
129,140,-215,-260,786,133,-210,83,-45,31
201,78,-272,-613,-292,-89,-347,-40,-47,42
227,-63,-114,-583,-800,-14,-137,-89,-37,117
90,-375,-51,-67,-528,47,-60,26,-47,27
-55,-349,-212,343,-2,70,-67,101,-70,-42
21,-87,-310,351,405,146,-144,7,-3,165
134,-23,-396,-488,349,381,320,-32,79,170
129,-25,-421,-845,-20,336,377,-1,24,-22
57,161,33,-170,-603,-70,-93,-161,-182,-231
-78,175,512,739,-563,-407,-221,-336,-329,-384
-106,148,323,412,-90,-328,-85,-35,-161,-252
105,273,115,-159,-217,-318,-227,167,172,101
111,-55,-36,-260,-326,-236,79,153,311,217
-27,-413,-79,228,-278,-190,138,197,222,73
-75,-215,-169,173,-127,-46,-115,172,144,-6
0,154,-229,-55,-124,71,-144,76,81,55
47,268,-288,-215,-156,109,451,92,52,115
-18,234,-171,-235,42,87,399,-17,-65,41
-108,85,-180,-312,895,284,-276,-423,-301,-151
17,-43,-307,-533,1708,624,-539,-633,-338,-79
282,-99,-184,-181,1100,549,-555,-539,-137,173
89,-384,-52,322,-33,149,71,-284,-260,-92
5,40,287,539,-1131,-471,705,137,-321,-280
394,580,480,481,-1166,-696,313,291,3,92
527,430,258,108,-559,-284,79,187,236,293
385,291,195,64,-223,-84,21,95,263,227
98,97,148,45,-100,14,171,203,275,101
-217,-237,109,53,-64,86,276,276,262,35
-417,-476,-11,55,-34,113,139,129,169,13
-351,-349,-128,-46,54,113,185,97,170,11
-278,-195,-139,-28,101,33,250,145,186,-24
-297,-152,-57,115,74,-44,-3,60,68,-147
-446,-93,37,254,60,-61,-227,-85,-122,-332
-451,88,102,299,717,72,-398,-144,-108,-295
-94,251,-43,-137,839,161,-303,141,358,185
217,161,-340,-712,40,94,-150,366,685,546
61,-63,-238,-368,-577,-47,-312,82,313,244
-36,-55,374,679,-676,-254,-379,-278,-160,-78
10,-49,272,485,-320,-35,-77,-280,-300,-120
78,16,-48,31,-141,45,61,-83,-236,-26
145,170,40,-5,-121,-118,-165,93,-109,74
34,142,61,-33,-151,-130,17,189,-148,-12
-116,63,-29,-117,-235,-125,297,134,-224,-153
-49,8,-11,-137,-191,-63,75,-263,-180,-61
2,-10,49,-60,45,-10,-88,-405,-112,14
-34,-44,69,96,261,-2,-359,-186,-28,1
24,65,51,90,123,-7,-522,-129,8,41
197,487,38,-188,15,-10,-62,-193,-52,77
356,673,0,-580,138,152,688,-58,-23,124
351,496,97,119,492,16,402,41,-56,60
99,-238,-61,947,1541,75,81,115,-14,15
-144,-615,-206,168,1703,201,99,69,-22,-100
-226,-729,-360,-699,715,82,-33,-28,-19,-200
-56,-372,60,314,-81,37,-362,-152,-84,-211
180,87,213,549,-764,-39,-313,-149,-54,-39
268,165,72,-300,-945,93,194,170,287,214
95,125,28,-377,-1047,-73,212,160,262,261
-72,95,-19,-206,-670,-200,504,116,40,168
-13,110,46,-132,-434,-234,356,187,-11,155
-71,23,85,-57,-156,-79,120,105,-28,44
-215,-149,18,-1,175,162,191,139,134,-53
-119,-113,-31,0,261,156,57,206,224,24
35,-2,-119,-60,146,32,-20,113,151,70
84,107,-108,41,-106,-186,-221,-179,-42,-43
-54,92,-50,106,-401,-254,-272,-328,-256,-206
-75,137,131,-229,-488,-121,-159,-167,-186,-155
86,220,82,-337,-294,60,186,149,143,80
87,111,47,-120,-11,126,168,206,90,58
-32,-13,116,183,146,36,-18,19,-77,-69
-50,38,221,277,38,-22,5,-94,-2,-15
-65,20,181,71,48,69,83,-115,46,51
-13,-84,-45,-311,98,111,11,-5,-4,88
31,-285,-302,-673,154,193,184,159,66,62
-1,-572,-436,-551,-33,100,275,281,133,71
-143,-425,-120,357,-61,-126,-13,167,32,-29
-202,-149,214,819,141,-40,-128,-21,-44,-135
-128,-123,31,344,110,166,-11,-107,0,-118
-47,-52,-48,39,38,174,-264,-191,-24,-81
28,105,120,102,79,18,-818,-305,28,-38
142,132,164,140,84,-113,-807,-187,230,117
169,165,106,66,8,-140,-80,30,177,124
23,214,-31,-81,-119,-40,872,109,-214,-138
96,385,-76,-183,-240,-109,552,118,-160,-67
182,322,-140,-218,-233,-116,-127,46,73,163
46,0,-159,-99,-34,-5,-344,-89,-1,125
-145,-178,29,187,347,110,-438,-278,-163,-79
-131,-381,85,226,639,184,-126,-82,-72,-72
0,-554,-92,-98,635,158,-92,173,122,81
-6,-424,-220,-186,633,226,-203,66,167,86
-36,-102,-203,-267,356,356,99,35,214,28
-49,-9,-167,-521,-155,347,357,123,47,-11
-129,-70,-2,-31,-509,-228,187,103,-154,-59
-45,13,294,508,-446,-396,179,34,-125,-18
-41,-70,75,245,275,186,381,-44,-171,-104
14,32,1,197,573,354,43,-107,-126,-124
28,-12,54,189,140,148,-107,-123,-51,-159
-61,-173,-35,48,-467,-202,118,-21,-145,-226
18,-1,30,118,-488,-413,94,95,-25,-70
28,152,78,119,8,-132,-2,51,-27,-4
17,219,88,47,96,-19,-86,22,-40,3
79,228,194,18,-158,-209,-248,5,-70,30
135,91,223,-61,-284,-113,-115,-119,-97,39
77,-150,34,-119,-215,43,294,23,140,133
-22,-196,-91,-133,88,105,92,114,206,115
-86,-34,-116,-264,315,246,-234,-9,42,-27
-21,117,-126,-444,308,174,-535,10,-51,-35
94,200,-42,-70,273,-179,-732,141,65,72
18,-8,-168,341,322,-86,-181,153,160,30
-24,-215,-146,250,253,44,262,-129,-27,-60
-38,-321,18,307,130,-131,320,-278,-114,-92
9,-185,82,354,-100,-346,128,-238,-195,-38
48,-78,70,196,12,-148,32,-149,-179,18
196,18,70,-307,-228,40,181,208,73,152
118,-75,43,-335,-481,-231,2,210,177,67
-117,-279,54,92,-264,-212,-107,61,11,-143
-27,35,65,133,-257,32,-27,71,118,0
135,365,75,125,-306,58,5,-17,109,129
74,165,-44,-16,-95,123,154,-3,132,60
-28,-179,-62,-92,124,163,-58,-12,163,42
-168,-269,-45,-93,56,142,-259,72,14,-39
-235,233,-105,-155,-156,66,-536,-22,-147,-164
-59,776,-45,-138,-256,-87,-927,-229,-37,-75
188,722,112,-166,-34,-62,-447,-297,118,104
61,-52,38,-335,235,276,1041,67,158,102
-183,-834,10,-26,168,293,1334,340,33,20
-283,-838,33,471,-56,97,661,91,-189,-123
-66,-398,-85,-4,-326,-26,254,66,76,26
-30,-171,6,115,-13,-106,145,71,181,79
22,-35,2,17,124,-58,43,48,73,79
191,102,-164,-469,-5,-32,-127,51,85,174
272,205,-267,-608,80,4,-145,56,181,258
256,465,31,66,353,-9,-2,-63,77,128
159,617,363,463,461,-22,115,-98,-81,-61
87,284,265,82,42,-103,-93,-13,-208,-150
-29,-377,127,336,-478,-283,-296,-138,-300,-171
-23,-572,72,261,-302,-121,-294,-223,-197,-92
20,-374,92,223,-12,69,-167,-296,-112,-40
90,-84,79,315,158,-65,-2,-176,-63,-17
227,294,70,152,103,-263,-267,100,172,133
234,558,72,-115,-126,-248,-677,128,226,160
15,248,-12,-127,95,116,-888,-132,-4,29
-172,-73,-225,-233,273,433,-446,-407,-74,3
-176,-120,-278,-545,320,365,235,-262,0,-30
-164,-241,-171,-674,305,235,870,229,72,-82
-133,-230,33,-24,-39,-162,914,462,49,-119
73,-319,-25,537,-345,-367,18,145,-11,11
204,-371,-317,-184,186,-75,-224,-154,-46,162
89,-238,-124,-134,763,268,-157,-222,-40,139
-206,-271,180,631,402,292,-132,-121,5,-4
-324,11,213,496,-610,-134,78,59,-64,-124
-286,231,133,0,-593,-18,613,246,-73,-111
-262,65,127,-179,-307,226,325,54,-178,-106
-218,-192,214,-18,65,204,-71,-167,-241,-97
-45,-190,152,210,501,143,-3,-58,-46,15
165,-261,-156,48,415,142,219,258,157,239
247,-253,-351,-176,206,32,210,313,245,299
286,76,-171,-203,178,-149,-192,55,197,239
142,265,123,283,-177,-364,-371,-200,-67,34
-140,170,207,701,-306,-317,-157,-219,-264,-213
-169,73,75,-105,-277,60,348,103,-10,-106
-126,39,149,-318,-550,9,316,198,173,33
-275,-201,158,41,-446,-88,247,36,-39,-133
-203,-394,-40,200,-131,-82,118,10,-159,-187
-109,-210,-15,215,71,-106,4,22,-39,-199
-94,13,56,-10,36,-89,-7,94,92,-183
22,58,8,-294,-78,-30,-146,208,153,-51
161,-69,-82,-316,-313,-7,-288,200,72,72
247,-142,-155,-229,-344,-31,-339,7,-1,159
244,-106,-146,-101,-115,58,0,-88,-60,144
163,13,-50,-13,117,170,-71,-130,-156,52
-3,101,-211,-392,-13,265,-86,-176,-233,-87
86,289,-288,-745,-365,139,43,-79,-103,38
168,336,-35,-246,-166,-16,-176,-102,-61,100
-113,157,217,796,335,-202,35,-166,-394,-233
-129,69,142,712,575,-191,185,-44,-428,-274
56,-30,115,249,364,-143,51,-3,-236,-120
159,-181,56,-167,-100,-124,147,107,-29,52
197,-62,-69,-402,-429,-10,207,319,202,191
-22,150,21,14,-377,-109,-140,224,153,4
-110,184,1,204,-5,-150,-392,32,215,-21
-117,-16,-71,100,89,-26,-258,-72,231,47
-153,-319,-89,7,202,124,270,-9,133,0
-60,-458,-55,-34,253,110,311,65,89,112
-33,-480,-135,-69,82,123,224,72,-22,125
-1,-278,-348,-168,-150,98,132,73,-51,63
52,-65,-309,-131,-312,-96,-48,11,-43,48
-93,53,-59,55,-90,-40,103,-73,-108,-68
-249,-99,54,175,112,64,212,18,-145,-140
-218,-90,72,137,116,46,-23,171,-60,-52
-181,28,14,43,50,26,-142,139,-44,-37
-125,95,-148,-259,-25,36,-67,-37,-158,-81
24,183,-276,-660,-18,93,32,-124,-110,32
200,-23,-268,-624,37,68,133,-5,46,231
216,-254,226,426,34,-196,-205,-122,-98,127
141,-121,511,811,-26,-254,-343,-290,-274,-84
115,-45,31,86,-14,-55,-237,-293,-238,-85
110,100,-135,-348,90,37,-407,-258,-96,-4
187,363,-159,-476,467,113,-592,-220,-13,52
83,250,-353,-394,770,345,77,-93,-98,-103
151,260,-155,67,897,467,716,93,-14,-22
254,371,10,118,477,328,626,246,112,78
-3,-18,40,113,-384,-106,177,224,-5,-135
-340,-665,66,208,-929,-411,-203,49,-57,-187
-290,-483,156,428,-576,-367,-128,-26,31,10
-37,29,163,278,-185,-73,123,-80,233,217
121,64,140,113,-46,-61,53,36,413,310
221,31,166,30,-82,-195,-234,77,389,249
267,119,151,-1,-106,-190,-429,-13,293,159
45,-107,111,30,-111,-45,-252,-18,169,22
-28,-114,140,47,-3,50,-368,22,248,32
147,218,178,-102,351,153,-502,-94,251,127
210,69,47,-194,831,321,52,-54,147,130
153,-228,-105,313,905,300,164,26,63,110
-4,-439,-323,232,484,216,452,-3,-11,115
-117,-380,-260,-382,-116,186,932,102,22,84
-263,-136,-98,-153,-195,78,625,120,-45,-160
-323,-38,-77,118,-334,-111,169,33,-58,-265
-210,41,92,211,-517,-337,-53,-8,-74,-186
-154,59,129,59,-471,-164,23,-1,15,-71
-264,-148,8,-16,-302,-69,87,22,94,-23
-281,-214,-60,53,-60,-52,15,-7,76,-32
-162,-50,-18,165,199,-59,-84,7,21,-21
-118,12,-40,43,193,6,-66,36,-30,-44
-235,-97,-195,-153,-149,25,-31,-7,26,-88
-270,-94,-28,-85,-256,76,-36,-77,1,-100
-141,-26,115,55,-198,87,-81,-20,-7,-87
-71,64,53,74,-116,-23,-269,70,-30,-128
-67,61,23,145,102,-42,-318,29,-174,-206
62,105,4,45,469,-42,-415,-137,-103,-118
288,340,-21,-209,301,-114,-313,-227,51,98
241,202,-34,-97,-28,-152,5,-237,-51,47
-27,-213,-47,406,198,82,426,-53,-230,-200
56,-72,97,218,-43,40,69,-53,-219,-105
200,130,229,-194,-231,-150,172,-3,22,75
228,162,347,-190,-204,-50,349,97,124,130
111,164,245,-65,-205,1,107,49,63,45
-83,-25,-27,96,153,-7,16,52,27,-30
-94,17,-97,170,360,-9,-120,5,-4,-91
-47,148,11,60,115,-90,-340,-59,-58,-143
21,-41,70,-137,-144,-63,-416,-31,20,-16
42,-308,10,-197,-294,130,-205,46,45,120
19,-266,-75,-125,-283,114,72,84,-81,73
40,-189,-103,-110,58,128,-3,69,-108,27
-46,-380,-341,-209,243,260,135,58,42,9
-55,-115,-286,-303,2,206,293,102,223,83
60,346,-126,-296,-267,6,263,148,299,171
143,356,98,55,-25,-111,-11,33,175,135
95,122,211,346,319,19,-31,-113,-72,4
24,-236,-299,-328,224,313,230,-139,-178,3
24,-393,-645,-1024,183,381,196,-110,17,80
126,-116,-214,-678,156,126,-14,-13,251,171
36,244,407,341,164,-133,-304,-26,123,11
-89,257,391,617,6,-278,-349,67,-47,-122
-77,269,383,634,-153,-312,-226,197,-117,-173
-155,59,367,401,-86,-143,189,99,-326,-290
-10,-68,151,157,-99,-4,299,-173,-369,-185
182,-138,-55,-82,-145,127,86,-225,-324,-59
278,-151,-265,-420,-197,177,-140,147,-35,88
275,-133,-189,-173,-165,33,-227,63,65,180
-19,-141,-32,86,-30,96,28,-286,-184,23
-206,1,153,165,-75,15,-330,-366,-362,-164
45,259,202,46,165,-41,-628,-393,-309,-95
227,436,6,-438,127,-61,-7,-31,-159,-15
279,482,-89,-609,-163,-165,402,291,-18,60
19,258,-40,305,-305,-226,299,-41,-316,-152
-112,-13,13,653,-155,-211,-287,-172,-297,-116
-190,-420,67,320,71,20,-58,-86,-81,-1
-272,-611,199,312,746,416,116,-176,-4,-22
-37,-94,198,10,982,438,-108,-191,105,50
65,165,13,-304,540,294,188,64,174,97
-174,70,-123,-173,58,100,857,351,-13,-130
-78,160,3,115,-273,8,602,399,16,-67
204,146,-102,-335,-446,86,27,289,121,169
131,-126,-73,-148,-603,-264,-378,107,16,121
-16,-335,103,279,-819,-720,-271,107,34,70
-130,-279,113,293,-352,-296,-94,-81,-67,-61
-232,-148,27,86,230,157,-106,-232,-167,-207
-124,48,-62,-35,253,113,-129,-44,30,-87
-96,136,-56,164,63,-93,48,46,57,-82
-205,-102,-95,384,-249,-470,216,-35,-133,-215
-149,-183,-25,158,-175,-349,270,-121,-174,-213
64,-4,131,-123,78,-102,190,-35,100,-26
233,225,44,-206,365,105,178,131,346,167
261,404,-75,-194,-161,37,94,108,345,196
114,337,164,166,-295,-9,-62,-103,64,50
212,28,79,216,-130,96,93,38,141,198
266,-46,-147,-155,-290,-55,130,165,322,288
136,38,-121,-100,-189,-116,18,150,311,157
34,122,12,105,-7,-90,-22,64,205,39
78,179,67,107,29,-129,-136,-75,91,109
93,160,70,-5,10,-130,-201,-95,-50,28
102,162,155,-123,-9,-47,-184,14,-48,-99
107,61,151,-89,7,63,-73,96,59,-88
181,-62,13,-36,-33,14,-180,128,192,101
227,53,-86,41,70,-119,-381,30,172,187
110,93,-96,225,638,-50,-207,-74,60,94
35,-63,-146,127,1019,110,0,-64,54,157
-201,-319,-129,-61,495,167,241,-48,-113,6
-433,-431,130,111,-289,104,72,-194,-342,-217
-402,-406,184,27,-398,337,-43,-149,-176,-112
-180,-150,1,-148,-383,237,11,23,73,43
-95,325,95,-94,-285,-44,-62,20,45,-108
-144,661,153,-61,-108,-32,-215,-47,-99,-269
-230,518,41,-156,-28,35,-303,-99,-133,-211
-184,175,-61,-190,65,105,-211,-66,-59,-17
-79,-283,-205,-117,62,194,47,15,138,150
-194,-649,-222,-21,2,268,499,105,243,118
-131,-273,21,42,-269,28,327,135,269,143
-65,0,135,76,-222,-49,237,69,128,81
-38,-21,135,115,42,31,105,-12,-81,-38
88,18,123,-17,55,3,-7,-13,-78,-60
409,239,-31,-467,35,-95,-184,36,86,120
533,177,-263,-789,216,7,-232,82,214,277
334,156,-383,-531,276,39,-134,-16,79,100
132,507,-103,301,100,-61,-267,-184,-248,-169
125,620,135,263,112,81,-234,-259,-405,-251
275,453,111,176,-124,19,-202,-136,-182,-40
347,93,0,-163,-281,-22,-233,108,156,241
151,-380,120,5,-209,-83,-127,95,240,278
-284,-698,205,277,72,-95,206,117,156,151
-591,-528,66,85,138,96,817,214,-56,-82
-631,-316,-20,381,76,143,589,56,-184,-237
-598,-128,-43,768,19,8,-56,-104,-131,-301
-358,20,-40,303,126,26,-145,-13,36,-141
-234,75,-57,90,358,28,-53,99,148,-11
-243,292,85,101,359,-2,100,100,50,-107
-180,303,77,-171,84,156,186,107,-115,-138
-122,8,-170,-546,-165,361,459,394,87,-33
-115,-269,-328,-743,-141,431,492,478,247,42
-261,-484,-185,-287,290,294,142,153,61,-75
-219,-287,113,298,236,2,-121,-251,-139,-142
61,29,92,178,179,44,-302,-304,-57,80
267,235,29,97,151,-30,-596,-59,224,282
344,354,224,333,-1,-266,-920,37,314,292
349,267,209,321,-170,-342,-592,-62,129,208
223,38,-34,-46,-355,-308,392,-155,-288,-99
235,84,-264,-552,-656,-334,502,-179,-452,-230
275,366,-191,-456,-218,-248,26,-307,-454,-245
144,306,-19,267,92,-240,-19,-254,-450,-280
49,136,158,570,22,-194,-8,-148,-392,-209
-17,25,219,142,-96,-14,-202,-21,-230,-83
-78,-18,259,-102,-256,0,-469,162,45,59
-79,196,380,118,-207,-63,-599,174,138,113
-96,240,258,129,-179,-108,-208,102,177,134
-161,-50,-122,-22,-81,123,731,139,96,50
-82,-250,-219,-62,-4,283,862,52,-51,-72
-2,-410,-64,106,69,188,400,8,-32,-18
-32,-275,58,203,88,45,-31,12,6,37
-112,98,85,137,59,-5,-433,-129,-99,-52
-49,267,69,53,88,-68,-468,-150,-63,-36
34,262,-27,-54,250,-62,-1,-68,20,-27
77,63,-171,-135,350,49,453,141,105,24
60,-164,-127,24,271,8,169,155,191,63
34,-150,-145,-140,98,2,120,103,182,32
108,81,-42,-115,-94,-49,-5,59,211,98
-3,66,326,462,-221,-167,-105,-213,-105,-58
4,57,325,383,74,-10,114,-168,-191,-68
112,64,148,126,210,-17,86,-41,-61,66
84,28,-31,-79,56,-84,-8,-7,68,111
123,129,-97,-289,-214,-80,-37,3,96,150
173,214,70,-291,-359,80,76,72,88,81
78,140,124,-58,-307,38,9,21,-62,-54
-51,89,122,7,-143,-3,-123,0,-51,-105
-64,95,77,-87,-181,-29,-294,8,62,-36
-41,100,-27,-110,-30,51,-652,-185,-38,-26
-14,139,-45,-110,540,279,-776,-362,-63,-69
203,83,-123,-465,1340,565,-512,-142,242,149
317,-104,-443,-1197,1625,788,257,271,496,358
66,-224,-624,-1153,967,733,1038,468,350,132
-231,-50,-135,558,-645,-18,600,42,-161,-248
-249,296,315,762,-1524,-580,-96,-235,-424,-326
7,530,549,535,-1237,-750,-165,-138,-171,-104
251,252,301,163,-460,-372,120,35,44,101
312,-172,-107,-356,-317,-168,-101,16,35,178
204,-298,-137,72,-288,-257,-530,-141,-211,53
195,-196,-89,331,-327,-248,-389,-169,-203,51
403,-105,-154,-133,-382,-129,76,-70,-117,193
319,-20,-188,-105,-131,-19,302,-8,-144,75
116,80,-107,0,113,33,72,-31,-262,-120
-43,71,46,-44,41,3,195,96,-238,-244
-116,15,190,150,56,-10,229,194,-70,-178
-127,-29,107,359,226,53,-57,-99,-27,-133
43,34,69,303,85,60,-66,-298,-129,-105
355,150,62,-42,-170,-52,69,-29,97,135
339,119,62,-189,-224,-157,144,241,288,309
28,-31,44,-112,-77,-3,22,205,178,206
-316,-233,11,22,-109,130,158,159,85,-77
-294,-157,-74,-17,-77,96,242,152,124,-84
30,343,21,0,65,21,130,-46,9,3
-37,409,174,172,220,-6,68,-185,-138,-102
-280,321,164,80,7,-14,62,-96,-37,-173
-375,76,27,-112,-189,-77,-42,103,190,-31
-436,-298,-51,-134,-189,-100,-149,209,223,72
-362,-354,10,71,79,-8,-265,32,72,32
-195,-129,71,177,278,165,-254,-141,-16,-16
-88,-178,-56,41,236,137,-120,123,156,123
-74,-264,-167,54,412,57,-243,302,300,270
-177,-245,-222,84,802,127,-218,55,64,128
-456,-292,-271,142,1130,345,586,-111,-316,-225
-440,-207,-284,63,888,398,908,-97,-348,-269
-286,21,-77,64,191,115,537,54,-143,-194
-232,292,227,505,-369,-234,-40,-20,-53,-221
-14,269,-14,-103,-495,-66,-112,56,104,-12
124,118,-46,-402,-571,64,-74,83,95,60
104,-22,36,-144,-463,-70,-240,-33,43,4
83,-139,57,131,-296,-173,-364,-67,135,58
41,-90,46,123,-152,-129,-226,16,162,30
46,129,130,44,-90,-102,-1,-32,48,-75
44,119,73,12,1,49,367,3,0,-65
69,124,5,-51,116,118,244,127,159,74
28,177,72,-89,318,235,140,74,180,72
42,147,54,-164,181,250,-122,23,161,73
45,-22,-193,-284,-118,193,-400,-21,86,80
2,-236,-183,-64,-461,-195,-607,-108,-36,19
-12,-232,139,265,-268,-354,-534,-196,-124,-29
-38,-43,253,278,312,-57,-5,-159,-120,-96
-4,171,61,74,704,76,133,35,-17,-82
-74,397,0,-58,448,-12,164,-28,-152,-206
-18,282,-58,-141,-36,-106,-34,-147,-212,-138
114,57,-75,-123,-356,-5,-62,-108,-44,44
71,-98,64,136,-620,-170,115,9,65,76
-2,-153,87,76,-332,-44,312,45,94,79
76,101,78,-10,-177,-16,91,63,143,141
155,243,103,0,-150,-53,-130,43,74,123
110,52,32,-8,-24,11,21,4,1,29
37,-70,-146,-48,263,154,290,-21,-72,-80
170,131,-102,-207,598,220,96,-100,-62,-1
265,244,-139,-562,680,192,87,-76,-25,78
181,266,-244,-88,227,-139,-48,-66,-102,-9
-38,36,-200,622,-282,-366,-446,-264,-326,-245
-20,-221,-104,-9,-755,-250,-237,-274,-333,-156
192,-33,157,-134,-924,-275,37,-35,-32,167
243,373,313,-33,-556,-218,136,179,176,179
168,451,366,102,-84,-72,-207,32,144,49
2,179,130,-116,165,149,-111,-76,-42,-125
-28,-28,-71,-442,91,121,103,69,-11,-63
4,171,33,-375,-55,-53,-18,196,142,107
-148,185,133,66,-156,-140,217,130,35,-10
-183,312,161,438,49,-3,361,24,-33,-103
-100,306,264,560,23,0,168,-60,-131,-124
-37,15,163,75,-36,49,34,-40,-178,-164
95,-406,-94,-178,-119,93,21,83,-94,-33
196,-695,-275,-185,-29,71,78,197,129,243
199,-529,-197,-11,229,38,32,163,118,272
-48,-322,-32,299,364,12,0,23,-93,0
-371,-344,-6,259,78,-26,-34,-36,-218,-233
-278,-206,-54,-131,-151,-13,-111,-13,-132,-127
-51,-152,-91,-205,-231,-61,-221,-77,-54,31
91,-81,28,131,-80,-96,-493,-187,-16,73
171,138,17,138,0,-1,-365,-118,72,153
114,214,-70,-35,26,82,-37,121,126,166
-83,102,-119,-89,43,192,333,159,-12,-36
-206,-112,-170,-169,-121,126,727,264,-24,-103
-154,-213,14,91,-52,-56,254,144,0,-31
-112,-63,42,385,234,-93,-163,-25,-83,-51
7,434,68,198,266,-83,-193,0,-86,-35
101,916,277,53,166,-132,-146,-94,-140,-95
166,1122,348,-56,51,-82,-34,-133,-79,-49
163,618,114,-221,-168,41,-120,-87,-4,58
11,-408,-230,-290,108,150,-180,-6,21,77
-52,-944,-387,-323,649,346,66,62,79,99
-69,-927,-321,-240,446,327,348,115,87,111
-204,-735,-95,131,47,128,176,67,-53,14
-189,-297,75,399,-270,-108,-123,-30,-109,-38
-60,35,128,108,-240,-119,-193,75,19,-13
17,127,51,-74,-95,-105,-180,337,150,-16
129,125,13,-86,-165,-226,-307,477,275,63
167,79,64,16,-118,-235,-430,199,197,54
-113,-93,90,113,51,95,293,-249,-238,-268
-210,-183,-19,-23,123,332,785,-293,-387,-293
-1,5,-56,-138,31,196,266,-146,-131,15
89,230,-27,-151,-203,-35,48,-8,13,71
84,193,-10,-19,-351,-186,130,67,-19,-33
175,203,13,26,-235,-165,-148,10,-29,-54
284,218,76,-22,-142,-119,-568,-205,-35,-15
235,152,112,-3,-64,-23,-733,-422,-114,-9
30,102,185,100,29,66,-390,-471,-215,-85
-187,-64,82,88,185,253,272,-368,-284,-157
-144,-141,-76,-27,477,323,499,-47,-111,-45
-24,0,-134,-161,546,287,473,301,174,130
-38,-21,-166,-376,101,289,445,241,136,68
77,-51,-196,-328,-485,-14,-1,0,-7,4
181,57,6,427,-65,-381,-297,-231,-209,-107
190,15,16,593,592,-383,-362,-149,-236,-126
268,-2,-73,143,135,-314,-240,174,28,90
226,90,50,-74,-373,-310,-324,54,66,167
31,63,155,-136,-206,132,276,-115,-70,53
-44,174,46,-247,109,319,677,42,-32,-2
-5,257,14,-240,276,130,388,193,96,1
-131,26,76,412,183,-37,-6,-13,-84,-207
-305,-184,65,483,-125,-134,-100,-84,-157,-278
-241,-152,89,-247,-471,-140,-15,148,99,-5
-170,-23,87,-307,-337,-87,24,202,176,89
-97,107,16,-91,-69,32,127,188,207,97
-86,80,18,-30,53,120,236,189,203,95
-155,87,-84,-286,245,255,166,134,162,52
-281,20,-74,-184,210,264,2,64,116,-40
-339,-26,168,412,134,110,-173,-112,-23,-171
-131,105,189,162,133,44,-152,-53,108,-8
252,126,32,-430,432,142,-139,90,378,340
202,-46,-58,-11,642,216,-372,-151,161,194
-193,-293,-131,681,161,137,-155,-393,-350,-302
-224,-373,-556,-182,-95,145,354,-102,-349,-313
159,40,-324,-504,-317,-239,14,244,105,120
223,239,0,-402,-249,-191,-153,231,214,251
126,314,221,38,-536,-242,-85,32,81,150
51,420,336,270,-587,-320,-77,-113,-76,-44
66,295,182,184,-314,-255,-180,-102,-128,-126
145,105,129,243,-212,-292,-285,-79,-81,-22
45,-81,117,82,-198,-145,-19,-26,-12,-17
-144,-181,215,105,-64,64,342,6,4,-111
-207,-210,210,209,95,178,209,28,29,-101
-95,-70,-84,110,235,233,39,-14,168,68
50,16,-335,-360,289,226,71,77,420,267
40,30,-382,-723,117,132,250,178,428,203
-81,133,156,179,151,-45,104,-27,122,-56
-91,53,403,903,123,-22,-95,-192,-103,-138
33,-98,44,152,-128,-23,-101,-55,22,7
67,-145,-45,-151,-211,-119,-360,0,109,43
52,-192,-34,-82,-90,-113,-756,-90,-19,7
65,-87,-66,-21,98,22,-700,-74,-27,60
177,212,-14,-136,103,61,-75,-45,65,186
144,211,31,-329,-11,77,742,58,-87,8
170,18,-22,-312,70,145,636,150,-172,-133
175,-106,70,266,128,30,75,6,-153,-98
45,-169,185,667,120,-86,21,-124,-196,-106
134,58,145,262,2,-108,97,-39,-101,-4
183,224,133,27,-146,-204,-251,-27,-18,75
-6,228,12,-159,-186,-96,-253,90,32,-8
-141,77,-277,-299,748,414,-49,342,203,29
-196,-254,-351,-40,1841,777,-140,214,179,18
-208,-257,-371,-138,1005,617,-108,-88,51,-27
-215,-175,-326,-285,-478,84,411,-215,-47,-13
-202,-151,178,375,-916,-509,336,-193,-109,-29
-114,-52,301,401,-711,-410,209,4,-33,43
7,25,79,-142,-537,-128,141,143,89,128
22,17,54,-294,-67,88,-36,10,-31,3
-91,61,0,-168,279,257,-144,-252,-205,-187
-250,120,-80,736,759,133,-445,-532,-389,-335
-197,165,-198,684,1005,-13,-423,-458,-333,-297
137,401,-202,-469,-135,-325,56,67,73,25
210,224,-1,-866,-869,-252,385,458,303,168
53,-98,348,-118,-843,-76,104,220,131,27
-89,-363,241,376,-271,-61,3,-72,-120,-109
-11,-380,-163,-61,203,129,307,71,-43,-12
172,-28,-358,-662,-36,145,270,269,167,161
276,187,-343,-884,-568,63,53,253,275,253
185,175,77,-111,-757,-274,-318,-93,141,145
109,58,341,844,-96,-308,-636,-332,29,51
209,180,168,529,92,-187,-520,-133,135,121
177,226,-45,47,-110,-117,45,140,164,101
1,115,-127,-45,-106,37,325,135,31,-62
-92,58,70,47,7,73,147,77,-9,-53
-17,18,206,138,41,-58,-419,52,133,142
-33,46,202,73,-54,-192,-472,-26,51,88
-175,26,56,-66,-113,-64,398,-54,-171,-94
-228,-98,-76,-190,-117,126,770,-23,-224,-133
-130,-217,-131,-245,-73,85,384,114,-31,-26
-141,-196,-88,-222,27,131,217,196,29,-53
-127,-48,51,-88,116,128,20,83,23,-96
71,90,128,-78,-27,-66,-112,19,63,-42
163,-3,40,-173,-102,-88,-261,116,134,57
60,-250,14,374,90,-124,-547,92,133,106
-26,-191,84,499,205,-125,-441,114,195,149
62,86,88,120,130,6,-127,-71,93,158
9,63,-72,-134,91,123,349,-364,-251,-50
29,274,-185,-420,-15,109,428,-352,-314,-103
109,431,-83,-260,-142,-37,149,-198,-192,-41
-32,121,30,138,-167,-81,354,104,-100,-168
-73,52,33,347,96,-48,186,173,-66,-214
31,-127,-13,407,549,-47,-162,57,31,-42
119,-370,-119,285,595,-77,-284,43,81,110
73,-272,-168,158,128,-183,-285,-125,-144,-24
35,-244,-119,-211,-272,-88,72,-84,-153,-23
69,-227,-101,-393,-277,215,510,173,62,107
-24,-140,-12,-153,-170,123,439,207,55,17
-205,-128,86,134,64,19,238,189,17,-90
-252,-148,84,191,12,-3,145,196,62,-14
-152,-156,-41,-31,-92,42,26,141,148,152
16,-70,-206,-418,370,197,-95,174,215,242
118,16,-281,-627,641,366,-71,258,290,264
-19,8,-177,-439,257,390,50,22,164,137
-322,10,229,656,-216,4,-139,-457,-213,-243
-271,141,319,1181,2,-368,-324,-462,-268,-325
-10,177,150,356,569,-132,-334,-171,-19,-59
62,149,98,-312,640,84,-279,-124,8,31
-3,111,0,-165,417,337,203,-100,-85,-63
-52,-13,-95,15,85,463,177,153,22,-69
-71,-208,-82,-108,-266,70,-391,119,15,-79
-12,-223,88,116,-617,-520,-566,-149,-102,-82
19,-56,121,140,-577,-581,95,-169,-142,-51
147,458,66,-80,-143,-113,392,-116,-61,1
314,787,-85,-264,-60,87,145,-4,7,66
307,406,-128,-97,-245,-8,-93,-14,47,38
213,84,69,127,-235,-64,-351,-289,-70,-41
195,-156,112,-53,-190,-89,-257,-314,-70,94
85,-377,-146,-334,-160,-29,236,61,159,217
-41,-298,-109,-330,-79,33,524,293,193,158
-97,-99,-2,-131,-144,-41,370,306,144,76
-136,66,183,424,-179,-79,201,152,23,2
-194,-6,27,359,-103,41,142,24,-79,-81
-146,92,-1,128,-31,87,27,-93,-153,-180
26,130,-76,-62,204,136,-34,-79,-136,-136
150,73,-96,-162,595,192,-59,12,64,32
86,-6,-93,-164,1036,319,-128,0,111,72
13,-93,-130,-492,833,292,-262,-69,31,41
33,-46,-79,-488,-238,-217,-265,-50,-10,91
-74,87,243,489,-610,-368,-3,80,-72,27
-173,177,117,338,-773,-47,194,80,-152,-121
-130,199,95,71,-629,-142,-109,-65,-215,-237
-27,23,133,184,-224,-122,-422,-20,-62,-115
76,-121,53,114,-81,-67,-484,15,124,125
32,-280,-34,-29,3,22,40,108,180,209
-94,-316,-136,-115,119,219,578,214,101,99
-60,-132,-111,-152,-27,214,513,166,-3,39
82,27,-20,-156,-303,3,191,20,-60,25
2,-26,75,127,-191,-92,3,-21,-109,-51
-174,-53,97,231,57,-8,-91,58,-39,-67
-214,-36,24,82,40,-3,-210,138,120,8
-42,22,-42,-64,-102,-37,-123,105,206,92
34,-27,-53,-87,-129,27,1,-105,95,32
-34,-87,-70,-57,9,109,-178,-270,-91,-87
-2,114,-74,-149,136,78,-588,-290,-89,-53
240,292,-87,-373,120,-64,-622,-152,57,163
419,434,23,-276,-38,-265,-97,77,172,267
235,271,81,361,59,-244,502,119,-73,-14
48,-6,117,598,209,-136,563,0,-320,-262
15,-168,273,401,238,-52,49,-162,-283,-163
31,-228,-13,69,-68,89,54,-133,-76,5
75,-111,-241,-183,-222,45,118,-22,-5,42
239,126,-126,-181,109,19,-62,29,56,205
258,199,-107,-132,491,122,-103,83,64,226
115,201,-35,-186,450,173,-198,-14,13,146
-73,175,70,-478,-73,164,235,-120,-112,-102
-186,-68,-117,-365,-303,-26,560,34,-62,-221
-197,-219,45,788,190,-165,233,0,-102,-228
37,-142,41,433,489,106,17,-52,-77,-73
102,15,149,79,243,60,-156,-197,-157,-110
-46,161,149,445,54,-55,-299,-272,-211,-231
13,200,-81,324,-146,-103,-123,-41,-51,-59
184,280,-24,-245,-538,-297,-134,88,125,186
168,131,63,-364,-619,-225,-80,27,146,245
17,-311,-229,-198,159,135,133,39,135,149
-203,-648,-504,-105,1079,463,115,133,167,66
-320,-569,-406,-397,647,414,-93,206,202,66
-260,-307,-136,-773,-307,144,52,235,160,32
-69,46,63,-290,-805,-111,178,166,44,17
57,205,247,857,-357,-238,-69,-98,-201,-39
283,224,-13,468,1574,209,-135,-54,-107,57
536,181,-210,-303,1628,386,-11,-1,106,239
404,-28,-269,-444,200,195,267,-215,-33,50
99,-157,189,295,-821,-321,-46,-316,-283,-235
210,43,648,625,-1249,-699,-198,-67,-25,46
261,196,616,106,-841,-399,20,40,105,287
214,25,293,-149,-665,-141,131,69,33,284
-21,-169,23,-147,-523,-88,19,89,69,42
-279,6,-36,-173,-346,0,164,140,121,-144
-364,286,98,-101,-241,-15,133,121,114,-165
-416,603,241,86,-63,-123,-153,-9,17,-225
-372,538,60,-39,-60,-61,-257,-32,57,-36
-233,-11,-217,-174,38,83,-242,-59,118,202
-185,-690,-247,-224,183,254,-122,-34,79,159
-312,-930,-288,-225,131,327,-90,42,-18,-33
-381,-265,-91,-63,-14,138,-168,-84,-150,-343
-262,351,178,296,131,-8,-164,-49,-115,-396
-72,259,48,304,265,174,272,378,221,-122
140,-4,-212,3,21,240,543,637,485,222
173,-220,-172,-117,-313,46,260,324,360,279
172,-236,103,-131,101,145,288,-32,23,69
224,7,195,-74,652,244,13,-130,-167,-87
233,-58,190,313,317,4,-337,-122,-79,16
108,-182,109,-4,-192,-108,-200,-148,-36,96
-23,95,126,-64,-396,-119,215,-17,-8,26
-149,46,101,97,-280,-28,443,149,102,0
-254,-128,-95,-58,-68,110,572,236,113,-88
-383,-73,-120,-82,-18,78,416,222,75,-180
-520,-72,-135,-24,-55,-20,221,130,0,-245
-444,-165,-146,-13,-163,-136,91,19,-67,-228
-224,-164,-175,-106,-109,-82,31,28,-64,-106
-184,-88,-133,-189,-21,25,-17,10,-94,-129
-202,142,86,-114,34,100,-130,-108,-181,-181
-146,196,173,18,-12,134,-206,-170,-109,-37
-30,76,64,-81,-49,85,-163,-128,-27,134
189,208,-63,-349,-175,-74,-176,-26,-33,248
269,332,-1,-314,-187,-333,-609,17,-77,126
120,345,186,142,17,-406,-863,-8,-110,-112
15,299,275,593,119,-241,-576,-73,-11,-60
4,-112,43,191,65,63,363,26,171,168
-47,-304,-66,-3,40,173,721,75,224,136
-58,49,66,135,102,110,274,-73,69,-67
-57,-2,134,147,73,58,58,-46,84,-13
-15,-136,34,5,26,37,-44,-54,111,87
26,-51,-26,-58,47,86,-116,-162,-109,-40
81,51,104,26,77,89,-108,-122,-193,-101
123,61,151,110,102,48,13,14,-54,-49
256,91,173,79,38,-70,-212,34,47,67
384,166,204,43,17,-149,-693,-173,42,134
464,337,201,34,61,-102,-755,-338,38,135
324,346,156,-10,57,-20,-121,-183,15,86
172,102,-33,-206,54,6,485,171,49,132
-35,-16,-44,-406,104,137,808,253,-11,11
-127,-66,-1,-130,124,143,408,124,-118,-116
-42,-250,-155,506,78,50,-54,-89,-223,-166
283,-146,-241,133,-75,6,-347,-217,-197,-71
589,-67,-237,-239,-241,-66,-517,-315,-88,192
385,-98,-262,-166,-208,-104,-185,-271,-98,244
66,-38,-150,40,-32,-113,113,-39,-31,199
-113,85,14,196,240,-101,-4,219,52,29
-283,18,-62,0,309,-13,182,352,23,-152
-350,-97,-187,-228,-5,-5,227,284,10,-162
-240,-61,49,-23,-36,22,177,-6,-82,-132
-141,-120,43,131,-84,27,135,-178,-166,-108
-84,-81,-62,-13,-151,-28,19,-147,-117,-67
-31,332,-19,-39,-60,-49,-110,-69,-60,-118
25,543,12,11,31,-69,-94,103,83,-95
131,358,-104,-19,71,-21,-146,149,174,51
173,119,-241,-194,421,48,-203,62,121,106
152,-53,-55,-155,1033,205,-152,82,145,150
-87,-301,40,98,1173,402,-17,-122,78,68
-314,-332,-89,-63,312,330,31,-411,-92,-124
-148,-130,-145,-556,-706,-3,331,-123,-17,-34
15,-90,-9,-292,-706,-250,504,304,119,48
-32,-98,341,860,-154,-270,-29,74,-84,-134
103,-27,156,383,-204,-53,-348,-175,-159,-106
242,176,90,-10,-616,-272,-233,-215,-103,-39
254,447,160,-24,-604,-357,251,-15,-41,-5
130,357,60,-15,-288,-76,588,166,45,71
66,20,28,144,28,133,418,199,157,177
-14,-424,116,347,253,155,177,116,151,187
-120,-458,238,396,466,85,6,12,68,86
-292,-291,267,174,330,32,-137,-49,-41,-111
-388,-67,31,-121,-77,-58,-252,-70,-128,-241
-183,223,-27,-312,-241,26,-242,-81,-53,-87
161,329,28,-226,-377,13,-56,-56,92,216
273,194,37,-10,-153,-36,-15,22,162,298
165,-143,-23,-6,-58,2,79,124,227,234
-40,-469,-150,-96,-86,-4,270,294,254,110
-69,-101,-149,-92,-15,-23,41,328,185,-14
22,336,85,-13,167,15,-268,63,-49,-120
2,253,184,20,255,125,-84,-260,-289,-197
-93,-159,1,16,295,264,359,-103,-235,-188
-15,-215,-77,145,501,276,351,46,-96,-120
14,211,14,255,558,-1,-95,-156,-200,-162
169,633,-13,18,-55,-271,-261,-144,-56,5
325,512,-78,-65,-299,-170,-123,-57,53,67
254,109,-159,-294,-428,60,-136,-157,-90,-26
263,-100,-146,-352,-528,0,-317,-227,-91,68
363,-37,-31,-407,-601,-182,-288,13,82,177
333,-23,25,-408,-397,-273,-159,356,227,253
202,-162,-104,-308,22,-113,-13,360,244,368
-67,-437,-133,136,89,147,542,211,179,289
-477,-376,61,300,-34,195,461,157,68,-25
-643,-64,339,639,2,37,-131,87,-62,-244
-496,-131,200,367,194,-13,-265,133,19,-134
-164,-137,-7,-257,171,27,213,261,136,58
-79,-106,-76,-486,132,212,616,138,-55,-90
-228,-251,-64,133,153,226,304,-153,-326,-274
-346,-371,-121,754,210,144,-275,-374,-401,-311
-191,-249,-281,276,505,287,-575,-239,14,-58
40,43,-85,364,855,175,-988,-231,243,210
170,244,163,404,653,-72,-902,-239,179,242
172,126,79,-64,-66,-235,-104,-65,74,145
194,108,82,-158,-604,-249,826,27,-136,3
193,296,89,-178,-632,-179,942,115,-221,-49
218,464,122,-137,-360,-136,264,158,-64,-16
85,320,227,39,-156,-156,-191,-23,-60,-77
3,96,83,-10,-50,-93,-168,-75,-58,-79
69,-54,-215,-259,-9,0,95,76,77,30
92,-76,-278,-383,221,51,93,79,159,72
66,8,-117,-353,157,93,55,112,176,69
-130,-11,-78,-171,-2,87,45,189,81,-5
-290,-8,75,529,-229,-106,-140,72,45,-69
-267,-86,-57,158,-326,-7,-69,-31,81,10
-82,-9,24,-153,-293,-89,-359,-75,66,135
-22,248,325,-57,-7,-244,-819,-167,-38,69
-8,442,228,-337,155,-28,-337,-209,-112,-6
40,426,-23,-569,467,237,254,-210,-137,6
143,286,-89,-22,513,245,315,-172,-46,32
280,5,56,654,331,196,298,-126,-45,7
188,-240,-4,499,251,144,304,-18,-149,-160
194,-268,-54,207,-9,20,131,263,80,11
237,-131,-93,12,-209,-59,-105,222,194,107
222,307,-82,-17,-574,-310,72,57,74,-1
204,568,-30,-53,-566,-300,57,-152,-83,-80
132,570,68,-30,-162,-157,-140,-311,-290,-202
20,233,121,137,-44,-130,-206,-255,-176,-95
-194,-358,68,169,21,-103,-65,-13,32,49
-407,-700,3,245,850,78,141,266,111,63
-345,-593,-135,35,1839,428,269,418,304,211
-170,-354,-218,-132,1519,420,126,201,145,278
-268,-126,-77,93,-7,-4,-171,-205,-183,-124
-288,-47,105,4,-1123,-111,13,-112,-232,-346
-8,121,302,102,-1044,19,-66,32,-53,-201
388,65,149,0,-637,20,-513,-76,78,7
582,-87,33,-111,-441,-124,-722,-172,185,258
347,-151,11,-118,-272,-108,-86,-91,134,200
178,-29,-135,-413,-321,42,788,184,65,73
304,215,-142,-540,-366,34,648,89,-41,43
419,382,70,-68,-146,-108,-50,-88,-127,17
192,181,232,649,129,-237,-587,-179,-216,-148
-231,-206,-64,422,199,-162,-261,126,5,-132
-576,-190,-100,72,-61,-131,199,211,151,-69
-625,-80,99,-159,-185,-28,410,78,93,-27
-445,-97,-87,-310,57,182,263,82,114,144
-112,18,-238,-336,-151,128,-24,54,112,192
-63,-32,-129,-189,-192,133,-200,-4,48,-16
-222,-197,-75,-54,-7,125,-193,-90,17,-161
-310,-222,-13,86,103,72,203,-119,31,-112
-281,-55,0,93,27,-41,91,-133,-70,-158
-255,126,-58,149,-63,-118,-56,-95,-129,-223
-194,298,-28,85,-35,-35,116,74,19,-142
-95,292,44,47,15,22,353,209,73,-98
58,212,53,11,170,31,105,137,52,7
90,43,70,-264,442,194,-103,139,89,80
-25,-185,-76,-579,379,214,-232,130,113,75
-132,-117,-229,-238,-112,-57,-327,-103,-58,-36
-127,-12,-87,389,-331,-250,-189,-286,-293,-195
12,80,107,487,-149,-140,-27,-315,-344,-207
291,282,48,52,2,-30,-126,-197,-119,68
469,392,137,77,68,-129,-186,-6,182,330
325,155,364,342,117,-156,-236,35,250,301
80,-170,182,47,-37,1,223,191,199,184
-84,-337,28,-87,-64,100,407,273,70,-8
-32,-299,6,95,218,19,-128,214,49,-44
54,-268,-92,68,414,-22,-150,178,101,19
-7,-191,-148,-95,201,30,261,-2,-63,-50
-174,-170,-155,-94,-64,93,491,-216,-242,-203
-230,-155,-74,-57,147,188,174,-183,-206,-183
-177,-96,-6,-131,379,223,-24,-5,-77,-69
-45,87,0,-189,212,91,-82,178,137,41
197,188,-100,-478,-384,-40,-99,244,326,156
242,144,-24,-275,-558,-233,-237,1,185,83
235,195,107,152,-361,-296,-306,-169,-2,5
114,130,-17,236,-118,22,-154,-289,-151,-103
178,80,-75,47,168,247,94,-262,-131,5
326,-87,-91,3,135,169,160,37,57,199
443,-169,-102,8,-114,-75,70,117,89,202
344,-99,26,26,-347,-292,21,55,-32,77
260,59,1,-103,-324,-261,-121,67,-19,72
93,194,-93,-293,-339,-196,-81,54,-41,68
-58,237,45,-76,-79,-167,-28,-107,-149,92
-179,270,180,156,616,177,214,-46,-77,-22
-92,386,16,-140,774,408,468,201,84,-81
-40,138,-164,-544,480,376,330,239,203,25
-205,-341,-24,-266,-112,48,52,91,138,16
-378,-643,248,789,-391,-279,-102,-88,-7,-141
-341,-671,17,564,-307,-160,62,0,-3,-155
-45,-347,-15,137,-121,-100,4,131,113,16
131,-33,65,146,47,-99,-229,67,88,86
82,86,103,302,200,-107,-410,-6,44,46
-106,78,88,278,171,-59,-456,-282,-177,-140
-262,93,-59,29,-77,100,-126,-427,-382,-326
-171,131,-159,-348,-400,94,-113,-269,-269,-206
101,69,-195,-523,-369,37,54,52,-69,11
268,87,-86,-374,-251,-10,70,159,42,43
219,106,155,171,-14,-88,-49,-96,-116,-118
193,200,332,595,239,-186,-337,-317,-177,-111
149,155,366,448,475,-67,-110,-284,-183,-70
47,98,379,232,280,-126,60,-78,-201,-119
12,229,290,-41,-153,-174,24,-22,-135,-146
27,373,17,-333,-367,-29,251,160,77,6
87,249,-259,-250,-397,-92,73,229,213,128
79,-161,-502,-130,-47,43,90,203,265,185
-11,-220,-417,-86,240,283,187,143,146,138
-60,-247,-240,-126,210,373,305,160,163,149
-119,-537,-109,-43,52,252,230,206,148,129
-57,-456,31,182,-148,-79,23,240,120,101
117,-176,28,219,-104,-189,-245,101,42,111
214,69,15,25,-58,-178,-370,-26,-20,97
345,66,-51,-90,-94,-152,-192,32,90,312
328,-158,-230,-146,-14,-108,273,206,193,396
89,-186,-162,-57,136,-15,290,124,11,82
-153,-134,-26,103,141,101,103,-195,-246,-210
-301,60,-6,148,-96,135,68,-341,-405,-380
-155,223,11,-46,-111,223,201,-73,-213,-201
29,135,31,-117,-16,105,-50,175,94,103
82,-14,-51,-262,42,10,-400,157,242,267
0,-151,-96,-296,-55,-90,-167,219,322,236
-206,-202,131,271,218,1,203,50,73,-23
-300,-63,253,555,667,180,235,-173,-111,-178
-260,75,-4,-161,583,225,296,-38,-20,-155
-290,104,-56,-25,379,39,-93,-31,-8,-101
-367,-23,-74,288,27,-102,-116,-50,-105,-135
-315,-26,42,20,-243,-172,101,-20,-147,-213
-223,46,124,77,110,-149,85,-38,-143,-246
-138,97,114,360,174,-177,-158,-47,-129,-177
17,150,42,14,-117,-129,-162,-37,-36,-34
194,201,-40,-383,-411,44,-8,-41,80,98
146,112,22,-116,-283,91,42,-168,-52,-36
137,-34,84,-104,-79,69,62,-94,-92,-70
309,-57,73,-322,-204,-36,-85,-2,58,111
532,176,48,-351,-296,-154,-121,149,228,260
658,559,98,-137,-111,-232,-559,167,238,297
371,659,246,185,147,-217,-1015,-19,36,112
-67,186,63,30,9,-106,-635,-187,-111,-38
-132,-300,-49,-108,-135,-47,11,-323,-114,33
-94,-508,-67,-122,-317,-71,425,-129,-128,126
-446,-524,45,397,-45,161,433,38,-65,-146
-615,-495,-81,365,201,360,258,94,30,-222
-449,-361,-99,101,293,360,117,21,43,-68
-327,-253,-97,42,402,326,156,12,1,18
-274,-124,-191,-99,101,179,495,204,28,21
-307,-35,-112,-71,-161,10,242,150,-77,-104
-195,127,-56,-44,-153,-100,2,49,-136,-133
114,215,-103,-108,-13,-109,40,123,-61,38
240,106,-42,-96,0,-21,-108,0,-23,134
194,-54,25,-165,32,60,-260,-95,-30,152
181,54,90,-229,107,-9,-86,20,-1,154
283,344,101,-120,79,-20,296,186,71,169
301,278,37,289,-310,-157,372,182,25,130
233,194,-1,297,-331,-205,74,-29,-144,-97
127,94,-10,246,-57,2,-21,-66,-123,-288
32,-124,-18,154,76,79,-22,-62,-44,-195
7,-93,55,29,17,2,28,-8,57,-28
152,65,245,3,215,-22,-55,-9,57,105
357,22,138,-72,279,24,-197,-55,36,203
352,-89,-140,-210,-11,57,-127,17,54,153
108,-69,-170,-105,-258,-61,-129,-77,-67,-32
-46,126,128,207,-327,-280,-263,-140,-92,-62
-194,247,163,192,-97,-123,-236,-44,8,-32
-398,239,25,111,154,88,-196,127,126,-91
-308,215,20,143,301,84,-250,259,308,-17
-109,-57,-59,47,172,103,175,154,166,-61
-105,-336,-82,52,-90,187,635,-61,-79,-152
-13,-322,-298,-288,-383,138,342,0,11,31
6,-196,-216,-251,-187,48,-35,55,16,53
-82,-200,-19,-58,-81,-142,-175,127,-6,5
34,-47,-21,-145,-62,-226,-39,137,14,20
326,148,15,-147,5,-178,-11,13,57,105
403,-37,-84,-8,-70,-134,30,-121,34,239
222,-188,-153,231,125,-82,56,-126,-47,125
98,-127,-101,182,375,3,-57,-81,-149,-77
140,-2,52,211,319,-73,-325,-61,-118,-56
241,161,117,119,163,-154,-378,-11,26,152
184,183,109,-82,-58,67,108,44,179,320
-191,-33,-4,-121,-294,119,580,70,147,169
-546,-253,-113,-289,-16,270,526,91,4,-84
-425,-125,-106,-585,222,268,177,13,-16,-135
-231,61,-30,-503,203,121,-59,-39,-12,-179
-377,55,223,616,301,10,-139,-130,-140,-421
-331,-39,262,987,525,95,-41,-85,-141,-383
-37,-165,-111,-29,249,253,299,223,152,-31
93,-88,-199,-564,-143,134,394,323,299,78
51,4,-30,-42,-213,-90,68,60,39,-68
-23,-30,131,544,-139,-73,-94,-79,-116,-133
0,-98,-7,261,-268,-59,-160,-56,-69,-43
133,71,-59,-18,-130,-115,-327,-109,-40,78
119,247,15,127,408,16,-319,-158,-63,65
57,247,-20,17,840,227,91,-58,-38,17
86,202,-34,-354,451,142,115,-48,-38,18
162,127,-88,-457,-285,-118,-261,-138,-43,46
257,46,-89,-223,-896,-329,-240,-96,-7,78
360,68,86,50,-734,-354,13,45,93,161
339,-86,4,99,-411,-185,197,137,186,271
104,-159,-171,-144,-108,-37,155,157,172,133
-174,-22,-76,-149,25,86,-38,52,55,-120
-356,122,58,57,-22,80,-170,-87,-50,-198
-407,524,248,320,70,66,-222,-143,-103,-218
-323,765,118,78,16,71,14,-14,-153,-264
-123,507,-93,-272,-54,63,-23,86,-22,-124
-50,-43,-118,-228,27,64,-254,-17,133,19
-21,-680,-189,128,189,182,-119,-20,245,141
-130,-974,-115,226,292,359,-55,-15,142,64
-99,-439,124,287,348,169,-180,12,106,49
34,5,-63,107,633,307,88,1,91,122
23,-64,-337,-322,401,435,346,42,43,111
82,-76,-273,-354,-152,121,-38,39,73,88
14,-42,75,-16,-344,-295,-144,-4,4,-66
-197,-110,297,146,-479,-448,510,202,-59,-166
-261,-126,198,478,-149,-245,408,106,-108,-151
-276,-67,93,675,81,-210,121,-51,-273,-244
-101,30,-28,64,-22,-252,44,39,-159,-159
247,245,-25,-260,-184,-267,-141,123,39,96
323,204,-111,-225,-180,-138,-328,196,159,199
115,91,-15,-112,-306,-93,-487,259,119,53
86,48,23,-78,-222,-129,-514,189,55,50
138,10,-41,-94,-27,-12,-245,-60,-5,99
136,129,75,64,112,131,168,-308,-139,36
94,80,112,127,-2,150,568,-165,-145,3
66,6,-54,12,-19,159,595,30,-46,-16
126,53,-164,-135,248,136,199,80,78,40
143,157,-96,-148,342,119,56,-28,19,18
83,100,-142,-142,175,172,-29,-148,-102,-79
80,-17,-189,-51,-152,14,-202,-139,-93,-42
144,101,57,250,-238,-303,-350,-111,-99,5
126,216,217,346,-58,-260,-263,-79,-144,-58
97,265,71,-53,-124,-99,-13,-128,-219,-117
176,217,56,-257,-114,-25,90,-106,-106,72
204,-18,78,-157,240,-40,-265,-64,68,257
44,-293,138,-97,311,-87,-331,0,117,224
-161,-548,-22,250,-86,-221,-183,-56,69,176
-367,-455,-263,-82,7,189,294,-168,-118,-100
-116,-35,-233,-625,-20,534,519,89,88,18
108,-25,-154,-613,-175,144,210,211,294,189
29,-111,-165,-515,452,-61,76,85,103,7
-51,-21,10,-29,524,-57,-12,-82,-162,-130
-109,313,406,1113,-21,-395,-356,-233,-358,-150
-31,427,419,1086,130,-187,-61,-32,-121,-97
25,45,19,53,307,334,331,262,175,32
-22,-113,-118,-113,-35,207,250,249,194,84
0,-189,-155,-106,-154,88,130,133,101,109
238,75,-194,-577,-87,137,-12,79,63,94
433,454,-90,-566,-185,-60,-181,85,95,44
95,336,333,496,54,-144,-350,-175,-154,-152
-198,-134,344,744,-19,45,-36,-184,-172,-164
-143,-237,20,-52,-438,-19,60,43,60,45
-18,-149,3,-194,-337,-219,-385,94,137,140
3,-173,-18,-193,-154,-81,-295,16,114,132
-52,-19,3,-17,-133,7,-5,-186,-24,10
-145,202,248,444,8,-105,65,-267,-183,-116
-203,212,309,429,319,-24,214,-44,-155,-125
-78,174,-8,13,627,213,364,113,24,9
14,-55,-279,-358,360,205,265,100,125,114
-115,-308,-250,-250,-273,-37,151,86,130,50
-127,-69,201,249,-252,-17,-12,-15,46,-67
177,137,228,280,-225,99,-90,-102,-62,-74
409,167,-4,-215,-490,-44,-149,-107,-85,43
314,19,-32,-116,-511,-248,-186,-88,-77,74
209,-227,-91,-12,-263,-194,-107,39,30,119
47,-402,-205,-108,-125,-72,13,85,32,65
-165,-341,-195,-190,-10,47,187,38,-75,-110
-281,-247,-148,-140,151,167,156,-53,-147,-187
-428,-232,-162,-24,97,179,-37,-122,-161,-173
-504,167,-38,163,96,166,12,-184,-170,-194
-392,592,143,355,12,-24,168,-110,-95,-155
-126,637,218,226,-112,-214,91,129,94,-35
104,161,16,-22,-6,-61,-286,84,139,48
158,-309,-192,-237,112,118,-256,104,215,125
169,-360,-135,-335,43,138,121,309,293,220
60,-92,61,-124,297,83,187,168,180,46
-59,158,88,68,379,137,219,69,7,-167
-93,81,-99,-181,-58,190,206,213,90,-39
-61,33,-16,-106,-429,-125,-168,78,179,203
-14,3,83,124,-290,-176,-220,-172,51,184
86,-154,-178,-240,80,165,-110,-260,-106,86
167,-165,-410,-663,122,258,285,45,72,116
34,-116,-299,-494,75,285,403,167,152,68
-213,-75,59,212,43,120,162,21,-33,-109
-249,-1,181,614,450,-51,-102,-70,-143,-205
-109,-20,-27,297,365,10,238,-7,-100,-106
16,-34,-160,-8,11,78,378,61,-23,45
56,93,100,279,-67,-199,-108,-56,-48,4
202,241,452,466,225,-342,-422,-177,-132,-41
427,324,326,-115,208,-174,-266,-95,-32,123
319,109,63,77,-125,-159,-50,-158,-51,74
189,172,-123,279,-417,-300,-111,-272,-123,-31
200,381,-65,12,-250,-240,-27,-226,-135,-61
26,135,38,158,-34,-174,85,-180,-180,-149
-213,-202,71,109,76,-59,98,-91,-72,-113
-206,-317,78,-89,29,30,61,-12,95,59
-150,-500,62,-246,-210,158,90,99,173,201
-247,-439,-22,-308,-424,109,43,127,135,93
-273,-45,-42,-258,-272,29,-62,88,49,-71
-187,204,69,96,134,5,-308,-45,-95,-124
-42,171,214,523,698,-1,-370,-143,-130,-51
42,-32,79,248,531,19,39,35,27,-11
-29,-62,-29,-218,125,52,324,71,-9,-86
29,141,-20,-453,-144,108,235,78,38,-10
73,215,-30,-247,-360,-39,53,71,-11,-6
139,205,93,273,-125,-219,-201,7,-60,-47
226,120,99,351,42,-194,-264,-101,-41,5
228,-103,-18,-85,-31,103,83,-58,35,113
118,-173,-159,-399,-192,271,266,71,101,142
16,-126,-77,-203,-18,188,20,20,5,9
-3,-85,-14,-189,-80,100,-47,110,96,45
-11,-39,-5,-123,-178,-68,-150,152,246,123
-65,-39,20,134,26,-77,-147,49,192,108
-10,35,109,331,75,-15,-171,-57,56,66
12,133,212,360,4,-1,-90,-127,-136,-59
-4,91,89,55,20,38,95,14,-116,-95
-27,57,-12,-186,167,35,147,190,23,-15
36,132,-49,-336,472,122,63,159,22,48
118,32,-221,-435,352,198,209,106,4,104
123,-148,-272,-349,-191,22,154,35,-11,143
-117,-276,102,354,-363,-220,-162,-136,-179,-60
-126,-273,71,451,-125,-93,-232,-87,-73,-59
4,-153,-112,140,-176,-77,-239,-2,143,19
188,76,21,94,-136,-162,-348,-120,144,34
246,-27,4,7,-95,-93,-38,-123,50,26
110,-122,-47,-115,-15,-11,236,-15,-17,-30
0,-58,-60,-222,230,73,86,-26,-43,-30
-95,-101,-86,-235,247,66,-5,45,8,-7
-167,-63,-49,87,4,19,67,106,-82,-66
-200,69,4,273,-330,-52,136,-81,-277,-216
-129,137,24,98,-158,6,105,-190,-253,-189
-135,49,-19,15,4,63,65,-2,-59,-82
-100,87,-19,-1,19,41,-64,19,-13,-34
-69,37,39,29,281,142,-172,-176,-69,-50
-39,-49,-11,-131,198,280,226,-49,39,31
-47,-31,-92,-230,-3,200,314,168,110,34
-79,115,-27,-27,-82,-69,98,157,5,-79
1,367,202,295,113,-189,-254,44,-58,-68
118,364,229,257,551,-68,-276,37,-12,3
160,383,79,-37,525,92,-159,-15,-44,-49
204,279,-68,-152,-7,0,-238,-198,-88,-17
169,-5,-106,53,-385,-258,-68,-267,-148,-62
351,49,18,60,-247,-230,309,-68,-104,-27
512,82,-21,-77,-143,-193,234,96,31,118
415,-20,-116,-124,-80,-231,-34,-19,-1,94
211,-88,-22,91,-248,-288,-238,-170,-180,-39
11,-96,47,92,-255,-121,-224,-143,-146,-7
-177,-250,-32,98,28,108,-58,64,46,146
-386,-452,0,207,262,253,171,320,223,187
-386,-418,-28,67,72,219,254,338,313,206
-270,-397,-112,-171,-308,103,365,239,335,209
-205,-225,-67,-136,-179,82,247,87,176,121
-353,-106,26,71,97,64,53,-27,-15,-115
-397,-41,74,30,67,94,27,28,9,-174
-324,-47,34,-22,24,68,-49,67,85,-97
-199,-55,-79,-61,89,26,-137,38,82,-49
-51,46,-55,-396,101,116,-169,-23,117,-26
-1,53,-71,-656,132,160,-181,-31,53,-46
-1,93,-1,-55,102,-55,-421,-68,48,0
-107,29,39,811,-44,-263,-459,-206,-66,-59
-105,-19,-87,226,-153,-80,349,-70,-59,-58
20,106,126,7,-118,-2,472,-69,-65,-38
142,140,129,54,347,131,179,-73,-20,75
161,45,-20,-62,332,194,261,149,119,150
110,9,-34,-123,-15,129,173,219,137,58
62,-33,11,-53,-381,-106,2,62,-9,-84
62,-34,151,155,-395,-281,-35,-10,-66,-89
76,-29,120,188,-93,-128,-15,-26,-43,-11
84,-26,97,285,255,19,-73,-17,-18,11
164,-21,88,249,304,13,-193,0,-4,48
219,-22,11,55,6,-77,-336,-6,2,60
84,-96,-45,-220,-278,-126,-238,46,13,17
-8,-14,-73,-197,-69,-46,-169,-94,-79,-51
-36,140,-150,-40,194,24,-74,-235,-179,-99
-18,129,-146,-263,391,52,-40,-210,-150,-43
4,71,-109,-538,192,-116,139,23,-18,-3
-14,28,-34,-392,-64,-176,262,203,102,-44
-166,-47,37,475,-13,80,190,3,-30,-152
-221,-160,-103,247,39,261,45,-46,0,-60
24,-2,5,-73,-141,67,-237,-79,99,142
183,155,142,-20,-224,-106,38,3,67,105
128,143,76,22,-130,-42,335,221,55,-29
37,67,200,160,-245,-64,79,74,-38,-88
87,-136,-22,-32,-159,-54,20,-108,-135,8
231,-283,-100,-105,-181,-35,1,-91,-112,35
427,-44,12,-87,-249,-59,-8,-1,-33,21
510,446,150,-62,-261,-131,-131,-61,-48,21
410,519,241,12,-166,-173,-250,-121,-27,84
187,181,264,166,139,-92,-336,-77,15,60
58,-109,43,2,241,56,-304,64,154,81
97,-181,-140,-336,107,22,-211,163,337,220
-12,-253,-269,-460,86,160,136,275,430,243
-216,-125,-209,-89,98,241,305,202,175,58
-435,51,6,432,71,7,-142,-116,-73,-185
-669,-60,-3,311,387,186,-62,-310,-177,-325
-499,-143,-128,-202,724,459,256,9,89,-70
-214,-103,-258,-615,244,396,283,408,376,69
-102,-195,-134,18,-159,202,-56,233,198,-61
63,-184,104,528,-558,-298,-458,-128,2,-3
236,111,157,275,-510,-397,-217,-214,-72,161
-8,-46,-64,-4,-248,-40,401,-83,-119,108
-238,-103,-59,-9,-97,49,422,77,-36,-42
-125,-1,6,96,60,0,-9,49,-22,-125
-30,-14,-12,33,26,16,107,-43,-131,-209
5,-9,-42,24,21,-12,21,-17,-157,-100
-64,-40,-5,239,355,2,-155,-129,-172,-127
-127,2,-13,244,595,-26,146,-29,-101,-200
-61,254,0,-37,372,-85,127,108,55,-97
11,604,212,-58,64,-145,-228,-27,40,-11
-38,419,290,-29,-246,59,-50,15,57,35
-235,-25,143,-108,-223,235,364,162,79,-12
-317,-279,25,21,380,375,389,237,65,-67
-288,-310,-113,41,496,422,293,216,110,-96
-230,-148,-237,-192,39,315,229,170,154,-88
-191,-95,-141,-138,-515,-69,0,-9,70,-25
-107,-96,113,16,-385,-232,-98,-97,-16,21
-94,-147,112,-310,9,29,-35,-29,-71,-29
13,61,-43,-394,33,49,-83,6,-21,6
126,276,-82,333,-188,-216,-187,16,26,78
183,590,183,385,-351,-368,-191,118,26,77
158,717,345,77,-293,-287,-243,195,70,35
20,328,223,35,-175,-196,-426,21,28,-97
-22,-200,96,98,10,-62,-457,-124,26,-102
94,-272,23,248,417,90,-198,-121,60,5
242,-428,-88,179,494,119,347,50,141,295
243,-538,-178,90,136,30,338,6,132,359
10,-382,-202,-26,-260,-51,-40,-199,-153,-32
-203,-284,-150,-149,-207,54,-69,-164,-217,-230
-111,-61,-21,-37,42,91,9,-64,-93,-136
208,160,-24,-25,432,175,160,2,-15,0
457,210,-144,-119,287,194,94,-56,-4,105
406,20,-481,-349,189,258,0,-154,-58,83
296,131,-569,-400,413,200,38,-159,-117,-2
377,450,-297,-446,272,91,-162,-94,10,97
435,368,-24,-479,-174,154,-172,-37,119,157
545,341,301,212,-310,-253,-434,-94,-9,24
402,216,679,1284,460,-557,-611,-283,-236,-150
56,-271,136,485,648,-291,129,-128,-196,-128
-12,-422,-304,116,-256,-391,319,-17,-47,143
19,-256,-95,-23,-557,-359,-126,-64,-41,206
7,-52,348,-42,-336,162,61,287,171,178
-124,-71,289,27,-533,125,281,457,189,94
-240,-169,109,-67,-412,-24,354,251,50,29
-353,-308,42,-135,-342,-18,540,24,-84,-36
-403,-301,-18,-95,-210,55,428,13,-54,-3
-483,-218,-74,-90,-182,58,272,88,-52,-59
-501,-222,-108,-144,-201,23,89,20,-222,-201
-359,-111,-108,-295,-113,41,-47,-109,-322,-256
-147,154,32,-303,-31,15,-162,-211,-297,-253
-114,77,124,-32,30,-18,-60,-195,-307,-251
-140,58,182,454,-64,-87,97,-65,-108,-175
-23,240,193,207,-240,-71,57,-8,-2,-97
159,351,106,4,-62,3,-29,75,152,117
360,418,-8,95,284,13,-38,106,208,364
506,284,-29,88,265,30,0,53,33,350
498,194,1,-29,139,78,-55,-56,-93,141
493,262,14,-347,-32,115,-104,-56,-51,120
437,151,-4,-382,4,147,-162,-46,9,134
112,-53,-31,-213,-34,83,-91,31,111,40
-119,-73,46,-3,-205,-13,-266,-87,77,-27
-277,-18,58,96,110,162,-409,-248,20,-34
-295,69,-66,-262,245,316,-218,-100,161,56
-218,-9,-162,-180,-15,84,64,163,299,157
-358,-186,-82,627,-40,-265,44,165,45,-3
-355,-187,-13,382,-14,-222,48,50,-70,53
-245,-36,-109,-206,-227,0,83,70,75,113
-257,121,-207,-409,-184,131,243,118,139,-12
-215,126,-85,-156,147,177,140,97,109,-56
-172,57,118,148,343,207,120,65,30,-126
-62,-26,157,13,117,21,-81,118,79,-78
99,-107,-54,-430,-38,-97,-202,55,78,98
164,4,-75,-420,-130,-122,14,-130,-194,93
56,253,238,401,-178,-172,-43,-273,-339,-109
-68,201,310,780,65,-123,-359,-306,-230,-198
-26,84,-10,150,-44,-14,19,4,27,15
49,-1,-90,-43,-153,-43,232,272,188,197
98,-51,71,16,107,-8,-88,217,165,122
166,-183,52,-2,273,97,-172,92,127,84
145,-66,-90,-91,337,228,91,48,96,32
47,161,-158,-113,321,291,140,5,12,-94
6,298,-188,-110,278,334,58,-146,-103,-195
35,200,-138,-181,-32,144,185,-152,-30,-97
-26,-109,79,-19,34,5,224,-15,55,-16
-324,-366,190,341,440,10,105,12,-13,-183
-496,-388,216,726,687,66,-242,-35,-83,-248
-428,-121,158,350,99,-138,-637,-97,-64,-159
-207,334,219,-44,-444,-397,-598,-105,-60,-72
-14,672,309,-54,-450,-214,-47,-82,-89,0
133,589,293,99,-105,-95,492,137,112,114
236,229,65,80,277,-85,498,361,229,214
176,17,-157,-175,101,-185,267,449,118,162
96,49,-117,-324,144,-108,-139,306,9,83
158,52,-107,-343,17,43,-71,89,-73,55
159,31,-115,-118,-345,22,-104,-238,-224,-20
56,-91,-133,216,-562,-47,119,-301,-293,-11
-28,-336,-23,284,-574,-206,269,-128,-219,48
-109,-483,24,275,-9,-121,125,-21,-54,-66
-77,-219,-190,104,303,-87,16,15,69,-155
63,146,-195,-120,48,-194,-76,-6,80,-128
232,359,41,-175,-2,-107,-111,-96,34,-58
349,347,100,-183,-253,111,-70,-95,27,17
292,315,112,-92,-487,-45,-91,-55,30,69
105,172,62,-141,-237,-90,20,60,138,71
-25,-88,48,-267,-59,2,53,144,190,31
-144,-71,29,-266,41,94,171,83,25,-106
-204,-158,1,89,17,88,189,23,-67,-82
-118,-425,-31,347,-157,-16,78,94,79,123
-14,-524,-73,62,-53,81,29,151,217,208
-11,-350,-75,-25,65,138,-66,65,167,84
69,-223,-118,-5,88,99,-197,-29,104,85
218,-110,-80,145,558,122,-251,-145,64,195
123,-106,0,37,946,291,-118,-205,-106,50
-52,-98,-120,-389,421,329,-29,-86,-158,-99
-242,-166,-257,-414,-364,102,-352,-176,-168,-197
-146,-32,-29,144,-318,-83,-223,-178,-62,-132
141,256,237,387,-66,-3,206,43,121,48
191,328,69,-185,-81,28,447,396,267,111
121,253,52,-604,-258,-80,162,337,182,41
20,120,168,-336,-338,-182,27,-57,-31,-57
-176,-139,174,667,-88,-192,142,-275,-276,-225
-137,-368,36,603,147,-6,74,-123,-150,-82
-43,-270,68,-6,-2,72,6,-6,-2,63
4,48,193,-11,62,-9,-299,-130,-70,-9
146,293,61,-236,-58,-50,-414,-18,85,116
148,264,-100,-299,-100,8,-598,-2,199,242
-107,9,-224,-274,136,49,-515,-44,42,75
-117,-53,-147,-36,307,-68,-218,99,76,43
-50,-120,71,476,303,-243,10,6,66,60
-155,-225,108,848,181,-268,382,-59,-130,-143
-68,-123,-25,223,-302,-154,497,147,-75,-107
-87,-46,-117,-168,-415,-159,392,180,-105,-170
-32,77,-163,-179,-181,-26,296,93,-61,-157
111,181,-112,-154,-215,49,196,-107,-81,-17
185,187,-40,-71,-176,6,28,-189,-82,34
192,18,34,-41,40,59,-21,-158,-132,5
287,-76,-48,-129,166,109,-5,-130,-150,26
367,184,-140,-245,-39,36,-97,-103,-194,29
227,464,-157,-225,-279,-61,-303,-103,-240,5
78,560,42,154,-136,-234,-548,-151,-196,-20
246,397,281,356,144,-252,-617,-13,-16,8
504,1,150,75,187,7,-55,288,251,171
504,-257,73,-121,-49,40,236,265,273,273
133,-569,16,-8,-176,75,338,67,135,118
-210,-446,36,24,-240,70,192,-89,-43,-165
-398,18,-86,-313,126,208,76,-138,-143,-360
-259,284,-353,-851,568,475,184,-105,-20,-127
119,480,-367,-897,325,352,-163,-150,130,268
-12,262,71,9,-45,15,-285,-170,1,240
-468,-132,409,1003,-244,-374,313,35,-71,-14
-378,172,292,454,-239,-349,462,312,87,95
-294,584,-24,-184,-248,-111,155,135,-77,-26
-132,510,-118,-234,-422,-250,-180,-15,-162,-79
86,157,64,73,-307,-400,-357,-65,-123,42
162,-102,79,222,21,-201,-368,-87,-103,141
-21,-468,-64,135,18,25,-73,1,39,219
-311,-549,-14,81,-4,181,471,73,116,46
-356,-221,172,79,-57,115,395,11,16,-195
-189,33,297,136,66,70,48,-55,-34,-247
-45,-140,88,162,491,208,4,106,45,-96
180,-316,-210,7,645,219,61,256,168,142
144,-316,-188,346,484,-8,-212,86,222,89
-175,-175,160,733,795,-85,-336,-120,-15,-229
-124,-4,106,214,694,138,-29,52,168,-36
-115,-43,103,190,105,-83,-21,-144,102,115
-235,-115,9,-154,-416,7,261,-79,14,-17
-186,-81,-110,-635,-687,336,523,204,134,-82
-136,-80,-188,-493,-491,199,327,146,99,-91
-65,-57,-133,-324,-73,109,56,70,72,-49
45,-39,-62,-94,66,115,-97,36,57,-20
67,-59,17,370,-10,48,-219,-86,-59,-40
145,33,70,188,-77,4,-231,-131,-16,9
225,166,118,-191,-17,26,-23,-27,96,109
123,107,96,-184,84,-26,-20,52,89,119
-87,-52,50,392,297,-35,-476,-168,-129,-78
-130,-51,70,593,315,7,-620,-325,-305,-216
64,111,85,-98,236,151,64,-123,-116,-77
172,110,4,-356,-165,188,658,160,60,46
92,-18,-54,-176,-372,82,491,134,25,-42
-52,-6,-8,34,-321,-122,23,-38,-19,-127
91,331,122,-42,-189,-266,-245,-15,88,13
335,592,177,-233,489,-2,-221,17,164,164
342,451,-11,-519,540,298,391,23,28,108
343,118,-147,-508,-374,71,455,21,-87,84
262,-390,-296,-203,-671,-122,105,-10,-77,30
75,-601,-106,344,-180,-138,55,17,-34,-78
10,-287,79,508,28,-156,-13,4,-14,-67
90,80,32,180,-126,-161,-78,-35,-20,52
52,116,-28,-2,-136,-115,-159,-102,-179,35
-141,-6,-8,58,-22,-74,-306,-181,-298,-128
-293,-100,27,48,1,-65,-457,-193,-273,-166
-326,-170,-7,-53,-4,-65,-426,-46,-137,-73
-303,-116,-157,-181,245,107,-40,94,-28,-24
-118,30,-298,-318,585,353,401,256,135,69
3,125,-194,-224,546,444,383,217,79,78
-47,33,-43,-208,321,472,232,84,-18,-19
94,35,117,-11,-102,196,21,0,-96,-5
82,-47,342,523,-248,-193,-131,-65,-227,-22
2,-218,70,221,-203,-149,-108,47,-200,-20
160,-103,-37,-30,-353,-170,-331,33,-100,67
489,204,25,-128,-210,-186,-423,-124,-14,129
597,306,131,-139,-234,-351,-193,-52,155,173
137,94,179,6,-117,-299,24,98,199,45
-360,-52,58,71,-127,-83,112,-47,64,-85
-573,-209,-8,418,-112,-111,-102,-237,-15,-96
-538,-112,-82,147,-145,-103,263,-1,-12,-155
-327,47,-66,-129,-242,-123,359,207,74,-89
-160,85,-81,-267,-235,-90,105,143,99,-56
-38,-54,-149,-328,-144,88,115,37,74,-106
106,-221,-147,-157,73,197,198,54,63,-77
123,-176,68,371,198,131,-18,19,16,-13
-51,-99,97,374,130,-7,-96,104,60,5
-262,-112,-31,36,-30,-71,-29,91,-38,6
-338,-148,-130,-117,-164,-56,77,24,-132,-24
-305,-155,-148,-97,-24,66,288,35,-88,-91
-254,-43,-68,7,510,231,213,55,5,-161
-79,73,38,42,504,210,-91,55,120,-88
31,148,42,-71,15,97,-87,36,181,-9
1,174,84,54,-283,-152,-205,-54,40,-25
35,145,204,322,-65,-312,-350,-202,-165,-60
166,42,8,55,-31,-157,-141,-115,-43,14
273,-6,-136,-226,-165,-48,124,-18,-25,8
301,63,-173,-286,-77,-82,252,46,-65,-15
492,253,-211,-211,70,-88,-24,-98,-76,141
750,305,-279,-364,51,-77,-93,-89,41,400
745,256,-156,-477,-41,-125,-19,0,117,387
487,143,142,128,38,-244,-191,-160,-83,65
409,96,378,960,459,-232,-370,-252,-208,-97
384,-115,174,410,646,44,-318,-44,-43,5
163,-508,-77,-214,394,153,-185,76,130,10
-62,-370,-152,-302,-253,-14,17,11,155,76
-152,184,35,-28,-617,-14,209,-25,162,209
-613,3,126,188,-180,168,235,22,48,-81
-869,-60,-31,-126,67,203,217,-89,-67,-320
-572,-70,-143,-447,-10,106,224,-38,18,-219
-376,-332,-58,24,63,-5,349,199,91,-188
-542,-247,-22,625,79,-158,277,202,-77,-337
-476,140,-71,208,-81,-192,-6,29,-193,-236
-161,322,-154,-135,-172,-143,-118,-45,-192,7
153,353,-191,-307,-78,-125,-98,182,22,189
111,134,-84,-292,205,42,13,237,27,84
-187,-158,-35,-147,73,122,219,129,-121,-179
-235,-48,156,120,18,-2,159,-40,-63,-157
-46,73,209,102,41,-61,5,-168,-17,27
118,-37,183,123,-2,-161,-222,-172,-27,30
175,-257,153,253,-111,-104,-270,-126,-37,-47
70,-481,73,123,-131,181,23,15,107,47
78,-281,121,39,-52,236,23,-79,143,162
182,39,166,-68,164,189,-118,-144,134,200
223,222,118,-114,108,162,26,-28,104,141
205,363,140,-77,-148,101,7,-17,-39,-37
192,251,68,-10,-405,-79,23,21,-124,-76
232,86,16,92,-259,-117,-66,70,-38,83
165,-53,31,96,-39,71,-261,27,49,202
-17,-198,24,87,47,197,-228,71,135,237
-192,-213,18,17,46,249,3,95,115,162
-320,-233,-90,-115,-71,276,639,147,-21,-38
-404,-220,-231,-134,-160,153,742,176,-80,-180
-333,-89,-67,146,69,33,125,-12,-89,-217
-108,-28,15,160,150,-34,-98,-61,-48,-155
139,-4,-4,17,31,-135,-65,12,6,-44
263,36,-7,-63,7,-72,-103,97,83,15
210,13,-30,-69,70,55,-126,96,157,30
192,-21,-107,-100,178,92,-115,41,159,104
334,53,-123,-109,217,78,-184,-45,156,241
479,403,44,-76,109,-16,-386,-24,80,262
354,545,207,-104,-101,-120,-292,-32,-76,37
175,382,171,-251,-138,-228,-234,26,-7,10
230,315,170,-331,-96,-153,-129,-21,78,175
174,27,215,-20,31,-1,-27,-190,-40,145
-65,-489,24,422,221,93,49,-138,-44,-17
-104,-552,-219,283,139,149,53,-27,-16,-72
75,-417,-388,-21,-172,25,55,24,103,138
42,-168,-200,362,-109,-270,69,-32,-35,-9
-161,-32,-71,493,299,-167,91,-30,-174,-287
-220,-7,-46,151,136,-76,94,33,-29,-111
-158,17,-12,-128,-25,17,75,70,109,60
-208,-9,-87,-283,-241,124,11,69,141,29
-189,-24,-72,-314,-282,58,-144,-20,43,51
-119,-6,13,-164,-23,37,-133,-106,10,61
-72,91,154,152,42,2,28,-35,38,29
-115,100,208,357,44,15,138,73,55,-28
-154,-99,-47,-114,-11,84,195,206,117,5
-33,-60,-134,-310,-21,90,-39,290,227,99
28,124,-31,-124,119,67,-158,275,224,52
-34,225,129,417,241,-47,-324,-17,51,-101
-95,153,104,295,54,-74,-11,-278,-183,-239
17,46,76,-145,-314,-121,178,-303,-241,-179
197,-8,28,-161,-265,-123,-189,-168,-30,59
243,20,-26,-100,-229,-146,-206,-50,78,144
147,18,-58,-128,-118,23,34,-128,-76,-29
153,-47,-25,-146,-4,167,157,-140,-140,-84
276,-16,114,-16,215,161,59,-32,-41,32
274,2,139,142,588,175,-122,-39,-53,106
261,354,100,-54,413,139,20,14,-95,110
304,521,-2,-430,36,190,168,-2,-164,35
207,277,-27,-523,-415,-130,155,-50,-149,-30
43,216,90,11,-470,-477,18,30,-54,20
-257,93,262,1034,212,-440,-143,-58,-109,-125
-297,-46,146,761,565,-218,-99,-16,-137,-150
-206,-93,-32,-197,318,-37,53,107,0,-59
