-6,-1,-4,-1,1,3,4,-2
-2,-1,3,1,-4,1,2,-1
4,-1,-2,-5,-5,-5,-4,-1
-1,1,-1,-1,-3,-3,-2,-2
0,0,-1,-1,-1,0,-1,-1
-1,1,2,0,4,3,-2,1
-6,-8,-5,0,0,2,1,-3
-1,2,4,-2,-6,-4,-4,-1
1,-3,-5,-4,-4,-1,-1,-1
0,-2,3,1,-1,0,0,-2
-1,2,-1,-4,7,-1,0,-1
1,-1,-15,5,4,1,-4,-2
-1,-2,2,-7,-13,-3,-1,0
-4,-3,-6,-2,2,5,2,0
-1,0,-2,0,-5,-4,-3,-1
-4,-4,-5,-8,-2,-7,-10,-3
-1,-3,2,0,3,-2,1,1
-4,2,-3,1,-1,0,2,-2
-6,-5,-5,-6,-3,2,5,-2
10,5,9,3,-2,-7,-11,4
-2,-5,-3,0,-2,-1,1,0
1,3,3,-5,-3,-2,-2,-5
-1,-2,0,6,1,2,1,1
-8,-6,-2,-2,2,10,18,-1
8,-3,-4,-1,-1,-4,-2,-1
9,-1,-6,0,0,-18,-53,1
-14,1,5,3,3,3,8,-4
4,0,2,-1,-2,-4,0,4
-3,-1,1,2,4,6,20,0
-5,3,1,0,0,3,9,-3
0,-8,-12,-3,-10,-18,-34,-8
6,1,0,-1,-1,-3,2,-2
-9,-2,-2,-2,3,1,1,-5
5,-2,0,-4,-1,4,15,4
0,0,12,6,1,-3,-3,-2
-12,-1,-3,-3,-2,15,20,-5
0,3,-3,-1,-2,-14,-29,-3
-3,-2,1,-6,-7,1,12,5
26,3,-2,1,3,18,26,33
-6,-8,0,-2,-2,0,-15,-23
-36,7,0,7,6,-2,16,-20
-25,-15,-5,-9,-8,-31,-47,-16
35,7,-4,-3,1,7,14,8
18,13,10,7,1,65,94,36
17,0,-1,-1,-6,-44,-64,0
-42,-14,-4,-5,5,52,74,-26
-49,-8,-9,-3,-6,-35,-68,-38
61,18,1,2,4,-35,-52,26
-7,-17,-8,-12,-8,18,21,-8
8,8,1,5,1,10,48,48
3,0,1,0,9,71,103,24
-22,-6,-3,-4,-9,-75,-87,-53
18,9,5,7,4,41,38,6
16,-3,0,1,-2,-75,-86,25
1,-2,0,-2,-1,41,96,5
-7,2,-3,-3,-3,-6,-13,23
4,-5,-13,-5,-4,-27,-21,20
-21,2,2,1,-1,5,-18,-64
20,1,8,2,0,-12,-15,16
-26,-22,-16,-10,-6,-3,-9,9
-5,-3,-3,2,5,59,57,-12
-7,3,6,3,0,-9,-19,-4
-3,11,14,4,1,-36,-60,-27
-68,-8,-3,4,4,-15,-3,-52
28,2,5,-5,-3,41,90,54
-40,-11,-11,0,0,-29,-46,-19
80,8,1,5,7,36,22,41
-33,-15,-1,0,3,-20,-61,-27
50,2,5,-2,1,4,34,18
-76,-13,-10,-1,-3,-1,-32,-39
20,-27,-12,-10,-8,-27,-17,-15
32,-5,7,3,6,86,99,33
-60,-16,-3,-9,-14,-106,-108,-46
48,29,1,4,1,41,115,4
-22,-7,-11,-10,-9,-23,-53,-33
11,14,9,2,-1,18,55,12
-27,-11,-3,-2,-2,-12,-47,-22
48,3,-2,-3,-3,18,22,40
-58,-7,-2,-3,-4,-22,-16,-37
14,3,-2,3,-1,-11,-22,-10
-3,8,1,6,8,23,16,19
21,1,6,8,4,24,7,0
-5,-1,0,-7,-5,16,77,9
1,-6,-14,-14,-12,-2,12,-8
26,18,10,-4,-6,-74,-107,-42
-30,-28,-16,-9,-5,11,62,9
-14,-17,-4,-1,3,-5,-30,4
46,26,10,6,3,4,14,20
-21,27,-2,2,4,44,28,-33
-22,-4,5,-3,-8,-38,-52,-24
-19,0,-8,-2,-3,0,9,-11
-11,-19,4,-3,-3,-75,-58,-15
18,4,0,0,-5,-8,66,11
22,-10,-1,-4,0,-35,-91,-16
-10,-18,-34,-7,-7,-24,-22,1
-36,20,25,2,2,31,25,10
10,-15,-11,5,1,6,-22,-4
42,-3,-2,-7,-5,34,74,37
-13,1,-1,-2,-4,-41,-19,5
-53,0,-12,0,2,40,12,-77
23,16,3,0,-3,-52,-33,18
10,3,7,2,4,56,70,43
8,3,-5,-3,-3,-57,-77,-15
20,2,1,3,1,44,91,63
-58,-2,4,-4,-7,-42,-41,-82
2,2,-9,11,19,78,65,30
-57,1,12,-2,-9,-22,-51,-67
49,-27,-11,0,2,-1,14,5
-10,-33,-21,-11,1,104,99,23
-18,71,38,9,0,-51,-57,-16
-19,-11,0,-2,-1,36,115,4
-12,-5,4,-5,-4,-2,2,17
12,-10,-15,-5,-5,-27,-27,-11
12,-18,-8,-7,-3,-7,14,11
-9,2,3,5,6,29,24,6
9,21,-2,-4,0,-8,-31,-21
3,-11,9,4,1,25,52,21
13,-1,-5,0,-3,-37,-51,5
18,39,12,4,-1,-16,-46,-9
-21,-37,-8,0,-1,26,36,-28
-11,10,-7,-8,-10,-49,-74,26
-10,-27,-22,-8,-12,-56,-87,-44
80,0,15,6,7,34,41,62
-23,2,-9,-9,-4,-16,-6,-21
64,7,9,5,7,22,24,42
-8,-3,0,5,4,44,75,35
-8,-6,0,3,2,-24,-56,-16
25,-9,-3,-2,-7,-52,-91,30
-66,-17,-8,-1,0,7,-5,-32
15,-3,-5,-4,0,3,5,3
0,-17,-1,-4,-1,52,80,-20
21,1,-7,-1,-3,-35,-45,-13
-31,-4,4,4,3,5,8,44
15,14,-1,-2,0,21,29,-9
1,1,-1,-3,-6,9,24,17
7,9,5,0,0,19,31,4
12,-12,0,2,3,12,-8,-1
-16,-8,1,-4,-5,-6,-25,-58
39,-10,-18,-1,-1,-39,-49,29
1,32,13,1,2,11,47,53
34,23,35,22,17,48,87,-7
-36,-7,0,-8,-2,94,112,-29
-15,6,-3,4,0,-31,-59,-75
39,-19,-3,-4,-1,33,55,78
28,18,-4,1,-1,-25,15,11
-8,-3,13,5,5,70,120,3
-27,-4,-2,-2,-3,-16,-29,-18
-3,-17,-16,-9,-15,-120,-123,-84
2,24,6,3,4,50,63,55
3,-28,-15,-8,-8,-87,-101,-5
-35,28,-15,-12,-16,-65,-23,-38
-48,-27,0,3,9,103,94,24
67,24,4,-3,-4,21,-3,-6
-39,-6,-5,6,2,8,12,48
-11,-21,-15,-3,5,58,75,28
-9,31,10,8,4,-50,-52,-83
-36,-39,-30,-11,-17,-74,-67,-45
-42,4,14,-1,1,75,70,64
26,-31,1,1,5,44,40,20
-4,11,5,5,4,66,69,11
-2,4,23,10,2,-50,-45,19
4,-9,-4,-3,3,14,56,19
-9,1,6,-7,-7,-57,-58,22
-1,12,-4,3,1,3,-24,-22
5,-5,6,-1,3,21,31,-21
48,2,-5,-2,-6,-66,-85,7
16,-7,-2,-4,-3,5,33,0
-15,-10,-18,-8,-7,-50,-91,20
-16,22,3,-8,-12,-56,-101,-17
25,-19,-2,4,0,-32,-38,-6
-8,-7,-11,1,8,127,117,37
3,29,10,-9,-12,-104,-89,-61
-38,-35,-9,2,8,45,83,-4
59,7,2,-5,-3,31,100,73
-2,19,21,9,-1,-43,-79,-50
10,-13,-17,-4,-1,18,104,56
-10,-24,-11,-2,8,108,107,34
-101,1,1,2,-3,-109,-128,-128
79,27,22,12,7,39,91,61
-24,-5,-6,-7,-6,-5,-31,-9
1,-7,-7,-7,-7,-16,-6,48
24,39,5,1,-1,1,-10,-25
-35,4,0,-2,3,34,69,38
7,-28,-9,0,-2,-15,-26,-9
-13,6,6,6,2,-41,-46,-9
-11,18,-13,3,6,21,13,5
-8,-1,8,-12,-10,22,64,-32
34,32,7,9,9,51,101,110
-9,-38,-20,-5,-1,17,21,-9
65,0,5,-4,-6,-49,-30,-24
-51,7,-9,3,2,0,6,-21
-7,-23,-6,-4,0,69,68,-36
51,45,15,0,-5,-63,-83,-15
-31,-16,4,-2,-1,59,108,45
27,-29,-13,-7,-4,-46,-124,-7
-3,11,18,-6,-6,-44,-21,-18
-61,4,-6,3,4,25,1,-25
65,24,9,-5,-6,16,53,58
-93,-26,-21,3,-4,-85,-121,-83
2,-3,7,-2,4,100,126,71
4,18,-8,-5,-16,-106,-97,-86
27,-21,3,3,8,95,109,87
-23,13,-9,6,0,-74,-91,-90
-13,-52,-10,4,6,77,109,90
6,72,52,0,1,44,127,87
11,-6,-5,10,9,-68,-96,-28
-46,-22,-15,-13,-6,45,127,70
-4,-8,14,2,-4,-121,-128,-114
23,18,-34,0,3,14,1,-23
-24,0,11,-2,-4,-53,-107,-70
51,4,11,1,4,30,48,15
3,2,-26,-1,-1,108,120,49
-31,-48,20,-5,-7,-59,-61,-97
-90,6,-1,2,1,9,61,11
-30,10,-12,-10,-14,-18,31,-8
24,-6,-8,-1,-1,-44,-104,-32
53,3,-1,5,2,-7,-24,70
-1,-33,-12,-10,-7,50,46,-37
18,51,23,13,12,-8,-18,48
-10,-2,1,-4,-6,5,18,25
-36,-12,-14,-9,-1,48,42,-60
-24,-63,-30,-23,-17,-36,-77,-35
100,24,9,7,-7,-16,28,-7
-54,-16,-14,-3,-3,-51,-75,31
-48,-35,1,0,-1,3,-5,-47
68,-3,-11,-3,-3,-42,-23,39
-45,-7,7,-4,2,46,18,-80
-5,-11,-9,-1,-1,-28,-11,1
14,-39,-17,-8,-2,78,127,46
-21,-5,-12,-3,-3,-32,-41,-21
14,9,25,13,17,100,65,77
-30,10,-2,-7,-15,-94,-82,-122
29,13,11,14,12,75,127,109
8,-37,-10,-9,-11,49,101,11
9,-9,-13,-8,-6,-35,-74,-41
4,12,1,6,12,78,60,21
4,-10,-11,-14,-9,-46,-64,15
-27,55,5,7,0,-73,-81,-39
-81,-57,-16,-3,-1,-43,-33,-14
48,21,22,2,2,42,78,52
2,6,-17,1,4,4,-52,-4
31,40,8,9,12,40,31,35
-52,1,-8,3,-1,11,59,22
-24,-21,-15,-5,2,44,77,-7
8,7,8,2,-3,-13,-34,0
74,31,-4,0,2,49,31,63
6,-6,-21,-15,-15,-67,-117,-16
-6,-8,-7,-6,-4,-35,-16,-5
-43,-28,-17,-7,-2,23,40,21
-59,-34,-1,-4,-5,-44,-56,-101
71,42,42,14,7,18,60,39
-1,-6,0,4,7,104,117,65
-40,-4,-20,-11,-8,-58,-102,-113
27,16,29,9,1,-39,2,48
0,6,-3,0,3,28,95,78
4,42,4,4,1,-39,-98,-35
-8,14,34,8,10,78,97,-4
-20,-11,-1,2,6,70,102,4
-5,-12,-1,-6,-7,-10,-35,47
21,23,22,10,6,-30,-39,18
-48,-33,-16,-9,-5,35,59,8
36,9,2,4,5,14,-8,1
-77,4,23,1,3,92,127,-64
-8,-9,-12,1,-5,-68,-79,-35
-8,-49,-15,-10,-7,2,-3,4
-11,54,-7,1,-1,-19,-19,-10
25,14,10,-3,-1,9,42,44
-20,-22,31,2,-3,-70,-87,-44
13,40,0,1,0,40,95,56
64,-8,0,8,6,54,76,21
22,-18,1,-5,-5,-10,-38,64
-6,28,9,-1,-2,-1,-73,-43
6,17,-4,-5,-8,-36,-25,42
-66,-51,-19,-17,-13,-69,-100,-68
71,-19,-10,10,12,-1,-32,16
22,14,-4,-4,-5,41,96,-50
-24,25,6,3,7,14,22,23
-11,3,16,3,0,-5,17,-33
-36,-12,-12,-6,-2,54,98,-44
-4,30,-2,10,13,42,52,3
46,-4,4,7,2,-15,-25,-5
9,-1,-7,-2,1,1,19,21
-8,-13,2,-1,4,55,50,-10
-7,18,16,4,5,101,127,103
5,-36,-23,-9,-6,-2,-38,-41
27,69,57,9,-4,-60,-69,-33
14,-15,-9,-13,-13,-50,-31,10
-23,-30,-14,-10,-4,39,60,-33
-21,3,-5,-13,-16,-68,-34,-46
48,-20,-17,-2,3,17,-35,80
-42,-3,-7,0,3,75,50,-24
2,-24,-10,-13,-17,-120,-113,-39
-15,4,4,-3,0,-8,-31,19
-21,-6,-14,-4,-1,78,90,-22
10,6,-12,-4,-13,-128,-128,-47
-11,-53,-18,-7,4,81,127,59
20,35,20,5,-7,-70,-76,-82
-20,-34,-10,7,-2,-81,-59,-37
7,-18,-22,-5,0,80,100,59
3,-18,4,-1,-1,80,71,-10
-67,27,4,0,-6,-75,-71,-46
-19,-38,-5,5,14,84,70,13
-6,3,4,-8,-5,75,104,8
-9,-12,-11,-4,-4,-128,-119,-79
34,-31,0,7,13,82,127,61
-17,-9,-12,-8,-8,9,20,60
-10,24,9,6,6,-46,-22,46
-21,-42,-28,-6,-2,8,-16,14
25,-25,-8,-3,3,71,104,15
-39,-19,8,-10,-14,-75,-50,-31
29,-45,-26,-8,-3,0,-23,-13
11,51,-6,12,2,-27,-7,2
-47,-9,16,-3,-5,-29,-16,-60
-25,-6,-13,-3,2,46,96,27
8,65,21,6,6,77,61,4
48,3,-5,-8,-13,-89,-82,2
-9,-18,-12,0,4,76,90,32
-16,35,2,0,-4,12,13,-41
51,24,12,12,8,-4,-1,34
-42,-8,-6,-3,3,73,96,-3
25,-15,-8,8,5,-43,-68,-22
-40,-9,2,-9,-6,28,42,17
-35,-24,-1,-4,-6,-48,-77,-44
24,6,7,5,2,-20,-10,19
7,-12,10,-1,4,102,89,86
34,65,13,1,-12,-70,-73,-93
5,-60,-17,-4,-3,17,35,36
-10,-26,2,-7,1,98,103,64
28,71,6,5,-4,-33,-29,-78
-21,0,9,8,13,100,127,127
-10,-17,0,0,-1,34,68,22
29,29,13,2,-4,-37,-61,-53
-79,-41,-12,-10,-5,5,3,-27
23,-12,-16,-6,-2,-31,-75,-52
-55,3,1,-3,-3,-75,-94,-101
-27,-2,6,5,11,48,57,36
23,15,-2,-11,-12,-7,42,51
-15,27,22,8,-3,-95,-125,-103
71,53,6,11,12,54,77,109
-25,-21,-10,-12,-8,33,26,-31
6,-1,15,3,0,0,25,21
73,-34,-29,-11,-11,-10,44,71
29,8,-9,-6,-13,-93,-84,-70
-56,46,5,11,10,45,20,-48
-13,-23,3,0,7,103,91,77
21,-18,14,10,11,10,-13,-54
-22,-3,-7,-3,-2,-20,-36,-7
13,-21,-2,-7,-5,7,53,21
15,19,1,-3,-1,3,4,-77
-22,5,-9,-4,-2,-39,-11,-8
-19,-46,-2,-7,-1,33,37,15
29,48,2,-9,-9,-89,-50,12
8,-22,-31,-2,3,51,67,41
23,1,4,-2,3,54,89,37
-44,4,0,5,1,-17,-19,-76
24,-22,-2,-4,-5,30,59,75
-35,-14,-17,-6,-8,-60,-103,-51
-22,-4,-19,0,-2,-10,-23,4
3,-18,11,-1,0,40,79,25
-8,3,2,4,-2,13,20,-5
46,38,13,7,3,-43,-24,47
-50,18,8,1,9,127,127,30
60,26,22,0,-1,30,62,-9
12,18,10,14,11,84,80,60
58,-3,-1,-1,-7,-61,-81,-65
-35,11,-5,3,8,53,73,33
-15,12,-21,3,4,-18,-10,25
-25,21,34,3,3,-6,27,-18
5,-6,-13,-5,1,40,96,58
-36,-14,-4,-5,-11,-125,-128,-128
-9,14,2,3,4,1,24,48
36,-12,-16,-2,-2,-25,-63,-25
-28,-20,6,2,2,40,79,16
7,-2,-15,0,-2,8,-31,40
-47,-81,-26,-8,-7,20,26,-53
27,32,-1,-2,-2,-31,-116,-12
-25,-50,-10,-1,2,16,0,-24
-43,-3,-4,-7,-2,17,13,20
32,-1,10,4,5,59,23,54
-17,-6,8,-2,-2,14,25,-99
32,3,5,6,5,43,36,63
18,16,-4,-7,-9,23,78,42
-38,-23,-7,-2,-6,-77,-128,-95
-26,-3,3,4,1,-32,43,23
45,26,14,-8,-8,9,41,34
19,-26,-16,-10,-13,-80,-90,-37
-35,10,5,2,5,8,5,18
0,-68,-6,-6,-4,48,102,-23
48,2,-12,4,-2,-107,-114,5
-52,-19,-1,-1,1,43,48,30
4,12,9,-2,-3,-33,-42,-52
-21,-39,-2,-9,-10,-48,-10,6
6,6,6,6,7,73,87,61
20,13,10,2,1,4,10,-46
-16,-10,-12,-6,-8,-73,-54,77
-34,-23,-14,-6,-11,-81,-97,-82
2,-50,-28,-7,-5,-8,16,-17
12,35,12,-3,-4,65,48,56
14,19,-6,-5,-15,-80,-70,-53
-34,-63,-14,4,9,35,41,59
-43,5,0,-2,-2,-13,-15,-45
-3,-58,-5,-1,6,83,127,49
24,12,2,0,0,43,36,4
-18,6,-5,-5,-4,-32,-43,-7
-12,21,13,2,4,29,-7,-40
-10,-22,2,2,1,16,1,24
6,2,-6,-4,-6,-67,-49,-14
-1,0,5,4,6,86,93,32
-15,-18,4,0,1,13,6,-46
-6,-8,-14,-4,-10,-55,-73,-18
8,1,9,1,6,77,127,36
27,-10,-4,0,-2,-21,-4,5
-37,-11,-3,-7,-5,-3,-19,-25
15,-6,8,4,0,-16,23,-1
3,-7,17,10,10,55,19,9
25,-3,-3,-12,-11,-35,-15,9
-26,-9,1,0,3,55,86,25
-16,27,-5,-5,-4,-90,-127,-64
4,-39,-18,-9,-4,47,72,22
48,47,-5,3,4,21,1,28
-18,12,-3,-4,-6,-73,-107,-62
9,-30,-16,0,1,20,29,44
-2,18,22,-3,0,16,42,-1
8,30,-7,-2,-5,-43,-47,-43
6,-7,-1,-1,-1,17,54,10
13,0,-1,-2,0,6,7,2
-13,60,11,2,3,24,37,-14
2,-19,-7,4,7,42,67,53
0,81,13,0,-6,1,33,-20
3,-1,-1,-5,-9,-72,-58,-70
17,15,-11,-1,-4,-24,-18,22
37,0,-6,0,1,8,4,25
-9,-16,-1,1,-1,7,34,-11
-2,-23,-6,0,3,28,76,18
6,25,-3,-3,-5,6,22,4
-40,42,8,1,0,-14,-29,-43
58,-36,-14,6,4,10,0,48
14,7,2,0,5,4,66,33
-30,-30,3,-6,-1,59,58,-17
-3,37,9,1,-5,-58,-56,-5
-47,-38,-14,-3,0,-17,29,17
7,-7,0,-1,5,47,80,31
-31,-35,-20,-3,-7,2,-8,-46
31,-7,7,-1,10,114,127,19
6,5,7,-9,-8,6,-4,0
9,-23,4,2,-5,-55,-112,-97
48,57,7,0,3,35,61,108
-26,-37,-15,-3,-2,2,-24,-24
13,63,18,11,6,-69,-121,-8
1,-22,5,0,3,60,79,-22
2,0,12,2,0,13,28,-35
-1,19,-1,-1,-1,-10,39,17
55,9,28,-2,-5,-31,-18,5
-7,24,-1,2,-4,-7,-55,-51
-6,1,-1,4,4,50,38,-4
6,-37,-11,0,-4,-85,-61,-9
-46,11,19,-5,1,82,127,-15
10,32,4,3,3,88,125,53
28,-65,-26,-9,-9,-34,-48,-24
-1,9,1,0,1,32,15,-11
5,-13,-19,-2,-3,-21,-38,7
-3,-8,1,-4,-7,-48,-51,-25
-23,-7,-4,5,5,-4,-30,46
-5,-3,-7,-3,-3,-8,-8,43
-4,29,0,0,-2,13,24,15
-12,49,19,-2,-2,-50,-46,3
-16,-8,-9,-3,-6,-4,4,-17
55,3,9,4,4,24,42,1
-12,3,-5,5,6,11,73,38
4,-8,-4,-8,-8,28,24,41
30,46,12,3,5,-19,6,9
-19,-61,-4,-10,-13,-56,-31,-53
-20,6,-12,4,3,14,9,55
74,-2,10,-1,3,74,98,35
-24,-31,-10,-4,-7,-81,-49,-26
6,-42,-28,-7,0,35,53,-10
6,22,11,-4,-4,3,-11,-8
-37,3,-6,9,5,-40,-38,-7
-8,3,5,-5,-5,16,31,-3
-25,11,8,4,1,17,9,8
-38,-28,-2,1,1,0,-28,-55
-5,-19,-15,-7,-2,-15,-32,10
33,-6,-1,-3,-6,-4,18,-9
1,10,5,0,-4,-10,5,-27
-46,-13,-8,1,-4,-60,-45,4
-17,-30,-1,0,-1,49,67,20
-14,-29,-17,-6,-9,-92,-128,-88
-4,32,20,-1,1,42,82,29
29,6,10,3,1,18,56,-5
-6,32,-4,0,-1,24,77,20
51,10,5,3,1,-13,-29,37
-35,-7,-8,-3,1,3,-11,30
45,-10,-12,-7,-4,-15,-51,27
0,-11,2,2,0,-36,-60,-24
-21,3,17,5,7,76,91,31
-15,15,-5,2,-5,-79,-77,-38
20,-24,-2,-2,1,11,19,25
-1,9,-7,-7,-6,13,15,9
-26,-27,-15,-7,-7,-58,-76,-31
-14,34,26,7,3,-14,-39,-40
-24,-41,-19,-7,-8,-6,4,-1
15,-18,-13,-3,0,-4,-3,-14
-3,59,17,9,11,26,13,18
-13,-11,-8,-7,-3,4,-14,-46
9,-16,-18,-7,-8,-27,-25,14
-6,-12,0,-1,-1,40,36,-4
-15,0,-3,0,2,-19,-42,-27
14,10,7,1,-2,24,59,14
12,23,6,2,5,21,-5,-6
8,27,6,-4,-2,-10,18,26
-35,-9,-11,-2,2,39,44,-7
29,3,11,-1,-5,21,59,49
-26,-71,-28,-3,1,-36,-78,-73
-36,10,3,-11,-18,-96,-106,-3
39,14,18,6,9,109,103,-3
-24,6,-14,-10,-17,-82,-94,-28
12,-3,10,-4,-1,77,127,-5
-17,-24,-27,-1,1,-16,-75,-49
1,29,11,-3,-11,-78,-95,-32
41,-33,-6,-2,1,37,19,13
-37,-16,-5,2,1,-20,-32,-36
-10,21,-5,4,4,18,18,11
12,27,4,1,0,-3,46,-1
0,-4,4,7,11,51,40,17
6,18,1,1,-2,-43,-88,4
15,-28,2,5,7,65,100,42
-20,-20,7,-4,-7,-56,-33,-9
74,21,7,12,12,35,11,42
-11,-28,-5,-10,-6,33,32,-5
12,17,-2,-2,0,32,50,41
17,-19,-20,0,2,-9,5,-3
18,8,0,-1,0,7,17,40
5,8,16,6,3,-20,-48,-40
-13,2,11,5,7,27,34,24
6,-11,2,-3,0,37,63,18
-67,-45,0,-3,-3,39,26,-37
44,13,-11,-2,-3,29,50,19
-66,-40,-18,-12,-17,-106,-112,-101
6,3,-6,1,7,53,95,18
-8,-24,1,1,3,17,3,-22
-19,24,-5,-2,-8,-71,-59,16
28,-2,6,5,7,18,32,32
3,15,3,2,1,71,90,21
36,-12,-7,-11,-15,-59,-28,-11
-31,-10,-13,-6,-4,18,22,-31
29,74,30,6,3,21,29,5
19,13,-2,2,-3,-40,-74,12
-10,48,4,3,6,12,-35,-52
-9,23,9,7,3,-4,-5,20
-4,-17,-8,-1,0,2,2,-19
-78,-14,-3,-11,-8,28,77,30
33,10,4,-3,-9,-87,-89,-59
-27,-21,-11,-5,2,33,93,20
-3,-2,-2,-4,-1,23,45,5
26,22,1,-4,-10,-61,-69,-55
-55,-27,-15,5,9,43,109,33
28,1,14,-4,-2,42,63,20
23,-4,-2,-1,-1,19,31,18
33,-5,14,12,17,84,81,-14
20,47,-4,-5,-4,-7,40,68
-41,38,5,8,5,61,75,-34
32,-26,0,5,7,19,-25,-10
9,-29,-8,-8,-8,-34,-24,16
-55,35,-2,-4,-2,8,-23,3
11,-20,-4,-3,1,18,22,2
12,44,16,-1,-5,-23,-16,-8
-16,14,10,0,-4,-12,-17,-24
0,20,-16,-1,0,2,-6,20
0,-6,-2,-11,-19,-108,-109,-11
-13,-11,-6,5,5,2,-26,-26
-6,19,3,-4,-3,-43,2,-25
-34,-43,3,-2,-1,51,64,3
70,11,-1,0,0,-5,-15,19
-3,-33,-14,-5,-6,4,30,-2
-43,-4,-6,-3,-4,-13,-59,-38
60,-19,-1,5,7,-1,-36,18
-5,-19,17,10,4,34,62,19
1,11,-6,-5,-3,-14,-25,3
19,23,18,3,4,17,12,-23
-60,-16,-4,-3,0,49,87,56
1,-15,-2,-4,-1,18,1,-7
16,40,-8,0,-6,-67,-65,-7
39,-13,0,3,3,33,65,42
-50,-31,-9,-4,-5,-41,-52,-114
0,-20,5,2,5,10,24,56
-23,21,18,-1,1,71,95,30
-3,-3,-7,0,0,-20,-61,22
-2,4,0,-5,-6,-24,-46,-36
-8,30,3,2,8,58,77,6
-36,-41,9,-2,-4,-10,-1,-41
1,8,-5,-6,-7,-34,1,45
18,-1,10,1,2,45,91,38
55,93,11,10,4,-8,-71,-29
19,-50,-23,-7,-13,-60,-56,13
-12,-8,-6,-8,-11,-14,-17,-32
52,56,8,12,13,83,78,90
45,1,-5,-7,-6,-37,-53,-6
72,19,9,11,6,6,68,40
-39,-37,-16,-4,-2,19,54,7
10,14,17,-6,-9,-21,4,-41
-46,-35,-9,-5,-5,-51,-52,-42
-1,51,0,0,0,9,40,10
-27,-65,-14,-5,-5,-45,-58,-40
10,-5,-10,0,0,4,-45,52
39,1,-4,-2,-5,-73,-95,6
-66,-30,-4,-1,3,-17,-41,-42
12,18,8,-1,-2,21,19,82
-18,6,-11,-4,-5,-13,-21,-39
-23,-64,-15,-3,1,47,62,8
-9,-35,-5,-3,-4,-42,-117,-58
-3,34,8,6,3,15,22,18
45,-21,-8,-4,-4,-17,-20,-1
-31,14,-6,-5,-6,-20,-41,-22
55,-17,-3,0,4,85,127,55
-30,-13,-4,-1,-2,0,-4,-13
-12,28,12,3,5,16,19,-21
-18,-9,7,2,3,38,114,-5
8,15,1,-6,0,41,53,27
28,-9,-17,-3,-16,-96,-103,-80
-52,-7,-7,1,0,-27,-4,0
-2,-8,3,1,2,27,66,-10
-85,-50,-19,-1,-1,43,84,8
-11,-21,-13,-3,-3,-69,-56,-19
-29,-20,1,3,-1,44,90,-14
21,-6,7,5,1,-58,-75,-30
-13,-21,6,3,2,15,31,9
-15,-24,-19,-10,-3,24,13,1
-1,4,0,-3,-3,1,13,-29
-59,24,-12,-6,-13,-69,-93,-12
23,29,6,-4,1,62,79,13
-15,-12,0,-1,1,71,84,-19
-4,-10,-1,-6,-11,-91,-98,-2
11,25,18,1,3,95,127,33
46,65,29,11,4,-28,-32,-3
-11,-9,7,-4,-5,-23,-49,15
33,-22,-5,8,6,-41,-50,-28
23,-7,-4,4,5,26,37,86
-4,11,0,-5,-20,-128,-128,-72
-37,-13,-11,7,10,32,32,-11
37,-11,-16,-12,-8,63,106,48
36,41,-2,-3,-4,-19,-51,-15
-74,-29,-10,-6,-3,-4,11,-10
27,13,10,3,-1,9,15,15
4,10,3,1,-1,-2,3,9
-38,-44,-15,0,4,45,50,12
49,-4,-9,-4,-1,29,51,21
32,15,-1,4,5,19,2,36
-53,0,8,-8,-11,-70,-48,-14
-16,4,25,2,9,111,127,19
1,-16,-19,-6,-6,-66,-45,-35
9,13,5,4,9,77,127,-8
2,35,9,-3,-7,-8,20,21
28,-33,-19,-10,-15,-128,-128,-37
-24,13,4,9,6,56,69,-4
6,-1,-6,-9,-9,-41,-24,27
0,-11,-6,1,4,76,54,-13
-27,-15,-17,-2,-3,-35,-54,7
17,81,24,-3,-12,-75,-100,-33
5,-46,-17,-4,0,86,118,24
-15,-5,-2,-3,-6,-45,-82,-3
0,-6,-2,-1,-1,0,14,-17
-35,-27,-5,-4,-1,0,-31,4
28,45,32,11,7,25,63,61
5,-10,4,1,3,3,-49,-28
1,-10,-2,5,1,10,33,40
-42,-52,-31,-10,-9,-23,-6,-7
9,32,-1,-4,-9,-111,-110,-39
-18,-17,5,0,2,41,77,20
24,3,-1,-3,1,51,74,12
-5,-14,-25,-2,1,-6,-9,12
9,23,33,1,-5,-86,-116,-69
-9,-19,-3,-4,-3,18,57,54
-14,53,14,1,1,66,46,-19
54,45,20,5,-5,-25,-10,-3
-42,-38,-16,-4,0,95,127,4
38,3,-2,3,5,16,41,7
-19,-31,-3,-2,-2,7,-6,-15
-10,-39,-8,-1,1,9,-11,22
2,19,14,5,3,-12,-52,-15
47,-10,4,2,2,13,-2,1
12,2,-3,2,8,25,16,22
24,13,6,5,-1,-45,-49,-28
-20,-20,-18,-5,-4,-18,5,4
-48,-70,-22,-2,2,-8,-34,-7
15,1,-4,-1,3,29,20,-35
3,31,3,-7,-15,-72,-77,-19
-40,-6,0,-3,2,101,112,9
40,2,-3,1,4,38,61,3
-7,-15,-17,-5,-7,-4,42,-39
-23,-23,-8,-6,1,39,93,45
4,-14,-5,-2,-3,-34,-6,-46
-3,83,8,3,2,-21,-48,58
28,-9,17,2,1,-30,-85,9
20,-3,18,4,9,127,127,14
-4,-1,4,-4,-8,-72,-81,14
-9,-37,-7,-1,1,-3,-21,-43
66,2,-11,-5,-12,-107,-94,10
-2,2,5,2,5,99,125,56
-9,2,-19,-8,-4,62,98,43
-17,-48,8,10,18,115,21,47
16,-1,-11,-4,-3,4,84,36
-48,-27,-16,-7,-1,63,75,-46
2,28,7,0,-7,-34,-25,7
-5,13,-23,-2,-1,-57,-40,-59
6,-4,0,3,6,68,37,31
41,8,17,7,5,-34,-19,8
-71,27,23,7,6,53,82,24
-46,-39,-4,-2,-4,-73,-76,-70
28,-9,-21,5,6,-53,-99,-37
-7,-38,-4,1,2,80,127,90
-24,-2,10,-3,-1,-3,4,-15
21,-24,16,5,4,54,71,-5
59,31,0,-3,-4,-25,38,29
-23,29,5,-1,0,5,-38,-15
-16,-30,-12,-3,-1,13,36,-19
82,30,29,1,6,69,105,82
-65,-24,-24,-11,-13,-18,-4,-28
12,16,-8,-5,-13,-116,-128,-28
10,-41,13,7,8,66,71,7
-23,41,-11,-7,-5,-9,35,-32
34,-15,-4,-4,-3,6,-20,-4
-22,28,17,1,-2,17,56,0
-18,-1,7,-6,-5,22,13,29
-9,-19,-16,-9,-12,-115,-128,-69
-57,-7,-4,-5,-9,-66,-69,-28
10,-16,-1,-4,1,19,28,-17
6,-44,-20,-6,1,17,30,-11
50,64,3,4,4,8,-46,-19
-37,6,-16,-8,-15,-80,-91,-5
5,-17,5,1,5,93,73,14
-3,-1,-24,-3,-11,-123,-128,-35
-16,-21,2,5,1,9,50,10
-2,1,2,-1,1,18,12,-14
-7,-5,10,3,3,14,4,15
-12,-18,-25,-6,-5,33,37,1
17,-4,-4,-9,-7,-9,0,31
18,11,3,11,9,18,-33,-10
-68,-20,-11,-3,1,34,52,-18
6,35,2,4,2,-35,17,-4
-12,-19,-10,-6,-3,-31,-77,1
-24,-29,3,-2,3,72,107,-5
14,35,-10,-4,-4,-5,-12,13
0,13,1,7,6,3,-16,-21
13,-16,-21,-5,-9,-61,-47,-31
7,-8,-1,-2,2,77,117,41
15,18,6,13,7,9,-61,-4
34,-13,10,0,3,37,20,16
-34,-24,6,-6,-4,-17,-27,-12
41,27,5,-4,-5,-30,-13,-17
-47,-81,0,-4,-2,-4,37,25
9,5,-12,-9,-12,-83,-99,-22
-17,-37,-2,8,6,18,11,1
1,32,-3,-1,1,-15,-49,-3
12,-10,9,-4,0,49,32,21
-6,6,-9,0,-2,7,1,-14
-12,63,3,-3,0,73,122,7
-14,-10,27,2,-2,-19,7,21
43,7,-15,-13,-10,-12,32,7
-3,7,15,3,1,-7,-26,-7
-4,35,5,4,4,15,50,13
27,-34,-14,0,5,34,30,44
0,30,3,5,7,60,66,23
30,49,18,0,-15,-108,-76,-73
-30,-45,-8,-8,-2,40,90,5
-13,-21,-10,-2,1,49,69,16
-11,-51,-13,3,1,-14,-91,-72
-8,39,-16,-6,-5,4,11,42
1,5,2,7,3,-4,-19,0
-9,21,-6,-6,-7,-42,-63,25
58,60,10,7,10,76,127,34
-21,-17,11,1,3,-7,-32,-31
-15,-5,2,-3,-4,-2,10,-29
-15,27,-16,4,0,-25,-38,-30
-12,13,-2,-1,-3,-35,-4,-10
-29,0,-6,-4,-3,-21,-39,-22
6,-22,-20,-14,-18,-80,-87,-22
-24,-96,2,7,9,50,15,-24
22,9,1,0,-2,-51,-79,-16
-13,-21,-4,3,5,63,119,36
-28,-17,11,-1,0,21,30,13
48,-14,-9,1,0,42,79,10
-31,21,23,6,-2,-41,-46,-49
-16,-13,-3,0,1,19,73,54
7,-8,23,11,13,78,110,-19
-17,111,12,-4,-11,-59,-35,-19
-2,7,-32,-1,-3,-50,-36,-3
9,5,14,-3,-7,1,7,-11
15,-42,-11,-9,-3,57,107,32
-41,15,-6,-7,-8,12,75,-19
-18,-16,-9,-11,-7,68,109,25
27,-19,8,3,6,30,-10,-14
-11,-21,-29,-6,-8,-52,-50,61
3,-47,1,-6,4,71,77,-1
24,39,-22,-4,-12,-106,-116,7
-4,-69,-18,-8,-4,-2,-59,-14
-15,34,12,7,8,58,67,-14
54,-18,12,7,6,39,72,65
-28,49,6,2,-9,-79,-67,-40
-31,3,-9,1,6,80,127,-13
51,-13,-22,-1,6,56,32,46
2,15,-17,-3,-9,-111,-127,-81
-15,-15,41,3,3,41,103,28
-24,-11,-4,-2,3,26,7,19
-2,19,2,2,-1,-59,-84,-21
-3,-67,-14,-5,1,44,45,22
-7,-38,-20,-6,-2,-15,-38,-17
26,53,20,5,-1,-9,-7,5
-16,-18,-3,-5,-1,13,9,5
-10,14,10,5,5,25,21,10
-7,-2,-3,-6,-9,-70,-39,-7
8,-2,11,-3,2,40,41,-8
2,10,-20,-8,-11,-103,-115,-40
-8,-4,24,-2,-2,55,77,45
15,-47,-26,-4,0,-19,-75,-27
4,10,-7,0,6,65,102,60
4,-1,10,-1,-13,-95,-108,-62
-9,28,-18,-6,-2,-22,-44,-19
-8,8,21,10,11,85,7,5
5,-48,-13,-8,-6,-62,-81,-19
-17,27,-6,-3,-2,-20,2,4
-10,36,24,3,3,29,37,0
26,-45,-2,-2,-4,-15,-39,-4
4,-2,-13,-2,0,30,61,11
-28,-1,23,-4,-10,-53,-72,-32
-3,3,-3,-2,-1,-19,-9,-23
-8,0,0,-2,2,84,127,56
-6,7,22,1,-14,-120,-113,-61
-2,-47,-15,-4,-1,23,28,39
-4,-1,-13,-1,-3,-3,1,-15
-9,-29,-7,-4,2,-18,12,-2
-8,6,-7,0,1,23,5,-18
54,-14,-17,-1,-1,5,-31,23
27,78,4,5,-7,-128,-128,-28
-35,-21,-23,-6,-3,-11,5,-13
6,27,27,6,5,52,95,9
32,79,21,8,2,22,-4,19
-26,-72,-16,-10,-6,32,24,9
22,51,11,5,5,42,47,-3
4,-6,9,3,-1,-49,-61,-5
26,12,0,-2,-1,35,26,32
11,-52,-7,0,3,39,32,13
24,39,-11,-3,-1,0,11,4
-35,-14,0,-3,-1,-2,6,3
-34,-40,1,3,6,60,70,12
-14,11,-2,-4,-9,-45,-59,-23
54,-11,-2,-4,-4,-65,-82,17
1,-54,-12,-2,5,53,68,44
2,41,0,-1,5,3,13,-18
-15,-24,3,-2,2,10,38,14
57,24,14,4,-1,21,11,-11
-11,-9,-1,-3,2,8,0,23
6,60,24,10,6,-1,-14,19
8,-36,2,-2,-4,-15,-31,-46
-30,-6,1,-5,-2,19,34,11
9,38,-21,-4,-3,23,38,-7
-7,-45,-2,-7,-3,22,82,12
3,73,-25,-6,-9,-87,-108,-64
-37,-44,-4,-7,-6,-10,31,11
16,28,-8,-3,-1,0,-5,-14
-19,-67,-10,-8,-8,-2,4,-15
2,56,0,0,-2,-31,-20,18
-43,-9,-2,-13,-14,-82,-128,-51
35,8,3,12,8,47,65,30
-51,2,8,-2,-2,-34,-36,-45
16,-2,1,7,13,78,44,18
-22,-8,-4,0,-2,-35,19,-2
-18,27,5,-1,1,21,20,28
34,10,5,-1,0,-13,-22,-10
-8,-18,-2,-1,6,122,127,45
45,84,50,10,-7,-73,-86,-19
9,-43,-20,-1,-2,-22,-13,19
-16,-17,-7,1,0,27,71,2
10,41,17,-2,-7,-29,-15,-2
26,-25,4,5,5,49,80,7
-1,12,-2,-2,-2,-34,-43,-10
9,24,0,3,4,49,65,-3
-11,-21,9,-4,-13,-81,-86,-22
-7,-14,-3,2,6,65,76,17
-29,-3,14,-5,-9,-44,-45,-43
32,-40,-12,-4,0,-3,2,2
-11,-31,-15,-7,-14,-77,-77,-10
-1,25,-7,4,3,33,14,2
13,6,-5,-1,0,12,7,3
-7,-7,-3,-3,-5,14,6,-18
-39,-23,-3,-3,-1,3,2,-16
35,12,-4,-4,-5,11,34,14
-23,-26,-14,-8,-15,-70,-83,-56
-17,9,15,1,1,13,48,16
8,-27,-1,0,1,2,23,20
-21,-5,-9,-3,0,30,26,-14
-14,-2,11,1,1,25,34,30
-27,-27,-21,-6,-5,-19,-19,-23
11,28,17,9,10,29,35,28
-5,-26,1,4,11,84,88,23
-1,-1,6,-1,0,12,54,-7
9,41,1,0,0,2,21,13
-2,-12,8,1,2,29,37,-8
-11,-24,-14,-5,-2,3,4,16
22,34,-11,1,3,8,2,12
-19,78,30,9,4,27,-1,-4
65,-17,5,-1,-3,-20,12,16
-36,-49,-3,1,5,22,35,-3
-5,-22,-15,-1,-3,-21,-28,3
-5,-34,-13,-8,-1,13,11,12
15,28,-3,-2,-6,-43,-76,-4
-17,-35,-12,-2,2,55,63,-9
-7,-10,-15,-7,-15,-76,-27,-57
-1,4,9,5,3,31,65,13
-7,-25,-5,0,6,58,90,30
7,92,4,1,-3,-13,0,14
18,-15,10,1,0,-35,-102,-57
-39,-37,-25,-5,-3,-11,-7,17
28,12,-9,1,-2,24,-7,0
-16,2,-9,-2,-2,-76,-112,-29
7,16,5,2,5,46,77,8
3,0,-15,2,1,14,21,6
-12,-26,10,1,0,-24,-45,-11
13,-6,2,-4,-1,12,36,-17
-3,22,1,0,3,8,-8,16
37,-32,-6,-2,-4,-4,-11,16
-43,-38,-21,-9,-3,27,27,10
25,-42,-9,0,-6,-62,-68,-31
-5,0,1,-5,-4,-19,-11,13
18,35,1,1,-1,-26,-77,-24
-2,5,-2,1,5,46,92,-4
-17,-14,-5,-4,-7,-61,-90,16
6,-17,13,0,5,86,107,3
19,21,3,3,2,8,22,-7
-17,5,-3,4,5,45,73,19
4,-11,18,-2,-4,-3,-15,-2
4,-8,-20,0,3,9,17,6
-37,14,15,0,0,-5,6,8
11,1,-3,-1,0,6,-9,23
-18,22,0,4,1,5,19,-26
-5,-16,-1,2,-2,-1,-13,-5
-9,-23,-3,-9,-6,12,21,-17
-11,-10,10,0,-3,-48,-28,3
11,6,-8,5,4,44,39,25
-10,-4,-7,-5,-7,-56,-66,-7
32,39,6,3,7,81,99,15
1,7,14,1,-6,-32,-73,-21
-11,1,-5,-5,-2,23,55,29
27,94,46,14,6,-40,-44,-34
-16,-43,-1,-2,-4,-8,2,17
11,34,0,1,2,38,43,0
-18,31,8,-2,-1,2,27,-24
16,-59,-28,-13,-10,9,-25,31
-16,-2,-3,-3,-3,-33,-11,-35
19,2,-9,-1,2,-4,17,-25
-7,-9,-13,1,4,11,36,37
-9,59,41,5,4,58,125,11
38,19,-8,6,4,8,4,21
-16,2,6,2,-9,-69,-70,-30
-13,-27,-13,-4,-1,12,1,-3
5,3,-5,-3,-3,-7,-16,-4
16,-15,-6,1,0,-13,-23,38
-19,39,9,2,2,20,2,1
-1,39,-5,-2,-1,-18,-44,-46
17,-32,-15,-2,-3,-34,-38,18
-35,-34,13,-2,0,32,57,-17
13,13,-12,-2,2,47,78,17
-6,1,5,-6,-15,-112,-122,-44
13,-2,-9,2,5,9,29,22
-7,-31,-13,-4,2,35,32,-28
-32,-4,-9,-6,0,55,71,-8
-3,-20,-7,-4,-11,-91,-128,-42
-2,-31,-17,-5,-6,-45,-32,-5
-17,-25,2,3,6,34,34,26
-11,-16,-4,2,4,35,19,-3
-30,18,8,-7,-7,-34,-11,-27
48,12,9,-1,-4,-20,-20,24
5,20,11,1,1,5,32,17
-40,-27,-22,-11,-11,-40,-41,-40
23,12,11,1,-2,-6,15,29
-9,-25,-25,-5,2,39,78,2
-10,2,-2,-6,-11,-70,-62,-65
23,11,-3,3,-1,5,-4,45
4,-35,-14,-3,-2,-11,-11,2
-21,-11,18,-2,-4,49,82,-13
4,-17,-13,-6,-8,-50,-52,-42
-19,6,2,-1,1,26,46,1
0,-26,-14,0,3,39,43,-3
6,7,-6,-1,-3,-32,-40,-29
66,-38,-12,5,11,49,50,36
-11,23,-11,-4,-4,-16,-2,31
-10,58,0,-1,-1,35,48,-7
-19,6,-11,-1,0,-75,-84,-46
-3,0,7,7,5,43,84,44
0,-6,21,1,-2,-15,-22,-21
2,-1,-9,-3,-4,-14,-22,43
-16,-14,-17,-6,-1,63,73,0
-33,-5,11,-5,-9,-44,-45,-23
