-1,-2,-4,0,5,4,-1,0
0,-4,-7,0,0,-3,-2,-1
0,-1,5,0,-12,-6,-3,-2
0,-1,-5,-10,-5,-4,0,-2
-1,-2,-4,3,3,1,-3,0
-3,1,0,0,3,2,-1,-2
0,-4,0,4,1,1,0,-1
0,-2,-4,-4,-9,-4,-1,-1
2,0,2,0,-2,-3,-1,0
-2,-1,-5,-4,-2,0,1,-1
0,0,0,2,-1,0,2,0
-1,-2,1,4,4,0,-1,-2
-1,-2,1,0,-1,2,1,-1
1,-2,-6,-7,-3,-2,-4,-1
-2,-1,-3,-5,-3,-4,-1,-1
-2,2,6,1,1,-1,-1,-2
-1,-1,-2,4,2,-1,1,-1
-1,-3,-1,0,9,5,2,-2
-2,-5,0,-2,-6,-3,-2,0
-1,4,1,-5,-8,-4,-2,0
-1,0,-7,-7,-2,-4,-2,-3
0,-2,0,3,2,1,0,3
-2,0,-1,0,4,0,0,-1
0,-5,-3,0,-3,-3,-1,-3
-2,-1,11,6,-6,-4,-3,-3
1,0,-16,-4,5,2,1,-1
0,0,-2,-3,3,4,0,1
-1,-3,-9,-9,-11,-3,-1,0
0,0,4,3,2,-1,-2,0
-3,-2,4,6,-3,-1,-2,-2
0,0,-1,4,3,3,-2,0
-1,0,-1,1,4,-1,-1,0
-1,-5,-4,-6,-6,-6,-2,-1
-2,-1,1,-11,1,-2,-3,-1
-1,-1,-1,0,0,0,-2,-1
-2,-4,1,0,-8,0,0,0
-1,1,-3,1,0,-3,0,0
-2,-1,0,-3,-4,-1,-2,-1
-3,-3,-6,-3,-2,-4,-2,-3
-1,0,22,4,6,1,0,0
0,0,-5,5,0,4,1,0
0,0,-14,-7,-2,-2,1,-1
1,2,13,-7,-2,-3,-2,0
-2,-3,-4,4,-5,-2,-1,-4
-2,0,-11,-10,2,1,0,-1
1,7,55,12,0,-1,1,2
-3,-3,-14,-2,-11,-10,-5,-1
0,1,-23,-12,2,0,1,2
-1,0,13,10,6,2,0,-2
-3,-5,-22,-6,-3,0,0,-3
-1,-2,9,5,-1,1,-2,-1
-3,-6,-10,-8,2,1,-2,0
-4,-4,-23,-14,-10,-3,-2,-4
0,-8,-24,12,3,1,0,0
-1,5,25,8,-1,-3,-2,-2
1,-3,-16,1,1,0,-1,0
-1,-2,2,1,-2,-1,-1,0
-1,-2,-8,-7,-2,-5,-3,-1
-2,-2,-20,-4,-5,1,0,-2
-1,-2,11,-1,-3,-5,-2,-2
0,3,5,3,-3,-3,-3,-1
-2,-2,0,0,-6,0,-3,-1
0,-7,-55,-31,2,3,2,0
13,28,83,28,16,10,5,7
-4,-11,-45,-11,-5,-1,-3,0
4,4,14,0,-2,-3,-1,1
1,0,-31,29,5,2,0,2
-8,-3,2,-14,-8,-5,-3,-6
3,1,-8,-13,3,4,3,2
-10,-12,-32,14,-4,-4,-6,-8
-1,-8,-9,-33,-9,-7,-2,0
-1,2,-12,5,0,0,-1,0
-5,-2,-12,-6,-8,-4,-4,-4
-6,-3,-6,-30,-9,-4,-3,-4
3,0,-36,7,0,1,2,1
-3,2,44,-6,-3,-6,-4,-4
2,-3,-29,28,15,8,4,2
2,2,-51,-28,-6,5,2,4
-13,-18,-5,-26,-8,-8,-6,-11
8,11,16,24,11,5,4,6
-8,-14,-63,18,-9,-7,-4,-5
5,18,83,9,-3,-5,-1,4
1,3,-69,-2,-6,1,0,1
-30,-68,-128,-121,-35,-18,-12,-19
25,50,98,89,49,23,14,13
1,18,70,67,0,1,0,-1
-6,-9,-47,-74,0,4,2,-1
3,-1,-36,27,-7,-9,-11,-1
14,28,-4,-60,-1,5,6,8
-5,-31,-87,25,-2,-1,-1,-1
-3,3,-4,-38,-7,-2,-3,-5
-8,-21,-28,-2,-3,-1,0,-6
-34,-49,-88,-36,-35,-29,-19,-25
34,59,88,64,38,22,9,15
7,1,-58,-6,3,2,3,6
-16,-21,-7,-11,-16,-14,-5,-9
17,17,-6,67,33,23,11,15
-31,-66,-128,-126,-39,-22,-11,-19
30,59,80,106,30,17,11,13
-2,5,-45,89,6,0,-1,3
-6,-27,-53,-50,-12,-3,-4,-4
-7,12,-70,-49,-19,-9,-4,-2
-26,-26,83,-23,-12,-21,-18,-25
39,68,31,-16,19,22,16,26
-19,-42,-13,6,-7,-12,-10,-11
35,59,78,90,30,22,15,19
-27,-44,-100,-63,-29,-13,-8,-14
-5,-36,-26,29,17,0,-4,-7
4,3,1,-26,-20,-9,-3,3
-14,-55,-57,-51,0,0,-3,-3
-1,76,-47,-74,-21,-13,-1,2
-20,-35,-71,-42,-4,-7,-11,-15
-10,-34,-77,32,16,5,-1,-1
9,14,41,81,8,4,3,2
9,-16,-65,-32,-17,-7,1,5
16,32,60,52,48,28,14,18
-31,-57,-62,-103,-33,-26,-20,-25
-11,-48,-84,-85,-14,-6,-7,-10
-2,34,2,1,8,-3,-3,-3
55,79,121,104,41,35,27,36
7,29,58,44,0,1,4,4
-24,-31,-86,-71,-29,-18,-10,-19
0,-8,64,117,8,-1,-4,-2
3,5,14,-12,3,5,3,3
26,97,123,32,10,9,10,11
-8,14,48,-29,-28,-27,-10,-10
-4,-8,-10,28,1,-5,-1,-3
18,34,35,17,10,10,7,9
-13,-32,-75,-72,-28,-9,-2,-3
-11,-6,-43,-38,-5,-2,-4,-4
18,-29,-24,-111,13,17,8,9
-2,14,-101,13,0,-4,-4,-1
-23,-2,-81,-121,-26,-20,-13,-20
11,-23,23,23,17,17,9,17
-13,-46,-61,-58,-24,-9,-6,-11
-62,-107,-123,-119,-57,-37,-25,-42
38,61,127,127,48,27,11,24
8,30,-60,-5,6,2,5,8
7,45,47,104,24,10,6,5
-17,-32,27,-36,-25,-21,-12,-14
13,16,66,41,23,11,7,8
-24,-45,-64,-40,-5,-8,-7,-11
-34,-86,-28,-59,-24,-18,-16,-23
12,-25,-128,-44,15,9,5,10
-22,-65,-80,-31,-10,-7,-5,-11
26,65,69,86,25,19,8,11
-6,-24,-78,2,-6,0,-2,3
-8,22,45,-66,-11,-12,-6,-10
-11,-64,-128,-106,-38,-9,-5,-5
9,-10,-35,109,48,19,6,5
-7,-18,-49,-42,-5,-2,-2,-3
8,10,-12,-8,13,13,7,6
22,41,88,-6,8,14,13,14
-14,2,-43,-42,-20,-19,-10,-18
41,39,28,109,44,29,15,25
-19,-37,-118,13,-17,-13,-9,-3
-29,-39,-103,-97,-33,-22,-10,-19
9,-2,-5,20,33,19,7,6
3,15,-5,19,0,-1,-3,2
3,34,40,-24,-29,-15,-4,-3
-9,-21,-35,23,16,5,-1,-6
-1,18,45,-24,-30,-15,-7,-3
3,-6,8,32,21,11,5,7
0,5,-64,21,-16,-8,-8,-5
-9,-52,-77,-62,-9,-4,-4,-6
44,33,-84,28,50,32,18,25
-20,-54,-106,-86,-29,-14,-9,-11
-7,-9,1,1,4,-6,0,-4
-10,-19,-18,-59,-8,-7,-8,-10
-33,-48,22,35,-35,-23,-13,-19
6,15,81,63,-3,-6,-9,3
5,-23,-38,23,17,11,4,4
21,56,92,38,18,10,6,10
-9,-10,-46,-49,-6,0,-1,-4
-22,-61,-37,-51,-16,-11,-6,-13
-20,-46,-75,-64,-27,-11,-9,-15
-11,-27,-101,58,5,-7,-6,-5
4,-9,-19,-63,-17,-2,0,6
-13,-5,-18,-10,-16,-12,-5,-12
-7,-26,-56,63,18,3,0,-6
34,127,13,41,20,10,9,13
-14,-3,106,33,-9,-13,-6,-13
14,11,-8,6,19,18,9,15
-2,12,48,-105,-16,-2,-1,0
7,26,70,81,-5,-5,-1,4
-9,-11,-83,-36,-9,-10,-7,-8
2,22,127,59,4,-2,-1,-2
16,34,-41,-66,-2,5,6,11
-18,-39,5,-107,-30,-16,-7,-9
41,51,-3,36,61,36,16,26
-21,-14,-95,-115,-24,-5,-3,-13
18,35,91,119,0,0,3,9
-8,-16,-100,-54,13,6,-2,-5
-24,-69,-63,-27,-61,-24,-10,-13
27,79,13,59,32,13,5,10
14,9,69,90,23,11,7,6
-17,-19,5,-15,-22,-16,-9,-14
22,49,121,10,25,15,6,11
-24,-66,-101,18,-1,1,-1,-5
-47,-84,-100,-128,-71,-46,-29,-35
44,64,57,127,63,31,18,28
-19,-40,-97,-49,-16,-9,-8,-13
-2,35,103,29,-10,-9,-2,-5
-14,22,67,63,13,-4,-7,-16
12,12,-12,36,4,10,8,18
-9,-29,-37,-36,-17,-7,-6,-6
13,17,4,-8,12,6,5,12
-5,-22,-40,-61,1,4,1,-7
-16,-13,-10,-12,-30,-22,-14,-21
26,50,114,104,37,18,14,18
-9,-28,-28,-50,-34,-18,-7,-3
11,3,-59,-69,6,8,6,11
-7,-1,-19,-30,-9,-2,-2,-4
-18,-17,-29,-68,-26,-21,-11,-11
2,-5,-104,-15,5,3,0,-2
44,86,109,81,33,24,11,27
-9,-31,-62,-12,6,4,-1,-4
-31,-40,-53,-42,-56,-31,-17,-21
14,13,19,-10,16,10,6,4
5,10,5,-13,-1,0,3,1
-3,-24,9,15,1,-1,-2,1
-12,-20,-47,-74,-6,-5,-5,-7
67,105,127,121,71,40,25,36
-15,-60,-127,-30,1,1,-2,-6
-13,-29,-10,-60,-21,-12,-10,-19
-10,11,-110,-16,2,-2,1,6
-6,14,-10,-40,-23,-17,-6,-6
1,1,-63,-7,6,10,3,2
6,8,-56,-14,7,10,7,9
-15,-41,-84,-79,-14,-12,-6,-11
-27,-54,13,70,3,-14,-15,-20
33,46,-6,-61,-4,11,12,26
-9,-7,-28,-33,-9,-4,-3,-8
-1,-6,35,-29,1,0,0,-2
-9,-7,1,-1,-8,-7,-5,-7
-31,-77,-44,14,-6,-12,-9,-17
1,-4,-41,13,-1,0,0,5
-7,-17,-64,-17,-17,-9,-6,-9
33,106,100,79,27,15,12,14
-15,-14,4,3,-6,-7,-6,-7
-22,-62,-109,-92,-35,-20,-10,-12
12,20,-3,9,25,14,6,6
-3,-63,-128,-83,-10,2,1,2
-5,5,32,75,8,5,-1,-4
-34,-92,-67,-81,-26,-20,-15,-20
59,65,-6,108,45,34,21,34
-21,-50,-60,-56,-25,-13,-10,-10
-4,-10,-47,-70,-13,-6,-2,-2
-2,-21,-42,106,7,-6,-4,1
6,73,127,33,13,5,1,-5
-22,-20,-86,-64,-34,-22,-13,-12
30,45,73,108,35,22,11,16
7,26,47,-7,-2,2,0,1
-29,-57,-98,-44,-22,-17,-12,-18
32,40,42,100,34,26,14,22
-26,-18,-89,-81,-34,-22,-14,-18
7,32,33,-33,11,6,6,2
29,19,-39,48,23,16,9,21
-29,-40,-39,-36,-21,-14,-10,-19
-22,-34,-64,-88,-32,-21,-12,-18
35,58,8,68,45,29,18,24
-17,-27,5,-19,-29,-15,-8,-9
-20,-32,-78,-97,-27,-18,-9,-17
12,-11,-29,-20,15,12,7,7
28,53,71,86,52,22,9,17
-16,-6,4,-40,-14,-13,-6,-8
-24,-83,-52,-14,-9,-10,-9,-15
9,14,-7,-28,-5,-3,-3,2
-5,-15,93,93,5,0,-1,-1
-5,-6,-27,-21,-4,1,2,1
-3,-18,-72,-23,-7,-4,1,-2
-29,-16,15,-78,-22,-18,-9,-8
23,23,55,50,6,4,-3,5
-16,-39,-29,-17,-6,-7,-2,-10
10,48,112,36,9,6,4,7
-17,-50,-86,4,-1,0,-4,-10
17,53,79,-20,-8,3,5,6
4,-19,-42,0,3,6,-2,7
6,22,32,22,11,3,2,6
6,25,30,54,5,-1,1,0
-17,-37,-9,-22,-19,-11,-6,-5
-4,-6,-96,-69,-7,-10,-8,-15
9,33,-7,-44,2,9,7,5
2,-2,-53,14,10,7,1,6
-19,-15,-15,-10,-12,-7,-5,-14
11,47,127,0,-1,0,2,-3
4,0,43,41,10,6,1,16
-13,-2,-30,3,-8,-7,-2,-26
2,-12,40,-35,-5,3,4,6
30,71,34,45,17,7,9,30
12,17,27,71,18,13,5,6
-13,-22,-44,-36,-19,-10,-5,-10
-10,-19,-14,-3,3,2,-4,-8
-14,-39,-65,-8,-13,-9,-6,-6
-2,-18,-5,2,-1,0,0,3
-19,-24,-69,-52,-32,-23,-14,-21
43,45,-52,53,48,29,17,21
-16,-36,-1,-62,-15,-7,-2,12
22,41,50,35,29,22,15,11
-1,18,25,45,10,5,-2,-6
-25,-41,-128,-88,-30,-21,-10,-7
11,-9,-11,55,14,5,-1,-2
4,35,66,38,-1,-8,-4,-7
48,30,101,106,48,30,21,32
-15,-11,-73,-14,-17,-13,-7,-13
-14,-31,-80,24,10,3,2,-12
28,75,4,-23,3,3,7,13
15,13,51,83,27,13,8,15
-5,-9,-36,-34,-18,-9,-7,-6
-14,-16,63,-49,-23,-11,-8,-15
7,21,37,7,5,0,3,11
15,13,33,64,22,13,7,16
-13,-5,-68,-108,-39,-18,-5,-13
-24,-27,-40,25,12,0,-10,-25
-25,-53,-128,-128,-49,-28,-14,-18
0,-7,-31,-20,-4,-5,1,6
3,37,46,-6,-6,-5,-4,-3
19,39,69,105,48,28,14,15
-25,-67,-119,-92,-26,-10,-13,-16
-29,-45,-113,-128,-45,-25,-10,-15
-7,-58,-128,-4,8,-2,-4,-5
-5,0,-39,-46,-9,-6,-5,-3
-12,-41,-52,-47,0,1,-2,-5
35,39,-10,63,29,22,12,19
0,33,74,-9,-5,-4,0,0
3,9,55,49,14,5,2,-1
-28,-49,-128,-85,-37,-24,-16,-17
-19,-48,-96,-32,-25,-19,-13,-10
32,43,-31,107,44,29,15,26
-6,-21,-118,-33,-23,-11,-9,-7
-3,-2,21,-71,7,5,4,-2
-3,12,-62,44,10,5,0,0
-5,2,-1,-23,-8,-4,-1,-2
-18,-44,-51,-56,-31,-18,-11,-14
-5,11,-105,56,10,-1,-4,-16
49,105,92,57,42,27,25,46
-17,8,-51,-39,-32,-18,-13,-8
-24,-72,-128,-97,-16,-8,-11,-19
10,1,81,119,29,14,5,10
3,13,81,-5,3,4,-4,-17
-40,-90,-109,-102,-31,-26,-17,-22
46,87,66,33,31,18,20,40
2,-25,-76,-9,6,13,3,0
-26,-7,-83,-117,-30,-19,-11,-17
22,20,52,125,52,29,15,14
-9,-8,-56,-31,-16,-6,-4,-8
-9,9,6,-46,-26,-21,-8,-6
23,27,44,23,25,20,9,18
-14,-24,-31,-24,-19,-8,-4,-8
11,36,74,35,15,4,3,1
-2,-6,-40,11,-2,0,0,2
-4,-12,80,36,3,1,-4,-7
16,52,9,18,9,2,3,8
-12,-35,-29,16,-14,-12,-10,-8
-3,-15,-28,1,-3,-7,-5,-1
-29,-40,-99,-87,-34,-25,-17,-21
41,24,-16,28,42,37,20,24
-6,44,-91,18,-3,-4,1,-1
-7,-59,-58,-95,-20,-7,-3,-3
-3,-16,-115,-6,2,0,-1,3
-25,-57,-111,-128,-28,-14,-10,-21
14,30,80,62,10,9,8,11
16,47,55,28,11,6,4,6
-10,2,-24,21,-8,-8,-3,-7
-23,-45,-51,-109,-30,-20,-11,-14
18,4,72,77,34,17,7,13
-2,-12,26,41,9,3,1,1
-19,1,29,-100,-32,-20,-10,-11
17,26,52,25,30,12,6,12
8,13,-19,-60,-6,4,2,4
-20,9,28,-6,-23,-17,-9,-18
-23,-58,-97,-57,-11,-10,-6,-16
17,44,127,71,7,3,2,11
-1,31,-42,-68,-11,-5,-1,8
0,-2,-10,-41,-3,6,3,1
-19,-16,-37,-80,-20,-12,-5,-18
13,55,85,118,30,11,5,3
15,3,-73,-85,-3,2,-2,5
-7,-24,-83,44,9,2,-2,-4
35,94,121,70,21,8,9,13
7,-21,-119,-76,-6,3,4,11
-27,-49,-48,20,-15,-13,-12,-18
-4,-15,-101,-70,8,3,1,-5
21,20,127,93,31,15,7,15
-4,32,-28,3,-20,-10,-5,-2
-34,-86,-105,-30,-18,-15,-11,-28
39,57,101,81,38,28,17,23
-13,-23,-91,-40,-21,-8,-7,-6
-13,-36,-19,-19,3,-1,-4,-8
-4,-13,-41,27,0,-4,-1,-2
0,-3,30,51,-3,-5,-2,-1
-2,4,11,-53,-5,0,1,5
20,13,19,91,27,11,5,10
-12,4,14,0,-10,-7,-6,-7
5,3,-4,-37,8,4,2,0
-2,-20,-29,-14,-12,-4,-1,-2
-25,-28,-30,-61,-26,-18,-8,-12
12,28,83,10,-4,-4,-1,2
-19,-48,-112,-41,-24,-14,-8,-10
-11,-37,-110,-48,-4,-3,-5,3
0,8,-8,54,16,11,5,-1
-6,-8,-11,-66,-28,-14,-5,1
26,63,96,14,19,10,8,11
-5,-23,-42,43,11,3,-2,-9
-9,-9,24,-41,-15,-6,-4,-9
12,24,-13,9,13,11,5,9
-29,-42,-87,-128,-40,-26,-15,-19
43,60,85,127,70,33,18,22
-5,-12,-38,-14,-11,-8,-4,-1
-26,-58,-97,-83,-15,-10,-8,-13
5,-4,-79,101,23,12,3,9
-9,1,-78,-76,-23,-14,-3,-7
-13,-42,-89,-26,-9,-8,-5,-10
17,18,56,76,29,15,9,13
-16,-18,9,-33,-19,-12,-7,-11
-16,-23,-84,-53,-16,-7,-8,-9
13,35,65,47,5,9,5,7
-2,-18,-35,-12,-5,-2,-1,-1
6,14,-13,34,21,11,2,4
15,46,127,82,0,-3,-1,9
-12,-43,-35,-93,-15,-9,-7,-11
8,31,75,106,18,6,0,-8
-4,-7,-20,-18,-18,-3,0,5
-35,-68,-92,-113,-30,-14,-8,-18
8,9,66,49,24,6,2,8
2,11,-73,43,3,2,0,-1
-30,-67,-85,-95,-39,-23,-13,-20
13,21,-57,44,14,10,4,9
-6,12,-4,-55,-17,-10,-6,-5
-9,18,-14,-23,-16,-11,-7,-11
20,1,-58,-34,23,20,13,20
-7,-1,38,18,-11,-8,-3,-6
3,31,62,63,-1,-3,1,-2
7,16,23,-10,3,6,3,6
-4,13,92,55,-1,-12,-7,0
-3,-8,-30,-62,-8,-4,-1,-6
18,43,-3,28,16,13,7,7
-9,-22,-40,39,2,-1,-2,-2
2,-7,25,5,1,4,0,2
-7,23,-15,-3,5,1,-5,-14
-46,-55,-85,-128,-61,-44,-20,-30
50,91,99,65,47,24,19,33
1,-7,-74,-12,0,2,1,6
-15,-35,-22,-25,-22,-11,-7,-13
-15,-15,-52,-38,-11,-8,-6,-14
32,34,65,56,31,19,10,15
9,67,18,13,1,0,-1,3
-3,-9,-14,-2,-2,0,0,-1
-8,-33,-111,-56,-10,-4,-3,-5
7,4,-50,6,16,10,8,8
-4,2,20,54,-1,-5,-5,-5
-24,-63,-74,-56,-43,-25,-11,-11
24,42,-128,74,28,19,7,17
-23,-15,-65,-117,-44,-22,-9,-15
1,0,-17,-23,5,3,-3,-7
-1,-6,31,66,18,9,2,1
24,21,115,11,17,12,11,18
-36,-63,-112,-105,-35,-22,-13,-18
15,23,23,74,21,16,8,9
-12,-41,-53,-80,-18,-14,-5,-7
-6,-28,-42,52,8,1,-4,-4
-1,-25,28,-28,-3,2,3,1
0,17,1,51,8,1,-2,1
1,-10,-45,-32,-7,0,-1,3
-24,-31,-45,-3,-22,-19,-9,-18
-1,26,-80,-42,1,-1,-3,-2
-10,-41,-63,-38,-12,-9,-7,-3
22,41,58,74,26,15,10,13
-1,6,42,-21,-2,4,3,0
-4,-12,31,16,-6,-8,-8,-12
3,16,13,-51,-5,-5,-1,-2
5,33,44,68,9,0,-2,2
0,-56,-88,-28,1,3,1,2
37,94,65,89,33,22,16,21
-4,-15,-39,-23,-8,-1,-1,-1
10,59,51,-5,-8,-5,2,1
-12,-44,-117,-49,4,1,1,-1
6,7,-33,29,5,4,1,3
-13,-18,-49,-64,-23,-15,-4,-11
-1,1,-34,29,15,5,0,-2
-16,-28,-48,-51,-26,-20,-12,-10
22,53,59,12,17,13,8,13
-9,-12,-6,33,-1,-1,-5,-6
-9,-38,-42,-37,-13,-7,-7,-5
9,51,78,-4,1,1,0,7
-11,-49,-38,-35,-8,-3,-2,-4
5,14,37,32,-2,-1,1,4
-20,-37,-64,-20,-13,-6,-7,-15
34,45,55,73,30,20,13,21
-30,-45,-94,-60,-28,-18,-11,-17
-9,15,39,-25,-12,-12,-8,-15
-5,-22,-29,-19,2,4,-1,2
-15,-24,-65,-69,-24,-15,-8,-9
-28,-70,-54,-23,-23,-18,-10,-16
14,10,-76,-1,14,12,5,18
5,40,45,14,7,3,1,1
-14,-48,-66,-18,-6,-4,-5,-10
36,59,113,85,30,20,12,18
-16,-44,-121,-11,-8,-9,-7,-12
2,-6,-41,-48,-4,-2,1,0
1,18,46,-21,-7,-1,0,3
-7,-5,-18,47,33,9,-2,-7
12,24,-25,-51,2,5,6,5
5,-13,-61,-11,1,0,-1,5
22,49,116,7,15,12,8,8
-23,-50,-44,32,-6,-7,-9,-16
5,23,14,11,-5,0,-1,-2
2,15,-13,20,4,0,0,4
-20,-29,-24,-45,-24,-15,-9,-12
-2,19,-2,-28,-8,-4,-3,-2
1,-28,-74,-3,12,9,2,6
3,-30,-2,60,6,2,-1,-3
-1,62,32,-3,-8,-10,-1,-4
12,16,25,12,6,9,4,8
-11,-13,-18,28,-4,-4,-4,-11
6,8,23,-11,3,-1,1,6
-22,-41,-99,9,-5,-5,-3,-11
36,75,74,4,31,21,15,22
-18,-27,19,-32,-15,-13,-8,-13
18,43,98,67,12,11,6,9
5,5,34,30,6,5,3,5
-19,-46,-128,-87,-37,-16,-7,-9
7,1,13,-19,3,0,-2,1
-3,3,-4,-6,-3,-3,-3,-4
-5,7,25,-21,-7,-3,-3,3
-5,-6,-21,-20,-11,-9,-7,-6
12,-8,80,78,22,10,7,10
0,38,-37,-32,-5,-2,-1,2
14,7,23,61,9,6,1,6
-21,-44,-34,-93,-32,-15,-6,-10
-19,-22,-81,-59,-21,-18,-14,-13
-1,-4,-47,-52,-5,-1,1,-2
-10,-71,-128,21,6,3,-4,-5
10,63,106,34,3,4,2,4
-24,-35,-86,-105,-30,-22,-10,-16
35,45,42,91,50,25,17,23
-1,13,-54,-22,2,1,-3,-4
-31,-55,-104,-26,-21,-19,-13,-17
29,56,50,38,25,22,14,17
6,29,9,-54,-7,-2,0,4
10,8,104,106,32,17,8,7
-22,-46,-103,-44,-14,-12,-9,-11
32,72,127,23,24,16,14,14
-6,-17,-50,27,-1,1,-3,-1
-19,-36,-99,-58,-25,-15,-9,-13
18,14,82,67,18,13,6,15
-15,-36,-61,-21,-17,-11,-8,-12
4,-14,22,5,9,8,6,0
-8,6,14,24,-7,-5,-2,-6
-18,-31,24,4,-19,-18,-12,-15
7,9,-16,9,8,7,4,8
-18,-33,-40,-8,-17,-10,-10,-11
31,61,107,68,27,16,10,13
-16,-12,-64,-89,-29,-20,-10,-11
24,22,5,78,39,27,14,21
-20,-30,-85,-66,-22,-8,-7,-12
-30,-48,-64,-37,-24,-22,-15,-23
24,5,-98,17,13,12,8,14
-9,-21,-50,4,-5,-5,-4,-2
-12,-25,-27,-21,-9,-8,-5,-10
-12,-25,-28,-43,-20,-14,-10,-7
18,22,48,47,23,11,8,8
-17,-16,-79,-38,-21,-13,-8,-6
11,27,65,97,43,14,4,7
30,58,11,16,24,22,15,19
-14,-22,-47,-50,-13,-6,-7,-10
2,19,86,47,8,-1,-1,0
-18,-38,-97,-115,-36,-21,-11,-13
18,48,70,101,26,11,6,5
-14,-35,-67,-47,-11,-8,-4,-8
5,-11,-68,46,-1,4,1,6
0,8,-29,-13,-9,-1,2,5
-7,-22,-33,-44,-7,-4,-2,-3
-10,-3,-5,-23,-9,-3,-4,-5
-14,-16,5,-3,-13,-13,-8,-19
1,-3,32,-3,4,-1,-1,-1
-24,-49,-94,-60,-30,-19,-14,-11
50,45,19,69,54,39,24,34
-2,55,81,42,-6,-4,-5,-3
1,1,9,1,-2,1,-1,1
-37,-82,-128,-128,-38,-22,-11,-21
30,78,63,94,39,14,5,9
-7,-11,-26,-70,-9,-4,0,0
-2,-34,-125,-5,-1,1,-1,0
15,34,-14,7,18,10,6,9
-16,-13,45,-14,-21,-15,-8,-12
6,5,-83,-38,7,0,2,3
6,31,29,-1,-7,-3,1,1
2,-5,-65,-4,-6,-3,-2,2
-17,-32,-17,-11,-9,-2,-7,-6
-1,-27,-49,-13,-2,2,0,-3
-17,-39,-56,-50,-17,-18,-14,-11
18,39,95,7,9,7,5,9
14,62,14,18,9,11,8,12
-18,-40,-42,-40,-19,-13,-9,-13
-13,-15,28,5,-10,-10,-8,-11
26,43,87,31,17,11,10,15
-17,-46,-128,25,-8,-9,-7,-4
-6,-2,72,-29,-5,-4,1,-3
12,48,-3,24,13,11,9,6
-29,-36,-59,-53,-28,-22,-14,-16
-21,-66,-51,-67,-12,-7,-5,-13
18,16,-18,48,13,8,3,11
-27,-61,-87,-32,-25,-20,-15,-18
9,36,92,23,7,11,6,8
-22,-47,-50,-15,-11,-7,-5,-11
-23,-48,-86,-93,-29,-18,-9,-11
20,53,-9,37,26,18,9,10
-15,-39,-119,-9,-3,-2,-5,-8
7,32,10,-59,-19,-14,-5,-8
33,53,67,85,38,17,9,19
17,22,76,74,21,15,8,15
-4,7,-4,-30,-8,-2,-1,-5
-10,-26,2,-25,-9,-6,-4,-9
-11,-8,7,-47,-18,-13,-4,-12
36,55,109,-12,25,18,13,20
-6,-24,-65,44,2,-1,-2,2
-10,15,63,-18,-21,-21,-11,-12
11,17,-80,3,9,12,6,7
-11,-25,-84,-32,-6,-4,-1,-2
6,8,-41,-40,4,3,3,3
11,29,83,63,7,8,4,5
-13,-23,-83,10,-7,-5,-7,-7
-22,-49,-116,-79,-28,-20,-8,-12
16,34,-6,48,25,13,5,7
0,-41,-79,-50,-5,-6,-3,0
25,55,49,-26,26,22,14,19
-20,-32,2,-9,-18,-11,-9,-15
-23,-39,-49,-62,-29,-21,-12,-20
27,32,-17,71,32,25,14,22
-40,-73,-103,-95,-47,-35,-21,-31
40,54,61,104,48,33,17,30
-4,-17,-93,14,-2,0,-4,-2
-22,-27,-86,-40,-21,-11,-7,-16
-6,5,-9,2,-3,-1,-3,-3
-7,-19,-17,-36,-4,0,0,-6
12,32,126,81,16,4,2,3
-10,-19,-72,-42,-18,-13,-5,-5
-1,6,-3,5,5,2,-2,-2
23,31,84,51,22,15,9,12
1,-3,-7,-14,-6,2,1,3
-5,-3,-29,-30,-11,-5,-3,-5
-14,-31,-57,-63,-25,-14,-9,-10
15,39,25,93,35,18,7,7
-10,-14,30,14,-4,-9,-8,-3
7,8,12,-7,4,4,3,4
-9,-26,-14,11,-8,-9,-3,-6
-8,-6,7,-57,-15,-11,-4,-8
5,35,95,45,13,2,3,1
11,58,47,66,19,8,3,4
17,22,59,31,14,12,10,13
-24,-39,-103,-87,-34,-18,-12,-15
1,-22,25,19,5,4,2,3
-14,-27,-64,-35,-13,-11,-6,-7
2,7,-44,7,8,4,3,-2
-1,11,59,-1,-7,-3,-2,0
-16,-21,-127,-118,-32,-19,-10,-12
36,39,106,92,48,31,17,20
4,14,40,127,20,5,-3,3
-26,-65,-119,-37,-26,-13,-11,-13
-7,-8,-52,-45,-11,-3,-2,-5
-7,-15,-54,-21,-15,-6,-4,-4
-3,-4,-13,-63,-1,-5,-4,-3
0,19,42,59,6,-5,-5,-3
0,7,29,-11,-1,-1,0,2
18,29,73,75,24,14,8,10
4,31,-24,-73,-10,-3,0,1
-21,-62,-104,-10,-23,-16,-9,-10
48,100,85,92,42,29,21,24
-14,-22,-35,-37,-12,-8,-5,-6
-11,-22,-15,22,-7,-6,-9,-9
2,14,-56,-104,-9,-5,-1,-2
-19,-40,-79,12,-7,-13,-11,-16
9,-29,-122,-16,-1,2,1,9
-11,6,12,-36,-20,-12,-4,-7
21,56,61,80,22,11,8,7
-14,-50,-100,2,-13,-3,-6,-4
-29,-34,-63,-89,-29,-19,-12,-20
4,-4,-52,-53,8,6,5,5
-5,-23,-1,-13,-12,-9,-7,-1
-13,-18,-34,0,-15,-11,-6,-7
18,42,56,47,21,11,8,9
-16,-28,23,-30,-20,-11,-7,-12
8,12,10,20,15,11,5,4
11,24,8,12,22,11,7,8
-29,-62,-80,-44,-15,-12,-10,-14
10,23,47,57,7,5,0,3
-10,-11,-125,-14,-15,-7,-6,-5
-12,-29,-97,-13,-16,-12,-7,-7
1,-33,-5,39,14,1,1,-2
21,40,74,63,29,16,10,14
-12,-4,9,-41,-16,-11,-7,-7
-4,-39,15,-56,-3,1,2,-2
7,35,-21,-15,10,10,3,4
5,-9,69,85,10,2,-1,3
5,14,-19,-4,-6,-3,-1,3
2,26,-28,-86,-10,-5,0,1
-2,-6,-2,-10,-10,-4,-3,-1
-2,29,86,55,2,3,0,-6
7,10,-100,-11,13,8,3,1
-4,-10,-16,32,6,0,2,1
-9,15,-75,-62,-15,-12,-6,-6
-5,-19,16,22,-3,-4,-6,-4
5,7,7,4,-6,-1,2,4
6,9,12,6,3,3,1,1
-12,-7,4,-23,-18,-13,-7,-7
-8,-49,-67,-28,2,3,0,0
-10,-26,-7,-14,-2,-4,-2,-8
31,58,76,28,14,16,8,18
-18,-31,-47,-48,-20,-8,-5,-8
23,54,8,98,33,13,11,9
-1,-11,-21,-74,-9,-3,-1,-3
-16,-18,75,63,-8,-9,-7,-9
17,27,95,21,15,9,6,8
1,7,34,-34,-6,0,3,6
-6,-12,6,27,-8,-6,-6,-5
-7,-16,15,4,-3,-2,-4,-8
30,61,89,32,24,14,9,15
-19,-45,-86,5,-9,-9,-6,-11
-1,0,7,8,0,0,-2,-4
3,22,41,41,4,-1,-1,8
-3,-25,-48,-12,-8,0,3,0
-2,-10,-104,-68,-13,-5,-1,-3
-8,-8,-4,22,2,-4,-4,-7
-3,11,-46,-41,-7,-6,-2,-7
-9,-11,-12,6,-12,-8,-6,-3
19,46,7,11,6,6,6,11
-13,-70,-82,8,-3,0,-1,-2
5,70,44,-49,-7,1,2,0
-19,-38,-101,-56,-15,-11,-8,-13
15,-17,-78,-21,13,9,2,10
-7,-1,-22,-50,-14,-8,-4,-1
0,-11,-72,-18,4,-2,-1,0
-13,-27,2,11,-14,-7,-8,-9
-8,9,74,16,-1,-4,-2,-10
5,20,61,4,1,1,2,4
6,-21,-94,19,19,10,2,6
2,15,41,31,8,1,2,-3
-5,-22,-40,-24,0,-2,-3,-2
5,6,3,47,5,5,3,5
-16,-25,-61,-53,-15,-10,-3,-11
5,20,49,-8,-4,-5,-1,-2
14,34,33,38,9,8,4,7
-14,-18,-45,-52,-17,-9,-5,-10
28,75,66,107,31,17,9,15
-11,-47,-121,-54,-9,-5,-2,-3
6,27,39,-13,1,4,4,4
3,-18,-45,14,4,5,0,6
-7,1,-13,-46,-19,-10,-6,-10
12,67,67,-22,5,2,3,3
-8,-17,-52,-30,-10,-5,-5,1
3,5,15,33,11,4,0,-3
1,-21,-31,-22,-16,-7,-2,0
-15,-27,-57,-32,-14,-10,-8,-7
-7,-17,-26,-10,-4,-4,-5,-5
3,15,29,-13,5,4,4,2
-3,-16,19,-2,0,-1,-2,-1
-2,-5,89,55,7,3,1,-2
19,55,61,17,2,4,3,5
7,-2,-22,36,3,1,1,7
-2,2,28,-7,-6,-1,-2,-3
-2,5,-27,24,4,6,1,1
-16,-22,-39,-25,-11,-9,-7,-10
5,30,60,29,10,2,0,0
-16,-42,-92,-40,-12,-7,-7,-11
16,14,29,32,15,10,7,12
-12,-26,-26,7,-11,-14,-8,-11
-6,7,-17,-52,-8,0,0,2
-15,-58,-78,-27,-8,-6,-5,-9
-5,-18,18,39,14,6,-3,-2
-3,-22,-105,-63,-12,-1,0,-2
-2,13,26,-3,-3,-6,-2,-7
-7,-14,-19,11,2,-4,-3,-5
1,-32,-81,-99,-18,-6,-1,3
2,25,-88,57,22,11,4,4
-2,-5,-14,14,-4,-3,-3,-4
-1,11,14,-18,-2,0,0,0
-8,-5,-25,-4,-5,-9,-6,-8
-10,-34,57,-37,-14,-6,-4,-4
2,-11,-107,37,22,10,4,5
-7,-12,9,-39,-21,-9,-6,-5
4,41,-70,14,7,3,1,1
-6,-4,37,-17,-11,-7,-4,-4
-10,-10,72,6,-7,-6,-5,-7
12,6,-67,-9,6,6,2,8
-11,-7,-14,25,0,-2,-2,-7
-2,-7,-5,-20,-5,-5,-2,-4
-5,-2,-48,-81,-16,-5,0,-5
4,1,23,76,10,3,2,4
-1,9,2,-42,-8,-7,-2,-2
-10,-12,-57,-37,-8,-4,-6,-7
16,27,51,86,30,15,7,7
-1,3,-24,-18,0,1,-1,0
2,9,66,40,3,2,0,0
-7,1,27,-1,-15,-13,-7,-4
6,-3,56,-3,5,4,5,4
1,6,23,49,9,1,-1,1
-2,-18,-52,2,-10,-3,-2,-2
0,4,12,19,7,3,0,-3
-8,-12,16,-39,-21,-12,-7,-8
11,27,-8,-17,8,5,5,5
1,-48,-61,-21,1,2,-1,2
4,11,-19,-3,0,2,1,2
5,9,32,40,-1,0,-1,3
-10,-13,-6,-29,-10,-7,-2,-7
-17,-43,-48,-46,-17,-10,-8,-13
11,19,-50,-26,6,7,6,7
-1,-13,-54,-20,-3,-4,-1,-1
10,5,-34,4,4,6,3,8
-1,21,24,33,-3,-2,0,-1
3,-13,-25,-15,-1,1,2,0
-6,15,-41,-24,-9,-4,-3,-5
-7,-26,-44,-24,-5,-1,-2,-2
8,10,86,29,13,4,2,3
-14,-30,-45,30,-14,-15,-8,-7
28,69,61,-15,12,14,10,14
8,26,127,103,22,14,5,4
-4,-2,-80,-41,-8,-2,0,-1
7,45,96,47,0,1,3,4
-7,-23,-31,-24,1,-4,-4,-4
-1,-9,-21,-21,-4,-2,-2,1
1,13,15,-26,-2,0,0,0
-2,-12,16,21,7,4,0,1
10,45,87,16,-7,-6,-2,4
-10,-10,-26,-42,-8,-7,-5,-8
12,2,-53,15,8,5,2,8
-17,-30,-55,-21,-6,-7,-6,-10
5,25,41,92,16,5,-2,1
-10,-19,-9,-6,-11,-8,-7,-6
2,28,86,-11,-2,-2,1,-3
-5,-51,-91,9,1,-2,-2,-8
-5,-17,-90,-24,-5,1,2,1
1,25,-15,40,0,-1,-2,-3
-8,-8,-5,-12,-7,-5,-5,-3
17,15,-49,4,19,12,6,11
-12,-34,-51,-35,-16,-6,-8,-6
-9,-30,-24,9,2,0,-1,-5
-1,-3,17,0,0,-4,0,-3
-12,-16,-22,-31,-18,-10,-4,-4
17,43,14,20,10,-1,2,7
5,14,68,34,5,4,4,5
-2,-3,-32,9,-1,0,-3,-3
4,9,7,-9,5,4,4,3
-14,-27,-49,-56,-18,-9,-6,-8
10,11,45,11,11,3,2,4
-4,-21,7,30,-4,-6,-3,-2
10,27,-34,0,14,8,1,4
-18,-24,-29,-39,-10,-7,-4,-11
9,6,-32,62,3,-5,-2,1
-10,-30,-55,-43,-3,4,0,-4
4,24,49,50,7,6,3,3
-4,-11,-3,-6,-3,-2,-1,-1
-12,-14,-12,-34,-6,-3,-5,-9
6,15,-48,33,13,6,0,2
-4,3,37,-24,-8,-7,-5,-5
-1,-3,-3,6,2,6,0,-1
-14,-48,-92,-56,-18,-9,-7,-7
19,49,87,53,19,10,5,11
-6,0,-50,23,6,3,-1,-3
11,14,55,24,4,1,1,4
-11,0,13,-32,-14,-11,-7,-10
-2,-14,-62,-18,-8,-8,-2,-3
-11,-21,-59,-34,-9,-4,-4,-4
-1,3,57,30,5,4,1,-1
10,7,13,-19,12,8,5,8
-1,8,34,-5,-4,-2,0,2
4,6,40,-27,-14,-6,-2,0
-19,-29,13,-5,-2,-9,-5,-10
12,29,87,36,4,7,4,8
-4,-9,-43,-22,-4,4,0,-3
-5,-9,-35,-28,-13,-9,-6,-4
-4,-17,-22,-19,1,0,2,-2
6,29,92,-10,-3,-2,-2,-2
3,-21,-65,50,10,6,2,8
-9,-11,21,-10,-15,-7,-5,-8
6,0,-31,3,12,6,3,2
-6,-3,-50,-28,-8,-4,-3,-4
-5,-3,9,19,-3,-7,-3,-2
-21,-62,-16,-43,-15,-14,-11,-13
30,54,-65,52,21,14,9,18
-12,-37,-78,12,4,3,1,-3
-4,13,36,-5,-4,2,1,-4
-12,-38,-20,-8,0,-4,-3,-7
-3,19,-64,-52,-12,-6,-6,-6
-2,-23,-71,-9,-8,-4,-2,1
14,18,45,45,15,3,1,8
-3,15,75,13,-8,-3,-4,-2
4,3,-35,-10,6,5,2,3
1,0,-17,-6,5,1,1,2
-29,1,-112,-74,-31,-23,-13,-24
27,12,-70,-9,18,17,14,23
-9,-3,23,59,-2,-5,-5,-6
0,-10,-33,-27,-3,2,1,-4
-7,-11,55,41,-3,-5,-5,-5
16,77,74,33,14,2,1,6
-27,-40,-45,-33,-26,-15,-12,-12
17,-4,-19,10,18,19,11,15
0,31,-10,-37,-8,-3,-3,-4
4,-5,59,34,1,2,2,0
-4,-12,-2,8,-4,-5,-2,-1
-8,12,69,-7,-7,-9,-6,-6
35,29,-47,43,39,26,14,21
4,7,-9,-7,-2,1,-2,-1
-12,-32,20,-32,-9,-5,-4,-7
-14,20,12,-24,-14,-13,-9,-9
17,58,55,10,2,7,5,6
7,15,27,40,15,6,5,6
5,-8,-84,-48,-1,2,4,5
7,0,-45,-23,3,3,3,3
-16,-25,35,2,-16,-10,-8,-8
6,21,40,7,-1,-2,-1,1
-19,-39,-67,-26,-15,-15,-7,-12
10,19,-37,17,6,3,3,1
-16,-32,-88,-44,-11,-8,-5,-9
-3,-24,-60,-31,-12,-5,-2,-1
17,25,76,92,19,6,4,6
-8,-4,-29,32,-1,-3,-6,1
-25,-59,-105,-102,-22,-14,-8,-15
14,19,-55,74,19,8,4,8
-10,-24,-57,-28,-15,-8,-5,-7
11,15,34,44,13,5,2,4
5,33,35,28,8,4,4,3
-14,-30,-32,-79,-22,-10,-6,-9
12,35,108,43,16,8,5,6
2,-24,7,5,-2,2,2,1
-1,-2,-17,-54,-15,-6,-2,0
-4,14,70,88,12,1,-2,-6
0,-9,-37,-19,-4,2,0,-1
-19,-23,-40,-1,-7,-8,-8,-12
19,42,127,52,7,9,5,12
-7,5,-77,-16,3,-3,-4,-7
6,28,91,32,9,2,0,-2
-2,0,-59,-1,0,2,-1,0
-12,-33,-49,-35,-12,-11,-6,-8
-2,-17,-25,11,0,1,0,-3
-3,3,-8,-7,1,1,0,5
2,-3,-6,-22,-4,-1,2,2
-6,-14,-28,-6,-5,-3,-2,-4
2,-3,8,6,2,0,0,2
-4,15,-88,-38,-10,-6,-3,-5
2,-1,-16,-15,-5,-2,-2,-1
-1,-3,4,30,4,0,0,1
0,-1,-30,-28,1,1,1,0
-3,-34,13,7,-6,-1,-2,-2
3,21,-39,-41,-6,0,-1,1
-9,-1,56,-1,2,-2,-1,-7
3,-11,-123,15,6,4,1,5
-2,21,-10,-22,-3,-1,-2,-5
-11,-19,-37,16,-9,-10,-4,-8
19,13,63,22,20,15,8,13
-2,9,30,-7,-4,-1,1,2
-13,-36,-49,-76,-16,-10,-5,-7
-3,-3,-92,-21,-6,-3,-1,-2
-2,-1,-67,-4,-3,-1,-4,-3
-6,-9,51,41,1,-4,-3,-6
8,21,15,-11,-2,-3,0,4
3,2,15,-12,8,4,2,2
2,-9,-40,27,5,0,0,1
-2,-1,27,-9,-7,-4,-1,-4
-9,2,-16,-5,-6,-6,-5,-6
8,20,-27,13,11,6,6,6
-8,-17,-58,-6,-11,-7,-5,-4
-14,-7,18,-51,-19,-13,-8,-9
-3,-31,-73,56,16,5,-1,-2
19,46,107,63,7,6,3,9
-3,0,-59,-18,-4,-3,-1,-1
-11,-30,-125,-47,-7,-3,-6,-6
6,8,109,35,9,2,2,2
5,14,14,-16,0,-1,1,2
3,40,82,36,7,2,0,0
-1,4,26,3,0,4,3,0
-5,-29,-77,-24,-10,-3,-4,0
-3,10,14,1,5,1,-4,-3
-6,-22,-44,-21,-9,-6,-5,-4
14,44,90,49,13,8,4,5
-12,-22,-110,6,-15,-7,-6,-5
-3,-29,49,14,-5,-6,-5,-4
9,36,-37,21,4,2,1,3
-1,-2,-10,-36,-1,2,3,-3
3,1,1,10,2,3,2,1
