-2,0,-3,-3,-4,1,-3,-2
0,-2,-1,0,-7,-12,-4,-2
-2,-1,2,1,9,27,2,-2
0,-1,-2,-1,0,-9,0,-2
-2,0,0,-1,-6,-8,-3,0
-1,0,0,2,1,-3,1,1
-1,0,-2,-4,-5,-5,-4,0
0,-3,-2,-2,0,9,3,-1
1,0,0,1,-1,-8,2,-1
-2,-2,-3,-2,0,6,-3,-4
0,1,-2,-1,-4,-11,-2,-2
-2,-2,1,2,0,2,1,-1
0,-3,-6,-1,-1,-5,-5,-2
0,2,2,-1,-6,-9,0,0
-1,1,-3,-2,-2,1,-1,0
-1,-2,-5,-3,2,0,-2,-1
-2,-5,-1,-4,-6,-4,-2,-3
-1,0,-1,2,1,0,-2,0
1,-3,0,-1,-4,-13,-5,-1
-1,-1,0,1,0,3,2,0
-3,0,0,-2,1,-6,-1,0
-2,-1,-5,-4,1,8,2,-2
-2,-1,-1,-1,-1,1,0,-2
-1,-1,-2,-2,-1,-5,-1,-2
-1,-1,-3,0,-2,-3,0,-1
0,0,1,-1,-3,-3,-1,-2
-3,-4,-1,0,4,17,0,-2
1,-2,0,0,-5,-24,-5,-1
2,0,-2,-2,4,40,0,-3
-2,-1,-1,-2,3,2,1,1
-2,-3,-3,4,-3,-13,-2,-4
-4,-1,-5,-5,-3,1,3,1
-6,0,-1,0,-3,-22,-3,-1
1,1,1,-1,4,0,3,2
-1,0,2,-3,-3,2,1,-4
1,-3,1,0,-6,-6,-5,0
1,-2,-1,-1,0,-5,0,-1
0,-2,-6,-5,-3,-2,-4,-2
-2,0,0,-1,2,-1,1,0
-2,1,-2,-1,2,10,1,-1
-1,0,-1,-2,-8,-23,-4,0
-2,-2,2,0,-7,-15,-1,0
0,2,-3,-2,7,28,-4,1
0,-2,-1,-1,2,2,0,-2
1,-3,0,0,-1,-17,-1,0
1,-2,-1,-1,-2,8,-3,-3
-1,-3,-3,1,-2,6,-2,-2
-1,-1,2,-2,-10,-12,-3,-2
-2,1,-1,-1,6,-13,-2,-1
-2,-3,-3,-2,8,16,4,1
1,0,2,-3,-7,-24,-5,1
-1,0,-2,-2,-8,4,-4,-1
-3,-2,-2,-2,14,30,1,-4
-2,-3,-1,1,-2,-7,1,-1
-2,0,1,2,-1,6,-8,-3
-1,-1,0,-1,-13,-28,4,1
-3,-3,-2,-2,-4,-20,-17,-5
1,0,5,3,14,29,16,5
-2,0,-4,-3,1,-3,-8,-2
1,0,0,4,-2,8,10,4
-2,2,0,-3,-23,-34,1,0
-2,-2,4,4,19,18,-7,-4
0,-1,-6,-4,-23,-80,3,1
-4,-6,-8,-6,20,38,-15,-8
0,1,1,2,-10,24,15,4
-5,0,-2,-2,-8,9,-2,-3
-3,-3,3,-3,4,16,1,-2
-3,0,-1,1,13,-37,-10,-4
-1,-1,-1,-3,-26,45,9,2
-3,-2,-6,-4,22,-17,-4,-2
-1,-3,-2,-1,-31,20,-11,-4
1,2,0,1,17,-36,10,3
0,1,0,0,6,-10,8,0
1,-1,0,3,-2,13,-6,-3
-4,-3,-5,-9,-18,-37,-10,-4
-2,-3,-1,-1,15,73,4,-1
-1,2,1,-1,-5,-22,-9,-2
-4,-7,-6,-4,10,-35,-2,-4
-1,-3,0,-5,-27,-14,4,-1
-2,-4,-2,2,32,36,-6,-3
1,0,0,-3,-59,-4,6,3
-1,0,-4,-3,10,-23,-15,-6
2,1,0,8,6,25,18,9
-4,-2,-7,-18,-51,-46,-10,-1
-4,-6,-7,9,92,50,-3,-6
2,3,2,3,-16,10,9,4
-2,-1,-1,0,9,-21,-1,0
2,3,6,6,-38,-30,-9,2
-7,-7,-9,-18,-38,-57,-10,-9
-1,-2,0,9,45,11,7,3
2,2,6,6,41,56,2,1
-1,4,1,-5,-34,-30,-3,-1
3,3,5,3,19,-19,-6,3
-1,-3,-6,-7,-59,-49,-6,-3
-1,1,-6,-6,-1,11,9,-3
2,1,5,15,72,77,30,9
-3,-4,-3,-8,-17,36,-3,0
2,4,0,-2,-19,16,5,2
1,2,2,4,72,-3,-5,-3
-7,-6,-7,-18,-69,-72,-38,-16
7,7,7,13,-35,-41,52,19
-3,-3,-4,-2,15,59,-1,-4
0,0,-3,-8,-77,23,-2,-5
-6,-6,-3,5,80,-83,-21,-6
4,1,2,1,63,90,2,-3
2,2,2,2,-45,44,19,8
-5,-6,-3,1,70,-43,-12,-6
0,-3,-2,-3,-12,27,1,-2
6,4,4,9,-48,-12,8,6
-6,-3,-4,-8,-28,60,9,-5
0,0,-3,-3,46,29,-10,-2
7,7,9,18,61,48,12,12
-6,-6,-7,-13,-29,-78,-9,-3
-2,-1,5,6,15,-61,-21,-7
-9,-7,-8,-11,-41,-78,-9,-9
-5,-4,-7,-14,-45,-55,-20,-9
6,7,11,16,74,33,15,6
-4,-6,-8,-7,-26,-128,-5,-3
-7,-10,-12,-25,-96,-45,-24,-13
9,5,9,10,76,127,38,15
-9,-6,-8,-12,-18,-27,-19,-8
2,-1,-2,-13,-68,-97,-26,-1
-7,-4,-1,7,45,24,2,-5
5,2,5,-6,-15,60,33,9
7,4,0,12,16,21,33,14
-11,-14,-24,-47,-57,-94,-34,-17
22,19,23,26,31,43,43,31
-10,-3,-5,-9,-32,-68,-41,-16
-4,-3,-2,11,93,98,55,4
2,4,4,9,40,106,21,11
-7,-6,-4,2,-78,-57,-12,-5
-8,-7,-13,-31,-102,-76,0,-7
4,5,12,27,76,70,-11,2
-3,-3,-4,-10,-52,-9,26,-1
1,-1,2,9,71,52,-19,5
1,1,0,7,-32,36,27,7
-13,-11,-14,-23,-39,-124,-72,-32
11,11,18,26,51,48,0,11
-8,-13,-15,-22,-83,-77,-3,-4
7,4,14,51,74,65,40,9
-10,-9,-14,-51,-128,-128,-50,-17
6,4,5,13,26,27,26,11
-8,-6,-9,-28,-128,-41,-30,-23
6,6,2,15,42,9,-14,6
-4,-3,-4,6,-8,-89,18,-8
-4,-3,-3,-6,115,72,14,-1
5,5,1,-3,-13,9,22,7
-17,-18,-20,-26,-16,-96,-32,-26
4,4,2,-7,-44,68,-31,-4
-5,-4,-7,-2,35,-74,-41,-7
-9,-4,-4,7,45,12,-45,-9
-1,3,1,-12,-73,-128,-43,-6
-9,-6,-8,10,23,-37,20,0
5,5,13,15,4,35,11,3
-3,-3,-6,-4,55,2,12,-5
4,2,0,-8,-70,-39,19,8
2,-6,-5,-5,-29,-5,29,10
3,3,6,7,-21,33,23,9
-2,1,4,12,43,-36,-43,-10
-2,-6,-6,-1,-6,70,40,6
1,1,0,-6,-40,-20,-3,4
-1,-2,-1,-3,-58,31,0,1
10,3,5,-8,-96,23,25,18
-24,-22,-22,-11,50,-120,-83,-44
12,7,14,16,67,-31,-41,12
-3,1,-2,-5,4,-105,-1,-3
-18,-14,-19,-25,-33,-38,-47,-30
12,10,14,21,10,-10,10,15
-3,-3,0,-7,-69,-41,-49,-14
9,6,5,8,55,71,72,30
4,4,4,13,46,9,22,11
0,0,-4,-1,55,44,24,3
0,-2,3,16,35,1,-57,-2
3,-1,-1,-14,-87,-46,-27,-4
5,2,3,0,2,26,32,9
8,6,10,11,88,-3,29,14
-8,-6,-8,-23,-26,55,-18,-12
-10,-10,-15,-1,-24,-1,21,-11
15,12,13,30,77,16,52,27
2,-1,2,-12,-59,4,4,3
-7,-3,-6,-3,29,-61,-26,-17
2,5,6,-13,-62,21,-7,-4
-12,-10,-11,-8,-39,-41,-21,-18
13,12,17,4,-44,95,64,24
2,0,3,20,59,108,54,13
-13,-5,-6,-28,-76,-121,-105,-28
-4,-5,-9,-6,31,-41,-8,-9
-2,-5,-6,-12,-11,2,-16,-10
-3,-4,-5,-20,-73,19,4,-5
-18,-16,-19,-20,-40,-125,-80,-42
5,7,16,10,-62,-31,-8,5
-6,-3,-6,-2,-66,-115,-41,-12
2,3,2,-3,40,-45,10,5
-1,0,4,14,127,34,5,0
-10,-10,-15,-13,73,91,5,-3
0,0,-5,-27,-50,-42,-34,-3
3,6,9,24,13,12,31,9
-23,-19,-28,-21,70,-128,-57,-42
7,9,17,24,-3,-19,46,11
-1,-1,-4,-3,4,7,31,11
-7,-5,-6,6,-31,-36,21,-9
13,4,9,19,-31,-71,35,23
4,2,7,3,45,-63,-15,3
0,-2,-1,4,101,127,75,4
11,8,10,13,27,64,46,19
-6,-5,-11,10,54,-12,10,8
4,0,-5,-5,8,30,36,13
11,11,16,26,-14,28,8,19
-12,-7,-10,-20,15,-39,-75,-23
0,0,-3,4,-39,33,51,7
-2,-5,-2,-13,-17,55,-12,6
-11,-9,-14,-4,67,35,-14,-15
-2,-10,-6,-16,-61,-78,-12,2
-4,4,-5,-18,-101,-18,-52,-15
15,14,15,40,21,-25,38,21
6,6,9,25,44,102,24,15
0,-3,-5,-19,-88,17,8,3
-8,-10,-14,-17,64,29,35,-4
2,7,11,-2,-12,-72,-10,-4
-4,-2,4,8,24,-79,-63,-16
4,1,2,2,25,-16,24,7
-9,-8,-13,-15,60,86,-45,-12
2,-3,-4,-3,56,-7,-10,1
-3,0,0,2,-56,-63,-36,-8
-18,-9,-15,-20,-70,-81,-56,-30
11,7,21,50,61,31,8,14
-1,-4,-14,-28,-26,109,57,2
-7,-1,0,-6,-60,-105,-95,-21
2,4,2,7,73,87,11,13
0,-2,-2,-13,-66,-98,-17,-4
2,2,-1,13,19,75,24,12
-2,-4,1,0,10,-65,-4,-4
1,3,4,15,54,-26,23,8
7,5,13,0,-54,-45,3,13
-11,-7,-10,-16,-56,-74,-47,-21
-8,-7,-12,-14,8,30,25,-11
22,19,26,37,58,126,43,37
-3,-1,3,20,-34,15,2,-11
-11,-9,-6,-22,-41,-128,-62,-23
11,8,12,21,26,45,37,18
-6,-7,-9,-17,-85,-98,-13,-16
-11,-7,-8,-3,-25,-38,-16,-14
11,13,16,13,-67,10,-6,11
-6,-5,-10,-11,3,-48,-68,-16
-9,-11,-14,-35,-80,37,20,-18
4,-2,-3,-11,41,44,-5,22
1,5,6,16,69,87,18,-3
5,4,3,10,24,-51,56,14
-6,-1,-4,-7,-49,-120,-18,-9
2,1,3,12,-13,39,50,8
3,1,1,5,26,32,12,7
-10,-10,-13,-39,-104,-68,-16,-11
-13,-9,-13,-15,-8,-75,-50,-22
7,8,10,-3,-37,18,11,6
-14,-20,-29,-43,7,-128,-63,-17
13,11,20,21,-55,96,50,17
-2,-6,-6,-14,-44,82,-8,-4
5,4,5,-4,-34,-47,-25,-4
-11,-9,-10,-5,13,-50,-1,-16
-12,-11,-19,-16,40,-41,11,-15
21,17,18,24,119,67,39,39
-5,-4,-3,-4,34,-60,-61,-10
6,1,3,2,-70,-44,39,8
-14,-12,-21,-40,-77,-7,-36,-18
14,14,21,55,89,52,107,27
8,9,12,23,91,-50,32,17
-14,-8,-7,1,38,-28,-55,-26
0,0,2,2,-48,14,-3,5
8,7,16,21,66,93,8,14
-5,-6,-15,-44,-37,-15,-32,-9
6,9,25,71,72,90,45,19
-5,-6,-5,-8,-34,-71,-48,-14
-12,-15,-28,-65,-71,-60,-55,-18
13,14,20,47,93,93,2,18
-5,-6,-6,-17,-47,-20,10,-7
-16,-15,-22,-8,58,21,-19,-19
5,5,9,24,-62,-128,25,14
-5,-6,-6,-10,-1,-105,4,-5
-2,0,-3,-18,-65,-41,-14,-5
-2,-3,0,9,51,47,-14,-3
-3,-5,1,-1,-57,-35,-72,-21
4,-1,-1,0,-46,108,62,17
2,2,1,1,0,-41,-9,3
-8,-9,-16,-34,-81,66,-11,-9
9,8,8,17,97,116,74,28
2,3,6,5,-45,-67,-37,-3
-2,-4,-7,-11,42,127,-11,-1
10,10,17,43,83,-86,18,23
-6,-8,-9,-9,0,77,36,-1
-6,-5,-3,-14,-45,-63,4,-16
0,-1,3,-4,-66,-55,2,2
-2,-5,-5,-12,11,-102,-21,-7
-8,-3,-8,18,121,71,-25,-9
2,3,3,11,-19,-65,26,2
-4,-2,-7,-16,-37,-82,-22,-9
8,1,3,4,38,66,52,5
-11,-12,-8,-7,-7,-74,-54,-21
0,1,2,-6,-30,37,-67,-13
-6,-7,-9,-2,70,97,35,8
0,2,6,15,63,26,6,-2
5,4,5,-5,-63,-37,51,10
-4,-4,1,16,127,98,33,0
1,3,5,10,28,-29,-24,-12
-4,-1,-5,-20,-50,-48,-18,-2
1,3,4,6,26,65,-18,-1
-6,-2,-2,4,-14,-79,-45,-15
4,1,2,-6,-48,32,12,17
2,-2,0,6,38,52,39,7
-7,-1,-10,-26,-63,-67,-62,-20
-5,-6,-10,-5,-68,-93,-11,-7
-15,-15,-18,-18,47,92,32,-15
9,4,11,10,17,50,22,23
-3,-4,1,-12,-27,-20,17,1
5,4,4,2,1,33,39,9
0,-3,-2,5,52,-27,-17,-5
-2,-3,-5,-7,-40,69,10,-1
-13,-14,-14,-17,-20,-56,-83,-20
17,12,14,26,59,127,84,40
8,8,5,-6,-27,-62,3,-5
-3,0,-2,-10,-96,-123,-19,-6
-2,0,0,4,61,-46,-18,-7
-22,-24,-38,-46,11,18,-16,-26
3,5,6,-11,-128,-107,-97,-15
13,12,21,29,109,28,83,26
0,-1,-4,2,-3,-11,-2,-1
-1,-5,-2,-11,-35,15,29,3
-13,-9,-9,-3,66,63,-1,-13
6,10,15,16,7,-6,6,8
-7,-9,-15,-42,-128,-128,-51,-19
10,7,9,12,39,48,27,14
2,-1,-6,-12,-62,-51,-12,8
-1,-7,-12,-1,-14,89,48,10
10,11,15,17,5,-79,22,10
7,9,20,31,83,40,3,9
8,7,13,25,47,83,60,21
-16,-11,-19,-29,-61,-128,-120,-24
-6,-6,-5,11,12,72,9,-2
3,1,-3,-12,-30,31,16,2
-2,1,-1,0,12,-48,-11,-2
4,7,9,13,-70,-96,-10,-4
-12,-12,-18,-38,-72,-91,-69,-24
0,1,6,5,12,-57,-28,-6
2,0,-2,-8,-5,13,15,13
-6,-7,-12,-18,-67,-33,-17,-8
-4,-1,-3,-2,-1,-10,7,-6
-3,-4,-6,-3,-15,42,17,4
2,0,-2,0,-65,-75,-7,-5
-15,-12,-16,-19,16,50,-70,-34
27,22,27,40,127,127,99,52
-6,-5,-4,-2,-48,-78,-41,-10
-1,-2,-1,-9,-4,-34,-5,-2
-13,-15,-13,-20,-83,-121,-88,-29
6,5,6,9,-20,-19,73,9
-8,-7,-9,-9,3,-67,-44,-13
-2,-5,-8,-17,-74,22,11,7
-2,2,3,9,17,-102,-83,-12
-1,-1,3,16,102,109,59,7
-9,-8,-8,-10,-34,-75,-27,-12
-5,-3,-3,-11,-47,-38,-6,2
0,-2,-5,-2,1,98,29,8
-1,1,8,14,43,-43,-31,-14
2,3,0,-7,-3,7,9,-3
6,7,9,21,21,-22,-3,3
2,-2,-3,-17,4,106,51,6
5,-3,-6,-13,2,57,38,14
4,3,5,1,-23,-37,-34,-2
-6,-5,-5,-1,-28,-80,-15,-8
10,8,11,12,-7,-82,35,10
-9,-13,-22,-35,-51,-61,-35,1
-9,-6,-12,-1,29,-62,-28,-22
6,5,4,-5,-3,18,-11,2
-21,-17,-24,-41,-75,-113,-90,-43
14,13,23,35,66,59,20,23
-8,-4,-8,-10,-16,-16,-32,-6
-5,-1,0,3,31,-57,13,-13
-2,1,5,-1,31,-7,19,1
-6,0,-4,-1,-50,-91,-28,-12
15,9,18,33,-3,36,96,36
-6,-5,-6,4,-41,9,-12,-10
5,8,10,14,103,35,16,10
-13,-5,-9,5,-44,-120,-27,-30
14,10,11,-2,3,96,60,28
-2,-3,-4,1,26,18,-8,2
6,5,7,15,15,104,52,16
-14,-9,-10,-15,-7,-90,-82,-30
-3,-7,-14,-13,-6,-55,-12,-12
9,7,10,27,90,103,60,9
4,2,-1,2,62,32,11,8
1,1,5,6,4,25,-21,1
3,4,5,21,3,81,20,11
-12,-13,-14,-35,-50,-88,-73,-19
2,2,10,26,-12,-56,8,2
0,3,-3,-10,-34,18,11,3
1,-2,-3,-9,11,54,55,11
-7,-4,-6,-9,-5,-25,-26,-15
-11,-15,-17,-14,-16,-54,-9,-16
3,4,4,-6,-67,-108,-25,-5
3,2,5,14,54,39,3,4
1,3,3,10,7,-43,-4,1
-5,-8,-10,-26,-31,-47,-31,-3
-2,-3,-3,11,3,11,25,2
-12,-9,-7,-23,-67,-128,-125,-35
6,2,10,34,127,84,72,21
9,11,13,19,24,11,24,12
-6,-8,-5,-8,-45,-21,-15,-2
7,10,6,7,-6,59,52,15
15,11,15,21,35,89,61,28
0,1,-1,-10,-43,-56,-1,0
-7,-8,-1,0,13,-71,-35,-6
-3,-6,-9,-14,-19,-4,23,-2
4,2,2,0,6,-40,-8,3
-1,5,5,6,14,18,14,2
-8,-8,-11,-20,-99,4,-36,-11
2,4,9,13,68,19,45,0
-6,-4,-8,-12,-21,-21,-46,-11
-4,-3,-5,0,-16,-67,-42,-7
-1,0,-5,-22,-16,6,27,-3
3,4,9,18,43,32,8,7
4,5,8,23,53,47,34,8
1,-3,-5,-12,-17,-39,17,6
1,-2,-3,1,-4,-51,-24,0
-5,-4,-6,7,53,47,29,5
2,0,-1,-10,7,-2,-20,1
2,1,1,7,21,9,1,1
-4,-2,-6,-3,57,34,45,-6
-9,-6,-9,-28,-84,-128,-51,-13
-6,-8,-6,6,54,34,35,4
10,7,5,8,-9,-27,9,13
-4,-7,-7,3,38,4,-3,-1
1,-2,-8,-29,-128,-85,44,2
-13,-7,-2,-2,9,-12,-61,-29
14,12,18,25,14,127,57,21
-4,-6,-12,-29,-69,-10,1,3
-4,-1,-1,8,77,42,-51,-4
-8,-7,-10,-22,-75,-86,-36,-12
-1,-2,-4,4,40,78,52,6
-1,-1,2,5,24,-95,-47,0
-2,-2,-5,-11,-49,-24,-10,-3
6,3,4,5,25,101,20,11
-1,1,2,12,15,24,3,4
-5,-4,-2,7,86,83,-45,-18
6,4,6,15,-3,17,24,12
-2,-4,-13,-42,-111,-118,-3,-3
16,12,15,29,72,109,72,26
1,4,3,3,30,14,-37,-2
0,0,7,16,35,56,-9,-4
-7,-2,-7,-20,-92,-98,-46,-13
-6,-7,-7,1,54,38,-3,-5
8,8,13,12,-16,-19,41,11
-1,-2,-3,1,50,61,14,-8
-1,0,-1,-3,-53,-89,27,6
-11,-10,-8,-16,-30,-18,-80,-23
3,1,3,-2,17,-38,52,4
-6,-4,-6,-13,-46,-39,1,-11
0,1,4,11,37,30,-12,-3
-16,-14,-19,-33,-74,-60,-41,-23
0,0,-1,18,-3,-1,-65,-16
-5,-2,-3,-5,14,18,-20,-11
3,1,-1,-3,1,34,56,6
-3,-3,-3,-5,33,-54,-56,-13
2,3,7,9,-7,124,38,7
-10,-11,-20,-22,-37,-124,-44,-17
7,10,12,35,96,44,-11,9
-6,-9,-10,-21,-38,-117,-22,-15
-3,-3,-7,-8,19,12,22,1
4,4,7,6,-10,14,-17,12
-6,-9,-8,-22,-101,-58,-9,-7
-1,2,1,5,30,-36,0,3
5,2,2,1,-25,-24,-34,6
-13,-12,-13,-19,-15,-85,-59,-19
3,2,4,9,13,-10,17,5
1,2,5,4,-43,-25,24,8
-12,-12,-9,-12,-2,-87,-27,-19
1,-5,-3,12,64,33,7,8
2,3,5,9,16,-1,-37,-6
-5,-4,-3,-12,-33,-91,-29,-14
4,0,2,-6,-57,-27,12,7
3,4,6,19,37,36,18,6
1,-3,-6,-19,3,-9,41,8
-3,-4,-1,6,12,-16,23,-5
-5,-3,-6,-19,-52,-83,-37,-12
-2,3,5,-5,-38,-18,15,-5
-2,0,0,19,69,41,8,-4
6,5,5,-4,-4,62,-29,18
6,1,4,-6,-31,77,40,9
1,-2,0,-7,-21,-57,-22,-3
-9,-7,0,6,15,-43,-35,-19
-3,-3,-5,2,-15,-64,-12,-7
-1,-3,0,8,70,88,16,7
0,1,1,-16,-65,-43,-21,-2
-3,-4,-7,-6,-8,-12,-13,-5
4,3,7,8,3,34,15,3
-7,-8,-17,-12,-29,-33,14,-9
2,-2,-7,-21,-4,-21,4,-3
1,-1,-3,-3,-33,-38,-1,2
-7,-4,-3,5,12,-78,11,-8
4,5,12,23,106,125,45,8
-12,-13,-12,-13,-39,-73,-58,-18
11,6,7,8,22,106,79,28
3,4,3,4,34,41,19,11
-6,-2,-2,6,7,-18,-21,-9
-2,-1,-2,-4,-34,-70,3,9
0,2,-1,-5,12,100,1,-2
-6,-4,-2,3,9,-81,-11,-11
2,2,1,-11,-16,-21,-4,5
5,5,9,28,80,127,-4,9
-5,-10,-7,-9,-41,-20,-1,-2
2,0,0,-8,-14,-16,-25,0
-6,-7,-12,-21,-93,-128,-68,-14
-9,-4,-6,-2,44,-62,-3,-8
-2,2,5,6,27,54,-37,-3
-4,-4,-8,-3,-11,14,26,-4
7,7,10,11,29,51,-10,4
-5,-8,-9,-17,-20,-37,-19,-3
7,9,11,18,35,61,37,12
9,6,4,-5,-18,-28,7,13
-1,-1,0,9,-45,-63,23,2
-4,-3,-7,-18,-22,15,-19,-5
0,1,-3,-3,-12,-13,-1,-1
-7,-5,-4,-4,-3,-9,-60,-12
6,2,2,11,27,24,53,4
6,5,3,-10,-21,50,23,6
-9,-7,-12,-14,-15,-13,-31,-15
-9,-6,-8,0,29,9,-5,-13
-10,-11,-17,-47,-59,-74,-50,-21
13,11,17,41,101,-49,97,27
-3,-1,-3,-10,-52,-89,-27,-7
-3,0,-1,3,7,69,36,1
-2,-1,2,22,41,-63,-19,-5
-2,-5,-6,-18,-19,94,9,-3
6,4,5,11,7,-29,30,14
6,2,5,-1,-48,-46,-5,6
-3,-3,0,15,50,-17,13,3
4,4,3,10,6,60,0,4
-5,-6,-6,-14,-51,-35,15,-8
-4,-6,-9,-15,-28,-39,14,-4
5,4,5,-9,-18,-2,13,11
-1,2,3,9,21,19,-26,4
-9,-7,-10,-18,-16,-9,-23,-13
-2,-2,-7,-1,7,-26,-10,-6
3,2,-4,-20,-62,74,24,10
-4,1,3,8,44,-106,-26,-13
3,3,10,23,29,20,42,9
-5,-8,-10,-17,12,63,-7,-4
0,0,-1,7,58,60,45,4
-3,1,-1,-3,-59,-38,-21,-13
-3,-2,-7,-2,39,-25,-9,-4
5,9,12,6,-12,-19,-8,3
3,1,9,22,26,47,25,8
-8,-11,-14,-18,-44,-58,-14,-14
0,-4,-2,-7,4,32,-16,3
-1,-4,-3,-2,34,52,32,2
-2,1,5,18,54,-18,-27,-2
-4,-6,-1,2,20,22,10,-6
-2,-3,-6,-1,-12,6,-10,2
-1,3,3,3,-14,-55,-1,4
0,3,-2,-10,-4,89,8,-5
3,-2,1,4,-6,44,19,5
-1,-6,-5,-12,-31,-3,-50,-12
12,8,11,16,-36,-24,33,18
2,4,6,10,2,5,27,12
-9,-10,-8,-13,-30,-40,-18,-6
0,1,-1,-6,-40,-54,1,3
-1,3,2,7,21,-13,-3,-2
-5,-8,-10,-4,-16,-104,-5,-3
10,8,6,7,28,81,7,19
-4,-2,0,-1,-8,-128,-21,-7
-3,-3,-6,2,63,127,-8,-10
5,6,8,11,12,34,38,12
-3,-1,-2,-7,19,-53,7,-7
-6,-7,-7,-4,42,41,6,-6
1,1,7,11,21,-39,-25,-3
-8,-9,-20,-37,-82,-66,-42,-19
7,4,4,10,-19,-20,26,16
5,3,5,9,23,72,17,4
1,1,0,2,-24,-45,-18,-7
-3,-1,-1,1,-6,-9,-1,0
4,4,5,4,43,7,-5,0
-1,2,2,7,-11,2,-7,-6
-4,-5,-7,-23,-78,-71,15,2
-4,-3,1,7,14,-36,-9,-2
-8,-8,-9,-16,-99,0,-44,-22
13,7,12,11,-27,78,38,23
-1,0,2,11,33,48,-13,-2
2,1,0,-11,-5,38,-22,8
-8,-5,-6,-18,-18,-34,-7,-9
3,0,4,17,19,37,3,6
0,1,-3,-4,-26,-21,9,3
1,-2,0,6,36,30,-2,3
1,3,5,13,15,-27,3,0
-7,-8,-7,-1,7,-102,-22,-16
-8,-8,-9,-23,-28,-8,-4,-13
-5,-2,-5,1,73,15,42,-10
13,10,16,27,79,118,10,18
-5,0,-3,-5,-2,28,-3,0
-5,-5,-4,-5,-3,-29,18,-6
1,2,-2,3,-12,-78,-13,-7
-5,-5,-8,-5,2,-19,20,-2
-2,1,0,-5,4,20,3,-2
-4,-4,-5,-6,0,-23,-21,-6
-2,-2,-4,-5,-19,46,-7,-4
3,1,3,10,53,-69,29,6
-5,-5,-5,-6,29,48,-1,-1
-2,1,-1,17,73,102,4,3
5,1,7,18,31,-10,16,7
-6,-6,-7,-13,-9,40,-17,-10
-6,-10,-10,-17,15,-26,-15,-3
1,1,4,3,-40,63,22,9
-2,-2,-7,-9,-42,-24,-18,-5
0,1,0,-1,30,43,-17,1
-6,-5,-5,-7,-34,-75,-19,-8
-3,-3,-4,-8,-45,-8,-7,-3
6,8,6,-6,-21,59,14,11
6,5,7,27,32,77,64,10
-11,-7,-8,-23,-28,-101,-48,-22
9,5,12,7,1,-61,0,14
-2,-3,0,0,-25,-14,23,4
-4,-3,-8,-15,-34,-84,-24,-6
-3,-4,-7,-9,11,36,-2,-7
8,3,5,9,20,27,45,17
0,1,5,5,28,67,18,1
-11,-8,-10,-22,-43,-60,-32,-21
17,16,19,37,50,98,80,33
-10,-5,-10,-14,30,-123,-56,-23
-2,-2,-1,-4,-5,51,23,3
0,-2,-1,4,21,55,8,5
-4,-3,-3,-6,-19,33,-6,-3
-1,-2,-1,1,-1,-7,-13,-5
5,3,6,9,37,65,34,16
-5,-4,-3,2,25,-31,-13,-6
-1,1,0,-7,-43,-128,-26,-15
-2,-2,-5,-13,-33,4,33,8
-9,-10,-10,-17,-28,-101,-54,-15
-4,-4,-3,-6,-40,-46,5,-4
-1,1,6,13,78,33,6,0
0,4,2,4,10,68,-6,-2
-10,-5,-6,-15,-51,-86,-52,-17
-2,0,-7,-14,-70,9,0,2
0,-2,-4,-4,-3,-81,1,5
-6,-6,-7,-6,-29,-11,8,-10
2,1,8,17,44,-51,-18,-1
-1,-2,0,-7,-54,-27,-33,-11
4,3,0,-5,1,9,4,4
-5,-9,-8,-5,-16,30,-2,0
0,-1,0,-2,-27,-24,-17,-5
-1,-1,-2,-6,-21,-19,6,3
-5,-1,-2,2,19,1,-42,-13
5,5,-1,-6,-3,40,22,4
0,4,0,1,20,66,10,5
1,2,9,18,38,34,16,5
-3,-4,-4,-3,8,-55,-15,-3
-4,-3,-1,-8,-4,-30,-35,-7
-3,-5,-8,-5,22,-12,-32,-10
5,1,3,6,27,40,19,1
-6,-4,-6,-4,-28,-7,-10,-5
2,-1,2,7,17,0,13,3
-8,-8,-9,-13,-23,-40,-14,-11
-6,-6,-11,-11,11,93,17,2
11,9,9,9,-6,27,21,11
-2,-3,0,3,-9,-20,-7,-2
-5,1,-2,-4,0,-53,-30,-7
-2,-4,-4,0,45,57,53,7
-5,-5,-4,-6,-31,-36,-12,-8
0,-1,2,-5,-29,-70,-5,-2
2,-1,0,11,49,68,36,9
-1,1,0,0,-24,-3,-19,-2
-1,-4,-5,-4,-18,-11,0,-1
4,7,10,15,51,45,18,-2
0,-1,0,6,-7,56,33,10
-1,-3,-4,-19,-27,-53,4,3
-8,-5,-9,-8,-30,-26,-37,-14
0,-3,-1,0,-12,-99,-6,2
5,5,8,4,1,-9,12,4
3,3,4,10,1,-19,26,6
-4,-5,-6,-18,-73,80,9,4
-2,-2,0,9,55,-62,-25,-2
-3,-2,1,-6,-22,-19,-7,-3
0,0,1,10,5,-50,-14,-8
-6,-7,-10,-21,-56,-60,1,-3
-5,-4,-6,-4,-12,18,-7,-5
14,10,8,8,-29,19,44,19
2,5,16,23,41,35,-15,0
2,-1,-6,-1,17,-69,-5,1
-1,-4,-4,-9,-29,84,23,1
4,1,6,12,9,-55,-16,-2
-3,-2,-1,-2,-5,-51,-35,-3
0,1,7,11,69,78,43,10
-4,-1,-2,-8,-33,-40,-9,6
-10,-9,-14,-18,-18,-54,-35,-17
2,2,-3,1,10,81,8,6
-5,-2,2,5,-8,-36,0,-4
-4,-3,-4,-3,-7,-41,-21,-11
-6,-7,-6,-19,-46,-86,-37,-13
4,-1,-1,0,-10,-17,22,12
0,1,1,-7,8,-18,35,-6
9,8,14,25,31,5,5,8
-10,-6,-6,-10,-25,-60,-30,-14
-8,-6,-13,-20,-50,-111,-58,-24
-1,0,-2,-11,-49,-86,-18,0
14,10,21,32,104,120,58,23
-2,-2,-8,5,2,-22,-2,2
-3,-3,-4,-20,-32,-30,-51,-4
0,1,1,5,18,22,-3,-11
-5,-6,-9,-9,6,-39,-36,-13
0,-2,2,-1,12,71,-3,-1
-2,0,-1,0,-8,-73,13,1
3,2,0,-2,-1,52,11,13
-3,-3,-6,-7,-26,5,-9,-6
1,1,2,0,15,9,18,4
0,-1,-3,-3,12,-62,-12,-1
0,-1,3,9,72,88,2,-2
2,2,-1,-4,-21,-60,4,-2
-2,-2,-2,2,26,-16,-5,-2
-4,-5,-7,-10,-12,28,22,-3
4,-2,0,16,66,39,-9,0
-1,-2,-3,-3,-2,103,18,4
6,8,12,16,44,46,22,8
1,2,4,6,-21,86,27,3
-6,-7,1,6,40,5,-31,-7
-5,-5,-14,-30,-81,-49,-32,-4
-6,-5,-6,0,39,-7,10,-4
0,1,-2,-1,-42,-72,-14,2
6,6,7,8,-12,-19,20,13
-11,-10,-12,-13,14,-84,-43,-23
6,7,10,3,-23,38,-31,6
-5,-3,-5,-7,-3,11,-6,-4
-5,-3,-6,-13,-58,-77,-20,-10
2,0,1,15,61,31,16,7
4,-1,0,-6,-47,77,30,4
0,-3,0,4,19,56,4,0
4,1,3,5,-6,5,10,11
-7,-4,-9,-16,-68,-24,-18,-8
-4,-3,-2,9,53,-2,15,-1
-2,-3,-5,-9,-66,-43,5,2
-3,3,-6,-9,-16,-39,9,-5
6,6,12,15,16,-6,-16,5
-5,-7,-7,-3,14,-63,36,-4
0,2,3,3,3,-53,-17,-2
-13,-10,-13,-22,-48,-71,-87,-28
8,6,9,11,-71,-53,24,12
-5,-3,-7,-16,-67,-32,-32,-10
-3,-3,1,-4,-1,-25,-26,-9
1,2,4,14,4,56,0,3
-6,-4,-4,-4,54,67,12,-4
-2,-2,-5,0,-17,-52,-28,-4
-8,-10,-12,-17,-41,-37,-10,-13
0,0,-2,-9,3,-22,-2,3
-7,-3,-9,-10,-1,-15,10,-6
4,3,2,2,-24,-30,16,6
4,4,10,16,64,127,41,12
-2,-3,-4,-22,-90,-103,-21,-9
2,1,4,12,39,34,-7,0
-6,0,-6,-9,30,35,23,-7
-7,-6,-12,-1,7,-102,-55,-20
15,10,18,30,50,124,79,39
-2,-3,-1,-6,-13,-13,-7,-1
-5,0,4,-15,-83,-84,-88,-12
-3,2,4,18,61,34,-11,-3
-9,-10,-24,-36,-71,-64,-12,-11
13,12,12,10,37,70,26,16
2,1,3,13,60,50,35,5
-1,-3,0,-7,-10,-26,-12,-3
-4,-4,-1,3,8,54,15,-6
-4,-4,-4,-3,-20,-66,-31,-9
5,2,4,-1,-22,38,21,11
-3,-3,0,6,-22,-36,-4,7
-2,-2,1,9,53,41,5,-4
-3,-4,-6,1,-12,-11,1,-6
3,5,4,11,32,51,30,6
-3,-2,-4,-17,-80,-34,-6,-5
-3,-3,1,19,94,-19,-21,-6
2,2,1,0,-35,78,14,6
-4,-4,-9,-17,-19,-58,-35,-13
15,12,11,12,33,81,100,24
-5,-3,-7,-16,-34,-16,-23,-11
0,0,-1,6,42,35,-3,8
-2,0,-1,1,20,4,-24,-3
-7,-2,-3,-1,20,-10,-25,-13
3,5,3,6,-36,-7,39,10
7,2,-2,-3,-6,40,54,16
2,-2,5,14,25,28,-1,1
1,-8,-9,-10,11,94,17,4
8,10,11,16,50,112,51,12
-9,-10,-12,-12,-16,1,0,-10
-2,-2,-3,-8,-33,1,18,-1
9,9,12,25,26,14,27,14
1,2,9,17,-16,-57,-4,2
-3,-2,-4,-15,0,1,6,3
-12,-11,-16,-22,-12,13,-27,-15
-7,-1,-1,-7,-39,-128,-44,-11
-1,-4,-4,-4,12,12,-14,-5
-1,-2,2,2,4,-66,-9,-2
-4,-2,-7,-4,-40,-101,-11,-5
6,4,1,-11,3,17,37,11
-4,-3,-4,-4,23,-54,-50,-11
-5,-1,-5,-10,-62,-92,4,-7
-4,-7,-5,-7,-10,-70,-15,-10
6,5,5,0,-9,79,-6,7
0,0,-1,11,46,-9,27,4
-1,1,-4,-11,-38,-81,-53,-14
2,0,4,9,57,-21,6,6
-4,-4,-3,5,12,7,-14,-7
-5,-4,-8,-22,-31,-50,-24,-7
-3,-2,-2,-4,-7,-4,-30,-8
8,4,5,13,39,47,47,20
-5,-2,-4,-2,15,-7,-34,-13
3,-2,0,10,4,101,26,4
-4,-5,-2,4,65,28,-13,-7
1,2,5,2,-18,54,8,1
1,-5,-3,2,57,52,10,-3
6,5,12,18,15,39,-7,9
-3,-2,-10,-6,-15,-53,-8,-8
3,1,-2,-1,-27,97,33,5
2,4,4,-2,-22,-69,-30,4
-8,-7,-11,-21,-70,-112,-44,-22
3,1,8,15,35,-14,21,5
-7,-6,-7,-16,-15,-51,-41,-14
6,5,2,8,-7,10,34,9
-2,-4,-5,-12,-16,-75,-6,5
-2,1,2,2,3,8,-10,-4
-7,-6,-11,-21,-53,-108,-60,-15
-1,-3,-1,4,43,97,40,3
-3,-1,-3,-8,10,25,0,0
2,0,1,7,54,127,20,8
2,1,2,2,-8,65,27,2
-1,0,3,8,38,-3,-11,2
-7,-5,-6,-8,-12,50,-11,-8
-5,-5,-5,-13,-11,-61,4,-10
1,2,2,2,2,17,-13,-1
-4,-5,-3,-4,-91,-43,16,-5
3,2,4,3,17,-69,10,2
1,-1,1,-9,-47,-14,4,6
-1,1,3,5,30,78,21,5
-4,1,-2,-6,-6,-58,-16,-8
-3,-2,-3,1,-1,-30,-4,-5
2,0,-2,-4,-60,13,3,2
2,1,-3,-1,25,7,19,5
-11,-8,-14,-23,-28,-95,-55,-21
4,1,7,13,70,124,15,3
2,1,4,9,39,61,25,7
-3,-1,0,-7,-52,-113,-14,-10
0,-5,-4,-3,17,71,21,4
-5,-2,-6,-17,-71,-128,-60,-18
2,3,3,7,-11,77,38,13
1,0,0,5,67,28,13,7
1,0,1,4,38,37,16,4
-6,-4,-4,-11,-55,-54,6,-5
0,-2,-1,10,64,0,7,-12
5,6,9,20,24,71,21,9
-2,-1,-8,-18,-34,-34,-22,-7
1,-1,-4,8,55,56,16,3
-1,-1,3,6,10,-20,-7,-1
-6,-4,-8,-9,-16,-25,-29,-16
-6,-8,-12,-19,-67,-115,-4,-7
6,8,10,13,16,103,27,11
-5,-7,-6,-18,-23,-6,-19,-3
-5,-4,-1,2,11,-63,-21,-2
-7,-5,-4,-7,-17,-46,-25,-16
-5,-6,-8,-9,0,-39,-14,-4
8,5,9,21,24,5,39,18
-3,-1,-2,-11,-46,-104,-53,-17
6,3,5,6,68,90,33,10
-4,-5,-3,4,-36,-83,-2,-2
0,3,2,1,1,72,-20,0
2,0,2,3,-28,25,14,6
0,2,-1,5,19,59,10,3
-4,-4,-8,-11,-49,9,26,0
-2,-2,-2,-4,-6,22,-9,-4
-2,-2,0,7,28,29,24,7
0,2,8,17,-5,-62,1,4
2,-1,0,-7,11,91,13,3
-2,-5,-8,-20,-105,-128,-47,-10
2,1,5,8,17,40,26,6
-5,-5,-4,-7,-48,-78,-24,-5
-5,-4,-3,-3,6,-76,-23,-13
0,5,8,18,64,-51,-13,-9
5,3,3,7,29,44,44,14
0,-3,-2,-5,-37,-43,-25,-1
-6,-5,-9,-11,-9,-53,-9,-8
-11,-5,-8,-14,-87,-33,-56,-18
6,1,4,7,43,13,-2,5
1,2,7,15,62,127,41,2
-1,-4,-3,-1,-21,-3,8,-5
-2,-7,-5,-8,19,17,-5,-7
-3,-2,-7,-16,-80,-80,-24,-9
6,4,3,5,61,72,28,9
4,7,15,30,88,-26,-29,-1
3,3,3,-5,31,87,61,20
-8,-6,-11,-18,-66,-74,-31,-12
0,1,3,7,-14,57,4,0
-2,0,-4,-11,-14,9,-6,0
-3,-1,4,8,5,57,18,0
-2,-3,-7,-13,-7,17,17,14
-4,-4,-3,2,-23,-78,-25,-3
3,3,-2,-2,21,67,19,7
-4,-5,-7,-5,-28,-10,-3,-8
4,3,5,9,1,28,7,0
-2,-3,-2,-9,-25,-66,-11,-7
-1,-2,0,-1,-21,-57,13,3
-7,-8,-10,-19,-10,-111,-33,-17
-3,-2,1,-1,-38,-95,-26,-9
2,1,5,15,83,60,25,11
-2,-1,-2,-4,-5,-18,-27,-5
-6,-2,-4,3,25,-49,-39,-12
-3,-4,-7,-2,11,15,-3,-5
-1,-1,-6,-11,-48,-52,-19,-8
0,-1,-1,-6,-9,63,44,13
15,10,9,21,9,22,70,28
-3,-3,-3,-14,0,-79,-24,-8
1,0,1,-3,3,8,12,-2
-5,-5,-9,-19,-47,-13,-34,-8
2,-2,0,2,2,-76,12,11
0,-1,2,0,4,37,16,10
-2,0,0,12,35,-12,4,-2
-3,-3,-5,-16,-43,-48,-24,-9
-1,2,1,-6,31,72,34,4
1,-2,0,7,10,78,12,0
-2,0,0,-5,-16,-52,-22,-3
-3,-3,3,7,-24,9,4,-1
-1,0,-2,-2,-36,-107,14,-4
-1,-1,-3,12,72,106,27,4
-5,-4,-6,-25,-57,-37,-24,-11
3,4,5,13,20,-13,-4,7
3,2,3,6,-32,22,-16,-6
-5,-7,-7,-16,-63,-71,-13,-6
-1,-1,-5,-12,-43,-1,-14,0
-5,-6,-6,4,35,-68,-12,-14
2,3,9,16,22,65,-13,3
-1,1,0,-2,15,51,-14,-3
6,2,6,23,111,126,64,18
-1,-1,0,-6,-47,-49,-60,-12
-5,-10,-9,-7,2,1,-1,-4
5,4,4,6,24,-47,-3,1
-3,-3,-3,0,-17,-9,-31,-1
6,9,8,16,100,122,50,19
-7,-7,-9,-15,-49,-92,-42,-11
-4,1,-2,0,-46,-74,12,-5
6,1,-1,-21,-67,-40,14,5
2,0,3,9,21,-40,-27,4
12,10,14,11,-46,22,49,20
-26,-17,-23,-30,13,-87,-68,-39
5,0,8,4,-76,-33,-15,7
-6,-7,-8,-9,-6,-66,44,-5
-13,-11,-18,-25,-11,44,-33,-16
8,4,5,8,25,42,54,15
-8,-4,-3,6,14,-19,-59,-18
3,-3,-4,-17,-69,5,25,3
-15,-12,-12,-10,-14,-123,-69,-31
9,6,8,9,34,127,103,20
2,1,7,23,76,30,-12,12
-13,-11,-19,-32,-75,-60,-59,-18
16,17,21,33,47,-73,25,16
-5,-5,-4,3,-14,-89,-70,-10
3,6,11,27,118,32,59,12
-10,-7,-7,-10,43,59,-8,-13
-4,-5,-5,-21,-92,-62,-68,-13
-3,0,-1,6,15,-39,-28,-3
-2,-2,-7,-11,28,4,18,1
4,0,5,4,-34,-5,13,10
-5,-4,-2,11,-12,-8,-57,-5
4,0,4,3,8,41,37,6
-4,-6,-13,-17,-53,-7,33,1
19,19,24,35,48,55,46,31
-4,-5,-6,-9,28,-2,-45,-16
-4,-6,-7,-30,-90,-85,-52,-3
-4,-1,-3,-1,29,28,-9,-13
1,3,10,29,97,95,13,4
-11,-13,-27,-49,-29,52,36,-7
10,11,20,38,107,123,34,7
9,5,4,-2,-73,28,15,12
3,3,9,19,31,116,26,12
-1,-2,-1,6,9,22,15,-3
-9,-8,-10,-25,-81,-88,-31,-8
-3,-5,-7,-1,22,38,2,-6
0,0,-4,-9,-107,17,52,-3
12,10,16,24,94,-10,55,23
1,0,0,1,-49,9,-41,-7
-5,-3,-3,-7,31,-19,19,0
1,1,2,10,-21,-63,23,5
-3,-2,-2,3,11,55,-37,0
-5,-5,-10,-13,25,-43,17,-6
3,2,3,4,-37,15,7,9
0,2,1,-5,15,-25,17,-6
0,2,-6,-1,35,93,40,6
10,6,15,19,32,75,-15,11
-2,-1,0,-9,-73,-77,-11,-3
8,4,-5,-10,8,108,74,20
8,8,14,37,86,73,71,26
-1,-1,-9,-19,35,90,11,4
1,1,9,17,44,-68,-14,2
-9,-9,-10,-30,-104,-102,-90,-19
1,1,4,4,39,-82,78,3
-2,2,-2,-7,-65,-88,-26,-7
-8,-8,-1,-6,-19,-92,-126,-24
-14,-16,-21,-30,-58,-128,-61,-26
1,2,3,3,-1,24,-1,-13
