-38,-52,44,-34,-9,29,8,2,1,-47
-82,-21,63,-9,0,24,1,5,-17,-85
-92,-26,57,7,3,14,-9,2,-17,-81
-61,-39,55,13,-2,0,-20,0,4,-58
-50,-10,60,31,-1,3,-15,4,15,-41
-13,11,22,32,6,9,-13,4,15,-37
68,13,31,12,10,9,20,6,27,-8
101,-14,12,13,2,2,66,9,38,2
57,-22,-29,7,-25,0,50,25,39,-8
3,-12,-6,3,-35,-5,15,18,30,-15
-21,20,43,9,-32,-3,5,13,17,-14
22,48,84,16,-31,-19,24,4,11,9
64,31,55,-7,-45,-25,50,6,13,21
15,-14,-1,-4,-35,-10,40,10,18,7
72,-62,-26,8,-8,2,8,21,40,3
4,-97,-34,5,-9,6,1,15,41,2
-47,-120,-43,3,-8,22,-14,11,18,-9
7,-105,-46,4,-13,16,-32,-3,4,-10
85,-67,-32,-8,-20,9,-27,-11,-2,25
88,-54,-38,-12,-25,18,-11,4,-10,41
67,-31,-14,-4,-25,11,0,4,-29,40
-24,63,49,1,-31,-10,0,-32,-61,-12
-136,89,80,1,-25,-8,7,-32,-73,-45
-102,41,42,-10,-18,-27,1,-11,-73,-17
2,17,4,-19,-18,-34,-19,-11,-70,30
40,-16,-14,-28,-16,-13,-37,-7,-55,56
10,4,15,-30,-11,-11,-17,2,-47,43
-28,38,61,-19,-11,-24,21,0,-45,-3
-100,39,74,7,1,-13,32,3,-48,-56
-142,34,64,29,17,3,33,-3,-53,-80
-35,37,39,11,14,4,26,-6,-53,-36
102,35,27,-19,3,4,-5,0,-42,3
90,14,15,-24,-7,-17,-39,-9,-38,5
65,6,7,-19,-8,-39,-43,-22,-34,2
174,7,-2,-16,-6,-27,-36,-23,-13,27
336,8,-16,-23,-4,1,-43,-18,0,42
391,3,-54,-29,6,6,-26,-5,17,59
198,-20,-63,-11,49,14,12,20,34,47
52,-75,-51,34,98,60,46,34,52,10
-20,-113,-9,59,129,106,70,38,36,-22
-111,-75,9,66,123,99,58,29,0,-37
-180,40,16,22,51,90,83,59,19,-29
-217,160,29,23,32,75,84,67,28,-25
-176,213,134,105,69,42,20,16,-7,-32
-49,214,172,94,33,-1,-24,-20,-29,-20
-35,210,146,22,-24,-50,-48,-49,-36,-41
-111,48,46,-35,-25,-54,-41,-36,-18,-58
-122,-109,-25,-49,-10,-28,-6,2,15,-34
-94,-96,-13,-43,-37,-15,33,13,30,1
-70,-50,-1,-36,-65,-9,26,2,32,7
-45,-54,-14,-29,-69,-17,-12,1,46,10
16,-67,-1,-25,-55,-24,-15,-1,42,33
39,-40,-53,-1,-19,-32,-14,-27,8,34
20,-55,-145,-9,11,-8,-6,-29,-2,22
10,-43,-72,-34,-15,2,11,2,32,18
-70,-45,-19,-60,-50,12,41,50,67,-13
-98,-20,32,-32,-30,6,37,59,60,-38
-93,17,89,15,-14,-6,2,42,36,-32
-114,9,67,20,-14,3,8,45,26,-23
-102,-5,59,51,12,15,-4,19,4,-24
-56,7,61,70,30,6,-21,-10,-28,-15
-6,-8,17,65,28,-2,-23,-33,-57,-15
15,-21,-44,65,32,-3,-5,-44,-84,-27
12,-28,12,56,50,0,-13,-54,-99,-37
-29,-74,-36,5,15,-25,-24,-14,-32,-27
-52,-93,-53,-48,-35,-37,2,31,15,-17
-21,-85,-9,-50,-53,-28,12,22,-1,-17
-1,-42,45,-16,-33,-33,-13,-20,-43,-17
15,-44,51,12,9,-31,-24,-48,-61,-12
33,-90,8,37,62,-6,-16,-56,-61,-11
22,-140,-94,23,121,67,29,-38,-57,-19
27,-83,-114,18,120,108,47,-40,-90,-35
122,148,126,99,53,12,-45,-123,-146,-15
177,208,196,101,3,-70,-103,-125,-100,39
189,122,146,87,14,-35,-91,-106,-55,62
120,24,56,47,1,-1,-46,-41,-15,61
5,-124,-115,-75,-42,41,53,71,65,42
6,-110,-82,-71,-69,22,51,74,74,49
14,-80,-53,-59,-106,-26,29,57,79,47
-53,-176,-159,-104,-118,-27,49,82,124,40
-80,-191,-154,-109,-134,-42,51,76,130,34
-81,-132,-57,-87,-142,-33,25,20,91,-17
-81,-97,-9,-39,-115,-31,-6,-17,43,-82
-96,-93,29,0,-80,-40,-17,-18,24,-124
-84,-109,17,2,-62,-32,12,-7,26,-110
-11,-91,36,16,-63,-33,17,-22,19,-80
3,-61,59,20,-73,-47,-12,-35,12,-47
-8,-68,12,26,-64,-33,-1,-25,26,-28
3,-64,18,40,-33,-1,28,-3,39,-16
31,-41,45,59,0,26,57,0,32,6
33,-51,49,53,8,36,56,-6,7,22
30,-31,3,35,-1,28,72,3,21,11
31,25,-4,30,-5,30,74,11,56,4
18,-9,-7,20,-9,36,78,32,125,23
11,-66,-41,-14,-41,30,80,44,160,42
28,-85,-85,-37,-82,-6,68,44,126,37
9,-136,-124,-44,-98,-14,72,50,82,13
-27,-151,25,5,-61,-18,37,30,27,-36
-34,-66,133,45,-54,-39,0,-1,12,-46
-7,-58,117,35,-78,-53,11,-13,5,-19
9,-114,63,20,-64,-36,19,-6,0,-8
33,-136,47,38,-36,-3,20,-10,-47,-13
46,-124,57,67,-14,15,38,-28,-96,-13
40,-19,121,89,10,26,35,-37,-126,-30
49,166,224,133,41,37,31,-48,-150,-56
61,227,201,128,47,45,30,-27,-110,-24
68,216,146,89,21,36,-1,-11,-63,18
80,242,116,60,-7,1,-42,-30,-69,45
53,148,112,51,-23,-27,-40,-34,-68,35
0,-7,69,3,-61,-30,-22,11,6,46
-36,-136,23,-24,-80,-18,6,56,73,44
-62,-195,-10,-19,-51,22,44,70,56,11
-25,-186,-69,-37,-23,47,69,63,43,9
40,-123,-27,10,-18,30,34,31,51,38
12,-32,14,36,-10,23,19,0,9,6
-51,-57,-5,10,12,35,39,2,-26,-27
-18,-75,-1,19,-12,11,23,4,8,-16
9,-43,20,24,-55,-15,7,-10,48,-4
-18,-82,-50,-9,-50,2,28,18,145,0
-3,-106,-65,-3,-41,4,10,32,183,24
41,-93,-52,9,-29,-9,-13,1,114,3
70,-56,-79,12,-32,-15,-39,-31,-6,-34
86,-41,-143,22,-44,-21,-47,-56,-96,-19
54,-30,-85,24,-27,-13,-32,-52,-89,17
48,50,-31,20,-25,-13,-24,-56,-74,48
135,96,-27,5,-45,-11,-15,-43,-25,112
210,124,9,-11,-68,-36,-40,-34,9,167
181,195,88,-3,-53,-47,-72,-63,-23,141
171,178,18,-10,-12,-10,-52,-61,-62,103
98,95,29,10,9,10,-15,-16,-63,76
25,91,132,71,24,16,-20,5,-64,72
116,79,142,81,27,9,-32,-7,-60,59
79,20,118,67,16,6,7,14,-47,14
162,8,124,56,8,7,5,12,-77,-40
148,-23,64,18,3,16,6,14,-72,-54
-25,-100,-26,15,30,40,15,38,-34,-73
-204,-232,-146,-12,81,107,66,89,1,-109
-393,-311,-235,-71,97,168,147,129,22,-165
-392,-72,11,5,31,57,59,62,-9,-161
-186,92,124,20,-50,-53,-40,-8,-57,-94
-16,83,92,22,-28,-49,-49,-23,-80,-42
55,76,85,33,-5,-39,-48,-26,-87,-29
25,11,21,21,25,-11,-15,0,-49,-33
47,-55,-107,-17,4,11,23,46,2,-20
59,-40,-199,-25,3,5,22,64,31,-19
-16,-32,-208,-27,17,15,24,57,33,-36
-91,-10,-114,-7,21,24,15,23,6,-71
-147,-20,-69,14,5,36,13,22,5,-88
-167,-51,-78,-22,-20,32,4,21,34,-73
-151,-31,-77,-46,-27,6,-18,1,41,-50
-144,-105,-95,-73,-12,18,-8,-7,43,-51
-103,-155,-82,-97,-20,25,11,-1,25,-45
-81,-191,-129,-143,-20,57,46,4,-1,-36
9,-37,-21,-26,29,13,-22,-74,-74,-26
93,64,70,48,69,-13,-67,-103,-71,35
190,103,77,1,-35,-38,-63,-46,17,160
260,141,103,-11,-90,-64,-73,-34,31,205
291,163,117,29,-46,-68,-93,-60,12,201
343,143,80,23,-23,-63,-93,-57,39,205
328,27,-53,-67,-8,-6,-19,19,108,173
53,-64,-96,-75,-1,44,31,72,103,31
-69,34,44,-15,-16,15,-8,37,47,-81
-2,75,89,21,1,9,-29,15,16,-78
-73,-7,23,-1,26,28,-16,37,4,-72
-197,-120,-93,-48,50,60,37,71,17,-94
-204,-99,-67,-38,40,30,31,40,-1,-120
-111,-11,12,-18,-25,-27,-15,10,-15,-64
-62,8,8,-11,-26,-27,-23,6,-9,-8
35,34,80,52,37,-2,-55,-32,-70,-11
139,45,40,50,15,3,-82,-51,-93,9
119,-2,-106,-20,-44,-14,-75,-13,-43,66
33,-57,-109,-52,-31,-18,-37,35,21,72
-23,-63,-63,-34,-10,5,-20,59,30,26
9,19,47,22,13,8,-50,6,-35,-27
-81,-18,17,22,55,60,-8,11,-62,-54
-249,-24,-10,65,82,62,-12,13,-68,-42
-635,-160,-104,92,208,141,41,23,-82,-65
-744,-358,-280,-13,258,284,194,99,-53,-105
-304,-69,53,51,74,111,60,0,-104,-61
231,369,552,231,-120,-155,-211,-202,-188,42
429,304,432,92,-201,-197,-214,-132,-107,138
277,95,176,-45,-176,-149,-125,-27,5,127
44,-45,44,-86,-139,-93,-63,25,57,48
-138,-128,-15,-102,-105,-41,-13,56,69,-61
-173,-62,93,-55,-125,-65,-27,50,49,-130
-104,4,162,7,-89,-56,-39,15,6,-130
-86,-19,98,16,-49,-13,-23,6,0,-82
-32,-54,59,16,-37,2,-13,13,-6,-36
88,-70,13,-19,-31,28,24,59,17,9
156,-81,-42,-50,-41,34,56,116,49,33
87,-99,-74,-50,-39,58,83,153,51,16
78,-19,-33,-30,-52,24,81,110,38,3
111,90,-10,29,-53,-17,31,51,-6,15
66,-49,-171,18,0,23,39,60,5,23
66,-230,-177,-9,31,37,65,80,43,30
116,-283,-168,-10,34,25,66,69,60,31
193,-234,-82,0,4,-5,27,35,52,34
191,-159,-79,-16,-30,-16,5,9,33,3
131,-11,-45,-10,-32,-29,-19,-13,19,9
72,44,15,0,-26,-9,-21,-19,19,31
7,21,17,-23,-34,0,-10,-6,27,58
-56,206,152,-53,-68,-48,-38,-34,-7,20
-118,366,338,-52,-67,-81,-75,-102,-70,-44
-132,149,289,-63,-56,-59,-68,-96,-69,-49
-127,-158,95,-111,-13,3,19,-24,-33,0
-74,-176,94,-83,12,5,43,-5,-20,36
-4,18,210,-41,-83,-87,-3,-11,-20,60
-132,15,174,-36,-72,-48,21,15,-3,2
-247,-38,169,50,58,70,58,-7,-59,-85
-148,40,236,89,34,24,15,-51,-80,-46
-40,147,314,81,-65,-64,-45,-70,-77,4
-19,35,187,42,-25,-17,-12,-26,-52,14
91,-59,87,-2,-19,-1,18,23,-24,65
164,-80,4,-40,-5,23,44,37,0,97
101,-48,14,-30,-33,7,6,10,-19,65
15,6,121,24,-22,3,-22,-2,-38,1
-110,-21,70,20,11,33,-5,9,-29,-57
-201,-39,32,3,56,43,-5,15,-8,-105
-185,19,77,44,98,43,6,0,-11,-134
-30,-13,1,14,72,35,23,12,-5,-84
15,-100,-142,-59,74,86,73,51,13,-40
77,-24,-17,2,103,65,39,7,-33,-61
285,212,330,213,77,-135,-130,-134,-137,-28
364,195,198,163,48,-98,-115,-133,-139,15
340,120,-16,-32,39,146,43,-6,2,81
276,72,-82,-128,10,318,96,82,107,160
232,83,2,-34,27,291,27,37,82,184
160,152,134,0,0,107,-28,-32,10,150
65,137,140,-71,-82,-91,-88,-77,-25,120
93,32,10,-148,-111,-187,-137,-120,-48,130
104,-32,-73,-145,-51,-170,-135,-116,-29,132
-34,-51,-77,-144,-52,-126,-54,-43,47,102
-233,-30,-45,-63,40,-21,7,-9,22,-28
-333,30,41,43,120,-5,-3,-34,-24,-118
-466,-41,-38,69,195,30,39,7,-5,-186
-654,-250,-300,-50,267,143,173,113,68,-214
-696,-202,-239,-52,256,189,215,111,28,-258
-400,181,212,152,97,10,15,-37,-71,-226
219,551,584,303,-13,-195,-203,-174,-125,-73
607,484,455,197,-28,-177,-164,-104,-58,46
309,175,128,49,6,-21,13,51,61,88
137,18,-62,-1,38,57,80,113,94,70
53,-21,-173,8,110,77,79,85,55,29
-101,-23,8,93,134,39,21,20,20,43
-132,71,111,28,-82,-90,-35,24,81,119
-7,126,-43,-19,-75,-83,-9,60,100,108
234,230,-135,-53,-27,-34,35,104,117,101
228,264,-153,-139,-93,-44,47,116,94,99
28,86,-82,-83,-9,-27,8,27,-34,11
-122,-92,-70,-35,62,1,-30,-26,-97,-32
-179,-159,-166,-177,-10,57,69,45,-33,-31
-171,-86,-44,-141,-31,51,86,34,-43,-37
-200,-54,66,11,32,26,29,1,-71,-14
-130,27,47,22,-52,-60,-31,13,-13,96
-100,-49,-108,-88,-117,-85,-34,59,87,214
-151,-163,-188,-91,5,48,0,47,39,150
-131,-50,24,29,31,23,-62,-44,-70,53
-149,-138,-25,-19,20,50,20,-12,-68,-48
4,-62,39,57,102,67,46,-15,-89,-168
92,111,232,258,162,4,-30,-77,-111,-220
-22,32,130,206,193,75,24,-70,-120,-261
-92,-129,-137,-57,101,186,167,38,-29,-236
71,5,12,-15,-39,20,28,-6,9,-74
111,-31,-47,-111,-95,-39,8,28,95,24
85,-2,-21,-66,-52,-44,32,32,90,28
55,9,0,12,72,27,8,-41,-37,-30
6,-49,-42,30,103,120,22,-52,-81,-66
18,47,127,144,53,5,-62,-72,-54,-51
51,54,100,66,-70,-56,-69,-28,34,12
22,-31,-66,4,-50,-34,-30,34,95,64
10,-10,-81,30,-28,-47,-10,51,96,75
8,34,-39,0,-35,34,65,60,114,36
43,179,143,43,-71,-13,25,18,135,33
18,94,40,15,-20,29,57,23,119,20
34,80,32,63,45,37,16,-13,71,-1
50,57,-30,36,75,55,-21,-33,48,-16
35,-63,-217,-75,9,74,48,46,111,19
108,-96,-229,-111,-10,68,59,58,95,29
317,43,-69,-110,-90,-23,-29,-3,38,88
390,98,3,-62,-107,-70,-68,-38,-20,99
390,212,78,63,-100,-139,-137,-97,-80,63
247,111,-42,-22,-94,-93,-87,-40,-25,52
63,14,-54,-38,-40,-52,-77,-24,-29,1
-165,-143,-295,-153,31,35,26,52,24,-41
-221,-195,-377,-159,164,161,94,39,-2,-56
20,192,195,150,38,-33,-104,-147,-143,8
11,261,341,294,72,-87,-192,-245,-252,-3
-69,70,113,137,73,-22,-109,-168,-185,12
28,-67,-48,-32,15,4,-1,-41,-4,85
135,-26,-16,-18,20,66,75,32,61,74
13,96,66,33,0,28,40,66,113,116
25,159,50,22,-30,-45,3,98,163,146
-54,77,-38,35,119,74,60,71,62,-1
-129,124,24,84,202,124,49,-2,-25,-102
-74,183,169,102,48,24,-24,-63,-72,-79
-65,169,173,96,-31,-47,-58,-81,-44,-22
-190,83,18,8,-15,-38,-30,0,82,52
-133,-15,-150,-94,4,16,36,80,162,59
11,-97,-199,-115,15,30,52,89,154,42
-138,-197,-256,-131,67,70,104,75,113,-11
115,12,-22,12,44,-10,14,-24,44,-26
311,141,113,162,80,-106,-140,-136,-6,10
182,-167,-231,55,250,41,-43,-74,27,28
-33,-310,-427,-70,245,206,62,-33,23,-2
-44,47,-40,28,31,73,-9,-110,-37,36
39,355,338,154,-62,-89,-135,-243,-154,30
146,209,159,104,56,-1,-93,-206,-126,6
309,103,-27,-88,-90,-66,-42,-31,105,208
303,33,-62,-144,-175,-105,-1,93,238,285
177,-20,-131,-133,-134,-80,12,108,253,204
-43,-144,-327,-191,-8,48,86,126,216,64
-141,-40,-194,-68,55,38,51,63,145,-11
-163,13,-62,79,161,57,26,-12,69,-50
-145,-18,-89,61,197,116,52,-54,-28,-32
55,20,-112,-87,-18,26,76,-8,6,163
225,200,113,40,-36,-158,-128,-158,-46,245
195,95,-62,-79,-2,-120,-85,-88,20,239
-31,-18,-103,-74,69,63,48,-2,11,4
-241,-15,-47,-8,46,81,52,47,16,-261
-230,60,6,0,6,35,35,90,53,-339
-289,0,-85,-34,66,66,40,86,22,-326
-365,-239,-483,-302,-12,159,190,206,76,-269
-244,-256,-436,-263,0,124,200,195,78,-177
23,170,51,140,43,-209,-149,-59,-58,-74
47,99,-79,133,128,-150,-129,-54,-36,-43
-24,31,-36,216,314,-27,-112,-82,-88,-94
-161,-112,-197,3,231,112,35,21,-61,-120
-287,-104,-262,-77,136,185,133,69,-57,-151
-352,41,-151,11,203,170,79,-16,-149,-225
-65,211,101,26,59,29,-14,-66,-144,-127
270,181,183,-6,-97,-84,-48,-76,-105,-28
286,28,-72,-156,-173,-95,-11,-17,-21,39
146,54,-104,-167,-156,-42,16,17,33,34
97,429,270,63,-215,-192,-141,-71,4,22
-4,320,70,1,-117,-142,-89,-23,59,15
7,7,-175,36,153,-39,-81,-69,-4,-34
22,-303,-482,-143,233,109,54,22,7,-56
-83,-312,-457,-329,67,150,207,181,131,-13
181,117,300,80,-80,-89,-46,-28,5,22
538,197,379,116,-198,-219,-163,-95,-31,135
596,108,94,-56,-162,-120,-59,10,69,229
442,-32,3,-96,-78,-39,8,78,132,238
266,-96,58,8,53,-31,-33,12,51,185
55,-7,1,79,211,-3,-22,-57,-30,124
-219,48,-315,-75,217,111,120,33,-3,76
-546,143,-463,-169,200,224,213,86,-43,-96
-766,267,-79,39,174,140,96,-24,-116,-273
-531,62,133,40,-19,-36,-21,-46,-50,-175
-84,-140,129,-65,-141,-85,-32,-12,-12,-75
85,-154,147,-120,-267,-132,-37,29,18,-33
47,-75,211,-60,-291,-172,-76,22,30,11
10,-100,130,-91,-228,-136,-28,80,65,48
10,-55,45,-99,-155,-129,-3,98,57,46
7,-97,-70,-69,36,-91,11,75,31,45
-108,-290,-305,33,410,72,30,25,-31,-11
-232,-443,-508,50,625,262,115,40,-55,-118
-165,-268,-385,10,307,218,143,52,-58,-142
89,152,28,127,-107,-104,-34,-32,-65,-25
210,287,157,94,-197,-235,-144,-74,-57,67
257,250,131,-8,-197,-214,-117,-3,31,152
296,236,140,41,-87,-154,-134,-44,-20,136
244,77,-51,49,108,-42,-88,-72,-71,64
145,-139,-349,-115,147,23,89,53,-13,52
170,-100,-252,-72,154,28,65,-1,-64,19
294,49,-44,-29,26,91,-9,-42,-51,71
340,160,138,56,-104,171,-48,-49,0,99
227,47,-1,27,-46,231,-1,-12,55,81
26,-61,-170,-68,-11,156,37,43,117,77
-302,-77,-139,-27,26,-24,-19,7,97,-38
-503,-202,-326,-210,-30,-105,8,46,89,-114
-400,-104,-253,-257,-107,-150,-20,22,64,-109
-47,77,25,14,-7,-169,-126,-92,-30,-73
245,40,-89,-27,27,-68,-24,-16,19,56
223,27,-169,-14,118,64,61,7,25,69
306,155,-59,99,104,-33,-47,-47,-16,118
282,157,-109,66,72,-116,-96,-39,0,222
-79,17,-218,-61,40,-68,-25,36,59,242
-308,128,-34,2,-70,-140,-104,-30,9,247
-328,128,-197,-148,-235,-204,-126,-32,22,266
108,-111,-531,-374,-174,-38,54,123,100,196
-73,-125,-260,-93,76,121,79,63,-38,-145
-722,184,238,196,-21,96,35,-35,-171,-371
-298,425,539,401,-95,14,-42,-154,-254,-336
211,284,299,205,-119,21,-8,-98,-159,-198
270,80,8,-15,-139,11,31,51,26,-58
173,-47,-64,-49,-60,7,30,110,88,11
-199,-251,-226,-139,30,169,153,175,98,15
-445,-261,-172,-51,61,237,178,96,-15,-56
-346,-81,103,114,60,159,71,-45,-122,-144
-26,0,156,64,-105,33,9,-27,-34,-61
71,34,117,-74,-208,-11,44,65,73,8
1,140,149,-126,-227,-117,50,165,209,104
-64,86,14,-219,-250,-70,113,213,256,95
120,60,-49,-191,-255,-56,76,165,175,64
241,-58,-176,41,233,-40,-56,12,50,-36
230,-231,-388,148,677,-19,-100,-98,-2,-77
193,-262,-417,49,583,67,324,-19,-8,-72
423,2,11,220,372,23,661,-33,-93,-70
613,180,266,280,202,-46,330,-93,-70,0
304,42,44,139,207,181,41,-54,57,32
-354,-283,-332,53,325,566,-40,-8,111,-65
-637,-698,-745,-186,391,898,160,193,199,-199
-531,-284,-187,-58,59,493,3,117,120,-201
-356,52,94,-147,-354,-121,-255,-18,-49,-140
-236,157,128,-193,-361,-357,-330,-65,-176,-160
46,213,247,-61,-183,-406,-361,-167,-246,-188
426,126,158,26,23,-353,-316,-167,-223,-110
496,83,13,11,27,-311,-248,-78,-131,36
334,112,14,-8,-1,-308,-227,-16,-93,130
235,166,45,-70,-86,-302,-158,68,9,224
52,245,181,51,-85,-297,-156,78,94,244
-215,146,68,45,25,-219,-159,45,56,183
-339,-90,-307,-149,161,-113,-52,73,94,225
-517,-371,-534,-197,346,182,156,90,21,96
-230,-129,-9,280,413,145,23,-120,-193,-42
123,77,219,436,349,-2,-123,-261,-310,-78
375,94,205,348,265,21,-109,-282,-362,-99
719,3,-127,-71,-52,-114,-72,-57,-16,317
696,18,-283,-219,-149,-170,-89,36,146,471
644,60,-306,-251,-157,-69,-31,57,132,408
704,114,-35,-42,-122,-106,-106,-60,23,355
305,92,34,82,3,-42,-80,-103,-61,188
-355,356,29,78,56,33,-11,-54,-56,-8
-840,655,5,125,135,78,-1,-27,-14,-192
-931,587,-73,84,224,139,57,11,9,-218
-823,-118,-373,-104,231,228,197,132,96,-137
-767,-677,-544,-272,196,288,275,197,158,-89
-627,-221,43,-210,-84,56,92,63,121,22
-532,7,455,-48,-192,-90,-50,-57,-27,24
-539,-330,410,145,90,91,-38,-164,-203,-141
322,190,817,285,-200,-197,-249,-288,-236,-57
937,444,717,127,-358,-337,-277,-214,-119,99
530,159,248,-30,-199,-96,-59,-23,35,164
188,-4,4,-193,-290,-23,93,167,273,232
-153,-51,-36,-178,-293,-57,83,218,344,81
-441,-345,-279,-217,-123,118,204,246,267,-191
-191,-421,-322,-212,-79,210,247,225,166,-177
115,90,296,108,-195,-4,27,-5,-10,-92
95,116,306,95,-212,-2,45,-1,-34,-83
69,-56,156,75,-95,30,64,55,18,-74
58,-147,-19,18,-27,-26,5,58,73,32
-79,-418,-480,-220,102,150,142,150,104,40
-27,-214,-250,-4,347,206,80,14,-27,-29
100,49,-45,129,267,72,-50,-95,-99,-24
110,45,-47,75,100,13,-83,-101,-140,-59
147,58,51,120,91,-5,-94,-113,-158,-77
27,91,126,73,69,100,13,-81,-189,-133
-18,160,278,152,39,61,-51,-178,-301,-195
63,117,243,140,28,-1,-110,-218,-327,-159
-4,-38,-95,-11,-1,14,-15,-73,-158,-63
-37,-168,-216,-51,50,15,27,30,28,6
-3,-110,-107,-38,-11,-7,5,24,45,0
36,-91,-157,-108,-64,23,74,54,-7,-23
95,-42,-118,-156,-67,-28,49,65,21,49
142,139,88,-132,-203,-200,-37,59,70,151
-55,140,136,-30,-126,-119,-6,60,54,61
-195,118,74,-49,-105,-35,57,78,63,3
-124,110,-8,-94,-125,7,68,50,34,-2
74,151,9,-80,-143,12,51,-3,-11,48
327,190,95,65,-99,-40,-30,-76,-58,85
176,-123,-347,-92,-4,90,99,35,29,32
-100,-216,-509,-235,-16,203,253,159,110,-12
99,171,21,41,-50,5,59,37,50,57
472,85,6,121,186,20,13,0,26,59
686,18,63,102,172,-17,-33,-70,-39,20
528,27,60,-70,-15,-53,-25,-81,-64,-16
335,129,199,-25,10,-121,-109,-159,-156,-55
288,150,221,0,-116,-195,-183,-173,-151,82
401,143,144,-68,-247,-309,-238,-87,-11,361
278,3,-133,-218,-302,-281,-133,192,217,549
-420,-442,-563,-394,-165,134,262,489,281,341
-453,-277,-121,51,60,216,168,247,-18,26
-176,-80,67,206,95,94,31,97,-92,-78
-534,-63,-110,150,193,106,65,107,-35,-239
-787,39,-251,141,320,135,74,93,-17,-310
-592,-30,-564,-8,379,291,217,161,42,-215
-382,5,-460,-24,356,379,265,154,-6,-205
-100,474,372,214,50,-5,-94,-69,-110,-107
-172,48,108,-87,-87,-22,-22,45,4,-30
-353,-159,67,-12,156,118,37,4,-81,-163
-331,100,343,44,159,75,-36,-103,-152,-202
-251,9,269,-96,-23,-8,-60,-91,-64,-126
39,70,495,91,-258,-207,-189,-141,2,-14
165,-25,254,-34,-293,-178,-120,-29,162,78
194,-118,-52,-180,-208,-167,-101,39,259,191
123,-170,-82,-85,-38,-72,-83,-8,143,155
71,-87,26,95,15,-48,-69,-76,29,74
-164,-193,-182,-24,-22,56,70,22,8,-54
-291,-87,-75,27,14,63,48,-29,-58,-135
-163,261,270,141,-41,-15,-30,-133,-196,-128
46,397,370,119,-80,-42,-29,-150,-216,-68
113,54,60,-15,-80,6,105,26,9,36
75,-144,-37,-64,-111,-9,110,114,171,92
367,-27,185,21,-95,-74,-10,-8,58,101
555,-93,180,25,-22,-7,5,-58,-39,65
405,-107,140,-21,-67,-17,6,-47,4,109
195,-22,140,-43,-141,-82,-54,-53,91,173
-49,-87,-21,-96,-127,-84,-40,0,172,94
-234,-125,-119,-54,12,-47,-58,-32,112,-1
-417,-242,-272,-18,180,86,48,17,99,-80
-440,-490,-651,-322,147,263,294,206,196,-131
-54,-62,-50,-84,-69,26,89,27,54,-103
110,168,261,148,-89,-36,-46,-168,-151,-130
106,80,79,34,-86,-5,13,-120,-103,-28
268,294,333,144,-152,-153,-103,-165,-74,117
138,30,69,51,-37,-31,-11,-69,1,131
67,-119,-118,-96,-58,34,96,66,103,153
168,174,129,30,-88,-53,0,-13,25,109
55,219,43,63,-19,-12,-12,-12,-21,-21
268,318,-35,76,-10,-41,10,42,32,-10
336,280,75,143,114,2,-22,-36,-69,-31
27,-36,-95,-50,103,142,83,1,-84,-48
-151,56,168,17,-117,-38,-29,-44,-45,-1
-227,-60,3,-197,-361,-138,-12,48,75,42
-401,-328,-272,-138,-89,44,53,38,51,-101
-551,-378,-354,-91,78,200,84,0,-11,-226
-445,-233,-324,-304,-228,101,159,119,65,-154
148,352,398,132,-309,-224,-189,-165,-150,-52
230,70,78,210,87,43,-135,-231,-319,-144
-185,-331,-367,-23,256,381,196,9,-163,-134
-36,158,297,282,46,77,-27,-141,-209,-64
507,269,301,45,-93,-59,-43,-83,-94,136
974,319,339,-10,-161,-237,-72,-3,71,440
991,195,189,-44,-63,-240,-111,-14,101,509
969,187,115,-28,-23,-183,-148,-71,42,454
1146,157,-19,-139,-81,-168,-132,-65,31,434
893,67,-126,-231,-269,-116,-41,26,120,354
-486,-74,-183,-173,-293,210,226,166,105,-135
-1321,-232,-233,-71,-84,482,406,181,-56,-570
-955,136,373,341,111,112,63,-63,-194,-519
-495,195,452,522,336,-165,-194,-227,-212,-299
-394,-238,-167,86,271,-6,0,-31,-20,-115
-526,-289,-123,136,370,-8,-25,-11,32,-123
-624,-186,132,554,830,-125,-186,-140,-42,-199
-625,-418,-267,296,762,-4,122,41,128,-124
-474,-463,-616,-344,-29,215,537,353,374,60
-262,-91,-220,-326,-271,327,407,317,335,4
44,429,550,300,-77,101,-143,-90,48,-67
-295,-258,-269,70,367,423,1,-68,-47,-240
-619,-689,-708,-250,512,610,347,152,-54,-470
-158,99,366,175,124,-118,-92,-100,-177,-371
86,318,492,226,-79,-508,-370,-249,-223,-145
37,179,178,97,-62,-392,-276,-191,-169,-32
-54,-2,-179,-121,-107,-196,-87,-36,0,15
110,13,-232,-206,-162,-206,-74,22,91,111
310,93,-1,-120,-177,-270,-126,7,74,145
373,109,100,-34,-129,-265,-122,17,67,181
296,121,94,12,-102,-242,-94,65,111,200
146,-39,-65,-19,-13,-91,-4,76,83,107
131,-87,-23,-53,-64,-62,-3,57,82,80
217,102,-33,-139,-179,-149,-43,81,138,201
247,265,-154,-181,-133,-138,-61,54,141,287
5,-100,-550,-245,150,148,83,85,100,128
-64,-242,-342,17,244,162,40,-25,-20,-16
-25,-263,-228,-50,45,132,42,4,-6,-44
149,124,305,122,-40,44,-59,-98,-63,-91
344,363,671,487,153,-75,-251,-258,-225,-124
240,312,696,661,325,0,-190,-227,-269,-206
-111,0,317,399,303,223,21,-113,-206,-298
-63,-167,-98,-100,-20,131,95,79,131,-12
240,111,84,-130,-207,-81,3,43,188,155
333,256,212,18,-165,-126,-70,-68,45,158
96,-108,-279,-138,63,115,108,22,-32,20
48,-97,-326,-112,35,84,76,48,19,12
-154,-210,-559,-304,-101,96,193,269,275,48
-103,125,-170,-88,-133,-11,89,144,187,-9
16,23,-171,-58,-197,-73,52,79,162,78
-108,-347,-549,-254,-79,132,208,177,175,100
-6,280,-34,-79,-65,40,67,36,7,53
131,995,596,191,-151,-132,-163,-184,-203,-39
-19,681,147,6,-138,-16,-71,-109,-175,-68
150,190,-70,-52,-135,-79,-51,-42,-56,90
287,-319,-145,-73,-3,-74,5,52,129,267
117,-350,-75,-144,52,102,67,76,206,246
178,-52,456,79,-66,179,-24,-44,88,196
328,-180,400,123,-77,233,161,-9,63,228
281,-170,266,34,-160,139,256,30,-21,170
-202,-81,272,26,-153,-31,72,-35,-205,-141
-645,-138,158,-23,-140,-158,-78,-51,-166,-376
-386,-309,-121,-145,-106,-148,-81,39,-8,-270
-168,-632,-505,-165,226,142,53,79,-8,-249
-124,-599,-478,-21,293,226,94,60,-45,-256
182,123,64,234,49,-47,-84,-35,-52,-99
304,723,183,164,-120,-201,-148,-25,-19,19
343,1108,251,291,-7,-211,-237,-177,-169,-39
241,954,83,190,115,-62,-151,-190,-266,-133
161,525,-44,-8,-35,-39,-106,-129,-263,-70
144,167,84,-104,-177,-138,-116,-26,-87,91
365,-200,184,-214,-267,-183,-68,65,102,195
197,-550,158,-216,-260,-178,-65,57,107,231
-478,-628,71,-163,-171,-74,16,86,95,168
-720,-500,89,-86,-105,-18,45,72,71,109
-622,-349,92,-61,-100,-27,20,47,53,121
-336,-217,54,-72,-99,-23,20,39,40,146
57,-96,54,-48,-78,-29,28,44,77,148
200,54,192,63,-28,-23,8,29,106,64
96,93,245,168,74,2,-51,-15,76,-69
-91,-168,-109,113,189,104,21,40,71,-183
-262,-321,-332,66,290,270,142,67,31,-242
-424,-670,-811,-195,456,592,384,145,-46,-347
-175,-338,-339,-96,284,503,313,37,-186,-404
678,773,1111,490,-288,-351,-343,-391,-388,-210
713,539,671,226,-170,-395,-305,-229,-173,25
336,285,282,94,-34,-194,-119,-87,-59,34
-148,50,43,-14,-90,-35,40,56,41,-2
-370,-128,-186,-142,-159,32,142,181,164,45
-411,-232,-399,-197,-196,54,172,202,196,71
-409,-208,-317,-153,-151,5,110,165,195,91
-135,-77,-116,-106,-125,-98,20,130,194,123
16,36,60,111,97,-86,-60,-17,49,42
-248,-280,-213,111,373,263,167,29,-38,-149
-233,-325,-311,-42,229,362,284,89,-63,-177
108,-28,-232,-229,-172,7,87,115,80,97
12,-55,-132,-190,-315,67,105,111,-26,-56
32,150,338,198,-267,61,-51,-127,-281,-225
247,270,282,30,-421,-104,-141,-125,-182,-18
262,323,324,121,-280,-185,-223,-172,-176,32
55,66,133,140,94,-66,-159,-154,-186,-3
-4,-58,-66,-54,129,-22,-58,-48,-41,143
-2,-34,-72,-193,-177,-130,-1,75,137,223
108,-44,-94,-201,-270,-75,47,122,125,182
250,-37,-128,-59,-100,-45,44,113,112,152
150,-114,-230,96,400,66,18,53,97,91
-216,-232,-342,4,575,125,50,81,120,4
-494,-268,-372,-96,450,126,116,138,138,-157
-171,304,369,172,36,-184,-165,-62,-1,-101
-153,345,400,182,-12,-208,-218,-139,-115,-25
-299,-239,-355,-199,152,110,75,40,-91,-15
6,22,62,98,122,1,-42,-122,-229,-39
186,327,419,441,258,-114,-247,-358,-415,-63
195,182,226,258,316,-36,-171,-334,-444,-53
371,228,292,155,99,-118,-127,-238,-301,-11
481,154,219,115,93,0,150,-37,-61,-33
151,-35,-29,-47,40,132,376,162,135,-85
-167,-301,-328,-270,-196,159,353,311,302,-24
-353,-411,-402,-142,4,170,121,213,262,-18
-255,-273,-340,-70,82,108,-12,137,197,11
-94,-293,-587,-333,114,162,152,274,268,80
285,23,-82,115,285,16,-79,-19,-28,-28
208,-105,25,366,387,214,-27,-177,-338,-384
254,67,168,327,191,82,-78,-169,-294,-359
445,426,500,263,-112,-248,-295,-185,-123,-62
397,248,204,-18,-244,-219,-153,14,141,197
314,108,-46,-225,-290,-188,-44,157,328,370
-92,54,-11,-174,-185,-113,-5,174,292,234
-404,230,318,-16,-148,-133,-46,106,213,75
-380,109,189,-76,-188,-133,-46,96,171,42
-242,-35,23,-117,-150,-91,-6,46,88,-11
-225,-94,-64,-123,-121,-52,27,52,86,-71
-202,-68,-53,-110,-120,-64,19,62,116,-22
-65,-45,-42,-86,-88,-16,36,52,94,24
46,-49,-30,-41,-24,29,51,27,54,33
68,-85,-121,-67,-2,38,26,23,73,58
166,-144,-235,-192,-36,53,106,98,127,117
394,72,29,-28,-50,-42,20,17,55,125
326,70,122,228,123,40,-2,-70,-86,-12
18,-317,-357,24,348,352,256,77,-54,-87
202,87,9,-83,-115,38,70,0,-45,138
255,591,670,220,-399,-321,-279,-259,-167,262
-114,366,364,107,-259,-180,-200,-189,-79,327
-210,198,60,-79,-159,-64,-90,-46,50,336
229,166,60,-63,-30,-31,-22,-16,27,175
291,-70,-97,15,220,111,71,4,-51,-106
33,-264,-354,-106,246,268,191,122,34,-259
515,173,141,13,-33,-32,-20,36,59,-180
526,184,214,108,-45,-168,-148,-57,-8,-146
-242,-155,-101,30,169,22,-65,-74,-104,-231
-471,-95,-21,-27,47,36,-21,-54,-87,-125
-593,-241,-179,-141,-40,47,94,83,64,77
-763,-506,-316,-210,14,160,239,191,127,-61
-25,-42,323,113,-147,-124,-36,-46,-13,-68
323,-46,151,48,-122,-104,-39,-47,-21,-26
-9,-107,-7,20,-22,20,23,15,-6,-129
-274,31,108,172,61,-16,-26,-16,-13,-162
-416,-196,-129,161,247,138,76,12,-28,-158
-487,-489,-459,-112,236,348,278,111,-13,-160
-211,-177,-326,-198,22,104,140,85,57,7
-115,-87,-161,17,173,88,10,-34,-41,-50
-1,92,199,89,-95,-61,-74,-30,-7,2
38,132,159,29,-116,-103,-94,-20,24,75
75,116,-18,-39,-70,-161,-171,-58,58,162
-10,-178,-480,-331,-30,8,4,69,175,194
-125,-346,-528,-428,-20,167,225,221,221,97
-83,0,244,129,-5,64,29,-9,-25,-105
75,265,556,311,-12,-86,-190,-207,-192,-145
160,138,317,64,-94,-140,-185,-142,-88,-35
86,-83,4,-90,-40,-30,-30,-11,30,44
69,101,134,152,159,21,-32,-97,-109,-21
-8,-2,-105,212,398,225,52,-151,-289,-158
-61,-200,-493,-184,67,229,272,90,-58,-47
112,244,101,-12,-164,-133,58,43,27,76
246,572,473,256,-119,-227,-175,-157,-147,12
121,192,-47,6,-72,121,-1,19,5,71
115,-34,-262,-173,-74,256,93,156,193,220
122,-390,-383,-136,77,257,141,148,135,162
105,-465,-441,-12,268,254,147,16,-112,-55
120,332,-270,52,91,25,15,-116,-214,-127
155,1147,-255,-23,-153,-278,-130,-130,-83,9
181,1149,-469,-137,-109,-312,-88,-56,58,161
108,317,-768,-312,-38,-103,321,146,173,252
-331,-749,-833,-441,62,318,704,316,144,-12
-313,-368,685,161,-42,-41,72,-153,-252,-247
-293,-146,1303,276,-162,-338,-360,-355,-374,-263
-175,-275,909,269,-174,-358,-400,-258,-151,-66
23,-191,189,-67,-322,-186,-57,-7,111,151
20,-31,-20,-91,-242,104,309,61,55,77
-86,-182,1,-15,-251,165,283,68,-1,-18
-14,-348,-55,-294,-550,30,274,199,141,49
171,-23,320,-310,-618,-118,227,197,233,106
22,-84,443,-1,-95,25,42,42,95,-20
-163,-292,339,308,529,259,-173,-106,-70,-148
-25,-248,152,163,539,270,-218,-59,-17,-65
252,-83,127,-10,206,93,-269,-39,35,91
268,-37,108,52,145,-24,-339,-142,-48,69
185,-211,-214,-85,68,-147,-278,-73,-13,73
124,-243,-312,-75,121,-250,-314,-87,-6,66
-26,-283,-289,131,452,-131,-322,-174,-52,-72
-468,-639,-729,-132,540,280,101,90,98,-299
-409,-117,-139,-74,66,-17,56,128,188,-274
48,740,925,488,-234,-585,-443,-212,-42,-158
27,500,625,428,25,-331,-293,-154,-138,-147
136,431,568,403,38,-215,-198,-107,-161,-79
279,157,161,75,-70,-111,-46,45,-19,72
498,23,-86,-161,-186,-122,14,160,166,265
472,42,-93,-129,-126,-90,3,121,155,240
199,47,-121,-73,-72,-60,3,88,93,149
-119,63,-75,-26,-31,-32,17,72,42,51
-372,72,-4,9,-2,-11,47,50,0,-8
-672,53,-48,25,11,4,51,38,-30,-16
-744,58,-97,37,5,0,37,32,-57,-24
-347,61,-102,41,25,3,16,10,-81,-18
91,22,-59,-3,47,-5,-15,-14,-57,31
278,-111,-185,-99,38,50,61,51,3,72
164,-158,-170,-58,80,119,124,56,-10,2
60,-8,57,69,55,64,40,-22,-63,-36
120,135,174,86,-38,-46,-64,-62,-43,19
181,135,116,11,-88,-81,-94,-47,6,42
299,129,66,52,0,-93,-136,-78,-4,41
301,29,-115,-14,96,3,-69,-20,21,109
78,-193,-378,-302,-43,194,208,191,138,157
-33,53,84,21,-155,51,90,88,71,167
-61,-75,-23,129,98,200,90,0,-60,50
88,-192,-170,65,154,310,101,-41,-151,-28
350,16,-41,-49,-160,83,-22,-84,-145,51
538,81,-110,-196,-268,-53,31,31,-14,108
673,331,276,35,-177,-138,-20,0,-14,47
231,149,218,104,104,-20,24,-29,-59,-99
-291,-45,84,47,137,1,62,25,3,-163
-669,-98,61,28,66,15,92,53,39,-159
-567,-144,0,3,20,32,96,54,50,-76
-531,-266,-112,-3,69,127,125,57,35,-113
-364,-146,-48,46,59,121,41,-19,-6,-110
-80,-61,-134,121,150,21,-130,-126,-29,9
-281,-584,-804,-113,460,496,212,59,-2,-82
-298,-188,-255,44,215,549,336,65,-143,-265
209,702,611,123,-524,-164,-80,-132,-146,-50
240,599,417,30,-402,-227,-111,-115,-58,35
11,100,-11,28,74,-7,49,11,26,0
-65,-87,-268,-113,181,-31,59,144,187,118
-135,40,-65,-41,141,-131,-36,81,146,86
-80,110,178,25,-29,-150,-99,-25,27,27
87,-23,172,67,-42,-109,-103,-66,-43,61
313,-23,109,81,27,-92,-99,-77,-27,131
308,103,-50,-36,44,1,-13,-6,7,92
87,247,-199,-106,12,83,83,96,57,18
87,462,-43,-9,-94,-52,-37,2,-9,35
98,314,-106,-34,-104,-43,-53,-31,-44,0
0,132,-122,-57,-64,19,7,39,12,-40
-88,-34,-127,-56,-21,26,19,62,26,-72
-137,-327,-293,-88,18,119,105,139,85,-79
-12,-172,-18,-5,-43,52,77,144,131,-17
56,-9,157,20,-69,-26,18,86,98,4
37,-71,227,25,-75,-23,23,22,25,-27
73,-142,213,75,-87,-41,-25,-53,-35,-21
5,-304,27,-14,-127,-48,-26,-16,-5,6
-136,-334,49,-68,-147,-42,-16,4,-10,-32
-216,-227,108,-58,-114,-13,-32,-10,-37,-63
-243,-415,-119,-134,-12,68,38,46,-2,-52
-206,-385,-6,63,203,40,-47,-72,-105,-135
6,-17,311,281,153,-148,-272,-256,-193,-79
-196,-378,-396,-119,214,185,80,15,-9,-72
-530,-649,-718,-234,422,580,392,125,-78,-311
-70,258,502,276,-100,-60,-85,-217,-248,-212
144,505,703,275,-217,-334,-316,-322,-260,-76
-27,-9,18,-34,30,-40,-27,-42,-19,23
58,61,273,125,-56,-148,-78,-43,55,114
130,27,204,38,-110,-188,-90,-52,61,114
7,-78,-39,-118,-105,-46,62,37,88,93
-74,-44,-21,-89,-74,-34,81,75,119,81
46,-39,-67,-95,-36,-20,90,104,114,76
157,10,-78,-51,-30,-11,95,95,81,54
124,46,-128,-20,-46,-1,81,48,29,27
312,88,-27,-25,-57,-16,61,35,47,71
477,174,64,-57,-89,-86,1,16,63,142
309,200,-41,-86,-101,-136,-107,-39,78,249
-81,-77,-386,-122,49,19,-31,0,88,241
-378,-210,-282,16,187,240,79,-22,-46,34
-241,148,177,113,-140,21,-88,-142,-96,49
-145,8,-130,-249,-399,-83,-12,24,81,143
73,-68,-51,-76,-195,59,67,7,10,-41
353,58,181,144,-16,107,94,9,-11,-158
-91,-47,50,125,270,165,139,115,66,-191
-397,-125,-4,84,333,126,126,136,81,-240
-247,39,198,179,181,32,0,40,15,-184
-279,70,216,224,131,49,-95,-68,-61,-152
-113,-114,-127,19,44,152,71,39,-13,-89
138,-65,-227,-15,-12,149,129,65,-11,-21
80,-26,-107,53,86,91,59,6,-33,-21
-212,-486,-615,-241,377,258,267,210,104,-78
-60,20,157,268,418,-31,-27,-98,-180,-226
319,537,714,412,-6,-382,-320,-295,-259,-96
301,189,157,-45,-150,-231,-113,-28,52,125
81,-86,-119,-149,-86,-44,46,104,144,106
28,-99,-144,-132,-100,-58,36,99,137,76
50,83,-6,-48,-80,-95,-37,16,69,31
-5,178,137,47,-6,-51,-64,-74,-62,-64
-74,111,77,-23,-23,-17,-23,-55,-86,-69
-24,48,-29,-84,-58,-10,-27,-21,-34,16
87,59,-66,-41,-40,-21,-73,-30,-7,54
135,144,-53,36,-42,-60,-105,-61,-10,39
132,107,-119,-28,-58,-55,-84,-12,35,81
232,42,-129,-73,-16,-13,-62,19,83,131
473,-93,-334,-91,102,-24,-76,51,165,219
452,-413,-765,-406,54,85,171,332,408,338
-34,-259,-159,-104,109,297,282,223,149,-58
-302,283,850,508,-53,71,-67,-243,-335,-416
-339,226,539,287,-77,-22,-96,-211,-265,-301
-166,198,227,85,-147,-106,-89,-67,-41,-53
-139,32,-50,-23,-76,-50,-22,37,116,101
-179,-54,-48,-66,-54,-48,10,81,156,105
-109,-79,-20,-84,-88,-36,24,73,145,78
33,-45,-154,-88,-79,-7,37,63,130,90
116,30,-306,-73,-50,18,55,76,140,109
111,263,-284,-64,-16,31,62,72,137,97
86,555,-251,-85,-16,30,49,63,150,69
66,616,-338,-132,-44,9,44,82,147,69
21,331,-464,-155,4,17,54,107,143,100
-79,-2,-522,-182,69,79,78,118,142,90
-162,51,79,-22,77,31,-36,-22,-45,-35
-108,-130,460,147,155,43,-129,-196,-262,-125
138,-452,209,53,61,31,-29,-72,-148,-12
241,-615,-188,-218,-68,47,94,105,32,61
108,-460,108,-76,13,86,82,7,-110,-28
85,167,920,432,15,-151,-228,-310,-369,-54
-134,257,746,342,-66,-235,-279,-318,-339,5
-335,7,270,25,-109,-141,-132,-136,-138,62
-286,-41,132,-135,-197,-152,-76,-17,46,76
320,-71,64,-163,-226,-164,-89,14,114,103
771,-148,14,-88,-112,-72,-42,42,75,85
445,-218,-6,-29,-29,-5,27,88,53,-9
-293,-241,-56,-2,6,27,64,120,77,-69
-548,-175,67,29,13,-2,37,100,122,-34
-286,-197,-70,2,110,-37,23,74,161,-14
-388,-672,-863,-283,331,339,263,267,286,-61
-393,-531,-601,-191,281,594,311,282,213,-176
-22,322,529,256,-141,221,-65,-42,-85,-175
125,345,442,174,-210,-11,-124,-81,-158,-50
-57,-46,-106,-66,-43,90,84,-17,-185,-90
-115,-45,-73,-15,-25,-10,48,-83,-174,-109
-21,83,-19,-34,-112,-153,-30,-98,-97,-25
-14,157,-28,-33,-52,-117,-21,-87,-63,-12
29,230,88,24,-1,-137,-36,-87,-52,44
43,174,118,43,48,-122,-3,-87,-59,61
-13,34,84,33,54,-72,48,-61,-73,16
-26,-27,33,-16,-18,-107,-2,-35,-17,36
-51,-61,51,-26,-53,-113,-16,-10,31,48
-4,7,99,6,-24,-97,-4,-3,33,49
140,70,122,13,-23,-101,-19,-10,32,78
140,48,89,12,-14,-82,-19,-33,-7,45
78,36,55,16,-6,-56,0,-50,-48,6
85,36,0,21,-6,-28,26,-40,-37,-2
139,16,-44,1,6,-19,13,2,11,-1
83,-87,-157,-55,58,54,50,54,28,-39
93,7,-9,52,86,23,-34,-7,-20,-35
90,80,55,70,45,-29,-92,-29,-8,24
38,-47,-123,-27,60,22,-25,38,40,22
103,-19,-91,82,201,-24,-88,-35,-40,17
102,-46,-240,54,311,29,22,-34,-37,32
75,55,-96,304,475,136,91,-123,-84,-7
-439,-471,-612,74,583,650,454,50,-120,-336
-193,-72,-123,-95,-18,363,290,62,-121,-299
547,717,755,155,-452,-329,-319,-219,-168,-13
544,397,496,111,-237,-222,-309,-194,-127,28
369,-46,-31,-188,-256,-136,-137,56,153,226
258,-63,-65,-208,-249,-182,-120,89,144,255
178,-22,66,-116,-185,-189,-141,24,24,218
115,57,136,-35,-102,-151,-151,-36,-91,83
-5,78,122,-30,-84,-141,-121,-53,-89,-80
-185,21,28,-43,-80,-129,-77,8,34,29
-290,18,6,-9,-37,-78,-22,83,115,228
-118,39,12,-7,-15,-52,-19,87,85,274
-95,14,-15,-22,-15,-26,-3,70,60,335
-162,-16,-55,3,18,33,14,57,48,355
-127,-44,-89,9,58,82,43,47,27,37
-92,-31,-36,-25,31,90,72,84,50,-263
-230,-6,-14,-7,5,21,29,39,32,-244
-137,19,-1,-12,-23,-29,12,-2,18,-211
60,94,35,47,0,-87,-60,-46,12,-122
163,40,-136,12,135,-3,-57,-16,19,-62
84,-90,-369,-156,159,203,139,93,49,-123
-30,88,-105,16,117,157,104,42,1,-162
-205,60,-11,18,-3,86,101,39,33,-138
-81,121,349,171,-59,-43,-54,-95,-50,-99
138,82,310,140,-29,-46,-93,-130,-71,-52
106,59,191,52,-36,-1,-66,-85,-53,2
60,24,63,11,-47,-9,-59,-73,-53,29
36,37,-90,-69,-122,-33,-27,-57,-41,78
122,61,-95,-114,-134,-38,-20,-53,-30,116
221,16,-154,-168,-134,-6,-4,-11,-12,112
132,70,-74,-139,-174,-12,-23,23,13,153
-26,74,56,-50,-171,-61,-35,35,32,171
74,-83,8,23,-54,-24,-42,14,21,120
389,-296,-177,40,108,86,34,34,48,150
494,-312,-183,39,56,77,34,43,102,221
-114,-145,-377,-10,92,184,103,89,81,53
-454,56,-602,55,375,336,140,61,-60,-199
-323,384,-299,161,427,215,35,-11,-101,-175
-444,229,-150,113,512,222,53,-28,-124,-255
-730,-318,-263,-106,292,187,110,16,-133,-402
-530,-214,297,168,-44,22,-9,-70,-217,-473
-228,167,867,377,-284,-181,-174,-135,-167,-288
-307,-225,424,86,-293,-146,-68,6,34,-81
-346,-321,95,-18,-133,-51,37,48,52,-81
-206,-129,88,20,33,-23,32,21,24,-65
-37,-130,94,63,190,-26,18,26,28,-22
100,-120,83,62,179,-64,-6,21,34,-12
102,-59,98,36,69,-62,-12,16,47,0
59,-36,29,0,2,-23,-12,27,41,-15
61,-13,20,-11,-6,-27,-23,4,21,-27
65,23,-6,-1,14,-38,-28,-42,-9,-22
82,-11,-97,-75,-25,-13,-21,-57,-21,0
140,-5,-119,-80,-91,-62,-59,-55,17,94
10,-267,-431,-203,-54,10,11,52,119,106
-208,-389,-469,-249,0,176,155,118,81,-51
-61,-2,84,-13,-150,0,-3,-10,0,-57
175,204,279,40,-255,-157,-116,-63,31,51
216,47,48,-40,-102,-59,0,4,88,64
277,64,-66,-91,-58,-36,83,93,167,102
125,167,-9,56,53,53,75,43,63,-8
2,253,21,73,18,56,50,33,57,-33
34,244,-12,31,-36,42,50,41,79,0
107,211,9,16,-39,43,39,29,74,13
113,149,78,-3,-39,16,2,11,28,27
85,-31,62,4,25,-11,-13,-11,20,46
51,-62,14,-8,32,-29,0,-1,38,29
109,-4,-110,-43,-36,-63,0,32,77,69
151,116,-160,-4,58,-67,-32,12,80,108
-143,-125,-636,-201,296,275,207,120,76,-35
-239,-98,-446,-132,277,345,281,128,-10,-187
76,232,248,148,-52,-82,-9,-56,-103,-106
260,185,323,204,-119,-175,-149,-119,-104,11
224,127,120,142,69,132,-100,-75,-75,6
191,364,166,140,124,282,-57,-68,-91,-53
156,201,86,19,16,228,27,-9,-74,-38
161,-127,-34,-119,-132,11,8,6,-22,43
161,-110,-124,-174,-153,-182,-72,-17,-10,85
117,24,-173,-124,-14,-202,-79,-26,-20,56
188,-56,-186,-82,50,-155,-57,-35,-43,30
298,-166,-172,-49,59,-96,-58,-22,-27,41
-37,80,-32,-32,-30,-107,-47,23,19,62
-264,402,108,-34,-95,-136,-33,55,38,101
-297,398,205,24,-22,-106,-57,15,11,46
-249,60,102,14,28,-67,-54,-10,-22,-19
-258,-254,54,-58,3,-31,4,23,14,-5
-305,-298,358,55,-27,-69,12,-43,-48,-62
-301,-337,460,177,15,-75,-28,-114,-114,-123
-266,-436,178,-14,-36,-11,37,-33,-39,-92
-117,-183,186,7,-82,-29,-10,-43,-33,-54
-16,22,137,22,-74,-36,-26,-51,0,-5
-7,15,25,-27,-54,-10,19,-19,25,16
-18,-144,-60,-71,-77,-23,33,10,61,43
-85,-170,-57,-78,-98,-48,11,34,60,62
-177,-39,66,-39,-84,-41,-32,25,48,58
-194,-49,-20,15,-38,29,-63,1,31,48
-118,-55,-163,46,79,122,-46,-5,20,36
112,-110,-240,-48,157,262,74,44,31,0
366,-45,-150,-40,96,202,73,43,29,12
254,-38,-149,-83,23,121,87,32,32,11
171,-9,-87,-54,5,60,94,18,14,0
300,190,152,115,-14,-90,-40,-76,-17,53
415,129,140,16,-120,-151,-83,-63,36,135
230,20,83,7,-64,-92,-64,-37,35,98
131,51,137,86,-27,-88,-92,-53,39,123
-30,-42,-4,0,-34,-59,-26,38,107,177
-24,-74,-95,-64,-67,-53,-11,79,63,205
-32,-54,-52,-35,-80,-28,-24,63,-21,112
-115,9,26,63,-25,-50,-72,-2,-60,14
-230,-40,-36,97,73,-8,-69,-43,-81,-51
-231,-42,-118,24,81,34,0,-8,-23,-107
-283,-32,-126,91,239,85,2,-16,-68,-162
-200,-68,-44,268,439,277,61,-75,-241,-319
-124,-119,-15,120,213,352,197,-30,-254,-362
112,249,344,86,-191,-70,-71,-115,-162,-75
138,296,249,-3,-269,-221,-168,-108,-65,111
-126,53,-38,-88,-167,-95,-50,1,29,90
-261,-64,-101,-141,-142,-65,4,76,129,31
-143,-34,-57,-116,-84,-47,12,59,110,-18
-21,8,-21,-89,-83,-55,15,38,70,-30
106,38,-53,-64,-71,-44,14,14,36,-56
277,61,-65,-43,-45,-39,5,-7,16,-31
360,28,-12,-46,-51,-46,-1,-17,15,-2
317,-25,-50,-48,-70,-26,21,21,48,35
165,-24,-45,-19,-37,22,27,45,76,25
150,25,-55,-30,-13,19,37,58,101,42
417,196,-22,-39,-86,-69,-12,58,141,181
589,135,-161,-85,18,75,68,68,104,172
420,-14,-219,-5,206,248,124,23,7,48
141,96,42,120,143,115,0,-58,-66,2
-374,110,184,199,131,71,-72,-132,-151,-98
-901,-98,-117,2,27,107,12,-57,-123,-133
-1191,-133,-202,-108,-112,121,89,15,-72,-225
-760,414,607,301,-161,-133,-166,-188,-148,-225
-117,251,385,165,-24,-97,-110,-116,-72,-133
-86,-18,-30,-84,-10,-83,-34,29,91,-40
-97,-73,-114,-100,22,-114,-42,45,131,-10
40,-73,-43,-77,-48,-86,-22,33,78,-8
325,-94,-26,-69,-55,-49,46,58,69,-5
246,-150,-69,-79,-15,-13,85,99,132,66
-135,-155,-44,-45,-36,18,128,150,165,53
91,-101,0,22,-9,-1,132,145,123,40
254,-16,59,70,31,84,84,108,88,62
188,11,52,41,-7,301,73,89,75,49
75,-2,-9,46,48,383,78,54,38,11
7,1,10,101,185,277,53,3,-31,-50
-27,-7,50,99,274,64,2,-40,-106,-116
3,-60,-55,-30,123,-89,-29,-49,-114,-105
8,-76,-151,-144,-52,-133,9,16,-74,-51
38,64,49,45,7,-142,-57,-42,-103,-58
68,115,102,110,42,-153,-88,-57,-108,-35
33,-40,-81,-16,21,-106,-19,15,-43,23
3,-135,-188,-80,20,-82,5,53,-9,58
-27,-108,-205,-66,62,-103,-15,13,-21,14
-32,-88,-212,-102,63,-59,-24,12,-12,-3
41,16,-49,-53,-25,-60,-22,0,-26,26
101,52,31,-10,-56,-101,-14,16,-14,67
119,40,-2,46,-10,-81,-53,-3,-19,70
103,57,-53,63,46,-33,-31,-27,-49,23
139,176,24,76,37,-29,-2,-27,-53,44
171,233,17,87,43,-18,22,-1,-26,62
177,226,-92,9,26,6,42,46,20,99
139,77,-263,-111,0,17,61,104,106,175
125,87,-193,-112,-16,-25,23,84,135,209
92,272,118,14,-31,-92,-80,-38,17,94
-246,-202,-154,42,244,191,76,-55,-134,-164
-279,-447,-168,-22,238,221,106,-23,-91,-146
-114,-204,197,-47,-70,26,30,-14,-29,-32
66,60,618,179,-159,-142,-129,-131,-114,-41
122,0,523,197,-100,-118,-127,-131,-130,-67
135,22,271,96,-76,-68,-72,-87,-71,-53
126,143,55,55,-61,-62,-61,-74,-54,-18
85,152,-45,7,-76,-32,-38,-49,-27,31
22,25,-29,-41,-64,33,-7,-8,16,44
32,-122,1,-16,11,75,21,7,39,35
78,-13,78,8,18,71,46,26,50,29
28,275,2,-34,0,87,95,77,119,50
-145,482,-38,-38,-24,35,87,87,153,41
-141,285,-77,-53,-13,33,70,81,129,31
-20,-157,-155,-94,13,55,102,82,106,36
123,-221,57,0,-25,-10,55,20,84,39
232,-110,324,95,-20,-70,-27,-59,38,5
263,-289,183,-37,-34,-1,61,0,52,9
410,-173,189,1,-72,-36,23,-21,21,22
422,-36,149,15,-55,-53,-33,-34,-7,31
148,-35,10,-30,-30,-29,-41,-12,21,40
-235,-70,-46,47,96,14,-65,-69,-64,-37
-555,-185,-195,70,224,92,-50,-74,-102,-78
-722,-87,-156,-62,-20,27,-8,46,13,35
-523,42,79,-107,-210,-110,-43,65,59,71
-173,-5,11,-47,-185,-139,-91,27,55,48
-71,-284,-362,-190,-91,6,32,132,183,104
-4,-251,-203,-104,21,49,33,120,209,111
-65,12,24,-5,-12,44,37,104,122,38
-123,153,25,56,93,108,104,88,-28,-96
-72,315,114,169,115,59,69,7,-155,-62
92,398,95,121,-7,-39,-4,-27,-149,86
-47,238,-22,66,5,-3,-10,-56,-156,-2
-123,-99,-52,24,5,31,39,-37,-103,-116
77,-317,-14,2,-22,18,82,-11,-68,-102
88,-146,195,12,-59,-31,24,-36,-89,-119
-35,-80,210,17,-61,-42,-37,-58,-93,-117
-51,-116,38,29,-22,-12,-63,-56,-96,-50
-26,-62,-81,20,38,17,-11,-55,-88,-14
26,-11,-97,-20,22,31,196,-7,-58,16
33,-105,-181,-93,26,231,307,53,-15,31
35,-61,-142,-74,-20,382,149,8,-28,24
73,60,19,17,-103,292,-42,-72,-66,22
21,-22,6,-8,-81,176,-83,-69,-85,5
-65,-25,56,-29,-68,-6,-144,-90,-105,-33
-150,-90,-7,-31,-30,-155,-185,-94,-84,-85
-177,-191,-151,-96,60,-143,-100,-20,-23,-93
-110,-9,7,-19,95,-129,-83,-22,-44,-73
-5,216,211,96,-10,-240,-162,-66,-31,12
-48,132,111,19,-60,-253,-151,-17,46,125
-28,65,-3,-27,-45,-232,-125,27,83,194
112,41,-75,-15,8,-180,-80,63,127,254
154,6,-117,-41,21,-120,-30,71,131,296
145,-114,-269,-122,19,-44,29,93,123,257
149,-123,-175,-109,28,-14,21,69,95,171
408,84,112,-7,-50,-109,-62,-26,36,143
501,83,68,-37,-43,-68,-2,-28,9,131
293,-33,-3,-4,58,30,57,-32,-47,51
160,32,13,9,75,22,29,-34,-48,0
18,155,168,48,38,-13,-22,-32,-49,-66
-179,72,190,59,31,-27,-17,7,-8,-87
-323,4,157,89,93,38,16,56,19,-111
1,105,144,78,96,83,2,83,65,-18
232,90,27,103,193,133,-27,44,43,43
40,-68,-164,29,258,251,100,92,41,-49
12,107,140,108,112,193,97,-5,-85,-217
108,250,357,164,-48,-11,-4,-81,-137,-293
9,144,280,117,-4,-75,-28,-88,-132,-303
-298,55,193,45,-22,-80,-14,-72,-100,-201
-349,-24,79,-17,-37,-48,34,-9,-39,-119
-191,-88,-2,-68,-59,-37,68,22,2,25
-219,-83,-40,-98,-94,-60,33,8,2,53
-298,-55,-110,-107,-106,-77,20,-4,-4,-9
-114,-32,-94,-92,-92,-90,3,-5,13,93
161,-37,-55,-80,-63,-95,-40,-27,20,196
-29,-118,-125,-59,15,-31,-34,-29,17,70
-210,-182,-284,-168,0,29,81,83,75,-7
-160,-212,-506,-248,72,162,226,190,119,-72
-89,53,-236,60,229,168,106,34,-50,-209
-46,354,162,206,19,-44,-108,-89,-109,-178
-114,188,58,65,-79,-63,-49,-6,0,-87
-6,25,2,-5,-66,-31,0,54,64,47
149,-7,89,52,-22,-11,-19,13,42,97
111,-21,116,88,0,-6,-43,-18,7,42
73,-23,50,58,14,8,-23,-13,18,19
86,-42,9,37,18,21,-9,-17,26,58
106,-38,-22,9,19,38,14,1,53,85
126,52,102,74,-18,-15,-36,-23,42,82
-3,-3,24,68,64,33,-16,-28,36,12
-120,-59,-37,0,90,85,52,2,40,-68
-15,161,253,56,-84,-117,-96,-81,2,-31
-88,34,78,-11,-77,-111,-91,-71,1,-48
-201,-212,-232,-129,9,80,78,40,61,-87
2,-38,-134,-100,-30,55,83,60,73,-46
215,155,-30,-30,-40,-37,-1,-6,34,51
189,121,-102,-27,12,10,27,0,-2,28
138,-41,-224,-44,61,69,59,28,9,16
231,-86,-236,-22,8,58,41,6,13,59
300,350,-39,11,-92,-22,-12,-8,13,110
151,713,100,24,-88,-29,-27,0,6,70
-13,581,79,-2,-27,-24,-36,0,7,35
-76,77,-19,-36,-12,-19,-33,20,23,44
-115,-265,-5,-5,1,-2,-34,24,35,50
-170,-204,122,10,26,37,0,18,27,6
-143,-91,210,26,23,37,10,20,11,-10
-4,-123,84,19,-15,-12,0,18,11,10
-95,-148,-45,-16,-23,-35,21,18,7,-25
-293,-264,-23,-12,-1,0,38,14,-29,-91
-181,-344,-20,-23,16,28,25,13,-55,-92
-8,-252,28,-18,-33,7,-4,11,-73,-44
0,-264,10,-25,-40,-1,-10,6,-61,-1
10,-164,112,8,14,2,3,-5,-63,0
-10,-15,42,36,90,38,22,-4,-68,-22
21,-5,-155,-66,46,64,59,58,-1,46
61,-152,-361,-173,35,95,78,95,35,62
-60,-455,-543,-234,148,251,186,106,12,-24
6,-144,-111,2,34,105,55,-10,-79,-56
141,249,382,202,-9,-93,-126,-170,-195,-92
338,195,353,174,19,-158,-142,-182,-177,-45
498,23,27,-15,-28,-85,-38,-48,-34,56
463,107,74,-72,-140,-115,-20,3,31,107
166,151,134,-14,-102,-97,-19,-18,22,33
-52,119,95,-16,-96,-74,-18,-14,28,21
-217,46,18,-61,-103,-73,22,30,76,69
-302,-76,0,-5,-12,12,84,31,60,32
-270,-71,72,47,34,37,71,0,18,-21
-300,-76,41,3,0,23,57,17,66,-2
-244,-176,-65,-29,-4,47,59,44,109,-9
-209,-198,-69,30,31,91,26,27,91,-24
-151,-103,-44,64,23,74,-8,1,36,-11
-87,-2,18,43,-23,42,-28,0,15,-15
-25,15,46,58,-11,24,-61,-14,3,-27
-79,-31,-33,46,50,58,-53,-25,-14,-40
-105,-26,-100,22,55,55,-43,-5,-16,-36
-24,-61,-175,-57,34,70,21,55,15,-19
158,75,-18,-7,-4,-13,-34,25,37,35
126,117,7,64,15,-14,-78,-33,-30,-12
17,-23,-162,21,107,59,-20,-40,-46,-59
51,33,6,60,118,31,-56,-90,-47,-13
16,-9,6,-55,40,67,10,-46,-14,-34
68,111,213,103,-67,-74,-93,-93,-19,-24
32,1,-17,97,12,27,-25,-37,-28,-64
55,-71,-205,76,95,129,50,-5,-24,-62
201,60,-121,-2,-80,95,72,38,38,35
377,301,23,-55,-291,-55,12,37,64,154
322,338,90,-72,-324,-141,-30,11,58,228
275,172,-19,-102,-246,-79,-14,24,40,222
172,-90,-223,-147,-172,172,53,79,77,238
143,-105,-80,-139,-155,272,58,70,79,198
-51,3,121,-85,-123,166,31,38,29,58
-179,-47,182,-7,-77,14,-11,-13,-44,-56
-219,-116,104,54,79,-74,-33,-57,-109,-166
-267,-88,22,42,187,-128,-33,-49,-106,-205
-182,-28,-10,15,159,-168,-66,-52,-88,-141
-117,-5,-65,-20,-10,-223,-102,-61,-91,-70
-35,-24,-36,-46,-82,-225,-108,-67,-75,-48
93,-75,-11,-23,-48,-173,-75,-54,-28,-52
-98,-176,-107,-28,14,-59,-3,-5,25,-99
-229,-181,-102,-15,100,55,59,46,68,-156
-87,11,112,96,144,47,45,59,81,-108
-261,74,110,104,165,100,76,98,36,-149
-250,52,73,66,138,103,67,78,-42,-175
-51,59,92,60,83,-20,-6,30,-37,-56
25,39,-40,55,168,-28,-13,20,4,0
87,88,-52,58,100,-16,-8,28,28,11
45,44,-37,19,58,15,36,48,33,13
9,23,-29,14,52,56,70,23,13,-18
64,52,-2,-13,-40,39,57,13,17,-4
125,-8,-90,-157,-204,57,105,78,51,59
196,8,-6,-105,-196,93,112,58,25,70
141,106,164,-31,-209,13,32,-2,6,58
44,146,224,-21,-345,-88,-19,-12,41,94
-67,26,98,-106,-360,-56,24,48,102,127
-121,-79,-47,-89,-165,0,29,33,74,112
-206,-256,-235,72,312,75,-9,-40,-40,-18
-272,-363,-336,119,606,136,47,-49,-55,-114
-26,-114,-54,149,407,37,-2,-48,-38,-64
277,119,189,200,154,-84,-72,-59,-32,-13
246,221,280,232,92,-109,-99,-83,-16,-4
-32,81,87,113,105,-29,-12,-22,27,-7
-163,-27,-51,6,52,27,60,47,54,-23
-35,89,59,17,-32,-37,-9,25,33,-6
164,127,75,73,-1,-36,-80,-6,-22,2
290,77,31,55,-1,0,-62,7,-4,30
428,59,35,26,2,8,-40,21,11,57
395,17,0,-10,16,-5,-44,22,39,59
36,-45,-89,-59,12,18,-10,54,55,51
-188,-41,-86,-8,20,34,-43,27,12,22
-280,-22,-29,19,37,23,-71,-12,-28,-34
-258,-49,-48,-77,7,71,2,46,-1,-74
-138,-32,27,-22,-28,38,-22,21,-37,-101
-92,9,97,77,13,19,-75,-45,-81,-107
-71,-6,36,38,-4,19,-67,-35,-30,-33
-58,86,0,17,-14,25,-65,-22,-28,18
-39,185,20,10,-25,5,-69,-25,-32,35
31,179,42,-36,-62,-13,-52,1,11,88
272,87,-22,-57,-55,7,-2,41,53,118
505,-46,-66,-23,-6,52,35,65,82,117
478,-69,-16,18,7,67,30,63,77,124
222,121,54,24,0,71,55,82,103,142
28,325,46,12,-25,45,54,62,77,96
-41,181,-64,-12,-21,32,0,0,2,28
-199,-68,-164,-81,-10,37,6,11,-4,8
-216,-165,-98,-41,-37,-35,-45,-38,-9,12
-147,-207,-301,-152,-34,21,34,39,85,11
-230,-196,-501,-243,74,213,184,133,107,-129
-98,108,-19,59,64,86,18,-1,6,-169
-10,265,279,166,-103,-93,-107,-61,0,-67
-119,40,153,71,-54,-1,-15,16,73,-34
-82,-97,197,62,-9,33,34,19,78,-6
65,-141,344,26,-82,-13,39,-11,21,1
387,-160,418,45,-169,-116,-32,-75,-40,22
577,-237,218,-4,-143,-92,-40,-85,-43,69
483,-181,57,-44,-104,-38,-3,-49,-23,91
253,-73,38,-26,-61,-3,3,-26,-34,54
-105,-6,69,4,-16,-18,15,-12,-30,-16
-441,-5,51,24,8,8,24,-13,-23,-82
-723,-71,-95,32,47,95,31,9,-13,-109
-591,-164,-173,26,64,139,31,9,-35,-114
-171,-208,-204,-39,8,82,0,10,-37,-54
74,-156,-74,-27,1,-25,-86,-20,-20,23
106,-169,-57,-29,13,-25,-90,-34,-57,5
22,-258,-227,-152,3,6,17,28,-27,-2
81,-121,-142,-120,-12,-71,-7,1,-30,46
127,27,4,-44,-43,-84,-14,-29,-57,38
52,70,66,69,24,-74,-22,-59,-72,8
-92,72,95,77,20,-119,14,-10,-14,19
-182,78,57,72,52,3,65,35,24,0
-108,87,32,68,72,227,88,48,48,35
47,81,20,37,65,294,90,60,66,106
144,94,-20,56,80,188,108,43,63,111
105,76,-63,56,84,9,39,-43,-12,-20
46,44,-166,0,66,-94,-48,-107,-79,-82
163,5,-288,-38,121,-76,-35,-80,-84,-53
151,37,-215,45,171,-89,-66,-104,-83,-46
-166,-219,-513,-190,59,2,107,82,73,-55
-132,-210,-513,-349,-93,24,227,184,161,-82
260,495,489,118,-278,-362,-160,-166,-101,-111
181,403,707,208,-172,-350,-234,-261,-215,-179
-3,9,345,30,-97,-192,-74,-94,-63,-62
-6,50,258,-52,-127,-160,-15,-14,37,53
134,87,193,-66,-131,-140,-21,-10,65,118
151,-2,76,-38,-62,-64,0,40,115,141
-241,-87,42,28,49,40,77,91,120,55
-389,-106,14,64,98,90,104,89,91,-31
-235,-196,-104,8,55,62,80,100,92,-59
-175,-228,-182,-54,25,69,82,133,99,-51
-43,-32,-93,-31,9,52,42,76,48,3
65,174,42,46,23,14,-4,-5,-26,48
121,249,148,63,33,-7,-13,-45,-62,44
39,64,34,-14,42,52,20,-12,-52,2
-39,-171,-68,-42,59,59,7,-4,-32,5
-15,-86,47,15,30,19,-42,-29,-43,34
9,82,179,45,-24,-30,-73,-51,-79,16
-15,-80,-1,-22,-2,-7,-22,-9,-53,20
54,-53,-44,-28,-64,-61,-29,0,-34,38
-72,-11,35,29,-11,-54,-41,-49,-81,-41
-184,-13,32,3,-28,-58,-36,-43,-72,-58
-68,-64,-48,-81,-79,-58,-42,12,-12,-6
149,-95,-86,-75,-35,6,-17,44,13,12
129,-93,-118,-10,48,46,-1,24,-20,-1
20,-81,-175,-24,68,37,-7,19,-16,17
0,-90,-226,-85,39,44,18,32,-13,51
59,8,-108,-49,-37,23,-7,-3,-17,79
50,-13,-137,-71,-57,15,-8,7,-9,74
-34,-112,-173,-82,28,74,43,32,1,4
96,65,94,114,35,14,-69,-97,-123,-55
176,116,69,85,8,34,-67,-142,-198,-114
85,53,73,132,165,142,13,-120,-226,-205
155,173,277,173,58,-27,-43,-46,-67,-60
114,137,183,55,-11,-111,-44,49,108,70
-78,-4,33,-7,3,-47,-9,75,131,26
-32,18,30,-6,27,3,16,46,71,-25
101,265,82,-9,-5,-19,23,9,33,-16
75,411,9,-45,-47,-35,30,24,56,4
27,339,-16,-46,-62,-22,31,51,65,7
-21,196,-8,-41,-72,-11,22,45,42,37
7,166,8,-43,-64,-21,0,26,27,75
174,142,44,-22,-67,-46,-30,-8,9,98
297,-31,-34,26,-50,-82,-75,-48,13,157
296,-224,-147,18,13,-67,-85,-53,50,244
240,-315,-137,-11,73,42,26,-8,65,225
131,-196,-11,-1,26,80,116,37,43,118
-138,38,0,32,21,75,118,53,43,4
-438,250,4,49,16,36,54,25,23,-68
-582,197,-19,-20,-25,41,48,42,6,-152
-411,-84,-21,4,-6,49,63,62,5,-209
-202,-243,56,61,32,39,48,25,-13,-208
-140,-151,124,22,-4,3,16,-28,-56,-200
-206,-176,73,13,-34,-24,-12,-40,-63,-185
-224,-167,56,48,1,-19,-28,-32,-53,-159
-167,-193,-58,20,40,19,-11,12,-29,-103
-60,-214,-89,-11,33,5,-37,37,16,5
-54,-139,-79,-18,36,-27,-70,18,1,18
-139,-206,-239,-39,138,86,11,29,-50,-68
91,-35,-108,51,126,-6,-56,-3,-43,19
199,97,13,91,89,-107,-93,-17,-24,83
55,10,-52,-27,42,143,35,56,30,66
37,53,124,20,-22,287,31,53,42,73
95,150,320,70,-94,163,-58,-16,-13,56
160,118,339,13,-115,32,-12,-71,-58,28
160,58,222,-21,-152,-80,113,-104,-83,-7
-123,-124,-15,-89,-190,-86,167,-101,-57,-65
-291,-203,-166,-164,-268,-35,129,-55,21,-86
-149,-68,-31,-118,-325,-52,6,-38,88,-47
-132,-103,-94,-167,-320,25,74,35,97,-67
-60,-53,-47,-140,-245,-11,170,70,69,-23
3,-27,-29,-83,44,-2,344,42,-3,8
-7,-38,-26,-22,345,11,248,-23,-71,-30
19,104,115,126,412,-118,-73,-147,-144,-62
9,129,67,100,184,-154,-236,-141,-126,-64
21,102,-11,35,93,-115,-218,-55,-28,-12
59,81,-33,9,79,-93,-192,5,59,36
109,45,-36,16,50,-87,-174,32,86,58
178,27,-22,33,49,-83,-181,14,70,61
154,-39,-113,-10,59,-58,-184,30,68,54
88,-32,-115,-62,16,-72,-146,50,71,65
27,59,-6,12,34,-99,-162,-14,0,48
-87,59,-5,110,146,-15,-180,-99,-117,-41
-24,70,-62,63,103,52,-155,-86,-70,6
161,141,117,49,-31,43,-111,-64,-28,56
304,139,209,-7,-149,17,-32,0,26,84
448,87,114,-8,-101,7,-1,32,44,114
370,19,-24,-51,-57,11,-19,30,43,102
137,-78,-155,-93,35,24,-4,54,65,79
-136,17,16,64,75,-14,-61,-26,-32,-9
-293,102,42,95,-61,-56,-71,-39,-39,3
-322,64,-6,23,-102,-31,-20,3,16,35
-143,-17,36,1,-98,-16,35,41,46,-4
80,-69,-29,-19,-51,0,84,79,73,-16
24,11,-85,-21,59,13,67,70,60,-37
98,203,-78,27,110,-19,20,24,45,-13
96,161,-52,13,90,18,46,31,48,-14
44,61,-78,38,121,47,43,25,9,-43
35,4,-180,7,85,37,54,31,20,-20
3,-7,-131,-46,50,27,59,42,53,-10
-86,-90,-125,-32,101,68,59,20,19,-82
-124,-185,-98,-12,105,107,69,8,-34,-138
95,-25,122,5,-55,-48,-21,-26,-20,-58
260,22,119,-55,-139,-122,-57,-29,34,19
274,133,181,-49,-128,-110,-58,-24,43,42
139,121,178,-39,-78,-45,-1,-19,5,8
6,-9,75,-4,0,27,49,-25,-9,-15
-23,-87,-98,-2,65,76,74,-8,-5,-18
-21,-9,-59,-18,38,67,113,28,38,3
-129,153,99,-4,-24,31,117,56,66,36
-275,118,11,-33,-25,40,99,60,55,26
-271,19,-29,-39,-21,23,43,48,38,19
-188,-237,-133,-67,18,37,49,61,51,41
-44,-192,58,22,17,-23,21,3,5,58
106,-28,187,60,49,-47,-13,-57,-47,55
188,-221,-100,-134,48,44,88,45,17,59
174,-365,-242,-152,82,127,146,61,-15,25
268,-43,126,61,16,27,28,-76,-131,-3
293,150,262,104,-98,-83,-67,-118,-143,2
-35,8,45,-17,-65,-45,-26,-23,-55,-17
-300,5,31,-5,-56,-35,-18,24,3,-24
-186,17,44,30,-15,-17,-34,3,-2,-42
-78,-2,10,-20,-36,-10,-27,17,-2,-31
-51,31,58,-9,-43,-13,-33,6,-29,-7
-70,72,97,37,-23,-4,-47,-26,-45,15
-60,98,-9,43,-8,9,-53,-45,-63,29
-54,55,-77,-6,21,42,12,-1,0,54
-242,16,-39,-7,10,38,41,42,31,78
-233,91,-19,42,-25,-7,-7,15,11,63
-18,100,-43,0,-44,-30,-17,8,15,49
288,112,-23,11,-3,-39,-6,-12,34,49
204,4,-65,18,74,48,79,12,42,-15
-126,-70,-59,0,76,120,133,39,36,-53
-117,108,16,10,7,59,76,29,62,34
40,244,-38,3,54,52,20,12,26,36
-71,161,-102,-60,18,56,34,2,8,-24
-111,-41,15,-11,-38,11,-1,-36,-17,-39
-42,-99,129,49,-43,-24,-31,-54,-41,-14
28,-57,208,51,-42,-34,-24,-57,-61,-4
75,-121,158,53,-11,-54,-18,-53,-52,4
50,-226,13,76,88,0,-25,-43,-40,-10
-49,-257,-162,-49,82,20,-35,24,52,42
-245,-339,-327,-169,131,149,47,63,48,17
-381,-347,-356,-129,195,309,177,95,-22,-78
-115,147,228,143,-52,26,-12,-9,-57,-5
171,462,461,192,-209,-200,-189,-79,-11,139
139,299,185,51,-111,-92,-98,0,60,170
168,127,76,-5,-72,-28,-46,21,53,154
333,78,95,5,-66,-4,-36,17,41,77
320,76,160,-10,-154,-9,-35,0,8,-24
27,-59,115,-41,-228,-1,-11,9,-7,-80
-313,-142,32,-43,-239,35,41,32,-7,-144
-109,-76,-10,-87,-320,43,64,53,-7,-157
232,-41,-33,-150,-370,-2,39,77,25,-70
-12,-63,-60,-123,-206,4,23,84,48,-29
-232,-131,-165,-20,83,48,21,55,34,-66
-95,-186,-260,45,340,37,-3,-9,-9,-70
73,-139,-176,40,239,15,-21,-28,-25,-30
49,27,-62,39,89,13,25,0,9,21
-122,102,-48,39,167,51,81,13,3,-29
-107,178,36,76,172,37,54,-9,-8,-23
-57,97,32,68,146,-4,16,-24,19,31
-104,66,66,37,107,-43,2,-28,19,12
-146,179,224,74,46,-77,-37,-59,-12,-47
-130,61,123,15,-72,-47,-40,-71,-25,-58
-141,-36,25,-64,-169,-19,11,-23,14,-1
-140,-46,-26,-125,-232,-40,51,39,73,55
-107,-16,86,-32,-156,-85,-33,-18,62,48
-51,-27,76,26,43,-31,-79,-67,11,13
35,-92,-67,-31,242,64,0,-8,19,-2
215,-98,-110,29,287,133,28,-11,-31,-54
332,49,130,121,-11,47,-31,-37,-40,-28
276,72,158,37,-152,39,33,18,6,25
276,96,109,-28,-210,31,67,60,53,152
322,69,20,-32,-138,-16,10,59,72,226
341,1,-68,13,56,-52,-66,-1,20,230
241,-74,-132,-17,224,-105,-103,-45,-4,207
77,-128,-178,-81,138,-87,-75,-28,-19,153
-38,-100,-118,-47,25,-28,-69,-17,-29,131
41,-19,-24,-12,-47,-39,-88,-32,-35,142
298,-5,-52,-83,-152,-13,-45,-5,-1,221
510,-13,-107,-196,-373,61,68,71,75,331
607,57,-29,-226,-551,107,97,72,63,372
692,290,205,-197,-781,-15,-17,21,59,338
736,344,228,-342,-1012,-60,34,119,146,234
289,312,238,-299,-768,-57,33,149,108,-32
-377,112,68,-64,46,12,-4,137,48,-271
-862,-47,12,373,1015,70,-101,21,-99,-546
-1006,-108,41,599,1296,46,-190,-120,-228,-671
-797,-152,-53,397,872,8,-60,-98,-196,-537
-678,-171,-153,295,682,7,116,-105,-180,-453
-510,-127,-203,186,475,-13,176,-123,-175,-419
-324,-50,-226,43,400,95,159,-31,-61,-310
-105,145,-5,104,255,16,-37,-1,32,-101
11,216,104,104,122,-68,-77,-33,20,-4
-72,30,-40,13,135,22,5,-10,2,-22
-116,-21,-2,52,95,9,11,-10,1,-6
48,-61,-1,36,69,2,6,-11,11,27
34,-173,-74,-27,33,22,45,22,28,18
102,-165,-21,-7,-7,-8,-7,7,27,23
233,-127,3,-26,-59,-54,-72,-23,32,111
179,-117,-66,-82,-98,-61,-74,-22,56,170
87,-95,-108,-80,-117,-61,-82,-35,49,207
63,60,31,-36,-173,-102,-119,-64,36,250
61,191,70,-21,-217,-127,-113,-41,79,250
72,214,-21,-9,-172,-72,-60,9,106,158
26,91,-133,-1,-2,48,29,52,91,-22
-291,-62,-70,70,161,144,93,71,59,-194
-530,-65,42,86,175,86,67,66,40,-271
-535,-139,23,44,78,56,30,43,11,-292
-279,-256,-46,19,51,95,46,46,12,-235
-137,-345,-197,-86,42,150,112,91,26,-169
-72,-231,-147,-76,-13,121,72,82,20,-115
-33,-103,-80,-25,-107,11,-1,35,1,-56
-19,-106,-138,-24,-111,-11,-21,23,14,2
-44,-110,-43,8,-20,36,3,5,-21,-9
-25,-89,-5,-54,-48,18,19,43,0,-3
53,0,53,-92,-119,-81,-77,35,2,45
79,55,82,-103,-157,-80,-115,14,-7,87
66,124,72,-104,-204,-45,-97,6,-32,82
71,160,-47,-164,-197,29,-27,30,-29,49
81,245,20,-112,-131,88,-6,-25,-106,7
187,415,251,-63,-346,-82,-96,-87,-82,124
228,308,151,-182,-464,-102,-30,3,48,254
451,185,98,-228,-468,-86,31,45,59,300
496,114,66,-68,-213,-81,-8,0,0,257
325,-65,8,128,163,-74,-57,-63,-54,193
287,-205,-101,74,249,-39,-31,-34,-10,180
22,-210,-144,54,317,61,50,54,44,19
108,-15,73,151,165,16,6,20,0,-89
-16,-60,97,128,25,-7,-31,-31,-42,-113
-419,-219,-37,113,96,112,6,-21,-67,-203
-652,-240,-80,51,85,145,39,11,-50,-259
-588,-232,-124,-4,12,105,39,35,-7,-211
-189,-199,-259,-155,-188,89,78,77,68,-48
236,5,-126,-160,-337,-1,50,46,73,65
532,269,197,-4,-312,-157,-126,-88,0,153
559,277,13,-38,-184,-193,-147,-131,-22,209
356,226,-83,-139,86,-86,67,-93,-7,219
365,465,205,41,226,-175,29,-171,-52,263
531,493,198,83,189,-203,-50,-210,-81,236
953,449,166,96,164,-152,-62,-171,-56,189
870,281,70,119,188,-95,-58,-124,-16,119
-92,52,12,161,213,30,-35,-63,18,50
-569,-211,-129,89,294,154,-9,1,54,-33
-764,-360,-277,-52,238,227,72,152,135,-106
-562,-197,-24,58,104,86,20,175,114,-140
-238,-210,-37,47,19,-22,-61,117,64,-105
-216,-342,-79,-5,19,-14,-33,83,19,-114
-427,-384,-90,40,159,80,8,57,-38,-296
-578,-309,-8,77,180,96,-10,9,-65,-401
-606,-364,-124,-47,104,112,19,58,-8,-309
-405,-327,-112,-89,25,85,34,72,15,-169
-213,-180,51,1,-8,-20,-44,22,-18,-93
-153,-174,14,-16,-3,-35,-45,22,0,-29
-128,-151,-39,-10,14,-5,-35,6,3,-7
-59,-51,-83,-11,40,5,-41,-8,-18,-1
-83,-92,-242,-37,129,98,8,-11,-64,-107
-85,-154,-309,-101,138,164,99,49,-33,-105
2,4,-210,-86,82,121,121,96,35,2
82,185,-74,-43,-16,31,54,59,45,63
114,215,-41,-23,-49,-23,0,-18,9,80
132,197,-7,-32,-58,-22,0,-27,0,85
145,164,45,3,-26,-25,-27,-43,-31,89
100,58,30,-21,-46,-28,-32,-26,-18,42
25,-74,-25,-69,-84,-36,-19,12,13,-50
17,-121,4,-76,-108,-65,-36,0,8,-22
25,-78,128,-37,-118,-90,-45,-26,-5,28
38,-42,216,0,-98,-118,-28,-42,-8,2
42,-22,167,6,-63,-20,45,-24,-2,-4
85,-33,110,2,-36,206,105,-21,30,38
142,-15,94,26,-18,284,95,-27,26,76
90,134,82,65,45,233,88,-34,-27,24
44,296,-31,-32,-21,70,72,-21,2,22
-50,214,-187,-159,-82,-64,51,3,35,-4
-105,35,-141,-72,1,-92,12,-59,-36,-86
-47,-100,-135,-58,-37,-99,47,-40,-26,-66
58,70,178,102,-16,-163,-31,-85,-34,-22
78,43,268,92,-51,-171,-79,-87,-1,10
31,-241,5,-63,-71,-103,5,8,48,23
13,-289,-82,-63,-44,-109,0,69,80,68
103,-132,49,61,-35,-172,-77,41,63,96
143,121,144,122,-17,-147,-85,5,14,59
202,390,178,73,-28,-91,-47,25,25,54
241,461,149,51,-43,-91,-52,-1,-11,40
207,272,88,46,-32,-71,-60,-34,-43,18
217,36,40,30,-13,-51,-53,-44,-57,44
234,-3,47,-15,-82,-47,-36,-37,-45,127
120,25,121,-44,-183,-39,-15,-15,-22,186
25,-37,208,-14,-214,-41,-28,-27,-19,190
81,-56,208,7,-252,-70,-34,-48,-37,171
-3,4,101,-24,-187,-51,-6,-46,-67,99
-67,-51,-109,-128,-39,49,99,42,-39,9
321,31,40,17,189,-25,48,15,-54,-42
650,14,24,114,322,-81,-7,-7,-38,-27
205,-160,-113,41,200,25,64,45,-17,-81
-334,-153,-8,82,87,56,31,34,-42,-93
-486,-152,-37,74,79,101,33,30,-11,-52
-537,-219,-278,-90,-6,207,133,112,60,-90
-512,-169,-231,-92,-146,165,107,76,11,-160
-221,-39,-149,-167,-369,4,29,62,32,-76
82,89,-14,-145,-352,-49,-21,6,1,-71
299,282,206,22,-79,-31,-63,-101,-98,-127
502,479,301,21,-143,-105,-76,-108,-88,-57
461,585,373,-127,-594,-39,-3,-23,-10,34
417,619,437,-183,-759,80,88,40,32,112
444,556,354,-210,-860,76,158,96,85,182
108,457,260,-135,-855,-7,179,139,131,250
82,356,175,87,-198,-111,64,43,55,192
49,154,123,547,1060,-113,-122,-153,-127,0
-252,-151,-3,740,1820,-72,-199,-241,-217,-103
-153,-175,-172,392,1299,-84,-163,-191,-143,-4
46,-176,-309,-24,222,-70,-55,-75,-21,139
268,-79,-113,-93,-195,-107,-54,-23,51,223
579,-47,7,-41,-198,-159,-74,-13,78,278
659,-265,-210,4,70,-52,-23,-4,78,264
142,-521,-364,14,289,69,39,4,30,85
-414,-570,-343,-108,148,120,137,79,74,-27
-477,-292,-141,-86,-4,6,49,34,44,-24
-457,-135,-49,-36,54,-73,-47,-25,-6,-65
-523,-102,-40,-18,55,-129,-127,-107,-87,-193
-658,-117,-104,9,114,-66,-92,-121,-158,-386
-305,19,9,93,54,17,-18,-80,-173,-479
-175,93,73,68,-88,20,33,0,-78,-315
-465,-111,-27,-2,-46,63,107,93,64,-173
-396,-233,-68,-2,110,122,146,132,115,-181
33,-188,-48,50,302,142,106,131,108,-76
195,-222,-129,27,280,112,78,144,150,142
-5,-192,-168,-24,90,68,50,133,204,449
184,-149,-174,-52,28,35,-5,93,182,540
271,-189,-257,-127,11,73,36,99,126,322
174,-83,-136,-101,-36,51,25,85,80,79
-216,0,23,-26,-57,15,-22,38,35,-84
-804,59,126,44,-52,13,-42,8,-2,-284
-787,4,63,60,75,91,-3,-2,-45,-494
-310,-22,33,63,123,115,4,-17,-61,-493
-171,0,76,56,61,94,0,-16,-29,-381
-258,-9,80,100,24,50,-30,-23,-19,-345
-218,-68,47,63,-38,22,-35,-2,-2,-280
-39,-64,-7,-33,-97,3,-23,13,28,-155
4,-58,-17,-18,-63,10,-12,9,27,-125
40,-30,-18,-2,-42,17,-5,0,27,-59
65,-7,-1,-3,-47,-11,-20,-22,26,120
56,-44,-61,-24,-12,2,-9,-12,17,116
49,-49,-90,-63,-1,51,51,23,32,9
113,67,38,-27,-70,-27,5,13,31,34
99,24,17,0,-37,-59,-38,-11,5,47
49,-17,-55,17,29,-22,-43,-26,8,45
15,3,-85,22,90,43,-15,-25,-4,21
-24,-73,-190,-78,100,140,67,11,0,-2
-7,-44,-109,-144,-57,107,98,20,-20,-44
147,120,150,-36,-170,-70,-49,-64,-66,-33
350,172,198,30,-143,-144,-125,-106,-72,44
432,143,142,-7,-117,-104,-98,-66,-40,94
387,109,74,-39,-91,-83,-63,-12,-18,120
190,90,28,-53,-54,-64,-35,17,7,121
-72,120,44,-17,-47,-71,-27,18,8,110
-411,121,27,14,-26,69,13,25,10,79
-337,60,-38,17,22,290,56,36,12,80
135,-32,-129,-56,60,344,110,63,10,92
308,134,40,8,-9,128,30,12,-21,104
115,144,19,-25,-107,-85,-64,-52,-59,29
-13,25,-92,-66,-106,-151,-83,-80,-84,-38
-23,-44,-25,-66,-91,-167,-65,-72,-83,-32
-1,-103,33,-43,-81,-153,-35,-45,-40,-6
-1,-116,41,-29,-64,-116,-30,-26,-3,7
-41,-168,-51,-78,-35,-14,11,11,10,-4
-23,-92,25,-15,-74,-61,-29,-5,-2,-2
43,28,174,96,-102,-153,-115,-60,-24,38
-14,-69,-36,-21,-61,-58,-6,41,56,72
-29,-10,43,39,-33,-2,19,20,20,47
83,171,234,126,-81,-53,-48,-43,-24,59
115,149,71,26,-61,-42,-16,-20,-1,90
171,122,18,-40,-84,-60,6,19,35,125
214,65,-9,-69,-54,-59,42,64,61,122
124,38,31,16,84,2,49,37,20,38
23,100,156,163,194,-28,-28,-40,-26,12
-79,11,14,68,122,-13,7,-24,-9,2
-31,-7,-10,36,20,-12,32,-9,-6,13
138,43,36,67,-17,-30,0,-14,-7,43
134,16,3,35,58,-15,14,13,31,70
49,-63,-40,69,247,20,38,3,1,25
-66,-168,-110,58,283,138,93,-11,-53,-92
-74,-39,12,52,100,66,45,-35,-94,-103
-2,74,41,16,-55,-77,-18,-34,-70,-31
12,23,-2,-28,-53,-85,-11,-4,-31,24
39,2,6,12,-5,-62,-26,-32,-80,10
36,-15,-24,18,40,-9,-16,-41,-126,-18
23,0,-83,-22,25,19,19,-13,-81,-6
35,23,-114,-89,-26,-16,66,27,-4,52
52,9,-111,-70,-16,-4,121,49,15,56
83,16,-65,-15,3,29,110,34,7,42
108,24,-30,7,-6,33,66,29,-4,54
62,23,-20,0,27,59,81,32,-11,47
110,-40,36,3,-14,19,67,27,5,99
112,0,52,-5,-48,-14,62,41,16,107
31,335,18,19,-2,-7,56,16,-5,48
1,597,-105,12,20,0,37,-2,-8,25
-16,578,-293,-18,14,18,27,8,3,40
-19,253,-344,-58,9,27,28,29,32,54
-16,-120,-324,-69,29,45,48,40,57,58
-47,-174,-169,-31,53,51,11,-8,-3,-13
-72,-134,-123,-43,49,56,1,-9,-31,-65
-40,-149,-126,-45,28,61,20,17,2,-23
-18,-48,-71,-31,14,35,4,0,24,14
17,59,2,-68,-31,1,5,29,65,65
-67,-119,-134,-125,40,91,72,62,68,49
-116,-28,168,17,21,17,-27,-62,-33,-28
-8,182,583,162,-148,-197,-227,-205,-118,21
90,0,285,34,-147,-148,-136,-102,-24,126
311,34,242,26,-121,-94,-79,-49,14,157
502,-57,238,45,-73,-34,-44,-59,-25,106
511,80,341,150,-14,-25,-80,-109,-89,56
311,253,227,92,-31,-9,-41,-58,-30,78
-233,312,105,27,-45,-1,-2,-5,12,42
-1049,143,251,67,-30,5,-1,0,-2,-98
-1252,-205,237,32,-31,30,22,36,17,-158
-717,-313,191,-7,-82,-21,3,36,35,-75
-137,-287,212,-17,-104,-77,-50,-3,0,-36
319,-453,103,-31,-101,-79,-62,-24,-30,-63
423,-504,-3,-33,-81,-60,-43,-22,-49,-18
338,-355,-1,-14,-64,-40,-28,-8,-51,1
211,-146,-10,-5,-46,-22,-7,6,-44,15
203,32,26,8,-29,-10,1,10,-14,51
121,68,37,-6,-33,-17,16,-4,17,60
-29,63,28,1,-5,-28,23,-25,18,43
-54,24,21,25,49,29,11,-17,14,38
-52,-16,56,55,94,220,36,21,18,4
-63,-19,51,75,87,320,78,61,14,-66
-95,-32,-6,54,66,234,99,77,18,-78
-105,-109,-119,-4,69,110,76,47,-6,-93
-182,-108,-112,-13,16,-28,-4,-25,-58,-145
-142,-9,-62,-28,-82,-99,-52,-36,-80,-141
82,135,-7,-57,-193,-137,-60,-7,-24,-20
409,233,10,-108,-298,-119,-81,-5,-10,151
695,265,8,-168,-392,-109,-71,-1,-21,290
907,279,27,-192,-432,-155,-93,-20,-4,384
814,210,-72,-269,-396,-138,-60,-4,-12,414
361,158,-99,-210,-259,-150,-72,-32,-41,358
-377,59,-75,-44,-94,-121,-72,-45,-76,65
-926,-78,-21,67,132,59,65,58,-30,-324
-930,-102,49,227,445,202,173,136,46,-432
-523,-93,-21,204,423,161,170,150,76,-332
-189,-58,-43,65,105,94,159,146,74,-269
-333,-48,24,52,198,124,159,106,2,-301
-310,-62,20,128,499,78,48,1,-121,-312
-240,-129,-75,201,488,-30,-66,-82,-149,-213
-215,-213,-195,97,269,-29,-24,-40,-66,-97
-128,-157,-171,8,128,-29,28,48,30,-39
-40,-107,-117,10,81,-56,13,19,18,-31
-75,-128,-105,42,116,-5,-19,-17,-46,-86
-115,-202,-293,-28,122,60,15,7,-42,-86
-49,-162,-222,-28,94,31,-8,-11,-52,-61
-1,-70,-63,10,68,-10,-50,-25,-46,-117
-15,-132,-158,-95,55,103,71,57,-2,-189
131,19,-42,-95,-42,105,86,59,-16,-128
383,317,281,23,-271,-66,-29,-7,-37,180
413,267,182,-58,-314,-51,2,22,-7,482
309,195,89,-59,-300,-42,-9,0,-34,398
108,154,92,22,-231,-61,-49,-57,-70,201
-28,158,122,11,-207,-65,-23,-39,-32,133
-260,107,76,1,-182,-6,20,-17,-9,22
-406,10,13,54,-62,-39,-11,-60,-21,53
-319,-22,-46,49,144,-53,-20,-57,-30,-12
-69,-11,-91,-43,146,-57,6,2,-1,-71
64,-24,-69,-6,171,-15,-2,-22,-4,-96
-130,-44,-44,96,320,22,-12,-56,-14,-167
-125,-72,-56,44,235,30,3,-37,23,-127
192,-54,-74,-26,79,0,10,-15,48,-29
294,-34,-92,-62,-4,-29,-5,-9,44,16
118,-70,-129,-56,14,16,-3,8,39,-3
-100,-57,-65,-1,58,55,26,10,45,-5
-24,-13,-12,19,58,63,54,7,69,18
44,-24,-33,2,48,87,85,14,100,-11
77,22,21,0,-16,32,77,29,150,27
87,39,47,35,-13,16,13,10,116,61
100,61,25,43,8,57,-28,-7,61,86
31,-52,-113,-43,69,189,81,46,68,72
-31,-79,-88,-30,72,197,107,65,54,57
7,99,115,66,-50,-2,-11,9,25,89
-89,121,130,101,-45,-36,-68,-43,-19,3
-194,77,97,57,-17,-45,-92,-54,-68,-107
-267,65,77,43,3,-55,-129,-62,-103,-132
-258,47,20,-6,-38,-58,-103,-39,-80,-95
55,26,-52,-77,-114,-89,-99,-8,-27,-8
505,15,-35,-100,-126,-118,-136,-28,-22,100
430,-5,-42,-69,-73,-96,-126,-29,-33,104
206,-26,-20,-18,-9,-83,-94,-4,-33,70
161,-18,-41,17,36,-8,-13,30,19,89
85,-79,-197,-18,79,279,124,107,65,74
128,-51,-194,32,74,372,141,83,21,12
69,1,-113,26,6,215,95,61,9,3
28,49,67,55,-18,38,0,-12,-49,-26
-8,-12,47,10,-26,-59,-47,-63,-98,-80
-18,-30,51,8,-63,-128,-86,-64,-68,-50
45,-21,65,0,-87,-145,-93,-14,9,8
133,63,36,-17,-80,-113,-65,24,55,17
241,313,32,-7,-71,-113,-61,5,52,15
279,423,-30,-21,-52,-89,-39,8,52,48
175,285,-75,-41,-53,-91,-26,25,66,69
91,35,-32,-21,-88,-118,-49,23,93,126
-45,-250,-161,-50,-92,-65,-17,62,133,163
-90,-226,-107,-55,-100,-27,12,52,101,129
69,-22,110,-3,-173,-93,-61,-36,7,94
125,-78,86,9,-127,-97,-72,-95,-27,73
154,-168,-61,0,-3,-18,-36,-86,-23,78
324,-47,31,67,146,-2,-28,-52,-2,97
345,87,178,65,120,16,1,-9,16,87
173,148,211,80,49,56,95,17,57,66
4,190,178,105,45,150,339,19,50,46
-120,138,72,16,-14,174,374,31,74,44
-345,21,-45,-51,-99,107,206,28,48,-25
-578,-37,-72,-59,-77,63,70,23,14,-136
-638,2,-52,-24,36,50,-3,6,-3,-172
-638,-122,-182,-16,197,75,-37,21,8,-196
-417,-198,-158,-21,131,59,-62,16,3,-166
-32,-47,86,7,-65,-61,-140,-34,-27,-110
80,-96,95,-50,-132,-106,-155,-21,-21,-73
100,-28,138,21,-24,-106,-196,-57,-43,-60
142,150,191,49,39,-63,-191,-85,-95,-78
210,164,259,92,94,-75,-214,-120,-145,-75
209,-19,140,45,106,-55,-171,-85,-118,-29
158,-45,62,23,76,-75,-132,-44,-63,-2
-38,13,25,-23,29,-67,-93,-15,-38,-6
-278,-25,59,-31,24,-38,-43,-12,-35,-30
-418,-97,31,-6,70,21,18,21,-16,-25
-342,-93,43,32,89,65,77,44,-9,-25
-441,-35,110,80,17,23,70,51,11,20
-420,-112,-2,-19,-42,21,90,81,48,36
0,-204,-39,-42,-13,56,67,40,1,28
364,-279,-193,-107,14,96,95,82,36,74
251,-201,-205,-47,14,100,93,47,12,8
154,94,9,37,-41,24,13,-22,-35,-26
258,296,103,12,-100,-67,-55,-37,-18,60
242,207,74,3,-35,-74,-67,-53,-19,71
95,40,50,10,6,-24,-45,-51,-29,24
-105,-101,2,-18,-14,-6,-12,-14,-26,-26
-266,-104,-48,-38,38,55,40,-11,-40,-147
-86,35,19,13,31,72,29,-29,-67,-215
42,106,145,62,-42,0,7,-26,-40,-193
-42,28,137,87,2,18,24,-19,-26,-151
-57,-111,-2,53,3,8,39,22,37,-62
-49,-219,-164,-60,-8,32,96,86,104,6
-1,-210,-160,-91,-13,35,95,77,80,10
36,-132,-62,2,-23,-3,50,9,16,-2
31,-38,-62,5,-35,2,70,-6,-3,4
55,15,-76,-58,-37,22,93,11,9,19
59,46,-65,-64,-48,22,70,-1,13,26
113,87,-11,-28,-73,-19,24,-24,10,29
187,139,21,-16,-83,-43,1,-36,10,53
154,317,88,5,-95,-37,-22,-51,-10,83
110,478,131,-5,-126,-41,-42,-67,-15,77
-31,406,71,-38,-142,-61,-46,-59,-21,72
-47,127,0,-62,-181,-51,-44,-35,-16,108
82,-75,12,-120,-255,-25,-21,-10,2,143
211,-62,94,-149,-297,-3,-26,5,9,186
416,2,238,-84,-405,-29,-22,6,0,200
678,27,236,-101,-524,-63,59,63,32,215
617,-3,127,-107,-384,-28,94,99,40,189
359,-37,47,110,163,5,-6,-23,-56,44
-61,-97,-63,236,625,-33,-100,-121,-149,-108
-461,-118,-114,179,398,-58,-52,-87,-141,-125
-542,-176,-130,120,227,28,56,-8,-74,-122
-515,-201,-92,118,297,36,46,-9,-73,-140
-313,-246,-242,43,399,40,18,-20,-90,-168
-374,-286,-356,-33,282,122,75,32,-60,-199
-42,-10,54,125,53,-24,-29,-7,-46,-116
-149,31,107,89,-25,-33,-50,-9,6,-72
-401,-162,-135,-63,8,114,52,55,47,-154
-286,-138,-62,-55,-84,98,59,70,49,-180
-12,96,162,48,-83,-27,-22,-7,1,-170
79,51,45,-3,60,14,31,27,39,-117
5,-43,-13,78,296,13,10,18,32,-50
44,14,20,114,183,-55,-44,-29,0,57
64,9,-28,-9,-34,-21,14,15,33,64
80,11,-56,-16,38,-12,20,19,46,-6
47,26,-35,33,90,-40,12,-1,43,-29
-96,11,-22,84,112,48,19,1,24,-46
-111,21,-62,27,69,244,56,46,72,6
4,36,-44,-38,-5,280,71,49,115,101
90,1,-37,-46,0,133,30,0,69,128
31,-23,-63,-56,-30,-25,-10,-33,22,75
-6,-33,-79,-89,-94,-112,-3,-34,29,28
154,-49,-78,-72,-67,-141,6,-17,40,23
213,-59,-68,-33,-31,-143,0,-6,72,16
135,-42,-149,-53,-40,-113,19,25,135,10
113,38,-149,-97,-64,-102,10,38,113,17
169,163,-87,-59,-46,-93,-8,30,78,55
239,124,-132,-66,3,-31,32,62,49,47
44,-22,-127,-17,96,53,60,50,0,-2
-51,-22,-28,23,55,25,30,39,2,43
-75,83,71,14,5,-4,-8,25,-7,45
-160,116,125,-16,-30,-27,-30,-10,-33,-9
-253,-28,68,-55,-28,-8,-35,-13,-44,-22
-335,-99,23,-37,-25,5,1,-6,-18,-40
-256,-61,-48,18,-9,23,139,-5,-16,-15
-51,-107,-98,19,19,74,184,8,-24,-2
167,-117,-108,-25,11,157,110,33,33,102
215,52,-261,-88,30,274,84,101,102,148
40,382,-234,-2,182,323,31,65,39,28
-136,486,-192,-23,161,229,-13,19,-8,-22
-210,371,-98,-78,-49,57,-45,-27,-55,-91
-129,167,-8,-2,-81,-57,-114,-99,-119,-104
327,102,172,31,-136,-184,-189,-113,-79,5
517,75,430,88,-83,-197,-217,-122,-61,53
302,-16,447,74,-22,-139,-173,-85,-40,70
186,-216,186,0,11,-89,-123,-5,7,70
339,-245,12,19,19,-118,-121,6,61,113
306,-299,-120,-22,20,-63,-79,44,95,106
-93,-393,-130,-40,112,116,48,87,44,-94
-302,-213,120,65,47,44,78,81,5,-204
-305,-86,298,212,67,132,97,68,0,-183
-260,11,298,223,86,445,125,63,16,-137
-73,119,344,206,118,484,111,45,33,-66
67,102,246,67,20,248,98,70,106,40
123,75,63,-97,-142,-10,59,38,87,44
47,50,-38,-149,-244,-219,-76,-70,-33,-55
-72,39,-88,-133,-300,-303,-121,-114,-82,-111
-58,64,-19,-88,-308,-255,-77,-94,-55,-92
99,120,109,-104,-354,-171,-19,-56,-9,-27
241,139,96,-150,-421,-129,50,23,110,58
167,138,67,-153,-360,-133,53,55,150,117
-110,121,39,-82,-125,-183,-18,27,106,144
-225,49,-56,-4,182,-224,-83,0,51,94
-236,-7,-45,38,264,-184,-77,-9,28,32
-356,-109,-39,116,396,-98,-64,-7,25,-26
-303,-197,-86,112,431,-41,-62,9,15,-26
-25,-125,-100,28,217,-50,-55,11,8,9
124,-62,-88,-13,102,-51,-35,20,9,19
106,-78,-103,-32,79,-32,-25,31,-3,67
52,-71,-100,-32,60,-22,-26,6,-17,71
20,-143,-220,-123,10,52,82,67,26,47
-108,-234,-310,-170,43,154,160,123,45,-12
-48,11,-6,39,-14,40,1,0,-46,-4
72,141,165,125,-40,-82,-91,-90,-93,53
124,107,147,73,83,-58,-58,-66,-58,79
86,67,111,32,90,-17,-19,-35,-50,52
53,72,103,4,-42,18,-6,-10,-41,35
104,85,43,-30,-82,50,7,25,-13,-6
109,54,-6,-38,-86,56,35,66,34,-27
23,44,-4,38,24,44,22,31,0,-63
8,84,17,55,94,18,18,-8,-30,-44
53,104,13,52,113,-1,21,-2,-29,22
-40,78,20,14,65,14,48,25,-9,60
-236,37,23,-11,13,35,73,35,1,26
-284,8,6,-17,4,65,217,7,-20,-75
-176,-36,-27,16,27,102,373,-10,-23,-87
6,-83,-54,0,26,107,274,-31,-22,-66
194,-66,-47,-28,4,70,62,-53,-40,-56
176,-60,-40,13,60,69,-98,-87,-69,-60
183,-82,-172,-85,51,112,-88,-27,-3,-25
584,85,-114,-143,-68,66,-86,-7,-6,82
802,371,151,17,-182,-158,-290,-135,-64,253
626,345,43,-69,-222,-229,-334,-115,-11,427
530,205,2,-111,-152,-172,-283,-57,34,477
371,48,-7,-78,-42,-97,-205,-30,45,460
-573,-83,-37,-34,-2,-29,-143,24,59,276
-1046,15,-56,4,29,35,-74,65,32,-69
-524,240,31,80,82,78,-1,105,15,-257
50,255,87,132,130,123,64,111,-13,-340
72,7,15,84,109,135,57,78,-29,-324
-195,-173,8,70,98,134,46,85,-5,-202
-222,-215,67,90,97,115,53,88,15,-115
-66,-247,65,94,64,81,27,66,13,-61
-31,-265,6,76,60,73,25,69,34,-32
-43,-181,-28,66,100,88,39,62,32,-64
-110,-55,0,50,51,39,-10,-2,-13,-126
-129,-117,-24,-8,32,77,-8,-23,-51,-163
87,-55,86,1,-62,29,-29,-24,-32,-61
45,-12,102,-25,-77,-4,-34,-27,-9,-86
-175,-45,105,-18,-50,-12,-41,-45,-23,-198
-221,-92,86,3,-62,-35,-28,-39,-24,-225
-105,-116,33,13,-33,-15,3,-32,-29,-180
-56,-154,-49,-6,-5,24,46,13,20,-107
-85,-240,-181,-48,56,84,108,45,54,-32
-43,-198,-171,-51,73,49,98,32,74,64
-13,-87,-65,-14,-20,18,98,4,37,38
-54,-110,-106,-58,-35,86,145,21,-6,-38
63,4,-11,-21,-78,-3,55,-9,5,36
114,15,23,24,-70,-65,3,-35,24,67
58,-32,-101,-19,-3,30,53,8,19,39
77,270,-15,-5,-26,14,10,-5,5,61
112,518,102,69,-30,-51,-61,-69,-30,55
51,329,-31,1,6,-6,-26,-38,-5,44
-79,-77,-222,-144,13,84,72,37,39,0
-82,-215,-151,-72,-26,0,20,7,33,-12
-51,-86,67,23,-65,-73,-68,-79,-17,-10
-72,-5,166,48,-87,-83,-52,-83,-36,-30
-59,-76,105,34,-61,-54,-8,-54,-49,-25
-13,-43,70,37,-26,-45,6,-38,-43,-15
29,-23,-9,10,6,-15,21,-15,-14,0
188,-79,-119,-17,40,11,30,1,-5,27
282,-26,-7,19,-8,-38,-4,-14,-26,74
223,-16,20,0,-14,91,11,-1,-15,117
186,32,72,28,-26,227,4,3,-9,167
-32,-143,-130,-11,94,359,80,25,-29,115
-104,-194,-161,-52,68,246,81,24,-20,76
-80,-50,40,-30,-134,-43,-22,-37,-70,3
-162,116,145,77,-105,-171,-113,-120,-160,-172
-290,193,57,56,-69,-197,-110,-94,-120,-198
-349,254,-13,2,-17,-157,-43,-47,-50,-124
-364,170,-92,-32,73,-105,2,-10,-5,-93
-198,19,-154,-83,29,-69,23,4,8,-46
19,-87,-123,-98,-84,-123,10,39,45,109
107,-123,6,-52,-111,-165,-34,25,32,188
102,-184,17,-49,-69,-100,-42,-3,-14,122
123,-159,-29,-95,-118,-50,-17,15,-2,67
171,-31,85,-1,-150,-43,-31,0,0,106
139,-59,20,-1,-187,0,22,18,14,103
434,0,-12,-43,-229,4,76,47,25,75
692,135,163,25,-94,6,78,19,5,40
616,153,213,153,216,2,11,-52,-47,-2
234,21,87,144,352,-19,-27,-91,-89,-72
22,-48,-23,61,242,-2,-20,-68,-90,-102
-79,-17,-22,26,81,-34,-36,-20,-1,-19
-170,-24,-218,-40,6,-1,7,48,78,35
-182,-110,-374,-93,52,88,101,90,107,5
28,-22,-73,20,-12,-5,15,43,101,76
-143,40,-64,19,-31,-3,15,66,130,61
-404,221,-105,7,18,36,36,83,108,-42
-314,376,14,30,-19,22,1,43,41,-72
-220,214,120,26,-66,11,5,27,32,-21
-201,-87,51,-7,-114,26,30,45,69,40
-136,-162,3,-21,-135,27,49,64,65,86
18,-30,206,20,-96,-21,9,-6,-9,72
31,-66,302,69,59,-39,-19,-67,-72,28
-31,-145,281,111,187,-31,-20,-74,-102,-16
-9,-102,214,86,93,7,-8,-41,-52,-13
51,-139,24,-50,-77,86,38,43,63,13
18,-138,-107,-147,-211,112,66,88,96,38
55,-42,-54,-140,-329,71,69,73,60,48
215,52,30,-183,-449,-28,32,48,50,94
308,65,6,-167,-324,-89,-3,11,-8,44
385,72,54,17,150,-107,-88,-68,-84,-58
265,-2,-30,55,417,-106,-136,-76,-65,-64
5,-84,-80,73,321,-95,-137,-71,-40,-66
-233,-95,-34,94,171,-94,-121,-56,-47,-93
-442,-120,-67,22,105,-27,-52,0,-32,-129
-350,-117,-126,5,99,-12,-29,21,-9,-105
-163,-54,-115,33,121,-25,-35,20,12,-57
-59,11,7,57,67,-37,-41,10,8,-21
-41,27,36,71,29,-11,-31,1,22,11
-70,70,38,49,15,18,-4,18,35,44
-128,84,1,7,22,63,46,35,21,31
-108,64,-72,-28,16,64,28,25,6,25
-9,123,16,-22,-46,0,-25,-9,17,15
-7,101,13,-33,-22,15,-10,-3,36,4
-91,22,-97,2,135,41,12,-4,1,-42
-126,39,-15,69,186,-13,-12,-39,-13,-30
-100,14,21,37,84,-17,-7,-32,4,3
-107,-126,-115,-49,87,93,93,49,47,-12
87,-44,110,98,51,39,39,-9,4,-53
73,70,118,163,36,4,-27,-62,-11,-28
-52,173,-194,22,29,57,35,-23,13,45
304,382,-145,-61,-41,50,50,-17,15,81
262,442,-51,-33,-102,25,31,-26,13,81
143,326,52,-28,-184,-66,-6,-15,52,146
188,214,227,-26,-247,-163,-80,-53,70,202
174,38,185,32,-67,-111,-102,-84,12,134
130,-86,152,50,58,-91,-96,-60,6,108
88,-194,111,35,1,-26,-15,8,55,113
73,-280,21,19,-26,28,42,37,40,33
149,-344,-47,3,-14,43,75,69,29,-71
-48,-348,-39,8,5,73,106,118,46,-112
-243,-300,-44,14,40,24,68,119,78,-64
-299,-393,-221,-61,92,16,36,100,77,-60
-430,-563,-476,-213,157,190,125,114,12,-133
-275,-178,-80,-62,-17,69,-4,1,-84,-95
-33,154,241,56,-162,-133,-157,-81,-111,-57
114,161,193,86,-53,-119,-165,-85,-109,-32
194,99,32,43,-17,-41,-109,-56,-93,-10
257,95,-116,-1,-49,-38,-67,-10,-53,26
121,81,-107,19,16,-9,-27,33,-25,-3
-65,65,-25,60,80,23,-1,37,0,-39
-95,30,48,54,63,23,27,53,25,35
-132,18,41,28,36,3,50,51,42,62
-104,1,20,15,33,-13,54,27,35,16
-66,-28,26,43,58,10,60,9,27,-72
-74,24,-41,24,89,64,79,32,26,-191
-10,206,-53,57,98,66,38,20,-7,-235
96,351,-95,85,28,13,-28,-20,-5,-110
106,284,-138,22,18,3,-30,-27,13,9
106,101,-129,-71,-23,-11,12,4,41,74
182,-58,-122,-115,-45,-34,32,-5,23,111
150,-88,-15,-97,-87,-75,-7,-47,-9,62
-87,-184,60,-69,-102,-41,-9,-60,2,50
-252,-203,76,-59,-149,-38,-14,-56,25,58
-204,-132,15,-82,-210,-24,26,-13,32,13
-44,-12,84,-27,-217,-13,41,5,48,13
-155,68,49,18,-20,46,72,27,69,-10
-168,64,-14,55,271,64,63,-3,21,-18
18,-6,-42,76,343,23,31,-50,-23,-4
90,2,22,76,89,-18,31,-40,-6,24
173,-55,38,36,73,15,60,-16,2,43
191,-129,12,53,123,39,19,-45,-42,62
97,-176,-18,1,85,61,2,-21,-36,57
-28,-175,-75,-87,20,63,36,35,-16,12
-127,17,145,10,-33,-61,-69,-16,-57,-93
-211,66,96,15,-56,-130,-71,-29,-40,-79
-312,-85,-12,-9,18,81,212,7,-11,-24
-459,-259,-58,-62,62,367,392,26,-20,-58
-454,-127,-102,-112,15,375,268,22,-52,-91
-159,328,61,-27,-98,101,-21,-43,-80,-52
-107,394,-3,-45,-93,-69,-171,-72,-103,-58
-54,209,-40,-115,-152,-197,-194,-65,-120,-22
212,-28,-2,-102,-164,-253,-175,-68,-99,25
365,-139,57,-54,-106,-226,-140,-27,-48,59
394,-114,143,48,-10,-168,-150,-18,-38,48
216,-140,113,75,38,-112,-134,2,-15,18
134,-60,89,24,-21,-116,-95,21,40,33
140,108,129,68,25,-78,-103,-5,59,22
104,177,147,81,62,-43,-61,30,118,35
64,131,116,49,30,-35,-37,55,147,49
58,119,159,77,0,-56,-81,4,68,22
33,15,56,8,-16,-22,-33,14,11,-16
31,-49,48,-15,-26,-22,-20,-3,-20,-37
78,-27,53,15,-84,-85,-59,-19,-9,-6
29,-103,-173,-68,-86,-24,-1,21,6,5
-16,-124,-96,-56,-66,5,53,19,-24,-30
17,-4,141,-9,-160,-51,6,-2,-22,-33
0,-2,93,13,-79,24,1,-7,-38,-52
1,-7,76,42,-32,46,9,-21,-61,-45
22,9,54,20,-38,56,59,1,-29,-2
31,22,41,14,-50,68,87,27,-8,46
60,69,29,40,-93,42,65,36,-22,82
77,81,11,-51,-212,29,79,78,18,107
78,151,45,-78,-257,32,52,78,29,91
35,134,39,-4,-82,99,-5,5,-25,44
-14,10,-84,4,179,138,-2,-9,-61,7
30,-25,-93,-25,185,58,-6,3,-42,38
13,-29,-33,30,168,-29,-49,-39,-76,9
-100,-86,-62,10,174,-43,-28,-37,-100,-61
-109,-47,-8,-21,99,-88,-37,-33,-71,-69
-1,-13,33,-38,-48,-120,16,-2,-4,0
75,10,35,-25,-59,-66,263,57,61,58
85,29,24,-32,-76,167,543,99,137,66
88,40,-14,-110,-190,414,525,127,189,66
78,7,-41,-132,-154,476,314,89,142,29
-10,-67,-75,-15,73,359,45,-7,-6,-74
-147,-139,-156,15,171,128,-128,-84,-113,-158
-169,-116,-180,-106,-81,-100,-174,-60,-88,-97
-120,-71,-137,-111,-146,-279,-226,-51,-85,-42
-131,-64,-143,12,68,-335,-282,-87,-105,-65
-129,-51,-188,103,190,-325,-300,-87,-78,-93
56,-34,-143,53,170,-259,-214,-60,-62,-63
199,-76,-210,-28,197,-125,-81,-10,-11,-25
260,35,-78,82,198,-157,-128,-28,18,11
150,116,-95,63,142,-182,-122,0,82,93
94,353,43,84,50,-183,-95,4,27,104
52,394,40,27,10,-104,2,34,-39,82
11,359,168,72,-2,-68,-11,-21,-78,37
-111,186,215,88,-22,-67,-26,-47,-53,0
-313,-32,157,79,39,-8,-3,-7,0,3
-138,-38,194,90,18,-41,-86,-23,-4,41
193,-5,167,70,-11,-49,-114,-42,-22,73
353,-23,151,68,-12,2,-94,-46,-39,104
316,-46,91,52,-29,39,-46,0,-10,107
292,-37,40,13,-75,86,23,64,36,55
243,65,102,45,-138,79,32,79,49,11
36,62,105,40,-138,84,46,90,56,-14
-48,30,71,13,-70,61,73,78,54,-18
-151,50,85,41,33,20,45,61,36,-29
-282,4,1,48,251,71,57,63,6,-103
-333,-26,-62,93,389,86,70,33,-16,-166
-311,17,-52,60,205,30,24,18,-3,-153
-140,-44,-141,-48,61,38,22,6,-25,-119
128,-47,-157,-101,-11,24,1,-40,-55,-74
-15,0,-36,-27,-24,17,-1,-43,-50,-66
-178,-20,-4,-9,-6,-6,-5,-22,11,-14
-240,-64,-80,-34,-11,-12,2,-11,28,-6
-280,-166,-179,-60,-23,3,26,-5,15,-51
-246,-247,-166,-42,-12,4,26,-9,14,-57
1,-283,-193,-32,17,17,45,8,34,-7
420,-68,-219,-28,18,38,64,31,60,63
400,324,-263,3,-3,15,49,31,64,104
257,432,-296,5,-7,20,49,39,73,170
259,186,-221,-32,-21,24,36,23,39,176
32,-108,-29,-12,7,37,34,18,31,39
-112,-170,92,-15,-7,25,26,25,69,-37
-120,-11,212,-41,3,9,-27,-4,55,-83
-64,-53,138,-75,50,48,12,3,62,-127
12,-27,140,-30,-25,33,36,6,44,-105
174,227,373,139,-47,-47,-54,-91,-35,-87
231,219,375,83,-102,-111,-86,-87,-6,16
36,22,225,-36,-121,-115,-70,-70,1,62
-203,-68,109,-93,-162,-130,-70,-66,-10,80
-240,-140,23,-93,-158,-111,-43,-42,-21,58
-77,-226,-30,-54,-102,-23,24,-29,-78,-79
142,-217,-82,-4,-23,42,54,-20,-129,-217
166,-250,-114,-23,43,84,78,23,-108,-229
-185,-162,51,15,-14,30,30,26,-80,-118
-304,-40,136,73,-20,-7,-30,-23,-101,-59
56,24,83,56,1,1,-53,-50,-101,-3
198,1,19,-2,-28,-3,-73,-27,-75,106
131,1,23,-23,-44,-19,-82,-20,-68,146
-25,10,38,9,-6,18,-49,-19,-68,93
-102,93,-19,-7,19,62,-14,6,-39,41
91,248,-118,-70,-6,33,25,61,42,118
155,289,-132,-96,-10,41,51,87,55,103
-18,197,-38,-36,-18,28,19,41,8,-52
-239,-74,-27,-18,-23,31,24,24,-9,-143
-288,-250,-3,-2,-4,54,108,10,-9,-101
-198,-197,68,3,-3,67,336,12,18,-30
-159,-193,73,-24,-14,58,391,34,27,-65
-158,-212,67,21,10,213,218,12,0,-113
-150,-158,41,63,39,519,71,11,-20,-145
-140,-173,-52,27,55,617,74,79,3,-123
-63,-100,-156,-7,21,364,-6,67,13,-53
6,-5,-164,-72,-45,41,-122,-11,-33,-43
-2,20,-246,-135,-74,-168,-189,-57,-67,-10
-21,72,-122,-89,-43,-232,-219,-81,-69,54
-6,80,81,-4,-10,-213,-194,-102,-66,36
61,21,62,-1,-16,-207,-157,-60,-24,43
163,-51,1,-28,-8,-209,-126,-7,30,81
314,-44,69,17,-22,-259,-134,-3,51,118
450,119,218,95,-67,-317,-151,-22,59,170
450,151,175,122,25,-214,-84,-15,69,139
303,107,55,69,60,-89,12,38,98,90
45,163,61,69,47,-28,48,63,88,36
-211,206,134,85,-4,-38,32,30,56,-2
-262,191,127,48,-90,-79,-1,23,70,19
-150,73,37,-6,-99,-96,-37,-9,22,9
-418,-31,-26,-5,-22,-68,-59,-15,17,34
-543,-113,-75,7,68,-23,-44,8,27,74
-383,-173,-141,-34,24,16,28,51,29,70
-162,-87,-40,7,8,9,14,49,12,35
41,9,0,23,7,0,-3,48,9,-23
148,94,-16,21,43,18,11,39,11,-76
147,96,-32,30,60,36,12,26,24,-91
106,70,-36,-1,12,7,-11,-1,18,-129
129,42,-88,-54,-42,-35,-36,-17,7,-43
70,-28,-108,-63,-51,-39,-35,-25,5,22
-25,-110,-108,-76,-25,-12,-26,-18,0,19
-48,-124,-81,-125,-66,-9,-3,3,16,7
2,-104,-33,-76,-39,-3,-31,-4,0,-11
239,-82,4,-5,0,-21,-57,-7,-10,-12
207,-100,-36,-13,2,9,-8,23,-19,-37
11,-109,-123,-61,24,102,80,70,-41,-89
27,47,57,72,44,102,34,-11,-119,-119
205,187,191,135,13,2,-56,-70,-123,-27
382,167,50,40,12,12,-30,-33,-81,58
445,60,-101,-40,22,71,32,-12,-58,58
473,37,-58,-27,-48,72,21,-60,-80,34
367,-1,-122,-134,-223,64,63,6,-23,82
139,46,-50,-114,-317,25,50,28,43,117
-171,74,88,-56,-364,13,38,27,49,44
-272,63,142,-23,-331,24,38,25,41,-14
-248,-37,67,-61,-202,43,58,39,81,9
-455,-153,-46,-52,77,86,98,80,111,-26
-328,-170,-66,35,250,58,64,48,65,-114
-198,-118,-33,82,201,11,5,3,53,-101
-202,-206,-184,64,436,51,14,8,45,-95
-224,-178,-138,116,495,80,15,-24,-27,-137
-138,61,134,198,218,-49,-85,-86,-69,-119
-115,71,89,94,114,-32,-79,-63,-52,-90
-179,0,-2,45,164,56,-25,-38,-85,-108
-169,46,61,86,135,22,-41,-45,-74,-87
27,92,111,79,4,-49,-49,-30,-30,-12
184,48,30,26,0,-10,-3,21,17,49
148,16,3,44,102,24,5,16,8,34
188,37,30,76,148,-6,-18,-9,-5,41
251,45,10,34,77,0,4,-1,16,71
278,30,-67,-67,-23,5,13,11,30,77
256,77,-43,-76,-72,-9,-3,-1,22,38
104,79,-14,-89,-95,-21,-6,10,29,49
-172,44,-13,-67,-34,-26,-27,-8,22,24
-405,25,14,-25,4,-44,-55,-45,21,-44
-605,-26,-31,-72,-44,13,3,10,53,-90
-456,-11,-29,-73,-108,26,46,46,65,-75
91,-3,-58,3,-125,6,52,35,74,-24
364,-7,-17,-13,-114,14,50,55,92,52
140,-5,31,-36,-90,13,34,66,117,107
136,-8,-9,-33,17,44,33,55,97,-45
213,10,-25,9,130,47,19,27,51,-179
382,103,65,63,43,-25,-29,-32,21,-152
396,107,76,43,14,10,0,-6,33,-60
245,67,39,57,65,70,59,18,9,73
13,19,-32,70,123,64,61,-7,-20,273
2,-30,-28,19,87,22,6,-33,-8,285
167,-18,-17,-26,-1,-10,-15,-54,21,158
-12,-59,-108,-47,-35,-2,26,-25,51,156
-270,-78,-111,-45,-32,7,16,-1,76,161
-393,-3,22,-3,-45,-18,-45,-33,43,111
-416,-54,3,-24,-54,20,-39,-32,27,-21
-173,-144,-50,-70,-74,31,-18,-35,27,-77
56,-93,-89,-107,-130,-12,-21,-36,62,9
-40,9,-152,-100,-105,-19,28,9,67,36
-182,47,-172,-78,21,34,41,34,37,-13
-2,64,-101,-53,75,52,36,33,-12,-9
106,34,-67,-59,0,1,6,18,-17,67
-6,-89,-85,-68,-3,10,3,21,11,67
-217,-114,-54,-68,4,41,39,28,-10,-31
-232,62,112,-14,-24,-18,43,-21,-84,-73
-71,44,130,24,-9,-33,32,-57,-125,-40
128,-113,-6,23,23,170,199,1,-66,-3
334,-127,-129,-8,28,440,481,116,60,15
300,93,-137,-40,10,416,422,94,45,-26
5,255,3,-26,-22,206,159,-5,-49,-146
-412,215,101,-23,-67,36,-44,-83,-159,-294
-369,165,208,29,-180,-206,-211,-145,-162,-276
-289,5,169,-46,-144,-260,-200,-101,-91,-217
-262,25,230,9,-69,-266,-222,-118,-90,-173
-280,64,113,-9,-33,-241,-238,-80,-43,-91
-171,100,100,42,-18,-241,-261,-44,9,-26
60,76,95,66,2,-206,-240,-32,31,24
272,-48,57,83,60,-115,-164,8,73,92
477,-128,45,127,134,-38,-80,55,123,166
249,8,-78,101,48,-28,-35,10,57,255
61,-126,-21,65,30,-28,-22,-2,64,177
-68,-203,39,39,4,-37,24,11,42,55
-104,-262,-47,-26,-23,-40,41,59,66,-40
-410,-259,-7,-41,-9,-14,36,53,27,-154
-395,-205,175,16,17,-22,-11,-16,-45,-201
-41,-164,196,-8,2,-59,-34,-22,-58,-124
147,-91,123,-39,-30,-75,-48,-5,-53,-46
128,-54,51,-49,-54,-52,-17,18,-40,-11
43,-30,16,-30,-44,-31,-10,2,-72,-10
-58,-58,-93,-34,6,51,44,22,-71,-30
-129,72,-13,33,21,40,33,12,-60,-17
-72,240,86,56,-16,-24,-19,-13,-45,56
89,284,79,35,-1,-17,-16,8,-8,119
233,301,19,10,0,-11,-27,37,0,148
489,290,11,10,0,-8,-23,22,-18,163
789,250,17,4,-38,-2,-11,10,-9,165
857,97,-62,-14,-17,49,7,12,0,146
113,-18,-98,-22,1,57,10,21,12,89
-430,-72,-64,-18,53,38,22,39,23,-72
-314,-145,-20,8,126,31,23,38,31,-189
-285,-206,61,46,95,23,6,20,26,-217
-305,-232,86,44,50,5,-8,-8,7,-202
-233,-200,55,8,5,-25,-11,-36,-19,-104
-170,-101,5,-8,-30,-47,-40,-59,-35,152
-102,-35,-52,-15,-19,-13,-24,-42,-11,336
-80,12,-134,-4,-1,8,22,-21,-21,90
-107,36,-82,17,11,6,36,-4,-20,-39
-125,39,-62,1,11,0,5,-3,0,36
-81,-21,-124,-36,36,41,16,16,13,35
-52,-92,-158,-69,77,109,76,58,26,-11
-22,-44,-54,-38,47,87,68,55,0,-19
7,36,62,6,-70,-8,16,36,19,5
89,36,51,19,-89,-32,-1,37,81,85
124,42,-29,-1,-6,89,53,66,111,112
180,286,-72,9,39,287,89,81,99,104
139,534,-104,14,73,361,98,92,85,62
16,494,-96,-16,41,224,67,62,57,-9
-33,166,-93,-62,-80,-35,-44,-27,-40,-56
-113,-230,-101,-102,-162,-219,-131,-95,-136,-121
-185,-368,-42,-113,-175,-277,-152,-104,-150,-124
-165,-280,-90,-98,-148,-252,-121,-59,-125,-89
-73,-349,-100,-21,-37,-131,-32,-23,-115,-90
-26,-331,66,65,38,-70,22,0,-84,-65
93,-157,93,74,33,-76,25,21,-34,-7
103,-111,0,15,-33,-86,42,45,-6,2
72,-69,15,-17,-43,-45,90,87,19,10
154,121,214,68,-61,-89,51,48,18,34
173,144,168,71,6,-73,8,16,3,44
152,116,143,42,-14,-68,-22,-2,5,53
88,75,109,12,-73,-37,0,15,25,36
29,31,76,25,28,-8,0,16,26,25
-51,22,72,43,128,-19,-27,-10,21,25
-94,1,50,38,170,-24,-27,-16,13,21
-87,21,37,0,91,-17,-16,-17,20,32
-26,133,75,-3,-3,-44,-45,-34,16,53
84,260,57,-27,-67,-39,-37,-11,30,64
201,285,-18,-51,-68,-12,-5,16,37,54
299,267,-10,-39,-43,18,12,-5,13,47
418,235,51,-5,-62,20,6,-13,18,118
238,46,-28,-16,-9,59,31,25,29,114
28,-34,-77,-38,-25,71,45,38,44,87
-10,97,43,-42,-154,71,50,10,26,93
-89,175,21,-75,-306,120,95,22,26,73
-120,97,-32,-187,-467,172,185,105,66,44
-104,-24,102,-210,-456,148,232,164,80,4
34,-126,140,-46,-91,80,116,73,19,-33
99,-219,-27,89,505,29,-2,-31,-54,-80
-101,-265,-65,273,854,17,-71,-114,-138,-171
-189,-307,-53,318,681,-13,-110,-140,-152,-183
-277,-281,-88,182,357,-17,-88,-100,-123,-131
-244,-141,29,121,108,-52,-119,-84,-82,-67
-91,-97,-12,33,5,-70,-95,-45,-13,-13
-49,-128,-98,-12,17,-51,-43,-11,12,1
-52,-126,-50,17,57,-27,-30,-19,-12,-1
-37,-56,-10,10,38,-50,-34,-22,-6,-4
-48,11,-4,-20,-9,-70,-5,-5,23,5
64,61,0,-1,-4,-7,31,3,17,23
272,118,-1,3,-18,27,46,5,25,60
449,208,28,4,-47,5,15,1,16,80
563,264,46,-1,-40,-16,0,-9,13,90
571,262,41,-10,-27,-38,-14,-30,11,107
189,130,-18,-31,-4,5,-27,-11,22,94
-491,-40,-100,-67,-21,25,-3,30,51,29
-481,-31,-226,-72,-24,32,22,54,83,39
204,-72,-400,-121,55,120,92,98,131,113
189,-65,-310,-91,77,132,101,116,139,105
-114,109,-2,62,-46,-10,-9,41,87,1
-530,96,-39,9,-6,39,19,32,48,-105
-490,64,-77,-51,-12,74,32,22,20,-156
-288,19,98,12,-39,-4,-36,-28,-6,-137
-245,-161,149,38,-27,-10,-42,-27,-6,-93
-216,-258,91,-15,-88,1,-30,3,47,-40
-141,-254,95,-25,-120,-39,-49,-18,25,-10
-108,-267,49,-43,-97,-49,-37,-14,31,22
-111,-207,-24,-63,-75,-13,5,26,24,23
-102,-74,-6,-25,-57,17,6,21,-33,-111
-9,28,86,37,-35,0,-27,-9,-72,-148
84,34,113,60,18,-14,-23,3,-36,12
81,-2,22,40,13,-9,-5,30,21,88
141,11,54,31,-15,-23,-29,9,2,49
65,18,31,33,-38,-31,-50,3,-9,45
3,38,9,33,-40,-49,-62,8,6,83
-35,-19,0,-37,-40,-11,-25,39,10,42
-34,-87,-17,-13,0,61,10,24,-51,-62
38,-12,75,62,-35,10,-48,-45,-102,-112
27,65,87,37,-91,-62,-81,-47,-63,-72
6,79,39,4,-26,-13,-40,-2,-55,-63
114,107,15,2,94,3,-8,10,-34,-71
172,102,22,11,156,-20,26,-3,-29,-59
127,59,8,-13,48,12,256,11,-4,-33
65,18,-44,-36,-42,20,380,28,25,32
-13,88,-61,-27,-82,110,214,-43,-58,-43
99,187,7,-28,-77,251,16,-84,-121,-61
260,184,66,-32,-15,219,-78,-56,-91,94
153,91,21,-29,61,94,-135,-61,-66,189
-97,-24,-63,-42,49,-24,-161,-102,-116,87
-59,-105,-129,-69,-5,-114,-104,-77,-115,50
182,-38,-60,-32,-34,-195,-105,-39,-40,120
186,45,46,54,0,-178,-96,-10,32,98
46,7,68,34,-6,-143,-49,47,83,43
-138,-62,3,15,11,-87,-5,64,112,39
-147,-74,20,61,48,-58,5,41,80,1
-85,-143,-42,1,26,3,91,65,68,-36
81,-87,0,-26,-95,-52,52,50,81,18
433,50,113,4,-170,-92,-44,5,90,121
558,32,13,-33,-158,21,-25,11,104,168
501,2,-80,-53,-99,86,24,0,57,176
442,65,-38,-34,-74,29,19,-23,0,151
114,86,7,43,42,-24,-5,-46,-40,80
-205,-5,-85,73,135,7,0,-57,-96,-20
-192,-79,-85,56,177,70,39,3,-58,-16
122,11,54,90,179,8,-15,15,-38,36
11,-5,62,90,119,-55,-47,5,-9,-2
-307,-111,-9,57,76,-17,-22,21,1,-95
-398,-110,23,50,48,-1,-26,16,-22,-122
-307,19,52,81,27,-27,-59,-14,-58,-96
-317,119,8,50,21,-39,-57,-22,-42,-72
-99,162,-22,7,0,-31,-58,-24,-30,-45
217,254,-22,3,13,-14,-51,-15,-23,7
156,321,-7,1,3,-29,-45,10,-17,80
-66,339,-18,-5,0,-20,-19,35,11,82
68,168,-119,-53,12,35,23,48,8,4
-82,-162,-240,-86,58,105,72,50,-27,-99
-222,-250,-142,-29,60,77,58,31,-36,-150
-174,-137,154,53,-33,-33,14,0,-10,-86
-126,-187,154,17,-21,102,71,40,48,-15
-95,-165,132,0,9,260,111,54,64,-9
-69,-176,137,31,58,293,343,83,64,-6
-117,-246,64,0,57,354,820,96,37,-48
-204,-336,-63,-100,-32,332,800,17,-55,-164
-167,-266,-28,-110,-131,192,314,-133,-165,-217
-81,-192,-104,-136,-198,116,-66,-121,-137,-166
-122,-139,-132,-91,-119,159,-183,-69,-93,-169
-188,-17,-164,-51,-106,96,-208,-53,-63,-153
-225,59,-180,-43,-156,-116,-263,-60,-28,-92
-195,62,-27,-29,-55,-257,-310,-57,-2,-62
30,38,65,-17,101,-327,-333,-46,31,-35
169,-6,87,35,219,-339,-290,-35,36,-30
168,-35,85,41,110,-248,-172,12,49,-33
255,50,96,66,12,-293,-203,35,118,53
207,88,77,99,27,-280,-214,42,133,103
139,74,115,90,32,-210,-140,56,67,84
47,3,110,79,52,-106,-85,39,-5,24
31,60,198,94,11,-88,-90,3,-32,31
48,85,155,60,-16,-76,-77,17,-19,61
76,41,33,18,-14,-45,-50,26,7,94
113,50,-14,-11,-33,-31,-46,8,0,99
122,119,15,-31,-81,-15,-33,8,1,65
112,209,38,-28,-94,-9,-23,7,4,2
85,235,35,-35,-108,-21,-21,2,-7,-6
14,136,-99,-64,-86,10,24,42,22,47
-132,70,-97,-39,28,46,40,35,14,7
-90,104,-75,3,66,-3,-15,-19,-8,-29
313,74,7,8,-82,-94,-69,-62,-45,4
322,-73,23,-52,-203,-30,-1,-25,-8,33
41,-62,46,-38,-216,166,46,10,64,13
-24,-12,22,-15,-128,279,75,40,95,23
13,-67,-41,-30,13,188,109,54,113,40
44,-69,4,18,175,18,48,-8,19,-13
-53,-101,20,11,207,-97,-21,-72,-64,-72
-208,-152,11,15,125,-153,-16,-72,-78,-83
-130,-48,46,89,160,-102,-20,-59,-77,-78
43,52,12,30,124,-34,39,-27,-44,-33
89,162,80,20,12,-75,27,-45,-28,15
-38,269,186,94,-29,-106,-32,-95,-42,34
-126,237,129,68,-52,-74,-4,-68,-7,57
26,136,44,2,-98,-46,31,-9,55,82
57,-15,-76,-49,-126,4,54,38,106,74
-13,-47,-76,-15,-93,-1,37,42,97,72
132,-138,-26,28,51,-13,0,5,66,57
367,-216,-70,19,151,12,-22,-10,34,50
420,-183,-87,-40,46,47,33,24,39,62
51,-6,22,56,-31,20,32,-1,22,73
-348,12,-1,-2,-106,2,58,18,40,68
-605,-85,-86,-94,-110,50,111,54,63,35
-636,-48,-29,-28,-107,35,46,-7,11,-32
-332,-25,-37,-36,-106,30,22,9,22,4
177,-71,-104,-52,2,37,41,50,45,109
297,-142,-206,22,231,60,24,32,8,72
27,-170,-74,96,301,91,0,-13,-60,-43
-12,-45,89,119,137,20,-55,-47,-75,-57
34,0,53,24,23,11,-30,-10,-44,-23
73,64,51,-16,-6,-4,0,9,-21,10
64,116,44,14,20,12,10,-2,-20,-19
-113,93,35,-3,10,34,-2,-11,-44,-106
-119,75,72,-21,-17,32,-4,-28,-87,-153
-118,11,34,-15,-4,46,18,-14,-56,-152
-51,-88,-35,-23,23,76,34,39,9,-98
87,-209,-191,-93,87,132,66,63,20,-41
87,-142,-104,-42,23,49,-11,0,0,-13
36,-159,-141,-73,-13,56,16,27,12,29
33,-143,-183,-64,0,86,44,29,27,86
127,59,17,26,-98,-32,-24,-30,13,138
67,144,99,57,-97,-88,-57,-36,21,147
-178,47,29,-19,-63,-27,0,36,82,110
-241,31,34,-12,-52,-9,-7,31,61,79
-105,76,78,15,-32,-6,-3,15,24,1
89,124,122,50,5,-1,15,9,-7,-126
32,110,93,41,-10,4,11,23,-2,-126
-43,53,52,16,-12,13,17,27,9,-72
-37,-16,12,17,9,19,29,18,9,-66
8,6,-22,0,14,15,15,20,50,-65
104,172,-75,-16,-21,-11,0,11,66,-38
127,275,-109,-30,-25,-20,13,0,91,-13
109,206,-106,-40,17,13,38,-3,77,-11
100,94,-143,-13,23,23,40,1,25,-6
57,74,30,38,31,19,5,-23,-28,-25
39,48,106,29,13,2,-12,-5,-22,-24
44,34,41,-12,-21,-6,-17,20,-6,10
15,6,-8,-17,-28,7,-16,21,-16,8
15,-65,57,-13,-21,7,-9,10,-18,10
53,-128,88,8,-30,-2,12,-12,-26,42
51,-187,-42,-2,-21,-4,50,-3,-23,78
30,-143,-130,2,8,-16,25,-29,-36,83
1,62,-151,-29,-1,-6,35,0,-17,72
-25,212,-134,-50,9,25,44,3,-29,16
38,231,107,38,-17,-31,-48,-58,-62,-22
93,-2,147,14,-58,-30,-66,-22,-17,-19
91,-162,138,14,-42,-36,-78,-5,6,-17
-30,-150,118,18,-39,-50,-84,-6,-13,-41
-122,-38,69,-5,-50,-41,-71,4,1,-57
-79,38,32,-2,-24,-37,-86,6,30,-14
-31,47,2,-30,-36,-48,-66,30,69,33
-19,-18,15,-12,-17,-16,-55,28,27,47
4,-85,33,37,56,28,-37,2,-17,60
44,-39,117,88,90,44,-20,-18,-62,26
105,41,197,104,71,-15,-22,-32,-70,-24
104,-102,29,11,68,71,51,44,18,-6
82,-77,26,3,42,320,76,48,0,24
74,84,149,83,-12,366,0,-31,-76,40
-29,31,54,21,-46,248,25,-20,-75,18
-151,-68,-62,-50,-73,78,26,-13,-71,-67
-250,-164,-163,-106,-42,-95,-25,-58,-107,-140
-242,-132,-118,-107,-28,-248,-62,-97,-99,-137
-182,-75,-81,-106,-70,-245,-20,-64,-50,-100
-99,41,-57,-90,-81,-199,1,-23,-1,-59
-70,132,-62,-50,-17,-148,-7,7,24,-32
-69,111,-138,-10,60,-93,10,0,6,-50
61,115,-88,12,37,-81,30,3,34,-4
177,117,-7,8,10,-68,57,32,89,45
162,72,-49,7,-24,-49,64,61,100,68
111,4,-125,32,2,-10,34,54,93,59
39,-111,-161,14,115,67,56,41,65,39
9,-180,-188,-13,195,141,104,35,36,23
98,-96,-144,-67,82,95,152,72,90,72
303,177,175,84,-43,-56,-2,-16,56,98
347,228,205,116,-13,-89,-99,-73,10,87
266,57,14,24,73,-41,-61,-42,6,44
104,-158,-190,-91,91,75,37,19,-8,-18
27,-31,37,-6,-32,-12,-37,-36,-64,-21
-58,158,282,56,-220,-118,-142,-104,-108,-5
-157,157,260,-18,-335,-65,-104,-48,-55,34
-168,96,186,-63,-400,-22,-57,-5,-4,77
41,60,152,-66,-410,-51,-38,-15,1,98
215,8,67,-121,-331,-24,-4,4,2,135
-78,-3,73,-79,-55,-7,18,18,4,151
-531,-89,28,24,255,-23,17,-2,-24,27
-622,-128,-12,101,306,11,24,-8,-35,-140
-134,-69,-62,106,309,91,237,12,-2,-124
243,-105,-228,68,330,148,398,12,0,-68
208,-171,-315,31,242,127,248,-23,-49,-101
96,-124,-235,14,44,30,29,-41,-55,-73
83,-43,-64,17,-6,-14,-115,-44,-10,0
-60,-57,-83,3,43,40,-115,-25,-6,-23
38,-102,-205,-30,84,105,-46,-3,-4,-48
253,-65,-93,-27,53,52,-65,-17,6,-3
209,90,184,49,16,-50,-173,-42,21,60
180,160,350,111,70,-91,-180,-50,48,41
-91,25,163,48,126,22,-51,-2,49,-67
-299,-35,73,23,52,19,-6,50,74,-65
-350,8,94,37,-21,-57,-40,48,109,6
-261,-21,-100,-47,-4,-20,-24,59,116,47
148,-1,-168,-47,-2,-15,-43,44,108,97
288,86,-10,-16,-31,-31,-38,27,104,101
-58,63,77,26,-3,13,4,51,126,45
-224,4,63,44,6,28,11,50,124,2
-236,-50,-56,4,4,11,17,42,99,-56
-238,-72,-87,-12,-14,13,10,44,87,-54
-147,-58,-30,-21,-22,35,52,44,57,-9
51,-58,-4,-32,-45,24,88,11,-17,-20
291,-28,41,-2,-62,-19,51,-30,-73,-59
398,36,109,36,-75,-54,-19,-69,-115,-86
363,88,141,26,-32,-5,-45,-56,-102,-80
213,192,68,47,50,22,-43,-41,-100,-66
46,261,-79,42,90,54,-18,-36,-100,-78
-162,209,-129,-61,57,99,71,26,-59,-83
-334,317,79,9,44,61,38,-3,-66,-101
-301,294,173,46,-37,-26,-11,-31,-69,-68
-151,134,-5,2,-22,-19,0,-24,-50,-22
79,291,-106,-5,8,-52,-28,-38,-38,51
324,288,-151,-41,2,-84,-25,-43,-33,165
272,30,-346,-126,-14,-61,-13,-21,-24,193
33,-354,-422,-186,1,8,34,35,23,142
-119,-636,-281,-205,-31,64,101,71,77,89
-99,-283,102,-43,-128,-61,15,12,60,39
-107,-12,80,18,-84,-51,10,33,58,-50
-91,1,94,94,22,40,61,65,55,-54
-197,-66,201,92,51,41,39,41,13,-33
-174,-155,197,79,57,36,43,19,-25,-85
-160,-200,146,39,36,16,51,7,-24,-85
-144,-203,135,-5,6,2,62,-10,-17,-71
-104,-286,70,-40,-13,-14,85,6,15,-117
-110,-231,47,0,11,45,62,-11,30,-120
-143,-56,75,25,5,201,17,-30,25,-70
-122,-13,7,-8,23,280,34,-9,21,-31
23,14,-4,-28,26,167,7,-21,26,7
156,17,10,-45,-11,21,-51,-47,-3,7
463,55,15,-46,-102,-160,-124,-93,-54,-7
786,52,3,-54,-117,-227,-115,-76,-60,28
542,41,43,-5,-31,-166,-53,-41,-28,30
41,94,163,62,-4,-115,-42,-35,-12,-8
-235,50,34,-10,-38,-40,3,13,36,28
-385,-28,-37,-32,-1,74,50,55,57,28
-393,-39,-7,27,29,129,78,66,36,69
-277,-66,-48,57,59,130,93,82,53,253
-216,-133,-153,31,100,116,68,42,-21,181
-170,-205,-218,-12,86,34,-6,-31,-102,-202
-132,-238,-256,-70,15,-11,-24,-48,-107,-257
-121,-236,-166,-87,-42,-10,1,-28,-78,-164
-21,-25,123,-30,-195,-119,-70,-46,-68,-30
26,108,213,-13,-208,-178,-137,-54,-46,130
57,125,92,2,-109,-164,-153,-45,-31,181
111,106,32,31,6,-127,-102,7,16,150
205,82,98,18,-4,-77,-64,38,30,129
246,60,134,1,-54,-40,-47,28,15,111
81,4,5,-37,-26,73,44,58,22,46
-5,117,95,50,-1,93,6,17,-31,-2
88,220,222,98,-127,-39,-95,-34,-54,17
65,146,106,39,-107,-33,-85,-20,-13,11
-10,76,14,15,40,20,-43,11,22,-1
-77,10,14,25,138,24,-32,-6,6,-28
-74,-22,53,22,-38,0,-26,-6,8,-23
16,-84,-49,-9,-99,1,-9,23,37,15
128,-115,-189,-10,16,-18,-53,-1,44,42
206,-83,-198,2,104,-6,-60,-16,62,33
60,-59,-167,-17,72,16,-35,-11,45,-30
-61,-22,-45,-62,-162,19,-9,18,59,-51
-41,43,72,-113,-377,30,50,89,112,-8
-56,93,27,-84,-335,26,60,98,129,15
-75,81,8,-7,-94,11,37,60,102,-5
11,121,115,29,-19,-30,12,9,48,15
60,80,55,3,-56,22,38,5,6,9
65,12,-16,77,291,90,24,-29,-44,-43
74,9,39,167,552,68,-12,-88,-109,-84
183,71,75,58,271,-4,-13,-72,-74,6
302,129,82,33,81,-35,-26,-66,-33,106
255,67,8,115,220,0,-34,-89,-54,68
88,-24,-111,45,284,59,16,-61,-49,11
-109,-62,-147,-11,224,81,62,-35,-57,-25
-176,63,-12,88,72,-19,-1,-78,-79,-31
-101,68,37,74,-16,-7,100,-57,-65,-45
-21,-91,-46,-51,-31,93,350,10,-20,-58
-239,-158,-84,-82,-30,74,303,-3,-31,-68
-565,-212,-119,-59,23,57,108,-21,-84,-110
-485,-219,-154,-110,-20,130,-16,23,-69,-119
-210,-109,-80,-113,-33,173,-66,33,-35,-48
-81,-48,-32,-77,-58,123,-77,24,-4,3
-147,-116,-110,-114,-102,119,-37,50,19,6
-164,-113,-120,-147,-187,74,-37,90,35,3
47,84,114,0,-278,-122,-177,13,1,33
275,93,122,112,-137,-173,-189,-24,-15,35
296,40,-28,90,85,-111,-122,3,6,36
236,70,-34,40,69,-69,-78,22,20,38
178,170,28,34,-158,-122,-102,1,25,32
135,245,107,29,-138,-135,-117,-23,12,21
38,177,106,98,258,-61,-85,-50,-17,-22
-9,79,80,141,456,-50,-80,-75,-44,-44
49,52,61,54,141,-83,-57,-52,-14,8
90,84,78,5,-44,-141,-25,-41,14,62
28,88,96,38,62,-54,79,-44,2,54
10,9,23,57,241,316,255,-21,1,36
-38,-53,-39,5,165,601,308,54,66,27
-82,-47,-93,3,78,555,236,77,82,-14
-55,-86,-174,-59,40,323,101,52,51,-26
-33,-214,-285,-179,-11,108,27,25,27,-52
60,-174,-90,-102,-94,-187,-118,-28,2,-37
-34,-103,-28,-9,-40,-303,-177,-40,17,-37
124,-32,-159,-53,3,-232,-113,-1,56,13
156,27,-157,-61,-1,-180,-55,-2,51,25
-7,26,-61,-4,-14,-194,-49,-26,9,-6
144,-20,-76,2,-25,-216,-60,10,41,95
442,35,-65,-17,-37,-247,-74,37,97,196
545,190,70,17,-48,-254,-123,-1,86,183
353,133,209,31,-51,-184,-120,-9,43,135
89,27,182,13,-49,-118,-102,-14,-20,113
-120,-63,82,4,-35,-72,-89,-7,-56,12
-279,-79,70,25,10,-27,-46,16,-78,-222
-332,-8,114,29,4,-5,-29,9,-63,-295
-216,22,139,42,0,-8,-26,-6,-64,-175
-212,-27,119,95,50,14,-3,-23,-96,-122
-253,-46,34,65,57,56,44,-7,-93,-71
-200,-22,-124,-21,43,81,94,55,-11,15
-6,88,-161,17,115,127,114,66,2,5
385,466,103,128,76,31,-13,-2,-17,39
559,598,51,103,59,32,-10,4,-4,64
502,462,-179,-16,63,83,56,47,11,80
423,290,-158,-53,13,22,6,16,14,141
218,89,-123,-82,-39,-5,-24,-6,22,144
-183,-181,-152,-107,-1,49,25,8,21,72
-220,-97,174,8,-72,-28,-42,-42,-5,58
-402,-34,428,95,-138,-120,-123,-77,-19,62
-977,-158,317,22,-78,-56,-63,-26,0,-30
-840,-92,315,24,-69,-60,-79,-51,-46,-132
-590,-86,330,51,-68,-53,-60,-56,-89,-198
-261,-263,142,16,-18,51,66,44,-3,-147
299,-412,-33,-56,-134,55,100,81,47,-73
241,-401,-60,-33,-190,17,54,31,24,-112
11,-356,-136,-15,-183,16,31,28,34,-78
-79,-265,-87,-25,-147,29,49,43,55,-15
-122,-159,-14,23,-23,35,47,23,34,15
-153,-157,-70,62,237,75,44,-7,-20,-48
-38,-100,-65,48,258,78,69,-10,-44,-133
55,-109,-145,-47,113,83,105,37,3,-115
-84,-141,-173,-83,74,127,159,82,29,-52
124,58,127,82,-36,-2,29,-17,-29,-2
178,116,170,70,-109,-84,-81,-66,-73,19
72,-22,-21,-43,-45,-23,-33,-20,-69,13
39,-17,-19,-30,-30,-23,-32,-22,-86,-14
38,21,17,4,-45,-53,-73,-25,-90,-21
58,33,11,0,-57,-40,-63,-6,-53,27
106,46,-1,-9,-57,-36,-41,16,-33,64
158,38,-3,-14,-41,-34,-25,20,-15,88
63,33,15,2,-3,-5,-1,19,-28,55
-69,34,20,19,15,12,1,15,-38,12
-142,18,-18,15,14,17,0,5,-25,12
-91,21,-33,1,9,30,9,16,-4,3
-9,136,-8,13,13,37,43,19,-14,-16
15,221,23,20,15,42,71,31,-11,-6
16,193,24,25,2,25,66,19,-7,-6
5,144,0,13,-5,11,33,-6,-24,-6
2,48,-54,-34,-11,16,14,8,-18,2
-2,-24,-52,-40,-31,7,5,20,4,21
-47,-85,-29,-34,-56,-2,-9,10,5,25
-106,-88,-1,-13,-92,-14,-26,-9,3,4
-93,-122,-90,-49,-175,6,84,10,39,12
-14,-119,-182,-49,-202,43,283,10,72,63
-39,-126,-186,-120,-195,77,298,5,67,45
-69,-103,-78,-160,-245,81,188,13,53,-19
134,69,96,-54,-334,166,34,13,49,12
254,88,-2,-10,-181,301,21,73,85,64
152,26,-71,45,149,227,5,69,60,47
49,-77,-146,51,365,91,-54,0,-24,-28
24,-82,-136,38,324,-105,-180,-87,-91,-87
26,-18,-65,31,235,-245,-256,-103,-85,-80
70,12,-30,24,132,-220,-205,-53,-26,-31
108,57,28,70,138,-166,-162,-3,11,23
63,41,-18,74,154,-112,-107,39,38,56
7,-2,-45,60,147,-84,-74,37,19,49
-17,53,16,58,51,-119,-78,8,17,94
7,122,50,36,-1,-115,-41,17,29,105
34,155,54,19,-29,-114,-11,28,35,65
6,128,9,11,-46,-99,-8,27,39,26
-24,76,18,6,-27,-71,-1,17,9,4
-43,-37,-38,-14,8,-17,22,19,9,-9
-91,-75,-140,-25,57,56,59,23,-1,-36
-31,123,34,52,33,7,-12,-22,-42,-43
202,208,71,8,-27,7,6,8,-18,2
625,238,157,43,-57,3,10,3,-1,69
762,146,110,5,-105,-3,32,11,35,161
660,85,65,-19,-109,16,43,36,62,187
406,134,128,39,-70,-18,-28,-9,38,143
-14,-16,-53,-31,-4,29,-13,20,40,77
-464,-102,-150,-39,93,93,43,49,59,10
-701,-24,-34,79,187,108,8,0,38,-19
-547,-112,-145,-43,63,206,51,22,67,-2
-491,-156,-136,-73,-23,243,79,47,50,-53
-341,-136,-82,-59,-57,200,82,45,23,-95
-116,-25,87,-29,-138,36,38,14,26,-33
-14,67,267,94,-27,-118,-66,-109,-81,-5
59,17,196,93,101,-224,-140,-143,-111,81
154,-88,25,-8,52,-180,-128,-77,-44,141
87,-143,-70,-81,-48,-128,-67,10,35,126
-117,-175,-108,-93,-82,-66,-9,91,106,41
-270,-126,-76,-38,-15,-10,34,128,127,-48
-444,-18,-39,0,75,-3,39,106,83,-106
-504,97,-32,30,114,21,71,93,28,-176
-158,147,-12,38,83,34,92,81,-10,-185
128,90,-21,29,49,21,59,53,-29,-138
198,21,-39,21,26,5,20,35,-31,-80
193,-95,-38,20,4,-7,6,24,-17,-39
102,-18,-46,25,15,16,23,27,-22,-37
19,326,34,31,40,11,18,8,-40,-40
24,512,201,60,19,-46,-36,-41,-88,-40
-11,336,183,52,-16,-67,-71,-76,-115,-71
-82,-10,26,5,-38,-46,-46,-48,-60,-63
-51,-89,11,-22,-43,-36,-37,-41,-24,-36
120,59,-16,-92,-109,-62,-7,-23,-13,14
282,4,-91,-136,-116,-62,65,30,43,72
386,-95,-30,-24,-6,-21,57,25,40,122
338,-116,86,57,61,9,60,-6,1,123
-4,-221,94,27,78,56,75,-14,-25,-4
-244,-267,134,11,-21,-15,27,-37,-51,-105
-173,-320,7,-73,-96,-56,29,3,14,-89
138,-286,-96,-69,-10,15,75,27,48,-58
298,-157,-47,27,22,39,54,-6,11,-63
-101,-70,-67,86,5,17,9,-9,4,-24
-282,-34,-58,59,-1,13,-31,-2,-15,-39
-111,-9,35,38,-19,-4,-49,-13,-35,-23
2,-30,53,-18,-60,-23,-28,12,7,20
29,23,79,-18,-77,-73,-63,2,24,54
-22,57,27,-37,-23,-12,-67,-26,-23,10
-59,17,-29,-64,-2,93,-18,-27,-87,-80
78,23,-36,-119,-145,38,-9,1,-67,-76
314,93,22,-91,-243,-70,-69,-17,-32,22
347,103,25,-22,-192,-48,-74,-35,-73,17
200,-34,-101,-81,-60,43,5,14,-42,-5
0,-105,-106,-63,118,60,39,31,-23,8
-126,21,78,73,205,-54,-46,-37,-56,-8
-334,-7,52,39,74,-58,-20,2,-7,24
-437,-27,-2,28,10,16,23,31,29,50
-274,26,-28,40,9,37,41,7,13,7
122,6,-81,-26,-9,54,52,25,19,0
136,-6,-97,-58,29,49,37,10,6,-26
-71,67,25,14,124,3,2,-30,-36,-55
-237,109,24,15,115,-72,-15,-32,-25,-56
-130,108,-63,13,10,-88,-42,-52,-36,-58
-23,54,-33,33,26,-28,-19,-59,-31,-40
-93,34,-20,33,53,26,23,-21,18,55
-134,25,-84,6,54,55,64,30,80,144
64,-22,-133,-29,37,70,79,58,109,146
108,-43,-237,-58,11,65,80,47,128,103
55,-50,-360,-106,-11,52,67,56,141,105
8,86,-132,-34,28,48,15,21,66,74
96,304,143,56,-10,1,-44,-14,34,68
236,328,151,52,-21,17,-25,1,46,63
172,153,92,37,-6,34,8,2,30,22
121,-106,25,17,33,47,50,19,47,23
90,-231,17,-19,45,66,86,37,61,-5
-13,-253,41,-59,18,74,59,25,-9,-114
-4,-300,-29,-62,-45,34,14,4,-36,-100
23,-141,218,100,-155,-114,-117,-54,-41,14
-121,-76,254,107,-150,-109,-127,-62,-42,7
-315,-109,163,-3,-92,11,-26,-28,-72,-59
-326,-54,177,-63,-160,2,-21,-25,-65,-46
-194,-28,157,-57,-183,-39,-37,-41,-60,-21
-24,-60,62,-49,-69,-7,-13,-31,-43,-15
180,-12,37,-16,34,11,-6,-23,-28,-22
204,-29,29,9,106,36,29,4,-11,-20
70,-9,65,28,109,42,31,19,-1,-44
-51,-15,22,31,154,45,33,9,-15,-77
37,-20,-64,33,78,33,20,-6,-20,-55
99,-1,5,40,22,16,29,-16,-29,-46
53,-5,20,76,76,11,25,-26,-38,-49
19,-35,-60,89,141,20,28,-12,-7,-29
-15,-57,-174,75,193,68,63,1,-10,-24
5,12,-90,16,80,37,56,13,-3,14
47,85,9,0,14,-23,-2,2,-8,27
33,85,37,27,-18,-27,-32,3,-16,20
44,74,-33,-14,-91,-29,-11,22,20,60
95,154,59,18,-150,-79,-20,3,29,82
50,105,75,35,-185,-71,-5,3,31,47
-56,-57,-60,-85,-212,8,72,55,67,12
-71,-57,-30,-123,-239,0,87,64,63,-2
-8,66,40,-71,-125,-24,21,21,24,18
84,93,-28,-19,154,-6,-6,-10,13,39
187,37,-54,36,207,-35,-33,-52,-9,78
159,51,-39,0,42,-55,-25,-32,11,145
124,117,12,-18,-19,-28,-3,0,23,177
199,163,48,39,42,-31,152,8,40,148
258,125,52,68,132,94,345,10,30,109
138,73,30,31,86,295,272,-9,-31,0
346,47,-38,15,57,308,75,-34,-92,-74
366,-91,-144,-26,33,193,-6,25,-53,-8
10,-224,-167,-86,13,72,-18,63,-17,-10
-44,-228,-147,-89,-48,-155,-152,-17,-48,-60
-221,-289,-178,-117,-42,-212,-177,-19,-32,-109
-347,-301,-199,-149,-15,-97,-93,63,37,-187
-241,-53,130,71,-36,-180,-208,-45,-28,-213
-116,-41,84,52,-30,-164,-188,-49,-37,-152
-33,-61,8,23,-9,-122,-154,-12,-29,-78
3,-28,-41,29,-19,-115,-138,19,-13,0
-20,25,-35,54,-35,-109,-102,37,25,73
-99,24,1,40,-11,-48,-60,45,53,93
-112,34,47,34,-43,-1,-35,31,59,77
-101,28,0,41,-89,3,-32,16,74,57
-140,19,-27,18,-101,1,-6,40,123,51
-262,27,13,37,-16,4,-5,37,137,13
-322,20,-85,10,129,37,20,49,121,-34
-235,107,-65,32,190,25,0,15,69,-52
-30,220,69,49,91,-17,-34,-13,29,-25
88,199,66,12,15,-8,-11,4,17,27
16,98,56,-4,13,-2,24,4,-5,25
-81,-98,-63,-37,47,28,63,0,-35,3
-98,-231,-185,-112,35,59,103,22,-40,15
-38,-95,23,11,15,-6,16,-42,-118,-10
-13,-81,60,103,53,-2,-40,-76,-174,-65
19,-144,-60,69,68,37,-7,-54,-124,-55
95,119,64,51,39,7,-5,-58,-74,-26
115,335,55,31,37,26,46,-27,-40,1
11,203,-148,-79,41,85,132,37,-9,-9
42,133,-2,11,22,35,91,0,-43,1
120,40,106,78,-70,-34,8,-21,-25,84
20,10,5,46,-25,13,21,-3,-24,67
-39,229,116,48,-29,-1,3,-10,-38,78
-36,228,139,52,-25,-14,-40,-26,-48,81
-49,35,113,30,11,9,-23,-52,-91,12
3,-91,119,7,7,-8,-8,-54,-95,-16
237,-158,95,-23,0,-9,-28,-32,-74,-19
201,-174,91,-36,-57,-54,-74,-33,-60,-43
14,-225,88,-55,-87,-90,-87,-24,-39,-74
61,-274,-5,-72,-63,-26,-49,-5,-35,-58
93,-222,-38,-49,-24,18,-24,-2,-20,0
-2,-169,-38,-39,0,34,-17,-1,-12,27
22,-114,-8,-33,5,44,-10,-7,-5,0
139,-13,20,9,47,56,-3,-15,-15,-18
203,118,5,62,65,53,-5,-16,0,36
21,153,-40,12,14,48,28,28,52,89
-151,80,-43,-17,0,32,41,50,69,55
-180,22,61,32,21,15,22,5,28,0
-180,-1,149,26,-30,-15,14,-15,18,-27
-176,-75,113,6,-23,-5,-2,-42,-28,-97
-96,-181,-14,-12,15,33,21,-32,-32,-111
14,-103,-40,-40,-4,3,11,-30,-30,-36
100,19,33,-41,-58,-62,-38,-32,-10,25
121,109,138,15,-88,-86,-65,-31,8,47
142,86,57,-11,-54,-29,-36,-14,34,27
114,49,-53,-44,-39,-13,-30,-4,80,15
-138,5,-59,-42,-41,-18,-9,29,142,21
-236,-22,-43,-40,-39,-8,8,45,119,0
-41,-64,-69,-57,-4,4,3,37,87,9
75,-52,-44,-31,23,5,16,25,70,4
56,-26,-7,-23,-18,18,35,22,51,5
-34,5,-5,-46,-73,33,35,28,38,38
-20,4,27,0,-62,59,28,-1,-16,26
128,23,30,18,-47,56,41,17,15,34
174,35,-4,-32,-27,11,59,62,221,76
104,-45,-59,-22,116,8,48,43,286,35
44,-144,-198,-54,170,22,64,23,180,-5
74,-71,-87,-69,10,-54,7,-14,59,11
113,-22,-45,-96,-53,-99,-32,4,36,48
97,-78,-120,-118,24,-19,-16,17,64,64
152,14,-44,-52,-17,-62,-36,-34,75,80
119,52,11,-25,-53,-97,-35,-49,116,62
-82,0,24,-26,-39,-62,-39,-40,53,-44
-225,-45,12,-44,-21,-9,-18,-34,-147,-133
-46,-4,6,-54,-42,12,-6,-37,-226,-112
237,63,45,-8,-44,16,0,-53,-189,-68
328,71,28,-5,-15,22,13,-41,-135,-12
287,49,-5,-1,6,19,-10,-35,-55,55
226,140,46,59,-15,-10,-46,-43,-58,49
187,169,107,98,-23,-15,-42,-44,-119,-17
-11,125,92,106,12,34,-13,-8,-145,-60
-301,61,33,95,92,100,48,39,-130,-83
-368,46,13,80,142,118,80,51,-125,-95
-282,173,47,77,75,78,65,30,-144,-111
-157,252,-31,39,103,55,27,5,-102,-44
-275,119,-99,2,216,120,58,-14,-128,-62
-440,111,-18,71,143,90,28,-84,-180,-121
-361,94,68,25,-16,-50,-27,-105,-132,-60
114,-44,-25,-102,-80,-72,8,-66,-54,39
570,-27,-3,-67,-103,-100,-17,-85,-37,123
460,13,83,-39,-181,-125,-72,-85,-13,102
147,22,64,-55,-198,-76,-62,-55,9,43
98,41,41,-86,-270,0,-12,-20,46,59
254,77,40,-120,-406,14,30,12,70,70
72,72,50,-29,-349,-10,61,36,58,49
-369,-28,-88,41,-106,25,171,114,93,-36
-370,-45,-51,191,389,159,137,93,84,-124
-102,-74,94,278,738,286,29,11,22,-148
-184,-111,29,154,511,277,28,17,34,-122
-95,-75,-50,21,174,125,0,13,41,-50
4,-60,-166,-70,-7,-44,-64,-40,-9,-66
-88,-116,-356,-157,-46,-127,-56,-50,-44,-159
-253,-197,-425,-148,59,-103,0,-41,-71,-224
-211,-129,-248,-50,44,-132,-21,-47,-65,-156
2,-46,-129,-66,-7,-138,-6,-16,-3,-17
52,90,-18,20,47,-83,101,-2,-1,22
-29,216,41,48,15,-22,309,55,39,49
70,158,-37,-1,0,0,278,59,41,62
155,-61,-94,-69,-25,-23,113,51,40,87
199,-179,-40,-60,-15,-28,-35,42,43,107
360,-27,32,-19,-19,-59,-130,42,52,181
423,311,175,18,-32,-74,-167,21,38,166
60,444,223,35,17,-42,-148,6,19,75
-325,190,140,19,19,2,-100,20,-5,35
-303,-109,10,-44,34,35,-59,84,19,1
-154,-100,177,67,13,-38,-128,17,10,5
-29,-101,220,87,-51,-139,-182,-47,12,43
-6,-211,65,50,-14,-91,-77,7,79,82
-101,-213,13,44,28,220,38,75,137,57
-72,-154,56,54,-5,518,63,76,149,12
41,-143,38,73,-34,514,78,66,143,9
43,-129,-43,44,-7,282,48,29,82,-15
-79,-171,-90,-11,69,1,-31,-47,-29,-121
-131,-249,-163,-62,108,-198,-97,-89,-101,-178
-124,-150,-106,-85,-20,-293,-124,-74,-90,-163
-98,80,133,-34,-76,-304,-127,-60,-58,-151
-38,84,222,12,-82,-272,-91,-39,16,-83
36,-34,51,0,-52,-196,-47,11,93,29
68,-70,-127,-56,-36,-144,4,89,167,133
7,-16,-135,-86,-19,-78,69,101,132,89
-1,108,91,46,14,-58,40,8,26,20
78,144,154,91,-69,-114,-5,-51,-25,56
43,28,64,64,0,-30,13,-52,-76,18
18,-8,94,73,11,-1,13,-38,-66,-14
33,6,105,37,-43,-30,45,-12,-18,6
45,16,120,9,-77,22,324,11,-8,37
30,-42,77,-55,-94,121,483,5,-37,14
-25,-112,-35,-101,-97,240,311,-56,-100,-67
-7,-93,-31,-84,-116,240,-3,-96,-111,-43
47,-100,-127,-167,-126,218,-137,-25,-37,29
134,-138,-212,-247,-82,176,-98,49,7,17
275,-66,-82,-124,17,69,-106,-27,-65,-42
465,213,226,94,-22,-190,-255,-135,-118,-5
420,291,222,150,1,-274,-292,-92,-10,74
236,210,8,79,19,-213,-195,-18,63,122
-4,173,6,47,0,-186,-127,-2,61,125
-304,146,84,58,4,-203,-110,25,81,125
-400,97,50,59,25,-174,-75,54,100,106
-45,86,-14,53,4,-148,-59,38,57,46
107,10,30,19,-17,-102,-44,44,31,-55
-76,-108,-1,-10,-11,-47,-7,76,81,-32
-229,-99,5,-8,-6,-31,0,72,56,10
-126,-21,81,26,1,-24,-24,14,-12,-14
-7,9,76,29,29,-16,-23,-5,-22,-42
-94,45,16,3,39,13,-8,-8,-18,-42
-223,120,54,-13,-13,-40,-28,-7,0,-11
-323,154,103,-10,-22,-67,-52,-20,-12,-9
-254,110,92,-3,-14,-41,-34,-7,-1,-27
-50,-2,21,-7,-17,35,25,69,65,14
13,-119,-96,-21,9,97,71,104,82,-3
69,-135,-115,-24,-2,108,97,108,77,-41
263,50,79,44,-40,61,36,17,5,-59
238,122,118,44,-54,7,-22,-42,-37,16
108,63,9,48,44,-11,-28,-45,-22,129
45,6,-88,13,77,11,-9,-9,3,167
77,-28,-184,-50,33,92,59,30,-20,75
116,17,-58,14,18,70,3,-28,-72,2
116,10,-8,22,-53,7,-32,-18,-34,15
-50,-120,-163,-107,-45,14,45,75,44,58
-291,-143,-118,-73,15,77,101,74,20,-37
-219,6,106,93,-2,46,38,-21,-73,-182
-47,-31,29,30,-30,76,44,3,-75,-193
63,-94,-106,-75,-61,115,74,54,-43,-106
155,7,15,-60,-208,-25,-14,-8,-62,-20
149,37,32,-72,-258,-80,-18,2,-37,33
77,-5,-27,-41,-147,-32,35,26,-17,45
-7,-6,-61,70,78,6,72,14,-46,29
-134,-28,-140,97,232,38,90,13,-44,-29
-248,20,-178,60,189,9,39,19,-28,-55
-79,139,-72,52,152,11,-23,9,-24,-23
109,148,-40,58,176,30,-48,-1,-1,-4
-124,33,-24,57,127,49,-16,11,18,-53
-170,-58,21,15,45,35,18,11,25,-112
93,244,-10,-16,2,-13,6,-38,4,-83
449,629,-12,-35,-12,-51,-41,-69,-16,26
527,680,22,-71,-55,-54,-28,-53,-7,151
150,321,19,-78,-30,-44,-24,-69,-41,251
-39,-52,28,-72,-62,-57,-64,-83,-59,415
-135,-169,81,-50,-105,-99,-93,-84,-15,350
-361,-238,52,-59,-49,-16,-22,-27,7,-36
-634,-332,118,17,-30,13,19,27,47,-136
-576,-409,53,47,2,57,81,74,79,-86
54,-345,-19,34,43,98,110,99,84,-79
330,-201,-4,40,54,113,102,102,83,-115
158,-14,22,29,24,72,83,67,50,-171
54,161,-33,19,-23,51,90,53,31,-183
-17,269,86,40,-60,42,79,42,51,-86
-66,192,125,41,-48,71,76,23,58,12
-74,-68,0,18,-3,122,82,13,17,-22
-96,-403,-218,-98,-7,146,150,88,56,-69
-25,-313,-1,53,81,30,42,13,-23,-111
91,-142,140,141,248,31,-71,-80,-98,-102
86,-162,12,61,196,205,-48,-54,-68,-36
81,-124,-76,-1,49,240,-12,-38,-40,26
101,-128,-105,-38,-10,96,-31,-39,-26,42
75,-193,-189,-113,-84,-60,-72,-55,-61,17
89,-190,-155,-131,-128,-189,-120,-86,-92,-23
133,-207,-128,-111,-113,-227,-123,-87,-97,-36
85,-230,-150,-85,-47,-121,-48,-51,-50,-39
-31,-136,-114,-23,43,-55,18,-25,-64,-59
-27,-2,12,37,95,-64,11,-26,-58,-42
37,3,25,22,68,-53,17,8,-34,11
184,89,-47,-6,38,-56,24,38,12,84
279,275,-119,-26,51,-48,17,47,27,88
190,336,-132,25,101,0,-28,-7,-42,28
28,209,-175,6,132,74,-23,-23,-60,-34
-131,83,-110,3,99,104,28,15,-43,-70
-222,137,194,105,-24,-19,-34,-37,-63,-60
-236,68,286,150,-78,-143,-136,-83,-29,22
-5,-245,53,10,-18,-65,-46,-15,17,75
-16,-231,181,-9,-25,-15,-16,-23,0,49
-56,-66,313,40,-136,-76,-71,-81,-32,2
-4,8,264,46,-162,-111,-93,-70,-20,-11
-73,-45,109,9,-54,-43,-29,-15,4,-52
-144,-112,-52,-55,29,59,30,-3,4,-83
-136,-82,-56,-54,-18,68,62,10,31,-61
-105,-24,-56,-35,-80,61,215,37,70,-17
-41,1,-35,5,-99,111,371,35,55,-44
94,-19,-14,-6,-149,77,241,0,33,-79
66,-51,-75,-56,-194,37,45,1,50,-86
29,-38,-100,-38,-170,65,-33,21,50,-66
69,62,-100,-32,-161,49,-41,41,51,39
105,228,-117,-69,-125,11,-62,48,78,201
79,346,-2,-40,-74,0,-107,20,69,193
26,398,277,54,-22,-22,-170,-23,36,75
-14,235,240,39,-61,-80,-169,-5,60,99
-67,-8,84,-27,-187,-98,-114,29,99,141
-131,-130,-1,-38,-113,-59,-100,27,83,117
-6,-53,59,0,36,-96,-134,-38,42,87
383,-51,70,26,253,-123,-145,-70,0,82
574,-171,-26,106,563,-1,-84,-75,-76,-34
657,-20,99,171,404,17,-92,-122,-126,-103
713,136,179,111,74,-68,-123,-98,-93,30
599,118,79,15,-49,-86,-91,-27,-30,162
383,59,-108,-101,-99,-74,-33,42,43,221
-43,68,-233,-117,-57,-67,-14,45,47,172
-319,77,-174,-69,14,-101,-34,13,16,100
-695,-36,-80,-16,101,-27,6,21,-4,-18
-837,-68,1,44,104,67,61,67,-12,-175
-344,-58,53,83,74,154,73,95,-5,-207
-260,-84,30,70,55,193,98,109,12,-181
-347,-124,15,41,-3,154,102,110,30,-101
-70,-137,-35,-11,-61,73,94,94,57,-18
-100,-146,-69,-41,54,7,62,53,28,-7
-176,-137,-58,-18,228,-57,-21,-12,-16,-73
-219,-147,-102,-5,221,-62,-32,-49,-36,-125
-300,-147,-147,-33,79,4,13,-14,-28,-144
-276,-14,-18,16,19,24,24,-3,-12,-165
-206,39,27,36,10,35,7,-9,38,-159
-119,64,19,-5,-69,6,0,24,134,-66
-47,95,35,-30,-121,-23,0,40,206,-6
-2,141,73,-37,-143,-33,13,51,202,33
8,170,80,-41,-143,-9,42,67,162,57
-24,125,20,-44,-107,33,76,73,117,65
-31,100,-39,-15,-63,24,32,30,49,77
-36,116,-16,35,-37,-8,-10,-12,-1,71
30,79,41,28,-8,-10,-9,-19,-53,47
383,-14,-39,1,59,-13,-31,-34,-102,51
497,-75,-54,19,97,-7,-48,-60,-113,39
296,-14,5,79,183,19,-44,-81,-127,-53
45,5,8,29,100,26,-13,-57,-103,-102
-71,13,37,-12,-46,-12,-22,-52,-78,-76
-56,-13,-13,-46,-103,-35,-27,-64,-59,-48
-42,-81,-134,-68,-48,4,-5,-62,-50,-51
-59,-107,-139,-40,-80,-1,15,-16,-27,-39
-17,-46,-109,4,-186,-27,20,12,7,16
78,-77,-121,1,-119,9,69,40,48,72
38,-113,-51,61,143,64,98,21,25,43
11,-170,-38,102,295,70,82,0,9,9
59,-5,-47,76,189,41,75,10,42,57
40,345,-119,-5,88,66,113,54,54,91
-12,633,-82,-15,64,79,127,47,14,49
69,667,117,43,-43,-65,39,7,13,89
114,227,-1,14,1,-43,51,15,24,102
42,-196,-160,-20,63,169,92,31,24,86
-90,-348,-36,-72,9,291,72,44,22,84
-108,-393,119,-11,-28,190,-15,-13,-18,61
52,-286,175,43,-55,-5,-91,-74,-43,66
124,1,180,62,-5,-98,-126,-145,-143,-20
229,170,89,22,-17,-174,-110,-136,-140,-28
356,117,-173,-85,-80,-185,-57,-16,1,82
160,-65,-241,-138,-79,-114,12,85,86,89
-140,-164,-91,-59,-37,-87,13,62,19,-29
-246,-141,-8,5,-22,-71,-11,23,-47,-116
-206,-158,-23,35,51,-49,-11,-3,-61,-86
-42,-219,-149,-17,110,9,35,39,2,-14
258,-94,-92,-23,54,21,59,76,31,16
509,211,232,111,24,-16,0,1,-30,-2
399,497,449,167,-22,-78,-81,-85,-96,-35
53,415,297,81,-67,-77,-69,-87,-83,-60
-265,169,190,24,-89,-80,-53,-77,-52,-36
-477,-1,146,3,-88,-99,-93,-56,-15,4
-255,-190,-22,-41,-51,-30,-69,-19,-24,27
12,-261,-113,-56,-31,4,-19,12,-3,38
-231,-211,-60,-11,-32,15,-1,38,41,71
-177,-150,-71,11,2,35,11,46,59,50
-28,-158,-82,-8,10,55,41,81,87,6
-98,-121,1,3,0,55,70,77,67,3
-172,-54,171,44,4,50,44,34,50,-7
-323,-83,196,21,10,49,49,15,25,-65
-355,-131,84,-13,5,50,70,32,10,-114
-8,-117,21,1,22,46,39,20,15,-38
160,-125,-83,-22,57,64,32,13,34,29
45,-94,-119,-29,57,59,34,18,51,39
93,1,-99,-38,-14,25,11,9,58,73
138,60,-56,-68,-53,2,9,29,79,124
109,154,78,22,-40,-16,-44,-20,26,96
33,109,36,2,-17,38,-10,-5,1,-20
-8,54,-28,-16,-22,38,25,9,34,-55
-10,25,-25,4,0,26,23,5,56,-7
29,8,-75,-27,-29,-8,13,8,75,48
48,23,-34,-41,-66,-47,-2,-11,84,65
-5,-48,-21,-38,-11,-32,18,-3,84,23
-48,-101,-94,-92,28,4,59,35,76,3
22,45,51,-22,-32,-37,13,12,14,0
38,98,99,12,-51,-15,8,11,-63,-42
65,120,124,42,8,18,-8,-23,-112,-69
75,119,126,68,28,-12,-24,-38,-109,-89
91,104,38,62,18,-23,-26,-37,-102,-69
114,42,-67,4,-9,-13,13,-24,-108,-26
68,-48,-86,-31,-12,9,34,-1,-86,0
0,-11,-35,16,29,13,19,-8,-65,-1
31,74,-10,18,39,29,29,0,-31,27
63,165,-18,30,33,25,12,-8,-47,90
81,174,-116,8,11,-7,-25,-29,-86,107
83,70,-162,-36,-3,2,30,-16,-74,95
55,-46,-146,-62,30,119,282,27,-22,72
17,-19,19,-41,-24,126,370,1,-43,12
-53,47,189,33,-142,40,172,-85,-106,-84
-120,21,167,0,-235,11,1,-74,-105,-140
-170,-35,15,-85,-270,30,-76,2,-53,-94
-126,-95,-56,-109,-231,-6,-126,21,-11,-8
-105,-98,-45,-79,-78,-56,-139,21,8,38
-148,-24,9,-2,97,-97,-171,15,17,27
-216,-22,29,57,205,-111,-217,8,27,-7
-211,-30,72,87,160,-78,-211,-14,-11,-52
-87,-46,44,21,-14,-36,-156,5,-8,-51
123,-20,51,22,-43,-11,-93,43,41,12
108,4,41,39,48,101,-9,67,58,53
-5,2,37,21,21,146,12,21,23,36
95,81,138,24,-88,54,-27,-19,5,24
137,80,38,-23,-63,20,-9,3,15,-4
123,25,-51,-48,-148,-31,9,9,23,-10
92,-36,-38,-103,-184,-38,38,39,54,15
54,2,62,-7,-33,-85,-3,-8,26,-5
-65,78,109,130,320,-67,-43,-55,-5,-60
-95,90,65,87,290,-21,-23,-34,0,-54
-59,24,-19,-37,78,2,15,0,36,-14
-34,31,29,54,113,-8,4,-40,-2,-18
19,17,39,139,234,-30,-35,-76,-32,-22
76,-80,-68,29,193,54,7,-13,3,-19
244,-31,-23,-10,31,12,21,30,45,27
449,41,-101,21,-8,-23,29,26,55,51
535,89,-202,-5,-39,105,42,42,100,95
599,144,-155,-36,-44,268,52,61,167,155
613,206,-65,-20,31,206,18,24,114,136
264,104,-121,-7,235,148,13,-5,22,32
-207,53,63,131,240,-26,-95,-92,-97,-63
-582,-140,2,24,63,-116,-74,-46,-92,-102
-538,-103,-165,-66,-35,-134,-36,28,-24,-55
-654,165,-276,-92,-39,-88,-7,65,-4,-6
-759,342,-209,-102,-27,-50,15,60,-22,-33
-439,262,-55,-75,-77,-84,-38,0,-103,-37
-191,-171,-17,-59,-91,-121,-81,-28,-103,-7
130,-485,-37,-65,-79,-119,-50,-1,-40,84
42,-488,-5,-47,-45,-36,-16,9,-27,86
-208,-352,105,-23,-28,124,-14,-5,-49,12
-71,-241,119,12,-12,187,-6,-15,-35,-13
196,-176,76,36,11,133,28,2,-23,6
429,-112,68,14,-35,9,11,-1,-23,19
114,-150,79,34,-25,-47,-18,-26,-53,-25
-271,-211,96,62,7,-74,-30,-31,-57,-76
-238,-249,102,51,36,-37,-13,-22,-55,-95
-174,-206,63,28,24,-25,14,5,-11,-50
-86,-107,39,-12,4,-18,28,28,4,-44
