-2,-5,-3,-9,-16,-4,-2,-1
-2,3,0,-1,13,3,0,-2
-2,2,1,5,-2,-3,-1,-1
0,1,-2,3,1,-1,1,1
0,-4,-2,-8,-2,-3,-3,-2
-4,-5,-7,-5,-5,-3,-5,-4
-2,-2,-2,0,-7,1,0,0
-2,1,-1,-1,-3,-3,-2,-1
-1,3,0,3,5,2,3,0
0,-4,2,-1,-2,-2,-2,-1
1,-4,-2,-2,4,-1,0,1
-2,-6,0,0,-4,-5,-4,-2
1,11,-1,2,4,-2,-4,1
1,-1,1,-6,-3,-1,0,0
-2,-5,-8,-2,-6,-2,0,-2
-1,-1,-4,-6,2,0,1,2
-1,-2,0,3,2,-5,-1,-2
-3,2,0,2,7,2,1,1
0,3,3,6,3,-1,-3,0
-1,2,4,-3,-5,-4,-1,0
-3,-12,-8,1,1,1,-2,-4
-2,1,1,-5,-9,-3,-1,0
-3,-3,-2,-4,-4,-1,-4,-2
-2,-2,-2,0,0,-1,-3,-2
0,1,3,-3,2,-3,0,-1
-1,-6,-3,0,-6,-1,-1,-1
-1,1,-2,-1,-1,0,1,-1
-2,1,-4,0,1,0,-2,-2
-2,1,-1,1,1,0,0,-1
0,-3,-1,0,3,-4,-1,0
0,2,2,0,-2,3,2,1
0,-4,-2,0,-7,-9,1,0
-2,-4,-5,-6,8,9,-1,-3
-2,-3,-2,-2,-3,-3,-4,-2
-1,1,2,0,4,0,-1,1
-2,-2,-1,2,-2,0,0,2
0,-1,1,0,-4,-7,-2,-3
-3,2,3,0,-1,2,-2,-1
1,1,-4,-1,0,-3,-2,-2
-1,-7,0,-1,2,-11,-1,-2
0,-2,-3,-2,-7,-1,0,3
-1,0,0,0,-1,-3,-4,-1
-2,-3,-1,-4,-4,-4,-2,1
1,2,-1,-6,1,14,3,0
-2,-7,0,0,-1,-4,0,0
0,-1,-3,5,-5,4,1,-2
-1,-7,-4,1,5,-3,2,-1
1,5,-5,-2,3,6,0,-1
1,-5,5,-1,-4,6,-3,-2
3,19,-5,-9,-4,0,8,1
0,-14,2,-1,-1,-13,-2,-2
0,9,2,7,2,-2,-2,-2
-2,-13,-10,-6,-6,7,-2,-2
-6,-7,8,7,0,-14,-4,-3
9,8,-6,-4,-4,9,1,1
-6,-10,-9,-6,-3,-7,0,-4
1,-4,4,2,-2,-11,-1,1
-5,-8,3,-7,-2,0,-4,-5
-6,6,-4,4,4,13,1,-2
0,2,-1,-8,-4,1,-3,-3
-1,-1,3,7,3,0,3,-1
-2,13,14,6,0,-20,-1,0
-7,-32,-11,-1,3,-2,-7,-2
5,10,-6,-7,-13,0,-13,-1
-3,4,5,-1,4,-5,19,2
1,-3,-1,9,10,6,1,2
6,11,-14,-17,-12,5,-6,-3
-4,-9,-1,1,-2,-1,12,2
7,22,14,8,-9,-4,-8,2
-7,-20,-11,-4,8,-3,-12,-7
-3,7,7,4,9,6,7,-1
9,12,-2,2,1,-1,-15,1
0,-14,-8,6,0,-8,16,3
3,-1,0,-18,-13,-24,-6,0
5,11,-15,-6,-2,16,1,0
-8,-6,-13,-2,-3,4,-7,-4
-5,17,19,-8,-11,-49,-6,-7
-2,-11,-42,5,14,71,12,1
-1,-19,43,19,-1,-16,0,-1
-13,2,-41,-20,-6,-45,-44,-10
-3,-4,-4,10,7,16,-10,2
-5,3,-13,-17,-16,-42,17,1
1,17,52,14,12,47,8,4
5,-2,-11,-1,3,0,58,4
-7,-42,-15,8,-15,-22,-25,-4
17,17,4,-7,29,58,6,3
-6,7,-43,-10,-20,-7,25,-6
0,-14,47,15,6,-39,-56,6
-10,-9,-67,-37,-40,-35,22,-11
1,-1,36,23,32,49,-22,-3
10,45,23,8,-2,-43,-27,0
-16,-64,-54,-15,-6,64,33,-8
-3,29,53,14,22,17,-1,-1
-4,-21,41,16,-21,-33,-6,0
7,-3,-53,-36,-24,-33,-72,-10
9,102,11,9,21,59,101,10
-7,-118,-14,-3,-1,-33,-24,5
11,33,-49,-4,-13,24,34,11
-3,31,29,5,33,-7,15,-1
-5,-46,66,20,-2,4,-6,-3
-3,-45,-87,-40,-17,6,-26,-7
-13,18,48,8,-9,-21,9,-11
-6,-38,-19,7,-17,0,-29,0
6,-17,-20,-9,-5,-21,60,9
4,97,70,29,35,17,20,3
-5,-60,50,-5,-35,-62,-32,-6
-9,-25,-29,-13,5,89,55,10
0,48,30,9,46,-3,-48,-4
1,-9,17,-4,-58,-47,-49,-12
2,23,-18,-3,45,81,42,0
-6,-5,30,19,0,-49,8,1
3,-52,-64,-36,-19,-22,-47,-5
2,28,5,0,23,44,53,5
5,40,6,-2,-27,-48,-46,-9
7,-16,25,4,-17,-47,-5,0
-11,-25,5,-1,19,53,-14,2
5,28,11,10,6,33,42,2
12,116,12,-16,-4,34,26,15
-6,-80,2,28,17,5,54,7
16,51,3,-1,-41,-104,-39,-3
-6,-37,-43,-11,39,82,-17,-7
-4,-14,16,11,1,0,46,10
2,29,-11,-10,-26,17,-26,5
-5,16,22,4,-5,-29,0,-7
0,71,22,17,10,-10,-29,-6
6,-27,-30,-10,10,-24,-18,0
-10,-2,-19,-12,6,52,78,-5
-9,-64,-35,5,2,-32,4,-2
14,38,-5,-7,10,-23,-15,10
-4,-16,-18,5,-32,-9,-26,-13
0,-5,-1,-15,31,15,30,0
-1,33,32,9,1,40,7,2
1,-2,61,13,22,-68,-1,10
0,26,-22,-20,-14,80,-2,-2
-19,-69,-104,-35,-34,-83,-60,-22
11,70,52,26,3,27,16,8
-4,-17,-20,-23,-7,72,36,3
-3,67,28,8,10,4,-29,-11
-6,-42,1,6,9,0,-29,2
-4,-103,-9,-5,3,19,-4,-1
0,3,-3,5,-17,-11,37,1
15,47,-11,9,1,-24,13,4
5,35,4,-11,-2,53,-60,-9
-3,23,-7,-1,-22,-51,-50,2
-9,-27,-2,-5,5,14,-20,-11
-1,-70,-44,-5,-26,-64,-18,-4
3,77,59,14,39,59,33,2
-2,-19,-34,0,16,16,57,3
-4,-20,-28,-7,-35,-9,-10,1
-6,-19,16,0,12,-39,-19,0
0,0,-1,-6,-21,-65,-30,-8
1,58,52,21,8,45,23,-5
23,37,36,-20,-20,3,70,17
-13,-74,-49,-15,25,61,11,-7
3,-4,7,18,-3,-73,30,-3
4,-43,-14,-9,-3,28,-12,-3
5,-40,9,10,17,-19,-21,2
-2,50,6,-1,-41,-48,-5,-5
14,21,-8,-14,25,14,11,-2
-5,52,21,11,1,4,38,0
-2,-44,-5,8,0,5,-5,2
-2,-76,-17,-2,8,-9,2,7
-1,25,31,22,-3,2,-25,-1
-6,16,-52,-30,-50,-52,-101,-6
-4,20,-9,-6,6,4,28,-2
-4,-5,-15,0,4,-13,-52,-6
-6,-18,20,0,-11,-21,-3,1
1,-33,-18,-16,-16,-20,-37,-7
-2,41,5,6,17,23,0,9
-5,-11,38,11,13,-27,-32,-1
-2,5,-52,-15,-42,9,10,-2
-4,11,18,-3,19,36,-38,-7
-3,-55,-38,-16,-13,-25,-4,-11
-7,-5,-1,-3,-15,32,33,-2
-7,18,29,8,26,-40,-10,-3
12,20,-12,-1,-2,-15,27,11
-3,23,-4,1,-4,-12,-43,3
-3,-16,-1,5,17,2,31,6
-6,-65,-32,-21,-50,5,-12,-4
-10,44,23,2,50,27,13,-8
-2,-90,0,15,2,-2,10,-4
6,8,-5,-19,-20,-36,19,-1
-7,13,32,7,6,-27,-10,4
-4,-8,1,0,-25,13,6,-4
13,123,27,7,14,0,-6,-1
-18,-93,-9,-9,3,-5,-9,-15
6,-19,-3,4,-9,5,25,17
-2,-56,-23,-6,2,-10,8,0
-5,19,-23,-10,-17,-17,-21,-8
3,5,16,14,21,-41,-4,-1
17,81,13,3,-21,37,16,6
-15,-34,-17,-16,-12,-57,-25,-11
-5,16,15,1,11,20,-81,-13
0,2,7,9,6,21,38,6
11,-6,-3,2,8,-10,-22,8
3,20,12,13,-18,2,14,-2
-3,13,16,-28,-12,-23,-24,-11
4,23,-39,-5,32,40,-6,2
-11,-77,-22,11,13,3,-2,-4
7,16,20,2,-22,-10,22,9
-11,-11,-20,-9,-34,-84,-2,-6
-1,36,34,4,31,96,43,2
0,81,14,-3,13,-14,12,-1
-15,-107,-14,1,9,-7,-37,-7
-5,11,-20,-11,-5,-22,24,2
7,34,17,5,-25,-49,36,15
5,13,-2,5,9,3,-17,-6
-1,36,-3,3,14,33,-4,-1
-5,20,-23,-2,-23,-8,19,-2
-17,-65,-15,-7,9,3,-18,-6
3,-14,-28,-15,8,-9,31,1
5,15,13,0,3,13,6,5
11,25,1,24,20,12,14,2
6,39,-14,-13,-32,-73,-40,-6
-8,-22,26,-3,14,46,-42,-8
-9,-27,-37,-14,22,63,36,-2
-1,60,30,18,21,24,-4,-7
-17,-101,-18,-21,-81,-69,14,3
-4,59,11,-5,38,8,6,-8
2,6,-4,11,13,-22,7,-1
-6,38,-21,-13,-10,26,1,-7
-3,-74,-15,12,35,34,4,2
-6,-3,-17,-6,-46,-20,5,-3
2,29,7,4,18,-6,17,4
8,67,16,-6,19,25,-15,-1
-7,-70,-22,1,-17,-18,23,5
-1,-5,-8,4,-26,-7,16,-4
-2,-18,9,2,13,-1,-16,-2
-7,-48,-15,-5,8,7,-15,0
4,86,16,-5,5,81,10,-1
3,-11,28,19,20,-13,4,5
-6,-47,-25,-23,-90,-100,-5,-8
4,-10,16,16,57,36,40,8
1,24,0,-4,-14,-11,-24,-4
3,25,7,2,16,14,-12,-3
9,38,38,12,-23,-20,16,1
3,-10,-12,-22,-28,32,-1,-2
-4,-35,-28,-4,2,-93,-28,-1
7,27,11,9,14,65,7,1
5,21,-1,-14,-14,-45,-12,-1
-12,-36,28,12,-22,-16,-9,0
-3,28,5,-1,17,-45,-73,-14
-8,-22,-43,-10,-21,-70,-40,-9
1,-44,-13,-2,7,13,22,9
-1,5,4,0,-31,-19,-21,-1
7,17,4,-6,5,24,-46,-12
-7,-14,-12,-9,-10,-8,20,1
-8,59,66,15,23,23,-36,-9
-8,-114,-106,-21,-42,-52,-3,1
5,10,8,10,42,21,14,4
-4,-32,7,4,-15,-43,-33,-3
8,30,0,7,-1,35,9,1
-8,-43,11,-11,-12,-23,-17,-9
-1,49,6,-1,0,17,21,-1
7,33,13,-6,-16,-44,-65,-2
-8,-52,-38,-1,-19,19,19,5
1,-22,2,9,39,24,-3,-5
-2,45,27,5,-21,-32,-3,0
2,-10,-16,-4,12,-2,14,1
4,41,1,10,0,-1,11,-2
1,-7,14,-10,-16,-13,16,2
-4,11,32,10,6,20,28,3
-13,-19,-33,-25,-24,-25,-26,-11
-6,-42,-44,-17,-13,-30,-22,-1
2,-7,2,10,32,16,3,-5
14,43,26,15,-7,34,70,16
-11,-45,-20,-5,14,7,0,0
0,-3,-6,-13,8,51,-45,-7
1,60,31,5,-9,-18,0,11
-5,-17,-3,0,-11,-43,-31,-10
-6,-38,-14,10,27,37,27,12
-7,1,10,-5,2,19,44,0
8,56,14,3,-13,-5,16,6
-5,-28,-26,-12,5,26,-27,-8
7,-20,-7,-1,-11,-11,21,1
7,46,-1,-1,-2,-75,-12,-3
-2,-16,19,6,-4,70,8,1
14,-27,-13,-6,3,-7,16,4
2,64,48,13,0,17,16,-2
-2,3,-22,-16,-8,-20,16,-1
2,0,4,5,0,-16,-25,1
-2,42,-10,-10,-9,-43,-74,-11
-3,6,38,9,6,20,-5,-5
4,15,-41,-9,8,54,32,3
-6,-42,-21,-11,-13,2,-18,-3
-8,-8,5,4,29,17,0,-7
-5,19,10,-2,-17,2,8,-2
-6,-62,-20,-1,-7,-23,-17,-3
-6,-5,-13,-7,-16,-30,18,1
1,1,6,8,24,45,-5,14
3,8,0,-12,-10,-7,17,-1
-2,-16,2,-2,4,5,36,-3
2,21,1,7,3,1,7,-4
-3,-42,-2,0,-27,0,6,3
9,55,11,3,-6,35,-4,-2
-4,-17,16,5,21,-37,-7,-3
-4,23,-5,0,16,13,9,3
-5,-65,-26,-18,-27,-18,-7,-2
-2,5,-2,-1,1,-9,5,3
10,36,55,16,-13,-44,-16,-1
-10,-15,-20,-1,37,70,9,-2
5,27,14,11,-13,-22,11,1
-4,-2,-19,-15,0,-15,12,-3
5,40,19,6,1,13,-18,3
3,-9,-2,3,-4,-34,-14,-2
-8,20,2,-9,2,14,64,6
-7,-75,-49,-14,5,40,-12,6
0,34,5,-8,8,-2,0,-5
0,-17,-9,3,-15,-26,-12,-4
0,12,-3,-3,-3,52,17,-5
2,88,19,9,23,-36,-15,5
4,-95,-16,4,-14,22,-23,5
-1,28,7,-14,-1,-3,-3,-6
2,-22,-26,12,24,8,-28,-4
-1,13,7,-5,-20,-40,-6,-5
0,11,-13,-1,8,23,14,9
1,-1,17,9,-20,-21,1,-4
-7,-2,-3,-11,3,8,15,0
3,2,-9,-16,-7,-14,-18,-8
-4,24,20,7,4,-45,7,1
0,-13,-1,-2,4,-11,16,-2
0,22,8,8,-27,-39,3,1
0,-39,-14,-8,17,34,-1,-3
-13,-26,-8,-14,-17,19,-32,-10
0,16,-10,-5,13,7,-12,-2
-1,-43,31,10,-1,-9,-26,-8
0,-14,-20,-2,2,-5,28,12
1,12,-2,5,5,0,-11,-6
-2,-15,-10,-1,-12,-18,1,1
-1,43,0,2,37,45,13,-5
3,-18,23,8,-42,-44,26,5
-9,-4,-30,-11,61,92,3,1
2,-42,2,15,1,-31,1,4
-3,37,16,-13,-23,-20,22,0
0,-33,-11,2,6,13,-18,-3
8,48,9,3,-12,-16,2,-4
-2,-15,9,7,9,6,-4,3
-12,-72,-61,-19,-20,-44,-43,0
-1,9,5,8,-3,63,6,-3
-2,-5,12,-3,2,-46,3,-5
2,38,6,7,24,25,16,-1
3,10,-4,-12,-30,-17,-12,-1
-7,-23,-7,5,0,-40,14,2
-5,31,19,-1,-16,-6,17,3
2,7,-11,-10,-4,24,-44,-4
-2,-17,-15,-4,-3,-34,-11,-3
4,11,16,5,-11,-13,-27,-5
-4,-5,11,6,27,17,11,0
-1,12,11,-1,-6,-22,11,-4
1,-14,-22,-7,3,49,11,3
-8,0,11,-4,-6,-22,-24,-8
5,38,-5,-1,-10,-1,-2,-5
-5,-69,-6,-2,2,3,-17,5
-1,-3,-8,4,-5,-13,27,1
-7,-43,-12,0,23,26,7,-5
0,-9,0,2,-18,-3,-6,-2
1,40,8,0,14,32,2,-3
-3,6,28,8,0,4,-8,-2
2,2,-15,-23,-17,3,18,7
-1,-15,-16,-3,2,29,-13,0
-2,6,5,-1,2,-33,-16,-7
2,-16,-1,15,2,-15,7,-2
4,11,-17,-7,0,-62,26,1
5,-2,9,7,35,87,30,7
0,-5,20,2,4,0,0,1
1,16,-29,-10,-10,-3,-14,1
-5,-38,-3,-4,-3,-18,-16,-9
-6,-15,1,-2,-20,-47,-4,0
-6,-42,-13,-8,-18,-6,9,2
5,48,24,4,14,10,-28,-3
-3,21,7,8,31,36,4,-4
0,3,-1,-1,-6,-29,-5,-3
2,13,-4,-1,-9,19,-3,1
-1,-2,2,-4,-4,-20,-57,-7
-8,4,-15,-5,-5,12,-25,-10
-3,-17,-2,-3,-9,-37,-2,-1
2,38,2,-2,3,11,6,-1
-7,-13,-5,-6,5,-33,33,1
-3,-38,-20,3,-8,10,-10,-2
-1,-14,7,5,2,-13,-4,5
6,16,-12,-1,-8,-9,-8,3
0,12,12,0,8,6,9,-2
4,39,20,7,35,22,28,2
-6,-17,-26,-6,-21,-9,-37,-6
1,4,3,-3,5,12,-8,-5
-6,-34,-2,7,-8,0,5,1
1,18,5,-6,-14,-2,18,4
-1,-4,15,3,11,-11,28,4
0,13,-12,0,-2,0,38,2
1,45,22,-5,6,-7,5,-5
1,-10,-22,5,-5,44,6,1
-8,-47,-11,-4,-1,-54,-17,-5
-5,-2,0,1,7,44,-9,5
4,19,6,1,-8,2,23,3
-5,-4,7,-5,-14,-17,-8,0
3,22,7,-1,-2,14,3,0
-3,-26,-16,-7,7,-28,7,-4
0,5,2,4,6,18,-16,1
1,14,8,-4,-20,-30,-28,-3
4,14,-9,-2,-15,35,34,5
-9,-31,-12,0,20,4,39,-4
2,6,18,6,3,-22,-20,-2
-3,-15,-6,-3,-4,1,31,-5
-7,-23,-6,-8,-17,-10,-51,-6
4,10,22,10,-3,-18,-6,0
-5,-13,-32,-14,-3,16,21,-2
2,37,18,3,11,38,15,1
10,0,-5,0,2,-24,6,0
2,0,9,5,-13,9,27,2
-4,-23,-20,-15,-9,-25,-50,-7
2,2,4,11,15,14,-11,-1
0,23,21,-5,-13,-22,-2,5
3,-1,-24,-3,-4,4,-3,1
-2,-1,3,1,-6,-4,4,-2
3,8,-1,-3,-9,-5,18,3
0,-18,5,8,-4,18,0,6
-4,5,-14,-12,0,-32,-25,-8
-1,-22,-13,1,-8,11,-9,-2
4,80,43,-2,-2,7,-2,-1
-19,-79,-48,-11,-5,-20,-27,-13
1,-1,0,2,7,10,-5,-2
3,47,18,5,24,17,-36,2
-2,-54,-7,9,8,-10,39,4
2,35,6,-2,-12,7,-7,-8
-7,-3,-8,-14,-19,-8,-4,-3
0,-3,5,0,-2,15,19,-4
7,9,1,-5,7,6,-2,3
0,25,-1,3,16,-6,-7,-2
-3,-22,-21,-6,-6,8,23,-2
10,21,33,9,4,9,32,6
-7,-41,-45,-7,-13,2,-19,-3
4,47,31,4,11,-15,8,2
-1,-25,-23,-8,-23,-47,-20,2
-4,-3,1,6,23,51,41,1
1,8,13,4,-6,-37,-31,1
-2,-38,-40,-16,22,42,17,-6
4,50,26,5,-12,-26,-8,1
-4,-24,-11,0,-7,-10,-25,-4
-3,-12,5,-2,-8,-7,39,-3
3,31,9,2,1,37,5,5
0,26,21,2,9,-8,-23,-7
-9,-103,-33,-3,-3,5,13,3
-12,-27,-12,5,16,-5,-6,-6
2,16,16,0,-32,-49,-26,-3
7,-13,-19,-2,25,80,10,1
-5,11,2,-11,-22,-30,-5,-5
4,30,13,6,3,-1,6,4
-2,-28,-3,4,7,2,6,0
-1,13,12,-4,-21,-23,-33,-4
2,37,7,10,19,6,0,-4
-5,-34,-34,-20,-8,4,-26,-3
0,26,-1,4,-3,-4,19,-2
-7,7,17,2,19,-14,-1,-2
1,-24,-11,-7,-25,0,3,5
-4,5,13,8,16,-3,-16,-2
4,6,-2,3,-5,-1,11,3
-3,-16,-5,-1,-4,2,8,2
3,58,0,-4,0,-5,-5,0
-1,-62,-3,-2,-5,7,-6,0
1,16,3,3,-1,-11,-6,-3
-2,-3,3,0,4,-6,9,0
2,28,12,-4,-13,-9,2,1
3,55,12,6,0,9,-14,-1
-10,-104,-53,-14,-13,1,4,-2
-2,3,5,-4,12,-37,-8,-3
2,19,2,-4,1,-16,-23,-2
-4,0,9,3,-1,-6,-7,-3
3,40,19,-2,-1,38,0,1
-8,-45,-12,1,-9,-7,-31,-3
-3,8,-1,2,-8,-8,-7,-2
-6,-41,-11,-4,6,-36,-18,-1
-8,-4,10,6,1,10,-10,-10
4,28,-13,-9,-19,-39,26,-6
-3,-6,-13,-6,7,29,-3,10
-1,5,4,-1,-13,-7,11,3
3,23,19,8,12,11,-27,1
-10,-25,-10,-4,-6,-18,-13,-9
-1,-17,2,1,-4,-9,-5,-6
2,21,-5,-4,-7,-13,-1,-3
2,10,12,8,36,19,37,5
0,-7,5,7,-22,16,17,6
-1,-29,-15,-15,12,20,-37,-5
-1,24,-15,-4,-7,-10,-16,3
-2,21,-6,-3,-6,-23,5,-5
1,-14,15,3,-16,17,3,2
-1,-15,5,4,12,2,61,0
7,37,12,-4,5,2,-4,0
2,6,-3,-1,-10,5,-6,-1
-9,-16,1,10,17,-22,-22,-2
-1,-3,10,-7,-25,-12,-11,-4
-4,-16,-8,-7,21,43,13,-7
0,20,10,0,-6,-33,0,7
-4,-34,-7,-5,8,27,-4,-8
2,19,14,15,10,-1,4,12
1,1,-5,-4,-18,-10,1,1
6,-23,-15,-9,4,4,-24,-3
5,34,7,2,-8,-14,-7,0
0,24,4,5,29,56,8,-2
-2,-1,-5,6,0,-11,-6,0
4,5,13,3,-9,-2,-5,1
4,16,-4,-14,-6,0,60,5
1,-6,-11,2,-11,-12,-35,-8
1,28,23,4,-6,5,3,0
2,2,-21,-7,1,4,2,-3
-5,-25,-7,2,-1,-4,26,-3
0,18,-1,-9,-4,-21,-18,-4
-8,-14,10,0,-10,-20,5,-3
-15,-37,-15,-9,-2,11,-11,-5
0,8,-1,2,13,32,-15,-2
-9,-40,4,2,2,-8,11,-2
4,-1,-17,-10,-14,-18,2,-3
-3,-3,1,4,17,-2,14,2
2,14,12,-1,0,4,-14,5
-1,22,-7,-12,-14,-2,20,-4
-2,-17,-1,0,-5,10,10,2
-7,-1,-5,-11,-11,-10,-51,-6
3,0,-11,2,9,2,-4,-1
0,-20,-4,8,-2,-16,6,-3
-2,-1,3,3,7,10,-8,6
-1,-10,-20,-7,-4,6,5,2
-1,8,6,1,0,-12,-2,-2
0,-6,-5,-1,-14,-11,-3,0
-1,0,-6,-3,13,16,-8,-7
0,7,21,9,8,1,5,-1
-2,0,-7,-3,4,17,8,-1
4,-6,-23,-6,-8,-21,8,5
6,1,7,2,-3,20,-3,3
-4,1,7,4,7,-23,32,4
-3,9,-2,1,-5,27,1,-3
-2,-49,-10,-3,-1,-3,11,2
-2,16,1,3,-2,-17,-11,-4
-4,-19,-10,-9,-14,-3,-3,-4
1,21,11,4,-7,-26,-11,6
-2,6,7,7,31,51,15,3
-4,-14,-8,-3,-21,-20,-55,1
2,5,-4,-7,2,-17,8,-1
0,1,-6,-3,-3,14,-5,-1
-1,27,6,-7,-14,-26,-26,-6
-3,-16,-5,7,17,42,26,-1
4,12,11,5,5,10,6,-3
-5,-22,-1,-8,-10,-4,-21,8
1,0,-19,-7,-25,-12,0,-10
7,15,12,4,25,21,17,10
1,5,-6,0,-13,-9,-15,-3
3,-1,10,10,-2,11,10,-4
-2,-33,-7,-7,11,14,4,4
-1,-9,3,-1,-14,-19,0,-5
-2,-9,-5,-6,0,-1,1,-2
3,28,21,-2,5,-13,9,1
-6,16,-2,1,5,22,8,-4
-2,-4,-9,-5,-2,-17,-10,-9
-4,-30,-8,3,-7,-3,7,5
-3,-6,-18,-1,-14,11,1,-7
2,36,23,-7,1,-18,-64,-8
-8,-40,-10,-5,11,0,-9,-5
-5,-12,-6,0,2,-2,0,1
-4,-3,7,2,-2,-13,6,-1
4,9,-2,7,2,-14,0,6
0,17,0,-16,-15,-7,3,-4
0,4,3,3,-10,-9,-1,-4
0,-9,-6,-5,4,-23,-15,-1
12,32,15,10,17,45,76,12
2,12,-7,-8,-1,29,-2,-3
-4,-41,-8,1,-1,-4,9,-1
5,23,4,-2,-12,17,49,-4
-8,-19,-9,-1,4,-38,-32,-3
-2,14,-3,-10,-12,-10,5,0
7,-15,0,-2,-11,13,12,3
-4,-2,-9,3,19,28,-5,-1
-2,16,2,0,-8,-22,-4,-8
-16,-91,-40,-2,16,-13,-7,0
0,18,17,6,-4,-6,-8,5
-3,-2,2,-3,5,-2,-28,-5
-2,-8,-9,-3,-9,26,33,-2
3,29,11,5,-12,-43,-13,-3
-2,36,-4,0,20,16,-4,0
-7,-32,8,-3,-14,-22,-8,-2
-3,-17,-30,-9,-6,3,-4,-1
2,16,15,9,15,-8,6,0
-2,11,3,-6,-6,-7,-1,-4
-1,-14,-11,-2,0,-5,-9,-1
-2,-8,15,0,-15,-20,-14,-5
0,2,-5,-1,-10,2,-20,-4
2,15,4,5,12,-2,5,1
10,6,-10,-7,-3,-6,0,6
-5,-9,6,-4,1,-3,-11,2
0,6,-5,0,-10,-7,13,-2
-1,0,9,2,2,15,-1,-3
-1,-5,-2,-3,-3,-2,-5,-2
-1,16,10,4,3,-38,-6,0
3,13,11,2,6,34,16,5
-2,-11,-4,-4,-18,-37,-12,-4
0,5,-8,2,15,38,14,1
-3,-8,-9,-3,-6,-3,-19,-1
-5,-5,7,-6,0,-24,-7,-4
-4,11,7,-3,-6,30,7,-3
0,-6,-4,0,11,17,-5,3
-4,-10,-7,-4,1,-21,-6,-4
1,11,5,6,5,16,4,-2
-1,-3,5,5,-10,4,5,1
4,1,-7,-7,26,-8,43,3
2,0,0,3,-6,1,2,-2
1,15,7,1,-5,-3,26,2
-2,-30,-19,-7,-4,5,8,-4
4,-3,3,5,-12,-13,3,1
1,-4,2,1,6,9,9,0
2,-10,-4,0,1,-10,4,-3
6,34,20,10,12,20,-8,1
-1,-13,-23,-15,-19,-33,-13,-2
-4,-19,1,-7,1,7,11,1
1,28,4,-1,-19,-10,-57,-3
0,-20,-11,1,13,1,15,-2
-10,11,20,14,-9,-31,-17,-6
-5,-16,-13,-16,-13,6,-10,1
0,24,7,-5,18,54,16,0
-2,3,-23,0,-22,-12,32,0
-4,-38,-3,-4,10,-15,-19,-4
2,20,11,14,16,22,21,12
-4,-5,8,7,-3,-7,-28,-3
-1,5,-10,-6,2,16,17,-1
-7,-14,-12,-14,-24,-12,-20,-7
-3,0,-3,-10,-9,1,-15,-7
-3,-23,-8,-2,4,9,7,0
1,14,8,-7,-3,-24,-49,0
0,-10,-8,3,-13,15,8,3
0,1,10,14,23,27,-7,-2
-1,10,-1,-5,-10,-14,1,-7
-4,-16,-8,-3,7,30,-12,-6
0,-10,7,2,4,-2,5,1
7,14,-14,-3,-16,-20,-4,-1
3,18,6,2,-4,10,16,-2
1,27,25,1,13,-6,8,10
-9,-44,-24,-3,-3,-34,-7,-2
-4,-1,0,5,-7,41,11,-2
0,-11,-19,-2,8,-15,-2,2
0,14,2,-2,-2,-7,1,-2
2,35,10,2,-8,6,-11,0
-1,-12,-2,-4,5,-26,15,-2
-2,-14,-1,-4,-7,-16,6,2
-2,-8,2,0,7,17,-2,-2
3,11,9,7,3,9,-4,0
-3,-1,4,-3,-5,-12,-8,-2
5,7,14,1,-3,7,0,11
-4,-46,-35,-4,0,-12,-16,-6
3,18,9,5,5,5,7,-1
-1,5,7,-4,-7,-12,-8,-2
-4,-13,-3,-4,8,25,2,-3
0,2,3,-4,-20,-26,2,-1
0,11,1,0,15,31,2,2
-2,-5,3,2,-5,-23,3,-1
-10,-22,14,6,6,7,-6,-6
1,21,-11,-13,-17,-26,-14,-3
-1,-7,-7,0,5,17,3,0
-1,-31,7,7,1,-22,-1,0
4,5,-5,-7,-8,-11,11,2
-3,-3,-3,0,1,8,4,-2
-4,12,13,1,-5,-17,-7,5
0,1,-20,-7,-1,1,-51,-2
-2,-8,0,2,-2,-11,-5,-3
-1,-5,0,-2,1,2,5,-2
-3,-6,-9,-7,-9,-37,-21,-7
-2,-1,5,8,4,25,20,-1
-4,-8,-5,-3,6,-23,-1,-6
-4,6,5,-2,-9,-9,-34,-3
2,18,12,1,20,10,14,8
-4,-19,-14,1,-8,-10,0,-1
-2,-3,-6,-2,-2,-2,-5,-6
-1,11,0,-2,-1,1,3,2
3,-3,-3,-5,-10,5,4,-4
-5,-12,6,-4,10,-3,5,0
0,-6,-6,4,5,-9,0,2
1,5,18,10,-2,7,9,4
3,18,-16,-1,-3,-27,-3,5
-1,8,4,-10,-3,18,28,7
4,9,-12,-4,-1,-22,-14,-5
-3,-14,-3,-5,-10,-5,22,-3
-6,-14,-5,0,18,35,-23,-5
0,6,4,5,5,-5,9,-1
-4,-2,-3,-4,-4,1,-4,-1
3,-6,-14,-8,-13,-4,12,1
0,6,9,1,2,1,7,0
-1,3,8,6,14,20,-9,-5
-4,-13,-16,-15,-23,5,1,4
0,-4,4,3,3,-9,-13,-3
-4,-4,3,-3,-7,3,-3,-5
1,9,1,4,6,13,-3,-3
-3,14,7,3,10,-11,-22,-5
0,-8,-3,-2,-6,-11,-1,6
7,-8,-7,3,9,7,1,-3
0,-7,-12,-4,-19,-39,-9,2
4,37,-2,-4,6,32,11,-1
-2,-28,1,-7,-7,-6,-2,-3
-5,14,-1,4,12,-1,33,-1
-1,10,-2,-10,-11,10,-6,0
0,-11,-1,0,-3,1,9,-3
1,-5,3,7,12,-2,-10,-1
0,15,13,-3,-21,-8,16,-3
-2,-25,-16,-2,16,-9,0,-6
-4,-10,-6,2,-15,-8,8,1
4,11,-1,2,24,23,18,5
-2,-8,2,-1,-8,-12,-6,1
1,18,0,0,0,22,8,-2
-2,7,7,4,1,-30,-3,1
2,2,2,-1,-15,-45,-14,-4
-2,-25,-12,-3,3,7,-12,-3
1,13,8,-3,-11,-27,6,-2
-2,-25,-10,-7,8,21,9,6
-4,0,0,2,-5,-5,-2,-2
1,23,8,-5,-1,-13,-13,-2
-5,-26,3,-3,-17,4,12,-4
3,-3,-16,3,3,16,-62,-3
-1,18,10,6,12,5,3,-2
-6,-17,-8,-7,-15,-12,-4,1
1,6,-7,-4,0,13,-3,2
-2,-5,10,3,-10,-47,17,-2
-4,5,-1,0,20,40,2,-3
0,-4,-10,-4,-4,10,0,-1
4,35,-2,-7,-21,-17,-7,0
-2,-70,0,2,11,13,6,-3
5,10,-4,3,4,-5,-2,-1
-9,-12,-8,4,-5,-2,-5,-7
-4,-4,4,-4,16,18,-8,-4
-1,10,-3,-3,-4,-12,4,2
-3,-6,-6,-5,-9,10,-7,-1
4,10,8,5,9,6,0,1
0,0,-4,-10,-5,-10,-6,-1
-1,11,-6,9,7,44,15,1
0,-13,0,4,2,-18,-4,-3
2,9,6,-3,-20,-14,-4,5
1,4,0,5,14,-10,13,1
-2,0,7,-3,-10,-13,-1,-1
-5,-2,-3,-5,-3,0,-2,-3
0,4,-4,1,2,9,5,-4
1,6,-1,2,-6,-1,0,0
0,1,3,-10,2,4,6,7
-1,-1,-8,1,-4,-9,-3,-4
-1,4,-5,1,0,-33,-12,-3
-2,-18,0,-3,5,23,-5,-2
-6,-13,-24,-4,-12,3,-19,-8
-1,-7,2,-4,3,5,27,6
-1,22,11,1,8,-13,1,-4
-6,-29,-11,5,-13,-20,-10,-4
0,11,3,-10,-6,3,-7,-1
1,0,-8,6,1,8,-5,-4
2,-10,-2,-10,1,20,3,5
3,17,9,9,6,-4,-8,-3
2,5,12,3,-2,-9,13,-4
-1,-3,8,-3,-5,30,1,2
4,23,-15,-8,-5,-20,-1,-4
-3,-3,-6,2,14,50,14,2
2,8,5,2,2,29,-8,3
-2,-6,6,0,3,-7,-11,-3
-3,-4,-4,-1,2,9,6,0
0,19,-3,-4,-9,-25,-15,-5
2,-30,-5,5,-15,-31,2,-2
-7,-13,-4,-12,18,21,-2,-1
-6,-18,-1,-5,-12,-26,-25,-6
1,0,2,-1,-6,-3,7,9
-2,16,5,5,-5,2,1,1
4,7,9,2,2,-11,-9,3
-6,-31,-10,-8,-7,-1,-4,-3
-1,-8,-4,-4,4,-25,38,-2
-1,13,3,2,-4,4,-7,-8
-3,-1,14,2,0,-13,7,16
1,-11,-11,-1,-4,23,3,0
1,4,-4,3,8,4,13,3
-8,-12,-9,-9,-1,-13,-8,-5
-4,20,-3,1,-3,-4,0,-10
5,8,21,6,-2,0,15,7
-4,-13,-3,-4,-8,-12,-15,-2
1,-9,-9,-9,-3,-11,-4,-1
-3,3,-10,0,6,-24,-12,-10
-3,8,7,8,6,28,-2,0
3,0,0,-14,-29,-33,-25,4
3,10,10,-4,22,44,40,1
2,10,11,7,-7,-6,5,0
0,-14,-11,-1,0,0,22,-8
-1,-1,4,3,3,-18,-13,-4
-2,1,-4,5,-5,26,-1,-3
-2,-10,-1,-8,-7,26,-3,-3
-1,-2,-4,4,11,0,16,-1
7,12,8,-2,6,14,-7,0
-3,3,-6,-3,-3,-24,-1,1
0,16,9,4,-4,-9,1,-4
-2,-13,-7,2,-2,6,-25,0
-3,17,11,-4,6,-1,12,-7
2,4,-4,2,2,-9,-8,2
-2,-28,-13,-7,-1,-10,-2,-1
-3,1,-2,0,1,-17,-7,-6
4,-24,-4,3,-1,23,-4,1
-2,19,15,-3,-3,-26,2,-1
-2,-9,-13,-1,-8,39,5,2
1,10,8,-3,4,-3,-5,-1
-8,14,-11,-1,1,-14,-64,-17
-6,-13,3,3,-2,-13,9,0
2,8,-4,-4,-9,-18,-10,0
-2,3,-9,-4,0,12,2,-1
-4,-13,-1,7,-1,-12,4,3
2,14,2,1,-5,6,-4,-1
-3,11,2,-2,-4,-9,-21,-5
0,0,9,2,15,-31,9,5
-6,-27,-12,4,2,46,15,1
-3,-16,-12,-6,-7,-11,-22,-14
2,10,4,-7,3,-9,-5,3
3,10,3,0,-17,-4,-3,-2
0,-6,-7,-1,-6,-31,5,2
2,6,9,6,17,25,26,1
-6,-28,-14,-4,-8,-9,-41,-8
-1,12,3,1,-14,-13,-19,-3
-4,-3,-3,-14,-7,8,4,7
1,28,-6,-2,7,-23,12,1
0,-15,0,-3,-5,-10,4,1
-7,-21,-6,-4,-17,10,4,-2
0,-10,20,3,24,54,7,-3
-6,-19,-18,6,-2,-17,-13,0
0,-2,-1,-5,1,-19,1,0
-3,-8,-6,5,4,34,30,-1
2,13,13,-3,-9,-58,-3,2
0,16,16,5,4,38,-1,3
2,-16,-31,-9,-8,4,13,2
-1,11,-2,-3,7,-10,-8,-6
-4,-39,-20,-3,-12,-8,1,3
4,8,15,13,7,-15,4,2
0,20,3,-1,12,39,30,-1
1,3,11,-2,3,2,-4,1
-3,20,5,5,3,-1,1,-2
-6,-40,-13,-4,-11,-17,-16,-1
-1,-4,5,1,-17,1,10,-4
2,6,-5,-3,-3,14,-8,7
-1,6,4,-2,15,12,-8,-4
3,-12,3,-7,-13,-9,37,1
-1,12,8,5,-2,-6,-23,-5
0,-9,-11,-1,6,-5,-3,-1
4,24,9,7,-2,26,-8,-3
-6,-28,-10,-10,-2,0,-11,-2
0,3,-1,0,8,4,2,-1
2,-4,9,2,-13,5,-6,-5
-3,-10,-11,0,2,-10,7,4
-1,3,3,4,2,-6,-24,-1
-3,8,21,-2,9,-9,6,-3
-3,-11,-29,-15,-17,4,-4,-2
2,-1,-3,0,2,-2,15,2
-1,5,6,1,0,16,-20,-4
-4,-20,-5,8,-12,-15,0,1
-4,20,16,1,20,1,-1,1
-5,-1,-12,-2,-5,-2,-5,-7
-7,-22,-9,-3,-2,-33,-65,-8
2,2,-6,-1,-14,-7,-1,-1
-1,3,7,-10,-3,-5,6,-2
-2,-13,-19,-8,-10,-9,-10,-5
0,11,12,2,7,7,12,2
-2,8,-7,0,3,5,7,-5
-4,-19,-1,-1,-6,-18,-13,1
1,3,-1,6,6,-6,-2,-4
2,10,-1,-4,-3,36,26,3
5,-4,-18,-4,-13,-27,-10,-1
3,8,7,5,14,38,37,4
-1,20,12,4,-5,15,3,-1
2,-11,-10,-2,12,-8,1,-1
-1,-6,-2,-8,-9,-10,0,3
2,10,3,-1,-16,-13,-13,-4
2,7,4,2,7,-7,1,5
-2,-5,-16,2,-5,8,20,3
-6,6,-7,-16,5,1,-51,-9
-1,-10,-6,-3,-11,-19,-6,-2
-4,-6,5,-3,-2,-5,10,-7
4,25,-9,-7,-7,0,1,4
0,4,8,5,9,-10,21,3
-2,-19,-2,-1,10,32,8,-5
0,19,3,-3,-7,-19,-36,0
-2,-10,18,5,-2,-14,12,6
-2,-11,-16,-7,8,-6,5,-2
-2,1,1,2,-15,-7,-17,1
-1,3,-5,-4,-17,2,5,1
1,-12,4,-1,38,17,-9,-3
1,12,7,16,3,4,19,0
-5,-12,-4,-4,-6,-24,-3,-2
-1,3,4,-1,-8,11,13,0
2,8,-3,-8,-19,25,58,4
-1,-4,3,5,23,7,-1,2
0,3,-7,5,10,6,-6,0
-4,-17,1,0,-1,-5,31,-3
-4,-1,-5,-6,-19,-35,-14,-9
-2,-8,8,0,-1,26,5,1
6,13,-15,-1,-7,-12,6,9
-4,14,-4,-3,1,-7,-2,-1
-5,-44,3,0,-3,-9,-10,2
-1,-3,0,-1,-5,-11,1,-11
-5,16,5,6,9,-9,-11,0
-1,-26,-13,1,9,0,-10,1
3,22,1,-1,-4,-7,-11,-4
0,4,0,-7,1,29,-4,1
1,10,16,2,-20,-24,-3,-4
-3,1,-7,2,38,13,-1,-3
-4,-17,-16,-1,-6,-1,20,-2
0,3,-16,-8,-16,-29,1,3
-2,-9,0,-6,6,47,3,1
0,9,11,-2,-9,-32,-20,-3
3,11,-2,6,6,2,24,0
-1,5,-2,-3,-8,-10,-61,-5
-6,-18,-16,0,-6,5,0,-3
1,-3,-2,-9,2,0,-4,3
2,39,12,1,-1,3,-19,3
0,-24,-2,2,-10,3,26,2
-8,-29,-8,2,5,-13,-3,-2
2,1,-13,2,-5,10,-4,4
-5,-2,0,-8,-11,4,-18,-11
0,11,5,-2,7,20,14,3
2,-2,4,-2,11,-8,-4,9
-4,21,7,8,-12,-25,11,-6
-1,-33,3,-2,-2,22,-19,-6
-7,-22,-9,0,10,-4,5,-6
-4,-11,5,-8,3,-23,-3,-10
1,-3,-14,0,-7,16,-6,1
-2,4,-3,0,-4,-17,-6,2
0,3,1,-5,-8,0,-9,-4
-3,1,3,-5,2,-7,7,-2
-3,-3,12,3,-3,4,32,1
-7,-57,-28,-9,-2,3,-36,-4
3,6,-5,8,15,-7,6,1
-3,12,1,3,-10,3,-14,-13
4,14,14,-4,12,22,16,3
0,14,-1,4,7,-3,-7,7
-3,-3,10,2,-16,-24,-15,-2
0,-14,-5,-9,-3,13,0,-3
-3,1,-5,-2,-5,-16,-18,-8
2,26,3,-2,4,40,-6,-3
0,4,-3,3,-15,-18,-1,0
3,4,9,5,25,28,6,4
-4,-3,6,0,-10,-19,-14,-4
-1,2,-10,-2,-4,-4,17,-3
2,-11,7,3,2,11,9,1
-2,-2,-1,0,-8,-30,-50,-5
2,-13,-6,-4,-2,10,4,2
-5,-8,12,7,5,-17,4,-5
-3,3,-12,-6,-4,-2,-8,-4
2,19,-1,-1,4,18,10,2
0,-20,7,0,-7,-17,24,4
1,17,-3,1,13,-2,-34,-4
-2,2,6,6,-7,-3,13,4
-4,20,2,-2,7,3,2,-4
-3,-27,-17,-8,-13,-9,-14,-5
-1,-6,-11,-10,-14,2,10,6
1,19,8,2,4,-2,0,9
-4,-18,1,1,3,1,2,-1
2,-5,-6,2,3,8,-19,-3
-3,-1,3,1,-4,-39,2,-1
0,9,-2,-8,-16,33,3,-5
1,29,0,-2,3,17,-46,1
-2,-38,-3,1,12,11,0,-4
0,-4,-5,-1,-17,-12,16,2
-1,-8,-4,1,16,0,0,-1
4,8,-1,5,-14,-22,10,0
-2,13,1,-10,-2,32,8,5
-7,-1,10,-4,-10,-9,-6,-6
-4,-18,-19,-2,3,5,-3,1
3,-14,5,0,5,1,22,1
0,3,-7,7,13,-13,-6,-2
3,7,9,-5,2,-3,4,0
-2,10,13,2,-3,-2,1,-1
-1,-15,-9,7,-9,-16,-2,1
-3,-2,-2,-7,2,12,1,-4
3,3,0,0,1,-1,3,2
-2,-7,-5,-9,-4,5,1,-3
0,-5,-8,-5,2,-9,13,-1
2,24,17,7,-9,-18,-14,4
4,13,-19,1,-3,2,19,0
0,-11,-2,0,10,-28,5,0
-2,-6,-5,-6,-5,-1,-6,0
-6,1,-3,-3,-10,8,0,-3
0,7,6,2,-1,-15,-13,1
-2,-2,13,5,1,3,10,-5
-6,-13,-14,-1,-4,5,14,-5
4,5,0,-1,-2,3,-8,13
1,10,4,4,3,-18,-9,-1
1,12,-5,-1,-11,11,1,-3
1,-21,7,-3,4,-17,-6,-1
1,14,-4,1,-5,-11,-4,-6
-6,-9,-3,0,-1,-2,-4,-2
2,1,2,4,11,17,-8,0
0,17,3,-7,-7,16,12,-3
-2,-15,-10,-9,-6,-1,-7,-5
0,5,14,7,12,-4,0,5
-2,-33,-18,-7,-12,-20,-20,-2
0,7,9,0,9,27,15,-1
2,7,-11,2,0,-11,6,-2
-6,0,2,-4,-9,-9,2,-4
-3,-12,6,5,5,4,-20,-1
4,-3,-13,-2,-10,-2,38,3
-3,-3,0,-5,-7,-24,-18,-3
2,10,5,1,19,42,16,-2
1,-16,-6,2,-1,-1,-4,0
-4,6,-1,-1,-5,-40,-24,-1
-4,-3,7,5,3,-11,2,-2
-2,-11,-5,-4,7,5,2,-1
-2,15,6,-10,-5,-1,5,-1
