-4,-4,-4,-1,0,-4,0,-2
-2,2,-1,-3,9,1,0,1
-2,0,-3,-2,-10,-6,3,-1
1,-2,0,-3,-3,0,0,-1
-1,-2,0,0,-3,3,-2,-2
0,3,0,1,-3,-3,0,-10
-1,-1,0,-2,-4,0,-1,7
-1,-3,-3,-2,1,-1,-1,2
-2,-2,1,1,3,0,-1,-1
-2,-2,2,-1,-4,-6,-2,-4
1,0,-1,-2,-4,2,-1,-3
-3,0,-3,-9,-5,0,0,1
0,-1,1,2,-4,-6,-3,0
-2,-3,-3,-2,2,-1,1,2
0,-2,0,4,2,-2,2,-3
-2,-1,1,3,-1,-1,-3,0
-3,-1,-2,-11,2,1,-3,-5
1,3,-3,3,-6,-4,-3,0
0,0,-2,-5,1,-5,-8,-1
1,0,0,3,2,-2,4,-1
-2,-3,-2,1,-2,-2,-4,0
-1,-3,-4,-3,-1,6,1,1
1,0,1,1,-8,-9,-3,-1
2,2,1,0,0,-1,-2,2
-2,-2,-1,-2,-2,0,-1,-5
0,-1,-1,0,9,-2,-3,4
-3,-4,-4,-5,-6,-3,6,-5
0,0,-2,1,0,-4,-3,-1
-1,4,-1,2,0,0,0,-2
-2,-5,1,-2,-9,-1,3,0
-1,4,0,0,3,-2,-12,0
-3,-5,-2,0,5,2,7,-3
-1,-2,-3,0,-6,-1,0,-1
-2,-3,-1,-2,-3,-3,-1,-1
-2,0,0,-1,5,6,2,-1
-1,1,2,1,-6,-6,-3,-4
-1,-5,-2,-3,4,-2,-4,1
-1,0,-2,0,5,0,2,3
0,-1,-2,0,-4,2,1,-1
-2,-2,-3,-5,-2,-5,-3,1
0,-1,-1,4,-8,8,4,1
-2,1,-1,-3,10,-1,-3,-5
-3,-2,-3,3,-1,-1,0,-4
0,-3,-2,1,1,8,-2,-1
1,-1,-2,-3,4,-5,-1,-2
-2,-2,-2,-1,-11,-1,0,0
-2,-4,0,-1,0,-3,-2,-3
1,-1,1,2,2,2,-1,-2
-2,-1,-1,-6,-2,0,3,-2
-1,-1,1,1,-3,-1,-3,-2
0,-1,-1,-4,-1,3,3,1
-2,1,0,-1,1,-6,-7,-5
0,-2,-1,-1,-3,0,0,2
1,2,-1,-3,-3,-1,-2,0
-1,-5,-4,3,2,-1,2,2
-1,0,0,0,-2,5,-5,-3
-1,-1,-1,-2,-1,-2,2,1
-1,-1,0,2,-2,1,0,0
0,4,-1,-6,4,-2,-4,-4
-1,-2,-2,2,-5,-1,-3,-10
-17,-9,-1,-1,1,-5,0,8
16,-1,1,-1,-2,-2,3,10
-1,3,0,1,-3,1,-3,-1
-3,0,-3,-5,-1,-4,0,-6
-2,6,5,1,2,-1,0,-6
-3,-4,-8,1,-4,-2,1,0
-4,-1,0,1,-1,4,3,1
0,-3,-3,-7,-7,-5,0,4
2,0,-1,-1,3,1,-3,-3
-1,0,1,-1,2,-1,-7,-2
1,-2,-1,4,-13,-3,-19,-8
-3,-1,0,-6,4,8,20,3
5,-5,-4,1,-1,-5,-5,0
-1,-1,1,0,-3,-2,1,-5
-4,-6,-3,0,5,-6,-5,0
0,0,0,2,-3,-3,-6,0
2,1,-2,1,-2,-4,-1,2
-4,0,-2,-7,-1,0,12,-7
-2,-3,0,-2,-2,0,3,6
1,3,1,1,1,-4,-7,-1
2,-8,-5,-3,-1,-5,1,2
-9,-1,-2,1,-2,-3,-7,-5
1,-1,-1,-2,0,2,8,-1
-1,-1,-1,-1,-1,-4,-2,1
0,1,-3,1,-1,-6,-5,-4
0,1,-1,1,1,6,-5,2
-2,-5,1,3,2,-5,1,-1
-4,-3,0,7,2,-5,-4,-1
-2,1,-6,-22,1,0,-4,-4
-1,-1,-2,-1,-3,-6,-2,1
2,0,-1,3,0,5,2,0
-1,-2,-1,3,-4,0,3,-1
1,-2,1,6,3,-3,-5,-1
-3,-1,-2,-4,-14,3,0,-1
-2,-1,-1,-4,11,-4,-6,-4
1,0,-2,-1,-6,-3,0,2
-2,2,-1,-3,-3,2,0,-2
-4,0,1,1,8,0,-2,0
-2,-3,-1,1,-3,-2,2,-3
-2,-4,-4,-6,-4,-3,-4,0
1,-1,0,4,4,1,3,-3
-4,-4,-2,0,-4,-5,-7,-6
-1,0,-3,-4,-7,-3,5,3
-1,-3,-2,-1,5,-2,-1,-1
-2,0,0,1,-6,3,-2,1
1,-2,1,-4,1,-3,5,2
1,-3,1,-1,-1,0,0,3
-2,3,-2,0,0,-1,-5,-1
2,-4,-2,1,-2,-2,5,0
-1,5,2,3,3,0,1,-2
-1,-2,-1,-5,1,3,-3,-6
1,1,-4,0,-3,-2,-3,3
-3,-2,3,2,0,1,-1,-4
-1,-3,-5,-8,1,-5,0,-3
1,-3,-1,-1,-3,3,2,-2
0,1,3,8,-1,-2,1,0
-2,2,-1,-13,-8,2,3,2
-1,0,3,3,12,1,-4,-3
-2,-2,-1,-1,-5,3,-3,-2
-1,-6,-2,-2,-3,-4,-6,-3
-1,0,-2,4,-4,-6,1,0
-2,-2,-3,0,-3,0,-1,0
-1,3,-3,-1,2,-6,-1,1
0,0,-1,-7,-2,1,-5,-1
-2,0,1,3,7,-1,-5,-3
-2,-3,-3,-2,-7,0,1,0
0,-1,-1,1,0,-4,-2,0
-1,-3,-4,-2,-3,-1,-1,-3
-1,-3,1,4,0,1,-3,-2
-1,-5,-3,-3,-1,-3,-1,0
-3,4,2,0,-5,0,-1,-7
2,-3,-2,-4,-1,-2,2,9
2,3,-2,0,-2,-3,-3,-1
-1,-6,-1,-4,1,1,-2,-2
-3,-8,-6,-4,-2,-2,-1,-2
-2,-2,-1,0,2,-2,-1,-8
0,3,2,2,0,7,0,2
1,5,3,5,0,0,-1,2
-2,1,0,-4,-1,-1,-2,-3
-2,-2,-1,-2,0,-3,-3,-1
0,0,-4,0,-3,0,9,2
1,-1,0,0,-10,-4,-5,-3
0,1,-3,2,20,7,-1,2
-2,0,-1,-1,-11,-5,3,-2
-1,-1,-2,-2,-9,-2,-7,-2
-1,-1,-1,2,10,3,1,-1
-1,-1,-1,-5,-9,-9,1,0
-1,0,0,2,6,1,0,-4
-3,-3,-5,-2,-5,-3,-5,-4
0,2,-4,-4,-4,-1,1,-4
-2,3,-1,-1,-5,-3,2,6
0,-4,1,1,8,7,-4,-3
-3,-2,-1,-2,-1,-8,-2,-3
-2,0,0,0,-3,-1,-2,-3
-2,-1,-4,-1,-2,-3,-4,-2
-1,0,-2,-12,-5,5,6,1
1,2,-1,0,3,-1,1,1
-1,1,-1,0,1,-2,0,0
0,-6,-1,0,-5,-3,-2,-1
-2,-1,0,1,0,-5,-1,-1
0,-1,1,2,-1,-5,-2,-2
-2,-3,-4,-10,-11,-4,1,1
0,1,1,0,6,3,-2,2
-2,-1,-2,-2,-2,-2,-2,-4
0,-2,-2,0,1,3,1,0
0,-2,0,5,-2,-6,-2,0
-1,2,0,0,-2,-5,1,-4
0,0,-1,0,2,2,-1,0
-1,0,-2,0,-8,-6,-4,-2
-1,-1,1,1,9,7,0,-1
1,-2,-2,-3,-3,-2,4,-2
0,2,1,0,5,-3,-2,-4
-3,-2,-1,0,-8,4,-2,0
0,-2,-3,-5,0,-4,-4,1
-1,-3,-2,0,1,2,0,-4
0,-1,0,-2,-4,-1,0,2
-1,-1,1,-2,8,0,1,0
-3,0,0,3,-2,2,-2,-3
0,1,-1,0,-2,-2,-2,-2
1,0,-2,1,2,-8,-3,-1
2,1,-4,-10,-13,-1,-3,-2
-3,1,-2,-3,9,3,1,-3
0,-2,0,3,-5,-2,-2,1
-3,-6,-6,-6,7,-2,0,1
-3,-2,0,4,4,-9,-5,-4
0,-1,0,1,-7,-1,-3,-2
2,3,0,-1,1,3,1,5
-3,-1,0,2,-4,-2,-2,-1
-1,-1,0,-1,-3,2,0,-6
-1,-4,-3,-2,0,-11,0,7
0,-2,-3,-2,-5,-3,-3,-3
1,1,0,-1,-4,2,2,0
-1,-3,-2,-3,5,-2,-1,-2
-3,1,2,0,-6,1,-1,-4
-2,-1,0,-1,0,3,-3,-1
0,0,-1,-2,-7,-1,0,-2
-3,-1,1,-1,4,-5,1,2
-2,-3,-2,-1,-4,2,2,0
0,2,0,1,0,-3,-5,1
-2,2,-5,0,-2,-2,3,0
0,-8,0,-1,0,-3,-3,1
0,-1,-1,-1,-2,-1,-3,1
-3,-4,-2,-5,-3,-3,-2,-2
0,2,0,-1,-4,-1,-2,1
1,5,2,5,5,7,4,3
-3,5,0,-1,-4,-9,-3,-2
-12,-9,-2,3,3,10,-1,-3
14,-6,-5,-2,0,-4,-4,0
1,6,-7,-1,-2,6,6,0
0,1,-8,-3,-2,1,0,-1
1,-5,-1,-6,-3,-6,-3,2
-9,-11,2,-4,-4,-5,-3,-12
0,4,5,2,2,-4,0,-6
-2,-1,2,1,-3,4,4,-3
3,3,-4,-4,-12,-4,0,0
1,6,1,7,18,7,-1,6
1,-7,-3,-10,-1,-6,-4,3
-2,2,0,-3,-7,2,-1,0
2,-1,2,5,2,1,0,-1
-7,-6,-3,-4,-13,-6,2,4
-5,3,3,8,8,0,-7,-4
3,-8,-5,-7,-4,0,4,1
-1,-7,-10,-7,-3,-6,-10,-8
4,12,7,6,1,5,-1,4
-3,-6,-7,-3,2,-1,1,0
-5,-5,2,0,-3,-2,-1,-5
1,1,3,-1,-2,-6,4,2
-4,-2,-4,-6,-4,-7,-1,-4
1,-2,0,-1,-2,3,-2,0
3,0,3,6,5,0,-9,-2
-2,4,0,4,3,-9,33,4
-2,-3,-2,-5,-3,6,-7,-1
-2,-1,-2,-6,-8,-5,-2,-3
4,7,2,3,2,3,2,1
-5,-16,-4,-3,3,-6,-11,-8
-1,-3,-4,0,-1,-2,2,0
1,2,4,3,-3,3,5,2
0,-5,-7,-8,0,-7,-9,-3
-17,28,16,8,3,10,0,-12
32,-16,-20,-6,-4,-1,1,20
-10,-9,-5,-7,-6,-22,-7,-1
-2,23,9,4,19,30,2,-4
1,0,-6,0,3,21,1,-5
-6,-3,5,1,-5,0,-1,-2
0,28,18,1,-3,-10,0,1
-6,-31,-16,-7,-7,-3,-1,-1
5,-5,-5,8,11,-8,6,6
-7,3,9,3,-1,4,-6,-6
6,-6,-2,-1,1,7,1,3
-7,-5,-5,-7,-7,-17,-17,-3
1,8,-3,0,-4,-5,5,-2
-1,19,26,16,12,2,2,-3
-9,15,17,0,-9,-34,-10,-15
-4,-70,-34,-6,-6,15,-7,9
0,5,-19,-24,-16,3,-18,1
-16,12,-18,2,0,-19,2,-8
11,18,-22,-8,-9,-23,-10,-8
3,-12,75,5,-3,30,13,-3
-8,-31,-91,-16,-11,-27,-21,-3
-8,6,-33,-19,-5,14,-8,-10
-13,-98,-32,-1,1,-9,-8,3
-2,64,-8,-9,-11,-55,5,-3
10,38,39,12,10,6,18,10
-3,73,70,13,-14,-39,-66,-12
3,-28,-69,2,1,40,24,6
9,43,12,-7,25,-6,25,1
-8,-11,31,5,-11,15,-23,-3
1,58,16,-4,-6,-29,33,0
-5,-91,-49,1,2,32,25,-7
-3,-13,-12,5,-6,-16,11,10
5,-23,13,1,-7,-50,-58,-2
6,-9,-48,-26,-6,40,59,3
-19,126,105,3,11,-46,-56,-14
-16,-59,-100,4,14,22,6,-5
-6,-90,-78,-22,-24,-28,-35,-12
2,-12,17,9,-11,-40,23,10
24,119,11,15,27,72,19,17
-7,10,-6,-17,-4,-60,-4,-15
6,41,33,10,27,21,7,3
-12,-23,-11,-5,-20,27,29,2
19,55,12,-5,-2,-25,-23,2
24,1,-15,15,9,63,67,16
8,8,10,14,1,4,-11,-7
-4,113,2,-17,-14,-43,-89,-16
-8,42,5,-5,-12,-1,35,-4
3,55,54,7,-10,-25,5,9
11,12,20,-11,-27,-24,40,7
9,-43,22,24,20,68,6,-3
-10,-117,-11,5,-17,-90,-2,-5
-11,80,10,-34,-44,-47,-1,-15
9,-58,-7,20,84,38,102,24
-8,-10,9,3,-3,-14,81,15
4,-91,-51,-13,-4,17,-9,-3
-7,22,29,15,-34,-17,40,8
10,62,40,1,9,51,-1,14
25,75,53,7,60,12,58,5
-15,-92,-51,20,51,49,9,33
1,76,43,-9,-17,-59,-71,-24
5,2,0,5,-1,70,42,13
-6,65,-2,-4,-24,-37,-75,-12
4,39,25,-9,-21,-9,12,-1
-12,-95,-4,17,1,-20,-26,-24
-19,21,-8,-18,56,79,58,21
19,-38,-52,8,9,-44,-37,23
-12,37,-9,-1,-34,-47,-66,-26
-11,13,2,-4,34,0,-32,7
1,-73,3,-20,-88,-128,0,-1
-1,-17,29,5,31,124,-27,-7
18,127,33,-9,-6,-72,33,1
-16,-116,-69,-1,16,9,-61,-6
-1,-28,11,12,-51,-23,-6,-11
-14,-14,-3,-34,16,0,-33,-14
7,23,22,12,40,-38,-14,-2
20,55,-4,-14,-29,28,5,-3
-1,81,39,12,5,10,90,-5
-9,-128,-48,-16,-78,-81,-34,1
5,49,3,-4,44,108,104,15
13,-45,-39,6,38,-34,45,12
5,114,21,5,-17,-9,-98,-13
-18,-115,-85,-28,-41,-72,12,-21
18,114,103,9,12,25,-18,-7
-32,-80,-75,6,3,-50,-9,-17
-13,93,-5,-1,1,-42,-26,26
6,57,27,-4,-8,50,72,17
2,-47,-13,9,7,18,-8,4
10,14,79,7,13,11,-35,8
-10,-48,-28,-16,-29,-2,-57,-31
-9,-49,-39,16,60,5,-22,-8
4,-14,-14,-26,-64,-65,5,18
-2,95,30,-1,9,127,9,-12
-16,-78,-42,2,9,-19,2,-6
12,0,-39,-28,-13,0,6,-3
-7,-45,-4,16,15,60,21,-4
12,12,-9,4,-28,-35,-27,0
-3,23,-6,-24,-2,47,29,9
-8,-52,12,15,36,-25,-15,-7
-26,-10,-32,-13,-32,-32,-41,-13
17,-51,-24,-13,-13,-11,-45,4
18,45,32,19,47,42,20,-3
-7,49,80,33,31,50,45,3
-5,25,-17,-16,-18,-12,-33,0
-5,6,19,-2,-2,-31,-28,-13
-3,-99,-4,7,9,-53,-31,-19
-5,26,-76,-25,-50,-3,-33,-4
7,29,44,17,41,-89,-36,3
5,39,13,8,-2,32,32,27
2,-17,-33,-19,-11,-16,-26,-5
-3,38,42,9,5,10,39,6
1,-68,7,0,-26,9,25,-8
-21,-68,-57,-12,-53,-107,-20,-18
-3,17,-16,-19,23,-14,9,9
10,102,40,33,70,45,27,12
-17,-14,-11,-10,-19,-8,-14,-17
-2,-28,13,8,3,28,25,12
4,41,58,5,-34,-36,32,17
9,-28,-73,-9,-3,-10,-12,-10
-14,15,-58,-6,6,21,43,-2
10,-25,-4,6,17,-24,-1,-1
-14,-17,-11,7,-9,-36,-47,-20
-4,-6,47,0,0,47,33,25
-6,-43,6,-14,-23,-22,-10,-15
6,13,6,9,30,110,-24,16
0,32,16,-2,-11,-74,-23,-10
-3,-99,-11,13,-51,-61,-67,-8
8,53,-20,-21,37,50,71,6
-8,-43,13,0,1,-38,-17,-1
-2,52,13,7,10,41,42,14
-2,24,-2,-4,-45,-67,-79,-17
-2,-1,-16,-11,3,75,-14,3
9,81,45,5,21,76,40,-9
1,-20,-75,-16,-36,-74,-61,2
-9,-29,7,0,21,67,13,-6
14,17,40,28,-10,43,26,17
-11,-38,-30,-8,30,-44,-24,-6
2,29,26,6,20,59,-35,-10
26,63,3,-20,-27,-42,38,5
18,-1,-18,-5,-6,16,-13,9
-5,29,19,5,-13,-28,3,-4
-3,-32,1,17,-19,-24,-9,-18
-3,20,14,-12,48,77,27,18
-13,-74,-3,17,34,79,-3,-12
-1,-7,13,-5,-36,-43,42,9
-7,-37,-18,-16,-11,-53,7,-10
-1,61,33,14,5,-43,40,3
6,-42,5,2,-30,-95,4,-8
2,76,19,4,5,17,66,10
0,21,13,2,24,18,-6,-12
-7,-41,-27,-9,-62,-18,-30,-8
-1,43,25,-13,7,10,-45,-20
-15,-87,-97,-35,-50,-97,-27,-1
3,-15,-18,-3,8,70,45,1
23,98,79,25,67,30,-2,-2
-40,-83,-70,-1,-19,-49,-4,-7
2,121,29,-13,-3,12,-33,-7
14,38,6,2,0,32,-19,3
-17,-16,-21,-11,-14,-60,0,-16
6,37,44,14,15,2,-40,0
7,-11,-30,-2,23,-40,40,6
-8,30,27,8,24,26,9,11
8,-1,7,8,-19,-55,28,-2
-11,-24,-31,-24,-22,-78,8,-13
0,28,2,9,-26,54,12,12
-3,-4,12,-4,48,50,-14,-9
-7,7,20,12,-7,7,-19,-4
-2,-4,0,-17,-30,-61,-37,-5
5,-6,-15,-2,31,55,37,-2
-2,-49,-16,4,-12,-21,-23,14
-17,-40,-27,1,2,9,-36,-5
13,-38,-9,-3,-35,-40,-35,-5
2,44,46,-11,10,57,17,-7
-4,-2,-16,-7,0,-32,-9,-11
-11,-55,-32,-4,-2,-46,25,3
11,58,-9,12,12,-31,30,3
-1,43,51,4,19,-17,-10,-2
-9,-59,-29,-3,-15,-19,27,-2
23,47,8,0,2,17,-70,-3
-30,-10,-11,-10,-3,15,13,-7
-6,-43,-46,-4,-17,-16,-38,-4
-5,47,13,3,6,25,30,12
-2,36,33,-1,-10,-37,-18,-2
9,19,-9,3,-4,28,-39,-6
7,26,-1,-13,-16,-53,-75,-13
-8,-48,-11,-3,-12,7,-15,-4
-7,-23,-29,-11,1,56,43,-2
8,5,29,16,63,77,6,32
-5,-2,-13,17,-42,-35,-43,-18
9,51,14,-16,-14,5,-1,-8
-11,-37,-19,-21,-37,-31,-39,-10
0,-1,-14,1,41,27,-10,6
6,20,20,16,41,53,15,-7
-15,-47,13,9,-10,-52,13,-1
-2,-31,-57,-5,-4,33,-33,2
4,111,17,2,1,-10,53,11
-16,-54,-18,-8,10,-22,3,-3
6,-22,-16,7,-2,-14,-11,-17
-16,-50,-6,-5,-19,-27,-23,-5
0,10,13,-7,23,-37,-21,1
2,22,28,17,17,1,27,9
-1,18,2,-18,-17,25,-33,-1
-2,7,-1,-6,-10,-4,23,-1
0,-86,-1,7,-18,-30,21,2
5,24,32,8,19,29,28,5
1,33,5,9,-4,29,-19,3
-4,-25,10,-3,22,-21,13,7
-4,-28,-17,0,-9,-18,-24,-3
0,-38,-10,-2,-3,5,3,-3
0,9,17,-2,-16,-9,5,1
9,76,10,-2,14,34,0,5
-8,-81,-35,-12,-35,-46,-24,-7
0,-2,7,1,-2,51,33,8
3,17,-17,3,46,-2,-8,14
8,-6,11,15,8,-57,48,-3
3,61,29,-10,-21,43,-57,-19
-1,4,-13,-12,-40,-28,19,2
-2,-33,-15,1,21,-8,27,12
0,-24,-8,-12,3,5,10,0
0,8,-13,-5,-10,42,6,-3
15,-13,-8,12,21,2,8,9
11,46,-2,-7,-8,21,-1,-6
-11,32,26,7,6,-6,-22,-4
-11,-57,-15,2,-12,-15,6,-10
3,14,0,-24,-20,-23,34,10
-1,6,11,1,19,65,34,-8
3,23,1,17,43,-26,-2,3
8,30,20,5,-21,59,46,17
-7,14,5,6,-8,8,-12,-10
-5,2,13,-9,4,-34,-11,-15
1,-6,-37,-24,-33,-27,-17,5
-2,24,14,-3,6,37,21,3
2,-15,-13,2,-5,-61,-27,-3
1,-23,-18,-3,-16,-12,8,6
-1,16,22,7,-12,-15,-14,-6
6,51,18,9,23,-54,-35,-10
-9,-52,-11,-12,8,9,-4,-2
6,50,32,1,-27,-40,-5,8
-5,-60,-28,-7,18,3,-4,2
0,39,14,2,-22,-18,-13,6
-9,-41,6,9,8,53,15,-9
-6,-15,-7,-10,-5,-53,-26,-12
-3,-17,17,2,8,21,7,0
15,45,17,-4,10,-2,33,20
-12,1,-15,-12,-33,-53,-52,-11
-1,-25,0,15,47,65,-7,-3
3,17,-20,-2,-6,7,24,2
1,-9,9,12,3,6,-13,-11
-3,32,21,9,15,-14,-6,16
6,-13,-25,-24,-65,-38,7,9
-3,2,-5,-7,54,84,-10,-4
15,20,4,8,15,-18,19,1
-3,-19,-16,7,-7,-23,-19,1
-6,33,8,11,-10,68,5,-14
-6,-10,18,1,20,-1,0,-2
6,68,20,8,3,29,42,12
7,-37,-48,-28,-28,-17,-1,1
-10,-39,0,1,24,-6,10,-4
-6,-34,-19,-3,-30,-27,-5,-5
-2,11,20,4,3,22,46,-4
7,46,26,2,25,13,-21,-5
-4,3,-5,3,-32,-41,-12,-7
1,1,4,-14,-1,10,35,12
-7,-24,-37,-20,-12,22,30,1
-1,-4,23,15,34,46,-11,-4
-4,-40,-36,-1,-7,-16,0,0
-1,30,35,8,-41,-20,2,-23
-15,-46,-28,-6,-3,-50,-79,14
9,43,5,-9,13,15,55,5
13,-7,-17,3,-12,-9,9,12
2,-19,18,12,47,86,2,3
-8,-31,-8,3,-21,-40,-25,-7
-2,-5,-15,-11,-11,-3,13,-11
-2,34,27,-5,-6,-29,-22,-10
3,83,-19,-7,12,72,11,8
-31,-123,-33,-11,-19,-60,-17,-17
-2,40,-19,13,8,22,-40,5
-3,-62,4,-6,-4,-6,13,-2
-1,19,-8,-16,-36,-46,-17,-11
7,31,22,-5,-1,11,-38,-4
1,1,-3,2,13,5,17,10
-10,-2,3,9,6,-9,-2,-4
8,8,-25,12,-20,-15,-57,0
0,-11,-11,-15,10,-26,43,-4
-6,-18,7,1,-11,0,6,-14
8,37,13,8,27,5,6,5
-9,-16,0,-5,-28,-40,23,0
2,1,7,-3,7,52,-11,-8
6,-5,-36,-20,-62,-28,0,6
-1,30,15,20,56,11,17,13
16,-10,20,-4,-24,-27,-24,-6
-14,-38,-20,-12,-13,-16,-22,-5
2,45,24,8,-12,22,65,0
-19,-58,-41,-15,-13,-6,-19,-10
0,-14,25,15,24,-8,34,1
10,5,-12,1,-7,-28,-12,2
-11,-74,-33,-7,11,-3,-4,9
-2,29,11,-8,2,14,3,-4
-4,7,-1,-1,-13,-22,6,-2
-2,4,-8,2,22,45,15,-8
-4,-23,8,12,9,-18,-22,-6
2,-11,2,-8,-19,4,46,10
-4,-11,-1,-1,-9,8,-30,-9
2,26,1,3,8,0,-7,-1
-2,22,13,1,13,-4,-32,-1
-1,-13,1,-3,-11,20,-19,-3
-3,-16,-17,-8,-10,-2,-21,6
-1,12,11,0,3,34,16,-1
-3,10,21,4,21,-55,-37,-7
-1,-22,-55,-19,-16,0,-7,0
-4,26,-3,1,5,-32,14,-1
-2,12,7,3,-6,23,18,2
-7,16,10,10,-21,-27,-80,-17
4,34,29,-4,8,-16,-29,0
-5,-43,-34,-7,2,38,36,10
-3,-24,-7,-3,-19,27,-3,-1
0,36,25,-1,34,37,10,-15
0,24,8,8,-21,-56,1,0
4,-41,-12,0,0,2,10,1
-10,38,30,9,20,19,14,-1
0,-61,-50,-12,-18,0,3,4
10,46,4,-3,3,10,13,0
-13,-36,-14,-12,-7,1,6,-6
8,22,4,0,-14,-38,1,4
-5,-2,4,-11,15,42,20,2
-3,9,15,0,23,-12,-3,-2
-4,-16,-23,4,-29,-44,3,-3
0,-23,-1,-11,19,23,-8,-3
2,27,-2,17,49,58,13,2
1,81,25,-7,0,30,3,4
-25,-62,-29,-3,4,-4,-14,-14
-1,-84,-27,23,-10,10,1,-1
-2,65,47,-20,-34,-34,16,3
16,-67,-39,-10,-1,1,-16,2
4,21,5,-1,12,-6,9,-3
1,92,44,6,-19,-13,-46,2
8,6,-20,14,28,39,62,3
-17,41,6,6,-7,7,-29,-2
1,-48,4,-7,-26,-33,17,2
2,-19,-20,-12,10,-16,-3,-7
-1,25,19,-6,2,12,-13,-10
3,-2,1,4,-33,-32,-33,4
6,23,11,3,-39,-42,7,6
-10,39,-1,25,103,69,6,0
2,-105,-25,-29,-66,-47,10,6
2,20,-7,-3,14,-3,-15,-1
-9,-9,11,5,-9,82,46,-4
10,-16,-19,-27,-16,-42,8,17
0,19,11,-4,-26,-45,-75,-4
8,-58,-35,11,30,9,13,10
15,103,37,28,17,18,-6,-5
6,32,1,-3,-12,0,2,1
-6,-40,-38,-3,-10,-5,27,5
-9,-3,-10,-30,-37,-31,7,-12
4,24,26,13,38,-46,-27,8
2,13,0,0,-8,26,30,6
-6,-58,5,20,-8,-24,-24,2
4,26,39,13,-6,10,18,-15
3,4,-25,-4,12,21,-12,-13
-3,-11,-3,-19,-43,-45,1,13
2,37,3,-15,4,11,-2,-2
-8,-13,-9,8,20,39,23,0
13,-5,2,11,-7,-7,28,2
3,2,15,-10,-8,-3,1,-7
-9,10,13,12,36,34,7,-4
-5,-14,-28,-8,-11,-11,6,1
-6,12,13,-3,8,7,22,-8
-1,-30,-2,11,5,26,4,-5
3,26,17,-5,17,-26,16,5
3,6,14,4,3,12,-12,-8
-2,-34,-13,-7,-26,-6,-11,8
-1,18,6,23,25,-36,-29,-10
-8,-9,-4,-8,-6,12,-13,-7
-15,-35,-9,-6,4,1,24,3
2,24,2,-8,-1,-12,-33,-6
5,15,16,6,-11,13,11,11
-2,-15,-18,16,1,-8,19,2
-1,8,13,-1,-25,-14,9,0
0,3,6,-17,11,-21,-36,0
-2,7,2,16,4,21,-38,-16
14,23,6,-8,-2,24,18,22
-8,-20,-15,7,-1,-25,3,-8
-6,4,4,10,4,11,-50,3
-5,12,13,-11,-22,-27,-18,-13
1,-30,-26,-11,0,-33,10,11
10,0,3,-2,5,20,8,13
-10,4,-9,-14,-1,-15,2,-11
6,49,10,4,-10,-25,24,-5
-10,-45,-4,11,-13,-3,-10,-6
1,16,12,1,17,8,-13,-3
0,5,-9,0,-8,13,18,0
-2,-32,-18,-15,16,2,8,2
-6,22,-16,-10,-22,-22,-6,-1
0,-2,3,23,13,2,-24,-3
1,1,21,-11,-2,-2,-8,-3
-10,-34,-41,-29,-2,2,29,-2
13,-25,14,15,25,62,16,-3
-1,-5,0,-7,-7,-10,-24,6
-3,-3,-5,1,-14,-32,-10,-2
-3,-17,7,2,-7,-9,34,7
-20,15,13,1,21,9,-2,-1
8,-33,-22,-4,-30,-24,-9,-33
-5,-5,-1,1,-7,7,11,7
-4,-34,-5,-8,1,-33,-8,-1
8,49,4,4,-13,13,-8,-9
-12,-29,9,7,4,-4,6,3
-1,20,-10,-3,-2,-15,-7,7
-9,-51,-18,-20,-18,5,27,-6
-6,-10,13,-8,19,-29,-25,-3
12,41,-5,-6,-22,7,70,-1
-12,10,5,4,55,74,36,-2
-5,-35,-15,14,-19,-22,7,7
8,2,-5,2,-2,41,-9,-6
-2,-5,2,5,0,-46,-46,-1
5,8,-18,4,11,3,-38,1
-13,-10,-5,-15,4,10,-18,-5
1,13,-8,4,-21,-50,3,-10
-15,-28,-23,-23,-18,2,-3,1
3,-12,2,5,-7,-4,-8,1
6,14,26,0,19,24,-17,8
-6,2,-28,0,-7,-10,-24,-7
3,0,8,16,15,37,29,-2
-3,-18,-21,-8,1,2,-2,-5
0,-18,3,-2,-5,-37,-20,-1
2,20,28,-12,-11,37,34,5
-4,65,-1,9,5,-12,-8,-5
-6,-62,1,6,2,5,-17,3
13,12,-2,8,0,-11,-10,1
-2,4,25,19,5,11,11,-13
-6,3,-15,-23,1,-6,-8,-2
4,-1,-9,-29,-24,-29,-11,-3
-4,0,-5,-7,-16,13,-28,4
5,-8,-11,10,57,-25,3,5
10,31,31,-3,-17,-4,-10,-11
-7,-30,-22,3,3,13,14,7
-2,-8,-5,8,2,-42,-19,-11
4,-1,1,-7,-31,20,7,5
7,3,11,15,23,6,5,12
6,13,-4,2,-3,-34,-13,-4
-9,-8,-6,-17,-17,-33,-6,-4
3,15,-2,-16,5,32,54,-2
-4,-48,-10,9,6,-15,65,10
-6,35,34,11,-4,48,4,-7
11,14,-19,8,-5,23,18,-6
-4,-15,-19,-15,-7,-36,-12,1
1,41,40,-10,-14,1,-3,14
2,-43,-59,2,-21,-24,9,3
-6,-11,25,22,44,-9,-20,-6
-2,22,4,-13,15,13,-5,-6
-5,10,10,-7,-31,-40,4,-2
0,-31,-20,-12,-2,0,-13,-2
1,59,13,2,-25,-10,-26,-12
-5,-46,-6,-10,-15,-46,-39,-5
-7,-22,20,28,30,49,-10,1
2,45,24,1,30,17,16,6
4,-12,-28,-8,-16,-6,34,1
-11,-21,-7,-9,-32,-28,-24,-1
3,7,10,-4,-5,15,-38,-9
-11,-52,3,17,-1,-12,3,7
5,13,-8,-17,16,1,15,6
5,22,8,2,-1,50,-3,-2
-4,-39,-13,-4,-3,-31,-41,-9
4,43,13,-12,16,-2,2,-7
-3,-11,23,32,-5,25,1,-3
3,38,6,-24,-14,-2,23,1
-4,-42,-38,-7,10,34,-12,-9
-7,-36,4,6,-3,-46,12,-7
0,6,4,9,-7,33,16,15
4,33,11,12,28,21,54,10
-1,39,-18,-2,-5,7,-24,-10
4,-5,5,-28,-14,13,-18,-1
-5,4,-12,-3,6,41,55,0
7,-27,-3,1,-21,-12,24,13
-1,15,6,7,34,-13,23,8
0,51,14,3,-8,26,8,-2
-4,-26,-34,-24,-11,-25,-26,4
-3,10,15,0,-11,-42,-50,-30
-2,-74,-30,-14,-7,30,28,11
-4,28,5,13,12,29,-4,-10
-2,5,17,12,-1,-27,-2,-1
-5,-29,-23,7,15,21,-18,2
5,30,1,-9,-8,-15,-12,-4
-1,6,0,-3,-34,-21,5,16
1,3,-4,-24,33,55,-56,-9
-6,-61,-5,-1,-21,-24,2,1
4,45,10,4,13,-32,14,2
4,-25,-30,2,-13,-5,-23,-2
-7,-5,11,-4,-24,-2,-4,-8
4,61,-1,4,21,0,-12,1
-11,-58,3,-14,-8,-19,-58,3
-4,-17,-8,12,15,-4,11,-8
6,6,-10,-1,-2,-19,-5,1
-3,21,-11,4,4,-27,-18,-4
-7,-30,-4,2,2,12,12,-5
6,2,-6,-15,-13,-6,3,-4
-8,-41,-19,-6,8,10,-26,-9
3,9,20,18,-1,-11,-6,1
-7,24,-2,-6,3,-12,15,1
5,4,37,5,5,23,12,-3
5,20,8,15,18,8,28,5
-14,-80,-44,-20,-33,-17,-9,0
0,16,2,14,3,15,17,-1
-2,9,12,-19,39,43,1,-1
6,38,3,-3,-46,-35,14,-1
4,1,14,8,18,9,5,5
-3,-22,2,-1,-12,-16,-7,-4
-3,4,-18,4,-13,-13,34,1
-7,-18,-6,5,45,12,10,-5
-1,-3,-11,-7,-14,-27,11,4
1,-24,-11,-24,-9,35,16,-7
6,22,10,1,-15,-28,-27,3
-2,-16,5,24,4,8,-13,5
-3,-13,-2,0,-2,0,13,-3
9,35,18,2,-3,5,16,-1
-5,13,-34,-8,9,22,0,-1
9,54,6,-8,-24,-8,42,4
-6,-45,-2,-1,11,-12,-17,-5
4,11,-24,-2,-13,-11,8,3
2,6,18,6,-2,-26,-22,-4
0,14,8,-6,-2,-27,-6,-8
-7,38,4,1,7,56,57,8
6,-27,-8,3,-4,-27,-35,-13
0,-9,15,0,3,-19,51,6
-6,-5,-7,-2,-3,24,-8,-6
-2,4,12,16,-3,-26,-32,-5
-8,-41,-18,-10,13,6,-6,4
-2,13,6,1,4,13,4,1
-2,-19,4,-9,-13,-16,-20,-1
1,8,25,10,-13,-29,-26,-2
-8,-6,6,4,13,60,18,9
0,1,-20,3,-1,-55,-79,-8
3,4,-11,-20,-2,-28,-62,-3
0,-18,-3,15,0,16,22,-10
7,40,7,-1,-25,-12,5,9
-7,-28,-13,-14,-13,9,-4,-8
-5,4,17,-11,1,-36,-22,3
-3,-5,-17,-7,22,36,-12,0
-3,-6,-6,21,8,-39,-32,-8
3,8,12,-21,-1,43,31,6
-12,0,-14,10,-4,-32,16,-10
0,-50,-40,-28,-17,-1,-8,-5
-2,30,31,3,-2,13,26,-1
8,-4,-18,8,11,11,-6,3
0,-22,-11,1,-12,3,34,9
0,42,21,-1,-15,-17,-79,-13
-6,-35,-2,-8,30,-17,-9,4
-1,9,-3,-2,-14,-22,11,4
1,-7,3,3,-2,21,6,-10
3,0,-12,1,2,10,18,3
4,37,3,-1,14,-2,-9,4
-10,-14,0,-4,-10,-31,-10,-10
-1,-22,-8,2,8,53,-5,-8
2,15,2,-10,-36,-20,7,14
-5,2,3,2,20,27,1,-7
-1,21,8,4,11,-9,14,-9
-4,-43,1,-5,1,-7,-18,7
-5,-15,4,14,-2,-10,-8,-2
6,-12,-9,-1,-16,1,23,2
-3,-6,4,3,-1,-26,-25,-1
4,30,18,12,40,38,38,7
-4,-2,-11,-19,-9,-24,0,-3
-2,-8,28,7,-11,-28,33,-4
1,-50,-47,-6,-20,11,-8,1
-13,20,12,11,12,-15,24,-7
11,33,9,11,29,25,6,7
-2,-19,-14,-32,-16,16,-7,-6
-3,10,16,4,0,-39,-6,0
4,-2,-3,-7,-7,15,-27,-1
5,44,-14,-9,-2,15,22,0
-1,-5,3,10,0,-23,-57,-4
1,6,10,5,0,10,12,-4
-4,-21,-3,-14,-21,-28,-11,5
-5,19,9,6,10,6,9,-10
0,10,-8,-3,-2,2,-5,4
-4,26,32,12,7,23,-28,-12
20,-19,-21,1,-11,-10,-13,-4
-7,-24,-19,-24,-53,-37,-54,-5
-10,12,-2,-4,55,36,-43,-6
1,-29,1,6,1,39,30,5
-3,32,13,-14,0,-1,-5,6
-2,-57,-9,8,-1,-51,-20,-3
-4,11,-7,-1,-25,5,14,4
3,-9,18,-2,5,28,29,0
-2,-14,-17,-1,-8,-22,-26,-5
-2,3,16,8,7,-9,41,-4
-6,-2,-24,-15,2,6,5,6
1,-12,-8,0,8,6,22,6
1,5,-5,1,-14,-7,6,-3
-17,-4,-1,-8,10,17,4,-8
3,1,0,-3,2,17,37,-1
1,14,-2,6,-13,-25,-74,-3
-3,-8,-7,0,9,16,13,2
2,3,16,6,13,10,7,2
2,18,-16,-2,-30,-25,-15,-5
2,5,-12,2,19,-34,31,0
-1,36,8,1,17,21,8,2
1,-22,6,2,-1,11,-12,1
-5,26,2,-6,-13,-5,2,-6
-4,-44,-23,-4,-17,-40,9,5
0,1,12,3,20,29,21,-7
3,22,-9,-10,-2,17,8,13
6,-13,11,3,-19,2,1,-4
3,30,5,-1,21,-8,2,12
-4,3,-3,3,-13,-11,3,-1
-3,11,-2,15,12,0,-8,-8
10,-15,8,-7,-10,12,7,4
-8,-2,-1,-12,-16,10,22,-1
-2,-23,-15,7,22,-4,-39,-4
6,12,8,-3,-9,-4,18,6
-6,29,-7,2,5,-10,-13,-3
-3,4,-1,-3,-1,-11,30,-5
0,-22,-24,-30,-23,19,-7,2
-5,-2,6,4,9,-16,8,-2
1,5,7,6,-9,-32,-3,3
-4,-9,-2,-1,1,4,-3,-2
7,20,27,18,4,38,6,0
0,0,-10,3,0,6,-7,-4
-2,-5,8,2,8,-30,2,2
3,0,-7,-16,-18,27,-29,9
-5,-4,-11,-8,-13,-14,26,-1
0,-4,2,12,10,3,9,-1
0,-25,-2,11,-3,4,2,-3
2,28,20,-5,14,-2,-28,-2
-9,-45,-29,0,-16,-4,-8,-6
-9,14,-21,-16,-2,17,-11,3
6,13,1,14,16,-25,0,-13
-12,-19,6,-11,12,-25,5,0
-3,12,12,10,-5,37,9,-2
6,-1,-5,-11,-13,-30,-5,-1
-6,-6,-6,-5,-3,13,-11,2
0,-4,-1,7,-4,15,12,0
-1,22,18,6,3,-35,-1,-2
-2,-10,0,-6,-3,1,-52,-7
1,-29,-20,-10,1,-15,65,6
4,2,-15,-6,-14,7,-5,-5
-1,-6,0,-5,3,-74,-3,3
4,10,25,5,-17,33,-3,9
-3,-4,-26,0,20,-6,-25,-2
-7,-37,9,16,-14,-4,-3,-8
0,-6,-5,-7,-13,7,9,2
-2,-10,3,-11,-3,5,10,-2
-1,18,13,3,-9,1,11,0
-3,8,1,12,5,23,-54,-4
-3,-10,-6,-17,3,-7,-32,-7
3,10,0,10,2,-8,16,-1
-2,17,18,5,3,67,55,7
-8,-23,-48,-15,-7,-11,-18,-5
-1,-27,11,7,10,-21,18,1
0,12,-3,3,0,31,14,1
-2,-3,8,0,-8,-12,-36,-8
3,18,12,0,15,3,28,7
-2,14,-2,-7,-2,-1,-4,7
9,-27,-16,2,-8,-5,1,-9
-1,-13,-1,-2,4,16,-19,9
27,29,17,0,3,-5,2,10
-3,15,-14,2,-8,-19,25,-4
-4,-29,-5,0,1,-11,-19,4
-2,1,10,-9,-9,8,-18,-8
-6,2,0,1,-10,-7,-7,-10
2,6,21,2,4,17,-3,-2
5,28,-7,-11,8,-25,4,6
-1,-24,-7,8,1,-1,3,1
-8,0,10,-12,-7,4,30,-4
10,31,-27,8,6,8,-28,-1
-11,-8,3,-5,-25,-8,27,3
-7,-20,-8,-15,7,-26,-75,-8
-5,27,18,28,64,64,68,5
9,-20,3,-4,-15,16,-9,7
-3,9,-13,-10,-7,-39,-20,-8
0,-6,-2,-7,-16,-17,-8,-3
-3,13,2,0,-15,-4,-10,-3
-3,2,9,4,5,17,5,0
-3,-17,-1,-3,15,-2,-3,-9
1,11,30,18,5,-1,9,0
0,-1,-13,-13,-22,-12,-50,-11
-8,-31,-20,-18,-9,-14,34,0
-4,-19,0,15,17,32,9,12
6,28,-7,10,16,3,43,-14
4,25,15,-1,-2,-26,5,4
-7,-31,-28,3,-12,-35,-17,-10
-4,2,1,-2,-21,1,-11,1
0,15,-9,-16,6,14,21,0
0,-14,-1,10,2,-9,-30,-5
3,16,23,8,-2,10,0,5
1,5,0,-9,21,0,6,-2
-5,-7,-23,-17,-26,-18,-36,-9
3,-14,-7,-10,-9,-1,32,5
-1,12,11,3,7,14,-11,0
2,3,6,18,6,11,19,2
0,8,18,1,-11,-13,12,0
-6,-18,-28,-3,-13,-18,-7,-7
-4,-4,4,4,19,4,4,5
0,27,7,-18,-7,-7,-1,-7
7,-21,-17,-26,-32,6,-49,-9
-4,-3,9,8,5,21,12,2
14,45,12,-2,7,-4,13,16
-6,-76,-39,2,-8,-19,-11,-4
-9,-2,10,7,14,14,15,3
5,0,-6,-3,-9,8,-12,-7
-2,34,25,2,-19,-31,-19,-12
-1,-25,-14,-3,22,20,-16,-10
1,-24,-3,7,-9,-9,10,10
-7,5,7,8,19,12,7,2
-4,-3,1,-6,-28,-32,-4,-3
4,35,7,-6,19,51,-4,4
-8,-28,-28,8,2,-12,36,1
0,-4,5,-6,-6,-19,-32,-4
-3,-12,-6,2,7,34,12,3
-1,8,10,13,-12,-26,-33,-2
-2,19,9,-10,7,-1,-9,1
0,10,-4,-1,-1,6,-29,5
-4,-20,-9,-5,-9,-2,22,-6
-1,14,8,3,-2,-10,10,-1
-3,-2,4,4,-2,-3,-7,4
1,3,-6,-6,-8,-27,-31,-13
-3,-22,-28,-6,21,39,14,-3
2,24,19,2,-1,-32,14,16
0,-65,-19,6,-10,-17,2,10
-1,-11,9,-1,-7,2,-4,-3
-1,15,-2,0,0,2,-19,-5
6,12,9,-2,1,-3,7,-2
0,17,10,-4,-15,-5,4,-3
-1,-2,-18,-1,8,10,5,2
-1,-23,1,5,-9,-30,-14,0
9,26,-16,-9,1,-4,32,10
-9,-16,-5,5,40,53,-14,-1
-4,-9,-15,-13,-14,-25,-3,-6
4,30,23,6,-11,-15,2,-6
-5,-37,-14,6,-14,11,-11,-10
1,26,-3,-11,4,25,-8,-1
-3,-11,-7,-5,-13,-40,9,6
-3,-15,4,-13,4,35,45,3
-4,-2,10,11,2,-10,-5,-7
6,1,6,12,4,-13,33,-5
-4,-13,-2,-3,2,11,-8,11
-4,-21,-21,-19,-5,9,-2,-2
1,13,-1,2,-11,-5,-5,-11
-1,-6,-10,-3,0,-13,13,-1
-3,-13,6,8,-6,22,8,-3
-1,0,-10,1,1,-15,-29,-3
-2,6,4,-8,11,3,17,-3
9,25,24,-3,-12,-32,-39,-10
0,-15,-28,-7,-10,1,21,-7
0,1,5,0,-4,-12,-20,2
-10,-9,-14,-3,3,-30,-23,-11
4,15,7,23,27,66,29,7
2,23,9,-16,-9,-23,-12,2
1,-18,-4,-7,11,3,40,-1
-5,-26,16,-3,-18,-11,-27,0
-2,9,-20,2,-16,-14,-18,3
0,0,9,0,8,7,23,2
-3,-3,7,3,13,-15,-14,-6
0,7,-14,-7,-3,8,2,1
-7,-14,8,-14,-18,-20,-25,-5
0,-30,10,9,-6,17,17,1
4,20,7,9,9,-16,-9,1
-3,2,-1,15,14,7,0,-5
9,-1,-12,-7,-8,2,-9,-3
-3,6,12,-2,-6,7,12,13
