2,-5,2,4,-3,0,-2,-1
-3,-5,-11,-2,0,-1,-1,1
1,3,7,0,-1,0,0,-1
-2,1,0,6,0,-2,0,-2
3,1,-9,-10,0,-2,-1,-2
-9,-7,14,-4,2,0,2,0
-5,0,0,17,-5,-1,1,2
-3,-5,-3,8,2,1,0,-3
-6,1,-3,-7,-3,-1,-2,-1
2,0,-8,-16,-5,-2,-3,1
10,4,10,-18,-2,0,-4,0
-28,-6,1,19,0,-1,-1,-3
3,-1,2,1,1,-3,-2,-3
-1,-2,-8,-1,-1,1,3,0
-6,-3,-9,-18,-3,-3,-2,-1
5,1,1,-3,-6,-2,-3,1
1,-4,-3,7,0,1,-1,0
-13,-7,-2,9,5,0,-1,-1
-5,-2,-2,2,1,2,0,-5
12,4,4,-13,-5,-3,-1,-1
0,-3,5,5,-2,-2,-2,-4
4,0,-6,-3,-1,-5,-2,-4
-1,-2,-4,6,3,0,0,-1
-3,-4,-2,-10,-1,-3,1,2
3,0,-6,-2,-3,-3,0,3
-1,1,0,-3,-2,-2,-1,-1
-5,-1,1,7,-2,-3,-3,-4
2,2,-4,2,0,1,-1,-1
-6,-1,0,-6,-2,0,-1,-1
2,7,5,3,-1,0,0,-3
-1,-7,-9,0,2,-1,-3,-1
14,3,3,1,3,-1,1,0
-8,-3,-1,-6,0,1,-2,-1
-13,-9,-3,4,-2,0,-2,-2
6,5,2,0,-3,-3,-1,3
-3,-4,-10,-3,-3,-2,-1,1
10,-2,-2,-28,-3,-2,-2,1
-3,6,11,20,0,1,0,0
1,-3,-3,18,5,-1,-1,-1
0,-3,-1,2,-1,1,-1,-2
2,4,5,-9,-4,1,0,-2
-2,-3,-9,-16,-1,0,0,0
-1,0,6,5,-1,-1,0,-2
-3,-5,-1,1,-2,0,-1,-1
-11,-1,4,6,0,-2,-4,-4
-4,-6,-8,-14,-7,-3,-3,-2
-2,-6,-10,-6,-1,-1,0,-4
1,6,1,1,2,0,1,2
-4,-7,8,20,2,0,3,-2
10,4,0,4,2,1,-2,2
1,-1,-1,-9,-1,-2,-2,0
0,-7,-5,-6,-4,-1,-5,-3
1,-1,-7,-3,-2,0,-2,-2
6,3,4,-7,-2,-2,-1,-2
-21,-2,10,0,-1,0,-2,-2
5,12,-2,6,5,-1,-1,-1
4,-1,-1,1,0,-3,-1,2
3,0,-6,-9,-1,-3,-1,1
0,0,-4,-12,-6,-1,-1,1
-2,-2,6,11,-1,-1,0,1
0,-2,-10,-2,-1,1,1,0
-3,-3,3,1,1,-1,1,-2
-1,0,2,-5,-9,-3,-1,0
-1,-3,-2,7,1,-3,-1,-2
4,4,7,2,13,-12,-5,-4
-6,-7,-9,-6,-6,5,2,0
8,0,-4,1,4,-2,2,3
7,-3,-3,-7,-7,-2,-10,1
12,-3,10,7,3,5,13,15
-73,-15,0,-2,3,-2,4,-1
24,5,3,-3,-4,-2,-5,-13
-26,-4,-7,-7,-10,0,4,-4
1,-9,-4,-2,-27,1,2,1
14,3,1,4,31,-1,-2,6
3,-2,1,-2,-8,4,3,3
-1,-2,2,0,3,-1,2,-2
0,2,-2,-2,-7,-1,-6,-5
16,1,-4,-3,-7,-1,-1,1
-4,-3,-3,-8,2,-4,-1,-1
7,0,7,-8,2,-1,-2,-4
-8,3,-4,5,2,-2,-5,-5
10,5,3,8,-12,2,-4,-3
-12,4,2,7,17,-6,-3,3
-8,-5,0,-8,-5,0,4,4
-16,-8,-5,-6,0,1,-6,-7
29,4,0,-6,-7,-1,-1,3
-16,12,1,0,-11,2,4,3
-13,-8,-4,2,18,2,-1,-10
9,2,0,-6,-7,-2,-7,0
3,0,-2,-3,-4,1,12,1
16,5,6,5,14,2,-4,5
4,-1,-15,-7,-6,-3,-1,-1
-5,1,10,13,32,5,3,-2
2,1,-4,-16,-18,-8,-4,0
6,-5,4,16,1,1,1,0
-2,-2,-3,-2,-16,-1,-5,-2
-5,-8,-17,-3,-9,-2,-4,8
1,12,21,-2,4,-1,-7,-5
-13,-8,-7,-12,-5,-3,0,-2
-2,-5,-2,12,2,-2,-8,-2
1,7,-8,-11,-5,3,4,2
6,-7,-7,-2,6,-2,-1,-6
4,-2,-9,-6,-8,0,-5,-1
-1,4,5,-5,2,3,14,-1
1,-6,5,-1,-15,-4,-28,-9
-4,-6,-7,9,7,0,-2,-7
-10,-1,-3,-2,-11,2,3,8
21,1,-2,-2,-6,-4,-13,-9
19,18,-3,-11,-20,-4,15,1
-60,-21,0,-4,43,5,3,-2
0,3,-1,-1,-19,4,-1,2
2,1,4,3,37,-1,0,5
-11,1,-3,22,5,1,6,2
16,-6,-10,-8,-22,-5,-5,6
0,-10,-12,3,-1,1,4,-5
-17,3,-14,-18,-19,-3,-1,3
7,-4,0,-11,4,0,-3,-5
3,-2,-5,6,-9,0,1,3
-9,-6,0,-7,-1,-2,-7,-3
10,2,10,-1,0,-4,-3,-8
-17,-5,-11,-3,13,5,-7,0
16,10,10,9,-9,-2,0,-1
14,3,0,0,6,2,16,5
1,-3,2,0,-22,-7,-20,0
33,2,2,-5,10,-5,-6,-3
-31,0,-4,-13,-15,1,13,3
-32,-12,9,16,54,3,-4,-17
-11,1,-4,9,18,-1,7,8
-13,-11,2,-9,-13,6,4,-2
30,8,-1,-3,-40,-5,-22,-9
5,2,-4,-1,0,-13,-4,0
-7,3,2,6,-2,5,12,-8
-3,-1,-4,-3,0,1,1,-4
-1,7,8,-2,-4,-4,3,1
-11,-29,-6,-11,-14,0,8,-6
7,9,-8,-4,-32,-2,-22,-16
-10,-5,6,12,32,0,0,-17
0,-5,-15,-8,-7,0,-19,-10
2,9,0,-6,-23,-6,-17,7
-1,-10,3,4,-16,3,13,7
-15,-10,-3,4,43,13,1,-1
6,-5,1,8,18,2,0,9
10,6,-6,-4,37,-5,-7,4
32,-3,1,-16,-38,-2,10,17
26,25,11,-4,-114,-10,-4,-3
-23,-24,-12,0,61,-1,1,5
-44,5,-1,9,30,9,-12,-23
4,7,-7,1,65,8,10,-3
-10,-7,-2,-24,-55,-16,-3,4
25,21,9,24,8,9,16,8
7,33,15,-26,-97,-11,15,-27
-6,-31,-7,18,91,5,51,12
-19,-1,-1,12,83,7,-59,-14
24,4,-6,-14,-56,-20,17,7
-2,-16,13,6,-3,34,-5,18
0,32,-8,-19,-115,-60,-52,11
10,-29,-10,9,81,14,-26,17
-26,15,1,8,-5,3,-31,-12
21,-27,3,-16,-49,-25,7,-10
27,23,10,10,-78,27,-13,26
-42,-29,-1,-9,34,20,31,32
-2,4,-8,28,46,-30,-11,-49
35,7,-4,0,-8,-8,18,8
-37,-7,15,-16,-94,0,-20,-62
-1,13,-4,11,97,-5,0,-1
16,-10,-6,-41,-54,-13,0,30
10,25,65,47,-10,6,-8,1
-1,-16,-12,-25,-25,4,4,6
5,12,10,49,26,24,39,2
-23,-3,-6,-9,-71,1,20,-5
0,-22,-27,-10,-32,8,2,7
0,51,9,-20,-97,-24,-2,-12
-27,-30,-9,-23,-11,9,-3,-14
20,18,-19,5,32,6,28,7
-5,9,-16,15,81,0,-16,-1
-20,-2,3,-17,8,-6,-6,-9
16,18,-2,23,10,14,13,-8
-12,-26,7,-21,-106,20,-11,6
-3,-9,-24,-14,99,5,8,-16
13,-12,-7,29,127,20,-8,28
2,11,-11,-20,-101,-34,10,-2
-1,-13,91,26,0,15,1,19
-12,60,-35,-23,-83,40,11,-10
-50,-38,-15,8,-34,-45,-29,-18
33,-14,-9,-43,-69,-31,23,-4
0,26,45,44,88,-8,-6,29
5,-24,-3,22,44,52,4,11
-32,-12,-1,14,80,6,-31,-15
58,36,-14,-3,46,-30,-3,21
-32,-24,-16,-20,-114,-39,-3,-44
-39,-59,12,-8,24,-11,-5,8
9,-13,-31,-10,37,53,24,15
15,10,21,21,-29,19,-15,-28
33,18,-28,-13,20,7,-13,6
-2,0,24,-20,-71,-26,-9,19
16,7,-5,-3,-107,8,3,4
-18,-37,-8,-14,-15,13,-16,41
-42,10,-17,-13,-78,24,-38,-45
14,7,-21,4,43,-45,2,2
-7,1,16,-34,-23,0,-53,-3
-25,-18,16,35,-40,-30,35,15
-8,-49,-50,-20,-23,-16,6,25
5,-42,34,-4,-54,-15,-5,7
20,34,-53,-3,26,-7,19,24
-2,18,2,-10,-41,10,-8,-32
33,40,-22,10,69,12,1,12
-27,-73,-32,-30,-38,-17,6,9
14,43,82,35,75,13,27,-26
-43,-56,-44,-36,-73,-3,-9,11
18,88,25,19,52,-80,-3,1
66,19,-34,19,-76,30,-5,-5
-13,-102,-4,0,-40,25,-15,-21
4,44,-2,10,89,88,14,17
13,-6,19,-25,-73,-72,28,-35
-24,25,11,19,59,28,-4,0
61,-17,-9,0,9,-26,10,23
-15,3,-3,-19,-91,22,-8,-18
-2,-1,65,32,-14,22,-6,-21
22,35,-18,16,94,40,-22,1
-31,3,-4,-16,-128,-70,38,1
6,14,42,-5,16,-15,-21,-20
17,-13,17,30,60,56,4,-22
-70,36,32,-11,-106,-12,-3,-17
7,-9,-14,5,49,2,7,-16
23,6,-24,6,61,-9,7,10
-31,-64,-14,-30,-62,15,-8,30
33,82,-13,9,-26,-54,7,-13
-32,-25,3,12,112,26,-8,0
4,15,-17,-12,-82,-40,-3,1
-2,-70,-56,-37,-17,15,-9,3
-1,15,54,39,43,36,12,15
-1,-1,-15,-20,-77,-78,-6,13
29,43,-7,25,57,33,-2,-11
-9,-30,-7,3,27,15,-9,-19
-9,28,1,-20,-49,-11,-9,-18
15,-62,19,16,-23,22,11,-10
3,-39,-10,-11,58,2,6,2
57,86,-24,0,7,0,2,10
-48,-28,-6,-18,-22,-15,-2,-27
-44,12,-7,-7,-103,62,24,15
10,-27,3,6,20,6,7,-14
-53,-6,-11,-5,7,-30,-11,-10
47,-59,-7,-16,7,-21,3,12
5,94,33,37,39,5,-10,21
0,-11,14,-3,-46,-36,-1,4
-12,6,21,4,-39,-17,-19,-14
12,-37,-60,2,56,10,-4,-1
-27,-32,-24,-30,2,3,7,2
-22,6,38,4,-15,-42,-7,15
23,-15,21,6,-72,2,-15,-14
18,25,14,-4,4,-25,3,4
1,31,-29,12,38,20,-7,6
20,-56,-4,-11,-97,4,32,42
-49,12,-5,-19,57,37,-20,-31
-21,15,52,8,-35,0,-14,-30
70,6,-2,-4,39,24,10,0
-27,-13,-11,4,10,-12,-9,-10
31,58,-18,-6,21,34,17,49
-17,48,-1,1,3,5,12,-21
18,-64,-9,-6,1,7,-6,-13
-9,47,19,-15,-57,-80,-18,-14
-21,-90,-14,12,48,17,27,34
11,39,55,9,-42,-6,-14,-1
-3,6,-9,-7,-40,-46,-7,0
10,27,-6,3,9,-4,-7,-26
-1,-11,-31,19,50,51,22,9
-4,5,-7,-14,-72,-102,-19,13
-5,12,-16,-8,41,22,15,1
-4,-9,-2,-12,15,33,-10,-1
-1,-9,9,-23,-46,-1,-20,-44
26,-6,-49,9,14,23,3,29
-34,10,36,9,-19,22,-5,-20
-27,-3,2,8,38,13,-8,-1
13,7,-22,-14,-3,-49,-7,7
2,-20,-6,-22,32,2,9,-4
7,9,14,-8,-115,-33,-14,-5
-36,31,15,40,74,27,-10,-24
19,-11,7,-6,-27,-9,-7,3
-23,-67,-21,-7,9,9,0,13
15,32,-16,-3,50,-1,7,24
11,-9,42,-4,-16,34,-20,8
-29,52,16,8,0,-31,5,-43
-16,-23,-25,1,-9,-4,-12,-16
6,18,-11,-6,10,12,-8,-3
11,-21,20,-5,-14,15,23,10
2,-39,-30,-22,-66,-33,0,24
15,28,-2,24,-30,33,9,15
-18,1,21,31,127,-38,-5,-20
-14,-8,-62,-28,-51,-23,-6,-12
-32,3,45,8,-6,10,1,16
13,-18,-27,-18,-7,40,18,-8
89,13,8,3,-34,-20,-9,7
-62,30,-16,0,-22,-41,3,-17
-21,-9,-15,-11,30,10,-6,-18
13,24,41,-16,-8,16,0,11
-23,-5,18,35,73,12,-4,-6
7,-64,-27,-18,-17,-23,-3,-14
-1,-66,-7,-11,-2,17,4,4
-23,26,-20,12,23,-4,-4,-14
-9,9,49,0,-16,26,11,12
25,6,-20,-8,-17,24,6,5
14,35,9,15,23,2,6,27
-20,-47,-17,-8,20,5,17,-5
-21,-3,-15,-18,-27,-65,7,25
18,18,-14,-4,-31,-2,-11,2
-16,26,25,14,-67,-43,25,-27
12,11,-10,11,66,2,-36,-14
-7,-29,-24,-27,-79,13,2,-7
28,26,11,1,20,-7,19,21
-26,-49,13,18,0,-11,-6,20
16,-15,-9,-14,-15,16,-1,-2
-14,1,2,9,12,20,2,-15
20,11,11,-1,4,-14,-10,5
14,3,-23,-23,-5,18,0,7
-43,-11,24,10,-20,-23,4,11
-2,-36,-58,-21,-29,7,-6,-9
-31,-8,3,3,26,28,-2,-9
38,21,-13,5,22,10,-1,17
-8,5,3,-10,-20,-44,1,-6
22,15,34,17,-12,-1,-7,-12
-35,-8,-41,-5,-10,-1,-8,-35
-62,-7,34,5,44,45,-6,-10
12,-51,-32,-5,-36,-62,14,19
-26,10,-2,-5,-16,-5,-3,-1
8,-1,10,-12,-30,-6,-14,7
55,32,-23,12,22,44,-5,5
-25,-10,7,3,54,-15,6,5
-20,-21,-4,8,-16,31,-16,-5
35,-16,9,22,44,-21,8,11
-35,53,-5,-24,-48,-22,-7,-7
-7,23,50,35,14,34,-2,12
8,-50,-4,-10,40,-44,-4,-21
14,53,12,3,-25,13,2,11
3,-25,-34,-12,-1,-6,-2,-6
26,54,75,21,-11,8,-9,-5
-7,-8,-23,-8,52,26,10,13
-13,-17,0,-7,-79,-10,-7,-21
16,-8,6,7,55,-9,4,5
0,-1,-24,-33,-96,-11,-14,-20
18,24,22,17,38,11,8,-2
-77,-30,-17,-12,-55,23,2,3
42,37,12,16,30,-54,16,0
-46,-55,-32,-22,-22,-1,0,13
0,41,-8,-19,12,-11,2,-5
16,3,-31,-5,29,18,-5,4
15,14,82,40,7,14,3,21
48,-23,-30,-23,-20,0,0,-16
-70,-17,-9,10,-20,-4,3,-11
-2,2,5,8,56,33,-1,16
13,-21,-53,-27,-36,-1,-8,-4
-7,-20,-16,-5,19,17,3,-2
-20,-6,23,-2,-50,5,-10,8
36,42,-4,14,3,10,12,-28
-29,0,-13,-2,13,2,-8,11
15,-31,3,-3,-79,-39,11,-7
45,54,-62,-14,89,34,9,2
-19,-17,73,6,-18,-18,-1,15
23,-12,-29,8,65,42,-6,-18
-12,12,-30,-3,-36,25,-15,5
-14,-23,10,1,-42,30,8,-4
2,6,-21,-11,4,-42,8,2
23,10,32,-25,-72,9,3,10
14,15,-3,25,74,69,-7,-9
-5,-39,-5,-11,-60,-49,-12,-21
-9,25,-7,5,-23,16,-12,11
-32,-9,13,10,51,-26,8,-3
53,36,5,2,7,1,-2,11
-22,16,36,15,7,-12,-11,4
-10,-39,-12,-9,-37,-15,23,-15
-41,-34,-22,-15,-13,37,-20,-7
27,18,13,15,27,-51,6,7
7,-62,-2,5,69,13,4,9
-19,29,-10,-7,73,5,-14,-25
-2,19,-21,-7,-81,24,-34,5
-28,15,13,14,96,32,-4,-9
16,13,0,-12,-16,-6,-12,7
3,-8,14,3,17,-4,7,4
32,-21,32,8,-31,-22,4,-3
-37,-31,6,-5,-2,-14,6,-4
4,22,-27,-7,-2,-5,-2,1
12,-8,21,3,3,-17,-14,-6
-23,14,-31,-5,-18,-8,10,-7
6,-44,11,-1,-21,-13,-1,-8
11,-8,-1,-7,-5,-4,11,7
7,7,20,7,-4,26,7,16
-7,7,-17,-6,16,-33,3,-25
-16,9,-39,-8,64,71,-5,-27
34,35,21,4,-73,-73,7,17
-23,-1,-17,-17,-2,24,-14,7
15,-3,11,12,-15,22,14,-3
-9,-13,-9,-18,7,6,-9,4
-55,-12,-9,-13,-47,1,1,-11
9,10,14,9,-19,-34,-6,-13
7,-13,-4,-17,-62,-65,9,10
0,21,9,34,76,9,16,-7
28,3,-4,5,11,27,-24,-3
-14,-35,-14,-16,-8,-46,-3,-10
4,80,15,28,24,9,2,19
18,-1,-9,-16,-69,-24,-5,2
-18,-41,5,1,21,-1,-13,-24
13,4,-27,-4,-8,7,-1,9
3,14,-9,-22,36,0,0,-10
-39,-1,15,-6,-57,-22,-10,14
53,52,1,10,22,13,21,26
-8,-18,8,1,1,-4,-4,-3
21,16,-21,-1,-16,5,-2,1
-32,-4,-20,-19,-3,-7,-2,7
1,6,20,-5,13,17,-2,-17
33,32,1,24,38,-3,11,10
0,-47,-1,-11,-63,-56,-7,0
12,-7,6,4,34,3,-7,-17
-70,-31,-32,-20,-17,0,11,15
71,29,54,10,-20,25,4,18
-72,-40,-14,18,88,32,-5,-22
13,18,-15,-12,-51,-24,12,31
6,-9,6,14,-33,-2,4,-8
-24,-33,-24,-7,71,-8,-19,0
4,-10,13,4,3,28,9,-2
25,6,19,0,-13,-18,-3,3
-34,-31,-17,-15,-16,-1,-7,-6
-14,-4,-22,-6,0,16,9,7
24,23,89,26,14,-12,-1,20
-38,-4,-18,-12,-6,-8,-13,-63
46,7,3,5,-4,21,-7,1
-7,-16,-4,-12,-10,-8,4,-11
-6,-15,-3,8,32,12,6,10
30,7,4,2,16,42,4,25
-5,18,24,2,-9,-54,-10,-26
-7,5,-9,13,8,7,-3,-6
30,7,-24,-9,-20,-10,-5,17
-1,12,11,3,43,12,-5,-10
-23,-72,-28,-10,1,-2,-7,9
-6,25,17,-13,-33,-12,2,10
-9,-49,-6,2,-10,-10,3,-24
1,-13,-16,-2,8,-9,-4,-7
45,62,42,21,53,13,0,4
-31,9,10,5,-52,-22,-6,-6
5,-47,-21,-18,-14,9,0,-2
-26,-10,-1,-6,-38,-14,4,19
15,3,31,21,84,5,4,27
12,11,-12,5,12,30,-16,-12
25,25,-48,-21,-8,29,9,-31
-12,-11,-4,-17,28,8,6,10
13,-1,-22,-7,-66,-54,4,10
-24,-21,-4,12,14,21,7,25
-33,-12,-7,-4,40,25,-12,-29
22,-5,-7,-10,-28,25,2,-9
1,-12,13,-3,49,4,-1,-2
-12,46,-19,2,46,-17,2,-20
39,16,1,7,-19,-7,-4,3
-45,8,-1,5,4,-16,15,7
0,14,13,-10,-42,5,-9,-15
-1,-42,2,2,-31,-8,2,-1
11,30,-6,-4,23,2,8,25
29,1,6,4,-22,-9,-16,5
-78,37,-10,-11,-24,-6,1,-28
38,-17,-7,-2,5,51,8,-14
9,-5,-30,-7,6,-23,-12,2
32,29,49,-7,-46,-11,-3,10
-32,-82,-59,-11,2,27,-14,1
-11,14,7,6,-13,50,8,-19
-55,-22,1,4,76,-6,3,4
51,1,-1,-5,-17,-39,-4,-6
-28,7,8,0,30,26,8,0
39,11,17,-4,-11,-31,-5,16
-36,-27,-20,-21,-59,5,-4,4
-20,4,-11,9,25,-5,1,-8
17,11,28,9,27,3,-4,10
4,-18,-10,-3,-27,-1,6,13
-9,12,17,-20,-71,-23,-6,-7
-11,-3,-5,20,56,39,-9,-7
24,19,-1,-8,-31,-13,4,5
-25,-24,-14,-19,-50,-18,-7,-17
-7,25,33,21,48,-19,-20,-6
7,6,-11,6,9,35,33,24
-48,-11,-12,-2,4,1,-4,-17
6,-17,13,-2,-23,-38,-7,5
-8,35,32,20,2,9,13,3
26,-21,-13,1,-8,-9,-9,5
15,-36,-17,4,7,18,4,8
-7,16,0,-7,10,-12,-2,-13
6,-7,-2,-6,-2,6,-6,-13
0,1,-2,-2,-25,-2,-13,-6
12,17,-6,6,-39,-32,3,1
10,-16,11,6,86,22,-2,4
3,-8,-12,-8,-34,-17,1,-9
-7,1,9,6,79,52,3,0
68,22,-23,-8,-27,-23,-4,14
-83,9,4,8,15,-8,-6,-31
-18,3,15,-7,6,-11,7,12
-29,-39,-48,-15,-1,-12,0,16
15,14,53,18,-28,-4,0,-13
9,8,-28,-14,4,-4,-13,6
28,1,9,-6,2,10,2,12
-6,0,-4,-14,-59,-37,-6,-7
-17,-23,-21,-2,36,22,-3,-22
8,13,26,-5,-39,-26,2,-4
-15,0,-7,7,-2,-4,3,-4
-20,11,9,12,-36,-19,-1,11
40,26,1,-6,40,-7,3,-2
-10,-28,-10,5,-22,-15,0,-5
13,-2,-16,1,5,2,-5,-2
11,-1,18,0,-16,-13,-1,-3
2,16,2,-11,-24,56,6,3
25,-24,-29,-5,3,-85,-10,9
-62,-17,-8,7,-29,24,0,0
2,-9,8,-1,-29,-11,6,-30
-23,4,1,-4,-6,3,-4,8
18,9,19,4,0,24,5,16
38,12,-6,-2,-24,1,-4,8
-47,-21,-15,2,43,1,-1,9
-3,11,6,-8,-27,-6,-9,-32
-36,-10,-11,0,29,14,3,-11
63,-3,-11,-13,18,-3,-1,5
-34,4,38,8,-14,-4,-9,-6
-7,11,10,29,10,1,8,22
0,-20,-5,-6,28,93,7,6
-19,4,-9,2,16,-51,-9,-17
10,0,-20,-10,14,17,-3,-2
14,-6,-11,-8,6,-2,3,9
-22,6,8,-1,-18,-4,-6,-6
17,-12,2,2,-12,9,17,23
20,12,0,-9,-43,-11,-7,-9
-31,-7,1,7,42,-5,-5,-8
17,4,-7,-10,-42,-20,1,6
5,-1,-6,-1,28,13,2,-11
-23,22,-9,0,-28,-72,0,-2
-2,-22,0,-3,-9,16,-3,-2
2,4,-13,-8,-4,-15,-4,-13
11,-2,18,4,10,14,1,-8
36,-20,-21,-20,-30,17,4,20
-44,-7,0,7,73,-7,1,1
17,3,-1,-2,-7,0,-1,1
-27,4,6,-1,-1,3,-4,-16
16,11,16,6,10,39,1,-17
34,3,-17,-21,-68,-76,3,24
19,7,10,11,17,22,-14,1
-54,0,3,-11,17,13,3,-4
45,-14,-12,15,26,16,-10,-5
-39,1,13,-9,-78,-22,2,-17
-5,7,-17,16,89,-3,12,13
-23,-9,5,-22,-52,-12,-13,-2
-9,5,14,-1,28,4,-2,-4
4,9,17,15,-22,10,-1,-1
-10,-3,-5,-12,-21,-16,4,2
8,-17,7,11,6,5,-2,-8
-16,42,9,-5,-3,-6,-2,1
36,8,-19,0,25,1,-3,2
10,-29,19,0,-29,9,4,-9
-12,3,-14,4,-6,5,-2,12
-9,-17,7,10,13,-66,-2,-14
-26,1,-3,-8,-15,0,-3,-4
65,-15,-14,3,36,3,6,31
-40,23,13,10,67,67,-4,-20
13,-7,-18,-4,-74,-34,8,12
-20,-7,-3,-16,-17,15,-4,-13
-23,-7,-11,9,3,-30,-3,-15
16,3,-7,5,6,25,12,9
14,41,40,5,28,3,-5,10
4,-25,-10,5,22,26,-2,-17
-14,-5,11,-18,-46,1,-5,-12
15,13,21,22,-27,-28,-2,-2
-5,-9,-19,-4,39,22,0,8
33,-7,-6,2,-5,14,4,9
-45,30,24,-3,-32,-18,-17,-11
10,-11,-32,-2,53,-19,5,23
15,-27,12,1,16,35,0,-15
13,-7,-10,-8,-37,-63,-5,24
-46,-26,-27,-10,-67,2,-1,-26
11,-7,-6,9,23,-37,5,14
16,3,3,1,-9,16,-1,-6
-1,0,-23,-12,29,15,-2,1
24,13,14,-7,-9,18,-25,2
-4,5,24,11,-33,-8,7,-10
-17,-16,-20,6,33,28,6,10
11,-5,19,-2,-6,12,1,-3
17,-12,-18,-7,0,-18,0,11
4,-13,-2,6,37,14,-10,0
-35,2,-14,-11,-31,-1,-3,-31
34,21,22,14,46,34,6,17
-17,-6,38,3,-25,-19,-1,-4
12,-7,-22,-20,-9,-6,-5,12
-13,8,0,5,6,-6,-2,-23
-17,-8,-15,-13,-4,-7,-5,-1
6,0,-19,0,30,4,10,11
7,23,5,-10,-49,-14,-7,-2
-4,-5,-7,-13,2,1,-9,-5
-54,1,-9,-2,23,-48,-6,-28
70,2,-15,-9,-50,2,9,20
5,31,36,20,33,-4,-7,-17
-2,10,0,-7,-30,1,-1,9
2,21,-22,-7,9,42,7,2
16,11,5,-1,-11,-53,-2,-6
10,-25,-10,1,-12,-9,10,12
-3,-14,-25,-27,-30,-4,-1,17
-30,7,35,28,34,2,-2,-6
-31,-6,-8,12,14,18,0,-13
-3,-12,7,-14,-43,7,-8,-2
11,9,-17,-6,-8,-17,10,22
7,-5,-15,-7,15,17,2,15
28,22,9,4,-32,-13,-2,-34
-28,-20,-12,6,0,43,6,-1
-5,-13,23,6,11,6,5,0
15,7,-7,-14,-55,-35,-7,3
18,31,1,4,77,60,8,3
0,-20,4,-9,-12,3,-10,0
11,6,9,-6,-38,-55,-12,-29
9,-3,1,8,10,32,5,1
-20,-4,-9,7,17,-1,-4,4
-20,-13,7,-7,12,13,-4,0
-3,15,31,9,-15,5,-1,2
1,3,33,5,-13,-11,-4,-6
-12,-15,11,-2,4,0,5,19
16,-7,-30,-1,-5,-20,2,-11
-41,-3,-3,7,-14,1,-15,-21
35,-26,7,4,14,0,5,10
-87,-13,-19,-9,14,6,0,-11
17,20,-1,-5,-15,-20,-5,9
18,-2,-17,-2,52,24,0,6
-23,-18,-22,-4,-37,-6,-4,-12
3,4,0,-13,0,2,1,13
12,-2,-20,-3,-25,-13,1,-21
-3,-15,-11,8,41,-10,3,19
10,-1,-10,-9,-34,3,-5,-17
3,-2,16,7,4,5,7,9
-19,-7,1,-16,-40,-5,-7,-25
-18,-27,-7,0,-9,-30,-4,-6
4,4,-10,-6,-10,4,-5,4
-1,7,-7,-5,-3,1,-4,-5
25,1,1,-8,-22,-12,-10,16
-17,42,-5,6,35,10,1,-10
-10,-3,2,-17,-45,1,-9,-12
24,1,2,26,78,10,0,7
-9,-8,-14,-9,-1,-5,-1,-3
18,17,68,19,-18,4,8,15
29,3,-11,5,21,-7,-8,6
3,12,1,-9,-43,-8,-7,1
-1,-15,-10,-5,40,10,9,-4
-21,9,-32,-13,0,-9,-7,-6
-8,-10,-7,-4,21,18,6,0
-1,20,23,17,-15,4,0,9
10,18,11,0,13,-18,-3,1
9,-29,-24,-7,-2,14,1,8
-36,-9,-4,-6,12,3,3,-4
24,-4,-22,-15,-9,2,-4,-6
0,19,19,14,-23,-12,3,-13
22,-7,-10,5,48,25,3,15
-34,1,2,-5,32,15,2,10
-10,-19,-1,8,0,-6,1,-18
13,12,49,12,-45,-1,-2,0
-1,-11,-1,-11,-10,-7,0,-3
-25,5,3,6,13,29,0,-14
16,13,-1,-10,-37,-31,0,9
-57,-78,-14,-6,-1,3,0,15
10,1,0,-5,-38,-2,6,-7
-51,6,10,19,56,-6,0,-5
24,0,-16,-12,12,44,2,-2
-12,7,-11,-7,6,-11,1,10
-2,3,47,14,-53,15,-3,1
20,13,-5,2,37,-25,-6,-15
-1,-16,2,1,-21,-10,-6,1
0,17,-10,-1,34,-7,1,-6
-2,-12,-34,-12,16,12,-3,3
26,-3,16,2,-40,-12,2,3
-34,-23,7,-5,-35,-18,0,-12
-5,13,-23,1,59,13,4,-2
9,-8,-18,-11,-14,-12,-2,-6
-16,17,40,18,-15,-6,2,23
13,-6,-6,-4,0,-14,1,-1
-24,-11,-15,-19,-26,1,-3,-4
-9,4,23,15,14,3,0,-1
22,-3,-30,-8,-2,-9,-2,-7
9,-6,8,-23,-12,2,1,-7
17,30,1,16,31,8,1,4
-9,-33,-11,-10,-70,-15,-7,21
-72,-37,-19,15,15,11,0,-5
-9,6,0,-1,1,-4,3,-2
24,4,-2,-17,-19,7,0,-14
-2,6,39,1,-9,-11,8,20
15,-7,-19,-3,-32,-14,-7,-11
-16,1,-10,1,38,9,-2,0
5,-7,6,6,18,2,-2,-1
6,7,-7,-4,-30,-18,-1,-7
15,1,-26,-15,-26,12,-2,-6
-4,-7,22,8,35,-4,-3,-6
1,-3,3,-13,-44,-23,-2,6
-16,-2,-18,16,61,13,5,-2
18,32,21,-13,-16,-14,-4,-14
7,-17,-1,15,-16,-9,-6,3
-13,0,10,17,5,7,-8,-11
-1,-2,-17,-11,-5,2,0,0
6,-4,-8,-2,32,2,1,-4
-27,-2,18,-8,-8,1,-6,-4
21,14,-4,-6,-37,-11,-1,5
8,-11,-6,3,50,-13,-3,-3
12,5,8,-2,-24,13,-10,-6
8,10,-5,0,62,-7,-1,9
-3,-20,-28,-7,-16,7,4,9
-23,-2,0,-12,-20,-21,-6,-13
16,-15,-8,1,2,-1,9,9
11,5,-6,-5,-20,-4,-3,-8
-8,20,21,6,21,3,-5,-1
-63,-26,-20,1,19,13,7,1
26,26,15,-3,-12,-14,-4,19
-21,1,-21,-9,-20,-2,-3,-12
31,-16,-2,6,34,11,1,1
-8,41,-17,-9,-19,-14,-2,-18
37,-29,9,-11,-9,-5,-2,12
-14,19,10,28,3,6,2,3
-34,-15,-24,-15,-4,-4,0,-3
37,-13,-3,0,5,13,1,3
-9,5,-1,10,49,1,3,-3
11,12,0,-4,5,69,-6,-1
17,-6,14,10,-9,-68,-3,-2
-4,6,1,3,19,22,5,1
-2,11,5,-6,-46,-19,-8,7
20,-29,-3,-3,-5,-9,-8,0
-75,-19,3,-3,-8,21,-2,-12
11,4,-1,-9,18,2,0,1
19,3,0,3,12,-7,1,14
-14,-1,-33,4,6,-15,1,-11
6,25,5,-12,-14,2,-2,7
17,-7,-3,-4,-12,-10,-8,-13
-15,-4,18,19,-1,13,1,-7
-22,-6,-19,-11,-32,-14,5,3
74,7,20,14,17,14,0,11
2,48,7,0,14,11,0,4
-17,-54,-7,-20,-36,-6,-2,-3
5,-2,-9,-7,5,-29,-8,-26
-11,16,-14,-6,-4,20,4,2
-15,-17,22,11,-17,2,-3,-5
8,-12,-15,-7,-36,-10,1,1
-8,13,13,5,24,-9,-3,17
-15,-16,-5,-9,-26,4,1,-17
32,14,20,31,63,21,3,2
-11,8,24,2,-19,13,-8,-12
5,-12,1,-3,-20,-6,9,19
12,14,6,-1,-21,-3,1,-21
-8,-26,-21,-20,-36,-11,-12,-7
-5,21,-22,14,56,12,6,3
12,-14,18,-9,-9,5,6,15
-49,13,26,24,23,2,-2,-1
-2,-27,-14,-19,-12,-16,-10,-9
-43,4,7,8,16,1,7,-9
12,2,-25,-8,-12,-1,-3,-9
1,-13,0,-5,-5,-9,-3,-1
2,-8,6,-7,-22,13,-3,-17
17,19,11,0,11,-9,-1,13
-9,10,-5,11,56,29,2,2
-8,-29,-23,-18,-18,-8,0,-4
-1,16,16,18,32,22,-4,-2
15,-11,-19,-12,-46,-31,-1,-6
-25,-13,10,1,14,9,-2,3
37,4,1,-5,13,19,4,15
-2,9,12,1,-14,-11,-9,-3
-37,-18,-12,-15,-17,0,-3,-2
-9,2,16,8,-24,-13,-3,-18
3,15,-29,-5,17,1,-3,-7
33,-26,-12,-11,-20,-11,5,23
-11,26,44,23,18,12,7,-21
-5,-5,-1,-1,-10,-6,-2,13
1,-6,6,-1,-27,-4,-6,-13
9,3,-17,2,59,1,1,-3
17,-9,-18,0,9,2,5,21
-61,1,7,-1,-48,-14,-2,-11
11,-7,14,-2,13,4,0,8
19,15,-17,8,44,0,3,3
16,13,20,10,27,14,0,-11
13,-16,-7,-4,-15,-6,-1,-3
-21,5,-6,-1,-2,-5,-7,1
-11,3,-3,-15,-69,-15,7,18
15,-5,-5,-3,12,7,4,-6
19,9,-3,6,75,7,-4,-9
9,15,-1,2,-5,-26,-1,4
15,-17,-3,-4,-38,-1,-9,-4
-46,-16,-13,-9,-16,0,-5,0
27,4,-8,-8,-47,-14,-1,9
-2,-13,7,6,50,14,-4,-8
0,20,13,12,12,4,12,9
4,-19,-7,-10,-33,-18,-4,9
-15,31,-5,-6,-7,1,2,-2
37,-17,15,17,24,9,7,-1
-31,-13,-6,-14,-25,-10,-6,-10
-16,-11,-5,-4,8,5,-4,-8
34,-18,-4,-13,-21,-1,3,8
-24,20,26,20,24,2,-6,5
-39,-12,7,-4,-3,-9,-5,-11
61,11,-26,-10,-15,-7,-6,-14
23,-4,10,-3,7,-1,0,13
-31,-4,-22,-6,-26,-5,3,5
-14,-8,17,-1,5,3,0,-12
-6,-4,-6,-1,1,-7,0,-4
-33,-17,2,0,14,6,-1,-16
15,-6,-15,-8,-28,-6,-3,10
-15,-8,-10,-2,-15,-5,-6,-3
2,-14,-2,3,0,1,2,3
12,16,27,10,-6,3,4,0
-17,-11,-23,-7,-7,-4,-4,-3
28,14,6,-8,-25,-6,-3,-11
-5,10,-3,11,12,18,1,11
-8,-2,0,1,-7,-7,-5,-18
2,2,-7,-5,6,-1,1,8
14,1,-10,-17,-76,-16,-7,9
-13,-14,8,12,97,49,6,-25
28,-1,-5,-5,0,-25,1,25
-43,0,-6,-8,-38,-1,-8,-39
1,-13,-4,4,40,7,-1,0
-5,10,-8,-10,-14,-12,-3,0
1,-21,-14,2,1,6,12,30
19,9,25,-1,-12,5,4,21
-5,6,-5,7,20,-9,-1,-29
23,23,5,-2,-15,-12,-4,9
-12,1,-5,0,11,8,-4,-15
-12,-1,16,0,-20,-4,0,11
-24,-5,16,10,17,7,4,7
-6,2,-8,-15,-27,-17,-3,-1
12,7,-4,2,-21,2,-6,-17
-14,0,-12,-3,-8,4,-2,3
33,4,-7,2,46,4,4,2
-13,-4,-2,-7,-20,-8,0,2
3,10,5,-21,-39,-11,-9,-15
12,9,9,18,74,11,4,7
2,-9,-13,-1,-24,-4,-6,-14
0,9,-2,-5,-22,-24,0,12
-12,-6,3,-12,-55,1,-8,-13
26,-2,-18,3,47,3,2,-2
11,2,2,-8,-9,-4,11,26
-18,2,4,8,14,-2,-11,-9
21,-10,-11,-6,-11,-8,-4,-4
-30,-5,-9,-15,-16,-6,-7,-20
-32,-15,26,16,11,7,8,19
1,-1,-15,2,-20,-2,7,6
-3,3,5,7,31,9,-5,1
19,-19,-39,-16,-8,-5,-4,5
9,19,12,-5,6,0,-4,-4
-10,-18,9,3,-26,4,-1,-5
-14,10,-8,6,14,-4,3,-4
1,-1,5,10,45,3,7,7
-8,0,-18,-8,-34,-10,-11,-2
16,1,9,-11,-30,-3,-12,-1
-14,12,-1,11,19,1,3,-6
16,-5,5,-8,-54,-9,-8,-9
-25,14,6,4,45,2,-3,-13
6,12,-5,-5,-3,7,1,3
-17,-10,10,1,-17,-2,5,12
15,7,-6,-6,-21,-8,-2,0
22,3,-2,6,-9,0,-3,3
-18,-14,-6,0,14,-2,-4,-28
-3,5,-15,2,6,-3,4,20
-12,4,32,-3,-14,2,-8,-35
22,-5,-38,-17,-52,-6,1,3
42,23,7,10,41,-5,-4,1
-26,-11,-1,4,1,11,1,5
-7,-5,-9,-11,5,-7,0,13
-28,-15,0,-6,-2,2,-2,-2
-8,-4,-1,-5,-10,-2,3,2
43,12,16,-7,10,5,-3,-6
-20,-18,-2,7,-6,-5,4,4
-19,12,-33,-9,7,5,5,-3
-8,0,11,-4,-12,1,2,2
7,-3,-4,9,35,1,-3,0
11,2,-4,-9,-21,-6,-2,-1
28,4,1,3,-8,-4,-8,-3
-33,-19,-2,-3,5,6,7,8
28,11,1,6,-4,-6,-6,-27
-20,-4,1,-5,21,10,-4,-2
-2,-18,3,0,-36,-22,4,2
19,6,-23,-7,-20,8,-6,-4
-29,-14,18,-4,-2,-19,-4,4
24,6,13,17,-8,1,3,-4
12,21,-9,0,13,7,-5,1
18,-7,-9,-2,13,0,0,1
-37,-15,-19,-10,11,6,0,-14
-3,1,-4,-2,-20,-7,-4,0
-12,-5,21,-2,12,1,1,4
-5,-7,-30,-8,-27,-11,-3,3
5,14,28,5,57,6,-4,0
-31,-36,-10,-10,-81,-10,-1,-11
-19,-11,0,15,84,8,3,3
14,1,6,-7,-16,-12,-9,-1
2,-31,-7,-5,-42,-7,-10,-16
50,23,8,15,75,26,13,30
-21,-2,17,8,-32,-16,-4,-21
9,-1,-8,7,21,15,5,11
-5,2,6,-7,-26,-1,6,1
30,21,9,5,-4,-4,-4,15
10,-20,-20,-5,-7,1,-4,-21
-32,13,-16,-9,12,-1,6,10
5,21,12,5,-40,-4,1,4
-16,-25,-20,-9,42,-3,-7,-12
10,24,6,0,-9,15,2,6
-21,-16,7,-10,-41,-18,-10,-8
7,5,29,23,4,18,6,1
22,19,-5,-10,-23,-4,-5,7
-20,-7,-16,-8,18,7,4,-17
-3,-5,27,-2,29,-2,3,-25
17,-5,5,13,-1,-3,-1,7
-12,12,-5,-16,-37,-16,-8,-5
12,-10,-17,2,-13,20,67,16
-2,-1,13,-6,33,3,-19,-17
-5,62,-11,-9,-32,-4,-1,-9
12,20,63,24,-20,-21,20,0
-18,-46,-18,-12,20,-4,-11,-7
-13,-15,1,-5,-13,-7,-21,-3
5,18,-6,-9,7,16,4,7
-16,-28,-19,8,28,5,2,1
-21,17,17,-10,-40,-9,-26,-3
12,-16,0,9,5,-2,11,9
-15,-24,-13,-2,26,-7,-11,5
-6,19,-49,-17,-6,1,-10,-21
20,-20,51,5,-7,-7,-12,10
-19,0,-21,13,-47,-1,12,28
2,-4,-25,-29,-21,-11,2,-15
-16,-32,-2,11,83,22,5,-17
15,17,-4,5,4,-1,-17,-14
10,34,31,1,-21,-12,-8,10
-9,-48,-4,5,-10,5,2,4
-10,-7,7,1,-31,-5,-6,-11
0,-4,-17,-5,-6,-4,-11,14
-3,21,-5,5,54,6,0,-20
2,-8,-6,-4,-11,-10,4,14
22,-19,-18,-10,5,0,-17,4
-16,39,10,17,44,-2,16,7
13,-1,9,5,-83,17,6,-5
21,5,-18,-2,75,-5,-12,0
4,7,-25,-7,-14,-4,-4,-11
53,10,10,-9,-18,-4,-7,1
-22,-17,-1,9,14,-2,-2,-9
-38,-29,-18,1,-10,5,9,9
18,10,-3,3,-11,6,-4,13
3,-3,-21,-6,-1,-8,13,-10
19,7,-11,-19,8,-3,-13,-5
-18,6,57,6,-40,-6,-2,-7
-16,1,-12,12,76,3,0,2
-8,-3,-8,-3,2,7,-1,4
6,2,-7,-4,-7,-13,0,-5
14,3,-8,-8,1,5,-2,-10
-4,6,45,9,-51,14,16,12
1,-2,8,3,-17,-28,-13,4
5,-10,-7,19,59,15,8,14
1,-1,-7,1,-14,-3,-1,10
-24,-5,-12,-11,-30,-7,-4,-12
-25,-3,0,-13,-28,-8,-14,-33
15,-8,4,-3,44,3,-1,3
3,-2,-49,-12,-13,-5,8,11
19,-7,4,-4,29,0,-5,8
-19,15,11,0,-15,0,-8,7
5,-5,-23,-9,-46,-8,11,0
-37,-1,11,3,45,10,-5,-12
23,-3,22,4,-30,-9,1,2
-1,-9,-9,-3,-2,11,-7,10
-9,29,14,6,-6,1,-10,-13
18,-26,-16,-6,-30,-1,8,1
6,12,-9,-4,9,-1,-1,-1
-12,-8,16,-7,23,0,-2,-11
9,27,26,5,-52,-11,-5,4
17,-37,-6,15,15,14,4,-3
-25,29,-13,-6,-21,-5,-9,12
8,-10,-7,-3,-20,4,5,1
-23,-33,-31,-13,53,13,5,1
6,15,19,8,30,-19,10,-12
-10,-16,-11,-11,-30,-19,-9,2
-11,16,-14,4,-4,12,4,-2
22,4,15,5,6,0,4,1
-5,15,-12,-11,-8,3,-2,-5
11,1,-4,0,6,5,4,-3
-9,15,49,19,-19,-8,2,-2
-8,-22,-9,-7,19,-2,0,4
14,35,2,-2,-1,-7,-24,1
-1,-7,-10,-7,-38,7,2,-4
32,-21,-28,-2,40,-1,-1,-2
-38,-9,13,0,-47,-1,5,6
-14,-34,-35,-7,20,-4,-9,-7
7,12,38,-15,22,0,-4,-4
4,-7,-10,19,-36,-6,3,9
-9,-19,-11,-3,18,4,-1,-2
7,14,6,0,26,-2,0,9
-8,-6,-20,6,41,3,-1,-14
9,-1,22,-4,5,4,-10,-6
25,13,5,-1,-42,-21,-6,4
-36,-20,4,-9,-70,-5,-3,-22
-22,-2,12,16,94,22,9,-8
-5,-26,-28,5,22,-3,-8,-6
13,17,9,-10,-13,5,1,9
38,8,13,0,-17,-1,3,13
-67,9,5,-2,-36,-10,-4,-11
-20,47,4,8,-10,1,4,-4
18,-14,-22,-7,37,-4,-5,-5
-16,9,13,0,13,2,-4,6
27,1,18,5,-26,-1,8,13
-16,3,-25,-8,17,2,-1,6
-24,-37,18,1,-19,-2,-11,-19
-13,9,-25,-11,-42,-4,3,-6
28,-7,8,9,43,-7,-13,-11
16,1,1,0,55,12,3,1
-17,2,-5,-3,-12,-2,2,8
-8,-45,13,9,-33,-3,-7,4
19,36,-23,-4,-14,-1,2,3
-4,-16,0,-8,-22,-4,1,15
-14,1,-16,2,15,-5,-6,-23
