202,-8889,76,6,103,74,67,132,159,-62
180,-7829,172,65,113,38,-25,56,171,-130
204,-6439,172,71,79,-34,-116,58,271,-111
334,-3641,139,66,41,-52,-116,190,477,75
474,-402,88,-17,-58,-50,-108,193,437,195
386,2161,23,-84,-137,-31,-80,101,253,184
137,3237,-28,-118,-166,-2,-19,82,170,108
-59,3256,-37,-108,-165,39,26,76,112,-2
-173,3079,-17,-29,-50,136,94,4,87,-154
-183,2905,0,58,100,254,133,-52,28,-216
-108,2731,18,41,113,280,112,-83,-158,-51
-91,2554,-87,-14,43,234,152,-48,-224,197
-130,2394,-82,-25,37,178,169,-14,-284,235
-408,2245,22,20,60,157,188,7,-319,60
-473,2098,19,10,10,61,132,-47,-369,-114
-36,1925,-9,-51,-72,-123,-112,-196,-380,-153
232,1467,-40,-88,-98,-201,-260,-178,-1,-79
174,-1917,70,26,22,-105,-196,-93,304,-41
64,-9219,126,63,63,-52,-121,-50,240,-26
52,-11453,63,-10,-24,-108,-116,-54,220,110
91,-9122,41,-20,-55,-126,-138,-44,317,224
96,-7849,72,24,-12,-78,-106,8,421,228
377,-4342,91,79,57,-24,-99,-35,243,78
459,-1411,79,74,42,-52,-147,-173,71,21
189,-131,72,89,39,-38,-124,-154,-69,37
-94,703,40,49,27,-15,-101,-102,-132,22
16,2101,6,-1,-27,-19,-42,-27,-47,198
34,2927,-45,-53,-89,-20,42,28,-27,371
30,3265,-67,-60,-89,-31,62,-55,-170,368
29,3566,-84,-37,-36,12,88,-125,-251,301
-65,3542,-96,-8,40,133,174,-121,-299,32
-63,3328,-120,-16,51,171,224,-122,-387,-268
7,3104,-85,-16,12,135,211,-119,-391,-323
-11,2916,-18,29,51,126,113,-174,-368,-266
-173,2654,-24,35,77,141,110,-45,-143,-75
-492,2468,-79,3,68,172,181,138,93,70
-684,2422,-62,31,111,277,301,259,212,119
-702,2339,-67,17,101,350,346,240,75,13
-474,2237,-99,-35,49,376,310,88,-201,-254
5,2153,-198,-146,-63,251,179,-34,-245,-482
307,2079,-245,-203,-132,123,113,85,205,-307
264,1983,-82,-67,-16,153,194,229,498,-109
120,1864,97,91,95,209,269,248,305,-69
-21,1750,111,146,124,164,237,134,-94,-45
-235,1653,32,150,120,81,133,-65,-481,-187
-225,1552,-118,30,28,-60,-17,-154,-561,-401
-178,1468,-65,15,21,-111,-91,-129,-439,-246
-491,1380,95,141,139,88,53,-70,-350,-64
-463,1287,158,195,185,224,147,-73,-103,-59
32,1211,89,158,152,272,179,35,394,55
263,1142,31,92,140,342,252,215,743,255
397,1073,-23,83,171,422,314,256,545,417
335,1014,-99,76,180,404,242,-3,-173,418
-140,953,-168,23,137,254,95,-299,-861,308
-497,902,-253,-128,-37,-46,-151,-425,-1163,324
-446,852,-271,-235,-166,-297,-293,-410,-1176,250
-275,793,-164,-181,-150,-364,-299,-303,-896,-19
539,746,13,0,-140,-529,-402,138,952,-373
90,700,236,223,-3,-374,-150,646,1998,-489
318,667,374,230,-57,-311,-22,713,1852,-426
573,632,288,116,-179,-336,5,517,1220,-223
510,587,191,67,-166,-243,86,399,667,-107
377,556,158,75,-76,-123,116,305,319,38
38,519,159,134,29,-43,122,213,173,118
-306,480,54,47,-34,-63,187,270,300,223
-614,456,-42,-17,-46,57,377,435,408,350
-294,433,28,27,-17,58,317,276,74,142
462,416,115,63,-17,-155,-98,-194,-319,-224
425,391,186,192,148,-194,-400,-501,-466,-187
-3,357,170,197,141,-227,-420,-412,-269,-24
14,334,122,126,24,-241,-358,-326,-150,-34
530,314,52,22,-53,-192,-323,-295,-72,3
791,305,-7,-49,-96,-147,-289,-277,-30,151
751,285,-47,-58,-119,-101,-219,-240,-70,393
471,259,12,0,-62,-54,-124,-156,-57,500
332,237,105,61,4,-35,-59,-54,33,529
255,234,231,161,92,29,16,31,136,466
-73,112,249,213,162,87,74,99,197,168
-386,-452,172,139,121,52,92,272,525,-21
-665,-847,98,72,30,0,88,417,728,-212
-448,-1453,61,5,-45,-65,10,224,325,-372
-137,-1358,97,21,-41,-17,14,50,-79,-370
174,-864,55,-48,-118,-57,-27,-70,-215,-388
302,-523,-3,-101,-174,-112,-64,-67,-125,-252
180,-87,-41,-115,-199,-132,-52,-5,-58,-79
96,240,-117,-190,-269,-201,-38,88,33,113
-19,355,-105,-140,-193,-149,-5,105,9,217
-298,141,26,43,58,38,81,57,-99,60
-323,-22,-12,28,148,202,141,1,-233,-91
-85,122,-184,-126,51,269,140,-36,-306,-78
-55,158,-297,-217,-70,226,201,33,-188,-66
-84,109,-325,-206,-82,184,183,97,88,-43
38,-256,-140,-39,80,220,77,-24,0,16
165,-960,-88,-20,70,210,70,-48,-159,142
181,-1725,-183,-128,-106,34,41,0,-175,295
27,-2023,-308,-171,-154,24,71,26,-154,217
-117,-1954,-254,-129,-102,101,117,49,-118,34
-409,-2285,-106,-62,-48,158,181,174,21,-63
-739,-2428,-26,-25,0,169,255,316,185,-10
-603,-2398,49,61,130,223,230,256,185,62
-221,-2233,204,191,244,156,36,24,-18,-49
264,-1891,251,234,251,-8,-184,-197,-246,-251
748,-1731,94,105,101,-163,-302,-239,-203,-153
667,-1657,50,33,35,-158,-212,-105,11,167
-10,-1666,117,124,155,-13,-53,-35,39,214
-235,-1573,126,145,184,8,-103,-139,-67,225
115,-1389,179,141,164,-27,-168,-199,-83,384
86,-863,181,161,173,0,-116,-136,-85,295
86,187,24,3,-20,-147,-188,-195,-267,-32
-4,141,-79,-129,-172,-272,-265,-276,-364,-209
136,-249,-40,-83,-125,-216,-201,-246,-287,-159
428,-562,-96,-65,-95,-130,-103,-167,-156,-41
564,-800,-75,-23,-22,53,142,40,27,-29
349,-831,17,13,74,213,323,178,56,-54
-15,-474,15,-12,61,187,292,163,-22,2
-327,-444,-74,-68,27,116,207,107,-132,-60
-469,-492,-105,-41,84,103,149,51,-222,-75
-474,260,-16,100,156,141,34,-201,-568,-140
-284,816,-98,-24,14,41,-114,-349,-663,9
-303,895,-122,-46,77,169,-7,-327,-761,179
-335,913,-98,-31,107,233,74,-204,-551,375
-549,1024,-94,-79,18,111,73,118,215,596
-597,1142,-30,-1,88,125,153,323,370,322
-109,1300,58,82,116,43,36,79,-254,-230
698,1140,-9,-80,-124,-231,-302,-210,153,-655
581,1061,18,0,46,85,25,8,261,-377
326,828,33,63,185,341,341,155,198,-201
310,112,-16,23,150,368,339,184,143,-41
309,-2461,-112,-83,-2,231,233,49,23,-36
72,-4504,-211,-178,-161,16,101,-60,-79,-17
-112,-4081,-361,-284,-277,-208,-19,-63,47,236
-97,-3346,-302,-332,-314,-375,-140,-26,248,506
-433,-3191,-166,-225,-183,-319,-93,75,100,272
-432,-3830,3,-56,-27,-234,-51,91,-173,-118
70,-5677,125,-2,-51,-361,-233,-35,-308,-253
287,-6769,126,-48,-160,-505,-420,-132,-171,-257
172,-6390,235,97,-1,-369,-336,30,348,-190
-22,-5831,379,299,250,-122,-194,215,786,-272
88,-6048,440,333,275,-47,-111,231,787,-370
211,-6483,339,222,145,-64,-19,204,523,-203
275,-6764,333,235,152,-46,8,104,113,-62
336,-6820,328,248,173,19,38,63,-207,35
379,-7205,254,165,67,2,85,91,-326,112
146,-7309,86,69,1,49,144,22,-500,77
-129,-7115,-64,-3,26,80,55,-265,-882,0
-225,-6901,-205,-128,-67,42,50,-230,-805,88
-258,-6261,-383,-296,-219,59,177,107,-190,141
-449,-5440,-310,-214,-122,136,159,153,359,-68
-250,-4546,-83,2,90,136,29,171,883,-213
-45,-3421,26,110,189,95,3,359,1204,-166
-8,-2458,8,87,183,54,15,263,700,-59
67,-1312,-43,8,127,24,-56,55,80,136
211,0,-101,-59,10,-3,-154,-69,-157,287
126,932,-192,-62,-5,51,-143,-78,-137,455
-189,1488,-247,-81,-12,73,-73,-57,-68,430
-296,1236,-91,-30,34,75,-33,-16,106,328
-235,-345,93,109,159,169,32,29,226,126
294,-1720,6,62,48,41,-84,-146,-66,-144
741,-1409,-66,-65,-106,-83,-90,-228,-308,13
466,357,-82,-81,-63,47,75,-212,-466,-66
21,2086,-58,9,54,217,207,-183,-484,-396
-166,2274,-66,-2,23,247,302,49,-168,-434
-397,1535,-144,-113,-81,246,424,319,159,-220
-766,888,-202,-171,-136,210,448,439,364,-188
-783,1704,-250,-193,-198,13,226,369,386,-373
-517,3236,-232,-162,-149,-15,65,199,218,-401
-392,4193,-108,-103,-114,-28,20,140,145,-167
-389,4504,11,-7,-69,-129,-51,119,135,26
-427,4526,129,139,76,-168,-122,106,95,134
-225,4678,283,333,281,-64,-139,1,-76,86
-102,5501,275,297,255,-30,-145,-49,-212,-55
187,6072,107,109,56,-208,-292,-173,-361,-134
705,6098,-5,-41,-134,-385,-475,-419,-588,-183
806,5817,32,-6,-118,-303,-413,-449,-533,-75
436,5256,179,155,19,-128,-228,-266,-235,-30
316,4865,202,155,-2,-175,-204,-136,45,96
306,4571,126,82,-69,-232,-188,-114,-20,203
164,4341,69,72,-10,-140,-98,-122,-249,163
129,3958,7,15,-38,-86,-45,-94,-289,161
257,3686,-19,-52,-127,-59,-17,-33,-224,272
301,3599,-132,-163,-199,38,32,-14,-194,295
198,3366,-254,-201,-193,94,24,-40,3,230
-102,3139,-188,-147,-132,104,63,164,488,215
-384,2952,-125,-110,-141,0,-18,159,416,-17
-267,2885,-26,-73,-154,-141,-143,-45,113,-175
136,2827,-67,-58,-111,-151,-141,-32,92,-17
396,2767,-129,-5,-26,-96,-208,-97,34,71
185,2722,-56,-21,-16,-94,-252,-64,61,140
-207,2544,14,52,105,-32,-230,-45,23,19
-409,2323,46,117,231,30,-169,-85,-74,-113
-230,2030,122,76,240,36,-149,-115,-182,15
24,1218,211,116,237,133,16,50,-106,449
291,1161,150,24,91,33,-46,-42,-138,548
295,1000,168,59,77,43,-47,-52,-68,372
134,823,116,38,46,35,-25,26,96,-230
-76,989,36,0,-15,55,59,25,33,-615
-622,1249,5,4,-76,77,192,109,3,-551
-660,1415,-56,-68,-205,-16,239,244,104,-289
-72,1571,11,-79,-242,-114,221,275,46,-51
348,1710,225,137,-7,-104,88,79,-247,-75
117,1729,253,272,186,-40,-67,-168,-547,-149
67,1690,81,107,22,-173,-214,-310,-578,206
242,1603,-80,-97,-191,-334,-309,-306,-515,821
420,1501,-139,-169,-247,-340,-324,-289,-546,1064
507,1421,-104,-147,-210,-274,-291,-254,-483,810
355,1327,12,-48,-106,-194,-225,-117,-165,137
151,1220,63,13,-8,-103,-137,63,272,-474
50,1139,-35,-54,-7,-60,-10,172,620,-373
-259,1069,-117,-80,-15,31,198,316,831,-218
-244,1015,-76,-31,27,157,342,427,765,-237
38,973,88,52,63,193,340,371,473,-239
19,917,74,50,91,291,341,180,115,-289
212,867,-100,-42,61,348,323,35,-40,-161
172,826,-137,-73,82,394,408,135,-6,137
-443,767,-90,-26,138,360,407,194,-130,83
-1274,723,-66,22,166,211,298,217,-156,-217
-1138,686,-139,-37,69,-36,9,74,-156,-295
171,637,-295,-240,-176,-346,-322,-245,-482,-68
547,593,-288,-342,-265,-358,-368,-280,-514,86
341,557,-128,-223,-162,-228,-287,-116,-166,50
182,471,70,-10,-20,-194,-307,-118,102,-32
80,370,133,97,26,-251,-409,-174,333,-16
70,169,244,223,90,-185,-358,-103,564,-49
-179,-148,410,298,161,-55,-207,-20,544,-105
-267,-524,350,261,187,52,-73,-11,308,-44
75,-912,202,153,124,73,-29,-35,63,120
373,-1446,124,83,98,158,47,-29,-144,149
464,-1564,48,46,100,268,141,-70,-287,-53
134,-1492,68,97,176,390,281,-34,-237,-216
-267,-1460,71,121,181,432,332,102,147,-213
-482,-1174,-34,50,125,383,310,198,410,36
-528,-832,-162,1,101,334,354,314,516,283
-627,-646,-187,-41,64,205,371,481,643,418
-698,-487,-130,-23,104,79,255,413,400,72
162,77,-190,-138,-49,-195,-45,41,-121,-401
713,543,-232,-295,-264,-377,-257,-211,-343,-448
299,517,-234,-334,-341,-368,-290,-196,-178,-349
31,206,-91,-160,-161,-218,-224,-153,-47,-245
39,-235,106,60,82,-51,-134,-132,-115,-262
101,-701,115,110,152,93,-19,-66,-177,-198
93,-1300,16,65,100,110,54,-69,-233,-23
154,-1727,9,-3,11,23,38,-121,-301,105
312,-2242,-44,-103,-108,-105,-34,-170,-323,189
414,-2932,-146,-166,-222,-200,-73,-146,-228,259
367,-3304,-175,-162,-266,-269,-78,-79,-74,320
173,-3406,-66,-8,-104,-171,-12,-7,52,354
83,-3386,64,115,43,3,71,-3,-12,305
259,-3173,181,122,66,96,109,-34,-92,198
456,-2349,65,-70,-146,-11,89,95,90,248
281,-1805,-78,-197,-265,-65,28,103,221,391
-307,-1406,-27,-82,-84,139,46,-97,-4,179
-917,-1106,10,39,110,357,115,-198,-235,-395
-836,-1068,-66,-24,52,257,48,-127,-124,-552
-422,-913,-95,-36,-26,95,-29,-99,-99,-220
-194,-1150,-74,-60,-102,-129,-127,-45,34,61
29,-1642,-116,-120,-135,-219,-125,31,192,195
261,-2353,-269,-242,-200,-127,59,154,183,366
371,-3093,-179,-151,-123,-27,121,125,38,302
147,-3427,192,127,90,-16,-52,-64,-131,-31
-171,-3888,332,251,160,-126,-170,-64,-62,-209
-430,-4734,185,224,195,-54,-107,30,148,-138
-360,-5277,53,129,162,-27,-58,161,443,111
-103,-5662,142,99,125,-3,36,285,490,362
-176,-5638,200,166,175,83,98,235,229,121
261,-4640,137,65,41,-68,-112,-41,14,-308
508,-3812,191,68,5,-130,-216,-156,40,-462
270,-3295,206,128,73,-36,-153,-151,-101,-350
191,-2718,118,97,93,61,-36,-92,-242,-159
126,-1769,76,52,50,113,43,-55,-337,-197
-50,-462,26,21,16,146,148,-77,-482,-391
-274,2323,-88,-57,-33,226,375,62,-410,-359
-431,5210,-251,-200,-142,306,606,263,-137,-146
-427,5660,-367,-317,-273,235,608,351,163,23
-395,5356,-197,-51,13,210,319,67,-73,-161
-214,5034,-20,202,287,201,82,-212,-364,-325
23,4721,-14,156,211,126,-27,-259,-340,-170
-15,4411,-138,-41,-19,38,-80,-85,-39,79
59,3970,-198,-119,-93,26,-141,-70,7,168
368,2956,-63,-81,-24,89,-187,-161,-87,262
613,1934,161,46,94,65,-238,-158,8,448
855,1583,319,180,193,15,-263,-100,223,600
438,1720,366,261,274,59,-138,30,435,557
-834,2038,403,368,358,143,-26,129,421,-159
-733,2682,236,206,152,-42,-151,128,406,-571
2,3015,12,-34,-145,-249,-256,155,388,-234
125,2893,-119,-81,-220,-222,-171,163,295,78
71,2665,-7,-25,-166,-110,-109,50,145,176
165,2326,82,23,-43,105,-25,-38,15,248
544,1724,-17,-65,-125,105,62,52,50,474
622,941,-58,-168,-272,-27,76,112,98,504
-175,192,-77,-143,-219,-26,68,105,96,228
-703,-333,-24,-9,-23,96,138,125,-31,-195
-464,-437,9,32,59,120,122,-46,-455,-560
-52,-552,-8,15,83,73,-55,-294,-740,-388
38,-796,-19,1,81,19,-180,-352,-791,-217
74,-1762,-16,-69,-54,-135,-272,-372,-789,-77
337,-3123,-113,-117,-144,-263,-276,-255,-210,534
420,-2946,11,-60,-73,-172,-183,-123,-80,625
438,-2581,74,-39,-109,-249,-296,-233,-244,574
308,-2300,67,-42,-107,-183,-276,-252,-186,208
-16,-2132,115,22,-33,-38,-105,43,407,-261
-215,-1748,134,55,25,111,131,341,849,-326
-309,-1889,101,44,59,241,339,460,741,-256
-156,-2526,60,34,70,258,404,497,613,-105
-214,-3465,-20,-17,40,179,282,348,224,-10
-386,-4320,-113,-76,13,119,173,136,-181,-243
-66,-4759,-122,-81,26,81,72,-73,-398,-455
196,-5318,-98,-74,23,71,28,-149,-504,-359
199,-5973,-61,-46,4,61,56,-117,-455,-204
193,-6573,-52,-48,-32,23,44,-45,49,49
266,-7007,-34,0,13,97,66,48,350,117
452,-7167,0,51,62,96,-8,-6,265,-46
324,-7420,102,135,174,248,56,-55,64,-200
-103,-7637,115,178,258,478,253,38,51,-218
-394,-7656,-15,70,203,536,317,142,70,-56
-931,-7660,-192,-89,55,441,205,174,154,-132
-774,-7292,-272,-236,-148,219,26,107,205,-103
-323,-6798,-233,-224,-168,137,-37,35,212,42
-266,-6333,-172,-172,-104,53,-146,-126,100,-60
-76,-6062,-140,-130,-57,-44,-224,-259,-44,-73
23,-6285,-186,-65,13,9,-115,-182,-83,-50
-226,-6831,-91,29,96,118,69,-3,-120,-196
-257,-7254,38,75,131,136,153,150,-104,-165
108,-7274,11,29,-10,-76,-29,38,-109,-22
293,-7097,-5,-3,-153,-279,-225,-31,156,161
436,-6744,63,-10,-165,-281,-256,72,468,491
951,-5710,55,-76,-185,-297,-350,-31,255,696
1026,-5040,44,-71,-155,-257,-343,-142,-13,912
559,-4801,139,84,35,-82,-152,-46,49,968
724,-4039,285,201,138,-22,-66,-75,-66,689
180,-3181,229,166,120,-34,-85,-96,-49,77
-630,-2412,215,154,96,17,-20,6,123,-592
-718,-1537,193,117,34,43,71,101,208,-812
-396,-623,73,31,-74,-3,87,187,352,-409
-87,374,-16,-26,-136,-69,-41,15,113,-220
-14,1039,-45,-102,-212,-105,-77,-96,-180,-197
-3,1546,-42,-49,-147,6,11,-51,-251,-236
-94,1826,-37,28,-34,165,166,52,-214,-398
-259,2025,37,48,11,311,343,200,-151,-505
-255,1325,-5,-35,-72,245,303,244,89,-308
-192,-902,-137,-123,-129,106,178,228,232,25
-224,-2631,-109,-105,-18,192,192,95,-125,111
-340,-4863,-57,-45,119,308,251,-78,-535,-117
-212,-5035,-106,-122,-5,181,157,-103,-527,-201
-115,-3155,-170,-215,-125,87,85,-13,-178,-97
-84,-1612,-96,-113,-63,55,-9,-18,30,-69
31,-1578,-33,0,38,-4,-158,-117,154,-76
12,-2556,-57,27,19,-104,-287,-139,283,-45
-25,-3575,-17,7,51,73,-170,-102,177,-103
118,-3412,-26,-67,31,241,-11,-24,93,-86
144,-2359,-15,-57,49,304,84,96,116,-11
61,-1354,74,58,112,312,91,61,13,9
313,-758,56,15,5,139,-82,-161,-197,68
549,-1281,-6,-60,-108,-22,-273,-292,-208,198
409,-2455,-41,-35,-77,56,-218,-172,-44,253
106,-3510,67,43,0,177,-114,-56,4,187
65,-3815,85,33,-42,93,-238,-120,-105,76
312,-3781,18,-72,-127,-48,-333,-95,-65,80
345,-4120,36,-77,-92,-5,-209,58,27,130
144,-4270,74,-29,-10,137,-59,88,-25,97
-140,-4056,231,193,298,355,-3,-109,-292,-97
-190,-3820,192,183,266,296,-84,-236,-329,-86
-260,-3564,31,42,72,158,-106,-162,-4,-51
-57,-3352,-25,-20,-44,102,-44,38,515,75
37,-3137,17,40,9,168,99,204,556,56
-221,-2916,4,62,40,197,161,250,375,-151
-149,-2702,-55,-21,-61,97,98,211,216,-122
-55,-2535,-101,-81,-108,37,33,168,136,-40
-281,-2407,-57,7,-1,79,70,98,33,-122
-223,-2245,-51,-2,36,121,95,25,-98,-181
111,-2128,-103,-103,-28,208,180,32,-105,-47
244,-2042,-113,-104,-15,255,259,54,-51,52
401,-1952,-117,-67,26,220,275,78,-65,234
360,-1856,-100,-47,43,237,354,184,-38,379
-178,-1748,-110,-36,40,152,308,180,-92,86
-600,-1643,-180,-94,18,30,132,-20,-238,-207
-489,-1541,-104,-57,-3,-106,21,-66,-241,-63
-90,-1445,65,47,49,-178,-40,-10,-165,166
113,-1361,116,76,97,-56,-10,-9,-117,372
6,-1277,55,104,160,151,100,-28,-70,171
12,-1198,56,83,128,177,14,-273,-362,-231
-122,-1120,12,26,41,149,-50,-410,-584,-394
-303,-1059,7,28,38,157,-15,-344,-616,-355
-58,-991,55,52,2,27,-39,-238,-480,-140
256,-923,65,33,-72,-111,-70,-120,-227,-8
183,-872,-82,-73,-194,-248,-141,40,157,40
18,-827,-182,-139,-253,-345,-272,20,185,5
72,-778,-108,-210,-355,-444,-343,87,380,391
-176,-735,-69,-175,-278,-319,-171,296,615,694
-198,-690,133,43,-23,-94,-24,307,662,656
-123,-646,327,263,245,46,-70,119,543,359
889,-601,250,141,110,-114,-275,-218,86,84
1606,-555,216,48,-34,-184,-308,-270,-71,104
1250,-520,283,167,102,-5,-127,-149,-95,54
450,-470,260,224,184,35,-8,49,98,48
-428,-308,149,168,154,-20,57,240,350,36
-718,226,122,157,158,-47,61,187,169,-126
-536,1266,88,154,153,-22,42,14,-301,-352
-399,2664,-20,99,91,-47,-22,-99,-498,-333
-247,3929,-12,26,-16,-151,-97,-105,-355,-279
-41,4606,-18,-4,-84,-218,-103,-89,-201,-242
63,5159,-88,-87,-162,-251,-93,20,114,-127
-46,5511,-148,-141,-195,-178,38,271,602,51
-194,5801,-207,-155,-217,-151,121,387,805,212
-404,5587,-131,-113,-170,-114,83,211,455,239
-502,4941,-107,-61,-37,-9,25,39,124,221
-366,4456,-101,-57,7,13,5,-23,-109,163
-36,4378,-185,-196,-179,-142,-29,-76,-288,35
191,4363,-306,-372,-333,-218,26,-30,-218,-72
311,3903,-323,-352,-334,-229,-10,-66,-57,-170
221,3448,-211,-158,-161,-143,-40,-69,-29,-200
-249,2923,84,129,131,38,3,-53,-135,-250
-583,2371,144,199,243,166,91,16,-157,-113
-247,2126,12,73,173,174,83,-2,-73,45
123,2008,51,85,193,198,77,-84,-153,22
-20,1702,187,250,335,267,93,-78,-154,-168
-115,1271,157,181,244,137,58,-27,-173,-54
-105,711,109,73,113,6,37,-52,-336,100
-99,64,-1,-37,9,-86,32,23,-160,186
159,-598,-128,-130,-95,-138,-15,9,33,154
407,-1296,-193,-145,-114,-187,-64,-50,191,168
333,-2016,-257,-131,-103,-161,0,-28,202,191
130,-2676,-209,-83,-46,-54,102,22,177,106
32,-3213,-208,-59,-51,-43,182,169,268,93
122,-3426,-237,-108,-148,-194,125,202,274,68
137,-3415,-166,-80,-143,-284,38,202,347,111
0,-3445,70,84,49,-114,80,165,270,161
49,-3413,223,175,183,111,164,154,96,218
13,-3265,286,218,223,142,158,168,25,196
91,-3030,144,81,77,-89,-45,84,113,149
-108,-2816,-34,-59,-46,-256,-207,-229,-62,-147
-154,-2721,101,67,168,38,-23,-270,-346,-387
-225,-2627,137,142,297,249,195,-135,-435,-478
-375,-2559,88,108,241,240,201,-140,-524,-529
-258,-2420,-29,-25,38,40,66,-138,-451,-392
-91,-2280,-204,-127,-126,-169,-30,8,-121,-130
154,-2156,-141,-141,-192,-335,-153,54,175,66
157,-2040,21,-38,-117,-353,-291,-33,266,40
29,-1921,127,66,-14,-207,-229,77,507,79
56,-1803,147,62,9,-108,-105,200,628,234
90,-1684,85,-9,-45,-137,-95,87,351,218
62,-1577,128,39,-29,-130,-118,-89,13,-5
-96,-1481,145,74,3,-74,-85,-81,-77,-189
-5,-1386,63,-7,-32,-95,-79,-35,-61,-186
155,-1296,40,-22,-26,-126,-122,-78,-133,-76
157,-1221,93,54,45,-79,-96,-106,-201,-23
196,-1132,115,114,64,-74,-85,-102,-226,55
230,-1044,47,54,16,-62,-27,-48,-213,146
121,-978,-105,-83,-61,45,168,36,-197,139
-102,-919,-287,-208,-150,177,336,68,-157,192
-461,-885,-353,-181,-89,368,424,3,-248,120
-251,-866,-224,-52,60,486,453,-77,-426,66
381,-826,-152,-17,114,403,392,-144,-540,-25
436,-780,-120,1,105,148,190,-265,-635,-297
-239,-735,-207,-127,-79,-194,37,-98,-331,-432
-788,-686,-213,-166,-134,-339,-53,82,80,-348
-213,-642,174,55,44,-183,-57,404,603,148
17,-603,239,72,32,-245,-191,295,578,207
149,-557,197,45,-4,-360,-348,126,525,211
250,-512,175,165,98,-303,-381,-21,375,206
386,-484,198,199,60,-342,-368,-52,251,164
467,-450,255,173,16,-334,-289,-57,155,243
397,-414,230,177,110,-127,-117,-7,139,370
-155,-384,176,165,145,-5,29,191,281,441
-576,-330,132,128,93,-93,-55,138,218,332
-408,-222,102,89,82,-161,-250,-138,-24,17
-48,-8,24,-34,-1,-203,-318,-262,-163,-237
508,118,16,-92,-47,-189,-245,-261,-264,-256
499,37,20,-58,-36,-94,-93,-169,-241,-151
214,-73,59,1,29,27,68,-46,-196,-45
61,-101,67,51,82,100,176,-8,-234,3
85,-33,-26,28,30,89,165,-106,-430,150
60,117,-52,-71,-89,19,130,-147,-526,203
20,385,-78,-121,-174,-79,99,-91,-502,221
-125,688,-69,-95,-140,-95,56,-139,-586,118
-79,1172,-6,-32,-75,-83,-5,-175,-574,-85
-141,1935,-10,-11,-70,-72,8,-56,-367,-213
-98,2602,-121,-109,-161,-91,-11,-33,-174,-110
41,3068,-136,-130,-194,-157,-96,-22,112,-26
110,3351,-92,-72,-109,-60,-31,57,310,20
23,3377,-60,-11,49,216,240,161,226,-78
-232,3183,-196,-121,3,311,400,243,246,0
-252,2859,-262,-201,-66,256,406,343,418,229
-202,2606,-102,-48,9,144,225,201,203,43
-136,2232,4,9,-21,-29,21,55,39,-167
-442,1324,-80,-35,-54,-74,10,156,405,-219
-653,544,-126,-6,31,3,69,265,685,-354
-567,126,-58,41,56,-65,-3,258,561,-362
-109,-214,46,65,16,-221,-209,83,312,-87
466,-488,119,77,-12,-274,-266,38,431,462
598,-655,226,125,8,-218,-201,156,706,788
494,-589,289,187,82,-104,-135,152,630,819
-183,-559,238,209,159,25,-50,54,329,479
-507,-507,71,81,75,0,-48,-77,-80,-323
113,113,-53,-72,-104,-137,-130,-197,-359,-753
354,697,-125,-131,-165,-147,-104,-210,-464,-700
113,788,-44,0,5,11,68,-127,-534,-553
-215,656,51,112,137,147,206,-66,-480,-389
-282,481,20,50,84,169,266,2,-318,-228
-47,402,-1,-10,3,111,172,-22,-171,-63
-65,60,-56,-40,27,130,137,-13,-35,-77
-196,-438,-108,-60,22,100,97,-24,-54,-154
-150,-891,-69,-24,27,13,20,-29,-21,-75
-80,-1205,-36,3,5,-126,-152,-144,-166,12
-65,-1401,-86,-89,-74,-167,-166,-197,-249,36
-16,-1412,-132,-193,-186,-162,-99,-158,-248,77
125,-1197,-51,-152,-174,-177,-147,-200,-196,91
132,-1000,72,20,15,-65,-146,-176,7,124
179,-728,41,29,39,48,-45,-45,285,287
142,-368,-99,-60,2,217,145,166,580,363
89,111,2,58,134,381,282,272,506,128
266,864,-41,80,95,243,158,152,255,-68
539,1572,-142,-53,-118,-131,-111,20,137,40
450,1794,4,8,-58,-209,-170,-10,45,164
193,1583,83,111,115,-55,-60,-31,-80,118
-127,1245,36,54,73,-93,1,-11,-155,-155
-529,674,103,74,47,-104,84,88,-136,-264
-689,81,176,140,94,-76,74,128,-36,-182
-374,-31,179,146,112,-75,-14,25,-92,-135
137,-192,118,77,33,-72,-13,0,-109,-49
214,-815,43,70,52,61,122,43,-16,41
213,-1304,49,120,90,140,241,72,0,52
257,-1419,103,83,36,67,247,82,-51,2
-127,-1391,52,34,20,-44,136,-43,-245,-217
-403,-1249,16,-14,-7,-201,-57,-175,-357,-354
-306,-990,15,-43,-18,-238,-121,-174,-307,-232
-103,-624,19,-38,25,-148,-101,-163,-294,-105
79,-110,5,-42,43,-62,-65,-112,-312,-4
148,425,-54,-111,-75,-123,-116,46,121,181
137,818,-71,-149,-154,-167,-137,174,590,347
83,1019,-13,-114,-93,-49,-32,164,530,355
80,888,12,-81,-33,77,72,168,386,364
90,685,46,-12,3,114,99,207,404,236
176,427,75,39,24,73,35,115,323,36
338,187,37,-3,-30,0,-1,22,183,51
424,-168,17,-43,-79,-104,-81,-84,-7,-39
-49,-865,-10,-40,-71,-125,-91,-102,-105,-244
-484,-1393,-29,-40,-49,-74,-15,-40,-52,-209
-226,-1523,6,-30,-52,-80,-32,-85,-68,-26
89,-1514,-39,-28,-49,-75,-26,-110,-88,37
164,-1254,-50,-15,-21,-3,93,-33,-79,39
31,-877,63,63,56,90,124,-58,-199,-20
-63,-490,79,87,106,103,76,-77,-168,-43
-82,-53,42,50,102,50,15,-48,-132,-50
-23,443,-24,49,101,-27,-56,-73,-163,8
95,961,-92,-2,2,-163,-167,-34,-6,143
100,1346,-35,-33,-52,-204,-216,-13,66,165
-13,1456,14,-1,-43,-161,-183,-27,-11,147
-17,1377,30,7,-60,-136,-121,-37,-53,125
-107,766,20,-31,-89,-70,-38,-7,108,-124
-214,182,22,48,-15,-13,4,50,187,-141
-261,-340,73,111,73,75,68,42,156,-154
-73,-487,-20,1,-10,90,136,56,134,-105
148,-193,-137,-140,-122,71,116,-43,-31,-72
-40,-152,-157,-127,-54,178,157,-87,-131,-40
-305,-236,-198,-73,48,304,274,8,-117,-87
-367,31,-204,-33,97,324,313,80,-125,-161
-493,72,-233,-52,57,258,271,109,-112,-128
-218,230,-357,-245,-171,53,185,140,-27,84
191,425,-271,-296,-224,-22,148,116,-85,403
372,724,7,-14,31,105,41,-110,-330,425
359,1208,102,158,197,169,-23,-260,-508,121
190,1553,-55,49,92,96,43,-149,-393,-141
-195,1407,-128,-8,43,86,58,-109,-201,-569
35,1264,-12,33,55,68,40,-121,-122,-572
133,999,105,122,136,140,75,-73,-315,-396
14,511,141,163,191,205,99,-38,-592,-271
2,-16,93,179,203,91,-39,-127,-610,-98
60,-426,182,134,113,-143,-320,-263,-379,114
71,-814,309,124,52,-269,-478,-405,-229,154
100,-1167,307,154,100,-211,-430,-315,4,72
120,-1279,242,142,84,-192,-354,-82,407,134
161,-1177,156,126,28,-220,-249,135,727,323
361,-913,127,81,-26,-217,-121,216,637,456
486,-256,70,0,-113,-215,-48,91,126,414
205,1437,-33,-86,-192,-202,-16,32,-164,283
-320,2752,-132,-139,-230,-144,52,134,65,63
-660,2993,-256,-147,-225,-72,132,345,554,-46
-661,3000,-180,-122,-188,38,278,472,761,-15
-203,3422,-136,-77,-164,74,305,390,624,-109
603,3870,-125,-96,-178,-46,112,202,515,-167
912,3784,11,-52,-112,-77,-30,48,323,-106
510,3140,3,-72,-132,-103,-49,95,262,-57
-9,2392,-65,-173,-264,-197,-88,139,346,33
-110,1822,72,9,-36,7,-95,-55,107,-9
-27,1259,155,169,206,285,-3,-214,-129,-48
99,1464,120,132,179,303,31,-249,-189,-11
237,1569,89,67,129,255,72,-285,-390,84
229,1019,-2,12,118,200,86,-335,-665,181
16,558,-128,-87,1,-3,39,-280,-709,249
-171,443,-205,-189,-173,-270,-78,-136,-553,345
47,574,-121,-167,-236,-408,-268,-92,-316,564
40,778,0,-113,-187,-323,-298,45,297,894
-100,1047,149,53,14,-79,-119,300,921,839
-283,1446,211,182,155,22,-79,282,846,103
934,2671,171,44,-75,-236,-377,-378,-299,-494
947,2389,232,128,53,-35,-136,-168,-40,-150
-500,1610,279,265,259,283,216,130,43,-430
-1597,815,267,307,328,410,377,321,99,-952
-885,1015,187,164,171,219,203,179,12,-994
-147,1283,150,94,103,129,139,167,113,-576
-29,1186,106,60,34,32,113,181,90,-282
61,1441,18,-55,-93,-62,33,111,42,-101
56,1453,-90,-154,-178,-125,-8,95,210,0
67,1428,-135,-175,-201,-59,29,96,135,-6
22,1479,-164,-165,-139,65,116,23,-119,-56
-124,1730,-140,-83,5,89,90,-33,-130,-26
-97,1677,-80,28,117,58,3,-71,-108,25
167,1537,-85,6,42,-80,-82,-56,-21,225
163,2710,-63,-13,12,-88,-86,11,140,334
100,8687,43,64,89,-48,-100,-26,82,223
-191,13743,134,131,156,3,-66,17,66,110
-476,12083,168,171,216,83,-1,117,116,113
-458,10454,118,135,197,93,18,91,15,202
-189,9649,-40,-40,31,-9,-31,-40,-138,198
175,8757,-162,-176,-88,-66,-82,-186,-313,4
164,7792,-163,-131,-7,111,44,-116,-211,-23
-254,6626,-56,0,131,319,206,75,115,89
-686,5342,49,132,231,418,330,268,357,-78
-369,4503,40,135,167,371,301,261,328,-283
323,4571,-59,15,15,202,88,-79,-54,-393
359,4678,-122,-100,-64,163,120,-193,-299,-336
-24,4230,-175,-143,-45,135,154,-123,-403,-203
-575,3341,-120,-92,-16,-144,-16,-120,-504,-58
-279,3084,-75,-36,-41,-248,-79,-120,-372,110
52,2932,-115,-47,-135,-338,-169,-68,-102,240
406,2924,-86,-90,-186,-342,-229,10,254,157
619,2612,67,45,-43,-231,-217,54,322,-18
448,1893,196,179,101,-131,-213,25,114,-79
324,1259,125,190,88,-134,-184,49,-22,-29
315,573,50,159,32,-120,-83,27,-183,-25
257,-219,55,81,-9,-31,55,-50,-328,-108
84,-1001,2,-43,-94,55,164,-15,-203,-152
-72,-1650,-88,-144,-182,73,256,100,30,-120
-151,-2273,-252,-250,-243,71,394,237,150,-55
-170,-2764,-314,-239,-247,-16,352,246,105,-74
-288,-2928,-201,-142,-168,-119,97,34,-45,-173
-219,-2897,-359,-325,-265,-67,125,99,44,-54
1,-2849,-435,-427,-324,-13,205,200,93,63
160,-2667,-200,-176,-76,7,0,-57,-111,15
121,-2554,17,119,198,-2,-309,-349,-328,86
56,-2326,-19,60,125,-104,-448,-422,-484,364
336,-1909,-2,-17,24,-247,-569,-486,-616,660
368,-1877,101,40,60,-256,-525,-322,-326,753
179,-2248,334,284,284,-35,-355,-195,-121,439
406,-2681,459,384,369,92,-206,-105,60,80
252,-3024,456,328,255,-24,-218,28,585,-52
-288,-3424,302,281,202,-66,-169,265,1058,-134
-362,-3606,223,243,195,17,-52,263,839,-246
-166,-3734,217,180,136,93,53,220,559,-247
-50,-3769,167,141,111,163,140,185,302,-412
106,-3699,-27,29,17,126,166,88,73,-400
220,-3550,-57,-39,-66,68,185,76,11,-174
67,-3279,10,-15,-52,37,203,112,-9,-131
-25,-2865,19,-4,-47,-50,135,89,-60,-97
-128,-2390,-43,-78,-117,-124,63,87,-39,-40
-349,-2013,-173,-112,-87,13,93,46,-83,-146
-277,-1648,-136,-75,-7,126,96,56,-45,-4
194,-1125,5,-55,-53,-12,-21,61,11,298
501,-461,130,58,-17,-173,-249,-147,-160,342
333,176,106,29,-84,-225,-276,-203,-277,338
168,166,-90,-116,-166,-97,-90,-165,-381,266
105,-274,-219,-251,-230,20,115,-59,-351,231
45,-835,-212,-209,-207,40,249,90,-182,89
-114,-1280,-137,-58,-102,-36,99,-49,-222,-377
-323,-1576,17,64,7,-93,-90,-218,-286,-529
-444,-1895,-15,11,-28,-110,-110,-108,-101,-283
-430,-2101,-83,-89,-77,-94,-96,23,159,-103
-67,-2023,-16,-63,-24,29,-86,-45,29,-48
347,-1586,-58,-129,-74,6,-175,-184,-31,35
426,-1055,-254,-280,-204,-138,-307,-208,95,135
72,-823,-339,-346,-251,-150,-263,-141,63,221
-315,-734,-205,-250,-161,-66,-72,-35,-18,264
-714,-672,87,65,123,108,129,106,5,170
-290,525,328,382,420,341,260,-53,-573,-140
287,1296,172,144,159,160,152,-40,-521,-238
182,1397,167,142,158,168,200,101,-266,-96
546,1757,120,88,59,49,37,-1,-50,135
1357,2208,-38,-133,-211,-236,-154,102,632,481
844,1693,-47,-120,-197,-216,-59,367,1218,717
-100,1101,21,24,-17,-18,93,281,826,645
-912,717,81,164,187,176,177,141,383,475
-1964,725,128,241,288,262,145,27,24,-333
-1411,1568,63,136,140,118,30,-78,-215,-961
5,2197,-98,-22,-46,-54,-95,-161,-231,-903
411,2415,-93,15,-4,11,-36,-46,-61,-676
108,2518,-14,48,48,104,85,147,51,-421
373,2986,-12,-9,-16,80,90,159,74,-158
543,3678,-21,-40,-50,64,51,93,-8,39
284,3977,22,-19,-43,64,51,-11,-213,210
-16,4197,3,-54,-76,46,72,-38,-319,319
6,4591,-45,-66,-96,32,46,-85,-390,281
172,4884,4,65,64,150,52,-212,-483,148
185,4749,-80,31,44,196,145,-125,-364,160
-16,4503,-167,-61,-34,122,195,-4,-232,70
-83,4353,-118,1,9,37,123,5,-159,-56
-159,3776,18,61,38,-47,17,23,123,-113
-321,2930,64,77,74,62,131,172,430,-216
-270,2147,76,89,89,142,211,235,432,-207
-71,1669,53,69,41,73,100,137,201,-128
-120,1238,30,70,22,10,-11,9,13,-77
-192,963,23,27,-38,-68,-63,-9,56,-16
-147,929,-47,-105,-218,-221,-110,80,196,117
-193,1023,-109,-150,-279,-220,-29,134,210,143
-264,1029,-82,-105,-160,-87,77,126,197,108
73,1216,-119,-105,0,168,240,88,305,-131
318,1354,-87,-78,30,191,286,85,210,-58
76,1320,32,91,209,231,188,-42,-43,-19
41,1198,7,106,238,203,135,-3,-69,15
168,781,-121,-60,84,68,118,164,43,39
182,312,-227,-185,-48,-86,18,158,18,-66
195,-229,-243,-258,-146,-221,-175,54,77,-30
246,-893,-98,-164,-152,-175,-229,-9,102,58
206,-1647,57,23,-9,26,-156,-75,4,26
42,-2310,181,122,78,40,-229,-197,-96,-1
-160,-2750,200,132,57,-147,-395,-263,-111,27
-104,-2930,109,61,7,-224,-403,-238,-125,44
110,-2741,82,50,23,-154,-317,-183,-107,102
261,-2194,78,59,47,-47,-173,-89,-15,193
217,-1954,127,114,101,83,-28,-41,-66,120
59,-1649,74,61,39,134,31,-85,-248,34
210,-938,-70,-132,-188,-33,-79,-216,-398,45
398,-358,-108,-201,-292,-189,-175,-284,-419,102
304,-36,-142,-213,-260,-121,-78,-192,-339,121
52,-53,-67,-51,-44,91,88,44,-94,68
-541,-395,65,135,221,271,134,157,156,-23
-395,-284,118,115,124,-14,-129,103,361,79
78,-33,118,95,21,-266,-351,-62,214,230
280,-254,-21,80,12,-229,-292,-115,-7,240
159,-844,-51,137,91,-72,-65,23,-26,115
-298,-1368,107,268,249,157,177,153,-3,-114
-345,-1413,97,174,184,206,180,115,-15,-256
26,-1193,-72,-33,-7,121,113,19,33,-82
83,-1017,-148,-154,-138,25,135,43,188,157
102,-695,-113,-207,-223,-110,112,73,79,218
10,-429,104,-9,-58,-151,-58,-94,-158,80
-212,-216,136,56,22,-90,-119,-117,-194,-45
-316,33,-48,-111,-140,-177,-181,-19,-17,-60
-216,49,-83,-183,-235,-138,-80,182,380,58
-124,-62,187,67,3,98,137,325,515,62
-7,378,404,384,330,219,95,122,166,-1
18,3378,328,391,353,152,-4,-11,-25,116
-31,6938,90,177,162,60,36,29,-54,318
0,7034,-20,59,76,99,134,-15,-216,162
64,6041,-118,-34,-20,41,86,-213,-491,-357
410,5809,-163,-150,-147,-87,-78,-376,-544,-471
388,5027,-174,-137,-103,-5,-45,-209,-201,-229
256,3999,-145,-127,-56,98,87,80,213,-65
461,3456,-123,-111,-13,115,125,142,191,-9
-151,2743,-73,-44,79,146,105,97,2,-216
-488,2316,-51,4,161,197,61,53,-147,-358
-334,2404,-23,30,194,204,21,-22,-189,-242
-195,2469,60,117,181,86,-75,-90,-134,-52
-16,2718,62,98,39,-179,-243,-114,64,111
156,3020,60,46,-72,-300,-318,-145,64,205
429,3224,71,4,-149,-358,-353,-215,-97,352
530,3342,66,-8,-127,-281,-247,-106,-109,566
321,3306,110,30,-49,-137,-77,15,3,749
-70,3038,112,43,-34,-61,35,75,74,636
-168,2642,14,-3,-72,-80,15,35,128,325
-296,2273,-57,-18,-47,-37,24,22,208,-139
-295,1801,-52,-57,-50,20,94,90,262,-445
150,1068,-69,-86,-65,60,141,176,275,-419
196,267,10,30,59,103,41,34,29,-451
-143,-631,-9,40,59,74,29,46,-31,-327
-213,-1327,-53,-63,-80,-39,25,142,150,-16
-181,-1697,-96,-100,-130,-119,-23,119,221,153
-300,-1996,-48,26,46,11,69,94,92,-118
-255,-2133,75,61,115,153,215,91,-23,-367
-161,-2147,-49,-131,-84,65,237,150,-10,-245
-23,-1825,-179,-313,-287,-145,133,144,7,13
-38,-1366,-24,-101,-121,-187,-30,-52,-183,23
-101,-1044,4,44,-3,-162,-127,-193,-411,-114
200,-873,-28,-18,-59,-246,-230,-198,-472,8
745,-839,147,137,126,-96,-185,-234,-542,-9
1425,-795,297,261,274,107,-28,-147,-467,-148
1133,-1069,197,227,281,254,120,-39,-398,-126
-780,-1791,-154,-22,74,232,170,-5,-156,-136
-1244,-2552,-316,-144,5,294,248,22,146,-66
-694,-3257,-219,-40,187,499,395,96,323,-3
-820,-3719,-97,7,227,532,488,129,92,-102
-618,-3748,-58,-76,31,257,353,18,-238,-136
-266,-3784,-125,-113,-67,-18,166,-18,-200,-59
-136,-3857,-164,-69,-36,-66,65,95,236,7
-69,-3861,-61,-32,7,4,24,50,252,21
-119,-4045,-71,-57,-23,-61,-74,60,390,61
-82,-3966,47,1,20,-118,-158,123,609,46
213,-3368,102,-7,21,-89,-103,120,494,103
362,-2784,39,-95,-57,-79,-19,79,275,194
293,-2419,-35,-171,-99,47,158,153,252,211
265,-2442,-77,-157,-66,227,304,258,389,331
272,-2397,-42,-116,-125,129,280,416,626,485
58,-2396,160,129,28,-84,-70,143,437,166
-168,-2607,245,219,106,-263,-344,-122,172,-164
-113,-3036,67,18,-44,-279,-308,-72,129,-165
432,-4253,-28,-132,-175,-176,-291,-245,-248,67
256,-4678,72,-9,0,-43,-209,-277,-347,254
152,-4971,174,111,152,119,-60,-244,-430,111
10,-5494,220,169,139,96,44,-162,-361,-231
-164,-5215,253,226,145,45,14,-66,-72,-357
-268,-4718,159,112,43,-57,-55,73,216,-304
-373,-4104,32,4,-5,-64,-49,127,241,-333
-262,-3494,-34,-54,-24,-12,21,165,208,-275
25,-2892,-27,-65,-81,-50,28,120,86,-113
253,-1430,90,40,-15,-88,-172,-286,-487,20
174,-573,19,-2,-40,-93,-221,-320,-482,93
40,-335,-86,-98,-81,-39,-120,-142,-230,183
-189,-333,-129,-105,-58,20,-64,-97,-155,103
-252,-479,-74,-30,14,-11,-101,-162,-207,-3
-158,-844,17,62,63,-35,-91,-89,7,-1
-39,-1239,40,92,96,27,1,60,201,17
265,-1359,5,40,27,-7,-12,63,72,13
503,-1351,-68,-66,-105,-169,-109,20,56,66
406,-1427,-130,-156,-204,-227,-97,78,171,192
245,-1365,-152,-207,-258,-214,-17,154,271,328
-56,-1232,-76,-194,-248,-156,38,183,304,276
-280,-837,23,-123,-167,-89,-1,32,78,147
307,-324,139,-17,-39,-27,-38,-109,-107,151
864,-12,223,144,127,87,23,-53,-80,35
293,-95,270,199,228,261,172,21,-114,-93
-554,-336,131,147,250,365,252,-96,-449,-204
-729,-295,43,92,196,350,302,-135,-642,-144
-473,-174,11,89,129,288,291,-185,-732,-176
-205,-140,-144,-18,-13,134,171,-281,-710,-410
-42,-143,-303,-188,-140,16,53,-241,-282,-493
60,-442,-297,-243,-134,69,151,105,413,-293
-125,-935,-181,-187,-72,124,320,504,780,-190
-148,-1209,-94,-150,-103,-69,173,416,412,-118
70,-1373,20,-20,-16,-219,-185,72,-70,-18
157,-1622,105,102,60,-292,-404,-166,-248,103
258,-1755,133,48,-48,-351,-431,-209,-168,314
334,-1765,176,29,-107,-385,-470,-105,233,522
288,-1788,185,48,-92,-345,-422,89,677,593
305,-1712,153,47,-30,-242,-256,178,786,399
131,-1694,144,75,81,-74,-45,199,577,153
-61,-1684,170,159,210,95,55,157,304,-39
82,-1356,111,127,180,102,-3,16,39,-97
167,-1038,3,29,64,98,74,46,-2,165
70,-943,-95,-76,-36,140,253,133,3,375
-245,-1105,-147,-84,-47,184,318,89,-160,205
-267,-1470,-88,4,16,196,289,7,-277,-108
-423,-2048,10,82,59,211,311,98,-124,-366
-257,-2466,23,54,-40,71,171,78,-32,-405
143,-2706,-71,-25,-120,-12,35,-30,-139,-352
225,-3032,-184,-85,-134,24,44,31,-12,-229
130,-3211,-29,-18,-47,73,115,124,76,-104
-55,-3103,154,145,118,88,38,7,-169,-74
-89,-3120,146,163,133,3,-113,-114,-365,-11
-77,-3095,-25,60,73,6,-155,-166,-400,33
-109,-2937,-168,-58,34,77,-88,-133,-394,-4
-200,-2694,-62,-53,37,73,-69,-164,-418,-79
-198,-2348,43,15,54,43,-96,-154,-137,-59
-128,-1888,53,36,62,45,-88,-31,294,-20
143,-1261,-7,-38,-39,-73,-203,-108,320,89
346,-743,-79,-150,-203,-221,-194,-60,129,361
213,-883,-47,-84,-142,-211,-156,-30,17,359
-77,-1214,-6,62,-10,-121,-82,-28,-80,188
601,-2098,-19,-84,-185,-325,-195,-169,-18,-63
1196,-2590,13,-39,-109,-206,-62,-15,266,370
1047,-3104,40,53,53,47,216,248,396,423
-430,-3503,-6,61,109,162,351,373,315,256
-1595,-3482,-79,68,124,149,297,303,208,-51
-941,-3248,-102,94,135,58,106,52,53,-355
-31,-3013,77,115,98,-39,-24,-135,-130,-397
247,-2801,60,15,-20,-89,31,-12,-64,-171
27,-2401,59,0,-44,-33,58,2,-68,-52
-6,-1838,37,38,46,107,78,-101,-288,-300
113,-1011,-86,-110,-113,45,43,-111,-363,-216
266,-213,-153,-172,-192,-43,-39,-213,-467,22
62,37,-84,-54,-40,37,-46,-290,-470,38
-390,-144,-131,1,48,121,75,-116,-244,-183
-398,-235,-241,-25,65,126,161,8,-53,-355
-314,-516,-111,46,138,154,156,-53,-130,-428
-297,-806,22,91,172,215,135,-127,-287,-406
-264,-994,-54,-20,100,257,204,-63,-204,-207
-294,-1219,-162,-153,-15,197,247,15,-219,-46
-330,-1408,-190,-185,-55,145,254,68,-332,64
-222,-1336,-143,-182,-116,-42,101,46,-345,261
-76,-1101,-102,-151,-123,-157,-88,109,-6,432
76,-707,-2,-84,-132,-220,-210,86,253,326
84,-284,105,58,4,-124,-227,7,514,111
-4,-13,167,174,180,74,-83,59,573,-17
2,330,90,125,109,0,-124,91,638,-38
213,850,124,80,17,-113,-248,90,746,18
405,1307,117,31,-47,-139,-251,10,433,25
330,1344,25,-36,-98,-175,-180,-16,182,101
308,864,-36,-79,-100,-132,-82,30,96,165
367,297,-81,-139,-191,-193,-76,24,48,223
297,-286,-89,-149,-249,-293,-201,-35,15,370
64,-1105,7,65,-29,-143,-191,0,58,252
65,-1690,115,181,90,-21,-64,120,190,76
-75,-1931,87,228,177,121,149,231,212,-140
-47,-1913,-14,232,227,219,265,242,62,-76
73,-1795,-2,138,184,171,177,21,-241,71
-292,-1682,-36,22,100,178,203,-18,-294,123
-319,-1556,-59,-37,61,287,328,89,-239,148
200,-1404,94,58,142,398,344,30,-291,102
119,-1196,231,166,188,363,282,48,-71,-99
56,-784,141,73,75,229,183,158,236,-332
-212,-193,-37,-88,-102,1,46,131,268,-392
-289,439,-74,-81,-121,-127,-80,-17,122,-272
121,986,-11,-5,-42,-169,-194,-144,-23,-198
252,1283,34,17,-21,-155,-204,-152,-66,-124
191,1327,95,60,2,-148,-217,-196,-146,-81
289,1301,162,108,43,-155,-290,-262,-226,-21
103,994,115,117,82,-59,-220,-213,-227,10
-134,717,20,91,69,1,-165,-194,-230,-64
-166,438,-76,-10,5,-27,-147,-133,-72,21
-44,149,-40,-45,-1,7,-53,-56,51,139
20,-72,33,-16,29,47,10,5,36,102
-6,-127,53,10,45,29,-43,-28,-100,-36
-41,94,11,-20,-16,-35,-71,-37,-23,-73
-8,682,-72,-130,-162,-112,9,57,47,26
-85,1040,-111,-190,-254,-147,94,117,-30,108
-132,1424,-92,-153,-237,-168,22,118,97,256
-94,1828,-2,-22,-68,-79,-37,66,32,265
-145,2175,16,49,66,44,-8,-20,-46,104
-111,2401,-72,-21,56,101,-12,-1,188,0
11,2488,-186,-169,-55,80,47,213,455,24
45,2341,-142,-146,-98,15,47,257,420,65
-39,2096,53,30,-15,-76,-73,128,231,-9
-111,1695,69,124,71,-68,-88,82,162,-44
-197,1015,71,114,115,33,11,100,106,-105
105,615,140,79,44,9,-2,4,-24,-210
476,411,137,-27,-88,-56,-53,-100,-148,-262
232,-44,16,-89,-102,31,56,-115,-192,-330
82,-407,-29,-60,-50,65,89,-150,-240,-266
161,-426,-31,-18,-49,47,104,-75,-172,-91
106,-231,-3,56,23,141,172,-36,-190,-57
-23,24,-38,42,46,166,184,-33,-194,-60
-30,412,-91,-29,-60,6,92,4,-200,37
-22,862,-51,29,-45,-79,-3,-81,-336,55
-112,1258,-15,114,47,-32,-42,-225,-516,-39
-120,1644,7,40,16,-28,-51,-305,-688,-76
40,1977,36,10,-3,7,-88,-444,-792,-43
202,2118,-7,-34,-64,-12,-129,-432,-506,106
311,2047,26,-8,-28,-47,-149,-376,-335,95
261,1731,94,65,76,0,-94,-241,-188,68
-292,904,68,84,117,40,49,163,299,108
-574,87,42,53,77,-40,73,259,359,117
-121,-428,33,24,13,-141,-8,126,281,92
304,-907,-32,45,29,-175,-103,91,317,92
279,-1355,-92,21,21,-139,-157,148,477,258
285,-1664,-74,-42,-24,-81,-68,233,622,347
169,-1816,20,-47,-45,-19,72,301,611,210
110,-1765,37,-50,-50,-93,8,246,482,0
90,-1694,102,6,3,-127,-34,145,255,-137
-180,-1393,110,25,9,-122,14,100,40,-214
32,-908,25,-6,-13,-82,73,89,-110,27
132,-468,-80,-91,-87,-68,59,58,-208,263
-395,-225,-207,-198,-157,6,93,38,-282,64
-708,-44,-255,-224,-181,22,129,23,-199,-215
-391,120,-138,-146,-130,21,89,89,153,-315
-68,-88,29,46,59,110,44,153,498,-245
-48,-552,119,133,161,156,76,181,518,-178
-65,-1102,138,111,113,98,82,162,375,-122
7,-1593,64,35,-4,-42,-16,98,279,-27
70,-1853,-48,-67,-105,-121,-72,49,200,78
141,-2009,-1,-10,-42,-39,-59,-14,58,109
311,-2043,121,101,73,110,-2,-90,-109,120
482,-1886,71,54,43,129,45,-146,-247,377
372,-1479,-43,-16,15,92,31,-233,-423,551
-114,-969,-58,-9,65,111,5,-290,-601,369
-457,-632,-185,-31,99,156,41,-218,-575,143
-349,294,-96,-35,96,90,0,-55,-38,-452
-420,805,47,71,174,91,1,67,213,-486
-345,1276,102,116,200,135,76,163,258,-391
106,1709,105,87,137,78,27,71,-4,-365
233,1762,32,-5,3,-91,-98,-22,-167,-292
-6,1618,-40,-91,-107,-225,-203,-99,-180,-158
-273,1236,-41,-70,-88,-177,-162,-38,16,-47
-390,608,-13,-5,5,28,17,54,147,38
-329,209,4,-5,26,143,129,109,256,61
208,125,8,-41,-1,113,108,-4,58,-19
555,17,-26,-58,11,156,172,-95,-125,-16
639,-58,-139,-143,-29,185,259,0,-84,121
472,52,-194,-204,-77,92,214,43,-46,165
-63,303,-121,-81,52,67,78,-89,-192,-70
-351,685,-99,-45,57,5,-51,-140,-317,-308
-173,1134,-117,-113,-34,-144,-173,-54,-211,-31
-200,1313,-9,-26,18,-196,-211,73,22,283
-338,1563,182,170,175,-65,-104,213,205,228
-528,2156,251,273,236,-11,-122,104,71,-103
-143,2899,219,190,135,-107,-270,-164,-157,-245
414,3439,154,33,-46,-227,-313,-171,60,-66
474,3583,15,-13,-107,-167,-198,-99,77,-13
262,3490,-87,3,-53,-31,-59,-108,-113,-104
168,3544,24,24,-39,16,8,-69,-110,-101
190,3561,84,22,-67,-8,47,-7,-120,1
151,3177,97,-5,-105,-60,64,49,-74,108
154,2790,87,51,-13,0,61,33,41,141
165,2483,-70,26,-14,-23,-14,11,79,248
14,2193,-143,-35,-77,-102,-58,-12,15,253
-57,2074,-30,16,-17,-94,-129,-117,-94,135
83,2125,-67,-33,-60,-108,-137,-122,-127,237
-453,2669,-90,-105,-41,68,41,122,455,-160
-290,2472,-52,48,128,176,86,88,292,-162
-199,2080,148,170,264,358,213,-51,-54,-143
-235,1499,105,96,236,424,335,-5,-178,-136
-163,863,5,-18,113,281,269,36,-145,-30
-60,203,-56,-109,-23,76,69,40,4,-32
-41,-629,-135,-132,-91,-23,37,160,273,-92
248,-1443,-169,-177,-176,-152,39,273,425,-39
464,-2211,5,-74,-135,-191,-18,246,406,134
248,-2920,97,58,-11,-83,20,224,331,379
-227,-3296,91,59,-2,5,108,218,179,391
-435,-3088,33,9,-50,5,50,72,-21,315
-244,-2747,80,65,12,-6,-36,-83,-188,240
32,-2286,44,34,-14,-108,-98,-133,-184,15
234,-1846,-77,-38,-112,-251,-160,-84,-18,-59
36,-1572,-29,-3,-78,-242,-127,36,116,30
-222,-1246,124,72,12,-93,-88,3,20,-228
-42,-745,127,74,27,-36,-82,-46,-72,-353
252,-141,49,15,-20,-30,-59,-14,-21,-209
320,67,-76,-27,-60,-35,-68,-32,-58,-113
274,46,-126,-65,-106,-75,-82,-65,-120,-20
222,-186,-85,-118,-151,-105,-32,-80,-135,67
139,-644,-30,-58,-80,-71,-22,-168,-157,37
-52,-1554,145,149,182,190,115,-63,-152,-80
-47,-1758,21,25,81,255,276,59,-178,-119
-175,-2077,-152,-161,-85,244,365,157,-57,-138
-245,-1951,-256,-261,-196,146,312,201,41,-161
-191,-1580,-127,-105,-47,93,128,43,-23,-162
-88,-1220,53,81,132,92,-5,-28,37,8
81,-654,33,30,25,-24,-23,118,176,255
167,-79,15,9,-22,-99,-119,51,47,225
-31,359,73,78,62,-82,-206,-165,-153,20
-144,788,171,169,161,-69,-223,-225,-171,-80
32,1249,244,221,175,-111,-302,-258,-111,-42
248,1446,246,192,107,-175,-360,-220,9,113
431,1407,210,158,76,-125,-277,-113,70,170
408,1242,107,83,7,-100,-222,-110,-19,94
-93,762,-88,-22,-60,-91,-184,-102,-129,5
-281,248,-172,-110,-140,-108,-142,-37,-62,0
90,-92,-100,-101,-143,-60,-85,-4,1,73
214,-400,18,-61,-78,36,1,-1,-51,94
124,-647,41,-41,-51,45,46,9,-17,51
-53,-755,40,-31,-44,75,90,46,3,-51
-169,-623,-13,-57,-60,153,218,131,26,-131
-56,-314,-75,-122,-101,171,300,197,136,-22
98,80,5,-46,-61,113,230,120,56,48
52,500,45,51,51,132,179,-40,-204,-80
-117,888,-82,-4,48,176,230,-87,-381,-158
-54,1371,-203,-143,-107,77,183,-106,-518,-97
170,1887,-127,-110,-95,31,33,-254,-718,-104
48,2066,-25,28,70,135,-30,-286,-675,-153
-201,1954,-76,-37,24,63,-55,-157,-395,-2
-310,1774,-116,-97,-32,-60,-108,-32,-30,58
-103,1661,-59,-78,-30,-180,-228,-58,192,-32
31,1435,23,-36,-26,-203,-264,-37,352,24
15,1054,126,50,20,-152,-231,37,474,94
-17,658,183,131,80,-83,-139,84,491,85
180,396,78,74,38,-42,-29,198,579,224
522,295,46,16,-38,-76,-20,239,543,456
597,267,130,86,-15,-106,-19,166,342,492
317,350,112,119,34,-73,-37,41,226,210
23,556,1,49,-6,-6,18,95,358,165
-238,798,4,52,31,128,163,189,363,116
-394,1070,81,102,128,280,312,226,185,-105
-496,1375,74,84,149,309,363,221,-26,-393
-453,1865,-42,-19,63,261,349,173,-187,-324
-429,2306,-172,-136,-28,202,316,120,-241,-207
-211,2645,-212,-184,-79,44,119,-31,-375,-299
-107,2619,-69,-29,38,2,-46,-181,-520,-303
47,2113,-48,-16,-82,-104,-25,-8,58,325
-214,1450,-48,35,0,-2,41,65,207,394
-260,911,-61,1,-16,22,78,44,101,8
150,633,-63,-40,-36,32,43,-48,-129,-448
-94,274,-7,45,80,171,89,-16,-80,-567
-199,89,10,94,130,204,36,-9,33,-458
-217,24,-48,38,62,27,-82,31,116,-266
-302,152,-73,0,19,-110,-210,7,129,-233
-126,524,-18,11,15,-109,-206,40,197,-161
333,1073,86,56,27,-106,-177,62,243,13
493,1511,165,116,34,-128,-205,36,229,212
261,1907,208,131,19,-165,-221,-1,183,309
64,2375,168,113,-9,-172,-199,-70,24,152
120,2944,101,58,-61,-185,-219,-171,-142,-16
281,3250,45,3,-95,-181,-212,-182,-132,1
367,3226,24,-30,-112,-115,-121,-63,39,118
335,3067,-62,-110,-179,-75,-21,72,112,232
207,2703,-154,-169,-227,-56,61,72,8,187
-15,2182,-144,-168,-228,-3,201,97,-26,6
-191,1677,-98,-58,-139,30,223,103,-32,-177
-220,1272,84,123,84,67,98,-61,-160,-255
-83,944,168,207,209,148,93,-116,-239,-118
54,782,35,37,66,99,75,-39,-165,90
5,737,-137,-115,-42,10,-21,-34,-125,239
11,623,-175,-116,-10,15,-24,12,2,394
-11,501,-25,12,121,102,50,13,-3,144
-118,522,3,40,153,109,23,-45,-73,-219
104,688,23,33,132,49,-33,-71,8,-49
293,858,101,105,168,81,50,24,63,71
247,1092,87,97,102,106,118,84,65,26
-237,1202,4,39,10,164,172,77,-24,-149
-605,1065,15,8,-76,66,119,-8,-153,-311
-467,778,27,43,-70,-85,-35,-137,-315,-318
-212,422,-51,-15,-96,-188,-174,-237,-451,-157
110,15,-93,-86,-174,-258,-212,-238,-493,104
254,-447,-114,-106,-113,-214,-191,-274,-609,180
177,-892,-151,-104,29,-11,-47,-209,-606,134
133,-1233,-136,-90,103,159,95,-81,-371,89
68,-1503,-125,-102,71,123,122,50,292,144
40,-1488,104,18,57,-61,-8,76,673,120
25,-1274,246,115,86,-192,-160,75,677,86
-44,-1143,223,115,136,-94,-96,235,783,173
-75,-959,229,118,144,18,8,218,637,217
-90,-735,163,67,77,27,49,122,370,236
-148,-545,96,8,38,59,84,107,183,207
97,-155,34,-74,-66,19,48,46,40,78
192,164,-35,-124,-163,-84,-39,-1,29,-6
-42,110,-36,-51,-55,-9,-64,-34,26,-169
44,-154,0,34,51,122,-11,-60,-46,-234
351,-463,9,14,6,71,15,-7,-17,-77
232,-926,-27,20,8,-13,-39,-58,-124,-63
-133,-1556,-69,35,41,-20,-19,-45,-205,-88
-216,-1989,66,30,36,-30,-23,-9,-126,-32
85,-2098,59,-28,-18,-63,-57,-49,-142,-42
492,-2135,21,-65,-53,-49,-27,-79,-206,-57
122,-2280,5,-40,-7,79,134,-28,-265,-206
-662,-2349,-98,-74,-18,179,256,22,-272,-348
-677,-2068,-126,-91,-28,181,265,41,-158,-324
-281,-1514,-118,-100,-60,96,214,81,-65,-196
-97,-777,-127,-153,-130,-17,172,180,137,-92
-193,-91,-146,-159,-171,-153,37,162,314,-58
-119,714,-209,-222,-257,-300,-146,-23,187,51
248,1474,-223,-255,-290,-400,-281,-196,-73,226
363,1863,-177,-165,-154,-220,-146,-115,-95,392
189,1893,-104,-53,-13,-23,15,87,-21,423
-26,1752,109,86,64,7,10,107,-34,336
-12,1631,202,129,57,-46,-66,98,201,271
232,1491,161,101,38,-105,-206,-2,350,65
319,1109,214,189,127,-63,-236,-89,212,13
-14,463,252,273,223,51,-76,22,179,88
-243,-105,168,223,199,123,68,127,196,-4
49,-370,65,97,78,60,75,151,216,52
408,-413,30,59,16,3,20,100,162,65
548,-238,84,115,58,-3,-30,-38,29,-97
312,-105,121,116,124,115,45,-56,38,-129
-422,325,-87,-59,11,174,118,-45,-89,5
-307,715,-115,-99,-24,148,104,-52,-137,91
-230,1257,-194,-148,-73,77,27,-110,-217,87
-134,1746,-163,-184,-143,-29,-15,-45,-133,101
-259,1869,-122,-142,-123,-64,23,62,-4,-61
-321,1756,-64,-64,-48,-90,-5,-16,-4,-188
-18,1724,-11,-22,-45,-88,-52,-124,-165,-90
255,1558,16,-35,-110,-90,-80,-83,-137,68
168,1062,64,16,-34,2,-45,-6,-61,100
3,508,77,83,65,93,24,-42,-208,-6
-56,120,5,28,34,100,43,-82,-290,-62
-164,-122,-78,-82,-9,129,47,2,-125,-29
-306,-200,-127,-198,-106,16,-22,-24,-97,48
-51,-88,-61,-176,-145,-187,-209,-228,-370,25
40,102,69,-44,-70,-275,-323,-329,-418,-133
96,273,83,-1,-29,-171,-192,-104,-91,-113
-163,222,149,149,129,60,81,138,98,3
-71,493,169,208,145,60,66,74,-24,193
526,1097,71,97,-12,-118,-164,-129,-152,235
522,1530,-32,-17,-97,-156,-209,-82,119,29
28,1765,-9,28,10,15,-10,146,589,-128
-330,1958,41,92,94,180,162,228,593,-274
-414,2218,4,59,49,201,189,168,323,-332
-220,2477,-37,17,6,153,193,104,161,-219
-8,2195,-20,69,62,177,241,84,114,1
-223,1549,77,219,267,330,327,106,61,2
-459,878,87,283,357,325,319,140,61,-43
-223,488,7,189,259,170,209,183,154,-63
68,288,-90,35,93,-18,37,144,109,-234
478,247,-129,-84,-36,-119,-72,54,51,-124
740,323,-48,-45,-15,-85,-120,11,37,129
402,301,69,73,72,-46,-153,-47,-36,108
122,355,92,69,34,-86,-182,-82,-97,51
-17,471,93,29,-36,-77,-125,-66,-146,47
-146,550,141,44,-73,-28,3,-23,-193,7
-95,1398,11,-18,-102,-43,72,-145,-508,85
-71,1344,26,-38,-108,-99,14,-123,-345,-24
-21,1094,-23,-70,-96,-118,-34,-113,-208,-96
34,206,-130,-126,-106,-98,-56,-63,136,-59
130,-308,-146,-114,-97,-9,6,106,377,19
359,-619,-44,-53,-61,27,13,118,277,123
431,-842,132,19,-18,17,-45,-12,144,125
80,-1201,86,24,40,108,-53,-86,48,-66
-365,-1501,-66,-37,67,238,29,-73,-20,-185
-420,-1515,-163,-87,51,310,162,12,-11,-115
-238,-1470,-212,-142,16,260,244,70,-7,-16
-101,-1356,-214,-179,-47,127,197,66,-8,143
-121,-1200,-113,-116,-42,-45,86,15,-34,166
-41,-971,1,16,47,-134,-53,-105,-134,37
121,-587,73,130,162,-95,-123,-170,-157,-17
339,-216,115,99,83,-144,-101,3,269,258
235,-97,129,100,44,-174,-131,142,497,438
-4,-99,172,142,107,-99,-115,156,299,283
-84,-150,168,103,69,-86,-83,172,175,120
-447,-381,81,2,-90,-219,-192,43,46,-113
-658,-828,82,8,-95,-220,-235,-68,-63,-321
-204,-1116,82,17,-47,-133,-148,-71,-75,-259
330,-1227,39,-38,-79,-116,-123,-62,-65,-43
321,-1420,-13,-71,-83,-66,-57,-21,-87,16
236,-1508,-69,-103,-114,-34,3,-56,-194,-20
224,-1369,-128,-159,-169,-34,46,-76,-215,9
218,-1025,-191,-183,-162,-21,-7,-139,-175,31
108,-571,-215,-174,-91,36,-22,-224,-324,16
-14,-197,-228,-186,-65,110,83,-159,-369,78
-117,-19,-199,-138,3,173,186,14,-174,182
-336,259,-135,-76,53,150,182,91,-68,99
-199,925,72,20,43,48,78,30,-158,-164
-16,1372,155,67,60,96,96,-9,-271,-245
-34,1386,166,119,82,98,62,-75,-288,-75
-67,1180,150,180,135,155,6,-201,-249,-37
-28,851,112,167,133,261,80,-189,-172,-116
-67,287,104,130,128,350,215,-35,-56,-300
-76,-243,84,79,83,330,204,6,-64,-467
-39,-673,13,4,6,194,112,53,41,-372
-84,-1123,-32,-27,-17,62,38,145,236,-176
104,-1798,-139,-92,-27,-126,-22,234,390,22
259,-1792,-103,-32,33,-159,-101,124,309,129
551,-1578,31,41,-10,-298,-282,-8,235,523
723,-1128,54,-30,-159,-439,-388,-86,234,859
871,-774,76,-47,-230,-479,-396,-129,212,932
845,-667,115,36,-147,-330,-248,-118,40,653
468,-746,129,132,8,-68,0,-19,6,320
-136,-809,159,189,128,102,161,62,40,-198
-787,-865,215,246,209,179,200,39,-88,-632
-952,-1012,170,180,160,158,173,56,-188,-541
-762,-1429,4,0,-37,23,124,220,-41,-168
-437,-1901,-103,-127,-163,-62,59,212,-96,-56
-13,-2187,-122,-146,-185,-104,-27,25,-250,-37
129,-2500,-123,-135,-168,-108,-48,-93,-308,3
63,-2747,-39,-72,-92,-100,-102,-146,-52,0
-467,-3255,95,94,137,151,161,243,498,-66
-560,-2996,39,74,131,193,198,224,385,-97
-251,-2465,-113,-78,27,176,163,122,148,-26
335,-1802,-257,-286,-198,-23,36,59,77,199
579,-1231,-276,-366,-334,-202,-79,98,258,268
346,-808,-193,-232,-242,-246,-162,-2,212,48
11,-408,-142,-107,-108,-226,-218,-127,108,-54
-270,-126,-149,-40,7,-100,-213,-138,83,5
-136,0,-59,15,75,56,-32,33,164,116
81,448,16,85,125,227,184,167,226,166
-1,289,64,194,180,264,249,183,153,32
-269,-328,63,275,252,210,187,45,-113,-274
51,-792,35,231,217,98,38,-181,-400,-398
108,-1226,-9,128,123,27,-16,-237,-444,-291
-377,-1905,-23,69,122,106,103,-94,-306,-236
-497,-2243,-38,-21,127,290,274,65,-143,-281
-347,-2014,-149,-180,14,392,374,200,123,-298
-111,402,-165,-197,-65,258,267,177,154,-186
28,4064,32,52,26,49,2,-41,-96,-105
223,4946,241,245,65,-90,-238,-248,-257,60
462,4404,134,77,-34,-91,-208,-126,-134,307
522,4655,26,-8,6,-32,-114,32,-12,348
504,4813,58,72,93,-28,-105,36,110,340
413,4608,99,162,116,-43,-136,21,335,350
92,4768,69,139,0,-25,-142,19,306,89
-234,4617,91,140,-77,-43,-173,-56,69,-151
-300,4123,97,194,-33,-85,-205,-116,-35,-138
-186,3784,111,175,-44,-130,-176,-110,-96,-130
-75,3117,27,20,-169,-156,-135,-94,-138,-76
-42,2318,-33,-70,-204,-129,-91,-172,-311,-27
-49,1737,32,-88,-187,-102,-82,-255,-486,-5
141,1079,50,-115,-195,-89,-68,-185,-351,132
336,391,51,-52,-128,-49,12,-29,-186,288
453,5,120,48,-74,-54,12,4,-122,373
81,-405,159,134,21,-12,45,158,332,299
-514,-732,110,137,98,69,134,353,709,129
-698,-919,-46,72,100,80,167,334,649,-80
-569,-1391,15,18,86,66,118,202,311,-215
-446,-1526,29,-37,115,146,164,135,113,-218
-116,-1110,-214,-147,95,240,254,94,-33,-183
125,-675,-269,-184,7,188,200,25,-177,-186
152,-366,-201,-181,-118,12,-12,-82,-222,-197
190,-368,-59,-158,-162,-115,-114,-58,-32,-120
117,-596,-46,-145,-166,-192,-117,18,110,-66
-15,-801,-94,-121,-139,-226,-136,-14,34,-128
50,-1057,-101,-144,-135,-222,-140,-18,-81,-90
163,-1350,-3,-80,-50,-141,-133,-59,-175,-3
186,-1564,95,31,106,-38,-105,-122,-267,58
196,-1772,150,75,197,7,-72,-138,-298,139
332,-1897,109,64,98,-59,-148,-136,-237,307
305,-1752,45,43,0,-42,-111,-117,-54,330
87,-1535,-37,-43,-30,80,64,-33,105,180
-146,-1331,-13,-29,3,158,160,-50,-26,-92
-199,-1122,15,0,34,132,142,-98,-165,-177
-73,-928,-27,-47,23,48,91,35,20,-127
39,-507,-52,-100,-6,-64,15,200,267,-118
184,27,-47,-87,-3,-107,-62,275,394,-88
193,489,-75,-101,-11,-106,-111,206,322,-67
-178,659,-73,-57,0,-93,-150,91,201,-43
-233,645,-89,-4,-21,-174,-308,-113,32,-4
130,449,16,66,-8,-192,-338,-221,-40,104
238,-37,126,87,13,-112,-214,-176,-8,192
117,-718,151,115,58,-44,-129,-112,-22,144
-96,-1364,163,134,63,1,-29,-30,-88,33
-150,-1867,119,93,23,14,42,0,-165,49
108,-2213,8,33,-22,10,34,11,-200,200
192,-2405,-38,-50,-67,-15,-4,-67,-263,217
-10,-2533,-122,-127,-135,-33,-8,-165,-354,202
20,-2792,-146,-119,-128,-4,50,-175,-434,83
179,-2654,-76,-90,-95,-6,75,-114,-219,1
316,-2320,28,22,34,100,89,-101,-91,-14
333,-1979,21,28,37,143,131,-22,-69,-118
-24,-1692,-27,-12,23,139,165,162,244,-226
-167,-1461,37,62,74,91,105,193,372,-115
-542,-1511,131,179,175,102,99,228,391,-137
-995,-1736,108,170,227,221,178,227,251,-352
-914,-1714,-19,28,87,227,122,46,-3,-282
-611,-1781,-124,-70,-56,153,-10,-123,-79,-189
138,-2095,-120,-121,-146,-7,-160,-243,-115,-147
756,-2627,27,-48,-98,-9,-110,-200,-142,12
338,-3582,39,9,13,160,163,89,9,87
-459,-4130,-152,-142,-108,168,298,308,194,43
-947,-4121,-271,-248,-199,98,250,228,128,-218
-420,-4524,-209,-96,-3,216,199,62,-86,-318
302,-4257,-70,91,191,221,50,-101,-213,-278
644,-3664,25,127,165,76,-42,-122,-162,1
631,-3081,73,90,48,-71,-96,-83,-50,228
322,-2455,101,96,45,-172,-206,-93,12,195
39,-1734,98,65,46,-190,-217,-74,40,64
33,-774,15,18,3,-220,-207,-50,12,-105
168,132,66,64,35,-206,-159,16,31,-164
-42,584,226,153,99,-99,-40,95,49,-125
-151,811,185,100,58,-23,36,146,149,-55
112,1076,4,-107,-157,-91,108,355,627,177
214,1177,-66,-171,-262,-128,159,448,813,333
-160,1012,-13,-25,-105,-64,43,138,315,129
-456,729,45,167,190,137,-22,-140,-171,-80
-226,533,-57,104,139,60,-53,-167,-257,19
187,513,-90,-39,-72,-168,-120,-137,-227,198
537,523,41,-10,-96,-262,-181,-222,-382,357
669,604,147,101,7,-225,-213,-320,-451,374
172,700,140,117,45,-171,-219,-280,-224,336
-504,856,25,40,-28,-163,-206,-79,132,193
-337,1304,48,36,-13,-135,-192,-33,167,-46
94,1849,88,33,-20,-147,-216,-94,94,-248
297,2258,15,-18,-61,-93,-110,126,300,-106
162,2624,-62,-41,-36,66,61,227,263,-4
-236,2977,-145,-55,-14,207,157,133,54,-167
-266,3200,-184,-65,-16,225,153,30,-58,-297
-195,3175,-182,-114,-62,184,166,34,1,-212
-220,2954,-63,-61,-25,176,211,121,227,-134
-215,2526,40,38,46,157,230,159,205,-164
-195,1936,127,128,121,104,212,137,70,-304
415,1421,38,-17,-52,-118,-13,56,52,-78
353,1137,39,-41,-107,-133,-68,93,160,115
157,899,105,31,-58,-75,-48,118,163,115
54,885,105,52,-20,-108,-93,39,31,-31
-151,963,159,105,7,-173,-198,-62,-32,24
-32,1282,164,90,2,-203,-288,-181,-114,104
368,1556,124,52,51,-111,-223,-180,-113,200
170,1608,23,48,144,-10,-87,-31,61,326
-175,1875,-38,55,211,52,-3,34,84,251
-479,2342,-6,52,238,92,26,-11,-52,-48
-575,2755,-27,49,231,117,73,-22,-113,-271
-183,3065,-58,28,206,119,51,-57,-134,-291
228,3280,-90,-63,112,103,44,-120,-193,-361
214,3166,-88,-51,63,122,103,-93,-252,-312
97,2784,-112,-17,0,92,130,-25,-231,-197
91,2459,-7,-17,-106,64,141,6,-154,-126
78,2264,-8,-85,-201,82,205,95,-82,-73
73,2058,-101,-175,-254,58,248,175,-10,13
73,1891,-64,-139,-217,21,178,123,-11,26
54,1869,41,-25,-147,-17,83,47,-44,0
114,2199,115,18,-119,-40,28,49,34,31
182,2526,109,13,0,81,73,16,-2,27
165,2734,34,-19,73,237,163,-32,-115,2
92,3004,-57,-61,41,212,140,-57,-176,-24
-142,3227,-116,-47,-1,78,31,-118,-281,-71
-434,3312,-59,32,58,95,14,-143,-366,-94
-412,3449,-97,-8,15,85,52,-75,-361,75
-270,3651,-162,-131,-135,-74,-32,-119,-480,155
-235,3595,-115,-124,-106,-60,-55,-197,-553,40
-105,3416,-48,-77,-53,-37,-129,-261,-361,-112
278,3154,30,-61,-59,-118,-254,-260,-113,-84
378,2654,79,-26,-7,-92,-252,-201,54,101
257,2082,2,-98,-77,-129,-176,9,501,277
167,1539,-9,-66,-27,-77,-91,191,734,303
78,1077,100,119,166,97,10,157,502,88
65,646,96,160,176,153,143,245,436,43
153,365,79,95,90,87,184,339,489,122
84,334,30,68,59,60,154,278,389,37
96,477,-46,47,53,56,115,198,197,-16
143,676,-108,-17,-49,-27,146,209,125,18
110,870,-33,-51,-156,-209,45,118,7,-1
-25,1050,143,17,-122,-260,-76,-32,-139,-15
-150,1263,185,109,-14,-212,-133,-109,-224,-3
-53,1464,159,97,35,-174,-169,-144,-325,23
94,1413,168,72,65,-51,-59,-125,-382,-2
263,1187,127,1,26,-19,2,-105,-307,19
251,906,120,-17,3,0,-16,-91,-136,103
14,464,10,-100,-74,-17,-23,-84,23,190
-117,-90,-63,-169,-127,-48,8,-82,3,263
-29,-695,1,-107,-97,-79,-15,-116,-50,308
-115,-1265,-110,-155,-155,-187,-95,-104,136,154
-11,-1778,-136,-127,-108,-155,-60,49,285,76
-154,-2251,-76,-42,-21,-70,-17,131,284,191
-356,-2457,-27,30,27,-31,-32,118,287,98
173,-2020,177,169,97,-51,-112,21,148,-208
88,-1625,191,227,128,-17,-96,-5,71,-344
-50,-1258,166,168,82,-44,-109,-73,-108,-396
82,-768,124,110,65,-56,-126,-128,-209,-236
312,-461,150,125,104,9,-77,-171,-355,-48
363,-523,152,160,137,76,-22,-168,-403,64
347,-387,119,144,146,95,16,-134,-493,144
46,-345,87,121,160,111,66,-168,-711,-32
-314,-457,-15,31,108,78,21,-226,-795,-311
-363,-649,-222,-197,-128,-46,-53,-93,-294,-292
-342,-860,-347,-364,-290,-92,-19,220,436,-118
-261,-916,-252,-288,-235,-67,1,271,663,-40
-72,-863,-59,-84,-97,-27,20,234,734,-37
-37,-886,-1,-26,-104,-45,99,376,892,5
4,-840,-31,-39,-73,86,228,356,656,38
29,-697,-65,-57,-47,161,261,268,445,77
46,-418,-80,-64,-53,85,150,139,323,108
186,-65,-15,16,6,13,-16,-63,94,94
330,211,-2,29,23,-35,-83,-98,22,153
237,265,-55,-3,0,-23,0,2,55,209
37,382,-97,-47,-33,-33,21,3,4,278
-323,536,-119,-55,-12,-7,-35,-97,-150,199
-560,409,-54,27,103,100,-27,-94,-92,131
-333,0,20,85,153,112,-13,53,196,168
-125,-451,18,67,143,61,-20,108,222,106
-34,-858,-53,-43,27,-26,-15,85,58,63
153,-1240,-78,-111,-109,-125,-90,-50,-169,134
101,-1738,-55,-103,-126,-142,-143,-128,-180,213
-208,-2236,-42,-60,-63,-65,-87,-125,-143,-136
-58,-2441,-134,-47,-63,-7,-19,-96,-104,-350
219,-2470,45,138,45,71,58,-32,-55,-430
236,-2281,213,223,170,174,178,95,63,-469
-109,-1990,77,126,153,173,191,123,41,-284
-51,-1400,-56,-18,40,51,59,21,-118,-189
102,-730,-76,-42,44,21,39,32,-52,-132
-67,-192,-23,-1,96,70,117,89,104,-104
-88,302,29,73,163,168,193,105,82,-56
-58,886,-8,61,155,149,137,41,-3,67
-125,1391,-59,-3,49,67,45,-86,-122,81
-119,1556,-46,-11,45,103,78,-159,-288,-55
-285,1358,-96,37,159,353,299,-154,-437,-260
-363,1091,-193,-37,95,432,410,-98,-436,-363
-265,709,-217,-177,-99,284,374,1,-335,-318
-189,227,-216,-246,-246,62,273,127,-169,-184
-127,-160,-159,-199,-241,-169,65,158,22,-81
-141,-483,-133,-51,-63,-218,-158,67,126,-87
-38,-714,-123,-18,-35,-291,-311,28,174,-1
181,-764,2,-41,-59,-200,-205,51,165,179
265,-613,74,-12,-49,-129,-165,-47,19,219
286,-301,174,50,-64,-282,-411,-302,-193,213
495,172,209,45,-142,-444,-586,-380,-127,368
645,372,203,57,-123,-379,-425,-166,123,574
432,285,176,119,9,-120,-57,174,346,641
431,580,189,189,131,86,198,349,402,620
-71,1032,93,232,206,188,221,248,211,315
-887,1282,28,197,235,247,201,106,-23,-203
-674,1428,-75,19,79,170,160,79,-14,-281
-181,1468,-246,-153,-50,-4,35,25,-17,-236
-132,1363,-202,-67,61,-78,-89,-91,-140,-386
-192,994,3,119,257,31,-74,-147,-296,-341
-203,598,119,167,297,94,-3,-140,-412,-47
30,415,35,26,155,40,-38,-176,-439,211
302,343,-31,-142,-77,-68,-88,-191,-383,302
310,201,25,-108,-159,-74,-77,-231,-376,158
164,136,94,38,-128,3,-41,-238,-288,-110
129,241,153,70,-215,-6,46,-17,236,-161
114,388,78,-12,-235,-9,149,255,631,-117
66,571,30,-22,-89,56,139,226,434,-165
70,711,137,72,96,155,57,56,87,-215
83,787,143,16,52,120,6,58,69,-122
-44,853,125,-30,-23,10,-62,58,120,-31
-113,939,56,-44,-68,-134,-173,-18,104,34
-8,915,4,-35,-68,-208,-228,-77,47,81
43,622,-82,-30,-55,-168,-183,-58,-23,100
84,179,-139,-41,-85,-117,-92,-14,-114,110
179,-381,-100,-51,-118,-113,-1,-4,-191,105
167,-1020,-47,-21,-87,-87,48,-28,-223,59
193,-1445,1,-14,-50,-76,29,-79,-201,28
165,-1844,13,-7,34,-18,-17,-116,-133,-21
88,-2343,7,-87,-37,-24,31,70,161,16
-118,-3173,-39,-84,-33,45,78,108,193,-75
-319,-4072,-104,-39,15,97,25,-66,-69,-199
-394,-4152,-8,-28,32,152,68,-131,-271,-250
-249,-3843,-21,-65,27,186,136,-136,-381,-184
-91,-3219,-54,-84,22,168,116,-149,-338,-69
-69,-2732,-30,-60,36,140,97,-90,-112,-18
-80,-2149,-1,-44,50,90,27,-37,3,-42
-79,-1354,-77,-138,-37,-24,-65,-5,38,-72
66,-667,-92,-180,-109,-141,-228,10,253,41
243,-281,-7,-115,-60,-161,-294,-28,331,144
310,-322,133,22,17,-158,-257,-12,373,230
400,-521,265,222,109,-146,-225,71,476,446
388,-729,370,325,135,-152,-192,106,386,556
2,-1044,228,245,93,-129,-112,118,265,407
-295,-1276,28,92,20,-61,-10,84,105,113
-125,-1351,45,33,1,8,72,-2,-94,-182
271,-1354,-115,-82,-80,-49,45,-69,-140,-191
310,-1464,-175,-102,-75,-34,123,61,-34,-95
62,-1412,-76,-75,-84,-41,183,202,38,12
-124,-1186,-98,-61,-88,-47,143,144,-5,68
-263,-867,-182,-63,-79,-13,127,161,42,107
-367,-451,-98,-28,-25,79,162,205,169,149
-509,-19,-25,37,78,211,201,158,212,-15
-345,460,40,67,93,188,116,68,145,-231
-81,950,77,84,67,106,-26,-52,15,-330
-16,1309,12,36,36,63,-99,-150,-86,-341
92,1413,0,-2,-23,-22,-148,-183,-160,-312
273,1399,2,-14,-47,-42,-127,-172,-206,-219
283,1145,-3,3,-16,2,-59,-121,-214,-71
225,716,44,66,66,69,-33,-132,-306,-15
143,280,90,91,82,48,-54,-128,-361,0
136,-42,31,61,40,1,-58,-150,-394,71
67,-241,-85,-15,-23,26,-36,-233,-472,189
18,-373,-126,-126,-122,9,-24,-252,-492,284
109,-328,-234,-234,-210,0,0,-174,-327,429
220,-24,-312,-289,-263,-61,18,-34,-40,477
398,379,-146,-168,-172,-84,28,59,155,368
347,840,4,32,11,-131,-18,124,344,133
73,1296,11,62,58,-188,-129,128,486,-52
175,1691,11,27,49,-91,-76,191,441,-96
158,2076,146,100,121,22,7,140,135,-209
-230,2449,243,227,217,154,85,45,-83,-329
-699,2642,99,148,176,212,123,-17,-174,-400
-651,2654,-57,15,58,245,180,14,-68,-293
-348,2550,-114,-69,-44,237,247,131,158,-132
-216,2232,-173,-90,-86,184,246,232,336,-42
-328,1775,-129,-50,-63,76,164,250,371,-15
-551,1388,-13,-15,-54,-152,-43,104,228,-20
-327,1142,51,20,-60,-319,-281,-152,-48,27
204,915,76,-1,-35,-286,-343,-246,-235,126
364,396,124,116,186,-3,-119,-123,-285,173
146,100,123,148,266,128,-13,-4,-226,254
138,312,68,64,128,-20,-130,-36,-198,328
401,581,141,80,65,-105,-147,-43,-27,309
506,815,204,158,74,-111,-95,-2,204,314
313,1064,122,125,33,-136,-64,113,575,285
22,1416,96,99,6,-140,-52,277,926,82
-106,1862,133,136,47,-74,-5,272,689,-76
-121,2309,73,81,2,-79,-32,120,273,-25
-163,2514,45,21,-30,-101,-41,29,83,-4
-111,2420,93,34,20,-51,33,33,14,-72
2,2229,92,54,54,33,113,54,1,-114
137,1867,37,36,59,72,131,76,42,-60
74,1390,44,40,86,94,117,49,22,-156
5,1017,11,19,53,69,62,-20,-82,-250
33,691,9,1,-1,2,-10,-48,-92,-194
-48,265,-6,1,-30,-3,-28,-20,-59,-137
-96,-33,-58,-28,-54,-5,-17,-31,-70,-120
-67,-163,-93,-52,-77,-26,-5,-46,-118,-86
27,-103,-104,-87,-112,-90,-52,-108,-188,-39
100,64,-135,-119,-118,-84,-58,-157,-261,0
176,236,-145,-99,-77,-47,-35,-169,-284,9
166,425,-122,-68,-30,-24,-30,-141,-230,37
-153,631,-108,-25,28,26,3,-63,-104,27
-173,956,-138,-34,26,45,43,21,6,23
-19,1206,-49,-8,27,52,53,14,-13,-21
-132,1214,26,35,57,103,96,-16,-163,-147
-83,1169,0,20,69,165,142,-18,-247,-195
39,987,-12,41,128,277,230,41,-226,-152
83,715,4,66,142,323,306,91,-130,-80
21,445,21,41,119,347,317,130,84,37
-234,129,-28,0,88,329,308,257,371,92
-309,-76,-63,-38,18,200,231,201,250,-10
429,-102,-165,-136,-146,-132,-42,-24,-113,33
336,-101,-190,-138,-161,-262,-109,-24,-131,109
-99,-42,-65,-51,-84,-243,-124,-46,-211,68
-475,152,19,16,-2,-100,-76,-113,-338,24
-347,503,4,-38,-32,-37,-67,-138,-347,134
-64,935,2,-77,-110,-86,-117,-137,-191,194
50,1380,7,-65,-156,-146,-156,-53,89,133
120,1752,54,2,-100,-170,-186,67,309,79
141,1936,60,101,25,-169,-285,22,281,-74
241,1914,59,76,14,-153,-312,-19,335,-104
277,1719,99,79,-20,-130,-278,-40,312,0
81,1265,120,71,-40,-79,-204,-56,188,11
-131,693,67,63,-21,-27,-136,-68,97,-56
-169,208,51,91,56,13,-122,-144,-29,-140
57,-247,80,46,41,22,-66,-100,-34,-92
211,-693,23,-17,49,132,97,27,39,22
57,-1003,-87,-102,-6,156,176,131,114,111
-128,-1123,-127,-128,-84,98,126,106,85,33
-109,-1066,-21,-42,-17,32,66,-10,-18,49
48,-896,-47,-58,-15,40,86,17,-2,125
34,-816,9,19,102,152,154,28,-39,67
-98,-563,42,74,198,237,202,42,-114,-46
-155,-175,45,67,226,256,186,44,-155,-172
-98,179,26,26,122,128,44,-56,-278,-296
-37,290,9,-7,60,70,-31,-193,-500,-300
-30,237,57,51,93,110,-6,-286,-690,-251
-10,-20,95,101,114,124,17,-278,-696,-239
-55,-462,33,58,85,137,60,-209,-672,-243
-22,-812,-63,-35,14,156,80,-190,-666,-183
34,-1114,-183,-142,-108,61,-9,-93,-250,20
57,-1356,-177,-147,-136,31,18,172,346,241
-29,-1562,-93,-83,-68,113,134,248,392,245
-223,-1706,-140,-100,-58,109,157,203,280,64
-161,-1553,-242,-193,-146,-48,60,228,354,-28
379,-1263,-299,-221,-140,-28,72,300,620,233
486,-1136,-180,-111,-31,12,59,316,876,325
-82,-1056,15,4,27,-90,-92,244,778,186
-468,-1002,200,195,156,-83,-96,268,652,40
-124,-510,260,201,102,-227,-220,111,364,-247
546,236,193,60,-103,-413,-429,-122,81,-261
325,360,224,112,-84,-336,-399,-146,14,-67
24,148,291,186,8,-206,-305,-123,-89,-46
74,-67,275,169,22,-133,-221,-115,-132,-38
154,-421,202,114,-3,-99,-142,-90,-144,-1
192,-832,92,21,-98,-128,-98,-95,-244,53
182,-1157,-18,-77,-208,-172,-46,-71,-224,161
115,-1371,-99,-123,-220,-71,83,-30,-152,160
132,-1310,-131,-170,-211,-3,115,-100,-257,99
123,-1155,-158,-178,-155,39,114,-126,-297,49
113,-930,-151,-96,-3,128,135,-5,-41,78
161,-600,-106,-48,29,130,165,168,252,153
-254,-217,-85,-39,8,38,138,220,222,15
-500,394,-254,-124,-86,-77,44,166,214,-125
-279,1035,-213,-69,-100,-158,-94,64,320,-123
-285,1503,38,166,92,-54,-114,41,377,-83
-264,1968,295,345,301,116,-77,29,274,-107
-122,2338,365,362,402,224,-19,43,128,-171
-140,2478,262,266,313,163,-57,-31,-25,-219
-89,2402,189,117,142,17,-139,-115,-144,-167
75,2099,136,6,16,-82,-158,-136,-161,-53
158,1515,55,-72,-77,-118,-117,-94,-61,128
54,828,23,-87,-106,-96,-56,-24,31,273
-19,276,-13,-70,-104,-95,-63,-27,-7,227
53,-169,-74,-55,-116,-87,-52,-28,-66,142
12,-699,-35,33,-31,11,81,55,-11,86
-51,-1058,46,160,93,115,163,48,-76,-65
176,-1035,46,190,98,128,135,-27,-205,-150
212,-978,-30,117,61,136,128,-26,-174,-106
21,-866,-76,68,98,191,147,-31,-176,-88
-15,-584,5,-9,67,170,124,-27,-130,-75
-159,-281,9,-111,-52,61,67,48,52,-97
-221,119,-58,-147,-51,21,64,58,47,-150
-29,576,-64,-100,23,41,62,-30,-88,-106
31,847,-82,-80,60,92,76,-98,-220,-105
-101,794,-102,-100,39,124,118,-118,-218,-109
-195,569,-119,-93,47,172,186,-91,-164,-77
-239,207,-100,-42,97,242,292,-34,-184,-70
-177,-287,-80,-24,103,293,367,-2,-257,-82
76,-741,-103,-13,106,307,388,5,-330,-105
254,-1104,-221,-71,-1,174,305,23,-335,-1
308,-1402,-258,-143,-127,-7,137,-31,-355,214
261,-1633,-134,-138,-154,-84,12,-98,-374,387
-102,-1809,-54,-117,-158,-129,-64,-17,-111,314
-232,-1713,-10,-81,-154,-251,-219,15,216,199
-47,-1267,138,37,-49,-217,-374,-166,236,49
-124,-999,116,30,-1,-40,-224,-71,369,-105
-113,-713,119,60,66,120,-62,83,478,-194
-44,-195,138,83,138,136,36,205,380,-74
-20,-69,89,56,110,117,56,140,140,-83
12,-179,38,25,72,78,13,110,63,-60
-42,-470,18,23,47,21,-26,77,54,-31
-24,-904,34,34,21,-82,-80,25,-18,-25
132,-1435,25,32,-46,-285,-199,-11,33,61
183,-1904,4,-49,-182,-488,-286,45,286,219
143,-2255,53,-47,-194,-476,-244,77,383,237
251,-2428,165,23,-112,-368,-235,13,282,182
496,-2493,161,40,-42,-264,-173,12,206,152
504,-2469,157,93,24,-145,-89,12,106,150
-45,-2418,175,126,60,-51,-22,48,94,125
-326,-2159,151,115,79,17,-12,34,40,49
-154,-1693,83,86,55,15,-10,10,-33,75
-134,-1277,95,70,58,43,11,-2,-99,83
-162,-765,-6,-46,-9,19,-12,-69,-212,22
-72,-182,-116,-167,-96,-65,-98,-171,-325,-34
-54,192,-114,-159,-95,-51,-85,-136,-251,-120
-36,299,-100,-107,-50,20,-1,0,-70,-133
-70,201,-165,-71,-21,69,60,71,-4,-106
-44,31,-238,-96,-48,95,128,111,23,-57
22,-204,-243,-147,-101,121,184,148,93,-31
52,-489,-143,-152,-110,103,193,157,103,-11
43,-779,-43,-81,-34,94,131,58,23,-34
15,-1046,-8,-27,12,96,92,15,-34,-51
-21,-1290,-147,-60,-23,61,87,33,-84,-38
-74,-1376,-143,-76,-17,56,72,-33,-177,-75
-71,-1304,-118,-119,-20,120,121,-15,-186,-59
-40,-1218,-172,-159,-73,100,149,75,-95,26
-11,-1062,-12,-71,-17,26,44,-2,-151,20
-24,-789,108,57,79,-25,-107,-166,-250,15
-25,-526,121,65,97,-58,-148,-199,-100,149
73,-164,133,62,110,-59,-116,-154,-39,198
203,148,117,69,119,-37,-77,-159,-163,196
167,235,18,21,76,-25,-50,-164,-268,152
184,110,-49,-4,34,-1,-47,-181,-324,101
515,-135,84,49,61,78,3,-114,-237,113
681,-599,127,60,57,91,62,65,191,111
137,-1251,68,28,9,32,79,238,517,-31
-545,-1733,-3,-9,-26,0,78,221,432,-205
-792,-2075,-88,-52,-67,-41,61,148,263,-287
-600,-2300,-42,-68,-99,-115,31,86,162,-246
-339,-2425,1,-47,-98,-138,30,90,123,-92
-311,-2443,61,41,-18,-65,73,119,122,-97
-351,-2248,139,140,93,27,78,96,78,-257
-230,-1868,92,100,60,-14,21,64,28,-249
-116,-1404,42,32,-11,-97,-62,11,8,-133
71,-946,18,2,-52,-130,-126,-62,-19,-14
122,-446,13,-17,-56,-57,-86,-25,2,56
24,53,6,-32,-57,-14,-39,44,44,64
151,490,-13,-76,-76,-25,-76,-4,10,89
308,791,-121,-177,-133,-40,-146,-112,-52,110
315,794,-196,-245,-171,-44,-159,-138,-71,125
340,544,-141,-199,-145,-29,-123,-87,-26,228
233,38,38,18,73,133,-28,-65,-22,227
-34,-477,95,126,163,199,37,-12,33,237
-247,-911,44,117,84,67,-18,50,104,261
-432,-1357,36,125,80,91,25,104,92,98
-590,-1748,62,127,131,192,119,75,-27,-199
-189,-1933,93,113,114,156,128,-41,-159,-372
460,-1746,78,35,-11,-11,45,-160,-328,-357
429,-1613,79,13,-64,-92,37,-90,-350,-195
117,-1416,57,9,-62,-95,22,-45,-364,-129
140,-1073,10,10,3,12,0,-104,-415,-162
76,-755,1,11,45,73,-18,-159,-375,-178
-98,-380,-24,4,42,-25,-123,-185,-277,-24
-10,-54,-30,73,107,-106,-159,-101,-134,159
84,104,76,164,208,-11,-90,13,72,183
95,83,177,182,246,79,-75,60,177,170
69,-3,139,148,175,32,-106,83,239,143
-91,-153,49,62,32,-61,-131,130,465,138
-218,-422,-59,-50,-94,-110,-137,129,595,40
-42,-681,-55,-62,-107,-96,-103,84,411,-41
114,-883,-35,-23,-61,-31,-36,23,138,-33
91,-936,-57,-18,-69,-21,14,-30,-109,-107
88,-674,-85,-35,-115,-73,2,-71,-234,-98
28,-71,-113,-38,-102,-44,55,-45,-272,-48
-130,-9,-149,-63,-104,-42,99,-11,-245,-60
-161,25,-246,-150,-159,-73,97,29,-70,21
86,498,-171,-168,-144,-1,140,66,47,316
11,583,-75,-106,-84,29,112,-24,-223,280
14,818,-12,-98,-93,-48,-19,-132,-382,196
64,981,33,-59,-63,-71,-115,-134,-239,142
-7,856,18,-34,-24,-76,-149,-79,18,45
-88,576,-48,-4,7,-23,-97,33,359,8
-16,441,26,21,29,85,-7,141,605,-10
45,140,117,88,71,122,47,215,665,-51
29,-722,253,200,79,120,101,93,201,-333
87,-1100,178,151,44,122,199,156,225,-288
176,-1162,154,84,8,83,209,131,122,-166
47,-1209,129,50,-24,31,133,-6,-108,-166
-180,-1243,46,80,69,123,125,-61,-259,-255
-238,-992,-118,-4,35,69,44,-85,-199,-202
-3,-504,-228,-178,-108,-9,4,-56,29,-10
289,30,-296,-259,-152,-7,62,16,107,147
295,398,-263,-229,-106,4,119,58,72,165
-93,640,-161,-107,11,93,161,71,70,82
-578,910,0,84,175,201,184,48,-32,-82
-562,1315,75,149,200,194,143,28,-133,-155
-165,1627,36,77,101,68,21,-6,-95,-48
156,1632,2,-1,9,-67,-99,12,71,151
157,1363,92,50,23,-133,-160,25,183,181
3,814,144,101,60,-141,-156,51,238,114
-5,280,68,105,61,-162,-208,9,138,83
42,-192,143,121,85,-109,-209,-55,40,72
113,-576,214,139,113,-47,-183,-79,37,22
157,-863,187,105,69,-15,-158,-50,60,46
97,-1113,119,47,16,50,-87,4,72,73
91,-1204,79,19,-5,72,-53,-2,39,88
23,-1217,53,14,-28,26,-34,-10,44,59
-22,-1104,13,12,-21,-19,-11,19,72,20
140,-837,14,4,-33,-94,-38,-25,23,15
246,-560,14,-39,-81,-172,-62,-43,-22,29
155,-288,-3,-41,-80,-176,-38,-53,-94,11
30,201,-13,-11,-55,-150,-49,-75,-149,6
-161,1286,-54,-40,-75,-155,-77,-116,-239,-20
-250,2503,-90,-94,-131,-145,-80,-151,-335,-53
-168,2642,-110,-115,-132,-96,-41,-143,-413,-60
-24,1934,-81,-88,-102,-58,5,-132,-452,23
-28,1221,-39,-40,-28,20,77,-67,-305,164
-13,656,-70,0,74,154,193,60,-6,196
88,26,15,57,179,252,304,215,314,212
213,-311,92,82,188,229,290,222,397,223
86,-387,22,30,123,187,195,62,210,73
-117,-458,-143,-96,-22,171,180,40,52,-142
-187,-473,-118,-86,-36,199,197,67,-75,-381
-174,5,-106,-103,-63,182,172,47,-194,-471
-116,491,-78,-85,-94,85,75,-24,-173,-293
-166,782,-49,-48,-95,-63,-76,-105,-133,-168
-74,1191,4,35,-30,-169,-168,-129,-174,-103
125,1574,61,63,9,-184,-207,-100,-158,19
170,1780,43,59,58,-77,-145,-43,-87,130
188,1944,45,44,52,-56,-125,-17,-23,323
164,1884,39,19,23,-110,-169,-75,29,462
98,1618,58,4,-1,-145,-207,-141,-13,462
119,1141,108,7,-44,-173,-199,-126,8,389
175,594,103,52,-65,-188,-176,-58,133,234
228,101,116,97,-88,-177,-143,63,322,108
291,-295,78,30,-138,-184,-85,168,461,6
270,-604,54,-2,-112,-133,-15,212,495,-84
-18,-1005,89,25,-32,-57,45,208,389,-197
-229,-1154,79,28,-1,-34,40,123,182,-265
-156,-998,56,21,-3,-39,1,48,57,-131
-151,-841,23,0,-16,-31,10,63,71,17
-83,-620,-16,-26,-28,-24,26,52,77,110
-22,-371,-63,-53,-30,-23,21,27,44,156
-184,-172,-87,-38,6,40,56,26,-22,114
-379,21,-122,-32,53,188,140,16,-124,-26
-302,264,-167,-92,38,312,246,23,-227,-95
-96,413,-246,-187,-53,287,247,-51,-356,-150
278,404,-270,-220,-129,183,169,-138,-429,-78
371,165,-172,-39,8,180,124,-153,-379,38
-39,-308,-16,109,133,258,202,-12,-250,-13
-521,-808,-112,-24,15,247,256,90,-140,-113
-73,-1399,-273,-266,-189,35,142,75,-17,-79
99,-1547,-110,-108,-62,-61,-33,46,-3,55
207,-1512,8,-10,-49,-195,-237,-52,-30,160
218,-1350,86,74,-5,-251,-336,-104,95,177
-79,-1290,203,210,126,-161,-224,60,404,118
-320,-1075,308,315,251,-29,-86,120,386,-72
-13,-542,341,308,249,-36,-98,-4,143,-64
329,115,347,249,138,-152,-229,-184,-41,-9
130,723,227,125,-2,-244,-321,-243,-24,-80
-139,1195,140,59,-34,-196,-251,-159,92,-95
-135,1323,100,74,18,-45,-89,-19,164,-56
-117,1233,24,73,21,54,11,64,126,-63
-52,1231,-40,54,39,145,107,86,73,-12
-20,1074,-56,47,71,244,190,105,38,55
20,738,-69,21,35,235,204,116,-4,54
53,352,-91,-55,-56,147,204,84,-64,24
85,-10,-55,-110,-126,72,205,5,-157,-36
16,-317,-63,-129,-127,29,198,-54,-244,-94
-90,-606,-169,-139,-83,19,170,-46,-252,-60
-157,-714,-165,-119,-18,7,112,-35,-163,36
-57,-502,-47,-33,106,60,56,-13,-98,70
23,-123,30,15,176,92,32,13,-137,51
-132,363,-54,-60,131,27,-56,-75,-276,45
-70,963,-114,-139,42,-90,-206,-206,-382,141
127,1474,-49,-115,17,-142,-266,-255,-385,273
206,1945,-14,-67,8,-116,-233,-193,-218,318
90,2298,-27,3,16,-41,-135,-30,51,315
-36,2469,70,58,32,-22,-119,27,187,202
356,2654,148,75,-56,-122,-88,165,482,74
337,2250,196,117,-30,-99,-37,147,353,-63
291,1710,191,104,-47,-124,-49,132,371,-99
210,1335,162,103,-25,-89,-42,90,235,-95
201,1056,129,85,-26,-89,-42,25,76,-74
138,739,49,25,-59,-96,1,9,-34,-18
33,463,2,1,-51,-43,38,13,-105,37
100,403,-30,-36,-82,-40,20,-12,-58,105
220,472,-87,-112,-149,-46,36,-68,-41,163
-323,534,-131,-71,22,188,191,-84,-127,75
-407,749,-61,5,103,211,189,-15,-13,1
-559,1020,-27,54,152,261,224,44,-52,-185
-206,1394,-60,-14,87,224,160,99,95,-98
115,1704,-138,-81,20,226,101,142,234,-102
-2,1603,-266,-119,7,293,148,145,139,-302
-194,1281,-238,-114,27,346,214,116,0,-271
-137,1149,-145,-36,47,248,140,-38,-168,-223
47,918,22,52,45,46,7,-72,-126,-75
58,402,-23,51,-25,-187,-107,20,97,85
-107,-167,-86,37,-52,-223,-96,96,215,105
-193,-2122,-14,0,-71,-193,-28,183,271,52
-189,-6153,-13,-64,-137,-228,-16,196,281,-86
-153,-8101,26,-11,-98,-223,-76,115,160,-216
50,-6258,138,80,3,-164,-161,-13,99,-186
189,-2268,65,55,-9,-137,-188,-67,61,-48
123,390,53,56,7,-108,-187,-134,-101,-55
78,121,127,72,53,-76,-181,-203,-149,-52
106,-1765,70,-1,32,-39,-83,-142,-39,17
143,-2687,-29,-60,20,13,-32,-99,-74,56
135,-1583,-66,-50,35,80,6,-78,-157,30
155,522,8,-11,82,129,69,-59,-166,-20
180,1650,56,23,78,64,54,7,-46,16
3,856,106,61,80,33,32,85,25,36
-42,-789,93,40,52,30,23,98,40,23
-43,-1901,45,-12,-33,-48,-14,46,42,13
-106,-1921,2,-28,-100,-121,-58,-8,15,22
-60,-1458,-31,-41,-115,-108,-55,-29,73,108
35,-1308,-14,-20,-88,-69,-22,6,149,149
179,-1707,75,47,-60,-71,-12,15,112,155
43,-2204,85,57,-85,-126,-38,-34,-16,123
-288,-2244,51,29,-108,-117,-45,-107,-126,1
-416,-1772,13,31,-35,7,28,-57,-57,-100
-298,-965,-13,14,22,81,51,-4,-21,-140
-110,-241,-49,-19,16,64,16,-47,-140,-187
-80,165,-69,-44,-6,39,38,13,11,-97
-123,431,7,19,71,71,30,-2,7,-91
-103,969,34,25,86,75,6,-21,-45,-101
29,1563,6,10,52,54,-13,-32,-119,-54
240,1640,-23,-17,-11,-1,-100,-54,-81,46
387,1145,-57,-77,-99,-86,-143,-47,35,201
342,444,-71,-58,-104,-90,-106,-25,26,226
312,-78,-74,13,-39,-48,-55,-7,-14,202
157,-433,24,66,27,14,19,27,-18,113
90,-677,12,41,16,42,53,24,-35,69
118,-851,29,10,-37,30,52,-28,-117,127
-75,-926,-12,-31,-77,1,24,-105,-222,276
-231,-687,-148,-159,-176,-69,-35,-241,-397,144
22,-317,-318,-261,-239,-97,-13,-247,-393,-16
281,-5,-249,-154,-124,-25,42,-141,-218,-133
36,111,-23,18,99,164,126,-18,16,-273
-453,389,6,46,151,202,164,156,261,-260
-479,773,23,49,139,195,150,235,287,-175
-310,986,62,63,157,182,107,191,198,-38
-183,1046,101,138,185,156,31,155,185,10
-86,1011,165,228,232,121,-44,60,97,-173
2,762,141,179,196,85,-41,-37,-16,-287
34,291,46,67,117,61,4,-51,-6,-193
-2,-167,-20,19,49,64,77,-6,75,-121
-52,-568,0,-10,-17,52,133,59,58,-82
-26,-868,66,-27,-71,-8,132,105,-9,-26
99,-1091,64,-53,-116,-103,42,65,-134,46
279,-1213,76,-52,-117,-164,-58,13,-267,122
301,-1257,34,-55,-94,-173,-73,-16,-304,121
172,-1223,-68,-105,-94,-187,-96,-80,-261,95
164,-1032,-112,-128,-91,-203,-143,-139,-129,112
200,-727,-106,-109,-54,-150,-121,-76,189,145
25,-302,-93,-75,10,17,-26,38,403,87
-95,492,-31,-23,81,158,52,43,241,-13
-44,1054,10,-11,65,137,30,-21,-48,-47
-115,1324,11,-10,44,101,12,-78,-217,-39
-264,1458,-41,0,30,70,32,-8,-117,-13
-229,1509,-19,43,-18,-43,-19,26,-13,14
-120,1269,109,110,-47,-197,-149,-30,68,2
-103,880,126,137,-14,-196,-148,14,238,-54
-44,455,84,112,11,-101,-37,127,399,-90
28,89,38,49,7,-78,19,182,411,-6
54,-167,67,26,17,-81,-9,123,237,35
133,-291,39,11,17,-77,-70,-16,28,85
69,-88,-23,-10,-4,-71,-73,-29,46,139
-50,56,-91,-46,-19,-58,-24,28,109,157
-171,345,-74,-27,15,-8,57,93,103,94
54,795,-57,-43,19,36,107,87,25,55
229,1177,-61,-96,-52,57,138,66,-65,15
154,1568,-102,-140,-145,8,97,27,-123,27
-13,1906,-72,-80,-91,-33,0,-96,-200,-5
52,1966,28,-2,22,25,0,-127,-165,-2
82,1728,22,28,77,114,87,-26,-54,-6
-116,1472,-70,-24,37,71,64,-35,-82,-171
-377,1023,-99,-53,41,53,37,-86,-191,-372
-304,558,-33,-13,64,68,32,-127,-258,-314
-26,269,-20,-5,43,63,-18,-124,-258,-96
25,-340,-7,47,65,30,-22,-64,-247,19
89,-471,-88,66,82,59,-18,-119,-245,-9
207,-361,-175,2,27,65,-20,-59,-7,37
250,-107,-136,-51,-17,114,16,24,159,27
122,212,-32,-25,6,212,121,74,163,-24
-402,451,19,24,49,252,174,68,20,-155
-601,704,39,52,73,271,188,109,74,-146
-401,1075,65,55,72,234,192,140,166,-57
-237,1482,-3,-8,-3,94,108,111,254,-38
-5,1731,-55,-41,-62,-45,31,115,166,-27
152,1707,-58,-44,-88,-159,-70,55,26,-16
272,1605,-68,-67,-133,-288,-202,-37,-48,-2
271,1373,-23,-20,-84,-280,-221,-57,-40,45
179,1200,110,63,25,-198,-186,-71,-11,28
241,1235,214,96,51,-179,-220,-141,-64,-35
332,927,120,66,20,-191,-231,-141,-55,9
241,432,-23,48,5,-144,-149,-4,85,103
114,150,114,139,60,-78,-97,51,106,62
40,35,202,170,62,-60,-99,4,14,45
28,53,142,109,0,-58,-69,17,20,124
104,198,99,56,-28,-45,-32,21,-6,193
228,426,42,13,-44,-36,19,11,-52,244
192,581,-39,-60,-60,-26,85,45,-58,304
0,766,-88,-110,-93,-38,111,68,-3,282
-30,1153,-104,-127,-110,-31,93,64,58,119
-12,1550,-131,-143,-86,11,89,58,69,-11
-4,1781,-110,-123,-49,102,131,88,59,-103
-27,1802,-26,-32,10,144,137,82,52,-175
-79,1681,63,69,108,200,150,42,3,-201
-118,1078,74,90,109,195,191,48,-96,-218
-3,797,23,37,24,85,110,-28,-127,-157
30,554,-38,-39,-41,13,27,-79,-230,-107
130,248,-84,-82,-72,-33,-34,-120,-336,-25
360,-83,-166,-90,-89,-65,-23,-98,-273,84
282,-316,-103,-46,-29,5,45,-18,-127,79
-238,-463,-3,-17,27,41,55,47,120,51
-257,-356,-12,-21,24,16,-8,91,381,79
-19,164,74,28,57,-23,-123,24,296,-152
-287,361,124,89,61,-83,-182,-33,220,-306
-256,671,161,179,89,-73,-188,-21,170,-168
-95,1138,167,200,97,-47,-136,22,151,1
-26,1588,134,142,65,-65,-105,32,114,38
30,1668,40,48,-6,-78,-64,-14,23,-9
40,1412,-30,-9,-25,-34,-35,-4,80,22
141,977,-52,-27,-42,-28,-41,11,119,51
172,613,-69,-7,-48,-23,-17,-7,24,26
72,346,-15,11,-44,-6,61,36,-7,0
-66,-23,25,-26,-69,9,105,111,21,-75
-128,-240,-33,-81,-113,-35,123,141,32,-88
-53,-192,-39,-60,-102,-115,55,89,8,-25
-19,67,14,16,-19,-120,-55,-35,-68,-33
-113,240,-55,-30,-44,-103,-39,-24,-4,4
-261,388,-76,-21,-6,-22,56,11,40,31
-360,695,8,34,64,83,127,8,-1,7
-286,1067,26,28,76,96,69,-26,-72,-29
-92,1539,54,34,61,83,4,-80,-137,-100
90,1998,69,49,61,99,-22,-118,-184,-121
-97,2205,58,45,42,101,-17,-128,-234,-124
-55,2216,-16,-25,-70,10,-17,-104,-256,-117
35,1957,-212,-100,-95,-4,-28,-125,-377,-184
53,1472,-157,-81,-6,83,26,-71,-305,-77
8,1026,-112,-77,46,188,76,-29,-143,23
-125,661,-129,-72,91,299,121,-18,-177,87
-6,451,-79,-59,84,296,91,-84,-361,101
243,330,54,18,95,171,6,-160,-438,98
231,306,118,65,66,46,-71,-150,-321,19
125,403,57,-9,-32,-61,-134,-89,25,-9
108,583,6,-63,-119,-187,-187,13,474,90
214,852,13,-59,-146,-263,-220,52,555,213
207,1096,99,18,-62,-213,-163,11,354,320
67,1333,114,45,-29,-191,-141,-9,202,338
7,1633,165,79,11,-149,-82,77,233,318
-94,1769,280,218,170,29,73,220,269,164
41,1821,213,222,171,86,128,194,198,-136
67,1634,-32,109,87,77,136,103,123,-246
-235,1221,-95,52,50,113,184,112,91,-262
-215,737,-177,-5,17,137,221,126,20,-268
-98,181,-140,-42,-8,160,262,112,-2,-231
-141,-320,-106,-38,26,201,312,188,34,-185
-234,-1105,-143,-136,-52,80,172,107,-153,-84
-151,-1230,-121,-252,-183,-48,44,15,-105,-2
62,-1070,-81,-270,-194,-116,-46,2,23,88
201,-804,12,-170,-123,-107,-108,-14,53,163
317,-419,99,-26,-58,-134,-184,-110,4,180
316,-53,110,119,24,-147,-236,-180,-53,147
219,228,107,230,137,-77,-166,-156,-43,176
95,549,209,257,172,-20,-67,-85,-5,159
114,1004,206,195,127,-15,-34,-40,-17,61
250,1464,116,83,47,-69,-58,-80,-102,-24
167,1590,11,-28,-62,-76,-57,-47,-26,-99
-200,1439,-102,-137,-158,-103,-60,31,135,-198
-435,1215,-88,-127,-137,-3,44,133,335,-121
-384,951,-17,-73,-82,109,139,208,487,71
-313,612,-10,-27,-15,182,195,184,326,39
-94,383,-59,-43,-32,131,176,100,126,-12
157,243,-38,-77,-117,-38,80,47,49,-15
74,20,-102,-55,-94,-151,10,23,28,-155
11,-113,-61,-39,-49,-167,-25,12,17,-154
-16,-117,0,-48,-47,-102,-2,45,38,-24
-97,-96,-28,-53,-32,-60,7,92,89,79
-142,21,-87,-58,-4,-26,20,108,103,140
-25,340,-4,-20,35,-10,-19,13,-3,136
155,681,129,56,98,6,-72,-110,-117,95
308,996,108,46,108,-8,-107,-166,-168,27
426,1332,40,1,38,-88,-172,-191,-245,-28
355,1773,-89,-24,-13,-98,-165,-158,-238,-89
328,2494,-164,-50,-72,-106,-162,-74,-96,0
285,2361,-81,15,-47,-73,-121,-13,-66,85
299,1856,98,107,22,-8,-27,-17,-135,36
124,1208,148,138,77,60,65,-30,-179,-69
-273,675,41,60,10,4,30,-52,-162,-69
-366,241,-24,-11,-34,-27,18,-11,-68,38
-309,-1,-12,-23,-27,-26,0,-17,-69,53
-278,-60,-50,-50,-57,-53,-57,0,10,96
-186,-126,-78,-58,-43,30,6,57,38,152
-132,-95,-42,-2,47,182,120,28,-77,73
-140,5,2,33,64,195,134,-29,-208,-20
-144,252,-24,1,31,167,118,-49,-207,-47
-187,534,-64,-26,12,164,137,-34,-143,-115
-214,821,-102,-48,15,145,168,-13,-158,-194
-269,1115,-142,-63,26,149,164,7,-159,-207
-297,1372,-151,-77,31,139,132,-2,-33,-134
-202,1471,-132,-86,15,116,107,7,119,-82
13,1313,-127,-75,0,73,123,68,169,20
141,991,-137,-23,43,-10,56,1,60,108
213,472,21,57,116,11,68,-36,-14,147
283,-53,71,31,74,0,67,0,-35,157
114,-455,14,-25,-15,-108,-19,-16,-88,86
-173,-918,0,-42,-82,-217,-117,18,-23,-24
-155,-1370,54,-8,-62,-217,-124,123,247,-37
-18,-1586,183,89,20,-117,-106,93,251,1
107,-1525,223,120,59,-66,-139,-63,-33,72
67,-1343,143,66,1,-74,-175,-228,-324,141
66,-1085,55,-3,-53,-53,-199,-343,-527,256
309,-657,18,-68,-106,-55,-206,-385,-682,347
326,-307,-103,-131,-125,-63,-182,-353,-653,236
250,-28,-173,-152,-98,-51,-136,-207,-305,68
58,194,-130,-98,-72,-46,-73,51,166,-87
-234,260,-38,-14,-4,11,60,319,645,-246
-286,181,44,69,90,95,188,482,1022,-336
-296,29,132,140,127,110,240,497,1023,-281
-224,-101,111,111,96,102,170,333,665,-200
-160,-387,7,-8,33,118,129,149,311,-122
-110,-759,-28,-35,45,212,166,93,148,-38
125,-990,-54,-65,-4,236,212,93,16,60
331,-1344,-75,-138,-118,111,226,158,21,173
223,-1671,-32,-92,-146,-27,157,185,81,135
117,-1546,58,49,-56,-96,-25,42,2,-83
250,-1241,141,112,7,-116,-145,-60,-39,-68
372,-1119,88,133,53,-85,-125,-47,42,52
373,-880,95,172,97,-60,-111,-2,148,164
-117,-736,77,181,115,-27,-107,-8,117,164
-482,-576,-15,178,113,-4,-116,-53,-16,18
-294,-276,54,152,96,-26,-119,-87,-55,1
-25,55,94,106,52,-101,-192,-121,-56,70
133,224,89,45,-2,-150,-226,-90,-10,136
124,149,132,39,-6,-110,-157,-35,6,155
77,73,182,47,-22,-82,-111,-71,-84,68
-31,-226,226,54,15,-23,-66,-83,-167,-15
-12,-686,208,48,32,-5,-51,-74,-186,-59
80,-1037,162,20,2,-35,-70,-127,-203,-94
0,-1370,61,-48,0,20,2,-95,-201,-109
-37,-1641,-9,-68,20,84,113,-10,-173,-115
36,-1771,-14,-56,23,112,184,15,-223,-115
54,-1684,-6,-10,63,188,200,-13,-281,-84
26,-1397,-45,-23,50,226,202,-24,-266,-44
-96,-1014,-110,-110,-54,143,176,3,-193,-66
-231,-490,-106,-118,-64,69,80,-80,-218,-159
-239,167,-104,-89,-29,50,34,-70,-15,-102
-184,739,-121,-89,-33,7,14,36,229,19
-38,1316,-113,-109,-64,-60,-22,36,152,58
24,1819,-49,-37,-15,-34,-41,13,66,25
61,2066,-13,-1,26,18,-50,27,78,8
51,2091,-72,-6,13,28,-54,-6,-32,-8
3,1869,-42,-5,-28,5,-65,-83,-276,25
-39,1475,-42,-29,-61,-21,-72,-138,-437,149
-134,979,-108,-87,-115,-70,-80,-132,-223,271
-102,565,-168,-136,-187,-166,-126,-113,6,318
82,267,-172,-156,-231,-224,-148,-124,16,231
306,11,-170,-177,-234,-241,-159,-90,132,142
501,-154,-148,-165,-224,-231,-137,-27,261,145
499,-147,-104,-106,-141,-138,-75,-30,181,106
269,-174,-3,0,22,49,16,-20,144,-25
-200,-194,92,92,165,296,135,122,319,-169
-525,-174,140,201,262,426,165,161,284,-302
-373,-56,75,158,198,352,130,134,184,-210
-236,276,48,48,72,128,39,121,142,-78
-196,603,67,50,82,7,8,109,121,-74
-90,808,57,78,94,-25,8,101,110,-82
78,827,63,145,112,-19,12,69,-3,-105
132,668,83,161,76,-12,32,29,-85,-130
9,498,127,141,43,27,33,-8,-131,-87
-177,153,131,168,117,131,38,-63,-231,-85
-198,-265,-19,104,94,189,108,-50,-252,-116
-148,-575,-211,-98,-103,109,150,60,-54,-27
-117,-771,-214,-213,-246,-21,112,125,91,120
-20,-802,-230,-212,-300,-184,-14,28,-25,194
196,-580,-210,-175,-300,-327,-159,-83,-123,234
323,-278,-94,-61,-157,-328,-161,-97,-101,163
185,-58,-11,76,80,-177,-95,-31,23,74
-86,264,25,135,205,4,0,63,137,-33
-84,841,144,142,192,1,-47,22,66,-160
85,1382,178,118,180,10,-64,-8,-43,-105
252,1842,145,76,143,-5,-107,-72,-94,45
345,2222,174,82,118,-18,-134,-116,-146,85
265,2365,147,77,80,-17,-120,-139,-230,0
102,2268,96,33,16,-47,-108,-140,-209,-75
40,2006,55,33,-15,-64,-43,-80,-82,-85
127,1514,8,51,-14,-10,51,42,78,-40
16,834,49,56,-11,84,168,129,152,-59
-104,190,32,42,-11,133,236,154,181,-60
-264,-973,-42,-8,-11,168,270,155,37,-42
-26,-1301,-119,-136,-128,66,211,134,32,8
85,-1374,-172,-161,-136,-14,104,74,81,40
-53,-1286,-174,-79,-27,-14,31,49,73,-35
-38,-1116,-3,13,23,-65,-74,7,38,-21
86,-727,61,13,-30,-128,-147,-89,-78,79
186,-262,42,-21,-72,-159,-192,-221,-219,105
199,25,9,-46,-72,-114,-165,-158,-97,92
143,70,51,13,-26,-29,-73,15,104,77
127,18,108,62,-3,-29,-60,55,115,72
90,9,17,-5,-54,-41,-70,46,78,140
87,-166,-20,-14,-35,0,-29,21,10,191
45,-529,-30,-22,12,80,36,-6,-60,238
-47,-964,-40,-65,-14,32,25,9,58,274
-171,-1368,-49,-51,-13,-4,0,12,104,139
-310,-1767,-75,-35,13,60,64,76,122,-30
-463,-2123,-70,-35,9,40,98,126,132,-195
-533,-2292,-38,-8,44,-17,45,76,123,-310
-199,-2204,1,29,47,-44,-19,0,58,-220
151,-1947,88,66,87,110,93,-46,-143,-119
358,-1652,105,78,123,256,208,-104,-328,-86
460,-1245,5,15,66,242,200,-138,-384,-118
407,-848,-53,-39,-8,160,164,-56,-199,-46
-46,-530,-83,-62,-90,0,67,-21,-35,-76
-492,-173,-90,-27,-87,-123,-58,-73,-79,-257
-523,237,-42,1,-29,-141,-126,-91,-105,-269
-369,638,-51,-37,-30,-158,-190,-117,-63,-120
-179,801,-24,-28,-26,-166,-207,-68,128,14
33,676,126,95,71,-123,-157,22,256,67
61,302,260,246,201,-57,-78,95,298,94
-70,-151,286,313,246,14,-14,110,224,16
-125,-526,213,230,149,14,14,105,141,-65
40,-742,62,92,18,-49,24,87,76,-20
243,-854,6,1,-80,-141,-46,-8,-68,-20
248,-980,9,-44,-104,-123,-71,-84,-160,-58
151,-954,-41,-58,-48,-20,-16,-63,-190,-75
199,-645,-101,-55,-85,-33,-9,-52,-192,7
164,-281,-85,-62,-106,-57,-65,-164,-353,161
195,96,-52,-82,-114,-63,-93,-216,-451,281
181,419,-102,-137,-163,-128,-131,-127,-245,367
105,767,-193,-181,-166,-173,-166,-36,58,339
13,1169,-185,-162,-96,-48,-63,65,248,210
-77,1525,-125,-119,-37,108,53,170,486,101
-81,1804,-51,-86,-5,190,118,227,540,39
-103,1867,-19,-69,22,252,167,160,240,-70
-63,1748,-38,-57,28,236,105,43,-46,-209
-26,1389,-7,-10,56,214,53,18,-68,-242
-12,896,64,49,78,128,12,49,54,-194
94,414,126,88,85,43,33,132,187,-114
118,-71,156,149,135,58,81,143,212,-20
134,-425,168,161,156,103,126,101,94,-20
21,-636,109,112,123,72,82,-14,-110,-91
-274,-727,34,82,78,38,33,-92,-247,-164
-382,-756,40,48,44,25,43,-60,-165,-180
-385,-689,8,15,7,-19,60,28,27,-55
-373,-538,-5,6,-16,-74,58,114,128,-14
-312,-343,14,10,-20,-104,38,144,235,-75
-103,-39,31,11,-17,-122,-31,103,310,-94
239,634,-27,-44,-61,-115,-62,-41,108,-27
264,570,28,-23,-39,-60,11,-45,22,-12
305,267,30,-30,-44,-34,62,-7,-5,39
269,-132,-40,-67,-93,-77,38,13,-40,94
149,-742,-61,-62,-103,-109,-54,-74,-160,21
0,-1383,-78,-39,-58,-81,-70,-115,-160,-27
29,-1778,-115,-95,-116,-82,-19,-58,-89,98
15,-2216,-121,-107,-114,-44,15,-46,-87,173
-3,-2678,-85,-44,-20,33,42,-33,-106,199
-40,-2932,-83,-16,54,111,87,8,-107,207
-143,-2976,-65,1,156,280,184,25,-175,122
-270,-2933,-63,-14,153,324,202,19,-202,-58
-28,-2539,-162,-146,-5,144,47,-94,-297,-252
289,-2050,-203,-197,-65,101,40,-113,-207,-215
-254,-658,-125,-152,-164,-203,-64,60,162,-81
-98,-737,-40,-40,-7,-110,-48,87,245,-88
-223,-970,92,114,110,-43,-37,131,338,-124
-267,-1230,161,264,203,17,-26,53,112,-240
19,-1441,143,276,227,63,7,-14,-99,-216
124,-1698,118,208,182,93,78,-3,-127,-39
-4,-2013,99,29,-26,-59,58,-15,-101,23
104,-1755,112,-22,-125,-210,-96,-151,-267,-22
88,-1362,115,-4,-71,-178,-150,-222,-395,-15
135,-930,160,62,17,-78,-97,-176,-265,86
159,-529,155,88,68,-15,-50,-80,-78,162
34,-174,62,31,54,1,-38,30,89,152
-59,283,-55,-33,-12,-21,-25,114,319,118
-217,782,-153,-45,-16,13,22,199,541,-5
-278,1254,-134,-41,-17,33,33,209,483,-77
-78,1561,0,-39,-32,8,10,119,270,9
118,1587,63,-11,-22,23,24,50,136,58
91,1383,56,17,26,73,50,21,71,38
70,1033,-28,53,64,86,2,-76,-76,-80
117,552,-36,25,47,89,24,-72,-133,-40
57,60,-28,-30,-16,76,67,-17,-202,109
-15,-286,-85,-112,-90,18,56,-56,-416,215
-9,-595,-159,-174,-108,16,47,-150,-560,263
97,221,-280,-209,-146,-12,-12,-268,-571,284
291,4007,-274,-211,-211,-111,-91,-275,-455,196
332,4976,-80,-105,-155,-152,-112,-182,-291,-8
240,4639,33,58,39,-59,-55,-51,-69,-159
76,4347,57,94,99,45,-6,44,159,-178
-222,4305,13,31,0,-53,-72,158,515,-11
-366,4180,97,99,84,36,66,310,683,36
-155,4185,157,126,82,-17,-18,241,635,20
166,4055,191,123,68,-90,-147,68,360,-38
208,3619,114,39,0,-89,-138,8,136,-90
-31,2662,-88,-176,-130,-130,-144,-177,-219,-321
-8,1788,-50,-119,-75,-38,18,-34,-90,-104
111,953,41,24,56,59,120,39,-68,144
112,277,80,113,106,43,91,5,-141,229
-93,-295,51,92,74,25,42,-24,-101,191
-312,-722,10,68,77,92,73,14,-32,76
-128,-885,7,56,131,214,130,22,-46,-167
-138,-904,-31,0,146,215,101,36,6,-381
81,-740,-54,-17,144,231,113,145,54,-177
298,-507,9,30,150,242,119,174,-65,-8
327,-222,55,30,92,217,38,66,-196,-13
211,163,42,21,30,136,-44,0,-125,-68
-124,514,-24,6,-60,-42,-95,49,136,-58
-277,730,22,7,-92,-164,-150,66,342,-57
-278,820,100,45,-33,-190,-181,43,274,-157
-218,835,79,50,-8,-226,-211,3,114,-181
-92,672,-19,9,-34,-210,-185,28,88,-15
-38,366,-32,-13,-30,-98,-83,54,69,101
-75,65,-17,14,61,97,33,2,-42,98
-194,-247,23,36,122,259,160,39,-34,115
-353,-575,44,62,147,327,222,163,114,125
-231,-784,45,75,150,292,214,141,33,92
35,-748,-24,-8,34,134,158,102,-36,14
112,-617,-123,-123,-120,-112,13,79,-75,-102
103,-499,-156,-156,-213,-304,-171,-47,-116,-160
156,-301,-126,-116,-201,-369,-255,-109,-61,-57
242,-69,-8,-46,-134,-312,-232,-123,-65,40
378,287,64,-28,-133,-264,-237,-146,-17,67
387,664,58,-39,-150,-225,-197,-44,155,173
238,907,26,-28,-106,-155,-176,-21,196,211
16,940,10,21,-3,-47,-169,-148,-11,59
-42,809,-9,15,6,30,-99,-174,-145,67
-119,541,4,42,50,114,-18,-121,-163,112
-146,142,20,62,90,159,70,-18,-63,62
82,-227,49,65,83,66,56,21,-10,-93
153,-514,88,61,54,-44,-22,-36,-64,-180
-93,-723,22,-16,-44,-156,-146,-118,-70,-205
-68,-843,13,-33,-68,-189,-165,-86,44,-102
51,-952,46,20,2,-72,-65,-25,41,-10
104,-847,75,72,40,0,-15,-51,-126,-2
138,-552,100,52,6,-45,-78,-118,-192,42
118,-181,20,5,-40,-108,-140,-124,-40,139
100,245,-65,-14,-35,-103,-147,-103,93,208
100,645,-17,-10,-14,-80,-118,-123,18,153
66,1054,-28,-29,-37,-85,-99,-102,30,76
78,1764,-26,-29,-41,-20,-26,97,314,96
71,1738,48,16,5,38,8,44,125,81
-16,1447,74,42,40,83,37,5,7,17
-101,1035,25,7,-12,34,10,0,27,-48
-150,532,-52,-63,-99,-48,-16,-1,25,-103
101,-256,-108,-142,-140,-121,-13,13,42,5
-72,-796,4,-29,4,7,87,82,-2,-36
-473,-1181,48,34,97,117,194,101,-148,-78
-379,-151,-84,-56,29,60,103,-61,-378,76
-56,697,-116,-137,-45,48,22,-185,-503,220
-60,625,-146,-179,-79,73,30,-213,-463,144
-93,575,-152,-175,-95,49,4,-206,-308,-6
-62,591,-87,-95,-56,68,6,-66,28,-153
-27,679,13,64,50,117,51,84,277,-344
4,884,59,118,84,110,70,145,367,-340
-24,1055,37,94,87,150,153,200,337,-263
39,1072,-19,40,71,165,189,209,244,-190
-96,833,-15,37,82,118,162,150,156,-139
-274,380,-19,23,64,111,202,198,176,-103
-99,-117,-82,-43,-35,92,215,211,187,-115
-51,-649,-130,-89,-111,31,132,118,121,-88
-275,-1182,-63,-30,-40,65,62,36,19,-86
-302,-1639,2,55,82,176,48,16,-47,-80
-192,-2024,68,93,118,216,77,51,-65,17
41,-2299,61,91,74,140,78,33,-108,159
310,-2313,68,58,34,19,-15,-84,-253,146
360,-2207,-8,2,-8,-46,-75,-115,-306,106
281,-2113,-109,-45,-43,-72,-76,-109,-284,116
239,-1910,-26,-46,-70,-137,-108,-138,-295,144
86,-1706,72,26,-36,-148,-109,-112,-245,51
77,-1408,113,84,22,-117,-66,-48,-23,-45
186,-1022,136,134,107,-13,-4,20,129,-40
152,-757,152,157,156,105,50,-3,23,-92
102,-737,151,113,137,160,53,-18,-9,-135
145,-891,37,-4,82,173,104,54,45,-72
44,-1226,-80,-76,53,240,212,133,48,-63
-188,-1751,-172,-91,32,277,270,84,-133,-179
-205,-2241,-189,-123,-40,188,207,59,-112,-192
-110,-2619,-157,-170,-131,19,96,91,1,-138
-22,-2931,-26,-91,-112,-47,2,40,-88,-109
-44,-3153,113,-19,-109,-158,-136,-127,-181,-144
-64,-3346,62,-52,-144,-235,-161,-54,192,-52
20,-3386,-7,-37,-112,-156,-75,76,457,100
154,-3238,-12,-12,-75,-109,-61,37,315,177
146,-3033,38,-9,-69,-130,-92,26,341,280
185,-2785,42,-10,-81,-202,-168,18,334,360
272,-2554,14,-20,-90,-189,-189,13,256,373
233,-2244,44,15,-29,-92,-155,8,203,322
120,-1858,31,-4,-33,-92,-179,-30,187,135
39,-1496,-16,-61,-85,-182,-223,-111,106,-35
-235,-1464,-5,-28,-42,-171,-172,-133,-7,-101
-302,-1488,-97,-73,-35,-139,-118,-145,-131,-123
-74,-1462,-169,-160,-117,-162,-100,-168,-203,-95
118,-1513,-130,-171,-145,-142,-78,-157,-185,-52
32,-1721,-50,-84,-65,-16,79,41,-9,-30
-162,-1852,8,-33,-11,81,189,156,49,-5
-238,-1787,-12,-62,-20,115,171,93,-52,2
-295,-1616,-51,-74,-30,119,175,66,-90,59
-259,-1258,-13,-13,-34,65,170,69,-72,207
-156,-783,61,47,-34,-79,41,13,-86,323
-100,-325,132,126,-7,-160,-66,-33,-56,335
127,348,111,95,-22,-124,-73,-85,-148,174
181,1504,21,45,88,82,-41,-36,-97,-302
-98,1777,43,84,178,264,161,131,-7,-272
-272,2034,31,85,192,423,403,267,-10,-310
-213,2352,-22,11,94,344,375,218,-40,-183
-95,2483,-63,-7,60,290,264,99,45,-54
-13,2400,-115,-14,79,312,270,82,77,-16
-36,2074,-106,8,122,282,265,80,-28,-68
-87,1646,-193,-8,120,142,99,-47,-70,-160
96,1338,-230,-103,53,58,-32,-103,-8,72
155,977,-165,-122,39,65,-4,15,73,537
59,600,-96,-93,19,41,44,115,133,789
63,376,68,26,91,34,-30,-23,-3,693
22,302,235,164,140,-5,-167,-122,-69,443
-231,218,337,277,193,-50,-196,-79,-33,-266
356,1042,321,191,88,-169,-203,63,62,-451
331,1280,315,202,42,-224,-223,-9,-36,-314
277,1599,193,151,-20,-280,-236,-65,33,-179
-15,1752,52,40,-82,-262,-225,3,157,-59
-89,1622,46,14,-84,-215,-179,0,71,-40
-41,1287,39,-14,-103,-204,-128,-10,13,25
-149,843,12,-43,-116,-177,-95,6,33,21
-201,328,20,-16,-61,-115,-62,-23,-7,-75
-55,-194,29,27,32,-20,-11,-75,-119,-111
-176,-1128,-41,-8,5,-25,23,12,9,-132
16,-1354,-25,-45,-38,-85,-40,5,121,-94
132,-1445,-60,-45,-17,-40,-33,-12,140,-38
85,-1374,-135,-37,18,28,5,12,89,-12
62,-1148,-69,-22,19,-6,-10,26,32,56
4,-802,48,19,34,-40,-43,-12,22,119
-54,-439,19,65,91,2,-55,-80,-58,64
45,12,-81,48,88,7,-81,-168,-285,-8
159,541,-99,15,52,18,-55,-250,-493,-47
121,998,-33,-24,7,45,10,-236,-565,-39
44,1293,-11,-43,4,88,82,-178,-578,-60
63,1281,0,-33,-14,92,93,-139,-549,-128
98,1056,-25,-53,-69,21,17,-84,-287,-125
-95,638,-57,-81,-102,-35,-56,39,203,-103
-182,200,-109,-124,-128,-48,-57,163,674,-39
-85,-92,-123,-123,-105,0,21,193,726,-57
-21,-334,-142,-106,-42,80,111,129,455,-43
29,-613,-219,-131,-21,142,192,130,230,-31
48,-791,-144,-140,7,171,210,104,81,-62
56,-744,-49,-86,106,238,165,-18,-49,-52
-28,-630,-26,-47,149,250,129,-82,-91,12
-235,-609,-35,-29,110,208,178,8,-25,4
-223,-409,43,45,42,104,138,96,50,-39
-116,-93,120,159,51,24,84,88,43,-71
-95,277,114,169,70,41,95,92,-9,-95
-15,717,109,158,83,57,51,21,-91,-69
61,1076,100,115,47,-20,-42,-18,-59,23
127,1241,74,37,-23,-125,-130,-12,-13,107
198,1190,34,-11,-45,-132,-163,-50,-57,135
307,1026,-13,-83,-59,-26,-89,-61,0,161
273,633,-100,-191,-140,-34,-41,1,108,230
73,77,-106,-244,-209,-49,-49,50,88,226
29,-413,-33,-142,-99,1,-25,15,-33,138
199,-786,63,5,52,1,-8,-33,-67,182
405,-1093,94,54,84,-113,-76,-40,36,344
322,-1275,87,48,74,-201,-172,13,187,429
-398,-1005,150,145,134,-94,-152,26,103,-238
-660,-866,202,221,208,60,-26,75,134,-486
-361,-554,184,234,201,105,31,71,117,-554
98,-51,49,132,82,45,0,17,82,-261
105,412,23,42,-23,-76,-68,-8,11,-28
-117,806,1,18,-54,-163,-112,-23,-66,-5
-116,1134,1,-28,-92,-181,-85,-45,-100,-35
-73,1171,-79,-89,-131,-161,-31,-69,-93,-58
-137,985,-116,-104,-138,-101,34,-28,-101,-83
-41,695,-58,-39,-62,45,142,16,-171,-101
28,162,-23,6,19,216,262,92,-79,-63
0,-402,-54,-40,3,240,322,202,91,56
-31,-784,-37,-40,-10,132,224,97,-25,130
-96,-1085,52,76,105,106,94,-120,-283,-21
-96,-1312,54,81,133,60,-4,-144,-251,-209
69,-1309,67,42,91,-12,-76,-118,-201,-226
232,-1133,105,82,95,-21,-91,-114,-193,-76
263,-896,139,137,122,6,-93,-167,-256,82
61,-581,133,157,113,16,-77,-138,-193,184
-95,-238,165,161,78,-22,-54,-94,-113,154
84,161,165,111,-3,-99,-67,-97,-83,109
52,633,21,-44,-146,-159,-94,-25,158,49
-48,1019,-104,-139,-227,-173,-61,133,464,77
-24,1251,-117,-121,-179,-120,-14,219,649,109
-9,1289,-58,-35,-68,-33,22,192,566,67
26,1248,-12,-6,-49,-44,-1,72,283,-2
98,1052,-59,-50,-125,-141,-82,5,126,-10
-22,645,-86,-3,-76,-110,-85,8,93,-81
-151,263,-17,3,-50,-75,-68,40,130,-103
-105,12,-27,-48,-88,-72,-49,17,8,31
-98,-182,-69,-81,-104,-35,15,-8,-111,121
-156,-271,-100,-108,-107,21,91,9,-152,96
-196,-192,-55,-89,-71,78,145,-19,-214,-3
-157,0,-17,-23,14,140,149,-92,-297,-140
25,365,-51,-29,16,120,140,-56,-266,-168
90,716,-125,-113,-50,93,192,101,-91,-27
4,953,-198,-196,-99,30,161,171,6,87
-60,1204,-282,-243,-113,-1,40,137,60,178
33,1577,-246,-219,-90,37,-35,84,75,302
188,1993,-145,-148,-22,78,-93,-19,106,349
266,2242,-6,-38,22,6,-227,-130,166,255
281,2203,77,24,22,-98,-371,-194,222,81
262,1921,61,96,69,-114,-386,-194,174,-17
96,1297,108,168,159,-18,-215,-24,188,39
106,671,257,181,165,13,-96,74,181,178
191,202,250,153,119,-63,-127,-1,87,172
19,-279,186,130,91,-120,-148,-93,-52,-60
6,-673,103,55,-4,-173,-150,-173,-240,-154
72,-952,49,-28,-104,-207,-113,-175,-278,-10
-168,-1143,128,43,-86,-169,-30,-124,-250,-40
-230,-1205,128,110,-21,-75,58,-58,-173,-156
-120,-1101,58,150,86,128,186,14,-106,-218
-142,-956,155,193,189,290,304,104,1,-267
-217,-756,120,143,155,285,314,132,56,-296
-53,-343,12,19,22,156,235,71,-114,-287
-6,-96,-37,-30,9,156,251,70,-228,-204
-47,-14,-83,-41,9,92,167,25,-133,-88
-28,-52,-41,-8,32,34,5,-40,8,-46
8,-246,22,38,39,24,-66,41,193,26
134,-603,24,13,-5,-17,-54,148,343,176
308,-1110,67,38,5,-42,-49,126,320,275
337,-1629,136,105,60,-5,-61,50,191,347
99,-2128,118,107,62,-5,-81,11,109,313
-163,-2532,19,31,10,-43,-92,35,165,142
-41,-2732,-50,-23,-50,-104,-124,-6,96,-119
310,-2606,-39,-57,-130,-194,-179,-101,-9,-93
194,-2389,-110,-137,-228,-265,-213,-115,-25,62
-36,-2197,-138,-143,-210,-215,-133,-26,48,181
-61,-1782,-78,-59,-90,-103,-55,0,12,126
-106,-1350,-75,-25,-29,-30,-2,-13,-113,-102
-12,-850,-8,13,-3,24,86,-3,-98,-167
46,-345,69,92,41,112,181,61,61,-60
14,100,76,106,87,224,284,147,146,-100
48,464,51,46,68,216,244,142,106,-92
-192,568,-28,-57,-27,128,160,113,48,-62
-492,493,-111,-111,-62,140,146,53,-113,-129
-189,372,-182,-182,-74,154,132,-43,-325,-148
224,223,-186,-232,-97,175,164,-96,-452,-61
176,26,-101,-120,-30,236,230,-127,-496,-31
-102,-195,-46,43,88,318,299,-133,-480,-100
-169,-313,-65,64,109,296,269,-37,-308,-145
-153,-283,-113,-6,23,112,92,-3,-89,-155
-107,-61,-125,-43,-8,-49,-111,-73,72,-73
25,218,-84,-50,-18,-134,-201,-8,225,88
127,624,-15,-27,-14,-144,-185,108,307,192
245,1239,-30,-76,-60,-145,-189,96,336,214
285,1692,11,-43,-72,-145,-241,-29,212,228
-2,1930,185,95,-1,-163,-285,-80,117,232
-134,2275,302,222,110,-126,-268,-80,60,169
-17,2562,305,270,171,-42,-149,-4,129,86
130,2702,143,167,67,-97,-162,-10,155,14
95,2601,-44,49,-48,-186,-208,-57,76,-111
32,2188,-109,30,-51,-159,-170,-106,-56,-168
185,1669,-96,-15,-77,-99,-88,-103,-107,-91
285,1031,-81,-13,-69,-62,-32,-77,-147,1
194,296,-84,-35,-30,35,70,-42,-245,54
73,-358,-100,-113,-47,136,184,21,-256,45
-347,-982,-65,-131,-108,95,223,103,-119,-35
-569,-1399,-34,-99,-116,-31,118,97,-69,-151
-288,-1426,42,-26,-59,-100,18,4,-115,-253
-139,-1351,75,48,73,42,59,0,-48,-311
-56,-1167,37,58,141,151,122,77,108,-231
39,-886,23,15,105,104,88,103,252,-72
-33,-595,56,34,132,79,28,44,193,-49
-77,-146,103,68,127,60,-43,-50,-23,-97
-52,330,84,39,91,40,-37,-60,-173,-55
-17,621,61,36,64,11,-10,-34,-155,26
32,699,59,37,35,-51,-67,-51,-65,39
117,634,52,31,8,-101,-141,-124,-57,36
151,396,13,21,-13,-118,-161,-133,63,60
86,-98,11,18,-8,-87,-87,-40,190,93
-54,-635,-68,-25,-4,2,45,-6,60,121
-19,-960,-145,-83,-48,44,132,-35,-113,118
78,-1199,-109,-76,-48,44,166,-47,-200,76
56,-1532,-15,4,18,44,167,18,-123,24
124,-1737,-12,-20,39,45,160,99,58,34
211,-1663,-48,-84,-22,19,138,195,241,57
-42,-1542,-113,-115,-60,5,90,261,375,49
-112,-1243,-98,-120,-91,-32,39,264,497,159
-184,-915,-6,-45,-69,-59,3,225,464,206
-401,-655,55,66,27,-33,3,152,255,-56
-329,-114,84,126,98,-44,-99,2,32,-344
16,470,119,115,57,-102,-205,-57,-6,-212
254,763,124,73,5,-134,-168,-11,72,-47
340,798,74,24,-32,-149,-136,-5,47,-58
246,633,1,-2,-22,-56,-28,-26,-36,-99
113,239,64,29,45,89,93,-64,-117,-88
42,-303,95,82,116,165,121,-70,-130,8
15,-778,57,86,144,165,110,-46,-133,82
6,-1203,-27,27,53,94,94,3,-137,121
-162,-1650,1,11,-2,8,41,-5,-136,85
-188,-1918,-38,7,-25,-75,-34,-47,-158,8
37,-1818,-76,-42,-105,-195,-137,-111,-221,-4
85,-1646,-14,-40,-123,-204,-187,-166,-276,27
-15,-1434,-37,-73,-137,-166,-167,-135,-180,54
44,-1095,-90,-150,-186,-174,-143,-38,95,119
210,-736,-49,-145,-163,-160,-116,42,318,178
96,-486,47,-12,2,-13,-61,36,287,39
-172,-249,85,90,127,154,20,-10,98,-80
-260,19,41,66,99,155,23,-69,-73,-64
-309,89,24,69,119,173,46,-78,-172,-84
-280,-33,34,89,161,262,95,-72,-232,-156
-144,-260,-21,44,119,344,140,-106,-391,-218
-57,-688,-62,-3,81,338,148,-114,-447,-232
12,-1146,-36,-20,49,247,131,-29,-299,-187
202,-1442,-54,-89,-35,98,81,83,-36,-51
269,-1626,-63,-143,-86,-9,21,69,40,174
-39,-2124,40,-48,-8,-148,-63,50,150,150
-64,-2043,63,-3,5,-197,-83,17,93,68
30,-1795,61,8,-25,-246,-98,-4,9,38
63,-1489,34,-20,-80,-286,-113,20,66,37
90,-1125,15,-18,-94,-241,-123,32,157,113
55,-743,-45,29,-53,-147,-113,34,187,172
-24,-310,3,141,29,-115,-104,11,157,118
49,183,159,194,54,-120,-143,-58,30,44
105,552,175,133,14,-129,-159,-103,-68,22
79,655,105,40,-42,-138,-165,-108,-65,-3
176,674,-33,-80,-106,-106,-109,-46,-3,-31
86,347,-179,-162,-71,73,103,104,45,8
-234,-319,-177,-156,-9,222,300,181,37,-40
-181,-724,-102,-97,-24,127,223,77,0,-82
-9,-959,-87,-48,-19,60,109,-6,-20,-65
72,-1249,-122,-56,-26,118,143,55,77,-46
171,-1463,-57,-107,-97,75,133,108,285,34
219,-1474,-87,-151,-163,-14,85,159,414,168
157,-1319,-79,-110,-113,-39,60,201,360,224
8,-1001,-33,-46,-58,-48,-23,115,192,230
-298,-636,9,2,-26,-36,-90,6,61,238
-414,-316,68,50,29,0,-99,-33,-34,189
-236,36,90,117,92,30,-129,-87,-101,98
24,523,94,129,136,76,-108,-130,-145,-67
139,964,131,156,186,152,6,-42,-72,-165
236,1302,95,106,125,91,-11,-13,9,-107
164,1287,29,27,37,17,-54,-34,-5,-49
39,1041,10,15,18,21,-36,15,37,84
-20,565,7,4,9,31,30,33,6,159
-102,52,-41,-49,-31,33,108,51,15,85
-58,-338,-14,-52,-67,1,103,73,86,-66
88,-574,47,-19,-54,19,69,33,12,-154
-61,-781,10,-23,-38,100,112,29,-65,-291
-222,-928,-52,-60,-60,76,125,63,-54,-385
-131,-804,-90,-86,-82,-15,31,19,-30,-278
-100,-704,-92,-66,-59,-37,4,-52,-111,-229
-141,-541,-91,-78,-58,-47,-34,-99,-155,-233
-92,-300,-54,-41,-28,-74,-72,-92,-107,-171
-163,-163,-21,26,43,-34,-60,-40,-54,-121
-249,54,-17,64,116,18,-45,10,-5,-86
-139,400,-27,43,101,20,-52,42,80,-13
-8,655,6,54,78,-19,-71,33,100,74
100,674,-8,16,-16,-108,-101,11,30,187
144,542,-33,-18,-69,-145,-99,-76,-177,265
149,266,3,-28,-52,-96,-58,-134,-294,460
149,-157,-21,-50,-29,-17,5,-149,-345,476
59,-534,-106,-109,-65,68,88,-83,-269,310
-39,-738,-86,-49,-69,115,111,-25,-121,111
-1,-801,-3,62,-53,65,47,30,154,-38
-39,-905,34,110,0,83,82,189,437,-219
-109,-858,6,130,40,157,222,295,370,-231
-23,-463,-150,-52,-167,-67,146,217,241,-152
68,-32,-164,-175,-321,-353,-79,131,378,-7
27,291,21,11,-150,-320,-189,21,262,-1
-135,726,55,117,8,-190,-205,-88,1,-140
-174,1077,69,95,58,-112,-161,-85,-84,-129
-31,1558,45,63,78,-74,-166,-141,-198,-176
207,1968,104,82,66,-57,-116,-134,-208,-165
264,2086,163,111,49,-64,-87,-111,-162,-77
252,1881,65,34,-6,-63,-68,-128,-189,28
100,1500,-73,-62,-64,-41,-43,-192,-245,80
-252,885,-161,-115,-17,177,122,-115,-198,5
-352,237,-142,-81,86,413,328,22,-194,-122
-71,-211,-27,-11,142,411,334,24,-238,-73
45,-621,46,60,147,237,215,40,-190,63
43,-839,40,65,102,30,77,62,-139,92
187,-851,32,92,113,-25,10,42,-94,135
219,-728,74,121,117,-45,37,78,80,193
156,-463,77,95,88,22,107,121,142,165
21,-183,98,123,113,110,97,74,126,42
-7,190,89,121,94,115,24,30,192,50
102,580,91,58,4,29,-64,3,222,227
69,981,97,0,-70,-52,-114,-17,162,236
-45,1372,44,-6,-68,-57,-77,-2,143,81
-102,1722,95,8,-23,0,25,11,82,-103
-41,1876,96,-1,-16,-50,-7,-49,-34,-244
98,1810,47,-23,-24,-110,-73,-92,-75,-217
64,1465,-15,-44,-6,-45,-1,-34,-44,-171
-18,899,-50,-31,20,43,102,30,-21,-119
-199,344,-71,-49,-17,28,92,33,-24,-34
-303,-44,-185,-150,-127,-50,34,57,66,48
-150,-292,-180,-149,-139,-107,-17,104,166,146
241,-430,-10,-6,-28,-194,-172,9,128,193
652,-476,103,95,49,-221,-258,-64,172,246
682,-410,176,78,22,-174,-162,15,225,290
211,-381,163,106,46,-119,-96,43,187,222
-136,-192,69,119,65,-102,-106,-24,118,123
-366,63,77,111,95,-20,-52,-73,-31,-188
-374,391,44,61,70,30,-10,-91,-177,-316
-211,853,-4,20,18,17,0,-96,-236,-115
-93,1343,-1,-5,-23,-28,2,-82,-209,125
23,1680,-37,-30,-39,-7,11,-88,-248,179
152,1789,-45,-32,-30,45,14,-90,-238,60
192,1569,-15,-23,-32,50,5,-62,-165,-51
154,1177,-10,-24,-56,19,-30,-76,-93,-149
117,743,-27,-8,-31,41,8,14,164,-188
15,303,-15,2,-4,70,80,137,316,-197
-88,-22,-33,-36,-44,86,139,173,224,-226
-371,-441,-209,-207,-251,-35,-39,50,54,-138
-330,-496,-160,-148,-201,-82,-104,-21,9,-38
-115,43,-64,-104,-84,-16,-101,-149,-238,213
46,477,-70,-125,-13,107,6,-128,-334,212
19,842,-121,-84,57,155,21,-188,-513,107
-78,1103,-141,-50,92,135,-25,-280,-636,-19
-60,1488,-116,-32,85,111,0,-183,-421,-57
-36,1796,-60,-5,76,164,182,150,161,10
-60,1878,-13,5,68,194,303,371,513,-78
5,1845,18,4,53,128,219,337,494,-104
128,1863,5,-34,-47,-26,82,295,435,41
138,1678,79,29,-67,-156,-30,214,294,51
16,1313,100,69,-23,-146,-35,102,130,-139
-114,950,38,35,32,-30,66,122,207,-188
-146,651,-44,-13,62,53,105,161,227,-132
-42,450,-66,-27,67,47,60,108,74,-35
-20,317,-11,27,115,15,0,-7,-93,28
115,464,7,62,118,-7,-73,-93,-97,95
236,741,52,91,91,-40,-134,-172,-100,144
56,973,60,74,32,-91,-161,-179,-92,120
-162,1264,5,27,-6,-99,-148,-111,-58,113
-58,1635,3,0,-3,-70,-117,-33,2,233
166,2056,62,14,33,-52,-99,-52,-100,270
87,2390,162,82,102,-3,-62,-20,-124,175
-54,2631,248,165,184,104,22,62,20,5
61,2812,273,178,173,85,-14,-11,-4,-127
198,2794,173,86,55,-20,-88,-58,49,-109
172,2528,47,-13,-37,-43,-88,5,101,-160
269,2096,-43,-61,-93,-43,-50,11,43,-203
258,1588,-25,-44,-88,-51,16,-11,-11,-97
-19,1085,-21,-33,-64,-39,29,-13,-76,-86
-113,649,-62,-44,-65,7,58,24,-37,-106
-306,131,-132,-69,-51,59,107,-12,-181,-146
-313,25,-127,-72,-26,60,45,-27,-158,-117
-149,130,-130,-121,-78,13,-18,-50,-75,-2
114,299,-121,-125,-67,-17,-73,-59,-30,103
266,548,-92,-83,-13,-25,-134,-90,-88,161
330,831,-49,-32,0,-48,-179,-157,-169,345
183,1124,-25,4,23,61,-127,-156,-174,461
-201,1349,38,68,110,214,-52,-184,-306,187
-376,1475,42,57,102,203,-13,-164,-305,-128
-55,1547,107,119,166,184,108,22,140,-192
151,1371,123,91,90,67,65,32,148,-245
173,918,79,45,-10,-58,4,34,52,-230
156,483,51,58,-12,-64,-22,51,113,-136
163,102,48,57,-22,-58,-8,127,354,92
242,-200,72,56,-53,-113,7,146,341,348
143,-457,123,117,20,-115,-7,14,34,344
-87,-529,88,112,34,-137,-65,-110,-203,118
-61,-396,-35,-22,-88,-263,-143,-153,-283,-49
-38,-240,-149,-97,-144,-263,-114,-104,-169,-126
-73,-52,-241,-102,-131,-184,-13,95,229,-91
-71,55,-139,-61,-83,-93,64,236,425,-58
0,253,-82,-67,-74,-87,71,223,349,-44
148,597,-13,-39,-76,-112,0,78,125,-43
287,903,-95,-81,-140,-165,-82,-4,6,-10
310,902,-216,-144,-200,-156,-58,15,-32,-32
85,555,-186,-176,-183,-21,63,37,-55,-101
-262,18,-102,-97,-49,153,173,51,-41,-151
-535,-692,65,85,137,249,189,12,-72,-222
-488,-1332,36,151,200,229,166,37,-27,-186
-322,-1828,-20,60,101,40,75,72,10,-32
-81,-2185,-108,-66,-44,-114,-57,15,-23,133
118,-2456,-127,-136,-125,-98,-103,-42,-53,221
184,-2643,-19,-110,-118,-87,-95,-67,-68,189
140,-2641,80,-31,-72,-116,-135,-124,-125,48
0,-2669,167,80,31,-86,-87,-61,-71,-7
-85,-2652,200,159,119,0,29,49,106,-41
-189,-2398,145,141,115,44,104,109,209,-113
-113,-1974,61,73,65,39,104,114,144,-113
129,-1392,46,33,24,7,35,38,-3,-22
184,-823,36,17,9,1,-46,-86,-222,-63
48,-463,26,36,38,50,-36,-146,-327,-145
14,-344,5,31,74,132,38,-114,-352,-71
58,-403,-15,4,83,184,73,-75,-363,54
32,-582,-49,-23,56,159,49,-62,-235,150
-9,-918,-101,-66,15,78,3,-6,-4,223
-118,-1318,-160,-76,0,43,12,44,112,168
-326,-1696,-118,-65,-7,38,58,120,309,38
-323,-1949,-37,-45,-39,-5,37,126,405,-94
-59,-2032,-20,-2,-33,-20,-5,19,226,-112
266,-1927,-5,-4,-60,-66,-102,-106,9,-103
491,-1643,-10,-84,-141,-158,-195,-168,-93,-77
737,-1381,-37,-127,-195,-215,-176,-85,14,157
682,-1249,-5,-97,-149,-137,-67,14,102,330
77,-1307,34,-19,-28,22,37,13,9,377
-468,-1254,115,73,83,188,142,-44,-172,253
-467,-891,192,138,131,216,122,-209,-411,-51
-278,-464,164,115,105,133,71,-315,-517,-336
-202,-225,10,86,127,150,86,-265,-509,-440
-43,-163,-96,-9,59,109,86,-150,-330,-309
-317,-595,-163,-107,15,88,39,206,536,-125
-249,-895,-90,-68,50,112,64,218,440,-129
-8,-1065,30,-37,64,100,43,150,263,66
51,-1256,128,52,67,26,-26,124,247,223
19,-1403,182,134,29,-98,-112,60,154,138
-62,-1469,168,119,5,-87,-88,8,-41,-82
-82,-1388,139,102,21,34,65,57,-87,-135
-128,-1200,123,82,15,101,173,116,-21,-47
-105,-916,57,15,-23,71,151,124,48,5
-17,-474,-48,-72,-57,27,129,150,153,-50
-61,83,-128,-114,-63,2,126,150,209,-74
-81,623,-167,-141,-92,-38,85,123,208,-91
23,1148,-199,-210,-162,-122,37,134,198,-45
2,1559,-150,-128,-59,-97,28,127,207,-13
-50,1696,27,30,108,-42,-45,34,114,9
-43,1569,92,62,103,-79,-140,-1,89,84
-52,1270,95,58,40,-125,-142,85,187,165
46,847,107,61,10,-103,-99,79,86,204
197,347,162,92,16,-95,-123,-46,-107,195
285,-79,217,134,38,-83,-141,-131,-253,124
378,-413,204,103,-17,-121,-149,-142,-272,71
462,-646,154,47,-88,-193,-208,-200,-205,59
276,-844,56,-20,-137,-223,-227,-223,-103,-55
-22,-950,-42,-71,-137,-134,-107,-122,-39,-156
5,-852,-67,-94,-128,-40,13,-4,52,-29
-171,-747,-73,-64,-68,115,178,83,99,22
-394,-600,-129,-57,-6,255,307,102,26,-40
-394,-305,-180,-108,-30,285,339,103,-47,-31
-202,157,-143,-115,-82,178,270,113,-15,44
-98,603,-82,-56,0,180,166,-7,-85,18
33,968,-121,-52,24,157,58,-159,-218,3
107,1043,-265,-149,-88,58,-46,-197,-198,-24
119,887,-243,-159,-98,12,-118,-178,-174,0
71,503,-62,-31,50,33,-82,-121,-136,14
-52,-60,76,103,214,93,21,-29,-107,-11
-88,-557,150,182,290,99,80,107,6,30
172,-800,103,117,156,-89,-53,117,149,111
232,-1067,65,25,0,-228,-175,89,283,180
141,-1374,100,35,-40,-194,-120,99,297,111
164,-1317,101,34,-76,-219,-145,15,184,-65
225,-1104,91,24,-98,-213,-145,5,151,11
194,-933,78,7,-117,-179,-79,32,152,79
107,-664,61,-10,-133,-159,-40,31,133,64
100,-267,110,66,-39,-43,18,34,33,-1
38,144,74,126,60,77,77,44,-55,-62
-164,606,33,59,20,48,57,28,-156,-72
-254,1101,33,31,10,51,37,2,-256,-75
-136,1507,12,11,14,94,43,-40,-267,-8
-104,1623,-6,-1,18,105,51,-83,-228,10
-188,1554,-20,13,53,97,29,-129,-225,-14
-211,1269,-15,49,117,136,88,-128,-187,-43
-172,847,-4,33,122,185,202,-60,-153,-68
-173,488,-51,-36,66,177,254,-9,-51,-83
-84,226,-65,-54,31,167,240,42,-19,-132
66,83,-72,-55,16,146,192,66,-140,-212
79,0,-111,-107,-46,85,164,91,-182,-223
45,36,-76,-121,-105,-52,45,78,-165,-65
-275,-54,-30,-55,-59,-112,-53,121,-20,-53
-336,-20,-26,-12,23,-90,-101,122,212,-91
108,354,-18,-6,43,-83,-123,121,560,130
244,664,35,46,98,-24,-95,75,597,206
181,992,97,62,99,-7,-95,-13,326,66
177,1384,67,6,26,-58,-122,-82,145,-37
51,1654,26,-30,-31,-80,-132,-104,64,30
-219,1600,-43,-88,-108,-97,-150,-119,-66,33
-217,1394,-126,-156,-140,-84,-155,-129,-126,-2
16,1105,-77,-115,-74,-21,-137,-143,-146,-19
60,539,-85,-42,5,73,-88,-100,-125,-56
13,-130,-176,-75,11,82,-17,-2,49,-1
55,-584,-202,-114,9,105,77,93,168,44
89,-940,-112,-87,60,218,168,79,58,-24
35,-1264,27,62,141,282,189,32,-25,-103
31,-1449,53,98,133,249,208,108,47,-46
-19,-1421,72,100,121,161,169,100,30,-54
-88,-1282,32,67,55,19,87,89,10,-66
-24,-954,-8,2,-55,-178,-57,71,10,-51
0,-521,40,15,-90,-284,-185,-16,0,-7
-40,-146,28,115,-42,-255,-210,-122,-36,11
-46,262,67,182,19,-187,-171,-135,-70,16
-37,710,142,185,43,-143,-128,-92,-61,3
9,1063,163,135,48,-132,-129,-99,-98,-25
100,1211,114,52,19,-122,-121,-117,-116,24
74,1110,-39,-63,-15,-82,-40,-51,-76,134
32,819,-87,-85,0,-49,4,-41,-108,116
20,393,-9,-38,61,-3,33,-48,-173,76
128,93,0,-5,80,14,33,-58,-209,7
245,-108,-11,-42,5,-22,7,-110,-238,-55
59,-474,-14,-56,-17,27,58,-72,-155,-74
-121,-837,-38,-51,0,160,172,-7,-165,-138
-47,-858,-62,-67,-11,209,231,-7,-242,-153
52,-642,-94,-89,-30,174,225,-17,-224,-97
-31,-420,-127,-139,-98,64,240,92,-19,50
83,494,-35,-51,-65,-82,-77,-9,-50,158
256,1023,22,0,-18,-81,-109,-47,55,263
134,1439,12,-14,-24,-74,-104,39,358,321
-191,1366,46,46,88,143,83,240,593,97
-344,984,109,106,126,132,124,258,474,-65
-191,561,143,113,52,-5,32,140,235,-110
49,40,80,84,-30,-125,-71,20,64,-60
-119,-634,72,74,-28,-76,0,63,41,-67
-226,-1109,45,35,-26,-45,30,87,30,-46
-65,-1366,-46,-78,-107,-125,-51,24,21,21
80,-1524,-74,-151,-168,-161,-118,-40,-14,78
156,-1519,-47,-132,-121,-113,-121,-83,-22,124
127,-1384,-41,-99,-48,-40,-107,-72,54,145
148,-1204,-19,-42,1,39,-28,46,229,225
325,-851,44,27,69,163,80,135,259,405
433,-441,57,76,120,232,112,112,174,507
204,3,38,161,192,300,168,62,-1,271
50,585,7,96,119,196,119,-44,-184,26
55,1124,-30,-7,-16,26,35,-126,-270,-147
-141,1232,-23,-29,-48,-1,89,-88,-228,-341
-292,1155,5,-72,-102,-21,96,-70,-110,-416
-75,1105,-70,-115,-99,-15,27,-129,-37,-268
-57,792,16,-2,62,102,52,-207,-174,-319
-297,357,63,64,158,195,153,-149,-331,-359
-428,55,5,50,125,151,149,-132,-460,-361
-462,-144,-85,-30,17,-1,11,-178,-505,-327
-297,-296,-173,-147,-118,-113,-94,-72,-321,-125
-23,-333,-140,-165,-152,-154,-144,-5,-163,106
45,-208,-65,-62,-41,-79,-194,-118,-123,149
-12,-58,-10,1,58,34,-197,-142,161,203
-144,110,61,82,160,153,-105,-23,470,232
-149,388,116,121,177,126,-8,93,440,81
29,728,44,59,91,21,62,154,284,-5
93,1041,10,4,53,31,139,204,172,-30
120,1382,-55,-104,-55,-46,92,200,152,-97
92,1508,-87,-128,-118,-138,44,250,208,-6
-186,1196,-90,-34,-83,-145,-3,137,77,42
-233,805,-101,25,-50,-57,-9,74,192,54
-70,313,38,73,-10,41,48,131,266,131
147,-231,39,-18,-128,-32,5,88,139,187
194,-757,-36,-92,-207,-116,-18,96,148,159
71,-1227,18,-71,-185,-135,-2,215,302,165
-10,-1464,40,-29,-102,-95,-54,134,187,120
-37,-1515,-2,-27,-29,-8,-88,-22,19,99
102,-1356,11,-36,-27,-14,-113,-43,75,121
132,-1026,11,-54,-93,-129,-167,-4,132,152
108,-628,41,-10,-81,-235,-250,-31,90,129
67,-242,99,56,37,-94,-147,-35,38,56
28,120,139,125,163,104,34,18,-6,-104
86,622,191,124,119,89,66,35,75,-155
108,1212,164,77,47,71,72,6,29,-177
74,1655,89,43,22,117,148,-9,-96,-201
23,1848,21,14,20,192,272,48,-141,-172
-4,1798,-77,-10,9,158,283,64,-172,-127
-42,1628,-103,-49,-37,21,127,32,-153,-32
-33,1298,-64,-28,-29,-43,-13,-41,-121,16
-24,889,-15,24,30,-105,-137,-133,-138,18
-136,475,50,25,43,-138,-177,-96,-110,-16
-22,220,26,-37,-21,-133,-158,-33,-110,-6
292,97,37,-38,-60,-106,-163,-92,-233,63
278,-204,47,60,35,74,-66,-84,-169,57
-69,-446,-7,58,76,265,122,4,64,86
-261,-391,-3,67,123,383,255,13,163,152
-254,-58,-39,131,210,419,261,-18,89,84
-147,511,-110,56,117,235,80,-125,-121,-85
-153,1028,-169,-122,-62,-28,-121,-181,-251,-325
-203,1461,-215,-209,-115,-158,-195,-143,-265,-437
-53,1953,-122,-140,-63,-149,-164,-32,-160,-188
31,2399,-35,-73,-11,-106,-138,109,71,63
108,2574,71,2,22,-45,-105,147,200,147
174,2451,145,64,27,-58,-100,117,305,73
158,2003,176,97,24,-92,-131,83,318,-11
361,1564,141,40,-95,-200,-158,30,251,78
494,1051,152,11,-170,-263,-159,-17,163,155
544,556,176,79,-92,-204,-151,-84,70,155
551,99,94,39,-76,-133,-68,-24,106,227
292,-329,27,22,-39,-18,48,6,-5,195
-697,-942,-62,15,18,146,202,86,-129,-88
-816,-998,42,79,89,263,315,168,-120,-143
-703,-831,7,58,93,250,290,135,-164,-174
-503,-512,-111,-51,-23,83,121,35,-120,-142
-332,-148,-156,-98,-70,16,50,4,8,2
48,340,-138,-138,-50,83,180,69,-90,142
110,407,-51,-49,8,79,128,12,-155,141
-29,283,96,118,177,84,24,-27,-87,-23
-61,-55,108,156,210,75,-45,2,62,-183
235,-392,24,52,78,1,-88,-45,-55,-82
515,-710,12,-46,-62,-143,-175,-89,-88,115
397,-1033,33,-71,-92,-220,-189,-71,-92,180
187,-1310,89,-8,-40,-197,-184,-114,-102,129
71,-1422,69,14,3,-117,-113,-93,-61,49
10,-1330,49,29,37,-20,-22,-116,-200,-91
31,-1190,52,50,41,34,20,-120,-276,-194
9,-1005,26,46,33,52,56,-27,-152,-155
82,-651,52,63,-14,-47,-12,-10,-17,-13
198,-134,76,58,-81,-178,-149,-109,-91,68
82,353,-41,9,-110,-160,-161,-164,-190,193
-184,751,-94,-4,-56,-16,-24,-101,-124,246
-350,1075,46,88,151,194,154,-43,-32,66
-320,1239,-16,111,245,232,185,-30,-5,-53
-276,1158,-153,39,219,159,134,-50,-40,-78
-163,963,-101,0,147,50,62,-29,44,-56
-111,634,-117,-40,45,39,84,86,271,-13
-27,293,-225,-132,-87,-47,47,121,313,-93
129,-9,-76,-129,-147,-184,-106,49,254,-143
150,-363,105,18,-40,-166,-149,43,266,14
140,-652,149,71,11,-123,-143,46,193,191
107,-824,119,65,4,-89,-97,-2,-4,250
7,-828,79,39,17,-56,-48,-9,-117,172
-12,-643,25,-2,28,-27,-8,4,-151,112
118,-246,-6,-33,12,-6,-16,-57,-126,57
255,136,-59,-89,-40,1,-30,-51,-8,-11
254,331,-121,-122,-55,36,-17,-9,167,-135
-12,491,-131,-43,35,153,129,35,145,-182
-129,893,-160,-17,60,217,211,42,19,-167
-88,1218,-136,3,74,228,196,1,-159,-188
-254,1146,-61,-2,57,187,220,89,-87,-148
-419,765,-33,17,83,202,291,219,27,-104
-240,324,-27,18,87,188,291,217,98,-12
204,-65,-61,-42,-23,38,155,150,196,116
408,-410,28,-63,-137,-135,-4,97,173,198
221,-783,90,-5,-91,-155,-66,16,-1,127
17,-1147,137,77,5,-74,-40,7,-136,78
-105,-1438,192,145,72,-43,-75,-55,-216,-37
29,-1436,135,60,9,-28,-48,-55,-157,1
255,-1193,37,-78,-120,-45,9,-80,-205,167
222,-913,5,-80,-121,-75,-18,-162,-225,115
200,-536,-25,-64,-105,-163,-111,-165,-74,74
138,-134,-4,-19,-71,-169,-112,-104,79,135
-52,234,-5,7,-7,4,-5,-10,82,91
-351,616,-46,5,4,82,-14,46,24,-74
-493,1008,-70,42,34,51,-65,68,-5,-251
-357,1262,-29,83,80,35,-74,119,192,-256
-60,1319,45,65,55,-28,-73,161,390,-114
130,1274,62,61,25,-73,-156,1,212,-53
248,1103,144,112,58,-50,-180,-97,125,-5
222,668,196,120,67,10,-119,-43,155,38
