4,-904,-25,169,17,-41,11,0,19,0
-88,-2275,-16,120,11,-12,46,35,34,-25
-80,-3398,-26,1,5,-22,34,32,51,-20
-58,-4007,-41,-96,12,-29,25,19,52,27
-27,-4460,-57,-112,51,16,54,21,25,28
14,-4372,-42,-135,35,10,29,10,25,66
6,-3778,-13,-129,27,-6,-8,-3,20,80
-12,-3239,13,-89,63,13,0,-4,-9,10
70,-3038,-7,-106,24,11,-9,33,13,50
189,-3082,-19,-103,-16,-10,-48,45,21,97
191,-3612,-48,-79,-20,-5,-37,43,-2,74
90,-4481,-28,-61,-6,5,-2,36,4,3
13,-5095,-26,-34,38,32,34,64,7,-63
-49,-5428,22,-32,63,42,57,84,5,-61
-48,-5111,20,-44,48,34,45,47,0,-7
-20,-3096,0,-33,40,16,27,19,-18,-7
47,-251,-94,-40,15,-8,23,-2,-36,-51
81,-423,-115,-42,-17,-51,-1,-31,-50,-102
50,-2125,-152,-1,-47,-113,-79,-88,-89,-124
-58,-2221,-110,29,-57,-181,-184,-175,-165,-144
-76,-2090,-20,53,-9,-142,-183,-192,-179,-202
-84,-2178,-42,63,58,-82,-154,-145,-120,-239
-114,-1834,-17,227,136,-40,-135,-108,-132,-212
-91,-1056,-35,243,208,15,-100,-59,-139,-176
-286,-205,-130,205,310,88,-28,27,-118,-194
-312,-107,-184,236,346,185,99,167,-1,-102
-230,-32,-127,157,244,202,132,198,52,-17
-389,-344,-48,73,137,120,83,108,38,-45
-472,-1625,-32,67,68,31,-3,-14,-31,-145
-119,-4972,117,173,51,-41,-56,-86,-78,-132
84,-7420,147,47,53,-50,15,-26,0,-12
81,-7325,-39,-112,-12,3,94,75,94,80
50,-6862,-141,-46,-59,-17,72,79,124,118
44,-6208,-200,-82,-208,-73,30,39,110,178
150,-5155,-99,-66,-293,-89,4,20,110,266
214,-4836,-13,64,-214,-55,6,28,157,326
90,-5250,92,140,-153,-61,3,30,173,345
-114,-5168,326,-37,-219,-128,-6,-10,148,261
-201,-4582,366,-197,-230,-150,-25,-53,59,91
-69,-2738,282,-121,-126,-72,0,-33,17,-11
158,301,156,-128,-4,44,38,5,40,-26
199,2503,19,-114,37,117,56,26,7,-62
154,2433,-98,-90,-24,68,22,-27,-79,-140
306,1237,-219,-206,-143,-25,-25,-68,-114,-175
254,472,-219,-273,-216,-137,-113,-126,-176,-167
163,163,-118,-227,-183,-142,-101,-103,-137,-78
108,553,132,-3,-102,-68,-28,-23,-53,-4
-152,1116,256,176,-9,-13,36,28,0,-29
11,-593,277,235,65,23,67,50,25,-13
257,-3862,235,250,170,38,32,30,12,25
152,-4539,185,357,264,106,67,37,48,56
-244,-4158,106,311,248,150,109,88,90,4
-478,-2692,-27,50,136,112,83,81,63,-114
-396,-644,-135,-194,-37,-14,-44,-75,-113,-238
-92,839,-279,-406,-86,-119,-146,-150,-151,-131
394,2155,-296,-442,-106,-189,-202,-127,-59,109
851,3516,-162,-353,-168,-217,-211,-114,-18,267
944,4320,-36,-234,-137,-141,-125,-69,24,310
734,4530,71,-160,-77,-16,-32,-6,70,277
303,4627,145,-111,50,152,141,140,183,210
-431,5280,242,-70,134,272,312,298,282,36
-851,5494,311,-86,68,217,250,224,145,-170
-542,4845,161,-148,-27,82,117,119,53,-94
-190,3704,-62,-125,0,22,63,110,83,63
-123,2564,-142,31,93,3,55,108,115,197
-158,1714,-161,14,76,-42,40,75,88,237
-278,1114,-119,-28,-1,-66,0,4,-39,55
-265,808,-8,73,-7,-27,-31,-80,-135,-203
-41,346,74,359,99,22,-30,-123,-178,-357
-53,-64,0,380,291,122,101,-29,-70,-280
-228,-155,-105,253,399,179,177,55,8,-178
-333,-250,-149,145,256,134,141,82,32,-195
-81,-80,-133,155,-42,31,75,69,15,-174
170,438,-98,130,-202,-30,39,47,-19,-128
381,1026,-47,46,-283,-88,-4,17,-11,-22
448,1405,64,-194,-432,-288,-198,-168,-118,-51
206,1101,117,-370,-460,-425,-364,-323,-252,-193
100,203,264,-342,-332,-375,-350,-311,-280,-228
286,-749,387,-291,-279,-344,-330,-297,-247,-128
290,-1851,266,-287,-291,-315,-304,-291,-185,14
346,-4050,144,-240,-262,-249,-216,-203,-74,188
640,-5851,35,-132,-136,-139,-91,-89,35,273
821,-6096,-34,32,117,38,73,82,198,324
1094,-5802,-82,579,581,238,218,209,288,348
431,-5454,-172,832,799,340,291,254,283,318
-421,-5004,-424,643,636,280,230,199,211,222
-410,-3179,-659,510,390,224,232,213,219,207
-948,-1003,-304,645,152,139,180,158,154,70
-1310,-368,231,586,-16,55,60,-4,-29,-220
-708,1573,623,141,-128,-40,-47,-130,-138,-206
-320,3308,496,-332,-158,-82,-97,-177,-172,-155
-432,3735,67,-157,152,130,28,-71,-132,-225
-332,4535,-223,385,636,431,232,64,-68,-358
-198,5751,-381,536,674,595,365,158,13,-417
-520,5476,-442,431,615,566,345,149,30,-459
-842,4786,-569,404,535,367,227,84,-12,-559
-659,5755,-293,396,166,43,60,41,7,-456
-302,5919,359,159,-213,-239,-114,-80,-55,-249
203,4553,703,-305,-629,-419,-204,-158,-101,-38
1041,4680,263,-983,-884,-387,-95,-17,96,296
1623,5470,-16,-1225,-805,-241,65,103,265,523
1206,4727,142,-1017,-644,-143,127,141,254,475
102,4021,275,-635,-409,-45,164,190,264,301
-594,3968,339,-374,-244,-3,136,189,289,261
-259,3524,317,-295,-227,-28,48,160,294,389
579,3294,189,-202,-203,-69,-45,90,252,554
830,3335,45,63,-102,-93,-116,0,169,597
561,2405,-172,155,17,-26,-73,-11,116,525
192,1478,-445,-119,-9,39,-4,-4,17,340
530,1345,-390,-351,-116,13,34,-29,-64,181
729,142,-259,-239,58,25,17,-52,-75,89
-231,-2872,-343,21,416,99,11,-24,-58,-84
-747,-4128,-357,125,602,216,75,34,-18,-203
-410,-4121,-203,203,613,229,8,10,-71,-292
-196,-5038,-220,60,329,74,-179,-137,-228,-478
-518,-6371,-340,-167,-143,-173,-379,-294,-358,-626
-586,-7346,-262,-130,-357,-246,-328,-238,-270,-426
542,-7503,459,-74,-461,-144,-24,-17,-12,31
1224,-7287,878,98,-272,61,229,143,163,278
-117,-6904,528,277,93,337,516,338,312,135
-1663,-6481,186,304,220,362,612,376,264,-109
-1113,-6048,203,242,156,166,362,211,89,-145
-260,-5610,408,306,2,-119,-1,-77,-144,-145
35,-5325,420,367,-118,-299,-224,-236,-209,-145
-46,-5072,86,273,-233,-303,-252,-221,-161,-151
-280,-4762,-458,51,-149,-137,-97,-55,8,-35
-46,-4491,-543,-129,-117,-110,-103,-82,10,148
414,-4241,-68,192,-3,-154,-187,-186,-48,418
711,-4006,396,620,82,-242,-277,-320,-161,406
946,-3794,394,630,151,-262,-322,-406,-283,175
1087,-3579,276,712,357,-101,-251,-341,-277,54
834,-3368,8,627,618,68,-131,-245,-230,40
355,-3173,-324,363,694,131,-79,-206,-233,-59
-160,-2987,-592,-79,258,61,-49,-126,-185,-210
-734,-2807,-550,-389,-118,-31,-27,-61,-123,-447
-673,-2641,59,-339,-37,179,219,226,152,-369
-803,-2488,352,-197,412,503,483,464,350,-248
-910,-2322,-19,-456,630,625,569,491,359,-185
-928,-2167,-604,-803,323,472,496,432,317,-195
-38,-2021,-179,-633,-225,70,134,126,65,-200
1035,-1898,811,48,-437,-298,-304,-272,-258,-183
1128,-1791,1103,526,-201,-310,-367,-325,-264,-149
-363,-1676,176,285,-277,-214,-152,-85,-44,-217
-869,-1571,-449,21,-315,-143,-19,72,140,-90
-58,-1499,-180,143,14,241,287,341,384,399
-130,-1426,-316,-43,149,532,581,618,613,587
-337,-1332,-50,-425,-65,320,450,451,401,309
-357,-1249,211,-665,-280,36,186,185,157,171
93,-1184,272,-843,-386,-71,56,121,179,374
982,-1123,447,-664,-326,-106,16,105,203,535
1852,-1055,539,-268,-209,-143,-60,40,176,593
1916,-986,612,-132,-278,-167,-51,54,233,713
654,-935,394,-274,-463,-269,-124,0,196,616
-705,-886,209,134,-291,-275,-204,-128,-35,160
-924,-821,-104,204,-9,-98,-90,-56,-84,-37
-270,-780,-357,98,88,63,45,44,-63,22
-365,-743,-255,524,238,210,190,121,-15,0
-835,-694,-15,830,351,154,181,87,-56,-153
-314,-656,205,324,-87,-17,107,61,-72,-188
142,-619,181,-98,-240,-49,89,80,-55,-225
-55,-590,-132,170,52,-17,47,46,-74,-332
-185,-544,-421,624,375,95,90,72,-41,-314
82,-515,-419,636,588,289,210,169,66,-106
-193,-481,-470,-48,457,284,253,205,124,-27
-640,-446,-158,-480,231,16,12,15,-31,-104
-425,-414,369,-544,-82,-392,-428,-356,-300,-88
96,-389,723,-595,-408,-577,-606,-487,-332,98
305,-373,413,-957,-583,-429,-406,-352,-244,165
700,-343,64,-950,-315,-139,-83,-169,-147,114
656,-318,-183,-641,143,312,465,239,226,315
212,-288,-526,-348,179,460,678,468,498,527
180,-260,-531,312,127,249,480,289,309,348
606,-243,75,758,219,86,308,105,101,301
49,-220,381,577,320,86,232,107,57,323
-128,-196,328,675,445,69,78,78,53,372
-295,-172,89,1058,638,30,-78,-37,-96,251
-658,-160,-475,473,314,-188,-278,-190,-256,196
-702,-152,-604,-345,-151,-294,-313,-241,-276,197
-97,-148,-369,-434,-95,-64,-2,77,55,447
358,-148,237,-25,30,155,280,319,300,578
-305,-136,679,-121,-198,86,261,246,142,17
-726,-118,832,-100,-339,-82,133,134,0,-360
-151,-26,691,-348,-626,-259,-18,-12,-150,-462
490,2124,437,-633,-566,-296,-119,-136,-297,-646
1303,5505,397,-300,-136,-249,-169,-200,-334,-619
1863,5825,410,294,140,-189,-270,-344,-453,-404
1594,5393,-139,519,197,-112,-283,-408,-542,-460
509,5501,-658,893,462,153,-90,-246,-462,-654
-1094,6825,-787,862,620,318,106,-54,-287,-893
-1549,9454,-602,534,590,191,-8,-166,-328,-812
-1555,11399,-96,412,306,168,20,-125,-263,-376
-646,13326,48,29,-194,115,171,146,49,140
742,14133,136,-202,-577,-118,88,206,162,399
931,13801,215,-417,-667,-117,118,255,255,434
37,13736,20,-704,-507,84,276,353,346,338
-530,14078,139,-514,-193,120,220,265,238,186
-167,13553,149,-216,80,174,200,191,160,223
-569,12762,-20,56,268,220,198,160,134,121
-669,11999,-249,-35,91,104,90,39,23,-38
81,11246,-482,-421,-76,91,158,168,172,183
-194,9937,-587,-457,41,181,314,397,397,378
-631,7194,-363,-124,193,177,258,335,341,320
-431,7290,32,-108,140,69,58,85,126,189
-190,8842,244,-459,-194,-87,-100,-83,-48,50
97,8617,134,-504,-360,-70,-93,-98,-87,4
736,8096,440,77,-347,-54,-136,-217,-169,-46
1127,7603,773,102,-469,-264,-400,-501,-427,-105
939,7134,472,-199,-474,-338,-465,-541,-418,6
761,6701,-236,-261,-207,-238,-394,-443,-301,130
991,6308,-852,-32,170,95,-122,-195,-72,263
682,5920,-1093,181,516,546,242,87,113,231
-907,5530,-887,160,666,729,466,254,149,-44
-1626,5195,-60,456,742,704,458,200,12,-218
-1469,4537,557,805,533,489,291,48,-109,-287
-574,715,955,709,-65,37,-19,-182,-257,-402
114,-5680,890,319,-339,-173,-156,-247,-226,-285
201,-8067,595,227,-332,-185,-113,-94,-22,75
102,-6476,485,51,-215,-57,-18,41,131,310
-374,-1749,64,-108,71,160,56,32,95,164
-790,3652,-695,-115,431,276,43,-40,2,-3
-571,5022,-757,241,598,346,16,-46,-14,126
-732,3091,-466,480,623,527,190,133,125,305
-440,-1383,4,265,158,341,100,81,89,209
277,-4783,927,262,-367,-74,-244,-230,-210,-56
510,-6893,1550,14,-740,-360,-406,-341,-334,-324
263,-8488,866,-446,-613,-297,-282,-211,-206,-488
-4,-10448,110,-411,-386,-202,-192,-123,-148,-431
-144,-12627,-41,-105,-362,-319,-316,-214,-205,-377
96,-12970,-221,-191,-371,-371,-306,-203,-157,-258
433,-12288,-326,-303,-209,-168,-59,10,24,2
463,-11567,-204,-432,-29,-61,8,107,170,180
250,-10869,0,-305,17,-72,-9,104,182,267
162,-10223,165,-220,78,94,140,231,246,316
369,-9619,8,-399,151,243,192,302,282,327
333,-9056,-7,19,261,78,-85,-11,0,118
1090,-8517,478,1007,423,-110,-353,-353,-299,11
1511,-7991,276,1146,411,-217,-453,-477,-374,-92
-336,-7483,-758,128,-52,-361,-526,-544,-494,-620
-913,-7049,-1256,-590,-73,-166,-430,-384,-406,-572
-1158,-6641,-1398,-634,227,361,125,100,-38,-389
-1359,-6250,-1347,-394,271,466,520,400,184,-326
-642,-5881,-939,-120,150,343,605,503,353,113
-24,-5521,-55,-338,-282,117,372,388,397,546
293,-5177,1311,-600,-596,-64,164,269,317,563
359,-4879,1510,-612,-435,13,288,372,422,563
257,-4605,813,-638,-285,78,356,421,487,622
277,-4330,420,-518,-212,-42,155,205,237,399
547,-4054,228,-505,-268,-216,-110,-78,-36,131
478,-3796,75,-537,-351,-356,-345,-305,-209,5
-114,-3566,-323,-205,-155,-223,-273,-277,-249,-136
-33,-3356,-530,229,120,-11,-98,-159,-147,-165
23,-3149,-603,387,71,-48,-110,-159,-128,-226
-1157,-2948,-610,552,157,13,-30,-15,3,-386
-1023,-2756,-78,816,289,26,-65,17,16,-381
-279,-2565,398,1290,478,-15,-195,-105,-105,-383
81,-2382,412,1113,395,10,-165,-89,-95,-203
61,-2122,232,518,62,-83,-192,-82,-49,-70
320,-1020,530,225,-31,-307,-458,-264,-149,-67
804,1314,816,202,-200,-613,-793,-591,-397,-185
314,2977,607,-273,-373,-572,-612,-607,-412,-229
-611,3584,302,-513,-314,-207,-161,-322,-184,-113
-170,4646,428,-240,87,288,174,-59,64,232
526,5450,353,-85,308,548,431,178,289,661
583,5506,-170,-350,49,281,380,211,331,695
232,5500,-379,-642,-271,20,254,170,266,294
-40,5921,-503,-773,-276,130,332,264,257,28
-504,6890,-548,-779,-271,140,267,234,157,-128
-57,8499,-437,-738,-370,-28,78,144,170,42
629,9564,-391,-620,-301,-69,53,121,210,168
320,10096,-359,-430,-108,21,162,207,240,87
-277,10583,-328,-180,-3,16,149,199,227,-31
-678,11182,-135,351,367,126,128,110,74,-185
-769,11631,-18,665,524,175,65,6,-12,-208
-590,11757,-111,553,382,169,8,-36,-65,-216
-377,11487,-217,368,344,236,51,-7,-80,-223
-328,10971,-98,401,428,235,34,-38,-109,-170
2,10382,111,439,409,152,-63,-152,-176,-90
752,9817,77,134,117,-22,-239,-362,-340,-100
1532,9263,-92,33,70,-137,-393,-508,-484,-72
996,8681,-737,254,334,-79,-312,-383,-380,-51
17,8151,-1137,397,83,-310,-440,-426,-363,-124
216,7735,-431,752,-423,-709,-752,-663,-558,-268
-636,7236,201,688,-707,-862,-831,-654,-573,-649
-923,6812,428,1111,-231,-459,-470,-258,-237,-631
121,6478,1175,1777,376,-19,-202,-64,-19,-134
-33,6107,715,1679,891,387,-22,23,23,-8
-792,5757,-59,1443,1099,676,238,248,160,-142
-1505,5397,-183,1620,1117,750,362,261,120,-328
-1688,5081,-535,1420,855,682,228,57,-67,-433
-1072,4768,-748,269,140,443,146,-13,-81,-413
-491,4481,-637,-650,72,364,157,59,38,-207
-183,4209,-711,-510,448,399,212,195,248,131
207,3950,-647,-539,276,295,278,363,465,489
630,3726,179,-768,-502,-134,107,375,553,769
939,3506,1330,-364,-1072,-692,-262,94,342,740
1219,3295,1306,-876,-953,-573,-123,143,351,735
1113,3080,557,-1707,-762,-190,186,413,530,686
364,2895,18,-1870,-453,110,432,608,669,650
-401,2722,-275,-1533,-55,299,534,649,675,568
-247,2560,-31,-1076,-5,211,368,394,438,359
568,2406,99,-991,-303,-124,-18,-65,-12,192
1634,2268,-34,-1027,-550,-328,-298,-347,-217,175
1966,2137,91,-806,-558,-379,-424,-408,-212,222
1523,2016,79,-929,-722,-560,-655,-588,-393,-8
1069,1880,120,-974,-689,-509,-630,-578,-401,-81
-459,1766,-371,-789,-380,-48,-63,-48,61,106
-751,1668,-832,-270,271,443,521,386,356,63
-445,1573,-234,648,666,544,578,390,299,-30
-1143,1483,417,509,-13,34,268,178,102,-329
-1218,1382,212,-13,-423,-363,12,76,77,-371
-306,1295,93,-27,-272,-167,50,251,314,47
-389,1220,-211,-169,-42,69,102,281,254,-52
-746,1153,-431,664,419,98,-60,-32,-92,-427
-598,1078,-398,1643,861,173,-102,-217,-253,-498
-447,1009,-210,1646,829,114,-207,-343,-361,-474
-211,943,19,1905,977,193,-168,-319,-315,-326
91,881,260,2818,1102,265,-48,-299,-297,-291
198,818,470,2740,736,223,11,-244,-285,-163
117,749,602,1778,376,42,-144,-334,-331,-81
145,659,399,129,-113,-94,-153,-243,-230,-141
311,594,332,-1146,-240,40,126,177,274,305
276,434,134,-1850,-240,284,474,645,771,684
193,-150,-633,-2559,-511,185,421,635,697,488
592,-1465,-860,-2880,-923,-37,222,384,379,245
1122,-1763,-380,-2203,-911,-176,31,124,118,118
852,-1961,149,-1041,-475,-171,-88,-13,1,63
-241,-2533,333,-295,-249,-136,-106,-29,23,63
-479,-3089,-92,-155,-436,-174,-120,0,123,263
-220,-3808,-403,248,-370,-342,-341,-194,-30,332
-161,-4430,-309,1069,-63,-501,-664,-586,-420,107
-118,-4640,85,1068,192,-464,-714,-655,-527,-175
-359,-5197,582,323,69,-397,-537,-372,-357,-695
-765,-6221,73,-468,-118,-61,-24,288,197,-817
115,-5670,313,-483,-269,8,20,381,301,-570
691,-4808,368,-12,-272,-69,-170,76,37,-451
160,-5025,-878,706,322,308,29,92,23,-312
-741,-6395,-1684,1662,1122,627,128,178,119,-231
-1229,-7468,-1697,1747,1198,440,2,-102,-132,-423
-1117,-6861,-1341,883,613,318,203,-203,-303,-580
-718,-5989,-193,247,94,232,323,-220,-358,-578
-53,-5150,1759,-144,5,239,388,-41,-115,-146
539,-5027,2216,-1092,-323,181,489,346,349,512
999,-5294,1342,-2010,-654,103,569,686,768,1017
822,-6609,-68,-1914,-708,33,413,627,740,969
501,-8006,13,-1084,-470,-27,204,340,442,658
64,-9266,-42,-631,-359,-146,33,160,239,313
62,-9047,-174,-570,-382,-238,-45,85,214,321
347,-8807,-141,-425,-288,-193,-68,16,135,409
568,-8455,-133,-283,-157,-134,-84,-57,-17,306
222,-8143,-73,-120,27,-82,-62,-74,-104,65
-53,-7410,132,164,314,54,-2,-67,-159,-77
-64,-6109,212,262,438,165,58,-16,-121,-15
-216,-5106,76,253,351,9,-147,-203,-274,76
452,-3569,-106,450,304,-182,-451,-512,-509,78
1693,-2222,-361,454,464,-2,-344,-469,-444,62
1127,-1885,-731,524,528,176,-164,-378,-406,-432
-1245,-2304,-895,983,682,106,-294,-531,-625,-1152
-1861,-2271,-493,1341,398,-57,-302,-420,-517,-1112
-764,-1220,164,1280,-229,-275,-250,-195,-213,-489
91,-588,297,537,-668,-260,-12,195,201,82
629,-649,387,65,-600,-4,325,592,623,388
-192,-1101,311,-149,-591,-112,207,504,583,210
-342,-604,782,-253,-591,-220,-58,104,176,189
-474,-308,940,-432,-548,-254,-202,-202,-231,-110
-728,-632,450,-363,-520,-292,-198,-186,-214,-344
53,-708,36,-116,-282,-140,4,100,116,-1
737,-731,0,246,117,150,321,325,239,326
-88,-838,-275,285,312,273,378,336,178,100
-421,-576,-424,213,293,191,206,169,61,-157
-166,167,-99,194,147,125,90,88,5,-23
41,1087,389,79,117,67,-11,50,24,175
217,1874,611,-76,271,87,-52,91,123,422
230,1840,497,-403,353,178,1,209,273,540
40,220,379,-526,306,179,18,205,254,378
-116,146,14,-381,234,119,-98,61,64,73
471,1416,-431,-409,-114,-158,-393,-268,-289,-188
1215,1936,-588,-713,-478,-356,-474,-445,-417,-56
1111,1767,-509,-301,-332,-243,-262,-376,-378,30
292,1411,-123,454,-51,-124,-264,-256,-291,-261
-421,1409,187,409,-135,-196,-390,-227,-229,-578
-1010,1532,401,253,-143,-263,-346,-197,-251,-684
-1605,1935,302,810,185,-260,-396,-232,-265,-587
-344,2973,-190,1109,609,-65,-358,-199,-209,-217
421,3906,-820,902,1028,362,16,-8,-61,124
500,4754,-1380,475,1380,781,575,219,50,141
-128,5450,-948,397,1223,730,707,121,-164,-280
-767,6196,750,731,420,247,324,-217,-479,-767
-705,6947,1443,-33,-186,16,46,-211,-372,-701
13,7492,761,-1063,-695,-93,0,-44,-72,-109
212,7517,97,-893,-541,-20,46,61,67,184
74,7301,150,-639,-485,67,193,203,145,192
415,7101,297,-743,-575,43,239,318,289,314
375,6685,74,-760,-436,-2,192,357,385,342
-117,6089,-164,-460,-69,121,324,427,406,241
-155,5651,-661,-277,171,176,368,432,394,278
-16,5353,-864,-233,89,58,201,285,288,291
-205,5119,-581,-95,-47,-32,80,169,194,222
-185,5000,-236,-393,-363,-68,41,174,223,298
-189,4900,362,-414,-503,-246,-118,-19,30,208
-189,4814,337,-34,-255,-365,-280,-276,-223,93
185,4746,-134,-70,-177,-493,-448,-439,-342,119
585,4549,-556,-246,-187,-458,-389,-354,-231,178
337,4282,-609,-84,-42,-96,39,47,126,264
169,4033,144,533,319,262,360,346,381,335
-248,3794,588,514,259,342,465,489,496,351
-429,3577,111,-78,55,266,393,411,409,237
0,3359,7,-437,-200,9,98,117,108,118
360,3165,451,-246,-304,-162,-98,-103,-118,-55
236,2976,655,227,-195,-178,-114,-117,-135,-152
105,2792,603,262,38,-59,-18,36,33,16
363,2626,217,390,275,20,7,80,93,95
1057,2465,39,501,123,-239,-314,-201,-170,-118
1379,2323,97,208,-308,-558,-670,-499,-415,-331
919,2178,-51,-121,-411,-595,-747,-512,-384,-346
649,2042,28,43,-301,-563,-780,-528,-391,-186
996,1930,201,113,-295,-433,-616,-492,-369,-4
-69,1795,-110,707,73,-17,-185,-237,-208,-18
-1590,1651,-944,1491,498,211,56,4,-47,-257
-665,1534,-519,2050,535,98,233,98,12,-158
-390,1438,-245,2158,577,43,307,57,-84,-331
-1340,1353,-365,1744,529,104,194,-29,-191,-650
-1371,1324,255,737,412,268,208,12,-126,-425
-1028,1247,783,-378,150,267,201,70,50,-93
-341,1180,749,-1241,-138,114,109,85,184,223
562,1107,579,-1966,-316,169,253,275,400,608
636,1009,-9,-2446,-359,320,533,578,658,753
502,896,-475,-2251,-305,318,539,584,623,689
418,690,-591,-1746,-323,176,364,418,449,683
242,471,-460,-1167,-244,66,193,224,300,699
316,340,-333,-689,-178,-58,11,4,85,507
543,208,-264,-532,-90,-62,16,24,55,229
309,28,-252,-151,188,36,97,120,89,-207
-221,-102,-254,498,620,251,237,245,132,-544
-588,-309,-362,672,569,87,31,77,-47,-595
-262,-316,-56,434,15,-362,-462,-282,-314,-577
-251,-137,233,121,-31,-414,-625,-354,-313,-578
-616,-47,-228,57,235,-104,-456,-313,-301,-629
-765,103,-676,301,486,264,-247,-303,-350,-649
-673,302,-751,798,475,320,-236,-437,-527,-717
-650,193,-212,1747,407,46,-426,-517,-551,-649
-637,-210,310,1963,215,-145,-297,-455,-488,-521
-149,-595,502,1101,-158,-34,251,-70,-159,-142
282,-764,698,215,-344,-20,352,180,135,217
176,-1375,594,-291,-254,-105,163,162,166,307
167,-1943,147,-696,-20,-26,86,146,164,254
150,-2518,-134,-804,80,56,24,147,170,151
161,-2910,-119,-747,-186,-91,-44,48,65,56
163,-3350,-363,-487,-302,-82,139,198,226,237
381,-3388,-294,-515,-351,32,411,291,325,359
594,-3352,616,-412,-459,-117,255,104,160,276
265,-3375,826,-54,-146,-28,181,160,172,174
447,-2898,457,-2,61,77,188,180,160,216
469,-2507,138,-649,-256,-49,3,-44,-72,101
-12,-2528,-314,-819,-318,-91,-85,-132,-116,46
112,-2156,-383,-324,0,20,47,38,118,289
627,-1212,-224,-277,67,120,221,272,391,701
777,-222,-26,-496,-113,163,259,374,499,999
554,411,253,-309,-227,-31,24,137,288,910
439,36,234,-169,-390,-377,-357,-286,-131,492
910,-576,212,39,-337,-476,-508,-482,-352,163
1082,-944,326,575,35,-254,-331,-377,-357,-228
-95,-2127,-98,725,263,202,177,118,3,-563
-1037,-2781,-627,-62,34,269,330,321,248,-588
-1013,-2412,-407,-454,-93,34,46,-13,-77,-768
-1127,-2364,-266,-162,144,67,32,-85,-198,-826
-690,-1980,283,376,261,90,82,-89,-192,-667
-415,-1182,814,403,62,-25,-37,-207,-295,-544
69,-664,828,-48,-89,-64,-72,-148,-211,-184
279,-758,435,-138,15,-40,-76,-79,-73,14
410,-898,90,176,89,12,-3,53,79,149
350,-824,-88,13,-5,35,58,153,166,195
-71,-700,-123,295,63,-29,-75,27,32,-31
-688,-751,-136,651,252,-53,-218,-34,-32,-128
-713,-705,-112,215,125,-146,-329,-85,-74,-101
-285,-727,-10,36,-69,-216,-274,-167,-167,-30
-27,-1270,-231,249,-99,-174,-219,-89,-125,162
441,-1939,-519,630,155,-6,-144,66,72,413
672,-2417,-650,1396,662,256,12,51,111,366
-128,-2878,-613,1187,635,275,116,-38,25,85
-1235,-2947,-410,201,326,271,267,7,-50,-213
-800,-2675,-166,-17,381,354,390,193,74,-189
432,-1790,227,-260,68,222,282,190,167,127
566,-497,814,-701,-537,-206,-135,-111,-15,123
196,442,794,-1028,-695,-332,-222,-134,-17,43
240,1083,352,-688,-236,-127,-82,-28,45,131
550,1973,311,56,239,190,64,46,70,291
481,2673,-93,21,265,329,89,28,5,185
15,3195,-700,-189,83,192,-53,-146,-212,-224
-557,3672,-653,328,507,169,-34,-117,-187,-344
-1006,4039,-582,552,366,-5,-40,-85,-153,-341
-765,4083,-408,138,-266,-104,59,61,-1,-171
-340,3875,176,-488,-625,-155,135,236,226,124
-170,3647,642,-341,-405,-143,75,217,276,343
328,3438,503,-332,-290,-81,51,189,306,543
943,3226,562,-653,-460,-154,-50,49,168,521
1385,3036,786,-638,-538,-417,-356,-245,-120,349
725,2856,804,-376,-540,-654,-648,-507,-394,-14
-659,2685,151,-439,-532,-589,-536,-348,-287,-280
-1046,2522,-585,-431,-327,-232,-132,116,167,19
-199,2381,-1176,-469,-26,175,273,384,402,453
461,2236,-1042,52,256,316,422,216,128,244
770,2095,-783,758,506,376,363,90,-52,-184
53,1971,-626,939,419,289,238,70,-57,-482
-768,1858,-489,1194,363,51,-125,-219,-311,-720
-1177,1751,-386,1515,372,-103,-396,-443,-512,-828
-772,1645,-45,1730,291,-120,-393,-465,-478,-648
-228,1547,737,1574,311,-55,-221,-306,-244,-263
111,1453,1562,818,-14,-144,-143,-89,-1,169
231,1365,1081,-404,-122,81,127,339,435,713
204,1267,342,-1226,-63,362,466,698,789,1119
158,1192,53,-1531,-133,350,560,738,776,1048
617,1138,-107,-1529,-283,147,220,493,531,711
542,1066,-173,-1346,-345,25,58,302,312,362
-207,1000,-335,-1095,-443,-107,0,117,81,7
-287,930,-250,-754,-410,-173,-8,-33,-51,-9
93,875,-170,-410,-210,-67,11,-16,10,107
128,832,-41,-197,-45,47,82,4,-5,-40
-237,772,99,38,151,165,310,87,-20,-333
-330,724,155,209,254,211,361,161,-18,-453
303,689,96,120,63,-23,53,-25,-157,-409
771,649,32,104,-102,-257,-195,-319,-397,-475
153,601,-233,180,-100,-282,-227,-419,-489,-535
-313,561,-473,266,17,-158,-192,-363,-398,-483
458,529,-326,359,49,-168,-280,-401,-403,-364
974,501,-51,214,-63,-244,-354,-490,-463,-352
-24,465,-260,256,13,-100,-182,-396,-405,-569
-934,433,-178,1140,605,105,-32,-264,-324,-623
-922,396,88,2224,1259,227,28,-104,-126,-272
-882,334,-709,1622,919,141,62,79,85,-37
-720,234,-886,686,76,29,53,132,131,-120
-342,165,280,627,68,151,85,46,30,-125
305,138,1230,557,82,72,20,-110,-90,0
940,174,1365,-210,-114,33,42,6,71,299
935,126,603,-1333,-520,-12,76,198,295,573
773,60,-24,-1554,-657,-36,95,279,351,580
866,-104,116,-1059,-439,58,197,374,388,440
-27,-439,38,-1000,-350,88,239,368,370,224
-858,-658,-100,-914,-295,92,182,293,272,144
-589,-911,-81,-502,-91,117,201,184,133,69
-173,-1289,-92,-159,28,127,231,147,121,126
-180,-1801,-180,-227,-62,32,75,94,113,166
-368,-2143,-94,-203,-167,-57,-38,5,68,85
-288,-2582,63,-60,-179,-101,-128,-94,-48,-34
-230,-3331,-106,-174,-141,-140,-196,-168,-157,-181
81,-3982,-82,2,51,-199,-274,-234,-173,-83
282,-4444,168,196,153,-203,-298,-222,-143,59
472,-4731,181,15,-12,-183,-217,-114,-76,141
441,-4869,-14,-93,-34,-89,-68,-19,6,102
-10,-4903,-211,-14,111,61,79,67,42,-46
-180,-4713,-194,198,231,201,40,62,25,-195
-162,-4370,-115,169,103,170,-139,-88,-136,-300
134,-3681,-93,173,-41,-47,-218,-204,-245,-235
340,-3113,-204,395,-42,-163,-210,-156,-119,-34
235,-2854,-381,285,-79,-73,-125,-84,-23,11
73,-2610,-572,143,-55,-63,-143,-91,-30,-63
-260,-2552,-316,163,136,-35,-177,-169,-167,-217
-449,-2458,455,400,399,147,36,-81,-127,-204
-458,-2396,536,286,465,273,33,-35,-94,-130
-41,-2682,302,87,399,82,-163,-176,-149,-50
121,-3052,151,95,82,-230,-291,-239,-123,-6
-175,-3188,236,200,-146,-210,-84,-84,-51,-29
-41,-3097,148,-2,-221,82,225,225,192,196
383,-3121,-183,-518,-395,99,447,347,306,337
450,-3571,-197,-582,-425,-64,403,264,273,322
365,-3656,-228,-489,-289,-142,126,151,233,345
202,-3111,-366,-441,-130,-119,-2,92,198,351
-47,-2353,-356,-215,-62,-134,-136,-57,71,256
96,-1256,-193,-115,-142,-195,-241,-227,-106,190
456,-359,-43,-122,-203,-141,-56,-148,-80,288
718,298,220,-137,-181,14,184,120,199,605
82,571,366,71,41,231,337,319,393,589
-718,1486,121,178,93,205,240,189,203,181
-832,2529,-229,148,-57,28,33,-1,-20,4
-753,3290,-392,793,215,103,34,-17,-127,-219
-175,3729,-573,1503,452,121,-9,-111,-308,-609
334,4149,-591,1208,198,-176,-353,-449,-591,-868
61,4344,-7,1029,84,-302,-561,-624,-706,-832
-68,4121,1137,1127,353,-223,-503,-517,-557,-625
436,4088,1609,296,373,-106,-265,-253,-292,-307
157,3927,797,-663,145,176,263,255,176,22
-141,3778,-231,-1257,-301,195,381,514,480,198
378,3699,-410,-1182,-544,-22,125,386,425,212
480,3548,-158,-720,-334,-107,-112,155,206,135
-40,3356,-123,-496,-49,-20,-215,41,81,135
-54,3163,-371,-429,28,86,-126,69,124,252
145,2978,-784,-197,87,264,211,91,87,188
313,2789,-640,139,155,350,383,78,-26,37
-379,2625,-116,108,-97,195,474,-28,-225,-371
-674,2462,665,63,-165,100,301,-118,-304,-491
-148,2307,877,181,-45,64,116,-68,-149,-190
167,2147,477,63,-56,-51,-3,-88,-126,-126
82,1981,-21,-78,-110,-242,-230,-269,-308,-210
545,1723,-223,-263,-186,-356,-339,-321,-290,51
566,1405,-101,-307,-206,-292,-232,-212,-119,305
504,1333,795,310,-107,-381,-395,-402,-277,165
582,916,1163,780,-31,-440,-485,-445,-342,-33
566,207,308,257,-179,-343,-260,-159,-116,-126
696,-17,-712,-306,-143,-152,24,186,198,-20
-256,207,-898,-41,298,340,418,485,388,25
-1292,149,-1203,450,591,645,577,574,415,-95
-1304,215,-1233,782,733,436,219,238,122,-270
-1468,387,-699,1329,879,211,-125,-138,-225,-521
-1241,862,-318,1080,498,144,-165,-131,-183,-432
-754,1211,-98,338,59,87,-131,66,26,-97
-216,1329,454,190,3,-42,-258,72,175,166
234,1307,513,-486,-113,-101,-153,105,234,364
492,1237,195,-1281,-421,14,339,350,393,578
582,1149,320,-1338,-647,57,410,428,470,707
479,1044,425,-673,-436,53,313,329,394,650
518,950,25,-534,-207,69,325,349,412,573
601,787,-316,-765,-161,54,234,302,277,401
394,544,-12,-542,-120,42,151,122,0,137
75,302,520,-141,-138,-84,4,-21,-112,16
-43,-58,521,117,18,-67,-34,-7,-38,103
-118,-212,77,139,136,36,16,33,4,102
-174,-171,-245,118,305,156,71,29,-6,-9
-248,-263,-206,262,526,262,44,-34,-74,-122
-264,-207,31,384,577,262,-32,-121,-176,-238
-317,-140,-143,-133,135,141,-28,-84,-144,-296
-300,-239,-312,-430,-352,-125,-131,-160,-214,-390
-36,-505,-22,1,-379,-289,-239,-256,-274,-414
387,-475,293,-131,-514,-271,-123,-153,-136,-199
497,-672,-17,-618,-547,-141,117,91,88,161
473,-601,-165,-493,-278,-49,95,83,91,189
489,-739,164,-57,-101,-88,-70,-101,-94,14
105,-1522,344,-31,-163,-149,-63,-120,-142,-88
-401,-2463,161,-224,-165,-128,27,-88,-172,-199
78,-3099,143,-52,4,-69,-19,-102,-141,-85
369,-3647,22,1,142,-16,-32,-64,-67,140
217,-4231,-227,-148,35,-72,-14,0,48,296
780,-4397,-27,432,167,-59,-64,-33,3,304
802,-4594,95,908,390,57,-86,-104,-113,-44
-667,-5287,-222,742,392,221,102,85,-3,-431
-1327,-5348,-94,764,403,173,77,94,7,-570
-808,-4850,117,888,445,-12,-99,-31,-18,-434
-467,-4416,-98,224,389,40,-15,79,124,-122
-866,-4287,-810,-748,212,161,85,194,204,39
-803,-4041,-848,-651,180,278,184,277,248,144
11,-3502,-241,-408,-23,93,31,135,105,140
328,-3120,658,-440,-367,-280,-308,-122,-82,80
299,-3068,753,-601,-579,-369,-348,-91,-21,107
461,-3337,416,-484,-498,-254,-171,0,21,123
566,-3721,282,-148,-337,-169,36,-16,-39,45
405,-4123,230,21,-197,-196,-109,-128,-141,-224
218,-4455,42,-22,-197,-295,-335,-245,-230,-319
55,-4875,-379,-26,-44,-162,-216,-102,-105,-133
-226,-5383,-618,533,390,95,-14,71,53,14
-282,-5484,-309,1349,738,204,91,85,82,102
67,-4775,-54,-523,-147,4,-89,98,109,-112
-156,-4254,31,-399,-130,-85,-196,126,204,128
-479,-3976,225,-185,-71,-104,-206,221,343,337
-616,-3821,116,-321,-182,-55,-115,176,302,268
51,-3622,-81,-564,-337,21,76,54,191,268
774,-3737,-130,-629,-387,46,339,77,174,338
816,-4198,-115,-441,-222,157,605,121,65,198
606,-4706,-74,-242,-73,218,568,42,-60,91
227,-5206,-34,-123,-28,169,431,24,-51,99
-87,-5627,-85,-100,40,134,316,50,-15,26
-385,-5767,62,24,141,152,279,50,-63,-175
-553,-5778,26,52,80,42,105,-26,-141,-291
-348,-5533,-48,-30,-38,-75,-35,-106,-180,-168
230,-4961,108,23,-66,-143,-127,-191,-246,-26
774,-4161,325,180,12,-132,-138,-213,-240,5
354,-3270,489,233,0,-162,-185,-258,-238,-89
-385,-2914,313,90,-91,-188,-190,-216,-162,-126
-85,-2501,49,1,-113,-190,-168,-160,-73,-170
530,-1771,-63,193,134,-41,-60,-101,-104,-164
297,-1214,-96,575,512,204,93,22,-55,-235
-230,-1042,-354,545,483,294,190,201,100,-292
-428,-965,-558,368,397,327,219,235,125,-205
-686,-1211,-773,257,412,343,232,184,72,-230
-594,-1211,-446,484,395,346,222,159,86,-141
-979,-1164,-62,256,326,410,238,174,108,-31
-681,-845,430,91,367,313,121,83,42,101
-131,-404,659,339,312,30,-71,-32,-19,180
369,-295,292,114,-44,-223,-202,-117,-35,153
589,-13,-74,-256,-351,-324,-253,-165,-52,41
344,438,-264,176,-169,-66,-101,-128,-61,-12
36,784,-587,1287,434,238,-51,-257,-237,-43
-238,1347,-1248,1466,410,100,-282,-509,-492,-169
-114,1631,-1338,1179,53,-236,-405,-552,-484,-161
-306,1958,220,1019,-2,-428,-449,-545,-446,-232
-126,2977,1786,-139,-358,-427,-267,-201,-93,186
81,3728,1785,-1052,-408,-135,169,392,478,707
301,4370,1142,-1468,-376,10,334,580,650,773
466,4554,391,-1437,-394,-53,167,309,349,332
377,4441,-276,-1226,-345,-19,135,182,191,22
86,4123,-717,-1055,-382,47,211,268,314,152
-320,3447,-460,-620,-259,106,201,244,321,251
-336,2866,27,-299,-166,40,72,85,146,181
-110,2341,234,-211,-147,-73,-35,-58,-49,-31
195,1864,237,-182,-81,-59,-10,-1,-4,-153
510,1675,244,43,71,-20,13,64,41,-175
603,1581,308,412,186,-116,-154,-40,-79,-210
440,1442,123,569,93,-275,-368,-146,-158,-201
108,1363,-340,351,30,-200,-334,-32,-63,-48
-61,1779,-517,290,336,-40,-318,-89,-146,35
-205,2044,-183,1016,897,237,-117,-186,-276,31
-84,1818,68,938,855,433,243,-49,-172,-6
206,1891,-159,-44,167,139,-3,-149,-206,-257
770,2716,-41,303,-251,-491,-658,-643,-629,-670
432,2819,624,1175,-281,-860,-995,-856,-859,-887
-394,1391,234,624,-165,-318,-430,-212,-289,-637
-325,254,49,-12,-54,194,113,339,193,-290
-138,-318,179,-257,-134,257,194,294,119,-62
-852,-1510,77,-212,-259,284,296,240,27,-160
-1062,-2597,145,103,-192,393,561,325,126,-61
-633,-3138,-257,-168,23,660,786,474,379,312
-179,-3297,-709,-417,320,768,669,381,366,443
-179,-3458,-402,-269,504,595,525,171,174,395
-57,-3685,470,-477,-240,-2,143,156,291,621
83,-3543,-71,-484,-534,-212,-35,85,277,524
289,-3215,-385,-283,-524,-301,-213,0,201,430
195,-2853,-681,-473,-302,-134,-128,88,208,359
163,-2273,-154,-352,87,45,69,212,295,441
146,-1606,485,-364,239,128,190,298,352,608
275,-1093,524,-686,-73,-50,70,187,275,576
592,-717,227,-806,-357,-294,-87,-50,29,412
651,-481,87,-541,-315,-276,60,-85,-62,470
241,-692,96,-294,-205,-105,203,81,74,566
257,-1028,206,-34,-64,-54,147,164,157,416
177,-1365,173,66,21,-83,22,80,85,-49
117,-1644,3,22,63,-105,-56,-5,-5,-371
-98,-1778,-60,193,280,-12,-72,-75,-139,-565
-443,-1768,64,237,271,-20,-213,-236,-312,-517
-421,-1804,15,-25,75,-51,-274,-285,-342,-389
52,-1851,-83,109,71,48,-84,-201,-278,-397
437,-1886,59,394,236,99,163,-125,-206,-431
493,-1512,260,778,240,-31,113,-251,-324,-507
-21,-1411,-235,936,17,-185,-145,-278,-243,-358
-397,-1892,-1244,518,-30,-178,-136,-82,-11,-275
380,-1527,-1117,720,70,-193,-275,-159,-48,-198
490,-1196,25,560,134,-58,-206,-196,-171,-253
65,-1374,1192,-79,111,155,101,-93,-194,-324
-542,-1878,1369,-466,-52,234,269,38,-54,-170
-545,-2478,746,-741,-176,254,332,195,158,100
-338,-3335,105,-713,-225,226,405,359,336,321
-336,-4273,-216,-423,-222,103,278,317,293,326
-215,-5077,-231,-52,-75,30,133,115,90,162
-34,-5800,-224,250,183,48,83,49,84,202
211,-6179,-196,171,230,110,107,84,152,234
729,-6034,-169,-198,-38,-33,-34,-68,-15,129
497,-5948,-283,-542,-319,-204,-174,-174,-77,94
-131,-5990,-214,-628,-444,-267,-223,-163,-33,174
-77,-5563,291,-386,-309,-209,-200,-138,-23,331
-234,-4950,354,-130,-61,-52,-59,-33,32,305
-163,-3822,56,-141,-62,-36,-53,0,55,228
-52,-2506,-96,-161,-61,45,17,110,150,128
-73,-1326,5,68,5,69,0,112,128,95
-46,-431,3,90,19,6,-88,44,105,178
31,92,-57,71,113,-15,-151,-34,14,87
39,555,-119,72,248,-16,-198,-83,-62,133
-61,1048,-332,-5,314,-54,-226,-91,-48,233
121,1454,-378,-145,185,-88,-198,-58,4,266
115,1398,-62,75,9,-83,-158,-95,-78,-4
120,1193,409,610,67,49,-60,-91,-177,-373
-559,769,366,672,181,286,172,64,-87,-727
-906,704,50,761,224,171,106,-30,-208,-791
-351,722,-305,937,192,-101,-103,-176,-276,-535
-18,693,-806,371,-72,-198,-168,-193,-216,-311
343,1452,-381,143,-322,-259,-261,-273,-236,-298
334,2258,501,273,-389,-335,-364,-353,-270,-280
308,2472,674,-129,-398,-241,-287,-259,-193,-115
1678,2943,519,-560,-267,69,-39,73,128,448
1967,3190,107,-606,-15,367,163,348,396,741
31,3075,-355,-336,143,442,205,374,385,459
-1360,2997,-311,147,410,440,247,366,350,174
-1193,3022,-306,333,478,271,54,220,281,77
-894,3116,-330,305,531,157,120,73,104,84
-361,3157,-31,200,496,127,219,123,75,220
-281,2771,153,75,300,-7,58,116,54,234
51,2690,36,-109,97,-116,-55,44,53,239
345,2763,-80,-338,-43,-54,12,-38,0,164
146,2681,24,-604,-255,37,162,-12,5,164
176,2531,-30,-497,-317,92,221,123,193,436
347,3037,-139,149,-146,-26,58,-26,56,412
292,3516,-270,584,15,-125,-110,-272,-254,-58
-384,3397,-244,796,282,-73,-159,-332,-404,-559
-654,3927,65,856,527,-29,-186,-316,-403,-489
-887,4904,96,224,316,-51,-174,-250,-306,-288
-412,5640,-130,-591,-195,-60,-81,-48,-93,-55
469,6443,90,-308,-416,-156,-146,-26,22,164
492,7153,747,321,-299,-423,-484,-324,-255,-85
306,6985,813,-267,-477,-513,-554,-304,-224,-112
969,6963,340,-710,-525,-464,-452,-163,-81,101
1473,6864,4,296,-24,-306,-276,-146,-55,179
936,6133,-241,1094,328,-125,-132,-150,-106,-79
-663,4781,-655,1027,274,-68,-239,-178,-239,-726
-1328,3927,-449,817,294,234,89,111,-74,-666
-1850,3273,-112,568,669,784,596,485,231,-268
-1293,3058,-325,346,687,756,416,358,188,-124
-662,3074,-44,338,386,354,38,1,-32,-115
-290,3168,299,-242,-78,114,58,-31,4,25
465,3087,694,-266,-198,74,240,119,129,293
975,3004,718,-36,-298,-47,403,252,297,509
1072,2972,334,-157,-351,-4,596,325,359,615
505,2741,256,-489,-337,50,411,155,134,426
-287,2441,-75,-895,-203,81,203,80,31,301
-189,2250,-437,-699,106,226,335,302,288,534
16,2245,-840,-829,67,227,400,461,515,799
-50,2023,-779,-745,-68,56,191,342,425,620
12,1831,-135,-250,-144,-210,-161,-31,7,149
216,1750,680,117,-220,-494,-470,-338,-303,-178
392,1269,442,-407,-410,-450,-345,-153,-118,-25
326,513,-455,-1321,-595,-238,-42,213,294,458
584,-31,-605,-1046,-405,78,324,414,473,813
757,-494,-261,-169,0,317,570,429,410,760
1135,-600,-198,229,50,252,384,285,290,414
248,-863,-219,520,-43,-22,-6,-102,-144,-558
-772,-1167,-66,400,-305,-417,-423,-511,-636,-1264
-819,-1542,274,139,-360,-482,-491,-534,-614,-819
-409,-1595,791,131,-117,-246,-327,-387,-404,-279
-172,-1530,874,210,-20,4,-51,-168,-226,-299
80,-1433,606,-37,52,246,196,49,-75,-412
-268,-1359,318,-330,204,342,257,146,28,-407
-999,-1752,-199,-300,353,373,409,298,142,-511
-1024,-1983,-423,-241,159,140,226,156,43,-554
-84,-2056,-182,202,167,71,22,1,-41,-317
-168,-2671,-184,437,267,310,84,59,39,-166
-367,-3386,-646,8,132,391,51,-46,-1,-215
-249,-4091,-450,404,246,366,4,-208,-169,-261
-74,-4610,254,835,464,239,-59,-280,-301,-297
130,-4872,467,25,171,14,-29,-63,-131,-203
296,-5048,438,-375,-46,-198,-33,107,111,-8
210,-5236,453,-126,6,-272,-96,65,143,-28
214,-5131,258,-167,-47,-229,-171,-19,70,40
355,-4709,-248,-309,-201,-202,-239,-103,-1,186
447,-4267,-632,-29,-192,-170,-258,-162,-19,247
309,-3910,-794,428,-152,-245,-279,-244,-69,225
86,-3431,-452,532,57,-205,-179,-227,-70,294
293,-2554,28,345,343,172,111,85,216,602
1061,-1216,613,81,387,232,102,140,288,839
1237,-266,166,-192,201,-33,-115,15,179,974
456,89,-377,-417,-74,-282,-349,-132,-8,853
-509,-175,-165,-344,-77,-144,-254,44,94,463
-849,-340,384,238,487,386,366,438,299,-227
-859,-428,215,561,830,658,724,485,157,-840
-907,-744,-430,233,424,456,395,237,-66,-945
-369,-956,-635,-88,-191,68,34,-2,-190,-729
392,-838,245,115,-466,-386,-314,-232,-311,-590
509,-708,1335,86,-692,-608,-414,-232,-229,-284
235,-674,1282,-358,-855,-485,-132,-125,-81,-63
-32,-1040,519,-563,-649,-224,209,26,36,-28
-280,-1483,-162,-579,-456,-127,213,226,268,139
167,-1418,-569,-555,-365,-107,187,370,575,569
604,-1027,-424,-351,-346,-123,84,121,373,720
176,-1025,-55,-4,-174,0,3,-233,-174,304
-489,-1146,294,177,6,111,-30,-331,-473,-238
-364,-743,472,39,66,202,29,-209,-383,-356
-101,-521,233,61,154,258,71,-64,-147,-228
-281,-639,145,706,292,205,26,-64,-146,-280
-288,-902,283,1193,316,72,-78,-180,-206,-299
184,-1067,243,634,15,-232,-359,-400,-355,-345
246,-1629,-193,78,-86,-247,-310,-298,-271,-329
-164,-2434,-631,-256,71,48,11,59,49,-106
-47,-2858,-734,-585,152,237,190,311,323,224
422,-2672,-333,-544,256,233,98,250,304,404
276,-2646,-35,-197,336,89,-98,3,82,261
-154,-2736,46,-78,75,-54,56,-130,-123,-11
-150,-2554,-59,-135,-285,-139,193,-112,-133,-71
272,-2005,-75,24,-340,-241,-43,-170,-156,-89
872,-1261,-89,104,-175,-164,-100,-111,-75,15
177,-770,-530,-113,-32,3,66,116,126,200
-870,-165,-833,-283,-13,9,50,131,144,270
-561,631,-643,-70,170,105,70,116,118,256
-69,1449,-550,281,224,195,99,78,43,74
-19,2021,-494,479,336,283,201,160,102,-37
95,2534,-84,648,382,240,180,153,107,-86
-219,2437,240,116,153,166,150,151,115,-81
-525,2043,534,-371,-57,-69,-25,36,49,-3
-80,1961,719,-386,-3,-87,-14,98,137,247
76,1649,601,-322,-44,-9,88,272,325,433
0,1367,512,-309,-297,-241,-207,49,127,303
201,1065,323,-148,-406,-399,-444,-218,-175,20
601,828,299,-111,-307,-230,-312,-207,-203,-10
425,794,476,-13,-169,-82,-244,-256,-267,-111
-54,680,459,211,2,-67,-263,-330,-310,-334
-287,373,-70,488,378,129,18,-116,-157,-463
-45,400,-622,502,516,269,165,-3,-82,-414
69,560,-694,263,245,210,60,-81,-122,-297
-95,879,-259,231,62,91,-23,-94,-137,-229
-326,1252,272,500,92,2,-56,-65,-118,-288
-210,1516,581,232,-97,-184,-186,-47,-161,-289
-63,1706,256,-455,-412,-303,-263,-22,-171,-168
93,1808,-205,-754,-373,-159,-127,198,31,172
326,1767,-413,-587,-144,66,118,349,215,454
379,1555,-302,-302,-4,54,103,283,242,592
-6,1026,-195,-286,-31,-17,-39,109,152,545
-183,610,-107,-308,-104,-107,-114,-137,-48,293
581,504,334,-55,18,-192,-221,-345,-223,10
950,-50,146,348,387,-41,-175,-202,-92,2
149,-841,-503,329,403,89,97,106,189,137
-247,-695,-578,452,140,-6,83,128,217,193
-292,69,166,755,-123,-191,-136,-134,-44,-134
-764,339,526,463,-180,-68,-26,-182,-164,-535
-1093,339,130,-53,-30,258,269,82,26,-429
-767,827,86,-38,38,254,291,208,182,-97
-650,1660,32,143,41,277,336,324,270,-33
-76,1536,-454,104,21,226,223,290,280,19
787,-491,-627,-78,109,53,-18,75,126,17
1126,-443,68,260,116,-19,-59,-91,-93,-55
1102,221,955,148,-144,-126,-162,-229,-235,-62
383,463,867,-321,-331,-187,-342,-209,-161,51
-417,-106,156,-530,-166,0,-280,18,92,81
-418,-307,-337,-309,65,123,-229,61,102,-127
-552,-9,-505,220,350,77,-145,-237,-314,-483
-282,231,-609,466,562,73,-125,-362,-446,-461
438,287,-250,275,406,137,-155,-309,-327,-367
377,204,-364,-242,103,213,201,-7,-42,-224
-62,353,-119,-138,-71,86,254,48,36,-91
-303,1125,445,-292,-410,-161,251,115,46,-71
-58,1694,366,-714,-520,-100,374,288,228,221
171,2267,385,-632,-321,58,487,340,313,391
164,2660,75,-360,-149,162,492,391,393,459
244,3147,-8,-346,-211,76,272,280,345,417
89,3194,-27,-360,-140,-7,22,108,189,277
-151,2818,73,-1,117,-44,-130,19,154,308
-102,2499,299,152,123,-95,-189,21,201,383
55,1783,149,-102,-96,-94,-35,141,245,341
-38,986,-13,-126,-186,-145,38,122,141,99
199,538,103,264,-49,-117,-6,-37,-81,-150
220,142,162,579,15,-110,-38,-190,-228,-242
104,-375,298,634,-60,-188,-21,-266,-307,-256
-58,-596,525,634,50,-119,0,-160,-187,-244
-429,-742,-76,461,313,24,51,12,-22,-114
-386,-1017,-629,308,561,197,102,87,87,19
-288,-976,-953,-203,413,281,131,125,153,246
-163,-646,-1046,-590,100,260,130,85,134,493
-196,-301,-302,71,-71,-11,-151,-213,-122,472
63,288,716,734,-34,-256,-356,-383,-260,441
31,603,871,785,-53,-258,-270,-349,-234,79
-263,539,557,610,-82,-250,-237,-320,-309,-420
-171,403,347,-60,-154,-291,-215,-175,-211,-498
62,86,122,-451,-203,-266,-169,-42,-62,-413
339,-398,11,-615,-226,-130,-77,26,17,-228
271,-1004,112,-853,-275,-46,9,57,28,-111
283,-1638,10,-917,-156,92,73,80,39,-67
493,-2455,-239,-647,19,195,96,86,101,80
687,-2879,-299,-421,-13,42,-51,-71,18,166
-164,-3858,-482,-305,123,134,188,156,169,110
-1161,-4760,-459,169,347,320,418,409,327,57
-964,-4966,-211,503,203,248,298,345,274,-1
-144,-4696,-185,33,-5,207,205,246,171,-7
234,-4184,-278,-402,-43,184,226,191,106,-30
-70,-3738,-37,-251,34,92,179,75,-54,-197
-142,-3361,139,-239,-106,-106,-72,-75,-108,-182
-386,-3308,-146,-116,-142,-158,-148,-55,-26,-125
27,-2772,-46,394,-18,-62,-126,-32,-8,-11
615,-2083,126,699,34,-20,-154,-39,12,159
405,-2068,-239,699,116,32,-149,-34,-25,17
179,-2175,-475,604,129,-13,-184,-117,-130,-137
226,-2255,-22,151,17,-223,-387,-297,-252,-158
144,-2547,258,-186,-125,-303,-448,-293,-200,-136
215,-2793,432,-147,-100,-259,-343,-174,-31,-18
440,-3023,261,-376,-225,-260,-259,-41,127,241
291,-3362,98,-461,-235,-108,-58,181,282,332
-11,-3614,128,-374,-148,-5,-2,214,227,65
-87,-3534,208,-320,-165,-99,-141,52,30,-261
-234,-3421,155,-287,-276,-225,-132,-5,-35,-382
-231,-3242,4,-226,-258,-71,248,12,-86,-331
-204,-2829,-15,-130,-161,149,400,4,-129,-266
-75,-2207,81,17,-113,131,201,-69,-132,-177
40,-1558,243,133,-16,55,64,-195,-232,-214
31,-934,349,143,147,21,4,-273,-278,-224
-30,-509,96,314,483,88,-1,-198,-226,-170
48,-215,-170,544,728,260,56,-80,-140,-35
-475,-269,-413,223,449,277,109,33,-3,46
-1154,-220,-318,-45,-74,-33,-122,-46,-34,-51
-645,254,275,391,-93,-258,-416,-189,-138,-3
679,601,635,401,-87,-232,-419,-136,-32,234
893,13,250,150,-97,-63,-298,-16,26,159
351,-661,-136,720,53,-160,-450,-67,0,-49
407,-539,-350,1043,-80,-429,-612,-283,-137,-123
373,-332,-382,588,-371,-415,-135,-226,-155,-79
-547,-288,-157,376,-132,-78,260,0,-37,-216
-988,49,144,-62,122,208,479,265,132,-242
-239,836,351,-580,136,292,592,466,300,80
514,1764,207,-1069,-61,194,399,400,265,296
503,2563,-400,-1308,-212,149,307,405,343,446
232,3200,-594,-1002,-210,183,381,381,393,515
54,3729,-333,-429,-42,213,361,300,337,481
-175,4158,-80,230,190,270,270,149,151,272
-461,4274,18,624,201,159,142,-80,-114,-61
-258,4331,88,507,93,-87,-182,-295,-244,-172
64,4516,115,30,88,-90,-224,-189,-102,93
88,4388,87,-128,188,13,-187,-102,-2,333
65,3974,-202,8,440,149,-56,-73,-24,376
90,3403,-723,-152,481,313,203,98,52,144
222,3146,-935,-523,114,190,133,56,-29,-343
153,2945,-653,-262,-119,4,14,-62,-201,-653
-329,2792,15,174,-218,-185,-13,-194,-333,-744
-409,2774,491,257,-310,-177,88,-119,-291,-552
-179,2754,465,287,-288,-106,76,-21,-178,-356
-115,2883,504,228,-77,18,84,46,-23,-199
48,3365,596,160,115,68,77,63,28,-7
68,3975,279,-29,81,-4,-13,1,-16,92
257,4280,-141,-228,55,15,-13,17,25,147
695,4787,-115,-213,-64,-36,-44,6,50,185
389,5067,448,-9,-208,-215,-213,-117,-45,24
-120,4861,679,62,-214,-302,-315,-201,-115,-74
-4,4794,476,96,-122,-230,-284,-216,-160,-35
-278,4308,78,49,6,-11,-67,-33,-70,-116
-659,3442,-192,-12,130,156,149,181,113,-100
-319,3086,25,160,220,153,162,213,155,44
353,3012,240,113,45,-34,-9,94,94,184
405,2379,72,109,-37,-110,-56,94,123,211
179,1932,48,379,54,-127,-165,-7,26,79
105,1917,15,530,279,-107,-306,-198,-164,-59
270,1665,-414,403,620,171,-165,-97,-57,-8
271,1045,-471,298,587,394,62,100,120,84
-188,547,-247,348,132,355,210,212,211,102
-414,929,13,255,-332,140,137,101,91,-27
-364,2405,227,-167,-484,-26,29,21,28,-26
-265,3342,404,-202,-303,-192,-118,-109,-96,-28
-357,3144,151,-313,-204,-203,-130,-117,-83,-47
-233,2517,-534,-339,-275,-147,-53,-63,-14,63
-72,2200,-1058,-210,-229,-150,-30,-40,45,255
-135,2300,-1151,-4,115,92,130,137,225,515
-284,2040,-853,264,370,157,33,38,129,431
-463,1697,-157,451,375,-70,-248,-274,-174,-1
38,1454,719,433,475,-143,-339,-338,-307,-204
414,936,848,11,449,-57,-193,-93,-119,-149
309,223,159,-740,10,-149,-150,64,70,-141
608,136,-53,-1011,-442,-293,-206,100,186,36
306,177,1015,-191,-491,-303,-269,77,197,128
137,72,1036,140,-390,-133,-259,84,209,189
444,-183,-174,-18,-219,191,9,319,388,329
245,-368,-861,-28,-35,349,351,394,397,194
-570,-524,-773,-60,-145,158,369,164,48,-408
-202,-43,217,13,-312,-274,-215,-217,-326,-619
462,768,1132,214,-127,-420,-625,-513,-526,-443
-59,869,690,157,31,-261,-501,-471,-479,-450
-583,456,-39,-144,53,-3,5,-248,-339,-578
-341,179,-205,-246,5,186,404,-35,-191,-480
-183,-335,70,31,174,389,742,186,-12,-248
1,-1124,248,-156,62,563,977,501,342,151
79,-1894,181,-452,-82,494,747,522,424,314
-20,-2392,87,-365,-18,341,474,343,240,138
34,-2620,187,28,161,153,216,138,76,21
-196,-3020,123,348,421,63,31,-33,-70,-109
-276,-3326,-16,635,451,84,51,-81,-90,-107
-160,-3390,-252,419,247,187,228,-26,-57,-30
-10,-3278,-481,-124,102,105,126,-65,-76,10
286,-2840,-205,-179,-46,-79,-60,-119,-67,136
399,-2420,203,-75,-154,-191,-164,-120,-8,307
316,-2140,-50,-457,-330,-192,-122,-13,133,512
433,-1709,-141,-574,-237,-39,25,136,281,702
327,-1451,-41,-186,4,152,152,225,337,526
273,-1371,-135,81,67,74,25,53,109,-4
586,-1324,102,408,28,-214,-294,-252,-216,-196
483,-1341,309,377,-105,-361,-397,-263,-238,-33
-9,-1886,236,-99,-357,-342,-272,-35,-13,94
-118,-2514,141,-277,-481,-382,-277,-27,-70,-107
121,-3438,-147,113,-330,-394,-319,-124,-197,-297
-121,-4465,-588,223,-236,-306,-212,12,-14,-230
-254,-4993,-877,304,-160,-147,92,228,205,-91
-713,-5178,-734,693,60,-2,173,108,66,-289
-861,-4759,94,601,257,44,-73,-242,-265,-496
-80,-4002,977,-46,267,144,-45,-245,-256,-261
24,-3688,851,-468,206,197,100,-68,-27,18
-410,-3682,100,-575,165,294,233,128,171,183
-266,-3442,-197,-505,31,358,306,214,233,338
127,-2931,2,-538,-270,193,186,89,128,376
582,-2195,143,-494,-480,-84,-39,-130,-68,230
468,-2078,-243,-354,-329,-65,20,-41,-23,158
121,-2323,-872,-125,107,199,218,206,216,304
-193,-2447,-967,294,578,318,190,214,216,328
-584,-2669,-605,458,754,239,56,95,86,208
-391,-2811,216,263,599,154,8,59,98,261
77,-2844,832,86,228,-6,-169,-106,-33,316
101,-3051,819,63,-35,-38,-190,-152,-108,224
209,-3170,421,114,-105,28,-79,-91,-51,132
319,-3381,137,198,-143,-86,-114,-116,-93,-159
313,-3429,-33,236,-58,-122,-110,-118,-114,-373
220,-3262,-83,81,-23,-135,-93,-80,-40,-271
50,-2934,89,-97,-199,-236,-192,-123,-79,-285
173,-2423,322,-72,-259,-259,-276,-170,-166,-308
238,-2092,178,-226,-215,-130,-150,51,18,-126
289,-1666,-345,-553,-287,-138,-65,181,107,-7
512,-935,-551,-510,-343,-272,-214,92,55,90
576,-248,-205,-242,-254,-154,-194,59,91,212
432,173,65,28,-98,21,-97,-11,0,106
-155,75,105,40,-82,51,-20,-55,-71,-103
-794,-161,73,-58,-105,76,146,-46,-102,-201
-289,-70,112,31,-96,44,109,-95,-114,-29
248,-401,20,52,-85,-46,3,-93,-46,127
107,-1161,-152,104,45,54,119,59,83,158
-158,-1726,-229,207,435,331,447,290,293,181
209,-1718,-151,294,620,364,373,202,193,169
296,-1668,-77,42,263,124,95,-22,-45,10
-340,-1861,-48,-56,30,23,12,-55,-91,-118
-645,-1719,62,119,100,19,19,-51,-102,-114
-415,-1335,260,399,259,56,28,-65,-89,-4
-220,-1022,259,364,214,104,97,-4,-12,55
15,-549,-57,-92,22,52,116,35,26,8
233,215,-219,-168,-82,-27,17,-16,-31,-79
-281,624,-208,5,-175,-58,-95,-138,-129,-258
-628,1071,-183,-147,-327,-101,-160,-191,-136,-174
-101,1725,67,-253,-336,-37,-97,-81,-34,174
71,2002,312,-16,-152,62,-30,-2,35,274
-133,1887,82,99,0,181,111,117,157,249
-195,1689,-245,115,112,192,270,161,162,112
-214,1512,-306,296,379,105,205,135,0,-270
-191,1367,-10,572,640,4,-20,41,-161,-544
-57,1137,-77,207,347,-139,-112,10,-187,-462
353,1044,-471,-323,-42,-157,-30,91,-67,-228
513,1179,-282,255,95,-52,10,68,-18,-106
92,1419,-32,976,236,59,45,58,62,13
-554,1586,-81,483,-80,7,23,41,137,91
-594,1960,66,23,-305,-199,-146,-160,-21,-79
22,2631,419,40,-229,-231,-177,-229,-146,-201
498,3171,469,-261,-359,-273,-213,-111,-11,-31
304,3419,476,-533,-364,-239,-242,26,149,135
-197,3633,279,-529,-6,73,-69,183,245,169
83,4324,7,-304,229,228,13,141,157,132
142,4423,-131,292,463,288,-21,59,19,-43
-299,4069,-293,534,379,197,-162,-80,-103,-245
-437,3714,-555,202,183,88,-176,-118,-73,-138
91,3567,-494,-158,-48,37,14,13,43,159
472,3367,49,-318,-126,-45,60,27,31,167
118,2711,457,-395,-114,65,303,95,41,-30
-322,2003,368,-502,-315,58,253,126,78,-37
129,1725,198,-460,-250,139,251,192,166,188
229,1669,-41,-292,-106,137,239,148,110,87
40,2269,25,-27,-22,75,165,86,45,1
22,2936,259,-95,-28,-7,32,72,75,67
139,3205,23,-287,-66,-23,16,133,139,133
282,3516,-115,-224,-113,-50,35,145,182,226
371,3777,14,-38,-158,-160,-35,-65,-9,165
467,4119,124,176,18,-176,-100,-173,-146,62
529,4586,246,298,216,-146,-196,-185,-150,23
358,4718,292,174,122,-140,-206,-172,-155,-38
77,4568,-3,-53,-84,-129,-207,-100,-100,-52
-31,4230,-437,-188,-192,-110,-188,-23,1,-20
-31,3886,-738,-347,-237,-110,-189,-24,18,65
-317,3268,-737,-278,-137,-156,-267,-156,-152,-75
-814,2555,-556,329,201,-1,-98,-204,-283,-389
-907,2256,-332,726,345,84,4,-239,-367,-545
-516,2258,-333,546,362,67,-14,-210,-328,-425
-110,1974,-158,766,443,105,69,8,-45,-110
-63,1510,368,1455,427,79,89,58,37,-91
-280,1092,436,1302,46,-35,30,61,84,-101
-339,952,-33,70,-387,-201,-128,50,125,-56
-183,1073,-46,-289,-138,-177,-179,54,142,10
222,1367,809,231,357,-6,-89,56,84,74
489,1557,995,-303,55,57,183,210,161,182
558,1775,556,-1090,-351,82,455,372,281,344
418,1984,262,-1275,-361,137,366,329,299,455
301,1946,73,-972,-310,73,140,185,238,450
327,1684,-87,-652,-323,43,85,12,38,318
96,1149,-98,-319,-303,35,43,-110,-136,130
-68,224,-116,-59,-195,45,21,-129,-150,51
117,-1337,-205,-94,-219,-25,12,-118,-104,89
245,-2944,-368,-273,-262,-50,68,-49,-26,82
160,-3252,-416,-284,-114,22,108,24,24,76
-208,-3566,-332,4,246,117,103,3,-56,-177
-364,-3765,-333,117,302,121,67,-39,-172,-461
100,-3585,-271,245,157,5,-67,-101,-171,-477
503,-3250,236,653,225,0,-118,-72,-83,-281
268,-3067,397,524,257,92,-3,86,70,-178
-283,-2815,143,228,26,-43,-131,-20,-23,-251
-716,-2559,357,302,-93,-238,-319,-231,-162,-333
-469,-1992,401,43,19,-102,-105,-152,-108,-189
55,-1315,280,33,418,185,84,-19,5,4
217,-1131,20,131,438,276,23,5,49,85
-187,-1344,-342,-37,206,314,12,9,27,71
-593,-1678,-440,-166,83,225,80,25,31,65
-500,-1983,-271,-101,76,178,243,122,79,155
4,-2187,-255,-422,-210,63,272,183,153,360
507,-2212,-155,-745,-536,-217,80,149,239,690
307,-2561,-54,-571,-512,-402,-142,34,157,703
49,-3175,86,-254,-269,-409,-268,-82,13,459
-48,-3756,198,189,-22,-307,-252,-75,27,255
119,-3888,456,562,10,-296,-291,-111,-17,8
115,-3835,405,306,-112,-272,-229,-123,-118,-342
-142,-3773,122,-9,-119,-97,-47,-58,-218,-668
-200,-3531,65,-75,-167,58,57,-30,-203,-586
99,-3096,22,-254,-282,60,76,29,-59,-237
440,-2608,183,-246,-241,54,151,170,137,64
-13,-2392,215,-179,-135,85,237,293,275,116
-809,-2218,-15,22,126,241,233,250,208,-76
-712,-1577,21,227,299,253,73,-12,-83,-288
-4,-995,8,154,135,43,-156,-268,-322,-404
567,-872,-194,46,-11,-113,-213,-371,-420,-426
590,-1297,-315,-47,-17,-113,-204,-314,-323,-259
622,-1763,-54,44,72,-24,-166,-179,-141,-18
36,-2331,-54,65,150,80,-41,12,43,121
-239,-2509,-97,84,56,37,-37,56,95,109
-209,-2497,-161,65,-59,-23,-55,80,136,105
39,-2236,-160,84,-47,34,23,97,129,125
54,-1976,-113,364,99,169,170,142,108,78
-207,-1790,-159,303,186,190,150,173,34,14
-393,-1565,-355,195,269,159,113,194,64,79
-233,-960,-88,285,489,199,73,196,184,220
-82,-381,140,206,441,161,30,83,115,106
56,125,32,95,236,104,-16,10,118,132
175,447,-92,-230,-45,68,117,12,173,254
0,619,-16,-295,-60,37,96,-125,-74,52
42,818,339,8,113,6,-19,-151,-156,-53
175,1116,373,-197,-115,-38,11,15,16,104
175,1299,239,-384,-323,-81,35,91,97,189
279,1189,129,-358,-332,-141,-8,53,77,202
356,893,86,-236,-235,-163,-71,-15,34,252
123,460,74,-153,-201,-164,-94,-30,15,241
103,193,97,-118,-231,-186,-81,-65,-33,162
403,72,200,28,-165,-158,-32,-106,-94,41
387,-52,160,352,8,-65,-14,-69,-86,-12
36,113,-76,295,-36,-112,-47,-60,-106,-46
7,845,-198,98,-155,-260,-183,-164,-171,-23
347,1933,-183,95,52,-191,-243,-215,-164,54
196,2338,-164,27,314,81,-70,-123,-174,-163
-195,2227,-125,-19,292,179,2,-89,-206,-459
-135,2259,0,243,123,-11,-168,-233,-285,-518
-285,2373,263,597,196,-48,-158,-211,-242,-426
-607,2565,344,848,371,31,-38,-81,-116,-298
-1170,2337,-19,559,198,-23,-51,-80,-118,-322
-1147,1790,-234,-18,-148,-85,-77,-91,-110,-327
-326,1394,-141,-386,-310,-25,-13,-6,-2,-20
57,680,-173,-386,-150,202,120,158,166,185
-48,89,-324,-235,123,347,132,145,136,95
-226,-367,-222,179,425,419,116,81,43,6
-120,-851,-344,267,357,325,192,124,99,56
-258,-1397,-449,58,116,77,105,56,49,4
-223,-1435,-179,424,412,-70,-125,-92,-74,-20
135,-1201,-145,420,517,-55,-55,67,103,190
457,-914,-310,19,193,-129,-22,255,325,413
628,-547,131,-1,-20,-307,-269,128,249,464
731,-139,544,30,-125,-319,-355,23,190,542
694,365,388,-267,-232,-37,-24,198,318,706
438,933,137,-626,-486,141,248,280,359,697
145,1411,-86,-727,-546,153,342,233,277,468
-176,1724,298,-482,-445,-27,270,116,138,106
-152,1893,402,-378,-421,-157,76,142,140,-83
-175,1790,301,-210,-299,-110,80,203,164,-152
-125,1592,259,-118,-173,-48,153,61,-28,-115
78,1271,352,7,-108,-48,94,-122,-166,-63
314,891,294,-8,-133,-172,-103,-141,-145,-47
590,523,161,-62,-139,-185,-101,-93,-89,-3
286,-46,-81,-116,-129,-74,149,33,-20,-64
94,-505,-137,-116,-82,36,284,119,-2,-260
156,-637,42,63,131,230,296,82,-41,-435
-347,-603,165,193,201,174,98,-95,-205,-497
-261,-296,247,337,221,107,-8,-239,-359,-489
254,-42,-72,323,274,144,-30,-246,-327,-407
273,-153,-303,612,603,147,-137,-379,-451,-517
16,-133,-451,707,915,82,-285,-551,-607,-682
-424,-17,-704,85,845,197,-141,-323,-383,-472
-1037,-223,-1425,-473,373,304,98,31,-36,-236
-401,-113,-1469,459,228,201,61,63,75,-21
-17,-96,-845,1430,-75,-44,-34,-33,36,42
-533,-469,-36,1050,-438,-256,-172,-131,-74,-201
-658,-658,1529,468,-620,-542,-496,-288,-192,-357
-32,-885,1919,-50,-507,-418,-390,-70,68,76
190,-1413,959,-987,-294,-53,-75,269,434,539
417,-1638,503,-1096,-99,71,-1,302,475,707
596,-1706,264,-1094,-196,171,331,425,529,828
455,-1800,-73,-1038,-232,269,694,574,604,856
91,-1678,-84,-705,-256,133,500,474,488,606
104,-1349,-60,-538,-318,6,275,324,320,317
210,-999,-192,-448,-284,32,192,239,198,104
229,-632,-281,-178,-145,105,186,195,168,94
356,-95,-126,-3,-34,90,74,130,156,204
411,612,38,56,-23,0,-101,18,108,224
203,1151,-117,125,-32,-93,-252,-63,50,190
-46,1559,-64,152,-28,-233,-361,-143,4,210
-289,1766,-76,-44,-93,-266,-211,-125,-2,118
-551,1735,-102,-397,-277,-171,88,-81,-138,-225
-301,1570,20,-404,-315,-108,127,-54,-153,-215
376,1393,81,-209,-174,-110,-112,-190,-239,-89
560,991,-77,-64,17,-50,-189,-285,-322,-236
234,498,-322,-40,142,69,-76,-213,-270,-326
75,291,-147,1,131,89,-40,-154,-174,-195
-334,-282,-98,33,120,84,-13,-95,-90,-176
-386,-600,-36,143,180,124,85,-9,-19,-189
-450,-708,14,291,293,209,241,96,-5,-298
-503,-631,-77,316,382,246,231,143,-25,-260
-409,-203,-151,407,488,182,70,80,-73,-113
-43,245,-126,472,442,112,-12,108,-56,27
133,348,-59,340,221,39,-73,80,-104,14
286,446,-74,360,186,20,-111,-29,-158,-103
642,654,-29,212,227,106,-15,52,10,0
308,828,81,67,117,43,-67,2,54,76
-392,605,64,19,99,30,-100,-79,-14,-61
-480,160,300,240,126,80,-29,-99,-65,-141
-357,-320,443,287,105,91,-12,-139,-109,-159
-299,-866,557,274,80,-4,-116,-225,-164,-250
56,-1274,86,246,140,25,-89,-179,-144,-169
442,-1729,-780,266,388,214,53,-1,-17,60
224,-2421,-1463,151,500,223,80,104,74,194
76,-2827,-1224,-151,-52,34,-11,146,154,359
-130,-2736,443,200,-504,-186,-150,-50,-6,305
-3,-2350,1478,195,-772,-398,-176,-85,60,383
330,-1872,1062,-288,-805,-386,-67,118,363,489
249,-1584,254,-627,-529,-203,54,188,388,172
-103,-1412,-195,-604,-263,-65,114,118,195,-154
-343,-1114,-162,-373,-78,95,314,176,130,-118
-134,-625,134,-367,-74,165,373,223,162,95
127,-96,312,-459,-141,80,181,143,207,288
4,85,266,-358,-81,70,118,107,214,339
0,55,137,-222,-8,115,165,135,186,293
-123,-9,52,-141,-14,23,44,30,36,86
-330,-285,30,-56,-31,-112,-195,-236,-297,-382
59,-780,-56,-84,-89,-201,-301,-316,-377,-536
232,-1511,-135,-63,-33,-113,-167,-140,-151,-305
143,-2072,-83,35,110,67,16,21,7,-69
132,-2365,-105,10,91,76,18,24,35,26
136,-2672,-209,6,64,86,55,105,112,166
-105,-2780,-384,104,17,14,41,121,140,272
17,-2432,-230,562,136,-80,-112,-67,-31,227
311,-1921,228,895,107,-261,-366,-377,-311,-11
82,-1586,376,554,-86,-371,-480,-469,-393,-209
-108,-1316,235,45,-8,-147,-248,-207,-169,-105
-172,-912,-13,-200,107,59,-45,-3,19,129
27,-419,-304,24,158,105,37,59,78,203
333,-122,-471,-9,70,6,-45,64,64,105
127,48,-271,-237,-113,-162,-283,-89,-70,-90
-279,52,219,-158,-206,-158,-332,-153,-152,-221
-300,-157,333,-153,-281,-169,-331,-169,-159,-198
-132,-364,305,53,-84,-181,-350,-294,-241,-137
-202,-902,412,378,114,-235,-240,-395,-374,-203
-215,-2385,69,15,-2,-177,-27,-286,-301,-186
524,-2871,-158,-257,-89,-42,70,-99,-106,8
1148,-2725,-17,-144,151,166,185,124,97,210
490,-2905,121,-29,350,361,350,359,321,201
-281,-2989,6,-109,259,397,454,467,404,111
-757,-2632,-87,-106,94,281,404,341,297,-18
-681,-2040,-252,-80,-31,143,281,291,271,114
-499,-1418,-444,-191,-44,150,308,320,292,215
-234,-516,-305,-325,-57,135,240,195,166,127
-11,272,-149,-198,-11,157,138,47,34,-15
103,877,-82,-8,56,218,90,-7,1,-38
165,1373,-187,42,104,165,86,-47,-49,-10
81,1579,-251,97,186,75,62,-149,-174,-39
23,1723,-198,-22,174,-12,-43,-200,-198,35
168,1827,-281,-274,-18,-29,-9,-70,-38,258
220,1801,-289,-179,-102,-49,-29,-32,-12,335
-26,1675,-130,666,261,-36,-106,-82,-41,231
-184,1632,-164,1021,473,43,-28,82,136,243
-686,1578,-370,495,175,-14,-66,83,116,0
-915,1894,-108,671,53,-55,-213,-150,-131,-361
-618,2645,548,993,61,-4,-253,-321,-392,-575
-29,3491,562,257,-112,-30,-162,-287,-393,-458
453,4540,249,-302,-166,-58,-96,-132,-173,-186
577,5118,166,-287,-135,-43,-29,-29,-21,66
286,5182,157,-120,-16,-46,-57,-100,-67,127
30,5345,11,-69,6,-23,-141,-121,-48,213
-63,6046,419,60,-15,-74,-227,-87,-20,260
-22,6949,613,-256,-207,-127,-130,23,94,231
270,7007,265,-588,-377,-222,-157,58,163,157
525,6456,-134,-387,-378,-277,-219,-8,60,63
582,5845,-399,158,-113,-79,-53,32,60,52
97,5308,-414,533,198,184,428,114,103,129
-689,4619,65,607,164,254,567,79,13,-36
-228,4146,298,3,-10,85,272,-11,-25,-91
836,4030,323,-579,52,16,168,90,139,195
697,3737,200,-518,128,40,186,239,244,297
42,3221,-146,-441,-72,102,152,261,216,168
-385,2550,-346,-347,-207,78,50,197,169,-44
-107,2236,-397,-325,-246,-15,-105,32,52,-36
118,2161,-309,-370,-205,-19,-117,-28,34,121
-76,2137,14,-265,-32,-13,58,-43,-2,167
-156,1889,166,-268,16,47,249,61,91,242
-286,1787,-19,-267,36,128,245,177,171,164
-393,2039,56,35,231,195,209,150,95,-124
-157,2236,287,261,307,80,57,52,-7,-355
95,2148,208,305,217,-64,-90,-2,-74,-370
152,1762,-84,197,72,-156,-205,-83,-160,-304
161,1089,-218,48,29,-189,-199,-107,-148,-225
-12,287,-216,12,-24,-199,-63,-30,-62,-213
-102,-172,-163,-169,-191,-179,-2,55,55,-161
110,-436,113,-113,-333,-229,-111,-25,3,-162
85,-784,409,295,-318,-306,-223,-150,-123,-218
-228,-1319,230,129,-225,-160,-88,-109,-123,-246
-285,-1646,-46,-149,-124,23,40,11,-43,-145
-61,-1714,-237,-172,43,121,72,75,40,1
115,-1549,-333,-62,170,186,72,44,9,42
113,-1296,-317,242,159,164,11,-39,-36,6
10,-1139,-139,308,28,75,-36,-56,-9,-10
-282,-1017,199,149,-145,-57,-84,-202,-177,-213
-410,-733,447,117,-91,-30,-4,-232,-240,-304
-121,-348,545,248,86,70,-55,-231,-211,-205
100,-255,397,374,184,88,-159,-258,-199,-91
-97,-642,54,492,264,45,-179,-213,-123,-26
-462,-1181,-307,466,326,13,-123,-92,-23,63
-343,-1537,-502,231,230,5,-75,55,90,332
-267,-1752,-168,162,-57,-119,-211,2,-6,433
-381,-2012,-298,-238,-264,-138,-224,22,-21,530
114,-1955,-203,-682,-376,-163,-195,90,87,680
858,-1704,289,-754,-377,-111,-19,83,127,390
1208,-1968,295,-721,-279,46,343,207,217,-8
1012,-2215,268,-566,-202,85,325,251,222,-184
-27,-2481,247,-226,-15,139,296,292,243,-242
-558,-2451,-82,-56,245,275,351,342,260,-381
-91,-1797,-341,-186,387,296,323,255,155,-415
4,-1181,-210,-195,413,286,291,222,114,-287
-252,-743,-84,-102,160,210,196,168,84,-231
19,-174,177,125,-112,31,-8,-32,-85,-254
-101,-91,53,250,53,-40,-102,-144,-174,-293
-294,-470,-98,365,149,118,32,-44,-91,-224
-161,-636,-50,398,39,141,44,-44,-101,-114
-294,-932,44,590,33,-30,-150,-251,-263,-203
-107,-1337,270,626,138,-65,-209,-318,-312,-198
109,-1720,248,291,155,-56,-168,-252,-204,-93
-61,-2106,89,191,153,-140,-177,-166,-103,-61
-236,-2474,140,131,43,-320,-260,-179,-104,-68
-165,-2554,336,-66,-92,-417,-282,-167,-117,2
171,-2365,209,-456,-142,-322,-136,90,103,240
420,-2232,-23,-509,-112,-140,101,283,196,326
200,-2189,-181,-343,0,58,284,317,171,273
106,-2014,-216,-126,54,130,225,251,149,270
110,-1749,-216,22,36,152,214,199,117,170
43,-1359,-315,-27,-27,55,155,116,98,80
16,-864,-314,-276,-136,-23,60,31,56,36
135,-378,-16,-155,-51,-103,-129,-144,-143,-7
225,-292,2,126,247,-66,-158,-170,-170,141
165,-463,-301,-189,168,-44,-89,-56,-49,281
-86,-896,-531,-622,-298,-114,0,69,75,208
-97,-1126,48,-96,-494,-263,-95,44,44,46
-70,-1208,638,675,-316,-295,-200,-39,-27,-88
-101,-1285,643,688,-171,-218,-170,-51,-47,-238
-208,-1421,265,427,-40,-119,-125,-57,-103,-380
-173,-1174,113,130,112,37,-86,-49,-72,-256
43,-828,-46,-112,151,154,1,56,78,48
370,-552,-375,-329,-25,135,156,237,252,260
378,-331,-1002,-431,-138,50,216,303,279,294
53,-131,-1085,-79,56,70,112,98,81,135
-513,18,-215,275,248,172,67,-52,-79,-97
-386,497,724,253,276,225,69,-51,-68,-61
-14,1000,853,102,220,157,-13,-75,-56,127
41,1256,576,-146,-13,25,-127,-71,-9,367
-5,1224,322,-300,-226,-94,-176,-42,34,461
-159,921,67,-255,-229,-69,-84,-5,6,185
-27,546,-42,-56,-50,51,23,48,36,-15
115,41,-48,7,76,97,38,87,80,-150
207,-410,-99,46,164,-9,-73,-22,-33,-315
299,-809,-131,127,219,-122,-274,-188,-160,-338
290,-1289,-142,168,69,-211,-378,-233,-171,-297
212,-1755,-350,243,-104,-275,-419,-279,-198,-291
504,-1822,-207,666,141,-152,-317,-293,-186,-33
647,-1727,-254,775,288,128,169,-57,-41,287
177,-1850,-372,249,3,194,419,53,-10,168
311,-1508,51,-68,-168,78,250,71,31,127
729,-936,913,50,41,67,259,172,119,169
303,-722,821,-410,-111,42,317,256,146,-61
-803,-521,218,-900,-430,-40,280,232,104,-378
-1150,-176,-43,-786,-376,-38,243,187,61,-561
-776,110,-13,-425,-157,41,220,170,81,-486
-217,221,27,-194,-44,83,132,95,44,-232
77,144,-33,-163,-97,17,29,13,0,-35
132,-110,-72,-58,-70,-29,-19,-13,-18,35
-13,-644,-215,141,65,15,-2,1,-4,-7
-257,-1393,-334,268,213,116,46,19,21,-105
-328,-1963,-416,69,76,87,82,42,41,-125
-372,-2343,-166,21,-86,-52,21,-52,-87,-171
-105,-2524,220,112,-50,-97,-77,-135,-118,-89
0,-2501,188,175,117,-34,-79,-78,-48,51
-282,-2575,-50,472,485,22,-67,-26,20,95
68,-2388,-172,146,554,107,-25,33,60,105
-199,-2050,-381,-378,174,24,-120,-37,4,0
-342,-1513,-310,208,140,54,-81,-52,-8,20
47,-874,-233,601,140,131,48,14,46,133
-39,-304,-271,557,6,4,-70,-29,39,204
-235,274,121,746,36,-112,-141,-77,22,295
-105,733,104,113,-116,-77,13,-14,48,336
111,1067,100,-500,-198,-23,27,6,63,252
395,1590,336,-573,-180,-24,-19,6,45,131
605,1992,439,-581,-178,-45,-48,-3,11,-69
465,1769,324,-466,-192,-97,-96,-53,-45,-232
270,1380,205,-275,-183,-109,-109,-98,-115,-290
193,1077,301,-68,-60,-7,-26,-24,-83,-259
-98,825,302,142,82,58,18,72,-15,-187
-240,732,90,207,102,6,8,107,8,-152
-210,913,-70,190,-36,-163,-120,26,-89,-247
-91,1230,-100,202,-106,-279,-314,-101,-232,-322
-105,1410,-329,-82,-47,-223,-350,-104,-201,-222
-350,1372,-60,-148,-44,-35,-88,16,-38,-94
-37,1661,368,-42,27,193,206,151,146,163
46,1978,262,112,171,272,234,149,197,280
-23,2196,39,420,146,166,62,-17,73,125
85,2345,-82,270,-30,39,-105,-102,28,68
-84,2271,-245,67,60,36,-168,-168,-69,-71
-173,2171,-156,138,285,89,-21,-108,-63,-117
98,1769,-259,-272,194,128,177,70,127,70
300,1168,-278,-524,6,116,169,97,155,190
366,627,-65,-144,69,96,169,47,77,184
290,-30,-36,-41,5,46,184,78,136,170
197,-691,-20,-111,-188,-19,180,60,101,169
152,-1108,151,123,-245,-87,59,13,30,202
131,-1315,255,87,-294,-202,-76,-34,6,276
11,-1412,78,-251,-253,-173,-58,40,58,254
195,-1200,19,-418,-167,-70,-2,122,94,158
97,-962,-16,-294,-113,-19,-8,123,60,-21
-225,-769,-242,-163,-7,49,-32,66,-21,-171
-297,-434,-440,-176,86,88,-47,-27,-108,-134
11,175,-395,-173,112,176,146,-34,-114,-28
241,793,29,61,91,170,154,-89,-163,-77
-61,1011,362,242,22,25,-66,-225,-281,-317
-376,701,201,21,41,26,-43,-164,-222,-350
-363,249,-154,36,317,150,123,56,-19,-207
-240,-171,-313,442,525,207,209,196,116,-84
-19,-517,-246,520,209,54,54,61,43,-94
-91,-891,-98,519,-122,-158,-188,-177,-137,-178
-146,-1256,179,341,-342,-330,-354,-297,-228,-204
101,-1437,243,-81,-361,-260,-314,-169,-152,-26
164,-1645,120,-365,-195,-68,-130,88,58,238
-44,-1734,23,-202,-30,-44,-24,156,147,345
-107,-1725,-126,-172,-109,-173,-41,-14,27,202
404,-1645,-335,-303,-264,-243,-112,-134,-33,229
976,-1498,-673,-17,-43,-73,-29,-57,109,385
423,-1753,-626,351,78,35,15,-13,108,53
-262,-1696,150,522,40,57,-59,-39,-21,-290
-183,-1274,605,150,7,14,-182,-62,-82,-269
117,-743,806,-395,-90,-56,-176,7,34,-30
446,-375,755,-566,-199,-56,-103,93,170,82
298,-489,358,-449,-98,61,-21,125,180,-62
-150,-807,116,-327,1,207,285,240,200,-111
-319,-1157,85,-190,20,287,624,338,193,-99
-338,-1457,31,-91,50,262,478,207,56,-136
-525,-1769,-71,-53,70,224,235,63,-76,-206
-487,-1968,-123,-77,-2,178,163,32,-68,-141
-84,-1931,-74,-102,-105,53,91,-10,-79,-47
252,-1757,20,-21,-73,-31,-22,-133,-164,-117
218,-1594,-51,2,-46,-41,-61,-149,-176,-179
87,-1339,-65,36,-49,-69,-96,-154,-113,-112
-60,-970,-45,50,-30,-68,-107,-140,-39,34
103,-521,-200,16,-16,-50,-124,-133,-14,193
146,-65,-350,131,121,58,-54,-75,15,227
-180,633,-531,84,217,121,2,0,116,168
-153,1534,-471,148,230,191,59,89,187,169
-9,2184,29,416,229,227,65,87,121,129
-47,2428,413,428,123,33,-98,-97,-85,-46
124,2560,478,638,234,-107,-230,-211,-146,-38
173,2581,182,607,411,-8,-143,-102,-26,157
-351,2258,-175,450,243,-25,-135,-84,-47,79
-450,1900,-256,439,160,-76,-169,-105,-66,-18
-102,1768,-35,519,375,2,-147,-118,-116,-62
-172,1560,-125,231,636,132,39,-42,-113,-317
-139,1312,-322,-443,456,181,218,103,-24,-511
334,1279,-169,-986,-100,155,259,199,73,-222
215,1310,146,-713,-534,62,169,143,61,-22
-198,1551,329,-148,-753,-97,-31,-22,-75,-103
-388,2003,328,-95,-784,-229,-103,-51,-76,-129
-268,2271,283,111,-506,-258,-65,-18,11,-56
-22,2529,242,305,-140,-111,63,105,146,134
83,2939,132,300,-12,-22,120,194,254,274
232,3424,72,89,-26,9,51,153,194,241
573,3708,162,-98,-119,-54,-54,-24,17,105
854,3784,54,-32,-25,-87,-51,-145,-82,74
763,3608,-278,-109,-141,-208,-134,-194,-89,100
425,3053,-867,-253,-321,-282,-171,-129,-44,83
-189,2454,-1300,-326,-256,-231,-117,0,1,68
-159,1933,-1107,29,113,-51,-45,82,-9,27
-335,1080,-600,436,387,75,-30,53,-119,-155
-820,410,508,93,62,-83,-188,-140,-329,-443
-559,283,1565,-168,-26,-71,-135,-88,-222,-317
-195,52,1283,-165,232,210,210,186,87,-69
-17,-222,615,-296,197,260,375,270,199,47
33,-251,208,-401,-7,148,239,207,195,181
22,3,70,-381,-107,7,99,115,135,202
22,240,96,-11,-61,-67,-13,46,88,152
-32,372,170,487,91,-50,-152,-78,-27,51
25,706,184,425,25,-115,-279,-176,-73,24
24,1067,27,-21,-70,-148,-312,-164,-38,98
-230,1030,-191,-276,-58,-77,-218,-52,41,175
-67,821,-256,-400,-74,32,-13,71,133,365
318,513,-331,-474,-92,176,264,169,225,500
623,33,-329,-352,-19,237,410,230,234,465
511,-525,-181,-165,64,155,365,200,169,312
406,-975,-154,-111,28,22,185,115,91,199
273,-1516,-137,-61,21,-4,88,79,31,17
-46,-2011,-17,110,127,38,55,43,-35,-238
-114,-2214,-92,324,263,116,77,77,15,-279
-80,-2270,-279,378,229,160,64,46,16,-274
-125,-2291,-392,89,-50,104,88,-57,-92,-333
-255,-2074,-4,164,-106,-47,26,-90,-139,-283
-239,-1762,246,211,-85,-135,-46,-33,-72,-98
-182,-1556,279,-35,-159,-90,9,7,-7,45
-194,-1300,202,-135,-132,3,21,-25,-51,-46
-161,-967,81,-123,-48,11,-60,-45,-105,-185
-59,-674,8,0,55,-7,-151,-103,-114,-193
128,-680,115,220,195,33,-174,-168,-129,-141
284,-1408,278,291,175,-7,-218,-202,-141,-125
170,-2477,86,266,92,-70,-186,-215,-166,-127
-212,-3251,-8,181,31,-68,-57,-147,-103,-123
-205,-3679,-34,-12,-64,-35,17,-49,7,22
276,-3653,-110,-88,-130,-49,25,-50,21,170
486,-3810,-187,-148,-167,-96,18,2,64,213
236,-4179,-297,-244,-191,-155,-39,35,100,175
-88,-4283,-207,-96,65,-158,-144,-38,-10,82
-238,-4072,45,232,636,67,-61,50,62,99
-706,-3794,-142,374,957,279,68,175,168,36
-720,-3126,-513,239,687,243,70,158,139,-85
-52,-2219,-519,137,80,33,-91,-6,21,-71
188,-1372,72,480,-349,-174,-305,-189,-119,-129
30,-527,502,783,-411,-232,-243,-229,-201,-238
-91,198,425,355,-352,-125,-11,-123,-139,-218
30,757,235,-125,-95,116,107,107,112,79
110,1094,-164,-501,111,272,189,266,273,308
58,1247,-143,-486,86,176,109,190,190,287
78,1190,181,-397,-137,-4,-61,37,46,220
113,922,400,-343,-322,-116,-99,-25,-11,191
175,644,362,-171,-339,-101,103,7,-26,100
357,420,-83,-77,-283,-92,93,55,40,158
316,135,-548,-154,-297,-205,-137,-19,25,187
228,-111,-702,-24,-107,-170,-199,-68,-19,94
108,-164,-420,55,54,-101,-199,-52,-24,-36
-87,11,193,-96,-11,-161,-297,-141,-160,-223
-193,212,549,-143,-89,-104,-74,-169,-257,-368
-213,322,474,-143,-98,14,177,-158,-280,-325
-242,398,514,-64,23,102,131,-145,-233,-204
38,716,615,87,110,77,35,-159,-172,-65
257,906,344,112,118,99,99,-42,0,92
-142,784,-52,11,89,183,224,155,159,150
-459,615,-17,109,126,164,156,122,135,91
-407,307,-15,225,276,178,85,48,62,64
-50,-41,-314,575,522,302,100,81,101,113
135,-621,-559,807,538,267,33,49,102,78
64,-1157,-589,246,1,-131,-271,-193,-73,-86
-106,-1646,-265,-58,-268,-369,-386,-295,-171,-146
-118,-2011,587,47,-292,-323,-258,-216,-117,-94
137,-2363,525,-528,-349,-132,40,28,98,145
363,-2488,-45,-597,-32,114,320,214,264,382
358,-2322,-289,-223,193,338,444,332,382,522
148,-2159,-653,-444,-32,282,363,287,354,446
218,-1744,-400,-126,-120,5,51,26,113,115
156,-1006,507,411,-23,-223,-186,-155,-69,-160
175,-122,526,-208,-339,-272,-149,-92,-13,-117
144,473,126,-641,-455,-172,-8,54,125,27
151,857,-64,-462,-269,-154,14,119,187,130
31,1026,4,22,79,45,112,165,118,14
-741,721,38,333,298,338,279,252,19,-308
-1354,534,-15,356,215,264,168,148,-126,-646
-1094,483,43,412,297,235,124,72,-152,-674
-378,240,163,406,259,220,105,-15,-136,-409
161,-154,-10,14,-145,4,-20,-149,-119,-202
297,-564,-48,355,-273,-200,-167,-240,-114,-99
246,-764,49,739,16,-254,-317,-380,-277,-180
143,-983,157,712,295,-94,-189,-227,-236,-157
84,-1136,-30,520,416,42,33,26,-100,-51
-36,-1210,-468,121,333,-23,14,28,-128,-90
64,-1105,-716,-61,270,-37,-12,68,-48,21
249,-888,-496,-267,70,14,33,175,122,230
314,-483,243,-606,-218,-68,-38,120,109,223
470,123,1163,-623,-314,-146,-119,20,56,195
505,526,866,-680,-353,-64,18,43,98,242
205,598,-16,-787,-400,-37,110,93,136,305
297,607,-392,-656,-334,-29,116,155,239,497
587,682,-268,-392,-173,12,110,158,259,543
15,508,-166,-78,-69,-7,18,62,155,347
-598,148,-256,77,-10,22,45,99,147,193
-457,-222,-445,38,82,143,198,224,223,172
-119,-493,-524,-15,163,194,235,273,236,173
-116,-662,-307,-119,27,39,83,173,167,99
-268,-594,321,-211,-155,-186,-166,-73,-32,-68
-262,-462,500,-191,-128,-220,-221,-142,-110,-79
18,-262,221,-103,-90,-144,-97,-48,-27,41
363,83,117,41,-34,-73,-25,9,-3,7
278,376,181,214,73,8,69,33,-4,-73
160,693,213,307,150,50,110,33,-30,-173
-44,956,210,323,200,25,-47,-37,-119,-400
-212,1390,160,283,141,-33,-182,-111,-191,-512
44,2007,-95,39,-86,-113,-244,-144,-244,-373
280,2365,-136,-97,-223,-145,-297,-193,-218,-201
334,2318,-33,72,-37,-32,-206,-157,-144,-64
245,2141,113,146,142,139,116,0,-19,28
46,1852,-92,18,205,249,286,87,12,35
-109,1428,-316,-126,151,225,341,84,-47,-9
-390,973,-208,-71,103,146,222,11,-103,-100
-587,544,95,123,89,47,0,-123,-187,-255
-305,273,239,134,38,-30,-80,-182,-210,-191
323,219,150,27,54,20,3,-94,-88,97
607,352,140,-2,20,-16,-26,-130,-114,163
388,386,57,99,20,-100,-152,-216,-167,118
-250,149,-282,289,210,-30,-107,-121,-69,11
-181,372,-406,446,363,94,-14,-14,20,22
-187,887,-442,386,500,154,-27,-32,-6,-17
-460,1358,-422,369,574,104,-96,-103,-122,-204
-153,1997,-143,465,419,-23,-168,-87,-78,-91
-72,2475,117,481,-27,-313,-399,-211,-118,-30
110,2783,29,522,-298,-338,-474,-203,-78,54
147,2839,-192,499,-329,-243,-462,-114,43,169
-346,2845,-137,277,-200,-89,-355,-26,97,120
-406,3049,143,156,-77,-115,-279,-44,44,-22
114,2952,628,-125,-86,-176,-140,63,141,82
277,2529,352,-755,-165,105,506,407,408,303
-72,2080,-163,-973,-320,219,733,474,381,321
-126,1939,-312,-825,-382,120,503,337,252,320
87,1893,-105,-531,-345,10,249,124,105,284
21,1829,158,-437,-297,-13,67,8,-8,68
-98,2061,325,-441,-273,79,187,89,46,-99
-34,2426,216,-324,-101,118,235,83,67,-122
136,2652,73,-205,79,101,167,38,56,53
140,2852,92,-115,108,55,106,-16,10,146
40,3037,83,-89,-33,-19,57,-90,-74,18
-40,3271,124,14,-153,-46,-25,-215,-224,-259
-64,3286,33,169,-97,50,20,-217,-267,-416
-44,2985,-177,257,87,187,71,-104,-197,-372
-152,2628,-331,88,65,136,-19,-116,-179,-308
-191,2112,-45,97,-7,-63,-278,-276,-309,-247
-71,1320,342,107,-142,-241,-385,-245,-284,-123
73,605,396,-107,-266,-243,-214,-5,-118,21
-146,40,303,-195,-202,-174,2,168,14,28
-581,-697,68,-101,40,25,180,234,77,-115
64,-1043,-124,-71,168,160,262,264,173,79
768,-1174,-293,-162,163,153,223,219,247,260
794,-1261,-357,-142,197,175,208,141,209,148
527,-1389,-351,-40,172,248,294,167,195,29
258,-1290,-152,109,89,183,203,108,104,-53
329,-674,160,170,18,-7,-38,-52,-38,-57
169,-95,53,79,-60,-165,-219,-136,-87,-27
-524,270,-70,38,-154,-261,-345,-220,-155,-138
-778,357,-12,144,61,-45,-101,-81,-71,-106
-384,471,60,283,516,132,23,-9,3,40
-170,413,-235,259,698,169,45,39,59,114
5,275,-530,-162,340,171,116,89,90,92
212,159,-462,-3,87,138,84,73,75,70
114,10,307,1366,155,-23,-198,-177,-131,-159
-47,-239,443,1723,69,-92,-292,-287,-223,-224
-128,-548,-66,739,-196,-125,-245,-338,-286,-248
186,-526,-48,511,172,-37,-212,-374,-320,-141
223,-568,86,238,283,158,34,-67,-8,69
-244,-821,-266,-631,-174,140,196,212,258,230
-553,-583,-419,-1226,-615,-171,52,142,214,292
-67,34,186,-1184,-774,-350,10,180,317,511
257,500,763,-736,-637,-302,40,248,391,558
222,801,862,-466,-393,-127,232,225,332,369
201,988,399,-424,-148,52,320,194,276,248
257,1315,-28,-416,7,183,304,263,279,292
-241,1689,-110,-288,43,180,254,287,194,179
-360,1959,-9,-202,-73,-9,4,126,-35,-67
291,2027,51,-172,-144,-156,-190,-50,-243,-257
632,1844,-7,-116,-104,-153,-198,-80,-227,-107
112,1202,-263,-39,51,-6,-40,59,22,130
-380,604,-261,114,271,158,59,88,85,67
-718,184,-134,186,337,229,88,32,7,-161
-445,-104,-204,47,193,189,106,14,20,-125
97,-201,-33,230,120,49,-10,-63,-42,-55
297,-144,351,539,20,-152,-148,-128,-54,12
97,-228,93,490,-108,-240,-188,-130,-33,89
-46,-399,-190,433,-157,-272,-272,-241,-162,62
105,-189,-38,266,-118,-267,-309,-288,-179,52
269,365,-6,-227,-139,-146,-170,-100,24,148
427,851,-13,-582,-141,-47,-53,24,164,303
453,1319,64,-633,-138,-7,-23,28,134,401
443,1780,-72,-529,-164,-22,-45,20,99,386
254,2057,-179,-313,-110,3,-11,1,32,55
96,2041,5,-74,26,124,192,65,7,-227
-482,1673,123,105,151,229,311,184,78,-243
-1045,1447,201,180,163,177,218,155,47,-229
-1053,1080,157,165,139,138,174,127,25,-275
-536,588,169,165,161,125,128,70,-23,-258
-797,-49,153,205,199,147,146,95,10,-249
-904,-474,-77,185,204,118,132,108,-29,-406
687,-425,-188,142,198,49,37,17,-123,-318
1665,-179,-191,131,56,-146,-184,-188,-227,-184
976,-33,-128,123,-48,-304,-402,-360,-360,-334
181,-73,154,131,27,-221,-382,-312,-307,-353
-49,11,326,121,119,-45,-263,-205,-178,-210
-2,318,55,26,123,61,-134,-71,-24,-56
68,952,-215,-113,-38,-45,-111,-36,1,88
307,1866,-197,-119,-156,-201,-153,-105,-81,188
214,2488,-215,177,81,-135,-106,-149,-165,137
-328,2787,-393,389,454,-96,-185,-213,-189,-40
-696,2852,-381,188,430,-25,-149,-167,-130,-107
-796,2765,-224,50,229,200,287,66,16,-16
-809,2562,144,166,-107,171,345,172,90,48
79,2705,308,390,-394,-110,20,-5,-15,250
224,2287,509,283,-364,0,200,206,162,177
186,1722,408,112,-270,-43,104,58,-7,-152
686,1704,238,153,-72,-102,-6,14,-16,-104
792,2031,36,-69,-87,-35,3,-18,-28,-67
287,2242,-216,-710,-340,-39,30,-34,-35,-43
17,2212,-355,-835,-375,-98,15,-11,1,-29
-60,2159,-525,-351,-32,54,68,7,0,15
-46,1597,-647,-15,228,312,246,176,153,215
175,-1542,-584,140,284,318,251,278,286,316
23,-2693,-256,544,220,98,-12,86,147,99
-430,-1669,89,695,-76,-242,-352,-144,-26,-126
-938,-1142,529,708,-233,-445,-585,-329,-225,-368
-547,-390,884,456,-174,-336,-539,-300,-228,-234
12,701,348,-51,-64,-97,-364,-159,-93,114
295,844,51,-354,73,108,0,-152,-128,239
253,522,341,-478,77,118,175,-45,-38,158
340,273,394,-511,57,85,85,82,75,71
634,357,276,-471,32,91,42,98,138,114
459,279,220,-341,69,165,142,195,213,93
-224,-622,97,-239,35,240,297,264,254,83
-484,-791,61,31,60,254,315,258,264,162
-333,-288,-38,201,149,209,135,159,198,136
-201,-235,-121,163,161,197,38,33,53,48
-123,320,-164,-58,55,142,-26,58,118,157
61,630,-248,-237,-143,-63,-77,99,186,173
23,577,-555,-215,18,-136,23,-34,-18,-63
-314,309,-867,-23,545,6,35,-219,-292,-350
-309,317,-838,124,621,-33,-155,-254,-308,-366
87,434,-357,179,213,-168,-227,-189,-151,-148
111,603,314,568,47,-26,-118,-211,-196,-196
-54,738,673,1139,75,119,-93,-326,-362,-318
-17,264,857,870,-267,57,16,-262,-296,-249
361,-360,446,94,-325,98,205,48,24,128
586,-906,-241,-439,-195,173,299,290,301,444
407,-1519,-627,-631,-172,199,372,307,312,454
-80,-2139,-412,-591,-163,82,215,183,195,325
-58,-1963,169,-516,-268,-225,-124,-95,-46,152
221,-1709,102,-552,-297,-248,-115,-90,-29,159
222,-1900,194,-137,-108,-68,17,9,75,212
138,-2034,222,316,206,131,96,64,137,289
116,-2248,-359,337,595,486,399,405,424,542
-247,-2249,-648,317,630,543,440,434,429,381
-529,-1475,-260,156,265,24,-88,-53,-20,-155
56,-440,151,-287,-434,-483,-466,-267,-120,-103
662,28,423,-586,-766,-555,-423,-95,126,340
364,-562,-28,-468,-330,-149,-42,257,391,426
-845,-1493,-249,156,199,196,214,384,320,-28
-1189,-2014,69,294,204,246,220,289,92,-464
-413,-2286,532,-23,-84,8,-35,-17,-217,-777
363,-2324,722,-39,-193,-211,-198,-194,-376,-755
370,-2684,422,25,-140,-234,-194,-163,-371,-636
-8,-3319,-44,174,-41,-92,-97,-2,-160,-441
-53,-3654,-65,363,64,-2,-107,-8,-21,-226
-57,-3623,106,445,151,9,-151,-164,-165,-323
-385,-3473,407,447,232,51,13,-185,-238,-500
-44,-3040,516,83,157,69,96,-60,-43,-200
418,-2500,323,-393,64,117,159,31,61,40
501,-1990,54,-614,-120,26,210,77,83,78
62,-1754,-175,-476,-160,-55,119,68,58,-23
-573,-1629,-144,-97,-19,-20,-20,-56,-105,-338
-355,-1433,-216,65,98,30,-14,-83,-200,-349
-38,-1554,-437,-190,52,55,104,93,-62,-154
-252,-2644,-574,-333,-96,-49,18,103,15,-91
-161,-3583,-321,-163,-100,-38,-22,70,9,-36
-98,-4118,136,7,109,145,125,163,103,71
-164,-4571,104,-36,212,110,77,80,106,211
199,-4780,-99,10,214,-6,-52,-40,75,379
347,-5068,-512,-77,168,34,29,70,258,608
135,-5366,-800,-10,127,64,61,149,347,728
45,-5538,-546,296,41,90,78,166,328,735
-75,-5621,374,409,-212,-66,-72,-20,101,334
166,-5348,1010,-31,-448,-354,-312,-293,-199,-113
354,-4701,669,-143,-176,-224,-193,-176,-159,-137
174,-4155,235,-89,110,20,26,13,-52,-115
104,-3549,-122,-403,46,131,192,173,63,-267
294,-2641,-232,-532,-170,54,177,155,46,-369
141,-1921,161,-145,-254,-44,67,-19,-126,-356
-32,-1414,456,489,-194,-188,-197,-251,-299,-384
-376,-1221,346,766,-151,-295,-356,-307,-311,-412
-617,-1435,113,785,-99,-260,-280,-260,-271,-470
-274,-1393,-142,625,230,59,-6,-63,-115,-270
-42,-1461,-567,102,288,231,112,87,50,-55
196,-2326,-582,-136,125,177,65,49,33,-3
151,-3177,-110,-377,-107,111,105,-10,-19,-41
47,-3400,223,-660,-219,27,52,-131,-135,-130
-23,-3713,205,-278,-53,-14,115,-138,-181,-167
-88,-4351,-92,-45,60,-63,62,-38,-41,-119
-82,-4948,-339,-205,-27,-153,-71,60,136,34
576,-4535,-112,-112,-117,-283,-205,26,159,260
796,-3981,429,254,0,-221,-299,-75,48,268
711,-3571,436,319,165,73,-140,28,121,258
455,-3396,343,92,90,112,-101,-3,87,174
-68,-2871,149,-181,2,133,116,-63,-66,6
-507,-2376,-144,-131,84,263,376,82,13,-33
-542,-1997,-281,-91,107,226,316,140,140,46
-372,-1889,-357,-170,115,166,258,145,148,110
-231,-1745,-313,-219,130,68,176,118,132,157
-54,-1645,-63,-52,201,-5,26,66,108,163
107,-1498,259,125,263,94,36,96,140,231
157,-1275,208,85,226,71,-52,29,88,241
63,-1029,-57,-35,94,-93,-202,-58,17,181
-132,-740,-36,169,76,-224,-293,-109,-5,121
-221,-429,-51,287,29,-198,-181,-111,-35,170
-348,-408,-239,382,151,-96,-78,-182,-119,76
-353,-596,-550,181,205,35,-79,-111,-106,-217
50,-48,-375,385,249,112,-62,-52,-38,-229
498,917,397,931,252,103,57,-4,47,-52
554,1703,720,791,31,-152,-165,-92,-12,-19
310,2273,375,-94,-382,-264,-244,-13,60,82
-57,2597,-57,-678,-571,-105,97,142,142,79
-76,2898,19,-727,-412,50,188,104,78,22
280,3026,359,-668,-257,192,184,55,43,71
463,2810,-3,-644,-200,224,212,100,83,119
399,2422,-362,-388,-56,133,168,42,19,86
-90,1704,-362,-66,118,112,208,43,16,44
-440,996,-106,136,93,126,182,48,-16,-108
-350,603,-85,104,-62,73,170,-7,-103,-194
-89,374,-132,59,-53,75,149,-24,-94,-76
-155,43,-92,134,-19,43,-1,-81,-114,6
-188,-318,-46,-75,-170,-70,-133,-145,-149,58
-172,-851,-310,-184,-149,-186,-271,-186,-149,27
144,-863,-307,337,239,-102,-202,-83,-9,69
270,-747,-202,530,334,68,28,154,210,167
-6,758,382,-540,-409,-98,54,150,163,46
-54,788,15,-559,-282,-2,111,211,204,99
68,808,-143,-518,-176,-27,-9,65,8,-42
287,736,-194,-466,-252,-154,-112,-6,-54,-132
415,374,-194,-167,-234,-239,-57,2,-35,-162
327,-26,-122,38,-92,-271,-24,-27,-65,-144
-54,-421,56,474,179,-252,-181,-173,-156,-129
-301,-801,64,704,341,-112,-140,-121,-87,-101
-266,-990,58,369,96,-122,-118,-108,-80,-48
-253,-959,247,262,-161,-181,-194,-232,-142,-26
-11,-582,369,208,-168,-113,-217,-263,-140,158
193,-160,282,-64,-118,-16,-126,-194,-77,246
159,14,355,-147,91,138,113,-3,75,193
46,119,359,-64,273,219,183,105,119,-19
174,502,275,-5,271,205,145,111,95,-124
89,740,-113,-184,162,189,152,164,86,-53
66,800,-380,-276,176,244,291,237,66,52
206,845,-366,-22,340,284,383,303,116,165
-68,1739,-400,-21,199,218,298,333,161,262
-76,3015,-213,-104,-41,45,70,209,59,295
182,2225,261,125,-83,-104,-63,122,88,460
14,1156,495,229,-35,-76,-43,111,174,411
-382,1003,196,-103,-142,15,49,87,129,33
-118,385,90,-141,-319,-63,36,-76,-26,-120
449,-151,154,15,-261,-43,-51,-111,18,93
407,-538,-403,293,45,237,122,78,167,160
146,-1121,-868,601,244,323,244,114,129,-27
-379,-1389,-667,998,445,198,171,-89,-127,-382
-1091,-1200,86,1129,298,-210,-233,-432,-523,-780
-1075,-1144,787,416,-152,-450,-403,-461,-529,-706
-319,-641,837,-456,-309,-223,-116,-124,-163,-194
188,96,360,-873,-153,68,179,158,153,288
-54,378,-237,-865,15,205,281,245,249,377
-514,632,-388,-609,166,270,253,200,186,215
-319,1031,-210,-402,133,300,210,188,201,250
-114,1078,48,-375,-119,159,120,100,129,211
8,1040,366,-146,-274,-130,-109,-128,-146,-60
651,987,438,54,-211,-283,-329,-278,-283,-146
760,507,221,-132,-214,-208,-252,-131,-108,-27
300,195,-22,-321,-331,-163,-189,12,9,57
118,205,-104,-217,-280,-217,-325,-54,-57,137
58,126,-84,-37,-114,-166,-192,-79,-83,164
-153,87,-126,33,-39,-123,36,-25,-49,131
32,449,-26,245,78,-100,-11,5,24,226
32,770,-100,304,125,8,3,56,73,244
-520,866,-594,136,153,143,126,116,78,62
-803,1253,-862,17,181,278,230,193,114,-58
-424,1979,-424,161,318,372,229,151,45,-183
-226,2664,360,330,422,364,157,9,-152,-478
-44,3224,631,130,148,73,-53,-183,-330,-674
391,3586,368,-240,-182,-65,-54,-98,-190,-318
503,3830,196,-339,-313,-155,-76,-22,-42,-13
310,3862,192,-122,-185,-174,-108,-38,-33,-54
204,3641,166,100,-5,-98,-48,-24,-11,-82
338,3367,175,212,45,-68,-47,-29,-24,-85
487,3033,128,161,-37,-93,-71,-36,-54,-65
454,2626,79,381,-40,-117,-115,-65,-58,16
123,2181,-119,386,42,-74,-121,-18,25,85
-156,1852,-148,337,195,37,-82,27,51,102
-246,1718,84,501,318,77,2,-68,-79,-17
-139,1831,29,249,259,22,-21,-145,-109,-53
11,2039,-223,-172,139,-18,-100,-78,23,108
191,2393,-209,-161,243,20,-156,-13,98,325
330,2679,-138,142,450,107,-86,35,117,458
376,3035,7,40,293,24,-62,11,67,427
71,3572,80,-104,70,-204,-349,-124,-49,256
-97,4039,98,-235,-158,-348,-489,-136,-34,96
72,4401,104,-387,-440,-359,-379,-118,-18,-29
373,4643,275,-219,-419,-158,-166,-73,-36,-87
332,4534,235,115,-214,-11,-79,-44,-36,-197
171,4077,-58,-57,-280,-120,-214,-162,-136,-317
267,3359,-362,-421,-260,12,52,29,27,-112
4,2642,-376,-306,-57,278,458,310,257,54
-405,2332,104,106,-1,282,540,299,161,-46
-538,2231,386,338,43,266,455,186,35,-116
-276,2237,152,224,134,272,428,175,49,-16
-294,2301,-170,129,52,113,278,142,74,18
-371,2402,-245,174,16,-5,140,33,-8,-77
-123,2736,-35,208,46,28,96,-50,-110,-171
-391,3056,151,66,-9,30,50,-85,-163,-255
-956,3166,-47,-179,-152,-58,12,-106,-165,-376
-525,3551,120,-275,-213,-132,-100,-145,-174,-296
152,4053,329,-315,-215,-133,-131,-112,-85,-6
330,4466,151,-317,-174,-55,-74,21,45,221
381,4579,-132,-304,-98,31,-7,134,149,257
283,4258,-226,-228,-14,60,-46,106,109,176
98,3902,-197,-101,75,67,-56,64,59,93
4,3352,-131,34,187,113,48,74,82,79
4,2764,-170,190,207,173,184,162,165,200
-119,2252,-242,151,136,175,191,171,194,281
-229,1860,-145,178,130,36,20,3,72,203
-176,1584,118,626,285,-89,-114,-114,-45,175
-205,1407,313,619,53,-265,-240,-192,-144,50
-344,1270,120,344,-126,-282,-256,-208,-220,-245
-26,1255,-142,155,-215,-245,-259,-210,-208,-352
239,1541,-91,-95,-297,-235,-262,-213,-185,-250
152,1850,22,-331,-128,-64,-88,-65,-54,-90
103,1883,23,-310,-10,-125,-145,-87,-48,-41
361,1938,-160,-330,-92,-152,-38,36,87,92
367,1960,-481,-407,-4,-15,131,234,258,259
139,1887,-304,-126,154,8,4,196,206,277
99,1614,142,107,56,-132,-214,16,37,94
263,1207,424,193,4,-137,-276,-39,0,40
157,506,291,-89,11,41,-45,43,92,71
-129,-348,91,-261,-65,170,262,3,-16,-84
-187,-1069,61,-205,3,292,318,-88,-175,-205
50,-1589,282,34,202,311,187,-132,-219,-153
142,-2142,264,136,217,214,192,-24,-87,-11
-91,-2678,62,92,103,33,70,-51,-86,-68
-279,-3038,-56,266,150,-67,-100,-165,-193,-233
-196,-3239,-108,435,155,-29,-42,-159,-180,-281
35,-3318,-335,34,-25,15,46,-83,-74,-155
101,-3209,-599,-225,-116,-27,-6,-10,6,15
135,-3010,-390,116,110,-84,-89,-9,35,99
51,-2714,15,389,430,-47,-104,7,79,158
-162,-2341,-166,73,441,148,204,89,129,195
-54,-1860,-298,129,-173,121,55,18,110,178
74,-1598,98,482,-90,137,101,130,180,178
122,-1548,300,249,-216,41,140,191,189,130
194,-1720,297,-148,-419,-197,32,71,34,12
232,-1977,282,-482,-456,-332,-139,-18,-12,58
602,-2075,234,-671,-400,-297,-156,45,84,294
960,-2284,187,-652,-258,-145,-37,149,217,442
575,-2700,115,-452,-58,62,163,240,275,277
-193,-3085,4,-336,109,220,328,291,235,-28
-329,-3086,2,-219,263,204,232,177,88,-186
-254,-3409,-94,-130,262,138,135,100,26,-105
-258,-3253,-70,-88,12,-11,-69,-39,-18,26
-326,-2696,159,252,-111,-150,-264,-206,-77,12
23,-2162,113,412,-16,-80,-238,-175,-74,-10
395,-1659,-118,259,113,58,-120,-42,0,-114
399,-1260,-117,247,106,80,-141,-21,-44,-199
210,-1036,196,372,20,47,-186,-104,-228,-201
122,-1092,191,104,-227,-59,-155,-91,-216,-3
61,-1207,-183,-217,-443,-251,-221,-59,-85,156
-79,-1613,-264,-53,-105,-185,-213,-36,6,143
-514,-2406,-59,115,222,23,-112,-59,-7,54
-1096,-3103,378,277,360,155,64,-74,-61,-65
-910,-3313,704,426,374,176,140,-61,-86,-203
-220,-3460,422,270,193,110,126,20,-74,-318
246,-3432,-120,-2,-85,-59,41,-24,-99,-254
-260,-3475,-599,-232,-90,-76,36,-83,-99,-141
-601,-3374,-617,-134,36,11,206,-16,-41,-72
-178,-2912,-544,-67,67,101,303,137,112,132
146,-2212,-659,-460,-116,143,376,269,267,277
79,-1442,-392,-182,-99,83,300,251,261,299
-190,-938,176,282,-54,-72,32,60,109,136
-16,-199,629,185,-86,-164,-166,-102,6,59
392,670,674,-37,25,-62,-104,-49,71,182
207,1157,198,-133,45,10,-18,-40,11,121
26,1368,-94,58,166,2,-30,-103,-78,24
518,1677,-282,232,340,-38,-137,-155,-124,-36
712,1679,-466,-165,89,-195,-320,-300,-244,-166
436,1407,-428,-302,-157,-180,-250,-226,-152,-117
277,1400,-98,0,-7,110,62,35,46,-64
-238,1191,128,154,58,246,211,211,183,9
87,1286,144,-77,-280,35,53,134,126,107
788,1460,253,-457,-564,-246,-166,-41,-11,129
665,1529,513,-354,-455,-249,-145,-21,-18,46
-472,1369,486,-57,6,75,125,191,149,-34
-1034,1610,126,-29,250,264,171,168,102,-198
-708,2514,-33,38,218,230,63,-35,-101,-357
-67,3166,-242,116,60,120,33,-82,-163,-366
278,3291,-465,-15,-180,-52,-42,-91,-141,-287
-124,3310,-365,188,-74,-125,-99,-116,-120,-288
-319,3375,-14,347,66,70,70,81,40,-122
-665,3205,247,230,23,129,110,123,72,-42
-781,2945,422,82,-40,31,-44,0,-38,-110
-93,2676,371,-127,-108,-11,-64,4,2,75
257,2044,352,-62,-44,9,-23,-2,13,236
245,1229,231,135,152,100,41,-9,13,208
53,492,11,244,230,156,87,24,27,81
-387,-155,-147,210,70,48,94,-26,-90,-217
-512,-578,-242,80,41,23,75,-44,-158,-270
-306,-762,-158,16,126,38,12,0,-43,-96
40,-729,-40,-123,155,68,12,117,130,51
671,-408,-249,-260,180,61,-16,101,126,116
553,-272,-449,-140,89,-72,-143,-39,-16,32
-177,-290,-182,35,-107,-196,-210,-90,-36,-13
-435,161,-67,217,-234,-306,-324,-192,-123,-25
-325,737,-235,126,-205,-295,-405,-291,-224,-28
-164,852,-331,69,77,16,-80,-41,-22,59
452,1279,-160,109,193,198,223,225,235,306
461,1708,287,-10,9,22,94,181,253,374
-159,1680,479,-242,-217,-45,38,169,241,314
-325,1683,356,-114,-28,227,282,305,269,214
-487,1819,238,126,175,377,337,304,203,-25
-62,1784,8,-141,3,96,5,49,-19,-266
552,1725,45,-188,11,-72,-237,-112,-113,-177
618,1569,57,29,121,-14,-189,-34,-14,88
308,1290,-256,-19,1,-47,-165,64,121,255
-84,1108,-485,209,46,-134,-168,6,77,113
-261,1048,-272,228,26,-117,160,-123,-170,-275
-261,1223,92,3,-178,-106,257,-185,-263,-433
-48,1860,496,47,-235,-153,-42,-151,-122,-128
83,2344,434,-15,-124,-149,-178,-89,24,312
282,2667,-11,-234,-96,-124,-188,-110,43,518
766,3020,-224,-425,-209,-147,-217,-135,31,454
792,2937,-284,-545,-307,-6,-3,-56,2,140
217,2753,85,-226,-214,206,296,51,-20,-118
-7,2631,447,23,-127,277,260,-16,-100,-194
216,2265,395,41,-62,337,356,-2,-108,-240
229,1512,-57,-249,-64,355,312,83,-14,-221
73,769,-258,-265,4,332,177,147,58,-158
-287,249,-212,-101,60,234,137,178,67,-30
-550,-62,-212,-116,95,165,214,54,-129,-104
-375,-313,-327,-182,271,218,211,-15,-218,-210
-96,-588,-511,-318,360,221,184,141,25,18
304,-428,-650,-384,249,10,109,258,296,400
150,-154,-524,86,243,-207,-244,79,242,363
-70,67,148,833,265,-303,-547,-150,56,95
-144,419,556,778,132,-331,-669,-271,-94,-150
-538,681,367,255,-33,-242,-339,-231,-165,-385
-480,1112,302,-3,-4,18,135,-26,-29,-233
-95,1974,229,-58,24,149,243,49,80,78
-174,2600,266,-60,-78,98,227,-35,-30,-19
-116,2634,242,-145,-216,-56,231,-44,-69,-161
156,2324,39,-173,-208,-171,247,105,84,-79
157,1869,-154,-209,-156,-217,129,155,178,4
18,1426,-164,-155,-36,-149,18,83,142,-30
-129,901,-125,12,91,-42,28,96,131,16
-285,608,64,385,124,-24,34,89,82,65
-277,614,88,680,136,-16,36,72,61,145
-92,463,-149,632,94,-57,-3,-10,-17,106
263,331,-313,759,212,-17,-14,-56,-76,42
314,188,-140,775,140,-77,-102,-146,-168,-49
167,151,360,298,-169,-247,-246,-268,-266,-124
267,402,512,-365,-250,-185,-137,-143,-131,70
339,666,231,-622,-192,-74,-15,-11,7,221
-408,550,-35,-506,-134,43,106,63,35,15
-843,733,-99,-521,-183,20,57,25,-16,-104
-290,1198,-101,-290,-3,-13,-86,-109,-105,-43
371,1255,-226,120,358,90,-101,-117,-76,43
666,996,-297,147,532,188,4,22,83,223
386,420,-253,122,488,267,153,195,221,281
-131,-350,-104,-27,142,168,161,162,186,85
-210,-1061,182,-248,-216,-10,66,-3,8,-104
-77,-1609,59,-466,-419,-60,-12,-50,-65,-179
111,-2025,-364,-534,-319,-39,7,24,29,-84
140,-2588,-352,-40,134,-70,-58,-33,-12,-130
-103,-3188,56,362,306,-123,-152,-109,-114,-205
161,-3499,267,-211,-150,-130,-81,29,14,16
674,-3499,331,-405,-476,-195,-81,114,117,195
853,-3438,450,-87,-406,-190,-109,98,56,150
605,-3327,402,13,-437,-222,-200,-58,-105,-38
74,-3326,62,-157,-532,-304,-294,-224,-214,-17
-309,-3285,-63,-111,-426,-260,-251,-228,-113,32
-374,-2942,-118,32,-77,-37,-95,-87,-19,-23
-492,-2513,38,207,321,192,8,-9,-13,-121
-705,-2166,136,437,671,368,97,40,-15,-144
-443,-2035,-342,310,668,466,248,185,106,-53
208,-1744,-496,551,452,411,263,223,176,-10
264,-1579,-298,940,189,104,87,36,48,-67
-515,-1846,-73,991,-132,-337,-295,-302,-252,-305
-835,-1948,469,527,-145,-362,-357,-216,-130,-112
-585,-1959,378,-341,-76,-76,-41,227,319,452
-376,-1975,221,-863,-156,17,23,353,452,591
-138,-1745,304,-876,-276,-104,-236,84,167,269
472,-1211,330,-717,-275,-101,-328,-127,-108,-62
1420,-600,396,-470,-255,-43,-52,-152,-183,-128
897,-473,153,-331,-193,18,152,-109,-130,-130
-194,-549,-148,-301,-167,99,268,-30,-87,-208
-179,-343,-122,-78,-27,274,516,181,40,-188
-262,79,-113,260,224,339,458,219,99,-86
-302,753,-240,349,237,199,149,15,-26,-83
-278,1429,-274,335,194,114,73,-82,-142,-136
-155,1669,-199,259,104,51,62,-77,-138,-112
-64,1535,-15,30,-28,-26,-36,-82,-114,-63
28,1428,23,-152,-20,-32,-126,-98,-80,-1
250,1420,-206,-304,14,34,7,-52,-69,76
352,1033,-195,-324,-4,51,157,46,15,176
357,670,-125,-268,-33,-21,78,38,58,205
459,556,47,-37,74,-11,-20,9,44,223
145,418,164,65,162,29,25,35,44,193
-49,312,25,45,170,82,171,118,88,139
-152,492,-189,36,183,123,200,157,123,119
-164,961,-312,-4,198,164,206,210,178,167
-60,1519,-365,52,205,194,173,216,185,198
54,1973,-371,231,275,179,59,89,74,163
-30,2263,12,432,234,24,-111,-106,-119,-6
-319,2618,533,364,-124,-285,-327,-297,-271,-194
-569,2904,264,-157,-424,-364,-361,-274,-227,-170
-385,3132,-64,-138,-309,-251,-313,-182,-127,-25
-2,3211,16,182,-53,-135,-256,-130,-52,118
190,3143,174,390,235,-61,-209,-132,-107,23
-8,2731,78,442,410,119,-100,-40,-113,-259
-310,2167,-173,315,284,223,46,67,-12,-324
53,1524,-36,74,131,239,268,137,104,10
44,1327,208,-205,-18,70,245,39,27,78
283,1451,553,-197,-126,-183,-76,-151,-113,-17
610,1605,366,-453,-313,-314,-233,-184,-134,-82
300,1323,-141,-647,-403,-254,-163,-85,-4,-116
168,1177,-227,-314,-171,-73,-119,-100,-27,-165
97,1156,-69,170,118,59,-186,-216,-163,-235
-53,1080,-58,220,222,106,-125,-187,-195,-260
18,1113,-67,81,197,159,111,-70,-126,-165
34,1107,-305,-76,153,257,369,102,54,14
-37,1101,-386,-313,15,108,277,171,113,131
33,1114,63,-382,-173,-130,77,124,52,232
4,876,195,-226,-328,-204,50,174,90,282
-116,442,205,349,-247,-231,-33,57,18,182
-338,-258,139,798,-73,-187,-69,-75,-101,-55
-510,-1145,18,863,-23,-162,-105,-148,-178,-334
-147,-1710,14,619,42,-47,-93,-110,-100,-222
128,-2062,-90,396,107,80,20,39,60,92
-41,-2553,-215,98,39,61,61,107,136,113
-284,-2918,-51,-279,-206,-125,-7,18,18,-50
-254,-3033,-94,-328,-251,-104,106,83,72,-45
257,-2862,104,-409,-63,9,86,227,227,110
242,-2583,318,-548,-80,-3,-4,169,187,165
188,-2295,119,-623,-106,-3,-18,147,169,264
347,-1885,36,-485,-138,-30,-19,147,209,333
580,-1473,-24,-236,-71,-37,-68,122,226,329
212,-1275,-45,117,116,-90,-219,21,128,168
-476,-1347,-242,311,227,-62,-188,6,89,55
-465,-1482,-591,172,315,115,-129,61,97,-5
-169,-1679,-690,188,308,146,-242,-20,-12,-101
70,-1947,-336,439,198,14,-412,-171,-90,-78
96,-2216,124,292,30,-124,-272,-401,-380,-264
134,-2537,227,-138,-46,-36,123,-405,-542,-408
114,-2917,605,-186,139,226,322,-212,-398,-349
-219,-3543,417,-216,282,250,373,-2,-135,-225
-97,-4019,-41,-321,207,109,267,123,76,-11
306,-4149,-53,-271,91,30,150,114,131,137
427,-4109,179,-170,-117,-2,200,26,38,80
170,-3909,303,-270,-359,-35,146,9,15,17
-443,-3816,68,-390,-444,-21,149,63,57,-107
-334,-3466,-168,-153,-215,86,206,114,103,-53
-71,-2908,-203,77,-8,166,164,116,159,126
-44,-2302,-60,125,-3,163,159,109,170,274
209,-1730,279,116,-62,24,140,91,132,330
466,-1564,334,16,-120,-109,0,55,107,339
438,-1765,101,45,-85,-71,-84,40,101,294
92,-2189,65,277,-1,-32,-85,62,119,192
-89,-2635,118,348,27,-50,-106,50,79,55
19,-2891,134,336,153,84,5,110,123,32
-103,-3131,187,359,182,184,50,101,99,-86
-254,-3375,105,85,43,86,107,-2,-64,-268
-160,-3388,-32,74,47,-23,177,-81,-178,-276
-84,-3058,-79,200,75,-88,57,-121,-178,-189
0,-2647,-93,-71,-22,-67,4,-62,-83,-219
27,-2399,-174,-392,-61,8,65,31,-22,-320
67,-2027,-190,-554,-127,1,44,37,1,-275
90,-1475,-73,-423,-209,-38,-46,-28,-73,-172
-36,-894,-39,-250,-217,-66,-124,-81,-139,-155
157,-168,-19,-232,-240,-126,-183,-92,-128,-84
210,268,45,-91,-136,-101,-177,-42,-116,-58
-138,298,-16,74,-64,4,-62,118,-40,-59
-425,132,34,241,3,130,65,232,56,-68
-323,-55,93,260,61,230,112,175,29,-59
5,-283,98,74,35,286,96,76,-11,-33
220,-670,-52,-162,82,378,110,55,39,48
134,-1116,-274,-276,110,323,60,31,109,126
-153,-1595,-270,11,114,127,-66,-68,64,95
-367,-1984,-39,416,144,-40,-147,-130,-31,29
-530,-2177,99,450,54,-214,-215,-236,-167,-132
-510,-2158,122,342,49,-257,-126,-261,-232,-242
-127,-1794,8,155,135,-230,-103,-174,-127,-45
261,-1305,-130,-201,203,-157,-50,-41,67,267
551,-455,-116,-422,144,-114,39,44,182,398
785,462,-51,-406,50,-53,113,96,198,274
529,988,-183,-283,-31,20,186,155,206,148
-9,1670,-105,95,-92,-86,15,16,53,116
-614,2202,28,511,-49,-169,-151,-142,-109,0
-636,2633,-246,645,-59,-222,-236,-204,-131,94
-84,3086,-553,483,19,-128,-147,-84,3,408
-29,3282,-588,35,24,-39,-6,103,181,451
-85,3366,34,88,-6,-84,-80,59,141,209
68,3388,794,140,-37,-132,-139,-14,14,-27
63,3421,782,-165,-54,-27,-36,116,66,-83
-101,3690,343,-438,-85,17,-5,166,57,-292
-86,3816,-136,-450,-82,-44,-124,50,-69,-544
115,3732,-330,-204,6,-46,-206,-6,-122,-636
45,3476,-214,47,125,18,-223,-16,-129,-657
-207,3326,-226,291,409,144,-99,-2,-160,-622
-226,3150,-474,615,830,294,195,13,-157,-470
33,3173,-391,1097,1050,340,227,-66,-180,-268
168,3455,-23,1114,651,272,-2,-92,-117,-121
71,3886,424,714,-16,16,-277,-311,-283,-245
-307,3907,627,276,-355,-74,-163,-437,-434,-387
-63,3751,547,0,-250,116,109,-121,-166,-157
480,3451,334,-219,-328,134,187,181,139,135
127,2518,-44,-678,-502,34,188,269,297,209
-248,1600,-15,-894,-448,-93,80,80,140,134
-121,1065,425,-573,-193,-236,-63,-86,23,189
304,506,410,-427,-297,-348,-159,-105,70,337
599,-205,310,-249,-468,-411,-186,-89,136,414
667,-932,158,-155,-414,-367,-151,-23,220,478
452,-1491,37,-137,-61,-58,128,207,361,537
-362,-2075,-42,-62,281,295,397,429,445,496
-526,-2240,-209,-321,158,250,275,354,356,451
-80,-2078,-230,-298,-103,19,38,168,111,178
569,-1670,-123,145,-166,-157,-156,63,-37,46
822,-1362,-10,433,-158,-312,-357,-83,-133,104
415,-1211,-42,198,-153,-298,-382,-131,-122,177
-40,-1043,93,-36,-51,-125,-221,22,52,256
-307,-923,169,-179,65,119,67,118,95,12
-234,-893,69,-286,127,276,350,51,-74,-335
-35,-863,40,-382,-39,128,149,-69,-161,-387
19,-1068,-108,-444,-232,-97,-133,-122,-157,-247
265,-1414,-95,-383,-330,-247,-292,-156,-119,-67
344,-1725,122,-159,-242,-248,-315,-203,-116,-1
-73,-2208,194,68,10,-60,-160,-158,-120,-137
-487,-2592,-1,121,166,179,29,-52,-108,-287
-649,-2738,-88,51,114,243,72,19,-58,-270
-412,-2719,-121,42,116,327,383,173,28,-127
38,-2388,-114,58,130,318,471,182,57,43
519,-1796,54,151,162,193,160,79,38,187
420,-1439,6,146,202,145,33,83,109,168
21,-1148,-117,73,153,114,59,127,133,108
-213,-561,-127,-2,36,45,118,108,50,33
-440,0,-220,-13,14,72,112,56,-7,-73
-511,345,-353,116,74,98,47,4,-38,-153
-495,509,-461,128,96,108,2,-41,-73,-195
-267,572,-451,-47,39,118,-31,-69,-95,-134
-28,672,-329,99,97,120,0,-52,-63,-49
267,721,-221,276,165,46,61,-56,-63,27
351,501,-232,496,339,-4,-23,-91,-52,146
152,69,-417,971,709,130,4,-19,72,341
113,-315,-363,1016,835,315,234,157,214,405
411,-261,-541,526,437,194,211,143,194,368
515,-103,-487,215,25,-30,-7,9,86,116
-103,56,33,47,-230,-163,-125,-90,-64,-223
-529,400,710,-469,-596,-303,-189,-155,-184,-305
-685,601,1002,-1006,-720,-212,-45,2,-32,-185
-519,1028,790,-870,-479,-71,96,156,99,-44
-199,1631,486,-473,-214,2,130,175,93,-53
23,2374,225,-360,-145,34,119,166,53,-26
48,3093,216,-335,-237,-42,2,73,2,25
74,3440,105,-327,-285,-78,-64,4,-11,38
101,3429,115,-206,-192,-39,-73,-72,-69,-30
94,3124,167,-61,-98,-38,-76,-133,-120,-66
-10,2666,184,-12,-80,-38,-42,-73,-73,-9
-122,2056,103,-18,-79,-28,-19,-33,-55,33
-211,1269,-110,-55,-54,-16,-17,-38,-57,42
-199,526,-104,-35,-23,-28,-16,-39,-42,60
33,-40,3,41,37,-15,-18,-33,-27,76
393,-502,40,65,81,8,-12,-37,9,143
379,-909,-24,1,99,4,-24,-57,15,112
70,-1213,-156,-18,143,-6,-29,-35,51,104
61,-1332,-189,60,142,-9,-57,31,139,285
-96,-1303,-95,144,-28,-142,-200,-94,23,342
-359,-1286,105,290,-200,-291,-291,-206,-136,238
64,-945,175,174,-271,-300,-309,-184,-106,203
835,-446,6,-135,-217,-220,-278,-136,-52,280
710,-119,25,127,36,-29,-168,-80,-32,217
-345,-212,-44,416,113,53,-86,-124,-115,-192
-700,-380,-136,468,48,39,-78,-200,-236,-617
-327,-370,-139,509,280,156,5,-110,-182,-671
-42,-382,-44,451,486,232,57,-50,-100,-534
29,-607,-76,48,219,83,21,-97,-133,-420
-153,-1108,-103,-409,-101,-23,-13,-56,-98,-330
-90,-1342,52,-449,-123,-68,-92,52,-11,-162
-167,-1405,147,-212,-17,-9,-35,145,56,-23
-159,-1391,-16,-193,-49,72,301,258,139,146
72,-812,-123,-255,-18,124,443,322,238,345
101,-190,-97,-245,-17,64,279,243,260,402
38,78,-184,-318,-93,-3,270,195,266,346
89,445,-224,-276,-60,19,268,193,239,266
181,839,-150,-133,32,19,117,120,171,146
186,1219,35,0,90,-29,-50,18,71,36
80,1592,36,37,124,-53,-145,-46,-5,0
-67,1921,-138,-71,83,-85,-182,-57,29,89
-99,2338,-189,-128,62,-80,-145,-66,67,204
-9,2409,-83,4,110,1,4,-33,75,346
13,2163,65,63,46,27,45,62,139,519
-16,1691,65,21,-114,-68,11,58,85,469
79,1114,42,0,-169,-162,-18,10,10,176
348,654,33,72,-103,-211,-135,-69,-98,-272
272,240,-46,50,-51,-100,-57,-60,-137,-473
23,119,-83,40,-7,50,99,-19,-121,-326
193,154,54,96,-3,13,5,-120,-180,-177
531,126,116,255,108,-30,-94,-262,-280,-181
712,209,-60,635,543,141,-117,-322,-334,-139
353,259,-454,673,743,398,13,-198,-217,-67
-776,164,-842,311,440,415,40,-107,-151,-271
-1245,347,-688,483,57,263,-113,-168,-239,-433
-472,1222,36,525,-178,149,-125,-128,-159,-135
62,1941,228,141,-198,242,191,22,5,72
176,2052,14,400,186,432,440,302,292,233
-58,1805,545,499,245,202,246,226,213,148
-455,1503,858,176,120,-128,-97,-95,-98,-133
-563,1072,589,-254,-21,-143,-113,-158,-199,-253
-549,562,576,-582,-327,-166,-28,-154,-220,-316
-161,154,526,-239,-285,-131,8,-100,-114,-164
224,-327,135,-142,-104,-14,134,119,118,159
209,-937,-109,-362,44,74,178,259,263,336
386,-1258,45,-453,64,0,45,225,258,395
360,-1471,333,-411,-129,-162,-76,165,255,409
34,-1502,205,-282,-216,-202,-43,181,256,384
64,-1475,-67,-225,-215,-142,30,169,207,278
360,-1196,-331,-287,-189,-161,-39,86,120,172
610,-732,-364,-316,-114,-158,-10,90,122,269
401,-438,-57,-330,-103,-67,159,143,125,249
-150,-203,3,-264,-85,-11,104,91,53,68
-166,171,25,43,37,73,80,108,92,101
140,418,41,231,14,99,117,131,107,63
190,431,-135,-7,-218,-53,6,15,-5,-54
-249,302,-200,-205,-357,-299,-255,-217,-184,-87
-505,-82,140,-39,-213,-300,-279,-270,-255,-178
38,-394,388,-50,-125,-140,-119,-185,-236,-255
449,-811,497,-33,-59,-42,-26,-129,-189,-345
378,-1412,426,56,38,-51,-76,-138,-185,-426
41,-1959,185,34,34,-83,-53,-161,-171,-447
-151,-2521,-182,-188,-74,-99,47,-74,-106,-310
493,-2740,-213,-184,-83,-109,-52,62,74,48
827,-2816,-197,-61,70,-26,-84,160,156,228
23,-3041,-334,101,382,93,-67,126,45,78
-675,-3044,-440,257,706,250,16,65,-30,-37
-895,-2976,-656,195,500,352,192,104,13,-149
-1172,-2824,-686,265,154,297,213,49,-47,-417
-974,-2171,-504,379,207,324,286,45,-25,-399
-401,-1599,-340,460,423,324,296,116,90,-131
178,-1207,394,280,210,108,137,120,141,66
455,-951,1009,35,-135,-261,-192,-34,44,135
313,-869,660,-257,-413,-365,-233,6,137,283
173,-1135,-29,-539,-561,-251,-116,79,185,291
-4,-1470,-171,-349,-479,-174,-44,-3,63,53
-12,-1606,43,-158,-370,-76,42,-58,-28,1
129,-1708,26,-175,-262,12,75,14,24,113
387,-1601,-109,-196,-181,-24,49,31,86,192
643,-1283,-265,-5,-82,-123,-50,-39,93,308
371,-1023,-504,199,11,-116,-130,-87,63,273
-169,-725,-771,737,186,-34,-139,-81,-19,70
-367,-11,-535,1219,327,-29,-201,-136,-107,-235
-268,782,202,830,79,-204,-388,-274,-221,-391
45,1609,322,68,-105,-249,-362,-239,-165,-196
174,2446,335,-541,-129,-207,-262,-91,17,75
19,3043,323,-856,-165,-95,-110,95,197,226
-22,3331,134,-699,-44,98,149,220,246,150
391,3620,-11,-457,-32,70,205,174,133,39
710,3706,48,-198,-91,-14,125,36,-42,-98
467,3167,79,104,-120,-51,-111,-103,-136,-183
192,2461,244,486,29,35,-121,-151,-170,-196
-328,1623,300,649,156,169,59,-137,-238,-361
-812,859,157,247,136,227,269,-13,-172,-408
-449,368,188,-303,31,157,359,52,-82,-257
-288,-209,200,-467,52,189,388,71,-15,-144
-417,-798,-24,-461,84,229,332,160,76,-64
-222,-1005,-79,-383,45,151,294,182,108,11
98,-963,57,-252,22,67,203,100,76,52
178,-795,99,-186,-44,-34,54,0,37,6
204,-576,83,-148,-94,-109,-26,-52,-13,-28
-25,-348,-11,-175,-135,-126,-75,-110,-79,-81
-378,-311,-200,-237,-150,-61,-64,-75,-11,-56
-47,-123,-247,-159,-43,33,-39,-7,62,64
-47,51,-171,8,41,-33,-149,-106,-36,2
-25,34,-81,225,95,-86,-238,-169,-94,-3
111,-176,-115,255,133,-18,-144,-6,47,185
-177,-590,-188,280,220,62,38,183,182,271
-517,-1200,-201,296,334,197,323,316,213,137
-198,-1495,-77,229,346,224,412,314,216,66
75,-1652,127,206,166,126,210,159,137,64
66,-1886,106,67,-48,33,63,-35,-55,-72
99,-2002,1,-9,-68,-62,-31,-165,-113,-134
195,-1835,18,91,55,-131,-69,-181,-76,-68
311,-1492,79,11,22,-133,-74,-101,9,42
451,-1051,56,-152,-63,-130,-76,-24,99,186
466,-570,-120,-86,94,-95,-110,-17,125,283
305,-167,-233,60,351,-7,-155,-59,82,320
133,277,-310,34,419,98,-110,-79,30,263
144,956,-264,144,264,134,-36,-51,-10,132
-19,1491,-69,374,-21,-24,-179,-162,-127,-56
-202,1783,183,601,-13,-115,-315,-286,-238,-250
32,1823,64,289,86,36,-59,-100,-100,-174
334,1591,-259,-162,51,111,122,43,-4,-80
116,1217,-184,-227,-114,46,56,41,-7,-173
-656,664,139,-234,-472,-185,-126,-85,-144,-425
-657,187,550,-70,-607,-281,-195,-130,-155,-376
-319,-164,517,-36,-395,-90,-20,38,4,-148
-195,-396,185,-12,-147,71,102,161,84,-118
-214,-510,35,13,-54,-1,16,72,-4,-202
-283,-641,18,24,-68,-124,-76,-9,-59,-260
-171,-761,235,83,-95,-204,-133,-23,-54,-249
452,-458,185,-233,-226,-242,-224,-119,-124,-145
745,-4,58,-429,-243,-155,-214,-138,-91,19
763,439,76,-360,-218,-37,-150,-115,-96,32
729,842,-45,-338,-222,12,-80,-82,-85,58
211,1045,-251,-171,-157,32,-61,-68,-65,52
-234,1129,-564,98,100,171,75,-1,30,53
-392,1117,-634,549,423,317,142,-29,-28,-18
-525,873,-626,941,612,473,270,19,-52,-75
-630,444,-246,584,557,538,297,136,53,-71
-675,60,349,-49,246,370,267,197,140,-70
-672,-92,819,12,116,158,181,156,111,-64
-283,330,708,-44,-6,17,84,139,131,142
352,668,278,-388,-116,-68,54,160,201,417
823,614,63,-493,-191,-174,-4,131,221,543
972,625,14,-280,-225,-234,-92,78,140,469
654,599,42,-33,-207,-234,-156,-25,-22,183
8,391,45,71,-156,-191,-155,-67,-56,0
-320,435,142,132,17,-28,-41,4,34,0
-178,786,263,97,81,12,-22,23,55,-16
-37,1205,219,17,53,14,68,78,96,60
-17,1822,51,-16,10,-2,60,88,70,56
3,2280,-17,-89,-52,-52,-70,60,-19,-67
-119,2418,-101,-97,-103,-71,-103,68,-61,-166
-287,2251,-89,-71,-103,-99,-148,49,-86,-128
-17,2073,-110,-275,-174,-135,-200,-32,-101,63
45,1532,-156,-317,-207,-135,-198,-91,-90,144
-140,593,-162,-113,-53,-23,-111,-63,-30,71
-18,-21,21,136,85,55,-86,-38,22,72
221,-431,47,257,138,76,-46,-34,5,29
94,-998,-111,195,273,112,34,-23,-35,-101
-128,-1419,-233,-49,256,110,73,4,-5,-115
-66,-1488,-88,-285,27,66,118,-17,-14,-24
112,-1454,121,-240,-30,97,177,-7,-18,55
15,-1565,122,-3,79,175,191,17,-27,-14
-387,-1633,-35,108,108,259,201,56,-4,-70
-357,-1436,-130,62,-29,301,263,120,48,83
31,-985,-94,81,-87,287,290,64,-34,164
261,-459,-167,22,-79,224,196,9,-83,168
67,-130,-129,111,123,136,60,-42,-84,2
-20,-36,-219,280,308,98,-18,-107,-111,-127
-28,-161,-303,294,416,108,-53,-147,-124,-105
-32,-348,-306,198,450,89,-99,-204,-201,-126
283,-652,-393,339,328,-30,-133,-213,-203,-142
211,-1071,-388,478,75,-186,-150,-116,-83,-116
-177,-1381,-94,246,-233,-277,-164,-9,37,-61
-378,-1571,673,41,-255,-161,24,222,235,0
-467,-1770,795,-285,-244,-61,181,361,353,85
34,-1550,361,-527,-368,-217,-34,149,172,128
393,-1229,92,-380,-384,-360,-259,-80,-11,132
135,-1053,57,-106,-318,-412,-355,-201,-116,49
8,-807,35,55,-281,-413,-393,-241,-141,-93
66,-429,-89,213,-46,-224,-305,-129,-34,-216
407,207,-25,440,193,-5,-167,-38,45,-180
608,751,88,421,222,74,-30,-29,44,-129
385,1278,131,174,197,21,-151,-77,-14,26
-320,1502,134,-75,168,-43,-278,-70,-20,243
-689,1444,162,-339,37,-50,-99,83,65,326
-239,1264,-64,-477,-85,27,220,234,109,163
64,770,-199,-162,-57,146,402,266,30,-179
85,35,-199,110,45,239,443,309,117,-191
-42,-524,-322,221,90,256,369,257,191,-29
-576,-1217,-589,435,341,268,322,133,115,-65
-635,-1522,-317,399,367,116,140,-38,-24,-34
-66,-1254,376,407,140,-184,-130,-200,-128,49
181,-1113,815,433,-259,-421,-313,-266,-150,62
598,-990,452,-164,-451,-335,-189,-101,-23,167
952,-787,-3,-873,-387,-19,147,219,255,363
210,-631,-181,-955,-294,72,189,241,247,211
-309,-393,-86,-616,-203,91,152,167,145,-78
-193,-71,110,-401,-158,101,104,143,80,-167
-13,446,182,-285,-110,60,72,125,45,-159
-136,874,92,-117,29,79,124,99,20,-203
-326,1046,71,131,158,86,121,97,16,-250
-177,1218,136,266,131,-144,-175,-86,-113,-240
221,1306,39,141,-1,-398,-480,-303,-227,-103
717,1029,-191,-174,-68,-321,-390,-202,-100,256
547,201,-321,-258,50,-28,-145,-31,50,293
130,-621,-145,66,241,201,23,0,44,55
-66,-1043,-17,152,249,391,269,135,155,40
-697,-1433,-230,232,240,373,349,225,192,-57
-411,-1573,-332,615,419,158,103,72,42,-56
124,-1436,-183,799,375,52,-2,-101,-96,4
-3,-1168,-640,51,-26,110,124,-57,-75,54
7,-852,-692,-103,78,248,239,66,34,62
56,-443,-291,226,219,191,226,70,52,34
-97,-94,-202,113,14,71,244,21,-2,-18
-260,400,474,-42,-183,-13,152,-65,-80,-138
-47,1183,1184,-271,-438,-211,-93,-247,-210,-221
335,1713,957,-330,-421,-169,-75,-143,-160,-134
365,1697,477,-406,-370,-43,45,34,7,-70
261,1428,199,-452,-378,-16,91,88,65,-22
0,959,27,-374,-318,6,112,86,25,-20
-308,230,18,-216,-199,39,103,50,-43,-99
-520,-1011,28,-120,-103,23,46,56,-61,-134
-502,-1851,5,-88,-55,-49,-34,56,-79,-111
-199,-2164,20,-29,13,-94,-54,38,-80,-50
208,-2314,105,15,41,-161,-137,-10,-58,40
541,-2279,153,69,70,-154,-196,-55,-14,101
271,-2220,-71,23,-28,-133,-155,-313,-218,24
-235,-2330,-284,15,-97,-110,-63,-221,-145,98
-21,-1959,-112,16,-179,-183,-184,-165,-67,256
339,-1463,96,281,-29,-128,-176,-95,-22,307
-87,-1392,-148,806,351,136,20,65,53,152
-521,-1284,-511,656,311,139,71,113,77,30
-569,-1002,-875,65,228,70,11,104,80,-107
-464,-743,-637,-169,227,96,39,77,50,-256
42,-534,108,-59,198,104,53,54,38,-156
378,-598,403,-241,40,141,46,126,131,140
304,-918,407,-465,-107,141,68,147,152,189
495,-1191,326,-444,-158,12,-59,21,99,317
473,-1563,181,-186,-127,-83,-170,-27,70,370
151,-1984,43,-55,-178,-141,-105,3,55,160
-148,-2216,-87,-190,-263,-170,-9,-38,-60,-115
-171,-2178,-39,-31,-152,-79,56,-29,-79,-197
-35,-1977,206,191,-34,-47,3,-52,-65,-126
-77,-1778,408,162,7,-41,-48,-92,-100,-140
-182,-1320,356,-7,-6,-14,-46,-91,-124,-147
-21,-670,93,-76,-20,-13,-84,-88,-96,4
151,-92,-153,-96,-22,-15,-63,-33,-38,170
173,554,-158,-78,24,-2,-41,-37,-20,184
-133,887,-163,-10,106,82,46,-29,-49,-21
-254,953,-105,29,131,112,78,-19,-74,-230
227,972,-48,51,42,8,-61,-68,-98,-234
51,592,-93,44,-25,-71,-142,-72,-82,-190
-110,134,47,86,37,-30,-98,-25,-26,-174
16,-417,188,312,201,105,43,119,90,-120
-111,-788,245,490,219,41,-2,71,57,-108
-135,-1064,76,468,158,-45,-24,-62,-56,-139
-170,-1357,-134,467,343,28,53,29,49,39
-382,-1562,-408,233,408,66,21,139,208,292
-208,-1542,-514,-159,130,21,-35,181,270,461
243,-1140,-326,-101,-3,44,-54,186,246,401
680,-381,-190,-17,37,41,-131,124,160,210
1005,460,-223,74,240,66,-98,88,109,125
666,1050,-69,215,243,63,82,46,15,52
-485,1502,107,328,-64,-145,-60,-259,-313,-275
-1267,1943,338,149,-336,-245,-266,-407,-462,-543
-676,2626,306,-372,-356,-92,-154,-225,-277,-412
195,3096,188,-540,-288,-12,34,-104,-176,-286
209,2909,-162,-607,-314,-18,179,5,-16,-145
-51,2682,-134,-443,-294,-71,45,-11,28,-27
6,2449,192,-233,-217,-17,32,-19,4,-18
71,1947,275,-151,-88,137,172,57,13,-95
-139,1369,84,-53,108,275,277,133,62,-101
-243,1001,-78,97,289,350,323,253,225,98
-243,878,-139,150,289,303,277,256,247,241
-224,927,-375,-103,137,125,107,102,114,147
-79,1163,-208,-72,103,-22,-85,-112,-101,-22
39,1311,346,178,133,-66,-150,-175,-121,-26
115,1233,329,-5,-66,-52,5,-3,67,159
342,1469,91,-196,-266,-73,156,118,182,303
485,2058,-22,-84,-310,-146,109,111,179,319
279,2699,-60,95,-209,-153,31,27,75,177
-71,3080,-58,106,-146,-165,-65,-91,-62,13
-322,3443,11,94,-27,-106,-90,-146,-124,-45
-198,3675,71,94,105,6,-16,-73,-55,21
-11,3542,37,-1,85,7,26,-19,22,156
74,3294,-76,-118,7,-7,51,33,78,248
242,2831,-222,-207,-75,-75,14,47,101,323
269,2340,-136,-56,6,-101,-48,-5,54,259
78,2140,119,50,50,-106,-97,-64,-31,26
89,1719,85,-17,-88,-201,-200,-167,-167,-266
132,1182,-100,63,-120,-171,-179,-124,-135,-269
28,972,-195,310,-61,-67,-106,-68,-87,-192
-376,769,-278,490,121,50,-83,-166,-248,-325
-661,592,-342,444,478,260,86,-28,-194,-243
-316,387,-71,213,513,301,209,285,106,114
-11,318,328,-101,140,152,181,383,278,354
178,817,366,-145,-122,-34,-1,174,128,296
247,1617,238,-41,-213,-82,-99,27,25,210
129,2297,134,-44,-61,29,-50,-44,-39,94
-222,2403,11,-139,142,211,152,-15,-28,-82
-286,2412,-23,-136,161,231,159,14,-3,-114
0,2569,-81,-86,-87,26,-39,-66,-46,-33
-10,2083,-192,-66,-219,-50,-63,-40,14,126
-261,1254,-255,106,-55,18,-26,-78,5,197
-319,481,-136,506,187,39,-60,-147,-77,178
-298,-157,-10,279,-2,-61,-102,-96,-5,246
195,-391,-33,-9,-279,-162,-112,-41,80,299
1087,-39,-25,18,-235,-228,-230,-187,-55,198
1474,293,250,226,64,-126,-237,-237,-106,169
1481,529,422,18,98,67,-69,-65,20,86
968,781,223,-458,-60,133,130,104,154,-39
-214,905,58,-519,-167,14,-8,83,56,-282
-384,1533,104,-106,-60,-114,-269,-30,-100,-419
-252,2053,60,125,-15,-192,-292,-103,-193,-455
-416,2077,-201,-124,-207,-253,-189,-86,-231,-502
-176,2217,-436,-85,-233,-151,-96,6,-78,-304
-27,2284,-678,52,0,104,149,139,28,-97
-252,1724,-789,412,520,408,395,225,70,-105
-805,1191,-353,823,696,410,283,143,77,-168
-983,803,-61,770,396,251,101,0,-14,-213
-738,452,-301,809,162,211,21,-96,-126,-271
-650,174,-102,1093,209,15,-156,-317,-344,-405
-357,28,308,885,211,-157,-257,-451,-483,-413
286,-145,434,-104,106,-69,-180,-259,-265,-67
507,-351,732,-873,-275,-108,-69,-65,3,217
442,-380,888,-1164,-537,-189,-52,74,171,329
440,-438,550,-1136,-536,-205,-67,120,229,306
384,-511,133,-899,-467,-101,86,193,278,296
76,-779,-25,-539,-329,34,354,286,317,327
-495,-1043,51,-191,-185,64,352,245,216,222
-608,-874,-43,-69,-19,80,200,150,85,105
-224,-464,-153,19,156,94,99,48,-14,12
71,-259,-126,-35,266,171,116,96,2,-44
238,-242,13,-237,85,163,99,137,81,-19
19,-394,51,-319,-111,55,6,64,50,-88
-104,-686,24,-231,-108,-8,-71,34,26,-62
-179,-1136,13,-80,-27,-64,-161,15,69,20
-256,-1635,-151,-50,23,-127,-194,-24,65,36
14,-1847,-152,36,65,-84,43,-45,-43,-26
361,-2012,-168,306,207,-10,90,-70,-131,-115
706,-2132,-475,279,112,-83,-178,-128,-154,-65
518,-2171,-649,33,-171,-157,-249,-131,-154,-20
299,-2133,-181,116,-144,-119,-61,-109,-118,-87
578,-1885,514,318,107,-63,185,-61,-79,-130
931,-1458,718,129,177,-100,99,-82,-73,-39
692,-1233,588,-113,25,-167,-103,-88,-51,27
-211,-1420,18,-277,-130,-92,-49,14,9,25
-377,-1289,-306,105,-58,26,85,151,148,218
-215,-1041,-533,348,225,200,223,274,287,379
-581,-1097,-819,424,637,424,298,228,160,80
-908,-1070,-435,477,595,383,153,-58,-149,-317
-651,-1087,303,210,91,86,-8,-219,-277,-429
-263,-1392,746,-368,-442,-215,-155,-224,-268,-332
93,-1800,507,-657,-646,-288,-175,-138,-119,-80
171,-2189,267,-431,-418,-100,1,67,92,108
-40,-2553,-20,-342,-199,81,216,213,212,133
126,-2668,-248,-309,-42,123,266,220,229,191
200,-2648,-198,-132,76,64,122,159,199,315
89,-2476,-101,-68,92,31,32,144,209,402
177,-2095,-68,-97,17,-38,-23,109,210,479
179,-1570,80,-47,-3,-104,-87,36,140,374
35,-1050,97,31,33,-109,-139,-36,15,183
-88,-600,-16,159,-17,-124,-187,-109,-68,20
-201,-135,-99,25,-152,-85,-142,-86,-40,-111
-359,351,-145,-166,-180,11,-70,-26,23,-113
-412,715,-195,-39,-139,-3,-72,-128,-74,-151
-8,811,-284,72,-43,4,-11,-153,-114,-120
477,587,-244,196,146,101,49,-54,-53,-93
666,27,-103,564,342,295,182,92,60,-93
2,-870,131,645,167,131,-33,-102,-74,-260
-849,-1882,617,784,78,-96,-301,-332,-293,-555
-661,-2467,804,717,155,-43,-283,-245,-243,-571
-94,-2853,122,80,-65,-76,-190,-78,-46,-282
154,-3429,-393,-192,-206,-173,-189,-30,0,-183
68,-3909,-431,31,-132,-223,-221,-99,-134,-358
-3,-4101,-145,62,108,-81,-41,-38,-105,-289
-183,-4291,371,116,346,102,201,53,-35,-177
-91,-4283,566,-57,287,287,336,175,107,-43
33,-4213,220,-219,150,405,425,260,203,36
-24,-4072,29,-107,100,426,342,104,37,-32
48,-3874,21,-114,120,365,252,37,-11,39
229,-3626,-137,-339,94,283,262,75,52,152
217,-3637,-221,-318,89,204,215,93,107,173
217,-3720,-161,-222,131,172,116,111,161,205
83,-3787,-176,-281,0,122,68,98,164,221
-276,-4114,-355,-399,-46,13,60,65,63,72
-145,-4621,-198,-307,-33,-136,41,-13,-46,-42
156,-5833,302,-61,-70,-227,-39,-46,-35,-7
202,-6215,469,-152,-211,-241,-63,-20,0,45
333,-5834,334,-255,-295,-263,-79,-14,43,172
309,-5498,33,-303,-277,-224,-5,45,99,250
282,-4988,-87,-248,-231,-188,11,50,82,230
484,-4258,-202,-68,-52,-192,-142,-24,43,185
531,-3557,-510,45,184,-128,-147,-26,40,78
166,-2780,-754,-108,147,-177,-224,-95,-56,-95
-92,-1861,-525,-132,-77,-240,-325,-130,-87,-98
-178,-862,294,128,-134,-128,-154,-60,-43,6
-171,139,777,293,-78,-8,105,5,-2,66
87,1033,655,158,-75,-3,50,-2,6,87
228,1547,247,-99,-217,-11,16,-23,-8,77
241,1662,-57,-247,-303,-46,-19,-13,27,180
250,1607,-90,-159,-257,-127,-128,-48,48,286
345,1304,28,7,-132,-142,-147,-61,48,314
149,714,127,139,10,-24,-28,6,108,271
-2,279,162,303,153,119,87,85,189,223
56,147,-11,232,57,77,111,56,112,136
10,-6,-248,23,-31,28,190,50,21,25
-58,-206,-137,136,167,48,164,53,39,-5
-319,-215,-93,165,290,57,59,22,15,-63
-590,7,-77,40,122,13,-31,-25,-62,-232
-566,334,-50,141,-53,-10,-72,15,-37,-227
-689,670,-9,205,-114,-21,-93,58,14,-91
-584,1185,115,132,-135,-99,-174,-69,-138,-160
-222,1670,360,322,-49,-76,-149,-127,-187,-212
-134,1961,515,247,11,-10,-44,-102,-145,-117
-232,2070,169,-136,29,71,96,-14,-26,-6
-263,2019,-198,-390,26,124,143,67,30,35
105,2042,-392,-407,33,120,112,132,52,58
418,1902,-476,-294,5,49,46,163,50,19
313,1448,-322,-182,-98,-44,-20,176,61,-7
64,913,153,-24,-145,-99,-81,79,-35,-45
-74,472,231,24,-61,-92,-136,-41,-112,-65
89,331,235,153,142,24,5,-108,-131,-54
-8,119,240,217,283,165,248,-98,-108,-115
-90,48,70,101,274,120,123,-104,-68,-9
119,282,-132,-80,155,39,-2,-96,-27,233
162,602,-281,-8,124,41,0,-35,38,416
-135,948,-258,571,145,22,-13,-23,45,318
-442,1271,-229,808,-34,-30,-53,-31,32,-6
-534,1703,-235,754,-84,-65,-150,-104,-88,-343
-187,2399,193,961,216,-140,-365,-309,-303,-492
430,3095,381,471,218,-98,-203,-230,-222,-257
745,3519,351,-356,-14,31,110,121,133,115
456,3488,239,-810,-198,-42,111,281,339,314
363,3348,39,-778,-270,-168,-24,226,320,443
518,2994,-42,-477,-145,-121,-55,178,231,470
589,2612,-171,-238,-44,-69,-81,58,80,335
658,2412,-339,-243,-162,-143,-136,-131,-125,123
5,1847,-282,-17,-153,-106,-100,-236,-268,-135
-557,1245,-161,-17,-113,-15,-45,-166,-202,-221
-333,1001,-23,30,24,33,66,-7,-45,-101
-168,984,23,183,221,143,155,117,78,-1
-12,1167,76,233,154,68,9,0,-16,-39
115,1526,13,175,59,-27,-151,-163,-166,-152
180,1954,-233,-122,135,131,-18,-46,-9,-21
728,2433,-190,-197,164,275,199,134,222,236
505,2738,-55,-19,68,161,126,80,175,213
-379,2889,69,32,76,69,-61,-75,-12,-33
-684,3104,337,-41,152,99,-110,-100,-94,-152
-560,3163,402,-206,121,179,-92,3,-27,-79
-497,2907,263,-239,142,245,-3,130,49,-37
-432,2524,-143,-357,-17,135,86,169,85,54
-317,2110,-235,-210,-101,-10,20,104,40,83
-188,1760,29,291,89,-48,79,78,29,76
135,1434,89,180,44,-36,252,134,89,144
378,1083,64,-298,-233,-129,175,128,116,180
401,758,159,-292,-323,-212,5,41,71,195
408,585,104,-176,-303,-170,-48,-1,39,249
409,586,99,-115,-229,-108,-59,-22,-10,292
210,604,82,20,-89,-104,-93,-22,-41,241
-228,533,-135,52,0,-102,-131,26,1,53
-460,531,-270,-27,-23,-155,-165,13,-24,-149
-594,810,-75,219,90,-119,-148,-57,-109,-360
-752,1339,45,622,243,14,-141,-69,-100,-394
-723,1737,-138,437,9,-61,-237,-180,-144,-371
-462,1940,-68,302,-69,-21,-93,-235,-209,-342
-85,1925,100,160,22,163,128,-87,-124,-218
218,1772,95,-116,0,171,127,17,2,-38
270,1410,-25,-313,-82,78,147,93,118,148
366,931,86,-293,-78,65,176,103,84,155
681,591,230,-54,37,135,111,52,41,105
413,147,165,207,101,111,11,8,12,90
-150,-476,-5,237,72,-25,-40,-51,-83,-55
-84,-897,-59,101,44,-127,-56,-81,-112,-121
75,-943,-12,5,93,-115,-20,-111,-110,-25
223,-662,-118,-84,57,0,197,18,-5,142
247,-316,-305,-281,-149,-48,138,80,129,234
26,-24,-328,-162,-66,-8,65,24,126,182
-163,416,-41,27,212,126,166,31,72,80
-253,974,195,198,208,164,223,41,0,4
-143,1608,282,505,156,137,121,21,-46,-5
-130,1998,115,487,121,77,44,28,-18,46
-91,2343,-8,258,-20,-31,-39,38,32,137
-25,2878,-132,-74,-140,-56,-37,120,160,362
-56,2872,-166,-242,-104,18,22,182,206,449
0,2372,-196,-378,-199,32,28,139,146,426
-97,1681,-404,-636,-255,-7,-24,66,84,308
-224,1196,-296,-292,77,9,-42,-1,5,-40
-190,908,163,160,331,53,-36,-73,-113,-442
111,732,332,207,200,27,-30,-87,-153,-534
169,556,387,428,26,-113,-146,-184,-234,-463
-75,360,428,418,-49,-227,-218,-258,-239,-425
-7,541,241,-73,-106,-105,-36,-87,-51,-221
233,860,-72,-568,-220,-22,60,81,117,12
254,1080,-178,-670,-321,-77,1,124,127,81
