-23,57,79,71,42,12,133,39,29,122
-59,44,49,36,11,0,106,4,-74,-41
-40,-4,-84,-27,-48,-41,17,-57,-147,-51
-3,-13,-88,-41,-55,-65,-20,-67,-112,35
6,23,-21,-3,-25,-34,-18,-42,-69,-23
-23,26,27,7,-25,-36,-70,-58,-102,-190
-67,-10,-92,-28,-33,-31,-94,-80,-129,-281
-51,-3,-122,-17,1,19,-64,-71,-97,-197
-30,7,-16,0,22,34,-69,-82,-81,-112
-19,-1,60,0,19,3,-98,-82,-37,-44
30,6,76,-2,11,-20,-138,-73,12,12
86,38,99,30,4,-29,-131,-53,68,34
80,31,95,30,-11,-13,-70,-14,103,44
51,10,51,5,-24,19,-12,32,117,83
27,10,46,6,-17,36,40,73,123,113
1,34,42,24,-8,57,94,94,64,96
-66,1,-8,0,-12,69,81,62,-44,-1
-114,-44,-12,-17,-19,32,20,13,-130,-81
-71,-73,-20,-32,-38,-12,-30,-34,-146,-80
-33,-47,-14,-43,-33,-20,-35,-40,-95,-63
-6,-9,3,-26,-19,1,-5,-22,-41,-12
-2,1,-7,-7,-7,-2,2,24,-5,17
-11,9,-84,6,0,-3,-14,57,5,34
-12,17,-34,10,0,14,-17,63,27,29
-27,30,-1,6,14,33,23,52,60,21
-43,29,-76,27,32,41,20,24,80,16
-54,32,-6,39,46,40,2,-5,59,0
-78,31,-8,62,68,37,-7,-29,30,-5
-95,4,-21,67,74,32,-26,-66,-31,-1
-26,-16,26,23,31,-16,-79,-133,-119,42
12,-5,6,-13,-23,-57,-89,-168,-176,-8
19,-17,5,-50,-44,-75,-94,-162,-169,-47
34,-27,1,-63,-46,-61,-75,-131,-126,13
55,-22,-5,-55,-38,-47,-12,-75,-77,38
40,-23,10,-44,-33,-25,38,-16,-30,31
30,-15,16,-32,-17,-4,73,10,7,14
60,-1,29,-18,-4,-2,78,34,63,63
111,13,27,-1,-12,0,80,63,96,236
176,19,0,-18,-28,-17,70,69,150,405
214,26,-1,-57,-56,-43,63,64,155,443
244,34,8,-48,-67,-38,40,87,168,396
242,48,-3,-31,-51,-20,27,119,207,318
170,66,5,1,-7,26,45,127,221,197
-11,73,80,75,50,90,95,142,139,-69
-238,42,90,111,93,128,100,111,-30,-446
-277,-5,4,57,66,91,32,44,-130,-505
-199,-18,-9,17,37,60,-3,18,-98,-266
-155,-15,13,19,30,54,-5,5,-64,-48
-163,-29,10,1,20,29,2,-14,-75,-28
-182,-55,5,-10,9,-3,-5,-35,-102,-102
-135,-50,-7,-10,3,-20,-38,-42,-145,-116
-45,-38,-73,-35,-24,-35,-69,-60,-135,-30
42,-6,-58,-50,-46,-48,-70,-60,-72,106
93,14,4,-46,-56,-52,-66,-47,-29,207
93,12,-1,-58,-53,-58,-59,-48,-22,163
35,0,1,-59,-14,-9,-67,-46,-46,23
4,6,21,-31,16,38,-39,-34,-33,-48
-47,24,35,0,38,56,-1,-10,22,-19
-214,5,59,43,59,58,21,37,70,-54
-338,-33,75,71,88,63,55,91,124,-76
-312,-36,60,55,70,62,113,133,170,-35
-216,-30,26,22,38,47,129,121,147,-27
-204,-33,16,27,68,80,104,65,-10,-218
-116,-40,-6,1,41,46,31,-25,-189,-299
112,-34,-70,-95,-73,-56,-68,-121,-220,-89
123,-18,-66,-97,-83,-84,-70,-110,-175,-88
57,9,-26,-35,-20,-68,-61,-68,-105,-112
45,40,-43,1,-3,-83,-94,-50,-43,-64
62,43,-29,-5,-29,-98,-86,-28,-17,-23
70,51,-47,-8,-50,-108,-83,-19,-11,5
51,45,-73,3,-16,-71,-79,-15,-20,-4
-6,17,14,25,53,20,-50,1,-22,-70
-24,2,33,38,96,57,-53,11,-31,-70
28,17,26,31,57,38,-39,20,16,34
42,17,22,11,5,23,-9,56,69,69
24,17,-15,1,-10,20,46,66,83,73
33,-4,-37,-3,22,75,79,59,99,95
55,-14,-18,-5,38,99,72,37,89,145
44,-16,-4,-6,14,74,26,8,68,179
8,-27,-14,-21,-7,74,15,15,55,145
-32,-22,0,-4,4,59,56,20,1,56
-46,-3,17,10,-1,6,42,-13,-34,35
0,2,2,-12,-73,-54,-8,-21,31,162
52,-6,-2,-27,-107,-138,-121,-29,118,297
46,-17,-5,-6,-59,-145,-163,-35,187,375
0,-20,4,9,-21,-128,-105,-8,257,336
-36,-21,9,0,-33,-96,-52,15,298,250
-44,-1,19,7,-29,-64,-43,45,263,47
-74,11,44,35,20,-10,22,87,154,-198
-115,17,51,74,88,82,126,158,71,-242
-43,29,40,87,127,205,145,188,-44,-101
73,11,1,41,172,332,122,129,-132,8
-20,-62,-110,15,216,297,89,-20,-400,-321
-133,-95,-175,20,189,136,5,-171,-616,-746
-95,-67,-116,17,94,-79,-55,-213,-527,-699
-17,-49,-37,-9,-81,-161,-9,-129,-313,-413
60,28,52,-3,-222,-220,9,-53,-133,-143
134,95,79,16,-198,-224,-32,-66,-56,13
151,83,51,-13,-180,-195,-71,-71,-17,90
138,48,-15,-23,-114,-137,-99,-58,20,157
142,26,-5,-18,-79,-94,-106,-56,68,215
110,19,-37,-11,-52,-73,-81,-35,102,218
58,18,-67,2,-33,-59,-62,-7,107,149
22,31,21,14,-11,-44,-62,-7,58,29
-12,49,44,36,-9,-36,-54,-11,1,-102
-21,33,45,37,-14,-32,-16,-11,-48,-153
22,14,27,2,-16,-51,-10,-25,-43,-79
61,14,-59,-22,-23,-46,-40,-30,-10,9
29,8,-92,-24,-13,-39,-36,-19,6,14
18,-6,10,-30,-5,-40,-41,-28,5,17
37,-14,25,-27,-11,-65,-102,-36,2,49
65,-8,16,-16,-3,-89,-168,-62,12,62
75,8,20,-14,2,-90,-180,-84,17,83
74,-2,5,-40,-10,-85,-160,-86,17,84
55,-21,-15,-51,-17,-60,-93,-71,13,71
-8,-28,-18,-45,-3,-29,20,-40,20,41
-92,-51,-12,-34,18,19,120,-18,11,-39
-200,-73,-11,-19,28,65,208,10,-53,-178
-158,-76,-23,-20,15,92,264,41,-54,-152
-59,-63,-68,-40,-6,93,266,77,-29,-15
-7,-53,-57,-34,-19,83,260,103,2,76
-3,-47,-13,-20,-9,86,194,135,36,94
1,-15,7,0,17,88,122,137,68,119
7,13,52,32,51,79,49,102,90,110
3,37,88,54,76,71,0,88,137,95
-19,49,102,74,99,79,-39,76,168,41
-65,45,126,108,128,89,-49,31,115,-104
-40,63,92,110,112,68,-42,-13,60,-104
98,76,-3,44,39,0,-91,-64,34,55
184,47,37,1,-1,-43,-109,-109,-23,123
198,26,17,-34,-41,-78,-123,-141,-73,86
146,6,-1,-53,-51,-83,-95,-125,-79,8
79,-7,-20,-56,-34,-71,-40,-90,-54,3
25,-23,-27,-44,-29,-65,-11,-61,-65,25
-3,-30,-68,-49,-41,-56,-6,-27,-57,47
-13,-27,-59,-31,-14,-9,36,35,12,62
-22,-28,-11,-33,7,29,74,98,68,48
-17,-33,-11,-35,-4,14,87,138,127,47
-10,-32,-4,-19,-14,6,88,158,160,66
-24,-28,13,10,20,46,105,140,144,33
8,-26,-85,17,38,43,64,47,74,-5
9,-30,-154,10,27,9,-10,-63,-43,-117
-10,-23,-134,7,0,-5,-41,-88,-83,-157
2,2,-80,12,-8,10,-20,-53,-54,-149
63,33,-38,-12,-40,-11,-16,-66,-48,-101
88,38,27,-42,-78,-34,-30,-82,-75,-27
62,7,35,-40,-60,-29,-2,-70,-104,-13
43,12,61,-21,-23,9,27,-56,-126,-51
10,17,76,1,-7,9,13,-52,-134,-127
-7,-1,74,0,-11,-1,-5,-50,-110,-138
5,-5,60,-3,0,3,15,-29,-43,-84
17,-2,50,-13,-16,-16,16,-26,-5,-30
32,18,45,-14,-25,-19,-4,-29,22,-4
55,15,-5,-23,-22,-19,-9,-23,34,17
51,3,0,-24,-17,5,27,-4,59,49
39,-14,17,-26,-27,18,72,8,83,86
23,-15,17,-22,-29,32,93,25,117,123
11,8,-24,13,-11,41,69,45,128,124
-15,-2,-84,-1,-4,22,26,61,102,41
-33,-19,-1,-11,3,15,16,107,137,63
-13,7,55,18,14,21,52,203,231,150
0,22,79,26,39,47,77,264,303,176
-18,-1,66,7,42,57,106,254,275,157
-77,-28,37,-4,31,50,117,212,196,78
-145,-15,42,61,89,101,166,184,101,-143
-129,17,36,91,108,99,115,80,-87,-338
57,2,8,-4,-11,-39,-100,-121,-243,-205
116,-27,-15,-51,-66,-119,-210,-228,-291,-191
101,-17,-6,-26,-44,-101,-213,-216,-247,-176
136,-13,-8,-27,-18,-77,-192,-173,-171,21
115,-17,-17,-9,18,-27,-133,-130,-131,73
15,-22,-50,9,39,15,-75,-108,-169,-61
-89,0,13,42,30,21,-33,-96,-237,-309
-81,-5,44,47,-4,18,19,-55,-192,-338
-53,-30,30,29,27,88,58,-26,-123,-237
-61,-45,-47,25,61,179,92,-13,-80,-156
-38,-45,-149,19,58,175,83,-1,-52,-91
58,-26,-142,-2,5,79,19,12,-21,23
112,3,-55,-20,-48,-38,-53,38,44,78
122,42,1,-3,-84,-108,-42,93,157,169
70,52,63,21,-82,-129,-3,145,216,214
-115,-18,31,59,27,-7,36,139,151,46
-171,-44,-21,68,88,75,38,72,48,-24
-44,-40,-93,9,37,54,-2,-17,-26,49
100,-2,-21,-46,-67,-30,-40,-57,29,169
151,24,-7,-60,-127,-88,-94,-40,138,264
110,55,-38,-17,-87,-54,-117,-16,176,227
32,88,20,34,-43,-50,-141,-6,109,43
-32,40,71,15,3,21,-147,-30,-26,-83
-44,-18,10,-32,8,100,-134,-24,-108,-92
-47,-28,-3,-51,-9,83,-87,7,-83,-142
-42,-7,30,-29,-2,8,-30,-24,-79,-174
-42,-5,53,-2,-6,-71,-26,-100,-138,-199
-35,-5,54,-5,-54,-100,28,-86,-115,-154
-41,0,57,0,-73,-83,89,-25,-33,-27
-42,-7,35,2,-36,-54,107,-26,-14,41
-43,-4,45,8,3,-40,87,-37,-48,-10
-22,36,77,37,29,-4,99,9,-55,-10
-32,43,85,42,8,-3,123,45,-31,1
-50,15,61,28,-8,-8,86,29,-61,-42
-51,16,45,29,4,1,50,14,-57,-131
-52,18,44,33,12,6,47,29,-20,-128
-48,14,-18,29,33,26,31,33,15,-62
-24,25,-122,20,33,30,9,13,35,3
4,15,-67,20,10,-2,-23,19,46,120
12,10,22,6,-12,-28,-34,32,65,228
23,3,41,6,-7,-26,-46,25,71,255
53,0,35,-5,-20,-38,-77,26,100,312
57,3,19,-7,-21,-28,-54,46,137,316
14,8,27,22,6,-9,12,47,107,197
-80,12,36,52,38,12,18,22,-4,-46
-137,-34,7,30,42,14,-23,-16,-90,-250
-161,-62,-21,8,48,17,-30,-16,-83,-333
-181,-72,-31,-11,75,39,-8,-9,-85,-357
-123,-51,-27,0,111,58,-15,-20,-87,-241
-42,-30,-29,6,75,32,-43,-37,-88,-107
11,-32,-51,-13,-5,-49,-78,-65,-74,24
-34,-36,-107,-16,-39,-69,-86,-51,-59,53
-62,-27,-46,-20,-48,-57,-28,11,3,26
-67,-17,-90,-16,-29,-20,-3,33,47,11
-56,-18,-117,-21,1,23,1,31,69,18
7,-11,-54,-56,-20,20,34,32,50,65
60,-5,-17,-65,-35,20,41,14,9,114
60,19,-27,-36,-24,13,22,3,-3,115
55,46,-76,-13,-12,2,0,9,-7,85
33,39,-9,-11,-12,28,42,33,-8,77
30,39,24,-11,-14,45,82,60,23,93
31,45,32,3,-6,40,71,71,60,105
36,47,39,21,-4,28,53,71,64,104
51,40,33,17,0,13,14,66,65,90
82,31,23,4,-9,13,-32,44,67,93
97,42,29,9,-5,0,-56,21,94,142
96,56,37,24,-16,-17,-44,7,95,177
68,37,20,5,-15,4,4,27,108,123
33,2,7,-18,-7,33,23,40,116,52
1,-16,-7,-39,0,35,3,44,95,29
-15,-21,-16,-56,-14,19,-55,15,70,25
4,-14,-9,-39,-13,-4,-108,-27,2,2
-26,-32,-6,-31,-22,-43,-137,-65,-115,-85
-67,-37,-4,-18,-19,-65,-129,-61,-176,-65
-41,-22,-52,-7,-5,-56,-103,-22,-146,3
-32,-18,-36,-11,14,-10,-56,-2,-109,-35
-37,-8,25,1,46,56,13,-2,-99,-81
-49,-8,27,28,92,98,64,-12,-97,-140
-104,-13,27,43,95,85,66,-28,-61,-166
-136,-15,-27,40,80,42,36,-31,-41,-140
-102,-8,-59,20,30,28,34,-24,-48,-75
-22,20,12,16,12,14,0,-50,-34,3
15,18,-11,7,14,1,-43,-74,-42,22
-4,13,28,28,0,-13,-58,-87,-46,-5
-3,34,58,64,-8,-31,-72,-87,-51,-10
25,57,81,70,-22,-38,-41,-86,-29,11
45,58,87,55,-15,-36,8,-67,-7,21
42,54,75,47,9,-29,9,-50,-6,23
16,39,39,32,0,-17,34,-11,15,28
-16,14,17,20,-7,-2,42,46,41,17
6,-15,5,7,-2,8,27,83,80,58
41,0,11,0,0,17,31,115,157,226
93,18,11,1,4,18,38,153,263,364
141,28,2,5,6,17,52,187,342,432
132,47,18,5,8,27,47,196,357,418
61,45,23,28,22,52,80,193,322,309
-48,58,62,78,62,95,86,148,209,8
-206,35,64,90,90,94,53,40,-21,-504
-235,-10,-1,26,27,8,-60,-108,-263,-713
-69,-36,-70,-51,-55,-68,-149,-183,-292,-409
7,-35,-57,-58,-35,-59,-119,-145,-206,-197
7,-44,-43,-48,-5,-27,-54,-112,-175,-138
82,-36,-44,-72,-37,-50,-38,-104,-165,-36
115,-3,-45,-49,-63,-50,-22,-91,-138,-12
84,-10,-62,-41,-63,-32,5,-50,-98,14
34,-27,-31,-35,-32,-5,36,-16,-57,-11
27,-23,-43,-31,-34,9,42,-21,-58,-45
16,-24,-33,-38,-18,20,33,-15,-32,-33
-10,-29,-23,-26,-15,13,34,5,20,4
-14,-31,-22,-17,-10,11,32,24,60,40
5,-13,-12,2,1,10,37,33,83,39
20,-4,9,24,5,24,45,36,36,18
70,2,-9,-4,-17,0,29,15,2,27
96,0,-9,-10,-20,-24,22,1,-6,32
48,-4,-6,-4,1,-20,23,4,-8,-7
31,3,-7,3,1,-18,3,0,2,-2
37,0,-52,-3,-4,-33,-30,-38,14,32
41,-10,-29,-18,0,-13,-54,-66,29,92
32,-16,-62,-22,5,7,-42,-73,50,109
17,-23,-60,-17,41,5,-61,-75,57,73
1,-10,-7,-6,73,-5,-90,-49,49,46
-1,-1,1,7,75,-19,-86,8,63,79
19,11,19,9,40,-31,-53,66,75,126
9,11,23,3,17,-17,5,54,18,74
10,0,22,-4,0,-21,45,26,-27,56
31,0,22,-22,-34,-35,128,44,31,110
10,25,27,8,-18,24,212,97,128,105
-32,31,36,29,31,83,231,144,221,47
-84,7,42,27,59,116,274,195,331,71
-152,-15,50,41,87,131,300,230,385,132
-234,-13,67,70,114,162,290,242,333,5
-188,11,53,105,134,170,240,175,186,-29
132,37,-68,9,10,16,24,-45,-12,259
395,83,-35,-69,-112,-126,-162,-212,-165,436
389,84,-4,-79,-125,-163,-227,-275,-314,144
255,34,-55,-93,-110,-144,-234,-277,-416,-204
49,1,-39,-60,-17,-30,-135,-199,-389,-447
-124,-30,-20,-30,23,36,-69,-129,-369,-596
-229,-47,-21,-10,66,112,21,-46,-312,-614
-196,-46,-23,-24,56,105,82,-12,-206,-420
-94,6,0,-21,10,18,58,-19,-97,-208
-6,56,24,-10,-44,-81,-17,-33,-2,-55
4,11,-4,-39,-54,-99,-62,-37,37,13
17,-2,-18,-30,-12,-69,-50,-28,52,97
51,9,2,-20,-30,-57,12,1,69,206
43,7,9,-30,-51,-62,29,3,25,198
-19,13,23,-11,-23,-53,12,-19,-87,-57
-104,25,74,39,15,-47,-14,-11,-122,-283
-102,57,94,72,28,-40,-47,1,-70,-211
-31,70,86,54,16,-44,-56,10,-28,-80
-2,58,82,33,-2,-27,-59,0,-7,-27
-22,56,71,34,-14,-17,-49,-12,-4,-22
-13,42,50,23,-24,-15,-58,-22,5,3
-2,22,39,1,-26,-13,-106,-31,14,18
-2,19,30,-11,-16,-12,-100,-37,15,23
6,27,18,-19,-17,-7,-94,-41,23,38
-25,12,9,-14,-23,-10,-82,-30,42,31
-58,-2,-7,-8,-20,0,-53,3,79,17
-87,-2,-50,-5,-9,24,20,53,114,8
-91,-13,-5,-1,2,32,41,66,101,0
-78,-21,-1,6,19,42,53,53,46,-5
-2,-12,9,-2,22,37,54,16,-3,38
109,-15,-5,-32,-18,0,19,-24,-13,160
136,-8,-14,-23,-41,-14,15,-5,16,156
108,-1,0,-10,-26,0,28,9,34,120
93,-7,6,-17,-7,21,26,16,47,203
93,-14,-65,-15,-8,25,32,12,66,244
61,-19,-136,-20,-27,26,49,43,63,151
3,-24,-79,-21,-20,32,58,64,26,7
-9,-22,-2,-14,-9,34,49,56,30,-53
-17,-15,26,0,-2,44,26,35,41,-83
-35,-3,17,5,6,49,15,14,23,-106
-18,-20,9,7,8,26,12,13,8,-56
-24,-15,17,-1,0,16,11,30,9,-30
-16,-1,41,-1,13,25,9,34,8,16
-14,-3,48,4,32,19,2,13,-21,35
-35,-19,28,-8,26,0,-25,-28,-50,2
-41,-19,28,5,20,10,-19,-30,-50,-36
-45,-12,23,20,24,25,-6,-36,-23,-17
-49,-5,16,13,28,29,-39,-41,-19,6
-56,7,15,3,19,35,-59,-30,-5,16
-74,0,21,10,8,21,-39,-12,14,0
-78,-14,10,2,-20,-9,-24,18,50,-23
-77,-9,-31,-9,-6,-11,2,36,64,-54
-94,-8,4,0,37,20,0,22,-4,-88
-61,-14,9,12,40,37,-24,-14,-53,-43
20,-25,-31,-23,-2,22,-42,-46,-51,70
4,-50,-64,-60,-14,23,-40,-35,-18,52
-43,-60,-49,-67,-21,25,-17,-3,12,23
-49,-46,-38,-57,-31,6,-13,22,36,19
-64,-23,-6,-26,1,14,13,49,48,-7
-102,-16,34,10,53,56,73,88,83,-52
-152,-14,27,39,62,68,125,100,79,-84
-140,-8,29,61,68,60,168,89,50,-96
-78,3,47,55,62,73,195,70,0,-97
88,35,37,7,-26,-18,104,8,-96,-17
231,61,24,-10,-61,-113,-37,-68,-105,141
230,66,17,5,-42,-125,-133,-80,-45,248
201,65,11,-3,-38,-118,-178,-88,23,348
178,59,-3,-11,-51,-106,-176,-98,75,365
134,39,5,-16,-46,-102,-185,-156,29,226
49,16,-7,-23,-18,-74,-139,-141,-19,26
-30,7,-13,-7,3,-26,-54,-77,-28,-122
-63,-16,-22,-12,6,-8,-4,-13,-66,-265
-95,-48,-51,-31,-7,8,73,33,-102,-299
-84,-54,-52,-42,-15,46,173,95,-54,-98
-46,-29,-41,-28,-7,80,245,146,81,35
-22,38,-2,34,26,118,241,185,191,3
-1,68,3,73,62,132,164,214,254,61
88,86,-15,64,69,101,65,221,348,306
116,118,80,89,88,88,30,197,318,401
64,79,103,95,89,48,0,69,65,211
70,26,38,28,28,-19,-69,-116,-183,-61
37,24,39,28,15,-21,-85,-187,-259,-294
-65,8,35,34,17,-38,-97,-208,-257,-451
-102,-38,-64,-8,-16,-60,-106,-181,-171,-480
-66,-44,-111,-3,4,-35,-103,-143,-79,-272
-43,-28,-24,-4,-4,-35,-88,-155,-43,-74
-24,-32,-7,-11,-10,-21,-42,-141,-60,1
-28,-57,-6,-36,-17,-9,-18,-141,-118,33
-10,-51,-33,-62,-69,-41,-42,-139,-193,51
52,-39,-48,-66,-79,-45,-50,-84,-202,20
132,-13,-58,-63,-76,-23,-7,-7,-111,88
170,3,-75,-56,-61,-14,-7,-6,-59,124
45,-16,-8,-29,-20,32,35,-36,-54,-19
-96,-26,22,13,48,95,96,-54,-39,-118
-99,-10,29,25,65,116,90,-53,-11,-74
-25,19,47,51,70,83,33,-75,2,-4
13,37,-31,41,65,41,-29,-41,18,17
26,31,-45,24,22,17,-24,78,65,74
42,26,31,16,4,12,5,179,162,147
67,33,52,-3,11,3,5,187,245,210
68,50,68,3,10,-5,-27,164,275,278
75,72,92,36,31,6,-31,127,267,313
51,84,108,69,64,31,-11,94,175,261
18,16,66,34,29,-10,-38,18,40,185
66,0,26,-6,-20,-42,-96,-46,-41,174
176,16,-6,-21,-48,-31,-123,-74,-37,220
-192,-44,-42,-33,-89,-70,-39,18,-101,-524
-137,-47,-61,-61,-98,-79,-56,-10,-95,-325
-119,-34,-50,-38,-55,-48,-52,-25,-99,-160
-122,-34,-40,-3,-29,-26,-16,-53,-165,-146
-92,-48,-46,-9,-15,-6,-1,-48,-150,-117
-123,-52,-37,29,29,31,43,24,-19,-138
-174,-46,-9,47,48,77,126,117,136,-168
-145,0,36,65,64,94,132,167,220,-167
-198,40,100,127,113,128,184,204,216,-183
-107,59,110,130,99,98,152,140,114,-18
137,75,59,64,14,0,22,-2,-32,231
310,42,-19,-33,-77,-86,-67,-99,-115,381
275,-6,-62,-63,-90,-87,-86,-84,-94,400
140,-93,-98,-71,-65,-68,-66,-75,-123,250
50,-93,-76,-53,-37,-44,-50,-85,-168,34
46,46,-19,-11,-20,-37,-88,-142,-218,-100
39,58,-35,-21,-44,-50,-92,-164,-211,-133
34,31,-46,-13,-27,-63,-64,-108,-126,-71
91,27,-91,-27,-25,-73,-78,-70,-56,19
86,11,-47,-41,-12,-76,-106,-49,-9,72
-13,-15,-31,-25,12,-43,-106,-43,-12,-4
-63,-25,-11,-1,15,-32,-80,-53,-50,-51
-166,-37,-7,27,30,-4,-40,-27,-34,-72
-245,-50,-8,11,26,7,-51,-12,-11,-92
-177,-57,-25,-14,-12,-3,-75,-20,27,-18
-74,-28,-31,-2,-12,-7,-118,-57,42,53
-97,-87,-90,-21,-7,66,-38,-71,19,-6
-152,-165,-141,-68,5,143,82,-44,-22,-95
-166,-180,-128,-57,18,149,138,-16,-62,-135
-162,-146,-104,-31,9,76,159,27,-56,-129
-120,-97,-47,-12,2,36,154,120,21,-100
-20,-9,29,5,-16,7,151,201,91,-46
69,71,57,25,-23,-24,176,221,101,12
117,100,60,11,-43,-29,227,220,133,85
110,96,87,-4,-56,9,302,234,152,130
99,95,51,15,-29,19,261,191,119,151
94,128,98,52,14,5,118,116,80,128
95,156,138,71,32,-10,-14,47,72,108
101,146,147,74,41,-8,-100,-10,88,119
81,111,135,82,55,-24,-152,-74,89,98
87,67,90,62,52,-36,-128,-56,76,77
77,21,52,34,65,-9,-98,-58,34,22
86,28,60,34,77,18,-100,-97,-50,-55
98,3,29,14,75,17,-89,-106,-71,-86
27,-27,-11,-24,12,-21,-47,-50,-56,-84
-31,-32,-13,-21,-28,-75,-50,-6,0,-61
5,-4,8,-8,-92,-128,-53,15,44,16
35,5,3,-3,-100,-123,-62,-1,24,37
36,-15,-71,8,-43,-70,-76,-36,-13,12
27,-21,-47,-7,-27,-38,-43,-37,7,8
31,-7,-4,-34,-21,-34,-26,-2,74,23
21,-1,-7,-43,-14,-22,-13,25,89,36
-3,-26,-19,-59,-21,5,8,47,61,15
-18,-31,-66,-59,-16,22,33,56,65,14
-36,-49,-172,-57,-15,20,32,49,70,6
-49,-58,-146,-49,-12,16,7,3,75,-8
-68,-62,-53,-48,-29,-9,-21,-39,39,-38
-55,-62,-20,-52,-49,-53,-41,-38,-15,-49
-3,-27,10,-44,-47,-72,-39,-42,-13,-3
48,8,32,-27,-30,-47,-38,-34,18,68
61,19,24,-25,-12,-16,6,29,36,119
81,27,27,-5,-14,2,51,84,74,238
108,47,42,23,8,31,111,101,134,282
97,34,46,17,20,52,159,121,159,269
65,20,45,32,19,60,176,168,131,253
6,32,69,66,59,87,179,192,120,128
-110,42,82,86,101,107,144,153,-45,-255
-201,30,73,81,97,100,125,63,-188,-573
-170,16,38,69,73,80,99,-21,-200,-440
-85,38,0,82,54,59,42,-78,-192,-237
23,42,26,25,23,11,-44,-118,-138,-110
42,40,-22,-14,2,-7,-53,-78,-15,-74
5,32,-91,6,0,6,-33,-30,21,-113
-35,30,-10,20,12,6,-38,-32,-23,-177
2,9,11,4,14,-25,-74,-82,-66,-143
104,10,-7,-28,-10,-53,-129,-138,-97,8
123,33,-10,-27,-27,-82,-170,-178,-98,73
59,39,-19,-4,-12,-72,-172,-168,-101,14
-1,23,-108,3,-7,-59,-148,-136,-139,-39
-27,-4,-109,-8,-19,-61,-134,-103,-125,-54
-48,-21,-31,-23,-25,-64,-106,-53,-92,-65
-76,-30,-5,-12,-17,-41,-29,7,-31,-103
-97,-34,-28,-5,-9,-4,40,49,23,-129
-77,-32,-21,13,8,31,115,104,88,-71
-29,-6,30,49,20,62,150,132,108,42
64,14,36,39,26,31,93,92,83,173
119,6,9,-11,2,0,25,56,65,266
74,-28,-4,-17,-4,17,8,41,27,260
-9,-25,20,17,38,66,7,1,-17,136
-95,-10,55,41,63,77,-2,-53,-116,-42
4,-11,37,9,14,9,-56,-88,-117,30
76,-8,18,-25,-21,-35,-94,-108,-72,107
47,0,33,-9,0,-19,-73,-152,-74,13
13,3,34,-1,-2,-40,-88,-196,-128,-108
-24,-25,11,-14,-28,-71,-83,-136,-117,-195
-52,-50,-57,-38,-34,-60,-31,-10,-56,-196
-37,-44,-53,-39,-31,-74,-21,51,-12,-119
-7,-43,5,-31,-35,-81,-13,155,67,0
0,-36,6,-39,-35,-48,44,245,159,69
-8,-28,-13,-26,-37,-11,117,231,139,73
5,-37,-7,-32,-20,6,160,177,102,58
39,-28,-5,-38,-4,15,143,144,103,105
41,-12,-1,-14,2,26,114,112,85,97
13,-17,-1,4,23,21,59,77,52,46
-12,-14,10,10,31,15,12,41,33,51
-21,-9,39,32,55,27,12,35,70,120
21,9,40,44,45,27,71,21,84,235
71,6,-7,10,14,20,85,12,131,382
43,-5,5,-7,12,22,61,34,198,423
4,4,31,-1,29,22,31,23,176,309
-98,7,50,32,58,31,-6,-20,8,-72
-117,6,40,31,51,-7,-55,-79,-167,-356
33,16,-24,-31,-31,-100,-132,-164,-269,-396
87,15,-27,-60,-65,-139,-157,-185,-316,-441
72,-13,-28,-52,-54,-105,-113,-122,-263,-330
118,-25,-48,-62,-68,-76,-49,-35,-115,-70
101,-11,-58,-55,-35,-32,2,27,0,19
63,0,-13,-21,6,4,35,46,64,2
11,-22,11,0,19,12,48,61,77,-44
-52,-37,-2,13,26,25,48,86,98,-64
-53,-31,-40,31,43,50,53,92,68,-47
21,0,-11,36,42,49,44,48,7,43
93,6,1,-4,9,7,-4,-10,-34,145
47,-37,-15,-27,19,9,2,-21,-40,70
-85,-71,-19,-26,36,34,40,-4,-90,-65
-109,-66,-17,-15,29,29,40,-22,-82,-70
-49,-28,8,-3,21,39,5,-42,-31,-36
-19,-9,22,-5,-7,26,-27,-22,17,-24
-43,-1,-6,-23,-53,-9,-32,10,30,-6
-97,3,-80,-7,-45,-23,-15,37,45,8
-53,15,-22,7,-25,-27,-19,42,44,42
-8,18,25,-14,-59,-41,-34,14,1,100
16,18,17,-32,-61,-19,-44,0,-7,74
33,37,37,-20,-3,71,-9,12,-27,-14
46,33,30,-20,28,97,-5,-8,-39,-56
46,10,2,-15,36,73,6,-23,-1,-2
31,11,18,8,33,17,6,-37,26,50
26,27,27,2,0,-33,-16,-33,46,77
77,38,25,-17,-63,-87,-13,-3,90,130
-23,40,46,26,-5,-27,39,36,80,-21
-126,15,54,42,36,37,64,41,-4,-215
23,21,27,-4,-10,15,21,-33,-79,-145
143,27,0,-32,-52,-20,-27,-72,-74,-9
125,10,-24,-45,-70,-40,-38,-71,-74,14
69,-8,-50,-32,-23,-16,-51,-52,-51,30
2,-44,-48,-30,33,38,-40,-47,-47,6
1,-35,-54,-45,51,37,-28,-61,-52,-2
8,-30,-67,-63,12,19,0,-40,-40,8
-3,-15,-43,-64,-48,17,20,-4,-16,1
32,21,-9,-58,-83,9,27,33,14,28
50,54,37,-20,-79,-16,-5,55,36,60
24,49,37,-2,-34,-5,-19,58,57,43
-20,4,-8,-21,-23,29,-4,52,24,3
-22,-12,-64,-21,-5,43,16,23,-23,-15
1,-5,-128,-18,0,42,17,0,-31,-11
22,8,-107,-29,-18,29,7,-13,-11,37
41,21,-4,-19,-10,18,2,-9,30,36
18,42,47,24,6,1,-13,11,84,-27
-37,52,78,69,27,12,-8,34,118,-38
-72,53,60,103,52,45,10,42,106,-14
-53,35,-41,71,42,35,-29,12,44,60
23,2,-127,-7,-20,-50,-138,-83,-78,197
60,-33,-94,-72,-91,-138,-224,-175,-189,143
103,-13,-33,-53,-88,-119,-201,-163,-167,87
134,2,-48,-39,-60,-58,-124,-113,-86,131
98,-10,-145,-39,-44,-16,-30,-45,-39,93
-19,-18,-133,15,-17,40,57,16,-39,-58
-115,-37,-5,43,7,67,103,40,-70,-210
-133,-52,45,38,5,69,125,61,-73,-231
-110,-41,65,45,7,58,143,55,-59,-164
-69,-22,69,36,3,59,144,42,-44,-104
-32,-9,75,38,7,81,129,32,5,-45
-14,-2,69,53,22,78,101,37,37,2
0,9,76,73,54,40,29,14,26,21
5,-6,66,74,72,6,-12,5,46,47
-19,-58,32,41,18,5,24,58,124,95
-121,-124,13,41,24,42,94,139,211,75
-194,-100,43,57,59,71,104,169,262,66
-187,-17,73,65,56,73,115,191,318,123
-90,93,130,84,63,90,112,158,256,96
72,99,121,80,43,51,72,67,118,162
287,101,30,14,-42,-52,-16,-31,66,407
268,70,19,0,-46,-40,-10,-44,9,273
117,-19,-15,-15,-30,-39,-4,-65,-106,-26
0,-88,-59,-37,-46,-45,-8,-85,-129,-88
-33,-93,-54,-15,-20,-23,-9,-83,-88,-41
-63,-133,-89,-5,-7,-2,-2,-69,-62,-78
-107,-63,-151,-4,-16,-44,-56,-135,-174,-253
-137,-2,-88,16,-14,-59,-86,-152,-224,-385
-99,10,37,32,5,-43,-76,-77,-164,-293
16,39,70,16,-3,-69,-92,-44,-98,-126
64,59,52,14,-4,-59,-116,-56,-103,-42
22,21,-32,7,-3,-50,-119,-86,-104,-48
-68,-8,-100,5,-7,-40,-108,-100,-100,-108
-89,-23,8,22,-4,-38,-80,-112,-122,-110
-60,-37,31,16,-9,-39,-48,-99,-111,-50
-36,-42,2,-1,-21,-29,14,10,-60,-26
6,-39,-15,-17,-44,-35,47,102,0,34
45,-28,-39,-34,-60,-10,70,93,38,90
35,-27,-21,-21,-42,28,97,78,56,64
6,-7,6,6,-20,32,87,66,40,13
-21,10,-18,11,1,30,79,67,45,-7
-40,9,42,7,2,50,85,70,95,31
2,26,67,23,25,56,87,90,126,152
19,34,64,40,42,49,88,91,128,239
32,11,43,2,31,40,73,86,149,229
29,-13,19,-14,14,44,33,93,169,233
1,-4,22,-14,9,46,-11,89,181,223
-31,28,61,24,32,38,-31,28,101,51
-33,26,54,7,16,-15,-68,-90,-83,-153
26,-2,18,-33,-43,-72,-93,-127,-104,-82
16,-14,5,-26,-41,-48,-65,-68,19,47
-22,-18,0,-25,-23,-6,-21,-3,116,106
-132,-31,8,3,31,59,66,56,132,26
-246,-67,0,15,82,123,188,124,83,-73
-143,-59,-18,0,60,86,206,89,19,-10
-31,-9,-28,-33,15,3,135,0,-61,-34
-84,-3,-26,-27,25,14,99,-58,-97,-239
-162,-28,-39,1,59,43,85,-50,-82,-328
-173,-32,-13,25,70,43,53,-22,-75,-340
-93,-42,-42,-23,31,-13,-37,3,-88,-318
55,-9,-33,-47,-19,-105,-157,-14,-90,-18
72,-6,-8,-26,-26,-136,-192,-44,-134,121
35,1,12,-5,-11,-92,-119,-39,-146,30
53,23,-50,-8,-5,-42,-64,-22,-82,22
66,33,-152,-6,-4,-26,-36,14,-19,39
26,54,-124,30,22,-1,-4,40,24,21
44,47,-54,-2,29,6,-29,28,76,46
57,-23,-8,-27,22,19,-36,23,120,109
0,-156,-43,-20,51,70,12,67,165,162
-53,-268,-99,-14,86,111,66,97,186,168
-20,-98,-113,-13,49,56,12,4,106,76
64,202,46,-15,-8,-33,-100,-124,-14,-59
120,295,141,-56,-67,-107,-184,-170,-41,-74
55,79,2,-67,-28,-39,-125,-62,36,-12
168,-12,0,-25,5,5,-96,-48,38,99
369,171,59,-7,-5,-27,-121,-141,21,243
189,164,90,33,31,-7,-98,-122,96,218
-58,102,70,38,50,16,-89,-111,86,21
-216,65,49,25,30,1,-128,-145,-35,-221
-237,38,71,57,20,-16,-142,-167,-146,-330
-63,54,38,19,-29,-42,-150,-165,-172,-119
-17,1,-38,-47,-71,-41,-96,-90,-188,81
4,10,-79,-60,-77,-51,-42,-43,-244,98
78,92,-31,-15,-58,-70,-5,-50,-232,61
26,77,56,-4,-50,-68,51,-26,-215,-95
-35,24,21,-12,-48,-13,135,49,-134,-175
-98,-12,-17,-39,-46,18,165,138,-8,-204
-98,-10,-45,-91,-87,-9,107,176,143,-158
100,40,-21,-76,-79,-28,41,203,316,168
315,102,48,-10,-23,14,48,228,414,431
472,132,68,7,-2,35,56,192,359,643
354,55,23,-17,8,61,151,235,296,508
-113,-62,27,59,116,153,213,192,55,-38
-363,-131,4,74,131,90,75,-23,-243,-406
-305,-159,-68,-12,41,0,-76,-94,-243,-385
-190,-105,-14,-19,33,-1,-47,-51,-98,-146
-251,-71,26,0,48,22,-8,-47,-79,-137
-293,-31,51,40,69,39,0,-41,-45,-203
-230,18,89,78,55,0,-11,-46,12,-176
-88,30,51,20,-17,-65,-47,-68,7,-32
-65,13,-28,-20,-25,-45,-10,-19,8,27
-108,-20,-75,-19,-4,14,71,46,-34,-133
49,17,-42,3,-3,0,25,-35,-176,-181
124,46,-49,75,36,-21,-55,-137,-270,-145
74,26,82,162,128,12,-87,-168,-273,-96
20,19,148,213,184,72,-49,-142,-218,-40
1,24,134,196,199,117,-13,-103,-171,-29
46,59,130,144,140,72,-10,-51,-77,7
84,77,105,67,51,-1,-43,-25,-2,71
76,56,77,42,20,-24,-68,-40,44,100
44,-6,3,6,-13,-53,-50,-29,111,98
27,-96,-99,-101,-67,-36,11,36,188,136
-36,-129,-156,-162,-118,-15,83,171,280,91
-16,-59,-69,-102,-99,-22,73,141,205,16
113,14,10,-49,-124,-71,-13,15,9,-31
164,2,-48,-152,-222,-106,-19,49,-41,-10
57,-38,-89,-153,-187,-60,37,77,-3,12
-49,-48,-63,-44,-101,-40,-10,6,20,81
-7,20,-14,81,-12,-27,-74,-66,-8,110
82,3,-115,65,23,3,-68,-88,-60,77
228,-25,-154,-25,-26,-39,-91,-59,-71,85
256,-20,-77,-75,-97,-74,-109,46,23,93
185,39,13,-31,-56,-49,-93,18,1,20
21,-1,-3,-4,4,0,-24,-12,0,-87
-236,-118,-68,0,24,67,72,15,2,-254
-194,-139,-104,-10,-8,44,51,25,85,-81
53,-38,-127,-34,-33,-8,-16,15,196,220
82,-3,-16,-44,-28,-13,12,97,242,301
-105,-46,29,0,48,76,140,247,227,145
-111,96,94,31,56,90,160,236,95,-179
-57,96,44,16,35,100,157,187,65,-248
-21,-24,-31,-13,33,122,166,159,140,-24
47,-91,-21,-40,47,129,185,170,266,282
65,-99,16,-12,77,128,152,121,189,267
45,28,142,84,128,103,24,-70,-152,-34
137,274,235,96,64,-8,-106,-165,-358,-108
219,141,74,-30,-54,-78,-69,-3,-146,231
240,-35,-89,-152,-145,-133,-86,44,137,477
253,-36,-107,-177,-197,-202,-164,-10,370,546
182,107,-6,-100,-138,-192,-201,-76,414,367
70,166,82,1,-17,-79,-124,-40,344,72
31,37,8,-23,14,-11,-40,-24,236,95
-60,-114,-27,2,85,63,36,-41,-11,160
-99,-179,6,63,148,152,144,85,-124,245
13,71,146,121,168,151,112,40,-416,-12
61,219,158,90,122,64,-23,-153,-743,-369
-28,56,46,22,102,74,1,-163,-670,-408
-186,-84,-10,33,121,170,138,-10,-451,-409
-191,11,55,41,81,99,60,-60,-386,-390
-102,160,155,106,87,14,-72,-158,-345,-306
-34,119,126,106,66,7,-45,-22,-98,-167
43,26,27,0,-14,-51,-43,45,97,-101
-137,-67,-29,-35,-20,-46,-20,74,170,-247
-354,-70,12,-15,21,17,37,111,185,-474
-425,-20,62,34,76,50,100,102,163,-583
-503,-32,89,80,106,77,117,81,106,-578
-289,-12,56,48,61,5,55,23,82,-296
-11,-77,-80,-74,-34,-96,-41,37,207,255
96,-60,-115,-104,-56,-79,-55,83,384,462
142,6,-72,-72,-44,-67,-65,17,340,247
498,73,-96,-131,-153,-187,-268,-224,199,361
948,91,-178,-283,-337,-386,-496,-407,192,943
939,115,-172,-291,-342,-375,-455,-335,201,1048
472,110,-58,-128,-164,-194,-250,-149,-15,370
-253,-93,-37,-38,3,-17,-21,78,-225,-428
-644,-193,-39,16,81,99,127,170,-318,-794
-599,-187,-19,48,115,107,91,-29,-316,-820
-443,-215,-24,18,82,93,58,-140,-40,-534
-122,-221,-110,-111,-21,48,59,-143,203,48
40,-107,-72,-104,-19,82,95,-122,182,134
-69,-62,15,19,109,194,237,58,62,-151
-117,-144,65,80,147,236,377,423,-54,-231
-59,51,186,120,97,169,351,516,-251,-245
1,471,322,96,-48,-14,84,179,-270,-216
-119,360,257,94,-59,-23,22,117,84,-24
-385,140,193,193,48,103,131,212,263,-188
-190,60,98,137,0,-14,18,99,130,-64
91,-18,5,96,-24,-134,-125,-22,100,340
-12,-64,10,187,111,-79,-137,-55,22,149
52,-21,16,185,176,-17,-104,-68,-151,37
162,22,34,178,218,63,1,-31,-272,57
262,58,74,161,188,79,-5,-110,-284,200
341,70,86,108,138,82,-9,-73,-163,345
319,16,-21,-17,15,20,-30,-18,-128,266
-112,-155,-279,-151,-91,-3,12,33,-215,-174
-539,-241,-396,-144,-66,39,99,127,-247,-585
-367,-183,-366,-151,-90,-11,99,124,-228,-434
-47,-109,-308,-165,-152,-113,13,28,-94,-21
159,-53,-200,-207,-207,-187,-79,-45,98,384
282,67,-144,-169,-204,-166,-95,-5,333,640
185,-22,-177,-85,-67,-18,39,159,521,619
48,-200,-80,-16,57,122,173,260,524,501
69,-63,27,50,122,179,199,216,336,233
139,214,150,86,119,109,91,7,3,-207
47,81,72,9,53,28,-17,-150,-214,-383
-138,-3,3,-49,-8,-35,-80,-177,-204,-339
-248,43,20,-30,-33,-53,-124,-194,-198,-201
-35,55,-49,-67,-93,-120,-185,-189,-148,0
183,34,3,-54,-115,-146,-182,-188,-106,182
188,73,121,134,9,-34,-97,-159,-118,111
187,162,160,268,105,38,-14,-113,-113,-17
174,198,154,299,134,69,-2,-65,87,209
28,182,202,284,220,114,23,12,303,358
-256,12,143,104,120,49,32,43,325,273
-91,-88,61,-90,-110,-121,-72,-13,361,620
190,-71,-15,-281,-282,-256,-161,-79,359,834
126,-87,-205,-327,-256,-198,-100,-79,147,210
-526,-154,-200,-56,18,84,162,32,-207,-1035
-892,-132,18,161,264,298,364,148,-271,-1330
-614,-2,177,216,296,293,300,49,-314,-1017
-166,72,158,80,162,192,98,-162,-309,-606
14,58,24,-38,62,141,-40,-275,-230,-389
-32,-23,-21,-121,0,95,-76,-264,-155,-340
-18,-158,-136,-249,-109,-75,-149,-252,-133,-257
47,-159,-188,-294,-205,-232,-158,-121,-178,-239
86,-65,-108,-232,-239,-233,-30,67,-225,-164
118,2,-31,-177,-228,-186,63,143,-201,-36
116,88,114,-7,-60,-25,137,148,-151,98
109,135,200,89,53,100,206,100,-149,193
71,141,193,68,46,106,226,49,-106,143
94,57,98,9,15,49,182,69,81,244
168,-110,-141,-64,-16,17,121,128,263,496
153,-268,-298,-82,4,65,153,256,466,701
206,-241,-157,-31,72,106,153,287,578,765
313,37,56,30,95,71,10,150,484,702
267,227,167,61,50,-6,-118,52,370,602
296,262,187,46,-35,-104,-227,-70,272,633
217,150,92,16,-91,-138,-254,-181,102,499
85,37,-79,-39,-125,-149,-207,-219,-26,189
34,10,-30,-30,-101,-108,-147,-191,-37,-101
-28,76,115,73,6,20,-78,-155,19,-291
-40,107,145,91,75,133,-22,-135,62,-372
-64,-37,-31,-74,-54,90,-44,-115,-10,-272
-109,-86,-76,-102,-79,92,-11,-23,-171,-206
-250,-45,60,52,73,186,157,107,-193,-174
-428,-76,119,126,130,145,201,181,-17,-123
-423,-20,181,176,91,-35,3,-2,-49,-364
-164,85,167,168,34,-140,-142,-80,-26,-413
79,29,-15,3,-77,-185,-206,-30,186,-4
11,-21,-55,-18,-20,-41,-23,153,319,-29
-128,106,121,142,144,148,201,273,194,-522
56,223,200,158,102,52,79,175,173,-444
361,127,-24,-39,-115,-140,-10,284,388,288
537,-17,-228,-212,-209,-139,86,434,471,1081
710,-108,-371,-396,-387,-311,-116,176,541,1730
788,-201,-524,-593,-644,-568,-431,-118,692,1997
360,-312,-515,-550,-563,-452,-371,-101,765,1463
-142,-308,-304,-289,-265,-179,-152,-1,458,271
-505,-159,24,77,114,149,140,60,-408,-1284
-504,138,358,418,454,414,345,-43,-1364,-2016
-222,313,445,469,452,313,187,-332,-1784,-1919
82,273,356,371,319,205,6,-320,-1353,-1148
136,194,260,308,270,231,35,-165,-707,-511
45,155,148,282,252,245,79,-84,-388,-333
-233,145,198,338,305,258,126,-8,-263,-491
-432,19,194,261,234,144,91,-5,-229,-614
-62,-106,-40,-34,-46,-128,-89,-71,-103,-68
206,32,-4,-46,-64,-143,-134,-73,30,293
150,143,76,52,79,35,-44,-40,72,82
-102,45,9,75,146,194,62,51,198,1
-272,-48,-96,28,93,167,45,53,243,-155
-274,-173,-212,-91,-45,17,-67,-94,78,-310
-187,-258,-221,-150,-150,-151,-186,-226,5,-252
-68,-198,-106,-111,-196,-243,-213,-221,61,-158
24,-109,-65,-72,-191,-241,-135,-87,90,48
100,-93,-219,-119,-195,-207,-53,170,257,337
112,41,-74,-58,-128,-149,-15,219,196,282
76,146,142,82,-18,-77,-51,20,-113,70
-58,103,201,167,93,17,-21,2,-74,-20
-182,88,239,223,145,84,41,55,85,-124
-213,22,163,140,79,56,62,50,174,-172
-138,-257,-160,-106,-77,-1,94,97,253,54
-42,-538,-365,-201,-123,5,141,90,231,538
86,-538,-289,-150,-75,62,157,97,269,944
435,61,99,11,-56,-24,-11,-71,-10,791
536,442,262,43,-137,-186,-191,-271,-380,409
402,422,193,13,-129,-197,-193,-252,-211,407
347,250,24,-85,-140,-161,-157,-195,251,636
262,60,-84,-121,-83,-57,-50,-32,593,555
215,43,-60,-65,-60,-59,-75,61,633,489
227,34,-52,-35,-108,-122,-69,283,637,625
182,46,-18,30,-58,-54,59,440,355,424
-330,-27,34,165,135,172,226,338,-253,-647
-830,-155,37,195,279,317,281,100,-635,-1555
-721,-131,-14,80,232,257,202,-32,-574,-1436
-142,42,-24,-61,22,24,4,-119,-230,-640
304,166,11,-124,-91,-103,-112,-82,148,83
269,89,-52,-164,-92,-80,-28,81,367,336
136,11,-111,-132,-85,-18,92,139,87,-3
196,-1,-129,-116,-121,-72,-15,-182,-593,-421
32,-45,-74,-70,-54,-48,-67,-357,-867,-361
-4,-50,-100,-29,-2,6,-55,-289,-715,-136
-22,-26,-168,14,50,94,44,-119,-390,-172
-198,-88,-147,-31,48,201,195,118,-61,-227
-241,-78,8,11,70,244,273,198,105,32
-276,-53,189,198,176,275,276,104,19,144
-246,-34,247,160,103,203,171,-2,-83,5
-59,69,198,-10,-77,-9,-94,-193,-136,29
-129,29,19,-130,-115,-91,-214,-182,-19,-123
-116,-48,-116,-241,-226,-217,-253,-57,158,-206
69,-30,-145,-214,-262,-260,-215,2,52,-236
199,-18,-89,-25,-113,-244,-273,-64,-94,-124
49,-98,-107,103,8,-216,-289,-87,6,-71
-227,-73,83,308,242,-47,-129,-62,-23,-398
-226,-32,199,318,281,-23,-83,-90,-77,-422
171,30,78,113,117,-90,-96,-24,201,298
583,116,33,-39,-65,-148,-85,172,610,1096
551,83,-11,-44,-60,-84,-1,316,910,1273
363,20,-19,-3,38,32,99,393,1119,1310
56,-38,68,94,181,198,252,475,1041,1036
-234,14,143,165,255,230,229,225,198,-9
-247,68,126,85,144,54,-39,-266,-631,-650
-175,34,24,-10,57,-45,-210,-417,-503,-579
54,51,-44,-32,16,-74,-236,-341,-110,-117
267,-43,-88,-96,-78,-115,-182,-259,-23,318
349,-302,-312,-272,-208,-132,-70,-15,49,626
467,-62,-228,-258,-229,-118,-24,86,120,644
411,328,24,-119,-164,-104,-47,-4,143,547
-68,189,111,59,11,97,136,140,384,519
-471,-7,113,187,156,263,301,184,320,42
-678,-124,44,136,113,259,298,-17,-262,-1199
-590,-192,16,85,100,199,230,-191,-660,-1470
-518,-136,47,71,93,139,149,-233,-864,-1302
-413,-15,165,130,138,135,106,-103,-975,-1188
-162,64,235,234,224,101,4,-82,-990,-837
63,72,144,125,111,-30,-155,-186,-852,-570
167,117,119,59,24,-105,-193,-167,-497,-326
108,72,71,7,-41,-128,-170,-53,-107,-73
-36,-109,-119,-160,-145,-153,-142,29,151,111
33,-118,-166,-232,-203,-165,-150,26,209,249
212,-51,-183,-247,-219,-149,-98,84,309,421
182,-114,-269,-290,-220,-113,-7,213,560,560
92,-66,-163,-216,-143,-56,22,208,602,558
-105,-26,-14,-59,-12,29,39,119,347,182
-144,-40,28,1,21,17,8,12,102,11
142,-21,17,13,-8,-23,-24,-32,0,422
244,-45,3,11,-25,-20,-32,-46,-12,656
244,-29,-38,-46,-81,-59,-48,-41,136,799
75,106,81,84,40,18,-13,-90,77,583
-288,86,187,184,134,82,21,-95,-37,31
-276,79,209,167,138,100,71,-8,93,-203
-240,157,259,282,257,234,211,47,153,-379
-406,108,227,348,286,251,224,85,253,-542
-253,-49,60,111,58,80,80,149,545,-44
-23,-217,-215,-187,-179,-28,90,317,636,578
-126,-282,-184,-117,-79,46,172,366,388,421
181,-72,14,49,46,23,69,220,91,370
681,351,172,97,5,-120,-150,-35,-217,322
678,415,91,12,-45,-162,-227,-145,-336,44
322,71,-161,-132,-103,-153,-165,-112,-403,-234
-48,-194,-269,-169,-122,-102,-87,-97,-572,-401
-159,-190,-132,-65,-37,-61,-73,-218,-709,-559
118,25,-52,-128,-128,-194,-219,-298,-510,-299
238,162,-16,-166,-134,-175,-198,-200,-260,-159
-97,54,-36,-148,-38,-30,-31,-63,-197,-501
-386,-101,-104,-147,-70,-24,-55,-69,-197,-700
-353,-143,-109,-38,-92,-54,-115,-119,-165,-545
76,-118,-159,-80,-196,-152,-185,-159,-105,23
309,-129,-227,-166,-205,-183,-189,-113,3,339
-31,-83,-38,36,92,17,-42,-73,-56,-12
-461,-36,91,117,223,174,155,84,109,-367
-467,-65,-5,-6,120,204,351,344,551,-158
-389,7,146,162,274,349,507,416,592,-116
-255,33,237,202,264,321,472,428,460,76
-147,-63,68,127,149,204,343,313,212,296
69,1,-18,9,1,90,148,46,25,456
180,88,59,-109,-155,-32,-72,-94,122,616
251,132,103,-71,-113,-8,-58,52,423,705
410,225,218,100,61,42,-59,92,558,836
511,334,304,232,186,-8,-152,71,447,875
469,339,271,247,233,1,-127,102,213,592
127,219,187,217,229,64,-55,-39,-233,-251
-81,-6,-56,-7,18,-55,-144,-296,-750,-797
-58,-185,-322,-352,-319,-242,-249,-334,-733,-669
-90,-288,-482,-584,-509,-317,-173,-50,-190,-349
-60,-329,-480,-566,-482,-310,-127,116,163,-75
32,-274,-359,-318,-260,-224,-130,130,282,107
-2,-199,-219,-150,-80,-108,-73,127,242,181
-78,-126,-96,-46,40,22,-12,45,14,-62
-80,34,11,79,131,115,10,-106,-255,-467
1,138,24,159,151,170,10,-135,-202,-338
-107,150,38,280,304,358,185,29,61,30
-149,132,125,281,360,426,331,193,222,269
131,142,164,175,259,299,218,97,70,425
252,145,202,187,169,123,57,-61,-127,337
179,20,59,65,-11,-40,-7,-77,-188,-44
28,-68,-76,27,-117,-186,-136,-240,-371,-461
-101,28,46,98,-151,-336,-326,-457,-491,-525
-99,15,41,35,-124,-276,-305,-399,-223,-240
-121,-17,-53,56,19,-27,-70,-110,244,-75
-219,22,82,156,202,222,206,180,489,-220
-271,65,201,230,293,325,329,280,507,-296
-123,133,274,235,243,290,297,217,333,-288
147,81,163,128,106,161,169,78,-150,-201
649,-140,-291,-261,-255,-215,-166,-242,-518,290
911,-93,-378,-498,-499,-427,-345,-328,-306,646
602,35,-197,-417,-426,-343,-242,-100,195,862
-39,19,-9,-167,-198,-145,-72,117,583,652
-762,26,165,89,65,120,144,177,556,-213
-1182,-127,153,184,205,250,213,24,291,-1134
-550,-142,20,38,75,65,-14,-214,72,-818
168,-24,-58,-109,-88,-75,-49,105,52,0
302,119,12,-39,-20,26,182,394,-459,-96
300,156,-19,-33,12,87,230,219,-865,-172
183,58,-20,-111,-38,51,125,96,-523,67
136,-66,-99,-199,-185,-145,-88,24,12,396
137,-122,-109,-201,-257,-331,-237,34,609,663
168,-113,-80,-154,-222,-308,-226,111,1051,937
253,-129,-106,-175,-247,-282,-191,135,1217,1310
131,-41,-28,-55,-138,-122,-43,142,952,1029
-275,68,183,189,155,253,298,293,342,83
-279,104,292,346,343,388,347,222,-275,-333
-64,95,176,334,303,262,137,0,-645,-278
-117,36,116,248,195,135,0,-137,-872,-551
-150,-82,100,203,192,110,-36,-208,-1051,-758
10,153,200,284,234,114,-99,-371,-1161,-849
87,352,228,326,179,26,-192,-496,-987,-710
-47,201,210,371,165,29,-110,-282,-392,-214
-189,-97,-27,236,76,15,5,-24,200,280
-185,-355,-262,16,-50,-10,83,143,499,521
-235,-291,-150,-29,-21,60,152,207,388,275
-182,78,116,-3,3,55,11,-114,-222,-139
15,270,113,-63,-63,-35,-127,-415,-752,-785
143,152,6,-193,-127,-97,-149,-374,-697,-1076
200,24,-175,-303,-162,-137,-155,-265,-371,-555
354,-20,-221,-303,-219,-220,-183,-140,-44,158
439,24,-131,-152,-189,-243,-216,-39,64,411
94,18,24,21,-22,-36,12,137,177,242
-379,-59,41,-56,-48,116,257,314,322,-8
-443,-131,-182,-299,-259,23,230,342,439,128
-197,-96,-149,-208,-203,21,206,291,581,522
116,-78,-35,-58,-69,20,155,220,703,1044
397,-93,-72,-8,39,44,110,202,745,1182
557,-81,-132,31,128,66,41,93,408,657
383,31,11,129,174,37,-104,-208,-264,-318
24,47,64,-11,15,-68,-166,-324,-558,-987
-220,-113,-223,-344,-230,-149,-127,-157,-175,-717
13,-67,-378,-428,-326,-187,-132,-99,190,88
433,99,-279,-239,-266,-193,-162,-80,303,609
397,180,-73,113,-2,-44,-49,102,304,569
23,176,243,433,328,191,120,124,45,109
-447,20,278,505,461,307,246,96,-226,-546
-892,-155,201,456,466,270,176,-114,-580,-1092
-542,-63,168,205,181,-35,-87,-301,-420,-713
228,82,89,-191,-251,-324,-227,-179,194,325
452,59,-58,-317,-327,-336,-188,16,580,874
227,-23,-65,-189,-108,-158,-30,231,644,768
-178,-122,54,-42,117,80,200,342,238,82
-175,-104,178,143,230,181,200,86,-353,-267
132,92,372,400,214,129,40,-191,-580,-179
334,146,328,483,51,-82,-177,-329,-489,158
121,-23,177,511,23,-130,-206,-307,-418,-17
-211,-182,24,430,100,-92,-149,-231,-388,-429
-601,-266,-41,337,205,99,42,0,-218,-492
-371,-55,250,389,308,286,165,-79,-523,-700
277,78,141,-41,195,387,263,22,-274,2
569,146,100,-459,25,420,359,201,53,386
494,80,26,-636,-212,208,242,247,298,396
-271,-17,53,-367,-136,71,167,229,274,-303
-923,-72,173,-2,190,74,91,94,85,-724
-994,-174,38,41,251,10,32,-7,-48,-615
-530,-230,-302,-230,-21,-130,-29,-49,-62,-198
-35,-300,-497,-438,-234,-206,-96,1,73,169
67,-359,-412,-410,-231,-171,-69,109,411,315
168,-141,-162,-306,-235,-240,-139,114,645,514
263,349,164,-149,-199,-293,-308,-35,568,522
126,259,136,-115,-117,-149,-176,131,593,452
-160,81,76,-40,50,102,131,279,440,194
-240,81,82,93,186,229,230,140,155,-12
0,45,-34,44,82,90,129,134,242,225
332,45,-185,-86,-67,12,142,301,369,672
533,81,-238,-149,-168,-7,163,371,528,1022
369,36,-205,-126,-147,33,281,550,747,889
-37,-21,0,-44,3,168,373,506,372,147
-188,58,162,10,59,152,212,30,-466,-678
69,216,132,-20,35,59,-8,-372,-1090,-760
187,195,52,-10,55,66,-42,-392,-1041,-353
193,131,60,24,12,-1,-85,-357,-488,144
120,68,15,-2,-67,-65,-87,-181,242,299
-82,24,57,107,42,-3,-56,-25,631,137
-173,15,82,170,97,48,35,250,691,-65
-269,78,150,290,180,121,162,402,103,-578
-185,240,376,433,255,63,-31,-136,-901,-827
117,211,155,256,43,-177,-354,-535,-1121,-487
617,-17,-268,-222,-354,-454,-521,-424,-435,531
1025,-188,-475,-579,-612,-598,-546,-117,541,1810
1063,-211,-554,-717,-657,-604,-457,111,1137,2379
660,-181,-469,-578,-475,-344,-143,411,1429,2326
209,-51,-218,-166,-44,123,326,675,1344,1554
-56,-18,-62,248,345,478,552,511,411,-20
-128,-13,34,335,376,465,428,113,-517,-1024
-198,130,89,152,189,349,316,-27,-755,-1394
-520,112,28,36,73,240,190,-168,-932,-1971
-557,113,198,141,103,58,-85,-416,-1023,-1947
-597,98,283,280,211,1,-230,-466,-808,-1735
-606,-52,116,173,147,-43,-173,-259,-532,-1332
-359,-167,-98,-122,-103,-207,-194,-139,-300,-473
-128,-132,-100,-192,-186,-227,-197,-108,-172,-26
66,0,27,-47,-79,-116,-158,-135,-321,-11
98,72,115,94,85,25,-100,-205,-483,-64
-23,70,-5,70,111,111,21,-135,-403,-154
-306,-13,-84,94,170,208,148,-30,-224,-269
-320,-160,-191,82,177,222,207,87,24,-102
134,-249,-300,-85,-36,26,82,159,442,592
477,-142,-204,-205,-271,-227,-169,58,822,1081
616,0,-138,-315,-399,-349,-229,53,1193,1280
313,10,-171,-390,-414,-266,-29,313,1574,1138
-459,42,266,104,49,78,129,246,987,-10
-637,156,580,492,421,319,162,37,-88,-1117
-25,296,535,410,350,215,-13,-244,-1002,-1166
60,277,407,354,336,215,-20,-334,-1294,-931
-287,83,260,292,255,135,-65,-302,-829,-559
160,34,42,76,-38,-163,-287,-200,-114,434
513,185,81,133,-26,-153,-272,-113,-5,574
288,237,212,334,102,-1,-64,-25,-224,54
166,63,44,141,-110,-126,-64,-22,-206,-107
11,-103,-148,-161,-295,-239,-67,40,-106,-252
-358,-187,-327,-293,-197,-125,58,114,-155,-441
-135,-83,-306,-376,-165,-131,11,2,-105,-174
374,29,-221,-394,-200,-153,-31,-45,56,110
495,81,-85,-227,-48,56,98,33,155,80
554,187,68,-54,62,183,163,149,324,545
369,163,7,-9,41,136,113,164,275,599
-606,-131,-34,53,132,198,156,122,-120,-576
-1192,-287,25,135,232,260,187,-8,-531,-1296
-753,-184,35,101,166,130,12,-201,-386,-443
-70,-78,-26,-37,-85,-147,-231,-156,247,673
328,-40,-51,-29,-200,-271,-259,77,653,1164
426,-28,-25,55,-102,-184,-146,96,470,1025
280,-135,-139,6,-33,-89,-63,46,221,619
82,-191,-130,127,153,104,106,60,-125,235
-112,44,102,366,337,251,209,80,-452,-377
-391,236,258,445,387,257,187,22,-552,-920
-607,-3,117,233,247,163,107,-117,-529,-1023
-559,-70,71,79,149,118,69,-175,-557,-1116
-361,2,235,166,73,-17,-67,-214,-442,-870
-85,-12,216,67,-72,-139,-137,-108,-7,-46
-103,-87,120,-74,-89,-68,-31,12,139,127
-48,0,13,-216,-215,-145,-103,-81,-75,-266
162,-26,-247,-459,-444,-322,-229,-151,-139,-233
220,-63,-222,-297,-290,-245,-223,-122,-71,-79
161,-10,-41,-52,-10,-18,-62,13,60,54
190,106,77,55,59,64,58,120,143,47
121,137,218,212,28,32,96,197,299,83
-27,108,346,460,131,75,145,127,191,26
-285,22,431,739,319,219,217,64,-23,-108
-332,-96,285,700,339,242,208,128,86,124
-320,-230,-109,333,171,163,171,139,82,-2
-94,-196,-444,-189,-95,61,134,174,137,-161
874,238,-258,-454,-229,53,111,296,713,945
847,157,-266,-446,-286,-11,90,388,963,1147
344,-60,-278,-450,-294,-103,9,292,755,660
-198,-3,15,-73,69,0,-55,-7,164,-135
-538,104,313,233,409,227,40,-191,-470,-724
-464,37,208,144,314,185,-18,-387,-855,-869
-38,59,-24,-41,69,-28,-195,-508,-556,-320
204,-39,-259,-196,-130,-144,-205,-292,-35,279
230,-210,-348,-232,-164,-102,-61,-25,210,623
396,-54,-171,-180,-155,-123,-64,38,159,655
354,163,-13,-124,-109,-83,0,128,-21,454
99,152,57,-17,-51,-42,43,57,-193,143
-48,-57,-23,105,-46,-62,-9,33,-24,88
70,-115,-90,116,-66,-115,-67,92,218,159
112,28,-2,147,4,-66,-55,52,149,-105
-157,-100,-69,151,90,104,95,144,99,-340
-345,-240,-102,119,139,212,208,192,63,-251
-23,-20,111,164,181,228,178,113,25,144
401,271,306,72,91,149,129,75,100,499
584,449,429,-75,14,137,158,149,336,735
403,396,405,-16,17,88,117,205,575,871
-229,128,188,28,62,54,86,233,664,525
-658,-113,101,125,125,58,77,204,549,155
-476,-251,-121,-55,-57,-60,18,135,348,-59
-230,-287,-402,-330,-309,-175,-43,69,144,-340
-54,-135,-460,-437,-390,-234,-114,-67,-256,-846
170,49,-204,-272,-252,-219,-215,-393,-915,-1030
335,-14,-286,-361,-284,-248,-267,-535,-1052,-554
408,30,-263,-293,-203,-229,-275,-436,-739,-155
266,146,15,14,110,-63,-187,-307,-505,-6
-62,120,190,218,311,92,-83,-259,-202,238
-359,57,273,300,355,159,7,-150,65,332
-284,23,240,226,282,164,47,-7,258,331
-148,-67,27,49,107,94,54,73,545,379
-384,-217,-133,-20,102,164,209,274,825,212
-270,-165,-78,-31,137,196,240,284,590,-114
274,60,-44,-178,-28,3,66,166,177,-86
703,198,-111,-357,-259,-234,-150,-68,-236,253
481,9,-260,-430,-357,-285,-151,-130,-370,169
325,-208,-394,-490,-410,-287,-147,-42,-207,99
713,-172,-340,-385,-388,-284,-178,40,128,570
869,-107,-188,-224,-284,-182,-105,51,301,877
577,-67,-39,-52,-100,-29,7,12,337,647
-4,74,183,180,106,83,34,-92,8,-88
-549,76,301,308,210,128,7,-137,-280,-606
-530,57,281,348,257,146,7,-177,-354,-795
-444,-36,86,276,225,149,27,-210,-68,-579
-675,-179,-9,160,157,113,5,-212,276,-651
-880,-222,35,180,172,145,85,31,454,-872
-630,-152,51,170,157,203,250,436,290,-720
-260,1,182,229,188,296,381,479,-481,-513
97,168,307,221,103,141,174,-1,-974,-207
215,-37,-51,-239,-351,-270,-132,-50,-171,371
168,-346,-390,-464,-494,-352,-166,200,645,850
-90,-523,-348,-219,-167,-55,58,505,920,809
-291,-125,54,214,191,217,209,449,368,32
-259,382,376,578,350,233,63,-140,-742,-825
69,252,164,445,206,25,-221,-562,-1284,-696
239,113,-41,79,-12,-96,-280,-520,-1072,-368
199,77,-69,-102,-99,-127,-245,-402,-593,-36
93,16,-43,-133,-138,-151,-201,-237,-122,119
61,2,-84,-214,-160,-87,-73,-25,135,96
100,30,-93,-174,-28,61,68,166,184,184
101,27,-37,-53,110,151,155,199,92,249
-9,-37,24,5,111,149,138,48,-67,70
-126,-49,169,149,164,91,40,-88,7,-31
63,96,263,183,136,34,19,13,311,168
164,180,255,122,53,17,58,195,416,291
641,239,170,16,-50,-61,24,285,509,1007
998,218,-15,-128,-194,-208,-129,151,470,1652
510,142,34,-39,-117,-159,-154,28,263,1302
-31,99,165,110,6,-60,-110,-28,96,438
-544,-84,15,51,8,0,-32,-39,-107,-598
-709,-312,-140,139,53,24,6,-36,-197,-1129
-750,-439,-20,497,243,100,40,-76,-275,-1153
-431,-303,104,485,177,16,-66,-293,-515,-778
-47,-73,154,401,125,-24,-111,-398,-695,-379
251,-23,-31,80,-67,-25,-123,-327,-613,-37
428,233,3,-160,-297,-162,-259,-403,-568,-48
139,162,27,-214,-198,-79,-131,-226,-356,-351
-212,71,-15,-189,22,33,17,-87,-173,-585
-364,1,6,-9,162,18,11,-87,-45,-570
-287,-129,-24,99,101,-14,47,43,249,-231
-28,-168,36,21,-11,-66,39,111,471,33
555,-164,-154,-333,-260,-232,-137,84,680,540
934,65,-304,-622,-532,-477,-388,-71,559,714
513,301,-132,-451,-420,-447,-377,-109,216,150
-63,179,-88,-224,-140,-119,-41,86,186,17
-323,74,-38,-87,62,150,161,71,433,414
-235,142,120,71,220,318,290,80,524,504
-218,38,34,3,102,286,416,449,711,418
-110,-138,-259,-315,-285,35,389,635,506,457
485,-71,-251,-289,-409,-267,20,325,-18,866
1280,131,-120,-157,-439,-549,-397,62,98,1846
1410,86,-184,-41,-361,-572,-486,-10,466,2262
752,-6,-40,241,-34,-327,-356,-63,407,1559
-346,-17,293,533,392,144,9,-38,-142,-204
-1344,35,523,594,738,664,486,52,-754,-1999
-1305,52,415,373,654,709,578,124,-668,-1942
-782,-72,215,243,438,527,453,138,-370,-1140
-424,-103,142,145,283,365,337,120,-278,-902
-462,-74,40,-117,114,261,273,126,-357,-1177
-654,-65,42,-111,112,252,208,-2,-581,-1493
-722,-114,37,-10,143,195,108,-205,-856,-1596
-505,-97,62,30,151,176,136,-146,-736,-1193
-107,73,226,122,205,165,66,-148,-559,-517
121,170,355,236,251,142,-30,-178,-375,-141
38,21,241,175,190,138,18,-63,-109,15
-137,-98,89,108,138,110,20,-44,62,5
-178,-61,-57,-31,-34,-40,-82,-59,217,-82
75,12,-153,-210,-205,-210,-219,-85,332,113
276,43,-218,-231,-190,-284,-336,-190,216,220
309,17,-236,-249,-217,-228,-245,-56,228,345
265,-45,-272,-297,-270,-187,-84,116,389,557
200,-190,-359,-442,-376,-244,-61,174,472,619
177,-289,-463,-578,-442,-254,-64,177,543,642
201,-203,-348,-428,-287,-141,-24,149,660,649
156,-18,-135,-181,-124,-8,31,177,562,392
65,30,-75,-87,-72,2,24,233,544,379
235,36,-64,-99,-98,-41,3,242,682,983
227,-40,3,-16,1,45,83,198,630,1057
26,-82,-26,4,-10,51,121,141,614,435
-315,72,103,100,67,174,279,256,547,-333
-367,146,169,141,92,220,310,261,117,-553
213,214,25,5,-85,2,74,101,-433,-39
443,289,162,116,32,19,9,-79,-885,22
410,194,132,126,101,31,-87,-308,-887,13
230,-8,-27,45,73,-19,-178,-293,-325,322
-4,-15,36,136,79,-61,-249,-263,-40,245
76,-7,-84,4,-141,-229,-338,-248,-123,-11
12,-61,-225,-33,-124,-150,-212,-229,-381,-414
-82,-105,-242,-53,-47,-30,-85,-233,-575,-830
-68,-44,-123,-39,-41,2,-39,-248,-618,-803
-70,49,19,-58,-114,-15,1,-185,-458,-313
-71,140,230,20,-98,-46,-49,-230,-471,-163
-108,124,240,82,13,50,-2,-157,-380,-219
-120,92,204,138,126,152,96,-3,-199,-243
-245,51,232,272,295,279,169,137,48,-269
-296,22,208,299,321,279,130,150,194,-166
-109,-6,53,55,86,117,9,72,259,178
90,-145,-314,-302,-169,-10,15,159,581,778
117,-164,-386,-257,-67,17,21,180,749,989
165,110,24,200,233,71,-94,10,635,981
5,151,133,308,317,200,6,100,468,544
-179,-114,-90,34,131,251,147,190,76,-361
-177,-325,-192,-83,31,162,92,53,-214,-828
152,-222,-204,-99,-85,-115,-164,-125,-159,-509
489,101,-189,-168,-259,-407,-396,-229,-26,3
404,111,-250,-134,-235,-398,-317,-178,32,230
37,71,10,118,16,-168,-123,-133,-164,-120
-169,76,213,194,81,-65,-43,-97,-214,-356
163,20,58,-79,-169,-146,-49,54,107,114
324,-50,-126,-216,-297,-181,-40,142,247,421
83,-159,-146,-137,-232,-140,-8,54,53,331
-15,-122,-77,-72,-64,-63,-38,-82,-122,347
-100,109,135,109,176,75,-32,-239,-243,109
-200,253,368,300,355,196,37,-285,-137,-105
-191,162,313,272,315,211,129,-86,218,-23
-116,-136,-74,-18,9,49,157,252,654,299
-219,-157,-143,-23,-22,29,180,416,602,246
-236,75,160,148,121,92,151,168,-93,-238
-31,96,188,69,28,-48,-72,-222,-544,-330
46,11,-10,-36,-87,-192,-209,-287,-593,-344
183,-3,-229,-48,-65,-138,-136,-193,-511,-176
62,-117,-326,-25,68,22,11,-83,-451,-116
96,-143,-202,-69,-4,-35,-23,-60,-277,87
270,105,72,-97,-232,-274,-219,-148,-142,303
216,198,184,0,-246,-290,-202,-61,10,191
105,40,31,2,-151,-148,-17,135,90,34
-4,-47,-25,-84,-79,-28,107,222,71,-59
85,13,2,-98,17,92,183,204,125,263
-39,55,81,-17,154,267,353,198,34,105
-303,41,158,60,242,409,481,192,-173,-531
-424,-86,157,108,229,370,407,112,-182,-548
-329,-228,56,95,188,244,272,35,-84,-111
-53,-170,-106,0,76,74,158,18,60,214
-56,-105,-180,50,-1,-20,74,76,212,85
38,-71,-20,161,59,24,136,146,323,315
1121,150,-48,-152,-194,-200,-199,-50,288,1140
977,200,-7,-81,-147,-177,-198,47,219,722
152,139,128,241,136,-2,-128,-9,-87,-130
-301,42,130,223,129,-27,-186,-205,-315,-391
-571,-77,-17,-66,-94,-168,-266,-256,-314,-670
-723,-265,-285,-304,-281,-248,-244,-139,-120,-751
-439,-211,-253,-314,-268,-189,-133,-8,30,-456
-365,-139,-39,-123,-102,-116,-110,-40,-32,-380
-398,-127,19,13,-21,-91,-140,-98,-65,-260
-194,128,182,201,95,-2,-66,-67,51,-4
24,246,313,323,218,142,83,54,196,208
80,91,187,232,198,206,202,161,268,316
61,0,97,144,144,119,162,91,193,272
101,14,32,6,41,18,89,34,209,346
-299,-54,29,-39,26,93,196,154,199,-90
-471,-128,-7,-163,25,142,249,212,174,-242
171,-86,-194,-397,-224,-92,44,135,438,554
707,-2,-240,-426,-367,-280,-156,120,868,1232
557,-52,-204,-274,-288,-237,-124,199,1020,1021
187,-188,-257,-216,-235,-166,-64,196,769,467
51,-126,-127,-103,-110,-61,-60,51,167,-313
161,-34,-27,-83,-72,-19,-42,-106,-622,-907
264,43,102,-3,1,31,-16,-258,-1161,-905
312,158,261,225,141,142,28,-345,-1165,-531
-19,106,208,303,192,215,102,-269,-768,-227
-498,-104,-73,200,140,161,99,-121,-54,-218
-677,-292,-183,102,129,84,13,-16,675,5
-428,-260,-145,26,156,60,-17,106,997,252
-28,-8,47,58,121,0,-18,291,844,319
465,338,342,124,136,8,28,258,196,474
586,619,535,199,230,107,97,-15,-681,243
-4,554,568,330,346,240,170,-139,-993,-283
-230,319,372,253,257,154,59,-185,-717,-197
48,99,37,31,37,-68,-143,-267,-384,301
74,-79,-93,-75,-80,-210,-311,-320,-208,278
-293,-328,-164,-125,-117,-175,-199,-108,74,-181
-516,-319,-141,-75,-44,-37,-2,162,401,-387
-384,-68,-110,-116,-80,-38,30,251,459,-432
-44,0,-199,-234,-199,-139,-42,179,205,-370
250,136,-52,-150,-141,-80,-26,29,-108,-280
166,116,37,-68,-41,44,108,142,71,41
-169,-19,36,38,25,76,159,220,168,103
-509,-90,89,269,192,173,183,99,-183,-328
-341,-21,69,369,292,237,191,-35,-393,-216
95,20,-49,195,142,98,87,-134,-439,170
45,-44,-90,60,55,19,-18,-247,-675,-307
5,-11,87,178,53,-49,-183,-421,-797,-492
85,22,62,236,39,-94,-239,-380,-442,-214
-54,-154,-301,26,5,18,-34,-44,61,-80
-177,-304,-542,-163,-87,72,90,162,336,-11
-47,-280,-492,-342,-187,-24,42,199,462,228
63,-138,-184,-265,-147,-60,0,144,384,254
70,36,196,-135,-100,-17,-4,31,159,46
301,142,108,-313,-275,-95,-42,-26,138,209
356,25,-172,-466,-365,-162,-85,5,312,361
439,-20,-110,-329,-195,-142,-158,-36,363,469
689,100,-26,-181,-124,-213,-268,-64,275,488
667,89,-68,-132,-151,-245,-243,-24,105,309
429,148,24,1,-57,-139,-107,55,14,241
-172,32,101,58,65,44,81,180,53,-41
-307,-154,8,-13,32,51,74,208,372,149
270,-127,-91,-109,-116,-139,-145,105,680,725
534,96,-58,-129,-177,-206,-203,41,634,849
184,231,120,-12,-78,-109,-107,-39,152,361
-692,-5,167,226,231,245,262,143,-125,-145
-962,57,364,484,568,563,528,213,-361,-514
-592,185,419,463,567,583,453,49,-571,-634
-427,73,223,228,306,392,265,-61,-502,-628
-531,24,198,216,249,333,243,-47,-375,-904
-694,28,258,284,246,264,141,-177,-665,-1461
-498,-110,52,70,22,24,-40,-342,-907,-1412
-95,-233,-129,-158,-202,-161,-142,-335,-663,-641
209,-6,10,-108,-198,-276,-296,-433,-504,-189
453,263,61,-21,-126,-298,-399,-478,-405,-12
318,7,-138,-85,-68,-176,-242,-161,-29,169
142,-146,-245,-199,-124,-123,-107,125,250,260
132,-145,-174,-119,-150,-125,-74,103,272,360
579,-134,-290,-269,-346,-272,-127,79,543,1021
747,-131,-343,-376,-458,-401,-206,59,803,1386
380,-171,-331,-383,-437,-408,-216,73,986,1044
-78,-224,-357,-371,-325,-240,-61,283,1260,530
52,-74,-167,-187,-112,-5,75,358,1136,332
150,171,148,52,167,223,205,340,611,-216
-15,205,291,196,308,352,356,400,36,-442
60,155,168,159,193,227,244,192,-420,-89
152,22,-40,65,54,75,0,-109,-529,164
598,45,-96,-20,-52,-12,-175,-258,-420,715
349,41,-87,-42,8,82,-93,-148,-258,662
-313,-64,-4,85,196,229,86,-115,-512,-191
-640,-63,155,251,318,242,164,-195,-974,-1010
-451,-27,102,138,67,-11,36,-236,-883,-905
-270,-59,51,110,-100,-171,-47,-131,-443,-390
-235,-131,148,468,168,30,29,11,-84,14
-131,-235,45,712,360,169,65,54,38,189
227,-138,5,684,287,37,-97,-129,-53,357
743,-5,117,428,44,-160,-231,-242,-58,591
1065,75,168,67,-262,-283,-215,-80,180,578
461,57,97,-197,-325,-256,-135,-12,153,-117
-636,-113,-128,-405,-330,-208,-76,13,111,-801
-1045,-164,-273,-459,-175,16,129,222,357,-624
-666,47,-117,-309,22,194,245,212,203,-420
-276,183,83,-161,123,209,157,17,-204,-573
-137,167,8,-61,146,185,89,1,-274,-607
-143,123,-32,-21,25,-6,-77,-12,-170,-493
-141,36,30,37,19,-71,-117,26,47,-190
-235,-3,107,173,187,92,28,149,235,-66
-338,-16,24,121,186,163,148,236,296,-116
-94,-6,43,21,102,89,29,7,-3,-161
562,119,46,-37,-89,-192,-313,-400,-262,269
966,142,-2,-212,-301,-344,-427,-461,-59,841
662,-60,-53,-285,-236,-174,-177,-145,331,933
437,-82,-90,-301,-222,-116,-51,41,701,890
573,75,-131,-321,-343,-243,-178,-45,848,976
377,56,-143,-238,-282,-218,-87,80,786,392
272,192,91,109,-24,-62,102,266,490,-77
80,234,224,340,161,85,251,385,119,-119
-441,-18,136,230,116,94,212,93,-271,-28
-847,-260,-122,-36,-33,52,100,-263,-377,-367
-662,-426,-447,-369,-209,-42,34,-227,-80,-398
219,-288,-436,-544,-385,-174,28,228,439,462
1310,142,-183,-493,-401,-167,183,731,567,1428
1434,380,37,-301,-256,-142,168,552,216,1581
256,266,225,123,121,66,172,207,-200,467
-842,187,336,525,448,335,268,-11,-681,-863
-1040,205,425,566,479,386,259,-242,-1163,-1368
-776,65,247,261,246,216,134,-312,-1125,-1166
-630,-170,-13,93,159,161,123,-94,-563,-713
-656,-356,-65,125,253,225,163,99,-150,-589
-571,-393,-84,189,342,298,198,187,75,-497
-164,-271,-69,142,206,144,39,39,130,-207
311,-6,-52,-23,-46,-107,-156,-156,97,145
166,132,-44,-57,-51,-99,-121,-186,42,-26
-134,30,-62,-33,8,16,-28,-154,-7,-68
23,-69,-23,-86,-90,-43,-70,-123,86,332
497,116,103,-53,-151,-137,-186,-166,157,698
697,186,162,-97,-170,-125,-112,110,498,904
607,160,96,-119,-132,1,63,407,635,858
420,139,100,4,23,136,114,271,159,304
64,91,99,79,90,126,4,69,-42,-143
-327,-24,-19,51,70,92,-30,-20,-197,-393
-441,-108,-101,66,109,141,54,-69,-476,-573
117,95,17,98,102,55,-64,-242,-736,-600
919,348,158,7,-73,-189,-332,-450,-683,-90
1372,457,230,-65,-191,-298,-457,-476,-361,490
588,204,160,-26,-116,-186,-307,-241,47,407
-565,-140,38,-15,-56,-85,-132,-7,346,109
-741,-217,-53,-95,-81,-53,-24,158,350,-159
-391,-95,-40,-70,-11,53,114,258,286,-68
-269,-63,14,64,126,181,241,334,297,195
-336,-159,-21,113,202,210,244,214,-10,-182
-175,-123,-63,81,111,72,67,-115,-578,-918
29,-126,-147,-25,-36,-82,-88,-231,-571,-793
-325,-340,-233,-133,-88,-84,-60,-95,-252,-639
-540,-300,-229,-136,-23,29,19,37,-127,-841
-589,-68,-32,-68,7,81,74,82,-76,-870
-613,-29,73,35,82,137,120,113,31,-577
-450,12,143,153,168,141,62,27,26,-355
-184,-66,-27,-59,-25,-31,-60,-27,129,138
183,-129,-212,-256,-217,-182,-145,-5,319,731
413,-40,-174,-212,-198,-179,-136,48,435,858
500,76,-66,-144,-163,-124,-70,155,542,756
310,91,36,-47,-54,4,91,300,542,524
-115,10,154,159,199,181,231,273,344,224
-365,-139,131,237,298,231,229,81,101,76
-165,-192,2,244,222,107,95,-116,38,239
195,-44,-61,227,90,-36,-58,-245,17,223
234,-43,-107,172,-7,-56,-4,-102,14,-118
102,-185,-73,196,30,-37,63,123,-69,-269
-121,-79,107,259,122,32,81,60,-358,-498
-220,251,254,212,115,61,64,-78,-564,-794
-65,253,102,-41,-53,35,62,-38,-414,-510
-42,57,-26,-214,-87,133,109,42,-127,-76
-26,-112,-43,-115,144,319,163,117,141,185
-91,-99,-2,-20,244,324,134,118,170,236
0,-8,-12,-44,161,112,-63,-47,108,486
251,15,18,35,26,-191,-276,-165,184,744
433,-93,-96,-70,-120,-337,-225,29,533,979
545,-223,-312,-348,-271,-315,-80,252,930,1414
386,-61,-270,-413,-340,-297,9,250,918,1394
-235,44,-25,-160,-145,-168,81,118,400,416
-716,-8,115,41,77,-21,117,-34,-236,-896
-602,77,235,192,224,88,103,-169,-517,-1472
137,196,152,106,92,-31,-36,-236,-258,-822
590,189,1,48,-49,-129,-83,-43,105,-105
550,186,-23,114,-80,-162,-88,117,172,167
-78,156,55,177,-45,-57,53,150,-234,-260
-782,-20,200,245,93,109,229,105,-692,-826
-287,48,286,100,-9,-74,-58,-173,-704,-511
74,84,150,18,-25,-167,-250,-303,-568,-214
-54,-6,11,43,56,-75,-170,-273,-369,-58
-76,-59,-22,76,120,18,-47,-170,-235,-22
-95,-5,32,120,164,89,63,-98,-367,-443
-99,109,184,287,218,115,63,-102,-382,-473
-7,135,321,420,214,70,5,-157,-228,-70
-48,64,244,251,129,53,-30,-215,-132,-50
-32,7,54,-59,19,112,35,-97,73,40
106,0,-168,-322,-128,81,70,16,193,185
298,-58,-410,-577,-311,-98,-58,28,213,392
477,-114,-463,-494,-248,-197,-197,18,250,644
319,-95,-338,-292,-91,-81,-99,97,257,489
-225,-181,-343,-329,-154,-49,26,197,241,129
-287,-195,-212,-282,-200,-149,-59,125,203,249
52,-48,99,4,-67,-169,-175,-26,184,590
118,11,198,152,25,-109,-111,9,256,597
-142,-89,82,154,89,30,112,208,286,210
-192,-90,-116,134,103,117,227,223,90,-383
139,-76,-248,-37,-58,-44,79,46,-17,-235
436,-19,-149,-174,-199,-180,-62,-68,170,477
359,108,33,-133,-125,-93,12,3,513,783
415,208,131,-95,-92,-27,63,108,929,1078
427,217,77,-62,-84,-14,71,203,1276,1216
180,153,55,37,9,64,148,341,1261,1019
58,119,164,125,137,207,209,317,566,364
294,252,279,211,211,184,32,-61,-360,-246
433,312,289,186,171,56,-228,-406,-901,-565
144,98,89,21,43,-62,-317,-454,-778,-638
-423,-208,-133,-118,-72,-143,-307,-379,-242,-604
-672,-291,-104,-65,-66,-108,-235,-282,33,-626
-588,-100,87,73,-18,-70,-144,-101,40,-705
-408,79,262,212,115,91,111,377,104,-541
-321,186,364,346,300,309,314,451,-406,-605
-353,229,335,406,385,358,297,32,-1192,-1115
-47,207,174,262,218,155,42,-338,-1466,-1210
523,34,-124,-148,-182,-236,-294,-475,-1057,-348
951,-84,-382,-457,-459,-462,-422,-364,-392,606
903,-193,-509,-552,-513,-440,-333,-134,112,1023
335,-387,-518,-474,-370,-232,-79,157,431,815
-191,-324,-365,-290,-200,-82,59,213,329,199
-49,-230,-273,-197,-150,-76,22,125,313,293
487,-196,-208,-143,-100,-43,51,173,587,807
877,340,121,1,-65,-67,-52,2,437,718
406,537,348,152,14,-17,-52,-81,236,266
-858,105,262,237,194,222,217,72,44,-495
-1816,-270,171,352,412,478,429,62,-350,-1350
-1522,-326,117,349,432,479,420,10,-491,-1368
-860,-212,34,174,226,251,267,-2,-398,-995
-220,101,79,22,-18,-26,28,-42,-11,-365
95,126,49,-56,-110,-89,13,123,463,229
96,18,18,-9,-41,-12,52,182,513,471
169,45,69,86,47,20,1,109,333,551
339,51,15,-47,-60,-25,-8,157,221,885
223,-68,-163,-221,-126,47,122,219,28,844
130,-117,-309,-379,-259,9,157,200,-133,170
-77,-71,-231,-245,-177,29,132,65,-438,-837
-280,47,86,244,229,149,24,-207,-694,-1232
-100,205,187,442,377,86,-153,-397,-629,-640
-7,185,229,414,288,-51,-258,-376,-399,-106
-83,139,324,332,189,11,-54,-4,-123,-145
25,246,465,325,172,76,34,77,-110,-214
13,207,326,172,122,56,-13,-44,-102,-208
-193,-28,0,-24,35,35,-40,-94,-48,-403
-286,-188,-189,-135,-65,-28,-63,-79,23,-444
-123,-159,-240,-152,-130,-97,-97,-73,132,-256
142,-98,-229,-176,-173,-162,-141,-89,209,44
453,-81,-222,-236,-216,-202,-130,9,239,415
829,-10,-275,-277,-280,-270,-171,51,285,768
915,58,-260,-243,-268,-268,-194,57,287,951
483,20,-92,-164,-184,-188,-125,104,222,794
-205,-49,85,0,-23,-45,-8,54,-21,222
-241,-62,126,95,137,108,65,-19,-176,330
-63,-66,63,48,142,141,91,-11,-47,568
-222,-119,50,48,132,180,152,99,215,306
-582,-236,90,208,236,242,226,201,322,-170
-465,-16,246,469,292,181,112,83,173,-198
70,191,227,499,200,64,-24,-11,104,184
174,63,136,433,181,90,4,26,11,328
96,-57,-58,23,6,-9,-64,-95,-133,214
-169,-105,-208,-285,-100,-18,4,-50,-104,-120
-386,-78,-78,-262,-55,89,127,88,-110,-493
-289,-46,-2,-240,-67,114,132,90,-245,-532
-89,-1,-87,-199,-151,-8,38,-19,-329,-512
-134,-29,-90,-154,-196,-101,-30,-99,-306,-725
-188,-94,-124,-203,-256,-189,-98,-108,-200,-723
-254,-162,-161,-238,-248,-196,-93,-30,-57,-571
-105,-91,-131,-248,-215,-160,-69,44,137,-239
168,-7,-130,-280,-237,-140,-54,155,305,158
258,55,-52,-129,-50,-22,-21,126,193,153
265,53,-46,12,134,48,-28,-2,43,255
286,47,-38,105,154,81,6,-79,-47,446
7,92,223,375,308,165,42,-139,-319,-166
-259,53,343,417,291,78,-38,-213,-417,-545
-212,-4,167,149,147,66,1,-124,-172,-267
-119,1,103,144,156,152,57,-47,82,-122
41,50,55,115,65,124,76,11,302,26
309,38,-92,-117,-126,69,153,195,620,366
475,-22,-93,-5,15,81,67,192,639,525
136,-243,-119,145,202,138,52,203,379,356
-266,-203,-50,24,86,60,2,182,111,151
-46,230,228,11,-4,-79,-134,56,-28,320
69,287,228,-22,-74,-189,-229,-36,55,554
156,18,-18,-171,-146,-185,-176,29,324,794
237,-174,-157,-185,-61,15,24,200,494,883
236,-51,-130,-96,82,242,179,224,235,410
29,118,-11,44,163,372,200,20,-328,-380
-303,32,25,111,184,333,115,-169,-732,-1014
-196,-6,18,66,24,31,-62,-252,-663,-925
175,35,78,88,-161,-344,-231,-267,-358,-312
140,-12,132,299,-148,-450,-286,-257,-220,-185
-46,-1,301,601,0,-391,-272,-265,-251,-241
-177,2,333,534,91,-254,-216,-258,-267,-179
-112,-46,48,80,-3,-142,-111,-157,-193,-76
36,-20,16,-153,-124,-145,-92,-104,-134,-18
130,17,56,-197,-113,-94,-52,-70,-117,-34
340,10,-160,-396,-107,-1,67,78,70,108
250,-59,-335,-312,-18,100,168,191,222,143
24,54,-111,84,160,168,157,182,218,31
166,158,-50,5,66,75,71,174,298,244
173,-32,-262,-355,-164,-99,-23,174,447,681
37,-132,-194,-352,-209,-122,-32,187,547,874
307,-132,-196,-414,-282,-145,-29,225,610,1072
699,-74,-286,-569,-359,-216,-115,129,470,997
293,112,-137,-411,-236,-166,-148,-42,171,109
-278,232,116,-76,25,19,-60,-113,-51,-613
-293,235,298,161,227,178,34,-155,-203,-622
-89,371,447,298,312,220,18,-268,-391,-315
70,388,397,272,275,164,-1,-235,-369,55
322,86,0,-3,27,0,-70,-108,-40,705
556,-68,-206,-222,-163,-146,-136,6,394,1217
444,-21,-192,-256,-220,-178,-90,176,704,1128
-53,-11,-111,-151,-146,-63,71,304,563,185
-585,14,62,42,57,139,225,220,-72,-1174
-372,-15,-31,-39,13,93,182,126,-400,-1361
157,9,-193,-178,-164,-66,83,60,-286,-592
231,35,-100,-128,-164,-105,34,-10,-254,-282
-114,8,18,90,19,19,108,7,-328,-376
-748,-115,85,261,244,254,291,120,-370,-791
-947,-233,-7,176,251,292,328,109,-360,-979
-382,-172,-114,-17,71,117,161,-66,-318,-721
275,-42,-104,-107,-68,-76,-91,-278,-138,-121
527,84,36,-82,-97,-125,-198,-328,87,381
149,32,62,-37,-54,-81,-141,-158,299,449
-138,21,60,11,13,-10,-58,38,394,394
-284,84,153,103,99,115,73,236,370,182
-535,-69,83,123,151,198,218,350,352,61
-454,-203,-46,107,122,185,216,359,380,260
-308,-161,-10,185,146,186,177,277,312,147
-84,-58,49,194,92,64,-8,-7,103,-49
123,-34,-27,-47,-133,-191,-284,-262,88,-206
99,-62,-115,-207,-200,-206,-270,-202,338,-260
39,-112,-145,-166,-82,-29,-32,-13,321,-123
56,25,12,-4,75,131,154,116,40,20
150,131,44,71,88,124,193,-66,-697,89
108,9,-165,-51,-48,17,103,-111,-538,-20
167,16,-136,-76,-66,3,72,-96,-342,-85
107,18,-36,-69,-70,13,84,23,-188,-307
-228,-58,-2,-7,12,103,236,300,38,-287
-175,-12,56,46,82,132,270,321,5,69
101,107,131,103,95,35,50,11,-198,252
271,179,162,127,101,-20,-84,-149,-179,501
209,144,125,100,77,-13,-74,-173,-195,352
53,29,22,41,37,-21,-42,-155,-199,-20
-71,-158,-146,18,33,-31,-86,-169,-153,-216
-139,-294,-163,66,83,33,-37,-127,27,-240
-14,-209,-181,-3,2,-32,-52,-71,169,-145
242,160,-77,-96,-157,-184,-181,-95,120,-63
270,195,-42,-134,-188,-220,-192,-7,235,259
-4,2,33,-41,-66,-72,-52,74,243,375
5,13,89,4,-21,-49,-88,-89,35,306
96,79,106,-42,-143,-197,-268,-260,-140,278
-146,89,193,127,50,-36,-144,-233,-332,-235
-364,166,335,302,241,163,52,-151,-433,-631
-221,87,180,92,55,47,50,-108,-194,-199
-19,-108,-149,-191,-182,-97,52,-19,153,136
99,-136,-210,-207,-203,-137,14,15,292,167
226,11,-5,-15,-84,-68,77,98,297,221
377,91,103,164,5,24,156,176,193,315
236,-9,72,239,88,113,202,172,-104,106
247,-40,9,91,16,47,132,52,-346,175
508,0,-127,-189,-134,-70,23,40,-126,719
418,-130,-181,-181,-98,-9,159,323,399,907
-33,20,48,102,86,118,223,337,466,344
-593,131,77,169,110,120,110,116,132,-462
-785,27,-68,-16,-28,48,26,-9,-157,-930
-416,-46,-121,-103,-38,11,-6,-37,-239,-799
-213,-62,-79,-45,42,70,22,-39,-231,-435
-167,-17,65,135,199,158,30,-103,-307,-248
-227,37,249,332,380,200,-30,-241,-492,-494
-191,-4,193,315,350,200,0,-184,-381,-466
3,-156,-114,45,52,35,-78,-130,-110,-73
171,-252,-277,-293,-258,-211,-271,-213,1,80
216,-177,-133,-245,-272,-265,-338,-247,74,81
277,-22,11,-45,-273,-365,-424,-293,162,155
101,31,46,161,-135,-306,-301,-161,223,96
-268,-3,134,354,117,-27,35,104,180,-191
-243,51,192,394,225,103,178,183,-15,-248
15,-13,-5,121,121,65,121,61,-175,15
198,-51,-44,-96,36,55,106,72,-68,286
356,58,50,-146,72,182,214,152,82,452
394,103,67,-175,104,239,311,263,271,515
124,1,60,-137,115,212,330,358,526,552
118,182,165,-100,43,94,168,255,580,691
574,383,168,-138,-84,-51,-60,102,537,1027
694,231,31,-170,-161,-86,-86,94,463,1134
37,-51,-158,-160,-154,-50,-44,27,29,196
-478,-213,-258,-228,-177,-65,-51,-65,-320,-700
-292,-192,-176,-305,-280,-142,-90,-26,-14,-444
-215,-180,-39,-115,-150,-67,-32,34,90,-295
-363,-154,115,155,48,31,-31,-33,-101,-473
-318,192,337,454,246,122,-113,-238,-444,-650
-292,146,275,524,353,224,-92,-338,-642,-565
-312,-178,-67,137,150,129,-48,-263,-485,-335
-248,-253,-193,-188,-31,19,0,-56,-87,-90
-204,-61,-94,-88,41,54,78,72,80,-131
-313,-87,-71,46,156,151,212,224,244,-89
-394,-296,-190,-20,167,194,323,395,452,155
-103,-138,-185,-48,58,31,191,344,374,297
344,262,-24,-78,-145,-209,-61,115,131,428
444,323,130,-56,-211,-264,-100,28,127,552
288,205,145,-16,-121,-170,-55,91,316,491
15,5,0,-44,-51,-48,53,213,463,359
-76,-110,-144,-95,-79,-41,39,162,258,74
239,24,-118,-125,-208,-219,-215,-148,-138,-2
568,113,-100,-182,-297,-355,-402,-376,-374,155
910,79,-244,-360,-434,-422,-435,-361,-250,620
1054,89,-307,-448,-502,-404,-388,-171,101,878
705,84,-169,-227,-262,-223,-247,-52,161,579
-13,-17,-59,2,8,20,-5,73,141,136
-574,-108,73,202,224,247,216,138,-21,-410
-792,-2,313,435,407,366,265,-23,-441,-1193
-465,112,340,397,356,257,94,-203,-494,-910
-21,161,235,230,177,101,-18,-152,-243,-172
63,124,151,135,100,45,10,6,-87,48
-140,28,78,111,90,25,65,101,-49,-129
-228,-44,29,52,37,-10,48,111,51,-267
-100,9,87,80,61,-1,-2,-8,61,-124
-108,52,169,179,135,50,-46,-131,86,-86
-400,-79,91,143,106,48,-9,-29,165,-413
-536,-117,53,119,75,11,-62,-111,-74,-618
-185,-53,31,120,72,21,-73,-195,-285,-455
158,5,4,74,54,51,15,-33,-305,-120
126,-51,-136,-52,-19,8,55,87,-190,59
-153,-173,-318,-178,-66,-11,47,42,-160,4
-428,-247,-193,-101,15,100,138,128,55,-74
-278,-286,-142,-61,10,83,88,109,230,164
108,-31,-63,-85,-100,-66,-78,-41,103,277
309,254,51,-66,-136,-138,-146,-66,-44,191
212,131,-11,-109,-140,-102,-70,107,-35,47
132,-3,-131,-167,-163,-95,-20,221,169,-23
79,-39,-120,-143,-111,-32,50,237,285,70
100,-41,-94,-104,-74,35,135,185,255,383
156,24,-14,-41,-57,30,144,113,184,455
191,116,70,15,-37,-6,61,-7,-125,192
150,141,113,75,24,38,45,-123,-452,-8
182,155,136,103,35,16,-11,-200,-469,48
94,106,84,110,45,-7,-64,-201,-335,-131
-123,47,11,131,86,44,9,-27,-120,-433
-91,81,61,88,83,82,96,149,113,-238
12,86,83,71,103,147,163,246,242,91
85,105,164,146,138,169,186,202,225,282
86,84,205,185,126,110,116,78,144,212
2,-55,26,81,32,14,-14,-34,-55,-177
-14,-74,-192,-83,-139,-166,-189,-98,6,176
-112,-46,-183,-149,-198,-222,-276,-134,183,381
-176,-111,-90,-191,-173,-169,-199,-80,271,-92
-514,-263,-136,-235,-107,-16,-1,63,93,-955
-691,-320,-137,-109,89,227,246,238,-49,-1215
-284,-56,63,124,235,266,225,153,-360,-942
245,195,170,149,160,78,-19,-151,-664,-358
364,215,99,27,-6,-96,-224,-390,-624,-85
215,114,-22,-58,-138,-161,-265,-360,-426,-125
168,40,-54,-111,-236,-176,-214,-219,-242,-21
38,-29,28,75,-103,-96,-160,-150,-140,-12
-79,-10,222,343,157,37,-96,-108,-92,-74
-277,7,243,380,336,208,33,-48,-112,-226
-291,5,148,245,346,231,75,-49,-176,-293
-31,-11,136,170,214,117,10,-66,-94,65
113,-241,-120,-87,-58,-45,-38,14,108,398
116,-407,-430,-372,-321,-185,-55,79,233,423
172,-116,-318,-213,-207,-175,-89,-1,160,308
182,52,-187,-50,-60,-116,-83,-25,129,217
98,2,-146,-12,1,-45,-5,-2,132,123
0,30,-41,67,84,25,60,-23,56,0
-183,0,7,19,74,60,106,-38,-6,-91
-51,50,72,-84,-38,-21,55,-36,39,94
117,136,185,-129,-106,-53,28,0,86,281
112,187,276,-82,-18,40,104,42,141,409
229,229,148,-127,-107,-74,-10,-10,240,678
289,148,-58,-237,-244,-151,-34,48,306,591
139,-5,-134,-328,-262,-105,96,188,347,196
24,-46,-71,-210,-138,-29,141,238,343,11
-72,-5,88,73,73,69,98,115,171,-99
-185,-49,140,195,128,41,-5,-30,-54,-336
-175,-101,109,215,109,1,-41,-26,-118,-340
-246,-92,143,310,178,23,-47,-64,-251,-399
-259,-68,126,263,167,3,-78,-134,-362,-406
-184,-105,-49,-37,18,-44,-66,-121,-351,-398
-69,-93,-147,-213,-93,-31,22,-7,-182,-333
62,8,-109,-236,-107,18,106,81,-9,-205
101,46,-116,-163,-77,20,134,71,72,-37
98,-11,-140,-110,-85,11,108,84,160,155
111,-36,-143,-37,-38,48,58,45,146,208
185,3,-81,165,56,118,42,-2,133,247
180,-8,20,446,147,131,1,-22,167,289
77,-52,142,577,198,52,-90,-115,126,242
-50,-103,39,228,85,-87,-174,-141,194,179
-308,-167,-136,-254,-88,-182,-177,-75,242,40
-359,-126,-121,-322,-102,-116,-52,46,311,57
-211,15,5,-118,16,15,79,184,318,110
91,175,176,-103,56,110,168,226,147,103
521,300,207,-171,1,113,198,228,78,379
738,298,119,-146,-50,45,93,39,-1,491
484,293,171,-7,-5,28,35,-121,-187,34
-46,198,151,-25,-32,-3,29,-72,-207,-344
-283,-14,-48,-142,-88,-38,49,58,-94,-148
-317,-119,-119,-60,60,130,123,100,-82,90
-258,-174,-98,30,175,286,167,128,33,161
-127,-243,-119,31,157,249,95,129,227,265
-171,-210,-46,99,149,147,25,41,201,-119
-125,77,84,87,62,-26,-85,-143,-20,-544
36,137,9,-108,-120,-161,-85,-106,-35,-291
128,-37,-147,-212,-212,-209,-28,19,-89,0
87,-46,-75,-94,-107,-133,-54,-80,-351,-136
27,-44,-23,-55,-33,-53,-36,-108,-427,-329
5,-21,18,-49,-26,-55,-46,-46,-244,-254
64,-7,-34,-70,-69,-136,-109,19,104,46
182,-9,-80,-87,-98,-135,-83,110,295,229
68,-78,-79,-84,-64,-38,24,245,378,213
1,-13,-32,-45,-29,4,33,208,159,50
76,51,-13,-37,-57,-25,-24,72,-141,-200
152,39,16,-15,-53,-47,-58,10,-71,-254
101,-10,54,67,10,-6,-80,-51,179,-46
-13,-119,40,127,89,58,-47,-36,414,170
-38,-267,-114,28,56,76,14,42,499,434
-125,-343,-199,-49,21,69,40,150,367,350
-284,-267,-28,114,217,212,172,272,46,-45
-71,284,319,283,284,203,107,105,-293,-205
18,630,544,412,326,202,36,-109,-554,-359
-165,408,470,419,372,260,80,-74,-530,-443
-237,126,302,314,269,184,80,21,-297,-317
-25,-109,-3,50,24,0,-38,-69,-244,-9
206,-134,-188,-161,-169,-163,-207,-236,-246,239
307,111,-44,-94,-220,-264,-331,-310,-298,127
311,230,19,-78,-245,-284,-342,-288,-348,-155
181,140,-28,-61,-142,-154,-213,-208,-254,-193
137,46,-89,-134,-131,-114,-126,-119,-93,-24
172,-36,-187,-254,-176,-103,-63,-4,131,190
159,-98,-197,-188,-104,-56,-3,54,189,253
155,-59,-106,14,83,20,32,9,-8,78
236,14,-65,85,126,11,-57,-90,-65,130
140,-86,-161,-10,76,-5,-120,-112,102,330
-170,-235,-322,-110,-18,-28,-109,-62,342,386
-69,-219,-298,-235,-168,-118,-118,25,667,755
435,-100,-232,-321,-299,-249,-178,125,946,1392
643,-32,-182,-295,-279,-195,-70,284,900,1398
555,122,-27,-164,-170,-33,79,258,547,884
121,189,147,70,45,125,125,64,191,51
-57,197,204,212,142,164,63,-126,-30,-698
278,175,97,140,48,46,-4,-92,-73,-527
420,15,-82,2,-99,-65,-45,52,-175,-192
346,10,-32,-61,-196,-127,-90,13,-366,91
-634,-4,120,114,-9,56,103,46,-522,-511
-1767,-220,34,343,272,323,341,140,-605,-1693
-1529,-258,-69,328,240,270,262,13,-596,-1807
-788,-167,-141,182,110,107,97,-151,-422,-1104
-197,-17,-34,50,66,44,41,-172,-246,-298
165,44,-10,-65,7,12,8,-53,18,467
74,14,39,-77,19,80,137,233,281,750
-4,126,213,82,163,193,259,215,229,647
-98,166,310,185,194,207,256,146,239,312
-101,70,221,103,95,137,211,199,289,91
-21,-41,23,3,69,104,172,152,-4,-376
-27,-128,-100,-36,10,1,41,-104,-556,-893
53,-85,-80,11,4,-61,-103,-300,-760,-680
94,-7,50,50,12,-81,-173,-319,-522,-188
-18,-91,-16,27,-33,-118,-171,-209,-253,-62
-219,-140,-97,75,5,-52,-65,-96,-213,-359
-446,-105,26,93,31,2,17,-70,-344,-859
-212,-35,79,-89,-120,-97,-84,-99,-293,-661
-79,-45,-75,-257,-192,-105,-100,-42,-132,-328
-71,-82,-115,-192,-94,4,-24,32,8,-142
15,-43,-79,-11,50,73,-4,19,28,-62
84,-50,-144,-3,89,107,50,80,84,46
103,-54,-113,-30,89,68,-9,24,88,95
165,98,82,-24,29,-44,-135,-123,7,57
124,131,126,-38,-25,-100,-160,-138,32,73
27,-11,81,19,-1,-58,-90,-44,126,128
-38,-153,52,176,30,-11,-17,89,228,175
24,-40,109,264,48,-22,-6,116,237,181
109,136,184,302,54,-32,-5,40,121,68
91,64,72,141,3,-19,95,37,75,-7
77,-48,-68,-63,-78,-30,144,46,92,113
323,-97,-156,-200,-149,-48,77,61,232,581
613,-142,-299,-406,-225,-58,58,161,492,1114
600,-113,-285,-444,-241,-61,36,229,585,1047
282,143,70,-71,-175,-157,-110,97,433,562
-254,76,247,250,-16,-52,-34,78,210,38
-496,-88,244,343,161,131,91,66,-107,-363
-286,21,39,95,76,67,-8,-88,-311,-423
17,71,-146,-137,-42,-16,-121,-224,-339,-166
202,48,-133,-35,53,51,-70,-208,-223,73
300,58,-43,-9,81,64,-29,-118,-14,291
310,77,0,-120,12,-10,-50,-66,110,419
202,58,-25,-160,3,-7,23,33,203,328
-130,104,-3,-30,94,94,178,154,168,-128
-186,165,82,130,165,159,184,170,78,-371
62,153,83,94,58,63,62,66,-15,-263
210,120,136,-13,-103,-87,-99,-110,-121,-119
198,45,92,-160,-205,-183,-211,-212,-86,4
156,-47,-70,-275,-207,-128,-156,-82,157,258
66,-193,-167,-208,-76,30,10,152,369,514
-113,-215,-106,0,77,105,55,201,359,644
-16,56,44,98,112,52,-57,-54,-32,520
-53,109,70,84,99,45,-72,-193,-288,95
-126,45,63,107,77,2,-110,-255,-382,-247
-154,12,84,162,76,-4,-101,-282,-459,-469
-215,-37,73,152,67,5,-19,-246,-507,-703
-210,-110,-8,63,19,-8,36,-148,-395,-620
-160,-144,-45,66,20,-45,43,-40,-190,-362
-91,-136,-89,134,78,7,58,8,-30,-164
-54,-117,-208,31,94,128,104,66,108,-93
-60,-101,-280,-76,86,158,127,118,171,-109
-71,-80,-176,18,93,81,76,110,131,-94
-15,4,68,4,21,-16,54,188,235,64
117,137,196,-168,-160,-127,72,338,403,268
221,159,97,-239,-289,-216,31,305,300,300
253,144,103,-192,-276,-243,-102,99,92,213
150,60,90,-170,-226,-194,-145,-19,5,161
66,6,36,-145,-124,-81,-70,-69,-72,133
95,37,57,-40,8,26,19,-120,-92,222
222,118,139,44,60,37,1,-163,18,466
243,107,129,33,10,0,-9,-91,178,493
358,65,84,-42,-52,-29,20,99,343,606
489,157,162,-16,-41,-36,12,151,251,609
297,230,336,238,134,65,57,94,-87,140
-161,162,339,418,295,153,132,15,-390,-493
-425,-21,94,334,253,86,67,-79,-370,-627
-266,-164,-148,22,60,-50,-49,-50,24,-282
181,-118,-237,-267,-111,-168,-126,-29,379,171
519,-21,-290,-356,-208,-214,-153,-30,517,439
399,-17,-203,-263,-179,-160,-110,18,490,482
-87,-79,-77,-101,-68,-48,0,75,251,238
-659,-143,18,38,52,90,118,89,-102,-432
-783,-141,77,158,142,142,98,-7,-231,-875
-463,-158,-12,122,42,55,17,44,95,-422
-233,-190,-127,-12,-93,-31,-12,167,441,125
-187,-172,-141,-58,-110,-42,41,354,558,200
-179,-159,-121,-83,11,53,155,386,150,42
-361,-194,-78,-29,165,155,141,31,-395,-307
-464,-262,-43,52,236,194,113,-124,-516,-550
35,-99,-69,13,84,26,-34,-287,-608,-335
264,-11,-175,-77,-91,-96,-55,-287,-519,-208
63,92,-73,-10,-58,5,146,-38,-423,-375
224,383,191,78,-61,-17,96,-132,-595,-312
459,306,334,159,8,-33,-28,-384,-634,141
634,141,321,84,47,-28,-107,-430,-243,750
819,89,146,-161,-60,-55,-101,-214,342,1190
681,228,42,-219,-101,-49,-19,127,753,1135
315,233,16,-73,-37,-22,16,291,829,861
179,115,54,84,39,-14,-4,260,736,639
8,15,58,140,61,-15,-63,76,494,178
-33,-120,-188,10,-14,-5,8,24,306,-110
-340,-333,-311,-57,22,146,235,312,336,-254
-546,-327,-128,73,234,388,508,626,135,-438
-302,-66,19,81,153,265,353,403,-499,-648
-85,209,119,-14,-84,-120,-143,-238,-1207,-955
139,294,102,-74,-205,-305,-353,-526,-1307,-780
177,202,-23,-128,-258,-300,-321,-485,-1001,-388
-114,-4,-109,-86,-133,-147,-129,-262,-590,-265
-361,-111,-73,60,93,71,68,-55,-261,-195
-312,-79,-89,17,106,124,121,58,-6,-40
-281,-38,-53,-10,103,161,167,144,136,-101
-271,0,62,56,90,131,123,150,166,-190
-172,-12,96,72,8,-25,-86,27,145,-37
-10,-28,32,3,-84,-143,-201,-17,216,197
147,11,-105,-37,-60,-110,-146,38,367,390
266,122,-20,-15,-18,-28,-44,105,474,522
82,165,133,91,88,119,102,164,440,283
-397,107,244,207,273,285,250,167,215,-467
-909,-2,322,317,412,406,353,189,9,-1198
-971,-194,184,221,327,353,325,253,79,-940
-307,-206,-89,-73,16,80,96,114,152,-44
104,-98,-178,-248,-215,-201,-153,-111,51,336
88,-25,-69,-92,-149,-202,-191,-114,15,206
-7,67,120,139,16,-149,-215,-240,-123,-194
33,-71,-12,62,-11,-182,-296,-322,-161,-206
242,-179,-215,-185,-193,-253,-310,-244,37,245
484,-66,-162,-209,-240,-258,-285,-83,176,593
801,-3,-175,-225,-298,-305,-296,-57,142,896
1100,64,-277,-248,-341,-322,-242,-16,185,1097
924,152,-229,-147,-230,-207,-124,44,85,713
291,121,-34,0,-60,-37,-14,43,-73,-34
-341,-42,-52,4,21,55,56,41,-86,-508
-284,-64,-39,-21,-10,0,-54,-123,-134,-349
135,109,102,28,-1,-35,-134,-295,-295,-262
152,172,159,79,58,15,-61,-208,-275,-426
-517,25,191,374,254,175,116,-58,-269,-748
-1027,-107,164,655,434,313,291,57,-327,-897
-886,-120,199,694,441,299,325,191,-202,-613
-613,-56,257,534,381,235,241,153,-210,-352
-435,-50,143,119,169,80,92,-79,-394,-428
-233,-127,-60,-307,-134,-84,-19,-154,-389,-366
-64,-133,-187,-456,-259,-98,11,-34,-186,-148
52,-83,-156,-327,-196,-54,49,54,28,79
142,13,-121,-105,-49,57,145,124,170,276
101,77,-176,60,144,224,286,206,256,372
-44,83,20,313,359,348,355,191,250,309
-191,46,279,418,288,205,140,23,135,157
-193,-128,232,289,-33,-122,-169,-188,-13,0
-210,-307,86,269,-105,-190,-265,-259,-104,-254
-271,-274,180,292,-61,-163,-276,-259,-115,-497
-159,-188,31,210,-82,-167,-212,-148,75,-277
30,-149,-174,156,-59,-211,-163,-56,244,49
116,-84,-126,146,45,-164,-98,42,252,183
319,-3,-180,-209,2,-57,33,138,279,564
590,29,-400,-747,-192,-32,73,156,471,1145
584,82,-355,-744,-266,-73,-8,147,607,1163
498,216,-34,-430,-149,-8,25,154,590,993
621,213,-36,-450,-183,-55,1,222,774,1266
641,109,-142,-495,-307,-176,-59,293,895,1367
270,162,63,-241,-164,-74,39,290,473,236
-325,227,285,90,118,228,306,349,55,-930
-413,124,125,47,100,283,330,346,34,-814
-28,59,-43,-147,-50,123,136,129,-134,-598
87,89,2,-32,87,167,96,-55,-519,-732
160,85,36,86,168,85,-64,-296,-750,-529
135,85,38,136,165,49,-120,-302,-557,-270
21,107,122,183,185,130,-55,-216,-403,-142
31,155,207,255,199,141,-49,-258,-440,-44
195,162,256,199,97,72,-62,-278,-509,-135
-23,-67,29,57,11,33,20,-144,-421,-400
-360,-344,-73,109,100,45,47,-89,-272,-499
-315,-285,29,191,150,-5,-37,-171,-255,-430
-12,116,84,39,-93,-248,-256,-257,-107,-237
165,213,9,-100,-237,-336,-304,-207,220,-23
78,48,-111,-163,-246,-271,-201,-109,353,35
58,-106,-205,-197,-300,-243,-115,-9,453,320
173,-159,-170,-174,-308,-213,-38,171,589,760
189,-137,-97,-152,-262,-157,32,284,508,863
70,-134,-71,-185,-168,-65,93,210,438,743
-311,-96,51,-49,64,120,143,64,469,274
-391,76,241,177,244,209,91,-178,408,-37
-120,162,212,113,157,85,-64,-300,547,204
22,95,76,-39,10,9,-17,100,925,520
162,37,-90,-98,-80,-1,135,422,557,341
489,-94,-281,-285,-247,-135,65,371,-127,75
1009,19,-193,-255,-227,-179,37,454,-247,413
1240,197,23,-41,-69,-139,-27,390,-296,807
819,364,292,207,151,-22,-96,39,-459,390
-220,206,251,179,130,13,-113,-77,-321,-338
-1014,-173,-8,25,73,88,36,78,4,-543
-1399,-293,9,136,217,300,251,123,-142,-760
-909,-115,111,193,201,240,153,-229,-743,-782
-160,-43,-10,1,-12,10,-65,-475,-1029,-557
-106,-192,-148,-89,-30,87,118,-190,-703,-521
-232,-240,-168,-99,-31,126,237,59,-410,-683
-154,4,-14,-30,-61,-4,102,46,-438,-729
-142,189,186,147,24,-27,-25,-68,-486,-601
-99,145,182,225,97,-9,-53,-34,-130,-58
44,33,-39,215,132,20,-60,9,245,520
209,-41,-155,163,189,113,32,97,402,809
285,-41,-6,146,195,172,128,207,457,914
-27,-224,89,129,168,182,172,274,418,559
-327,-465,-77,-33,87,118,135,193,267,-132
67,-29,-118,-218,-158,-165,-183,-154,-18,-346
446,348,-120,-345,-389,-424,-448,-336,-91,-153
365,109,-329,-367,-426,-454,-420,-236,-22,27
213,-2,-330,-252,-284,-323,-295,-150,-112,-30
109,15,-126,-154,-151,-172,-201,-114,-3,-15
-86,57,78,7,40,1,-121,-136,108,-254
-420,10,166,175,193,122,-17,-124,14,-603
-460,-92,81,231,166,80,-24,-32,74,-398
24,-107,-102,118,10,-53,-94,51,54,73
468,27,-180,16,-39,-60,-88,-55,-330,225
765,154,-234,-21,-17,-46,-110,-260,-587,345
935,231,-56,-10,-8,-57,-115,-280,-260,733
522,262,302,199,128,82,26,-120,149,762
35,231,413,276,186,184,140,13,308,522
-617,54,338,239,161,232,244,191,441,142
-1101,-113,286,244,222,311,390,391,488,-230
-902,-197,95,105,244,324,407,447,316,-480
-648,-329,-78,-33,175,260,303,372,-172,-948
-299,-274,-89,-81,28,57,83,61,-594,-900
161,95,35,-95,-107,-183,-176,-297,-669,-348
248,230,58,-73,-139,-242,-245,-307,-389,36
76,186,35,140,-1,-120,-171,-180,-197,-74
-162,10,32,309,106,-16,-86,-74,-208,-438
-308,-86,46,325,81,-11,-72,-33,-164,-568
-552,-146,63,221,75,24,-32,-7,-128,-542
-519,-245,-92,17,-10,-43,-108,-128,-237,-390
-300,-234,-186,-229,-170,-129,-188,-184,-248,-236
-242,-177,-111,-275,-258,-121,-113,-53,-78,-59
-57,-116,-117,-213,-180,-43,-44,8,-55,46
112,3,51,107,-2,-28,-106,-153,-169,107
154,24,100,368,92,-61,-206,-288,-204,209
93,-5,166,328,20,-87,-175,-268,-156,194
15,61,301,183,-57,-59,-53,-154,-77,162
-92,106,169,58,-24,14,58,-30,-48,-79
-118,99,17,-106,105,129,122,88,70,-213
-56,93,19,-119,190,222,156,191,275,-46
206,67,-138,-435,-81,90,185,334,553,369
411,-64,-458,-931,-449,-95,184,402,740,598
400,-176,-510,-822,-373,-91,154,274,740,773
422,-146,-340,-422,-180,-84,78,86,773,1074
462,-60,-181,-230,-144,-96,88,127,940,1405
739,-8,-265,-451,-370,-178,96,258,940,1647
749,41,-281,-512,-433,-179,90,327,595,1154
91,23,29,-10,45,131,202,157,-268,-300
-614,-115,254,435,508,429,274,-110,-876,-1558
-473,-70,229,376,389,233,0,-300,-638,-1248
-173,144,172,88,75,-31,-192,-214,-235,-545
-149,137,153,38,53,46,-29,140,131,81
-122,95,206,186,238,295,280,481,473,492
55,317,286,251,299,362,364,424,304,514
142,145,49,95,200,273,303,331,354,713
203,-58,-196,-109,36,148,232,322,414,657
168,13,-93,-58,0,-20,-4,11,-81,-45
189,100,79,82,-41,-292,-401,-430,-420,-418
92,93,134,137,-69,-331,-477,-579,-387,-623
-249,4,163,249,126,-62,-249,-472,-411,-986
-401,-20,232,289,244,127,-59,-265,-387,-949
-211,41,204,149,94,48,-44,-137,-354,-532
4,23,53,-43,-126,-114,-97,-64,-335,-181
126,-8,-40,-81,-164,-198,-212,-215,-294,-77
206,72,11,-26,-86,-185,-218,-341,-257,-137
356,106,11,-33,-83,-157,-116,-156,-29,184
238,-22,-49,-12,-19,-14,77,186,89,327
411,-84,-195,-85,-51,-7,128,325,36,564
881,48,-317,-371,-368,-340,-267,-45,151,980
480,-80,-306,-265,-315,-262,-184,103,359,757
-299,-175,-210,-24,-110,-55,3,185,203,-179
-812,-158,-72,132,62,136,165,194,-129,-1089
-524,-40,-9,-1,8,129,161,87,-337,-1039
-214,64,34,-134,-66,83,128,8,-318,-569
-94,175,200,2,58,187,175,23,-210,-415
-212,217,289,142,205,281,218,8,-163,-546
-279,138,240,212,204,191,83,-137,-244,-431
-382,-18,154,210,111,70,-2,-109,-189,-212
-472,-147,110,223,106,43,11,-27,-145,-149
-194,-167,97,370,204,29,-78,-140,-208,58
81,63,86,344,169,-73,-261,-321,-246,207
1,143,103,268,177,-69,-275,-322,-92,238
21,71,-4,83,101,-58,-208,-153,328,462
58,-60,-170,-207,-49,-91,-160,-42,780,654
59,-156,-217,-376,-221,-183,-220,-147,1160,828
38,-213,-296,-421,-339,-289,-334,-265,1466,1035
9,-335,-491,-563,-539,-458,-394,-140,1724,1208
-16,-466,-683,-702,-655,-419,-128,399,1628,867
48,-282,-480,-473,-385,-69,360,864,767,236
201,89,-96,-22,58,300,661,900,-285,-62
425,258,124,237,318,429,639,735,-734,314
584,196,226,261,361,342,438,374,-888,564
587,224,227,192,233,91,48,-131,-952,212
361,379,227,146,75,-139,-235,-449,-1033,-556
6,278,48,104,-18,-160,-228,-409,-810,-951
-255,128,-36,118,21,2,-13,-190,-514,-969
-343,70,115,108,72,163,208,35,-299,-795
-195,119,315,124,65,169,189,64,-296,-591
-16,208,348,240,177,180,108,-25,-444,-361
-250,157,233,285,249,223,65,-174,-666,-585
-477,-10,29,95,159,163,0,-195,-610,-799
-204,-42,-51,-160,-81,33,-32,-104,-289,-353
58,46,-18,-219,-225,-63,-35,8,30,95
-60,123,278,207,88,-6,-79,-51,71,17
-281,121,342,417,263,-41,-218,-275,-51,-211
-314,3,148,269,172,-123,-328,-445,-67,-284
-161,-72,0,69,59,-102,-226,-312,223,-146
128,-60,-85,-34,21,-85,-120,-135,457,206
477,-45,-161,-172,-114,-187,-170,12,503,642
623,-1,-200,-238,-226,-234,-168,56,320,844
249,-137,-276,-294,-293,-245,-120,-13,50,590
-196,-417,-383,-322,-240,-141,-21,4,75,396
-135,-449,-353,-208,-99,-16,63,-8,181,518
254,-292,-256,-78,-24,-9,40,-19,225,659
279,-271,-294,-65,-48,-9,96,308,507,505
349,113,-112,-96,-176,-109,81,521,792,551
514,317,82,19,-163,-132,11,402,844,848
-82,149,209,167,-21,-11,73,405,849,330
-909,36,420,344,262,239,269,282,46,-1179
-974,106,532,413,504,379,214,-244,-1058,-1921
-552,33,239,167,321,179,-17,-415,-1159,-1303
-327,-184,-156,-98,76,-3,-73,-169,-756,-500
-7,-160,-288,-189,-12,-19,-36,-103,-532,63
147,-75,-239,-113,-41,-38,-18,-135,-378,168
57,-115,-152,-31,-74,-76,2,-88,-257,74
46,-1,49,68,-51,-64,18,-80,-231,-154
-34,30,187,199,108,109,146,-38,-459,-550
43,113,235,174,178,233,224,-34,-541,-521
239,242,111,-55,27,159,194,29,-262,-186
192,124,-86,-187,-111,35,149,70,-49,-44
11,-43,-63,71,0,20,110,38,21,69
-104,-120,78,367,107,14,42,-33,33,137
-184,-91,181,539,174,0,-56,-94,-7,-108
-192,-42,218,420,161,7,-110,-69,134,-167
-167,-51,218,140,-11,-6,-22,112,472,76
-46,-45,73,-166,-230,-79,82,353,822,494
265,103,36,-373,-284,-145,-14,269,723,598
744,173,-40,-457,-294,-256,-303,-86,301,656
719,-2,-245,-448,-324,-337,-438,-235,166,702
314,-144,-316,-340,-233,-235,-307,-128,267,528
120,-156,-191,-145,-128,-103,-147,-11,298,485
-41,-180,-71,63,-40,-66,-124,-13,242,420
-207,-199,-12,111,-11,-59,-104,-8,130,92
-304,-160,65,217,176,138,80,87,67,-39
-189,-93,65,162,187,185,119,82,64,220
-304,-26,117,115,138,153,83,-5,-152,-123
-577,72,342,308,331,265,151,-107,-551,-1125
-280,98,289,252,350,304,180,-99,-433,-1049
60,-56,-81,-40,108,150,95,-42,-42,-439
32,91,-75,-81,-78,-9,-2,-49,65,-305
-164,256,178,-64,-104,-10,73,82,77,-353
-108,278,308,13,14,73,136,166,-10,-36
139,312,353,229,204,143,51,-61,-397,75
275,148,114,149,143,51,-108,-304,-649,-153
230,-28,-165,-134,-63,-82,-176,-320,-569,-347
-12,-139,-274,-318,-135,-77,-96,-162,-329,-287
-240,-272,-303,-295,-35,-13,-38,-25,-80,-91
-101,-291,-251,-141,79,44,-6,59,163,265
43,-141,-158,-12,129,80,48,185,410,504
238,61,-172,-169,-51,-67,-30,230,680,777
127,-61,-322,-320,-206,-117,-9,299,727,649
-210,-192,-253,-264,-160,47,158,305,387,126
-157,-123,-166,-405,-316,27,160,143,-90,-258
15,109,-58,-321,-304,-28,47,-70,-376,-528
41,276,241,168,169,192,107,-57,-256,-450
-138,301,410,501,534,421,273,152,79,-145
-106,154,279,460,515,372,287,250,374,366
420,64,86,179,154,-12,3,95,603,1011
870,56,-35,-112,-223,-401,-350,-132,628,1380
629,73,-25,-185,-281,-379,-347,-81,470,1208
26,-23,-86,-146,-146,-146,-74,48,34,313
-176,-58,-180,-136,-104,-112,-56,-151,-477,-573
15,105,-43,-64,-103,-133,-149,-292,-499,-517
-20,177,231,126,28,-36,-43,-52,-28,-108
-251,139,353,260,156,109,166,278,237,-77
-202,-79,103,97,62,131,228,344,145,-138
44,-316,-275,-158,-119,-22,55,50,-226,-165
177,-180,-179,-52,-54,-50,-35,-141,-382,-238
279,37,-37,-10,-143,-187,-208,-227,-252,29
82,64,-17,-2,-149,-238,-280,-276,-298,-26
113,82,-59,-132,-215,-295,-347,-380,-336,-134
325,-36,-289,-388,-390,-352,-331,-249,26,267
213,-106,-319,-385,-348,-198,-90,63,240,189
-258,-84,-117,-178,-108,36,149,263,119,-414
-618,-36,39,83,136,191,243,291,-7,-660
-474,-7,-6,226,258,273,257,237,-61,-509
-318,5,-101,177,228,244,234,157,-134,-603
-374,-32,-54,169,209,170,132,40,-91,-556
-477,-55,181,269,227,63,-40,-126,-29,-345
-308,46,362,244,180,16,-125,-213,102,149
141,109,213,-7,11,-14,-120,-143,527,934
386,121,61,-125,-61,10,-17,18,1019,1460
358,69,45,-127,-55,57,132,245,1244,1449
305,-2,11,-67,-31,83,177,365,969,662
220,-25,-19,1,-6,56,161,377,101,-601
174,78,24,37,-20,24,105,142,-865,-977
-109,91,46,-7,-93,-7,15,-181,-1191,-954
-244,-21,-77,-215,-291,-177,-184,-419,-900,-858
-98,-194,-281,-381,-424,-276,-222,-150,-189,-333
113,-227,-288,-268,-273,-173,-86,143,240,391
548,192,-22,-10,-68,-123,-140,-45,41,816
981,302,39,-5,-92,-220,-253,-317,-80,1034
1011,142,-60,-91,-105,-179,-170,-250,-150,711
139,95,125,229,275,189,188,-43,-556,-492
-630,56,212,364,388,237,220,-57,-683,-929
-432,91,197,280,253,94,70,-21,-338,-305
-151,129,118,236,182,41,60,109,-39,186
12,92,67,285,150,16,0,19,-160,320
30,-15,92,389,257,137,91,-2,-206,463
-173,-255,86,395,367,290,256,123,-14,319
-366,-124,161,213,249,197,141,-17,-179,-393
-484,206,253,-14,23,48,-14,-157,-304,-960
-705,36,149,-51,37,168,142,-11,-221,-1136
-575,-188,-82,-225,-71,136,150,-54,-239,-810
-208,-321,-270,-340,-178,-29,-55,-205,-98,-58
-150,-411,-210,-129,24,98,34,-36,249,306
-218,-166,39,109,205,193,144,153,491,295
-84,431,357,234,152,15,-45,-58,248,11
-143,353,372,221,118,-16,-84,-55,174,-149
-180,192,354,254,189,104,46,40,120,-168
-47,113,198,172,130,112,109,141,84,-96
43,-26,-86,22,45,36,43,121,46,55
201,10,-112,4,47,14,-23,-86,-126,235
404,69,-161,-130,-140,-133,-162,-286,-147,283
649,-49,-381,-522,-555,-384,-300,-284,133,394
1337,-164,-604,-879,-939,-688,-445,-163,494,1023
1668,-262,-667,-837,-833,-654,-422,18,848,1432
1378,-147,-557,-720,-632,-434,-223,313,1058,1370
71,79,-251,-512,-381,-87,135,578,669,322
-1746,-69,81,-6,73,234,318,373,-237,-1320
-1745,-73,332,424,385,287,170,-97,-887,-1704
-804,105,425,535,476,294,70,-327,-1018,-1270
-436,122,405,585,542,323,91,-317,-928,-866
-342,10,219,460,443,315,156,-191,-673,-453
-134,12,76,386,321,220,115,-132,-359,-80
46,8,-2,344,231,135,93,26,-28,113
-143,-127,-94,213,156,146,154,190,61,-22
-161,-266,-274,-154,-69,23,83,237,287,118
158,-233,-358,-384,-286,-155,-66,248,672,619
397,-124,-234,-377,-412,-335,-215,120,673,948
393,-29,-58,-209,-301,-327,-252,3,516,1059
242,71,94,-5,-13,-32,-37,-16,202,627
-200,164,260,247,336,374,318,57,-194,-301
-565,202,392,445,515,514,372,20,-433,-1097
-293,146,272,327,315,288,133,-163,-495,-1062
38,19,72,143,107,91,-41,-186,-251,-348
99,48,112,248,150,88,-23,-69,-35,56
25,26,-7,194,35,-12,-35,-35,-57,288
-261,-200,-116,307,57,-96,-109,-130,-154,156
-453,-361,-58,673,280,-37,-133,-234,-274,-136
-143,-190,78,815,343,6,-161,-347,-479,-190
198,-7,2,495,288,23,-156,-404,-613,-205
264,-24,-244,-82,112,0,-133,-325,-507,-231
245,-39,-255,-474,-194,-131,-134,-147,-201,-74
236,25,-163,-540,-347,-178,-68,119,269,232
171,125,-47,-522,-332,-128,12,237,492,397
187,161,-16,-455,-294,-75,36,217,550,495
224,95,-113,-385,-223,-28,90,258,567,537
121,-4,-172,-327,-150,29,166,295,463,318
-119,-54,-163,-238,-60,103,205,274,332,-89
-104,2,-112,-175,-24,103,170,259,476,28
202,74,-105,-218,-119,29,104,339,826,522
185,33,-146,-307,-246,-74,45,376,939,707
-52,21,66,-199,-216,-101,-54,164,502,459
-18,-5,80,-223,-256,-179,-164,-61,-1,158
144,-167,-92,-293,-286,-174,-91,10,-88,139
-44,-338,-155,-176,-134,13,19,34,-191,-142
-32,31,77,-5,-29,74,-48,-212,-619,-635
-146,248,295,114,22,120,-20,-275,-762,-921
-202,196,276,80,1,100,41,-188,-725,-837
-44,162,131,-55,-89,29,134,-60,-548,-479
72,149,114,21,-38,4,92,-84,-353,-141
39,152,197,254,217,42,-12,-236,-254,-43
-19,89,183,371,444,168,-2,-228,-72,19
5,0,96,350,354,91,-31,-129,174,215
103,-130,-11,315,84,-233,-244,-144,380,616
221,-208,-108,241,-101,-336,-229,15,688,1066
395,-104,-65,206,-63,-178,-39,221,827,1261
482,7,7,82,-6,-24,128,351,811,1205
426,193,297,162,148,145,208,360,633,845
125,265,530,288,277,242,138,59,-51,-165
-280,69,271,20,144,173,106,-86,-455,-965
-391,-45,-96,-328,-64,79,178,108,-135,-941
-531,-154,-201,-280,-55,102,267,267,199,-746
-627,-178,-82,-63,67,131,203,135,58,-919
214,-220,-412,-425,-341,-279,-186,-132,16,-174
1180,-301,-833,-874,-819,-705,-483,-206,305,1239
980,-277,-645,-654,-611,-495,-250,-6,369,1282
387,-50,-271,-274,-267,-215,19,141,218,619
-268,167,-52,37,84,91,263,131,-552,-812
245,196,56,107,58,6,-14,-328,-833,-612
773,184,14,76,-52,-174,-248,-476,-458,109
732,185,132,100,16,-129,-193,-177,-52,330
35,193,306,298,286,193,131,175,-58,-172
-991,133,442,545,564,472,377,239,-327,-933
-1424,38,432,619,618,501,342,65,-547,-1400
-1189,-35,215,285,299,255,103,-170,-688,-1552
-606,-2,148,73,85,75,-81,-295,-515,-892
-283,27,229,158,179,139,-62,-189,-169,-285
-148,-2,98,26,48,22,-93,-88,89,-37
158,-4,-149,-267,-269,-254,-253,-125,157,100
301,-87,-178,-205,-222,-257,-267,-159,41,52
287,-69,-49,43,-10,-120,-181,-116,-103,45
353,222,44,104,23,-79,-132,-80,-293,245
268,105,-110,-68,-74,-108,-117,-107,-300,309
200,-171,-260,-254,-194,-117,-78,4,26,307
192,-149,-193,-246,-223,-84,-26,147,372,345
60,34,-14,-91,-100,-30,16,223,547,160
-49,116,-12,-58,-42,0,37,222,525,32
97,13,-124,-158,-70,10,69,260,706,763
275,-123,-168,-187,-45,87,180,383,943,1402
346,-4,-103,-154,-51,77,219,424,912,1351
470,325,72,-82,-115,-85,47,245,619,1119
142,242,136,62,19,12,104,174,247,295
-160,110,124,132,108,72,85,-40,-342,-691
-173,30,-4,45,8,-55,-78,-237,-579,-833
-593,-176,-155,-31,-32,-67,-54,-177,-524,-1001
-730,-254,-151,-31,-11,11,30,-55,-268,-764
-356,-123,-64,32,20,26,10,-57,-185,-350
-72,-19,23,119,71,79,14,-153,-354,-290
-106,-55,86,203,182,206,104,-162,-488,-503
-332,-83,172,406,410,380,247,-44,-520,-832
-78,223,345,562,474,308,126,-118,-571,-805
215,262,315,403,240,21,-116,-233,-566,-370
49,74,84,198,114,-31,-105,-147,-496,-256
-144,9,9,42,71,13,-27,-93,-494,-546
-125,-4,-22,-128,-52,-38,-59,-72,-283,-510
-18,46,16,-147,-78,-41,-75,-69,24,-239
52,72,62,-84,-34,-6,-44,-90,197,10
150,108,41,-120,-109,-30,-23,-60,393,335
321,172,-51,-203,-183,-37,4,17,561,587
265,6,-133,-128,-26,69,93,184,653,634
173,-176,-170,-39,31,46,64,267,690,788
353,-94,-121,-1,-111,-193,-193,101,691,1074
391,-39,-32,26,-197,-357,-393,-117,422,1101
-84,-161,27,46,-108,-224,-239,-57,141,620
-568,-313,-141,-119,-56,-28,10,186,116,-33
-173,-246,-265,-251,-97,16,118,307,53,-3
367,29,-127,-222,-138,-46,58,175,-77,368
396,110,20,-128,-111,-119,-87,-20,-196,360
-2,43,60,-50,21,-75,-143,-144,-393,-319
-510,-4,87,32,145,46,-36,-167,-588,-955
-440,-38,131,90,169,122,74,-81,-386,-567
-194,-142,21,24,112,134,150,92,-117,-42
42,30,51,-5,49,97,129,97,-88,127
123,155,61,-31,-4,31,39,-16,-59,74
11,-28,-113,-117,-93,-11,36,47,129,45
15,-154,-250,-186,-158,-58,15,73,218,101
67,-22,-117,-105,-132,-25,54,91,127,-41
-84,81,152,118,18,58,40,-17,-168,-383
-113,161,344,243,116,103,36,-67,-186,-431
-195,217,396,347,295,238,130,0,-4,-392
-351,86,205,299,406,363,249,99,56,-494
-178,-150,-170,-88,95,125,143,87,99,-297
-45,-349,-338,-177,-34,-60,-6,-33,-9,-147
-4,-267,-71,171,207,7,-62,-215,-221,-56
43,-56,205,396,282,62,-82,-318,-410,-82
162,130,325,462,162,-61,-189,-352,-363,-55
352,155,217,443,-22,-234,-302,-295,-99,292
344,-11,-1,299,-116,-251,-257,-134,160,591
277,-193,-281,-21,-171,-205,-141,23,340,650
218,-294,-497,-439,-354,-233,-58,237,585,629
-178,-436,-487,-555,-386,-150,110,428,599,192
-438,-138,-132,-344,-196,16,221,303,205,-349
-133,433,276,-96,34,144,215,16,-220,-485
143,346,163,-145,23,126,179,-38,-199,-198
197,138,4,-170,-22,97,161,31,-44,-1
127,71,-34,-143,-20,80,103,70,134,269
-11,73,-10,-98,-10,67,19,-18,113,194
1,65,19,-10,20,65,-60,-111,18,44
133,16,-12,79,-16,-32,-150,-121,35,279
245,3,-90,94,-101,-103,-141,-11,50,338
414,28,-114,26,-155,-194,-205,55,235,571
609,84,-52,-83,-188,-266,-240,96,572,1223
391,108,150,-64,-109,-157,-80,185,717,1298
-105,116,267,-5,21,43,108,151,377,409
-571,-11,195,98,114,190,237,105,-36,-378
-895,-256,10,154,123,276,357,142,-337,-990
-738,-312,-115,263,177,257,263,21,-531,-1195
-252,-132,-40,370,255,169,49,-128,-599,-991
-90,-157,-50,291,268,97,-25,-126,-595,-951
81,-216,-51,182,233,-4,-101,-171,-469,-564
437,-56,-110,-85,-82,-242,-283,-235,-145,161
451,-65,-302,-442,-383,-373,-351,-150,230,589
135,-68,-381,-820,-570,-345,-245,24,481,303
-17,72,-136,-715,-452,-195,-86,127,509,-103
-155,257,283,-20,8,48,19,-14,10,-594
-104,327,405,212,204,183,74,-171,-333,-494
15,263,244,-15,142,183,68,-242,-238,84
-35,135,90,-63,94,92,-20,-277,-8,370
-130,32,55,49,89,4,-78,-131,253,348
-168,29,177,209,169,10,-18,215,400,234
-106,92,248,307,241,92,95,349,192,137
27,93,138,227,224,152,162,207,11,115
134,-4,-141,25,105,95,123,32,166,260
90,-40,-139,-72,30,84,146,126,491,292
-175,-129,-92,-82,41,141,279,396,670,95
-200,-151,-156,-128,-2,100,238,379,350,-151
-71,-80,-138,-97,-20,14,40,78,-97,-439
46,-129,-162,-167,-150,-156,-157,-124,-348,-629
347,-161,-294,-361,-374,-337,-243,25,127,78
350,-78,-249,-301,-354,-313,-172,278,578,481
337,41,-105,-123,-183,-190,-82,231,458,761
237,66,45,-24,-54,-67,27,227,304,1048
87,-10,72,25,30,101,268,363,57,918
-99,-190,64,95,125,218,334,189,-459,335
-201,-254,172,315,344,308,309,-6,-784,-233
97,312,418,411,303,101,-17,-416,-1206,-662
123,538,469,389,233,-41,-219,-628,-1296,-923
-30,223,251,244,137,-50,-181,-410,-772,-705
178,203,186,120,25,-90,-156,-169,-252,-243
466,276,111,14,-60,-138,-161,-77,29,80
160,52,-97,-76,-70,-81,-45,62,85,-168
-406,-184,-181,-58,12,23,77,133,46,-517
-697,-223,-130,52,120,118,138,129,67,-449
-403,-98,-108,13,19,44,34,81,116,-176
6,22,-65,-47,-110,-69,-79,-88,-88,18
282,19,-81,-137,-225,-168,-134,-187,-166,370
454,45,-104,-116,-274,-171,-89,-139,-105,346
484,29,-228,-105,-265,-142,-5,-65,-99,23
505,-64,-381,-277,-392,-165,77,130,123,133
474,-58,-203,-66,-200,-129,-25,62,201,422
-212,-96,119,352,326,125,-31,-161,-115,-176
-994,-443,51,390,616,433,252,28,-93,-545
-821,-339,152,330,560,451,331,241,286,-81
-407,260,427,340,314,179,78,73,245,-130
-141,365,283,96,24,-50,-88,22,293,-140
50,99,-5,-113,-98,-105,-127,14,276,-131
433,44,-134,-246,-247,-259,-313,-271,-112,-47
623,182,-49,-226,-289,-357,-460,-454,-308,171
314,263,178,0,-91,-152,-246,-229,-35,260
-346,123,190,134,103,118,51,16,113,65
-565,-87,-9,92,123,165,92,21,91,24
-268,-188,-150,-4,57,95,47,31,90,227
-78,-171,-227,-48,0,30,74,69,-147,150
-52,-17,-103,5,-19,10,69,38,-472,-328
5,20,-177,29,26,13,-8,-73,-526,-516
77,5,-178,-1,43,4,-45,-121,-336,-318
87,-67,-273,-100,-43,-49,-74,-93,-95,-9
-81,-192,-280,-73,-83,-118,-122,-75,-4,78
-164,-221,-53,60,-87,-207,-195,-79,83,200
-38,-170,23,57,-101,-229,-193,-56,243,470
101,-175,-133,-229,-206,-178,-124,42,415,709
174,-108,-220,-344,-176,-69,-9,152,578,739
81,-11,37,-77,55,115,123,208,590,648
-178,95,378,214,219,285,304,255,448,290
-521,136,525,349,276,353,416,252,64,-599
-520,67,340,253,113,171,250,183,-225,-1046
-148,34,83,42,-53,2,74,60,-235,-522
193,-27,-111,-103,-90,-45,22,31,-69,125
470,-24,-204,-138,-25,9,53,148,103,438
387,32,-108,-123,61,113,140,274,260,385
160,7,-18,-161,-18,96,140,204,170,127
325,81,-5,-262,-193,-86,-55,-37,-16,116
381,131,-61,-366,-306,-210,-185,-90,6,89
121,60,-74,-215,-173,-170,-168,-90,-44,-166
39,-1,-50,-53,-11,-132,-174,-165,-156,-157
142,34,-9,7,13,-144,-217,-244,-243,3
142,62,54,165,52,-110,-157,-175,-208,12
-56,19,122,374,155,2,-48,-47,-99,-109
-259,-31,284,569,244,129,63,26,-128,-333
-218,-64,241,388,146,121,109,27,-156,-305
78,204,119,-196,-221,-109,0,-45,-86,6
270,353,163,-357,-244,-141,-65,-76,32,365
-34,284,343,54,208,161,52,-33,44,186
-379,73,173,80,339,303,177,90,107,-195
-26,-111,-238,-223,35,103,76,115,319,299
367,-120,-286,-255,-154,-130,-112,28,498,1007
379,-74,-123,-109,-176,-324,-289,-95,433,1087
223,-137,-98,-79,-166,-290,-224,-53,329,843
-34,-250,-86,-1,2,-29,3,38,206,698
-347,-157,22,54,92,82,115,35,-117,-100
-679,-42,32,36,105,139,206,14,-514,-1365
-536,-114,-133,-96,-11,91,210,65,-383,-1161
-257,-207,-237,-237,-171,-66,55,16,-107,-527
-29,-195,-373,-318,-274,-197,-130,-147,66,-106
205,-109,-355,-306,-293,-257,-225,-210,278,224
256,-45,-229,-292,-305,-281,-267,-133,444,194
83,-10,-102,-173,-179,-164,-171,18,512,-95
13,51,38,-1,0,14,-6,157,422,-73
-85,119,179,187,206,209,160,178,-39,-81
-203,116,241,289,322,308,255,150,-446,-135
-65,117,244,275,289,278,277,113,-509,267
-5,-6,165,237,262,267,245,51,-379,444
-27,-39,121,205,233,232,221,54,-144,346
-80,247,240,182,143,99,67,-29,-80,-58
-259,241,252,160,112,83,46,-33,-127,-581
-285,75,122,79,29,49,55,30,-144,-779
34,-12,-60,-112,-156,-84,-51,45,-35,-343
281,19,-64,-73,-95,-35,-35,32,9,-77
482,62,-56,2,-38,6,-9,48,249,136
468,-27,-65,13,-18,-14,-22,100,427,343
64,-15,77,202,169,92,8,24,214,142
-44,105,128,135,103,63,-47,-167,-212,56
-109,-9,-2,-54,-22,-3,-56,-207,-541,-106
-56,-174,-123,-125,-54,-42,-70,-154,-520,-15
24,-272,-163,-151,-77,-72,-75,-35,-145,170
-65,-123,-18,-5,3,-25,-65,11,85,-11
0,106,7,52,-24,-74,-134,-31,140,-42
267,176,-67,-31,-116,-176,-221,-73,126,104
364,68,-78,-125,-181,-200,-238,-113,-9,229
370,-18,-133,-236,-250,-211,-190,-123,-78,489
220,1,-75,-196,-213,-179,-143,-107,-47,575
-42,26,63,49,8,-30,-75,-108,-157,166
-163,-26,34,85,107,91,38,-79,-192,-397
-241,-177,-149,-68,33,103,97,-19,23,-421
-12,-126,-258,-227,-140,-18,37,47,341,190
169,-54,-277,-284,-239,-136,-43,142,694,764
-5,-166,-311,-243,-209,-120,20,426,925,898
-130,-150,-168,-100,-74,22,168,563,785,891
-78,-4,73,132,81,94,119,198,215,466
-75,84,186,242,154,78,61,-121,-445,-537
-104,225,349,337,234,109,69,-225,-928,-1318
-73,317,463,487,341,198,111,-235,-947,-1221
-232,219,438,568,403,259,151,-213,-740,-876
-377,120,431,659,472,287,119,-212,-623,-828
-269,66,320,589,378,215,60,-211,-539,-711
-47,-77,-11,189,62,28,-19,-155,-272,-336
-93,-189,-114,-4,-43,-17,-26,-80,122,-91
12,-161,-154,-212,-107,-51,-59,-43,463,121
280,-57,-183,-349,-222,-151,-115,0,667,454
402,17,-199,-322,-253,-180,-123,108,764,545
289,13,-243,-287,-182,-87,12,270,590,317
86,56,-161,-223,-100,-3,104,205,145,-11
2,31,-163,-250,-132,-10,148,212,13,-54
-74,-32,-157,-233,-93,29,189,321,208,0
-40,-28,-41,-108,7,93,184,196,62,124
-67,-10,97,36,128,174,147,-16,-210,135
-73,6,126,93,138,122,25,-39,3,253
-39,69,159,103,109,56,-9,27,143,304
-32,81,136,68,69,45,56,120,250,332
-151,1,78,77,104,104,151,239,392,207
54,-24,-71,11,-17,-27,0,55,186,118
338,0,-131,-98,-219,-188,-139,-98,4,49
148,-42,62,97,-71,-47,-29,-78,-187,-265
-317,-112,277,384,277,270,252,0,-479,-673
-459,-4,334,401,359,398,342,-24,-622,-765
-332,243,275,233,141,95,-31,-341,-729,-782
-198,0,-66,-146,-137,-154,-204,-347,-470,-465
197,-71,-293,-299,-240,-266,-281,-277,-239,-7
323,202,58,59,-63,-244,-355,-340,-384,2
219,230,43,128,-47,-197,-286,-255,-323,159
106,37,-199,-151,-170,-132,-82,31,68,493
48,-121,-161,-127,-127,-19,77,232,449,696
-5,-353,-59,23,15,62,124,253,591,765
-217,-508,-88,37,142,204,243,349,621,652
12,-77,-62,-110,24,115,91,142,323,382
300,241,-73,-296,-265,-210,-265,-197,0,80
317,132,-195,-422,-383,-323,-325,-133,172,183
213,-88,-380,-513,-452,-302,-194,106,356,303
101,-119,-356,-454,-417,-243,-114,99,153,156
43,70,-12,-103,-76,-79,-111,-125,-260,-182
-53,167,230,226,298,178,-7,-216,-484,-376
-108,207,287,269,376,307,124,-149,-509,-536
-108,268,365,300,361,334,186,-30,-398,-699
-37,249,374,307,327,298,143,-40,-341,-587
37,137,238,208,237,241,130,-33,-226,-255
64,84,121,94,137,188,170,16,-56,57
-116,24,25,60,77,157,189,72,102,58
-338,-162,-118,7,52,120,178,133,229,-75
-231,-195,-136,5,56,91,119,81,205,-39
65,-166,-126,1,33,-10,-35,-49,170,218
413,-72,-142,-124,-121,-147,-153,-74,330,600
661,56,-246,-310,-374,-337,-281,-55,431,647
496,-57,-307,-344,-425,-388,-302,-7,370,358
-81,-129,-163,-66,-134,-180,-159,35,84,-252
-524,-159,-92,99,96,17,-16,24,-239,-506
-269,-80,-121,80,101,32,-11,12,-111,93
-13,4,7,95,59,18,-41,-8,91,594
-109,-64,29,120,44,22,-24,-35,-12,397
-361,-145,-80,129,89,94,100,10,-160,-97
-601,-152,-105,88,133,186,186,66,-257,-686
-514,-214,-75,-40,62,141,196,111,-247,-899
-301,-191,-52,-116,-83,17,129,130,-113,-611
-35,162,106,-139,-186,-141,-41,6,-133,-339
120,202,66,-174,-165,-176,-147,-120,-182,-149
211,64,-102,-199,-100,-89,-96,-80,-45,97
235,14,-176,-219,-118,-42,-14,39,186,279
177,33,-124,-174,-133,-42,23,62,267,319
148,79,15,-42,-112,-66,0,16,240,361
143,101,178,88,-81,-136,-100,-46,254,508
-18,86,272,204,39,-100,-120,-43,198,367
-150,0,208,194,162,88,46,80,166,281
-224,-65,107,104,175,192,211,213,253,150
-337,-40,91,78,122,136,180,161,161,-322
-129,48,43,66,58,28,54,36,0,-453
245,100,-36,9,-23,-56,-35,18,37,17
471,129,36,-61,-128,-113,-65,79,164,306
566,154,54,-125,-217,-200,-149,-56,138,433
414,132,29,-124,-187,-184,-208,-171,62,338
255,29,-61,-162,-154,-112,-109,-46,73,97
302,-13,-114,-191,-154,-58,-17,62,-91,-66
214,0,-38,-70,-34,-3,-42,-19,-258,-243
-4,16,109,119,147,94,-29,-83,-108,-195
-189,-19,175,224,266,201,78,-14,74,-203
-199,-67,141,274,306,290,248,246,268,-27
-264,-220,142,369,392,402,445,553,337,265
-183,-236,115,323,354,349,376,449,113,519
12,147,-8,76,46,18,-12,-18,-235,500
33,263,-153,-88,-154,-199,-248,-271,-350,192
197,198,-121,-150,-246,-294,-371,-427,-428,59
364,139,-57,-182,-225,-277,-335,-405,-478,-230
383,77,-164,-149,-161,-164,-129,-157,-301,-333
128,63,27,61,36,68,116,86,-16,-204
-263,26,238,318,293,295,274,191,116,-210
-844,3,456,631,562,467,349,68,-242,-852
-772,-44,398,542,458,279,128,-263,-562,-913
52,-118,-28,-79,-96,-151,-214,-437,-373,74
374,-136,-197,-353,-321,-257,-231,-279,-100,522
403,-25,-70,-236,-215,-154,-130,-67,45,497
786,103,-105,-241,-268,-221,-160,9,57,680
1102,155,-236,-350,-391,-287,-183,33,147,945
851,149,-235,-298,-298,-183,-111,43,116,547
-62,51,-117,-29,17,76,74,121,-79,-721
-783,-76,47,136,202,257,195,113,-312,-1356
-779,-74,55,117,228,298,242,101,-290,-815
-575,-39,-2,117,236,294,275,95,-259,-526
-412,-92,58,57,127,199,190,37,-267,-398
-246,-155,46,19,33,71,86,-15,-155,-151
-186,-47,90,57,22,8,-4,-32,-79,-180
-15,157,153,57,-38,-111,-164,-117,-59,-181
26,90,63,-2,-86,-173,-238,-131,64,-56
-144,-15,-65,-41,-92,-127,-175,-69,140,-136
-128,-19,-50,-5,-82,-114,-150,-61,168,-52
-165,-109,82,224,78,-4,-89,-51,113,44
-178,-204,109,365,219,107,12,-43,-32,175
121,-39,80,191,100,-9,-104,-154,-35,496
272,30,-26,-153,-129,-175,-232,-181,184,771
372,-33,-179,-349,-262,-171,-160,54,512,848
254,106,25,-125,-131,-90,-107,28,180,273
-35,-29,2,2,-48,23,49,123,39,-198
-179,-54,-47,-20,-81,45,129,165,126,-199
-447,-92,-97,-53,-25,125,218,216,208,-348
-850,-139,-46,39,160,280,318,224,15,-907
-575,-116,22,94,202,218,173,-39,-381,-920
158,-26,2,-85,-10,-29,-37,-261,-387,-144
387,6,-123,-258,-94,-67,-14,-234,-199,245
325,9,-231,-273,-67,2,53,-126,-45,192
192,34,-72,-145,-12,39,66,-21,72,107
57,67,66,-10,-8,-7,3,57,187,38
17,65,88,41,-86,-143,-109,44,243,-31
225,8,-53,-108,-270,-285,-202,20,350,226
489,-2,-102,-180,-284,-271,-182,67,532,573
779,71,-46,-131,-196,-167,-136,96,532,890
931,48,-94,-195,-173,-70,-44,132,470,1220
480,25,-42,-59,-2,64,81,156,255,723
-242,277,330,339,319,204,108,43,-156,-336
-863,-1,243,369,363,260,182,50,-224,-761
-1048,-381,-23,208,279,297,279,196,98,-748
-727,-204,-18,164,195,235,238,236,260,-575
-497,106,115,131,124,145,215,294,240,-461
-397,103,194,161,195,211,306,439,215,-344
-30,232,306,235,208,143,133,145,-192,-77
283,306,320,245,123,-29,-114,-189,-313,370
315,215,128,81,-41,-117,-150,-94,43,577
204,61,-60,-133,-176,-129,-96,31,151,442
132,67,-11,-49,-53,-28,-36,-61,-185,110
89,111,-11,62,79,29,-36,-154,-366,-68
-57,28,-42,64,106,31,-61,-196,-381,-289
-102,-137,-127,27,77,-2,-93,-250,-331,-278
33,-189,-132,15,51,18,-45,-201,-183,-56
319,4,-14,-32,-64,-57,-103,-179,-146,87
386,80,-9,-167,-224,-179,-153,-70,6,261
140,69,-23,-186,-179,-140,-139,18,64,286
-267,-11,-45,-115,-45,-21,-69,-56,-102,-170
-328,-150,-204,-250,-196,-107,-103,-70,-22,-179
-77,-151,-284,-311,-318,-214,-133,16,258,217
63,-111,-271,-289,-311,-209,-81,86,305,388
51,-81,-266,-345,-386,-208,-17,99,160,280
-25,13,6,-108,-231,-107,10,-2,-67,-98
-206,70,371,430,186,59,-50,-252,-371,-495
-261,50,386,615,374,110,-114,-390,-416,-513
-144,63,260,457,329,129,-34,-149,-97,-319
-191,-2,153,246,250,171,119,165,154,-366
-261,-28,188,226,322,310,292,313,163,-406
-207,12,232,255,403,427,399,295,54,-215
-21,-5,61,73,267,312,323,160,-35,93
246,-77,-245,-245,-76,11,87,-2,-39,278
349,-114,-418,-381,-247,-127,-19,-1,-18,227
446,-100,-422,-306,-202,-107,-37,80,235,522
610,11,-227,-229,-191,-139,-109,73,473,901
732,263,-35,-221,-263,-244,-184,26,488,885
441,206,-11,-182,-219,-199,-111,62,430,684
21,16,0,-91,-121,-85,-18,88,299,322
0,14,-10,-74,-126,-91,-56,-17,72,69
-23,23,-46,-107,-170,-131,-117,-86,52,108
-402,-81,-28,-18,-33,-23,-49,-6,247,75
-298,-69,-18,40,87,82,15,22,414,194
63,-29,-103,-59,11,-13,-106,-104,420,457
88,-90,-185,-96,-45,-52,-142,-144,422,690
-68,-119,-156,4,29,39,12,44,329,283
-411,-109,-3,177,171,157,195,194,-254,-934
-445,6,150,236,192,163,137,-67,-1044,-1539
-233,125,212,213,150,112,67,-306,-1400,-1541
-12,172,212,156,110,126,118,-213,-1126,-1113
286,229,228,87,-4,53,60,-123,-627,-379
459,146,127,-49,-133,-59,-9,-16,-87,252
354,-34,-58,-143,-158,-52,12,85,215,422
-84,-179,-104,-44,-18,34,34,77,246,214
-190,-105,-16,53,18,-26,-55,27,320,177
140,10,-9,10,-48,-115,-98,41,295,236
426,51,-32,-37,-52,-110,-56,57,102,321
496,51,-39,-22,6,-91,-25,26,6,510
140,58,25,96,114,-18,-45,-133,-197,105
-267,19,49,245,251,111,-10,-214,-318,-267
-422,-124,-73,269,292,193,109,-26,-22,-130
-407,-199,-172,199,207,166,129,163,303,-64
-519,-186,-103,45,113,140,169,307,427,-393
-617,-112,-18,-11,96,186,219,392,483,-547
-478,5,118,149,167,217,205,264,187,-574
-43,-43,94,108,41,54,30,-39,-261,-196
251,-41,17,-35,-133,-109,-123,-248,-459,28
246,181,101,-105,-195,-157,-174,-309,-380,89
188,141,17,-199,-205,-130,-142,-161,-12,531
127,-16,-100,-282,-210,-67,-86,0,251,705
109,-74,-226,-318,-235,-76,-135,22,212,445
96,-132,-254,-351,-252,-105,-142,17,120,121
50,-214,-174,-259,-169,-106,-155,-53,-4,-283
-122,-253,-75,-60,-48,-80,-173,-132,-151,-596
-194,43,118,116,34,-64,-190,-200,-222,-622
-160,143,116,154,82,-3,-96,-108,-176,-481
-29,39,-43,47,5,5,33,154,6,-150
59,32,-20,128,38,24,34,152,78,67
-1,44,153,297,164,83,-4,3,25,-123
76,47,244,343,182,98,-8,-73,-38,-138
341,154,216,189,74,24,-71,-116,-51,145
371,269,236,71,56,18,-93,-138,-159,229
-170,145,254,121,221,207,93,-8,-269,-118
-379,-57,78,18,151,194,173,93,-177,-112
-39,-147,-188,-269,-174,-43,56,82,-40,166
123,-29,-132,-269,-261,-199,-105,-61,-92,132
101,69,-75,-112,-124,-180,-151,-149,-138,87
-61,0,-75,-50,-39,-99,-94,-108,-73,14
-47,12,11,27,-3,-85,-109,-132,-16,58
33,66,64,1,-30,-88,-113,-154,5,109
133,68,19,-146,-124,-138,-107,-136,167,299
222,67,-63,-226,-215,-178,-47,4,481,535
92,29,-114,-203,-189,-32,202,318,710,465
-278,-78,-94,-44,27,195,438,572,628,-103
-233,-45,29,154,198,261,385,419,60,-482
6,-7,46,136,174,196,206,70,-467,-282
19,-84,-71,5,77,72,97,-52,-339,60
-62,-58,-54,-31,31,-1,12,-87,-148,90
-72,0,36,14,13,-44,-77,-145,-145,-93
30,-51,40,65,0,-40,-98,-99,-43,61
185,-97,7,66,-3,-23,-79,-30,187,460
289,79,54,49,-37,-88,-137,-85,158,424
79,161,88,55,-3,-66,-125,-107,-6,-83
-125,64,72,129,123,47,-8,-28,20,-184
-6,46,50,126,133,57,-45,-9,133,114
-176,28,96,93,82,18,-99,-65,-8,-180
-508,-121,25,-60,-61,-58,-135,-48,-70,-514
-475,-170,-69,-207,-176,-54,-30,121,48,-383
-290,-198,-177,-219,-153,31,109,243,101,-246
-156,-280,-255,-117,1,124,189,185,88,-115
35,-133,-4,121,182,129,94,-102,40,217
48,-22,198,229,205,59,-19,-311,-14,241
58,47,162,23,-11,-86,-120,-353,-81,122
328,187,-12,-247,-295,-257,-188,-175,-17,280
427,149,-99,-250,-290,-204,-42,183,-35,502
344,99,-57,-111,-107,-42,77,230,-264,394
268,75,-4,-10,24,26,54,108,-250,274
302,110,47,55,56,-36,-65,0,-137,233
221,81,41,46,25,-13,-44,53,-80,20
-16,-41,-37,23,10,30,46,99,-98,-316
-97,-117,-90,-12,-6,30,64,44,-111,-350
-43,-76,-89,-23,-10,41,41,-15,-77,-271
-42,-69,-92,57,29,9,-61,-72,18,-143
-56,-109,-101,96,-25,-84,-156,-45,221,54
-43,-74,-32,-16,-56,-45,-92,66,359,146
-109,-7,94,-23,-6,12,2,123,420,96
-205,-15,82,-16,15,30,66,170,479,-12
-203,56,141,76,84,104,165,212,357,-116
-89,158,274,276,192,160,238,339,466,109
40,96,191,372,184,139,197,392,533,381
-37,2,154,402,258,182,167,257,272,429
109,-72,8,123,102,62,42,56,56,680
272,-161,-128,-221,-133,-115,-103,-130,-197,501
197,-46,-61,-251,-188,-205,-254,-375,-684,-483
243,98,-69,-303,-282,-274,-363,-569,-967,-847
268,102,-159,-389,-365,-206,-284,-514,-883,-718
63,1,-195,-345,-257,10,-57,-246,-601,-558
-130,-199,-291,-134,27,199,60,-59,-313,-291
-93,-225,-287,59,225,212,57,-53,-164,-199
3,-35,-95,146,230,31,-94,-156,-82,-345
-1,63,-14,107,102,-123,-159,-173,74,-320
29,90,-48,15,-25,-209,-117,-44,326,3
160,155,2,-21,-43,-167,-51,136,429,301
179,187,133,-11,-48,-92,21,293,338,428
155,220,186,15,-27,-70,0,195,199,539
-49,99,29,35,29,-8,-4,129,197,390
-278,-40,-96,-1,19,10,-9,80,128,-166
-215,-121,-116,-60,-49,-73,-91,-75,-95,-538
59,-118,-135,-97,-98,-136,-115,-176,-254,-441
355,29,-129,-106,-155,-159,-80,-67,-159,-33
64,127,77,83,44,55,121,73,-149,-232
-569,73,170,261,239,251,247,86,-239,-764
-741,-69,147,180,206,256,207,29,-170,-615
-515,-227,45,58,137,212,187,40,-19,-151
-133,-168,19,39,105,164,133,-6,-16,159
90,33,66,30,40,33,-47,-139,-36,165
60,-76,-38,-48,-17,-26,-33,83,237,204
194,-108,-95,-84,-52,-34,40,266,394,317
356,129,50,-27,-64,-73,-1,304,445,293
461,259,120,71,-8,-69,-46,291,401,255
428,184,104,65,3,-84,-117,77,123,253
121,-1,29,43,5,-68,-120,-46,132,505
93,-111,-46,8,-15,-90,-158,-75,308,937
374,-46,-101,-52,-95,-158,-222,-49,475,1132
478,115,9,10,-40,-92,-96,77,543,1027
360,150,72,31,53,30,95,131,343,733
-66,-125,0,29,159,190,294,168,-3,185
-341,-268,-98,-5,99,179,303,54,-575,-309
-312,1,35,-27,-52,10,153,-198,-1187,-1015
-366,148,172,46,-18,-11,72,-321,-1373,-1526
-341,49,79,8,10,4,33,-278,-1074,-1353
-242,-118,-59,-20,76,58,43,-197,-734,-973
82,-142,-115,-57,70,40,-25,-165,-392,-364
304,19,-76,-85,-8,-38,-120,-168,-129,99
0,176,-50,29,1,-50,-113,-174,-82,-65
-339,102,-99,131,83,14,-49,-150,-51,-291
-413,-78,-161,149,157,117,79,-53,116,-272
-373,-111,-148,81,135,114,87,-60,201,-205
-265,31,79,30,81,55,7,-124,201,-212
-238,95,281,103,125,116,78,-14,292,-153
-68,137,261,35,34,103,178,321,609,192
71,147,111,-115,-128,-3,178,498,837,487
-43,57,71,34,47,27,71,261,543,365
159,70,56,99,110,-18,-89,-4,250,350
531,95,1,17,-50,-144,-174,-18,154,492
500,18,27,108,-79,-133,-124,-20,-132,236
124,-97,74,212,6,-73,-96,-174,-529,-209
-24,-129,-4,97,5,-74,-134,-284,-607,-368
-103,-135,-115,-123,-123,-155,-174,-243,-409,-400
-62,-159,-207,-274,-213,-158,-115,-110,-103,-92
125,-126,-219,-352,-234,-120,-26,19,151,301
303,21,-94,-286,-185,-69,-12,75,258,510
381,115,2,-157,-111,-27,-32,30,135,497
330,115,-7,-64,-22,35,26,-13,-53,232
75,92,39,50,87,142,140,45,4,46
-112,40,81,85,128,154,161,121,183,128
-152,-52,57,31,71,96,118,169,362,235
-416,-348,-53,-57,13,86,129,237,480,224
-323,-299,-196,-195,-119,-9,32,164,412,304
94,45,-217,-273,-251,-189,-170,-54,221,356
137,48,-92,-164,-136,-113,-136,-110,70,234
74,39,27,-4,-16,3,-52,-124,-73,124
62,92,59,106,13,30,-19,-141,57,286
-136,47,92,149,45,61,-14,-192,162,4
-355,-41,156,283,181,163,39,-188,195,-478
-67,-25,-89,-121,65,41,31,-91,-936,-690
-6,-2,-102,-52,112,38,19,-75,-595,-495
-10,51,15,-38,33,-47,-50,-99,-280,-309
-17,5,3,-114,-128,-123,-47,3,-8,-146
20,-50,-56,-102,-134,-104,23,127,140,24
75,-62,-149,-45,-104,-78,18,140,140,220
76,-63,-110,-68,-95,-76,-44,78,108,275
34,150,143,11,43,100,156,241,374,-7
62,146,160,84,110,175,238,306,377,-85
74,212,287,254,202,182,171,83,-12,-305
301,214,179,98,23,-17,-69,-229,-358,-119
241,71,-80,-134,-171,-168,-203,-267,-234,356
126,-34,-155,-71,-79,-113,-188,-149,96,552
251,-122,-196,-49,-59,-75,-111,-24,373,716
232,-154,-68,65,-54,-103,-128,-65,369,792
-127,-171,35,184,31,-37,-50,-19,229,399
-431,-198,4,135,105,89,117,157,100,-40
-365,-116,-7,18,123,129,179,194,31,-32
-313,-45,-20,-91,80,149,201,192,-11,-174
-340,7,29,-148,27,185,220,187,-103,-623
-194,44,69,-178,-13,164,206,100,-248,-786
81,14,-13,-242,-129,17,50,-44,-347,-477
133,57,125,-52,-23,-33,-95,-159,-335,-286
159,152,221,87,25,-126,-193,-187,-193,-85
251,147,56,-43,-94,-166,-144,-87,29,261
235,69,-47,-101,-116,-114,-67,-8,175,450
94,-46,-91,-116,-69,-18,18,39,197,347
-57,-94,-104,-124,-43,31,51,33,128,88
-236,-99,-96,-100,-74,-8,25,27,64,-266
-219,-60,-114,-71,-136,-91,-21,67,109,-248
28,26,-31,16,-124,-170,-99,5,89,-16
239,50,-34,-14,-135,-147,-52,26,134,291
275,24,-45,-21,-39,7,117,112,227,592
74,47,45,74,162,198,274,175,181,448
-180,67,133,180,263,245,260,132,53,-72
-195,85,143,212,232,160,139,43,16,-303
-123,67,120,130,139,97,70,108,63,-303
-75,15,35,22,40,38,-8,65,-140,-345
-136,11,11,103,99,53,-4,12,-391,-488
-120,109,144,211,188,100,10,-44,-504,-553
10,172,218,149,146,69,-67,-104,-410,-299
-6,93,130,56,71,25,-84,-58,-157,-50
-126,6,68,90,81,43,-51,3,-17,-156
-163,-11,58,147,135,103,9,58,-7,-303
-84,0,55,104,107,66,-5,11,-22,-225
66,-69,-55,-19,-27,-63,-144,-160,-54,35
209,-102,-85,-115,-98,-106,-191,-235,31,432
322,-37,-37,-124,-92,-85,-147,-208,232,732
157,148,130,39,23,-13,-109,-184,313,395
-173,60,144,151,158,146,61,8,329,-37
-304,-277,-189,-103,-33,111,212,363,447,70
-258,-400,-299,-210,-163,55,295,679,586,332
-167,-220,-274,-166,-196,-11,264,698,655,371
-67,-271,-324,-227,-249,-72,173,566,851,596
373,-224,-254,-267,-264,-193,-49,352,919,1062
741,-196,-197,-255,-260,-222,-165,121,449,982
824,-40,-40,-150,-177,-166,-177,-157,-392,167
960,552,230,-46,-174,-297,-415,-603,-1013,-295
334,577,280,84,-11,-165,-350,-643,-1037,-612
-764,83,102,165,208,146,-22,-358,-838,-1062
-951,-111,34,197,295,277,162,-185,-786,-1198
-442,27,156,268,299,260,153,-216,-817,-803
-139,149,194,218,197,161,46,-302,-811,-600
-146,126,139,163,119,112,51,-229,-723,-792
-226,37,98,188,151,162,149,-55,-399,-580
-287,7,135,270,233,217,151,-57,-194,-281
-437,-64,162,307,299,266,199,-4,-64,-301
-417,-78,130,210,214,176,135,28,58,-265
-167,-12,24,51,18,-20,-41,-57,213,5
108,-33,-92,-163,-206,-158,-137,-74,554,382
472,-100,-237,-358,-369,-215,-138,11,955,859
864,-61,-348,-495,-474,-253,-102,213,1164,1449
1015,32,-271,-399,-383,-235,-94,283,988,1666
712,40,-165,-204,-210,-116,-29,278,508,1293
15,-14,41,144,102,55,28,135,5,511
-553,-58,232,388,266,102,1,-25,-244,-366
-851,-103,164,352,248,137,72,49,-225,-1142
-928,-145,22,278,243,181,86,41,-340,-1582
-430,-85,-110,67,111,98,37,-31,-437,-1086
30,27,-81,-39,12,34,9,-92,-541,-551
137,41,0,-87,-62,-18,-33,-132,-483,-279
178,90,105,-32,-34,-37,-97,-182,-373,-124
372,155,160,19,-11,-60,-130,-234,-292,34
418,158,145,-27,-99,-100,-122,-163,-47,257
304,51,-29,-167,-224,-175,-93,7,205,334
4,-73,-122,-185,-194,-142,1,126,213,133
-278,-88,16,90,52,18,44,40,-87,-52
-315,30,151,305,200,74,-6,-106,-288,-167
-282,82,234,392,257,138,11,-89,-202,-200
-394,37,306,406,270,189,87,-11,-79,-181
-438,-3,294,274,183,110,18,-45,12,-198
-269,-138,-43,-138,-80,-20,-20,-8,154,-13
46,-250,-464,-549,-359,-179,-51,-10,215,238
223,-58,-292,-425,-251,-148,-56,-49,147,272
250,155,12,-113,19,-7,-8,-23,54,228
276,135,-57,-84,69,-14,-32,-57,-43,272
159,-6,-249,-64,60,-25,-26,-41,17,287
122,-103,-262,-60,51,-2,11,15,164,408
193,-150,-246,-153,-69,-116,-62,1,231,536
138,-185,-222,-181,-156,-200,-115,-6,250,568
66,-143,-68,-13,-116,-200,-117,-33,116,360
10,-30,62,118,-44,-154,-92,-84,-92,31
-98,33,-94,-55,79,185,216,64,-242,-659
55,104,6,-77,48,173,175,95,-86,-322
179,192,173,30,110,183,143,117,63,52
243,274,260,96,124,173,131,140,175,270
174,268,282,102,101,144,101,121,175,224
-56,102,194,105,151,164,111,97,80,-45
-347,-63,137,88,131,153,76,14,-82,-407
-326,-202,-86,-123,-66,50,34,42,-14,-376
-127,-148,-182,-139,-98,-10,1,55,107,-197
5,-13,-82,37,14,-24,-75,-24,146,-36
31,-28,-56,51,0,-88,-146,-24,277,189
-26,-91,-32,-2,-20,-92,-114,11,386,306
-33,-79,-21,-9,6,-35,-20,80,551,316
-85,-78,-43,-47,-16,3,112,293,927,433
-61,-45,-22,-60,-33,16,209,385,967,530
134,69,46,-16,-15,24,217,318,480,271
315,91,51,-15,-44,-43,154,164,-112,126
369,94,45,-24,-73,-110,44,-99,-614,15
195,67,0,-44,-77,-113,-54,-328,-898,-388
69,-9,-75,-72,-71,-115,-113,-408,-888,-617
-12,-46,-83,-36,-34,-87,-157,-375,-765,-555
-61,-36,-60,26,10,-70,-158,-264,-525,-458
-56,-58,-98,-27,-48,-94,-113,-128,-262,-307
-80,-75,-151,-80,-84,-94,-75,-77,-124,-196
-58,-75,-220,-143,-144,-121,-92,-67,-43,-117
21,-24,-109,-182,-205,-141,-72,-25,65,-8
37,51,30,-63,-77,-75,-32,13,136,10
-9,31,62,61,83,41,18,88,195,53
-63,1,56,113,136,122,69,179,256,71
43,2,13,86,96,82,24,123,323,162
221,-16,-33,39,-4,-38,-84,25,358,296
258,-65,-57,-40,-111,-101,-79,81,408,328
358,-116,-73,-128,-185,-74,22,222,505,507
349,-47,2,-91,-173,-62,44,194,233,521
263,229,128,-21,-130,-102,-49,-10,-181,246
76,215,138,102,98,84,30,-33,-292,41
-282,6,110,256,341,276,124,-142,-491,-354
-540,-33,156,312,312,204,31,-236,-522,-674
