-214,-72,-3,-12,47,126,28,29,-1,-67
-218,-40,-12,25,35,20,-20,23,-3,-87
-142,12,-8,39,0,-72,-19,26,21,-37
-72,25,70,17,-71,-110,7,51,39,-7
-43,30,79,21,-61,-85,34,47,20,-4
-25,38,75,32,-17,-38,39,42,16,-7
-7,29,63,17,-20,-18,38,46,28,-3
-2,20,28,-2,-22,-23,38,47,34,2
-12,12,8,-21,-38,-18,39,26,44,26
-30,6,17,-21,-31,-8,41,6,36,31
-46,-1,17,-30,-2,14,28,-14,17,-5
-50,-4,19,-29,5,14,22,-18,16,-28
-43,-2,27,-27,15,13,18,-16,15,-22
-45,5,30,-6,20,34,2,-18,11,-19
-18,17,26,11,11,12,-48,-27,7,4
24,25,-6,13,-9,-21,-84,-42,3,50
32,23,-25,5,-19,-42,-80,-53,-6,68
7,23,11,7,-26,-29,-63,-33,-5,50
-12,-16,10,-9,-27,-30,-55,-12,0,30
-5,-34,5,-23,-19,-26,-25,-15,-2,46
9,-29,1,-18,-18,-19,-3,-10,4,57
21,-24,-7,-10,-9,-17,-3,3,24,56
18,-24,-20,-3,8,-2,44,29,32,55
5,-27,-24,0,49,24,101,30,19,44
21,-19,-25,-8,98,92,158,34,21,71
32,-25,-39,-32,102,150,192,43,38,110
36,-17,-25,-16,98,168,169,27,23,121
24,-10,-28,22,64,160,133,6,-7,104
8,-7,12,43,64,145,110,-4,-17,89
24,22,58,41,-13,0,50,-10,-18,106
33,32,66,28,-75,-92,-4,3,-14,85
21,23,62,11,-73,-67,0,18,-3,10
-30,4,49,36,-19,7,3,34,-16,-77
-90,-11,37,38,25,46,-1,1,-57,-169
-116,-50,-4,3,11,28,4,-4,-67,-175
-104,-76,-62,-40,-18,2,-4,9,-20,-114
-49,-55,-91,-26,-14,-15,-37,20,11,-54
28,4,-34,4,-21,-37,-43,22,17,-6
56,31,37,-3,-36,-80,-68,-8,0,12
50,55,55,-11,-35,-68,-81,-19,16,18
52,38,28,-2,-32,-49,-77,-21,21,22
40,36,-5,12,-20,-38,-49,-30,-5,19
35,21,-1,10,-8,-27,-35,-39,-14,4
40,16,39,11,-5,-27,-47,-51,-19,-4
51,31,56,4,0,-31,-19,-80,-26,2
33,22,55,3,6,-28,-9,-77,-32,2
24,14,42,4,18,-15,13,-69,-2,-14
21,4,21,6,6,-12,12,-56,-27,-21
19,2,23,-4,-8,-9,-23,-44,-44,-23
16,-4,19,-3,-2,-22,-56,-31,-40,-6
38,-12,-13,0,0,-37,-58,-18,-12,14
49,-9,-90,1,1,-27,-60,-12,5,22
43,-10,-30,-7,-6,-18,-45,4,28,49
51,-4,17,-12,-14,-5,-36,15,66,80
32,11,12,20,-8,2,-36,24,64,83
3,6,16,27,0,0,-11,33,64,42
43,26,17,8,6,7,0,34,61,-16
55,22,0,0,9,23,32,29,55,-54
61,3,1,-3,21,37,24,27,57,-74
59,-14,1,-12,21,43,36,27,57,-63
27,-25,17,0,24,39,59,26,83,-4
16,-20,1,21,18,16,49,38,81,117
21,-18,-9,0,-5,-10,8,17,14,175
-39,-66,-52,-52,-32,-51,-41,-22,-75,89
-46,-99,-173,-69,-68,-84,-87,-22,-80,34
-9,-74,-183,-49,-65,-91,-98,6,-57,37
20,-29,-51,-36,-43,-78,-87,28,-40,37
31,-10,7,-22,-14,-39,-47,41,-27,24
4,-22,-1,-4,16,7,-6,42,-13,-12
-40,-19,-6,9,40,65,23,30,-10,-31
-73,-31,-5,9,57,121,86,14,-1,-53
-59,-41,1,21,67,120,81,-7,6,-66
-23,-29,1,25,60,88,56,-41,-33,-100
-41,-38,-2,28,57,59,46,-29,-38,-107
9,0,15,5,20,5,30,4,-8,-44
149,62,44,-11,-27,-56,-14,-10,-3,4
205,84,55,-3,-18,-97,-59,-35,1,26
167,82,54,16,-6,-107,-60,-20,31,54
121,37,27,-15,-21,-79,-40,-2,32,48
127,20,0,-39,-40,-55,-44,2,31,79
52,9,-6,-31,-33,-59,-27,-23,0,74
-101,-30,-20,-28,0,-40,17,-6,-18,-6
-136,-70,-53,-35,11,-5,47,21,-17,-63
-61,-55,-57,-40,-9,-14,43,12,-8,-74
-17,-28,-49,-24,-3,-1,39,32,-2,-100
-47,-53,-52,12,30,16,65,49,0,-105
-103,-93,-14,49,54,31,101,88,20,-100
-118,-26,74,48,50,25,115,107,32,-122
-83,92,47,43,35,-1,70,57,12,-135
-27,109,47,45,39,-19,44,19,12,-59
64,97,114,33,19,-43,2,-20,-2,26
118,66,85,24,-11,-68,-18,-37,-15,49
78,22,45,37,-6,-55,-10,-25,-22,1
35,-29,4,-3,13,-29,14,-3,-6,0
67,14,-20,-56,-16,-42,-33,-50,-17,18
68,68,-33,-34,-13,-58,-62,-89,-54,0
-5,29,0,-11,19,-26,-42,-49,-33,-15
-55,-1,-29,-2,20,-8,-8,-29,-19,-9
-79,-11,-127,7,9,-4,1,-32,-13,1
-62,-8,-65,1,4,-2,-2,-22,-21,-2
-60,-17,0,-22,-2,5,5,-11,-11,-48
-68,-18,-5,-21,4,3,8,-9,11,-93
-61,-20,-7,-32,2,-4,10,-6,13,-102
-28,-8,-6,-44,-7,-24,2,-10,-6,-55
8,-4,-2,-35,-7,-28,-16,-3,-17,-4
31,-12,2,-16,2,-12,-18,1,-14,6
29,-6,12,-10,18,-3,8,-5,17,11
19,-8,-18,-22,20,4,18,3,41,36
45,-22,-46,-39,-2,-2,0,10,39,75
88,-17,-52,-46,-29,-18,-23,7,51,93
114,20,-29,-27,-38,-35,-60,-18,48,71
129,54,-4,-19,-26,-34,-67,-32,16,40
123,53,55,-2,-4,-8,-25,-20,16,5
16,57,65,40,31,42,44,13,26,-47
-131,36,17,73,59,74,94,43,19,-105
-159,-9,-71,63,53,76,90,45,6,-108
-88,-13,-10,22,24,56,71,25,-4,-50
-29,-9,22,0,-4,27,21,7,-17,0
-1,-3,19,-5,-8,15,-15,-12,-36,26
9,-3,20,11,9,18,-12,-23,-54,33
-10,-14,24,6,9,15,-9,-34,-53,0
-27,-18,13,10,4,1,-8,-50,-35,-10
0,-33,-11,4,16,3,-14,-33,-17,21
0,-72,-29,-7,16,7,-10,-4,13,44
-15,-66,-25,-3,3,6,-24,3,15,31
10,70,-16,6,-24,-39,-122,-70,-65,-33
7,89,-11,-3,-33,-57,-118,-73,-72,-61
-1,36,34,-31,-50,-37,-80,-39,-63,-48
5,9,1,-39,-38,-20,-32,-19,-46,-2
74,4,-21,-51,-21,4,41,22,24,95
112,26,32,-45,-9,18,59,60,77,131
122,38,46,-24,-12,10,68,73,107,175
155,47,28,-17,-18,-6,30,76,114,228
181,45,9,-22,-23,-4,-16,78,115,285
137,34,21,-21,-20,-4,-38,70,102,254
22,19,-21,17,3,7,-63,40,56,109
-79,-2,-66,27,17,-2,-70,-11,-22,-93
-81,-12,21,17,15,4,-62,-27,-40,-153
-64,4,57,23,27,27,-68,-30,-33,-78
-64,6,55,11,17,12,-59,-47,-57,-51
-93,-11,39,-1,12,-9,-3,-56,-102,-149
-117,-44,-5,-14,15,10,11,-38,-124,-178
-114,-73,8,-11,10,27,28,-30,-111,-147
-87,-67,30,-5,0,32,56,-29,-91,-100
-27,-26,15,-27,-26,23,68,-27,-50,-85
-10,-21,-87,-32,-34,18,68,16,5,-74
-24,-34,-145,-28,-25,45,70,52,41,-51
-30,-30,-71,-26,-23,45,50,68,52,-30
-44,-30,-97,-8,-6,54,22,42,19,-24
-36,-21,-46,9,4,36,9,15,27,-16
-19,10,37,12,-11,4,-12,13,27,26
-17,31,35,16,-16,-12,-27,15,-13,11
-35,21,41,27,10,10,-25,29,-29,-22
-17,3,46,15,8,12,12,57,-4,-16
38,2,-10,-8,-10,-12,25,59,35,35
35,-11,14,-19,-19,-13,36,62,69,69
29,2,55,-7,-2,8,34,51,71,94
22,30,78,20,10,2,19,16,51,104
10,29,75,26,12,0,7,-14,61,79
6,15,48,18,-3,9,-14,-6,52,22
-10,1,17,-17,-17,12,-20,23,48,0
4,4,0,-40,-26,11,-6,24,27,1
30,1,-4,-40,-17,0,-30,3,10,2
19,-13,-5,-26,14,-8,-6,-4,9,-3
-21,-33,-13,-8,65,23,38,-17,-18,-23
-88,-59,-15,-1,76,49,67,-13,-4,-33
-102,-88,-33,-14,15,58,91,36,45,-7
-85,-90,-43,-17,-7,104,113,101,84,20
-55,-18,14,-10,-30,77,92,72,50,-25
31,96,75,2,-75,-28,0,-20,-40,-80
37,98,41,13,-73,-82,-52,-36,-49,-77
16,65,-25,21,-73,-77,-41,-6,-14,-6
41,61,32,26,-52,-58,-6,6,12,70
35,65,56,50,-16,-18,28,6,11,72
-4,16,33,46,8,26,40,18,7,22
9,24,52,28,14,16,1,-1,-5,12
52,100,87,41,-7,-26,-57,-67,-52,9
54,80,67,24,-24,-40,-44,-64,-46,3
4,29,30,1,-29,-16,-69,-51,-34,-26
-27,-5,0,-4,-22,16,-68,-42,-26,-6
-44,-45,-22,-1,-11,39,-40,-23,-20,56
-57,-67,-37,11,23,55,-40,-17,-37,77
-61,-59,-42,21,53,52,-33,-29,-60,43
-51,-29,-58,4,53,22,-35,-45,-61,-19
-8,-8,-15,-17,-11,-25,-41,-25,-28,-37
38,20,14,-34,-70,-78,-51,-10,-7,-24
56,43,27,-20,-64,-77,-58,13,8,-34
48,22,14,2,-45,-53,-3,37,15,-64
36,6,-8,7,-39,-29,56,31,5,-65
42,-10,-19,1,-16,14,89,34,5,-27
36,-19,-22,0,0,39,125,43,19,13
19,-15,-25,-1,0,34,118,26,-7,12
81,8,-4,14,-2,8,88,-16,-57,14
152,31,-7,8,-3,-12,36,-39,-62,45
134,45,-73,3,-10,-39,-16,-41,-25,54
114,66,-40,7,2,-53,-71,-20,22,66
145,69,28,7,11,-50,-75,18,77,133
60,38,42,2,23,-40,-63,53,108,122
-69,1,40,24,40,-11,-47,57,101,81
-60,-10,19,30,62,0,-42,30,104,126
30,-2,-56,13,36,-18,-55,8,129,234
73,15,-28,-8,-9,-52,-98,-25,101,251
40,-3,-38,-7,-13,-56,-112,-52,8,105
-45,-69,-62,-11,-2,-41,-86,-39,-53,-135
-178,-176,-83,-7,36,0,-21,27,-36,-315
-231,-211,-93,4,52,33,23,66,0,-322
-232,-160,-134,20,47,36,27,59,-4,-253
-195,-8,-80,41,30,-2,16,9,-59,-178
-48,136,9,27,-2,-54,-6,-65,-114,-89
0,65,-61,0,-9,-42,8,-40,-86,5
19,32,4,16,-1,-16,37,-29,-63,25
23,7,26,39,33,27,49,-29,-54,19
8,-16,15,39,66,86,28,-52,-55,42
-37,-20,67,40,70,94,-6,-75,-72,5
-81,-27,48,12,63,76,-25,-105,-96,-73
-83,-40,-1,-9,31,48,-26,-103,-96,-128
-64,-41,-27,-28,-19,-4,-11,-68,-72,-123
-30,-20,-25,-36,-84,-48,1,-31,-28,-30
-32,-9,-17,-24,-64,-35,-18,-35,-41,1
-23,1,17,2,-4,-13,-27,-46,-71,-39
-8,16,22,3,8,-14,1,-10,-68,-35
10,13,12,-25,-6,-3,33,37,-54,-20
0,-8,-45,-41,-16,12,78,58,-43,-11
-9,-29,-127,-50,-12,35,122,83,-12,6
8,-24,-79,-54,-18,66,169,95,3,23
10,-21,-122,-42,-15,74,175,98,19,16
-37,-41,-95,-56,-11,63,165,102,49,0
-25,-15,-20,-46,-2,44,112,68,47,38
39,26,70,-9,3,8,19,5,20,89
56,47,81,21,8,1,-39,-44,16,100
43,46,84,29,7,7,-67,-39,-10,50
18,33,69,22,-8,17,-58,-7,7,17
8,48,72,24,-11,18,-66,-4,11,9
19,67,90,42,-12,-11,-105,-27,-7,21
3,49,59,34,-6,-21,-78,-23,1,35
-7,16,38,28,-6,-5,-42,-6,22,55
25,17,50,4,-15,-8,-30,12,21,83
18,2,39,-28,-22,-20,-13,54,37,62
35,2,59,-30,-21,-31,2,96,79,62
70,9,65,-41,-32,-43,0,88,103,87
60,8,42,-48,-26,-33,14,73,98,97
35,-14,1,-54,4,-7,46,58,62,90
9,-27,-43,-45,43,16,68,43,21,71
15,-37,-34,-21,69,35,78,19,-5,65
37,-23,3,2,57,17,44,-31,-27,58
52,-10,18,5,0,-20,7,-39,-35,27
46,-10,-48,14,-11,-8,2,-9,-21,28
47,6,-73,53,-5,0,28,11,5,67
63,11,-30,61,9,-14,44,12,14,80
66,0,-12,30,35,31,36,30,24,86
11,-17,45,52,63,92,55,32,27,67
-56,-33,112,45,53,95,25,-29,-10,32
-88,-48,62,-49,2,71,-36,-58,-34,37
-42,-45,-13,-64,21,66,-30,-23,26,86
-5,-38,-15,-21,24,-1,-53,-8,42,77
1,-2,8,19,-14,-52,-56,-6,1,14
55,83,47,23,-57,-84,-68,-24,-34,-4
21,66,41,11,-31,-51,-65,-45,-71,-43
-28,16,25,-6,3,35,-30,-49,-77,-64
-45,-12,6,-16,16,71,18,-15,-57,-54
-42,-30,-17,-30,9,12,46,8,-22,-39
-16,-11,-17,-27,0,-70,27,3,-4,1
21,26,14,-3,-18,-100,9,17,18,45
42,31,29,-2,-38,-91,-10,34,35,41
48,23,20,-12,-26,-51,-29,42,38,29
51,34,15,-18,-26,-43,-39,16,16,2
25,18,3,-15,-6,-25,-3,2,-11,-25
5,-4,-8,-18,9,-1,28,11,-23,-33
-16,-29,-39,-13,24,33,57,30,-7,-9
-16,-47,-64,-15,36,47,68,42,23,75
26,-50,-73,-18,17,22,53,28,69,185
50,-24,-74,-23,-10,-25,6,4,55,185
31,8,-12,-10,-26,-31,-45,-11,23,118
0,6,24,4,17,15,-40,-1,5,78
-6,-61,8,2,53,81,31,46,41,91
-35,-112,-4,-2,67,85,91,93,119,129
-36,-76,15,17,50,74,72,79,104,122
31,22,59,29,14,10,-14,-5,7,117
121,192,85,24,-16,-68,-104,-118,-84,25
121,214,76,20,-23,-88,-156,-167,-99,-44
64,114,30,0,-33,-89,-160,-143,-34,19
14,45,-5,-38,-40,-63,-122,-106,7,46
-62,-2,-19,-22,-30,-4,-50,-74,-6,-63
-66,-28,-28,-9,-32,14,17,-57,-34,-122
-55,-68,-65,-38,-44,14,56,-37,-44,-179
-15,-61,-58,-41,-40,10,50,-12,-34,-161
39,-19,-25,-16,-27,6,27,9,10,-68
39,-7,13,3,-14,-2,26,56,72,0
18,-2,50,27,24,21,78,137,149,96
-40,8,79,59,79,64,148,200,198,229
-107,6,89,84,104,105,203,194,147,267
-123,-87,-18,42,84,106,173,125,11,157
-215,-211,-114,46,79,111,150,65,-121,-182
-264,-101,-97,156,117,88,104,-11,-239,-568
-105,157,-49,240,99,14,-28,-100,-303,-659
-73,94,-29,161,45,-12,-77,-49,-164,-455
-99,-3,-15,20,0,-12,-61,-16,-33,-257
-18,-13,-43,-105,-55,-11,-59,9,52,-7
121,24,-36,-151,-80,-14,-61,22,136,208
175,65,-39,-103,-52,5,-41,38,158,216
145,84,-21,-56,-16,59,-2,69,145,135
126,74,-12,-59,-21,32,-30,63,113,52
51,35,21,-20,-2,23,-47,59,94,-50
-55,26,74,30,45,75,1,76,75,-75
-238,-13,86,58,84,101,38,59,-16,-183
-221,-42,58,28,74,57,3,-12,-123,-180
26,-23,2,-46,-29,-61,-119,-116,-172,118
180,13,-33,-86,-96,-140,-178,-170,-147,253
233,30,-47,-74,-96,-136,-157,-142,-46,269
217,38,-87,-77,-87,-120,-134,-95,70,293
185,23,-31,-86,-85,-103,-108,-52,115,254
110,-18,-55,-99,-96,-98,-68,5,170,167
-16,-68,-75,-107,-97,-85,-53,60,197,55
-83,-43,-44,-41,-45,-44,-44,54,150,-33
-93,-29,-66,41,41,31,11,48,97,-38
-110,-39,-129,78,128,124,69,44,8,-171
-102,-96,-138,83,263,329,128,27,-73,-284
-40,-150,-72,79,362,536,169,-15,-96,-165
36,-248,-155,-7,338,526,158,-20,-58,93
146,-331,-305,-101,169,256,82,20,28,357
318,-163,-188,-90,-41,-168,-121,-22,56,542
416,222,107,-29,-257,-460,-251,-91,21,519
246,325,289,53,-307,-458,-173,-31,-30,183
-144,131,293,93,-147,-209,4,29,-117,-390
-494,-73,171,127,41,39,157,82,-192,-866
-449,-67,87,196,128,115,174,65,-199,-831
-269,46,169,217,85,48,109,10,-131,-473
-279,-2,151,173,58,39,109,34,-40,-263
-311,-88,35,48,23,36,119,55,-28,-268
-193,-29,-26,-52,-58,-37,4,-32,-115,-315
21,98,-81,-90,-114,-93,-54,-113,-149,-184
130,181,-1,-81,-116,-130,-104,-184,-193,-141
64,133,1,-56,-83,-134,-110,-175,-217,-197
18,58,7,-63,-78,-108,-68,-102,-107,-141
41,30,24,-66,-105,-91,-52,-55,-15,15
21,-10,39,49,-88,-62,-78,-12,17,34
-9,-43,23,199,-18,-54,-74,-2,0,-37
15,-21,8,238,14,-86,-97,-63,-42,-78
10,-18,-3,85,-3,-81,-60,-94,-95,-119
-44,-76,-117,-210,-101,-56,-19,-63,-92,-123
-18,-84,-205,-303,-115,-3,43,8,-5,-22
89,-41,-166,-240,-56,54,103,67,59,119
126,-63,-224,-252,-29,56,114,111,109,191
58,-228,-308,-252,-3,77,145,160,183,273
-33,-338,-206,-116,68,111,156,153,196,301
-43,-42,-2,142,181,175,63,-15,5,77
-90,65,-4,339,277,284,67,-57,-80,-138
-204,-118,-113,432,332,363,153,65,37,-187
-204,-151,-238,342,258,249,112,87,68,-109
-97,-51,-159,240,182,92,51,85,49,-8
135,171,299,222,83,-51,-8,64,51,188
247,278,522,101,-90,-150,-66,26,55,357
269,343,484,3,-183,-220,-158,-87,0,437
386,297,221,-86,-230,-256,-227,-173,40,644
396,107,-43,-171,-266,-264,-255,-145,156,717
128,-76,-25,-102,-188,-173,-167,-27,251,344
-108,-170,-62,-88,-135,-109,-95,28,186,-85
-137,-130,-124,-176,-106,-80,-51,1,27,-393
-21,18,-47,-164,-65,-35,-27,-38,-64,-404
-19,48,25,-64,-26,-22,-16,-60,-140,-247
-108,-48,76,63,32,13,8,-29,-114,-163
-86,-63,63,48,17,10,10,-24,-80,-121
-14,-36,-42,-111,-77,-26,16,14,-16,-67
35,40,-16,-128,-114,-79,-12,20,27,-67
-21,64,133,42,-32,-43,7,-7,33,-132
-60,32,213,83,38,25,47,28,80,-91
-69,-11,190,4,22,44,72,89,144,0
27,86,163,40,27,30,12,63,160,113
177,132,26,100,29,5,-53,7,163,226
261,93,-105,69,21,1,-56,-21,116,294
316,70,-72,-25,-14,-29,-43,-66,35,334
344,86,52,-20,-35,-117,-113,-150,-109,208
166,56,129,-22,-27,-119,-90,-133,-118,123
-173,-78,34,-93,14,-6,79,7,-29,60
-294,-265,-99,-97,50,99,223,163,88,111
-315,-418,-176,-73,47,128,274,269,216,167
-104,-219,-95,-26,-45,-17,60,138,161,130
138,98,21,47,-119,-166,-151,-67,-44,-20
185,24,-49,8,-106,-164,-127,-19,-22,13
157,13,-53,-117,-107,-145,-61,59,9,-17
63,70,-22,-176,-80,-50,93,136,1,-140
-84,95,84,-67,21,39,147,111,-143,-297
-252,85,190,92,138,129,115,53,-231,-360
-284,46,244,191,192,179,122,12,-221,-272
-126,0,217,162,131,111,76,-57,-160,-46
127,-21,103,-51,-66,-83,-88,-160,-88,306
216,-35,-35,-220,-196,-205,-172,-155,66,479
180,-15,-151,-215,-158,-153,-111,-42,181,433
97,-85,-223,-144,-53,-57,-49,39,195,311
246,106,-129,-101,-11,-20,-91,28,188,434
487,420,37,-4,-3,-43,-142,-27,147,601
439,332,88,51,24,-2,-110,21,198,658
297,200,67,40,24,19,-69,51,225,668
85,57,-37,-15,-18,24,-21,60,224,527
-47,-5,-29,14,14,67,63,91,210,267
-196,-83,12,57,78,104,95,32,-15,-203
-551,-273,3,95,165,202,163,-36,-369,-877
-713,-438,-125,74,162,194,177,-64,-502,-1181
-363,-135,-70,45,73,57,33,-160,-490,-1049
-28,219,132,17,-35,-72,-76,-257,-432,-729
-62,136,153,18,-13,-19,-18,-163,-268,-494
-37,62,80,-12,14,24,9,-51,-34,-249
23,53,41,-52,-23,-20,-62,-43,54,-129
87,38,10,-73,-13,-27,-83,-31,84,11
85,-5,-37,-73,24,36,-21,41,229,230
2,-52,-86,-109,16,85,33,139,308,326
41,-89,-203,-227,-56,71,64,241,374,535
180,-81,-220,-218,-94,19,48,211,376,675
51,-31,-32,-12,7,53,94,114,106,117
-180,-5,135,251,144,110,151,67,-131,-511
-247,-76,117,301,181,111,170,83,-123,-555
-90,-122,-9,200,151,97,165,152,76,-137
37,-190,-68,168,146,124,164,231,268,194
145,-286,-107,199,145,146,156,241,322,359
168,-192,13,197,106,84,81,102,96,246
215,291,253,160,13,-88,-196,-229,-284,-137
-126,218,155,80,49,-28,-180,-193,-246,-466
-217,46,99,57,83,6,-88,-120,-158,-320
-220,-18,89,15,0,-58,-130,-176,-201,-303
-255,-106,-72,-7,-10,-46,-117,-114,-123,-253
-65,-107,-173,42,54,25,-23,-9,47,132
80,-12,-69,-9,45,53,29,10,33,256
-66,-16,-35,-101,6,58,84,56,39,131
-185,-107,35,30,66,114,167,133,126,111
7,-133,27,162,94,118,147,101,122,301
209,2,-37,-23,-108,-87,-69,-104,-47,247
100,-8,-12,-221,-276,-223,-202,-231,-219,-137
-17,-68,-1,-78,-185,-150,-146,-190,-230,-236
16,9,27,165,-4,-53,-74,-130,-174,-182
-81,46,131,317,120,47,36,-44,-193,-368
-342,-120,41,404,155,83,117,0,-256,-721
-452,-351,-68,425,202,113,143,39,-269,-885
-204,-278,-220,91,104,80,92,3,-219,-615
-23,-53,-164,-172,-28,5,11,-67,-202,-365
67,205,206,-19,-58,-76,-88,-169,-212,-228
190,458,424,94,-45,-80,-116,-190,-174,-113
190,366,241,-85,-60,-13,-47,-56,-36,13
108,172,54,-155,-51,-14,-40,-34,-3,-31
-14,69,-5,-56,-4,-12,-34,-37,-3,-131
201,142,-38,-90,-68,-28,-35,4,121,219
701,227,-62,-297,-198,-128,-96,28,380,898
966,214,-107,-393,-277,-186,-139,51,578,1275
947,182,-45,-241,-265,-194,-148,35,661,1446
705,18,-59,-53,-160,-128,-83,105,720,1475
116,-226,-183,27,-55,-4,63,208,619,986
-359,-178,-148,96,33,51,120,147,217,72
-508,-116,49,133,79,101,98,-16,-273,-612
-460,-298,-34,67,114,172,93,-74,-489,-1025
126,-81,-133,-28,97,96,-14,-144,-447,-690
569,213,-60,-1,16,-81,-171,-209,-277,-27
159,107,-9,137,38,-37,-68,-64,-6,133
-628,-28,27,118,130,139,164,135,99,-281
-1183,-243,-162,-22,276,378,415,276,79,-666
-951,-320,-270,-58,204,308,310,151,-84,-637
-278,-220,-333,-117,-16,-18,-32,-129,-209,-217
70,-83,-337,-51,-24,-139,-161,-205,-170,1
-64,-12,-9,181,78,-92,-80,-135,-181,-345
-139,30,174,133,-47,-156,-86,-142,-302,-638
-190,33,156,-182,-188,-90,-63,-110,-286,-626
-229,31,268,-310,-134,108,47,-36,-141,-366
-130,-73,63,-372,-95,190,103,55,28,50
-60,-142,-130,-350,-72,127,107,130,168,262
-28,6,105,40,126,85,92,110,159,235
188,263,366,339,205,23,27,9,117,385
321,304,388,367,105,-35,-8,-69,64,530
372,219,287,272,-60,-203,-169,-210,6,686
426,203,153,55,-226,-272,-190,-141,184,967
349,79,-77,-268,-298,-252,-124,79,484,1056
138,-31,-207,-384,-252,-212,-119,126,443,619
-143,-75,-134,-126,-79,-82,-49,104,198,-39
-69,-25,-106,165,0,-64,-58,56,73,-163
184,-30,-192,173,-40,-112,-76,51,193,360
286,-5,-189,112,-19,-85,-58,38,249,696
142,43,-132,132,4,-61,-112,-82,-25,12
-213,61,30,235,39,-41,-158,-183,-299,-811
-454,45,279,401,153,45,-58,-133,-322,-887
-344,50,208,198,101,66,6,-73,-234,-482
-152,65,-44,-265,-28,54,75,32,-86,-208
116,0,-167,-516,-162,-32,49,79,83,129
315,-31,-168,-505,-216,-65,62,125,254,470
302,-16,-151,-459,-161,4,116,154,269,437
86,-37,-110,-284,-58,52,110,63,6,-102
-138,-30,-29,-47,61,126,147,49,-185,-575
-294,-5,14,106,166,208,207,8,-419,-1065
-364,-31,16,41,142,193,182,-46,-498,-1161
-385,-79,51,-70,72,176,216,-1,-357,-874
-205,-63,-46,-115,52,184,231,32,-273,-488
74,19,-106,-146,43,162,191,90,-112,-78
337,101,0,-115,-7,69,138,151,141,380
399,-43,300,277,-16,-40,28,223,476,977
278,13,199,283,33,-3,45,215,379,835
21,122,78,213,90,51,50,127,185,475
-77,-134,-37,79,117,88,74,92,98,373
200,-258,-110,-4,56,-14,-48,-55,-16,395
652,-3,-247,34,-11,-171,-264,-250,-123,477
897,410,-266,86,-76,-265,-404,-357,-141,462
431,243,-266,136,-14,-132,-218,-128,80,302
-152,-123,-348,198,93,26,-3,121,357,-4
-484,-341,-56,221,64,43,54,182,441,-261
-606,-329,487,230,-16,-67,-50,104,375,-343
-327,-69,455,23,-130,-206,-250,-118,151,-69
31,84,150,-221,-233,-250,-295,-205,27,315
168,-11,-265,-382,-148,-75,-92,-44,142,429
411,5,-425,-411,-119,17,16,38,166,308
670,53,-278,-346,-166,-31,-8,44,214,515
716,102,-100,-15,-48,-8,-18,62,280,705
437,102,76,123,16,-56,-68,-5,54,207
16,6,49,-125,-90,-102,-91,-101,-318,-226
-373,170,129,-204,-126,-90,-106,-205,-649,-711
-303,311,279,0,-17,-7,-54,-211,-686,-885
126,300,409,459,221,141,74,-71,-309,-227
127,119,395,759,386,301,182,99,60,279
-331,-248,105,594,369,357,256,221,192,210
-649,-482,-93,201,299,290,258,264,221,138
-943,-455,-15,157,417,370,327,235,24,-205
-1064,-154,-20,-68,399,474,445,244,-328,-1011
-754,137,-182,-525,104,315,364,133,-684,-1645
-260,205,-177,-620,-189,-43,-10,-190,-887,-1481
268,257,-23,-449,-328,-309,-242,-339,-751,-851
818,325,112,-260,-341,-386,-294,-264,-315,57
980,367,209,-5,-234,-273,-295,-164,116,743
636,228,245,285,-75,-148,-177,13,547,1026
180,24,191,313,21,-81,-59,195,888,1100
159,-46,77,15,-78,-126,-134,201,1032,1403
586,71,-106,-191,-218,-235,-203,172,971,1566
784,147,-285,-86,-40,-39,-20,217,590,896
698,157,-149,8,55,116,74,98,63,109
553,29,-168,-75,-145,-96,-125,-152,-156,6
-206,-269,30,136,-62,-94,-70,-82,15,-56
-816,-526,-54,273,130,108,236,261,333,132
-720,-446,-220,-168,-85,17,233,260,212,40
-1124,-372,-102,-289,-121,-10,131,48,-326,-1296
-1358,-443,105,33,110,127,209,61,-367,-1603
-411,-303,72,236,295,223,201,42,-138,-351
728,80,-132,57,134,19,-44,-103,15,808
992,387,-120,-106,-106,-275,-329,-294,101,1283
791,473,-91,36,-78,-314,-432,-369,167,1288
-149,160,-284,71,132,8,-107,-106,8,5
-1525,-316,-344,99,301,292,182,3,-727,-2263
-1416,-285,-35,228,270,226,104,-134,-1030,-2444
-426,0,200,332,160,88,3,-166,-714,-1157
-91,214,675,571,33,-131,-192,-263,-546,-564
-105,134,604,509,2,-150,-192,-204,-380,-405
-37,-158,297,233,-24,-102,-113,-131,-206,-172
386,-202,-51,-229,-109,-5,-12,-38,-3,169
947,299,-315,-621,-134,74,-8,-46,56,138
1505,762,-27,-181,-18,-22,-194,-202,10,245
1523,769,149,397,185,-46,-187,-65,329,656
467,347,96,416,316,154,187,369,656,559
-658,-177,8,48,137,139,302,359,289,99
-1165,-149,246,-345,-241,-195,-49,-169,-448,-428
-967,-187,117,-517,-362,-223,-93,-180,-412,-114
-191,-329,-270,-806,-356,-71,93,207,208,517
-277,-493,-449,-749,-107,255,443,604,652,307
-745,-449,-288,-383,148,449,577,679,636,-190
-958,-131,169,-7,271,429,466,435,197,-721
-768,130,564,149,242,264,234,10,-424,-1038
-375,226,634,435,95,-202,-381,-697,-1060,-1015
-462,-240,230,957,214,-317,-679,-945,-1076,-877
-692,-658,-362,1212,481,1,-414,-606,-598,-763
-770,-795,-804,759,483,231,-135,-185,-90,-424
-468,-603,-414,578,390,245,-98,-100,77,170
326,-57,315,439,124,90,-25,34,448,1193
898,194,465,-155,-243,-126,110,303,979,2056
1278,352,179,-754,-563,-339,81,373,1195,2497
1186,580,16,-1099,-734,-444,-56,236,896,1809
903,464,-180,-954,-474,-204,28,188,369,721
1076,470,-106,-736,-289,-89,34,53,-95,302
681,426,30,-374,-152,-59,27,-67,-381,-147
-182,315,96,-107,70,128,191,-8,-543,-934
-461,52,-8,-49,201,251,282,123,-371,-1015
-451,-68,-106,-147,142,181,221,119,-271,-1023
-500,-3,-18,-206,47,116,164,81,-299,-1113
-432,40,30,-233,-41,46,87,40,-277,-856
56,173,112,-258,-146,-95,-37,19,21,-93
271,142,-2,-327,-207,-85,16,185,525,611
-148,-115,-207,-264,-74,77,192,356,822,842
-269,-196,-246,-10,157,204,242,309,736,766
-396,-192,-174,162,280,248,233,124,155,-149
-468,-125,166,166,112,70,80,-187,-655,-1238
-137,-31,392,-29,-193,-274,-222,-365,-632,-786
168,-61,-53,-306,-323,-324,-236,-175,50,391
651,32,-397,-420,-403,-357,-240,-67,484,1381
695,36,-396,-257,-391,-385,-298,-44,551,1679
498,98,-3,68,-177,-223,-183,86,523,1436
324,176,286,308,53,-9,17,150,231,498
63,65,142,221,78,75,128,202,142,-233
56,54,48,46,-12,-1,61,174,268,-231
164,102,119,67,0,-16,33,151,283,26
80,19,63,220,123,74,83,81,42,-36
78,-210,-91,236,165,97,59,-71,-259,-155
481,-151,-47,220,108,3,-75,-302,-564,-24
622,355,307,244,110,23,-83,-403,-810,-210
-71,579,382,70,135,169,92,-223,-678,-949
-905,104,78,-2,153,215,126,-45,-338,-1134
-1001,-235,-90,53,232,308,182,148,74,-619
-921,-367,-136,135,318,387,284,281,188,-440
-870,-425,-77,370,336,253,139,-3,-345,-957
-595,-349,3,442,138,-68,-142,-410,-849,-1172
-287,-338,-127,180,-43,-192,-181,-369,-610,-525
168,8,-206,1,-94,-153,-138,-196,-205,-19
455,146,-83,268,-29,-153,-224,-209,5,365
479,-12,-7,560,53,-259,-423,-306,65,711
540,-82,-256,297,-116,-441,-543,-186,436,971
327,-238,-658,-371,-280,-337,-333,144,813,864
462,-52,-574,-795,-391,-240,-197,246,845,1183
478,310,140,-378,-158,-27,-42,225,538,1173
413,537,635,-84,-24,89,19,90,-23,479
325,226,245,-159,-94,53,84,99,-276,-223
-132,-75,-63,-179,-162,-36,124,174,-217,-981
-550,-29,128,-98,-189,-122,80,160,-72,-1327
-855,51,406,125,-25,-1,122,120,-155,-1469
-574,-10,97,17,178,254,309,124,-271,-1059
625,-128,-326,-324,72,250,309,134,-29,521
1793,-18,-321,-334,-92,104,156,137,482,2506
1781,274,-127,-226,-106,19,29,93,661,2725
407,261,164,189,118,95,67,60,393,1309
-1210,-151,340,642,361,277,239,112,-137,-670
-1465,-90,325,508,241,174,99,-115,-788,-2158
-999,-97,156,177,55,-85,-198,-449,-1153,-2294
-667,-60,31,239,104,-107,-223,-360,-852,-1672
-765,-220,-129,268,195,86,60,-13,-255,-1225
-838,-340,-86,252,166,112,80,-3,-168,-1095
-362,-113,16,-76,-5,-1,-79,-129,-127,-592
-64,68,58,-170,-70,-81,-170,-238,-192,-236
69,73,56,-57,-49,-76,-87,-93,-57,177
671,127,-233,-275,-164,-93,0,188,411,1017
1133,70,-556,-494,-379,-257,-98,250,855,1820
1442,102,-291,-306,-526,-508,-349,155,1166,2317
1642,302,49,-233,-493,-507,-362,197,1263,2234
1317,236,-75,-224,-297,-266,-129,325,1128,1791
361,-147,-355,7,102,145,249,458,720,889
-377,-347,-434,213,418,419,423,314,-54,-558
-384,210,230,255,355,268,160,-226,-876,-1265
-496,602,955,373,4,-189,-344,-944,-1736,-1768
-132,475,981,640,-116,-380,-556,-1180,-1975,-1575
11,8,385,535,-66,-217,-370,-736,-1196,-764
-716,-736,-321,148,-1,26,56,40,-93,-319
-1164,-860,-246,192,136,135,216,414,521,-217
-990,-438,-6,99,304,350,398,646,914,82
-1277,-125,60,55,463,591,577,619,629,-323
-1141,92,152,276,507,543,408,180,-128,-714
-62,84,-80,-4,225,245,102,-101,-295,167
505,-91,-322,-501,-237,-142,-157,-201,-175,547
403,4,-210,-626,-370,-260,-205,-122,106,267
-36,80,-157,-506,-145,13,46,195,439,-85
-599,-67,-66,-250,198,396,341,354,196,-1026
-881,-201,-126,-22,443,507,368,184,-401,-1775
-700,-235,-165,57,334,215,118,-120,-833,-1390
-93,3,-21,39,70,-131,-123,-293,-804,-375
405,273,267,90,-67,-127,-177,-245,-480,373
768,272,68,-64,-174,-13,-84,12,161,1172
662,68,-125,-274,-271,-38,26,343,834,1480
202,-48,45,-366,-290,-55,69,452,933,803
82,-113,-159,-382,-203,28,155,464,890,611
-19,-246,-323,27,-45,68,116,312,615,525
30,-128,-182,431,21,-57,-172,-134,-25,162
229,-81,-144,155,-69,-106,-309,-340,-233,144
129,-191,-111,21,-59,-88,-247,-226,5,229
37,25,112,411,305,191,54,53,122,56
51,349,411,445,327,227,173,31,-274,-544
218,233,314,324,111,-57,-143,-377,-776,-562
413,202,369,528,58,-180,-382,-622,-893,-282
257,109,459,786,74,-245,-396,-577,-652,-249
-472,-275,284,736,68,-246,-332,-394,-251,-518
-959,-454,-143,341,66,-87,-122,-87,102,-641
-660,-314,-485,-420,-191,-86,27,231,565,-66
-122,-163,-549,-865,-419,-69,151,485,837,507
419,17,-377,-924,-375,70,313,552,723,853
957,252,-81,-985,-460,-50,174,364,559,1404
1259,489,117,-737,-409,-106,16,201,645,2006
1360,495,195,-343,-291,-150,-117,8,703,2397
1036,376,82,-173,-213,-139,-165,-38,677,1966
-767,281,322,296,453,514,290,21,-680,-1966
-428,185,137,82,231,216,39,-267,-1156,-1981
-217,54,-33,-25,32,-36,-56,-215,-847,-1462
-202,56,129,98,-10,-104,26,-57,-466,-1218
-332,72,329,341,30,-50,96,33,-200,-1041
-401,-18,119,340,168,126,210,124,22,-538
-71,-107,39,209,138,78,115,-2,118,437
519,-225,-424,-377,-272,-183,-98,-12,520,1456
179,-157,-624,-614,-249,-36,102,222,540,695
-213,28,-10,-184,-121,-37,103,251,337,-134
-76,137,107,-218,-373,-406,-353,-147,-84,0
138,111,-215,-335,-340,-346,-382,-308,-261,551
26,-51,-367,-277,-135,-127,-160,-75,123,1098
-353,-75,-7,94,209,173,125,184,262,425
-969,-88,365,477,527,478,416,333,-64,-1195
-949,-40,390,451,479,415,316,41,-662,-2302
110,88,72,97,123,85,-3,-267,-691,-1457
809,87,-215,-157,-73,-41,-80,-289,-421,-338
763,-22,-41,-19,-25,-31,-41,-220,-189,226
413,-182,98,141,48,-14,7,-85,70,621
-109,-334,-109,-22,-28,-19,47,90,299,792
-303,-165,-39,-153,-127,-87,-30,59,217,457
-335,247,195,-17,-92,-136,-128,-64,-32,-373
-587,238,326,311,138,-11,-59,-110,-325,-1149
-639,79,359,535,294,89,12,-166,-579,-1230
-173,-10,171,482,186,-65,-185,-384,-705,-562
367,-190,-138,315,29,-178,-271,-269,-310,411
683,-409,-257,-19,-117,-162,-109,142,545,1544
508,-173,-155,-399,-252,-178,-39,321,1022,1775
-29,52,-310,-421,-137,-42,76,345,881,1040
-360,-100,-199,-197,12,126,218,394,648,407
-373,-105,109,-64,39,83,91,144,212,-221
46,17,80,-7,-26,-54,-91,-17,150,-34
649,230,-149,-47,-105,-132,-137,71,530,747
555,283,-12,187,-21,-38,-43,141,560,882
-81,161,500,798,234,41,-41,-85,-76,-3
-58,246,572,768,284,-32,-190,-497,-960,-837
768,272,87,45,-126,-305,-392,-600,-971,-271
1205,414,165,-108,-282,-365,-429,-450,-687,-229
592,529,567,39,-156,-233,-318,-294,-538,-883
209,407,332,-406,-321,-280,-265,-187,-238,-533
296,72,-320,-705,-358,-272,-221,-159,-175,-66
415,-164,-558,-674,-326,-228,-174,-214,-322,406
415,-262,-605,-601,-258,-141,-46,-93,-44,943
-871,-505,-441,-38,213,272,323,284,486,631
-2227,-857,-253,658,676,628,650,684,977,78
-1782,-842,-57,800,618,482,507,666,1055,-47
-630,-437,-149,498,304,142,160,297,453,-349
-41,-273,-469,76,-66,-150,-68,36,2,-368
-552,-359,-268,365,203,127,202,149,-251,-805
-781,-229,41,352,533,584,602,318,-538,-1462
-460,141,175,224,467,515,429,30,-959,-1605
-579,-36,352,767,546,285,78,-324,-1118,-1295
-556,-100,390,545,420,155,-15,-291,-691,-686
-115,236,333,-268,-37,-3,-39,-141,-220,28
336,407,307,-708,-337,-93,-22,17,153,506
480,315,137,-720,-371,-112,-40,88,373,882
705,250,-183,-498,-245,-63,-38,102,496,1304
1093,209,-451,-511,-315,-151,-69,207,874,1804
1434,236,-338,-521,-482,-389,-233,235,1167,2034
1389,295,-114,-580,-636,-589,-421,54,844,1303
952,252,-43,-293,-462,-457,-354,-57,409,464
330,119,67,105,-183,-238,-211,-131,40,-183
-564,-120,-1,52,9,34,36,-47,-198,-919
-1130,-166,114,188,206,252,224,27,-400,-1640
-756,11,307,371,350,376,288,33,-521,-1495
29,26,349,220,249,293,227,59,-232,-210
554,-126,61,-93,-81,-30,-42,5,191,1340
584,119,-94,-228,-276,-250,-215,-48,419,1916
411,193,-153,-235,-189,-128,-86,-21,150,1118
2,87,-60,-117,18,57,39,-75,-364,-136
-461,-35,-65,-160,70,92,33,-126,-451,-622
-1173,-210,-7,-15,193,215,123,-11,-243,-1066
-1347,-296,111,357,353,331,193,44,-243,-1596
-1043,-322,-14,429,433,428,294,97,-303,-1653
-480,-412,-449,174,405,416,288,77,-212,-905
200,-287,-505,-108,263,410,338,223,242,230
270,-166,-207,-412,-10,292,398,396,590,717
199,-203,48,-115,-155,-126,-33,-4,245,662
621,-134,401,667,-109,-429,-458,-318,181,1019
804,179,564,809,-242,-627,-613,-365,276,1033
158,346,471,415,-248,-566,-506,-372,-42,135
-404,185,217,-8,-174,-241,-149,-103,-221,-510
-614,282,251,-346,-33,136,197,106,-379,-844
-223,272,58,-542,18,310,364,100,-543,-809
403,183,-94,-312,21,182,205,-37,-570,-658
407,274,31,-116,48,77,77,-87,-437,-630
144,188,50,-17,31,8,-2,-61,-222,-341
-113,54,22,3,43,53,35,24,-102,-143
-575,96,86,33,43,50,19,-31,-283,-721
-636,48,200,274,103,4,-48,-123,-388,-1013
-77,64,227,826,263,47,-64,-81,-61,-308
655,-45,-210,732,216,25,-47,81,596,1093
825,-153,-359,158,-52,-106,-108,128,949,1894
454,-85,-51,-129,-214,-215,-208,-33,628,1620
41,-318,-148,182,20,-54,-85,0,242,808
255,-341,-120,446,60,-122,-206,-150,-90,239
671,-201,-372,-273,-295,-299,-338,-216,-130,98
619,-131,-659,-754,-337,-183,-134,56,395,475
307,45,-333,-573,-21,212,267,380,782,614
-40,246,21,-395,258,494,472,315,342,30
129,333,-44,-606,62,275,261,-14,-282,-236
29,194,-148,-338,-14,-18,19,-112,-371,-161
-619,161,329,407,237,69,37,-95,-565,-993
-580,194,672,527,168,24,17,-77,-452,-831
-393,136,552,66,-37,-99,-50,-45,-121,-189
-347,9,177,-275,-173,-127,-63,-2,43,-14
-274,-70,-84,-296,-178,-53,-2,81,137,-43
-201,-47,50,74,-98,-78,-37,0,144,-51
-265,-175,215,547,68,-103,-112,-119,68,22
-172,-317,240,581,13,-185,-214,-195,125,68
-139,-498,-188,105,-177,-216,-208,-87,280,-135
-262,-648,-853,-245,-93,16,150,323,423,-479
137,-89,-614,-68,70,95,307,481,463,-120
771,452,-84,182,115,35,209,217,48,140
1388,881,522,203,67,-85,-55,-312,-690,-95
1973,687,183,-357,-131,-183,-182,-417,-442,1151
1572,242,-431,-672,-290,-230,-160,-197,157,1837
431,236,27,-318,-292,-304,-259,-247,9,937
-244,300,425,-188,-224,-190,-134,-105,-15,149
-908,-23,151,-148,65,230,295,247,-50,-941
-1675,-414,-162,-88,346,525,523,272,-535,-2135
-1393,-323,-71,73,439,501,351,-26,-963,-2301
-604,-55,-27,11,254,238,1,-324,-922,-1599
133,-35,-144,-275,-166,-106,-293,-410,-473,-443
936,11,-145,-236,-457,-463,-540,-404,58,799
1333,210,-110,-208,-496,-589,-576,-286,409,1451
940,370,14,-341,-512,-506,-376,-69,652,1340
-25,218,285,-211,-275,-217,-39,201,827,930
-314,-84,298,-15,-54,-4,133,246,706,883
-398,-521,-8,60,88,118,155,163,533,1122
267,-201,-187,-111,-75,-84,-114,-134,301,1431
796,318,-165,-343,-323,-343,-313,-228,208,1049
225,156,-93,-167,-216,-277,-200,52,301,-186
-454,-31,117,270,36,-85,-5,204,-2,-1505
-1661,-416,312,692,443,341,385,299,-520,-2592
-1944,-488,361,631,599,562,520,166,-809,-2354
-1170,-400,3,-20,223,296,248,-90,-644,-663
-536,-270,-255,-193,45,173,203,17,-184,349
-6,-60,-150,83,225,287,369,338,369,791
208,27,80,45,207,252,355,414,523,795
92,56,224,214,216,211,267,292,276,165
-441,-101,203,583,344,256,203,132,-98,-670
-644,-368,163,773,301,148,39,-17,-170,-463
-467,-507,-386,367,49,-50,-73,38,251,355
-135,-362,-782,-173,39,22,55,229,531,671
462,67,-165,-271,70,103,111,203,390,825
626,345,363,-171,149,285,283,228,207,736
80,-54,92,-249,-6,122,83,-72,-426,-498
95,465,236,52,-98,-142,-211,-315,-656,-1025
155,280,-39,17,-88,-121,-185,-200,-556,-947
419,34,-118,-121,-161,-169,-213,-77,-151,45
611,311,173,94,-134,-224,-246,-45,142,477
379,141,-217,114,49,-1,-23,140,232,236
-103,-109,-430,-39,150,104,-16,-23,-164,-331
-290,-171,-159,127,48,-142,-339,-348,-345,-235
190,-122,-41,-52,-208,-344,-439,-234,252,925
734,-75,-317,-520,-457,-373,-350,-4,770,1757
774,101,-127,-249,-281,-245,-207,34,646,1557
293,180,155,26,63,53,89,183,407,912
-203,285,478,49,187,243,307,155,-312,-597
-550,68,192,51,124,160,211,-86,-993,-2173
-475,-192,-17,228,81,7,23,-217,-870,-2144
4,-97,-25,-95,-101,-62,-10,-117,-352,-1308
152,-26,-99,-317,-189,-55,65,98,101,-680
-443,-253,11,63,79,150,221,345,437,-245
-715,-446,53,390,402,424,401,435,407,244
-477,-181,116,319,371,394,302,259,137,163
-140,247,145,-76,-23,41,-38,-10,-101,-257
191,404,200,-150,-292,-278,-322,-213,-106,-65
344,359,262,99,-137,-221,-254,-193,0,551
228,196,167,419,59,-130,-223,-343,-344,609
121,6,9,509,111,-122,-248,-493,-648,301
-11,-159,-176,84,-12,-84,-144,-406,-728,-211
58,-121,-241,-545,-233,-72,-14,-194,-506,-249
400,83,-270,-714,-152,55,155,97,-103,58
172,68,-1,-229,7,41,134,237,323,177
16,-187,26,-210,-192,-120,79,357,772,705
370,-159,-224,-478,-408,-247,4,369,1107,1541
638,189,-229,-394,-325,-203,-62,212,917,1468
120,46,-228,-42,80,148,200,237,396,324
-597,-190,-59,303,426,448,380,179,-249,-1092
-399,104,104,199,208,170,64,-168,-750,-1623
-9,396,254,63,-12,-97,-205,-381,-807,-1245
88,391,411,74,-29,-92,-172,-275,-341,-324
569,385,306,108,-58,-83,-108,-37,460,991
1114,376,122,130,-112,-171,-170,94,963,1785
1110,243,114,459,8,-142,-164,182,1173,2058
-127,-160,303,1201,389,156,6,165,626,1002
-1016,-356,231,1169,378,128,-133,-277,-618,-720
-966,-313,81,177,-145,-311,-499,-785,-1640,-2068
-977,-435,-94,-210,-276,-371,-457,-709,-1539,-2233
-468,-415,-422,-265,-52,58,46,-34,-507,-1044
-30,-272,-366,-327,19,194,200,217,-21,-396
1,-215,-379,-170,76,68,124,144,-9,-321
242,-56,-389,255,259,76,154,160,43,-25
597,303,117,592,298,98,183,201,160,392
912,426,331,294,64,5,78,129,383,1075
1163,385,207,-422,-286,-178,-103,-22,396,1556
1300,655,85,-1012,-662,-493,-406,-242,279,1659
563,507,1,-1105,-664,-433,-337,-131,294,942
-368,-50,-181,-898,-411,-159,-64,161,441,251
-768,-387,-271,-720,-265,-45,67,252,385,-128
-503,-357,-179,-309,-75,69,142,284,365,-36
-258,-225,-32,-59,25,92,153,295,557,418
-411,-214,40,18,-17,17,68,314,862,832
-320,-90,54,56,51,99,117,309,652,534
356,116,-44,-71,10,52,-2,18,18,313
339,2,-124,-169,-30,5,-65,-146,-417,-85
-210,-138,123,267,332,295,164,-169,-1006,-1444
-351,-154,356,597,570,418,209,-257,-1271,-1931
-145,0,365,502,457,253,28,-324,-1069,-1368
52,-114,-160,-5,150,131,55,-64,-353,-401
-685,-468,-735,-74,233,353,424,445,380,-193
-1184,-343,-318,275,445,487,481,406,174,-779
-832,-148,239,213,299,348,342,193,-249,-1082
-125,61,127,-123,-39,27,62,-81,-471,-540
521,307,-100,-128,-247,-296,-315,-354,-472,290
1111,251,-35,411,-173,-435,-468,-394,-193,1110
1655,133,-237,501,-97,-386,-392,-266,176,1798
1400,-188,-544,-56,-231,-317,-255,-13,676,2234
636,-5,-76,-232,-358,-379,-247,136,1098,2142
-429,262,249,-158,-268,-269,-128,317,1302,1173
-1252,54,118,-371,-116,52,260,636,1277,173
-665,129,170,-520,-88,170,361,537,770,-45
-433,89,165,-335,19,229,313,168,-339,-1316
-208,44,40,-134,58,160,156,-179,-997,-1796
643,104,82,104,89,56,2,-261,-594,-398
1478,250,233,117,23,-49,-91,-189,115,1094
1684,332,434,176,-86,-221,-271,-234,404,1580
471,296,629,674,166,-77,-195,-148,375,792
-1143,-27,326,873,443,192,82,-44,-116,-1075
-1725,-419,-372,371,353,237,137,-261,-1345,-3287
-1460,-365,-402,-129,103,76,-14,-478,-1867,-3501
-1330,-204,285,447,241,72,-107,-507,-1558,-2571
-898,-134,461,668,240,22,-168,-447,-991,-1271
-189,-104,-16,-185,-26,17,-7,-84,-208,110
703,8,-357,-777,-269,7,94,229,433,1217
1277,77,-363,-793,-376,-86,43,415,1085,2274
1527,87,-358,-864,-455,-170,22,615,1815,3018
1161,272,-180,-687,-367,-98,116,746,1987,2384
-364,242,42,-237,13,215,336,614,955,132
-1325,285,420,285,372,423,436,298,-135,-1650
-1125,200,422,396,416,369,312,-72,-681,-1861
-541,-126,-94,-57,-12,-68,-166,-556,-1008,-1198
-432,-377,-334,-310,-252,-275,-367,-632,-863,-701
-434,-360,-222,-239,-176,-188,-263,-409,-520,-539
93,-314,-198,-162,-74,-54,-86,-143,-191,-7
458,-479,-242,-127,10,97,148,151,97,598
911,-60,-106,-96,-54,22,111,222,279,907
610,393,97,21,-49,-37,40,141,133,-59
-232,311,238,348,208,176,217,169,-49,-830
-768,-64,279,569,359,273,288,182,28,-532
-795,-332,195,667,301,120,97,30,14,61
-303,-328,-156,236,37,-109,-119,-103,44,713
98,15,-288,-376,-212,-202,-217,-171,70,1038
-85,189,-112,-161,-66,-36,-136,-120,42,606
143,138,7,614,259,139,-23,38,243,575
865,124,-103,761,111,-155,-235,-16,432,917
1180,193,168,376,-345,-619,-579,-231,405,948
624,22,-17,-201,-463,-616,-546,-260,215,259
77,-36,-391,-703,-273,-79,4,125,333,-20
351,302,4,-879,-255,131,287,318,421,284
1043,547,201,-787,-262,81,263,167,-18,21
1175,558,350,-301,-228,-106,-7,-208,-581,-160
-45,257,317,-19,-40,0,72,-169,-644,-703
-2247,-325,178,164,318,417,481,212,-566,-2103
-2594,-559,178,166,300,388,404,157,-631,-2354
-1557,-365,377,274,107,78,16,-195,-726,-1542
-818,-248,424,524,137,-26,-137,-331,-648,-583
-238,-279,22,349,2,-187,-214,-366,-314,558
238,-302,-355,216,-17,-266,-317,-419,-48,1344
574,-82,-302,426,201,-67,-249,-314,155,1398
655,195,-169,369,339,335,27,0,396,971
291,98,-153,362,412,583,242,192,236,-221
-380,-314,-224,208,294,418,253,225,30,-1138
-529,-532,-234,-422,-14,139,298,488,459,-789
-31,-360,66,-480,-175,-31,319,677,859,43
423,32,190,-108,-172,-171,84,411,757,573
737,-23,-43,360,96,1,81,294,757,1110
951,-499,-602,5,96,165,249,459,1015,1677
1008,306,-343,-586,-266,-147,-51,165,714,1381
800,1008,302,-526,-322,-271,-228,-106,74,630
646,636,303,-387,-195,-208,-216,-305,-547,252
215,250,112,-223,-241,-405,-483,-670,-958,39
-366,35,-218,-357,-273,-376,-383,-479,-663,-518
-585,-64,-313,-371,-179,-93,-5,51,-32,-714
-585,-139,-127,-298,-70,103,245,330,311,-366
-603,-190,62,-163,3,111,211,233,222,-128
-654,-93,273,150,194,198,205,105,-6,-231
-292,139,402,224,218,216,230,173,189,-2
-191,2,338,334,214,187,249,299,433,161
-275,-142,233,666,361,267,318,360,477,50
-378,4,253,815,329,177,147,33,-174,-747
-732,-120,115,678,227,-1,-91,-373,-932,-1498
-472,-48,45,345,156,-37,-151,-439,-1030,-1128
693,287,50,-245,-221,-312,-377,-462,-511,342
1257,203,-168,-558,-421,-426,-423,-249,299,1580
853,113,-159,-614,-338,-213,-130,134,760,1449
176,146,-169,-577,-248,-50,58,250,573,478
-712,-104,-195,-239,67,243,281,263,95,-965
-1025,-309,-24,94,326,407,368,182,-273,-1721
-326,-320,-48,42,218,252,196,101,-69,-559
511,57,14,-43,28,4,-92,-90,138,851
890,262,-21,-140,-117,-151,-210,-130,344,1590
945,394,-31,-165,-218,-286,-316,-288,91,1415
416,300,79,16,-62,-151,-241,-457,-607,-244
252,152,178,113,55,-17,-123,-419,-759,-937
487,157,49,-49,-102,-127,-169,-274,-270,-248
259,76,-100,-177,-217,-174,-123,-47,34,-19
-464,-72,-125,-87,-95,-42,7,37,-201,-716
-1021,-132,-115,37,57,53,46,-56,-495,-1355
-851,-142,19,109,79,58,50,-65,-401,-1126
-495,-60,144,229,130,74,39,-26,-148,-654
156,-68,-24,59,36,9,-21,-2,77,195
1657,191,-146,-234,-217,-244,-249,-132,214,1481
2616,466,-133,-273,-348,-389,-377,-189,326,2240
1897,428,-63,-257,-307,-279,-225,23,411,1546
-2629,-502,89,331,475,572,637,544,-175,-2288
-2116,-438,127,547,471,412,373,178,-442,-1939
-1121,-237,81,695,382,181,49,-117,-463,-1074
-688,-244,-127,361,286,146,31,-109,-381,-696
-489,-278,-238,-77,126,128,99,33,-132,-393
-204,-116,-61,-30,43,59,116,73,9,-84
190,31,-134,-244,-141,-75,-1,-14,112,440
366,77,-132,-196,-156,-179,-167,-112,202,767
587,116,47,96,-90,-250,-288,-131,285,836
1027,140,-57,106,-111,-270,-346,-43,600,1429
1335,215,53,230,-206,-344,-511,-181,655,2060
1144,195,121,214,-183,-189,-331,-58,678,2052
257,-50,-116,151,12,78,97,313,695,1176
-771,-205,61,184,129,163,246,337,200,-365
-1330,-347,28,-2,74,193,332,409,86,-1107
-1369,-393,-155,-423,-46,197,366,427,87,-1493
-1256,-655,-527,-477,192,478,598,562,139,-1327
-412,-642,-794,-355,343,651,790,616,161,-460
844,-166,-124,-321,-71,121,289,68,-187,323
1611,356,471,3,-222,-231,-186,-329,-164,1121
1699,908,507,3,-269,-248,-270,-232,249,1338
545,453,150,-192,-193,-82,-28,129,642,895
-547,78,38,47,45,57,77,157,412,123
-733,153,166,167,90,21,-12,-114,-256,-796
-304,171,-58,-150,-223,-276,-332,-463,-860,-1254
-231,26,-283,-425,-391,-382,-401,-403,-836,-1105
-325,19,67,-50,-77,-127,-137,-118,-607,-960
-103,255,447,407,256,100,59,-94,-730,-1023
-256,264,401,401,339,183,131,-158,-801,-1012
-506,13,181,274,249,145,118,-153,-523,-533
-389,-157,118,316,219,195,181,-19,-160,-12
-431,-387,39,489,335,363,336,180,122,90
-290,-397,69,596,295,234,199,124,171,168
41,-238,107,304,84,-24,-98,-90,49,172
252,-11,-40,-141,-119,-224,-335,-287,-84,265
818,407,-28,-306,-344,-442,-532,-380,127,1053
1342,498,-103,-468,-445,-425,-426,-136,768,2107
682,128,-269,-583,-389,-253,-150,182,1142,2011
-370,28,30,-298,-42,108,196,412,1008,835
-888,-2,205,-29,255,382,418,453,407,-560
-355,-29,40,-82,77,139,137,63,-392,-1303
412,14,-142,-294,-255,-282,-286,-359,-739,-1058
772,52,-182,-307,-362,-375,-356,-283,-267,-81
680,72,-104,-172,-235,-187,-138,40,361,967
139,-38,-64,-145,-76,-7,55,189,397,833
281,49,43,-132,-41,-16,-14,34,186,597
502,170,169,-114,-77,-110,-186,-78,219,446
426,174,146,-23,-6,-67,-184,-93,18,-145
-104,118,140,443,386,307,114,45,-326,-867
-1354,-178,227,885,749,588,358,96,-585,-1555
-1957,-353,469,1068,703,383,93,-353,-1129,-2123
-1537,-502,191,1083,577,145,-151,-539,-1090,-1736
-1183,-835,-505,830,499,163,-23,-287,-677,-1359
-914,-893,-869,342,265,113,93,-52,-306,-938
-585,-427,-520,-158,45,55,107,51,-119,-692
-162,134,41,-350,-85,17,86,80,-133,-549
367,477,631,-538,-383,-153,-45,37,36,252
770,495,553,-275,-424,-270,-188,-38,293,1102
868,261,118,62,-254,-214,-167,6,478,1435
648,53,-102,-168,-198,-119,-87,120,554,1216
276,33,32,-421,-217,-32,20,266,552,621
-188,68,62,-294,-4,198,251,431,412,-241
-508,37,-56,-229,195,400,409,456,157,-857
98,160,-74,-384,-30,138,145,171,25,-271
826,115,-172,-280,-210,-171,-175,-115,2,602
1144,-61,-220,9,-157,-239,-272,-147,174,1264
982,21,-286,-126,-179,-249,-246,-99,329,1226
223,-27,-433,-421,-235,-148,-99,0,241,606
-497,-22,-78,-309,-127,-30,0,28,-22,-380
-525,116,176,-143,0,45,54,27,-172,-824
39,201,140,-141,-68,-16,23,20,-111,-395
708,222,82,-201,-292,-242,-134,-5,190,639
1317,91,-77,-190,-506,-519,-365,-19,820,2131
1347,-126,-335,-261,-515,-489,-327,122,1368,2759
974,-75,-315,-364,-372,-203,-58,306,1469,2587
307,180,170,123,44,152,206,371,1072,1688
-361,350,266,548,509,487,452,277,30,-205
-692,229,125,502,634,569,466,-71,-1233,-1854
-273,157,244,269,374,320,131,-432,-1654,-1878
-29,-4,174,14,79,107,-88,-394,-1133,-1432
-896,-317,-74,-117,1,78,-31,-122,-629,-1813
-1414,-267,-89,-105,-52,-76,-72,-14,-242,-1615
-1423,-331,-84,-49,-50,-58,60,165,-4,-1224
-991,-520,-203,-11,28,97,208,277,6,-927
-390,-414,-130,118,183,226,185,143,-180,-508
121,44,198,250,222,178,66,-39,-163,135
262,439,409,295,161,42,-74,-199,-193,103
-147,271,297,258,136,15,-19,-139,-118,-109
-522,56,150,230,140,68,87,-28,-76,-278
-399,55,157,227,169,99,114,-20,-149,-339
83,86,68,93,42,-24,8,-46,24,255
404,18,-39,39,-100,-139,-39,105,548,1067
581,-78,4,99,-158,-185,-36,214,830,1313
588,-148,37,122,-95,-121,-3,189,712,1062
215,-274,-204,44,-1,33,137,171,418,480
-162,-155,-530,-80,28,65,99,10,-111,-540
-200,-202,-708,-98,19,8,8,-68,-343,-626
47,-229,-301,70,-29,-79,-75,-75,-274,-181
165,0,377,316,1,-74,-117,-190,-479,-283
428,693,763,120,-40,-85,-185,-397,-823,-518
300,474,387,-158,-50,0,-81,-288,-628,-341
-194,-118,-104,-227,15,147,94,-26,-261,-193
-572,-110,44,129,78,55,-16,-74,-226,-342
-161,120,193,306,-29,-184,-254,-199,-92,153
122,-70,38,243,-103,-267,-308,-179,121,617
95,-172,-34,333,-60,-277,-276,-147,237,531
144,-153,-290,23,-47,-71,36,207,603,340
-192,-283,-601,-515,-109,142,354,510,702,-187
-419,-110,-27,-288,22,223,354,359,346,-499
-367,45,232,-70,122,233,281,220,112,-241
-42,89,29,-224,20,129,119,47,-98,107
352,277,94,-130,-17,30,-27,-106,-315,68
367,73,-39,-115,-49,11,-36,-27,-229,-14
470,79,-71,-155,-156,-124,-122,-60,-24,70
723,378,48,51,-180,-276,-310,-255,-48,3
982,310,35,160,-177,-308,-354,-272,97,474
689,52,-156,-15,-189,-292,-321,-227,188,768
-77,-140,-145,9,-90,-146,-171,-87,276,664
-344,-81,110,252,78,84,30,154,548,903
-470,-319,66,438,221,263,224,333,723,814
-26,-542,-202,86,57,169,125,238,551,510
1196,26,-170,-226,-99,-21,-152,-56,166,555
1532,398,-104,-110,36,40,-121,-27,65,625
-107,94,46,37,172,202,139,140,-222,-680
-1324,20,276,-105,-38,24,66,32,-536,-1570
-528,199,139,-399,-435,-385,-310,-240,-476,-547
106,251,33,-89,-172,-197,-218,-164,-204,401
345,-242,-410,-176,148,225,207,187,114,808
216,-150,-191,-37,168,139,80,-22,-222,230
184,276,360,137,39,-102,-148,-307,-449,-111
-365,67,461,170,53,-10,39,-29,-167,-398
-1051,-256,86,-22,133,226,340,334,148,-1146
-1157,-305,-98,-81,155,308,372,358,152,-1328
-577,-185,-95,-107,103,269,267,235,31,-797
63,83,-7,-134,-79,-11,-41,-43,-154,-362
46,65,-40,-161,-203,-220,-193,-63,47,-96
-295,-108,-83,-142,-146,-142,-79,93,255,-44
-746,-227,-42,113,81,85,111,194,200,-334
-734,-134,105,487,374,260,215,126,-93,-587
-311,-32,137,575,419,194,99,-190,-631,-697
-185,-121,136,802,328,33,-80,-405,-950,-959
-103,-106,386,1081,275,-60,-167,-384,-754,-708
-110,-51,346,544,24,-214,-305,-425,-653,-558
71,-214,-381,-304,-203,-197,-218,-230,-324,-240
682,-38,-628,-756,-311,-154,-119,-21,127,559
943,167,-255,-630,-212,-48,-10,117,407,1246
580,155,193,-229,-42,75,124,223,576,1407
269,125,53,-300,-85,40,126,203,622,1166
148,85,-140,-392,-153,-23,94,207,700,929
230,152,-32,-281,-105,24,142,255,698,723
277,234,140,-119,-47,23,78,88,203,248
278,169,172,65,-25,-47,-62,-144,-312,-81
139,-125,-74,27,-5,-34,-128,-240,-460,-196
-173,-115,-212,-109,87,91,-60,-192,-457,-451
-448,44,-197,-110,145,190,59,-43,-354,-786
-518,-115,-122,-198,52,180,177,191,-4,-755
-416,-191,-58,-164,-18,110,176,251,100,-678
-234,-59,-4,-83,-22,50,89,134,-15,-504
250,190,262,38,-58,-66,-103,-87,-15,231
985,326,225,-23,-150,-176,-202,-105,405,1464
1282,298,82,-154,-198,-202,-149,85,896,2206
1056,139,-5,-283,-285,-222,-92,273,1214,2385
-80,-171,-110,-183,-97,18,166,457,1069,1365
-836,-341,-30,76,123,209,291,303,180,-464
-216,-284,-102,-26,-50,29,42,-114,-692,-1203
679,-89,-179,-185,-234,-196,-226,-326,-824,-569
1186,377,99,-42,-233,-316,-418,-501,-735,-78
1173,468,394,474,40,-114,-262,-317,-345,286
-69,23,308,619,315,213,111,46,-134,-586
-1296,-567,-95,149,341,381,365,233,-161,-1334
-1292,-397,84,140,295,266,229,44,-281,-1084
-1022,128,118,140,235,181,130,-53,-255,-811
-714,172,-5,-1,158,154,159,65,-54,-512
-485,33,-49,-101,28,70,120,158,122,-136
-63,-41,-215,-239,-175,-104,-48,93,125,111
145,-16,-309,-333,-315,-251,-206,-50,25,64
53,-5,-195,-292,-287,-239,-224,-175,-137,-85
-19,-17,-60,-136,-148,-144,-158,-188,-162,-70
-283,-139,54,284,59,-7,-31,-100,-56,-77
-465,-255,34,702,240,140,95,-2,-44,-265
-318,-211,-102,756,369,288,184,-48,-423,-690
-96,-147,-134,521,373,235,45,-336,-859,-749
348,-209,-215,-137,54,29,-31,-213,-308,465
686,-202,-396,-818,-168,-16,139,165,353,1152
1076,262,-430,-852,-222,-91,112,155,466,1202
1255,516,94,-193,-153,-178,-1,170,764,1590
901,314,319,128,-203,-249,-106,235,1062,1663
369,144,145,-58,-292,-250,-112,304,1098,1400
-266,21,182,-85,-155,-109,-9,362,928,995
-631,-194,190,56,-57,-52,-24,155,139,-119
-389,-203,65,52,-55,-51,-61,-107,-613,-814
169,172,44,-93,-106,-126,-181,-337,-836,-741
278,394,147,-63,-30,-63,-119,-324,-732,-836
-68,381,231,156,196,155,106,-128,-524,-1181
-673,181,261,227,334,319,247,13,-487,-1499
-924,-165,121,181,322,292,127,-88,-596,-1381
-675,-382,83,495,407,287,6,-178,-555,-888
-144,-322,92,812,476,241,-30,-174,-375,-49
128,46,274,534,210,-53,-202,-240,-190,473
69,-56,95,-94,-184,-280,-228,-56,276,906
176,-110,-347,-304,-239,-196,-48,306,834,1013
174,5,-411,-528,-292,-131,37,382,735,59
-144,-115,-348,-551,-264,-19,168,411,410,-691
-418,-226,-169,-373,-143,61,214,336,150,-769
-66,19,144,-195,-161,-81,3,-3,-100,-291
190,266,376,-126,-122,-86,-82,-249,-332,-122
196,278,196,-234,-82,0,-10,-256,-350,-160
3,98,-146,-315,-37,108,97,-73,-57,203
54,-7,-349,-291,-3,158,202,156,336,940
406,-50,-151,-161,-81,-5,90,244,635,1364
599,-108,112,11,-115,-104,28,323,829,1505
361,-97,108,339,28,34,190,415,766,1127
-462,-25,132,477,262,232,358,275,3,-675
-824,14,104,511,411,262,199,-159,-846,-1765
-213,191,243,797,302,-17,-202,-543,-1092,-1245
115,313,328,963,231,-149,-377,-646,-1089,-1012
-19,62,42,408,74,-163,-318,-500,-772,-658
-20,-211,-305,-311,-110,-92,-150,-188,-202,-98
61,-246,-211,-235,51,121,104,125,267,309
266,47,119,-38,164,200,183,195,288,221
565,356,216,-159,-46,-59,-101,-104,-19,26
780,120,-160,-494,-253,-163,-164,-119,39,346
837,-23,-305,-641,-308,-203,-199,-108,149,752
761,444,103,-405,-227,-226,-289,-261,3,795
379,603,298,-255,-90,-83,-134,-123,120,770
118,385,100,-298,-62,54,75,124,376,671
-493,67,-47,-171,56,214,278,321,401,64
-1161,-164,62,225,217,246,278,286,159,-741
-1324,-333,168,301,145,66,78,73,-91,-1155
-973,-402,122,151,19,-104,-83,-76,-126,-946
-562,-400,-134,85,9,-111,-116,-71,11,-455
-424,-397,-306,48,100,44,2,-5,-1,-193
-319,-446,-390,155,172,121,87,6,-78,-113
-116,-432,-252,337,161,64,41,64,263,442
42,-125,177,114,-75,-93,-66,103,619,773
192,386,602,-56,-341,-334,-281,-124,382,541
365,322,295,222,-84,-101,-71,0,338,820
432,62,10,223,85,44,53,32,143,764
1293,194,-524,-874,-437,-296,-179,-53,-11,624
312,-64,-471,-632,-271,-124,41,257,275,-121
-476,-303,-274,-231,-14,109,250,415,364,-506
-249,-45,-22,-82,93,168,239,283,242,-366
111,270,155,13,67,55,68,-10,-116,-336
219,530,306,154,135,51,10,-109,-129,-49
57,333,142,70,156,127,83,49,236,502
-305,80,77,56,160,157,102,83,177,222
-452,-2,248,191,146,107,47,22,95,93
-266,-82,66,96,68,37,13,12,127,151
-36,-189,-342,-159,-30,2,23,-26,-132,-236
87,-126,-359,-193,-82,-62,-69,-210,-553,-495
-134,-12,17,208,94,-29,-79,-313,-697,-607
-357,-59,78,536,270,63,40,-287,-797,-933
-282,-110,-42,351,189,34,33,-254,-687,-904
214,-39,-121,-147,-39,-29,-9,-213,-447,-405
668,13,-83,-313,-54,89,124,37,2,487
684,194,136,-147,12,120,165,120,170,1007
434,337,208,-110,-116,-68,50,42,119,899
-246,-12,26,-23,-108,-69,68,63,72,213
-786,-376,-22,405,49,-65,-24,-29,-57,-479
-293,-370,-175,360,-138,-289,-260,-125,157,17
270,-283,-275,130,-215,-296,-248,29,618,678
561,-258,-176,-69,-118,-81,17,324,963,1126
517,178,200,-157,-29,34,106,327,839,1161
382,574,392,-53,30,35,25,123,358,678
568,340,-56,-236,-48,-2,-39,-52,-220,-168
1181,223,-227,-415,-292,-273,-333,-411,-735,-717
1378,100,-150,-147,-331,-394,-470,-466,-594,48
-6,-208,-29,271,-2,-55,-99,9,24,212
-1486,-186,21,215,225,230,228,303,329,-365
-1039,-57,-80,-89,-6,34,80,240,547,97
-286,3,-23,-130,-120,-110,-89,55,300,-166
-440,-66,135,-108,44,100,14,-77,-458,-1217
-768,15,234,107,307,396,219,-65,-870,-1659
-1115,121,282,390,561,564,374,-44,-946,-1668
-1131,78,406,519,527,450,336,-75,-824,-1374
-666,-45,522,596,325,202,163,-154,-671,-912
-124,-49,406,456,85,-44,-34,-255,-511,-431
-41,-39,155,105,-71,-164,-201,-375,-563,-556
-77,-121,-315,-321,-146,-164,-200,-319,-415,-505
292,84,-331,-397,-109,-58,-49,-51,129,191
549,189,-428,-410,-155,-52,-33,81,365,757
505,128,-375,-245,-133,-62,-45,120,367,946
856,196,-43,-248,-226,-154,-123,88,399,1342
1372,94,-33,-376,-341,-235,-149,196,718,1995
1249,-76,-221,-346,-261,-158,-79,330,900,2000
823,28,-174,-331,-273,-174,-91,318,854,1526
128,-186,-285,-301,-282,-185,-59,394,948,868
-55,-211,-297,-290,-304,-236,-35,482,1267,941
196,-85,-172,-168,-174,-59,126,525,1167,1041
-222,-41,117,171,206,301,441,548,679,429
-1307,-130,360,506,517,473,534,315,-191,-979
-1151,-52,453,919,495,156,21,-388,-1104,-1596
-761,-113,218,989,440,17,-182,-633,-1376,-1661
-1167,-511,-355,419,381,243,147,-327,-1321,-2166
-1093,-373,-200,-77,202,239,160,-297,-1230,-2054
-423,167,450,-146,73,142,48,-273,-841,-1292
-85,243,302,10,121,212,146,-67,-431,-821
10,180,68,251,111,123,94,-74,-337,-783
224,188,-30,95,-37,-60,-77,-211,-329,-475
344,101,-12,-207,-166,-146,-177,-228,-166,90
541,89,-149,-429,-187,-83,-116,-61,161,682
646,175,-192,-592,-209,-46,-62,60,441,1011
375,106,-242,-587,-199,-42,-10,181,591,868
72,-50,-288,-407,-128,20,57,293,533,496
145,-34,-103,-21,28,38,1,154,220,242
112,-161,46,399,183,74,-62,23,69,183
-153,-554,-91,598,303,202,25,155,256,280
-172,-528,-71,745,339,194,-44,5,94,35
-146,-318,-74,520,259,74,-153,-170,-236,-401
-255,-257,94,166,28,-121,-205,-182,-286,-310
12,358,436,132,-177,-417,-432,-415,-392,-16
158,343,13,-60,-95,-273,-255,-228,-28,471
285,240,-137,-516,-211,-192,-131,-86,196,614
288,193,-97,-741,-362,-175,-70,22,276,305
352,-27,-373,-741,-447,-184,-48,185,408,264
688,114,-257,-497,-416,-240,-124,194,520,546
879,377,5,-139,-415,-370,-313,34,543,940
548,184,18,84,-236,-258,-248,87,653,1142
156,8,16,60,-13,1,30,252,691,1193
497,173,252,-61,-35,0,25,74,191,1105
1176,378,270,-230,-234,-154,-123,-120,-93,1177
1130,301,113,-204,-297,-234,-183,-89,146,1169
291,121,192,93,-72,-59,-20,56,223,283
-933,-134,191,205,253,257,248,102,-356,-1864
-1165,-191,159,244,311,280,194,-153,-944,-2647
-981,-170,205,553,355,246,55,-367,-1204,-2285
-746,-252,-54,379,165,125,7,-284,-806,-1485
-806,-420,-302,68,52,83,111,-26,-198,-711
-896,-411,-167,188,165,146,218,119,39,-333
-717,-194,45,252,300,278,326,207,28,-236
-565,91,191,199,347,326,304,209,-40,-409
-408,85,389,169,216,172,134,60,-184,-484
-175,-85,37,-127,58,99,37,-40,-349,-515
160,209,-278,-324,-79,-20,-71,-154,-357,-380
433,386,-35,-138,-133,-110,-111,-125,-35,280
553,260,105,-158,-181,-96,-42,29,246,970
457,33,-110,-351,-195,-78,12,188,448,1157
256,-96,-257,-474,-94,47,67,297,540,882
-2,-305,-347,-462,-25,200,171,388,448,281
-61,-339,-220,-258,-42,111,100,245,281,86
431,121,158,113,-81,-204,-180,-31,468,1007
925,351,131,155,-142,-280,-215,-34,837,2023
692,202,8,-42,-174,-181,-79,55,830,1834
12,-41,-20,-68,-83,-58,19,21,387,587
-687,-233,-50,-16,-2,24,69,-53,-146,-885
-801,-231,-86,63,37,55,63,-151,-607,-1630
-595,-190,-12,116,88,117,123,-76,-609,-1586
-144,-84,6,61,46,99,124,45,-314,-711
357,57,-43,-59,-81,-77,-57,-95,-361,-176
712,159,-25,-85,-130,-160,-149,-227,-454,14
1123,356,95,-68,-130,-191,-182,-274,-188,630
1214,483,220,6,-75,-134,-141,-239,-3,899
438,268,147,76,13,-21,-52,-154,-59,198
-752,-95,71,209,173,162,121,16,-289,-937
-990,-184,101,283,298,268,230,129,-389,-1204
-635,-120,77,175,217,184,144,56,-313,-770
-326,-84,-56,10,53,64,63,102,37,-160
-340,-182,-235,-85,-10,55,88,241,279,-110
-411,-368,-288,-86,39,117,156,323,418,-67
-369,-407,-162,120,210,250,220,293,294,-89
-241,-46,163,328,275,240,144,128,65,-82
234,239,329,337,117,-7,-101,-93,123,611
326,160,331,614,126,-109,-233,-217,73,699
23,27,234,1015,275,-50,-211,-282,-258,-71
43,-205,-113,731,209,-48,-171,-268,-330,-121
161,-474,-568,0,91,-47,-93,-169,-158,292
-10,-522,-419,-231,96,57,73,72,170,548
-154,3,180,-299,-208,-145,-79,51,184,25
-287,251,195,-668,-561,-406,-303,-136,-116,-843
-46,247,-68,-689,-642,-498,-385,-118,139,-384
331,171,-217,-390,-439,-350,-217,128,725,672
424,110,-164,-97,-138,-114,-2,275,897,1089
282,2,-77,-148,7,80,212,276,706,1026
261,4,135,-208,89,194,313,154,267,758
445,140,318,-107,26,57,109,-98,-144,582
833,344,197,-187,-91,-75,-113,-279,-274,654
851,251,16,-259,-126,-42,-59,-6,227,828
360,76,111,162,-44,-18,2,238,529,705
166,-55,78,189,-96,-110,-95,169,341,526
-73,-77,93,-28,-89,-62,-54,149,266,146
-280,-154,-44,-243,-45,34,49,99,-25,-622
-514,-246,-179,-216,165,265,237,123,-299,-1196
-1431,-182,66,346,571,599,388,-50,-1031,-2459
-1257,65,303,687,625,554,207,-441,-1681,-2673
-906,-76,192,611,446,289,15,-555,-1639,-2344
-692,-207,32,314,247,15,-61,-407,-1100,-1616
-141,-110,-126,7,-9,-147,-20,-137,-412,-664
303,-48,-221,-184,-199,-190,-43,-8,-11,116
421,-32,-293,-333,-220,-92,-14,136,320,648
206,-11,-140,-240,-91,42,126,342,679,957
192,224,115,-168,25,110,248,479,878,1000
293,431,300,-95,0,54,202,356,659,725
161,362,212,-41,-25,-45,-10,-24,57,274
-15,107,-18,-158,-105,-125,-145,-257,-245,50
96,-16,-145,-335,-253,-204,-167,-116,200,417
255,-105,-220,-399,-361,-307,-229,96,912,1158
667,34,-81,-215,-274,-282,-215,151,793,1405
699,170,83,-73,-159,-186,-205,-83,95,832
40,93,210,160,150,104,26,-193,-572,-313
-695,-144,139,265,308,286,265,-110,-684,-954
-691,-217,94,370,264,212,261,-92,-553,-1069
-353,-63,105,501,291,161,163,-296,-946,-1228
-109,-27,1,405,231,126,102,-327,-932,-795
45,-61,-33,207,114,31,55,-211,-457,-133
-175,-212,-7,274,112,16,68,-67,-162,-193
-500,-361,-187,533,179,2,-2,-32,-105,-792
-505,-336,-280,400,160,4,-61,-32,-88,-1052
-299,-215,-210,-208,-60,-78,-137,-53,10,-657
73,48,-19,-339,-114,-80,-136,-17,165,-43
387,154,7,-521,-128,37,34,209,505,487
323,-145,-117,-459,-173,13,96,364,784,882
333,-291,-189,-270,-258,-157,-50,250,754,1135
729,275,-25,-47,-320,-407,-383,-138,361,1172
769,417,256,284,-211,-434,-456,-245,198,1146
905,118,-67,131,-135,-294,-285,-112,287,1325
1087,82,-298,-265,-225,-194,-89,34,458,1718
873,485,116,-518,-309,-103,18,109,437,1346
111,529,272,-313,-74,53,83,93,160,124
-444,104,125,-159,71,187,203,192,10,-710
-112,-33,-135,-364,-83,72,120,159,-108,-905
256,-20,-219,-492,-294,-169,-98,-18,-181,-735
301,98,28,-232,-253,-237,-166,-93,-5,-331
-33,-64,79,-70,-63,0,59,157,352,32
-764,-350,-5,56,212,329,366,437,443,-186
-1454,-295,101,286,424,471,431,273,-197,-1153
-962,-10,341,451,413,338,218,-118,-776,-1145
29,167,533,644,281,107,-43,-313,-598,22
562,86,386,701,238,42,-57,-159,-56,892
313,-332,-56,336,121,64,59,130,413,1056
-311,-287,-225,92,114,147,147,243,422,331
-526,-10,-223,219,249,211,165,148,57,-567
-149,214,-172,-31,38,29,-23,-118,-334,-803
76,250,-136,-379,-264,-199,-229,-333,-504,-565
453,386,39,-383,-301,-232,-240,-284,-233,231
843,406,87,-397,-342,-247,-217,-145,207,1341
983,142,-132,-429,-401,-317,-275,-156,308,1841
1122,-35,-332,-416,-395,-345,-294,-107,458,2063
536,-198,-434,-327,-256,-197,-115,87,490,1258
-552,-170,-130,-133,-80,-52,8,73,6,-742
-936,-82,374,113,30,-7,35,-3,-265,-1750
-521,-129,230,122,142,130,180,129,-76,-1248
51,-19,-8,25,122,155,204,206,208,-555
154,25,-86,58,76,124,218,279,299,-139
-545,-188,-21,305,316,354,438,486,481,-17
-1089,-262,126,414,424,471,534,518,372,-420
-1134,-257,254,315,307,317,331,135,-421,-1212
-724,-98,168,114,83,16,-45,-336,-898,-1013
-207,246,161,-62,-28,-106,-221,-519,-976,-886
182,279,28,-235,-136,-147,-227,-409,-698,-406
272,169,-125,-238,-163,-174,-223,-321,-498,-92
221,95,-51,-124,-96,-119,-149,-219,-279,93
54,5,-57,-89,-60,-83,-76,-57,37,248
-221,-105,-41,146,18,-32,-24,15,15,-86
-128,-87,65,617,109,-78,-136,-99,-147,-221
106,0,147,735,135,-142,-227,-196,-263,-398
122,-34,85,400,98,-127,-203,-199,-295,-496
193,-144,-244,-185,39,48,0,50,104,156
260,-163,-424,-466,119,390,280,323,479,582
-42,-374,-438,-183,313,538,323,328,505,479
-252,-704,-647,-222,239,378,214,287,523,553
-62,-201,-466,-421,-129,-39,15,177,463,390
172,554,291,-108,-294,-447,-308,-100,150,-13
386,524,533,110,-138,-323,-177,-36,30,242
829,666,625,-22,-162,-211,-90,-39,35,871
947,442,266,-88,-133,-61,48,87,239,1326
1364,160,-98,29,-124,-96,8,122,569,1970
1828,273,-170,-99,-368,-407,-315,-47,689,2346
1371,380,-30,-299,-416,-404,-325,-60,569,1768
-154,-46,-8,-259,-212,-133,-55,78,320,398
-1743,-675,-83,298,303,287,306,254,46,-925
-2062,-619,-79,371,408,360,308,120,-518,-2086
-1208,-60,-10,22,91,31,7,-161,-840,-2314
-992,-75,-10,-155,-4,0,9,-118,-760,-2270
-737,-186,52,-223,6,107,167,89,-328,-1411
134,217,163,45,78,56,-5,-81,-112,265
162,157,152,158,78,-24,-95,-245,-325,189
-175,-25,213,355,170,2,-48,-190,-240,-39
-633,-172,252,556,332,131,81,-85,-197,-525
-593,-285,53,435,263,131,92,-95,-323,-886
-267,-283,-200,103,50,52,25,-135,-353,-707
144,-27,-26,207,42,4,-49,-185,-266,-175
523,285,363,320,-58,-189,-221,-248,-132,339
625,254,34,-289,-242,-212,-127,-9,207,690
235,148,-178,-739,-289,-49,109,277,480,627
-170,-26,-178,-287,16,152,217,326,565,539
-172,-67,-259,-26,208,213,184,239,510,496
225,73,-161,-178,18,64,21,92,310,793
664,179,-29,-311,-241,-185,-195,-71,235,1072
554,116,-52,-100,-172,-134,-103,-17,188,536
105,-69,-131,111,-13,37,90,56,40,-420
-211,-152,-113,183,105,144,142,-2,-327,-1260
-423,-286,0,334,160,171,141,45,-308,-1251
-141,-210,42,149,66,125,97,104,176,-323
371,97,8,-169,-142,-75,-154,-101,294,426
502,196,2,-221,-239,-208,-334,-229,270,789
91,5,-63,-111,-114,-69,-168,1,476,961
-496,-276,-231,41,122,209,160,307,470,569
-491,-352,-136,22,180,241,191,302,77,-197
-112,-58,245,-76,132,165,145,246,-136,-634
153,69,215,130,164,56,-16,7,-286,-504
203,38,-43,215,134,-3,-142,-248,-436,-153
12,184,217,399,90,-23,-132,-314,-569,-277
150,205,279,421,85,30,23,-145,-392,-104
455,48,-23,55,-48,-96,-88,-210,-315,237
190,-302,-282,-95,-38,-30,-36,-123,-211,151
-321,-363,-249,-143,43,161,259,171,40,-155
-383,1,-143,-352,-69,106,232,118,-63,-347
-305,286,152,-335,-208,-68,20,-102,-276,-576
4,348,372,-241,-280,-193,-132,-239,-347,-619
359,194,256,-223,-298,-224,-177,-140,-104,-162
633,-154,-357,-514,-319,-119,-11,430,1153,1066
-173,-156,-251,-229,-90,36,125,506,1195,765
-217,-135,-166,-46,25,69,111,401,844,541
430,-49,-203,-83,-59,-66,-63,143,433,930
588,-213,-135,155,-56,-180,-276,-164,148,1318
624,86,96,570,72,-236,-396,-351,47,1035
128,31,-95,654,274,19,-88,-69,173,548
-607,-109,-255,204,339,370,389,368,276,-127
-522,443,511,-68,177,313,347,242,-35,-629
-188,579,874,1,9,-7,-30,-237,-779,-1093
5,238,369,89,42,-107,-118,-408,-1024,-831
-117,-55,35,395,238,147,107,-195,-576,-282
-338,-210,-95,548,379,356,240,-35,-332,-439
-369,-281,-72,430,392,379,174,-27,-182,-252
-353,-179,130,223,206,118,-33,-161,-139,-160
-352,-112,63,-156,-44,-106,-77,-97,-243,-736
-380,-245,-244,-365,-116,-111,61,124,-259,-933
-130,-182,-161,-402,-161,-133,82,204,50,-137
-32,-10,-30,-383,-178,-142,6,132,259,240
11,162,44,-242,-94,-60,-11,45,120,126
331,347,-2,-180,-50,-44,-58,-160,-357,1
459,347,-12,-83,-42,-91,-97,-265,-466,151
593,208,-99,-156,-168,-186,-176,-187,-60,587
443,-21,-192,-198,-255,-265,-264,-87,280,561
121,-116,-141,-5,-105,-156,-138,107,537,235
-360,-42,80,339,195,81,79,264,472,-431
-718,39,275,575,406,246,238,283,155,-1043
-665,-78,409,467,239,124,119,82,-154,-992
-136,-138,278,212,-24,-130,-142,-191,-347,-419
391,-138,-96,-86,-140,-186,-207,-229,-331,99
259,-255,-484,-515,-200,-104,-71,-86,-297,-76
-190,-199,-324,-258,32,77,88,-21,-339,-237
-320,90,74,4,151,122,71,-81,-436,-342
116,196,33,-302,-23,22,2,-104,-312,-40
450,173,0,-269,-76,-28,-21,-70,-59,271
197,36,-93,-200,-31,35,50,31,62,-101
104,-27,-175,-220,0,118,144,135,88,-328
429,85,-125,-187,-65,21,29,28,119,202
281,140,39,26,-56,-94,-144,-127,64,345
-154,-11,58,163,-12,-89,-130,-7,342,620
-293,-128,3,98,17,-2,-9,141,518,945
-344,-176,-13,-72,-53,2,56,110,336,642
-182,-210,-231,-106,-34,76,182,165,236,385
-218,-88,95,62,90,165,243,147,213,105
-297,68,221,98,98,130,109,-58,-63,-430
-214,100,106,66,-29,-57,-159,-294,-443,-815
-101,-69,-134,-192,-184,-142,-183,-137,-132,-317
111,-164,-216,-319,-273,-140,-60,161,477,716
435,-76,-38,-295,-242,-116,-52,249,724,1223
550,-77,-207,-294,-87,46,60,310,605,936
468,153,-27,-99,104,184,166,202,117,88
729,499,113,-79,73,75,33,-124,-424,-178
709,477,213,136,-9,-164,-264,-435,-668,14
543,184,269,498,-13,-320,-424,-512,-458,408
595,-143,168,756,-48,-331,-381,-230,217,916
274,-364,-24,737,49,-109,-104,154,522,614
-472,-235,45,424,92,-47,-73,64,98,-320
-1206,-102,116,315,268,125,49,-29,-498,-1511
-1317,29,247,107,438,409,334,71,-693,-1840
-1194,-32,224,-194,293,377,334,33,-654,-1441
-450,-96,-18,-303,36,152,103,-46,-258,-179
356,-60,-164,-479,-177,-8,-14,3,187,717
665,-76,-127,-521,-272,-73,-36,119,442,1095
869,130,-64,-392,-283,-125,-81,173,637,1409
984,375,-64,-266,-298,-211,-190,103,643,1159
475,345,-90,-33,-187,-172,-160,69,436,346
-78,-119,-67,127,25,77,110,314,535,232
-366,-284,-48,136,123,189,178,296,305,37
-603,-452,-148,26,97,166,104,118,-96,-537
-259,-126,123,106,-31,-38,-117,-59,-69,-195
2,234,302,215,-36,-102,-162,-116,14,182
284,85,51,40,-39,-102,-129,-88,132,536
469,112,-117,-41,-29,-66,-95,-99,79,469
-3,-26,-338,-103,93,144,96,-11,-103,-80
-599,-207,-246,-57,141,239,217,44,-359,-892
-1107,-355,-81,-36,136,279,310,129,-581,-1696
-821,-295,-80,-112,62,195,261,102,-582,-1587
297,260,57,-11,-54,-84,-111,-259,-624,-870
704,257,-17,23,7,-48,-124,-265,-433,-311
693,83,-48,67,90,59,-8,-73,-20,166
261,9,179,295,118,63,-31,-10,178,282
-724,-225,195,332,211,136,81,35,41,-285
-1158,-310,85,305,278,138,97,-111,-432,-917
-926,-108,150,294,204,89,72,-182,-576,-962
-270,-6,-72,-83,0,12,56,-17,-69,-110
245,142,-154,-368,-139,-51,19,68,221,426
520,341,151,-450,-230,-58,-1,71,256,675
445,309,199,-243,-309,-251,-247,-94,198,727
182,161,338,292,-198,-340,-407,-209,200,568
-20,-67,218,543,20,-119,-261,-83,209,232
-308,-371,-236,227,79,70,-10,97,112,-166
-647,-458,-256,155,133,42,0,-27,-168,-433
-429,-157,-11,218,220,74,63,-42,-100,-23
61,173,78,-278,-139,-81,22,-47,-74,194
565,304,181,-339,-338,-226,-69,-110,-63,382
887,323,403,317,-58,-134,-7,-62,113,908
931,290,311,416,50,-79,28,10,360,1403
598,20,-230,-173,-182,-149,-8,103,534,1376
-436,-286,-431,-464,-107,97,260,403,589,184
-863,-236,-238,-540,17,292,406,450,212,-1008
-422,-128,-93,-299,32,157,192,123,-266,-968
-20,-327,-39,273,198,145,128,113,-85,-167
214,-409,-112,566,346,232,218,326,417,647
171,-211,-168,264,169,110,151,332,591,657
369,218,166,-128,-176,-194,-173,4,277,211
1081,625,56,-523,-419,-404,-421,-286,-52,122
1577,633,-335,-793,-511,-446,-495,-426,-297,170
1363,412,-347,-348,-282,-299,-403,-374,-222,273
834,142,-479,55,-50,-52,-125,-57,117,55
-596,-367,-636,133,185,246,225,335,376,-462
-1728,-253,-89,250,285,242,244,205,96,-533
-985,460,705,147,158,143,179,-55,-279,82
-228,467,726,61,-4,-2,76,-256,-591,371
-376,-114,218,-41,-59,-43,30,-197,-440,173
-878,-602,-103,-12,75,175,197,77,-215,-588
-714,-555,-88,8,118,164,133,27,-263,-829
-295,-108,19,-146,-13,-50,-81,-157,-369,-835
-38,230,229,-75,-57,-139,-160,-248,-511,-802
119,258,178,-128,-103,-149,-132,-184,-374,-236
36,112,38,-55,-74,-125,-101,-109,-177,66
5,-72,-99,33,-85,-107,-53,59,222,281
30,-313,-359,-122,-96,-43,47,259,621,449
46,-139,-227,-81,30,70,106,242,507,163
73,170,78,187,163,111,81,111,382,133
62,36,378,314,127,71,83,226,771,809
-296,-219,271,185,34,40,126,408,1016,815
-350,-162,-62,-145,-73,-15,106,310,512,-145
-127,23,-126,-289,-141,-70,55,113,-75,-783
-17,80,-84,-157,-52,-11,78,8,-344,-662
249,77,-116,164,-15,-122,-103,-283,-646,-175
433,5,-51,445,12,-242,-303,-510,-777,330
362,-6,38,399,96,-138,-205,-510,-868,-62
224,28,159,232,68,-119,-167,-453,-787,-360
181,125,253,46,85,26,36,-61,-125,-41
-124,84,180,-188,147,229,254,238,175,-368
-423,58,68,-199,112,234,237,104,-99,-776
-213,68,40,-146,121,246,235,55,-58,-283
336,127,-6,-144,42,151,200,120,381,635
973,224,38,-162,-141,-101,7,26,663,1605
1058,296,264,-79,-199,-180,-84,-20,609,1751
68,81,137,-6,-26,11,68,2,-12,126
-595,-151,-186,-37,93,149,154,-9,-565,-1199
-684,-180,-240,8,80,72,55,-29,-515,-1078
-682,-163,-134,91,91,43,-36,-26,-304,-936
-403,-211,-268,-151,-7,-5,-64,-71,-228,-984
10,-164,-401,-413,-156,-95,-110,-117,-125,-515
339,156,-139,-119,-171,-249,-346,-309,-189,-300
435,211,39,150,-143,-295,-439,-348,-96,3
401,29,-101,144,-64,-173,-279,-147,266,583
1004,2,-138,717,134,-76,-89,60,407,1395
758,102,249,975,182,-101,-165,-85,33,782
113,145,246,438,-2,-156,-220,-146,-190,-333
-339,13,38,-473,-272,-127,-113,18,-43,-719
-328,-89,-209,-1098,-373,-17,99,326,529,-1
-32,-160,-353,-988,-183,192,339,591,1108,1036
22,135,108,-201,61,205,278,485,1066,1439
-703,89,514,447,372,381,396,412,575,617
-1167,-299,396,723,527,450,429,152,-245,-457
-895,-558,61,714,388,212,150,-223,-868,-881
-361,-542,-205,309,102,-33,-59,-248,-680,-694
75,-140,-82,-29,-24,-112,-152,-266,-562,-621
281,298,-50,-263,-11,25,1,-115,-361,-639
416,518,-6,-348,-69,89,97,-3,-244,-591
293,437,308,-116,-206,-149,-177,-218,-380,-616
523,393,466,-74,-373,-470,-567,-476,-281,-35
697,413,88,-337,-473,-548,-650,-471,-142,338
400,284,-177,-360,-344,-356,-409,-270,-3,373
-498,-288,-410,-189,8,72,41,66,74,157
-1048,-745,-340,-25,302,401,419,442,210,107
-654,-436,6,187,329,372,412,476,157,201
-70,77,170,487,262,195,191,278,-120,-74
-52,24,66,729,295,190,241,294,-46,-236
-335,-263,63,628,255,171,289,208,-5,-239
-327,-340,138,101,-10,32,184,42,6,-57
100,-236,-120,-662,-328,-53,66,11,263,583
462,-210,-356,-861,-325,27,138,194,700,1239
463,-151,-334,-643,-205,97,260,414,933,1240
78,179,-81,-306,-52,147,304,411,767,645
-181,351,110,-1,66,147,205,245,459,215
306,326,100,58,23,16,-9,46,347,652
578,270,122,31,-73,-145,-215,-169,107,771
165,177,272,131,94,21,-83,-184,-211,33
-317,0,112,54,201,164,32,-174,-592,-974
-440,-97,-134,-70,142,135,25,-190,-845,-1467
-196,-72,-283,-174,39,36,-17,-193,-745,-1107
257,-18,-223,-111,-75,-136,-150,-230,-369,-112
437,126,216,221,-99,-267,-299,-323,-174,138
332,269,496,452,0,-204,-245,-301,-159,-132
93,117,203,293,84,12,9,-17,112,-125
-65,-150,-88,174,150,168,198,198,298,-53
80,-274,-157,37,52,81,132,145,262,231
51,-270,-133,-87,-91,-119,-84,59,347,793
-287,-139,-19,-13,-53,-104,-39,95,321,568
-376,-46,-40,38,-52,-34,104,165,139,15
-301,-2,-9,59,49,97,206,205,45,-329
-293,-23,-110,273,219,176,157,65,-103,-516
-310,-190,-250,459,261,145,75,22,-115,-558
-44,-190,-141,499,143,-50,-151,-176,-224,-253
169,12,180,312,-31,-245,-344,-397,-363,85
308,242,309,-152,-234,-265,-283,-288,-218,250
496,220,-69,-534,-298,-102,-18,98,186,574
650,269,-111,-485,-209,36,118,216,158,552
576,321,76,-164,-69,58,51,21,-125,284
437,246,159,105,-47,-58,-126,-154,-75,349
-96,-18,164,518,26,-163,-248,-190,-20,-204
-561,-296,181,806,190,-74,-153,-60,-20,-809
-771,-416,95,748,245,26,-46,3,-72,-872
-704,-487,-11,451,152,46,-9,118,166,-383
-218,-328,-101,-47,74,147,124,284,431,169
286,166,-6,-358,-110,-13,-53,80,280,424
460,103,-155,-481,-95,9,-18,136,488,1006
231,120,-134,-457,-33,111,94,202,437,915
-241,-7,113,-254,-12,125,115,141,105,288
-222,-85,-43,-296,-230,-131,-108,-101,-242,-154
-30,-149,-419,-368,-385,-346,-322,-289,-438,-289
287,-129,-444,-231,-323,-335,-311,-296,-315,245
947,278,-32,-204,-307,-332,-304,-292,-3,1289
994,391,161,-341,-197,-125,-85,-98,276,1358
219,324,306,-26,165,269,304,234,364,365
-603,118,411,306,355,425,465,344,48,-957
-1408,-229,380,493,487,537,579,399,-268,-1966
-1205,-316,171,580,509,473,435,217,-490,-1825
-176,-55,-42,306,272,136,52,-132,-575,-994
28,104,68,-74,-49,-139,-169,-262,-540,-972
-38,162,136,-157,-112,-140,-177,-182,-381,-1154
163,128,-181,-417,-128,-62,-69,9,-60,-619
228,21,-278,-379,-127,-30,-41,65,-34,-256
410,-65,-234,-132,-80,-68,-132,-79,-196,3
746,79,-82,1,-3,-43,-163,-181,-234,446
692,263,203,151,67,-18,-198,-304,-319,605
656,347,325,47,-48,-177,-366,-429,-236,934
63,148,217,61,33,-127,-276,-273,16,756
-704,-318,70,459,205,17,-38,-49,181,261
-682,-514,-434,348,87,30,82,130,408,344
-518,-376,-628,6,69,93,142,155,237,-165
254,410,159,-298,-74,-8,-23,-87,-322,-159
504,430,129,-483,-307,-153,-87,-13,-117,100
66,-84,-135,-302,-212,-93,35,191,187,80
-241,-314,-105,-132,-48,66,232,335,313,-22
-9,25,34,-86,-33,73,210,192,127,-33
347,246,62,-56,-81,-48,35,14,100,320
424,307,106,119,-127,-203,-200,-155,90,427
-142,-96,0,478,-10,-141,-157,-52,134,197
-169,-301,0,459,22,-98,-92,1,152,479
196,-61,-28,2,-160,-217,-163,-98,106,658
503,214,-109,-308,-163,-118,-73,29,275,713
533,250,-186,-371,-73,34,86,278,572,780
61,117,11,0,-54,-22,17,286,630,366
-606,-41,75,303,125,88,118,325,614,5
-557,127,161,76,116,111,102,198,269,-249
-1,369,249,-103,-40,-62,-99,-105,-199,-184
382,447,134,-106,-52,-86,-179,-363,-670,-200
275,230,-64,-229,-69,-74,-224,-536,-1164,-1070
118,-98,-321,-331,-47,-31,-147,-378,-903,-1253
691,149,-198,-71,16,-77,-165,-269,-350,-92
1186,248,-225,221,114,-17,-71,-37,184,1024
936,144,-217,159,68,-18,-15,87,514,1327
311,2,-313,-102,-72,-61,0,132,619,1147
-270,5,-100,-391,-99,111,213,287,374,61
-823,-105,86,-426,-10,280,348,328,-4,-952
-1352,-561,170,-92,-17,153,209,209,-149,-1142
-1132,-626,190,142,60,117,138,142,-132,-867
-748,-186,131,241,273,279,200,92,-277,-947
-556,-98,12,176,241,264,213,88,-255,-954
-123,-45,59,50,129,133,130,87,-24,-293
279,50,22,-48,-6,-46,-32,-15,54,388
451,20,-24,-123,-113,-116,-49,41,228,693
-398,-246,-64,-144,-51,56,152,228,301,63
-1084,-391,57,3,105,249,357,336,209,-475
-1077,-347,97,212,299,372,442,300,35,-608
-623,-266,131,285,366,378,347,75,-321,-548
-130,-114,241,384,349,299,141,-222,-707,-511
69,115,176,383,304,237,11,-233,-523,-266
-37,221,169,456,256,92,-116,-240,-369,-409
-214,88,373,746,211,-57,-204,-298,-456,-666
-215,9,529,833,176,-141,-196,-282,-422,-535
-34,-107,310,681,-1,-333,-352,-410,-442,-297
260,-170,-97,459,-96,-343,-376,-366,-275,30
532,-72,-405,-156,-67,-112,-186,-143,36,377
457,131,-195,-658,-236,-163,-166,-143,50,385
290,290,-7,-614,-310,-205,-78,-45,124,307
567,217,-352,-817,-375,-114,133,227,500,918
933,176,-355,-834,-510,-224,60,181,665,1527
985,263,-104,-597,-491,-330,-114,30,553,1393
624,245,-76,-206,-236,-200,-77,59,481,797
-73,93,37,33,67,89,149,217,280,-245
-636,-140,108,122,180,153,133,151,-64,-833
-651,-316,33,151,108,57,-2,-33,-196,-376
-299,-266,-59,36,54,67,-7,-27,-79,198
-206,-244,-238,-107,67,186,145,168,143,206
-261,-223,-260,-63,84,186,148,235,222,-2
-290,-57,-71,104,184,164,57,138,87,-297
-311,-67,35,165,248,191,65,99,35,-314
-74,-56,-29,-57,112,128,56,113,102,-10
83,-35,-173,-354,-113,-1,-2,129,159,165
307,88,52,-306,-224,-132,-110,209,630,630
162,34,19,-246,-226,-182,-142,190,712,585
235,180,43,-168,-199,-208,-199,31,466,545
320,267,-5,-111,-138,-143,-136,-16,162,234
433,294,38,-20,-34,-33,-69,-146,-361,-381
479,86,0,-10,8,-7,-38,-227,-620,-581
274,-190,-96,-116,-35,-27,-9,-139,-479,-747
332,228,129,-12,-28,-91,-72,-213,-389,-616
71,28,95,81,83,43,87,-32,1,89
-231,-235,-105,24,121,94,148,31,157,519
136,-7,-279,-111,-37,-96,-87,-158,13,872
551,-51,-425,-168,-149,-126,-100,-52,178,1313
547,-93,157,444,-109,-197,-187,-77,218,1136
93,157,159,-279,-64,67,204,277,762,937
197,59,143,-147,-45,53,126,84,66,-42
1,54,107,-6,2,2,-45,-292,-842,-1146
-680,-41,94,107,153,108,-19,-414,-1237,-1812
-1368,-80,165,160,310,337,248,-134,-1118,-2397
-1033,-65,129,50,219,288,245,-37,-862,-1898
-315,-143,-12,-56,65,118,112,2,-292,-416
-77,-233,-40,17,60,76,75,145,226,618
26,-194,-9,62,62,42,46,228,438,914
235,244,156,45,-20,-121,-156,11,235,777
60,225,144,46,-4,-57,-81,55,232,618
-73,45,48,33,15,38,44,125,229,201
-59,76,-4,45,2,-16,-65,-109,-94,-468
88,71,-185,-15,-84,-136,-243,-276,-276,-750
232,-26,-205,77,-98,-170,-236,-162,8,-465
401,-33,-50,265,-46,-173,-187,-46,381,191
31,-142,139,630,214,3,-48,39,405,269
-861,-494,-16,674,453,321,270,204,178,-99
-687,-372,-149,340,285,254,249,141,120,271
-49,152,47,148,-12,-75,-74,-94,182,474
469,476,166,-324,-178,-103,-69,-17,393,549
443,391,78,-587,-257,-93,-48,66,468,375
118,213,101,-222,-4,94,65,74,9,-544
60,152,97,-104,94,120,25,-214,-808,-1276
175,140,82,-208,-117,-122,-194,-437,-1039,-895
-17,5,31,-126,-121,-121,-178,-310,-737,-558
-30,-108,-40,-93,-55,4,-18,-20,-194,-94
558,-23,-30,-110,-136,-90,-74,35,227,863
908,115,144,113,-140,-170,-163,-24,393,1504
616,231,232,240,-95,-163,-169,-61,419,1536
113,-32,-181,-162,-178,-120,-77,47,538,1227
-706,-500,-329,24,74,168,199,332,561,172
-1357,-471,-60,456,382,359,306,320,37,-1439
-1070,-200,184,410,207,90,-13,-83,-536,-1809
-403,-197,199,283,9,-138,-257,-305,-609,-1037
155,65,61,169,-52,-215,-330,-357,-458,-416
248,183,-16,97,-36,-182,-242,-311,-358,-331
174,159,-132,-78,-29,-39,-23,-102,-149,-257
167,216,-433,-643,-214,73,220,175,153,18
488,351,-361,-916,-329,116,345,364,470,585
892,558,89,-508,-192,26,162,230,454,873
1016,595,331,-93,-148,-178,-164,-17,340,942
732,402,285,78,-106,-186,-220,-29,334,906
-55,-55,50,139,63,37,46,142,201,198
-651,-262,-62,61,99,123,140,92,-128,-456
-496,-321,-103,-126,-61,-24,0,-48,-221,-369
-678,-443,-238,-161,-49,6,17,21,-82,-422
-735,-375,-177,-40,53,88,65,67,39,-327
-522,-303,-77,34,75,90,46,98,205,122
-96,-146,-42,22,74,80,25,104,301,452
-31,-132,113,4,66,82,45,108,280,409
-201,-305,-23,37,131,189,152,183,263,102
53,36,-31,239,191,192,131,193,362,313
717,179,-50,373,140,55,12,50,378,1149
1554,232,128,292,-77,-253,-281,-257,268,1960
1626,197,159,-182,-435,-501,-458,-354,304,2195
315,-197,-208,-442,-370,-231,-99,80,638,1258
-790,-262,-146,-111,43,158,224,318,394,-447
-831,-74,104,230,287,278,287,249,-10,-1082
-980,-56,30,252,298,251,277,96,-366,-1567
-1024,-24,37,182,248,244,249,-58,-851,-2049
-745,0,57,-26,106,165,193,-96,-897,-1669
-507,34,137,106,137,164,184,-38,-666,-1230
-404,86,194,235,236,240,256,86,-325,-855
-363,205,228,138,142,136,99,55,-96,-601
-241,193,207,8,38,39,0,79,138,-355
156,178,105,-96,-34,-27,-69,1,88,-140
592,274,156,-58,-61,-114,-190,-215,-185,61
749,118,62,-29,-92,-182,-265,-322,-324,372
252,-249,-151,109,6,-112,-186,-278,-387,180
-70,-116,-39,315,-21,-226,-319,-444,-583,-228
-33,22,96,201,-140,-330,-362,-439,-436,64
-82,-189,-137,-58,-178,-240,-204,-191,-94,388
-108,-284,-289,85,-64,-158,-149,-106,24,194
-71,-252,-156,797,217,-74,-136,-171,-99,-114
588,-63,-305,584,183,5,-44,-55,175,626
1052,182,-434,-304,-100,-5,-11,55,467,1172
786,157,-526,-900,-220,79,160,326,709,950
429,176,-145,-849,-98,209,390,648,1015,826
-213,123,195,-554,-61,157,415,633,805,181
-739,93,231,-189,-123,-34,250,316,123,-909
-703,-15,170,-20,-96,-60,106,40,-279,-1021
-395,-21,109,-61,-38,12,64,-90,-352,-542
-229,6,86,51,82,56,51,-123,-389,-404
-222,-45,104,247,190,114,83,-58,-327,-207
-83,-67,195,389,230,143,45,-99,-365,-3
321,-17,312,609,205,89,-38,-106,-147,478
640,-60,239,617,85,-81,-196,-123,166,1035
397,-348,-81,4,-101,-128,-173,-28,285,729
-108,-339,-4,-428,-280,-189,-163,66,335,226
57,159,-271,-649,-424,-273,-166,163,546,371
388,216,-570,-737,-351,-120,6,385,765,469
630,201,-344,-513,-307,-161,-57,313,756,596
808,253,-33,-273,-247,-160,-74,286,829,999
648,288,19,-68,-117,-60,-16,185,490,551
-121,149,123,163,-34,-80,-110,-179,-331,-372
-1002,-120,122,266,129,56,-9,-294,-824,-934
-1187,-173,201,244,309,264,145,-272,-1150,-1695
-563,-46,173,291,336,259,84,-303,-1102,-1732
20,-389,-89,262,238,161,52,-136,-501,-768
574,-314,-34,70,15,-23,-66,-100,-137,136
791,352,249,53,-135,-218,-254,-254,-178,432
469,277,44,-100,-83,-74,-68,-8,94,521
-309,265,71,-271,-37,80,128,244,346,164
-916,-4,164,-53,147,282,358,444,539,102
-639,-144,66,76,238,318,355,357,399,205
-181,90,-15,-18,-57,-72,-124,-206,-486,-869
-268,-75,-132,-80,-71,-49,-67,-65,-247,-755
-155,-213,-241,-156,-52,26,48,98,138,-159
19,-89,-45,-31,-43,-11,-19,21,150,247
-28,84,160,244,44,-51,-123,-185,-261,-107
-308,-59,98,440,168,20,-60,-250,-585,-660
-366,-257,-46,560,271,166,92,-82,-329,-440
-260,-271,21,344,208,224,164,126,106,-156
15,-139,43,116,-25,-10,-44,4,187,83
427,97,88,-57,-282,-308,-277,-198,73,454
585,214,-52,-398,-346,-232,-138,-88,171,668
616,200,-189,-571,-308,-131,1,114,553,896
461,17,-308,-613,-291,-125,28,302,1110,1498
316,-101,-334,-329,-173,-90,42,397,1333,1743
321,0,-105,150,9,-40,41,305,931,1253
158,-74,65,300,116,51,77,236,523,796
-58,68,101,230,226,189,146,132,-22,-110
-545,264,254,140,277,229,75,-214,-1131,-2105
-507,240,284,65,243,187,35,-279,-1354,-2546
-11,113,152,-53,123,125,78,-119,-774,-1429
600,181,157,-29,-3,-28,-45,-225,-560,-352
1052,372,150,-23,-143,-228,-259,-437,-552,368
979,347,93,-75,-184,-240,-254,-397,-408,485
209,85,8,-79,-81,-62,-20,-141,-243,-23
-762,-272,-70,29,94,162,229,107,-122,-561
-755,-173,-52,73,92,132,178,59,-218,-735
-86,127,-33,41,-25,-23,-29,-128,-366,-487
158,12,-94,-20,-66,-53,-44,-97,-232,-151
-85,-233,-157,-49,-22,37,86,87,54,-85
-384,-176,-4,84,34,60,105,102,153,-304
-381,-132,13,185,33,-9,13,29,163,-97
-137,-251,-123,78,-51,-98,-55,32,348,498
150,-294,-320,-190,-197,-177,-65,174,783,1257
650,34,-236,-339,-340,-306,-179,173,990,1811
719,384,191,-50,-169,-223,-183,21,602,1469
220,389,343,119,124,86,71,60,252,629
-262,-41,-65,-64,161,248,284,288,345,21
-475,-274,-140,-20,156,221,282,313,138,-698
-454,-14,109,215,200,69,7,-30,-362,-1165
-515,42,192,355,277,158,59,-66,-463,-1111
-170,-52,15,37,168,181,129,-8,-291,-284
290,-17,-254,-186,15,55,26,-48,-59,431
306,-6,-258,-127,-51,-65,-95,-127,9,470
384,-75,-73,-94,-210,-239,-219,-171,79,608
470,-143,-52,-89,-301,-278,-162,-24,417,1183
812,53,-50,112,-152,-185,-117,20,456,1336
452,187,182,474,151,2,-43,-103,-127,241
40,110,200,483,226,94,15,-164,-437,-356
321,187,275,29,-24,-89,-165,-292,-523,-246
285,111,123,-349,-212,-227,-302,-349,-567,-483
-95,-51,-265,-388,-100,-68,-87,-131,-387,-750
-40,-63,-369,-350,26,90,109,115,-46,-559
-622,-159,143,122,203,208,217,271,143,-892
-881,75,489,501,208,105,52,47,-161,-1440
-444,127,170,567,94,-105,-205,-230,-406,-1000
-619,-255,-103,252,32,-115,-210,-202,-419,-665
-955,-417,-52,-10,84,-6,-94,-77,-386,-538
-421,-110,-12,-212,114,143,106,146,-35,123
174,385,209,-433,-37,154,236,263,238,464
73,330,200,-326,-30,145,244,296,384,375
-128,133,76,-155,-17,114,211,289,510,473
23,172,61,-142,-64,38,134,193,432,772
282,169,8,-164,-95,-16,26,90,338,1283
156,9,-94,-107,-63,0,6,43,247,1145
3,-63,-180,-52,-32,16,10,37,135,287
4,-276,-319,-187,-144,-83,-66,37,89,-318
-40,-529,-316,-188,-81,11,35,165,85,-504
-42,-477,-192,-39,60,116,81,105,-155,-529
-14,231,178,187,156,76,-21,-177,-537,-771
-44,466,291,257,114,-18,-114,-270,-384,-381
98,40,102,190,-56,-158,-204,-221,-41,422
289,-203,125,344,-79,-240,-284,-221,114,698
207,-239,79,334,10,-128,-141,-115,115,337
-206,-115,-82,99,49,4,24,-29,-70,-453
-363,-6,-27,-125,58,62,118,59,2,-406
-272,-42,-144,-367,-5,145,243,283,240,-210
-263,-140,-202,-218,26,156,242,328,164,-391
-349,-39,105,100,140,155,180,175,-97,-549
-428,31,380,203,187,204,229,133,-178,-529
-532,1,312,177,175,200,223,76,-253,-599
-386,-11,70,114,132,166,181,31,-201,-477
-172,-17,103,231,156,123,94,-63,-156,-245
24,-24,314,513,187,5,-125,-284,-180,39
100,-100,179,601,155,-24,-182,-323,-99,247
159,-100,-327,267,67,60,-28,-118,55,204
206,-216,-762,-188,7,83,56,40,183,358
556,-79,-363,-274,-41,-38,-62,-36,190,827
858,143,220,-306,-251,-231,-210,-117,200,1116
604,-237,-263,-385,-273,-166,-95,48,339,950
-156,-663,-390,-281,-159,-86,-7,136,240,295
-350,-234,-124,-341,-202,-141,-40,85,59,-255
34,584,218,-476,-271,-247,-142,-39,46,-126
317,581,286,-336,-131,-120,-21,108,402,822
408,328,163,-115,10,27,105,278,625,1261
290,119,-22,-132,-17,77,213,447,837,1098
93,22,-54,-88,-12,123,242,514,892,569
-127,110,125,81,83,140,125,248,347,-369
-383,148,203,150,103,47,-75,-169,-417,-1170
-188,154,101,58,-11,-127,-260,-476,-872,-1085
195,190,4,-17,-118,-220,-322,-548,-938,-716
299,70,-69,-96,-181,-232,-253,-338,-607,-495
10,-119,-87,-2,-57,-76,-34,-31,-157,-294
-45,-158,-70,128,18,-25,28,11,-37,-175
304,-68,-129,89,-72,-125,-46,-46,-4,98
381,31,-88,151,-102,-137,-56,-53,-59,-93
3,25,20,242,11,5,71,32,-144,-626
-602,-276,-134,19,120,171,245,125,-225,-693
-218,-410,-98,-95,44,33,49,-29,-127,636
1163,188,21,-255,-245,-306,-371,-282,298,2430
2220,701,19,-375,-478,-579,-654,-370,843,3568
1903,517,36,-345,-409,-422,-432,-40,1215,3246
283,194,115,-95,-24,51,106,409,1036,1063
-1674,-90,251,313,423,518,530,476,-112,-2277
-2378,-308,183,352,431,498,426,160,-1066,-3813
-1643,-218,121,245,247,236,105,-155,-1171,-2899
-801,-61,123,165,114,71,-77,-296,-1017,-1771
-517,-94,64,175,86,33,-86,-241,-737,-1258
-509,-228,-22,283,137,75,2,-114,-421,-887
-401,-213,-70,226,141,102,79,-24,-224,-550
-364,-227,-134,6,14,28,70,14,-197,-477
-158,-139,-22,-139,-83,-30,85,106,-45,-172
165,47,25,-156,-49,11,170,202,137,142
144,55,-4,12,54,95,221,218,191,96
84,-28,-29,131,96,72,151,146,145,-37
51,-188,-181,300,154,37,63,79,126,57
205,-174,-82,522,145,-33,-78,-33,113,515
319,-110,29,471,35,-135,-215,-151,29,780
141,-51,20,112,-116,-146,-185,-149,-33,421
-12,35,-30,-376,-266,-117,-104,-54,71,180
133,73,52,-488,-210,-8,-12,48,226,392
238,141,335,49,-7,56,-25,0,156,370
125,124,413,373,56,-12,-163,-152,-49,168
-126,-69,195,551,14,-182,-336,-310,-204,-64
285,-71,-602,-317,-139,-155,-220,-186,-189,122
949,173,-427,-716,-458,-449,-434,-334,-45,905
1449,313,-265,-555,-353,-349,-305,-116,433,1732
1484,195,-521,-768,-398,-220,-83,216,950,2170
866,89,-230,-686,-408,-166,-4,296,1057,1709
-258,-42,2,-364,-121,61,187,309,704,471
-567,54,169,-81,108,198,224,217,227,-163
-375,-71,166,-31,210,251,212,159,-49,-130
-553,-276,106,27,265,287,219,161,-177,-305
-396,-224,109,100,250,290,251,259,25,-144
-287,-15,187,143,231,243,204,232,101,-343
-658,-37,162,144,205,184,138,98,-113,-851
-810,-12,99,44,69,12,-18,-77,-217,-798
-657,0,-24,-92,-84,-128,-84,-83,-72,-529
-567,-50,4,-7,48,44,102,76,-27,-589
-391,-96,13,57,114,142,207,122,-29,-589
147,-53,38,67,61,80,161,54,-43,-229
528,110,220,304,189,189,255,145,123,239
644,161,221,405,218,183,246,182,152,393
619,127,-20,213,38,-25,27,0,-109,304
81,35,-128,152,80,8,-19,-153,-453,-184
-225,54,-44,35,97,72,9,-251,-648,-644
192,117,37,-111,-44,-54,-63,-294,-501,-299
460,171,47,-182,-126,-130,-101,-201,-224,-74
165,117,-79,-254,-185,-162,-171,-181,-285,-364
-255,-73,-271,-286,-213,-189,-229,-251,-463,-527
-295,-80,-166,-99,-57,-79,-151,-184,-312,-173
-232,71,137,135,124,51,-50,-69,-58,12
-246,0,218,222,143,17,-90,-61,140,428
-65,-323,-52,173,108,-20,-66,44,554,1438
430,-494,-379,32,9,-71,-58,115,803,1962
1340,-217,-469,-77,-167,-238,-224,-42,626,1968
2051,563,-63,-225,-345,-457,-470,-292,337,1709
1620,782,195,-274,-275,-309,-282,-169,93,330
-46,135,12,-81,30,121,206,195,-107,-1238
-1444,-363,-111,-47,239,439,569,489,-112,-1837
-1809,-392,306,417,311,329,386,235,-453,-2127
-1640,-281,631,993,386,163,112,-48,-537,-1765
-1291,-244,328,659,300,124,74,-76,-379,-1284
-605,-274,-260,47,13,-50,-60,-171,-196,-568
-45,-203,-393,-105,-57,-57,-69,-84,127,311
167,-25,-200,-164,-73,-38,-45,-51,168,476
-324,11,212,244,22,1,-35,-146,-319,-582
-940,-63,574,771,269,172,101,-99,-712,-1476
-675,-161,248,388,167,134,93,-52,-594,-1029
556,237,-142,-553,-206,-79,-18,48,266,1082
747,430,-45,-561,-146,47,155,264,718,1647
750,389,-17,-516,-178,5,88,263,898,1630
452,186,-92,-365,-152,-12,52,272,774,1000
108,24,-126,-213,-81,27,85,240,477,366
-101,-34,-53,-131,-30,16,26,36,-11,-211
-325,-115,-41,-46,46,47,-23,-142,-435,-859
335,3,-29,33,38,-33,-163,-295,-466,-324
1354,255,-230,-17,-233,-378,-488,-462,-204,607
1934,418,-476,-141,-555,-704,-698,-512,23,936
1787,419,-414,-451,-782,-879,-787,-496,233,1296
1264,355,-103,-612,-622,-650,-527,-259,366,1329
347,-14,-143,-442,-131,8,95,214,350,792
-1152,-521,-18,-139,257,494,545,541,437,470
-1985,-491,308,331,581,721,712,599,275,-508
-1674,-88,506,514,647,677,617,390,-223,-1592
-1123,90,423,400,491,528,470,239,-420,-1544
-1053,-105,253,347,406,437,386,134,-534,-1311
-861,-204,119,318,353,334,279,10,-518,-897
-725,-225,15,189,230,211,174,-14,-391,-734
-646,-190,18,162,138,99,64,-95,-470,-1065
-393,-107,106,241,108,15,-83,-266,-617,-1224
115,35,94,134,-8,-106,-245,-383,-553,-813
465,68,-42,-72,-123,-147,-242,-271,-184,-9
446,64,-136,-180,-162,-132,-197,-107,154,432
364,90,-192,-261,-159,-83,-101,41,363,572
335,-25,-220,-249,-183,-123,-94,62,335,648
168,-258,-290,-22,-126,-98,-34,130,282,466
185,-201,-208,369,88,41,41,119,103,213
280,-5,-45,315,128,56,-17,-41,-140,84
-84,-45,105,10,11,16,-9,-66,-191,-191
-299,175,334,25,11,26,33,-29,-104,-394
-162,221,195,-69,52,96,143,99,150,-155
25,64,219,42,53,56,108,127,393,326
0,-52,301,383,108,13,40,117,537,634
-121,-220,45,395,87,-1,-5,69,484,616
488,-261,-557,-324,-344,-288,-221,-9,621,1288
1017,-157,-797,-607,-460,-358,-217,60,666,1750
1119,196,-286,-166,-205,-256,-258,-142,127,1084
996,447,188,-106,-168,-262,-365,-415,-481,283
641,347,297,-175,-88,-108,-226,-311,-440,158
-32,74,302,-11,150,214,134,41,-194,-260
-816,-35,222,161,323,400,368,249,-70,-861
-1198,3,125,135,341,382,397,285,1,-1001
-641,-39,-166,-226,118,224,326,322,209,-275
-23,109,-77,-327,-76,48,152,256,338,443
-64,43,65,-129,-44,63,132,238,273,419
-228,-38,82,20,15,44,84,66,-139,-423
-42,-8,41,-50,-96,-125,-116,-232,-540,-917
359,122,48,-103,-168,-212,-202,-295,-443,-417
298,52,19,-13,-12,-45,-26,-68,-32,80
-42,-217,-15,100,142,129,192,191,344,368
-113,-234,-60,77,84,84,172,212,401,325
-102,173,149,114,-12,-91,-82,-96,-103,-447
-19,306,392,326,-4,-216,-268,-327,-483,-854
-170,160,303,341,88,-89,-142,-245,-588,-1176
-160,-26,-101,-105,-48,-56,-43,-144,-517,-880
44,-1,-202,-55,-55,-83,-106,-175,-402,-256
41,-5,-25,233,86,-21,-127,-149,-275,-4
-89,-123,58,100,31,-18,-112,-59,-104,48
-126,-151,-58,-125,-44,-23,-37,40,89,129
126,-28,-132,-217,-50,8,46,126,280,168
274,-9,-32,22,0,24,89,151,297,141
416,17,9,339,-1,-33,11,42,178,300
614,209,-38,345,-59,-166,-193,-188,-1,592
613,156,-195,-61,-128,-196,-236,-139,135,890
282,91,-336,-376,-158,-134,-170,-28,257,675
94,77,-290,-319,-71,22,-91,13,208,360
97,26,-122,-320,-68,48,-47,84,273,288
-122,-105,-91,-391,-158,-50,-71,118,345,23
-602,-299,-281,-316,-26,44,97,254,370,-312
-494,-213,-79,-103,30,48,166,248,287,-354
-263,-69,191,211,136,91,163,65,-86,-245
-152,-118,220,617,350,176,106,-156,-397,4
198,-27,198,710,328,97,-10,-302,-472,366
409,9,41,238,63,-37,-71,-230,-206,909
633,133,119,-188,-123,-66,-45,-35,172,1236
344,116,135,-201,-71,41,83,180,409,866
-570,-159,144,-15,68,167,224,311,317,-202
-1037,-244,116,157,195,229,255,260,1,-1392
-620,65,21,73,70,66,62,16,-309,-1592
-158,170,-47,-70,-90,-79,-76,-93,-329,-886
152,136,-6,-176,-152,-137,-121,-107,-166,-152
431,107,-3,-230,-212,-169,-145,-89,3,349
648,140,10,-203,-211,-218,-180,-92,184,803
666,99,-108,-48,-145,-199,-170,-36,431,1211
367,-44,-117,379,37,-87,-73,22,317,762
-12,-136,46,618,131,-65,-62,-58,-123,-174
63,-71,127,432,67,-100,-115,-188,-391,-540
23,-162,-69,22,-11,-33,-31,-147,-435,-803
-395,-313,-198,-250,-43,58,84,6,-174,-670
29,90,-95,-457,-189,-24,45,61,106,-139
265,229,-118,-458,-265,-124,-17,32,169,170
-57,160,-67,-91,-78,-75,-19,-22,16,101
-246,151,59,-27,81,93,98,-28,-182,-222
-147,92,66,-97,99,141,151,-12,-181,-158
-196,16,0,-43,104,144,149,33,-113,-174
-172,-28,-57,-8,57,94,102,107,65,-82
-270,-168,-50,-70,-70,-23,28,233,357,119
-314,-224,-65,-217,-182,-123,-45,288,508,336
213,-24,-52,-356,-321,-224,-118,236,536,743
325,42,-59,-264,-204,-100,-1,172,250,458
81,-123,-88,100,136,180,219,169,14,158
-346,-286,-60,347,353,311,316,126,-160,-378
-683,-10,118,287,318,242,214,-42,-376,-1009
-618,58,176,139,186,146,117,-101,-382,-833
-228,27,101,-55,44,51,50,-103,-306,-525
76,172,143,108,82,29,-5,-179,-353,-519
99,183,165,366,193,54,-17,-219,-380,-462
-13,-10,72,292,131,32,-26,-141,-234,-199
149,-74,108,153,-46,-110,-198,-199,-142,113
299,-54,-5,28,-74,-188,-287,-257,-80,355
221,-68,-246,-233,-103,-148,-227,-165,-30,396
-34,-98,-232,-203,-38,-30,-11,54,205,355
-94,-239,-288,-84,-7,26,98,208,514,579
140,-106,-135,-21,-130,-63,24,194,586,758
37,20,109,15,-139,-45,41,208,502,518
19,62,97,-80,-88,0,73,221,366,292
335,201,36,-172,-35,38,85,223,310,467
632,384,93,-260,-5,95,152,300,505,927
550,342,44,-246,2,167,248,403,567,970
158,167,52,-71,32,174,259,322,276,603
182,193,174,256,67,49,78,-4,-126,206
377,175,74,343,56,-2,-79,-221,-408,-169
353,-83,-275,-8,-120,-109,-196,-303,-517,-498
-237,-153,-250,1,-9,-42,-138,-263,-533,-1014
-1218,-358,-140,195,243,215,116,-31,-542,-1845
-1100,-281,59,109,167,190,97,-25,-570,-1731
-579,36,287,20,10,0,-94,-160,-455,-985
-326,114,155,-16,-37,-81,-157,-123,-131,-314
-121,10,30,17,-63,-136,-201,-91,76,89
275,117,-38,17,-84,-157,-247,-106,52,0
522,200,10,-74,-126,-169,-246,-145,-64,-202
378,44,4,-111,-101,-99,-121,-67,-23,-65
9,-166,-91,-102,-37,9,40,54,54,86
-372,-163,-6,-45,22,45,92,5,-188,-301
-462,-21,128,223,121,21,-12,-208,-585,-795
-376,-140,197,807,370,103,-3,-233,-594,-748
-151,-214,172,1008,481,192,131,-96,-337,-328
91,-179,26,667,239,13,53,-128,-160,199
393,67,145,309,-50,-139,-9,-155,-47,504
540,301,218,-377,-308,-140,43,-42,157,658
345,-9,-236,-864,-436,-124,96,164,438,848
464,-213,-527,-740,-383,-177,-30,177,602,1104
740,125,-380,-504,-355,-315,-288,-13,512,1097
851,325,-247,-506,-374,-329,-270,80,607,956
599,212,-282,-481,-346,-245,-158,171,492,568
226,173,-119,-323,-218,-128,-104,58,118,235
-105,152,319,76,2,-44,-121,-93,-88,155
122,141,299,124,117,40,-74,-88,-68,420
486,195,128,-151,30,23,-48,-4,113,962
-182,-21,109,-113,72,118,122,239,372,724
-977,-263,115,18,182,282,312,503,559,-71
-1388,-462,-29,24,264,399,460,647,507,-851
-1506,-441,8,140,357,442,467,491,-37,-1697
-1184,-330,95,248,395,427,342,147,-629,-1954
-445,-201,57,125,188,164,63,-160,-722,-1027
40,-12,50,32,39,-47,-153,-328,-610,-359
131,-57,-70,17,50,-34,-116,-239,-385,-61
316,-33,-189,-25,9,-37,-118,-154,-206,199
586,114,-98,-39,-64,-107,-188,-141,-29,410
509,97,-110,-140,-167,-118,-138,51,342,576
91,-4,-35,-77,-159,-85,-88,165,522,496
-36,-11,35,-45,-123,-91,-74,127,538,550
-116,-16,126,61,-46,-30,3,85,393,493
-28,98,282,373,84,14,22,-112,-136,40
102,258,375,483,184,69,43,-292,-605,-412
86,283,387,293,111,27,4,-327,-639,-495
22,100,128,187,46,-32,-37,-190,-255,-292
-122,-50,-64,290,136,40,65,5,104,-262
-412,-166,-63,383,280,164,164,46,-81,-714
-234,-145,-93,146,196,156,146,21,-181,-555
176,-25,-157,-252,-14,52,81,64,95,82
487,-135,-205,-528,-248,-144,-86,56,501,917
627,-245,-262,-692,-367,-229,-139,116,846,1492
437,31,-132,-586,-351,-225,-115,138,715,1091
265,237,30,-254,-214,-126,-45,85,387,768
23,247,94,29,29,91,106,30,-61,208
-445,201,116,221,222,230,201,-59,-615,-1019
-465,62,44,173,120,93,60,-199,-811,-1399
-124,-117,-151,-26,-72,-57,-50,-140,-461,-811
91,-140,-231,-103,-102,-60,3,9,-169,-440
208,-97,-109,-106,-119,-108,-66,-14,-58,-179
390,-6,31,44,-110,-180,-201,-117,101,464
622,21,35,121,-154,-279,-301,-160,271,1153
220,-75,-66,214,-55,-132,-136,1,351,932
-608,-198,-107,469,216,126,107,93,127,-60
-664,-238,45,670,393,250,190,49,-92,-370
-260,-274,204,643,376,229,146,-1,-71,-167
210,-295,-80,394,254,195,99,72,217,271
408,67,-94,-147,36,155,123,209,445,434
209,593,283,-119,28,30,-48,-29,-8,-360
-125,471,341,-199,71,57,-15,-91,-315,-835
-161,74,-271,-753,-87,90,95,9,-379,-788
96,69,-173,-412,-136,-73,-96,-169,-582,-684
73,354,183,-94,-98,-121,-160,-258,-648,-792
135,446,218,-140,-57,-23,-47,-143,-478,-729
151,225,163,-18,-11,20,18,-74,-316,-406
36,-267,-124,7,20,110,145,99,-31,152
236,-389,-155,-99,-45,84,139,132,194,739
391,53,129,-55,-207,-175,-169,-167,77,930
176,62,-20,-80,-231,-247,-229,-196,193,999
-188,-143,-328,-290,-149,-86,-27,40,448,768
-335,-142,-325,-284,-103,-34,22,35,216,193
-206,-33,-96,63,-1,-28,-39,-30,8,-42
-164,-21,245,387,130,29,3,58,126,-18
-295,-188,103,376,224,163,170,261,333,-207
-433,-271,-44,236,218,235,240,297,218,-553
-292,-127,-15,-2,64,146,169,213,104,-234
113,148,69,-215,-93,2,-3,39,36,289
484,236,-164,-186,-198,-188,-222,-199,-85,237
485,187,-289,-133,-249,-255,-267,-200,-40,79
460,196,-201,-89,-179,-217,-226,-212,-133,-84
259,153,-82,39,-18,-76,-107,-155,-169,-148
82,119,111,43,-31,-20,-14,7,140,224
-68,-24,120,-128,-85,8,49,184,514,719
-202,-154,62,-173,-54,70,144,245,458,520
-261,-163,-13,-114,7,146,262,287,371,336
-437,-145,107,112,209,312,396,320,246,289
-380,-134,168,223,292,317,311,142,-148,-129
-76,-103,74,139,142,98,37,-103,-321,-316
291,-58,2,50,-35,-102,-177,-167,-96,191
455,21,6,49,-148,-239,-280,-119,177,337
6,42,73,144,-35,-120,-133,16,180,-346
-541,-60,87,177,171,143,153,182,76,-893
-601,-28,171,202,288,257,258,172,-18,-739
-195,93,166,141,202,150,125,11,-128,-115
464,17,-100,-90,-41,-78,-58,-183,-156,772
582,62,-80,-167,-138,-181,-122,-284,-164,835
92,69,166,128,-45,-183,-166,-338,-294,139
-381,-76,284,531,37,-219,-230,-383,-481,-581
-494,-215,15,388,29,-125,-121,-255,-519,-926
-387,-283,-362,-30,44,56,42,-22,-237,-664
-216,-126,-297,-134,132,189,131,93,-99,-440
378,245,15,-319,29,155,124,136,48,79
760,318,-70,-253,-167,-110,-132,-25,150,607
653,106,-267,-235,-256,-222,-216,-62,282,912
112,-177,-139,-261,-210,-149,-92,85,367,534
-436,-105,33,-101,-33,27,31,139,172,-311
-618,146,116,-39,85,152,109,62,-157,-815
-636,123,166,-64,114,193,151,-19,-356,-943
-404,46,141,-67,48,75,86,-64,-265,-549
-66,2,-17,-230,-139,-80,4,-65,-112,-193
170,-8,-211,-371,-268,-95,57,47,108,84
294,64,-102,-115,-137,-12,111,100,274,343
340,180,314,303,96,114,151,105,251,394
377,120,303,339,210,192,182,77,83,343
590,-52,-43,198,232,182,142,104,164,903
676,-67,-291,359,218,73,18,91,309,1273
31,-98,-225,786,372,114,8,69,139,444
-301,-72,-82,332,-25,-227,-379,-299,-255,-384
54,18,-165,-220,-127,-168,-290,-182,83,405
-9,26,-32,-635,-277,-139,-154,-21,302,484
-191,-5,-159,-723,-314,-50,20,195,286,-197
-394,-48,-105,-510,-172,57,110,209,-172,-1171
-400,-43,59,-186,17,127,138,126,-536,-1419
-157,102,131,-7,93,133,96,-5,-625,-930
187,275,133,38,41,82,15,-78,-395,-143
214,203,12,-11,6,92,27,-19,-68,151
-119,96,88,4,11,42,-49,-70,-32,-107
-278,70,56,-33,-45,-80,-131,-171,-212,-410
-400,-32,29,-29,-38,-47,-29,-126,-301,-594
-337,-41,110,87,55,79,119,-43,-299,-477
12,15,82,105,90,100,100,-29,-138,-7
270,-10,25,57,34,44,55,0,111,422
307,-29,36,23,-4,7,16,30,246,473
433,12,21,-6,-50,-43,-31,21,312,532
498,-129,-148,-68,-84,-75,-36,72,423,851
489,63,-133,-17,-133,-189,-187,-73,255,734
449,318,98,40,-128,-233,-270,-219,-46,126
109,141,-11,-71,-109,-167,-192,-170,-85,-311
247,143,-80,-105,-113,-124,-125,-90,175,90
546,349,36,-108,-148,-164,-175,-89,429,876
835,344,-13,-127,-181,-218,-240,-25,772,1823
660,15,-166,-94,-127,-120,-148,173,921,2045
11,-328,-102,79,37,52,19,258,554,1235
-692,-449,-16,330,186,142,136,194,-116,-378
-1539,-538,10,414,329,268,289,66,-895,-2396
-1407,-476,-80,63,156,165,208,-83,-1068,-2555
-762,-373,-114,-99,-40,11,59,-118,-664,-1358
-231,-89,-53,-163,-71,-22,15,-41,-278,-520
-95,106,52,-145,-13,34,43,49,-81,-236
-95,108,75,-47,14,7,8,46,-84,-154
-83,44,134,132,98,40,17,31,-134,-348
175,97,230,277,162,40,-13,-3,-52,-268
521,217,268,199,94,-42,-123,-87,-24,-138
442,218,341,317,138,-4,-118,-57,-48,-173
-19,52,279,379,161,21,-91,-75,-187,-184
-644,-206,12,146,109,5,-87,-149,-320,-295
-660,-310,-213,3,126,32,-60,-146,-285,-102
-334,-174,-188,-67,96,127,98,63,7,130
523,93,-89,-152,-13,113,133,149,191,483
377,-94,5,-138,-53,75,87,100,197,521
35,48,274,42,-64,-23,-40,-13,66,193
-33,35,158,194,-26,-18,-27,3,131,212
1,-133,26,322,0,4,13,46,294,477
54,-39,306,452,-65,-152,-189,-182,56,308
281,41,279,214,-167,-294,-343,-280,-28,307
54,-132,-238,-358,-159,-134,-109,26,262,284
-176,-176,-459,-511,-20,127,216,305,390,106
78,78,-250,-422,44,211,317,323,297,186
275,290,-10,-362,-33,98,250,197,240,363
381,347,97,-233,-108,-38,112,7,76,290
281,111,15,-226,-126,-59,101,-2,-11,69
-77,-196,-70,-139,-14,60,173,105,42,-83
-359,-171,-21,-41,70,108,177,87,-57,-298
-270,-141,-21,-15,82,105,185,103,-71,-84
-212,-80,4,13,113,118,149,35,-247,-258
-85,146,18,-29,0,-23,-53,-175,-564,-767
137,169,-78,-139,-118,-158,-185,-243,-505,-530
222,71,-160,-77,-91,-158,-206,-204,-232,-49
224,-44,-226,188,53,-86,-187,-164,0,235
353,-87,-219,383,156,-44,-146,-86,190,512
613,0,-88,319,29,-189,-208,-88,386,883
938,123,-8,29,-247,-407,-365,-141,602,1379
1174,345,41,-292,-422,-451,-417,-124,716,1708
846,461,193,-468,-521,-434,-378,-124,514,1524
184,259,99,-157,-221,-162,-153,-56,146,831
-648,-155,-122,-73,137,262,290,273,142,153
-756,-299,-196,-194,203,385,455,402,73,-469
-599,-240,-64,-183,143,289,380,345,-115,-1393
-576,-49,186,18,212,277,339,308,-93,-1490
-601,13,266,207,317,319,327,280,-52,-1163
-1055,-105,291,359,456,433,416,267,-263,-1509
-973,-76,293,377,434,369,297,23,-579,-1351
-451,2,181,194,205,108,10,-236,-637,-658
-199,34,62,11,-6,-86,-196,-349,-636,-478
44,26,-132,-138,-145,-191,-278,-375,-586,-381
44,-53,-145,-42,-119,-147,-195,-258,-383,-307
-76,-55,1,102,-66,-122,-166,-192,-274,-363
-136,-97,-52,60,-55,-104,-134,-130,-210,-335
-120,-92,-85,55,-13,-43,-91,-75,-207,-307
63,-11,-187,-69,24,39,-11,-32,-161,-79
339,-11,-248,-75,21,59,1,-9,17,347
461,12,51,157,44,9,-32,5,185,518
461,77,194,72,-7,-30,-47,39,298,489
257,-17,36,32,-84,-111,-118,6,282,272
214,-131,31,293,-95,-174,-161,2,315,435
440,-121,51,287,-130,-235,-196,48,584,1242
485,-85,-322,-236,-215,-196,-157,154,826,1594
504,20,-367,-190,-49,-5,12,306,957,1719
289,221,280,216,102,147,151,349,806,1311
-89,268,659,83,-32,78,50,117,234,171
-322,55,244,-320,-245,-51,-96,-89,-281,-722
-374,-84,-280,-547,-295,-97,-108,-104,-440,-1036
-389,-40,-285,-344,-101,1,-5,-118,-605,-1224
-511,-117,-74,-110,70,144,197,20,-454,-846
-305,-101,15,-75,27,142,254,118,-169,-383
-237,-21,51,-16,62,134,241,98,-260,-662
-362,-25,48,52,102,116,179,19,-347,-730
-206,22,44,160,97,55,96,-25,-230,-375
218,118,-30,165,43,-87,-49,-117,-119,37
442,116,-165,-77,-111,-227,-228,-236,-96,295
507,114,-213,-251,-197,-231,-219,-204,-45,368
482,-35,-306,-375,-131,-14,21,62,142,364
186,-354,-378,-187,78,228,245,286,254,147
-230,-234,-56,185,215,233,169,161,61,-283
-304,217,516,421,177,72,-29,-83,-174,-425
-581,31,440,343,226,182,128,69,-50,-426
-679,84,225,170,236,240,191,70,-91,-558
-192,152,184,50,82,85,18,-82,-126,-115
453,198,148,15,-69,-102,-195,-172,-28,537
581,84,107,337,-40,-168,-269,-174,69,782
639,18,-35,493,-1,-217,-310,-178,158,1013
449,-90,-220,221,-73,-278,-299,-146,254,919
-171,-238,-168,33,-45,-142,-91,8,274,303
-104,-173,-203,-317,-71,68,183,258,453,494
-9,-184,-231,-469,-115,158,337,396,578,721
-304,-391,-65,-224,31,236,356,340,324,201
-302,-211,82,-104,111,232,261,191,-33,-435
124,277,151,-234,-80,-9,-53,-135,-338,-482
318,326,127,-208,-184,-174,-248,-309,-414,-165
447,173,-2,-221,-204,-211,-281,-228,-161,383
385,29,-53,-182,-142,-124,-133,-51,95,653
9,-55,-23,-75,-9,32,100,168,219,341
-312,10,74,58,93,124,222,280,225,-162
-490,99,178,168,167,175,293,288,76,-641
-546,-39,111,126,129,164,294,285,28,-743
-261,-86,-6,-1,-2,37,178,213,79,-356
149,173,55,-27,-68,-54,42,108,142,54
333,236,48,-23,-46,-39,23,97,204,186
527,213,22,-10,-56,-61,-40,28,127,332
717,197,12,4,-141,-193,-226,-150,24,548
792,119,-2,108,-183,-315,-369,-298,-50,684
436,69,131,324,0,-176,-308,-375,-359,135
161,-42,273,504,192,-26,-222,-380,-462,152
-573,-386,118,516,354,189,15,-162,-346,-181
-1228,-677,-248,333,410,451,385,283,-26,-659
-1165,-660,-309,233,322,485,432,431,138,-852
-695,-181,69,133,231,338,210,151,-172,-1017
-308,270,66,-159,52,107,-33,-187,-569,-973
55,469,81,-233,-50,-39,-145,-288,-543,-513
223,367,-77,-514,-188,-78,-49,-124,-181,-96
167,143,-252,-511,-321,-208,-113,-49,83,76
-8,-36,-291,-177,-190,-195,-150,-46,186,55
32,-25,-145,-104,-135,-173,-158,-87,185,211
242,81,-86,-236,-239,-260,-242,-146,203,572
469,135,-66,-262,-289,-284,-245,-76,318,1037
533,159,47,-166,-191,-156,-87,47,327,1023
549,150,182,-37,-109,-92,-12,40,246,876
197,-93,25,-61,-17,27,126,188,384,660
-701,-271,8,96,236,281,337,253,13,-784
-1074,-120,201,271,324,293,255,1,-595,-1982
-587,-15,185,208,202,146,52,-131,-528,-1308
-56,23,95,103,87,17,-33,-121,-146,-275
166,135,92,95,32,-34,-61,-100,53,57
152,108,34,123,41,1,-36,-4,80,-8
11,6,13,199,122,82,87,56,-18,-251
3,38,99,157,71,11,18,-69,-204,-437
165,66,55,-41,-98,-146,-157,-209,-298,-357
353,22,-59,-121,-153,-156,-145,-104,-38,146
418,-24,-245,-252,-178,-115,-66,78,238,457
261,-115,-342,-267,-148,-39,52,240,391,420
105,-230,-249,-187,-90,33,151,355,516,367
210,-125,-156,-123,-63,15,68,274,518,636
702,277,37,8,-119,-182,-221,-26,391,1204
920,290,34,110,-188,-341,-425,-269,220,1317
439,88,20,274,-44,-213,-325,-258,-4,606
-713,-176,70,407,283,171,57,-7,-111,-351
-973,-191,20,135,308,285,194,57,-141,-419
-464,39,111,-6,196,217,141,1,-212,-373
4,162,135,-195,-41,27,13,-82,-212,-262
339,69,-111,-342,-268,-186,-141,-169,-221,-211
263,-48,-186,-250,-235,-159,-102,-92,-203,-393
-205,-118,-72,-53,-41,40,79,82,-115,-628
-735,-248,-121,11,69,174,203,228,-47,-919
-556,-210,-49,-8,85,170,164,188,-84,-780
-273,-23,79,27,98,116,73,37,-166,-357
-88,198,289,183,133,49,-37,-95,-105,254
69,224,360,368,131,1,-105,-151,-17,522
-26,22,251,514,136,-38,-129,-140,10,393
10,-103,-5,498,118,-99,-211,-214,-11,368
108,-196,-288,199,33,-95,-168,-128,85,440
130,-176,-320,-272,-182,-110,-79,62,247,417
64,-44,-71,-356,-232,-124,-75,64,153,88
-82,-57,44,-222,-81,-3,11,46,1,-362
-91,-195,-27,-252,-65,36,88,87,23,-399
-29,-238,-153,-111,-34,24,101,107,92,-78
114,73,-72,122,-5,-33,1,42,117,219
146,-66,-219,62,68,105,148,258,328,443
196,-349,-322,62,209,313,423,540,571,721
155,-130,142,155,228,308,425,434,370,447
54,277,303,8,93,146,234,131,-34,-136
247,463,144,-124,-76,-13,41,-20,-87,-165
421,379,91,-52,-119,-121,-126,-74,7,-5
486,257,233,124,-70,-186,-286,-202,-77,13
365,155,213,142,-8,-180,-322,-350,-399,-373
-242,-78,-85,-94,53,-19,-134,-312,-586,-795
-292,-28,-141,-261,23,44,-23,-182,-323,-132
-143,78,-15,-268,-22,41,-16,-95,-127,410
-250,-76,16,-147,2,80,57,-7,-127,120
-271,-239,-36,-27,37,61,55,55,-85,-293
-391,-395,-134,79,83,106,104,125,-119,-717
-456,-264,-63,226,123,94,78,38,-233,-862
-189,16,161,276,33,-120,-202,-248,-375,-605
213,27,284,329,-62,-301,-411,-414,-314,-99
447,-8,19,270,-45,-223,-316,-240,63,482
294,-179,-265,183,-24,-104,-128,37,503,932
-98,-143,-196,266,57,-24,0,145,618,729
-333,12,-123,125,136,86,151,255,564,401
-285,-112,-228,-60,86,111,191,270,449,420
-180,-126,21,-117,2,51,117,163,198,177
125,73,110,-289,-135,-45,1,8,-45,116
342,222,45,-446,-219,-70,-18,-43,-162,183
179,191,72,-324,-146,-32,31,-25,-238,-37
151,134,77,-172,-104,-75,6,-14,-38,362
159,37,-69,-168,-95,-61,53,114,336,965
286,86,-79,-218,-127,-79,38,102,261,687
344,166,-7,-211,-182,-149,-38,-44,-81,-36
-12,119,46,-76,-58,-24,97,47,-177,-609
-290,26,68,20,64,101,189,122,-166,-963
-257,-103,-2,18,94,143,187,137,-98,-828
-52,-285,-248,-89,-18,36,87,135,114,-161
138,-185,-305,-171,-169,-102,-40,95,294,249
310,236,-33,-174,-246,-228,-227,-57,336,420
127,322,139,-19,-68,-74,-120,-65,151,206
-154,246,224,147,124,95,24,-178,-501,-608
-162,205,208,152,112,60,0,-293,-684,-661
-383,9,196,228,208,166,136,-110,-350,-332
-406,-123,197,420,330,225,143,-73,-371,-373
-352,-269,86,591,386,199,87,-36,-252,-383
-201,-327,-55,568,320,96,-27,-73,-108,-307
163,-174,-195,119,41,-75,-157,-162,-60,34
416,109,-12,-196,-223,-185,-194,-176,-72,255
81,-3,122,-39,-160,-119,-91,-66,-38,91
-122,-204,126,101,-60,-51,-53,-34,-93,-51
96,-140,54,-46,-155,-160,-208,-193,-324,-104
545,283,2,-173,-204,-250,-324,-273,-271,344
830,344,144,-56,-165,-238,-298,-165,93,1105
931,284,55,-6,-180,-220,-210,-24,332,1467
489,185,-160,216,52,40,110,199,317,831
-722,-103,-49,270,257,344,449,376,134,-514
-1333,-258,87,-250,110,307,412,289,6,-1086
-780,-225,-332,-636,33,300,366,276,103,-821
-239,-97,-465,-482,79,270,301,239,159,-469
-5,38,-97,-86,35,89,86,69,139,-96
176,-1,-59,12,8,25,32,69,209,300
117,-76,-88,-34,35,36,32,54,150,177
-21,-139,15,-57,-19,-39,-53,-8,62,-92
-116,-168,3,-168,-122,-111,-91,19,149,70
-353,-195,-111,-242,-90,-2,73,179,295,128
-298,33,16,-78,-27,32,65,98,92,-48
4,361,219,74,17,4,-13,-136,-363,-441
150,352,267,166,93,68,21,-196,-514,-454
81,192,227,206,86,27,-21,-181,-313,-62
-102,22,72,142,80,42,8,-27,60,179
-60,-44,-23,59,82,78,26,64,272,215
133,-18,-33,76,66,26,-43,4,207,292
229,-40,60,258,29,-80,-167,-124,61,316
74,-98,92,388,29,-124,-248,-235,-188,-83
61,-30,34,283,28,-115,-240,-275,-317,-232
262,17,-18,143,13,-71,-178,-196,-188,112
453,52,-89,-109,-61,-52,-122,-113,-28,397
341,95,-141,-410,-129,-19,-11,-15,64,303
-178,60,-21,-287,-80,-8,9,34,65,-166
-423,9,89,-143,-42,-14,30,61,19,-420
-319,-114,-81,-144,-19,33,70,102,-18,-350
-242,-142,-137,36,34,48,60,33,-143,-267
-79,13,89,191,86,42,74,-3,-157,-60
-64,-9,93,91,77,21,64,13,-70,-47
-13,1,47,-93,-36,-42,46,52,50,-15
230,119,53,-309,-178,-94,53,105,249,393
305,35,-41,-308,-173,-66,97,159,385,540
311,7,-13,-137,-63,8,155,161,320,452
313,100,49,-25,3,46,131,101,204,465
36,97,-11,9,22,32,86,54,163,310
-65,-17,-102,-13,5,-24,-11,-12,67,114
206,-139,-151,15,0,-46,-81,-40,76,301
388,-41,-67,185,53,-58,-100,-80,23,285
297,64,-81,211,75,-50,-73,-46,57,121
93,-157,-301,0,72,52,86,202,398,233
3,-97,-320,-203,39,110,190,371,525,107
-350,168,152,-93,9,11,69,196,269,-271
-451,427,655,139,40,-85,-76,-146,-282,-758
-68,264,254,-65,-74,-113,-111,-235,-542,-717
-129,2,25,-139,-85,-73,-99,-213,-555,-631
-196,-74,39,-56,-10,-13,-52,-155,-302,-328
-89,7,102,17,34,9,-63,-155,-238,-268
-19,0,129,26,49,13,-32,-66,-118,-158
-5,-57,67,23,40,34,16,56,104,-3
-82,-32,26,104,39,11,10,85,172,81
-119,6,123,310,53,-93,-129,-83,10,104
-223,-68,148,326,60,-128,-229,-249,-348,-74
-323,-176,-30,12,-23,-126,-213,-316,-642,-308
38,-26,-50,-74,-54,-111,-189,-220,-406,128
290,146,15,37,49,-1,-63,-19,-21,467
125,51,-50,-48,47,64,104,199,332,529
-146,-123,-172,-170,-30,66,210,377,578,393
-454,-168,-66,98,84,106,214,303,386,-163
-376,-194,-62,298,167,86,119,68,-15,-424
179,-180,-240,298,69,-52,-51,-82,-98,144
636,-10,-237,35,-76,-146,-133,-71,-28,670
669,75,-220,-310,-139,-92,-39,63,108,798
429,79,-110,-285,-80,17,108,108,101,607
313,265,9,-183,-169,-121,-68,-125,-83,408
164,292,110,155,-218,-323,-303,-365,-220,124
-479,-26,198,566,-17,-187,-139,-227,-186,-754
-978,-362,75,333,46,10,119,70,-1,-1226
-829,-361,-267,-265,74,246,390,344,172,-1263
-372,-127,-322,-423,243,504,584,495,161,-968
16,98,-147,-269,172,332,336,217,-35,-200
362,246,-17,-227,-75,-11,-30,-84,21,777
514,300,140,-132,-75,-55,-91,-53,242,1200
533,287,188,-18,37,54,28,106,293,1054
335,53,73,0,87,136,162,236,173,513
-125,-117,24,41,109,136,134,153,-165,-439
-713,-93,80,79,108,65,-6,-55,-461,-1466
-777,-122,116,87,145,79,-53,-143,-506,-1481
-371,-63,62,43,91,-15,-147,-244,-397,-734
-39,14,-7,98,21,-126,-268,-309,-266,-308
196,1,-107,78,-33,-149,-255,-204,0,107
397,-30,-137,-91,-147,-170,-188,-18,292,485
589,74,70,-175,-246,-212,-196,-19,275,545
687,143,124,-192,-224,-175,-153,-110,42,335
344,-127,-67,-175,-87,-16,19,-12,8,62
-275,-351,-39,13,105,170,207,106,-86,-375
-628,-19,237,290,190,150,124,-129,-518,-884
-413,47,353,338,76,-33,-56,-293,-515,-626
-203,84,323,442,45,-85,-130,-246,-314,-307
-236,187,251,506,41,-112,-177,-209,-203,-299
-48,52,-101,-56,-106,-122,-141,-13,191,353
242,-56,-380,-448,-182,-135,-104,166,652,1133
447,5,-329,-495,-229,-144,-111,230,858,1478
625,61,-262,-589,-269,-139,-77,275,880,1600
474,8,-172,-374,-139,-14,46,300,614,1033
12,-30,-41,-44,89,191,248,284,165,-85
-562,-105,11,108,235,302,335,202,-278,-1085
-605,-146,-47,124,238,288,305,65,-463,-1063
-267,-107,-103,74,177,216,216,4,-354,-670
-193,-63,-22,75,144,182,210,131,12,-428
-121,130,180,192,121,117,123,112,151,-274
-123,173,323,346,149,92,76,-32,-91,-590
-337,-23,123,298,90,59,79,-107,-359,-885
178,65,-85,171,-16,-219,-269,-474,-532,-16
18,-240,-334,420,241,-2,-159,-310,-195,567
188,-231,-518,37,10,-108,-226,-246,38,799
332,-9,14,128,-93,-109,-137,-12,393,797
287,71,175,-176,-126,13,118,329,698,540
-242,43,133,-401,-63,151,276,402,394,-407
-356,62,252,-90,118,214,228,282,149,-570
-5,248,258,-131,87,171,112,165,38,-298
151,177,67,-242,-121,-42,-107,-78,-259,-291
272,-34,-72,-283,-213,-137,-169,-154,-285,-132
437,-70,-100,-254,-182,-99,-120,-78,-117,135
615,94,-30,-206,-189,-157,-173,-100,29,536
766,224,14,-185,-254,-265,-262,-115,195,848
656,170,-25,-112,-218,-241,-237,-35,346,858
220,77,-21,-1,-63,-84,-97,28,249,280
-101,73,118,37,-8,-26,-70,-62,-81,-330
-474,39,236,133,57,26,-36,-55,-126,-297
-652,-116,88,127,105,101,34,18,12,125
-424,-168,-77,39,42,61,30,5,-15,222
-142,-84,-50,73,-2,3,27,-56,-76,215
32,4,49,95,-102,-111,-79,-214,-171,245
206,26,76,83,-99,-116,-82,-232,-167,383
368,18,58,104,-32,-51,-41,-145,-89,536
251,-32,17,75,3,40,76,29,58,512
-37,-131,-47,-38,43,138,204,139,90,154
-700,-319,-36,-17,151,266,324,247,-4,-778
-917,-299,-27,-14,194,304,342,289,-76,-1297
-379,-140,-114,-71,89,167,178,180,-16,-726
-18,-119,-183,77,115,105,62,76,-53,-234
-17,-222,-85,266,174,112,52,63,48,88
-85,-4,180,298,124,33,-9,-15,61,65
8,297,318,257,-15,-148,-202,-185,-66,-113
63,134,26,118,-91,-153,-144,-81,88,-35
121,-145,-383,-175,-70,22,89,183,331,203
40,-364,-356,-20,76,180,244,325,320,185
-164,-181,155,351,164,155,237,234,80,-293
-11,459,373,160,-12,-101,-72,-172,-366,-693
290,519,247,-123,-176,-279,-280,-397,-520,-397
330,238,17,-287,-203,-174,-161,-208,-159,117
331,104,-134,-381,-202,-86,-62,-12,178,533
400,0,-178,-302,-187,-88,-43,105,442,911
377,-59,-138,-222,-164,-64,-27,110,392,677
343,-135,-119,-174,-140,-63,-45,45,227,218
453,-204,-132,-132,-125,-68,-42,16,187,135
439,125,40,-47,-74,-38,-50,47,184,4
162,518,307,108,56,17,-57,50,129,-176
-376,214,239,128,121,97,20,112,90,-66
-490,-51,91,54,62,60,-14,11,-174,-124
0,20,97,25,11,-18,-120,-189,-447,-36
294,56,33,-62,-99,-140,-244,-356,-623,-166
-204,-173,-74,-44,-44,-75,-145,-229,-508,-552
-836,-410,-186,16,116,131,148,125,-78,-641
-998,-398,-152,81,200,262,311,266,68,-667
-577,-273,-112,19,91,165,201,108,-64,-515
13,-170,-232,-2,8,37,64,-49,-123,84
244,-35,-73,233,107,68,72,-73,-104,403
40,76,180,350,154,101,72,-77,-185,52
-84,58,138,96,4,-11,-39,-113,-195,-136
76,112,218,113,-48,-112,-149,-122,26,102
309,185,289,364,50,-132,-223,-182,90,220
375,12,-46,262,-27,-245,-382,-366,-61,387
-136,-101,21,-35,-98,-166,-287,-361,-311,-239
-360,-14,113,-198,-15,77,-12,-125,-280,-512
-24,8,-54,-171,-25,95,70,51,-45,-163
212,-42,-96,-56,-35,27,78,216,250,354
189,-54,-36,-213,-166,-75,25,343,445,671
-63,-77,-52,-372,-228,-77,85,452,517,533
-94,-71,-148,-265,-77,74,262,488,568,614
77,41,-94,-101,67,196,392,473,638,706
-23,95,78,34,125,222,396,382,465,232
-90,0,33,10,89,171,324,250,198,-96
-64,1,0,30,114,176,267,116,-143,-391
-17,103,50,70,123,128,86,-147,-563,-774
-57,142,155,244,159,31,-145,-400,-796,-1015
-39,109,179,465,199,-27,-289,-440,-692,-880
-114,-27,72,553,193,-46,-314,-343,-442,-549
-23,-108,-53,395,19,-230,-451,-351,-217,-30
325,-143,-117,79,-201,-335,-436,-198,204,776
465,-151,-192,-366,-358,-270,-179,143,724,1376
444,93,-62,-528,-405,-262,-123,200,778,1315
-226,5,-39,-346,77,254,238,160,-15,-358
-33,-152,-85,-308,37,208,144,2,-238,-388
110,33,53,-134,8,73,-36,-229,-528,-337
389,426,204,-74,-48,-93,-209,-376,-597,-81
512,389,160,-58,-50,-75,-154,-245,-405,-44
211,139,64,-35,0,35,17,-24,-190,-385
-193,-22,47,25,86,139,129,143,26,-640
-648,-130,65,93,155,183,157,180,125,-707
-523,-226,-16,70,117,131,90,123,119,-241
-126,-171,-96,7,46,80,40,82,161,137
55,82,-4,43,23,55,3,63,183,144
-100,119,-54,52,4,8,-67,-61,-72,-327
-249,36,-45,-63,-62,-50,-117,-163,-269,-565
-146,52,29,-89,-83,-91,-124,-157,-175,-303
-73,-10,100,46,-28,-66,-82,-111,-94,45
232,-15,-22,-49,-77,-85,-89,-64,92,710
532,11,-150,-198,-130,-122,-74,32,440,1258
504,-97,-160,-105,-32,-11,69,274,809,1449
331,-70,-77,44,74,82,178,462,1006,1246
133,0,50,198,175,154,212,460,783,457
-262,-173,-36,249,296,276,285,409,298,-470
-171,-427,-277,200,196,159,140,143,-191,-381
379,-270,-222,36,-101,-157,-198,-223,-449,-35
436,225,-80,-309,-380,-373,-351,-310,-365,-27
321,329,109,-275,-435,-403,-326,-294,-346,-235
759,451,355,-91,-308,-347,-321,-363,-350,83
997,447,191,20,-100,-201,-243,-305,-159,583
408,296,10,98,73,6,-35,-90,-5,185
-1091,-72,165,270,262,290,280,198,90,-633
-1692,-418,211,302,346,385,410,311,108,-787
-1346,-444,8,108,253,268,300,163,-165,-987
-954,-422,-130,91,211,224,213,24,-461,-1025
-452,-183,1,165,166,173,155,2,-342,-586
-248,4,75,96,100,97,101,-34,-235,-498
-355,-85,-34,-72,76,127,157,-1,-182,-534
-165,-91,-23,-139,53,145,200,49,-95,-77
187,-60,-58,-203,-31,61,92,11,-56,335
428,-3,-36,-183,-127,-110,-117,-90,17,607
362,116,100,-44,-119,-178,-206,-188,-2,438
-27,50,162,207,66,-26,-95,-105,9,-99
-270,-64,165,508,200,9,-74,-70,53,-276
-248,-128,37,444,152,-31,-74,32,302,141
-1,36,108,460,92,-38,47,185,386,556
26,57,170,318,113,22,81,115,57,-102
-17,5,69,-202,-22,22,86,61,-217,-679
213,95,-114,-537,-165,-8,74,93,-45,-276
445,241,-258,-608,-172,-25,59,65,46,62
766,293,-291,-468,-194,-159,-125,-112,11,519
964,273,-281,-287,-183,-234,-227,-148,164,1094
700,153,-193,-169,-82,-134,-123,-22,315,1062
-31,-50,49,-68,-5,-15,37,90,279,353
-491,-178,48,37,165,140,162,156,128,-341
-402,-168,-194,-55,172,141,130,65,-131,-740
-285,-37,-66,-52,46,16,5,-95,-304,-906
-183,99,167,50,23,-16,16,-105,-271,-633
-136,72,203,46,16,-4,58,-68,-192,-237
-14,31,126,-19,-3,-8,54,-54,-129,43
11,-92,25,13,53,71,115,17,-52,175
-20,-330,-69,30,140,143,180,100,90,302
19,-173,38,122,146,96,98,21,74,363
15,201,85,288,119,-1,-52,-152,-194,-69
-103,111,-87,222,54,-38,-97,-197,-373,-579
14,201,-43,3,-54,-76,-134,-201,-328,-425
147,172,-22,-253,-141,-109,-103,-94,-104,49
352,122,-110,-461,-159,-43,39,123,219,518
291,25,-47,-271,-119,-56,65,189,408,722
-53,-21,161,76,-39,-74,29,92,315,438
-312,-43,153,134,1,-40,31,8,176,12
-350,-92,65,103,43,2,34,6,171,-98
-283,-36,70,203,54,-4,-10,-6,159,-123
-125,-25,-31,121,-13,-65,-66,-8,96,-195
196,-55,-167,-74,-110,-128,-96,3,91,122
625,97,-79,-82,-153,-219,-177,-112,-13,512
931,279,88,23,-150,-266,-230,-209,-184,572
867,385,206,92,-79,-160,-123,-117,-216,420
545,258,35,-130,-124,-98,-32,9,-123,233
302,81,-116,-254,-154,-78,-1,68,-33,181
-132,-48,-106,-160,-55,8,81,156,213,92
-548,-159,-21,-24,70,112,165,255,315,-248
-1045,-282,83,136,187,217,271,324,276,-626
-1227,-374,46,157,189,271,364,381,222,-784
-384,-169,133,305,114,74,109,78,4,-245
537,91,233,364,-8,-223,-265,-271,-137,489
844,207,116,259,-58,-333,-417,-418,-148,642
843,246,-110,119,-88,-303,-411,-403,-94,607
641,221,-133,-104,-146,-230,-308,-262,-5,631
91,93,-5,-125,-123,-100,-114,-58,71,367
-423,-80,-61,-45,22,83,60,54,32,-86
-715,-292,-187,4,156,225,202,181,115,-249
-615,-346,-117,-56,185,288,276,330,405,53
-214,-246,-101,-192,43,163,176,264,425,153
146,17,-116,-292,-95,-26,-3,47,206,64
138,158,-55,-268,-94,-20,2,75,253,210
53,185,-17,-186,-76,-21,6,44,33,-31
43,210,48,-82,-27,1,22,-11,-310,-356
-244,121,123,39,96,108,126,63,-319,-430
-528,-51,95,106,190,190,194,142,-337,-659
-480,-138,64,111,179,170,152,70,-476,-712
-352,-147,53,76,106,91,46,-91,-548,-771
-150,-95,-13,34,36,10,-33,-197,-395,-512
38,-52,-109,9,-23,-65,-105,-213,-186,-89
-180,-97,-94,153,31,-57,-88,-138,-99,-254
-502,-195,0,444,188,37,-36,-70,-173,-701
-376,-241,42,638,225,47,-84,-84,-233,-694
-43,-192,11,575,127,-16,-97,-48,-24,-196
186,-135,-132,213,-4,-59,-6,74,272,250
188,-123,-238,-249,-102,-58,91,150,361,294
548,55,-259,-595,-171,1,159,134,261,484
1150,380,40,-627,-302,-126,-26,-65,149,1000
1309,499,210,-501,-361,-261,-212,-204,240,1581
1205,346,-78,-409,-313,-245,-210,-70,596,2261
202,-11,-234,-300,-164,-51,40,293,962,1671
-630,-203,-83,-44,50,158,241,404,816,541
-452,-43,117,132,165,210,229,311,535,160
-479,84,232,216,250,274,232,181,33,-657
-596,90,253,187,256,263,157,-87,-874,-1968
-435,86,196,145,138,109,-52,-367,-1347,-2178
-424,-110,84,197,113,70,-105,-313,-1048,-1566
-297,-145,61,260,131,53,-64,-191,-633,-865
84,249,119,164,21,-98,-196,-294,-488,-401
170,263,-70,-94,-143,-185,-232,-235,-264,-177
-77,77,-81,-185,-138,-101,-100,-65,-118,-481
-115,88,60,-100,-59,-22,-11,14,-38,-381
-4,85,34,-11,-41,-29,-12,0,87,73
-89,28,45,47,37,22,49,51,178,300
-124,-36,-7,-9,46,26,55,82,339,473
-155,-82,9,-40,13,22,45,120,336,224
-325,-184,71,108,24,36,68,92,111,-258
-361,-247,-17,285,39,8,59,30,-75,-494
67,-73,-154,21,-56,-42,-6,-139,-313,-428
234,16,-194,-206,-121,-59,-62,-175,-267,-231
231,27,-155,-191,-113,-56,-71,-118,-154,-97
453,86,-16,-66,-154,-175,-218,-173,-83,165
568,21,108,208,-132,-253,-279,-151,102,517
301,-282,-34,380,-63,-211,-183,-11,327,768
-165,-516,-312,199,30,-4,105,297,577,718
-527,-417,-358,-92,120,213,337,427,534,459
-256,49,-46,-219,91,263,355,335,288,336
95,477,234,-312,-5,196,283,239,215,355
8,230,146,-173,-60,80,175,229,294,374
-98,56,107,42,-27,34,84,190,219,120
-49,101,109,89,-12,-7,-18,55,12,-216
-23,104,73,80,10,-30,-78,-69,-187,-374
6,52,50,108,54,-6,-68,-81,-177,-258
-60,-86,-91,-17,77,84,0,-68,-231,-419
-37,-89,-157,-30,61,71,-9,-131,-408,-666
-162,-69,-24,145,78,54,3,-116,-366,-655
90,-42,-24,46,-10,-6,-12,-37,-113,-16
375,-40,-46,139,-79,-127,-78,-64,52,474
442,-55,-43,279,-71,-181,-119,-66,245,791
348,-6,72,82,-146,-174,-100,-12,392,927
294,122,316,-32,-174,-174,-109,-59,290,786
528,207,205,-220,-102,-37,21,26,307,869
461,66,-236,-509,-46,163,266,262,525,1080
-75,-145,-286,-113,118,212,273,252,518,926
-442,-214,-213,152,276,308,342,312,423,239
-580,-269,-109,92,185,211,268,169,-131,-924
-268,-121,201,89,8,-100,-91,-265,-782,-1410
264,230,277,-20,-145,-276,-303,-448,-739,-769
112,11,-66,-239,-127,-88,-75,-189,-304,-290
-67,-22,-102,-212,-105,-17,38,-39,-69,-166
-223,142,66,-34,-48,-30,19,-59,-109,-222
-160,71,66,-38,-49,-37,22,-46,-125,-104
-151,-16,6,-21,-35,-25,-4,-34,-206,-399
-238,-60,-29,58,7,26,32,4,-217,-546
-252,-74,-39,151,31,41,46,7,-140,-383
75,-52,-61,189,4,-25,-46,-20,54,170
464,-2,-132,127,-75,-126,-178,-69,218,703
