-197,-72,-206,-42,-44,-55,-113,-137,-76,-290
-180,-86,-233,-46,-58,-58,-125,-112,-56,-203
-135,-81,-204,-46,-39,-35,-111,-49,-32,-101
-88,-62,-130,-45,-18,-37,-63,38,-20,-65
-43,-30,-30,-24,8,-33,-1,136,-23,-45
-39,-11,22,-6,16,5,49,208,-11,-37
-42,-17,-13,-10,19,35,113,212,17,-2
-28,-5,12,0,27,45,186,166,40,46
-9,13,77,30,50,60,231,104,59,75
4,25,77,50,51,76,233,89,72,64
18,16,56,27,57,78,220,76,84,26
17,3,41,15,49,65,158,40,93,28
30,15,46,17,56,60,96,11,89,38
31,26,48,11,55,53,37,-22,58,-8
31,40,62,17,30,14,-45,-89,-10,-71
59,37,83,32,29,-7,-116,-125,-34,4
51,-4,69,33,16,-16,-112,-102,-4,100
39,-63,34,15,12,-9,-87,-65,28,122
94,30,23,4,-4,-36,-99,-80,-3,96
134,138,86,13,-18,-64,-113,-115,-68,49
101,78,65,0,-18,-50,-110,-99,-64,41
53,12,5,5,3,-14,-62,-58,-31,45
-10,-32,-1,33,50,46,23,-21,-10,70
20,-35,53,43,67,58,69,-15,-4,64
121,26,44,2,-3,-10,44,-3,5,23
84,2,14,-48,-36,-30,47,57,61,-7
50,-21,15,-57,-26,-27,84,95,100,-41
62,-2,12,-55,-42,-46,76,78,102,-73
29,-9,-2,-46,-37,-30,47,63,73,-39
-16,-27,-22,-44,-33,-33,21,34,22,0
-21,-39,-24,-45,-30,-47,-18,13,-10,25
-16,-33,-37,-28,-34,-46,-25,15,-4,38
-16,-29,-21,-31,-40,-44,-47,-3,-33,-21
16,3,14,0,-11,-42,-63,-31,-37,-69
39,20,34,11,-1,-36,-92,-50,-38,-66
38,35,26,4,-14,-35,-88,-53,-40,-37
37,30,-2,10,-15,-44,-83,-56,-36,2
43,22,-42,8,-6,-41,-66,-52,-1,47
45,16,-25,4,-18,-22,-43,-22,0,97
35,11,20,15,-3,-10,-26,5,3,92
-1,16,30,40,14,8,-5,15,-37,-17
-20,17,23,39,25,31,15,20,-59,-69
13,25,1,15,21,33,36,29,-35,-20
3,20,-5,9,13,38,18,24,-11,-10
-34,4,-11,0,-6,20,1,-13,-34,-43
-58,-14,-12,-9,-13,-1,13,-58,-75,-73
-58,0,-4,21,-5,29,59,-26,-63,-55
-25,9,0,26,-17,28,102,-6,-46,-21
10,-1,-14,-3,-21,12,116,7,-12,-14
18,-15,-55,0,-20,11,111,17,-12,-19
-2,-13,-17,3,-13,14,98,17,-22,-26
-6,-1,-3,0,-6,13,72,13,-6,-12
-20,-11,-33,2,21,27,50,0,-1,-1
-27,-16,-42,-18,24,40,19,-15,-15,9
-32,-7,11,-19,4,40,10,-36,-22,5
-31,-11,24,-3,0,33,5,-39,-19,-13
-8,-6,0,0,-31,-1,-39,-26,36,11
32,13,-74,0,-56,-33,-61,-25,68,24
23,20,-66,8,-65,-49,-41,-20,63,41
20,1,30,13,-53,-51,-33,-19,33,55
20,-5,32,9,-30,-36,-29,-34,7,12
37,-1,0,-14,-30,-39,-24,-39,13,17
68,7,-4,-41,-43,-57,-63,-41,30,78
65,-3,-5,-65,-36,-28,-63,-15,36,140
48,-6,-3,-63,-33,-24,-56,4,61,173
37,0,1,-68,-39,-36,-57,1,54,91
0,-13,-4,-60,-31,-14,-35,5,43,8
-30,-29,-7,-44,-16,15,-25,11,44,-41
-26,-25,-10,-30,-16,16,-17,12,36,-40
-33,-26,-14,-22,-15,35,25,27,2,-34
-64,-55,-37,-52,-14,49,69,32,2,-54
-78,-71,-57,-57,-8,60,110,46,26,-42
-72,-75,-29,-39,17,62,144,65,43,-33
-44,-65,-5,-16,29,53,122,52,21,-41
9,-53,12,-14,38,29,48,18,30,-27
20,-66,-75,-18,45,44,26,21,47,-28
11,-31,-144,1,53,58,6,32,52,-28
37,53,-75,6,48,39,-60,-3,-3,-11
48,0,0,-17,18,23,-75,-28,-56,59
108,-101,-41,-48,-33,-35,-88,-15,-3,221
141,-218,-149,-67,-49,-82,-99,45,119,346
190,-74,-71,-61,-72,-117,-106,46,144,365
269,237,82,-34,-111,-177,-160,-47,68,290
182,244,38,-10,-103,-147,-126,-67,28,200
17,144,67,22,-64,-67,-52,-56,-8,7
-161,35,22,26,0,-12,-5,-67,-157,-273
-287,-72,0,15,26,3,-7,-116,-263,-366
-218,-80,13,5,32,27,5,-115,-232,-329
-68,-40,16,-12,28,30,21,-40,-113,-185
-21,-3,48,-14,17,22,24,15,-27,-119
-31,31,61,19,16,31,28,-1,-55,-200
-114,30,-36,42,20,32,42,1,-64,-287
-161,-6,-87,27,31,28,61,16,-37,-281
-96,-2,3,36,34,15,47,-8,-39,-222
-14,12,93,42,35,2,4,-23,-55,-180
60,34,84,2,11,-19,-45,-25,-79,-134
118,30,64,-18,-3,-17,-40,13,-48,-52
103,30,60,-20,0,-15,-21,30,-10,15
61,37,67,-8,-12,-21,-19,-18,-20,36
72,47,80,-1,-19,-21,0,-64,-22,50
-6,36,82,24,18,20,40,-43,-8,-27
-171,-1,83,51,51,80,88,34,-14,-176
-178,-9,44,40,49,80,101,101,0,-155
-84,5,34,9,13,44,95,113,24,-73
-46,20,43,9,6,33,94,83,36,-22
-25,16,49,18,14,44,108,40,30,-7
-18,10,47,16,19,58,106,12,25,14
6,3,21,-10,16,44,65,9,65,56
53,32,48,-15,9,14,10,-8,60,63
64,43,53,-12,0,-3,-11,-13,58,50
44,24,35,-28,-7,9,-18,-8,74,62
37,13,31,-20,3,24,-11,-12,67,70
32,15,23,-11,11,18,-43,-14,81,66
29,38,39,18,27,1,-77,-26,80,61
3,32,49,20,30,2,-65,-35,24,53
-20,-5,1,-17,12,-19,-62,-45,-18,48
-17,-27,-99,-34,-7,-31,-55,-42,-37,2
-18,-43,-75,-43,-14,-27,-40,-20,-47,-43
-26,-43,-32,-42,-22,-35,-31,-18,-41,-22
-12,-29,-23,-37,-20,-42,-9,-5,-14,9
17,-18,-43,-36,-33,-38,-12,6,4,52
51,8,-123,-13,-22,-31,-19,27,42,95
72,14,-82,-32,2,-20,-15,44,90,85
88,8,-45,-42,14,-3,1,43,108,76
97,30,-1,-5,31,12,0,40,92,104
54,7,31,23,33,31,14,38,79,140
-98,-99,-16,22,47,66,53,51,30,52
-176,-151,-36,-15,37,68,54,33,-43,-87
-98,-48,-66,12,4,41,38,-10,-80,-36
-75,-22,-126,32,12,42,54,-13,-79,31
-73,16,-4,47,39,61,39,0,-44,-28
-13,60,101,84,55,71,35,24,19,-12
18,99,154,61,28,30,-14,-19,-50,-7
-38,41,88,-41,-32,-5,-19,-47,-98,-25
-50,-7,-13,-83,-9,40,3,-36,-74,-22
-62,-34,-20,-34,49,104,11,-36,-77,-41
-80,-50,-22,2,76,124,-26,-71,-102,-82
-80,-59,-32,0,54,109,-56,-62,-94,-64
-27,-43,-32,-21,-5,55,-57,-25,-40,41
39,6,4,-15,-69,-31,-77,-22,3,124
92,45,56,2,-114,-104,-65,-9,41,179
88,38,23,-13,-122,-142,-33,14,87,197
47,0,-63,29,-69,-117,-14,10,49,144
-45,-47,-57,152,6,-47,18,23,23,53
-122,-92,9,210,15,-20,59,55,8,-19
-30,39,101,164,-27,-90,-11,-4,-47,-29
37,117,123,11,-82,-125,-87,-76,-80,-13
29,60,42,-98,-99,-104,-87,-53,-46,33
10,-25,0,-87,-57,-34,-15,26,35,91
-39,-112,-35,-80,-15,25,68,115,113,117
10,14,9,-75,-15,29,77,71,59,67
103,227,88,-60,-42,-21,-4,-30,-41,16
77,147,59,-60,-40,-13,-32,-18,-35,12
24,45,18,-60,-9,19,-5,10,-1,29
54,28,0,-61,-1,23,13,18,15,62
90,18,-22,-61,-9,26,33,21,42,90
72,-4,-107,-56,-11,45,62,47,48,109
21,-28,-181,-28,12,63,87,59,44,68
-50,-62,-159,-15,29,84,87,59,13,-30
-51,-89,-62,-6,45,92,77,57,12,-16
-7,-67,-41,14,61,82,38,45,27,40
25,4,-40,24,81,59,-5,-1,22,28
55,96,-1,52,57,29,-67,-64,-34,6
34,85,37,50,35,2,-51,-69,-37,-30
3,54,87,25,11,-3,-16,-40,-41,-84
-30,39,68,12,-2,-15,0,-25,-32,-117
-68,20,48,12,-10,-11,7,-22,-5,-107
-77,-20,23,-21,-8,1,8,3,0,-78
-3,31,-11,-47,-11,0,0,1,-17,-34
1,27,-12,-38,-8,7,1,0,-20,-25
-34,-36,3,-42,-7,16,19,21,13,-4
-71,-101,-23,-44,11,38,80,73,68,56
-30,-72,-14,-34,10,34,87,85,108,103
78,67,33,-9,-13,3,43,31,76,119
44,50,39,-7,-30,-4,24,17,65,128
0,-27,21,-14,-13,19,33,41,69,130
4,-39,30,0,14,37,46,43,56,97
-16,-29,16,1,18,30,44,31,36,0
16,30,15,-18,-15,-26,-6,-27,10,-61
-13,-25,-10,-26,-6,-3,-3,7,22,-79
2,2,11,15,24,25,1,7,5,-100
50,82,41,41,21,20,-17,-12,-16,-103
19,79,51,37,22,1,-29,-41,-45,-139
-43,60,60,38,14,-28,-58,-72,-81,-237
-63,-109,-25,15,48,29,0,-16,-58,-70
-90,-189,-51,-1,51,64,79,19,-26,67
-59,-65,19,24,36,19,52,-9,-64,63
-36,107,80,49,-16,-42,-15,-41,-99,-51
-73,57,48,30,-28,-16,30,16,-54,-110
28,37,23,7,-24,-21,46,46,10,51
152,66,-61,7,-28,-29,17,33,76,265
146,54,-130,17,12,-4,37,33,86,245
71,13,-154,13,16,5,37,20,22,113
44,-18,-128,-15,-6,-4,36,10,24,91
48,-28,-126,-38,-8,-14,65,29,79,174
-6,-33,-99,-26,0,-1,63,23,54,124
-76,-60,-28,-28,-1,-16,9,-24,-17,-85
-119,-97,-36,-63,-44,-76,-81,-87,-57,-243
-96,-90,-40,-68,-70,-112,-136,-82,-25,-123
-11,-44,-29,-60,-99,-127,-136,-46,35,43
22,-8,1,-54,-79,-88,-71,32,51,16
4,1,20,-31,-34,-33,3,113,14,-98
-31,32,53,34,12,20,66,148,-36,-210
-51,42,84,70,40,49,98,122,-68,-276
-43,10,74,52,48,52,128,72,-60,-235
-47,-93,22,21,32,59,132,51,-36,-36
-80,-191,-29,5,34,72,114,73,24,124
-8,2,40,30,28,41,13,20,-2,71
104,219,116,39,9,-27,-51,-75,-79,26
76,148,76,34,7,-38,-42,-84,-58,41
37,77,41,23,2,-25,-74,-83,-51,14
18,33,-9,19,7,-17,-103,-96,-61,-81
21,7,-4,26,11,-5,-102,-89,-42,-109
37,-11,13,24,9,-3,-65,-72,-3,-19
31,-30,17,42,8,6,-27,-22,31,65
20,-6,16,42,0,-1,-3,29,40,85
26,64,30,28,-7,-21,-5,52,1,-17
-59,16,-71,6,-22,-7,37,83,-37,-179
-51,-19,-93,-9,-23,11,50,82,-19,-197
5,-2,-5,-7,-17,1,42,53,20,-91
16,-30,-13,-8,-1,16,60,51,52,-24
2,-69,-34,-5,15,28,66,70,68,40
12,-37,-11,-10,0,9,28,36,16,84
37,43,26,-12,-21,-28,-37,-22,-39,39
29,30,-43,-9,-12,-28,-40,-18,-8,62
65,25,-89,3,-9,-26,-33,-4,56,181
119,22,9,-3,-2,-25,-42,-1,108,268
135,16,15,-3,6,-19,-86,-5,117,310
120,15,26,1,7,-47,-116,-30,94,307
91,7,46,1,-2,-57,-79,-53,46,247
22,7,53,11,12,-11,-29,-51,-13,31
-130,-29,31,4,21,7,-8,-54,-116,-318
-191,-32,13,12,11,-18,-41,-71,-153,-427
-133,-8,25,12,14,-33,-54,-63,-97,-247
-94,-11,-55,7,11,-43,-59,-56,-93,-146
-79,-7,-120,16,37,-14,-40,-55,-92,-146
-33,-10,-29,19,44,22,11,-7,-35,-97
-14,-11,43,11,44,62,40,12,-13,-66
-10,-5,56,9,48,90,64,15,-5,-24
-3,0,51,24,43,101,72,7,-6,16
7,-5,37,8,24,73,38,-1,-5,36
53,-3,-22,-26,-19,-9,-13,-3,1,71
152,27,-72,-36,-52,-97,-57,-31,21,145
257,44,7,-40,-86,-135,-79,-35,39,225
257,51,39,-45,-82,-122,-86,-23,44,212
191,44,26,-49,-61,-73,-62,-25,53,148
77,12,18,-30,-43,-40,-64,-9,26,96
-141,-62,17,10,7,4,-13,38,56,0
-296,-138,0,30,49,55,25,88,60,-127
-237,-46,23,29,44,38,-11,50,1,-186
-129,45,44,17,15,-7,-73,-2,-32,-139
-93,4,12,7,16,6,-67,0,-23,-93
-83,-38,-9,22,48,37,-53,9,-11,-80
-99,-73,-40,1,60,59,-35,22,-11,-89
-127,-77,-37,12,72,90,-25,10,-33,-97
-107,-65,-13,31,96,130,-7,15,-43,-92
-35,-35,5,35,81,154,20,10,-36,-48
-22,-46,-18,17,38,151,100,38,15,2
41,2,-6,25,-13,50,109,54,65,73
144,95,42,32,-24,-31,43,0,53,100
155,94,62,33,-13,-59,7,-31,42,149
125,54,41,28,-17,-103,-22,-44,39,211
96,48,23,20,-37,-105,-33,-35,10,206
79,41,12,8,-66,-94,-69,-13,25,149
52,8,15,-17,-64,-87,-85,5,33,76
2,-24,-16,-27,-44,-44,-61,-9,16,-43
-28,-46,-43,-27,-27,-5,-28,3,-13,-94
-38,-55,-127,-38,-17,21,0,23,-2,-104
-56,-59,-136,-34,18,89,37,12,-3,-101
-62,-40,-2,-5,57,148,69,11,-15,-91
-54,-18,50,6,58,128,62,20,-30,-91
-34,-29,45,-1,47,75,51,6,-28,-86
-4,-32,15,-51,-3,-20,-35,-22,-29,-36
29,-25,-11,-59,-41,-108,-107,-41,-23,0
80,19,3,-25,-45,-120,-90,0,16,34
113,66,45,-5,-55,-121,-83,38,41,58
106,72,34,-6,-34,-80,-31,42,36,53
88,86,30,13,-6,-41,3,44,55,64
41,44,23,19,14,4,52,60,48,45
-22,-14,-20,15,22,26,102,61,11,11
-20,-21,-22,14,20,31,87,58,2,21
4,12,41,19,7,16,17,21,-15,6
-7,39,60,12,0,-6,-43,-3,-30,-32
-3,21,34,-6,2,-9,-54,14,-10,-47
-1,14,45,24,14,5,-41,17,21,-40
-29,-86,4,50,30,37,-26,39,91,48
-47,-179,-58,21,32,43,17,71,121,145
25,0,3,25,2,-13,-12,6,37,92
86,166,3,12,-23,-58,-52,-52,-21,39
61,140,-65,-9,-43,-63,-61,-58,-47,50
30,63,8,-4,-48,-37,-45,-56,-52,79
61,55,34,5,-41,-48,-22,-53,-15,147
91,69,6,37,-17,-28,17,-43,21,260
93,30,25,25,-3,5,58,-29,43,336
75,0,21,-2,-14,15,70,-42,55,348
48,0,6,-7,-15,9,76,-61,45,240
-37,-12,13,0,-28,13,37,-71,-80,-107
-160,-50,15,4,-38,-12,-14,-50,-208,-519
-160,-79,-19,-15,-45,-40,-40,45,-168,-578
-96,-60,-32,-3,-28,-36,-43,116,-71,-333
-51,-69,-9,4,-6,-11,-17,125,0,-150
-64,-119,-26,-14,3,27,50,120,35,-93
-47,-61,1,-18,-12,19,53,68,18,-101
-18,12,33,0,-18,8,37,33,-2,-109
-32,-17,6,-4,1,55,71,67,39,-61
-47,-72,-14,10,32,75,75,81,70,-3
0,-9,37,38,32,20,11,-10,27,42
87,109,79,64,7,-21,-40,-98,-25,72
70,94,59,41,-16,-50,-59,-106,-20,91
5,18,30,31,-6,-56,-68,-50,14,75
58,35,32,25,-7,-43,-72,-18,20,53
56,22,6,11,-18,-45,-103,-32,-6,-37
29,-7,-2,9,-25,-41,-92,-14,-16,-38
24,4,23,12,-30,-32,-59,2,-15,1
-48,-51,-21,8,-29,-20,-20,36,-17,-20
-118,-143,-94,-18,-25,0,63,76,-1,-90
-35,-20,-33,-9,-20,-5,64,28,-44,-89
53,88,-69,8,-16,-9,27,-16,-66,-18
27,34,-110,5,-22,12,54,9,-9,43
-10,-35,-40,-7,-23,18,57,39,34,88
22,-9,-5,-12,-25,2,17,17,54,142
76,63,10,-5,-17,-17,-11,-13,45,145
34,6,-27,0,6,17,20,22,65,75
-42,-127,-69,-4,45,70,58,56,89,-8
-101,-186,-83,4,93,96,44,59,95,-65
-63,-78,-38,2,75,61,-9,23,71,-24
15,89,51,10,52,0,-97,-79,-33,6
6,98,40,20,111,59,-71,-96,-111,-25
-11,36,-2,16,120,170,25,-26,-84,81
-28,16,-22,35,112,199,62,-20,-80,100
-103,3,-7,78,96,151,55,-63,-134,-143
-139,-3,-38,97,58,53,43,-105,-188,-366
-90,13,-82,122,43,-16,48,-109,-180,-288
7,-18,-61,90,-9,-74,63,-29,-60,-31
56,-111,-76,53,-34,-80,89,79,99,203
22,-223,-96,42,0,36,126,132,150,322
15,-27,56,71,-19,11,27,24,32,80
37,278,218,41,-52,-111,-108,-111,-119,-198
-23,190,96,-50,-26,-99,-102,-111,-103,-127
0,56,16,-65,-5,-71,-73,-66,-20,115
57,45,27,-60,-27,-65,-41,-6,60,242
50,78,12,-33,-5,-48,-43,-2,50,161
-47,53,-29,-16,28,-25,-43,-31,-34,-114
-125,7,-135,-44,-9,-55,-53,-40,-91,-355
-103,-18,4,-70,-41,-27,-29,13,-18,-271
-64,-38,12,-71,-14,17,-16,19,1,-164
-49,-45,8,-54,5,52,-6,-5,-34,-110
-29,-44,-13,-29,2,33,16,-6,-16,-71
-18,-63,-50,-24,37,59,68,16,10,-40
-7,-82,-80,-38,23,53,100,72,73,30
4,-69,-67,-21,29,32,68,68,102,81
-8,-50,9,42,22,9,22,4,43,77
-59,-67,60,75,-12,-39,-42,-50,-35,3
-53,-71,20,80,-16,-43,-43,-53,-45,-67
-13,-83,-29,28,-12,-9,-6,-22,-12,-62
-21,-108,-6,-85,-43,17,-8,-17,-21,-52
-34,-97,13,-113,-46,-9,-18,-34,-30,-37
1,-37,65,-75,-21,-70,-50,-45,-25,-16
27,33,76,-96,-47,-121,-64,-51,-35,-21
44,46,3,-141,-58,-123,-70,-44,-58,-6
52,34,-89,-98,-22,-94,-26,6,-12,25
53,7,-102,-79,-33,-49,89,100,92,80
45,-5,-43,-68,-51,0,167,154,152,118
54,-4,-8,-52,-20,27,147,122,143,125
46,11,22,-15,31,33,126,74,81,118
39,16,35,12,59,25,86,51,52,127
31,25,39,27,28,-3,23,13,37,100
16,25,48,19,-6,-27,-20,-15,-10,36
-4,9,-23,20,-22,-16,-35,-10,-17,29
-36,-22,-125,22,-19,22,-51,-2,0,28
-50,-52,-57,6,-10,42,-44,17,2,15
16,-18,32,7,11,40,-55,-3,-1,46
67,0,-13,11,23,40,-66,-19,-4,56
14,-47,-38,5,-5,27,-31,3,-35,19
-21,-75,5,4,-17,-18,0,-4,-48,-6
-37,-125,0,-1,-39,-35,45,11,-37,10
-79,-239,-53,-12,-32,2,125,74,22,49
-78,-288,-95,-38,4,87,166,105,80,83
-50,-195,-56,-18,10,114,145,62,50,57
-49,-176,-30,36,51,159,122,71,61,60
247,183,132,81,75,95,-22,-65,-26,112
338,356,203,110,79,54,-101,-182,-112,86
181,244,149,126,127,88,-149,-243,-168,-74
-16,109,91,130,157,156,-167,-258,-183,-238
-120,25,27,83,121,187,-114,-137,-82,-244
-103,-20,18,23,61,94,-53,14,49,-116
-55,-31,100,0,34,-7,-11,75,81,-27
-24,-59,71,-91,-79,-115,8,121,77,69
-9,-96,-84,-161,-121,-126,40,148,69,172
67,-94,-133,-103,-112,-41,102,155,100,254
140,-91,-78,-37,-90,-14,103,77,78,278
51,-159,-66,8,-18,36,72,13,21,245
-93,-227,-35,20,20,-17,13,2,23,164
-77,-44,37,-12,-40,-153,-20,11,24,-19
-41,231,101,-46,-118,-202,-48,-21,-16,-236
-79,188,75,-64,-127,-127,-13,0,31,-239
-48,85,54,-33,-71,-60,28,16,91,-100
19,52,81,4,-41,-44,7,20,108,24
66,41,78,24,-73,-90,-23,6,90,133
70,113,88,22,-100,-135,-85,-61,-37,93
41,148,58,-18,-114,-148,-159,-149,-172,-28
-29,58,36,-38,-86,-109,-151,-149,-200,-114
-80,-26,-11,-11,-25,-38,-88,-77,-139,-108
-160,-78,8,145,76,21,-22,-23,-94,-167
-177,-59,55,262,139,24,-11,-9,-81,-198
-115,-9,54,235,119,-18,-43,-14,-61,-108
-91,0,-57,86,69,-26,-49,-1,-61,-68
-118,-39,-137,-33,51,-15,-59,6,-99,-142
-130,-51,-63,0,78,51,4,14,-115,-167
-106,-61,50,57,135,164,95,37,-102,-114
-89,-94,161,101,129,180,117,59,-73,-65
-42,14,231,97,37,42,18,-33,-124,-92
31,115,226,7,-67,-118,-90,-115,-169,-78
100,99,82,-121,-153,-176,-77,-78,-66,47
79,75,-66,-199,-243,-189,-58,0,32,108
54,34,-166,-188,-202,-147,-40,50,95,101
121,47,-138,-131,-97,-38,20,127,180,190
192,104,-35,-130,-88,-15,27,153,225,293
176,121,1,-117,-80,-33,31,111,196,272
98,67,-19,-82,-31,-8,23,64,143,170
55,22,-24,-70,4,3,9,70,112,114
50,-16,-40,-63,7,13,46,104,154,130
16,-115,-82,-71,18,57,100,163,212,165
-3,-79,-64,-47,26,48,75,133,181,110
18,99,39,-16,3,-29,-38,-33,-14,-61
21,141,84,14,14,-67,-108,-115,-142,-201
30,97,75,57,33,-8,-78,-85,-135,-195
91,24,5,13,9,-9,-66,-54,-72,-111
119,-45,-41,-40,-26,-33,-55,-44,0,24
-65,-86,-40,-29,-2,-11,-7,-43,15,21
-173,-28,-2,8,34,0,-12,-67,-47,-56
-133,-1,11,24,25,16,4,-6,-32,-78
-151,-76,-15,10,10,40,37,72,-49,-141
-141,-101,-29,15,24,83,71,96,-67,-187
-21,-3,1,33,28,86,75,76,-67,-139
3,-90,-61,34,53,103,129,113,-10,-35
-21,-212,-121,39,71,91,161,154,69,81
16,-82,-84,18,17,-24,56,44,28,88
57,39,-46,-36,-69,-119,-69,-30,10,114
134,47,-33,-45,-89,-131,-129,-31,80,214
161,86,-86,-15,-49,-83,-134,-58,91,179
172,27,-98,22,1,-39,-106,-89,81,229
86,-127,-158,28,61,8,-26,-67,105,259
53,-155,-69,50,93,79,33,-36,96,198
57,-49,64,64,63,91,47,-52,6,91
-30,46,136,27,14,73,73,-90,-115,-145
-16,186,116,5,19,55,62,-120,-192,-347
-63,15,-8,20,65,85,95,-28,-90,-257
-176,-111,-58,25,34,64,124,87,24,-173
-137,87,42,53,11,20,97,123,68,-180
-121,189,65,42,34,32,30,26,-49,-230
-301,-86,-66,0,72,92,31,-2,-93,-272
-262,-100,-35,55,144,113,22,-26,-84,-230
-142,-17,42,114,163,61,-19,-70,-96,-155
-90,23,54,104,104,29,-62,-83,-81,-128
-61,26,69,52,23,38,-14,-20,-10,-52
-37,27,67,18,-20,87,58,41,50,29
-24,-11,-19,-7,-7,131,84,73,89,86
1,-41,-76,66,1,112,96,96,122,163
7,-25,-5,222,11,10,15,38,53,141
6,19,75,260,4,-79,-95,-47,-22,93
-24,-28,-57,82,-75,-41,-99,-52,-39,22
-88,-127,-200,-115,-82,29,-32,-21,-24,-33
-104,-233,-278,-208,8,148,68,44,19,-21
-73,-287,-329,-260,65,208,155,114,94,50
32,-78,-134,-171,41,126,102,26,41,60
143,235,183,34,-11,-54,-85,-144,-105,-32
104,217,194,211,82,-111,-184,-258,-232,-167
27,70,64,250,156,17,-70,-209,-231,-211
26,0,-6,193,99,52,26,-119,-152,-170
-1,-10,15,94,117,76,30,-107,-174,-159
-70,9,74,17,111,56,20,-111,-202,-190
-62,24,89,39,64,-29,2,-39,-105,-137
73,53,75,1,-99,-228,-24,103,74,59
152,52,33,-107,-233,-264,24,223,203,166
200,57,-25,-145,-224,-174,104,238,224,196
91,-107,-81,-120,-153,-87,157,273,263,208
-27,-206,-25,-48,-71,-57,118,222,239,183
108,83,154,-5,-118,-138,-73,22,130,151
205,243,162,-18,-153,-165,-184,-91,82,124
187,168,77,39,-107,-118,-185,-83,72,117
173,109,93,143,-34,-91,-187,-73,54,115
145,117,166,77,-40,-92,-197,-51,25,109
105,124,125,-83,-91,-99,-165,-3,23,112
118,109,33,-99,-43,-29,-61,110,91,195
155,93,70,83,54,31,36,102,111,238
130,98,114,182,70,42,84,-5,28,174
9,-17,9,59,37,42,87,-66,-37,93
-69,-165,-96,-73,13,71,105,-22,46,228
27,-80,-46,-112,-33,55,77,30,170,429
133,219,87,-72,-78,-82,-55,-36,107,331
39,197,103,3,-24,-82,-45,-33,49,86
-39,68,81,55,47,10,-2,-42,-20,-176
-133,-60,29,105,111,83,-8,-88,-110,-398
-294,-323,-124,105,192,182,21,-60,-135,-404
-360,-488,-273,75,271,244,3,-133,-236,-375
-300,-473,-404,-40,182,212,11,-133,-235,-253
-91,-203,-360,-237,-74,95,124,91,9,-29
68,72,-68,-178,-131,-62,45,113,84,62
109,246,202,-8,-38,-95,-37,12,-50,-46
64,277,192,-28,-82,-75,-65,-52,-185,-271
-5,109,26,-80,-123,-41,-51,-70,-211,-389
-17,25,-46,-44,-105,-56,-62,-84,-202,-332
16,10,-19,-11,-85,-117,-100,-103,-173,-224
83,51,-21,-38,-116,-178,-108,-93,-100,-101
89,50,-17,-95,-145,-183,-101,-64,-46,3
36,17,-33,-71,-75,-103,-62,-39,-19,56
12,1,-36,-29,-9,-27,13,18,48,118
18,-1,-18,-32,1,9,52,79,83,151
-23,-127,-43,-57,0,46,99,149,133,160
0,-243,-86,-73,7,61,112,182,206,238
118,1,9,-43,-18,6,34,84,192,306
239,215,79,-5,9,25,27,44,217,421
199,66,10,31,58,102,119,148,341,490
119,-48,-15,74,105,120,128,192,390,468
94,-80,9,125,137,86,77,147,345,449
168,148,109,129,80,9,-27,0,151,336
281,325,32,27,-52,-73,-127,-101,-62,109
222,185,-142,-99,-166,-136,-154,-85,-180,-177
142,34,-217,-97,-156,-163,-207,-184,-309,-311
0,-63,-189,94,-26,-87,-154,-180,-257,-268
-330,-211,-94,243,114,75,36,-3,-70,-232
-486,-306,-126,155,240,375,292,160,51,-150
-411,-298,-165,-31,332,684,399,174,-26,-97
-389,-239,-99,-42,382,735,373,127,-124,-179
-319,-145,-105,1,333,535,280,82,-122,-195
-116,-24,77,0,178,146,69,-13,-150,-83
72,119,277,5,-45,-167,-94,-49,-88,12
105,203,257,-21,-204,-354,-184,-63,-42,-93
13,140,86,-82,-186,-322,-155,-40,-83,-264
-108,-9,9,-66,-95,-235,-85,25,-42,-324
-147,-135,-15,37,-5,-153,-18,123,87,-213
-123,-246,-8,127,62,-76,49,163,142,-23
-97,-204,67,160,79,-79,-13,44,35,45
-15,63,137,39,28,-206,-191,-203,-150,-23
-57,121,16,-157,4,-174,-196,-237,-185,-175
-138,244,111,-33,34,-165,-259,-370,-354,-452
-199,175,242,259,63,-201,-283,-449,-451,-531
-168,54,249,453,115,-173,-286,-460,-400,-405
-91,-52,55,225,75,-110,-253,-380,-289,-221
80,-117,-153,-114,-45,-76,-142,-145,-66,12
216,-114,-119,-165,-58,85,-26,28,58,182
358,-8,-9,-159,-118,253,121,132,122,380
479,164,-4,-277,-150,303,231,213,200,552
288,99,-50,-325,-127,196,249,241,228,480
-59,-104,-108,-190,-28,-25,164,220,181,268
-80,117,50,-66,-108,-272,8,111,112,84
47,356,151,-48,-203,-387,-150,-11,24,-17
28,208,43,-72,-154,-228,-104,24,77,45
-60,8,-114,-112,-89,-11,69,174,206,99
-144,-212,-112,-88,-6,85,150,242,248,120
-139,-485,-180,-2,83,111,194,303,327,262
-94,-444,-143,59,74,90,206,294,326,338
110,201,91,93,-72,-100,16,57,72,173
327,474,105,99,-129,-157,-78,-109,-123,13
231,92,-102,137,123,214,129,-68,-115,-24
1,-354,-200,281,492,632,310,-42,-94,-72
-87,-205,92,478,631,588,127,-209,-241,-207
-88,175,305,403,377,58,-261,-427,-335,-322
-167,5,13,48,37,-293,-306,-141,0,-162
-200,-160,9,21,-219,-335,-49,245,364,167
-31,-5,155,-26,-317,-282,35,257,392,439
139,328,263,-38,-210,-151,-77,18,190,473
80,299,334,133,-96,-47,-98,-73,59,289
18,132,356,164,-102,-152,-73,-46,87,245
86,61,134,-9,-232,-341,-131,-9,176,385
134,95,-141,-129,-228,-220,2,90,237,358
0,171,-35,-49,6,89,194,167,141,-104
-275,132,123,3,69,186,240,135,-116,-645
-340,64,128,-33,-82,9,90,-21,-381,-852
-160,113,46,-24,-143,-73,-31,-134,-380,-651
3,120,-41,-94,-142,-58,-61,-159,-231,-300
45,38,-116,-224,-148,-57,-88,-134,-84,-110
32,-106,-161,-270,-154,-81,-94,-80,92,34
41,-196,-143,-158,-116,-83,-71,-44,193,145
77,-48,-125,-101,-99,-97,-125,-99,122,138
118,121,-55,-104,-97,-132,-180,-148,-4,93
91,16,-86,-55,-56,-126,-177,-129,-28,116
30,-180,-288,-100,-35,-58,-93,-42,-39,118
-6,-314,-420,-181,-58,33,80,132,10,117
52,-134,-258,-197,-82,67,129,97,-40,50
143,112,-51,-139,-38,73,37,-95,-105,-12
64,42,-63,-19,57,128,17,-63,27,18
45,22,-36,47,82,137,22,-25,45,74
179,169,166,18,9,35,-34,-47,-62,117
229,248,286,12,-8,-39,-139,-106,-154,110
238,433,326,-49,-49,-102,-196,-186,-224,27
184,346,246,-58,-67,-58,-28,15,-80,84
-45,-16,98,44,80,99,144,150,-33,114
-127,-386,-17,90,172,197,178,124,-8,87
-103,-401,-64,123,158,186,169,158,76,77
25,12,34,121,98,65,16,40,-22,34
312,61,-65,-79,-64,-29,-9,134,147,332
150,-147,-271,-184,-89,57,136,369,435,423
-260,-294,-328,-126,181,484,417,527,538,54
-241,-226,-259,-60,459,974,495,348,194,-223
7,54,-88,36,525,1038,272,-70,-357,-418
-135,-36,-62,246,454,581,-44,-367,-611,-608
-484,-224,-109,443,256,-135,-319,-395,-490,-515
-454,-185,-44,346,-26,-547,-309,-127,-136,-192
-369,-248,-112,-100,-411,-623,-77,230,219,11
-185,-94,-27,-246,-438,-447,-5,255,198,24
108,168,100,-71,-221,-241,-38,99,-4,69
277,234,171,-63,-120,-158,-55,44,5,224
244,221,250,-108,-118,-140,-2,130,164,298
-22,197,351,-22,-124,-162,3,139,222,136
-301,158,299,14,-73,-104,39,122,179,-21
-150,133,180,0,-44,-75,19,65,148,145
240,166,83,-87,-107,-124,-85,-11,173,439
337,92,-17,-74,-83,-105,-89,-66,171,480
200,-115,-156,21,-5,-55,-11,-34,146,399
90,-301,-216,-55,-43,-44,105,110,212,414
214,-32,-144,-195,-187,-190,-1,13,34,285
221,156,-94,-100,-157,-175,-120,-156,-269,-77
105,-1,-50,78,45,4,-82,-160,-310,-253
23,-48,-74,-41,66,11,-21,-57,-207,-271
-143,-267,-238,-215,2,6,80,117,-21,-179
-141,-224,-101,-123,30,2,44,145,50,-46
78,205,157,-63,50,12,-84,-8,-25,28
197,295,188,-128,-32,70,19,98,133,262
180,249,156,-70,-84,43,29,105,149,242
51,98,71,39,-25,5,-3,46,43,-51
-154,-205,-66,131,80,22,36,79,49,-184
-52,209,78,282,72,-93,-104,-121,-147,-196
26,546,397,379,32,-172,-237,-345,-369,-277
-112,311,368,296,37,-119,-188,-385,-431,-414
-212,91,125,90,-2,-109,-173,-391,-393,-432
-162,-53,49,-15,-14,-47,-124,-312,-216,-266
64,-125,-30,-78,-28,0,-35,-182,39,51
142,-180,-127,-200,-86,-1,3,-61,293,209
46,-127,-88,-251,-107,-12,-33,-39,354,200
12,-59,-46,-169,-57,13,22,42,360,289
-103,-209,-204,-144,56,233,191,200,565,357
-244,-371,-384,-205,108,358,194,238,876,184
-302,-222,-329,-158,149,308,35,64,750,-245
-368,-174,-227,-2,191,194,10,-38,468,-452
-361,-273,-255,119,146,137,48,8,478,-269
-364,-349,-242,277,252,220,97,136,441,-138
-409,-510,-294,349,298,177,237,505,331,-45
-251,-615,-373,271,144,76,536,889,48,186
147,-79,51,315,115,82,508,501,-666,210
470,765,650,266,80,2,32,-267,-958,115
394,793,685,179,356,402,-33,-469,-698,151
205,381,373,93,499,709,122,-377,-507,53
118,157,135,111,397,364,-76,-430,-643,-385
31,41,74,121,235,-142,-382,-440,-718,-536
-10,62,147,-57,-220,-334,-296,-202,-607,-457
80,-16,83,-295,-498,-397,-156,-64,-532,-354
33,-207,-72,-357,-380,-291,-58,-78,-426,-310
-84,10,85,-135,-327,-305,-59,-192,-341,-371
-21,216,129,-37,-375,-322,-69,-217,-155,-223
-12,49,-94,-100,-314,-301,0,-66,118,-2
65,-13,-219,-229,-230,-241,-20,-40,191,108
91,38,-65,-89,-118,-170,-78,-112,67,59
-60,42,28,235,54,-27,6,-16,-9,-128
-47,-3,-90,172,94,93,95,96,0,-102
41,-50,-210,-209,-36,104,57,96,4,-9
166,-30,-103,-436,-189,124,33,79,56,131
524,108,-22,-444,-214,189,108,138,287,530
768,232,-41,-395,-138,64,76,115,357,683
871,560,199,-112,-87,-307,-321,-334,9,535
937,754,298,48,-196,-544,-569,-603,-129,435
485,428,237,101,-225,-531,-490,-434,74,468
-331,-238,7,21,-93,-172,-88,-29,275,361
-482,-411,-96,-21,42,101,168,195,299,140
-342,-16,79,49,79,39,65,43,-28,-277
-332,330,233,78,-45,-133,32,82,-176,-490
-249,221,277,120,56,-17,160,153,-126,-362
-7,163,301,160,181,88,34,-134,-295,-208
-172,-127,101,197,251,126,-80,-210,-251,-159
-387,-366,-121,129,246,226,65,69,0,-139
-355,-315,-100,85,115,278,289,343,209,-9
-451,-323,106,314,188,331,341,260,160,63
-442,-373,169,765,403,264,174,56,52,237
-147,-118,124,705,251,52,-19,-52,118,389
-101,-181,-205,244,0,-133,-61,61,338,335
-181,-274,-155,285,101,-125,-130,24,296,84
361,245,61,178,221,24,-60,75,371,6
786,984,255,-210,138,-2,-40,137,417,60
581,734,-1,-333,-28,-166,-149,47,132,-84
231,364,-29,-245,-330,-406,-364,-261,-373,-337
-316,-14,5,-326,-481,-327,-341,-319,-498,-450
-444,-491,-434,-472,-331,-5,18,77,-32,-21
-23,-520,-565,-378,-58,173,179,268,335,479
441,-174,-370,-289,-28,91,16,135,503,597
632,-72,-402,-287,-88,39,-37,109,805,677
668,79,-234,-290,-136,98,49,124,881,669
-24,-10,-90,-182,-36,257,143,85,666,170
-937,-429,-166,-107,63,330,281,200,510,-289
-1021,-587,-121,2,141,261,372,389,257,-487
-640,-271,0,21,25,122,385,555,-96,-695
-209,-20,63,17,52,257,383,555,-315,-587
-60,-61,81,193,301,358,250,187,-490,-344
-199,-230,37,333,388,265,94,-36,-275,-136
-329,-226,-26,257,270,303,120,6,-24,-6
-300,-178,-8,299,203,578,215,35,-72,78
-95,-62,210,459,252,578,87,-134,-520,-22
133,166,362,279,196,20,-215,-377,-988,-356
143,169,106,28,47,-522,-391,-468,-940,-416
152,55,-102,-130,-324,-568,-222,-210,-394,-38
299,156,-115,-452,-500,-422,-115,-35,-44,225
304,263,-32,-603,-523,-307,-110,-30,-50,142
274,99,-73,-404,-408,-271,-122,-23,-33,227
229,-196,-206,-191,-198,-138,21,121,125,421
197,-160,-120,-108,-83,-24,110,127,117,278
170,48,38,-163,-118,-71,12,-39,-8,4
-55,143,49,-162,-49,-37,-47,-167,-114,-397
-356,191,48,-70,85,92,-32,-187,-44,-593
-425,-54,-11,69,234,261,76,-61,111,-324
-103,-153,-165,72,64,96,108,77,218,119
196,-214,-179,18,-144,-176,48,74,96,298
129,-498,-258,18,-64,-100,80,86,-18,251
43,-365,-179,73,-13,-61,108,182,-84,-54
124,340,209,-2,-118,-145,58,161,-221,-359
82,500,263,-97,-184,-209,-97,-62,-207,-315
72,310,225,-76,-106,-122,-114,-119,51,-23
35,200,169,-30,45,192,-16,-74,206,85
-209,-43,126,289,411,500,19,-171,45,-47
-333,-229,96,637,538,315,-126,-275,-22,-70
-187,-287,-107,306,201,-147,-255,-121,106,93
-102,-313,-375,-328,-243,-321,-77,230,194,215
22,-62,-218,-348,-355,-253,54,319,-1,81
343,446,108,-170,-229,-189,48,214,-224,-98
339,529,163,-204,-124,-67,91,147,-314,-275
328,404,16,-264,-101,-40,21,24,-356,-216
539,253,-98,-248,-85,-114,-117,-129,-334,9
747,195,-4,-59,6,-80,-168,-207,-291,181
930,371,273,196,0,-129,-275,-326,-279,229
799,285,225,124,-81,-82,-174,-238,-116,179
228,407,254,36,-165,-137,-236,-307,-155,-77
-654,-32,149,61,-44,-27,-175,-300,-157,-282
-987,-427,-50,34,72,109,-44,-175,66,-118
-724,-308,-94,-46,-60,-68,-13,-9,391,219
-329,-41,-24,-38,-172,-269,-30,143,650,434
-175,19,0,-34,-146,-205,23,233,649,401
-184,-48,11,-51,-73,1,228,299,496,219
-79,-72,57,36,85,220,262,121,156,-28
211,121,207,251,349,366,-7,-251,-321,-350
585,403,254,233,299,226,-63,-170,-210,-149
710,462,172,99,167,31,-33,27,117,335
416,402,79,14,112,-26,-114,-114,56,393
92,231,102,26,36,-132,-91,-55,126,309
-170,-53,183,137,-23,-301,-136,-35,120,226
-552,-471,-48,38,-75,-229,-70,-39,7,84
-719,-601,-342,-94,-19,-28,0,-99,-2,-114
-469,-422,-479,-170,-140,-39,-40,-132,217,-96
-261,-359,-341,-145,-184,-5,50,32,483,-88
-329,-423,-250,-156,-125,52,174,289,675,37
-244,-325,-174,-113,-23,41,171,363,646,100
-37,-71,-78,22,187,85,23,102,-188,-238
-3,-55,59,162,257,203,140,78,-677,-391
89,-67,135,177,269,269,193,-7,-833,-273
134,-121,18,27,67,111,202,133,-466,-10
123,63,34,-21,-51,-39,88,75,-332,-8
120,200,187,48,-69,-85,-22,-94,-452,-184
172,-92,42,46,12,-5,28,-12,-246,11
246,-79,34,167,76,25,13,-16,-117,49
211,46,223,407,127,-25,-58,-115,-167,-217
193,287,335,468,138,-72,-149,-288,-357,-427
71,565,302,311,146,-140,-392,-631,-669,-642
-333,86,-51,283,303,59,-240,-494,-532,-634
-487,-296,-197,268,331,262,115,-60,-38,-260
-304,25,84,280,201,91,35,-10,119,-65
-31,255,182,164,-38,-168,-160,-124,106,89
252,130,3,-120,-173,-206,-130,-43,264,385
595,186,-14,-389,-293,-152,-46,36,336,552
704,320,67,-534,-328,-102,-20,72,319,600
501,439,75,-508,-379,-214,-196,-84,141,487
130,385,37,-387,-429,-362,-295,-133,98,348
-577,30,-70,-267,-311,-313,-177,27,152,79
-944,-293,-98,-57,-57,-38,37,190,179,-282
-882,-506,-92,122,178,262,198,218,116,-508
-608,-664,-5,272,230,274,199,140,2,-382
-105,-466,-82,252,60,-31,22,-36,-145,23
435,-191,-639,-219,-46,75,37,-183,-358,417
569,-78,-472,-168,-30,198,-23,-185,-140,398
541,27,-143,-221,121,172,-98,-54,244,450
411,160,96,-103,116,-44,-172,20,378,142
178,278,177,-70,-178,-207,-129,115,376,-206
-184,-33,58,-151,-324,-132,144,280,384,-145
-186,-69,80,14,-17,93,281,254,122,-108
-85,121,132,84,234,187,194,49,-245,-163
-183,183,380,394,313,122,-8,-121,-281,-87
-177,248,534,649,448,266,-1,-49,-15,104
-202,190,301,343,304,192,69,30,169,209
-261,-19,12,-11,183,0,71,23,201,137
-40,-53,-70,-151,9,-108,57,40,267,252
61,-27,-122,-297,-98,-112,22,13,217,176
0,-70,-234,-409,-275,-162,43,83,173,-16
35,-56,-194,-365,-326,-163,-1,105,251,-89
33,-189,-231,-338,-273,-77,81,218,571,145
20,-430,-312,-225,-116,28,93,268,762,519
-200,-592,-416,-220,-21,141,181,383,801,504
-213,-215,-318,-227,-46,124,173,348,483,150
-184,54,-138,-145,-10,171,177,327,71,-177
-147,146,-47,5,96,152,190,313,-267,-349
-59,172,-33,128,131,34,113,137,-503,-460
110,73,-145,66,18,-44,70,63,-391,-247
106,-133,-310,-15,18,76,137,100,-230,45
-48,-409,-328,-45,181,524,290,161,-172,92
-146,-101,13,152,426,774,155,-84,-420,-350
-64,405,179,311,445,179,-304,-519,-672,-761
-2,116,-14,187,121,-337,-276,-379,-343,-455
49,-67,13,-42,-305,-469,-173,-191,-51,-29
137,159,151,-120,-291,-450,-339,-320,-96,112
357,334,176,-123,-242,-296,-193,-121,29,328
470,379,134,-79,-147,-145,-48,38,49,421
370,481,356,107,34,-41,-43,-73,-162,324
148,462,449,254,310,15,-206,-374,-464,-44
-171,225,302,244,339,-5,-295,-415,-400,-475
-356,58,61,78,-53,-161,-204,-183,-113,-651
-388,16,-35,-89,-287,-115,-95,-63,52,-512
-392,-178,-119,-129,-281,-61,55,174,218,-124
-224,-318,-172,-90,-177,-82,77,280,222,124
-144,-302,-93,-47,-60,2,88,189,-143,-42
-148,-202,18,27,56,79,113,28,-638,-332
-72,-197,46,180,144,221,190,18,-553,-228
133,70,213,276,49,133,76,-16,-300,25
406,426,321,222,-114,-133,-143,-76,-78,249
372,375,199,31,-165,-233,-201,-102,58,207
167,161,79,-134,-137,-178,-111,-39,193,30
45,-70,-37,-178,-54,-14,35,54,338,42
-99,-246,-90,-50,100,115,70,35,262,59
21,-192,-115,-49,70,102,80,73,220,111
331,9,-60,-67,24,50,48,126,304,254
488,20,-93,-63,4,63,86,227,368,384
413,-6,-60,-69,-78,-30,-10,108,275,373
162,-61,-82,-159,-200,-170,-136,-1,387,598
28,-97,-124,-181,-208,-95,13,129,563,898
-97,-221,-129,-125,-89,74,201,219,382,768
-74,-436,-223,-52,49,147,228,195,79,574
-69,-640,-303,56,220,172,229,177,-208,316
-70,-167,-54,125,217,88,40,-169,-635,-190
-128,294,194,136,151,11,-156,-422,-765,-617
-422,125,114,159,490,479,-17,-344,-613,-798
-500,-27,31,302,947,1042,114,-359,-586,-636
-487,-230,-54,345,856,798,-2,-429,-636,-578
-278,-142,8,298,283,60,-143,-301,-475,-594
132,74,142,156,-270,-336,61,170,38,-255
407,0,97,41,-316,-290,214,512,562,407
481,-32,4,-185,-336,-171,264,607,808,708
681,494,118,-330,-539,-432,-154,125,456,413
725,672,211,-180,-615,-607,-515,-317,83,173
511,457,106,-60,-497,-534,-486,-334,26,52
247,213,-178,-253,-469,-436,-263,-13,283,152
-237,-35,-375,-376,-330,-186,35,309,584,297
-658,-180,-258,-197,-34,132,270,490,775,276
-620,-218,31,206,222,242,249,377,527,6
-338,-142,263,572,280,117,53,40,65,-128
192,47,293,396,33,-173,-257,-224,-30,128
528,144,181,16,-177,-298,-251,-126,140,314
412,286,199,-130,-177,-170,-86,6,30,129
133,367,73,-296,-184,-64,25,104,-99,20
-303,40,-134,-87,17,74,185,265,-21,-45
-557,-306,-132,-9,73,83,179,179,-140,-333
-435,-457,-169,-115,-35,-44,36,-13,-278,-518
-129,-384,-205,-166,-156,-184,-84,-116,-135,-465
278,-87,-158,-176,-245,-249,-188,-220,-19,-156
350,-208,-226,-69,-100,-53,-60,-57,230,275
390,-336,-256,-13,65,134,154,232,566,657
213,35,-66,50,143,171,160,166,346,438
-449,179,164,315,344,336,231,50,-238,-313
-769,38,265,471,540,613,312,12,-527,-657
-745,307,432,351,522,606,191,-139,-675,-770
-640,390,305,155,369,225,-27,-226,-769,-769
-255,257,166,4,207,47,-56,-184,-675,-581
260,251,113,-86,-19,-4,-77,-188,-464,-214
258,95,39,-36,-21,-131,-211,-280,-257,18
126,-187,-213,-108,-120,-121,-132,-96,176,170
-32,-393,-366,-191,-131,-93,-85,51,514,346
-373,-578,-391,-176,-109,-121,10,211,733,465
-411,-352,-201,-82,-183,-118,199,422,755,334
-81,248,67,-22,-158,-143,80,221,298,-26
140,281,97,-31,-111,-68,108,103,-95,-104
193,127,33,-3,-158,-47,98,-94,-244,36
151,-9,-92,-3,-176,-81,-4,-244,-159,184
174,-44,-96,-97,-140,-141,-74,-174,18,364
170,106,77,1,-20,-89,-27,-18,82,334
342,645,365,19,-137,-207,-149,-98,-212,83
242,583,340,17,-88,-138,-114,-124,-381,-305
-13,333,324,117,39,1,51,-67,-415,-724
-100,347,369,125,15,-69,-131,-373,-690,-981
26,383,426,49,-63,-135,-315,-573,-702,-679
191,372,398,28,-56,23,-179,-404,-441,-188
355,359,448,194,69,155,-92,-310,-396,38
993,453,413,335,75,-15,-198,-330,-472,308
1344,303,169,316,-7,-322,-349,-250,-398,402
739,-237,-302,308,186,-354,-444,-268,-337,215
-461,-512,-441,462,409,-87,-360,-346,-349,-201
-1359,-795,-555,216,330,297,58,0,11,-374
-1304,-1109,-674,-76,286,526,457,466,587,27
-791,-1012,-332,-52,299,409,373,477,790,363
-156,-550,-282,-349,-34,103,197,442,796,564
232,-111,-380,-570,-205,44,300,636,928,693
183,-19,-293,-453,-160,-35,192,391,477,240
-57,-65,-141,-165,-89,2,155,157,100,-105
-320,-34,71,14,64,149,124,18,-20,-152
-355,-42,36,-22,0,28,-18,-143,-189,-156
-24,2,-55,-164,-212,-171,-121,-134,-82,292
135,-60,-150,-323,-337,-144,96,177,275,666
44,-166,-96,-274,-267,-86,187,444,597,602
-132,-177,-89,-222,-158,-42,122,460,513,-35
-191,-14,-63,-139,-4,101,80,284,209,-572
-191,188,55,8,293,290,-44,-119,-128,-734
-193,213,175,141,350,134,-139,-305,-181,-613
-235,83,231,265,193,-80,-113,-276,-156,-441
-62,85,194,200,-72,-26,75,-85,-83,-56
204,211,159,137,-181,-82,62,1,-141,239
197,207,113,91,-71,-81,26,-26,-359,91
-90,11,-29,80,86,12,122,35,-549,-368
-40,-161,-123,81,63,16,137,26,-420,-444
237,-84,-26,-9,51,239,168,48,-131,-266
312,-91,29,-22,148,450,198,78,18,-128
324,-177,-85,-104,99,202,61,85,332,242
93,-44,-64,-180,-166,-243,-179,-14,682,452
99,109,-39,-125,-351,-343,-174,23,870,551
120,-107,-215,-7,-97,-94,-12,172,934,654
-128,-310,-354,39,44,31,120,335,766,559
-316,-148,-174,73,25,88,194,268,122,66
-139,101,-27,12,43,181,179,-80,-902,-536
-86,183,44,25,152,258,5,-454,-1288,-776
-248,9,78,47,208,303,-8,-343,-806,-559
-209,-72,34,-47,110,120,6,-53,-164,-192
33,-97,-53,-179,-124,-151,17,214,391,263
95,-177,-67,-174,-166,-69,171,340,589,395
-162,-452,-149,-115,113,259,298,378,567,178
386,341,269,57,-13,-50,-9,322,628,451
612,553,373,103,-45,-146,-71,165,352,605
635,590,288,54,-103,-233,-244,-240,-54,433
396,278,60,-68,-145,-156,-216,-264,64,429
126,71,-38,-98,-109,4,-64,-108,62,318
156,98,-42,-114,-150,-43,-111,-221,-254,43
-19,14,-73,-107,-99,-4,-107,-226,-543,-462
-315,-99,-70,-41,51,142,51,-45,-657,-838
-468,-131,-26,79,240,236,174,35,-715,-999
-537,-179,28,295,473,189,93,-60,-558,-941
-519,-233,23,614,764,368,-30,-128,-350,-737
-438,-362,-117,711,815,673,116,0,-231,-524
-268,-377,-151,510,522,502,198,140,-51,-152
82,63,285,227,-88,-175,-109,-59,-58,191
362,483,455,-190,-454,-465,-320,-209,-172,316
310,312,106,-451,-396,-238,-143,-144,-190,180
180,2,-53,-397,-321,-71,1,-23,-78,41
302,-104,-148,-400,-433,-133,110,228,271,345
433,70,-63,-303,-388,-202,129,341,405,483
397,352,74,-174,-280,-264,-72,149,250,251
241,392,98,-98,-217,-208,-106,14,60,-48
110,211,18,-67,-144,-79,-34,-101,-146,-199
-14,-30,-114,-57,-84,52,13,-171,-174,-119
571,-38,-88,-43,68,405,64,71,321,578
729,61,-4,-105,-10,27,-117,77,475,756
421,-1,-36,-105,-94,-281,-196,92,545,814
-207,128,50,-7,-190,-394,-178,50,373,444
-733,-75,-34,68,-50,-184,-23,60,13,-341
-610,-335,-268,-12,32,43,145,109,-217,-764
-195,-142,-221,-13,50,108,122,-21,-353,-767
107,330,272,64,-33,-81,-90,-275,-496,-658
163,481,415,20,-159,-281,-241,-367,-448,-505
-21,231,351,89,-13,-15,-135,-246,-180,-240
-129,-3,274,134,118,150,-52,-98,33,-29
-138,-90,196,160,178,8,-92,-86,64,2
-14,-65,138,152,75,-133,-133,-160,-41,19
102,-208,-28,48,-10,-155,-112,-55,45,265
-44,-639,-316,-106,60,189,124,198,248,491
-90,-605,-293,-80,216,436,232,199,228,319
131,284,52,33,356,182,-106,-296,-284,-300
105,311,15,19,336,-59,-118,-256,-249,-505
23,37,-71,64,59,-258,-145,-88,80,-282
-52,-106,-65,48,-184,-74,68,213,465,-2
-412,-268,-85,71,-157,90,229,284,540,-43
-663,-224,-132,232,20,-88,-131,-155,201,-174
-420,-178,-121,264,116,-104,-182,-185,266,31
-53,-237,-122,40,0,-47,39,90,403,374
86,-253,13,17,-5,-28,114,116,197,558
89,-322,10,-56,-23,72,276,217,56,594
153,-155,-31,-75,-101,-24,112,14,-265,256
149,155,-6,-34,-180,-194,-148,-244,-611,-45
90,189,20,-35,-116,-92,-16,-2,-377,-55
113,242,110,-33,-69,4,161,259,9,-8
291,374,198,-90,-113,-98,55,173,123,17
354,339,139,-80,-103,-105,61,171,290,189
326,272,86,-23,-85,-28,135,198,335,436
252,197,54,146,0,35,94,79,98,490
170,62,-11,258,0,-32,0,-23,-71,568
122,-148,-124,167,-48,-150,-85,-73,-58,646
253,-238,-257,27,-3,-95,-84,-62,-12,534
195,-191,-147,-152,-125,-85,-50,-45,2,89
-285,-349,-127,-233,-17,165,218,107,147,-356
-200,-62,33,-59,24,133,84,-23,93,-637
137,270,94,-145,-191,-159,-190,-168,106,-718
-186,46,-28,-247,-219,-191,-148,-28,219,-689
-541,-116,-52,-200,-95,-122,-91,64,157,-679
-632,-227,-100,-188,-82,-13,128,334,130,-479
-615,-204,-28,-61,38,98,202,253,-200,-466
-384,-99,61,43,137,140,69,-150,-616,-514
27,23,156,115,183,166,-10,-326,-598,-123
439,179,231,174,226,133,-32,-201,-112,528
683,283,158,106,174,303,49,-3,352,908
650,317,58,18,142,399,44,9,444,915
316,137,-110,-27,248,279,-74,-83,303,701
-46,-57,-198,-36,292,337,140,126,316,490
-498,-229,-174,55,372,441,437,361,175,-183
-700,-351,-79,230,338,123,248,161,-295,-805
-592,-506,-51,400,224,-44,63,21,-515,-773
-436,-801,-193,379,82,0,250,284,-234,-558
-355,-638,-138,315,113,91,303,239,-111,-502
76,508,238,182,-9,-170,-233,-444,-468,-588
312,786,166,-122,-215,-424,-516,-650,-385,-340
6,236,-48,-288,-236,-203,-230,-300,130,-95
-252,-86,-67,-189,0,237,72,-60,364,-12
-244,-142,41,-37,74,214,109,27,296,42
-105,14,171,63,-150,-155,-12,104,110,22
117,65,94,-12,-343,-320,26,239,-65,171
120,50,144,205,-1,-35,16,61,-471,48
-8,29,186,419,595,740,196,-126,-640,-149
-138,-41,71,240,660,703,97,-284,-550,-236
-111,-62,61,138,471,180,-150,-331,-362,-112
273,139,37,-2,-103,-27,57,94,145,332
484,240,7,-177,-343,-201,-39,150,307,505
589,273,96,-277,-431,-451,-106,197,429,637
618,74,-89,-347,-526,-486,33,361,660,920
331,-307,-312,-252,-326,-272,110,314,550,784
216,-216,-183,-81,-178,-249,-69,25,118,355
481,340,12,-126,-216,-278,-230,-164,-167,106
698,517,-31,-229,-205,-53,-35,-82,-110,105
434,225,-152,-114,-33,154,79,-43,-45,30
-99,35,-121,-43,50,95,-51,-106,-37,-180
-306,130,238,24,125,-115,-224,-130,105,-89
-464,84,257,-65,-86,-167,-134,-53,209,8
-465,44,-36,-155,-298,16,2,-111,41,-235
-562,-62,-39,-136,-226,317,182,-118,-135,-509
-496,-93,45,-33,-81,169,33,-178,-215,-513
-251,83,307,216,150,-156,-252,-190,-142,-397
75,122,314,257,111,-237,-150,46,40,-181
138,-81,107,156,183,66,-103,-10,-53,-172
-48,-320,-160,22,343,240,-6,-32,-190,-182
-280,-501,-322,-71,243,21,16,-11,-145,-35
-261,-500,-374,-153,-135,-61,49,70,215,156
-182,-293,-400,-265,-308,-39,79,169,504,65
5,-133,-334,-297,-338,-242,-47,135,608,114
108,-292,-188,-208,-276,-243,-52,157,647,431
174,-50,38,-91,-164,-140,7,226,501,516
200,427,202,-22,-52,-89,-67,118,12,340
219,318,118,-84,-154,-157,56,187,-76,524
149,158,70,-73,-147,-149,-8,22,-35,515
-106,22,-1,-50,-68,-88,-105,-110,-115,57
-292,-43,-16,-46,-1,-21,-103,-120,-288,-481
-214,-36,-64,-75,22,79,109,137,-257,-509
23,-57,-6,-11,102,200,311,338,-173,-282
290,19,122,148,226,237,232,192,-125,-107
379,302,215,210,241,124,41,-63,-148,-108
296,499,323,254,191,-59,-241,-417,-370,-232
-41,194,219,265,211,-27,-174,-275,-280,-260
-193,-131,-62,61,41,-26,21,-16,-122,-240
-169,-271,-84,-21,-10,-55,-10,-95,-172,-135
-156,-113,54,21,0,-88,-92,-229,-176,-106
-140,52,79,-24,-40,-88,-132,-251,-98,-276
-80,193,67,-17,10,-30,-138,-204,-7,-297
15,47,-48,-53,-8,-56,-109,-121,211,61
76,-146,-177,-139,-65,-33,-5,33,389,312
155,-166,-250,-131,-9,35,88,182,273,344
311,-41,-140,-90,-47,-38,172,287,61,376
287,25,-35,-32,-50,-97,94,222,-155,321
139,73,27,-16,-17,-115,-18,94,-305,106
-66,161,196,46,0,-127,-94,3,-333,-121
-363,192,300,224,44,-49,-74,-71,-427,-470
-314,113,289,481,207,104,-32,-247,-653,-700
-40,-21,129,543,285,113,-64,-306,-590,-527
90,-279,-174,301,202,74,9,-53,-164,-87
27,-396,-225,157,185,-30,-88,33,67,162
-8,222,177,-15,-16,-151,-215,-219,-240,-31
-78,431,288,-266,-166,-88,-66,-137,-247,-72
-247,18,118,-178,-11,74,48,-52,-187,-35
7,143,151,-65,-4,47,25,-54,-136,45
419,347,180,-51,-46,18,62,59,35,187
579,249,112,25,11,101,89,131,210,300
465,33,7,82,-23,-65,-94,84,288,328
142,-146,-128,16,-141,-257,-242,-6,258,243
-322,-10,-173,-146,-321,-343,-386,-228,10,-76
-582,-99,-217,-272,-226,-46,-240,-158,-56,-243
-308,-129,-99,-203,-63,107,-21,55,56,-80
261,130,139,-41,-99,-112,49,135,130,47
605,251,240,33,-107,-138,41,189,318,305
487,180,124,-49,-124,-86,38,195,390,390
90,-144,-206,-157,-124,20,150,282,419,346
-436,-474,-383,-158,-67,135,251,343,386,211
-529,-378,-211,-112,-99,84,147,231,179,61
-175,113,-6,-81,-139,-47,-60,0,-48,-88
-83,162,13,-33,-35,15,-98,-128,-195,-321
-14,-74,-167,-136,-24,94,22,9,5,47
112,-144,-226,-214,-112,55,125,215,312,513
190,54,-98,-165,-137,-104,-126,-26,140,553
34,32,-56,-106,-93,-103,-234,-243,-125,365
-221,-222,-131,-1,21,159,43,-91,-153,50
-240,-196,15,397,436,535,227,25,-158,-374
-305,-160,94,657,739,547,191,-148,-374,-712
-486,-274,12,403,583,467,174,-278,-522,-782
-426,-340,-265,-65,354,746,403,-113,-361,-467
-88,-163,-265,-208,418,477,215,-56,-193,-199
163,64,5,1,141,-408,-214,-85,-91,-37
162,28,82,-23,-412,-763,-308,17,64,20
199,67,138,-92,-467,-281,71,246,294,108
260,262,179,-79,-346,-195,-34,8,205,16
49,56,-41,-143,-266,-214,-127,-86,413,-3
-92,-49,-81,-81,-132,-76,73,177,787,155
83,-25,-15,35,42,85,228,377,868,385
294,-63,-59,46,126,154,296,462,750,453
138,-49,-53,40,110,125,315,561,617,325
-21,-41,25,84,79,15,227,496,212,176
62,-152,-24,88,102,137,330,415,-53,329
7,71,92,170,166,170,112,-10,-235,212
-355,148,348,458,391,164,-291,-518,-614,-286
-247,193,420,599,366,-35,-491,-784,-981,-465
164,32,-60,175,-4,-49,27,-216,-680,-219
491,-86,-439,-217,-233,3,289,156,-323,-71
607,-9,-212,-73,34,208,157,79,-159,-36
288,-235,-114,-61,355,632,355,269,78,-57
372,114,111,-135,133,262,159,127,36,160
534,573,257,-208,-277,-397,-274,-234,-144,357
482,414,113,-218,-458,-627,-369,-286,-117,364
533,379,88,-64,-207,-514,-461,-406,-139,247
387,233,-98,-32,-173,-467,-475,-414,-68,209
-84,-63,-229,-140,-243,-327,-312,-244,44,-5
-587,-347,-176,-163,-227,-127,-17,63,110,-356
-547,-251,-93,-139,-204,-130,29,94,-40,-413
-352,153,74,-84,-132,-164,-97,-79,-241,-396
-490,127,137,14,-11,-82,-99,-65,-243,-497
-620,50,72,22,51,73,61,23,-250,-626
-470,38,8,34,114,145,140,82,-198,-524
-177,131,67,39,41,83,217,238,70,-171
-93,114,177,128,104,104,111,126,174,26
-55,42,183,229,208,91,-54,9,314,270
6,26,111,144,158,123,-10,94,542,564
-99,-135,-59,-39,93,290,247,283,681,710
-231,-117,-89,-42,291,464,183,42,427,430
-297,-21,-69,44,463,662,185,-109,129,-22
122,-103,-66,47,135,60,54,79,57,244
-755,-382,-88,394,1095,337,-165,-217,-301,-857
-272,-135,181,317,73,-223,-106,46,-11,-367
259,58,142,-5,-585,-270,256,447,222,69
543,374,197,-76,-559,-281,290,445,146,103
546,332,110,-90,-410,-361,-2,161,71,218
-34,19,-73,-53,-229,-309,-194,-115,-124,-82
-299,-39,-13,26,-109,-176,-128,-168,-232,-365
-234,50,110,-46,-155,-1,22,-225,-398,-550
-308,46,44,-186,-176,83,38,-253,-395,-642
-136,20,-83,-292,-316,-135,-31,-36,29,-100
200,116,-20,-222,-341,-425,-234,-5,270,537
417,411,137,-135,-289,-499,-400,-196,166,714
259,363,126,-150,-287,-408,-384,-274,117,401
0,122,51,-53,-124,-158,-223,-253,99,103
1,68,130,120,-2,-81,-166,-247,26,0
22,-6,167,224,122,-61,-125,-260,-137,-131
-153,-405,-44,214,309,160,142,-8,-138,-217
-19,-587,-226,183,379,287,275,225,47,3
197,-395,-275,117,203,225,228,203,30,83
27,-157,-84,254,111,163,151,14,-210,-188
73,205,210,393,30,-108,-117,-250,-370,-343
301,563,438,314,-56,-297,-303,-294,-342,-196
37,183,164,64,9,-44,4,83,-251,-143
-312,-136,-5,92,228,255,305,264,-374,-219
-236,-86,92,139,262,199,155,47,-376,-197
-90,-51,145,69,181,106,42,4,-27,-5
27,-137,20,-10,194,159,65,71,302,329
56,-401,-195,-56,250,316,196,137,516,659
70,-495,-211,40,332,273,150,88,524,854
112,-212,-106,56,323,153,34,135,459,922
153,-223,-241,-166,-21,-32,158,389,584,1059
286,-95,-256,-325,-367,-109,316,491,556,866
143,3,-161,-293,-309,-7,239,250,90,122
-170,-257,-185,-214,-56,208,225,2,-342,-565
-240,-55,-105,-94,175,480,178,-249,-580,-815
-65,147,-22,11,199,391,24,-299,-436,-633
93,127,37,76,70,-48,-212,-245,-124,-344
210,171,107,21,-165,-330,-253,-33,180,-11
266,301,100,-93,-220,-157,-22,190,262,191
145,259,126,5,-44,21,-20,75,-23,223
12,133,81,88,37,-12,-107,-114,-233,143
-110,-21,32,13,-17,-68,-99,-199,-404,-264
-145,-196,-42,-70,-51,-96,-68,-66,-282,-435
-211,-448,-162,-36,67,22,80,176,53,-338
-141,-401,-134,-41,0,27,184,287,275,-207
153,175,115,-25,-155,-129,-32,30,162,-91
199,446,232,25,-160,-202,-197,-161,-10,-86
25,262,153,74,14,-60,-200,-246,-199,-143
-21,-37,-93,-74,80,267,75,-82,-150,43
-116,-318,-365,-309,-25,531,412,169,37,235
-211,-324,-337,-282,-1,480,382,177,101,180
-3,-78,-100,-105,-100,-49,-46,14,109,263
269,60,18,-75,-336,-499,-336,-36,193,517
406,103,-25,-180,-485,-431,-110,139,275,496
461,165,51,-15,-220,-192,-59,73,183,193
814,363,195,146,-35,-140,-179,-97,207,318
1199,536,294,212,66,-130,-244,-234,180,484
1060,440,205,180,198,-40,-258,-288,53,349
438,14,-101,-55,26,-94,-222,-241,-19,267
-357,-389,-292,-196,-191,-116,-150,-178,0,277
-1103,-418,-173,-40,-65,11,-164,-300,-229,-352
-1212,-404,-157,-27,8,46,-34,-158,-372,-939
-801,-46,25,-17,-141,-46,128,133,-278,-939
-504,123,250,163,-45,-7,-28,-12,-410,-819
-366,184,378,268,90,52,-147,-212,-575,-782
-378,188,379,258,64,-37,-33,-143,-492,-693
-389,-109,153,168,96,-10,122,74,-171,-453
-183,-201,-26,92,95,5,87,63,-45,-298
-47,-221,-128,1,141,129,103,81,35,-151
38,-212,-147,-74,194,138,63,87,126,83
-10,-339,-291,-141,455,309,68,67,292,288
133,-477,-476,-251,478,476,127,118,530,551
433,-371,-437,-235,106,215,35,149,764,973
703,-46,-222,-134,4,63,5,193,1043,1430
700,118,63,23,-39,-67,82,427,1312,1592
471,118,198,45,-158,-169,124,523,1154,1396
455,281,195,-58,-280,-53,62,323,688,1200
110,196,97,-161,-159,193,36,113,228,719
-470,-43,4,-99,162,288,34,-47,-303,-267
-698,-46,53,113,205,-23,-61,-191,-831,-1365
-613,237,227,398,-34,-244,-202,-398,-1125,-1788
-791,-76,51,438,203,379,104,-305,-1002,-1676
-854,-615,-282,-9,235,780,512,-47,-536,-1022
-775,-436,-192,-112,376,999,338,-376,-614,-780
-351,151,147,111,382,668,1,-531,-707,-813
119,232,123,90,73,-110,-90,-226,-418,-486
404,215,31,35,-345,-916,-460,-194,-394,-139
382,146,54,19,-304,-794,-277,34,-252,42
83,42,48,-83,-274,-369,58,253,-58,-30
-107,46,114,-94,-205,-211,124,289,48,-80
-120,19,66,-108,-119,-95,123,222,124,-73
-39,5,-52,-200,-166,-153,31,121,205,-56
-5,6,-79,-199,-207,-217,-57,55,206,-177
13,-107,-149,-165,-166,-204,-86,4,170,-239
58,-358,-246,-163,-141,-144,-77,11,268,108
132,36,-15,-60,-128,-167,-187,-137,165,326
277,586,271,44,-168,-308,-348,-323,-71,341
321,696,407,87,-156,-331,-428,-411,-299,108
469,600,376,30,-162,-249,-335,-356,-413,21
461,355,112,-82,-173,-201,-323,-399,-526,-79
222,129,-52,-86,-89,-119,-373,-444,-525,-176
21,-7,-13,-87,-78,-93,-262,-303,-226,15
-207,-375,-134,-135,-126,-86,29,117,350,328
67,-446,-184,-107,-58,81,327,491,843,681
490,-206,-109,-44,15,85,202,317,799,828
429,-176,-191,-71,99,142,153,282,667,755
-75,-298,-252,-60,262,326,300,397,547,528
-535,-393,-200,18,342,414,369,426,280,259
-343,-243,-45,89,268,263,258,235,24,199
-86,-139,-7,112,284,265,253,150,34,231
-10,-133,5,150,271,245,265,219,201,238
0,-142,10,155,283,238,226,238,235,265
42,-109,-18,60,195,264,255,275,185,149
-204,-216,-48,15,107,162,144,146,-93,-395
-411,-302,-39,45,85,22,-25,-63,-364,-753
-96,38,42,-63,-220,-108,4,-100,-393,-547
47,204,64,-95,-317,-210,6,-143,-358,-298
-61,64,32,8,-103,-19,137,8,-97,-169
-28,208,143,100,-11,19,21,-10,71,-138
37,326,169,48,-39,-55,-121,-136,90,-77
141,308,121,-36,-111,-180,-147,-123,170,78
136,161,59,-34,-66,-190,-193,-211,-2,-60
111,28,-31,-11,52,-59,-73,-155,-146,-37
186,-27,-79,-13,87,38,126,65,-43,380
108,-234,-132,-19,67,113,153,53,-73,481
-214,-471,-199,-13,127,308,168,-36,-193,88
-293,23,30,49,176,199,-120,-294,-534,-559
-209,336,148,76,322,327,-117,-366,-664,-859
-92,114,106,133,353,502,94,-240,-409,-550
-63,-276,-161,30,426,903,433,52,0,-75
89,-202,-220,-147,126,631,422,245,335,379
500,468,48,-78,-182,-370,-211,-23,284,608
976,698,152,-44,-561,-838,-285,125,536,1004
1078,462,156,6,-521,-684,-209,175,522,824
934,182,104,59,-172,-228,-198,45,249,255
455,31,66,-36,-183,-229,-183,21,176,31
-207,94,53,-88,-221,-328,-203,-58,44,-160
-403,50,-47,-145,-134,-26,144,221,203,-88
-403,204,97,10,23,40,2,33,-23,-239
-469,272,148,67,61,-113,-204,-249,-372,-513
-519,3,-130,-45,-73,-180,-82,-193,-471,-605
-402,-88,-197,-87,-212,-230,-97,-273,-605,-690
-368,-151,-139,16,-40,-167,-158,-300,-498,-673
-307,-132,55,87,51,-100,-186,-225,-223,-450
-145,-157,17,-2,-74,-189,-256,-196,-29,-114
86,-160,-24,-47,-140,-242,-222,-93,163,213
239,-168,-43,-74,-109,-113,-29,100,349,467
303,-178,-108,-61,-63,64,94,211,431,704
234,-184,-186,6,23,157,212,318,456,764
119,-134,-172,46,54,64,167,231,228,417
15,-101,-46,35,7,-76,45,92,77,121
-158,2,124,-21,-65,-201,-189,-168,-196,-238
-414,-4,56,-33,21,-49,-55,-67,-216,-750
-421,-4,71,20,104,101,84,52,-11,-684
-197,28,91,30,96,95,78,121,266,-88
-107,3,81,69,109,120,178,260,446,366
-104,-103,38,101,114,166,223,307,542,538
-146,-149,10,134,151,146,66,225,537,495
-138,-164,-107,111,145,145,78,197,499,439
73,-50,-58,26,24,51,43,82,331,319
70,-56,-94,-43,-30,32,25,-2,60,-190
18,86,-47,-4,29,20,-58,-5,-263,-655
252,424,122,10,75,-56,-94,36,-483,-543
529,416,98,0,223,93,113,109,-476,-202
775,615,266,74,146,-29,-74,-203,-495,-46
451,412,202,-6,-100,-63,-116,-269,-331,-17
15,-95,34,-34,-113,66,86,36,18,207
-299,-509,20,77,73,117,157,177,132,204
-633,-772,-35,176,312,338,269,290,126,-96
-456,-215,66,122,172,202,263,312,206,-64
-171,134,167,93,69,70,107,118,70,98
5,242,181,12,-90,-5,-78,-125,-146,63
76,187,71,-18,-130,-12,-96,-146,-208,-220
167,179,55,68,10,-49,-215,-283,-398,-457
194,338,175,127,103,-104,-354,-513,-732,-652
281,566,235,90,78,-24,-414,-620,-936,-691
-64,333,37,143,594,330,-430,-682,-1007,-755
-580,-24,-31,231,829,191,-471,-670,-875,-754
-824,-216,5,168,194,-297,-363,-363,-420,-563
-293,-138,-32,-141,-542,-278,53,136,124,-97
77,-66,-54,-204,-685,-236,180,277,270,93
77,15,69,107,-289,-131,71,174,240,137
-83,-107,-18,194,-40,206,163,183,305,215
-318,-492,-339,103,173,611,318,113,255,159
-243,-586,-476,-10,171,372,281,114,284,210
58,-277,-200,-34,-124,-243,111,286,482,510
325,-117,-54,-181,-234,-338,103,431,607,798
302,-389,-267,-289,17,323,353,428,502,789
281,-603,-432,-130,400,1149,608,310,273,594
368,-61,-226,-67,284,757,253,-73,-184,-13
433,404,-39,-117,-31,-329,-356,-428,-525,-348
244,253,89,-179,-395,-727,-295,-60,-53,46
283,354,263,-196,-502,-689,-248,81,183,310
464,367,221,-160,-412,-580,-268,2,108,354
378,154,76,-140,-302,-393,-132,72,132,221
233,60,-16,-123,-214,-269,-1,178,204,145
-302,-36,7,-107,-159,-217,-18,81,72,-139
-541,-149,81,-52,-101,-180,-51,-9,-45,-309
-240,-255,-24,-83,-90,-98,64,150,113,-110
30,-222,-55,-98,-108,-80,84,196,217,128
122,64,1,-85,-139,-118,-78,-36,19,42
-41,120,-5,-83,-132,-93,-84,-149,-110,-207
-254,10,-47,-32,-9,68,-60,-184,-172,-371
-318,-20,-8,100,230,275,-108,-277,-293,-429
-240,34,65,152,256,32,-261,-315,-326,-361
-43,47,20,75,185,-134,-152,-121,-135,-106
45,-117,21,77,237,-72,-88,-46,-68,26
268,-187,-87,-6,120,62,77,187,73,209
586,-9,-105,-25,-56,13,13,119,-30,224
542,-98,-120,-31,-70,60,100,170,48,332
451,377,186,36,-76,-21,73,149,132,467
224,402,219,33,-62,-41,45,117,240,484
-75,3,39,-43,-48,157,130,144,347,348
-504,-343,-135,-108,45,461,358,274,409,5
-738,-465,-103,41,279,362,260,172,267,-312
-555,-284,28,146,280,122,25,-81,27,-386
-285,-134,-23,32,-13,25,158,56,109,-153
-84,74,51,11,-136,-28,158,179,263,133
12,287,182,58,-155,-82,-9,89,233,234
-117,181,137,64,-67,-43,-48,-8,76,87
-65,130,145,81,-24,-97,-95,-53,1,22
128,105,100,12,-68,-133,-84,-62,66,116
144,-49,-18,4,-1,-48,-70,-108,209,51
-12,-198,-55,38,87,-3,-148,-137,434,-83
82,-17,-19,-42,-51,-134,-155,1,677,12
218,141,-34,-119,-181,-177,-49,283,802,192
305,72,-102,-152,-218,-74,142,558,733,386
312,-30,-141,-134,-132,106,355,671,404,493
204,127,38,-4,8,153,304,368,-383,159
270,473,246,108,59,-6,-64,-301,-1137,-278
229,429,183,61,-47,-303,-460,-642,-1097,-236
-188,-23,-66,-33,16,-237,-403,-411,-568,98
-316,-394,-158,-35,234,109,-109,-143,-189,234
-66,-552,-173,54,198,112,-42,-68,-56,202
-41,-504,-139,62,-18,111,267,241,186,3
-76,-176,-5,54,-72,178,381,312,284,-115
-39,251,111,33,-63,32,84,7,88,-188
-18,305,31,-93,-133,-37,43,33,138,-157
-51,77,-56,-89,-25,86,157,199,198,-143
-227,-44,-39,-6,184,397,186,74,-159,-489
-318,-145,-50,47,445,659,107,-204,-598,-714
-243,-258,-74,115,595,536,-13,-334,-678,-621
-86,-239,-67,66,192,-87,-159,-346,-583,-432
138,188,113,29,-147,-311,-220,-334,-461,-231
157,260,119,-16,-154,129,43,-111,-204,-119
-81,71,43,-12,-11,315,214,13,-153,-324
-131,24,52,-23,-126,-84,104,41,-82,-363
58,35,109,70,-61,-391,-188,-31,55,-39
271,24,72,19,-113,-453,-274,-15,219,356
387,95,58,-78,-209,-387,-246,-74,233,505
415,84,-44,-135,-265,-414,-264,-71,277,561
310,-102,-209,-176,-215,-282,-98,126,493,675
209,15,-57,-67,-71,-118,38,194,567,780
-117,0,52,163,219,176,115,130,419,550
-372,3,146,314,392,387,115,11,130,64
-445,-58,-4,228,520,585,174,-49,-179,-237
-242,-93,-83,130,669,703,212,-132,-422,-223
181,106,36,58,189,35,-23,-207,-399,-100
447,324,180,11,-401,-601,-249,-291,-447,-253
526,396,227,35,-523,-702,-363,-367,-563,-448
439,309,159,64,-310,-530,-313,-312,-411,-301
160,111,54,-7,-154,-153,-17,-43,-112,-242
135,109,104,-52,-159,-13,185,213,155,-180
31,101,143,-47,-135,-38,258,300,287,-51
-262,-42,113,16,-18,-1,186,198,190,-64
-147,-68,-5,-39,-21,29,175,179,104,-61
-139,-114,-169,-118,-58,21,120,69,-94,-186
-247,-274,-333,-152,-86,8,79,-17,-150,-118
-9,-244,-291,-97,-35,-10,20,-80,-22,153
148,-225,-186,-49,8,12,26,-66,57,272
108,-284,-91,-34,6,41,67,15,144,214
37,-392,-223,-121,81,73,31,47,207,265
-357,-544,-447,-150,364,323,45,-77,22,97
-588,-190,-245,46,419,344,-8,-278,-300,-343
-395,234,110,160,11,95,25,-154,-279,-495
-203,190,192,169,-174,-9,11,-6,-45,-313
-135,-12,99,212,-53,-107,-80,15,101,-75
-53,22,83,141,-25,-196,-143,18,208,129
25,151,84,72,33,-70,-165,-16,248,231
58,17,20,25,126,209,41,105,311,359
78,133,129,37,38,154,-13,13,198,391
86,320,205,19,-66,22,-174,-234,59,383
-15,79,-77,-52,-146,-121,-23,88,402,483
-116,129,0,12,-54,-96,99,306,555,242
-35,287,166,-15,-130,-121,70,198,361,0
-179,-128,-10,-49,-48,-6,151,276,368,-43
-225,-203,2,16,3,-28,64,197,152,-160
-71,70,127,90,63,-8,-21,17,-256,-243
-50,-77,-31,61,214,210,120,43,-445,-311
-58,-199,-158,20,185,144,64,-34,-460,-429
11,-58,-8,22,4,-60,-118,-160,-359,-285
33,92,156,17,-208,-125,-124,-67,-42,-29
-85,141,167,54,-111,-175,-149,-89,34,-32
-105,135,100,92,-33,-163,-128,-124,-69,-43
-41,82,31,53,-172,-157,-84,-103,-241,-10
52,50,-77,-43,-276,-41,-4,-145,-342,-18
60,-162,-320,-147,-175,138,-2,-221,-296,9
165,-410,-485,-217,-11,169,-27,-75,-43,327
281,-310,-354,-170,45,-86,-6,145,180,521
326,156,65,-63,-84,-206,-8,89,39,195
238,313,166,13,15,111,-11,-95,-219,-355
-163,-77,-15,13,226,424,20,-215,-312,-526
-278,-427,-210,-25,136,379,201,1,15,-119
-131,-324,-167,-59,-185,80,268,228,323,296
-92,-76,17,-16,-248,-110,245,299,379,338
-51,57,136,-3,-92,-228,50,140,227,263
205,220,176,-67,-61,-249,-101,-7,131,348
258,182,108,-141,-122,-109,-6,26,116,262
31,190,77,32,-2,-44,64,135,77,45
0,181,168,119,12,-147,-49,100,88,46
72,235,190,71,-65,-90,-56,95,177,-44
127,239,133,50,-14,15,-52,-31,83,-284
152,87,-44,-27,81,12,-51,-98,57,-353
210,-1,-187,-148,-88,-147,0,20,223,-34
244,-46,-132,-204,-213,-181,60,108,217,203
173,-39,-40,-97,-42,-95,11,-46,-59,83
-232,-69,60,65,232,64,-83,-223,-297,-179
-493,-182,160,283,452,217,-98,-235,-345,-259
-354,-151,202,319,314,188,9,15,-93,-57
-92,-17,215,260,81,92,141,239,129,193
-143,-127,-23,135,161,71,82,90,-29,107
-116,-229,-147,-5,93,48,67,86,-28,219
-221,-169,-105,-14,67,39,-45,-100,-255,30
-20,306,89,-31,-91,-124,-144,-187,-328,-129
284,279,10,-186,-289,-170,96,153,-57,0
249,107,-30,-135,-161,18,187,143,-136,-79
380,269,83,-8,-34,48,52,-38,-223,-95
595,350,101,-9,-40,-56,-63,-90,-44,70
691,264,-77,-145,-185,-129,-7,68,267,321
463,123,-155,-200,-246,-150,-92,35,299,358
-264,-153,-159,-136,-147,-149,-153,36,272,228
-583,-298,-142,-31,10,-5,41,252,279,149
-297,-145,-53,11,100,169,142,188,42,1
-185,-80,-50,55,193,370,167,-14,-241,-264
-316,-178,-33,110,302,458,209,-63,-395,-492
-413,-274,-51,81,369,362,168,41,-275,-384
-309,-163,18,117,478,171,-46,-93,-274,-176
-81,-8,98,154,300,-138,-318,-304,-257,59
116,-33,-2,-21,-196,-302,-199,-66,187,433
108,-159,-149,-200,-287,-32,173,240,591,631
3,-307,-150,-141,-118,73,194,262,635,566
-61,-374,-116,21,42,39,112,247,604,460
-5,-112,-31,66,32,52,141,321,517,360
152,406,186,36,-180,-116,126,221,209,125
256,729,384,74,-201,-217,-81,-171,-241,-133
180,451,276,87,-70,-118,-101,-201,-282,-184
180,166,82,-11,-97,-145,-130,-157,-281,-245
244,73,-28,-88,-130,-116,-67,-25,-89,-6
145,35,-7,1,-9,-61,-66,52,177,234
-138,-147,-31,68,61,-15,21,161,329,52
-320,-232,-48,37,59,114,101,158,318,-149
-227,173,148,59,6,-25,-128,-172,16,-177
-166,204,177,107,55,-28,-204,-349,-246,-300
-189,-26,10,23,38,115,9,-163,-342,-485
-130,-109,-85,-24,25,22,-66,-268,-678,-744
176,-52,-142,-96,-49,-209,-131,-351,-735,-647
296,37,-113,-71,-20,-229,-112,-229,-423,-402
170,26,-108,-102,14,43,-22,-70,-183,-367
-30,8,-39,-1,304,593,89,0,-127,-447
-288,-32,61,212,661,504,-108,-160,-242,-647
446,181,75,81,-130,-108,154,221,91,0
573,143,-48,55,-198,-129,148,193,168,263
490,403,65,53,-225,-312,-24,61,13,257
111,293,110,41,-150,-301,-143,-64,-259,12
-350,-130,-28,-1,-72,-136,-11,97,-143,-60
-321,-175,-19,-32,-105,-154,31,148,55,170
-198,-141,-35,-97,-133,-138,-24,43,95,315
-281,-333,-123,-114,-10,69,102,114,152,281
-258,-415,-142,-58,172,378,238,149,169,136
-222,-321,-115,-25,162,423,165,23,103,-6
-158,-57,-97,-104,-69,186,96,-17,51,-101
-63,154,-33,-89,-221,-129,-5,45,46,-120
-96,178,146,49,-128,-241,-135,26,31,-160
-202,151,202,120,6,-180,-223,-134,-106,-241
-150,144,123,174,126,-85,-197,-222,-173,-190
25,130,33,198,172,-93,-172,-207,-88,53
157,101,29,249,190,-44,-180,-252,-52,259
288,182,166,266,172,6,-217,-402,-144,264
463,-167,-56,45,138,65,-115,-281,-4,398
309,-459,-317,-117,193,216,23,-91,119,282
126,8,-200,-196,-3,209,152,54,138,22
100,202,-175,-256,-181,7,199,237,214,-76
-130,-175,-257,-250,-141,8,303,494,374,-53
-491,-537,-306,-132,128,187,331,566,476,6
-498,-427,-181,-106,51,84,154,354,398,-43
-290,93,122,-65,-59,-168,-171,-34,124,-214
-148,329,290,32,-131,-331,-257,-130,42,-184
-81,403,395,140,-301,-507,-344,-228,-150,-118
92,418,392,108,-321,-263,-94,-136,-266,-66
259,423,340,119,-157,-137,0,-169,-392,65
273,319,197,39,18,-27,-5,-142,-333,175
338,26,-128,0,31,141,115,213,265,502
283,-111,-257,10,12,10,43,200,309,406
208,-137,-214,28,90,-79,-53,31,165,202
182,-100,-119,-49,19,-142,-125,-33,85,211
134,-4,-44,-124,-108,-150,-123,-7,137,304
71,36,-39,-173,-206,-137,-101,1,175,265
-125,-58,-51,-134,-112,12,-58,-103,89,-181
-351,-239,-36,-53,26,132,-13,-159,63,-540
-403,-495,-100,10,198,288,70,-61,175,-420
-127,-183,-70,-55,75,202,165,156,216,-71
74,310,101,-47,-13,29,104,151,-49,-68
159,362,157,-8,5,44,121,91,-324,-83
164,-2,-23,14,111,285,264,167,-275,58
51,-118,-118,71,218,338,208,114,-246,-29
70,177,-107,81,119,-25,-62,-115,-326,-185
174,127,-167,-44,-117,-218,-90,-74,-100,116
174,-51,-150,-127,-124,-113,-93,-55,113,394
184,-100,-120,-152,-55,-59,-132,-86,365,636
165,-88,-93,-120,5,-63,-243,-247,355,584
49,-85,-52,-40,66,-103,-240,-228,224,288
-112,-86,-5,-35,-39,-35,13,176,234,98
-204,-178,22,24,53,345,339,431,110,-41
-273,-432,-4,206,419,560,369,283,-179,-204
-107,-45,132,251,362,173,58,-45,-352,-390
307,685,258,42,-170,-328,-226,-264,-268,-393
357,411,-10,-124,-239,-229,-141,-149,101,-211
267,13,-117,-149,-146,-95,-71,-42,401,31
134,-7,-2,-93,-164,-162,-115,0,413,86
-116,-43,104,30,-92,-115,4,189,373,0
-63,22,163,118,60,43,152,337,179,-11
220,274,285,192,127,66,115,193,-157,93
308,295,214,132,170,159,189,71,-359,81
91,202,97,68,197,373,284,36,-373,-80
-224,96,3,75,236,511,192,-38,-230,-260
-141,60,87,160,288,414,145,-20,-24,-211
83,13,150,227,259,187,141,59,92,-32
79,13,115,155,43,17,83,12,-55,-27
-193,271,170,61,-74,-285,-171,-272,-358,-96
-496,181,109,-44,-172,-380,-267,-384,-456,-105
-515,-151,-58,-43,-69,-205,-221,-306,-378,-30
-217,-211,-198,-66,-38,-155,-162,-229,-262,-67
-198,-190,-290,-104,-84,-3,-91,-250,-266,-203
-350,-234,-247,-101,-112,17,-52,-204,-143,-158
-83,-153,-175,-168,-246,-218,-1,104,228,208
186,-42,-52,-172,-302,-334,43,336,535,554
187,-72,-55,-71,-84,-139,24,127,311,488
175,-157,-140,-12,126,42,-92,-215,-170,141
65,-273,-205,-93,17,33,-105,-309,-482,-334
-11,-249,-119,-18,-22,-82,-169,-265,-518,-538
-239,-270,-64,91,223,-7,-12,-50,-355,-588
-434,-332,-140,36,421,345,294,216,-51,-375
-568,-333,-109,68,423,595,351,221,35,-258
-363,-143,65,128,310,688,364,254,137,-117
16,67,141,116,210,383,168,172,175,88
75,-63,34,34,229,91,29,124,107,56
177,25,5,-81,74,-30,-1,56,22,110
364,303,70,-104,-140,-205,-195,-144,-1,355
414,267,119,-54,-300,-175,-40,67,328,718
603,368,207,-55,-530,-358,31,292,642,1023
679,423,263,28,-333,-238,-13,191,590,1002
521,328,229,76,-118,-225,-233,-59,299,689
371,204,119,-11,-126,-278,-266,-27,177,401
132,68,18,-54,-117,-170,-104,20,-35,-75
-140,23,31,-14,-31,-20,-50,-138,-399,-693
-356,98,163,73,15,-92,-203,-331,-644,-1076
-391,38,114,62,37,-66,-105,-196,-486,-1005
-342,-23,-13,0,65,174,138,39,-172,-705
-355,-50,-83,78,258,467,122,-72,-147,-567
-381,-108,-46,124,340,434,-26,-257,-244,-561
-301,-146,-58,103,283,97,-100,-228,-170,-383
-114,-124,-83,-47,-32,206,266,180,166,-29
-134,-121,-14,61,181,713,366,212,83,-39
-293,-234,-21,186,540,730,184,-85,-270,-283
-234,-4,29,106,231,-45,-104,-253,-361,-343
247,287,194,13,-358,-654,-153,3,42,100
660,132,154,34,-215,-555,-242,28,253,508
998,148,74,-105,-270,-469,-247,61,451,834
1197,353,49,-305,-535,-488,-58,312,758,1063
1079,679,150,-358,-575,-533,-202,149,660,916
268,352,30,-310,-425,-316,-89,97,481,532
-569,-59,-46,-143,-150,43,216,250,274,-28
-852,-152,23,57,68,21,116,187,-38,-471
-723,-182,9,97,114,-17,20,107,-173,-469
-283,-103,-26,63,35,-54,-33,-11,-271,-238
-25,-84,-62,37,-7,-101,-90,-132,-238,-46
28,-101,-118,-21,8,-109,-250,-242,-154,36
139,-86,-180,-117,2,18,-135,-100,30,132
95,-263,-248,-131,42,166,250,352,348,177
-57,-183,-102,-46,36,98,339,514,368,116
-52,375,239,96,48,-104,-11,92,-78,-77
-120,394,193,74,41,-110,-88,-61,-242,-246
-214,-27,-65,-22,5,12,64,21,-172,-206
-96,-199,-192,-80,-26,59,102,62,-100,-151
205,181,19,-28,3,108,9,23,-83,-87
349,175,120,14,-2,27,-37,48,-16,47
375,184,163,16,-97,-190,-152,-79,-71,51
176,201,115,18,16,-144,-234,-220,-140,-9
-257,8,-68,10,298,26,-251,-246,-120,-87
-301,-56,-40,-23,65,-93,-132,-11,106,-4
-165,45,53,-45,-259,-137,0,146,239,8
-108,167,81,-15,-254,-101,-5,80,182,57
-206,-14,8,4,-85,-98,-86,-64,2,94
-257,-300,-92,47,112,75,19,0,2,80
-263,-376,-158,101,174,177,151,55,-38,-88
-67,-96,-65,123,36,-8,19,-83,-138,-25
88,55,10,64,-105,-84,-57,-103,-46,307
110,71,4,-34,-203,-122,-50,-23,90,478
-33,-26,-40,-76,-166,-47,-25,-27,18,235
-168,-90,-34,-48,-60,75,-18,-118,-209,-269
-192,-32,-6,33,51,116,-67,-166,-338,-499
-79,46,100,117,85,28,-82,-67,-254,-411
16,78,117,123,37,-27,-16,18,-99,-294
114,82,26,84,39,-89,-116,-65,130,1
133,29,-93,-26,-9,-204,-204,-104,421,202
112,-142,-220,-141,-35,-161,-149,5,759,292
245,-200,-350,-306,-197,16,71,275,1040,505
174,-139,-344,-340,-263,38,154,453,953,510
-186,-240,-267,-195,-126,78,314,651,607,193
-380,-240,-80,21,122,299,517,672,7,-285
-278,-212,80,223,339,509,547,345,-705,-470
-103,-293,119,288,436,712,446,28,-879,-331
-34,57,268,297,398,543,212,-250,-856,-437
129,559,395,277,224,-24,-88,-368,-658,-174
310,454,307,173,-17,-276,-114,-141,-159,481
282,265,244,146,102,-113,-152,-130,32,686
138,142,157,124,123,17,-177,-142,99,490
-16,22,60,41,27,82,-30,-17,164,88
-21,62,97,65,19,51,74,84,173,-59
-5,193,192,114,-6,-94,-6,3,-7,-201
-192,124,145,49,-57,-94,0,-117,-303,-556
-365,-13,64,-1,-35,14,73,-120,-403,-721
-300,-90,7,-42,-59,-10,56,-81,-349,-454
-4,-114,-69,-76,-125,-69,31,-99,-328,-170
281,-57,-64,-18,-88,-139,-115,-207,-269,54
373,-93,-157,-34,-28,-96,-91,-154,-107,193
321,-238,-277,-42,56,-4,-79,-105,9,212
135,-558,-431,-128,-8,46,19,75,151,190
-200,-719,-470,-208,-68,136,183,235,241,82
-252,-108,-143,-145,-123,-5,-15,-25,34,-62
14,265,62,-61,-82,-178,-250,-257,-120,-54
167,391,142,-48,-88,-253,-286,-261,-127,-77
148,469,223,-10,-61,-204,-253,-242,-120,-122
-104,157,110,37,120,111,21,-54,28,-162
-257,-38,36,83,324,420,115,-86,-16,-287
-299,-141,4,127,416,514,42,-199,-113,-328
-325,-175,19,163,353,322,-47,-209,-108,-229
56,-135,-58,-64,-134,124,340,386,395,427
144,-44,4,-14,15,108,183,247,270,391
302,188,158,126,195,-60,-168,33,213,364
361,348,211,58,-73,-295,-341,-141,104,180
173,250,112,-27,-52,23,-175,-198,-48,-112
41,18,-66,-120,-45,119,98,11,-100,-332
89,-163,-155,-183,-250,-232,65,93,-121,-342
12,-360,-231,-202,-470,-283,152,218,67,-65
-178,-69,-70,-80,-307,-237,79,133,65,17
-158,363,161,27,-180,-260,-37,45,76,65
-68,189,6,68,-57,-204,-139,-8,139,211
407,291,-57,17,-113,-293,-314,-133,221,578
905,385,-113,-137,-251,-287,-289,-153,275,896
975,260,-134,-257,-293,-168,-81,-5,304,888
-71,-300,-32,-14,92,153,168,152,91,-49
-941,-470,-2,213,521,521,217,-46,-316,-728
-1234,-522,-199,221,671,868,353,-111,-505,-1085
-1015,-457,-231,148,689,1048,440,-80,-491,-1044
-502,-187,-27,201,537,392,51,-255,-453,-594
-42,97,154,100,-136,-526,-316,-245,-324,-226
261,263,110,-158,-694,-568,-102,120,106,89
283,214,53,-132,-446,-307,20,150,217,143
175,33,27,-91,-149,-116,-89,-81,173,89
65,-44,60,-4,-62,-150,-240,-209,289,78
2,-80,50,-50,-164,-188,-67,105,575,237
-185,-209,42,-18,-68,-21,163,369,634,335
-313,-337,50,109,223,192,279,339,392,253
-107,-211,61,131,334,254,282,235,74,302
76,-72,40,117,197,100,103,39,-101,387
173,64,24,75,7,-53,-71,-175,-348,1
191,150,43,-56,-157,-82,63,-39,-266,-288
249,256,91,-103,-232,-162,8,-28,-73,-14
134,207,174,55,-22,-130,-147,-154,-39,16
-46,7,61,80,122,-12,33,137,224,74
-98,-72,-31,-10,4,-57,125,334,420,258
-29,-5,2,-51,-101,-173,-90,38,180,134
-26,-47,-27,-73,-106,-207,-202,-166,-112,-281
-121,-167,-125,-175,-206,-227,-152,-213,-300,-674
-41,90,-115,-221,-265,-156,-6,-95,-253,-615
-54,79,-100,-119,-99,42,195,127,-88,-306
-63,-286,-166,16,216,311,342,316,329,128
8,-486,-200,74,329,305,297,360,593,454
42,-255,-29,71,211,101,125,242,420,391
15,-33,86,51,145,99,90,141,229,166
27,109,166,97,132,102,100,107,78,58
230,359,286,104,-3,-61,-41,-49,-306,159
287,366,314,155,50,-162,-252,-351,-751,96
207,526,362,227,167,-194,-505,-739,-1142,-353
164,413,276,214,93,-188,-393,-574,-912,-423
385,285,265,197,22,-235,-308,-328,-529,-224
427,216,218,61,-88,-306,-317,-257,-346,-130
202,-46,58,-62,-99,-173,-169,-125,-157,-58
33,-250,-45,-88,-78,-34,-58,-120,-60,5
-116,-177,-72,-163,-242,-182,-144,-187,-11,102
-167,180,-105,-223,-278,-277,-182,-135,113,204
-9,246,-285,-320,-276,-159,22,126,398,401
4,17,-360,-334,-230,36,169,311,552,466
60,-225,-310,-240,-54,164,292,434,622,576
212,-264,-206,-133,4,130,294,427,588,712
181,-142,-92,-100,-93,2,159,254,301,614
-127,-210,-127,-80,-75,-7,78,130,29,336
-198,-182,-69,25,62,84,74,93,-87,124
-98,-94,-6,85,143,145,98,94,-48,27
-140,-78,16,87,136,132,66,45,-77,-173
-334,-141,-7,62,136,245,65,30,-82,-530
-371,-210,-77,41,233,510,166,54,-37,-616
-260,-167,-77,57,302,468,139,37,34,-409
-113,-78,-24,51,221,426,154,10,64,-216
117,12,16,17,121,404,125,6,63,-10
184,69,43,44,156,53,-55,-114,-87,-7
270,200,106,23,-3,-409,-218,-178,-189,-96
302,305,160,27,-128,-452,-162,-22,-106,-85
196,162,44,39,-12,-111,8,3,-129,-82
48,-137,-81,75,252,332,157,-10,-125,-21
-190,-299,-110,118,319,399,64,-119,-113,-36
-553,-69,57,113,75,-33,-263,-355,-206,-250
-461,-63,31,-23,-262,-228,-87,-49,161,90
-172,-106,-42,-98,-294,-132,75,126,366,421
-102,-124,-97,-72,67,180,110,80,244,352
-204,-169,-102,-1,375,301,72,109,139,177
-154,-170,-47,60,162,-14,2,179,108,229
-7,-32,64,93,-195,-230,-24,98,65,176
128,111,110,13,-327,-89,103,105,138,60
109,29,33,-38,-230,-138,-1,38,116,-34
26,-30,10,-48,-160,-139,-89,-51,-4,-151
1,99,83,-55,-202,-136,-82,-87,-184,-270
36,70,62,-35,-94,12,-10,-45,-274,-197
118,-63,20,-10,-33,67,17,5,-181,17
123,-44,51,34,-55,-49,-94,-114,-143,34
119,213,122,99,-3,-136,-248,-257,-174,-95
156,171,-28,-32,-90,-84,-65,6,22,-10
113,12,-111,-75,-114,10,42,102,69,32
125,41,-45,-41,-60,-23,-45,-16,-30,62
235,137,36,3,45,-8,-42,-68,-35,91
384,219,36,-3,49,61,-22,-118,-93,167
629,303,13,-102,-106,-12,47,37,91,474
738,309,20,-68,-111,-72,17,77,265,635
452,99,-28,-4,-39,11,-55,-70,76,403
-121,-294,-76,152,238,148,-82,-169,-16,67
-543,-527,-48,267,465,205,-57,-64,109,-208
-415,-207,42,154,180,4,-12,106,241,-227
-260,-41,72,34,-104,-57,72,191,263,-81
-131,24,27,-67,-204,16,217,257,324,73
47,258,92,-20,-98,16,157,131,203,142
141,114,7,-13,-6,34,88,16,11,83
16,-87,-96,-45,-44,59,38,14,-36,-161
-237,-264,-241,-110,-118,119,154,195,143,-221
-332,-394,-284,-110,14,22,106,139,117,-257
-206,-383,-287,-89,42,-32,77,74,3,-171
-158,-394,-262,-52,67,164,159,125,103,78
-75,-196,-106,15,266,321,95,41,118,172
95,173,147,118,276,142,-115,-127,-33,38
158,234,164,33,-38,-61,-32,52,8,86
168,344,211,19,-259,-222,-59,7,-108,85
12,285,184,60,-166,-83,16,-44,-176,-97
-201,1,94,101,-1,97,76,86,-42,-280
-254,-318,-50,53,80,157,102,127,-51,-278
-255,-255,-21,53,146,41,30,-3,-161,-381
-69,264,180,2,-87,-206,-58,-45,-94,-350
98,378,240,-20,-139,-211,-15,100,-1,-195
81,247,188,-2,-64,-129,37,91,-139,-232
0,115,101,0,-41,-112,-14,-27,-266,-256
-27,35,-15,-52,-95,-139,-78,-102,-341,-229
-146,-73,-78,-83,-88,-79,-49,-62,-297,-260
-156,-52,-15,-42,-38,-89,-110,-126,-277,-233
-19,31,-48,-38,-66,-170,-234,-221,-237,-102
48,67,-6,-49,-74,-142,-208,-174,-76,68
74,31,28,0,11,-34,-175,-178,-77,81
70,23,72,76,31,-45,-155,-144,-67,85
11,31,99,125,18,-65,-4,43,56,127
-57,-79,64,172,121,27,54,48,37,80
28,-119,19,156,149,51,-4,-51,-12,43
179,20,-29,-21,1,-9,-56,-40,54,36
219,204,-19,-169,-152,-87,-68,-10,87,30
205,208,-10,-155,-163,-124,-93,-55,87,96
98,87,-30,-64,-44,-51,-90,-61,84,103
-112,230,31,-14,12,38,-92,-171,-61,-33
-49,162,32,-23,-32,26,-13,-62,61,195
183,-137,-35,14,4,21,14,52,220,452
394,-198,-122,39,46,43,-6,-27,135,406
540,122,26,32,-19,-32,-161,-178,-12,258
560,256,12,-55,-137,-101,-198,-155,-9,176
393,39,-41,-96,-91,-71,-76,60,161,121
121,-153,-107,-137,-117,-131,41,305,394,192
-256,-300,-141,-145,-147,-89,144,402,525,233
-760,-464,-64,54,81,118,254,372,484,-55
-1007,-433,-110,139,255,336,363,275,236,-376
-792,-334,-227,98,247,367,319,111,-68,-290
-355,-48,-193,11,102,200,150,-78,-326,-216
-56,238,-92,-59,18,135,96,-158,-459,-203
-32,142,-36,4,107,232,33,-206,-468,-143
-42,95,105,161,347,403,-123,-244,-388,-99
-75,38,157,172,332,296,-83,-102,-185,-96
-188,-73,39,54,206,-16,-48,-58,-191,-295
-293,-168,-16,55,469,22,-131,-227,-365,-461
-244,-157,42,193,463,-52,-312,-423,-459,-449
98,-102,42,89,-95,-260,-253,-251,-181,-104
480,-66,-50,-169,-510,-73,214,270,382,453
594,-54,-79,-112,-343,-84,213,335,528,601
404,-88,-101,-36,-77,26,88,178,414,488
-80,-192,-172,-39,227,359,22,-19,150,225
-384,-340,-158,108,507,589,46,-110,-96,-57
-363,-327,-93,164,348,351,77,0,-163,-239
-133,-150,-67,-6,-191,0,268,290,48,-146
59,-57,-63,-119,-326,13,490,547,342,43
125,182,81,34,-90,-50,145,260,241,6
1,27,6,-18,-103,-217,0,157,270,109
38,73,5,-150,-339,-304,67,138,218,175
110,270,86,-117,-307,-267,-68,-88,-119,-33
14,88,11,-44,-108,-159,-117,-109,-183,-45
81,62,47,-20,-163,-279,-137,-26,-64,115
5,57,98,55,-79,-343,-227,-123,-120,35
-94,2,43,64,45,-265,-282,-281,-247,-115
-86,-42,-31,-1,-20,-219,-196,-242,-212,-82
8,-48,-121,-106,-181,-127,7,39,57,108
100,-34,-108,-165,-237,-54,170,251,277,292
10,-19,-35,-130,-156,-100,53,131,173,165
19,102,79,-64,-41,-72,-18,28,38,56
136,134,86,-34,28,6,5,17,7,47
131,75,92,22,103,139,83,-7,-84,-67
89,78,158,135,132,211,91,-45,-132,-133
83,-8,119,202,125,102,30,-47,-25,-39
-51,-279,-35,195,144,-85,-39,-44,77,2
-89,-229,-123,60,-22,-211,-72,-21,147,26
155,147,0,-65,-151,-283,-197,-70,244,165
298,444,108,-120,-220,-341,-363,-155,378,335
389,416,83,-119,-121,-191,-335,-196,444,466
536,319,0,-126,-32,1,-129,-90,494,642
614,256,-139,-167,-70,-91,-130,14,470,693
457,83,-177,-193,-151,-136,-23,206,303,481
-38,-106,-4,-1,85,220,246,319,-132,-263
-456,-180,56,178,318,469,340,211,-483,-919
-682,-162,59,191,310,245,219,93,-610,-1013
-620,-153,121,132,108,-20,59,-58,-649,-752
-395,-65,142,129,72,-28,-13,-133,-537,-403
-236,26,93,111,111,65,45,-65,-368,-265
-100,-29,22,5,-17,-109,-21,-109,-328,-321
50,-66,2,-60,-60,-103,-44,-117,-153,-17
196,211,111,3,-58,-223,-268,-312,-242,49
120,-23,-117,-49,-55,-135,-160,-185,-142,64
-159,-611,-371,-61,74,127,144,163,129,100
-336,-665,-199,8,150,269,380,392,350,115
-222,0,110,44,58,144,240,204,202,-93
-65,286,189,39,23,16,46,3,99,-173
22,215,136,6,-3,-46,-14,-5,218,-101
84,136,71,-15,22,-4,-36,12,311,-46
149,147,70,-20,33,14,-138,-120,109,-58
231,169,-7,-129,-113,-77,-173,-233,-79,28
153,96,-87,-162,-155,-79,-54,-125,-163,110
-57,77,20,24,170,142,-62,-234,-480,-94
-183,22,42,100,341,262,-75,-333,-646,-225
-121,-65,-9,27,105,-27,-63,-203,-420,-124
-36,-88,-30,28,-36,-138,-52,-68,-157,27
61,-73,-123,-23,-128,-47,63,113,151,325
211,-7,-73,-100,-221,-46,176,353,490,700
300,19,-11,-95,-166,-57,142,373,579,840
328,58,-24,-92,-88,-47,33,272,541,833
379,212,67,-39,-26,-74,-104,147,533,734
261,146,44,13,78,-22,-112,87,510,299
-28,-31,-63,10,267,323,77,105,335,-375
-254,-225,-128,13,638,811,244,96,167,-710
-268,-324,-124,85,630,534,48,19,208,-536
-124,-23,88,132,38,-110,-161,-5,124,-101
66,213,178,-19,-476,-181,95,165,-33,203
45,-137,-61,-165,-481,-188,214,168,-346,-118
-64,-147,-96,-71,-175,-96,61,-42,-594,-520
38,422,255,113,1,-58,-78,-273,-753,-569
200,648,394,168,-17,-141,-187,-375,-672,-295
82,349,250,170,5,-125,-100,-171,-266,53
-100,21,92,158,79,-7,23,-10,0,217
-114,-155,-61,84,91,78,5,-9,66,248
-149,-151,-96,-5,-48,-32,-119,-69,44,151
-123,-72,-82,-90,-193,-129,-113,-28,-48,-132
-109,-77,-121,-76,-81,27,-12,-97,-259,-523
-97,-126,-159,-139,-107,74,20,-154,-290,-493
-69,-130,-165,-168,-200,-38,84,18,-42,-235
-92,-139,-203,-81,7,242,215,201,127,-76
-105,-119,-63,53,245,468,157,115,77,-93
-57,-30,51,50,95,-17,-69,-14,15,-40
40,37,50,-28,-156,-349,-152,-47,21,129
149,72,116,6,-196,-309,-151,0,134,267
89,-1,117,19,-103,-160,-64,85,245,251
-13,-16,115,56,11,40,36,81,172,107
18,83,170,82,41,55,-24,-54,22,-39
-103,-156,54,60,44,69,53,44,161,-32
-185,-349,-66,44,190,394,246,184,318,86
56,153,42,-12,122,341,136,-25,90,92
170,313,60,-21,36,-55,-81,-182,-123,-20
319,195,24,-79,-156,-401,-237,-189,-76,136
343,107,-34,-107,-209,-428,-225,-59,116,389
243,152,-106,-129,-190,-224,-32,91,225,390
117,189,-43,-79,-111,-94,-55,10,167,147
192,129,-94,-123,-117,-47,-89,-59,118,165
522,363,-15,-139,-135,10,-178,-161,32,371
635,494,73,-91,-102,-3,-116,-28,9,421
592,387,90,1,-52,-180,-155,-57,-193,280
323,91,32,48,21,-190,-200,-240,-450,28
-257,-211,3,112,180,29,-90,-179,-361,-214
-657,-348,-11,137,193,52,2,-70,-138,-295
-582,-371,-104,106,123,58,77,5,3,-178
-609,-368,-215,42,120,191,250,95,-15,-282
-562,-306,-166,25,87,84,117,-36,-217,-496
-266,-160,22,31,-102,-82,-1,-72,-239,-458
-91,-95,149,78,-73,-66,30,-20,-265,-450
-121,-163,112,56,-11,-69,9,-2,-275,-419
-185,-169,36,0,-1,-2,85,102,-44,-152
-19,-39,13,2,25,58,127,104,103,44
232,78,17,18,57,73,81,41,98,113
371,100,-50,-1,87,98,-5,-42,53,116
223,-195,-238,-77,117,136,0,-26,92,157
208,-510,-302,-166,66,122,96,92,229,358
118,-300,-135,-95,113,86,-89,-185,-43,171
-224,128,23,-61,-5,-88,-331,-454,-363,-130
-333,27,8,-47,-96,-103,-127,-126,-118,34
-276,-109,64,17,-10,30,102,180,119,194
-231,-40,82,-1,-94,5,148,311,221,167
-277,71,129,84,-57,1,92,159,17,-176
-361,68,79,120,58,79,112,33,-130,-417
-319,14,7,50,75,163,212,46,-83,-327
-158,17,34,0,20,99,137,51,3,-148
39,87,89,34,78,186,-13,6,57,43
183,-8,-2,-65,-8,166,18,103,222,327
278,-172,-130,-136,-77,-29,60,156,360,497
464,-60,-84,-179,-241,-173,88,207,464,634
419,322,75,-116,-147,-88,-40,-39,244,496
142,262,49,24,314,264,-63,-255,-20,235
-25,34,-52,74,564,279,-16,-154,-98,40
-206,-13,16,97,232,-38,-32,-73,-249,-276
-196,25,52,-36,-324,56,225,133,6,-150
21,136,92,20,-210,-141,43,96,49,-79
175,154,40,-6,-187,-283,-6,154,126,9
148,100,-4,18,-85,-95,45,69,33,-49
15,-23,-62,49,45,163,98,-11,-66,-115
13,-22,22,51,-31,77,5,-34,-42,-24
-21,-29,90,84,-87,-131,-133,-15,18,34
-83,-165,26,80,-9,-15,8,124,143,17
-78,-350,-74,86,79,151,200,263,286,39
-133,-381,-77,50,69,183,229,281,351,96
-61,172,216,73,-19,-35,-34,59,208,104
10,437,365,152,65,-104,-219,-71,91,150
59,283,316,174,115,14,-130,-18,60,191
138,285,271,129,-18,-109,-176,-114,-40,197
153,261,152,-3,-182,-292,-239,-179,-41,149
0,108,-52,-69,-190,-246,-110,-110,62,-58
-236,-172,-179,-78,-114,-85,18,-54,97,-241
-166,-328,-259,-110,-95,-22,28,-60,48,-217
-97,-312,-269,-122,-97,-15,-10,-117,-38,-205
24,-159,-248,-159,-68,-25,-43,-101,-129,-86
144,-121,-289,-167,38,41,23,23,-214,123
239,-31,-210,-104,65,-27,-95,-160,-359,208
347,125,-117,-132,-101,-119,-205,-237,-235,272
363,193,-152,-247,-345,-190,-159,-25,13,351
343,215,-87,-165,-255,-252,-188,56,101,363
319,242,45,-72,-175,-245,-148,47,94,232
130,174,70,-11,-96,-147,-63,15,-15,-4
-227,-122,27,79,82,78,74,38,-126,-155
-521,-458,-33,150,271,265,189,27,-264,-475
-448,-440,-36,135,282,244,191,19,-319,-717
-381,-336,-11,78,265,288,270,134,-198,-656
-299,-94,122,90,189,193,195,135,-129,-498
-182,248,282,148,195,195,-47,-85,-252,-470
-184,162,181,93,188,330,-57,-186,-260,-397
-146,-27,62,130,296,334,-93,-241,-184,-267
3,-123,23,117,165,218,-58,-84,-3,-31
103,87,46,54,24,-100,-94,-11,120,84
109,173,-16,-16,1,-272,-140,-38,180,91
154,95,-99,-104,-188,-217,22,125,352,220
-26,-79,-119,-52,19,75,121,95,254,122
-98,-87,-62,19,180,164,52,-35,47,-29
-47,2,-33,10,93,2,84,72,51,14
-134,-49,41,53,89,-32,120,177,59,82
15,-76,31,63,158,7,86,88,-71,118
260,21,35,88,145,-89,-62,-58,-89,113
454,132,40,-5,-168,-208,-55,-50,31,159
602,212,47,-76,-316,-171,83,66,168,257
529,203,35,-55,-209,-179,23,47,125,193
2,50,-39,-77,-170,-201,-84,-54,-16,-23
-545,-124,-159,-117,-202,-217,-118,-32,-20,-167
-467,-126,-133,-58,-112,-90,6,117,121,-101
-204,-128,-79,-27,0,8,67,157,265,31
135,-184,-107,-10,75,26,-60,88,384,277
332,-81,-80,-30,107,171,-49,28,421,392
401,463,81,-72,-27,210,-50,-134,256,280
244,333,-18,-187,-242,1,-75,-157,192,284
-110,-80,-84,-103,-44,27,7,79,317,401
-474,-305,23,175,412,104,42,296,510,439
-611,-369,27,278,613,268,83,243,407,236
-356,-220,-9,145,248,283,270,322,385,248
-6,-24,0,51,-112,-79,210,313,351,291
435,222,84,-25,-358,-272,139,245,140,172
634,224,12,-85,-326,-296,-6,-19,-378,-163
510,1,-133,-135,-218,-172,-68,-283,-746,-364
217,-151,-236,-178,-201,-77,-35,-365,-785,-467
-282,-87,-184,-172,-110,-51,-110,-424,-747,-757
-844,-122,-28,48,221,47,-32,-152,-514,-976
-914,-125,255,393,503,201,86,68,-454,-964
-269,-36,283,366,252,235,169,133,-355,-359
213,-107,71,97,-28,271,240,218,-141,95
90,-87,1,9,-46,115,173,162,-54,4
38,219,86,-38,-175,-214,-26,-58,-125,-155
-65,129,62,-62,-186,-184,-54,-99,-85,-131
-65,64,103,99,60,-83,-177,-158,-66,-110
58,44,112,90,158,58,-152,-237,-167,-162
252,99,60,-9,236,202,-112,-368,-343,-237
562,389,73,-105,33,-128,-343,-544,-454,-178
648,378,31,-106,-186,-401,-585,-544,-336,39
474,330,41,-96,-279,-297,-341,-193,-37,226
345,288,180,85,-11,-230,-93,53,126,280
202,150,178,180,174,-87,105,188,206,249
194,-43,-7,-10,72,-31,121,122,116,197
-119,-148,-151,-210,-113,-63,-18,-38,-45,63
-565,-216,-60,-128,-179,49,-58,-54,-51,49
-296,-233,10,-25,-154,34,20,133,240,338
197,-142,-11,0,-60,-183,-83,91,327,465
165,-112,-77,26,26,-35,39,137,298,402
-305,-300,-207,108,301,196,78,173,201,84
-701,-618,-202,205,613,263,80,175,80,-229
-601,-425,-114,158,320,246,239,277,172,-135
-245,162,-23,-10,-135,183,231,142,142,43
-130,73,-57,-132,-212,144,253,111,186,197
6,-64,-89,-174,-331,-116,197,237,374,358
195,68,8,-112,-316,-348,-29,258,443,452
164,118,83,-25,-111,-237,-71,243,404,390
51,82,32,2,-53,-63,62,253,365,243
38,132,50,15,-80,-38,120,219,224,-73
158,200,127,25,-72,13,141,172,4,-317
389,258,171,86,31,97,77,-22,-204,-279
553,225,149,134,147,91,-99,-235,-271,-55
501,118,-17,50,96,-67,-264,-298,-257,84
398,93,-183,-140,-170,-318,-347,-277,-183,165
209,66,-155,-209,-298,-376,-338,-223,-120,0
-139,10,-41,-136,-186,-202,-196,-215,-212,-317
-246,4,23,-97,-121,-75,-38,-150,-311,-394
-259,-10,31,-34,-58,26,81,-48,-229,-339
-686,-210,-25,55,134,343,377,278,139,-437
-940,-369,-15,155,310,655,527,444,261,-624
-693,-345,-48,179,338,525,336,277,83,-559
-382,-282,-107,167,325,115,56,51,-39,-364
-235,-198,-129,6,108,73,173,82,-44,-185
-175,-101,-11,-30,77,341,264,-47,-313,-181
-164,-102,35,-5,56,334,156,-283,-565,-213
-84,-73,44,50,41,94,-3,-274,-444,-113
75,94,160,157,101,-174,-227,-243,-283,-10
220,270,302,182,51,-315,-276,-190,-155,83
174,271,259,156,41,-221,-254,-223,-163,77
169,310,280,151,-32,-274,-307,-214,-77,149
182,310,213,75,-105,-264,-143,-12,81,225
164,271,121,2,-104,-145,19,97,133,249
232,245,71,23,-34,-136,-60,-44,72,219
406,182,5,-30,-78,-209,-143,-96,139,280
573,-28,-140,-193,-272,-239,-84,57,361,408
533,-177,-244,-275,-341,-158,-4,140,509,411
110,14,-58,-200,-251,-94,-46,24,439,221
-306,-1,-71,-115,-44,49,33,78,415,122
-272,-64,-157,-39,200,293,196,151,323,159
-133,-62,-165,-25,261,343,254,126,142,179
-142,-53,-131,-2,93,109,62,23,-72,77
-5,31,-65,3,-55,3,-33,-3,-226,-1
98,45,-21,-33,-85,-9,39,41,-160,119
6,-69,-106,-56,178,169,133,103,-33,146
-90,-140,-151,56,652,437,9,-83,-201,-27
-136,-175,-73,144,661,509,-119,-270,-384,-173
-161,-203,-60,88,345,535,76,-165,-305,-279
-106,-116,-66,-68,-12,596,419,99,-53,-142
35,-14,-37,-152,-135,525,429,96,63,9
138,12,-19,-87,-36,307,129,-81,7,5
410,152,37,-86,-204,-18,-52,-2,140,162
583,304,129,-69,-354,-304,-55,141,269,275
190,53,2,-77,-299,-554,-137,157,265,85
-99,-135,-40,-58,-152,-533,-182,164,283,79
-2,-4,86,-40,-189,-350,-53,261,330,288
102,233,201,48,-148,-267,-83,80,128,214
200,194,131,35,-197,-314,-149,-56,82,296
239,62,46,-14,-222,-296,-135,-2,225,519
206,36,27,-23,-167,-240,-162,-12,249,474
32,-12,-9,-33,-120,-199,-199,-133,32,42
-188,-80,4,-4,-101,-139,-140,-124,8,-290
-347,-251,-44,49,57,82,2,-39,16,-441
-255,-307,-88,34,121,167,168,127,1,-402
5,-28,-43,-27,32,125,166,165,-78,-287
374,410,132,8,18,76,-30,-115,-416,-283
476,319,100,36,111,67,-107,-275,-630,-293
477,226,0,-65,18,35,-85,-342,-627,-237
183,210,-36,-171,-225,-238,-190,-383,-490,-196
-360,-66,-175,-257,-341,-321,-198,-213,-143,-134
-552,-206,-197,-184,-194,-105,12,74,183,-84
-423,-180,-69,-64,-50,57,185,244,338,1
-355,-105,-58,-13,-6,70,170,226,318,67
-222,40,-3,110,53,-91,-5,101,185,127
-19,155,116,154,108,-155,-100,5,28,64
57,72,123,78,66,-136,-74,-74,-125,-118
180,-71,11,-25,-17,-108,-6,-34,-131,-155
298,-85,-30,-60,-55,-78,54,82,4,-39
241,107,77,-4,-37,-114,-9,26,4,40
41,160,129,20,-34,-126,-79,-76,-74,106
-174,122,102,44,-11,-98,-80,-96,-25,157
-20,184,46,43,-13,-114,-159,-222,-53,191
-23,121,69,17,21,-37,-135,-253,-86,110
-396,-97,34,34,136,127,-24,-153,-58,-58
-648,-274,10,73,233,289,112,59,58,-138
-466,-220,-12,84,379,453,304,244,26,-257
-167,-156,-59,34,399,382,303,185,-95,-307
-15,-95,-28,79,325,90,-31,-139,-234,-309
77,30,42,124,190,122,-89,-185,-134,-146
79,28,50,74,151,359,95,3,87,1
-98,-151,-44,55,332,278,24,-55,-23,-187
-204,-244,-84,26,234,85,-83,-236,-143,-276
-122,-190,-78,-48,-170,-211,-172,-267,46,-95
125,1,-18,-206,-560,-356,-40,97,532,226
172,50,33,-171,-512,-428,-74,134,570,270
41,-13,39,-57,-208,-281,-29,122,395,163
9,51,37,-44,-165,-159,144,468,368,131
53,158,56,-8,-60,-3,278,535,67,82
107,184,2,22,-1,35,190,208,-238,124
155,165,-116,-29,-46,-31,-7,-17,-142,222
141,38,-97,-58,1,93,16,0,15,170
59,-148,-111,-29,149,381,173,185,51,10
104,48,25,88,296,391,115,144,-145,-165
280,209,102,145,299,345,88,37,-255,-141
363,-86,-20,52,147,320,251,174,-63,64
333,-34,24,33,31,-3,122,108,0,58
102,325,146,-22,-150,-295,-46,-82,-178,-133
-373,-33,-56,-53,150,-27,-61,-231,-345,-253
-151,-84,4,32,-109,-186,-171,-234,-212,-24
260,124,6,-178,-575,-248,-31,35,103,333
276,168,67,-151,-444,-341,-165,-70,93,336
171,175,77,-100,-208,-213,-231,-211,-8,195
103,98,0,-126,-124,-20,-146,-158,50,199
139,21,-54,-108,-58,-16,-123,-8,227,394
149,-37,-65,-88,-111,-214,-151,108,365,539
-197,-227,-96,-61,-25,-45,-32,53,198,188
-516,-375,-99,9,113,221,71,-25,25,-244
-296,-209,-50,47,129,234,21,-24,97,-282
-10,-23,14,79,151,267,95,161,301,-25
39,-38,17,115,217,315,181,260,360,81
39,-58,-64,91,167,103,117,150,131,-125
186,116,0,-8,-68,-41,103,62,-173,-275
379,279,81,-43,-195,-172,-35,-107,-401,-198
425,252,83,-15,-147,-333,-267,-245,-371,0
444,145,50,-28,-111,-316,-248,-164,-157,144
313,140,61,1,93,-196,-289,-279,-229,3
-166,90,47,52,248,-128,-382,-489,-502,-296
-720,-397,-53,145,289,73,-207,-328,-442,-343
-595,-475,-74,79,118,322,286,125,-73,-26
-195,-208,-38,-35,-129,193,438,344,169,286
62,-100,11,0,-98,113,329,262,192,442
172,197,123,9,-120,-64,109,98,108,419
217,310,99,-30,-156,-97,-35,-88,-28,250
58,75,-83,-87,-177,-101,-33,-63,-60,-3
-58,-25,-49,-37,-124,-157,-65,-64,-113,-210
-240,-116,-70,71,41,-68,-54,-73,-136,-339
-433,-208,-41,91,176,127,52,42,-56,-307
-472,-98,72,144,299,158,16,33,-80,-344
-399,29,124,213,364,130,-63,-111,-194,-405
-364,-123,-27,246,321,181,51,-32,-115,-351
-194,-113,-53,143,67,105,108,76,1,-195
-124,-76,19,78,-7,-16,13,65,50,-75
-6,-60,55,47,-90,-117,-26,129,176,58
22,-78,45,28,-80,-85,-21,138,202,53
77,24,79,77,117,207,-29,-2,74,-29
174,112,52,16,157,271,-40,-81,4,-29
200,107,27,-45,102,61,-146,-185,-82,-50
188,47,-15,-120,-27,59,-75,-110,9,62
206,-82,-87,-98,-35,88,101,142,279,272
97,-191,-78,-79,-145,-2,165,259,386,271
-134,-12,116,-11,-208,-46,125,194,296,19
-216,137,163,62,-46,136,127,124,177,-91
-247,32,68,52,140,405,150,11,-1,-132
-178,-41,-37,0,141,247,46,-125,-238,-202
0,-74,-103,-56,11,-194,-129,-172,-297,-78
52,-87,-141,-121,-158,-221,-54,-49,-240,-57
-6,-47,-39,5,-14,0,-42,-9,-176,-234
12,-29,13,53,-54,-99,-112,-24,-49,-221
89,46,-6,1,-92,-259,-119,11,69,10
240,201,49,-18,-214,-348,-106,72,150,255
322,190,74,-13,-184,-318,-160,28,174,392
333,132,24,-110,-220,-244,-122,22,217,415
355,156,43,-114,-202,-217,-94,-30,145,285
202,52,51,-30,-38,-94,-58,-103,-74,-91
-172,-218,-93,-31,92,36,-55,-139,-282,-499
-270,-252,-159,0,137,42,-57,-55,-292,-507
-287,-71,-67,79,89,-26,-13,63,-170,-339
-107,102,49,85,-43,-35,31,100,-50,-151
-94,45,17,74,-18,145,121,68,-6,-70
-141,-101,-116,0,37,294,229,70,37,-41
-175,-212,-352,-124,212,369,172,-55,-14,-84
-301,-381,-429,-104,594,514,70,-222,-159,-193
-228,-329,-196,32,363,254,-31,-202,-146,-140
30,-99,-41,-59,-246,46,74,11,80,117
328,165,119,19,-327,-223,4,195,298,405
309,11,106,39,-132,-238,23,297,277,417
184,-144,52,-16,-64,-88,130,319,196,338
206,275,192,15,-200,-194,-13,121,25,208
244,353,153,50,-184,-159,-80,-8,-30,187
233,93,43,20,-155,-163,-107,24,65,238
187,26,-22,-11,-151,-192,-141,27,98,189
199,144,-4,-46,-183,-176,-133,-3,90,155
345,153,-27,-90,-153,-96,-101,3,56,223
609,261,5,-104,-120,-83,-114,-70,-17,292
682,377,70,-87,-91,-118,-189,-152,-7,277
276,251,112,-28,-31,-95,-113,-33,160,246
-15,70,97,-7,6,-63,-44,73,293,267
-335,-177,-41,-59,1,-31,-39,12,192,65
-543,-207,-20,-36,-46,-13,-67,-126,-96,-164
-328,-73,86,-12,-143,-121,-195,-228,-265,-60
-199,-110,69,-3,-71,-62,-108,-125,-203,9
-230,-152,39,7,11,76,124,143,71,1
-340,-172,50,78,79,86,157,224,204,-74
-512,-278,24,90,126,139,206,275,188,-211
-389,-119,30,52,72,132,215,249,100,-207
-102,167,139,88,44,91,142,68,-54,-230
-9,129,127,96,77,80,47,-74,-204,-353
118,36,32,23,52,11,-70,-158,-207,-298
217,24,-6,-2,62,4,-77,-128,-40,-115
285,4,-104,-13,93,21,-78,-92,92,124
273,-85,-212,-33,102,74,-48,-84,71,271
37,-250,-181,-40,134,201,17,-50,46,160
-185,-253,-126,-46,50,133,111,102,76,-113
-313,-167,-58,34,88,66,149,124,-54,-352
-275,50,45,126,259,128,81,35,-244,-391
-76,122,25,42,272,332,160,66,-262,-247
33,122,17,-15,175,495,122,-67,-315,-168
-51,-6,-88,-50,200,368,39,-108,-235,-161
31,-16,-122,-112,22,-83,68,112,92,45
133,51,-12,-131,-280,-223,83,91,186,179
277,84,35,-53,-146,-52,-73,-140,144,277
493,91,-26,-160,-218,-70,2,71,572,625
355,13,-75,-208,-230,-119,-23,178,762,712
125,-55,-25,-93,-92,-181,-160,157,663,589
-76,-73,2,-36,-129,-224,-8,298,585,426
-229,3,59,3,-155,-53,250,380,269,207
-250,9,118,100,28,102,291,202,-310,-154
-146,-80,63,217,309,312,179,-92,-760,-451
2,-87,-22,212,330,252,20,-236,-794,-532
52,136,79,98,100,-67,-210,-412,-759,-560
-24,117,33,-56,-57,81,-103,-373,-611,-398
-226,-99,-58,-86,-5,446,104,-211,-407,-310
-317,-22,99,126,175,171,-141,-306,-380,-392
-178,54,151,143,88,-248,-280,-338,-324,-413
-31,29,100,68,22,-287,-238,-327,-266,-319
-77,-145,-56,30,325,-175,-334,-397,-282,-320
-52,-114,-40,-3,49,-327,-299,-170,-66,-139
91,1,53,-42,-393,-267,28,263,255,111
355,90,135,-10,-360,-76,186,387,367,312
459,249,163,58,-142,-144,-54,120,159,258
678,572,167,-7,-195,-273,-239,-22,93,203
621,572,71,-97,-266,-294,-186,67,261,157
211,403,-9,-144,-195,-118,-18,163,392,118
83,257,-64,-184,-189,-87,46,250,494,218
-119,45,-65,-135,-155,-109,33,257,439,192
-518,-373,-96,6,80,139,170,280,303,242
-600,-776,-236,44,175,363,376,288,137,300
-395,-875,-358,97,240,607,536,298,39,128
-291,-555,-195,173,357,759,382,80,-160,-184
-90,123,75,129,311,410,28,-234,-359,-307
-39,63,68,61,137,-114,-101,-164,-164,-134
-66,-127,52,46,-41,-437,-233,-101,-43,-62
-32,0,31,30,-82,-376,-254,-117,-71,-64
71,245,61,-26,-175,-266,-240,-167,-128,-106
249,329,97,-64,-219,-201,-230,-246,-198,-220
231,153,62,7,-28,-107,-249,-296,-213,-333
172,23,-5,22,153,87,-131,-156,-96,-308
-5,-49,-40,1,151,35,-82,-89,-48,-260
-265,-130,-96,-67,-50,-153,-85,-57,18,-172
-232,-136,-104,-105,-164,-115,84,203,269,33
-53,-37,-4,-26,-70,-12,168,334,355,176
32,4,57,82,70,49,112,239,204,178
31,51,44,55,31,-14,133,244,176,166
-64,169,77,30,35,12,51,54,-10,34
-27,161,85,25,38,20,-45,-111,-168,24
235,129,41,-38,-101,-125,-86,-86,-9,287
316,80,-63,-46,-105,-197,-175,-53,151,374
275,31,-95,-72,-113,-196,-155,9,266,438
97,-86,-78,-53,-34,-79,-60,47,254,339
-134,-248,-99,0,76,109,157,210,206,141
-197,-212,-46,63,130,211,256,177,-44,-26
-122,94,118,86,84,84,31,-183,-459,-246
-148,170,141,76,88,4,-91,-327,-634,-591
-238,-12,17,89,331,288,48,-200,-543,-734
-198,-95,-38,149,508,440,19,-247,-429,-533
-63,-133,-43,128,390,276,-125,-264,-257,-180
336,60,15,-35,-110,-41,32,81,162,399
366,139,92,2,-256,-326,-15,130,197,455
62,44,59,42,-134,-214,-18,41,39,62
-172,9,7,7,-100,-96,40,70,17,-203
-174,1,-6,-62,-96,-44,58,91,49,-198
-34,84,40,-69,-96,-104,-11,54,59,-85
36,94,21,-59,-89,-112,-45,-11,-13,-60
15,53,-10,-57,-80,-97,-60,-91,-82,-71
-36,66,4,-22,-21,-73,-69,-107,-34,-44
-136,-36,-42,8,229,80,-7,-88,7,-50
-208,-135,-80,19,327,118,23,-96,39,-42
-83,-82,-110,-42,47,56,91,-26,163,92
108,-4,-151,-104,-111,226,192,57,304,205
198,-16,-74,-55,-56,44,-8,-48,288,181
209,-56,-53,-47,-55,-101,-60,43,295,212
199,24,-8,-119,-275,-166,75,236,322,325
113,142,81,-51,-167,-56,65,126,176,297
96,202,190,59,4,-9,-52,-45,-72,256
299,269,252,86,18,-79,-120,-56,-198,338
469,351,252,68,28,40,-103,-78,-240,272
442,333,145,34,127,276,-89,-245,-403,-59
327,222,35,61,384,308,-104,-304,-397,-253
110,139,-57,-39,147,-47,-78,-149,-247,-295
-255,-46,-93,-127,-283,-314,-14,14,-111,-324
-469,-279,-72,-45,-230,-114,81,128,41,-173
-227,-374,-100,-8,-29,25,23,108,97,36
-130,-408,-188,-60,74,55,5,-5,-6,31
-330,-478,-215,-36,114,58,12,-77,-86,-14
-398,-400,-216,-40,-40,46,164,110,69,106
-498,-285,-163,4,29,46,169,170,117,-15
-481,-149,17,151,216,5,74,160,137,-22
-260,-175,21,194,232,12,86,226,272,220
-84,-371,-161,56,49,163,335,408,449,422
14,-221,-108,-28,-67,219,375,345,361,383
147,300,189,65,-55,-26,-50,-143,-71,95
71,308,226,116,75,-120,-312,-341,-178,12
-3,128,71,-7,48,-5,-168,-172,9,150
53,-25,-114,-162,-88,36,-11,-26,195,247
81,-71,-156,-126,-65,-76,-13,-12,294,248
36,11,-90,-82,-55,-122,66,164,496,307
-27,108,73,56,-50,-200,26,272,587,328
-11,90,130,86,-119,-152,26,241,428,316
-91,-106,-7,50,20,118,187,216,113,171
-208,-271,-169,-19,179,317,320,175,-234,-262
-233,-213,-153,-13,273,295,207,-24,-450,-515
-142,-114,-109,-61,109,223,124,-95,-331,-286
120,80,-88,-117,-191,122,102,99,2,180
258,219,-120,-142,-363,-97,52,259,185,350
64,155,14,46,-178,-209,45,283,108,-21
-180,-16,125,151,2,-127,54,187,-164,-581
-73,113,168,105,-23,-116,-65,-95,-422,-869
195,307,193,53,-102,-202,-236,-285,-367,-497
282,209,88,-4,-99,-184,-218,-234,-8,-91
296,157,40,-5,-101,-163,-203,-170,90,-24
324,155,23,5,-118,-151,-211,-163,62,-24
362,41,-120,-30,-92,-62,-93,-67,65,69
417,152,2,5,-69,-61,-63,-90,-154,56
198,320,220,67,-81,-163,-228,-335,-567,-146
-283,95,143,53,-63,-96,-157,-328,-589,-218
-443,-115,110,143,73,20,-87,-194,-262,-133
-247,-135,74,155,108,-17,-133,-136,26,-23
-82,-64,-17,46,8,-93,-140,-106,165,22
-5,21,-76,-6,-21,-93,-157,-144,150,8
48,40,-94,-26,68,-22,-149,-176,53,-10
17,-12,-81,-42,276,167,-20,-89,-80,-72
-21,-119,-78,36,357,326,131,100,-126,-72
47,-248,-118,3,53,242,259,262,-87,57
163,-22,-22,-82,-217,-46,130,173,-28,144
336,444,211,-29,-351,-429,-188,-80,-45,139
312,337,154,-31,-307,-355,-164,-63,68,225
84,18,18,-43,-175,-110,12,46,172,205
-218,-132,-9,26,28,83,60,-20,44,28
-376,-150,40,101,165,184,125,0,36,18
-357,-148,61,110,175,120,143,69,238,109
-366,-239,-9,53,83,28,60,31,283,88
-375,-283,-94,24,38,67,107,160,324,72
-243,-322,-246,-8,105,286,286,315,323,41
-234,-462,-192,41,286,489,327,226,105,-144
-200,-414,-112,91,434,420,125,-49,-217,-304
69,38,34,-8,85,29,-98,-202,-323,-222
283,259,121,-127,-370,-314,-223,-237,-206,-63
384,254,41,-211,-467,-324,-192,-151,57,130
403,229,-8,-216,-402,-268,-152,-73,218,265
299,168,-10,-101,-124,-115,-138,-57,232,241
159,127,38,14,9,-61,-82,28,261,181
-36,21,60,56,4,0,93,161,194,155
-134,-36,71,105,29,20,128,102,-38,97
-105,59,172,143,69,-12,41,-41,-184,-1
-44,124,193,120,46,-34,-26,-48,-154,1
-80,50,87,45,53,51,-14,-4,-91,-44
-105,-60,-64,28,210,151,19,9,-42,-76
-87,-79,-58,70,244,161,127,122,65,-25
-57,-39,0,87,92,104,161,186,171,91
94,0,21,37,-12,90,168,230,282,360
245,14,49,91,86,120,114,181,219,538
129,-31,8,62,80,71,61,59,-51,285
-20,-41,-48,-26,-6,28,83,-18,-305,-244
-79,57,40,14,-4,0,22,-78,-452,-662
-154,126,120,122,110,117,11,-159,-607,-945
-164,118,108,129,98,96,-31,-248,-642,-949
-43,36,0,35,15,36,-66,-273,-513,-509
123,-24,-80,-47,-26,75,-9,-184,-279,-114
45,-110,-149,-135,-18,32,49,-35,-72,50
-41,-253,-171,-159,-97,-107,116,150,148,99
97,-208,-84,-92,-146,-151,82,129,198,43
178,13,58,11,-61,-205,-197,-176,-41,-117
284,204,126,31,27,-157,-328,-364,-189,-130
497,51,-4,-42,56,-68,-210,-173,28,210
318,-131,-139,-94,-38,-236,-164,56,243,378
-241,-295,-187,-98,-77,-62,150,373,460,272
-419,-31,17,29,55,284,318,317,381,77
-421,225,106,109,259,457,121,-121,-45,-176
-420,173,77,72,186,238,-24,-246,-139,-217
-284,30,8,45,52,-91,-70,-108,-14,-75
-29,21,-125,-6,-68,-223,-24,38,-1,62
1,-41,-89,54,164,30,33,17,-95,-53
-114,-171,-55,63,284,269,57,-42,-119,-195
-150,-238,-152,-14,146,52,-81,-163,-200,-193
-81,-235,-255,-197,-123,-68,20,-100,-182,-139
47,-76,-198,-202,-71,1,120,11,-120,-44
-43,-4,-60,-76,-25,-106,-58,-46,-136,23
-219,-144,-34,-35,44,97,4,15,-52,56
10,-48,17,-39,-26,152,179,189,123,219
245,127,61,-15,-63,-52,50,119,146,260
336,182,78,-77,-286,-346,-64,85,216,302
263,153,94,-58,-346,-422,-141,85,239,329
165,123,81,-38,-261,-266,-75,81,180,198
115,77,65,-18,-132,-188,-77,25,49,59
136,47,41,23,-13,-129,-89,-1,15,50
215,-5,21,25,-15,-95,-72,-13,30,38
242,-71,-21,-3,10,78,33,35,115,101
164,-138,-46,14,179,233,54,42,169,166
50,-110,-8,41,212,196,-41,-43,114,48
36,87,78,50,111,149,-59,-40,63,-15
52,272,120,14,-40,-44,-110,-100,-65,-11
-167,103,12,-94,-263,-237,-76,-108,-97,-9
-277,15,-7,-138,-374,-133,75,41,6,14
-243,4,30,-78,-259,-120,67,91,-39,-53
-170,17,96,69,33,-42,10,28,-132,-174
-237,-53,100,141,236,176,117,56,-73,-200
-176,-103,51,115,263,251,158,77,-17,-168
-9,-31,49,61,154,71,73,44,3,-81
96,115,103,19,-31,-109,-2,4,25,13
123,202,80,-1,-79,-81,26,51,35,58
186,287,97,-22,-30,-60,-19,25,10,93
346,343,124,-22,-11,-95,-126,-81,-28,116
566,313,76,-66,-41,-115,-163,-164,-60,170
586,173,-5,-87,1,-62,-194,-256,-153,136
533,81,-25,-30,35,-66,-242,-282,-167,104
489,58,-9,0,1,-81,-214,-202,-53,185
-10,-87,-13,57,22,-106,-200,-152,42,95
-273,-174,-145,-57,-178,-126,58,172,222,163
-396,-303,-145,-41,-55,217,308,338,352,216
-607,-472,-85,32,181,334,234,188,230,26
-659,-446,10,106,219,72,65,77,96,-134
-426,-162,81,67,-37,-79,96,152,94,-71
-278,26,68,36,-71,-101,-1,44,27,20
-165,63,12,-30,-123,-187,-150,-27,135,111
-76,50,-91,-125,-183,-154,-139,-37,125,0
-37,-26,-126,-89,-97,-121,-190,-160,-115,-242
-108,-139,-142,-23,40,40,-40,-97,-218,-385
-205,-249,-187,64,270,334,184,50,-218,-511
0,-219,-80,127,323,386,181,59,-193,-381
138,-134,-67,64,102,29,-24,6,-60,-129
199,7,-79,-42,-74,-101,-41,64,97,46
209,124,2,-95,-204,-118,22,164,246,229
94,-2,-6,-45,-73,-15,89,165,254,359
50,-249,-100,-22,92,132,208,193,184,468
-132,-378,-142,-29,116,165,256,250,184,414
-204,-75,-8,-9,8,68,185,179,67,148
-137,159,120,32,-39,-21,47,45,-123,-127
-156,242,177,61,-38,-75,-64,-85,-250,-422
-161,173,132,57,-9,-50,-57,-74,-273,-519
-121,127,-1,72,21,-12,-40,-66,-319,-518
-31,80,-83,46,1,-14,0,-30,-243,-368
129,37,-142,-11,1,0,7,-12,-90,-119
374,70,-80,-63,-44,-27,-24,-3,23,129
566,196,45,-68,6,19,-37,-66,5,245
607,272,-16,-41,69,104,6,-137,-60,163
510,247,-73,-53,4,35,-55,-181,-86,69
212,171,-50,-149,-219,-129,-99,-88,23,121
-137,51,-11,-173,-283,-196,-125,-64,85,143
-269,-89,43,-105,-193,-135,-33,53,250,153
-348,-155,56,-37,-99,-52,30,100,252,13
-322,-178,30,-32,-59,4,47,72,138,-127
-220,-247,-38,-52,-75,27,114,108,100,-116
-325,-371,-78,4,66,256,229,137,2,-162
-278,-211,-46,41,152,434,282,60,-208,-217
-107,-33,18,51,122,306,152,-93,-317,-171
-17,-85,40,90,100,55,-32,-137,-203,-58
79,197,207,129,84,-126,-209,-208,-173,-40
124,442,274,78,48,-82,-229,-213,-106,-9
27,293,145,95,338,160,-236,-342,-188,-156
-58,94,-21,72,348,198,-154,-337,-217,-210
-121,30,-51,62,129,59,-125,-299,-165,-167
-7,97,40,35,92,274,-14,-113,20,86
164,76,86,14,-11,75,5,161,315,510
147,-113,26,-72,-204,-90,304,585,688,840
-56,-61,89,-19,-224,-90,322,505,561,580
-162,121,171,61,-148,-83,118,253,302,245
-46,109,92,1,-199,-161,46,213,217,259
131,92,31,-48,-212,-251,-121,14,-7,259
157,32,-22,-88,-217,-295,-250,-143,-136,187
16,-74,-74,-86,-167,-163,-113,-110,-116,10
-12,-150,-103,-43,-68,-6,14,-55,-9,-69
41,-238,-158,-46,6,149,38,-64,57,-33
138,-82,-110,-70,-19,82,-86,-212,-93,-94
290,208,28,-44,-92,-196,-300,-402,-246,-130
335,198,58,39,-14,-243,-293,-314,-194,-98
340,193,8,30,-20,-124,-65,-70,-30,12
64,118,-29,33,-26,-39,35,-20,-20,55
-287,-16,-52,45,-66,-65,81,82,54,79
-253,-81,6,52,-56,-12,173,236,173,143
-180,-127,-28,42,0,52,178,298,245,164
-220,-187,-48,73,108,167,163,229,188,133
-162,-153,-28,77,199,322,137,104,0,-131
-156,-132,-3,89,249,220,-22,-98,-348,-579
-54,-99,-7,22,95,-109,-188,-254,-520,-610
113,-23,-10,-60,-91,-154,-119,-161,-308,-287
13,-93,-39,-48,-7,-37,-63,-70,-167,-126
-129,-170,-56,-12,9,-68,-44,4,-72,-70
-233,-138,31,57,20,-18,35,33,-6,-98
-270,-40,62,15,-25,33,77,-9,-10,-160
-124,63,51,-45,-75,-30,59,19,31,-72
12,105,79,0,-70,-109,-41,23,60,49
112,94,22,-27,-102,-135,-104,46,124,148
77,48,-28,-51,-61,-55,-35,127,139,125
49,48,-3,-14,3,-19,-27,76,-45,-3
41,41,7,-25,-17,-6,11,-40,-223,-91
-91,-86,-16,-3,12,81,58,-80,-220,-156
-58,-67,-4,66,87,108,88,-12,-73,-88
47,-4,-33,75,128,107,188,167,115,88
9,-17,87,106,112,56,227,282,329,200
-53,46,138,181,154,35,89,109,240,105
-45,32,65,99,98,53,17,17,120,52
251,52,-15,-36,-66,0,13,-17,73,288
184,18,-25,-1,-16,88,28,7,118,294
168,-19,-64,-17,21,226,111,40,143,262
36,-64,-34,-7,94,358,197,60,131,210
-250,-145,46,77,281,390,201,97,167,91
-84,3,137,139,365,122,-33,40,188,17
168,212,162,95,149,-230,-201,-16,116,38
304,267,110,-25,-159,-398,-259,-53,94,134
378,111,-52,-207,-364,-304,-108,58,137,151
95,-232,-134,-212,-255,-111,71,164,8,-70
-218,-451,-135,-65,-17,72,167,131,-251,-395
-312,-81,70,78,82,78,76,-39,-443,-540
-371,104,87,69,67,-20,-12,-160,-475,-360
-255,32,49,64,70,-58,-41,-148,-272,-25
198,261,161,43,-17,28,2,-97,-29,189
264,137,29,-42,-93,-127,-123,-150,-66,129
9,-103,-70,-98,-127,-110,-13,11,91,203
-173,-237,-58,-10,7,89,8,26,198,199
-74,-177,-31,18,128,338,72,47,172,134
-55,32,43,26,192,238,77,-24,-3,-45
-164,-67,-11,85,232,119,48,-102,-120,-209
-172,-233,-206,59,126,63,81,1,-56,-361
-147,-211,-288,17,231,54,42,38,-12,-396
-101,-129,-261,-12,138,-41,-5,43,36,-166
-23,-70,-174,-61,-134,-103,-13,36,0,7
-133,-103,-49,21,176,251,39,-88,-431,-521
-132,-67,35,116,276,167,-214,-315,-504,-565
34,27,35,40,3,-67,-281,-302,-326,-247
222,160,40,-93,-311,-297,-119,-46,-4,157
238,193,48,-153,-452,-376,-6,111,201,294
158,90,1,-126,-284,-254,-49,16,124,192
128,-15,-59,-68,-96,-110,-46,-29,68,123
239,-23,-84,-65,-90,-78,-25,34,189,189
540,9,-119,-166,-198,-32,84,297,478,459
572,302,36,-70,-112,-74,3,227,272,270
391,370,74,-59,-84,-37,-76,93,27,85
76,30,16,-51,122,312,32,36,-64,116
-179,-169,0,64,381,545,89,-21,-132,26
-383,-14,117,136,312,267,33,-112,-219,-189
-445,-73,146,119,31,-100,83,10,-87,-160
-293,0,156,77,-155,-213,102,89,30,-139
-186,88,128,80,-24,-147,-7,-14,-9,-148
-40,150,25,-18,-14,-86,-28,-51,3,-16
92,159,16,-83,-25,-25,5,-17,89,78
38,98,-29,-83,-52,-80,-30,-16,94,9
-54,-22,-76,-135,-104,-37,71,29,83,-40
-50,-116,-89,-153,-72,111,155,46,92,13
-176,-335,-142,-77,143,378,221,94,96,-8
-284,-585,-192,22,308,413,175,171,178,5
-218,-412,-132,2,151,238,93,169,159,-2
23,254,165,49,-14,-12,-48,31,-30,-22
89,319,225,84,-23,-317,-151,-96,-142,41
139,202,156,52,-119,-385,-147,-124,-114,132
154,189,134,78,-64,-263,-215,-238,-170,102
41,58,38,34,-6,-93,-149,-253,-222,-17
55,3,12,-33,-52,-80,-13,-54,-71,25
180,69,62,-3,-18,-127,-4,26,66,106
32,-10,34,65,158,70,66,0,50,23
-188,-151,-42,113,367,325,137,-62,-59,-116
-179,-169,-87,66,394,330,42,-150,-140,-155
0,-31,-81,-19,205,174,-136,-201,-104,-69
120,95,-60,-82,-88,-201,-252,-142,29,54
137,114,29,-106,-316,-406,-253,-63,116,123
152,42,-27,-143,-289,-191,-61,85,194,196
180,4,-47,-37,163,44,-42,-1,33,63
305,97,-49,17,231,-89,-100,-10,1,56
424,142,-35,-37,-139,-242,-16,152,155,217
519,288,54,-161,-435,-152,74,157,227,308
306,355,96,-171,-477,-291,-155,-64,186,226
-95,57,-17,-171,-325,-248,-214,-114,268,111
-205,-182,-144,-208,-188,-48,-17,16,331,25
-161,-147,-74,-129,-154,-13,96,150,344,0
-109,-64,41,-12,-41,29,28,86,180,-18
115,65,147,73,19,-11,-37,15,-43,104
216,143,142,63,-47,-95,-23,-13,-205,143
3,-19,8,-16,-90,-50,83,107,-34,150
-270,-227,-13,26,2,111,199,227,151,174
-297,-229,26,113,115,157,171,205,147,161
-170,-180,-18,77,95,87,124,229,139,90
-134,-211,-79,36,90,111,207,303,158,20
-252,-226,-32,120,199,189,252,213,-60,-258
-197,9,37,120,153,135,97,-5,-317,-399
2,162,44,35,35,10,-59,-133,-285,-236
41,89,24,24,54,31,-47,-91,-142,-150
-22,138,88,51,79,43,-41,-86,-124,-237
24,248,107,54,27,-72,-148,-143,-104,-248
119,200,-23,-27,-48,-100,-175,-151,-78,-104
214,106,-144,-119,-124,-92,-108,-113,-50,164
183,38,-84,-116,-117,-115,-128,-159,-142,201
20,20,-44,-71,-74,-152,-187,-256,-347,-137
-185,30,-46,-25,-25,-51,-107,-167,-337,-404
-313,-32,-15,12,94,172,45,26,-100,-392
-324,-234,-74,27,188,343,146,76,70,-229
-258,-250,-61,3,162,371,98,-10,60,-129
-181,-40,45,21,198,156,-102,-148,7,-204
-85,82,133,66,78,-96,-142,-56,115,-153
13,109,174,65,-132,-244,-129,40,157,-65
127,151,181,26,-243,-194,-74,63,94,25
207,170,175,65,-133,-132,-98,-3,-97,80
212,89,106,86,37,-3,-68,-61,-267,56
261,46,60,25,-10,-10,17,-23,-246,83
280,36,40,1,-49,-52,-37,-47,-174,95
345,-22,-94,-17,12,10,-34,-19,-23,213
406,-35,-291,-105,-8,25,56,83,174,361
201,-37,-279,-165,-85,-8,83,103,237,374
14,-61,-182,-202,-148,-19,112,154,365,442
-124,-255,-213,-142,-30,100,160,171,481,424
-202,-429,-235,-61,128,147,124,120,401,227
-209,-176,-112,-15,95,61,100,84,127,-115
-134,165,50,4,67,138,140,-5,-142,-219
-106,113,21,-28,121,351,155,-55,-285,-219
-152,-4,6,61,258,376,74,-105,-429,-366
-208,-73,36,105,119,-24,10,-90,-426,-434
-198,-20,55,5,-219,-333,10,26,-215,-394
-86,44,112,49,-172,-235,-50,46,-69,-253
36,60,124,60,-31,4,-55,-10,-45,-161
23,42,73,68,149,221,-43,-84,-64,-147
-53,-51,-26,41,223,242,-101,-196,-169,-157
-43,-126,-112,-91,-83,40,-32,-120,-105,4
-41,-211,-171,-98,-164,-37,8,-36,-45,78
5,-90,-3,49,60,82,60,25,-7,60
179,314,197,59,0,-65,-6,-30,-47,6
118,203,77,8,47,-39,-114,-180,-151,-129
-33,-16,-61,58,104,-133,-144,-86,-38,-90
-12,-37,4,62,160,-207,-136,17,79,-21
71,-34,-36,-60,43,-87,58,125,118,19
137,-54,-120,-32,-75,-31,103,179,187,85
249,10,-65,-17,-105,221,227,264,258,174
382,430,195,51,-56,-9,42,7,36,94
393,447,202,19,-137,-299,-122,-136,-75,64
171,152,99,-27,-201,-279,-83,-67,-8,76
-120,-74,38,-20,-67,-165,-51,-47,-42,-12
-190,-174,0,14,18,-51,35,9,-40,-61
-24,-177,-4,52,63,-20,46,2,-17,-27
68,-183,-54,-6,15,-16,65,48,108,93
-69,-153,-1,42,11,47,62,94,220,243
-116,-157,1,23,-34,62,75,163,364,400
5,-84,8,-9,-66,41,119,206,412,472
34,69,124,51,-72,-29,-24,-20,220,282
-102,43,134,109,22,-26,-155,-200,30,-42
-160,25,55,20,2,47,-52,-38,45,-190
-104,60,28,-13,-5,101,27,23,-25,-231
89,60,-102,-76,-59,132,124,36,-105,-189
260,114,-101,-96,-105,92,79,-57,-270,-173
289,172,50,-82,-68,160,-48,-227,-449,-234
239,75,24,-57,16,126,-182,-320,-383,-234
-134,-215,-110,-71,61,-96,-212,-237,-165,-217
-431,-228,-138,-72,-98,-307,-154,-38,106,-106
-290,-13,-82,-72,-194,-301,-74,86,253,10
-130,-75,-106,-118,-142,-141,74,263,262,58
-46,-186,-167,-66,10,6,164,326,112,40
97,-192,-199,-31,61,76,151,214,-57,75
284,3,-130,-39,-17,39,28,15,-191,61
434,201,8,-85,-90,-47,-109,-134,-250,73
508,147,-26,-126,-137,-135,-132,-86,-96,247
491,133,31,-77,-155,-179,-183,-67,9,335
469,297,123,-27,-142,-212,-261,-152,-43,214
193,117,53,-25,-39,-85,-78,-18,26,45
-698,-270,-64,104,309,298,219,174,123,-318
-552,-64,100,156,285,124,87,119,146,-299
-127,144,193,172,190,114,24,96,203,-24
98,235,236,165,191,323,140,109,209,194
266,268,269,149,169,197,87,61,127,375
355,201,178,32,44,-67,-137,-93,-15,407
-81,-77,1,-80,-80,-154,-109,-60,-74,169
-510,-288,-43,-70,-141,-72,88,103,-102,-432
-441,-258,-45,26,13,20,93,87,47,-390
-482,-335,-113,87,118,78,90,72,181,-269
-481,-380,-144,90,125,85,66,37,217,-200
-314,-244,-136,-43,-17,27,22,13,199,-119
-128,-98,-105,-121,-95,3,0,41,99,-39
5,-29,-52,-44,3,84,0,-32,-234,-82
159,119,94,60,22,-41,-119,-207,-514,-69
123,134,129,68,-29,-97,-128,-250,-504,-31
38,39,37,-35,-86,26,6,-177,-332,-6
9,26,43,-15,-22,72,-96,-287,-318,-27
19,35,87,65,86,-24,-293,-410,-378,-73
139,82,63,38,33,-120,-226,-175,-119,49
234,146,-16,-71,-220,-221,-63,88,122,185
208,180,-19,-136,-235,-159,5,110,134,204
264,231,49,-49,-99,-98,-25,18,120,244
254,188,79,21,-30,-100,1,57,178,272
312,83,40,3,-46,-51,82,179,243,379
326,-49,-36,-49,-66,-10,104,212,237,480
-82,-185,-87,-61,-10,42,83,168,191,301
-390,-253,-104,-10,63,126,144,192,174,-26
-364,-212,-71,72,133,201,141,138,75,-191
-286,-174,-49,97,285,405,180,68,-17,-267
-284,-138,-60,113,582,809,192,-62,-180,-363
-288,-183,-66,101,541,615,91,-125,-239,-397
-235,-148,-16,92,158,-76,-108,-155,-208,-362
69,201,109,-16,-362,-330,-12,47,19,-137
126,250,101,-22,-337,-310,-17,71,50,-142
101,159,22,-24,-236,-245,-21,49,30,-169
151,116,21,-46,-182,-126,12,5,37,-97
200,120,-20,-74,-140,-48,-11,-67,16,-17
235,128,-59,-124,-152,-49,-62,-122,-49,59
197,97,-52,-107,-112,-70,-53,-145,-67,102
81,-7,-88,-108,-27,120,63,-154,-19,105
53,-97,-159,-128,19,146,22,-207,60,62
-36,-319,-161,-57,66,-66,-128,-131,254,31
-23,-295,-14,41,-61,-218,-63,182,626,196
-205,-24,68,70,-85,-187,-78,170,569,106
-561,-338,-101,46,57,25,58,245,443,60
-617,-494,-133,71,114,149,250,413,280,234
-353,-82,47,123,84,62,147,261,-96,195
-22,295,219,105,-19,-94,0,31,-337,129
69,187,197,95,4,-103,-52,-62,-379,89
5,-39,96,91,52,-19,18,0,-272,21
67,104,131,93,47,-13,-25,-72,-232,-28
39,207,164,100,86,-14,-110,-209,-354,-295
-68,80,89,110,193,63,-45,-161,-362,-484
-124,3,31,90,249,197,40,-116,-320,-452
-62,14,2,23,156,149,-19,-164,-292,-313
85,90,18,-23,-82,-166,-128,-148,-185,-162
277,217,84,-19,-214,-168,-41,-26,15,57
262,55,-48,-78,-137,138,100,45,222,202
290,-67,-147,-123,-142,58,63,49,294,286
256,-130,-139,-89,-87,-86,-53,47,290,323
166,39,31,25,-43,-182,-129,46,203,230
69,256,157,59,-78,-120,-88,33,97,71
-32,253,148,64,-18,-50,-79,-62,-68,-35
-223,145,86,30,-41,-49,-2,-23,-65,-111
-213,23,36,34,-26,-1,122,86,1,-209
-180,-165,-113,25,72,131,152,37,-78,-273
-147,-243,-126,26,137,252,156,49,-45,-162
-35,-112,-25,77,159,123,28,-7,-22,-84
99,79,36,28,8,-142,-97,-76,0,15
137,80,7,-97,-175,-252,-84,-32,62,109
43,-3,-9,-89,-161,-168,-29,-9,70,121
-24,-45,-25,-60,-113,-51,-3,-8,40,108
-68,-61,-39,-87,-146,-38,-6,-27,27,12
-124,-68,-51,-108,-118,-19,8,-12,19,-67
-160,-66,-21,6,158,157,0,-51,-27,-137
-220,-133,-62,75,445,506,-4,-152,-136,-203
-263,-196,-135,34,427,525,26,-156,-149,-241
-147,-110,-112,-47,57,174,106,64,68,-98
-10,23,-36,-101,-274,-117,141,207,221,54
2,17,-7,-46,-158,-181,70,164,184,41
36,-4,8,-15,-129,-180,45,151,151,44
71,-16,7,-26,-124,-142,40,124,168,140
66,33,2,-3,42,7,49,47,140,165
60,134,54,46,173,97,-61,-126,-2,79
77,102,21,15,78,-7,-93,-158,-78,86
225,132,36,-37,-138,-133,-8,-56,-25,196
290,172,99,20,-158,-221,-69,-21,16,161
183,24,55,46,-23,-138,-13,53,91,143
60,-165,-60,-30,-39,-53,123,164,168,117
106,43,-15,-53,-65,-90,14,-12,-64,-114
229,278,39,-59,-107,-196,-167,-185,-214,-200
427,285,8,-89,-159,-244,-206,-147,-18,85
554,277,23,-94,-162,-270,-310,-188,133,353
395,101,-73,-171,-220,-265,-203,-35,436,500
8,-147,-115,-141,-141,-134,-48,135,700,452
-231,-133,-35,-37,-44,-54,-31,160,751,300
-368,-149,-12,4,67,71,72,228,643,234
-549,-224,-32,19,139,204,234,359,400,80
-687,-243,-48,68,148,219,318,348,-84,-384
-612,-245,-44,108,197,254,335,239,-461,-663
-424,-207,15,86,210,321,363,159,-585,-503
-323,-237,-66,5,188,397,356,62,-546,-309
-196,-147,-58,-19,171,356,252,-60,-486,-200
6,28,-11,12,70,61,38,-114,-378,-39
196,131,57,63,-3,-251,-215,-165,-322,-21
169,113,97,59,11,-280,-309,-287,-420,-291
124,96,75,64,53,-192,-272,-329,-466,-458
207,161,17,43,-38,-173,-215,-274,-386,-363
277,224,-20,27,-83,-115,-148,-216,-243,-182
281,206,66,11,-78,-89,-143,-178,-149,-90
205,143,77,-12,-40,-68,-148,-166,-133,-63
17,82,53,-32,-43,-52,-136,-149,-121,5
-184,-5,41,0,8,5,-105,-177,-124,-6
-109,-29,52,67,94,80,-46,-165,-52,7
54,-115,-34,-30,-2,60,65,6,182,140
174,-85,-53,-104,-113,-51,-8,-18,196,194
240,120,39,-46,-7,-11,-122,-189,-3,86
293,6,-90,-79,114,133,32,12,88,201
233,-206,-210,-130,199,93,10,125,182,322
-142,-164,-150,-64,305,7,-158,-69,-66,133
-275,36,15,5,0,-173,-137,-20,-62,146
-128,-42,-26,-83,-361,-128,92,208,135,247
-247,-100,-85,-73,-192,298,315,181,75,21
-562,-118,-20,52,233,607,331,-24,-159,-395
-554,-214,-63,58,390,506,180,-54,-151,-426
-309,-162,-37,33,329,431,89,90,87,-32
-9,1,64,42,123,146,-21,181,281,310
141,146,113,92,-16,-228,-121,135,228,366
157,196,48,-14,-321,-351,4,193,196,275
72,117,46,-60,-326,-275,79,154,141,155
2,63,62,4,-83,-103,49,95,106,128
-38,15,-4,66,23,-98,-20,16,65,96
-56,-39,-105,27,-44,-91,-21,-9,-2,-45
-11,-22,24,0,-129,-55,16,25,-8,-138
60,114,124,44,-116,-134,-86,-50,-23,-91
92,191,142,47,-63,-102,-58,13,24,14
117,220,73,64,1,-23,-53,-6,16,74
84,64,14,66,68,48,-74,-49,11,124
48,-146,-80,-11,89,226,114,77,113,243
82,-118,-114,-63,92,324,199,96,76,250
-15,-121,-145,-16,267,321,69,-114,-154,25
-21,103,-104,2,173,72,-94,-220,-254,-151
115,271,30,-47,-140,-104,-127,-145,-168,-207
205,177,62,-61,-198,68,111,74,13,-120
326,159,28,-108,-216,40,170,148,126,10
449,187,23,-51,-146,-225,-59,-2,64,23
602,211,6,-48,-279,-406,-106,-2,113,175
663,254,94,-57,-278,-432,-207,-31,163,260
469,276,122,-5,-152,-340,-262,-85,118,176
-94,88,81,-6,-95,-228,-200,-69,49,37
-615,-142,13,-33,-60,-119,-77,5,0,-85
-714,-210,-30,-45,-59,-80,-62,-31,-105,-173
-524,-186,-72,-63,-65,-100,-91,-78,-201,-252
-328,-101,-22,-15,-22,-64,-13,53,-36,-209
-203,-63,-21,25,6,-27,22,136,111,-145
-125,-81,-132,59,91,81,67,141,83,-114
-137,-123,-154,93,185,192,176,226,147,-17
-162,-245,-125,77,143,188,246,263,168,77
-234,-350,-72,73,142,185,196,131,-6,48
-99,-128,-18,49,66,75,128,36,-107,-13
0,72,11,68,85,29,5,-66,-180,-114
-41,-4,-101,55,293,219,24,-58,-212,-230
-81,-73,-116,64,464,314,67,-26,-224,-296
3,-20,14,97,202,71,-29,-90,-228,-218
130,27,95,31,-91,134,50,13,-128,-59
267,59,111,-23,-114,198,162,130,-13,124
166,12,90,23,6,-12,18,14,-76,106
-13,-60,69,19,16,100,50,-36,-111,0
-78,-130,35,70,196,300,45,-94,-116,-49
-1,-147,-32,38,151,65,-3,7,29,76
107,6,-13,-55,-88,-275,-173,-53,62,98
251,171,32,-94,-335,-432,-270,-120,109,82
264,144,-22,-150,-288,-261,-177,-96,168,106
212,78,-30,-168,-245,-161,-22,81,283,175
245,114,18,-127,-177,-112,66,175,305,203
358,251,117,-22,-78,-30,85,120,184,221
482,257,167,49,-26,13,65,50,64,203
429,125,102,34,-13,54,40,22,44,168
166,92,9,-64,-149,-83,-99,-86,-81,34
-200,69,-10,-96,-206,-226,-252,-222,-276,-190
-405,-154,8,9,-34,-67,-86,-52,-117,-84
-334,-284,-28,0,0,29,53,134,167,153
-86,-242,-65,-29,-2,71,99,219,374,312
51,-176,-27,26,68,131,141,245,420,388
48,2,80,95,125,98,75,146,329,381
18,164,143,91,72,-18,-44,-12,264,346
13,129,111,51,22,-32,-83,-138,142,181
-33,32,22,-25,-57,-30,-88,-196,-63,-46
-116,-52,-14,-56,-69,-60,-107,-234,-265,-354
-202,-136,-42,-55,-17,-32,-36,-109,-261,-499
-110,-138,-77,-26,39,46,97,108,-94,-349
33,-168,-94,9,122,178,234,269,66,-104
124,-235,-113,0,134,198,216,249,115,102
241,-31,-13,-15,9,-10,30,80,79,223
337,213,84,-56,-150,-206,-112,6,146,302
225,187,17,-59,-120,-152,-90,-30,76,260
48,73,-69,-25,-39,-39,-56,-108,-139,54
-164,-75,-39,10,57,51,-22,-106,-275,-348
-338,-298,-92,31,105,109,33,-32,-354,-745
-325,-253,-59,42,89,79,53,-30,-389,-753
-248,61,-16,21,69,4,-87,-219,-449,-590
-102,181,7,-6,100,35,-200,-371,-473,-466
50,214,76,53,123,98,-138,-336,-386,-307
190,270,140,76,27,87,-29,-171,-188,-105
172,141,92,52,30,107,75,23,-9,28
8,-55,41,73,35,-6,182,243,155,107
-269,-195,-48,76,-20,-98,115,261,171,49
-352,-79,24,59,-42,-79,48,123,84,-92
-252,177,104,94,-11,-72,-45,6,90,-126
-265,8,-53,68,27,-30,-1,75,266,-48
-273,-244,-197,-1,43,30,62,164,360,76
-163,-281,-237,-67,15,48,59,167,349,170
-100,-63,-31,-12,21,32,-27,47,144,75
-82,35,85,30,37,27,-3,13,-111,-14
65,76,110,10,-40,-46,40,42,-193,80
150,59,99,28,-8,-59,-46,-79,-239,164
158,-65,38,41,95,0,-78,-106,-148,189
210,-40,11,68,227,223,-51,-131,-106,155
166,31,-17,63,337,535,-14,-259,-227,1
-8,-56,-130,-56,310,655,112,-278,-292,-103
-61,-6,-172,-162,78,429,162,-177,-215,-35
-12,65,-224,-175,36,140,88,-47,-27,78
14,85,-40,42,417,-39,-142,-92,46,125
129,80,19,104,216,-209,-179,-5,243,212
191,93,45,27,-245,-317,-104,137,401,216
46,58,116,-10,-225,-57,159,305,490,167
-223,9,169,63,-157,-142,144,274,421,110
-179,18,178,135,-128,-318,-55,80,167,117
94,32,91,57,-93,-52,60,46,17,296
139,-68,12,39,62,147,-12,-147,-256,107
110,-88,52,104,75,-77,-169,-237,-361,-253
310,48,83,-5,-215,-283,-55,30,-50,-78
452,107,39,-113,-414,-375,29,175,177,202
255,15,-18,-86,-269,-342,-23,57,98,233
-135,-142,-56,-23,-95,-219,-61,-117,-147,23
-330,-223,-67,41,107,38,9,-149,-291,-244
-226,-185,-63,33,138,162,77,-102,-274,-394
44,-29,0,-12,-81,40,67,-35,-132,-327
272,101,24,-66,-174,49,91,68,45,-96
459,168,60,-50,-134,-44,12,59,116,54
436,153,45,-41,-117,-169,-84,15,126,45
36,-36,-45,-46,-57,-103,-129,-29,56,-67
-338,-142,-5,74,144,122,15,4,44,-93
-361,0,135,183,244,120,6,-94,-67,-133
-130,186,123,101,35,13,-5,-87,-51,-47
72,93,-106,-33,-89,39,102,37,96,116
36,-182,-192,-57,15,108,97,46,194,205
-56,-250,-133,-40,53,49,-10,9,218,218
90,-9,-42,-95,-133,-192,-206,-58,175,232
181,109,11,-117,-256,-255,-231,-40,151,266
157,173,56,-48,-141,-94,-97,59,79,223
31,163,57,-27,-65,10,36,139,-30,110
20,114,65,-45,-65,-3,36,62,-119,-42
158,25,25,-37,-40,-33,-60,-49,-139,-115
357,-21,-79,-52,-7,66,-84,-68,-65,-11
401,191,-35,-70,-24,48,-79,-70,-34,45
157,129,3,3,99,-30,18,47,115,142
-173,-134,43,73,61,-38,158,208,295,184
-378,-174,78,79,21,-70,14,6,165,-12
-503,-140,31,41,65,5,-48,-106,20,-191
-411,-33,18,7,42,52,41,25,112,-109
-338,4,50,30,57,57,93,77,124,-88
-320,-41,76,107,162,101,48,18,-24,-201
-197,-87,32,102,143,77,73,65,-66,-77
-87,-100,-98,24,25,-2,66,71,-117,41
-84,-70,-94,1,-22,-14,19,-48,-234,-99
-175,-49,-15,33,44,43,-9,-87,-239,-201
-189,-39,30,31,77,80,32,-3,-126,-146
-115,-41,1,-18,34,56,35,45,-51,-42
52,97,53,-46,-83,-79,-83,0,-26,50
109,224,119,-35,-148,-189,-169,-36,-32,72
5,151,78,-33,-113,-107,-91,44,1,44
21,126,79,15,-33,14,0,106,31,50
119,96,85,76,86,155,82,122,44,71
81,-67,31,74,197,368,183,91,21,-34
-152,-276,-72,57,287,564,235,-44,-116,-225
-233,-362,-194,-37,192,589,309,-67,-159,-258
-65,-286,-216,-115,35,473,302,-14,-60,-98
98,-116,-63,94,262,157,-83,-220,-147,-45
110,-33,57,177,255,-276,-318,-255,-150,-116
162,93,96,58,-130,-482,-253,-40,68,20
171,175,85,35,-149,-374,-213,-5,158,129
167,206,44,16,-79,-191,-132,17,185,145
278,244,50,-10,-104,-165,-80,33,191,148
364,189,35,-24,-120,-131,-21,62,167,116
378,107,5,-42,-102,-119,-14,64,129,117
312,36,-59,-93,-141,-122,-10,30,39,102
14,-16,-98,-133,-174,-150,-18,-49,-114,18
-258,-98,-90,-105,-123,-111,-62,-69,-154,-36
-240,-147,-32,-1,125,8,-8,12,1,36
-26,-55,-15,15,238,70,30,37,120,126
178,4,-102,-73,244,165,33,-21,81,117
258,-52,-197,-125,249,218,43,-18,47,100
170,-101,-270,-108,88,1,-38,-11,92,112
-15,-7,-213,-79,-82,68,12,7,103,87
-243,-146,-149,-105,-105,397,312,169,226,69
-523,-519,-205,4,193,445,384,200,220,-92
-454,-352,-34,169,400,221,219,153,194,-154
20,458,295,164,1,-287,-112,-27,47,-145
217,610,297,45,-229,-355,-207,-129,-43,-108
202,452,226,-4,-251,-179,-140,-140,9,-60
108,310,220,63,-169,-264,-207,-125,82,68
10,111,165,24,-218,-171,43,165,322,382
116,-45,122,36,-142,-24,227,346,400,615
363,11,107,71,-44,-47,104,134,106,573
464,125,44,-21,-120,-153,-70,-91,-219,338
365,49,-76,-93,-158,-160,-63,-94,-254,98
156,-125,-206,-148,-150,-125,-47,-73,-229,-183
-118,-97,-196,-181,-197,-136,-94,-154,-338,-455
-311,-29,-85,-77,-102,17,22,-86,-310,-478
-678,-220,-51,150,221,353,174,44,-277,-618
-596,-294,-131,171,251,272,85,76,-285,-622
-154,-190,-116,35,94,-22,-35,25,-281,-408
165,-9,-91,-44,-118,-174,-91,-13,-232,-159
190,56,-83,-35,-138,-154,-65,-34,-171,-26
17,-13,-14,-6,-49,-20,9,-36,-93,9
-83,-45,24,32,16,16,-5,-20,55,52
-148,-80,16,26,-17,-6,32,112,226,90
-127,-66,21,39,27,-11,59,144,313,19
-56,-28,-10,45,81,31,88,133,352,20
23,-37,-82,1,68,56,88,82,311,71
14,-67,-1,1,63,51,46,-6,108,33
-16,-42,47,34,81,26,1,-80,-141,-63
38,101,120,33,-2,-70,-103,-179,-330,-81
-34,92,88,-3,-34,-6,-160,-249,-368,-145
-135,12,38,-22,-51,72,-109,-208,-227,-129
-123,1,57,29,-1,-12,-148,-178,-93,-49
-85,9,-16,72,8,-126,-170,-80,114,8
-39,18,-110,51,-14,-155,-88,85,357,103
-31,0,-94,-6,-50,-79,0,177,336,113
-54,-49,-110,4,50,46,48,138,141,-45
-89,-222,-154,66,193,103,61,82,5,-98
-61,-201,-29,86,115,18,24,25,-176,-61
110,247,165,11,-116,-60,-88,-147,-408,-108
203,343,178,-56,-140,31,-14,-94,-304,-24
213,204,85,-63,-68,88,36,-35,-164,56
149,159,40,-83,-76,42,51,26,-74,62
