46,36,32,45,10,-8,30,3,38,13
39,32,20,53,1,-1,25,1,15,16
41,0,24,30,-1,-9,5,-22,8,0
36,-1,23,21,-17,-3,-9,-23,1,-8
11,-27,9,4,-24,5,-1,-16,-4,-29
-1,-48,-8,7,-20,19,-27,-3,-4,-33
-2,-33,-6,5,-6,6,-36,-4,3,-35
2,-13,0,13,3,5,-21,-10,-1,-38
6,-4,6,19,6,0,-6,9,4,-23
9,-25,-29,1,11,9,-6,22,12,-19
18,-18,-9,6,7,13,-22,20,27,-18
31,-5,28,9,13,7,-8,24,22,-22
33,-13,14,8,19,21,-7,17,16,-28
32,-10,14,2,31,10,-14,6,-11,-34
23,-9,13,8,20,4,-18,-9,-24,-26
15,5,8,15,6,0,-43,-16,-33,-13
8,0,-4,8,-1,-10,-37,-5,-20,-9
-2,-20,-1,-4,-3,-9,-11,4,-10,-12
0,-24,-16,-14,-5,6,23,1,-7,-19
13,-24,-6,-25,-12,12,58,-12,-38,-31
11,-23,-3,-43,-5,-3,77,-17,-60,-50
2,-16,-9,-38,7,1,69,-24,-47,-43
0,-5,-7,-32,-3,-8,8,-29,-51,-33
-8,12,-14,-8,-4,-16,-33,-26,-44,-8
-1,15,-43,-8,-3,-25,-34,-18,2,4
10,0,-37,-5,-7,-19,-26,-14,6,7
11,-5,-23,0,-10,-17,-15,-12,18,23
18,-3,-18,-6,-15,-13,-26,-1,15,38
20,-2,-34,-8,-24,-27,-63,-12,-10,37
17,-9,-112,-13,-27,-29,-50,-15,-23,36
8,-16,-80,-20,-22,-7,-38,-4,-5,36
-5,-13,-42,-35,-7,9,-25,14,21,35
-4,-20,-32,-56,0,13,-6,30,38,35
-7,-47,-17,-58,-17,14,22,51,56,38
-8,-58,-17,-46,-25,16,38,69,55,36
2,-40,-25,-42,-15,33,39,84,45,34
4,-36,-10,-40,-7,33,42,80,59,24
23,-18,12,-17,0,39,54,75,74,28
31,7,30,7,14,47,42,47,60,19
31,6,-8,7,2,35,10,13,10,-8
23,-1,-93,1,6,36,12,9,0,-22
10,-7,-16,7,10,44,15,10,0,-22
2,-1,24,13,13,28,0,8,4,-16
0,19,45,8,18,-3,-21,11,1,8
7,36,45,0,0,-9,-5,9,38,25
17,50,36,4,-12,-12,18,21,62,45
9,50,-76,17,7,-7,24,1,45,41
7,32,-107,12,26,-13,19,-9,47,26
7,30,-3,15,32,-13,-4,-13,31,16
-5,5,48,9,12,-10,-42,-15,4,16
-21,6,40,6,8,-9,-33,-16,10,16
-37,-14,25,-9,-5,-7,-1,-7,-2,6
-41,-19,14,-20,-6,-19,13,-13,-30,8
-27,-23,5,-18,-7,-39,4,-15,-33,22
-25,-28,22,-14,0,-24,2,-20,-32,14
-28,-5,13,-8,20,-15,0,-27,-20,-8
-34,-25,0,-24,13,-15,12,-29,-23,-33
-38,-28,-4,-29,9,-19,12,-43,-33,-51
-48,-25,-22,-41,-6,-12,0,-37,-44,-51
-37,-7,-23,-27,1,-8,-9,-23,-26,-39
-22,11,14,4,12,-8,0,-33,-43,-40
-4,38,8,22,35,-8,15,-34,-38,-40
5,62,13,11,55,4,23,-8,-2,-30
8,19,9,-1,24,0,18,5,-29,-27
0,2,-8,-5,11,-9,10,9,-28,-24
-9,9,8,9,7,-29,-21,2,-14,0
5,16,-5,31,8,-21,-32,-3,-7,-2
14,11,1,19,9,-13,-64,-4,-8,-10
27,-2,8,2,5,-33,-81,-15,-27,-24
27,-7,2,4,-9,-47,-72,-13,-31,-36
10,-8,-7,3,-28,-44,-57,-19,-12,-38
-12,-22,-23,-16,-27,-52,-20,-19,15,-31
-4,-19,-14,-9,-24,-67,0,-14,11,-24
-4,-20,-3,1,-27,-61,2,-8,8,-28
1,-16,-16,3,-12,-60,-12,-11,10,-40
4,-1,-20,1,3,-57,-29,-13,-13,-40
8,14,-29,7,6,-62,-42,-10,6,-27
12,16,-30,10,11,-61,-58,-5,17,-31
5,7,-4,2,9,-64,-53,-8,1,-44
-7,-2,-29,4,11,-62,-26,2,5,-38
-7,0,-19,20,-4,-45,4,4,-5,-32
-18,11,-8,38,-14,-32,37,-2,-13,-23
-35,0,-26,16,-17,-25,64,6,-34,-37
-40,-19,-45,-9,-9,-9,71,10,-23,-61
-41,-24,-112,-23,-19,8,73,17,-31,-81
-24,-41,-169,-24,-21,7,59,21,-39,-86
-10,-21,-71,-36,-8,13,45,17,-33,-76
-14,-2,8,-39,-1,32,37,20,-11,-56
-3,-14,30,-37,-7,27,34,25,-9,-41
13,-26,28,-27,-4,22,17,28,5,-22
21,-18,41,-16,13,24,9,17,5,-13
25,-11,41,-7,24,28,-7,16,8,2
34,-14,28,0,26,21,-1,28,12,5
38,-18,24,16,32,15,-14,21,27,19
14,0,0,26,19,-2,-15,17,24,52
4,-8,38,35,14,8,-33,5,-1,42
0,-11,36,25,14,9,-27,0,-1,16
-8,-9,28,18,9,-1,-28,7,-21,18
-18,-22,27,0,0,-10,-31,9,-42,16
-8,-28,5,-20,5,-1,-18,9,-43,18
-13,-27,9,-19,8,-10,6,-3,-25,2
-12,-22,13,-9,3,-18,33,-35,-29,-6
-7,-3,14,3,0,-25,17,-65,-33,-13
-17,3,-7,-6,-29,-40,-39,-75,-44,-14
-18,-8,0,-16,-48,-57,-88,-71,-36,-16
-21,-5,4,-16,-45,-54,-89,-60,-32,-2
-12,14,-13,-3,-21,-43,-58,-53,2,15
-5,4,-72,0,-26,-45,-33,-49,-5,27
-3,13,-30,-7,-33,-37,-37,-41,-3,29
-6,10,1,-15,-24,-26,-20,-31,10,13
-7,0,-10,-27,-5,-19,22,-25,23,-8
-18,6,-11,-47,8,-10,68,-1,26,-14
-21,-12,-19,-50,-21,0,111,32,6,-14
-16,-17,-21,-43,-17,7,112,61,16,-16
-21,-19,0,-31,-6,22,99,85,30,-17
-12,-10,0,-31,-5,30,78,100,40,-8
6,-2,-2,-27,1,34,66,118,70,0
28,22,2,9,5,50,63,120,94,40
47,42,26,4,21,51,63,93,101,61
50,46,37,9,37,51,32,61,86,68
55,65,45,33,48,43,6,25,74,69
46,76,67,23,46,39,-11,-7,52,65
8,52,59,13,27,14,-30,-17,0,39
5,49,39,15,16,-5,-69,-17,2,12
19,54,32,19,8,-11,-56,-11,-1,20
29,41,41,10,6,-20,-31,-5,-10,11
22,16,11,-6,-2,-11,-24,-5,-24,-4
5,6,11,-15,0,-19,-19,-11,-31,-16
4,9,-61,-22,-9,-37,-27,-11,-18,-18
12,8,-139,-24,-11,-56,-58,-15,-27,-8
1,9,-56,-22,-21,-49,-73,-30,-30,-19
9,29,-1,-35,0,-38,-67,-25,4,-19
8,20,-5,-22,18,-25,-62,-22,-6,-9
-2,2,7,-24,8,-31,-63,-27,-35,-23
-9,1,21,-29,-17,-33,-40,-19,-44,-30
-7,-12,26,-25,-27,-28,-27,-25,-45,-47
-10,-21,6,-19,-35,-16,-22,-17,-32,-48
0,-28,-11,-9,-41,-8,4,0,-30,-45
-3,-11,4,-6,-48,-7,37,4,-37,-53
-1,0,-11,4,-35,-21,48,3,-29,-31
16,13,26,21,-26,-25,33,8,-9,-5
20,7,29,10,-11,-23,22,5,5,4
16,-1,11,-7,-12,-5,-2,2,-9,18
12,-6,19,3,3,0,8,0,-28,37
0,-15,26,8,8,2,29,4,-31,11
-10,-19,20,4,12,3,54,3,-40,9
-12,-13,-21,0,-11,0,8,-7,-60,38
1,-10,-89,8,-8,0,-32,-6,-68,18
8,-4,-11,9,-1,-5,-40,-7,-36,7
7,-6,17,10,2,-5,-41,0,-8,11
4,6,-65,11,15,4,-17,13,11,11
3,8,-101,1,13,-3,2,20,14,6
-10,-9,-7,-14,-3,4,-4,9,5,20
-14,6,63,-12,0,5,-15,18,20,42
-12,-5,52,-9,-1,-8,-50,3,-2,45
-17,-19,51,-3,8,-8,-35,-3,-8,-1
-38,-9,25,-16,21,-7,-15,-6,-11,-10
-17,0,33,-18,14,-10,-14,6,-12,-7
-3,-4,43,-10,-5,-11,-27,11,-2,2
10,-3,38,-9,-11,-14,-4,12,0,9
20,10,30,0,-13,-14,12,25,-1,16
19,-9,26,-11,-11,-8,-8,8,7,6
14,-14,19,-25,-6,13,-4,-11,1,-2
16,-15,18,-14,0,10,7,-22,10,-10
6,-21,23,-20,-7,0,16,-33,7,-13
6,-14,29,-7,-6,6,22,-37,5,-5
5,-16,24,4,2,19,7,-31,22,-2
0,-5,8,10,-1,15,-20,-28,28,15
-30,-29,-23,3,-7,0,1,-18,39,29
-40,-68,-118,-7,8,27,32,-3,47,42
18,12,34,0,2,2,3,-65,5,14
37,73,69,-2,-17,-27,-28,-124,-71,-20
10,23,-5,-16,-20,-11,18,-79,-42,-3
13,12,-76,-11,-11,5,48,-43,3,28
18,33,11,15,-9,13,60,-29,5,52
15,17,26,5,-11,22,47,-14,6,59
12,24,17,-2,8,29,9,6,27,61
11,27,25,2,-1,34,2,12,24,47
23,16,22,3,-19,39,-3,33,5,41
14,40,49,10,-19,25,2,45,26,27
6,44,51,3,-16,26,11,26,28,13
-2,19,32,12,-19,26,12,14,14,-23
-2,10,18,9,-19,21,17,6,-10,-16
1,15,8,3,-21,6,29,-17,-7,10
36,23,14,-13,-9,-15,-31,10,33,92
19,8,-63,-16,-16,-15,-43,0,32,72
8,5,-149,-12,-25,-29,-18,8,16,35
14,3,-107,-15,-34,-24,13,16,-1,18
2,-6,5,0,-21,0,18,18,-7,-19
-44,-9,24,22,-2,12,28,18,-23,-87
-63,-9,18,26,7,5,26,7,-31,-112
-49,-12,-12,18,-1,2,24,-3,-28,-80
-27,-8,-102,22,2,9,9,-3,4,-43
0,2,-33,43,13,25,8,5,9,-11
-11,1,49,52,15,18,0,3,11,-8
-40,-6,17,23,5,13,-13,-13,-1,-32
-47,-23,-17,6,4,12,0,-8,3,-23
-33,-33,26,-5,-1,14,-11,-10,16,-17
-27,-29,30,-18,0,20,4,-3,19,-17
-16,-15,46,14,2,25,37,-2,0,-9
-14,-12,44,4,3,16,30,-1,-3,1
-5,-6,35,-8,-2,8,30,-4,0,12
-1,-6,32,-2,9,11,3,0,-13,20
-2,-8,19,8,11,0,-2,-14,-12,23
1,-13,13,0,2,-12,-26,-19,-7,0
14,-5,21,4,6,-6,-53,-25,-8,-14
15,-5,16,1,9,-11,-63,-26,9,-30
19,1,20,13,2,-31,-54,-34,15,-36
7,1,9,16,-1,-31,-59,-42,-1,-47
-6,-26,-16,1,-11,-37,-75,-36,-11,-57
-20,-29,-91,-21,-16,-36,-65,-13,-2,-60
-34,-20,-38,-28,-8,-21,-48,8,-18,-46
-45,-37,-56,-19,-10,-7,-32,7,-29,-21
-26,-47,-86,-22,-9,5,31,0,-38,-41
-25,-39,-23,-20,0,23,99,24,-15,-49
-32,-22,13,-8,1,32,146,43,13,-23
-16,-31,17,-10,9,49,133,56,27,-9
19,-7,26,2,23,45,67,61,47,4
34,18,46,11,34,42,18,45,36,-1
42,25,48,14,26,42,0,26,21,-11
31,27,50,18,22,35,-11,11,7,-7
34,22,51,0,3,16,23,13,-9,-23
26,17,36,8,5,6,-14,17,2,-13
33,3,17,-6,1,0,-71,6,-6,23
26,-7,9,-23,-10,-6,-91,-15,-4,39
11,-12,10,-19,-19,-19,-81,-16,0,24
17,-8,6,-18,-24,-31,-67,-15,9,35
12,-15,0,-22,-25,-35,-57,-9,1,34
-17,23,-10,18,-21,-32,-36,-50,-3,6
-23,-11,-1,7,-18,-33,-58,-49,-11,-60
-28,-12,7,6,-14,-31,-63,-50,-25,-74
-21,-5,18,17,-6,-22,-55,-50,-37,-60
-16,-14,19,8,-6,-1,-23,-48,-37,-54
-26,-16,8,-1,-6,14,21,-50,-25,-59
-13,-3,12,4,2,19,54,-29,-4,-63
-6,19,14,19,-1,23,60,-1,-21,-57
-10,3,0,7,-5,6,23,6,-23,-49
-2,-1,-18,-1,-6,6,17,30,23,30
3,0,-20,1,-5,6,37,25,24,30
17,3,-22,-1,-9,0,44,6,-7,32
28,-3,-12,7,-5,0,32,-8,-19,39
32,0,-7,14,-3,7,34,-19,5,56
10,-2,-18,11,-4,12,34,-15,18,61
-11,1,-92,2,-3,26,20,-14,23,43
-17,0,-55,2,-1,34,15,-23,13,29
-34,0,15,0,0,29,17,-14,15,10
-18,5,-5,3,1,24,-12,-5,-7,13
2,14,-28,16,4,20,-5,6,0,10
1,28,-8,21,8,23,3,10,2,6
-5,42,-14,17,6,36,10,33,20,17
-1,36,-9,6,-6,35,21,43,54,29
14,30,3,11,-6,33,23,37,46,24
13,18,-30,13,2,21,13,25,46,19
3,-5,-71,2,-4,22,-5,30,41,4
5,-8,-33,-9,6,9,4,27,25,3
9,-1,-110,-13,-1,9,5,11,17,6
0,-1,-91,3,-8,3,5,-17,-5,-11
-24,-30,27,-13,-19,1,10,-17,-8,-45
-19,-10,51,1,-16,4,11,-12,-15,-40
-29,-1,60,16,-11,16,8,-20,-33,-39
-22,2,67,8,-8,13,-6,-13,-30,-43
1,8,62,14,0,7,-4,-5,-29,-34
4,32,61,28,3,-4,-20,-12,-14,-8
6,38,55,17,-4,-12,-11,-23,10,4
3,33,44,9,0,-12,4,-26,0,1
0,19,37,13,3,-14,1,-29,2,-5
3,14,15,11,-8,-20,-12,-24,11,-14
15,14,-83,2,-23,-40,-44,-18,17,-29
17,11,-131,-11,-20,-45,-70,-7,22,-15
0,23,-114,-15,-8,-38,-61,7,22,7
2,6,-13,6,-11,-7,1,59,9,1
0,4,57,24,-1,9,45,75,12,10
-27,-3,47,23,2,24,67,55,1,-4
-54,-30,7,7,-5,19,63,32,-28,-46
-48,-35,12,0,0,31,88,35,-34,-51
-39,-10,31,11,10,30,102,41,-10,-42
-25,7,56,16,4,34,85,20,0,-26
9,0,62,17,14,16,42,15,3,24
4,0,41,0,9,-12,31,13,6,43
8,3,47,4,2,-17,2,9,-6,36
14,-3,43,14,1,-15,7,13,-9,16
6,-3,37,6,8,-17,14,16,-1,2
-2,8,35,3,11,-12,24,22,5,-5
-7,18,33,0,16,-9,31,30,-3,-10
10,13,28,-16,26,-15,26,27,5,13
21,10,28,-23,21,-8,33,6,-1,24
12,9,20,-33,15,-8,20,-3,-5,14
5,-2,14,-23,9,-18,-1,-12,-21,7
-5,6,30,0,13,-17,-1,-12,-45,-5
-31,10,36,7,3,-14,2,-13,-46,-16
-56,23,26,15,-2,-14,25,-14,-37,-20
-78,12,17,26,5,11,15,-13,-27,-39
-36,-2,24,15,10,5,-9,-17,-28,-10
-30,0,15,18,12,-2,-24,-29,-42,2
-47,0,13,22,7,-18,-40,-26,-38,12
-47,14,19,18,-2,-36,-60,-14,-47,11
-35,23,-10,10,9,-27,-70,0,-47,17
-32,21,-27,4,5,-26,-63,-6,-36,-7
-39,14,-21,0,-4,-34,-51,5,-26,-6
-47,-6,-21,-9,-7,-24,-15,18,-20,4
-44,-15,-22,-13,-5,-15,17,20,-12,7
-26,-11,-29,-5,-14,3,24,11,15,22
-7,-6,-33,6,-14,22,24,13,26,49
-18,16,-16,34,-7,29,46,17,32,56
-37,14,-30,22,1,27,78,21,15,36
-12,2,-29,-25,-6,27,74,49,25,84
-16,-4,-28,-23,0,30,46,43,25,73
-23,2,-19,-22,16,33,29,32,20,55
-15,20,1,-9,27,42,20,41,27,57
-2,44,-18,17,28,29,38,40,11,56
2,40,-40,19,35,28,62,31,12,48
5,36,14,12,26,21,66,17,6,36
5,36,23,3,10,21,40,2,0,27
-4,27,16,3,16,24,5,2,16,18
1,32,-2,6,21,8,6,0,6,33
35,35,19,0,20,6,-2,-9,9,47
41,30,13,11,10,-2,-5,-6,3,49
41,41,-4,18,7,-22,-16,-5,19,45
53,34,-63,5,0,-21,-36,-8,23,46
51,28,-98,-1,-2,-15,-69,-11,24,37
31,14,5,-5,3,-27,-42,-30,16,-15
25,7,24,-1,8,-22,-53,-29,13,-35
28,-3,10,10,15,-9,-45,-12,15,-46
34,10,6,35,28,8,-23,2,16,-38
27,18,0,35,24,-4,-21,4,-2,-23
37,28,18,20,23,-2,-13,24,29,-7
42,18,15,20,24,11,0,30,38,-2
37,14,20,18,20,10,0,29,31,-17
36,16,17,5,24,0,3,28,45,-17
28,14,30,1,21,-2,-14,3,63,1
26,23,38,26,11,-11,-5,-8,42,23
38,-3,-27,14,10,-12,2,-5,33,9
37,-21,-125,0,20,-13,24,-6,23,-7
30,-21,-139,-2,19,-9,32,-6,3,-15
22,-19,-88,3,13,-4,12,-6,9,-13
13,-20,3,-9,14,-6,3,-7,6,-10
4,-25,19,-17,2,-13,-21,-12,11,-16
11,-3,30,-1,13,-11,-18,-11,7,-12
16,-3,-55,9,18,-11,-1,-13,-4,3
11,-22,-90,-12,10,-8,19,-18,-2,-2
24,-26,-56,-9,15,-13,23,-22,13,-8
31,-13,25,-4,5,-16,11,-25,0,-13
23,-9,66,-5,-6,-22,-18,-11,-15,-11
19,-6,51,-10,-9,-33,-44,-7,-18,-12
13,-7,45,-3,-9,-29,-51,-15,-16,-29
17,-3,-7,0,-15,-24,-48,-31,-25,-29
17,-19,2,-18,0,-25,-24,-58,-3,-31
-2,-27,46,-20,6,-29,-6,-59,23,-28
-9,-32,32,-19,-9,-27,-28,-47,5,-25
-16,-32,28,-24,-11,-22,-31,-44,-5,-40
-26,-49,26,-19,-12,-3,-28,-33,-14,-63
-33,-47,28,-15,-3,-2,-19,-11,-12,-68
-45,-51,-52,-12,-17,1,64,51,-6,-63
-4,-12,-118,5,-12,33,97,105,44,-43
20,15,14,21,5,45,74,92,62,-19
27,33,91,27,9,40,44,66,57,4
26,24,78,27,12,35,44,44,58,35
15,29,72,35,19,29,36,27,33,35
8,54,80,56,10,21,19,3,23,41
-7,19,55,36,3,17,-19,-6,3,26
-19,-6,3,4,-1,5,-56,-13,-4,16
-22,-5,21,-32,-18,-2,-55,-29,0,-12
-31,4,32,-24,-18,-1,-33,-9,-9,-18
-31,9,27,-7,-3,-6,-10,-8,-16,-28
-22,4,27,-10,-4,2,21,-20,-21,-38
-22,8,23,-16,-4,10,60,-19,-16,-24
-23,7,23,-18,6,11,41,0,-4,1
-11,7,25,-22,24,10,18,-3,12,30
-17,-3,0,-21,13,3,-8,-20,1,42
-28,-17,-14,-23,2,-2,-27,-20,-15,36
-30,-12,-14,-19,1,2,-41,-26,-20,44
-36,-13,-17,-22,1,-5,-42,-26,-32,26
-33,-14,-5,-29,-2,-12,-30,-43,-42,5
-8,-3,-4,-23,0,3,-47,-42,-37,-2
2,-13,-4,-24,-4,-8,-18,-24,-25,-2
5,-14,-15,-12,-6,-6,-11,-12,-4,8
11,-13,-18,-14,-27,1,-18,11,7,32
19,-11,-57,-4,-38,-3,-8,14,46,34
12,11,-118,7,-29,1,-12,2,41,33
6,21,-72,17,-23,10,0,8,25,29
-13,-18,-14,-5,-30,1,-39,-9,4,-3
-11,-18,-9,-4,-23,-8,-42,-24,-16,8
-19,-10,-18,-8,-25,-12,-55,-34,-18,8
-5,-5,0,-13,-19,-2,-29,-34,-11,15
9,7,12,-5,-5,-8,11,-40,0,38
5,12,7,1,-4,-1,33,-39,11,48
13,7,-3,-12,-10,11,26,-30,3,56
13,7,-15,-14,-8,6,-1,-22,7,53
17,6,-2,-5,-9,0,7,-26,3,34
16,0,5,7,-8,-4,8,-25,-16,11
-12,4,-13,12,8,4,2,-26,-28,-46
-73,-16,3,1,0,13,-4,-29,-70,-132
-91,-16,-4,3,0,11,-16,-24,-68,-162
-61,-18,-16,14,-12,10,-45,0,-47,-105
-22,-27,-20,10,-12,9,-42,14,-23,-52
-8,-6,-10,0,-5,0,-2,18,-5,-24
-16,4,-22,-3,-3,22,18,30,-16,-6
-13,7,-22,-6,-18,32,38,38,-9,-4
0,7,-22,-16,-25,39,42,34,-18,-12
6,14,-24,-14,-27,36,59,31,-15,22
15,17,-34,-11,-22,40,58,35,0,120
31,9,-40,-4,-3,54,89,50,10,156
34,2,-20,6,6,49,110,53,18,130
35,10,-10,4,10,50,98,55,27,92
42,24,4,14,38,40,53,57,27,86
48,16,29,2,51,36,11,42,19,65
49,16,15,12,34,31,-7,20,9,42
38,19,10,23,41,23,-16,8,14,35
38,8,18,-5,40,10,-22,2,7,6
43,6,12,-6,30,-13,-62,-1,13,-11
23,6,14,0,24,-15,-82,-15,5,-15
13,-10,-16,-20,9,-11,-39,-13,-12,-18
4,-13,-2,-13,19,6,11,2,16,2
0,15,26,2,3,12,42,-13,-4,33
3,-4,15,-14,-9,13,15,-3,0,19
10,-12,-15,-22,-9,7,-14,12,-9,11
6,-8,-15,-2,-6,7,-1,10,-3,7
17,5,-1,16,-16,14,1,16,11,29
23,7,-5,7,-24,8,-4,16,25,35
-3,25,-2,32,-4,2,9,0,15,28
12,49,-41,28,29,4,8,3,70,-21
8,34,-70,24,19,-3,-8,12,75,-28
-6,11,0,1,0,-12,-11,13,55,-24
0,19,6,3,8,-19,-20,11,38,-25
-2,30,-18,11,13,-26,9,9,38,-27
-5,21,-73,0,17,-24,36,4,23,-16
-21,-2,-155,-15,-2,-12,65,4,7,2
-48,-26,-116,-28,-18,-10,79,7,-14,11
-45,-19,-25,-27,-30,-4,86,9,-38,-10
-45,-18,-8,-21,-21,-4,80,9,-34,-35
-25,-2,-23,-10,-15,-19,45,23,-37,-8
-6,-2,10,1,-20,-29,28,6,-39,-4
6,21,46,28,-12,-38,15,-27,-45,0
12,41,54,44,7,-44,-4,-66,-61,-8
8,24,50,37,11,-42,-17,-99,-76,-29
2,4,24,15,-3,-40,-45,-99,-78,-31
-4,-20,17,13,-12,-51,-43,-80,-62,-43
-20,-37,4,0,-8,-38,-30,-64,-60,-63
-45,-30,-2,-15,-7,-36,-24,-39,-51,-81
-49,-31,-4,-22,-10,-22,-22,-12,-35,-69
-37,-31,-8,-17,-23,-13,-38,19,-11,-44
-22,-20,-14,-6,-20,-10,-15,36,0,-34
-16,-18,-1,2,-16,5,8,34,-1,-27
-17,-1,3,6,-7,9,39,24,-5,-29
-19,19,6,26,-8,18,25,18,9,-9
7,17,13,24,-3,17,7,24,17,1
9,0,-20,1,-8,0,-12,18,17,-12
5,-2,-43,5,-14,-7,-46,0,-7,-22
6,-7,-102,13,-7,-13,-78,-43,-25,-28
-2,-12,1,4,-10,-35,-95,-70,-43,-40
-9,-8,-7,10,-16,-30,-95,-79,-50,-39
-9,-9,8,6,-15,-12,-58,-64,-35,-28
0,8,26,5,0,-9,-25,-59,-11,-23
12,11,15,10,-6,-6,-10,-54,-9,-13
21,11,-34,12,-4,1,-12,-27,-20,-23
19,5,-13,13,-3,9,-6,6,-32,-34
15,-4,24,10,6,21,15,46,-6,-32
27,3,27,20,9,28,27,64,25,-8
34,4,45,0,-20,45,39,63,27,32
26,19,50,12,-9,37,64,73,38,21
8,21,49,26,14,36,59,70,51,10
15,22,25,31,14,27,4,61,34,12
37,30,34,30,0,0,-54,25,23,17
53,28,0,40,-11,-31,-80,-10,14,21
55,12,20,47,-5,-38,-72,-11,5,13
31,-21,6,18,-11,-23,-75,-25,-10,0
-17,-43,-83,-15,-21,-18,-92,-29,-40,-16
-20,-55,-77,-21,-31,-12,-75,-24,-17,-14
-17,-53,-19,-29,-38,-7,-51,-14,-13,-17
-21,-50,-62,-46,-44,-5,-6,-5,-25,-13
-24,-45,-12,-47,-39,28,74,11,-21,-21
-24,-48,-32,-46,-23,45,145,46,-14,-18
-16,-44,-102,-47,-5,74,194,74,-1,-5
-3,-33,-63,-36,-1,78,182,97,-6,8
15,-18,15,-28,10,56,128,90,9,17
43,12,32,0,41,35,73,69,32,27
55,46,73,17,62,26,58,34,45,30
47,43,85,20,41,20,52,8,13,54
31,25,35,-11,41,10,32,-27,0,20
32,11,26,-12,29,9,-2,-23,7,4
24,3,8,0,9,5,-27,-6,11,2
10,3,1,-1,-6,-6,-39,-7,16,3
-7,2,23,-6,5,-6,-35,-1,22,0
-3,9,34,-4,7,-3,-31,-3,35,13
11,26,69,14,-1,6,5,-3,47,29
11,34,72,4,-6,-3,7,-7,26,14
15,12,55,-26,-14,1,-12,-11,19,1
15,0,44,-37,-1,-21,-57,-4,25,0
17,2,26,-37,-2,-17,-50,-3,11,5
30,5,-59,-31,-5,-16,-63,-17,17,5
31,10,-102,-15,-10,-27,-76,-9,0,21
25,9,-115,-17,-12,-33,-96,-1,0,26
19,16,-59,-17,-4,-29,-81,-14,1,28
22,5,67,-5,-6,-12,-70,-26,17,12
9,11,41,-6,-11,-7,-78,-28,-2,8
-6,5,25,-18,-14,-4,-61,-28,-7,0
-20,-5,14,-22,-16,3,-30,-19,-7,-15
-26,4,50,-8,-16,2,-19,-13,-9,-17
-15,1,47,-18,-7,-1,-14,-11,-15,-22
-13,-14,32,-20,-6,-11,13,-11,-14,-42
-8,-12,38,-11,-14,-4,13,3,-9,-38
5,-5,30,2,-8,9,34,10,-6,-24
12,11,5,14,5,7,43,-2,3,-19
16,31,24,27,3,17,44,6,7,-12
10,21,25,29,8,16,38,15,-1,-30
7,6,13,-2,13,9,59,16,-6,-45
11,9,14,3,19,14,58,12,-17,-40
10,7,19,12,27,1,44,6,-8,-32
7,6,12,3,25,11,40,-14,-10,-46
0,9,13,-2,51,9,51,-8,36,-46
-8,1,0,0,53,18,38,-13,28,-38
-11,-15,-36,-3,29,18,20,-20,-10,-34
1,-35,-4,-3,32,10,-26,-32,-15,-27
2,-24,-20,6,27,17,-40,-28,-11,-30
-6,-28,-8,-2,18,7,-41,-22,0,-38
-12,-20,2,0,19,6,-27,-22,7,-45
-5,-8,-1,6,18,-3,-41,-31,-5,-53
5,8,18,15,26,-11,-37,-28,-33,-47
21,18,25,20,21,-5,-31,-8,-26,-32
21,0,5,15,2,-4,-38,4,-22,-41
15,-2,6,5,-1,-10,-8,21,-25,-49
28,5,-4,4,9,-1,6,33,-23,-38
26,11,-29,-4,10,4,26,25,-9,-39
9,9,-60,-3,1,11,48,19,8,-31
18,37,52,20,6,10,53,10,1,26
-1,12,27,8,-12,0,26,-4,18,61
-1,8,30,-21,-21,-17,-1,-2,6,56
0,-3,7,-40,-34,-21,-6,-4,12,50
10,-10,-1,-48,-35,-16,1,0,14,44
-7,-15,-9,-45,-26,-8,17,-3,26,27
0,-9,-19,-34,-24,0,62,9,28,18
14,-2,0,-24,-13,6,84,23,52,14
9,-6,33,-11,8,20,41,38,2,7
7,-6,33,-1,14,21,30,27,-8,12
-3,-4,38,6,16,27,18,36,-4,23
-2,6,36,16,27,36,11,42,-9,32
3,27,36,36,41,10,-12,17,-7,35
9,24,13,30,33,-5,-36,-16,-19,35
3,-5,32,-6,21,-21,-61,-44,-45,19
-17,-15,16,-12,7,-20,-27,-61,-61,-9
-36,-19,5,-8,-4,-10,14,-59,-63,-9
-40,-19,0,-9,-4,-21,34,-30,-51,0
-33,-20,6,-7,0,-27,11,-7,-35,11
-37,-8,2,4,3,-4,-16,-11,-37,10
-39,0,-33,-20,36,6,16,40,37,24
-52,-23,-87,-24,7,-1,13,54,-8,17
-46,-28,-56,-19,3,-1,31,71,-9,18
-31,-26,-38,-15,0,6,70,91,36,44
7,44,15,23,5,14,57,87,87,109
3,2,2,0,22,16,11,67,90,74
10,4,11,-1,19,15,-4,52,88,62
5,10,-20,8,4,24,-19,39,47,48
0,13,-58,15,0,13,-26,18,40,41
4,13,7,21,0,8,-28,-1,44,28
8,16,11,41,-6,-16,-40,16,19,24
8,2,-78,19,-21,-27,-37,5,17,10
-4,0,-54,6,-21,-26,-45,-11,10,-5
-16,-1,20,17,-12,-20,-47,-17,-21,0
-22,-7,27,19,-14,-33,-37,-7,-31,1
-7,-13,23,1,-7,-29,1,2,-24,2
-8,-3,11,2,-12,-24,5,-11,-16,6
-13,2,15,11,-20,-11,-19,-16,-16,4
-8,-5,7,0,-12,-14,-46,-29,-23,-1
-7,-10,10,0,-9,-25,-36,-43,-17,11
-7,-18,16,5,-22,-17,-37,-43,-26,24
-13,-25,1,4,-23,-25,-14,-36,-26,21
-26,-24,-4,-3,-23,-22,25,-27,-15,9
-36,-23,-8,-11,-31,-11,43,-26,-21,12
-47,-9,-4,-10,-26,-1,34,-15,-25,21
-38,-18,15,-2,-25,-4,25,-12,-24,26
-24,-16,11,-6,-29,4,22,-1,-33,26
-19,-3,14,1,-38,9,32,5,-34,18
-9,-6,11,-12,-18,18,28,20,-16,21
-9,18,-17,20,16,15,55,28,20,26
13,41,19,35,29,0,58,25,35,31
3,17,30,-2,33,4,19,16,21,31
2,15,19,-16,26,2,-8,24,10,15
6,14,8,-12,9,-5,-19,14,5,3
4,8,8,-8,9,-19,-25,0,2,-5
2,17,15,-8,19,-22,-41,-16,4,-17
-16,16,-27,-16,4,-20,-49,-24,-25,-18
-28,15,-22,-30,23,-4,-47,-39,17,-14
-18,10,-50,-21,0,3,-40,-38,-10,-12
-12,13,-110,-13,-5,10,-47,-41,-26,-8
-12,11,-92,-4,-16,0,-32,-47,-33,-6
-10,3,6,-5,-25,1,-31,-35,-18,9
-18,0,-44,9,-25,0,-30,-24,3,15
-27,19,-61,34,-17,6,-23,-27,-1,7
-12,19,32,29,-15,-1,-32,-22,-12,-1
-8,-8,38,3,-12,-13,-24,-14,0,-4
-1,-6,32,-22,-13,-15,-29,-9,-6,-2
-23,-8,-42,-42,-18,-33,-19,12,16,-26
-20,-12,9,-50,-32,-2,31,13,28,-27
-27,-11,21,-52,-30,-5,26,14,31,-37
-27,-5,15,-42,-25,-6,29,7,25,-31
-17,-3,-39,-31,-18,-1,40,15,39,-17
-3,13,-88,-31,12,10,43,-2,31,1
-7,21,20,-12,-1,-6,30,-11,3,7
-2,24,63,-2,14,-9,5,-19,10,22
6,9,47,-8,30,-6,0,-9,1,45
15,1,9,-9,0,-15,-38,3,-17,30
18,2,32,0,6,-29,-57,-13,-3,29
1,-4,35,-1,-8,-45,-45,5,-19,16
-1,17,28,10,-2,-19,14,30,-7,26
-21,9,-44,21,-17,3,33,50,-10,24
-36,-26,-92,-16,-21,14,20,40,-10,3
-59,-42,-101,-28,-25,27,28,8,-29,-21
-67,-54,-49,-26,-35,28,40,-7,-51,-43
-54,-52,-16,-14,-29,14,35,-25,-60,-60
-51,-53,-2,-1,-8,-2,37,-11,-67,-58
0,-19,37,20,-1,16,42,28,-16,-32
8,-9,37,19,5,31,33,62,0,-24
6,-9,30,24,16,31,18,57,8,-19
16,-6,22,26,14,30,-22,47,22,-9
30,11,35,27,13,35,-41,30,16,4
38,22,33,31,25,31,-30,14,7,3
39,23,37,28,32,21,-39,-6,-1,-1
33,37,43,31,36,-1,-47,-3,22,3
3,5,-40,-23,18,12,-2,-44,-5,-20
-10,2,-103,-25,10,5,-14,-46,-11,-26
-17,6,-101,-9,15,-2,-26,-54,-14,-26
-3,10,-29,6,10,-10,-45,-49,-24,-14
7,14,34,9,11,-14,-35,-29,-11,-6
15,17,1,9,0,-17,-23,-12,7,-4
11,14,17,6,3,-13,-25,-12,-3,-20
2,1,36,19,10,-4,-16,9,-7,-35
0,3,28,19,19,-6,-9,14,5,-37
15,13,32,8,17,-33,18,19,10,-32
12,12,15,34,8,-6,13,5,4,-32
2,8,36,31,13,-6,-10,-1,3,-26
8,3,37,32,19,-11,-10,-19,-11,-24
-7,0,16,29,9,-7,17,-31,-33,-49
-12,14,-78,37,-12,8,16,-23,-14,-40
-15,-7,-32,10,0,4,5,-12,-1,-39
-26,-22,7,4,-19,2,-1,-6,-5,-38
-37,-14,0,17,-13,0,2,-7,-20,-46
-37,-9,-3,34,-4,14,28,2,-27,-32
-21,-10,8,25,-13,15,67,32,-19,-13
-7,-2,10,45,-11,10,73,64,11,-5
-1,0,-6,49,-11,8,66,72,37,5
1,5,-90,38,-5,22,55,64,32,10
-6,1,-88,26,-1,21,15,51,22,8
9,7,25,55,-12,22,21,45,48,87
25,13,42,54,-15,28,8,47,54,98
27,-10,22,13,-16,18,1,17,41,80
20,-18,14,-5,-15,15,-1,-3,20,69
15,-17,-3,-8,-29,3,21,-12,16,67
11,-23,-9,-9,-47,-8,21,-18,5,55
18,-29,-55,14,-18,-2,17,-29,-14,33
19,-25,-72,23,-6,-18,-37,-34,-49,3
33,-12,-83,2,-5,-19,-7,-33,-42,15
14,-19,21,-19,-25,-29,-32,-36,-29,-6
-2,-53,9,-19,-22,-18,-20,-7,-12,-11
-8,-39,5,-12,-2,-15,18,11,17,-11
-6,-38,13,-15,4,-14,32,12,19,-5
-3,-31,-12,-6,12,-13,46,0,34,-12
15,-14,30,-12,-10,-13,-20,-25,14,-13
23,-2,-13,-7,-10,-25,-80,-28,-14,-7
12,18,-95,19,-5,-33,-71,-28,-17,0
0,4,20,-27,-8,-27,-22,-30,-63,-19
-5,-7,34,-61,-8,1,64,17,-70,-3
2,-8,30,-57,-6,19,107,32,-44,0
17,27,17,-16,9,26,129,89,-26,25
48,38,41,12,19,24,90,82,1,52
42,50,71,16,19,20,29,26,18,57
38,52,74,3,19,3,-15,-5,2,45
20,38,29,17,27,-15,-28,-23,7,30
31,54,52,8,59,4,-59,4,18,13
18,50,38,8,30,-12,-43,5,11,33
13,50,39,14,30,-20,-43,2,2,45
10,32,39,-4,32,-22,-44,-7,8,36
-10,-11,0,-27,15,6,21,-3,-22,10
-6,-6,-4,-15,12,21,28,0,-15,1
-8,-1,5,-14,10,9,21,-16,-2,-3
1,-4,3,-34,-1,-4,-44,-7,-16,13
13,-1,-3,-25,4,-21,-28,-22,-3,30
19,9,-14,-6,3,-10,-57,-39,-13,33
6,-28,0,-17,8,-15,-43,-41,-30,-8
4,-34,10,-29,-2,-14,-43,-30,-39,-15
11,-30,5,-30,-6,-12,-29,-24,-36,-20
9,-17,7,-3,-4,0,20,3,-11,13
18,10,0,-3,11,-1,45,10,44,31
16,2,-2,-8,8,-5,19,11,49,29
19,4,7,-3,8,-9,2,6,36,40
21,5,14,1,-14,2,18,-9,-17,28
-2,10,15,13,-17,2,-28,-9,-41,23
-28,-1,9,-24,4,6,-36,-31,-32,27
-22,-9,4,-31,11,4,-38,-34,-33,26
-39,16,-37,6,5,6,7,-52,-53,-30
-50,14,5,3,5,31,-18,-44,-50,-96
-74,-12,-5,-5,-24,30,0,-14,-54,-151
-47,1,-2,-14,-15,25,23,25,-13,-107
-20,19,7,-23,-9,33,56,58,26,-54
14,29,-4,5,-12,28,16,75,63,54
15,4,15,3,-19,3,-23,46,37,74
14,5,9,-9,-17,-8,-29,14,16,-1
26,6,6,-13,-11,0,-11,28,19,-9
26,4,12,-11,-17,4,-18,23,23,-12
17,3,4,-7,-15,0,-21,4,3,-19
18,-1,19,-2,-16,-4,-19,0,-4,-15
6,7,21,5,-6,-9,-9,-9,0,-12
-5,11,7,-4,-20,-24,-25,-16,-7,-16
-5,5,1,-2,-22,-17,-20,-17,-5,-26
1,-5,-10,12,-12,-43,-95,-46,1,-5
7,7,17,19,-3,-46,-104,-53,-17,-2
17,5,10,15,-10,-34,-95,-46,-22,0
13,-25,-11,-12,-14,-47,-85,-43,-20,-20
0,-45,-15,-10,-16,-48,-71,-39,-25,-24
-18,-40,-15,-10,-6,-31,-33,-37,-16,-13
-41,-47,-36,-19,-4,-10,2,-33,-15,-19
-29,-53,-18,-18,2,3,58,-27,-5,-26
-30,-49,-14,-21,5,11,112,-15,-26,-31
-34,-40,-21,-5,7,21,117,9,-8,-21
-30,-20,-6,-4,3,23,96,32,15,-20
-16,-6,-12,0,2,16,75,47,15,-17
-15,-8,-49,6,12,21,74,73,28,1
1,18,9,12,9,30,21,79,42,17
8,29,25,21,26,13,3,53,38,16
27,38,27,43,12,16,-20,38,54,34
29,12,19,12,-3,9,-1,26,66,8
22,10,-2,19,13,-7,-45,-7,45,5
14,7,13,12,17,-14,-27,16,78,6
0,10,22,12,14,-12,8,29,85,11
5,0,23,0,1,29,56,3,33,-14
-7,-5,18,-12,2,20,51,3,14,-14
6,-2,10,-8,-6,9,58,6,28,13
-7,-2,-30,6,4,23,25,-3,19,-13
1,-12,-12,15,16,28,-2,-3,5,-5
8,-13,1,3,0,16,-33,-11,1,10
20,-8,14,4,-8,-5,-18,-24,14,14
29,1,6,6,3,-14,-43,-12,21,13
32,12,-16,18,23,-21,-30,4,14,13
36,34,-50,24,25,-22,-8,7,3,19
29,14,-59,5,23,-20,-3,5,0,0
16,11,11,7,29,-12,8,-10,9,-3
12,11,17,9,33,-11,17,-21,16,-4
13,2,14,6,41,-4,19,-24,17,-5
-3,-21,9,0,24,3,19,-32,-4,-11
-13,-31,-3,8,16,1,25,-36,-20,-18
-26,-46,-9,-16,15,21,-6,-57,-34,-26
-26,-44,15,-16,4,18,-14,-42,-13,-2
-18,-38,30,-15,12,12,-1,-35,-3,0
-8,-36,25,-12,19,14,-4,-22,-9,5
-5,-23,20,-15,-8,22,-21,7,-5,4
-9,-23,4,-19,-6,21,-32,14,0,-11
18,11,-55,-27,-12,13,25,29,19,-13
22,19,-11,-19,-3,21,41,21,23,1
29,23,28,-12,0,17,42,19,29,4
15,35,24,-1,12,14,26,18,33,11
11,30,31,15,6,20,12,42,38,19
11,29,27,14,3,27,36,57,33,21
17,24,24,-2,-13,21,38,62,45,18
31,36,20,10,1,29,17,59,54,22
29,35,24,8,20,40,19,39,54,23
18,19,32,4,11,39,31,26,40,27
10,31,27,-1,27,42,41,12,34,16
5,38,30,-1,54,27,35,-6,29,6
0,12,-15,-22,32,25,8,-20,-13,14
-5,13,-99,-14,10,8,-36,-36,-27,15
-20,18,-25,-9,3,17,-82,-34,-30,14
-20,7,17,4,8,3,-84,-46,-27,11
-1,10,16,9,8,-10,-95,-58,-30,10
4,12,22,0,3,-23,-90,-65,-30,2
7,15,18,5,-20,-29,-111,-59,-38,-10
-5,9,0,-4,-20,-24,-121,-43,-22,-17
-1,-3,-40,-20,-16,-25,-101,-29,-30,-34
-3,-21,-158,-21,-16,-11,-53,-4,-46,-53
-6,-33,-195,-15,-28,-3,5,28,-22,-52
4,-32,-163,-2,-27,-4,39,50,27,-19
18,-15,-140,3,-15,2,55,31,68,6
22,24,47,44,-12,26,63,13,24,7
18,-5,4,32,0,31,61,13,26,-5
16,-8,-91,29,14,43,63,12,11,-11
14,-4,-16,32,20,30,64,9,11,-17
-2,3,72,35,19,27,59,13,7,-16
-5,7,87,21,18,32,54,12,5,-17
12,9,83,24,16,16,31,9,2,-18
13,10,45,20,15,11,1,12,25,-9
14,6,62,11,10,0,-17,19,43,8
13,-1,57,5,-2,1,-23,36,43,14
9,3,54,8,-6,-4,-18,25,41,3
16,6,69,4,-18,-6,-21,-8,2,9
9,12,69,11,-4,-3,-16,-22,-6,3
-5,24,60,18,-5,-17,-3,-40,-23,5
-9,38,24,30,-12,-21,1,-58,-22,5
-4,6,34,19,-7,-31,-3,-75,-44,-31
-15,-7,34,13,-11,-34,-12,-66,-50,-33
-20,-8,17,7,-18,-25,-8,-49,-28,-21
-18,-11,-28,4,-16,0,-12,-28,-32,-14
-7,-13,-127,-4,-18,2,6,-24,-20,-18
-5,-5,-166,5,-9,-2,5,-10,-15,-3
-7,-5,-139,19,-9,9,7,5,-31,0
-10,-24,25,-7,7,6,-9,24,-32,-15
-12,-13,50,-4,-1,15,-13,25,-5,-1
-13,-13,39,-2,-10,8,-13,19,-11,5
-6,-22,26,-4,-19,3,-19,18,2,41
0,-9,34,0,4,0,-48,0,-5,65
10,14,44,4,13,5,-79,-25,-8,54
10,9,42,-8,4,3,-95,-46,-3,48
4,-3,46,-12,0,12,-71,-37,1,30
-22,-6,41,-5,7,13,38,-34,-40,0
-15,-1,48,-13,6,19,79,-20,-18,10
-23,-13,45,-17,20,27,77,22,-7,21
-20,-11,30,-18,24,40,65,52,-5,42
-10,36,39,14,26,40,64,63,3,77
-9,44,49,25,34,30,61,69,18,76
11,25,47,18,33,40,30,81,34,77
25,34,43,17,19,21,22,72,40,89
-4,44,29,14,24,-6,8,29,8,76
9,32,24,14,27,-4,-5,17,5,69
7,28,33,4,19,3,-27,8,3,59
-6,15,29,-7,10,-4,-36,13,3,79
-10,4,16,-12,3,-14,-44,5,-12,105
-4,3,8,-18,6,-19,-45,-1,2,88
-11,-22,0,-32,5,-23,-58,-7,-20,49
-11,-34,-4,-37,5,-15,-60,-16,-30,37
-15,-33,-17,-42,0,-9,-25,-18,-22,43
-17,-31,-14,-40,-8,-6,-6,3,-21,44
-15,-17,-14,-18,-8,-2,20,28,-2,46
0,-16,-10,-17,-9,0,42,41,6,51
13,-15,-31,-10,0,-11,39,28,14,55
11,-14,-25,-10,3,-18,6,24,17,54
11,-16,-87,-13,9,-23,-28,17,12,48
1,-20,-152,-16,2,-17,-12,11,-2,42
-7,-19,-135,-12,0,-17,20,9,0,22
-20,-10,-22,-2,-3,-23,23,8,-22,29
-26,0,34,2,2,-12,28,7,-23,26
-25,-23,24,-24,2,-15,13,16,-13,6
-29,1,28,-22,13,-2,-3,25,34,-12
-23,8,25,-8,0,7,-2,8,19,-25
-16,-1,29,-6,6,1,12,-7,26,-21
-5,-2,31,10,7,4,-19,-7,-4,-51
-11,12,38,20,8,-1,-49,-17,-29,-68
-16,28,40,29,16,-6,-63,-41,-27,-70
-13,38,34,36,14,-21,-52,-49,-7,-40
5,34,37,48,6,-20,-38,-46,-21,-18
7,28,55,44,4,-11,-36,-41,-43,-27
-12,45,52,54,13,-10,-3,-53,-56,-66
-31,43,35,46,5,-3,2,-61,-77,-88
-35,4,-5,9,0,-10,-34,-60,-69,-58
-29,-10,-84,3,-3,-19,-27,-54,-46,-36
-5,-8,-23,-2,-9,-11,-34,-44,-24,-50
9,-16,20,-5,-3,-13,-56,-30,-19,-52
19,-8,11,0,-8,-26,-69,-26,0,-41
29,2,14,10,-10,-26,-65,-19,21,-31
21,10,11,12,-22,-38,-60,-28,19,-32
8,-8,4,-11,-29,-56,-42,-38,16,-36
-7,-13,-12,-21,-21,-53,-18,-37,-7,-30
-21,-32,-36,-21,-32,-39,65,-30,-49,-72
-15,-35,-46,-23,-32,-22,96,-7,-48,-74
-8,-36,-58,-28,-27,-8,95,8,-29,-81
-16,-20,-57,-23,-17,8,99,25,-23,-80
-5,-9,-30,-10,7,33,112,34,-36,-63
7,7,-14,1,24,35,91,35,-33,-72
33,44,20,39,56,43,68,41,40,-63
53,56,35,53,64,27,54,40,88,-48
80,80,42,53,81,7,36,18,130,-24
81,92,44,68,88,-1,13,-3,134,-14
61,73,36,53,47,-6,0,-12,73,-23
34,61,27,52,16,-11,-13,-28,10,-28
2,70,-15,52,19,-12,0,-35,35,-35
-19,27,-4,11,-9,-13,3,-26,19,-47
-32,5,-14,-10,-28,-10,8,-21,1,-37
-46,-9,-16,-27,-28,-15,-16,-17,9,-43
-31,-12,-37,-20,-29,-20,-47,-15,21,-21
-31,-6,-54,-27,-36,-24,-45,-18,11,-3
-45,-5,-49,-32,-45,-10,-15,-13,13,-9
-53,-3,-21,-13,-26,-3,0,8,6,-32
-52,-6,-26,-10,-10,0,24,33,-18,-31
-19,28,12,9,15,33,48,7,28,-44
-28,16,27,16,11,22,7,-13,-8,-40
-6,15,16,16,10,21,-27,-38,3,-44
-4,-11,-9,-18,-3,2,-66,-38,-1,-26
-24,-35,-23,-29,-29,-19,-56,-38,-16,11
-45,-40,-40,-39,-42,-19,-54,-27,-28,25
-42,-50,-21,-48,-47,-27,-68,-6,-25,9
-26,-38,-18,-37,-34,-5,-31,9,5,11
-23,-9,-2,-9,-25,17,13,26,13,14
-10,-7,7,-20,-2,21,58,78,24,-1
22,-5,8,-17,9,38,40,77,33,-17
28,7,18,-10,1,62,53,58,27,-10
24,22,17,0,-4,56,37,24,11,2
8,19,21,-1,8,48,35,14,4,-2
7,7,-17,-7,7,44,38,12,4,-2
7,-2,0,-1,2,40,19,10,0,1
3,-6,17,-1,4,43,20,-5,5,-3
0,2,24,-3,-7,46,26,3,0,11
0,25,24,-9,-12,31,37,-4,23,41
3,31,9,-11,0,25,42,-2,27,60
18,31,-2,-1,-6,14,35,1,10,57
28,25,-60,10,-10,18,11,2,3,42
27,2,-13,-14,-10,0,-25,6,0,47
40,8,10,-14,-6,7,-36,0,7,72
37,8,-27,-3,0,-4,-29,5,16,77
22,4,-87,10,2,8,-23,11,16,46
-81,5,29,31,24,11,-23,-22,-46,-115
-71,1,8,18,12,0,-55,-46,-62,-67
-54,-1,-40,2,1,-14,-69,-57,-69,-1
-35,-13,-10,0,-4,-9,-71,-52,-68,25
-1,-18,-1,-11,-11,-15,-43,-55,-68,30
-27,-36,-19,-36,-24,-46,-65,-64,-61,-17
-35,-37,-20,-42,-11,-32,-15,-2,-58,-21
-29,-32,-44,-39,-11,-29,0,24,-44,-13
-13,-17,-36,-23,-13,-22,20,42,-20,-9
5,-5,-7,-13,0,-13,30,42,6,-8
15,-3,-8,-10,6,1,67,39,24,-9
15,-9,-59,-7,11,-2,55,32,21,0
15,-6,-2,3,8,-5,23,31,30,-1
10,3,20,2,-1,-26,-23,11,-2,-16
-9,-42,8,-29,7,-28,-39,-23,-5,-82
-9,-33,-12,-42,-22,-41,-39,-36,4,-57
-25,-7,-10,-33,-28,-41,-32,-40,46,-45
-31,-19,-17,-31,-26,-33,-33,-31,13,-54
-34,-22,-4,-33,-16,-23,-30,-28,-16,-42
-39,-21,4,-28,-1,-13,-22,-26,-15,-40
-12,-10,5,-20,6,8,0,-15,-32,-46
-10,-3,-6,-11,18,54,197,43,-22,-47
-2,-11,-44,-20,19,79,249,86,-4,-35
-8,-6,-71,-17,30,99,223,118,25,-18
3,14,-22,-1,25,100,172,125,58,-11
26,26,18,15,30,86,100,105,70,13
38,67,23,24,45,30,-56,28,59,59
56,80,92,34,55,23,-99,16,71,70
73,91,102,40,55,-8,-142,-20,73,78
59,80,87,44,41,-34,-153,-56,41,70
38,63,72,23,31,-48,-105,-69,18,44
38,46,54,31,14,-43,-72,-59,36,47
21,23,34,14,-2,-34,-84,-48,42,31
-12,0,9,1,8,-25,-65,-26,2,-35
-35,-38,15,-8,5,-11,-22,1,-54,-57
-16,-23,21,-2,12,-8,-21,7,-62,-47
5,-19,-15,-7,14,-13,-13,15,-57,-47
10,-32,8,-9,1,-8,-15,20,-49,-43
14,-38,3,-11,0,1,3,18,-26,-19
24,-44,11,-11,6,-1,36,22,-6,4
29,-13,17,17,26,1,71,-21,11,-9
24,5,19,18,28,3,68,-23,28,-15
16,36,27,44,34,-4,64,-15,35,9
22,17,20,28,26,12,64,-6,33,21
20,-9,7,7,12,19,55,21,42,4
11,-24,-27,-13,-10,13,30,18,22,-20
6,-25,-57,-11,-14,5,19,13,25,-19
8,-13,-53,-5,-9,1,7,3,26,-26
18,4,-65,7,-9,3,3,-17,9,-26
29,3,-74,4,-2,-6,-8,-27,4,-45
27,-1,-84,-6,0,-24,-53,-24,-5,-52
4,-5,48,0,5,-21,-60,-21,37,-6
0,-10,39,1,-6,-22,-37,-17,31,12
-7,-26,37,3,-26,-24,-54,-12,-6,41
-39,-42,31,-14,-22,-28,-68,-23,-36,33
-64,-69,12,-41,-28,-25,-53,-24,-57,-14
-31,-43,-3,-41,-18,-9,2,-10,-27,-61
-42,-41,10,-45,-20,-5,37,3,-11,-59
-38,-49,9,-32,-17,2,49,9,-5,-53
-28,-45,0,-19,-19,11,54,23,-6,-45
4,-2,-9,17,-14,11,25,40,36,24
27,-2,-49,7,-22,-2,-8,41,31,18
43,0,20,5,-8,-1,-13,26,55,19
63,20,47,17,12,1,-14,21,78,18
55,28,42,21,28,5,-11,13,67,-9
28,5,29,14,11,-8,-11,2,-1,-51
10,-15,22,4,5,-15,4,-11,-20,-60
-23,-6,-112,2,0,0,-5,-35,-22,-20
-5,-1,-44,-4,2,-3,1,-42,-40,-3
0,-3,14,-12,4,-8,14,-36,-70,-16
-5,-4,12,-19,7,6,21,-33,-74,-42
-9,-10,2,-18,12,13,2,-13,-50,-36
-14,-16,10,-4,20,23,23,41,12,-36
-11,0,-6,-15,31,35,18,37,32,-29
31,13,1,-11,8,15,-8,21,35,4
34,13,6,-6,11,19,-6,16,11,6
19,42,19,29,18,7,-5,20,22,29
16,39,21,25,25,-4,-18,8,30,20
16,3,8,0,15,0,-42,0,14,9
12,-25,-14,-9,6,7,-17,15,-1,8
-11,-61,-49,-7,12,29,26,27,22,7
-35,-72,-88,-2,22,39,69,39,21,1
-12,22,-4,-8,0,13,26,-18,-39,-39
12,73,-6,-9,-28,-10,-16,-45,-59,-45
-2,42,-54,-11,-28,1,-23,-38,-26,-34
-6,35,-34,-11,-7,-1,-21,-31,4,-32
1,22,-6,-7,-21,0,-8,-18,-12,-25
7,12,-64,-1,-30,3,-7,-18,-27,39
3,6,-110,0,-40,-2,-16,-12,-29,39
7,10,0,5,-40,-10,-11,-3,-26,21
9,39,38,26,-28,-17,-11,7,-7,19
6,8,24,20,-34,-23,-13,1,-9,17
0,-18,22,11,-23,-14,-23,19,6,7
-6,-1,29,27,17,10,2,23,35,-28
2,8,-43,36,39,-8,8,-1,70,-75
0,-2,5,21,20,-15,0,2,42,-59
-10,-20,-41,1,0,-13,-4,2,6,-58
-36,-58,-58,6,9,-3,9,16,4,-36
-16,-60,2,8,-15,12,2,20,-25,22
-20,-84,-7,7,-12,32,24,26,-15,72
-43,-89,-11,-7,-12,30,24,30,-28,73
21,72,57,-9,-39,-31,-53,-55,-106,16
30,96,70,6,-47,-66,-80,-86,-131,-13
11,32,29,-2,-44,-46,-52,-49,-97,-26
12,14,17,-9,-32,-33,-1,-11,-55,-1
5,6,-15,-5,-31,-33,24,-12,-57,19
-14,-20,-24,-13,-27,-38,20,-11,-70,10
-10,-31,15,-24,-25,-36,-2,-12,-70,21
-2,-32,20,-6,-20,-29,-38,-13,-74,14
-12,-15,34,4,-25,-21,-26,-9,-61,-3
-27,2,28,10,-25,-8,-12,-13,-44,-21
-47,-11,23,-7,-27,-7,-12,-19,-29,-29
-41,-21,13,-20,-23,-7,5,-16,-11,-21
-32,-26,15,-27,-21,-11,-24,-16,0,-14
-33,-32,25,-27,-19,-16,-25,-11,-20,1
-39,-39,6,-26,-21,-8,-28,-10,-31,8
-44,-26,1,-20,-16,-4,-21,-10,-37,17
-47,-6,1,10,4,-7,-4,-7,-26,39
-27,-7,20,-3,-11,-10,-14,-5,-18,30
5,6,10,-2,-15,-8,-1,7,-8,33
15,1,5,0,-8,-7,-2,6,-4,27
10,0,12,0,8,-4,-16,5,1,17
19,7,8,5,1,-7,-15,0,5,22
28,10,22,14,7,-18,-16,-1,-2,29
35,4,15,29,15,-13,-7,-5,-16,18
30,-5,-26,21,7,-6,-12,7,-17,-4
19,-12,-104,5,-3,0,-25,12,-10,-18
17,-9,-114,5,2,-4,-25,11,-10,-15
10,-16,-143,-10,1,-14,-11,7,-11,-12
4,-2,-55,-19,-2,-15,-22,5,-7,8
-16,-11,18,-7,-9,-1,-14,9,-2,24
-31,-23,-9,9,-5,8,10,22,0,30
-23,-4,19,20,-13,21,36,22,-2,54
-9,0,-45,-2,-14,21,54,17,6,39
36,8,-125,-13,-4,29,54,18,14,40
61,18,-47,-10,9,17,48,9,14,43
61,18,30,-5,19,4,29,-4,11,47
42,11,-74,-9,3,13,32,0,5,31
37,11,28,-1,8,0,24,4,17,41
40,12,49,-11,16,8,10,2,24,47
31,10,48,0,33,13,1,4,20,54
15,-4,44,3,21,0,-19,5,21,45
7,-21,42,3,11,-13,-8,-10,19,19
1,-22,37,1,7,-9,-7,-18,5,5
-2,-9,-6,1,-7,0,-5,-26,-3,3
2,-2,-84,-1,-19,13,22,-22,-15,10
-2,13,-3,3,-25,15,38,-25,-14,6
-13,2,44,-1,-17,17,34,-34,-14,-8
-17,3,-3,5,-6,18,14,-36,-26,-13
-15,7,-94,13,-3,25,29,-35,-30,12
-8,6,-39,24,5,21,28,-27,-19,64
-3,6,54,33,15,31,29,1,-16,80
1,10,64,37,31,31,44,22,-7,66
3,28,54,58,43,44,44,22,-2,55
8,23,35,51,38,35,47,32,-1,44
24,27,70,30,42,26,30,26,13,35
21,39,63,22,42,13,8,14,15,38
4,35,64,33,35,16,6,10,23,26
-10,22,54,34,40,24,-13,-2,14,7
-21,12,50,14,30,13,-39,-22,12,-12
-19,9,50,14,24,9,-49,-30,0,-23
-32,-2,49,20,14,0,-76,-43,-12,-39
-37,-14,31,24,8,9,-90,-54,-18,-42
-33,-20,27,29,10,-10,-64,-60,-30,-38
-40,-10,23,31,12,-12,-45,-50,-30,-42
-39,7,15,31,8,-12,-35,-35,-6,-14
-28,12,9,31,5,-15,-35,-22,12,9
-24,4,35,34,11,0,-16,-13,20,46
-17,14,44,45,4,1,-20,-21,24,90
-12,11,20,53,0,-5,-14,-39,10,81
-1,-4,-2,37,2,-8,-31,-40,0,51
3,0,0,32,12,-14,-41,-22,0,22
16,4,-2,34,8,-14,-21,-5,3,-9
25,11,3,27,2,-18,0,7,12,-12
25,-4,3,10,2,-13,-5,13,34,0
16,-2,-13,7,11,0,12,16,37,-6
-13,4,-30,13,19,9,54,25,21,-12
-60,-10,-18,15,16,22,84,18,15,-37
-74,-13,2,18,24,32,98,24,2,-79
-52,-18,-25,17,22,41,88,50,-1,-100
-15,-11,-107,12,19,34,77,61,11,-82
26,1,-53,17,11,42,69,57,49,-33
40,23,6,32,16,35,60,68,92,13
59,34,9,29,13,7,44,67,113,68
59,11,-5,11,6,1,16,35,77,77
48,-2,-4,16,22,2,-7,18,49,33
36,-7,-24,11,16,1,-13,8,30,-6
23,-22,-39,-2,-2,-16,-7,15,42,-7
22,-34,-78,-21,-3,-13,-27,19,41,32
66,-18,-73,-19,-25,-45,-23,18,36,41
57,6,-73,0,-21,-37,-29,-1,20,49
44,19,-10,4,-13,-32,-47,-13,-22,36
12,30,0,29,0,-27,-34,-8,-48,-8
-24,22,34,38,11,4,5,6,-51,-55
-32,20,58,34,15,28,37,16,-41,-78
-36,22,41,20,20,36,47,10,-30,-91
-34,21,36,7,25,46,43,12,-15,-81
-10,23,28,3,5,19,26,6,-22,-58
10,24,-31,4,0,5,3,-8,-22,-55
31,17,-130,1,12,-2,-2,-14,-14,-41
47,31,-113,-1,17,2,0,-2,5,-5
38,19,9,4,11,-4,-7,-1,13,11
28,13,47,13,0,0,-18,-15,-16,8
43,19,22,21,4,-7,-12,-38,-34,15
25,24,47,32,-5,-3,12,-36,-36,4
-18,10,31,27,-23,0,11,-5,-38,-36
-58,-37,6,-20,-24,-5,-16,7,-35,-53
-63,-59,3,-29,-16,8,2,22,-17,-43
-49,-41,23,-21,14,25,-7,20,0,24
-13,-23,12,-30,6,2,-21,-2,16,16
10,4,18,-23,4,-5,-40,-23,12,7
40,11,20,-10,-6,-16,-84,-50,3,41
61,4,19,-15,-17,-35,-116,-61,7,47
48,5,21,-21,-7,-41,-119,-41,7,51
39,-4,-39,-26,-9,-43,-114,-29,11,49
26,-10,-12,-19,-8,-40,-92,-40,28,48
0,-19,19,-26,0,-39,-45,-46,10,22
-21,-25,8,-17,-4,-13,17,12,-23,-87
-40,-27,3,-23,1,7,33,38,-28,-98
-53,-35,-4,-34,5,18,78,48,-44,-87
-34,-28,-3,-40,-3,4,99,64,-19,-41
3,0,9,-40,1,0,59,64,22,-8
10,3,19,-26,1,10,22,52,38,-9
-7,-4,19,-19,-2,18,49,60,40,-13
6,3,-27,-19,-3,16,80,56,43,-13
13,23,-16,-11,-3,17,79,48,39,0
10,27,23,-3,-4,25,35,44,51,-1
14,0,8,-10,-12,22,19,29,30,-20
15,-8,-39,-13,-27,11,1,20,15,-4
20,-5,-7,-8,-33,-5,-17,-2,11,35
29,4,-9,-15,-42,-7,-8,-13,15,66
26,30,-6,-15,-36,-18,-23,-11,33,88
34,26,0,-17,-27,-24,-46,0,50,87
49,15,-19,-33,-25,-13,-48,0,33,88
63,17,-25,-24,-5,-14,-23,16,72,92
51,25,-40,-10,17,-5,11,27,92,78
35,26,-93,-1,33,2,29,32,80,72
-4,40,-40,17,49,25,51,41,32,10
-59,18,-1,5,45,20,70,41,-21,-117
-85,1,-35,-10,22,12,73,29,-10,-199
-67,-1,-117,-17,18,7,70,26,17,-148
-36,7,-146,-9,18,21,57,12,16,-67
-18,5,-41,-8,20,35,23,-20,4,-27
-17,-11,36,-8,15,21,2,-40,-15,-31
-15,-29,35,-16,-7,30,-19,-47,-55,-29
-3,-17,-1,0,-14,19,-33,-40,-52,-10
0,-4,-108,7,-18,7,-45,-29,-38,-6
-7,2,-96,12,-38,6,-53,-21,-51,7
6,-22,-4,-7,-44,-4,-44,-30,-55,-1
20,-21,41,3,-23,-16,-42,-26,-30,6
34,14,42,17,5,-9,-23,-21,19,5
36,11,28,14,3,-14,-10,-9,24,-1
31,17,40,18,16,-4,-10,-1,65,0
32,15,27,18,24,-5,0,-12,63,7
9,2,4,7,15,1,-4,-29,0,-2
-20,-1,-8,6,6,2,17,-39,-19,-14
-60,-18,-2,6,5,-5,45,-44,-62,-33
-56,-21,1,-1,5,-10,64,-40,-48,-41
-37,-17,0,-3,-6,-14,49,-39,-26,-23
-22,2,-9,7,-11,-16,12,-37,-25,-12
-7,2,-34,6,-13,-12,-8,-23,-33,-7
-12,14,1,17,-17,-7,8,-5,-17,2
-16,19,19,9,-27,-10,15,-3,-29,22
-8,9,15,-16,-20,-19,19,-12,11,38
-9,-3,11,-30,-15,-26,-11,-30,-4,43
-12,3,26,-26,-20,-26,-44,-25,-21,25
-2,2,27,-36,-22,-37,-65,-8,-38,25
-6,13,18,-39,-25,-28,-31,-1,-24,22
-1,39,26,-18,-7,3,-19,-6,10,17
5,20,25,-14,-18,2,-30,2,1,16
11,13,6,-21,-11,-13,-27,21,17,4
-4,7,15,-23,7,-6,-5,12,33,-20
-1,0,20,-19,5,14,30,0,21,-38
6,14,20,-16,16,21,55,7,32,-35
4,10,34,-13,3,27,58,3,18,-36
8,17,33,-5,10,27,75,2,37,-43
3,29,16,-8,-2,28,87,5,22,-26
16,48,-5,-1,13,28,76,0,31,-20
14,31,24,2,0,19,10,-14,-2,-17
26,45,50,11,5,28,-17,-19,23,-2
29,29,39,8,-4,14,-51,-31,10,-3
28,13,24,-3,-16,1,-84,-52,-1,-4
22,-2,32,-13,-23,-2,-76,-69,-25,-12
30,-10,32,6,-13,-7,-71,-82,-29,-20
27,7,38,34,-24,-9,-72,-72,-66,-8
-1,-3,8,23,-29,-5,-52,-55,-69,-19
-20,-24,-62,-11,-45,-4,-5,-3,-45,-29
-26,-28,-83,-24,-52,25,59,55,-7,-10
-39,-20,-27,-14,-26,39,85,91,22,-3
-63,-30,-31,-2,-14,41,88,92,4,-24
-46,-29,-30,-5,-16,44,91,79,1,-40
-17,-17,-6,10,-29,21,67,55,-8,-39
10,-15,-11,4,-25,14,42,37,-11,-26
33,-10,4,-7,-26,11,8,22,10,11
59,10,12,-8,-27,-8,0,-3,32,75
68,24,-65,-8,-23,-3,-6,-6,20,103
42,13,-82,-16,-4,-10,10,9,4,75
2,-10,5,-12,-3,7,15,31,11,24
-27,-24,25,-8,-5,8,14,31,-5,-13
-19,8,42,8,13,0,-9,-4,-36,-38
2,16,52,-5,5,-12,-49,-27,-32,-26
8,15,26,-15,0,-21,-82,-43,-21,12
0,13,13,-13,-7,-16,-95,-42,-23,26
-8,7,2,-28,0,-19,-86,-48,-39,2
-14,12,-49,-49,-12,-12,-90,-44,-34,-7
-27,18,-50,-32,-22,0,-80,-24,-30,-5
-35,34,-55,-6,-11,0,-54,-18,-31,-14
-54,13,-30,-8,5,2,-18,6,-32,-48
-60,-21,-12,-30,3,12,6,33,-33,-80
-44,-31,-6,-36,7,37,35,37,-13,-65
-24,-28,5,-23,12,29,44,40,3,-38
-34,-17,-3,-9,17,19,58,46,20,-22
-34,-3,-3,-14,14,34,71,46,22,-12
-19,9,24,-11,20,30,44,31,14,-11
-21,8,10,-8,24,32,25,32,38,-23
-27,4,5,-12,25,32,24,21,61,-34
-23,-3,20,-13,28,8,19,-13,14,-41
-7,8,12,-9,25,8,-23,-25,0,-31
9,7,19,10,29,-14,-45,-20,-4,-20
15,30,33,34,34,-9,-31,-15,15,-9
20,32,31,31,19,-19,-45,-18,33,-20
13,18,28,21,16,-13,-46,-29,11,-51
5,15,24,26,33,6,-17,-42,-16,-65
7,8,-28,19,36,8,-19,-32,-15,-25
13,2,-129,15,33,-11,-10,-11,0,16
18,6,-143,16,25,-13,3,-3,7,47
18,25,15,17,8,-9,32,12,0,66
0,2,10,3,0,-18,-20,3,-22,-17
0,-4,-5,-4,-25,-21,-62,11,-29,-62
20,16,6,4,-23,-23,-44,37,7,4
40,32,4,2,-24,-25,-35,38,56,79
58,33,-36,-1,-15,-27,-37,49,44,109
54,39,-12,2,-23,-3,-16,42,25,105
41,47,-21,18,-21,5,12,32,33,87
22,25,-16,12,-6,16,24,13,22,55
11,10,41,20,12,32,26,13,-3,-2
-21,8,49,42,29,38,34,3,-43,-87
-35,6,45,36,39,40,48,6,-51,-154
-39,5,44,31,30,36,28,-11,-57,-151
-52,-6,28,26,9,14,-6,-39,-51,-144
-24,-10,29,15,0,-3,-30,-37,-32,-107
2,11,31,25,7,-4,-23,-27,-16,-33
0,-14,18,8,5,-14,-39,-18,-19,-9
-9,-22,13,0,-4,-18,-21,-13,-26,-27
-9,-28,-30,-3,-3,-23,7,7,-37,-37
7,-34,-91,10,11,-2,8,29,-35,-35
16,-14,-21,24,10,-8,7,12,-42,-25
30,-11,-13,26,0,10,24,-12,-39,8
28,-4,16,26,4,7,43,-13,-23,27
15,0,36,22,23,14,55,13,-3,24
16,-1,16,18,28,36,73,43,11,22
25,-2,11,0,27,30,65,51,20,31
34,-8,23,11,33,27,30,64,40,45
20,1,24,17,51,40,2,58,54,46
1,5,36,22,56,42,-1,38,45,31
-14,9,27,20,36,16,-5,10,4,15
-10,20,30,18,24,8,10,4,-10,17
3,33,-14,14,20,11,-18,-15,-19,30
10,20,0,8,23,-2,-28,-20,-22,38
5,5,29,-7,18,3,-23,-8,-26,13
3,4,15,-7,0,3,3,0,-26,25
9,10,7,-8,2,-6,24,8,-8,47
-1,24,21,-23,8,6,32,5,-19,40
-18,31,29,-22,0,3,54,12,-12,33
-11,25,19,-4,-3,3,53,26,4,14
1,11,22,-17,7,15,33,10,7,-11
6,8,14,-22,-2,13,22,-9,12,-19
12,10,17,-26,-2,-3,23,-20,-2,-19
12,13,28,-39,0,9,29,-18,-15,-8
-1,16,27,-31,-5,0,12,-18,-11,-19
-8,20,24,-12,-23,-12,0,-29,-14,-19
1,20,3,-14,-21,-9,-29,-43,-26,12
-3,15,6,-29,-26,-25,-71,-42,-36,32
-21,7,3,-32,-20,-21,-58,-45,-35,9
-26,5,-13,-27,-24,-16,-21,-28,-22,4
-17,13,0,-28,-17,4,-6,-19,-12,19
-14,10,6,-21,-13,-9,-7,-15,-9,23
-26,-7,3,-8,-8,-4,-12,-6,-26,-5
-29,-2,5,12,3,19,29,3,-31,-20
-42,-32,-34,5,-3,22,64,23,-10,-20
-50,-96,-120,-11,0,31,99,72,38,-7
-28,-41,-106,4,-2,23,79,71,27,-2
5,36,24,11,-16,1,46,27,2,1
5,-10,36,7,1,22,67,37,32,16
-19,-77,7,9,16,49,100,65,81,11
1,29,50,32,-1,18,50,13,41,-23
57,124,76,33,-21,-26,-3,-61,-8,-16
43,78,44,7,-16,-32,-18,-73,-10,-20
14,11,9,-2,-13,-12,23,-43,-22,-12
24,5,12,-1,-9,7,25,-36,-11,1
26,-5,0,-5,-29,-5,21,-33,-2,11
30,-18,-3,-13,-26,-8,20,-18,-3,20
12,-23,-26,-17,-14,-16,22,-11,10,16
10,-3,-76,-18,-8,-2,14,-11,10,10
16,6,-51,-11,-11,-13,-4,-17,14,17
19,13,5,-17,-12,-4,-6,-10,19,36
9,18,4,-15,-20,-10,0,-4,25,54
3,24,0,-3,-15,-5,-9,-11,21,54
-2,30,7,22,-5,-26,-20,-34,15,57
-5,23,-4,-3,-14,-27,-56,-53,2,38
-4,-10,-2,-21,-15,-24,-63,-60,-6,32
5,-11,-10,-30,-26,-12,-70,-49,4,38
-5,3,-21,-23,-23,-7,-35,-48,19,17
-1,4,-64,-24,-23,2,-33,-53,-1,10
1,-1,-115,-27,-26,0,0,-48,-4,20
4,-18,-35,-11,-23,0,-8,-19,3,42
-4,-17,-32,-14,5,-6,-3,-1,29,40
-28,-16,-44,-10,21,11,-10,6,-3,-8
-37,-17,-51,-21,10,22,7,28,-4,-46
-40,-13,-88,-13,14,27,52,43,13,-66
-58,-9,3,7,30,47,65,21,-19,-92
-63,-5,5,9,26,62,50,0,-41,-99
-45,-3,-66,7,6,54,34,-20,-48,-78
-30,-9,-138,0,-5,53,16,-29,-54,-73
-10,-7,-128,-2,-7,27,5,-22,-43,-74
-12,-6,-14,-2,-5,14,4,-15,-25,-64
-20,-2,59,13,10,25,18,9,-16,-54
-36,5,79,17,18,46,61,25,4,-42
-11,10,80,18,6,53,88,27,32,-13
12,43,72,56,1,46,91,30,37,17
22,63,50,59,16,22,53,18,21,23
31,38,67,33,28,-4,-44,0,-5,13
31,25,51,25,16,-8,-85,-10,-22,11
15,32,-5,23,7,-21,-75,-28,-17,5
1,22,-46,18,10,-31,-83,-37,-23,-5
-17,3,-26,13,5,-15,-53,-25,-26,-10
-10,-18,28,15,15,-19,-31,-4,-25,-15
-9,-29,10,7,5,-23,-12,6,-23,-7
-9,-28,20,5,8,0,7,15,-2,-2
-6,-33,41,0,17,7,7,20,8,-15
3,-35,42,-20,9,0,11,11,17,-20
20,-31,44,-20,6,11,16,-1,15,-12
23,-10,53,-6,16,25,-7,-9,27,-5
25,10,64,0,17,19,-29,-5,40,-7
28,27,50,17,14,11,-16,5,30,-22
24,18,53,13,12,11,-4,-1,17,-34
15,-11,42,4,-2,13,-18,-15,-5,-51
18,-9,49,10,-2,19,-28,-9,-23,-56
16,-9,55,15,7,11,-15,0,-26,-83
17,-4,29,10,5,-5,-3,-4,-28,-110
21,-6,-35,13,2,3,-2,-12,-34,-97
32,3,26,26,0,-4,-11,-10,-32,-66
55,14,51,39,11,-37,-27,-26,-19,-36
52,11,43,30,23,-28,-20,-8,-6,-18
51,14,39,22,15,-28,-17,15,17,11
50,10,-30,8,7,-28,-2,11,38,50
56,1,-35,-6,7,-20,9,4,24,85
41,-8,19,-22,0,-39,-16,7,-7,36
17,-10,20,-28,-4,-38,-32,-10,-29,-63
5,-10,9,-29,-18,-48,-28,-14,-36,-149
3,-10,-3,-30,-28,-27,-8,2,-12,-135
17,8,5,-23,-23,-28,4,16,15,-83
12,5,1,-26,-20,-28,3,15,19,-30
-1,-4,-47,-29,-16,-42,6,2,14,-21
-18,10,-31,-22,9,-31,21,-7,52,-1
0,8,-12,-17,12,-29,6,-4,54,42
15,36,-96,1,13,-30,2,-14,71,53
13,56,-64,22,3,-40,25,-8,67,47
20,21,-9,-2,-2,-29,9,0,52,34
21,12,4,6,4,-27,5,15,50,20
-3,19,1,15,23,-13,15,17,60,-12
-31,10,-5,13,20,-3,43,11,-2,-72
-41,3,6,13,26,30,66,4,-14,-92
-63,3,-3,11,16,35,52,-8,-20,-68
-83,-19,-20,5,-13,16,31,-30,-75,-67
-58,-17,4,4,5,24,43,-38,-51,-75
-36,4,13,8,32,39,50,-21,-1,-76
-40,-12,-32,-7,14,16,6,-18,-31,-69
-22,-1,-5,-16,14,5,-11,-21,-20,-48
-1,17,29,-25,28,24,-15,-19,15,-23
13,14,36,-28,4,14,-38,-28,4,-3
27,0,44,-28,-12,2,-54,-33,-48,4
49,20,46,-8,18,14,-68,-39,-10,9
66,29,33,1,22,5,-83,-35,0,32
74,29,21,-5,7,-5,-62,-28,-6,47
72,10,26,-17,-7,-6,-42,-8,-12,46
63,18,11,-11,-7,0,-14,-5,-10,39
48,21,23,1,-4,15,4,-12,-18,33
34,26,28,13,0,24,25,-12,-30,34
1,31,25,14,4,19,38,7,-33,22
-28,33,7,27,14,18,27,19,9,28
-29,12,0,21,12,23,13,23,21,32
-30,-1,8,14,8,14,8,10,6,40
-17,2,18,7,1,-4,24,-12,8,23
-22,1,20,-2,-13,1,16,-26,-8,-23
-27,1,-35,4,-22,-4,-11,-28,-14,-53
-12,1,-91,15,-30,-10,-19,-10,-43,-26
1,5,-2,26,-7,8,-19,5,-38,-1
-11,8,21,12,6,5,-5,16,-7,13
-33,-5,39,-5,7,-14,11,32,-12,12
-43,-51,28,-6,-13,0,2,60,-25,15
-32,-43,14,-22,-16,0,19,88,12,21
-17,-22,-74,-6,-5,8,45,92,50,10
-4,0,-143,12,-5,24,58,65,22,6
0,25,-112,22,-7,35,85,33,-15,16
4,30,-2,27,0,23,73,10,-11,14
10,38,62,35,14,9,38,-14,1,8
7,6,59,17,9,13,-13,-32,-3,-7
-5,-36,44,-5,-18,4,-35,-24,-46,-15
-17,-75,29,-8,-47,-8,-49,-26,-79,-23
-15,-68,8,-11,-52,-12,-42,-14,-65,-16
-3,-44,17,-2,-53,-5,-12,7,-46,12
3,-18,38,14,-51,-9,22,6,-45,21
4,-18,41,8,-49,-4,36,5,-56,0
2,-28,18,7,-51,-4,38,13,-58,-2
2,-28,26,15,-44,-16,41,11,-43,17
11,-25,22,2,-35,6,52,27,-34,41
15,-11,22,-2,-22,17,57,45,3,44
-21,-15,16,11,-21,6,23,35,16,37
-43,-36,-1,11,-20,4,-9,30,-2,24
-36,-50,-90,-6,-23,5,-13,14,-44,19
-24,-42,-66,-9,-26,4,-21,7,-50,24
-6,-31,-53,-12,-24,9,-20,5,-41,14
7,-17,-15,-5,-18,14,-10,12,-18,-3
-7,-15,-33,12,5,13,-15,6,-12,-21
-20,-19,19,17,12,-4,-17,-5,-13,-30
-19,-6,51,15,0,0,-17,2,6,-10
-14,14,43,10,0,13,-18,14,17,4
-13,-1,27,1,1,3,-11,18,21,-2
-6,-6,-24,0,2,1,-4,14,22,12
-19,-5,-125,-5,7,14,-7,6,14,16
-26,-1,-63,-9,10,25,14,22,9,15
-18,-4,20,6,14,26,18,22,4,14
-16,5,23,11,30,22,10,-7,-6,9
-11,3,-6,13,31,14,13,-9,-14,7
-11,-12,13,3,21,15,11,4,-13,9
-8,-13,19,9,29,5,23,22,13,9
-18,-13,28,5,24,9,14,18,5,3
-20,-18,17,3,20,10,9,1,1,-3
-19,-18,4,9,13,5,11,-3,10,-12
-18,-13,0,0,-2,2,0,-7,9,-1
-12,-8,-6,-11,-8,-10,12,-7,11,17
-11,-9,-5,-14,-9,3,10,-18,22,37
-9,-11,-100,-17,-6,3,9,-16,24,14
-18,2,-50,-26,-17,-8,46,-25,4,-23
-14,4,-47,-16,-9,3,30,-19,-20,-45
-23,25,7,6,5,8,36,-23,-32,-79
-40,57,-1,34,24,11,72,-20,-17,-84
-44,49,29,21,30,13,64,-8,-9,-66
-37,20,29,-7,34,18,49,-21,-16,-33
-25,-1,21,-26,23,0,42,-40,-35,23
-20,-5,-40,-22,18,-24,22,-51,-60,41
-22,-4,-129,-14,5,-13,13,-30,-50,31
-15,0,-68,-18,0,-4,8,-16,-43,20
-22,-10,20,-9,7,-9,5,-29,-38,18
-18,-13,31,-7,3,-5,0,-36,-34,12
-19,-3,26,-28,-6,5,-2,-29,-23,1
-29,-12,10,-30,-7,-9,-15,-28,-16,-2
-32,-27,-67,-19,-8,-13,-42,-27,-23,-13
-7,-16,-67,-25,-14,-4,-20,-38,0,68
2,3,9,-16,-14,-25,-19,-32,28,112
17,25,28,5,-2,-15,-57,-24,34,113
34,12,-37,5,16,-12,-76,-29,32,74
32,10,-13,1,13,-20,-101,-41,24,41
5,12,49,14,8,-18,-93,-60,0,3
0,16,51,26,7,-29,-77,-72,-16,-39
3,24,39,13,10,-22,-81,-62,-21,-79
-14,12,15,8,-1,-8,-78,-39,-29,-100
-15,-5,19,10,-9,-16,-72,-32,-30,-104
-22,-23,-2,-16,-7,0,-54,-17,-24,-97
-9,-20,-95,-34,-10,8,-12,-13,-13,-65
5,-12,-84,-28,-25,-7,26,-4,-4,-54
11,-10,-4,-18,-27,-2,52,18,15,-50
12,-8,15,-20,-20,13,50,47,38,-26
16,-8,27,-23,-13,3,35,66,54,-13
10,10,26,-10,-3,9,61,75,66,0
25,16,14,2,5,32,74,68,56,-3
31,12,6,2,13,35,71,84,30,-21
41,4,21,1,12,28,78,83,17,-40
47,9,30,-3,20,0,51,75,19,-31
50,21,18,-9,15,11,20,89,34,11
39,16,-34,-7,14,42,49,92,42,44
12,10,-12,-3,27,57,81,67,38,53
-3,25,26,8,20,46,83,43,12,36
15,23,23,9,4,31,55,34,5,18
47,10,25,-7,3,19,38,20,25,-6
56,20,18,7,15,38,20,20,31,-23
68,29,17,18,12,22,-8,22,33,-20
72,31,31,21,1,4,-37,19,47,-18
65,47,30,23,2,3,-50,5,41,-14
61,56,-42,38,7,10,-42,-9,33,-17
53,44,-26,50,20,7,-22,-5,20,10
30,16,37,41,25,10,-11,2,9,56
-9,-23,38,35,18,0,-26,-12,-22,122
-28,-52,18,8,3,-11,-44,-14,-39,120
-29,-53,17,-7,-11,-11,-55,-14,-47,38
-27,-36,15,6,-6,-15,-44,-20,-43,-42
-34,-32,-6,19,9,-8,-12,-35,-44,-110
-33,-24,11,26,30,3,9,-48,-43,-109
-19,-16,31,33,37,14,7,-73,-35,-93
0,-2,40,32,42,6,-6,-93,-33,-88
8,0,32,24,35,-6,-44,-108,-35,-84
-1,-9,33,18,20,-6,-72,-104,-39,-58
-22,-10,9,1,9,0,-57,-59,-27,-42
-29,-13,12,-9,6,2,-38,-30,-23,-46
-24,-11,-20,0,0,-11,-30,-14,-25,-36
-32,0,-77,3,-13,-11,-19,-4,-38,-29
-25,-10,-26,-7,-13,14,8,3,-30,-34
-6,-26,-11,-26,2,23,14,21,10,-13
-3,-27,-22,-29,-8,10,21,35,19,-5
-2,-14,-92,-30,-14,-1,35,42,5,-10
3,-14,-131,-31,-4,0,65,43,-1,-12
0,-13,-143,-24,5,13,99,45,13,-7
-7,-13,-120,-12,7,22,69,50,27,0
8,-3,-4,5,3,11,33,46,33,13
19,-3,0,5,12,3,54,20,32,6
14,-6,-20,9,26,2,68,1,24,-4
7,6,13,20,45,16,75,-1,23,3
4,21,-46,21,34,17,59,-14,25,8
-10,40,3,28,33,14,39,-8,29,10
-34,43,59,43,19,15,35,0,30,18
-23,7,52,21,1,-4,8,2,15,21
-7,-8,48,9,16,-20,-13,-6,29,23
7,-3,37,1,8,-21,-30,-17,57,17
18,17,42,0,0,-15,-83,-41,43,11
25,15,41,6,8,-23,-107,-52,12,-11
8,6,49,7,8,-36,-105,-66,-9,-28
3,8,59,10,11,-26,-102,-69,-24,-21
-8,-11,45,-11,11,-35,-101,-57,-19,-16
17,-21,-48,-13,4,-31,-78,-45,-17,-24
29,-26,-132,-21,2,-13,-63,-32,-18,-29
16,-35,-47,-30,4,-15,-37,-26,-11,-37
2,-37,6,-24,9,-25,-23,-23,-9,-31
1,-27,31,-29,-16,-13,-1,-21,-1,-21
11,-19,46,-8,-20,-14,9,-12,3,-14
12,-20,27,-3,-16,-19,38,1,5,-12
3,-25,9,-9,-22,8,64,20,32,31
6,-10,-13,-19,-22,21,66,31,34,96
6,-12,-27,-4,-16,14,45,31,29,76
12,-13,-88,8,-13,1,27,16,22,53
11,-9,-37,-3,-20,4,20,9,11,24
-1,-7,0,-2,-26,16,22,20,8,3
37,26,27,24,7,-8,37,25,71,17
60,35,38,23,11,-11,33,27,89,38
65,24,51,25,7,-3,31,22,46,44
73,31,56,35,0,-18,28,7,20,49
63,31,48,41,9,-15,37,-6,30,30
33,13,22,13,14,5,38,2,34,-8
22,10,-67,11,24,23,42,5,28,-48
0,9,-35,21,21,23,36,6,-2,-80
9,30,-138,13,39,11,59,28,34,-74
6,23,-134,5,28,17,59,24,19,-61
12,29,-23,16,29,23,16,-1,32,-56
6,13,1,9,7,19,-34,-16,19,-53
-11,-2,-24,8,-5,-2,-43,-19,-25,-48
-28,17,59,37,6,-8,-31,-22,-42,-35
-33,11,70,23,5,-14,-25,-33,-47,-37
-20,22,68,8,14,-12,-18,-40,-32,-21
-5,42,59,17,20,-20,-22,-47,-20,6
4,35,55,14,23,-12,-7,-46,-13,16
5,2,39,0,-2,-3,0,-39,-23,-12
9,9,36,-6,-5,-18,29,-35,-19,-39
0,37,39,8,7,-14,52,-35,-15,-37
-6,64,43,34,18,-2,52,-32,19,-1
-7,41,26,8,20,-8,32,-29,2,14
-10,14,29,-9,29,-10,28,-26,16,11
-42,-10,5,-17,25,-3,19,-21,6,12
-84,-41,-14,-33,-5,0,-8,-30,-18,-15
-94,-33,-14,-45,-14,-25,-19,-38,-27,-52
-86,-14,-32,-51,-6,-15,10,-20,-20,-64
-59,-7,-95,-41,-7,17,63,14,10,-52
-26,-7,-129,-22,-4,22,59,33,32,-40
-25,-4,-42,-4,18,29,52,34,21,-41
-17,-17,-10,-11,-16,36,51,47,4,-20
-10,3,16,-1,-4,30,49,62,39,-2
1,22,34,12,-2,29,34,71,34,6
13,50,36,34,4,34,27,63,31,11
13,59,41,53,1,44,33,66,49,14
4,43,29,27,3,32,30,62,44,15
10,37,5,34,8,7,46,11,8,0
4,20,-65,48,-3,-2,4,-37,-27,-29
-47,1,-6,-2,-31,-14,6,-14,-13,-41
-24,18,-3,-8,-19,-4,24,-7,-13,-25
2,24,11,-6,-9,1,38,-6,-1,-21
32,38,-18,7,-5,2,40,12,28,-1
36,42,4,22,2,6,51,13,36,1
32,37,40,39,-5,-5,40,0,-1,-5
31,48,24,44,-4,-3,36,1,10,-14
30,31,11,25,-1,13,42,21,23,-2
16,23,14,14,-13,25,31,32,8,2
8,2,-4,17,-21,12,17,33,-23,0
21,21,9,26,0,0,44,25,7,4
23,36,-27,34,38,0,50,8,35,8
27,36,8,45,37,6,43,-4,22,0
12,65,-6,69,16,18,34,-11,-18,13
-2,63,3,46,15,26,26,-20,-20,11
-15,53,-41,38,19,25,28,-17,-19,-11
-17,34,-108,30,-3,32,19,-4,-42,-25
-11,14,-26,6,-15,23,15,-18,-68,-31
-9,8,12,1,-13,15,19,-26,-57,-38
-12,25,5,-4,-8,13,22,-12,-31,-38
-23,32,22,2,-12,2,16,-15,-37,-26
0,8,18,-7,-31,0,-9,-32,-65,-15
25,22,23,1,-17,3,-14,-49,-43,-4
30,24,34,4,-13,5,-3,-49,-32,18
35,15,22,7,-23,-13,-6,-37,-41,27
33,32,29,-11,-15,-30,-3,-31,-16,17
27,41,22,-18,-5,-31,-31,-37,4,12
14,20,-3,-7,0,-26,-55,-32,-3,20
21,13,4,0,0,-35,-56,-27,-12,25
24,-3,5,-10,-3,-39,-66,-34,-14,24
10,-44,-2,-14,-33,-28,-98,-41,-51,1
-8,-52,-1,-25,-41,-39,-110,-39,-58,-8
-19,-60,-11,-43,-38,-45,-90,-22,-55,0
-26,-65,-29,-36,-43,-29,-55,-4,-39,-27
-39,-72,-39,-31,-44,-30,-37,13,-56,-66
-39,-71,-36,-36,-28,-18,-11,22,-35,-79
-41,-41,-24,-29,-7,1,9,36,17,-78
-28,-19,-6,-26,1,4,40,46,61,-64
-16,-12,-10,-31,15,9,103,47,34,-65
-25,-24,-10,-22,1,20,117,43,-23,-71
-11,-20,-3,-11,32,37,108,52,-16,-54
-3,-13,-4,-16,37,42,113,67,23,-30
10,3,-59,-9,34,26,92,60,24,-1
35,52,-85,46,43,19,47,46,34,36
64,85,-95,44,52,-3,-15,32,54,49
61,42,-4,8,31,-34,-59,10,27,37
58,24,42,-11,28,-25,-72,-11,29,37
47,23,46,-11,27,-15,-79,-29,20,14
18,-9,38,-12,19,-23,-72,-42,3,-25
-9,-3,20,-16,20,-13,-46,-36,31,-27
-36,4,23,-18,13,4,-2,-24,29,-9
-27,-10,21,-19,-9,0,-2,-17,-7,8
-3,-12,9,-31,-7,-22,-36,-8,11,-5
9,6,9,-29,-16,-22,-41,-5,39,12
3,-18,23,-29,-29,-13,-42,1,9,39
13,-12,27,-14,-29,-23,-13,12,11,49
34,27,36,2,7,-15,19,5,39,44
16,46,36,11,21,6,22,1,42,6
-12,34,-25,5,16,14,0,6,19,-23
-68,-34,-28,-25,-14,-6,-8,7,-58,-71
-75,-55,-12,-37,-33,-1,13,12,-70,-70
-47,-30,-86,-36,-14,21,72,23,-7,-30
-36,-15,-31,-38,-8,42,121,53,27,-6
-14,-28,19,-34,-7,55,140,80,14,0
-8,-39,5,-48,-13,56,135,85,-7,-9
-7,-26,10,-39,-9,59,87,80,12,-20
-3,-13,30,-31,-21,60,71,71,25,-21
7,9,34,-13,1,65,83,54,33,-20
2,8,42,2,8,64,67,25,-6,-9
12,38,58,16,21,54,20,-22,9,23
29,48,71,23,26,37,-24,-57,16,43
20,29,63,22,7,27,-57,-53,-35,33
1,-3,29,7,-10,20,-64,-43,-73,-1
-22,-25,-91,-1,-19,-7,-70,-52,-88,-5
-28,-20,-147,-16,-15,-21,-80,-61,-77,16
-23,-1,-32,-14,4,-32,-64,-44,-48,14
-25,7,28,-14,16,-39,-35,-16,-7,-5
-37,-9,9,-20,3,-23,-13,-6,-4,-34
-38,-13,7,-21,-4,0,18,1,16,-41
-30,3,-8,-12,-5,24,51,19,31,-14
-15,-2,3,-10,-2,34,77,40,32,0
8,8,-44,1,17,27,12,53,39,47
14,8,35,-7,10,16,11,14,33,75
11,1,19,-25,-7,-11,9,-5,6,82
11,-1,-69,-10,-18,-17,11,-26,0,81
21,4,-14,0,-18,-17,11,-33,10,85
42,19,52,13,-14,-18,3,-21,20,95
51,43,84,49,-12,-6,-29,1,8,95
20,17,88,8,-4,-32,-39,16,30,43
6,-7,57,-5,-8,-28,-48,16,-6,26
16,-7,10,4,-5,-3,-20,9,-27,21
23,-1,52,14,6,2,-35,24,-14,24
23,22,44,24,4,-10,-31,17,-31,35
28,33,9,25,11,-23,-24,-10,-18,46
35,17,-105,11,9,-19,-46,-16,-7,12
10,-19,-125,-15,-7,-13,-60,-13,-37,-10
2,-37,-14,-29,-15,-28,-83,-23,-73,-9
10,-9,31,-23,-1,-34,-80,-26,-30,10
10,0,9,-22,-5,-14,-62,-30,-20,11
9,-21,-38,-13,-5,-16,-26,-22,-17,16
9,-30,-132,-15,-7,-34,5,-17,-11,8
27,-17,-53,-18,2,-22,-1,-26,-1,11
39,-29,-27,-24,-25,-31,-36,-29,-32,-25
38,-29,-114,-26,-41,-40,-47,-20,-40,-48
50,-3,-60,-13,-29,-25,-36,-8,-37,-34
44,-9,5,-3,-30,-31,-3,5,-25,-11
15,-28,17,-9,-51,-22,2,24,-43,7
-13,-46,40,-39,-28,-4,8,26,-20,-28
-15,-34,44,-35,-9,-8,20,25,-3,-41
-2,-21,54,-20,-4,-13,15,0,-12,-2
-18,-29,49,-12,-10,-2,27,-11,-13,-23
-31,-45,29,-15,-33,14,46,11,-20,-58
-29,-40,4,-6,-30,14,57,27,-15,-59
-16,-38,17,2,-25,27,88,37,12,-52
-7,-33,20,-5,-27,43,95,54,4,-47
3,-20,-35,-2,-17,46,85,69,4,-46
16,7,4,6,2,43,98,64,32,-35
28,5,49,19,7,29,41,55,20,-13
46,15,54,30,25,21,0,38,26,-12
46,8,35,34,27,17,-29,25,20,-16
49,28,-7,39,37,7,-51,14,39,-4
67,51,74,60,10,-30,-72,-13,10,4
75,24,60,28,6,-30,-62,-22,15,15
69,12,43,10,3,-15,-28,-26,23,21
50,0,32,10,-1,-25,-31,-42,14,4
32,-1,13,2,-20,-34,-39,-44,-4,-4
9,3,-15,-16,-7,-23,-13,-48,-4,-8
-33,4,-5,-6,-8,-12,15,-41,-12,-17
-44,11,12,6,-8,-10,44,-24,-20,-31
-52,7,8,-8,14,4,62,-16,-37,-81
-57,0,-5,-5,23,16,67,-8,-30,-101
-53,-8,-10,-2,9,31,54,14,-22,-89
-28,18,-8,16,19,31,36,27,-29,-63
0,51,0,34,25,15,2,-2,-22,-27
11,77,-32,39,17,-6,-26,-26,1,13
11,38,-125,13,-4,-6,-42,-31,-15,30
11,46,21,13,21,-20,-3,-44,-10,8
7,36,24,0,15,-18,0,-29,-23,36
-1,-6,-27,-19,-6,-1,1,-6,-40,82
-4,-15,-34,-16,-12,5,16,14,-15,101
3,-18,-9,-25,-24,8,28,24,-7,83
-19,-36,-5,-33,-19,16,37,27,-35,35
-27,-45,-7,-44,-20,23,20,37,-46,4
-11,-21,-8,-34,-8,21,18,43,-11,8
-14,-4,17,-1,32,55,12,68,-10,-11
-38,1,39,18,42,61,-1,53,-8,-43
-43,19,49,33,34,54,-2,27,-1,-51
-43,14,46,38,18,57,6,14,1,-60
-53,5,45,44,19,66,0,6,-20,-46
-35,24,40,54,21,54,-11,-20,10,-13
-8,27,42,55,20,27,-28,-28,43,19
-1,30,25,32,21,13,-3,-28,30,18
-15,20,2,9,2,6,7,-34,0,12
-16,12,-94,6,-1,-3,9,-46,-9,12
-20,15,-52,22,4,-8,4,-55,-13,15
-15,13,10,42,-9,-2,-14,-59,-28,26
-14,-3,11,37,-17,-5,-17,-58,-25,9
-16,-21,5,6,-8,0,-9,-57,12,0
14,-59,-4,-15,-47,-27,-54,-51,-10,14
14,-58,-10,-34,-47,-42,-39,-51,-9,15
26,-41,-14,-34,-49,-34,-13,-53,23,56
44,-18,11,-18,-55,-34,-18,-46,23,86
42,-14,0,-28,-40,-37,-6,-34,27,100
12,-26,-13,-31,-32,-28,17,-14,23,85
-20,-7,-5,-9,-5,-6,32,5,28,65
-82,-9,19,10,23,9,37,3,-32,0
-106,-24,27,11,16,23,34,0,-90,-101
-83,-11,13,19,19,26,36,3,-77,-154
-62,11,2,34,11,6,38,10,-53,-125
-76,7,0,33,-7,3,29,9,-72,-94
-61,8,-2,-1,19,0,12,8,-28,-65
-41,5,-7,-4,18,3,9,22,24,-38
-33,-5,-37,-17,0,10,-4,34,36,-18
-19,-6,-71,-14,-10,9,-16,19,30,-4
4,4,-7,-15,-4,5,-36,8,55,13
1,-1,2,-20,-14,2,-58,1,36,11
0,8,-21,-11,-10,-11,-91,-1,40,-1
10,-16,17,-25,-10,-32,-47,-10,40,-9
-8,-42,-9,-41,-9,-30,-79,-21,1,-25
-10,-39,-3,-30,-9,-25,-63,-18,-11,-42
-27,-43,-8,-43,-21,-15,-46,-26,-59,-46
-48,-35,-23,-46,-20,0,-47,-45,-109,-32
-69,-64,-72,-51,-35,6,-1,-52,-130,-81
-57,-60,-86,-57,-55,-3,3,-52,-130,-76
-21,-43,-49,-50,-65,-22,-5,-44,-123,-19
-7,-42,-53,-32,-48,-11,6,-11,-94,6
-5,-36,-79,-16,-39,14,36,40,-57,18
20,-15,-37,-7,-36,27,60,67,-1,30
45,6,7,1,-22,23,51,56,28,25
55,41,-19,38,-13,8,18,39,32,44
45,44,4,52,0,-6,-36,23,33,76
11,23,47,34,7,-13,-75,9,31,35
-14,8,51,21,5,-14,-91,14,43,-13
-9,-3,24,1,-5,-14,-88,16,50,-7
8,3,-2,-6,-8,-4,-78,9,51,10
6,6,0,-10,-4,-17,-73,-8,41,14
-7,-3,6,-22,1,-32,-55,-23,8,1
-19,-11,-6,-20,1,-18,-13,-24,-5,-6
-33,-23,-40,-13,-3,11,39,-19,0,0
-30,-33,-58,-9,-6,27,77,-11,-1,4
-2,-21,-18,-15,0,45,109,9,-5,40
8,-6,-15,-20,7,54,113,29,18,74
17,2,1,-4,7,50,46,28,13,66
30,39,11,20,20,33,2,12,32,67
34,86,-21,35,29,24,-6,19,95,69
20,85,-75,26,17,11,-2,22,122,60
14,57,-22,15,24,10,6,30,105,44
18,67,-3,9,32,11,-2,23,87,52
10,57,-11,20,29,-1,-17,4,75,24
-1,46,16,33,42,-17,-10,-19,77,16
-6,50,43,32,32,-12,-1,-34,67,26
0,60,46,33,26,-13,4,-48,68,50
6,39,29,16,23,-9,-10,-44,41,16
16,31,-4,1,15,-2,-6,-29,12,-5
16,40,-29,-11,14,-12,-1,-18,29,-3
5,36,3,3,14,-31,18,0,30,-3
-5,35,20,14,12,-23,42,23,32,13
-22,25,22,9,12,-2,51,42,40,32
-52,6,16,-10,-10,-2,54,59,26,21
-66,7,-8,-26,-11,-21,48,60,30,3
-28,8,-19,-22,-8,-24,35,44,59,10
6,12,-16,-22,-12,-11,13,26,86,23
-2,0,5,-26,-24,8,-19,-5,38,22
-22,-25,6,-15,-41,12,0,-32,-32,25
-35,-39,-7,-13,-36,4,10,-35,-53,-10
-46,-52,-16,-23,-25,-17,12,-38,-81,-67
-46,-33,-11,0,-4,-21,11,-23,-81,-69
-24,-4,1,19,8,-11,14,-21,-73,-45
-11,-13,5,18,5,-10,-3,-28,-58,-29
5,2,14,15,21,-23,-20,-27,-25,-32
21,14,4,24,43,-34,-25,-19,10,-43
22,21,-12,18,38,-33,7,3,15,-52
17,28,0,16,37,-18,-26,13,34,-50
15,21,3,15,38,-5,-37,13,23,-64
-1,-11,-31,0,17,6,-43,5,-10,-79
8,1,-35,10,13,5,-45,-5,11,-69
15,5,-32,25,23,-12,-49,0,35,-57
8,11,-56,12,17,-32,-52,2,37,-52
0,-3,-33,4,0,-26,-46,13,27,-57
6,12,-31,13,-9,-13,-11,36,34,-45
20,39,-1,30,-5,-23,16,49,47,-16
23,43,6,23,4,-25,-9,33,15,-14
16,21,5,-1,4,-17,-18,6,-25,-15
26,26,17,-7,17,-15,4,-8,-5,-8
28,22,9,-13,23,-15,37,-9,4,-7
36,14,-21,-27,5,-11,45,-1,1,-3
42,5,-58,-29,-3,-5,33,5,-27,29
60,18,-83,-14,10,-12,20,-6,-8,61
52,44,14,-17,12,-13,4,-18,-10,65
46,36,5,-21,15,-8,-21,-29,-12,45
53,28,-70,-7,17,-22,-39,-42,-11,53
47,30,-3,-5,19,-36,-24,-46,-19,54
32,31,20,0,12,-28,-30,-36,-34,36
-8,-1,0,-22,8,-35,-37,-41,-39,-45
-7,12,-12,-7,3,-52,-24,-26,4,-53
-4,14,-7,-14,-4,-46,-25,-5,17,-17
-4,-8,-5,-12,-3,-41,-18,17,22,0
-12,-2,3,0,-8,-18,21,37,35,0
-32,-13,2,-4,-14,6,51,45,12,-10
-39,-41,-10,-23,-26,2,69,61,-32,-25
-23,-49,-2,-22,-21,0,100,71,-36,-14
-7,-3,7,-11,-1,29,155,84,5,1
-13,10,16,0,34,64,204,81,14,-16
-36,-16,35,-6,18,73,158,61,-38,-24
-2,-22,38,6,25,66,99,40,-42,-1
26,14,33,13,49,59,87,30,0,33
36,27,42,20,44,44,22,24,17,60
21,28,44,21,44,35,-41,6,13,60
1,23,30,27,8,17,-53,2,-20,47
-7,24,19,32,-16,4,-64,-10,-48,38
-12,15,29,18,-23,-5,-59,-26,-42,23
-12,23,27,12,-21,7,-38,-22,-16,-4
-14,13,3,2,-16,20,-14,-15,-33,-21
0,-16,-6,-13,-19,-3,-25,-16,-50,-20
15,-4,9,-8,-18,-29,-39,-12,-34,-1
28,45,23,10,-3,-30,-33,-7,7,19
20,56,15,11,2,-32,-41,-14,3,25
6,-3,-27,-18,-17,-36,-51,-18,-50,-15
-9,-37,-70,-26,-36,-8,-42,-20,-79,-50
-31,-46,-94,-33,-44,-7,-24,-20,-91,-77
-42,-53,-139,-40,-44,-26,-29,-22,-82,-87
-35,-51,-59,-45,-49,-21,-15,-13,-80,-40
-27,-56,-15,-42,-42,-15,5,-19,-98,-33
-33,-45,5,-22,-32,-27,26,-12,-89,-29
-39,-39,23,-7,-36,-21,15,0,-69,23
-61,-54,19,-31,-32,-13,0,23,-35,9
-71,-55,7,-42,-31,-8,15,31,-35,-19
-76,-51,-85,-30,-19,13,31,36,-24,-43
-53,-42,-100,-15,1,25,22,31,7,-24
0,-32,18,-10,0,18,-15,14,16,10
30,-14,68,3,-3,0,-34,5,11,38
27,3,63,17,6,0,-24,0,6,52
0,2,52,15,22,13,-12,-10,-4,30
-10,-19,51,15,20,4,-5,-23,-6,35
15,-33,30,14,9,-10,-13,-32,-12,57
21,-21,9,2,0,-13,-36,-36,0,41
2,-33,-24,-4,0,-5,-47,-26,10,6
-8,-39,11,-20,7,3,-30,-15,2,-20
-7,-30,30,-11,9,7,-40,-11,-23,-34
-12,-34,18,-21,7,38,-38,2,-30,-52
0,-27,14,-25,-2,41,-27,20,-8,-29
-7,-30,11,-27,-10,31,-22,44,-1,-26
-2,-35,12,-26,-18,20,-2,67,13,-20
8,-24,13,-18,-23,0,0,72,15,-21
8,-4,-60,4,-12,0,19,68,23,-25
4,14,-9,23,18,20,56,57,31,-20
8,5,15,18,29,26,72,23,32,-27
26,3,-28,19,11,8,52,-10,19,-44
30,21,-56,17,19,-1,30,-1,59,-35
16,34,2,17,25,0,25,2,105,-16
18,29,26,21,21,10,26,12,97,-8
22,49,28,23,31,19,19,7,103,3
13,58,46,38,33,7,6,-19,85,-15
-13,28,31,42,31,-8,-21,-46,20,-33
-41,-7,19,24,14,-14,-32,-55,-22,-36
-41,11,25,30,13,6,-13,-55,20,-40
-45,15,15,28,15,24,-10,-52,42,-41
-46,0,-1,17,2,18,9,-53,33,-29
-22,-8,-8,6,-13,0,22,-55,23,7
-9,16,5,23,-10,-18,36,-52,46,16
-12,40,21,36,4,-13,44,-44,48,19
-9,20,21,-1,8,-17,24,-45,27,3
-6,5,2,-8,1,-24,6,-33,25,-6
-9,0,-7,-5,-12,-12,0,-20,45,-7
-11,-12,-24,-15,-15,0,-9,-11,42,1
-11,-26,-38,-21,-26,-10,-16,6,29,0
5,-14,-23,-27,-24,-21,-21,-3,21,-36
-7,-8,-11,-36,-28,-14,-16,3,7,-67
-45,-60,-7,-71,-55,-21,-25,6,11,-83
-32,-28,-8,-54,-30,-3,-20,4,24,-70
-30,-19,-11,-36,-16,3,-14,5,15,-51
-24,-24,-26,-26,-43,-18,-46,-27,-79,-6
-34,-27,-81,-25,-55,-8,-40,-38,-115,-23
-23,-33,-50,-18,-42,-6,-35,-24,-108,-37
5,-18,1,-11,-23,-20,-35,-12,-63,-20
32,33,-109,11,33,2,-12,-7,34,29
7,10,-35,20,23,0,-13,-16,-7,7
-5,11,25,21,30,-19,-6,-18,-4,18
-28,10,34,9,24,-4,0,-26,-12,20
-56,-9,-17,19,0,-3,-12,-31,-80,-5
-54,-24,-63,8,-16,-32,-20,-37,-104,-11
-38,-38,0,-19,-20,-18,-41,-29,-102,-11
-20,-34,5,-18,-7,-6,-27,-30,-60,-3
-8,-11,-2,-15,20,-13,-7,-23,-3,-7
-26,-12,-3,-19,10,7,-14,-11,2,-2
-18,-36,-31,-25,-18,30,-22,7,-21,6
-27,-38,-37,-36,-16,29,-38,18,-10,-4
-15,-15,-5,-37,-8,16,-40,28,21,-10
3,3,-24,-31,10,14,-18,25,50,-22
8,3,-91,-20,18,29,0,25,21,-18
27,13,-8,0,27,38,15,34,21,2
41,27,44,8,28,48,32,35,35,25
34,36,60,21,36,48,31,29,41,41
22,40,37,37,26,42,24,11,44,74
26,33,33,65,18,31,5,7,26,84
22,5,47,47,7,25,-7,1,-16,58
20,-1,53,36,3,-2,-31,-7,-5,54
20,8,38,40,7,-23,-57,-19,14,30
17,1,19,30,-5,-15,-30,-20,0,-19
4,4,19,38,-12,-10,-1,-9,-20,-30
10,18,29,31,-15,-11,-7,-7,10,-7
33,38,44,33,-15,-19,-13,-10,38,24
39,8,0,20,-37,-25,-27,-15,3,26
19,-22,-106,17,-37,-30,-22,-2,-5,10
11,-13,-53,23,-20,-16,-6,10,46,20
3,-2,16,10,-15,0,-5,8,43,27
-6,-33,-4,-3,-3,14,-19,2,15,17
-3,-27,41,0,0,27,-4,8,25,19
11,-14,54,8,4,19,15,23,30,18
12,-9,51,3,19,6,9,34,15,1
4,-22,31,0,10,2,1,46,7,-33
-2,-15,3,4,12,14,6,61,24,-37
6,-13,6,14,15,27,12,55,40,-30
17,-13,19,26,2,31,-17,51,26,-15
25,-35,-45,20,-6,23,-24,44,-12,-29
34,-24,-43,20,3,7,-11,29,5,-41
43,-11,30,-10,5,-14,-13,10,30,-14
59,-29,35,-26,-8,-24,2,-5,23,24
65,-41,37,-27,-23,-18,-8,-27,-9,12
70,-28,32,-19,-19,-23,-46,-43,7,7
62,-1,48,-14,-5,-32,-57,-53,37,12
42,-5,50,-9,-11,-7,-53,-42,7,9
16,-34,54,-10,-30,13,-45,-34,-45,4
7,-43,49,-7,-28,-2,-39,-27,-79,2
-20,-36,24,8,-26,-17,-25,-23,-105,-59
-42,-41,20,-5,-21,0,-9,-13,-86,-95
-39,-55,23,-23,-16,25,2,12,-49,-77
-36,-58,4,-32,-10,15,12,38,-51,-63
-24,-51,-4,-27,-8,3,17,46,-51,-45
-2,-38,2,-16,-15,-9,16,41,-60,-7
0,-29,11,-8,-16,-6,28,34,-33,26
13,-11,15,-4,-22,7,35,29,-16,99
13,-8,7,-17,-25,3,36,4,-23,132
-6,-16,20,-16,-13,-1,26,-19,-30,84
-25,-20,25,-4,1,8,3,-30,-36,42
-26,-21,11,4,6,2,-25,-36,-24,33
-15,-4,3,-7,3,0,-35,-34,-17,39
-8,-12,5,-12,-4,0,-25,-27,-4,27
-2,-8,5,-13,-6,-11,-27,-32,-20,29
24,25,7,13,-11,-20,-24,-41,-25,45
42,10,-3,-25,-25,-47,-3,-46,-26,28
52,12,-77,-21,-30,-43,-25,-36,-28,19
41,17,-129,-27,-28,-22,-21,-32,-22,0
-10,15,-34,-32,-32,-18,-5,-17,-16,-33
-49,19,12,-39,-25,-3,1,-14,-20,-55
-59,19,18,-43,-19,10,7,-9,-19,-47
-53,14,-3,-44,-24,4,8,7,-10,-37
-30,15,-10,-29,-31,-11,43,10,-11,-31
-23,14,-6,-17,-16,3,70,12,-8,-7
-29,20,-10,-12,-3,13,62,25,21,30
-21,12,0,-17,-6,0,28,30,21,40
12,46,16,-4,30,-9,26,32,62,37
25,47,15,-4,30,0,28,23,72,47
28,37,24,5,-8,5,6,8,37,54
37,17,20,-5,-16,-12,-6,0,28,53
34,13,6,-18,-7,-31,-23,-5,10,60
30,10,-73,-19,9,-19,-24,-5,0,47
17,2,-131,-12,0,-30,-16,-9,-6,10
4,-5,-90,-17,-9,-34,-3,-21,-10,-15
4,-9,9,-20,-5,-26,-8,-19,-13,-19
0,18,46,0,15,-36,-15,-3,-12,-43
-8,14,32,3,28,-11,-12,-1,-22,-86
4,-4,19,2,24,5,-6,-15,-21,-100
15,-7,34,2,14,-4,10,-10,-10,-87
8,-18,34,-8,1,-2,3,2,-13,-68
-8,-29,13,-15,4,11,-7,13,-15,-35
-14,-36,3,-7,16,4,-2,18,10,-19
-19,-29,13,-5,22,3,4,8,20,-2
-50,-20,-26,3,4,11,22,16,1,-16
-67,-44,-117,-16,-13,18,35,28,-20,-67
-48,-46,-45,-20,2,14,78,52,18,-62
-14,-15,21,-8,10,11,118,99,72,-20
22,13,34,1,23,10,111,120,96,12
33,31,-17,16,18,8,71,93,71,12
27,33,13,21,12,-3,19,60,48,0
56,67,61,52,22,-3,6,57,82,49
48,45,44,22,20,-10,-10,46,70,23
40,27,29,4,15,-31,-36,25,62,0
33,26,32,-12,4,-22,-42,10,56,2
6,5,-6,-16,8,-11,-4,26,57,39
-16,10,14,8,11,7,-3,23,32,33
-8,29,51,15,14,-3,3,23,14,34
-8,20,32,-11,8,-21,-18,14,20,36
-29,-3,34,-13,-3,-12,-33,5,28,34
-44,-11,17,2,4,-13,-34,7,23,-7
-36,13,-84,19,11,-21,-69,9,31,-37
-33,1,-52,0,-16,-33,-99,-4,21,-33
-40,-41,17,-16,-42,-42,-101,-11,-16,-34
-31,-38,-20,-14,-31,-26,-74,-2,-24,-26
-34,-29,-46,-17,-29,-22,-44,0,-29,-21
-53,-17,0,-25,-28,-7,2,-1,-37,-18
-46,-1,-42,-26,-28,4,68,-4,-30,-19
-7,15,0,-21,-26,4,106,-5,-28,-11
1,18,47,-23,-16,10,113,7,-35,5
1,13,31,-29,-9,21,93,19,-44,-6
-6,18,31,0,5,18,53,26,-42,-40
-42,41,49,28,12,11,17,22,-46,-56
-41,49,39,42,26,16,3,-13,-49,-62
-3,40,34,30,23,15,-24,-31,-60,-67
15,27,35,15,22,3,-23,-42,-50,-48
18,57,42,31,41,6,-36,-49,-14,-5
24,81,57,40,45,13,-50,-61,19,52
37,81,44,41,42,4,-38,-64,14,95
26,72,30,31,32,0,4,-31,28,88
18,53,20,10,30,12,21,-5,21,47
29,45,27,4,20,21,2,4,16,37
52,52,35,12,12,5,-31,-3,31,52
63,49,23,8,6,-14,-50,-5,20,31
48,30,-19,-10,-10,0,-53,3,-17,19
39,2,-65,-15,-3,-6,-46,1,-22,24
36,6,11,-10,8,-20,-34,-11,-16,36
32,22,21,7,2,-20,-40,-22,-17,47
7,3,9,-13,-9,-23,-49,-33,-33,11
-2,-29,13,-25,-18,-20,-54,-43,-48,-2
-11,-45,-9,-22,-24,-16,-54,-41,-44,11
-18,-50,-19,-16,-12,-10,-39,-39,-39,52
-20,-57,-3,-8,4,6,-8,-31,-26,111
-24,-61,-32,-9,0,7,13,-18,-18,90
-15,-39,-12,-4,-11,-5,27,-11,-18,62
-4,-34,-7,-12,-12,-9,22,-9,-13,54
-8,-35,-4,-23,-7,-25,23,2,2,51
-9,-35,8,-24,-12,-23,36,10,32,68
14,-27,-1,-26,-9,-17,30,15,38,80
35,-29,0,-20,0,-22,18,22,50,88
30,-21,14,-14,6,-5,10,35,52,82
33,-14,-15,-13,1,0,21,46,59,49
43,-21,-72,-16,-12,0,17,41,50,26
48,-19,6,-13,-4,4,-2,28,41,15
42,-11,13,-16,6,-9,-20,9,22,18
37,-1,-84,-21,2,2,-28,3,0,15
35,16,-98,-12,2,-9,-39,9,1,17
38,9,23,-35,10,-17,-16,0,21,48
3,10,23,-7,15,-16,1,-4,7,42
-67,-8,28,8,22,-2,-13,-9,-24,-1
-91,-29,22,-7,20,-21,-25,-22,-52,-57
-65,-14,25,-20,11,-25,-32,-26,-44,-56
-42,-3,23,-14,12,-25,-27,-25,-32,-26
-32,19,8,4,30,-20,-26,-13,11,-6
-20,42,-4,11,41,-24,-6,0,54,4
-26,0,-6,8,11,-25,7,5,-6,-7
-26,-8,-38,1,1,-23,-2,-7,-13,-3
-18,-27,-102,-11,-7,-22,-10,-16,0,-1
-5,-21,-78,-6,-19,-28,-7,-11,-10,0
-1,-34,-22,-13,-21,-21,2,-8,-12,-3
-9,-51,-37,-32,-31,-29,3,-15,-23,5
1,-48,-32,-30,-34,-24,19,-17,-23,46
-2,-20,-1,7,-4,5,75,22,25,75
-36,-16,20,24,9,20,88,21,17,3
-76,-27,22,30,21,24,84,16,-14,-105
-84,-28,17,19,16,28,91,1,-39,-159
-57,-14,22,3,9,18,94,-8,-22,-148
-32,8,18,4,14,11,91,-11,27,-84
-12,37,8,4,39,26,90,1,83,-27
-5,38,5,23,32,9,64,0,51,17
-3,43,-53,50,22,-2,31,-6,17,55
-7,29,-40,43,15,-8,-1,-16,9,56
-12,1,-14,33,16,-22,-32,-27,-6,16
-14,-1,31,27,10,-19,-33,-28,-13,-2
-24,-16,32,14,-2,-26,-23,-23,-23,-15
-34,-26,11,-11,-7,-6,-17,-14,-25,-33
-9,-10,14,-10,-5,-6,-36,-10,-14,-20
16,1,12,0,-20,8,-32,-13,-9,2
11,-3,6,0,-29,10,-17,-15,5,-4
1,-8,31,-4,-15,14,-9,-7,-2,-30
-10,-21,-8,-1,-7,32,0,0,-14,-31
-6,-41,-97,-5,-19,30,3,12,-12,-27
0,-53,-16,-5,-11,21,-8,17,-4,-25
17,-40,47,0,4,16,-24,26,30,-4
38,-18,50,3,5,-4,-41,25,53,25
50,6,77,19,-4,-17,-51,14,48,35
60,6,72,16,-9,-10,-47,5,47,44
67,3,72,14,-13,-7,-10,10,75,39
59,-2,69,9,-22,-3,17,8,60,0
55,0,65,17,-14,0,29,4,35,-32
41,-2,42,17,-7,20,27,11,10,-31
29,-4,21,18,-2,22,40,0,-18,-38
3,17,25,39,-3,4,32,-8,-23,-49
0,3,25,18,-18,10,-10,-29,-22,7
-19,0,12,22,-21,-14,-19,-39,-41,-3
-22,-3,12,10,-28,-11,-32,-29,-40,-36
-11,-1,-3,-4,-18,-16,-40,-18,-25,-40
-1,11,16,13,-19,0,-44,-18,-23,-36
6,29,10,24,-11,2,-38,-28,-19,-29
7,28,-54,9,-4,-17,-48,-27,-3,-29
19,3,-21,-9,-6,-30,-45,-8,-9,-27
33,-2,10,-14,-7,-18,-25,8,-1,-18
44,0,8,-13,-4,-4,-13,8,7,-2
48,-2,7,-11,0,-12,-5,7,-8,7
38,13,12,-12,2,0,20,19,-2,10
32,22,0,2,22,0,34,44,26,18
18,32,9,29,19,24,47,61,34,32
13,25,5,27,14,31,52,55,21,22
13,18,-72,17,11,16,67,51,22,2
19,4,-64,32,12,21,80,34,23,5
20,4,-10,37,19,39,50,18,29,16
17,7,-51,26,17,28,9,-6,17,1
14,5,7,35,29,13,-2,-28,19,-15
4,9,27,46,26,13,-9,-25,27,-1
-14,8,14,49,16,-7,-22,-28,22,3
-24,3,11,24,5,-14,-30,-32,15,-3
-13,7,16,6,18,1,-35,-23,6,11
-7,13,8,7,11,-9,-36,-23,-12,26
-4,5,10,16,10,-12,-20,-26,-23,55
6,0,14,5,1,-33,-13,-47,-29,65
15,-5,16,-3,-4,-53,-12,-60,-24,57
25,-2,4,8,-2,-60,-13,-47,-10,38
30,3,-21,-1,-4,-58,-18,-29,-14,28
21,11,-41,0,-5,-49,-9,-22,-16,18
-17,7,-14,12,2,-20,24,-14,-6,-41
-75,-12,1,4,17,17,68,0,-24,-111
-82,-10,10,-3,12,3,92,9,-29,-118
-70,-5,7,0,3,6,90,10,-7,-77
-52,9,14,16,-1,-9,96,0,-5,-28
-30,22,11,35,-10,-15,80,6,9,-18
-39,-7,-9,21,-15,-12,48,10,27,-45
-61,-25,-19,1,1,-11,28,-1,24,-78
-56,-27,-27,-7,2,-24,4,-13,5,-83
-52,-30,-14,-16,-4,-37,-16,-20,-21,-62
-35,-30,-7,-24,-2,-40,-19,-12,-25,-31
-12,-3,7,-10,0,-26,-12,-4,0,-29
-5,16,16,4,4,-30,-17,9,14,-47
10,37,1,-7,-5,-28,3,22,16,-41
5,33,-14,-10,-16,-28,7,39,16,-29
-8,35,-11,-7,-16,-24,-25,50,19,-27
-9,21,-20,-7,-18,-34,-64,47,25,-14
2,20,-37,-23,-21,-42,-83,26,25,10
11,17,-43,-26,-32,-38,-68,12,14,11
16,42,-34,-20,-31,-26,-5,16,10,10
17,53,-20,0,-27,-3,42,35,16,11
19,36,-24,-7,-25,-2,45,56,26,0
14,28,-10,-2,-8,10,47,61,30,1
-18,24,13,32,14,55,52,58,22,-59
-38,18,30,45,27,54,39,47,11,-77
-21,27,36,45,31,29,28,31,9,-63
2,19,18,17,2,11,11,13,9,-23
13,12,-6,12,-6,1,-3,1,3,4
9,2,-48,11,-4,-10,-10,-6,-5,-14
11,-5,-9,0,-12,-22,-25,-15,1,-21
31,-2,-36,0,-8,-33,-54,-15,9,-1
32,-6,-52,-7,-13,-34,-74,-6,-3,-1
30,2,-13,-20,-29,-31,-77,-2,3,13
26,7,-60,-24,-24,-23,-55,-14,13,13
14,5,-142,-27,-28,-13,-20,-8,8,-4
8,2,-146,-28,-23,-11,-23,-1,-8,-21
11,12,-106,-19,-19,3,-35,3,-11,-44
-7,12,8,-13,-9,21,-6,6,-43,-87
-25,8,42,-18,-7,27,-16,0,-51,-116
-42,-1,33,-30,-13,23,-29,0,-33,-100
-40,12,31,-29,-4,30,-10,20,-17,-45
-22,8,42,-34,-9,17,2,12,-10,-11
-5,3,49,-28,-12,25,-6,11,-17,-13
18,1,40,-22,-1,20,-7,13,-24,-20
30,16,45,-8,0,26,-13,6,-29,-13
22,6,35,-16,-4,29,1,15,-22,6
27,-3,29,-13,-7,24,15,6,-15,25
32,-1,48,-5,-13,24,18,10,-16,45
37,-2,25,-23,-19,15,25,14,-3,70
58,-17,16,-29,-30,8,11,11,13,92
63,-21,37,-21,-28,5,2,15,17,116
70,-14,47,-4,-23,8,-5,13,36,130
81,-3,19,1,-18,-11,-28,6,33,127
62,-2,-65,7,-15,0,-25,-2,25,94
23,0,-39,7,-19,7,-16,-5,16,58
-3,-2,-103,10,-20,7,-28,-8,8,33
4,-7,-41,9,-10,13,-23,-12,1,11
-1,-2,41,12,10,9,1,4,1,6
2,-12,14,1,15,-2,9,20,13,9
24,-10,31,-4,0,-16,1,22,22,8
22,-8,41,-7,-1,-10,1,20,17,1
11,-24,44,0,-11,-6,15,4,-13,-76
14,-3,58,20,-7,3,18,-9,-8,-59
18,9,36,27,4,-17,-14,-32,-3,-34
15,-6,-62,10,-1,-14,-16,-37,-30,-45
5,-12,-117,-8,-13,-4,19,-32,-23,-21
-5,-28,-55,-26,-19,4,24,-45,-24,27
-10,-42,-71,-35,-23,12,10,-46,-20,43
-23,-41,-32,-31,-29,0,-16,-37,-40,19
-34,-38,2,-6,-33,7,-17,-14,-46,4
-36,-33,48,2,-30,-4,0,2,-41,-4
-50,-35,57,5,-25,0,-6,0,-39,-10
-42,-35,39,0,-2,-8,-17,-1,-27,10
-21,-19,44,3,26,-15,-42,-6,9,38
-16,-10,41,6,31,-20,-37,-7,31,61
-4,-16,30,13,14,-17,-34,-27,11,53
-1,-13,32,15,-4,-7,-21,-42,-11,68
-15,-17,16,19,-2,-11,-18,-41,-23,101
-29,-39,-70,6,-8,0,-5,-23,-26,72
-34,-49,-165,-24,-13,9,20,12,-3,44
-38,-47,-171,-39,-14,13,43,34,-1,33
-40,-34,-110,-20,-1,10,59,40,-4,34
-24,-28,9,-15,0,5,72,65,11,43
-29,-10,41,-9,-4,-7,74,98,21,50
-24,9,64,-8,-1,3,73,113,40,64
-10,-8,57,-13,0,18,55,102,48,70
-14,-8,60,-12,7,22,38,79,43,64
-1,-10,68,-4,17,40,38,59,34,48
9,-6,46,3,13,40,31,35,31,46
3,-2,27,10,22,27,0,-7,18,38
-1,6,44,10,33,9,-31,-28,12,34
23,13,45,8,20,-4,-50,-43,12,40
31,11,51,20,19,-11,-48,-46,-13,21
27,10,46,24,19,-14,-48,-37,-16,9
27,7,34,10,18,-28,-49,-34,0,28
22,3,-68,3,12,-10,-1,-29,-7,25
-3,-5,-81,2,19,1,54,-28,-31,10
-26,-25,5,15,9,0,75,-38,-63,-11
-24,-10,29,23,0,-8,75,-40,-45,7
3,-38,21,-4,-13,7,63,-4,1,25
9,-24,36,8,-15,29,51,21,11,20
0,-25,45,7,-13,39,33,17,-2,17
14,-34,-12,-42,-23,15,-18,6,-5,27
39,-9,13,-27,-22,6,9,21,3,59
57,-2,-6,-27,-17,3,37,30,24,48
48,-7,-73,-19,-11,19,50,34,58,40
21,-28,-35,-10,-1,9,19,29,43,6
-8,-32,40,4,21,13,-9,17,29,-73
-22,-20,57,18,34,14,-4,19,21,-144
1,-15,58,16,40,10,5,16,14,-112
17,-6,0,18,39,12,-7,-4,12,-58
26,-7,-45,14,20,-10,-32,-10,18,-33
28,-12,41,3,9,-8,-47,-15,1,-40
21,-27,71,3,7,-11,-35,-22,-5,-29
14,-46,62,17,0,-9,-23,-28,-6,-9
12,-49,46,8,-8,-25,-36,-24,-19,-17
11,-41,34,-7,-13,-15,-37,-30,-37,-46
10,-26,35,-6,-26,-18,-31,-27,-34,-58
6,-10,-12,9,-26,-15,-25,-18,-14,-33
10,17,-100,29,-11,-29,-1,-12,23,-11
7,3,-58,15,-10,-36,4,-6,26,-14
12,-17,28,-6,0,-29,0,-2,-1,-36
18,-24,40,-5,2,-17,7,5,-11,-45
22,-31,31,-19,-5,-13,1,10,-28,-38
21,-30,34,-22,-5,-15,35,3,-31,-23
18,-26,-7,-13,0,-6,47,7,-15,-5
11,-15,27,-14,7,-1,38,16,-19,-7
11,-14,51,-6,1,6,43,12,-10,-4
28,-13,12,4,10,-6,47,16,5,2
29,-20,39,7,13,7,44,21,-5,5
27,-21,48,10,25,14,37,14,-14,-6
22,6,-7,13,21,19,26,4,-9,-3
18,36,61,30,14,12,2,4,8,74
8,26,59,20,6,14,18,10,11,66
12,7,31,2,11,10,21,10,17,46
11,18,35,-5,2,15,22,6,15,53
0,23,31,-5,-4,2,13,5,24,52
1,16,31,-4,-15,16,-3,17,23,55
-13,13,23,-10,-17,11,-20,16,9,55
-8,20,22,-12,-9,0,-32,-2,9,63
-2,21,10,-12,2,-3,-44,-15,17,68
1,2,14,-13,11,4,-52,-25,23,63
5,-2,-86,-16,-5,0,-54,-26,8,53
-1,-9,-158,-11,-10,-6,-51,-25,11,43
-2,2,-86,-7,-3,-9,-49,-24,14,27
-12,-4,7,-10,15,6,-40,-22,9,17
-12,-1,31,2,20,-4,-38,-20,0,10
1,11,38,7,27,0,-53,-29,-9,1
14,5,34,14,27,1,-41,-43,-22,6
0,6,-62,10,14,16,-16,-37,-33,21
-9,-1,-126,-3,0,3,-33,-38,-34,24
-21,-16,-41,-15,3,-3,-42,-38,-33,8
-15,-17,27,-16,-1,-13,-17,-42,-52,0
6,-1,28,-11,-8,-24,-1,-47,-59,5
5,12,43,18,2,-19,1,-47,-70,37
-2,10,35,6,8,-9,-2,-52,-63,32
-6,3,38,1,4,-12,6,-49,-35,24
-11,-2,38,2,-1,-3,-1,-26,-3,56
-16,-11,21,-2,-7,-8,5,-5,5,48
-28,-25,-30,0,-1,0,7,-2,11,1
-9,-26,-10,1,-5,0,16,-4,16,-3
4,-8,24,2,-6,26,22,0,7,7
-3,-10,12,-9,-6,14,7,5,-5,6
-22,-8,-29,-11,-2,11,4,16,14,15
-39,-3,-49,-7,12,20,-3,23,27,11
-24,-3,14,8,15,19,-25,32,44,12
22,-5,25,9,8,16,-26,38,61,43
73,4,28,6,-12,-2,-27,31,76,81
75,11,16,0,-29,-7,-28,42,123,109
58,10,8,-11,-26,-2,-6,51,119,98
58,-9,-35,-18,-19,3,8,61,68,60
47,-23,-29,-12,-20,1,3,75,55,25
25,-26,-7,-15,-22,0,-10,76,33,-23
3,-32,0,-2,-5,9,-12,58,14,-84
-21,-43,2,2,18,8,-8,49,15,-126
-36,-24,1,0,16,4,-14,58,-2,-137
-37,10,-7,22,10,-1,-7,43,-6,-86
-24,21,-13,34,13,-4,-7,23,-12,-23
-16,1,-4,18,10,-20,-35,-9,-20,-15
-12,-3,-77,4,11,-16,-35,-25,-34,-22
0,-21,-82,-5,1,-17,-13,-18,-30,-27
-7,-28,-19,3,4,-1,-14,3,-9,-24
-11,-33,8,12,-6,-5,-3,0,-10,-16
-9,-25,21,18,-4,-5,2,-4,-29,-21
-7,-18,-3,13,-4,-17,-20,-7,-58,-40
3,-18,-30,1,-5,-22,-18,-10,-43,-26
11,-14,-4,-7,-4,-26,-14,9,-9,14
17,4,-10,-8,5,-19,-21,13,19,34
28,20,19,-1,7,-26,-19,-16,22,34
22,37,31,13,10,-39,-7,-23,10,28
19,43,19,10,0,-51,-6,-20,-9,29
11,49,24,6,4,-40,-4,-31,-23,32
-1,38,4,-7,-10,-25,-4,-49,-27,19
-19,12,1,-28,-16,-32,-14,-47,-22,-5
-26,-8,-36,-38,-16,-34,-11,-36,-16,-31
-11,-10,-151,-33,-16,-34,-5,-30,-22,-30
-11,-2,-142,-26,-17,-23,11,-14,-22,-23
-18,-2,-37,-21,-23,-6,31,25,-22,-28
-27,2,-7,0,-17,-6,36,44,-18,-19
-18,6,-1,0,-1,10,58,41,12,1
-7,-4,-4,-16,-3,17,83,38,16,7
2,-5,-25,-13,10,35,102,31,19,23
10,19,-94,9,20,28,100,5,33,32
24,32,-66,17,31,34,75,-17,25,37
17,44,16,12,30,26,29,-21,4,37
6,53,50,17,28,26,0,-8,-11,64
2,55,25,26,22,27,-24,2,-4,88
12,31,26,3,20,26,-31,6,14,96
30,15,33,-12,18,24,-21,2,22,83
40,13,24,-20,8,17,-12,18,35,82
31,16,23,-6,-2,26,-8,28,55,92
19,18,32,3,1,19,-30,10,49,105
12,14,28,-4,23,57,-35,4,27,100
15,14,27,0,30,90,-3,2,30,70
0,-9,28,13,31,82,-17,-15,17,35
-17,-31,4,1,18,33,-30,-31,-4,20
-25,-28,-26,14,13,-16,-30,-55,-22,16
-14,-9,-21,16,-19,-19,-27,-46,-20,30
1,15,-14,-1,-59,-47,-43,-39,0,47
-9,16,-8,-10,-50,-43,-64,-45,-12,36
-13,13,-23,-10,-37,-20,-70,-30,-5,31
0,9,-29,-11,-27,-4,-64,-11,-9,37
-17,-2,4,-39,-22,1,-45,0,3,41
1,7,7,-50,-24,-7,-27,16,21,46
26,16,12,-50,-23,-13,-28,20,22,32
18,25,-2,-39,-24,-20,-27,28,8,16
10,24,-114,-20,-23,-13,-8,38,0,-9
11,20,-147,-10,-37,-5,0,48,11,-15
5,28,-103,10,-31,10,22,44,27,-3
2,22,14,10,-15,15,23,31,32,-4
-16,-6,52,9,-4,9,15,6,-14,-46
-33,-21,35,4,-15,-5,-16,-9,-25,-87
-20,-6,-15,-2,1,-20,-35,-14,-14,-76
-4,16,70,-8,19,-15,-55,-53,-6,-19
0,21,78,4,21,-8,-20,-62,-4,-39
-7,31,61,23,29,7,17,-56,-14,-45
-4,11,-34,5,20,14,32,-57,-21,-67
-15,0,-36,-3,15,16,34,-55,-23,-102
-28,-7,25,-16,12,24,23,-32,-12,-100
-12,-12,6,-21,4,20,0,-10,-7,-72
14,-12,-42,-21,-7,36,4,11,25,2
19,-18,24,-16,-11,31,6,20,47,48
16,-22,39,-11,-2,12,7,26,49,82
20,-36,32,-16,-1,15,-8,12,46,83
17,-35,20,-25,-13,2,-11,-4,19,44
2,-34,29,-30,-10,8,13,0,-7,-34
-24,-34,40,-9,13,34,37,13,-14,-112
-48,-30,8,1,19,32,46,21,-21,-131
-34,-22,-12,2,18,35,58,22,-28,-91
-14,17,55,36,20,30,35,-9,-17,-47
0,20,60,21,13,0,-1,-36,-9,-32
-3,-1,47,7,8,-12,-36,-40,-23,-32
-2,-8,32,-6,-1,-21,-38,-41,-31,-35
-8,-21,22,-19,-10,-25,-27,-26,-11,-43
-13,-47,14,-34,-31,-35,-6,15,13,-41
-10,-58,-18,-38,-35,-41,-3,47,32,-32
-3,-39,-20,-29,-30,-20,-13,74,42,-6
-4,-28,4,-35,-40,-18,2,109,67,12
9,-28,4,-33,-34,-22,33,123,72,33
13,-24,0,-23,-17,-12,37,118,65,53
19,-19,5,-6,-9,2,46,93,62,55
21,-5,1,12,-8,16,46,75,66,51
23,-7,6,27,2,16,40,60,52,50
7,-16,32,39,15,10,40,12,22,64
5,-1,48,43,15,-5,18,-24,1,54
10,-2,41,36,3,8,-6,-27,-10,22
7,13,38,35,11,0,-10,-26,-3,7
0,19,48,20,18,-6,-6,-28,10,-4
20,3,41,22,3,-16,-32,-29,-3,-9
26,6,31,24,-9,-12,-30,-41,27,-29
31,16,22,22,-12,-12,-14,-32,31,-26
33,13,5,8,-7,-24,-13,-20,17,-14
29,5,0,2,-12,-8,-25,-7,15,-6
24,-11,1,7,-21,1,8,-8,14,-3
10,-12,-1,10,-20,-1,20,-19,-1,-3
-22,-15,-4,17,-21,-8,9,-21,-3,-10
-81,-35,-23,2,-47,-17,-4,-25,-25,-56
-101,-41,-30,-15,-52,-28,-27,-35,-39,-110
-74,-29,-26,-10,-56,-27,-24,-16,-30,-79
-30,-40,-53,-27,-62,-12,20,13,-2,-12
-17,-41,-36,-29,-65,-4,63,7,-7,0
-8,-30,-20,-27,-51,8,82,2,-8,-1
5,-14,-65,-4,-36,9,73,5,-11,4
14,3,-146,10,-19,33,77,2,-8,11
9,26,-78,21,0,35,87,7,6,9
-4,21,12,31,16,34,79,13,-6,-15
-18,2,-3,33,8,39,60,21,-17,-40
-21,2,22,47,1,42,38,23,-11,-34
-2,15,35,33,10,19,13,14,-6,-28
2,20,25,19,26,24,3,18,-7,-30
5,26,30,20,30,22,4,25,-10,-29
9,17,37,39,25,13,-11,22,-7,-24
3,21,23,55,20,11,-34,2,-24,-16
2,4,-44,36,26,-3,-49,-21,-39,21
0,-13,-1,26,26,-8,-34,-31,-39,29
0,-26,29,34,16,-6,-42,-36,-38,21
0,-32,29,33,18,-12,-52,-51,-40,25
-6,-38,-19,15,11,-12,-56,-71,-52,26
-8,-46,-94,0,7,-31,-57,-67,-59,3
-9,-48,-46,-5,-3,-33,-58,-35,-34,-26
-14,-49,-4,-17,-15,-22,-59,-3,-27,-40
-2,-43,-2,-25,-7,-30,-56,7,-28,-30
-2,-41,23,-20,4,-31,-42,9,-26,-27
0,-34,26,-20,1,-18,-19,16,-42,-23
6,-25,29,-6,3,-4,11,19,-16,-2
21,-13,30,-2,-3,-1,27,25,22,28
17,-2,33,10,0,27,29,25,20,35
7,21,39,29,7,31,20,25,9,28
-2,15,39,22,11,13,14,11,0,17
4,16,25,22,4,11,-14,0,1,-1
13,9,-5,21,0,-1,-22,-4,6,-15
31,4,16,23,3,0,-13,0,17,-13
34,4,-39,-2,0,-4,11,6,23,4
29,4,21,-10,0,-3,20,9,23,22
30,28,41,3,6,-10,26,16,16,37
40,13,31,3,18,-8,18,13,4,49
35,-4,45,-6,17,-12,17,21,0,58
41,-3,41,-28,8,-11,4,36,19,58
38,0,24,-22,2,-12,-12,52,15,71
27,-8,32,-20,2,-13,-2,45,7,50
5,-13,33,-32,11,-17,-1,30,-15,44
-4,-11,-9,-30,4,-16,-19,20,-27,60
-14,-4,-72,-5,10,-9,-21,15,-16,58
-29,-7,-10,-10,21,13,-24,0,-24,15
-34,-14,21,-13,7,0,-38,-8,-20,-12
-35,-13,10,-13,0,-2,-41,0,-30,-20
-33,-7,-40,-20,3,-4,-42,2,-22,-18
-33,-4,-135,-27,-6,-12,-34,-3,-16,-10
-16,-1,-67,-23,-19,-21,14,-2,-7,10
-16,6,10,-17,-6,-24,35,-5,1,15
-29,-1,13,-23,-5,-20,35,-11,-6,-14
-19,-18,-53,-27,0,-27,27,-15,-5,-14
-9,-12,-100,-27,-1,-19,8,-9,7,0
0,5,-6,-16,1,-11,-18,-13,15,10
7,13,49,-9,16,-17,-37,-26,11,2
17,18,47,-6,19,-3,-40,-14,8,12
26,27,48,10,23,0,-37,-6,10,28
7,20,37,12,9,-9,-29,-11,17,30
-10,0,28,2,-2,-1,-14,-7,16,37
-17,-2,28,3,-5,0,-15,1,14,26
-12,2,18,4,-13,16,-9,2,1,21
-8,6,16,-1,-13,4,0,7,-4,21
-28,-1,15,4,-6,19,28,18,-10,14
-42,-6,29,-1,-3,27,61,14,-7,7
-32,5,34,6,-1,41,71,17,16,25
-13,4,42,14,7,50,51,18,15,39
-27,1,46,24,6,33,12,16,0,11
-21,-12,43,20,3,22,-26,15,-2,1
-10,-11,34,2,-7,7,-25,17,-8,0
-3,-12,28,-9,-17,3,4,13,-6,1
5,-12,20,-2,-14,11,24,23,0,-1
18,1,12,-1,-2,6,61,36,4,8
23,19,25,0,-1,15,70,34,5,20
30,0,3,-17,-10,1,59,23,6,26
48,-5,8,-29,-2,13,52,12,12,49
54,-10,-4,-34,2,26,27,0,9,72
24,-10,-6,-24,-3,8,5,-11,3,45
37,-5,-1,-21,-5,21,-3,-13,-3,10
47,-5,0,-26,-8,4,-15,-23,-7,-3
36,-16,-3,-19,-7,4,-27,-41,-5,-23
22,-14,-7,-27,-1,5,-50,-55,-26,-32
21,-17,7,-18,-1,-8,-51,-65,-36,-40
30,-14,-1,-18,1,-3,-31,-74,-20,-45
34,-1,4,-16,2,-2,-38,-79,-20,-55
17,14,-139,-2,15,-1,-69,-72,-42,-83
32,21,-128,15,10,-4,-56,-72,-47,-87
23,26,-24,35,0,-11,-36,-46,-51,-88
-3,-4,27,12,-15,0,-22,-5,-35,-93
-17,-18,4,-13,-17,20,11,35,6,-42
-11,-39,-14,-28,-22,10,22,62,6,27
-6,-45,0,-26,-30,17,42,84,-11,27
2,-36,0,-27,-34,7,57,105,17,-8
24,-16,0,-18,-15,12,60,101,39,-14
45,13,20,5,11,42,47,83,48,3
37,23,14,16,19,28,32,72,53,-8
1,23,27,22,25,27,47,86,64,-49
-18,27,43,41,26,42,45,84,77,-69
-16,31,51,26,29,47,32,69,59,-66
-8,12,40,17,27,45,37,44,46,-52
-23,7,26,26,23,27,64,28,25,-43
-9,18,25,30,19,18,61,26,21,-29
-2,33,24,30,26,28,32,24,24,-17
-4,26,18,31,41,21,15,11,34,-8
0,26,17,36,38,5,12,-2,29,-3
0,30,15,38,31,12,0,-3,20,1
3,24,-2,33,28,12,-18,2,15,-1
5,33,17,17,19,-4,-29,-3,28,-8
4,55,15,27,14,-12,-29,-32,10,8
11,69,26,49,12,-15,-6,-44,-10,26
13,53,16,30,6,-15,-26,-46,-30,20
5,33,17,5,3,-13,-54,-46,-21,12
-2,23,0,-8,-5,-21,-71,-47,-8,52
0,25,-51,1,-4,-13,-73,-54,-14,55
1,23,-118,13,-1,-17,-54,-55,-26,56
-4,19,-149,23,-1,-10,-46,-61,-37,54
-14,20,-122,31,-2,-2,-30,-59,-47,45
-14,5,-14,27,-7,-18,-31,-31,-49,37
-13,-11,4,8,-2,-15,-38,-18,-51,29
-13,-7,-2,10,2,-8,-2,-1,-29,20
-22,-14,-2,3,-3,-6,38,14,-7,-6
-17,-13,-58,-8,-9,-10,51,18,16,-1
-2,-6,-78,-2,3,-2,37,22,23,17
2,7,16,17,10,7,36,25,18,30
2,20,38,33,6,-3,39,21,7,19
3,9,35,17,8,4,29,16,5,-19
4,-5,45,13,8,9,10,8,5,-25
-5,-6,42,11,7,-10,-5,9,0,-36
-16,-8,38,13,7,-8,-10,11,0,-47
-12,-13,-16,11,4,-13,22,10,10,-36
-1,-1,-34,16,7,-4,29,5,7,-15
13,23,12,27,26,-22,43,-12,28,5
17,11,34,15,19,-35,33,-5,22,4
5,-5,14,-12,13,-29,-13,-7,8,-4
-2,-6,9,-19,4,-25,-39,-26,-6,13
-3,-14,-62,-9,8,-24,-34,-36,-5,36
-9,-22,-24,0,10,-19,-31,-34,-20,56
-32,-24,13,2,11,-11,-30,-37,-44,47
-55,-42,-9,-14,1,-16,-25,-54,-49,16
-44,-40,-15,-30,-6,-16,-32,-55,-49,16
-23,-32,8,-24,1,-7,-31,-43,-44,12
-16,-36,14,-27,4,-10,-27,-47,-43,9
-8,-37,-1,-8,-7,-20,-12,-59,-41,11
-9,-36,8,9,-9,-21,-32,-51,-48,5
-15,-40,3,12,-1,-15,-51,-41,-45,-8
-1,-22,15,26,-8,-11,-54,-37,-34,-3
5,-5,8,31,-15,-16,-47,-40,-21,-2
18,-30,-61,17,-14,-12,-35,-41,0,-9
35,-38,-126,9,-2,2,-6,-30,-1,-21
48,-25,-34,3,3,11,36,-13,8,-20
52,-20,29,-5,-8,10,20,0,7,-13
48,-21,27,-7,-5,4,-8,1,4,-14
49,-2,34,1,2,7,-8,-5,9,-14
43,1,29,8,-7,2,20,5,15,-13
20,-22,-22,-17,-13,7,23,30,16,-18
4,-27,-42,-27,-10,-2,46,51,17,-12
29,-20,28,-8,0,14,63,52,38,1
54,-8,42,-5,-1,18,52,53,39,12
33,-4,26,-11,4,14,42,35,30,0
18,-8,24,-21,8,14,57,22,21,-13
26,1,26,-12,6,21,61,8,29,-8
40,2,23,-17,1,34,48,2,24,-9
39,-11,19,-24,-2,36,41,0,27,-18
37,-6,20,-24,1,7,53,-3,14,-31
19,5,29,-22,16,-9,43,-6,7,-32
16,8,26,-15,19,-7,17,-5,7,-40
36,6,26,-23,-1,-14,8,-10,6,-45
44,-2,18,-20,-4,-14,6,-21,5,-24
23,15,19,6,3,-3,3,-33,10,-5
10,6,11,0,14,7,-3,-26,9,-10
14,-8,4,-23,11,1,-6,-22,13,-13
25,-8,-5,-24,1,0,-6,-13,40,0
30,-14,-12,-11,0,-4,-22,4,59,26
25,-16,-19,4,-1,-5,-29,-5,54,2
17,-1,-10,1,2,-18,-30,-11,59,-2
13,10,1,-2,-10,-21,-43,-13,46,9
15,6,-12,0,-11,-15,-52,-22,27,30
12,3,2,0,-7,-7,-21,-16,20,47
-5,-10,1,-3,-17,-14,2,-5,4,55
-15,-16,-7,-17,-34,-22,3,1,-14,45
3,-3,-10,-19,-39,-23,8,23,-5,54
11,7,-25,-13,-33,-21,17,29,9,58
10,9,-44,-3,-37,-12,30,22,15,70
15,7,-37,8,-39,13,42,18,33,93
20,0,-20,-11,-27,8,51,-8,25,112
22,-1,-99,-15,-3,7,41,-17,23,106
17,-8,-144,-12,-2,22,6,-2,15,107
25,-10,-163,-14,-16,18,13,16,34,105
43,0,-81,-1,-5,37,32,38,60,111
53,24,21,12,9,50,48,55,78,95
-34,69,75,55,52,63,56,47,3,-41
-58,35,43,30,47,55,53,33,-11,-85
-34,27,50,20,48,43,35,23,1,-19
-14,24,32,12,46,34,15,9,7,64
-14,1,12,-10,28,10,-5,-8,-11,108
-33,-21,28,-16,18,10,-21,-37,-60,80
-50,-24,15,-16,0,9,-36,-69,-76,23
-57,-30,7,-23,-5,-10,-27,-63,-72,-28
-60,-34,0,-20,-12,-2,0,-47,-60,-22
-49,-31,5,-14,-11,-11,5,-37,-53,1
-43,-25,-55,-12,-3,-13,4,-34,-35,18
-34,-27,-136,-18,-13,-7,13,-22,-30,3
-23,-31,-96,-12,-11,-16,28,-6,-16,-3
-26,-22,-23,-8,-3,-12,26,0,-17,12
-28,4,6,0,3,-15,24,3,-21,22
-13,13,-17,1,3,6,25,-3,-24,11
-7,-3,-11,-18,3,6,-5,-16,-10,2
-8,-1,-28,-19,-2,0,-61,-29,-8,14
-31,2,-36,-16,2,-12,-89,-43,3,12
-38,-5,20,-13,10,-27,-86,-53,4,4
-54,-30,24,-31,0,-18,-71,-47,3,-4
-63,-38,9,-32,-9,-23,-63,-41,-6,-15
-52,-21,-10,-27,-4,-23,-45,-31,-12,-12
-47,-28,-86,-42,-8,-22,-42,-14,-16,-24
-36,-30,-45,-26,-3,-9,-35,0,-9,-37
-27,-26,12,-21,-7,-20,-6,18,-5,-32
-21,-21,34,-9,-10,-17,-2,36,10,-35
-6,-2,41,3,-21,-23,-8,47,30,-29
-6,19,40,7,-13,-23,-6,65,55,4
-1,35,10,9,12,-28,-25,62,52,9
1,20,-9,10,11,-38,-43,40,37,13
7,11,29,15,2,-40,-38,22,49,15
9,3,31,17,7,-30,-10,8,46,12
-3,1,21,8,-6,-16,18,17,37,0
-10,-2,1,-3,-10,-15,0,23,24,-26
-5,-6,1,-3,-12,-10,0,17,28,-44
0,1,6,8,-9,-20,4,-1,22,-36
8,8,5,29,-8,-19,5,-19,-2,-35
13,-3,13,6,-3,-27,16,-26,-3,-21
20,-21,14,3,0,-32,29,-22,1,-26
18,-36,-2,9,-13,-33,12,-12,-7,-10
18,-33,1,-2,-14,-23,-2,-11,-8,7
15,-35,-2,-1,-14,-16,-1,-7,-13,-7
13,-22,-81,5,-1,-11,25,7,-21,-25
-17,10,-139,37,12,-12,62,17,-13,-48
-5,2,-130,37,13,1,73,26,-12,-65
18,-21,-116,6,-7,-4,74,31,-14,-63
14,-27,-27,0,-5,-14,39,7,-22,-57
7,-18,44,12,0,-4,-22,-15,-30,-43
12,-7,44,12,5,-9,-35,-42,-22,-38
1,-1,43,7,-2,-19,-36,-49,-18,-33
-11,10,54,-8,-7,-23,-41,-45,-18,-43
-20,12,59,-10,-15,-19,-32,-52,-46,-31
-21,4,28,-16,-19,-11,-42,-61,-58,-33
-23,3,-74,-2,-20,-3,-42,-56,-46,-25
-34,-13,-59,-12,-13,7,-14,-41,-41,-25
-35,-12,-41,-22,-19,12,-2,-29,-35,-26
-34,-10,-7,-29,-30,12,13,-7,-23,-32
-27,-2,43,-34,-28,9,13,23,-14,-21
-15,8,58,-23,-23,18,18,45,-4,-2
-3,6,49,-24,-11,13,14,56,15,-7
4,0,45,-30,-5,23,26,62,20,7
22,10,56,-19,1,20,46,65,34,29
28,17,56,-19,7,26,49,61,27,33
19,19,50,-21,7,24,38,60,22,29
21,3,61,-15,5,26,26,57,33,27
9,-1,70,-10,10,15,8,43,36,22
16,2,64,7,19,12,-3,21,17,9
25,3,58,25,23,15,-10,8,-10,3
27,-8,51,18,1,15,-2,-1,0,-7
10,-20,44,10,-4,21,-8,3,16,0
23,-16,49,17,4,13,-9,16,46,10
33,-4,35,19,-2,-2,-15,6,39,13
20,38,-97,42,-7,-16,-21,-14,19,55
12,34,-1,35,-5,-26,-22,-9,18,67
13,24,51,9,-4,-21,-24,-1,7,19
23,27,57,12,8,-18,-15,7,12,-13
31,44,56,23,7,-20,-36,8,8,-2
35,63,52,25,2,-13,-46,-5,-3,28
24,68,57,38,9,-16,-49,-15,-10,62
-18,59,15,36,24,-20,-34,-31,-26,71
-58,22,-88,2,11,-21,-48,-48,-48,26
-66,3,-35,-5,8,-31,-57,-55,-71,-24
-97,-9,14,-21,-1,-53,-50,-75,-90,-78
-126,-24,12,-43,-14,-57,-57,-85,-108,-129
-117,-21,0,-47,-19,-47,-57,-62,-104,-136
-80,-9,3,-41,-22,-42,-25,-21,-79,-99
-61,-2,-3,-30,-33,-25,-1,11,-39,-61
-54,-14,-3,-43,-30,-16,34,30,-11,-43
-40,-14,2,-56,-15,-9,67,43,-6,-13
-32,7,13,-38,-8,17,77,62,5,29
-21,18,12,-22,-5,21,75,63,16,46
-26,21,11,-13,4,8,66,51,14,58
-25,11,11,-15,-1,-8,52,51,22,69
-20,22,27,-7,3,-3,50,39,65,51
-11,-3,20,-27,0,-8,38,46,55,17
0,1021,37,-19,14,-3,31,45,41,2068
-8,-63,31,-16,22,16,68,31,38,-122
-3,-59,30,-20,15,9,69,20,33,-108
0,-61,32,0,11,14,23,20,24,-80
0,-57,25,0,26,5,26,23,33,-60
9,-56,26,15,21,13,-1,18,23,-39
13,-55,5,6,11,7,-18,10,20,-34
19,-46,-69,-4,0,-9,-14,10,32,-23
31,-41,-48,2,-1,-17,-19,20,47,-28
23,-44,21,-6,-5,-22,-25,26,37,-21
19,-34,27,-2,-9,-23,-32,24,19,-24
19,-32,15,6,-11,-26,-40,20,23,-26
6,-45,8,-1,-12,-31,-34,13,29,-43
-5,-40,4,-5,-6,-33,-9,10,0,-29
-5,-37,6,-19,0,-21,-6,4,-13,-10
-2,-30,10,-20,2,-25,-27,-12,-16,-15
-5,-15,19,-11,0,-33,-42,-10,-15,0
-18,-11,7,-7,-1,-29,-31,-7,-23,11
-27,18,18,29,7,-22,-17,-12,-23,30
-35,26,19,39,16,-11,5,-15,-25,15
-31,24,22,33,21,-1,9,-25,-25,-13
-17,14,20,29,31,7,-4,-33,-16,-35
-24,-7,20,18,28,0,-19,-41,-24,-29
-26,-21,13,7,27,-4,-43,-40,-10,-18
-23,-15,8,7,15,-11,-66,-31,-6,-23
-14,-6,17,0,4,-31,-63,-18,-8,-4
-11,-18,-33,-5,-8,-42,-65,-12,2,9
-4,-12,-145,-6,-16,-49,-48,-11,-2,12
1,-20,-137,6,-14,-36,-29,-14,-2,12
-11,-36,-34,13,-14,-17,-13,-10,-11,-5
-18,-49,17,13,-11,10,4,-2,-20,-11
-25,-51,12,16,-6,14,33,-4,-19,-12
-25,-37,11,26,-5,9,33,0,-10,2
-16,-13,23,42,-1,23,24,0,-5,23
2,-3,34,34,2,33,10,1,-1,29
7,4,22,31,9,26,7,-16,27,43
5,4,-13,37,15,6,8,-41,25,54
6,3,12,29,1,-9,5,-45,11,34
-7,-4,-19,27,3,-7,19,-56,0,4
-17,-6,-77,19,15,2,7,-59,-19,-12
-8,-4,-9,22,11,4,0,-52,-38,-19
-14,-13,19,26,12,12,19,-38,-22,-11
-15,-30,9,8,6,9,-1,-26,0,-3
-10,-32,4,2,-2,-12,-35,-24,-3,-3
-11,-35,13,-8,-14,-16,0,-12,5,6
-6,-38,3,-24,-20,-26,40,12,21,4
-4,-40,0,-10,-15,-11,43,28,21,-7
-1,-38,-2,2,-5,-3,38,15,14,-9
7,-30,-46,8,-6,-1,23,23,36,-22
6,-21,-43,12,-7,-3,0,18,28,-31
-2,-18,-9,3,-8,-8,-26,6,17,-39
-17,-18,17,-4,-13,0,-41,5,34,-60
-29,-8,1,-1,-9,7,-16,23,44,-61
-39,-13,8,-2,-12,4,17,31,42,-51
-15,2,8,7,-6,2,15,39,43,-25
-7,17,-27,15,-1,-1,21,34,6,19
-8,-16,-67,-20,-7,-7,23,26,-12,36
11,-17,-14,-35,-11,-1,33,31,-5,39
27,5,-19,-31,-14,6,36,32,10,60
36,21,-28,-22,-2,5,29,17,25,55
26,25,11,-19,0,3,5,10,36,68
34,29,24,-10,-4,4,2,0,48,70
48,36,27,18,3,9,4,-7,37,54
28,25,19,15,19,4,-9,-22,26,21
-5,33,36,11,24,16,-10,-33,-20,-57
-36,30,42,11,32,21,-7,-28,-55,-137
-44,17,34,14,34,14,-16,-33,-60,-153
-38,18,28,6,19,0,-38,-34,-58,-151
-11,27,14,1,14,-6,-44,-21,-28,-99
13,49,10,21,19,-6,-38,-11,9,-46
19,49,-23,15,14,-10,-33,1,28,-26
5,36,13,0,20,-4,-26,4,37,-25
4,43,32,5,31,6,15,-4,33,-26
7,30,23,12,31,0,40,-10,29,4
10,30,18,-2,23,-5,48,-15,47,30
13,53,9,-3,25,-6,32,-1,53,28
18,61,19,14,31,-6,27,7,42,19
5,59,37,23,16,-9,14,5,24,12
19,75,-3,5,19,-14,1,-1,14,-7
48,80,-127,-1,18,-11,-8,-13,17,-26
54,70,-121,-16,1,-4,-24,-15,12,-27
34,49,-8,-25,-19,-8,-29,-7,-13,-21
23,49,30,-20,-1,-19,-12,-16,1,-10
15,52,27,-21,11,-23,5,-26,13,-13
-6,26,25,-20,2,-25,-29,-36,-1,-32
-12,11,15,-6,-9,-3,-35,-21,-18,-13
-12,19,11,0,-3,-2,-15,-7,-6,-12
-1,28,20,7,8,-4,-16,11,13,-29
-2,39,30,8,11,8,0,21,7,-30
8,47,21,4,4,31,35,19,2,-29
16,47,-44,11,-5,33,43,23,1,-23
3,48,-65,23,-7,28,36,37,-9,-27
7,49,18,17,1,32,38,38,-15,-30
11,49,41,3,1,26,45,39,-25,-35
-3,31,37,-4,-15,25,40,22,-49,-38
-4,-10,24,-4,-36,0,15,13,-65,-1
23,-8,15,-10,-46,-16,5,5,-41,25
19,-12,24,-1,-43,-20,20,-7,-46,32
8,-22,21,2,-50,-24,32,-5,-53,7
-5,-18,-25,-13,-51,-20,44,7,-44,-25
-8,-38,-47,-34,-43,-11,24,16,-19,-32
3,-27,1,-35,-25,-12,22,13,11,-39
6,-15,13,-28,-25,11,30,13,21,-53
15,-3,7,-18,-13,20,40,30,27,-63
17,14,8,-1,12,14,38,37,29,-67
36,20,-81,-5,24,8,31,17,-3,-58
48,9,-73,1,35,14,35,0,-12,-41
32,-10,18,-9,32,26,25,-9,-10,-51
6,-2,11,1,31,27,19,17,4,-44
-4,-6,-21,15,29,14,8,24,3,-37
4,1,27,32,30,4,0,0,6,-12
-4,-18,29,12,12,-5,-13,-22,-23,-8
-5,-11,40,7,26,-5,-37,-27,-27,-20
0,25,52,27,30,-8,-44,-28,6,-13
-11,8,38,23,14,-21,-44,-31,3,-26
-19,-5,18,5,-7,-29,-56,-27,6,-42
-33,-28,-3,0,-23,-24,-55,-41,-12,-60
-35,-54,-12,-20,-39,-26,-5,-32,-8,-42
-28,-43,-9,-26,-30,-16,14,-21,2,-30
-27,-70,-11,-24,-46,-11,8,-8,-5,-22
-24,-80,-19,-36,-41,0,30,8,-18,-6
-18,-70,-45,-38,-23,7,46,37,21,20
-1,-66,-60,-38,-19,7,51,67,49,24
22,-69,-16,-45,-16,19,60,94,33,27
22,-58,-6,-33,-16,26,86,114,71,28
13,-54,-5,-17,-18,39,83,124,69,39
-2,-50,-30,-3,-19,40,61,108,40,36
-5,-11,17,29,-7,34,54,88,29,36
-12,-11,42,44,-4,26,27,59,12,25
-38,-31,39,41,5,22,23,31,-23,-4
-86,-42,24,40,20,14,13,4,-67,-45
-89,-54,-11,19,4,7,-17,-18,-95,-64
-70,-62,-75,3,-11,-4,-35,-37,-81,-15
-66,-60,-14,4,-16,-8,-50,-31,-65,33
-67,-50,16,8,-8,3,-50,-42,-57,64
-48,-40,14,0,0,4,-41,-28,-55,82
-35,-46,-36,-19,-15,4,-32,2,-50,92
-23,-48,-114,-13,-11,0,-23,16,-47,99
2,-29,-63,-13,-10,-1,-5,25,-36,102
11,-24,11,-21,1,-7,34,34,-26,93
11,-27,23,-1,26,11,79,23,-31,92
17,-23,14,19,40,22,85,20,-21,92
25,0,34,39,44,20,98,21,7,109
3,-7,44,21,46,24,68,6,16,81
-22,3,39,22,42,46,61,-19,-14,51
-28,-8,26,22,28,20,38,-37,-41,63
-18,-23,11,0,5,3,7,-40,-36,66
-5,-19,-7,-6,-16,4,3,-33,-12,67
-7,-19,1,-1,-27,14,-14,-23,15,89
-27,-10,2,2,-16,11,-4,-33,21,90
-27,-8,-18,5,-8,0,19,-22,9,66
-13,-24,-95,-10,-6,1,24,-13,6,59
0,-2,-36,-16,8,5,11,-8,22,78
22,27,9,-16,25,6,13,-10,48,84
27,40,17,-16,24,0,13,-29,51,73
20,50,18,-6,33,9,7,-42,40,63
5,29,18,-9,26,-4,-14,-54,0,40
1,24,7,-7,34,-11,-6,-59,11,19
-8,7,7,-1,32,4,14,-40,14,-10
-8,-1,2,12,35,7,5,-28,20,-14
-14,7,10,15,41,22,-21,-20,41,1
-25,0,14,14,31,14,-27,-14,14,0
-28,5,17,11,27,20,-20,-4,18,4
-27,19,23,1,35,10,10,23,55,20
-24,11,13,7,25,10,0,36,75,33
-4,12,5,8,12,-4,-45,28,81,48
4,23,-15,5,21,-3,-57,26,89,50
-15,19,-1,3,31,0,-50,6,90,47
-29,1,-55,8,29,6,-67,-1,58,25
-24,1,-96,19,19,21,-78,-8,57,5
-12,2,-62,19,11,21,-62,-13,51,3
-10,5,-111,12,-2,18,-48,-33,7,-11
-15,13,-35,26,-21,17,-55,-50,-15,-12
2,18,41,40,-21,10,-58,-41,-16,2
-10,-14,38,23,-31,-6,-60,-31,-45,-7
-19,-57,20,-5,-33,-13,-63,-26,-63,-6
-6,-66,15,-24,-40,-11,-57,-8,-71,-15
8,-57,1,-26,-42,-22,-44,11,-61,-20
19,-56,5,-24,-31,-5,-12,25,-37,-11
17,-24,4,-7,-26,0,-1,36,-17,1
17,21,15,21,-10,8,3,49,24,30
20,26,27,17,11,21,2,66,49,11
-2,4,16,21,23,36,19,61,26,-29
-7,10,22,32,30,35,14,40,39,-53
24,29,36,38,37,30,-9,34,60,-26
37,28,37,26,18,17,-13,23,26,-14
18,14,22,20,4,1,-24,23,0,-11
17,23,15,45,25,3,-25,26,27,2
32,2,10,28,21,-14,-32,28,10,0
26,-5,-12,20,13,-14,-41,25,18,5
21,4,-114,26,15,-10,-30,29,33,5
6,-2,-98,15,17,-1,-28,22,31,-3
2,-11,-8,10,13,-8,-25,7,17,-10
-22,-7,30,14,11,-20,-21,2,3,-18
-27,11,29,31,0,-21,0,-3,-11,-26
-10,2,33,36,-1,-17,6,-4,2,-44
-9,-15,38,15,7,-19,-21,-8,0,-54
0,-14,44,0,6,-16,-14,-15,-2,-45
8,-3,35,-2,4,-16,-3,-11,10,-40
9,0,24,2,5,-8,0,0,0,-44
12,6,-20,5,2,-9,4,13,2,-51
17,12,-1,1,3,-11,-5,4,7,-58
16,-11,24,-1,-4,-12,-23,-7,-24,-53
22,-20,26,0,-15,-22,-34,-19,-37,-57
23,-11,24,-6,-31,-20,-46,-29,-37,-48
15,-14,22,-13,-28,-20,-53,-23,-39,-36
22,-24,8,-7,-25,-6,-49,-17,-38,-12
22,-22,4,-15,-28,-4,-37,-22,-37,6
16,1,16,-16,-13,-12,-24,-17,-12,15
4,29,34,-7,8,-4,-14,-8,5,8
-17,39,29,0,7,0,2,13,6,-22
-32,19,21,-12,-2,15,22,32,13,-68
-22,34,2,-6,5,24,38,50,44,-49
-13,43,4,4,18,24,52,73,39,-45
-1,43,5,-2,17,27,62,72,44,-41
20,65,16,0,21,41,64,58,70,-23
27,68,22,16,26,51,60,45,62,-7
46,66,39,22,0,39,-11,-10,12,32
18,25,27,16,-41,-4,-79,-61,-61,12
4,0,0,2,-43,-8,-94,-63,-56,7
-11,-1,3,1,-35,-9,-91,-56,-36,-13
-18,4,5,4,-31,-8,-77,-47,-53,-32
-1,9,12,0,-28,-12,-63,-39,-83,-35
1,10,-3,-6,-29,-7,-41,-30,-89,-48
0,-3,-88,-13,-30,5,-26,-31,-80,-40
-22,-18,-89,-20,-29,29,2,-31,-87,-37
-46,-17,-8,-13,-17,49,44,-19,-69,-43
-50,-17,8,-11,-3,38,69,-16,-66,-64
-70,-28,-9,-8,-9,56,54,-19,-50,-80
-79,-32,-3,-12,-15,70,52,-20,-61,-75
-95,-14,5,5,-18,56,69,-24,-60,-89
-86,-8,0,2,-16,43,52,-11,-38,-79
-64,-12,1,-3,-11,39,-1,6,-28,-57
-34,-13,24,-5,-20,20,-40,19,-16,-23
-16,-12,27,-9,-17,16,-40,20,14,0
9,8,30,13,-9,20,-36,15,23,23
36,11,-8,21,-5,8,-34,25,31,28
49,4,-44,22,0,15,-18,33,42,23
43,0,22,11,1,12,0,29,37,9
33,0,37,1,-1,-4,33,32,22,10
48,0,29,-3,-6,1,43,22,19,38
61,8,-33,-13,-19,2,29,14,43,64
65,6,-47,-21,-11,8,19,24,44,76
64,-15,21,-26,-10,0,23,26,29,49
60,-18,16,-15,1,-10,-2,25,34,35
49,0,-32,-3,1,-23,-27,19,18,35
43,-17,-7,-18,-4,-25,-17,7,13,9
29,-11,24,-13,5,-27,-27,8,23,-27
0,-10,29,-15,24,-27,-40,13,16,-62
-9,-20,14,-19,24,-27,-49,2,9,-50
7,-31,8,-33,23,-20,-54,-13,28,-26
2,-24,18,-48,28,-27,-46,-16,26,-11
-11,-15,14,-36,31,-30,-22,-6,0,-17
-24,-13,-37,-35,28,-14,-10,0,-16,-32
-39,-15,-90,-34,13,-21,-16,-10,-28,-49
-30,-6,-33,-21,11,-25,-19,-7,-28,-35
-22,-5,-85,-28,-3,-30,-6,-14,-34,-31
-32,-14,-102,-32,-12,-19,3,-21,-40,-46
-38,-23,-20,-38,-12,-7,28,-1,-44,-45
-26,-15,11,-28,-2,-3,31,14,-36,-32
-8,-4,14,-11,-11,9,27,16,-13,-8
8,-3,11,-7,-21,8,0,2,4,3
34,10,29,4,-16,18,4,-9,10,1
47,23,44,11,-10,39,5,-16,19,-22
30,33,51,9,-10,16,-10,-24,14,-36
17,23,39,6,-3,10,-13,-28,9,-41
23,25,31,-4,-4,7,2,-28,-2,-29
23,28,28,-4,1,23,-19,-16,13,26
21,11,6,-4,-6,24,-27,4,39,66
2,-5,-14,-16,-22,12,-29,8,28,101
-27,-38,-60,-40,-30,12,-27,-3,-10,107
-36,-49,-79,-50,-36,9,-20,5,-23,91
-23,-38,-65,-53,-40,30,1,46,-10,62
-13,-14,-92,-34,-29,45,20,58,9,59
-3,13,-46,-13,-34,28,34,43,22,59
2,28,-99,10,-20,47,33,33,24,58
3,9,-41,10,-18,62,27,41,21,63
5,5,36,13,-5,55,14,40,30,66
9,21,46,25,10,37,-5,22,23,53
0,18,35,25,4,32,-18,5,3,27
2,8,39,9,-9,34,-35,-3,0,5
4,13,43,9,-6,39,-35,-11,11,8
3,11,-23,-5,-10,21,25,-18,14,24
13,9,-73,0,-8,25,9,-8,7,20
13,10,-61,5,-2,14,-4,-3,6,11
17,6,-21,0,-4,12,14,-4,10,14
0,3,48,-5,-19,20,-5,-9,0,21
-8,0,62,2,-14,10,-29,-12,3,34
-9,18,55,8,-7,-7,-36,-29,1,56
-11,43,-35,28,-9,-11,-26,-41,-15,57
-16,18,-26,13,-17,-16,5,-40,-49,17
-6,7,38,-7,-21,-21,38,-44,-50,13
0,13,43,-12,-20,-17,34,-40,-30,22
-10,13,43,-17,-15,-20,49,-28,-33,39
-21,8,27,-31,-11,1,57,-7,-56,27
-31,13,25,-16,-8,16,69,0,-48,3
-45,24,25,12,-2,6,66,1,-29,-18
-55,14,28,5,-18,12,47,15,-16,-53
-66,7,31,-1,-14,6,24,22,-6,-67
-64,8,27,8,8,5,24,42,12,-72
-46,10,31,10,22,26,6,67,32,-50
-22,24,10,1,12,8,-13,81,26,-36
-1,28,-16,-4,5,-22,-18,71,38,-19
10,39,-57,-2,11,-10,-22,54,58,4
8,47,-59,3,13,-8,-18,40,67,21
13,36,26,-12,6,0,6,28,65,23
16,23,35,-16,9,-2,24,19,46,19
4,13,28,-19,19,-9,13,23,40,7
6,1,24,-10,16,0,15,20,40,1
12,4,28,-6,21,-1,14,23,41,0
15,7,-39,-2,36,-10,8,15,58,1
12,6,-67,3,25,2,5,8,38,14
-1,-10,1,9,22,4,2,5,16,2
-4,-17,-14,3,24,-8,12,-4,0,-4
-3,-27,-79,3,12,-5,-11,-6,-2,-18
2,-26,-141,2,13,-3,-23,0,7,-6
16,-17,-93,15,9,3,-30,-4,-1,-4
17,-13,22,16,1,-1,-32,0,-20,-3
31,-4,58,10,-15,-21,-20,0,-23,1
36,-10,-35,-9,12,-14,-6,-25,1,-11
27,-4,12,0,29,-15,-7,-23,-7,-14
28,-3,52,-3,29,-29,-18,-17,-14,-6
36,-2,65,-5,9,-25,-20,0,-13,19
31,10,65,6,-3,-23,-3,6,15,28
30,23,61,17,-2,-22,-5,-6,31,19
23,34,53,37,-5,-25,-28,-21,60,33
18,0,47,11,-19,-29,-45,-42,26,25
0,-9,39,-12,-15,-36,-44,-55,-22,-16
-30,-6,32,-12,0,-38,-17,-48,-34,-69
-61,-6,30,-6,22,-22,41,-18,-32,-106
-61,-14,22,11,24,8,69,5,-26,-84
-43,-8,9,5,11,1,57,19,-27,-14
-30,1,14,9,3,-6,44,16,-36,27
0,32,33,37,6,-4,28,15,-33,31
10,16,9,24,12,-1,11,9,-24,2
-3,-6,-65,10,3,-8,-20,9,-25,-22
-4,-21,-52,10,-9,-18,-19,19,-15,-19
-8,-23,6,9,-3,-11,-7,21,-10,-23
-19,-17,15,13,9,0,0,17,-2,-34
-6,-5,15,5,8,8,-13,3,9,-35
7,8,8,6,-2,-13,-61,-20,2,-13
16,0,16,-1,-8,-24,-83,-32,-1,24
1,-16,14,-8,0,-30,-72,-20,-5,25
6,-6,-26,-5,3,-31,-78,-17,-14,15
13,0,-33,-9,-2,-15,-76,-19,-19,-9
2,11,14,-14,-12,-12,-45,-22,-4,-16
-14,19,-10,-20,-19,0,-14,-23,6,-29
-18,35,0,-14,-18,24,19,-24,0,-23
-11,50,9,0,-15,33,51,-19,-2,-19
-18,36,4,-18,-25,39,46,-25,-7,-35
-31,24,-47,-25,-34,25,21,-27,-26,-36
0,34,-61,-22,-22,19,19,-32,-27,-26
16,35,-10,-26,-5,32,33,-21,-2,-9
26,17,-95,-28,-15,27,43,-7,0,-12
30,14,-157,-35,-10,23,42,0,-1,-19
19,23,-82,-15,-3,42,55,21,-7,-8
26,24,17,-17,12,42,46,14,-11,0
30,36,59,-14,22,42,32,34,-10,16
20,58,63,8,26,45,18,46,-12,22
-20,50,23,8,14,11,-16,22,-32,3
-30,26,6,0,5,-11,-42,10,-27,5
-6,39,44,8,3,6,-48,15,-14,29
-1,47,56,15,10,6,-41,21,-15,38
4,39,13,6,7,3,-20,10,-11,18
10,39,-29,9,-2,16,-9,1,-9,4
34,47,37,11,1,10,-24,-14,-10,5
40,44,58,15,11,11,-12,-5,-15,13
24,44,53,17,12,14,-4,5,-11,26
22,31,44,25,9,8,29,17,0,32
10,27,33,33,7,2,58,18,8,34
8,15,19,14,15,-2,46,39,-9,47
17,5,13,-4,4,-13,19,41,8,38
3,-11,10,-14,-4,-9,19,44,21,30
0,-14,10,-2,-4,-12,-4,35,37,33
17,-13,13,17,-13,-12,-16,8,34,33
18,-8,31,40,-10,-27,-13,-7,18,30
0,-22,9,50,-4,-20,-30,2,31,28
-15,-35,-9,36,-3,-15,-8,13,40,-1
-12,-36,-20,15,0,-19,2,24,48,-16
7,-33,-25,7,4,-11,6,22,22,-5
16,-33,10,14,6,-11,2,2,8,-3
17,-30,15,26,0,-16,-3,-6,19,-5
21,-19,18,22,-12,-24,-24,-5,21,0
34,18,27,38,-8,-7,-30,-5,30,24
35,20,14,15,-16,-14,-39,-7,14,33
18,-6,3,-14,-28,-23,-42,-21,6,16
-8,-5,2,-1,-18,-30,-27,-44,-3,-17
-33,2,-5,-8,2,-17,-1,-75,-33,-53
-36,13,-44,3,3,-10,-5,-72,-57,-50
-15,26,-141,10,-5,-27,-21,-69,-60,-51
-7,25,-127,3,-21,-21,-12,-43,-30,-46
-11,1,-37,-28,-31,-8,9,-8,-12,-53
-9,-1,-8,-36,-23,3,27,23,1,-45
0,10,-12,-27,-10,-2,37,24,12,-42
16,16,-72,-16,-2,-6,30,25,28,-4
19,21,-26,-1,7,-19,48,21,34,18
26,18,-3,13,8,-3,31,31,34,14
25,5,28,18,4,7,25,36,17,35
11,-9,7,29,12,10,0,36,-3,20
1,-4,-20,40,29,0,-18,38,-18,1
17,5,-27,41,22,-1,-1,35,-26,7
33,14,-69,30,23,6,1,16,-11,20
26,18,14,28,31,4,-11,-4,-2,10
23,15,34,21,27,3,-8,-4,0,18
14,11,48,18,19,-9,4,7,4,25
-24,6,37,36,10,-8,18,0,4,6
-30,-15,-11,8,5,-6,7,-12,5,-12
-13,-23,16,-15,0,-3,-25,-14,15,-9
-23,-38,7,-31,-9,-7,-6,-20,2,-28
-36,-44,11,-16,-12,2,15,-23,-2,-26
-22,-34,9,-9,-13,-11,-10,-17,16,-20
-10,-11,32,-6,-2,-19,-11,-11,34,-7
5,8,38,1,-5,-22,2,-20,31,12
7,3,19,7,4,-12,10,-27,26,-4
-4,-4,50,3,14,-16,16,-28,0,-45
-11,7,-26,-1,4,-7,16,-36,-20,-35
-12,10,-58,6,-1,-10,13,-42,-19,-14
-10,9,26,-3,2,-4,-13,-45,-17,-16
-10,-13,19,-7,-3,-20,-59,-54,-29,-30
-8,-9,24,6,-11,-40,-84,-58,-32,-36
-9,-18,18,1,-5,-51,-100,-71,-37,-1
-10,-25,13,-2,-13,-51,-91,-80,-38,10
-9,-28,5,3,-12,-41,-72,-78,-30,-9
-5,-41,1,2,-11,-46,-71,-71,-14,-22
-12,-44,-9,-1,-15,-55,-69,-51,8,-29
-26,-44,15,-8,-9,-46,-29,-34,-5,-34
-32,-42,9,1,-5,-34,15,-29,-22,-32
-16,-41,15,11,-5,-13,28,-26,-31,-39
-12,-48,21,3,-2,0,30,-26,-27,-26
-9,-46,16,-3,0,15,49,-24,-32,25
-10,-41,15,-9,5,10,46,-27,-40,52
-2,-41,-42,0,-1,-1,59,-12,-53,43
14,-44,-134,-3,-14,5,79,7,-41,35
20,-42,-56,-6,-16,9,83,28,-6,18
39,-19,-53,3,0,18,66,50,25,10
40,-3,-107,-5,2,20,65,95,57,13
38,-8,-14,-19,6,26,61,120,84,19
47,3,41,-21,16,14,29,108,86,57
49,6,39,-17,11,0,22,86,96,86
32,1,17,-22,0,-3,11,72,106,85
10,-1,18,-21,6,-9,-10,65,80,38
20,18,26,-12,18,-14,-21,66,68,19
34,46,41,1,0,-29,-46,38,78,24
41,37,20,-3,-2,-42,-67,8,60,-7
27,18,13,-13,4,-23,-59,-3,28,-28
2,2,10,-22,-2,-24,-32,0,3,-55
-8,-6,7,-20,-5,-28,-25,12,-9,-77
-17,-10,1,-16,-15,-28,-38,20,3,-44
-6,-12,0,-20,-20,-27,-35,36,4,1
-5,6,2,3,-13,-5,-1,49,19,16
-33,1,-3,15,-10,7,29,60,-8,13
-42,-28,1,0,-4,7,55,60,-15,0
-16,-24,-27,12,5,13,94,43,-3,6
-12,-13,-122,20,4,17,102,31,-13,26
-5,-13,-167,26,-1,18,56,24,-22,38
14,-6,-147,24,0,7,-8,7,-14,59
9,13,-82,25,5,0,-46,-9,-3,42
-11,10,13,16,20,7,-64,-12,-14,21
-26,1,37,13,16,17,-68,-20,-20,1
-29,7,55,0,20,16,-46,-18,-22,-10
-3,10,60,-1,19,-2,-38,-20,-22,-20
-1,9,66,-3,18,2,-62,-28,-33,-29
-11,15,62,-13,9,1,-67,-26,-21,-33
-12,15,45,-20,3,-4,-69,-24,-16,-36
0,21,47,-4,4,0,-69,-26,-17,-25
8,29,46,-1,11,-8,-61,-27,-20,13
12,19,27,-20,4,-8,-46,-21,-25,61
17,4,21,-26,-9,-3,-37,-21,-31,44
24,0,4,-30,-14,-2,-31,-18,-31,37
13,0,-13,-43,-3,4,-15,-1,-28,7
9,-7,-9,-48,1,20,17,5,-23,-14
9,-6,-13,-34,-12,17,20,16,-18,0
17,0,5,-22,-15,31,40,29,-9,35
16,0,11,-22,-6,32,55,11,6,51
-1,1,5,-19,-21,35,27,-6,8,42
-8,-13,-2,-23,-25,18,2,-8,0,23
2,-13,16,-7,-13,13,-7,-7,-6,17
6,-5,33,0,-8,7,-19,-11,7,31
-4,-9,6,3,0,9,-20,-12,13,44
19,17,36,22,7,13,-18,-6,13,52
45,28,56,25,18,20,9,-9,14,43
28,0,39,7,11,5,37,-7,10,18
4,-16,16,-9,2,8,58,19,28,5
-3,-26,21,-17,0,22,71,42,28,7
-5,-24,14,-13,1,26,67,46,39,5
-15,-20,13,-13,4,33,80,50,41,19
-10,1,27,-10,14,22,74,56,58,39
-2,20,29,4,14,29,32,37,57,53
-5,1,24,-22,12,7,-13,10,38,59
-10,-13,6,-32,13,0,-34,-20,4,48
-17,-13,2,-22,17,13,0,-23,0,27
-30,-23,0,-13,30,14,20,-27,1,19
-37,-30,1,-10,41,28,15,-44,-17,14
-50,-16,0,-2,44,31,15,-42,-36,-18
-54,-6,7,13,42,40,37,-26,-41,-63
-53,-10,1,19,44,50,26,-21,-42,-94
-44,-16,-23,17,43,31,3,-28,-23,-89
-42,-17,-2,12,30,12,-21,-31,-22,-71
-26,-15,12,15,20,16,-29,-30,-26,-61
-8,-24,6,4,16,8,-23,-18,-12,-59
-11,-7,1,0,8,8,-26,-17,16,-55
-1,9,-59,3,-11,-6,-37,-8,26,-44
-7,23,-128,19,-16,-10,-65,-28,29,-22
2,15,-32,8,-4,-10,-102,-57,12,-27
-10,0,35,-5,6,-10,-123,-61,-6,-41
-20,-11,15,-10,-17,-19,-91,-50,6,-45
-30,-17,-2,-20,-20,-20,-59,-38,12,-51
-28,-22,-62,-27,-34,-16,-34,-7,40,-48
-25,-19,-98,-28,-37,-8,-10,21,53,-37
-27,-7,-10,0,-35,0,8,43,51,-24
-27,0,3,8,-42,3,-5,57,33,-16
-33,-2,-62,3,-36,7,-7,78,41,-9
-46,19,-43,5,-14,12,67,111,41,-20
-40,23,2,2,2,13,91,101,53,-20
-17,35,-38,29,17,13,106,69,31,-5
-1,46,39,50,7,4,88,36,1,12
8,63,79,47,20,4,66,21,1,43
11,48,53,45,29,11,39,13,-11,39
6,48,10,39,25,-2,0,-7,-20,20
10,51,-79,19,22,-4,2,-19,-17,14
14,46,-45,8,5,-14,-10,-23,-19,-4
17,36,28,-7,0,-16,-43,-15,-17,-10
-8,27,3,-18,-14,-21,-35,-15,-23,-15
-10,35,25,4,-20,-10,3,-3,-13,-13
6,34,23,10,-23,-7,28,4,4,-9
3,17,-51,-11,-17,10,16,15,20,-11
0,4,-145,-32,-23,7,14,30,11,-10
5,10,-76,-31,-23,-4,-10,31,20,-2
23,15,23,-29,-11,-16,-54,20,43,14
24,16,53,-43,-15,-10,-85,0,42,-6
17,31,73,-28,-8,3,-89,-44,20,-16
27,24,54,-29,-7,6,-97,-63,-43,-11
25,15,41,-34,7,-3,-88,-68,-53,-26
7,-8,30,-46,13,0,-71,-50,-47,-38
-14,-35,-4,-65,7,6,-18,-40,-66,10
-36,-46,-13,-74,2,2,35,-38,-70,18
-45,-26,-22,-27,2,49,121,15,-56,20
-43,-43,9,-28,-12,57,126,33,-33,23
-25,-36,11,-23,-15,66,104,63,-12,31
-18,-25,25,-9,-2,82,64,90,20,62
12,-15,44,9,9,78,50,77,51,93
40,8,58,23,17,72,11,53,74,102
41,32,59,34,21,65,-10,31,69,97
45,42,59,35,19,56,-14,24,39,93
47,36,19,33,11,56,-30,21,33,86
46,30,-72,27,12,46,-37,11,17,76
44,27,-10,19,20,40,-38,6,5,48
30,28,0,22,28,27,-40,-17,-5,22
17,25,18,12,27,22,-25,-32,-18,13
8,16,-30,12,15,30,-17,-29,-23,26
1,23,-40,22,11,36,-20,-30,-14,30
-3,5,-53,8,14,27,-29,-30,-22,26
-2,-4,-65,8,14,8,-18,-32,-12,0
-4,-10,-112,7,13,6,-18,-28,7,-11
-10,-11,-90,18,15,24,-20,-27,4,-12
-19,-11,0,20,14,44,-9,-36,-11,-13
-10,-16,54,18,4,44,3,-35,-1,-11
3,0,38,18,-2,39,25,-36,10,7
3,-1,33,10,-5,40,34,-46,16,24
12,-35,43,-6,-13,37,27,-33,0,29
7,-46,-23,-12,-15,28,28,-32,0,53
-13,-54,-38,-11,-15,31,36,-36,-9,48
-12,-59,-13,-16,-13,22,28,-23,-21,44
-2,-59,12,-16,-15,7,16,-19,-20,46
17,-54,10,-7,-19,5,0,-15,-25,45
41,-20,3,6,-11,18,16,3,-10,49
52,-13,26,7,-2,28,31,3,8,53
64,-20,22,-4,-2,31,16,-1,13,64
69,2,31,2,-1,30,8,-20,6,65
50,16,62,23,8,34,27,-25,0,33
1,5,66,21,3,38,27,-26,-14,-1
-56,-11,45,5,0,42,34,-14,-17,-56
-95,-35,32,-7,-9,25,26,-26,-34,-126
-89,-37,27,-23,-16,6,10,-44,-56,-137
-64,-26,15,-29,-9,4,18,-36,-51,-88
-40,-15,20,-23,-13,4,23,-22,-20,-13
-34,-21,15,-18,-18,-21,14,-8,-7,11
-20,-17,17,-9,-25,-37,0,-14,3,-11
10,-11,20,-12,-21,-26,-10,-38,5,-14
12,-7,27,-11,-7,-9,-27,-34,17,-18
-33,-5,32,13,10,0,-17,-7,8,-46
-67,-10,3,26,10,1,-14,-3,-3,-61
-57,-15,-71,32,9,-11,-17,-10,-15,-46
-46,-7,-14,21,-4,-24,-19,-20,-18,-31
-32,-4,1,19,-8,-27,-26,-6,-24,-28
-17,-14,5,16,-8,-25,-8,15,-23,-10
-21,-12,-2,1,-17,-30,25,20,-18,-6
-25,0,-1,3,-20,-28,51,27,-21,-21
-23,13,-6,18,-11,-5,69,36,-23,-36
10,10,-11,15,-13,8,80,39,1,-30
17,5,-8,16,-6,27,59,42,42,-15
34,9,4,24,-5,38,31,34,39,6
45,16,12,34,18,28,16,14,49,4
54,18,25,41,34,21,-8,9,49,-1
55,29,5,48,40,9,-30,5,44,14
48,47,-18,72,41,4,-44,3,51,15
52,48,26,67,34,-9,-57,5,53,15
56,47,17,51,22,-23,-72,0,50,10
58,47,5,37,8,-23,-78,-5,25,15
44,29,-21,34,5,-22,-63,5,41,20
33,11,-14,32,0,-20,-41,9,30,11
15,-1,-11,16,5,-22,-13,-3,24,9
12,1,-9,15,-1,-15,12,-9,22,8
-5,-3,-4,10,1,-1,0,-5,19,-11
-17,-22,-26,0,-2,4,-11,1,11,-26
-22,-19,-29,-6,0,-6,-5,8,5,-25
-2,11,-23,0,8,-13,-8,19,17,-36
2,15,-17,7,7,0,11,17,25,-32
7,42,8,-9,-9,-25,12,-5,4,-25
20,72,8,-6,-18,-42,-9,-26,-11,-3
17,69,-39,-16,-18,-41,-31,-55,-32,9
20,59,-16,-12,-19,-56,-32,-74,-49,5
29,61,4,-12,-20,-58,-51,-72,-70,13
33,38,-1,-19,-36,-70,-82,-75,-82,15
10,20,-72,-23,-27,-69,-73,-77,-65,-14
-5,16,-79,-46,-22,-64,-64,-71,-65,-32
-17,2,-31,-51,-32,-66,-55,-59,-60,-27
-23,-17,-27,-43,-44,-62,-45,-44,-66,-28
-16,-20,-26,-44,-44,-60,-20,-29,-51,-32
-13,-22,-30,-50,-45,-47,10,10,-47,-16
-21,-13,-20,-55,-45,-13,37,51,-21,2
-25,-9,-36,-42,-35,0,58,82,7,4
-13,-11,-124,-25,-8,2,71,92,23,6
-5,2,-113,-8,1,22,76,109,29,8
-6,30,6,21,11,14,89,108,19,2
20,31,76,43,44,16,95,78,19,-26
35,37,70,37,42,24,107,77,31,-10
43,49,71,30,40,11,87,76,64,11
42,52,62,27,39,-1,63,67,93,37
42,41,18,41,39,4,31,45,77,41
40,40,34,31,24,4,11,27,44,52
29,34,48,28,5,-7,-17,12,33,39
0,13,34,24,8,-9,-21,-5,22,-1
-37,-8,17,21,2,-26,-4,-25,-12,-58
-52,-17,-3,11,3,-26,-15,-27,-55,-45
-56,-25,9,-3,11,-29,-21,-30,-53,5
-48,-32,19,0,6,-39,-21,-38,-45,14
-30,-19,14,13,11,-28,-42,-32,-44,7
-19,9,19,31,12,-33,-48,-34,-30,10
-11,-9,20,12,-6,-40,-56,-40,-34,21
-16,-23,2,-10,-8,-47,-58,-48,-43,25
-35,-16,-7,0,-2,-57,-23,-32,-33,24
-27,-16,-3,-2,-5,-50,0,-10,-28,24
0,-8,-6,-15,-9,-37,8,15,-21,29
15,5,-5,-13,-1,-33,16,33,5,35
17,18,1,7,15,-35,8,38,33,59
5,23,4,10,14,-25,-32,21,33,68
-5,18,7,1,15,-28,-45,7,23,77
-5,16,5,9,17,-27,-32,-11,8,77
-25,2,0,-5,14,-12,-1,-10,-8,55
-45,-8,0,-30,-3,-12,18,-14,0,29
-37,-15,-8,-29,-13,-5,13,-16,-4,25
-31,-16,4,-29,-18,-1,9,-11,-14,43
-30,-4,-3,-16,-19,-8,-26,-16,-29,63
-31,-20,-19,-14,-18,1,-48,-11,-16,55
-22,-22,8,-4,-3,-5,-54,-12,3,66
-14,-25,0,-3,3,-27,-30,-5,-9,74
-17,-22,1,-13,3,-16,-22,0,-24,53
-10,-20,3,-22,-3,-15,-40,1,-22,34
10,-22,-33,-19,-7,-11,-31,8,2,36
15,-22,-81,-2,0,2,-1,23,23,41
17,-23,-14,1,0,12,24,26,17,61
25,-29,8,1,6,20,70,19,32,133
32,-33,11,6,15,20,90,28,39,127
35,-39,11,17,21,41,74,24,32,78
20,-50,-5,25,23,22,62,26,14,43
16,-48,-8,10,23,12,41,31,12,17
24,-42,14,9,10,24,6,41,22,17
22,-32,22,20,18,22,-17,48,23,8
9,-31,19,10,23,15,-16,43,16,-1
-4,-21,23,23,19,1,-19,43,28,0
14,-19,27,23,15,-3,-51,32,29,-7
4,-18,28,9,14,1,-55,11,24,-18
-2,-23,25,7,8,-4,-54,8,13,-34
5,-13,-13,3,4,-7,-42,-2,1,-52
4,14,-33,12,0,-23,-24,-8,-6,-59
-10,15,-9,2,4,-16,-14,-16,-4,-55
-7,7,20,-6,1,-17,-2,-27,-19,-45
2,4,12,-20,-10,-11,44,-7,10,-45
0,6,6,-20,-10,0,37,-2,-3,-26
-10,5,14,-21,-9,0,34,2,-11,-3
4,0,3,-12,-8,18,34,1,5,7
15,24,-4,8,-13,19,22,-4,5,16
-2,7,22,-3,-20,25,-4,-21,-4,5
-14,-8,-3,-9,-14,33,-3,-30,-20,-22
-22,-12,-8,-13,-1,29,-25,-23,-45,-52
-30,-12,15,-18,-4,14,-47,-27,-39,-50
-9,-3,17,-9,-8,5,-29,-31,-27,-28
-3,2,17,7,6,-11,-17,-34,-22,-21
-12,4,12,6,12,15,0,-32,-21,-5
-13,0,3,-1,3,22,16,-13,-5,3
-25,-17,0,2,-6,22,9,12,-6,0
-23,-25,-6,1,-3,37,3,31,-13,-7
5,-14,0,-2,-2,28,-4,31,5,-5
24,14,-23,8,0,0,-7,34,18,-19
17,19,-53,18,8,9,-4,37,12,-23
24,20,20,15,10,14,-17,17,17,0
44,31,22,27,13,0,-32,8,23,33
39,30,-72,13,18,1,-20,12,70,54
30,17,-107,-8,2,-3,1,14,59,71
28,17,-5,-29,-14,-11,-1,1,28,61
23,25,30,-33,-7,3,-2,-17,31,9
0,21,30,-20,7,0,11,-15,9,-55
-32,27,23,-16,15,1,-2,-3,-16,-88
-20,34,28,-16,6,-13,-40,-8,-19,-51
-18,19,21,-30,-7,-17,-56,-18,-7,-4
0,1,13,-55,-26,-15,-58,-30,-19,24
-4,4,-7,-66,-37,-12,-63,-24,-33,-17
-11,16,-12,-56,-32,10,-46,-24,-38,-56
-11,27,-9,-42,-17,8,0,-10,-22,-67
-11,14,2,-38,-27,15,27,14,-13,-68
-7,1,-18,-24,-37,24,32,45,-24,-52
-4,2,1,-19,-40,16,42,74,-25,-18
8,1,0,-32,-29,27,55,75,-19,14
22,-19,0,-40,-29,24,66,67,-12,49
33,-21,14,-37,-11,13,64,39,2,53
34,-2,23,-18,4,19,79,21,0,48
30,16,24,-6,1,28,83,9,-12,42
38,13,28,0,0,24,64,-7,-10,42
33,14,-37,7,-12,5,63,1,14,37
28,8,-79,-2,-16,-7,42,4,6,28
28,4,6,-8,-19,-27,32,2,-1,6
48,1,17,-13,-14,-31,22,-4,9,-2
66,2,28,-21,-10,-7,1,-2,20,13
62,-4,38,-28,-7,-6,-12,-1,21,21
60,11,28,-30,2,-3,-10,-3,8,18
49,30,12,-13,11,-14,-10,0,14,8
32,28,-2,7,12,-13,-22,0,-4,-12
17,12,27,1,13,-10,-55,-7,-25,-47
5,8,34,9,19,-5,-58,-17,-30,-67
5,-1,30,15,23,19,-54,-27,-35,-77
8,-5,11,16,16,1,-52,-29,-43,-76
9,-23,0,3,6,-10,-34,-13,-38,-49
11,-22,-4,-1,1,-1,-14,-8,-29,-17
-1,-10,1,9,0,-8,5,-4,-28,-17
-12,-35,-15,-10,-4,3,9,13,-6,-39
-1,-34,-10,-25,-13,6,39,18,23,-41
-1,-28,-2,-33,-19,4,37,22,26,-39
15,-22,14,-18,-6,22,28,18,58,-40
26,-1,29,6,7,19,3,13,54,-40
25,5,35,15,4,12,-27,-1,10,-47
20,22,42,29,8,21,-26,-12,5,-42
18,31,32,30,14,20,0,-7,16,-35
21,15,13,23,10,13,21,-1,16,-40
18,8,2,20,20,3,27,-3,17,-59
9,2,-29,18,18,15,45,-14,-1,-67
12,0,-61,20,15,9,35,-8,-11,-69
6,-1,-4,22,13,-8,24,-8,4,-65
-22,-2,13,12,4,-8,13,-22,-11,-69
-43,-21,-34,0,-3,-8,18,-32,2,-53
-53,-28,-2,-12,2,-6,20,-34,3,-29
-54,-38,2,-26,-7,-16,0,-31,-11,-10
-45,-37,-7,-36,-39,-23,0,-29,-5,-5
-35,-24,12,-35,-53,-28,2,-21,-1,-10
-43,-23,12,-28,-36,-32,-10,-16,-4,-34
-45,-20,6,-15,-15,-26,-36,-11,-4,-42
-43,4,13,0,-7,-35,-32,-2,4,-40
-33,26,39,20,-2,-15,-22,4,22,-10
-6,15,14,0,11,-12,-5,15,34,13
3,11,-25,-5,5,-14,6,30,59,13
5,15,0,5,-4,-22,3,26,63,20
11,10,-52,6,-4,-16,0,12,30,39
13,2,-5,2,-7,-24,-5,11,28,59
6,14,4,-13,-12,-26,-17,-1,15,50
-10,20,-7,0,-25,-26,-32,-16,-15,-4
-17,-1,-26,-21,-18,-21,-43,-26,-18,-31
-12,-22,-110,-22,-16,-33,-42,-24,-18,-33
-21,-34,-177,-29,-32,-43,-20,-23,-27,-27
-2,-10,-33,-26,-34,-41,-6,-4,-4,67
7,3,-4,-10,-25,-44,-2,-6,18,70
15,11,10,-2,-20,-45,18,-15,22,73
20,13,10,-13,-7,-44,14,-27,8,73
19,1,9,-19,0,-41,8,-32,5,59
11,0,16,-7,6,-27,-7,-18,-6,32
-3,0,17,18,19,-16,-32,-17,-17,-7
-21,-3,24,20,23,0,-29,-13,-32,-33
-28,-19,20,15,19,-1,-10,3,-16,-15
-39,-23,21,0,10,-3,24,24,-2,10
-45,-21,12,4,7,8,58,31,20,28
-40,-37,0,9,3,19,74,29,15,27
-36,-49,-15,12,9,6,88,43,22,17
-30,-39,-6,20,12,12,77,46,34,2
-24,-30,-31,29,23,8,64,31,26,3
-6,-20,-66,21,11,4,48,22,36,28
19,-2,3,37,9,0,-9,7,26,56
22,18,28,57,24,-4,-33,0,17,62
22,20,44,59,21,-7,-48,-10,12,55
17,15,30,37,17,-25,-76,-28,9,48
17,8,20,15,15,-46,-38,-27,4,87
3,-3,27,23,22,-39,-43,-25,-9,48
-22,-8,-12,19,24,-27,-41,-15,-35,-32
-51,-2,-22,17,11,-24,-22,-10,-33,-85
-41,6,11,29,0,-19,-33,-9,-17,-81
-3,-6,16,28,1,-26,-68,-18,-3,-29
-1,-2,-41,26,12,-27,-88,-23,4,1
-9,3,-32,30,17,-26,-106,-31,-26,-2
-17,-7,20,12,18,-19,-94,-36,-40,-13
-22,-19,12,1,6,-18,-74,-50,-55,-12
-37,-29,-2,-5,-7,-13,-36,-53,-65,-21
-42,-24,-30,-20,-16,-10,-29,-43,-54,-25
-50,-4,-18,-15,-15,6,-31,-27,-45,-3
-55,-22,-19,-30,-21,19,-10,-4,-40,8
-70,-27,-34,-29,-18,38,27,27,-25,8
-44,-21,-39,-19,-8,32,49,58,-19,25
-22,-6,-79,-5,-5,42,61,81,-5,25
-1,9,-38,0,-6,46,68,101,21,36
16,16,-9,6,-2,36,57,102,29,56
15,13,-65,20,1,22,31,97,49,65
-5,1,1,22,6,6,14,74,38,42
1,-10,36,3,6,13,21,59,36,34
41,3,31,-4,-3,-4,13,41,34,37
57,10,31,-8,1,0,-7,28,36,31
48,12,28,-8,-4,7,-16,16,42,6
34,12,26,4,-6,17,5,7,58,-13
24,21,33,18,-2,7,24,-13,32,1
20,20,24,18,-9,3,21,-25,-1,17
9,0,16,12,-5,0,-4,-39,0,34
-10,-3,0,18,10,16,-16,-53,-2,38
-14,4,-50,21,28,0,-8,-70,-26,7
-17,-6,-4,4,8,-6,-9,-68,-62,-2
-25,-27,-8,-13,-14,-20,-11,-67,-84,-14
0,-12,-8,-19,-21,-34,4,-60,-82,-11
14,14,-17,-25,-9,-37,5,-51,-56,18
6,9,-73,-39,-2,-34,3,-30,-40,22
-3,-1,-26,-35,0,-38,1,-3,-17,27
-15,-8,8,-43,-11,-33,-23,14,2,25
-25,-14,-24,-39,-15,-32,-16,29,29,18
-9,-24,-52,-33,-22,-24,-11,43,25,0
-9,-19,-31,-28,-30,-12,-3,46,16,-1
-10,-17,-30,-30,-23,-3,31,44,16,5
-11,-21,-26,-32,-7,9,68,34,22,7
-17,-11,-2,-19,3,23,106,14,24,-6
-8,-1,14,0,4,36,114,5,23,-1
12,7,27,15,3,49,87,2,22,13
18,32,29,31,0,40,14,-20,17,16
32,33,43,41,13,20,-20,-19,11,14
43,36,41,41,32,4,-19,-18,13,22
51,31,2,25,19,14,-55,-18,9,38
43,32,-19,17,12,2,-59,-9,26,49
40,23,3,18,8,10,-60,2,36,45
41,28,21,29,4,12,-64,3,41,39
19,33,12,37,0,16,-49,-2,34,28
-15,27,19,30,5,16,-39,12,43,1
-39,27,25,42,16,31,-49,26,37,-39
-30,32,27,41,15,24,-44,11,39,-65
-6,24,1,38,-1,15,-59,-7,-5,-68
-8,17,-17,38,1,21,-68,-29,-31,-25
-17,3,30,14,2,13,-57,-49,-37,6
-19,-16,27,0,-4,22,-35,-45,-40,-7
-22,-28,17,-1,3,13,0,-28,-29,-30
-28,-24,18,-8,-2,15,26,-16,-29,-36
-28,-8,25,-13,-4,1,17,-7,-28,-16
-4,-2,25,-28,6,4,26,4,-24,-11
2,-10,19,-26,21,21,27,16,-25,-5
-5,-6,27,-34,23,3,42,29,-8,4
18,0,7,-36,9,5,75,66,22,16
32,-6,-90,-41,3,5,83,89,46,23
27,-5,-131,-39,1,32,104,85,43,28
29,12,-10,-13,14,40,109,70,54,47
21,22,61,8,17,23,84,54,57,46
-3,12,61,-1,12,13,59,39,34,40
-2,16,58,5,20,13,38,29,30,41
11,8,45,5,16,15,0,21,35,33
13,-3,39,5,-3,21,-2,19,16,37
2,-6,30,3,3,1,1,11,-1,28
-8,9,-17,15,4,-13,-15,-19,0,16
2,23,-7,31,7,-22,-50,-39,11,14
0,17,44,18,14,-42,-71,-54,-3,-3
7,3,50,19,10,-47,-53,-62,-7,-22
10,8,47,14,11,-45,-42,-58,-2,-41
-1,5,10,7,0,-34,-44,-47,-7,-57
-15,-3,4,-4,-15,-29,-36,-39,-15,-63
-14,-23,11,-14,-22,-32,-27,-8,-12,-59
-10,-19,13,7,-17,-19,9,35,4,-43
0,-3,16,8,-14,-18,34,50,21,-14
6,2,10,-18,-14,-11,39,59,20,8
11,2,-2,-28,-6,-11,40,52,27,48
-13,-9,-61,-31,8,-4,20,43,9,41
-48,-11,-4,-16,7,1,-8,42,4,-8
-41,-11,0,-7,0,15,-18,37,5,-28
-26,1,20,6,9,17,-23,13,23,-34
0,22,20,26,26,17,-39,0,12,-16
13,22,-33,17,21,24,-41,3,-7,-16
9,9,0,7,22,12,-35,-2,-6,3
10,7,25,6,16,7,-48,5,-13,27
22,6,-10,9,23,-7,-38,-3,-10,7
14,7,-48,17,19,-4,-21,-12,-22,-40
-8,12,13,22,-4,-10,17,-23,-36,-88
7,29,28,29,-3,2,30,-22,-40,-83
18,40,25,26,2,-10,40,-2,-30,-73
11,31,16,19,3,-1,36,8,-41,-78
7,26,15,14,5,0,27,12,-19,-79
9,25,6,11,5,3,14,9,-10,-63
18,18,5,14,7,-5,10,-6,-8,-63
30,15,-10,8,-2,7,13,-21,-11,-60
23,19,-97,8,-9,6,13,-26,-26,-49
5,28,-84,7,-15,0,20,-24,-34,-31
-3,17,-22,0,-21,-9,-10,-21,-23,-41
1,16,-20,5,-17,-5,-48,-27,-21,-47
9,19,-98,5,-19,-11,-72,-38,-7,-43
29,15,-96,10,-14,-15,-73,-55,0,-27
31,8,0,11,-12,-19,-69,-57,-22,-28
15,3,31,26,2,-27,-57,-54,-28,-33
4,13,38,38,13,-21,-61,-36,-25,-17
9,6,34,32,3,-16,-57,-12,-17,12
3,-7,26,13,-12,-13,-26,-3,3,34
-20,-15,15,8,-24,-12,4,-16,-13,28
-48,-19,32,-2,-22,0,27,-16,-32,-1
-34,-16,30,-19,-23,6,31,-3,-20,0
-22,-16,25,-34,-16,3,27,0,6,5
-17,-2,36,-15,-11,15,20,3,10,21
-12,17,40,0,-11,29,11,15,18,48
-12,11,-27,-15,-3,20,12,33,24,69
-16,2,-38,-11,3,23,21,38,29,64
-14,13,24,-9,10,18,8,26,42,75
-6,34,-2,-6,23,38,6,16,74,87
8,47,40,0,21,34,12,20,54,80
-7,33,52,2,16,5,22,7,28,64
-4,41,16,25,24,-7,38,2,26,56
15,38,40,22,23,-16,47,4,13,49
22,17,46,-1,10,-18,31,-2,16,40
20,8,38,-1,-1,-20,1,3,37,33
12,5,39,4,2,-17,-20,20,40,42
-12,3,35,2,6,-10,-27,10,16,40
-6,-1,32,4,-7,-7,-36,-6,13,26
-16,0,25,4,-14,-11,-42,-7,3,3
-29,-4,18,-3,-3,-20,-5,-2,-1,-20
-40,-9,17,-21,0,-4,2,6,-5,-30
-36,1,16,-30,-18,-3,-31,8,-11,-15
-37,7,8,-37,-18,7,-27,6,3,-31
-40,3,8,-42,-7,7,0,4,14,-38
-35,0,3,-35,-9,14,10,7,5,-33
-29,-6,-2,-37,-16,3,-2,9,4,3
-15,-2,-5,-19,-10,4,-29,-10,-6,27
2,-1,-37,-12,-11,-11,-15,-18,-6,12
13,-7,-22,-9,-18,2,-10,-12,-10,8
24,5,11,-12,-12,0,-7,-17,-2,5
12,3,4,-17,-15,5,-11,-9,-19,12
-11,-6,-6,-19,-10,8,-34,-6,-26,26
-21,-7,-20,-23,-8,10,-19,6,-36,11
-23,0,-25,-18,-9,-1,-16,28,-36,0
-10,-1,0,-9,-10,11,-9,39,-28,5
7,-26,0,-22,-4,12,-2,29,-3,14
13,-2,0,-16,-1,20,2,25,12,39
18,8,6,-16,-5,0,11,9,6,60
20,11,10,-14,-12,-4,5,-10,-18,41
13,19,18,-14,-8,-6,0,-17,-8,10
4,-5,1,-7,-16,-3,-7,-22,3,-18
-2,-8,-7,16,-14,-9,-12,-18,-1,-20
-21,-12,-11,5,-2,-16,-7,-17,-8,-41
-46,-21,-11,11,9,-10,13,-13,-30,-65
-36,-16,-7,27,20,-2,51,-18,-43,-75
-42,-25,-13,14,19,-2,63,-1,-28,-99
-50,-22,-19,2,8,6,90,10,-14,-99
-23,-17,-19,0,4,6,106,25,-3,-65
-13,0,-8,29,14,15,97,27,3,-41
-5,0,-48,47,18,12,84,24,-11,-37
18,-15,-130,32,19,16,62,20,-9,-49
31,-2,-65,20,9,2,46,24,27,-42
31,4,9,7,8,4,42,30,33,-40
52,7,16,-7,7,-1,28,32,29,-30
43,2,3,-2,9,-1,-21,21,34,-27
30,-2,-55,-2,21,-1,-35,5,31,-26
23,13,-18,8,23,-1,-34,-15,22,-6
15,9,21,0,4,-8,-53,-33,10,-4
11,-7,19,2,0,-6,-79,-53,-7,-9
5,-17,21,1,3,-7,-90,-61,-24,-2
1,-29,23,-2,9,-6,-86,-59,-38,1
7,-31,-7,-4,-2,-6,-66,-71,-44,-5
6,-27,-11,6,-9,-6,-67,-75,-52,-15
7,-17,12,3,-5,-6,-50,-70,-52,-32
6,1,12,-13,-9,8,-28,-62,-48,-31
-9,0,5,-37,-12,7,-4,-40,-51,-26
-26,-8,13,-46,-5,10,31,-14,-48,-17
5,-12,5,-42,-2,20,75,13,-38,-7
12,-17,-3,-27,-2,25,94,30,-16,13
20,-11,-38,-30,-8,33,94,54,22,48
38,-2,-101,-22,-6,24,81,55,46,57
42,24,-26,-1,-10,24,54,55,60,63
46,17,5,18,1,25,14,61,95,77
47,-2,11,19,13,10,-14,42,93,64
25,5,26,34,20,13,-2,21,74,18
4,5,18,28,16,-3,9,0,30,-39
1,-6,-17,8,-2,-17,-16,-11,7,-52
7,-6,-5,0,-12,-16,-23,-19,-7,-25
-1,-8,-5,13,-5,-19,-4,-18,-15,-13
6,-26,-6,10,-14,-24,12,-11,-5,-9
25,-35,-1,-12,-20,-16,16,3,8,-2
12,-43,-4,-32,-15,-8,16,2,10,-5
4,-47,-2,-21,0,3,20,-4,2,1
5,-40,-25,-10,13,0,20,-17,0,5
1,-42,-40,0,14,16,4,-7,11,14
-3,-28,5,5,12,0,-6,-5,17,30
7,16,12,12,7,-18,-15,-11,17,53
0,20,18,18,20,-25,-28,-13,2,30
24,5,15,0,33,-17,-42,-23,2,17
42,-11,2,-33,5,-27,-56,-32,-1,14
7,-37,-69,-36,-11,-23,-24,6,13,-8
7,-29,-79,-33,-26,-14,-10,26,24,-5
22,-9,2,-28,-42,-26,-3,8,12,-11
24,-6,10,-11,-33,-26,21,-1,-9,-24
44,-3,4,-14,-21,-12,28,13,-1,-58
7,-19,18,-18,0,9,25,39,5,-77
-19,-19,18,-5,13,10,19,47,5,-82
-12,-18,13,8,17,8,13,53,39,-72
7,-14,14,1,7,-8,-5,39,29,-39
-4,4,9,2,4,-20,-22,22,16,-13
-32,3,0,9,15,-9,-26,18,5,0
-19,12,14,18,6,-19,-48,3,-4,33
-36,-8,22,13,13,-24,-56,-7,-10,23
-49,-32,-39,5,20,-16,-54,7,23,2
-13,-19,-38,-17,8,-33,-57,-14,10,8
17,0,36,-33,-5,-44,-63,-27,-15,-6
-13,-9,36,-16,-14,-27,-32,-11,-9,-20
-24,-9,33,-8,-11,-16,-15,-7,-23,-13
-29,0,26,0,-3,-20,-11,0,-32,7
-31,3,12,0,-13,-31,-33,1,-17,5
-13,3,22,-3,-20,-38,-45,-17,-33,2
1,12,21,-15,-23,-32,-24,-4,-27,11
-7,5,5,-43,-19,-36,0,3,-6,14
4,8,2,-35,-20,-34,-2,9,-15,14
-3,-4,4,-28,-17,-17,-20,10,-2,5
0,-3,6,-17,-12,-7,-9,1,-7,-2
-1,2,18,1,-7,-1,-14,-3,-18,2
5,-21,0,-8,-6,7,-4,3,-28,1
13,-20,8,-8,-9,19,1,0,-19,13
24,-7,14,0,5,19,5,-3,0,33
37,4,23,8,18,24,-1,0,-17,46
42,21,26,20,31,23,-10,0,-12,53
38,32,32,17,27,27,-7,9,8,59
24,51,20,16,16,19,-24,10,3,53
17,40,18,14,20,33,-31,-2,3,33
26,14,27,-6,27,39,-25,-4,2,30
40,38,37,2,37,30,-23,-2,26,39
36,31,30,4,43,28,-28,-5,26,58
29,29,23,-8,47,23,-18,-8,15,40
21,35,14,-1,49,12,-6,-14,6,24
15,35,16,3,36,11,-2,-23,-18,8
13,25,8,-3,26,-3,-6,-30,-32,3
15,19,-8,1,12,12,-4,-30,-22,0
11,9,-11,1,12,11,-22,-23,-24,13
0,1,-33,4,18,14,-25,-23,2,21
-2,5,-137,1,14,1,-37,-29,18,29
-22,-5,-139,-5,8,-5,-55,-32,0,8
-29,-3,-41,-3,0,-21,-45,-39,6,-28
-25,0,-14,1,0,-15,-49,-37,-2,-37
-21,-19,-30,-13,-13,-9,-33,-22,-25,-49
-17,-35,-30,-22,-16,-10,16,15,-33,-44
-16,-13,-55,-27,-4,-10,25,40,-32,-40
-21,0,-83,-18,1,1,18,48,-17,-29
-7,-9,-39,-12,3,25,34,47,4,-27
0,-5,28,-7,-4,14,80,47,-10,-15
15,13,-4,6,-14,21,100,60,-3,13
