224,554,97,84,140,41,72,-40,64,37
151,407,51,63,103,43,111,-57,39,37
-34,-31,-46,12,3,41,113,-128,-3,39
-79,-115,-31,-4,-23,29,109,-162,-20,10
-79,-110,-26,-21,-30,18,82,-158,-2,-9
-78,-127,-42,-60,-52,-9,64,55,55,-14
-69,-117,-56,-61,-47,-21,68,253,99,-24
-26,-25,-111,-24,-14,-6,46,183,56,-25
-29,-67,-21,31,19,22,12,61,-3,-8
-5,-35,72,78,60,55,-23,-71,-19,21
24,10,93,75,55,47,-87,-244,-56,30
29,0,59,45,21,-15,-171,-247,-132,50
36,-62,7,16,-6,-64,-228,-136,-186,75
53,-39,25,27,7,-49,-132,-86,35,109
91,-24,26,4,12,-23,-67,-144,36,121
92,-20,-4,-21,11,1,-22,-151,23,123
62,-18,-17,-47,-27,-13,-52,-139,18,77
49,-35,-14,-66,-67,-41,-88,-119,-20,8
-1,-59,-42,-80,-84,-32,-33,204,22,-46
-42,-97,-123,-87,-100,-33,47,600,116,-58
-44,-107,-212,-104,-94,-58,24,422,79,-38
0,-37,-144,-85,-61,-61,-26,80,26,-11
171,389,5,-28,32,-55,-11,40,55,-13
242,549,22,0,94,-38,5,117,40,-63
58,120,31,-5,50,-1,22,163,-15,-49
-38,-108,28,1,17,17,30,240,-11,-5
-58,-104,51,39,41,32,21,165,-19,-23
-60,-102,52,52,29,51,4,62,-43,-45
-49,-91,11,36,21,34,-34,40,-39,-44
3,-11,-28,34,39,22,-35,49,-23,-33
19,1,23,40,36,31,-21,76,-7,-27
-26,-67,23,29,32,28,-15,54,-12,-39
-43,-55,36,17,23,17,-32,27,-14,-47
-44,-47,29,-5,0,5,-34,32,-1,-28
-50,-62,-6,-30,-25,7,-12,52,14,-26
-57,-70,-29,-43,-38,0,23,52,36,-15
-41,0,4,-15,-19,11,51,48,64,2
63,342,92,41,54,32,69,92,91,14
109,451,98,48,98,46,67,138,105,7
-1,76,32,0,23,38,33,65,72,7
-64,-137,-18,-39,-26,12,12,56,56,3
-74,-135,-16,-42,-34,0,-16,28,28,2
-74,-126,-16,-31,-35,-6,-29,12,26,-7
-82,-117,-51,-19,-28,3,-21,5,18,-15
-40,-29,-56,-8,3,6,-35,-28,2,-9
-28,-43,-39,-39,-19,-20,-60,109,38,10
-19,-87,-33,-26,-23,-1,-90,116,23,40
41,-36,32,40,21,34,-101,-108,-39,67
51,-22,62,46,30,34,-108,-242,-85,69
9,-52,39,17,-1,13,-94,-61,-43,51
-29,-81,11,-6,-8,1,-62,150,0,9
-61,-58,-9,-35,-7,-4,-25,221,9,-38
-23,32,-9,-9,29,8,20,243,21,-38
-31,-58,-8,-6,12,9,22,170,4,-26
-30,-87,-17,-47,-41,-5,0,146,8,-17
-11,-86,-49,-68,-62,-23,-27,113,-4,-1
8,-76,-45,-50,-46,-23,-34,51,-25,15
26,-43,-18,-31,-36,-35,-39,-18,-56,21
58,4,0,-8,-28,-23,-36,-60,-88,34
146,229,67,38,45,6,4,7,-54,59
266,578,56,79,127,10,27,132,23,72
193,364,-70,71,81,1,7,97,26,65
36,-26,-57,29,1,-1,-32,-13,-32,55
-6,-58,22,29,-5,-17,-82,-74,-55,48
-10,-36,38,47,13,-8,-125,-133,-59,37
3,-33,31,37,14,-2,-121,-193,-73,39
7,-9,24,29,8,-3,-85,-220,-68,38
23,56,33,33,17,1,-49,-199,-71,24
-11,-45,31,47,17,23,3,-200,-79,9
-41,-89,19,29,5,23,18,-202,-65,-21
-66,-125,-46,-44,-51,-6,17,-61,-28,-44
-87,-170,-117,-81,-82,-33,49,247,55,-41
-73,-161,-105,-45,-55,-4,73,239,34,-59
-63,-127,-60,-29,-43,15,79,122,0,-75
50,117,-20,-41,-37,10,86,91,36,-76
175,381,2,-54,-16,-4,45,36,76,-45
-25,-8,-31,-55,-59,2,-19,-35,25,-66
-100,-146,-25,-4,-46,9,-37,102,51,-85
-78,-132,-26,-9,-32,1,-35,220,72,-72
-56,-122,-23,-26,-38,-8,-45,145,50,-49
-59,-94,-12,10,-3,9,-30,44,24,-45
-38,13,19,50,48,39,5,36,35,-53
45,250,45,57,71,37,4,68,60,-45
-51,-9,-4,4,3,18,4,0,31,-29
-81,-94,-7,-15,-18,21,48,-20,38,-18
-57,-79,12,9,-2,48,50,28,36,-1
-38,-57,34,23,-10,38,49,25,41,5
-34,-43,25,20,-11,31,30,-62,40,-8
-28,-11,28,6,-9,28,51,-119,44,-4
-2,84,25,-11,-19,7,77,-64,68,29
-8,59,31,-31,-48,-13,65,-21,66,45
-17,2,66,-3,-14,7,55,-3,29,55
-11,-30,72,2,4,11,45,2,33,68
17,-30,53,-13,-6,-17,5,-53,44,106
48,-30,33,-12,-4,-20,-5,-73,47,116
45,-40,4,-22,0,-12,-19,-60,65,115
82,35,0,-17,28,-15,-40,-42,88,96
261,391,20,-11,92,-35,-78,-25,136,62
261,434,4,-19,80,-63,-125,-55,127,55
41,41,-3,-32,-3,-86,-142,-125,57,43
-65,-120,-15,-52,-47,-89,-167,-215,19,31
-97,-152,-91,-67,-71,-91,-178,-323,-25,2
-86,-163,-99,-89,-99,-103,-188,-320,-65,-30
-95,-163,-63,-97,-112,-87,-88,41,-42,-65
-59,-48,-49,-72,-62,-41,78,538,60,-52
-31,-30,3,1,0,24,145,684,81,-27
-49,-56,50,54,46,57,104,457,11,-36
-76,-67,30,43,45,69,106,275,-12,-60
-113,-87,15,11,20,55,101,122,-33,-115
-81,-25,87,49,57,74,13,-184,-129,-126
-44,15,79,92,88,91,-60,-448,-238,-102
5,72,73,102,99,63,-102,-441,-265,-91
39,135,112,92,94,31,-125,-247,-204,-79
-25,-1,89,75,64,30,-104,-116,-153,-65
-10,-18,53,57,36,13,-25,-74,-119,-34
8,-2,-41,23,-8,-18,16,-3,-90,7
-16,-18,-173,-13,-44,-47,31,34,-63,21
-38,-30,-127,-25,-53,-43,29,57,-41,11
-47,0,0,-21,-44,-39,47,60,-30,4
24,199,53,-31,-17,-45,98,355,70,39
125,420,39,-28,15,-49,129,654,198,66
57,164,21,-9,10,-18,125,304,134,73
-19,-117,16,-4,-1,22,130,-231,29,74
7,-91,60,53,41,62,81,-608,-60,70
49,-26,137,108,81,81,-8,-731,-149,70
67,-1,142,121,73,71,-49,-592,-145,58
67,22,73,84,24,10,-68,-461,-103,43
52,30,42,17,-27,-42,-19,-96,26,44
-14,-87,-3,-47,-78,-58,1,73,70,23
-36,-101,-26,-73,-78,-50,-17,-89,4,0
-31,-94,-42,-80,-75,-45,2,-52,-15,4
10,-69,0,-38,-37,-7,19,72,5,35
26,-64,30,-10,-9,-8,-11,-15,24,74
-15,-82,-12,-32,-44,-56,-60,-203,-23,23
44,118,8,-13,2,-43,-45,-120,-39,-37
166,488,76,34,97,4,-26,104,15,-65
53,176,37,24,44,25,-10,170,6,-69
-21,-102,3,22,14,51,61,152,20,-48
-24,-101,-24,-5,-11,70,136,122,59,-22
-50,-97,-33,-25,-33,59,116,118,62,-24
-87,-112,-74,-30,-22,30,48,182,52,-54
-48,3,-33,2,21,50,-12,120,29,-56
44,202,82,40,69,48,-54,40,7,-28
-11,-9,45,38,30,25,-50,8,-28,-5
-26,-71,-37,27,17,22,-48,-44,-52,4
-40,-110,-142,-19,-23,8,-53,10,-22,0
-44,-121,-87,-51,-54,-1,-35,186,33,9
-40,-108,-5,-39,-41,-1,0,250,60,9
-37,-79,6,-22,-36,-6,12,179,72,33
-6,-16,-5,-14,-39,-16,7,99,73,25
-31,-61,-24,-35,-57,-21,13,101,65,8
-48,-103,-29,-38,-45,1,58,147,38,1
7,-55,-46,1,-11,20,68,-18,-23,12
61,-1,32,56,23,24,34,-199,-76,29
49,2,40,71,42,24,40,-221,-63,22
21,-17,15,42,24,0,82,-196,-43,16
69,95,59,30,28,-6,92,-185,-40,31
238,495,48,24,88,-13,100,-92,47,43
232,484,79,0,71,-29,79,-60,85,48
29,29,29,-30,-34,-34,65,-109,25,48
-48,-126,-46,-57,-67,-59,40,-97,-4,20
-44,-139,-75,-74,-67,-82,19,-95,-12,1
-40,-118,-27,-37,-45,-54,-6,-126,-53,-16
-58,-114,-12,-23,-48,-23,-18,-96,-65,-55
-40,-66,-47,-63,-49,-25,29,-22,-33,-85
-81,-128,-60,-66,-44,-37,30,-95,-64,-125
-106,-160,-70,-53,-50,-27,4,-230,-75,-137
-103,-152,-72,-41,-38,-11,-25,-278,-94,-149
-126,-146,-41,-39,-57,-23,-41,198,16,-123
-92,-108,-78,-11,-45,-6,-51,638,184,-37
-4,-18,-81,50,15,58,-57,352,205,58
43,83,49,92,60,61,-136,-382,23,71
54,121,104,92,56,19,-221,-685,-120,19
-8,-14,45,41,-1,-3,-221,-584,-148,-6
-40,-29,58,28,-18,2,-145,-400,-98,-10
-30,10,135,57,8,24,-71,-244,-46,2
-30,-36,120,47,3,28,6,74,22,23
-6,-71,64,46,-10,37,93,414,92,45
41,-16,43,65,10,64,117,491,150,69
164,269,70,78,75,79,92,359,165,85
243,517,97,100,124,66,32,186,100,80
125,209,37,36,39,12,-46,80,25,67
-6,-79,-39,-47,-72,-34,-80,197,34,43
-15,-79,-32,-46,-79,-25,-52,214,35,50
-4,-44,-2,-25,-53,4,-46,138,36,64
-11,-55,-1,-32,-51,4,-52,75,63,78
10,-27,8,-36,-45,-5,-30,109,74,93
21,-29,-29,-61,-63,-9,59,158,102,88
-36,-168,-103,-98,-114,-17,112,121,85,69
-75,-177,-95,-81,-103,-17,81,145,48,27
-133,-186,-58,-45,-54,39,110,194,16,-42
-142,-181,-129,-36,-35,39,94,28,-62,-82
-95,-141,-190,2,-5,41,15,-252,-149,-77
-18,-44,-153,28,8,42,-41,-343,-185,-48
165,322,7,62,74,46,-37,-144,-102,-12
228,441,105,83,106,61,-52,-112,-75,12
56,14,37,46,18,44,-82,-241,-139,-5
13,-69,42,22,7,23,-68,-258,-155,-37
8,-55,47,3,7,10,-54,-246,-152,-48
-5,-34,28,-2,8,0,-49,-223,-109,-55
-24,-52,-84,-1,-8,8,-26,-198,-68,-57
13,49,-118,11,13,27,28,-136,-28,-53
37,163,-50,23,49,29,52,-50,1,-38
-72,-66,-42,-2,7,12,54,-45,-14,-53
-104,-120,-69,-13,-1,4,69,66,21,-48
-98,-113,21,-20,-15,9,65,122,53,-14
-76,-99,73,-11,5,23,65,103,45,8
-60,-78,89,9,41,56,95,72,46,9
-61,-55,70,-16,21,50,94,139,73,-9
-11,37,65,-14,22,10,60,187,109,-15
7,-3,56,8,10,1,-11,44,70,17
15,-14,71,25,12,5,-60,-45,39,42
3,-14,70,31,14,10,-82,-26,39,51
1,-23,45,14,7,2,-102,-10,43,56
7,-23,-5,20,21,-8,-105,20,20,54
-6,-31,3,41,47,12,-65,61,9,26
53,136,45,45,69,8,-12,75,50,9
238,567,33,44,130,4,-4,123,145,40
199,454,79,20,78,-1,-42,47,116,60
-3,-36,-4,-41,-56,-17,-64,-81,20,65
-18,-133,-16,-62,-89,-31,-104,-84,-8,75
14,-104,26,-38,-55,-20,-125,0,-30,48
-14,-103,45,-4,-22,13,-88,77,-26,-11
-54,-109,21,-28,-34,-3,-73,304,7,-58
-37,-32,1,-52,-27,-29,-88,277,-2,-67
-78,-126,-20,-60,-41,-36,-113,105,-35,-77
-92,-151,-56,-49,-41,-29,-117,75,-51,-75
-86,-131,-58,-39,-26,-25,-107,89,-51,-81
-92,-126,-6,-22,-20,-15,-97,175,-11,-92
-78,-96,-1,-8,-14,-1,-109,238,35,-85
-50,-43,24,-12,-20,-30,-159,207,44,-47
-19,31,26,-25,-16,-47,-180,167,32,-16
-7,40,9,-20,3,-48,-191,34,-24,-17
-23,-44,30,8,24,-15,-161,-69,-86,-22
-3,-41,34,14,30,19,-86,-47,-120,19
4,-39,29,10,35,37,-6,-146,-155,46
-8,-30,40,34,80,64,52,-232,-165,50
32,-20,55,46,86,83,76,-116,-118,58
61,-13,15,7,42,37,68,81,-20,50
210,324,7,-14,65,-10,31,385,171,50
299,528,-62,-12,105,-25,3,433,253,43
99,144,-141,-35,26,-25,12,207,143,19
-63,-106,-92,-55,-35,-36,11,152,91,8
-85,-99,-34,-34,-37,-31,13,158,96,-3
-93,-91,-74,-27,-23,-30,-5,114,83,-4
-97,-98,-35,-39,-16,-28,-9,47,42,5
-41,10,22,-32,-6,-21,-25,-18,19,9
8,35,37,-28,2,-7,-47,-118,-36,2
-46,-104,5,-29,0,7,-62,-176,-91,-56
-80,-136,-4,-14,19,11,-46,-139,-88,-90
-73,-139,-5,7,22,-1,-78,-257,-116,-109
-90,-139,-23,4,0,-21,-84,-312,-108,-120
-112,-140,-117,-19,-27,-41,-88,-231,-68,-121
-60,-66,-159,-14,1,-22,-43,79,17,-90
116,304,-9,45,107,24,69,435,139,-40
105,310,68,49,106,42,99,386,101,-35
5,-45,-39,16,32,35,45,68,-1,1
10,-77,0,4,23,30,24,-117,-42,12
10,-76,71,-3,2,26,43,-162,-44,13
31,-64,59,0,2,28,48,-236,-47,22
42,-38,69,26,29,33,13,-231,-52,24
101,126,108,57,71,36,-46,-235,-46,39
137,207,111,64,85,24,-90,-397,-62,57
58,6,8,14,26,0,-80,-449,-69,60
30,-38,-75,0,4,-11,-34,-88,5,68
43,-21,2,1,-3,2,14,202,47,89
48,-51,-1,-24,-23,6,43,325,79,99
37,-92,-46,-45,-51,-7,24,190,80,71
28,-82,-121,-33,-47,-26,-7,51,69,30
40,0,-37,-21,-11,-39,8,179,100,3
-25,-88,-2,-10,-5,-18,21,193,67,-27
-52,-126,-6,-1,-9,-7,0,46,11,-46
-52,-98,3,8,-13,-12,14,-64,-48,-35
-17,-63,16,19,-7,-9,5,-144,-107,2
14,-21,-24,30,-4,10,-12,-157,-123,45
33,-5,-85,34,-4,19,-18,-139,-75,76
83,171,-5,37,30,8,0,-44,-1,60
200,564,70,74,133,12,43,95,76,39
96,381,60,80,111,30,44,73,48,7
-117,-79,-34,23,-5,19,20,63,6,-40
-142,-161,-33,-2,-31,-14,-18,68,12,-65
-114,-137,-10,-2,-44,-28,-41,0,-16,-52
-99,-110,-18,-25,-61,-29,-20,-42,-41,-45
-75,-58,-33,-14,-43,-28,-5,-93,-48,-58
-33,28,-18,8,-8,-23,-12,-189,-41,-48
-41,-37,3,23,-5,-8,-21,-355,-75,-48
-42,-53,-57,-1,-14,10,-3,-368,-76,-28
-83,-94,-113,-73,-66,2,59,-141,10,-29
-135,-125,-86,-71,-63,0,81,171,88,-52
-147,-147,-73,-56,-40,-2,88,568,175,-76
-120,-129,-50,-57,-56,-11,68,560,152,-57
-93,-84,-28,-45,-49,0,60,303,54,-32
-77,-56,2,-13,-21,-2,54,132,0,-33
-52,-35,13,-3,6,-1,26,7,-33,-10
-15,-21,41,21,23,20,6,-79,-33,5
10,7,73,51,41,44,-2,-166,-13,30
11,34,86,72,50,53,-46,-243,2,62
11,31,64,50,23,22,-77,-231,2,64
10,67,27,20,1,-8,-65,-103,26,52
184,460,48,17,54,-21,-18,82,111,52
258,618,81,17,61,-33,-6,105,162,73
87,170,23,-13,-26,-47,-11,0,87,68
4,-53,-15,-21,-64,-46,0,-38,21,65
14,-40,7,10,-35,-13,28,-26,-8,74
0,-39,-13,45,-24,-6,26,-40,-7,74
-44,-80,-19,43,-20,4,8,-32,0,59
-32,-38,17,26,-6,11,41,71,0,49
-27,-55,0,8,-22,1,36,100,-15,21
-51,-118,-14,-6,-47,-24,-34,-32,-63,-14
-52,-108,-61,-11,-66,-49,-86,-125,-77,-24
-50,-112,-27,-15,-84,-54,-96,-106,-53,-27
-42,-115,-56,-23,-86,-65,-111,-110,-15,-28
-42,-118,-80,-41,-74,-71,-76,-159,-33,-49
-29,-44,-42,-23,-27,-28,17,-41,-67,-79
12,148,-18,-5,12,-12,83,495,41,-71
-53,-45,-83,-21,-7,-3,92,612,78,-56
-57,-93,-107,1,10,27,50,184,-46,-60
-14,-31,28,39,42,51,17,-12,-114,-31
0,-5,71,45,45,54,22,26,-61,4
-25,-33,37,41,21,51,9,-27,9,1
-53,-31,25,39,31,23,1,-78,20,10
94,232,76,71,93,32,28,55,67,56
244,485,95,84,135,28,17,76,70,87
69,97,73,49,48,25,2,-105,-64,63
6,-56,31,11,-8,26,-13,-138,-114,66
2,-75,-59,-27,-29,8,-12,-86,-100,72
9,-78,-78,-30,-19,1,21,-34,-72,72
27,-58,0,1,8,6,1,-87,-83,34
34,-6,-20,0,4,-10,-62,-105,-68,-1
52,49,3,-39,-25,-57,-112,26,2,-11
8,-56,-7,-45,-47,-65,-114,32,2,-22
-12,-86,-8,-36,-51,-62,-93,-15,-9,-47
-40,-95,-14,-40,-46,-67,-92,-93,-30,-81
-55,-119,-55,-69,-63,-90,-103,-215,-77,-104
-62,-116,-77,-74,-66,-95,-78,-225,-74,-102
-53,-44,-14,-42,-35,-73,-24,-91,-16,-59
44,276,115,24,59,-18,-4,62,56,-16
177,605,162,55,113,-13,-23,235,133,2
96,319,77,5,35,-18,-18,464,261,66
-54,-65,21,-31,-44,-39,-25,247,196,43
-71,-88,29,-11,-32,-15,-4,24,45,-4
-67,-81,15,-4,-24,8,39,61,-11,-22
-83,-99,-28,-19,-12,36,67,102,-45,-38
-79,-72,-37,-16,8,37,90,107,-43,-50
-38,21,-118,-6,4,28,67,116,-27,-38
-62,-41,-103,0,-18,37,36,53,-43,-13
-72,-55,44,35,1,47,4,-48,-39,20
-50,-56,35,59,22,44,-1,-130,-25,54
-6,-53,-15,44,19,23,-19,-186,3,88
13,-47,28,27,18,5,-60,-247,26,105
10,-59,10,11,-10,-26,-91,-233,12,81
44,23,18,-4,-12,-37,-56,-195,8,53
14,-19,-24,-49,-59,-67,7,-139,16,22
-65,-125,-118,-97,-104,-88,74,22,66,-17
-84,-147,-95,-105,-89,-50,122,144,68,-52
-88,-135,-61,-76,-60,-47,124,91,25,-87
-96,-127,-36,-80,-62,-67,109,-18,7,-114
-91,-104,-21,-57,-37,-48,95,-75,0,-90
-4,33,38,-1,26,-3,83,159,66,-9
205,478,96,34,123,-10,61,360,146,56
221,539,106,48,147,-23,19,129,51,64
66,100,83,48,85,-3,-68,-173,-79,74
-20,-91,36,27,28,-20,-133,-98,-19,68
-89,-172,-66,-48,-55,-80,-104,352,130,48
-110,-191,-94,-80,-89,-98,-68,337,110,12
-97,-167,-75,-63,-73,-72,-84,43,-9,-23
-48,-57,-30,-21,1,-25,-48,68,-70,-52
-22,-46,34,31,41,38,14,152,-82,-35
19,-49,94,75,64,60,17,-23,-99,4
41,-23,104,84,73,45,-53,-358,-185,8
27,-39,76,70,48,37,-45,-400,-186,-10
37,-46,29,41,26,32,-18,-319,-147,-20
51,-37,25,21,33,23,-31,-336,-139,-20
94,42,0,-4,29,1,-44,-280,-104,-18
160,192,-2,-16,38,-1,-40,-52,-3,-18
25,-28,-9,-12,-2,25,3,45,36,-27
-7,-67,0,3,-7,41,47,0,25,-16
-26,-75,-10,-10,-21,19,26,-130,-6,0
-29,-79,-59,-16,-21,-2,-26,-242,-20,11
-21,-62,-86,3,-21,-30,-66,-310,-47,8
-6,-29,-22,30,-9,-36,-57,-223,-29,25
154,331,6,84,74,7,-5,114,93,77
274,528,67,110,131,34,47,391,223,112
61,50,40,40,22,15,8,203,119,81
18,-83,-3,-13,-17,20,21,89,52,64
40,-80,0,-26,-21,24,56,86,40,50
21,-83,4,-22,-23,12,49,32,40,20
-14,-114,-21,-27,-39,-13,27,24,71,5
-16,-74,-50,-29,-31,-43,67,81,80,-10
6,23,-101,-33,-29,-39,95,150,88,-22
-56,-50,-164,-36,-33,-10,97,139,60,-38
-54,-58,-149,-29,-18,19,108,78,47,-37
-36,-35,-73,11,6,30,81,-96,-4,-22
-31,-33,52,60,50,40,5,-260,-65,-20
-40,-63,60,52,44,26,-56,-216,-52,-42
-57,-75,53,44,25,23,-55,-96,-10,-58
30,189,104,69,80,36,-47,-39,-5,-63
156,483,127,79,123,24,-46,13,20,-50
84,211,48,34,52,2,-69,-78,-18,-33
-10,-89,-45,-6,-13,-14,-88,-199,-68,-21
-17,-97,-15,-10,-6,-39,-106,-268,-87,-16
-31,-78,24,2,8,-42,-113,-321,-106,-17
-40,-71,58,26,22,-4,-89,-309,-125,-25
-13,-39,69,40,26,13,-40,-264,-101,-23
12,-4,41,28,10,21,19,-46,-47,-3
-69,-132,-21,-19,-27,24,140,341,33,-14
-87,-158,-51,-65,-49,-3,159,422,90,-30
-72,-129,-34,-56,-42,-31,90,208,36,-37
-63,-104,-30,-49,-43,-32,89,77,22,-32
-40,-70,-13,-23,-18,7,94,150,7,-9
12,-2,-14,16,21,39,44,207,-15,28
83,118,27,49,46,26,-16,93,-25,55
62,65,45,45,24,0,-37,20,4,67
6,-39,-101,11,-11,-14,-34,-17,36,66
-16,-76,-131,-32,-24,-8,-41,5,69,63
-16,-100,-76,-54,-38,-19,-37,349,153,78
-17,-113,-73,-69,-67,-54,-25,426,144,75
-33,-113,-89,-59,-63,-54,-3,103,49,42
22,16,-36,-42,-40,-34,10,-56,-16,22
201,455,32,-9,37,-61,30,36,-27,0
209,467,66,37,77,-17,69,161,-54,-27
56,34,53,42,27,47,109,227,-42,-18
27,-80,52,43,17,59,114,168,-10,20
9,-80,51,41,22,42,75,-28,-59,-2
-22,-79,53,28,14,20,52,-74,-69,-47
-33,-60,51,20,18,14,57,-50,-60,-67
-19,47,52,42,46,7,58,-51,-48,-57
-12,-7,-30,37,34,12,38,-103,-62,-42
-25,-60,-71,28,20,27,30,-65,-52,-4
-44,-72,-87,29,9,23,25,8,-20,12
-54,-72,2,0,-10,4,13,0,30,-6
-72,-66,51,0,-11,-5,1,13,89,-14
-72,-73,30,-6,-18,-19,-6,82,121,-22
11,45,39,-5,23,-22,-35,135,135,-38
102,213,48,14,53,-27,-45,90,101,-53
-37,-20,-82,0,11,-22,-43,8,19,-74
-78,-68,-117,-1,7,4,-4,19,-4,-88
-67,-64,12,34,23,33,-9,17,-26,-64
-46,-70,39,39,24,40,1,-44,-54,-32
-15,-75,-75,25,19,44,45,-137,-68,8
6,-51,-25,36,26,35,18,-232,-67,34
161,304,93,46,87,16,-45,-249,-66,50
220,415,123,58,114,16,-81,-288,-77,63
28,-30,40,4,-13,-3,-95,-217,-96,33
-40,-129,2,-36,-55,-17,-102,-19,-55,-4
-47,-115,7,-27,-33,10,-83,128,-23,-3
-29,-89,12,0,-9,21,-65,151,-26,9
-10,-74,4,-10,-27,15,-71,85,-24,26
26,-26,6,-14,-5,14,-62,24,-4,45
56,-1,6,-24,-1,-9,-70,9,15,60
4,-90,-40,-63,-36,-27,-31,-4,0,10
-24,-98,-46,-54,-40,-36,4,3,-15,-42
-33,-92,-23,-32,-21,-34,-3,-87,-35,-52
-43,-68,-12,-23,-21,-33,-46,-299,-79,-27
-71,-79,-18,-17,-26,-60,-76,-257,-76,-49
-88,-64,-24,-37,-48,-81,-83,-25,-31,-82
-6,188,-5,-14,7,-70,4,406,50,-86
72,407,33,27,75,-50,93,620,79,-64
-11,134,28,11,50,1,76,262,-24,-48
-80,-90,29,-5,19,37,47,-126,-93,-50
-80,-105,15,-20,15,42,45,-125,-80,-38
-81,-118,-21,-48,-21,24,27,203,11,0
-85,-125,-57,-50,-24,18,13,449,105,11
-59,-66,-50,-53,-7,27,31,384,99,1
-46,-39,-76,-63,-9,32,28,254,68,-5
-79,-107,-62,-43,-18,29,25,79,19,-24
-66,-105,-19,-26,0,18,32,-17,43,-21
-56,-95,-29,-16,7,29,74,-3,62,15
-34,-59,-1,-10,-17,31,86,-42,62,49
-20,-69,-19,-16,-24,18,56,11,61,61
35,-40,-10,0,5,45,63,288,143,108
93,79,23,24,48,52,81,379,203,136
36,-10,-1,-11,-9,0,41,234,167,99
0,-67,-4,-41,-57,-26,20,164,122,62
35,-27,30,-24,-41,-26,9,89,62,44
41,-28,36,-11,-35,-38,-21,-120,-12,12
47,0,52,26,-10,-29,-5,-329,-97,-26
58,54,62,58,29,6,-10,-439,-128,-11
102,226,106,89,92,29,-27,-465,-150,-16
231,606,157,154,181,42,-35,-340,-132,-13
190,469,154,125,156,34,-37,-280,-129,-6
46,25,74,45,56,32,-54,-285,-112,-16
-19,-90,15,-9,10,15,-33,-120,-24,-17
-28,-83,31,0,12,1,-24,-99,-3,-5
-3,-55,74,46,43,16,-10,-157,-36,14
11,-30,89,32,44,19,42,-170,-33,28
30,40,70,-2,20,-7,23,-134,-8,21
-53,-75,-26,-73,-68,-71,9,0,20,-12
-83,-113,-64,-115,-107,-80,16,78,31,3
-62,-96,-59,-121,-104,-80,11,232,47,58
-72,-107,-66,-110,-102,-80,-7,356,50,70
-62,-126,-38,-55,-58,-66,-24,138,-17,37
-40,-119,-6,5,-1,-17,-34,-103,-79,16
19,82,53,62,76,28,-32,-185,-81,0
75,160,44,45,88,34,-15,-97,-77,-37
-16,-118,-53,-16,-10,16,10,-2,-109,-67
-40,-127,-72,-42,-31,16,11,50,-90,-76
-47,-112,-41,-8,11,36,24,33,-66,-79
-37,-92,-27,7,11,42,33,16,-50,-72
-30,-77,-50,-4,-10,26,19,-6,-37,-81
-7,-25,-120,-24,-23,14,6,-28,-29,-76
135,354,2,3,47,16,27,-25,15,-67
153,379,63,25,55,20,31,-112,10,-39
6,-11,20,1,0,18,23,-236,-46,-23
-25,-100,-14,-21,-29,-4,7,-192,-20,-26
-43,-136,-55,-43,-47,-22,-8,42,34,-29
-50,-122,-57,-21,-40,5,27,275,61,-22
-34,-77,-18,16,-30,14,31,154,32,-7
-6,9,-2,12,-42,-29,45,41,33,10
12,32,-4,4,-50,-50,42,36,58,6
-22,-32,-11,0,-53,-21,15,8,72,23
-33,-45,-97,7,-41,1,-6,-26,73,13
-48,-70,-184,18,-38,26,-5,-58,62,-4
-61,-84,-173,-6,-58,20,-1,-6,79,0
-79,-104,-96,-49,-82,-13,-17,69,95,11
-73,-85,-76,-95,-108,-77,-59,108,79,22
120,312,0,-75,-34,-84,-40,173,100,28
230,551,74,-23,46,-8,62,292,124,40
85,164,30,-11,27,63,138,337,98,75
11,-57,41,-8,2,67,104,49,8,105
60,-12,93,35,7,50,37,-299,-104,108
85,16,115,59,-12,45,-22,-420,-144,78
52,-25,91,12,-65,24,-18,-243,-92,41
53,26,83,-10,-79,-2,-16,-83,-69,22
41,25,66,-11,-90,-23,-41,1,-65,15
-9,-86,33,9,-50,-13,-82,-10,-86,-3
-22,-93,-11,59,101,15,-120,-95,-116,-29
-28,-67,-58,38,146,31,-125,-97,-92,-26
-22,-41,-34,3,78,20,-132,-53,-62,-17
-2,-25,-113,-16,33,24,-103,18,-26,3
-9,-10,-74,-12,15,32,-43,111,44,17
-4,77,31,5,26,33,-14,148,109,29
-23,-26,45,14,28,27,-19,98,117,53
0,-82,0,-1,8,19,-35,53,116,92
-1,-106,-16,-39,-29,-8,-66,-4,102,73
-4,-96,-3,-42,-40,-26,-100,-165,82,54
14,-73,9,-25,-20,-25,-117,-300,18,39
7,-46,-12,13,6,-9,-93,-235,-8,25
55,152,-42,50,55,-3,-82,-113,-17,6
161,475,73,80,124,-15,-58,-52,-17,-23
77,279,37,31,80,7,69,175,11,-53
-66,-98,-33,-73,-30,7,166,399,52,-57
-40,-117,-8,-69,-47,11,123,179,-2,-37
9,-86,1,-40,-36,21,77,176,-3,-10
31,-39,29,0,-5,45,29,125,-20,-19
16,-28,-18,11,-12,39,-7,-53,-59,-40
23,44,-19,-3,-22,11,-12,-64,-50,-58
-26,-46,10,-16,-30,15,22,116,9,-48
-14,-49,2,2,-7,27,24,166,55,-6
-4,-45,-4,23,8,35,6,-27,11,-16
-15,-52,24,18,-14,17,12,-58,-4,-29
-34,-57,26,4,-22,6,28,4,16,-32
-41,-41,51,7,-13,2,61,8,27,-33
33,139,58,17,25,4,74,31,58,-24
25,174,12,16,23,-3,79,44,77,-28
-65,-58,32,-7,-23,0,80,5,44,-33
-63,-74,38,-15,-37,0,80,-4,32,-32
-68,-55,49,14,-25,5,79,-21,19,-37
-50,-51,43,1,-20,-8,55,-48,1,-58
-41,-51,42,-10,-37,-25,14,-95,-17,-48
-2,44,50,-11,-65,-63,-16,-127,-31,2
175,416,70,4,-33,-123,-6,-58,18,64
170,320,50,-5,-52,-132,4,-118,1,75
56,-17,-3,-59,-112,-127,-12,-254,-45,88
-27,-81,-18,-53,-27,7,-69,-339,-101,50
-90,-120,-38,-43,-8,9,-72,-297,-116,10
-94,-172,-85,-60,-31,-12,-27,-110,-90,-13
-83,-193,-131,-66,-31,6,40,241,39,-25
-26,-107,-80,-57,-5,22,86,519,211,9
-41,-87,-38,-33,-3,19,52,231,126,8
-62,-114,-9,2,0,32,17,-5,-21,0
-45,-86,14,19,26,61,36,38,-79,-22
-46,-85,5,5,31,72,48,54,-50,-68
-30,-53,41,19,36,64,-3,194,-49,-67
6,5,87,49,52,78,-30,222,-106,-12
54,98,105,61,58,60,-77,7,-115,14
225,498,141,63,103,16,-91,33,1,2
246,600,139,99,140,26,-73,22,19,-26
22,133,44,85,76,35,-70,5,-46,-27
-83,-117,-76,-9,-7,-5,-58,310,35,-8
-72,-105,-83,-49,-36,-14,-63,299,63,9
-44,-55,-86,-19,-20,-5,-76,-1,3,27
-16,-4,-89,37,27,17,-60,-250,-37,31
39,98,42,83,79,32,-59,-354,-36,55
20,41,90,73,58,44,-47,-328,-30,67
-19,-73,36,21,12,16,-16,-253,-12,56
-16,-96,14,-20,-13,-3,-3,-194,15,53
-7,-103,11,-20,-30,-23,25,-161,20,54
0,-67,14,-9,-33,-19,70,-126,27,70
19,-28,39,-10,-32,-12,77,-182,23,79
48,38,45,-2,-32,-51,30,-347,-24,57
58,120,-17,15,-12,-56,12,-457,-65,14
-53,0,-4,4,-36,-48,11,-376,-82,-63
-133,-99,1,-11,-46,-22,25,-34,-4,-103
-147,-146,-7,5,-9,18,60,324,85,-105
-119,-139,-13,27,18,44,98,437,92,-94
-78,-98,-8,40,25,41,110,312,80,-88
-76,-70,-1,40,19,16,96,155,40,-112
20,155,4,28,43,-4,93,166,52,-125
203,498,-19,30,83,-21,83,223,132,-97
95,278,-7,30,35,-16,94,129,87,-89
-87,-87,-4,32,-15,-1,98,-13,2,-90
-93,-117,-4,29,-29,3,64,-81,-10,-65
-83,-118,-8,12,-45,-4,17,-95,-25,-45
-88,-140,-38,-8,-69,-17,7,-10,1,-30
-76,-105,-99,-57,-134,-63,7,180,88,-13
-47,-47,-104,-80,-120,-94,1,228,104,-18
-90,-166,-97,-90,-133,-101,-18,104,50,-16
-98,-163,-80,-73,-118,-91,-14,39,1,-21
-59,-67,-11,0,-44,-26,11,-40,-31,-6
9,23,72,78,27,36,1,-153,-28,39
44,17,35,71,29,34,-42,-289,-36,68
57,-9,35,46,24,25,-28,-275,-71,67
121,192,71,51,61,26,-22,-153,-78,48
98,170,32,37,50,17,-55,-175,-96,17
22,-19,-98,-6,-7,4,-88,-258,-138,-6
20,-27,-42,1,15,-3,-100,-191,-128,-13
36,-1,53,30,37,16,-66,42,-54,40
45,11,31,33,41,38,-22,63,5,103
72,9,37,25,21,38,-10,-70,0,154
93,93,45,18,17,23,16,-71,0,179
190,393,-5,31,69,11,85,116,38,185
113,198,5,-2,34,14,102,87,22,161
-8,-98,4,-40,-23,12,44,-71,-34,108
-67,-162,-67,-79,-54,-30,6,-6,-6,38
-100,-186,-139,-105,-75,-50,3,333,83,-5
-90,-189,-111,-96,-66,-36,-8,469,105,-28
-64,-155,-116,-78,-37,-43,-40,224,39,-55
-16,-46,-59,-64,-15,-54,-75,67,24,-70
-40,-60,-29,-67,-18,-39,-73,94,49,-67
-68,-99,-46,-54,-12,-16,-61,109,45,-72
-49,-64,-33,-21,-4,4,-74,-8,5,-78
-41,-40,9,6,0,31,-53,-83,-63,-101
-48,-40,26,26,8,41,-16,-87,-92,-117
-50,-47,24,18,-3,32,1,-46,-73,-98
0,54,16,0,-15,3,-6,20,-49,-58
190,495,67,3,64,0,29,136,33,-21
203,558,100,32,99,18,58,141,63,-21
2,96,53,17,28,12,34,48,15,-74
-84,-68,27,11,10,18,11,9,7,-101
-94,-81,20,2,14,35,0,0,22,-90
-98,-90,0,-9,7,25,-7,1,34,-76
-94,-89,-1,7,13,17,-6,-28,22,-47
-38,0,-35,47,51,20,-12,-96,-9,0
-14,-32,0,48,52,25,-25,-226,-75,25
-4,-70,23,49,36,19,-64,-397,-145,29
22,-28,55,65,53,15,-111,-552,-148,50
23,-3,60,65,44,-8,-136,-502,-72,55
-2,-28,25,18,-9,-36,-117,49,120,50
2,-25,22,12,-15,-17,-51,345,243,85
23,30,-42,-17,-31,-9,0,54,111,71
30,51,-42,-71,-65,-41,37,78,70,44
-45,-101,-85,-136,-135,-82,84,358,91,30
-35,-116,-77,-119,-117,-65,115,283,49,35
18,-93,-35,-63,-66,-24,145,270,70,87
54,-86,-30,-24,-23,17,140,343,116,125
57,-86,-21,-5,-7,50,111,240,107,131
40,-36,-22,16,3,48,55,103,60,97
150,297,35,42,72,12,-38,-118,-1,53
259,628,139,56,134,-6,-71,-201,-10,-10
90,272,92,43,82,9,-36,-215,-42,-47
-48,-90,27,13,8,25,-39,-210,-79,-40
-34,-135,3,4,-6,28,-12,-28,-92,-44
-28,-133,5,18,22,40,35,182,-105,-56
-83,-148,-16,18,27,34,93,294,-70,-82
-87,-112,-33,1,14,17,118,336,-6,-95
-49,-33,-16,14,26,9,73,220,-19,-59
-68,-120,-22,-7,-12,-4,48,22,-74,-27
-37,-102,-2,1,-6,-6,27,-160,-90,-6
-21,-64,24,20,6,0,2,-272,-115,-4
-39,-50,43,29,27,8,20,-273,-113,2
-40,-58,44,17,21,13,52,-221,-96,10
-22,-25,44,19,19,6,50,-219,-74,20
51,168,64,44,54,-5,46,-178,-40,25
20,63,25,10,13,-26,12,-85,-6,35
-42,-75,-12,-25,-35,-40,-16,-46,28,54
-37,-59,-16,-28,-34,-50,-5,-123,11,47
-24,-47,-76,-34,-28,-61,-7,-150,-4,27
-16,-51,-80,-44,-33,-45,12,-113,-10,3
-9,-46,-20,-40,-38,-23,12,-106,-14,2
66,106,12,-19,-23,-4,14,-44,39,5
245,486,113,35,60,-6,19,150,106,13
119,207,75,19,9,-25,-22,42,21,2
-2,-49,41,3,-35,-28,-3,-79,-62,-7
-22,-63,59,39,-7,8,18,-66,-68,-6
-53,-93,22,26,-11,22,-13,-60,-47,0
-86,-162,-73,-57,-65,-9,-28,30,-34,-39
-121,-202,-124,-58,-55,-11,-11,159,-15,-75
-50,-84,-114,-24,-11,1,-1,143,18,-62
-58,-125,-68,-38,-28,-8,-27,106,45,-65
-95,-172,-44,-48,-54,-28,7,240,109,-87
-107,-134,-1,-28,-44,-46,36,379,150,-101
-83,-110,37,-1,-36,-19,35,331,129,-77
-23,-67,53,52,0,11,-12,50,62,-17
11,-31,-23,52,17,12,-84,-200,9,4
60,110,-32,30,50,22,-120,-288,-18,9
238,544,53,62,126,36,-75,-103,63,67
270,524,90,71,125,58,-59,18,79,130
88,74,54,42,58,60,-90,-156,-38,106
1,-94,-33,-5,7,53,-45,-117,-51,64
-17,-123,-69,-39,-27,31,-25,-26,-32,52
-14,-119,-15,-59,-46,0,-40,-45,-25,45
-7,-100,-12,-61,-39,0,-31,62,0,60
33,-5,10,-40,-31,-4,-18,220,32,68
3,-58,11,-50,-42,-17,-26,140,-7,41
-18,-98,19,-49,-49,-12,-13,62,-60,9
-13,-91,19,-44,-43,-11,20,27,-101,-7
-8,-79,24,-16,-31,-3,11,-25,-116,1
-15,-58,30,11,-25,2,-2,-64,-96,12
-21,-64,12,6,-23,0,-12,-39,-71,24
21,21,14,2,-7,-3,-30,-1,-47,53
43,75,6,-7,12,-32,-43,-7,-14,89
5,-24,-17,-14,-12,-45,-48,-29,2,107
33,-41,-37,-31,-24,-28,-36,-19,26,108
47,-38,-41,-31,-22,-28,-76,-47,20,99
67,-51,-44,-18,-32,-47,-116,-108,0,84
65,-57,-70,4,-29,-61,-134,-183,-13,57
55,5,-39,15,-33,-79,-115,-226,-5,40
146,362,-60,24,-6,-130,-48,-174,13,0
207,578,-97,8,3,-163,15,-93,21,-56
3,135,-111,-32,-80,-143,-23,-106,-45,-120
-181,-204,-72,-28,-64,12,-52,-29,-135,-185
-184,-213,-61,-44,-76,17,39,603,22,-163
-102,-143,2,-13,-26,57,131,910,242,-68
-61,-100,54,56,46,103,158,337,162,-33
-49,-52,35,38,24,84,136,187,105,-58
-25,-4,46,40,18,56,114,364,129,-49
-63,-81,39,49,4,41,87,198,63,-58
-68,-71,34,61,19,16,48,12,3,-60
-45,-50,44,86,59,29,20,-76,-46,-45
-24,-42,-7,95,80,41,23,-110,-87,-42
-17,-31,-42,115,90,63,12,-140,-124,-26
-16,-4,25,87,56,66,41,-106,-101,-15
18,77,49,27,1,51,79,-58,-53,2
24,33,56,8,-17,60,71,-150,-36,34
14,6,62,19,-14,45,22,-206,-35,43
-7,-14,41,5,-4,25,15,-151,0,30
-20,-35,23,-1,-14,12,45,-106,23,29
-20,-31,33,-6,-5,6,98,-109,26,25
-19,-28,51,4,17,7,99,-112,32,26
64,148,72,5,56,-1,64,-92,66,50
276,572,107,13,114,1,56,0,135,88
250,443,70,17,84,-5,42,29,132,107
78,16,-38,14,10,-6,0,26,94,122
54,-57,-9,-4,-62,-22,-41,-70,68,124
76,-14,42,-16,-102,-47,-61,-150,51,161
65,-42,35,-22,-114,-68,-52,-31,92,155
25,-82,-17,-45,-134,-57,4,143,143,137
46,-17,-45,-50,-120,-68,-47,6,115,158
-21,-125,-114,-39,-34,-60,-98,-155,9,112
-81,-183,-157,-44,76,-11,-58,-23,-81,27
-124,-196,-126,-75,29,6,18,420,-54,-23
-144,-170,-132,-63,-20,8,5,363,-99,-50
-137,-118,-65,-2,6,32,-37,22,-174,-98
-124,-96,47,37,31,50,-31,-118,-183,-156
-69,52,56,50,64,53,1,-116,-148,-207
57,404,79,81,141,47,23,-40,-95,-228
3,277,36,66,123,42,0,-77,-81,-221
-141,-93,-2,32,56,40,-43,-157,-107,-222
-135,-107,32,43,47,57,-25,-102,-86,-184
-91,-93,30,47,48,63,-1,-38,-57,-144
-74,-96,18,30,48,60,14,-49,-42,-106
-54,-70,9,0,33,44,28,-50,-20,-74
-8,31,11,-10,32,29,10,-33,6,-61
-40,-49,-40,-8,22,5,-23,-91,0,-43
-40,-73,-110,13,46,4,-36,-200,2,-8
-6,-50,-11,34,54,8,-48,-311,-13,19
17,-34,61,38,35,-3,-56,-386,-39,42
13,-46,60,25,19,-21,-92,-443,-43,24
-25,-73,25,4,0,-32,-123,-402,-27,-33
-48,-24,-9,-51,-25,-24,26,83,63,-65
-85,-37,-41,-122,-87,-60,190,549,151,-73
-143,-150,-83,-155,-128,-90,208,675,190,-86
-143,-141,-83,-121,-112,-74,212,760,212,-93
-99,-88,-83,-70,-80,-46,241,762,174,-66
-19,-47,-60,-7,-27,18,250,723,156,19
54,-45,-31,28,4,78,201,565,139,89
139,20,-97,49,33,72,72,308,124,154
324,435,60,119,161,71,-58,-55,99,197
407,637,216,138,198,62,-99,-276,80,205
262,236,166,103,77,17,-164,-483,-3,222
145,-7,86,58,-8,-29,-267,-603,-64,199
94,-41,27,-8,-51,-71,-270,-556,-92,131
53,-69,-6,-48,-77,-50,-187,-427,-106,61
27,-97,-52,-58,-56,0,-83,-163,-76,27
22,-22,-21,-40,-25,3,-63,1,-56,-7
6,-9,-7,-13,-19,-4,-41,-17,-97,-46
-60,-82,-15,-3,-27,6,32,-39,-135,-94
-107,-89,13,13,-15,4,136,-16,-120,-126
-129,-88,32,24,-30,-21,231,32,-80,-123
-137,-87,43,19,-16,-15,130,21,-73,-111
-131,-131,19,5,39,88,-133,-67,-109,-114
-73,-106,1,-13,18,42,-109,-47,-80,-85
-5,7,15,-15,25,14,-34,9,-27,-65
-33,-62,25,16,18,16,-4,-2,-17,-47
-28,-76,1,23,-4,-5,-10,-23,-18,-24
-4,-66,-7,0,-36,-56,13,-118,-29,6
22,-52,-3,-10,-47,-80,63,-253,-55,45
22,-57,-4,-4,-53,-80,17,-322,-48,66
-6,-57,-30,-4,-18,17,-242,-417,-76,34
91,189,-8,0,10,-8,-239,-312,-34,8
273,627,83,4,63,-61,-127,67,134,36
199,412,47,-24,3,-84,-30,590,317,58
-26,-76,-61,-76,-82,-27,113,771,312,17
-112,-183,-171,-89,-90,3,180,636,282,-26
-102,-172,-125,-55,-68,10,95,289,128,-14
-66,-139,-87,-7,-29,46,70,48,-13,-5
-33,-96,8,28,18,60,72,-73,-87,-5
29,29,67,62,64,53,20,-236,-157,-13
-4,-26,80,36,31,20,-29,-295,-171,-9
-25,-51,40,-1,0,-11,-56,-216,-100,-3
-10,-62,11,2,-10,-10,-84,-226,-60,8
18,-46,-3,9,-11,1,-105,-232,-48,39
61,11,35,44,43,48,-76,-142,-4,82
68,91,118,117,101,89,-32,156,66,116
120,244,106,108,96,91,24,434,120,114
188,489,90,81,116,60,57,366,87,82
97,279,49,43,90,44,63,199,14,50
-19,-43,17,3,22,45,30,40,-21,53
-47,-82,7,-27,-20,11,12,2,-4,37
-54,-82,2,-52,-62,-81,35,12,-11,18
-40,-82,5,-58,-103,-168,69,17,-21,19
-24,-55,-11,-49,-124,-242,189,52,2,26
-12,2,-13,-18,-35,-51,119,41,1,-7
-107,-140,-43,-17,19,181,-126,-26,-37,-66
-90,-160,-69,-56,-57,58,-90,33,8,-17
-76,-174,-105,-77,-81,-9,-51,52,24,-12
-81,-168,-111,-80,-65,-15,-64,59,10,-25
-94,-142,-96,-87,-66,-14,-82,19,-19,-68
-92,-120,-94,-78,-78,-30,-80,-17,-53,-98
-41,-2,-79,-59,-53,-53,-46,-37,-50,-85
-10,5,-50,-48,-30,-31,-12,-58,3,-36
7,-37,-45,-2,-7,6,-25,-88,-8,17
42,9,42,54,28,27,-45,-98,-6,60
52,12,20,46,17,11,-41,-159,3,106
39,-28,-40,10,4,2,-10,-76,-3,131
25,-20,-29,-5,-4,13,-12,-8,21,134
45,76,25,27,13,40,1,-35,28,119
163,464,1,95,103,59,66,52,48,111
183,513,38,94,89,28,56,38,0,85
46,94,64,20,-43,-2,31,-25,-60,62
0,-84,45,-34,-112,-34,12,-35,-66,59
8,-82,46,-8,-86,-34,-17,-70,-56,80
-4,-92,-33,31,-42,-26,-48,-98,-60,70
-27,-132,-186,1,48,-18,-60,-63,-46,27
7,-33,-169,-41,79,-31,-55,-32,-18,-6
0,-34,-53,-48,4,-60,-71,-81,-47,-15
-41,-115,-11,-7,-8,-44,-41,-169,-85,-33
-78,-96,23,62,48,3,-8,-190,-88,-76
-131,-79,51,101,59,12,3,-89,-53,-131
-117,-89,50,109,36,19,22,-89,-44,-143
-93,-66,54,109,4,5,16,-188,-53,-122
-59,-3,62,95,4,-22,-7,-34,1,-118
-9,82,75,-60,-18,-35,30,317,98,-93
-67,-30,29,-155,-72,-5,105,330,82,-80
-114,-81,19,-63,-33,10,104,263,85,-83
-121,-87,12,-4,9,26,88,285,118,-88
-83,-71,-14,-23,26,27,46,137,104,-69
-52,-49,-83,-23,41,29,-11,15,77,-54
-30,11,-74,-6,24,19,-34,5,66,-51
72,272,59,17,55,1,-14,140,82,-62
191,576,71,7,89,8,71,395,179,-43
65,259,-9,-55,8,4,79,361,147,-18
-66,-114,-56,-67,-57,-3,15,137,23,18
-40,-103,-85,-42,-64,-47,-34,8,-43,72
1,-78,-8,-36,-82,-87,-57,-114,-101,98
28,-47,49,-21,-81,-70,-16,-147,-130,108
39,19,67,20,13,77,-68,-180,-174,87
46,72,73,37,62,91,-106,-166,-154,68
27,-45,36,4,8,23,-93,-94,-88,87
31,-71,10,-4,-19,-4,-47,-28,-21,94
12,-74,45,0,-18,-19,-16,-31,-16,45
-14,-89,40,-21,-43,-31,-4,-37,-28,8
-30,-92,8,-45,-66,-23,19,2,-6,-3
-57,-69,-16,-66,-61,-27,43,48,13,-33
47,188,-13,-76,-18,-58,46,86,44,-74
124,365,-25,-55,34,-44,35,56,68,-88
-65,-41,-62,-41,-16,-1,30,-167,7,-71
-114,-129,-18,-9,-14,16,29,-397,-35,-52
-106,-129,-7,-28,-33,-39,11,-548,-68,-60
-89,-149,-65,-57,-69,-74,92,-348,-30,-39
-51,-126,-59,-26,-43,13,247,294,87,35
43,45,26,26,35,83,241,522,128,75
165,301,98,108,181,171,107,566,171,71
76,58,84,124,163,118,29,358,104,65
50,-7,49,112,130,77,23,54,50,66
37,-36,0,88,91,51,-58,-50,38,63
31,-54,59,67,68,30,-118,-94,43,57
20,-61,76,37,37,23,-98,-108,-8,56
9,-54,119,-8,-44,-33,-124,-75,-54,52
50,47,157,-5,-54,-70,-135,-45,-54,76
49,-2,96,-12,-62,-59,-120,-91,-44,73
28,-68,46,-27,-54,-42,-124,-148,-59,42
23,-67,-47,-21,-10,6,-111,-221,-94,8
29,-66,-134,-22,21,35,-74,-314,-106,5
16,-61,-88,-16,32,35,-72,-335,-86,2
-12,-63,-78,-23,-1,11,-51,-201,-46,-27
30,56,-63,5,11,12,-26,-49,-27,-44
157,463,40,69,94,4,-36,74,11,-29
94,426,12,30,77,-7,1,429,183,-33
-121,-56,-114,-62,-18,-10,58,702,277,-59
-174,-204,-158,-66,-32,-5,48,489,198,-65
-143,-199,-92,-61,-26,-16,28,296,140,-61
-138,-207,-129,-90,-63,-64,14,280,114,-59
-154,-196,-203,-116,-116,-100,5,238,82,-82
-104,-75,-91,-96,-87,-88,23,123,18,-111
-74,-89,-21,-42,-39,-38,36,-84,-90,-126
-73,-118,0,0,-15,26,82,-143,-149,-115
-54,-98,10,-28,-34,19,139,-87,-125,-96
-13,-39,42,-4,2,39,119,-138,-144,-71
47,30,145,104,109,124,98,-213,-152,-16
82,60,176,144,144,151,82,-331,-120,26
94,96,125,92,104,106,54,-325,-81,41
84,127,142,85,94,88,35,-220,-48,21
26,37,194,72,39,61,14,-229,-25,23
12,22,151,51,-16,30,7,-222,-11,20
13,12,-3,29,-52,8,21,-196,-25,25
24,10,-83,10,-69,13,33,-150,-14,34
29,-7,-47,13,-72,18,41,-99,6,39
2,-23,77,26,15,0,26,-53,43,29
66,244,123,34,153,-4,35,36,106,4
168,548,150,39,145,-13,66,97,126,-22
66,253,126,17,32,-33,21,36,84,-39
-39,-84,-29,-19,-21,-19,10,6,29,-51
-41,-137,-186,-67,-29,3,60,64,30,-47
-44,-150,-110,-95,-52,-5,61,43,25,-16
-47,-152,-37,-88,-59,-41,5,-36,-12,-2
-42,-104,-19,-79,-43,-51,-17,-84,-24,-22
-39,-54,-7,-64,-33,-56,-15,-111,-44,-23
-80,-90,31,0,-20,-65,-65,-228,-87,-4
-55,-62,47,44,6,-40,-65,-205,-91,16
-31,-66,-25,5,-4,-27,-10,113,-33,26
-53,-86,-67,-47,-32,-37,24,174,7,20
-61,-98,-61,-59,-29,-13,56,46,-17,10
-44,-67,-18,-45,-11,9,97,104,-1,11
128,275,51,14,56,17,116,141,18,28
224,440,75,38,67,12,92,0,-19,49
11,7,32,6,-17,0,62,-193,-83,42
-27,-61,62,21,-10,-12,4,-290,-100,19
-25,-64,60,26,0,-12,-36,-327,-89,-12
-66,-111,15,-24,-44,-26,-10,-164,-29,-41
-63,-122,-29,-32,-52,-31,-21,-121,-40,-39
0,19,0,-3,1,-21,-57,-165,-43,-39
76,230,70,3,36,-37,-79,-109,-1,-38
-6,-41,15,-17,-39,-68,-102,133,53,-46
-14,-124,-67,-38,-69,-74,-142,362,99,-31
-14,-120,-152,-43,-68,-73,-176,223,58,-21
-11,-76,-50,-41,-49,-50,-130,107,37,-22
-8,-25,12,-11,-18,-2,-83,50,-24,-25
-10,-10,10,2,0,36,0,99,-60,-7
34,61,14,-6,7,55,53,273,14,34
47,-6,7,5,-5,62,67,301,111,94
19,-74,7,11,3,56,72,82,75,101
-19,-117,-7,-17,0,18,33,-4,45,86
-62,-164,-41,-52,-25,-7,-13,51,63,75
-92,-160,-62,-55,-30,-12,-24,155,78,60
-44,-90,-9,0,-1,20,1,263,128,115
56,63,16,10,30,35,34,213,132,156
130,207,38,8,56,33,53,179,88,161
42,14,33,19,25,37,25,22,17,133
30,-15,11,-1,-5,-4,-57,-181,-66,60
11,-20,-14,-1,-9,-25,-84,-143,-121,7
32,13,7,25,16,-2,-57,-201,-169,-33
24,11,61,41,27,13,-30,-272,-182,-76
-11,29,64,57,48,30,19,-204,-121,-134
88,368,112,65,106,22,51,-58,-16,-171
88,419,107,60,114,8,73,-17,21,-172
-106,-42,22,15,0,-9,29,-83,-3,-159
-131,-150,-77,-5,-28,-24,-2,-48,38,-123
-117,-137,-123,33,25,6,0,-44,35,-81
-69,-88,-74,49,41,23,7,23,38,-26
-14,-46,33,52,21,14,-8,56,41,30
8,1,32,15,-10,-8,1,61,75,89
25,31,20,26,-18,-17,-6,-41,61,144
-11,-37,49,90,13,-31,-72,-357,-55,145
-32,-71,-23,100,3,-54,-92,-274,-97,105
-52,-96,-21,95,-25,-59,-55,207,34,82
-38,-73,35,133,2,-9,-42,228,89,74
-4,-39,25,22,16,33,8,88,70,49
7,-32,-9,-129,-19,68,87,128,40,0
80,238,-14,-139,19,59,96,283,42,-37
183,467,4,-81,57,14,4,249,43,-33
102,137,-17,-63,5,-10,-66,29,-27,-47
0,-122,-42,-45,-13,0,-64,-82,-106,-85
-4,-115,-29,-37,-16,3,-50,-92,-134,-94
-18,-89,6,-40,-15,12,-42,-71,-133,-106
-44,-108,-2,-45,-12,12,-35,-13,-91,-118
-30,-53,-32,-49,-5,3,-7,34,-53,-116
10,0,-9,-23,7,17,19,5,-31,-95
-26,-81,4,-3,7,26,53,-92,-60,-74
-34,-92,-19,-3,-6,5,31,-124,-65,-48
-27,-95,-45,-22,-16,-6,-3,-81,-53,-10
8,-74,-5,-11,-1,9,-17,-57,-44,30
48,-46,5,6,1,1,4,-54,-19,63
69,5,3,1,-28,-91,42,-18,41,83
213,379,65,13,-8,-187,131,105,108,81
181,414,83,0,-10,-151,171,127,99,53
-80,-61,-7,6,58,159,-132,-76,-48,-61
-78,-138,-90,36,44,152,-166,-81,-40,-65
-48,-125,-127,18,-4,67,-11,-47,-13,-36
-48,-112,-104,-5,-20,5,64,-66,-11,-27
-40,-96,-49,-37,-52,-47,131,-88,29,8
21,53,-19,-47,-64,-82,84,-193,43,45
0,103,-95,-44,-18,-15,-179,-326,-41,-26
-122,-175,-231,-78,-100,-97,-165,-212,1,-52
-188,-247,-216,-103,-110,-73,-144,0,53,-87
-185,-242,-128,-77,-73,-19,-103,58,13,-100
-61,-151,-40,-7,-42,-21,103,393,152,24
63,-54,75,68,10,23,266,587,286,152
87,-12,56,93,54,59,132,378,171,137
82,37,64,89,105,159,-83,9,-4,63
31,-47,32,54,50,117,-77,-173,-47,35
20,-50,-23,46,12,82,-71,-97,-72,42
54,-3,-32,80,39,76,-76,-39,-104,56
81,17,96,93,28,59,-59,-12,-105,53
67,-13,107,45,-32,37,-28,33,-94,37
49,-26,69,1,-97,16,-8,-25,-92,20
125,173,56,-11,-92,-17,17,-4,-36,-1
268,605,57,68,100,-1,76,112,81,-28
189,443,28,125,242,68,104,78,55,-38
-11,-64,-63,46,117,58,83,-29,-37,-39
-50,-162,14,26,44,45,76,-46,-58,-33
-33,-154,28,8,-12,0,81,-34,-50,-6
-18,-141,21,-21,-47,-17,64,-38,-23,19
6,-76,27,-20,-30,-20,34,-52,-7,31
102,200,69,1,15,-43,-11,-37,10,42
25,29,72,-10,-18,-69,-72,-113,-21,39
-12,-95,57,-14,-56,-73,-85,-142,-26,39
-12,-83,16,-49,-87,-79,-77,-108,-21,55
-30,-90,-24,-68,-66,-79,-30,-29,29,71
-40,-93,-86,-26,-25,-55,-1,32,48,56
-44,-100,-69,-22,-39,-37,12,80,78,50
-13,-43,-49,-56,-70,-49,45,160,147,65
1,-32,-68,-68,-81,-85,20,158,158,47
-24,-74,-37,-41,-56,-58,2,98,104,8
-9,-23,-4,-6,-22,-24,-22,0,52,-13
19,3,23,-5,-18,-13,-27,-149,2,-11
-14,6,33,-19,-33,-22,21,-233,-6,-19
-71,-40,39,4,-21,-23,47,-356,-61,-54
-78,-30,59,42,31,9,24,-421,-121,-81
52,273,-4,30,89,20,72,48,-11,-90
18,189,-11,-6,71,36,183,532,45,-91
-104,-107,1,1,55,72,189,358,-33,-77
-71,-79,40,49,96,113,80,-30,-36,-37
-50,-27,89,68,92,95,-51,-223,-25,-13
-42,-31,81,52,69,52,-88,-197,-24,-16
-27,-29,45,28,53,23,-77,-168,1,-3
22,50,38,21,31,29,-22,-155,50,24
31,42,28,20,12,16,-6,-159,60,19
-20,-55,7,4,-11,-15,-41,-149,31,-1
-43,-52,23,13,-20,-23,-44,-96,36,-14
-40,-45,34,18,-13,-3,-32,-99,16,-35
-45,-35,17,14,-8,4,-16,30,16,-45
-47,-43,14,7,-1,25,52,395,104,-11
-4,11,-3,14,8,28,84,401,130,29
153,381,37,24,57,20,111,309,143,43
130,296,29,-4,28,0,63,191,95,23
-11,-72,-16,-35,-41,-13,-34,11,-2,0
-36,-103,-32,-25,-53,-11,-79,-22,-22,-7
-53,-105,-34,-13,-33,0,-66,-1,-23,-19
-25,-78,-10,-1,-9,26,-69,-24,-52,4
13,-42,10,7,8,57,-62,-53,-80,47
88,98,33,22,19,33,-51,-27,-44,82
78,110,16,10,-4,-17,-97,25,-8,84
-29,-101,-23,-19,-74,-55,-143,59,-3,70
-33,-123,-46,-8,-66,-67,-146,-8,4,65
-47,-155,-99,-65,-101,-102,-166,-97,56,43
-61,-169,-153,-123,-129,-121,-209,-131,88,14
-36,-147,-152,-129,-124,-121,-220,-186,41,10
-1,-84,-119,-113,-114,-111,-145,110,106,52
128,101,-4,-13,-23,-38,21,570,244,161
152,111,89,64,29,65,141,398,148,182
72,51,67,18,-10,76,210,412,15,95
-22,-20,2,-33,-36,73,210,642,22,41
-88,-68,-25,-43,-8,112,136,268,-94,3
-67,-32,4,1,26,93,33,-104,-185,-25
-19,14,58,69,101,85,-40,-311,-243,-35
112,257,92,96,145,46,-110,-367,-216,-48
296,662,97,94,181,16,-143,-319,-142,-51
187,418,-21,52,123,-2,-123,-371,-190,-92
-49,-37,-17,32,47,-7,-114,-419,-270,-160
-137,-136,19,27,30,14,-2,-224,-237,-212
-134,-173,-17,-3,8,20,120,142,-131,-189
-114,-177,-40,-34,-9,-1,108,324,-22,-140
-88,-84,-17,-15,7,9,108,185,20,-117
31,178,57,22,52,5,135,-10,51,-73
-20,0,64,21,10,11,153,-144,38,-41
-34,-64,60,29,-8,52,145,-79,26,-13
-59,-81,8,15,11,81,54,-60,0,-37
-96,-114,-76,-6,14,39,-29,-118,-21,-80
-87,-106,-58,-4,1,12,15,-92,12,-57
-74,-77,-23,2,-7,12,51,-62,34,-40
-28,0,36,7,13,20,68,-43,42,-23
-9,-16,24,-20,-3,12,40,-50,38,-1
-24,-71,-6,-23,-25,4,21,-56,28,16
-26,-52,9,-13,-19,5,8,-67,-1,12
-17,-36,24,1,-15,-13,-17,-86,-15,13
-9,-35,16,12,-19,-25,-36,-72,-12,14
-2,-33,14,-10,-21,-26,-44,-52,-17,17
22,20,0,-36,-22,-38,-58,-23,-11,8
195,420,45,-12,38,-37,-72,48,39,-2
146,340,81,-18,8,-15,-73,51,15,17
23,72,95,-1,-26,5,-49,17,-4,63
16,2,67,8,-21,17,-17,39,29,106
18,-59,30,0,-13,16,14,59,35,134
3,-104,-12,-38,-34,-16,0,19,30,120
7,-116,-47,-56,-56,-34,-29,-63,9,116
101,93,-12,-20,3,-31,-32,-115,37,130
67,96,35,-1,-5,-44,-91,-227,28,121
-69,-139,51,-9,-74,-79,-198,-263,13,77
-75,-170,45,-34,-124,-145,-271,-138,90,92
-69,-184,14,-61,-159,-156,-222,-122,102,88
-84,-194,-35,-85,-190,-178,-145,-8,65,19
-92,-190,-175,-139,-193,-180,-47,128,46,-55
-67,-127,-276,-162,-143,-103,155,494,57,-105
-23,76,-175,-94,17,70,130,711,8,-138
-64,-47,-59,0,89,153,-43,265,-209,-158
-48,-33,11,52,90,118,-12,174,-238,-145
-6,21,78,96,126,144,75,272,-141,-98
2,14,71,94,119,151,77,238,-93,-41
1,0,21,57,86,113,50,149,-108,-33
6,9,32,41,85,93,49,68,-89,-54
94,217,83,24,116,50,39,4,-16,-68
185,431,111,15,103,12,32,-110,50,-40
30,66,66,-12,-3,-1,-4,-344,-32,-5
-6,-41,51,-13,-49,-13,-23,-393,-81,9
-17,-35,33,-3,-57,-10,-5,-328,-81,-5
-42,-60,-20,24,-25,-5,19,-287,-81,-15
-49,-70,-6,63,104,15,53,-205,-57,-15
4,2,33,62,191,54,79,-30,13,36
42,74,34,12,106,38,80,-2,55,65
-3,-19,2,-33,8,11,76,-34,48,56
-21,-39,10,-39,-10,-5,75,-49,54,41
-35,-38,25,2,18,-2,88,-51,29,9
-48,-38,17,36,36,-7,72,-47,22,-6
-54,-52,-10,-4,9,-15,67,-38,35,-17
-16,-20,-19,-17,-8,-17,94,-23,67,20
116,260,40,20,43,-8,114,38,125,61
187,440,78,57,96,7,119,90,164,92
55,42,31,24,27,1,87,24,119,127
42,-54,9,-3,-10,-14,57,-4,95,156
54,-46,-22,-4,-38,-26,35,-27,87,175
52,-41,-84,-3,-49,-39,5,-42,62,153
39,-32,-28,-6,-45,-35,-30,-55,47,115
53,57,-2,-5,-40,-36,-67,-52,35,81
128,236,-17,-19,-31,-68,-87,-11,38,54
44,-27,-21,-64,-80,-96,-101,-64,0,39
8,-119,-33,-72,-101,-91,-97,-66,-18,20
1,-110,-21,-82,-102,-117,-113,-67,-44,-16
-17,-111,-1,-60,-72,-85,-77,-50,-65,-57
-51,-83,39,-2,-29,-62,-38,-38,-76,-106
-68,-57,62,33,-9,-51,-54,-42,-79,-156
-39,13,50,27,4,-11,-2,6,-38,-154
-68,-33,20,-17,-8,24,68,38,-9,-130
-101,-87,12,-44,-19,26,43,26,-49,-144
-104,-140,-56,-67,-26,8,15,27,-63,-158
-114,-177,-70,-58,0,13,0,73,-33,-145
-115,-167,-66,-39,10,10,-14,147,8,-134
-104,-133,-39,-20,-13,-24,-19,180,18,-105
-42,5,5,-13,-24,-61,-35,226,40,-106
141,406,46,6,-2,-76,-26,325,135,-91
45,168,21,29,-17,-36,-18,132,61,-82
-67,-101,-11,94,-4,-13,-21,-93,-30,-76
-59,-90,11,143,55,12,-32,-253,-68,-42
-1,-46,37,27,80,37,-57,-432,-107,-5
64,-19,25,-73,48,70,-25,-255,-61,72
95,2,7,-112,-24,37,14,97,54,140
171,227,38,-59,7,4,-19,17,77,137
100,132,13,-27,-6,-2,-68,-188,14,99
-15,-103,-35,-60,-69,-28,-58,-44,16,64
-51,-130,-43,-80,-96,-75,-30,518,124,45
20,-56,21,-5,-17,6,31,566,104,75
59,-21,53,35,37,74,47,257,4,74
27,-34,27,20,19,52,20,167,3,23
46,62,36,32,23,34,-4,131,34,-9
77,223,51,54,52,40,31,130,48,-17
-5,22,31,36,18,66,68,131,52,-7
-14,-15,20,27,1,52,43,96,36,-9
-12,-5,-6,28,-8,22,0,27,22,-29
-12,1,-63,36,2,7,-44,-31,11,-22
3,12,15,62,25,19,-42,-101,-19,-19
-4,15,42,83,49,23,-26,-148,-53,-24
74,218,-5,67,80,-3,-33,-123,-18,-37
36,121,-25,36,27,-14,-48,-110,-11,-26
-41,-71,2,22,-21,0,-35,-89,-26,-33
-49,-122,-9,-6,-37,7,-19,-28,-41,-38
-49,-153,-47,-37,-55,0,-14,53,-46,-42
-27,-154,-80,-55,-60,-24,9,111,-39,-36
4,-105,-46,-36,-43,-28,-7,18,-52,0
70,52,-7,-6,-2,-36,-45,-106,-62,21
155,241,6,-1,23,-31,-47,-99,-66,17
33,-41,-40,-21,-46,-34,-56,-124,-81,21
9,-31,6,1,-31,-32,-65,-117,-43,64
44,49,111,40,14,-3,-73,-130,-17,101
69,59,126,60,41,15,-86,-134,-17,108
89,40,91,76,51,-1,-93,-142,-38,102
88,36,51,43,33,-7,-45,-34,-29,90
143,288,49,3,40,-14,37,235,28,68
142,325,3,-55,1,-21,85,358,50,46
-18,-93,-89,-119,-122,-28,59,292,55,6
-98,-208,-109,-129,-154,-31,67,329,118,-13
-135,-232,-105,-49,-128,-25,72,246,88,-40
-148,-214,-142,-60,-143,-46,41,181,59,-53
-143,-222,-225,-102,-137,-72,59,250,83,-41
-104,-108,-168,-65,-25,-51,81,338,105,-45
-18,78,-80,-12,109,-15,52,216,83,-69
-106,-107,-35,21,57,-20,-35,-184,-46,-73
-83,-92,30,73,48,-11,-87,-497,-114,-60
-75,-69,66,103,60,14,-107,-656,-169,-63
-94,-88,34,72,41,30,-98,-688,-209,-90
-77,-85,5,31,7,0,-43,-239,-89,-72
20,18,63,63,12,-24,73,253,73,39
108,141,68,48,-35,-91,285,580,251,121
45,34,13,0,-43,-30,342,571,196,96
-25,-50,-1,10,55,199,50,152,18,12
13,-35,9,-18,-3,96,68,-50,-23,15
30,-38,-11,-43,-46,3,128,-100,-46,34
21,-26,-1,12,43,107,-93,-117,-87,1
63,20,73,106,100,148,-134,-152,-51,6
137,193,62,96,111,93,-25,-146,-22,14
251,534,130,79,143,51,7,-36,30,18
98,195,86,31,53,22,-4,-78,11,24
-26,-56,32,1,3,5,0,-124,0,11
-52,-85,0,-18,-15,13,9,-54,21,-16
-53,-104,-37,-42,-34,0,32,90,88,-8
-24,-102,-55,-40,-56,-34,-21,13,85,40
0,-57,-50,-29,-56,-59,-87,-98,54,76
74,168,-4,10,4,-66,-93,-79,48,44
17,66,2,26,12,-31,-37,-114,10,-6
-49,-44,25,21,9,-5,0,-179,-27,-35
-57,-49,29,-6,1,-22,-20,-230,-65,-38
-57,-73,23,0,0,-26,-39,-258,-86,-33
-58,-75,87,18,-16,-36,-29,-203,-82,-25
-67,-66,110,10,-56,-64,-37,-75,-37,-38
17,89,146,37,-15,-41,-45,53,21,-42
115,250,150,116,86,26,-11,101,73,-16
-17,-21,-32,72,52,51,28,43,77,-10
-82,-154,-220,-45,5,33,87,103,73,-1
-77,-182,-222,-90,15,17,104,114,54,8
-41,-136,-148,-57,27,19,104,21,6,10
-18,-74,-149,-23,17,20,97,-41,-60,0
-13,-7,-56,-12,-5,-25,68,-56,-98,-12
134,358,54,17,33,-86,79,1,-52,-4
122,361,9,-37,-13,-129,75,149,4,1
-42,-58,-117,-48,-51,-45,-35,65,-74,7
-69,-107,-148,-30,10,115,-100,-18,-121,-10
-66,-111,-73,-22,1,62,-58,7,-93,-3
-66,-128,-63,39,39,30,6,62,-55,-17
-61,-116,-31,70,59,45,44,78,-51,-26
-25,-14,0,57,46,32,31,75,-22,-13
8,38,26,21,7,7,2,31,16,2
-10,-45,5,-24,-58,-3,-27,-7,18,34
-21,-54,6,-25,-60,13,-35,-7,18,45
-43,-68,11,-6,-35,22,4,-3,9,20
-61,-72,0,1,-31,12,16,-3,10,9
-70,-66,-28,7,-27,12,-2,0,20,6
-63,-13,3,4,-13,-1,-43,10,23,1
54,312,74,31,39,-65,-9,92,43,12
77,323,80,52,25,-81,22,65,40,11
10,11,42,31,-14,-28,-21,-15,21,39
0,-61,-25,-8,-1,14,-154,-50,0,52
-40,-115,-160,-47,-31,-72,-278,-162,-72,10
-30,-122,-229,-27,-81,-151,-246,-286,-143,-15
-17,-67,-64,15,-79,-150,-203,-346,-168,-17
52,173,88,77,-1,-41,-143,-280,-52,-15
65,250,67,105,57,26,-51,-199,55,-21
-60,-18,9,10,33,38,13,-151,24,-22
-19,0,47,-103,-3,93,72,135,22,-6
6,37,73,-93,-2,116,84,307,84,25
-42,3,54,-53,7,75,59,446,171,40
-56,-33,65,16,33,70,28,400,158,66
0,12,109,48,57,66,-17,136,96,85
95,256,100,45,68,33,-21,110,108,82
-12,55,12,9,-3,-5,-24,136,96,52
-106,-114,-51,-57,-59,-24,22,217,100,0
-120,-138,-69,-67,-57,-15,73,256,122,-51
-109,-116,-48,-36,-38,-13,17,141,108,-66
-106,-91,-20,-1,-18,-3,-45,48,86,-64
-101,-91,3,38,10,16,-56,24,63,-70
-26,100,33,43,54,21,-37,43,81,-46
103,391,49,36,96,17,13,64,81,-28
12,71,11,-7,20,31,46,-76,-51,-40
-23,-64,9,-14,-13,38,32,-233,-185,-33
-17,-62,20,-11,-5,20,27,-264,-218,-27
-13,-62,19,12,9,22,34,-194,-168,-37
-11,-67,32,29,17,27,34,-107,-112,-15
0,-15,21,38,30,33,54,-33,-74,5
64,191,9,44,64,30,57,33,-34,19
4,34,48,8,13,15,48,-14,-38,7
-14,-64,48,-7,-17,-5,7,-54,-34,14
12,-61,18,-11,-39,-26,11,-67,-3,47
44,-78,-14,-32,-54,-23,-14,-71,25,75
58,-59,-32,-47,-63,-28,-38,-81,21,92
54,-35,-32,-76,-93,-61,-62,-102,6,119
53,19,-42,-107,-123,-118,-85,-61,27,132
0,-53,-89,-134,-151,-141,-117,13,65,98
-55,-176,-159,-189,-193,-171,-132,55,62,57
-68,-169,-188,-210,-227,-195,-123,86,52,23
-73,-162,-157,-179,-194,-149,-66,221,81,-16
-67,-131,-99,-113,-114,-81,-1,273,105,-44
-22,-50,-16,-25,-29,-17,-2,129,87,-30
67,90,113,105,90,88,21,-96,50,-11
263,507,234,194,205,104,-39,-396,45,4
293,641,266,189,207,56,-133,-646,-126,-79
69,187,181,98,54,69,-37,-447,-219,-130
-35,-56,125,42,-20,111,117,6,-162,-97
-34,-58,85,29,-30,109,151,227,-68,-63
-59,-86,-48,63,22,71,130,400,-29,-94
-54,-96,-132,115,196,88,252,515,-13,-87
-8,5,-73,80,184,74,348,343,11,-30
10,33,40,48,98,54,228,110,13,5
-15,-59,39,36,116,132,-122,-151,-82,-30
0,-63,42,47,121,115,-124,-185,-85,-12
-20,-74,23,41,88,77,-15,-40,-27,-8
-55,-98,-28,-7,26,30,0,80,20,-21
-54,-108,-64,-17,30,18,-11,32,8,-6
-7,-39,-50,-20,45,12,43,104,42,4
173,336,16,-5,90,-7,67,126,88,18
137,262,26,0,51,-11,48,-27,30,23
-9,-60,-9,-4,-14,-1,41,-136,-39,35
-37,-86,3,3,2,0,49,-158,-63,20
-58,-86,7,-9,6,-2,61,-126,-60,-2
-53,-92,-2,-8,-3,-2,59,-87,-59,0
-39,-75,-56,-13,-23,-9,67,-75,-30,23
57,146,-15,-12,0,-19,80,-21,42,70
91,195,-12,-14,-2,-28,66,10,72,81
-25,-72,-27,-20,-62,-29,32,-38,33,69
-29,-75,-8,-11,-82,-26,13,-57,22,62
-15,-47,-58,-9,-89,-29,-16,-78,20,78
-15,-53,-133,-25,-90,-35,0,-59,43,93
-30,-66,-41,-1,-73,-42,15,-54,30,85
-20,-40,-5,-1,-58,-54,-46,-75,-15,51
7,37,-73,-28,-57,-56,-76,-79,-37,11
-21,-62,-70,-32,-80,-50,-72,-71,-41,-24
-24,-90,-8,-41,-84,-54,-72,-23,-29,-37
-43,-155,-64,-60,-75,-42,-56,25,-39,-80
-49,-189,-94,-63,-68,-33,-34,64,-29,-130
-60,-134,-32,-51,-43,-51,-25,82,13,-139
-63,-58,-24,16,5,-38,-33,14,6,-130
-21,123,-69,47,68,6,32,56,15,-120
36,295,-7,25,89,-4,80,232,58,-109
-89,-45,-11,-37,-23,-22,55,244,58,-104
-115,-103,71,-6,-35,-2,73,155,-1,-83
-78,-57,166,56,9,36,66,-38,-78,-70
-54,-34,168,84,16,33,3,-180,-69,-45
-51,-28,112,63,13,14,-68,-284,-42,-44
11,56,19,39,79,27,-118,-427,-33,-32
153,286,-21,18,167,56,-128,-446,-12,1
42,67,-11,-4,111,81,-66,-316,-46,20
-8,11,39,22,71,37,9,77,-7,24
24,39,71,44,20,-68,58,138,14,33
32,31,61,31,-27,-156,159,26,21,47
-8,-11,38,26,19,0,108,-60,7,33
-41,-23,13,32,118,238,-141,-175,-51,-24
49,115,54,39,98,159,-38,-37,36,0
62,81,61,34,43,107,30,143,117,24
-14,-47,-10,-21,-35,39,-2,107,75,39
-42,-103,-71,-78,-64,-1,-26,98,32,35
-42,-114,-62,-70,-55,11,-33,137,6,-1
-46,-118,-81,-62,-56,8,-44,307,11,-20
-28,-98,-73,-43,-53,8,-42,308,1,22
16,15,-76,-22,-27,8,-30,78,-32,40
161,400,-71,7,40,-8,-43,32,-22,51
196,489,55,57,83,-5,-67,56,-35,45
63,117,71,69,30,-20,-59,91,-42,50
40,-42,36,29,-26,-45,-12,96,6,74
41,-67,-87,-13,-79,-90,14,127,36,62
-9,-89,-33,1,-11,47,-10,110,16,-5
-37,-95,7,15,24,115,20,73,-23,-53
-17,-12,19,25,21,57,49,56,-32,-44
-41,-58,25,28,31,50,78,43,-17,-28
-59,-141,-7,22,4,37,75,22,-29,-22
-38,-138,-100,7,-8,7,26,-10,-17,-14
0,-114,-53,0,12,4,-18,-47,10,-11
9,-90,-9,-1,16,0,-32,-133,-48,-13
-1,-72,-27,-52,-25,-22,-37,-232,-96,-23
4,-13,-54,-107,-61,-51,-82,-198,-68,-41
170,362,-28,-106,-18,-81,-131,-92,-11,-51
120,204,-17,-85,-37,-62,-87,1,13,-19
0,-87,-28,-59,-40,8,27,296,171,44
-11,-78,-32,-19,-23,38,33,165,146,61
-35,-66,-7,-14,-40,19,3,-45,29,37
-67,-81,6,-6,-51,0,33,-29,-13,25
-49,-86,-1,6,-45,-7,27,-8,-29,24
46,136,39,27,25,-4,29,33,-16,1
17,120,24,13,16,-18,29,40,-29,-6
-60,-117,-44,-26,-24,4,90,76,-38,-19
-40,-108,-14,-26,-27,14,128,112,-22,-31
-36,-50,-1,-8,-27,11,85,4,0,-57
1,19,57,41,14,26,7,-220,12,-48
29,34,109,93,56,46,-36,-417,-5,-11
71,59,163,137,96,57,-60,-379,23,19
92,91,133,130,93,60,-25,-58,93,33
52,-5,38,57,43,39,6,65,95,27
17,-41,-25,19,24,35,8,-15,58,12
-13,-39,-24,23,30,55,40,-33,-6,-1
-25,-4,24,58,42,57,38,-48,-71,-12
-40,-17,55,79,54,48,34,-60,-90,-25
-40,-31,34,57,35,50,66,-21,-65,-28
101,213,48,54,62,40,72,19,-8,-17
195,350,39,26,72,7,62,24,22,-14
10,-30,-43,-9,-34,-27,20,-68,-33,-14
-41,-135,-86,-27,-76,-42,30,-74,-76,-17
-33,-133,-81,-45,-79,-46,33,-91,-79,-13
-5,-86,-18,-27,-65,-41,27,-149,-47,5
0,-54,-9,-23,-65,-34,17,-194,-42,16
27,44,-18,-11,-41,-40,-14,-150,8,14
104,270,46,13,17,-51,-48,-21,113,20
-25,-4,20,17,-11,-26,-60,-130,37,2
-85,-123,-90,-27,-47,-21,-21,10,9,-11
-98,-159,-91,-63,-57,-15,20,385,62,18
-89,-154,-50,-51,-51,-5,46,409,49,36
-89,-146,-127,-48,-34,3,61,389,24,29
-71,-98,-168,-26,-8,2,3,200,-49,5
-32,29,-56,-24,4,-24,-46,-38,-88,0
-30,-2,19,-28,-25,-52,-76,-159,-129,21
-29,-76,15,-26,-54,-80,-76,-128,-130,39
-20,-79,5,-29,-48,-73,-37,35,-59,28
0,-49,8,-28,-24,-51,10,118,11,30
3,-15,60,-28,-5,-40,0,69,8,3
-16,-52,64,-33,-10,-29,6,47,5,-25
0,19,34,-27,-16,-39,87,94,10,-48
143,405,15,7,39,-63,213,198,58,-44
161,427,82,27,60,-15,270,151,73,-19
0,22,83,63,23,56,154,-35,-5,-30
-123,-140,63,144,67,82,-60,-153,-100,-111
-122,-155,28,121,27,19,-75,-98,-82,-103
-76,-127,11,98,-42,-2,-56,-55,-35,-44
-24,-64,27,108,-33,6,-44,63,36,9
50,60,48,1,10,32,-10,72,67,37
10,-6,-23,-66,78,64,-33,-38,28,17
-65,-119,-178,-151,32,27,-25,21,79,-17
-107,-166,-162,-195,-94,-67,-41,128,128,-38
-76,-142,-111,-124,-98,-74,-49,21,86,-28
-42,-88,-15,-52,-62,-81,69,-71,45,-7
3,-37,47,-16,-50,-71,195,80,73,42
44,32,53,-13,-36,-12,149,336,145,64
41,71,44,-14,3,71,-33,221,120,25
15,-1,22,-6,-18,60,39,26,69,25
34,13,7,13,-36,-7,26,-56,18,37
42,26,5,38,0,-28,-34,-121,-24,39
28,6,16,49,28,29,-58,-128,-36,38
42,0,43,49,42,22,-116,-123,4,68
54,43,86,77,115,28,-159,-138,29,102
130,243,104,93,142,37,-167,-72,36,100
247,534,117,115,167,15,-139,79,3,82
183,410,71,74,111,-20,-113,153,-19,99
7,-50,-32,-13,-16,-53,-112,88,-65,78
-42,-162,-67,-50,-65,-73,-98,15,-61,44
-46,-138,-53,-45,-48,-51,-90,-97,-91,16
-59,-120,-10,-6,-15,-27,-88,-276,-110,-25
-50,-74,-52,-2,-21,-28,-87,-304,-77,-45
-49,-33,-111,-2,-36,-43,-80,-191,-54,-50
-49,-82,21,37,-15,4,-31,-102,-112,-47
-15,-57,106,71,22,55,23,10,-135,-42
19,-45,103,77,53,62,44,-59,-130,-45
19,-51,83,80,45,54,35,-155,-133,-40
-6,-81,44,61,14,30,11,-161,-98,-38
-5,-68,-2,40,0,19,14,-141,-55,-14
143,248,37,16,23,6,-13,-131,8,8
180,306,29,-4,39,-8,-30,-162,23,1
-23,-119,-55,-39,-37,-24,-25,-24,35,5
-73,-193,-60,-46,-65,-35,-27,174,89,9
86,198,58,-13,24,-10,-12,215,33,-8
-23,-77,101,-42,-54,-16,14,183,28,-12
-41,-81,108,-22,-57,-12,19,132,30,-2
-45,-68,23,-12,-39,7,29,141,24,-23
-41,-78,-120,-25,-46,10,54,138,18,-22
-25,-91,-149,-43,-36,7,47,65,-24,-6
-12,-62,-78,-39,-6,32,56,15,-45,-8
12,36,-6,-18,15,35,36,-6,-32,-17
-16,-28,12,-7,12,15,8,-138,-42,-16
-34,-72,6,-7,10,1,-8,-258,-80,-16
-36,-86,2,-19,9,-14,-44,-206,-63,-17
-54,-124,-33,-54,-29,-51,-70,-19,53,-9
-43,-123,-31,-58,-47,-72,-73,120,125,-2
4,-75,0,-28,-26,-41,-35,212,169,38
96,103,28,-14,-11,-45,-42,49,162,69
268,438,56,2,32,-38,-76,-23,143,100
123,128,-48,-16,-15,-32,-68,23,62,108
8,-81,-69,-28,-44,-23,-22,165,7,66
15,-30,-58,-12,-19,5,48,257,16,60
26,23,-42,0,-6,19,55,44,0,67
9,8,27,-1,-9,-9,13,-158,-44,31
-33,-19,23,-6,-3,-16,27,-139,4,-18
17,208,78,-14,15,-29,23,-134,38,-55
-94,0,6,-62,-60,-50,14,-103,-9,-112
-170,-182,-40,-67,-82,-62,0,-38,-17,-135
-149,-137,-25,-16,-61,-43,-6,62,42,-87
-80,-57,52,36,-29,-3,20,121,88,-28
-26,-30,31,55,24,39,47,76,46,-5
9,-15,1,58,56,51,77,207,45,23
76,134,2,89,104,49,82,218,62,17
189,449,99,102,156,45,88,106,66,-5
35,111,90,46,57,30,77,-45,17,-17
-50,-75,69,31,3,27,51,-105,-19,3
-60,-66,46,27,14,27,53,-86,-31,13
-51,-84,32,11,1,5,35,-65,-34,4
-38,-100,15,-15,-24,-8,7,-69,-54,4
-28,-68,2,-46,-50,-19,3,-58,-82,-15
46,164,9,-53,-44,-39,7,-6,-47,-1
2,48,-87,-82,-80,-49,-23,-38,-56,36
-38,-45,-28,-46,-69,-32,11,-26,-34,56
-49,-57,33,28,-18,-19,57,61,36,45
-90,-120,-35,5,-17,-26,70,181,126,0
-106,-135,-63,-39,-32,-20,101,198,173,-33
-105,-121,-87,-48,-32,-16,93,92,145,-53
-63,-19,-98,-23,-5,-15,37,-50,42,-84
-45,41,-10,-4,19,4,-6,-7,-14,-116
-109,-67,20,0,18,20,-17,89,-37,-133
-94,-77,17,4,12,17,-50,-22,-84,-119
-22,-20,60,43,44,38,-54,-102,-154,-51
31,18,109,83,85,53,-75,-184,-213,-6
24,14,92,89,71,34,-88,-241,-212,5
37,57,55,64,46,18,-58,-215,-149,35
196,443,99,60,98,1,-10,-158,-5,67
195,416,109,44,82,-25,-15,-239,12,74
6,-39,24,-22,-49,-71,22,-318,-42,56
-34,-125,-22,-87,-130,-139,64,-300,-21,47
-36,-130,-56,-106,-173,-190,38,-267,-24,41
-80,-155,-105,-64,-94,-81,-5,90,40,-9
-119,-163,-156,-17,5,85,64,710,224,-5
-36,46,-33,2,48,80,67,778,234,17
54,214,48,33,90,87,56,583,168,19
34,37,80,49,20,89,57,292,138,83
36,30,80,36,-35,27,-11,87,94,80
-14,-16,57,3,-79,-12,-53,-43,45,21
-14,0,88,49,-49,17,-52,-233,-12,1
-37,-34,78,101,80,59,-36,-258,-37,-31
-43,-70,-9,68,174,91,47,-201,-28,-44
32,29,-91,46,142,118,106,-219,-50,-9
43,-1,-97,50,75,79,72,-231,-92,18
20,-25,-97,36,28,29,48,-67,-85,35
-17,-51,-83,20,23,10,31,-47,-82,16
-51,-75,-1,21,14,2,30,-89,-109,-35
-55,-98,17,-1,-11,-6,27,-32,-97,-61
-46,-84,-5,-21,-25,-21,-2,21,-61,-57
46,134,16,-33,-2,-19,-34,48,-3,-31
195,467,81,-17,47,-18,-40,78,48,5
45,126,61,-22,-17,-20,-57,3,1,22
-25,-58,47,-13,-38,-24,-55,-34,-18,23
-19,-88,29,-17,-35,-9,-32,-23,-3,48
-11,-113,0,-36,-45,-22,-27,-3,22,55
-9,-118,-24,-38,-47,-22,6,34,24,74
13,-52,-25,-35,-30,-8,52,58,22,65
126,224,-3,-32,1,-15,49,92,55,71
38,34,-40,-58,-47,-29,6,12,13,76
-34,-80,-56,-42,-59,-36,12,-5,-3,43
-55,-82,-25,-1,-50,-41,21,-16,-10,-10
-69,-76,-51,55,-16,-19,43,-73,-35,-63
-66,-62,-13,91,0,-3,46,-133,-23,-63
-49,-52,-31,112,5,-11,-18,-191,-53,-48
38,142,32,139,54,-24,-82,-222,-73,-22
141,428,86,26,74,-41,-90,-230,-28,-2
10,71,19,-176,-86,-35,-106,-270,-34,4
-83,-165,-82,-260,-196,-41,-94,83,60,21
-102,-182,-83,-189,-130,-33,-41,346,109,19
-84,-112,-19,-74,-30,24,14,371,71,-6
-83,-98,-5,-36,5,36,76,417,108,-30
-97,-92,-4,0,27,25,102,439,155,-36
-49,117,78,26,68,30,131,594,162,-42
-54,-11,109,3,24,48,117,590,136,-17
-16,-74,72,30,26,80,76,346,97,29
-1,-53,7,64,50,60,11,9,8,40
-9,-48,10,66,69,43,-22,-250,-83,9
21,-55,-68,37,76,61,-33,-376,-125,24
71,-26,-54,48,90,74,-49,-443,-131,45
129,65,10,79,84,66,-75,-386,-98,36
106,35,-37,13,28,24,-69,-237,-65,0
41,-84,-57,-57,-29,-5,-51,-127,-48,-19
36,-94,-41,-102,-61,-22,-56,-54,-38,-19
32,-92,-30,-90,-55,-37,-85,-34,-41,5
16,-88,-9,-42,-33,-43,-93,-46,-57,3
0,-60,18,0,0,-16,-95,-84,-67,-19
15,26,36,7,27,-20,-93,-63,-37,-23
170,414,87,34,85,-20,-67,51,19,-17
135,294,56,29,53,-15,-38,25,-10,-24
-18,-86,-40,-6,-3,-6,-7,-65,-37,-14
-24,-62,-34,14,16,4,-24,-143,-41,4
18,23,87,22,5,-5,-20,-155,-24,51
43,34,62,-14,-43,-65,69,-115,0,78
59,13,-85,-29,-72,-96,179,-17,40,100
100,137,-64,4,-12,-37,104,3,37,72
39,83,-122,-13,56,59,-190,-150,-42,-22
-84,-201,-176,-97,-54,13,-151,-127,-53,-73
-74,-205,-96,-114,-102,-27,-48,-17,-20,-63
-56,-173,-50,-97,-73,-27,-28,16,4,-37
-71,-177,-91,-82,-53,-33,-12,24,2,-39
-59,-150,-161,-47,-29,-20,-16,230,13,-25
-29,-106,-91,2,12,6,-45,378,56,6
-4,-66,13,24,38,23,-47,300,131,24
16,-21,48,35,39,24,-60,118,116,8
14,0,69,46,35,16,-68,49,63,-30
14,14,78,38,13,19,-61,35,1,-32
19,10,60,15,3,20,-55,46,-4,-27
19,0,34,15,16,26,-36,49,26,-3
26,10,39,30,23,25,-20,-29,-6,14
114,230,49,27,43,20,5,-4,12,2
218,461,64,21,67,8,22,37,58,3
51,53,25,-2,4,17,27,-71,-4,-5
-21,-96,6,-10,-17,9,21,-49,1,-18
-29,-105,-25,-44,-36,-14,38,255,100,8
-24,-86,-49,-49,-61,-27,16,281,95,34
-9,-66,-7,-30,-65,-33,-7,96,24,18
36,41,25,-18,-30,-12,0,-8,0,17
157,303,52,14,39,14,22,-6,60,43
64,60,-12,23,12,35,29,-42,55,33
5,-44,-73,13,-12,17,14,-41,41,19
-4,-39,-49,1,-7,-1,12,-62,13,56
-8,-30,-1,-4,-16,-18,-12,-92,16,50
-29,-35,9,-9,-24,-34,-10,69,74,34
-45,-54,11,0,-27,-23,7,180,84,20
13,129,29,31,19,-10,20,53,35,9
28,294,18,29,55,-27,19,41,-13,-28
-145,-117,-75,-59,-66,-90,-18,117,-77,-88
-179,-247,-121,-88,-104,-73,-4,309,-86,-92
-107,-184,-48,-28,-46,7,24,488,-15,-57
-55,-100,7,39,34,56,13,202,-25,-16
-59,-80,-22,83,63,59,-38,-252,-134,-53
-2,19,-23,100,77,37,-62,-389,-144,-67
156,308,122,119,130,35,-66,-391,-132,-55
48,90,106,77,69,21,-86,-392,-172,-52
-3,-14,39,-20,-53,-26,-111,-340,-165,-65
-48,-54,-37,-93,-142,-59,-80,-295,-157,-100
-82,-87,-71,-110,-157,-93,-69,-260,-117,-79
-48,-44,-15,-33,-91,-39,-68,-198,-50,-15
-27,7,93,93,62,36,-26,-246,-1,12
-7,51,101,125,220,74,13,-197,-33,-8
-33,-39,27,47,156,76,102,94,20,-5
-83,-155,-45,-25,37,54,127,339,130,10
-53,-131,-33,-25,16,46,104,245,123,21
-32,-84,14,2,30,67,97,84,13,12
-34,-61,23,12,35,62,87,-54,-73,-4
-35,-54,30,6,36,45,96,-135,-113,-16
-14,34,26,12,32,48,120,-104,-101,-23
129,420,74,55,94,47,132,57,-24,-2
57,267,62,53,77,48,134,72,14,23
-30,-46,-44,-8,-1,28,104,36,26,43
0,-67,-125,-39,-36,4,22,15,48,80
23,-34,-17,-25,-21,-11,-63,-64,45,99
4,-23,26,-3,-21,-22,-80,-134,34,95
10,-19,28,8,-17,-21,-64,-163,18,102
94,185,59,43,33,-10,-51,-137,12,89
90,157,53,45,46,-3,-43,-173,11,67
12,-18,30,25,8,13,8,-181,33,41
0,-24,26,2,-23,0,39,9,67,48
-12,-68,-4,-37,-49,-20,41,256,138,68
-16,-95,-28,-43,-44,-13,65,214,129,75
-36,-115,-62,-42,-30,-5,73,127,94,46
-44,-71,-130,-44,-19,-25,52,61,55,-6
-30,-8,-75,-60,-48,-73,35,225,104,-44
-93,-127,-81,-112,-120,-107,44,523,173,-79
-120,-147,-79,-130,-131,-115,27,468,105,-128
-129,-140,-49,-87,-111,-103,-24,273,41,-137
-119,-129,19,-8,-59,-35,2,203,43,-95
-63,-73,92,28,-24,-32,-4,28,11,-38
-9,-35,35,-2,-28,-68,-63,-215,-71,-17
147,272,52,58,130,33,-55,-237,-74,-7
235,475,143,129,219,130,-23,-213,-106,11
82,87,99,128,129,123,-79,-382,-210,29
47,13,16,114,69,62,-100,-411,-235,45
28,3,28,81,51,20,-67,-322,-202,16
-25,-19,47,57,11,1,-6,-254,-168,-39
-44,-35,60,35,-15,3,48,-197,-130,-51
-13,37,53,17,-28,-11,37,-152,-83,-43
57,201,8,27,3,-23,21,-8,-28,-23
-16,-49,42,-2,-25,-3,45,155,22,7
-12,-75,81,28,-29,26,48,207,89,43
-2,-82,-20,2,-37,19,27,51,31,34
29,-80,-134,-56,-47,-7,79,-22,-1,39
41,-57,-89,-8,-36,-36,150,-11,25,63
47,-34,-6,71,-15,-56,148,42,67,76
140,237,42,50,43,-31,-29,-3,65,36
139,334,31,22,162,84,-190,-123,1,-49
-49,-39,-43,0,77,79,-115,-139,-23,-45
-86,-102,-154,5,27,34,-18,-28,-3,-25
-74,-88,-141,9,6,11,25,36,15,-26
-49,-65,1,7,-14,1,11,27,27,-17
-28,-46,34,-5,-16,15,8,16,74,6
57,82,31,-7,7,24,23,18,115,59
152,262,52,-3,35,15,10,30,156,106
21,-22,7,-40,-34,-15,-46,-71,105,137
-13,-93,-36,-87,-85,-54,-162,-190,53,147
-32,-85,-34,-85,-84,-71,-173,-224,32,112
-45,-72,-1,-46,-50,-40,-103,-24,46,60
-76,-89,3,5,-23,-16,-10,60,48,2
-127,-134,-41,41,-23,-41,19,160,51,-69
-127,-59,-41,50,0,-34,27,559,137,-121
-81,-40,42,104,51,19,41,404,77,-93
-67,-80,26,95,6,-54,44,184,9,-61
-33,-89,0,96,-4,-101,79,242,-4,-30
33,-35,12,-25,-15,-58,111,227,-13,18
24,5,33,-95,-4,20,-162,-196,-155,-28
30,31,46,-94,-42,-60,-158,-382,-217,-42
55,146,53,-44,-32,-118,77,-219,-161,-1
66,389,46,51,177,159,-65,-48,-132,-75
-46,133,4,38,150,210,-109,99,-80,-106
-95,-74,-29,-19,33,98,18,271,-18,-67
-65,-61,-33,-37,-5,66,33,179,-30,-44
-36,-36,7,-56,-41,34,-2,-60,-64,-29
-34,-64,41,-48,-42,41,-6,-182,-89,-21
-21,-88,9,-45,-32,42,-6,-197,-96,-10
93,135,-17,-47,-2,0,-25,-144,-59,-8
42,54,-10,-53,-26,-25,-47,-74,-48,4
-17,-83,0,-38,-38,-3,-39,131,29,59
17,-44,35,-5,-1,26,13,279,149,120
-8,-51,16,-3,-3,13,52,181,97,105
-26,-50,11,-18,-11,1,42,100,66,71
-25,-29,24,-20,-2,-5,59,76,61,20
0,30,15,-14,2,-17,27,19,39,-31
10,68,3,-11,18,-16,3,-32,12,-42
-28,-57,-32,-40,-27,-45,3,-30,7,1
-40,-109,-81,-82,-84,-105,-20,19,55,29
-34,-136,-115,-115,-115,-133,-40,46,66,45
-16,-110,-119,-97,-88,-125,-18,62,47,36
9,-71,-169,-63,-56,-75,42,36,36,13
26,-37,-136,-35,-41,-68,67,13,48,-1
131,287,48,18,36,-21,126,87,107,-11
130,390,111,55,80,35,176,22,59,-42
-38,8,67,38,27,62,158,-208,-69,-85
-97,-82,7,10,1,40,116,-240,-70,-76
-106,-91,-33,1,2,24,50,-177,-50,-61
-105,-94,-5,23,30,37,39,-136,-73,-90
-72,-67,0,50,52,43,48,-199,-111,-105
39,103,35,100,120,74,41,-257,-144,-77
135,284,129,154,200,109,54,-142,-120,-47
49,35,108,113,114,75,34,-194,-115,-35
9,-51,27,44,39,34,9,-256,-142,-10
3,-75,-48,8,-4,35,0,-136,-119,6
14,-62,21,22,10,28,14,171,-45,26
-17,-86,-5,-11,-12,0,6,493,53,22
-13,-81,-20,-39,-20,-18,-7,468,90,6
150,273,33,-15,56,-6,-11,217,58,-1
178,351,19,-24,48,-14,-14,77,13,-4
9,-44,-141,-71,-48,-43,-27,-13,-41,14
2,-68,-137,-54,-62,-54,-59,-77,-52,26
-12,-42,-22,-13,-41,-23,-61,-118,-70,10
-52,-90,-28,-21,-41,19,26,176,13,2
-45,-119,-117,-20,-35,18,42,386,86,23
22,39,-53,-12,-10,-9,-3,272,74,29
85,214,-7,-42,-3,-34,-35,272,96,28
-33,-47,-69,-98,-90,-76,-59,270,86,36
-81,-90,-38,-80,-87,-71,-67,291,82,14
-90,-129,-7,-52,-71,-49,-53,327,99,20
-46,-127,9,-30,-38,-38,-42,255,100,36
-5,-93,44,0,1,-19,-44,-96,37,34
10,-52,61,26,17,-8,-40,-382,-45,15
30,50,104,54,30,-3,-47,-393,-75,-9
23,10,124,49,13,11,-80,-480,-148,-15
19,-27,109,31,-8,11,-103,-540,-150,-3
-22,-58,36,-3,-42,0,-81,-374,-73,-23
-72,-102,-53,-48,-54,-23,-91,-98,-7,-62
-52,-91,-77,-31,-27,-28,-89,171,90,-52
-11,-63,-31,-14,-1,10,-9,256,160,-28
30,68,-109,-25,5,12,54,298,134,-45
176,376,-65,7,72,-5,39,277,122,-43
67,131,60,66,83,33,-12,-21,-6,-15
11,-9,94,108,82,72,-17,-216,-97,-8
-10,-28,80,73,52,66,-2,-167,-99,-19
-32,-37,64,51,32,69,62,21,-53,-23
-30,-13,91,84,40,78,103,-2,-7,-9
-4,29,100,64,-5,61,79,-127,12,14
161,387,97,48,17,36,88,-35,81,27
188,422,111,41,13,26,77,20,104,58
0,5,88,56,-13,38,11,-33,39,54
-39,-92,58,91,102,32,-8,-39,17,21
-47,-114,57,58,125,29,4,-46,-9,10
-47,-124,49,10,25,-4,2,-27,-3,19
-49,-94,65,4,-36,-32,-22,30,48,29
-12,13,89,16,-33,-38,-61,-12,22,17
17,27,-49,-15,-36,-44,-103,-18,0,11
13,-97,-164,-56,-43,-29,-115,2,-4,11
14,-87,-121,-44,-18,3,-83,-21,-45,1
-11,-94,-97,-49,-26,1,-51,48,-56,-17
-13,-108,-209,-62,-34,-13,-60,98,-31,6
-18,-99,-166,-19,-14,0,-53,55,-14,39
-3,-36,-25,9,5,-7,-73,-7,0,57
116,272,35,28,25,-34,-77,0,44,76
130,261,28,13,0,-47,-63,-109,27,95
3,-78,-55,-26,-69,-50,-90,-278,-60,84
-8,-119,-66,-32,-64,-74,-132,-247,-111,69
-6,-116,-44,-35,-52,-74,-65,161,-59,47
-28,-117,-62,-21,-32,-21,17,303,-9,4
-44,-111,-13,-16,-21,2,73,180,-37,-58
8,53,49,8,12,13,116,279,-15,-108
38,151,70,12,42,26,124,324,8,-129
-97,-134,-27,-41,-35,10,48,245,6,-113
-115,-174,-44,-74,-61,2,-20,120,-26,-92
-95,-142,-13,-51,-39,5,-55,-23,-92,-60
-70,-96,22,-7,-4,-11,-50,54,-61,-33
-36,-46,65,32,36,10,-30,56,16,-12
8,30,66,41,39,6,-36,-201,40,28
184,410,99,60,107,9,-19,-268,53,26
147,365,79,50,95,18,8,71,108,5
-13,-18,13,31,23,19,32,201,43,1
-20,-44,6,41,23,23,28,22,-30,-8
-20,-54,20,29,1,8,11,-89,-41,-6
-30,-60,16,7,-37,-37,-15,-127,-24,1
-24,-60,6,-12,-43,-39,-3,-33,-5,33
59,102,7,-22,-19,-15,47,149,40,65
76,173,1,-28,-12,-15,62,113,37,47
-26,-94,-33,-63,-77,-42,28,-52,-28,6
-22,-97,-35,-71,-110,-76,7,-121,-37,-4
-3,-85,-22,-72,-135,-100,-19,-181,-43,-10
24,-84,-79,-75,-150,-155,-44,-173,8,22
46,-82,-164,-50,-108,-147,-60,-114,51,67
69,-37,-72,-5,-23,-30,5,119,110,95
113,80,71,80,92,117,70,362,231,126
72,1,82,113,153,225,42,203,184,98
81,1,69,96,99,119,63,-6,118,126
95,48,87,74,45,25,67,-171,61,158
75,61,90,56,13,3,63,-186,26,139
-11,-3,40,41,51,86,-113,-205,-62,0
-77,-52,13,34,52,95,-122,-228,-111,-84
-14,96,-8,-2,14,16,-30,-65,-24,-94
91,327,-15,-45,1,-35,1,122,31,-98
-65,-42,-75,-74,-70,-14,16,203,-47,-93
-103,-180,-64,-59,-65,10,42,206,-106,-95
-74,-136,-53,-25,-29,24,20,-90,-151,-98
-59,-71,1,13,0,45,-11,-269,-166,-99
-77,-29,51,39,24,72,-7,-232,-120,-92
-65,22,38,43,29,78,28,-104,-25,-68
47,279,79,73,92,38,15,-17,27,-90
-58,53,56,79,73,57,9,96,51,-92
-126,-75,14,51,38,64,47,301,129,-57
-115,-88,6,18,20,45,47,223,117,0
-57,-79,-5,-13,-5,29,55,81,100,51
-31,-60,13,-17,-24,30,49,-44,98,81
-3,-39,-4,-2,-16,33,12,-127,71,81
35,62,-43,25,5,26,-8,-154,16,78
31,44,25,46,15,13,3,-196,-34,58
-8,-84,-21,-1,-41,-10,14,-142,-5,31
-13,-112,-64,-49,-70,-28,41,-72,10,23
-10,-106,-140,-72,-54,-36,47,11,3,15
-9,-120,-101,-117,-60,-56,58,259,31,-4
-5,-102,-67,-125,-77,-83,55,532,66,-11
52,2,-100,-91,-51,-77,59,415,35,8
180,353,-20,4,39,-36,46,199,58,41
109,250,41,75,66,-3,6,71,45,32
-20,-66,-92,29,32,13,-20,-43,-13,0
-34,-114,-68,-27,4,4,-15,-122,-52,-22
-40,-85,-11,-40,-22,-18,-9,-131,-117,-41
-27,-19,52,-17,-12,-27,-10,-139,-151,-35
-14,12,105,24,0,-31,23,-218,-137,-8
93,186,89,36,31,-6,67,-175,-53,18
95,177,36,33,39,10,11,-115,-11,20
-89,-111,-39,35,25,16,-124,-179,-90,-57
-128,-136,-140,65,46,-6,-71,-190,-108,-86
-112,-90,-146,89,30,-17,-17,-222,-78,-67
-112,-90,-22,153,11,-58,-41,-214,-51,-93
-111,-76,5,127,37,-52,-37,-160,-53,-103
-46,58,20,-49,24,-4,6,-94,-42,-79
126,477,95,-71,56,24,28,-36,23,-33
67,305,95,-63,44,19,66,0,47,-7
-42,-34,57,-44,-9,19,75,49,54,10
-58,-83,40,-31,-31,4,87,228,106,11
-103,-136,-42,-65,-68,-41,78,326,157,-27
-100,-151,-99,-78,-72,-40,80,219,138,-30
-58,-118,-34,-81,-57,-18,75,53,77,-8
28,96,-7,-60,-2,1,74,20,64,25
34,126,32,-22,25,6,11,21,61,22
-38,-68,45,18,20,19,-48,0,47,3
-18,-66,75,37,33,26,-40,82,76,28
0,-44,109,25,-5,11,-32,62,73,44
-17,-55,108,2,-41,1,-25,2,37,37
-18,-83,75,-16,-59,18,42,19,14,43
3,-55,36,-29,-78,14,90,76,5,45
26,3,-59,-13,-1,1,71,53,-2,30
-53,-112,-80,-31,83,18,49,-19,-29,16
-72,-149,-48,-56,49,20,46,-27,-34,22
-64,-155,-56,-67,-6,7,30,-12,-19,21
-55,-148,-48,-55,-18,0,-12,62,-16,-4
-65,-133,-60,-58,-30,-26,-48,208,16,-37
-66,-142,-96,-93,-85,-101,-60,181,21,-71
41,118,-63,-106,-62,-149,-100,70,34,-92
114,365,-26,-106,-33,-147,-105,29,79,-105
-61,-56,-74,-125,-122,-128,-100,-31,31,-110
-102,-173,-105,-116,-150,-120,-94,122,40,-102
-59,-117,3,-68,-111,-87,-71,291,55,-62
24,-20,172,89,9,3,-33,135,67,13
89,40,222,153,75,49,-38,-186,34,86
134,142,191,115,77,35,-58,-412,-111,90
221,355,93,84,127,56,-4,-418,-185,81
135,72,-18,43,94,87,35,-540,-238,83
58,-34,-21,9,35,62,38,-437,-211,72
43,-35,36,25,20,37,34,-290,-134,70
43,-43,71,66,45,55,42,-420,-111,75
28,-43,57,69,39,32,22,-441,-130,43
27,-39,51,69,43,12,40,19,-22,25
36,24,13,50,39,8,91,272,51,13
10,0,-56,33,13,6,123,237,28,10
-21,-47,-3,27,0,19,126,35,-51,-12
-63,-58,16,-17,-19,13,137,-30,-29,-38
-79,-65,27,-47,-21,8,144,8,28,-51
-50,-48,28,-45,-28,-15,118,16,23,-45
8,-3,60,9,-2,26,131,255,102,11
91,118,70,26,32,55,127,385,183,56
248,479,101,40,94,42,75,242,141,43
135,253,63,14,34,6,21,100,75,49
-24,-70,-3,-32,-56,-28,26,32,52,64
-34,-80,-35,-55,-79,-60,26,-25,47,61
-22,-55,-67,-43,-74,-44,-6,-72,32,33
-36,-59,-51,-19,-55,-19,-6,-48,29,1
-31,-57,4,16,-19,14,4,-55,-12,-30
72,151,-6,20,21,1,-2,-40,-45,-73
38,68,-148,-35,-16,-46,-64,-112,-84,-65
-52,-141,-218,-71,-71,-51,-108,-220,-115,-12
-39,-95,-70,-58,-61,-47,-78,-120,-85,28
-11,-83,-9,-38,-30,-33,-46,41,-9,46
-19,-96,-11,-25,-8,-18,3,142,64,44
-66,-121,-31,-24,-9,-15,42,252,57,3
-50,-38,-37,-8,14,5,43,379,99,5
100,343,33,34,88,1,13,305,166,22
45,156,28,4,41,-26,-32,56,112,13
-26,-84,-2,-1,6,-17,-74,-248,0,16
10,-41,29,40,33,20,-80,-445,-77,26
17,-27,53,56,53,72,33,-350,-98,38
16,-34,63,51,56,107,110,-119,-90,48
49,-21,78,33,22,77,64,-90,-80,69
118,172,75,26,18,38,46,-10,-20,81
95,137,57,44,19,41,19,67,9,102
27,-10,25,48,12,31,-67,-5,-7,112
5,-25,-16,27,31,15,-105,-94,-30,114
-1,-51,-60,-17,29,19,-53,-66,-34,109
0,-61,-88,-35,-3,10,-5,-7,-31,101
-24,-85,-102,-54,-50,-6,1,30,-31,84
-29,-36,-142,-63,-89,-20,-3,92,-10,34
-21,14,-85,-43,-66,-20,-9,129,-1,-25
-76,-89,-65,-38,-68,-22,-14,81,-41,-70
-84,-87,-100,-22,-57,-19,-26,14,-54,-100
-53,-40,-119,-3,-15,15,-28,-121,-72,-108
-5,8,5,7,1,40,-57,-253,-60,-76
-14,19,48,2,-12,38,-75,-276,-18,-47
-46,40,58,-1,-6,22,-82,-300,-18,-59
49,332,129,47,88,34,-65,-288,-38,-92
75,431,137,74,124,38,-18,-62,-8,-125
-117,-3,50,36,26,31,26,251,-3,-144
-161,-103,21,6,-6,19,27,203,-47,-153
-148,-109,10,-34,-30,-20,-38,202,7,-132
-138,-123,-32,-50,-54,-26,-35,408,131,-76
-103,-93,-19,0,-10,3,-23,196,62,-57
-24,51,24,65,75,27,-41,-45,21,-60
55,235,39,90,104,23,-61,82,80,-7
12,-8,-9,34,20,-7,-77,220,73,36
47,-80,-35,-12,-20,-25,-75,133,37,54
50,-88,-49,-43,-34,-24,-54,66,8,56
24,-80,-40,-40,-34,-18,0,79,-5,56
4,-97,-36,-27,-24,-13,29,83,-32,44
-22,-104,-22,-5,4,2,63,109,-56,4
1,-23,-73,-2,18,8,94,136,-38,-22
6,-53,-155,-11,-16,-1,64,60,-41,-31
-13,-80,-158,-14,-13,-2,6,-39,-71,-68
-10,-69,-70,-7,-4,0,-48,-108,-80,-77
9,-46,28,10,4,10,-69,-179,-68,-69
0,-52,-17,25,26,26,-40,-179,-45,-50
-31,-62,12,10,19,14,-43,-210,-53,-46
30,82,51,14,20,-7,-69,-257,-49,-39
199,476,102,18,60,-27,-92,-228,8,-9
64,178,53,-11,-10,-51,-74,-192,-8,9
-42,-64,12,-36,-50,-57,-29,82,27,52
-6,-38,45,29,0,-24,38,482,156,114
-32,-40,8,80,51,3,70,438,124,95
-76,-91,-49,29,27,12,100,287,30,35
-53,-75,-32,-2,2,7,93,243,53,50
86,193,38,9,37,-10,53,64,84,95
70,85,20,-20,-25,-46,-35,-255,32,104
6,-89,-30,-71,-88,-86,-80,-338,7,66
21,-79,-39,-82,-81,-70,-49,-111,42,29
41,-24,3,-34,-44,-15,-41,-11,17,13
5,-4,82,21,-12,8,-9,18,4,-24
2,-29,142,31,-11,4,51,200,69,-19
65,68,142,34,1,-24,49,272,88,13
192,379,148,56,29,-58,25,303,127,26
94,155,33,31,-22,-39,-9,206,88,11
31,-63,-96,-24,-29,13,-21,78,39,20
25,-92,-138,-25,1,48,-32,-88,-6,12
-15,-89,-28,13,11,44,-76,-232,-96,-6
-39,-54,82,112,53,53,-68,-270,-183,-31
-15,-6,82,186,93,56,-45,-353,-170,-42
76,226,106,182,100,22,-68,-395,-122,-44
-42,63,96,206,67,-17,-88,-312,-109,-84
-129,-126,44,190,164,7,-45,-34,-45,-76
-86,-94,0,-23,112,45,46,274,59,-10
-84,-99,-39,-168,-34,44,115,243,86,10
-86,-110,-50,-166,-65,12,127,99,35,1
-59,-94,-36,-89,-22,17,116,7,2,6
-11,-4,-15,-53,-1,2,80,-19,8,20
35,74,25,-23,-9,-44,82,-66,7,45
0,-25,9,-27,-43,-64,117,-143,-10,74
-34,-90,-30,-66,-79,-96,95,18,33,70
-106,-139,-92,-105,-92,-41,-160,411,92,15
-91,-103,-84,-92,-97,-33,-160,462,76,39
-53,-91,-62,-86,-116,-106,-73,278,49,84
-24,-89,-109,-92,-98,-75,-110,122,20,82
69,248,-24,-14,53,73,-161,-5,15,44
118,412,125,47,87,75,-93,-114,32,56
-9,32,70,8,2,47,-51,-161,27,45
-36,-104,-58,-15,-9,35,-2,-53,63,39
-60,-140,-31,-25,-16,31,51,-3,62,10
-80,-124,8,-32,-24,18,66,-29,33,-40
-102,-129,-8,-47,-36,7,61,7,-5,-75
-72,-19,-16,-36,-20,-5,25,78,-44,-91
-23,108,-37,-17,5,0,-14,15,-100,-91
-84,-110,-64,-55,-39,-5,-46,-130,-135,-96
-40,-112,-18,-36,-35,0,-76,-130,-118,-60
54,-50,44,22,20,30,-88,-7,-24,13
97,0,61,49,39,50,-53,-18,16,72
72,-18,-26,18,7,33,-2,-78,-16,72
49,-14,17,13,-1,16,14,-13,8,52
91,105,-10,22,5,12,49,74,45,45
52,15,-60,19,-17,19,100,90,71,45
43,-24,-27,-4,-47,-18,49,-24,110,74
37,-13,-42,-12,-22,-6,-5,-157,78,61
-14,-36,22,10,47,78,5,-152,-16,-8
-75,-84,24,1,24,46,29,-25,-98,-56
-82,-121,4,-30,-14,-14,14,9,-113,-31
3,57,11,-29,6,-24,17,24,-77,-21
158,410,51,-14,54,-29,20,55,-44,-40
18,87,11,-19,-3,-12,14,-59,-113,-80
-74,-113,-17,-28,-41,-8,3,-161,-146,-93
-75,-97,2,-2,-31,4,-24,-234,-132,-102
-71,-72,15,18,-13,23,-32,-164,-46,-106
-35,-67,18,33,26,41,-13,-23,60,-74
26,-8,40,73,90,40,-47,-88,60,-7
153,246,53,118,138,22,-71,-51,36,48
85,95,46,99,95,18,-77,31,5,66
28,-33,72,58,39,9,-83,-34,-48,50
45,-31,79,21,-4,-6,-66,-38,-45,33
39,-48,21,-35,-53,-28,-27,127,31,20
20,-48,-52,-47,-49,-13,19,220,40,-5
1,-64,-40,-35,-15,23,87,215,11,-40
73,95,15,-14,40,38,117,222,61,-37
202,408,58,-1,90,30,101,186,116,-23
48,103,9,-24,17,16,71,25,33,-20
-46,-76,-11,-23,-18,0,21,-69,-3,-18
-49,-66,18,21,7,0,-10,-92,-20,-11
-32,-46,41,58,42,18,-26,45,-1,14
-36,-58,51,71,65,36,-42,122,28,43
-17,-25,33,58,58,10,-64,16,27,40
73,218,-6,23,58,-34,-49,4,62,14
-16,-2,-47,-35,-13,-50,-20,-83,-2,-14
-70,-149,-51,-74,-74,-49,-6,-203,-72,-24
-81,-160,-57,-91,-92,-60,-7,-159,-75,-52
-105,-195,-71,-91,-101,-58,3,222,15,-67
-92,-151,-57,-48,-71,-16,19,357,59,-56
-50,-84,-1,13,-5,27,19,173,84,-30
-25,-3,30,32,39,29,4,-3,75,-40
-8,13,29,6,23,10,-13,-152,2,-35
-35,-81,0,-23,-21,-19,-4,-76,-57,-41
-30,-85,-10,-40,-54,-43,48,253,22,-33
-16,-78,-16,-46,-65,-54,70,296,44,-25
-24,-64,-3,-42,-54,-66,1,93,-28,-42
-52,-74,-26,-36,-44,-64,-51,-94,-91,-54
-37,-38,-19,-22,-37,-63,-42,-82,-36,-33
77,269,30,8,36,-66,-57,-43,32,-13
72,234,8,18,43,-56,-93,-47,6,-21
11,-46,11,23,22,-20,-53,182,41,26
20,-57,55,40,14,1,1,349,126,43
4,-70,46,19,-25,-10,-37,78,36,29
45,-35,47,49,-13,8,-72,-186,-58,53
78,-1,119,70,12,22,-51,-57,-52,62
147,166,114,71,49,29,-6,117,-12,47
187,220,8,60,72,26,10,-38,-29,49
72,-52,-137,23,31,38,40,-121,-57,55
49,-85,-126,-2,7,46,84,-11,-22,43
53,-57,-58,0,-10,44,110,-24,-31,48
47,-19,-12,5,-34,24,83,-147,-51,61
40,-8,7,12,-19,28,55,-243,-85,60
44,12,18,36,16,26,50,-273,-111,44
64,92,29,37,23,0,4,-219,-67,19
13,-10,1,8,-5,0,-8,-189,-23,20
11,-29,-7,3,-12,8,21,-172,34,33
-3,-25,4,0,-2,10,26,-159,53,33
-30,-61,-28,-16,-14,-7,20,-137,43,26
-37,-63,-39,-27,-28,-4,29,-93,36,29
-28,0,26,-26,-15,10,33,-68,33,47
53,219,69,0,40,7,60,93,99,55
141,476,98,95,133,21,87,323,181,55
-19,83,28,107,77,28,86,244,132,33
-77,-71,-41,15,-6,7,63,124,76,32
-74,-69,-101,-51,-64,-13,45,39,60,20
-67,-62,-175,-57,-77,-10,48,-3,50,-15
-73,-58,-119,-38,-65,-3,14,-28,-3,-34
-62,14,24,-23,-60,-13,-32,-43,-19,-50
28,251,61,7,-13,-53,21,-4,10,-59
-20,63,-18,14,-9,-16,90,-9,12,-84
-72,-64,-8,9,-11,24,75,56,28,-84
-99,-111,16,-18,-13,8,-54,-16,-30,-92
-93,-128,-6,-41,-65,-108,-92,-159,-74,-39
-69,-132,-24,-63,-114,-150,-54,-215,-81,23
-100,-132,-20,-54,-54,-28,-263,-309,-124,-10
-2,67,25,-38,-33,-13,-288,-270,-62,-11
53,119,30,-61,-102,-69,-113,-169,4,-2
-31,-95,1,-51,-161,-42,12,64,-8,-17
-24,-100,-5,0,-132,5,84,223,-16,-13
-55,-131,-61,49,-86,-13,50,170,5,-35
-80,-168,-63,183,104,-21,0,58,-24,-69
-63,-147,-42,181,231,16,-39,-31,-87,-74
13,-31,-57,-35,136,38,-19,228,-9,-31
199,412,5,-123,104,64,47,465,116,17
120,310,-14,-151,18,18,19,285,67,-24
-68,-81,-47,-129,-61,-6,-37,9,-59,-53
-72,-119,-53,-89,-54,-19,-86,-87,-77,-33
-65,-121,-150,-89,-72,-52,-101,-98,-33,-17
-74,-145,-236,-92,-80,-40,-5,118,74,4
8,-66,-78,-10,-5,40,41,212,167,101
119,116,95,76,75,89,17,26,188,180
92,77,78,70,75,107,78,-41,165,179
36,-21,62,70,74,122,133,187,148,166
24,-24,73,83,80,122,144,336,138,141
0,-10,42,61,64,102,94,127,53,88
-16,-4,-7,49,48,55,54,-61,-47,40
-6,-6,-82,37,23,34,28,-176,-98,18
30,44,-110,37,7,15,2,-238,-139,15
134,329,-34,71,49,-8,1,-131,-116,12
104,208,50,48,20,-13,-21,-138,-100,18
14,-79,31,16,-31,-29,-38,-208,-103,21
-27,-112,-39,2,-45,-45,-12,-156,-90,3
-51,-101,-121,-32,-90,-95,22,-33,-13,-35
-44,-64,-9,-20,-41,-56,0,0,34,-84
-56,-48,55,27,74,101,-50,-66,-12,-146
65,191,101,51,107,86,-9,14,-17,-119
101,216,110,50,62,37,-4,49,-29,-87
14,5,106,56,33,23,-14,81,-54,-64
7,-24,99,62,51,10,-21,77,-24,-25
16,-96,23,11,16,-14,-22,12,-21,-3
16,-152,-57,-44,-29,-20,17,51,-1,6
11,-132,-41,-33,-27,0,36,57,3,1
17,-52,-4,-20,-7,9,72,79,18,5
39,31,-1,-33,0,-2,88,93,33,24
6,-75,-24,-37,-38,-13,53,27,20,26
-20,-89,-20,-37,-47,-26,18,12,48,-6
-44,-78,-29,-36,-51,-44,14,-26,50,-39
-50,-71,-20,-45,-51,-63,42,-147,6,-46
-39,-67,-27,-62,-73,-78,30,-182,12,-27
-54,-64,-46,-74,-85,-105,7,-117,63,-27
-14,148,9,-15,5,-98,3,-63,66,-68
60,353,45,34,59,-58,1,-54,46,-64
-46,-3,-42,-17,-21,-64,-25,158,58,-25
-59,-87,-127,-4,-18,-32,-51,477,112,7
-53,-73,-135,1,13,3,-90,333,27,-1
-77,-76,-82,-5,25,27,-25,102,-80,-28
-76,-68,18,7,38,39,20,87,-110,-52
-26,39,78,44,69,42,43,188,-75,-51
119,286,115,81,134,58,26,-35,-102,-24
31,52,72,81,88,51,-41,-286,-176,2
19,-28,46,56,56,54,-47,-274,-146,31
16,-9,77,15,19,55,-61,-333,-116,51
-7,40,154,21,9,53,-66,-329,-78,31
-46,21,179,17,17,50,-45,-193,-68,8
-59,0,145,19,9,23,-28,4,-62,1
71,266,176,55,78,26,1,227,43,9
178,477,139,48,102,26,27,242,117,20
0,7,-93,-34,18,10,16,103,44,29
-35,-144,-284,-79,-16,0,18,61,15,14
-27,-124,-234,-59,-27,-10,-3,19,-5,-1
-21,-97,-104,-27,-25,-19,-46,-46,-38,-14
-17,-85,-104,-6,-23,-16,-90,-89,-61,-20
6,5,21,9,13,0,-57,-96,-50,-24
77,218,111,41,71,24,-20,-47,-13,-21
-33,-52,56,8,0,24,-6,-57,-23,-6
-66,-135,-9,-34,-38,7,-15,-44,-6,10
-73,-148,-119,-55,-51,6,-14,-32,3,18
-72,-146,-97,-42,-43,9,18,2,24,9
-77,-121,8,-13,-36,15,50,61,58,-17
-86,-101,42,-7,-35,9,54,99,62,-42
-57,-18,38,-36,-46,-16,36,125,82,-53
-73,-53,8,-57,-59,-16,11,100,59,-68
-72,-86,22,-38,-50,-7,-13,64,28,-66
-47,-64,-2,-36,-61,-42,-74,-27,17,-26
-12,-27,-22,-35,-65,-59,-89,-127,23,29
17,1,-51,-23,-68,-47,-46,-69,53,77
21,-4,28,6,-42,-26,-13,24,88,93
107,81,105,61,8,21,51,26,93,95
302,458,143,62,99,45,88,34,148,99
180,204,50,-14,48,24,39,26,141,70
15,-99,-28,-53,-34,1,-14,18,83,36
-3,-97,-7,-45,-45,-7,-18,49,26,7
-6,-71,26,-25,-28,-1,-17,18,-29,-23
-12,-46,37,3,-27,-16,-1,-12,-39,-16
-15,-19,49,-6,-50,-22,32,37,-7,-3
97,226,71,3,-19,-33,26,83,49,-5
62,148,2,14,14,4,9,37,24,-18
-63,-109,-41,18,18,82,46,9,-26,-47
-72,-100,-45,10,9,49,80,63,-20,-32
-51,-80,-81,2,6,23,43,74,-51,-1
-3,-51,-27,19,24,30,-5,36,-72,41
18,-23,3,32,32,30,-51,-22,-44,74
32,35,44,36,40,6,-93,-93,-35,79
36,96,58,54,60,1,-125,-159,-38,74
0,-14,16,45,29,-14,-154,-266,-46,77
7,-18,-41,30,16,-36,-151,-345,-76,68
16,0,20,11,-6,-49,-162,-404,-158,35
35,-4,29,-2,-38,-77,-184,-343,-160,40
29,-34,4,-36,-71,-97,-164,-81,-66,29
-48,-110,-60,-82,-96,-75,-31,291,41,-27
-34,49,-92,-83,-61,-67,89,740,134,-60
10,162,-87,-91,-35,-80,120,1141,218,-48
-39,-91,-67,-65,-45,-19,94,908,172,-31
-33,-71,-15,-10,-15,17,65,440,91,-48
-47,-77,-37,-16,-34,6,24,150,4,-79
-70,-131,-62,-47,-49,-12,13,211,34,-63
-27,-86,-12,13,16,44,25,176,-3,-23
78,99,97,96,105,98,25,-29,-41,-28
181,307,136,123,146,89,16,-73,3,-17
52,44,5,94,66,63,-10,-259,-113,10
29,-23,-50,55,30,38,-5,-268,-121,24
31,-30,-20,34,7,17,-18,-232,-79,34
39,-24,61,41,17,20,-46,-282,-74,41
29,-22,63,39,29,43,-37,-337,-80,18
6,-10,26,50,46,59,-30,-322,-85,-12
114,292,-36,68,98,31,-28,-200,-26,-30
161,415,49,47,105,2,-8,-84,18,-40
-14,-7,55,17,21,8,34,-136,-29,-69
-79,-108,32,-7,-27,-9,91,-118,-19,-79
-80,-102,27,-21,-44,-9,80,-124,-3,-53
-50,-83,35,-14,-35,0,43,-172,10,-39
-46,-74,31,-21,-39,-5,28,-145,44,-28
-3,45,1,-24,-26,-33,-1,-67,97,-10
73,196,1,-27,-36,-89,-16,10,156,48
-1,-62,-13,-68,-118,-138,79,-18,176,110
-17,-101,-4,-84,-160,-174,178,25,158,134
-40,-94,-19,-78,-160,-159,136,144,130,110
-65,-98,-7,-24,-58,-20,-71,195,122,78
-16,-58,22,17,1,35,84,153,125,96
26,-30,44,45,15,77,277,-14,8,62
74,63,73,64,56,129,203,-186,-42,37
-22,-53,15,11,12,92,-98,-391,-145,-38
-82,-122,-14,-51,-92,-9,-136,-63,-122,-74
-82,-98,8,-40,-86,6,-6,366,-54,-81
-91,-80,24,-21,-66,10,18,237,-123,-117
-118,-90,14,4,-37,0,-12,35,-183,-170
-134,-94,0,39,92,21,-8,15,-201,-216
-23,58,7,38,164,49,33,81,-140,-177
167,409,27,20,139,20,44,57,-33,-135
41,127,-3,-18,37,-8,-17,-118,-84,-117
-44,-86,15,-13,5,4,-25,-61,-99,-83
-26,-87,-1,-5,8,27,5,19,-32,-46
-37,-85,3,3,5,28,7,-23,-10,-19
-60,-68,49,19,27,20,22,-41,-55,-3
-42,-41,42,1,30,11,57,-19,-55,22
100,224,69,20,71,-2,20,-29,-10,57
84,113,46,19,50,1,-51,-234,-27,74
10,-51,53,9,17,1,-57,-377,-56,66
3,-48,94,-1,7,-20,-23,-279,-43,52
-11,-43,123,1,-12,-16,-11,-47,8,50
11,-22,127,33,6,2,-4,-36,9,38
16,-25,97,56,38,23,31,-105,-9,10
1,13,-22,45,62,43,68,-112,15,-3
6,42,-113,1,62,40,80,-118,44,19
-23,-24,-123,-34,-8,10,35,-123,64,29
-44,-28,-89,-34,-49,-19,-20,-98,64,36
-47,-60,-56,-21,-49,-17,-20,-83,56,34
-61,-88,-48,-40,-50,-26,-23,26,96,20
-31,-55,-33,-33,-30,-14,-9,82,117,46
27,-2,-11,-10,-40,-32,5,95,94,80
206,323,35,6,-6,-84,16,99,122,120
241,402,48,3,-6,-115,13,61,111,150
42,8,8,-1,-18,-13,-64,-81,-29,99
-25,-73,-6,19,53,85,-100,-161,-92,14
-49,-88,-2,13,47,38,-81,-135,-74,-8
-72,-113,-3,37,47,16,-38,-60,-85,-43
-103,-117,0,87,64,16,-12,6,-107,-101
-34,21,-15,34,57,17,18,93,-71,-102
46,183,-32,-40,19,-3,37,135,-23,-69
-65,-95,-31,-36,-57,-10,15,78,-45,-47
-98,-147,-29,-21,-61,-13,2,54,-39,-57
-101,-150,-38,11,-28,0,-6,20,-36,-73
-89,-137,-47,46,0,5,-22,-12,-28,-56
-76,-122,-40,76,0,10,-31,-30,-44,-39
-27,-76,-54,102,20,12,-50,-39,-71,-20
68,168,-42,-1,67,15,-43,5,-56,7
48,64,-69,-123,-20,46,-11,10,-37,32
18,-53,-55,-133,-63,51,4,16,-18,41
22,-63,-39,-101,-38,26,2,21,-1,42
18,-71,-46,-84,-47,-4,-32,13,3,44
-14,-76,-54,-61,-57,-23,-45,-4,-11,31
-18,-61,-51,-48,-53,-30,-42,-21,-9,24
36,124,-12,-1,-6,-21,-46,1,10,36
142,429,44,45,61,-1,-26,70,56,53
46,143,47,16,19,28,-1,-4,37,57
-12,-62,5,-17,-33,24,23,-77,34,62
-18,-77,0,-43,-44,-4,48,-96,61,67
-33,-85,-28,-47,-45,-19,33,-110,99,74
-45,-83,-57,-48,-50,-57,-24,-23,164,84
-40,-47,-48,-32,-44,-75,-32,85,161,75
21,76,-34,-29,-29,-48,2,173,163,65
0,6,-60,-53,-60,-19,44,270,167,79
-1,-30,-30,-52,-76,-10,48,253,103,94
-18,-37,-59,-41,-59,-40,6,207,54,57
-50,-73,-106,-23,-16,-35,-11,108,8,5
-26,-69,-42,-13,4,-6,13,200,48,7
13,-15,13,18,16,21,-35,127,94,35
83,187,82,28,68,26,-70,47,120,41
172,484,103,22,105,12,6,102,124,16
17,100,42,-5,36,23,64,14,1,-26
-47,-115,9,-7,9,19,55,-101,-83,-48
-48,-119,-13,0,40,13,37,-113,-130,-71
-43,-91,7,15,57,20,81,95,-70,-66
-8,-53,43,27,42,26,66,29,-64,-53
6,-20,13,-2,13,-7,19,-37,-100,-83
102,236,63,46,67,-2,35,121,-29,-42
54,73,80,79,71,25,29,14,-68,-36
-10,-96,42,43,52,14,-34,-128,-125,-68
-31,-118,18,-1,25,0,-81,-159,-131,-70
-58,-125,-21,-37,-32,-37,-120,-155,-109,-73
-25,-59,16,0,-25,-24,-133,-169,-100,-56
39,44,139,81,36,38,-75,-218,-87,-9
93,128,149,96,75,60,-22,-199,-20,26
95,97,92,77,62,50,7,-157,15,36
64,22,54,54,27,20,-9,-155,-4,34
52,-1,29,20,-2,-13,-8,-103,-3,43
11,-67,-1,-8,-36,-29,22,-6,30,30
15,-91,-14,-35,-44,-24,39,66,55,52
11,-100,-39,-43,-51,0,78,231,63,95
43,-44,11,-29,-35,21,117,243,38,117
200,306,37,-25,14,-29,109,179,54,120
165,273,13,-59,-41,-102,105,80,67,119
-25,-87,-57,-91,-136,-133,156,24,24,91
-94,-161,-106,-83,-125,-100,210,142,33,21
-148,-170,-111,-39,-32,11,16,161,43,-76
-130,-131,-25,-10,-27,-46,4,68,52,-88
-97,-95,2,-29,-96,-166,178,79,69,-98
-30,74,14,-12,-31,-62,178,100,48,-117
-9,160,33,32,113,176,-150,-73,-58,-146
-84,-72,29,35,89,135,-214,-207,-98,-117
-92,-85,16,43,82,109,-157,-276,-143,-107
-89,-80,6,49,67,58,-104,-212,-141,-128
-68,-84,-7,38,42,36,-44,-1,-56,-98
-79,-105,-37,6,16,13,-21,-64,-30,-72
-95,-63,-44,-26,-1,-18,-37,-264,-69,-95
-54,118,-40,-31,21,-43,-17,-282,-36,-123
-127,-85,-134,-91,-46,-74,4,-33,20,-117
-117,-146,-108,-83,-49,-68,12,448,120,-67
-37,-56,1,-6,12,-6,43,499,167,0
32,-5,62,46,67,59,154,277,105,49
121,62,130,105,103,115,269,7,64,136
119,94,154,124,98,135,216,-287,2,145
137,245,131,87,81,83,7,-218,32,131
218,477,101,36,104,16,-208,-150,52,49
53,97,33,15,35,-29,-170,-187,0,48
-8,-51,32,32,6,9,-74,-141,-6,81
-6,-51,-1,22,-28,21,-74,-85,-11,76
4,-75,-15,-27,-73,10,-62,-82,-9,79
0,-61,-20,-52,-101,-36,-60,-86,-17,91
-5,-17,48,-7,-76,-42,-60,-70,-30,95
-2,58,84,67,64,-4,-54,-74,-54,48
-69,-58,104,86,168,25,-32,-103,-79,17
-72,-80,99,51,106,6,-11,-112,-66,16
-52,-106,-49,-8,27,-8,38,-71,-43,4
-42,-163,-223,-77,8,26,103,-20,-16,-4
-31,-170,-211,-96,-2,29,109,-41,-14,-25
-25,-126,-119,-59,-24,1,78,46,3,-40
47,118,-16,-8,24,-2,82,206,78,-46
141,406,0,24,82,-3,66,182,98,-56
1,44,-35,-1,2,-16,10,18,36,-64
-61,-116,-28,-13,-47,-22,-7,-47,12,-31
-62,-118,-29,-29,-64,-21,-24,-62,12,-3
-60,-137,-47,-45,-83,-26,-49,-40,-3,-4
-60,-131,-54,-47,-70,-38,-21,-21,-36,-25
-62,-72,-34,-34,-32,-24,12,89,-32,-55
17,153,-5,6,33,4,38,211,12,-51
-18,-3,-11,13,15,8,35,52,-6,-10
-58,-76,9,4,-17,-12,22,-57,-1,14
-58,-62,8,15,-15,-28,31,-55,38,9
-50,-48,16,44,2,-17,45,-40,63,3
-44,-70,27,54,16,-9,20,-5,105,3
-35,-69,-21,27,-16,-10,3,23,108,1
-8,-6,-62,-57,-74,-45,-10,0,110,5
0,-12,-45,-103,-136,-114,-40,-20,93,31
5,-37,-12,-91,-141,-89,-16,95,82,80
36,-7,1,-58,-109,-60,8,254,71,111
3,-29,5,-4,4,98,-54,178,-12,51
-12,-25,7,13,31,88,-89,66,-90,19
-3,-37,0,-2,-18,4,-116,-18,-100,14
0,-13,-27,-35,-50,-44,-136,-130,-92,-13
130,336,1,-25,17,-67,-100,-241,-69,-41
79,191,-19,-31,-12,-56,-66,-409,-140,-58
-38,-143,-70,-60,-95,-72,-47,-367,-177,-41
16,-107,-29,-23,-67,-43,-11,34,-61,17
57,-46,31,37,-5,23,58,297,44,38
18,-63,25,33,-10,36,71,316,30,-2
-9,-82,6,14,-18,36,60,430,76,-28
34,102,3,13,25,21,31,246,49,-78
36,101,-13,18,34,19,27,132,18,-95
-18,-74,-10,30,25,43,36,14,-97,-110
12,-10,70,54,38,53,32,6,-146,-73
23,-4,76,49,35,41,21,22,-94,-1
37,-12,68,58,47,63,1,-82,-82,47
44,5,79,69,51,75,-37,-223,-124,38
79,90,104,88,85,67,-42,-323,-132,54
127,264,118,116,122,49,-29,-319,-110,62
32,36,58,61,62,37,-3,-91,-52,42
-14,-59,32,23,8,16,-18,159,23,46
-4,-68,12,0,-31,-7,-19,87,5,58
-13,-87,-18,-17,-49,-15,12,22,-1,44
-24,-82,-30,-36,-59,-14,14,55,24,40
-29,-72,-56,-66,-71,-34,19,160,83,33
85,194,-46,-58,2,-55,15,63,99,27
191,470,-5,-4,81,-48,11,-114,76,3
9,63,-41,4,12,-26,2,-107,11,-8
-56,-73,-5,0,-26,-13,12,52,33,15
-60,-68,0,-7,-25,8,6,26,40,31
-75,-68,7,5,-2,38,51,6,59,0
-84,-83,3,18,-4,36,65,27,60,-26
-52,-43,13,15,-1,18,40,28,47,-36
-26,47,38,25,16,8,24,26,31,-62
-68,-55,21,27,0,1,-8,-27,20,-70
-74,-75,2,11,-9,-10,-33,-61,8,-62
-71,-61,-10,10,-4,-14,-45,-78,-21,-54
-55,-35,-4,8,-4,-23,-48,-90,-50,-22
-34,-15,18,11,0,-5,-11,-61,-51,-5
-42,-21,38,11,18,17,29,5,-39,-18
17,160,18,-1,31,-12,39,124,10,-28
53,302,-13,-30,32,-46,59,213,30,-60
-94,-83,-89,-74,-42,-53,62,155,17,-81
-138,-183,-98,-75,-74,-54,27,147,38,-79
-143,-161,-86,-91,-80,-63,-14,115,45,-80
-123,-149,-76,-69,-86,-74,-48,37,5,-56
-41,-112,-70,-56,-50,-29,-51,-18,-47,-4
86,55,-92,-7,27,32,-47,-142,-62,66
216,294,17,89,116,44,-88,-318,-108,91
67,27,53,84,81,30,-108,-334,-173,47
20,-74,-3,6,23,14,-76,-238,-160,41
13,-75,-17,-20,-4,20,-32,-59,-64,48
17,-20,22,40,40,48,6,168,39,58
34,31,84,87,70,45,4,181,98,47
8,29,35,81,46,-11,46,51,65,22
64,126,-4,68,0,-51,132,99,107,53
44,66,-2,69,-8,-33,80,23,86,68
-26,-58,5,28,19,68,-165,-147,-13,29
-38,-88,-65,-54,-20,37,-93,-107,-4,39
-49,-91,-79,-72,-38,9,65,113,23,52
-37,-66,-25,-35,-16,23,132,319,71,58
-34,-49,29,-21,-4,20,83,240,109,25
5,82,56,0,16,-6,6,96,107,-10
156,484,84,28,88,-21,-24,73,156,-10
82,265,12,16,41,-16,-63,-114,86,0
-34,-30,-19,0,-11,-15,-110,-218,3,-21
-35,-46,-7,1,12,0,-79,-4,25,-16
-18,-52,-3,5,10,19,-13,21,36,6
-27,-60,-47,-12,-7,14,13,-46,43,-8
-54,-58,-31,-47,-29,-7,37,125,68,-24
15,179,71,-10,7,-2,78,474,131,-14
16,141,135,13,0,7,61,365,65,-21
-71,-72,125,-14,-60,-6,33,219,-6,-59
-84,-88,111,-7,-56,-20,-17,172,-27,-68
-67,-112,7,-18,-46,-29,-51,-23,-73,-51
-48,-140,-169,-53,-35,-20,-11,-158,-104,-26
-21,-130,-187,-67,-30,-18,8,-237,-114,-8
31,-6,-85,-38,0,-10,0,-337,-131,-18
123,220,-56,22,68,-2,-71,-462,-150,-4
-1,-7,-151,5,19,-10,-118,-495,-185,0
-75,-89,-130,-38,-20,-26,-98,-110,-113,-41
-90,-109,-52,-64,-39,-43,-60,589,92,-33
-54,-103,-21,-37,-16,-30,-9,669,191,12
-37,-101,-23,-22,-10,-15,7,360,97,20
-22,-59,-12,-23,-10,2,18,163,21,29
154,308,74,17,74,28,68,16,2,61
263,523,123,30,108,33,79,-110,-10,88
91,79,61,8,10,27,62,-228,-33,109
57,0,48,14,-24,13,27,-243,-1,132
21,7,63,16,-31,13,4,-244,-2,105
-5,-17,46,16,-20,23,19,-181,17,56
-30,-29,18,3,-16,35,31,-65,39,35
-51,-22,-14,-11,-11,32,44,45,49,1
-36,20,37,16,4,20,55,69,38,-10
-61,-70,22,24,-18,12,38,8,3,3
-59,-72,5,28,-10,12,8,-34,-1,24
-28,-29,55,42,14,-8,-18,-71,7,52
-13,-40,1,46,51,0,-56,-136,3,33
-25,-95,-121,40,87,66,-69,-260,-40,-8
-7,-92,-166,13,48,33,-97,-315,-53,-46
65,143,-45,18,60,-2,-77,-263,-49,-80
91,266,84,44,41,-23,-63,-318,-91,-113
-23,-64,-59,-41,-67,-53,-116,-494,-143,-121
-70,-171,-102,-75,-74,-77,-114,-284,-132,-102
-80,-173,-31,-52,-45,-57,-42,414,47,-61
-34,-107,11,-7,0,13,62,772,188,2
-31,-102,-27,-1,14,28,78,557,94,-31
-15,4,-80,-3,36,5,55,325,28,-82
60,189,44,15,65,0,30,143,27,-70
-45,-59,61,22,27,11,-15,-119,-101,-84
-72,-117,63,6,-12,9,-48,-153,-111,-89
-55,-113,52,0,-36,-9,-84,-127,-57,-50
-23,-90,50,43,11,14,-56,-72,-49,-3
39,-35,73,60,50,31,-6,67,4,41
60,-13,57,15,26,22,24,75,44,47
93,73,28,-12,4,24,72,47,50,39
75,8,20,-34,-40,23,108,28,36,55
42,-55,2,-50,-47,18,121,134,59,59
12,-73,-63,-92,-76,-12,131,395,155,46
11,-80,-46,-97,-89,-49,88,281,116,39
36,-63,-29,-74,-80,-85,19,-42,4,35
37,-52,-19,-63,-73,-83,-47,-220,-85,35
55,62,9,-43,-19,-46,-25,-155,-88,19
156,411,82,15,94,4,42,-17,-29,7
71,176,81,34,76,23,37,-67,-47,-14
-30,-45,103,77,57,22,0,-203,-65,-22
-71,-90,88,74,43,21,16,-158,-32,-42
-88,-121,40,34,21,26,57,-81,2,-67
-74,-113,42,19,3,-7,124,118,44,-75
-26,-41,71,19,6,-2,190,319,90,-44
131,239,101,45,64,46,146,208,93,5
46,104,43,49,75,82,-56,-18,-24,-12
-39,-77,5,34,29,1,-121,-104,-95,-29
-7,-75,-9,9,-16,-62,-42,-82,-65,-5
-6,-61,-33,-31,-57,-80,26,-73,-54,6
-30,-59,-75,-28,-45,-35,38,-38,-32,20
-67,-83,-48,-10,26,78,-42,-127,-102,-42
-17,35,-111,-15,30,27,-50,-113,-91,-74
42,157,-169,-30,0,-30,-22,-39,-57,-95
-83,-119,-128,-64,-90,-54,34,183,-7,-99
-62,-126,-35,-41,-60,-28,115,482,130,-59
-15,-78,23,-1,-22,-11,54,295,82,-41
-11,-79,16,6,-21,-13,-31,123,-15,-42
-13,-94,-11,-12,-27,-3,-26,103,-12,-24
7,-51,-9,-31,-36,2,-7,34,33,11
175,324,72,4,15,-52,29,-45,96,51
244,450,117,29,21,-120,51,-142,100,92
97,61,74,8,-50,-153,125,-165,35,107
8,-41,24,37,48,105,-62,-192,-51,39
-43,-69,22,59,97,240,-250,-221,-98,-14
-10,-47,59,47,36,111,-146,-154,-47,22
34,-38,71,1,-43,39,-130,-183,-16,82
81,46,92,9,-77,27,-135,-246,22,136
83,78,55,10,-82,11,-116,-259,65,135
0,-51,-12,-44,-126,-23,-100,-279,42,107
-55,-100,-89,-29,-45,-22,-59,-261,0,78
-57,-111,-70,-3,130,28,0,56,0,76
-57,-127,-71,-20,105,30,50,414,24,60
-68,-131,-52,4,25,13,55,355,11,13
-46,-67,-28,48,19,-2,21,145,12,-34
110,269,11,71,88,-22,12,134,39,-88
133,332,-2,105,90,-22,-10,211,58,-89
-24,-7,53,154,36,-18,4,155,17,-72
-32,-36,110,76,2,-35,97,32,-33,-23
26,14,120,-60,-55,-28,189,-134,-46,31
35,24,19,-103,-57,62,73,-320,-66,14
13,-7,-172,-74,35,176,-193,-493,-134,-40
63,151,-111,-3,81,132,-163,-396,-96,-43
35,229,0,20,74,50,-75,22,45,-90
-111,-118,-23,-19,0,18,-17,277,103,-80
-74,-160,-45,-36,-31,0,12,198,70,-39
-55,-171,-96,-38,-41,2,48,47,23,-47
-76,-159,-72,-39,-35,18,85,-1,-33,-41
-29,-98,-44,-3,-2,35,63,-4,-51,8
0,-45,11,4,-1,46,41,-122,-63,34
14,61,15,-4,-26,9,27,-186,-50,30
-8,8,20,-22,-60,-32,8,-258,-102,10
-35,-32,-48,-47,-83,-71,10,52,-22,10
-32,-44,-121,-72,-95,-73,34,453,141,51
-16,-55,-63,-57,-83,-59,-31,246,138,73
9,-48,-23,-37,-64,-44,-64,48,93,78
38,-22,36,-9,-40,-12,-62,24,108,82
81,147,71,16,2,-5,-40,80,137,57
144,386,58,35,46,-21,-2,169,157,22
26,77,6,-6,-25,-48,-14,94,100,-4
-46,-113,-58,-72,-94,-74,-15,86,81,-17
-37,-105,-100,-74,-88,-54,-5,130,78,-14
-47,-94,-17,-37,-43,-6,14,154,58,-18
-40,-55,37,15,16,44,28,152,42,-23
0,16,48,56,74,72,44,52,-8,-29
101,291,127,123,159,89,57,-31,-68,-80
5,93,133,139,153,101,45,-98,-160,-106
-53,-93,92,109,98,81,32,-106,-203,-82
-49,-129,42,55,55,47,34,-115,-179,-50
-64,-126,35,42,41,36,25,-149,-164,-47
-59,-93,56,46,37,31,-15,-185,-162,-24
-29,-49,54,35,20,15,-47,-148,-114,7
36,105,41,43,15,-8,-46,-49,-45,9
69,167,49,21,10,-14,-41,35,-23,14
-17,-111,-56,-38,-54,-10,-11,76,-15,23
-28,-143,-91,-59,-61,-6,31,135,2,24
-33,-119,-61,-68,-55,1,64,182,6,0
-41,-138,-110,-82,-68,-8,85,227,34,-21
-70,-147,-173,-39,-50,-20,56,187,56,-58
-73,-100,-58,32,12,-19,-6,36,36,-83
56,254,26,38,84,-17,-48,-79,19,-90
80,291,27,18,72,-10,-49,-238,-30,-63
-31,-43,7,-5,2,3,-29,-386,-83,-26
-56,-84,-8,-36,-22,1,-19,-396,-104,-1
-57,-93,-22,-54,-32,1,21,-297,-113,-4
-40,-88,-20,-52,-29,1,36,-122,-89,-1
-33,-72,-16,-19,0,-8,-36,-172,-108,-7
-1,7,-4,14,29,-22,-80,-176,-90,-7
7,24,-2,34,37,-16,-28,70,0,25
14,-14,32,59,53,16,6,152,63,70
72,28,61,80,70,52,13,152,163,128
53,24,18,39,47,49,13,160,190,121
32,28,46,27,18,53,0,64,104,66
2,10,40,18,2,38,27,162,54,12
14,48,0,12,21,30,56,221,69,0
167,388,-73,-6,57,-2,48,222,112,-1
124,281,-72,-73,-23,-60,46,486,165,16
-27,-86,-94,-70,-101,-64,-3,391,103,34
-34,-111,-62,-36,-83,-54,-32,150,21,27
-14,-67,44,11,-35,-23,-27,98,-12,29
-10,-33,82,47,-26,-33,-43,56,-41,16
-26,-53,22,2,-57,-47,-8,-63,-66,-16
13,104,0,-8,-16,-41,59,-53,-39,-49
22,148,-10,-21,-4,-29,73,-34,-41,-84
-80,-99,-18,-26,-49,-11,-31,-87,-75,-105
-83,-77,-6,-10,-45,4,-83,-39,-46,-84
-80,-81,-34,-8,-33,21,-49,85,22,-55
-57,-107,-36,-16,-27,15,-8,124,84,-19
-34,-84,-3,2,-9,2,-59,15,1,-5
-18,-29,28,39,18,17,-91,-26,-75,-13
18,86,50,68,45,34,-66,-26,-110,-7
-2,4,27,35,29,36,-43,-61,-122,4
-2,-15,24,36,33,64,-3,-106,-83,28
-6,1,50,63,50,63,16,-121,-54,32
-12,0,57,61,51,49,13,-111,-14,14
-16,-11,40,29,17,2,-11,-103,33,24
-12,-15,20,-10,-22,-30,0,-74,48,38
86,169,18,-22,-18,-37,43,11,102,25
223,443,54,-21,10,-72,25,64,152,21
46,83,19,-10,-2,-33,-35,-43,52,14
-38,-74,13,7,21,41,-10,-93,0,3
4,-62,6,-2,0,21,-4,-104,17,23
15,-51,-4,-9,-9,13,4,-122,-7,28
-1,-54,5,2,2,4,-6,-117,-16,28
4,5,27,26,17,-12,-44,-56,12,6
108,268,66,40,52,-22,-48,63,72,-19
0,39,-22,15,-20,-44,-57,55,40,-15
-62,-96,-91,-23,-77,-86,6,45,18,-22
-34,-67,-31,-47,-114,-96,138,-6,42,21
-3,-36,-11,-30,-122,-88,159,-40,111,74
6,-36,25,5,-61,-65,56,-149,107,99
13,-35,36,5,-28,-113,-64,-392,40,102
60,76,45,13,0,-29,-15,-479,11,76
23,66,22,0,-13,10,-47,-505,-45,-17
-103,-65,-5,-24,-25,34,-235,-402,-85,-147
-120,-46,88,-7,-48,-11,-127,171,16,-156
-99,-67,156,30,-36,0,45,561,72,-114
-76,-140,61,4,-47,14,109,567,35,-84
-80,-170,-59,-53,-80,0,75,356,0,-72
-39,-124,-192,-89,-50,8,0,217,7,-52
155,287,-111,-2,88,57,-4,386,135,49
268,482,7,74,145,76,6,539,260,119
123,99,-52,-4,38,37,-57,288,176,82
62,-60,-50,-28,-18,1,-138,10,40,53
53,-28,-33,-32,-50,-28,-141,-32,-7,47
26,-45,2,-19,-72,-26,-98,-35,-59,20
17,-69,42,15,-73,-18,-57,-62,-104,2
78,-10,54,30,-47,-5,-25,-59,-105,9
65,-42,13,61,70,26,-1,-111,-143,-15
10,-106,-38,46,157,37,5,-239,-163,-9
-8,-111,-112,-29,65,16,30,-266,-110,7
-20,-109,-76,-56,-21,-14,49,-163,-35,12
-35,-95,-46,-47,-25,-26,34,-25,-3,7
-44,-74,-13,-21,0,-1,11,43,36,20
-12,26,-50,33,45,19,13,23,80,19
145,430,-29,56,117,20,16,72,122,35
96,291,43,32,93,15,-10,-33,28,41
-27,-34,78,31,51,7,-19,-168,-73,16
-27,-71,57,44,47,22,17,-180,-112,-22
-8,-73,-35,32,29,29,11,-217,-126,-19
-5,-58,-20,24,31,14,13,-256,-95,-7
-38,-89,16,9,20,2,49,-36,-33,-12
29,86,20,8,44,1,81,285,102,3
21,111,45,11,51,8,85,169,81,-4
-76,-95,33,-7,11,13,79,61,24,-31
-84,-97,9,-16,-5,-2,72,44,-17,-56
-75,-90,-8,-1,13,10,77,13,-78,-62
-83,-95,-124,-16,-10,6,82,75,-69,-45
-86,-94,-86,-41,-30,-6,88,138,-7,-13
-82,-71,10,-23,-17,-12,86,85,16,-3
-66,-11,31,19,10,-14,59,-83,-16,-5
-64,-65,17,30,-11,-23,-22,-292,-86,-6
-30,-41,58,39,0,-2,-68,-299,-93,5
-16,-14,92,48,33,29,-55,-184,-72,19
-7,-21,45,20,0,14,-55,-166,-62,22
-15,-36,-5,-4,-34,0,-24,-146,-63,-17
-24,-22,-77,-1,-22,0,-14,-107,-76,-65
86,245,-57,12,23,1,-3,-61,-41,-77
182,443,72,34,79,8,-4,-50,-14,-93
-27,14,48,38,41,24,3,-129,-82,-115
-103,-147,29,38,41,33,37,-62,-51,-116
-111,-197,-42,-44,-23,-27,36,41,21,-106
-107,-211,-82,-96,-67,-49,54,354,124,-61
-42,-142,-30,-60,-49,-14,70,448,194,30
36,5,13,-25,-20,-13,45,344,190,75
136,255,44,13,39,-13,49,474,137,62
55,-9,0,12,5,-17,47,483,57,67
57,-78,-73,31,1,22,-9,197,-42,72
69,-46,-14,55,25,59,-67,-57,-103,68
73,-16,75,61,41,37,-90,-164,-114,66
58,-24,61,42,26,9,-91,-176,-93,68
26,-42,10,2,0,-4,-55,-124,-26,63
31,34,-7,-9,8,-9,-27,-52,30,54
2,-3,-7,-7,-4,-5,-7,-31,31,27
-40,-75,-20,-16,-20,-11,9,-10,11,-17
-48,-77,-28,-31,-45,-21,11,18,17,-26
-60,-86,-27,-36,-50,-8,15,-25,-7,-39
-70,-79,-9,-22,-39,2,23,-85,-49,-64
-58,-54,24,-8,-28,-5,22,-133,-85,-67
-15,45,56,5,-22,-3,24,-121,-64,-79
82,234,9,7,-10,-9,44,-41,15,-70
-4,11,-14,15,-31,-25,27,-110,31,-26
-23,-49,21,12,-25,-43,-11,-163,64,0
-30,-73,-14,-38,-53,-70,-64,-67,110,3
-33,-71,-36,-70,-67,-71,-121,-127,95,18
-55,-70,-31,-72,-73,-86,-143,-197,48,26
-59,-47,-13,-41,-64,-60,-65,-68,14,1
96,255,30,-25,-11,-10,67,210,62,13
208,469,55,-21,44,12,133,366,109,21
13,33,-22,-40,-15,35,137,413,112,22
-57,-110,-78,-55,-46,18,113,381,148,29
-57,-101,-98,-37,-46,12,64,159,95,13
-38,-71,-51,7,-26,33,37,54,62,19
-19,-57,17,3,-21,24,19,46,59,45
48,45,28,-9,-6,22,32,21,45,59
217,453,102,39,79,21,46,39,65,79
140,251,29,63,68,28,41,-77,-29,50
6,-49,-5,76,60,43,50,-186,-139,-2
-34,-94,71,66,46,29,34,-185,-174,-36
-38,-110,51,32,15,-2,-51,-240,-217,-42
-17,-120,5,-14,-21,-7,-87,-294,-220,-41
-10,-91,-14,-45,-70,-17,-84,-162,-152,-40
63,156,51,-22,-38,-7,-25,100,-28,-34
49,115,32,-44,-34,-8,-11,89,0,-16
-24,-94,-28,-66,-60,2,-16,12,-18,0
-32,-115,-21,-38,-47,3,-65,-12,-24,-1
-59,-123,-12,16,-23,-3,-109,-30,-38,-11
-82,-129,-9,50,2,-29,-121,-32,-42,-4
-83,-131,-12,75,11,-58,-134,-60,-34,-2
-67,-103,0,125,38,-40,-112,-69,-29,7
-43,-54,46,207,102,9,-65,-45,-22,9
10,-28,52,88,82,36,-30,-12,-12,23
46,-36,29,-91,0,65,24,-21,16,52
46,-45,14,-126,-58,88,63,-90,19,75
16,-43,2,-111,-85,57,27,-177,-6,58
-47,-43,-52,-106,-98,14,-32,-155,-12,15
-61,-27,-79,-108,-96,-33,-70,-86,38,-1
68,278,-4,-75,-8,-85,-85,23,109,-10
99,357,4,-84,35,-81,-39,336,214,-8
-55,-84,-84,-128,-61,-67,54,599,250,35
-49,-151,-104,-133,-114,-108,114,430,241,93
14,-97,-44,-101,-128,-119,114,-20,217,158
77,-9,86,-8,-43,-53,-57,-210,113,183
134,77,200,87,54,28,-228,-267,-29,162
200,226,224,117,30,-21,-110,-194,-61,151
165,348,180,114,112,76,32,131,-40,53
-42,-21,-23,5,65,136,79,232,-20,-24
-79,-129,-191,-66,-1,83,61,237,-3,-20
-56,-136,-162,-40,12,71,81,434,62,-10
-33,-112,-68,-4,13,40,61,416,144,11
-60,-136,-59,-22,-17,5,0,139,40,-16
-58,-132,-90,-38,-31,-2,-37,-43,-69,-36
-23,-19,-31,-4,0,11,-35,-98,-129,-63
-35,-38,-8,14,13,21,-33,-114,-174,-98
-50,-65,-25,40,34,27,-57,-176,-226,-122
-52,-56,-21,40,43,49,-32,-154,-188,-114
-46,-26,28,36,54,70,2,-130,-143,-91
-35,-13,54,52,56,62,-5,-201,-148,-76
-28,-10,53,47,55,38,-12,-243,-123,-57
45,128,66,56,75,33,-31,-244,-73,-14
137,283,87,70,99,28,-49,-238,-54,-8
12,13,-2,35,40,23,-42,-247,-79,-29
-35,-44,-55,2,-4,-4,-19,-149,-49,-21
-53,-62,-23,-20,-30,-33,-23,-104,-21,-18
-67,-65,-26,-31,-36,-54,-21,-105,-21,-29
-71,-56,-17,-38,-55,-70,82,-56,-8,-34
-47,-16,-2,-17,-64,-42,223,17,19,1
107,308,53,4,-14,9,259,245,126,19
222,582,98,22,66,21,97,352,161,4
82,234,24,23,68,0,-25,229,61,-18
-56,-122,-97,2,15,41,31,101,32,3
-94,-177,-79,-16,-34,-17,25,97,100,20
-82,-164,-56,-14,-55,-52,27,128,159,54
-30,-112,-26,-34,-74,-28,8,-100,86,97
38,29,-10,-38,-51,0,-24,-307,23,100
146,360,15,2,38,2,-45,-257,37,61
77,144,19,30,29,15,-60,-293,-35,27
21,-45,39,42,35,45,-16,-88,-77,24
29,-50,57,30,22,39,-11,318,-14,51
14,-60,46,14,1,1,-69,165,-39,27
-4,-54,40,20,1,-2,-63,-38,-55,5
-16,-19,74,42,31,4,-39,-83,-32,0
71,191,83,54,81,-4,-18,-57,1,-16
-31,29,-4,-4,14,-23,-9,-71,-46,-70
-151,-162,-154,-55,-43,-34,34,-75,-67,-103
-148,-159,-152,-62,-57,-31,38,-8,-41,-93
-122,-158,-119,-94,-78,-38,21,181,10,-68
-104,-182,-227,-115,-92,-52,17,267,26,-64
-64,-174,-204,-87,-82,-61,32,310,51,-36
8,-51,-16,-40,-50,-21,37,297,85,4
59,61,84,-21,-55,-3,21,31,28,27
27,-3,107,-3,-67,-1,-19,-212,-63,22
24,-16,89,21,-68,0,-45,-260,-141,-8
0,-30,65,42,-44,4,-36,-270,-167,-49
-20,-53,46,58,75,24,-39,-251,-166,-54
-33,-79,22,34,131,21,-47,-209,-145,-55
-46,-69,-10,-20,31,-19,-62,-98,-78,-62
75,261,38,-17,26,-26,-21,354,109,-14
112,356,82,14,63,26,72,487,235,31
-27,-6,22,16,20,70,106,99,88,5
-50,-65,-20,11,13,64,124,-57,54,20
-38,-61,12,-30,-4,32,131,-44,86,56
-32,-60,-11,-57,-26,15,133,22,123,81
-21,-38,-34,-18,2,36,117,34,101,72
43,110,7,42,56,45,68,64,68,86
118,242,-37,65,71,5,-1,149,92,145
53,-15,-13,38,16,-22,-15,65,85,185
49,-76,39,0,-50,-136,19,13,68,161
54,-91,1,-45,-102,-226,100,38,54,127
23,-115,-57,-59,-82,-148,128,28,8,82
-40,-154,-129,-36,30,114,-138,-103,-101,-36
2,-73,-61,-40,-5,47,-183,-153,-113,-35
54,67,-29,-29,-2,-4,-94,-133,-78,-42
3,-29,-65,-18,-4,4,-53,-132,-60,-79
-14,-53,38,7,4,19,-47,-177,-63,-97
-36,-32,91,10,-11,12,-43,-142,-70,-107
-69,-67,56,-3,-18,8,-35,-75,-65,-127
-70,-88,-20,-6,-1,23,6,-30,-60,-113
-55,-90,-20,0,20,16,15,14,-59,-87
34,97,38,36,67,24,27,61,-29,-58
242,564,116,82,178,25,36,70,34,-28
204,467,56,74,150,7,-16,3,20,-18
-7,-24,-2,34,33,-6,-77,-58,-35,-28
-27,-76,33,38,6,4,-52,-61,-30,-4
-6,-30,53,55,8,19,-10,-18,1,34
-19,-66,-41,28,-10,-2,-5,27,56,48
-42,-99,-67,-36,-69,-52,-27,136,141,37
-40,-42,-36,-60,-81,-102,-59,249,196,34
-79,-156,-47,-60,-60,-70,-27,168,156,25
-127,-250,-98,-101,-104,-25,70,215,178,-4
-145,-260,-150,-144,-155,-49,111,319,162,-40
-70,-169,-92,-93,-89,-20,94,320,79,-10
35,-60,21,-16,-14,37,34,214,38,77
103,18,81,34,13,44,-55,-145,-76,106
185,215,141,93,58,25,-105,-309,-183,69
241,468,138,90,79,2,-50,-131,-149,37
100,152,18,13,8,1,-6,1,-103,13
41,-8,-57,14,-7,-27,54,-31,-101,22
55,15,29,34,-6,-37,150,-101,-42,46
62,9,48,35,-8,-29,174,-127,12,88
2,-42,48,68,70,98,-17,-205,-54,47
-30,-35,53,78,121,164,-84,-187,-65,2
82,217,93,71,133,100,27,-108,13,13
-9,44,72,61,67,43,19,-188,-15,2
-104,-89,44,34,-8,10,-13,-256,-38,-19
-114,-126,-4,-7,-59,-24,-35,4,35,-23
-92,-132,-49,-26,-52,-40,-60,277,89,-8
-63,-108,-38,-4,-1,-27,-76,135,26,-17
-64,-107,-81,-3,36,3,-53,22,-10,-36
-45,-17,-108,-15,35,3,3,67,1,-57
-57,-15,-81,-40,10,4,84,122,12,-96
-129,-146,-82,-99,-57,-6,89,200,44,-124
-123,-156,-95,-114,-76,-5,71,217,55,-118
-89,-142,-28,-102,-76,-8,51,77,20,-103
-81,-120,36,-58,-74,-30,-1,-88,-25,-97
-77,-84,105,-11,-51,-51,-95,-217,-56,-95
-53,-10,135,26,-4,-44,-170,-223,-67,-80
38,318,118,26,49,-52,-140,-84,-46,-84
10,254,-87,-36,22,-51,-63,226,23,-61
-56,-77,-244,-76,3,10,25,451,123,-1
-24,-82,-121,-54,23,35,44,345,135,44
27,-9,16,17,79,63,34,87,124,90
19,0,56,35,87,59,2,-145,62,87
-2,-22,15,18,53,20,-19,-276,12,58
106,141,-57,23,83,15,-31,-388,-35,50
144,201,-59,17,73,4,-41,-379,-104,31
23,-20,64,47,15,8,-17,-175,-191,34
12,-29,121,63,-9,5,36,160,-139,48
-2,-58,55,-5,-49,-46,43,219,-91,42
-14,-74,7,-35,-73,-110,13,43,-101,36
-19,-74,-5,-39,-94,-151,7,10,-52,38
-6,-38,30,-2,-31,-88,-46,-51,-46,29
21,58,59,36,93,47,-130,-173,-75,-10
-19,-28,26,5,42,3,-139,-178,-40,-3
-34,-52,17,2,27,-1,-100,-139,-21,-26
-52,-21,50,45,47,16,-77,-101,-64,-86
-49,5,75,50,45,20,-19,-55,-56,-105
-51,-3,96,38,31,20,45,-39,-12,-73
-33,-33,56,14,6,17,85,16,20,-52
52,144,9,-26,17,20,101,96,56,-43
188,511,11,-18,89,17,118,204,119,-40
120,334,-20,7,71,14,87,159,98,-38
-52,-70,-47,6,-11,15,58,73,40,-14
-77,-116,-28,3,-34,13,43,107,79,8
-103,-125,-22,-9,-46,11,35,159,146,16
-84,-136,-30,-21,-50,7,37,110,170,31
-37,-108,-53,-16,-39,3,-7,-52,128,32
10,15,-42,-16,-17,-2,-3,-81,64,7
8,-12,-63,-16,-14,5,13,-11,35,0
31,-44,-122,-8,-8,13,-7,-117,-3,13
83,-30,-138,9,15,11,-49,-297,-84,43
124,12,-88,33,20,10,-90,-368,-139,69
106,12,14,42,15,5,-79,-144,-85,62
93,-16,70,37,-2,-10,-59,205,26,48
177,175,101,55,38,-16,-73,255,35,10
259,402,109,51,87,-15,-43,201,11,-20
30,11,42,27,16,-4,-23,140,-29,-33
-72,-115,51,31,9,18,3,82,-36,-23
-58,-121,58,42,43,32,16,-43,-56,-28
-58,-141,49,42,35,26,37,-79,-64,-48
-73,-140,39,38,22,12,56,-38,-61,-64
-50,-73,21,-10,-6,-17,50,9,-34,-53
66,196,28,-15,-2,-28,35,56,-4,-41
-20,-24,8,-3,-48,-13,33,0,-54,-30
-48,-129,-1,-9,-75,-54,-5,-44,-38,4
-36,-122,-12,-15,-65,-85,-26,-60,-15,14
-30,-97,23,29,15,5,43,-59,-13,19
-1,-51,76,39,28,66,127,-33,10,41
21,-38,55,22,3,60,78,3,22,74
23,7,18,9,25,53,-100,-25,-5,57
21,-3,-15,-3,8,-24,-140,-67,-23,49
15,-56,-7,-4,-16,-37,-60,-94,-52,63
9,-43,7,8,-7,-20,-7,-100,-56,51
-4,-39,12,14,0,-14,-18,-102,-43,22
-11,-47,2,13,-8,-4,-37,-80,-44,8
-34,-62,-15,-4,-22,17,9,-29,-30,-15
-31,14,-7,-9,-22,28,50,-11,-13,-40
81,367,41,22,33,28,86,62,25,-22
48,266,42,14,7,22,69,27,30,-29
-34,-14,-2,-3,-37,15,27,-48,9,-40
-58,-71,-18,-16,-43,1,9,-84,-4,-45
-93,-129,-48,-54,-57,-25,-7,-13,37,-48
-132,-170,-101,-90,-97,-76,-10,268,141,-56
-121,-123,-102,-64,-75,-55,-1,384,132,-46
14,141,-28,-21,12,-14,8,198,92,-13
70,176,-6,10,42,-10,-49,-117,36,12
-24,-78,-78,2,-4,-20,-74,-266,-7,28
-25,-85,-114,-13,-5,-20,-31,-149,32,40
25,-40,-7,7,6,12,16,-44,23,68
62,-3,58,40,40,76,67,75,29,87
50,-10,71,55,48,88,42,126,1,65
26,8,44,39,24,59,14,100,-8,27
22,77,43,25,9,38,18,41,4,3
-38,-42,27,3,-37,-4,41,25,-4,-12
-44,-65,19,-16,-72,-61,126,61,-4,3
-22,-39,17,-20,-101,-92,208,108,22,45
-27,-42,-2,-23,-100,-67,105,75,27,67
-71,-82,-26,-37,-40,27,-201,-63,-35,14
-65,-58,-36,-30,-19,29,-186,-60,-33,-15
54,203,3,24,50,10,-121,-9,20,-13
195,581,71,84,126,15,-92,71,90,-22
109,368,36,15,34,10,-46,122,87,-53
-48,-34,-59,-64,-73,-15,-13,80,24,-72
-53,-69,-98,-48,-56,14,42,107,13,-35
-25,-61,-52,6,-15,50,41,-9,37,-5
-43,-86,-8,38,-12,47,-13,-86,32,-18
-47,-101,1,54,-17,13,-31,0,17,-34
8,-12,40,88,-6,-3,-72,-228,-73,-28
-5,-47,77,140,14,7,-117,-446,-180,-51
-15,-90,55,183,61,15,-115,-396,-179,-45
0,-87,23,121,87,23,-52,-248,-122,-18
50,-51,7,-45,9,71,57,-54,-25,62
82,-15,59,-99,-56,110,114,193,124,141
53,-15,43,-116,-115,36,76,445,193,159
150,218,27,-79,-71,-24,51,518,205,129
215,388,14,-23,57,-19,29,309,100,95
15,-39,-70,-22,113,0,-43,7,-69,71
-47,-144,-113,-56,61,-4,-98,-102,-115,50
-46,-117,-65,-61,7,-1,-76,-91,-126,18
-48,-99,-32,-46,-9,3,-16,-67,-140,-21
-74,-105,-35,-49,-25,3,53,36,-103,-69
-72,-22,-30,-46,-18,-5,106,170,-60,-99
19,207,6,-12,28,-6,147,168,-33,-73
-74,-55,-1,-30,-24,-14,105,-19,-66,-56
-105,-116,42,-8,-46,-39,33,-65,-46,-73
-117,-109,86,-2,-41,-48,34,40,0,-108
-106,-95,95,-11,-47,-40,56,153,29,-126
-87,-79,71,-21,-53,-23,61,214,58,-111
-67,-70,-10,-50,-57,-15,60,170,86,-75
-14,-19,-155,-67,-50,-23,38,0,64,-35
-21,-90,-227,-96,-82,-57,-39,-235,0,-18
-60,-111,-158,-85,-92,-81,-59,-252,-12,-16
-45,-19,-3,-17,-18,-32,-16,-218,-50,-25
-15,17,27,20,14,5,-21,-133,-90,-12
24,19,16,37,21,21,0,5,-68,44
68,62,101,125,88,74,29,-149,-82,59
142,196,147,165,133,116,5,-420,-80,81
302,530,79,154,193,73,-46,-475,-40,91
167,274,-69,110,146,15,-119,-409,-55,84
-27,-38,-44,40,43,-14,-141,-177,-36,55
-73,-68,-3,11,3,-24,-128,6,2,34
-85,-92,-50,-37,-47,-25,-97,50,22,39
-56,-95,-121,-83,-82,-6,-18,33,24,57
-27,-45,-122,-67,-68,-3,27,-21,21,50
65,197,-11,-51,-18,-34,41,49,66,-3
17,125,6,-36,-5,-38,46,81,34,-47
-59,-85,6,-30,-30,-23,25,107,-50,-63
-26,-90,9,-30,-37,-7,11,204,-41,-23
0,-77,21,18,-4,0,22,203,18,28
-25,-85,3,54,22,6,42,109,22,27
-43,-100,-43,42,15,5,27,72,5,13
-10,0,-65,64,36,18,16,44,-15,17
23,75,34,93,63,22,12,16,-30,19
-7,-50,36,69,17,-5,8,-20,-26,44
-1,-81,-11,17,-27,-51,19,-46,-9,77
14,-91,-3,-12,-61,-101,21,-62,3,98
-7,-96,1,1,-20,-33,-7,-69,-1,75
-58,-107,-4,20,55,86,-33,-108,-11,6
-75,-95,-49,3,42,73,26,-53,33,-47
4,177,-50,-4,57,45,74,187,105,-50
103,448,37,23,87,20,88,416,145,-26
26,204,20,10,38,8,50,249,106,-19
-66,-100,-30,-18,-32,-2,-10,58,66,-16
-70,-142,-70,-29,-60,-36,-19,78,72,-16
-80,-144,-50,-44,-78,-63,6,215,110,-20
-88,-141,-46,-48,-79,-66,-7,267,109,-23
-17,-51,7,-9,-34,-40,-44,153,100,-14
42,30,43,10,18,-37,-57,84,97,-2
14,-26,37,15,7,-56,-89,-117,41,31
22,-18,20,41,8,-45,-141,-479,-71,31
31,-9,71,72,43,-15,-154,-863,-164,30
4,-28,53,43,33,-29,-131,-757,-151,25
-37,-73,-49,-29,-12,-38,-55,-110,-40,12
-23,-52,-146,-58,-51,-14,29,507,134,45
146,298,8,-36,5,17,112,705,309,110
181,401,61,-45,20,13,153,449,248,69
-28,-36,-13,-60,-50,36,161,140,60,-1
-63,-116,-11,-52,-66,32,115,-42,-54,-28
-63,-101,-27,-44,-74,-5,34,-54,-120,-22
-55,-107,-41,-57,-73,-44,9,66,-115,-14
-47,-100,-11,-42,-40,-41,19,-59,-129,-33
7,68,55,34,31,-4,-21,-282,-148,-24
81,269,109,82,93,23,-68,-277,-132,-10
-5,3,73,75,74,43,-77,-128,-145,4
-14,-68,43,61,69,47,-89,-97,-150,22
-30,-89,15,33,41,28,-86,-109,-130,-10
-41,-94,-44,4,14,7,-54,-66,-80,-48
-22,-60,-120,12,10,11,-24,-56,-28,-43
16,-21,-65,36,49,25,3,-228,-47,-12
32,45,25,30,52,25,34,-319,-68,-19
-38,-39,-1,-15,-18,-17,25,-255,-36,-66
-90,-90,-2,-43,-63,-62,0,-80,9,-109
-77,-59,56,-6,-30,-48,-16,21,-20,-110
-58,-71,24,-19,-31,-24,20,209,26,-96
-44,-126,-135,-79,-59,-40,62,451,137,-53
-13,-122,-100,-92,-61,-51,69,458,146,-11
66,44,42,-52,-12,-40,37,356,107,20
162,255,113,1,65,-5,2,204,36,47
54,39,92,14,45,28,-7,0,-56,54
55,-3,70,2,25,33,8,-110,-68,54
77,7,62,3,20,35,1,-264,-79,53
72,8,39,11,22,26,-35,-439,-113,59
41,10,-28,-1,5,-4,-45,-500,-113,52
21,10,-91,-8,-13,-36,-51,-413,-68,17
111,290,23,6,45,-36,-26,-169,44,-2
130,352,89,43,94,4,11,135,147,7
-3,-38,74,43,40,45,49,243,179,42
-29,-103,59,27,5,41,66,90,115,28
-25,-82,6,38,0,33,108,-6,34,12
-16,-67,1,57,3,38,125,93,23,24
-5,-60,64,52,10,53,99,46,4,48
16,2,92,46,18,50,51,-64,15,35
7,28,65,21,-13,0,9,-15,77,12
-33,-76,16,-28,-69,-45,-14,75,141,11
-56,-91,4,-34,-62,-31,-32,109,163,11
-75,-84,6,-26,-47,-6,-19,59,123,-26
-79,-67,-32,-33,-43,-14,-5,19,69,-49
-75,-57,-65,-34,-47,-33,3,76,71,-50
-67,-53,8,-18,-28,-15,41,66,38,-41
-31,-3,59,18,-9,23,65,-35,-66,-25
27,72,100,52,16,50,44,-105,-129,8
72,100,127,64,46,70,30,-221,-143,32
65,79,128,60,49,66,48,-306,-155,21
19,16,87,47,54,49,79,-196,-109,-7
-7,-57,23,0,43,21,93,29,-21,6
6,-88,-26,-22,26,11,73,-26,-25,23
66,77,0,-2,58,25,55,-125,-49,10
229,514,62,19,127,15,48,153,50,1
187,430,84,5,86,0,38,381,90,10
-13,-26,73,-12,-22,-21,-9,182,-24,-5
-66,-106,71,-20,-65,-69,-70,64,-65,-13
-48,-97,62,-24,-79,-84,-128,12,-58,0
-37,-96,56,1,-44,-36,-131,-66,-85,-12
-14,-71,-44,-19,-24,-56,-136,-78,-74,-21
118,249,-146,-27,51,-44,-81,52,-17,-2
107,259,-175,-13,74,3,-3,113,-4,-15
-63,-132,-129,-32,-8,0,0,26,-38,-24
-95,-169,-88,-31,-38,4,28,20,-48,-22
-78,-130,-91,-7,-14,27,67,-7,-22,-32
-79,-115,-20,7,-2,28,77,-42,25,-36
-93,-127,-14,0,-25,15,65,-113,-7,-42
-73,1,-18,13,-8,-13,79,-158,-77,-45
-42,103,-10,4,-29,-84,113,-79,-51,-31
-93,-113,-34,-21,-96,-85,156,89,10,-16
-95,-122,-86,8,-8,42,-10,217,0,-32
-55,-79,-2,52,84,126,-169,120,-14,-21
-2,-27,82,67,77,108,-130,7,26,18
5,-35,51,29,39,67,-125,-57,13,13
-34,-70,-12,-17,-4,3,-85,98,29,-33
-30,-21,-65,-68,-36,-52,-55,320,67,-62
-66,-99,-113,-88,-76,-70,-48,297,42,-42
-53,-96,-73,-64,-87,-88,-80,234,52,3
-30,-27,15,-2,-23,-15,-63,140,52,36
-12,-5,73,24,10,65,34,-3,56,47
6,-27,61,31,14,48,75,-93,66,54
17,-12,50,32,6,66,52,-64,100,77
51,152,34,-3,43,74,-58,9,109,37
143,418,-15,-56,68,-23,-113,32,91,-13
13,60,-66,-88,-40,-47,-55,-211,-6,-7
-59,-120,-80,-81,-84,-38,-24,-387,-75,-15
-68,-117,-129,-65,-84,-59,17,-344,-98,-35
-50,-96,-55,-41,-63,-45,78,24,-73,-36
40,-16,40,31,2,35,128,451,73,59
136,95,72,90,64,74,59,337,183,141
206,346,81,88,98,43,-33,145,143,137
133,172,95,78,72,46,-58,98,123,163
72,12,72,53,35,61,-35,40,114,179
61,-44,29,10,-9,11,-34,63,106,179
82,-51,17,-40,-57,-35,-50,53,126,188
67,-34,38,-54,-122,-70,-80,-20,141,159
26,-31,45,-55,-143,-69,-77,-32,127,125
43,45,58,-21,-102,-23,-33,-42,58,102
36,46,55,-5,-66,5,8,-124,-77,48
-56,-98,-45,0,-9,-2,-19,-221,-213,-26
-94,-147,-60,0,98,35,12,-185,-271,-109
-68,-114,-35,-28,58,48,66,-166,-284,-159
-26,-78,-6,-23,21,45,79,-236,-272,-183
-37,-108,-39,-44,2,26,58,-324,-246,-185
-58,-83,-77,-64,-7,-22,-1,-300,-191,-177
91,294,-44,-28,62,-44,-72,-111,-70,-148
174,498,8,16,109,-42,-97,81,44,-114
1,124,10,10,33,-58,-86,247,29,-96
-97,-88,3,4,-12,-62,-26,214,-48,-95
-65,-54,38,-5,-43,-33,55,218,-42,-71
-24,-8,89,31,-21,29,76,155,32,-13
-37,-9,97,70,80,173,34,-41,31,-4
-19,36,77,56,81,127,36,-54,26,18
6,-1,35,26,48,54,56,24,23,58
2,-85,-37,6,11,16,39,31,-5,72
-16,-94,-128,-21,-20,-2,20,22,-3,73
-29,-110,-46,-21,-42,-15,24,22,14,67
-22,-99,14,3,-46,-43,17,3,-3,52
-29,-98,1,-13,-47,-52,-1,-14,-16,23
-14,-48,-38,-25,-23,-41,8,12,1,-15
125,296,-45,11,42,-43,26,103,49,-27
98,240,-9,16,29,-30,6,17,47,-22
-17,-82,-39,5,-21,-13,-17,-133,2,-17
-34,-100,12,18,-14,3,-10,-130,7,-25
-37,-60,32,32,-5,22,10,-90,-2,-60
-45,-45,25,55,13,34,57,-46,5,-77
-66,-74,6,46,19,19,50,18,31,-70
18,72,24,14,18,-7,28,118,94,-44
61,127,26,-1,16,-7,6,66,88,-19
-52,-101,-5,-18,-32,-2,2,-3,48,-11
-65,-110,-32,-15,-37,5,22,0,37,0
-52,-87,-28,-14,-49,-8,20,32,32,7
-45,-80,22,-7,-46,-14,48,75,33,6
-56,-118,11,10,-33,0,64,93,31,8
-61,-125,-22,39,-19,-28,21,49,0,-3
-58,-70,-87,38,-24,-70,-28,-61,-33,-37
-133,-178,-106,20,-73,-99,-65,-237,-90,-82
-144,-191,-57,34,-82,-138,-99,-322,-92,-116
-128,-160,-102,-2,-51,-131,-130,-299,-47,-104
-71,-88,-101,-122,-85,-102,-131,-29,6,-47
80,38,65,-94,-51,0,-67,423,152,82
127,103,52,-67,-29,16,-71,257,184,117
168,296,113,-19,41,8,-111,-104,67,72
263,524,138,43,118,32,-68,-105,-24,37
45,51,26,31,39,58,82,256,-14,10
-75,-135,-20,18,27,57,145,376,-17,-36
-84,-135,-13,4,60,66,163,261,-63,-59
-60,-83,31,6,59,77,168,133,-67,-5
-16,-23,134,43,53,56,71,-86,-108,31
14,37,161,59,50,18,-5,-129,-84,14
79,249,153,85,72,9,-10,-119,-49,0
3,66,122,71,52,21,2,-285,-98,0
-24,-25,-10,22,45,35,49,-299,-90,15
-35,-88,-148,-52,11,32,72,84,57,35
-67,-126,-135,-91,-27,4,54,445,181,30
-77,-117,-131,-90,-44,-29,55,425,192,26
-73,-92,-178,-84,-45,-32,64,345,172,39
-27,6,-79,-68,-36,-31,11,226,135,32
-12,15,-25,-47,-36,-10,-19,25,57,16
-26,-49,-47,-19,-26,2,-29,-147,5,-1
-3,-33,-23,10,-14,-2,-13,-199,-5,5
31,-22,-44,30,-1,10,3,-205,-3,19
59,-12,-15,27,-1,18,8,-208,17,27
43,-15,-29,-5,-27,-10,-27,-206,-7,6
46,41,-27,-30,-34,-46,-70,-148,-33,-30
208,461,52,3,39,-36,-64,22,36,-32
238,594,60,24,59,-14,-10,146,77,-15
33,93,-82,-17,-31,-21,8,128,9,-16
-45,-141,-84,-50,-65,-39,12,110,-18,-7
-28,-128,-96,-27,-37,-4,27,94,-9,-8
10,-82,16,51,36,59,41,-97,-8,-3
27,-50,10,78,74,76,14,-320,-20,24
65,31,-42,48,67,40,-49,-265,-31,35
64,1,5,0,12,-22,-98,-66,-39,54
29,-91,17,-28,-31,-31,-96,-20,-65,38
33,-104,10,-52,-67,-86,-51,-99,-94,18
38,-114,-19,-84,-109,-130,17,-158,-110,19
53,-105,-25,-94,-118,-111,93,-69,-59,43
-4,-107,-67,-66,-39,0,-116,-116,-76,-8
-16,-15,-31,-10,28,52,-294,-245,-123,-55
91,260,109,63,82,28,-193,-143,-25,-12
0,67,92,24,24,7,-105,203,94,-15
-72,-42,59,-11,-12,29,-11,518,127,-26
-82,-80,24,-14,-6,36,7,434,71,-30
-94,-114,0,-24,-14,33,0,214,-26,-44
-97,-112,-27,-28,-38,24,2,126,-66,-69
-75,-82,-35,-22,-30,33,26,269,0,-54
99,217,77,52,85,70,45,285,97,-5
244,496,149,94,149,87,10,35,35,19
56,109,35,56,45,73,23,-92,-65,15
-20,-40,-61,52,19,69,3,-119,-63,15
-13,-38,-69,44,4,64,-9,-123,-20,23
-11,-36,-12,15,-16,33,0,-91,4,16
-38,-69,0,-13,-46,14,-18,-19,26,0
-41,-44,-27,-30,-50,0,-11,46,47,-17
4,41,-12,-27,-19,-4,14,94,71,-2
-22,-47,-20,-14,-25,11,20,86,61,6
-41,-46,-100,-10,-25,10,65,59,56,8
-25,-26,-58,-13,-23,18,102,11,61,38
0,-11,61,5,-20,31,94,-85,42,81
23,-6,76,-4,-19,18,61,-185,26,91
36,-3,35,-26,-32,-1,38,-178,11,66
126,226,54,28,32,-4,0,-121,11,62
184,388,97,47,68,-25,-62,-116,-7,71
44,-9,17,0,-27,-50,-114,-195,-73,57
7,-105,6,-15,-64,-70,-132,-168,-29,68
18,-122,6,-42,-69,-89,-132,-108,22,78
-18,-184,-58,-103,-106,-108,-100,132,116,56
-56,-218,-100,-124,-119,-114,-73,216,123,-15
-73,-162,-113,-102,-93,-68,-15,215,65,-103
-23,46,-67,-58,-22,-44,7,274,61,-122
-77,-126,-43,-56,-59,-37,13,312,65,-119
-57,-120,18,1,-13,20,86,358,31,-91
6,-33,110,91,73,87,91,-109,-128,-51
44,23,156,130,86,76,49,-452,-247,-51
22,49,149,120,70,51,97,-478,-284,-68
-24,30,97,69,53,90,193,-259,-204,-79
-30,70,45,27,44,77,123,109,-65,-80
-90,-10,17,26,72,68,-54,172,-55,-109
-101,-76,15,31,79,95,-2,97,-50,-98
-75,-68,13,24,53,60,40,59,-32,-66
-63,-56,-2,13,14,9,37,27,-29,-47
-23,-38,-65,-2,3,-3,1,0,-18,-19
10,-34,-56,-5,1,-6,-27,-15,2,13
59,62,-6,11,29,12,-13,0,38,43
212,483,55,46,113,16,0,89,113,61
220,532,72,47,125,-1,-18,86,114,58
44,62,-5,8,25,-14,-30,-14,40,64
-9,-100,-121,-17,-16,-21,-8,-20,17,55
-6,-83,-146,-12,-25,-18,24,-21,26,54
13,-59,-82,-25,-59,-69,14,-29,39,75
30,-52,-5,-53,-88,-120,19,-1,71,79
26,7,12,-46,-67,-120,80,80,117,65
-28,-68,-80,-38,-48,-62,39,110,131,25
-81,-164,-126,-40,-18,16,-51,0,69,-40
-98,-199,-68,-71,-58,-47,-78,-121,47,-61
-123,-173,-48,-77,-68,-86,-56,-226,-4,-96
-138,-144,-46,-66,-61,-101,-48,-361,-78,-127
-144,-174,-65,-45,-38,-86,-49,-431,-149,-169
-67,-42,4,36,64,-18,-16,-325,-179,-169
83,208,114,117,153,38,34,267,-20,-82
55,27,120,138,145,100,124,800,180,45
36,-40,85,100,122,113,58,545,100,74
-25,-65,51,60,76,83,4,247,-59,0
-42,-52,-35,58,61,77,36,250,-92,-52
-10,-35,-136,50,65,75,57,146,-109,-44
42,39,-58,56,77,58,24,-30,-155,-8
197,375,110,88,137,42,-24,-142,-141,16
268,496,122,68,131,17,-109,-150,-56,41
92,28,63,18,28,-14,-157,-193,-44,30
32,-54,54,15,4,-17,-78,-180,-35,37
-13,-70,31,10,-8,-5,-2,-137,-3,47
-29,-85,34,9,-38,-8,22,-159,-13,74
-59,-88,28,-22,-82,10,64,-143,-37,92
-57,-16,27,-50,-113,-14,64,-128,-54,85
-22,47,34,-33,-115,-50,-12,-209,-97,70
-73,-36,3,-4,-89,-54,-62,-197,-125,53
-109,-84,-44,17,45,-52,-22,142,-45,41
-117,-110,-130,-23,108,-46,-1,250,-7,28
-116,-117,-213,-70,27,-72,-65,90,-28,6
-90,-102,-160,-46,4,-72,-85,-9,-31,12
-36,-60,-150,-30,1,-41,-18,-70,5,46
105,240,-134,9,57,-3,42,-77,63,75
160,371,-34,33,92,31,77,-100,85,40
28,32,81,7,14,44,92,-103,86,-4
-36,-65,102,-33,-28,16,80,-13,84,-37
-73,-89,74,-50,-35,7,88,170,109,-55
-75,-63,78,-5,-8,25,110,198,107,-64
-58,-21,53,25,11,33,79,103,75,-52
36,88,-104,-3,31,15,9,46,71,-19
137,248,-94,-40,57,11,-31,-12,82,26
5,-8,-68,-44,6,20,-72,-145,43,30
-19,-65,-42,2,15,30,-61,-65,43,17
-29,-70,39,23,33,37,-34,103,46,20
-33,-70,18,12,12,15,-53,93,46,3
-13,-77,0,21,9,4,-72,36,32,-9
-11,-63,15,0,0,9,-70,56,26,-16
3,56,35,-28,-13,1,-65,88,41,-31
-21,21,41,-31,-29,1,-64,-3,12,-32
-38,-35,35,-10,-36,12,-37,-110,-16,-17
-33,-56,50,18,9,40,-5,-132,-47,-3
-9,-60,79,37,34,35,-10,-140,-63,19
3,-69,56,5,9,14,-38,-154,-70,35
2,-83,17,-33,-34,-16,-39,-91,-70,41
57,55,-26,-64,-55,-49,2,219,17,49
192,421,68,-42,-1,-78,46,390,84,70
98,164,60,-35,-25,-50,67,160,-20,56
-7,-55,60,-1,-27,-28,127,7,-82,21
-27,-61,77,4,-30,-42,195,8,-63,10
-33,-75,16,-31,-64,-77,183,90,9,21
-96,-149,-53,-34,-23,2,-95,35,-13,-50
-115,-156,-63,-46,-18,17,-210,18,-17,-89
-16,87,-92,-42,-26,-25,-131,124,44,-57
-16,21,-164,-57,-48,-40,-132,37,21,-53
-31,-60,-114,-38,-55,-49,-124,-122,-22,-69
2,-8,-44,16,-28,-8,-92,-198,-13,-55
35,21,60,71,20,41,-55,-85,11,-14
65,25,129,109,53,63,-43,-117,0,23
53,-16,111,98,56,49,-40,-176,17,27
85,98,93,90,86,69,1,-62,56,25
126,213,78,66,79,55,32,51,63,-4
-63,-85,8,-7,-19,47,101,204,41,-47
-87,-135,2,-27,-51,43,121,206,2,-80
-51,-79,29,4,-32,48,93,54,-75,-94
-36,-54,24,9,-26,36,64,-4,-83,-66
-29,-64,11,-11,-33,13,70,50,-29,-56
-1,-29,14,-6,-31,3,78,72,14,-36
126,310,29,9,28,-17,64,123,100,-26
109,353,-11,-23,28,-34,33,144,106,-46
-65,-85,-91,-62,-47,-37,-13,77,28,-53
-73,-136,-103,-66,-60,-29,-22,49,-11,-44
-71,-114,-48,-38,-46,-30,-9,-19,-27,-23
-53,-65,-20,-15,-30,-15,-26,-185,-40,8
-15,-54,-43,-13,-40,-4,-43,-389,-73,36
3,-22,-137,-53,-46,-11,-34,-443,-90,48
-15,-7,-63,-61,-47,-5,-18,-358,-90,34
-9,-46,42,9,-2,8,-39,29,16,61
52,23,110,102,79,45,17,362,177,115
34,17,98,63,59,26,33,86,34,81
-28,-57,43,-12,-19,-22,39,19,-34,19
-93,-129,-29,-74,-86,-62,77,379,84,-18
-62,-88,-33,-74,-75,-63,62,543,160,-1
97,166,25,-16,5,-13,38,296,95,18
49,47,31,15,5,31,63,206,50,41
24,-56,46,47,4,46,44,165,31,70
33,-69,43,53,9,13,7,2,-22,85
7,-54,30,87,16,-12,-67,-167,-132,64
1,8,87,128,34,-11,-92,-238,-184,55
24,29,100,149,31,-7,-76,-244,-141,65
69,166,76,207,85,13,-45,-177,-53,53
214,505,102,147,178,26,-5,-47,25,39
67,160,41,-72,27,21,-22,-81,0,50
-24,-83,-26,-158,-80,15,-46,-113,-5,35
-24,-93,-33,-131,-80,0,-55,-109,-10,-5
-38,-102,-19,-60,-41,8,-31,-114,-26,-65
-46,-101,-30,-38,-29,23,32,-91,-21,-94
-58,-79,-22,-39,-25,21,61,-70,1,-82
-39,22,2,-13,-12,16,38,-45,30,-57
-95,-57,-6,-22,-30,14,25,-40,53,-73
-111,-106,-31,-54,-43,-6,-3,-35,53,-76
-69,-91,-39,-71,-46,-27,-10,-10,78,-37
-30,-49,-22,-57,-39,-32,0,12,87,-6
-15,-18,5,-20,-20,-22,0,-30,72,3
-13,-25,25,20,-9,-23,-6,-103,28,0
47,123,10,-10,0,-37,-30,-70,42,27
162,406,13,-11,38,-69,-36,19,58,46
93,119,4,-19,-5,-70,0,-55,10,30
