-18,83,-12,-61,-56,-55,-50,-17,-43,-75
-9,192,21,-61,-31,-59,-70,-39,-43,-97
-17,178,70,-36,-32,-39,-45,-43,-48,-88
-24,22,87,-19,-35,-28,11,-21,-31,-40
-7,-171,15,-20,-14,-9,45,-5,13,24
0,-307,-70,-17,-1,-8,37,-4,51,59
-5,-336,-162,-13,-9,-15,-1,16,73,57
-29,-302,-215,2,4,6,4,21,49,34
-27,-196,-111,17,32,22,18,15,20,-23
111,157,-10,55,85,4,-1,78,63,-28
84,102,-12,25,63,-3,-31,145,38,-10
-27,-113,-65,-23,7,10,-21,207,-15,14
-8,-46,-45,-50,-26,0,-31,61,-59,38
21,48,12,-52,-68,-60,-134,-113,-107,32
-10,146,85,-29,-77,-95,-159,-121,-97,4
-7,209,86,-8,-69,-83,-93,-123,-106,7
99,307,58,-1,-33,-51,-65,-138,-62,64
122,217,47,25,7,2,-15,-177,-35,91
31,-81,21,32,7,33,11,-230,-72,73
0,-207,-22,21,2,26,38,-194,-90,56
-5,-275,-48,25,4,18,49,-111,-32,64
-22,-286,-87,-1,-33,-40,38,129,79,66
-46,-211,-162,-17,-58,-45,36,308,216,74
10,-16,-92,26,-8,19,18,162,170,92
161,241,63,62,69,43,-26,43,103,108
88,10,41,20,22,25,-40,22,76,112
54,-163,12,9,8,38,-7,-70,41,73
12,-186,0,13,26,45,8,-143,-18,24
-32,-105,-21,2,6,16,-29,-180,-81,-26
-37,-56,-10,2,-13,-14,-101,-205,-100,-60
-57,-102,19,34,24,-11,-65,-56,-74,-94
28,37,73,85,107,51,54,207,0,-78
142,236,145,117,171,90,116,292,55,-39
25,-50,81,79,98,93,78,95,-6,-23
-2,-140,18,23,32,61,67,42,-20,-46
-20,-126,-17,-7,-2,35,74,43,-23,-72
-39,-104,-13,-9,-18,25,73,46,-30,-82
-48,-77,5,-14,-26,-16,56,43,-30,-78
-51,-35,18,-10,-26,-26,64,40,4,-82
-63,-6,-3,-24,-23,3,109,101,102,-85
-79,-82,-47,-51,-41,18,106,48,108,-47
-28,-58,-89,-34,-38,19,68,27,73,0
20,-21,-55,-19,-26,21,76,172,95,41
34,47,-7,-31,-43,-9,41,95,81,52
25,152,12,-33,-66,-71,-56,-91,0,34
11,202,20,-43,-75,-102,-90,-129,-90,-1
117,392,52,-37,-20,-51,-24,-77,-141,-22
214,514,130,-15,41,25,27,-53,-137,-25
70,100,94,14,13,53,-19,-117,-144,7
11,-140,-26,27,1,28,-33,-89,-140,15
-17,-200,-117,1,-10,15,-11,-12,-108,9
-72,-182,-65,-5,-8,19,-4,55,-45,-8
-99,-126,-2,19,5,26,-2,106,50,-9
-30,65,79,42,37,26,-8,136,87,4
103,399,176,53,43,14,2,166,82,-11
-33,220,84,1,-33,1,25,126,-5,-56
-98,189,4,-58,-63,-1,65,110,-27,-83
-97,307,-22,-105,-109,-28,56,76,-16,-75
-94,349,-24,-112,-138,-81,8,16,-17,-86
-65,278,-53,-64,-111,-83,-43,-60,-30,-65
-20,223,12,-16,-72,-52,-69,-117,-70,-39
29,211,210,51,-15,-34,-87,-210,-124,-40
4,40,199,79,23,3,-54,-211,-113,-26
7,-182,-3,66,36,48,-7,-137,-67,25
40,-313,-108,53,47,75,28,-76,-16,89
68,-392,-118,57,72,90,34,4,46,139
89,-371,-25,90,90,87,23,16,77,149
74,-216,21,81,59,75,11,-89,41,95
79,88,-4,16,20,51,-12,-164,-28,12
158,604,-5,-54,-17,-41,-33,-78,-5,-51
75,731,45,-99,-124,-119,-91,-142,-77,-106
-2,680,91,-121,-185,-169,-169,-234,-152,-132
18,529,69,-118,-168,-156,-153,-182,-114,-88
16,140,-47,-61,-84,-71,-42,-67,-19,-15
-22,-303,-11,65,61,75,108,70,87,88
-46,-417,158,148,160,176,203,124,130,121
51,-226,107,139,168,127,148,136,155,120
27,-271,-70,63,123,72,47,95,120,115
-60,-412,-193,-29,52,53,7,58,99,119
-41,-350,-148,-27,33,51,30,86,100,121
-28,-284,-17,47,63,62,38,99,85,117
-55,-151,36,61,56,17,-43,15,12,49
-52,195,-28,-40,-53,-72,-174,-96,-76,-23
20,812,18,-160,-176,-229,-310,-195,-159,-106
80,1276,113,-213,-228,-342,-399,-248,-216,-179
-28,926,125,-201,-261,-343,-404,-296,-257,-185
-25,372,193,-70,-138,-185,-215,-179,-168,-98
14,-265,191,71,24,32,33,-19,-43,25
26,-811,70,170,167,196,186,97,63,109
-16,-977,-203,119,166,198,195,135,109,112
-37,-596,-352,-18,66,48,54,85,82,41
86,79,-270,-65,37,-100,-104,110,103,0
153,426,-53,4,61,-144,-171,134,110,-7
2,70,42,130,95,4,-70,24,5,-26
15,-240,45,210,198,218,132,73,53,65
65,-550,-60,161,214,287,175,71,108,161
4,-655,-195,35,129,199,99,57,100,136
-97,-385,-203,-60,8,54,-38,14,54,25
-124,4,-201,-126,-71,-55,-141,-63,-10,-78
-107,195,-86,-111,-74,-72,-149,-82,-28,-109
-86,160,176,-3,-18,-23,-84,-43,-36,-87
12,134,330,133,97,84,87,80,29,19
30,-31,185,150,136,135,95,77,101,112
-67,-298,-122,79,116,105,66,81,147,116
-124,-390,-182,70,108,95,74,122,170,119
-94,-227,-19,91,80,70,38,108,133,120
64,188,116,79,21,-4,-27,96,123,83
124,484,148,78,0,-26,-41,65,66,28
-27,355,110,10,-84,-31,-59,-66,-58,0
2,392,146,-113,-160,-55,-110,-142,-115,9
55,228,153,-67,-76,-36,-135,-113,-83,15
99,-36,81,-32,62,-46,-148,-13,10,71
104,-212,6,-15,77,-52,-127,47,36,79
99,-142,-87,0,54,-39,-117,16,-20,-18
90,29,-161,-13,81,-1,-41,-10,-63,-105
-15,-154,-100,-13,9,-32,-41,-52,-77,-83
54,-41,59,-36,-61,-119,-181,-32,-8,-1
87,-38,135,-30,-60,-109,-146,39,38,45
40,-183,109,-3,10,40,43,30,17,46
2,-243,0,-80,13,148,80,16,17,49
-28,-325,-96,-157,-14,150,120,134,92,72
29,-227,-40,-155,-16,83,-36,5,57,58
-18,-187,-23,75,40,36,-112,-76,21,0
-111,-5,-64,201,98,51,-10,-66,-51,-95
-94,273,-14,28,47,89,128,25,-87,-139
5,469,44,-56,-1,21,82,8,-135,-129
104,468,172,-30,-42,-46,-76,-99,-106,-36
88,276,287,9,-7,-36,-97,-105,-70,-12
115,270,219,-2,13,-22,-112,-106,-81,-31
236,582,81,-35,59,-6,-135,-24,10,-22
78,439,14,10,80,44,-100,-60,-12,-26
-45,93,50,84,119,112,1,-8,-5,-10
-51,-172,141,116,144,137,58,28,35,15
-56,-448,70,92,141,122,11,-15,61,51
-54,-643,-20,46,112,113,25,57,105,105
-42,-599,-5,29,50,63,-15,67,121,95
84,-139,102,86,62,-17,-91,81,129,60
150,152,239,269,148,14,-37,87,120,46
-28,-36,296,251,144,97,12,-71,27,22
-51,52,350,114,81,104,-1,-103,15,20
-8,139,187,-40,-13,83,0,-62,33,38
28,236,-25,-151,-114,-12,-58,-68,36,44
33,380,1,-152,-160,-87,-147,-146,-4,7
43,680,105,-129,-170,-118,-216,-209,-63,-70
50,776,153,-121,-164,-125,-235,-216,-72,-79
6,393,147,-90,-116,-91,-199,-192,-59,-39
-4,67,285,39,26,-19,-121,-110,16,22
-56,-128,360,126,111,74,-57,-67,43,56
-110,-414,127,91,90,81,-57,-45,38,35
-43,-678,-150,44,58,80,-46,12,84,79
25,-705,-197,-1,47,82,-43,33,101,108
120,-350,-83,-20,102,62,-61,73,113,97
188,40,20,27,122,13,-106,85,109,64
108,-50,124,41,60,-38,-159,-3,74,77
55,-271,119,-19,-7,-53,-169,-81,72,108
29,-379,0,-70,-3,14,-90,-76,83,104
-16,-386,22,-52,24,118,10,-13,92,93
-65,-276,79,-14,39,122,4,12,71,62
-66,-140,119,114,109,85,-83,-55,36,8
-58,-73,103,138,131,85,-80,-85,-7,-30
-29,-21,114,33,34,52,-112,-125,-6,-2
41,302,265,-11,-48,-15,-171,-129,-8,23
53,532,315,-48,-104,-53,-174,-132,-36,-2
42,612,322,-6,-79,-65,-206,-197,-64,-50
58,501,314,39,-40,-65,-200,-194,-45,-40
81,217,159,-10,-44,-66,-174,-112,27,3
181,195,31,18,40,-45,-97,48,112,17
108,107,43,112,121,14,-21,85,118,5
-99,-104,63,199,81,8,-70,-58,10,-28
-80,10,270,311,94,-40,-148,-156,-16,-45
-16,22,293,172,87,18,-57,-107,23,-13
0,-121,62,-26,49,157,165,0,134,44
-3,-254,-122,-99,0,142,230,-2,178,68
64,-105,-69,-51,26,91,165,0,139,53
123,218,60,-51,14,12,49,-22,86,18
50,368,78,-131,-117,-89,-33,-170,-18,-41
61,534,64,-167,-154,-93,18,-186,-17,-47
60,471,106,-130,-117,-34,-13,-241,-13,-23
83,426,237,-48,-70,10,-87,-209,47,49
53,143,271,53,2,90,-12,34,135,109
-28,-138,85,2,-19,66,0,47,88,77
-7,-203,-33,-27,-43,9,-35,-13,78,75
0,-403,62,65,-27,37,-111,24,130,126
32,-416,108,79,-36,33,-207,15,129,132
18,-340,118,70,-31,66,-132,11,88,91
-5,-186,112,49,-9,91,-68,73,39,40
49,6,65,34,88,65,-63,39,44,58
17,100,26,11,160,47,-103,-61,28,25
-45,103,-7,-37,61,-1,-142,-81,21,-11
-75,120,26,-21,-2,14,-108,-73,5,-35
-64,120,120,19,20,42,-131,-25,61,-27
-78,-36,3,-22,25,31,-371,22,209,-18
-112,1,0,10,42,14,-499,13,250,-9
-159,66,53,20,2,-15,-535,-75,158,-78
-126,-59,-47,-15,-39,-41,-579,-106,75,-123
-25,-143,-108,3,-18,-57,-599,-61,32,-95
218,156,172,151,26,-186,-634,-31,68,-54
352,223,342,217,18,-337,-682,-53,160,18
103,-317,89,102,0,-195,-448,62,207,60
-102,-580,-59,37,89,194,90,199,201,52
-110,-474,10,31,127,281,264,22,101,3
-94,-339,76,18,4,27,149,-44,99,-2
-58,-247,19,-101,-120,-129,98,5,116,19
-76,-30,-71,-156,-46,133,-152,-90,13,-83
-64,445,86,-97,-75,80,-304,-190,-109,-194
-31,789,366,-11,-167,-166,-361,-252,-171,-223
15,834,537,63,-161,-224,-303,-204,-108,-160
66,561,639,149,-68,-77,-106,-91,56,2
1,-42,510,173,85,183,142,-7,126,59
-77,-692,-101,-17,128,360,370,112,153,90
-89,-765,-700,-304,-2,263,359,182,190,119
64,-85,-608,-237,0,66,135,125,132,12
141,328,-181,196,204,29,17,89,11,-115
6,199,138,169,145,42,44,-24,-85,-130
-47,8,179,-19,-5,20,106,-20,-65,-49
75,250,119,-118,-134,-70,2,-44,4,54
145,634,-47,-158,-211,-205,-211,-171,-22,45
85,815,-49,35,-127,-252,-235,-204,-74,-17
-36,698,135,211,22,-153,-73,-149,-60,-96
-141,308,195,131,147,74,186,-69,-54,-122
-141,-229,11,34,169,195,324,115,-132,-3
-77,-255,-52,-86,20,132,259,75,-75,72
-33,-24,-136,-282,-150,74,212,-25,27,75
12,144,-189,-331,-226,16,153,-37,25,33
15,58,-84,-198,-136,0,63,-101,-1,0
-1,-121,2,-34,-26,23,33,-100,-36,-23
144,-141,-92,115,111,71,116,58,60,25
118,-272,-452,39,88,65,150,65,72,34
8,86,-608,-205,-76,-10,20,-94,-61,-21
18,758,-294,-183,-102,-78,-72,-211,-147,-86
16,962,37,-77,-111,-126,-112,-318,-181,-132
47,696,49,-113,-178,-220,-233,-381,-129,-86
100,71,-363,-175,-219,-348,-369,-327,3,66
57,-245,-595,-245,-256,-446,-351,-46,22,59
-96,-493,-231,-118,-145,-330,-191,61,-220,-95
-291,-685,531,169,72,128,274,-16,-141,-126
-269,-761,528,306,112,305,513,24,-54,-85
-65,-83,-395,-134,-113,-195,128,-183,-8,-40
26,195,-367,-377,-267,-213,246,-110,-85,-25
94,211,-111,-364,-197,-35,124,-204,-482,32
102,0,70,-167,-92,-9,88,-140,-484,106
0,-492,-132,33,10,107,132,-63,55,138
-162,-1110,-564,95,119,180,105,46,152,104
-236,-1307,-685,102,177,217,226,119,145,85
-231,-1019,-492,108,229,317,380,71,70,42
-153,-650,-457,30,243,320,385,-38,13,32
88,120,-409,-58,285,261,345,-2,90,92
303,1007,-225,-63,184,132,231,20,112,74
167,1162,95,71,0,-38,199,-79,-16,-17
88,1412,243,18,-163,-175,202,-136,-131,-146
176,1919,355,-118,-308,-311,65,-262,-264,-262
205,1607,461,-88,-245,-194,-220,-380,-312,-282
122,853,508,38,-79,-23,-277,-297,-215,-244
66,68,192,83,-28,-41,-160,-60,39,-74
42,-944,-321,200,150,78,47,235,380,135
-266,-1982,-617,72,120,218,312,320,329,100
-354,-2012,-524,-54,120,365,520,347,195,63
-180,-1193,-43,32,118,232,299,141,129,98
28,207,58,16,30,1,59,52,125,104
89,1744,134,-44,-57,-89,-10,-35,0,-51
53,2991,276,-104,-196,-209,-75,-237,-245,-295
62,2836,403,-13,-228,-271,-174,-364,-330,-375
77,1618,659,283,-173,-247,-210,-387,-288,-302
110,278,483,119,-263,-91,-1,-190,-129,-95
82,-967,165,-390,-381,92,258,93,124,154
-79,-859,37,-477,-391,22,163,31,64,79
-101,-9,-65,-230,-54,-7,114,-41,-43,-27
-172,-34,-496,-219,131,0,139,-66,-109,-97
-204,-769,-746,-235,-26,-52,24,-31,-88,-111
-7,-1189,-436,186,201,42,46,159,96,-23
68,-1646,-401,293,509,278,259,337,242,103
-151,-2173,-707,16,434,344,361,353,198,148
-228,-2049,-764,-148,134,245,364,311,185,177
-139,-1413,-571,-66,7,135,252,251,159,188
-84,-522,-219,387,92,79,193,223,70,92
118,1027,148,315,-33,-71,36,85,-44,0
425,3362,273,-583,-334,-326,-163,-159,-264,-151
322,3997,631,-656,-490,-650,-387,-469,-575,-413
73,2585,1259,-109,-386,-731,-317,-544,-644,-497
-74,489,1177,219,67,-297,-7,-188,-331,-258
-347,-1873,7,93,307,267,11,120,-87,-15
-579,-3226,-1166,-78,141,171,39,252,-85,38
-445,-2330,-930,330,278,220,276,377,207,107
-120,333,-330,444,257,135,221,283,153,34
167,1904,-403,-158,4,-73,106,167,65,-75
102,1102,-414,-578,-186,-154,53,57,-78,-143
-47,-610,119,-459,-213,-66,132,249,-43,-40
-104,-2045,-161,-262,-151,30,273,436,115,123
-226,-2610,-1074,-331,-85,82,363,333,170,172
-310,-1681,-944,-314,16,151,353,234,94,64
-304,-448,-59,114,193,135,219,67,-65,-89
-128,213,158,171,225,-2,92,53,-28,-89
14,159,271,175,191,-43,90,83,23,-16
-53,-451,-32,185,132,31,147,47,-31,-13
-116,-768,-153,294,200,91,175,80,15,6
-27,-228,-79,51,104,73,204,177,98,71
63,372,-207,-316,-78,68,252,259,145,101
-13,222,-178,-158,12,119,291,269,69,24
-157,-178,3,253,225,101,215,163,-22,-94
-172,-229,158,-9,27,-55,-9,25,-15,-115
-151,-306,87,-199,-194,-164,-132,-11,-17,-78
-91,-155,240,24,-179,-191,-155,-35,-76,-69
94,398,488,98,-249,-176,-7,31,-57,18
229,117,122,45,-262,-55,270,145,61,161
67,-599,-253,192,-63,80,426,233,92,119
-69,-957,-515,75,-6,46,328,206,65,61
26,-509,-205,108,171,82,310,299,179,99
109,241,22,307,267,83,345,318,182,40
39,1050,123,308,37,-94,133,48,-59,-70
89,2599,384,-12,-271,-324,-126,-216,-288,-217
228,3875,743,-342,-510,-440,-295,-393,-425,-339
453,4553,750,-256,-559,-486,-385,-389,-416,-307
534,4631,1156,174,-448,-502,-359,-293,-318,-223
144,2154,1003,172,-114,-351,-196,-291,-310,-280
-140,-771,-266,-45,174,-138,-33,-229,-244,-274
-223,-2287,-1059,-183,-82,-46,93,69,47,22
-258,-2061,-801,-137,-67,11,191,279,212,143
-177,-1594,-683,-225,33,141,351,272,158,104
30,-1610,-961,-299,81,246,447,290,245,242
27,-1420,-268,-22,102,230,471,345,240,251
51,-602,278,51,10,222,478,244,116,169
64,174,360,95,-66,95,337,180,77,107
-17,38,124,46,-132,-55,-24,4,-82,-33
-80,-666,334,135,96,-87,-138,6,-107,-40
-164,-1441,555,159,308,93,149,194,-18,19
-242,-1560,48,-88,30,109,249,100,-54,-20
-136,-1294,-547,-25,-41,72,224,50,0,77
81,-528,-612,145,81,175,294,192,139,244
87,-328,-354,169,115,164,144,150,145,195
150,-315,-428,113,224,9,0,163,116,76
160,82,-31,273,355,86,167,299,211,102
83,1487,475,343,270,222,344,231,128,81
258,3343,571,59,43,74,208,24,-119,-43
599,5657,613,-407,-257,-275,-130,-341,-491,-255
829,6348,917,-385,-488,-657,-592,-820,-821,-433
823,4404,1426,-40,-445,-646,-634,-773,-780,-317
639,1531,1229,382,34,-179,-180,-266,-303,47
15,-1559,-338,489,412,202,230,166,59,179
-668,-3268,-1746,-253,26,150,283,190,-18,-21
-833,-3615,-1678,-130,-26,150,266,127,-54,-100
-791,-3778,-460,597,301,202,214,16,-132,-152
-716,-3732,-238,584,390,200,155,-14,-130,-125
-404,-2848,-371,77,-17,89,159,112,76,102
27,-1544,-130,-605,-593,-110,14,133,204,258
347,-428,535,-85,-492,-69,87,347,343,332
118,284,779,343,-220,45,208,239,125,118
-313,34,487,773,457,146,117,-73,-173,-145
-199,-383,-8,303,506,71,115,15,-75,-38
24,-657,-378,-359,104,54,195,78,56,144
48,-1019,-645,-139,23,184,312,172,96,234
26,-1084,-813,392,64,169,301,337,185,274
130,-207,-621,387,228,100,152,283,216,204
12,223,-91,62,171,-104,-93,54,0,-32
-247,72,516,-294,-67,-278,-235,-127,-229,-231
-240,135,648,-135,-211,-162,-240,-284,-344,-297
-177,706,1047,582,69,20,-208,-361,-481,-402
92,1841,963,607,175,-37,-160,-316,-437,-309
220,2178,362,184,49,-247,-278,-321,-413,-273
356,1622,368,94,32,-204,-278,-224,-225,-104
445,-75,-251,-285,-84,-117,-110,110,128,193
225,-1962,-1467,-820,-442,8,382,685,416,441
-74,-2020,-1532,-664,-440,133,470,681,279,321
-16,267,-527,249,252,265,269,273,34,121
212,1538,190,657,501,200,33,44,-21,79
385,214,-513,-126,7,47,5,302,315,387
148,-1005,-866,-89,3,-63,-66,372,335,379
-360,-864,-117,471,220,-220,-326,70,-79,-155
-483,-12,209,282,297,-12,-45,50,-245,-375
-279,414,-113,-98,134,237,258,-22,-235,-192
-125,-275,148,-305,-210,295,363,126,-46,23
-58,-999,40,-248,-469,256,362,312,84,144
100,-140,-492,56,-605,52,186,296,81,210
-111,728,-218,887,-75,27,43,30,-144,-60
-50,71,256,829,318,163,118,83,-71,-61
38,-1086,2,-100,113,47,55,170,48,10
-203,-2038,-217,-188,211,60,-1,57,-56,-76
-263,-1046,478,143,606,265,91,-17,-110,-137
-110,161,738,-134,470,164,-7,-96,-205,-187
125,982,240,-382,21,-40,-128,-132,-191,-125
209,2525,92,-364,-250,-225,-247,-158,-247,-170
307,5048,391,-652,-677,-490,-448,-352,-400,-283
481,5411,1568,-228,-611,-453,-326,-315,-219,-143
385,2114,813,-287,-501,-280,9,-67,-5,16
-10,-2071,-1640,-850,-274,-231,229,161,79,30
-493,-4518,-1917,-13,257,-156,40,74,7,-69
-518,-3652,-1209,600,156,-182,6,-40,-163,-177
-170,-1118,-42,940,468,7,148,-94,-223,-84
48,13,1264,332,550,317,-311,-360,-232,2
308,445,1460,-256,-61,64,-462,-252,-135,56
261,25,827,-189,-321,-53,-82,269,173,125
16,-1829,-300,-486,-423,80,187,595,493,335
-243,-3305,-1445,-481,-95,282,339,699,619,465
-427,-2946,-1612,-49,532,450,436,642,417,275
-312,-1955,-1218,-483,323,407,490,530,297,193
-185,-1046,-625,-647,22,315,369,285,212,160
-116,-137,-298,-363,56,241,230,136,130,94
173,1389,33,-301,-59,54,73,106,176,138
305,2120,216,-470,-370,-365,-319,-46,-13,0
183,1352,399,-288,-292,-437,-448,-190,-280,-247
-44,-67,1209,434,239,11,-166,-258,-269,-250
-144,-673,943,403,301,124,-49,-197,-197,-154
-23,-228,-939,-556,-92,57,146,76,8,76
-10,-78,-1454,-706,-163,120,315,206,153,180
-89,-58,-493,61,21,-13,43,-13,-10,-49
88,126,444,354,173,-23,-33,10,89,-20
-119,-588,-20,-84,-62,-131,-43,-10,3,-73
-279,-1363,-205,-10,-65,-39,186,155,-19,-55
-100,-1203,134,145,-82,-24,295,227,98,106
-2,-430,-71,206,-167,-126,161,84,-3,67
-26,754,57,702,-54,-166,4,-142,-210,-99
9,1003,254,1025,192,-6,-48,-204,-239,-134
120,-33,44,782,466,206,50,-23,-37,10
53,-144,-192,252,543,295,149,106,72,101
58,1092,-268,-541,148,85,7,55,20,81
105,2034,220,-794,-458,-276,-254,-117,-105,-29
59,1452,548,-747,-807,-427,-372,-196,-154,-93
-5,-424,335,-45,-608,-379,-393,-179,-83,-19
-66,-1465,-60,172,-181,-274,-409,-188,13,57
-185,-1510,-236,132,202,-27,-136,-54,92,28
-166,-1245,-181,367,545,286,312,113,132,24
-165,-891,21,-24,347,160,183,20,85,14
-227,-433,-7,-519,-134,-166,-65,-16,96,-43
-172,828,-76,-564,-311,-284,-17,6,-82,-212
62,2631,747,-354,-275,-295,-53,-187,-324,-363
128,3105,1374,-20,-139,-171,-182,-359,-433,-454
218,1983,1589,705,164,41,-158,-229,-217,-198
223,328,795,1292,204,-1,-77,6,69,7
72,406,-175,1418,162,-65,-62,97,105,-78
23,648,-365,1177,301,-34,-99,17,-2,-109
-37,738,-107,359,354,-115,-244,-176,-172,-212
-114,192,504,-651,108,-41,-53,-59,-105,-183
-142,-442,897,-1078,-457,-68,153,154,29,-56
-215,-1045,-16,-776,-444,-202,-88,-48,-88,-117
-168,-1553,-201,-287,-170,-152,-242,-162,25,-1
32,-1825,33,252,246,75,-8,198,331,242
-131,-2466,-1096,142,222,84,85,342,277,206
-86,-2239,-1606,-603,-85,107,159,360,298,269
117,-1077,-812,-1047,-402,122,216,270,225,265
162,183,-541,-727,-337,77,138,83,100,154
207,792,-460,-305,-45,37,47,33,19,78
160,943,174,-65,166,65,99,182,51,54
145,2649,488,117,-134,-77,-3,181,-24,-63
260,4400,615,135,-480,-306,-209,61,-139,-112
298,3325,398,-129,-526,-539,-513,-217,-305,-228
340,1592,-104,-246,-201,-501,-577,-520,-432,-316
57,-967,-395,-149,-131,-233,-276,-362,-328,-249
-452,-2742,-462,-14,-52,-24,7,-40,-262,-284
-697,-2750,-730,-317,-115,-116,-85,-41,-196,-265
-508,-2119,129,-46,80,-14,6,202,166,23
-97,-389,943,271,322,167,246,428,373,174
98,1121,356,170,423,340,491,462,330,183
51,820,447,39,208,239,294,183,131,150
-45,-331,888,66,0,-27,-89,-60,-55,12
-118,-1049,1010,308,27,-76,-165,-47,-54,-8
-89,-784,45,39,-61,-90,-113,33,-8,0
15,-131,-544,67,63,24,23,97,33,40
239,1544,-428,-7,-98,-7,29,135,116,135
92,2802,397,-59,-356,-182,-154,11,-29,-43
-145,2621,1781,875,-130,-252,-320,-201,-298,-332
-2,562,1790,1897,189,-37,-123,-76,-145,-105
193,-1168,-750,997,239,184,137,149,174,268
-31,-1201,-2025,-160,696,255,60,-9,21,77
-4,-178,-495,-667,346,48,-73,-182,-145,-105
299,946,940,-384,-447,-213,-155,-154,-71,-67
428,1532,943,56,-711,-467,-374,-152,-8,-71
369,1539,-55,213,-549,-486,-474,-212,27,12
290,562,-352,426,586,150,5,40,179,140
-121,-1376,-455,-220,389,279,381,224,87,5
-345,-2969,-1004,-1422,-912,-107,214,162,92,65
-495,-2882,-454,-988,-894,-216,-138,72,227,190
-698,-1945,225,787,180,-101,-311,-110,0,-145
-353,-373,921,939,467,-32,-97,64,-73,-251
44,-629,575,-366,263,180,291,268,106,100
49,-1900,-606,-921,96,317,424,134,232,316
-57,-1707,-600,-537,-129,220,371,172,189,249
-26,-145,-603,-333,-105,132,284,178,73,155
-7,1499,155,31,242,139,137,-11,-114,-18
-54,1453,717,36,297,128,67,-74,-181,-132
31,745,274,-139,141,139,154,-41,-91,-75
190,711,-276,-392,-88,71,109,-90,-2,31
159,2731,-924,-646,-323,-258,-218,-331,-217,-174
99,3538,-527,-455,-348,-403,-206,-321,-401,-360
110,1502,409,18,-105,-258,130,-95,-278,-237
140,-374,427,160,-232,-166,177,87,-37,-24
91,-2583,-1071,-414,-684,8,85,303,228,233
109,-3250,-1765,-476,-479,379,400,477,448,407
64,-2583,-727,233,596,503,308,277,360,236
-118,-2014,621,724,746,253,0,44,133,25
-424,-2149,771,677,394,91,-120,-47,-35,-92
-402,-1835,181,441,426,160,29,-56,3,-20
-240,-1132,-747,-29,330,221,133,-5,72,56
-221,-533,-755,17,305,252,157,8,45,-15
-46,-64,-168,354,138,138,129,24,99,58
196,905,632,224,-58,-65,-117,-97,108,84
109,957,384,-134,19,-124,-246,-184,128,17
-18,756,442,269,107,-236,-172,-185,1,-52
291,1677,813,361,145,-255,26,15,36,108
606,1724,189,-164,-174,-177,150,105,248,384
454,885,-386,-524,-385,97,-140,-35,163,220
157,351,-43,-208,-247,78,-262,-120,-60,-53
-144,-422,28,4,197,41,-130,-140,-197,-210
-231,-706,449,1,186,131,12,-91,-95,-118
-97,-153,754,-79,-10,114,56,-11,42,75
115,267,-48,-340,-290,-101,22,15,14,96
165,794,-554,-123,-58,44,58,-62,-107,-5
128,717,-623,44,216,119,-67,-172,-115,-20
142,-139,-214,158,39,11,-76,-22,55,133
-125,-712,297,796,58,0,-88,-42,8,64
-374,81,324,860,193,-33,-222,-161,-93,-180
-262,974,786,696,332,-11,-230,-173,-114,-325
-132,-186,458,260,537,278,97,9,-1,-122
-179,-1656,-577,-316,71,206,130,7,34,65
-84,-1804,-830,-609,-242,179,128,93,182,248
-12,-332,-183,-104,-132,32,-72,-68,47,109
79,1235,281,758,162,-24,-180,-219,-156,-41
396,3331,713,171,-439,-151,-187,-163,-99,0
709,5188,1580,-350,-736,-253,-221,-127,8,109
466,4588,1666,558,-19,-251,-361,-277,-181,-60
381,2057,835,289,-44,-220,-294,-144,-28,33
153,-484,-341,-77,-52,-191,-282,-73,128,46
-257,-2683,-1097,-380,108,-57,-13,105,70,-110
-245,-3502,-1066,-775,-57,145,394,399,232,128
-304,-3162,-806,-659,-67,125,253,194,208,185
-451,-1139,-32,-78,38,33,46,-156,-125,-228
-273,1308,1162,501,-23,-107,-186,-376,-338,-462
-7,1496,1615,615,-54,-77,-140,-258,-250,-228
190,217,556,86,-34,54,219,118,124,152
-13,-1554,-1515,-364,77,16,264,177,183,156
-72,-2019,-1683,200,385,101,247,251,279,266
-215,-1582,-549,449,513,177,-4,14,-17,101
-200,-1164,-105,210,268,249,13,-67,-102,-38
118,-873,-381,-105,280,323,205,216,283,166
234,-535,-541,-595,-57,143,113,274,320,271
287,1292,-116,-633,-296,-59,-131,-28,130,129
381,1744,110,-307,-188,-118,-247,-44,93,131
292,383,-110,-268,-234,-87,-79,261,176,206
-1,-1073,-72,-180,-427,54,116,319,261,262
-145,-952,51,-19,-500,241,282,283,243,221
-201,916,317,339,42,203,83,40,-5,-65
-364,2091,808,418,639,0,-186,-317,-389,-485
-130,2347,994,-238,-8,-208,-318,-437,-415,-436
111,1119,705,330,-303,-224,-292,-329,-215,-175
80,-579,118,878,155,-105,-217,-230,-150,-62
130,-1500,-138,-47,154,121,12,82,124,189
-15,-2317,-1224,-703,94,72,-80,148,170,270
-150,-2411,-1040,-298,475,242,78,266,187,293
3,-1235,-187,173,485,320,299,382,263,154
244,-306,-218,287,333,217,225,301,129,123
288,298,-309,473,258,-17,-122,-72,-98,53
221,705,158,329,-49,-210,-203,-133,-95,25
161,1389,673,367,-40,-48,16,-21,-18,41
169,2453,491,69,59,122,172,-99,-105,-63
285,4038,546,-413,-364,-201,-152,-375,-305,-228
429,4726,1506,30,-533,-587,-497,-534,-492,-437
375,2868,1880,507,-248,-532,-477,-445,-424,-377
-8,-1090,629,-36,-13,-112,-52,-62,-81,-78
-386,-4191,-1201,-448,96,196,315,277,233,110
-461,-4834,-2325,-744,27,381,690,591,542,359
-492,-3620,-1761,-478,131,395,529,590,468,293
-499,-2306,-828,317,332,233,322,425,229,64
-266,-1276,41,733,321,124,358,367,167,53
29,-451,405,135,-171,7,234,352,244,162
277,327,90,-555,-622,97,-33,324,322,282
267,1079,-153,-94,-155,230,-80,138,210,185
285,2918,380,134,249,229,7,-56,54,59
225,3264,656,-319,133,-11,-115,-280,-185,-150
-13,2243,917,-164,-13,-414,-580,-674,-505,-457
113,1219,1492,476,91,-468,-790,-748,-442,-359
372,315,669,686,250,-180,-378,-375,-119,-84
281,-331,-145,649,239,86,47,-73,72,3
-58,-1059,-129,389,262,208,128,47,121,38
-333,-1283,-58,-127,-252,-86,-75,-98,28,-10
-347,-1130,258,-62,-612,-344,-242,-139,-60,-50
-269,-849,-331,-36,-136,-49,57,35,-25,11
-293,-843,-961,-201,521,429,367,41,-8,-4
-93,-461,-864,-462,312,352,299,-37,-19,-1
210,-363,-980,-547,-33,36,142,4,29,99
281,-663,-573,-202,45,114,238,183,125,254
-85,-905,75,-108,-4,124,60,-15,-38,45
-201,-877,192,-412,-273,-27,-109,-83,-73,-14
-29,-434,-112,-469,-262,-82,-39,116,39,86
20,237,101,142,-97,-281,-116,67,-51,-50
21,1422,262,527,-142,-358,5,77,-110,-116
159,2550,594,276,-289,-269,236,163,-55,-81
256,3060,1353,229,-166,44,-34,-2,-61,-120
133,2221,815,-87,46,62,-184,-58,-128,-107
-41,754,72,-567,-56,-53,-299,-61,-234,-199
-68,857,-232,-580,-308,-277,-580,-314,-352,-304
54,1579,177,-106,-234,-168,-324,-173,-249,-205
153,650,811,671,-6,135,35,-35,-82,-19
101,-1285,-356,364,91,250,225,122,151,153
-189,-2826,-1541,-166,435,305,275,201,193,95
-414,-2904,-1114,-102,333,253,181,106,91,13
-252,-2319,-749,-22,77,324,235,224,238,175
-122,-1676,-899,-294,-248,207,92,156,252,197
-83,-407,-570,-150,-422,-118,-191,-112,93,35
-15,485,333,623,102,-233,-290,-204,10,-86
39,802,700,557,291,-202,-43,95,-17,-187
131,574,428,-542,-107,-110,175,191,-47,-154
172,146,527,-620,-453,-158,137,83,2,-19
-44,-298,819,268,-191,-119,64,76,30,-44
-160,-790,207,476,72,90,157,156,130,28
-111,-980,-866,-177,106,262,307,242,129,91
-187,-845,-837,-243,275,199,74,22,38,37
-225,-318,-228,-330,105,119,-77,-110,7,13
-171,-473,-146,-213,-25,118,30,-115,0,-10
-71,-405,202,342,180,123,46,-41,40,-99
-19,-552,-90,135,136,48,12,10,63,0
-12,-565,-662,-303,-114,-6,0,-3,32,93
-67,-185,-348,85,-66,-21,-90,-49,-26,16
-76,-65,-231,-188,-171,-125,-231,0,31,21
-53,-278,-321,-552,-59,-116,-154,175,111,70
47,-27,-359,-536,-74,3,17,172,108,86
288,1803,331,172,-37,-37,-60,5,65,54
281,1946,569,477,109,-152,-205,-156,-64,-23
82,1117,424,306,148,-121,-178,-357,-246,-142
19,966,839,360,38,-20,-110,-433,-300,-148
-47,1020,905,89,-69,-94,-195,-513,-367,-203
-39,1453,572,-290,-203,-288,-245,-615,-442,-266
43,900,-132,-557,-77,-152,58,-373,-296,-144
15,-619,45,-258,-84,-75,247,16,-36,-5
-87,-1568,-173,136,25,67,272,151,94,31
54,-1229,-691,264,262,332,428,329,275,261
134,-351,-422,-253,-109,38,155,122,108,187
-29,-70,281,36,-30,-25,-113,-58,-7,13
-129,-167,459,490,-13,-77,-287,-116,-1,-64
-156,-305,493,460,-217,-180,-302,-118,-38,-94
-61,118,401,-60,-207,5,-60,-116,38,19
49,1043,232,-112,-17,25,-75,-198,61,-30
260,2242,594,519,312,-11,-228,-224,23,-141
316,2202,718,1525,745,38,-267,-265,-84,-157
284,1091,724,962,768,114,-161,-164,-56,-56
370,140,101,-600,26,149,222,422,283,259
252,367,-308,-839,-487,-47,176,354,316,284
106,1932,-129,-406,-204,-264,-281,-142,-27,-31
16,1730,384,33,-34,-115,-68,-97,-210,-181
-166,-475,91,415,-354,84,195,-154,-145,-152
-435,-3049,-934,300,-968,-243,-28,-173,-75,-124
-520,-3766,-1040,338,-236,-237,-93,-85,41,-54
-329,-2623,-482,-443,501,87,151,187,296,184
-136,-1124,-160,-920,230,213,370,386,290,206
-76,-56,249,-283,18,29,265,162,-9,6
103,1336,199,-84,273,101,103,-67,-139,-49
261,1883,-147,-163,340,205,23,-68,-104,-65
135,764,-53,-137,97,75,-3,-40,-66,-108
-97,-1065,-208,-184,-207,13,39,-13,-38,-18
-247,-1631,-133,116,-98,111,165,217,89,88
-454,-955,263,637,368,27,31,125,-52,-103
-321,-105,166,817,567,12,-35,-117,-124,-107
77,459,-172,421,164,-132,-122,-259,-103,49
325,872,221,63,215,-196,-267,-361,-74,128
217,705,935,248,147,-133,-193,-347,-114,-36
84,-389,382,67,-21,10,37,-213,-55,16
-66,-1232,-898,-415,0,34,186,-35,-6,32
-207,-888,-1376,-616,-228,8,-37,22,-20,-22
-93,489,-775,-95,-6,149,-10,140,-1,-10
53,1164,278,328,161,251,264,286,0,-2
90,855,662,-103,-140,167,317,349,108,97
38,-190,-43,-597,-288,15,223,302,196,181
-49,-1270,-189,-356,-104,96,184,284,230,209
-97,-1487,-562,-24,127,236,190,252,219,163
165,-502,-431,-107,114,262,285,345,358,322
377,1001,237,-482,-236,105,128,198,295,329
342,2235,808,97,-45,64,-123,-174,-20,56
206,1466,922,160,70,22,-150,-219,-134,-67
90,-185,141,-229,-101,-58,-21,-44,-47,-47
210,-319,-275,-162,-238,-162,156,157,128,32
193,549,-418,-14,-165,-186,306,167,101,71
279,1972,-305,-148,18,-18,308,168,86,96
294,1881,286,-350,-114,161,-92,34,10,7
100,-223,400,-226,-323,-7,-195,-8,11,-15
-337,-2132,-223,202,12,-10,-152,-96,-78,-140
-572,-1919,-718,37,350,108,-101,-202,-200,-272
-288,-763,211,34,116,68,-85,-153,-66,-151
-44,-656,250,444,31,-47,-143,-108,32,18
-114,-1451,-96,420,269,69,-68,1,86,88
-194,-1612,-298,170,150,14,-45,85,93,81
-185,-1111,-496,56,44,-127,-188,-152,-8,12
62,-439,-369,-17,112,112,68,122,124,178
161,-187,-15,40,-123,126,94,166,160,234
137,424,838,8,-605,-171,-86,30,-269,82
-70,518,1148,572,-89,-311,-461,-183,-975,-129
-123,236,129,600,583,11,-165,-120,-372,-118
98,876,-592,-362,249,82,169,110,90,79
188,2005,-374,-374,-30,-124,17,-60,8,8
136,2056,222,-120,-202,-208,-135,-134,-116,-133
26,939,619,41,-140,20,-126,-229,-140,-170
89,-213,171,-256,-50,37,-80,-222,-1,-101
53,-889,32,-110,292,161,80,-73,116,-59
-149,-1387,-457,-156,162,252,191,23,118,15
-34,-1027,-565,-228,-179,89,94,44,116,106
132,-262,-49,-80,-207,-107,-91,33,50,101
101,-1,-52,-10,165,-121,-168,2,-154,56
51,105,-433,-231,128,-33,72,134,35,80
34,160,-398,-224,-66,-142,56,140,117,94
23,128,27,161,-62,-263,-142,28,115,59
-52,-175,442,797,235,-3,-159,61,93,36
-138,-580,260,557,217,196,-70,111,125,25
-63,67,-148,-88,42,119,-52,71,173,40
134,1451,-100,-333,-1,75,84,174,221,84
232,2682,479,-357,-156,20,125,159,80,-2
153,2035,1250,-19,-211,-169,-135,-88,-152,-109
-16,58,1334,183,-148,-204,-131,-126,-311,-196
-123,-1287,160,336,133,17,132,29,-78,-88
-187,-643,-558,28,83,-51,32,-44,-110,-93
-132,216,81,-132,-4,-114,-172,-158,-315,-134
114,732,863,216,201,102,-16,-160,-88,-12
148,563,227,-68,-19,-16,-115,-290,-69,-38
-44,-699,-781,-428,-418,-229,-189,-300,-120,-90
15,-1451,-779,-9,-1,87,175,119,240,192
36,-375,-217,139,41,-76,-55,-5,57,13
34,2001,705,99,-351,-304,-254,-254,-330,-278
172,3524,1220,566,127,139,225,-111,-141,-139
304,2559,530,402,466,298,336,-55,-16,6
214,174,-972,-530,-292,-189,-100,-122,13,54
-141,-2253,-1207,-724,-428,-175,-202,-54,81,76
-194,-2914,-683,-301,-42,139,142,217,252,179
-40,-2016,-413,213,-24,161,272,194,250,165
-83,-1320,4,352,-380,34,146,17,56,92
-104,-1153,-67,233,-309,58,195,238,21,118
-53,-1194,-648,-232,30,156,406,313,215,192
-90,-1047,-568,-454,-40,114,395,185,58,155
-156,-76,-173,308,147,99,296,85,-41,49
-122,345,175,1121,584,130,-79,-30,30,-10
82,184,182,2,486,200,-77,-4,90,44
248,337,235,-452,135,166,-29,4,127,42
120,77,-49,-208,-57,9,-171,-135,-16,-6
122,112,-355,-252,0,-37,-129,-80,-23,2
-41,-59,-122,38,262,-36,-180,-97,-69,-118
-188,-130,221,137,106,-181,-345,-105,-78,-184
-230,768,271,-104,-75,-153,-56,237,-68,-225
-83,3208,1362,-64,-231,-199,186,104,-239,-346
183,4439,2992,393,-329,-333,95,-226,-292,-328
110,1700,2082,778,-24,-181,202,-105,-154,-152
-259,-956,-125,480,117,-36,-75,-102,-168,-200
-420,-2653,-1832,-504,-114,82,-185,50,9,-97
-314,-2797,-1961,-782,-87,264,53,208,200,91
-190,-1934,-1063,-98,6,132,-123,-92,95,105
-192,-1423,-541,267,23,-10,-186,-142,-36,69
-179,-1137,-636,135,3,4,-2,86,-116,58
-64,-457,-218,175,-12,-86,-93,-64,-23,22
28,398,105,-407,-134,-172,-209,-81,-97,2
-36,176,-380,-624,-80,248,61,29,114,14
-28,698,-491,-618,-465,-22,-64,178,-16,-52
-6,1694,224,-470,-694,-590,-650,99,-876,-244
24,2187,936,44,-346,-628,-857,-92,-996,-351
328,1622,572,641,270,-82,-67,137,44,-96
377,50,334,922,706,150,370,113,316,133
36,-1631,-393,-93,365,92,490,28,386,261
-99,-2314,-1175,-762,67,193,657,364,502,395
-201,-1980,-948,-391,122,543,569,362,397,277
-207,-1144,-695,-221,110,467,449,185,272,166
-131,253,-308,-277,-23,176,208,-48,35,-14
57,1339,268,-240,-224,-84,-137,-284,-97,-92
138,1643,1082,256,-81,-180,-558,-478,-13,-46
199,1556,1223,513,87,-61,-378,-328,114,34
132,686,796,481,242,137,-12,-176,36,-54
106,1095,551,614,43,-36,-208,-426,-377,-278
586,2272,241,76,-473,-135,-292,-290,-197,129
620,2257,200,-373,-417,-102,-249,-104,80,214
233,-624,189,129,313,23,-91,-164,-114,109
-195,-3002,-868,97,357,330,303,146,282,287
-620,-3714,-1181,-38,434,361,284,158,123,90
-583,-3059,-1152,-354,220,186,77,141,-325,-6
-307,-1890,-739,-227,-111,64,114,185,-60,39
-83,-1087,-562,208,134,124,201,190,309,99
47,-589,-317,-192,174,118,89,108,335,150
166,28,276,-296,-87,-17,-48,-10,282,104
258,998,983,193,-87,-97,-140,-99,225,-43
186,2347,1210,674,-40,-199,-347,-422,-132,-248
379,3948,1227,467,-312,-310,-489,-578,-321,-263
575,4856,1507,607,-430,-325,-446,-484,-319,-214
391,4653,710,647,-78,-402,-528,-595,-482,-420
-64,1657,47,-54,329,-173,-303,-441,-416,-445
-168,-1739,145,-433,422,132,54,10,-15,-75
-250,-4182,-1151,-775,-15,100,219,382,358,243
-356,-3208,-1150,-462,18,250,359,484,293,271
-243,-1413,-121,-341,-94,128,315,197,159,82
0,56,501,-22,-161,-127,-16,149,-592,43
-39,230,209,-38,-239,-199,12,26,-189,-44
58,639,-476,-301,-138,-214,-166,-57,-52,-64
211,2193,147,205,117,-331,-513,-261,-584,-223
255,3282,923,306,-105,-430,-440,-314,-547,-334
385,3525,1074,90,-120,-383,-210,-199,-308,-278
360,2453,1106,105,-284,-362,-58,-107,-231,-145
-135,17,920,687,163,53,134,-19,42,-88
-724,-3246,-770,-57,156,239,231,119,159,-99
-554,-4171,-1525,-643,-42,252,440,401,539,250
-143,-2552,-777,-245,268,495,445,505,516,315
-90,-2198,-720,-209,208,367,208,331,377,276
-117,-1831,-746,-31,243,216,145,287,44,176
-3,-1287,-886,-281,3,-69,-108,193,-176,199
136,-774,-783,-327,-166,-48,109,177,322,292
160,-439,-497,-303,-354,4,251,89,271,266
159,-196,-146,-30,-252,-110,75,-19,132,196
92,6,96,201,118,9,-114,-22,229,126
71,622,123,101,-35,-4,-261,-92,178,54
104,1792,263,220,-190,-107,-302,-324,35,-109
116,2722,857,180,-10,-142,-247,-475,-304,-368
128,2506,2135,466,195,-99,-80,-437,-490,-455
-71,1958,2541,1132,251,-232,-401,-701,-622,-554
-213,163,653,1242,89,-182,-331,-250,-171,-249
97,-1287,-916,333,-27,82,162,474,632,364
197,-1253,-2048,-1069,-238,170,478,661,735,489
-109,185,-1468,-641,2,140,295,249,38,112
-38,1325,-353,-560,116,136,36,-58,-36,0
-8,603,576,-411,6,175,137,27,90,10
-192,-1576,-134,153,109,137,148,7,-55,-22
-253,-2752,-1040,152,331,257,227,106,136,120
-76,-1580,-549,-524,67,222,238,253,356,202
87,342,242,-196,49,138,177,294,125,134
89,1770,753,107,2,8,66,34,-52,-82
144,1798,989,176,-138,-213,-249,-247,-283,-176
312,1685,1092,219,-141,-225,-232,-63,-226,-39
301,1665,673,122,-132,-209,-140,105,21,32
-11,239,256,154,-37,-157,-159,6,148,-45
-262,-1988,-456,-51,110,152,258,212,330,38
-418,-3075,-1306,-121,142,260,504,362,428,27
-545,-3045,-1159,-53,160,282,554,372,289,-28
-381,-2108,-717,-114,126,356,543,334,287,86
-221,-1302,-474,-3,156,315,351,232,253,124
-59,-726,-547,-210,-11,178,144,95,239,159
136,29,-470,-330,-114,51,-8,-20,233,234
162,496,-87,-85,-53,43,133,-80,76,134
221,661,169,-155,-117,151,283,-62,-5,48
312,1223,500,-26,-255,38,-112,-127,-40,47
132,2119,575,502,-60,-92,-302,-204,-350,-31
225,3285,805,390,185,-147,-241,-220,-383,-40
323,2861,1143,116,54,-278,-241,-437,-289,-122
321,1061,1035,183,-258,-348,-395,-531,-243,-78
278,-811,821,276,-279,-318,-286,-283,-99,48
77,-1384,521,55,-168,-150,96,-110,-113,-17
-157,-1672,-275,-24,204,129,335,39,-24,-22
-268,-1919,-1158,-27,259,108,259,150,-47,23
-214,-1394,-927,-62,-58,30,224,149,-17,42
-169,-813,-126,481,6,115,368,226,154,46
-136,-714,-60,709,202,81,239,151,65,-4
34,-519,8,174,-53,28,-65,-65,31,69
37,-557,-410,-398,-98,184,-351,-169,-2,52
223,-150,-426,-629,56,104,-225,-24,125,143
399,386,-225,-420,363,180,51,155,283,237
109,150,-221,-183,312,245,106,143,143,105
-145,-120,-407,-177,97,144,112,89,-24,-114
-238,75,-294,-104,99,194,176,55,-102,-201
-154,1083,73,-128,-56,46,-66,-89,-168,-227
56,2065,830,-22,-319,-171,-227,-95,-176,-204
333,2004,961,64,-437,-240,-172,107,-31,-27
355,1918,1020,894,11,-280,-348,70,-38,-36
-114,1584,947,922,214,-281,-510,-224,-329,-317
-287,1090,531,507,57,-174,-316,-253,-298,-327
-203,-352,263,720,491,116,22,-107,-37,-92
-266,-2501,-1086,-646,-219,-75,-88,-55,156,70
-308,-3152,-1521,-1064,-300,45,-4,140,289,205
-138,-1948,-767,-366,381,338,237,302,171,229
136,-308,-303,-484,103,133,22,59,19,154
179,-15,49,-271,-57,-29,-50,51,163,136
78,-336,255,-55,-45,-30,37,204,124,90
-83,-146,930,237,93,113,120,130,86,71
-245,254,1050,222,36,87,17,15,68,4
-128,98,138,123,161,132,166,206,95,46
2,-94,-542,-121,102,11,231,114,-36,4
-130,-33,-413,-138,-132,-246,-18,-108,-108,-185
12,533,-681,-117,-166,-295,-166,35,110,-147
119,787,-442,443,215,13,-100,31,77,-129
161,1324,805,432,-233,47,20,-61,-57,-95
204,2251,1207,133,-700,-110,2,-44,-96,-73
126,2045,545,476,-216,-158,-114,-74,-228,-230
302,887,-243,-300,-250,-310,-351,-245,-210,-124
220,-763,-563,-424,-70,-300,-379,-214,-40,43
-36,-936,716,327,563,-48,-214,-143,5,-16
100,1645,548,-472,-424,-102,-212,-299,-115,-140
12,1804,775,-47,-333,-80,-108,-69,-148,-178
-191,-175,361,270,278,-47,-159,86,-520,-127
-237,-2724,-1155,-152,486,95,-80,228,-449,175
-168,-3405,-1885,-669,-97,252,257,255,363,391
-75,-2831,-1496,-580,-252,221,200,111,423,352
-185,-1393,-450,167,356,226,122,-128,131,-16
-150,1579,607,834,363,119,44,-224,-210,-277
342,5134,1268,707,-311,-173,-214,-298,-276,-205
538,4002,1146,-61,-462,-246,-126,-221,-119,-34
322,793,552,211,156,-66,201,0,31,-5
-92,-2295,-1366,-626,147,-159,56,30,39,-56
-359,-3251,-1477,-739,66,-87,-242,20,35,-66
-170,-2323,42,394,475,173,45,238,288,126
50,-1724,-14,-104,193,228,291,387,495,293
-145,-1832,-409,-537,-51,380,388,354,344,211
-228,-1231,-121,-163,129,382,165,148,120,1
18,58,-16,-120,0,42,-52,10,6,-33
180,1321,268,29,-88,-152,-52,79,-44,-45
163,1518,586,359,-43,-160,-74,39,28,-28
158,679,497,267,36,37,-36,112,244,166
-4,-375,-351,-267,-72,66,52,103,218,134
-211,-1261,-413,-386,-344,-161,-65,-10,-85,0
-55,-1195,592,261,-366,-247,-70,150,34,132
-125,-1161,228,598,53,-24,114,84,13,0
-215,-925,-690,185,437,317,359,21,-101,-132
102,-90,-962,-826,148,147,177,-52,75,123
102,618,-311,-548,-76,-118,-259,-363,26,56
72,1271,98,1,-17,-60,-117,-42,8,-104
172,1198,228,-37,-91,-12,150,195,53,-41
123,1174,209,11,-195,-127,-99,-298,-104,-31
8,624,291,57,-238,-180,-192,-301,-164,-76
-68,644,978,157,-115,-93,-19,-94,-149,-89
69,722,497,109,-49,-113,32,-73,-96,-8
30,14,-531,230,-72,-212,84,-90,-158,-93
-70,-824,139,1015,273,26,227,34,-64,-97
71,-1636,201,615,86,385,83,193,220,158
-113,-2049,-705,-67,3,259,-70,138,254,239
-270,-1606,-1306,-303,237,64,-150,94,202,140
-222,-720,-824,-450,211,136,110,330,186,88
-70,-106,-379,-665,30,164,252,307,142,88
113,210,-32,-457,-177,-17,50,95,116,169
93,225,246,-55,-63,-66,26,134,-67,86
107,570,212,13,74,108,220,147,-107,-27
332,1562,225,-81,-76,94,214,-72,-45,22
355,1704,376,-94,-171,-86,-38,-226,-81,26
111,747,446,71,28,43,-54,-171,-87,-43
-135,-85,535,244,137,132,-117,-175,-53,-80
-320,-868,223,81,27,21,-85,-64,11,-51
-276,-633,141,-18,-65,-45,11,-44,-19,-49
-114,167,1023,436,48,-122,-131,-260,-110,-105
30,770,573,528,217,-109,-111,-193,-28,-153
-29,362,-213,266,-69,-90,-37,33,-8,-188
-76,-262,-584,276,-654,-126,-77,156,42,-70
80,346,-351,689,-601,-131,-90,181,155,71
6,690,-263,238,488,-138,-273,-72,13,-86
-91,95,-18,-360,734,-7,-215,-102,-34,-137
-63,-780,125,-694,-48,95,76,99,108,-6
87,-1459,-230,-682,-210,164,253,255,274,186
60,-1194,-400,-366,-117,98,276,165,165,143
-17,-474,-463,-75,-56,81,404,144,-26,-27
-49,114,-60,257,14,2,445,5,-190,-125
-98,113,461,412,150,-2,433,-107,-359,-149
-165,232,736,262,285,-46,162,-157,-369,-178
1,915,917,-59,-85,-197,114,-110,-153,-70
342,845,460,-358,-229,-195,91,22,90,201
470,568,-278,-150,57,8,-297,-55,46,262
175,-12,-444,-38,208,95,-602,-253,-107,152
-170,-442,-553,-138,113,54,-623,-450,-193,-64
-171,-698,-436,-120,94,150,-176,-199,-64,6
50,-290,-239,-58,59,128,49,-4,64,149
121,251,-380,-116,-47,10,-20,83,84,137
21,519,-334,-180,-126,-46,-34,159,19,-1
52,562,-246,-190,-234,-125,-114,124,35,-83
58,253,118,-125,-367,-203,-264,-13,33,-87
0,70,47,-177,-434,-311,-396,-267,-161,-160
74,1096,1002,202,-62,-211,-323,-289,-219,-204
133,1544,1771,391,239,-84,-137,-119,-136,-148
67,295,-788,31,44,173,128,207,262,198
-128,-88,-966,-257,-286,13,67,143,121,4
-220,-51,-247,-139,-142,-92,-48,17,-160,-220
-269,-324,168,50,337,-102,-249,41,-759,-306
-156,-711,58,-137,134,-170,-300,64,-755,-210
67,-30,-181,-298,-58,-51,-85,75,29,23
248,2061,-171,-193,-119,-127,-262,-118,77,34
372,2501,180,-12,-42,-46,-200,-154,88,69
279,1141,1179,616,264,109,95,-5,88,68
21,-1209,590,661,155,-78,214,27,113,-16
-185,-3349,-990,67,-115,-139,486,249,349,147
-342,-3207,-975,-84,-2,152,422,311,399,271
-291,-2128,-833,-26,205,470,132,154,174,106
-291,-1526,-688,28,444,482,-9,-44,0,-59
-237,-966,-239,-279,148,79,-172,-75,-18,-83
-126,-652,-154,-400,-19,78,60,101,86,17
-100,-315,95,-105,58,145,91,24,80,-25
-121,-11,202,124,148,105,-68,-65,-10,-121
-246,60,92,16,59,31,-141,-118,-180,-185
-139,198,16,-184,-72,-25,-105,23,-80,-64
-89,529,577,136,-159,-120,-133,108,-26,-54
-154,878,1043,836,-233,-364,-375,-187,-184,-232
-148,685,1216,1023,-150,-385,-421,-297,-208,-217
-49,120,1061,546,47,-146,-239,-42,-168,-45
-101,209,379,193,200,-21,-109,-127,-182,-200
-21,517,-376,-140,-22,-44,-60,-194,-84,-163
154,562,-413,-521,-224,-55,-4,3,141,67
129,63,-40,-818,-429,40,129,257,255,169
-65,-996,-573,-412,18,298,431,401,202,124
-75,-1157,-831,-63,462,382,427,163,194,192
87,-389,-535,-162,78,104,163,65,177,241
161,-67,-445,-198,20,5,86,89,157,173
340,303,-340,-323,-30,49,190,160,230,187
337,398,-176,-358,-318,28,153,50,176,185
70,304,-149,-147,-299,-63,-109,-299,-99,32
-58,720,-78,-38,-32,-214,-270,-522,-301,-170
102,1326,448,54,21,-269,-77,-366,-217,-117
316,1465,382,153,-110,-182,299,65,81,113
191,760,31,376,60,88,354,336,228,161
48,285,95,486,410,401,28,165,150,93
59,178,178,-164,43,208,-51,48,143,143
-61,-10,593,-160,-241,-27,-80,31,77,24
-146,-285,770,94,24,4,-64,118,48,-37
-86,-410,-158,-129,105,-115,-231,334,8,50
-116,-615,-834,-338,-90,-188,-117,544,76,39
-48,71,-600,-321,-146,-74,95,351,121,32
113,492,354,-52,-20,60,156,136,69,58
99,69,832,205,58,129,179,15,4,15
57,-92,485,153,-219,15,42,-216,-89,31
-3,513,-56,206,-217,-112,-84,-286,-262,-72
-236,513,-361,277,307,-93,-194,-253,-509,-347
-77,1260,181,-99,-26,-216,-128,57,-240,-282
26,992,649,-86,-169,-182,7,504,71,-155
-67,23,753,273,79,-9,103,750,256,-136
-105,-683,-284,206,158,21,156,798,303,-117
-174,-929,-862,184,249,97,227,614,217,-52
-86,-578,-846,-115,170,194,280,278,310,126
87,-82,-12,-255,-39,116,90,-117,229,231
94,-524,527,166,-52,30,-115,-584,1,202
134,-1234,-90,348,-21,133,18,-590,-43,277
-75,-576,-211,-77,8,-97,-180,-544,-243,-92
-31,-336,-325,-24,-10,-144,-202,-431,-91,-82
-79,-262,-508,-32,-7,-181,-137,-10,-117,-112
-214,82,144,210,35,-219,-162,119,-115,-224
-138,490,819,412,104,-204,-291,-32,62,-123
102,655,564,379,79,-162,-110,154,215,10
273,-2,-511,26,174,143,242,168,266,219
183,-509,-888,-346,148,429,550,69,186,299
198,529,-207,-343,-24,311,436,-84,44,222
136,1247,362,-121,-52,87,68,-282,-162,20
74,976,763,112,20,46,-142,-388,-293,-136
181,649,747,131,31,114,-69,-337,-207,-17
149,-57,27,157,85,142,25,-202,-50,33
4,-676,-597,-23,-28,26,-51,-156,-30,-42
-153,-738,-580,-201,-366,-211,-128,-180,-145,-116
-239,-464,-448,110,-316,-250,79,-102,-237,-255
-195,-116,-134,354,177,92,436,86,-137,-197
-48,-119,94,39,146,165,549,335,65,-20
116,-258,272,100,3,-58,328,380,150,137
71,-231,36,-393,-191,-358,-276,-101,-122,44
11,-84,-164,-167,83,-184,-488,-387,-59,-41
-23,-109,-120,271,176,-15,-412,-305,-62,-87
101,-80,-90,-68,-276,-108,-209,38,86,68
106,373,349,-169,-532,-221,-59,295,151,105
107,1906,528,-230,-215,-92,78,312,69,-9
85,3214,219,-331,88,44,92,122,-237,-211
183,2322,568,-98,82,33,152,112,-256,-139
377,917,938,-46,10,35,35,11,18,52
469,-630,524,-124,-65,-70,10,-194,211,233
12,-1614,-357,160,-84,-112,130,-393,69,60
-210,-2168,-1109,83,-177,-9,178,-261,122,114
-206,-2072,-690,195,217,271,-211,-210,113,136
-138,-1416,-247,163,399,296,-281,-238,-2,106
-163,-1070,-42,45,309,268,-23,-125,-52,46
-105,-780,110,-65,32,169,-31,-57,-81,60
-63,-363,351,408,1,11,-120,-89,-164,-2
-203,-228,61,544,296,40,-90,-183,-194,-135
-171,380,-322,-85,397,139,-12,-145,-22,-114
-84,1134,-243,-509,23,-26,-124,-68,-30,-81
87,902,-145,-383,-252,-235,-301,144,24,68
144,408,-236,-163,-137,-99,-95,269,199,116
-14,-276,-362,-69,-115,-93,-90,44,46,-13
-14,-679,-134,-3,-223,-124,-152,13,76,-12
25,-958,-214,-247,-256,-31,-4,294,82,88
-12,-1121,-584,-206,88,167,243,377,220,178
-91,-779,-539,-46,318,140,122,98,55,41
-210,-433,-260,-4,148,25,-6,-25,-240,-129
-190,-213,120,104,120,85,88,-28,-88,-129
-52,-103,196,129,145,132,79,-65,-8,-25
39,-23,-114,190,109,43,-18,-170,-28,-29
172,508,219,283,134,49,0,-156,24,-58
235,719,468,-150,-140,28,26,-70,88,37
116,378,334,-156,-227,-50,-5,-51,58,51
-79,384,397,200,36,-55,-110,-146,-77,-130
-39,765,358,48,75,-75,-174,-109,-6,-90
21,688,408,16,-121,-189,-133,73,42,-28
22,547,609,323,-147,-190,108,167,64,18
-84,156,436,343,-28,-28,274,123,7,-58
-197,-353,-87,233,22,44,139,158,-102,-104
-119,-457,-650,-258,41,2,-161,192,-226,-31
14,-333,-581,-375,24,-11,-235,8,-28,26
105,-392,-303,-370,-116,-48,-184,23,129,105
24,-597,-244,-301,-129,-15,-9,130,204,102
-16,-504,-349,-232,-85,83,79,48,192,76
2,-69,-305,-200,-89,11,103,68,113,38
140,609,62,-44,-45,-95,289,72,15,-76
228,1013,149,92,-122,-274,215,-132,-74,-99
40,1530,378,306,-117,-363,-192,-330,-274,-266
-131,1831,1132,676,141,-108,-567,-477,-427,-429
11,998,458,229,53,-100,-470,-300,-164,-157
20,297,-519,-354,-474,-389,-522,-262,-57,-39
-73,465,-95,264,25,-71,-127,-87,43,-33
27,152,301,249,603,423,253,103,290,115
159,-927,-451,-654,31,266,174,207,436,315
3,-1635,-470,-517,-211,55,114,137,257,254
-94,-1211,10,-41,-105,-26,23,-11,9,66
-101,61,253,78,18,121,93,-195,-158,-58
-17,1568,142,-229,-48,121,63,-305,-187,-111
-21,2254,116,-290,-224,12,28,-221,-244,-205
-86,1257,279,68,-306,-118,-61,-95,-438,-282
-107,-840,80,170,-249,-168,-90,153,-107,-158
-198,-2569,-729,-389,-135,-41,89,605,315,133
-421,-2679,-1068,-543,86,102,316,877,454,104
-441,-1698,-425,-136,258,139,379,853,395,-46
-176,-966,-110,60,182,110,337,803,436,56
-63,-803,-350,-93,85,88,172,414,307,98
0,-710,-398,-186,70,141,53,-141,85,105
180,-178,54,476,386,165,-29,-456,-112,127
354,430,640,828,550,123,-107,-514,-178,122
354,402,784,300,226,85,-85,-411,-142,183
184,202,626,76,32,64,-61,-467,-283,119
148,561,446,-67,-74,-40,-166,-528,-300,40
153,930,18,-163,-111,-110,-199,-366,-205,-16
29,725,10,18,-152,-174,-156,-226,-197,-142
-9,291,344,260,-54,-171,-117,-149,-101,-97
-20,-216,325,344,166,-18,41,175,136,37
-17,-489,234,200,-42,10,209,570,253,139
-5,-231,262,151,-266,133,234,403,123,91
-39,398,498,0,-350,69,-9,-92,-162,-99
-25,942,396,-147,-56,-170,-278,-268,-435,-210
-3,649,-175,-35,303,-110,-218,-178,-210,-119
25,82,-520,-77,272,-25,-58,81,67,43
10,-205,-385,-175,-48,-48,-9,222,154,73
-67,-340,137,256,-32,-28,1,147,115,51
-58,93,12,294,119,75,59,82,72,84
135,787,-102,-396,-101,-14,47,160,21,143
350,1274,347,-312,-273,-88,2,122,-77,198
264,1638,-38,-31,-34,-27,-23,-67,-200,44
164,1627,-770,-452,-155,-164,-184,-255,-171,-38
180,1163,-282,-335,-194,-311,-328,-243,-72,12
139,233,221,3,-7,-148,-57,-12,132,13
-111,-1279,46,-24,164,159,348,198,165,-79
-286,-2025,-348,43,195,293,400,147,57,-85
-241,-1578,-487,46,97,181,253,27,11,-74
-164,-1025,-651,-126,32,76,138,45,36,-25
-154,-744,-221,-61,55,57,151,92,9,-46
-141,-739,59,16,63,68,197,51,14,-58
-80,-826,34,136,153,121,135,-6,65,-5
-91,-760,-114,46,91,72,29,-66,-53,-8
-106,-537,-286,-51,14,43,55,-36,-156,1
-86,-260,-465,-198,-53,22,198,-16,-2,4
-70,-108,-205,-172,-96,-74,179,-34,-6,-16
-41,75,433,135,-105,-93,-118,-111,-64,-43
32,270,803,522,-71,-109,-323,-90,-37,-14
-14,832,752,735,175,-132,-262,-76,-126,-173
35,2063,1425,992,447,-100,-370,-277,-239,-377
170,4896,2904,288,-965,-1031,-1283,-894,-691,-650
256,4723,2411,180,-1182,-1111,-1078,-1008,-742,-663
565,2217,352,224,-416,-376,-116,-255,-224,16
314,-1174,-1255,-164,484,189,384,428,-143,380
-226,-3339,-2732,-1409,171,391,708,628,303,348
-509,-3857,-2258,-949,255,691,1042,603,586,309
-513,-3192,-1445,-113,438,640,734,273,444,245
-367,-2218,-1035,-39,273,474,510,155,305,173
-80,-1350,-826,-316,-19,217,400,252,354,237
1,-818,-528,-214,21,107,-184,133,271,199
-57,-553,-233,-56,112,178,-253,150,128,87
-36,-335,-29,15,40,180,-53,285,-33,60
51,203,114,472,187,46,-111,341,-41,29
175,1625,374,729,203,-118,-201,265,55,-61
427,3318,619,177,-247,-159,-43,249,154,21
468,3585,565,-9,-288,-171,80,148,112,4
261,1959,525,219,-29,-158,59,101,16,-90
-19,-347,391,180,148,106,93,144,32,-61
-167,-1163,-110,-412,-227,48,-153,-68,-11,-70
-81,-366,338,-340,-118,-126,-230,-206,30,13
91,211,746,0,236,-78,-105,-263,71,56
108,-468,-110,-4,191,-11,133,-195,27,-34
-44,-1469,-855,-228,55,212,-59,-102,-28,-21
-154,-1978,-878,-243,76,327,-113,-70,-18,60
-171,-1627,-566,-119,106,255,63,48,31,58
-104,-1035,-308,-88,58,215,191,121,32,69
-1,-468,-17,-58,-77,153,91,-61,6,98
65,-203,66,168,20,71,-69,-192,16,112
0,-142,90,490,284,28,-122,-133,-40,23
-105,-92,65,293,205,44,-97,-81,-147,-90
-31,135,25,-70,-51,15,-33,-32,-88,-36
-7,329,303,-80,-140,-73,-36,-65,-121,-41
-72,141,535,109,6,-73,-38,-153,-324,-107
-67,22,1035,289,144,25,39,-68,-60,2
-17,33,627,254,89,-22,-123,-152,19,62
61,13,-323,-85,-106,-16,-152,-159,62,82
21,-32,-703,-455,-444,-85,-88,12,100,102
-55,-62,-621,-292,-365,-114,26,9,22,58
-129,-47,-197,65,219,55,203,-23,-19,-25
-49,95,81,48,283,142,340,89,14,9
22,183,80,-28,-6,-20,140,72,-26,2
13,199,41,-127,-122,-115,-54,147,-3,-31
111,370,36,-137,-115,-148,-176,297,177,63
312,1161,279,58,20,-81,-134,405,302,95
287,1254,302,200,111,26,57,432,227,22
61,524,87,-14,-21,-17,24,308,106,-15
-28,189,132,-77,-134,-110,-103,112,90,-41
-4,-59,382,176,-121,-131,-161,-8,123,8
79,60,382,217,-91,-94,-153,-88,59,58
143,356,25,-76,-31,-108,-229,-319,-65,87
240,1141,-78,-97,11,-173,-269,-396,-158,32
326,2485,180,-186,-238,-435,-447,-476,-465,-121
223,2274,738,-72,-158,-276,-366,-359,-532,-197
22,522,805,183,123,157,-13,-76,-228,-130
-259,-1436,244,321,158,233,315,144,-46,-62
-213,-2028,-350,-85,-110,195,397,174,179,162
-71,-1203,-704,-245,-178,92,347,207,334,296
-123,-837,-676,163,178,40,263,154,294,165
-132,-412,-186,283,421,156,262,103,225,-13
-185,-499,28,133,218,308,45,-32,66,-75
-218,-191,-65,152,-145,104,-172,-206,-112,-131
-6,624,-43,1072,39,-25,-176,-147,-65,-37
141,780,19,1587,629,82,-57,18,49,49
144,379,-243,-377,138,39,-1,182,124,88
29,-293,-78,-878,-228,-143,-71,233,148,92
-123,-827,-550,-569,-165,-197,-129,179,94,-46
-136,-850,-599,-651,-171,1,83,295,216,31
-17,-505,-290,-458,-406,-66,70,323,266,99
82,-335,66,-43,-268,-87,-28,174,250,129
57,41,57,9,202,41,-36,-59,65,20
-132,387,279,-330,70,-109,-177,-293,-232,-239
-205,577,1789,10,-160,-318,-350,-480,-532,-371
-62,294,2423,700,139,-37,-119,-440,-517,-210
49,-277,1144,898,323,156,47,-318,-255,-47
128,98,-285,325,122,93,29,-236,-209,-23
209,52,-1167,-371,73,143,95,-99,-26,99
180,-369,-1398,-754,-59,143,83,-10,130,185
42,139,-475,-496,-346,-53,-71,-78,61,43
-102,269,188,-75,-228,-115,-82,-20,-56,-106
-130,-14,34,153,277,-15,-86,-110,-157,-163
60,134,268,160,277,73,84,-55,-26,-59
236,299,275,-59,-182,-78,82,-37,146,72
159,0,-515,-51,-14,-119,-58,-80,185,166
-123,358,-621,176,314,40,-92,-151,-58,-111
-70,1014,-134,-110,300,219,-2,-101,-77,-149
-1,1138,752,-102,54,135,18,-22,24,-38
-36,186,282,-253,-272,-49,58,49,75,39
-60,-697,-229,-327,-202,-52,131,165,143,78
-169,-979,-103,-85,-16,16,141,269,193,45
-217,-1198,-458,-65,41,103,174,244,202,66
-51,-1024,-868,-219,-16,48,100,120,212,147
6,-666,-813,-270,-57,-5,33,-28,-2,93
-64,-252,-132,-42,-52,-35,21,50,-202,-28
-49,327,476,193,-45,-101,-98,-15,-107,-49
-1,446,578,79,-63,-166,-158,0,-199,-88
103,527,347,0,72,-107,-174,41,-109,-16
111,567,-86,-38,16,-99,-246,19,40,62
52,714,-156,-106,-38,-95,-181,3,40,18
108,597,149,-116,0,14,-56,-68,43,21
144,60,258,79,41,44,39,42,81,75
51,-458,123,348,62,8,132,200,81,95
-186,-702,-236,81,-48,2,252,147,3,-28
-252,-318,-371,-287,-516,-128,585,278,48,-116
38,119,-60,68,-686,-244,1024,572,239,4
64,-122,12,709,-34,-218,861,412,152,3
-258,-528,72,543,655,307,107,-32,-132,-174
-151,3,-158,96,379,442,-312,-140,-88,-69
-52,483,-425,-24,-48,81,-600,-249,-79,-50
87,893,-136,-584,-491,-265,-558,-153,27,27
39,135,-361,-313,-202,-202,-367,-43,85,24
-33,-737,-125,389,332,54,-121,-22,103,11
-75,-1433,-168,-129,266,141,-24,85,158,94
-169,-1539,-521,-298,216,88,-150,177,136,91
-185,-890,-379,115,265,113,-25,299,236,23
-167,-513,-237,-333,-58,103,181,486,152,-51
-64,-300,-150,-489,-131,100,146,435,87,-10
5,-106,-113,-214,-30,37,34,338,133,31
98,436,204,-41,33,9,-10,221,161,25
236,887,497,86,89,-30,-51,58,150,27
118,423,400,-2,19,-52,-40,-114,8,32
62,-13,223,-46,13,7,37,-231,-114,37
50,36,394,279,140,27,9,-438,-285,-4
45,237,654,635,197,5,-66,-688,-432,-42
20,190,850,756,253,73,-59,-619,-360,-1
138,35,173,240,64,8,-81,-323,-46,176
311,175,-571,-536,-245,-89,-36,-36,207,270
82,170,-370,-364,-39,67,104,-117,-87,54
-11,174,-66,-62,30,219,198,-328,-298,-23
160,605,391,127,-197,150,73,-342,-164,104
170,1022,841,305,-117,-48,-77,-94,-74,66
-65,753,700,129,162,-198,-91,-189,-186,-127
-134,408,489,82,137,-245,-72,-211,-234,-161
-38,495,628,247,-121,-354,-494,-205,-359,-180
140,1158,728,207,-130,-128,-645,-278,-194,-164
278,1116,316,148,4,108,-246,-154,5,-9
277,747,-195,-41,197,119,-205,-177,139,92
-41,83,-799,-397,-4,-87,-244,-10,131,5
-421,-662,-844,-381,-177,-155,-60,309,153,-103
-270,-622,-219,82,-45,100,298,540,314,78
-55,-848,-189,174,61,326,509,579,359,169
25,-968,-461,-139,73,245,343,461,339,107
-49,-883,-456,-343,75,57,83,216,247,1
-86,-1012,-478,-284,44,48,83,146,196,71
-20,-677,-369,-135,40,99,76,-2,166,154
7,-124,-174,-21,87,140,44,-70,109,139
-24,88,-49,52,153,183,130,-19,26,51
-34,17,97,28,116,108,85,-66,-73,-51
17,272,505,61,28,-3,-34,-173,-125,-107
118,499,718,199,-10,-47,-108,-287,-153,-70
157,400,329,189,-31,-88,-150,-321,-178,-18
81,669,571,333,17,-117,-132,-228,-181,-71
10,952,1035,375,37,-166,-234,-304,-335,-147
83,1206,549,-317,-221,-294,-362,-437,-471,-129
108,1390,-107,-353,-310,-175,-133,-289,-266,-162
107,161,-568,-39,-212,31,165,226,-47,-78
34,-1210,-858,10,7,118,256,564,174,64
-280,-2087,-973,-151,257,144,231,401,127,4
-415,-2214,-785,-135,102,124,250,288,66,-47
-298,-1326,-293,48,27,65,139,151,21,-49
-233,-645,-311,317,190,-6,-15,-103,-104,-119
-211,-288,-183,340,155,-99,-144,-240,-165,-155
-66,28,82,7,-38,-105,-104,-98,-40,-53
10,608,160,-291,-512,-186,25,22,-15,-94
145,1403,354,207,-774,-308,112,129,23,-170
151,1633,741,146,-500,-307,93,61,-31,-169
-30,738,711,2,462,76,253,112,-39,-88
12,173,35,14,642,221,363,311,192,107
-17,-107,-600,-533,-18,10,211,216,194,97
3,-507,-239,-700,-323,-94,7,36,187,117
65,-797,-4,-285,-151,-30,-183,-77,200,168
2,-839,-242,-55,20,24,-163,-75,105,91
-64,-946,-498,-125,-22,-90,-272,-73,-100,59
-34,-669,-590,-144,-17,-36,-176,36,-24,68
-58,-415,-479,-76,46,143,149,121,55,9
-60,-337,-456,-71,55,188,241,181,22,-28
21,-200,-329,-86,35,193,259,392,29,6
78,-67,-166,-76,10,146,188,422,23,56
166,211,22,-10,0,24,-11,162,-49,78
219,411,235,41,80,37,-94,-77,-185,42
51,419,255,-1,38,102,12,-236,-116,10
112,1010,173,112,31,10,-65,-350,-184,0
107,1286,534,522,83,-175,-128,-427,-291,-107
69,1160,880,484,-61,-304,27,-303,-282,-146
147,1354,1059,196,-325,-315,142,-146,-173,-63
157,1406,1097,298,-192,57,-90,-138,-183,-89
351,1014,394,-57,-148,123,-154,-44,21,59
138,-387,15,-41,94,111,56,34,113,144
-240,-1439,-224,-39,219,88,124,-79,35,-2
-333,-1704,-522,-274,-115,-125,-124,-92,181,27
-299,-1261,-439,-160,-97,-111,-148,200,166,-25
-198,-762,-562,-51,75,66,-99,124,-27,-105
8,252,-187,-290,-42,-61,-162,230,132,53
-116,820,611,144,80,19,-31,222,124,-98
-94,1324,589,359,285,25,-158,-106,-436,-191
36,1650,155,253,242,-130,-475,-450,-807,-153
143,754,65,220,-55,-152,-372,-445,-57,14
30,-775,173,207,-248,-28,-59,-88,176,70
-204,-1901,-134,-52,-308,19,128,25,49,-36
-145,-1642,-202,-609,-289,-162,-86,-181,-61,-43
315,-2,-71,-632,-124,-28,13,80,260,184
463,1240,-200,-118,68,84,191,147,319,197
189,943,-185,114,159,103,187,-85,16,70
-155,-212,-361,259,412,243,125,-110,-143,-85
-306,-1284,-405,314,513,370,184,-65,18,-77
-378,-1541,-367,91,258,273,174,-111,18,-88
-198,-1046,-466,-297,-36,117,123,-60,96,8
4,-411,-279,-393,-256,-53,61,96,144,57
56,-246,-186,-383,-295,-33,106,382,226,103
-31,-276,100,47,-60,78,158,377,204,70
-38,-103,-9,534,212,66,58,80,24,0
76,116,-1,462,72,-67,-76,-37,-188,19
100,286,634,890,262,-21,-34,-20,-183,12
23,467,626,977,472,48,-40,-191,-163,-91
72,696,60,-514,-437,-205,-133,-280,-73,-81
273,922,184,-870,-908,-447,-172,-222,16,-27
308,1275,846,676,-135,-332,84,-131,-81,-96
109,1141,1353,862,639,88,309,-8,-91,-144
3,476,882,-213,85,-34,17,53,22,-24
-94,-366,-637,-832,-266,-3,-105,169,226,158
-289,-1033,-1397,-660,-178,177,27,162,208,102
-170,-1023,-1124,-478,-75,354,215,167,182,133
-23,-590,-721,-304,95,332,221,124,160,104
27,-176,-387,-104,181,226,199,177,191,26
-29,-203,-151,20,117,149,221,270,141,-2
-53,-384,-141,-14,-19,122,197,279,78,39
0,-467,-317,-168,-259,77,191,241,108,111
-2,-408,-280,-78,-255,33,148,121,74,105
-30,169,-58,206,131,-4,27,-64,-28,-10
95,896,210,104,135,5,-79,-180,-36,-3
177,892,302,-26,-244,-100,-213,-249,-2,31
-60,-58,85,55,-87,-167,-313,-310,-236,-38
-186,-873,-366,-147,83,-183,-281,-172,-152,-29
-96,-837,-454,-331,-137,-254,-222,100,73,74
-107,-379,-104,-239,-110,-258,-256,328,132,53
-142,-119,193,24,4,-82,-80,332,78,-47
-31,-104,-45,70,94,126,120,275,81,0
143,115,-161,84,88,83,96,298,249,67
281,490,76,0,-93,-16,103,377,412,124
171,393,123,-146,-87,49,203,311,290,137
59,350,79,-62,176,100,96,-87,18,54
90,543,303,190,165,-18,-139,-494,-191,57
14,461,297,411,87,29,15,-450,-326,-26
-37,909,241,326,-39,93,61,-452,-344,-75
97,1655,713,280,-76,-33,-168,-500,-298,-47
329,1325,1168,225,39,-178,-314,-393,-127,53
206,-158,437,-1,215,-71,-118,-164,-14,134
-109,-978,-434,-296,29,9,54,-182,-128,-23
-204,-555,-503,-167,93,214,176,-168,-158,-117
-51,-46,-84,-13,52,172,116,-86,-6,-44
-16,-397,265,-183,-133,0,25,-71,53,-3
-215,-1137,171,95,89,28,0,-8,-144,-80
-318,-1142,-126,523,251,22,-51,96,-303,-186
-272,-848,-487,511,237,-8,5,194,-169,-172
-169,121,-417,402,243,22,104,239,42,-116
-24,1206,-113,95,90,-20,35,145,147,-36
61,890,95,-9,-15,-128,-86,104,201,58
85,-64,-51,-346,-233,-144,31,342,188,143
12,-441,-25,-712,-452,-121,45,166,-105,81
118,320,138,-471,-391,-192,-181,-220,-96,16
359,1072,296,203,79,-181,-282,-186,-91,-13
384,746,283,480,284,-55,-152,-109,77,2
123,-322,-149,-19,-13,-10,-26,-67,136,38
-162,-1241,-549,-219,-171,25,2,-46,122,-1
-213,-1256,-783,-280,-279,36,65,75,185,24
-253,-843,-658,-319,-465,-19,132,219,149,-64
-367,-703,-371,110,-265,11,179,198,-6,-210
-276,-409,-124,605,340,148,293,206,-20,-168
-187,-292,105,421,474,134,228,167,-14,-98
-64,-133,274,-519,-224,-50,160,294,99,-9
118,232,300,102,-239,-96,161,320,129,49
97,525,253,928,565,-52,1,-8,-177,-77
60,385,185,-164,266,-174,-306,-200,-242,-74
39,-7,-8,-662,-194,-164,-345,-157,33,72
-59,-38,-135,-292,-196,-118,-216,-150,-62,0
-97,194,117,-242,-129,6,-67,-292,-229,-125
-47,164,247,-206,-37,129,125,-277,-182,-115
44,95,276,-35,90,180,197,-94,-6,-5
45,208,679,197,121,58,-42,-193,10,-3
196,591,730,151,-54,-66,-135,-190,96,109
287,846,314,115,-115,19,-21,-99,208,222
148,651,57,472,121,121,68,-264,85,111
106,205,-427,184,18,-145,54,-227,-133,-21
178,-262,-681,-551,-330,-366,129,40,-27,20
-149,-919,-618,-450,-230,-133,256,162,104,-44
-443,-1224,-522,-112,-43,233,-11,193,36,-195
-365,-910,-468,-255,150,207,-33,576,216,-152
-304,-599,-439,-506,-80,-2,27,962,425,-116
-296,-384,-375,-129,12,-21,37,1004,489,-135
-244,-102,-107,249,60,-8,45,758,341,-133
-136,157,231,305,-107,-69,-8,303,-61,-99
-13,411,571,68,-64,-60,-98,-363,-355,-39
162,640,628,-116,209,-20,-247,-1005,-366,56
265,809,212,8,193,-7,-234,-1088,-283,70
233,694,-161,-56,110,19,-71,-726,-189,58
105,383,301,129,-43,1,121,-400,-190,8
89,52,323,571,86,0,114,-37,-162,36
74,-117,-261,475,400,93,86,414,-41,24
88,-245,-295,-303,20,45,270,650,188,101
142,-321,155,-160,-210,20,327,432,335,313
170,30,244,182,-14,212,88,174,200,262
142,321,98,214,318,328,-49,-36,-20,104
97,41,-106,201,509,337,13,-304,-115,17
104,-298,-263,2,308,299,18,-434,-86,55
129,-384,-226,-131,175,233,34,-346,6,124
225,86,174,60,7,31,-10,-248,77,162
91,212,259,134,-34,-46,-12,-282,-92,80
13,412,43,-16,-110,-116,-9,-288,-169,-5
173,1252,176,-249,-329,-304,-28,-202,-135,64
212,1891,514,77,-53,-177,-102,-258,-193,28
60,1150,476,240,97,-5,-260,-370,-226,-77
-180,-69,239,112,-60,-96,-455,-453,-402,-217
-290,-1050,202,14,-192,-170,-331,-297,-238,-206
-290,-1337,-281,-125,-184,-163,-121,54,-6,-137
-77,-1002,-604,32,2,-39,48,429,214,74
-28,-169,-220,-201,-275,-90,39,674,310,82
-78,1011,747,-319,-580,-198,-56,547,166,-121
-9,1959,1408,323,-118,-138,-44,345,-64,-235
193,2031,789,179,150,-216,-187,71,-285,-203
287,869,-55,-367,-4,-161,-153,-164,-46,-65
326,-142,59,-54,79,63,-7,-217,155,138
-13,-1334,248,126,47,204,113,-109,166,191
-236,-2119,-11,-158,-199,253,290,81,247,266
-293,-1771,-661,185,40,253,289,-13,88,127
-242,-1173,-1153,775,529,182,61,-202,-69,-4
-68,-520,-901,352,697,227,36,-72,22,46
55,99,-416,-262,158,216,170,90,73,85
196,527,44,-569,-438,66,190,46,36,121
122,214,-116,-329,-531,12,226,39,-39,110
51,-2,-325,-180,-201,-35,160,-71,-10,63
-55,337,45,-28,153,-107,-402,-421,-280,-140
77,652,294,65,-41,-57,-284,-379,-201,-47
192,521,22,-45,-135,-96,-133,-257,26,109
6,21,-243,-53,134,-242,-340,-236,-65,-15
-239,-628,-347,180,179,-100,-253,-95,-127,-153
-386,-1062,-317,199,89,23,-155,19,-3,-156
-343,-1233,-442,-252,-34,-135,-230,230,16,-66
-136,-960,-584,-482,-186,-243,-130,622,181,18
-258,-445,-313,261,260,140,413,756,24,-169
-130,-77,-363,26,148,180,448,679,215,-51
111,501,-48,-25,-38,-11,129,218,144,92
113,568,1336,161,-72,-23,-76,65,26,73
61,816,1252,251,-28,-139,-311,-321,-154,-9
205,1147,839,199,-81,-360,-600,-458,-702,6
258,571,408,194,-26,-126,-304,-377,-652,85
262,-190,-374,51,-43,272,184,-349,18,186
296,-89,-473,-143,-3,341,296,-345,130,179
330,432,-37,50,425,425,388,-289,158,64
180,12,-18,354,567,294,208,-295,-107,-28
-59,-767,-227,145,267,110,88,-139,-202,-36
-142,-1014,-388,-257,-7,34,39,82,-128,12
-75,-374,-314,-318,-48,78,199,291,125,74
-105,355,-244,-4,83,75,190,252,217,-20
-72,591,-190,-85,38,94,177,227,278,-19
13,342,-31,-118,-18,84,260,295,213,-55
-76,-371,-64,-113,-75,-50,143,167,9,-138
-195,-806,-257,-129,-148,-178,-29,56,91,-118
-154,-434,-303,-48,-201,-199,-69,194,204,-53
-105,359,136,477,2,-72,-35,260,240,-51
-80,735,303,370,10,-94,-115,288,194,-116
-74,551,207,-265,-215,-142,-152,229,98,-127
100,578,491,-154,-260,-89,-150,-67,15,-9
149,125,282,85,-95,-69,-155,-331,-94,17
-97,-928,-362,134,112,-111,-152,-297,-202,55
-122,-1057,-466,-305,-153,-45,-42,-14,-49,83
-17,-534,-23,220,-213,20,5,195,8,79
48,-151,208,356,139,87,28,86,167,73
130,-71,106,-334,118,165,201,37,282,149
186,144,221,-438,-3,138,191,-97,225,198
161,628,270,-61,219,27,-95,-426,-36,84
64,1063,196,36,268,56,-60,-185,-135,-26
-4,917,291,59,140,104,192,151,-101,-67
-50,129,270,57,75,0,285,279,-183,-57
40,-309,64,-11,-48,-150,211,219,-73,15
51,249,32,50,-67,-36,-282,-74,-99,-55
75,1155,304,340,42,46,-448,-161,-94,-85
101,258,580,178,149,23,-50,64,197,-29
-167,-1055,177,792,257,44,-13,29,105,-87
-299,-1271,122,742,188,38,92,80,-75,-140
-175,-822,-112,-622,-275,-219,84,214,-814,-125
-9,-47,-211,-1092,-438,-258,235,260,-694,-10
1,578,-477,-702,-272,-90,527,53,72,-33
125,-172,-569,-235,-85,150,161,176,234,10
-19,-955,-870,-333,-149,137,-220,210,321,92
-331,-1132,-665,-284,-128,-104,-428,240,86,-68
-337,-833,-376,-305,-159,-322,-376,452,-302,-114
-147,-73,-133,-182,-121,-202,-48,594,-89,-43
12,620,35,-13,-36,30,169,673,380,40
69,936,148,133,124,228,57,339,348,17
107,1272,645,396,174,217,-106,-248,67,-85
174,1329,1097,310,-156,15,-300,-734,-125,-77
250,640,409,28,-281,-25,-197,-730,-96,118
179,-462,-253,396,195,0,-62,-532,-197,210
162,-891,-727,16,264,116,-124,-444,-112,264
100,-590,-271,-40,133,148,-210,-284,165,211
-35,-280,153,161,292,243,59,-17,226,94
-79,-87,157,148,224,217,206,-37,163,-9
76,178,112,251,146,42,13,-120,187,-34
121,82,-63,246,142,99,122,-70,187,-20
4,-334,-284,12,86,221,251,-53,129,46
-9,-387,-331,-227,-10,185,165,-25,101,93
30,-121,-161,-352,-131,52,74,17,85,49
19,27,29,-89,-45,42,-22,-8,29,-4
-58,182,276,239,95,-20,-197,-180,-107,-125
-90,623,554,551,1,-152,-241,-212,-184,-221
-13,1394,894,645,-463,-254,-175,-78,-118,-168
15,1295,818,719,-401,-83,-17,0,-85,-134
-65,177,57,327,157,41,39,11,-70,-139
-31,-880,-741,-709,64,-71,26,148,91,14
31,-1157,-551,-470,-77,-11,120,245,280,194
47,-686,-426,-455,31,100,207,139,194,187
-9,-189,-208,-325,43,3,138,24,-100,28
115,280,290,63,69,-25,186,82,130,33
91,64,68,-60,-4,-111,-187,138,165,51
-84,-403,-415,-334,-129,-169,-189,287,156,30
-87,-277,-192,-225,-82,-50,11,297,177,29
-62,-22,57,-161,-59,28,81,138,97,-31
-42,211,118,-150,-132,-66,-65,-183,-7,-87
-33,448,-7,-164,-240,-245,-249,-207,-37,-87
0,742,178,-14,-243,-327,-239,161,-135,-143
57,1251,560,502,-74,-189,-45,100,-85,-216
70,1650,379,338,32,-45,-31,-186,-128,-203
260,1865,425,-411,-32,40,-121,-188,15,6
243,889,489,-13,3,78,-41,12,86,97
-167,-946,-139,433,86,72,13,63,-67,-85
-360,-1942,-367,35,-80,27,-5,56,-9,-87
-211,-1378,268,-39,64,-32,-88,-4,29,-35
8,-682,444,475,395,86,-3,-36,55,66
9,-599,-399,584,472,258,223,-50,-48,90
163,-376,-806,241,83,100,182,27,-73,157
274,-356,-700,-360,-189,-38,58,126,97,283
28,-551,-566,-788,-211,-26,-41,3,66,120
-187,-541,-339,-469,-41,81,30,-162,-67,-77
-154,-189,-51,-146,72,127,66,-225,-97,-95
36,617,173,-49,37,22,22,-188,-22,-60
261,984,89,-27,67,36,172,46,164,36
114,500,182,126,119,28,110,9,16,-24
-1,-35,-14,62,29,-91,-124,-153,-130,-69
-52,-444,-137,-98,-67,-64,-2,-40,-17,-4
-104,-276,-113,-85,-49,100,290,211,47,-3
-31,422,-46,-165,-192,21,95,54,27,3
-53,623,240,-11,-287,-148,-236,-142,-71,-111
-17,552,370,417,-101,-165,-171,3,13,-151
59,344,-28,-59,-177,-222,-110,208,240,49
25,-254,-511,-418,82,-119,-66,408,356,143
-125,-877,-550,-258,162,7,79,646,288,27
-165,-1066,-123,11,132,128,138,521,196,-11
-123,-817,227,64,22,80,174,260,120,-5
10,-173,220,106,-235,-102,189,-175,-78,8
250,413,152,158,-381,-249,118,-509,-80,141
255,489,-367,193,-34,-44,-168,-602,-54,102
10,494,147,319,580,320,-353,-508,-108,-66
26,645,831,259,267,204,-144,-229,-119,-86
215,262,547,-65,-170,148,89,66,26,130
115,341,370,269,-167,83,110,44,-89,41
-37,413,378,655,137,110,47,-134,-227,-96
-73,91,277,876,364,130,9,-161,-175,-91
-7,-363,-114,130,370,112,90,64,108,-7
99,-515,-557,-862,124,133,179,180,244,83
-18,-658,-516,-557,-6,104,134,105,94,70
-126,-634,-389,-214,-44,35,177,193,64,36
-142,-469,-317,-46,-32,-52,295,288,52,-17
-95,-246,-239,8,-18,-132,331,372,69,1
-83,103,-223,-142,-136,-157,33,349,25,-34
-82,423,111,-199,-288,-94,-203,157,-61,-139
-18,653,922,161,-162,-79,-160,-139,-115,-147
101,943,961,-70,-133,-117,-244,-391,-142,-72
167,1022,98,-696,-382,-246,-397,-455,-137,-10
176,1029,22,-180,-184,-87,-306,-385,-68,97
105,624,355,989,390,148,-126,-256,-76,101
5,-409,-316,572,513,239,-9,-78,-109,52
141,-53,-461,18,254,168,23,-54,-68,85
279,958,7,-61,218,97,8,-67,-42,7
102,626,228,-236,-3,-32,93,75,-53,-54
-120,-382,-19,-484,-323,-73,186,155,-12,-19
-137,-1081,-166,-331,-332,-45,87,230,136,83
-131,-888,465,184,-182,-148,-297,167,104,11
-158,-539,647,340,-99,-350,-363,92,-11,-159
-93,-26,686,406,-30,-232,-129,93,-6,-197
106,892,335,156,-30,-6,-10,197,62,-144
169,864,-91,-334,-202,-41,5,85,69,-55
91,-279,-647,-364,-353,-47,73,31,131,114
-101,-1306,-1028,-189,-136,19,69,54,104,146
-257,-1385,-414,42,186,101,-87,-199,-49,63
-197,-594,-61,-187,-111,88,55,-195,-114,10
-122,8,95,116,230,265,270,-246,-178,-52
-22,427,249,453,700,351,151,-380,-205,-57
171,186,-115,91,377,318,170,-139,40,171
72,207,-200,-236,-77,5,-29,-130,0,157
109,-18,-5,-144,-89,-93,-134,-110,-166,139
60,-563,-169,-61,36,-62,-153,-8,-325,139
-69,-904,-445,-55,102,-46,-149,-16,-545,38
12,-296,-164,231,156,33,58,44,72,55
97,114,5,291,137,-11,137,189,275,86
-64,29,-241,-190,-129,-153,87,140,93,-7
-34,430,-143,-470,-398,-388,-262,-70,-12,-57
33,420,47,-232,-170,-108,-215,-51,-52,-37
83,107,-148,-24,-9,125,48,65,-92,28
3,85,122,326,-127,128,143,94,79,28
-90,-24,512,157,-494,-32,126,132,106,-27
-22,-111,371,-36,-270,5,121,128,127,-29
-257,-408,-112,98,144,9,-93,-155,-147,-233
-296,-138,69,118,-60,-176,-300,-311,-252,-337
-177,249,822,567,243,-203,-425,-455,-258,-293
95,526,653,688,328,-164,-370,-289,-19,6
138,581,-130,29,162,-147,-305,54,251,168
-62,473,-262,-840,-141,-145,-133,234,183,-30
-86,-110,-310,-692,-94,139,385,332,72,-113
-67,-837,-664,-287,97,242,448,118,58,-16
-100,-651,-508,-112,100,131,390,202,125,11
-84,-147,-361,-55,34,29,459,362,169,-17
-85,-212,-259,-25,20,4,398,394,202,13
-147,-508,-310,-270,-28,85,-31,137,57,-49
-134,-629,-324,-272,-35,103,-23,109,39,-45
-77,-301,-193,-135,38,79,43,128,120,-30
92,216,-139,-258,56,65,109,162,257,10
106,324,-233,-368,-9,8,88,105,225,0
-54,86,-131,-54,-49,-46,-18,5,9,-62
-40,178,366,409,-5,25,3,43,-36,-20
47,194,393,390,92,92,49,109,48,69
26,-44,240,289,140,43,-35,75,25,58
34,-161,214,317,216,34,-80,-37,-18,55
90,80,223,221,207,58,-53,-108,-25,72
104,397,140,12,56,20,-48,-125,-36,89
114,575,213,-29,-40,-9,-126,-190,-85,102
140,292,141,16,13,26,-156,-217,-60,145
145,169,-53,-52,36,74,-42,-59,16,143
129,686,-251,-177,-26,49,-5,-89,-61,4
105,956,-19,-150,-55,-14,-63,-230,-156,-92
67,561,491,178,-12,-103,-72,-268,-220,-159
155,60,785,632,10,-258,-192,-243,-94,-82
-2,-375,619,801,153,-241,-286,-261,-78,-21
-58,-151,312,54,90,-76,-157,-65,-17,49
43,88,263,-372,-168,-24,84,130,64,100
41,-330,14,-278,-68,57,180,160,131,152
28,-824,-618,-229,-104,-121,-95,46,141,173
-99,-769,-892,-236,-113,-130,0,86,44,-3
-38,123,-184,-148,-267,-58,313,240,-60,-63
-54,464,44,98,-358,-165,292,211,-55,-86
-249,81,-252,548,225,162,-11,-77,-105,-196
-202,-148,-112,32,297,210,-119,-156,-66,-143
-153,29,130,-597,-188,-78,-143,-138,-45,-127
-101,-47,-34,-438,-184,-71,-72,122,93,-96
43,-193,-419,-281,-105,19,135,618,249,14
175,-152,-364,-132,-55,-10,124,674,174,56
147,496,94,133,-37,-122,-60,326,7,-53
127,1140,258,189,-64,-99,-25,116,-43,-81
8,754,237,45,-79,-52,52,25,-34,-113
-44,-89,55,-123,-104,-38,40,-51,1,-67
-18,-582,180,-174,-80,-26,49,21,76,51
-111,-579,765,138,-87,-46,123,133,9,-12
-30,-520,445,397,-126,-17,209,184,-30,30
56,-600,-308,355,66,104,-12,-15,-101,27
84,-516,-628,124,402,283,39,-239,-87,55
47,-527,-546,-155,437,420,299,-346,-65,174
113,-350,-339,-140,252,279,152,-499,-72,217
112,-174,-112,42,116,162,19,-499,-114,169
67,-67,-83,122,41,162,-39,-336,-75,114
58,-16,-44,73,-13,126,-152,-204,-45,106
79,125,63,230,219,94,-202,-234,-78,37
192,769,251,171,32,24,-114,-145,-25,32
117,1379,619,249,-268,-70,-115,-188,-102,-6
-43,1327,869,729,-83,-215,-266,-334,-244,-170
-74,485,320,621,406,-226,-228,-251,-242,-179
198,62,-422,-394,5,-310,-271,-101,-1,110
192,1150,124,-565,-466,-495,-643,-248,20,50
-107,1827,816,-10,-113,-499,-659,-399,-154,-273
-47,1067,963,419,182,-185,-182,-97,-37,-174
66,-748,40,78,93,91,311,343,191,112
-273,-2138,-808,-448,-200,60,255,229,119,0
-436,-2224,-876,-188,-97,66,76,53,51,-69
-337,-1453,-819,-100,69,252,224,58,16,-50
-105,-804,-647,-244,46,311,301,152,114,86
56,-217,-324,-255,71,164,163,156,175,148
62,345,-155,-315,-43,18,0,100,159,54
138,823,89,-300,-312,-76,-28,157,192,-59
136,826,243,-121,-375,-125,-69,129,108,-128
-137,123,96,205,82,-27,-113,-66,-135,-251
-167,-233,-81,222,370,13,-88,-24,-129,-164
-72,176,90,67,-31,-18,-5,122,74,46
-118,-32,-183,-88,17,83,128,159,156,118
-222,-508,-138,16,113,22,105,-11,28,-18
-88,-810,-346,-500,-232,-49,70,-47,28,0
-104,-983,-600,-377,-236,2,127,120,52,39
-69,-479,-326,364,95,25,111,335,148,86
156,633,237,235,224,58,-2,330,239,205
322,1312,350,-91,24,130,160,357,68,193
251,679,-52,-374,-191,120,194,70,-180,81
231,-98,42,-88,-241,105,103,-115,-146,172
104,-556,159,400,10,88,26,-213,-70,136
-55,-638,-69,371,420,85,-32,-233,-110,-19
-47,-262,56,238,425,148,53,-94,-96,33
48,529,513,198,-118,35,24,-171,-163,10
211,1164,770,147,-497,-54,0,-162,-107,82
186,854,496,-99,-441,-142,-93,-175,-76,78
-67,11,33,-190,65,-47,-103,-218,-187,-108
-99,-329,258,-30,228,-10,36,-88,-143,-116
-23,12,262,133,294,-43,191,47,-73,-159
40,226,-12,86,-24,-117,328,192,-6,-120
46,-168,-178,-84,-340,-145,371,317,100,86
44,-421,-372,-394,-188,48,404,317,182,190
-113,-764,-447,-358,140,183,270,199,104,89
-123,-741,-54,-107,94,8,-202,-40,74,66
-83,-483,-210,-80,-148,-64,-426,-109,87,70
-168,-299,-476,-88,-181,-137,-432,-243,4,-69
-236,-116,-83,-116,28,-183,-458,-303,-104,-217
-207,-224,99,-131,34,-96,-297,-121,-58,-160
-176,-411,-122,170,189,37,-81,88,103,-46
-206,-374,-421,46,96,35,92,410,171,-52
-127,-184,-512,-22,-70,-83,88,526,150,-51
-84,-72,-161,273,-25,-131,-45,376,58,-68
-24,49,74,445,252,48,74,331,62,-12
196,790,485,75,283,178,176,111,61,19
288,1456,400,-46,211,115,40,-267,-56,-15
216,1489,396,180,165,138,117,-471,-219,-7
255,908,365,-64,28,208,381,-386,-113,134
187,-88,392,-96,-102,113,366,-171,2,199
-21,-769,182,-136,-53,-8,-113,-75,-50,65
-119,-899,-193,-150,18,-23,-167,38,-18,8
24,-328,-118,-118,-26,-132,-20,176,111,82
187,433,-118,-67,-53,-254,208,308,200,153
79,506,-370,-113,-93,-237,465,305,102,131
-11,172,-299,-110,-43,13,-106,35,-29,9
-113,-424,-162,-85,-44,71,-741,-77,-101,-98
-126,-824,-155,-74,-116,-35,-461,168,13,-63
-74,-593,-301,-88,-107,39,-127,267,99,-2
-105,-389,-292,-111,-22,141,80,312,103,-20
-184,-348,-169,21,137,221,246,247,29,-123
-224,-495,-170,96,127,167,137,55,-53,-151
-187,-406,-189,76,24,37,-30,-80,-87,-127
-131,-181,32,79,20,-53,-127,-112,-76,-97
-100,-28,257,-72,-81,-46,-152,-153,-101,-98
-80,-16,93,-172,-133,-38,-151,-264,-289,-106
-37,278,-61,-146,-96,-33,-92,-267,-298,-78
139,1090,123,-43,-34,-24,27,-74,74,10
392,1315,444,93,54,59,117,129,378,122
322,618,345,133,-27,46,44,-14,289,115
50,-393,84,314,-3,-5,-46,-104,-6,52
-106,-562,74,457,219,-25,-103,-158,-259,-78
-89,-234,125,191,205,40,-55,-229,-327,-61
9,-65,193,-76,-70,54,-49,-269,-453,32
48,-47,116,197,117,119,46,-153,-285,57
85,61,302,240,294,155,56,-182,-123,33
144,174,381,-156,14,43,13,-236,-16,99
141,262,139,53,58,35,24,-223,8,119
154,489,-185,123,32,-4,43,-167,30,100
176,757,-339,104,-297,-103,12,-135,18,32
183,927,-104,308,-581,-285,-224,-368,-91,-100
0,324,140,344,-268,-309,-364,-430,-168,-246
-38,-254,248,-70,336,-63,-53,-81,61,-169
-116,-192,55,-637,-363,-304,-44,112,254,-128
-344,-366,-304,-413,-738,-597,-272,278,215,-236
-433,-179,-66,-129,-119,-390,-181,739,191,-320
-381,-25,274,-104,267,-50,156,1129,232,-244
-80,-66,357,113,328,170,341,1219,374,38
65,-239,48,-114,73,195,226,869,297,152
96,-255,-31,-352,-226,171,188,337,114,163
364,279,68,-15,-118,233,238,-178,272,275
364,228,40,53,122,202,128,-521,102,285
161,-398,-343,-140,392,198,31,-724,-173,244
215,-253,-511,21,473,265,112,-680,-237,287
245,0,-275,8,152,248,191,-458,-194,235
104,-66,-143,36,76,157,251,-329,-225,43
-62,-290,-154,235,157,55,208,-384,-411,-118
-53,-337,-92,114,111,7,137,-302,-359,-98
-103,-493,188,64,78,89,58,-139,-55,-41
-196,-418,274,-5,-13,5,-174,-88,29,-55
-173,20,4,-49,27,-103,-207,-17,21,-120
-140,398,131,31,-24,-70,29,87,8,-164
-7,422,272,111,-40,50,211,155,7,-50
111,269,127,435,229,89,98,110,-4,51
85,-184,-467,35,170,74,-37,97,5,53
211,-115,-460,-424,-63,29,-95,65,108,85
194,-195,-111,-207,-64,-20,-101,-47,133,75
12,-554,-167,-131,-84,3,21,-45,32,43
-38,-318,-43,-119,-79,-32,0,-48,-52,-27
-45,252,300,31,-74,-197,-232,-127,-74,-92
26,632,547,243,-31,-254,-311,-87,30,-61
158,1081,286,178,-46,-267,-134,154,79,-20
275,1075,-54,-38,-144,-348,-148,203,121,26
189,764,151,-31,-234,-369,-241,5,35,-46
-204,98,424,290,-74,-79,21,-53,-124,-199
-416,-474,315,409,208,177,48,-248,-225,-284
-351,-733,-472,-77,148,200,21,-154,-241,-197
-162,-629,-658,-364,-53,99,51,7,-136,-33
-65,-486,-433,-413,-110,86,124,111,105,50
-5,-593,-437,-368,-156,72,186,272,230,117
-36,-655,-576,-364,-162,17,129,306,233,79
-124,-593,-559,-379,-132,12,102,312,160,29
-136,-64,-283,-216,-89,-43,-29,180,84,-35
-70,498,196,110,-35,-92,-148,-23,13,-68
5,362,597,275,31,-17,-86,-65,21,-20
75,-91,74,138,92,126,130,72,134,61
2,-356,-190,28,45,156,324,103,234,85
37,-48,40,62,20,16,333,-65,172,10
237,689,425,221,170,-29,84,-217,68,-72
241,767,509,58,16,-13,-249,-225,-37,-66
102,489,289,338,-168,-105,-210,-145,-121,-33
0,482,405,507,-350,-184,-125,-47,-100,-37
-116,-14,268,245,-207,-160,60,15,-125,-36
-97,-353,776,514,359,-82,-126,-272,-171,-19
-46,-227,1070,658,329,77,-247,-210,7,51
86,274,-11,-270,-23,136,-59,108,173,107
177,856,-454,-923,-379,28,-28,90,24,39
193,859,160,46,-394,25,-38,78,-62,-1
135,9,343,679,39,185,21,64,5,87
-44,-1177,-619,330,638,453,203,134,108,182
-223,-1446,-1070,-426,411,265,118,11,34,101
-92,-873,-675,-659,-219,0,120,-56,76,156
130,-220,-208,-223,-229,-151,364,109,215,218
73,-237,-257,-58,-33,-261,527,201,186,134
-126,-488,-455,-342,-3,36,453,144,6,-2
-254,-467,-415,-277,84,227,-153,18,-98,-148
-242,-336,-183,-136,21,42,-207,88,-47,-149
-124,-160,25,55,64,99,-29,163,89,-34
45,158,-63,-50,27,85,-77,174,208,89
70,368,-187,-220,-101,-77,-261,32,111,23
261,654,-4,-198,-128,-149,-278,41,104,18
336,1056,571,74,-100,-85,-177,2,36,57
285,1375,720,113,-188,1,-63,-13,-65,87
148,1328,687,323,30,3,-65,31,-139,-7
-49,883,691,426,285,-117,-243,-82,-282,-200
7,285,29,-86,8,-120,-159,-103,-208,-132
92,-345,-501,-94,-29,-10,-74,-139,-85,14
97,-686,-410,59,51,26,-115,-184,-5,57
-101,-1164,-410,5,155,52,-143,-278,-45,-31
-193,-1261,-202,267,219,-11,-294,-442,-112,-78
-175,-790,64,526,289,-52,-253,-242,-30,-61
-174,-253,-93,23,98,33,73,91,72,-76
-131,453,-254,-459,-192,5,154,219,31,-124
-49,586,105,-101,-120,-57,36,111,-33,-126
-2,243,267,115,-20,-27,11,95,-23,-109
38,81,330,-65,-61,-112,-89,140,11,-131
-75,-186,285,-91,-114,-167,-152,-8,-88,-194
-77,-557,-132,-76,-41,12,127,89,24,-27
7,-467,-120,75,59,103,268,109,125,105
27,-318,98,136,68,52,248,101,112,91
-1,-200,133,45,11,55,195,121,61,47
27,-160,-274,-177,-84,-7,69,83,73,124
67,33,-330,-208,-77,-44,-17,96,150,130
8,67,-150,-102,26,55,-85,24,127,54
-44,58,94,-34,41,45,-32,-62,27,22
-13,194,303,207,92,-3,3,-58,-28,20
30,326,6,209,80,-67,-39,-58,-49,52
40,219,-340,-78,-18,-59,-23,-108,-40,72
24,-55,-288,-192,-48,4,-7,-133,-82,46
35,-267,-201,-395,-118,87,25,-47,-62,65
-3,-295,-77,-298,-91,75,-40,-95,-82,3
-58,-194,107,-20,-125,62,-108,-217,-132,-27
-28,1,216,66,-196,59,-141,-244,-127,5
-100,121,38,59,100,78,-62,-30,-163,-60
-70,578,16,190,331,-19,-99,94,-175,-117
140,1073,361,142,75,-121,-186,-15,-120,-5
206,985,347,63,-46,-146,-90,-53,-127,18
218,739,296,260,64,-129,33,105,-89,-22
297,1137,681,503,213,-126,-90,46,-29,-71
126,1034,1331,486,-56,-389,-385,-142,-206,-215
0,744,1528,460,-450,-584,-493,-157,-232,-206
5,1086,1625,503,-535,-526,-553,-330,-156,-185
-51,398,486,-32,-489,-278,-193,-167,-42,-129
-93,-499,-694,-386,134,246,517,319,82,-3
-155,-592,-1053,-626,327,398,588,434,192,72
-214,-789,-1391,-753,-60,187,339,456,258,89
-268,-1103,-1080,-563,-137,142,345,472,300,117
-283,-1359,-773,-290,67,179,311,348,247,50
-328,-1561,-651,-119,175,172,173,127,149,-40
-265,-1161,-511,-31,189,237,224,32,111,-43
-140,-465,-487,-146,69,154,158,-14,99,-18
-177,-173,-187,22,48,18,-15,-98,0,-124
-194,-155,-105,278,145,10,-32,-100,2,-193
-108,-175,-459,-7,-72,-17,-29,-57,51,-76
-79,389,11,367,73,-55,-105,-11,-52,-100
4,1114,697,612,223,-132,-162,182,-36,-123
89,1000,221,-263,-159,-130,-57,401,133,3
51,576,-96,-515,-363,-66,24,340,141,74
52,4,-38,173,-232,-90,-23,-17,-62,63
299,-431,98,94,74,99,73,-292,-76,267
584,-320,95,-348,114,181,117,-238,169,419
341,-437,-129,-240,186,171,145,-210,109,294
115,-255,-131,98,263,142,262,-316,-89,182
140,-24,25,113,158,120,321,-294,-105,191
112,-199,79,60,143,211,34,-268,-95,162
0,-558,-17,40,135,248,-175,-263,-162,54
-57,-565,-103,-7,51,169,-47,-198,-152,20
37,-296,-52,1,13,66,3,-110,-44,71
97,-165,-59,-10,-55,-51,-67,-94,30,151
68,-129,-80,-24,-83,-96,-111,-81,39,130
23,-2,-12,-14,-106,-160,-121,-1,11,49
-17,286,132,15,-156,-236,-301,-121,-8,-22
-46,695,374,133,-278,-228,-313,-26,-101,-151
53,782,648,289,-330,-158,-144,92,-131,-129
46,413,225,290,-181,-113,-166,-173,-146,-140
4,670,40,231,20,-87,-99,-172,-96,-215
-59,980,607,600,206,30,131,-2,-144,-239
-125,562,482,105,259,21,125,-74,-249,-288
3,-195,-310,-658,-156,-103,8,-48,-105,-102
-49,-647,-40,-101,-44,-66,-11,17,2,-1
-119,-886,-228,44,75,59,34,75,98,50
-88,-833,-678,-183,85,121,178,139,211,146
-92,-392,-117,77,-51,-64,263,127,224,62
-92,83,271,168,-227,-63,175,83,207,11
-136,209,-104,109,-67,102,-330,-77,3,-124
-279,-63,-404,330,401,-66,-477,-34,-114,-287
-218,-285,-280,-76,133,-101,-233,178,130,-137
-257,-604,-230,-423,-338,-176,-24,292,191,-102
-233,-786,-507,-560,-585,-215,150,401,232,-64
-54,-414,-452,-351,-353,-135,253,482,278,-6
94,92,-262,-211,134,56,77,384,201,14
146,461,98,-165,246,237,123,262,98,67
158,581,317,88,245,306,280,163,-9,60
151,226,91,70,187,250,276,137,-49,62
123,-280,-223,42,171,206,163,83,-152,126
58,-397,-131,58,152,153,-35,-210,-357,101
63,-159,186,130,179,188,-1,-432,-307,81
251,99,128,188,251,183,98,-317,-102,158
331,392,142,127,196,114,124,-169,102,167
144,145,-79,49,87,43,47,-191,32,68
-30,-126,-88,77,-29,5,-11,-140,-43,0
-37,-119,-60,80,-221,-41,-9,55,-11,-2
-4,-108,-92,-21,-223,-57,16,196,59,35
-7,-73,38,-27,165,-1,23,185,82,43
-6,-14,2,-4,237,-6,-11,113,108,12
0,42,52,44,88,-35,2,21,66,-4
-32,-16,189,68,70,-3,131,-102,-35,-23
21,225,266,-14,-67,-129,185,-206,-105,-18
89,938,445,-21,-203,-251,140,-243,-181,-48
176,1914,805,200,-162,-196,50,-200,-198,-98
250,2597,753,378,-30,-67,95,-182,-204,-136
226,2306,798,169,-61,-67,-163,-270,-266,-207
93,1096,1529,163,-243,-319,-654,-489,-335,-290
-130,-805,1373,288,-226,-407,-563,-339,-178,-153
-247,-1709,344,507,12,-262,-311,-46,39,54
-248,-1100,-396,924,496,161,-78,103,157,141
-297,-711,-1119,-198,258,134,-65,137,189,95
-182,-373,-1024,-718,-149,-82,-168,80,185,123
-138,-590,-1102,-343,98,161,106,120,132,73
-89,-836,-878,-340,121,249,231,132,108,-2
166,-482,-538,-411,-32,62,114,229,252,55
132,-435,-379,-266,-27,-5,75,306,270,83
-81,-717,-345,-190,-54,24,110,284,173,80
-200,-670,-264,-147,10,70,123,251,108,-19
-335,-542,-264,-203,-5,0,46,296,54,-195
-412,-272,-34,-121,-141,-151,-64,252,-39,-339
-367,165,512,454,-353,-342,-223,128,-197,-364
-245,440,752,701,-432,-248,-4,198,35,-284
-232,300,83,525,-53,-116,35,-64,48,-276
-84,60,-280,-201,-25,-176,-126,-355,50,-114
181,-41,-198,-501,110,-9,-56,-152,229,182
207,418,-302,-140,372,164,42,212,216,214
213,706,-246,-265,93,210,237,401,-6,134
240,416,64,-217,66,290,298,9,-207,125
310,-42,334,37,227,261,193,-301,-180,202
410,-308,160,104,255,158,54,-252,64,322
264,-531,-209,-23,180,158,11,-204,42,278
145,-465,-226,-8,188,286,124,-159,10,220
97,-200,-98,16,132,185,38,-158,-14,163
59,-103,-118,-36,16,70,13,-89,-65,100
46,-36,42,-23,-36,15,107,-34,-68,61
62,76,175,5,-85,-124,161,17,-57,53
180,276,153,19,-53,-165,182,65,18,63
69,228,67,99,36,11,58,-9,10,38
-27,514,95,185,-132,112,-240,-129,-121,-51
24,651,209,249,-521,-153,-399,-135,-99,-26
-9,266,287,494,-232,-342,-559,-193,-106,-31
-83,-344,107,156,410,-110,-233,-15,-77,-25
-120,-482,-174,-511,232,147,96,-10,-36,0
-129,-269,-13,-348,5,134,65,-70,-16,-19
-81,-257,-68,-190,1,104,109,106,88,18
-33,-186,11,-98,-54,-4,-30,85,56,62
-56,9,656,58,-6,3,-34,39,-105,-51
-73,72,1096,226,27,-7,-71,-50,-123,-94
-101,-38,593,310,42,-102,-189,-80,-41,-64
-174,-149,-300,125,-9,-140,-207,-111,-105,-158
-69,-201,-603,-122,-5,-20,-12,30,-47,-81
180,-67,-510,-196,11,16,125,333,262,120
273,141,-450,-262,-9,31,191,398,348,141
127,136,-433,-207,3,-4,99,162,126,25
0,443,17,-50,6,-44,-30,-56,-35,-69
-5,670,115,-79,-88,-116,-116,-117,-7,-89
-40,705,-76,-187,-183,-141,-35,33,31,-147
-29,594,45,-137,-149,-71,124,221,64,-165
1,136,-83,-119,-106,-39,126,186,86,-153
-69,-569,-293,-125,-80,-18,93,236,168,-84
-237,-911,-156,40,53,69,130,269,141,-82
-169,-750,-351,-87,0,45,130,276,123,13
-54,-220,-270,-111,-68,-22,33,229,71,91
89,750,36,-26,-116,-124,-110,115,-42,85
177,1114,347,119,-101,-268,-389,-147,-74,88
148,626,451,80,-70,-183,-404,-315,-36,51
142,-203,96,65,55,67,-35,-301,48,77
69,-598,-146,73,112,231,186,-326,22,117
35,-408,-15,125,21,203,78,-437,-33,140
-109,-278,123,341,11,205,94,-329,-135,6
-199,-365,173,342,-23,134,110,-224,-239,-91
-60,-182,253,38,59,31,52,-153,-229,-2
20,88,4,-127,225,87,74,-73,-163,35
95,175,-153,-93,143,143,123,154,-14,59
159,302,-14,114,265,201,160,343,76,-19
-5,-20,-36,166,244,126,125,314,14,-87
-216,-491,-404,-53,29,-75,67,158,-74,-73
-157,-224,-159,218,149,-135,144,52,-46,-35
31,239,-5,305,49,-275,74,-151,-38,27
208,484,-158,-245,-382,-154,-334,-359,-75,92
244,690,147,-284,-427,-16,-364,-277,-121,52
149,714,964,164,-157,-88,-247,-131,-188,-105
28,228,1354,522,200,-4,-172,-66,-105,-88
16,-243,525,261,58,40,-45,39,93,71
-104,-644,-669,-35,-138,-43,-62,21,67,5
-194,-534,-598,177,-69,-283,-277,-98,-85,-123
-104,-230,148,-39,-133,-447,-283,-57,-79,-101
-174,-275,-247,-359,-62,-122,122,236,21,-103
-174,-385,-686,-467,132,401,462,354,41,-129
164,30,-330,-269,69,346,299,340,170,8
151,-137,-230,-272,-233,80,118,283,202,130
63,-303,-288,-272,-270,26,70,181,198,147
-139,-359,-181,-35,80,53,-29,-32,13,-37
-204,-417,-171,-66,259,110,142,58,36,-34
-120,-293,-298,-191,40,121,196,46,84,52
-58,80,-414,-310,-162,-26,-60,-114,0,18
165,612,21,-191,-115,-89,-188,-150,50,38
142,359,55,-56,1,24,2,-82,63,69
3,74,79,170,126,83,47,-13,90,67
-65,-98,-99,92,-24,-23,-88,103,88,30
-162,87,-205,-18,-81,13,-155,112,-31,-104
-229,415,119,222,-20,15,-66,145,-119,-221
-169,508,272,240,-79,-38,34,304,-24,-197
1,406,161,194,75,-45,-22,306,136,-46
-11,-68,171,102,160,-47,1,177,164,-15
-85,-490,-13,-150,-117,-115,75,21,59,-31
-12,-747,-156,-178,-248,-51,49,-111,93,82
-31,-633,2,-51,-116,95,-1,-193,0,26
-97,-290,186,-154,-58,46,-17,-190,-117,-74
-87,-66,293,-226,-9,79,96,-107,-128,-69
-17,155,467,46,22,92,280,-52,-128,-3
229,771,308,433,308,230,725,85,-26,112
439,2272,425,318,258,125,795,-42,-155,65
453,3258,1178,199,19,-116,347,-280,-381,-27
139,1913,1395,417,70,-121,-705,-590,-505,-188
-4,-379,294,186,81,-3,-898,-537,-200,-15
-16,-2207,-1297,-456,-27,9,-561,-301,153,266
-137,-2582,-1528,-473,-13,67,-178,-25,195,268
-121,-1635,-714,-88,144,154,11,52,62,140
-8,-787,-258,32,91,57,-79,50,29,109
-51,-585,-181,16,24,13,-83,107,-210,17
-96,-444,-109,56,31,69,33,7,-153,-38
-33,-350,-102,-58,-47,68,92,-86,18,42
9,-250,-77,-145,-69,79,120,-27,73,87
29,-106,64,167,60,58,54,129,68,82
-14,-67,41,169,125,18,-14,155,37,24
0,70,3,-40,82,12,32,144,25,-28
-39,122,15,-38,38,23,75,185,14,-56
-30,308,343,-18,-64,-48,10,191,52,-50
24,872,665,-14,-210,-181,-126,113,42,-57
14,1343,568,32,-572,-453,-413,-116,-79,-172
159,1315,594,365,-731,-501,-410,-140,26,-56
166,517,351,503,-192,-112,-121,-137,72,3
-53,-374,-409,55,637,315,111,-222,-56,-172
-29,-585,-647,-216,575,176,109,-133,42,-138
36,-631,-679,-242,183,60,195,150,188,47
4,-562,-546,-225,33,68,220,265,214,139
-30,-360,-248,71,79,43,169,220,186,115
-112,-275,-68,318,212,118,244,221,126,40
-59,-19,118,53,-116,17,176,49,-8,-31
14,252,345,233,-126,-60,80,8,12,-9
-51,282,432,402,179,9,85,131,87,-27
-168,278,159,-252,-20,-37,66,133,11,-95
-237,258,31,-371,-226,-195,-160,-25,-38,-156
-215,-32,79,-213,-232,-149,-217,127,93,-111
-22,-526,-490,67,122,177,214,543,248,97
141,-456,-635,-62,209,182,207,354,217,218
263,321,-298,-762,-414,-189,-144,70,174,254
271,1078,9,-345,-302,-212,-106,54,136,157
167,790,189,637,245,-16,51,-10,78,-1
-59,-391,124,352,427,220,172,-140,-11,31
-105,-946,-116,-262,160,183,46,-297,-144,45
-30,-773,-66,-302,-36,104,-58,-327,-186,75
71,-318,135,-45,3,87,-81,-306,-100,151
132,132,447,17,-104,6,-104,-258,-32,164
161,459,857,43,-262,-73,-112,-192,-31,117
191,752,927,357,12,-34,-74,-247,-93,-17
39,946,728,311,229,-85,-154,-430,-340,-216
7,1058,731,251,-25,-199,-201,-340,-377,-285
26,747,789,672,-64,-240,-252,-303,-245,-200
19,703,422,402,-45,-156,-142,-138,-144,-141
-50,236,-349,-123,148,80,36,2,-60,-94
-94,-238,-375,-364,154,161,123,55,31,-14
-62,-341,-191,-340,-155,-4,5,8,16,-37
-87,-817,-597,-206,-75,59,69,90,64,4
-140,-1275,-888,-184,17,125,232,235,142,72
-126,-1254,-806,-296,11,137,288,291,179,103
-121,-1098,-729,-313,50,112,136,231,174,86
-91,-820,-604,-271,-1,111,88,308,166,83
-78,-395,-416,-197,-90,-9,35,295,143,57
7,273,-139,-40,-53,-138,30,242,203,49
229,1095,146,-66,-32,-251,85,268,328,57
293,1194,231,-163,-172,-316,239,362,309,30
46,484,145,-100,-82,70,28,88,102,-28
-102,-237,-24,-9,71,290,-187,-206,-15,-38
-87,-645,-381,-196,18,232,-40,-251,-94,-11
24,-313,178,-88,-117,91,-33,-253,-135,49
97,33,1130,357,-120,-73,-175,-280,-153,36
12,-76,568,589,145,5,-87,-218,-163,-89
-53,-288,-218,358,216,131,0,-121,-116,-84
17,-445,-732,-150,82,28,-138,-50,-137,101
-27,-404,-615,-291,39,6,-95,7,14,131
-118,-203,-187,50,126,119,63,-29,-38,0
-11,80,49,-34,-198,13,118,-13,-108,43
70,164,221,60,-53,50,267,153,0,111
105,431,184,38,169,-96,-36,126,-432,-9
98,406,-81,-87,52,-273,-273,50,-898,-110
97,341,-2,30,-128,-107,28,-79,-208,-65
11,55,-36,-31,-333,-95,97,-120,-18,-95
-181,-367,-351,-272,-254,-169,17,-53,-15,-203
-351,-799,-326,-237,100,-46,104,249,62,-226
-374,-683,-51,-146,-6,-87,159,547,175,-190
-225,-68,-61,-30,-68,-106,135,735,333,-151
29,531,-109,-78,-104,-148,31,744,464,-72
73,288,-188,-138,-192,-189,-34,499,347,1
32,-145,-169,-129,-286,-146,33,241,206,82
146,-238,47,-49,-232,-89,98,-23,167,227
126,-97,269,638,398,-30,26,-420,-76,169
124,125,225,579,464,-42,90,-403,-104,181
245,236,65,-118,38,68,401,-130,-128,285
278,230,101,-115,85,351,250,-367,-161,225
195,12,97,1,106,156,-163,-605,-306,181
59,132,101,10,52,-73,-642,-633,-384,90
-33,233,81,100,139,84,-368,-291,-202,-16
-116,26,-40,149,192,262,182,19,-206,-112
-97,-213,-5,81,114,275,271,-47,-178,-109
-34,-100,189,101,-18,137,98,-247,-150,-86
106,647,647,388,58,47,27,-214,-113,-107
151,884,594,454,159,93,139,-22,-28,-103
1,184,-136,359,197,20,-44,-76,-3,-34
-106,-158,-476,253,65,-136,-316,-137,40,-27
-153,-31,-126,30,-184,-86,-240,-41,84,-60
26,109,41,-271,-475,16,25,78,166,77
67,-34,50,-114,-234,61,127,34,154,125
-102,-371,31,-88,251,153,125,-102,17,-52
-76,-296,213,-172,162,62,97,-108,26,-78
-131,-284,318,-50,43,3,39,-119,-25,-43
-101,32,234,-65,-10,-7,-109,-166,-3,-27
-21,234,44,-153,-73,-46,-199,-175,41,24
-67,218,-487,-316,-115,-59,-68,30,-88,-5
-66,826,-431,-350,-191,-32,208,278,8,-50
-66,883,251,-140,-221,-155,-124,83,-72,-188
19,563,425,-3,-199,-353,-620,-79,-102,-253
179,738,149,51,-257,-293,-410,237,139,-84
102,944,-15,30,-374,-193,-228,483,340,-27
-190,375,-27,211,-244,-193,-238,302,207,-222
-305,-292,45,659,280,-32,-127,164,56,-238
-198,-1015,143,-8,284,79,-36,42,83,-7
13,-1284,-224,-580,64,82,-17,-99,104,208
151,-999,-144,293,201,189,109,-156,43,253
350,-354,-57,436,229,246,217,-134,112,244
322,112,294,414,464,294,227,-84,94,183
183,54,184,14,306,187,135,-166,-93,150
141,-4,137,-329,69,128,110,-233,-209,104
152,-1,277,-206,-42,61,53,-203,-204,98
215,38,103,-155,-150,-45,-5,-85,-60,172
-11,-124,-378,-8,48,-7,-5,-71,-92,18
-187,-248,-259,178,190,95,89,6,-101,-127
-121,-167,115,177,73,69,86,124,-90,-47
-40,-137,-334,-289,-192,-97,-11,176,-58,41
-39,-308,-659,-378,-259,-126,76,202,128,32
-133,-454,-384,-136,-146,-138,8,55,36,-98
-157,-598,-226,-83,-6,16,39,-9,23,-94
-157,-457,-183,-126,-36,86,73,-65,27,-90
-253,-175,-146,73,31,46,26,-109,-76,-229
-210,216,251,126,-74,-75,-91,21,-28,-212
-98,520,685,-49,-411,-158,-143,186,77,-99
-102,378,405,-17,-415,-160,-181,292,84,-103
-171,-154,-162,384,161,-36,-128,342,111,-99
-131,-462,-239,162,428,124,42,291,189,-2
10,-355,-96,-84,68,75,111,161,233,125
80,-193,-163,127,10,52,81,5,159,157
192,302,-307,-107,21,62,95,-167,73,124
222,885,105,-164,1,-77,-103,-509,-111,-45
198,718,216,66,81,-18,-136,-510,-77,47
149,595,278,79,154,142,4,-284,16,175
133,583,212,-151,-21,34,-47,-132,26,118
73,198,-29,-238,-199,-92,-9,152,17,21
-48,-276,-95,-47,-179,-73,49,235,-131,-56
-83,-493,-5,-40,-166,-115,-102,119,-193,-64
-48,-687,-358,65,9,-2,-72,154,89,8
-171,-601,-105,469,170,17,-90,61,29,-58
-167,121,1071,683,178,-20,-96,7,3,-107
-44,485,1220,67,-94,-10,0,38,52,-72
-117,116,278,-495,-490,-200,55,71,74,-102
-191,-275,-616,-458,-350,-314,159,267,168,-62
-150,-476,-1101,-440,-225,-408,191,568,249,9
-166,-412,-1021,-476,-129,-112,-1,638,175,-120
-88,-287,-646,-492,-72,279,-43,616,147,-114
17,-374,-251,-299,-91,276,90,752,229,43
112,-51,309,118,66,124,60,547,266,99
112,69,290,184,251,166,98,137,246,121
118,208,223,419,273,172,-25,-393,50,83
235,878,231,384,211,80,-149,-704,-200,47
409,2025,273,106,227,134,-77,-724,-289,69
522,2288,402,68,272,184,-81,-716,-291,78
317,1098,466,97,175,151,-91,-622,-291,77
-120,-663,199,11,29,59,-78,-486,-363,-126
-352,-1781,-568,-232,-96,-78,-86,-282,-419,-187
-229,-1666,-741,-425,-129,-88,-15,-17,-264,-22
-75,-877,-317,-272,-106,-77,-39,67,117,105
-34,-310,-138,-33,-57,-86,-140,55,213,93
-81,-254,-145,-62,-247,-37,-5,99,86,-41
-130,-308,110,-90,-547,1,172,68,-126,-110
-45,-360,254,81,-337,-40,20,-33,-31,23
-90,-457,48,223,382,22,-30,115,159,37
-108,-235,-240,31,603,92,82,374,310,16
110,637,-23,6,224,49,108,354,292,95
263,1212,295,30,-105,-65,102,107,126,103
254,970,336,-28,-234,-185,146,26,36,30
207,609,379,365,-4,-195,193,15,110,-45
49,264,15,378,269,-24,105,-150,-20,-103
-134,184,-357,-226,221,82,-220,-391,-243,-154
-173,332,160,-196,2,-38,-246,-396,-209,-169
-142,-106,472,120,72,13,-8,-136,0,-93
-85,-740,-86,-48,-4,21,166,197,229,67
-63,-887,-543,-228,-41,58,173,342,334,144
-127,-637,-389,-6,172,137,75,110,165,-1
-39,-359,10,186,236,139,-16,-301,-155,26
117,-150,196,341,305,160,-82,-532,-401,123
147,3,91,299,292,215,-5,-477,-355,108
192,137,91,111,103,121,-38,-226,-185,146
249,184,241,40,8,48,-53,32,102,212
137,129,227,323,130,-17,-87,31,36,73
104,239,316,545,135,-83,-97,-83,-41,3
69,325,330,330,62,-49,-23,-111,-50,-2
-42,308,223,-303,-228,-49,55,-195,-120,-72
-47,656,445,-56,-132,0,66,-301,-213,-135
-60,718,644,385,175,-10,-60,-365,-287,-152
-14,448,338,23,-20,-77,-39,-246,-172,-73
-48,-10,-230,13,-68,-16,94,-53,-45,-22
-31,-613,-800,-146,-248,-25,169,134,145,76
141,-564,-720,-236,-314,-74,205,263,309,111
202,-299,-358,-196,62,17,306,314,312,61
-25,-375,-254,-65,190,20,237,195,125,-45
-150,-210,-73,97,-72,-69,-69,-32,-47,-115
-63,76,138,-112,-176,-116,-214,-121,-87,-69
-61,-11,-288,-448,-188,-114,-206,-176,-125,-81
-80,-58,-229,-267,-52,-82,-133,-201,-141,-45
31,496,226,49,6,-138,-161,-236,-275,-75
118,911,830,432,24,-84,-129,-253,-160,-140
119,426,741,565,-24,-88,-83,-177,-67,-60
-3,-492,-38,917,389,127,-19,48,100,59
-192,-1002,-687,812,598,211,15,296,196,70
-226,-864,-427,-145,-68,22,12,451,248,77
-143,-316,213,-384,-382,-68,-58,391,241,92
-40,87,175,-148,-32,77,-31,286,191,80
169,421,-251,-659,-15,103,32,182,231,101
236,413,-250,-626,-189,-10,77,174,241,144
61,-17,-16,-8,-225,-47,-8,-44,113,122
76,84,268,188,-370,55,61,-62,112,142
156,692,11,44,-294,135,213,107,108,164
175,1362,-180,-266,52,-22,75,56,-30,74
164,1339,105,-456,68,-203,-211,-204,-133,-2
25,601,605,-280,115,-81,-77,-126,-89,-84
-137,-325,594,-12,155,150,273,98,-48,-147
-202,-978,-262,-9,66,117,204,12,-48,-92
-188,-1023,-681,-136,-50,-70,-64,-77,8,-41
-150,-894,-550,-205,-99,-134,-119,34,24,38
-157,-1026,-545,-214,-42,-43,-19,148,-106,46
-174,-855,-485,-173,-18,87,160,134,41,-7
-108,-303,-326,-184,-70,37,115,194,101,-2
-39,319,-172,-191,-87,-2,99,308,132,-22
-54,310,-41,-98,-32,-17,119,297,70,-23
-43,32,111,-57,-87,-78,191,260,38,0
-51,-359,-177,-155,-213,-55,392,359,118,16
-103,-572,-230,-172,-253,-87,165,406,181,5
-210,-681,-296,-260,-317,-132,-360,307,145,-80
-184,-484,-289,-287,-372,40,-139,365,137,-104
54,20,-59,141,-97,40,-51,286,160,-31
336,638,373,295,329,-27,-109,80,153,40
270,563,417,151,460,9,-76,-106,3,5
-60,62,164,271,342,101,-6,-361,-272,-126
-10,-13,-14,101,166,153,62,-470,-271,-27
62,-85,-198,12,114,161,87,-468,-288,49
29,676,191,445,52,-56,-95,-477,-390,-73
148,1281,280,380,271,-20,-128,-423,-367,-85
123,1067,402,-58,115,-81,-283,-446,-631,-113
32,442,372,-209,-142,-227,-450,-382,-921,-125
-76,-245,-35,-222,-254,-92,-131,-185,-233,-58
-168,-359,-263,57,-86,-105,-23,87,73,-94
-148,-311,-278,115,48,-113,-18,275,230,-65
56,107,1,-95,-80,-144,-75,385,345,100
157,201,294,65,67,24,85,446,331,148
189,-17,192,-49,131,157,183,125,122,174
97,95,283,-61,-19,6,20,-231,-169,60
22,93,514,226,4,-12,1,-129,-76,21
-24,-258,198,187,52,15,-11,-21,69,49
-102,-756,-191,223,205,135,33,-44,73,49
-60,-717,-75,53,52,64,-4,-56,122,93
57,-358,115,-37,-111,-21,74,160,188,147
186,17,-181,16,26,62,221,248,224,87
164,77,-368,127,136,144,263,150,218,23
22,-95,-225,-50,-93,-6,69,-68,97,18
-82,-190,-39,-143,-46,-15,-19,-24,5,-38
-106,-243,-218,-180,98,95,32,94,24,-56
-145,-267,-394,-145,-1,48,48,66,-10,-71
-199,-221,-309,82,-38,-22,5,39,-204,-136
-136,-39,-151,296,132,-68,-17,37,-221,-145
-12,103,-35,-149,-56,-94,169,86,3,-54
71,148,-19,-382,-270,-166,299,177,114,68
27,447,276,-122,-190,-247,198,177,86,25
-77,455,487,29,-57,-5,-246,-82,-85,-99
-31,229,302,-29,-24,54,-384,-330,-112,-71
14,357,-39,-209,-157,-90,-388,-387,-20,2
-26,770,155,66,-205,-221,-401,-252,22,-52
88,1284,741,424,-200,-292,-402,-148,110,-83
150,1144,465,156,-223,-243,-321,-151,92,-39
-62,674,388,15,-12,14,-38,-249,-169,-140
-171,1046,887,730,456,185,71,-443,-433,-256
-160,517,919,1423,621,190,56,-472,-407,-142
-110,-860,90,1284,540,124,203,-64,-61,102
-6,-1629,-928,-424,-43,102,476,486,302,318
-1,-1513,-1119,-1281,-520,33,381,632,351,244
-49,-1124,-843,-924,-241,68,-95,395,167,54
-143,-822,-638,-645,-3,145,-30,351,149,26
-185,-667,-415,-331,-76,67,82,329,162,-14
-117,-574,-385,-294,-122,-11,26,235,31,9
-40,-309,-247,-316,-61,-91,-123,113,-68,6
-45,-117,-48,-185,19,-42,-42,143,93,-41
-24,19,-53,-120,-42,-78,35,82,80,-84
85,300,37,-34,-33,-88,70,18,-11,-77
126,357,282,166,91,52,-11,-60,-123,-28
147,247,372,178,157,235,-52,-171,-141,44
45,244,702,132,-38,144,-15,-201,-155,16
-103,216,774,281,-72,5,-52,-201,-239,-142
-142,-145,-69,213,107,61,62,-66,-149,-124
-135,-408,-896,-211,102,111,237,218,62,-18
51,88,-555,-173,51,35,213,423,215,43
358,999,11,-113,-9,-52,17,313,263,79
372,1090,392,114,52,-73,-128,66,157,110
162,395,551,417,228,50,-49,-122,3,117
-25,-173,181,242,148,41,-19,-377,-152,16
-78,-655,-284,-94,-49,68,9,-344,-128,24
-57,-93,-83,180,-19,57,-13,-276,-123,10
1,555,-1,233,124,36,-67,-227,-102,0
48,254,-178,-360,-61,44,5,-106,6,42
-43,-541,-255,14,-14,-34,24,-102,-104,9
-189,-890,-215,262,218,-47,-67,-157,-176,-64
-54,-50,-200,-255,-96,-79,-18,52,92,10
75,528,-38,-276,-219,-133,-4,124,53,3
73,516,151,-127,-144,-132,-30,74,-28,-87
15,287,418,5,-91,-62,39,200,0,-138
-33,-299,214,133,-34,-15,49,259,123,-88
-76,-732,-367,-103,-90,-36,-19,194,236,14
-130,-738,-378,-244,18,6,-44,146,264,69
-97,-390,76,105,191,3,-116,28,183,30
-23,-205,247,383,246,15,-104,-79,128,28
-17,-260,-74,165,176,76,20,-76,121,35
-61,-212,-297,-187,-90,-46,-136,-237,20,-15
-36,-38,-42,-122,-125,-107,-180,-155,35,-21
189,661,140,100,50,-40,-44,35,182,25
265,934,229,128,83,6,-5,14,183,39
58,235,-127,-134,-12,32,61,105,90,31
-24,-364,-56,-145,-78,51,158,-61,-65,42
45,152,256,77,-25,-38,-12,-201,-230,11
53,215,100,75,18,-85,-170,-202,-559,-37
100,81,-12,-147,-104,-129,-167,-61,-595,-30
71,-82,47,-72,-190,-63,148,163,9,47
-2,-195,-37,72,-216,-53,181,136,55,41
-75,-106,52,331,89,104,159,32,-35,-32
-101,-203,269,547,458,207,164,44,-34,-39
-31,-178,37,-23,170,233,35,217,81,34
-12,374,-173,-361,-130,23,-220,156,57,-4
42,682,66,-68,-54,-47,-229,-10,81,2
246,515,23,-67,36,10,-110,39,202,47
139,61,-118,-173,12,55,-50,8,132,34
-29,-116,-195,-112,-55,-12,-178,-148,-13,0
-42,-30,-68,-65,-130,-139,-180,-113,-49,-19
-41,74,405,97,-74,-155,-215,-139,-32,-58
-40,-166,333,172,60,55,19,-27,52,-23
-49,-315,63,193,156,265,318,106,131,54
22,20,-143,82,-15,175,208,66,145,64
-27,171,-91,137,-369,-42,-66,-104,-24,-71
-102,54,103,487,-230,-146,-191,-125,-135,-142
-79,-39,154,297,285,-78,-99,100,0,-67
-126,-119,111,-93,338,95,101,301,114,-41
-105,-171,-142,-206,138,98,131,284,178,-4
6,-187,-458,-692,-288,-69,10,249,215,53
43,-99,-220,-722,-354,-47,111,305,215,70
-139,-220,-42,-308,-101,71,204,185,53,-102
-245,-450,-69,-53,-19,34,141,89,-66,-166
-148,-404,-109,-55,-56,-61,53,100,-15,-67
-120,-349,95,7,-10,-55,8,95,-45,-58
-118,-388,118,106,90,31,87,218,-32,-53
-27,-411,-223,-24,78,98,183,218,76,72
85,-247,-438,-170,3,150,314,90,82,174
202,198,-101,49,93,114,144,-245,-22,160
290,804,603,319,227,14,-295,-485,-90,88
275,1288,744,245,128,1,-105,-180,-20,126
206,1349,529,231,-19,-54,98,-61,-22,136
227,768,202,166,-176,-110,185,-108,-15,183
146,-182,128,1,-330,-107,-4,-117,-20,192
31,-851,120,-20,-78,-17,-364,-261,-47,165
18,-479,36,40,228,33,-381,-347,-33,104
147,350,377,-43,-124,-18,-217,-237,32,107
97,725,374,72,-270,-71,-118,35,-113,32
10,473,160,306,-24,-87,-187,7,-212,-68
14,59,151,301,284,-52,-196,-168,-107,-25
-34,-62,38,271,341,35,98,-77,-105,-42
-21,-220,-393,-121,84,56,382,67,-105,-1
-65,-478,-565,-308,-34,-5,359,114,-63,-3
-140,-506,-176,-118,50,151,-121,-109,-98,-129
-90,-541,-38,-30,72,148,-221,-140,-1,-58
-55,-496,-298,32,90,83,-104,-119,22,-19
-8,-151,-462,-59,79,102,-27,-123,1,-26
6,369,-239,-43,43,100,54,3,-34,-84
-95,263,-153,95,64,55,178,81,-65,-183
-81,-144,-269,-112,-93,-80,142,24,-18,-142
46,-400,-159,-233,-262,-213,16,64,161,54
87,-158,311,241,0,-139,36,108,265,42
183,388,480,431,173,-6,76,201,300,46
172,571,43,-108,133,178,-72,37,132,34
124,308,-180,-246,-17,63,-225,-96,1,5
28,-63,-35,75,-36,-26,-235,-202,-48,-21
-57,-251,-8,138,-66,-20,-222,-283,-6,9
-38,-142,45,12,-78,-63,-248,-193,-60,51
-123,59,195,-230,-120,-118,-33,39,-79,-62
-201,-159,106,-50,-92,-128,47,25,-7,-103
-271,-480,-144,475,138,-17,90,69,-38,-135
-185,69,-251,248,365,169,196,176,8,-104
45,1386,394,-57,144,47,38,170,69,-29
172,1823,1097,-229,-174,-126,-111,16,-31,-68
168,1159,1400,37,-121,-106,-49,-76,-146,-104
50,-155,457,81,6,9,78,-16,-33,-44
-44,-1008,-698,-163,51,79,192,93,124,-30
-147,-1426,-991,-143,105,139,132,-53,14,-9
-127,-874,-955,-220,-41,-18,-96,-194,-109,8
9,81,-179,-219,-179,-177,-181,-113,-115,16
133,112,177,-76,-23,16,98,82,13,105
159,-65,35,27,67,101,216,211,112,172
66,117,106,-163,-204,-161,-14,169,40,93
31,134,81,29,8,-25,127,256,54,20
-65,-394,-440,-38,111,175,331,275,61,40
-118,-953,-819,-213,37,189,228,179,69,120
-91,-989,-588,-236,-10,115,73,91,40,113
-65,-645,-282,-233,-83,-54,-78,15,-164,27
-48,-328,-157,-237,-114,-120,-117,-41,-120,-24
-35,94,-23,-1,-71,-137,-138,-56,8,-48
-77,311,156,552,92,-157,-157,8,-28,-113
-65,161,96,626,226,-82,-55,159,18,-131
-53,-139,57,-47,7,-69,43,239,11,-125
-48,-190,223,-499,-270,-89,-2,212,22,-131
-51,-110,290,-199,-156,-58,-96,154,17,-141
-64,-26,94,50,-32,-4,-13,95,22,-104
-38,317,-77,94,-57,55,188,-26,32,-13
7,576,12,195,55,149,306,-137,22,14
136,973,0,-210,-33,92,251,-37,59,-25
214,1099,199,-484,-227,-98,-90,-1,-98,-63
37,477,731,3,-238,-112,-267,-174,-280,-118
-12,-159,601,246,-190,-46,-164,-268,-230,-16
24,-596,39,32,128,103,-117,-370,-119,107
-31,-429,-199,350,43,18,-247,-571,-68,50
-43,-484,-494,73,233,-17,-174,-367,-55,51
-4,-510,-424,-120,202,-139,-191,6,-475,90
67,-184,-140,-162,25,-186,-165,78,-539,65
62,226,70,44,23,2,77,166,-2,31
46,863,261,85,-19,74,145,116,88,-20
178,1628,494,58,-1,68,71,17,151,49
224,1178,475,-80,-71,-39,-40,86,197,118
141,32,274,-116,-72,-38,72,172,209,106
-26,-1019,29,21,24,142,308,154,188,124
-187,-835,-209,133,131,163,293,60,62,2
-177,272,-93,62,14,-45,49,41,34,-53
-103,795,222,183,59,48,-44,101,85,-55
-29,273,115,164,-10,43,-24,103,135,-4
-17,-514,-348,-218,-86,-10,12,22,136,41
-68,-492,-110,-179,4,12,22,-140,33,-51
107,29,365,9,-252,-36,86,-40,102,-13
176,-59,27,-85,-553,-170,77,138,19,71
-137,-648,-544,-74,-189,-187,-85,22,-76,-29
-341,-762,-350,-122,472,56,-41,60,-24,-180
-276,-136,129,-160,248,88,103,423,31,-215
-161,298,160,4,36,-12,120,555,98,-162
-76,183,26,134,80,-70,-1,374,-18,-86
49,-257,-260,99,93,-54,2,231,145,50
82,-810,-687,-132,19,-36,88,68,302,201
98,-335,-422,-62,-51,-159,-20,-87,241,195
271,354,-24,65,6,-128,-136,-259,128,220
352,370,-4,-5,142,205,-186,-493,-39,214
236,40,31,155,216,304,-154,-555,-187,128
154,57,163,320,152,186,-151,-409,-204,86
190,352,264,565,246,120,-50,-309,-158,94
183,540,408,344,227,16,18,-397,-125,5
75,192,647,-102,-52,-72,169,-365,-175,-40
116,81,112,3,23,84,272,-275,-185,19
-29,305,-249,-26,32,191,-202,-526,-357,-165
-158,253,-260,-141,-59,88,-194,-406,-304,-202
-135,192,281,-79,-68,76,6,-45,-138,-131
-154,217,458,0,-32,48,20,258,-32,-135
-192,239,161,222,128,39,14,459,36,-213
-194,-124,46,149,105,47,66,449,74,-128
-68,-757,-455,-203,-17,43,138,398,225,96
46,-880,-519,-379,-188,18,138,360,352,256
-25,-560,-174,-68,-20,9,52,197,70,116
-22,-86,95,222,156,139,275,136,31,59
51,392,335,91,88,208,475,71,188,120
135,474,387,-66,-82,72,323,33,210,161
-46,-98,-102,-135,-124,-94,-267,-290,-2,-6
-215,-635,-496,-87,-135,-139,-287,-480,-188,-116
-222,-666,-531,474,81,-83,-71,-322,-181,-115
-211,-354,-405,425,340,54,-81,-176,-154,-141
-69,280,-33,-5,202,37,-81,9,-54,-70
95,896,1086,956,245,-100,-178,228,29,1
293,1327,1285,663,-135,-179,-136,437,158,144
513,1886,432,-490,-464,-149,-32,416,281,238
375,1407,-57,-422,84,-6,-136,77,195,119
20,22,-289,-380,24,-23,-271,-214,64,36
-200,-1323,-614,-600,-176,142,-11,-135,107,74
-285,-1746,-575,-100,58,218,153,-109,64,38
-196,-1153,-258,336,334,191,128,-161,-69,-8
59,-453,-172,-83,34,108,119,-58,-53,63
231,-17,-14,-272,-290,-47,24,12,34,151
188,281,591,-49,-404,-175,-115,21,6,80
-8,-25,369,79,-110,-84,-137,-11,-264,-57
-166,-567,-514,-224,155,38,37,99,-228,-112
-200,-674,-765,-356,117,19,132,201,-11,-91
-214,-268,-399,-82,8,-115,-28,127,-29,-149
-158,451,56,17,-42,-132,-44,164,11,-168
16,896,301,-111,-120,-82,49,324,162,-46
183,1285,304,-154,-163,-126,2,244,229,4
217,1480,-91,-175,-167,-159,-76,-68,121,2
103,1019,-342,-162,-187,-153,-105,-310,-56,-64
-52,160,-116,-54,-263,-229,-232,-547,-191,-112
-291,-789,392,332,-96,-263,-314,-493,-248,-173
-432,-990,75,186,99,-213,-244,-246,-242,-256
-319,-726,-318,-211,-19,-57,79,238,-3,-151
-61,-453,-34,-108,-15,63,226,449,207,-8
235,-88,-74,-2,71,94,263,501,361,87
358,23,-484,-127,22,67,178,417,430,272
104,331,309,148,173,180,91,-224,-106,195
-59,123,556,209,212,207,88,-438,-306,56
-142,-425,230,244,233,187,76,-342,-318,48
-103,-821,-187,15,23,-63,-181,-160,-909,35
-20,-825,-312,-105,-232,-208,-247,68,-728,58
-54,-701,-196,-47,-219,-83,37,192,274,121
-144,-610,-92,-67,92,38,119,218,339,40
-211,-480,-133,-66,183,98,151,191,283,-32
-142,-271,-273,-189,-68,-60,64,108,159,-25
-43,-39,-195,-62,-97,-88,48,98,35,-11
64,170,140,90,-89,-71,-11,98,17,20
200,470,175,132,26,3,38,258,233,96
238,764,159,545,438,103,24,280,356,41
120,455,453,323,388,127,-93,-4,127,13
79,174,657,-80,134,167,4,-243,-123,11
177,-22,211,-39,129,178,20,-541,-226,107
200,-108,-471,-126,42,17,-233,-840,-282,134
85,-25,-561,-251,-147,-134,-354,-753,-233,2
55,131,38,-30,-149,-159,-273,-360,-46,-53
162,200,244,267,-30,-89,-83,66,258,48
61,-106,-86,66,-2,-30,53,229,256,81
-89,-121,-73,16,123,87,174,295,136,-24
-127,-79,-31,172,254,256,420,556,121,-58
-6,44,-201,52,160,138,215,423,-41,40
80,757,45,-60,-105,55,136,35,-95,38
164,1344,515,-113,-446,-5,97,-231,-65,40
125,1073,727,83,-284,-5,65,-351,-116,-78
-4,71,373,231,199,0,-27,-402,-151,-123
-77,-478,170,-79,178,-14,-65,-274,-31,-52
-106,-404,328,-114,-24,58,28,-77,39,-29
-109,-574,-248,-4,36,115,57,36,11,-40
-103,-745,-762,-50,43,95,103,110,-52,-42
-6,-596,-560,-73,18,43,71,40,-62,8
95,-189,-175,-57,-45,-64,-64,-169,-25,19
184,612,413,46,-9,-73,-34,-108,13,-85
192,1218,799,210,88,14,55,5,30,-159
49,652,335,267,123,51,124,129,80,-29
-28,-126,-474,173,119,0,197,215,118,46
-40,144,-533,185,11,-139,204,178,145,24
-3,904,50,-28,-305,-223,106,48,114,-31
-27,1032,364,-397,-599,-197,-61,-20,19,-162
-144,609,304,209,-43,-45,-150,43,-59,-292
-248,-580,-76,615,295,-123,-78,214,-50,-228
-206,-1331,-508,-504,-283,-226,70,455,-26,0
-102,-1267,-481,-641,-185,-51,119,509,121,126
14,-422,-203,-211,111,165,-150,329,219,162
164,315,552,357,160,160,-225,-294,28,163
198,472,923,595,106,71,-285,-765,-285,54
102,-99,362,246,97,56,-306,-739,-311,0
87,-619,-343,-48,108,159,-157,-535,-116,95
163,-642,-668,95,245,259,90,-150,59,270
119,-293,-590,-177,298,245,143,16,83,260
38,-87,-259,-379,67,157,152,-33,23,166
-10,-109,-4,-247,-43,100,225,-28,-2,72
-54,-247,-7,-166,-88,16,304,14,26,18
-77,-285,45,-42,-20,-17,179,-2,28,-11
0,-37,108,178,178,46,-70,-114,29,-59
121,334,149,378,322,39,-82,-25,67,-109
133,235,-12,131,70,3,-3,202,198,15
-45,161,-200,-532,-637,-118,7,320,117,-28
-226,-205,236,-8,-126,-88,1,280,4,-180
-329,-553,249,9,138,-112,-16,269,-71,-233
-167,-609,-308,-345,-203,-226,-123,429,-287,-71
-39,-264,-367,-289,-303,-213,-238,255,-45,-21
-40,-12,152,61,-171,-92,-266,47,231,-14
-22,266,270,327,236,-9,-240,-47,181,8
26,386,-222,2,334,77,-159,-89,72,64
19,237,-309,-299,198,154,-40,-82,-119,63
65,288,18,-159,49,94,-19,-124,-169,76
20,263,-101,68,-21,-33,-100,-228,-171,15
-39,128,-39,77,9,-42,-11,-148,-85,-82
-73,-266,0,-43,-86,-117,150,40,98,-55
-193,-786,-415,-151,-231,-240,281,166,180,-34
-283,-660,-372,42,-158,-126,130,186,96,-147
-249,-411,-44,326,194,180,-157,236,57,-171
-131,-257,275,2,74,137,-16,487,134,-45
-74,-110,428,5,-40,54,-17,418,74,4
74,61,-29,75,46,94,-54,176,58,81
349,660,68,-18,40,66,-51,-50,179,204
426,932,212,-38,-107,9,-103,-409,152,247
343,763,53,-145,-183,6,-149,-623,63,222
102,321,-31,-58,54,94,48,-375,-33,20
-99,-159,-15,24,113,66,100,-254,-283,-135
-105,-216,-212,-137,-102,-13,131,-329,-157,-139
-82,288,-258,-203,-199,-68,251,-182,-87,-138
-4,802,105,-45,-101,-45,193,172,35,-117
-52,350,303,-19,-39,-6,-148,178,12,-147
-177,-540,-56,-113,-99,2,-26,-9,-58,-139
-216,-1096,-133,0,2,60,142,109,18,-54
-107,-855,-108,46,56,96,112,237,61,42
70,-435,-215,3,93,168,96,107,21,135
162,-125,-28,81,154,236,191,6,67,197
227,267,215,162,155,177,167,-172,30,179
345,993,574,172,134,11,1,-223,25,72
324,1036,563,116,73,-57,-104,-77,74,19
91,293,-8,34,-22,-72,-161,-103,32,-2
-137,-302,-175,68,-33,-91,-201,-126,-37,-108
-225,-428,-117,158,9,-34,-19,114,-62,-188
-131,-226,-168,-92,-193,-66,94,362,-56,-148
-5,256,169,-321,-501,-223,16,440,-4,-105
10,1038,754,21,-449,-297,-28,390,-37,-214
-23,1140,564,261,-100,-319,-108,334,-110,-296
60,969,-19,0,-55,-282,-124,443,-39,-137
9,521,-145,47,-240,-264,-88,392,217,-71
-130,31,-291,345,-2,-212,-74,234,183,-113
-216,151,-40,471,374,52,25,132,-50,-155
-216,67,541,-30,128,76,-57,-301,-431,-203
4,-620,346,-453,-23,143,37,-390,-354,69
172,-1430,-464,-447,0,173,99,-239,-61,329
94,-1533,-745,-132,145,180,19,-234,20,307
58,-951,-541,-40,172,179,-7,-234,60,242
88,-395,-327,-22,197,324,189,-230,65,230
112,-31,-95,41,172,324,241,-365,-112,188
175,80,-16,31,143,168,51,-510,-237,185
190,38,-22,-37,58,73,-50,-515,-204,174
254,121,48,-58,-24,8,-72,-361,-9,153
234,337,260,280,215,40,24,-95,124,12
-22,15,11,377,272,9,17,-91,2,-116
-128,-182,-268,-100,-218,-207,-98,-82,-103,-120
-65,198,90,-162,-414,-207,-49,144,2,-80
-30,697,932,297,-315,-119,31,225,87,-49
11,896,909,313,12,-60,-10,124,-20,-57
29,303,-278,-321,189,-48,-146,31,-165,-8
-9,-336,-613,-447,-69,-46,-112,113,87,64
-154,-650,-217,-401,-400,-54,-24,123,126,23
-181,-528,-220,120,-273,-60,-79,-65,39,-66
-296,-512,-401,558,346,59,-57,-145,-99,-213
-116,-152,-250,-131,356,163,168,71,119,-48
105,333,-36,-436,-84,9,162,184,258,120
121,303,-134,-248,-122,-79,-26,54,208,113
110,532,-17,-126,-90,-101,-65,46,204,53
-35,371,63,-106,-85,-68,5,107,73,-81
-100,-69,337,-95,-121,-73,-64,50,-50,-133
55,-268,184,7,-117,-169,-229,146,67,1
171,346,86,19,-91,-252,-324,124,58,51
139,1089,108,-18,-85,-161,-126,34,-59,-77
-4,926,77,25,-124,-110,95,-197,-148,-192
109,67,-77,37,-140,-130,114,-294,-55,-14
-141,-1101,-127,745,580,253,13,263,88,9
-239,-778,-43,204,351,222,-14,158,-8,-51
-88,-183,-113,-594,-304,73,19,62,-129,-2
-18,-31,57,-555,-570,-111,-167,-18,-486,31
-56,-58,408,-20,-264,-7,-5,24,-186,-9
-69,-252,322,123,158,-10,19,-28,-25,-58
11,-289,-121,-53,174,-34,11,-48,45,-30
36,-224,-304,-4,82,20,56,-36,90,19
-1,-25,-52,12,67,-14,99,-21,60,7
31,320,-92,17,34,-47,131,67,67,24
30,284,-202,11,20,42,116,158,81,34
-81,-30,-216,26,46,145,-24,93,25,-22
-198,-518,-326,21,37,126,-32,-10,53,-30
-261,-690,-125,37,46,125,30,-38,62,-78
-105,-108,-259,-113,-3,72,139,201,202,-82
-58,313,-358,29,81,-43,85,301,259,-73
-220,-122,-316,-90,-34,-135,10,261,122,-103
-250,-464,-105,-209,-167,-136,0,220,55,-111
-222,-559,140,63,-79,-100,-12,195,109,-104
-166,-361,-2,82,-63,-90,17,256,206,-71
-62,-108,-373,-450,-297,-123,21,347,299,24
43,155,-74,-243,-301,-72,-52,131,202,65
61,96,328,404,18,9,-155,-284,-129,44
121,1,311,154,33,-126,-304,-540,-339,97
215,463,435,12,97,-255,-375,-702,-249,136
182,929,473,138,78,-206,-305,-420,-317,41
98,700,211,231,194,115,-48,45,-240,-26
166,589,-121,103,240,315,271,287,-20,114
177,314,-316,-110,116,310,425,216,79,185
70,-28,-218,-118,36,159,265,140,26,91
-5,-435,30,79,71,58,45,-5,-37,72
14,-737,159,108,104,97,-1,-214,-116,108
-29,-757,-8,37,161,264,193,-222,-129,96
-58,-533,-4,68,158,260,225,-249,-100,77
-60,-295,80,86,80,126,168,-146,-68,8
-37,-132,119,166,54,-35,185,-24,-35,-25
71,324,91,221,18,-260,234,117,76,-30
239,841,123,107,-79,-393,258,269,190,0
31,488,149,91,48,-24,-34,173,0,-147
-183,-39,100,68,84,219,-319,-82,-203,-265
-101,-128,88,273,188,143,-190,-175,-134,-126
0,48,213,-13,-27,-26,-176,-228,-62,-29
80,57,214,-445,-335,-174,-264,-235,-16,49
-37,-205,205,-350,-206,-162,-328,-254,-9,-17
-194,-317,388,-93,-106,-105,-195,-49,4,-123
-216,-118,216,165,-137,-47,35,207,23,-128
-110,77,-288,0,-219,-30,90,301,104,-65
-85,44,-359,-133,-116,4,66,362,154,-76
-163,-191,-444,-193,82,87,150,530,111,-125
-5,184,-265,-352,10,58,138,473,127,12
198,742,59,-141,28,96,170,188,150,154
293,599,-40,82,140,165,148,-142,141,195
150,-86,-249,75,124,151,92,-258,66,130
25,-673,-252,165,117,124,21,-209,61,142
22,-572,-128,179,169,114,-49,-206,-6,173
58,-183,33,162,176,100,-30,-260,-101,142
132,282,71,160,186,159,-5,-291,-94,140
169,501,191,190,122,101,-41,-233,-72,110
198,509,409,239,64,29,-15,-91,-37,48
266,510,538,273,156,84,51,22,91,27
112,276,463,100,-30,58,72,3,105,42
-20,362,454,-10,-212,-145,-190,-150,-13,-30
-119,468,147,30,-230,-298,-354,-314,-177,-196
-72,469,46,161,-111,-222,-239,-286,-154,-197
-11,412,-228,-7,-118,-120,-66,-152,-45,-132
-105,175,-172,-31,-127,-70,-20,-72,-33,-163
-180,-174,-58,176,-109,-173,-128,-84,-92,-274
-313,-893,256,846,318,-14,-13,22,-43,-251
-253,-1326,-135,182,291,165,199,269,150,-34
-47,-1123,-879,-994,-197,142,277,480,278,148
64,-532,-322,-575,-91,150,226,308,213,164
74,-192,143,-77,60,145,168,99,39,89
107,-193,-74,-34,31,64,53,32,-1,109
159,-110,-295,-81,-10,1,-30,23,69,131
219,292,-126,-48,31,-32,-7,174,170,81
163,553,134,59,49,-47,-11,222,105,35
73,473,230,211,71,25,46,232,-17,59
56,313,105,30,34,73,116,194,-45,60
14,-39,-173,-175,-24,51,89,87,-44,47
-48,-292,-296,-248,-122,-76,-16,45,-49,3
-2,-106,-75,-156,-126,-129,-84,1,-89,-8
98,594,282,40,-79,-128,-127,-3,-74,-5
97,1711,604,74,-115,-185,-174,40,-47,-42
34,1676,749,79,-100,-138,-88,124,4,-92
28,460,597,199,0,-28,48,120,26,-56
-17,-1008,159,189,52,33,120,3,27,48
-127,-1611,-465,6,-134,66,112,-255,-116,21
-70,-1169,-768,-123,-473,55,119,-290,-143,55
-98,-414,-409,165,-499,-115,7,-277,-180,-52
-63,143,174,481,82,-128,-77,-290,-223,-158
22,411,589,247,583,11,-61,-204,-184,-133
-3,179,92,-388,180,-145,-147,-219,-131,-100
-100,-43,-471,-523,-144,-210,-84,-35,13,-33
-165,-92,-485,-82,28,23,236,379,180,34
-124,-104,-493,-71,133,108,-9,230,190,65
-52,-59,-451,-213,111,59,-19,196,255,105
196,517,-262,-228,-4,-100,-20,297,412,152
251,937,-14,-102,-32,-159,-53,363,413,72
-1,193,74,48,37,-37,-8,205,154,-43
-93,-526,304,201,162,57,19,58,-85,1
-55,-822,414,212,114,92,64,83,-273,101
-89,-810,62,99,-31,137,133,0,-185,98
-4,-686,-414,-118,-33,138,100,-151,-67,137
103,-358,-476,-196,117,105,-27,-266,-36,143
92,-153,-239,-142,76,-13,-174,-299,-195,60
15,-134,-92,-49,-8,-29,-98,-184,-38,3
-15,-178,-142,50,4,3,-46,15,41,26
11,-212,-172,0,1,-27,-106,166,-71,36
28,-154,-98,-75,-42,-7,6,246,52,42
-24,-162,-40,-6,12,63,163,187,102,26
-82,-157,6,250,162,83,100,-21,-84,-60
-20,9,218,317,147,30,68,-125,-131,-12
68,108,250,395,161,-10,148,-136,-54,65
92,213,-7,302,174,15,216,-132,-15,100
97,619,-51,-194,-129,-11,-63,-202,-88,36
106,884,53,-360,-228,-20,-301,-267,-120,-17
106,928,308,-127,-187,-89,-253,-303,-144,-63
124,594,544,136,-76,-85,-177,-242,-96,-21
191,138,439,118,-12,-49,-45,-66,86,79
221,115,249,15,-78,-56,79,121,259,58
74,230,263,240,-13,33,-41,-70,184,-44
-140,329,305,530,141,-1,-255,-252,16,-130
-119,298,-191,37,63,-36,-204,-124,3,-105
-90,-135,-274,-444,-220,-50,24,-53,21,-37
-156,-510,178,-381,-279,-111,-106,-182,31,-51
-308,-667,30,-188,-178,-97,-340,-118,11,-113
-293,-505,-49,-16,-63,-99,-302,217,-80,-118
-20,-376,-103,4,55,37,-50,587,143,125
148,-130,-257,-93,14,56,74,509,31,196
98,-121,-246,-275,-90,56,222,182,30,77
-253,-697,-469,-13,67,105,191,88,27,-190
-268,-624,-366,-125,-59,40,211,354,101,-185
-185,-287,-263,-132,-86,-32,166,660,164,-156
-59,15,-185,-74,-63,-262,-285,725,-473,-212
-80,28,46,139,-34,-313,-485,418,-713,-254
-92,-61,114,521,221,18,-56,101,-72,-140
50,-81,-40,387,385,219,154,25,107,74
178,182,37,-107,173,247,114,-248,163,229
228,425,192,-167,108,225,23,-585,-1,223
234,471,350,-36,61,197,55,-549,-44,187
227,308,211,21,84,173,91,-388,-24,124
124,17,-18,2,43,65,10,-298,-24,53
78,-42,-41,-69,-31,-21,-72,-228,76,26
18,112,118,-63,-44,-56,-40,-103,117,-32
-33,465,374,52,-64,-137,-107,-133,15,-105
4,928,418,70,-88,-186,-166,-205,-81,-92
75,1689,434,129,-2,-63,9,-138,-106,-70
161,2415,566,101,-12,11,96,-99,-14,-75
136,1947,733,81,-153,-28,67,-152,-39,-143
15,463,1245,329,-277,-154,-112,-367,-139,-166
-227,-1286,755,509,-58,-109,-189,-468,-163,-191
-385,-2286,-656,-165,75,31,-83,-362,-39,-98
-332,-2035,-1112,-406,120,152,97,-197,80,25
-142,-1335,-940,-3,230,23,123,-126,45,129
34,-768,-673,-266,-3,-140,255,73,29,197
126,-130,-153,-182,-96,-68,445,294,280,141
77,57,26,-30,-5,236,99,82,215,21
-36,-250,-198,-28,63,241,-14,-141,79,13
-82,-422,-515,10,154,133,14,-178,-10,16
-5,-206,-457,-100,119,101,-8,-59,-12,27
142,402,-313,-154,-17,-3,-94,45,34,24
136,531,-393,-242,-145,-107,-109,236,55,-46
76,271,-132,-240,-133,-52,92,565,51,-96
25,-71,479,126,-24,25,288,781,125,-25
-108,-407,622,361,34,8,248,592,126,-5
-197,-623,-236,-121,-87,-52,95,244,115,-49
-226,-557,-669,-421,-200,-93,9,125,138,-85
-287,-467,-547,-338,-151,-93,-17,186,101,-181
-303,-412,-333,-204,-121,-153,-48,450,135,-205
-219,-278,-222,-173,-136,-122,14,782,249,-155
-76,-21,-161,-245,-176,-120,71,962,333,-82
-65,-62,-59,-137,-119,-107,53,806,191,9
18,137,324,89,38,3,81,332,-27,76
183,367,516,190,123,99,71,-259,-117,149
298,489,397,353,183,93,-62,-536,-156,245
215,685,539,499,168,-36,-161,-552,-197,151
335,1351,469,334,70,-207,-240,-493,-209,179
483,1550,233,34,15,-232,-157,-298,-428,196
366,849,88,53,162,130,-27,-570,-305,158
236,47,80,303,367,259,-108,-809,-200,149
-4,-462,-44,93,229,244,30,-684,-150,93
-26,-538,-178,-260,-51,210,172,-478,-18,134
-113,-547,-47,-86,-74,96,59,-516,-97,48
-228,-711,-138,-45,-85,27,-55,-608,-215,-81
-240,-511,-11,6,-136,-12,-12,-369,-112,-110
-244,-194,186,121,-153,-71,0,-39,0,-119
-201,20,91,39,-108,-94,2,387,232,-97
-200,43,131,-77,-17,-93,-10,562,330,-107
-193,-106,116,220,98,-42,20,531,286,-57
-135,-374,-224,237,172,68,130,450,234,-1
-54,-424,-361,-240,-16,113,188,386,182,58
-23,-344,-189,-311,-53,135,197,393,198,90
-25,-112,106,68,8,31,80,291,110,40
34,172,41,70,-33,-17,6,321,104,56
54,133,-290,-296,-116,-28,3,289,100,67
27,10,-85,-154,-13,-9,26,177,68,53
46,-49,180,1,2,-11,3,-87,-52,48
53,-34,73,-27,-16,6,-4,-397,-243,24
87,122,244,41,46,0,-32,-318,-295,20
239,669,548,233,156,46,73,-43,-19,4
387,787,473,273,209,99,84,49,71,86
346,518,-37,58,78,5,-62,-105,-83,177
279,404,-299,-223,-114,-217,-177,-352,-319,115
240,638,399,-121,-147,-249,-56,-422,-295,9
224,1003,891,204,37,-24,-132,-389,-230,2
252,1583,628,202,90,130,-272,-316,-135,21
260,1854,458,34,1,14,-223,-165,-137,47
85,1111,672,74,-28,-42,-195,-226,-217,-26
-80,-481,533,134,-4,11,-71,-198,-20,-5
-210,-1628,345,180,74,56,53,-62,29,-12
-337,-1878,-85,443,166,80,88,-65,-13,-89
-219,-1231,-1488,-326,33,194,260,107,82,6
-225,-847,-1268,-617,-116,44,98,131,85,-63
-48,-371,-504,-381,-134,-114,-59,260,-72,-23
25,-317,-325,-140,-58,-162,-127,337,-316,8
-112,-290,-114,96,-24,-4,50,205,108,-35
-139,-145,-21,-46,-231,-69,-36,60,57,-123
-75,94,50,-182,-351,-241,-70,166,71,-156
-61,180,88,-60,-49,-229,-36,196,73,-150
11,383,61,33,111,-103,-48,109,128,-36
96,524,-54,106,186,135,-49,56,206,42
41,377,312,157,87,73,-123,-69,91,-51
18,-2,370,248,3,16,-66,-179,-38,-63
50,-473,-185,350,177,156,59,-345,-113,40
-32,-677,-462,155,155,153,6,-503,-223,20
-67,-598,-424,-264,-33,110,59,-325,-125,42
-197,-499,-486,-403,-206,-23,80,-64,-19,-71
-257,-435,-437,-336,-242,-78,145,383,176,-170
-155,-124,-299,-294,-220,-128,106,682,388,-169
-185,348,-141,-302,-298,-268,-85,681,412,-165
-109,921,-10,-297,-347,-326,-152,678,376,-144
-36,780,43,-171,-240,-178,-135,412,182,-152
-41,161,145,21,-33,108,-25,-24,-66,-127
-25,-616,71,156,63,217,107,-142,-34,10
71,-870,-270,496,360,223,50,-308,45,166
219,-314,-155,432,471,268,50,-273,121,233
371,355,319,181,253,271,129,-370,62,242
270,142,399,246,200,212,-95,-862,-190,218
