-47,-65,-13,-39,-37,-14,59,19,-87,-63
-44,-60,-12,-39,-31,-25,43,10,-86,-55
-10,-4,-54,-32,-4,-23,31,-9,-67,-31
184,410,-55,-11,69,-12,29,41,1,-3
266,606,71,6,111,8,25,53,38,23
60,176,50,9,37,25,34,-28,3,44
-41,-69,27,3,-7,32,9,-93,-20,64
-21,-77,39,-2,-12,16,-32,-104,-22,94
-9,-76,33,-8,-17,9,-17,-85,-11,97
-7,-69,20,-9,-24,0,-10,-51,-3,83
39,15,28,-3,-7,-8,-9,-5,0,82
54,4,9,-6,-5,-55,-15,-10,1,93
15,-120,-82,-39,-49,-89,-8,-32,-19,82
0,-154,-112,-71,-73,-104,12,-32,-4,35
-26,-160,-74,-80,-57,-72,42,-33,-12,-20
-26,-131,-107,-77,-43,-35,62,-28,-44,-66
-39,-120,-28,-45,-28,-25,106,2,-62,-114
-46,-58,27,-17,0,-31,138,17,-51,-129
44,169,52,-1,37,-48,111,45,-40,-102
3,-6,27,-10,4,-40,46,-23,-51,-83
-32,-77,24,9,16,0,40,-38,-44,-100
-19,-60,38,18,24,15,58,-26,-37,-102
-21,-52,54,3,43,18,48,-35,-30,-93
-15,-55,49,-12,41,19,42,-53,-21,-53
-12,-45,21,-9,25,12,41,-71,-16,-3
87,179,40,8,72,12,41,-36,-2,-2
228,452,71,14,121,9,79,26,39,-10
49,86,39,-10,36,6,80,-22,-10,-13
-20,-63,22,-13,-13,6,56,-49,-7,-8
-18,-56,29,-14,-18,6,57,-44,13,-3
-30,-44,41,-8,-9,27,63,-27,16,-7
-40,-40,2,-2,6,28,76,-24,34,-21
-39,-8,-21,0,3,14,99,-13,39,-36
-22,60,49,8,28,12,121,18,44,-28
-74,-60,46,8,8,14,138,0,45,-9
-68,-101,-42,-9,-22,-7,111,-28,64,26
-62,-101,-131,-33,-53,-36,31,-56,67,63
-50,-91,-40,-33,-60,-33,-11,-60,47,96
-28,-69,20,-16,-48,-21,-27,-84,38,140
-11,-47,4,-19,-33,-38,-59,-104,22,139
63,179,17,-10,19,-52,-45,-13,64,134
150,439,57,14,87,-34,-11,76,103,115
-2,54,-7,-7,-4,-31,-40,-8,48,115
-51,-77,-20,-16,-40,-14,-46,-6,13,83
-30,-67,15,11,-25,18,1,76,17,53
-9,-63,6,23,-9,32,21,106,8,51
24,-57,-2,30,-5,36,19,97,17,54
41,14,53,38,23,41,51,146,58,63
137,378,81,82,103,44,108,240,59,78
142,465,81,87,124,37,131,237,44,91
-10,58,34,18,11,7,76,81,-27,69
-72,-146,-14,-25,-70,-24,-6,-13,-69,64
-72,-150,-41,-30,-82,-35,-82,-20,-54,72
-71,-131,-31,-31,-70,-31,-113,-14,-51,41
-64,-121,-27,-30,-58,-35,-118,-36,-44,14
-15,-10,-8,-8,-37,-45,-144,-77,-43,-11
-23,-9,-22,-5,-28,-37,-130,-96,-41,-11
-70,-89,-29,-4,-43,-32,-148,-108,-63,-22
-48,-77,-22,1,-39,-26,-187,-123,-67,-16
-34,-70,-11,6,-35,-39,-180,-134,-66,-37
-47,-62,0,8,-22,-35,-135,-105,-72,-71
-63,-46,-5,40,10,12,-43,9,-54,-101
-33,47,12,58,59,46,36,126,-14,-109
155,506,66,77,143,58,61,241,54,-83
182,579,64,46,132,46,36,251,62,-80
-28,67,1,-22,7,20,-20,92,-8,-80
-95,-147,-14,-46,-64,-26,-50,-7,-44,-53
-93,-139,-12,-38,-79,-47,-24,-25,-59,-52
-100,-150,-8,-29,-76,-17,7,-24,-65,-59
-96,-146,-20,-3,-84,-19,-35,-29,-52,-59
-70,-41,-109,18,-53,-69,-86,-25,-47,-65
-78,-45,-141,21,-31,-83,-99,-19,-51,-71
-109,-115,-30,25,0,-73,-90,5,-42,-72
-93,-106,20,48,58,-74,-92,15,-23,-89
-77,-93,19,59,95,-82,-79,-49,-21,-74
-49,-99,-6,34,61,-112,-94,-97,-17,-25
-55,-96,-9,21,0,-116,-130,-112,-30,-11
-25,-13,2,9,-29,-89,-151,-103,-9,9
38,180,11,0,-3,-51,-115,-80,50,22
-27,2,-13,-23,-32,6,-106,-127,108,35
-36,-62,-36,-50,-90,11,-75,-68,190,62
-20,-73,-46,-65,-146,-11,-8,59,194,50
5,-52,-5,-31,-70,-13,78,181,93,-2
4,-32,43,24,41,14,160,236,38,-25
-14,-13,68,74,110,94,264,221,0,-35
112,270,96,115,174,98,225,173,-3,-25
244,481,94,131,174,17,114,114,34,-2
77,35,-9,86,60,-59,5,-33,-5,23
3,-106,-6,60,39,-89,-63,-72,-37,8
-23,-113,14,88,58,-90,-101,-79,-71,-40
-55,-93,67,153,-13,-136,-160,-95,-90,-71
-51,-60,119,172,-122,-234,-183,-85,-76,-63
-20,-21,89,125,-72,-218,-143,-20,-37,-39
-22,56,8,73,26,-166,-111,-21,-35,-84
-84,-51,-27,35,18,-143,-119,-77,-72,-111
-80,-57,-21,-5,-137,-154,-93,-77,-86,-89
-32,-46,-34,-50,-315,-204,-76,-70,-58,2
27,-25,-38,-98,-403,-240,-37,-51,15,115
55,-26,-58,-123,-366,-247,44,14,64,145
60,-39,-57,-116,-180,-276,119,112,123,144
126,192,-37,-67,151,-162,140,217,140,119
192,519,5,49,479,107,105,233,21,29
168,519,4,20,293,148,73,193,-42,-9
59,285,-67,-50,161,289,67,103,-39,0
-79,-126,-157,-90,158,541,109,12,-28,47
-49,-172,-141,-69,128,596,158,42,18,113
-28,-143,-92,-32,4,461,170,42,25,118
-22,-115,-95,12,-18,334,98,1,0,63
2,-73,-103,27,43,285,76,13,9,33
-53,-181,-145,26,74,176,104,42,15,50
-57,-194,-162,53,211,-6,60,-1,11,70
-81,-179,-62,137,400,-83,-17,-65,-24,2
-139,-172,-17,202,478,-128,-167,-108,-47,-92
-184,-153,-5,228,395,-168,-251,-117,-45,-144
-181,-134,0,191,201,-145,-202,-58,-16,-149
-88,-33,-3,115,43,-110,-142,31,35,-101
-79,-75,-3,49,13,-78,-121,8,25,-78
-119,-157,-26,5,145,39,-44,-10,34,-96
-109,-160,-148,-63,116,178,3,18,100,-57
-70,-136,-213,-193,-280,176,4,48,106,-18
-66,-105,-83,-221,-427,179,30,59,62,-37
-44,-95,1,-205,-274,330,136,93,80,-33
44,38,26,-218,-152,432,244,201,187,27
249,501,90,-224,-157,358,251,317,294,88
293,541,122,-234,-264,254,212,293,305,111
120,86,113,-225,-396,100,123,102,224,103
35,-77,98,-177,-390,-87,3,-108,129,72
10,-97,87,-123,-239,-168,-60,-194,62,49
6,-78,189,-16,4,-198,3,-146,66,24
-11,-60,214,44,-24,-291,48,-135,17,-41
-19,22,276,39,-135,-334,16,-91,-59,-136
-63,-24,303,33,-217,-316,15,-29,-42,-165
-99,-117,283,0,-260,-347,-41,-61,-26,-150
-149,-180,235,-41,-234,-429,-119,-159,-52,-181
-174,-212,173,-79,-159,-447,-84,-213,-73,-194
-125,-202,145,-73,-62,-354,-9,-209,-62,-158
-117,-188,159,-54,55,-148,-11,-207,-93,-195
-92,-67,145,-44,216,108,-10,-197,-93,-210
-20,81,158,-35,559,305,61,-177,-39,-193
-108,-139,147,-29,660,426,134,-180,-22,-122
-77,-126,129,17,472,560,270,-107,14,-53
-58,-61,212,72,176,335,238,-140,7,-66
-47,-36,309,58,53,1,90,-211,-8,-61
-34,-57,301,53,273,-29,117,-277,-16,-37
-19,-80,254,3,267,5,302,-262,-20,-32
109,244,268,-29,355,50,390,-190,22,-53
188,398,275,-66,397,59,352,-158,73,-21
4,-16,246,-96,55,71,342,-216,47,7
-24,-98,234,-125,-200,130,368,-188,51,31
-17,-89,231,-160,-299,263,381,-180,34,29
-7,-62,253,-174,-304,328,378,-264,-14,31
16,-71,229,-179,-272,241,383,-395,-26,65
82,-15,232,-147,-101,-43,335,-440,24,118
107,51,262,-49,114,-220,157,-415,7,83
43,-31,273,32,267,-160,99,-358,-16,67
76,13,320,46,182,-99,143,-182,29,107
80,59,325,1,-118,-81,241,-200,17,115
41,57,259,-119,-578,-99,369,-304,50,136
13,-2,143,-308,-843,-164,425,-231,97,154
49,-12,67,-424,-712,-130,457,-155,119,183
153,253,56,-404,-369,127,501,-68,135,189
244,486,61,-267,-118,219,530,-1,129,174
134,212,100,-124,-16,80,463,-89,60,109
33,-26,232,30,210,59,426,-227,16,64
57,0,269,106,275,-10,376,-300,68,92
2,-20,261,182,259,-155,221,-475,-14,36
-22,-37,261,224,215,-256,155,-600,-105,12
-45,-50,237,122,-47,-392,110,-547,-139,1
-58,-65,176,7,-313,-485,114,-420,-176,-18
-60,-72,111,-24,-418,-451,157,-391,-211,-17
-127,-107,31,4,-202,-380,144,-416,-305,-115
-112,-91,65,109,321,-277,182,-395,-343,-149
-87,-49,110,203,486,-171,234,-387,-339,-151
-68,-16,129,283,521,89,301,-353,-233,-156
-98,-37,15,289,409,396,381,-266,-188,-170
-106,10,-99,280,480,586,445,-162,-125,-166
-119,-46,-191,192,428,431,493,-60,-17,-117
-130,-110,-231,50,-55,178,493,-1,106,-84
-166,-186,-289,-165,-612,88,561,-7,152,-89
-128,-190,-381,-326,-572,129,711,53,164,-69
-52,-122,-371,-356,-340,-63,624,43,97,-63
-56,-95,-350,-305,-23,-202,444,-7,-23,-80
-4,60,-287,-146,309,-152,344,-137,-89,-64
104,486,-144,68,598,171,430,-315,-184,-140
149,516,-60,148,476,695,731,-243,-116,-56
128,142,-150,52,32,855,899,-95,25,100
82,49,-263,54,-117,733,764,-161,-23,63
22,2,-297,80,-105,601,625,-169,-38,5
-33,-86,-342,17,-154,115,508,-48,33,-14
-23,-99,-361,3,-156,-439,404,-55,76,-2
94,39,-333,1,-94,-484,363,-153,111,65
84,30,-279,10,-167,-309,302,-188,137,124
72,19,-239,0,-352,-273,153,-176,115,136
76,14,-262,-65,-460,-274,95,-106,102,115
26,-53,-422,-111,-412,-253,85,-60,50,51
-30,-97,-486,-79,-240,-234,132,-220,-53,4
-3,-48,-357,59,-34,-351,76,-495,-135,36
89,136,-327,88,-139,-481,-4,-576,-143,74
135,271,-304,17,-239,-247,84,-433,-63,81
-26,-33,-310,25,37,201,213,-370,-76,39
-85,-113,-326,62,183,510,271,-366,-123,-20
-40,-86,-327,28,318,768,279,-327,-85,24
46,-36,-339,-43,257,921,392,-197,18,132
88,1,-299,-25,21,319,443,-165,67,167
104,61,-262,18,38,-167,487,-305,55,150
216,422,-184,53,64,-115,519,-310,75,118
203,440,-207,73,71,10,473,-347,68,79
-27,6,-224,192,266,134,377,-546,-64,-2
-149,-98,-154,273,500,62,221,-687,-215,-126
-200,-135,-225,203,624,43,165,-767,-282,-215
-166,-135,-278,181,673,124,205,-754,-231,-203
-84,-66,-191,289,517,-82,203,-680,-114,-132
-30,26,-139,263,115,-186,301,-555,-51,-87
-37,15,-195,127,-273,-43,658,-314,0,-58
-26,-67,-218,53,-367,-21,835,-195,91,22
-50,-67,-181,47,-307,-182,710,-251,82,11
-102,-119,-222,-31,-245,-153,671,-260,44,-54
-27,-116,-282,-122,-72,62,714,-156,117,5
59,-83,-299,-166,-100,309,757,-73,238,146
69,-37,-256,-137,-315,372,603,-148,207,161
54,4,-261,-59,-273,388,461,-222,129,119
112,32,-258,-29,-138,193,468,-198,143,180
141,43,-160,-6,-211,-264,309,-187,157,202
110,31,-118,59,-191,-440,71,-244,88,131
86,36,-84,133,-102,-322,-25,-274,46,87
91,70,-45,152,-142,-39,-45,-276,26,24
55,35,-93,55,-363,202,54,-188,39,-18
144,192,-144,-65,-695,306,194,-1,130,14
427,650,-166,-215,-493,451,357,303,359,165
397,543,-206,-200,97,310,312,370,422,219
85,0,-257,-68,362,147,107,151,213,101
-127,-201,-271,67,405,-28,-118,-66,-36,-69
-222,-231,-217,153,358,-173,-233,-162,-151,-163
-191,-182,-112,221,231,-382,-304,-154,-136,-185
-166,-99,-10,277,114,-599,-457,-197,-179,-217
-84,54,71,274,152,-671,-572,-201,-153,-172
-37,29,71,189,181,-656,-657,-156,-104,-85
-30,6,59,146,65,-487,-693,-105,-84,-52
-74,-37,18,143,186,86,-662,-94,-115,-97
-63,-31,4,142,186,472,-626,-53,-112,-71
13,-50,-102,-13,-48,578,-416,96,-8,75
38,-109,-226,-122,-206,439,-191,215,79,154
42,28,-197,-8,152,101,-302,185,39,95
128,369,-85,72,609,156,-318,221,-9,31
66,248,-34,23,367,332,-296,152,-115,-43
-75,-72,-15,29,127,332,-324,155,-171,-86
-117,-122,14,124,134,190,-345,383,-132,-70
-115,-124,52,193,155,186,-317,425,-41,-43
-45,-141,17,94,-181,180,-215,493,130,57
23,-105,-63,-80,-404,131,-176,496,162,107
69,13,-87,-152,-61,190,-220,466,128,92
56,-48,-99,-230,-34,167,-271,461,150,108
119,-27,-75,-423,-387,-4,-238,546,229,167
159,-10,-52,-414,-346,75,-182,577,215,211
58,-83,-32,-210,-185,163,-223,466,54,79
-13,-116,-23,-64,16,204,-277,360,-12,-2
73,-33,32,-78,-103,76,-288,376,80,77
169,202,103,-5,-112,-73,-344,432,132,82
145,250,139,103,56,-96,-419,455,145,-3
-14,-43,66,34,45,-116,-472,405,160,-49
-25,-70,12,-64,-81,-98,-541,363,209,31
0,-33,83,-48,-279,-268,-773,271,152,52
-10,-20,111,22,-303,-221,-731,263,140,5
9,-6,89,50,-168,-145,-583,327,204,22
23,56,96,45,-358,-288,-543,389,190,29
130,415,137,45,-187,-199,-360,515,153,19
106,299,49,-42,248,168,-286,559,206,120
2,-46,-30,-57,171,67,-392,489,203,161
-82,-85,27,135,287,-267,-561,329,101,72
-129,-98,76,248,562,-274,-710,223,43,-21
-188,-153,62,282,831,22,-701,273,-18,-103
-224,-199,12,195,972,456,-677,346,-115,-154
-132,-101,44,73,544,388,-683,426,-56,-63
-23,-5,71,-29,-11,-83,-729,503,62,35
-17,-36,4,-49,-254,-151,-800,494,66,5
-51,-57,8,9,-191,13,-817,457,40,-29
9,-12,81,-7,-264,-60,-769,532,51,5
24,-3,55,-69,-289,53,-644,614,22,-45
11,-56,-127,-131,-48,222,-604,656,107,-20
-24,-54,-149,-109,117,-11,-778,570,118,-54
87,256,-206,-147,110,-172,-790,560,104,-93
126,376,-177,-139,177,-38,-678,587,92,-116
-49,11,-78,-188,9,256,-508,599,62,-94
-115,-179,-42,-219,-321,524,-405,661,58,-62
-84,-163,15,-188,-360,700,-366,740,53,-46
0,-93,107,-146,-172,657,-342,770,96,24
46,-57,112,-103,-49,488,-367,713,126,84
86,112,132,-18,72,333,-419,665,97,82
69,107,122,36,161,141,-492,592,69,54
-16,-103,91,70,204,65,-474,463,76,16
-13,-91,97,87,155,8,-500,383,89,10
-5,-73,80,62,45,15,-547,384,110,31
3,-41,74,114,53,61,-501,416,55,8
1,-4,71,179,67,57,-380,463,36,-61
-3,-2,25,100,7,18,-343,514,124,-30
-34,-2,16,12,83,-24,-457,420,55,-22
-107,-135,-67,-49,46,-48,-496,285,-88,-73
-95,-131,-50,-50,-264,-221,-497,250,-90,-88
-42,-48,19,-17,-507,-308,-524,243,-68,-62
-39,12,114,67,-485,-229,-512,229,-66,-65
-38,36,224,171,-574,-292,-497,193,-71,-86
-26,-27,119,22,-503,-343,-390,212,-12,-34
102,180,50,-4,644,-323,-380,235,50,18
273,578,92,92,1042,-431,-498,224,88,29
165,331,13,95,560,-409,-477,140,28,36
43,-37,-52,58,170,-198,-387,94,38,100
101,-62,-73,-137,-294,-13,-253,204,178,210
79,-94,-149,-276,-387,190,-91,309,249,208
-44,-166,-193,-213,-131,370,-110,270,129,54
-13,-99,-180,-234,-120,543,-3,293,114,32
66,24,-130,-218,13,552,133,276,119,80
30,-27,-22,-60,-40,301,59,157,82,91
9,-31,51,49,-48,-3,-39,95,87,84
-6,-74,54,87,75,-94,-54,94,116,75
-34,-99,-2,40,81,-130,-14,127,132,78
-51,-78,-45,-9,175,-200,14,187,110,57
-62,-52,26,-43,41,-221,0,170,39,-1
18,146,61,-108,-238,-213,-55,135,38,-27
15,125,22,-78,-271,-229,-86,58,37,-25
-90,-141,-80,-34,-92,2,-12,-21,3,-33
-53,-167,-71,-74,148,544,91,6,36,26
-18,-133,-83,-56,142,621,85,0,6,34
-19,-101,-21,103,340,396,103,11,0,1
-12,0,140,272,480,274,83,18,33,28
5,106,209,324,258,128,-77,-67,-20,9
72,357,51,203,-33,-89,-198,-86,-40,-46
11,155,-119,-60,-348,-63,-90,-96,-58,-69
-31,-52,-126,-269,-336,4,15,-87,-28,-16
52,11,-43,-348,-228,-86,38,10,99,133
95,35,-5,-294,-274,-190,97,105,163,188
20,-71,-121,-167,-127,-150,159,126,65,89
-33,-120,-106,-80,-50,-111,177,123,-65,-44
21,0,19,-62,-40,-91,187,154,3,-37
14,-22,37,-63,-77,3,188,115,43,-9
-66,-106,47,17,-14,62,182,38,-40,-46
-64,-106,72,88,64,40,181,18,-50,-40
-20,-80,103,21,87,-66,168,45,45,7
-9,-68,76,-29,34,-118,121,20,77,16
-14,-90,62,-51,-212,-136,42,-59,-26,33
4,0,93,10,-174,-23,-6,-97,-95,12
136,390,116,93,228,270,57,-33,-83,-30
145,461,152,102,295,324,68,-28,-110,-61
8,72,160,50,73,30,-4,-102,-116,-31
-22,-62,167,61,70,-180,-76,-92,-145,-34
-27,-76,170,88,113,-155,-140,-64,-165,-65
-63,-115,89,-24,-50,-132,-120,-44,-114,-68
-36,-117,21,-144,-136,-3,-32,31,-54,-40
14,9,55,-79,63,181,-25,83,-14,-36
-25,-20,51,4,230,241,50,119,-25,-75
-56,-82,74,45,117,7,-25,114,11,-78
-50,-65,104,60,-131,-181,-262,65,54,-54
-12,-44,139,99,-148,-26,-420,41,44,24
37,-12,174,125,-91,241,-362,132,84,110
57,37,232,126,-272,273,-228,217,19,103
45,60,183,55,-167,208,-133,233,-58,49
73,76,74,-31,357,39,-132,289,-27,14
18,-51,-8,-178,162,-196,-248,256,61,0
-38,-85,-34,-163,-40,-302,-324,215,-35,-17
-71,-88,-17,-103,-97,-352,-395,154,-153,-61
-69,-85,8,-90,-73,-296,-397,100,-147,-76
-57,-77,55,-48,-31,-107,-287,107,-108,-63
-34,-42,103,-25,17,76,-168,145,-69,-41
82,276,169,39,187,177,-81,229,-76,-86
240,624,199,68,237,67,-158,255,-69,-102
133,302,83,28,46,-119,-255,107,-115,-44
-35,-83,-4,10,-128,-171,-242,-32,-183,-3
-77,-123,28,57,-71,-202,-256,-60,-180,-19
-89,-130,108,83,60,-190,-252,-50,-142,-39
-44,-116,106,38,29,-48,-210,18,-66,18
12,-59,81,-4,-122,-12,-200,80,-12,73
41,5,112,29,-153,-191,-228,94,-36,26
8,-47,138,83,-99,-359,-220,55,-96,-31
-14,-45,143,142,252,-221,-164,53,-103,-41
-74,-115,75,197,409,-200,-178,-3,-161,-51
-110,-142,45,250,188,-368,-200,-30,-198,-79
-85,-73,106,277,-164,-494,-227,-73,-258,-110
-66,-44,148,194,-374,-674,-360,-177,-318,-97
47,144,190,169,90,-586,-367,-145,-255,-3
83,105,170,149,65,-440,-278,-126,-142,74
-49,-125,-7,-12,-1,-81,-71,-195,-179,7
-68,-127,-125,-248,48,305,189,-112,-160,-5
-47,-108,-117,-295,-135,204,275,27,-66,30
-22,-99,-43,-157,-238,125,297,106,37,55
0,-17,103,20,-289,180,176,87,149,8
63,145,233,112,-191,452,219,86,118,-25
291,498,133,-27,-132,429,356,233,115,41
186,261,75,-101,-88,105,329,189,-15,93
-97,-142,30,2,198,83,129,-86,-320,-47
-103,-160,99,101,387,368,87,-102,-299,-18
15,-112,107,54,227,553,194,77,-97,122
5,-173,-58,21,384,601,166,72,-64,101
-33,-162,-78,103,618,299,115,-18,-110,56
21,17,33,172,618,-7,151,-70,-129,6
35,13,33,120,96,16,117,-85,-125,0
22,-49,26,76,-461,-86,23,-55,-70,33
10,-21,202,105,-681,-330,0,-60,-56,14
86,23,217,43,-547,-317,73,-50,30,137
110,23,141,86,-573,-607,-112,-180,11,247
0,-57,96,80,-479,-805,-438,-383,-140,153
8,-5,-65,-107,-186,-530,-402,-361,-134,168
171,373,-144,-130,379,-324,-219,-242,-96,201
103,340,-170,-52,339,-216,-178,-194,-110,70
-93,-73,-117,-130,-94,-27,5,-2,-57,-65
-102,-182,-87,-138,-131,218,235,150,-24,-143
-36,-150,-87,-110,-69,543,291,150,70,-125
25,-126,-114,-46,181,609,208,84,126,-9
51,-1,-19,-13,197,342,109,49,148,34
97,227,197,-27,33,254,219,52,126,46
70,110,144,-15,-46,355,331,5,51,23
5,-80,-17,-7,-11,331,284,-82,0,13
-36,-203,-112,-47,5,42,206,-109,43,39
-92,-149,19,41,118,-176,-61,-231,-51,-14
-67,5,168,184,244,-175,-225,-354,-141,2
-58,19,168,251,361,-267,-352,-421,-130,53
-32,6,47,187,231,-420,-504,-448,-108,101
-4,43,84,165,-81,-363,-476,-406,-67,103
-36,-18,163,126,-525,-238,-433,-395,26,122
-24,-43,177,52,-849,-167,-314,-318,83,119
-7,-12,194,18,-432,-76,141,-66,69,41
4,-32,62,-18,171,-69,382,84,59,-36
4,-89,-84,-147,454,159,336,95,46,-44
7,-82,-136,-160,375,345,302,202,173,48
162,268,-77,-80,243,375,374,371,233,55
260,608,-34,26,130,66,285,259,70,-97
59,214,-104,59,-145,-354,164,109,-32,-187
-93,-89,-110,83,-239,-392,76,-37,-75,-166
-101,-63,62,88,-66,-544,-99,-249,-172,-125
-98,-151,18,28,242,-574,-181,-373,-271,-79
-109,-252,-123,-43,385,-171,-58,-360,-290,-53
-31,-160,-82,-35,405,632,166,-208,-164,29
76,-21,7,-83,55,989,302,-5,-84,94
23,-63,27,-68,-257,841,318,95,-185,4
-21,-72,41,29,-364,454,309,190,-52,-71
-39,-112,-75,-42,-382,190,255,201,92,-70
20,-98,-72,-161,-245,42,180,182,139,64
4,-113,-39,-95,39,-176,61,123,157,93
-30,-93,47,31,102,-310,-68,41,118,50
27,33,85,52,-180,-536,-135,5,134,63
-7,-23,98,230,-191,-786,-184,-30,85,28
-117,-110,94,353,121,-955,-290,-36,-117,-106
-145,-99,54,325,363,-922,-338,-46,-318,-249
-91,-18,67,297,408,-856,-278,-23,-258,-231
-20,68,109,196,574,-402,-168,51,-50,-112
-1,97,135,130,414,592,92,207,10,-57
33,183,39,44,-42,1166,310,309,26,-72
183,506,-83,-85,-115,1160,496,376,129,-66
121,366,-221,-142,-25,800,605,329,129,-25
-57,-22,-81,-65,-78,149,303,136,21,-12
-116,-134,11,-13,-146,-2,59,91,-68,-52
-152,-213,-37,-19,-179,94,100,127,-99,-86
-153,-208,-75,-91,-275,214,214,130,-54,-84
-40,-154,-181,-173,-218,392,263,174,42,26
26,-36,-134,-57,70,489,243,195,65,62
-46,-99,-22,88,39,219,225,113,29,34
-97,-169,-93,168,-21,-31,130,1,0,10
-128,-180,-146,130,177,-70,0,-76,-50,-33
-94,-150,-146,-40,2,-257,-116,-29,-56,-6
-10,-94,-170,-115,-225,-480,-193,-40,-52,84
8,-29,-100,-88,-161,-309,-68,-51,-25,128
59,152,-14,-81,-248,-36,117,17,23,128
204,458,-46,-90,-378,-154,76,65,52,102
138,310,-63,-46,-357,-336,-24,-59,-24,30
-24,-6,32,4,-28,-90,4,-196,-83,-14
-63,-63,98,32,468,59,22,-184,-48,-19
-70,-141,24,47,414,-168,-17,-157,-56,-34
-89,-205,-19,54,277,-179,32,-110,-77,-33
-74,-184,-17,28,71,-28,70,-76,-42,-20
-31,-53,22,18,-206,118,-4,-135,-69,-40
-54,-51,42,2,-308,41,-72,-191,-82,-54
-70,-107,4,163,-24,-336,-112,-214,-36,-40
-113,-145,-21,367,450,-474,-176,-248,-61,-101
-83,-47,149,457,348,-534,-270,-252,-127,-131
-18,57,266,262,-343,-572,-258,-235,-150,-89
43,-17,84,-147,-797,-593,-253,-190,-108,32
51,-68,-197,-385,-320,-634,-302,-252,-275,69
12,-55,-261,-463,127,-235,-119,-290,-389,-3
-26,-85,-100,-378,30,713,251,-212,-269,39
-3,-135,-126,-229,14,1166,487,-83,-158,175
12,-171,-193,-171,-116,766,423,161,35,189
5,-121,-136,-123,-86,588,349,287,209,61
14,-57,-71,-41,51,550,423,330,373,-29
7,-17,-92,-96,13,282,404,252,449,-20
137,334,-46,-75,25,43,263,139,266,30
202,538,38,-11,69,-55,171,90,176,49
0,119,105,138,127,-49,96,-85,-55,-15
-44,-52,195,241,76,-53,47,-201,-260,-51
-52,-70,49,167,-18,-114,5,-264,-259,-35
-114,-106,-4,231,76,-275,-134,-398,-244,-50
-107,-54,128,200,150,-336,-149,-359,-199,-74
-22,-53,-19,-109,-19,-260,-44,-117,62,11
55,-64,-107,-316,-261,-186,-4,52,214,111
11,-161,-83,-265,-318,127,148,129,102,13
-18,-131,-35,-153,-397,289,307,181,18,-73
-58,-134,-45,-75,-317,181,266,113,-73,-131
-117,-183,-141,-28,67,-103,166,62,-45,-198
-116,-124,-175,1,275,-56,110,40,-4,-200
-54,76,68,164,254,-157,-53,-82,-47,-139
-18,197,293,319,244,-635,-260,-181,-22,-95
-63,-11,142,262,224,-715,-242,-104,32,-75
-64,-66,146,314,318,-422,-169,-91,87,-27
-122,-143,34,263,228,-76,-277,-267,-76,-12
-105,-160,-160,104,89,292,-304,-364,-223,32
-48,-142,-259,-22,46,440,-196,-309,-149,132
27,-63,-179,-219,-557,451,63,-146,29,201
248,255,-18,-375,-498,615,392,141,150,282
525,778,45,-475,-393,448,660,452,201,249
403,710,50,-243,-5,292,630,523,267,45
19,91,-11,-45,105,122,304,304,198,-80
-69,-144,79,81,16,72,122,106,34,-32
-23,-95,167,164,-49,147,86,63,2,9
-3,-76,153,176,-117,73,66,72,-10,-2
29,-20,120,178,-43,-129,55,63,-30,-19
74,149,179,114,39,-271,21,-17,-40,-54
51,28,176,157,151,-378,44,-81,-15,-13
-22,-124,142,272,362,-184,94,-77,-52,2
-46,-137,111,204,291,9,-128,-111,-62,16
-75,-116,70,98,27,-167,-233,-163,-117,5
-178,-192,-30,-20,-150,-605,-172,-175,-168,-121
-130,-196,-121,-245,-272,-843,-157,-97,-55,-74
-8,-21,-204,-443,-137,-362,-66,-54,-7,9
138,347,-125,-332,-37,231,74,57,98,83
98,203,-103,-180,-26,583,94,-60,71,126
-32,-148,-115,-91,164,339,72,-192,-53,100
-121,-181,-32,61,299,-30,45,-181,-193,-46
-89,-84,74,138,195,18,95,-127,-272,-185
13,11,185,173,-44,282,197,16,-81,-137
-15,2,187,105,-416,-30,33,1,-24,-92
0,123,205,-29,-471,-497,-207,-126,-44,-92
-25,35,201,54,-343,-819,-271,-225,-50,-72
-134,-160,125,129,0,-517,-11,-174,1,-107
-108,-226,-41,-24,601,132,240,-66,105,-25
6,-181,-211,-234,369,819,502,6,216,123
36,-125,-209,-277,-38,1178,632,-40,120,125
46,0,33,-4,-8,540,382,-149,-129,72
81,142,259,189,-38,-8,101,-281,-257,81
81,60,34,-3,-158,-236,22,-377,-310,61
28,-52,-103,48,286,-196,59,-373,-257,-10
-6,18,114,274,699,170,133,-295,-48,-10
-3,-26,183,292,506,394,249,-92,118,45
16,-28,73,70,-336,151,353,59,44,-15
55,-32,-94,-281,-1172,49,511,46,-13,-35
54,-77,-196,-318,-830,36,541,96,135,19
198,329,-72,-128,252,169,419,155,197,96
284,592,102,-43,411,148,251,141,216,147
85,196,124,33,-40,-51,101,-55,92,44
-56,-51,78,75,-137,-229,-13,-185,1,-58
-114,-149,-23,125,57,-299,-83,-227,-21,-119
-195,-219,-16,254,398,-267,-148,-304,-76,-177
-146,-126,95,303,556,-356,-224,-350,-97,-156
-81,19,134,106,13,-610,-292,-318,-132,-114
-48,27,70,-211,-528,-895,-294,-258,-115,-40
23,-92,-99,-333,-290,-728,-189,-132,-4,72
88,-65,2,-151,136,-35,-55,-103,-13,153
108,-34,95,-11,154,499,9,-117,-30,236
57,-87,12,-3,57,97,-49,-138,4,210
63,-51,6,-5,73,-78,79,-103,167,210
0,-69,-44,-88,0,251,174,-130,11,130
-8,32,12,-74,-11,144,73,-22,-162,29
-48,9,81,0,180,-29,-58,34,-126,-60
-67,-35,43,81,490,112,-112,-32,-97,-81
-75,-61,-21,-7,403,652,189,123,37,-50
-100,-95,-54,-153,99,778,359,138,146,25
-75,-118,-49,-55,-93,193,225,-46,152,71
-75,-94,-1,83,-265,-451,-8,-79,126,70
10,185,-7,-25,-313,-402,84,136,110,-23
273,564,-25,-180,-365,-141,285,308,240,18
188,225,-174,-251,-335,344,326,294,80,3
-33,-180,-211,-216,-217,896,386,318,-87,-88
-10,-82,-40,-30,40,716,444,377,-27,-118
68,0,44,128,84,-79,248,289,9,-108
-14,-27,0,280,-125,-629,-209,-36,-168,-206
-87,98,174,499,-334,-980,-560,-277,-337,-302
-111,268,430,597,-335,-954,-768,-386,-395,-319
-200,64,336,395,-126,-742,-909,-469,-352,-326
-238,-86,167,88,724,-221,-848,-433,-280,-272
-72,-52,29,-218,741,191,-562,-177,-33,26
179,48,22,-332,8,215,-150,165,287,380
180,-105,-187,-327,-172,749,338,471,439,447
8,-242,-281,-342,-254,1387,740,671,356,234
90,15,-158,-252,-162,1127,698,672,232,67
333,479,43,15,444,429,289,503,242,109
183,272,83,149,542,-85,-91,244,175,104
-84,-60,61,161,130,-396,-252,82,15,-40
-122,-62,46,78,-178,-631,-361,10,-42,-127
-85,-53,21,-52,-80,-441,-324,-12,-41,-119
-64,-74,-45,-136,-174,-109,-159,160,-37,-62
4,-21,-110,-268,-327,209,-237,264,3,72
155,187,-157,-312,-122,620,-278,327,78,181
49,-22,-193,-218,-41,756,-72,261,68,142
7,-92,-92,-142,-29,571,123,232,94,81
33,-69,-30,-101,-51,276,-9,231,99,98
36,-34,1,-54,-70,-94,-281,167,83,106
-48,-116,-91,3,142,-349,-416,-24,-67,12
-126,-228,-214,19,299,-515,-494,-211,-237,-32
-46,-46,-160,-73,179,-588,-617,-356,-206,70
37,142,99,-48,-102,-615,-684,-470,-122,190
-29,109,308,193,-104,-486,-588,-529,-158,136
-66,26,306,250,-29,-251,-264,-350,-94,59
37,-85,79,69,-205,-117,163,49,74,136
178,32,21,-102,-467,-57,95,338,93,39
144,71,-21,-165,-438,-45,-72,410,184,-44
52,1,-98,-66,-75,27,-23,400,285,25
75,291,-34,139,393,197,146,551,303,-24
59,327,47,253,502,325,202,498,49,-157
-97,-55,-12,150,334,383,73,225,-159,-220
-110,-126,8,93,4,246,-105,131,-125,-172
-111,-95,46,79,-120,33,-140,148,-50,-158
-115,-92,64,86,198,-190,-165,111,-68,-178
-122,-121,3,27,132,-165,-187,17,-155,-211
-27,-19,-46,-20,-170,176,-94,27,-160,-134
29,77,102,40,-491,-63,-107,28,-175,-52
71,52,105,-52,-449,-635,-306,-19,-141,27
51,0,90,-42,-335,-871,-576,-181,-137,16
34,118,266,-5,-281,-706,-754,-383,-141,6
4,60,106,-95,-98,-95,-551,-247,-18,55
-56,-131,-92,-117,-88,452,0,136,110,42
-127,-180,-96,10,193,553,405,299,102,-30
-97,-148,-124,124,750,541,316,207,-62,-73
18,-67,-55,113,439,208,-83,-6,-157,54
-25,-102,-111,5,92,68,-229,-51,0,77
-116,-256,-282,-136,-117,-107,-328,-25,123,36
-122,-124,-157,-151,-522,-726,-466,-44,55,-39
-99,47,79,-33,-332,-726,-368,46,189,-102
-4,119,211,193,439,-84,-40,278,208,-94
196,400,336,277,771,240,153,472,223,37
347,636,186,-53,119,84,103,550,408,238
148,224,-80,-317,-191,688,262,405,301,140
-67,-198,-222,-297,132,1421,554,308,184,34
-30,-169,-180,-176,146,941,560,434,149,100
-11,-110,-158,-131,-73,279,391,632,117,102
-32,-81,-70,-57,-126,-62,167,505,-18,13
-28,-33,67,97,-60,-271,0,294,-120,-57
-79,-60,70,164,8,-280,-1,217,-100,-82
-94,-157,-20,119,10,-311,-33,110,-79,-21
-41,-116,-21,121,3,-332,-125,29,-56,50
-73,-70,88,119,44,-164,-223,-67,-93,-32
-101,-96,16,153,390,165,-186,-135,-52,-49
-61,-87,-14,204,396,21,-173,-138,-40,-6
28,-12,28,137,97,-105,-94,75,-30,49
291,409,212,39,-375,-393,-152,149,172,246
394,573,216,-258,-852,-749,-312,-36,180,354
123,60,10,-406,-1020,-813,-442,-297,-63,308
-103,-255,-202,-329,-746,-181,-238,-336,-216,135
-133,-312,-405,-310,-179,381,80,-128,-16,64
-124,-177,-286,-25,820,348,275,41,-78,-128
-110,-45,-151,3,339,22,325,132,-84,-236
-19,74,-62,-37,-111,-246,188,181,72,-170
24,204,161,162,121,-226,-64,110,-133,-217
-71,-61,235,223,213,54,62,45,-154,-142
-1,-67,235,150,337,604,224,21,-38,29
58,49,266,181,117,683,289,74,7,42
-46,-3,88,26,-77,278,347,93,66,-98
-97,-108,-112,-113,15,111,261,49,172,-145
-50,-71,-51,-23,-15,-121,-41,-166,-28,-132
5,44,-33,0,-96,-257,-171,-214,-139,-82
-31,39,-29,-19,-8,-149,-58,-183,-75,7
-63,-1,61,0,-1,-189,-64,-206,-27,58
-67,-25,141,97,-81,-407,-260,-317,-100,49
-24,73,366,239,-23,-423,-348,-341,-118,41
30,101,405,349,141,-316,-255,-214,0,46
53,42,154,206,130,-419,-127,-74,110,20
49,10,-119,-20,138,-410,71,82,164,-29
87,268,-195,-141,326,103,243,98,77,-183
94,258,-186,-274,-17,726,448,87,104,-100
-54,-120,-187,-265,-384,736,590,24,97,56
-75,-152,-74,-190,-492,413,528,-23,102,102
-8,-61,-3,-165,-462,469,404,-58,50,137
10,-14,120,42,-125,-25,151,-153,-24,78
-38,7,189,175,455,-382,5,-227,-100,-71
-32,34,81,96,694,-222,-5,-172,-189,-166
-46,-94,-80,-18,292,20,-68,-214,-191,-127
-38,-89,18,39,211,536,42,-218,-97,-55
-18,-49,86,73,269,750,178,-120,22,10
14,-125,-103,17,181,503,231,-25,89,61
41,-76,-79,19,-93,152,252,-16,96,51
29,-45,18,55,-238,45,432,8,144,64
83,153,219,17,-417,-209,318,-64,165,90
45,172,224,-20,-290,-452,0,-275,66,66
-133,-179,-39,31,126,-474,-331,-465,-62,15
-203,-208,-23,121,153,-536,-469,-563,-150,-25
-171,-66,116,152,-129,-702,-456,-588,-224,-87
6,24,51,-3,-595,-914,-322,-424,-216,-15
129,-25,-166,-155,-756,-1033,-219,-181,-122,92
122,71,91,-35,-217,-599,-131,-76,-9,20
11,229,148,15,220,519,108,-18,111,-85
20,255,-180,-188,296,1206,494,153,74,-25
67,0,-312,-273,322,934,669,221,55,118
64,-81,-142,-170,202,551,514,157,126,128
42,-71,-26,-73,243,363,329,63,47,81
5,-155,-131,-129,83,264,277,15,-32,42
-63,-217,-183,-143,-36,228,240,-7,-100,-46
-58,-43,89,48,5,144,18,-169,-274,-165
34,256,524,332,4,99,-109,-260,-302,-163
16,90,348,248,-75,-76,-37,-185,-164,-59
37,-176,-124,-93,-221,-458,-38,-75,15,77
-59,-250,-188,-119,-192,-578,-139,-121,4,6
-87,-130,41,75,-11,-496,-189,-182,-54,-94
-58,-54,72,152,181,-212,-48,-186,-154,-143
-29,3,-15,46,16,-198,-71,-304,-244,-82
115,371,122,124,83,-313,-196,-380,-262,-12
199,397,168,148,191,-336,-247,-350,-154,68
112,-98,-94,-163,-26,-138,-140,-232,28,225
59,-231,-237,-269,-176,-280,-44,-56,38,202
-44,-227,-210,-163,19,-365,37,47,-11,37
-30,-102,-45,-98,88,174,130,91,64,-11
-19,-112,5,-44,154,602,297,150,139,-5
85,119,118,81,220,522,295,129,157,71
121,258,170,75,65,232,136,45,191,46
51,27,108,-36,-113,254,87,18,156,2
33,22,137,-2,-134,84,-113,0,64,-8
-24,-48,51,57,-172,-284,-337,-87,-25,-20
-56,45,185,267,-195,-603,6,-214,-114,-75
26,290,516,469,-230,-752,284,-140,-105,-104
153,324,512,424,-200,-729,-242,-72,-108,-14
125,165,186,127,-328,-692,-269,-32,-38,38
-57,-188,-222,-209,-42,-38,243,24,28,54
-146,-392,-461,-408,231,1371,683,90,66,116
-87,-300,-402,-426,-9,1658,709,46,89,184
6,-138,-267,-282,362,866,620,-36,101,216
54,-79,-237,-234,108,167,373,-66,102,216
31,-80,-216,-161,-317,-8,134,-63,57,124
69,149,-30,26,-335,-173,27,-15,-2,-14
205,629,196,200,3,-472,-85,-29,86,-125
113,474,109,137,207,-655,-279,-275,69,-97
-76,-51,-201,-39,294,-498,-377,-434,8,37
-54,-141,-177,-86,30,-279,-345,-314,17,107
-45,-144,59,137,-146,-127,-251,-229,-43,102
-29,-50,202,270,-326,-677,-232,-282,-45,51
-34,-10,103,194,-135,-927,0,-139,-18,-101
-121,3,27,89,334,-302,65,76,-144,-357
-160,-62,138,172,337,-34,-62,130,-196,-444
-48,29,248,143,483,142,259,289,48,-248
-37,0,67,-3,446,428,310,287,33,-132
-52,-118,-140,-146,248,509,230,67,-56,-49
-14,-101,-91,-217,52,771,471,195,43,35
-22,-121,-73,-161,-194,629,454,258,73,34
0,-59,-137,-136,-266,223,155,54,-15,9
24,-25,-154,-69,-292,217,53,4,66,65
-37,-161,-133,-101,-115,286,32,-40,132,113
2,-152,-144,-233,-124,5,-52,-105,172,235
76,-68,-104,-277,-369,-358,-35,-187,126,330
118,-38,-68,-160,-323,-374,61,-182,93,342
63,-12,-16,71,-205,-393,-24,-166,-10,213
-73,31,107,328,40,-264,1,30,-129,-145
2,354,271,436,306,220,225,284,-127,-448
132,549,234,262,293,540,230,200,-61,-395
-30,134,39,77,469,377,121,-28,-27,-262
-156,-176,-111,28,415,-382,-34,-161,-105,-145
-175,-87,95,182,102,-870,-182,-262,-256,-135
-232,-79,150,272,19,-774,-253,-377,-456,-279
-200,-90,84,202,-307,-653,-299,-411,-446,-309
-94,9,144,112,-435,-337,-210,-310,-222,-193
-54,92,215,-60,-147,365,24,-169,-47,-132
66,41,-70,-348,-29,1253,470,175,314,60
234,-64,-303,-529,-266,1173,724,511,591,328
142,-192,-317,-420,0,652,587,417,405,259
72,-158,-246,-217,90,382,466,259,231,183
43,-56,-103,-89,-83,191,405,125,63,130
13,8,37,13,-159,-9,204,-16,-41,101
140,309,43,29,51,-387,-29,-14,18,133
97,219,-44,-15,381,-446,-84,11,75,109
-97,-196,-160,-91,177,-332,-59,-1,137,40
-76,-145,-57,-15,204,-162,-71,-29,140,15
14,-30,126,139,261,-23,-116,-88,136,61
-49,-32,196,284,250,11,-220,-252,-10,34
-114,-17,276,355,69,-341,-340,-367,-186,-53
-61,118,65,149,76,-905,-489,-409,-385,-111
-10,222,-91,-31,84,-1005,-679,-525,-413,-55
-34,183,102,47,-24,-618,-645,-669,-344,8
-41,95,288,345,304,-187,-345,-514,-254,30
66,17,193,50,15,-229,-207,-135,112,200
97,-190,-246,-557,-650,275,83,215,333,238
107,-252,-358,-509,-573,1063,549,562,397,149
111,-116,-205,-180,-234,1117,698,545,326,77
99,14,-122,-30,45,681,670,486,214,-40
9,-54,-32,-21,81,571,663,461,174,-96
-25,-67,26,-24,10,261,391,296,173,-92
-68,-79,30,41,26,-120,134,120,53,-57
-101,-124,-24,125,254,-220,-38,-12,-115,-49
-135,-148,-52,203,579,-214,-131,-98,-231,-90
-217,-114,48,342,703,-141,-138,-188,-255,-241
-193,142,169,471,603,-125,-233,-247,-303,-386
127,688,345,341,188,-226,-289,-154,-185,-300
228,592,283,90,-396,-542,-288,-121,-45,-102
88,34,-44,-174,-908,-814,-191,-24,62,87
-4,-196,-192,-297,-758,-288,36,132,211,149
-9,-265,-241,-273,-221,627,341,194,338,198
111,-148,-177,-240,-50,1305,757,275,436,312
194,67,34,-125,0,784,538,122,337,319
104,50,-24,-123,-503,-46,-90,-241,147,301
-126,-268,-330,-216,-926,-482,-411,-467,-80,248
-298,-342,-181,-7,-524,-735,-585,-652,-424,50
-287,-255,50,261,517,-688,-543,-747,-525,-92
-72,-89,-21,132,704,-120,-273,-431,-225,3
231,260,96,-57,179,194,-102,13,96,153
218,260,99,24,101,14,18,352,84,-38
146,121,37,163,349,-104,166,525,241,-151
11,-41,66,210,489,-213,41,279,337,-79
-57,-97,67,106,288,-456,-173,11,112,-15
-39,-84,11,-17,33,-373,-193,16,44,-26
9,-49,44,-114,-133,-37,39,135,128,-17
273,579,79,88,-32,10,-290,-140,-87,-60
80,205,324,369,-180,-49,-157,-183,-45,-66
89,154,496,376,-157,-277,-162,-146,36,24
140,57,162,-52,-306,-455,-188,30,11,112
8,-192,-231,-347,-54,-83,-21,187,-14,63
-113,-196,-241,-224,226,842,356,332,8,-67
-75,46,55,82,364,1246,583,289,-26,-99
-70,-34,178,224,64,982,588,117,-76,-22
-84,-187,130,55,-412,351,363,14,-105,-1
-28,-57,145,-144,-795,-282,-164,-161,-112,-36
19,34,154,-87,-545,-597,-463,-324,-44,-4
-42,-113,-3,10,259,-456,-423,-296,-43,-57
-103,-296,-285,-38,324,-151,-262,-90,-140,-212
-81,-203,-280,-41,151,140,-134,160,27,-212
201,428,45,11,19,-74,-136,355,171,-22
222,439,160,113,-228,-607,-201,293,-61,-51
0,-83,-25,144,-33,-659,-92,246,-13,-128
-18,-97,15,118,290,-24,88,230,78,-90
21,-15,100,-17,-73,367,125,203,138,-16
3,-29,40,-178,-417,457,131,185,156,16
56,-61,-82,-314,-287,884,356,278,182,133
64,39,-94,-170,157,722,356,263,109,67
-34,-14,-104,32,345,-116,-5,10,-45,-27
12,-80,-59,68,228,-748,-399,-157,-54,75
-2,-15,85,156,119,-1016,-730,-360,-189,-25
-64,0,100,67,6,-865,-717,-381,-248,-134
-149,-148,-119,-133,104,-101,-350,-174,-207,-160
-219,-338,-367,-193,353,922,164,45,-173,-140
-51,-204,-291,-228,86,1080,438,122,-49,113
119,-61,-169,-263,-229,383,439,127,49,299
102,-78,-59,-186,-251,-62,184,23,65,275
25,-55,17,13,31,92,81,-3,2,118
-25,-42,11,176,410,313,147,32,-17,-6
1,46,121,260,514,150,45,-17,-11,-66
-10,62,207,287,311,-92,-18,76,160,-36
-73,11,160,354,95,-155,-2,97,128,-3
81,215,16,201,-169,-157,-76,11,0,81
220,418,-152,-54,-243,86,-101,-8,16,138
4,17,-204,-38,-60,-22,-224,-166,-110,31
-106,-116,-181,23,495,-2,-37,-77,-8,-48
-66,-21,-22,29,571,234,190,80,167,-72
-65,38,37,-54,47,0,93,91,142,-177
-42,8,20,-79,-129,115,40,60,69,-148
62,29,-79,-109,-213,247,-4,85,127,19
202,387,8,-53,-225,129,84,207,189,107
129,453,144,47,-106,-28,127,142,79,33
-55,164,223,120,9,-385,-121,-153,-49,-51
-123,-80,115,266,-73,-928,-451,-336,-42,-11
-138,-263,9,342,-318,-1188,-643,-472,-28,90
-32,-205,-46,183,-522,-1138,-721,-480,-7,173
0,-82,-43,73,-376,-584,-623,-321,115,101
-36,-90,-73,-91,502,253,-234,-78,262,22
70,-107,-146,-334,542,860,282,203,257,71
200,-27,-3,-304,-283,1014,659,436,232,111
89,-55,-7,-97,-257,632,600,373,141,13
-26,-103,-85,-130,85,258,317,209,-56,-56
48,-48,-130,-124,390,326,186,117,-184,100
-1,-127,-159,-170,54,58,61,102,-282,163
-75,-76,-112,-175,-160,59,-36,1,-323,57
117,451,56,-48,-66,402,104,76,-172,6
217,548,131,-17,-33,360,190,171,13,47
92,82,54,-63,-353,-195,62,138,156,81
14,-64,-17,-22,-372,-521,-61,98,48,-24
-9,-88,-112,39,-165,-605,-200,6,-127,-78
-40,-69,29,84,-100,-656,-397,-221,-247,-45
-50,-54,83,62,107,-87,-273,-292,-272,-1
-17,-68,-176,-55,131,342,-46,-149,-167,51
-51,-98,-201,-32,-4,-91,-191,-183,-213,-18
-147,-82,0,142,109,-265,-150,-165,-197,-159
-98,121,355,320,190,48,189,60,-2,-210
-75,141,439,256,91,45,-11,78,72,-258
-64,-33,138,-64,-173,-3,-229,14,131,-190
-86,-221,-53,-149,-139,344,-8,20,127,-36
0,-178,-112,-59,-65,432,175,71,145,123
161,205,-138,-104,-2,191,116,115,147,147
61,64,-139,-98,232,231,47,114,5,8
-56,-117,7,90,479,155,75,80,-50,-85
-75,-90,138,199,511,-2,43,60,6,-127
-81,-92,146,146,347,123,47,4,-4,-102
-41,-103,29,127,265,396,168,-9,76,-9
-65,-192,-168,24,103,269,173,-61,69,10
42,90,-88,-20,-121,-224,1,-94,47,28
109,295,297,170,-327,-155,-135,-126,2,57
53,186,349,196,-602,-105,-208,-210,-68,-31
11,-13,87,117,-718,-425,-181,-215,-52,-73
33,-176,-128,-114,-669,-483,2,-145,21,59
139,-78,-214,-404,-346,-297,208,-13,140,235
143,3,-102,-306,358,115,280,211,201,248
111,29,1,-102,154,283,213,198,212,182
111,63,48,65,67,218,108,114,250,169
20,-119,-59,54,73,-40,59,51,170,139
-104,-194,-186,46,243,-290,-107,-69,16,0
-240,-194,-200,106,210,-553,-437,-317,-239,-196
-232,-146,-83,185,89,-719,-672,-497,-341,-203
-112,20,206,329,-45,-458,-641,-468,-250,-137
28,191,451,283,-274,-67,-442,-289,-123,-36
176,282,92,-148,-510,60,2,77,97,92
254,468,-141,-361,-99,279,517,482,191,37
138,360,-120,-341,255,771,718,505,40,-73
-13,-4,20,-109,247,661,347,193,-95,-55
3,-90,-17,-79,92,252,85,44,-111,4
-34,-176,-221,-191,-95,-100,52,52,-80,-27
-149,-255,-250,-134,32,-69,101,40,-118,-142
-162,-148,-109,34,351,-50,42,11,-60,-179
-114,-1,88,105,503,-120,-82,3,23,-135
-128,-135,8,43,456,190,-108,-55,-40,-93
-116,-207,-25,51,281,724,97,-39,-61,-54
14,-70,83,53,-118,659,241,-2,-33,68
133,89,110,7,-423,-98,78,19,-1,146
147,113,152,89,-247,-486,-66,30,48,142
73,-21,-12,-10,-145,-459,-71,59,144,132
-17,-35,-66,-102,-28,-175,-90,40,170,29
-94,-1,111,19,101,-12,-171,-76,6,-82
-56,32,139,47,113,164,-70,-92,-48,-16
-21,-57,12,22,43,487,145,-51,-47,130
4,-196,-103,17,-60,596,330,2,-18,229
13,-155,-178,-86,-169,155,200,20,-46,161
56,4,-134,-286,-369,-244,65,21,-67,96
86,232,104,-136,-239,-300,0,-50,-55,4
213,737,438,285,165,-179,52,6,-5,-106
208,625,287,164,109,-266,-13,60,33,-42
11,-47,-199,-112,-30,-226,-44,65,76,56
-110,-283,-254,-25,192,27,37,96,100,23
-116,-213,-16,218,403,-20,-18,71,90,-21
-96,-126,53,210,311,-387,-210,-82,36,-32
-99,-150,-117,3,-57,-748,-393,-350,-174,-58
-55,-47,-117,-144,-404,-974,-413,-455,-372,-56
-72,-87,-133,-274,-470,-765,-326,-379,-387,-23
-125,-129,-105,-229,-343,-492,-249,-297,-274,2
-92,-127,-92,-35,126,275,49,-45,-135,26
-7,-81,-94,-11,385,936,364,288,51,7
-48,-63,21,36,379,815,408,435,323,-182
-118,-66,115,171,433,621,325,371,378,-231
-33,37,127,201,382,176,158,235,220,-167
158,221,27,44,42,-63,113,187,198,-13
127,174,102,-26,-357,-195,102,207,185,115
58,106,173,-55,-470,-57,81,176,120,138
36,-48,-96,-222,-665,246,90,172,99,164
-28,-99,-123,-126,-379,588,278,169,80,69
-54,-103,-14,60,4,497,397,129,57,12
-42,-111,-95,48,192,185,218,-37,-9,38
119,166,-147,18,438,-152,-158,-232,-38,161
65,80,-2,-56,50,-383,-409,-340,-122,242
-53,-77,87,-5,-100,-302,-177,-163,-174,210
-80,-104,53,6,-256,-335,-95,-1,-191,58
-66,-35,70,-13,-349,-408,-139,3,-77,-120
-101,-23,93,81,-258,-445,-110,-98,-55,-185
-113,-24,95,98,-83,-392,-113,-86,-111,-219
-11,114,100,120,248,-248,-177,-42,-122,-164
141,399,109,155,424,-75,-198,24,-67,-32
54,106,14,-24,178,390,-86,50,51,72
-9,-51,17,-80,216,880,59,92,131,83
-29,-79,4,19,252,561,36,81,97,4
-35,-86,40,16,142,85,62,82,45,-20
-64,-123,-39,-122,7,172,143,147,69,-25
-66,-110,-85,-164,12,299,289,232,90,-40
17,261,37,26,244,44,111,166,-11,-111
104,477,70,92,301,-129,-144,64,-20,-96
162,464,43,32,116,-255,-256,59,71,-8
111,227,-8,-34,-74,-345,-144,105,49,10
-18,-106,-32,-28,-51,-106,187,187,-6,-26
-40,-68,98,105,185,68,242,98,-120,-84
-54,-44,115,109,154,-154,-101,-152,-200,-70
0,113,121,60,-111,-440,-270,-240,-177,-26
23,187,209,144,1,-382,-408,-235,-123,-5
-77,-103,217,354,263,-519,-416,-188,-9,84
-114,-250,-53,217,82,-620,-351,-112,29,35
-234,-314,-231,-22,-160,-156,-334,-209,-117,-208
-199,-160,-82,-35,-344,219,-191,-224,-172,-200
-41,1,109,-24,-290,56,11,-5,-76,-63
60,-71,-118,-264,-176,49,136,221,89,57
138,-69,-203,-312,-279,413,226,351,277,169
-8,-169,-9,-69,-13,443,239,316,204,35
-14,-134,218,197,178,314,154,202,93,-11
41,-59,201,275,38,147,-24,74,17,48
-17,-112,-82,43,-80,-358,-187,48,-46,17
-88,-125,-117,26,125,-551,-235,11,-131,-80
-102,-74,-7,67,167,-424,-247,-39,-174,-168
40,127,17,-44,-247,-353,-227,-39,-83,-119
235,492,10,-152,-210,-338,-178,39,1,19
246,363,-55,-284,-96,307,86,52,16,110
183,-12,-84,-220,95,894,360,51,-8,172
118,-131,-109,-76,291,601,376,120,-37,161
28,-248,-209,-30,423,496,240,132,-6,166
-31,-207,-104,-25,169,590,141,112,58,119
-13,-116,20,-14,-178,343,106,186,204,83
29,-65,-48,-12,-206,-15,131,234,199,95
6,-144,-169,-50,-158,-167,54,105,51,53
-92,-151,-145,-60,-114,-266,-113,-86,-78,-91
-204,-161,-94,39,-87,-485,-248,-170,-135,-258
-200,-85,10,188,-24,-474,-266,-174,-63,-271
-162,8,135,179,-138,-299,-274,-221,-64,-211
-185,-67,48,130,-335,-399,-384,-367,-185,-197
-3,224,318,285,-77,-441,-361,-447,-223,-108
261,466,458,179,186,-148,-146,-317,-124,115
302,160,19,-370,-161,47,114,-22,-16,302
189,-123,-358,-588,-300,167,291,332,106,256
27,-276,-364,-328,-43,510,446,496,298,127
-47,-172,-148,-32,216,693,518,427,355,32
-35,-97,-128,38,250,658,534,401,318,72
17,4,21,26,183,452,395,269,214,102
124,271,171,63,118,154,172,163,164,69
65,15,84,121,165,129,102,107,162,113
-11,-144,-58,123,159,105,151,125,149,129
-43,-98,-157,-136,-140,-109,155,78,83,81
7,-17,-192,-299,-272,-105,284,66,66,107
10,18,-109,-194,-151,0,55,-70,0,65
-39,-58,-6,30,39,-81,-341,-209,-49,24
14,166,243,335,288,-379,-417,-264,-37,17
112,456,294,477,562,-604,-510,-335,-121,-4
-27,57,69,367,661,-614,-591,-434,-219,-57
-161,-173,-49,216,562,-439,-604,-414,-150,-64
-174,-180,-44,57,57,-250,-423,-307,-114,-59
-7,-22,72,-51,-479,-194,-188,-150,-115,-9
205,16,-69,-337,-893,-76,218,154,137,248
198,-42,-248,-450,-680,396,459,294,225,293
241,350,-133,-305,-194,579,387,291,163,46
214,468,-57,-170,-46,427,332,342,134,-150
-40,36,-46,-5,-51,264,227,224,46,-218
-150,-129,42,67,-128,26,77,60,37,-193
-111,-79,124,89,-49,-49,27,23,-62,-147
-119,-106,50,202,178,-230,3,85,-81,-138
-100,-100,-48,259,172,-737,-312,-148,-213,-132
-48,-50,-100,214,245,-1004,-580,-358,-284,-135
-46,-64,-56,169,376,-810,-631,-326,-249,-155
-131,-203,-67,45,440,107,-452,-214,-119,-159
-144,-208,-42,-62,127,741,-40,-68,-26,-116
-71,-171,-62,-116,-25,847,394,69,-55,-52
51,-75,-21,-148,-131,736,419,40,-98,60
66,1,81,-72,-277,696,321,-46,-42,147
54,58,152,-49,-498,292,288,-7,92,212
107,61,68,-82,-295,67,311,162,141,173
37,-79,48,-77,-142,-65,266,225,78,43
-82,-153,-26,-77,-198,-223,160,189,-48,-108
-84,-120,-165,-35,117,-33,164,208,-58,-176
-30,2,-77,-25,138,-87,52,110,-2,-82
-39,6,71,17,-60,-219,-17,0,16,6
-35,-49,20,-11,-189,-444,-100,18,145,-14
27,178,89,42,-151,-737,-175,116,209,-133
93,469,91,82,100,-474,-150,156,124,-173
6,234,17,62,348,274,2,41,12,-104
-81,-97,-21,4,135,534,289,-50,-79,-25
-80,-103,19,5,-292,30,421,1,-38,-10
-73,-68,92,40,-490,-154,242,34,-4,-36
-75,-27,183,84,-406,-17,-99,-93,-61,-100
32,16,155,78,89,-174,-136,-110,-28,-22
67,119,189,253,546,-518,-281,-165,-25,-48
-50,42,69,141,150,-977,-590,-347,-54,-70
-79,-69,-145,-93,-112,-1159,-787,-595,-78,48
-53,-160,-172,-112,121,-778,-641,-656,-30,195
-58,-186,-260,-191,278,106,-309,-440,10,145
40,2,-150,-193,236,1395,189,-146,20,127
136,172,185,135,334,1808,613,138,84,184
116,375,431,444,473,1521,705,299,-9,-28
53,246,212,281,212,936,637,381,15,-104
-13,-108,-95,-101,-141,330,477,330,251,106
5,-165,-191,-269,-140,-31,295,273,250,161
19,-133,-84,-62,-51,-53,257,248,124,72
-36,-115,-6,126,-11,-35,242,216,89,-50
-42,-108,1,86,-133,-215,47,59,-9,-50
-10,-15,9,3,-269,-387,-91,-20,-143,-88
154,473,192,11,17,-407,-100,100,-69,-79
135,358,180,-78,72,-224,-143,93,-11,-7
36,-23,-11,-126,-32,75,-114,61,30,53
39,-78,-174,-227,-81,337,29,101,98,77
69,-98,-305,-258,-189,345,170,126,179,145
18,-161,-358,-213,-201,205,240,83,132,111
-14,-125,-208,-36,-93,-21,160,-11,27,49
15,13,-68,89,59,-288,-89,-132,-81,36
-31,25,-7,146,123,-511,-377,-313,-195,-10
-144,-136,-86,129,68,-678,-566,-494,-265,-60
-253,-298,-280,-9,-40,-629,-606,-640,-304,-91
-326,-272,-191,-32,-198,-930,-799,-896,-457,-135
-282,-80,127,151,-28,-1323,-926,-1049,-605,-146
-173,23,302,213,421,-1129,-803,-967,-572,-48
25,94,335,148,441,-609,-549,-675,-357,91
370,557,282,93,402,-117,-310,-110,-47,47
541,761,236,-76,95,288,214,631,285,-10
321,280,39,-320,-401,885,794,892,634,85
157,-13,-60,-343,-376,1781,1235,798,657,189
85,-191,-142,-172,-269,1851,1318,744,630,197
2,-195,-120,-122,-302,937,930,648,434,61
-53,-117,-41,-110,-294,568,737,543,183,-29
-43,-3,13,-21,-254,518,704,433,16,-66
-26,-4,53,47,-415,291,441,279,-55,-13
-24,-55,93,46,-746,-103,74,82,-46,69
2,-38,152,113,-470,-361,-70,7,-6,90
-17,-32,216,241,303,-448,-97,-47,-54,16
-15,-29,196,236,378,-474,-83,-33,-40,-13
30,-22,33,126,551,-230,-60,8,88,12
57,39,-62,-9,539,-141,-61,8,158,-25
27,54,-122,-140,213,134,22,10,121,-26
-98,-109,-135,-151,51,367,-15,-112,-30,-65
-110,-162,-94,-151,60,189,-14,-72,-123,-15
-102,-185,-99,-118,106,129,-17,-36,-164,48
-75,-142,-92,0,264,-19,-221,-211,-275,26
-117,-150,-70,142,396,-163,-301,-266,-325,-69
-179,-124,0,196,175,-11,-317,-304,-341,-190
40,290,163,254,-59,165,-209,-136,-110,-135
383,747,416,278,-91,-156,-151,141,169,35
262,363,208,81,26,-248,-253,121,154,91
33,-121,5,-48,217,277,-264,-2,78,101
99,-43,20,-50,125,268,-266,-55,-42,127
178,-90,-146,-169,-172,-314,-293,29,88,248
157,-126,-209,-311,-388,-634,-259,129,159,250
176,23,-166,-380,-552,-795,-338,-10,101,198
113,112,-3,-213,-340,-606,-349,-206,-48,42
-27,-82,71,11,-143,-60,-119,-123,57,-27
-82,-191,38,98,-92,265,148,0,64,-69
-70,-205,-128,-41,-129,-92,162,95,-15,-49
-45,-111,-78,-100,1,-362,228,297,75,45
-60,-87,6,-63,155,101,478,434,209,-43
-120,-198,-76,-46,258,639,369,303,194,-144
-58,-53,51,0,182,672,70,94,66,-98
-16,49,248,108,-79,297,63,64,2,-98
-23,17,220,174,-146,175,161,80,-3,-73
-76,-42,63,227,41,125,153,78,44,-57
-192,-77,-32,185,79,-266,-162,-74,-91,-204
-258,-11,108,213,-72,-903,-543,-341,-291,-362
-270,74,298,301,-107,-1349,-802,-548,-382,-412
-284,11,140,280,343,-924,-647,-517,-350,-414
-138,214,-1,141,415,-138,-310,-266,-278,-301
141,574,136,88,180,275,-72,-37,-159,-95
191,323,130,8,181,1144,210,63,18,123
167,-48,-100,-267,-727,830,271,91,138,311
189,-84,-159,-458,-699,132,119,83,81,330
127,-64,-32,-379,-45,59,182,238,131,236
-4,-197,-49,-168,27,215,516,540,409,100
3,-114,-134,-103,41,573,689,505,392,37
-16,-112,-268,-193,73,543,551,297,167,-20
-73,-144,-82,-7,206,156,225,215,147,-129
-133,-189,-79,115,377,-147,-99,40,25,-220
-200,-228,-116,137,493,-296,-305,-189,-186,-275
-157,-122,-40,105,327,-330,-394,-246,-201,-212
-87,-59,38,-42,-41,-301,-438,-264,-140,-95
66,130,67,-190,-207,-150,-315,-226,-74,56
414,678,129,-159,-14,32,-107,3,35,208
373,587,75,-19,92,205,-100,-111,-82,101
-1,-36,69,265,139,266,-20,-234,-202,-56
-62,-133,188,503,179,-393,-215,-341,-284,-32
-58,-120,225,540,290,-1423,-730,-551,-347,2
-191,-116,145,455,421,-1575,-905,-543,-465,-228
-212,-29,174,383,328,-1061,-712,-253,-387,-368
-53,88,170,156,-81,-347,-315,13,-59,-165
118,80,124,-237,-623,283,184,194,266,129
283,88,78,-471,-604,1174,877,471,501,425
211,-177,-267,-493,-92,1524,1049,522,497,497
64,-333,-412,-496,-93,833,619,306,289,340
-18,-334,-390,-469,-145,619,401,181,151,236
-35,-248,-267,-361,-230,761,314,150,80,183
2,-87,-74,-187,-242,637,277,214,105,135
44,24,47,-40,-133,346,265,282,94,88
40,16,119,84,-28,276,246,217,41,27
8,32,81,122,-35,215,183,173,113,-5
-55,-51,-20,42,-120,37,135,179,158,8
-148,-79,-4,44,-159,-187,24,125,122,-106
-184,-64,74,74,-322,-518,-176,-5,65,-200
-209,-68,15,137,-131,-676,-389,-265,-62,-258
-151,107,-44,177,557,-518,-398,-414,-209,-361
-114,62,-42,68,529,-161,-222,-295,-95,-221
-29,36,115,36,316,304,-30,-105,116,55
-4,57,224,123,217,227,38,-92,142,80
-16,-19,208,213,214,128,142,-4,102,23
-2,-33,203,154,124,128,164,5,0,53
70,39,117,25,-204,32,57,-126,-87,119
95,153,-43,-107,-304,-146,-170,-176,-34,121
224,512,33,-125,-178,26,-226,-140,15,114
151,189,-20,-174,-244,312,-93,-51,31,150
58,-130,-178,-265,-39,291,205,178,157,201
47,-100,-146,-108,245,153,379,339,213,175
63,-16,47,107,209,-21,119,152,164,55
61,-3,159,143,145,-143,0,8,192,28
35,-25,42,91,78,-282,-36,-59,147,30
92,240,27,60,1,-462,-118,-51,51,25
229,547,45,-55,-181,-628,-172,-27,-59,75
205,478,73,-61,-171,-622,-231,-87,-180,90
0,80,151,195,109,-568,-333,-238,-350,-23
-140,-207,76,384,375,-467,-317,-300,-429,-122
-168,-274,-66,299,557,-436,-328,-382,-462,-168
-125,-180,-14,254,456,-574,-293,-294,-389,-222
-106,63,188,217,51,-942,-347,-303,-266,-292
4,435,430,6,-592,-811,-255,-187,-144,-218
-7,66,226,-137,-608,347,339,118,17,-54
-34,-239,-13,177,137,995,660,363,120,-1
-83,-330,-329,14,591,989,437,331,161,0
-89,-304,-414,-359,177,1193,335,118,79,21
-11,-232,-269,-409,-261,1206,453,40,25,157
83,-202,-276,-432,-407,740,442,11,21,301
124,-105,-250,-281,-401,78,193,-30,-13,256
-7,-200,-266,-173,-467,-492,-97,-18,-58,22
-100,-136,-132,-52,-364,-705,-129,52,4,-244
-83,8,162,159,52,-636,-31,102,152,-316
-11,96,306,250,526,-18,130,155,176,-175
-24,53,241,240,389,232,40,137,201,-130
-146,-128,-40,42,151,116,-228,-41,16,-158
-44,11,-124,-136,-130,120,-126,-119,-61,-78
260,546,11,-179,-270,-74,69,-70,21,23
217,477,27,-156,-152,-28,98,-16,0,-14
14,67,106,-37,-54,251,11,43,-19,-66
-19,-41,158,45,100,550,46,88,10,-13
22,-115,12,-24,130,653,279,202,141,117
60,-203,-188,-129,53,486,491,325,281,253
64,-126,-93,-99,-29,245,376,258,205,222
50,26,115,30,-42,137,101,41,38,122
-34,-63,133,211,-25,24,-105,-193,-79,96
-70,-114,95,290,-79,-133,-185,-281,-93,95
-33,-66,38,96,-235,-406,-208,-204,-60,55
-52,-67,-14,-53,-268,-557,-265,-160,-129,-59
-155,-138,-62,63,349,-428,-189,-145,-222,-222
-207,-194,-187,68,947,-204,-177,-249,-277,-314
-96,-66,-93,23,407,19,-204,-254,-193,-131
96,120,132,2,-183,-16,-116,-77,94,166
152,95,152,-124,-519,-381,125,151,219,224
80,-52,18,-70,-492,-765,143,288,145,89
17,-94,-46,-83,-406,-654,94,235,58,-25
-33,-57,19,-27,-89,-124,156,0,9,-121
-15,-54,7,-12,262,544,362,44,91,-65
95,-6,-87,-142,17,594,408,211,291,142
238,418,89,-58,-14,433,-60,41,218,143
150,413,200,130,104,245,-233,-96,-37,45
-168,-114,71,209,25,-291,-326,-247,-236,-42
-229,-145,160,350,146,-750,-643,-403,-353,-184
-167,-115,138,321,442,-713,-626,-311,-321,-205
-68,-86,-61,133,347,-428,-456,-243,-380,-178
-28,49,-62,41,17,-135,-335,-253,-408,-188
20,178,-26,-141,-145,160,-119,-77,-194,-115
170,462,-104,-346,-384,481,197,251,52,-27
36,230,-179,-215,-155,984,440,329,78,-83
-141,-99,-101,-19,-73,678,337,203,88,-168
-71,30,20,-8,154,80,158,183,241,-121
60,61,23,-91,191,-308,-80,158,211,89
-9,-59,98,101,-59,-742,-343,12,64,68
-29,10,396,395,110,-716,-378,-96,-29,50
65,248,396,326,413,-395,-307,-133,-67,58
-32,-118,-61,45,517,383,-81,-118,-99,63
-105,-386,-322,-171,32,730,105,10,-21,85
-96,-329,-257,-191,-376,404,192,46,21,104
-27,-235,-179,-186,-271,163,205,28,40,187
-7,-255,-422,-418,-82,226,170,99,169,203
-31,-246,-362,-388,-64,500,256,172,297,127
39,9,-139,-253,-80,524,262,189,297,86
240,455,97,-105,12,249,270,316,252,33
57,147,211,47,-15,109,181,209,96,-95
-35,-66,204,210,-27,-93,18,21,91,-66
-94,-71,141,305,92,-243,-94,-96,-72,-139
-92,1,56,170,98,-340,-258,-204,-234,-155
-52,19,45,126,-60,-348,-362,-191,-97,-3
-49,-6,119,162,-73,-392,-424,-195,-8,65
12,57,111,111,287,-496,-355,-164,75,64
-34,-195,-197,-155,152,-346,-134,-159,119,61
-45,-276,-368,-300,-245,14,85,-101,148,94
17,-114,-184,-315,-615,336,203,75,173,159
94,10,-45,-314,-457,447,304,263,214,109
100,21,-44,-239,-193,227,255,231,77,-14
77,-34,-19,-140,-133,161,249,357,145,70
82,117,42,56,51,129,144,395,185,53
143,507,24,126,156,-29,-9,244,-1,-125
21,417,14,87,-28,-280,-167,-19,-161,-206
-163,0,119,224,18,-454,-318,-323,-389,-156
-210,-140,123,293,256,-579,-381,-506,-370,-85
-237,-219,-40,136,326,-584,-374,-616,-266,-45
-165,-133,-54,92,376,-280,-360,-553,-269,-38
-76,26,38,126,153,159,-35,12,-187,-127
0,112,60,58,-106,388,97,193,-101,-185
93,-7,21,-54,-42,808,215,194,167,41
155,-132,-124,-256,-296,663,375,284,288,301
119,-76,-73,-196,-407,55,391,273,151,237
81,78,146,-33,-219,-287,223,217,134,91
-37,-58,70,66,82,-169,37,84,70,-23
-76,-134,-40,132,372,287,42,105,71,-82
35,-24,-33,67,465,924,174,230,168,19
81,44,37,12,159,751,104,111,11,62
56,-44,-40,-89,-211,0,73,4,-107,62
67,6,0,-38,-236,-323,136,7,-66,57
9,54,204,86,-11,-216,220,47,15,-23
-7,-16,172,74,135,-88,88,55,-42,-59
-29,-50,146,130,254,-50,-251,-52,-108,-85
-3,29,194,177,188,-117,-260,-77,-68,-62
120,414,256,251,127,-328,-240,-89,-87,-65
216,583,180,200,83,-707,-382,-150,-52,-37
79,104,-23,-1,-22,-611,-351,-137,4,12
0,-174,-113,-83,-104,-149,-167,-76,3,23
20,-162,-151,-182,-257,-86,-138,-21,12,48
0,-168,-177,-280,-388,-109,-122,19,87,85
-49,-190,-105,-131,-245,169,-68,2,-17,14
-12,-69,94,169,49,85,-49,58,-79,-74
3,-19,115,161,221,-248,-114,26,-21,-109
-36,-150,-117,-139,251,-150,-17,29,121,-67
-61,-205,-241,-261,91,159,58,39,137,-5
-28,-151,-201,-178,-68,622,250,59,119,65
-14,-11,-1,63,-67,581,312,4,49,71
-23,26,92,244,-31,-202,82,-112,-43,54
-39,33,141,184,-235,-804,-229,-320,-137,47
17,221,129,96,-531,-1112,-504,-465,-183,-39
-165,-52,-40,-76,-489,-650,-461,-405,-201,-163
-179,-208,-271,-232,-24,500,-6,-63,-99,-133
-125,-140,-208,-158,438,757,279,125,-51,-129
41,63,37,-60,429,619,535,295,49,-6
152,120,122,-71,-4,594,557,391,228,141
146,76,59,-42,-112,573,268,229,142,146
204,311,149,132,-48,284,-18,57,61,55
238,576,275,250,-56,102,-60,41,145,0
0,146,266,269,-138,-178,-74,-64,87,-41
-63,-50,317,327,194,-725,-220,-151,28,-108
-72,-140,157,305,641,-1092,-354,-86,-85,-181
-166,-143,-80,128,712,-1023,-395,-127,-342,-263
-196,-6,79,68,505,-536,-397,-322,-535,-239
-5,13,-4,-240,-283,165,-266,-317,-336,20
113,-37,-298,-474,-755,822,184,-50,-78,210
60,-189,-487,-472,-406,1312,772,275,-28,207
109,-107,-340,-328,-96,1189,945,549,189,208
52,-113,-215,-237,-143,618,681,533,451,174
-45,-181,-231,-191,-184,237,373,306,354,121
-108,-162,-128,-77,-51,185,208,88,126,18
-125,-53,87,95,39,228,180,56,70,-88
-7,186,179,157,-30,144,146,119,84,-61
186,457,71,68,-208,0,103,223,151,56
179,263,-39,-84,-510,-149,5,150,171,117
68,-26,42,-1,-604,-387,-184,-72,39,79
-15,-55,166,224,-46,-555,-339,-271,-129,0
-39,-113,32,309,530,-706,-435,-351,-132,52
-88,-82,65,403,714,-901,-662,-433,-151,28
-146,81,364,500,584,-970,-892,-599,-287,-93
-73,117,349,231,77,-1034,-787,-529,-255,-75
39,25,99,-175,-175,-588,-298,-269,-37,119
88,-160,-211,-509,-385,84,134,-6,210,365
29,-246,-260,-450,-281,957,397,268,356,352
36,-114,-70,-134,-185,945,228,160,130,245
91,-3,39,103,-146,243,176,50,28,133
92,43,20,133,-19,168,173,109,-30,-44
19,84,-22,129,255,227,215,282,-43,-239
-97,-52,-199,-22,546,381,291,220,-127,-261
-124,-149,-226,-226,284,523,414,197,-54,-138
-126,-103,-96,-43,7,77,246,155,6,-79
-223,-130,11,183,5,-409,-128,-44,-114,-184
-234,-219,-196,-57,-151,-604,-315,-118,-105,-169
-188,-189,-179,-135,-83,-330,-166,-32,-84,-156
-72,70,143,91,342,100,-68,-22,-18,-113
214,540,180,25,232,402,101,169,214,32
251,505,-48,-161,-193,467,282,295,266,47
91,125,-10,-126,-349,310,281,129,57,43
81,30,94,-48,-229,121,246,61,-57,79
35,-82,27,51,-4,-63,145,35,-110,3
18,-59,106,148,-98,-324,-71,-73,-84,-20
25,24,152,212,-185,-292,-99,0,0,-33
1,99,9,61,-246,-42,-19,67,-15,-122
-48,47,-64,-11,-104,-116,-136,-104,-145,-153
-177,-96,89,255,688,-2,-273,-319,-387,-274
-129,4,428,444,1088,76,-471,-469,-489,-273
65,136,411,310,586,-358,-600,-423,-304,-78
95,-45,-43,-128,-167,-580,-460,-229,-162,58
71,-207,-278,-398,-605,73,-13,75,15,109
59,-117,-241,-273,-561,769,525,413,247,59
131,175,-177,-240,-294,731,685,518,303,23
25,63,-29,-108,-117,334,386,306,206,39
-25,-33,8,-38,-19,-111,67,122,83,7
-27,-71,-3,-26,307,-426,14,58,22,-6
-17,-111,32,95,581,-388,91,54,-6,14
-84,-156,39,191,372,-54,-41,-27,-84,-35
-84,-151,-60,47,-91,254,-125,-99,-102,-31
126,178,-219,-151,-235,-19,-14,-8,43,106
280,441,-104,-134,-98,-198,12,49,127,214
100,64,-8,-88,-79,-63,34,-59,68,218
-5,-46,13,33,-225,-245,-143,-171,34,160
-88,-129,-58,129,-300,-416,-321,-160,33,2
-181,-178,-81,147,-132,-211,-236,-63,-58,-222
-234,-149,-55,133,-86,-233,-177,-102,-138,-264
-138,-25,-79,45,11,249,-16,-74,-71,-162
76,88,-246,-135,252,945,144,55,182,38
104,-5,-196,-119,438,603,148,108,435,161
76,54,139,137,147,-239,-74,-53,253,200
-10,5,152,220,2,-548,-252,-257,-103,160
-88,-121,-67,12,-24,-144,-171,-288,-305,104
-55,-150,-100,-98,-26,215,-111,-247,-298,100
38,-133,-137,-132,186,-51,-116,-93,-46,143
195,151,-129,-172,192,-245,98,210,283,64
358,596,59,-195,-199,96,410,474,470,-124
212,365,118,-76,-268,309,465,523,378,-204
-16,3,66,28,-177,-12,145,256,40,-192
-63,-24,76,117,-99,-204,-76,70,-96,-107
-150,-98,144,274,25,26,31,12,-139,-60
-147,-65,213,293,47,266,90,-107,-231,-2
-16,3,-23,-26,102,294,158,-147,-198,91
25,-20,-174,-120,68,108,61,-148,-140,157
-159,-202,-124,-36,-112,-176,-306,-313,-261,-22
-159,-225,-119,-105,-166,-29,-114,-166,-209,-98
-9,-73,-101,-227,-343,151,93,127,-35,-15
20,-43,-116,-194,-463,351,272,216,21,-24
-95,-171,-173,-81,-304,180,211,148,14,-118
-183,-270,-201,-11,135,-31,181,107,-39,-148
-130,-57,52,132,418,15,156,128,-23,-111
-53,9,148,90,58,-78,68,71,18,0
-11,-51,-42,-125,-185,-413,-101,-55,21,62
13,-76,-21,-26,54,-763,-170,-42,46,76
-90,-131,40,268,229,-1222,-279,-144,14,-104
-110,-120,34,284,278,-1595,-540,-344,2,-190
-37,-25,102,137,314,-1250,-690,-364,-39,-130
48,135,115,-49,293,471,-402,-320,-106,-83
212,558,34,-140,-33,1884,54,-130,-56,51
226,467,-177,-210,-307,1501,467,133,-110,231
77,41,36,65,-292,427,305,-136,-368,306
56,117,484,410,-173,-265,-212,-420,-462,266
163,122,138,5,-319,-381,-271,-249,-215,272
151,-120,-375,-328,-248,-83,191,238,263,263
41,-230,-334,-178,186,654,650,611,536,72
10,-156,-222,-38,214,911,670,631,603,-78
-59,-131,-135,24,-86,691,471,349,246,-131
-44,-27,-12,55,-350,138,195,167,146,-81
-16,11,145,126,-4,-494,-69,85,133,-59
-42,-87,42,115,274,-729,-311,-13,89,-59
-28,-109,-6,63,20,-719,-439,-65,60,-47
-53,-148,-88,-98,-246,-455,-335,-17,55,-54
0,-96,-222,-279,-148,28,-75,104,177,69
69,20,-129,-185,152,496,281,152,221,119
16,-47,-71,-42,376,753,466,42,125,75
-2,-64,-88,44,487,578,334,-20,76,73
-22,-88,24,158,277,322,139,-16,32,41
5,-101,1,157,54,38,-8,17,3,27
17,-94,-119,7,-189,-407,-240,-105,-119,-8
-46,-9,-54,-65,-417,-799,-519,-360,-273,-94
74,356,131,9,-462,-1083,-624,-369,-288,-123
180,600,208,118,-150,-1011,-529,-242,-170,-101
68,268,157,70,311,-571,-494,-310,-51,13
-8,-71,-36,-4,492,202,-163,-141,13,70
36,7,203,152,372,934,391,190,43,13
55,56,289,114,60,821,547,268,15,-28
57,-63,21,-99,-97,29,353,269,35,56
9,-41,-17,-91,-22,-491,40,138,-90,6
-16,73,37,-10,-78,-341,-81,59,-143,-127
-78,-112,-32,-25,-233,-60,4,58,-94,-117
-13,-43,-37,-23,-276,-95,23,91,-20,-29
-6,-11,-138,-136,-121,-155,-72,-6,-31,-7
-75,-66,-82,-73,103,-306,-170,-124,-79,-7
-190,-137,-55,-2,144,-95,-159,-194,-172,-88
-179,-153,-97,-44,57,346,63,-139,-166,-59
-72,-113,-28,-20,18,737,380,55,3,40
38,40,83,0,-124,576,600,243,139,85
-30,1,51,-18,-67,169,294,177,49,-10
-139,-142,-43,-4,125,-8,-22,47,0,-102
-125,-195,-117,33,315,-163,-162,-75,-37,-67
-112,-242,-257,66,376,-101,-232,-228,-134,-31
-56,-125,-141,-15,-196,-401,-398,-349,-249,-28
110,342,280,14,-423,-580,-453,-371,-327,-65
312,928,745,273,0,-227,-224,-162,-200,-85
280,660,535,256,156,171,37,145,181,67
108,-70,-8,-12,0,487,120,136,370,221
0,-384,-503,-416,-178,438,-79,-101,265,215
52,-318,-527,-425,-93,344,-100,-195,143,283
34,-149,-261,-127,347,313,67,-36,32,157
-57,-31,-7,56,336,398,304,174,-78,-106
-125,-13,58,120,97,606,486,349,78,-221
-54,51,149,18,-109,300,492,474,203,-59
-18,31,107,-89,-166,-72,280,316,188,58
-17,-139,-113,-166,-159,-316,42,163,204,94
-67,-192,-114,-57,-77,-320,-68,48,110,20
-109,-134,-4,149,161,-71,-66,-28,20,-76
-58,28,202,304,375,144,-29,-35,-113,-130
42,231,288,300,525,-329,-225,-87,-149,-87
182,552,294,291,356,-955,-500,-142,-107,-28
146,487,231,215,-289,-1435,-695,-225,-133,-29
-20,23,72,89,-400,-1452,-676,-267,-217,-66
-94,-160,44,11,-321,-850,-527,-281,-181,-80
-65,-197,30,-77,-268,317,-236,-240,27,6
22,-211,-108,-112,-198,1244,165,-70,113,156
40,-210,-169,-147,-108,1369,374,116,173,151
69,-72,-311,-292,193,1053,542,235,269,78
79,0,-280,-282,105,632,580,288,175,56
59,52,-32,-74,-83,244,290,159,113,118
39,45,94,-5,-173,-154,-74,-29,172,141
-43,-50,48,-90,-290,-75,-14,-29,74,20
-46,-116,23,-65,-173,173,131,-27,-53,12
37,-78,11,-46,-153,-31,-63,-177,-152,88
96,-62,-88,-112,-188,-260,-128,-182,-115,174
47,-111,-176,-163,121,-206,-92,-207,-101,139
-36,-148,-101,-163,160,-75,-12,-53,-36,2
-64,-71,42,-32,43,248,158,128,-34,-98
-76,-10,149,140,205,582,397,289,-32,-174
-36,42,181,176,213,196,400,408,126,-114
-66,1,58,137,189,-215,125,292,68,-138
-80,-16,-77,64,145,-171,16,87,5,-183
104,353,1,54,126,153,159,78,32,-59
194,558,62,59,53,281,233,105,22,12
102,165,-44,-37,-192,112,152,60,-18,48
75,-22,-27,-28,-165,63,45,8,-34,113
35,-34,46,79,89,189,60,8,58,98
-22,-86,-95,49,15,2,182,13,145,96
-14,-42,-19,34,-232,-344,100,-28,122,138
-32,18,159,73,-249,-528,-213,-149,99,180
-111,-104,3,27,-69,-465,-401,-230,95,82
-155,-283,-271,-97,-19,-477,-432,-310,44,-5
-206,-214,-157,92,253,-426,-388,-371,-132,-133
-208,35,283,423,545,-258,-225,-229,-271,-292
-105,100,235,183,241,-192,-153,-16,-155,-242
-30,0,73,-69,-45,-142,-75,93,80,-57
-24,-72,-15,-205,-101,192,132,139,96,-16
237,409,82,-169,5,885,504,403,151,1
385,730,158,-42,-41,584,320,346,154,72
120,220,-34,-42,184,20,17,91,12,26
-158,-244,-154,74,560,82,6,-61,-187,-131
-194,-262,-23,208,504,287,53,-105,-231,-216
-29,-96,136,115,-27,118,-41,-98,-98,-118
70,-32,73,-18,-503,-117,-14,-6,7,46
93,7,-119,-311,-729,-305,52,88,51,105
38,-45,-161,-292,-412,-76,3,124,126,87
-117,-215,-128,-85,34,671,76,70,108,-4
-99,-209,-215,-166,64,765,140,77,141,33
-20,-73,-101,-127,-18,15,-7,29,127,72
-37,3,64,3,-61,-290,-70,57,39,-4
-77,-15,71,91,-120,-162,-28,128,11,-79
-74,-31,40,119,-155,-193,-75,52,34,-68
-37,39,19,78,-244,-351,-147,22,36,-9
-75,45,94,44,-390,-610,-255,-76,-95,-81
-133,-29,-33,14,54,-645,-213,-72,-112,-160
-191,-120,-234,92,365,-427,-261,-163,-138,-200
-182,-30,-57,308,111,48,-224,-257,-217,-184
-124,42,191,259,-109,530,59,-230,-198,-93
-3,43,114,-84,-241,505,226,-162,-16,78
184,271,134,-187,-214,122,137,-119,122,163
376,651,194,-133,171,131,117,72,92,148
310,411,79,-117,337,299,144,182,32,233
97,-94,-107,-120,159,140,88,98,18,257
-34,-233,-171,-59,147,63,62,60,-13,93
-94,-230,-210,-57,69,-15,-50,-13,-159,-44
-52,-212,-250,-66,35,-187,-109,32,-74,-2
-46,-166,-192,-26,20,-416,-178,49,24,18
-36,-20,-151,-4,-101,-703,-333,-82,-21,-24
-110,-14,-1,86,-225,-850,-523,-225,-105,-137
-198,-52,29,125,-280,-725,-537,-197,-167,-250
-192,-82,21,160,-154,-427,-334,-135,-116,-209
-96,-66,164,285,311,0,-11,-62,-12,-46
-48,-120,131,239,677,690,394,66,71,22
26,-126,-125,-45,561,732,457,121,163,87
224,134,-48,-199,-54,486,241,147,240,219
210,131,-11,-225,-433,191,22,100,172,205
30,-65,-50,-177,-349,-331,-46,7,77,79
-82,-105,17,-76,-153,-456,125,-12,44,-59
-71,-110,-26,-15,-83,-299,241,51,148,-38
-43,-70,-7,74,-65,-19,75,-31,22,-58
-54,42,132,134,25,341,-163,-175,-215,-185
-14,191,285,218,177,385,-15,-111,-246,-203
152,417,200,189,425,347,310,140,-78,-32
186,423,6,95,765,505,284,192,111,102
13,33,-203,-63,516,761,159,101,163,101
-11,-183,-276,-190,13,612,195,83,230,164
110,-94,-126,-203,-252,207,292,71,162,279
97,-60,-89,-177,-346,-4,233,40,46,222
-32,-105,-106,-117,-272,186,140,52,0,56
-41,-20,10,-37,-303,-86,27,95,86,16
-22,38,104,109,-161,-239,-187,-44,94,-65
42,76,247,267,-13,-347,-248,-114,32,0
49,6,191,284,37,-602,-304,-123,-21,57
-68,-133,-88,6,64,-518,-307,-210,-117,-22
-141,-266,-410,-269,-147,-381,-296,-339,-241,-8
-91,-289,-505,-284,-437,-212,-214,-319,-284,21
-10,3,-61,-35,-445,-269,-64,-148,-129,3
182,545,222,40,-315,-497,37,85,-17,10
170,444,203,-10,45,-608,-23,-18,-61,59
-73,-79,108,156,491,-138,-151,-194,-163,30
-31,-218,-27,175,372,410,-274,-131,28,133
159,-163,-134,-114,80,284,-122,44,288,307
163,-70,-80,-158,-38,-95,32,122,120,171
-8,-168,-214,-160,-26,-257,43,79,-164,-71
-26,-38,-177,-180,-154,-199,-7,65,-214,-151
-24,29,-46,-137,-240,304,107,58,-157,-165
-90,-167,-16,-49,-246,1215,579,144,-28,-97
14,-58,119,41,-392,1179,693,267,216,24
48,21,106,65,-467,213,320,217,215,-63
-37,-21,123,120,-15,-540,-32,140,107,-261
-99,-13,186,314,670,-1094,-306,-62,-5,-302
-86,73,333,416,444,-1395,-619,-318,-86,-214
-62,86,299,304,84,-969,-741,-474,-195,-76
-25,-10,82,46,142,309,-432,-393,-194,25
52,-117,-93,-205,31,1233,183,31,36,148
72,-196,-208,-246,-118,1223,720,417,200,136
-35,-202,-198,-45,149,812,729,355,115,-74
-72,-64,-44,167,618,595,438,187,58,-226
16,115,142,166,661,384,291,208,92,-162
125,259,128,143,432,294,215,258,36,-80
268,524,145,89,120,206,232,367,100,-8
197,295,105,-29,-235,-171,-15,172,39,40
75,-48,21,-71,-357,-436,-281,-84,-9,59
127,-10,-33,-209,-455,-729,-304,-5,79,146
103,31,32,-195,-275,-427,-213,15,92,147
3,-22,98,-53,-50,-76,-107,-90,-47,28
14,67,171,-4,-66,-383,-271,-218,-94,19
13,43,-109,-163,-90,-502,-218,-171,62,64
-21,-261,-297,-196,79,-106,0,-136,175,154
-14,-301,-216,-93,207,447,95,-126,143,180
-44,-218,-184,-101,109,791,229,45,38,85
-38,-88,-4,-70,-81,581,362,319,24,60
-40,-55,99,-61,-185,70,249,365,-22,9
-49,-89,21,-44,-140,53,222,326,-74,-27
-49,-37,9,-2,-63,139,184,268,-65,-71
-38,-41,35,34,-19,64,80,192,20,-54
-12,-24,85,38,-160,-127,55,124,17,-39
-3,-7,101,71,-288,-402,-49,-23,-56,-47
-5,-50,20,48,-305,-649,-282,-169,-109,-16
-44,-38,14,26,-54,-574,-445,-169,-150,-27
-116,-90,-11,-12,397,-306,-498,-302,-252,-81
-81,-115,-113,-56,318,-223,-398,-368,-219,-16
92,129,-75,-62,155,260,164,-148,-57,96
129,122,7,-38,115,975,570,60,168,256
121,110,-81,-157,-129,341,172,-15,223,197
106,49,-93,-112,-185,-362,-161,-82,131,100
-10,-54,-23,20,68,-249,-256,-121,-84,-45
-130,-147,-97,23,238,-39,-155,-214,-265,-144
-132,-69,-16,16,174,86,-187,-344,-429,-170
71,389,320,147,54,120,-182,-310,-399,-123
215,627,424,231,43,3,25,-32,-21,-73
26,56,90,61,-72,-274,142,198,279,-48
-67,-127,-48,-13,18,-366,58,256,364,-94
-100,-94,19,-43,168,-134,-98,104,164,-112
-68,-69,67,-4,311,485,-87,12,120,-63
-23,-89,64,155,135,738,81,57,156,-2
26,-54,-76,251,-31,68,45,30,133,32
146,340,-111,53,-117,-639,-177,-39,97,56
115,315,41,-164,-248,-541,-331,-182,12,93
62,46,85,-132,-143,-50,-278,-230,-54,146
93,-76,16,-49,-100,156,-31,-52,23,265
74,-206,-204,-255,-303,103,101,100,121,312
-22,-219,-252,-347,-349,103,80,65,32,161
-113,-181,-220,-169,-85,58,79,-12,-104,-81
-22,155,3,69,102,-293,78,104,102,-205
-62,212,247,321,417,-196,97,160,142,-304
-139,58,344,389,531,120,95,106,-101,-333
-120,-36,159,203,169,291,100,28,-95,-167
-48,-95,-55,-24,-235,209,85,4,35,40
26,-84,-42,-71,-157,20,81,-33,35,94
12,-50,56,-10,-237,-225,-49,-125,-73,-5
25,19,-40,-45,-300,-382,-220,-167,-126,-17
115,231,100,-12,-233,-444,-310,-163,-78,54
28,112,182,105,-211,-460,-342,-166,-67,-15
-81,-134,34,187,54,-414,-300,-68,-28,-70
-88,-130,36,116,-35,-300,-262,-55,-78,-27
-69,-60,35,-34,-106,247,-92,-101,-138,23
-61,-129,-30,16,162,895,253,-26,19,95
-64,-189,-67,155,339,668,259,42,107,132
92,195,15,177,608,66,-41,-26,28,102
196,459,-61,-109,274,-494,-144,-25,24,87
-5,-39,-269,-419,-304,-895,-166,-45,-16,96
-143,-251,-318,-426,-186,-675,-77,21,37,47
-232,-246,-114,-161,337,182,236,150,-3,-90
-106,-88,27,-94,93,593,267,110,-138,-95
-92,-163,-89,-165,-267,759,147,0,-204,-44
-55,-11,63,62,-63,1052,298,-36,-276,14
173,406,46,-8,17,713,407,140,-118,126
257,448,42,-81,-216,-43,152,190,52,176
99,135,164,56,-350,-371,-161,-1,68,55
-20,-51,16,18,-268,-359,-231,26,120,-40
-64,-114,-44,41,-72,-182,-30,229,251,-47
-30,-80,55,170,-12,-75,205,268,330,41
-14,-123,-41,20,151,72,417,210,213,128
7,-169,-198,-199,-62,222,387,168,219,180
-26,-171,-110,-9,15,446,327,184,194,83
-121,-185,-96,72,181,390,382,250,115,-137
-131,-193,-152,11,180,312,358,242,122,-202
-49,-124,-132,-56,16,198,246,240,151,-53
-7,-2,56,49,-87,-43,171,184,53,-14
-13,10,55,76,-133,-349,-3,-37,-18,-65
4,109,-15,5,-181,-445,-240,-285,-100,-130
204,555,155,44,37,-322,-234,-314,-86,-105
230,539,176,110,198,-319,-135,-241,-46,8
32,63,124,133,36,-507,-77,-283,0,99
-52,-141,5,119,-159,-535,-336,-388,70,133
-83,-198,-129,43,-133,-281,-577,-450,-75,44
-34,-44,-97,1,-139,-193,-439,-327,-211,-97
-6,132,97,63,-30,-114,-362,-246,-304,-188
-1,251,445,303,618,215,-148,-132,-368,-215
-52,-25,142,115,484,514,294,172,-263,-109
-96,-295,-327,-247,-47,655,539,351,-60,-8
-95,-325,-406,-356,-178,721,530,346,6,-17
-36,-228,-263,-245,-130,657,495,279,-8,39
-17,-148,-130,-108,-189,196,282,156,-46,42
-44,-85,-8,26,-215,-350,-2,57,-50,-6
-62,23,80,191,10,-705,-195,23,-33,-122
4,322,104,269,279,-896,-333,30,-69,-202
-93,97,30,239,446,-859,-478,-118,-149,-230
-179,-106,100,267,475,-364,-390,-197,-190,-232
-126,-98,109,128,142,348,-85,-124,-136,-147
2,-129,-58,-125,-260,637,274,84,69,78
69,-110,-112,-153,-141,676,259,179,188,204
146,18,-17,-149,-103,593,198,152,238,289
217,134,-131,-297,-273,-16,57,-4,182,264
71,-58,-220,-241,-349,-439,-330,-327,-66,146
-52,-157,-145,-139,-366,-421,-501,-528,-260,32
-60,-14,121,56,-122,-194,-365,-507,-254,-3
-54,34,346,285,368,-247,-241,-320,-211,-56
-33,-24,145,154,516,-162,-96,49,-152,-128
29,-8,0,4,390,175,48,305,-6,-131
47,83,86,70,108,451,160,254,70,-128
117,121,45,99,4,598,367,205,197,23
55,-69,-7,100,149,322,361,144,204,82
28,-36,79,181,137,-255,-8,-3,125,70
78,107,298,289,9,-693,-378,-275,-24,124
89,156,371,289,-200,-775,-480,-372,9,201
74,99,120,-96,-307,-667,-419,-183,192,219
3,-26,-266,-425,-296,-68,-184,56,322,124
26,66,-377,-404,-274,549,182,243,345,34
63,125,-288,-252,-126,837,682,530,409,29
68,24,-4,-52,-11,814,816,484,284,-15
67,107,59,12,6,410,509,291,152,-27
-34,25,47,-6,-60,21,136,-6,-142,-37
-88,-103,67,26,-105,17,0,-84,-263,1
-123,-209,-6,127,-79,91,1,-58,-237,-5
-146,-129,-144,19,-119,-88,-64,-109,-223,-95
29,314,-42,26,-190,-329,-202,-100,-184,-119
26,217,84,2,-25,-211,-198,-92,-168,-110
-24,-38,-88,-126,251,67,-37,76,-41,-86
-15,-110,-237,-135,116,105,39,189,108,-74
-29,-65,-8,97,110,195,15,129,144,-58
-59,-74,177,120,81,82,19,81,84,-47
-31,-129,119,11,14,-21,110,141,133,44
22,-44,11,-23,-14,2,153,103,94,60
-46,-114,-190,29,-13,-414,-125,-146,-67,-4
-37,-151,-311,23,-125,-1058,-477,-339,-131,-2
-14,-143,-198,-17,-251,-1485,-730,-445,-194,14
-41,-118,-39,37,-128,-1221,-682,-356,-331,-100
-70,-107,-76,83,238,63,-331,-193,-330,-199
-87,-2,59,108,429,866,-159,-68,-135,-196
64,274,307,86,219,715,110,197,258,-20
320,605,161,-84,20,515,449,320,404,116
297,431,-57,-253,-29,496,432,192,184,178
104,-67,-108,-254,15,542,423,95,33,322
3,-249,-121,-191,60,527,349,15,-33,346
-71,-329,-229,-259,-183,408,211,-64,-70,278
-44,-263,-210,-305,-420,310,146,-148,-28,243
-23,-135,-32,-163,-379,186,157,-93,-29,108
-2,68,177,70,-170,194,202,118,65,-56
15,-1,205,221,50,162,189,228,104,-124
29,-91,89,225,136,114,139,226,6,-166
58,-121,-13,94,34,-4,77,248,97,-98
34,26,163,45,-113,-249,-100,120,65,-153
-14,62,251,150,-6,-427,-223,-35,-31,-214
-13,-24,131,210,190,-385,-206,-115,-44,-131
6,94,148,181,316,-210,-197,-191,-102,-129
75,412,260,157,253,-152,-234,-125,-84,-147
49,195,168,140,100,106,-166,-119,-101,-90
33,56,46,23,-124,194,-184,-196,-200,-81
-48,-11,46,77,-142,-354,-324,-229,-213,-129
-138,-107,95,301,92,-850,-438,-231,-243,-185
-216,-215,38,329,181,-908,-589,-365,-329,-231
-260,-244,-159,97,294,-782,-697,-520,-387,-239
-66,90,-283,-172,502,-203,-432,-286,-145,-111
139,98,-189,-397,-364,524,-31,74,264,180
152,-61,-90,-430,-791,602,198,290,539,326
82,-93,-25,-255,-153,402,302,346,449,278
70,-85,-3,-125,86,131,407,465,211,153
67,12,42,-22,-92,-85,424,566,-11,-29
84,-1,35,37,-125,-22,384,374,-1,65
134,15,-41,-31,-139,228,345,221,124,208
91,13,-38,-40,-87,511,420,214,254,174
9,-94,-136,-65,-39,530,440,149,190,165
-44,-137,-153,-94,6,-28,-57,-50,-20,88
-124,-129,-17,-27,-61,-378,-219,-181,-201,-62
-173,-51,215,223,-6,-177,-130,-226,-245,-151
-176,-105,6,134,198,46,-16,-168,-177,-176
-131,-135,-321,-124,311,235,-4,-104,-143,-163
64,400,162,120,476,506,-29,-67,-79,-86
201,779,559,251,411,421,-34,-24,-2,-6
135,381,375,98,78,168,-56,-47,25,92
78,-52,-14,-96,-289,-482,-181,-35,142,220
19,-202,-195,-43,-136,-801,-214,-25,195,325
-22,-189,-224,-9,105,-670,-244,-151,23,254
-113,-227,-208,-140,-93,-380,-238,-212,-100,106
-220,-242,-124,-78,-307,80,-153,-151,-49,-22
-134,-127,-66,-102,-352,419,70,31,-38,-93
35,-21,-107,-94,-202,502,282,131,-118,-85
60,92,21,4,21,621,284,69,-68,-55
60,111,149,76,95,453,220,139,140,3
29,-26,-27,8,125,301,226,270,283,0
-12,-148,-195,-119,54,192,203,346,271,36
-7,-68,-93,-48,25,-27,32,170,131,72
11,75,39,72,41,-248,-110,-16,-26,-3
-60,8,106,115,-113,-441,-73,-89,-88,-23
-59,20,172,127,-318,-721,28,-124,-100,35
-47,-29,70,36,-417,-766,181,-85,-172,72
-90,-119,-99,-108,-277,-292,196,-97,-146,25
-126,-131,-149,-185,106,396,185,-52,26,-27
-109,-87,-68,-86,279,570,-318,-204,-2,-54
19,207,114,62,245,322,-453,-270,-5,-35
193,691,263,232,308,-83,-334,-103,24,-66
85,533,236,337,437,-227,-360,-155,-94,-140
-86,93,194,398,567,10,-308,-205,-325,-202
-86,-24,182,319,509,-194,-378,-204,-340,-168
-20,-56,73,58,40,-534,-331,-23,-149,-23
-70,-144,-31,-161,-319,-579,-97,197,101,29
-84,-227,-140,-213,-282,-126,124,164,67,-3
66,-150,-228,-264,-125,730,347,172,106,87
120,-203,-255,-244,0,1248,574,305,203,193
65,-220,-198,-167,-6,771,617,338,218,169
-23,-205,-154,-117,-74,345,458,169,115,60
-62,-182,-98,-92,-441,60,217,-21,-8,-55
-17,-87,62,-47,-737,-382,-19,-113,-89,-49
64,59,292,125,-732,-715,-208,-146,-77,21
156,233,172,74,-114,-719,-235,-27,49,18
241,477,-65,-173,638,-262,-86,214,216,-80
76,245,124,-32,490,-47,-109,108,211,-125
-76,6,165,30,374,129,-48,-44,83,-116
-144,-195,-17,-31,372,627,171,-7,68,-33
-62,-175,-100,-42,-15,580,188,31,95,120
-30,-65,-101,35,-169,162,138,73,38,69
-22,20,-117,47,-114,-292,24,31,-10,49
96,266,-121,-73,-149,-388,-87,-14,44,131
13,56,-109,-85,-123,-157,-59,-56,-30,54
-62,-116,-84,-51,-92,-4,1,-95,-82,39
-71,-148,-112,-39,-147,70,81,-72,-31,91
-13,-90,-79,50,-152,19,93,-53,-65,46
4,8,131,181,78,-195,1,-26,-139,-97
8,43,255,280,448,-319,-102,-27,-143,-179
32,181,369,400,546,-286,-88,48,30,-173
22,69,73,190,370,-83,-5,117,169,-27
-162,-184,-141,-69,-1,49,-109,12,37,-114
-170,-74,-64,-148,-338,233,-103,-106,-159,-223
-30,48,78,15,-369,329,100,-105,-145,-113
69,102,180,18,-268,-59,110,-14,-37,33
63,-13,11,-185,-31,102,102,69,100,157
63,-76,-177,-298,-32,245,119,141,194,208
132,226,-103,-117,-1,223,122,194,209,197
183,362,-6,-61,-159,43,13,100,158,284
130,-15,-96,-138,-342,-44,-126,-116,85,334
75,-219,-157,-159,-384,-351,-207,-201,85,304
19,-185,-120,-101,-8,-447,-99,-141,1,163
-7,-114,-41,-28,267,-92,36,-18,-165,2
1,-74,9,20,74,54,45,55,-241,-74
-6,17,86,112,95,-65,-40,-42,-279,-154
-7,88,197,136,138,-329,-186,-140,-279,-92
-68,-6,213,135,86,-528,-262,-226,-193,-30
-123,-135,7,-40,0,-449,-333,-315,-208,-100
-162,-193,-25,-62,78,286,-96,-84,-252,-232
-112,-96,83,109,213,1083,243,150,-101,-255
30,41,43,108,256,1009,404,333,217,-169
93,214,130,100,293,340,252,295,224,-150
102,198,120,101,214,-44,89,197,72,-75
24,-111,-121,56,-58,-272,17,146,36,15
39,-48,-84,19,-415,-575,-215,32,-16,-17
10,66,70,-19,-641,-867,-400,-18,73,-110
-84,-36,10,37,-433,-1066,-460,-56,112,-167
-227,-140,36,259,68,-1016,-414,-187,-63,-280
-302,-169,84,379,395,-1284,-557,-449,-298,-341
-155,-4,-27,319,991,-909,-610,-534,-284,-229
101,437,-18,247,1057,-26,-376,-320,-116,-98
114,415,98,65,125,293,-240,-298,-63,-4
75,117,108,-192,-516,1072,235,-34,32,100
118,-78,-143,-399,-477,1735,748,453,162,188
124,-154,-248,-349,-290,1423,758,435,44,204
145,-50,-55,-146,-114,691,568,292,-56,237
85,-77,-118,-190,-82,630,462,269,75,216
59,-46,-193,-205,-182,836,502,376,267,120
21,-82,-24,-69,-292,498,419,346,240,113
-6,-66,-30,-149,-400,56,178,227,190,99
-26,-23,25,-92,-194,-47,45,133,130,44
-27,5,150,123,120,18,82,124,118,-10
-26,-21,105,123,70,-74,70,75,87,-11
-42,-79,-91,42,60,-346,-84,-70,13,24
40,119,-256,10,210,-601,-208,-114,-21,3
129,451,-85,104,293,-754,-175,-82,18,-3
-110,110,85,101,167,-692,-85,-188,-23,-37
-270,-178,-56,-46,143,-205,-39,-256,-207,-192
-230,-298,-338,-277,-78,339,-92,-250,-183,-80
-20,-185,-188,-180,-242,474,-31,-99,70,235
-12,-99,153,92,-246,256,-155,-157,104,236
42,19,121,-7,-392,-100,-204,-234,127,196
250,467,102,-63,-182,-262,-90,-169,13,131
166,375,135,36,234,-95,66,-24,-150,-3
18,14,46,38,162,77,169,189,-74,-49
-46,-89,78,52,68,184,278,338,4,-130
-36,-51,190,111,21,90,164,292,60,-59
-18,-87,84,111,-28,-359,-148,133,113,17
-43,-69,123,191,68,-924,-470,-85,19,-27
-63,30,212,389,306,-1297,-744,-270,-136,-122
-160,-99,111,462,579,-1404,-821,-370,-282,-249
-188,-293,-118,221,754,-877,-577,-334,-267,-207
-81,-202,-60,48,548,801,151,-45,-50,-30
66,-74,-73,-151,-139,1841,694,231,168,152
67,-36,-156,-405,-750,1209,601,167,130,113
107,3,-62,-389,-706,447,467,156,196,177
138,35,-45,-290,-434,192,327,147,218,203
306,453,26,-211,-265,37,170,167,168,143
287,481,10,-133,-114,14,107,209,111,70
26,-6,-15,-1,183,326,190,168,0,0
-70,-187,-23,64,338,525,202,106,-71,-3
-72,-145,-4,-2,67,118,101,3,-76,-7
-96,-87,63,3,-70,-222,83,-74,-92,-37
-62,-43,54,29,-154,-318,120,-70,-78,-4
3,69,25,35,-155,-418,-220,-161,-57,18
-22,6,40,116,-77,-429,-552,-288,-112,-27
-113,-156,10,148,165,-257,-373,-324,-92,-120
-113,-149,97,222,749,30,-168,-155,-81,-148
15,-65,74,164,482,38,-154,9,-52,23
-38,-115,-113,-60,-180,16,-188,-39,-79,10
-96,-84,-37,-51,-350,178,-20,-26,-24,-79
-38,73,140,-59,-452,-130,159,135,287,-62
21,82,-23,-301,-512,-258,200,181,347,-74
46,-78,-185,-295,-278,145,249,173,218,-66
103,39,50,-38,142,-21,20,37,205,57
19,44,157,94,141,-508,-324,-197,99,52
-10,8,79,17,-121,-402,-395,-282,-79,14
-10,26,134,59,-158,44,-247,-218,-215,-24
-103,-83,96,189,97,489,110,52,-120,-80
-57,115,65,131,313,827,576,387,-4,-111
95,525,191,71,367,889,623,360,57,-63
74,268,-18,-95,86,434,370,217,159,38
10,-105,-261,-219,-108,54,253,188,313,124
31,-154,-223,-235,-185,-39,187,37,304,202
50,-152,-239,-271,-210,-118,139,-160,140,261
-30,-134,-163,-155,-77,-179,-139,-205,-207,84
-54,-100,-40,-15,41,-171,-216,-213,-436,0
36,-11,118,20,-66,-235,-138,-174,-290,145
59,-13,95,77,-29,-254,-156,-79,-213,128
-31,-86,23,190,128,-309,-134,12,-149,-7
-87,-86,54,222,177,-495,-79,72,2,-142
-81,-26,194,217,178,-424,-36,134,61,-195
-57,-14,203,291,335,9,14,66,21,-105
-109,-67,-58,160,240,-123,-202,-110,-154,-171
-42,133,-201,-53,24,-399,-404,-196,-241,-240
-27,230,48,96,-94,-449,-460,-286,-216,-211
-63,185,297,120,-210,-346,-348,-296,-159,-116
14,89,141,-72,-345,186,-32,-52,-15,27
65,-115,-171,-207,-274,554,164,79,122,107
27,-219,-278,-181,333,646,255,157,219,102
78,-100,-158,-153,353,449,290,232,285,149
167,87,-25,-82,179,260,297,274,300,178
282,420,86,65,325,321,385,359,267,177
152,106,-79,21,175,315,237,153,36,99
-21,-199,-274,-136,-210,102,84,9,-170,24
-54,-128,-96,-126,-410,-150,-2,-9,-212,34
-46,-55,107,-13,-299,-269,-46,-18,-208,-9
-3,-24,42,-16,-125,-303,-86,-40,-135,-8
-35,-99,-140,-99,-60,-155,-155,-141,-101,-8
11,-63,-119,-141,40,189,-165,-111,-40,-15
28,-56,-16,-76,-38,262,-90,2,101,14
12,-20,43,-54,-286,-293,-146,-5,64,35
-30,-16,58,-12,-230,-328,-153,-34,-45,-42
-64,-24,89,99,-66,264,2,-63,-134,-88
-42,-35,113,119,7,492,246,-39,-76,12
-24,-91,30,95,107,117,299,85,37,82
-9,-12,-84,15,271,-174,-92,64,72,-50
209,495,-10,-38,240,-270,-201,80,187,-123
212,536,68,4,175,-374,-208,26,180,-129
-75,19,13,55,117,-289,-211,-1,55,-157
-144,-128,36,146,134,-8,-160,11,18,-151
-80,-108,82,206,190,302,-77,-25,106,-44
-42,-52,156,190,105,80,-102,-63,96,5
-82,22,231,139,-47,-340,-328,-205,-91,-49
-72,125,190,95,-6,-285,-301,-218,-200,-74
-87,-66,-83,-1,-10,-121,-137,-189,-181,-92
-49,-155,-31,-80,-487,-33,12,-151,-41,-10
55,-40,188,0,-545,179,111,-51,124,131
94,-21,83,-15,106,311,193,77,209,211
22,-83,-154,-181,328,148,186,101,88,71
-34,-107,-146,-124,155,168,171,74,88,-13
-44,-56,-43,58,122,372,223,88,147,-92
21,-23,-60,38,47,433,300,155,188,-47
85,-69,-89,0,-49,96,183,12,126,112
86,-46,-195,-140,-192,-252,-7,-130,0,154
26,-56,-201,-249,-223,-245,-13,-133,-144,87
-59,-112,-140,-163,-91,-31,-47,-128,-296,-7
-130,-146,-49,23,85,230,-115,-232,-449,-151
-92,-70,42,83,0,-19,-164,-256,-411,-142
88,283,119,112,15,-379,-173,-154,-223,-98
272,636,249,215,125,-622,-69,-81,-89,-67
121,341,263,304,131,-811,-58,-114,-107,-97
14,100,308,313,-86,-728,-264,-148,-22,-29
-23,-18,254,346,-326,-812,-571,-258,-48,61
-175,-316,-96,236,4,-766,-515,-222,-92,-26
-141,-274,-171,94,698,-135,-163,-37,-72,13
-100,-104,-137,-36,868,733,36,14,-30,35
-95,-168,-243,-228,555,1551,307,57,107,128
-79,-284,-311,-238,54,1619,487,126,230,239
3,-173,-216,-318,-438,916,462,181,266,229
24,-85,-164,-384,-621,261,430,214,249,182
25,-60,-141,-359,-551,-156,325,247,190,117
50,-37,-55,-289,-453,-289,170,255,130,10
-3,-23,-4,-166,-244,-60,248,326,91,-146
85,261,125,-18,-38,191,415,444,121,-126
93,274,90,10,18,337,396,393,197,-62
-81,-99,-86,-24,-1,396,292,265,231,-60
-131,-113,-180,10,-7,230,207,229,168,-125
-114,7,36,107,31,31,160,174,146,-106
-66,49,187,88,130,-11,35,52,80,-46
-50,-47,25,-27,112,12,-110,-28,-32,-28
12,21,-11,-4,66,-59,-149,-16,-67,-11
136,363,73,80,108,-115,-61,10,-97,18
79,156,77,63,47,-127,26,-63,-139,3
36,-20,43,2,-31,-136,108,-47,-68,-25
0,-72,-27,-26,-13,12,209,37,-16,-31
-45,-97,-133,-3,96,270,21,-8,-30,-66
-16,-54,-60,24,81,150,-50,-49,-31,-35
-5,-8,49,81,97,-35,-89,-110,-72,-7
7,102,144,193,159,-300,-213,-176,-120,-16
-57,22,197,287,191,-666,-404,-267,-134,-25
-110,-63,150,313,190,-987,-606,-366,-159,-36
-212,-85,91,217,145,-1242,-816,-524,-283,-160
-258,-26,170,193,174,-1126,-903,-599,-368,-287
-126,110,335,152,199,-609,-739,-507,-223,-195
8,-11,-1,-116,-109,185,-288,-262,82,67
214,42,-225,-260,-384,822,229,136,249,276
392,459,-42,-85,28,1101,471,363,94,208
267,343,26,-27,281,1075,496,263,-60,161
154,-71,-64,-202,-200,417,382,179,71,315
158,-151,-141,-311,-505,108,227,231,129,331
103,-195,-226,-302,-142,208,269,351,182,160
40,-200,-180,-176,-2,265,394,382,216,13
5,-181,-127,-123,-62,165,258,213,117,-48
32,-23,-43,-111,-135,-110,47,176,215,3
-87,-105,56,29,-38,-151,-22,145,109,-110
-97,-55,244,234,100,-30,-6,-34,-157,-205
3,20,348,301,144,88,77,-56,-121,-29
-80,-125,168,198,-22,-137,-72,-172,-162,0
-172,-245,-115,-68,-331,-404,-228,-282,-270,-78
-128,-198,-198,-206,-382,-408,-170,-195,-216,-51
-10,-33,-101,-200,-302,-397,-205,-164,-133,-14
36,-28,-126,-170,-4,-339,-203,-163,-7,15
0,-93,-99,-32,341,-143,-11,82,182,-2
55,38,73,67,322,-152,87,242,174,-58
50,89,151,132,190,-401,-89,94,42,-113
-1,-10,104,126,84,-277,-202,-41,24,-60
19,-51,-27,10,-23,347,-107,-73,52,30
75,21,-28,-71,-77,743,151,38,140,103
264,466,199,52,99,607,169,141,196,92
316,477,248,155,271,456,159,131,174,130
114,48,97,51,178,411,251,36,73,128
40,-58,-14,-81,12,287,295,0,-27,111
-18,-108,-27,-30,11,87,162,-64,-109,96
-91,-131,-25,30,-3,-107,-30,-156,-198,-1
-131,-78,23,91,-45,-392,-193,-249,-228,-110
-86,126,86,175,-20,-1043,-446,-274,-103,-174
66,429,163,168,7,-1356,-543,-158,42,-92
-23,66,56,119,206,-824,-470,-164,52,-76
-23,-33,67,65,230,123,-218,-98,94,-23
0,-39,-40,-138,-152,592,-101,-113,94,107
14,-180,-316,-264,-104,894,146,17,125,224
38,-214,-373,-232,-55,785,385,99,106,243
50,-98,-210,-133,-133,355,368,100,112,130
116,266,-59,-50,-42,486,510,297,181,36
132,498,51,30,-5,466,535,406,167,-51
25,249,-52,-56,-161,248,329,304,40,-103
-145,-233,-297,-70,-208,34,34,54,-94,-131
-189,-183,-188,46,-58,-131,-97,-62,-89,-146
-134,7,194,170,88,-227,-160,-131,-45,-141
-58,-27,141,149,82,-290,-208,-146,-37,-155
67,92,37,49,1,-430,-214,-56,14,-61
157,286,56,21,-44,-299,-126,-15,43,19
-100,-126,-121,-33,-97,22,51,-37,-97,24
-118,-268,-171,-36,153,133,90,-75,-134,84
-129,-146,-51,43,289,-110,117,-115,-120,22
-189,-106,-37,101,429,-191,-164,-235,-196,-91
-117,-134,34,84,225,-104,-526,-266,-227,-37
39,-56,61,-27,-102,-41,-205,-11,-157,48
99,68,26,-12,-142,-70,123,128,-3,76
0,-88,-64,20,-95,-242,14,-31,12,63
-97,-220,-176,-24,-77,-312,-247,-218,-75,-5
-67,-161,-108,-49,-1,-40,-229,-90,24,-40
36,-10,58,-73,-84,461,92,187,174,-31
133,120,179,-20,-264,529,323,245,0,-37
75,30,49,26,-73,23,225,147,-80,-71
50,117,87,53,240,-259,0,-24,-11,-88
202,514,215,93,332,-167,-91,-65,90,-37
117,324,142,69,50,355,140,85,134,3
-73,-76,-127,-158,-369,643,424,153,86,-10
-39,-57,-141,-284,-556,361,299,61,45,14
27,30,45,-135,-422,52,124,43,-2,-10
-38,-17,118,127,-225,-415,-9,44,-74,-122
-88,-85,93,266,-19,-746,-128,-15,-59,-154
-42,-19,-57,189,10,-890,-235,-53,95,-103
-97,-87,-263,-36,-136,-928,-284,-136,38,-61
-125,-82,-140,-40,204,-439,-201,-135,51,6
-101,-153,-67,-91,260,436,140,-95,35,89
25,-171,-168,-230,-165,837,364,-48,-28,231
100,-95,-123,-287,-331,666,193,-76,12,300
62,-80,-109,-241,-269,289,83,16,93,200
0,-28,-51,-131,7,234,153,187,109,0
-24,-37,52,11,317,385,181,141,-12,-106
-48,-120,45,55,284,431,252,190,168,-55
-86,-169,-47,8,83,299,233,173,199,-56
-75,-150,-121,-36,12,56,87,1,-3,-79
-79,-44,-12,-1,50,-29,11,-49,-37,-79
-100,3,145,75,64,-57,-21,-48,-33,-93
-41,22,132,133,46,-127,-71,-29,-23,-64
208,437,186,187,132,-76,-60,111,99,9
307,571,123,135,130,-51,-42,166,148,80
130,121,-42,51,98,-142,-54,92,96,105
15,-90,-51,42,112,-214,-99,47,45,77
-33,-178,-137,19,95,-157,-78,57,99,31
-76,-209,-92,-41,61,33,3,14,106,-11
-53,-135,17,-10,1,180,69,-6,103,-2
1,-21,19,-14,-92,64,14,-11,77,59
-21,-47,-19,-42,-85,-69,-108,-106,-30,66
-68,-95,33,79,40,-187,-204,-190,-149,83
-121,-33,225,350,278,-389,-358,-269,-293,-61
-178,-25,376,610,519,-730,-573,-367,-427,-239
-201,8,385,676,544,-1002,-747,-441,-393,-271
-183,-32,156,254,201,-919,-730,-445,-304,-220
-121,-20,-7,-134,-152,-451,-405,-313,-215,-166
-30,32,-168,-335,-188,16,76,-43,36,-39
-14,-152,-217,-318,-229,109,265,-15,18,100
54,-150,-147,-247,-389,-22,354,49,43,216
4,-130,-74,-186,-339,-25,-24,24,37,136
-40,-91,22,-176,-104,420,-137,21,11,23
35,-55,115,-69,91,1079,86,94,127,111
51,-4,121,-15,-57,744,130,99,143,170
109,210,-63,-174,-155,267,372,287,175,160
214,474,-82,-136,-100,166,442,253,136,106
-51,115,41,-18,-112,235,428,150,70,1
-132,-61,-6,5,-221,136,337,93,36,-62
-73,-110,-154,-14,-254,-16,38,-32,-143,-53
-23,-102,-83,33,-108,-69,73,36,-213,-16
1,-101,-53,-29,-21,-72,166,106,-40,25
-4,-42,21,-8,79,155,173,126,75,-35
0,31,-56,148,235,381,92,117,126,-90
-46,-77,-202,77,249,29,59,165,20,-172
-59,-83,-271,22,103,-485,-103,43,2,-159
-53,6,-40,106,-81,-754,-370,-234,-169,-150
73,200,276,165,-163,-692,-418,-229,-93,-83
189,306,401,259,36,-266,-258,-57,5,40
138,165,216,228,268,6,-139,66,62,74
138,294,152,200,578,61,-68,153,108,62
202,580,145,184,552,219,21,133,54,49
56,185,-63,-55,146,289,108,72,10,25
-23,-190,-207,-257,-260,347,237,111,43,67
6,-179,-162,-256,-430,393,330,150,51,85
-53,-204,-157,-176,-201,661,381,67,-66,-3
-61,-194,-156,-106,-62,476,340,37,-124,-25
-49,-201,-132,-90,-70,-10,236,-6,-141,-15
-43,-148,-132,-77,223,127,152,-38,-161,-65
-43,-65,-19,-2,323,251,119,34,-61,-72
11,40,106,14,37,249,60,93,108,-55
21,-5,91,0,-204,240,-8,64,151,-34
20,-101,15,34,-128,-5,-19,48,87,53
13,-107,-24,36,-56,-377,-140,0,-22,57
-14,-10,131,101,70,-437,-340,-157,-166,-31
1,96,168,95,181,-210,-449,-273,-223,-71
-67,-4,59,53,113,70,-344,-206,-152,-98
-68,-77,4,11,-168,70,-109,40,138,-30
31,19,83,-7,-472,-135,15,122,394,85
49,122,243,15,-521,-536,-98,7,198,105
0,18,78,-30,-224,-538,-128,-39,-10,128
-58,-138,-170,-120,-6,-267,-21,-55,-121,119
-10,-101,-203,-188,-27,-18,58,-9,-64,135
174,329,-50,-99,214,432,144,137,96,134
211,460,126,32,260,669,277,246,160,172
-51,-9,119,110,154,605,305,168,39,84
-152,-208,-68,48,45,290,212,83,52,39
-113,-165,-206,-27,0,45,104,47,24,-7
-22,-70,-166,-39,2,-23,64,91,36,-22
42,2,-10,11,39,10,71,194,16,-46
148,270,161,66,80,-7,17,240,33,-24
166,372,135,27,51,-121,-87,160,18,18
27,-18,14,-42,-25,-202,-197,-68,-85,21
-65,-142,6,121,162,-155,-232,-265,-152,-43
-146,-128,20,192,250,-221,-310,-424,-249,-147
-140,-118,-33,178,274,-477,-387,-310,-260,-172
-85,-34,95,329,208,-782,-595,-345,-286,-168
17,219,410,523,8,-996,-916,-613,-270,-167
204,473,439,319,-362,-1309,-1107,-694,-250,-68
126,94,-17,-223,-706,-1566,-944,-527,-198,82
-4,-113,-201,-394,-268,-930,-430,-131,-56,106
-133,-316,-268,-199,378,410,184,202,25,40
-65,-177,-63,-19,200,1191,610,390,139,28
0,-56,-59,-159,-161,1325,825,525,390,-35
14,-136,-303,-324,-273,1241,1007,652,593,59
138,174,-190,-233,-192,493,790,632,496,115
103,290,-36,-39,202,-100,362,490,192,-100
-124,-132,-26,27,410,-326,-10,184,-3,-191
-145,-135,51,128,416,-305,-202,22,-21,-167
-141,-118,148,255,267,-68,-176,-34,-72,-186
-122,-183,54,226,164,229,3,-4,-45,-166
-36,-181,-57,25,56,360,141,59,68,-26
26,-31,18,7,-123,55,47,15,35,14
6,34,-14,-24,3,104,66,-64,-79,1
-30,-45,-155,-262,-86,210,85,-154,-139,29
-87,-86,-109,-199,-41,526,71,-146,-208,-32
-7,-60,-67,-144,-44,725,201,61,-91,56
72,-42,-139,-202,-163,432,149,92,-24,111
40,-114,-289,-160,-98,114,84,21,-13,83
13,-75,-192,-60,-57,-11,72,4,87,81
143,328,203,165,-3,161,34,-1,128,143
265,610,323,230,-186,-85,58,9,132,223
147,201,-17,-111,-480,-370,100,0,119,273
5,-218,-272,-346,-468,-216,170,25,-6,230
-94,-264,-220,-236,-76,31,-136,-12,-179,-28
-51,-171,-85,-128,66,153,-72,82,-70,-88
60,9,112,39,147,449,253,213,76,-39
86,148,223,187,283,518,414,339,219,-51
48,80,92,156,252,316,234,238,152,-14
-19,-128,-44,41,101,93,29,12,-41,100
-23,-137,-23,-6,-5,-60,-46,-84,-92,131
-15,-92,-4,0,-28,-86,-36,-53,-54,114
-41,-118,-20,-14,-5,-11,50,2,-31,72
-89,-168,-52,-48,-7,6,129,44,7,51
-87,-136,-61,-49,-44,-77,131,29,40,5
-19,-13,-85,-51,-83,-180,123,21,60,-57
-17,-38,-27,-39,-114,-232,156,29,61,-51
-88,-74,18,-11,-87,-206,-84,-66,-29,-73
-92,-81,-20,-4,-53,-158,-244,-144,-86,-67
-54,-91,-122,19,8,-48,-241,-188,-110,-80
20,-13,-60,7,-48,-91,-214,-208,-52,-7
79,9,7,-28,-89,-141,-217,-191,19,79
108,107,35,17,9,-106,-189,-99,96,67
228,498,133,80,127,-39,-58,49,132,-23
206,419,114,49,48,-85,7,38,89,-12
71,21,113,22,-96,-237,-114,-186,-92,19
49,-12,228,106,-74,-354,-276,-295,-164,-25
-55,-32,237,190,115,-382,-344,-338,-216,-135
-120,-84,183,390,407,-441,-331,-304,-336,-226
-137,-28,232,575,641,-738,-444,-338,-371,-312
-88,142,295,473,658,-1003,-517,-344,-239,-356
-173,69,336,366,503,-857,-317,-223,-293,-421
-87,74,340,263,218,-422,20,-32,-272,-332
74,182,275,63,-123,-79,-14,137,97,-168
141,58,-116,-351,-420,784,211,301,445,33
177,-145,-391,-566,-595,1307,833,557,546,241
90,-235,-392,-406,-465,760,705,458,384,239
34,-171,-317,-164,-35,475,408,223,157,145
109,32,-210,-136,204,308,228,135,82,115
66,-97,-180,-177,10,-21,90,70,56,144
27,-90,-56,-75,-196,71,56,2,-11,100
-39,-152,22,54,0,516,152,-21,-70,23
-39,-147,-57,44,28,729,186,54,-110,-1
-34,-67,-182,-162,-140,676,177,75,-94,11
37,56,-39,-173,-157,232,164,97,-39,64
176,362,27,-98,-33,-306,50,91,-18,42
211,424,-86,-78,14,-445,-48,21,-27,16
37,-23,-132,-76,-66,-352,-46,-40,45,-23
-76,-153,-53,-36,-31,-108,19,11,93,-96
-85,-136,7,20,26,94,-6,-36,-11,-78
-75,-105,25,-1,-9,91,-69,-71,-41,-18
-77,-79,44,-19,-42,-127,-44,-57,-94,-13
-34,-22,103,34,-3,-124,-11,-15,-62,-13
-8,-10,106,46,13,194,-29,-26,-30,1
-15,-32,112,94,-56,296,-69,-98,-57,14
-7,51,170,110,-166,13,-132,-117,-63,7
20,11,59,0,-274,-208,-212,-42,16,38
13,-36,-34,16,-409,-522,-447,-82,34,31
-41,-34,-21,119,-400,-982,-704,-303,-55,-27
-127,4,188,249,6,-1068,-672,-452,-170,-96
-7,326,380,377,259,-1060,-513,-456,-219,-123
232,655,405,238,176,-1078,-634,-531,-244,-52
131,315,214,58,597,-242,-460,-412,-151,24
-76,-169,-124,-112,605,329,-65,-119,-49,-21
-26,-244,-367,-343,73,706,442,156,67,27
26,-217,-359,-362,-184,1074,742,277,143,131
-3,-200,-256,-263,-247,909,747,318,-41,88
-10,-108,-120,-125,-66,561,625,294,-29,94
-39,-13,-57,40,303,254,325,152,17,79
-134,-107,-137,91,331,8,182,111,108,-25
-123,-130,-166,37,254,-117,142,121,130,-67
-77,-68,-77,-39,154,229,182,149,128,-16
-43,-69,-125,-205,-134,646,267,194,200,77
-52,-107,-202,-230,-229,775,224,123,149,83
-19,-3,-81,-127,-178,557,182,96,144,91
66,189,131,21,-116,163,182,157,189,141
33,98,234,143,-24,25,74,82,124,72
-3,-26,141,108,99,63,5,29,93,12
19,-72,18,37,121,25,9,78,125,38
16,-90,-35,11,37,-106,-42,71,121,48
-12,-99,-28,-24,-89,-218,-78,5,56,12
-55,-112,-27,-70,-187,-256,-57,-24,-2,-24
-43,-15,2,-21,-86,-208,-23,-26,-32,-66
101,374,114,67,162,-35,6,59,35,-58
203,521,179,106,144,146,80,140,129,30
109,160,33,88,14,130,44,41,92,64
-20,-102,-39,24,-42,-34,-46,-95,-25,29
-52,-71,32,-55,-82,-159,-89,-204,-145,-8
-97,-10,92,25,-39,-471,-244,-374,-286,-117
-162,16,176,175,136,-838,-508,-590,-397,-184
-63,108,107,208,355,-809,-641,-584,-359,-74
12,31,52,164,286,-867,-813,-495,-224,23
72,1,10,16,-166,-1040,-933,-470,-95,76
66,-56,-30,-24,-184,-232,-513,-350,-77,136
57,-28,134,12,-56,989,329,108,66,146
5,-58,219,71,28,1430,885,525,168,10
-101,-170,159,56,-93,857,811,570,183,-118
-18,45,68,-51,-318,254,596,463,154,-79
88,190,-159,-301,-360,79,425,339,71,-20
-19,-100,-203,-288,-280,54,280,194,-20,-73
-51,-205,-234,-235,-136,-204,63,93,-23,-69
-86,-272,-378,-270,-46,-449,-172,41,3,-21
-112,-70,-39,5,-91,-733,-270,-34,-85,-92
-45,123,303,220,-295,-1202,-350,-169,-145,-144
-51,113,274,323,-315,-1253,-540,-344,-163,-210
8,349,287,457,-91,-880,-498,-282,-227,-274
-44,256,141,203,180,-126,-11,-2,-205,-251
-112,-118,-81,-221,427,1036,385,98,-75,-68
27,-127,-217,-401,191,1636,312,46,54,167
76,-158,-291,-380,-23,1351,254,36,126,259
75,-142,-234,-290,-84,675,288,31,90,229
65,-122,-175,-213,-92,365,260,51,36,160
67,-41,-98,-86,10,303,249,234,75,110
26,14,20,77,130,311,236,333,115,1
-23,-18,116,188,150,181,193,264,175,-82
0,-38,85,178,95,-77,116,142,168,-63
9,-79,2,149,55,-313,34,92,136,-11
-19,-12,62,164,-56,-691,-237,-101,-3,-87
3,0,-38,133,-79,-787,-457,-305,-98,-64
105,80,-70,74,13,-385,-511,-302,-17,84
236,534,163,139,197,-434,-657,-266,-6,55
277,701,191,133,561,-417,-581,-192,-92,-7
85,303,187,99,651,56,-204,-95,-98,24
-6,-13,119,-12,235,145,34,-46,-55,133
-58,-215,-93,-155,-189,-87,172,11,-40,104
-94,-272,-106,-172,-295,-65,268,63,79,87
-143,-213,-36,-114,-218,454,426,79,101,51
-88,-9,71,-16,-125,806,466,187,216,12
-33,49,42,-24,-149,641,385,260,326,-18
-49,-84,36,-39,-236,293,300,145,127,-14
-57,-136,136,108,-157,44,242,62,-4,1
-101,-180,134,196,-24,60,139,-62,-85,-3
-153,-133,144,278,237,9,-1,-152,-160,-55
-156,-112,46,221,411,-355,-149,-61,-84,-71
-98,-132,-134,62,243,-844,-307,-15,27,-19
-37,-32,-214,-82,-110,-1036,-470,-67,-15,-19
-106,-52,-241,-227,-321,-712,-410,-223,-211,-154
-167,-145,-240,-299,-336,-209,70,-228,-196,-153
-61,-208,-264,-370,-282,509,577,7,-31,66
21,-220,-305,-312,-149,1180,552,88,126,154
37,-110,-160,-96,-25,675,301,86,162,112
-32,-128,-151,60,163,454,68,97,146,-20
114,190,-40,98,139,380,160,115,90,-83
348,666,202,91,123,73,181,154,14,-96
241,415,131,-20,75,-143,32,107,49,-1
96,48,52,-84,-207,-320,-95,44,20,57
0,-34,109,41,-203,-351,-150,21,-5,-13
-131,-151,60,114,-28,-134,-151,-34,-49,-128
-168,-138,62,102,151,302,-124,-108,-135,-208
-106,-36,153,64,21,348,-18,-31,-119,-164
-51,58,197,101,5,76,86,-44,-155,-119
-73,-99,22,82,40,-52,44,-124,-182,-88
-88,-180,-188,-126,-141,-281,-149,-132,-135,-39
-5,49,72,-48,-340,-626,-354,-169,-120,54
92,223,290,44,-255,-507,-350,-144,-124,116
109,70,65,-60,-61,-143,-245,-71,-130,142
82,-90,-108,-60,52,-254,-278,-78,-94,184
94,-2,-70,-74,-101,-443,-358,-184,-34,266
67,-62,-84,-152,-169,-39,-90,-152,-42,274
4,-228,-220,-206,-24,289,269,135,134,158
-48,-196,-205,-130,387,530,423,430,306,-46
-88,-97,-91,-36,342,835,499,542,325,-197
-87,-58,-22,6,136,686,405,441,222,-172
-73,-50,0,30,59,138,145,233,96,-94
-63,27,-21,67,113,51,36,98,5,-91
90,411,79,92,187,89,112,182,92,-54
155,504,109,111,207,102,186,208,190,21
7,75,39,116,164,69,144,105,184,59
-50,-70,88,129,42,-121,-20,-25,95,21
-15,-44,97,147,-34,-324,-208,-153,32,41
-32,-46,109,167,-64,-526,-293,-275,-79,19
-90,-73,25,78,-98,-844,-337,-356,-252,-97
-74,-71,-120,7,24,-919,-335,-348,-289,-152
-50,-52,-140,-40,180,-692,-420,-379,-261,-129
-5,-5,0,-52,331,21,-318,-240,-134,-7
75,67,160,43,140,1019,25,56,71,112
74,27,141,87,-159,981,118,98,110,141
87,-30,-6,-63,-277,233,43,7,84,131
101,-12,-46,-144,-128,-98,0,-83,48,148
46,-12,-33,-19,286,-74,39,3,106,129
60,185,107,241,535,-301,-66,96,135,39
-122,3,351,621,620,-523,-322,-186,-150,-168
-119,30,291,546,371,-571,-420,-145,-299,-196
-54,-39,-105,13,-117,-570,-427,8,-286,-91
2,-145,-340,-398,-518,-294,-197,99,-147,62
43,-95,-270,-496,-616,568,324,309,-1,192
122,14,-62,-415,-539,1167,555,515,173,283
221,177,-46,-239,-354,756,471,544,281,331
283,475,27,-107,-60,268,308,396,155,295
162,275,43,-132,-19,175,182,170,-63,198
-29,-85,-33,-112,-143,217,204,81,-87,80
-56,-121,-93,-55,-180,163,241,125,54,75
-19,-85,-28,5,-203,-115,128,89,104,57
-39,-135,-43,32,-234,-444,-44,6,85,-32
-73,-157,-89,18,-177,-404,-57,-22,-2,-85
-50,-12,59,30,25,-216,-125,2,57,-63
-74,-45,127,34,59,-40,-139,-22,94,-50
-113,-128,56,49,25,-23,38,-48,61,-76
-141,-110,87,159,288,-103,71,-172,-78,-118
-119,-64,81,312,495,-19,-50,-228,-170,-99
-84,-18,101,352,261,-185,-404,-341,-192,-106
-6,55,187,244,-85,-399,-517,-437,-207,4
264,386,194,29,-414,-347,-566,-295,-65,208
439,731,192,-42,-585,-493,-554,-160,29,218
107,182,-238,-308,-286,-671,-327,-175,0,57
-138,-348,-481,-373,109,-398,124,66,57,18
-122,-287,-410,-280,124,199,488,374,41,-102
-76,-188,-235,-129,219,993,544,318,175,-184
-110,-173,-133,12,442,1168,449,179,130,-173
-123,-116,-90,37,300,754,362,213,19,-125
-68,11,29,73,266,531,261,191,50,-129
-136,-99,-11,-7,111,497,335,209,89,-137
-148,-87,41,-35,-6,361,428,231,142,-84
-126,-78,60,10,-7,184,326,145,150,-16
-83,-52,21,72,-38,67,115,-6,72,1
-51,-16,182,140,-12,38,63,-61,-6,-3
-7,-62,186,154,84,143,126,-22,30,65
10,-4,85,104,32,44,65,-60,-12,42
-70,-60,-151,-220,-242,-203,-61,-123,-160,-92
-47,-104,-282,-289,-323,-236,-52,-16,-125,-72
-8,39,29,-21,-171,-259,-89,21,-44,-58
-19,78,252,209,17,-384,-200,-43,-19,-68
-10,-3,107,199,126,-533,-350,-183,-105,-33
15,-6,-16,93,231,-544,-436,-252,-135,-17
107,151,39,24,148,-439,-427,-280,-97,-7
345,523,30,-79,69,-194,-240,-183,74,67
296,416,-112,-125,167,143,-6,-80,174,77
-11,-11,-62,-40,168,74,79,-100,25,-21
-86,-141,-74,-76,56,-145,36,-159,-114,-14
-82,-169,-136,-88,18,60,38,-144,-156,43
-109,-177,-46,28,178,259,62,-77,-179,-36
-91,-86,96,105,229,429,149,64,-24,-57
47,109,94,133,104,229,187,178,198,27
57,90,71,122,4,-133,38,20,63,-30
-11,9,122,67,-57,-312,-119,-173,-137,-65
7,-5,42,37,-91,-145,-143,-96,-109,45
35,-74,-89,1,-172,-177,-213,-10,-19,266
48,-95,-98,-117,-292,-372,-141,24,4,345
44,-84,-49,-100,-260,-417,-115,-7,18,292
10,6,8,25,-83,-333,-260,-95,68,107
10,170,43,58,2,-230,-128,1,229,5
-96,-132,-87,-67,-181,-15,161,44,233,-21
-34,-102,-99,-144,-410,89,282,14,120,-9
-31,0,92,-41,-435,85,106,-76,-86,-111
-102,-19,180,95,-204,108,-2,-127,-142,-193
-106,-81,98,85,172,315,177,38,-58,-175
-44,-44,6,-29,295,168,226,99,-97,-172
147,250,-33,-78,321,270,183,152,-67,-76
298,557,76,-34,334,663,284,311,111,37
82,157,-54,-66,187,582,346,248,118,-16
-119,-235,-176,-72,83,250,224,72,20,-97
-87,-143,-47,5,114,-54,-12,-81,-23,-51
-55,-62,123,57,251,-66,-124,-189,-49,23
-64,-146,23,-17,238,97,-95,-259,-113,53
53,-82,-130,-97,34,60,-111,-222,-106,180
142,43,-84,-82,-173,-130,-142,-174,-89,221
42,-59,-7,-8,-223,-203,-101,-98,-98,161
2,-65,22,38,-177,-259,-61,37,-3,88
26,18,93,44,-71,-362,-96,65,56,-39
42,35,98,26,125,-191,-55,153,193,-56
43,11,96,9,4,85,135,260,234,-23
28,12,93,24,-100,189,190,160,139,-14
76,284,71,41,38,-82,12,62,2,-84
165,615,115,80,122,-316,-140,34,-34,-131
24,236,83,83,-10,-298,-219,-73,-45,-83
-142,-110,140,139,-137,83,-175,-134,-96,-83
-132,-104,233,170,-110,502,-11,-81,-137,-95
-93,-127,-47,76,0,399,79,-11,-88,-65
-9,-87,-269,-132,69,-27,108,62,23,39
56,22,-2,-79,17,-97,75,64,44,108
64,-48,57,-5,-224,-24,-54,16,11,114
-24,-194,-97,-121,-468,-182,-264,-109,-53,75
-75,-128,-29,29,-356,-481,-353,-203,-73,-8
-71,-108,-133,29,-69,-719,-317,-216,6,-28
-10,-76,-267,-179,171,-624,-115,-72,115,11
-5,-46,-87,-156,128,-267,-66,50,92,16
-18,-38,54,81,64,113,-286,0,-38,-31
-15,-18,-89,144,187,170,-255,5,-63,-24
-84,-146,-227,28,177,138,-91,19,-84,-34
-58,-133,-80,-73,81,103,156,55,-77,-9
-20,-79,45,-58,26,9,152,38,-97,6
-63,-174,-92,-138,-29,134,174,97,-83,-26
-137,-285,-253,-204,1,617,479,144,-68,-48
-106,-210,-232,-146,67,974,767,171,-4,17
4,81,1,21,180,904,368,60,27,35
133,309,159,86,126,446,-27,7,152,76
51,40,76,13,-178,-4,15,71,228,119
55,-1,70,-14,-297,-252,39,75,134,143
58,-7,94,-12,-307,-351,38,76,98,155
0,-17,110,25,-193,-227,-97,0,15,74
12,-9,63,2,-95,-257,-217,-117,-3,117
55,-6,20,-13,60,-294,-134,-123,84,217
143,314,153,40,82,-462,-260,-190,95,157
17,164,159,163,12,-558,-459,-365,-3,3
-174,-138,78,204,-171,-753,-591,-468,-83,-68
-291,-138,243,346,31,-903,-690,-580,-395,-209
-346,-93,317,419,334,-566,-630,-658,-553,-422
-141,4,-77,-79,-144,-492,-596,-586,-236,-237
125,120,-166,-365,-170,-56,-329,-313,-7,134
231,137,-111,-307,-59,674,230,243,169,270
308,426,-154,-130,26,1420,820,790,410,176
280,496,-63,-7,118,1319,1036,956,507,22
185,381,-19,-20,119,827,943,813,354,-8
-9,-57,-74,-35,229,730,730,485,190,2
-101,-271,-102,13,276,461,448,301,114,-49
-90,-214,-72,112,260,272,245,227,106,-94
-61,-109,28,132,132,144,179,189,108,-95
116,208,54,20,23,68,180,224,146,-68
150,252,-12,-102,-50,-14,83,185,122,-52
-58,-126,-43,-128,-124,-147,-144,-29,-38,-81
-94,-172,-4,-41,-96,-278,-186,-61,-54,-75
-89,-173,38,100,28,-285,-252,-55,8,-39
-135,-187,73,176,103,-225,-351,-139,-78,-141
-127,-169,50,117,-20,-366,-306,-117,-114,-169
7,51,262,206,-69,-500,-296,-68,-2,-47
89,261,430,218,-105,-571,-335,-123,4,0
-1,33,60,-13,-104,-711,-402,-260,-192,-97
-75,-137,-108,-46,-18,-935,-454,-291,-287,-100
-88,-211,-117,-71,9,-816,-396,-228,-268,-28
-70,-193,-64,-16,8,-260,-235,-153,-186,-27
36,-34,111,129,-10,620,-33,-109,-41,28
135,140,248,215,-94,909,3,-204,26,89
294,468,282,310,-16,79,-173,-277,14,163
261,491,76,286,379,-539,-315,-366,-140,116
-60,6,-115,19,557,-731,-411,-457,-326,10
-115,-153,-89,-282,102,-584,-420,-404,-317,90
-24,-58,61,-360,-444,-126,-119,-52,-166,99
-59,-165,-72,-436,-456,700,477,396,4,-105
-49,-187,-152,-325,-150,1481,894,743,308,-201
41,-62,-102,-225,-149,1299,891,742,429,-48
41,-40,-136,-191,-182,801,749,573,281,-12
-59,-182,-112,-75,-54,231,463,379,136,-88
-81,-233,-171,-63,14,-149,156,199,39,-101
-82,-212,-214,-71,-69,-354,-94,28,-17,-113
-46,-133,-141,-11,-83,-415,-236,-93,-30,-102
0,-26,-16,36,-57,-270,-183,-39,45,-17
28,0,-40,-17,-69,-38,-32,42,48,17
63,65,16,-21,59,196,3,16,-17,16
-17,-40,86,59,223,299,-9,-53,-93,4
-27,-75,58,70,127,312,85,-29,-40,54
-63,-86,-58,53,-13,330,114,-8,-6,18
-104,-130,-154,62,-3,163,-11,-68,-29,-26
-99,-111,-77,57,-28,-128,-184,-103,-25,-10
-80,-8,115,184,-17,-170,-170,-74,-57,-105
49,252,291,268,101,-111,-87,-22,-32,-77
313,750,403,214,92,-147,-88,47,77,18
314,640,201,5,-175,-200,-42,93,64,44
62,-4,-133,-116,-117,-131,38,96,-10,22
-29,-213,-172,-38,267,-243,-58,25,11,72
-24,-216,-146,-56,264,-382,-211,-4,-21,109
-64,-226,-129,-53,79,-271,-279,-79,-116,52
-55,-105,-40,-51,-119,-174,-293,-144,-146,-11
145,364,104,-20,-167,-83,-123,-26,-80,16
177,330,67,1,-173,29,116,103,24,82
-5,-81,-26,2,-122,-54,100,47,54,64
-63,-147,-26,14,86,74,2,-32,2,9
-95,-228,-113,-27,165,426,11,-28,-15,6
-87,-239,-137,-54,189,440,35,-28,-62,45
2,-158,-91,-62,117,87,-23,-65,-32,132
58,42,-92,-41,15,-91,37,-40,-1,142
114,275,-112,-34,26,-39,144,82,-28,100
11,-48,-109,-46,6,93,146,127,22,4
-56,-154,-48,-77,-101,240,166,134,33,-70
-18,-50,59,-68,-140,321,233,102,20,-46
54,20,146,14,-48,176,172,55,21,20
27,18,236,155,32,73,66,21,111,-24
-32,5,213,208,69,100,66,11,143,-119
95,202,50,63,45,55,61,0,106,-102
27,-28,-147,-50,-34,-152,-146,-159,81,-24
-96,-203,-162,44,73,-420,-335,-254,25,-73
-61,-69,8,194,114,-688,-366,-241,-18,-88
42,208,353,274,-116,-1035,-513,-265,-84,-80
49,228,568,325,-238,-1167,-591,-234,-99,-123
-79,-41,355,249,-32,-887,-475,-154,-197,-214
-130,-188,-63,-118,172,-187,-187,-23,-168,-211
-116,-189,-233,-258,243,681,217,145,-29,-132
-65,-185,-252,-267,109,845,556,301,76,-16
-7,-136,-169,-184,9,792,782,341,107,69
-2,-80,7,24,-9,918,493,115,-65,45
85,11,24,-16,-361,559,114,-23,-69,137
129,51,22,-110,-474,355,325,91,38,181
62,22,10,-95,139,393,566,194,54,85
113,339,54,40,462,47,261,205,79,-26
88,439,58,99,335,-97,-97,148,95,-130
-70,18,-142,-29,48,-32,-63,59,6,-110
-70,-130,-144,-97,-149,9,-19,17,0,12
-26,-100,-47,-93,-227,-60,58,70,49,103
-14,-86,-48,-65,-211,-160,59,29,43,115
39,-53,-111,-41,-185,-135,-13,-33,15,117
39,-15,-91,-70,-55,51,-52,-36,0,111
-5,-17,16,-12,74,126,-103,-52,0,108
-63,-114,65,15,15,163,-43,-106,-43,53
-73,-138,47,28,-10,210,36,-114,-42,45
-47,-120,-106,25,-1,79,-38,-92,10,70
-90,-129,-174,-59,24,-151,-273,-205,-59,0
-100,-116,-36,76,176,-209,-336,-298,-142,-36
-57,0,60,190,184,-353,-375,-329,-184,-60
40,173,52,140,-113,-535,-348,-287,-152,30
7,149,223,199,-296,-669,-324,-324,-292,13
-46,74,365,250,-382,-996,-426,-402,-408,-46
3,50,286,155,-376,-1169,-527,-374,-247,37
21,0,106,6,-19,-750,-334,-171,-34,110
83,0,19,-56,248,-49,25,105,122,143
143,-5,5,-95,491,948,331,264,304,153
141,71,-24,-52,500,1398,473,352,408,116
198,414,-8,-29,172,767,493,559,481,57
225,421,-135,-131,-48,170,496,503,374,95
24,-62,-255,-112,-30,231,382,281,212,45
-71,-247,-253,-147,-63,299,311,176,93,-30
-81,-157,-170,-218,-129,340,269,41,-1,-92
-111,-146,-132,-166,-132,136,59,-58,-48,-122
-94,-160,-156,-29,-20,-78,-121,-77,-103,-116
-33,-17,5,102,104,-150,-181,-38,-35,-66
-34,4,139,67,7,-341,-91,-33,42,-37
-54,-53,-47,-49,-103,-204,290,65,124,-50
-63,-98,-38,-60,-201,10,580,124,83,-103
-107,-109,-1,88,-74,-105,-8,-132,-213,-219
-47,-47,-41,162,61,-142,-329,-223,-348,-248
-1,-14,-84,45,-109,-101,-140,-116,-300,-167
77,189,91,110,162,-28,-9,-4,-207,-97
252,489,223,102,388,170,42,80,-5,17
83,92,111,-4,84,97,-102,-60,64,142
-50,-163,-133,-206,-87,-105,-302,-314,-14,187
-90,-222,-195,-157,74,-275,-406,-423,-71,198
-58,-166,-58,39,310,-353,-425,-468,-123,188
10,-107,-23,20,112,-619,-471,-487,-218,184
99,-4,12,-95,-330,-471,-396,-199,-112,194
224,331,130,-37,-196,204,-17,310,242,42
64,84,108,4,17,580,459,506,361,-83
-106,-156,-124,-65,156,843,971,491,129,-77
-114,-147,-177,-49,171,861,909,287,97,-27
-68,-75,-91,11,78,573,468,136,91,-13
-68,-87,11,-6,-58,455,287,149,12,-17
-71,-121,10,-52,-209,179,187,119,-10,-11
-20,-37,20,-48,-156,-90,104,110,-8,-52
31,2,38,-79,-59,-229,15,103,62,-32
-13,-63,20,-52,-36,-190,-39,35,48,-70
-63,-72,29,33,16,-63,-51,0,27,-123
-54,-29,31,32,-20,65,-102,-33,1,-135
-26,-32,-29,2,-86,65,-115,-33,24,-105
10,44,-2,-4,-129,-214,-132,-19,52,-47
41,203,190,83,-7,-206,-148,-22,35,-28
110,471,218,142,193,38,-127,39,18,-39
132,447,141,137,237,-12,-82,55,14,8
33,43,35,62,49,-341,-90,-33,18,93
-61,-132,35,66,-29,-412,-155,-109,-11,86
-109,-144,109,101,-107,-328,-272,-173,-73,14
-111,-145,130,199,-145,-197,-269,-180,-102,-77
-56,8,204,266,-82,-212,-135,-168,-90,-63
12,160,175,38,-267,-518,-183,-197,-122,-40
38,97,118,43,-445,-532,-273,-223,-120,26
70,-30,32,137,-370,-385,-289,-285,-179,143
139,-126,-156,25,-71,-292,-300,-289,-152,316
119,-21,-13,-117,-117,-471,-421,-369,-184,260
0,-94,-102,-177,153,-213,-309,-297,-180,132
-80,-257,-279,-268,431,346,-64,-43,-89,94
-10,-156,-194,-320,173,761,320,337,106,77
111,47,-20,-119,149,1101,672,610,357,56
66,30,65,6,132,999,630,498,339,14
79,42,-30,-63,-33,370,352,274,176,71
56,-11,-117,-125,-67,53,215,217,80,42
-36,-77,-187,-67,34,69,244,259,107,-58
-104,-113,-197,-2,83,91,288,273,184,-123
-88,-99,-84,14,51,45,267,282,174,-86
-14,100,-24,32,77,126,-11,188,66,-81
169,487,-1,16,59,89,-183,129,78,-48
192,458,39,-15,16,-83,-110,111,143,6
15,21,-61,-46,-41,-224,-95,-19,64,27
-59,-151,-205,-60,-37,-155,-138,-131,-30,59
-91,-185,-188,-30,30,-2,-108,-184,-145,17
-87,-153,-55,2,40,67,-91,-213,-188,-33
-80,-103,-25,-8,29,39,-52,-119,-132,-64
-80,-67,-43,-44,-22,-89,-64,-69,-79,-88
-65,-152,-51,-72,-89,-203,-161,-128,-55,-57
-35,-87,13,15,13,-121,-125,-52,-26,-43
-9,30,136,101,90,8,8,89,54,-12
11,1,98,71,5,41,137,168,100,51
27,-53,47,44,-112,-47,237,135,121,127
34,-71,-19,8,-138,-190,135,0,97,102
59,213,113,97,0,-189,-375,-311,-74,-95
80,550,602,525,113,-442,-603,-490,-232,-285
-146,192,764,931,248,-823,-697,-566,-382,-345
-239,-48,408,824,569,-1332,-915,-579,-518,-398
-138,163,354,532,637,-1954,-1302,-707,-567,-373
-22,271,370,181,381,-2038,-1352,-702,-412,-183
-12,-97,-72,-282,-44,-1283,-874,-319,-25,86
24,-190,-339,-475,-227,34,-178,180,339,191
74,-92,-548,-530,-67,2005,951,799,536,218
57,-270,-542,-409,-102,2788,1715,972,445,245
116,-236,-348,-302,-247,1755,1371,748,358,292
118,-204,-198,-270,-344,883,792,452,295,322
74,-206,-285,-359,-319,632,579,368,232,225
27,-169,-249,-302,-206,523,446,345,102,43
2,-113,-122,-212,-136,318,266,233,11,-8
35,1,-59,-131,-89,236,187,115,-3,33
21,-60,-98,-93,-83,139,85,-13,-64,45
-42,-116,-123,-42,-85,-151,-102,-174,-148,11
-82,-42,5,38,32,-366,-193,-236,-216,-13
-65,31,167,109,140,-332,-170,-187,-158,12
-38,-2,111,30,56,-185,-149,-144,-127,1
0,-71,-33,-91,-58,-42,-174,-152,-90,72
68,-3,-77,-122,-131,135,-103,-116,-19,112
159,231,48,-6,-101,262,-24,-8,61,49
55,44,21,60,-155,43,-55,33,121,7
10,-8,35,58,-130,-78,-81,67,196,-41
-20,-38,40,66,159,293,6,36,126,-23
-5,-28,81,92,280,447,130,38,67,24
22,7,147,98,108,93,119,54,74,33
37,27,97,102,112,-71,82,48,90,65
117,274,43,71,175,-84,-37,14,94,41
41,188,38,109,149,-146,-174,-87,23,-3
-45,20,162,225,62,-189,-159,-125,-11,-7
16,69,213,219,-99,-272,-124,-66,-29,3
36,87,184,158,-163,-447,-218,-104,-98,12
6,30,112,89,-127,-787,-377,-152,-65,0
-4,-42,10,-45,-68,-1010,-379,-90,82,19
30,85,63,57,75,-1153,-403,-142,153,1
107,444,88,233,70,-1480,-764,-383,31,-63
-84,142,-21,225,-31,-1175,-890,-608,-283,-156
-152,-25,67,93,43,-492,-661,-546,-345,-126
-20,-38,18,-143,55,272,-112,-218,-68,49
44,-199,-210,-422,-10,1117,407,69,166,213
-53,-265,-173,-365,-149,1795,901,358,211,125
-36,-114,-3,-187,-299,1176,943,539,205,-27
86,195,23,-148,-260,465,641,567,239,-62
163,449,-43,-89,-62,515,470,419,170,-13
21,155,-61,-6,32,444,358,272,43,-93
-140,-206,-114,64,161,189,265,221,-62,-214
-178,-221,-10,154,192,29,163,128,-119,-288
-158,-153,17,44,-44,-107,15,9,-160,-267
-125,-133,-18,-55,-182,-164,-40,-59,-145,-203
-48,-12,35,-6,21,-180,-60,-103,-135,-149
35,25,-88,-54,235,-68,52,18,-54,-76
15,-119,-203,-116,210,63,178,108,68,-9
-9,-100,-97,-27,182,186,148,61,61,1
-30,-52,53,31,118,369,67,-9,-25,-21
-27,-60,82,-19,-9,491,36,-18,-28,-27
1,-120,-68,9,-33,296,24,-22,-10,13
34,-103,-316,-39,45,78,-22,-61,-44,38
206,406,-116,-52,138,155,-122,-94,-46,86
282,633,173,80,197,148,-141,-115,-39,138
34,5,-100,27,66,-27,-133,-172,-70,121
-22,-213,-281,-52,-74,-309,-80,-97,-22,129
-9,-176,-191,-32,-115,-536,-100,11,-26,65
-34,-64,63,74,-36,-532,-151,53,-64,-27
-74,-28,142,118,-12,-367,-190,-62,-121,-94
-72,48,115,124,-19,-118,-308,-170,-123,-123
-89,71,55,89,-63,111,-98,41,-100,-147
-128,-133,47,-58,-286,104,308,155,-82,-93
22,-25,104,-162,-312,334,601,256,151,87
50,-42,7,-167,-173,258,503,275,214,125
-28,-177,-108,-117,-42,163,319,226,148,80
-89,-179,-92,-49,43,159,63,81,7,-15
-49,-69,47,-16,17,27,-47,22,-46,-35
-17,40,134,19,93,88,-70,8,-54,0
-40,-43,94,19,76,97,-88,-41,-34,33
-41,-98,41,49,61,29,-55,-58,-12,50
-16,-80,-46,61,-33,-123,47,-20,56,48
-14,0,-13,102,-225,-534,-147,-124,24,28
-6,90,195,233,-304,-936,-467,-251,-43,-10
-32,130,294,337,-140,-1276,-677,-250,-45,-78
-80,76,85,261,358,-1064,-534,-116,-82,-171
-81,37,-68,99,917,-106,-92,25,-114,-257
-131,-136,-45,70,804,481,7,-14,-104,-225
-102,-103,-115,0,341,621,-235,-108,-95,-180
-24,-64,-187,-212,-168,523,70,3,31,8
103,6,-110,-308,-488,339,372,131,170,251
165,60,22,-267,-651,-3,238,100,141,245
164,106,57,-227,-521,-39,84,21,85,153
304,391,83,-59,-103,306,139,62,89,137
276,247,-197,-109,47,357,76,26,52,135
46,-202,-314,-141,128,533,144,-55,-102,94
33,-49,6,-27,110,558,247,-25,-63,96
41,-10,112,-16,21,303,295,63,118,137
25,-10,108,-2,-38,58,85,-36,59,85
29,-43,136,115,-39,-82,-68,-62,3,67
-22,-114,-24,116,-25,-284,-87,103,183,29
-123,-115,-138,-32,-94,-508,-203,2,136,-118
-213,-177,-151,-37,61,-445,-215,-147,-136,-273
-201,-155,-33,91,251,-258,-161,-134,-263,-317
-88,19,186,216,128,-178,-164,-87,-182,-224
42,167,332,185,-28,5,-188,-14,-14,-54
71,6,110,34,18,217,-77,103,137,73
26,-121,-82,-4,132,132,21,140,120,87
210,256,-138,-32,71,145,26,199,86,65
351,565,-8,-99,-35,245,23,202,81,83
140,230,120,-64,-142,41,-38,42,-58,110
-26,-73,166,52,-72,51,21,-72,-120,124
-75,-160,-36,-80,1,96,59,-56,-26,92
-89,-210,-289,-311,-97,177,69,16,137,95
-52,-194,-258,-197,-95,276,174,83,151,105
62,-21,-76,-42,-10,207,185,90,91,109
103,53,9,26,-12,-82,-50,1,100,117
12,-138,-92,-24,-95,-233,-168,-19,120,142
-17,-168,-75,-44,-94,-134,-24,99,61,92
-54,-100,24,61,-11,-148,-18,130,-107,-56
-103,-86,1,119,107,-55,-19,42,-265,-197
-127,-17,68,87,105,226,152,-6,-253,-235
-50,132,273,149,-6,240,293,12,-164,-136
132,428,235,171,-45,159,240,66,-111,-44
46,319,76,107,68,254,-118,-24,-207,-138
-123,-146,-77,-92,144,90,-198,-96,-212,-130
-138,-264,-222,-180,171,-145,-140,-127,-192,-85
-123,-226,-197,-104,80,-270,-156,-86,-164,-54
-48,-72,-2,31,1,-365,-281,-5,-26,-14
-30,20,124,116,-171,-472,-394,-31,133,-12
58,121,133,100,-324,-560,-438,-94,192,70
83,176,148,173,-137,-433,-335,-97,76,44
-107,-101,75,209,88,-352,-248,-142,-21,-84
-102,-95,69,170,193,-280,-220,-176,-20,-73
17,35,171,111,79,-78,-176,-180,4,47
2,5,171,69,-5,-72,-22,-44,88,50
-71,-42,277,202,236,-128,-55,-116,60,-42
-22,-3,160,194,551,-162,-131,-148,-1,-70
67,186,-48,108,606,-398,-200,-94,-96,-114
-169,-14,-71,17,150,-280,-220,-208,-254,-254
-194,-166,-181,-163,-350,416,111,-45,-77,-107
-43,-233,-348,-312,-527,1206,517,198,231,141
100,-86,-168,-268,-599,650,486,201,297,305
122,85,78,-112,-317,-339,131,34,165,267
57,74,102,-32,182,-237,-100,-68,3,103
68,91,-32,-112,121,223,5,44,-57,9
20,29,-86,-124,41,655,330,211,33,-5
-58,-125,-81,-70,2,841,493,269,68,0
35,0,-71,-133,-96,510,421,228,179,17
11,7,-27,-121,-117,201,210,164,214,-21
-13,-24,18,-8,-42,205,134,204,165,-38
-10,-100,-51,-11,-72,111,208,308,224,3
-13,-69,-103,-62,-167,-80,231,262,163,-39
129,449,102,78,-90,-198,118,188,105,-93
196,718,208,168,-22,-224,74,91,-48,-58
2,148,-66,-84,-96,-70,24,-80,-159,3
-105,-139,-59,-62,-60,-19,-38,-198,-153,44
-101,-143,57,44,-20,-180,-15,-198,-29,86
-60,-153,-19,-76,-212,-439,-15,-155,-13,78
-67,-129,-18,-67,-197,-282,-118,-136,-48,0
-61,-22,11,-47,-99,-11,-263,-118,-59,-71
-13,-22,-58,-134,-154,197,-186,-50,-32,-36
-45,-139,-64,-104,-90,366,-130,-111,-97,-43
-26,-103,25,32,105,257,-18,-89,-119,0
-32,-74,68,127,164,124,74,-13,-96,38
-66,-110,-81,116,225,154,105,80,-138,3
-85,-120,-154,31,179,26,70,97,-205,-20
-62,-70,-79,-24,189,-111,25,155,-125,-48
139,352,9,89,249,-328,-61,199,26,-90
251,554,115,138,199,-689,-221,157,85,-31
66,99,5,25,15,-969,-367,27,24,9
-78,-134,-45,14,-17,-976,-518,-130,-98,-71
-103,-123,-11,33,133,-495,-469,-137,-76,-95
-123,-167,-32,-35,99,7,-297,-106,27,-64
-139,-187,-70,-74,-41,253,-97,-147,16,-73
-72,-46,21,20,66,483,96,-136,-85,-45
-38,-1,101,120,211,472,284,-74,-172,-5
-39,-20,179,152,89,319,253,-72,-303,19
42,36,243,106,-271,82,-34,-127,-317,61
73,6,208,158,-285,86,-117,-125,-225,98
81,9,105,104,-258,320,-88,-46,-54,115
21,-13,-55,-69,-205,575,144,126,132,90
-40,-34,-104,-79,-77,390,403,236,193,53
70,148,-168,-127,138,117,379,306,303,105
11,-44,-199,-232,205,-40,161,148,224,136
-78,-130,-134,-187,115,134,176,16,102,120
-83,-117,-56,-56,122,216,206,-75,33,100
-32,-96,-54,-53,-35,-28,169,-25,76,117
-27,-66,-45,-58,-163,-310,76,62,72,43
-33,27,62,17,-154,-328,-107,-56,-48,-77
51,295,290,140,-116,-289,-71,-8,-94,-149
135,486,245,267,97,-245,-10,89,16,-160
33,63,-111,67,122,-146,-58,34,90,-94
-8,-125,-324,-52,133,-45,-41,40,84,-15
-38,-107,-280,-38,36,-227,-88,-27,49,8
-105,-167,-266,-7,-23,-103,-108,-105,-9,-33
-154,-215,-221,-7,50,101,-111,-203,-80,-82
-131,-94,-100,14,172,153,-68,-221,12,-61
5,177,271,194,444,172,59,-77,156,90
15,174,547,378,624,198,94,40,65,80
-22,-7,334,275,360,265,88,82,-66,-29
27,-125,0,-37,-75,351,124,113,4,89
55,-90,-85,-128,-237,430,97,74,-10,114
87,5,-7,-168,-351,55,-10,32,-45,84
173,61,6,-233,-401,-502,-71,67,55,172
203,130,-59,-126,-159,-375,-90,109,150,181
253,422,-58,-56,71,-18,-103,179,147,109
236,475,22,-50,69,367,39,185,84,57
46,73,11,-59,-57,517,175,136,128,52
-25,-123,-65,-116,-162,130,168,50,118,58
-34,-100,-95,-160,-190,-83,44,-49,62,42
-34,-54,-112,-109,-136,-41,-22,-45,17,1
-59,-24,-85,15,9,-40,-14,-3,-32,-71
-95,-11,46,145,149,-83,-13,-28,-40,-82
-180,-125,67,137,91,-220,-79,-60,-99,-150
-197,-119,66,49,-21,-401,-147,-32,-127,-219
-148,-26,174,62,-96,-498,-329,-182,-205,-236
-84,45,265,118,-111,-375,-344,-216,-210,-191
-40,33,234,131,-78,-69,-132,-113,-110,-98
8,-41,30,60,16,146,140,52,11,12
46,-68,-92,-35,10,1,134,92,33,21
-12,-84,-67,-45,-190,-90,30,26,-58,-56
-133,-176,-138,-56,-197,103,30,-51,-102,-145
-140,-178,-176,-38,-17,289,138,3,-43,-126
-69,-89,-60,77,193,95,88,6,-50,-53
-16,24,26,150,299,-281,-207,-149,-207,-74
-59,62,63,156,55,-714,-491,-303,-288,-155
-130,111,181,131,-54,-805,-535,-343,-292,-231
88,481,258,155,111,-545,-457,-174,-82,-153
222,564,224,228,212,-209,-371,-45,84,-93
80,80,22,39,260,-95,-240,25,111,19
43,-98,-93,-133,216,-58,-68,87,140,129
19,-110,-101,-181,-57,68,194,21,46,129
52,-190,-261,-342,-358,320,413,-4,47,205
117,-256,-411,-460,-558,647,632,162,169,296
116,-58,-219,-305,-374,641,728,305,145,205
-9,40,43,-93,76,572,293,243,59,1
-149,-155,-70,-50,376,819,355,246,58,-126
-127,-221,-174,-49,207,714,487,174,7,-98
-49,-145,-125,-43,-1,320,393,154,114,-10
-69,-137,-77,-23,-2,90,255,145,211,-19
-69,-86,1,54,45,53,153,71,125,-17
-48,-21,-5,-7,36,-6,56,52,90,38
9,104,-5,-40,91,6,-5,55,75,37
-25,-85,-22,-20,46,-98,-122,-86,9,14
-39,-112,-84,56,16,-263,-137,-145,-30,-18
-29,-87,-116,-9,-7,-259,-22,-137,-1,-27
0,-40,-39,-29,30,-132,25,-137,6,-12
18,25,120,96,96,-55,-21,-127,6,-9
29,36,134,106,130,216,0,-109,11,65
44,38,118,87,72,291,4,-85,20,144
44,42,182,142,63,124,1,-74,27,117
-10,22,280,268,188,185,-17,-137,-17,87
-42,40,338,322,232,63,-68,-185,-47,74
-38,77,316,323,158,-309,-200,-239,-73,50
-49,55,110,186,-15,-456,-321,-334,-138,4
-78,-90,-178,-50,-30,-379,-332,-336,-128,-11
48,55,-163,-28,-10,-304,-249,-112,-28,38
307,632,93,-24,-10,-166,-172,70,42,11
197,276,-19,-135,-58,138,48,129,111,56
96,-111,-63,-125,-323,-99,218,231,233,197
108,23,65,-116,-417,-680,134,235,235,177
85,97,149,-81,-322,-695,244,249,104,12
13,-46,12,-51,-73,-210,255,242,40,-73
-73,-191,-166,-133,71,320,-201,41,-19,-70
4,9,-261,-229,156,687,43,142,-22,-73
150,320,-257,-196,120,766,327,286,42,-98
99,156,-199,-91,102,629,419,229,102,-66
-13,28,100,92,226,446,331,91,-8,-75
-8,8,118,177,229,165,178,-1,-82,-83
15,-104,-39,127,116,-207,0,-94,-115,-19
10,-127,25,56,-13,-536,-220,-208,-159,48
0,-52,83,25,-73,-721,-418,-309,-163,68
-3,-6,57,53,36,-529,-438,-249,-103,48
-57,-100,-108,-25,64,-1,-340,-130,-65,-8
-79,-149,-148,-84,-136,420,-188,-41,2,-64
-40,-122,3,-13,-292,364,8,11,30,-72
26,-82,64,74,-271,166,169,76,92,-4
-1,-102,20,39,-211,183,200,46,83,29
-49,-113,-47,-69,-208,50,101,-52,22,42
-17,52,67,-51,-54,-149,39,-63,-72,-30
-62,4,179,82,348,-260,-69,-142,-144,-108
-112,-79,126,119,344,-527,-260,-281,-99,-94
-107,-108,-13,-33,-22,-776,-348,-141,-57,-67
-66,-150,-238,-185,-197,-772,-371,-12,-13,-7
0,-116,-257,-170,-207,-299,-239,0,-2,40
4,-56,-20,-37,-40,354,95,91,0,-15
71,108,158,57,92,674,328,82,-37,-44
266,525,169,82,117,593,391,132,-17,29
225,436,-133,-115,-13,246,235,105,-40,44
-10,-33,-250,-171,-56,108,58,-54,-142,32
-62,-68,-23,-80,6,320,74,-54,-122,30
13,-48,69,-34,-46,461,189,107,165,76
70,-38,147,69,-167,97,133,83,162,111
47,-26,120,66,-201,-168,-12,8,-39,50
45,16,23,0,-57,-110,-61,72,-39,23
37,-68,-8,18,153,-10,-162,87,63,62
12,-84,41,75,94,168,-165,99,112,52
-15,-80,52,95,-77,186,-120,92,51,35
-71,-148,-43,-23,-349,-195,-123,68,25,30
-164,-211,-118,-91,-301,-324,-70,97,9,-69
-214,-228,-120,-17,51,-38,110,91,-19,-166
-116,-56,-82,4,115,51,72,25,4,-161
73,197,61,-30,180,90,-7,-26,-35,-34
-13,-27,38,-68,78,149,45,-105,-87,60
-92,-158,-10,27,109,92,135,-94,-81,55
-91,-112,-43,99,131,-44,39,-77,-68,-35
-34,-72,-139,14,92,-127,-25,36,8,-38
9,14,89,68,104,-156,-80,60,-28,3
34,50,201,174,187,-251,-186,-2,-16,23
151,262,194,247,264,-524,-277,-8,21,58
111,162,102,140,24,-891,-448,-118,-5,61
74,60,138,116,-130,-933,-505,-195,-31,31
50,67,170,152,-9,-591,-351,-170,-44,-50
-28,-61,18,32,-44,98,-66,-13,20,-127
-40,-108,-11,-100,-35,858,340,194,25,-150
83,-45,-25,-165,0,1189,641,389,71,18
184,121,-62,-162,-42,1016,564,421,129,121
282,505,-34,-188,-120,390,379,393,168,85
108,219,-23,-147,-108,68,147,182,74,21
-36,-62,-5,-64,-13,111,85,60,64,-8
-24,-76,54,-53,-50,25,52,22,99,29
-1,-54,76,-101,-125,-47,26,-43,76,75
-38,-55,71,-84,-103,-69,65,-114,8,61
-58,-28,72,22,39,3,104,-72,-47,8
34,231,-8,61,143,-7,27,84,-33,-30
99,395,-22,71,143,-183,-191,105,-30,-58
-8,41,-54,85,89,-253,-194,-21,-59,-65
-78,-181,-49,88,59,-121,-84,-99,-49,-71
-72,-159,-29,81,68,8,-19,-103,8,-57
-63,-162,-98,33,78,170,4,-86,0,-66
15,-63,-121,-54,8,352,-22,-91,13,9
89,132,109,-1,-40,308,-44,-88,87,96
55,77,158,72,-24,-63,-77,-126,42,91
-64,-108,16,57,-56,-242,-96,-119,-101,-9
-64,-68,42,146,0,-307,-215,-251,-237,-62
-106,-86,144,381,181,-369,-335,-394,-334,-150
-135,-75,229,451,239,-388,-277,-303,-384,-227
-75,-14,175,345,104,-559,-302,-148,-227,-166
-35,-93,-125,10,108,-611,-274,66,101,-58
95,10,-184,-253,128,-256,-62,244,299,72
55,-43,-126,-292,-26,103,104,203,218,76
-61,-182,-159,-167,-36,303,122,73,61,-46
-53,-135,-87,-130,-71,366,28,26,23,-52
-11,-107,-108,-225,-152,397,30,55,88,40
16,-140,-219,-298,-232,521,192,103,131,136
29,-146,-243,-293,-317,383,215,78,119,154
