47,-50,10,-9,-27,-11,-33,3,74,92
102,-35,3,-32,-40,-42,-36,-29,45,130
60,-9,21,-3,-14,-38,-37,-65,-21,118
-30,4,45,33,21,-14,-9,-38,-52,22
-85,14,37,14,9,-24,-24,15,-3,-68
-69,-16,4,-14,-10,-38,-26,70,105,-55
-6,-34,-6,-23,-7,-21,-14,84,149,4
18,-12,18,0,12,1,11,64,92,-6
13,-20,10,8,8,5,0,38,44,-9
4,-45,-84,-21,-18,-15,-34,12,67,38
21,-34,-160,-39,-26,-35,-38,12,66,81
-2,-2,-44,-27,-14,-19,-19,33,44,9
-59,13,51,22,30,11,4,55,26,-145
-70,18,66,43,62,10,33,85,67,-186
-52,16,-2,31,56,21,23,81,78,-148
-27,10,-9,15,38,20,-6,44,39,-105
0,23,28,29,41,12,-12,4,6,-72
38,42,-42,26,46,6,10,-24,15,-21
27,35,-83,2,15,23,36,-11,0,-19
8,30,-102,-5,10,15,36,5,-45,-47
16,40,16,12,17,-16,20,-16,-41,-30
15,18,56,6,3,-17,25,-9,-3,-6
15,6,50,-16,-10,-22,24,9,-11,-23
-15,-2,38,-13,-9,-5,-7,-1,-48,-59
-6,17,42,-6,-13,-14,-22,-31,-62,-55
11,24,37,-20,-10,-32,4,-36,-35,-15
-12,23,-34,-18,-4,-27,12,-19,-29,-10
-26,9,-23,-5,-13,-19,0,0,-17,-10
-22,21,25,-6,-10,-14,4,17,-29,-13
-7,27,26,-4,-7,-21,33,4,-34,-12
3,20,0,8,-13,-33,0,-11,-35,-2
-1,12,0,4,-21,-30,-22,-10,-37,4
6,15,12,-5,-9,-11,-15,-6,-40,29
10,30,39,7,0,-20,-33,-22,-47,34
-12,33,-83,15,6,-18,-38,0,-38,13
-4,26,-111,15,7,-9,-30,10,-42,3
0,4,-62,2,16,-15,-27,3,-54,14
7,8,46,-3,18,-23,-22,-4,-50,13
16,25,72,-6,6,-18,6,2,-34,-10
32,38,58,-2,-5,-23,-4,4,-30,5
20,19,57,8,7,-17,-13,-3,-42,9
22,4,56,10,13,-31,-6,11,-41,15
7,-1,42,16,12,-41,35,29,-33,23
-41,-21,25,24,24,-16,51,19,-34,31
-65,-25,15,20,21,-4,35,17,-20,43
-65,-21,15,20,11,-14,4,9,-6,21
-34,-33,-2,16,4,-9,6,5,-24,10
30,-19,-60,15,-7,-11,17,-3,-28,31
45,-2,-55,10,-19,-17,5,2,-37,25
14,-12,16,2,-4,-6,0,16,-22,19
-9,-16,11,-1,-6,-3,1,18,0,26
-30,3,2,-5,-10,-10,-6,14,10,28
-31,4,3,-8,-7,-10,-5,10,-3,37
-56,-4,10,5,5,5,10,10,-7,18
-53,4,17,11,-2,9,-3,3,-19,12
-27,9,20,16,-13,-5,-9,-18,-27,14
12,24,18,11,-13,-9,-4,-26,-23,9
34,26,17,6,-2,9,6,-14,-25,-24
2,5,2,-5,-3,23,11,0,-12,-22
-12,16,-8,3,-9,21,14,-7,8,0
-16,15,-1,9,-7,16,36,-30,14,8
-17,5,-2,-11,-25,0,45,3,54,30
-7,-8,-43,-26,-34,-11,41,36,70,51
-4,-14,-130,-22,5,2,28,5,43,19
-16,-20,-91,-10,16,5,27,-2,45,-4
-23,-9,9,-18,6,20,27,8,47,5
-20,-1,33,-17,4,4,4,0,13,17
-6,8,32,-17,-8,-1,-21,-8,-5,9
12,24,30,-21,-7,-1,-35,-13,-23,11
26,36,31,-12,0,4,-30,-12,-32,21
37,35,34,0,-10,-7,-44,-21,-29,12
23,45,17,-10,-19,-5,-37,-25,-28,-9
-22,26,-30,-24,-6,28,9,-17,-20,-39
-41,4,-140,-22,-1,18,12,-3,7,-21
-33,-11,-180,-33,-6,-2,1,18,58,12
-15,-10,-139,-29,-17,-11,-13,21,72,11
-2,0,-17,-15,-17,-23,-37,4,52,10
-5,-16,18,-10,-12,-14,-37,-11,26,27
0,-29,26,2,-10,3,-13,-7,25,52
2,-24,40,-5,-12,32,31,-8,5,67
5,-29,34,-18,-10,44,61,-24,-28,62
-3,-21,36,-16,-10,43,50,-44,-52,62
-13,-12,42,1,-2,23,38,-53,-63,61
0,3,44,2,-8,7,17,-75,-69,55
10,21,22,-5,-9,10,-6,-92,-79,42
8,-1,-91,-6,-12,4,-5,-75,-72,28
5,-27,-100,-29,-36,-1,17,-25,-20,25
19,-17,23,-10,-23,16,33,-6,-17,45
39,-9,47,3,-6,9,9,-55,-67,55
71,-8,50,4,0,2,-7,-59,-58,70
97,1,68,20,5,24,-22,11,25,123
92,-6,63,18,4,14,-43,53,39,164
62,5,68,30,5,0,-52,53,-3,133
14,25,71,44,6,1,-48,53,16,96
-11,20,49,21,-5,-4,-56,-16,-45,96
-2,10,41,33,11,3,-63,-70,-118,91
-38,-13,13,18,12,9,-22,-5,9,82
-41,-21,-15,-23,-7,-15,18,102,340,90
9,-22,-15,-36,-25,-18,31,97,385,110
25,2,5,-3,-5,-16,5,53,158,54
-31,-6,8,22,15,11,23,102,121,-33
-44,-32,-50,-3,8,5,34,151,211,-21
-54,-35,-99,-5,8,15,42,129,146,-36
-52,-32,-25,11,25,33,47,91,29,-77
-38,-27,15,12,21,29,36,48,-20,-56
-31,-12,0,4,16,16,24,23,-2,-26
-36,-5,6,2,20,13,15,19,-3,-9
-29,2,26,-7,4,-11,12,16,-23,-3
-20,-11,9,-11,2,-7,5,44,0,16
-5,9,3,-18,6,-12,-1,35,10,30
9,29,-9,-1,8,-7,6,4,-14,36
6,31,1,8,15,-4,13,-20,-43,29
21,31,22,-5,25,-4,3,-44,-105,7
34,17,11,-15,15,-1,-8,-66,-120,24
12,5,-6,-12,-3,-1,-29,-67,-115,22
0,3,-36,4,-7,-1,-3,-67,-121,12
15,27,-53,22,10,4,8,-85,-119,18
22,35,7,10,3,-21,8,-69,-70,9
-8,14,-3,-16,-20,-26,35,52,142,0
-27,-3,-25,-20,-6,-12,62,120,249,-12
-1,2,23,0,24,25,73,86,160,24
27,9,44,12,13,30,41,46,91,90
36,18,31,-3,-9,3,-4,7,44,91
16,12,19,-25,-16,10,-5,-2,16,50
1,-6,-5,-33,-20,21,-16,-7,-8,-2
-34,-1,0,-8,-3,24,-13,-12,-43,-52
-53,22,16,20,16,25,-9,-17,-45,-95
-53,10,-9,19,14,32,1,1,-16,-85
-45,13,26,20,11,19,-2,2,-29,-63
-35,35,32,8,11,-13,-27,-12,-54,-42
-40,42,32,-1,10,5,-21,6,-41,-46
-29,28,27,5,14,21,-24,0,-47,-53
4,14,20,21,28,20,-11,-13,-48,-59
44,1,18,20,26,27,-2,-8,-32,-59
33,-6,28,11,18,40,0,-1,-17,-49
5,-9,21,-1,6,36,23,9,-18,-26
15,-14,2,-16,-4,25,46,6,-11,-3
21,-20,-3,-19,-23,0,25,-4,-1,5
15,-20,2,-10,-15,-4,10,-21,-6,-3
-5,-18,-6,-1,-11,5,18,-24,-8,-21
-7,0,-22,10,4,9,-4,-29,-25,-35
9,-9,-98,22,25,23,-13,-45,-54,-28
5,-19,-64,15,10,28,2,-35,-42,16
28,-8,-5,1,-22,11,-12,8,0,85
32,7,-19,9,-7,-8,-46,0,3,104
18,13,-54,9,0,-10,-59,-15,1,101
18,0,-47,-3,-3,-9,-59,10,10,85
22,-2,-23,-4,7,-10,-52,7,-3,65
27,2,22,14,8,-3,-47,-7,-6,61
19,-10,-16,8,-7,-3,-43,-4,-13,64
5,-30,8,-10,-24,-12,-33,-6,-19,48
6,-7,23,-13,-27,-16,-29,-24,-1,49
9,10,15,-10,-18,-8,-58,-53,0,39
15,12,12,-6,-1,-2,-64,-54,-15,21
14,11,25,0,16,15,-47,-34,-20,0
17,1,23,-13,-3,-3,-50,-23,0,15
-6,-14,15,-20,-14,-4,-10,-13,4,14
-55,-34,16,-10,-2,22,34,-11,-30,-21
-17,-14,18,6,8,21,14,-23,-41,-20
15,-17,18,-5,9,9,-6,-31,-42,-7
9,-25,0,-11,6,5,-1,-19,-29,3
24,-14,-52,-14,6,1,-3,-15,-30,4
31,12,-24,-28,-3,-2,-8,-24,-34,9
32,34,-26,-29,-13,-14,-9,-14,-12,-8
29,41,-48,-21,-20,-27,-14,2,-4,-44
28,26,-5,-27,-13,-24,0,-5,-19,-49
26,14,13,-28,-3,-32,-10,-15,-24,-44
16,5,-20,-34,-14,-16,-11,-3,-2,-42
2,-11,-104,-14,-18,-2,-5,6,14,-4
-1,-1,-62,2,-18,4,10,17,22,-31
-18,11,-60,2,-16,16,20,30,26,-73
-41,14,-41,17,-5,12,43,30,8,-99
-64,10,-4,29,-16,-10,37,20,-18,-121
-51,7,4,13,-25,-23,35,16,-22,-99
-34,5,-97,2,-27,-30,36,13,-3,-70
-39,17,-42,-4,-15,-34,29,6,7,-37
-40,5,34,-6,-7,-32,16,1,-7,-31
-27,-15,33,-2,-14,-23,-17,5,-16,-31
-20,-20,27,-1,-10,-8,-28,0,-16,-39
-29,-18,5,7,-16,-15,-25,-10,-16,-53
-33,-29,-1,13,-10,-6,-13,-11,-22,-52
-28,-35,9,9,-12,-1,-13,7,-22,-53
-35,-39,13,1,5,0,-14,19,-8,-59
-30,-30,23,9,11,14,6,28,19,-54
-9,-22,30,16,13,6,42,27,11,-58
10,-6,39,2,11,0,37,5,-11,-56
18,7,42,3,17,-14,11,-14,-2,-58
18,-21,15,-1,4,-41,-8,-3,0,-47
25,-18,20,-1,10,-39,6,12,7,-34
11,-14,-21,4,31,-6,19,4,-2,-50
-21,-37,-30,0,26,12,24,9,-1,-42
-7,-14,19,-3,16,0,16,6,17,-33
-12,18,22,2,19,-9,3,-14,-4,-25
-31,23,23,0,15,-12,-14,-41,-35,-24
-26,31,31,-2,6,-23,-19,-9,-23,-29
-12,36,30,-1,3,-3,13,54,24,-40
-18,7,16,11,-1,-6,12,50,2,-56
4,7,-8,0,-15,-16,-9,15,-27,-49
40,18,1,-14,-11,-16,-20,-4,-35,-39
24,16,9,-14,0,-3,-27,-14,-17,-31
3,22,15,7,7,8,-18,-7,20,-14
9,11,15,16,0,-7,-32,-12,18,-15
17,-1,12,14,1,-9,-54,-27,-8,-9
-17,-34,15,24,7,-9,-51,-26,-11,2
-85,-47,8,32,6,7,-35,-13,8,0
-91,-40,0,27,6,15,-27,-8,36,-7
-37,-10,4,24,23,15,-31,-9,16,-15
-7,12,4,12,20,28,-4,-18,1,-12
-14,10,23,16,19,31,4,-26,-22,-31
10,21,31,21,17,11,-4,-33,-24,-27
34,28,19,-7,-10,-9,0,-2,20,8
15,17,-7,-12,-12,9,5,1,3,12
-7,3,-7,0,1,3,5,-3,-6,3
-15,-8,-6,-7,0,4,20,16,19,10
-20,-6,-2,-1,1,4,25,25,19,2
-14,-10,-15,1,-1,0,23,16,12,-1
-4,-11,-3,1,-9,1,5,5,0,0
-3,-11,3,5,-8,-6,-16,7,-11,-7
9,-15,-3,-2,-7,-3,-39,-2,-19,-12
22,-16,-3,-2,-11,-10,-63,-24,-23,-18
12,-18,-1,-3,-4,-6,-58,-16,-11,-22
3,-30,-16,-10,-14,0,-43,-14,-18,-18
5,-34,-15,-19,-30,-27,-35,-11,-3,-20
-11,-19,-1,-28,-28,-33,-39,4,13,-10
-17,-19,-11,-27,-27,-34,-35,4,12,0
10,-25,-12,-11,-26,-12,5,-1,16,14
33,-23,-73,4,-20,5,21,-1,39,21
42,-14,-42,3,-10,5,13,-7,23,25
21,-5,-9,-6,-19,-9,13,4,30,65
10,-2,-14,-17,-27,-17,6,-12,35,76
25,3,-8,-14,-22,-21,-8,-33,12,52
31,14,6,8,-12,-19,-15,-36,-8,30
17,32,15,25,11,-4,-1,-36,-33,-7
-24,36,-27,42,25,13,15,-22,-31,-44
-59,23,-65,34,2,20,30,11,3,-57
-76,24,0,17,-20,9,24,41,13,-83
-76,22,20,11,-14,13,32,41,17,-88
-50,11,17,8,-17,22,17,27,23,-63
-36,26,17,9,-25,0,-9,32,37,-39
-17,21,17,4,-17,-4,12,38,59,1
35,33,9,-1,-30,-22,-17,18,31,85
45,9,-3,-20,-32,0,-8,22,13,71
-3,-10,5,-22,-4,38,25,54,-1,-19
-29,-9,-7,0,13,26,-9,35,7,-30
19,15,-11,-5,5,2,-26,-3,5,24
33,34,2,-4,4,16,-27,-9,-30,21
25,42,20,7,21,32,-20,7,-56,-18
37,32,21,-3,19,12,-18,16,-34,-27
55,32,5,-8,8,-11,-26,7,-17,0
47,29,2,-10,6,0,-26,6,-27,-16
-6,-3,-11,-22,11,22,3,33,-13,-46
-53,-24,-23,-21,16,31,20,41,7,-57
-72,-27,-38,-33,3,18,6,4,-11,-53
-20,-18,-45,-38,-22,-10,-35,-7,-23,-27
32,-13,-51,-23,-24,-9,-32,-19,-30,-37
73,-7,-56,-6,-14,5,14,-14,-17,-17
40,-22,-12,-8,-21,-14,27,4,9,14
-12,-42,-9,-10,0,8,28,6,13,21
25,-10,-5,-1,12,27,32,-7,19,33
31,37,20,21,24,37,38,4,24,5
-103,-12,32,49,45,54,49,35,28,-52
-100,-36,25,35,44,46,31,18,17,-59
-24,-34,13,13,25,40,18,-5,7,-21
-29,-39,5,15,13,42,-5,-7,21,14
-91,-53,-47,26,12,32,8,0,31,0
-105,-38,-30,15,10,21,15,0,12,-44
-29,-15,-31,-1,9,23,21,-5,-7,-42
42,-12,-46,16,12,43,19,-28,-50,-28
30,-8,27,7,8,42,11,-109,-163,-32
71,19,30,-20,3,37,-4,-172,-273,-62
137,38,30,-44,-4,17,-47,-214,-308,-71
109,11,15,-37,-10,-6,-66,-228,-287,-84
56,8,31,-26,-17,-24,-86,-228,-256,-74
3,-28,23,-35,-42,-38,-73,-141,-91,-58
-64,-116,-33,-75,-76,-38,24,128,336,0
-87,-135,-28,-59,-60,-11,100,311,614,86
-38,-76,32,13,2,26,86,216,397,97
46,-30,64,35,29,31,77,139,204,106
12,-45,47,33,39,41,93,98,109,99
-72,-74,11,43,39,55,115,74,119,58
-100,-78,-32,20,15,28,92,69,213,23
-66,-39,-43,0,-10,8,54,31,153,-1
-18,3,-30,3,-12,13,29,-5,11,-20
48,14,-1,10,-21,-5,-21,-32,-46,17
46,5,10,-1,-26,-27,-38,-29,-10,65
24,0,9,-8,-15,-26,-30,-22,-4,92
49,23,-3,-14,-22,-50,-51,-36,17,107
86,34,-82,-43,-43,-65,-65,-26,67,105
94,23,-92,-30,-22,-46,-28,4,77,90
97,45,-89,15,13,-18,31,6,8,-22
137,82,9,26,37,0,49,-8,-58,-122
136,54,34,18,44,0,29,3,-59,-120
51,-27,-45,6,49,4,23,22,-20,-56
-24,-55,-132,12,55,19,31,28,13,-35
-43,-20,-48,1,42,2,3,13,7,-31
-30,24,26,-13,19,-33,-30,0,-7,-21
-8,63,42,-8,7,-43,-45,-33,-60,-17
-25,80,26,-5,9,-26,-23,-36,-94,-38
-2,62,36,0,14,-4,-4,-9,-50,-18
31,3,10,-24,9,10,5,12,-21,12
89,-50,-27,-42,-2,0,32,26,0,66
51,-112,-44,-44,1,10,69,53,35,100
-8,-91,-17,-24,9,14,75,29,22,71
-25,-43,14,-4,12,2,53,-7,-16,31
-18,-46,1,-8,9,-15,30,-23,-37,14
20,-37,-49,-7,-1,-15,16,-25,-50,43
39,-17,7,3,-9,-9,-17,-38,-62,66
15,-10,10,21,-4,-8,-30,-43,-85,30
-24,-17,-72,18,8,5,-27,-43,-107,19
-55,-21,-78,17,-1,0,-30,-67,-120,4
-67,0,-4,12,-6,-11,-29,-92,-144,-44
-71,26,3,-5,-7,-5,-12,-76,-99,-69
-66,16,0,-11,-10,-10,-4,-42,-34,-58
-19,3,3,2,3,-2,-20,-49,-59,-16
120,40,-56,5,15,-1,-54,-94,-121,61
178,48,-70,-1,2,-27,-65,-73,-118,131
116,29,9,-13,-2,-32,-46,-10,-61,163
70,37,36,-4,11,-13,-51,-52,-94,119
21,19,37,-16,9,-21,-61,-86,-148,61
-2,-3,11,-45,-3,-16,-43,-65,-107,4
-98,-5,17,-25,5,-19,-9,23,23,-178
-113,-20,-7,-33,-24,-26,12,171,323,-158
-36,12,1,-23,-36,-27,34,200,378,-33
37,49,-44,-5,-29,-16,53,140,239,42
125,59,-17,-1,-23,9,60,95,133,86
117,26,30,0,3,34,56,88,108,64
-14,-27,33,0,32,51,34,90,93,-33
-121,-57,3,-3,27,42,32,104,86,-66
-71,-31,18,-10,26,31,28,89,64,-59
51,7,28,-14,21,16,-1,49,42,-14
78,-27,5,-31,12,-14,-23,28,53,49
76,-32,14,-22,5,-20,-27,-6,6,73
107,33,64,10,13,-24,-48,-47,-54,19
26,2,67,22,37,12,-3,3,-22,-21
-96,-70,43,17,45,49,39,30,0,-25
-112,-102,20,5,28,41,30,15,-13,-2
-49,-69,22,-4,6,9,-10,7,-16,2
10,-25,26,-15,1,-4,-36,-1,-32,5
-13,-30,19,-9,-7,9,-33,6,-27,5
-53,-52,2,-8,1,33,-21,31,-19,-8
-27,-14,5,-12,6,20,-24,24,-17,-1
38,37,18,-5,-12,5,-30,21,0,22
16,29,20,-11,-11,9,-28,33,14,34
-9,34,25,-14,-11,-10,-48,7,5,84
-27,9,5,-36,-32,-40,-76,-15,18,104
-31,-13,-15,-36,-29,-17,-36,-16,-19,28
-37,-27,-5,-8,5,23,31,-3,-76,-74
-56,-54,8,-10,0,24,46,4,-73,-113
-48,-62,1,-23,-33,3,39,35,-12,-55
16,-37,-29,-18,-36,7,24,43,14,49
81,0,0,4,-22,5,11,19,0,92
117,39,39,14,-15,-2,1,9,6,99
65,20,22,9,-16,7,-3,2,25,63
79,1,6,-21,-47,-44,-64,-75,11,56
161,36,-20,-62,-91,-101,-120,-144,-11,95
162,87,-97,-50,-100,-97,-109,-124,-42,56
135,96,-107,-13,-59,-48,-105,-86,-69,75
106,76,-10,12,-1,0,-59,-22,-54,173
115,46,40,18,23,44,-8,28,10,259
60,-16,33,20,51,77,23,59,-1,185
4,-56,47,46,77,92,24,45,-74,18
-98,-71,71,83,102,101,28,1,-148,-204
-125,-57,73,87,98,93,56,10,-114,-241
-117,-49,42,41,53,56,82,39,-42,-161
-73,-49,12,3,17,46,69,31,0,-53
3,-27,4,-22,-29,4,32,34,117,39
-32,-5,19,4,-25,8,50,64,145,-33
-95,12,42,32,-2,35,73,91,114,-165
-94,1,28,36,10,29,61,73,56,-163
-50,57,41,68,43,15,9,8,-47,-166
12,93,17,76,34,7,-52,-3,-43,-73
48,75,44,32,7,16,-78,18,9,29
115,54,37,-2,11,57,-89,21,39,99
98,50,31,-6,32,90,-44,23,36,72
7,39,34,5,36,72,-14,50,18,-22
-31,13,19,0,22,59,-20,69,21,-63
-16,25,30,1,20,48,-15,79,48,-48
-15,69,87,52,54,39,-16,29,5,-105
-75,43,80,55,56,39,-25,-32,-88,-155
-93,-9,39,8,30,51,-8,-41,-97,-98
-75,-29,22,-19,18,43,5,-28,-56,-8
-91,-13,36,-6,9,14,-12,-67,-70,48
-71,25,45,-2,-11,-37,-59,-123,-83,107
-18,85,29,-26,-32,-52,-114,-136,-27,137
-35,103,-21,-26,-39,-25,-102,-34,87,-3
-69,102,-74,8,3,43,-16,140,131,-132
0,108,-32,26,33,77,3,160,80,-106
120,58,-19,4,21,76,25,105,45,-17
256,36,-7,-10,1,84,73,99,91,121
244,10,6,-12,-4,76,66,72,83,204
233,54,24,-14,-9,34,10,4,3,199
365,113,44,-22,-46,-10,-59,-59,-42,178
361,110,30,-31,-76,-29,-92,-72,-33,123
88,15,11,-28,-53,-13,-79,-65,-13,-74
-152,-34,22,19,1,29,-18,-45,-14,-245
-195,-35,24,69,53,82,56,-11,-2,-136
-258,-55,30,74,86,123,88,-27,-71,-34
-163,-33,47,64,62,105,71,-58,-130,22
116,122,27,69,5,37,23,0,-28,121
190,160,15,45,-10,35,27,63,81,108
27,34,22,14,6,62,35,20,36,-13
-8,10,24,14,27,64,29,-3,-15,-38
116,64,43,24,16,48,33,29,74,74
31,-38,-40,28,19,84,57,13,72,96
-97,-88,-8,68,80,134,92,-50,-68,-85
-111,-62,53,84,103,146,116,-34,-57,-156
-185,-89,34,61,77,125,122,16,7,-161
-148,-68,26,53,46,98,101,21,16,-139
-4,11,43,56,37,89,59,0,-16,-47
85,42,38,32,5,62,38,52,40,50
39,-21,-6,-17,-41,15,61,249,326,158
79,-28,-126,-23,-43,41,115,274,444,213
21,-19,-20,3,0,78,127,144,226,66
-66,-64,6,13,24,114,131,56,95,-15
24,-61,-2,-7,-3,70,67,0,56,93
157,-11,-17,-48,-51,16,2,-7,51,195
149,47,12,-31,-47,6,8,-6,39,206
54,55,22,-9,-17,20,21,3,50,182
15,25,12,-6,8,46,35,38,64,111
14,21,39,9,34,66,45,54,42,28
3,47,58,11,38,76,39,15,1,-62
-50,22,35,4,22,68,10,-10,-2,-112
-88,-9,19,-17,14,68,3,-8,0,-164
-134,-26,15,-19,16,63,23,17,18,-205
-105,-28,2,-41,-6,47,11,11,40,-66
0,-48,-39,-84,-60,17,-15,-1,60,155
80,-59,-76,-115,-90,-7,-21,1,92,262
244,34,-68,-97,-79,-9,-55,-67,32,250
325,110,-32,-74,-70,-21,-99,-141,-73,191
133,104,38,-12,0,38,1,-75,-79,18
17,84,51,12,26,84,83,30,-28,3
86,45,17,-20,0,73,84,42,-6,160
131,30,12,-22,9,71,98,10,-20,225
114,9,9,-10,16,72,110,7,-1,228
50,-19,-9,-3,27,74,109,2,14,65
15,-35,-52,-9,21,76,115,9,-20,-117
-86,-38,-42,-19,21,90,125,32,-40,-269
-113,-1,-44,-9,30,84,128,20,-45,-327
-38,23,18,-18,20,58,79,-34,-64,-246
-41,-10,27,-14,10,54,95,-13,-13,-146
-116,-74,40,9,33,68,153,30,53,-122
-141,-103,58,27,50,82,142,0,-16,-223
-101,-151,50,21,41,71,111,-22,-76,-236
-37,-194,-19,-41,-17,6,68,-40,-36,-56
-63,-227,-48,-81,-60,-30,70,13,64,69
-142,-248,-53,-38,-33,5,87,67,119,120
-91,-228,-19,-35,-43,13,81,68,164,269
65,-176,-9,-53,-75,-11,32,9,180,375
195,-111,8,-20,-42,15,-44,-65,83,330
189,-88,25,-2,-25,28,-50,-76,-13,189
-38,-124,51,51,29,50,7,-54,-93,-50
-227,-166,24,49,21,30,25,-14,-25,-160
-311,-172,20,59,46,44,37,8,46,-180
-345,-218,12,69,59,99,60,28,6,-190
-245,-208,14,64,63,101,103,48,2,-185
-151,-192,10,55,52,72,97,30,-29,-196
-123,-210,1,40,35,71,94,33,-64,-237
4,-195,-3,23,11,54,70,26,-24,-130
182,-145,-11,5,-26,20,21,-22,3,111
230,-125,4,5,-23,-5,-44,-75,-38,190
148,-183,-50,-25,-37,-25,-73,-69,-33,114
-18,-203,-63,-32,-37,-12,-49,-45,-51,-7
-201,-192,-15,7,4,13,0,-25,-84,-121
-139,-162,5,25,11,-4,-28,-58,-143,-105
11,-142,-98,15,10,-15,-29,-41,-89,150
95,-104,-109,5,1,-22,-27,-48,-70,263
45,-74,-31,-22,-37,-45,-34,-56,-79,223
9,-75,-31,-47,-62,-61,-21,0,16,252
-5,-92,-39,-41,-53,-45,8,43,172,293
-140,-27,-24,-25,-60,-65,-33,7,199,120
-261,41,-31,-11,-46,-77,-39,-3,151,-106
-162,17,-31,-65,-75,-88,-33,5,150,36
-3,26,-56,-99,-117,-123,-93,-32,158,238
29,116,-15,-73,-107,-123,-98,-52,88,156
-110,182,3,-21,-59,-55,9,35,31,-46
-151,241,13,27,-12,-12,46,26,-20,-130
-136,288,-63,37,0,-14,39,11,8,-99
-236,280,-34,38,31,43,106,139,85,-193
-291,258,23,8,21,64,129,192,87,-267
-236,269,10,-9,4,37,63,85,-44,-201
-214,249,12,-11,17,37,76,72,-44,-127
-221,260,19,-2,20,20,91,63,-23,-172
-199,285,36,15,-15,-45,18,-16,-90,-222
-150,307,56,6,-50,-96,-52,-60,-102,-237
-103,289,35,3,-20,-79,-34,-19,-15,-140
-6,277,28,3,-21,-64,-7,19,67,24
75,290,43,-7,-20,-69,-31,-41,-26,72
101,259,28,-13,-8,-85,-54,-112,-146,118
-30,201,-57,2,35,-60,-26,-108,-161,107
-238,184,-62,25,76,-26,-3,-87,-198,-130
-141,236,48,23,63,-61,-47,-68,-193,-190
-12,219,23,-30,5,-103,-79,-18,-107,-195
54,176,-28,-73,-22,-103,-52,70,30,-108
59,169,-33,-42,-4,-86,-16,90,117,103
-23,149,-1,0,35,-49,31,66,108,226
-182,164,51,51,93,-16,33,10,-32,10
-310,131,24,25,69,-28,33,40,23,-225
-240,153,37,12,30,-49,7,62,55,-232
-68,203,69,20,11,-60,-25,6,-62,-135
77,169,27,-29,-25,-70,-33,-25,-117,22
171,131,-13,-77,-72,-106,-63,-55,-163,169
211,114,-26,-99,-80,-135,-81,-56,-157,314
211,71,-76,-162,-136,-166,-75,27,126,456
243,67,-85,-172,-144,-170,-83,30,285,476
105,81,-60,-139,-112,-156,-106,-49,155,138
-187,49,-23,-96,-39,-115,-60,-47,74,-147
-244,89,32,-34,25,-59,6,17,137,-72
-168,119,48,-6,40,-43,18,65,219,53
-96,108,5,-20,13,-48,31,67,221,63
17,137,6,-40,1,-45,32,2,106,60
132,160,4,-55,-33,-77,-22,-88,-59,-20
77,184,35,-21,-17,-46,0,-68,-202,-316
-70,141,37,0,4,17,108,96,-147,-478
-179,96,14,-12,9,48,159,204,-9,-437
-214,131,19,-7,9,43,123,138,-36,-336
-79,191,15,-31,-37,-13,25,28,-76,-76
119,239,14,-53,-63,-64,-61,-18,-51,268
282,267,-4,-88,-109,-100,-87,-20,10,522
329,282,-42,-99,-111,-105,-87,-31,0,590
286,275,-50,-94,-84,-101,-97,-47,-36,460
278,319,-41,-82,-81,-115,-116,-72,-47,294
119,324,-60,-31,-44,-77,-101,-93,-119,-46
-90,277,-22,-7,-3,-32,-45,-38,-96,-197
-28,265,43,-9,17,0,11,-18,-113,-126
193,300,13,-63,-74,-83,-31,-57,-79,81
221,242,-33,-104,-119,-150,-127,-103,-25,157
-66,145,-12,-54,-31,-71,-57,-68,-93,-80
-293,93,5,-3,73,53,81,44,-111,-253
-264,72,-19,6,102,93,153,110,-86,-226
-101,125,-4,13,99,77,147,93,-97,-85
-6,192,25,7,65,28,73,9,-151,20
-25,263,42,2,36,2,11,-49,-216,-27
-27,281,38,6,36,5,-6,-86,-279,-84
60,284,45,21,31,-19,-29,-88,-287,-120
62,251,44,21,26,-24,24,104,58,-138
99,215,11,-13,7,-21,78,217,248,-114
104,191,20,-16,10,-11,90,155,110,-146
88,155,11,-3,16,16,94,92,-11,-149
118,151,15,-6,-3,-12,65,18,-75,-122
154,177,28,-15,-19,-64,26,-73,-137,-92
195,201,22,-38,-48,-94,2,-97,-136,1
103,154,0,-60,-55,-84,27,-11,15,55
47,106,-24,-46,-50,-64,47,43,84,53
-9,87,-27,-41,-47,-42,66,98,160,-20
-162,60,-18,-13,-5,-15,91,134,141,-156
-144,46,-9,-12,-4,-11,57,109,96,-143
-14,57,7,-12,-15,-23,28,98,143,9
38,40,-9,-21,1,-35,-1,67,128,98
26,13,-11,-30,31,-3,33,76,84,97
29,-9,-12,-34,17,11,64,96,64,38
103,22,-28,-52,-9,-25,22,45,5,-6
228,85,19,-39,4,-46,-16,-69,-127,14
310,128,78,-28,8,-19,-25,-123,-212,54
298,96,43,-74,-62,-5,-7,-118,-226,111
170,3,22,-61,-17,23,46,-96,-328,113
174,-77,0,-86,-24,-5,53,-17,-184,205
280,-65,-19,-94,-37,-31,2,-28,-106,339
306,-39,-7,-85,-64,-73,-73,-80,-145,315
278,-33,1,-95,-85,-84,-109,-89,-170,176
161,-16,14,-91,-68,-76,-117,-69,-23,-11
-111,-68,14,-56,-18,-16,-38,80,182,-262
-235,-144,-67,-39,4,39,62,236,309,-367
-50,-149,-177,-81,-68,-15,-10,229,371,-130
184,-109,-143,-106,-125,-95,-127,145,346,160
366,-78,-53,-126,-145,-137,-203,31,205,291
329,-111,-41,-132,-143,-140,-189,-29,106,292
246,-91,14,-78,-112,-100,-133,-9,58,156
148,-74,53,-49,-68,-63,-110,0,3,-15
191,-65,55,-62,-67,-67,-124,-42,-65,-25
207,-96,43,-83,-90,-77,-97,-2,15,20
-46,-219,20,-61,-30,-22,0,76,94,-78
-304,-279,47,9,55,46,25,48,11,-177
-275,-254,46,8,48,20,-10,39,56,11
-158,-168,75,11,33,-10,-23,11,69,33
-74,-153,95,17,37,-20,-7,-12,8,-94
-78,-222,58,24,27,-16,-4,-4,-14,-140
-117,-265,20,23,16,-17,-35,2,-20,-171
-219,-347,-45,24,28,19,13,103,41,-141
-272,-444,-39,25,73,82,62,148,58,-80
-134,-402,-41,-19,29,38,-14,74,44,56
55,-258,-32,-95,-61,-65,-121,-22,0,179
194,-195,-46,-112,-101,-77,-130,-19,17,333
320,-176,20,-54,-33,-39,-128,-44,-46,398
343,-173,54,-36,0,-38,-142,-116,-129,247
462,-130,52,-77,-45,-111,-218,-174,-90,283
411,-137,56,-85,-66,-131,-222,-167,-41,346
221,-136,38,-88,-51,-105,-141,-82,31,218
249,-87,-10,-73,-62,-111,-113,-67,-13,54
230,-121,-12,-2,10,-8,-25,-9,-73,-105
176,-104,46,13,38,4,-44,-11,-52,-29
-82,-189,29,-30,18,11,-38,57,98,173
-482,-326,15,19,94,130,70,178,188,204
-518,-346,-38,47,112,125,67,129,176,201
-292,-291,-31,33,52,27,-58,-36,77,263
-201,-261,67,32,8,-34,-131,-114,-20,37
-246,-317,32,5,1,5,-78,-49,-10,-283
-275,-356,-25,21,23,64,9,59,57,-425
-198,-315,52,71,56,72,54,49,0,-397
16,-206,155,92,31,-37,-85,-118,-151,-249
28,-282,137,69,26,-76,-155,-188,-215,-192
-138,-400,68,33,20,-61,-74,-51,-70,-210
-312,-448,7,6,19,-5,11,81,82,-205
-464,-447,18,31,70,80,68,137,141,-220
-302,-423,2,12,50,67,48,116,166,-51
-89,-405,2,-5,10,9,-17,49,95,101
-8,-448,83,16,0,-42,-82,-28,-9,134
1,-500,95,30,28,-47,-101,-77,-28,96
74,-496,94,38,52,-63,-132,-111,-32,38
48,-509,28,66,98,10,-59,-35,-30,-90
-76,-552,-53,39,108,83,55,81,26,-163
-18,-512,-17,-68,28,44,50,97,81,-28
-91,-474,-17,-123,-2,28,34,91,106,42
-251,-469,-2,-80,34,42,28,78,105,-5
-283,-484,18,-39,81,65,42,68,56,-13
-215,-482,7,-34,46,43,8,1,-49,-48
26,-419,-4,-69,-13,-11,-58,-58,-60,90
238,-384,-7,-91,-49,-62,-86,-69,-74,205
220,-417,-26,-121,-76,-74,-74,-27,6,258
-17,-488,-21,-65,-10,-25,-54,-4,18,233
-236,-567,29,49,115,85,25,34,-10,138
-220,-566,62,60,111,106,68,91,57,152
-327,-564,100,66,116,91,59,62,-18,-193
-379,-614,146,83,118,73,32,33,-104,-476
-305,-709,107,72,99,78,50,80,-19,-313
-177,-729,51,21,43,38,3,34,10,-65
-65,-667,33,-30,-9,-29,-71,-10,83,209
20,-642,30,-79,-34,-68,-101,-43,98,366
173,-626,26,-103,-54,-76,-130,-110,-21,415
339,-585,-5,-131,-88,-94,-153,-159,-159,275
207,-583,10,-93,-50,-31,-36,-65,-197,-54
48,-596,28,-59,-10,28,30,16,-137,-194
-89,-634,-8,-72,-9,18,30,70,16,-29
-52,-570,1,-84,-48,-39,-49,39,21,90
-97,-585,33,-71,2,8,-31,9,-62,-33
-158,-592,68,-19,18,27,-38,-46,-136,-61
-233,-587,89,-17,18,13,-47,-37,-75,65
-239,-539,39,-40,-29,-23,-86,-12,23,-66
6,-490,35,-44,-62,-64,-121,-75,-18,40
82,-578,-60,-100,-87,-89,-109,-98,30,232
-48,-728,-228,-91,-48,-17,15,0,36,517
-184,-788,-207,-59,-5,58,105,113,112,550
-296,-669,-30,-7,39,97,134,132,98,325
-367,-474,135,108,172,180,169,59,-113,-282
-460,-449,152,146,220,235,200,6,-314,-824
-315,-434,99,120,170,191,127,-147,-675,-879
-41,-397,104,52,100,144,100,-253,-949,-622
6,-410,85,13,64,87,39,-362,-1089,-428
-131,-468,72,0,28,46,-17,-320,-895,-246
-293,-526,96,85,110,83,-14,-175,-593,-142
-320,-643,58,52,73,10,-41,44,37,-22
-223,-790,-120,-162,-153,-132,-51,405,1228,358
18,-773,-183,-255,-245,-136,14,623,1753,576
236,-643,-79,-162,-155,-73,23,477,1308,524
302,-535,26,-38,-62,-35,-23,243,775,450
66,-702,31,-24,-48,-29,-115,-76,168,347
58,-688,13,-33,-37,-22,-81,-33,177,314
-1,-724,15,-10,0,29,-10,15,177,249
15,-672,91,25,35,51,20,-9,73,147
33,-540,126,36,42,52,18,-11,0,53
52,-454,62,15,16,47,48,42,54,63
-58,-472,-81,-15,10,73,116,111,140,93
-158,-381,-55,14,42,75,91,20,1,14
-147,-229,-9,19,2,33,24,-60,-98,-153
-119,-148,-70,-14,-39,16,29,-43,-91,-306
-58,-59,51,0,-11,14,6,-100,-155,-322
-13,-44,73,-15,-16,15,-18,-112,-136,-189
14,-34,36,-18,-24,15,-8,-63,-43,-82
382,94,11,-39,-73,-37,-18,-57,28,78
829,195,31,-84,-141,-116,-75,-78,50,330
697,178,49,-71,-128,-63,-32,-40,81,391
76,121,75,15,-14,34,58,-39,29,180
-244,28,65,42,32,61,68,-71,-53,28
-288,0,63,78,73,97,82,-90,-128,-47
-501,-3,51,95,94,144,137,12,-52,-124
-532,-2,-38,79,70,133,172,86,18,-151
-277,100,70,64,35,102,105,74,82,-87
-220,96,30,19,-27,49,74,83,145,-63
-144,91,22,15,-13,46,66,-11,-5,-144
-86,30,-64,-51,-57,22,52,14,0,-133
145,85,-71,-79,-108,-26,-7,-30,-31,-66
286,161,26,-12,-69,-37,-51,-116,-80,119
-100,161,108,116,69,109,89,-56,-3,330
-39,231,76,53,12,51,31,-105,-36,229
132,306,23,24,-45,2,-15,-134,-95,80
30,253,-61,49,0,44,48,-83,-109,-101
-65,212,-44,57,24,89,118,-14,-72,-112
-80,240,2,17,-27,51,78,-48,-93,-66
-159,170,-34,-31,-95,3,47,-59,-79,49
-136,96,-102,-22,-74,2,96,-27,-12,161
25,161,-141,-3,-45,-13,74,-72,-23,190
53,244,-101,-15,-40,13,104,-35,22,225
-120,283,-35,-4,-6,72,167,31,85,158
-346,390,15,1,11,80,179,16,3,-86
-360,594,-12,-48,-74,4,100,-49,-107,-235
-136,601,-84,-109,-171,-51,25,-74,-73,1
60,658,15,24,-73,-107,-38,-187,-38,512
-211,544,44,104,9,-94,-28,-165,9,336
-564,451,86,250,132,46,131,-20,-43,-394
-718,296,13,297,218,193,312,160,0,-627
-508,207,4,237,172,168,295,159,17,-473
-274,134,-114,111,40,43,184,51,13,-209
-72,84,-205,12,-62,-59,59,-75,2,16
-156,42,-134,-25,-84,-61,30,-84,17,8
-261,26,-98,-29,-53,-5,35,-84,-9,-68
-186,26,-143,-36,-23,32,43,-93,-33,-127
-123,15,-127,36,8,54,69,-81,-56,-220
-128,-76,-57,55,13,39,107,-88,-103,-292
-155,-138,7,72,20,6,87,-108,-116,-269
125,-98,28,19,-40,-65,18,-122,-91,-95
330,-92,20,-26,-78,-97,-16,-145,-85,-12
94,-173,40,-2,-33,-38,5,-96,-47,-6
-160,-312,13,12,21,25,80,-8,46,27
-83,-402,-73,-54,-43,-8,71,36,148,191
123,-345,-40,-40,-76,-59,-12,-59,61,287
89,-337,38,57,31,-2,-8,-132,-129,112
135,-335,33,47,31,-27,-7,-102,-112,66
326,-268,23,-10,-29,-132,-35,-95,-71,37
336,-333,2,-13,-29,-155,22,-23,-12,-46
-100,-427,28,-11,23,-107,-18,-30,-76,-296
-360,-520,-18,6,66,20,63,50,49,-167
-193,-564,-108,-39,18,116,100,86,173,180
-153,-553,-47,-8,66,202,151,68,120,200
-261,-565,-3,35,102,167,178,61,17,-67
-371,-664,-66,11,91,104,189,122,62,-234
-51,-525,-1,67,20,-1,52,7,-26,-112
17,-463,18,31,-49,-65,1,-10,-8,-58
41,-404,44,40,-35,-72,-17,-37,-39,-134
149,-240,91,84,-34,-121,-113,-154,-117,-119
255,-229,54,55,-35,-112,-105,-146,-80,-44
451,-350,-11,-22,-58,-98,-52,-75,9,115
490,-344,41,24,3,-52,-25,-54,37,203
207,-301,91,98,114,40,69,-1,-7,37
-66,-329,26,78,132,107,137,56,0,-97
-166,-271,-15,62,89,70,84,27,-40,-170
-29,-197,-30,47,54,3,36,-2,7,-133
17,-244,0,35,57,5,52,0,43,-61
79,-325,-42,0,-9,-32,44,15,39,174
385,-235,6,-8,-46,-79,-41,-77,-6,294
202,-314,19,68,20,-44,-65,-105,-138,27
31,-490,-10,46,5,-15,-25,35,11,-75
116,-982,-32,33,-13,-50,-54,-7,-29,-102
56,-1904,-3,54,30,-22,-13,16,-39,-129
-49,-2236,-1,70,52,-1,16,22,-8,-96
-79,-2248,-11,55,40,-16,32,85,106,0
28,-2091,44,47,28,-82,-48,24,61,9
67,-1937,63,49,23,-111,-94,-24,-1,-32
1,-1806,32,56,35,-79,-94,-53,-70,-126
-50,-1703,-93,32,25,-37,-59,-30,-45,-104
72,-1593,-72,6,12,-17,-72,-51,-62,34
295,-1473,-1,-6,0,6,-75,-93,-108,175
906,-1204,-10,-19,-82,-63,-159,-173,-245,146
848,-1086,-31,6,-57,-60,-130,-165,-296,-42
345,-1135,-7,5,-8,-31,-69,-108,-249,-171
-172,-1247,-67,-6,30,18,12,12,-87,-136
-149,-1076,-33,31,48,13,18,37,28,17
253,-871,14,39,44,-19,-6,34,110,233
313,-844,-12,18,46,-3,13,64,137,254
21,-864,-52,69,125,95,116,106,74,109
-359,-793,40,149,203,158,170,99,-54,-174
-431,-660,68,132,157,79,98,50,0,-342
-240,-573,-4,60,86,7,26,93,289,-147
-91,-532,-94,8,41,9,34,157,408,44
47,-365,-52,18,21,-20,-26,72,291,82
235,-198,-78,1,-19,-78,-99,13,216,94
321,-232,-78,-54,-52,-76,-74,42,253,247
176,-315,-24,-45,-17,-22,-10,73,228,241
-18,-311,4,15,61,33,16,42,102,93
-87,-284,-13,36,104,47,27,39,44,47
-29,-255,-30,-16,47,22,60,116,137,113
52,-33,-25,-19,3,-33,18,74,103,112
14,508,5,18,34,6,44,84,91,100
47,878,2,32,28,-21,-23,6,0,-15
91,974,20,24,-9,-99,-114,-117,-122,-179
-55,866,-54,9,12,-44,-25,-31,-35,-241
-242,736,-45,34,64,41,87,72,26,-283
-47,883,-21,30,-1,-25,-19,-13,-76,-159
-54,849,-1,21,9,-17,-8,-7,-58,-97
-150,794,-11,5,5,-23,6,0,-39,-83
-132,808,34,46,34,-26,-31,-94,-174,-106
123,938,39,0,-53,-109,-97,-141,-171,137
265,1092,13,-48,-103,-159,-144,-158,-126,283
85,983,-26,-46,-94,-126,-88,-113,-59,216
-78,883,24,29,-11,-27,2,-44,-43,32
-91,820,54,107,72,55,77,41,12,0
-128,706,-61,90,68,46,92,93,30,-55
-151,615,10,66,48,26,50,41,-62,-368
-60,551,71,84,60,26,23,-12,-143,-441
7,455,25,43,16,9,39,31,-53,-186
53,453,23,-7,-51,-67,-25,21,91,41
187,421,30,-17,-70,-116,-109,-69,71,91
159,255,1,7,-58,-65,-57,-29,3,0
-25,132,-18,17,-39,10,33,39,15,-144
69,62,-17,15,-50,12,27,43,33,-112
222,3,-1,26,-56,-51,-68,-58,-21,35
0,-82,19,51,-15,-48,-94,-87,-40,110
-214,-160,-17,24,6,0,-43,-38,-21,78
-32,-210,-92,-67,-53,-19,-31,-7,16,146
148,-186,-121,-119,-114,-86,-110,-66,-17,186
-6,-218,-117,-101,-106,-103,-108,-91,-72,10
-152,-320,-161,-25,-38,-37,-26,-47,-77,-137
-31,-379,-142,39,37,35,35,3,-68,-150
108,-484,-57,41,57,80,74,65,10,-112
271,-513,1,17,37,51,34,73,100,18
353,-449,44,-8,-17,-17,-33,56,151,215
255,-418,102,15,-22,-37,-105,-44,21,285
218,-545,21,-19,-47,-82,-159,-123,-75,285
238,-598,-25,-39,-58,-133,-234,-257,-243,99
161,-668,-61,-41,-62,-94,-164,-157,-180,-48
-39,-801,-38,-8,3,49,33,83,20,-108
-181,-818,-22,19,31,65,72,95,57,-156
-284,-800,-13,35,56,55,70,77,80,-203
-253,-777,4,59,69,83,98,100,31,-267
-141,-711,-71,49,33,64,71,78,-39,-321
-118,-704,-134,-3,-9,38,60,78,-3,-309
-119,-676,-38,6,6,31,49,53,-7,-233
-7,-543,32,50,15,19,3,-22,-79,-159
84,-503,5,7,-34,-36,-48,-42,-34,-59
212,-495,0,-20,-70,-62,-103,-49,-26,37
298,-488,-40,-44,-86,-89,-160,-78,-23,155
277,-526,-156,-97,-134,-98,-149,-37,48,249
332,-530,-155,-131,-154,-86,-100,0,79,170
342,-461,-118,-80,-102,-63,-73,-32,2,34
386,-284,29,36,-32,-63,-106,-129,-156,-107
311,-222,105,77,0,-56,-104,-131,-182,-124
101,-299,-47,24,-15,-27,-64,-55,-85,0
150,-302,-87,-24,-65,-54,-82,-22,9,230
199,-243,-35,-39,-81,-67,-131,-47,-6,255
172,-232,-24,-46,-58,-61,-128,-28,51,282
144,-187,22,-16,-10,-61,-128,-50,-1,110
-72,-246,-6,27,27,-46,-144,-96,-127,-354
-290,-391,22,68,83,18,-40,19,0,-291
-363,-382,52,111,93,79,61,94,41,-323
-229,-320,32,124,79,73,67,101,22,-319
-130,-258,25,136,80,60,10,65,2,-294
-166,-256,45,158,111,44,-7,24,-33,-271
-49,-238,61,171,107,5,-27,4,-20,-101
150,-190,71,143,84,-1,-49,13,76,40
398,-136,28,82,8,-40,-104,-27,80,110
650,-57,-40,-54,-158,-139,-196,-107,-11,209
380,-17,18,-115,-184,-130,-191,-116,-41,158
-179,-16,55,-34,-78,-26,-92,-67,-50,-76
-249,-14,63,21,7,47,4,-22,-45,-150
50,7,56,1,-1,12,-24,-60,-59,43
181,36,68,-11,-17,-35,-66,-120,-102,133
78,-45,46,0,8,-3,-36,-65,-74,68
-35,-180,-21,17,57,69,41,74,74,31
-158,-188,-3,27,77,77,40,90,54,-101
-280,-145,0,8,56,55,16,54,-15,-244
-266,-62,-15,-29,6,22,-45,-19,-94,-269
-91,-7,-28,-64,-30,-8,-72,-51,-121,-101
111,87,-21,-51,-59,-43,-98,-85,-128,53
163,92,-26,-12,-20,-18,-72,-67,-84,47
177,0,-19,-1,15,24,-23,-27,-41,125
187,-67,-85,1,32,52,34,-6,-52,163
93,-70,-25,30,34,-2,16,28,72,157
48,30,77,34,6,-81,-47,49,231,177
77,123,84,27,14,-84,-45,22,171,57
12,68,39,8,22,-46,-19,37,109,-103
87,49,1,-37,5,-1,-43,7,60,-88
81,1,-40,-49,16,116,-1,24,13,-72
-24,-48,-34,9,76,219,74,36,-127,-104
72,-23,-43,8,49,169,93,22,-206,7
173,54,-71,-44,-31,40,30,-34,-308,54
248,215,36,8,-13,-9,-80,-212,-560,-21
216,266,104,88,59,29,-82,-231,-578,6
33,177,-45,21,-3,-18,-48,-17,-88,119
-38,60,-103,-59,-75,-42,11,204,492,191
18,46,-76,-69,-85,-49,32,281,798,292
98,96,-34,-46,-60,-23,44,255,730,344
103,95,-9,-10,-17,12,40,161,471,236
2,75,-26,-21,-40,-5,30,160,386,142
-23,16,-84,-79,-70,-7,73,248,493,278
154,81,-76,-72,-37,-13,46,134,304,300
276,264,23,-39,-18,-55,-68,-50,42,111
26,276,90,31,42,-21,-64,-68,-43,-93
-265,126,56,81,121,121,107,112,82,-121
-334,106,29,77,125,139,134,129,53,-227
-220,178,29,43,64,67,63,57,25,-205
-47,253,49,2,9,-5,-4,-2,16,-124
104,329,83,18,13,-15,-1,-49,-42,-165
375,368,37,-38,-48,-64,-44,-64,-29,-52
441,287,-4,-68,-62,-63,-61,-55,-15,48
258,184,-9,-47,-34,-39,-17,-5,43,129
45,102,-36,-19,1,1,25,34,35,90
-75,168,-26,-12,1,-10,7,-2,-32,-5
56,215,31,0,6,-37,-40,-57,-72,22
42,199,77,47,25,-22,-48,-109,-137,-3
-236,133,94,105,67,45,9,-76,-142,-65
-331,83,75,125,84,71,46,-20,-110,-172
-127,122,72,95,36,22,1,-66,-151,-255
111,161,67,51,-13,-40,-28,-63,-79,-60
245,175,44,23,-33,-101,-100,-100,-53,179
278,148,14,5,-34,-108,-130,-114,-50,262
150,53,-54,-18,-2,-41,-35,-4,21,132
-277,53,-37,34,89,113,159,160,47,-250
157,215,-14,-58,-49,-16,10,16,-54,-92
450,375,51,-73,-110,-124,-144,-147,-170,52
456,350,58,-55,-107,-133,-143,-149,-170,118
56,95,-21,-42,-43,1,58,36,20,199
-155,40,-16,-15,7,66,173,148,126,188
-264,19,19,47,62,104,193,134,51,130
-87,127,65,91,64,66,105,5,-82,84
95,222,41,54,-2,15,22,-37,-78,-36
-17,176,12,62,16,53,59,22,-25,-234
-129,118,23,119,68,79,96,75,13,-312
-87,121,9,101,18,36,85,100,71,-204
-87,76,13,86,25,50,101,118,62,-172
-80,95,33,39,4,30,61,68,11,-167
-19,187,49,-28,-27,-16,-36,-8,-25,-79
138,268,22,-55,-6,-24,-107,-128,-165,-84
179,268,-23,-93,-43,-49,-116,-120,-124,-84
123,205,-118,-141,-82,-37,-56,-25,-37,-105
32,174,-238,-124,-92,-32,-36,-2,-16,-118
20,203,-189,-68,-77,-62,-56,-37,-40,-119
185,248,-54,-35,-22,-74,-93,-116,-137,-151
252,160,-47,-43,1,-56,-91,-118,-129,-16
193,39,-110,-90,-11,-26,-41,-32,-38,135
14,-66,-114,-83,28,42,39,78,77,167
-278,28,-73,75,138,164,142,83,31,-80
18,102,-15,30,63,59,81,41,21,127
218,77,-17,28,32,9,22,22,33,231
87,28,42,98,88,40,21,1,46,179
-50,14,80,121,109,96,82,55,75,12
-87,-88,-22,62,79,139,148,172,141,-96
103,-29,-57,16,7,109,115,128,63,-83
250,74,53,-13,-51,46,34,19,-44,-62
159,79,26,-30,-63,13,-18,-12,-29,112
108,58,-6,-37,-58,9,-51,-19,-6,268
132,41,-72,-69,-84,-29,-94,-53,15,368
-5,83,-45,-40,-61,-28,-123,-105,-77,244
-54,183,25,16,-19,-10,-130,-144,-173,-23
-213,129,3,59,32,68,32,70,7,-289
-403,102,24,98,114,160,194,221,82,-468
-330,154,54,95,104,153,165,185,46,-338
-182,225,41,56,45,84,81,110,24,-171
-124,282,35,15,19,53,38,83,111,-47
-208,322,54,53,50,88,29,38,-12,-106
-152,352,78,57,43,66,7,13,-67,-148
-49,396,76,30,-2,28,-43,16,-46,-96
-94,371,49,20,-7,42,-24,9,-73,-125
-53,389,56,23,2,31,-28,-25,-107,-56
1,395,32,-7,-21,8,-52,-28,-76,-19
108,324,-17,1,-45,32,-39,13,-6,30
77,270,-40,-2,-31,50,-7,30,43,69
115,318,-79,-27,-65,3,-46,8,60,123
180,392,-41,-19,-53,-3,-65,-30,1,124
198,454,-1,12,-34,8,-77,-82,-110,9
214,496,32,39,-23,6,-68,-94,-158,-44
219,453,6,30,-22,8,-19,-65,-108,27
76,341,-27,32,12,38,8,-12,-38,114
-13,361,35,77,42,11,-34,-37,-26,130
5,346,8,26,7,-10,-33,-1,72,133
-4,322,-37,-18,-6,3,-2,35,122,98
-25,318,-54,-35,-29,-11,2,32,101,59
-7,362,-10,-22,-21,-36,-32,-29,7,-29
-44,363,40,-9,-15,-67,-72,-74,-63,-69
-25,313,71,-9,-25,-78,-82,-89,-79,-25
-17,277,81,-15,-28,-47,-63,-79,-81,-14
-158,200,66,-6,-6,-3,-20,-38,-67,-89
-193,69,-20,0,14,39,28,10,-32,-99
-72,15,-34,6,23,33,34,9,-61,-70
96,29,-8,-18,-8,-29,-20,-38,-68,-37
289,-12,-30,-38,-32,-59,-60,-27,0,48
175,-218,-96,-56,-20,-23,15,26,69,120
7,-288,-125,-76,-10,-9,56,60,157,145
12,-172,-149,-57,-1,-11,33,48,157,127
-14,-177,-182,-36,26,30,43,99,154,83
184,-209,-134,-85,-19,-16,-15,100,159,243
435,-183,-146,-113,-66,-58,-43,77,157,380
483,-66,-54,-38,-36,-60,-90,-22,-9,286
266,-10,103,57,48,0,-78,-107,-183,114
-67,-81,104,63,65,51,-3,-50,-162,-38
-166,-154,76,58,59,56,47,-8,-169,-157
-207,-237,41,66,74,79,115,15,-141,-198
-200,-196,64,79,79,63,99,30,-27,-181
-123,-88,114,94,66,41,77,25,19,-155
-8,-41,134,87,51,18,50,28,72,-39
-31,-55,84,40,33,7,9,25,78,33
-17,-64,35,5,6,10,3,5,-2,86
9,-60,-7,-38,-21,-5,-17,-44,-82,99
-124,-96,-63,-63,-47,-27,-27,-59,-116,1
-256,-77,-60,-57,-36,-18,-4,-38,-131,-158
-105,39,4,-20,-7,-19,-10,-48,-87,-122
50,151,70,25,26,1,1,-60,-104,-76
24,127,63,36,58,16,16,-41,-131,-117
60,80,-5,-12,5,-33,-19,21,50,33
52,55,-122,-56,-35,-37,5,107,241,175
-142,50,-52,-42,-10,-9,75,124,216,51
-202,111,31,-3,-4,-21,89,108,204,-34
-178,68,-35,-13,12,20,124,152,214,-10
-195,43,-120,-24,24,37,119,134,198,35
-90,148,0,-13,-3,-30,39,41,167,115
13,246,63,-6,-23,-63,-3,-29,68,58
-113,204,66,26,31,0,41,-24,-20,-162
-197,111,14,-9,16,16,62,34,14,-220
-77,156,-11,-42,-25,-11,-1,12,0,-153
2,225,19,-5,-9,-29,-35,-33,-79,-196
45,174,40,-10,-12,-16,-16,8,-19,-156
198,191,53,-9,-42,-41,-47,-17,13,0
351,256,78,8,-54,-74,-111,-98,-84,63
483,252,25,-46,-93,-105,-159,-117,-48,202
161,145,-38,-29,-41,-49,-67,-61,-3,193
-192,-22,-68,5,18,19,36,0,-8,144
-132,-142,-88,-42,-16,13,31,40,17,277
16,-151,-42,-35,-35,-11,-28,-4,-41,234
94,-324,40,2,-29,-22,-40,-30,-58,88
245,-580,96,33,-3,-38,-34,-64,-111,-14
387,-870,11,7,-39,-71,-48,-45,-84,-36
296,-1248,-43,-44,-70,-74,-38,-12,-48,-55
28,-1536,-4,-31,-23,-11,10,19,-51,14
-332,-1725,-26,16,46,64,92,91,-4,-11
-446,-1860,-54,24,69,88,152,144,70,-49
-320,-1815,-2,21,37,52,137,144,122,-26
-263,-1716,14,47,51,21,55,72,31,-253
-315,-1681,31,106,130,63,36,-4,-126,-556
-136,-1581,35,95,91,0,-33,-57,-139,-425
-20,-1579,-16,22,27,-16,-45,-42,-84,-166
-54,-1552,9,-16,-20,-8,-54,-46,-103,-132
111,-1541,-2,-17,-23,-9,4,16,-33,82
288,-1449,16,-22,-29,-28,-22,14,16,304
278,-1325,28,-7,-15,-22,-59,-35,6,364
141,-1236,20,16,21,-4,-33,-34,-2,192
30,-1164,30,8,35,-11,-3,-1,-7,-53
16,-1064,78,15,52,-3,13,17,-5,-218
-62,-996,66,40,69,10,48,44,47,-306
-47,-923,16,30,63,13,47,34,-3,-261
200,-800,-69,-6,8,-17,11,-18,-42,-121
353,-717,-32,-20,-10,-43,-24,-84,-91,-36
324,-677,0,-8,0,-47,-61,-118,-117,0
311,-629,12,4,-11,-37,-63,-91,-90,81
376,-522,-6,-31,-57,-63,-70,-61,-57,82
444,-372,-23,-47,-77,-63,-59,-44,-49,18
180,-329,-17,-88,-60,-27,11,34,-9,-82
288,-124,40,-34,-26,-45,-33,-52,-18,-176
512,-2,54,-37,-89,-117,-108,-113,-62,-43
565,19,73,2,-72,-80,-85,-88,-103,10
478,-75,60,60,27,23,9,-9,-53,44
273,-267,-33,54,95,108,136,102,84,93
146,-323,-117,56,97,99,137,122,126,79
264,-261,38,92,101,102,97,20,1,16
259,-210,49,55,40,74,67,-6,-43,-1
364,-103,51,32,10,32,28,-40,-100,-52
424,-51,22,13,-15,16,14,-23,-92,-60
281,-49,-11,-9,-38,-10,23,34,20,-33
110,-39,4,-5,6,26,52,61,48,-3
170,39,36,8,23,26,4,13,8,75
382,161,39,-31,-49,-48,-135,-71,-23,179
570,198,-15,-88,-117,-98,-174,-77,3,294
536,189,-70,-115,-155,-114,-172,-79,13,333
245,175,-50,-68,-124,-99,-161,-108,0,183
257,244,-2,3,-68,-79,-141,-117,-33,97
365,303,44,47,8,3,-63,-47,-26,25
84,244,41,64,73,82,46,71,65,-75
-157,215,56,96,147,116,114,128,103,-185
-84,238,47,75,127,78,88,77,64,-162
11,226,6,-1,65,54,59,21,-10,-108
33,226,-38,-68,24,49,32,6,-44,-116
107,287,-39,-42,26,43,13,2,-80,-137
153,342,-2,0,34,52,12,14,-58,-101
184,325,3,-25,-3,27,14,38,15,-37
336,242,-3,-38,-39,-23,-36,-18,-38,-18
484,208,-18,-65,-73,-65,-96,-100,-127,44
304,181,-17,-44,-41,-68,-77,-140,-157,15
68,167,-10,-10,-19,-55,-44,-89,-76,37
10,143,-16,10,29,0,33,23,43,49
0,204,-25,-8,26,9,23,45,50,-62
69,235,-51,-49,-11,4,-5,39,15,-68
183,237,-70,-32,-2,25,28,52,4,-20
187,270,-30,21,42,42,59,60,-15,-61
157,412,0,16,5,13,11,29,0,-56
128,372,-60,-36,-21,9,35,47,44,-6
253,397,-84,-84,-64,-42,-8,12,51,67
350,573,40,-15,-51,-47,-75,-51,-6,156
208,528,38,-17,-47,-32,-25,-12,47,101
266,525,18,9,-7,1,-18,-33,-21,53
215,577,62,55,8,-16,-32,-64,-69,-41
82,714,-9,16,-17,-15,0,-35,-61,-18
-29,722,-35,26,-5,7,16,-9,-50,3
-139,705,-44,-5,-22,2,21,30,6,25
-202,698,-32,-5,-7,13,17,33,8,-5
-178,698,-26,0,-13,-5,3,-5,-21,13
-126,710,-5,17,-27,-24,-3,-35,-55,45
-59,729,9,19,-25,-41,-37,-69,-68,63
-136,621,-12,19,4,1,0,-41,-67,-4
-137,690,-21,3,2,-18,-31,-65,-57,64
-311,698,32,45,52,6,9,-61,-114,-74
-393,635,5,49,40,24,51,22,15,-79
-293,689,-21,49,8,4,23,-5,20,-82
-262,697,-35,36,-2,3,-1,-5,39,-83
-177,627,-5,9,-21,2,16,64,209,72
38,640,-13,-21,-55,-49,16,35,260,243
-11,615,-29,-50,-78,-82,-10,-13,208,269
-270,533,-43,-38,-38,-62,2,-37,116,210
-181,585,-14,-20,-38,-56,-36,-104,-13,64
-196,601,0,-12,-19,-5,-3,-33,-24,-192
-253,611,-6,-12,-10,29,38,29,42,-195
-253,616,-10,-5,0,31,30,18,21,-28
-314,550,-27,-18,0,25,42,41,37,42
-287,571,11,26,21,-7,34,1,-13,-23
-219,573,37,53,30,-43,16,-2,-8,-40
-2,617,1,61,24,-38,-14,-4,-6,-7
53,644,27,53,-4,-47,-45,-39,-35,34
-167,545,31,6,-15,-4,-6,-30,-46,52
-357,505,12,17,20,70,58,6,-64,5
-237,565,29,25,21,25,22,-12,-56,3
-212,576,56,37,17,-16,20,1,7,53
-350,526,-35,40,43,7,55,48,27,62
-321,481,-161,-5,0,-31,25,31,50,142
-216,440,-104,-39,-32,-47,16,32,137,235
-143,537,23,-43,-59,-66,-33,-37,82,135
-176,615,38,-29,-65,-85,-81,-117,-67,-67
-408,496,-87,-30,-22,-12,3,-9,-10,-199
-398,406,-32,-26,-8,20,56,52,76,-115
-193,444,42,-34,-34,-38,-31,-54,-4,-33
-75,501,55,-61,-76,-87,-67,-52,39,55
-82,476,52,-51,-55,-66,-46,-9,84,14
-120,452,37,-38,-37,-59,-54,-38,1,-110
-268,376,13,-9,-7,-30,35,-13,-15,-153
-249,321,-20,44,41,30,117,25,28,-33
-232,338,-45,99,93,80,150,32,22,-82
-173,201,30,81,63,50,119,25,26,-153
-84,-93,-29,4,-13,-20,55,-6,-1,-142
-104,-185,-35,-27,-41,-43,6,-41,-24,-90
-110,-222,18,-16,-17,-25,17,-46,-28,36
50,-177,13,-19,-29,-19,-5,-80,-52,152
55,-99,51,20,0,-1,-1,-55,-49,110
-31,-35,103,55,44,34,49,10,-31,-52
-7,-30,44,30,37,44,56,30,-47,-111
50,-20,-6,-10,20,32,5,24,-41,-96
370,102,-35,-61,-80,-70,-60,-67,-43,138
453,134,-111,-58,-104,-109,-95,-91,-62,180
352,91,-27,-43,-77,-64,-81,-32,20,122
169,78,17,-35,-48,-39,-62,8,67,6
45,101,37,-7,20,-3,-19,36,78,-101
-6,106,33,24,74,44,41,95,181,-139
-65,124,51,46,94,74,73,118,127,-185
-60,135,46,52,93,76,71,106,55,-130
-15,182,49,64,50,15,14,56,13,-105
22,172,44,57,30,-4,-12,3,-37,-77
48,186,55,65,35,15,-13,-22,-71,-102
60,247,74,78,32,5,-23,-38,-76,-111
82,274,65,54,1,-8,-34,-31,-71,-66
185,293,40,21,-11,0,-29,-5,-59,-3
291,307,8,-29,-23,13,-1,11,-44,63
312,325,-34,-91,-62,0,11,5,-28,112
300,332,-27,-56,-55,-22,3,-13,-10,113
190,303,15,15,-12,19,4,-14,-10,33
118,321,46,32,-1,16,27,11,20,9
197,359,19,-11,-41,-27,-24,-5,52,76
394,407,5,-46,-75,-67,-93,-78,-5,160
418,414,13,-38,-70,-63,-104,-84,-24,167
181,327,-9,-38,-49,-24,-49,-3,43,134
61,304,12,-14,-28,9,-35,22,14,33
143,353,45,3,-17,0,-53,-13,-64,-26
93,313,-30,-2,-1,16,-36,-9,-76,3
10,270,-87,0,-8,28,-23,6,-36,91
-20,281,-9,2,2,25,-31,-10,-60,108
-92,299,-3,0,9,15,-31,-39,-109,31
-130,263,-39,-18,-11,22,-8,46,11,16
36,272,-49,-37,-18,12,-26,74,81,19
165,328,-58,-65,-40,-34,-72,7,72,80
-62,320,-66,-33,-30,-28,-69,-17,0,-10
-291,273,-67,29,36,39,9,29,-5,-82
-380,265,0,69,84,100,115,110,55,-105
-339,275,-59,55,72,89,127,117,74,-126
-268,277,-49,34,45,70,89,86,64,-79
-260,276,-8,0,25,52,38,67,44,-35
-192,298,-57,-26,10,7,-9,28,9,-15
-160,301,-52,-3,14,-3,-44,-10,-6,-27
-70,391,-52,7,-25,-9,-60,-16,-37,97
74,485,-28,9,-43,-50,-106,-75,-85,95
61,499,71,0,-41,-34,-87,-69,-69,79
-21,460,93,12,-26,-16,-23,-43,-23,42
-144,377,73,-1,-10,27,10,-10,15,-63
-114,356,53,-25,-25,24,-27,-20,-24,-123
-47,320,25,-22,-22,8,-29,-32,-64,-59
-129,255,-31,-49,-21,5,3,10,-22,49
-217,269,-57,-73,-30,18,37,4,-46,64
-138,320,-38,-89,-39,-16,-8,-54,-136,105
-196,276,-28,-58,-10,-8,-24,-27,-100,63
-419,160,-43,-22,15,12,1,53,52,-30
-494,166,-12,47,105,72,91,105,95,-70
-415,177,31,90,140,127,159,131,52,-64
-317,237,36,57,79,80,103,69,-45,-59
-121,335,29,19,15,16,34,-35,-142,17
-128,317,9,-8,-5,-17,36,-22,-18,39
-281,265,13,14,5,-27,46,53,194,-32
-297,267,28,33,24,-9,59,61,197,-31
-273,255,-5,2,18,4,60,76,179,46
-194,248,-69,-20,6,-1,16,44,103,31
-122,294,4,5,3,7,-27,-28,2,-31
-54,333,47,8,-16,1,-26,-8,4,-4
-108,216,-41,-44,-47,-10,31,98,151,137
-214,206,-28,0,24,23,43,77,88,94
-252,265,36,66,66,41,42,26,0,-18
-270,262,-15,70,68,49,61,3,-33,-65
-267,263,-6,72,49,45,59,-25,-72,-81
-199,280,21,25,1,12,23,-31,-33,-29
-55,302,2,-22,-28,-15,-30,-68,-77,-4
-67,242,-117,-37,-23,-3,3,-32,-54,-45
-98,218,-140,-22,-24,6,38,-9,-16,-49
-127,210,-26,0,-19,2,22,-22,3,-46
-181,204,23,31,11,37,-2,-54,-85,-129
-121,253,52,27,-18,12,-39,-59,-80,-54
-43,282,64,19,-17,-14,-53,-47,7,39
-25,272,65,28,4,-19,-64,-68,-49,33
-61,254,44,11,-15,-27,-75,-75,-48,12
-54,231,6,-32,-50,-61,-69,-35,95,74
-144,197,-2,-28,-24,-37,-5,15,132,100
-327,165,30,31,35,26,67,57,91,-19
-300,205,78,46,61,54,75,43,26,-86
-208,259,87,31,46,36,47,3,-2,-83
-175,265,71,29,27,-2,11,-31,-9,-76
-174,223,9,-23,-24,-34,-7,-13,43,-6
-117,184,-36,-67,-37,-28,29,24,138,131
-27,160,-40,-58,-14,-28,35,21,124,190
125,225,-11,-58,-30,-56,-40,-37,45,210
116,226,-35,-70,-43,-71,-62,-41,42,252
89,237,-33,-56,-37,-75,-91,-94,-60,168
212,310,-34,-55,-42,-104,-137,-183,-169,101
105,291,25,-23,2,-47,-82,-86,-85,47
-149,176,52,27,90,60,63,113,97,-16
-187,134,13,9,85,66,89,127,179,-23
-173,178,7,-6,52,29,28,49,125,-27
-206,220,27,-2,39,18,-32,-2,11,-102
-257,227,37,4,35,4,-46,-20,-44,-183
-203,195,24,-15,32,-16,-29,-13,-32,-138
-122,179,3,-32,15,-22,-45,-17,-30,-128
-114,176,-3,-24,3,-22,-40,-22,-71,-126
-132,155,-29,-33,2,-32,-47,-33,-87,-90
-156,126,-72,-48,1,-27,-42,-13,-25,13
-33,144,-44,-6,-2,-36,-43,-1,14,158
91,202,36,67,11,-36,-64,-38,-41,175
-17,177,41,61,-4,-31,-49,-44,-62,150
-42,144,17,-12,-61,-57,-48,-32,-56,97
19,140,-88,-52,-89,-60,-16,23,4,14
-46,150,-140,-49,-43,-45,-3,2,39,-98
-10,143,-82,-57,-10,-10,5,5,52,-43
41,153,-54,-71,-20,5,26,8,-11,28
-38,201,-84,-14,11,7,23,-26,-96,-58
-88,166,-93,34,50,35,58,32,11,-46
-108,-1415,11,22,-12,41,0,-6,-29,63
-56,-5149,24,9,-20,16,-9,-15,-19,80
60,-6190,25,-24,-51,-2,-2,-2,18,123
89,-6043,28,-16,-54,15,3,23,11,72
94,-5750,32,11,-33,29,24,51,41,-9
164,-5322,39,-3,-80,-36,-43,-8,18,6
80,-4984,10,-16,-84,-35,-45,-23,36,85
-214,-4729,-19,23,1,42,49,47,32,-73
-372,-4394,-3,72,71,95,84,85,10,-318
-361,-3987,44,122,130,116,72,74,-34,-421
-219,-3580,49,90,111,87,54,67,-25,-338
-122,-3237,54,49,74,46,36,39,-43,-233
-175,-2914,83,71,88,66,20,10,-90,-244
-165,-2630,62,67,73,50,9,-2,-72,-170
-125,-2374,56,59,62,40,-3,-11,-82,-121
-123,-2130,45,44,44,48,9,24,-25,-85
-80,-1872,2,20,6,19,-17,41,51,23
-39,-1638,-11,22,-6,6,-39,25,21,44
13,-1416,-6,11,-13,-12,-38,11,16,59
77,-1215,-14,-9,-47,-46,-45,9,26,130
197,-1041,-48,-64,-89,-67,-66,10,54,222
176,-847,23,-37,-56,-55,-65,-19,-3,140
97,-695,64,-26,-44,-43,-46,-30,-30,14
214,-559,-80,-117,-116,-73,-77,-44,-43,-22
404,-361,-158,-137,-149,-116,-148,-121,-90,12
296,-236,-111,-78,-131,-127,-159,-127,-54,114
-141,-193,46,32,-6,-24,-42,-38,-55,-50
-118,-30,64,81,61,60,32,24,-18,-102
-69,0,10,31,50,74,70,47,38,-4
-154,17,-20,32,65,80,84,89,74,34
-113,151,0,20,45,35,48,55,31,19
-12,255,1,-11,11,0,9,43,22,25
-131,273,-2,0,23,35,64,58,37,15
-272,339,0,4,25,54,92,73,38,-25
-124,471,4,-18,-20,29,52,44,49,10
-78,602,40,6,-18,26,21,-9,28,-4
-173,725,79,43,0,7,-11,-82,-62,-90
-135,819,115,56,-2,-23,-36,-121,-135,-118
49,860,131,62,4,-7,-33,-125,-172,-107
163,822,86,29,-32,-33,-40,-96,-129,-28
260,786,19,-21,-94,-73,-64,-68,-43,18
235,646,-69,-63,-84,-41,-16,23,98,54
241,624,-84,-68,-70,-12,14,51,121,171
218,661,-70,-51,-32,26,44,80,104,208
158,697,-45,-25,-8,41,34,84,85,192
147,765,-3,15,15,41,30,88,100,236
-153,734,-10,58,79,102,97,125,101,130
-362,747,-34,87,110,102,81,73,-29,-50
-201,822,-11,50,57,56,13,38,-83,-64
-73,868,5,12,29,48,-2,43,-50,10
-30,932,34,10,11,16,-25,21,-62,5
-19,956,24,-18,-26,-19,-36,28,27,-8
-54,903,-22,-58,-55,-31,-23,53,105,37
-93,879,13,-12,-11,5,-6,60,71,24
-150,883,33,0,19,24,35,95,172,33
-136,915,-3,-33,2,3,52,90,221,74
-77,936,-50,-17,8,0,11,10,102,57
-46,925,-75,-12,3,-28,-26,-40,6,16
25,906,-56,-47,-25,-32,-16,-17,28,43
0,858,-132,-47,-8,0,-1,18,59,3
-87,917,-57,51,68,24,-19,-44,-101,-124
-115,981,105,102,98,17,-27,-77,-180,-154
-114,972,123,84,86,19,4,-9,-92,-83
-55,955,64,18,24,-9,-20,23,49,-9
35,945,43,15,-14,-43,-49,12,87,37
51,894,35,63,10,-25,3,14,70,64
-14,878,41,65,26,-13,24,12,14,22
-44,962,-8,52,53,11,14,-10,-29,-1
46,956,-29,7,32,-6,-18,-43,-37,73
15,894,-48,-60,-3,-11,5,1,11,125
-8,864,-109,-84,-39,-17,4,22,14,84
53,894,-60,-12,-27,-33,-16,-50,-97,-39
120,928,81,13,-23,-38,-43,-93,-119,-86
94,857,89,-7,-14,-2,7,-23,-34,-85
54,799,8,-28,-21,-2,24,5,21,-23
2,801,-59,-51,-46,-18,8,-4,7,-10
-12,790,-29,-69,-60,-11,18,4,30,58
67,785,-27,-72,-71,-34,-13,-19,15,173
134,793,-39,-79,-95,-79,-80,-86,-22,241
86,795,-44,-74,-81,-83,-76,-119,-93,235
41,782,-27,-39,-38,-50,-47,-92,-80,222
123,854,20,0,-8,-30,-50,-98,-100,164
20,910,41,65,38,-4,-42,-90,-135,-74
-181,820,61,101,86,91,50,43,10,-231
-236,748,75,91,94,120,97,105,66,-279
-41,712,32,30,37,59,42,73,46,-130
61,677,17,17,17,59,34,35,0,4
81,673,2,-7,-25,20,-17,0,0,150
23,635,-14,-5,-18,0,-24,7,11,173
-9,613,-2,24,15,13,-8,10,-1,35
-17,618,10,44,37,37,17,3,-39,-162
90,663,28,37,24,16,4,-17,-96,-211
211,668,29,10,7,-2,-6,-17,-83,-78
143,653,27,5,21,1,4,-10,-55,-59
-28,640,31,-2,37,6,15,11,-45,-165
-141,627,27,-16,36,0,17,36,-29,-168
-151,611,21,-11,32,-4,18,16,-37,-117
-103,610,3,14,49,31,31,12,-63,-97
-28,640,-5,3,37,33,43,-9,-58,-98
-50,621,41,16,34,35,59,-16,-13,-82
-101,555,23,39,32,48,100,25,-5,-48
-49,517,-19,0,3,34,104,55,39,4
23,495,-67,-43,-39,20,68,67,92,100
98,545,27,-32,-4,-1,13,-22,20,105
104,507,19,-27,23,17,-3,-39,-24,114
138,486,-18,-27,24,21,-30,-47,-34,133
185,510,-58,-21,-4,-1,-39,-56,-30,176
81,507,-45,-39,-19,-7,-44,-48,-32,105
12,475,-60,-51,-21,-26,-19,-47,-44,29
75,456,-41,-29,-15,-23,-4,-57,-48,55
71,465,-11,-13,-8,-13,20,-49,-27,37
-15,482,19,-3,15,14,46,-21,16,-28
-60,504,70,28,29,39,39,-4,6,-62
-147,539,107,34,21,35,35,21,22,-132
-169,526,21,17,4,25,29,46,18,-171
-106,446,-10,-26,-27,22,45,77,46,-124
-118,414,-21,-18,0,18,60,83,60,-104
-99,402,-99,13,18,25,50,38,7,-114
-37,357,-135,21,13,35,49,27,-11,-64
112,354,-82,1,-11,17,13,19,-7,20
135,348,7,22,-22,-23,2,1,-13,38
-20,346,34,75,14,-9,2,0,-18,-21
-110,326,62,90,49,17,26,23,1,-67
-49,344,48,46,13,-20,2,11,18,-10
-23,313,20,15,-6,-41,-36,-7,22,40
-18,288,39,27,11,-18,-42,-36,-12,55
49,329,46,-1,-13,-23,-50,-58,-37,91
93,336,-57,-84,-54,-30,-53,-52,-8,156
82,383,-160,-119,-68,-56,-40,-54,0,121
98,412,-45,-77,-56,-63,-28,-63,-9,70
75,422,17,-22,-23,-32,-28,-32,11,32
21,418,62,7,9,-23,-29,13,17,-40
67,393,52,-1,-2,-39,-21,11,7,-42
75,349,62,12,13,-3,-1,8,-12,-70
-119,288,42,70,86,64,29,45,-20,-138
-37,250,15,24,48,29,11,42,17,-61
110,278,-1,-19,-9,-28,-40,-9,4,-13
183,346,3,-21,-53,-55,-59,-13,-27,12
133,314,-2,-13,-62,-45,-59,10,-15,41
101,268,-3,10,-42,-47,-68,-24,-31,53
149,296,14,18,-43,-57,-99,-93,-97,61
-16,245,4,-1,-41,-41,-56,-49,-37,12
-290,199,30,30,25,2,15,21,16,-150
-261,224,46,72,76,30,29,18,-53,-192
-70,241,11,19,35,8,1,-1,-74,-104
1,269,-20,-55,-29,-38,-36,-19,-27,-7
-110,274,-114,-59,-7,0,0,-8,-34,-28
-70,259,-102,-1,20,27,19,-8,-50,16
-43,247,-14,-8,-9,17,13,49,107,116
-22,239,32,1,1,37,38,89,170,91
55,255,54,22,8,6,-3,22,36,7
75,248,10,-8,-42,-36,-38,-14,-12,25
-75,199,0,-7,-30,-7,-2,27,43,-30
-133,175,-14,15,8,17,34,69,100,-41
-78,209,-69,8,15,14,27,45,84,0
-60,212,-17,-17,7,-1,29,27,55,12
67,234,-17,-38,-19,-16,7,18,79,62
218,262,-49,-23,-35,-50,-9,-17,73,63
140,297,-57,4,-45,-75,-24,-74,1,6
13,288,-57,20,-46,-65,-17,-81,-62,-33
207,320,90,-10,-60,-55,-58,-63,-61,61
165,252,51,-12,-28,-31,-66,-29,-39,92
-77,149,-2,5,15,-11,-39,-20,-45,49
-174,170,18,47,62,2,13,22,-2,18
85,226,32,7,16,0,47,40,39,-8
170,200,30,0,7,-5,47,25,31,46
46,159,49,28,32,31,32,25,-27,-16
-71,121,23,33,31,44,15,33,-45,-40
-88,55,-8,26,38,73,39,60,11,21
-143,2,-35,5,24,63,64,91,110,54
-204,20,-24,13,28,49,53,108,169,44
-189,83,2,36,45,54,45,85,90,-24
-125,108,-18,16,26,29,50,74,42,-25
38,140,-44,-15,-35,-36,-15,-25,-59,49
218,213,-48,-44,-90,-102,-87,-66,-26,108
67,193,53,18,-9,-46,-52,-24,61,187
121,243,62,29,-5,-33,-28,1,81,151
112,256,41,17,-5,-19,-35,6,61,63
21,183,-8,-2,-17,-14,-5,36,39,-62
43,149,-46,-32,-62,-43,-29,22,20,-109
28,120,-67,-35,-48,-31,-30,9,0,-71
-18,134,-42,-25,-37,-21,-31,-10,-10,-82
2,137,-21,-33,-37,-53,-68,-51,-18,-56
97,125,-13,-31,-43,-76,-68,-71,-26,49
257,152,-29,-35,-77,-120,-90,-108,-6,339
180,110,-20,-26,-71,-86,-67,-66,56,498
35,99,8,7,-31,-65,-53,-69,1,376
-22,131,37,35,5,-42,-73,-100,-92,143
-120,159,78,74,66,26,9,-2,-47,-199
-263,132,80,94,105,74,123,102,-5,-543
-284,146,53,74,81,52,86,74,-48,-584
-138,159,22,30,36,21,10,28,-74,-416
-33,154,-3,10,19,9,-9,-6,-107,-317
42,150,8,0,8,-21,-20,-33,-107,-139
-28,79,-41,-11,5,-6,-9,-10,-60,-2
-133,31,-125,-36,-10,-19,0,0,-25,16
-71,102,-12,-15,-5,-32,-26,-55,-66,-5
85,173,50,17,0,-42,-53,-47,22,71
91,128,19,39,44,15,36,70,222,99
124,49,-12,32,60,33,62,108,271,102
56,-4,-90,56,68,39,40,51,108,54
-165,-11,-123,68,83,53,45,28,27,-73
-159,25,-60,3,50,19,19,4,17,-71
-112,89,30,-22,1,-6,14,-9,-15,-72
-127,118,37,-14,-29,-11,24,-1,-78,-88
-46,122,31,-4,-20,-1,25,-23,-96,-50
7,135,-30,9,0,-8,-27,-70,-142,-47
57,96,-78,0,0,-21,-26,3,52,69
114,59,-5,-17,-12,-28,4,70,176,143
133,89,24,-19,-16,-34,-22,-11,2,49
36,102,25,-24,-14,-32,-16,-29,-77,-21
-74,85,14,-32,-17,-18,17,5,-41,-29
-65,90,22,-11,-3,-11,22,28,-37,-41
-62,79,-29,-12,-21,-15,-4,30,-22,-61
-62,34,-130,-28,-45,-33,-15,16,-1,-69
66,46,-85,-16,-30,-15,-4,18,29,-22
303,99,34,-21,-41,-44,-55,-29,32,68
417,124,4,-64,-86,-76,-103,-53,15,178
314,87,-31,-99,-117,-94,-95,-38,40,274
160,58,-15,-93,-92,-62,-69,-29,30,298
138,62,-1,-67,-36,-20,-38,-14,13,245
182,105,43,1,27,16,-7,-9,0,150
127,111,92,53,62,34,48,16,-16,-43
62,40,61,26,62,63,122,86,52,-70
97,69,67,20,58,58,78,33,-9,-111
60,138,98,34,30,24,17,-10,-71,-215
-8,131,78,22,6,19,37,6,-44,-173
-7,96,65,25,1,31,38,14,-37,-134
124,72,25,-1,-17,12,31,12,-30,-91
286,55,-24,-28,-27,0,1,1,-31,24
387,28,-45,-9,-2,0,6,12,-29,105
366,-31,-89,17,24,7,43,33,1,105
318,-33,-139,60,43,32,49,24,-16,13
306,43,-14,64,16,-2,11,-22,-32,-55
251,56,98,32,-2,-2,-19,-24,-47,-105
325,77,62,8,-2,-6,-26,-4,-22,-42
488,130,29,-18,-26,-33,-62,-23,9,57
548,114,15,-21,-11,-27,-66,-56,-61,60
447,72,0,-45,-12,-29,-56,-52,-71,79
320,16,-36,-59,-29,-25,-44,-12,1,146
258,35,-3,-10,11,20,-15,-3,17,99
281,74,8,1,14,-1,-32,-18,-14,24
277,77,11,5,17,6,26,37,41,-60
193,49,25,18,47,50,105,93,98,-122
125,42,30,35,80,84,110,95,65,-104
161,59,50,47,67,72,57,40,-5,-43
291,77,22,-7,-18,7,-32,-27,-43,9
306,70,-7,-46,-45,-17,-45,-45,-67,-20
257,89,23,-19,-38,-20,-33,-64,-101,-90
227,97,45,11,-19,-16,-34,-39,-43,-72
282,62,-4,43,-5,-14,-22,-10,-6,-23
337,12,-25,58,14,-2,-4,0,-12,41
365,-34,-21,59,36,5,17,12,-10,101
384,-12,4,74,59,11,39,15,-2,118
249,-22,21,93,82,30,70,49,54,103
176,-44,42,78,85,33,66,65,100,77
252,7,48,35,34,5,0,6,47,-13
162,13,-54,-19,-10,-16,-21,-41,-26,-56
187,-12,-8,10,18,-26,14,-34,-32,-15
333,-22,-63,-33,-47,-64,-32,-66,-32,53
344,-3,-149,-65,-84,-67,-48,-12,11,100
397,82,-34,-74,-95,-81,-78,-39,-12,90
308,58,14,-41,-46,-29,-70,-77,-77,30
84,-63,-31,-40,-2,44,-21,-24,-19,49
-8,-63,-1,-18,11,49,6,-10,13,67
11,-22,25,15,12,17,15,-34,-51,80
10,-30,21,43,26,21,42,-13,-56,85
-119,-50,22,50,40,51,64,12,-52,-60
3,36,68,51,35,17,4,-26,-105,-93
52,37,47,46,36,23,24,-12,-71,-47
-150,-57,-70,52,55,62,92,38,-18,-76
-329,-94,-60,45,53,66,100,80,93,-74
-315,-62,12,36,41,45,82,95,174,-78
-211,3,26,29,39,31,74,74,127,-86
-166,48,27,-4,2,13,16,41,56,-95
-116,56,-10,-57,-51,-32,-45,-23,-11,-62
-39,21,-71,-76,-74,-54,-33,-28,25,72
22,-4,5,-63,-48,-18,2,-15,3,74
31,4,0,-54,-46,-8,-5,-5,0,113
-14,4,28,-33,-55,-40,-28,9,45,120
-128,17,71,15,-12,-45,-51,-51,-57,-24
-286,-29,59,32,14,-16,-28,-27,-31,-60
-366,-85,17,8,5,17,44,69,149,38
-233,-30,33,17,5,11,39,42,75,111
-99,52,87,44,1,-8,-17,-10,-23,87
-119,47,86,66,4,9,-32,3,-46,-43
-158,-8,66,49,-5,19,-27,19,-43,-135
-179,-40,-19,-3,-47,-6,-41,4,-38,-105
-135,-22,-23,-29,-62,-26,-81,-32,-57,-83
-77,18,38,-17,-35,-38,-100,-64,-92,-36
-120,-5,42,-39,-9,-25,-59,-42,-69,7
-236,-34,22,-54,22,31,31,24,17,-49
-347,-46,3,-42,42,63,86,76,115,-121
-259,4,9,-31,0,16,32,28,131,-97
-124,3,2,-20,-15,-9,-3,-16,88,-10
-156,-62,-80,-15,0,6,16,-6,45,26
-182,-91,-83,-35,-4,5,20,5,102,85
-124,-70,-88,-63,-35,0,-6,13,172,203
-146,-53,-22,-49,-39,0,-35,-5,75,160
-227,-51,-41,-51,-47,-15,-43,-28,-4,44
-128,31,-64,-68,-83,-47,-94,-72,-41,19
18,99,-6,-45,-74,-52,-122,-101,-86,-62
109,155,50,-19,-66,-57,-126,-106,-118,-132
89,96,50,-17,-53,-23,-94,-57,-71,-92
-414,-65,68,58,75,112,70,102,33,-83
-620,-91,58,93,113,141,114,124,44,-143
-623,-77,45,82,91,124,124,127,38,-170
-492,-30,37,50,49,83,92,111,43,-89
-321,60,79,69,53,62,35,36,-35,-22
-145,121,69,34,25,21,-20,0,-39,28
-45,113,42,3,-13,9,-39,-5,-18,17
-74,53,36,0,-5,40,-24,5,-13,-22
-53,0,12,-16,-4,36,-14,25,29,19
-93,-58,-3,12,19,50,4,31,32,23
-15,-58,10,-8,-7,27,21,39,36,149
90,-28,-25,-41,-36,9,36,25,16,106
121,13,-72,-65,-77,-6,15,23,0,73
-1,63,-10,-60,-77,-6,-18,9,10,47
-197,49,17,-44,-56,6,-34,-14,-19,-31
-241,8,24,-12,-30,8,-30,-18,-62,-77
-170,-3,19,-4,-13,12,-37,-10,-79,-105
-22,26,-2,-8,-41,-14,-55,-14,-51,-43
-30,-7,-112,-30,-49,-35,-41,-7,-14,55
-110,-4,-184,-65,-59,-45,-68,-33,-38,81
9,57,-136,-100,-90,-81,-114,-81,-77,85
134,101,-18,-90,-70,-84,-124,-111,-135,69
81,18,-12,-61,-22,-29,-51,-46,-65,139
168,-54,-3,-9,24,19,5,12,0,198
154,-56,47,60,70,64,74,101,75,176
-298,-177,61,69,108,133,171,180,112,-15
-448,-208,50,22,87,110,140,134,90,-134
-240,-77,12,-39,7,5,22,39,47,-112
-60,30,-21,-73,-63,-64,-54,-31,-21,-10
181,60,-42,-64,-16,-76,-25,-77,-31,219
-177,51,64,76,120,24,63,-22,-43,91
-302,5,19,69,132,56,73,8,-18,41
-368,-44,-15,57,108,68,93,20,5,-47
-286,0,1,68,70,49,105,47,14,-91
-269,-11,-15,45,39,32,104,91,89,-95
-338,-67,-17,44,48,71,105,111,95,-196
-257,-52,-11,52,50,68,67,48,-4,-268
-111,15,-23,40,6,19,2,13,-42,-191
-65,72,-35,60,22,21,-14,-1,-56,-134
-72,54,-8,51,21,30,8,7,-33,-108
1,53,-85,16,-18,7,-11,-1,2,7
58,61,-23,-4,-22,0,-10,0,18,25
11,51,13,-4,-25,-5,-4,7,37,14
-58,30,-30,-14,-45,-27,-44,-13,19,16
-75,37,-30,-12,-18,-8,-38,-37,-32,9
-65,36,-48,22,15,28,1,-10,-42,30
-68,73,-11,13,2,39,21,10,-28,26
-78,76,2,0,-12,41,9,5,-9,10
-38,63,-15,-28,-26,20,10,0,41,11
-25,59,-5,-45,-34,-14,5,-13,48,-15
-29,52,26,-25,-7,-8,5,-17,5,-20
60,65,45,-7,-9,-31,-61,-65,-30,48
161,35,4,-26,-42,-65,-99,-76,22,172
167,32,-54,-14,-40,-67,-84,-92,26,157
2,56,32,37,23,-12,-53,-85,-56,-2
-60,68,86,39,38,2,-32,-31,-28,-75
76,117,85,10,37,12,-21,-11,-11,-112
41,105,68,-10,43,33,22,-2,-10,-121
-210,23,16,-49,47,42,83,29,0,-106
-211,31,-2,-54,31,18,60,11,-48,-100
-106,37,11,-26,32,10,48,-10,-67,-23
-53,53,13,-13,33,23,56,10,-32,59
-65,60,26,7,50,32,23,7,-41,8
-97,38,23,6,48,30,10,8,18,-34
-50,72,9,-10,8,-3,-32,-10,69,2
-6,89,-5,-28,-16,-13,-30,-4,68,49
-8,80,-5,-55,-39,-14,-30,5,49,45
-42,67,-9,-58,-47,-22,-25,-14,41,4
-9,51,-7,-44,-41,-21,-32,-34,13,2
-1,21,-56,-44,-37,-19,-26,-19,8,2
-53,-5,-97,-30,-39,-11,-12,18,23,-13
-35,-7,-33,4,-17,-9,-13,10,19,4
136,39,-1,-2,-31,-39,-52,-40,-16,44
242,47,-13,-24,-61,-66,-68,-57,-25,71
65,-24,-26,-18,-42,-31,6,5,21,32
-164,50,27,44,52,38,57,22,26,12
-196,61,21,23,26,23,58,31,43,-41
-119,112,-29,-3,-13,-27,10,-8,0,-86
9,131,-86,11,-18,-29,-12,-40,-48,-50
70,110,-60,18,-17,-23,-27,-56,-45,-14
75,121,-13,5,-40,-43,-55,-87,-50,13
70,114,9,-8,-46,-57,-80,-116,-82,-7
-16,41,4,22,2,-3,-19,-65,-81,-57
-11,7,-16,-11,-34,-11,0,-1,-1,52
-14,-32,-38,-41,-61,-27,12,27,71,162
-7,-73,-51,-19,-35,-5,25,2,33,127
-31,-55,-24,12,3,16,17,-19,-30,19
-183,-28,-23,20,26,26,19,-28,-48,-151
-146,32,-39,16,14,4,4,-29,16,-193
-1,44,-14,-12,-17,-14,0,2,58,-56
-13,61,11,-24,-38,-13,-8,15,42,-2
-32,62,28,-15,-40,-12,-14,9,6,-20
-109,-7,1,-8,-37,-10,-11,20,13,14
-231,-89,-66,7,-2,36,49,53,63,73
-104,-49,-80,30,5,34,27,18,35,119
-49,-47,19,47,8,23,15,-14,-25,54
-87,-53,32,38,1,0,24,-19,-63,-26
-51,6,24,-1,-26,-24,-1,-19,-59,-22
20,10,33,0,-6,14,17,11,-47,-2
80,11,19,-13,-15,7,0,16,-47,55
43,-3,-2,-28,-43,-25,-28,8,-35,128
71,-10,15,-60,-90,-80,-73,-17,-10,174
219,74,55,-51,-93,-102,-106,-74,-57,162
286,105,69,-40,-104,-95,-110,-84,-50,196
375,90,43,-58,-122,-107,-130,-110,-62,274
345,64,29,-32,-73,-88,-106,-118,-49,251
139,31,53,22,8,-6,-37,-62,-7,119
-103,-77,26,30,63,66,67,69,56,-13
-193,-111,-16,-2,64,80,130,132,66,-109
-346,-114,-3,13,89,100,142,128,9,-315
-321,-105,-12,26,87,99,104,104,-26,-322
-238,-60,-23,25,62,63,60,69,-57,-210
-126,-28,-70,19,19,11,23,40,-22,-157
-70,23,34,29,-3,-37,-10,-8,-28,-199
-72,35,90,20,0,-29,2,1,-35,-180
-77,45,70,7,17,-10,48,49,7,-156
-20,43,40,0,24,0,51,56,39,-104
55,43,32,3,34,11,39,32,-12,-92
199,72,55,5,19,-15,-5,26,-18,10
206,78,78,11,7,-20,-21,36,2,121
13,-12,54,31,34,14,15,45,15,56
-76,-78,26,43,56,24,30,32,10,-21
-88,-88,18,58,61,25,41,17,-38,-66
11,-43,5,9,-1,-30,15,9,-1,26
28,13,11,-17,-31,-61,-15,-4,44,102
-152,11,47,44,25,-18,11,0,22,57
-250,-24,45,67,84,19,61,29,32,2
-161,7,9,41,65,7,47,7,-26,-33
-31,55,-92,-15,0,-17,-15,-46,-74,-9
55,55,-109,-92,-64,-41,-44,-32,-29,77
94,36,-72,-65,-58,-38,-54,-2,22,123
56,20,-68,-7,-23,-7,-22,9,49,48
-18,-13,-14,1,-17,12,16,47,70,0
-14,7,6,5,-23,20,14,64,75,16
117,57,26,10,-36,-4,-24,24,34,19
251,37,30,7,-47,-32,-68,-48,-73,4
155,-25,24,6,-15,0,-44,-45,-104,-31
-91,-68,22,24,24,36,30,19,-42,-57
-185,-82,18,40,36,53,68,44,0,-25
-122,-86,-5,11,0,10,27,35,49,26
-62,-83,-46,-31,-35,-12,-6,49,132,53
-45,-21,-20,-16,-31,-10,-19,10,61,15
-17,24,5,-10,-12,-19,9,-16,2,-24
86,77,-9,-32,-35,-54,2,-34,-3,19
180,126,-16,-36,-45,-81,-45,-51,-14,37
231,123,-1,-32,-30,-89,-88,-73,-41,77
208,51,-48,-62,-43,-79,-76,-53,-14,143
117,-18,-90,-74,-29,-45,-21,-2,13,137
6,1,-95,-63,-18,-12,5,-1,30,118
-140,53,-110,-45,-15,-20,-1,-31,-18,32
-143,35,-102,-23,-3,-18,-8,-13,-19,-42
13,5,-1,3,15,-9,17,40,76,-25
114,25,59,67,49,17,20,42,80,-104
172,42,36,50,27,10,-4,9,32,-48
96,-16,-3,18,0,-4,-24,-10,36,46
-77,-71,-5,22,17,13,-20,3,38,29
-277,-68,0,47,55,55,33,40,32,-57
-263,-52,-86,40,53,55,55,47,24,-76
-100,12,-44,25,14,-6,9,9,12,-21
-89,-9,-45,31,49,21,29,12,15,-26
-90,-30,-25,43,69,42,62,52,15,-46
-22,10,-50,17,38,10,21,39,57,-4
53,67,-32,-3,8,-21,-18,2,22,0
73,99,9,0,1,-34,-36,-31,-38,-29
-32,51,29,27,33,5,-10,7,-2,-46
-83,44,57,48,44,16,-16,18,11,-25
-38,55,64,19,8,-24,-47,-4,17,46
71,48,54,4,-2,-37,-55,-37,-1,98
170,80,27,-3,-33,-60,-73,-72,-28,129
124,56,-41,-13,-45,-61,-43,-63,-32,149
77,28,-35,-11,-23,-33,11,-38,-43,96
137,18,6,-14,-14,-25,20,-43,-76,14
76,-19,-16,-38,-27,-26,38,0,-35,-55
-58,-73,-45,-34,-27,-8,67,40,11,-91
-56,-49,-32,-4,-7,-9,51,8,8,-55
-7,-32,11,32,17,-2,47,4,3,0
47,-8,57,66,25,-8,32,7,18,49
68,32,86,85,37,4,28,-1,-9,32
127,46,72,20,0,-12,1,-29,-31,32
182,15,26,-78,-48,-28,-5,-41,-38,105
210,28,-52,-157,-86,-33,-26,-33,-9,177
79,11,-61,-145,-81,-17,-15,-4,24,98
-102,-14,-22,-80,-42,5,9,-2,-15,-36
-86,37,13,-30,-18,-18,-44,-67,-78,-110
-112,42,20,8,7,-23,-67,-75,-86,-231
-164,-6,48,56,75,39,9,-13,-36,-217
-66,0,-1,44,59,20,-5,-30,-25,4
59,8,-145,-18,-16,-45,-83,-100,-51,160
45,10,-115,-37,-30,-41,-74,-94,-75,76
5,11,-65,-31,3,9,-10,-25,27,21
-75,-21,-12,8,56,77,73,45,108,-65
-160,-40,9,24,87,95,133,107,130,-131
-108,10,-7,27,60,51,85,87,96,-135
35,71,-83,5,2,3,4,34,27,-102
20,32,-40,-12,-10,9,-9,28,0,-56
-32,16,-51,-15,-3,5,-22,13,-19,-7
-14,69,-25,-10,-15,-2,-39,-8,-15,15
-22,72,41,26,17,24,-11,-10,-36,-36
-66,9,65,39,31,15,16,15,-4,-7
-26,-50,47,49,26,23,28,26,39,30
33,-31,42,48,16,23,20,16,35,41
10,-35,32,27,22,7,19,47,36,49
-58,-47,6,8,50,28,54,69,49,18
-53,-12,6,4,66,34,58,50,26,-13
-32,6,-57,3,59,40,79,52,4,-45
-9,26,-106,-3,18,16,70,12,-44,-100
80,46,-70,-38,-50,-50,-1,-37,-61,-56
80,20,-17,-54,-65,-45,-4,-39,-44,13
-70,-33,28,-28,-28,16,30,-14,-23,54
-75,2,63,-31,-32,5,34,-17,-22,40
-14,21,53,-24,-37,-10,16,0,8,33
-57,-8,11,-32,-31,-11,24,14,48,15
-23,10,13,-30,-34,-33,-3,-8,3,-15
127,84,7,-27,-62,-70,-62,-56,-44,17
226,155,-71,-59,-107,-106,-98,-66,-11,75
192,140,-20,-54,-95,-83,-66,-31,-3,104
122,117,87,-12,-47,-41,-33,-23,-37,67
41,45,70,-26,-49,-46,-61,-44,-38,20
63,-21,24,-47,-65,-53,-80,-31,-4,95
88,-61,-9,-15,-29,-30,-53,-12,1,144
153,-78,-9,16,13,3,-25,-3,8,185
220,-57,18,2,6,10,-9,21,54,242
57,-33,40,10,19,29,19,46,53,36
-71,-24,46,35,29,59,57,73,54,-109
-85,-26,41,48,35,60,52,56,40,-65
-24,-13,39,42,29,31,4,33,1,-40
-15,35,-3,42,32,26,-9,14,-33,-77
-82,24,-42,62,55,45,37,22,-26,-103
-127,8,36,69,65,41,62,24,-20,-103
-98,16,47,28,29,12,45,14,-9,-58
-54,30,32,-18,-22,-20,11,-13,-3,-38
-57,14,5,-32,-36,-18,33,1,-1,-16
-22,-2,-58,-30,-44,-10,33,22,26,54
61,9,-56,11,-7,-13,17,-13,17,111
86,-17,22,60,43,12,28,-12,17,182
92,1,48,58,36,-15,-6,-38,36,210
21,29,29,32,20,-31,-29,-76,-22,90
-41,-5,-5,11,36,13,37,-12,5,-55
60,24,18,24,37,19,47,-2,-43,-91
237,58,-13,0,-25,-37,-1,-36,-13,143
262,46,-52,-18,-42,-43,-48,-36,8,189
147,84,25,31,22,-15,-64,-56,-35,56
-82,37,57,95,95,53,2,-13,-10,-54
-96,68,122,92,106,65,24,-34,-62,-105
-189,33,71,54,77,50,53,-24,-84,-132
-200,29,27,23,35,20,25,5,-39,-133
-166,46,21,38,54,48,21,9,-36,-59
-64,61,-25,14,16,14,-33,-19,-28,25
157,74,-5,-36,-42,-43,-109,-63,-9,88
172,23,-7,-37,-35,-28,-87,-30,33,92
-38,-39,-17,-4,4,20,-25,25,68,36
-138,-35,-23,5,21,27,-31,-2,19,-28
-87,-24,-27,-43,-2,6,-14,69,114,-8
-64,-9,-111,-35,-8,28,-12,71,74,-26
-96,-19,-156,-22,17,32,-16,42,-6,30
-1,4,-85,-54,-23,-37,-84,-30,-48,171
111,-5,-93,-81,-53,-54,-108,-44,-13,302
19,-23,-95,-47,-24,-23,-64,9,39,261
-61,39,51,19,31,25,-12,6,-7,21
-68,79,99,45,64,60,55,52,1,-245
-141,70,97,73,77,82,92,111,60,-419
-193,50,44,50,54,51,30,81,51,-330
-162,-2,-32,50,42,40,-22,13,-36,-187
-202,-33,50,75,71,64,-5,21,-44,-172
-151,-65,48,56,63,56,-3,33,-10,-105
-24,-68,50,48,63,50,17,68,31,-40
39,-33,55,51,65,43,23,64,19,-57
73,-4,-4,39,44,9,-1,20,-30,-66
144,25,0,8,4,-9,7,0,-47,-15
241,55,31,-18,-31,-25,0,17,4,73
241,75,14,-14,-29,-42,-4,14,32,107
183,91,47,7,-23,-52,-61,-39,-33,66
158,93,56,8,-21,-53,-65,-78,-67,26
134,77,8,-19,-36,-55,-43,-72,-53,27
-17,-2,-115,-32,-60,-72,-59,-56,-14,56
-52,-15,-88,-4,-35,-58,-82,-78,-37,35
117,-37,-2,29,13,-11,-41,-59,-48,19
-233,-99,-96,47,12,40,49,53,79,43
-310,-108,-28,86,21,50,74,62,115,47
-21,-20,14,60,-10,-20,19,19,73,121
201,52,43,10,-57,-68,-45,-27,42,202
163,69,69,34,-32,-38,-26,-20,24,163
76,57,55,49,1,2,2,-15,4,43
-206,-99,30,18,52,87,95,75,54,-119
-324,-97,-7,-38,15,70,62,91,88,-101
-185,-20,-18,-39,-5,20,17,22,52,-81
45,78,0,-39,-38,-33,-14,-42,8,-35
42,57,21,-18,-19,-1,29,-12,-19,-63
66,38,35,0,-6,5,24,-20,-50,-65
82,33,10,-23,-32,-16,-26,-43,-36,21
6,51,15,-31,-11,-5,-24,-49,24,61
-127,32,-32,-14,32,16,14,-23,35,31
-72,9,-26,-25,21,2,0,-44,-22,2
22,-2,6,-18,10,-5,-28,-50,-19,27
-36,-33,9,-3,34,19,-6,14,15,14
-96,-69,4,-10,43,40,27,41,31,-7
-145,-54,20,10,42,48,20,-10,-26,-30
-71,19,70,13,-10,0,-8,-45,-37,-22
77,77,87,-14,-51,-36,-61,-79,-76,-40
133,60,51,-26,-47,-12,-52,-58,-77,-70
146,44,32,-18,-31,0,-10,-3,-34,-48
150,25,-10,-1,-21,-4,24,19,-27,-31
38,-30,19,26,0,9,35,35,-22,-52
-123,-95,24,53,23,35,35,66,8,-58
-113,-40,29,40,3,0,11,40,0,-38
-21,20,45,36,-27,-30,0,-10,-19,20
12,36,34,55,-34,-36,-10,-19,-7,81
-26,24,2,30,-24,-15,12,11,22,75
-80,52,-38,46,-16,15,29,42,14,-26
-36,49,-56,33,-55,-12,-22,32,14,-61
92,56,22,21,-48,-22,-45,14,8,22
121,35,61,26,-18,-14,-43,-15,-31,24
-48,-19,70,5,-20,-14,-42,-29,-73,-111
-174,-100,-33,-52,-46,-14,-18,14,-33,-144
-152,-147,-104,-35,-33,0,13,55,33,-65
-69,-102,-165,4,-6,9,8,33,34,-31
153,30,-159,2,-31,-49,-60,-52,-28,95
249,100,-27,-2,-35,-57,-69,-72,-42,201
323,98,51,-20,-49,-64,-63,-72,-7,251
420,80,42,-34,-71,-76,-90,-94,-37,236
309,15,31,-21,-58,-56,-68,-72,-72,51
-28,-74,20,0,-19,-17,0,-19,-62,-153
-287,-135,27,43,42,50,68,49,-14,-157
-322,-125,20,49,64,70,65,56,12,-36
-231,-47,20,20,55,43,46,26,33,-40
-167,12,25,-7,44,46,67,69,87,-97
-107,9,30,-16,45,68,95,109,129,-107
4,86,59,-17,28,51,19,30,11,-127
8,42,6,-37,12,34,0,9,-11,-88
6,-40,-84,-46,4,8,6,-7,-19,-9
-19,-92,-95,-27,29,13,5,-16,-16,7
-35,-129,-65,-14,48,35,59,34,34,51
5,-77,-3,18,29,17,17,18,43,57
23,-8,71,69,48,12,0,3,1,-30
45,4,79,61,54,18,-13,30,11,-87
37,34,52,24,29,7,-34,30,33,-43
62,50,20,-10,13,3,-45,12,12,29
140,34,-33,-59,-4,-6,-31,30,40,142
169,2,-74,-101,-17,6,-11,37,69,289
117,46,-50,-91,0,13,-12,-20,35,262
72,81,-13,-50,-11,-33,-17,-46,-6,139
120,52,-25,-38,-40,-97,-54,-60,19,181
350,70,-33,-59,-83,-167,-107,-93,26,271
434,105,-13,-75,-107,-191,-135,-117,-25,108
37,73,44,-15,-34,-87,-51,-58,-77,-227
-350,-9,57,20,56,49,64,17,-92,-431
-324,-32,6,6,79,128,72,13,-77,-410
-245,8,-41,9,80,153,72,10,-48,-286
-235,31,-10,26,60,111,75,24,-17,-207
-127,28,25,51,58,44,75,19,-4,-155
-27,-28,36,59,49,13,51,3,-20,-66
80,-28,24,32,21,5,29,12,7,36
147,-15,-48,-7,-13,-13,1,15,34,82
48,-32,-127,-16,-4,3,6,42,37,75
-96,-22,-53,-17,0,21,15,24,8,26
-70,-10,-22,-24,-8,0,-15,-16,-15,19
-6,13,22,10,17,28,9,21,12,12
-56,-19,-16,5,21,52,50,64,56,62
-2,14,-70,-14,3,27,19,14,34,137
90,67,-22,-35,-36,-26,-43,-52,-27,183
140,112,17,-40,-46,-41,-52,-71,-44,173
-22,114,18,-12,-17,-20,-45,-65,-56,-54
-219,77,43,41,57,50,29,25,-16,-291
-168,44,51,60,73,88,80,97,7,-305
-61,23,20,16,36,46,66,83,-13,-142
-59,13,-31,-6,23,31,76,73,25,-18
-13,49,-64,-18,20,21,37,40,9,12
9,54,9,-13,17,3,22,16,28,17
25,3,-2,-22,20,-8,47,40,84,48
123,39,-4,-27,-11,-24,17,18,48,41
159,76,3,-31,-19,-43,-18,-3,11,22
54,27,22,1,19,-6,13,19,-6,-25
24,46,47,18,47,12,39,16,-23,-49
168,118,45,8,14,-20,-20,-26,-45,7
228,126,46,-14,-11,-55,-69,-65,-57,49
52,74,29,-30,4,-32,-21,-38,-33,36
-144,3,-23,-30,20,3,12,4,-21,-31
-135,-21,-16,-28,17,15,25,30,9,-25
-83,-9,-6,-51,-4,5,34,23,34,3
-73,14,-11,-71,-21,-2,38,27,38,-6
-88,-4,-13,-54,-19,0,41,28,38,-6
-48,17,-1,4,6,5,22,2,7,-15
1,-17,7,27,29,-7,15,-14,-5,-8
19,-7,-2,37,37,-9,5,-14,-9,23
56,52,-86,27,6,-7,-43,-30,-36,23
157,117,-138,29,1,-14,-52,-42,-40,34
229,135,-54,45,12,-5,-42,-29,-23,63
231,102,18,18,-13,-14,-54,-16,-11,91
216,97,38,4,-21,-44,-82,-36,-42,108
152,89,34,-6,-11,-38,-58,-30,-8,139
98,93,28,-12,-21,-44,-35,-23,79,144
70,56,13,-9,-29,-35,-53,-29,63,115
47,-9,21,25,-7,-25,-49,-56,-13,124
-42,-26,0,20,6,-16,-16,0,54,143
-5,-48,0,30,26,2,19,18,18,34
142,14,-2,9,-6,-31,-57,-52,-25,46
120,39,-71,3,-29,-31,-64,-62,-29,18
-10,29,-38,18,-3,5,22,-32,-46,-114
37,44,46,31,15,14,54,-38,-93,-166
34,47,30,10,3,13,59,-6,-66,-144
-42,39,34,-8,3,21,44,28,2,-82
-69,23,13,-15,-2,11,23,54,70,-28
-28,60,-10,-34,-25,-22,-10,19,69,-20
44,68,-89,-65,-75,-67,-49,-25,72,141
81,44,-83,-77,-86,-82,-75,-76,45,238
58,12,-126,-64,-57,-72,-84,-93,9,238
-136,-51,-45,-6,3,-6,-26,-7,71,173
-197,-89,23,36,30,41,18,57,76,74
-190,-53,51,66,45,63,31,52,1,-139
-283,-18,86,81,77,76,85,56,-37,-325
-281,-9,106,78,81,67,99,51,-23,-283
-275,-50,60,55,75,75,102,51,0,-196
-193,-23,35,4,37,39,56,-11,-66,-154
-16,69,15,-65,-37,-31,-17,-82,-131,-98
98,95,-40,-111,-97,-57,-47,-78,-89,5
71,93,-20,-86,-85,-50,-58,-51,-65,34
7,101,15,-58,-57,-39,-81,-67,-87,26
-49,37,-36,-23,16,8,-16,28,0,23
-115,19,8,1,38,17,11,32,-6,-5
-98,47,84,52,71,33,1,23,-32,-115
-103,59,100,64,71,29,-12,11,-56,-230
-104,-11,17,46,45,23,5,29,-14,-160
-25,-41,-67,20,19,28,29,59,33,-26
93,58,-14,14,-3,25,23,61,18,-1
155,14,35,24,8,-6,-19,0,-24,15
163,-13,-6,2,0,-34,-54,-21,-19,75
163,16,16,24,18,-23,-54,-24,-22,87
144,21,38,43,54,0,-17,-29,-11,80
112,18,-25,36,47,11,6,-13,22,145
-2,-44,-77,19,44,31,82,62,98,131
-111,-73,-36,-3,28,19,110,81,105,-30
-72,3,14,4,33,0,42,13,5,-105
25,76,37,13,54,-20,-21,-35,-26,-101
64,98,19,0,43,-24,-41,-40,-15,-40
-2,56,6,7,47,0,-21,-17,-45,7
30,46,8,18,43,-11,-31,-30,-42,38
55,33,6,12,2,-22,-47,-40,-38,39
-11,12,34,0,-33,-25,-26,-7,13,55
-146,-18,53,-20,-29,-6,6,-5,-27,-39
-80,6,42,-18,-12,-23,14,-46,-79,-63
-17,11,9,-37,-28,-46,8,-63,-58,-4
-4,-48,-25,-49,-24,-15,34,-19,-5,16
49,-81,-79,-40,-12,6,62,18,31,33
58,-49,-53,-27,-1,23,58,32,23,28
17,-31,-71,-8,21,31,60,25,3,2
104,-10,-18,-8,2,11,37,-19,-22,39
164,-1,19,-29,-33,1,14,-29,11,130
216,74,3,-47,-99,-96,-78,-101,17,264
298,126,0,-52,-139,-149,-146,-186,-81,251
169,122,0,-30,-112,-118,-120,-177,-118,81
-174,-14,-19,9,-29,-23,-2,-37,24,-64
-264,-49,7,63,50,53,76,55,119,-178
-21,14,4,40,38,50,76,66,114,-80
228,85,-6,32,-1,-3,29,0,40,54
135,26,-65,49,9,0,15,-32,0,57
-115,-59,-34,27,27,19,7,-29,-2,-14
-175,-94,-32,6,14,18,-8,-11,0,-15
-186,-121,-44,22,16,36,45,33,20,-38
-177,-128,-45,27,35,52,112,90,104,32
-103,-82,-20,22,29,54,110,97,110,15
-7,-15,-3,4,-11,32,67,48,30,-95
116,55,23,-14,-47,-18,8,-11,-18,-109
172,51,63,-16,-51,-18,-3,-23,-1,-17
122,32,31,-10,-31,-17,-20,-33,0,18
97,33,18,-4,-24,-24,-57,-51,-26,16
36,73,37,3,-30,-2,-16,31,13,-66
-104,47,48,35,20,47,27,34,-32,-193
-169,17,28,44,14,53,74,42,-30,-259
-34,28,-5,17,-18,26,73,57,-2,-183
69,32,7,-2,-29,-2,18,5,-42,-113
44,8,11,-12,-39,-13,-6,-12,-44,-90
15,13,-5,-19,-48,-27,-27,-21,-24,-41
-33,0,-17,-10,-33,-17,-16,12,31,39
-6,25,-10,3,-22,-28,-41,0,37,79
24,57,5,29,0,-18,-39,-15,12,106
-127,-17,-9,25,27,10,15,9,5,64
-146,-24,-43,5,10,6,2,14,-14,8
-56,-1,-45,-6,1,0,-20,11,-23,-6
-62,-10,-15,11,20,29,-10,39,-10,-60
-125,-15,-70,23,32,61,36,88,23,-85
-52,46,-14,30,0,28,0,57,1,-88
45,109,40,86,6,-18,-58,-28,-55,-50
75,122,-28,91,8,-25,-86,-58,-30,-1
51,95,-72,69,2,-27,-94,-40,-14,17
280,41,-95,-183,-115,-25,-55,3,27,63
340,53,-62,-157,-121,-48,-71,-13,37,112
124,41,19,-91,-69,-21,-37,7,32,87
-39,8,58,-26,-22,6,-5,27,39,32
-38,-30,-2,-19,-33,0,-7,32,79,64
-105,10,23,1,-11,-3,-34,-13,68,17
-144,23,43,14,-4,4,-36,-24,44,-49
-69,56,57,-5,-16,0,-32,1,-9,-47
-106,21,32,-8,-6,9,-1,40,15,-51
-179,-37,-1,0,14,36,25,52,0,-76
-67,-16,3,9,9,15,-11,19,-38,-55
99,33,16,34,2,-35,-74,-31,-50,-1
124,58,22,60,17,-42,-84,-36,-19,68
13,30,3,82,67,2,-22,15,11,79
-36,-13,-51,84,86,57,22,49,22,61
24,-44,-40,33,49,54,18,36,11,68
115,-47,-38,-22,-16,32,7,9,-3,96
95,-75,-62,-29,-22,31,28,20,0,82
66,-18,-45,-20,-12,7,15,15,-36,8
30,-14,-71,-16,-5,11,7,29,-22,0
-5,17,21,-3,16,27,-12,47,-4,-21
-27,20,32,-1,28,38,-7,46,11,-28
31,14,-4,-29,-7,-3,-26,23,17,43
55,23,-23,-47,-17,-20,-24,1,22,82
-50,-7,16,-28,12,24,4,6,22,61
-88,20,-29,-16,11,17,0,-9,-4,46
7,32,-127,-29,-11,-17,-35,-44,-33,61
16,18,-122,-3,6,-13,-34,-36,-31,33
45,29,-35,25,30,6,-21,-46,-39,7
109,-13,44,13,16,0,-38,-57,-39,47
47,-63,35,-2,17,6,-7,-21,-15,61
-48,-53,13,-23,25,17,35,34,56,71
9,-8,10,16,23,19,8,-9,37,41
82,8,15,27,-30,-22,-27,-18,52,72
85,-7,30,13,-71,-49,-42,-22,62,95
107,24,-17,3,-66,-34,-15,-46,-2,88
165,43,25,-12,-57,-15,-23,-54,-65,86
189,22,64,-39,-57,-26,-21,-49,-55,101
131,11,-5,-61,-77,-41,3,-61,-51,-18
-58,6,-66,-30,-49,-18,25,-20,-37,-236
-195,-3,25,9,-3,6,61,27,3,-258
-86,36,47,-4,-23,0,31,6,15,-115
113,95,58,-20,-51,-21,-6,-30,11,15
204,136,64,-12,-57,-31,-39,-67,-12,84
164,94,14,-33,-67,-36,-42,-61,-1,151
86,45,-18,-38,-46,-25,-13,-30,27,145
40,16,24,-27,-24,-22,1,-31,31,54
-69,-28,8,-17,-14,-8,14,4,53,23
-76,-25,-5,-31,-18,-8,0,27,49,18
43,-27,-13,-38,-2,7,-3,31,17,-64
-59,-47,-78,3,52,37,30,41,20,-177
-331,-47,-3,62,114,91,152,105,29,-184
-326,-53,-108,30,90,80,134,101,2,-213
-173,-24,-73,-20,35,35,74,49,-13,-175
-47,32,29,-41,5,-11,-7,1,-47,-145
-35,30,39,-50,0,-5,-22,18,6,-98
-23,43,47,-45,1,14,-25,17,6,-64
18,64,82,-22,-20,-15,-43,-13,-38,-66
12,49,101,22,-16,-34,-51,-20,-58,-87
-40,59,96,75,14,-12,-13,4,-43,-121
-60,28,76,102,30,-2,6,31,-14,-120
-114,-68,26,94,29,10,36,65,33,-42
-193,-121,-42,69,24,7,35,59,38,-30
11,9,-118,10,2,-20,-21,-18,-36,-22
275,127,-34,-59,-53,-39,-60,-49,-44,69
284,124,37,-101,-71,-20,-41,-20,-5,132
89,10,8,-56,-23,24,31,37,20,152
22,-61,-9,-44,-2,39,91,87,74,249
175,-6,35,-53,-21,16,18,27,9,281
163,-19,51,-11,6,11,-3,-7,-44,196
-61,-84,28,7,39,4,8,19,13,51
-284,-98,13,31,62,78,91,116,117,-282
-220,-63,-14,22,51,59,66,69,47,-231
-104,-19,-51,-6,13,9,23,29,20,-48
-25,25,5,-12,-8,-22,10,-3,26,34
15,85,64,11,-3,-11,18,-57,-35,-12
-20,42,40,21,15,6,30,-39,-35,-54
20,12,-16,1,2,-11,10,-32,-13,21
-23,-2,13,-20,-23,-9,21,10,66,56
-91,-39,31,13,16,29,50,27,27,-23
-76,6,57,34,52,44,52,-14,-43,-95
-67,30,54,22,61,41,53,-10,-37,-137
8,28,46,3,38,17,47,7,-10,-77
65,20,21,0,27,7,20,-19,-19,-32
4,-25,9,-13,5,9,-24,-42,-30,-18
-85,-45,-16,-25,-7,6,-18,-29,-13,27
-45,-13,-30,-32,-14,-8,9,-6,20,90
47,29,-68,-26,-30,-5,0,-6,32,68
108,46,-61,-20,-23,-1,0,5,11,15
36,35,12,17,13,15,11,-3,-20,-101
-80,1,12,23,22,29,39,11,-21,-153
-41,-16,-19,-12,4,20,47,36,3,-70
49,-21,-35,-31,-12,-13,12,7,-7,10
89,-12,-28,-20,0,-26,-10,-19,22,65
58,-14,-16,-5,26,22,13,-25,15,87
15,2,12,0,10,10,-26,-53,-35,11
-13,17,39,15,13,-7,-19,-50,-42,-59
-16,7,35,38,32,22,-1,-32,-38,-23
15,10,22,35,18,15,-21,-45,-43,59
38,-26,-20,12,-9,0,-34,-13,14,170
-1,-78,-41,13,12,24,-21,24,58,164
-13,-44,-18,26,46,37,-10,23,83,120
66,12,7,30,46,18,-25,-2,67,13
90,21,-12,29,18,15,-29,10,22,-96
166,75,-40,-6,-25,-33,-68,-30,-21,-58
212,102,-26,-31,-57,-70,-78,-70,-12,-14
118,59,-39,-29,-32,-55,-23,-42,-18,-6
-163,-13,-51,-10,11,1,39,10,-18,-56
-267,-21,-42,10,43,37,46,28,-29,-96
-231,19,-16,22,44,21,18,2,-63,-94
-167,16,-29,7,23,6,9,-41,-83,-26
-125,-14,-125,2,8,3,-8,-46,-39,39
-58,-42,-122,-9,-18,-7,-37,-29,47,115
6,-33,-18,0,-8,-8,-24,-24,59,158
-1,-46,-6,7,4,-5,-17,-25,56,188
6,-39,4,40,34,-14,-22,-76,-26,154
63,-28,9,64,50,-12,23,-61,-23,159
83,-3,42,97,69,10,59,-14,8,65
89,19,54,97,27,6,11,-23,-32,-13
0,27,66,62,-10,-18,-46,-71,-98,-61
-78,17,55,15,-18,-14,-5,-39,-32,-10
-38,2,5,-25,-18,-2,45,16,45,41
18,62,-1,-27,-10,-17,39,-5,11,-18
13,102,-28,-32,-25,-26,2,-23,-1,-18
-26,93,-11,-32,-36,-22,5,-5,23,-13
-65,24,-6,-16,-10,-3,25,21,41,27
-26,-11,-25,-2,-5,23,44,43,65,96
32,-37,-32,27,21,48,54,49,66,93
-40,-65,-28,30,41,65,26,43,32,23
-29,-8,2,19,13,30,-22,-8,-7,6
63,23,-13,-12,-29,-11,-55,-20,0,120
124,41,-9,-27,-50,-23,-66,-17,2,154
105,17,22,-22,-53,-44,-78,-50,-29,110
9,10,76,33,-40,-43,-75,-65,-72,49
-74,12,96,91,-1,-15,-16,-36,-75,-154
-98,-41,37,96,22,13,22,8,-29,-245
77,10,7,58,5,-10,-60,-3,-23,2
3,-9,37,71,75,62,12,34,-49,-98
-87,-18,62,37,97,115,83,90,-7,-167
-59,-3,-24,-38,27,85,41,66,-22,-185
33,34,-46,-94,-48,-1,-24,1,-48,-163
126,45,-38,-86,-75,-48,-32,-13,-19,-66
55,0,-87,-33,-51,-38,-38,1,-11,-18
-141,-77,-49,6,2,0,-13,28,7,-12
-222,-98,-30,23,10,22,1,37,26,-19
-53,-70,-46,25,-12,10,-4,35,8,0
82,-18,-67,39,-4,9,-14,21,-13,-29
24,-18,-33,50,13,22,3,31,27,-66
-12,-80,-34,18,-2,19,26,57,74,-33
72,-87,-53,-30,-53,-15,-25,31,47,8
40,-7,-14,-20,-68,-45,-71,-41,-22,-14
-59,49,21,25,-21,-20,-56,-66,-69,-81
-6,39,48,35,2,5,-33,-49,-49,-48
29,6,20,8,-18,2,-15,-25,-14,-7
38,-2,-6,-5,-19,-11,-30,-34,-34,-17
0,-36,-23,-2,-6,-9,-21,-24,-31,-49
-15,-20,-17,-1,-22,-13,-21,-11,4,-23
35,11,-19,-3,-39,-40,-33,-31,5,14
57,19,32,30,-11,-23,-28,-60,-45,-42
70,33,58,43,12,-4,-28,-90,-95,-95
97,5,33,22,4,-6,24,-55,-53,-8
154,-34,18,17,11,-5,45,-25,-12,94
153,-48,36,37,44,0,22,-35,-35,101
124,-37,47,34,39,-11,28,-26,-14,110
84,-35,31,16,17,-17,34,6,45,158
-82,-75,-23,0,24,-3,62,16,49,77
-170,-89,-117,-4,20,-2,63,4,8,0
-155,-68,-35,13,20,2,54,-6,-9,-66
-72,-64,-17,11,24,21,48,4,6,-155
-13,-30,-78,7,17,13,15,14,7,-154
-45,3,-10,19,13,0,-22,4,-23,-84
-75,1,10,9,16,1,-27,5,7,26
6,22,6,-5,11,-9,-36,-8,34,99
55,2,-11,-35,-11,-21,-11,-9,10,115
52,-25,-17,-42,-29,-2,11,-12,-7,86
143,-8,-31,-37,-39,-13,0,-22,-23,19
142,-8,-20,4,-2,11,16,1,-37,-59
139,0,0,-6,-14,12,-2,38,19,8
232,30,15,-20,-29,-24,-45,6,21,118
176,19,62,16,13,-32,-58,-50,-19,89
8,-23,47,35,33,0,-48,-33,-2,9
-163,-60,13,19,42,44,1,34,35,-132
-175,-42,22,-3,34,48,19,72,57,-168
-102,-21,43,-21,8,22,-2,62,32,-89
-74,-25,55,-27,-6,34,-11,40,0,-41
-9,15,12,-34,-18,39,-17,1,-44,-19
66,61,30,-37,-44,25,-41,-44,-69,23
105,39,29,-52,-57,17,-50,-58,-71,67
178,73,11,-79,-90,-36,-79,-93,-69,139
219,97,20,-86,-110,-64,-75,-96,-50,193
231,77,51,-38,-77,-47,-30,-43,20,210
270,85,68,3,-51,-46,-36,-37,35,192
40,8,41,6,-28,8,20,49,103,120
-201,-60,38,34,51,85,77,114,79,-88
-221,-68,10,26,57,76,59,71,-20,-228
-253,-92,-19,11,51,52,39,48,-50,-263
-230,-78,-7,-8,32,22,14,39,-27,-231
-162,-8,11,-23,-16,-19,-22,-5,-22,-115
-203,17,14,2,-2,-12,12,-6,-14,-95
-172,-7,15,11,27,12,59,22,-40,-115
-75,11,40,24,42,25,59,47,-33,-75
-55,-1,59,49,48,42,51,62,-18,-82
-70,-24,58,45,43,50,28,49,-7,-70
-57,23,52,28,37,44,10,31,44,-12
-27,58,45,21,25,21,-13,15,56,53
73,110,31,21,-12,6,-13,8,15,90
152,133,13,-5,-22,-4,21,6,9,87
81,92,-39,-33,-22,-21,29,-1,-2,10
5,52,-79,-52,-45,-33,-25,-18,-6,-29
96,-18,-29,23,0,-24,-48,-42,-66,-37
60,12,26,4,-18,-42,-71,-71,-126,-110
-11,-39,0,-10,-8,-31,-32,-35,-67,-32
-94,-102,-31,14,24,22,34,26,0,-9
-99,-102,-24,9,28,26,38,40,27,15
-81,-57,-9,31,36,19,25,17,4,4
-48,-8,-10,37,4,-36,-22,-38,-26,2
45,14,-29,0,-60,-86,-68,-31,36,84
139,49,-8,3,-56,-76,-65,-39,35,160
187,71,1,0,-40,-62,-54,-47,3,229
126,31,-38,-39,-55,-48,-32,-30,-2,174
-94,-49,-86,-79,-49,7,28,29,13,4
-186,-75,-139,-95,-39,4,12,25,8,-100
-78,-33,-167,-69,-37,-22,-23,-10,16,-53
81,9,-107,-13,-20,-8,-11,-9,26,-14
40,27,-69,30,29,58,59,49,31,-60
-69,22,-32,40,45,80,90,88,26,-115
9,42,3,4,-3,34,50,49,3,-77
-72,28,-10,-26,-23,-10,60,8,6,-69
-73,2,-97,30,17,22,62,7,-7,1
15,16,-56,64,30,19,24,-22,-39,29
53,30,6,53,9,-24,-20,-78,-64,16
82,37,1,34,-1,-28,-31,-81,-34,13
12,11,12,32,4,18,13,-20,28,-17
-3,0,-13,0,-20,12,21,0,26,48
256,80,-40,-59,-76,-46,-51,-48,-5,175
418,119,-45,-83,-103,-70,-68,-50,13,244
208,36,-28,-32,-52,-25,-20,-32,13,188
-56,-11,-4,34,33,44,15,-2,-11,-9
-187,-27,7,60,68,67,28,32,-5,-208
-291,-56,19,90,102,96,70,70,8,-288
-258,-90,-2,73,94,90,73,94,56,-133
-120,-61,9,40,57,41,1,59,50,15
10,1,54,47,62,26,-23,35,9,15
68,-3,57,53,63,44,8,61,6,32
64,9,18,29,41,35,29,54,2,-8
47,18,-110,0,8,2,10,13,-20,-60
-68,5,-80,-11,2,-9,0,-1,-46,-84
-165,6,13,-24,-3,-17,-6,13,-25,-85
-208,-7,10,-14,15,14,16,32,37,-69
-283,-44,-88,-2,44,44,40,46,64,-76
-186,-24,-82,0,16,23,15,29,32,-48
-28,-9,-29,-16,1,23,25,41,31,25
69,-16,35,1,22,29,22,54,40,54
61,-56,16,-4,30,21,11,58,56,78
77,-38,0,-12,22,0,-5,29,51,80
142,11,34,15,19,-22,11,18,15,43
173,14,43,13,3,-31,27,-4,0,49
127,-10,23,-4,-9,-27,-2,-23,7,55
57,-12,30,3,-8,-21,-14,-25,23,33
-9,-27,30,-4,-11,-19,-8,-25,17,5
-56,-32,37,0,5,1,33,15,22,-3
-70,0,49,7,20,24,78,42,43,0
47,29,57,22,15,7,57,20,10,30
221,74,36,-17,-26,-52,-7,-28,0,135
225,71,17,-38,-47,-77,-70,-53,-8,190
70,30,21,-12,-19,-57,-76,-59,-30,162
59,35,38,-7,-18,-70,-112,-114,-69,122
84,73,47,-8,-21,-90,-131,-127,-80,79
37,46,20,-24,-26,-61,-72,-54,-10,64
-55,8,-64,-24,-10,0,-2,8,0,-57
-72,14,-69,4,5,26,42,38,-1,-109
100,95,45,5,-20,2,-6,-20,-72,-95
212,113,74,10,-26,-10,-33,-61,-123,-64
76,7,45,24,25,26,-4,-31,-65,-62
-13,-63,-55,13,27,24,20,36,54,51
-67,-95,-40,-13,4,42,51,119,198,224
-103,-67,14,-5,10,40,46,114,183,193
10,0,45,-14,-15,-6,-17,13,71,113
34,16,38,-15,-18,-3,-29,-6,14,35
-43,-11,25,-4,-3,18,-7,12,-9,-101
-118,-18,3,-17,1,10,26,40,33,-142
-110,-27,13,-10,18,20,27,47,43,-98
-116,20,-51,-16,35,27,26,38,41,-97
-76,51,-85,-30,21,13,-10,-9,-38,-142
-37,70,30,-2,19,18,-15,-37,-84,-176
41,94,45,-6,-8,-5,-10,-56,-70,-74
104,78,18,-25,-34,-23,-8,-50,-23,77
186,96,50,-20,-23,6,-3,-54,-38,102
298,126,63,-9,-35,3,-19,-67,-66,106
190,102,54,2,-7,8,-28,-76,-96,-6
-5,54,38,17,25,29,1,-51,-91,-105
-94,-6,2,39,33,29,46,-4,-41,-84
-217,-53,48,47,32,39,5,6,33,-66
-160,-36,25,24,10,31,0,30,64,-29
-52,-20,28,9,5,24,-14,16,27,-25
21,-5,21,-29,-5,3,-29,5,44,-1
27,-35,-39,-72,-11,11,0,21,82,48
145,14,-75,-105,-38,-17,4,-16,47,128
246,88,-40,-107,-69,-64,-60,-67,18,213
161,124,-40,-62,-60,-63,-114,-117,-42,174
22,91,-11,0,-22,-36,-94,-110,-77,107
-38,59,-16,19,-4,0,-53,-72,-48,47
-98,55,-42,30,39,59,24,-15,27,-82
-132,25,32,22,46,83,71,41,82,-101
-119,-22,43,0,26,73,84,73,71,-87
-20,-24,9,-25,-6,40,80,63,87,-43
4,-30,21,-1,17,44,90,47,43,18
-51,-15,54,7,21,22,70,16,20,89
-57,22,72,11,11,4,29,-10,10,91
-34,16,71,25,23,34,36,11,-12,-14
-47,-11,50,17,38,53,66,49,3,-221
-118,2,55,23,51,41,39,46,-12,-332
-196,-14,29,25,57,46,46,41,-9,-253
-138,-57,-101,21,54,41,43,32,4,-121
-51,-63,-181,17,55,42,39,33,16,-39
-66,-49,-95,30,60,62,44,37,26,-42
-87,-13,-20,56,63,79,58,28,0,-75
-44,19,8,42,37,50,55,-1,-20,-40
34,45,33,23,8,-11,12,-32,-22,41
113,87,65,1,-41,-57,-49,-48,-23,87
138,67,56,-2,-52,-53,-66,-40,-3,102
-6,-19,-95,25,4,-7,-26,13,28,134
36,-15,-38,2,-4,-1,-33,-2,0,129
56,-3,17,-32,-32,-12,-45,-19,-8,119
61,21,-76,-79,-91,-19,-41,-29,23,127
144,77,-70,-122,-130,-28,-37,-34,15,73
110,90,35,-33,-52,-2,-22,-34,-46,-69
-58,-5,31,49,20,34,19,10,-21,-109
-62,1,53,71,48,22,-7,10,-24,-66
75,55,39,42,14,-4,-46,-15,-20,49
149,53,27,13,-32,-17,-41,-22,10,117
119,36,33,22,-16,-11,-21,-35,-13,48
21,20,22,22,-11,-26,-38,-37,-34,-76
-111,37,24,52,17,0,-9,-15,-24,-145
-134,95,25,107,51,13,31,-23,-55,-129
-103,67,63,77,49,14,17,-8,-40,-95
1,78,65,38,4,-28,-43,-25,-27,-63
67,80,47,19,-8,-25,-47,-25,-23,-55
-5,7,-77,-23,-13,-20,-29,10,-2,-25
-11,-64,-169,-49,-21,-8,4,36,25,49
39,-93,-162,-37,-11,15,33,29,27,152
74,-62,-125,-66,-29,9,-2,-16,16,217
75,-31,-23,-88,-40,-23,-57,-39,0,179
19,-36,12,-41,-29,-26,-47,-47,-34,16
-34,-30,31,-2,1,20,13,-14,-28,-71
24,-8,51,-7,26,47,49,65,56,5
91,13,78,25,58,72,59,65,27,37
51,16,78,36,69,55,41,36,-1,15
-91,-34,41,6,34,28,33,65,52,3
-86,-8,-10,-17,-19,-15,-2,40,65,12
-35,54,-30,-23,-23,-39,-41,-2,13,-23
-40,55,9,-2,2,-14,-27,0,-38,-74
-4,27,-47,7,13,-7,4,39,-24,-54
-6,-1,-3,0,16,0,28,61,0,-13
15,-13,42,22,43,20,48,39,-35,-34
117,44,37,33,11,-24,13,-7,-65,-1
0,28,17,15,-7,-30,2,-22,-23,19
-149,-13,29,26,2,2,44,4,40,-15
-54,1,14,13,-3,-5,31,5,14,-35
89,37,10,-11,-37,-36,-5,-2,-16,-4
32,20,21,-19,-46,-52,-8,2,-3,13
-117,-30,31,36,0,-31,5,4,-19,-1
-52,-13,38,44,2,-38,-2,2,2,83
70,27,30,5,-27,-54,-27,-21,3,150
68,53,27,11,-27,-59,-49,-57,-40,92
-70,36,22,20,3,-16,-43,-33,-28,-19
-172,-10,14,6,49,55,22,41,10,-26
-137,-38,11,-29,47,78,58,86,60,24
-82,-44,-41,-73,9,41,41,71,64,61
-8,-26,-41,-68,-38,-15,-28,20,42,116
30,-16,-21,-51,-61,-38,-70,-20,-8,111
-68,-22,10,12,-7,15,-33,-28,-59,-14
31,-20,2,6,4,30,3,-8,-63,-30
164,-18,-81,-36,-16,5,-2,-21,-43,-43
186,23,-142,-27,0,-20,-34,-59,-66,-116
101,-9,-49,0,14,-12,-47,-42,-61,-65
22,-52,-13,19,26,12,-16,2,9,57
-40,-14,22,77,49,20,13,13,15,21
-25,40,78,80,20,-11,3,-11,-17,-60
31,63,108,35,-22,-39,-41,-28,-6,-63
17,71,70,39,-8,-21,-37,-12,11,-57
-63,34,16,33,15,8,-16,13,-2,-66
-61,44,-51,15,9,21,-14,2,-18,-65
-67,93,-113,5,-19,3,-31,-12,-16,-50
-85,69,-79,6,-16,2,-19,-3,-2,-23
0,68,13,-2,-28,-5,-11,-19,-7,7
13,52,36,-7,-14,6,13,-29,2,24
-110,-24,14,-16,-13,14,30,-12,25,-7
-158,-114,-25,-38,-25,4,34,3,47,-10
-87,-115,-66,-5,-5,16,17,-10,6,15
-16,-60,-63,1,-16,9,-21,-29,-36,15
1,-23,30,-7,-29,0,-33,-29,-33,12
42,-3,60,0,-29,9,-19,-15,1,97
91,18,64,4,-36,5,-12,8,37,160
61,22,65,21,-20,19,0,30,29,123
8,-5,45,24,-13,20,4,28,-27,71
-10,2,28,5,-36,-3,-17,19,-18,65
-50,-5,3,-21,-20,-4,-3,31,46,13
-87,15,-29,26,29,31,45,43,18,-88
-108,64,-98,18,24,13,40,38,12,-153
-78,110,-37,-8,-8,-27,28,17,23,-141
0,142,49,-35,-62,-69,-15,-37,-6,-79
35,119,54,-42,-62,-88,-55,-82,-64,-97
22,109,85,-5,0,-51,-20,-60,-17,-111
-20,49,92,22,25,-12,21,-19,25,-63
-13,-72,21,16,31,24,53,13,8,-21
46,-187,-131,13,54,66,89,53,33,26
66,-193,-160,-6,46,70,73,55,59,40
33,-117,-51,-30,7,23,24,38,48,62
-12,-108,-33,-56,-18,13,9,34,50,106
24,-93,-14,-50,-14,18,-11,25,36,117
115,5,54,-2,4,-2,-41,-5,-50,39
164,67,66,3,1,-29,-46,-29,-81,-10
197,76,3,-32,-39,-67,-83,-25,47,180
-17,7,8,2,13,2,-13,32,107,178
-49,34,45,32,40,22,-18,27,71,110
82,60,62,36,37,-2,-33,26,27,37
52,43,69,53,64,17,-9,20,-21,-81
-223,-28,48,63,79,57,51,56,-43,-198
-158,-24,37,54,62,51,41,32,-46,-163
-93,-7,17,25,32,36,28,44,0,-89
-96,-28,3,15,1,20,26,53,11,-83
-81,-54,-23,5,-9,24,32,36,-1,-48
-25,-30,4,8,0,28,39,3,-30,-19
19,4,19,10,1,28,38,7,-27,12
27,-6,-5,-1,-15,16,18,25,4,56
25,9,-21,-6,-23,-3,-2,2,-8,51
-11,16,-73,-7,-24,-1,-4,-15,-24,23
3,3,-22,-9,-25,-4,-4,-19,-18,110
39,18,28,0,-27,-22,-20,-36,-11,198
17,0,12,11,-5,-15,-10,-38,2,173
58,7,1,0,1,-8,0,-34,1,147
55,34,38,12,-2,-26,-37,-44,-25,82
-100,16,46,25,21,-5,-20,-21,-36,-42
-77,12,5,-23,-24,-4,-3,-14,-18,-85
0,51,24,-10,-23,-14,-12,-43,-49,-105
42,47,17,-12,-13,7,36,-10,-44,-108
-18,-9,-52,-21,6,34,62,17,-14,-69
-109,-25,-39,-3,34,42,58,-4,-36,-81
-29,42,41,23,35,11,30,-24,-37,-28
94,69,36,32,10,-22,6,2,12,104
156,73,-38,21,-17,-40,-27,-8,19,155
24,45,-16,26,13,-18,-25,-13,7,112
-214,5,-41,38,45,20,3,-5,-4,-64
-220,8,-19,10,33,12,-7,5,4,-187
-72,83,9,-54,-13,-20,-27,21,10,-189
1,139,2,-116,-63,-45,-13,6,7,-129
5,105,13,-106,-66,-46,14,-21,-2,-88
-10,51,36,-28,-24,-24,22,-11,-9,-36
13,29,35,1,7,8,10,17,18,37
39,25,66,16,17,20,17,15,29,32
51,-24,10,41,30,26,1,6,0,13
-18,-58,-16,33,25,28,19,29,24,-2
-94,-92,25,27,35,44,57,64,66,-6
-4,-72,5,-3,6,14,25,43,32,38
103,-14,16,-1,-31,-21,-26,-2,15,83
70,-13,18,-12,-46,-18,-20,-26,-15,27
67,-17,14,-25,-57,-19,-10,-31,-33,32
67,-87,-8,-18,-28,7,2,-4,-10,81
80,-67,-35,-18,-34,1,-11,-8,-16,90
126,-4,-41,-46,-72,-37,-25,-6,10,136
135,8,-29,-53,-69,-52,-6,0,61,193
68,-8,-35,-47,-64,-29,17,11,72,179
-66,-36,-14,-4,-10,24,50,17,35,92
-16,-16,5,7,23,19,41,-1,-13,11
87,-11,-33,-9,15,-4,-7,-25,-25,4
-27,-84,-57,-6,33,27,18,26,-8,-44
-159,-113,-60,29,65,54,57,56,1,-103
-154,-106,-35,63,64,39,46,56,0,-129
-104,-111,0,48,16,4,12,30,-12,-130
-30,-89,-16,-5,-43,-20,-8,17,-8,-58
55,-28,-7,-6,-51,-28,-35,-9,-21,51
46,10,18,28,-11,-2,-25,-27,-29,40
-44,16,-4,60,29,47,17,-8,-33,-83
-37,24,49,72,35,43,32,9,12,-87
-73,18,29,58,40,41,43,48,84,-51
-56,17,-82,39,11,10,29,47,85,-67
34,13,-118,15,-16,-6,12,14,36,-20
-49,-30,-18,3,5,-4,-6,-4,33,84
-128,-21,7,24,13,-4,-8,-17,42,163
-9,36,-6,3,-16,-28,-26,-39,31,181
103,69,2,-14,-24,-40,-37,-71,-55,74
14,34,14,-8,3,8,14,-36,-90,-153
-41,-1,25,2,33,39,47,-10,-71,-241
-24,-11,12,-8,29,18,45,-12,-37,-128
3,-8,7,-2,26,23,47,0,-7,-16
0,5,13,15,37,31,57,35,29,-35
28,21,-3,-14,-21,-25,41,54,87,17
0,28,-42,14,-3,-24,32,59,83,-8
-17,16,-73,42,18,-12,14,51,42,-54
-22,-8,-11,32,20,-13,-18,42,31,-28
35,24,15,29,9,-35,-73,-8,7,38
144,88,28,6,-19,-73,-136,-78,-66,69
173,111,12,-25,-45,-62,-108,-60,-77,20
83,107,21,-10,-24,-36,-38,-9,-70,-96
-24,99,47,20,-13,-28,-12,11,-73,-138
-123,67,67,39,22,-1,4,10,-49,-137
-154,29,38,33,24,6,2,-14,-66,-123
-48,10,-37,11,-9,-17,-27,-27,-47,-61
101,42,1,-6,-37,-53,-45,-20,31,18
207,88,41,-8,-45,-74,-60,-54,-29,26
149,13,-15,-3,-13,-1,6,6,-15,51
-34,-47,-26,15,33,69,85,61,5,17
-144,-11,30,28,37,56,68,44,7,-40
-108,-33,-3,2,2,20,26,36,36,4
20,-49,-32,-30,-20,-8,10,28,54,91
42,-30,-32,-48,-25,-24,-6,18,36,96
15,-15,-23,-53,-10,-11,17,37,47,75
-20,17,12,-35,18,-2,37,40,100,42
-2,50,-31,-9,27,-1,31,26,58,-5
32,74,-38,-15,14,-8,11,0,-18,-6
-64,55,32,-32,-9,12,18,46,35,-7
-11,36,29,-22,10,25,33,70,12,3
72,44,11,-32,5,10,25,56,14,18
189,64,-9,-52,-23,-9,-1,31,21,56
263,46,15,-75,-37,-18,-7,13,1,82
145,-6,-22,-87,-46,-49,-29,-15,-27,67
-26,-37,-20,-75,-30,-43,-31,-35,-46,88
-116,-21,24,4,21,3,-3,-20,-48,138
-144,-26,14,26,27,4,-21,-15,-45,148
-53,-50,-58,-4,-2,-27,-61,-3,-15,132
30,-17,-52,-20,-25,-53,-66,14,-7,-32
16,28,-16,-8,-24,-37,-49,18,-38,-242
25,45,11,-2,-12,-12,-37,9,-34,-207
52,47,40,7,-7,-35,-51,-29,-36,-109
-143,-21,22,10,27,9,-8,6,4,-75
-370,-97,22,52,56,70,67,85,76,-59
-268,-60,30,62,45,68,69,97,86,-33
-84,-19,-18,29,13,29,21,54,34,-27
-35,24,-3,19,6,6,-17,8,-33,-89
41,34,-7,-4,12,6,-31,-3,-27,-74
81,9,-27,-34,4,7,-40,6,-8,-14
32,-24,-53,-65,-15,10,-10,30,23,4
-40,-39,-50,-40,3,14,19,39,16,-7
-95,-15,19,32,36,13,14,7,-33,-67
-72,2,91,57,35,6,-14,-10,-40,-93
80,27,109,40,-5,-31,-61,-48,-25,46
192,20,69,20,-27,-57,-52,-43,-7,188
197,12,9,-41,-61,-58,-30,-22,10,303
252,25,-4,-85,-76,-57,-23,-38,-5,378
320,9,18,-92,-57,-25,13,-8,16,445
237,-5,-38,-122,-60,1,67,55,69,384
-72,-31,-79,-104,-51,19,86,59,47,7
-339,-27,-25,-16,10,38,86,50,9,-444
-283,12,28,58,67,39,62,24,-8,-417
-81,40,14,79,68,18,38,-5,-8,-155
39,45,-22,80,59,18,32,-16,-21,-31
57,43,33,62,40,16,11,-13,-26,-79
34,35,3,45,28,5,-22,-18,-40,-114
3,-21,-98,29,28,25,-8,13,-21,-118
-15,-54,-32,19,53,34,5,-11,-36,-115
-3,-1,3,32,47,18,2,-33,-32,-79
0,18,0,39,53,42,47,-4,33,9
41,21,15,19,14,13,36,-17,27,88
145,76,29,-46,-76,-67,-45,-92,-53,112
219,122,36,-51,-87,-82,-91,-132,-107,91
85,96,43,3,-18,-8,-27,-85,-104,-36
-99,24,-56,26,44,73,53,29,-29,-107
-154,-44,-126,10,55,88,94,101,63,-26
-151,-43,-37,-7,22,56,84,88,68,17
-61,-1,11,-15,0,16,44,53,26,7
194,-10,7,-45,-47,-40,-27,-8,27,210
142,8,33,-31,-38,-25,-48,-27,0,154
5,29,55,-16,-20,-11,-65,-27,-15,36
-154,5,54,14,6,29,-7,10,23,-90
-179,-5,70,41,41,60,34,44,20,-197
-87,-17,44,31,21,27,8,45,-2,-167
-71,-59,-16,22,18,24,40,41,-12,-106
-16,-31,-10,11,2,17,49,24,-7,-84
87,6,4,-3,-27,2,33,16,15,3
121,34,33,-15,-65,-35,-15,-10,2,50
42,43,34,-10,-54,-42,-50,-34,-16,15
0,25,4,-16,-40,-39,-29,-35,-9,12
-36,17,6,-2,-16,-22,-20,-27,-18,-14
-18,17,9,-8,-10,-23,-29,12,26,73
-32,-2,14,-12,5,-21,-3,35,58,93
-90,4,7,1,25,5,11,42,48,21
-40,-6,-31,7,24,20,14,50,63,16
60,14,22,22,32,7,3,23,14,-29
126,50,53,46,4,-26,-32,-20,-29,-25
135,19,6,22,-24,-44,-43,-43,-23,46
72,-11,-64,24,-12,-32,-15,-44,-14,107
-41,-15,-57,54,22,-12,1,-47,-5,97
-61,-11,20,51,44,4,-5,-15,19,86
3,6,16,0,27,-4,-24,13,56,99
-8,-25,-18,-53,-11,-14,-18,2,50,28
-52,-48,-21,-20,-6,4,0,-17,-15,-85
-25,-53,-4,4,-2,10,1,4,3,-50
-16,-32,-1,14,-1,2,1,9,25,-39
-45,2,15,10,2,10,9,24,4,-98
-47,15,-23,-2,-3,-7,0,32,-12,-191
2,60,-8,-8,-13,-32,-36,-9,-42,-200
25,30,31,-9,-16,-20,-37,-25,-50,-144
68,34,22,-5,-12,-20,-28,-38,-21,-42
37,34,42,3,13,0,-1,-13,8,0
-33,-13,43,30,41,24,38,41,31,36
-87,-19,46,55,67,29,42,47,34,6
-102,-23,11,40,43,21,38,26,16,-54
-30,-1,7,17,27,11,23,-22,-26,-64
23,0,8,0,6,6,11,-21,-11,-34
90,-9,-5,-35,-24,-11,-21,-4,14,34
90,10,8,-27,-25,-35,-58,-27,-1,58
29,17,22,-24,-16,-40,-66,-46,7,62
39,59,41,-10,-12,-38,-70,-53,7,52
43,38,22,-12,-5,-27,-11,-17,38,86
-41,22,2,8,19,-17,38,-15,12,50
-62,36,39,5,12,-17,29,-30,0,15
-22,18,16,-9,-16,-24,10,-42,-8,18
25,11,-10,-23,-19,-22,7,-30,-2,39
120,25,-5,-27,-27,-39,4,-19,19,113
152,27,-6,-25,-19,-24,3,-33,30,103
83,40,-74,-5,-9,-12,6,-38,9,27
77,30,-95,-16,-20,-34,-14,-27,-17,37
47,47,11,5,7,-14,-13,-17,-47,-30
-39,-10,3,-4,3,1,2,0,-20,-38
-106,-92,-12,-11,13,35,14,24,-1,18
-99,-56,25,17,35,30,0,5,5,-12
-69,-51,10,2,23,22,-2,8,43,-20
-58,-95,-14,-16,21,9,-4,10,30,16
-135,-141,-34,-22,13,7,0,31,56,60
-90,-73,-20,-20,-13,-17,-38,-20,5,52
25,52,0,-23,-46,-64,-87,-89,-85,2
50,94,7,-24,-42,-71,-60,-79,-110,-41
0,57,0,-6,0,-19,0,-23,-66,-46
-26,10,-5,3,10,16,15,13,-3,-35
30,-6,-17,-2,-2,5,33,23,36,-6
67,-4,-32,-14,-26,-28,24,-7,-17,-2
48,-39,-39,-24,-42,-51,24,-3,-4,72
20,-76,-44,-6,-25,-59,11,7,49,150
35,-30,-7,36,17,-29,1,-12,-4,58
34,20,-6,74,49,6,10,-32,-16,-30
30,4,41,49,16,0,16,0,59,79
113,0,35,32,19,16,20,-4,46,74
161,11,20,11,-1,10,-13,-26,34,54
131,31,14,2,-6,-20,-25,-51,0,7
36,8,-32,-9,-28,-23,-16,-46,-13,36
-57,-11,-104,-38,-49,-11,-7,-32,11,95
-115,-22,-81,-31,-39,24,31,11,44,69
11,16,-16,-25,-39,14,5,15,19,3
71,46,-4,-25,-40,-8,-7,2,10,-36
-21,28,-4,1,-9,15,14,-2,-21,-91
-53,14,-82,-48,-27,-22,-50,-25,11,132
70,24,-43,-48,-66,-69,-88,-47,12,200
71,23,-27,0,-37,-46,-73,-45,-13,65
80,-40,-22,35,0,5,-16,19,50,20
70,-73,13,53,20,34,57,59,112,-7
-25,-53,61,39,41,45,72,30,73,-116
-151,-75,38,12,25,61,68,30,-5,-148
-319,-112,0,5,14,85,92,71,-2,-144
-285,-76,13,17,6,93,92,84,13,-137
-100,-22,9,-14,-46,40,74,64,1,-115
47,3,3,-38,-90,-5,32,36,24,-51
63,42,3,-9,-23,22,-25,-5,-3,24
78,77,30,21,14,7,-33,-45,-28,28
-42,19,11,44,57,36,13,-25,-52,-9
-104,-43,-7,45,74,47,2,-25,-67,-22
-81,-34,4,19,33,14,-33,-27,-36,3
-12,-3,35,-6,-16,-19,-47,-20,-13,23
76,46,85,1,-20,-33,-61,-51,-52,83
107,42,86,8,-22,-4,-48,-44,-46,122
4,-25,26,-2,-15,40,0,4,3,-31
-49,-6,50,47,8,47,20,5,-53,-254
2,37,94,74,33,40,24,0,-48,-237
135,35,80,47,19,20,2,-9,-12,-109
387,56,55,0,-34,-34,-59,-44,4,63
374,34,33,-41,-47,-43,-62,-44,7,97
27,9,11,-43,-19,-1,-23,-26,-31,-19
-212,-21,9,-35,6,51,57,22,-39,-151
-133,-20,14,-15,25,70,106,35,-53,-151
-81,-40,-40,24,53,77,89,61,-10,-51
-50,-23,-155,0,10,24,30,52,21,21
-17,20,-88,13,-2,-17,-28,-11,-1,44
-112,26,-18,65,50,11,-14,-24,-1,-22
-182,15,40,73,59,54,42,20,32,-63
-125,8,-26,15,17,47,55,30,21,-35
-45,15,-52,-89,-49,19,43,-1,-8,-10
4,28,-40,-164,-101,-16,10,-11,-19,18
17,8,-123,-113,-74,-18,-9,-11,8,24
-46,-44,-74,-27,-27,11,14,-29,-20,-38
-66,-33,52,5,-15,-3,21,-64,-47,-5
20,-16,62,-5,-34,-13,15,-75,-32,75
39,-16,50,-2,-6,31,26,-43,-46,22
-41,-48,11,17,29,69,58,22,-13,-22
-58,-47,-35,9,11,49,43,31,19,-26
15,0,14,-2,-14,30,12,19,44,54
43,-2,21,-8,-7,37,4,38,58,78
-46,-13,29,-6,2,43,0,26,32,-8
-104,-3,46,1,-3,36,-1,25,49,-15
-108,19,37,-17,-11,27,-5,37,59,0
-38,39,4,-43,-32,8,-27,19,51,112
32,40,4,-51,-39,-4,-43,-6,29,195
90,40,4,-35,-39,-16,-55,-43,-7,167
141,47,23,-14,-16,-26,-61,-73,-46,72
142,55,57,12,25,-11,-31,-32,-35,-31
-85,-76,21,16,37,42,40,57,2,-178
-69,-62,0,-6,-2,1,5,42,13,-127
45,2,0,-15,-31,-30,-41,-1,-18,-24
123,41,7,-19,-33,-45,-36,-10,-20,52
215,73,43,3,-15,-48,-27,-32,-46,82
147,43,54,32,35,2,34,4,-36,14
-3,11,34,22,36,16,63,43,36,5
-40,21,10,3,4,2,40,35,44,-2
-26,35,6,7,-12,-19,15,-2,-19,-14
17,53,7,5,-19,-25,-9,-34,-46,-30
101,-9,-41,-42,-42,-12,5,-7,-5,28
52,-31,-52,-50,-31,-11,-6,0,-5,5
67,4,-33,-29,-36,-42,-67,-41,-48,29
56,40,12,6,-22,-38,-64,-44,-17,80
-112,32,46,42,30,9,4,-6,58,24
-140,-4,33,46,27,1,0,6,55,18
-7,-19,6,30,3,-8,-2,16,40,38
-37,-52,12,46,38,34,59,67,49,-14
-49,-74,-31,88,77,33,43,36,12,59
18,-16,21,59,44,1,0,-14,-1,92
70,47,-44,34,22,-29,-44,-55,-45,50
95,59,-86,-6,-23,-47,-63,-53,-32,44
26,32,-11,-4,-6,-3,-6,24,27,-5
15,5,-15,-12,19,22,40,74,71,19
21,45,-14,-14,29,19,37,39,36,25
49,49,-24,-6,13,4,34,20,23,52
24,41,-25,3,10,-19,15,12,1,36
-74,44,3,10,-36,-61,-35,-27,-48,-48
-164,19,36,4,-33,-67,-54,-60,-90,-112
-168,7,40,8,9,-30,-25,-28,-71,-143
-62,12,13,-18,-9,-45,-35,-17,-17,-118
10,0,8,-5,-9,-54,-34,-23,-45,-80
66,-33,8,11,-19,-50,-29,0,-24,10
156,-19,16,29,-19,-55,-34,-2,-29,35
120,16,36,67,16,-32,-37,-29,-74,-40
41,-25,22,41,21,-8,-18,2,4,-5
48,-24,-2,4,12,3,10,36,72,71
12,-2,-17,-28,8,0,12,23,45,37
-61,-13,-56,-76,-22,-22,31,21,53,-6
-49,-8,-75,-64,-18,-23,60,23,41,-34
-18,-1,-63,-39,-17,-3,54,12,38,-19
-58,0,-39,-26,-5,19,59,18,36,-20
-109,-16,-34,-6,7,23,37,24,22,-38
-37,17,-19,-12,-13,-2,-3,-9,-14,-56
95,19,-18,-13,-32,-34,10,-25,-30,-42
243,46,6,-5,-39,-51,-5,-51,-49,30
192,42,9,3,-22,-33,9,-49,-32,94
-51,-56,-58,14,17,10,51,-31,-33,59
-128,-123,-82,-2,30,21,51,-28,-24,52
-85,-84,-18,-20,-6,-21,7,-42,13,49
-46,-20,11,-26,-33,-62,-31,-63,8,3
-32,-47,-2,-29,-31,-50,-15,-11,50,-38
-27,-49,-9,-19,-9,-2,31,66,81,-54
84,35,17,-15,-4,-4,-4,58,47,-40
205,71,15,-23,-10,-23,-37,26,45,29
132,71,23,-5,14,-22,-66,-31,-8,43
-44,0,-16,0,27,-5,-55,-34,5,75
-80,-43,-42,-15,23,14,-15,20,80,89
31,1,-61,-24,3,-14,-28,26,86,75
86,22,-117,-34,-26,-29,-50,13,78,71
-24,31,-24,-26,8,9,-20,15,52,20
-66,27,23,-19,29,20,-1,6,-19,15
-54,0,46,0,38,15,-5,-9,-37,22
-19,-14,53,14,33,6,-16,-19,-37,0
0,-27,33,21,19,5,-21,-23,-46,-38
31,-33,10,8,8,17,-17,-21,-45,-60
36,-29,-61,2,-12,6,-13,-27,-34,-27
11,-33,-20,1,-17,-10,16,-23,-27,99
-47,-53,14,5,9,19,42,-2,-29,128
48,-31,-9,-39,-14,1,12,-13,-9,119
128,15,-6,-64,-35,-13,-12,-31,-9,40
49,61,56,-6,34,36,32,-7,-33,-80
-3,82,88,48,71,44,23,-25,-50,-77
17,80,42,47,37,11,-27,-27,-31,10
-66,33,45,29,37,26,-21,30,23,-3
-155,17,-17,10,26,22,-17,31,8,-96
-91,65,45,13,22,0,-33,-4,-49,-140
-79,58,98,14,5,1,-12,18,-58,-141
-157,-7,52,13,26,33,19,53,-16,-168
-131,-42,44,14,47,42,7,37,-14,-113
-72,-42,51,36,55,46,13,30,-17,-33
-31,-38,51,38,34,26,39,29,1,30
24,-41,28,-1,-8,-12,32,33,40,124
110,-8,34,-22,-27,-46,2,-22,16,153
115,23,36,-10,-37,-28,-6,-56,-45,38
-6,0,-7,-13,-42,-13,19,-5,-12,-32
-11,-21,-17,-21,-71,-28,21,24,16,-3
121,21,-9,-15,-71,-51,-28,-22,-18,57
99,1,-3,9,-30,-40,-37,-42,-25,45
-22,5,26,39,13,-12,-9,-16,-34,-29
-64,40,17,15,12,-5,26,15,-5,-63
-14,43,-21,-12,-18,-9,12,39,20,-25
149,90,-25,-36,-50,-41,-66,3,-2,84
238,121,-1,-61,-75,-69,-104,-43,-41,174
104,75,10,-29,-57,-37,-96,-42,-56,144
-27,9,17,3,-19,-6,-58,-26,-66,11
-75,-48,-7,-6,-23,0,-37,0,-37,-92
-144,-83,-5,10,-4,41,5,42,7,-184
-180,-118,-1,27,20,79,42,86,59,-147
-120,-91,6,41,33,71,40,75,43,-66
-43,-36,-1,45,33,41,2,29,4,-54
-93,-34,-110,34,33,28,25,14,12,-27
-108,-9,-20,28,18,-1,-12,-19,28,5
-75,40,0,21,19,-16,-44,-30,-4,2
-42,45,-53,7,18,-6,-28,-6,5,-7
12,44,-88,26,13,-1,-20,-16,-10,-1
171,58,-41,2,-15,-36,-68,-64,-32,63
237,56,-33,-12,-12,-33,-62,-53,1,68
55,36,-27,0,15,-1,9,2,2,-6
-93,18,-40,20,40,19,53,29,18,-43
-114,-14,-102,58,52,32,84,54,34,-42
-85,-5,10,68,30,18,62,58,53,-25
-83,-9,88,69,6,-20,24,25,18,-50
-9,4,11,56,-15,-68,-16,-16,-5,-69
70,49,14,43,-3,-61,-50,-59,-22,-91
68,40,52,27,17,-12,-36,-69,-73,-101
2,2,26,-4,37,29,14,-2,-35,-31
-49,-9,-3,-36,25,30,41,38,14,17
-27,19,47,-29,18,14,22,22,2,40
22,34,90,-39,4,-5,28,4,-13,53
24,51,53,-102,-35,-16,12,-3,-24,16
-12,24,0,-92,-34,-6,13,5,-23,-61
5,19,15,-21,-16,0,4,5,-16,-47
10,2,25,7,0,21,19,41,23,41
-51,-22,9,5,22,44,26,47,30,51
-39,-13,8,-1,29,51,27,20,6,49
15,17,8,-5,24,39,-7,2,-18,59
22,51,0,-18,-18,-9,-42,-23,-29,38
-46,46,-16,-34,-23,-16,-27,-7,0,-27
-20,21,-38,-38,-19,16,8,13,7,-52
20,-30,-120,-25,-13,19,4,1,-18,-29
0,-74,-81,-1,-4,20,-9,7,-11,7
-38,-102,-46,-5,-11,20,1,42,20,72
15,-95,-34,-15,-18,20,13,51,55,85
58,-64,-12,-9,-21,26,23,48,78,53
-14,-57,19,8,2,44,41,55,67,-7
-98,-33,27,19,2,36,29,25,17,-48
24,5,20,5,1,11,49,-7,-18,-23
115,31,10,-10,-18,-30,-15,-28,-12,50
156,30,-11,-30,-36,-48,-49,-31,-1,39
218,59,-57,-53,-65,-76,-74,-44,12,67
64,1,-94,-46,-37,-41,-9,30,70,67
-158,-26,-10,37,42,30,48,53,23,-97
-143,-13,59,76,73,38,32,12,-28,-168
-66,-21,50,49,35,3,8,5,-23,-103
-69,-27,19,15,10,-1,29,12,0,-61
-52,-3,23,7,7,3,27,-7,-4,-62
-27,9,27,5,2,2,-5,-14,-17,-50
-13,-6,30,-7,-11,-12,8,8,-3,-20
34,5,27,-15,-15,-17,14,30,22,25
95,53,38,-12,-24,-27,-8,10,25,60
100,75,43,0,-10,-22,-33,-10,-16,34
76,69,27,-21,-9,-24,-42,-7,-3,68
177,76,13,-40,-23,-38,-58,-26,-11,116
253,69,8,-37,-28,-52,-56,-38,-11,158
143,34,9,-24,-1,-51,-34,-60,-28,103
149,54,0,-17,3,-58,-46,-103,-79,65
215,78,13,-6,2,-61,-71,-119,-73,52
144,34,15,13,12,-23,-51,-42,-1,20
-50,-35,-6,31,33,25,12,37,36,-7
-279,-49,1,65,70,63,92,40,34,-78
-136,-9,6,47,29,13,72,9,25,-41
-42,6,14,51,30,3,59,3,28,7
-83,-26,-8,54,27,4,60,31,50,-1
-108,-43,-33,28,4,10,41,26,23,-54
-98,-1,-23,11,-24,-9,8,1,5,-44
0,84,-20,-23,-74,-78,-51,-51,19,44
134,122,-3,-20,-61,-97,-88,-99,-33,74
204,93,10,7,-42,-64,-61,-82,-11,133
125,38,-2,40,-2,-5,-7,-24,26,141
-5,26,-51,57,45,17,26,-12,-32,87
-84,3,-93,39,53,25,67,35,19,74
-36,31,-38,8,25,4,60,49,78,92
41,89,-66,9,-19,-34,2,-1,55,62
5,45,-169,-2,-22,-14,16,12,59,-40
9,-5,-159,0,-24,3,29,0,33,-143
56,-31,-66,-20,-45,-8,6,-28,-24,-135
35,-57,-21,-22,-25,30,40,-15,-74,-168
-109,-87,-3,4,28,86,85,20,-84,-273
-201,-108,5,6,42,91,90,27,-65,-241
-165,-59,12,16,48,69,76,22,-12,-106
81,58,29,-49,-33,-27,-48,-22,19,55
10,50,38,-50,-23,-3,-46,1,38,13
-51,51,47,-1,26,36,-10,12,22,-39
-54,41,20,24,55,67,53,56,48,-69
-17,64,6,26,70,72,75,69,20,-101
48,94,9,1,29,31,20,10,-31,-80
115,91,36,-21,-11,-8,-24,-36,-39,-40
91,51,3,-18,0,-9,-26,-36,-30,-16
23,6,11,0,20,0,0,-5,14,0
-65,-35,42,5,46,31,48,33,46,-53
-54,-56,9,-14,29,23,46,37,55,-76
-9,-49,-2,-34,-3,-11,11,6,10,-52
-80,-60,0,-24,1,-31,-16,-4,-6,-66
-130,-37,35,16,24,-32,-36,-16,-23,-68
-63,0,55,10,23,-33,-55,-18,-13,-14
138,22,27,-21,-34,-81,-92,-59,-40,32
107,20,29,-4,8,-42,-40,-57,-55,36
-3,-8,0,1,46,-8,24,-18,-18,34
-2,-4,-71,-44,9,-1,29,27,62,103
24,7,-58,-94,-24,-8,25,48,135,168
152,69,-9,-72,-54,-53,-30,-3,73,141
328,124,7,-60,-85,-85,-59,-45,11,163
293,87,-14,-57,-62,-66,-50,-43,-8,209
102,26,-40,-29,-27,-31,-19,-21,-19,160
60,0,10,-10,-5,-24,1,-18,-30,85
91,0,39,7,-3,-1,-9,-3,-25,48
7,2,14,-5,-6,-14,-32,-14,-3,57
-126,-50,-12,-22,-9,-26,-21,-34,-9,132
-89,-48,-23,-35,-22,-26,-21,-43,14,236
-22,-46,-25,-30,-16,-11,-10,-22,28,282
-110,-66,-3,17,16,15,21,8,30,173
-121,-21,70,55,21,-1,-19,-16,6,10
-75,42,66,22,22,-19,-54,-32,-17,-262
-75,26,-5,5,32,10,-28,-2,-60,-396
-58,10,0,-23,19,43,-18,6,-84,-352
-56,-5,-8,-27,16,52,-9,8,-72,-253
-43,44,3,-1,22,59,15,25,-45,-174
-78,57,3,17,25,63,20,46,-43,-159
-142,55,27,39,40,64,12,31,-57,-200
-117,87,33,26,14,31,-10,3,-42,-152
-87,34,8,-2,-25,-15,-38,30,54,-41
-226,36,44,44,0,15,-3,39,72,-20
-152,2,34,45,-1,25,17,47,62,-4
-54,-27,14,32,-12,1,-10,24,39,9
15,-50,-23,16,-30,-14,-14,10,50,60
95,-30,-119,5,-56,-17,-8,-27,40,99
174,9,-105,5,-69,-27,-33,-59,-1,95
139,-4,-24,1,-52,-34,-35,-54,-16,81
30,-37,-3,3,-39,-9,8,-34,-2,94
-12,-41,0,2,-34,0,30,-13,27,101
-4,-21,-6,0,-11,-4,14,-7,40,84
7,-6,15,6,-13,-3,-13,-6,39,47
22,-15,18,16,-23,1,-4,7,46,-12
15,15,19,0,-24,-13,11,11,35,-51
46,38,10,-28,-41,-38,5,-27,-10,-22
62,22,2,-24,-47,-34,2,-26,-29,23
75,7,5,-23,-42,-39,-3,-16,-12,83
24,-25,-42,7,-2,-1,20,-3,-8,71
-27,-55,-118,11,5,-4,24,-1,9,-2
-5,-37,-47,14,6,-21,14,2,16,-2
63,-7,35,23,6,2,32,-11,-6,62
68,5,40,7,-12,-4,35,-7,-3,78
58,23,32,-6,-18,-12,14,-3,11,44
67,43,39,-19,-42,-19,-30,-12,-17,2
15,18,42,-22,-35,-6,-36,8,9,-32
-34,-23,36,-16,-22,-19,-20,31,51,-29
-27,16,47,0,-9,-17,-14,8,20,3
-103,2,16,17,20,12,9,14,15,-30
-141,-27,-59,15,19,13,39,16,17,-23
-92,2,10,12,7,16,35,9,32,29
-89,5,5,-5,1,19,30,20,33,49
-3,4,-20,-19,-19,2,19,12,23,71
170,-2,-27,-47,-59,-38,-38,-20,47,186
240,65,24,-22,-58,-70,-128,-112,-34,168
237,106,79,3,-35,-52,-125,-116,-80,83
215,67,76,24,-7,-18,-57,-45,-35,51
165,15,58,30,7,0,-22,-2,0,45
15,-51,28,19,17,39,8,32,-6,-9
-237,-144,-1,28,47,96,83,105,50,-76
-218,-122,14,20,37,65,72,105,48,-48
85,-53,8,-8,-23,-1,37,71,68,170
239,-18,25,-4,-47,-32,16,35,38,199
89,-44,28,0,-17,7,22,30,-23,35
-144,-42,3,7,16,42,28,17,-60,-151
-261,-21,-13,29,62,38,19,13,-41,-300
-199,-14,-3,-2,57,14,3,30,12,-232
-173,-48,-63,-54,33,10,-1,33,17,-111
-110,-98,-124,-89,2,5,-12,12,-6,11
28,-37,-28,32,32,18,8,-4,-18,-34
27,-35,8,92,62,9,12,-16,-24,-95
-25,-89,43,128,99,37,40,12,-18,-112
-152,-72,103,138,123,52,50,36,0,-115
-179,-21,140,122,148,56,53,43,17,-82
-80,-6,108,36,83,39,23,29,26,-17
-18,-19,1,-79,8,19,-3,10,46,38
-13,-43,-56,-104,-5,16,0,23,65,64
26,-66,-84,-79,0,9,17,39,86,118
23,-49,-84,-42,18,4,27,9,45,109
30,7,-15,-5,41,-5,-10,-43,-29,63
112,48,-48,16,51,-4,-9,-53,-49,26
114,35,-17,33,41,9,20,-30,-34,-27
81,23,-14,27,22,3,13,-28,-33,-82
71,9,-32,25,-5,-20,6,-33,-41,-65
56,5,6,-2,-36,-20,-1,-32,-20,-24
-2,-25,16,-12,-26,1,4,-25,-4,26
-73,-46,17,19,24,39,45,13,1,39
-74,-49,-60,25,32,65,56,57,43,63
-55,-53,-53,2,7,48,25,44,61,61
-97,-89,-18,-1,-12,39,29,49,42,-23
-22,-74,-21,0,-18,41,37,36,4,-21
79,-36,12,26,-1,38,14,-3,-38,6
115,-17,24,23,-12,15,-27,-21,-33,37
86,-37,0,-3,-31,-8,-34,-21,-9,70
-4,-56,1,10,-6,-1,-9,-13,-11,21
-41,-30,18,27,6,5,-23,-30,-29,-32
-8,-5,12,13,-21,-15,-38,-31,-23,0
-34,-1,2,9,-18,-12,-23,-7,-6,7
-57,-22,-6,19,-6,2,5,8,7,-18
-31,-43,-5,10,4,6,20,18,-13,-31
23,-35,-5,0,-10,-19,4,15,-1,33
61,14,8,12,-3,-7,8,16,14,65
71,49,12,24,-8,4,8,13,5,52
35,10,3,14,-32,-12,23,1,-2,38
17,-12,-3,14,-39,-28,45,-20,-29,-4
0,-10,-9,14,-32,-28,30,-38,-49,-35
-38,-26,-2,7,-15,-32,26,-14,-36,-14
-34,-26,-24,2,-7,-18,41,11,-15,-6
-19,-27,-21,12,10,9,57,45,5,0
-5,-19,15,25,41,13,67,45,25,-17
60,14,9,4,14,-18,30,15,-19,-12
110,53,-18,-10,-19,-45,-14,-19,-55,6
138,92,-44,-17,-21,-60,-33,-45,-74,4
122,101,7,-20,-20,-60,-61,-59,-81,14
120,82,3,-14,-13,-56,-65,-27,-27,76
66,49,-11,-19,9,-8,-12,19,19,115
-34,48,-7,-30,12,-1,-6,11,34,75
-30,51,-10,-56,-6,-23,-40,27,101,83
-28,16,-13,-48,-7,-12,-37,69,125,129
-21,8,-5,-39,-1,-1,-39,64,89,130
87,44,-21,-51,-45,-39,-88,-8,-15,-111
-1,15,2,-25,-7,6,-48,16,-30,-183
-102,-2,10,-3,31,49,-1,63,15,-115
-95,-15,-6,-15,21,51,1,82,31,-88
-19,-17,-20,-28,1,20,-11,66,15,-76
49,7,-17,-1,-8,-26,-36,14,-10,-30
68,6,-67,15,-10,-53,-77,-15,-2,63
-6,-21,-59,51,21,-37,-69,-25,5,61
-16,6,9,79,39,-20,-44,-32,-16,2
126,85,42,60,-20,-67,-64,-64,-23,33
233,117,40,2,-61,-86,-89,-107,-62,33
272,130,57,-32,-63,-77,-78,-98,-54,70
279,153,75,-64,-90,-93,-88,-52,14,178
188,114,16,-70,-67,-41,-61,-20,37,190
36,26,-33,-97,-58,-7,-28,8,49,208
5,-13,-19,-137,-71,-16,-64,-7,21,152
14,-13,-17,-86,-29,5,-53,-23,0,59
120,-36,-38,-78,-50,-30,-28,-43,-38,102
268,-44,-63,-117,-108,-71,-26,-49,-25,162
136,-79,-40,-68,-39,-16,25,0,-15,44
-140,-36,36,37,73,65,82,13,-111,-212
-382,-69,-22,73,121,118,142,72,-65,-274
-442,-119,-31,55,106,128,182,162,96,-178
-269,-109,-31,21,73,93,160,165,148,-71
-81,-74,-11,3,27,23,60,31,42,50
43,-106,-76,-22,-26,-10,-13,-40,-16,192
259,-49,-79,-44,-68,-39,-42,-56,-16,328
244,3,3,0,-26,-20,-27,-55,-55,272
2,75,43,49,28,-9,-11,-28,-37,27
-125,51,52,55,38,29,22,51,16,-191
-202,-16,61,81,86,97,125,123,44,-480
-315,-64,67,108,101,137,178,138,53,-434
-292,-69,46,72,59,112,126,115,58,-245
-199,-37,61,62,43,88,104,97,51,-135
-202,-18,60,51,38,60,53,45,7,-155
-213,-36,44,37,26,36,-10,-15,-52,-181
-193,-42,39,38,50,50,-6,-30,-20,-172
-141,-32,29,39,55,57,-4,-15,17,-128
-29,7,27,18,11,34,-14,-17,-24,-54
86,55,42,12,-19,8,-44,-43,-50,1
78,50,41,3,-25,1,-45,-36,-47,5
-22,15,29,9,-4,26,-17,-20,-50,-47
-103,6,-2,33,24,43,-3,-12,-56,-88
-94,-14,11,19,14,32,-20,4,-24,-28
-43,5,14,13,7,15,-30,6,-4,16
-31,26,2,1,22,21,-23,-1,-3,5
-14,21,-12,-3,29,19,-24,-22,-2,12
14,14,-21,-7,17,4,-4,-28,-47,36
70,20,-31,-22,-1,-42,-35,-29,-39,82
87,15,-8,7,30,-42,-35,-32,-26,48
17,-4,16,35,40,-22,-21,-28,-36,-16
-38,-25,35,11,18,-14,2,-10,-39,-30
5,-4,22,-16,1,-31,6,-16,-24,11
79,18,0,-29,-19,-53,-25,-28,-19,61
134,-1,-29,-62,-38,-47,-52,-29,-10,131
156,21,-1,-56,-31,-44,-63,-52,-46,104
133,29,2,-55,-36,-45,-56,-45,-28,63
58,-1,-59,-59,-38,-31,-40,-18,8,55
28,44,-33,-41,-26,-24,-47,-21,-9,27
-51,32,10,-32,-18,-26,-23,-19,4,-74
-9,31,0,-38,-27,-27,-5,-29,-13,-74
100,26,-5,-39,-21,-29,-15,-30,-6,22
88,-28,-11,-25,-11,-24,12,-14,-2,46
-12,-106,-21,8,22,21,66,20,1,28
-59,-99,-13,28,26,30,69,20,0,17
20,-17,-4,3,-3,-6,17,-8,-2,53
88,43,19,2,-13,-21,-19,-41,-25,81
73,43,36,17,5,-8,-13,-27,-29,54
68,18,37,24,-1,0,-13,-25,-44,17
37,-3,16,6,-32,-1,-21,-7,3,102
69,-29,-18,-22,-51,10,-10,24,64,231
67,-42,-48,-23,-34,33,20,46,77,247
-74,-64,-122,4,-2,65,33,53,62,76
-188,-67,-94,8,1,79,38,77,75,-95
-127,22,-14,-10,-23,60,16,56,38,-178
-79,81,30,-7,-29,34,-10,24,0,-166
-50,116,57,-5,-29,7,-38,-4,11,-105
5,100,79,24,-7,14,-31,-17,-8,-16
46,79,67,41,-3,8,-9,-12,14,54
50,42,55,56,11,19,6,-7,-18,15
75,-26,26,67,34,57,27,2,-21,-16
80,-88,-17,45,23,60,4,11,-25,19
84,-64,-25,14,-23,19,-42,4,-34,58
0,-48,-19,3,-15,10,-33,1,-16,74
-101,-66,-2,27,24,45,22,12,-10,13
-114,-16,12,18,16,38,31,36,42,32
-85,-22,-8,-7,-7,17,36,73,142,116
-52,-47,-37,-37,-38,-17,19,44,144,191
33,6,-27,-51,-67,-63,-47,-21,73,225
49,32,-30,-56,-79,-49,-53,-39,25,131
-6,25,-4,-9,-30,4,-12,2,-15,-15
-36,32,29,45,54,42,21,29,-18,-113
-33,30,-43,37,37,18,-3,29,-4,-142
34,58,-12,27,26,-2,-20,4,-17,-82
47,78,-16,31,-2,-22,-47,-28,-34,-58
13,78,-95,44,-17,-32,-56,-36,-46,-47
81,89,-40,29,-27,-48,-52,-50,-20,2
226,123,13,0,-59,-66,-49,-80,5,55
268,107,-6,-33,-89,-71,-45,-79,-17,70
113,27,-46,-34,-72,-54,-9,-39,-16,34
-130,-21,-32,-11,-7,-8,53,5,-5,-42
-163,-17,19,2,23,21,88,22,4,-28
-119,3,40,0,17,16,82,8,13,-5
-99,32,62,17,10,2,51,-38,-24,-44
-32,35,-6,11,-7,-4,40,-59,-58,-69
-7,12,-73,4,0,14,52,-34,-78,-96
-82,-28,-116,24,12,21,63,-11,-72,-113
-103,-47,-96,8,-5,10,47,10,-10,1
-9,7,55,6,-14,11,21,15,53,117
-53,15,60,15,7,25,30,16,39,38
-22,38,37,6,5,31,29,17,41,-3
9,35,-57,6,-25,27,1,30,29,54
37,56,-58,31,-26,21,-57,-7,-35,52
145,104,-4,16,-43,-2,-104,-47,-79,59
210,85,58,-8,-51,-16,-116,-53,-40,123
44,6,61,-4,-6,9,-78,-22,-7,92
-116,-68,45,11,23,32,-35,10,27,-4
-94,-99,11,-18,-6,-1,-26,30,102,-48
-38,-47,32,-11,-5,-21,-17,38,88,-65
-65,-10,46,3,15,-7,2,31,13,-114
-131,-29,31,1,13,3,2,24,-45,-138
-93,-25,41,-7,-3,2,13,21,-26,-72
23,9,40,-22,-8,0,5,38,48,38
19,0,26,-25,1,10,-5,69,99,97
-52,-35,17,-22,9,23,8,75,65,74
-42,-15,18,-25,-8,15,3,39,6,24
8,21,16,-43,-30,-8,-27,9,13,7
17,60,7,-30,-15,-16,-38,-21,-26,-49
28,21,19,-10,8,0,13,-13,-43,-61
123,21,2,-34,-22,-27,0,-41,-39,21
157,0,-27,-51,-33,-29,-22,-39,-15,82
87,-30,-12,-24,-17,0,-43,-27,-26,86
45,-24,8,-1,-2,15,-31,-5,-11,131
10,-27,-19,-17,-16,14,31,38,37,112
0,-17,-94,-28,-33,-23,0,17,17,79
-55,1,-29,-9,-20,-25,-25,-18,-49,-149
-54,3,68,18,23,-2,-14,-26,-102,-286
23,58,73,10,20,-8,1,-36,-76,-211
47,40,44,7,11,3,28,21,31,-90
14,21,47,59,37,26,30,45,9,-67
33,43,85,100,56,36,24,41,-1,-28
15,63,122,78,38,17,14,1,-46,-56
-50,37,73,17,-8,-12,-7,-21,-67,-80
-61,0,15,-25,-28,-9,-23,5,-26,-56
26,-16,-14,-50,-29,-13,-11,9,-16,-31
66,-5,1,-53,-36,-19,-34,-16,-50,-9
47,-11,-19,-41,-41,-10,-8,7,-21,10
91,6,-5,-4,-10,7,16,14,-13,55
93,24,61,14,-1,-6,9,-9,-2,163
42,-12,41,-14,-20,-14,9,21,48,212
45,-45,7,-39,-38,-34,-25,-3,-3,143
36,-70,-3,-34,-18,-15,-5,-20,-60,11
-2,-87,-12,-24,-3,-2,47,16,-19,-74
-124,-84,-8,2,23,23,77,42,5,-118
-137,-63,-23,13,19,26,62,39,-2,-68
-29,-51,-47,-6,-14,-4,14,41,39,86
106,-4,-33,-37,-8,-47,-23,-11,-47,70
187,40,-23,-60,-49,-89,-32,-33,-22,141
86,1,-29,-67,-49,-71,0,4,47,164
-87,-33,-15,-36,4,-36,32,31,71,182
-222,-41,2,11,66,20,62,37,33,91
-169,-32,14,11,57,29,77,40,31,4
-37,-15,24,11,50,26,50,39,23,-60
-26,-15,15,24,55,30,15,18,-4,-227
-63,-6,22,28,56,22,16,12,-32,-330
-57,-28,10,17,46,10,24,33,18,-174
-71,-44,-7,3,44,4,31,42,51,-55
-133,-51,-19,4,47,0,34,35,29,-58
-92,-28,-15,0,30,-21,33,9,37,-37
-34,19,-7,3,16,-26,4,-34,-6,-63
-8,48,-15,13,3,-34,-25,-36,-38,-78
60,69,-28,-8,-15,-48,-40,0,17,7
58,19,-31,-20,-15,-42,-21,16,62,31
-12,-16,-27,-17,-3,-37,5,16,68,-31
-29,5,-21,-22,-19,-50,-24,-23,6,-75
3,30,-15,-25,-34,-47,-34,-46,-29,-50
29,44,-24,-35,-49,-61,-54,-55,-37,-23
18,32,-32,-43,-68,-65,-49,-64,-25,0
-29,-19,-39,-28,-70,-66,-17,-72,-21,6
-93,-64,-43,-24,-47,-35,10,-60,0,-3
-40,-45,-38,-18,-28,-42,-8,-91,-38,-51
43,-24,-64,-3,-23,-72,-58,-140,-88,-97
14,-62,-64,0,5,-48,-36,-116,-74,-105
-36,-104,-40,0,37,-9,-3,-76,-26,-45
4,-128,-80,-51,10,-25,-16,-67,18,74
128,-41,-87,-81,-39,-63,-77,-85,3,121
103,0,-40,-45,-46,-61,-92,-87,-29,20
6,2,-2,-4,-20,-20,-58,-65,-28,-44
-58,29,-44,-2,-9,-11,-37,-63,-24,-75
-10,57,-54,-20,-30,-27,-57,-79,-19,-61
-16,76,0,-17,-28,-25,-47,-74,-46,-108
-61,28,3,-6,-11,6,0,-20,15,-60
16,-15,28,-8,-5,-1,-1,12,72,111
61,3,38,-10,-8,-15,-18,16,60,166
38,-22,-37,-6,11,-1,-2,64,97,176
80,-30,-88,19,62,24,15,77,75,108
196,10,17,25,70,24,35,72,61,72
193,-8,65,12,53,10,45,65,108,69
0,-68,65,17,68,37,84,94,57,18
-236,-103,40,19,80,60,90,111,-10,-62
-230,-66,16,16,63,51,71,93,-19,-37
-100,-33,-9,-3,35,25,28,98,20,54
-28,21,-75,-3,34,10,-23,87,15,-3
4,47,-38,0,45,-4,-15,67,3,-127
31,74,60,3,35,-5,-7,71,28,-100
36,63,58,12,22,0,2,78,46,13
62,71,60,24,26,5,-6,48,8,12
16,82,86,51,54,36,36,47,-9,-37
-72,74,84,68,68,54,61,63,5,-76
8,65,43,39,35,11,24,44,17,-12
164,84,31,8,-7,-36,4,32,50,118
220,116,53,28,-8,-25,-1,21,50,132
165,70,45,51,5,-3,-4,-6,-15,76
34,-1,-13,32,-13,-6,-14,-7,-51,4
-29,-31,-4,-6,-39,-3,-19,11,-47,-35
-58,-55,-24,-16,-52,-7,0,32,-34,-37
-42,-72,-80,-39,-67,-12,10,27,-13,-14
1,-36,-50,-40,-74,-20,0,18,0,35
-98,-15,-5,3,-18,9,23,46,8,47
-81,13,19,37,28,32,32,48,4,123
117,80,45,34,18,-11,-16,10,-11,166
205,93,29,49,39,-10,-13,14,-7,77
154,94,11,105,57,0,-22,-25,-63,-66
70,67,42,148,60,14,-9,-6,-33,-66
-41,13,32,154,90,50,37,66,61,25
-214,-49,41,154,134,87,65,89,69,9
-259,-31,57,133,138,80,36,74,26,-39
-110,-8,45,15,46,2,-36,31,18,41
-84,-20,-15,-119,-39,-36,-35,23,24,49
-123,-6,-16,-155,-52,-19,-26,24,1,-27
-84,-2,60,-92,-20,20,0,31,-3,-69
-30,-48,48,-81,-14,59,32,63,26,-63
64,-44,-53,-75,-33,33,-1,46,38,65
209,-15,-47,-64,-50,-11,-55,0,22,169
323,21,16,-62,-82,-59,-98,-38,1,204
218,-14,12,-57,-67,-48,-56,-18,-4,137
18,-41,-8,-21,-11,32,19,22,-8,-47
-60,-13,18,25,31,64,45,31,-39,-166
-57,29,29,25,29,46,5,7,-74,-171
-19,35,17,21,16,41,-7,-18,-86,-121
-51,7,12,22,-2,41,19,19,1,-61
-26,10,14,11,-38,-1,12,32,98,15
94,35,28,2,-59,-41,-20,-3,79,126
156,49,19,-37,-90,-61,-50,-35,33,147
134,20,-13,-62,-90,-81,-55,-36,30,133
94,5,-78,-42,-55,-53,-15,-20,62,126
124,22,-58,-48,-43,-45,-8,-35,26,78
85,-10,-28,-66,-40,-4,31,0,24,31
-7,-26,14,-19,-3,20,66,19,24,-26
0,7,44,25,4,-1,58,-12,6,-55
55,37,-57,17,-5,0,61,-26,-37,-31
47,53,-89,24,15,18,88,-4,-31,-29
-42,51,26,25,16,13,89,7,-4,-57
-104,30,54,30,21,4,73,10,30,-18
17,92,50,21,-14,-54,41,-71,-57,4
-52,57,-35,34,6,-21,68,-26,-39,-88
-120,23,-55,28,3,-6,76,-7,-5,-137
-50,49,5,32,-5,-19,20,-52,-49,-132
2,26,-63,11,-16,-10,5,-25,-26,-74
35,9,-19,-15,-28,-12,14,12,23,41
87,-3,28,-35,-35,-36,-11,-18,6,143
83,16,42,-19,-19,-31,-24,-51,-29,150
84,54,32,-28,-30,-58,-29,-55,2,85
136,77,56,-42,-41,-73,-69,-64,3,28
22,41,46,-16,-11,-27,-36,-41,-21,-31
-145,-33,-3,0,14,8,-3,4,11,31
-107,-29,-15,32,29,14,26,33,69,203
60,55,-34,23,23,8,4,-12,20,179
-27,27,-132,7,27,0,-1,-22,-25,-103
-185,-25,-139,-6,51,14,-7,24,23,-263
-174,-50,-42,5,66,52,21,38,17,-203
-75,-34,5,21,71,70,58,34,-6,-123
-42,-56,-66,21,69,73,76,45,28,-37
-31,-20,22,20,55,51,58,15,47,52
-32,10,50,27,47,22,24,-26,12,44
-22,7,34,35,52,24,-2,-33,-11,15
-1,3,52,25,38,18,-35,-17,-23,-28
-15,4,53,16,40,27,-31,-6,-3,-141
55,19,4,-20,8,-7,-60,-37,-53,-118
110,38,8,-30,5,-43,-68,-52,-55,-65
105,56,13,-21,11,-35,-60,-60,-42,-27
-60,-5,4,-1,36,-4,3,-28,10,9
-183,-61,-57,18,60,37,53,41,55,38
-137,-52,-99,1,21,9,20,35,52,60
-86,-1,35,-28,-3,-20,-21,9,27,90
-43,11,71,-41,-7,-8,-26,3,34,126
3,-11,-35,-37,-2,19,-7,9,22,120
-28,-24,-78,-47,-15,29,28,25,29,94
-44,24,3,-36,-26,0,22,-21,-29,23
-5,36,-55,-40,-47,-25,-7,-45,-55,19
54,35,-66,-64,-53,-24,-6,-48,-58,-18
78,40,-10,-51,-38,-16,9,-30,-44,-78
20,11,37,-31,-20,-3,20,4,42,-9
-38,-7,42,-23,-30,-7,7,5,30,32
0,6,48,-34,-39,-25,0,-23,-26,-7
74,39,39,-46,-61,-53,-33,-63,-68,-5
116,53,52,3,-64,-57,-74,-78,-65,73
89,45,62,56,-21,-28,-52,-60,-23,93
160,53,12,40,-36,-51,-87,-101,-30,151
295,71,36,49,-50,-60,-121,-103,-1,223
158,60,95,89,13,-4,-83,-79,11,69
-102,-31,56,80,77,67,-4,0,-17,-131
-202,-47,54,27,80,110,75,80,24,-188
-197,0,21,-60,24,76,82,67,42,-207
-125,51,-3,-76,-12,19,26,-5,-13,-183
-82,4,-7,-40,-8,1,-6,-40,-79,-175
-74,-31,-18,-41,-18,-7,21,-2,-54,-148
-130,-26,-10,-12,10,20,77,51,-15,-163
-124,-38,6,-2,37,42,92,93,36,-86
-89,-45,2,-8,39,54,82,102,64,-11
-53,-20,24,11,41,63,63,66,29,-35
-39,-23,16,-8,21,44,57,48,19,-54
-37,-9,-3,-18,0,5,37,41,29,-30
-37,18,0,11,20,-6,12,1,-1,-40
31,49,23,33,28,-9,-22,-31,-47,-33
76,56,37,36,30,-10,-38,-49,-86,-70
114,56,9,8,2,-29,-74,-52,-60,-46
221,31,-34,-21,-34,-47,-99,-48,-46,28
237,-10,-51,-22,-28,-33,-81,-30,-77,69
73,-39,-63,9,21,-5,-47,-11,-71,35
41,28,57,38,29,-4,-46,-33,-95,2
142,41,63,12,-5,-29,-74,-40,-61,74
207,66,38,-31,-36,-62,-100,-59,4,162
228,64,12,-37,-66,-81,-107,-70,17,253
181,12,-58,-33,-71,-71,-83,-42,53,274
9,-30,-29,-15,-38,-27,-3,30,109,137
-175,-92,-22,8,10,44,90,91,106,-57
-163,-108,-43,-5,14,54,90,91,67,-78
-63,-49,-20,-10,4,41,75,68,48,-39
-7,3,-20,-4,11,22,61,46,100,-46
-37,0,-105,16,14,35,77,46,87,-48
-116,-26,-82,43,26,41,67,40,37,-63
-110,-17,29,59,41,31,40,18,10,-102
-35,1,41,58,32,4,12,-3,-3,-64
-45,-16,21,25,13,-9,15,15,7,-25
-77,-1,22,12,14,-8,34,22,-11,-38
-39,25,25,6,-1,-17,21,4,-49,-35
16,39,23,6,-19,-45,-12,-22,-70,-7
47,9,20,-15,-20,-43,-25,-22,-56,79
76,-12,-4,-14,-2,-24,-20,-17,-18,234
97,-28,-24,-6,1,-18,-17,-11,1,247
123,-43,-15,-19,-21,-21,-29,-10,16,189
39,-40,10,-6,-5,-21,-28,-5,-12,18
-148,-37,46,32,40,28,-18,15,-39,-223
-201,-15,74,56,48,47,5,17,-42,-289
-114,-19,46,21,13,26,0,16,-27,-141
-30,-25,14,-20,-4,11,-13,27,-3,-14
16,75,6,-4,11,3,-30,6,-17,21
27,142,-26,-13,-1,-25,-58,-28,-53,0
75,142,-9,-68,-45,-59,-92,-41,-67,4
56,128,-4,-67,-66,-62,-94,-56,-81,-36
2,53,-20,-65,-58,-56,-73,-43,-67,-68
93,34,-8,-33,-30,-35,-47,-23,-46,-1
149,23,9,6,20,5,-15,22,27,47
110,3,22,25,44,44,33,67,97,55
-10,-13,13,14,30,62,51,65,95,-1
-115,5,24,19,12,48,23,34,27,-58
-45,7,-4,-10,-39,-9,-17,14,37,7
38,-37,-31,-37,-63,-40,-16,6,47,90
2,-111,-12,-8,-20,-10,27,17,57,123
-71,-123,-34,-6,-3,4,33,7,37,103
-130,-138,-63,-7,1,20,44,0,-6,34
-154,-141,-51,20,35,56,63,23,-29,-53
-204,-108,-33,54,72,77,75,25,-41,-159
-187,-58,-10,64,65,67,71,21,-18,-154
-115,-16,13,21,2,20,8,19,7,-88
-36,29,43,-3,-27,-17,-6,0,40,-15
7,35,23,-9,-16,9,32,23,68,23
-16,18,-10,-19,6,38,65,28,34,-8
19,37,-41,-18,-31,-9,23,6,45,26
86,86,28,7,-62,-63,-48,-40,19,87
118,82,67,47,-34,-46,-69,-81,-14,102
89,24,27,31,-18,-30,-27,-73,36,80
40,11,-70,7,-12,-10,-11,-69,-10,-33
11,10,-166,-6,2,6,21,-36,-27,-82
15,-3,-195,-76,-39,3,39,5,29,-27
52,31,-101,-73,-43,3,-8,-17,0,-21
13,55,57,7,11,22,-39,-53,-65,-83
-18,17,65,16,22,22,-20,-25,-24,-70
25,29,49,-2,-6,6,-38,-3,24,-4
80,38,17,-26,-33,-12,-69,-27,19,19
107,21,0,-42,-57,-26,-71,-31,25,50
165,2,10,-46,-57,-11,-30,-13,67,123
170,11,23,-48,-56,-3,-25,-11,38,128
16,-12,13,-32,-35,9,-8,7,32,92
-134,-49,2,0,13,51,26,41,42,10
-90,-24,5,-6,23,47,6,43,21,-13
-63,-5,7,0,23,23,-30,34,6,17
-104,0,22,30,25,13,-9,27,20,34
-21,4,11,27,-1,-7,9,15,45,100
166,39,34,20,-5,-16,-3,-15,32,128
154,11,38,14,5,7,-1,-8,1,-78
-13,-36,27,15,22,19,15,13,-1,-192
-80,-39,30,34,39,26,6,1,-36,-147
-105,-42,28,38,43,21,-12,7,-17,-98
-116,-20,34,39,47,-1,-30,-5,-28,-109
-75,7,45,44,70,-17,-53,-30,-40,-100
13,49,38,23,43,-44,-65,-38,-55,-69
75,47,39,13,17,-33,-55,-14,-25,-24
38,29,24,17,30,7,-9,21,17,23
-25,-10,5,20,41,14,31,41,34,59
-70,4,-3,26,44,12,37,52,31,32
-88,40,-28,22,32,3,35,26,18,-62
-115,41,-5,25,30,22,50,41,64,-48
-30,10,-16,0,12,21,48,23,27,11
44,1,-17,-1,-10,-4,10,-13,-49,4
5,26,-13,-5,-24,-8,15,-20,-59,-33
-37,0,-43,0,-16,22,10,-29,-86,-57
-4,-26,-26,-4,-8,35,-3,-18,-69,12
51,0,-9,1,-7,42,14,16,-15,66
50,15,-87,5,-13,24,18,21,-19,22
65,31,-31,-5,-37,-19,-6,-14,-38,36
46,-16,24,-20,-41,-19,-47,12,28,165
-3,-49,34,5,15,37,-9,61,21,147
18,2,51,-1,14,41,1,66,25,154
104,26,-1,-28,-33,-9,-22,45,31,202
168,31,5,-42,-62,-40,-55,-9,1,129
88,24,45,-22,-45,-33,-43,-27,-22,-37
-17,-4,34,-10,-19,0,1,20,-2,-110
-67,-44,4,-24,-17,13,5,49,41,-73
-122,-93,-8,4,4,30,11,68,63,-64
-42,-55,8,11,8,-2,-38,-9,-47,-76
53,-34,-24,-6,-16,-17,-51,-15,-49,-11
114,-19,7,-19,-22,-15,-25,-7,19,93
97,-14,33,-17,-13,-2,8,-10,41,166
81,-27,30,-7,-29,-18,11,-5,61,272
-35,-47,37,49,11,1,7,-21,21,175
