93,87,24,13,42,-41,-27,-24,39,-4
88,65,23,0,23,-34,16,19,79,-5
47,40,0,-4,0,-17,30,2,28,7
44,62,7,16,6,-8,15,-37,44,47
24,49,16,30,12,11,10,-52,40,94
26,26,1,25,22,46,-26,-57,27,144
115,31,-4,15,5,16,-75,-74,39,231
109,29,9,23,15,5,-23,-15,51,152
94,40,15,27,27,4,-7,8,-6,9
52,23,1,20,30,4,0,15,-48,-74
-5,5,-10,12,27,16,21,42,-29,-77
-31,17,2,8,24,20,25,36,-2,-31
-41,6,-4,0,24,11,0,-16,-37,-24
-26,8,-10,-1,17,-13,-29,-81,-144,-86
-103,-9,-17,0,37,21,5,-69,-183,-187
-114,-7,-20,-4,23,39,10,-82,-238,-152
-64,0,-17,-18,-7,21,6,-132,-310,-94
-33,4,-61,-18,-22,2,12,-146,-316,-61
-17,8,-146,-38,-50,-29,12,-12,-33,29
-9,10,-66,-44,-75,-51,13,114,223,105
-2,11,-33,-20,-57,-58,6,144,218,61
-15,-16,-125,-28,-61,-77,-38,155,157,18
3,-19,-30,-22,-59,-146,-108,119,186,39
19,-1,74,20,-11,-184,-148,67,185,77
-14,-26,68,35,20,-47,-24,47,121,44
-43,-81,23,-1,-7,136,129,62,21,18
-40,-82,15,-13,-24,145,119,42,-32,5
-58,-70,-26,-10,-23,79,57,-19,-76,-52
-65,-41,-53,8,2,29,42,-31,-95,-97
-18,5,44,21,22,-20,-16,-59,-119,-77
29,9,-26,7,0,-28,-46,-84,-173,-41
52,3,1,-16,-3,-4,-14,-93,-203,-35
84,11,75,-14,12,3,20,-99,-195,0
44,3,81,-3,25,11,29,-72,-190,24
3,1,59,-10,12,-11,33,-14,-46,21
-20,-9,36,-28,11,-30,51,45,182,11
-96,-43,37,-31,10,-27,53,83,262,-24
-104,-24,23,-28,6,-3,75,135,304,7
-68,-19,22,-16,17,17,53,115,203,59
-18,-23,38,-14,30,8,18,73,134,88
-43,-62,29,-27,8,-14,5,66,60,71
-61,-43,18,-36,-20,-34,20,92,73,60
-32,7,-28,-15,-17,-41,3,67,57,28
-30,31,-50,-14,6,-19,-20,30,30,-21
-52,19,0,-33,-6,-7,-25,34,31,-90
4,56,17,-19,3,9,9,22,72,-88
-11,12,4,-23,-2,23,30,-26,17,-56
-46,-21,-6,-29,-18,3,-4,-85,-81,-53
-32,9,22,2,-16,12,-2,-94,-136,-65
-43,-6,17,14,2,33,17,-81,-147,-102
-18,-18,-3,2,2,48,1,-71,-152,-96
67,-6,6,-2,-14,-1,-22,-76,-150,-40
133,27,28,3,-33,-70,-52,-23,-75,25
158,62,51,14,-30,-109,-107,53,37,45
103,31,36,17,-18,-41,-83,58,86,78
5,-6,7,-5,-20,64,19,51,48,63
-96,-46,-18,-30,-18,90,75,33,6,52
-112,-38,-7,-18,-12,34,58,6,-18,31
-65,-8,17,4,12,16,40,33,32,1
-50,-14,15,13,36,35,35,83,84,-38
-5,18,28,40,44,18,4,56,109,-18
17,40,21,33,14,5,14,15,62,-9
19,33,20,16,0,4,12,1,26,-11
18,35,21,15,1,3,-14,-11,-30,-4
40,29,29,30,10,18,-11,1,-50,8
34,21,26,31,5,4,-15,0,-17,44
7,15,3,23,4,3,-28,-6,13,63
28,-1,-21,-10,-22,-20,-44,-26,-7,82
59,-1,-26,-18,-53,-36,-69,-50,-64,79
31,11,-14,-10,-33,-15,-41,-20,-61,-15
7,7,7,-5,-4,12,2,16,-31,-62
46,15,-11,5,0,2,-2,2,2,-11
54,14,-43,10,-15,-11,5,-13,0,14
37,-13,-13,0,-17,-1,19,-15,-35,25
25,-3,-10,-4,4,2,20,-15,-40,46
-28,-19,-7,4,13,-5,11,-16,-59,44
-48,-38,-11,9,9,-17,-38,-29,-95,77
-22,-25,-11,20,10,-30,-59,-42,-105,84
1,-12,-16,12,6,-33,-52,-42,-110,44
42,11,-15,4,6,-45,-46,-35,-112,-3
57,46,-19,7,-2,-70,-61,-15,-31,0
23,43,-67,-38,-15,-37,-44,10,113,28
35,40,-54,-42,17,35,22,11,133,44
101,75,13,-11,36,66,65,34,116,90
83,30,8,-6,18,33,32,48,86,97
17,-47,-12,-17,-14,-13,-23,-8,-18,53
11,-77,-21,-23,-21,-24,-47,-42,-67,63
-29,-87,-22,-16,4,-7,-22,-2,13,88
-110,-83,-33,8,30,7,21,65,93,6
-17,-27,-71,-7,17,-13,-9,35,96,45
85,14,-118,-10,2,-24,-49,14,89,124
40,8,-109,20,26,10,-15,40,33,-13
-33,-14,-73,24,21,25,0,26,-47,-149
-44,-16,26,23,19,-26,-20,24,-7,-108
-10,-13,31,6,5,0,25,21,18,-33
40,-22,-5,-27,-19,53,40,-10,-2,38
6,-27,15,1,3,34,19,4,-30,-44
-50,-35,30,25,29,7,-4,27,-61,-140
-36,-11,38,27,19,-30,-27,17,-59,-106
-37,-8,-52,4,-4,-18,23,11,-44,-55
-55,-37,-95,-15,-15,72,86,3,-54,-46
-70,-32,5,-5,-6,125,119,39,-25,-36
-69,-29,39,7,4,21,50,26,-11,-55
15,15,59,22,0,-34,-11,-28,-30,-39
48,12,59,9,-1,4,33,-30,-32,3
33,-27,24,-15,-21,68,93,0,-13,40
38,-35,-5,-29,-50,37,55,-11,9,86
25,-27,19,-18,-43,-31,6,-44,0,79
13,0,61,7,2,-40,-21,-48,-24,30
19,5,50,17,32,-23,-52,-37,-16,26
-32,-17,45,20,44,26,-25,18,21,14
-70,-42,20,4,40,66,22,22,37,-14
-42,-45,-2,-17,7,28,-5,0,56,14
15,-21,1,-15,-6,17,1,-29,32,48
33,-23,-5,-17,-1,34,35,-74,-26,20
44,-9,26,0,13,30,7,-88,-61,8
45,17,47,23,42,35,17,-67,-100,-3
79,50,68,36,42,27,15,-73,-124,-4
68,62,52,11,10,-5,-5,-38,-68,44
27,24,12,-37,-14,-17,-4,12,4,98
59,12,14,-51,-21,-16,-13,-1,-5,120
43,16,20,-23,-10,-13,-19,-35,-24,81
-14,-5,-21,2,3,5,9,-4,8,58
-3,-14,-19,-2,2,4,30,26,16,53
18,13,28,4,0,-5,30,74,97,20
21,32,47,30,9,-7,22,104,156,20
5,21,24,28,0,-14,10,92,108,36
-28,19,-2,11,-13,-7,10,65,56,27
-54,4,24,-2,-12,0,-5,1,-13,2
-41,-4,31,-5,-14,-18,-34,-30,-51,21
-41,-4,26,0,-6,-16,-46,-36,-64,40
-74,-11,27,10,9,6,-25,-49,-104,-11
-80,-16,19,1,-12,17,-8,12,14,-29
-58,-15,-52,-14,-37,-6,0,124,211,-1
-32,-8,-141,-17,-29,-21,-2,145,203,-10
-13,7,-74,-19,-27,-35,-23,81,94,-7
-26,2,3,-4,-22,-38,-36,31,30,-8
-35,0,1,-3,-15,-25,-16,44,65,-5
0,3,0,-16,-15,-36,-12,56,106,22
23,8,13,-18,-1,-30,15,25,87,30
0,19,-35,-2,28,8,25,-3,45,27
-14,-1,7,11,28,8,-7,-16,14,27
-7,2,35,15,12,0,-50,-29,-24,11
0,13,34,-5,3,-23,-55,-27,-33,14
7,0,34,-2,16,-18,-37,-12,-13,5
26,-7,31,2,36,-17,10,-18,13,-3
32,-21,25,14,44,2,45,-8,42,13
86,-5,22,24,30,4,41,-14,41,35
132,19,9,10,16,-29,-7,-56,16,68
141,25,-3,3,0,-50,-37,-75,-11,99
122,47,25,12,-3,-51,-28,-62,-22,57
80,50,46,16,7,-35,-24,-67,-42,21
-8,-2,15,-7,10,28,8,-94,-94,22
-43,-31,-9,-21,-5,28,-7,-111,-78,102
-35,-37,-21,-28,-35,-17,-43,-143,-131,124
21,6,-13,-30,-41,-45,-73,-209,-239,98
17,43,-1,-3,-18,-17,-53,-172,-252,26
-66,17,-17,24,22,29,5,-76,-177,-83
4,-1,-15,6,-7,4,-20,30,-5,-61
73,-10,-49,-24,-40,-2,0,202,345,-10
49,-28,-49,-17,-29,6,18,184,368,6
20,-35,-67,-26,-40,-22,-20,94,218,54
-25,-46,-40,-29,-30,-32,-32,73,147,0
-62,-18,2,-9,-11,-30,-19,56,44,-92
-18,19,36,17,3,-57,-61,-6,-40,-41
39,18,40,20,0,-73,-92,-42,-53,28
5,-3,19,19,4,-4,-1,25,-32,-78
-45,-1,38,33,20,24,52,69,-22,-176
-21,28,52,35,18,-53,-30,21,-37,-153
-20,32,24,12,4,-47,-15,-38,-84,-151
-21,4,-29,-12,1,34,85,-22,-97,-143
-15,-11,-27,9,25,17,63,-1,-89,-119
-32,-24,18,23,32,-57,-5,-6,-83,-79
-29,-18,47,46,42,-83,-27,7,-36,-39
-7,3,49,36,37,-23,40,14,-25,-5
-22,-30,10,-8,11,86,147,34,-35,8
-21,-31,-5,-16,-1,63,90,13,-33,5
15,1,0,3,0,-32,-26,-17,-25,0
44,38,-39,19,4,-76,-58,-14,-8,-1
49,46,-124,13,-7,-56,-48,12,1,21
17,13,-98,11,0,10,44,18,1,15
-6,-30,8,-17,-8,57,103,9,-15,-3
-10,0,68,-5,-9,7,56,18,10,18
-32,-1,74,1,-1,-29,29,26,26,31
-23,-12,45,-3,-19,-52,12,6,-7,13
22,0,25,-12,-28,-65,-39,-25,-43,25
53,6,21,-10,-11,-25,-58,-50,-36,33
23,7,19,-2,-3,27,-20,-35,4,47
-12,-11,14,14,-1,22,-41,-22,37,49
-61,-14,-6,31,5,12,-62,-31,16,25
-89,-39,-25,14,26,39,-58,-50,-2,44
-95,-48,7,3,26,64,-33,-26,-1,76
-90,-41,-45,-5,11,53,-24,-3,5,94
-23,-21,-10,-17,-1,22,-52,-44,-26,109
40,20,-51,-6,0,0,-74,-90,-51,51
30,50,-98,-6,-16,-15,-68,-52,-25,-16
-31,41,-69,-11,-22,-33,-44,-6,-1,-57
-50,26,25,-8,-15,-56,-32,11,57,-44
-43,12,56,-15,-24,-59,-20,21,86,-11
-18,23,57,-19,-10,18,41,0,23,-1
-12,26,53,5,20,126,113,29,-21,-46
10,17,55,36,23,91,65,64,-4,-77
43,16,54,24,7,27,-22,32,11,-44
22,53,37,5,-21,2,-70,-31,-2,-32
3,73,39,3,-24,-16,-76,-63,-25,-49
1,53,38,3,-22,-34,-47,-32,-19,-28
-16,19,18,-4,-23,-15,8,-14,-19,-33
-29,-30,-7,-12,-12,17,45,-12,-16,-46
-27,-43,4,6,4,-4,36,22,44,2
-17,-32,18,19,15,-33,-6,12,67,29
32,9,36,20,-7,-85,-106,-48,20,41
17,-2,6,-11,-13,-34,-60,-52,-21,-39
-55,-35,-31,-28,19,100,73,-26,-60,-106
-56,-24,-9,-12,26,80,73,-13,-34,-68
-39,-10,4,10,10,0,-5,-25,-7,-1
-25,10,9,12,14,-27,-31,-31,-9,37
9,5,6,18,21,-13,-28,-1,11,48
27,-18,-15,2,7,-8,-48,-15,4,36
2,-22,-19,-5,-3,15,3,-23,-35,-12
-41,-32,-13,15,31,90,131,43,1,-27
1,-2,8,24,64,110,151,71,103,19
56,-2,12,16,55,65,90,39,92,62
59,0,9,20,42,32,46,-21,34,72
56,21,13,23,38,-3,11,-57,16,96
89,30,9,3,20,-34,1,-43,111,163
97,27,0,0,11,-40,1,-41,101,150
126,63,13,14,15,-44,10,-31,27,67
125,66,29,59,31,-20,30,23,50,46
46,42,28,72,29,0,47,78,42,-34
13,54,33,60,33,0,32,76,16,-85
-12,45,20,38,44,4,-23,20,-53,-132
-52,-4,-17,7,15,21,-11,22,-96,-117
-57,-20,-39,-19,-6,23,-9,25,-71,-47
-25,-4,-25,-15,-2,7,-19,21,-37,-25
-8,-18,-20,-25,1,-11,-22,39,9,-39
-1,-29,-23,-26,15,-12,1,51,53,-9
-12,-32,-21,-10,20,-2,19,43,44,19
17,5,-10,-12,11,-9,-6,7,-18,16
39,49,-12,-19,-14,-34,-33,-16,-56,20
42,51,-22,-23,-28,-44,-44,-32,-81,4
41,21,-40,-35,-35,-47,-61,-69,-96,62
42,-10,-43,-32,-26,-44,-73,-104,-118,110
34,-47,-27,-20,0,-17,-39,-63,-106,28
55,-46,-46,-35,-18,-13,-16,7,-1,6
55,-13,-27,-39,-28,-4,-10,20,45,45
-12,-3,-5,-39,-23,6,0,20,31,97
-86,-35,-18,-56,-26,5,19,54,80,108
-95,-54,-14,-36,-18,13,38,44,94,104
-55,-55,-9,-14,-6,30,54,28,56,58
-47,-34,0,9,21,42,62,35,-6,-38
-85,-16,14,34,33,43,41,29,-26,-83
-87,-18,16,21,22,26,-7,-8,-36,-74
-72,-15,11,5,4,-10,-37,-41,-65,-65
-57,3,0,0,-10,-39,-47,-47,-93,-43
-61,2,11,-16,-21,-55,-28,-33,-68,-34
-66,-1,13,-17,-16,-58,-40,-23,-51,-72
-81,-1,6,-12,-1,-44,-44,10,6,-98
-117,-26,-56,-18,7,40,53,89,65,-105
-87,-17,-51,-8,13,51,96,96,62,-90
-31,1,-8,2,10,-31,-7,20,13,-45
36,10,-80,-3,-2,-76,-73,-23,0,0
62,13,-60,-8,0,-21,-11,-6,6,6
35,-17,-3,0,27,48,50,-10,0,-19
24,-17,-38,14,23,56,38,-15,-12,4
-24,-46,-28,9,-5,26,10,7,9,33
-91,-81,-42,-10,-20,38,34,16,22,22
-117,-71,-37,-12,-10,40,52,14,51,3
-110,-63,-24,-8,14,28,27,27,58,13
-59,-7,8,16,7,1,-24,-20,5,21
-13,46,22,29,-4,-7,-43,-48,-45,-5
30,42,9,14,-16,-21,-49,-50,-53,6
8,11,-14,18,-12,-10,-19,-34,-51,-14
-48,-22,-16,39,14,30,25,0,-34,-53
-34,0,5,50,33,27,2,-17,-57,-45
21,39,20,42,33,-9,-16,-21,-69,-19
59,64,53,43,7,-50,-21,-19,-62,15
72,83,75,41,-26,-96,-48,-14,-32,41
21,35,38,-2,-63,-86,-22,-11,-11,14
-33,-35,-26,-38,-53,16,51,-11,-53,-34
17,-42,-33,-25,-32,52,11,29,8,-10
53,-7,-15,-8,-13,67,6,43,52,3
27,-24,-83,0,-28,31,11,48,77,52
-35,-75,-145,0,-25,13,-12,39,104,100
-32,-66,-51,6,-31,28,8,21,102,133
30,-20,-4,9,-26,6,-10,-2,66,120
68,17,19,18,-21,-29,-58,-1,42,99
22,0,22,35,6,6,-9,65,62,8
14,22,22,45,16,-16,-23,27,1,-32
7,58,52,40,16,-83,-63,-14,-22,-20
-34,40,45,23,15,-120,-78,-4,-9,-43
-69,14,23,10,-13,-126,-83,-8,-43,-128
-66,-5,-5,-28,-55,-95,-57,-61,-93,-176
-76,-39,-14,-30,-54,-11,15,-30,-39,-127
-80,-59,-5,-4,-8,67,65,35,40,-47
19,-40,-18,0,33,110,63,35,43,8
63,-38,-10,-6,44,153,93,7,-7,43
23,-39,-9,0,35,134,101,-23,-38,35
14,1,5,9,15,32,-5,-34,-53,-34
6,16,-11,-17,-17,-36,-42,-1,11,-62
-55,-4,-20,-20,-6,32,80,9,75,-81
-93,-11,9,5,25,104,138,-10,48,-83
-39,4,19,11,38,71,87,-17,10,-46
32,28,28,12,40,35,38,-15,3,-19
33,13,5,-12,25,39,35,-12,-12,0
20,21,-6,-43,12,29,31,-25,-18,0
46,28,-6,-59,4,17,12,-30,-7,11
39,-9,-2,-50,-1,14,-7,-2,29,29
-17,-42,14,-23,2,20,-21,25,54,37
7,-17,35,-4,-8,2,-23,24,58,56
31,14,38,6,-21,-17,-10,13,32,59
-27,32,24,23,-3,-14,18,13,7,29
-64,30,-62,29,1,-18,15,14,-14,-7
-21,68,-114,18,8,-30,10,1,-26,3
50,91,-69,17,4,-26,12,-10,-31,12
21,62,21,23,2,-23,25,3,-28,1
-18,58,40,19,2,-14,23,9,-17,2
-5,46,-30,8,6,-10,22,23,1,29
19,5,-98,4,9,-4,38,47,46,48
-13,-22,-41,-2,7,14,54,50,21,51
-38,-26,20,2,17,7,60,49,3,39
-35,-26,33,15,15,6,55,44,23,6
-16,-18,27,16,8,-4,26,25,31,0
12,-25,9,-6,-13,-23,5,-6,11,37
35,-13,3,-17,-20,-35,-28,-25,3,75
40,-1,16,-12,-1,-31,-35,-23,-15,57
14,21,28,-13,10,-21,-36,8,-25,14
-31,19,40,8,25,-8,-30,31,-33,-48
-21,11,33,19,21,-24,-33,7,-42,-55
-11,13,35,10,11,-19,9,13,-18,-42
-11,14,15,0,0,-11,25,28,-5,-43
7,17,19,4,-2,-20,-6,11,-18,-38
13,21,40,19,9,-14,9,-2,4,-27
15,25,25,4,-9,-21,11,7,33,0
47,39,11,-16,-32,-25,-5,2,33,39
68,23,-8,-19,-41,-26,-6,-23,24,56
28,12,13,-1,-25,-40,-34,-68,-38,0
-42,-7,22,19,-10,-25,-43,-65,-68,-70
-63,-23,20,28,-5,-4,-8,-9,-20,-60
-16,2,45,33,6,-5,-3,12,0,-48
2,23,32,37,12,3,-1,40,7,-29
5,19,36,35,12,13,-11,68,32,17
18,18,35,33,10,3,-2,57,54,27
36,29,30,24,8,-12,-6,40,44,14
53,54,20,24,18,-13,-24,18,0,12
72,67,-27,34,17,-19,-43,10,-15,27
67,61,15,29,18,-20,-48,-8,-30,27
30,10,10,-6,6,45,-7,-35,-54,7
57,-15,8,-25,-9,34,-7,-17,-25,35
76,-12,9,-23,-17,-22,-33,-4,-8,36
26,-59,6,-15,-11,-34,-19,4,3,-5
-41,-100,-13,2,15,-11,28,21,11,-41
-50,-90,-24,5,23,1,8,11,-17,-50
-36,-74,4,-13,0,22,27,5,-46,-36
-28,-57,-5,-3,-4,11,-1,-1,-52,-32
-39,-39,-27,11,10,-4,-30,0,-50,-25
-21,-38,-101,17,15,15,-11,-3,-21,1
45,-22,-40,37,20,13,-24,-17,-10,13
25,-15,20,33,15,-2,-34,-31,-13,-10
-37,-31,42,10,5,-13,-24,-23,-12,-17
2,-6,26,-19,-17,-20,-36,-19,25,35
57,25,26,-34,-41,-31,-57,-34,44,68
88,48,28,-20,-42,-31,-68,-77,-14,48
133,61,38,5,-19,-32,-53,-83,-23,16
111,16,16,8,10,27,40,5,-16,-91
113,1,21,21,1,36,35,-2,-54,-116
70,-1,35,20,-7,22,4,-34,-64,-52
9,-15,18,6,-10,22,17,-22,-33,3
43,-52,-15,-18,-37,32,24,-6,-5,66
9,-81,-23,-30,-37,21,29,-7,-7,68
5,11,47,19,9,8,36,-54,-16,25
0,48,59,36,15,14,50,-55,-36,15
-32,22,48,33,-1,22,49,-18,-75,-19
-31,2,37,27,22,41,49,0,-53,-52
-52,-10,17,10,15,31,60,47,58,-60
-13,-5,13,0,0,22,70,69,93,-35
28,15,20,11,-17,17,65,35,48,-17
26,26,24,-1,-30,5,39,3,6,0
18,1,-2,-33,-31,0,19,-23,-30,17
-3,-3,-1,-45,-25,-12,4,-68,-72,-5
-6,16,12,-37,-35,-28,-13,-90,-128,-55
4,10,3,-42,-37,-38,-39,-69,-134,-51
23,-14,-9,-26,-25,-34,-43,-61,-115,-5
29,-53,-55,-3,-3,-4,1,15,-48,35
47,-30,-9,32,34,15,31,18,-79,32
39,-10,36,60,62,34,34,-5,-125,-23
-3,-19,-8,42,55,20,36,41,-34,-3
-17,-27,-3,5,33,-4,30,63,64,33
39,-10,13,2,10,-11,15,24,61,50
120,21,31,23,-2,-13,-21,-93,-99,27
119,-21,-6,-21,-32,-24,-31,-121,-23,43
23,-54,-20,-37,-30,-13,7,-121,26,15
-111,-54,7,6,10,30,62,-110,-81,-92
-148,-35,9,23,20,19,76,-118,-206,-106
-140,-13,7,13,3,-7,39,-70,-167,-92
-104,-43,-51,-20,-20,-26,15,123,165,-34
-1,-43,-164,-48,-63,-64,-9,255,432,80
35,-14,-90,-61,-70,-61,-8,285,466,76
27,-7,-9,-60,-39,-48,18,217,342,37
36,9,3,-27,-26,-35,1,77,168,48
3,-11,-35,-13,-13,-14,0,19,56,51
-86,-60,-22,-32,-29,-12,18,49,42,31
-112,-65,8,-24,-12,-8,4,37,18,9
-58,-49,18,-7,-3,-28,-53,39,92,107
20,1,29,2,-11,-43,-80,-17,88,220
21,28,50,24,24,-7,-55,-163,-156,88
-56,-9,17,8,19,22,-2,-169,-283,-105
-94,-61,-18,-29,-15,19,27,-137,-204,-127
-39,-36,-7,-19,-23,10,0,-169,-251,-113
-39,21,52,28,8,0,-45,-247,-364,-293
-95,-60,-44,-51,-79,-62,-10,120,285,-198
-63,-75,-78,-79,-122,-69,48,575,920,42
94,25,18,-11,-60,-18,30,568,773,143
164,88,67,35,-1,-7,-39,264,352,140
77,40,-1,30,1,-3,-69,92,209,185
12,-10,-11,12,0,-3,-47,48,121,115
-31,-32,1,18,3,30,-14,31,-3,-111
-78,-27,29,33,28,55,14,21,-65,-263
-92,-20,14,29,30,49,8,10,-76,-225
-94,-23,3,14,6,24,-4,1,-49,-135
-50,1,-3,-9,-14,0,-17,-12,-50,-50
2,21,-8,-12,2,5,-22,-34,-82,-31
-31,0,-13,0,33,35,0,-74,-143,-46
-67,-19,-16,18,57,54,-11,-169,-288,-78
-53,-33,30,35,66,48,-52,-302,-486,-66
29,-15,30,32,43,11,-81,-385,-597,10
124,35,20,20,5,-38,-121,-429,-624,90
131,81,29,15,-4,-58,-143,-431,-628,54
83,97,25,11,2,-44,-111,-296,-480,-59
74,45,-43,-40,-36,-60,-48,81,102,-32
145,48,-93,-95,-84,-76,10,427,766,86
241,110,-33,-50,-55,-43,34,464,906,123
238,111,27,15,10,-1,14,266,523,23
211,36,-3,2,7,0,-46,37,83,14
104,-77,-46,-21,-18,-23,-50,-36,-17,100
9,-114,-57,-18,-21,2,15,-1,66,171
0,-106,-91,-40,-40,-8,24,18,95,169
36,-106,-123,-63,-62,-36,-12,18,89,185
25,-74,-48,-26,-29,-2,50,74,112,166
-132,-63,3,27,27,42,126,150,164,-18
-323,-74,23,46,70,69,129,174,167,-173
-328,-37,40,54,78,70,88,159,103,-144
-169,47,80,61,59,40,31,94,24,-55
-73,48,71,41,39,31,5,57,8,-26
-12,70,68,37,31,12,-23,-22,-86,-110
-20,99,82,58,51,23,-15,-60,-119,-123
-53,65,55,54,47,37,22,-27,-81,-99
-62,20,44,33,23,33,2,-45,-111,-140
57,22,7,-7,-35,-38,-109,-148,-141,3
102,21,-49,-13,-48,-34,-131,-173,-189,93
34,19,-93,25,-4,34,-43,-128,-268,-40
-61,-8,-139,33,18,57,39,-45,-211,-120
-149,-26,-142,22,30,75,96,85,18,-159
-103,14,-73,58,53,79,83,75,94,-146
-57,12,47,58,49,67,49,-8,1,-155
19,44,96,71,37,47,9,-133,-136,-115
80,51,86,69,35,41,-3,-221,-245,16
41,16,57,81,52,94,15,-217,-285,85
39,18,86,103,63,117,40,-213,-324,108
78,47,94,85,53,67,15,-216,-325,98
56,19,22,28,-7,0,-6,-90,-104,118
7,-10,0,12,-27,11,36,89,174,166
3,-13,-7,23,-10,27,49,108,195,143
-123,-24,-15,-32,-73,-27,-35,50,137,-40
-39,-36,-34,-60,-105,-55,-92,-40,59,87
123,0,-48,-71,-130,-93,-152,-147,-93,294
202,8,-114,-81,-123,-100,-190,-270,-226,468
157,-4,-171,-68,-94,-53,-150,-320,-253,489
34,-39,-93,-57,-72,14,-59,-283,-156,297
-71,-52,-86,-26,-51,22,-4,-278,-141,-132
-147,14,0,43,1,21,-54,-367,-342,-433
-252,4,37,19,-29,-6,-30,-61,-37,-483
-243,-53,-39,-55,-109,-63,34,406,549,-240
-197,-74,-45,-22,-74,-16,70,531,610,-70
-140,-31,-75,40,24,58,111,436,354,-17
-3,62,-31,105,91,101,100,223,38,-34
112,116,106,143,103,137,94,26,-201,-6
72,67,124,116,94,130,63,-100,-282,91
13,34,101,117,94,118,18,-240,-398,94
16,14,102,127,107,131,21,-324,-440,32
-91,-71,65,117,120,150,75,-243,-259,-164
-160,-45,63,105,102,126,99,-59,-42,-344
-76,35,-2,53,28,26,66,101,135,-253
-69,22,-39,13,-17,-48,33,152,228,-136
-157,-67,-38,-56,-67,-64,61,238,331,-62
-170,-127,-92,-84,-45,-11,101,328,418,-26
-58,-103,-170,-78,-16,44,115,341,477,-30
251,12,-81,-76,-38,31,88,324,506,71
344,26,-16,-60,-45,-28,28,268,454,127
118,-22,17,0,11,5,35,166,213,-31
-28,-81,-29,18,58,61,80,109,52,-88
79,-34,-13,16,35,17,49,52,39,62
150,-17,13,-75,-71,-77,-31,113,349,171
23,-28,-20,-51,-55,-53,-38,27,222,42
-12,-5,-63,-14,-23,-24,-8,-51,27,-42
4,5,4,-8,-14,19,32,-46,-87,-94
52,-22,13,-11,-9,40,94,36,-61,-50
216,10,25,-31,-11,19,84,49,-27,124
429,98,88,2,-18,-19,19,-25,-64,282
524,74,57,-30,-63,-54,-17,-33,43,335
451,-31,-7,-68,-83,-53,-21,-24,111,316
287,-92,4,-33,-30,4,20,-46,-12,290
-1,-90,42,11,12,51,65,-28,-67,204
-330,-64,97,53,54,88,97,12,-64,-26
-447,-31,125,80,78,85,73,10,-38,-256
-367,-14,57,86,60,61,41,-41,-76,-344
-226,-22,60,74,35,34,25,-75,-112,-291
-116,-26,98,68,12,19,-4,-132,-216,-218
4,-3,97,55,7,17,-47,-196,-327,-94
88,9,101,67,19,33,-35,-194,-358,7
22,-65,70,61,19,44,-7,-63,-209,36
-91,-131,-22,41,23,46,-2,46,-11,59
-114,-120,-44,47,35,54,23,35,95,108
-131,-83,67,71,75,92,50,-12,-1,16
-159,-88,97,85,107,100,66,-58,-144,-161
-149,-121,51,37,50,45,15,-105,-142,-172
90,-112,25,13,-20,-17,-90,-179,-167,61
20,-163,20,-6,-45,-21,-50,-85,-80,51
-71,-143,27,29,-23,-6,3,32,53,6
-152,-77,42,57,-11,3,44,148,151,-145
-199,-92,37,32,8,23,103,247,259,-174
-122,-156,-26,-13,-1,17,89,179,313,14
65,-99,-43,-46,-53,-28,-20,22,239,206
227,7,-4,-49,-96,-63,-91,-82,110,306
208,-5,0,-45,-93,-56,-76,-93,15,231
75,-33,-5,-24,-58,-13,-15,-18,37,87
93,27,18,-8,-53,-2,-15,11,57,76
129,87,44,-2,-61,-33,-44,7,17,40
113,108,66,6,-56,-34,-55,-13,-16,-11
58,75,72,28,-23,-4,-39,-30,-26,27
33,15,49,37,1,13,16,14,61,206
138,-8,0,3,-38,-23,7,21,99,373
352,-15,-40,-41,-88,-73,-53,-9,54,455
436,-83,-88,-53,-78,-58,-59,-31,66,525
317,-130,-83,-29,-48,-30,-34,-22,54,423
182,-116,-62,-37,-51,-24,-8,-28,46,248
74,-76,-57,-40,-38,-36,-17,-31,61,144
-130,-55,-23,28,34,8,22,3,96,7
-400,-14,68,140,144,87,64,-47,-91,-311
-411,51,179,211,215,140,65,-106,-258,-531
-191,82,157,180,171,125,52,-136,-318,-459
27,90,102,101,95,59,3,-184,-323,-308
1,91,80,93,84,37,-33,-199,-325,-396
-72,68,60,81,68,-16,-83,-195,-321,-351
0,14,14,42,32,-45,-110,-145,-281,-163
36,-14,-37,51,45,14,-79,-132,-366,-66
-43,-55,-23,37,56,74,10,-153,-417,-15
-128,-88,-38,-12,9,58,29,-173,-346,17
-71,-69,-48,-15,-2,42,19,-250,-413,115
-126,-66,-73,43,59,77,74,-205,-421,49
-252,-67,-103,55,66,55,90,-60,-79,53
-250,-9,-57,28,6,-33,23,123,371,151
-195,-42,-172,-65,-85,-114,29,445,906,218
-57,0,-141,-59,-87,-112,1,490,985,202
44,73,45,10,-20,-85,-57,145,512,251
19,73,87,21,15,-59,-80,-28,75,148
-2,36,41,-12,-17,-85,-87,89,119,108
138,58,25,-40,-78,-176,-146,192,426,533
308,84,38,-38,-80,-171,-146,129,475,874
265,30,47,9,-10,-19,10,129,354,719
50,-39,13,26,18,54,106,167,256,324
-128,-31,20,36,15,11,59,124,155,89
-60,78,107,52,13,-24,-43,13,10,238
10,67,96,29,-8,-22,-76,-78,-159,185
94,18,34,-5,-43,-5,-54,-14,-67,333
270,-16,-34,-87,-123,-89,-122,-20,115,770
365,-33,-83,-118,-163,-122,-193,-181,36,840
359,-56,-117,-97,-107,-38,-115,-182,2,679
118,-145,-9,-46,20,95,90,-27,-63,112
-279,-265,72,62,181,231,255,47,-340,-890
-522,-346,121,150,257,297,308,-3,-560,-1383
-485,-250,137,169,231,237,204,-145,-608,-1180
-290,-112,176,168,190,135,39,-317,-717,-876
-295,-66,158,173,212,147,12,-390,-922,-906
-338,-76,82,139,207,188,68,-323,-983,-1143
-277,-107,-19,66,123,150,92,-93,-644,-1178
-118,-168,-38,-28,22,71,74,86,-241,-937
105,-181,7,-44,-20,27,28,136,-85,-505
137,-246,-33,-87,-48,3,-11,170,91,32
93,-290,-79,-121,-62,-4,-17,162,158,368
120,-234,-52,-105,-56,-25,-34,85,84,378
168,-210,-27,-84,-57,-66,-90,5,108,367
214,-240,-75,-126,-117,-120,-100,69,436,366
34,-239,-90,-143,-129,-85,12,355,808,79
-105,-125,33,-32,-3,42,126,497,780,-222
69,-16,122,67,93,52,12,148,229,-184
200,-91,-11,-44,-36,-104,-129,-68,133,70
20,-281,-140,-161,-157,-122,0,188,600,188
-67,-307,-84,-79,-54,5,133,343,693,331
30,-188,7,12,39,61,91,235,457,493
217,-68,0,4,5,14,11,106,409,948
341,-35,-43,-62,-91,-80,-67,52,461,1697
597,-9,-68,-153,-219,-254,-248,-59,488,2260
919,5,-151,-277,-387,-457,-479,-199,585,2501
689,-12,-152,-259,-353,-404,-441,-142,532,1348
248,-69,-110,-180,-222,-220,-217,10,441,177
211,-38,-106,-174,-209,-198,-184,-44,330,-149
0,47,5,-46,-56,-39,-111,-140,-16,-833
-543,49,161,193,239,292,212,11,-335,-1626
-865,21,223,326,390,447,427,146,-465,-1747
-676,106,243,318,353,349,323,39,-530,-1419
-493,200,291,300,303,259,202,-29,-546,-1297
-319,266,284,288,289,275,232,76,-426,-1216
18,284,216,220,201,238,216,164,-239,-712
85,196,111,126,123,194,195,176,-162,-327
-21,132,45,82,120,201,231,197,-80,-335
-166,157,7,67,101,142,148,88,-126,-545
-376,151,22,41,59,78,64,14,-157,-768
-299,135,3,31,37,48,32,-24,-180,-612
-155,207,-23,58,59,54,3,-108,-318,-444
-76,272,9,74,68,55,4,-122,-307,-184
-49,239,45,46,50,37,3,-101,-224,39
-43,222,39,32,24,10,-58,-246,-382,106
43,197,-7,-6,-14,-17,-136,-483,-707,153
194,187,-21,-34,-38,-33,-167,-590,-888,233
214,202,0,-17,-33,-20,-117,-570,-945,132
35,147,1,12,-6,6,-62,-399,-759,15
-81,104,-26,-5,-18,-7,6,-7,-98,3
-101,136,15,6,-6,17,95,448,719,27
-24,169,53,24,8,53,105,514,901,214
116,159,16,-12,-41,3,19,341,689,371
273,123,-53,-84,-109,-57,-39,203,545,438
296,93,-121,-102,-120,-75,-58,124,436,263
87,78,-102,-59,-75,-53,-42,94,297,-117
-186,66,-32,-15,-41,-22,15,146,295,-121
-137,60,-52,-54,-90,-80,0,120,344,212
165,119,-71,-118,-152,-134,-71,-6,282,407
323,195,-50,-112,-165,-139,-119,-63,166,441
257,232,12,-54,-97,-70,-59,31,146,391
163,226,28,-40,-43,-28,-22,64,122,440
124,230,49,15,18,0,-19,-20,4,500
235,233,69,47,26,-2,-43,-67,11,614
287,142,-40,-4,-16,-5,-15,23,175,613
149,24,-117,-53,-18,46,57,112,184,250
-17,12,-78,-28,13,76,69,45,10,-147
-113,67,-12,10,36,61,27,-84,-189,-6
169,70,7,17,45,51,-41,-267,-368,801
430,0,-70,-86,-57,-26,-163,-434,-498,1161
309,-67,-150,-185,-140,-76,-194,-456,-565,601
135,78,-51,-108,-93,-77,-239,-623,-984,-170
-128,222,86,22,29,-11,-169,-732,-1351,-798
-255,241,145,111,125,60,-66,-535,-1064,-1073
-226,144,-25,4,13,-10,23,114,150,-741
-120,67,-117,-117,-115,-43,193,824,1335,-319
-16,134,-17,-40,-31,65,295,828,1299,-136
-65,258,63,38,36,65,164,354,653,-194
-179,310,97,102,103,86,119,103,266,-212
9,335,67,89,98,97,107,79,189,130
196,270,-22,50,71,85,68,-10,77,595
-9,134,10,79,111,116,61,-167,-222,165
-169,63,65,96,139,134,88,-170,-313,-266
-152,114,96,121,149,103,53,-159,-256,-240
-58,222,168,110,94,5,-38,-98,-93,-225
53,237,109,28,17,-60,-54,112,268,-192
-48,125,-9,-58,-58,-61,36,319,600,-358
-8,11,-91,-127,-109,-97,-8,280,640,-146
104,-52,-141,-159,-139,-117,-84,172,532,306
99,-49,-117,-118,-92,-70,-75,95,343,475
119,10,-44,-47,-27,-27,-37,57,244,462
-10,47,6,36,76,70,123,173,278,190
-185,89,115,179,246,232,288,262,243,-170
-150,148,183,189,241,207,192,124,48,-221
-250,104,102,100,141,128,112,91,34,-242
-368,55,52,48,105,114,115,116,-19,-805
5,149,60,23,36,4,-31,-65,-184,-383
345,156,8,-37,-43,-62,-103,-144,-215,227
533,116,-43,-98,-98,-86,-112,-144,-132,772
614,101,-56,-102,-92,-73,-94,-130,-73,1016
590,51,-128,-63,-41,-10,-20,-40,-13,804
159,9,-122,28,54,99,104,65,-25,-215
-432,81,64,163,200,215,225,112,-94,-1129
-563,92,96,149,182,184,203,64,-87,-567
-363,115,87,98,106,98,99,-78,-100,623
-172,155,53,49,36,10,-55,-185,-146,1070
-307,42,44,16,20,10,-63,-65,-5,721
-419,-61,-43,-39,-32,-18,-45,-8,12,-383
-390,-45,-58,-46,-50,-12,18,2,-115,-1467
-148,157,101,182,138,80,100,71,-105,-1028
1,189,207,209,93,-3,22,73,-3,-378
35,153,187,189,53,-75,-57,50,38,-132
41,113,146,180,-1,-163,-139,-12,-14,-191
180,136,55,93,-89,-251,-243,-180,-135,7
211,93,-7,1,-110,-204,-221,-209,-130,346
186,53,-52,-15,-55,-67,-131,-107,-34,527
248,51,-97,-43,9,71,-30,5,65,436
236,63,-156,-51,47,93,73,138,128,12
141,83,-116,-36,21,20,64,183,158,-258
2,92,-72,-49,-45,-17,26,46,11,-420
-169,44,-2,5,-32,55,136,-35,-114,-524
-195,23,42,49,26,135,215,-24,-157,-459
-272,27,21,42,73,120,201,52,-176,-536
-235,33,-21,-26,30,35,127,43,-170,-491
-33,11,-93,-86,-21,32,59,20,-98,-195
482,139,-112,-194,-172,-43,-35,-88,-77,338
405,188,-130,-216,-182,-82,-24,-72,-26,441
186,154,-108,-124,-93,-68,2,-37,28,414
-53,162,25,36,30,-42,-9,-91,-49,203
-134,102,55,65,88,-9,0,-77,-42,30
-49,-18,-48,-16,29,-26,-28,-75,0,33
69,-70,-106,-45,0,-19,-5,-59,9,311
61,-16,-35,-7,23,10,37,-73,-89,237
-45,85,-10,-11,0,-33,-15,-183,-282,-89
31,66,-79,-94,-74,-98,-62,-188,-159,477
255,1,-221,-175,-168,-206,-186,-239,-19,1094
392,-44,-290,-238,-224,-263,-249,-229,156,1146
131,-74,-133,-130,-95,-99,-42,66,426,491
-441,57,154,158,214,169,218,236,227,-949
-666,136,294,292,347,268,342,269,23,-1739
-218,123,172,143,186,97,203,119,43,-851
112,104,77,30,71,-16,95,35,147,84
186,109,41,-14,14,-76,-23,-61,71,557
68,123,49,0,14,-73,-48,-83,-43,780
-70,48,-69,-12,5,-38,4,-62,-133,487
-157,-68,-159,-59,-25,-29,9,-140,-324,-120
-233,-17,-13,23,89,80,126,-158,-534,-717
-243,96,128,128,184,162,192,-186,-675,-782
94,123,82,27,69,7,19,-333,-712,-279
590,148,14,-115,-83,-171,-202,-412,-588,5
567,95,-64,-242,-193,-255,-253,-358,-510,-340
106,-83,-204,-357,-262,-212,-61,35,-71,-459
-290,-157,-148,-216,-119,-53,97,242,210,-383
-543,-191,-48,-65,21,15,100,158,78,-468
-367,-139,-49,-81,-15,-41,16,162,311,-50
3,-68,-78,-153,-111,-103,23,370,914,683
171,9,-78,-187,-163,-136,8,503,1277,970
56,152,79,-33,-8,-8,6,180,542,589
6,140,121,36,85,59,-11,-276,-364,177
130,0,-16,-82,5,28,4,-371,-632,425
317,55,56,-35,42,-20,-150,-605,-1145,416
388,-32,-100,-213,-171,-210,-212,-240,-271,403
341,-69,-247,-327,-305,-276,-73,614,1435,279
51,40,-135,-105,-100,-76,98,897,1697,-81
-345,87,27,123,167,147,202,557,742,-676
-541,-62,-23,125,211,219,265,363,248,-959
-411,-160,-24,50,134,157,220,273,41,-482
-173,-113,-3,-15,40,35,76,127,-50,308
-139,-43,-21,-2,27,14,-2,29,-132,331
-161,-19,67,20,49,46,20,14,-83,91
-150,-3,97,27,48,30,-32,-140,-268,-243
-6,14,64,-8,-12,-41,-118,-302,-433,-319
102,1,39,-21,-8,11,-62,-234,-250,-147
-55,-67,14,26,89,141,85,25,10,-261
-62,-63,64,65,104,156,138,204,148,-260
-23,-23,66,37,53,81,113,326,250,36
24,62,33,7,-18,0,92,481,539,366
65,95,64,35,11,11,94,459,555,157
120,26,60,1,6,-5,0,214,269,-301
290,5,38,-56,-48,-68,-122,49,121,-306
326,133,105,-16,-42,-98,-160,-59,-56,-139
-194,102,150,79,51,24,-14,52,-37,-144
-506,-38,134,134,179,194,191,237,41,-151
-141,-41,58,85,127,144,141,220,72,492
163,9,14,-14,-39,-28,-56,128,158,927
194,0,-13,-66,-106,-80,-98,95,257,678
34,-97,-73,-76,-80,-24,-58,69,161,10
-96,-60,7,23,38,67,19,69,0,-703
-64,77,155,130,119,79,36,-7,-167,-812
69,75,154,114,88,38,10,-74,-244,-447
288,36,75,28,4,-27,-49,-157,-262,220
511,-1,-2,-43,-68,-87,-120,-223,-282,787
490,-50,-36,-56,-63,-90,-142,-250,-333,680
223,-14,14,-1,-22,-66,-146,-297,-454,234
-157,53,100,96,73,11,-39,-143,-251,-148
-241,99,175,175,152,79,47,29,-44,-520
-42,113,111,72,70,29,45,99,26,-409
51,30,-26,-72,-63,-60,-14,125,153,-86
90,-5,-32,-58,-78,-70,-31,54,141,354
41,-59,-68,-63,-66,-72,-53,-80,-67,663
144,-194,-173,-160,-130,-110,-94,-144,-126,996
-258,-193,-67,-25,43,67,79,-52,-155,-664
-597,-167,33,100,176,189,205,57,-149,-1564
-363,-45,146,197,242,243,283,194,6,-1040
41,15,146,166,171,186,166,5,-243,-220
455,55,40,30,7,1,-69,-360,-626,558
783,113,-38,-93,-153,-170,-218,-422,-595,1238
773,84,-74,-154,-217,-241,-223,-207,-115,1521
358,-40,-96,-153,-184,-194,-118,98,443,1067
-160,-84,-89,-92,-89,-62,27,387,840,-155
-489,-30,-7,-7,-5,27,112,451,817,-966
-571,-41,64,54,70,94,144,313,455,-573
-420,-116,1,22,51,66,92,148,213,-130
-196,-142,-29,-9,16,31,62,77,106,182
-42,-87,-15,-11,1,24,38,60,42,325
326,56,25,-24,-70,-102,-157,-229,-218,409
373,47,3,-29,-86,-129,-201,-388,-519,-58
102,-77,-59,-21,-6,18,-21,-207,-487,-718
-2,-92,-44,12,63,118,124,86,-84,-637
121,-15,8,55,89,132,142,191,-6,71
307,-18,-38,-40,-25,10,-38,-99,-382,923
431,-91,-140,-135,-151,-120,-214,-349,-515,1591
525,-64,-252,-228,-269,-279,-369,-327,-205,1843
692,157,-124,-232,-306,-334,-412,-259,10,2045
364,179,-109,-263,-366,-376,-390,-165,165,1232
185,22,-244,-358,-459,-419,-372,-21,353,32
426,47,-133,-191,-269,-228,-163,139,455,-204
-522,70,275,305,326,252,290,434,338,-1656
-605,-72,219,312,373,377,466,678,607,-1274
-519,-118,204,302,361,402,467,605,420,-1113
-637,-59,231,280,301,308,317,382,107,-1251
-750,-133,141,197,223,185,175,216,-44,-1229
-776,-231,80,184,224,192,179,168,-86,-1071
-508,-212,27,129,155,159,158,146,-105,-572
-198,-118,-38,41,51,95,93,115,-134,-281
-127,-4,37,81,77,114,74,-8,-325,-448
-198,13,87,136,144,144,57,-127,-597,-827
-84,-20,5,48,53,42,33,-20,-273,-534
46,-48,-81,-70,-64,-73,-30,151,225,30
80,-4,-72,-69,-67,-85,-54,225,487,385
90,39,-11,-21,-18,-48,-23,271,522,250
112,49,34,20,32,-15,-16,171,218,72
70,-18,-57,0,17,-15,-26,67,-28,170
39,-84,-137,-64,-37,-49,-46,38,-4,310
158,-38,-152,-97,-80,-70,-62,79,170,634
517,115,-24,-71,-83,-84,-79,69,157,1300
491,104,-20,-117,-146,-166,-214,-121,-14,893
200,22,-41,-89,-99,-119,-199,-179,-247,-77
213,33,-59,-100,-114,-126,-191,-159,-221,-822
107,64,-12,-39,-49,-46,-79,-14,-132,-1317
302,110,-12,-45,-68,-63,-108,-95,-241,-665
787,146,-66,-136,-171,-168,-246,-239,-265,1291
737,71,-127,-199,-219,-212,-268,-200,-86,2882
237,-46,-150,-175,-190,-193,-220,-131,43,2204
-265,-74,-87,-99,-95,-140,-130,32,300,509
-654,-9,86,90,133,84,144,332,465,-1173
-473,82,156,212,252,199,239,359,152,-1697
-225,85,73,269,307,211,200,197,-288,-1359
-286,-23,22,256,299,199,182,148,-315,-917
-270,-123,-13,114,132,71,115,232,57,-684
-168,-79,56,111,108,41,104,274,118,-739
16,36,133,168,156,86,101,187,-96,-472
102,36,100,103,81,55,75,72,-194,-151
117,28,38,25,23,40,75,20,-192,-241
-34,26,47,69,42,56,87,50,-85,-599
-65,27,23,103,52,45,65,78,17,-556
-101,37,48,157,110,101,123,138,7,-490
-189,11,67,189,139,109,154,135,-35,-659
-53,-42,43,127,80,10,86,76,-4,-293
62,-89,8,33,-33,-126,-54,-38,8,194
101,-88,-4,-102,-139,-207,-154,-122,-34,413
215,-45,-89,-269,-229,-231,-200,-168,-96,560
278,-24,-209,-388,-291,-224,-218,-200,-123,560
114,-28,-160,-285,-174,-61,-76,-80,-67,340
-65,-23,-54,-110,-30,86,71,9,-13,44
-8,68,-41,-52,-12,40,23,-60,-69,-107
388,203,-84,-45,-51,-71,-80,-141,-201,84
705,233,-54,-106,-161,-221,-236,-267,-319,639
542,149,-85,-128,-189,-235,-268,-380,-486,706
182,32,-124,-69,-101,-128,-177,-376,-590,360
-36,-84,-83,-56,-62,-62,-123,-330,-534,406
-519,-210,-88,-1,18,33,33,-110,-186,726
-74,-171,-283,-146,-168,-162,-97,-48,242,1197
-83,-150,-185,-102,-120,-91,12,317,875,436
64,-78,-66,0,-33,0,90,435,803,-522
686,129,-67,45,-42,-120,-147,77,284,-294
913,228,-121,-35,-179,-332,-418,-232,37,746
279,108,-54,-20,-135,-295,-353,-253,-114,697
-463,-34,121,144,102,-54,-78,-35,-173,-492
-650,-35,236,251,232,108,109,172,-115,-1373
-665,-74,196,201,227,175,210,272,-43,-1434
-623,-128,-26,86,162,254,359,359,88,-1139
-346,55,14,82,141,215,322,257,99,-948
-283,109,173,119,124,97,132,100,78,-715
-300,0,139,153,71,21,0,-84,-54,-507
-128,4,125,167,34,-12,-37,-160,-103,147
33,84,148,176,23,-51,-50,-174,-100,790
-15,39,143,90,-38,-144,-75,-175,-32,695
-294,-141,37,-19,-42,-81,77,73,150,-328
-394,-218,36,20,78,102,240,233,56,-1112
-119,-187,48,68,130,191,265,110,-226,-662
168,-103,-36,-37,44,144,84,-232,-671,-30
296,-55,-163,-170,-66,82,-35,-411,-819,427
410,-113,-214,-256,-178,-60,-84,-299,-503,467
371,-146,-238,-321,-261,-127,-30,2,77,336
251,-73,-203,-254,-224,-98,34,184,502,827
484,20,-121,-184,-186,-139,-58,120,600,2090
815,113,-19,-185,-216,-218,-210,-184,333,2386
485,23,-49,-248,-199,-131,-147,-387,-361,897
-276,54,76,-85,52,176,174,-272,-855,-1151
-853,30,165,83,193,272,278,-196,-950,-1738
-717,-149,-23,-51,-7,60,180,126,-15,-914
-485,-203,-89,-115,-75,20,169,467,826,-373
-337,-162,-1,-8,31,113,187,368,566,-301
-333,-59,91,77,108,140,198,359,615,-854
-405,-29,112,91,80,113,167,431,615,-1297
-271,-80,72,60,23,64,76,268,208,-698
-215,-82,42,37,13,31,25,60,21,-124
-148,35,73,63,43,63,49,-39,-86,-107
62,188,86,88,47,58,18,-137,-272,51
369,238,83,26,-37,-21,-70,-295,-407,563
413,203,45,-28,-82,-52,-102,-396,-353,821
179,104,55,0,-40,-16,-75,-436,-429,295
79,-52,-78,-114,-163,-112,-140,-456,-584,-109
118,-213,-233,-233,-289,-199,-139,-190,-172,-266
-196,-271,-279,-171,-238,-190,-85,164,332,-208
-462,-137,-80,-5,-66,-84,-31,322,688,192
-102,-67,-1,13,-47,-81,-61,258,806,788
256,-47,-102,-42,-114,-120,-100,204,638,1141
247,-124,-125,-114,-152,-117,-111,86,205,953
384,-161,-173,-181,-200,-188,-226,-180,-149,1048
158,-189,-194,-191,-204,-199,-173,-74,206,1256
-22,-158,-70,-47,-34,36,207,493,1135,1838
4,-127,-62,-16,-13,100,275,561,1184,1530
181,-139,-196,-130,-154,-51,25,185,510,405
365,-151,-173,-168,-188,-148,-177,-180,-68,-354
-5,13,39,18,2,-11,-75,-190,-372,-1685
-782,244,336,344,334,281,304,159,-275,-2899
-983,337,475,508,478,369,397,268,-235,-2645
-690,249,345,389,371,266,276,109,-311,-1461
-230,190,142,213,196,140,146,-151,-620,-443
275,163,55,98,77,47,-23,-466,-1094,143
375,81,10,-17,-46,-83,-181,-697,-1314,354
86,10,-70,-144,-188,-215,-282,-714,-1182,390
346,211,-42,-176,-242,-294,-382,-739,-1027,600
887,351,-92,-167,-244,-281,-428,-894,-1226,1550
1114,201,2,-60,-62,-28,-220,-1019,-1966,1475
319,14,43,25,44,30,-66,-652,-1156,184
-387,-216,-26,3,26,4,118,123,289,-923
-1025,-539,-201,-93,-19,58,400,1117,1907,-1690
-1303,-418,-80,78,143,254,628,1582,2545,-1655
-722,-108,137,240,250,310,502,1301,2050,-78
-176,0,138,180,141,142,140,666,1235,861
-195,-102,22,86,57,51,39,364,968,841
-83,-128,-57,-1,-27,-55,-75,184,690,201
131,80,21,30,-38,-81,-162,61,354,-640
-60,135,92,114,72,74,-2,167,183,-1208
-417,34,101,139,165,208,168,289,163,-921
-236,87,106,116,141,156,116,230,230,-13
220,159,53,11,10,-17,-55,47,199,411
693,171,-57,-121,-155,-191,-267,-169,50,464
822,173,-86,-130,-173,-161,-241,-143,2,207
365,127,26,32,32,52,-18,15,-22,-269
-309,79,127,188,217,206,125,47,-265,-1160
-729,65,177,278,312,282,207,1,-447,-799
-555,34,61,207,223,179,85,-177,-512,1256
-22,-9,-132,71,81,51,-62,-309,-539,1851
41,-151,-242,-80,-48,-40,-109,-260,-394,272
-262,-213,-157,-78,-26,21,40,26,-55,-1136
-284,-122,-54,-19,18,34,91,115,58,-1186
-127,-18,8,21,36,9,51,74,35,-678
-95,15,16,23,4,-29,-2,40,89,-401
-207,-49,-92,-86,-96,-121,-106,-57,17,-195
3,-80,-156,-153,-140,-126,-111,-102,-160,106
582,126,-40,-45,-46,-58,-86,-173,-383,809
668,216,-38,-62,-91,-128,-162,-223,-337,1115
207,10,-150,-180,-194,-202,-146,0,343,815
-77,-133,-174,-168,-149,-131,-75,91,471,-63
-152,-122,-89,-58,-26,-27,-3,84,370,-214
29,5,18,33,45,34,20,60,256,729
338,132,67,43,28,17,-51,-73,-14,1427
263,96,-24,-19,-28,-33,-108,-147,-73,773
63,74,-8,23,24,18,-56,-94,-70,-208
-7,159,148,171,183,160,92,27,-42,-687
-51,254,287,248,247,205,144,57,-139,-965
163,229,211,153,137,89,39,-16,-169,-426
215,100,94,70,80,77,59,44,-138,-211
77,8,47,45,64,110,88,19,-269,-240
136,-84,-46,-53,-50,12,11,-94,-255,354
219,-94,-68,-94,-98,-47,-40,-112,-198,350
168,53,128,88,99,105,86,6,-168,-59
-349,46,233,211,224,206,207,160,-84,-558
-606,-196,32,42,76,83,100,114,-57,-592
-374,-253,-99,-108,-98,-98,-66,15,-51,-379
-91,-148,-155,-177,-230,-236,-205,-56,28,66
-78,-93,-115,-184,-251,-266,-261,-124,42,216
-50,16,7,-49,-95,-103,-135,-98,-64,-300
297,222,143,103,52,44,38,7,-167,-454
527,256,94,40,-18,-36,-21,6,-33,310
695,52,-108,-190,-232,-195,-187,15,338,1650
560,-205,-247,-268,-242,-169,-165,21,322,2503
421,-208,-169,-161,-132,-121,-182,-127,-36,2446
377,-90,-31,-25,-17,-66,-142,-168,-195,726
-95,-164,12,37,65,-1,-57,-60,-37,-465
-452,-281,-76,-28,13,0,55,216,454,-306
82,-189,-185,-187,-211,-194,-107,178,683,161
711,1,-256,-312,-368,-402,-429,-199,323,332
797,184,-45,-165,-225,-287,-393,-357,-86,672
225,200,166,128,122,60,-73,-260,-517,1045
-439,135,233,246,305,242,157,-58,-639,308
-651,23,180,247,308,287,332,211,-358,-1393
-571,-36,132,228,280,283,415,422,52,-2252
-706,-23,139,251,314,312,441,499,291,-2028
-715,42,130,229,290,244,294,284,-36,-1686
-432,86,129,193,237,165,155,89,-215,-1116
-180,61,30,141,179,108,80,-3,-243,-536
129,38,19,114,115,25,5,-156,-473,271
242,-31,-7,52,9,-87,-152,-387,-809,1175
259,-55,-48,-11,-69,-153,-240,-547,-1190,1243
312,-64,-39,-97,-164,-226,-296,-596,-1174,1110
256,-3,96,-4,-38,-143,-178,-368,-469,611
-1,-74,73,-16,14,-61,-10,4,215,-251
-439,-251,-63,-156,-46,2,180,499,843,-1032
-357,-207,-94,-197,-44,80,256,629,810,-683
200,-151,-205,-311,-163,-19,57,341,574,926
546,-59,-186,-310,-235,-129,-107,171,680,2271
306,-129,-121,-230,-189,-128,-33,277,916,2643
-236,-153,53,18,56,39,136,334,768,710
-789,-5,213,245,294,240,319,358,270,-2614
-762,33,208,253,309,267,359,333,34,-3476
-435,27,173,220,261,223,298,275,-15,-2462
-343,-19,57,118,156,125,180,233,5,-1638
-229,-53,42,-8,12,-7,29,126,78,-924
-195,-91,-12,-84,-71,-110,-87,60,264,-449
-88,-77,-53,-104,-90,-123,-119,25,235,-55
204,-20,-140,-115,-112,-126,-127,-31,71,566
383,45,-113,-115,-100,-108,-106,-53,77,1186
355,43,12,-76,-51,-70,-71,-38,144,2036
440,-37,-15,-109,-80,-83,-76,-78,43,2349
946,-107,-257,-402,-414,-391,-393,-368,-243,1960
1239,-129,-421,-622,-658,-619,-619,-535,-138,2348
667,-14,-176,-318,-326,-336,-342,-407,-100,1902
-398,131,252,192,221,125,74,-266,-508,-942
-732,380,657,653,695,533,426,-115,-998,-3283
-279,286,493,503,533,389,268,-245,-1237,-2702
-224,48,126,156,174,102,15,-288,-1011,-1722
-654,-90,-12,14,41,14,39,138,201,-973
-611,-162,-10,26,76,103,219,590,1160,-266
-423,-125,27,77,157,177,281,577,913,-243
-355,-86,33,49,105,98,166,372,510,-446
-407,-113,5,29,60,54,95,234,300,-510
-296,-75,23,76,94,86,57,93,37,-334
10,-29,0,37,33,24,-35,-45,-154,107
195,-16,-68,-64,-88,-86,-123,-103,-123,413
157,-17,-124,-147,-148,-124,-126,-23,169,487
220,-26,-121,-163,-122,-90,-72,25,263,633
339,15,-67,-133,-85,-70,-64,-55,33,911
645,55,-99,-197,-187,-186,-167,-172,25,1963
555,3,-170,-261,-283,-265,-225,-157,321,2434
-309,28,-52,-182,-220,-235,-216,-176,136,-259
141,231,69,-76,-155,-192,-214,-300,-328,101
382,104,-21,-39,-58,-26,-41,-131,-350,654
-313,26,24,109,146,176,161,-6,-266,-379
-645,349,275,258,249,205,152,-80,-477,-1896
-569,363,289,240,205,159,102,-45,-514,-1856
62,253,82,46,16,-16,-105,-244,-763,242
809,-283,-478,-385,-366,-319,-418,-533,-212,3676
278,-123,-219,-208,-210,-206,-301,-403,161,1106
174,325,179,129,131,64,-84,-408,-564,-748
22,318,300,299,337,301,273,41,-349,-1429
-116,-403,-192,64,170,264,441,754,839,-999
61,-349,-196,54,126,165,298,656,987,-243
-460,-292,-104,50,113,95,200,519,813,-484
-582,-191,24,68,126,114,159,440,630,-1183
-196,13,122,107,135,125,115,302,295,-1121
-58,58,68,48,65,55,0,83,27,-637
-110,23,34,1,20,30,-16,-13,-10,-154
57,64,48,-9,-4,-2,-58,-127,-138,392
180,89,35,-45,-66,-64,-102,-204,-156,863
239,85,-28,-121,-169,-151,-148,-147,181,840
169,32,-31,-67,-101,-85,-63,-1,413,161
150,92,40,27,19,36,52,-17,87,26
-23,81,-10,30,37,89,113,-99,-274,1246
142,66,-92,-67,-59,-22,-43,-396,-727,2543
233,-17,-312,-276,-294,-242,-296,-623,-1044,2256
247,-12,-267,-310,-333,-285,-363,-532,-902,553
57,129,33,-77,-94,-134,-250,-321,-586,-936
-112,-95,-81,-167,-167,-210,-213,41,491,-709
-222,-226,-106,-116,-67,-18,111,671,1538,-435
-468,-127,88,153,243,303,409,757,1206,-1159
-216,38,153,164,201,233,258,360,415,-1403
9,143,160,131,141,153,119,93,-89,-1370
-82,76,147,181,235,245,242,160,-213,-1118
-167,64,1,150,206,225,257,232,-81,-616
-349,27,-50,111,142,134,139,121,33,-16
-400,-76,-42,1,0,2,17,67,281,656
-232,-85,-15,-39,-66,-44,-10,124,397,829
-130,-108,0,3,15,44,80,149,238,525
-72,-100,1,38,50,72,101,94,200,-53
103,78,23,0,-43,-50,-21,23,301,-280
369,278,78,-10,-102,-125,-161,-136,101,658
628,279,53,-48,-137,-154,-249,-294,-202,2007
413,96,-59,-131,-166,-158,-241,-335,-352,1854
-123,-44,-54,-84,-75,-29,-59,-212,-356,-298
-277,19,-9,29,13,71,89,-70,-319,-2193
-345,82,82,157,133,174,205,102,-23,-2101
-454,30,170,215,226,252,281,214,212,-1093
-181,-21,56,73,63,92,95,50,203,203
88,51,0,-48,-127,-131,-168,-191,160,768
-111,65,66,39,-53,-90,-165,-210,-11,-185
-408,19,168,209,168,153,69,-62,-221,-1191
-404,-47,156,236,233,263,226,45,-291,-1235
-256,-88,83,147,143,182,191,-21,-326,-807
-183,-152,-19,35,51,105,131,-95,-312,-292
-10,-142,-56,-27,-20,41,78,-110,-241,550
94,-14,-86,-60,-63,-34,-26,-166,-219,912
-93,-33,-192,-98,-77,-62,-61,-145,-141,72
-128,-68,-136,-78,-37,-10,30,-17,27,-567
157,48,-88,-62,-81,-66,-69,-135,-74,211
679,59,-199,-221,-289,-289,-349,-397,-182,2252
1098,30,-210,-331,-414,-416,-498,-485,-42,3407
909,-6,-168,-277,-313,-321,-402,-342,115,1831
607,48,-73,-183,-209,-210,-255,-123,225,-391
168,112,90,-16,-39,-53,-38,37,145,-1131
-569,36,190,165,172,123,177,96,-135,-1550
-873,-172,150,310,317,294,327,227,6,-1169
-531,-257,1,128,138,110,133,99,56,-597
-126,-230,-50,17,44,23,80,90,98,-428
101,-38,32,30,44,0,37,43,18,-418
-102,14,84,67,83,27,42,-26,-145,-356
-160,-33,-24,-14,11,-22,3,-94,-231,414
307,-112,-236,-215,-208,-177,-186,-308,-345,2082
338,-194,-313,-325,-304,-202,-257,-369,-232,776
153,19,-101,-94,-92,3,-38,-164,-212,-265
90,116,49,-53,-51,6,-13,-89,-140,-481
38,18,-54,-161,-158,-121,-66,53,326,371
50,-31,-102,-148,-120,-87,-34,59,370,1483
226,26,-31,-45,-1,18,-27,-160,-130,1602
104,0,-69,-60,-21,-1,-141,-373,-564,-69
-377,-72,-34,-7,44,40,-112,-338,-619,-2040
-401,-42,69,92,121,83,-3,-70,-156,-1782
-68,-63,-14,2,7,3,11,258,570,208
160,57,25,6,-2,-5,-20,288,777,1414
168,62,34,2,0,-34,-138,-49,261,1157
72,50,8,8,1,-79,-263,-397,-354,-305
-84,102,47,70,70,-40,-201,-398,-578,-1337
-311,66,101,106,128,85,61,-18,-358,-1763
-555,-168,-7,59,143,207,315,375,226,-1460
-348,-241,-56,57,156,248,361,520,494,-591
112,-103,-48,-7,27,104,133,343,294,344
92,26,23,-6,-45,-18,-20,104,101,246
-264,0,-54,-33,-108,-95,-120,-61,49,-486
-147,13,-129,-70,-156,-104,-123,-57,159,-66
663,118,-90,-163,-260,-178,-253,-253,-112,877
917,49,-137,-204,-286,-198,-290,-370,-239,939
266,-44,-20,-7,-21,25,2,-48,164,-293
-423,30,148,217,207,192,258,351,478,-1018
-376,25,130,158,120,106,167,349,479,-72
-371,-165,-9,-3,-27,-17,12,184,427,255
-640,-357,-157,-91,-89,-66,-92,8,273,-210
-582,-266,-101,-33,-31,-23,-57,-36,78,-363
-411,-124,8,73,94,115,89,44,-110,-555
-288,-105,11,75,95,135,109,87,-70,-600
-124,-58,34,87,96,96,60,16,-155,-425
54,34,53,85,60,15,-41,-119,-254,212
218,27,22,23,-16,-56,-81,-89,-67,656
234,-41,-66,-65,-98,-104,-127,-44,85,472
138,33,-20,-26,-83,-86,-136,-43,184,38
365,77,13,-2,-52,-72,-186,-154,-17,1341
510,-9,-88,-103,-124,-128,-203,-111,169,1036
700,33,-129,-157,-192,-179,-214,-94,248,302
466,87,-87,-118,-154,-114,-157,-84,167,-107
-269,19,-71,3,-5,59,15,-55,-97,-599
-505,-47,-32,113,110,165,128,-13,-283,-389
-68,-31,-39,9,-12,33,-5,-118,-322,424
341,-47,-160,-136,-182,-128,-148,-193,-223,1144
239,-91,-103,-100,-124,-65,-38,-19,103,927
-214,-96,27,68,67,124,152,190,325,30
-323,-51,69,127,123,134,190,174,202,-640
-137,-51,15,64,32,22,72,32,-46,-544
-81,-50,0,52,7,10,21,-31,-166,-494
-279,-9,86,155,122,110,99,21,-209,-837
-487,-20,109,160,189,144,118,37,-237,-1244
-352,6,91,107,160,144,101,50,-182,-1016
-119,46,73,58,79,93,16,0,-147,-529
-6,17,4,-18,-10,7,-60,-96,-225,-162
256,96,51,13,0,-63,-140,-285,-624,486
363,50,24,-20,-44,-109,-197,-247,-413,693
330,-47,-81,-138,-157,-188,-209,15,323,711
8,-131,-89,-120,-136,-137,-131,108,376,74
85,-57,-41,-39,-85,-89,-104,-53,-46,-300
463,37,-5,-1,-54,-39,-81,-132,-156,99
311,5,10,48,21,47,19,-3,83,697
-65,34,99,167,85,83,34,-14,10,851
-264,60,167,235,126,108,-30,-168,-375,365
-498,-59,108,166,105,70,-117,-309,-667,-483
-503,-144,39,55,27,15,-125,-159,-359,-263
-397,-169,-51,-61,-44,-14,-91,73,247,661
-175,-250,-237,-249,-163,-36,-49,167,489,608
103,-238,-266,-304,-164,48,95,305,634,608
165,-99,-195,-201,-35,158,147,216,293,374
-7,-56,-161,-161,-34,85,-13,64,16,-504
-174,85,47,34,65,96,-36,80,-30,-1462
-46,129,102,113,93,106,-13,94,-26,-1208
101,45,18,44,10,33,-53,115,210,-504
64,30,32,55,16,30,-68,106,282,-238
91,90,71,61,14,5,-106,61,188,92
103,48,17,33,-30,-16,-124,46,171,937
193,-49,-163,-67,-134,-123,-228,-97,90,1299
251,-122,-255,-137,-195,-177,-273,-174,28,668
6,-75,-57,-3,-31,-19,-87,-72,-119,-417
-219,62,150,201,176,167,122,6,-325,-1149
-71,139,223,243,182,151,91,4,-202,-942
176,183,254,185,99,28,-22,-56,-82,-81
305,94,141,-17,-104,-130,-185,-161,-116,870
518,-34,-99,-277,-340,-297,-361,-244,-61,1563
487,-119,-255,-349,-371,-288,-320,-166,85,1092
227,-50,-147,-73,-57,-2,-31,4,2,162
-24,-84,-21,70,97,118,89,77,69,-71
-175,-130,2,34,44,60,47,36,18,-351
-119,-43,31,44,25,11,-68,-216,-573,-509
288,117,134,142,141,113,-76,-536,-1379,-289
645,92,40,-4,-29,-56,-183,-474,-1052,790
596,-125,-129,-174,-191,-176,-135,-99,-64,1638
-180,-331,-177,-146,-130,-80,74,356,892,747
-636,-228,-8,66,99,133,318,694,1302,-1016
-162,151,175,172,131,58,41,318,481,-1182
317,180,112,30,-15,-79,-100,149,397,47
41,110,123,59,49,-2,-37,57,201,-45
-296,31,137,131,139,103,87,94,62,-671
-325,-1,122,139,155,105,55,38,-74,-742
-371,-40,114,148,164,98,28,4,-67,-498
-224,-93,84,136,172,128,98,97,66,-55
200,-32,7,28,40,12,-18,13,94,1006
209,-15,-86,-51,-65,-87,-149,-129,29,1705
-35,-164,-140,-136,-126,-115,-119,-99,54,735
160,-105,-111,-122,-119,-93,-80,-21,114,-271
415,95,13,14,21,11,-3,46,154,81
117,65,43,60,74,34,20,43,86,-56
19,-5,-1,11,16,-3,-26,-22,-103,-554
55,8,-3,31,45,34,37,21,-160,-841
-25,139,174,135,148,104,98,19,-212,-739
86,174,238,195,199,147,78,-106,-393,-155
367,37,107,81,72,35,-40,-222,-419,758
553,-34,-79,-143,-190,-198,-229,-314,-344,1119
63,-60,-69,-140,-176,-165,-107,-121,-81,451
-107,-81,-78,-95,-91,-85,-6,-34,-15,1
-212,-159,-74,-11,48,75,125,60,-129,-313
323,58,91,53,82,80,126,193,398,2227
342,138,77,30,22,-24,-47,-88,-9,1016
174,59,-45,-77,-80,-116,-123,-178,-158,-787
-414,-5,59,77,114,93,149,81,-78,-2170
-770,-30,154,255,307,277,353,254,-33,-2202
-438,-56,134,205,224,203,239,172,-84,-1083
-141,-88,45,62,60,45,57,15,-152,-316
-158,-137,-7,-2,14,-7,14,-29,-63,-319
-139,-81,31,42,72,55,61,1,-61,-659
0,16,-14,91,98,98,71,-53,-202,-623
36,13,-89,79,77,87,36,-192,-429,-295
57,-29,-76,28,37,60,39,-286,-554,141
2,-113,-58,-64,-41,-8,-19,-342,-537,482
-108,-143,-119,-194,-163,-132,-109,-280,-339,471
-164,-96,-91,-186,-169,-136,-10,52,112,190
3,72,84,-15,-14,-10,74,53,-135,-241
-101,114,174,106,125,93,102,-137,-701,-774
14,165,151,62,62,-12,-61,-311,-968,-460
216,-157,-173,-241,-237,-261,-176,-20,569,1310
35,-257,-277,-271,-256,-225,-48,460,1553,839
-246,-154,-120,-128,-103,-63,86,540,1240,-176
-135,97,76,29,29,31,97,304,487,-49
390,271,160,68,28,-8,8,48,94,886
563,-49,-121,-153,-145,-126,-83,121,498,160
368,30,-2,-33,0,-16,12,104,111,-636
-79,50,39,31,59,11,-4,-71,-416,-990
-93,20,-35,14,44,0,-23,-167,-569,-257
224,50,-44,-12,-6,-45,-84,-240,-492,470
354,150,-10,-63,-97,-131,-168,-211,-70,427
60,150,25,-50,-100,-125,-133,-69,229,264
-2,50,-13,-72,-113,-130,-85,63,214,417
34,-73,-47,-62,-76,-102,-21,115,233,530
-120,-63,-36,-1,-14,-64,-29,26,139,250
-361,-17,20,82,84,18,48,18,63,238
-610,-57,95,151,180,131,211,163,204,196
-376,-54,44,74,112,80,195,153,185,-184
-47,34,19,21,25,-31,38,13,-6,-428
42,-1,-25,-21,-26,-92,-58,-60,-87,-441
-262,-60,7,30,64,6,59,9,-109,-685
-360,15,40,70,94,32,92,55,-42,-586
14,140,52,29,35,-18,6,-3,-14,186
308,165,43,-12,-18,-57,-38,-49,-67,529
107,4,-7,-10,15,24,90,151,121,99
-6,-66,-62,-4,35,49,113,195,145,-291
122,7,13,44,39,1,8,24,-98,-332
-86,14,78,180,108,33,14,-4,-171,-362
-276,-6,64,214,108,17,-9,-38,-194,-627
-329,-42,94,139,47,27,19,8,-139,-628
-244,-63,83,103,34,69,89,65,-92,-119
47,-3,46,73,9,12,51,-21,-150,344
236,54,-1,-1,-39,-92,-48,-135,-258,482
163,32,0,-94,-68,-161,-110,-196,-344,257
38,30,-75,-154,-55,-113,-91,-172,-385,-134
125,29,-169,-202,-68,-94,-73,-22,-7,-258
121,3,-134,-145,-61,-45,-20,80,397,-46
-50,-27,-21,-49,-8,122,161,61,190,51
-79,-32,21,-31,-9,277,340,70,43,-46
-64,-44,-9,-60,-58,188,273,74,86,-220
16,-84,-80,-109,-140,-41,65,31,173,62
563,-63,-183,-226,-283,-247,-171,-110,125,762
844,-8,-197,-243,-284,-270,-241,-216,-12,1093
458,2,-79,-125,-149,-147,-122,-153,-36,723
-143,-3,86,47,50,31,43,-40,-76,41
-228,-89,79,77,109,94,113,-2,-59,389
46,-219,-96,-85,-43,-26,-2,-63,48,1716
183,-199,-106,-108,-85,-83,-77,-146,2,1638
83,63,138,95,97,59,96,-20,-38,-105
81,238,267,242,233,184,271,162,-41,-1288
-88,107,180,190,204,163,213,76,-234,-1538
-382,-12,111,161,196,156,191,-3,-379,-1181
-395,-16,121,169,202,154,153,-103,-446,-291
-29,17,81,84,101,61,15,-263,-503,775
244,-43,-49,-93,-67,-87,-93,-291,-428,967
202,-117,-166,-250,-221,-214,-194,-245,-211,642
102,-94,-199,-294,-259,-229,-183,-159,-102,74
358,-45,-210,-297,-263,-227,-178,-116,89,497
703,31,-102,-178,-166,-168,-178,-179,-47,1630
385,-59,-29,-96,-89,-124,-130,-71,36,1130
-582,-180,-12,12,42,15,101,313,514,-598
-491,-68,47,104,127,120,246,521,883,-271
-23,27,-72,-9,-28,-10,84,401,930,599
246,117,-56,-90,-146,-152,-120,153,686,592
356,291,58,47,-33,-97,-145,-21,382,-269
268,242,101,54,-5,-70,-112,-67,165,-963
424,128,45,-42,-92,-91,-105,-61,48,-423
226,-141,-77,-96,-64,20,21,30,-65,501
-524,-158,-1,33,79,121,114,87,-137,-956
-975,-29,178,240,272,281,284,237,-45,-2178
-905,10,221,273,289,309,337,292,10,-1921
-171,-131,53,74,105,133,125,89,-254,-959
-50,-151,36,39,69,71,11,-22,-302,-528
-277,-86,56,85,95,82,40,24,-157,-444
-317,-22,54,130,117,93,98,107,-18,-512
-176,-25,56,69,56,57,72,38,-81,-448
-112,-115,-45,-47,-38,2,1,-73,-204,46
57,-109,-137,-85,-76,1,-3,-146,-402,722
307,62,-18,-3,-43,-15,-35,-286,-732,1322
526,184,48,46,-21,-48,-123,-467,-1023,863
361,1,-130,-48,-78,-83,-114,-278,-365,-269
-56,-137,-112,-38,-29,15,86,238,705,-840
-213,-59,44,91,97,100,126,256,616,-512
-127,-36,43,36,21,-45,-61,-18,230,630
19,-241,-193,-242,-238,-230,-182,13,511,1798
-1,-299,-223,-289,-225,-139,-14,240,832,1456
-41,-61,29,-36,57,122,221,343,616,-138
203,166,185,130,172,195,191,150,17,-937
464,124,65,45,39,29,-21,-87,-267,-499
465,77,8,-9,-48,-109,-167,-193,-268,-237
-113,92,113,128,99,-13,-52,-42,-111,-766
-555,94,164,197,185,78,38,133,104,-899
-345,75,136,114,100,13,-36,85,177,-292
-71,46,9,14,-21,-63,-122,-50,44,52
-6,6,-63,-73,-88,-33,-81,-104,-121,129
25,-18,-55,-116,-119,17,2,-86,-175,323
34,-45,-78,-112,-104,42,20,-55,-168,288
203,-53,-165,-148,-147,-10,-1,-78,-170,335
344,-1,-57,-76,-99,-21,-5,-99,-154,907
-52,-31,60,99,35,-1,17,3,-28,772
-372,-25,154,225,102,-30,-65,-11,-47,-406
-150,106,276,258,94,-95,-166,-27,-6,-484
91,112,243,150,14,-156,-201,-30,112,198
-56,9,113,74,-19,-142,-170,-54,86,126
-66,13,143,74,45,-62,-118,-62,-33,-167
141,43,71,-9,25,-50,-122,-76,-101,-433
232,19,-158,-236,-94,-49,-62,-86,-64,-217
283,-58,-337,-410,-176,36,135,-32,-28,272
264,-66,-307,-374,-134,134,310,-3,-113,217
82,-54,-186,-200,-10,188,335,51,-106,-180
-164,-35,-32,-11,112,170,247,112,-48,-366
-95,66,52,94,154,112,123,77,-42,188
164,103,2,22,75,37,-2,-3,40,990
72,-39,-71,-91,-21,-25,-52,-61,86,671
-99,-115,-127,-99,-48,-25,-34,-28,106,-392
-253,-32,42,98,131,57,127,88,-111,-984
-172,-7,25,30,37,-43,9,17,-144,-221
-79,5,-32,-23,-31,-100,-104,-92,-208,101
-90,-30,-100,-56,-65,-99,-151,-146,-195,-39
65,-63,-144,-53,-66,-53,-119,-94,-55,68
35,-40,-34,60,22,54,1,17,69,291
-28,-18,77,151,99,112,64,48,97,851
8,-67,86,148,96,87,85,67,172,1147
93,-83,77,83,-4,-39,14,-19,80,373
-85,-16,139,84,0,-56,-29,-81,-161,-1104
-270,39,170,45,55,17,30,10,-162,-1334
-231,37,76,-34,16,-2,34,95,39,-539
54,51,-44,-81,-57,-111,-96,49,149,-57
33,52,-9,3,-61,-193,-241,-70,25,215
-219,-26,18,128,-3,-240,-321,-109,-28,319
-180,-78,-22,141,23,-250,-341,-118,71,336
-202,-57,52,224,145,-103,-203,-69,33,-56
-201,-7,134,243,191,-9,-95,-39,-84,-545
-143,12,129,166,128,13,-71,-63,-191,-759
-99,-13,52,25,4,16,0,-54,-148,-572
-78,-89,-87,-152,-139,73,250,13,-60,-148
95,-100,-211,-264,-187,181,446,62,-50,202
-100,-59,-146,-196,-57,260,456,135,-41,-124
-30,-21,-68,-140,-43,228,317,53,-82,191
270,31,-54,-155,-100,135,60,-168,-296,996
560,86,-64,-232,-188,15,-114,-353,-406,1610
499,104,21,-129,-82,75,-69,-462,-665,1186
161,81,47,-29,35,113,27,-296,-656,-28
-288,-52,-55,-92,-9,54,102,153,17,-1041
-319,-90,-60,-85,-14,38,103,317,433,-1021
193,-55,-112,-141,-105,-23,12,240,480,509
248,-85,-153,-178,-146,-80,-29,185,504,1543
12,-32,-87,-121,-86,-60,5,144,399,1196
-4,76,-21,-61,-52,-76,-38,21,55,354
85,38,-81,-79,-74,-114,-93,-70,-49,36
225,2,-108,-91,-84,-110,-64,72,428,-197
124,112,88,107,84,58,86,247,485,-1147
-127,158,253,302,264,216,232,280,156,-1623
-317,85,209,285,259,204,206,166,-23,-1331
-259,69,160,205,179,124,143,52,-100,-940
-154,97,131,117,89,20,38,17,22,-549
-165,25,62,52,41,-10,12,64,169,-205
-139,-79,-16,-10,-1,3,25,98,206,53
-31,-101,-62,-31,0,16,-2,44,106,229
45,-110,-82,-43,-29,-25,-82,-37,67,335
16,-101,-29,-7,0,2,-58,-16,56,80
-92,-53,27,50,50,62,13,41,-48,-173
44,-32,18,55,60,57,23,46,-114,256
247,-74,-42,10,41,51,35,75,-31,501
262,-86,-188,-80,-32,-6,-29,41,28,145
154,4,-178,-88,-61,-55,-92,-26,0,-207
120,63,-40,-34,-23,-39,-44,-14,-17,-27
218,35,-59,-53,-48,-68,-41,-57,-122,362
314,3,-81,-118,-132,-144,-115,-137,-236,615
321,-12,-80,-124,-161,-156,-150,-182,-299,779
390,-26,-89,-107,-148,-141,-153,-167,-208,1442
195,-167,-171,-155,-166,-154,-159,-34,313,2096
-74,-177,-91,-62,-35,-56,-69,25,389,1362
-166,-64,56,84,115,55,54,39,59,-564
-342,-36,134,182,193,136,156,106,-88,-2224
-370,28,190,228,215,146,165,100,-131,-2011
-273,90,200,202,146,85,84,47,-155,-1188
-142,37,165,122,39,-9,-24,-18,-117,-597
-128,-27,124,92,-31,-74,-92,-65,-65,-270
-93,10,87,169,-6,-73,-114,-127,-92,-132
49,54,-1,135,-6,-66,-89,-84,-50,-152
77,81,56,88,16,-10,14,-18,-48,-408
-41,32,54,54,50,54,91,-5,-76,-294
-235,-157,-36,8,85,123,130,64,-21,-1
-136,-164,-102,12,72,111,105,39,7,185
54,-21,-75,32,46,82,62,-22,-58,348
110,64,0,12,15,60,11,-126,-190,241
88,121,62,-17,-31,16,-74,-236,-322,-218
55,107,69,-64,-77,-22,-83,-144,-196,-389
301,52,-58,-138,-77,2,0,119,220,197
210,-38,-111,-201,-116,-34,-39,54,136,319
99,-155,-236,-219,-122,-36,-27,48,164,545
-154,-153,-117,-103,-70,-17,-3,15,101,324
-525,-92,13,22,-21,-7,19,-4,-9,-352
-386,-23,101,118,-7,-1,18,-39,-196,-487
191,126,132,112,-43,-60,-83,-172,-363,144
330,196,143,91,-41,-112,-185,-225,-182,759
388,85,69,-13,-103,-191,-222,-181,159,1274
434,-28,-25,-46,-65,-116,-142,-185,49,1650
405,-1,-55,11,-7,-27,-87,-283,-292,1214
-682,30,316,341,288,231,166,-79,-642,-2099
-206,3,90,101,69,58,-15,-177,-560,-1067
185,-105,-178,-209,-174,-102,-91,-26,31,179
147,-113,-183,-226,-180,-112,-53,242,786,542
-300,-90,-45,-90,-27,-17,84,450,1042,-121
-315,-60,9,-33,28,0,76,333,807,-250
33,-32,22,38,51,-11,38,138,416,46
179,-44,41,104,76,-30,-3,69,209,103
68,-61,38,89,44,-56,-6,113,223,-113
-161,-45,33,50,1,-60,-22,113,186,-341
-273,-40,41,26,1,-39,-35,79,146,-67
-138,-38,-28,-64,-44,-87,-63,46,162,578
141,-54,-151,-215,-168,-151,-118,-79,43,1432
180,-178,-263,-327,-261,-118,-31,-70,43,1288
69,-226,-286,-322,-224,-46,109,40,236,329
279,66,-38,-108,-31,79,147,30,97,-442
108,194,148,77,133,221,194,12,-246,-1059
-369,0,67,85,186,322,325,178,-176,-1161
-346,-80,-29,43,113,207,248,209,-30,-907
-47,-26,-25,-7,-11,-26,46,66,7,-440
129,75,65,1,-35,-106,-51,-71,-126,-296
110,165,115,7,-17,-57,-77,-138,-214,-36
124,201,136,-38,-73,-23,-66,-174,-229,167
319,215,82,-72,-108,6,-78,-255,-372,5
625,175,-3,-104,-122,-14,-155,-385,-645,-75
804,-34,-141,-161,-159,-69,-217,-502,-884,348
542,-163,-163,-144,-128,-106,-222,-465,-821,760
151,-22,-15,-15,5,-31,-102,-286,-585,502
96,102,80,60,50,-16,-60,-154,-297,683
-95,9,63,69,74,8,-1,19,-16,509
-613,-246,-39,29,79,44,66,164,128,-503
-697,-256,-35,63,120,106,180,420,651,-1032
-405,-114,50,143,191,199,269,556,941,-857
-215,49,94,176,193,165,189,347,662,-383
-180,72,-35,109,107,44,59,174,441,-8
7,-10,-105,-7,3,-77,-68,48,306,444
-10,-107,-76,-72,-53,-120,-91,60,393,592
-5,-52,-36,-38,-32,-72,-39,116,449,387
97,155,144,97,65,-43,-80,-137,-97,118
33,104,116,80,42,-48,-73,-170,-214,-319
-82,22,49,42,20,-22,-51,-69,-138,-618
-206,-87,9,46,49,64,71,151,81,-785
-156,-88,29,63,76,114,130,226,82,-695
79,-20,39,42,53,49,24,70,-107,-384
226,22,-3,35,23,6,-33,-39,-182,-172
82,-17,17,31,45,43,-3,-48,-166,-194
-236,-55,34,49,76,68,34,-36,-151,-256
-373,-97,-12,17,67,57,44,-9,-76,-117
-224,-99,-64,-55,-13,-12,-19,-29,-35,68
-18,-22,-78,-73,-69,-94,-110,-124,-106,86
38,12,-47,-51,-68,-110,-133,-152,-148,199
133,-19,-84,-125,-179,-209,-201,-131,26,1158
373,-56,-120,-161,-235,-257,-290,-254,-62,1999
476,-89,-93,-113,-154,-149,-183,-290,-217,1470
361,-14,20,12,17,32,18,-127,-202,197
-94,55,122,118,126,153,199,141,11,-1120
-287,59,90,96,87,115,198,280,285,-1377
-303,41,77,82,78,83,115,173,225,-901
-289,-4,57,77,87,69,57,51,56,-512
-67,12,35,57,60,35,9,-7,-73,-321
304,34,9,34,13,-2,-24,-43,-85,112
251,17,-5,9,-6,-15,-34,-56,-86,230
-233,-59,-26,-4,20,21,10,-36,-49,-68
-392,-90,-32,5,33,30,38,9,38,-208
-214,-17,17,30,44,28,54,32,59,-260
-93,39,26,29,32,16,36,0,0,-265
-70,69,55,64,37,2,-12,-40,-70,48
77,48,18,6,-13,-45,-68,-91,-90,476
209,-42,-88,-91,-102,-105,-131,-143,-119,460
41,-44,-63,-44,-54,-49,-58,-84,-86,76
-153,21,34,88,51,14,13,-13,-46,-368
241,114,73,82,7,-58,-70,-112,-75,126
449,110,85,93,-22,-94,-127,-135,-49,459
567,16,-3,-5,-134,-139,-195,-135,33,506
433,-82,-87,-111,-183,-134,-193,-107,109,301
-12,-26,-10,-51,-73,-32,-75,-44,137,55
-278,2,-7,-29,0,26,35,-42,32,145
-147,41,-66,-64,7,13,51,-82,-85,306
26,39,-40,-42,34,34,62,-54,-76,477
-13,-10,-63,-44,47,40,60,13,-25,459
-131,-63,-125,-88,0,-23,-25,14,21,244
-46,-16,-63,-53,-20,-83,-104,0,141,599
175,9,-47,-54,-67,-144,-177,-14,281,1049
-119,-40,-88,-87,-88,-99,-130,0,211,120
-295,-38,-69,-56,-39,20,2,53,63,-708
7,-22,-71,-34,-20,42,35,36,-47,-92
438,2,-75,-74,-76,-37,-48,-49,48,1773
493,30,1,-6,-15,-16,-54,-99,-51,1629
-52,73,145,197,173,124,71,-5,-266,-1064
-591,112,205,299,240,143,68,111,-214,-2705
-500,51,125,224,175,86,-7,92,-84,-2085
-131,44,48,142,108,102,35,-50,-230,-1215
-170,39,40,134,102,206,298,20,-207,-768
-309,16,86,146,132,261,466,130,-80,-455
-131,25,95,76,82,162,256,48,-144,-46
221,13,-53,-176,-134,-87,-88,-118,-157,579
277,-80,-276,-420,-337,-260,-259,-153,125,977
278,-81,-398,-439,-335,-243,-195,-36,346,1024
238,61,-229,-189,-114,-56,-47,-19,60,385
6,192,60,48,93,105,87,-29,-252,-987
28,217,147,117,122,125,126,9,-342,-1212
161,118,125,123,125,136,144,-12,-260,-426
-17,-42,93,98,129,143,163,77,178,439
49,-95,9,-26,-27,-4,69,141,462,1339
340,-1,-5,-37,-102,-96,-38,9,268,1222
148,41,39,61,-37,-79,-76,-68,36,-68
-483,0,130,182,100,59,81,98,20,-1447
-685,4,192,233,191,157,195,207,20,-1496
-565,-80,48,100,86,72,131,127,-29,-719
-311,-126,-51,2,34,35,105,52,-38,-132
-137,-93,8,91,71,35,74,23,91,169
62,32,51,116,44,-36,-31,19,278,380
273,232,111,64,-14,-111,-152,-84,174,682
261,170,-36,-24,-80,-135,-157,-62,209,827
225,9,-206,-128,-148,-166,-159,-26,303,785
81,-96,-47,-78,-75,-38,-11,118,352,393
186,-22,-14,-25,-36,27,16,76,131,215
206,-21,-53,-78,-93,-29,-68,-54,-89,-312
99,-23,-99,-91,-56,5,-37,-52,-185,-584
-9,-9,-117,-21,72,142,128,64,-166,193
-161,14,-74,-38,87,118,132,32,-202,385
-120,-51,-125,-157,-67,-105,-64,-76,-94,-64
-77,-181,-277,-228,-183,-217,-139,-6,138,-688
-78,-145,-157,-136,-56,-53,-28,50,67,-647
35,-46,-48,-97,-1,56,33,61,14,-57
176,89,77,13,65,138,70,51,-17,104
368,40,-13,-37,-31,39,-22,19,114,814
23,2,-6,-58,-76,-160,-199,-81,290,1360
25,56,152,88,29,-55,-4,17,130,-787
-26,126,234,167,106,-14,51,31,38,-476
83,102,142,83,58,-53,-62,-59,-96,-188
225,12,-14,-66,-48,-47,-47,-76,-122,98
135,-32,-54,-95,-51,8,52,-60,-171,-233
-193,-83,-58,-26,34,118,145,-18,-213,-845
71,52,-11,-55,7,22,-61,-118,-204,-338
104,-4,-81,-108,-26,-38,-73,-10,73,-225
127,63,8,-14,44,56,30,85,137,-397
-67,56,23,60,121,178,128,120,81,-375
-436,-80,-26,86,157,205,162,133,120,-307
-364,-97,25,103,114,74,81,36,120,-95
34,59,135,97,9,-77,-82,-143,-28,219
264,185,236,131,0,-38,-40,-151,-147,429
22,70,233,148,69,70,81,-53,-133,111
-168,-90,180,159,148,141,137,38,-85,89
-249,-165,75,110,145,135,101,-2,-212,183
-331,-142,15,72,122,89,20,-157,-487,-207
-281,-96,-39,8,111,69,-12,-190,-593,-428
-163,-28,-136,-102,39,31,-3,-86,-311,-91
-94,-16,-173,-140,-24,34,77,60,183,76
60,-20,-132,-126,-74,2,59,65,357,59
108,-21,-39,-4,-64,-48,1,-30,201,112
113,-39,53,99,0,-39,-18,-150,-49,343
75,-32,87,103,42,3,-47,-228,-221,273
-142,-39,85,83,66,29,-22,-129,-97,-111
-139,-82,-1,-23,-51,-38,-46,147,386,29
257,-14,-5,-111,-141,-116,-101,132,455,656
346,43,-68,-250,-227,-173,-142,22,400,994
187,162,-25,-266,-207,-142,-118,-46,192,641
152,189,31,-174,-140,-88,-69,-46,-1,279
270,68,-13,-129,-122,-97,-100,-81,-2,515
182,-12,-85,-68,-91,-113,-157,-166,-87,729
111,-27,-119,-10,-48,-105,-173,-182,-142,675
44,-30,-60,-37,-77,-169,-204,-82,129,142
179,28,30,8,-6,-135,-147,85,271,-265
167,106,99,107,96,-88,-117,72,107,-355
-231,-17,38,90,86,-101,-97,29,79,-516
-421,-35,126,291,139,-2,-36,-47,-16,-824
-110,44,170,306,97,-5,-28,-164,-209,-631
-96,5,187,379,91,44,140,-122,-253,-537
-209,-83,174,358,73,117,313,-6,-185,-538
-138,-107,118,253,57,100,293,14,-116,-377
-74,-46,49,-25,5,52,102,22,20,-99
29,-12,-106,-247,-79,21,33,12,47,432
140,0,-188,-365,-123,-50,-63,-32,31,571
-50,-89,-195,-313,-83,-76,-115,-33,89,150
-153,-110,-95,-195,-1,18,-62,12,95,30
-26,30,79,-69,46,101,50,25,-44,-62
-21,44,123,-71,-21,55,25,-3,-129,-321
-62,-52,5,-144,-110,-61,-87,-108,-112,-265
-123,129,-21,1,79,132,128,-165,-374,-388
-102,1,-148,-139,-79,16,122,-130,-204,-73
436,22,-123,-236,-189,-103,4,-28,151,518
623,74,-9,-108,-70,-4,91,65,238,327
-15,-88,60,64,131,178,257,203,240,-442
-490,-120,83,119,178,186,257,182,210,-620
-257,-34,65,46,69,46,75,3,94,-189
-1,0,57,4,1,-51,-70,-133,-93,7
48,47,81,92,62,-9,-50,-185,-262,142
98,92,64,115,72,-10,-16,-151,-174,437
97,44,-45,0,-20,-83,-42,-77,82,677
-6,-40,-183,-105,-71,-130,-67,0,209,516
117,-2,-198,-120,-109,-169,-138,-87,75,72
334,8,-145,-33,-74,-134,-81,-60,81,19
212,-31,-89,136,6,-48,21,64,155,53
-113,-74,41,167,-6,-47,-14,-47,-124,18
-359,-96,72,84,-33,-63,-69,-187,-365,-63
-229,-31,144,51,-25,-51,-120,-206,-301,156
-169,-83,70,-61,-92,-87,-125,-63,167,184
-162,-57,27,-87,-57,-11,-7,112,445,-179
-103,78,62,23,135,132,136,171,214,-489
-33,49,-36,-10,128,104,115,109,12,-400
-85,22,0,-2,101,68,62,35,-12,-359
-200,23,77,58,117,51,55,0,-56,-363
-169,-9,15,0,63,0,40,45,50,-56
-95,-8,-32,-60,10,-4,-4,41,62,-6
-13,44,-38,-75,-24,5,-6,13,-18,-280
72,63,-42,-89,-63,12,4,22,-6,-191
7,-30,-10,-23,-82,-93,-50,11,30,30
62,-28,-23,-51,-114,-163,-116,-58,-11,225
225,-19,-43,-79,-136,-148,-128,-132,-97,375
259,-61,-51,-51,-108,-85,-91,-135,-120,425
126,0,25,56,-1,33,-32,-87,-96,105
-5,24,44,91,87,153,47,-16,1,-27
-43,-53,-19,42,78,200,107,58,130,9
-189,-117,11,65,71,163,119,79,86,-221
-230,-64,70,81,66,62,81,18,-49,-143
34,6,49,29,23,-30,-4,-65,-108,155
180,22,32,-24,-4,-33,-55,-88,-127,234
122,36,20,-67,-4,-9,-60,-116,-196,623
222,127,40,-67,-18,-27,-89,-155,-281,1470
176,66,-23,-115,-117,-112,-149,-190,-273,1165
-41,-92,-96,-108,-156,-105,-76,-69,-75,-108
-29,-51,-43,-46,-114,-101,-46,72,265,-579
32,28,44,47,-14,-101,-45,101,294,-626
124,135,168,191,121,-134,-61,21,-66,-786
108,118,184,245,141,-240,-151,-14,-171,-748
184,52,60,120,12,-426,-325,-33,35,-258
252,64,10,15,-65,-462,-479,-146,127,80
120,74,32,7,4,-207,-381,-243,-56,-104
-233,-9,13,49,119,289,144,-33,-114,-401
-338,-72,-54,43,133,653,680,264,9,-386
-71,72,24,233,80,359,339,147,42,-55
66,37,57,253,27,146,161,81,33,112
79,-36,92,157,-57,43,91,33,-10,109
-68,-131,78,-16,-125,32,113,11,-66,74
57,-19,-2,-210,-212,-9,60,-50,-78,202
103,21,-126,-319,-252,-70,-43,-127,-73,386
-70,-106,-149,-240,-105,36,16,-119,-220,297
-34,-108,-173,-141,34,153,76,-112,-354,526
110,131,-139,-86,67,165,23,-201,-423,329
-115,151,-130,-72,71,177,48,-138,-305,-770
-162,117,-103,1,99,184,156,28,-65,-949
71,178,-15,34,59,97,105,-38,-146,111
126,133,-54,16,33,39,22,-170,-354,1061
148,2,-108,-39,0,-11,-8,-107,-343,565
138,-113,-120,-176,-179,-144,-74,167,234,-536
121,-85,-62,-83,-102,-53,5,405,755,-563
209,-52,24,12,10,23,23,324,757,31
56,7,120,147,156,113,65,180,367,-122
-270,-9,113,202,226,164,145,138,127,-318
-414,-88,-3,113,153,120,94,80,-54,-163
-250,-129,-128,-23,23,26,-1,22,-29,124
168,-113,-161,-132,-108,-69,-87,68,427,736
290,-13,-70,-120,-112,-63,-74,197,739,717
213,76,25,-71,-76,-33,-72,109,367,283
111,43,9,-37,-41,-1,-57,-17,-42,176
254,36,-18,-35,-53,-37,-123,-168,-254,1082
314,20,-39,-70,-112,-125,-190,-227,-239,1808
161,-78,-91,-120,-147,-142,-102,-78,-64,806
128,30,20,-5,-51,-45,12,27,-30,-550
-521,-8,107,150,103,85,136,256,322,-1358
-177,15,132,176,107,82,91,224,247,-925
27,-12,84,126,65,74,95,161,99,-637
-140,-41,67,119,80,112,142,162,37,-627
-259,20,89,131,88,86,73,94,4,-345
-125,79,67,69,5,0,-42,-30,16,377
305,2,-69,-99,-171,-178,-217,-225,-70,808
327,-79,-133,-166,-211,-175,-197,-173,-86,238
45,-113,-87,-78,-76,-15,25,99,73,-442
-59,-29,13,40,46,64,106,126,50,-368
62,0,38,64,55,39,55,-43,-188,-161
303,42,16,18,0,-25,-14,-135,-252,-24
121,66,24,-3,-19,-44,-19,-127,-225,-180
-295,-42,45,187,173,141,190,211,52,-560
-245,44,46,192,153,103,133,157,-2,-487
-165,105,109,153,111,41,41,46,-61,-403
-92,75,80,77,56,-8,-4,-13,-105,-363
63,52,53,29,17,-15,-19,-29,-127,-71
-92,-27,2,-42,-9,0,5,-16,-58,175
-154,-90,-112,-167,-102,-63,-28,-10,130,410
-63,-55,-137,-145,-93,-71,-35,-27,132,239
-62,0,-36,-1,28,-9,8,-29,-39,-118
-107,35,3,55,71,5,9,-37,-123,-168
48,17,-146,1,4,-29,-17,-31,-55,419
211,-5,-223,-56,-106,-136,-89,-78,21,895
309,-21,-138,-40,-215,-303,-228,-210,50,1133
342,17,-172,1,-234,-323,-260,-259,56,1311
334,109,-122,110,-72,-138,-119,-160,-1,1016
219,139,102,243,119,36,22,-94,-152,-265
-276,123,281,337,274,173,152,20,-198,-1671
-510,111,352,365,373,272,256,156,-114,-1698
-629,-78,190,189,271,226,230,173,-65,-1139
-508,-139,5,-64,85,84,96,85,-29,-571
-203,-65,-29,-188,-21,-8,-29,-31,-37,-246
59,-32,-23,-207,-106,-116,-132,-93,41,146
50,-71,-7,-132,-108,-121,-167,-78,132,338
74,-111,-89,-36,-63,-72,-119,-87,74,223
128,-56,87,76,-21,-73,-147,-79,-109,295
-43,-75,9,1,-51,-89,-130,-89,-62,211
-50,-52,-23,-38,-13,30,124,35,8,-187
23,1,67,26,102,119,255,70,-54,-572
79,-4,-1,-48,99,89,230,46,-68,-377
121,-10,-112,-168,45,64,132,14,-39,177
119,15,-185,-209,12,85,77,-45,-49,752
-55,-53,-263,-189,15,153,152,-2,14,703
-189,-129,-204,-195,-18,170,185,73,145,133
-142,-67,-90,-127,-49,145,116,42,114,-447
-29,22,78,-5,-52,65,59,-10,-42,-591
62,165,268,74,-49,-99,-83,-158,-202,-126
180,111,197,42,-6,-53,-46,-128,-155,-41
82,61,139,64,73,76,-4,-44,-77,-158
-186,-62,-5,15,43,69,35,101,170,-3
-48,-145,-186,-52,-5,-17,2,123,219,244
313,-144,-313,-107,-96,-121,-159,-85,80,1085
645,-174,-256,-154,-188,-193,-270,-265,-94,2438
738,-122,-144,-145,-194,-192,-271,-295,-200,2598
218,1,-39,-24,-61,-115,-194,-227,-190,1091
-468,86,45,70,90,-12,-36,-43,-52,-1187
-449,81,58,51,78,26,79,189,219,-1850
-127,84,109,14,37,-5,34,160,209,-1295
-101,-3,107,27,84,45,16,87,33,-767
-368,-98,113,130,207,168,125,116,-66,-366
-412,-59,86,121,196,190,108,71,-127,-388
-266,34,131,143,164,131,97,77,61,-603
-119,144,235,177,163,92,78,39,5,-676
-39,142,259,177,117,90,43,-137,-532,-506
-23,36,114,76,10,15,-64,-320,-797,-3
44,-52,-58,-126,-187,-154,-189,-324,-471,592
110,-60,-148,-242,-295,-263,-243,-152,104,644
209,45,-49,-142,-218,-203,-154,154,910,628
175,39,1,-75,-125,-102,-39,318,1065,906
-64,-105,-88,-103,-126,-69,-45,231,673,1011
-103,-110,-89,-66,-97,-22,-64,102,278,327
-10,-19,-29,22,-25,34,8,133,154,-675
190,103,110,140,84,110,95,233,240,-797
245,111,167,173,89,109,71,163,89,-815
50,103,138,140,52,74,-13,47,-96,-768
-328,64,120,121,61,70,-31,10,-157,-642
-309,54,71,56,36,39,-57,-25,-183,-461
-128,96,9,-31,-6,25,-61,-83,-255,-393
-40,33,-56,-67,-41,13,-38,-106,-278,-304
-106,-61,0,84,-14,-20,-10,-49,-150,-155
-92,-100,78,255,37,-38,-32,2,-8,-39
-19,-100,89,281,44,-81,-85,52,172,122
-53,-31,128,304,84,-141,-191,-35,59,81
-23,-7,54,217,58,-206,-269,-129,-93,59
61,-23,9,41,-18,-204,-259,-106,-78,113
-32,-46,4,-74,-39,-112,-188,-50,-81,65
-39,-63,-90,-236,-60,13,-65,18,-33,161
-57,-117,-287,-407,-99,172,162,132,108,287
-20,-62,-343,-431,-120,295,367,157,92,406
203,35,-245,-324,-127,313,413,104,3,595
366,117,-141,-216,-145,161,207,-15,-67,688
227,146,-55,-89,-99,35,36,-88,-153,165
-62,62,30,9,-28,47,52,-17,-123,-338
436,17,-112,-189,-222,-144,-120,-7,178,538
511,74,-17,-137,-196,-105,-111,-39,67,683
254,-8,-23,-62,-120,-49,-75,-53,-34,417
-180,-58,-26,45,-2,48,44,46,-45,-187
-395,-53,-63,110,94,129,143,156,36,-368
-370,-43,-43,92,99,93,122,97,39,-22
13,48,-14,107,83,27,69,2,-6,473
293,146,61,162,73,-37,-15,-121,-198,324
2,123,176,234,135,15,20,-110,-334,-779
-436,23,326,359,297,176,232,130,-140,-1246
-392,-61,288,213,178,101,165,170,83,61
-55,-62,151,-14,5,-33,0,-4,-7,603
-165,-156,3,-114,-10,-8,14,27,40,-171
-260,-109,-41,-102,19,43,47,114,144,-748
-58,38,4,-36,44,42,-9,64,72,-536
60,53,-23,-66,-7,4,-73,-8,27,510
141,-27,-124,-165,-116,-10,-47,6,79,1205
121,-65,-137,-175,-159,-24,-43,-20,16,524
29,-46,-71,-64,-106,-19,-47,-11,-2,-549
7,-7,-40,11,-18,3,-17,48,71,-743
72,5,-85,57,53,23,-22,26,41,-248
139,27,-9,88,99,30,-24,-39,-111,5
-7,46,105,178,155,61,-6,-17,-126,-367
-62,58,84,130,120,77,63,-3,-130,-513
109,59,-5,2,-32,-12,-7,-95,-157,-147
192,95,22,-48,-117,-110,-141,-187,-195,134
51,68,31,-65,-121,-138,-154,-134,-121,131
27,19,24,-135,-124,-158,-128,-64,17,303
28,-12,-75,-130,-62,-105,-58,-23,24,246
-34,-40,-145,-78,-6,-50,-6,0,-26,-182
-70,13,35,48,68,-21,-7,-38,-127,-530
-38,37,99,90,109,-11,-56,-60,-169,-498
10,-19,28,24,58,-6,-8,12,6,-193
14,0,-4,-8,20,2,48,80,143,-29
1,44,25,4,35,34,32,32,29,-73
7,36,-23,-33,36,132,109,-2,-99,-142
2,29,-51,-39,30,200,198,16,-149,-77
-9,-12,-63,-18,24,162,174,37,-111,11
-1,-47,-71,-7,11,76,118,111,118,92
81,1,-24,49,14,17,41,73,164,143
184,74,43,83,36,11,-46,-94,-86,104
197,55,61,81,68,33,-87,-224,-299,149
118,15,-12,23,58,19,-98,-205,-250,250
-76,-33,-28,-64,6,14,-16,33,92,157
-243,-59,-136,-111,-35,37,100,201,285,-142
-160,-17,-118,-95,-56,1,62,109,138,-231
54,52,29,-55,-55,-54,-62,-71,-91,-117
206,93,55,-53,-93,-115,-149,-107,-10,127
249,47,1,-50,-77,-97,-95,34,269,500
139,8,28,9,11,-8,-22,87,297,460
11,15,28,18,42,28,12,38,170,79
6,-8,-17,-37,-22,-31,-23,-42,64,-10
-220,-7,87,87,81,11,73,-16,-96,-203
-202,-62,53,64,67,-38,33,-23,-92,-132
-150,-74,3,-2,15,-68,-38,-48,-96,-150
74,39,22,-3,-4,-51,-75,-79,-113,-70
158,34,-8,-19,-24,-6,-22,0,111,115
90,8,-27,-20,-27,36,22,68,297,227
101,88,-13,-20,-43,-6,-6,12,160,208
48,99,37,26,-33,-46,-17,-22,-11,177
1,53,73,79,-39,-83,-40,-96,-159,283
36,-18,15,18,-100,-116,-83,-70,11,478
58,-58,-28,-28,-117,-83,-76,44,260,487
16,-98,-27,-41,-79,20,10,116,281,314
-14,-168,-37,-37,-39,71,48,118,173,-9
81,-113,-34,4,28,99,45,41,-77,-343
213,8,0,49,77,73,1,-65,-265,-243
209,45,20,94,117,51,-13,-101,-248,208
-11,8,-3,48,73,18,-1,-54,-113,296
-191,-70,-73,-53,-74,-98,-36,58,178,13
-135,-157,-92,-25,-94,-105,7,120,255,-324
345,80,104,23,-24,-46,4,-95,-55,65
301,108,77,19,26,37,84,0,14,-101
61,155,155,89,102,82,153,60,-52,-352
-219,132,126,97,144,84,135,30,-141,-170
-163,55,21,5,63,27,36,-66,-125,838
-94,-1,-67,-96,-22,-30,-22,-129,-76,959
-220,-97,-128,-105,-21,10,72,34,136,-161
-181,-123,-97,-1,39,110,171,131,80,-855
-96,-125,-112,-11,-17,50,53,-1,-146,-663
-31,-148,-125,-43,-116,-84,-92,-69,-85,-96
-53,-93,-45,70,-38,-75,-78,-21,27,-4
-80,37,126,216,92,0,-13,44,101,-178
206,167,218,142,57,-13,-21,30,127,277
232,136,157,27,-20,-42,-11,-38,-36,227
45,41,78,-8,-9,-34,-28,-58,-123,-365
88,51,-8,-101,-30,-49,-133,-98,-136,-410
327,76,-133,-234,-132,-85,-178,-116,-47,313
564,-33,-407,-360,-257,-220,-139,23,250,1120
200,-32,-265,-153,-99,-109,14,145,421,864
-451,-12,5,76,81,45,162,117,132,-459
-639,77,87,145,142,131,183,79,-109,-1341
-484,122,79,108,141,202,183,114,-132,-1334
-99,23,0,-10,19,113,41,19,-90,-323
-18,-14,-105,-12,-22,26,24,-30,-88,-53
200,15,-54,-15,-119,-142,-148,-115,-99,875
280,129,-5,-17,-78,-113,-131,-52,-1,547
-52,-18,41,-6,46,39,77,155,207,-163
-528,-158,60,80,178,193,259,241,169,-655
-484,-122,92,96,164,186,240,158,21,-719
-198,40,141,104,123,109,102,8,-187,-710
12,83,130,87,62,28,-10,-96,-253,-354
124,55,79,141,27,-50,-92,-89,-98,135
217,81,79,169,1,-120,-158,-55,63,498
206,50,49,88,-35,-146,-176,30,188,588
165,33,59,49,-64,-167,-244,-85,74,840
116,53,135,28,-79,-189,-298,-218,-135,848
2,33,144,30,-41,-106,-219,-205,-254,-20
-43,38,134,80,20,10,-61,-140,-323,-666
22,89,120,49,22,43,57,-42,-235,-617
-91,61,38,-31,-7,5,96,124,61,-487
-236,30,14,-36,36,26,112,197,312,-424
-189,-28,-19,-49,74,92,170,139,173,-185
-2,-59,-184,-199,-13,37,146,36,16,43
239,-22,-374,-350,-113,-67,51,-57,-37,177
332,37,-332,-344,-113,-63,-24,-93,-65,148
217,14,-133,-190,-36,17,-42,-86,-83,47
320,86,-1,-63,-32,37,-70,-114,-114,176
373,150,67,-23,-15,102,2,-106,-108,439
162,80,70,18,50,182,140,46,81,548
-22,-4,98,61,71,144,188,172,254,333
-208,-96,117,117,71,80,139,130,188,127
-221,-159,116,99,36,14,18,20,83,108
-157,-156,60,28,2,8,-18,-8,63,272
-65,-115,-70,-82,-99,-72,-106,-105,-24,506
-146,-108,-135,-45,-44,-21,-45,-89,-138,137
-217,-113,-1,107,90,105,79,-31,-238,-145
-54,-8,151,169,120,122,79,-36,-290,93
-78,-35,-64,7,-71,-67,-106,-69,-37,-136
-14,-126,-261,-51,-101,-93,-64,181,495,-308
9,-73,-138,23,13,24,36,248,528,-281
-146,-16,-19,78,106,111,74,164,233,-243
-225,21,0,93,162,165,105,114,25,-339
-98,67,2,98,163,138,96,55,-41,-360
118,108,51,74,87,8,-5,-1,-28,-94
140,130,56,-48,-46,-108,-162,-57,-8,224
113,129,-25,-197,-177,-177,-252,-168,-186,399
105,49,-125,-236,-188,-160,-229,-137,-145,490
83,-40,-144,-170,-130,-112,-146,0,95,535
72,5,-10,102,43,15,3,84,236,328
107,53,101,155,77,58,77,8,-62,500
113,57,87,85,49,71,125,-35,-181,597
-59,-62,-15,-4,23,38,97,-23,-95,4
-147,-112,-133,-39,16,16,68,60,72,-766
-110,-23,-101,42,81,38,104,117,115,-927
-105,10,14,91,109,43,88,113,68,-655
-130,-12,15,84,90,18,0,33,-53,-307
-74,20,76,87,78,11,-38,-39,-133,-154
-47,51,125,112,78,40,9,-26,-101,-169
-107,41,122,135,68,51,67,-3,-36,-274
-101,25,100,104,36,34,67,15,26,-247
-61,7,93,48,0,9,36,-11,15,-98
-50,-32,52,8,-32,-30,-1,-16,-17,-25
-65,-23,-44,-25,-28,-50,-53,-13,-27,-72
-70,18,-44,-2,14,-34,-58,1,-29,53
4,36,-59,-43,-17,-87,-85,-12,-39,402
183,48,-83,-105,-102,-188,-214,-93,-81,471
248,6,-54,-129,-151,-224,-245,-125,-80,262
260,-31,-52,-116,-147,-149,-141,-64,-7,475
175,-36,-21,-77,-102,-14,-37,-59,0,1009
73,-62,-123,-111,-128,-8,-26,-64,37,903
-7,-112,-270,-126,-120,11,14,-13,69,115
8,-106,-251,-65,-29,156,217,87,49,-600
34,6,-77,-1,32,209,299,140,60,-714
-122,64,98,78,84,167,218,127,6,-676
-187,40,131,122,110,117,105,72,-65,-529
98,84,141,102,36,6,3,-15,-47,-69
423,95,115,31,-86,-107,-108,-91,-34,383
532,69,73,-31,-145,-177,-173,-154,-79,401
-190,93,222,171,15,-48,-54,-82,-141,-408
-583,-34,174,195,96,81,64,-35,-167,-702
-645,-101,104,180,188,201,168,29,-145,-843
-325,-30,4,95,161,157,100,4,-169,-636
17,-18,-149,-11,41,37,-25,-67,-154,24
395,59,-99,-83,-64,-57,-110,-181,-239,676
459,94,-91,-173,-154,-122,-156,-198,-177,667
73,9,-127,-147,-95,-74,-95,-100,-55,0
-174,4,-29,-55,19,33,29,52,7,-355
-143,23,12,-23,53,74,120,220,206,49
-114,23,47,37,96,80,106,153,188,200
-225,-80,20,45,88,58,75,169,252,-255
-289,-166,43,101,35,6,48,221,385,-462
-69,-81,144,173,41,-23,-18,61,124,-179
91,-16,130,106,32,-49,-77,-51,1,150
172,42,115,11,-59,-155,-165,-108,72,380
0,9,7,-35,-35,-54,-51,-53,24,264
120,-24,-2,-149,-82,-61,-51,-49,34,205
82,-96,-16,-220,-95,-91,-72,-77,52,69
-104,-172,-147,-241,-67,-40,-12,21,144,71
-115,-105,-160,-195,-39,-12,3,75,142,-67
-57,30,-27,-72,14,-15,-58,0,-78,-415
-13,110,80,30,62,-25,-86,-62,-161,-312
55,118,101,80,37,-106,-157,-107,-94,301
178,114,91,89,-24,-206,-258,-184,-41,418
256,112,109,113,-22,-209,-276,-220,-67,78
197,61,162,164,59,-59,-53,-62,-47,-195
149,0,138,116,64,92,240,140,27,-265
5,-48,76,37,34,108,199,189,94,-185
-112,-24,5,-22,14,53,60,107,21,-262
264,26,-131,-103,-72,-51,-99,-72,-108,-167
386,21,-79,-10,-36,-15,-50,-87,-97,9
48,-97,-9,83,45,61,52,14,3,70
-261,-203,-9,72,31,98,157,109,63,13
-249,-249,-105,-56,-81,76,207,58,-20,59
-57,-181,-107,-99,-155,-19,85,-40,-84,372
120,-17,23,57,-122,-194,-102,-117,-109,661
59,66,116,261,13,-214,-156,-142,-170,671
-52,11,90,157,25,-166,-103,-97,-59,760
-170,-60,-29,19,50,-25,19,43,126,472
-219,-45,-44,11,134,165,180,163,171,-212
-271,18,-21,-3,154,260,247,105,7,-897
-13,58,-39,-73,88,286,199,95,-75,-817
182,65,-97,-153,-4,194,123,85,-89,-249
155,156,50,-112,1,-51,-58,32,35,217
241,168,64,-112,-41,-84,-85,61,134,42
219,119,-54,-93,-36,-44,-45,64,156,-85
1,70,-34,-60,-14,4,35,85,131,-235
-176,39,34,0,36,56,94,77,70,-152
-68,-26,23,12,47,50,62,28,0,-28
-29,-128,-78,-28,19,38,12,-11,-79,-43
-16,-83,-138,-9,35,10,-24,-107,-269,-4
-73,-35,-127,12,42,1,-12,-132,-356,516
-241,-74,-82,22,49,24,22,-88,-243,707
-433,-148,-56,-25,-6,-24,12,-6,52,-9
-172,-12,-11,0,6,-22,-9,-14,11,-471
180,90,35,17,-8,-43,-46,-7,-30,-312
288,6,-6,-19,-64,-93,-43,142,431,-83
214,-28,18,40,-32,-109,-58,122,452,67
-18,-47,67,82,18,-72,-52,54,202,123
80,44,122,16,-35,-15,-67,-150,-227,209
187,-5,-62,-80,-91,-51,-56,-119,-158,309
336,-24,-133,-134,-124,-98,-72,-17,120,723
312,-21,-125,-126,-110,-121,-68,53,311,669
41,23,-13,-7,6,-40,-33,50,286,-140
-191,76,95,137,142,50,8,-7,31,-926
-310,-5,58,162,171,92,56,17,-64,-697
-274,-41,17,168,176,126,88,33,-120,-392
-80,6,9,193,165,101,56,-31,-176,-212
-49,41,81,220,137,52,21,-54,-214,-163
-56,40,139,180,82,-17,-45,-90,-252,-94
-141,-39,86,-46,-48,-59,-27,25,64,-2
-142,-48,-72,-159,-73,-11,26,138,159,8
-35,54,-67,-207,-98,-30,-3,72,-8,-63
64,153,-6,-198,-139,-110,-94,-57,-150,-186
209,114,-17,-171,-164,-166,-136,-28,110,33
365,63,-24,-123,-133,-133,-142,1,236,283
272,86,21,-63,-82,-91,-126,-55,9,284
99,108,84,7,-13,-51,-87,-59,-154,118
-131,-53,19,18,5,-31,-46,56,-57,177
-121,-106,27,58,63,127,194,92,35,650
-15,-39,42,82,79,118,222,27,-81,208
-18,-13,25,54,41,50,99,-22,-88,-370
-51,43,70,26,21,2,-5,8,-65,-600
-201,122,160,155,124,48,22,75,-3,-510
-171,82,134,139,113,47,37,101,0,-355
-76,55,55,44,39,-14,-7,92,49,-52
125,32,-16,-4,20,-15,-6,37,45,214
452,-4,-58,5,11,-15,-20,-13,19,364
635,7,-73,31,-21,-12,6,-44,-20,333
491,50,8,65,-10,30,58,-52,-52,354
170,58,100,94,4,21,7,-81,-125,204
-287,-16,127,68,36,51,25,-32,-167,-204
-343,-50,101,-12,15,56,54,40,-59,-82
-174,-27,46,-84,-10,25,44,40,46,649
-351,-125,-128,-176,-35,-21,48,98,167,565
-409,-156,-219,-185,-67,-62,9,129,280,-125
-236,-71,-118,-104,-53,-75,-53,70,272,-436
0,24,-35,-44,-30,-68,-84,-4,108,-318
-80,-26,-9,24,20,-20,-23,13,27,-255
-53,0,51,103,68,-14,-31,36,54,-279
91,109,29,151,74,-90,-97,0,56,-284
165,134,-70,139,72,-137,-121,-88,-92,-346
100,23,-81,115,82,-89,-53,-89,-149,-262
89,-4,16,94,68,-49,-29,-94,-105,-81
122,52,39,57,55,10,-15,-98,-89,1
-67,-45,-51,-21,42,125,104,-40,-39,36
-300,-132,-99,-49,34,179,247,67,31,108
-335,-169,-55,-11,46,232,343,134,38,142
-186,-139,44,17,-5,187,317,105,2,183
-32,-89,56,68,-53,41,154,40,27,375
28,-50,17,121,-16,-105,-13,4,109,1043
112,4,-20,111,5,-226,-116,-54,60,939
222,33,-58,56,-26,-302,-140,-98,-37,24
97,0,-93,8,14,-219,-75,-26,5,-767
-162,-33,-70,-15,82,14,-5,9,20,-850
-267,-78,-66,-85,19,136,-33,-80,-32,-580
-112,-40,-49,-130,-54,200,-53,-110,-30,-237
23,29,-99,-101,-32,329,90,-5,50,-55
-8,34,-93,-8,47,394,193,87,88,-73
-32,-1,-72,62,76,242,194,115,87,-58
13,-25,-48,43,6,-6,25,-1,25,8
-88,-37,-22,40,-21,-77,-112,-82,-33,-15
-82,15,24,57,-6,-29,-78,-55,-44,-38
88,132,154,77,-10,16,-25,-44,-69,78
62,103,102,30,-17,71,10,-70,-128,155
100,105,95,-65,-55,95,41,-113,-220,330
244,252,112,-121,-82,82,50,-147,-329,278
208,96,-74,-176,-102,37,58,-113,-309,-80
38,-133,-190,-177,-96,15,64,24,-19,-232
-130,-62,-83,-51,12,54,75,92,90,-422
-145,61,50,21,68,62,75,110,63,-475
-23,65,60,25,33,26,31,28,19,-142
125,42,4,-34,-84,-74,-78,-54,21,391
155,19,-26,-68,-171,-150,-119,-31,136,744
99,10,40,-16,-137,-129,-82,38,228,760
-150,-117,59,-14,-37,-28,39,167,244,-298
-11,-131,-2,-29,-62,-57,-43,97,114,-528
89,-121,4,55,-17,-53,-98,28,-9,-400
106,17,-69,66,26,-43,-151,-95,-125,298
-41,65,82,80,60,-20,-136,-153,-197,203
-166,64,163,126,99,42,-32,-121,-247,-158
-194,-2,69,65,38,29,39,-9,-94,-211
-142,-77,-112,-56,-43,-15,28,137,264,182
-21,-21,-102,-59,8,-26,-40,94,265,506
144,64,-12,-42,29,-48,-112,-1,157,303
185,70,-18,-75,-40,-74,-106,28,181,-87
21,84,-13,-65,-29,-21,-37,31,41,-164
88,137,24,1,38,23,16,-20,-150,193
206,117,35,70,78,32,0,-48,-219,369
10,-25,-29,52,33,28,5,-5,-106,21
-251,-147,-47,56,23,52,67,86,128,-294
-221,-79,101,85,106,153,154,86,-14,-422
-158,-12,75,39,92,159,128,-71,-422,-425
-156,9,56,79,129,142,94,-178,-646,-502
-139,-67,28,57,67,62,32,-25,-280,-552
6,-84,-35,-61,-65,-32,18,238,437,-241
94,60,17,-71,-81,-28,1,224,513,-11
144,64,-1,-63,-79,-47,-54,72,272,159
27,-85,-84,-63,-72,-108,-123,-52,92,300
-11,-116,-105,-79,-102,-125,-110,16,228,383
-1,-79,-63,-31,-58,-75,-79,39,244,290
125,88,-78,-35,-113,-132,-174,-94,62,229
187,126,-162,-70,-187,-154,-214,-127,20,767
206,43,-44,-21,-128,-72,-119,-62,13,1118
-41,-42,-36,39,-38,-10,-28,-18,-25,339
-51,12,49,121,80,68,82,62,10,-315
85,107,222,204,188,147,131,86,-44,-299
-40,18,130,99,113,89,44,48,-70,-270
-137,-22,17,22,57,31,-21,16,-36,-211
-157,-38,-4,109,32,-26,-81,-20,-27,-171
-144,-23,68,233,70,-15,-80,-19,-36,-180
-149,20,201,331,145,41,-40,-9,-90,-250
-10,29,131,247,115,8,-49,-32,-102,38
52,56,-30,83,50,-39,-73,-22,-54,103
35,80,-52,-26,15,-51,-64,-17,-44,0
-95,-72,-73,-97,2,36,72,20,-21,27
108,-95,-193,-190,12,191,358,162,72,242
27,-56,-203,-209,-13,148,293,189,89,-167
-68,-33,-184,-152,-24,53,164,120,14,-378
128,77,-45,-8,-22,-34,2,-3,-82,-1
320,138,100,48,-64,-62,-84,-74,-118,361
422,124,154,20,-123,-92,-132,-107,-18,639
316,77,164,-48,-199,-161,-189,-148,53,543
73,48,101,-28,-183,-154,-161,-189,-82,38
-149,66,73,107,-32,-38,-38,-203,-340,-665
-168,53,106,122,31,61,104,-122,-297,-633
52,23,32,39,7,100,174,-27,-181,25
125,-40,-124,-90,-57,59,145,78,-59,50
-58,12,-181,-120,-23,31,91,202,314,-609
-196,153,81,75,84,49,57,90,110,-559
-200,181,153,79,58,19,8,0,-81,-348
8,135,75,-79,-87,-60,-17,21,-54,-44
79,42,9,-144,-141,-91,-26,26,90,105
-103,-88,-7,-53,-33,-7,19,78,196,23
-137,-189,-71,-68,-32,2,28,88,198,229
7,-211,-208,-203,-148,-48,-32,1,154,518
-50,-194,-201,-149,-107,-4,31,-70,-13,351
-134,-46,-68,52,74,118,132,-40,-142,-225
70,148,-8,151,174,154,102,9,-169,-541
169,167,-30,39,72,59,-4,-6,-105,-188
-5,75,-24,0,33,40,-21,-17,-12,93
-237,-46,18,122,143,131,57,16,23,-75
-239,-71,165,195,215,153,77,-21,-103,-259
92,-71,99,55,64,9,5,-30,-27,622
210,-50,-2,-73,-80,-130,-125,-77,35,1179
-40,-6,20,12,-13,-134,-155,-154,-151,314
-93,51,99,137,71,-79,-99,-126,-298,-721
187,92,108,118,13,-110,-119,-19,-104,-792
320,93,56,66,-52,-135,-140,59,194,-482
61,48,105,138,32,27,14,136,292,-200
-229,-51,122,147,120,208,209,141,167,-56
-245,-95,-2,26,103,208,280,79,35,34
-184,-113,-155,-91,37,88,156,46,27,95
-85,-103,-261,-144,-16,-56,-23,10,51,82
-120,-61,-189,-128,-26,-137,-79,-17,42,-42
-145,-48,-79,-42,-16,-132,-71,-58,0,-95
-106,-52,-45,18,0,-64,-52,-75,6,-142
-34,7,11,75,-6,-15,10,-27,69,-92
-133,25,95,184,38,90,108,48,61,-87
-61,7,166,152,8,115,84,-16,-37,-26
156,41,183,69,-65,28,24,-88,-88,108
120,63,145,17,-96,-67,14,-59,-37,163
-5,26,-33,-67,-100,-109,-18,-48,-26,66
74,5,-146,-103,-76,-117,-58,-59,-49,-17
200,-70,-132,-47,-12,-83,-64,-91,-73,68
117,-195,-148,-72,-8,-39,-26,-95,-34,346
73,-172,-116,-141,-65,-57,8,-105,13,1101
363,-32,-128,-247,-170,-141,-54,-135,3,1818
395,35,-194,-313,-242,-216,-150,-110,43,1410
-42,-17,-107,-244,-152,-122,-86,-57,31,-72
-354,88,89,12,96,95,81,-34,-213,-1456
-230,193,193,206,234,176,113,-88,-451,-1389
-183,136,197,201,220,206,187,-12,-267,-761
-62,31,47,77,77,94,229,205,263,-306
22,-1,-47,31,93,23,151,127,180,-159
31,7,-108,-16,78,49,92,53,37,-154
-67,-48,-102,-13,66,85,50,48,69,-238
-166,-106,-83,14,47,74,11,121,258,-233
-203,-120,45,104,41,5,-87,52,168,-173
-133,-107,105,168,47,-11,-101,-27,11,-106
56,-14,85,127,9,8,-24,-55,-118,-62
205,90,40,43,-67,-16,38,-80,-168,68
156,41,26,18,-63,8,65,-64,-148,156
24,-12,17,-31,-52,68,83,76,156,238
-1,24,10,-81,-35,107,76,161,292,264
121,74,22,-139,-65,51,-15,7,56,464
350,142,-7,-200,-114,-87,-188,-274,-262,749
369,76,-97,-229,-140,-116,-217,-320,-375,633
104,-32,-84,-175,-92,-35,-75,-144,-214,163
-353,77,83,68,82,115,121,138,45,-676
-182,-50,-93,-60,-74,7,65,210,349,-51
77,8,-57,-30,-92,-38,-1,123,234,303
236,71,49,-1,-81,-79,-122,-120,-105,302
169,43,0,-25,-56,-112,-154,-130,51,391
-75,-67,-48,-11,44,-12,1,178,486,555
-66,-74,-42,-7,80,51,75,262,428,445
24,-49,-168,-113,-13,-10,-27,123,157,-27
369,53,-119,-147,-107,-70,-92,6,51,80
504,99,-58,-49,-67,1,-34,-10,48,270
228,90,28,83,61,101,26,0,22,415
-346,132,170,209,181,127,65,16,-19,-10
-561,64,124,180,163,86,87,67,-1,-505
-327,22,37,107,84,60,132,99,12,-815
-146,71,107,81,57,5,48,86,83,-684
-113,53,190,83,72,-37,-104,-1,41,-678
-66,-15,153,64,69,-7,-94,-44,-110,-740
-17,-91,19,28,68,52,17,-18,-158,-587
-27,-74,-14,60,91,44,5,-29,-141,-409
-95,38,56,162,104,-19,-104,-71,-104,-269
-95,-1,103,187,97,16,-33,-40,-108,-156
0,-55,93,120,42,38,76,-48,-199,-98
14,-34,26,-28,-49,-47,-39,-127,-240,-48
-55,11,3,-139,-120,-119,-180,-115,-119,-13
-159,25,9,-132,-99,-84,-155,-44,1,-20
-234,-38,-93,-34,-4,-34,-68,19,24,-73
-118,-16,-152,-2,7,-60,-106,-4,34,-50
-73,7,-58,-16,-20,-67,-135,-57,15,-15
-30,-3,-80,-74,-51,-9,-53,-68,-19,149
83,21,-72,-98,-69,49,139,-48,-44,283
40,1,-27,-79,-49,27,268,36,-1,258
-110,-56,-95,-68,-11,-55,186,63,54,123
-26,-24,-219,-114,-14,-124,8,-34,-21,104
183,40,-274,-165,-57,-135,-86,-103,-97,292
380,68,-237,-170,-88,-70,-119,-99,-89,614
436,12,-146,-179,-135,10,-154,-97,-28,713
420,-14,-87,-125,-120,99,-144,-116,-33,707
228,34,57,48,-61,99,-88,-82,-16,638
-52,-7,153,173,-36,-43,-56,-47,26,411
-128,-43,138,182,82,-23,-8,-61,-173,-669
241,111,155,187,177,190,217,74,-150,-209
217,77,126,117,145,239,296,115,-110,-97
-315,-11,136,66,127,207,242,119,-107,-523
-488,13,165,9,94,104,157,134,-64,-798
-273,29,84,-129,9,-26,38,141,91,-497
-200,-45,-36,-145,7,-57,15,142,198,-209
-195,-84,-31,-96,19,-110,3,134,240,-66
-55,-61,-7,-56,-2,-195,-102,60,291,104
53,2,56,-36,-30,-262,-195,-74,177,89
108,59,78,-15,-14,-246,-225,-151,35,1
148,67,103,50,19,-147,-197,-120,-34,2
17,62,161,154,75,4,-109,-47,-61,-108
-136,69,182,191,118,91,-7,16,-54,-227
-61,94,138,105,75,43,-31,-37,-77,-107
-48,53,5,-15,15,75,-29,-49,-50,61
-165,-52,-82,-85,-10,165,164,73,30,11
-100,-30,-2,-19,15,86,160,98,22,-112
99,-6,68,109,48,-13,-47,-28,-69,-69
66,-135,15,156,62,26,-55,-61,-83,-11
25,-136,39,166,75,104,63,-17,-78,-77
35,-32,68,154,63,128,183,12,-90,-53
-107,31,116,180,54,91,185,0,-84,101
-153,26,54,97,-33,-25,77,-56,-82,181
14,-12,-109,-74,-117,-116,-39,-158,-123,145
319,-13,-262,-212,-166,-188,-142,-276,-263,155
476,29,-212,-146,-75,-130,-136,-312,-447,15
185,21,-31,-2,60,16,3,-204,-422,-229
-134,-82,38,-14,74,116,136,-5,-93,73
-131,-56,55,-36,68,209,188,102,120,444
-165,55,40,-78,-15,181,113,52,34,529
-131,47,-99,-160,-115,58,5,18,-24,451
-78,-22,-146,-186,-154,-49,-4,87,142,138
-67,-62,-111,-114,-64,2,81,244,457,-341
-35,58,19,17,46,81,108,256,497,-517
71,114,48,22,15,55,36,118,312,-189
202,78,1,-8,-38,18,-4,11,122,37
188,17,-57,-18,-58,-11,-30,-67,0,175
4,-101,-141,-29,-105,-153,-134,-63,261,1601
-30,-109,-146,-17,-83,-166,-171,-56,342,1443
-361,-135,-92,98,38,-56,-74,1,193,39
-383,-82,-38,220,121,53,60,88,85,-829
-138,-10,103,252,112,87,138,141,51,-946
-4,42,190,238,80,63,95,62,-100,-933
14,120,219,194,14,-2,-3,-42,-161,-737
-36,173,228,153,-33,-51,-84,-118,-167,-394
-119,135,186,162,17,-30,-86,-132,-166,-39
-37,58,74,134,13,-54,-102,-75,-26,28
168,18,-22,75,-50,-115,-144,-36,103,-58
262,28,-48,42,-43,-78,-107,-89,2,-123
111,-8,-75,32,22,12,3,-45,-36,-164
-21,-44,-90,-85,-10,20,81,59,76,-64
115,90,-104,-170,-30,7,60,66,50,-18
124,153,-135,-206,-17,17,33,17,-90,16
120,106,-204,-352,-125,-17,-5,-1,-86,299
200,106,-207,-305,-113,7,-15,-53,-120,555
122,121,-62,-110,-17,62,9,-51,-91,541
-90,46,-31,-26,5,29,-18,-25,0,39
-36,-10,-33,3,38,23,-12,-37,-107,-357
128,-19,-54,48,55,28,-56,-150,-333,-436
69,-78,-84,111,95,39,-50,-126,-239,-127
-191,-217,-35,104,92,41,6,94,165,73
-186,-225,-58,63,21,19,7,212,453,208
-56,-236,-99,-27,-52,-31,-47,149,392,574
1,-219,-106,-85,-99,-96,-118,6,196,627
314,-18,-33,-69,-133,-162,-210,-131,18,613
662,95,37,-67,-148,-189,-237,-140,36,785
438,151,183,89,-1,-59,-72,-11,61,363
-359,188,314,259,185,128,125,101,32,-707
-703,140,291,302,239,185,156,50,-146,-1154
-544,1,151,275,205,170,126,-10,-326,-882
-440,-77,93,272,211,192,164,-39,-452,-689
-217,-14,127,227,176,131,64,-111,-495,-493
-119,-80,1,98,109,68,13,-91,-341,-297
-423,-263,-150,-51,35,61,73,107,44,-198
-535,-283,-89,-86,21,86,152,238,370,0
-343,-104,-38,-94,-28,21,65,52,96,-35
-36,86,-71,-165,-114,-70,-48,-84,12,-16
118,101,-13,-175,-128,-57,-14,-1,236,159
184,49,-42,-222,-139,-36,9,49,202,376
278,-3,-90,-269,-163,-34,8,11,116,545
303,24,-65,-225,-163,-66,-16,-35,119,405
106,98,-38,-109,-95,-64,-32,2,143,-12
-118,122,6,-7,15,-7,18,114,91,-314
-122,70,88,0,41,-28,6,134,41,-372
57,37,73,-39,7,-92,-109,42,-16,-174
191,-45,-73,-135,-81,-165,-249,-88,-40,277
375,-33,-137,-181,-135,-194,-349,-162,-28,818
432,-19,-91,-140,-177,-178,-312,-151,-22,1064
231,-38,-29,-28,-133,-76,-206,-115,-56,878
-85,1,89,117,-32,-15,-109,-72,-97,25
-270,-5,167,185,40,-26,-69,-27,-12,-486
-244,0,177,199,108,13,-55,-2,104,197
-151,-58,-5,91,103,96,48,-31,-95,400
-234,-113,-56,4,104,184,183,-12,-209,-342
-340,-22,12,32,192,236,272,98,-116,-937
-157,157,101,82,248,231,239,141,-64,-894
217,189,38,-41,89,114,122,115,33,-430
401,49,-79,-111,-55,33,100,69,113,24
447,-47,-72,8,-52,27,81,-9,70,333
296,-26,-14,110,1,6,16,-39,-8,272
115,24,26,154,76,37,21,12,-22,63
434,95,-17,39,-16,-132,-208,-179,-55,465
264,118,29,48,25,-88,-152,-67,20,312
-17,92,106,138,97,-15,-43,75,71,-126
-203,26,117,174,129,29,25,133,21,-540
-269,42,71,127,120,37,53,119,-17,-665
-141,100,173,122,72,-18,-13,-24,-106,-356
37,75,186,46,-25,-77,-56,-147,-180,-99
83,16,-7,-84,-76,-47,11,-135,-230,-151
-53,-38,-116,-160,-57,21,12,-73,-257,-297
-68,-140,-259,-201,-40,47,13,51,-78,11
-76,-213,-338,-124,25,98,79,134,72,324
-190,-198,-252,-12,75,118,114,110,55,225
-138,-16,72,39,-24,57,-10,21,172,-160
-31,20,9,-55,-121,-95,-94,3,123,39
17,-2,-20,-136,-136,-181,-83,-24,17,214
46,26,-14,-152,-86,-93,2,10,82,233
104,79,-68,-189,-81,-51,-8,31,132,80
137,31,-101,-158,-53,6,20,45,14,-136
94,-60,-75,-66,-3,123,101,99,-54,-203
36,-87,-36,23,48,160,117,98,-34,-146
-84,-70,92,130,90,64,25,23,-87,-158
-48,0,155,164,96,-45,-77,-67,-151,-96
-49,8,132,141,70,-36,-125,-105,-137,-3
1,9,142,102,16,14,-120,-114,-83,107
44,40,203,62,4,70,-21,-75,-61,127
68,-24,99,-39,-16,107,112,26,-16,136
235,-4,10,-163,-69,80,160,84,27,349
241,-18,-55,-229,-114,21,131,99,81,562
106,-33,-29,-178,-89,18,89,33,4,543
-103,-33,16,-115,-66,-20,21,-32,-74,299
-264,-53,28,-32,-11,-20,7,-20,-81,-95
-224,-92,-17,26,40,-2,36,20,27,-317
-55,-91,-26,32,0,-34,38,69,242,-208
-77,-96,43,61,7,-25,29,53,199,-120
-51,-31,41,38,-19,-64,-28,-1,141,-88
71,48,81,65,16,-47,-42,-31,104,78
-73,13,18,64,69,26,23,36,39,187
-34,28,-22,54,46,24,64,79,56,-181
55,97,30,98,23,-11,38,78,63,-318
-39,28,123,284,95,-6,31,45,-25,-340
-109,-82,142,398,141,-8,-19,-40,-117,-251
-169,-77,184,353,122,-16,-66,-83,-152,-257
-74,-19,214,237,67,-28,-69,-65,-133,-145
33,21,138,79,14,-62,-79,-70,-72,-62
54,15,-103,-83,-40,-84,-52,-15,85,89
9,2,-256,-191,-62,-86,-49,12,97,85
129,25,-297,-279,-111,-153,-182,-120,-22,268
428,71,-222,-328,-156,-176,-278,-217,-6,1127
518,85,-110,-253,-173,-115,-107,-171,51,1968
325,44,-28,-74,-146,-118,25,-201,-18,1406
-82,-42,-26,92,-59,-113,42,-194,-49,-144
-274,-32,18,213,123,34,129,-24,-39,-868
-226,-7,-22,217,207,169,233,142,-15,-801
-229,-75,-44,121,197,275,276,190,-56,-860
-207,-40,12,25,159,298,250,162,-86,-958
-77,28,47,0,138,218,216,79,-143,-672
-89,41,67,-39,113,172,216,84,-67,-187
-24,82,67,-148,9,88,92,118,133,128
121,93,47,-227,-107,-23,-75,61,232,382
196,34,-16,-220,-141,-42,-82,0,143,494
127,-13,-58,-181,-127,-36,-43,-49,-17,56
52,2,-23,-59,-57,-11,-11,-96,-183,-288
0,-33,-118,-8,-49,-9,-15,-47,-124,-205
81,-73,-208,-39,-110,-57,-29,-18,-99,-69
276,-16,-100,-76,-142,-85,-94,-87,-135,142
321,46,-23,-85,-69,-56,-83,-110,-150,262
213,21,-34,-63,50,39,52,15,6,521
-37,-6,12,43,141,101,92,21,-84,7
-338,-42,157,150,196,136,124,64,-23,-689
-507,-65,203,171,186,133,120,124,150,-707
-471,-22,165,116,137,107,70,81,41,-156
-252,2,12,-41,-26,-12,-40,31,18,93
-30,-32,-101,-127,-131,-89,-120,-17,57,-53
15,-40,-94,-81,-65,-24,-61,27,81,-228
-57,28,49,76,39,63,45,68,15,-284
-100,66,203,153,66,78,68,12,-92,-212
-31,44,221,79,18,33,18,-54,-135,-21
76,-19,91,-99,-122,-72,-53,-45,86,255
213,-29,5,-158,-182,-141,-103,-3,243,561
208,-25,29,-57,-116,-130,-143,-44,132,598
15,-11,89,65,-52,-67,-110,-83,-77,210
-223,9,91,122,4,-20,-52,-97,-171,-288
-166,-7,64,108,27,-29,-26,-92,-157,-302
-118,-19,30,64,29,-2,31,69,65,-248
-18,27,-68,6,13,30,68,206,319,-70
128,103,-64,-3,57,65,60,128,167,56
-17,44,3,-63,39,55,47,45,41,32
-58,0,-17,-115,-34,3,-5,-4,27,176
90,-5,-40,-108,-91,-49,-75,-59,38,463
109,-47,-68,-66,-122,-90,-103,-72,56,667
158,-39,-80,-35,-146,-147,-123,-53,78,563
217,26,-24,43,-73,-118,-123,-80,-2,115
83,36,16,86,7,-58,-102,-80,-88,-308
-17,9,7,91,45,-13,-80,-30,-87,-395
-23,28,111,121,108,44,-40,-27,-160,-359
-153,15,133,42,71,49,36,-10,-151,-194
-86,-21,-232,-250,-150,-63,36,63,62,215
155,-28,-271,-157,-89,-45,4,26,47,270
217,-7,-98,-42,-39,-24,21,-2,-50,111
74,-23,4,17,-24,-23,43,46,-30,-133
-109,-32,33,31,-25,-11,59,78,22,-183
-219,-39,69,89,-8,2,56,117,120,-143
-187,-9,108,160,15,-31,6,41,0,-361
-234,-10,118,170,52,-22,7,7,-65,-374
-225,14,69,108,32,17,58,15,-14,-193
-111,54,18,-33,-72,8,60,-1,20,-13
9,51,-56,-110,-99,-18,37,-17,36,95
199,34,-77,-88,-12,5,31,-2,55,120
366,41,-173,-118,16,-5,-12,-26,37,119
349,26,-247,-131,-23,-61,-21,3,82,158
297,35,-98,-67,-38,-92,18,22,125,259
95,46,2,19,-7,-127,-6,-21,47,358
55,12,19,48,-16,-141,-93,-89,-48,602
32,-13,5,12,-51,-107,-130,-123,-96,578
-107,30,50,28,-27,-25,-79,-118,-74,94
-246,112,134,116,39,32,-27,-93,-68,-520
-171,144,150,141,90,18,-24,-31,-39,-444
-22,69,70,120,109,23,-12,9,-3,52
105,19,39,166,103,-22,-94,-42,-12,326
64,-127,-82,119,42,-71,-163,-126,-62,263
-74,-298,-251,-20,-64,-23,-35,-60,6,255
-180,-318,-234,-111,-119,105,185,127,175,56
-195,-123,-54,-24,5,267,332,193,116,-423
-96,100,135,66,120,233,228,53,-114,-585
16,176,209,24,57,77,78,-74,-243,-411
23,74,103,-45,10,56,102,-37,-214,-193
41,51,41,-61,28,72,76,10,-117,43
153,47,42,-142,-28,-33,-10,54,107,806
245,16,-31,-239,-125,-170,-123,3,186,947
154,-16,-86,-170,-83,-155,-134,-29,51,-33
-45,-2,-15,50,74,-19,-1,44,-37,-808
-116,51,55,160,128,46,58,51,-88,-753
-112,51,45,163,106,13,-18,-63,-184,-515
-208,-60,19,170,119,41,-32,-84,-181,-275
-267,-90,17,139,111,48,1,-42,-106,-130
-172,-32,-11,79,93,37,65,46,18,-70
36,-23,-36,-97,-10,24,139,128,128,-33
167,5,-34,-143,-49,52,223,110,12,-3
166,33,-18,-78,-6,40,191,69,-77,57
116,-5,-11,-91,-8,-29,105,30,-73,12
25,-8,-24,-90,-33,-61,35,69,92,-67
-103,5,-6,31,-6,-37,-40,60,197,-72
-6,76,63,134,-2,-42,-120,-61,39,161
224,99,63,121,-7,2,-114,-108,-89,485
315,52,-51,23,-41,57,-67,-70,-47,571
139,-2,-97,-68,-87,12,-63,-74,12,368
-222,-100,-77,-139,-97,-27,-38,-50,70,8
-343,-190,-217,-206,-38,48,59,23,38,-256
-221,-82,-222,-170,48,119,84,0,-117,-418
-202,10,-91,-81,92,104,79,7,-54,-399
-100,0,-48,-85,19,7,16,136,346,17
67,27,-8,-44,-7,-11,-57,111,429,380
120,69,1,-37,-8,-3,-91,24,272,452
184,52,-22,-42,-11,-21,-82,-6,147,323
141,50,-60,-9,-8,-47,-64,-39,24,52
24,71,27,5,-8,-72,-106,-94,-52,-74
-31,85,96,-37,-65,-110,-162,-125,-113,-169
-7,62,73,-40,-87,-66,-110,-107,-123,-179
-15,26,69,22,-59,35,39,-42,-102,-212
-30,-8,94,75,-43,56,97,31,14,46
30,12,73,106,-52,28,6,20,74,331
31,17,31,100,-68,-43,-72,-40,25,90
43,2,34,121,-31,-130,-100,-43,24,-259
41,24,67,181,66,-98,-10,-26,-29,-362
66,23,81,175,115,-24,89,-8,-44,-227
-24,-26,50,121,125,-9,32,-23,-50,-128
-68,-39,-50,25,68,-18,-51,-92,-107,-143
-156,-3,-138,16,32,62,-29,-75,-81,-98
-194,85,23,123,107,168,30,-56,-100,-64
109,142,61,85,18,-48,-53,-58,-62,253
301,94,-18,2,-55,-67,-48,-35,-42,323
207,-67,-124,-109,-125,-59,-31,3,128,165
-19,-141,-117,-63,-83,-27,-41,-8,202,10
-72,-142,-87,-19,-20,25,-19,-26,66,-67
-2,-115,-130,-14,-11,38,55,31,22,-73
-45,-63,-122,55,58,64,99,65,8,-89
-83,-2,16,113,97,59,58,14,-18,-45
-63,-5,52,46,29,80,131,-14,-25,0
-15,-9,64,-39,-28,103,162,-13,-97,-65
23,26,86,-67,-25,78,63,-43,-177,-92
54,93,139,-16,49,78,35,-24,-154,-174
145,72,85,-9,31,32,27,84,64,-40
90,17,-31,4,8,11,33,122,173,-10
-41,10,-94,59,10,1,1,75,116,-67
-105,-45,-78,52,-27,-49,-60,-11,38,-23
-145,-127,-41,-26,-69,-94,-102,-85,-22,31
-47,-88,-7,-75,-68,-123,-150,-118,-62,115
105,-20,-48,-98,-61,-137,-188,-158,-97,202
149,14,-29,-49,-19,-64,-108,-101,-103,111
-59,1,5,53,43,26,11,42,44,-39
-204,1,56,150,74,40,20,55,75,-112
-124,21,169,190,67,35,13,2,-21,-92
-103,18,221,168,38,14,45,-21,-24,8
-89,41,242,105,-18,-22,3,-34,0,76
-22,45,142,40,-16,14,-15,-15,-29,-46
110,63,35,-45,-11,64,40,-4,-74,-207
396,153,-53,-148,-86,-21,-13,-39,-73,108
534,113,-79,-182,-123,-106,-51,-54,-10,760
260,-50,-88,-78,-21,-20,-9,-18,28,1054
181,-70,-75,-5,-8,-14,-20,-73,-31,973
193,7,-47,22,-29,-28,8,-108,-91,653
-21,-32,-29,54,-4,4,56,-65,-87,252
-285,-140,-117,62,29,5,44,11,-7,-456
-222,-119,-69,46,26,6,38,67,40,-928
-159,-37,-18,-10,41,1,14,-6,-29,-559
-32,-66,-144,-141,-38,-26,6,26,50,-278
157,28,-44,-197,-64,-21,20,36,9,-149
177,77,-44,-177,-32,2,40,-16,-88,-136
-92,26,-56,-114,18,39,57,-55,-196,-295
-256,16,17,-47,48,67,77,-82,-291,-385
-63,102,39,15,34,30,2,-146,-370,-307
-15,75,-25,-28,-55,-68,-82,-123,-183,-329
-73,30,-2,-73,-87,-104,-83,-26,41,-378
-87,31,56,4,-12,-34,-37,33,22,-305
-168,-3,101,43,16,-17,-8,44,-7,-122
12,-11,98,-7,-21,-35,-30,52,39,113
150,-48,43,4,-39,-51,-53,133,232,259
66,-83,50,90,38,-46,-15,256,455,209
-136,-48,100,156,105,-12,20,227,357,14
-176,-45,67,139,79,-13,68,127,117,-45
-213,-83,-25,109,53,-29,84,84,45,4
-282,-97,-19,87,33,-37,1,43,88,69
-88,-86,-53,-36,-49,-70,-60,18,124,67
4,-59,-110,-105,-85,-24,-17,28,22,-158
95,30,0,-61,-68,-6,-15,19,-24,-136
205,144,81,-44,-39,-6,-48,-4,-10,90
133,166,73,-73,-25,-9,-45,-3,13,196
28,134,52,-73,-33,-26,-22,14,22,81
36,137,71,-28,-23,-14,-29,-2,-3,-20
89,108,113,-2,-42,-62,-98,-45,-23,52
49,0,82,3,-50,-116,-129,-56,-31,25
77,-52,7,-5,-39,-93,-95,-41,-50,11
124,-23,-16,4,-9,-82,-119,-65,-72,105
-34,-83,-24,63,73,-13,-77,-23,-11,112
-104,-113,-18,70,95,91,19,61,94,412
-8,-77,-3,72,78,212,160,77,52,1038
85,-68,7,23,13,221,229,62,65,918
47,-49,25,7,4,173,166,15,88,-73
96,3,14,9,32,124,84,0,44,-471
90,-44,-77,-43,0,38,21,-16,46,-88
-94,-107,-81,-37,-7,42,63,-18,-50,-184
-82,-46,38,58,23,92,156,-8,-160,-382
72,48,167,155,22,11,51,-51,-150,-178
94,126,171,164,52,-44,-76,-94,-122,-213
0,161,104,99,54,-52,-91,-67,-83,-396
82,169,21,13,-29,-86,-101,-61,-33,-254
97,33,-114,-55,-69,-37,-17,-11,16,-163
12,-92,-108,-38,16,66,73,51,-45,-260
-37,-111,-14,-8,75,40,31,4,-155,-304
-231,-92,-4,-40,78,-44,-1,7,-116,-277
-320,-54,-148,-131,5,-122,-40,61,18,-163
-183,24,-170,-108,-28,-171,-122,-30,28,33
34,79,-29,-72,-75,-150,-158,-105,-55,319
172,105,-18,-82,-81,0,-16,-33,-43,321
208,27,-117,-120,-52,191,120,36,-12,103
202,-33,-110,-158,-64,199,83,16,4,58
116,-32,-50,-125,-72,101,29,-4,-29,100
-45,-74,0,-7,-1,60,33,-44,-80,74
-73,-42,37,84,42,-11,-14,-109,-139,-92
-130,-51,28,64,16,-97,-65,-41,-4,-110
-133,-69,-7,27,1,-96,-64,38,185,53
84,-43,-4,-22,-46,-109,-100,16,232,254
208,-18,15,-30,-96,-130,-134,-39,130,329
174,9,65,72,-49,-54,-108,-50,24,117
-130,18,130,179,74,124,61,17,-42,-235
-320,45,168,190,100,112,119,34,-69,-405
-189,78,184,157,46,-25,-31,-48,-82,-332
56,85,152,114,1,-77,-91,-108,-89,-206
192,101,89,46,-14,-18,19,-90,-112,-137
78,65,-24,-28,2,69,153,3,-48,-52
-212,-87,-83,-41,81,136,241,83,-8,-45
-216,-112,1,-52,113,94,187,19,-84,-12
-18,-42,-44,-161,39,34,72,-29,-36,124
52,-3,-118,-245,-26,28,61,21,172,204
56,18,-146,-195,-37,3,91,18,129,210
-34,7,-89,-70,41,5,113,17,67,201
-79,28,-32,21,133,37,84,2,25,1
63,92,-59,21,106,12,-2,-83,-34,-32
212,133,2,-55,27,-2,-65,-123,-24,157
375,117,-3,-188,-94,0,-128,-194,-102,509
427,77,-58,-222,-155,0,-168,-305,-357,661
276,25,-29,-113,-86,34,-85,-225,-371,451
119,-81,-67,-80,-38,43,58,69,31,252
171,-162,-217,-156,-110,-8,86,309,473,207
114,-115,-269,-127,-91,-1,62,285,467,83
-456,-107,-103,12,54,95,92,98,-20,-503
-655,-127,71,102,143,148,84,-64,-379,-619
-527,-129,88,81,100,83,12,-133,-365,-473
-297,-4,118,46,21,15,-11,-69,-167,-316
-85,81,66,-49,-70,-45,9,72,94,73
145,133,13,-99,-115,-74,28,227,419,215
298,93,4,-43,-61,-16,45,232,383,-127
79,21,-18,-34,-49,-7,17,157,223,-371
-100,-13,7,25,-42,-10,-51,100,243,14
18,9,75,119,-11,-33,-103,-11,127,380
32,-3,77,162,36,-17,-101,-68,-25,130
-142,-3,97,245,127,36,-40,-63,-122,-502
-3,113,107,229,99,-18,-69,-79,-144,-530
150,103,60,133,-28,-129,-139,-22,93,-134
29,-22,43,87,-42,-130,-126,26,202,127
-56,-27,20,-15,-63,-86,-73,6,87,192
-33,5,-72,-130,-109,-76,-62,-46,-31,70
-5,26,-75,-45,-25,-18,-32,-45,-52,-93
63,60,-118,23,45,10,-16,7,28,-141
100,60,-165,31,67,22,-6,17,47,-55
169,-33,-166,-9,45,7,19,27,69,271
224,-103,-146,-35,-15,-37,6,-5,79,612
291,-33,-67,-61,-96,-99,-95,-133,-39,789
229,27,57,-67,-90,-86,-101,-148,-69,365
-28,-2,78,-22,10,34,38,18,113,-145
-336,-69,93,20,99,142,175,123,118,-515
-202,-35,81,38,89,125,171,75,-61,-280
62,-38,28,-1,24,39,46,-10,-139,501
212,-50,-20,-21,-15,-20,-48,25,9,1237
158,-14,-41,-34,-35,-60,-71,66,181,960
-39,-59,-100,-78,-61,-89,-87,19,193,-160
-8,-47,-47,5,-6,-44,-21,-7,42,-842
13,66,119,182,108,47,64,-52,-220,-840
-151,93,227,237,123,37,38,-68,-199,-574
-160,78,219,130,36,-46,-61,-76,-41,-300
46,91,147,43,-27,-76,-123,-128,-150,-218
38,23,100,70,-25,-26,-12,2,-48,-262
-83,-78,103,167,13,21,64,122,101,-284
-99,-96,79,122,-16,4,34,26,0,-229
-76,-109,50,18,-80,-60,-32,-87,-94,-59
-48,-142,10,-45,-97,-108,-69,-106,-79,130
2,-104,17,-18,-40,-78,-39,-24,105,554
69,-17,-6,-32,5,-47,-39,10,205,712
137,15,-200,-165,-37,-19,-47,-7,83,238
6,-15,-244,-174,-10,76,33,49,23,-277
-64,-37,-57,-2,97,134,131,158,63,-257
1,-23,-56,-72,53,110,117,140,60,-119
315,139,-30,-149,-124,-60,-120,-43,-4,258
327,73,-63,-125,-141,-62,-139,-116,-105,368
180,-11,-33,-81,-128,-69,-124,-145,-136,339
40,11,33,-7,-58,-20,-49,-63,-65,182
-98,84,76,64,11,32,13,46,26,-102
-248,101,102,145,111,116,82,115,21,-502
29,130,59,127,77,53,-7,15,-87,-282
217,111,53,71,11,-11,-65,-18,-44,76
-71,83,103,112,61,20,-36,17,-6,-46
-256,46,106,119,79,-10,-85,-32,-69,-148
-148,4,100,103,30,-80,-108,7,34,212
9,-42,104,111,10,-130,-146,-24,70,448
144,-5,61,91,-17,-167,-215,-127,-29,377
76,-25,-34,30,-25,-164,-222,-99,-13,89
-42,-90,-99,5,1,-94,-127,35,98,-111
-52,-63,-147,17,65,-2,13,102,134,-94
-91,-63,-206,16,117,54,127,116,110,-329
-171,-76,-168,8,92,89,145,58,-17,-600
-175,-74,-112,-55,-2,142,202,3,-117,-603
-53,-30,-11,-124,-64,197,330,81,-29,-261
76,34,119,-54,-41,177,283,77,-21,-46
60,65,162,55,18,74,96,-3,-22,63
-44,66,157,85,23,-8,-6,-44,2,24
-26,60,128,0,-36,-11,27,-46,-11,13
-14,26,29,-101,-91,-7,61,-57,-36,177
98,23,-38,-159,-120,-106,-4,-76,-3,469
116,49,-70,-185,-82,-186,-31,-59,-24,395
-36,22,-119,-237,-42,-33,64,47,-2,-300
-68,12,-104,-189,-24,69,-5,17,-29,-381
-202,-1,-52,-105,-3,150,-6,1,-58,-351
13,65,85,118,134,304,83,-14,-239,-253
-33,-25,165,301,251,191,73,-77,-353,-195
-98,-54,151,297,217,27,-5,-121,-304,-104
108,28,140,146,5,-62,-96,-13,259,262
101,21,67,43,-35,-21,-107,-104,53,415
158,-34,-149,-187,-159,-33,-80,-127,-69,363
264,-92,-368,-472,-314,-106,-56,-30,28,137
242,-103,-350,-431,-226,-57,64,143,263,-21
28,-62,-85,-188,-42,32,155,214,384,-38
-110,21,32,-53,37,61,175,161,242,-80
-18,86,19,-56,-8,14,76,19,6,-144
81,91,-14,-72,-64,-36,1,-63,-88,-93
73,24,-33,-57,-78,-52,-7,-51,6,106
-24,-14,6,42,-37,-60,-45,-52,56,390
-104,-39,27,121,15,-47,-43,-28,42,618
-75,-91,56,242,84,-12,-17,10,-2,345
42,-82,48,319,123,-14,-30,-7,-24,-136
-143,-78,24,269,114,-2,-40,-35,-57,-541
-318,-47,106,225,138,31,-11,-37,-115,-589
-272,-21,107,107,89,1,-27,-24,-78,-331
-112,65,50,-59,15,-7,-25,-20,-39,-113
-98,81,26,-198,-44,18,21,-33,-78,-37
-5,81,-10,-268,-133,-25,11,-101,-166,32
99,85,-5,-144,-70,-36,-13,-162,-289,-47
341,-61,-34,-35,22,13,48,-14,-188,16
81,-97,-62,-70,-16,7,61,64,6,251
-68,-20,-33,-85,-46,-27,1,-8,74,426
-164,24,-14,-42,-41,3,-21,-18,127,299
-32,114,75,22,10,14,-46,-83,-15,107
177,73,32,5,-13,-24,-30,-91,-156,170
221,-1,-44,-8,-34,-22,17,-57,-191,221
-13,-97,-75,-24,-32,8,62,18,-73,11
-329,-181,-101,-32,-23,24,81,120,145,-190
-366,-217,-135,-45,-39,11,109,338,623,-135
-281,-143,-51,27,44,80,178,397,664,-255
-67,-41,18,53,63,67,108,210,318,-250
41,-29,40,-3,-1,13,22,47,59,-6
42,-30,-22,-94,-71,-52,-33,-8,16,100
117,25,-12,-116,-112,-105,-89,-3,99,112
95,128,65,-36,-61,-72,-91,-21,27,55
124,119,24,-39,-90,-88,-117,-81,-47,448
361,64,-43,-126,-179,-175,-212,-131,7,1356
296,53,-24,-80,-134,-146,-207,-138,11,1235
-128,15,33,34,6,-23,-85,-74,-39,-17
-262,23,106,134,144,113,92,46,-84,-793
-410,49,141,191,210,166,187,92,-181,-1085
-375,-38,71,182,144,98,117,42,-249,-900
51,-55,23,192,53,-29,-25,-21,-222,-73
235,-30,56,196,7,-91,-96,-51,-167,188
133,-20,78,177,2,-65,-63,47,10,75
-120,-97,76,173,77,39,35,103,59,-39
-185,-140,110,192,185,133,82,-13,-210,-222
-277,-149,59,98,186,153,83,-19,-233,-603
-336,-151,-143,-135,36,69,57,112,174,-600
-51,-12,-175,-207,-80,-58,-57,45,151,-36
251,84,-42,-154,-121,-129,-147,-66,34,397
418,117,-21,-146,-127,-128,-141,-53,67,399
355,168,3,-78,-53,-33,-35,63,118,-18
170,204,38,11,34,15,1,66,51,-231
-89,92,0,57,68,14,-31,34,2,-43
-84,-51,-43,91,58,-21,-67,7,14,86
26,-88,-45,69,26,-66,-67,-27,48,142
98,-51,-12,12,-31,-91,-74,-48,58,78
192,-23,-4,-21,-45,-73,-102,-57,32,78
75,-3,5,-38,-8,-3,-47,4,25,-18
26,71,55,-30,11,4,-14,13,-29,-136
32,51,26,-108,-56,-89,-132,-58,-77,47
-18,-15,-3,-192,-131,-132,-175,-75,-71,241
80,-55,-56,-218,-157,-76,-89,-55,-32,254
198,-60,-126,-204,-138,-14,-30,-58,-1,52
29,-37,-107,-103,-39,121,138,4,-27,-203
-205,27,26,25,86,211,220,51,-102,-329
-127,76,57,86,131,141,148,11,-176,-263
-116,14,-53,52,85,30,129,50,-89,-202
-151,-65,-105,28,28,-7,126,87,50,-204
-149,-85,13,133,17,34,139,41,20,-212
-91,-7,115,230,27,66,77,-23,-69,-203
4,34,104,192,33,44,-18,-69,-88,-1
132,96,127,144,29,23,-29,-54,-38,208
107,102,182,77,36,50,25,24,55,156
151,118,67,-1,56,119,85,83,117,97
265,58,-172,-128,3,79,112,122,167,185
305,-33,-363,-222,-46,-22,65,89,179,252
255,-56,-351,-176,-45,-96,-38,-12,109,205
97,-20,-200,-51,20,-82,-39,-9,79,149
-15,30,29,70,80,-76,-47,11,45,27
-95,-31,84,128,124,-36,-61,15,0,-124
-243,-104,13,109,115,50,40,47,0,-175
-288,-65,31,46,51,69,108,57,3,-88
-161,5,50,-30,-25,38,121,17,-46,4
-72,17,5,-96,-63,0,50,-9,-80,-9
-48,20,8,-75,-31,-25,-52,-9,-54,-1
-62,-1,-11,-74,-29,-31,-72,32,52,64
-35,-13,-54,-96,-54,-35,-42,59,84,160
81,-4,-49,-117,-76,-47,-46,27,60,247
168,9,-57,-103,-78,-62,-66,-7,32,264
39,-19,-58,-52,-12,-10,-18,28,67,137
-54,-22,-50,-32,9,2,-8,24,80,74
-60,-8,-9,13,25,0,-17,-18,-16,-36
-43,14,4,72,58,-17,-24,-64,-149,-168
-48,34,-32,76,48,-58,-44,-60,-145,-184
-110,36,58,77,37,-67,-46,7,-48,-157
-138,26,71,38,20,-53,-87,15,3,-89
-46,-7,91,75,-4,-12,-19,-8,-52,-33
-19,22,207,180,-3,-20,5,-48,-139,8
-49,54,260,206,29,-1,23,-106,-239,10
-79,75,195,89,-21,-4,-18,-144,-299,-16
-31,100,75,-31,-85,-25,-9,-120,-269,-12
65,92,-10,-128,-139,-66,-32,-66,-119,91
119,27,-120,-198,-133,-63,-29,28,137,254
202,-35,-168,-235,-78,15,58,88,249,464
313,-65,-219,-264,-74,52,88,93,206,484
328,-109,-163,-216,-56,38,49,103,191,210
249,-106,-112,-121,-18,16,6,85,147,-124
78,-6,-49,-3,21,3,-23,-5,-62,-390
-69,47,107,86,68,-13,-63,-42,-159,-326
-124,16,108,83,75,-49,-118,-33,-85,-2
-142,-32,60,50,25,-116,-157,15,103,246
-256,-58,35,75,17,-155,-153,80,293,202
-250,-4,43,152,84,-136,-165,13,182,324
-89,11,39,205,81,-88,-144,-49,80,478
107,-31,-35,142,-9,-42,-37,-91,19,209
153,-79,-7,147,-24,22,102,-88,-80,-393
24,-40,148,194,51,118,216,-38,-177,-624
-84,-6,164,70,51,153,282,40,-144,-398
0,61,-1,-86,7,71,174,55,-16,-48
55,59,-119,-167,-25,-2,97,88,103,156
-83,-45,-48,-115,33,0,141,150,108,94
-132,-87,-31,-131,27,-29,80,105,19,-135
-192,-79,-37,-170,-24,-56,17,37,-62,-400
-210,-108,-68,-201,-90,-33,6,17,-65,-396
-80,-115,-78,-199,-109,37,27,28,-10,-65
103,-57,-38,-144,-82,112,25,-3,19,366
363,69,-9,-113,-108,80,-20,-81,-24,554
501,187,30,0,-16,70,-16,-137,-165,409
148,110,17,125,140,103,15,-160,-324,-150
-129,30,-11,174,192,84,58,3,-156,-331
28,67,14,190,183,64,88,178,151,-239
64,11,7,158,141,70,104,194,254,-65
-221,-120,13,59,53,54,110,185,236,-145
-356,-103,80,-30,19,32,118,132,136,-315
-213,44,115,-78,-8,-44,26,4,-18,-330
-21,119,25,-97,-70,-119,-102,-81,-84,-149
61,96,-57,-54,-64,-120,-122,-65,20,-3
-23,84,-27,-1,-51,-105,-101,-30,106,36
-203,14,-59,70,-15,-78,-56,6,83,-50
-116,21,47,130,11,-68,-72,-49,-49,-66
122,71,81,114,-16,-88,-92,-100,-111,-23
259,-105,-67,-70,-56,-63,-35,-25,90,233
103,-99,-37,-49,1,-40,-9,-30,40,120
-33,-60,-18,-10,48,-35,-50,-117,-138,-12
-14,-63,-99,-91,-6,-61,-71,-148,-167,281
39,-20,-165,-154,-64,-86,-63,-88,-91,846
153,11,-106,-111,-73,-90,-100,-80,-81,1007
319,36,-90,-46,-46,-71,-141,-198,-251,515
248,34,-62,-46,-50,-75,-106,-171,-240,-69
5,-98,-126,-115,-101,-105,-49,-1,80,-368
-196,-138,-41,24,25,3,45,113,188,-554
-220,13,159,256,166,73,40,107,93,-514
-151,176,311,314,174,54,-9,70,63,-344
-144,201,361,228,109,71,-23,-1,-49,-268
-38,148,271,50,-19,64,-42,-55,-92,45
214,104,51,-134,-146,-51,-95,-59,-3,223
101,3,-117,-240,-158,0,56,115,170,-193
-143,-124,-176,-155,-46,99,126,209,222,-484
-75,-198,-157,-52,16,130,78,154,188,-268
59,-195,-103,-77,-30,70,-12,59,163,119
-158,-225,-77,-81,-51,55,8,33,133,44
-258,-42,-18,47,27,88,85,0,-79,-420
17,58,-112,40,-11,39,21,-54,-111,248
202,46,-139,46,-20,41,32,-41,-57,1158
186,-55,-124,8,-41,5,-18,-73,-59,898
-138,-156,-36,-20,-46,-15,-28,-42,-49,-207
-271,-43,91,43,0,40,27,-5,-116,-672
-48,69,122,16,-33,14,30,-45,-112,-338
157,100,106,16,-57,-49,-25,-92,-80,-134
33,52,86,63,-26,-47,-2,-30,14,-352
-190,6,83,130,52,-1,75,23,17,-425
-179,-6,57,130,87,-46,47,-28,-110,-337
-89,2,48,106,95,-35,-15,-93,-222,-199
-17,9,66,92,76,-35,-106,-194,-261,-9
90,-3,34,39,-9,-78,-155,-121,37,421
82,-75,8,-15,-79,-42,-42,99,346,597
14,-83,-14,-13,-68,96,107,221,347,360
-77,-37,-37,30,-8,152,139,198,197,-184
8,24,27,103,35,79,76,106,78,-535
141,92,127,152,19,10,-5,28,-1,-438
60,58,127,150,10,12,0,-8,1,-209
-109,3,97,121,36,36,11,-10,15,-39
-84,26,77,61,66,78,45,26,21,19
82,75,48,-46,31,63,47,51,53,100
138,79,32,-156,-9,29,24,49,62,181
18,17,-7,-246,-43,21,47,77,63,190
-174,-35,-91,-288,-71,-19,7,50,24,79
-198,27,-18,-180,-46,-45,-74,-28,-87,40
-103,130,103,-20,-7,-46,-94,-86,-168,66
100,167,126,51,-14,-73,-111,-139,-208,68
111,103,87,27,-23,-80,-71,-134,-174,45
46,14,46,-3,-1,-37,-10,-126,-185,176
9,-86,-61,-37,31,0,-12,-213,-374,259
116,-109,-210,-126,34,26,-12,-220,-418,394
201,-68,-205,-220,-2,38,32,-142,-257,349
194,-56,-232,-272,-108,-56,-21,-52,29,147
244,9,-192,-271,-184,-129,-54,135,439,101
200,85,-75,-122,-33,7,104,318,646,233
-30,-29,-42,50,137,138,227,342,470,47
-133,-84,28,88,139,111,153,204,201,-152
-220,-53,61,63,84,59,73,139,154,-96
-169,2,82,88,35,19,32,122,179,-10
-123,10,37,138,19,-20,5,84,153,-128
-176,22,60,157,57,-6,12,27,37,-298
-183,59,77,194,118,36,13,-46,-150,-426
-125,18,50,164,113,34,38,-40,-197,-334
-100,-50,26,114,47,-63,-11,-19,-123,-206
-44,-41,60,129,28,-103,-53,-20,-97,-224
44,-39,-4,32,-46,-130,-85,-62,-109,-125
31,-17,-2,-73,-113,-142,-97,-72,-42,50
83,89,125,-49,-62,-56,-72,-65,-18,156
216,170,117,-75,-6,84,13,-26,-16,94
251,-37,-220,-169,-6,62,31,-3,-8,228
-35,-135,-128,-126,17,63,72,79,59,94
-183,-99,-42,-54,56,74,62,118,96,127
-101,-16,-13,-41,32,2,-20,106,108,150
-112,86,25,-9,14,-28,-91,102,168,-106
-181,86,38,25,25,0,-50,138,222,-376
74,44,8,12,-4,32,38,114,157,-150
235,1,-5,-42,-54,1,10,37,58,160
33,-83,-36,-60,-81,-24,-58,-9,25,187
-117,-109,-116,-79,-76,-11,-61,-43,16,128
-132,-52,-103,-20,12,56,13,-13,27,78
69,12,11,3,28,75,44,8,-3,296
254,62,31,1,13,56,24,0,-64,385
105,51,41,8,35,68,37,38,-55,-3
-67,34,40,8,38,64,16,33,-40,-260
-126,36,33,20,24,21,-53,-29,-131,-442
-70,64,49,80,25,0,-90,-93,-242,-500
0,64,62,104,23,-15,-85,-106,-267,-410
30,-7,5,48,-40,-60,-59,-44,-117,-209
124,-62,-54,3,-75,-64,-19,16,28,62
150,-61,-20,27,-24,-18,63,33,8,201
116,-19,49,130,30,0,101,32,22,191
-16,17,51,193,64,-1,57,6,45,-52
-157,-46,32,232,72,-13,31,-19,11,-230
-179,-42,157,265,65,-56,-6,-36,0,-14
-159,24,209,144,-6,-96,-40,-51,-22,200
3,5,74,-2,-38,-52,-2,-21,-31,293
12,-9,-84,-111,-27,-9,25,-6,-26,77
-36,22,-237,-251,-30,19,20,5,-34,-199
21,56,-189,-283,6,96,66,47,-26,-221
59,109,-56,-230,16,78,77,59,-27,-189
131,143,-17,-171,-26,-36,-28,11,-52,77
181,103,-49,-106,-39,-121,-147,-50,-47,419
195,24,-91,-65,-50,-136,-174,-39,45,496
216,-14,-83,-29,-46,-86,-98,7,122,428
270,21,7,49,-16,-27,-72,-8,129,488
205,53,174,153,24,-7,-100,-55,51,294
-14,94,215,202,72,43,-40,-74,-42,-174
-269,70,159,154,96,81,60,-55,-91,-463
-165,11,60,62,58,39,64,-38,-94,-372
-131,-28,-15,-24,62,-29,11,90,-8,-265
-56,-65,-127,-84,32,-86,-15,135,145,24
15,-45,-180,-153,-5,-142,-76,46,63,105
16,1,-84,-145,-14,-105,-87,-40,-28,144
109,19,-27,-135,-18,24,12,-25,-17,445
227,29,-30,-92,1,102,10,-37,-65,433
152,-35,-70,-84,-56,82,-61,-105,-102,85
49,-69,-68,-51,-74,60,-68,-69,6,-69
51,-58,25,79,27,114,146,168,206,122
-364,-43,122,208,246,221,335,289,241,-37
-191,1,45,108,146,127,219,199,206,-328
189,38,-1,27,18,1,59,90,166,55
258,101,90,35,-12,-47,-59,-2,63,254
47,129,138,-1,-20,-53,-107,-73,-125,-34
-261,137,128,-27,-4,-23,-96,-99,-262,-564
-368,148,58,-8,22,4,-50,-73,-258,-711
8,-60,-77,51,30,33,61,130,103,-140
219,-63,-62,73,-25,-20,36,135,178,158
188,-87,-42,107,-13,6,54,113,162,863
-106,-190,-51,85,-22,-14,39,60,94,807
-210,-106,42,116,17,-23,24,-19,-52,-147
-227,-11,192,176,105,56,83,11,-114,-867
-184,62,248,108,110,79,86,53,-74,-787
-152,26,79,-80,-11,-17,-5,-1,-35,-469
-135,-4,-37,-139,-77,-93,-102,-85,-34,-112
-22,51,7,-64,-47,-85,-141,-125,-90,-46
133,136,63,15,17,-41,-122,-99,-111,-58
94,166,57,92,76,-3,-67,-56,-89,-90
-17,74,71,57,45,-28,-59,12,-43,-49
21,-9,65,34,36,-35,-41,84,45,17
81,-7,46,28,49,-37,-56,51,48,8
115,-37,-39,-40,4,-67,-65,62,216,147
72,-84,-81,-104,-34,-83,-37,74,275,227
63,-41,-92,-140,-56,-79,-69,17,147,177
30,-13,-83,-114,-62,-49,-65,-16,46,76
-25,-33,-51,-48,-41,-26,-20,-28,-30,-14
-89,-96,-36,-16,-34,-12,32,-37,-86,145
-110,-111,-34,2,-11,29,66,-109,-235,314
-42,-61,9,0,-12,20,-5,-152,-330,160
-54,-28,48,-4,-12,46,-20,-70,-223,-218
-110,-2,78,18,-2,108,38,72,12,-351
-16,33,68,-13,-73,43,56,130,264,-161
174,57,-2,-54,-149,-96,37,77,289,103
185,67,0,9,-106,-125,-26,-39,36,104
45,32,21,42,-42,-67,-66,-130,-137,77
7,-10,-22,0,-13,-21,-25,-80,-52,384
72,-66,-129,-110,-9,52,36,57,233,843
10,-91,-128,-69,93,150,92,75,162,328
-53,-19,-74,0,134,146,68,-12,-153,-404
-10,63,-133,-3,70,45,-9,-55,-205,-479
38,55,-119,-38,-3,-59,-93,-69,-139,-180
162,7,-93,-95,-70,-136,-162,-13,94,647
197,25,-50,-44,-76,-127,-160,91,382,1010
185,89,10,53,-26,-76,-158,25,301,488
188,75,5,53,-12,-16,-111,-20,153,-255
-41,64,165,153,48,98,82,56,8,-418
-232,-25,197,142,45,63,91,24,-88,-379
-215,-5,119,10,-13,-9,2,-42,-137,-406
-294,-26,-114,-111,7,25,20,-16,-128,-540
-346,-43,-170,-34,114,111,127,11,-130,-551
-135,-16,-151,79,114,96,115,-20,-127,-378
35,1,-80,133,62,25,45,-17,-40,-117
164,78,65,167,19,-52,-60,-59,-21,77
199,78,66,55,-44,-73,-84,-67,-17,131
215,51,8,-123,-135,-112,-113,-100,-55,155
244,23,-54,-185,-153,-139,-135,-58,57,216
108,-63,-68,-81,-60,-32,-29,45,131,21
40,-60,-40,-30,-20,59,92,65,41,-138
-165,-98,-58,-64,-9,137,269,118,27,-210
-168,-93,-103,-34,7,152,292,126,36,-120
-27,-58,-75,68,62,154,196,77,28,-8
112,-37,5,134,117,175,112,23,-1,146
273,22,37,120,83,93,5,-67,-111,238
268,86,83,98,33,-20,-87,-156,-221,138
0,65,110,91,21,-41,-88,-161,-239,-53
-43,-65,43,-33,-42,-51,-38,-74,-102,-18
21,-146,-88,-192,-117,-52,-4,40,114,168
48,-83,-75,-170,-95,-16,36,112,252,297
113,-9,33,-82,-23,37,29,82,181,307
-24,-73,-19,-57,0,40,15,38,104,109
-165,-42,-15,-18,9,19,7,-15,-9,-198
-94,31,45,11,23,-5,-33,-78,-84,30
-82,33,52,18,17,-17,-62,-103,-116,237
-120,30,30,-5,-30,-77,-120,-201,-238,8
-178,50,22,6,-42,-89,-174,-274,-366,-385
-118,-4,-19,3,-60,-95,-171,-118,16,-281
-23,-8,17,132,-11,-70,-111,55,402,0
-25,-6,84,241,88,16,5,108,269,-42
-58,-79,59,225,109,95,125,137,175,-129
-38,-119,61,190,112,123,159,76,95,-160
14,-101,105,163,67,75,79,-29,-22,-99
87,-69,112,59,-25,1,-19,-105,-99,40
85,-123,-70,-210,-147,-13,0,-98,-88,94
-323,-195,-205,-205,-72,82,133,6,-34,-259
-221,-83,-73,-94,-26,42,97,25,-18,-105
-43,45,-17,-60,-14,18,57,16,-17,231
49,69,-25,-10,42,40,35,23,-34,301
69,41,-32,-31,40,24,-5,29,-32,-17
165,66,-46,-97,-34,-48,-63,44,32,-192
200,84,-32,-80,-34,-30,-43,25,25,101
184,52,-63,-25,-23,-93,-44,-79,-122,305
138,11,2,-23,-74,-207,-95,-175,-188,331
22,-53,21,-43,-133,-217,-119,-127,-5,461
124,17,69,0,-141,-174,-170,-87,65,461
307,53,98,80,-102,-71,-182,-122,-17,194
206,-6,48,87,-41,133,-77,-101,-78,-389
-86,-49,-41,35,9,279,99,50,29,-485
-268,-41,-99,26,77,209,168,129,98,-320
-55,27,-166,9,61,25,73,67,-5,-362
132,60,-63,-16,30,-28,-22,-11,-74,-290
99,46,30,-37,33,64,66,57,16,-26
-2,20,49,-25,51,142,209,146,75,190
-16,82,66,-26,15,50,65,68,10,313
125,117,83,-15,-21,-57,-85,18,33,492
172,54,72,29,0,-43,-70,55,59,319
122,-61,50,82,30,66,71,116,62,-38
-201,-213,22,88,37,140,193,143,51,-329
-155,-160,45,38,6,66,126,40,-62,-34
0,-55,-12,2,-3,-26,14,-22,-76,308
-75,-98,-96,-17,0,-45,8,-3,39,160
-95,-144,-162,-98,-53,-53,15,15,135,-219
90,-44,-183,-139,-105,-77,-29,-3,89,-301
136,52,22,-60,-54,-28,-27,0,22,-259
32,109,144,61,36,4,21,2,-48,-255
-88,107,184,134,75,21,73,10,-82,-178
-216,24,126,125,77,20,58,-27,-107,-91
-112,-27,77,103,65,17,24,-52,-121,102
123,-56,30,46,-9,-34,6,-55,-76,322
237,-5,-17,-19,-80,-80,-55,-76,-92,279
76,29,-22,-5,-93,-120,-122,-97,-82,185
-102,25,35,33,-65,-123,-126,-55,26,161
-24,104,135,50,-62,-82,-79,-19,19,155
-82,105,184,31,-67,-45,-12,-45,-22,-40
-180,49,180,118,13,1,61,-44,-77,-223
-298,-24,72,177,122,41,84,8,-68,-146
-255,-73,-10,132,115,-8,10,-30,-107,-97
-159,-127,-70,45,52,-102,-86,25,64,-219
-5,-101,-68,34,50,-89,-92,105,257,-115
170,-37,-12,14,62,21,-8,89,198,23
139,-62,-140,-184,-67,59,77,99,108,31
135,-24,-284,-336,-153,76,154,104,-24,-95
140,46,-102,-223,-81,117,180,85,-112,-18
155,111,24,-93,-5,72,16,-31,-155,148
37,147,68,-50,7,4,-100,-61,-10,112
-167,115,72,-42,-10,-36,-95,31,182,9
-157,67,21,-76,-71,-98,-116,14,115,44
-24,54,-6,-65,-85,-83,-95,-9,7,104
-43,27,-75,-3,-40,-21,34,77,47,-3
-62,-4,-57,52,14,47,129,150,116,-144
-21,-39,51,86,39,38,97,129,72,-184
3,-42,69,105,39,10,52,79,30,-155
77,3,74,55,22,26,35,29,-14,-101
172,34,16,-15,-8,50,-22,-25,-65,61
195,65,-56,-48,-51,14,-94,-90,-97,289
235,62,-50,-54,-77,-60,-135,-88,-33,549
257,-11,-128,-86,-95,-103,-125,-14,158,709
145,-39,-122,-88,-67,-71,-70,3,209,478
-142,-4,-81,-69,-41,-16,9,-50,13,-184
-422,56,17,11,25,53,99,-63,-170,-360
-43,173,103,-16,47,52,67,-142,-351,-119
-41,32,-74,-166,1,112,209,121,50,-351
-150,-129,-85,-148,32,143,252,287,344,-491
-99,-176,23,23,128,126,177,184,162,-422
-67,-114,57,58,100,26,61,19,-13,-268
-101,-48,54,54,64,-52,-12,-73,-83,-172
-158,-12,46,64,60,-76,-42,-44,-43,-107
100,65,52,27,31,-2,-26,-22,41,476
118,35,-7,-16,2,34,-11,-31,28,347
111,58,-73,-39,-53,-14,-59,-42,-13,-129
209,127,40,-27,-74,-52,-72,-58,-63,-321
217,156,110,4,-80,-72,-82,-87,-87,-192
95,169,160,65,-57,-84,-108,-96,-66,-51
-47,95,131,83,-30,-68,-115,-101,-55,-50
-52,9,84,82,2,-42,-89,-100,-55,-47
30,-57,6,52,18,-22,-79,-86,-32,90
32,-121,-3,45,39,10,-54,-90,-40,230
40,-120,-11,28,61,25,-29,-82,-68,246
73,-105,-55,42,76,39,-34,-49,-62,372
74,-131,-109,50,46,-21,-80,-48,-22,490
70,-77,-7,-23,-2,-65,-95,26,79,164
-8,22,66,-90,-29,-30,-38,106,114,-246
-130,0,52,-90,-25,30,14,105,109,-212
-182,-56,37,-86,-39,38,1,78,160,49
-91,15,127,-89,-95,-49,-86,-30,56,36
88,155,175,-108,-123,-109,-104,-106,-65,-26
387,188,43,-199,-183,-180,-158,-156,-47,295
511,109,-56,-197,-154,-153,-144,-131,1,784
282,53,-18,-74,-26,-40,-5,-3,77,881
