-11,4,-49,-7,13,5,16,-42,-36,-57
14,6,-124,-5,7,-4,7,-7,27,-46
21,7,-59,-4,0,-11,4,18,86,-15
21,1,-3,-4,-16,-12,-2,41,129,-9
-2,3,12,8,-6,2,7,38,84,-66
-28,-10,25,5,-1,6,-10,33,48,-94
-37,-23,19,-4,-8,-9,-27,24,63,-66
-30,-14,29,0,-11,-9,-33,12,59,-38
-1,22,34,3,-11,-11,-39,-8,11,-32
16,42,30,-4,-15,-19,-50,-14,6,-38
-8,31,42,-8,0,-8,-14,16,48,-84
-39,4,54,6,3,19,8,39,35,-114
-31,-2,58,-4,-4,11,3,29,23,-87
-19,-1,54,-2,-6,3,-11,16,28,-68
-13,-5,37,3,-17,6,0,9,32,-55
-6,-6,32,-5,-23,-15,31,10,21,-34
-4,-3,25,-7,-21,-13,32,4,2,-43
-5,-6,39,-6,-16,-12,33,3,-1,-63
-18,-24,28,-1,-16,-5,30,6,-6,-79
-20,-33,-5,10,-13,-7,34,3,5,-63
1,-45,-56,4,-7,-1,0,-12,0,-63
14,-42,-10,8,-9,-8,-33,-30,-4,-60
19,-31,-1,0,-17,6,-33,-39,-4,-45
39,-32,-2,-6,-21,0,-27,-43,-21,-15
45,-27,8,0,-19,-4,-25,-37,-11,3
32,-40,-52,-3,-25,-8,-26,-30,0,5
22,-51,-77,0,-19,-4,-9,-35,-3,-8
25,-44,7,4,-16,-4,-8,-32,-2,-10
3,-46,25,0,-3,7,3,-24,0,-38
-32,-47,28,2,4,4,0,-11,-18,-74
-19,-35,23,-6,4,3,-1,6,-4,-30
0,-30,24,-16,11,-3,7,13,15,-14
1,-14,25,-26,23,-9,29,15,29,-9
2,-14,19,-8,25,-9,34,9,-6,-6
44,11,26,1,50,-7,12,-7,22,-6
57,5,29,0,53,-16,4,-20,22,-16
42,31,26,4,67,-15,8,-11,105,-20
19,5,-12,-9,41,-16,-13,-5,67,-35
19,-23,3,-18,24,-18,-29,-11,-23,-44
-1,-33,11,-13,8,-17,-32,-16,-59,-36
-14,-37,7,-17,-8,-18,-35,-20,-61,-35
-6,-33,5,-20,-11,-27,-39,-27,-61,-42
-8,-35,-37,-22,-11,-22,-20,-25,-49,-30
-21,-32,-23,-25,-9,-12,5,-20,-35,-17
-27,-48,5,-18,4,-12,10,-9,-35,-4
-21,-41,-1,-17,0,-18,7,3,-43,-4
-19,-35,6,-15,-10,-17,-15,-3,-40,-16
-2,-33,0,-13,-14,-22,-35,-14,-33,-12
3,-25,-5,-13,-10,-16,-44,-10,-36,-13
2,-7,-13,-7,-9,-16,-36,-4,-33,-2
-10,-5,-30,0,-6,-4,-15,8,-29,12
-29,4,-3,-2,-13,-2,12,16,-13,21
-30,38,1,-11,-7,-4,22,21,-3,4
-5,50,-2,-10,-13,-2,15,18,16,14
13,35,-12,-13,-15,-20,-10,1,17,33
37,30,-2,-16,-6,-19,-16,-2,15,36
54,29,26,-3,12,-7,-9,-19,10,76
73,-2,3,-13,10,-15,-30,-38,-32,68
49,-12,-97,-11,17,-6,-7,-12,-33,24
5,-4,-126,0,25,13,10,25,-27,-30
-56,-11,-19,6,17,10,13,29,-27,-80
-45,-5,27,-2,-3,-20,-16,5,-15,-57
-4,-5,29,-6,-3,-22,-23,1,0,-39
7,-2,42,5,-9,-11,-20,-3,-7,-16
2,4,40,24,-11,-3,-9,-7,-3,5
-9,-13,34,25,-4,0,-16,-11,-15,0
-14,-15,37,21,8,0,-22,-11,0,-3
-23,-9,45,17,2,10,-6,-5,25,-7
-16,-19,51,17,6,7,9,-9,15,-21
0,-5,46,22,15,2,23,-22,0,-21
20,7,42,36,36,8,48,-22,47,-19
38,56,40,48,84,33,59,-24,136,-15
44,52,0,41,64,26,64,-26,103,-14
60,64,37,32,59,24,64,-14,107,1
45,55,48,27,55,17,61,4,92,0
14,24,40,23,28,11,50,15,50,1
6,9,37,29,30,10,20,10,32,7
-9,-17,-7,17,15,21,12,6,-15,7
7,-3,-34,5,25,25,17,11,20,-2
-2,-23,-6,4,0,21,0,3,-27,-13
-12,-22,9,10,-8,12,-15,-5,-47,-14
-25,-35,6,6,-15,-3,-19,0,-73,-9
-30,-54,5,14,-31,2,-27,8,-84,-13
-26,-51,-7,11,-37,-8,-31,25,-58,-15
-10,-40,-8,10,-43,-5,-3,65,-4,11
2,-36,-4,15,-40,2,22,73,5,20
-8,-23,-7,9,-36,18,29,54,-17,9
2,-18,0,2,-36,9,16,39,-20,6
8,8,3,1,-33,6,6,41,-11,16
5,15,-13,0,-34,6,8,34,-25,10
18,5,-24,0,-41,10,3,27,-49,5
8,3,15,5,-37,-8,0,7,-44,2
-7,-5,-18,4,-31,-1,2,11,-36,4
-18,-5,-11,0,-30,6,1,2,-29,4
-16,-3,7,-5,-25,2,-4,-4,-35,-4
-10,8,11,-3,-24,4,-8,-4,-20,0
-2,26,9,2,-20,7,-1,4,-3,-3
-23,14,16,0,-18,23,-3,0,-18,-17
-21,0,6,-6,-24,12,-6,-1,-22,-27
-7,11,0,-11,-20,16,-18,-7,-27,-26
11,43,-54,-28,-12,10,-27,-13,-16,-11
43,14,-87,-27,-7,1,-23,7,-25,24
45,18,-9,-25,-5,0,-22,9,-41,23
53,25,24,-29,7,0,-15,4,-46,34
52,28,30,-24,12,0,-10,-4,-42,12
68,70,46,-4,52,14,-9,-22,14,-1
69,117,52,-3,80,10,-8,-22,73,-17
40,93,14,-3,80,17,14,1,98,-10
55,84,12,-24,60,5,26,5,95,8
64,93,12,-25,51,1,23,34,141,17
46,62,10,-29,28,7,13,50,110,12
29,31,3,-29,0,3,4,35,29,6
20,14,4,-23,-21,-6,-6,14,-47,-1
9,21,22,-18,-17,12,-15,9,-55,4
-15,25,1,-21,-11,7,-8,2,-47,5
-31,19,-20,-17,-15,8,0,12,-50,-5
-31,4,5,-9,-21,6,-8,22,-45,2
-27,-8,-11,-13,-26,-6,6,9,-25,18
-15,-9,-87,-8,-38,0,17,-1,-22,20
-21,-2,-76,-5,-37,0,20,-8,-32,6
8,2,25,-10,-44,-7,-27,-5,-76,-16
23,1,24,-7,-51,-12,-39,-17,-59,-12
20,8,28,-1,-43,-14,-36,-17,-57,-9
0,5,23,5,-18,0,-15,-10,-70,-21
-23,5,15,3,-3,0,-11,-5,-52,-21
-15,-3,4,6,-1,10,-12,0,-27,-7
-2,-12,-30,4,1,16,-3,0,-28,-7
0,-3,-6,-1,-1,16,-8,-11,-33,-6
1,1,11,-14,-31,4,-8,-1,-14,0
3,-18,6,-13,-40,-11,0,5,12,4
-19,-31,-20,5,-30,2,-3,11,12,8
-13,-23,-84,9,-34,6,-5,16,26,27
2,-6,-26,13,-22,11,-2,11,42,20
-6,-14,34,16,-17,7,-2,6,20,-4
-21,-24,8,-1,-5,-8,-7,-5,-1,-8
-21,-8,-75,-12,-3,0,-24,-16,0,-14
0,-2,-15,-9,-10,-4,-31,-19,-7,20
17,-6,16,5,-4,4,-15,-26,16,72
9,-14,17,19,6,0,0,-13,1,81
37,0,4,11,19,0,3,-6,-35,49
9,-7,10,8,25,0,0,-15,-50,14
-40,-25,4,-10,12,-15,18,-11,-25,-45
-50,-26,-2,-24,-5,-33,40,18,75,-32
-30,-21,14,-10,6,-29,36,12,78,0
-16,-10,22,-15,13,-31,30,2,49,7
-23,7,-12,-6,16,-37,28,10,8,15
-31,24,-10,8,26,-31,24,14,0,4
-46,38,-15,16,22,-30,30,22,-1,-10
-28,28,-67,25,13,-26,24,31,-7,-14
-13,10,7,30,18,-20,5,33,-2,-40
-27,-4,20,23,11,-21,-9,37,-9,-52
-23,2,26,14,9,-15,-6,37,-8,-28
-27,15,34,15,13,-15,-12,36,-8,-16
-26,11,31,15,18,-12,-13,26,-3,-16
-35,4,30,16,16,-10,-22,14,-3,-17
-31,15,12,16,1,-9,-27,9,7,-26
-10,23,12,14,-6,-9,-19,5,27,-18
-6,10,19,13,-26,-2,-16,3,8,3
-6,9,9,3,-26,9,-14,6,12,8
-8,4,1,4,-25,-6,-19,5,7,15
-5,-15,2,1,-33,6,-25,-8,-6,21
-11,-14,9,0,-39,11,-19,-18,-17,-4
-48,8,11,-3,-31,15,-9,-6,-22,-26
-63,28,-20,-12,-16,10,-15,7,-26,-37
-30,35,-31,-6,-5,6,-3,-3,-28,-33
-25,27,-27,-1,-6,0,20,3,-12,-27
-30,12,-49,-4,1,11,29,19,23,-21
-27,-1,-23,5,4,-2,34,13,38,-14
-16,-20,-31,1,-8,-1,24,-7,-3,-16
-9,-7,-55,6,-13,-9,17,-32,-38,-20
0,-1,-119,0,-4,-5,11,-45,-33,-13
-1,-9,-43,7,-4,-1,12,-51,-37,-4
12,-13,25,6,-11,-19,-2,-40,-37,5
27,-15,22,12,-15,-14,-22,-13,-21,16
27,-2,20,8,-5,2,-8,9,13,27
17,5,22,10,15,10,3,47,65,13
-9,-1,-1,12,19,10,13,32,57,-2
-3,-22,21,8,10,0,7,0,14,-8
6,-22,44,12,10,10,-4,-6,-7,-6
9,-24,49,19,5,12,0,0,0,-1
20,-29,46,37,18,5,0,6,44,6
7,-31,-112,32,0,0,0,12,41,7
-18,-34,-39,27,-2,4,-19,9,20,13
-5,-30,51,37,1,0,-10,-3,20,12
12,-14,58,47,6,6,-11,-1,21,0
31,-20,51,35,12,7,-8,12,15,3
33,-7,56,38,8,8,-4,12,18,22
27,-3,31,36,-3,2,-2,9,15,24
4,-13,-55,20,-7,-2,-8,7,21,14
12,-22,-8,10,-17,-11,0,13,22,25
16,-13,-47,21,-17,-14,-5,19,28,31
23,3,-64,23,-23,-13,-9,25,32,28
20,11,29,8,-17,-8,-14,26,25,27
22,15,-6,7,-12,-5,-18,9,13,15
33,22,-7,16,-16,5,-22,19,-5,38
28,14,51,17,-6,5,5,34,-9,56
3,18,12,11,-4,16,4,35,11,40
-3,5,-17,-8,-18,6,-14,34,26,22
-11,-3,-84,-19,-24,-5,-10,32,13,23
-25,7,-25,-17,-18,-7,-6,21,7,19
-1,34,59,-7,-2,1,18,7,35,16
31,61,57,-6,12,4,28,-8,61,17
26,63,16,5,26,16,32,-8,78,9
3,45,45,-6,23,5,34,-5,37,0
-8,72,51,-3,45,1,38,-4,87,3
-53,35,29,-3,28,-13,32,10,84,11
-26,25,31,4,23,0,33,23,86,33
-3,-8,19,-12,-9,-9,16,-3,-2,67
7,-26,13,-28,-18,-23,-19,-32,-54,77
-13,-46,12,-28,-20,-12,-31,-34,-88,17
-53,-47,13,-8,-1,9,-17,-18,-92,-43
-56,-49,6,4,11,20,-4,5,-96,-71
-49,-47,-2,-3,6,26,0,9,-75,-60
-37,-33,4,-12,0,19,-22,7,-48,-50
-37,-27,5,-12,0,19,-22,14,-8,-29
-41,-22,-3,-12,5,10,-10,-3,7,-24
-12,8,0,-18,32,16,18,-3,63,-18
-11,-35,-10,-19,11,1,18,0,17,-15
-12,-46,-13,-17,-18,8,17,6,-21,-2
-17,-38,-12,-35,-23,2,18,-3,-17,2
-7,-24,0,-33,-11,7,21,-9,-12,5
1,-12,14,-13,0,12,21,-26,-14,8
-25,-35,17,-2,3,22,7,-21,-29,11
-43,-43,11,-2,1,38,3,-15,-42,-2
-27,-51,7,-10,-11,27,16,-25,-65,0
-9,-43,-35,-12,-3,15,12,-39,-84,22
0,-19,-123,-11,3,18,16,-36,-64,43
6,-16,-57,-16,3,7,12,-12,-17,36
8,6,-42,-14,7,20,7,0,9,19
5,31,-132,-13,8,18,-4,-5,-3,12
5,31,-85,-7,6,11,-17,-2,-3,3
-4,12,19,-26,-5,10,-31,9,11,-2
-6,8,27,-41,-10,-5,-24,26,48,23
-3,28,20,-39,4,-8,-15,25,26,27
0,48,38,-20,31,-3,-1,-6,-2,-12
-5,52,51,0,35,-14,-10,-23,-22,-42
-22,32,41,2,19,-30,-26,-28,-28,-40
-17,15,42,0,24,-19,-19,-35,-16,-25
-1,11,31,-8,22,-19,-7,-30,-10,-4
0,12,33,-14,23,-6,5,-22,1,10
0,9,24,-18,21,-2,22,-14,3,9
2,19,4,-37,-6,-16,0,-29,-5,18
-14,2,-11,-44,-27,-21,-29,-25,16,-2
-30,2,-8,-33,-24,-11,-24,3,41,-11
15,0,1,-33,-4,-13,-7,26,65,18
43,-11,-4,-29,-5,-24,0,14,63,32
27,-24,-15,-22,-12,-17,10,9,15,22
21,-14,-27,-27,-13,-5,17,17,2,26
10,-13,-26,-25,0,6,2,20,3,28
-35,-21,-65,-10,13,16,8,29,6,-29
-47,4,-55,1,10,5,10,38,2,-69
-5,100,-124,-5,6,7,0,45,4,-49
11,237,-81,-11,2,4,2,28,-4,-35
21,298,6,-2,-5,0,14,27,-16,-30
20,294,5,8,-11,1,41,28,-20,-37
27,290,-14,13,-10,2,48,24,-26,-28
33,270,-3,12,-20,-11,50,17,-24,-16
24,243,-4,1,-22,-6,43,10,-25,-18
24,224,-13,-3,-14,-3,27,19,-34,-23
43,252,-2,-4,13,11,36,24,20,-15
78,278,9,12,47,3,36,22,100,-8
80,248,2,2,34,3,22,20,83,-10
73,227,6,-1,33,-6,-1,19,97,2
58,211,14,-2,46,-5,-20,26,116,4
41,186,26,2,37,-1,-43,27,101,-6
43,182,35,0,38,2,-57,15,95,-9
43,180,25,0,49,4,-42,5,77,-8
27,124,-54,-8,23,14,-41,7,18,1
20,74,-69,-24,-12,10,-49,-2,-34,15
60,106,18,-11,15,2,-42,4,28,38
68,80,17,-8,4,-5,-34,-2,16,63
35,33,-30,-26,-25,-4,-18,-4,-28,53
22,20,-51,-28,-31,3,-5,10,-31,38
0,17,-38,-13,-33,9,4,11,-48,-8
-25,2,-24,-8,-18,20,26,-4,-48,-89
-22,-19,-97,-13,-21,17,-8,-26,-39,-144
-22,-23,-12,-15,-18,9,-25,-26,-40,-171
-16,-18,38,-10,-15,-17,-36,-29,-49,-180
-16,-14,44,12,-13,-26,-31,-25,-58,-196
-55,-29,56,29,-17,-10,-18,10,-47,-230
-72,-43,44,27,-18,8,-5,25,-46,-234
-49,-39,27,19,-8,0,2,6,-62,-213
-35,-50,28,14,1,5,18,-23,-57,-189
-34,-46,33,13,11,8,37,-19,-29,-160
-41,-27,33,19,11,2,4,-25,-28,-153
-33,-27,31,15,-11,-1,-28,-32,-68,-159
-19,-22,25,-2,-25,-11,0,-6,-16,-122
-25,-30,23,-15,-16,-14,23,14,46,-90
-14,-31,24,-15,-12,4,18,12,18,-85
-6,-28,36,-6,-6,22,5,5,-16,-89
-6,-44,39,4,-3,13,15,-3,-33,-84
5,-47,19,-2,-18,23,24,4,-33,-53
23,-45,25,10,-13,15,15,19,-18,-19
13,-50,21,31,-13,16,-2,24,-21,-5
-4,-55,8,24,-5,27,-15,17,-26,-17
-4,-52,4,7,-10,11,-12,-3,-30,-20
-4,-50,-6,2,-9,10,-5,-7,-38,-19
-8,-54,-2,6,-13,17,-12,-27,-54,-8
-3,-43,-15,0,-14,9,-2,-33,-59,0
13,-33,-17,-9,-5,7,4,-25,-45,15
8,-40,-2,-9,-5,2,-10,-25,-40,38
5,-40,-2,1,-13,13,-7,-24,-15,39
13,-50,-3,-6,1,22,31,12,62,48
0,-60,-60,-13,25,21,44,59,126,67
-6,-57,-132,-4,34,21,6,40,86,96
-12,-47,-133,6,24,26,-3,13,68,148
-7,-61,-97,22,14,23,-8,11,44,164
-2,-66,12,29,1,18,-7,12,26,176
-1,-58,39,35,4,13,-14,8,-6,173
-7,-44,22,25,13,-2,-7,-7,-18,160
-6,-38,16,25,14,-10,6,11,24,164
-2,-42,5,35,22,-18,14,27,57,173
-1,-55,1,34,14,0,24,19,44,176
-7,-54,-36,37,13,14,21,15,14,160
-8,-42,11,51,6,7,22,12,-3,148
20,-24,32,47,3,11,25,15,-5,151
32,-21,22,39,4,15,24,15,3,147
33,-28,15,40,5,9,16,18,9,123
28,-28,10,30,25,14,-18,14,16,110
24,-29,0,20,48,26,-29,7,32,124
10,-32,-1,23,47,15,-23,3,8,119
14,-50,0,-4,44,3,-17,-2,-2,107
0,-64,3,2,42,-1,-19,-3,-8,83
-11,-71,5,8,41,7,-25,-2,-6,77
10,-32,14,11,50,11,-25,-9,33,87
54,37,45,20,96,11,-3,-18,120,103
33,24,44,18,77,12,22,-1,96,101
27,14,33,10,66,-5,-2,21,135,106
33,21,31,2,63,-16,-32,19,155,108
31,17,31,3,46,-10,-42,-1,126,89
29,-12,10,-11,4,-34,-54,-41,34,73
11,-34,-10,-13,-23,-16,-57,-43,-46,46
-30,-41,-10,11,-3,9,-24,-19,-64,-7
-52,-37,0,14,14,16,10,-19,-90,-33
-25,-22,12,6,5,19,23,-26,-80,-23
-4,-17,13,6,9,8,24,-27,-39,-3
-5,-36,12,-3,-9,2,31,-16,-52,13
-7,-46,4,-14,-21,10,21,-12,-43,22
1,-50,-5,-22,-22,1,-3,-20,-35,5
-24,-77,-16,-43,-32,-3,12,-26,-63,-13
-31,-83,-17,-47,-35,-12,19,-27,-55,-9
-24,-78,-28,-37,-42,-21,5,-16,-28,16
-41,-82,-12,-21,-30,11,-20,-4,-20,5
-58,-80,5,-3,-8,33,-12,-14,-12,-31
-28,-51,15,-1,11,26,-8,-2,9,-17
11,5,24,21,39,25,0,8,84,8
-3,-19,-7,17,-3,21,1,4,11,14
-13,-61,-22,13,-34,4,1,-5,-65,1
-34,-77,-25,14,-28,-12,-1,-7,-84,-16
-25,-61,-13,13,-43,-6,3,5,-66,-10
13,-46,3,24,-42,-5,17,20,-33,9
26,-46,-2,29,-23,7,31,26,-12,31
15,-53,-85,19,-12,38,46,26,-7,18
6,-74,-123,18,-13,33,34,12,-13,0
10,-60,-106,10,-23,5,14,-5,-22,18
28,-40,-5,11,-19,-5,11,-20,-31,25
37,-34,18,20,-13,1,-4,-22,-27,29
30,-46,15,23,-1,-1,-36,-20,-34,12
35,-43,19,14,-2,-2,-15,-11,-20,22
11,-29,29,4,4,-1,7,3,-9,36
-4,-33,33,19,10,-20,-15,4,-1,25
6,-33,23,12,-7,-27,-31,-2,-3,19
18,-32,17,11,-4,-36,-24,-2,14,9
-26,-26,18,12,-9,-27,-18,-15,-5,-30
-73,-17,19,19,-17,-25,-17,-25,-35,-79
-59,-18,6,6,-18,-29,-14,-24,-33,-66
-26,-40,-25,-16,-34,-37,-12,-16,-5,-23
-8,-38,-24,-10,-26,-32,-15,-26,0,-12
1,-30,-9,-1,-10,-23,0,-45,-20,0
-7,-18,-6,-15,-6,-17,3,-57,-34,23
-12,-22,1,-9,0,-3,18,-52,-19,35
-23,-22,0,4,16,9,36,-39,6,4
-44,-22,-84,14,11,21,16,-37,-10,-50
-40,-32,-64,4,-6,12,-4,-37,-20,-41
-38,-41,-14,-19,-7,1,19,-18,6,-6
-45,-35,3,-19,-8,7,36,1,54,21
-35,-37,7,-9,-11,-6,16,-15,34,20
-26,-50,0,-13,-14,-12,12,-48,-8,7
-32,-32,-3,-12,-14,-15,15,-63,-31,0
-40,-24,-8,-10,-13,-13,26,-52,-21,-10
-34,-28,-56,4,-3,-6,22,-25,-6,0
-29,-24,-60,13,6,-4,0,-5,0,-1
-17,-23,-37,12,0,0,-18,9,4,15
-7,-29,6,5,-5,-12,-22,10,16,32
-7,-27,-44,3,-15,-8,-2,2,29,30
2,-37,-83,5,-17,-10,9,-15,27,20
11,-41,-2,-5,-24,-26,-5,-35,20,21
29,-27,15,-13,-13,-37,-20,-37,41,22
31,-54,26,-21,-2,-29,-42,-39,3,31
36,-37,29,-16,7,-20,-44,-31,-3,40
31,-32,34,-3,1,-16,-39,-27,3,42
4,-27,49,-1,10,-12,-14,-25,10,19
-20,-33,34,3,10,-1,0,-25,7,-19
-16,-33,-34,-3,-10,2,-5,-32,6,-35
-12,-31,-88,-4,-14,0,-15,-47,6,-42
-13,-35,-52,-1,-15,1,-17,-43,0,-49
-10,-27,42,1,-16,2,-6,-36,-14,-39
-5,-32,74,6,-13,6,-1,-23,-21,-25
5,-17,75,6,-9,-8,-11,-20,-24,-29
10,-22,72,10,3,-1,-7,-10,-10,-26
22,-25,60,-1,2,4,-4,6,-3,-27
31,-16,14,0,1,16,0,6,2,-23
34,10,10,1,13,11,-4,14,2,-15
29,4,63,-8,13,0,-8,20,5,-16
19,-1,55,-8,11,0,10,10,13,-27
12,0,62,-7,3,-7,32,-8,12,-31
11,-7,60,-19,2,-5,21,-3,22,-25
0,-8,45,-23,-5,-12,0,-2,28,0
2,14,4,-28,-23,-14,-32,-10,31,44
26,21,7,-38,-38,-26,-44,-27,21,79
42,33,59,-23,-26,-12,-35,-16,13,61
16,45,76,-1,5,-9,-40,5,24,15
-35,33,59,-1,30,4,-20,19,35,-50
-54,22,54,-6,52,7,0,29,29,-82
-33,22,49,-21,45,-1,-2,35,9,-53
-27,37,24,-25,20,-5,2,40,5,-56
-41,47,22,-33,7,0,18,50,16,-59
-31,51,19,-36,7,-5,22,54,20,-40
-9,77,4,-35,1,-13,-4,40,3,-22
0,88,6,-24,12,-5,16,38,-6,-17
-3,85,2,-12,8,12,41,39,3,-36
0,77,0,-18,-1,17,26,28,17,-36
6,78,0,-12,13,12,17,13,6,-30
5,75,-2,0,33,24,16,2,-14,-35
6,73,4,-1,17,17,9,-12,-35,-41
1,101,-33,8,28,12,5,-11,-33,-36
-13,105,-136,10,27,10,22,-14,-42,-24
-3,95,-109,3,15,-4,37,-20,-53,-26
18,90,-28,-6,1,-3,39,-23,-74,-34
17,80,-36,-16,-15,0,5,-1,-20,-30
0,69,-131,-16,-22,-2,-20,29,36,-29
-8,60,-131,-9,-14,6,-18,23,20,-21
-5,39,-10,-15,-14,7,-33,2,-3,-16
0,34,29,-13,-11,26,-36,-11,-22,-6
6,44,23,-8,-17,24,-22,-14,-26,24
13,52,24,-8,-22,23,-23,-23,-24,34
21,35,16,-4,-15,20,-15,-17,-6,19
31,18,22,-4,-4,5,17,-21,28,19
41,50,33,6,11,1,30,-22,84,34
58,93,55,20,42,6,21,-10,169,54
43,88,21,34,33,5,-3,-7,132,47
31,103,-68,44,51,27,3,-6,139,43
-7,62,-88,34,48,27,18,13,108,36
-61,-14,-4,20,11,12,5,15,27,10
-33,1,23,18,25,11,6,-4,25,5
-14,69,15,12,48,9,5,-22,85,5
-28,58,-4,5,17,-1,10,-12,64,7
-39,-3,-3,0,-21,5,40,3,-23,4
-38,-22,-10,-2,-36,-1,44,8,-78,15
-17,-27,-86,-3,-33,1,39,1,-92,28
-5,-18,-82,7,-25,9,26,15,-79,29
3,-7,-7,8,-9,-5,6,29,-36,24
48,22,15,5,22,5,-6,13,30,42
91,49,30,10,36,7,2,-11,55,71
75,41,27,9,16,3,-20,-16,1,61
26,53,23,17,34,31,-17,-6,9,12
2,30,29,25,38,36,-3,-6,-1,-18
-30,-15,16,27,10,31,7,22,-6,0
-38,-12,25,17,-13,19,24,19,-12,-6
-8,44,25,-5,5,13,14,10,48,-5
28,68,25,-15,25,3,-24,-1,81,-6
42,59,2,-10,30,-9,-37,-26,28,0
12,9,-43,-22,-1,-7,-40,-29,-39,12
5,0,-6,-25,-15,-5,-24,-25,-56,25
-8,-11,-5,-19,-16,-13,-13,-18,-73,34
-12,-21,-11,-24,-27,-14,-32,-17,-103,37
11,-13,-8,-32,-37,-29,-38,-14,-111,20
18,-28,-14,-40,-51,-28,-33,-3,-85,24
14,-41,-1,-18,-44,-29,-29,8,-72,39
-12,-45,28,0,-23,-9,-5,13,-71,11
-55,-46,26,2,-19,-16,7,13,-63,-62
-86,-55,26,-19,-25,-7,6,16,-37,-78
-64,-62,22,-54,-34,-12,19,32,14,-32
-41,-54,20,-47,-26,-6,44,26,26,-15
-24,-54,28,-41,-13,-5,48,12,13,-11
0,-56,36,-25,-19,-12,43,0,-1,9
8,-55,33,-22,-26,-17,29,-13,-8,34
15,-61,26,-17,-32,-25,18,-21,-19,43
23,-71,18,-17,-37,-27,25,-27,-22,37
11,-61,13,-16,-40,-39,30,-23,-14,31
-2,-55,15,0,-39,-26,27,-18,-14,4
-21,-49,20,11,-5,-8,31,-10,-25,-43
-42,-50,14,9,7,0,42,-2,-19,-56
-23,-51,0,-5,-1,-10,41,-10,-8,-19
-4,-36,-2,-13,2,-13,15,-20,-20,-2
13,-36,-8,-14,-5,-15,4,-28,-20,3
11,-48,-26,-20,-20,-20,15,0,0,7
16,-51,-104,-27,-26,-18,26,22,9,26
31,-50,-58,-41,-25,-9,15,29,16,45
22,-34,1,-30,-16,3,16,30,38,50
-18,-35,27,-1,0,30,39,12,15,-8
-51,-54,30,21,12,25,43,-2,-2,-57
-27,-41,39,32,23,20,31,-1,33,-47
-19,-34,36,34,25,32,31,-14,30,-14
-13,-54,25,20,8,23,32,-21,-16,-2
-3,-71,15,12,-4,9,17,-15,-20,-14
-4,-59,-30,5,-10,15,9,-14,-11,-18
8,-22,-29,15,16,15,11,-12,51,-10
27,34,-19,40,58,18,-10,-6,144,-9
41,39,-22,44,42,20,-5,-4,126,-1
62,62,3,50,46,10,6,3,139,13
38,30,12,42,31,5,4,18,97,17
13,-19,-6,14,1,3,6,4,-4,1
19,-34,-16,12,-11,-17,3,-23,-26,1
21,-23,-15,22,-22,-22,-17,-47,-27,-8
6,-23,-5,30,-23,-25,-23,-58,-41,-33
-23,-46,0,26,-8,-15,-3,-35,-49,-41
-24,-25,13,38,15,-19,2,-19,-40,-46
11,35,40,54,55,-17,10,-23,57,-27
16,37,34,48,61,-24,12,-20,73,-3
5,25,-25,21,44,-15,-3,-19,31,-4
27,48,33,24,68,-14,-7,-39,81,-7
23,22,37,8,44,-13,-25,-41,39,-22
24,21,39,6,36,-7,-41,-14,47,-39
22,31,44,20,54,8,-29,-4,72,-57
-12,-32,2,4,-21,0,-41,-26,-103,-53
-19,-69,-48,-18,-43,-17,-35,2,-83,-59
-14,-77,-112,-40,-65,-14,-32,8,-62,-76
-6,-78,-55,-36,-60,-10,-29,2,-69,-77
-9,-62,-77,-20,-46,5,-26,-1,-73,-68
-6,-37,-151,-21,-42,10,-30,-3,-71,-43
0,-36,-56,-20,-31,-2,-31,-6,-76,-34
-2,-18,12,-12,-7,11,-34,-8,-95,-38
-3,5,-10,-4,-6,2,-44,-6,-94,-48
1,-8,-65,-13,-31,-22,-50,10,-2,-30
19,-7,-3,-23,-22,-22,-57,27,88,0
40,32,27,-15,8,-7,-50,8,130,11
41,9,21,-15,-10,-13,-61,-8,54,28
43,22,26,-7,-9,0,-54,-17,35,54
55,66,54,16,41,0,-3,-21,92,60
84,76,72,34,69,23,23,-19,70,78
41,40,70,36,63,26,-13,-38,-22,35
-5,-10,45,30,25,6,-30,-61,-126,-6
-10,-7,36,5,0,14,-29,-55,-172,-1
-10,-1,42,0,1,15,-1,-43,-170,29
-26,-30,33,12,2,36,16,-6,-111,52
-35,-37,33,25,6,41,33,45,-40,48
-38,-28,23,18,-2,23,39,72,20,47
-41,-41,-20,-8,-19,18,24,82,134,62
-36,-23,-115,2,-17,15,-2,53,112,26
-50,5,-96,20,-7,-9,-17,7,5,-51
-46,1,-31,11,-17,-14,-22,-8,-15,-48
-24,-6,-13,0,-24,-22,-37,-10,-21,-2
-19,-22,-13,0,-16,-19,-44,-19,-42,-4
-28,-29,-15,-12,-14,-22,-16,-26,-48,-18
-49,-20,-5,-4,-5,-13,19,-21,-14,-10
-51,-21,-5,-4,-2,-2,24,9,2,17
0,-7,12,-15,-22,-4,15,25,-15,47
22,13,12,-19,-28,-9,19,41,16,61
18,20,-66,-12,-13,0,18,41,34,45
1,24,-81,13,-4,6,19,35,25,23
-10,-5,9,4,-12,5,-5,13,-9,49
-41,-24,17,-6,-16,-1,-27,23,-4,18
-62,-22,15,0,-10,-5,-32,35,4,-18
-38,-27,10,-2,-9,-9,-40,34,-4,-28
-14,-18,23,2,-13,-4,-38,29,-20,-21
-21,-2,25,4,-7,0,-43,12,-35,-17
-19,-10,19,0,-12,-2,-33,-8,-57,-28
-13,-19,13,2,-5,-1,-28,-22,-77,-54
-31,-14,23,12,7,-2,-28,-31,-93,-71
-49,-10,19,22,22,21,-41,-74,-154,-96
-53,-28,21,17,30,21,-48,-116,-213,-114
-59,-40,-8,-9,9,10,-43,-116,-172,-99
-50,-58,-41,-28,2,6,-17,-56,-72,-66
-31,-59,-25,-12,11,-6,20,-32,-63,-60
1,-21,-58,15,31,6,9,-45,-98,-78
10,-25,-68,18,11,-1,8,70,46,-58
39,-10,-47,6,-20,-3,51,237,291,28
58,21,22,23,-2,6,54,235,318,55
41,34,50,34,20,-1,12,129,162,8
12,14,38,22,18,-8,-3,64,63,-19
-1,0,-20,11,-10,-34,-28,30,44,-17
2,0,7,6,-9,-45,-22,32,70,-7
5,4,26,0,6,-32,-6,45,109,-5
47,64,42,-3,49,-27,5,44,170,13
71,111,57,13,65,-27,13,40,172,23
33,92,46,17,67,-14,37,43,139,-15
-2,25,31,0,38,-6,18,28,45,-42
-14,-30,6,-13,-2,-19,-9,21,-20,-17
-3,-48,-24,-16,-19,-15,-1,13,-28,1
8,-53,-59,-6,-21,-5,28,11,-20,-9
24,-48,1,-3,-16,3,44,14,-26,1
29,-51,17,-9,-10,2,30,9,-40,18
0,-58,16,-2,1,18,7,4,-46,0
1,-50,20,-8,1,12,19,1,-38,-22
12,-30,10,-12,-5,1,18,-5,-45,-32
11,-34,1,2,-5,9,-11,-1,-52,-43
18,-50,-1,8,-3,13,-28,-6,-41,-31
31,-37,3,-1,-15,6,-30,-20,-36,-8
40,-38,13,1,-16,5,-43,-34,-35,0
27,-33,-5,3,-12,10,-46,-30,-42,1
19,-36,-24,-2,-19,0,-51,-36,-42,-7
1,-16,-4,1,-16,-5,-41,-17,-24,-33
-13,20,1,6,3,3,-4,-13,-6,-58
-22,13,28,15,-3,0,21,-23,-41,-54
-19,14,28,10,-16,-11,26,-15,-54,-31
-14,17,13,1,-25,-21,37,10,-34,-13
-13,10,16,18,-18,-17,38,14,-21,-10
0,12,-4,27,-11,4,27,3,-18,-12
14,29,-2,27,0,13,5,1,-9,0
14,18,14,31,-3,18,5,12,0,15
9,5,13,35,-10,8,5,24,2,28
0,20,3,24,-9,8,13,33,10,47
0,33,16,34,-9,21,7,31,8,20
1,22,19,25,-10,15,6,9,8,0
46,8,15,20,-6,17,-8,-18,-1,24
78,10,24,10,-15,2,-9,-29,-12,36
79,12,25,3,-22,-5,-6,-35,-19,42
78,-9,9,-6,-24,-9,9,-25,-28,48
34,-14,-4,-1,-18,-4,1,-35,-44,4
-33,6,-54,9,-4,0,-20,-45,-74,-83
-57,6,-37,-5,-1,-3,-25,-34,-55,-95
-34,9,46,-2,5,-6,-22,4,28,-15
-41,12,50,12,10,9,-4,35,55,-6
-14,19,32,0,-11,30,-5,22,23,7
5,11,12,0,-21,28,-12,29,30,50
-20,-12,-13,2,-4,27,20,35,38,36
-35,-3,-96,7,9,43,22,19,-1,0
-42,-1,-90,11,16,48,6,2,-36,-16
-56,-16,-3,0,-1,35,-3,13,26,-26
-49,-5,13,-18,-12,24,10,33,84,-18
-8,-8,15,-1,-2,32,11,13,52,7
2,-19,10,12,3,34,5,-9,21,12
61,-1,28,1,-11,16,14,-26,55,94
97,-6,41,6,-14,22,-17,-59,-2,110
99,0,39,25,-2,18,-21,-52,-13,124
87,-8,35,25,11,13,4,-47,-13,130
62,-14,45,32,26,21,19,-54,-33,69
5,1,54,26,20,16,15,-50,-15,-2
-59,-5,54,6,-2,-2,32,12,51,-39
-80,-6,66,16,14,31,52,28,35,-100
-55,8,53,26,33,42,36,3,-5,-124
-30,12,37,12,12,33,8,13,14,-81
-14,8,34,0,-5,19,-10,2,16,-211
-6,9,19,1,-9,11,-14,-5,-11,-755
12,-7,-10,-15,-26,0,-18,14,-12,-1102
14,-20,-28,-35,-38,-40,-45,-14,-40,-1165
-16,-20,-26,-36,-39,-33,-58,-42,-75,-1166
-28,-16,-15,-31,-18,9,-34,-48,-96,-1070
-50,8,18,1,25,40,3,-43,-82,-776
-42,4,33,10,29,31,-4,-9,-48,-332
-34,-18,5,-19,-32,-7,-21,53,70,-18
-16,-26,0,-32,-62,-35,-20,99,179,176
-30,-19,25,-10,-32,-26,-18,65,155,238
-27,-15,38,8,-4,-34,1,9,60,274
-24,-11,41,0,6,-17,50,-5,-33,300
-27,-14,35,0,7,14,63,-6,-46,331
4,-24,32,-10,7,-8,9,-11,-21,369
52,-11,0,-13,7,-27,-7,6,4,419
57,-14,-9,-25,-7,-22,11,38,111,420
29,-19,-3,-12,0,-9,24,37,123,373
16,-31,2,1,22,19,36,15,52,351
0,-62,-15,-8,4,-4,42,35,48,349
-24,-58,-21,0,0,-7,16,40,46,286
-42,-44,-24,1,1,22,22,37,-5,233
-43,-21,-15,-5,-7,14,22,31,-36,232
-15,18,29,13,18,-4,-22,-37,-87,217
6,25,53,42,40,-28,-63,-45,-109,201
54,22,48,20,0,-84,-78,19,-17,293
92,53,51,-3,-21,-128,-95,52,86,343
81,73,23,19,9,-108,-92,22,92,286
35,32,13,27,12,-27,-34,14,25,243
2,-27,-2,-8,-10,81,100,31,-70,202
-14,-56,-12,-38,-10,177,179,49,-107,187
4,-53,0,-33,-2,111,104,31,-62,213
48,-17,6,-26,-36,-72,-35,26,31,240
29,5,12,-10,-50,-150,-117,-17,2,116
-18,20,41,33,-7,-120,-147,-85,-105,-25
0,27,54,50,10,-127,-188,-100,-130,-30
42,11,10,10,-40,-149,-137,13,37,70
-46,-61,-104,-58,-65,21,155,165,189,72
-125,-90,-148,-68,4,239,347,169,114,-13
-91,-28,-73,-6,68,238,230,107,62,-17
-45,8,-6,29,51,120,89,35,3,-10
-32,19,-58,16,29,61,62,-20,-46,-28
-54,0,-31,25,33,34,61,-68,-101,-54
-68,0,12,52,54,34,19,-123,-195,-75
-58,-24,9,49,49,42,31,-106,-199,-55
-25,-34,-17,25,23,32,28,-71,-134,0
35,-14,-15,30,4,-1,-8,-59,-73,86
63,19,-1,30,13,-2,-2,-69,-94,126
20,4,-12,11,7,-7,25,-41,-111,84
-1,-47,-103,-22,-27,-17,46,43,54,115
34,-35,-167,-26,-39,-45,53,79,207,179
64,8,-66,31,-23,-66,8,32,164,173
69,13,37,44,-18,-95,-34,23,100,119
73,13,33,7,-43,-117,-38,38,105,117
109,5,-4,-23,-57,-101,-33,49,146,119
88,1,-39,-18,-38,-61,-25,87,203,64
58,13,-44,-19,-26,-20,-11,76,178,68
55,-5,2,0,-13,-24,-5,39,111,154
57,4,33,17,-2,-88,-40,-18,54,170
84,25,32,3,-16,-151,-86,-93,-13,152
125,38,26,-17,-13,-113,-104,-111,-10,137
122,58,38,-2,29,-5,-78,-94,-4,58
90,35,32,-2,50,101,4,-76,-30,-81
51,-13,2,-12,22,122,84,-26,-19,-168
65,32,39,36,35,52,78,29,13,-116
7,10,33,28,35,31,59,8,-2,-87
-50,10,24,23,50,42,69,-16,-24,-99
-66,17,25,32,43,73,81,-42,-74,-122
-103,9,38,40,54,76,58,-52,-104,-125
-141,22,32,33,63,59,16,-52,-131,-132
-120,54,43,35,55,31,-9,-69,-168,-150
-108,39,48,42,57,15,19,-59,-158,-178
-101,-8,21,22,39,16,40,-10,-48,-156
-74,-23,-11,-5,11,20,27,49,53,-70
-15,-29,-76,-14,17,19,2,27,55,-34
32,-2,-44,1,33,7,-14,-35,-40,-23
50,13,8,15,29,-9,-54,-85,-96,-16
49,0,2,19,22,-14,-38,-32,-23,-1
54,25,15,56,57,27,3,-32,-55,1
63,47,34,69,62,38,19,-111,-191,26
58,45,21,35,21,0,7,-113,-202,86
31,10,-4,6,-8,-5,6,-82,-174,125
18,-13,-28,-6,-12,20,0,-88,-171,151
-5,-52,-83,-54,-58,-24,-29,-40,-94,124
-78,-84,-99,-77,-89,-34,-6,34,-23,9
-126,-66,-55,-34,-39,-18,-2,12,-60,-173
-92,-19,6,7,-3,-42,-72,-83,-83,-232
-6,24,41,24,-6,-75,-131,-133,-69,-155
20,37,22,5,-23,-98,-122,-80,-19,-64
42,16,-15,-25,-49,-84,-63,80,231,58
47,-17,-26,-35,-54,-67,-9,188,463,203
53,3,11,-11,-18,-40,-8,129,367,339
25,19,18,6,7,-17,-28,68,232,344
-41,-12,-7,0,0,-20,-19,63,171,212
-55,21,19,8,28,-34,-50,-15,-5,-10
-58,33,39,48,53,-25,-15,-56,-140,-187
-60,42,51,63,69,-15,-9,-62,-180,-216
-76,2,19,38,41,-21,-7,-38,-110,-147
-96,-54,-19,-6,-6,-24,18,1,37,-76
-85,-67,-43,-19,-11,-7,38,3,77,-65
-37,-23,-71,17,3,-14,32,-23,18,-83
24,5,-1,17,-11,-58,10,25,45,-7
54,-1,16,-15,-36,-78,-11,123,177,87
84,12,8,-33,-7,-41,-2,152,272,89
101,-16,-4,-51,0,-17,-5,106,275,74
91,-35,-29,-50,-20,-23,-14,57,188,69
84,-18,-25,-36,-23,-57,-62,42,118,114
57,1,-83,-26,-13,-55,-62,30,104,128
26,3,-127,-13,-9,-24,-47,29,65,88
12,-2,-9,-7,0,-12,-19,11,-5,4
40,6,48,-25,1,-12,14,-7,-47,-37
7,-13,30,-25,0,-15,31,-28,-84,-104
-129,-29,52,31,44,13,73,2,-111,-290
-217,-19,83,72,83,32,93,26,-112,-423
-139,2,76,63,51,-21,3,-7,-88,-310
-45,13,50,30,12,-57,-74,-48,-27,-140
-3,-7,39,4,4,-61,-91,-55,29,-61
5,-35,20,0,-3,-36,-70,-43,6,-32
-30,-65,9,-6,-12,-33,-10,-13,-23,-56
-26,-55,2,-7,-19,-71,-15,-18,-31,-45
31,-53,-4,5,-35,-108,-15,-43,-27,64
35,-75,-78,-3,-61,-76,15,-61,-35,175
-49,-79,-48,19,-23,5,36,-52,-42,163
-74,-43,30,70,35,89,30,-40,-67,82
-28,17,84,115,58,76,-10,-62,-123,48
-69,53,95,127,44,17,-19,-33,-122,-102
-121,23,-16,94,10,14,-2,-13,-114,-292
-93,-9,-130,35,-33,54,23,13,27,-254
-75,-26,-58,26,-36,67,37,37,118,-164
-66,3,23,44,-19,32,14,16,78,-106
-70,24,41,51,-25,-5,0,-52,-12,-94
7,36,14,26,-47,-13,-24,-111,-83,-42
68,0,-34,0,-55,11,-34,-144,-153,7
27,-18,-27,4,-55,12,-48,-112,-159,-69
36,-13,-10,26,-57,-6,-54,-76,-117,-66
45,-22,-88,42,-30,-12,-44,-75,-96,16
3,-40,-115,70,6,0,-18,-45,-72,27
-70,-46,-14,63,-12,-10,35,50,38,-5
-66,-38,46,35,-34,-42,40,115,117,15
-12,8,46,23,-43,-75,-28,87,137,77
39,82,80,56,-22,-84,-63,39,128,160
61,113,120,83,-2,-75,-56,13,100,135
107,78,74,69,-19,-60,-47,-43,-20,21
122,0,-47,34,-33,28,80,-113,-143,-87
150,-32,-36,25,-24,84,160,-132,-212,-104
114,-63,-20,52,19,72,149,-63,-148,-11
33,-96,23,45,0,-78,70,59,40,150
-63,-108,-3,5,-82,-268,-50,146,254,255
-154,-69,-53,-2,-76,-260,-75,157,335,229
-170,6,25,39,-17,-136,-41,92,235,161
-101,12,81,56,33,16,-7,29,112,105
-78,-64,28,33,94,254,70,3,3,-32
-8,-41,22,25,85,270,82,17,-28,-38
32,12,29,17,-14,2,-27,36,59,40
32,-12,1,3,-4,-17,-32,12,61,78
79,20,5,-9,-25,-72,-70,-40,14,125
-10,5,-38,22,3,-6,-28,-9,-54,-12
-34,-13,-55,37,25,29,-16,-16,-123,-126
-14,17,51,36,34,15,8,-13,-123,-171
-24,38,69,38,25,-23,31,30,-51,-146
-9,37,62,32,8,-69,-2,34,11,-23
17,13,49,8,-5,-97,-38,26,45,52
22,14,25,-10,-19,-114,-87,18,57,64
22,36,-39,-1,1,-109,-124,-13,48,88
6,31,-80,23,25,-30,-62,-26,41,76
-79,-7,-33,3,5,76,41,-22,-41,-20
-90,-20,45,-30,-19,82,47,-50,-137,-81
-55,-10,54,-36,-20,30,-16,-71,-156,-87
-58,4,65,-12,-5,-1,-42,-26,-83,-71
-42,-4,56,-9,-16,-30,-44,42,61,101
14,-23,12,-46,-63,-93,-77,37,117,228
72,-40,-23,-78,-100,-136,-94,-23,109,287
133,-25,-21,-52,-74,-137,-79,-67,63,359
164,1,-4,-29,-27,-110,-82,-80,-34,284
127,31,31,11,18,-94,-123,-134,-172,130
69,62,72,58,58,-98,-140,-141,-247,46
37,29,82,68,73,-12,-64,-162,-279,24
53,-17,40,30,70,151,67,-199,-326,3
133,-11,5,-9,18,132,75,-90,-122,96
120,-35,-43,-47,-59,-2,49,191,330,149
54,-33,-19,-11,-57,-94,34,285,425,-94
65,0,31,53,-34,-159,-13,122,155,-196
85,19,66,99,0,-161,-37,26,31,-156
-29,-2,74,101,41,-126,-19,77,43,-316
-188,-36,51,71,92,-32,6,149,68,-477
-184,-1,47,55,125,46,-4,131,65,-400
-107,52,41,45,95,23,-16,80,64,-245
-60,51,8,0,0,-30,-34,72,65,-128
-56,20,-7,-23,-32,-35,-23,82,35,-137
-75,-7,-63,-29,-20,13,59,67,-40,-206
-52,-24,-50,-25,2,49,70,29,-74,-236
0,-46,-32,-26,14,90,126,54,-14,-160
17,-34,5,-3,25,79,145,93,77,-38
54,3,21,1,17,7,93,78,128,80
94,-1,-10,-30,-15,-23,71,47,129,194
102,-36,-101,-56,-24,-59,45,4,28,295
13,-48,-123,-17,23,-23,85,70,33,154
-141,-53,-131,6,66,31,103,59,-20,-16
-218,-60,-94,1,61,45,54,11,-50,-51
-176,-32,-32,-26,21,-5,-36,-21,-69,-109
-45,21,-23,-46,-18,-74,-67,-55,-115,-110
55,50,-6,-38,-27,-88,-48,-70,-140,-56
43,44,0,-40,-24,-87,-61,-60,-121,0
1,32,24,-22,-23,-97,-66,-82,-126,0
8,54,74,17,-2,-89,-72,-80,-109,27
-45,54,104,52,29,-59,-48,-45,-75,49
-58,46,127,88,54,-42,3,-19,-65,-14
-44,16,99,102,75,-31,18,-7,-22,-64
-104,-48,35,51,68,-7,-8,-18,16,-69
-56,-56,-39,-27,24,-32,-60,-42,15,-4
41,-27,-34,-38,7,-35,-73,-68,-14,72
51,-18,-34,-14,10,-8,-17,-34,-26,86
-35,-39,-56,6,32,6,46,19,-20,18
-133,-72,13,4,49,49,114,35,-3,-22
-97,-76,14,-13,32,51,112,25,-38,-25
103,29,35,-14,9,0,49,14,-27,48
234,70,52,-16,4,-17,50,35,59,215
173,9,28,-26,0,-31,23,38,119,265
207,4,17,-70,-40,-85,-35,34,159,246
152,-53,-22,-114,-66,-117,-57,14,107,142
-51,-113,-40,-81,13,-40,2,27,54,11
-87,-100,-22,-28,40,12,18,22,-29,-14
-5,-62,24,-14,1,-32,-6,22,-4,112
23,-28,39,-14,-35,-86,2,57,66,213
-31,-35,32,12,-49,-111,7,25,30,191
-67,-53,20,23,-43,-98,-9,-12,29,109
-59,-74,10,10,3,-41,3,-8,7,45
-19,-81,18,5,23,15,14,-8,-31,-6
9,-43,0,1,19,63,46,7,-26,-8
-61,7,5,53,90,189,103,-5,-92,-132
-104,33,102,85,122,172,80,-35,-141,-281
-102,-12,80,34,52,61,12,29,-34,-220
-113,-72,45,-10,12,25,13,60,17,-139
-75,-56,34,-16,25,55,31,16,-35,-92
-54,-74,-36,-21,22,104,67,7,-72,-32
-16,-62,-27,-28,11,76,55,-10,-89,-12
38,-27,31,-34,-51,-18,23,45,2,6
19,-37,17,-23,-44,-53,17,81,65,9
24,-28,61,8,0,-28,-3,-3,-7,20
5,-46,60,9,-13,-9,-5,-64,-48,27
0,-75,36,-7,-30,-27,-57,-88,-90,38
35,-67,24,-5,-33,-66,-64,-96,-128,44
92,-47,-21,-29,-66,-141,-68,-80,-88,56
120,-50,-34,-43,-73,-183,-96,-49,-21,125
96,-64,-2,-45,-69,-162,-87,43,171,258
60,-51,5,-46,-38,-73,-39,133,292,322
101,-22,-42,-43,-20,5,-19,110,242,359
116,-6,-70,-57,-58,-7,-26,77,197,362
91,-16,-6,-74,-70,-98,-82,54,187,276
-10,-45,-7,-37,-29,-79,-50,54,130,120
-120,-105,1,-2,6,-62,-8,87,173,53
-109,-129,-60,0,0,-103,-63,83,226,102
94,-80,-47,-7,3,-106,-86,54,215,185
286,-40,13,-42,-30,-94,-65,39,194,321
260,-70,47,-22,1,-107,-108,12,94,333
46,-160,4,-35,20,-17,-49,9,51,193
-100,-195,-15,-40,50,73,57,-13,-44,43
-155,-155,42,11,68,106,133,-61,-198,-239
-182,-120,107,70,110,115,128,-40,-217,-432
-176,-81,134,96,108,22,71,16,-119,-447
-34,-29,141,73,61,-82,-49,-41,-84,-257
199,26,121,16,-16,-162,-151,-121,-84,12
119,-46,71,-11,5,-19,-15,-47,-107,-43
-92,-151,49,11,87,182,171,55,-134,-161
-29,-130,66,18,88,175,145,64,-107,-125
23,-41,83,58,89,88,48,1,-110,-100
-106,-14,24,119,151,74,22,-61,-159,-168
-125,10,24,162,170,59,10,-130,-234,-187
-30,20,98,126,111,-3,-25,-122,-157,-46
29,-67,23,9,-6,-65,-61,-41,76,196
20,-97,-54,-65,-80,-76,-59,42,261,305
-56,-136,-106,-85,-77,6,42,120,287,225
-122,-193,-105,-83,-35,50,100,169,227,182
-54,-158,-96,-86,-54,-56,12,121,189,246
110,-61,-69,-70,-72,-76,-27,39,55,177
149,-59,-39,-27,7,76,88,67,-21,-49
-9,-79,21,44,106,158,147,76,-88,-327
21,30,135,122,136,58,39,-25,-197,-434
170,99,145,90,75,-127,-80,-33,-154,-225
217,54,70,20,-3,-223,-130,34,36,42
255,31,-3,-14,-66,-309,-197,33,168,296
333,51,1,-54,-152,-418,-277,-14,263,533
186,19,-23,-134,-220,-318,-210,-74,241,482
-83,-136,-191,-230,-203,31,27,-113,118,323
-92,-169,-174,-193,-107,230,162,-67,96,383
-132,-157,-29,-44,62,316,229,79,176,260
-306,-155,38,73,187,402,264,148,225,47
-186,-79,41,107,110,186,83,49,208,129
40,-9,88,53,-69,-154,-116,-36,182,167
71,14,149,81,-97,-274,-167,-26,55,-186
16,-24,182,149,-52,-263,-128,-9,-22,-435
-6,-66,162,136,-22,-175,-89,-4,-40,-357
-37,-98,82,128,135,116,50,0,-183,-376
-215,-137,-22,93,225,344,173,-11,-315,-507
-286,-68,-8,107,196,259,128,2,-268,-541
-152,9,44,124,127,90,51,2,-185,-438
47,43,72,65,69,-32,-22,-71,-186,-282
134,30,78,-20,3,-44,-9,-111,-195,-196
115,-37,35,-54,4,132,115,-65,-159,-233
61,-49,58,10,46,156,48,-79,-81,-97
-39,-64,59,25,26,92,9,-140,-85,37
-198,-166,-16,2,11,100,102,-78,-83,-55
-254,-241,-48,23,40,-20,15,-39,-70,-159
-20,-191,-99,-1,-14,-162,-78,-22,-14,8
130,-136,-58,-11,-37,-156,-22,62,58,147
111,-118,-11,15,-23,-107,66,212,105,90
171,-119,-99,18,-25,-90,40,133,16,124
-4,-190,-73,28,39,10,50,10,-21,147
-196,-235,-37,16,76,154,138,37,79,54
-139,-209,-99,-84,14,222,217,178,212,104
52,-74,-66,-116,-79,32,65,191,261,228
96,33,44,-55,-87,-86,-30,133,203,221
24,2,28,-45,-64,49,50,93,71,159
59,0,12,-38,-66,12,39,51,10,179
106,31,87,33,-30,-154,-88,-41,-59,120
139,47,134,93,13,-231,-158,-91,-85,79
105,45,119,95,19,-219,-118,-87,-49,2
11,47,126,88,13,-198,-110,-82,49,-165
26,39,124,64,1,-103,-119,-69,110,-94
27,-14,43,11,14,118,-17,-86,-13,-31
-24,-92,-43,-40,15,277,92,-137,-181,-125
-32,-102,-49,-56,-30,205,121,15,-83,-102
-76,-102,-35,-59,-48,131,182,206,87,-60
-56,-62,-30,-46,-47,69,107,105,66,34
13,18,52,-12,-64,-64,-13,-44,20,155
-41,-34,18,-37,-74,-148,22,71,129,81
-110,-154,-44,-90,-102,-174,19,139,117,-4
-90,-164,-26,-78,-133,-217,-77,-2,-107,-50
7,-83,54,-14,-121,-252,-167,-142,-217,8
116,-37,57,26,-62,-108,-121,-203,-229,85
177,-35,42,17,-17,44,-16,-175,-209,26
7,-131,-58,-27,-1,175,141,-13,-55,-129
-256,-250,-127,-59,5,332,338,164,36,-292
-221,-240,-124,-84,-28,236,260,175,142,-145
-10,-151,-154,-97,-117,-101,-52,56,301,164
29,-121,-199,-120,-156,-184,-170,-42,344,406
45,-92,-193,-91,-114,-94,-192,-151,201,537
5,-29,-102,0,-13,-46,-112,-52,32,390
-102,0,-8,75,38,-31,94,237,40,94
-104,12,108,80,36,-46,107,246,32,-122
-13,72,134,43,-1,-82,22,154,8,-168
44,137,137,33,-5,1,42,68,-82,-198
52,130,140,40,39,170,116,-73,-280,-289
61,65,96,0,23,112,107,-58,-260,-248
77,-5,85,22,22,17,76,0,-112,-98
72,22,74,72,81,-3,15,-54,-106,-32
90,99,47,77,102,39,3,-149,-161,-34
21,80,88,19,51,121,24,-213,-190,-101
-124,14,82,-9,18,122,55,-207,-162,-112
-72,13,78,-8,-27,-56,-63,-201,-125,8
66,36,62,-31,-120,-322,-192,-111,19,144
107,69,99,-12,-169,-593,-273,46,247,259
68,103,175,53,-150,-730,-286,282,468,339
16,131,173,57,-110,-661,-188,456,628,296
-59,90,80,-12,-42,-336,-93,338,516,191
-32,85,63,-45,-71,-170,-35,185,316,182
-83,43,13,-57,-90,11,76,46,-64,-119
-219,-25,-63,-120,7,340,216,-13,-349,-523
-178,-42,-105,-146,83,509,229,-47,-347,-463
-21,-29,-126,-165,63,582,234,-91,-236,-124
-35,-52,-116,-181,-10,479,213,-79,-122,74
-129,-41,-56,-101,-46,136,36,-72,-13,179
-221,10,23,27,26,-120,-98,-72,96,240
-241,-25,-49,69,76,-125,-87,-56,133,164
-195,3,-23,79,52,-142,-94,20,134,-18
-150,43,60,61,19,-129,-80,44,31,-172
-186,-28,30,26,61,103,88,56,-51,-181
-116,-70,-34,-18,76,377,303,125,-42,-73
47,2,-42,-47,66,317,263,137,65,125
179,88,-18,-71,-54,-45,8,102,225,332
215,129,1,-89,-123,-275,-174,10,302,466
67,63,-20,-104,-109,-205,-137,-30,243,321
-158,-57,-100,-144,-91,82,78,11,73,-27
-139,-15,-100,-112,-57,193,146,-16,-140,-136
-51,25,-61,-94,-34,258,178,-104,-295,-95
-35,10,-23,-28,41,219,134,-143,-370,-119
-86,-18,34,84,76,32,53,-61,-261,-49
9,-12,-26,31,-43,-126,-27,84,125,196
274,183,-26,-52,-146,-240,-128,126,419,371
321,385,26,-52,-163,-371,-265,24,396,411
229,449,43,-33,-148,-313,-321,-145,112,325
85,460,103,59,0,-15,-62,-7,-76,44
-82,432,133,106,71,96,98,164,-117,-325
-194,373,124,87,44,114,115,55,-282,-575
-216,284,111,90,35,110,20,-162,-400,-610
-239,187,57,91,40,143,39,-200,-395,-591
-181,114,7,49,-8,96,92,-63,-242,-455
-77,80,-78,0,-54,12,87,71,-85,-262
-78,144,-65,30,8,33,2,-18,-115,-203
-101,206,97,105,165,152,-79,-160,-195,-221
12,202,118,119,187,113,-112,-174,-177,-147
140,158,14,6,3,2,-16,50,21,7
94,55,-58,-71,-77,98,144,223,161,82
25,2,-33,-8,-12,125,179,231,196,95
8,20,-60,35,24,30,36,67,136,135
-56,3,-94,-33,-19,18,30,51,182,208
-74,-33,-112,-107,-72,70,99,142,202,248
-51,5,-86,-88,-87,26,123,298,264,262
-44,96,3,5,5,18,28,104,75,154
26,139,59,96,107,50,-97,-213,-194,12
81,95,-121,13,-5,-33,-98,-103,-24,128
90,71,-191,-39,-44,-40,-33,47,96,239
22,69,-106,-26,-30,-72,-70,34,103,267
-80,0,-79,-83,-88,-113,-26,144,181,190
-143,-78,-124,-132,-119,-26,97,231,208,57
-107,-34,-20,-72,-86,56,96,171,136,-17
8,38,95,22,-25,-2,-4,73,49,-91
80,79,145,69,1,-114,-103,12,32,-43
28,28,123,56,-17,-184,-91,57,107,44
-31,-45,104,45,-11,-106,-54,28,137,94
-79,-76,25,22,5,7,-31,-12,140,134
-85,-134,-62,-26,-5,-12,-31,45,156,175
-22,-148,-118,-43,-48,-165,-101,65,138,248
40,-181,-50,-40,-35,-246,-160,20,69,221
79,-175,-8,-18,-26,-181,-151,23,36,174
173,-81,49,46,-13,-155,-177,10,81,151
253,-24,73,56,16,-74,-159,-13,104,169
215,-17,108,97,51,-105,-169,-9,80,115
171,-16,176,107,-13,-327,-263,0,82,39
204,-80,48,-33,-131,-220,-136,-8,133,142
52,-288,-165,-198,-158,277,150,-69,-32,104
-63,-359,-162,-179,-19,487,267,-1,-150,-62
-88,-352,-175,-130,108,647,359,21,-234,-156
-14,-271,-54,-49,107,543,238,-92,-250,-42
-19,-219,49,25,87,238,26,-191,-203,-22
-116,-249,-9,25,59,73,-9,-110,-75,-65
-102,-271,-110,0,21,28,18,-47,-1,-10
-48,-296,-50,-29,3,16,9,-101,-48,134
-68,-350,-19,-30,32,68,56,-69,28,242
-151,-364,-3,2,98,142,74,-72,47,246
-87,-272,2,-29,60,83,-42,-208,-46,379
76,-125,9,-81,-47,-24,-139,-296,-92,441
-67,-165,-21,-90,-43,5,-1,10,92,-7
-271,-320,-74,-77,26,64,117,298,160,-538
-159,-321,-121,-97,-38,-28,190,542,280,-474
-35,-214,-15,-39,-52,-202,93,546,334,-189
70,-54,189,76,-23,-417,-205,273,255,-30
129,-11,231,91,-36,-484,-302,157,245,103
111,-88,120,37,-81,-418,-252,93,166,166
-84,-249,43,4,-36,-130,-27,75,-29,-85
-291,-415,-67,-7,71,232,162,-4,-276,-403
-201,-415,-114,-5,87,271,117,-21,-201,-354
-53,-371,-29,-19,40,219,55,-28,-91,-256
-65,-399,-47,-46,6,193,15,-87,-94,-196
-70,-398,-19,-26,1,75,-43,-121,-112,-150
-41,-366,17,-4,-12,-51,-90,-105,-75,-99
2,-305,32,1,-55,-138,-129,-84,-9,-32
-4,-313,19,-2,-40,-17,-49,-49,6,-38
-70,-398,-46,-64,-27,179,134,88,43,-57
-151,-454,-108,-78,-25,261,203,128,126,-103
-21,-297,-13,-31,-81,84,37,68,273,95
147,-166,64,-12,-141,-84,-87,5,249,291
52,-165,92,41,-57,3,-72,-122,-137,-68
-69,-192,103,95,30,126,9,-225,-377,-356
-99,-264,43,60,45,180,49,-330,-400,-323
-46,-235,38,39,25,111,-50,-501,-411,-277
56,-199,51,34,-11,26,-116,-539,-327,-232
57,-281,-22,-28,-33,78,-59,-473,-295,-192
80,-290,-29,-55,-41,68,56,-157,-200,-105
142,-235,-2,-66,-112,-95,86,236,102,65
96,-283,-33,-109,-190,-313,17,553,553,168
90,-346,-86,-147,-201,-453,-71,753,865,306
207,-278,-15,-79,-153,-556,-246,537,700,467
264,-287,-51,-129,-176,-433,-234,337,560,516
119,-426,-231,-245,-163,194,93,206,381,370
-14,-360,-147,-139,-39,383,136,18,13,75
-96,-246,57,17,91,108,0,-91,-283,-227
-172,-256,78,83,161,108,80,-51,-320,-313
-88,-295,60,34,104,115,152,53,-79,-139
-60,-333,7,-33,59,170,209,149,94,-86
-8,-334,-18,-65,17,109,111,153,195,-29
10,-302,13,-32,18,-8,-4,57,93,-37
-75,-283,65,47,58,0,44,46,-27,-167
-112,-318,54,21,24,-64,87,126,44,-158
-52,-345,-46,-57,-61,-256,-15,221,168,2
-44,-400,-80,-110,-63,-131,-19,159,152,183
31,-361,-69,-116,9,149,47,16,42,321
112,-223,51,0,143,187,64,-64,-148,168
40,-205,81,33,159,61,8,-61,-212,-61
54,-225,28,-49,13,-171,-148,-65,-92,47
54,-283,-24,-120,-72,-239,-162,18,75,248
-84,-301,-14,-104,-26,-47,-6,41,14,138
-180,-295,4,-68,72,256,136,-24,-113,15
-133,-272,-4,-54,98,272,107,-93,-193,12
-128,-267,8,-36,84,75,17,-44,-267,-173
-94,-251,38,-10,90,36,20,31,-298,-368
136,-209,28,-25,57,22,12,0,-245,-180
296,-205,-14,-46,38,17,24,-25,-158,31
249,-187,0,-52,38,-33,-1,16,-75,-48
152,-136,34,-50,-8,-172,-69,68,78,-57
21,-122,31,-68,-37,-207,-165,-33,108,27
-102,-173,-71,-81,48,19,-118,-207,-114,-22
-141,-132,-6,22,218,100,-90,-292,-356,-269
-42,21,185,135,235,-186,-286,-373,-380,-340
75,2,75,-33,40,-341,-343,-321,-172,-143
321,-5,-59,-179,-148,-285,-222,-136,113,232
409,-45,-166,-245,-196,21,55,73,249,386
176,-148,-254,-226,-104,162,141,134,177,279
106,-54,-155,-54,-15,-134,-70,121,137,153
62,69,85,79,24,-340,-229,93,92,-9
-97,23,66,-26,-86,-316,-49,302,222,2
-312,-115,-93,-170,-131,-67,179,278,116,-81
-208,-24,-16,-99,-57,-76,5,44,-39,-84
-72,68,26,-33,29,62,-90,-127,-111,-22
-120,13,-38,-79,40,513,147,-166,-116,-28
-133,-3,-27,-61,40,628,233,-115,-22,30
-105,12,-23,-75,-2,378,144,-67,36,66
-55,13,-52,-125,-25,212,80,-22,34,54
15,17,-77,-109,26,260,119,-9,2,94
52,74,-14,-45,62,175,44,-176,-116,77
75,147,71,8,67,13,-151,-376,-230,11
146,158,29,-38,21,-32,-141,-318,-203,29
137,145,-18,-86,-34,-63,-44,-14,-17,61
-34,87,-84,-97,-38,-93,-69,105,81,-79
-130,56,-100,-54,3,-52,-81,74,13,-254
-100,73,-12,7,76,57,-64,-51,-118,-236
-6,66,4,-47,7,41,-32,-47,-39,-41
45,27,-54,-126,-52,95,82,37,79,117
-39,-20,-81,-126,-39,188,129,26,59,80
-111,12,-23,-64,20,172,74,-99,-96,-44
-165,29,-11,-35,28,124,31,-146,-131,-57
-134,31,-45,-86,-58,12,5,-36,66,71
-3,80,-57,-144,-135,-58,-16,18,174,220
73,146,-39,-131,-98,-35,-4,9,51,126
103,208,-7,-65,-3,48,41,35,-19,13
147,250,35,-9,39,-9,-47,17,31,43
155,279,32,8,18,-155,-137,-22,63,60
89,225,-18,-13,-13,-160,-116,-74,-65,56
81,211,36,12,-1,-157,-154,-205,-164,161
32,127,-13,-27,16,-97,-143,-257,-196,115
-115,-23,-155,-135,-24,80,30,-66,-138,-219
-146,29,-172,-107,-41,108,178,260,185,-300
1,119,-68,-75,-58,0,154,430,515,39
31,108,-29,-79,-36,-69,60,392,560,259
31,129,-8,-57,24,-84,-116,55,306,318
123,213,64,20,40,-152,-191,-193,-11,259
88,285,172,139,107,-235,-201,-286,-318,10
13,251,138,87,76,-141,-81,-226,-428,-98
-26,159,28,5,60,71,58,-190,-420,-80
-10,95,-56,-74,19,152,66,-171,-373,-44
96,105,-51,-81,-1,177,58,-33,-185,94
111,68,-46,-86,0,114,82,87,50,249
3,-47,-117,-159,-76,34,158,287,300,267
0,-81,-92,-145,-107,-73,127,400,443,292
28,-54,-35,-80,-68,-114,37,344,410,245
49,-52,-42,-93,-64,-25,22,221,302,174
56,-55,-47,-92,-38,12,0,88,126,68
-17,-48,-25,-58,-1,64,39,35,-48,-121
-36,-18,0,-36,3,67,46,3,-112,-188
31,-5,-2,-59,-41,-7,-12,-65,-107,-80
49,-44,-61,-88,-56,-36,-52,-105,-93,57
31,23,5,8,35,-10,-34,-75,-125,3
63,139,96,75,75,-24,-18,-46,-123,-105
88,151,82,46,56,30,52,-53,-76,-44
25,85,12,15,100,169,145,-23,-121,-18
1,100,-20,25,121,145,109,-62,-152,-45
22,125,-31,-3,65,12,3,-134,-123,-44
16,113,-16,-39,2,-104,-81,-150,-68,13
-56,41,-85,-71,-23,-118,-66,-42,20,60
-44,40,-104,-97,-63,-5,71,172,111,101
113,124,-39,-81,-83,95,181,252,207,210
184,144,-24,-52,-29,69,115,152,131,91
141,154,-2,-32,-8,-39,33,101,-33,-199
148,201,40,2,-37,-260,-145,61,-122,-314
239,265,86,43,-22,-302,-255,-11,-93,-160
220,246,58,52,35,-31,-107,-24,-32,-37
175,211,21,24,57,169,-17,-44,10,2
136,184,7,3,34,107,-47,-33,20,-2
65,146,10,0,28,60,-47,-87,-5,-17
34,116,6,-15,-6,3,-114,-150,75,127
59,77,-58,-79,-90,-88,-175,-56,293,406
103,39,-228,-165,-167,-84,-124,74,464,561
157,77,-264,-132,-134,-31,-36,93,387,544
138,172,-31,2,17,108,46,-58,-45,255
1,194,78,70,144,339,184,-95,-314,-156
-93,192,97,72,131,321,162,17,-229,-391
-57,191,72,6,23,182,40,-39,-109,-318
65,174,11,-63,-76,18,-123,-128,-66,-178
17,167,38,-11,-30,34,-56,-32,-223,-345
-81,180,104,59,13,73,68,62,-291,-393
-129,131,93,47,17,85,98,83,-191,-254
-144,33,0,15,26,110,111,117,-99,-200
39,118,-14,47,28,7,2,60,-68,-146
185,192,18,70,11,-88,-75,53,-32,-96
119,191,72,56,-8,-149,-153,5,9,-44
-16,193,69,33,-42,-93,-146,-53,-15,-74
-147,186,32,-17,-81,76,-73,-123,-95,-166
-126,170,-18,-86,-107,110,-19,-38,26,-87
-27,178,-15,-67,-107,-32,-93,16,197,105
166,229,34,-4,-61,-138,-177,-56,211,257
231,262,68,95,26,-80,-122,-125,20,130
155,259,72,189,119,13,-73,-182,-190,-32
42,147,99,162,150,151,16,-212,-303,-173
45,77,2,100,95,195,59,-161,-259,-169
58,12,-82,-30,-47,61,119,162,91,6
27,0,-103,-113,-132,-73,131,346,302,97
-55,24,-100,-43,-44,64,143,169,90,-26
-8,130,-86,18,17,167,101,-16,-74,-10
50,240,-76,57,50,122,19,-65,-40,14
67,281,-51,84,85,48,-41,-17,-2,-68
157,308,-62,38,48,-51,-94,-20,-40,-70
191,310,-86,-11,-4,-132,-148,-100,-67,28
236,278,-36,-30,-39,-161,-172,-106,16,104
186,253,50,-7,-19,20,-48,-87,45,67
-15,176,53,14,55,328,150,-125,-24,-56
-128,140,29,-4,87,303,157,-111,14,-71
-97,134,-14,-48,45,148,83,43,186,-22
10,173,-25,-65,-24,14,45,231,353,88
65,167,-13,-64,-40,-58,13,296,409,219
68,98,-77,-169,-120,-22,74,262,321,332
6,123,-44,-114,-89,15,73,40,-76,56
-96,188,82,29,9,-38,-51,-209,-437,-315
-41,224,122,3,-66,-236,-93,-66,-202,-209
48,222,120,-11,-51,-337,-80,103,16,-84
256,320,178,73,0,-466,-182,82,66,-17
324,367,189,137,40,-272,-150,44,70,-1
74,176,-66,13,66,325,172,125,120,-53
6,96,-126,-119,-41,294,151,117,193,79
-15,117,-60,-123,-79,181,84,31,159,124
-115,105,-13,-46,-13,180,110,65,123,-24
-166,110,31,9,31,88,15,3,-42,-133
-112,126,29,-13,-8,39,3,-1,-91,-93
-59,129,27,-15,-10,-46,-9,6,-123,-101
-132,22,-127,-137,-19,30,-31,-28,21,57
-116,87,-36,-60,57,253,93,-14,-13,35
-91,181,73,18,91,284,92,-32,-35,-25
-60,248,81,32,48,69,-41,-46,-65,-96
-82,257,62,37,14,-6,-65,-44,-204,-251
-58,267,137,86,36,3,-61,-121,-338,-306
-51,208,68,45,23,-8,-71,-183,-292,-175
-34,137,2,-35,-28,-99,-79,-142,-124,7
36,197,39,-24,-56,-235,-139,-121,-9,123
50,240,84,11,-39,-347,-189,-71,111,161
30,216,56,-14,-50,-351,-193,10,179,163
39,202,6,-42,-29,-199,-184,-50,51,80
10,197,9,-42,22,6,-71,-50,-47,14
-86,168,17,-33,94,290,110,-37,-126,-152
-162,106,-46,-77,80,348,143,24,-102,-237
-95,126,-60,-96,35,260,84,81,79,-47
-17,154,-55,-75,-9,2,-83,17,155,133
-75,112,-70,-36,3,-108,-161,-44,69,77
-95,115,12,54,64,-68,-140,-88,33,47
52,118,41,89,60,-176,-208,-141,111,289
168,2,-96,-31,-59,-215,-72,95,287,495
76,-59,-105,-20,-55,-159,112,310,281,319
-53,0,-97,33,-41,-253,80,280,150,2
-54,94,-126,-2,-65,-15,72,-28,-55,-141
-19,103,-65,-46,-25,343,125,-245,-138,12
0,18,-93,-86,13,454,167,-298,-125,266
3,71,-20,17,102,355,77,-466,-326,210
48,217,163,166,168,138,-82,-589,-450,-62
-3,188,218,195,189,91,-89,-526,-382,-393
-177,60,104,119,114,108,40,-223,-159,-596
-320,-26,-3,14,-19,34,170,164,14,-540
-295,5,2,3,-71,-65,130,244,40,-372
-166,87,43,38,-60,-81,53,166,-11,-205
-16,143,29,30,-51,-82,22,146,-7,-45
51,93,-23,-9,-65,-69,71,217,85,70
-58,21,-27,10,-36,-37,71,195,95,26
-71,37,-21,20,-35,-55,13,119,56,-49
99,30,-62,-6,-44,-36,-2,131,89,7
299,52,-154,6,-25,-8,-12,75,65,86
302,33,-134,6,-45,-31,19,45,69,102
139,3,-25,23,-25,-35,11,-3,22,60
67,22,19,42,-14,-47,-21,-86,-43,42
-2,68,61,66,6,-47,-48,-133,-71,42
-112,59,73,71,32,30,-16,-145,-82,11
-102,30,69,51,33,64,13,-124,-54,-22
-33,8,46,37,1,-31,-29,-26,41,5
-9,-5,54,50,12,-91,-70,16,120,21
-42,30,99,85,35,-158,-119,26,178,-13
-106,-42,8,23,-18,-100,-35,121,194,-12
-133,-112,-74,-11,26,259,133,50,47,-38
-68,-51,-10,28,94,357,144,-44,-27,-5
-7,23,-3,14,13,119,54,-18,21,48
-27,-1,-31,-13,-19,17,30,38,42,-9
-47,10,-11,-6,-27,-58,-32,13,-2,-96
36,80,0,-32,-81,-108,-64,-31,-6,-59
78,93,-53,-65,-134,-135,-92,-38,52,77
77,87,-28,-37,-99,-148,-155,-142,52,192
88,91,-20,38,13,2,-160,-284,-33,185
36,37,-24,102,79,-3,-142,-281,-36,126
-24,-70,-63,4,-11,-125,-24,10,146,147
90,-47,-112,-91,-151,-200,-20,173,303,289
128,52,-41,-39,-66,6,44,71,215,214
70,143,93,99,100,161,18,-179,-78,-38
64,182,128,144,98,19,-164,-298,-246,-143
61,89,22,13,-21,-12,-96,-156,-125,-79
51,-3,-109,-129,-125,156,119,-52,-137,-47
31,30,-83,-89,-107,24,32,-36,-212,-143
-83,-21,-88,-50,-77,-26,33,43,-60,-224
-105,-32,-51,2,-45,-32,71,133,87,-175
-71,49,17,84,-1,-121,2,155,44,-130
-47,99,-26,104,-12,-253,-91,155,19,-54
-24,142,-37,120,-22,-282,-165,19,-28,4
36,186,81,139,-4,-316,-279,-123,-36,49
-37,56,34,22,-21,-132,-134,-61,5,-28
-190,-146,-139,-105,0,475,338,77,-32,-280
-163,-79,-33,4,101,546,361,29,-108,-347
-98,19,43,58,70,267,158,-65,-98,-174
-86,19,-23,12,1,130,69,-76,-30,-18
-120,35,-69,4,-23,47,-3,-66,-9,-13
-50,56,-10,11,-16,-14,-96,-110,-21,-53
125,84,-18,-18,-61,-114,-92,-7,163,79
152,79,-18,-25,-97,-330,-180,11,270,174
64,66,13,-14,-72,-329,-214,-64,150,141
32,85,50,50,26,-82,-57,-26,20,41
30,29,-23,19,47,60,37,19,33,29
93,78,-11,39,-3,-111,-153,-115,38,155
58,114,-20,27,2,-17,-117,-268,-194,23
-33,38,-49,-2,45,163,112,-178,-282,-131
-132,-47,-73,14,106,331,245,-122,-315,-258
-158,-108,-125,-17,47,345,207,-136,-185,-230
-93,-156,-196,-110,-89,190,193,54,46,-64
-122,-123,-171,-72,-44,157,248,270,100,-78
-36,72,3,58,47,18,82,160,8,-106
122,217,137,115,2,-243,-179,-12,-11,-13
85,166,129,124,-13,-222,-160,-4,-42,-82
23,131,80,94,-7,-26,-55,-70,-145,-184
-21,38,-115,-6,-34,190,133,-38,-99,-182
6,40,-137,-42,-46,126,77,-49,-49,-14
39,124,42,10,-25,-35,-103,-215,-212,40
7,165,116,80,6,-71,-106,-212,-291,-29
-35,72,77,43,-25,-99,-8,-14,-145,-18
-64,17,47,33,-29,-106,19,64,-69,-81
-93,-14,46,57,3,8,109,79,-30,-171
-73,-18,72,103,69,88,106,0,-73,-190
-23,-3,76,111,89,171,74,-82,-55,-97
9,5,14,16,5,129,67,-29,30,-12
32,9,15,-20,-51,40,35,-12,80,-8
24,4,41,12,-33,-53,-83,-166,24,0
-4,-7,32,4,-44,-90,-112,-204,-42,-1
-54,2,26,39,-29,-128,-78,-127,-91,-67
-89,0,10,65,-12,-114,-66,-80,-92,-96
-88,20,29,80,22,102,76,-42,-55,-90
-110,7,-27,67,61,270,142,-108,-40,-67
-79,42,6,54,61,137,27,-178,-5,-15
-40,75,-55,74,38,24,-25,-15,72,20
-12,62,-30,52,-8,-28,-74,86,124,33
-113,18,-18,11,-42,-103,-144,-2,35,-101
-103,63,4,2,-65,-198,-147,87,78,-210
26,76,-16,-42,-123,-103,-10,175,130,-466
68,39,-12,2,-70,-22,24,55,-8,-971
147,16,-16,18,-40,-80,-40,-72,-88,-1112
302,-22,-42,-1,-23,-46,-72,-228,-98,-998
221,-88,-81,-10,11,54,-41,-250,-66,-833
32,-53,-49,7,0,24,-29,-123,-40,-718
-152,-31,-22,40,28,14,17,-8,-85,-771
-201,2,6,70,74,80,72,51,-103,-618
-88,42,44,85,75,58,58,161,-46,-208
-24,66,75,96,75,19,35,190,-44,17
21,62,63,76,68,0,-35,15,-80,171
84,51,-12,60,44,-14,-113,-178,-97,398
79,24,-32,27,0,32,-82,-225,-95,494
-16,-50,-68,-52,-21,161,122,-21,-39,363
-17,-94,-128,-94,-45,158,234,240,85,318
57,-46,-116,-85,-65,48,197,282,107,393
67,10,-84,-61,-63,-81,54,123,23,393
26,-8,-141,-75,-122,-199,17,209,167,453
1,-9,-164,-38,-86,-141,37,261,305,385
-8,34,-16,24,25,97,179,219,266,200
4,63,46,66,59,43,154,225,219,191
42,95,102,102,55,-79,25,170,149,231
97,159,148,116,56,-51,-67,-27,-34,247
47,75,41,42,50,117,1,-104,-86,262
52,74,46,63,67,0,-110,-147,-19,337
48,67,68,93,82,-114,-187,-195,-23,332
30,0,-6,9,16,-167,-94,-56,75,328
33,-10,-27,-23,-17,-152,15,109,125,314
26,41,3,37,19,-148,-75,21,-48,174
-70,-13,-45,-56,-8,147,56,23,-108,39
-184,-73,-79,-112,-32,474,272,124,-59,14
-232,-45,-49,-40,48,525,288,36,-114,40
-212,4,-11,19,76,263,88,-84,-98,96
-128,69,51,63,32,22,-71,-65,28,235
-65,93,71,64,-9,-101,-157,-25,186,445
8,35,-19,-25,-98,-101,-119,39,340,590
79,-12,-62,-44,-78,-27,-76,-27,216,370
9,-41,-55,-15,2,57,-2,-11,2,-14
7,-18,-124,5,14,94,55,79,-74,-151
40,0,-123,71,77,120,14,-44,-250,-198
14,13,-2,64,79,84,-27,-118,-303,-150
44,52,-69,-12,-10,18,20,59,-177,-14
47,71,-115,12,-3,-6,7,46,-194,-12
102,132,10,51,12,-65,-98,-98,-230,-67
146,167,102,43,12,-50,-67,-92,-210,-34
118,143,98,63,56,46,-56,-192,-272,-6
104,75,3,6,18,73,4,-110,-128,94
116,72,-70,19,11,-11,26,32,7,121
85,60,-70,49,27,-51,15,74,-10,-11
-20,15,7,49,0,-129,-20,135,44,-73
21,43,102,71,-34,-286,-130,97,57,-40
74,77,115,69,-26,-267,-193,-13,7,15
38,29,62,28,12,6,-30,-42,-32,28
20,33,81,29,17,78,-9,-70,-54,85
-23,2,56,-2,-19,92,-11,-64,-33,154
-82,-70,-40,-48,-23,238,151,-51,-37,115
-24,-29,-38,0,-6,130,106,-40,11,4
64,18,70,25,-13,-48,-33,-8,153,0
112,10,73,12,-19,-54,-69,2,212,114
99,-7,109,61,24,28,-40,-67,11,85
13,-59,54,11,25,165,74,-93,-151,-53
-60,-97,-12,-35,0,183,108,-76,-163,-101
-12,-66,-54,-63,-63,20,36,17,18,47
-35,-4,-7,-23,-22,20,42,50,19,-4
-111,48,34,76,81,112,81,-3,-122,-209
-117,13,-14,66,74,88,41,-46,-139,-182
-71,10,-62,37,37,31,19,-74,-117,-85
-20,23,-4,36,21,4,20,-121,-113,-40
-30,0,63,25,6,-30,-22,-138,-105,-19
-34,-59,12,-24,-36,-67,-16,-20,9,9
-46,-101,-8,-48,-45,-71,41,123,112,-9
-42,-60,35,-6,0,-51,37,82,42,-36
-41,-42,44,17,8,-43,9,13,-19,-9
-41,-60,-19,-7,-15,-60,0,17,28,55
-43,-46,8,-12,-14,-54,12,-24,11,76
-57,-21,61,12,2,-69,-53,-75,-20,48
-66,-14,23,3,-40,-94,-81,-45,53,60
-120,-26,45,33,7,-44,-76,-93,52,31
-142,-34,35,35,10,-60,-40,-16,103,36
-110,-40,-20,-11,-30,24,122,147,118,26
-9,14,-3,4,15,96,161,73,-107,-84
118,86,65,43,59,58,22,-133,-290,-87
111,54,29,36,42,-23,-72,-217,-256,24
141,21,-44,-3,3,-124,-111,-213,-132,155
179,54,-57,-32,-79,-231,-122,-109,25,203
70,26,-88,-56,-104,-197,-104,-24,216,248
-42,-15,-84,-32,-10,47,-23,-89,180,317
-156,-63,-115,-2,57,202,64,-81,118,230
-176,-120,-257,-69,-9,150,149,196,282,167
-73,-23,-117,-71,-54,-60,55,272,291,106
-20,110,78,26,1,-124,6,161,39,-197
1,134,126,88,62,-88,-29,33,-150,-426
27,87,96,78,88,-2,-4,21,-156,-363
4,43,55,49,88,84,40,-28,-156,-259
55,75,31,-9,-21,-32,-45,-118,-94,-106
37,73,1,-38,-60,-79,-52,-38,-40,-45
-56,58,36,29,15,-40,40,152,-60,-169
-143,-1,-4,17,57,93,152,133,-125,-301
-75,0,-56,-6,44,66,89,36,-64,-244
13,35,-6,13,29,-40,5,37,-7,-134
-12,11,12,18,47,52,53,26,-98,-112
-20,0,4,32,72,121,82,-14,-128,-59
-46,20,30,62,79,65,23,-76,-150,-21
-99,23,11,69,70,-5,-22,-88,-117,-34
-96,21,5,43,47,-67,-49,-55,-50,-7
5,48,-67,12,0,-99,-79,-37,-22,5
42,31,-175,-23,-19,23,-21,-23,-54,-13
91,34,-99,-17,-8,22,-48,-68,-73,14
135,55,-3,-22,-34,-43,-86,-141,-51,139
62,0,-8,-33,-16,-10,-83,-217,-85,127
0,-57,-41,-95,-97,-19,-3,32,95,103
7,-38,-41,-95,-125,-43,7,207,302,163
6,-51,-67,-77,-94,-48,-98,66,356,280
-4,-103,-106,-126,-130,-149,-161,0,372,365
64,-84,-105,-131,-143,-206,-170,6,273,336
74,-56,-85,-55,-56,-94,-61,38,48,231
-102,-77,-107,11,33,22,26,68,-160,-49
-221,-83,18,77,109,100,94,103,-169,-278
-127,-121,13,54,111,171,170,177,31,-201
-9,-93,19,59,84,67,52,94,74,-61
67,90,181,169,101,-102,-142,-142,-112,-123
85,145,218,177,82,-266,-242,-224,-160,-203
32,24,58,85,12,-346,-209,-12,84,-6
17,5,-28,32,-30,-231,-68,118,178,110
62,36,11,-4,-13,133,94,-13,-90,-24
154,63,32,10,20,316,159,-46,-252,-127
62,-35,-18,-21,41,260,99,-145,-349,-198
-12,-49,-20,0,62,225,9,-262,-370,-211
9,36,64,85,79,195,55,-163,-209,-152
103,140,115,109,1,-131,-57,16,54,-2
76,105,13,93,-33,-286,-158,25,153,-12
-7,8,8,26,-70,-268,-135,46,161,-36
-60,-52,11,-35,-127,-242,-110,105,161,-9
-121,-70,3,-29,-49,12,15,79,23,-132
-127,-71,-9,-58,-34,210,168,116,36,-82
-63,-38,0,-71,-51,173,168,158,101,6
-29,14,50,18,62,215,150,90,-36,-126
-76,29,114,114,180,172,137,67,-113,-231
-66,24,114,101,119,-5,77,131,-31,-172
-4,44,107,73,38,-150,-24,122,55,-25
58,76,92,37,-23,-241,-148,9,106,106
111,92,97,29,-24,-138,-153,-114,70,177
127,72,65,8,-13,2,-103,-104,81,215
-20,-39,-47,-41,7,186,121,86,112,81
-151,-109,-105,-75,48,432,345,166,-19,-201
-61,-44,-11,-31,40,240,158,64,-110,-183
11,-7,40,23,30,49,30,5,-127,-65
26,5,51,79,54,-41,-20,-4,-129,-91
81,38,3,110,35,-111,-71,-32,-112,-58
94,42,26,99,29,-93,-46,-59,-120,-36
64,12,74,77,35,-57,-10,-136,-153,-23
33,-31,43,52,37,-44,-39,-237,-194,-7
32,-77,-7,18,25,13,-5,-235,-159,33
53,-48,9,29,18,-32,-36,-180,-57,99
27,-25,10,-5,-9,-26,-27,-99,-5,47
-82,-89,-82,-99,-20,168,135,50,17,-138
-103,-103,-140,-100,-4,161,151,201,117,-117
-21,-46,-82,-77,-32,75,37,177,169,86
53,-11,-33,-75,-79,26,16,125,227,206
74,22,-1,-49,-74,-28,-19,27,240,213
65,1,-59,-92,-105,-97,-75,-83,220,254
24,-44,-113,-127,-145,-93,2,20,154,217
-29,41,12,27,-48,-89,50,124,-39,-80
0,115,123,111,38,-74,-17,37,-15,-106
-25,86,94,85,74,57,61,32,-20,-133
-58,42,16,62,89,127,101,38,-84,-131
-38,34,23,97,160,116,59,-26,-139,-151
9,41,114,126,197,49,-12,-135,-175,-188
38,27,139,139,142,-94,-103,-161,-148,-148
91,55,125,85,20,-240,-205,-79,-26,1
112,-6,6,-72,-126,-132,-5,176,179,130
-72,-130,-80,-113,-52,143,155,19,-11,7
-116,-156,-165,-132,-58,66,92,-7,53,165
-23,-84,-171,-111,-113,-123,19,126,221,402
-11,2,-2,-18,-42,-103,-1,37,112,346
-3,74,116,55,9,-19,-28,-88,10,168
71,138,141,92,41,21,-69,-218,-99,0
43,87,104,84,110,99,-120,-478,-403,-308
-8,9,54,63,135,273,-75,-587,-551,-429
35,-22,18,31,59,238,27,-381,-328,-207
53,-61,-4,9,-5,78,92,-31,-86,-41
38,-75,-46,-69,-101,-64,130,327,161,40
-26,-105,-133,-132,-155,-164,48,385,279,70
-149,-124,-195,-116,-95,-133,2,298,186,-12
-98,7,-30,-26,-52,-110,-70,46,-22,-143
18,81,41,9,-83,-204,-173,-87,37,-106
17,14,-37,-54,-137,-147,-72,71,204,2
26,1,-55,-61,-84,80,98,259,191,58
-5,37,34,24,3,59,97,344,147,62
-103,7,40,53,56,45,49,227,9,-48
-126,-13,12,40,87,68,23,92,-30,-73
-102,-12,-8,37,98,102,23,40,15,-10
-16,-3,-35,-8,19,69,3,24,96,69
114,36,-38,-17,-30,-48,-8,84,138,89
172,41,-66,5,0,-68,15,103,94,99
88,-2,-110,-20,5,-34,66,101,50,71
-28,-46,-97,-7,18,25,57,28,12,-34
-72,-66,-140,4,46,127,99,0,-1,-103
11,-11,-59,6,42,140,136,22,13,-54
130,57,15,20,37,-3,22,-37,0,44
77,60,48,61,58,-146,-135,-98,-76,44
-60,18,33,49,30,-230,-179,-94,-109,17
10,33,11,15,-27,-245,-206,-146,-62,169
116,31,-39,-34,-39,-21,-79,-132,-46,282
49,24,-9,-16,37,198,5,-212,-168,273
14,32,12,21,57,123,-30,-194,-112,291
-21,-58,-75,-44,22,176,134,76,80,213
-54,-128,-136,-94,22,203,200,123,67,-25
-35,-73,-100,-58,31,100,109,15,-44,-218
-46,-22,-68,-41,24,54,41,-36,-140,-283
-79,7,-34,-21,14,6,19,27,-88,-237
-82,-1,-101,-67,-68,-91,38,221,183,-23
-96,-14,-60,-44,-58,-85,75,262,252,27
-112,28,57,33,18,-50,29,123,144,2
-132,35,82,53,33,-106,-121,-20,119,102
-141,2,22,-14,-19,-127,-125,23,249,228
-112,27,15,-37,-43,-91,-33,95,259,249
-109,96,87,43,43,-44,-75,-85,-77,-13
-109,60,82,74,109,84,-1,-174,-396,-348
103,46,27,-1,41,60,34,-65,-291,-210
315,67,1,-43,-22,-7,-1,2,-126,15
304,46,8,-36,-42,-44,-44,-37,-114,58
192,60,21,-8,-29,-90,-68,-24,-113,-1
87,88,44,12,-14,-136,-80,28,-69,-63
61,76,65,23,-2,-109,-33,48,-31,-55
21,-18,8,-4,22,-8,50,26,7,-50
-129,-116,-142,-69,36,131,163,68,97,-94
-124,-27,-134,-39,46,90,63,55,59,-94
2,3,-18,-27,41,122,15,5,-7,-24
-1,-19,38,17,73,116,36,7,-1,50
-152,-99,16,-2,40,52,115,111,57,45
-165,-72,24,-4,31,7,96,92,41,56
-79,-1,59,33,56,-28,9,-21,-60,89
-63,21,65,50,63,-48,-50,-53,-75,53
-74,8,51,33,48,-22,-42,39,27,-14
-31,1,20,-1,39,88,26,70,11,-76
81,25,-8,-36,1,59,-16,10,-86,-133
153,20,-49,-91,-66,-57,-92,-54,-115,-123
158,30,-23,-92,-126,-189,-151,-78,-85,-47
96,39,22,-40,-93,-224,-179,-116,-67,-23
25,17,54,25,-35,-126,-61,-36,15,22
141,108,152,118,8,-245,-94,117,181,153
221,164,196,158,5,-429,-207,186,269,194
45,27,68,69,17,-219,-101,97,90,17
-84,-112,-57,-22,10,66,82,81,14,-6
-130,-188,-125,-81,-7,245,146,47,79,114
-40,-143,-100,-97,-62,187,37,-4,225,345
2,-103,-62,-45,-22,117,-22,-59,121,368
-29,-55,9,48,85,303,161,-35,-81,140
-72,-26,42,83,114,332,270,6,-189,-110
-87,28,77,124,130,213,108,-136,-385,-366
-108,31,34,137,133,130,-41,-271,-438,-385
-85,7,-16,111,113,90,-87,-299,-290,-198
27,-6,-41,51,47,4,-82,-192,-81,29
59,-67,-158,-45,-45,-49,5,69,131,120
8,-123,-198,-86,-85,-94,50,242,241,123
21,-67,-59,-29,-66,-150,-15,106,114,108
37,8,-5,21,-16,-111,-67,-43,-73,5
118,64,-65,34,1,-41,-54,-95,-136,-76
96,-16,-129,-22,2,51,93,33,-7,-95
-2,-15,31,35,101,140,161,80,42,-93
32,92,128,106,116,-22,-2,11,67,-59
3,55,22,69,39,-103,-81,30,91,12
-57,-58,-33,-34,-43,-23,-43,76,141,46
-79,-104,-30,-82,-83,44,30,160,260,64
-44,-63,9,-41,-47,9,-13,111,214,122
-10,1,67,5,-21,-55,-102,35,118,157
-24,24,74,0,-27,-35,-74,39,107,164
-30,13,26,-35,-48,-19,-42,-6,72,124
-52,-7,-14,-44,-52,-27,-87,-102,-30,-24
-39,-37,8,-46,-38,4,-62,-96,-81,-164
-18,-85,12,-46,-9,37,-16,-62,-61,-231
79,-54,51,0,27,-28,-122,-210,-117,-131
186,7,94,32,25,-100,-172,-172,-146,46
173,-24,45,-15,-15,-111,-51,76,-82,137
74,-32,9,5,14,-32,40,138,-58,135
-73,-76,-12,27,82,127,82,36,-73,72
-70,-32,10,-4,-35,-89,-32,85,165,28
-26,-36,4,-24,-47,-115,-14,91,155,0
67,-10,31,-2,-37,-170,-96,33,124,54
144,65,117,76,4,-229,-179,-24,165,165
186,85,124,69,-23,-339,-214,-34,194,230
81,1,9,-23,-82,-231,-162,-151,-4,91
-52,-9,18,11,1,74,20,-248,-333,-197
-99,-58,-35,-33,-4,281,216,-75,-338,-274
-89,-97,-104,-104,-39,446,397,152,-110,-166
-14,-21,-23,-32,39,317,291,126,-6,-105
108,67,70,52,56,-33,16,46,22,-6
177,101,94,66,8,-213,-100,50,88,92
100,41,52,21,-4,-221,-100,66,58,-9
20,-50,-34,-44,1,-100,-95,-37,-59,-116
136,4,-8,-58,-58,-104,-98,-34,15,91
211,91,64,-8,-53,-115,-194,-167,6,251
-15,-23,-27,-42,33,322,77,-256,-147,-6
-296,-66,-32,45,124,401,250,-40,-138,-294
-223,-33,-13,52,88,218,148,-21,-41,-136
-150,12,20,47,54,108,98,40,-25,-87
-192,-29,-25,15,14,99,161,240,29,-118
-211,-59,-51,-6,13,108,174,284,82,-112
-160,-11,-21,19,16,45,96,189,77,-106
-23,52,-15,35,-7,-49,-2,70,62,-100
128,91,-24,10,-38,-79,-74,-25,25,-46
168,74,-19,-4,-73,-104,-122,-31,68,61
97,19,-46,-34,-62,-52,-105,-64,82,120
96,36,-19,-6,-10,40,-46,-89,19,99
41,69,15,37,26,54,0,-12,-41,52
-95,25,-84,25,13,-16,4,97,5,55
-118,9,-169,14,1,-32,7,98,8,62
-62,34,-43,32,25,41,-3,7,-35,48
-43,55,47,69,67,93,-37,-67,-51,49
-15,60,41,69,57,54,-35,-66,-26,40
26,87,-16,18,-8,-23,-59,-18,11,78
12,80,3,33,8,-21,-107,-97,-67,29
16,16,-3,22,28,51,-41,-92,-117,-36
8,-21,-62,-11,27,97,50,-41,-132,-92
-94,-33,-95,-35,-12,38,36,-20,-72,-93
-103,-40,-62,-82,-85,-59,17,167,105,-4
-122,-100,-85,-106,-105,-71,82,371,239,52
128,-26,24,18,15,4,-56,27,42,18
147,0,76,65,63,48,-102,-156,-54,-10
136,-5,26,40,42,51,-86,-167,-63,7
130,-16,17,18,18,24,-42,-47,-48,11
77,6,46,6,-8,-7,13,52,-18,52
-57,-27,29,0,-1,9,21,29,11,37
-122,-65,12,11,44,21,-50,-119,-36,14
-46,-3,42,12,31,8,-94,-207,-103,53
32,126,131,92,61,5,-157,-301,-242,9
34,126,124,88,87,49,-145,-320,-275,-71
72,55,46,-2,1,-3,-91,-152,-61,22
124,8,-42,-110,-128,-104,-4,135,236,211
149,-53,-106,-168,-195,-105,29,253,383,264
101,-77,-77,-124,-134,-70,12,166,354,207
81,-56,-44,-78,-89,-37,-3,39,202,190
12,-78,-120,-54,-57,7,18,12,148,202
-76,-88,-140,-39,-42,37,128,213,138,-3
-74,-68,8,-4,3,36,158,389,14,-127
-112,-46,92,60,79,44,181,407,-72,-161
-98,26,108,96,98,49,127,249,-57,-168
-29,41,30,53,39,34,7,103,-6,-109
-41,-20,16,-23,-12,35,53,172,62,-104
31,-20,20,-46,-26,18,63,166,51,-94
97,32,47,-22,-15,-53,-26,70,-27,-64
37,23,-7,-26,-3,-51,-35,37,-35,-73
42,3,-47,-43,-23,-62,-43,-7,-31,-14
111,34,50,-1,-13,-205,-152,-64,-23,86
81,87,101,53,2,-249,-164,-37,-16,77
35,91,97,45,-8,-255,-148,-12,3,14
-60,10,21,-10,0,-32,-80,-111,-92,-148
-134,-74,-47,-40,64,386,145,-146,-184,-220
-109,-50,-18,-1,92,345,189,-66,-129,-185
-119,-58,-9,2,73,163,89,-31,-88,-136
-51,-61,-5,9,44,37,-6,-48,-19,-20
-3,-55,-20,-6,-22,-36,-36,5,102,99
-63,-76,-50,-33,-11,-3,-11,38,126,81
-66,-52,-50,-25,2,-27,-59,-63,24,57
-82,21,-93,1,-2,-91,-40,-55,6,71
-119,24,-135,25,8,-101,-18,-40,-52,35
-98,-7,-89,-8,-18,-109,-38,-50,-54,59
-78,-16,-45,-31,-21,37,55,-14,3,38
-53,-29,-26,-30,14,181,138,29,46,-35
16,-15,4,9,35,57,36,-26,-9,-108
231,11,-2,13,7,-141,-80,-39,-27,-63
320,-1,-18,-31,-58,-302,-124,28,62,45
283,13,2,-53,-111,-386,-225,-36,152,191
107,-91,-74,-84,-12,52,-30,-171,-73,11
-19,-140,-63,-51,98,431,170,-205,-291,-176
-8,-54,48,24,74,220,70,-138,-123,-24
-86,-48,60,32,32,37,-24,-87,-4,22
-207,-103,-14,-4,28,85,2,-60,57,-38
-244,-103,-58,-41,-13,72,85,106,173,-80
-210,1,22,25,16,3,88,137,62,-233
-136,52,67,74,36,-97,-66,-42,-104,-250
26,16,-24,5,-15,-100,-72,-69,-93,-147
204,24,-119,-35,-56,-19,18,8,-1,-13
274,60,-91,-12,-65,-55,-18,-18,7,71
223,25,-46,-17,-25,-43,-41,-79,-65,43
171,-8,-24,-31,-25,125,123,40,0,38
59,-7,-18,-27,-43,180,186,134,90,23
-100,54,53,53,8,66,66,20,-17,-118
-201,43,79,94,45,-27,-46,-63,-4,-149
-91,-22,23,25,-19,-169,-125,-12,238,125
115,-11,-19,-57,-121,-355,-259,-60,320,418
234,37,-15,-64,-152,-458,-406,-223,111,409
162,46,30,-2,-48,-186,-195,-104,-138,24
13,1,24,26,77,322,189,1,-252,-258
-125,-26,17,44,129,482,296,-44,-304,-368
-248,-45,23,62,111,405,320,37,-202,-356
-326,-45,41,117,141,319,275,57,-180,-395
-157,-7,28,90,95,100,101,-10,-132,-251
1,-43,-34,-2,-37,-71,83,147,114,48
78,-60,-26,7,-65,-164,20,182,197,204
44,-48,17,60,9,-100,-44,-1,76,164
12,2,66,90,71,56,-8,-158,-55,60
41,-3,27,33,4,79,22,-108,17,75
-23,-72,-57,-30,-25,151,91,-83,-9,27
-82,-49,-19,3,-8,108,50,-137,-138,-143
-118,-2,26,42,-11,-40,-2,-21,-94,-199
-150,-28,-2,6,-50,-105,18,238,93,-77
-125,-65,-19,-24,-95,-170,36,363,326,177
-71,-56,7,-7,-88,-195,-1,258,346,232
118,62,48,13,-76,-193,-142,41,259,259
279,109,40,8,-66,-92,-183,-94,184,306
200,67,41,64,21,-21,-165,-192,-12,186
123,43,31,79,67,-75,-167,-244,-299,-15
175,47,-46,16,29,-62,-72,-140,-351,-96
145,-5,-160,-38,-33,-78,-33,17,-148,-36
-28,-143,-257,-60,10,103,9,-38,-97,-27
-86,-91,-175,-26,51,288,99,-106,-100,-87
-38,-3,-28,-3,-8,55,63,67,104,-58
-69,2,37,16,9,66,152,204,137,-107
-68,32,32,60,50,149,185,191,26,-167
-41,106,68,106,65,55,72,81,-87,-196
-26,95,119,70,65,8,-20,-61,-171,-190
19,41,67,9,35,26,-36,-94,-124,-68
77,65,51,3,-6,2,-25,-45,31,115
115,86,54,26,2,-25,-37,-91,69,205
30,11,-30,-31,-8,70,18,-119,35,201
-94,-64,-76,-78,-7,176,54,-100,-8,116
-119,7,33,-18,-7,102,-18,-131,-21,83
-87,80,99,28,-5,-9,-107,-150,-16,-10
-74,53,49,-16,-41,-118,-115,-63,83,-108
-29,78,66,-12,-67,-186,-88,55,246,-47
-61,102,133,47,-8,-30,81,147,190,-85
-73,36,73,-9,-50,57,227,338,142,6
57,47,48,-52,-88,-58,117,399,147,116
122,65,88,7,-43,-17,49,281,-1,47
57,73,126,84,23,-22,-23,76,-220,-158
-43,-4,39,41,7,-37,-2,14,-258,-240
-46,-43,-46,-32,-44,-125,-42,31,-118,-120
36,31,-15,0,-12,-128,-101,-8,-36,-84
102,57,7,35,29,-23,-96,-82,-58,-116
-87,-25,-120,-2,9,64,2,-40,-89,-113
-205,-26,-75,-30,-9,8,-34,-76,-138,-96
-72,74,52,13,-15,-181,-197,-161,-125,16
58,102,68,10,-81,-338,-262,-158,-30,159
-61,-59,-107,-102,-94,0,-34,-103,20,123
-89,-152,-157,-116,-70,283,210,57,166,102
18,-99,-70,-12,6,386,311,123,120,12
-44,-79,-8,57,73,220,160,42,9,-103
-76,-74,-27,48,99,112,34,0,37,-112
41,-2,10,68,98,75,-24,-42,72,16
119,22,-12,90,72,-14,-107,-150,27,139
49,-27,-23,60,54,-35,-62,-112,-36,76
2,-29,8,26,0,-78,-39,0,-77,-11
-52,-40,-4,20,-3,28,16,-7,-198,-127
-116,-89,-51,-16,-9,77,25,-22,-216,-188
-90,-90,-64,-56,-39,38,48,49,-103,-148
-71,-46,-23,-14,-1,-24,-15,-6,-51,-71
-105,-21,30,54,100,37,-53,-132,-85,-35
-90,3,49,54,122,117,3,-137,-92,-39
-33,7,42,11,54,27,11,-92,-52,-25
22,27,40,-24,-28,-125,-72,-78,-34,17
70,39,63,-11,-53,-207,-161,-93,0,72
94,16,40,-6,-58,-262,-169,-15,124,140
91,0,26,-18,-93,-257,-131,95,224,169
64,21,74,23,-57,-243,-146,70,126,110
-18,-27,32,10,-26,-188,-89,48,100,42
33,-16,33,33,-17,-271,-159,34,215,182
-7,-38,34,58,50,-76,-102,-65,196,224
-168,-126,-22,50,124,346,144,-71,103,155
101,-29,-30,14,48,169,154,50,142,61
112,1,-6,-15,57,196,158,6,11,-36
43,4,0,-29,66,283,178,-99,-174,-121
23,-20,-4,-38,12,226,126,-140,-152,-5
-6,-34,-19,-31,-24,90,86,-20,-16,53
75,-16,-53,-78,-105,-36,59,149,175,133
175,40,-81,-61,-109,-79,-29,36,152,173
155,107,-134,-1,-38,-41,-76,-114,-11,42
105,93,-144,0,-11,-23,-59,-124,-39,10
39,86,-40,5,10,14,6,-40,-59,-62
30,93,49,30,14,24,0,-26,-112,-99
45,53,15,-3,-25,-9,-11,5,-51,-34
-36,-49,-32,-5,2,26,-11,-106,-165,-167
-104,-49,37,35,18,29,-12,-124,-170,-160
-56,-23,64,32,12,-15,-43,-111,-96,-38
7,14,68,16,5,-31,-40,-75,-66,-4
49,31,54,2,-11,-32,-20,0,-8,22
-6,1,27,-17,-29,-23,11,74,92,65
-97,-20,-1,-25,-22,-13,40,85,114,85
-140,-14,-4,-16,8,3,38,12,61,57
-79,67,26,17,20,9,-44,-144,15,81
15,103,30,23,9,5,-123,-274,-3,125
11,75,32,37,36,-3,-165,-360,-7,113
23,85,57,73,87,1,-134,-342,-51,5
82,45,-85,16,8,-29,12,-47,117,-21
-70,-103,-239,-76,-59,7,142,260,288,-60
-197,-215,-201,-118,-76,32,171,313,216,-141
-106,-124,-69,-69,-82,-17,137,290,145,-87
98,-47,-35,-78,-135,-144,79,352,327,184
135,-52,-49,-48,-75,-83,89,279,342,329
18,-6,46,46,33,24,99,106,95,166
-47,15,108,76,66,-18,72,101,-20,-32
117,137,174,96,39,-192,-109,-18,-139,-70
209,213,194,110,4,-287,-192,-91,-205,-52
45,127,137,74,19,-221,-102,-13,-177,-175
-100,-12,20,-15,27,84,65,-25,-174,-262
-116,-103,-56,-24,72,423,266,-55,-189,-268
-25,-62,-84,39,69,223,182,1,-134,-111
-51,-24,-44,78,59,96,130,43,-163,-126
-163,-37,61,114,90,128,177,59,-210,-217
-225,-64,64,95,54,73,100,-32,-180,-174
-143,-48,27,59,13,-14,-9,-113,-124,-74
-74,-38,19,33,10,45,-1,-151,-71,-3
-47,-30,-24,14,5,32,-28,-182,-45,40
-87,-34,-83,-4,5,16,-53,-197,-61,2
-157,-74,-46,-8,31,90,7,-54,-12,-72
-145,-52,-24,-11,23,74,48,115,46,-68
-25,1,21,6,51,63,31,89,-8,-58
51,17,24,13,50,29,-39,-23,-117,-49
124,20,10,-5,-1,-123,-123,-21,-79,8
204,33,-20,-65,-96,-105,-3,148,49,93
242,76,1,-38,-72,-23,40,119,35,128
191,66,2,-2,-22,-19,-24,38,56,85
155,72,-73,2,-25,-87,-108,-23,89,44
174,80,-43,-6,-52,-169,-139,-21,119,90
159,90,27,16,-43,-215,-156,-22,137,160
111,84,42,69,-25,-218,-158,-54,108,170
45,36,-64,59,-10,-161,-115,-25,79,107
8,-14,-158,6,-11,-43,-36,31,114,81
-30,-44,-172,-25,-18,25,-35,-37,54,-9
-71,-109,-184,-83,-45,126,64,-39,5,-115
-45,-140,-145,-118,-62,207,171,27,61,-39
57,-42,2,-32,-19,55,59,35,163,174
54,-21,19,-29,-14,-40,-28,25,195,292
-7,-12,1,-34,-14,35,-19,-9,92,218
-43,27,41,4,30,131,45,5,-71,17
-56,72,104,82,90,93,47,0,-242,-235
-98,53,95,90,86,51,80,-1,-306,-436
-87,34,70,71,61,86,144,51,-214,-334
-18,69,105,89,69,46,66,-13,-130,-104
18,61,74,53,33,-36,-64,-121,-101,36
10,22,39,18,26,42,-66,-187,-79,80
-23,1,32,8,42,73,-5,-145,27,59
11,29,53,21,29,-17,-39,-143,36,0
23,11,-36,-16,-24,-90,-34,-44,62,-15
-61,-57,-159,-26,-16,-45,66,141,113,-44
-102,-14,-40,35,36,-16,96,171,58,-87
-42,25,81,45,46,-29,28,42,-23,-32
46,18,49,18,40,36,0,-78,-87,51
107,3,-7,-33,18,125,43,-51,-36,87
118,18,-5,-40,-3,82,56,27,-15,41
49,66,67,24,47,52,20,-36,-152,-102
-8,46,69,21,43,56,39,-81,-143,-155
-19,6,1,-19,0,7,66,-11,-19,-74
-5,30,-10,-16,-33,-112,50,92,43,8
-1,44,-5,-26,-63,-175,31,140,60,29
-14,31,-83,-25,-25,-102,-15,93,55,45
-23,59,-26,34,33,-42,-29,84,74,34
-91,14,33,28,46,38,2,49,134,3
-127,-13,13,7,40,88,-21,-21,203,43
-89,-10,-18,-55,-25,-2,-79,-57,224,152
-136,-10,-24,-54,-7,13,5,29,108,97
-175,-14,-2,-2,57,41,26,11,-74,-18
-96,27,27,1,27,45,42,-32,-176,-108
-6,44,40,-9,21,108,26,-150,-234,-173
-18,61,41,2,46,77,-57,-198,-183,-144
16,83,23,-27,-32,-71,-35,98,186,88
34,9,-36,-76,-102,-119,66,366,411,200
150,-15,-52,-80,-127,-165,46,266,278,215
262,53,19,-21,-105,-217,-79,-1,39,200
91,5,8,-4,-9,42,100,-51,-131,-23
-4,27,4,5,53,161,161,-40,-132,-55
26,114,91,74,70,-29,-58,-34,-60,22
0,136,133,87,64,0,-63,-15,-125,-83
-18,96,113,70,63,42,-27,-87,-188,-133
-77,-11,21,-3,19,-24,-65,-80,-49,-37
-53,-61,-49,-83,-86,-146,-105,-17,146,181
39,-77,-113,-133,-106,20,-14,-41,100,215
16,-82,-120,-113,-41,164,143,9,0,92
-44,9,4,-6,24,58,73,25,-59,-37
-59,74,75,54,63,156,64,-63,-144,-131
-91,1,34,59,91,263,117,-34,-85,-127
-44,15,30,73,67,16,-28,-35,22,-18
5,30,39,13,-12,-91,-24,20,55,18
23,21,15,-17,-42,-77,-43,-10,11,-14
4,-38,-40,-49,-69,-24,-34,3,28,-20
-26,-99,-72,-62,-62,121,78,82,15,-12
51,-44,-30,-31,-56,146,100,79,-25,67
97,11,24,6,-57,11,4,19,-5,94
-26,-20,23,30,-19,-20,-35,-37,10,33
-148,-34,24,57,30,22,20,-23,-53,-86
-141,28,76,119,88,51,13,-143,-207,-103
-123,70,117,152,133,68,-29,-304,-296,-114
-96,92,91,108,103,68,-53,-369,-273,-110
-6,104,49,49,37,27,-47,-274,-129,-82
76,67,29,14,-2,-17,-34,-146,-15,2
97,36,5,-45,-71,-113,-11,83,94,123
86,51,23,-24,-69,-118,29,170,97,82
56,-1,23,3,-32,-37,62,203,106,38
-54,-117,-42,-36,-40,45,142,410,251,82
-63,-119,-62,-32,-41,28,119,412,302,80
30,-60,-38,-20,-51,-43,-43,191,267,56
127,-26,-72,-49,-78,-128,-204,-15,264,168
158,-68,-166,-105,-109,-100,-204,-69,260,308
34,-98,-107,-42,-12,83,-58,-95,-35,82
-43,-31,22,123,153,172,7,-114,-357,-252
-29,-65,17,85,102,91,40,39,-272,-238
-6,-126,-79,-47,-52,-36,43,228,-25,-38
-6,-77,-27,-17,-50,-63,10,208,50,18
-4,-17,39,56,26,-39,-49,15,-70,-23
-69,-53,-17,36,46,11,-67,-102,-78,15
-167,-96,-40,1,17,-1,-50,-14,95,102
-152,-42,-3,-4,-24,-88,-46,127,238,94
-101,52,50,39,25,-138,-63,120,96,-125
19,78,56,29,40,-187,-107,61,-10,-142
115,93,47,19,15,-145,-108,21,0,-90
154,107,11,30,9,-92,-140,-77,-26,-43
45,-84,-166,-89,-26,268,86,-104,-82,-33
-8,-146,-266,-94,0,420,216,-76,-124,-82
112,14,-87,7,4,123,59,-60,-77,-37
20,-23,-4,-4,-15,44,38,-1,21,24
-54,-54,-11,-20,-34,-16,1,5,108,64
-43,-12,17,-18,-40,-89,-60,-40,46,9
8,11,31,-12,-36,-97,-92,-119,-46,7
-12,12,-10,-54,-63,30,9,-107,-74,23
-50,31,8,-11,-34,105,42,-117,-100,15
-73,13,29,33,18,48,54,-56,-52,-53
41,12,44,80,49,-12,-16,-75,19,3
180,25,53,69,33,-75,-102,-167,49,144
154,10,33,53,7,-121,-94,-120,0,138
44,-7,30,77,1,-142,13,107,23,67
16,-4,22,73,-12,-127,40,141,65,58
0,-7,-22,38,-22,-7,58,112,196,79
-41,-17,-59,-7,-30,37,12,8,221,78
-42,-38,-58,-42,-37,16,-28,-121,63,12
-113,-49,-23,22,42,46,141,107,-65,-229
-151,-37,13,80,86,1,152,194,-147,-287
-15,46,45,61,45,-155,-90,-10,-196,-146
60,62,30,46,43,-27,-92,-109,-223,-154
39,4,-6,9,33,126,22,0,-73,-59
51,-9,-15,-19,11,111,71,64,30,77
4,-24,-20,-18,52,100,35,3,-65,27
-27,-11,8,5,64,29,-25,-1,-57,0
-18,20,34,18,50,-41,-75,-5,-37,-54
-21,58,37,40,58,-50,-127,-84,-99,-207
-40,10,-32,-16,2,-38,-72,-17,-21,-198
-41,-34,-65,-84,-39,61,4,0,61,-29
-81,-51,-42,-62,-34,85,0,-33,57,5
-42,14,3,-25,-50,-69,-58,-9,38,5
91,90,28,-24,-70,-199,-158,-79,-26,37
147,102,5,-21,-37,-97,-136,-120,-87,42
81,68,4,-15,-11,47,53,69,-17,8
-12,20,16,-1,11,-12,58,125,57,-17
20,16,3,-37,-26,-115,-92,28,214,196
34,11,-44,-54,-38,-34,-36,46,253,252
11,8,-132,-41,-23,30,10,42,113,117
-17,5,-146,-22,-16,39,0,-27,-56,21
-44,11,-43,21,28,59,42,-14,-175,-79
-61,-12,10,-1,14,101,82,0,-200,-135
-50,-31,-24,-44,0,156,95,-14,-155,-108
-61,-58,-59,-62,-4,153,85,15,-16,-15
-123,-65,-33,-18,16,82,39,-7,33,-24
-75,18,48,55,42,10,-79,-153,-55,-10
-6,71,58,61,25,-21,-123,-229,-113,78
-33,79,62,71,62,12,-73,-211,-163,17
-55,47,79,75,79,39,-58,-177,-85,-16
-71,30,65,80,73,57,-48,-175,-8,-4
-38,30,21,49,44,37,-24,-122,25,3
107,48,-52,37,31,-17,-30,-47,26,7
191,11,-187,-56,-76,-112,-9,128,173,124
180,-12,-167,-130,-144,-123,58,241,266,178
137,-9,-93,-98,-109,-107,1,134,119,73
66,-16,-18,-43,-44,-94,3,171,61,-19
51,-30,25,-3,25,34,115,262,60,-11
26,-8,66,34,72,62,80,188,-2,-31
-9,49,95,38,67,13,-20,22,-102,-131
-52,38,26,-17,27,51,-46,-106,-128,-121
-40,9,-120,-54,-6,96,21,-83,-46,-47
33,37,-85,-40,-16,33,35,-28,-40,-56
52,31,41,-30,-18,9,50,3,-52,-83
26,54,98,-1,-9,1,18,-73,-84,-139
-47,7,79,22,21,-44,-21,-122,-69,-161
-39,14,54,9,-3,-127,-71,-99,-45,-59
-73,8,64,14,-15,-84,-25,-61,-80,-12
-154,-21,64,11,-4,3,37,-29,-62,29
-169,-33,33,-9,1,86,103,113,30,27
-110,-35,20,-3,16,88,85,176,147,66
-8,-9,-5,-3,11,84,20,58,191,158
66,28,-51,-5,-1,33,-12,-3,166,144
-27,-11,-17,-36,-4,29,42,12,71,-7
-113,-45,-13,-85,-33,68,84,-32,-55,-63
-124,-33,-16,-76,-44,21,49,-72,-60,-59
-134,-53,-51,-92,-61,-29,40,1,56,-14
-41,-29,-105,-143,-114,-85,-8,106,135,95
132,43,-165,-120,-136,-140,-111,63,96,186
102,31,-65,-22,-38,-116,-86,20,10,70
16,-13,19,56,43,-106,-28,40,6,-11
36,11,35,90,79,-155,-52,71,30,-6
132,57,62,108,97,-133,-60,101,53,57
165,62,52,72,104,54,43,88,45,70
207,107,82,57,68,7,-37,-31,-17,81
83,49,65,18,32,57,-51,-136,-122,37
-62,-45,-17,-52,20,189,70,-105,-118,-15
-78,-40,-17,-25,36,180,148,9,-95,-89
-29,7,26,10,7,-26,32,6,-70,-63
1,-10,-9,-37,-58,-175,-98,0,37,75
38,22,10,-13,-30,-194,-150,-38,14,104
46,19,28,10,40,105,12,-83,-118,5
-52,-81,-76,-10,65,350,204,-24,-71,-87
-77,-101,-106,8,27,91,50,-20,62,-45
-32,-62,9,29,-6,-95,-96,-41,142,79
52,-11,37,9,-19,-98,-80,-19,102,144
32,-80,-68,-63,-38,78,85,60,11,82
-118,-121,-70,-46,4,212,198,77,-161,-142
-129,-49,15,34,58,92,79,-40,-283,-200
-51,-33,31,13,6,17,46,-74,-190,-36
39,-19,3,-20,-39,-21,43,-12,-5,137
70,14,-38,11,-26,-71,3,20,75,151
28,12,28,29,-10,-74,4,25,91,99
-28,4,87,28,1,-52,21,14,40,-5
-116,-25,87,27,15,13,50,-7,-38,-131
-199,-61,62,24,49,113,72,-35,-107,-194
-129,-29,59,31,60,117,36,-48,-123,-144
-32,-27,50,8,7,17,-27,0,63,6
-61,-46,21,-7,-40,-68,-73,42,326,142
-60,-41,3,-39,-85,-142,-105,16,512,278
54,-29,-29,-77,-124,-175,-162,-108,417,384
175,29,-16,-65,-121,-185,-161,-104,104,282
97,81,100,75,42,-42,-28,-53,-262,-104
-87,33,135,159,171,95,33,-173,-479,-359
-202,-34,90,131,158,106,41,-139,-422,-460
-108,53,113,88,67,6,42,61,-278,-476
-13,105,104,26,-14,-21,60,131,-164,-324
-32,66,31,-22,-34,-96,-17,34,-82,-123
-56,15,-22,-14,-27,-76,-19,-27,-42,0
12,52,-1,11,-18,23,1,-63,-74,35
152,89,16,16,-29,15,-15,-52,-14,82
134,11,-56,-56,-53,8,4,-1,76,106
68,-28,-89,-43,9,82,28,-9,39,51
0,-46,-63,15,64,79,32,7,26,-14
-22,-21,-24,36,47,50,63,52,73,7
31,35,4,16,-12,-19,33,58,120,80
46,21,0,-10,-68,-119,-27,120,240,148
10,-20,-20,-9,-81,-185,-67,175,358,210
-5,-23,-16,-1,-82,-225,-94,99,296,183
35,9,-7,3,-75,-198,-77,1,151,113
65,29,8,20,-41,-138,-102,-81,73,119
55,38,25,67,19,35,-18,-93,17,105
94,94,64,107,46,97,14,-134,-74,87
121,126,116,93,23,-29,-82,-208,-129,102
49,78,34,25,3,30,14,-107,-65,31
-77,-54,-56,-60,-23,153,160,118,-5,-110
-48,-53,-17,-27,-3,52,80,164,30,-49
19,24,66,65,62,-20,-57,-8,-100,-22
-19,13,50,48,53,96,82,59,-123,-80
-46,13,-26,-7,-18,139,209,228,3,-67
-65,19,-12,10,4,48,138,150,-27,-51
-135,-28,32,36,53,91,130,37,-99,-150
-121,-30,41,39,57,66,91,-6,-77,-156
-117,-40,10,-11,2,-37,49,60,29,-81
-83,-8,34,-10,-8,-72,20,55,85,-13
-53,-11,22,-33,-35,-32,7,7,94,28
40,13,0,-56,-63,-34,-39,-104,81,121
196,85,12,-41,-81,-194,-126,-109,130,249
215,108,33,1,-68,-307,-160,-48,62,196
0,-26,-27,-9,-5,-95,1,-53,-57,45
-172,-151,-102,-46,57,298,254,13,-72,-86
31,-48,-73,-37,17,392,268,142,69,39
257,104,12,8,-5,136,70,36,94,243
143,97,29,28,9,10,18,1,46,127
-68,16,18,45,68,47,16,-69,-127,-134
-141,34,52,74,90,78,-23,-242,-329,-206
-128,95,83,75,70,45,-37,-234,-288,-132
-62,102,41,23,14,-11,-71,-167,-136,22
-38,67,-10,6,0,10,-47,-126,28,124
-83,16,-26,-1,-10,-3,-23,27,237,129
-29,25,-43,-32,-73,-95,-46,236,380,178
124,31,-122,-56,-89,-101,-4,343,346,204
124,0,-160,6,14,44,123,346,138,-106
10,-31,-81,36,33,82,82,177,-31,-257
-24,-35,-25,12,25,7,-29,20,-86,-165
-94,-22,46,56,81,25,1,16,-222,-267
-61,9,79,83,88,14,-8,-22,-278,-240
-43,11,28,42,47,31,-21,-72,-154,-90
-82,-16,-86,19,30,91,-1,-96,-69,-63
-81,2,-73,38,41,62,-75,-156,-58,-81
-83,-24,-87,-4,13,87,-29,-107,-35,-32
-58,-47,-49,-26,-23,29,14,24,88,52
-78,-33,2,16,19,32,60,69,91,-7
-12,-17,21,47,28,17,49,90,-87,-69
107,6,34,36,6,-12,-20,20,-111,9
111,3,-3,-21,-47,-39,-70,-70,24,69
44,-28,-66,-81,-73,-38,-46,-42,199,91
1,-42,-44,-54,-60,-48,-48,-15,78,81
36,14,32,34,-3,-42,-100,-127,-67,11
36,11,37,48,18,3,-70,-119,-62,-33
28,14,36,26,-2,-8,-36,16,18,0
48,10,7,-9,-31,-5,-15,82,34,55
51,19,19,34,13,30,-20,19,-59,23
66,51,67,69,21,-43,-19,54,-42,-24
88,79,94,68,4,-184,-107,63,23,-6
132,111,106,72,-20,-316,-244,-51,20,30
210,115,74,44,-53,-287,-240,-42,51,84
188,22,18,14,9,22,-48,-40,-34,28
61,41,68,49,33,46,-26,-89,-128,-39
-85,20,30,-10,-67,9,-13,-64,-79,-27
-287,-101,-74,-88,-78,258,159,48,2,-62
-353,-119,-75,-45,23,431,251,143,15,-130
-320,-124,-52,-15,40,262,167,180,69,-110
-118,-84,-57,-36,-21,79,84,175,133,8
190,-37,-47,-63,-66,-3,-13,98,144,132
254,-39,-40,-29,-38,-1,-32,59,116,126
131,-10,-14,-7,-3,-8,-22,39,49,10
48,4,-6,-8,-9,-6,-41,-5,-12,-15
42,23,-22,-28,-15,2,-48,-30,-24,32
69,21,-92,-60,-21,41,-11,-36,-60,68
97,12,-141,-76,-33,14,-17,-20,-55,93
62,17,-87,-85,-36,-31,-50,-53,-103,46
29,21,-12,-68,-1,-17,-59,-83,-164,-45
21,49,0,-66,-32,-53,-67,-69,-108,-16
0,70,0,-49,-34,-64,-97,-91,-61,14
-13,39,-18,-45,-29,-84,-84,-65,3,57
21,21,-9,-34,-52,-132,-78,10,74,91
71,41,4,-38,-64,-98,-34,40,95,90
49,32,-38,-23,-29,-66,39,77,106,-14
-22,-15,-52,-2,25,35,92,24,-32,-149
-22,7,-5,9,34,116,69,-4,-82,-113
-25,29,-12,5,35,125,78,1,-70,3
-24,38,-56,16,65,104,32,-69,-118,-62
-52,22,-16,27,71,37,-30,-87,-91,-193
-8,21,-2,-15,-9,-55,-58,-44,39,-86
11,12,-32,-14,-27,-38,-11,6,86,20
-16,-9,37,27,19,-36,28,66,186,53
46,-29,28,24,-7,-142,-52,76,339,218
74,-14,59,23,-41,-259,-114,21,291,301
198,69,77,1,-115,-441,-263,-121,235,394
135,35,5,-54,-117,-217,-95,-85,106,195
-33,-34,-26,-21,23,125,69,-109,-189,-170
-223,-122,-51,-1,120,368,191,-87,-359,-516
-240,-136,-58,-27,49,344,278,119,-205,-496
-96,-32,-8,20,-7,-18,82,129,-58,-205
-77,-6,-79,40,-4,-129,-33,40,-134,-136
-69,-22,-59,0,-25,-30,4,46,-144,-125
-66,-15,-59,-10,-29,107,38,25,-133,-108
-36,-16,-9,22,7,162,39,-25,-147,-78
108,36,48,39,-2,62,24,-26,-93,7
163,34,39,-3,-63,-41,38,146,115,120
107,-31,-9,-21,-43,47,78,173,192,233
62,-40,5,7,-4,125,44,20,65,179
-22,-34,43,64,53,172,102,-41,-124,-58
-107,2,88,113,106,178,84,-106,-275,-262
-89,49,106,98,74,72,-21,-179,-257,-244
-62,41,61,41,21,-26,-92,-147,-109,-109
-40,-13,12,-3,-11,-60,-56,-23,23,-8
53,12,29,14,0,-79,-58,20,86,79
123,18,55,30,29,-42,-31,22,73,121
51,-41,22,-2,0,-19,42,116,112,140
16,-30,22,-23,-11,-31,10,70,63,152
59,35,70,23,1,-62,-47,-21,-12,146
5,44,54,49,3,-78,-46,-66,-49,81
-58,-3,-57,-15,-33,-84,-24,-41,-13,14
-101,-78,-183,-31,-21,-5,27,-35,-10,-48
-19,12,-29,39,-8,-80,-47,-26,-23,-16
118,159,97,64,-52,-241,-154,-16,0,108
172,152,22,30,-62,-192,-86,58,91,247
87,126,53,72,15,-72,-19,-12,0,134
-42,57,59,20,8,30,37,-105,-151,-125
-107,3,12,-33,-39,35,50,-44,-64,-169
-148,-32,-20,-31,-39,29,45,22,92,-131
-153,-25,-14,-12,-14,99,81,86,144,-66
-135,-1,24,23,27,191,132,109,52,-29
-109,-2,19,17,37,160,102,62,-24,-6
-35,-20,-21,-30,-10,58,22,93,118,155
16,-43,-50,-58,-46,-74,-65,86,236,268
-102,-53,-32,0,12,-21,-30,32,81,63
-176,-40,-63,9,22,-14,8,29,0,-45
-146,-25,-67,-16,16,14,36,15,23,4
-105,-13,-42,-24,37,152,168,16,46,19
38,76,26,-7,10,45,84,-17,172,86
108,101,39,-13,-35,-101,-63,-48,267,189
104,64,25,-3,-55,-208,-170,-66,222,254
67,34,-44,1,-64,-246,-144,57,194,223
88,49,-33,-1,-69,-242,-131,52,29,127
48,-65,-23,-52,-52,-27,-29,-39,-77,84
-58,-134,-122,-47,38,335,179,-18,-176,-127
-43,-56,-78,14,94,276,171,70,-106,-190
0,11,32,-6,13,9,45,130,69,-70
56,21,16,-57,-64,-103,-25,127,163,66
178,93,54,-43,-56,-78,-40,27,18,61
142,80,89,33,46,45,56,18,-194,-176
15,-2,58,39,57,47,39,0,-188,-206
-32,-6,75,37,22,26,37,-13,-117,-166
-30,7,74,26,-3,92,78,-43,-123,-175
-49,0,50,10,-10,115,67,-74,-113,-151
-78,-26,57,34,15,93,44,-57,-77,-111
-21,-21,46,28,24,109,45,-36,-104,-75
118,-14,-18,-13,-14,48,13,-47,-100,34
168,-12,-25,-31,-47,-66,-40,-72,-36,86
90,-9,9,-2,-37,-145,-93,-76,-2,-256
15,41,75,58,-3,-269,-195,-132,-33,-770
5,45,73,49,-11,-293,-241,-148,-11,-917
-8,-12,-22,6,-16,-54,-91,-50,55,-890
-20,-45,-54,-29,-22,245,176,181,123,-858
-41,-77,-128,-87,-47,298,238,227,68,-806
9,-50,-52,-42,-25,71,25,50,-3,-735
84,2,19,17,-8,-87,-87,-8,32,-558
197,59,40,26,-29,-190,-166,-4,151,-92
244,40,-30,-44,-84,-207,-155,33,274,364
127,38,-28,-2,0,-33,-114,-66,84,405
-10,71,83,108,118,93,-86,-142,-159,238
-91,78,138,136,106,-10,-96,-160,-215,189
-169,44,97,92,65,11,-33,-146,-206,177
-287,-62,-5,6,63,149,65,-141,-162,175
-231,-68,-34,-37,26,203,80,-74,-17,287
-84,-40,-27,-54,-25,124,75,39,122,467
-113,-90,-54,-66,-10,55,83,121,155,478
-199,-114,-22,-18,26,-32,54,153,70,378
-124,-43,26,7,32,-96,55,194,53,324
38,45,62,22,25,-131,-14,137,163,380
7,23,45,23,42,-20,30,94,230,334
-53,-66,-12,11,77,106,118,36,153,246
-1,-55,-2,6,58,7,49,12,100,216
29,16,30,-1,10,-120,-41,12,35,227
-11,34,-61,-28,-9,-45,-8,9,-40,217
7,21,-114,-50,-8,2,10,-8,-58,201
14,18,-28,-44,-13,17,-14,-41,-161,87
-24,34,53,21,36,113,64,-13,-255,-40
42,50,70,71,68,95,94,36,-196,-26
218,46,2,45,59,24,22,14,-77,48
247,74,25,38,56,-2,-38,-59,-54,95
158,102,-46,41,54,-9,-81,-116,-67,127
96,72,-95,17,21,-47,-118,-120,-60,206
56,43,-39,-22,-29,-81,-91,8,34,282
47,13,6,-49,-38,-51,-59,30,140,368
38,-9,7,-38,-26,-11,-75,-43,186,389
71,12,31,-7,-2,-59,-130,-125,125,385
65,42,58,8,17,-65,-67,-58,91,269
0,18,66,28,37,-29,53,84,46,75
-119,-44,50,42,41,2,86,128,-57,-37
-199,-84,17,4,26,21,37,105,-111,-70
-156,-86,-15,-30,0,84,51,114,-53,-5
-78,-17,0,-19,-20,83,17,54,9,51
-25,14,32,-1,-16,30,-10,-2,8,62
-9,15,0,12,14,26,32,51,16,57
45,24,-7,2,17,15,61,97,96,129
111,-30,-32,-35,-13,10,73,125,217,255
93,-88,-73,-59,-27,42,58,46,217,273
62,-32,-73,-48,-36,29,-40,-123,80,232
1,1,-79,-9,-36,-15,-133,-180,-161,4
-75,12,36,38,5,30,-54,-85,-309,-289
-88,35,78,53,36,84,56,73,-211,-306
-51,46,93,58,42,59,39,53,-130,-84
-40,31,108,84,81,96,20,-43,-179,22
30,55,78,41,19,30,-17,-75,-140,98
81,79,56,-5,-37,-38,-16,-25,-3,130
-12,32,53,22,-16,11,21,-24,17,53
-122,-28,34,9,-20,15,66,23,49,-23
-137,-15,18,-17,-51,-99,-5,60,107,-53
-75,-18,-2,-39,-83,-183,-73,73,176,0
-75,-23,0,-25,-40,-77,-45,10,126,31
-124,-1,11,-7,-12,32,27,10,57,-6
-28,13,-25,-25,-23,37,-7,-19,52,34
172,53,-77,-69,-62,55,54,46,82,108
354,128,-61,-59,-60,-7,35,71,49,116
225,79,0,-31,-35,-45,-4,46,-11,23
51,-24,-13,-17,-10,-46,-29,0,12,53
79,-30,-17,-8,-30,-83,-103,-105,25,169
138,-31,-36,-18,-33,-5,-24,-116,3,247
41,-25,1,26,60,117,95,-102,-117,78
-33,26,83,101,131,67,58,-94,-226,-169
-59,37,70,88,100,80,-6,-179,-282,-247
-135,9,-78,17,38,212,115,-18,-156,-213
-109,-14,-130,-14,5,165,203,185,-44,-163
-8,-22,-36,-17,-21,20,114,123,-36,-96
-8,-19,-16,-21,-37,-33,40,3,-43,-62
3,-1,-18,-32,-67,-60,5,-24,-32,-47
23,-11,-46,-45,-69,-118,15,97,80,-38
127,-53,-92,-68,-93,-154,-40,130,250,111
206,-71,-158,-139,-161,-114,-89,78,341,319
180,-38,-109,-116,-94,-46,-40,42,221,236
111,16,-3,-14,20,40,26,6,56,17
6,-17,30,52,103,95,87,37,7,-95
21,-13,44,44,56,-18,18,41,63,7
-13,-2,40,31,39,-27,-19,-8,-24,-2
-131,-43,0,8,58,57,34,-60,-249,-161
-97,-41,14,1,28,-50,-52,-129,-294,-203
-47,-35,21,-12,6,-38,-67,-184,-221,-179
-57,-37,31,26,62,62,-39,-245,-229,-185
-81,-49,-4,-22,35,93,16,-195,-167,-190
-34,-48,-26,-64,-38,4,17,-36,51,-105
75,11,-22,-61,-91,-175,-84,42,239,71
77,4,-47,-75,-95,-249,-139,22,223,183
-95,-98,-110,-90,-58,-111,3,101,140,39
-168,-85,-66,-25,5,3,59,104,75,-50
-168,-11,25,71,97,105,18,-83,-106,-120
-53,33,54,82,102,169,59,-108,-131,-67
74,49,57,55,46,67,38,-24,-76,-32
68,19,-5,-11,-20,11,26,26,-62,-94
99,35,4,-13,-28,42,11,-4,-37,-96
169,24,25,10,1,34,-14,-39,44,9
236,-10,-9,-25,-37,-25,-3,89,179,176
218,49,27,4,-11,-49,-2,78,136,248
124,92,57,14,3,-45,-22,11,66,287
-65,39,50,24,28,-48,9,65,58,187
-203,-40,19,6,17,-11,69,38,85,107
-192,-49,-7,-16,-4,23,95,27,133,18
-141,-46,-16,-24,-4,37,60,-41,72,-112
-37,-7,-2,-26,-20,-1,-17,-88,52,-150
10,9,-30,-24,-20,-29,15,99,126,-174
-26,5,-111,6,4,-29,80,256,126,-183
-15,41,-87,42,28,-84,-30,60,8,-84
-39,56,32,82,84,0,-89,-201,-218,-152
-164,-9,72,81,137,210,25,-222,-310,-306
-211,-49,34,24,72,203,113,10,-107,-244
-43,-14,7,-28,-47,-11,34,115,110,33
102,36,33,17,-35,-116,-100,-9,127,195
77,10,56,52,9,-85,-71,36,56,169
-6,-19,79,59,41,-35,39,167,-9,27
-53,-28,38,24,6,-8,80,169,-66,-83
-36,-72,-48,-37,-22,67,122,116,-59,-90
28,-59,-41,-48,-37,11,58,62,11,11
132,-10,-47,-41,-58,-77,-40,0,39,129
151,0,-43,-39,-54,-80,-60,-15,59,175
14,12,33,12,-9,-34,-32,20,20,91
-41,77,112,63,10,-82,-65,-4,-42,-12
-70,72,117,48,10,-100,-94,-82,-115,-92
-63,40,78,6,19,18,-22,-51,-49,-76
32,58,87,25,71,85,2,-52,-5,-1
169,75,76,13,24,-33,-49,-48,17,98
225,36,28,-9,-7,-73,-42,30,79,110
71,-91,-64,-73,-13,99,55,51,110,57
-11,-113,-63,-79,-7,206,93,4,67,45
13,-25,0,-38,-16,43,11,-38,7,31
14,36,53,3,0,-68,-51,-81,-87,-48
-47,-12,49,18,42,24,59,-33,-192,-167
-100,-51,33,-13,30,99,155,6,-186,-225
-139,-70,-4,-68,-24,55,120,12,-64,-140
-119,-102,-62,-109,-57,-40,29,20,94,48
-34,-81,-62,-115,-85,-119,-65,-6,163,189
30,-40,-66,-101,-83,-78,-66,-36,80,159
31,1,0,-9,5,14,-12,-48,-41,-12
-96,-26,33,20,61,113,108,41,-60,-160
-144,-25,0,21,61,133,96,59,-100,-259
-52,41,28,20,17,39,-23,-24,-89,-195
18,40,-3,-1,-38,-41,-24,41,37,-16
76,21,-41,-24,-40,-84,-21,64,56,66
120,30,-42,-37,-56,-152,-55,43,32,130
109,60,0,-5,-55,-232,-117,31,41,162
32,55,20,26,-20,-161,-96,-5,42,134
-38,-2,-24,-11,-8,42,92,67,119,110
-12,20,4,12,-21,-127,-25,58,167,132
-8,25,17,37,16,-161,-137,-106,-29,37
-48,-5,-60,6,26,174,60,-154,-203,-80
-184,-100,-112,-44,26,444,255,-30,-193,-257
-144,-84,-87,-20,32,376,176,-24,-80,-218
49,46,13,18,-31,92,7,-60,1,-73
83,63,41,25,-74,-47,-46,1,23,-84
-11,8,6,6,-56,-36,-18,6,-22,-178
-14,7,-3,-25,-84,-82,-62,-42,-9,-97
-79,-11,17,27,14,-12,-111,-218,-164,-142
-38,-8,14,44,70,89,-59,-266,-181,-99
103,75,39,34,6,67,11,-96,-6,24
200,115,28,9,-51,-59,-4,14,89,84
175,79,21,-10,-65,-152,-59,0,31,50
32,41,46,30,-20,-101,-1,64,-23,-99
-37,1,-28,58,33,23,-9,-35,-57,-110
-22,24,-4,48,-11,-92,-54,84,76,-74
-87,-35,-48,-10,-27,74,68,196,181,7
-61,-45,-11,15,20,242,182,174,80,-8
13,-7,-5,47,15,136,125,93,16,-5
25,-31,-63,12,-33,89,57,10,49,60
-1,-29,-29,23,-34,54,29,-26,-10,7
-16,-3,0,56,-1,0,59,56,-70,-110
39,49,34,77,0,-79,34,88,-71,-74
29,100,101,134,47,-141,-34,25,-15,-35
-20,91,106,120,92,-51,-39,-71,-41,-45
-2,66,59,68,63,34,-7,-94,-80,0
15,15,6,9,14,59,32,-36,-39,21
63,-24,-40,-44,-29,0,29,66,87,73
100,-1,-51,-46,-63,-58,8,101,140,137
125,25,-31,-37,-68,-94,-21,42,61,85
119,10,-6,2,-15,-102,-79,-84,-26,-6
6,-49,0,16,21,-15,-50,-153,-35,-71
-12,-30,20,3,-2,-18,-28,-100,46,59
15,33,43,35,11,-13,-52,-143,-11,90
-59,-10,16,34,34,131,25,-182,-67,-21
-62,-29,-8,0,20,128,50,-119,83,62
41,17,3,-24,-50,-92,-63,-9,230,264
105,-21,-22,-79,-123,-173,-21,272,431,449
70,-60,-39,-91,-101,-55,106,423,425,430
103,-62,-39,-88,-94,-49,85,366,292,329
104,-29,-5,-54,-68,-98,-6,167,82,104
-38,-13,73,49,41,-73,-7,25,-161,-294
-137,-34,77,58,67,-40,-28,-44,-231,-433
-74,-39,41,22,31,89,23,-67,-189,-275
-70,-86,-12,-11,28,219,149,56,-148,-191
-69,-95,-43,-41,6,188,124,64,-110,-132
31,8,-53,-29,-14,-17,-92,-32,-29,59
103,31,-25,-41,-31,-147,-177,-23,104,195
23,-22,-1,-14,4,-92,-100,19,81,33
-17,-10,4,-12,17,86,-3,-33,14,-108
88,32,4,-50,-31,47,-66,-60,63,-10
174,42,-3,-69,-52,-105,-123,-64,-6,68
159,24,16,-37,0,-6,3,3,-99,0
114,34,54,30,57,56,39,41,-22,54
141,76,74,42,-2,-113,-163,-106,116,314
-90,27,72,31,4,-104,-119,-99,99,195
-333,-68,8,-8,24,19,30,-18,-20,-123
-331,-104,-73,-56,13,84,39,-61,-125,-209
-210,-55,-57,-35,30,93,82,-3,-153,-196
-72,25,-19,16,50,141,117,44,-142,-175
-15,71,-28,51,65,117,103,24,-172,-229
83,63,-19,20,23,-3,48,22,-154,-177
166,2,-8,5,15,-11,43,39,-118,-110
65,-63,15,48,91,134,136,-13,-145,-142
-54,-54,40,86,119,214,141,-78,-180,-142
-125,-23,37,64,79,160,48,-146,-157,-79
-114,2,39,23,13,16,-54,-166,-59,3
-77,21,-7,-36,-86,-87,-89,-129,60,85
-88,9,-9,-52,-107,-77,-82,-109,131,82
-48,-12,-16,-36,-94,-114,-117,-78,104,31
133,-10,-65,-58,-122,-168,-164,-43,78,67
348,18,-31,-48,-111,-174,-167,-60,38,61
350,-7,-22,-77,-123,-119,-51,107,161,90
185,-52,-65,-80,-123,-54,97,301,245,180
131,8,-73,0,-55,-144,41,254,173,208
109,63,17,81,24,-87,-6,90,12,133
25,45,69,73,35,65,80,93,-4,56
-83,19,49,24,52,238,200,173,37,-89
-112,39,80,36,73,247,187,151,36,-165
-52,24,82,11,27,39,13,16,35,-36
-16,-16,0,-61,-10,37,-62,-147,-63,33
-56,-44,-25,-68,21,202,46,-50,-44,-18
-61,-18,15,-24,31,110,56,110,162,-16
78,47,-33,-52,-67,-96,-62,131,319,99
198,82,-41,-75,-131,-184,-142,90,276,158
137,46,-19,-61,-86,-83,-89,-10,33,99
50,28,-20,0,20,95,12,-109,-259,-89
4,18,-67,64,94,132,59,-124,-377,-222
-20,-17,-75,37,63,67,67,-67,-268,-188
-29,6,29,37,49,38,60,-69,-170,-191
-17,10,43,17,36,18,63,-71,-70,-183
25,-3,22,6,-1,-9,48,-47,-5,-117
-20,-18,-16,0,3,-9,5,-70,-1,-55
-59,-31,0,-6,-1,11,-7,-80,-3,-16
-29,-13,30,12,0,-19,-36,-80,-8,-10
-13,22,49,10,0,-59,-87,-103,-7,0
-30,16,28,-5,-6,-24,-47,-57,-12,-62
-9,15,15,3,13,-27,-23,-8,-1,-85
108,32,-32,-15,-16,-100,-60,14,-18,-1
208,58,1,-35,-60,-190,-84,40,17,54
153,51,49,-8,-41,-227,-134,-34,36,91
17,5,27,5,-1,-115,-51,-58,32,93
-79,-18,-41,16,30,46,54,-44,43,78
-60,-9,-56,44,37,49,31,-17,117,153
-2,12,-41,7,20,77,56,9,109,106
43,50,-112,-7,12,62,7,-42,24,19
56,42,-117,-11,-7,-17,13,27,78,41
28,30,0,8,-3,-5,43,58,74,12
31,-7,46,-1,-7,40,-86,-133,70,153
-31,-81,-36,-62,-40,41,-29,-41,123,262
-87,-71,-27,-46,-9,26,29,37,100,130
-92,-14,11,1,-5,-26,-4,51,105,24
-144,-29,-29,-18,-58,-52,16,145,115,-85
-81,-25,-40,-25,-58,-64,24,178,100,-120
-5,-1,29,12,1,-52,-4,93,2,-59
34,3,62,33,44,-34,-32,20,-102,-66
34,-38,43,30,64,62,21,-29,-171,-106
-29,-53,44,76,84,64,30,-57,-158,-94
37,25,66,62,30,-126,-51,-48,-58,3
85,31,41,5,-13,-211,-88,-34,-4,70
-20,-56,-39,-73,-28,-24,40,29,46,41
-31,-52,-54,-79,-24,143,99,36,63,103
-21,-42,-16,-34,-9,39,39,29,51,152
-140,-19,-11,-18,16,39,54,15,-44,20
-159,250,-18,-20,54,101,79,-44,-171,-112
-81,494,0,-13,40,73,67,-61,-147,-95
-84,447,-16,-23,-5,-15,39,-19,-18,-60
-84,387,-40,-16,-31,-95,4,-21,71,20
-36,406,54,56,5,-82,-27,-67,53,59
70,449,110,82,21,14,-45,-107,28,69
122,413,48,25,-21,12,-90,-134,28,91
51,328,0,-24,-37,-37,-109,-151,-29,21
-103,256,-6,-19,-22,-58,-86,-83,-74,-73
-167,231,24,33,25,-38,1,65,-102,-242
42,288,22,28,-5,-68,0,42,-96,-213
200,230,-42,-53,-80,-46,-2,41,5,-26
120,160,-56,-63,-78,2,20,99,5,0
91,166,-16,-18,-48,4,9,24,-80,3
124,180,11,6,-29,-68,-48,-20,-46,42
55,111,-57,25,22,-40,-20,32,-24,1
-27,41,-140,0,42,-1,-3,76,-1,2
-47,61,-48,-11,22,0,-19,70,50,55
-79,110,73,-9,-10,-34,-100,-59,-7,89
-145,96,94,15,10,40,-108,-135,-48,117
-167,97,102,31,24,131,-43,-88,-18,84
-170,49,70,-14,-1,95,33,59,106,24
-46,75,72,-23,5,50,43,112,111,-29
211,94,33,-58,-41,-58,-39,80,114,93
234,16,-21,-93,-79,-82,-6,159,161,236
142,40,-9,-10,-12,-59,24,136,-25,88
106,57,-68,5,16,-42,1,53,-109,-29
62,8,-35,-34,15,31,22,34,-43,-37
60,-26,51,-14,48,82,46,12,-69,-46
75,-34,92,26,81,83,-6,-92,-191,-33
47,-50,53,15,59,95,46,-19,-206,-19
-97,-71,24,29,104,112,59,-45,-214,-41
-148,-41,94,47,98,28,-43,-153,-127,-19
-135,-82,62,5,24,-65,-87,24,175,84
-107,-111,3,-49,-38,-94,-14,307,346,145
-46,-91,-1,-74,-52,-95,2,304,205,127
-65,-87,12,-83,0,16,44,161,13,-10
-161,-126,-28,-88,23,123,146,223,31,-129
-95,-111,-5,-68,-1,21,59,209,76,-38
39,-27,53,15,27,-101,-83,70,23,74
60,-9,35,26,17,-203,-144,127,104,141
43,-94,-10,-65,-75,-137,-58,282,281,239
91,-92,-13,-62,-92,-78,-84,175,227,260
77,-49,-8,-35,-83,-160,-116,125,125,78
-84,-116,-97,-62,-42,26,36,123,-70,-219
-116,-157,-62,-75,-19,142,132,148,-183,-276
-33,-102,-13,-50,-5,193,70,-2,-206,-197
77,-52,17,-27,-12,187,36,-66,-23,8
53,-3,83,38,10,63,-3,-47,44,24
-86,-69,129,110,87,109,74,11,13,-55
-85,-154,56,57,59,120,112,97,143,72
-15,-167,1,-4,2,52,45,117,197,157
-164,-189,-29,38,31,55,49,121,59,-14
-194,-201,-78,-23,-61,-43,28,156,125,61
-57,-162,-11,-32,-111,-137,-23,117,229,246
-64,-176,0,8,-48,-93,-26,63,121,110
-82,-195,-39,-35,-53,-79,-46,-4,0,162
-76,-72,80,69,41,-25,-55,-120,-249,11
-38,-13,147,110,91,37,6,-110,-318,-255
47,-40,63,32,57,186,111,-49,-166,-287
59,-26,71,21,42,171,55,-36,-91,-235
78,-2,13,19,8,42,-19,-51,-30,-72
60,-21,26,23,25,38,15,-21,13,-35
57,-25,42,11,21,19,21,1,-1,-70
149,17,28,-9,-19,-14,-38,-63,-30,-17
137,20,29,9,-10,-30,-85,-160,-95,4
45,4,85,32,25,-30,-98,-202,-136,-22
13,25,99,34,22,-49,-77,-172,-94,-46
27,32,71,23,-3,-80,-79,-154,-49,-75
-3,3,6,7,15,-62,-55,-112,50,-67
3,-31,7,-23,38,17,-38,-110,62,9
71,-27,2,-42,3,-27,-58,-81,57,90
134,-4,42,-13,-19,-120,-53,45,224,230
114,6,47,16,24,-156,-74,57,266,302
23,-39,-4,-7,29,-63,-57,-10,129,149
-114,-112,4,-12,45,111,22,-38,24,-41
-129,-134,-53,-65,-24,79,58,36,42,-76
-64,-128,-169,-98,-81,-8,47,24,61,22
0,-54,-54,-30,-31,-37,-5,-18,-27,90
-63,-19,80,43,55,78,73,-23,-268,-129
-140,-19,102,54,62,105,100,-57,-318,-269
-152,-39,73,36,22,60,64,-49,-177,-225
-99,-38,51,30,8,-25,-6,-61,-83,-141
-37,-25,37,21,-2,-20,-40,-105,-93,-76
-25,-37,23,9,13,40,-7,-119,-151,-93
1,-43,34,24,24,36,11,-111,-113,-29
-1,-48,32,36,14,45,18,-125,-116,-1
8,6,93,62,9,-25,-11,-75,-67,-23
1,45,105,56,-9,-118,-56,43,66,16
13,75,114,65,19,-154,-82,146,158,83
20,66,110,71,50,-84,-58,70,91,72
-74,-48,39,13,41,75,64,63,29,2
-86,-97,8,-3,27,49,63,85,45,32
25,-90,-36,-43,-26,-22,0,0,30,99
163,-29,-41,-71,-68,-86,-49,-33,58,83
167,-34,-38,-54,-55,-2,-7,-24,110,105
207,-64,-107,-35,-33,130,76,-66,90,217
288,-17,-154,-12,-15,22,2,-122,-44,225
162,-37,-94,-9,21,88,73,-58,-171,-12
11,-93,-25,6,46,126,113,24,-90,-74
22,-58,10,47,53,45,51,-28,-22,-12
-6,0,49,81,90,-42,-83,-101,-46,-55
-97,-33,17,39,94,-56,-14,55,23,-72
-104,-71,0,17,73,-55,91,128,44,-51
-80,-97,-19,-15,31,-61,66,43,-9,-31
20,-44,-26,-46,-38,-23,82,33,-14,43
151,24,-24,-38,-63,-47,25,64,43,143
141,0,-90,-46,-50,15,48,126,130,192
162,26,-8,-11,-7,7,1,64,80,166
155,74,83,51,23,-98,-115,-76,-76,20
109,45,86,59,30,-39,-60,-87,-80,-33
49,-59,15,17,18,84,75,36,35,-24
-48,-78,-43,14,8,-8,21,61,124,8
-137,-90,-21,35,35,-33,-39,-67,22,-33
-145,-93,20,47,61,48,23,-81,-135,-201
-111,-60,23,23,38,73,51,-12,-148,-260
-10,4,25,0,0,59,9,-12,-45,-136
21,-3,-101,-17,-31,-3,-4,2,48,-52
8,-33,-81,-2,-13,-80,-81,-57,71,-7
102,-19,-18,-19,-23,-47,-109,-123,40,163
157,6,-93,-19,-19,26,-55,-89,-7,264
98,-8,-121,-20,-29,15,-12,-7,68,294
64,-60,-75,-70,-91,-38,-33,24,191,331
-24,-120,-96,-100,-81,29,-3,47,207,205
-32,-87,-76,-88,-74,0,-16,120,273,137
-29,-44,-19,-40,-28,74,59,118,136,33
-62,10,49,23,47,168,164,59,-234,-237
-85,43,84,54,62,109,111,-32,-315,-353
-119,17,41,6,7,33,42,-86,-155,-288
-133,-9,-1,-27,-23,-1,29,-39,-31,-191
-81,43,11,-43,-51,-59,-38,9,99,-61
11,97,15,-75,-117,-130,-114,31,269,116
60,86,7,-73,-146,-166,-125,35,307,251
-5,53,-10,-28,-52,-7,16,-6,43,127
-19,58,15,15,24,85,111,21,-165,-73
-13,61,50,50,66,29,111,137,-151,-228
-9,71,39,32,35,-30,50,115,-138,-292
32,57,-2,5,12,23,22,7,-112,-205
33,32,-5,23,34,81,-20,-133,-108,-125
79,62,19,26,0,-71,-121,-151,-13,17
135,107,29,14,-20,-156,-120,-41,55,119
109,89,7,12,24,6,-1,0,-44,36
8,10,-13,13,56,121,77,5,-92,-44
-63,-78,-94,-53,-16,65,46,69,81,117
-48,-91,-101,-52,-26,69,27,27,159,196
39,-34,-20,14,39,44,-32,-76,136,165
25,-51,12,29,56,1,-49,-75,160,134
5,-54,-18,-31,-37,-107,-48,38,272,153
-4,-26,-29,-35,-69,-195,-128,14,132,74
-66,-9,-1,10,-25,-227,-143,10,-221,-212
-90,-45,1,29,22,-57,-32,21,-360,-294
12,-32,5,13,34,113,86,38,-282,-161
148,51,38,40,77,218,107,-41,-206,-27
191,58,26,26,59,275,159,-43,-102,83
143,51,-28,12,6,79,50,-26,-18,98
35,23,-11,-6,0,9,7,10,17,16
-32,-8,22,-50,-18,56,37,24,17,-77
-168,-30,22,-33,0,93,-7,-82,-84,-184
-284,-84,22,-3,12,23,-49,-137,-136,-222
-212,-67,25,12,-22,-109,-65,-83,-105,-165
-69,-23,11,6,-70,-241,-102,-37,-67,-61
25,24,29,36,-59,-308,-127,5,-16,-18
123,28,24,24,-33,-310,-122,40,102,49
86,-62,-58,-54,14,-61,29,46,191,103
77,-74,-42,-37,82,130,38,-120,57,141
51,-30,44,28,105,159,-2,-248,-143,76
-7,-37,68,58,133,291,176,-95,-189,-89
63,23,93,49,107,231,183,30,-47,24
44,21,64,14,13,6,52,99,116,161
0,-30,14,-21,-21,-55,26,146,205,151
-20,-75,-21,-42,-13,-38,26,123,248,130
-12,-101,-57,-41,-32,-93,-37,80,319,211
75,-105,-117,-59,-67,-138,-122,17,356,296
112,-104,-113,-65,-67,-20,-74,-17,189,285
-27,-63,-73,57,54,89,21,-6,-155,-50
-182,-79,20,116,117,63,98,109,-273,-351
-244,-112,-49,60,52,0,64,157,-151,-292
-332,-100,-99,41,38,97,44,41,-163,-296
-275,-84,-25,22,20,219,63,-46,-182,-239
-32,-10,20,-9,-23,225,82,-46,-141,-78
133,63,47,-4,-45,65,-11,-57,-96,59
144,76,45,-4,-54,-14,-57,-42,-62,56
152,52,36,-5,-28,39,-15,-73,-74,0
87,15,10,-23,-27,40,-8,-58,-26,13
92,27,6,-32,-40,-18,-1,-7,45,73
24,39,49,16,5,6,31,-35,24,-67
-35,53,86,59,32,-53,-18,-107,-11,-116
31,55,73,48,-17,-171,-63,-30,130,80
40,-6,12,1,-59,-140,-2,142,231,152
3,-37,-48,-14,-27,45,72,103,56,78
-30,-25,-25,23,24,145,64,-59,-155,2
-2,17,64,72,63,117,1,-151,-165,-33
4,15,54,58,43,30,-52,-147,-35,38
9,-28,-8,-25,-30,-28,25,109,189,170
72,-21,-36,-54,-65,-44,68,212,226,232
29,-20,-46,6,-26,-32,83,152,49,34
-32,-24,1,29,-8,-54,75,136,8,-45
-53,-5,45,28,-25,-142,-27,113,95,28
-83,14,61,38,-30,-133,-89,24,145,85
-13,33,-5,5,-65,-148,-134,-39,145,189
52,68,-105,24,-60,-93,-70,0,7,75
79,97,-38,80,11,10,24,-42,-179,-204
76,19,0,22,14,50,12,-126,-196,-290
220,0,-20,-56,-75,0,-32,-140,-60,-25
200,4,-20,-52,-45,96,42,-132,-155,11
28,19,43,43,46,192,108,-147,-349,-209
-134,-29,52,47,67,133,59,-200,-337,-242
-293,-137,-81,-23,22,76,89,-7,-118,-238
-269,-128,-93,-40,8,71,154,208,80,-230
-142,-49,34,8,43,87,155,205,77,-176
-131,-27,82,40,48,49,89,122,7,-125
-139,-20,63,27,21,1,34,38,8,-44
-85,-37,16,-14,-26,-33,-24,0,51,52
-51,-44,-8,-29,-31,-70,-50,0,110,83
-38,-72,-53,-54,-56,-96,-54,-19,108,73
46,-46,-73,-40,-80,-156,-96,-67,117,109
220,50,-4,-28,-101,-189,-117,-79,149,180
237,10,-29,-70,-80,-75,-12,-11,118,146
61,-36,-30,-50,-18,-40,47,70,130,89
-113,-74,-41,-35,29,1,51,47,110,94
-167,-106,-88,-68,-5,4,51,112,150,144
-84,0,-41,-44,-41,-103,-24,110,129,109
54,119,32,3,-39,-87,-103,-100,19,60
66,117,51,38,34,100,-65,-270,-122,-43
-17,37,-17,2,26,53,-31,-179,-80,-47
-37,-27,-128,-59,-40,-75,11,56,132,110
43,8,-43,-30,-4,-68,-47,-3,127,197
100,58,32,9,44,74,-65,-128,34,154
34,38,49,19,37,121,8,-35,1,107
-83,38,79,34,28,2,65,181,-4,-22
-133,36,78,29,36,-38,104,181,-113,-179
-18,110,129,83,39,-141,-100,-72,-192,-162
-1,24,18,-25,-25,64,0,-161,-151,-60
-97,-100,-118,-126,-49,324,269,34,-44,-22
-85,-68,-87,-48,-3,178,233,155,-57,-81
-43,-51,-23,-6,1,67,120,30,-153,-78
16,1,29,18,0,69,56,-67,-186,-58
2,22,53,26,0,16,16,-95,-134,-32
-46,-47,31,-28,-44,-97,18,-40,19,16
0,-50,22,-34,-56,-157,17,73,193,63
-54,-23,38,20,-8,-117,2,141,230,-19
-67,6,28,-4,-31,-33,-52,31,195,37
23,26,3,-39,-74,-41,-116,-81,184,217
5,56,25,-11,-47,-74,-64,-40,80,112
66,105,66,41,-2,-49,-67,-92,-95,29
175,93,2,-9,-36,-86,-82,-104,-91,186
297,112,-99,-57,-75,-136,-26,32,-127,140
368,112,-31,-7,-36,-129,28,165,-172,-26
233,70,-11,29,-11,-235,-65,174,-26,0
79,-26,-52,-52,-33,-160,-98,77,116,96
-44,-148,-149,-130,-31,146,28,15,143,129
-41,-99,-126,-112,-12,304,89,-27,156,181
7,10,-35,-32,3,192,0,-85,145,174
-119,19,38,53,65,108,11,-100,-13,-144
-191,9,70,98,102,83,65,-6,-196,-438
-163,22,70,79,84,64,100,131,-234,-399
-123,38,71,67,61,43,68,103,-241,-284
-102,18,57,58,63,23,-15,10,-196,-157
-81,12,38,36,53,7,-98,-45,-99,-34
-51,7,22,35,53,11,-92,-25,22,30
-108,-49,-29,12,28,-42,-99,13,150,36
-63,-48,-41,-67,-72,-142,-142,26,278,199
56,1,-117,-96,-89,-94,-98,4,237,283
62,58,-48,-19,-3,-18,10,103,64,115
107,156,110,92,78,-44,-32,52,-122,-62
125,178,174,113,90,-54,-48,-27,-162,-93
192,109,147,78,40,-109,-79,-18,-77,18
93,-23,58,5,0,10,0,-12,-74,-31
-94,-118,-7,-13,10,104,65,-19,-58,-101
-164,-152,-59,-27,26,95,32,-73,-33,-6
-241,-121,-39,-17,16,71,36,-62,1,60
-169,1,32,11,-14,-62,-14,-11,37,71
48,71,18,-15,-69,-186,-131,-50,113,210
177,79,-2,-16,-64,-130,-151,-100,73,244
121,14,-104,-50,-31,20,-65,-73,5,106
98,-30,-102,-66,8,195,49,-84,12,91
59,-44,-23,-42,38,267,131,-19,-11,90
14,-12,33,-24,21,115,82,97,15,25
-67,-36,10,-28,11,60,107,186,62,-60
-80,-58,-1,-27,5,2,49,128,29,-37
-26,13,54,1,26,-61,-29,25,-60,-20
-19,43,70,42,37,-70,-43,-20,-125,-71
-41,29,40,6,3,-26,-15,-16,-112,-64
-62,34,22,-15,2,101,27,0,-68,-14
-88,34,24,4,38,110,27,7,-46,-12
-97,28,8,7,31,-4,-20,-8,-45,-32
-78,41,10,37,26,-119,-101,-27,-54,-18
10,64,-33,18,-21,-141,-121,7,22,6
18,48,-53,-28,-22,131,61,8,-16,-18
63,78,4,0,9,161,44,-98,-92,11
118,71,21,5,-30,-134,-147,-164,-59,95
57,-23,-50,-27,-67,-171,-156,-106,67,131
51,-87,-96,-32,-6,118,47,19,183,148
105,-91,-87,-24,7,150,99,112,313,184
165,-9,-57,-22,-47,-46,-23,79,362,199
53,-4,-52,-28,-65,-135,-7,210,394,169
-47,-7,-33,0,-33,-102,45,226,270,100
-105,-11,-16,33,4,-63,39,84,16,-66
-86,-22,-20,19,10,-52,29,35,-54,-117
24,22,7,15,11,-35,3,-51,-98,-99
52,18,-13,24,67,97,100,-69,-169,-152
25,-15,-85,32,88,71,88,-50,-125,-115
22,-35,-38,10,30,-45,64,137,29,-52
4,-29,40,2,-1,-97,70,239,81,-35
1,11,3,9,18,-28,7,13,-63,-50
-71,-9,29,10,47,203,105,-84,-221,-137
-67,7,53,11,42,146,95,-19,-164,-52
39,63,60,-7,-17,-74,-26,-26,-61,118
89,64,20,-24,-37,-103,-41,-14,-19,159
57,23,-19,-28,1,22,1,56,14,134
69,56,52,-10,19,113,63,109,21,77
20,66,70,-6,12,33,28,82,-25,-58
-20,40,44,-16,13,-34,-34,19,-40,-117
-11,37,16,-40,-12,-65,-58,-1,-4,-95
-7,45,18,-24,1,-54,-38,-45,-42,-113
-16,36,20,9,47,22,1,-105,-88,-115
-68,-19,-47,2,52,114,76,-57,-59,-96
-93,-52,-9,10,53,58,66,33,18,-65
-39,-43,-55,-39,0,-41,43,103,96,-17
30,10,-112,-43,-12,-74,-11,58,96,43
52,40,-84,-36,-21,-94,-39,18,93,118
38,9,-78,-76,-58,-86,-41,-9,66,121
145,16,-67,-106,-102,-82,-71,-53,70,197
265,30,-6,-100,-112,-113,-103,-53,101,255
214,39,57,-59,-66,-98,-84,-60,131,105
85,10,57,-39,2,-44,-63,-22,169,16
19,-26,15,-43,34,40,-2,49,152,-7
-15,-10,12,-17,59,104,62,32,20,-48
-33,35,-12,27,75,81,43,-42,-204,-97
-85,21,30,28,93,79,11,-141,-355,-178
-107,-18,54,8,69,40,7,-104,-314,-190
-35,-11,32,-18,9,-23,48,72,-92,-87
61,55,88,14,17,-44,-30,6,-50,-1
142,118,128,18,6,-70,-78,-74,-70,60
133,59,59,-37,-31,-48,-37,-10,-24,83
97,22,38,-29,-31,-47,-46,0,18,132
-14,10,28,-23,-17,-58,-34,-44,2,129
-49,41,62,7,3,-46,-51,-105,-52,100
-65,13,48,5,10,-24,-34,-94,4,114
-59,-19,-1,-16,-8,5,27,-10,61,105
23,-13,0,0,-19,5,-3,-6,79,117
83,4,43,43,-19,-63,-81,-47,85,124
116,31,11,49,-24,-95,-114,-22,35,141
60,-17,-7,11,-18,-39,-36,71,44,171
-26,-71,14,-11,-8,-2,18,78,88,147
-51,-60,37,21,16,-65,-3,7,27,59
-45,-70,-14,-21,-50,-92,18,36,84,36
-74,-60,-95,-37,-53,11,106,61,49,-66
-129,-28,-124,-6,-13,165,184,86,-66,-171
-142,15,3,68,54,245,162,35,-180,-172
-121,27,105,99,94,195,67,-46,-179,-136
-68,8,68,34,13,87,15,-24,-87,-82
7,-21,26,-27,-55,29,0,41,4,9
64,-22,-6,-34,-63,-17,-23,85,58,36
29,-23,-31,-28,-58,2,15,153,70,-7
-60,-4,7,8,-6,33,2,87,0,-75
-41,70,55,44,-1,-43,-52,36,41,-54
-12,74,37,41,7,-40,-46,23,121,-7
-20,43,-68,22,11,-13,-28,-30,148,77
45,62,-141,3,-3,-9,-47,-139,79,88
34,32,-86,-7,-13,-45,-46,-137,84,33
-29,-8,-31,-48,-73,-131,9,79,209,80
32,19,26,-20,-63,-195,-54,54,93,103
-41,-24,34,15,32,-19,-60,-97,-149,-85
-117,-84,16,16,82,201,51,-50,-182,-200
-28,-19,73,54,37,31,-5,65,-19,-38
31,4,60,0,-16,45,-21,2,-1,69
-93,-36,20,-40,0,192,81,-30,-70,-77
-124,15,43,-3,0,39,-13,-22,-19,-140
-135,4,50,19,10,-13,-40,-3,60,-161
-112,-43,-1,-14,-26,-45,-25,4,167,-39
-71,-63,-23,-18,-36,-52,-5,28,254,71
-10,-44,-3,7,0,-20,8,24,245,129
167,-7,0,14,-6,-53,-49,10,199,224
320,55,13,-3,-50,-73,-71,54,160,201
228,72,17,-7,-44,7,-11,106,48,38
-6,17,45,38,40,91,74,147,-149,-257
-88,-5,54,81,92,78,66,82,-326,-390
-25,39,74,69,78,3,-12,-12,-344,-275
-14,48,61,59,63,-22,-28,4,-264,-198
-19,24,9,37,44,-55,-40,28,-143,-118
61,81,59,37,-23,-215,-139,43,10,15
125,133,107,63,-33,-303,-247,-47,53,54
27,-27,-10,-39,-12,23,-56,-120,-44,30
-26,-137,-92,-97,12,266,163,-94,-53,99
-24,-90,-76,-63,17,146,79,-90,-16,152
-13,-33,-37,-45,-21,-49,-63,-138,8,164
-23,-22,-14,-26,-10,-23,-38,-127,-25,79
-10,30,54,22,3,-24,0,-4,-39,-48
15,69,74,36,-8,-149,-78,59,20,-85
-51,41,52,32,23,-89,-37,53,6,-182
-64,7,53,35,33,-25,-2,27,-53,-193
-28,-48,-27,-1,19,35,24,-17,-83,-99
36,-89,-125,-73,-8,246,182,41,-30,-6
124,-65,-110,-44,0,304,222,44,-45,37
104,-27,-22,-11,3,117,78,-39,-79,28
35,-16,-5,-17,-14,0,0,-50,-45,-5
50,23,11,-23,-21,-17,-34,-58,3,13
32,32,12,-15,29,0,-71,-119,0,12
-60,6,15,14,55,23,-23,-48,7,-34
-95,4,32,44,28,11,37,67,37,-40
-13,25,13,13,-22,-34,-15,24,61,38
43,47,-3,8,-4,-38,-68,-31,43,97
-65,-3,17,53,42,12,-14,-7,22,0
-155,-85,-44,-4,-13,11,24,50,132,-21
-85,-68,-91,-61,-63,-23,15,78,247,13
11,-17,-68,-43,-67,-48,-88,-76,180,78
60,2,-56,-13,-69,-87,-185,-207,25,149
-11,-4,-20,40,-5,-41,-109,-170,-214,-60
-66,8,21,62,-5,-121,-61,-70,-226,-152
-76,21,40,62,-18,-201,-93,6,-102,-107
-116,-61,-52,-11,-30,-1,-10,35,2,-26
-97,-49,-121,-30,-15,212,128,83,40,-22
-21,37,-86,21,-3,30,67,150,35,-58
114,55,-9,27,-28,-226,-93,56,48,23
164,39,13,22,-7,-221,-168,-69,38,96
99,71,75,73,42,-39,-102,-102,11,13
93,79,76,76,23,-33,-10,-11,116,55
34,-27,-51,-58,-14,146,183,36,87,19
-28,-66,-94,-107,2,298,256,53,4,-85
-47,-41,-33,-35,29,199,169,55,-2,-92
-42,-22,-4,-12,7,65,79,14,-7,-55
-36,-27,-15,-20,-7,17,46,-36,-33,-19
-38,-20,13,27,43,35,36,-71,-78,-67
-22,-4,35,44,73,35,2,-100,-78,-72
-3,-18,-2,-11,2,-34,-4,-28,62,51
36,12,1,-23,-48,-103,-35,-21,100,108
66,29,10,6,-25,-69,-76,-121,-42,47
83,33,26,26,-6,-66,-66,-119,-105,-26
134,48,27,8,1,-101,-108,-107,-65,10
127,46,16,-1,55,-77,-178,-144,-19,82
42,34,18,5,89,78,-58,-109,-32,21
-40,-37,-44,-58,18,201,133,120,53,-1
-104,-91,-105,-113,-57,74,132,330,249,62
-106,-57,-122,-90,-51,-20,18,223,275,112
-114,-25,-162,-22,-6,-27,-79,34,158,129
-96,-67,-110,-18,24,-5,-54,-49,31,113
-22,-112,-84,-81,-5,16,2,-16,76,206
51,-88,-97,-95,-38,-18,-27,26,138,229
40,-9,0,-28,-31,-57,-43,17,89,172
-58,3,46,15,-9,-62,-61,-52,120,259
-52,-15,8,-14,-34,-2,-57,-31,163,286
41,50,25,-14,-41,29,-34,-71,-78,63
40,95,75,28,6,-22,-105,-216,-269,-150
-5,111,109,80,44,-73,-86,-116,-163,-220
-21,87,80,85,40,-62,1,82,18,-242
-37,23,-10,77,43,48,104,199,54,-291
-45,-9,22,66,35,82,127,226,55,-209
12,-13,6,15,-16,35,73,175,98,-60
126,-4,-11,-10,-35,49,54,96,13,-12
139,8,19,37,22,29,0,-40,-208,-71
65,17,11,55,34,-75,-74,-113,-300,-86
-123,-78,6,50,21,-25,-27,-49,-9,-8
-49,-36,23,24,-32,65,45,8,132,56
29,-36,-18,-43,-103,-101,-18,81,217,151
16,-56,-44,-63,-118,-151,-29,132,150,97
-49,-100,-86,-75,-89,-21,-22,103,66,56
-124,-160,-153,-104,-43,132,17,39,25,52
-114,-122,-106,-50,4,290,138,9,-31,-50
-11,5,16,62,57,173,61,-56,-89,-121
74,67,37,53,9,-11,-32,-83,-64,-10
147,28,-5,4,-26,-29,-18,-63,-13,127
86,-2,12,51,31,38,54,0,-74,29
17,-31,9,67,45,33,65,27,-94,-41
39,3,25,74,31,-57,-57,-49,-101,-14
49,30,14,57,-31,-158,-119,-81,-39,74
28,23,13,17,-54,-138,-50,69,55,73
-19,49,57,48,-17,-111,-51,19,-16,-59
-120,-12,-13,15,0,118,85,-34,-88,-141
-119,-22,-91,0,-17,82,77,4,-65,-54
-43,3,-82,-22,-62,-74,-24,14,-19,22
39,40,4,-38,-29,-52,-29,-1,30,117
59,65,41,-18,43,65,6,-68,1,113
-18,22,17,-13,74,178,48,-104,-25,14
-44,12,32,17,68,90,-18,-121,30,62
-52,5,-2,10,37,-71,-80,-54,166,224
-51,-10,-90,-9,-22,-250,-114,133,398,280
7,-14,-60,-38,-49,-237,-77,173,392,187
101,20,68,6,38,131,26,-75,-48,71
2,-5,42,-3,51,178,80,-50,-233,-171
-18,6,44,-5,49,173,92,-33,-273,-246
-59,-8,22,-5,48,115,67,-46,-119,-196
-11,-8,-4,-43,-18,-3,24,11,31,-92
77,17,-21,-68,-56,-98,-69,1,42,-3
64,36,16,-18,-10,-84,-94,-48,51,63
46,72,31,46,66,61,9,-67,-38,-41
58,101,-5,87,91,56,-3,-111,-117,-86
-9,79,-32,81,64,-1,-10,-65,-50,-87
-30,98,39,70,17,-59,-20,-24,27,-72
35,79,55,4,-53,-110,-70,-51,80,0
34,11,-14,-55,-92,-42,22,-19,63,27
10,-14,-16,-35,-36,104,136,21,-75,-90
12,-58,-19,-20,10,112,90,-50,-173,-124
-17,-127,-51,-26,9,80,71,-70,-79,-13
-73,-98,-3,-5,19,25,37,-54,13,32
-35,14,-5,17,5,-29,-19,-37,-11,-35
-64,-4,-115,0,1,21,76,63,-12,-136
-121,-40,-55,-31,8,72,141,110,-16,-169
-105,-43,33,-31,19,58,76,32,-44,-132
-101,-32,62,7,33,37,15,-34,-65,-102
-31,17,70,19,16,-15,-46,-102,-113,-35
28,35,49,-3,1,-52,-85,-168,-149,43
67,3,33,7,14,-68,-132,-258,-154,100
158,41,69,24,19,-181,-244,-372,-145,176
180,108,84,0,-21,-210,-242,-315,-67,177
71,94,54,-36,-46,-113,-118,-49,101,118
-74,5,0,-83,-58,-8,94,346,271,28
-163,-32,0,-66,-35,7,202,564,305,-112
-222,-38,11,-28,-6,-32,194,459,278,-139
-192,-23,-15,1,25,-42,135,263,250,-132
-61,-63,-17,-40,-21,-8,70,97,208,-33
76,-105,-37,-91,-80,-76,-44,-54,136,168
67,-103,14,-15,5,-63,34,26,-22,27
3,-61,-26,27,58,-19,95,96,-123,-128
-40,-30,-97,41,49,-14,8,12,-134,-98
-24,6,-24,58,34,-18,-31,31,-68,-37
-17,-24,39,3,10,89,62,126,-27,-13
-2,-55,0,-32,17,164,77,82,-29,-12
7,-36,5,-36,13,89,27,68,17,-37
96,-18,14,-51,10,41,-52,-32,-27,-9
255,14,16,-46,4,-4,-119,-112,-35,107
220,11,28,-48,-14,-1,-80,-79,-17,59
209,62,59,-26,-18,-18,-89,-167,-49,24
270,98,81,0,2,-33,-137,-251,-97,39
79,1,46,5,33,43,18,-21,-39,-53
-107,-68,37,17,32,61,89,144,86,-36
-128,-44,26,17,16,14,26,86,103,65
-52,-33,-8,-11,-16,-20,-10,11,69,155
1,-38,12,-2,-13,-36,-52,-18,48,155
-41,-84,-81,-29,-36,-61,-38,82,139,134
-31,-107,-172,-85,-115,-134,-19,148,212,178
5,-66,-98,-83,-138,-169,-34,90,125,177
13,-36,-22,-58,-98,-177,-1,139,53,78
1,17,60,24,0,-109,20,126,-35,-88
-47,-28,33,21,43,104,55,-52,-118,-196
-58,-67,8,-6,42,263,123,-95,-118,-216
-35,-11,27,43,53,135,106,71,29,-128
-17,-11,-38,17,20,-13,58,131,85,-30
54,-6,28,-1,20,-95,-26,41,43,52
34,23,80,34,60,-98,-79,-56,-69,2
-41,18,52,22,44,-2,-3,9,-72,-35
-37,38,76,35,34,4,25,59,-86,-99
-3,56,81,36,23,42,27,2,-138,-152
49,81,49,21,3,108,86,-35,-123,-86
124,134,8,49,-11,-99,-46,-20,-66,53
110,149,61,54,-27,-226,-129,-17,-30,63
28,70,25,19,6,-78,-99,-72,-15,6
-89,-51,-72,-19,44,152,-14,-161,-50,-58
-80,-80,-45,-31,27,221,83,-108,16,-3
-63,-96,-62,-39,0,182,158,53,66,20
-96,-74,0,15,30,114,139,77,-98,-107
-117,-17,49,59,56,88,78,-27,-216,-180
-97,-16,21,63,44,1,-22,-86,-126,-101
-40,-4,0,37,18,-70,-81,-74,-8,-35
27,-9,-56,-5,-7,14,-4,8,139,31
126,20,-40,-35,-55,26,39,81,280,207
130,32,-28,-44,-55,-17,26,81,260,301
-11,-2,-25,-19,-5,46,140,118,79,89
-30,18,3,5,0,18,83,45,36,33
15,32,14,7,-41,-26,-16,9,55,88
7,12,3,10,-54,-47,-33,-25,-102,-44
-7,-5,-12,1,-70,-38,14,9,-170,-144
-20,-16,-23,9,-37,0,13,32,-130,-114
-22,6,-15,54,37,-27,-32,-20,-99,-61
22,41,39,90,50,-156,-169,-108,-43,75
50,94,96,119,34,-318,-264,-138,29,162
16,132,131,120,2,-350,-243,-67,-12,-34
-57,79,-8,22,-47,-162,-108,-25,-57,-168
-84,-17,-122,-64,-33,247,148,0,-71,-179
-60,-70,-110,-77,-23,395,232,24,-57,-110
-37,-32,-53,-32,-24,200,121,33,-35,-78
28,35,22,14,10,122,54,-12,-95,-81
87,76,33,17,19,55,-7,-55,-82,-44
7,81,-18,21,44,53,-14,-98,-138,-139
-38,54,-8,1,24,80,-20,-103,-56,-34
-4,-23,-41,-47,-30,11,-18,-18,134,113
118,-5,-49,-61,-41,-62,-76,-67,158,202
277,55,-11,-28,-19,-63,-126,-197,11,199
103,56,57,61,70,30,-2,-89,-123,-80
11,46,54,45,48,3,60,81,-60,-130
35,45,39,9,-7,-52,72,234,57,-73
-47,35,27,28,25,0,44,171,14,-94
-106,-5,20,25,30,53,25,87,-9,-68
-154,-27,-11,12,15,62,34,60,26,-30
-177,-46,-78,8,12,46,31,58,65,-13
-156,-110,-115,-46,-15,33,50,81,144,-10
-59,-99,-53,-33,-6,24,63,12,126,0
76,-2,51,31,31,8,-4,-150,2,-13
124,51,102,75,50,8,-45,-251,-110,-59
131,33,51,6,-31,-17,13,-99,-80,-34
117,-14,-2,-60,-102,-50,75,166,54,53
98,-20,19,-14,-57,-30,85,221,66,41
116,0,33,-10,-47,-30,25,113,-4,44
102,15,54,4,-31,-62,-50,-45,-66,-27
44,19,42,-2,-26,-104,-109,-113,-14,-444
-14,20,43,-9,-20,-93,-88,-74,43,-903
-46,21,49,11,12,-56,-74,-107,0,-1123
7,12,25,-1,12,-51,-66,-129,-10,-1102
-26,1,34,7,20,-31,-26,-49,-31,-1099
19,-2,33,20,30,-53,-18,32,-55,-1022
82,-50,-5,-15,-11,-118,-43,100,61,-768
36,-77,-49,-55,-55,-137,-75,100,161,-405
-38,-58,-61,-75,-44,5,-15,68,130,-66
-79,-24,1,-12,16,103,66,38,-39,10
-95,-30,11,6,21,61,77,37,-119,52
-115,-43,-23,20,36,14,46,17,-74,147
-97,-48,18,39,59,4,8,33,-12,261
-165,-68,26,48,52,6,35,47,-9,272
-170,-59,-38,19,30,11,32,-24,-68,226
-83,-90,-160,-31,0,31,12,-89,-94,267
70,-65,-87,-70,-40,-11,5,-63,0,399
67,20,25,-29,-37,-81,-50,-86,9,438
-23,72,90,30,9,-107,-106,-140,-7,444
-81,30,44,20,33,25,-18,-93,11,393
-47,29,18,33,55,111,11,-54,-12,346
81,25,-5,5,2,12,-28,-14,-18,302
133,34,-11,0,-53,-111,-108,-34,-82,309
141,40,-6,-12,-93,-138,-98,14,-13,413
258,31,-49,-46,-105,-25,42,131,79,467
266,28,-54,-39,-76,-4,32,97,78,475
36,22,-48,-17,-38,38,36,68,50,334
-82,29,-79,1,-11,71,58,82,85,199
-86,46,-2,24,37,19,25,89,109,129
-90,58,44,60,83,3,-1,71,120,58
-74,46,39,65,57,-40,-20,76,166,114
-56,16,46,76,53,-43,-28,64,128,146
-23,11,55,74,49,-63,-82,-1,62,160
42,20,31,38,-17,-165,-163,-28,57,298
-46,-46,-71,-16,-46,-113,-58,38,20,252
-188,-87,-48,8,5,-92,-36,9,-75,94
-205,-36,38,55,-5,-167,-79,-24,-103,36
-218,9,68,55,-21,-131,-41,-41,-88,39
-174,8,5,7,-21,0,-40,-130,-54,129
-88,-36,-88,-76,-15,291,104,-77,91,333
33,34,-79,-45,35,235,37,-85,182,460
174,111,-16,5,12,-40,-79,-3,195,379
244,7,-78,-85,-57,-55,45,216,278,265
144,-115,-137,-111,-34,124,142,185,191,4
107,-53,-53,-62,4,113,34,-1,71,-39
113,14,-12,-38,10,103,13,-82,1,55
87,57,36,6,17,60,-11,-181,-232,18
45,106,89,67,54,19,-38,-228,-405,-65
-71,53,91,112,129,144,66,-138,-382,-192
-158,-20,53,105,138,195,113,-84,-299,-230
-159,-98,-33,15,38,161,111,-45,-137,-101
-115,-100,-47,-8,-13,131,77,43,-40,-32
-76,-90,-33,-22,-30,53,114,358,63,11
-89,-67,-59,1,7,75,149,378,10,-5
-96,-40,-60,-4,24,89,99,182,-42,-18
-59,-41,3,-26,3,22,0,78,1,15
15,-17,25,-24,-2,-28,-64,1,-8,0
-1,-20,-51,-30,-13,-23,-57,13,36,9
-44,-48,-134,-18,-20,31,21,45,71,44
-57,-26,-21,11,-2,46,83,111,41,-18
-53,55,93,54,40,33,41,32,-99,-92
-31,123,130,119,78,-10,-113,-199,-216,-75
-21,94,39,97,36,-77,-164,-215,-170,-17
40,-6,-141,8,-37,-117,-93,-24,-1,56
142,-45,-163,-29,-61,-94,-24,82,104,124
198,-33,-84,-41,-26,-36,0,9,73,120
211,-14,-56,-49,-32,-11,6,49,108,166
225,22,-20,-17,-17,-18,30,182,243,231
127,0,18,36,21,-62,-26,169,222,180
84,16,43,63,1,-178,-194,21,113,149
76,83,85,66,-26,-120,-150,-72,-42,18
20,65,47,23,-48,-88,-64,-46,-34,-54
-46,-15,-41,-60,-97,-155,-74,84,179,23
-98,-90,-93,-95,-95,17,29,141,314,82
-34,-65,-74,-55,2,90,-8,52,322,228
66,-2,-36,-42,26,95,-39,-16,251,343
84,91,79,62,47,50,30,7,33,86
47,129,121,114,77,17,15,-53,-172,-143
-37,41,55,86,94,246,141,-178,-377,-258
-18,23,15,62,70,295,188,-150,-335,-237
194,68,-30,21,2,69,7,-169,-152,23
232,48,-53,-25,-38,27,-79,-235,-62,163
132,41,42,-9,-26,81,-18,-148,-10,69
59,-7,26,0,-15,83,37,-51,34,72
22,-48,-42,-21,-35,54,21,-63,-32,71
-55,-49,5,9,-9,30,25,-80,-222,-229
-106,-67,0,5,-13,-19,70,21,-257,-362
-85,-88,-96,-59,-78,-105,90,226,-66,-209
-94,-55,-126,-3,-15,-56,60,164,-34,-114
-112,-20,-86,49,46,4,51,71,-33,-79
-144,-24,-65,40,39,3,49,52,-11,-90
-66,-5,35,31,4,-19,-2,17,22,-9
0,-19,43,-10,-62,-21,-58,-33,125,145
70,-65,-49,-95,-135,-80,-89,-50,272,330
124,-13,-16,-79,-127,-190,-191,-161,245,326
122,68,82,13,-33,-202,-262,-349,86,211
8,6,24,-29,-35,-77,-125,-230,40,119
-198,-86,-23,-49,-7,179,184,212,133,-89
-227,0,83,66,87,245,278,299,12,-292
-242,71,156,134,142,152,192,172,-121,-428
-227,14,84,69,86,65,102,147,-58,-341
-182,-6,53,27,31,30,45,119,-88,-271
-118,9,46,5,0,-2,-34,-3,-155,-249
-45,5,8,-18,-10,-25,-73,-46,-144,-139
30,23,15,-8,4,-60,-102,-44,-82,-60
55,15,-24,-20,24,-11,-70,-37,-18,-41
-2,5,-2,-31,44,84,5,-33,15,-60
7,36,49,0,26,29,-16,23,36,-20
-5,3,46,1,-1,-50,-48,74,89,33
-42,-49,32,-13,-3,-111,-99,30,64,46
17,-38,29,-24,-29,-195,-154,-6,59,100
17,-22,30,-28,-21,-122,-108,1,63,78
-12,-11,22,-21,25,-9,-53,-31,20,62
-3,6,21,-17,40,58,-6,-8,55,165
8,16,-6,-15,22,81,25,52,150,247
73,12,-73,-36,2,47,13,43,165,285
74,-19,-111,-11,69,40,-10,3,17,163
38,-12,-24,14,66,-2,-28,-6,-72,3
68,24,76,16,17,-73,-34,-30,-65,-70
42,1,25,-30,-42,-67,-10,-75,-123,-182
-68,-66,-38,-81,-57,35,86,-58,-186,-286
-96,-29,17,-31,11,87,105,-60,-233,-252
-4,92,103,19,39,68,6,-120,-233,-119
-5,78,69,-2,26,36,-11,-64,-83,-47
-70,-4,7,-46,-17,-28,-14,47,75,-52
-63,15,29,3,-27,-77,-40,77,78,-77
-10,48,70,44,-11,-72,-39,63,27,-100
30,17,37,7,-38,-75,-20,76,97,-3
3,6,25,6,-30,-109,-13,99,90,-1
-14,-15,8,5,-17,-27,60,119,38,-83
8,-52,-16,1,-3,95,77,83,50,-56
-36,-122,-127,-42,-15,155,110,95,110,14
-29,-138,-230,-74,-39,30,59,81,130,31
72,-55,-83,-34,-38,-115,-8,61,92,6
127,10,39,0,-45,-215,-68,45,84,82
50,11,38,15,-19,-162,-85,7,18,82
-57,-36,17,22,48,128,78,-12,-136,-115
-27,-48,47,16,50,189,104,-10,-128,-151
66,3,50,15,5,-67,-34,31,-13,-21
76,21,46,15,-16,-303,-181,19,43,97
51,9,48,21,-2,-324,-193,-19,36,132
-62,-63,14,27,55,8,36,-10,-64,-14
-64,-23,49,69,78,211,123,-47,-56,-23
64,44,80,69,16,148,81,-56,62,109
105,-4,-23,8,-19,46,11,-111,39,124
35,-61,-50,-18,-8,55,32,-132,-73,33
-36,-93,-22,-2,26,53,96,-14,-73,-69
-90,-107,-54,-22,27,65,77,15,-62,-170
-39,-48,-22,-4,9,-20,-76,-76,16,-114
75,-44,-29,-27,-32,34,-83,-107,114,108
171,-18,-40,-43,-72,49,52,100,228,270
137,-13,0,1,-27,27,122,176,90,77
62,-29,33,27,6,41,106,75,-68,-45
35,-4,58,47,29,12,24,-19,-147,-35
76,8,17,23,6,-9,12,5,-98,-2
132,7,-13,-7,-14,-20,-26,-32,-91,43
121,10,13,5,-2,-21,-44,-43,-52,57
78,7,14,5,14,-26,-8,6,4,54
83,13,28,-10,9,-29,-13,-46,-16,70
42,50,46,33,37,10,-5,-67,-90,-25
-26,41,48,71,55,29,16,-13,-72,-96
-56,22,43,65,58,13,8,-15,-58,-98
-58,10,-62,40,49,-24,-17,-61,-41,-102
-47,-38,-179,1,16,-47,-17,-48,34,18
-92,-64,-166,10,20,-37,24,19,84,113
-86,-38,-25,55,55,-29,43,12,44,50
-44,-15,-29,52,54,22,75,24,0,-51
16,2,-4,33,34,34,115,82,44,-24
72,26,75,28,3,-67,22,33,97,36
53,7,30,-26,-22,-18,25,-18,123,6
46,1,0,-59,-33,52,46,-43,113,32
106,12,13,-66,-61,-90,-100,-92,92,123
102,25,20,-54,-61,-131,-84,-6,29,42
42,-17,-10,-48,-30,-14,42,78,7,3
79,-5,-32,-71,-19,73,17,-60,-49,103
112,75,20,-16,30,138,-28,-199,-125,122
73,77,46,2,22,97,-29,-161,-35,199
-19,32,15,-3,-6,-22,-48,-62,65,210
-81,40,36,12,12,4,25,-4,9,-36
-108,31,20,11,23,14,38,-39,-56,-218
-121,-33,-40,-36,-12,-17,32,11,7,-180
-62,-6,-12,-43,-24,-44,2,-12,-32,-107
22,44,29,0,3,-71,-44,-73,-133,-91
43,54,24,4,5,-50,-36,-21,-123,-78
8,47,26,-2,15,-10,0,34,-90,-64
-25,41,29,-9,18,13,22,-21,-69,-49
-50,37,15,-8,37,15,23,-60,-25,-74
-77,20,-22,-11,40,-3,9,-27,37,-79
-129,-28,-12,-21,2,-36,33,56,65,-94
-134,-32,-27,-24,-2,-55,13,46,55,-14
-73,-1,-71,-67,-42,-47,31,140,148,121
-12,31,-79,-73,-65,-71,10,162,128,69
5,74,14,-2,-57,-132,-88,39,11,-30
-8,86,55,30,-12,-112,-78,18,-61,-131
-68,20,-47,-4,5,-33,36,131,-81,-216
-72,3,-54,-25,-9,-4,58,126,-70,-124
-45,-1,-8,-42,-22,62,95,77,-50,30
-61,-27,21,6,33,83,58,-17,-22,66
-7,-15,28,2,21,17,12,-44,41,37
52,-19,4,-35,-32,-15,9,30,118,14
24,-25,-28,-32,-26,3,24,97,181,-25
64,-57,-33,-35,-14,-15,68,170,268,5
135,-57,-23,-30,-33,-92,-15,106,292,230
83,-43,-12,-22,-32,-90,-8,85,158,212
-69,-77,-26,-40,-4,10,62,95,-43,-72
-108,-52,-15,-35,-14,18,0,-3,-63,-97
-90,8,32,-6,-32,-127,-120,-84,-20,23
-91,0,28,-2,-24,-182,-137,-55,-14,63
21,45,37,5,-6,-58,-28,-16,-11,110
8,7,3,-1,64,280,224,3,-120,-77
84,26,19,7,83,246,173,-38,-166,-55
147,86,50,18,18,-107,-61,-69,-68,57
117,60,-17,-19,-50,-227,-104,-32,36,131
70,21,-10,-43,-48,-60,-10,-43,13,154
3,-26,0,-55,-23,188,133,-11,10,85
-59,-56,18,-17,57,226,166,28,-50,-60
0,-6,73,44,112,139,84,-3,-86,-73
71,37,66,42,74,51,5,-54,-130,-20
47,8,40,10,36,7,-5,-46,-157,-41
-2,-23,-3,-22,23,39,60,-17,-138,-93
-57,-56,-107,-36,29,48,56,40,-57,-136
-12,9,-132,-21,14,-38,-14,55,38,-57
83,46,-55,-22,-5,-94,-56,15,4,7
142,70,68,1,3,-112,-106,-52,-83,18
114,60,88,15,3,-83,-126,-97,-91,9
53,31,52,-15,1,11,-97,-146,-75,-29
14,16,26,-22,0,70,-64,-145,-8,-22
-56,11,10,-23,6,27,-45,-29,33,-99
-114,-3,16,-18,11,5,-43,-10,-46,-139
-186,-74,23,-1,24,-6,-50,-34,-46,-110
-162,-58,45,22,34,-11,-14,68,46,-89
-3,-3,37,-7,-9,-14,-9,122,76,33
10,-7,13,-37,-37,-36,-57,84,77,115
-85,-34,-28,-18,0,27,-32,39,8,50
-49,15,28,28,36,16,-84,-43,16,58
2,50,85,42,22,-63,-123,-50,119,103
-21,18,63,30,-3,-165,-130,-33,175,144
-25,-20,27,15,0,-160,-142,-119,109,162
