13,-4,-30,28,4,-32,-25,38,-1,-14
14,-11,-29,21,5,-21,-24,46,12,29
31,-28,8,21,6,-28,-19,53,22,84
58,-17,18,25,1,-46,-33,41,10,97
64,-25,24,10,4,-44,-32,40,45,47
46,-43,8,-3,-8,-32,2,37,54,2
23,-17,17,6,-8,-10,16,21,9,-47
-30,-7,3,23,14,1,37,35,-23,-104
-48,-9,-43,23,14,-1,9,33,-55,-102
-8,-11,-110,0,-7,-3,-22,23,-79,-47
14,-3,-175,1,-22,-16,-8,22,-67,-14
17,0,-101,17,-6,-19,-5,14,-72,-27
13,1,-5,12,-4,-10,-27,11,-77,-49
23,4,11,10,-11,-26,-41,16,-44,-27
72,22,30,9,-7,-23,-29,41,46,63
97,26,40,28,-2,-5,-12,76,84,126
47,32,44,39,21,-8,-16,56,61,82
-8,7,19,20,15,-4,-27,20,2,33
-14,3,2,12,-3,-1,-20,8,-33,52
-18,2,18,27,6,2,-18,-13,-61,12
-31,15,15,24,-8,-2,-15,0,-15,-12
-6,34,18,15,-15,-2,32,53,97,16
-61,-3,-53,2,6,21,91,45,63,-42
-60,9,-26,-7,1,4,50,5,27,-47
-29,16,0,-11,-3,-25,24,-10,42,0
1,7,0,-12,-13,-19,8,-29,11,0
12,0,10,-15,-13,-11,-16,-50,-12,14
24,-6,17,-19,-5,-12,-18,-56,-21,21
34,-1,19,-6,3,5,-9,-47,-40,0
5,9,31,-2,8,3,-8,-54,-54,-39
-12,20,36,6,17,4,18,-51,-47,-76
-17,16,32,9,9,16,31,-41,-30,-63
-6,18,22,11,9,24,48,-32,-9,-12
0,9,16,7,3,23,50,-22,2,-16
-15,1,13,10,-9,14,31,-28,-3,-56
-23,-4,5,-6,-11,27,32,-34,-5,-62
-23,-17,8,-1,-2,36,38,-39,-10,-69
-18,-9,0,4,9,32,29,-36,-11,-66
-17,5,-2,9,19,23,24,-19,0,-52
-6,7,7,10,22,14,18,-12,10,-30
3,10,14,7,22,14,-19,-13,2,-9
-4,11,-59,-1,16,12,-26,-31,-16,-10
0,29,-52,7,22,9,-19,-44,-33,-40
9,27,2,11,13,-3,-22,-44,-32,-46
44,26,-4,7,7,-13,-45,-54,-50,-14
85,19,-3,-4,18,-17,-66,-61,-58,20
128,19,-4,-22,5,-42,-60,-46,-25,70
158,21,4,-43,-3,-18,-28,2,44,137
78,23,25,-23,27,16,27,48,85,99
-45,8,-12,-7,43,33,49,56,63,-21
-99,-11,-112,-8,35,21,34,44,14,-110
-62,-12,-58,7,36,13,6,22,-10,-155
-5,-15,34,9,27,12,-2,1,24,-119
25,-13,37,18,28,-15,-23,-19,28,-66
25,-15,-41,27,43,-21,-17,-35,10,-53
22,-1,-51,19,30,1,25,-37,-16,-56
34,17,-14,10,11,0,45,-20,-20,-53
31,14,-14,6,5,-10,20,-16,-10,-43
24,-1,60,10,2,2,-12,-31,-9,-36
-16,-3,66,21,-1,-2,-20,-29,-16,-29
-59,-4,45,19,-11,-24,-13,-20,0,-25
-60,-12,39,10,-8,-21,5,1,9,-15
-44,-22,30,12,-6,-17,11,-8,-14,-26
-40,-15,19,25,-16,-42,-23,-42,-21,-27
-25,7,8,35,-7,-76,-61,-48,-2,0
-22,-6,4,41,-1,-55,-42,-38,16,12
-22,-27,-6,15,-12,-16,12,-29,14,18
5,-25,-6,3,-14,7,52,0,51,25
11,8,8,7,1,12,55,15,47,21
8,25,0,10,1,-6,26,18,48,33
-5,8,-4,-7,-12,0,-1,12,38,33
-9,-3,-14,-18,-9,43,9,2,15,4
-16,6,-8,0,11,54,37,-1,8,-18
7,23,-1,21,13,33,56,11,19,-10
23,10,5,21,5,6,47,19,-2,-11
-7,4,0,12,5,11,38,19,8,-10
-28,43,-14,18,2,11,9,14,26,-18
-31,40,-25,20,-2,10,-39,1,-8,-32
-15,33,-104,18,-14,-8,-48,-10,-44,-32
1,44,-37,2,-11,7,-52,-23,-58,-20
2,36,13,-2,-13,26,-52,-31,-86,-15
-21,34,-11,-10,1,16,-50,-36,-82,-19
-19,20,-33,-18,6,19,-29,-19,-68,-2
-17,3,16,-14,7,20,21,1,-40,27
4,12,29,-3,-5,19,33,4,-23,65
32,10,-15,-12,-15,10,8,1,-29,69
51,14,-60,-19,-16,12,-1,-21,-68,21
41,7,4,-3,-1,16,-2,-55,-104,-35
21,11,20,14,11,25,-14,-67,-108,-45
-18,4,-67,20,28,32,-12,-39,-58,10
-25,12,-48,-1,8,8,-8,6,27,63
37,18,20,-43,-43,-54,-28,59,142,187
63,28,32,-39,-53,-65,-42,48,146,214
20,34,27,-11,-29,-57,-63,0,75,128
0,28,-29,-2,-18,-75,-79,-26,47,66
39,35,0,-3,-29,-71,-81,-9,40,20
29,31,48,1,-16,-19,-43,1,-2,-75
11,8,26,-1,-3,0,1,5,-51,-88
13,18,-51,-18,-8,-2,37,8,-31,-19
23,37,-6,-6,-10,-25,25,5,6,49
-13,5,36,4,16,-5,25,2,-1,54
-8,-13,12,-22,12,21,53,0,-12,86
36,-15,-25,-25,0,7,62,-4,4,98
67,13,-31,-10,1,-36,29,-10,15,75
40,23,39,15,16,-23,6,-4,-3,-22
-15,7,48,27,40,-1,17,16,3,-96
-22,2,33,16,29,10,34,38,31,-52
-9,-21,25,6,22,52,40,58,58,1
-2,-15,35,8,27,85,44,53,60,7
11,-15,46,8,12,73,36,17,45,29
0,4,26,10,7,55,54,17,23,13
-20,-12,-79,-13,0,57,79,16,-11,-39
-38,-35,-149,-31,-12,49,86,-24,-47,-144
-82,-52,-46,-11,0,52,88,-16,-40,-192
-77,-29,2,8,1,54,71,0,-54,-168
-21,-28,8,5,-13,41,46,-21,-66,-112
15,-16,15,7,-17,33,37,-20,-50,-32
19,5,33,20,-9,29,46,-6,-32,-5
-46,27,55,36,3,45,33,-1,-37,-47
-104,12,50,42,9,45,1,-1,-59,-70
-81,4,-48,39,12,35,6,-1,-48,-66
-58,-8,-26,46,23,30,14,3,-6,-36
-63,-10,43,58,31,31,21,10,-9,-48
-39,-9,66,52,21,19,13,6,-16,-33
-28,12,67,41,7,2,-14,4,32,35
-32,9,54,41,0,0,-38,8,60,67
-9,11,39,34,-3,3,-31,11,48,78
5,31,21,19,2,6,-22,0,13,52
32,37,-38,13,12,3,-29,1,-8,47
61,35,-37,2,-6,-24,-27,6,-4,118
88,27,13,-12,-11,-25,-17,-3,14,207
137,20,33,0,-7,-2,-14,-45,-36,266
186,47,47,7,-7,-19,-29,-91,-126,258
141,67,50,19,-3,-17,-33,-111,-198,126
-22,27,7,53,31,44,25,-61,-195,-50
-124,-23,-36,36,24,42,22,12,-72,-136
-80,2,7,14,-6,6,-14,60,105,-140
-27,11,13,-6,-29,-13,-24,89,225,-77
2,37,17,-27,-39,-33,-20,91,235,5
-17,72,26,-2,-3,-17,-16,69,149,-77
-32,80,37,17,20,-7,-10,38,26,-114
8,79,12,-8,-6,-29,-28,30,15,-20
61,81,-4,-27,-19,-61,-60,11,68,87
82,89,14,-23,-16,-62,-62,2,83,154
98,98,19,-11,-25,-45,-11,-2,95,184
71,90,-16,-5,-14,-52,18,-12,76,104
-27,86,-54,-16,-4,-20,33,20,43,-74
-106,59,-15,-19,-3,27,69,55,3,-187
-87,51,-13,-28,-26,42,70,39,-29,-196
-10,52,-6,-17,-35,46,55,18,-25,-130
60,48,0,17,-12,50,52,29,0,-45
68,46,15,44,9,51,56,53,20,14
33,58,16,44,31,35,21,37,27,14
55,68,-44,28,14,1,-13,5,12,31
76,39,-21,27,-9,-22,-11,-6,-27,28
61,-5,-14,21,-28,-26,22,-14,-28,20
73,-30,-108,5,-47,-16,29,-17,-28,31
1,-38,-121,4,-30,-14,22,-35,-57,-17
-151,-40,3,34,5,9,35,-40,-94,-118
-206,-47,54,60,29,59,59,0,-104,-161
-178,-42,48,59,32,59,59,9,-93,-150
-151,-16,31,50,17,27,44,-2,-79,-121
-116,1,22,17,-13,-18,21,10,-14,-44
-58,11,26,5,-13,-25,-1,18,42,19
-33,-3,26,10,19,-4,3,9,21,24
-58,-16,30,30,44,20,6,-13,-43,-22
-58,-20,30,29,52,9,8,-10,-56,-7
-25,-10,12,22,42,-34,-21,0,-29,71
35,-17,-14,-12,11,-100,-98,-6,38,143
61,-27,-16,-30,-23,-113,-137,-10,86,162
51,-10,-53,-6,3,-69,-96,1,18,99
96,16,-85,17,23,-71,-98,0,-10,86
128,28,-18,20,18,-86,-146,-46,-6,143
150,17,-38,23,2,-104,-185,-117,-2,249
190,2,-94,-6,-50,-98,-147,-121,53,335
131,-21,-37,-20,-57,5,52,-54,52,195
-24,-36,-8,-3,-17,68,130,1,4,-113
-62,-6,3,11,18,54,66,26,71,-179
-28,-9,14,29,24,42,27,5,63,-120
3,-3,32,46,31,14,-53,-46,-51,-95
69,28,56,32,11,-37,-122,-68,-55,-9
53,-13,-7,-31,-54,-38,-36,40,90,78
-113,-113,-81,-62,-64,62,205,162,116,-52
-198,-130,-50,-23,-5,133,237,119,-10,-212
-171,-96,-27,5,2,122,169,78,-36,-210
-106,-64,-7,24,6,83,138,58,-42,-165
-75,-39,29,35,24,44,84,13,-69,-171
-27,-36,14,32,17,2,0,-38,-57,-99
2,-6,8,32,25,-8,-53,-66,-9,-30
-9,4,27,41,42,41,-4,-35,36,-10
-5,-15,14,20,-2,46,10,-1,13,65
56,12,0,-8,-25,-11,-66,-4,53,185
91,33,-12,-19,-29,-31,-96,-38,17,171
22,6,-13,-6,-13,20,22,6,17,63
-45,-28,-15,5,3,54,120,52,32,-92
-76,-21,-11,-1,5,13,50,29,2,-217
-106,-33,-19,7,1,-9,-4,12,1,-199
-71,-38,-17,10,3,-16,-10,6,-2,-128
-18,-17,-23,6,0,-20,-10,-1,-25,-82
-1,-25,-17,5,-1,17,7,-2,-32,-61
8,-24,4,0,4,54,28,-4,-37,-29
39,-30,17,5,4,42,41,-2,-36,1
26,-19,2,15,2,21,41,4,-27,15
-32,-45,-30,16,12,18,32,14,-23,9
-44,-48,14,1,11,13,1,15,-26,9
-27,-48,19,-10,-8,8,-31,0,-21,2
-6,-38,21,-1,-14,8,-32,-2,-14,14
-7,-29,9,-1,0,15,-36,1,-6,39
27,-8,9,-11,10,0,-33,1,-10,48
64,-4,-3,-18,13,-12,-19,-9,-9,64
51,22,0,-16,11,-19,-6,-21,-19,62
67,18,7,-2,-7,-29,-16,-39,-35,60
89,21,-12,0,-21,-22,-35,-37,-28,80
84,21,-73,5,-9,-11,-12,-39,-21,133
50,5,-28,5,-4,-25,1,-60,-49,124
80,7,8,3,-5,-35,-12,-67,-67,117
82,24,7,14,4,-8,-18,-47,-67,82
15,0,-5,19,18,10,-16,-29,-73,-9
-87,-17,-95,27,42,21,-10,-19,-85,-181
-126,7,-142,38,66,34,0,-6,-60,-282
-109,4,-120,30,58,4,7,-2,-8,-202
-78,9,-86,19,43,-57,-22,0,23,-93
-72,0,-123,2,16,-68,-38,24,59,-39
-35,0,-60,-3,14,-65,-33,-2,47,-39
7,48,41,12,26,-69,-92,-33,70,-14
7,41,46,11,9,-74,-117,-30,66,43
4,-8,48,3,-9,-28,-66,-4,46,66
11,-5,50,3,-11,24,-18,11,17,93
44,15,71,20,-2,52,0,11,-3,91
45,24,78,36,6,61,23,-6,-19,46
55,28,75,17,-4,44,23,-25,7,24
70,27,64,0,-12,45,47,-10,39,41
26,20,62,6,7,49,46,4,73,52
-34,-21,56,16,25,39,24,-20,39,-2
-44,-41,43,11,11,24,20,-21,16,-35
-40,-50,45,9,0,24,14,-21,0,-52
-58,-43,43,14,9,36,52,-9,-12,-61
-27,-50,45,14,-2,31,61,-13,-36,-34
44,-44,49,4,-20,9,24,-31,-44,13
87,-38,55,3,-23,-5,1,-42,-42,59
108,-21,53,5,-32,-7,18,-50,-56,90
73,-17,24,7,-41,-2,38,-47,-55,78
-20,-49,-9,11,-54,-9,39,-42,-51,-4
-105,-83,18,37,-21,13,37,-38,-87,-126
-117,-66,36,65,12,-25,22,-36,-105,-160
-110,-67,37,46,1,-129,-30,-58,-99,-90
-34,-67,25,5,-32,-207,-95,-68,-34,90
63,-34,19,-13,-47,-226,-150,-76,15,289
153,-14,0,-44,-89,-247,-200,-49,99,500
223,4,-23,-76,-113,-150,-224,-63,152,615
236,-1,-67,-87,-79,40,-156,-81,101,440
160,4,-95,-56,-45,126,-24,3,86,94
15,7,-15,16,9,50,34,66,54,-188
-38,56,22,77,51,-24,-14,46,-10,-353
-114,46,26,128,105,40,13,51,-72,-454
-193,-7,38,156,104,54,3,37,-77,-424
-117,3,89,121,54,25,-78,-5,-35,-286
-52,10,73,33,-8,66,13,5,4,-167
-43,36,38,-15,-30,105,127,-25,-80,-101
-11,66,35,-5,10,63,102,-50,-87,-54
38,142,55,21,46,-2,-3,-97,-93,-25
54,189,36,9,44,3,37,-81,-162,-58
19,188,-74,-13,24,15,143,3,-140,-94
-8,188,-155,-30,-12,-42,116,82,-33,-63
27,256,-57,-23,-36,-130,17,97,82,27
25,418,-8,-27,-43,-180,-10,70,186,132
-59,489,6,3,-11,-114,54,18,193,136
-99,480,13,61,18,-33,92,2,143,104
-6,527,1,97,42,2,44,-15,50,86
77,598,114,144,67,-18,-50,-14,-32,15
39,654,188,219,119,17,-118,-9,-57,-102
83,679,186,226,149,21,-166,-38,-90,-69
192,646,110,112,69,-140,-305,-69,15,205
250,621,7,-14,-22,-399,-483,-86,188,427
194,584,-125,-93,-103,-586,-555,-154,116,311
34,485,-153,-80,-110,-486,-326,-145,-11,-6
-130,387,-153,-22,-46,-168,-24,-32,-63,-262
-154,417,-61,11,22,78,88,31,-33,-284
-139,501,33,6,40,182,67,59,84,-122
-153,489,-16,-16,43,359,131,100,159,22
-148,455,-83,-59,19,474,247,96,131,12
-118,431,-89,-102,-20,420,346,173,168,-4
-105,391,-78,-79,-21,266,308,175,140,-42
-54,371,-2,36,16,111,116,83,72,-62
-28,346,70,126,57,78,66,21,1,-55
-86,252,20,98,74,157,179,40,-47,-111
-116,159,-90,29,66,201,269,74,-50,-102
-89,102,-100,0,47,187,277,84,-41,-58
-31,122,-71,-19,33,110,143,28,-51,-19
20,164,-64,-47,32,41,47,-14,-64,10
-4,146,-46,-83,23,31,29,-14,-54,-17
-18,71,-116,-135,-30,0,10,-23,-28,1
-15,-3,-94,-109,-68,-16,-17,-43,0,70
0,-52,11,-43,-38,-31,-58,-65,-23,16
-2,-131,44,14,11,-31,-46,-67,-33,-54
4,-224,19,9,20,-14,-20,-36,-8,-63
26,-293,-16,-21,23,-3,-15,-25,-6,-68
87,-303,-36,-18,15,-1,-17,-35,-12,-22
82,-308,-36,8,23,-1,-13,-34,-5,30
42,-336,-20,0,26,-21,-8,-31,4,70
45,-97,-22,2,15,-31,-28,-30,29,106
26,903,-10,8,10,-20,-70,-28,24,110
-16,1415,-19,1,7,-20,-86,-27,21,73
-84,1677,-35,-6,4,-32,-77,-21,1,21
-66,2629,-29,-2,7,-24,-64,-13,-10,42
13,2928,-19,8,-6,-24,-78,-17,-17,86
73,2651,-12,36,4,-40,-98,-27,-34,36
-17,2367,19,60,26,-32,-75,-19,-26,-110
-137,2204,55,68,48,-10,-36,-2,16,-205
-75,2533,77,80,54,0,-10,0,41,-102
-19,2748,18,69,27,-21,-31,-21,-12,-57
-18,2452,39,61,1,-26,-65,-29,-68,-83
-9,2039,40,50,-16,-20,-59,-35,-62,-86
17,1726,14,37,-13,-32,-42,-38,-53,-8
64,1613,-56,34,-22,-44,-64,-41,-38,135
75,1446,-121,37,-31,-54,-104,-48,-15,202
98,1247,-100,51,-19,-62,-105,-52,-26,155
104,1036,-18,68,-18,-72,-82,-66,-61,16
42,779,57,73,-16,-64,-67,-84,-76,-156
-79,785,97,89,9,-39,-52,-68,-81,-217
-95,955,126,110,34,-19,-30,-16,-53,-164
-1,887,105,120,29,-3,-19,12,-25,-34
-15,792,79,114,21,-16,-15,28,-20,48
-53,686,71,113,4,-28,-11,30,-25,98
-33,581,64,93,-30,-63,-35,16,-31,101
-19,519,45,61,-46,-78,-73,4,-23,66
-6,546,21,35,-60,-91,-82,3,-21,22
-2,586,15,15,-74,-113,-101,-15,-10,-60
5,599,6,3,-68,-110,-86,-15,-25,-92
12,611,12,17,-43,-83,-14,9,-9,-60
-12,555,0,15,-21,-58,37,22,2,-64
-12,441,-3,23,-21,-43,37,26,-3,-43
-3,198,7,43,-14,-47,-30,7,-29,-23
-8,-120,-19,27,-22,-71,-34,0,-17,-17
-36,-864,0,9,-19,-76,-37,0,-32,-32
-22,-1287,-40,2,-25,-84,-41,16,-12,-29
26,-1399,-79,-5,-28,-81,-34,28,12,-8
46,-1457,-7,1,-23,-80,-35,21,-24,-1
42,-1499,7,10,-20,-75,-43,6,-37,-20
54,-1510,3,13,-15,-70,-44,13,-27,-13
52,-1430,0,6,-2,-69,-64,10,-26,16
29,-1233,0,17,6,-80,-73,-5,-9,28
35,-1073,-8,2,-18,-99,-29,19,35,96
60,-1047,-13,-12,-39,-113,-22,36,72,175
82,-1055,-12,8,-15,-108,-48,-7,4,177
46,-1046,-16,33,0,-121,-51,-15,-50,112
0,-1052,14,55,7,-133,-26,11,-30,0
6,-1114,19,45,13,-140,-31,20,-3,-92
28,-1302,39,56,31,-133,-66,6,73,-104
48,-1452,50,64,59,-85,-76,-1,129,-49
61,-1516,49,38,29,-62,-66,37,135,65
72,-1801,36,26,8,-64,-35,37,58,83
79,-2041,-68,-34,-32,-95,15,47,51,69
56,-1410,-83,-68,-71,-143,14,73,115,69
22,-734,-18,-1,-37,-200,-77,39,117,42
-1,-749,-3,7,-23,-213,-101,-10,37,-27
11,-792,-5,-18,-33,-172,-62,-25,8,12
27,-813,-10,-15,-22,-92,-43,-34,9,71
-8,-824,-15,1,-13,0,-8,-12,28,57
-19,-759,-25,0,-13,67,16,39,75,52
5,-542,7,62,5,58,10,35,78,22
-11,-362,51,127,11,-19,-3,5,9,-98
5,-292,78,123,-19,-66,-18,-30,-51,-167
-16,-252,110,102,-4,-46,-19,-29,-65,-145
-20,-229,113,68,12,-23,-14,-9,-60,-117
-6,-220,102,32,10,-34,-41,-25,-71,-84
6,-253,2,-13,23,-29,-25,-37,-103,-54
-3,-282,-73,-82,33,-36,-19,-38,-126,-50
-5,-259,-49,-48,45,-72,-59,-43,-134,-46
31,-235,19,18,46,-130,-113,-44,-82,25
75,-273,-14,-26,-4,-128,-93,1,33,203
104,-325,-63,-81,-36,-110,-111,8,120,318
135,-333,-57,-82,-61,-153,-175,-13,147,399
109,-400,-63,-76,-97,-156,-126,7,147,369
-4,-535,-95,-102,-130,-146,27,18,78,195
-103,-598,-66,-104,-93,-93,168,44,7,26
-110,-454,-17,-41,1,-28,135,43,-65,-199
-64,-104,31,21,53,-1,68,44,-84,-352
-85,-17,23,9,69,108,106,73,-53,-365
-93,-48,-17,-49,48,206,174,78,-29,-224
-41,-7,-73,-64,-21,120,145,65,-6,-11
13,15,-110,-71,-58,-15,48,54,19,39
-18,-1,-36,-35,11,17,28,50,51,-58
-73,-45,4,33,84,84,63,42,21,-176
-73,-86,39,70,95,69,10,-17,-26,-219
-47,-125,46,53,72,12,1,-46,-43,-151
-25,-209,11,0,3,7,53,-12,-34,-64
-21,-274,-11,-15,2,46,50,13,-22,3
-61,-312,10,2,30,75,30,25,-3,-12
-81,-196,37,14,52,70,37,14,31,-54
-45,528,29,-9,33,33,40,-16,19,-18
-8,988,-1,-42,-2,6,16,-6,13,33
-31,1017,-57,-35,-10,7,11,11,-11,45
-21,992,-103,-16,-15,0,5,-6,-39,42
4,945,-62,-18,-15,-17,-45,-30,-82,36
4,859,56,-5,11,-39,-92,-55,-114,-2
-13,716,63,4,34,-41,-120,-45,-109,-13
-28,569,35,-13,30,-71,-138,-19,-37,9
-24,473,28,-23,23,-86,-151,-31,24,43
35,381,26,-30,9,-64,-103,-32,46,94
93,296,23,-33,-1,-12,-39,-56,-33,53
42,179,16,-63,-13,67,106,-26,-111,-45
-3,65,22,-93,-30,94,208,33,-100,-24
46,-4,62,-76,-15,36,96,38,-30,141
49,-88,39,-36,25,20,5,14,2,211
17,-170,64,6,38,-5,-70,-28,-18,193
36,-254,88,-3,18,-9,-78,-64,-56,155
11,-343,39,-48,-7,65,57,-54,-102,-26
-39,-402,7,-59,-8,102,118,-32,-119,-164
-42,-421,30,-20,5,48,54,21,-63,-170
-45,-465,2,-37,-30,-2,-9,65,24,-204
-101,-507,-14,-34,-8,44,-1,25,-35,-274
-96,-543,-17,-40,4,66,24,-20,-98,-228
-63,-585,6,-67,-16,65,24,-45,-106,-141
-55,-602,-26,-50,-26,48,17,-59,-97,-71
-14,-609,-120,-48,-42,-4,-31,-14,17,35
0,-637,-107,-35,-18,3,-11,-3,51,45
7,-652,16,-13,9,19,47,-30,-10,9
0,-626,81,36,56,-23,3,-76,-67,-30
-59,-634,59,34,63,-110,-81,-60,-17,-10
-86,-661,40,-4,34,-156,-148,-43,17,39
-21,-666,33,-21,10,-220,-214,-59,27,69
26,-665,49,-13,-10,-297,-276,-94,12,102
3,-679,36,-21,3,-226,-252,-128,-30,41
28,-687,32,-35,-12,-121,-202,-140,-23,32
78,-672,60,-22,-15,-97,-142,-86,83,109
39,-689,55,3,25,39,-19,-42,74,67
-7,-715,50,-13,46,244,219,19,1,-25
-73,-750,22,-54,12,264,369,89,31,-133
-119,-750,-33,-95,-29,217,301,84,13,-218
-70,-694,-25,-78,-18,209,193,79,25,-136
11,-660,-32,-70,-13,135,99,106,94,-7
56,-644,-80,-55,-33,-27,-50,83,114,24
59,-597,-24,-20,-11,-130,-143,34,73,-19
23,-566,46,11,19,-139,-132,-27,-24,-108
-19,-568,37,16,17,-112,-81,-38,-29,-144
-49,-550,37,-6,-4,-87,-44,21,45,-61
-73,-546,25,-29,-20,-40,24,55,100,53
-50,-542,4,-42,-32,29,108,28,77,101
-20,-502,4,-36,-35,83,156,-30,11,62
-47,-464,0,-27,-26,162,266,-11,-20,-26
-44,-475,-36,-69,-54,214,259,20,-25,-12
-45,-534,-73,-105,-77,244,218,34,4,34
-30,-517,-50,-90,-80,185,151,5,17,37
7,-485,-36,-83,-79,89,36,-35,15,47
-32,-492,-21,-43,-38,65,38,10,35,2
-34,-484,-31,-11,-32,39,61,19,21,-30
-13,-463,-46,3,-36,22,37,-36,-37,-69
-26,-424,-27,18,-1,43,45,-12,-49,-110
-1,-409,-12,62,21,56,48,17,-37,-51
23,-413,-68,71,26,94,71,22,-37,10
18,-419,4,39,26,91,67,12,-44,35
4,-414,73,-3,-3,37,16,-34,-66,22
-62,-426,37,-45,-24,11,-12,-33,-52,-29
-65,-411,13,-28,-13,-10,-5,5,-9,-49
-20,-364,12,-6,-9,-19,9,18,11,-33
13,-280,-22,-4,-13,-19,5,6,5,-26
16,-20,-22,0,-23,-34,-18,-14,-25,-23
-10,130,29,6,-15,-37,-49,-28,-54,-36
-37,116,22,5,-2,-47,-62,-34,-44,-51
-34,97,-25,1,-2,-48,-61,-26,12,-12
-11,104,-24,-1,3,-39,-75,-6,63,19
-34,76,-14,-9,-5,-50,-77,1,7,-3
-51,33,-27,-12,-8,-45,-81,2,-20,2
-22,24,-17,-8,-7,-61,-71,-13,6,26
-11,1,-12,-14,-7,-87,-71,-4,1,41
-11,-25,3,-8,9,-40,1,22,-19,37
0,-59,-5,2,27,13,69,35,0,23
23,-89,-21,9,10,-19,24,33,52,74
52,-119,-18,14,-17,-68,-65,5,59,157
70,-141,21,0,-43,-79,-101,-34,31,206
23,-195,62,-28,-47,-66,-68,-34,-2,209
17,-196,73,-15,-16,-73,-44,-24,-1,170
17,-198,63,1,11,-62,-21,0,8,73
14,-227,46,-1,17,-27,10,10,25,-35
60,-238,37,15,12,-36,-2,-30,-12,-58
59,-265,14,19,4,-42,0,-37,-36,-55
47,-278,60,14,11,-39,3,-43,-68,3
39,-316,69,27,36,-20,15,-35,-57,77
11,-367,24,47,65,-19,-3,-13,-30,35
-25,-370,41,45,64,-57,-32,-1,-20,-52
-43,-369,48,0,23,-96,-65,-3,-20,-99
-4,-364,-50,-21,0,-111,-66,17,-14,-115
57,-344,-30,-8,-2,-123,-52,9,-17,-76
47,-361,6,-19,-6,-96,6,3,10,60
-20,-411,-76,-22,0,-45,30,17,21,170
-48,-468,-44,-20,3,-39,45,41,43,262
-31,-456,-1,-20,5,-42,67,51,64,306
-8,-413,-79,-11,18,-83,44,44,108,255
-37,-397,-90,-7,16,-92,29,49,139,104
-59,-367,0,-25,0,-83,14,56,98,59
-23,-316,56,-4,6,-86,-38,12,22,35
-28,-288,90,26,27,-83,-58,-36,-75,-121
-52,-282,94,23,14,-116,-78,-48,-148,-269
-111,-293,91,35,19,-104,-42,-8,-155,-336
-159,-295,64,60,63,-59,-8,-24,-216,-355
-108,-312,73,47,64,-26,-17,-65,-209,-244
-5,-308,48,16,43,-21,-14,-35,-97,-69
54,-259,36,-1,13,-45,-50,21,52,83
102,-229,19,-33,-29,-36,-44,78,159,215
80,-234,1,-52,-40,3,22,89,203,279
51,-222,13,-30,-27,-12,26,56,162,274
58,-225,4,-25,-21,22,64,55,91,192
41,-249,12,-15,-13,42,103,40,0,20
38,-237,-22,-16,-19,38,111,3,-80,-97
45,-197,-44,-6,-21,2,80,4,-60,-73
-3,-203,27,5,-10,-9,57,21,-22,-69
-55,-216,45,-4,-10,-20,30,17,16,3
-43,-202,33,-13,-22,-32,16,2,48,111
-3,-156,46,-1,-8,-58,-1,0,50,179
28,-97,79,31,11,-92,-66,-48,21,239
73,-56,90,38,25,-116,-129,-111,-24,215
82,-55,63,19,18,-125,-108,-112,-71,95
51,-96,28,22,17,-151,-98,-71,-80,-61
-5,-118,0,25,21,-124,-97,-55,-112,-167
-60,-112,-27,-2,3,-18,-36,-20,-86,-162
-23,-104,-26,-36,-2,128,62,19,-25,-21
52,-64,-20,-18,16,154,65,48,34,125
94,-27,-35,9,12,51,-1,43,73,193
106,0,14,-1,0,0,-42,38,78,160
87,41,67,10,20,7,-56,63,107,60
28,44,72,19,20,-11,-63,119,175,-17
8,47,58,18,12,-45,-123,114,188,24
32,32,-4,16,-1,-74,-174,80,193,218
117,43,-87,21,-31,-167,-273,-20,140,363
121,18,-131,-9,-49,-159,-257,-68,77,393
44,-33,-128,-66,-47,34,-20,-31,14,245
-44,-66,-34,-66,-2,172,101,-16,-72,-69
-69,-7,34,5,34,119,46,-7,-73,-232
-62,28,41,38,50,38,5,9,-71,-247
-107,33,96,66,88,64,48,69,-62,-362
-138,37,80,76,84,63,61,137,22,-408
-81,40,80,39,69,-8,-25,83,26,-284
-33,79,129,39,63,-93,-125,-8,-22,-184
2,112,151,51,31,-174,-210,-47,-2,-105
13,103,120,12,14,-193,-242,-40,33,-24
-40,62,56,-12,20,-29,-96,-46,-14,-63
-126,31,-29,-17,11,207,148,-27,-81,-138
-105,74,16,8,14,243,171,-7,-70,-87
-61,115,-13,26,3,105,81,0,-27,-38
-19,132,-97,20,-10,-4,2,13,32,12
48,128,25,-4,-27,-64,-182,-32,15,72
28,116,66,25,-1,-23,-147,-72,-58,36
-21,120,78,44,18,49,-71,-68,-92,11
-51,107,38,23,15,68,-73,-89,-111,-2
-71,108,-1,1,42,137,-36,-115,-136,-52
-17,147,56,7,26,143,22,1,-38,-17
37,160,89,3,-7,77,56,96,78,46
58,172,66,0,-26,-14,-32,68,107,136
97,179,35,-29,-38,-70,-99,44,171,281
119,162,26,-75,-47,-86,-107,-2,152,367
94,126,-12,-98,-55,-49,-79,-30,59,312
44,148,11,-46,-8,-62,-76,-6,13,167
32,212,86,24,43,-193,-182,-54,-39,15
1,251,124,67,47,-295,-242,-84,-72,-131
-2,264,133,65,37,-251,-168,-21,-58,-120
-93,201,92,26,51,-3,-6,-24,-109,-222
-182,78,-51,-108,-2,339,235,-60,-162,-282
-88,45,-129,-181,-72,427,305,-24,-69,-65
-19,99,-82,-128,-44,261,164,16,23,104
-16,134,-114,-69,5,133,72,33,54,121
-6,172,-84,-22,15,20,-15,45,116,150
4,167,-3,-48,-14,-77,-101,42,183,176
0,119,-44,-88,-44,-65,-78,32,128,171
-45,41,-118,-147,-87,-25,55,182,208,105
-72,27,-136,-120,-68,-72,26,239,221,-22
-49,104,-53,-26,-15,-120,-73,90,95,-81
9,215,108,53,35,-82,-114,-106,-55,-54
64,288,192,103,72,-33,-63,-158,-114,-15
41,291,190,106,82,-50,-41,-93,-122,-62
-109,174,88,58,81,63,49,-75,-198,-238
-215,57,-27,-34,27,224,221,14,-153,-279
-128,105,-11,-57,-16,127,173,85,11,-158
-55,171,31,-42,-7,60,104,51,10,-123
-60,161,17,-47,-5,89,121,-6,-30,-128
-51,156,11,-57,-25,103,155,-31,-43,-104
-12,151,8,-39,-53,55,121,-40,-43,-38
-10,136,-11,-53,-57,66,120,-26,-33,6
-38,122,-1,-41,-25,49,101,-11,-37,23
-59,140,11,-12,-5,7,70,-5,-42,-17
-71,127,-68,-14,-13,31,110,3,-50,-43
-89,111,-71,-33,-27,50,123,-4,-79,-33
-77,112,-3,-15,-25,11,56,-41,-92,-6
-40,103,-3,-18,-24,-11,49,-28,-52,36
6,70,-20,-27,-6,-14,49,3,10,106
18,61,-23,-22,1,-23,15,-9,33,128
26,80,-45,-19,3,-39,-21,-26,44,134
51,130,-33,-1,3,-41,-34,-53,7,123
109,155,-1,19,11,-13,0,-62,-10,71
96,137,-13,30,23,9,-6,-56,-40,18
19,111,-5,33,41,6,-18,-54,-64,3
3,99,-23,14,13,-24,-33,-35,-43,45
-18,83,-48,0,13,-28,-26,2,-13,-11
-75,59,-19,20,37,15,10,27,-54,-121
-80,63,0,24,33,40,14,18,-85,-93
-40,47,-28,-11,-8,9,-11,47,54,34
25,76,-43,-29,-32,-24,-19,81,146,199
72,108,-46,-27,-30,-47,-9,51,121,292
76,107,-36,-13,-2,-47,-47,2,53,285
78,123,4,25,44,-52,-83,-116,-77,192
59,139,22,34,34,-49,-79,-156,-131,54
-1,140,34,54,50,-23,-77,-151,-198,-168
-49,115,20,39,50,-3,-75,-175,-274,-175
-37,97,-2,23,40,4,-41,-185,-278,-45
0,127,24,60,43,-25,-56,-209,-285,-22
4,116,8,47,8,-24,-42,-32,-20,-20
-27,62,-51,-15,-39,-43,33,330,491,0
-37,62,-68,-29,-40,-80,44,468,690,-17
-13,94,-43,-17,-15,-109,-2,387,596,83
9,98,-51,-41,-9,-135,-54,251,508,208
18,69,-74,-52,-19,-47,2,160,422,294
44,56,-69,-26,-25,92,65,106,317,300
77,100,-30,0,-26,21,-12,23,210,214
41,95,-49,-1,-22,-42,-37,14,117,104
-32,92,-87,21,12,15,48,40,-15,-60
-39,109,-26,27,20,33,65,16,-83,-184
-32,122,9,34,12,10,73,0,-116,-291
-62,152,18,48,23,10,72,21,-115,-347
-39,170,14,26,19,-31,19,10,-96,-260
40,204,24,14,-1,-69,-16,-23,-71,-136
107,223,53,20,-23,-98,-27,-50,-61,-59
85,207,86,38,-12,-102,-18,-43,-54,-45
42,176,82,41,7,-105,-22,-34,-48,-54
13,131,47,19,-11,-107,-15,-17,-23,-7
-67,35,9,25,-7,-71,-4,8,33,31
-167,-14,-5,13,1,-39,-16,-20,-7,7
-132,9,-20,-7,-6,34,4,-104,-79,-15
-87,26,-32,8,-11,109,79,-80,-77,11
-77,38,-66,45,42,129,122,-15,-80,-27
-5,85,24,88,68,82,69,-69,-118,-21
67,101,54,65,37,1,18,-90,-54,48
93,78,-1,4,-25,-52,15,0,81,141
187,98,-20,-25,-79,-124,-51,27,165,279
250,115,-17,-49,-95,-141,-110,29,242,366
174,104,-28,-55,-78,-84,-49,81,271,313
118,77,-25,-34,-56,-57,-10,54,130,252
53,87,10,12,-11,-80,-5,69,66,120
-95,80,1,24,2,-59,34,133,92,-75
-200,12,-53,-10,-12,-26,54,128,104,-81
-89,44,-30,-6,-16,-100,-56,-5,85,90
66,90,-80,-30,-54,-182,-88,-30,116,243
95,105,-52,-42,-71,-242,-115,59,153,257
64,110,38,28,4,-260,-132,63,38,157
60,169,123,116,66,-258,-119,31,-19,23
0,168,119,115,77,-37,63,24,-83,-176
-114,46,-22,-1,38,317,299,14,-186,-311
-197,-37,-92,-62,16,413,336,-22,-259,-370
-129,28,-36,-23,41,325,246,-8,-207,-262
-65,58,-9,-8,23,198,125,29,-78,-135
-38,54,-26,-18,-8,52,24,5,18,-32
-3,55,-44,-23,-25,-42,-55,-46,39,58
23,75,-16,-17,-25,-106,-133,-130,-23,98
-29,61,-32,-34,-10,-59,-62,-73,-73,3
-111,57,-49,-32,2,5,83,76,-50,-64
-37,87,-30,-4,26,53,129,122,-26,15
70,85,-12,0,35,36,93,77,-23,67
98,94,-30,4,23,-19,46,53,-6,2
42,93,-85,28,38,-4,71,43,-2,-105
3,105,0,33,28,-16,59,31,-16,-90
6,81,39,12,26,-36,45,6,-16,-14
-34,53,36,16,66,12,58,-26,-78,-50
-42,69,10,29,68,-34,12,-36,-102,-72
-14,58,-42,-7,-2,-108,4,38,14,-43
-24,27,-19,-48,-46,-144,17,103,97,-7
-34,16,-22,-49,-45,-122,15,54,80,-16
-20,39,-20,-39,-31,-44,36,45,79,11
12,86,6,3,10,-5,7,47,67,32
51,112,-3,23,16,-58,-35,52,69,43
32,84,26,-8,12,-89,-48,45,65,30
-23,30,2,-32,28,-35,-20,4,-2,-21
6,48,20,-6,24,-31,4,-13,-9,25
37,79,43,0,39,-29,2,-50,4,56
-4,56,11,-35,56,92,75,-81,-60,10
-20,37,0,-36,40,107,48,-91,-106,0
-13,50,23,-18,25,35,-33,-97,-99,0
-29,53,30,-27,0,-19,-79,-62,-52,-1
-20,52,18,-38,-30,-87,-89,4,33,60
24,56,36,-23,-25,-111,-98,1,58,141
93,70,51,-33,-37,-133,-93,19,108,215
80,52,27,-47,-36,-76,-21,-26,44,142
5,14,-1,-42,-26,45,66,-51,-33,18
-4,23,-3,-16,2,67,73,-53,-51,-31
7,48,9,11,22,-24,5,-98,-72,-56
1,56,6,4,-1,-89,-20,-81,-34,-27
-37,19,-18,-29,-41,-94,-32,-75,-1,15
-39,-2,-63,-84,-73,-82,-40,-69,25,85
-47,-18,-65,-113,-64,4,11,-62,-13,101
-24,23,-16,-60,-9,96,43,-42,-60,42
64,93,16,-41,-9,18,-9,-11,-45,71
91,91,14,-43,-16,-44,-5,19,-4,61
26,87,15,5,32,-8,19,-84,-89,-71
-12,101,-28,46,83,7,-33,-225,-191,-86
-41,95,33,31,84,-17,-61,-156,-45,-4
5,99,24,7,38,-29,-57,-24,154,106
29,70,-9,-58,-17,30,-2,-43,123,153
42,38,-31,-96,-54,18,29,-20,104,127
11,14,-55,-115,-65,-3,84,178,256,35
-23,-23,-82,-114,-63,6,119,222,296,-39
-59,-22,-86,-100,-62,0,112,201,207,-71
-119,-3,-39,-45,-23,-19,106,208,97,-145
-73,66,25,10,-10,-55,69,190,91,-99
4,134,66,44,5,-77,3,105,58,20
5,124,68,52,12,-112,-68,21,43,31
46,115,42,10,-12,-151,-148,-47,12,104
43,100,14,-16,-15,-138,-169,-106,-87,114
-77,65,-10,6,19,29,-16,-72,-145,-133
-146,48,-11,-8,-2,196,189,52,-30,-251
-120,41,5,1,-7,130,151,118,112,-149
-88,43,37,29,22,39,48,-1,64,-82
-86,35,41,49,29,33,6,-79,-7,-81
-16,-15,1,14,-2,12,35,-19,46,-44
43,-56,-31,0,-7,-56,28,74,132,23
41,-38,-27,6,-8,-124,3,116,163,82
83,35,11,28,3,-169,-37,87,115,74
159,93,74,63,17,-220,-120,39,99,134
179,84,39,38,8,-111,-63,-11,61,176
56,7,-46,-40,-6,91,76,-49,-33,102
-29,17,4,-29,9,154,90,-74,-57,69
-34,14,16,-10,8,155,67,-114,-57,67
122,43,3,-30,-37,8,-11,-49,153,275
244,43,-23,-57,-98,-141,-62,45,366,501
227,-3,-30,-45,-58,-52,11,85,338,431
128,-51,-76,-21,13,96,74,26,146,151
36,-53,-85,-6,22,119,79,-20,5,-58
-20,-39,-10,10,32,78,60,-26,-78,-133
-61,-53,-31,-21,8,33,45,7,-75,-134
-26,-18,-57,-35,-28,-40,-10,-3,-60,-98
64,90,-14,-10,-18,-72,-67,-47,-111,-160
106,118,32,18,18,1,-18,-89,-167,-144
60,78,-6,59,49,62,48,-77,-166,-111
102,61,-22,46,20,13,0,-96,-138,-38
125,48,42,0,-34,-93,-107,-184,-193,-13
76,26,6,-31,-42,-40,-45,-126,-159,-68
43,17,-90,-25,-22,76,66,-47,-69,-25
73,59,-14,-30,-49,13,3,-125,-105,73
131,92,29,-56,-98,-139,-115,-235,-192,124
48,83,30,-1,-31,-95,-70,-241,-282,-54
-71,10,60,51,50,3,26,-94,-131,-236
-33,-43,41,20,31,31,81,102,203,-74
128,26,47,-26,-49,-57,18,238,492,251
243,80,41,-70,-115,-149,-26,207,545,425
105,39,49,-22,-51,-65,60,230,378,218
-76,-39,62,58,47,73,184,297,160,-92
-108,-67,53,68,50,130,178,233,54,-73
-55,-24,28,19,5,109,100,114,35,106
25,82,81,48,8,24,37,53,-83,-26
-28,115,133,111,84,48,83,98,-221,-354
-136,81,131,129,143,81,167,197,-109,-401
-157,-23,32,60,74,32,141,217,87,-195
-113,-46,-71,-36,-26,-11,68,133,192,95
-70,0,-140,-50,-43,-43,6,54,151,275
-7,27,-80,-14,-22,-86,-34,3,66,322
23,13,9,35,-2,-143,-90,15,130,331
3,-7,11,37,-10,-173,-85,71,254,366
82,-1,-13,-2,-83,-244,-99,111,385,513
263,49,-29,-63,-152,-312,-160,19,248,475
242,95,37,-12,-86,-146,-206,-170,-187,45
-48,51,81,57,30,176,11,-229,-609,-566
-211,30,96,105,84,312,179,-168,-722,-806
-193,29,93,102,85,290,173,-182,-663,-718
-103,10,31,21,-3,89,61,-110,-446,-455
-90,-16,-44,-20,18,53,37,-115,-343,-281
-174,-46,-105,1,120,179,77,-221,-388,-237
-175,-15,-28,45,176,191,40,-391,-514,-216
-143,-36,36,36,170,174,2,-467,-616,-245
-114,-44,27,6,117,116,-11,-418,-556,-218
-113,-57,5,-61,-4,-48,-65,-252,-245,-114
-137,-71,-32,-84,-51,-119,-50,39,160,-36
-44,5,8,-39,-19,-41,64,388,412,56
64,13,27,-22,-14,-10,139,615,549,195
157,-1,-13,-42,-14,-60,70,563,600,285
147,-1,-81,-47,-29,-139,-62,364,531,220
82,-21,-113,-52,-69,-275,-151,233,363,176
65,-88,-96,-95,-101,-175,-32,256,222,75
-3,-165,-129,-92,-40,121,193,297,128,-106
31,-132,-53,-90,-33,149,204,271,153,-40
128,-2,-14,-91,-82,-19,36,160,190,187
125,-5,-32,-83,-94,-85,-34,118,251,349
188,8,16,-72,-66,-115,-74,82,292,435
178,64,42,-40,-20,-97,-68,51,236,342
150,100,72,30,9,-73,-16,46,125,101
135,49,114,56,23,-58,22,57,65,-39
102,-138,6,-15,10,-14,42,48,110,6
250,-183,-52,-54,-44,-77,-41,5,279,345
472,-64,-110,-106,-155,-264,-195,-34,380,670
445,4,-31,-114,-167,-311,-253,-18,346,652
154,-41,43,-60,-87,-248,-212,19,311,419
23,-61,56,-2,-44,-330,-277,-67,257,282
-92,-125,-5,-15,0,-119,-148,-111,182,248
-404,-280,-144,-107,97,462,242,11,121,-84
-366,-284,-173,-164,36,533,290,137,301,113
-74,-164,-99,-147,-111,120,-21,18,316,647
-387,-56,425,213,116,71,-120,-292,-836,-1285
-412,-48,376,199,187,214,-36,-238,-714,-1078
-377,-84,222,110,139,154,-48,-263,-583,-794
-163,-95,27,-49,45,148,-13,-250,-470,-597
-26,-135,-36,-76,-2,143,62,-70,-229,-359
-133,-215,-50,-67,-101,34,93,74,-55,-145
-137,-119,50,14,-103,12,46,56,-75,-41
-81,-32,135,116,26,41,-53,-133,-250,-125
-92,-30,137,147,127,68,-78,-214,-342,-263
-10,-59,42,103,204,199,50,-77,-208,-284
202,-84,32,25,171,225,170,178,89,-103
530,-47,2,-78,-7,57,104,232,190,78
525,-109,-99,-130,-59,-5,16,119,93,132
261,-186,-158,-77,64,96,23,13,-29,67
74,-304,-106,-29,144,154,56,12,-10,51
132,-298,-82,-71,34,7,2,55,139,241
293,-117,-41,-113,-131,-230,-141,32,245,405
281,-44,-61,-154,-219,-352,-175,65,346,455
52,-141,-138,-189,-175,-152,-72,65,323,365
-164,-185,-92,-70,-22,176,102,15,167,135
-87,-51,52,60,40,159,114,-11,70,23
109,21,69,-24,-87,-70,-24,-7,151,204
162,9,73,-94,-173,-190,-171,-98,132,326
138,24,80,-115,-183,-226,-280,-222,37,423
-20,41,117,-23,-88,-83,-124,-64,47,248
-58,18,23,-10,-94,-65,29,191,324,333
81,30,-122,-208,-259,-209,-80,187,534,689
12,-16,-274,-324,-264,-52,-101,-78,129,431
-319,53,-120,-63,-46,52,-88,-313,-539,-366
-539,177,229,279,136,59,-54,-357,-946,-929
-645,147,235,321,145,103,77,-264,-948,-1084
-527,100,88,149,-4,25,52,-203,-710,-876
-225,63,-34,-1,-111,-64,-50,-202,-474,-573
123,0,-129,-44,-104,-98,-91,-124,-229,-306
131,-33,-178,-38,-41,-74,-67,-33,-91,-331
-32,-79,-158,-73,-2,62,13,-50,-146,-532
53,-55,-129,-140,-38,104,10,-69,-2,-275
317,-2,-59,-134,-87,-85,-112,-74,160,119
227,-143,-27,-65,-67,-187,-154,-79,226,274
-29,-197,46,74,55,-138,-166,-168,66,224
202,-42,94,161,155,46,-36,-109,-176,111
400,70,50,76,160,392,262,135,-163,7
177,32,-21,-72,148,519,369,219,-56,-82
55,-18,-24,-64,166,398,291,257,74,-105
235,60,83,73,190,179,118,201,134,51
285,105,152,140,152,32,45,211,178,269
130,-17,78,92,67,-33,36,306,331,499
-81,-206,-49,21,36,0,61,300,414,502
-108,-259,-60,-11,0,-14,34,189,373,307
39,-197,-9,22,-61,-188,-95,79,262,101
58,-171,34,103,-6,-227,-97,66,155,35
19,-186,1,55,17,-124,-67,40,113,241
-58,-237,-97,-27,-7,172,108,159,252,504
14,-244,-46,-16,-4,288,231,264,453,860
125,-148,-55,-73,-75,166,155,186,456,940
-70,-66,-134,-163,-98,158,93,5,85,384
-237,86,-104,-85,-15,236,80,-193,-435,-248
-204,227,-37,23,13,122,-27,-355,-658,-483
-123,243,74,-9,-46,-49,-199,-556,-682,-355
53,174,21,-110,-143,-147,-291,-654,-599,-91
-8,24,-35,-59,-93,-108,-201,-549,-367,31
143,3,1,21,-17,-147,-197,-458,28,309
586,145,-1,-82,-136,-378,-387,-414,512,748
535,181,26,-92,-159,-354,-322,-218,711,665
52,65,45,-45,-77,-42,107,412,788,74
-388,-40,13,-68,-43,229,467,888,678,-307
-335,0,-5,-106,-64,256,445,817,278,-583
0,114,-3,-45,-84,100,201,500,-49,-744
-52,78,104,118,83,126,180,325,-363,-959
-248,-105,49,150,209,260,289,268,-524,-901
-223,-164,-50,98,170,286,302,255,-321,-488
-47,-147,-3,123,222,289,288,234,-142,-154
-83,-162,59,169,253,246,215,172,-52,44
-270,-116,132,208,201,168,137,140,-70,-117
-223,-60,118,141,107,103,83,53,-262,-322
-138,-57,6,19,19,77,37,-25,-374,-464
-34,39,52,-1,-26,-20,-21,-13,-284,-383
118,121,101,35,9,-20,-35,3,-192,-143
307,152,106,65,31,-59,-55,18,-54,96
232,99,74,87,36,-91,-78,17,88,217
-21,12,60,61,22,2,-5,50,128,122
-118,-60,17,-4,-7,205,58,50,194,181
-60,-68,3,-4,20,284,23,-33,195,286
-32,-23,30,27,10,89,-70,-20,140,290
-57,-54,-23,-53,-66,-40,-40,147,162,296
-137,-91,-125,-149,-118,79,136,273,175,188
-94,-22,-90,-89,-77,30,6,36,11,181
9,-3,-47,-21,-46,-84,-143,-88,-58,242
99,-15,-44,-20,-50,-95,-160,-69,-2,224
135,-27,-30,-31,-67,-88,-150,-54,71,203
93,40,81,31,-7,-64,-130,-83,26,154
62,143,112,-12,-32,-72,-119,-79,-39,77
138,199,96,-24,-37,-47,-66,-50,-121,-50
315,237,217,118,41,1,-62,-111,-259,-105
275,202,255,210,122,60,-75,-192,-357,-131
140,68,141,166,125,92,-66,-179,-259,3
150,44,11,39,29,19,-78,-129,-69,161
32,99,4,-7,-19,-100,-162,-222,-157,-169
-395,18,26,18,42,-101,-59,-69,-156,-561
-715,-43,25,17,40,-114,61,170,-51,-655
-608,3,-31,5,-48,-248,-39,99,-57,-590
-160,144,-17,-18,-145,-271,-125,-95,-162,-375
145,186,-14,-47,-69,1,15,-91,-251,-279
155,130,-75,-67,83,287,144,58,-108,-201
80,56,-72,-7,131,251,91,162,142,-30
-35,13,-3,20,44,-22,-106,96,175,41
63,102,72,-5,-131,-261,-253,-42,29,-13
210,172,128,25,-179,-330,-292,-110,-30,-24
104,23,-28,-28,-137,-100,-112,-107,66,111
-87,-58,-94,-38,-19,334,175,-104,88,146
0,20,-69,0,71,345,139,-30,202,260
139,69,-93,-17,2,23,-61,55,357,338
251,100,-21,66,-13,-44,-123,5,168,176
174,92,24,131,115,60,-116,-157,-248,-144
-33,-5,-34,59,105,32,-70,-103,-260,-182
-38,-61,-141,-87,-7,33,55,152,29,25
148,-39,-164,-95,-15,27,79,263,229,268
126,65,-42,-13,35,-48,-12,113,48,82
-235,79,58,16,72,20,42,27,-203,-262
-229,140,127,76,74,116,108,-21,-357,-451
177,258,189,134,70,11,38,-60,-306,-307
326,278,171,88,17,-76,-17,2,-125,-80
248,267,109,40,-5,50,15,-26,-143,-77
78,208,75,48,28,222,113,-81,-197,-76
-123,92,75,91,89,182,75,-160,-192,-13
-260,-141,-7,70,83,87,-24,-287,-210,70
-258,-284,-98,-13,-8,25,-60,-354,-161,186
-178,-281,-114,-57,-92,24,-58,-347,-113,209
-124,-215,-90,-59,-87,63,-41,-321,-84,38
-180,-93,-6,-25,-32,100,-59,-366,-43,-58
-281,-25,34,-8,-11,115,-33,-229,25,-98
-181,48,2,-75,-60,-6,-47,64,227,7
-44,123,6,-85,-67,-68,7,333,379,118
17,158,59,-3,25,-77,13,255,170,9
100,66,33,12,30,-103,5,180,-53,-70
253,-55,-120,-58,-97,-114,41,310,125,159
413,-47,-82,-5,-82,25,205,512,366,263
443,-53,-15,13,-73,44,205,512,527,523
296,-153,-129,-84,-149,-58,131,573,871,913
247,-72,-125,-53,-156,-185,67,671,1028,1076
373,5,-48,-31,-120,-238,-76,448,821,1073
304,-55,-141,-52,-48,-32,-45,138,380,577
124,-37,-92,-30,20,110,51,86,163,211
166,50,-130,-97,-75,-40,38,184,242,289
267,124,-193,-103,-140,-179,-65,135,229,401
369,221,-32,-37,-153,-301,-293,-122,45,416
35,152,95,61,57,146,25,-108,-267,-56
-213,111,87,116,168,376,277,60,-344,-441
-461,90,126,205,220,306,264,112,-445,-995
-628,13,164,252,271,307,224,-12,-684,-1295
-645,-56,153,236,249,286,94,-219,-655,-966
-640,-3,229,179,154,266,128,-152,-414,-675
-396,81,241,79,54,158,71,-81,-239,-422
-18,119,123,-5,5,21,-77,-119,-165,-185
170,67,3,-70,-1,8,-126,-217,-222,-57
311,21,-122,-168,-38,5,-138,-238,-196,49
429,15,-182,-239,-131,-32,-104,-128,35,249
317,-134,-211,-212,-150,-85,-86,-3,245,319
101,-293,-202,-148,-117,-187,-137,26,188,147
-26,-212,-78,-49,-54,-264,-233,-84,26,-37
-77,-104,8,-7,-41,-298,-260,-58,170,46
-244,-133,-10,-80,-90,-111,-85,39,363,258
-389,-273,-194,-255,-204,126,161,200,532,540
-326,-280,-242,-284,-278,-6,122,325,645,824
-86,-174,-120,-74,-164,-157,-48,182,366,655
2,-199,-90,107,105,111,11,100,171,304
38,-117,-25,210,341,359,140,105,22,-201
183,215,203,324,347,337,111,-76,-402,-788
86,420,406,334,258,353,119,-221,-797,-1135
-107,402,465,343,251,314,173,-150,-855,-1044
-218,238,358,312,196,239,241,6,-700,-819
-172,94,192,168,82,42,128,-7,-464,-483
-141,62,108,67,30,-78,-28,-97,-307,-209
-85,207,247,185,188,92,27,-99,-337,-321
-66,237,236,172,277,259,130,-90,-376,-515
-25,137,41,-24,136,177,78,-79,-151,-289
-9,123,-67,-186,-55,152,124,43,265,193
-89,171,-73,-229,-145,62,66,70,417,434
-3,161,-130,-250,-211,-118,-100,-4,365,571
169,146,-164,-246,-182,-110,-126,-46,181,525
165,98,-199,-207,-76,62,39,51,-62,132
143,77,-204,-162,-41,122,65,32,-157,-180
291,171,-148,-72,-20,102,0,-91,-225,-223
290,219,-129,-35,-30,34,-13,-62,-100,-81
206,192,-16,-32,-38,-8,12,5,64,17
41,82,10,-4,-31,-53,-5,32,170,108
48,4,-41,-8,-59,-118,-60,-7,209,295
103,-89,-93,-65,-94,-65,-19,-40,249,442
40,0,-17,-41,-89,25,87,60,354,469
244,107,31,-13,-103,-81,-23,13,305,444
300,92,23,-41,-137,-155,-152,-131,72,305
17,23,12,-26,-76,-40,-93,-222,-255,-83
-30,47,46,47,5,41,-49,-319,-507,-453
149,162,87,104,18,-38,-52,-299,-550,-583
177,104,123,76,1,-77,8,-102,-299,-386
33,-87,15,13,-14,4,175,184,51,-22
-156,-150,-29,-16,-21,47,227,319,239,247
-161,-88,4,-13,-10,126,192,181,119,211
-217,-116,-25,-26,-20,169,140,24,-30,11
-198,-94,-57,-52,-48,41,59,15,-44,-78
-26,-35,-27,-23,0,66,83,104,2,-178
85,8,29,42,44,109,71,86,-22,-277
84,54,53,53,-15,42,31,100,68,-146
72,116,69,38,-101,-49,8,159,129,-29
-228,66,49,29,-93,-67,-15,93,23,-149
-375,65,-47,8,-53,-37,-48,37,6,-152
-120,146,-76,-31,-86,-81,-79,39,178,195
249,179,-52,-55,-52,-64,-111,-13,214,480
442,218,6,-56,-21,-24,-147,-141,119,593
304,170,-19,-89,-65,-47,-195,-260,25,604
249,84,-3,-56,-25,-11,-161,-268,-108,304
128,53,94,67,69,50,-69,-205,-234,-145
-120,27,80,46,69,137,6,-264,-356,-381
-141,16,-26,-89,-21,125,45,-121,-309,-446
-95,27,-24,-48,21,204,174,131,-301,-564
-87,63,48,41,97,189,136,151,-311,-493
-34,127,77,36,53,101,39,82,-250,-368
66,166,101,18,-27,-19,-80,-98,-190,-258
41,108,19,-52,-125,-118,-133,-107,-21,-120
-48,0,-43,-80,-134,-188,-93,76,172,19
-115,-58,-69,-77,-95,-174,-22,252,239,68
-36,-20,-57,-63,-53,-102,0,244,232,27
7,43,18,16,9,21,60,206,175,-54
2,69,91,81,41,46,12,101,70,-53
-33,16,36,5,1,224,30,-27,16,72
-19,24,-19,-60,-12,378,127,-32,77,265
75,0,-84,-84,-42,159,63,-42,154,460
69,-33,-86,-45,-26,63,30,-63,215,505
-57,-59,-35,0,3,89,52,-28,270,333
-92,-84,-49,-55,-66,-2,-17,-46,325,160
91,-22,-101,-149,-152,-174,-180,-93,406,197
127,-30,-112,-164,-201,-271,-247,0,465,321
31,11,-22,-10,-58,-134,-102,50,233,354
-51,63,57,96,81,37,74,56,-61,199
-109,23,-1,38,43,56,77,-8,-145,-3
-88,-7,-27,22,22,29,60,109,-36,-76
-154,-61,-120,65,56,29,106,274,3,-214
-282,-75,-44,121,114,28,87,213,-182,-527
-145,-40,-13,69,35,-2,26,111,-189,-492
-2,-30,-73,62,38,98,35,-25,-161,-288
103,29,72,132,112,91,-5,-145,-180,-94
200,41,76,107,119,29,-12,-94,-90,41
266,27,-25,22,100,27,31,-2,-26,90
331,78,-40,-28,40,9,3,-119,-144,90
61,30,-63,-11,17,98,-4,-316,-298,-101
-340,-39,-77,44,49,107,25,-215,-136,-304
-310,8,2,6,-23,45,91,112,180,-203
-84,77,17,-50,-82,-13,66,178,200,14
-65,86,56,16,27,45,-10,-97,-164,-71
-81,58,98,25,61,92,0,-185,-305,-219
58,37,-10,-68,-33,-1,-21,-85,-81,-41
136,-39,-193,-110,-91,-105,-4,120,259,289
189,-94,-208,-91,-105,-181,-24,228,424,391
257,-87,-61,-27,-63,-175,-16,268,529,480
92,-50,32,61,43,-85,-25,215,415,376
-66,-5,79,102,172,85,25,122,159,148
26,76,108,105,160,95,72,115,48,128
175,119,43,53,3,-121,-11,91,230,369
179,111,-7,35,-46,-166,-63,20,367,419
167,140,102,115,12,-187,-88,-36,333,300
182,150,61,95,23,-197,-122,-106,132,217
-67,15,-74,-43,25,118,118,-75,-222,-3
-188,-69,-87,-38,93,388,360,-3,-512,-322
-79,-97,-49,16,117,284,221,-93,-607,-528
-92,-134,-46,-4,89,171,62,-216,-555,-622
-164,-126,37,89,156,166,10,-250,-368,-506
-186,-56,121,141,146,107,-4,-216,-206,-297
-124,39,180,102,66,6,-13,-106,-87,-149
-159,46,182,126,105,13,35,51,32,-149
-73,24,186,128,110,36,67,156,77,-6
-1,-22,187,95,89,57,166,293,131,229
20,-24,152,43,59,-7,130,272,189,230
-22,-40,6,-86,-40,-77,19,147,263,139
-180,-87,-98,-125,-48,7,-28,-27,176,-60
-268,-54,-92,-56,61,116,-21,-238,-247,-382
-234,22,-35,-4,113,171,68,-174,-488,-573
-77,-30,-27,-30,43,131,141,69,-169,-281
-6,-130,-85,-90,-38,-18,-21,85,147,151
82,-135,-134,-157,-144,-210,-231,-43,222,393
181,-104,-154,-185,-211,-339,-325,-165,140,385
166,-110,-53,-88,-135,-270,-194,-95,29,266
83,-87,86,38,-6,-242,-150,-31,-38,239
82,-40,167,106,109,-102,-130,-54,65,281
49,-47,158,135,140,57,-70,-49,188,308
71,4,46,63,65,15,-73,-25,173,188
-37,6,-142,-101,-26,7,-34,25,79,-112
-176,-29,-208,-97,23,158,98,108,-37,-288
-163,33,-49,36,125,239,190,145,-198,-423
-69,137,107,184,158,171,169,52,-408,-467
51,106,78,243,150,164,161,32,-394,-326
43,2,78,259,178,180,159,36,-303,-251
57,16,136,233,147,71,29,-74,-266,-183
44,60,216,156,82,-43,-76,-173,-264,-156
-66,97,209,67,44,-60,-114,-256,-337,-265
-92,94,116,-63,-25,-18,-104,-281,-336,-250
-58,35,-21,-106,-34,-4,-60,-200,-238,-171
-79,-33,-182,-116,-28,-1,-75,-161,-164,-136
-114,-78,-248,-147,-52,-15,-60,-18,-22,-82
33,-29,-188,-142,-104,-57,-28,135,182,65
170,-8,-140,-128,-124,-33,48,204,263,176
39,-49,-128,-61,-25,31,49,91,140,108
-45,-46,-111,-26,2,48,25,-21,63,139
6,0,-7,-34,-30,-18,-26,-61,52,262
-2,11,-3,-26,-28,-57,-33,-21,6,155
-23,-19,-38,-42,-34,-24,-3,14,-41,-43
-38,-89,-137,-84,-52,-16,17,24,0,-48
-28,-103,-247,-150,-122,-80,-44,8,98,54
-89,-143,-211,-158,-124,-116,-96,-11,105,59
-157,-198,-242,-115,-60,-69,-56,4,54,46
-122,-135,-99,-23,24,7,41,2,-36,37
-22,-4,47,92,78,51,68,-14,-70,-11
28,27,62,93,71,-8,4,-33,-13,14
-2,19,38,36,52,-38,-28,-18,7,38
-74,18,-1,0,41,51,21,-74,-34,32
-67,6,-8,-3,17,80,20,-85,50,53
37,39,52,4,-19,-43,-28,-71,92,119
75,70,36,-32,-71,-176,-52,18,82,114
3,72,34,-38,-67,-246,-99,168,229,93
-46,17,3,-62,-52,-232,-121,220,365,95
11,37,7,-62,-19,1,-37,54,237,133
-6,69,59,13,55,215,57,-78,20,4
-2,93,96,53,57,105,-1,-134,-123,-126
38,105,89,8,-24,-48,-31,-51,-83,-72
-33,23,19,-58,-73,5,42,44,-48,-30
-130,-12,36,-27,-30,67,4,-39,-75,-69
-118,-9,53,-10,-3,100,48,31,37,-76
-61,1,35,-19,-36,2,64,180,195,27
-88,-15,16,4,-40,-80,-29,117,183,108
-82,-83,-42,-35,-58,-36,-38,56,198,190
-121,-143,-48,-29,-41,-4,-22,66,284,232
-241,-164,-31,23,7,-48,-31,107,350,253
-112,-82,-115,0,-11,-141,-116,41,408,401
364,139,-68,-43,-64,-214,-232,-71,400,620
526,277,9,-25,-75,-101,-117,55,234,476
164,188,80,18,-15,57,65,136,-61,42
-113,51,83,50,76,205,249,169,-336,-434
-111,-72,-38,21,82,222,276,97,-417,-606
124,-39,-114,-9,33,133,130,-33,-272,-348
-30,-113,-43,-15,35,155,147,5,-141,-262
-84,-149,-17,-23,-12,71,91,26,16,-113
-26,-111,-26,-60,-97,-8,28,-49,-8,24
-107,-114,14,-3,-49,28,14,-132,-118,-26
-191,-93,69,99,69,99,22,-197,-229,-129
-56,16,120,119,87,51,-3,-195,-228,-46
-13,50,147,173,176,82,40,-170,-276,-142
-13,30,-26,93,147,60,5,-171,-257,-254
-64,11,-132,-57,-20,-35,-81,-172,-198,-321
21,96,-23,-53,-66,-72,-124,-156,-131,-292
127,120,48,0,-8,-22,-54,-74,-58,-155
90,95,60,10,22,32,40,-20,-92,-153
0,76,36,-21,-4,-2,27,-60,-159,-250
-51,-27,-122,-112,-126,-111,-49,-46,11,-105
15,-103,-183,-150,-171,-186,-80,56,293,276
68,-108,-156,-130,-154,-173,-31,139,432,508
221,2,-100,-92,-137,-193,-79,72,390,566
328,47,-19,-27,-49,-134,-103,-82,254,592
364,-7,-10,14,16,45,11,-104,133,504
147,-27,32,49,58,144,105,0,2,144
-81,11,56,48,84,155,121,10,-203,-70
-142,40,62,35,56,136,77,-73,-277,-66
-361,-18,17,11,47,103,-9,-208,-324,-322
-415,-45,-50,-53,-14,-24,-85,-201,-216,-440
-187,2,-148,-80,-29,-115,-110,-134,-126,-368
-49,-3,-137,-92,31,-76,-94,-131,-142,-381
-35,-9,-34,-41,63,-40,-42,-139,-174,-431
28,7,13,27,49,-37,-67,-172,-153,-244
209,56,25,64,71,100,5,-145,-131,-30
285,84,-13,37,45,128,69,21,44,57
107,31,-57,-17,-32,31,59,166,223,22
114,103,56,17,-38,-67,-26,188,297,82
279,168,65,3,-38,-101,-118,39,242,283
402,135,-25,-86,-99,-139,-200,-130,182,464
267,99,0,-45,-73,-135,-156,-137,144,403
28,53,47,4,-61,-94,-11,86,267,313
-71,64,-8,-9,-105,-133,-8,142,383,422
-304,74,14,105,48,-18,-36,-135,-55,26
-484,84,200,205,179,143,64,-211,-520,-666
-375,73,150,148,102,69,81,-23,-395,-646
-236,-103,-120,21,41,115,184,231,9,-281
-102,-191,-231,-63,63,267,274,310,170,-58
64,-37,-112,-49,50,218,113,71,25,76
108,44,46,26,52,121,0,-148,-175,56
-74,-30,-25,31,70,120,9,-210,-329,-120
-228,-116,-152,-6,61,89,7,-148,-297,-139
-235,-92,-50,-32,8,-37,-5,-99,-227,-225
-192,-29,74,7,0,-119,-54,-196,-266,-492
-112,-7,78,22,2,-124,-62,-39,-151,-575
-6,48,119,56,3,-145,-24,241,36,-350
92,112,150,84,4,-174,-81,230,123,-84
166,132,69,62,-23,-252,-222,107,181,75
164,71,-29,-27,-40,-151,-124,203,182,65
86,11,-96,-87,-69,75,122,349,246,104
51,-12,-100,-84,-106,62,120,281,363,361
53,-63,-100,-62,-116,52,69,151,353,471
17,-77,-94,-13,-64,0,21,107,237,389
-94,-143,-152,-38,-13,-125,-57,94,147,216
-187,-193,-178,-91,-33,-212,-36,96,53,26
-188,-134,-123,-62,-81,-202,-15,68,-64,-91
-141,-41,-51,18,-44,-8,-16,0,-158,-167
-108,-40,-49,67,71,389,112,-134,-202,-108
-32,-16,1,125,171,590,162,-169,-154,63
86,120,147,146,97,239,-55,-174,9,269
111,165,199,83,-31,-99,-299,-283,84,357
55,82,3,-92,-114,-53,-235,-231,131,282
28,43,-118,-150,-151,-64,-173,-95,203,228
-43,-29,-156,-114,-87,7,-90,-40,143,139
-104,-36,-85,20,54,175,76,9,-15,-118
-52,-16,-8,82,91,187,145,65,-92,-237
123,55,16,8,8,90,97,55,-121,-99
148,112,82,-1,-40,18,12,-20,-182,13
60,26,64,-6,-59,-1,23,22,-125,16
50,-68,3,6,-36,-29,18,17,-131,-135
-27,-55,54,107,68,1,-11,-103,-214,-288
-138,-23,95,112,90,118,84,-57,-128,-262
-141,-6,-41,-69,-51,70,78,34,14,-174
-41,44,-90,-134,-118,-55,-45,-13,2,-35
-63,36,-15,-55,-63,-46,24,51,16,57
-136,17,34,19,34,-11,68,68,-11,3
-113,37,0,30,41,-10,68,60,-8,-17
10,66,-59,-19,-18,-63,60,110,132,158
-102,35,-56,-32,-11,-1,79,94,170,211
-264,-30,-3,-4,-1,-7,65,113,182,219
-222,5,20,25,37,7,62,150,175,181
-98,84,19,19,56,116,100,89,104,128
-9,95,-12,0,42,180,126,48,46,68
67,124,31,15,36,59,21,-2,8,37
29,160,74,32,28,5,-5,-39,-10,-96
14,168,96,49,43,27,0,-55,-36,-230
18,176,105,73,42,40,-7,-70,-110,-195
-57,147,83,74,42,39,27,-66,-135,-144
-36,158,52,77,43,14,24,-75,-130,-100
57,189,99,59,38,-7,27,-85,-129,-45
71,150,99,23,23,14,18,-121,-113,-28
37,57,48,-1,2,44,-4,-147,-113,-19
51,20,23,-8,2,39,-51,-232,-162,31
56,41,28,14,4,-13,-120,-383,-284,8
-26,34,49,58,20,-27,-94,-327,-251,-51
-125,-24,1,22,-19,-53,-27,-97,-40,9
-96,-49,-75,-49,-106,-134,-76,-10,124,184
-87,-32,-77,-35,-86,-85,-47,96,120,119
-115,-73,-90,-6,-31,72,156,355,170,-59
-86,-101,-160,-23,-50,74,213,526,294,-78
12,-83,-155,-13,-38,18,131,340,267,9
86,-29,-19,16,-8,-17,32,138,168,59
4,31,79,20,8,-42,-6,57,121,59
-20,14,31,-12,6,-34,-18,36,239,212
48,-11,-44,-56,-34,-2,-6,51,341,391
106,-28,-25,-53,-58,20,0,61,288,427
189,-5,-45,-60,-87,-43,-60,52,221,420
176,5,-58,-52,-74,-50,-51,18,58,272
64,-7,22,20,5,-12,-1,-31,-170,-16
-95,8,82,94,82,-29,-15,-95,-313,-304
-136,-9,73,83,68,-46,-36,-125,-327,-304
-84,-12,72,62,61,-46,-77,-125,-260,-196
-40,41,109,93,57,-142,-167,-135,-201,-97
-100,27,90,74,56,28,22,-31,-120,-117
-164,3,41,35,66,233,173,54,24,-121
-153,-2,15,17,48,287,157,78,148,-117
81,93,9,-15,-15,81,-34,0,136,-5
280,159,39,-18,-25,-14,-61,-6,-9,0
83,81,76,57,65,99,69,22,-229,-267
7,29,75,60,35,71,40,-22,-247,-202
69,8,61,36,-22,-21,-34,-33,-138,3
82,-21,-6,-8,-54,-110,-61,21,15,167
23,-29,-47,-36,-79,-218,-67,61,134,257
-6,-29,-47,-52,-90,-201,-59,35,145,147
-65,-79,-37,-25,5,35,34,-51,46,-26
0,-53,-8,9,91,119,23,-141,-43,-8
116,7,6,-11,45,-30,-55,-53,56,79
149,11,-41,-73,-57,-114,-98,-3,165,150
110,-36,-110,-120,-113,49,14,-29,125,175
2,-86,-108,-69,-87,135,106,-15,60,68
-123,-98,-43,16,-27,-5,68,50,63,-90
-156,-74,33,76,19,-115,-70,38,95,-74
-126,-98,14,52,91,114,15,-45,63,15
-61,-160,-78,-28,108,282,133,-45,88,131
106,-113,-70,-31,60,82,-17,-89,92,291
305,-17,-60,-28,-15,-73,-140,-141,46,430
361,68,-73,-68,-73,-110,-120,-97,91,494
264,124,-15,-29,-58,-117,-42,-39,45,206
112,48,5,-31,-31,46,164,170,66,-157
52,-72,-39,-42,-18,166,251,295,93,-214
78,-92,-44,-38,-27,111,171,232,-42,-165
-73,-80,-27,-45,-29,78,103,108,-225,-315
-174,-5,34,18,32,61,51,-29,-444,-551
-149,41,51,46,84,64,20,-153,-595,-659
-178,-9,-9,-2,53,139,62,-158,-541,-572
-71,12,56,15,2,63,15,-157,-415,-305
95,76,180,24,-60,-170,-159,-223,-302,13
145,101,222,17,-66,-203,-211,-224,-142,227
-129,-3,112,8,-34,-43,-74,-107,60,208
-228,-66,22,-9,-44,-41,-67,-60,106,85
-2,-19,7,-26,-65,-92,-125,-62,43,-52
245,-30,15,-31,-47,-33,-44,36,64,-43
27,-167,5,-25,0,73,54,103,47,-22
-92,-120,-28,-58,-22,87,64,70,3,27
-11,-57,-54,-33,17,27,88,140,90,99
-187,-93,3,101,159,111,161,192,90,-87
-263,-117,-15,52,116,118,134,146,73,-271
-12,-11,25,-8,3,2,55,100,77,-232
175,40,16,-40,-76,-38,66,87,119,15
157,-16,-30,-65,-87,5,103,63,107,128
67,-49,-52,-56,-68,53,142,80,76,148
-36,-59,-22,12,25,82,130,87,13,95
-118,-69,11,106,182,129,141,54,-60,-30
-147,-59,36,132,182,72,113,45,-56,-36
-115,-20,53,95,88,-8,1,-80,-74,30
-47,4,67,44,49,-19,-65,-189,-106,-15
-18,22,87,30,24,3,-69,-215,-187,-153
1,23,74,15,-15,-70,-134,-221,-180,-89
-5,19,53,-10,-28,-101,-105,-115,-42,15
-70,-21,31,19,0,-64,-32,9,30,34
-69,-42,-26,-6,-13,-27,16,180,138,102
76,54,-35,-38,-56,-36,-15,155,196,184
227,105,-83,-48,-84,-73,-69,78,282,257
285,35,-77,-41,-49,-67,-61,84,273,317
189,-56,2,8,20,22,8,116,124,134
146,-89,8,31,68,87,29,26,-40,-41
175,-97,-95,-18,17,57,-4,-41,5,68
62,-159,-127,-54,-51,-66,-111,-104,15,132
1,-154,-58,-63,-94,-268,-234,-120,96,181
51,-90,4,-31,-66,-388,-327,-71,230,258
21,-103,-13,-70,-64,-193,-75,230,465,307
27,-70,-21,-97,-17,142,254,424,549,292
-48,-91,-14,-69,37,282,217,137,195,84
-108,-113,-18,-35,33,153,61,-33,-22,-148
-60,-39,16,13,13,15,-61,-30,-105,-300
79,48,39,18,-27,4,-27,36,-154,-239
139,72,48,-11,-38,17,0,65,-229,-200
49,64,34,16,1,35,3,11,-319,-241
-53,38,40,46,55,113,66,-11,-298,-269
-93,-8,42,59,96,149,101,-37,-212,-339
4,-29,12,17,48,67,70,-2,-29,-192
18,-52,-7,25,29,32,34,36,78,-79
20,-44,28,38,0,-19,-21,-2,77,8
62,28,103,35,-59,-135,-131,-63,10,108
-7,91,122,47,-36,-115,-107,-33,-108,-50
-68,50,102,69,27,-108,-76,-21,-178,-173
-94,-42,40,32,57,31,-4,-64,-173,-192
-105,-75,5,-3,63,168,55,-88,-147,-175
-67,-75,-1,-11,53,163,47,-128,-140,-132
-71,-86,-32,-26,30,158,73,-79,-73,-85
-178,-140,-71,-46,-8,66,27,52,74,27
-60,-90,-76,-86,-95,-105,-45,123,162,164
106,-20,-27,-70,-106,-155,-139,7,100,200
144,7,15,-35,-66,-112,-154,-63,32,195
152,28,49,-15,-8,-49,-83,-12,-2,179
209,52,25,-27,-3,-51,-53,47,34,109
110,-23,-46,-16,4,-22,-23,122,172,142
-9,-106,-143,-85,-13,50,36,163,329,365
117,-3,-124,-121,-110,-84,-86,65,377,479
147,66,-21,-21,-87,-166,-182,-55,225,264
39,19,-7,8,-50,-45,-82,-65,38,85
8,-4,0,35,-42,-9,-14,18,-39,1
64,42,63,86,6,-73,-53,60,-34,-31
39,16,45,75,52,-58,-45,31,-41,-66
-67,-64,-47,17,88,31,24,-8,-49,-91
-113,-85,-74,-18,68,52,3,-54,-85,-132
-115,-24,-31,21,45,64,15,-91,-198,-240
-124,41,53,91,51,64,26,-61,-288,-307
-190,3,-1,89,46,86,45,-19,-258,-340
-148,-3,-56,56,0,31,-8,-50,-148,-183
-89,-1,-18,33,-9,-16,-81,-154,-184,-98
-38,15,0,39,11,-2,-20,-79,-129,-60
-5,37,-1,18,35,-11,-19,-13,-40,16
9,28,-12,13,56,16,-57,-101,-67,18
34,57,-17,1,57,129,-27,-206,-151,-31
-65,25,-30,-8,66,314,142,-178,-226,-134
-168,-17,3,59,127,272,123,-188,-234,-191
-181,-28,-35,72,91,50,20,-96,-52,-82
-136,11,-30,28,-8,-103,-4,67,199,106
-108,34,27,43,-23,-163,-88,-58,238,276
60,78,31,29,-59,-278,-240,-264,160,447
362,122,32,30,-59,-272,-335,-450,1,526
267,77,50,86,29,-66,-99,-189,-53,171
151,54,57,70,26,-83,56,204,164,-28
197,-15,-44,-33,-40,-123,0,228,349,168
182,-170,-238,-197,-160,19,90,368,595,532
232,-158,-244,-260,-221,54,83,389,672,799
155,-45,-132,-137,-142,-64,-9,193,332,506
-5,-4,-42,-35,-58,-134,-44,42,-12,83
-136,20,48,38,-10,-78,30,76,-115,-213
-130,104,143,92,24,-51,99,211,-34,-359
-75,145,187,132,125,0,126,233,-150,-561
21,106,117,109,154,134,170,233,-163,-545
41,7,41,38,49,110,117,241,-16,-211
-191,-113,25,19,-7,82,118,163,-55,-76
-287,-58,118,106,33,36,99,44,-216,-222
-178,-2,114,64,-7,-10,45,-62,-258,-281
-258,-98,-52,-83,-44,50,57,-79,-97,-118
-480,-164,-235,-173,-10,217,157,-100,-77,-114
-200,32,-170,-130,-30,71,24,-186,-64,-18
318,204,-81,-67,-39,-85,-124,-223,-27,89
486,164,-72,-18,26,103,-2,-158,-2,64
448,108,46,6,20,95,12,-101,55,147
291,83,103,-21,-37,-24,-23,14,73,42
341,115,57,-39,-38,-13,23,64,-16,-40
125,45,40,38,61,55,86,-9,-179,23
-182,-79,0,41,48,92,114,-43,-208,13
-171,-100,0,41,-3,-5,53,61,-141,-118
-74,-26,60,83,41,-58,-15,58,-82,-245
-82,-39,36,63,56,-35,-14,45,50,-123
-18,-56,-2,23,28,-64,-27,85,130,173
40,-79,-45,-12,7,-19,-4,34,5,254
95,-52,-25,-45,-16,54,19,-71,-133,260
62,-21,-4,-23,-29,73,34,-99,-178,175
-98,-25,-28,5,-28,-19,4,-78,-142,84
-92,34,-34,-16,-61,-111,-58,-48,-77,81
-60,106,32,2,-11,-60,-16,73,34,-53
-110,73,83,31,55,-4,91,261,105,-302
-195,-4,59,19,58,76,101,190,0,-497
-172,4,90,50,79,132,80,59,-44,-442
-146,-6,93,79,98,1,-17,-24,-43,-285
-217,-82,-17,30,56,-87,-43,-20,0,-164
-249,-173,-109,-53,-6,-74,0,20,55,-104
-138,-137,-94,-84,-22,-6,24,-1,14,-137
107,-11,-45,-40,0,78,67,-12,18,-38
264,23,-5,13,29,57,62,-24,45,59
170,-10,51,26,5,-22,25,-8,67,26
36,-16,85,48,-14,-107,-66,-31,92,28
-21,-72,44,39,-29,-49,-32,-37,137,101
-42,-91,-21,12,-26,67,116,80,257,209
-1,-68,-97,-50,-64,-6,54,76,310,305
94,-45,-193,-128,-125,-94,-60,-10,210,352
140,49,-40,-43,-65,-115,-90,-44,3,159
89,104,64,19,3,-78,-84,-91,-149,-56
42,74,4,-21,-9,12,-47,-121,-176,-117
14,26,-45,-54,-39,84,28,-43,-94,-100
3,11,-26,-40,-39,19,2,15,38,-60
-2,10,-24,-30,-34,-15,-29,6,36,-79
1,14,-52,-41,-79,-63,-37,0,22,-23
27,47,-105,-29,-100,-96,-56,-30,42,96
85,90,-81,-7,-80,-102,-66,-72,31,145
99,190,42,3,-27,-93,-131,-177,-98,41
22,199,46,-8,-24,-102,-164,-236,-181,-78
-39,130,4,-42,-32,-93,-140,-222,-218,-238
28,100,42,14,29,-46,-110,-260,-362,-301
123,61,47,69,52,-40,-89,-250,-397,-181
80,-31,-28,52,24,-58,-61,-184,-198,-46
151,-56,-64,49,38,-85,-85,-164,37,139
273,-1,72,49,34,-115,-84,18,435,503
-53,-146,9,-37,-17,-105,17,364,943,760
-253,-201,-105,-143,-78,-43,61,384,965,683
-63,-47,-63,-133,-80,-33,79,310,609,494
130,96,33,-52,-50,-147,14,165,52,161
203,126,142,90,63,-189,-28,19,-395,-210
174,41,141,134,126,-115,23,9,-464,-453
61,-67,-11,41,115,201,234,27,-416,-517
3,-83,-47,-3,66,364,266,-10,-240,-255
-28,-82,24,13,25,227,194,-12,-95,15
-149,-85,36,72,56,37,109,38,-96,4
-4,-23,59,77,65,-93,-6,-21,-106,32
280,15,93,32,68,-82,-75,-179,-130,149
198,-75,-8,-70,45,104,10,-309,-224,30
75,-80,-39,-76,0,187,23,-400,-331,-133
-107,-33,72,86,96,246,-14,-507,-477,-306
-287,-59,118,165,126,96,-58,-403,-339,-253
-286,-119,38,71,58,12,4,-72,62,50
-151,-107,-78,-154,-154,-31,96,333,568,482
-40,-122,-179,-291,-283,-127,77,503,838,797
-15,-138,-184,-225,-191,-153,-31,344,586,679
-120,-50,-64,-43,-12,-94,-50,147,84,227
-286,36,49,81,74,-4,37,121,-153,-163
-214,90,58,75,62,52,92,128,-145,-401
-55,97,56,79,72,34,28,-35,-240,-578
43,104,78,124,62,-29,-39,-108,-306,-589
57,41,59,130,58,-44,-13,3,-217,-468
56,-9,35,99,40,-104,0,229,-42,-292
2,-31,-15,38,33,-7,101,499,169,-158
-3,25,7,-16,53,76,83,363,142,-66
10,47,-40,-56,33,80,17,102,-4,-49
91,3,-86,-84,-11,94,20,24,-41,-29
151,-28,-9,-58,-16,31,-7,21,-18,7
27,-49,21,8,22,34,-54,-39,-53,9
-94,-40,44,45,24,32,-45,-52,-11,64
-145,-7,88,71,14,-14,-31,-37,30,87
-162,14,114,71,10,-29,-20,0,80,79
-225,-6,54,-4,-5,-34,-41,20,148,75
-199,22,-58,-70,-39,-104,-100,2,172,150
65,79,-33,-91,-66,-133,-112,17,219,319
272,68,-67,-123,-69,-81,-60,31,216,375
209,10,-145,-84,-43,-11,-19,-11,106,269
-89,-74,-88,-37,-22,-27,-52,-100,-79,14
-128,-61,-12,-41,-43,-98,-62,-96,-95,-80
40,36,23,-36,-57,-134,-41,-20,91,37
57,39,-12,-51,-44,-9,-14,-31,143,80
73,37,-62,-61,-39,82,-32,-82,134,166
175,45,-73,-101,-79,77,-25,-74,98,307
198,68,-30,-40,-42,70,18,-39,-33,230
58,35,37,67,36,131,62,-70,-214,-27
-57,-58,40,112,93,141,61,-114,-295,-283
-79,-99,15,58,45,61,55,-80,-207,-269
-104,-88,3,0,-21,-17,39,-23,-50,-144
-134,-30,43,14,-10,-9,38,0,49,-42
-55,70,101,27,-7,-36,-9,-31,102,116
-46,101,89,27,15,-38,-33,-39,92,137
-88,47,38,20,16,-61,-79,-28,87,137
17,50,21,-14,-56,-168,-206,-73,172,300
75,52,-22,-64,-114,-161,-183,-72,153,278
4,21,-74,-119,-116,25,13,-45,-13,-23
14,45,-19,-54,-36,42,35,-62,-152,-239
47,58,38,21,48,23,-2,-131,-226,-242
77,18,59,85,115,47,-30,-175,-227,-154
-83,-78,29,83,162,164,40,-167,-271,-320
-162,-83,13,72,151,264,67,-214,-295,-395
-83,-64,7,67,109,159,13,-212,-151,-154
-46,-44,-36,40,51,50,-15,-119,-50,-20
-36,-31,-85,-22,-36,-12,41,182,101,1
42,6,-23,-52,-72,-66,77,380,255,116
144,56,-21,-42,-76,-151,2,296,262,278
170,101,-60,-2,-46,-214,-67,165,248,335
204,121,-28,-4,-44,-214,-100,114,360,344
151,27,3,-41,-5,-28,27,101,231,175
90,-16,24,-40,56,164,172,117,-48,99
44,-1,67,-15,61,79,135,119,-135,101
-27,-6,69,-1,34,-87,-42,45,-77,-57
-91,-46,30,-14,10,-78,-87,-41,-109,-264
-159,-58,33,13,27,71,-1,-73,-207,-356
-145,11,51,70,84,111,-7,-102,-245,-361
-146,22,3,87,100,121,-9,-143,-259,-429
-53,45,79,43,58,141,35,-71,-183,-402
15,60,83,9,17,96,42,-10,-143,-312
-56,12,55,13,18,67,21,-30,-152,-189
-137,12,68,35,23,21,2,-5,-95,-66
-107,74,86,36,-4,-84,-42,0,-29,75
-93,92,81,27,-31,-145,-119,-50,-41,54
-77,38,3,-22,-50,1,-49,-75,-78,-17
129,77,-40,-52,-39,95,-12,-126,-96,60
270,112,-51,-55,-38,-11,-106,-196,-121,106
228,21,-103,-32,-14,-39,-73,-146,-67,105
22,-52,-158,31,61,14,0,-24,74,58
-101,-63,-57,41,82,13,39,164,279,79
49,24,-6,9,48,-6,70,283,422,224
142,48,-13,-21,13,-13,67,263,430,342
66,15,-31,-41,-15,-34,30,184,324,356
89,9,-62,-54,-39,-47,32,113,240,409
53,-52,-64,-35,-8,-73,7,69,207,375
-53,-102,-48,8,51,-61,40,72,85,35
97,24,15,25,2,-173,-45,35,29,-51
214,122,72,47,-5,-243,-180,-94,-22,-34
120,73,45,46,30,9,-66,-186,-152,-170
38,57,18,23,20,140,-26,-308,-271,-188
44,64,-3,34,5,79,-64,-334,-235,-65
-3,5,-126,39,25,78,24,-115,-111,-57
-113,-61,-215,22,20,51,117,167,29,-92
-142,-59,-188,36,0,20,105,256,52,-108
-87,2,-37,75,29,67,102,144,-20,-119
0,61,107,62,23,-48,1,22,-23,-18
22,42,127,51,34,-156,-67,68,49,71
50,40,80,1,-8,-210,-88,181,212,258
113,43,-43,-134,-110,-129,-63,101,229,386
130,51,-65,-117,-73,57,26,16,125,298
154,53,-16,-35,7,106,26,-46,2,190
150,9,-39,-61,-12,99,44,-43,26,160
202,0,-6,-60,-32,19,-13,-76,36,119
210,-3,-3,-64,-69,-72,-89,-61,18,5
-22,0,-3,4,14,36,29,25,-86,-175
-251,17,87,95,125,164,155,46,-302,-375
-263,-42,41,58,89,146,131,-14,-353,-406
-187,-99,-52,-27,-5,70,72,-10,-240,-301
-88,-69,-47,-20,-5,92,72,27,-166,-213
1,-40,-44,-9,6,193,54,26,-78,-121
50,-5,-56,-26,-44,101,-11,90,107,23
74,33,-38,-19,-74,-53,-98,84,138,80
14,-7,-63,8,-37,5,-67,0,11,27
-55,-31,-140,57,-13,60,15,-22,-11,-11
-34,-5,-71,109,-26,-89,-45,-2,85,35
-21,6,27,91,-49,-167,-105,14,235,148
-11,-5,34,16,-72,-97,-81,33,309,275
14,-7,3,-38,-87,-71,-77,8,315,404
26,-29,-131,-132,-116,-57,-88,-17,243,460
24,0,-154,-125,-88,-88,-105,-10,144,396
0,41,-73,-29,-17,-120,-123,-75,-128,29
-97,48,21,26,23,-31,-68,-168,-443,-388
-157,46,145,66,46,55,-27,-208,-509,-392
-149,1,124,40,42,51,-5,-104,-283,-136
-33,-43,27,33,73,156,107,-34,-161,-45
187,-20,23,62,112,196,141,-57,-96,18
71,-30,29,90,103,122,79,-51,4,-41
-187,-115,-29,63,58,93,100,21,21,-152
-222,-147,-40,58,21,58,66,-62,-110,-203
-30,-58,-22,-25,-90,-61,51,-37,-47,-155
145,-15,-8,-68,-141,-293,-73,59,207,-4
125,-68,-19,-24,-86,-338,-131,224,387,114
35,-156,-67,-54,-22,-83,-30,257,352,138
11,-152,-109,-145,-65,243,84,69,204,236
104,12,-58,-110,-105,225,46,-47,131,388
-63,46,50,4,-6,113,34,-61,-114,50
-193,3,75,63,90,142,42,-164,-426,-328
-202,-53,-37,64,132,236,134,-98,-373,-339
-273,-87,-117,9,83,85,45,-76,-172,-225
36,32,-9,-66,11,16,-14,-16,40,-36
194,55,4,-56,5,-41,-38,-6,-15,-131
270,87,52,-6,17,-33,52,59,-119,-273
386,163,95,12,0,-20,100,151,-78,-126
308,201,160,63,20,-78,-16,31,-25,52
-24,63,118,62,45,62,87,115,103,107
-154,-86,16,7,34,145,168,272,235,127
57,-6,29,-5,-22,42,49,176,203,204
210,39,7,-15,-53,-29,20,123,154,188
181,7,-4,11,11,10,21,45,58,130
164,29,25,4,18,-4,-7,27,83,160
125,10,25,-44,-45,-84,-35,117,237,281
11,-23,25,-29,-41,-102,-24,137,219,218
-162,4,75,29,17,-69,-26,71,111,58
-208,33,91,63,55,-26,-58,-40,40,55
-147,5,55,46,69,82,-15,-121,-27,66
-186,-28,26,11,54,71,2,-79,39,-5
-132,64,59,12,17,-5,-41,-61,102,-71
-30,138,92,28,29,28,-69,-192,-44,-120
-31,110,73,22,14,18,-82,-258,-168,-81
-107,3,14,-14,-46,8,-49,-262,-175,-29
-165,-54,-105,-64,-140,-81,-74,-294,-188,-38
-109,-61,-91,-81,-205,-172,-78,-89,-27,24
35,-55,-54,-64,-122,-149,14,230,251,128
152,-26,-53,-44,10,-32,73,278,364,220
220,22,-12,-14,38,-16,70,181,259,168
203,71,80,46,5,-83,32,130,92,81
59,28,99,56,0,-36,48,118,-31,-36
-67,-37,57,22,6,110,122,128,-51,-141
-14,4,-4,-57,-48,3,-1,1,-56,-1
-7,29,-38,-65,-45,-108,-83,-105,-124,-8
-119,29,47,44,60,-59,25,-68,-275,-328
-70,14,25,72,89,20,44,-107,-362,-451
15,-41,-43,21,80,204,83,-207,-431,-462
8,-69,-33,4,62,219,78,-247,-322,-302
6,-59,-52,-24,20,63,3,-218,-118,-60
-4,-44,-20,-31,-1,8,-25,-129,122,121
-41,-61,-22,-48,-37,-59,-66,-53,302,263
1,-72,-54,-96,-88,-161,-138,-66,305,412
21,-55,-33,-89,-65,-113,-45,91,278,419
-155,-91,0,-45,9,12,134,296,203,94
-50,-58,4,-58,2,-23,73,169,65,-4
355,47,28,-55,-38,-125,-65,-35,-18,188
422,28,47,6,24,-48,24,-28,-130,94
91,-99,30,52,118,88,152,21,-227,-77
-123,-90,74,77,171,130,162,-34,-303,-262
-36,3,114,93,135,63,46,-60,-277,-381
67,8,64,63,68,-27,7,45,-48,-303
-56,-38,13,-8,18,28,42,33,20,-225
-165,-42,2,-47,15,91,88,3,-35,-232
-216,-20,35,-24,42,-2,76,50,-26,-175
-121,50,70,-25,-21,-210,-42,85,62,-17
-77,52,48,-21,-77,-288,-127,56,110,85
-159,-9,46,47,2,-149,-114,37,139,29
-54,9,59,55,2,21,-46,94,252,144
110,28,18,-13,-70,133,35,33,251,331
218,30,-8,-40,-88,138,53,-110,103,321
200,43,-3,-1,0,154,42,-200,-153,48
124,15,-44,-17,35,196,107,-84,-157,-100
58,0,-95,-38,16,79,78,32,18,-39
-54,-24,-137,-37,-9,2,36,61,117,5
-64,-26,-90,5,7,-2,22,74,85,-14
-37,-3,11,38,-1,-10,9,66,33,-79
-66,60,59,4,-47,-17,-43,-59,-60,-151
-69,79,-59,-60,-60,31,-60,-134,-108,-209
-9,117,-145,-41,-31,14,-58,-121,-149,-185
28,210,-19,42,14,20,-37,-196,-291,-197
-47,149,99,80,44,65,-10,-263,-434,-330
-142,-15,75,78,75,113,48,-243,-371,-283
-8,-81,61,86,100,82,44,-186,-201,-53
100,-75,69,57,74,13,27,-4,61,139
-63,-102,43,0,4,-27,17,184,362,160
10,-67,0,-56,-69,-98,-42,212,435,197
146,-26,-12,-64,-94,-145,-103,181,308,216
66,-24,-19,-26,-47,-93,-32,257,183,68
51,0,-29,-21,-13,-52,4,254,159,74
119,12,-13,-27,-19,-82,-60,133,231,253
115,1,1,-11,-9,-126,-90,128,237,317
62,-27,-27,0,0,-75,-44,152,148,234
-55,-64,-86,10,18,-23,-54,96,43,99
-209,-101,-69,2,36,110,44,73,-76,-98
-249,-99,-29,-11,39,233,147,48,-167,-248
-178,-50,3,-18,49,116,58,-24,-163,-243
-78,19,18,-34,6,-47,-38,-66,-105,-158
-2,57,25,-23,-17,-200,-119,-58,-32,-53
23,49,30,10,-8,-201,-129,-41,-9,36
77,60,32,9,-12,-92,-72,-60,-48,104
46,14,3,-19,7,132,62,-73,-86,44
-26,-38,-34,-31,-20,158,81,-11,11,-3
-87,-29,44,-4,-31,62,28,17,121,-4
-68,-1,14,-51,-77,-88,-89,-63,108,73
41,14,-60,-95,-102,-128,-126,-119,49,181
65,-32,-61,-39,1,-3,-61,-122,-68,112
126,-19,-29,0,80,112,48,-22,-65,20
255,58,-13,-13,25,52,-1,-10,15,48
102,41,-46,-15,-4,-48,-71,-13,70,26
-197,-35,-74,26,32,18,36,129,87,-205
-332,-59,-95,26,50,178,212,195,-55,-384
-156,7,-21,-8,18,118,145,82,-216,-350
145,64,92,-13,-9,-13,-21,-46,-173,-154
140,35,82,-19,-24,-51,-80,-66,-63,2
124,25,54,-40,-55,-129,-132,-75,-9,144
224,41,43,-40,-81,-204,-210,-82,36,261
109,-25,18,-10,0,-33,-67,-43,-59,54
-107,-75,12,27,81,106,66,-46,-207,-226
-78,-21,25,34,19,-53,-28,-47,-160,-223
136,49,22,43,-49,-252,-171,-38,-46,-73
179,20,10,36,-35,-242,-206,-87,-1,64
159,-4,25,-9,-62,-249,-227,-114,89,232
144,-26,-17,-66,-123,-182,-158,-47,200,351
58,-142,-97,-143,-157,42,53,147,373,369
-84,-186,-93,-86,-86,185,159,263,431,335
-135,-131,-80,-2,-40,165,98,106,215,238
9,-66,-79,0,-34,90,38,-23,-22,104
138,10,-25,-11,-1,82,28,-22,-100,-3
141,7,-45,-26,-5,69,31,21,-80,-39
107,-1,-51,-44,-20,25,31,60,-48,-16
-58,45,33,37,72,71,73,25,-119,-8
-276,36,126,130,147,120,105,-10,-196,-22
-365,-38,92,146,173,135,83,-58,-251,-213
-294,-79,33,112,161,136,89,-38,-223,-304
-141,-11,84,89,120,91,71,-63,-197,-208
-81,42,109,85,102,51,24,-110,-171,-157
-63,0,55,48,62,-2,-53,-73,-15,-97
7,-71,-37,33,44,-64,-66,-59,51,-46
38,-109,-130,35,33,-86,-18,-30,28,0
53,-79,-51,14,-16,-123,-65,-99,35,59
29,-21,6,-43,-65,-62,-76,-170,104,163
-36,-3,22,-13,-41,45,21,-33,141,250
-104,-15,29,28,-5,16,46,66,90,140
-112,-26,-131,-11,-26,-23,2,28,58,-26
41,49,-132,-22,-32,-20,32,90,100,-141
137,68,-44,-60,-70,-50,59,191,195,-83
180,65,-63,-105,-115,-105,17,241,219,86
249,140,37,-22,-59,-58,-19,73,-21,72
105,175,166,114,59,86,81,-40,-350,-346
-48,101,127,77,34,77,93,-21,-303,-392
-24,41,51,-5,-34,-17,7,21,-53,-119
1,-10,-9,-36,-13,-44,-21,36,74,63
-34,-26,-64,-45,9,26,44,19,66,101
57,-6,-92,-22,17,38,51,-29,1,132
122,13,-129,-2,-2,14,35,11,50,140
69,2,-124,-20,-37,-16,-7,46,184,116
29,-57,-6,-60,-85,-44,-38,100,229,77
46,-80,21,-60,-79,-65,-75,70,197,105
92,-38,-5,-44,-53,-17,-70,-60,92,124
93,-11,15,-22,25,127,47,-72,-54,19
88,0,0,14,82,181,139,53,-127,-110
-30,-27,19,72,94,128,114,99,-153,-145
-116,-76,34,44,45,60,83,109,-108,-153
-82,-62,22,-1,-42,-41,31,101,-87,-234
-54,5,3,-38,-99,-153,-50,38,-119,-274
-66,41,-15,-51,-145,-186,-104,-26,-127,-202
-93,40,9,-11,-63,-136,-143,-93,-116,-117
-118,19,41,42,112,-24,-99,-95,-107,-39
-23,19,76,104,204,80,26,-53,-52,79
68,33,46,100,165,152,80,-18,31,89
94,31,-3,41,83,127,80,26,131,74
13,-50,-9,-5,25,64,48,53,174,80
-73,-91,-20,-7,14,48,17,77,172,84
-35,-34,5,-7,-5,9,-6,75,130,131
117,27,28,-22,-51,-50,-37,33,73,191
173,22,13,-30,-65,-55,-35,36,88,235
124,27,27,-17,-44,-75,-52,2,12,133
96,85,54,-8,-38,-101,-94,-92,-166,-22
76,113,73,7,-34,-117,-143,-154,-153,22
-20,50,22,-22,-59,-91,-108,-123,-38,111
-34,17,-21,-39,-72,-84,-82,-78,20,174
46,37,5,10,-41,-33,-57,-118,-17,121
180,113,66,54,-33,-21,-22,-136,-24,75
302,118,93,36,-63,-137,-80,-85,-23,69
267,4,35,-34,-46,7,-20,-114,-157,-108
100,-16,11,-23,-3,182,71,-83,-192,-245
-264,-80,-138,0,37,196,127,9,-128,-258
-376,-157,-232,4,14,77,101,82,-29,-154
-204,-103,-107,11,-24,-65,44,160,100,20
-78,-46,12,9,-8,-75,18,160,101,31
-42,-18,-6,-5,0,-69,-32,102,57,2
-133,-67,-45,-26,-8,27,-40,51,15,-17
-230,-130,-88,-82,-33,257,105,23,3,-62
-76,-47,-37,-70,-72,79,-3,-40,50,89
33,54,48,-22,-72,-77,-121,-106,-19,96
-159,8,118,81,35,78,-4,-95,-176,-186
-236,5,135,118,41,38,8,-46,-124,-233
-85,23,78,53,-34,-141,-94,5,109,69
-3,59,1,-17,-79,-166,-144,-45,125,198
79,97,-48,-73,-133,-50,-73,-75,13,200
96,97,-39,-12,-43,152,41,-123,-165,109
108,70,2,63,40,178,86,-71,-223,-100
81,33,7,75,46,12,26,-26,-187,-243
13,8,18,90,60,-68,6,-71,-110,-240
37,1,14,56,53,-55,-10,-75,21,-109
-39,-67,-23,6,53,86,100,33,152,-25
-86,-63,-20,10,59,78,137,161,193,85
-9,0,-24,-18,35,-13,111,259,231,205
51,44,6,-25,18,-102,17,208,262,234
78,31,13,-6,17,-57,-12,66,188,183
87,-27,-35,-40,9,190,161,134,204,167
78,-30,-19,-21,17,156,158,128,147,94
146,47,4,10,12,-13,11,-15,58,83
164,80,-22,8,12,-64,-40,-76,-9,107
53,17,12,-19,24,-11,55,22,-17,88
-37,2,43,1,58,40,71,9,-93,25
-14,15,54,1,46,39,19,-53,-149,-49
4,8,-14,-25,11,-19,-49,-54,-158,-117
38,7,13,-12,-2,-75,-46,11,-127,-160
58,22,58,9,-9,-114,-85,-56,-160,-156
-9,-43,36,-10,-7,-41,-83,-194,-267,-143
-204,-132,30,4,43,113,25,-179,-356,-264
-243,-137,26,-2,71,79,56,-95,-264,-208
-148,-94,-34,-63,23,-3,4,-75,-64,-21
-42,-60,-68,-85,-24,-28,-9,-16,127,125
60,3,-17,-59,-60,-22,21,81,230,181
271,123,42,-63,-84,-81,-4,75,220,275
298,101,2,-112,-85,-74,10,37,130,245
79,32,-16,-74,-8,-27,12,-17,-33,-24
-52,12,34,27,98,-19,-23,-60,-154,-225
-110,-6,74,82,104,-20,-27,-62,-146,-294
-90,20,56,81,57,-31,-23,-64,-77,-248
9,84,50,76,14,-45,-6,47,-23,-184
67,55,96,77,10,-81,-37,-2,-64,-148
142,6,16,7,-51,-133,-110,-138,-90,-9
273,3,-40,-72,-135,-204,-163,-85,8,209
337,-58,-77,-84,-115,-56,-72,-42,31,266
282,-83,-72,-52,-44,65,0,-49,32,159
122,-38,-17,-9,17,31,9,8,43,28
-27,-52,11,7,55,87,73,145,78,-34
-283,-102,36,44,94,118,126,213,133,-69
-352,-81,15,98,127,75,109,171,160,-25
-327,-115,-15,86,107,-19,49,190,253,-19
-304,-48,80,116,58,-166,-61,182,244,-95
-124,40,179,103,40,-142,-100,51,109,-85
68,-3,39,-101,-38,128,47,-88,-116,-80
280,53,-70,-167,-82,156,15,-154,-224,-38
314,96,-63,-86,-38,44,-36,-90,-188,0
235,33,-158,-62,-4,33,-36,-42,-156,-9
186,-29,-162,-90,-43,44,-40,-65,-91,65
111,-1,-45,-54,-58,20,-56,-92,-29,124
-28,2,0,-4,-37,-66,-76,-72,-29,77
-187,-13,38,28,-2,-95,-65,-21,11,25
-285,-15,58,30,-14,-106,-35,61,60,-60
-245,-24,15,2,-26,-44,20,90,93,-130
-150,-29,-29,-16,-18,-15,-2,56,150,-89
-133,-55,8,-5,30,47,39,116,173,-75
-160,-111,3,7,56,154,140,186,153,-22
-160,-156,-44,-11,46,132,131,142,128,58
-58,-106,-38,-28,-9,33,46,83,189,178
35,-17,-21,-60,-62,-60,-18,89,258,221
36,8,-33,-73,-57,-32,-33,10,173,100
171,-14,-85,-112,-114,-59,-86,-84,94,141
306,11,-47,-88,-103,-123,-150,-188,-107,99
222,62,64,47,15,-63,-158,-339,-379,-124
199,95,99,102,102,-2,-180,-482,-497,-187
67,66,95,98,142,100,-103,-489,-400,-153
-112,74,109,104,102,81,-38,-270,-245,-209
-197,99,36,48,0,-33,30,236,78,-206
-229,44,37,-22,-48,31,159,609,363,-75
-153,-3,35,-28,-30,126,215,532,325,72
-70,-23,25,-19,-21,46,53,190,154,101
-19,-68,-5,-5,-41,-53,-48,46,160,111
118,-78,-14,0,-42,-49,-46,65,163,135
68,-114,-69,-21,-20,-4,-10,90,139,121
-21,-119,-92,-2,52,40,56,133,101,60
98,6,2,40,88,-44,-22,106,84,30
120,68,64,64,52,-123,-123,48,39,-55
53,76,71,50,41,-61,-69,35,-6,-105
-28,54,59,17,28,-48,-21,-20,-69,-53
-82,-22,2,-34,-6,-42,-46,-124,-213,-45
-27,-65,-33,-57,-47,-63,-26,-59,-145,19
23,-78,-53,-50,-59,-34,-39,-37,-113,15
11,-8,-59,-31,-13,150,-5,-130,-254,-184
49,68,-134,-34,-13,169,13,-149,-288,-305
59,63,-156,-23,-2,149,32,-135,-198,-234
54,49,-45,-7,-1,107,42,-73,-36,-81
85,52,-42,-27,-38,-29,-20,-21,85,82
48,-16,-88,-96,-96,-97,-28,113,253,201
-59,-83,-121,-104,-89,-70,8,117,249,244
-123,-77,-70,-15,0,-28,38,5,89,192
-26,20,15,44,4,-46,20,3,47,132
18,109,78,69,6,-95,-60,-37,-20,-26
-60,122,62,61,12,-99,-115,-117,-105,-104
-100,98,-4,30,16,-17,-114,-232,-179,-41
-84,111,-39,0,16,138,22,-270,-363,-182
-32,110,-111,13,14,124,30,-268,-466,-267
51,63,-131,-6,-21,57,-17,-261,-330,-143
221,23,-97,-18,-73,-41,-73,-200,-69,29
229,-49,-43,-11,-41,-65,-67,-75,103,72
149,-85,-87,-55,-51,-55,41,292,418,165
-56,-79,-80,20,53,6,123,406,466,226
-217,-55,24,88,132,59,127,324,252,148
-126,-7,23,22,35,-43,40,281,218,115
93,53,-11,-54,-90,-186,-67,207,326,272
76,26,-44,-54,-71,-173,-68,121,231,315
-74,3,-4,16,12,-101,-43,0,-79,33
-266,-8,24,73,71,17,0,-109,-321,-327
-286,-18,-33,82,81,137,59,-116,-309,-391
-106,38,55,78,41,50,-23,-149,-180,-177
204,130,125,31,56,12,-63,-260,-215,-168
168,57,60,-29,25,76,30,-104,-76,-113
74,5,32,-30,36,151,139,143,117,31
-87,-8,38,-8,49,59,48,68,103,106
-161,-32,-7,-49,-24,-34,-19,13,82,80
-145,-34,-39,-73,-70,-97,-11,82,81,107
-200,-37,-27,-51,-33,-121,-21,45,-18,100
-202,-33,-32,-64,-43,-142,-36,14,-12,57
-159,-11,-39,-79,-33,-47,-29,-79,-1,18
-45,16,-46,-81,-23,50,-27,-189,-4,-7
21,-4,-64,-26,17,57,-30,-165,-13,-154
101,-12,-86,52,61,-7,-38,-66,3,-170
318,183,132,253,183,-5,-53,-112,-154,-145
184,86,182,131,143,133,101,55,-127,-256
120,13,103,0,41,115,177,281,30,-143
-10,-61,-39,-90,-42,61,193,260,73,-71
-84,-77,-35,-72,-28,47,101,63,3,-56
-109,-86,3,-28,12,89,87,-22,-19,-26
-100,-59,25,2,13,64,80,-1,20,-22
-80,-29,30,-3,-11,-33,10,15,115,0
-61,-3,42,3,-6,-80,-2,46,128,87
-31,13,48,0,-28,-112,13,174,163,134
118,13,-13,-38,-65,-131,-22,153,225,253
158,-22,-138,-60,-61,-21,-21,-27,139,273
-32,-63,-89,-22,6,129,85,-55,-9,98
-77,-13,63,21,29,55,28,-117,-138,39
-20,58,111,35,31,16,-25,-205,-234,94
51,91,79,30,19,14,-12,-146,-179,155
114,28,-2,6,10,4,-1,-44,-1,202
122,2,2,17,4,-42,-61,-68,51,176
153,37,74,26,-18,-87,-113,-127,21,156
128,46,119,6,-37,-34,-64,-86,-32,4
82,28,61,-38,-46,4,-1,76,25,-73
9,-2,-23,-70,-38,74,62,179,72,-117
-134,-17,-45,-59,-8,77,61,115,7,-150
-171,-31,-35,-46,-29,-9,19,55,11,-48
-129,-38,-16,-15,-40,-104,-33,18,67,3
-87,-67,-22,3,-28,-149,-65,16,68,40
-86,-97,-39,-11,-1,-123,-22,7,-97,-62
9,-36,0,10,8,-163,-50,14,-186,-150
7,0,-7,4,-8,-41,-18,-24,-172,-149
-162,-41,-60,-47,3,198,71,-73,-141,-189
-212,0,-28,-58,-12,176,55,-45,54,-87
-113,112,-37,-33,-43,18,8,40,231,68
28,144,-66,1,-46,-114,-87,83,283,178
3,75,-93,5,-36,-124,-122,48,224,210
71,39,-112,-31,-56,-107,-143,-48,115,278
250,10,-46,-58,-19,142,59,-31,-11,193
207,-67,-14,-13,45,263,183,2,-148,-72
-5,-91,17,34,58,129,80,-73,-194,-213
-69,-71,9,17,28,33,-17,-114,-179,-246
-9,-76,-61,-86,-43,-17,-32,-1,-40,-183
63,-69,-56,-102,-51,-24,-21,68,22,-135
171,58,43,-20,14,-13,-51,0,-43,-84
132,97,105,38,98,31,-15,9,-78,-26
35,72,115,76,121,40,-10,-16,-153,-15
51,46,86,65,65,13,-1,-22,-143,39
90,32,36,21,-7,-54,-23,-29,-69,100
135,50,41,26,-20,-144,-106,-61,-32,121
91,29,39,26,-6,-128,-66,44,77,88
-92,-43,-27,-16,13,25,57,135,135,-48
-153,-58,-23,-26,27,42,21,80,70,-86
-130,-47,-15,-38,-14,8,-33,19,1,-85
-138,-14,3,-11,-29,118,38,-39,-38,-144
-44,56,53,50,-20,98,0,-158,-116,-129
45,44,-10,4,-36,65,-40,-235,-212,-103
107,-9,-6,-9,13,57,-30,-209,-156,-6
84,-7,36,44,131,70,-10,-215,-94,5
33,0,59,44,93,43,12,-128,-9,-73
-16,7,25,-2,10,-18,10,0,83,-84
-94,86,77,36,20,-72,-79,-33,45,-112
-122,118,123,53,61,34,-19,-47,-63,-158
-42,109,54,28,57,138,107,46,-76,-39
84,85,20,-3,23,89,93,99,39,108
154,87,22,-40,-41,6,41,84,192,218
166,40,-7,-70,-107,-81,-22,113,339,298
-87,-78,-34,-71,-93,-63,12,194,385,290
-389,-157,-24,-14,-25,16,68,216,245,165
-309,-101,-9,-2,-11,18,62,206,121,69
-12,-54,-3,17,-70,-184,-89,37,-18,-144
82,-32,-9,47,-87,-211,-125,-45,-57,-68
240,84,108,103,-51,-185,-160,-153,-117,55
240,97,172,152,35,-177,-172,-165,-63,97
68,-32,47,62,53,-79,-92,-35,112,162
119,-60,-118,-104,-35,13,40,139,174,214
110,-35,-123,-118,10,127,132,132,46,157
-121,-8,0,14,126,212,120,4,-189,-134
-232,0,42,55,138,252,169,-45,-336,-423
-219,-6,14,-3,37,107,137,-52,-218,-362
-237,-34,-14,-37,-19,-16,53,-86,-83,-219
-279,-72,-30,-31,4,-20,20,-140,-63,-184
-254,-64,-33,-16,38,152,104,-98,-77,-148
-100,0,-15,0,43,239,92,-98,-112,52
141,71,-38,14,11,114,18,-104,-105,250
306,53,-50,-3,-36,9,11,-17,9,296
251,-7,-28,-46,-83,-39,-4,51,131,261
136,-13,-22,-61,-88,-2,8,160,164,220
93,42,-10,-26,-55,-24,-52,111,97,171
42,53,0,-16,-29,-84,-132,-6,100,-2
-32,62,26,-7,-15,-69,-122,2,177,-97
-27,70,59,31,33,-60,-112,-66,98,-33
42,56,51,48,38,-82,-79,-54,-13,27
36,1,-7,33,51,26,50,84,-49,46
-140,-65,-31,7,60,181,164,136,17,21
-136,-43,-19,9,22,144,107,112,160,97
139,92,-21,25,-44,-55,-90,-45,151,338
208,64,-63,-1,-55,-31,-56,-24,49,298
21,-52,-50,-10,-22,68,84,131,-58,-16
-69,-77,-16,11,-19,9,91,278,57,-57
-34,-28,6,17,-27,-30,30,307,126,-60
32,77,52,12,-30,-117,-97,50,-14,-84
0,143,105,48,15,-204,-139,-82,-25,-132
-19,91,70,60,36,-160,-67,39,68,-149
-58,-30,-37,13,17,56,136,169,91,-111
-83,-67,-50,9,20,179,228,100,-75,-186
9,7,24,30,-33,-28,30,-43,-209,-147
26,11,65,50,-32,-165,-100,-108,-221,-73
8,-11,30,46,10,-137,-160,-184,-278,-95
-15,-47,-54,-19,-28,11,-55,-111,-237,-113
2,-42,-121,-80,-64,88,19,-37,-139,-66
38,-15,-164,-103,-69,34,-16,-29,-8,-4
-108,-26,-141,-27,-14,17,-13,52,65,-147
-214,-35,-109,30,38,20,2,110,60,-273
-190,-3,-61,56,65,94,85,148,50,-170
-120,57,43,103,63,119,104,121,86,-48
-86,103,124,82,16,-42,-14,30,57,-59
-148,77,49,8,-41,-58,-14,-13,40,-47
-205,36,-15,-6,-23,145,105,-7,-29,-61
-55,97,-31,6,-18,135,69,-21,-68,-41
141,149,-66,3,-53,-27,-49,-92,-112,-6
182,156,-6,-12,-77,-73,-103,-134,-187,-56
240,153,-7,-30,-65,-35,-96,-94,-192,-55
401,215,14,-9,-37,-21,-99,-87,-134,25
267,131,42,10,-6,0,-30,-36,-51,29
-65,-19,15,31,31,14,23,10,1,-7
-108,-107,-21,19,33,12,10,8,41,59
-24,-151,-34,11,26,23,10,-28,29,117
-30,-91,-5,8,0,-26,-38,-77,-38,92
-41,-38,-7,-10,-37,-98,-84,-58,-20,121
56,19,32,13,-42,-129,-69,-43,65,201
65,-6,-1,33,-17,-82,4,-39,86,174
20,-95,-89,-34,-52,-32,54,11,126,131
49,-64,-68,-79,-115,-77,39,164,279,244
56,-3,-28,-65,-104,-116,-42,148,281,307
-32,15,-39,-53,-90,-67,-86,-10,146,185
-28,30,-30,-44,-66,42,-47,-63,25,-6
99,49,30,-18,-18,83,5,-36,17,9
74,10,64,13,13,89,18,-44,54,26
-58,-72,12,25,40,72,13,-20,170,110
-93,-55,26,12,32,21,-36,18,224,394
7,10,67,37,35,9,-30,-13,111,439
43,-3,91,70,60,-6,7,-31,-57,179
-58,-43,102,83,55,-25,21,-39,-255,-292
-97,-15,128,104,48,-102,-42,-79,-364,-519
-76,1,104,121,30,-125,-82,-84,-255,-436
-238,-112,7,59,83,137,27,-149,-241,-379
-260,-171,-11,20,160,342,114,-188,-244,-321
-170,-148,20,48,135,207,98,-12,-87,-198
-75,-120,33,9,16,-19,62,246,190,-27
53,-40,24,-62,-69,-164,-35,246,244,5
166,55,-10,-100,-106,-240,-139,128,133,40
196,86,6,-74,-59,-96,-135,-106,-82,68
145,35,33,-37,27,273,43,-245,-230,13
11,-32,55,22,58,246,28,-273,-225,-40
-163,-112,39,13,3,70,10,-163,-64,-29
-228,-117,53,41,0,-15,15,4,124,17
-208,-79,85,57,41,-19,-8,29,90,-91
-160,-29,94,46,68,16,3,-18,-56,-199
-99,-12,54,-6,11,-64,-33,-64,-34,-94
5,-22,0,-47,-51,-193,-143,-134,128,98
190,-5,-24,-53,-71,-245,-187,-124,154,275
354,-45,-88,-108,-106,-70,15,137,171,369
323,-99,-93,-97,-65,202,242,417,257,321
211,-77,-48,-44,-37,105,157,308,240,282
228,11,-9,-22,-78,-55,18,82,123,227
142,28,13,-7,-76,-72,9,-1,-31,96
32,-27,-18,-9,-65,-94,-28,-48,-113,18
-24,-51,-123,-45,-41,-8,55,37,-40,-59
-98,-35,-70,-25,33,51,93,80,-60,-193
-150,-24,40,65,100,35,53,66,-168,-324
-173,-51,13,62,77,60,39,25,-146,-347
-157,-50,-36,13,46,109,123,163,51,-282
-141,-31,-2,-18,35,67,123,237,125,-160
-21,33,20,-29,8,-16,15,102,72,-10
56,38,6,-14,18,-38,-58,-4,96,140
95,-25,-29,-26,19,-46,-64,33,261,354
250,8,-2,-17,3,-107,-93,75,316,571
261,27,0,-8,-23,-110,-88,48,172,516
125,32,50,47,25,-38,-57,22,-69,155
-38,22,64,46,55,87,36,34,-191,-122
-183,1,64,55,87,129,89,19,-178,-307
-235,-6,58,37,65,86,42,-94,-237,-415
-256,-2,42,13,27,57,27,-134,-243,-417
-211,-17,44,34,38,28,20,-77,-154,-335
-46,-46,19,14,9,-35,9,73,18,-180
217,-28,13,-9,-32,-70,29,161,163,73
268,36,68,24,0,-30,16,61,83,95
162,45,13,22,27,72,12,-31,-88,-47
152,3,-112,-40,3,95,-27,-100,-161,-39
164,27,-23,-28,-5,-68,-157,-157,-181,14
140,25,-48,-22,-19,-111,-175,-171,-161,13
134,19,-29,-35,-45,-105,-112,-131,-62,40
64,-55,-56,-88,-120,-155,-67,-62,4,77
-25,-88,-26,-79,-155,-227,-143,-130,-58,34
-151,-1,83,19,-66,-162,-145,-185,-81,-42
-339,-67,50,38,37,114,22,-123,-67,-57
-226,-51,53,59,76,270,110,-45,84,205
46,68,53,47,54,116,47,19,235,353
185,131,-97,-55,-54,-31,0,40,255,294
234,57,-125,-124,-130,-60,87,163,309,271
134,-10,-33,-59,-81,-42,101,172,219,147
-65,-83,19,48,39,-6,58,104,-20,-195
-165,-130,20,126,145,56,57,49,-282,-487
-79,-87,10,130,205,125,47,-30,-362,-402
-39,-16,43,125,176,83,3,-71,-316,-293
-69,104,163,99,51,-116,-72,-25,-139,-180
-58,213,275,88,-56,-373,-245,-32,36,6
28,157,135,29,-71,-361,-303,-106,77,121
72,-23,-117,-123,-38,103,38,-7,134,145
-13,-98,-193,-155,-3,343,229,94,202,211
-49,-42,-145,-92,3,278,208,95,157,179
79,11,-70,-47,-12,86,69,32,120,220
43,-15,-37,-22,25,52,-3,-46,54,251
-5,0,-2,15,97,57,-46,-137,-6,152
-71,3,-15,3,75,3,-49,-144,12,55
-83,-1,-27,-18,17,-55,-82,-154,-4,-26
-37,3,-32,-22,-29,-66,-56,-82,-76,-129
-66,28,43,62,32,0,-14,-139,-286,-287
-98,60,132,132,91,19,-85,-333,-434,-338
12,19,-65,-62,1,7,17,-30,-50,-247
10,18,-101,-82,-20,-61,53,313,213,-105
34,42,-54,-28,13,57,172,559,317,29
94,83,8,14,20,86,154,439,206,54
69,59,28,27,22,20,44,144,83,49
-11,24,23,31,16,-15,8,49,77,74
5,56,50,55,19,-64,-58,-27,63,104
27,21,18,24,-6,-69,-100,-77,92,169
64,-8,-26,-23,-58,-78,-102,-73,132,194
64,-14,-32,-47,-83,-81,-97,-106,38,102
-51,-20,-23,-26,-32,28,-38,-193,-178,-102
-159,-12,-42,-3,20,77,-1,-219,-281,-222
-184,-69,-150,-59,-46,-29,-43,-166,-137,-63
-59,-74,-96,-106,-122,-146,-112,-134,109,216
181,-17,-65,-123,-144,-173,-130,-114,286,423
174,-38,-46,-71,-51,24,2,-37,340,359
16,-98,13,9,62,144,114,70,316,161
-67,-112,51,56,134,168,109,11,126,53
-20,-72,62,46,150,110,27,-84,-98,-74
-93,-53,14,-10,92,-1,-47,-99,-203,-326
-182,-34,2,-24,51,-27,-71,-135,-311,-518
-102,-22,2,-8,61,110,61,-87,-292,-540
107,-1,-4,7,45,112,128,163,44,-300
167,-3,5,36,65,104,146,257,210,-73
197,32,29,49,80,81,92,91,85,89
204,45,25,12,15,-15,-16,-16,41,210
166,6,-4,-18,-25,-85,-87,-73,2,155
104,-12,-21,-30,-19,-35,-69,-122,-36,7
72,28,12,19,44,79,4,-148,-78,-84
107,98,74,57,67,45,-34,-132,-188,-186
108,97,34,20,41,46,55,106,-145,-186
47,60,-55,-5,49,117,102,86,-142,-148
26,27,-48,11,50,71,32,-45,-125,-74
23,6,1,6,5,-3,-18,-62,22,124
-15,-5,8,-15,-18,-44,-56,-55,155,291
-57,7,10,-8,-28,-106,-87,-42,227,307
-49,27,-48,-6,-31,-120,-124,-93,146,219
-56,23,-87,-3,-14,-37,-59,-92,14,61
-50,-44,-85,-49,-49,-11,-10,0,85,-86
85,-50,-60,-49,-50,-10,4,41,104,-135
77,-111,-72,-65,-37,93,91,55,-31,-161
-57,-146,-77,-48,11,205,165,30,-169,-187
-59,-96,-59,2,18,148,125,-55,-226,-165
-12,-99,-36,-1,-17,39,113,46,-139,-118
-30,-82,13,37,4,-46,82,147,-23,-38
-2,-27,59,82,30,-47,28,125,56,32
35,40,103,123,45,-33,7,82,48,42
-15,47,103,109,19,-86,-43,42,52,2
-49,25,100,92,-14,-149,-111,-11,41,56
12,24,102,76,-24,-80,-82,-30,-22,138
70,21,80,38,-41,-64,-49,-8,-17,187
-66,-59,3,-8,-36,2,28,51,40,181
-114,-21,-21,-34,-34,42,60,73,74,141
120,139,-46,-48,-80,-46,-33,-18,52,53
184,156,-56,-34,-106,-162,-109,-48,114,-46
102,72,14,-18,-98,-162,-100,-46,76,-119
26,-31,24,-7,-30,38,56,8,-46,-136
-130,-115,15,15,73,280,188,19,-206,-211
-152,-97,13,18,76,237,109,-51,-205,-95
-134,-102,-10,-1,-2,110,31,-54,-59,64
-76,-69,-86,-21,-17,110,27,-76,-4,128
-13,-19,-199,-60,-59,34,-18,-60,2,140
-33,-20,-106,-35,-47,-7,-44,-88,-31,64
-92,-28,-7,31,21,41,-11,-96,-74,-51
-58,-20,-3,57,46,55,-7,-47,-61,-74
-47,-26,-22,41,44,44,-7,38,51,14
-97,-45,-33,32,28,44,28,130,163,40
-24,12,24,38,29,23,24,119,142,-50
43,71,80,71,25,-43,-36,29,30,-91
21,150,110,64,-20,-159,-109,-17,30,-4
-52,132,59,27,-32,-220,-118,-7,78,111
-94,84,7,4,-23,-207,-135,-75,21,104
-100,39,-37,-6,-19,-11,-20,-112,-124,-70
-50,11,-66,-27,-1,166,125,9,-159,-177
42,-20,-73,-54,-7,111,103,112,-80,-86
250,52,24,33,19,-75,-70,31,1,108
305,94,85,119,82,-73,-108,-151,-64,149
129,72,80,123,91,85,-30,-158,-101,30
-25,33,48,73,31,123,29,-33,-31,-65
-143,-54,3,28,-17,53,13,56,35,-91
-283,-127,-30,-14,-11,93,33,3,-64,-116
-262,-101,-13,-9,-3,148,83,12,-48,-36
-137,-59,-16,-13,-9,44,18,4,157,67
-95,-41,-80,30,17,-35,-78,-100,184,15
-13,-24,-169,15,-18,-85,-105,-36,196,58
208,6,-167,-45,-66,-86,-33,125,217,189
229,7,-29,-37,-57,-95,-36,106,183,215
115,60,126,-3,-31,-133,-42,131,149,120
41,96,116,-29,-26,-89,23,196,96,23
49,88,56,-62,-31,-71,39,187,59,2
265,152,63,-29,-37,-143,-145,-45,-46,11
383,148,5,-64,-37,-68,-144,-167,-129,2
174,60,-40,-102,11,185,93,-95,-197,-107
44,1,-40,-85,5,313,217,-16,-155,-182
97,35,-22,-45,-26,150,145,38,-77,-114
88,73,13,-2,-10,-2,10,-22,-147,-97
-41,59,104,84,124,31,-9,-44,-264,-201
-164,-19,102,108,201,116,93,93,-143,-223
-133,-75,77,74,149,95,118,143,3,-154
-134,-135,20,15,90,62,81,135,94,-22
-86,-116,-3,-17,36,31,44,104,86,59
-86,-48,2,-26,1,15,27,55,-9,70
-141,-34,7,-24,-16,-18,6,23,-51,53
-132,-72,-19,-27,-21,-79,-6,69,5,47
-87,-61,-69,-40,-50,-93,-53,20,-3,55
43,20,-124,-57,-78,-6,-9,-52,-69,24
102,73,-20,-26,-59,-7,-11,-60,-49,0
23,25,12,-34,-37,-8,7,21,19,-45
1,51,48,-8,-8,-3,55,111,82,51
121,145,60,-15,-31,-70,-12,40,121,250
243,167,-17,-103,-112,-116,-91,15,205,400
190,89,-65,-120,-118,-86,-82,54,302,489
73,88,-17,-29,-57,-117,-115,20,248,386
170,110,14,-13,-56,-193,-150,-9,189,316
150,33,28,14,25,-46,-62,-80,-103,40
-73,-42,-13,107,151,211,106,-141,-463,-386
-205,-82,-78,117,149,164,66,-238,-481,-400
-251,-62,8,102,113,52,-9,-250,-381,-355
-218,-33,78,84,85,5,-5,-163,-195,-274
-103,5,41,81,86,7,-30,-115,33,-46
4,72,88,77,64,46,1,-90,193,229
-104,-1,-9,-15,-11,75,121,128,319,258
-159,-30,-40,-37,-44,29,122,300,328,140
-124,-25,-18,-19,-41,-46,69,334,301,136
-57,-2,-31,-23,-70,-111,28,345,258,83
35,-17,-53,-58,-85,-76,25,295,14,-95
154,0,-22,-39,-53,-50,44,287,-118,-317
138,-30,33,39,14,57,133,304,-33,-392
-95,-76,48,69,76,205,178,230,-74,-387
-196,-73,41,60,105,234,92,16,-282,-358
-141,-80,-12,7,51,125,28,-92,-325,-241
-30,-51,-38,-11,0,-48,-16,-63,-182,-82
17,-17,-12,16,-36,-164,-87,-43,-82,-18
-38,-21,30,9,-54,-40,-56,-106,-56,-43
-107,-32,83,61,4,-4,-37,-115,-8,-12
-188,-15,151,151,44,-163,-119,-83,48,49
-227,-6,114,106,7,-227,-155,-111,31,54
-166,-14,13,-4,-79,-218,-135,-174,-27,0
-145,-74,-68,-74,-101,-14,107,31,53,-11
-39,-31,-18,-9,9,131,253,252,146,29
274,124,74,74,82,64,124,113,80,121
375,168,70,54,37,7,63,-4,70,211
133,86,35,23,-6,-62,27,-27,78,190
37,48,-21,-18,-41,-129,-16,-83,12,103
73,36,-76,-19,-36,-103,-20,-57,-18,59
-76,-53,-87,-21,34,123,93,-27,-34,-20
-64,-12,-50,3,59,199,136,4,26,52
121,97,-19,8,24,3,17,11,127,163
89,59,-35,2,-3,-32,-29,-31,180,119
14,-19,-91,-59,-42,-60,-100,-77,241,135
110,-44,-143,-125,-96,-153,-157,-55,343,353
212,29,-86,-80,-104,-203,-112,1,317,422
55,35,-59,-23,-39,-91,-38,-42,167,250
-117,-37,-81,-13,28,91,17,-70,60,111
-34,-3,-60,-14,31,121,-5,-146,-155,37
12,59,-42,-17,-35,14,-41,-132,-248,-26
-107,38,-71,6,-7,71,43,-40,-280,-253
-151,32,-23,87,70,123,63,-96,-349,-383
-88,52,43,118,92,135,74,-73,-318,-353
52,89,46,68,29,72,35,-40,-236,-213
126,70,36,18,-5,4,-49,-143,-228,-143
67,20,-4,-42,-49,-32,-67,-126,-153,-185
38,22,-29,-78,-90,-77,-65,-62,-82,-174
-48,-31,-47,-55,-57,-35,-53,-68,-120,-156
-193,-111,-50,-22,-8,66,8,-36,-146,-185
-132,-80,2,39,5,82,39,-69,-150,-166
-21,-10,20,37,-28,8,-11,-65,-94,-51
-3,9,35,37,-30,-29,-40,41,31,90
2,21,66,62,33,22,-18,38,67,137
80,47,34,8,31,41,-18,-20,16,107
171,77,-17,-24,-2,11,-31,-135,-52,61
145,108,36,11,18,-20,-33,-130,-66,-30
-18,59,32,13,7,-62,-2,41,64,-77
-142,9,42,49,60,-40,18,51,85,-84
-126,13,87,95,94,-37,0,39,63,-40
-64,15,34,13,-3,-88,-35,81,111,42
17,5,-27,-61,-76,-149,-68,46,148,137
64,-57,-63,-95,-76,-112,-61,-50,99,141
67,-114,-98,-122,-44,51,-12,-145,25,114
109,-79,-74,-124,-28,152,18,-199,12,140
124,-34,-33,-88,-24,70,30,-113,73,133
62,-55,-8,-20,28,42,71,7,47,-30
-38,-67,21,6,65,13,76,61,-55,-135
-42,-43,40,13,29,-26,57,180,0,-6
29,6,51,7,-8,-65,-27,147,186,292
-25,-16,6,-16,-47,-75,-76,59,268,462
-38,-29,-48,-32,-46,-61,-75,30,211,448
-15,-30,-45,-18,-22,-39,-48,29,114,243
-5,-78,-132,-31,6,-1,-21,41,74,-13
-19,-94,-141,-6,47,17,-31,6,-15,-169
-68,-50,-20,68,82,-2,-47,-44,-118,-235
-86,-56,-67,45,38,0,-20,-57,-183,-274
9,-95,-160,-70,-28,82,103,52,-97,-216
98,-69,-86,-68,-37,28,12,30,-12,-51
139,12,-49,-61,-48,61,-55,-36,18,97
58,-14,-97,-94,-57,115,34,3,3,129
-147,-95,-68,-15,6,75,37,-2,-70,-19
-157,-93,26,114,71,34,-4,-38,-93,-85
185,1,94,159,75,-48,-79,-136,-55,96
299,50,34,116,43,-92,-86,-91,126,272
58,5,48,79,19,-122,-68,57,345,334
-124,-17,72,-6,-49,-151,-68,23,315,329
-127,11,2,-92,-112,-148,-64,-10,91,166
-149,-10,-29,-82,-71,-54,46,108,-29,-149
-175,-48,0,-15,29,183,208,111,-192,-452
-38,-14,38,36,100,285,189,-53,-377,-567
32,26,66,54,114,200,77,-167,-390,-498
-29,33,97,77,101,101,35,-198,-359,-453
7,21,78,56,53,13,-29,-183,-275,-268
48,21,49,21,12,-31,-77,-141,-147,-53
118,-26,-30,-53,-55,-11,-30,0,34,81
132,-101,-113,-117,-92,16,16,87,174,169
92,-78,-115,-85,-63,10,16,64,166,183
47,-28,-40,-10,-20,-5,9,101,100,50
-45,-3,19,-2,-24,-41,39,295,148,-79
-37,38,35,-19,-37,-102,12,369,217,-84
-10,12,-24,-16,-43,-47,-17,239,113,-58
25,-21,-33,-25,-32,73,51,113,79,49
85,25,22,8,0,32,-10,2,29,78
132,38,26,32,22,-67,-93,-27,-7,12
111,-9,-16,32,26,-82,-70,6,1,22
54,-13,-109,33,23,-48,-53,-39,-39,3
-25,-52,-123,-6,13,121,62,-101,-152,-92
55,36,32,18,-24,-6,-2,-122,-179,-82
37,43,-3,2,-35,-25,-20,-60,-97,-57
51,44,-38,-28,-71,-24,-4,19,-19,2
61,88,61,13,-39,-46,-39,-14,-38,-24
10,105,93,42,-11,-85,-78,-57,-29,-51
-8,87,62,8,-4,-102,-90,-57,11,-14
-33,35,57,7,42,25,-10,-55,-19,-10
-39,-19,44,3,67,181,95,-30,-31,11
-63,-11,30,18,42,96,-11,-121,-86,-10
-56,34,-81,7,-21,-69,-111,-92,8,42
3,75,-101,-51,-76,-167,-168,-35,119,162
12,110,-28,-96,-91,-175,-190,-51,99,198
-134,112,40,-29,-23,-66,-98,-11,-10,31
-271,102,96,67,72,59,5,-85,-124,-115
-174,48,63,76,95,106,46,-161,-126,-53
7,1,23,24,17,-3,25,-36,83,100
43,-63,-13,-27,-44,-72,-8,68,261,157
137,-102,-47,-38,-33,54,22,11,188,167
166,-88,-39,-35,-31,127,92,122,153,149
-10,-95,-79,-36,-13,62,82,228,164,124
-146,-111,-102,-45,-18,27,67,194,180,179
-215,-180,-114,-117,-74,69,128,196,271,239
-97,-169,-104,-128,-115,-114,-35,152,441,394
117,-49,-62,-139,-149,-340,-208,128,415,404
70,21,-54,-137,-112,-273,-163,159,148,127
21,64,-20,-71,-50,-105,-53,63,-131,-73
-42,74,49,35,50,82,65,-95,-409,-351
-213,8,53,103,138,260,167,-136,-521,-625
-230,-36,55,142,175,304,201,-53,-377,-551
-78,11,95,152,173,255,167,7,-289,-382
21,78,131,124,144,167,111,45,-177,-258
-40,22,73,52,99,78,44,28,-75,-136
-78,7,-16,9,59,18,-11,-49,-28,-23
-35,88,28,-3,-3,-100,-128,-147,-16,56
105,138,63,-52,-84,-208,-211,-154,3,132
153,62,8,-91,-99,-123,-101,-49,75,212
54,-18,-11,-60,-34,-3,2,-21,63,186
-115,-76,-68,-25,-6,-39,4,12,13,59
-165,-60,-24,10,-5,-134,-37,39,-7,-69
-62,14,51,41,14,-138,-69,-26,-48,-70
45,69,70,40,49,130,39,-65,-134,-131
123,84,61,0,20,228,96,-17,-61,-91
120,27,-2,-61,-54,50,4,18,52,56
138,19,7,-47,-78,-3,-22,-9,23,80
128,30,26,-12,-46,24,-14,-20,-72,21
73,10,7,-11,-27,13,-4,30,-28,50
2,-6,7,1,24,43,-13,-55,-40,28
-54,18,13,-7,45,58,-11,-174,-99,-27
-62,40,20,-23,24,34,-21,-241,-165,-35
-55,22,60,20,47,25,-42,-292,-215,-5
-123,-1,85,74,81,-17,-38,-247,-155,-11
-26,-25,59,34,21,-65,46,127,166,123
142,1,56,-25,-34,-51,134,404,416,264
219,73,110,26,1,-113,46,240,281,266
156,29,63,19,0,-91,13,63,115,184
45,-95,-78,-34,-32,-61,22,88,132,137
-25,-145,-87,-80,-65,-126,-49,75,110,138
-12,-90,-55,-75,-16,144,33,-73,-123,11
46,24,-38,-11,15,343,211,-17,-200,-91
104,67,-51,36,14,116,88,-54,-197,-52
71,16,-64,13,16,41,26,-157,-169,46
24,6,72,-2,-7,-9,-17,-233,-108,82
-107,-65,52,-9,9,-76,-113,-290,-19,-7
-217,-181,-44,-72,-24,-74,-13,-18,285,1
-160,-177,-62,-88,-24,-14,113,228,376,42
-123,-102,-58,-73,25,68,133,179,156,-17
-139,-55,-54,-10,73,97,128,162,-3,-129
-286,-66,-27,46,98,65,153,282,-21,-318
-275,-67,-20,46,93,40,139,239,-24,-273
-47,10,-35,57,67,-13,30,80,-15,-107
280,53,-40,33,20,-23,-26,-37,42,92
471,32,-5,-25,-44,-52,-117,-159,126,359
303,15,-14,-35,-55,-63,-139,-230,111,399
40,30,16,-1,-2,-41,-129,-322,-83,184
-94,67,35,5,17,-39,-129,-388,-294,-65
-105,66,10,-24,-11,-49,-80,-307,-333,-290
-140,22,-15,-6,-14,-101,-11,-97,-245,-526
-165,-33,41,51,46,-139,82,265,9,-558
36,21,91,102,92,-124,129,468,184,-263
288,130,102,84,64,-78,118,359,185,126
157,20,12,-4,29,116,172,170,166,282
-90,-87,-11,-14,16,115,149,101,137,237
-170,-100,16,7,-41,4,98,103,91,101
-178,-127,-9,-2,-76,10,94,87,38,-53
-53,-64,16,27,-78,-72,53,89,35,-60
75,-8,33,44,-13,-104,-5,76,41,-2
45,-21,-19,16,80,-44,-8,55,66,16
-19,-18,-68,4,66,43,35,29,15,17
-24,17,-7,50,29,156,105,3,-71,63
64,61,51,89,4,62,-1,-43,-70,79
41,37,41,63,-23,-28,-119,-89,-98,-76
3,52,30,24,-36,-61,-168,-130,-150,-197
-68,49,19,0,-36,-57,-125,-52,-52,-71
-126,3,-40,-41,-58,-33,-55,36,131,171
-89,19,-43,-30,-52,-15,-27,19,200,265
64,23,-25,-11,-48,-77,-76,-17,208,310
169,8,-67,-71,-82,-61,-73,-30,150,295
20,-17,-87,-80,-72,74,43,45,58,165
-79,10,-29,-11,-20,129,80,56,-127,-104
-39,117,78,67,50,80,35,0,-207,-265
-30,140,123,131,109,43,-3,-82,-269,-271
35,96,89,116,83,18,-27,-142,-280,-179
120,58,58,80,41,-1,-44,-170,-237,-89
135,42,71,83,30,-51,-75,-161,-164,-57
72,36,81,75,33,-106,-120,-87,-31,-101
36,40,61,36,-9,-140,-159,-23,83,-107
-24,13,46,9,-22,-33,-105,24,139,-106
-170,-45,22,3,10,189,91,90,133,-91
-258,-58,8,13,-18,137,108,84,79,-39
-161,7,13,-6,-67,-13,25,-9,-56,-26
-26,64,8,-15,-48,-69,-33,-99,-156,7
6,41,14,15,37,42,24,-84,-181,20
111,25,31,14,60,181,136,60,-105,-2
113,40,13,-22,-12,88,109,148,-66,-61
26,91,-60,-2,-22,-49,-42,23,-99,-32
-3,45,-4,-10,6,-20,-75,-79,12,64
-26,33,6,-42,-41,-56,0,54,142,15
-25,-24,-47,-76,-38,-51,49,144,190,25
55,-27,-149,-79,-1,5,54,129,126,34
153,-8,-176,-33,34,20,-6,38,4,24
155,-70,-193,-48,31,89,2,22,13,31
142,-66,-113,-62,-2,7,-70,12,83,105
64,-34,-6,-42,-25,-59,-91,-29,74,135
-57,-43,-16,-19,-15,28,-48,-73,-12,53
-118,-42,-36,-18,-27,61,-6,-54,-22,24
-157,-38,26,-38,-62,-22,-12,15,21,2
-172,-19,15,-41,-29,-39,-56,-63,-31,5
-118,27,10,-23,11,-31,-75,-129,-59,36
-19,73,42,-34,-1,-119,-150,-158,-25,-1
210,135,44,-52,-70,-276,-297,-255,-45,27
296,154,-16,-19,-61,-232,-301,-375,-154,80
148,102,41,37,19,-73,-165,-365,-254,7
-40,13,98,68,79,120,24,-263,-262,-144
-102,-74,65,74,95,300,204,-56,-101,-208
-65,-100,24,25,7,143,230,408,345,-46
-97,-93,-16,-45,-52,59,205,627,446,-7
-108,-79,-2,-55,-14,137,157,359,229,-23
-87,-55,14,-50,4,96,75,193,209,100
-52,-47,-23,-73,-37,73,81,238,339,296
-23,-44,-29,-58,-37,73,51,143,343,407
-58,-60,-31,-40,-27,40,8,-22,179,316
-43,-17,-82,-13,-10,-35,-19,-134,12,108
102,107,-40,0,-22,-88,-83,-167,-118,-46
248,198,32,-24,-53,-135,-180,-194,-125,-84
142,141,8,-54,-52,-77,-137,-175,-184,-225
0,90,-13,-44,-42,-27,-41,-59,-160,-213
-8,108,22,-22,-34,28,68,104,-97,-176
-3,84,4,-25,-13,51,80,94,-123,-127
49,62,-26,-11,15,15,-7,-29,-175,-73
158,75,-34,2,30,-7,-10,25,-128,-91
161,78,-2,29,53,18,25,73,-101,-253
9,34,45,68,94,35,57,10,-95,-342
-129,-18,32,56,84,5,29,-45,-21,-226
-106,-11,43,30,63,0,-2,-24,-33,-113
-131,-31,72,42,67,21,48,94,-34,-98
-181,-48,70,39,36,-26,20,66,-17,-61
-186,-52,49,23,5,-12,-25,-70,-49,-33
-219,-35,44,16,5,17,-4,-113,-20,-85
-201,5,46,3,-8,-16,23,-9,70,-66
184,51,66,25,-48,-209,-129,-50,209,149
224,29,34,-3,-79,-252,-153,-81,303,259
171,-3,-55,-92,-118,-181,-92,-62,252,222
90,-22,-124,-149,-118,-90,-44,-3,197,158
-2,-1,-66,-67,7,44,53,98,164,130
-188,-35,-47,-28,16,89,159,402,165,-149
-195,-31,-72,-7,37,39,65,162,-41,-196
-84,-5,-69,38,98,226,113,35,-165,-168
48,51,37,61,106,349,173,21,-150,-130
105,76,96,82,81,187,72,0,-102,-150
39,11,106,125,77,41,-6,-5,-58,-151
-23,-58,64,92,30,-14,-42,-8,-39,-68
46,-50,-12,28,-48,-68,-54,24,62,106
42,-47,-16,32,-10,-25,-41,46,82,108
-69,-72,24,39,89,110,9,-15,-15,-29
-112,-36,13,-29,63,111,29,-14,-13,-64
-71,71,-15,-75,-16,-22,-48,-37,0,-9
16,35,-53,-84,-43,-41,-58,-23,54,85
-16,-53,-104,-70,-38,-44,-73,-13,65,114
-13,-29,-75,-58,-59,-88,-73,-4,90,160
44,3,-45,-45,-36,-56,0,49,136,217
89,6,-24,-7,0,-37,3,33,123,264
413,124,-78,17,-30,-90,-69,-66,-68,285
299,130,-42,23,-50,-115,-103,-34,-93,170
175,87,-27,17,-51,-48,-77,-16,-75,74
180,78,48,-1,-41,6,-63,-18,-24,66
134,65,28,-36,-84,-62,-92,-58,-29,-14
-96,14,-9,-72,-119,-102,-83,-35,-102,-243
-266,-29,-27,-68,-92,-50,-38,-14,-234,-421
-95,0,-8,-60,-88,52,45,-112,-367,-387
5,7,22,-11,-83,68,18,-179,-351,-184
-7,-50,25,17,-65,-11,-56,-156,-202,51
26,-88,52,48,30,-2,-21,-95,-109,135
13,-78,114,121,180,116,42,-47,-76,193
-1,-38,160,131,182,100,81,31,-9,244
-59,-9,106,55,111,145,161,120,20,190
-45,7,59,22,73,133,171,105,37,162
-18,19,64,15,47,42,91,-2,-30,34
-23,-16,9,-18,16,-11,11,-62,-53,-94
-103,-96,-81,-97,-60,-54,25,78,105,-30
-109,-84,-92,-104,-77,-106,-5,210,324,209
-33,-32,-90,-68,-42,-75,-23,142,371,431
0,-31,-39,-72,-32,-22,3,32,302,435
50,22,-3,-61,-67,-90,-46,-20,245,292
-10,34,33,0,-23,-55,-13,-27,148,57
-122,53,123,129,112,37,29,-121,-79,-287
-105,87,139,146,127,59,63,-83,-122,-331
-155,32,69,62,95,118,177,161,-24,-242
-143,-27,27,26,66,114,170,218,-65,-171
-75,-24,31,17,11,-35,51,105,-144,-76
-43,-22,19,4,-24,-82,34,128,-136,-35
3,-15,34,33,0,-85,3,81,-101,-43
24,20,72,71,32,-135,-61,7,-80,-14
75,37,44,48,12,-190,-100,-37,-27,43
22,1,19,47,27,-142,-72,-37,40,-10
77,0,-12,4,25,114,32,-77,-35,-1
202,104,44,31,-8,-105,-120,-165,-152,86
52,19,-37,14,5,-124,-129,-189,-198,-10
-108,-73,-51,8,51,60,-41,-254,-237,-132
-121,-55,-40,-10,54,261,77,-217,-188,-135
-92,-65,-74,-46,-7,151,52,-103,-4,-6
-19,-67,-132,-96,-110,-60,50,201,278,161
98,-21,-95,-84,-144,-127,50,306,329,236
118,19,-61,-66,-118,-59,25,199,247,247
152,91,-10,-36,-90,-51,-14,110,222,255
174,121,28,9,-54,-105,-59,84,112,109
83,110,65,47,-2,-64,-58,75,10,-52
-6,53,56,69,51,148,60,30,-124,-134
-153,-33,32,68,85,275,194,58,-160,-217
-214,-90,-2,32,56,132,151,114,-72,-237
-176,-83,-23,-3,-7,-23,30,26,-33,-155
-114,-42,-22,-14,-46,-126,-77,-99,-101,-77
45,-12,-40,-47,-74,-159,-93,-107,-99,5
135,15,-56,-34,-59,-151,-72,-36,25,112
107,36,13,2,-54,-193,-107,5,125,147
40,-8,-9,-32,-77,-95,6,110,247,145
42,-50,-39,-73,-99,-38,85,221,289,187
158,25,41,8,-97,-180,-89,83,133,220
98,27,-26,39,-76,-137,-127,-54,-29,178
-113,-128,-144,-78,-36,246,133,-36,-26,31
-106,-69,-29,-74,19,238,107,1,75,-63
-35,109,148,76,98,43,-69,-100,8,-59
10,132,84,25,77,-3,-52,-49,77,52
96,119,-28,-73,-18,-39,-46,16,103,142
210,88,-32,-63,-43,-62,-98,-47,40,209
331,28,-27,-28,-22,-51,-72,-89,10,197
188,-109,-23,26,36,6,-19,-133,-59,7
-109,-163,55,90,109,-16,-77,-265,-138,-88
-283,-120,132,133,105,-92,-148,-348,-190,-109
-270,-75,123,123,108,-23,-158,-463,-350,-209
-240,-67,49,61,95,191,-13,-414,-420,-326
-325,-102,-61,-45,13,189,66,-87,-221,-409
-330,-107,-129,-92,-43,75,92,204,10,-365
-209,-77,-93,-36,-21,-28,14,129,129,-196
-115,-60,-91,-34,-23,-40,64,252,282,-82
-59,-15,-63,-35,-8,35,207,536,327,-118
105,98,-11,-24,-5,37,163,488,198,0
241,154,-23,-55,-30,-10,37,248,133,145
177,81,-79,-102,-16,104,68,104,77,156
12,-24,-109,-104,-25,123,85,57,42,98
-139,-104,-118,-93,-19,48,64,56,50,46
-154,-104,-85,-20,29,43,48,43,27,79
-22,-56,-33,59,82,21,31,49,18,105
56,-13,20,112,100,-24,23,40,41,130
50,-39,-3,75,54,-55,4,47,48,114
113,48,29,0,-29,-61,-31,-22,-75,-54
82,120,114,-8,-42,-28,-42,-156,-256,-216
-71,66,46,-21,-30,0,-60,-233,-178,-21
18,55,-92,-72,-99,-45,-118,-260,-2,335
258,103,-85,-99,-132,-94,-157,-311,17,438
396,99,-63,-87,-97,-92,-164,-380,-57,415
405,54,-79,-78,-55,-95,-161,-343,-104,312
260,5,-76,-86,-61,-148,-152,-123,-22,102
33,-49,-77,-100,-72,-97,-15,178,93,-152
-242,-71,-52,-55,0,170,199,317,122,-377
-340,-23,35,41,72,255,299,378,124,-412
-328,16,88,106,91,139,265,372,59,-430
-237,53,128,109,87,44,148,252,-82,-346
-86,94,146,100,95,-38,55,214,-85,-116
-8,133,155,96,130,6,101,180,-11,41
-72,91,106,91,136,153,157,98,-45,-26
-46,101,87,70,97,57,103,74,11,14
-8,96,57,22,30,-52,39,52,90,52
-19,54,41,-22,-25,-95,-22,23,155,69
-94,-10,9,-46,-45,-119,-65,1,162,24
-37,11,-26,-46,-41,-133,-100,-59,93,1
78,95,22,10,1,-117,-107,-140,-57,10
-52,73,46,25,17,-69,-44,-90,-91,-7
-53,75,28,29,-4,-94,-29,-53,-93,-30
180,92,-3,-4,-31,-95,-25,-72,-101,-18
306,-5,-6,8,16,55,94,0,-42,11
267,-70,27,39,5,16,93,32,12,108
185,14,1,22,-83,-231,-81,-20,24,178
123,39,-75,-21,-119,-278,-145,-60,-18,95
13,-71,-72,-68,-67,-142,-95,-67,-64,-57
-97,-156,-81,-50,72,229,69,-101,-200,-242
-39,-90,-3,18,139,475,205,-56,-214,-225
79,-10,76,59,95,254,89,-40,-163,-140
53,-26,76,43,18,-16,-73,-73,-95,-20
-63,-78,28,-4,-10,11,-34,-70,-74,37
-78,-36,24,-11,-8,70,21,-68,-95,11
-6,71,50,0,-37,4,-12,-45,-98,-24
45,76,10,-22,-38,35,46,27,-90,-53
108,60,-2,-23,-24,25,37,9,-57,-15
185,53,11,-13,-24,-40,-35,-41,-23,-3
260,52,19,14,-11,-55,-27,-24,-2,-1
261,53,22,55,-12,-159,-82,8,58,87
0,26,-24,47,-37,-207,-88,113,219,163
-385,-120,-74,-22,35,120,129,159,243,66
-404,-153,-99,-51,95,363,239,92,186,12
-184,13,25,28,82,122,57,19,154,100
-19,107,93,69,44,-78,-61,-8,65,83
175,164,110,58,8,-128,-72,-22,8,71
208,89,26,-11,-54,-10,-16,-72,-63,104
163,30,-40,-48,-87,86,59,-35,-61,135
161,47,-75,-21,-70,68,90,31,5,149
158,39,-20,-16,-37,29,34,-20,31,154
104,40,-15,2,10,8,-21,-86,31,41
26,76,-116,-5,37,36,24,-83,25,-42
20,102,-87,-31,-4,-34,-22,-77,6,-49
-28,38,-18,-46,-7,-20,-5,-57,-25,-28
-173,-59,-29,-67,4,34,39,-53,-59,-29
-158,-83,-39,-72,-23,31,32,-56,-43,40
-73,-31,1,-29,0,20,-9,-84,-91,97
3,33,47,22,13,1,-30,-103,-138,99
-58,47,62,69,15,-51,-28,-73,-152,-101
-104,39,92,89,-15,-163,-86,-77,-56,-198
-127,0,81,65,-11,-75,-38,-67,88,-101
-171,-50,52,52,68,176,119,48,199,2
-177,-110,24,57,115,195,70,-20,43,14
-50,-90,6,54,126,42,-76,-188,-80,90
32,-32,-17,35,111,-11,-134,-261,-64,151
104,14,-69,-33,22,-66,-88,-48,91,182
126,34,-91,-4,2,-79,-48,71,85,57
13,43,-53,59,37,-38,-29,-16,-110,-84
-55,26,-33,73,28,-42,-32,-69,-128,-114
-80,-4,46,28,-27,-43,-18,61,19,-179
-127,-33,50,16,-4,124,90,127,-14,-340
-94,-4,45,20,16,99,56,71,-59,-324
-103,-5,-3,-25,-12,-19,50,259,141,-250
-9,-13,-77,-109,-54,-13,136,451,351,-145
139,0,-53,-101,-54,2,105,353,239,22
78,-20,-44,-59,-34,-11,61,265,80,50
44,16,-92,-7,-16,-43,-9,192,45,6
86,43,-79,20,-6,-69,-49,153,89,35
88,-2,-42,-28,-25,-50,-26,95,133,102
89,-25,-11,-70,-71,-71,-99,-36,164,174
100,-34,-25,-117,-143,-121,-119,14,253,267
136,-24,-43,-99,-149,-179,-129,107,272,362
61,-40,-44,-30,-71,-166,-145,50,12,124
-54,-30,58,57,41,-5,-47,14,-251,-217
14,25,91,74,52,0,-60,-32,-274,-228
227,128,121,24,-41,-153,-168,-78,-162,-23
280,127,77,-32,-88,-42,-63,-18,-108,45
63,22,0,-67,-11,243,110,-32,-212,-115
-33,53,14,43,80,151,24,-100,-253,-150
-138,63,93,125,118,26,-37,-131,-157,-155
-131,48,61,107,138,114,-8,-228,-141,-165
-27,13,92,62,134,206,-11,-283,-151,-43
-20,-27,62,-21,47,117,-3,-113,8,103
-123,-52,-7,-26,6,25,38,60,137,154
-209,-46,-53,-24,-37,-18,82,192,173,94
-154,-11,16,-41,-88,-96,34,192,110,-43
-62,-19,32,-39,-60,-107,-16,124,50,-125
-53,-51,14,-38,-15,-28,-20,43,77,-39
17,-69,22,-35,18,90,63,97,184,174
45,-77,21,-43,-2,71,43,86,211,289
57,-23,29,-38,-24,-11,-26,28,173,270
22,-1,43,0,-1,-17,-40,-15,125,244
8,-14,15,9,-1,-14,-40,9,117,175
46,-4,26,25,25,-16,-14,31,-2,-107
63,-32,62,67,41,-33,-48,-47,-122,-306
80,-66,71,87,28,-68,-103,-111,-135,-167
2,-106,68,85,-13,-154,-113,-71,-56,53
-237,-177,43,73,-46,-240,-105,5,-1,112
-442,-171,20,45,-50,-272,-130,-20,-56,-18
-427,-95,-24,-7,-27,-182,-81,7,-81,-75
-274,-99,-104,-46,30,163,132,99,-71,-164
-76,-65,-52,23,78,332,248,124,-73,-197
-4,-29,10,72,81,102,29,8,-137,-207
108,11,11,19,58,176,27,-52,-120,-41
334,132,-9,-14,1,217,37,-81,-31,241
329,119,-134,-70,-57,202,63,-144,-75,252
206,66,-86,-72,-49,102,25,-199,-98,143
243,95,0,-37,-51,-43,-49,-164,-51,118
214,106,28,16,-18,-37,-38,-102,-62,-38
122,89,38,62,45,16,20,-46,-108,-246
23,40,7,69,66,26,73,37,-44,-181
-109,7,74,82,61,-2,41,47,-111,-138
-170,-19,122,89,46,-23,18,57,-66,-119
-199,-76,18,36,32,73,51,92,169,13
-189,-84,36,3,-19,-25,-22,117,232,91
-197,-53,4,-43,-61,-73,-61,101,172,71
-122,-13,-10,-46,-30,-38,-25,105,63,4
75,47,8,-30,-28,-54,-47,77,28,67
70,40,-45,-71,-58,-88,-100,45,149,234
32,25,-35,-78,-78,-127,-155,21,366,528
150,41,-28,-83,-115,-190,-182,57,503,738
249,70,-123,-117,-140,-215,-195,38,347,643
147,82,-138,-107,-72,-101,-118,-38,-55,218
-36,94,21,6,51,53,30,-66,-472,-344
-37,80,106,95,123,97,68,-76,-582,-530
156,85,110,87,97,16,-14,-82,-344,-299
145,51,42,-5,11,5,-4,-80,-106,-88
133,30,1,-34,-38,-41,-53,-191,-124,18
90,45,-78,-33,-42,19,-46,-337,-234,70
192,119,-54,-47,-63,63,-19,-339,-164,166
262,115,29,-43,-58,16,-78,-336,-141,184
13,-13,39,-12,6,30,-86,-313,-282,-120
-50,-58,53,21,57,92,44,-16,-187,-369
22,-110,33,27,49,88,156,333,56,-381
-24,-190,-25,50,83,47,144,353,86,-237
-92,-156,-1,78,105,36,138,318,43,-193
-191,-84,86,103,99,7,83,194,-38,-237
-243,-59,66,54,68,2,80,229,-9,-229
-257,-11,82,39,45,65,107,264,68,-169
-190,21,93,81,58,81,68,162,59,-136
-141,-12,-25,51,12,32,44,106,36,-119
-49,-29,-30,-28,-47,-20,27,63,24,-86
53,-28,26,-31,-38,-71,-31,21,9,-53
45,-51,63,9,-4,-61,-60,-22,9,-47
67,-65,85,29,7,-100,-92,-60,58,38
38,-60,80,8,-33,-141,-107,-6,138,127
-30,-10,87,15,-23,-78,-67,-68,84,100
-60,-22,33,-19,-50,14,-21,-192,22,136
-139,-121,-82,-105,-98,98,49,-114,39,173
-112,-130,-94,-111,-127,10,47,25,134,241
-60,-101,-82,-71,-102,-208,-93,0,102,253
61,-30,-39,-13,-38,-315,-205,-54,27,221
196,46,34,51,32,-197,-162,-95,23,240
54,-40,-49,42,74,140,39,-148,-8,35
44,-59,-96,-17,-20,31,-4,-103,129,9
192,-8,-11,-53,-125,-230,-86,67,314,207
71,-39,7,-34,-56,4,28,9,124,99
-51,-61,8,-29,10,274,167,-66,-28,-21
-80,-49,27,-17,12,123,53,-55,-12,-35
-105,-68,31,-18,-5,20,14,37,41,-76
-85,-77,36,-6,4,58,67,34,-4,-92
-47,-47,44,-2,-26,5,38,35,20,-44
-17,3,83,23,-20,-50,56,199,99,15
-26,29,134,51,41,74,170,367,157,-73
-38,-4,80,20,81,193,201,241,24,-225
45,27,59,5,41,42,12,-29,-112,-190
176,87,47,-2,-11,-62,-92,-119,-122,-78
202,68,-16,-31,-17,-46,-50,-57,-75,7
171,17,-42,-65,-42,-102,-30,-30,22,77
55,-31,-53,-43,-2,-39,-14,-117,-59,-6
30,25,17,6,31,45,-34,-221,-148,-65
-95,48,83,63,48,30,-43,-214,-194,-210
-261,-82,4,-14,-24,-9,17,162,36,-209
-247,-137,-57,-77,-89,-101,28,518,443,97
-48,-62,-24,-46,-88,-170,-81,314,494,386
118,-17,-24,-42,-85,-18,-57,80,382,461
123,-88,-112,-62,-71,83,17,75,335,437
-29,-182,-251,-32,-19,149,83,123,236,213
140,-36,-161,28,16,115,59,91,-8,-7
224,66,-18,60,23,87,82,96,-206,-149
-6,46,71,109,88,100,126,110,-251,-265
-111,38,56,132,128,92,108,54,-252,-366
-83,21,42,88,33,7,33,-25,-205,-381
-60,-21,37,78,-33,-27,6,-64,-176,-314
-10,-9,5,86,-24,-32,-23,-76,-140,-173
70,25,60,108,84,-4,-108,-154,-203,-97
72,65,106,118,156,70,-86,-196,-295,-166
38,80,87,59,93,103,15,-90,-238,-182
63,59,25,-25,16,48,10,-26,-123,-95
95,40,22,-40,1,-7,-51,-62,-91,-44
49,49,67,9,16,-25,-80,-93,-79,-75
-131,-1,59,27,13,4,-49,-78,-49,-129
-239,-118,-9,-1,-8,33,-9,-38,-35,-130
-125,-122,-49,-24,-58,0,-37,-26,19,-18
-48,-90,-76,-6,-77,-31,-59,-42,64,60
4,-46,-33,15,-47,-60,-53,-30,76,112
-37,-37,32,36,25,-102,-72,-12,73,126
55,0,-35,-34,0,-141,-117,-18,91,168
123,8,-83,-69,-19,-13,-52,-37,59,145
-122,-57,-68,-37,25,156,80,33,65,67
-196,-82,-52,-13,19,126,67,19,19,28
-130,-35,-21,22,12,59,15,-20,-69,-24
-31,54,3,51,26,37,14,-28,-122,-21
12,85,11,43,9,28,24,-58,-112,11
-21,43,1,8,2,5,4,-64,-41,73
-17,-16,-24,-22,-32,-41,-4,-7,76,197
-2,-37,-41,-26,-29,-67,-51,-75,66,224
25,-35,-28,-17,-13,-25,-45,-137,28,154
-73,-101,-51,-27,-24,11,54,70,189,75
-154,-118,-49,-2,-34,-99,19,197,226,30
-38,-20,-32,-2,-87,-278,-116,93,88,41
6,26,-1,14,-58,-311,-212,-81,-38,2
-88,20,-15,-1,-6,-96,-135,-139,-92,-30
-142,26,-60,-41,14,197,41,-102,-61,6
-121,42,-60,-60,15,190,62,-58,-20,49
-59,20,-47,-56,30,53,7,38,29,39
84,57,-32,-12,45,11,5,111,32,6
192,84,15,22,72,-7,21,103,70,23
191,42,-44,-23,34,1,38,125,184,158
251,8,-153,-70,-36,58,98,206,318,348
166,1,-56,-36,-40,76,84,204,301,322
-8,23,10,-1,-34,-40,-27,94,163,160
-7,67,20,-19,-66,-163,-116,-48,10,50
81,109,17,14,-37,-124,-89,-87,-87,-106
78,55,30,32,23,49,0,-161,-195,-207
71,-6,12,2,38,167,44,-260,-270,-185
160,39,80,27,28,48,-15,-210,-156,-6
121,32,140,16,1,-36,-8,-62,25,165
-26,-1,79,-47,-51,-23,67,178,137,154
-58,33,18,-79,-62,-30,72,235,149,141
-1,78,-30,-88,-6,-63,1,96,56,110
36,141,-13,-50,30,-45,-97,-116,-189,-99
-24,86,-48,-19,65,87,2,-138,-362,-455
-103,-26,-144,-22,75,148,162,31,-262,-531
-93,-46,-41,-13,37,55,128,87,-116,-352
28,14,31,-86,-81,-124,-1,73,9,-61
79,56,11,-66,-85,-105,-10,59,64,88
74,0,-83,-2,-2,34,48,14,53,93
67,-55,-121,13,47,63,25,-38,4,2
-9,-45,-58,59,64,29,-9,-88,-95,-164
-30,12,55,79,34,22,3,-44,-79,-166
-96,0,83,35,-13,15,29,58,9,-69
-149,-42,33,-21,-52,3,44,145,81,-25
-61,-42,5,-19,-33,-8,31,135,122,-11
-38,-25,16,22,17,16,49,93,101,-46
28,5,-1,38,33,23,55,67,50,-64
53,-14,-89,29,29,-7,16,22,18,-25
38,-1,-75,55,31,-37,-44,-100,-87,31
-14,37,-33,64,25,-28,-47,-161,-164,50
-45,58,61,79,29,-14,-23,-176,-180,35
25,74,114,55,22,-30,-38,-216,-161,21
55,79,67,0,3,0,-41,-234,-96,65
47,49,3,-45,-38,-39,-11,-49,90,92
65,53,0,-46,-61,-100,31,156,217,34
16,61,-20,-24,-28,-43,15,24,21,-56
-47,-2,-33,-41,-18,68,29,-127,-125,-33
-72,-73,-44,-61,-11,144,83,-146,-90,2
38,-43,-13,-21,1,68,0,-200,-68,59
190,-12,22,5,-17,3,-54,-161,45,147
96,-57,1,-13,-16,43,26,23,214,143
-30,-77,-4,-15,-26,36,68,199,341,146
-122,-94,6,-3,-14,50,118,333,274,71
-166,-100,-4,-31,-43,25,142,366,153,40
-126,-62,2,-40,-71,-36,79,177,-7,-14
-34,-27,45,14,-55,-123,-55,-69,-187,-72
11,0,80,41,-32,-177,-149,-248,-376,-123
-2,5,80,19,-34,-239,-195,-278,-373,-99
-29,-46,23,-41,-64,-266,-204,-266,-263,-32
-21,-85,-27,-90,-80,-101,-86,-223,-126,-15
41,15,69,14,-2,8,-30,-173,22,8
-22,62,130,81,48,-40,-37,-17,170,20
-24,24,113,68,26,-88,-36,106,201,74
78,22,70,52,14,-58,-63,91,167,220
148,-22,-4,-46,-24,141,86,276,417,411
17,-66,-93,-163,-61,310,230,356,577,467
-32,-81,-142,-182,-107,102,63,168,425,459
-68,-97,-79,-74,-47,-3,47,159,245,305
-66,-58,-24,37,34,18,117,266,93,30
2,-8,28,86,79,31,101,247,-51,-211
55,45,85,113,142,200,120,30,-303,-430
88,87,92,103,155,199,75,-79,-289,-402
66,43,2,52,85,54,-5,-93,-144,-250
112,-17,-39,-26,-12,-24,-48,-98,-43,-100
129,-30,-42,-31,-38,-68,-71,-24,0,20
53,-37,-13,16,7,-56,-47,56,29,64
-79,-97,-9,36,70,4,4,6,-1,8
-137,-157,-44,32,81,32,40,29,29,12
-34,-91,-20,19,45,17,0,36,17,34
121,22,30,26,3,-68,-105,-85,-99,-21
181,63,50,38,31,-32,-78,-107,-126,-68
60,-36,13,18,76,76,57,-34,-110,-131
-32,-44,43,56,118,62,18,-76,-157,-118
-137,-22,81,91,110,-48,-67,-80,-56,-61
-189,-9,38,17,-24,-149,-89,84,197,75
-106,-20,-31,-84,-120,-84,-58,147,272,181
-124,-123,-110,-145,-107,177,62,10,53,31
-83,-76,-40,-51,-51,177,122,-15,-161,-202
93,7,3,-19,-45,56,93,-13,-225,-185
103,-36,-31,-33,-1,18,51,-26,-128,-28
13,-58,-26,11,88,24,29,-31,-22,55
6,37,64,92,85,-71,-31,-79,-41,50
-49,29,76,84,44,-70,-58,-129,-76,-26
-62,-30,-41,10,-1,15,0,-64,-22,-60
-62,-40,-149,-41,-23,38,39,-20,-50,-95
-35,-28,-146,-64,-28,5,12,-44,-114,-136
2,-6,-46,-39,-34,-52,-27,-50,-100,-108
-30,2,16,-11,-41,-67,-49,-51,-83,-87
-82,-10,27,9,-9,-30,-46,-60,-86,-104
-71,-15,2,18,-13,-44,-43,-55,-48,-87
-49,1,1,34,-32,-98,-76,-61,2,-12
-1,16,107,46,-45,-141,-110,-114,12,44
148,-57,75,13,-42,-45,-27,-85,40,105
190,-123,30,-2,-50,-40,20,33,140,190
142,-79,17,13,-41,-62,-7,64,133,229
64,-67,-59,-25,-18,83,45,-9,1,136
-17,-72,-127,-3,42,180,126,36,-19,57
5,-4,-32,25,29,5,34,88,93,30
6,14,0,-10,-26,-79,-56,-4,77,-32
-132,-62,-96,-24,-19,-9,-8,-56,51,-182
-72,-35,-151,-21,-8,12,64,25,134,-116
310,113,33,3,18,59,-1,-54,138,229
211,72,-9,-42,-28,76,-7,-88,167,346
142,54,-30,-58,-96,-49,-95,-133,152,416
65,18,-29,-43,-92,-113,-143,-183,68,250
-42,-42,-16,-15,-26,-24,-71,-189,-43,35
16,-37,7,34,34,29,-43,-197,-112,37
43,0,33,68,77,85,0,-170,-159,-42
54,45,41,70,85,104,34,-140,-218,-198
42,90,46,78,77,82,53,-73,-224,-246
-85,22,-76,45,49,78,95,166,-7,-145
-190,-33,-64,9,18,102,111,320,119,-120
-174,-48,-6,-6,-19,58,79,271,104,-92
-141,-40,-19,-29,-75,-29,30,164,132,-24
-165,-53,-36,-51,-107,-32,64,201,186,-14
-171,-14,-10,-19,-46,-16,55,149,48,-112
-124,20,17,24,12,-29,35,94,-72,-210
27,57,17,63,45,-74,18,108,10,-87
159,84,98,75,37,-73,4,67,118,61
36,-12,85,47,34,-22,17,56,115,33
-36,-79,25,15,16,44,41,57,62,26
80,-32,37,21,5,17,-6,46,-26,4
135,19,86,53,39,-86,-67,24,-122,-115
59,58,82,75,32,-217,-126,35,-88,-160
50,79,45,52,13,-302,-182,3,-81,-153
117,125,73,71,42,-176,-194,-165,-177,-144
126,161,159,85,68,30,-131,-235,-192,-92
5,74,145,-4,12,308,117,-126,-87,-66
52,66,88,-45,-9,297,129,-115,-58,0
229,161,89,-40,-25,136,20,-140,-61,89
371,240,124,-14,-59,-9,-57,-67,-10,139
234,160,105,13,-37,-26,-27,52,52,67
-129,31,62,20,-4,17,15,64,70,-44
-366,-119,0,-18,-5,-6,2,54,108,-89
-420,-223,-82,-70,-48,-54,-6,70,130,-72
-190,-158,-61,-60,-59,-140,-69,59,119,48
-64,-174,-102,-67,-21,24,22,46,58,93
-30,-225,-169,-48,54,317,203,62,45,115
117,-136,-56,14,94,277,177,90,173,277
178,5,33,50,64,65,31,41,175,336
82,48,73,65,49,-31,-94,-97,65,225
-28,-4,44,36,24,-47,-121,-199,-20,170
-103,-30,-70,-3,17,5,-48,-202,-68,67
-136,-30,-230,-65,-2,2,-40,-213,-98,-106
-100,-27,-210,-83,-28,-71,-37,-184,-57,-203
34,3,-66,-57,-19,-68,16,-74,-51,-104
146,64,3,-18,14,-45,56,32,-89,-1
126,105,74,38,68,-1,103,166,-58,-42
72,123,106,69,81,40,143,293,-30,-124
50,115,98,45,65,28,95,191,-32,-52
60,94,78,21,48,34,79,106,-25,-6
42,73,75,30,61,53,60,51,-64,-89
-36,30,58,28,61,76,38,16,-50,-105
-132,-5,24,-15,7,26,-16,-2,41,-13
-143,-20,-51,-46,-67,-116,-167,-45,195,118
4,27,-150,-53,-137,-311,-296,-15,386,291
109,73,-80,-56,-143,-301,-233,75,447,338
-3,19,4,-50,-57,-90,-23,123,332,194
-95,-17,7,-20,36,41,38,59,39,91
-15,73,54,62,50,-95,-73,-71,-226,68
-48,55,47,44,15,-68,-15,-64,-304,-123
-181,-49,-4,-21,27,243,145,-117,-424,-428
-83,-11,10,-8,42,308,154,-109,-338,-326
-10,18,43,19,27,131,63,-29,-145,-106
-31,12,27,-5,-28,-19,-19,10,20,18
9,5,15,-14,-24,-22,-28,6,67,109
55,-10,-4,-23,-47,-17,-14,72,125,211
11,0,-4,-9,-46,-27,-36,38,108,171
-64,26,47,40,0,-5,-31,-53,-19,31
-47,37,74,76,55,52,-8,-85,-130,-45
-121,10,69,82,84,106,10,-76,-117,-114
-87,24,71,52,69,74,-58,-149,-54,-44
118,87,84,32,22,0,-135,-234,-33,103
92,71,64,7,-6,-30,-134,-226,-30,143
-17,6,0,-41,-59,-65,-50,-80,2,88
-98,-51,-42,-84,-98,-68,22,162,106,70
-129,-103,-88,-104,-139,-42,57,269,167,34
42,-58,-89,-92,-153,-36,59,200,131,13
303,9,-41,-44,-116,-88,-11,141,181,108
294,8,-50,-32,-39,-120,-66,153,197,124
132,-7,-59,-24,36,-93,-31,191,129,55
67,-10,-39,-10,29,-7,36,124,51,0
13,-5,6,31,29,68,49,-4,5,-83
-5,-13,8,37,20,28,30,-41,-10,-113
44,-48,-95,-14,-4,41,58,9,20,-1
79,-62,-56,-23,17,100,51,-8,-68,-25
51,1,-1,28,36,37,-35,-87,-161,-120
38,50,-94,13,-21,-75,-77,-64,-134,-103
7,28,-76,8,-19,-44,-46,-79,-136,-97
-18,-3,10,22,37,47,-17,-150,-200,-109
-107,-57,-2,13,39,18,-7,-60,-116,-66
-186,-96,-25,-3,13,-6,8,24,0,12
-133,-47,5,-14,-23,-60,-23,7,-27,101
17,40,46,-24,-38,-96,-81,-89,-78,142
61,55,44,-40,-14,-53,-89,-176,-69,116
102,44,-11,-71,-16,-54,-67,-144,20,120
132,73,4,-31,20,-72,-63,-83,91,104
-41,81,67,55,105,38,5,-131,-74,-116
-189,23,48,37,120,162,90,-245,-301,-349
-179,-14,0,-17,34,65,84,-169,-243,-342
-110,4,-17,-74,-76,-125,31,110,-11,-229
-96,38,10,-54,-73,-148,10,219,107,-180
-58,65,17,-30,3,70,119,108,71,-197
48,94,27,-22,29,171,183,141,135,-96
51,67,28,-17,-3,35,115,245,208,3
8,-1,27,-23,-28,-49,52,228,217,74
-3,-60,29,-4,1,-35,40,138,223,178
-28,-102,12,-6,22,65,53,89,244,255
-61,-111,22,-4,4,127,81,131,303,379
-57,-85,22,-13,-33,19,2,121,273,464
-23,-66,-1,-11,-41,1,-40,-2,49,281
-92,-72,-44,9,-13,81,-8,-99,-155,-25
-115,-47,-82,-9,0,69,-21,-113,-185,-204
-107,-47,-144,1,9,55,-17,-87,-176,-259
-97,-61,-141,3,4,26,0,-26,-88,-145
-61,-51,-91,-31,-34,-16,5,-14,-41,-4
-28,3,-36,15,-16,-42,-47,-95,-126,12
-6,21,0,45,10,-8,-84,-182,-206,37
-24,-7,-43,50,34,45,-49,-170,-192,61
-72,-62,-79,30,8,-12,-17,-14,134,231
-101,-84,-26,-33,-64,-131,-54,146,622,632
-8,-49,-79,-138,-170,-297,-152,267,1025,1081
122,27,-142,-145,-164,-394,-260,198,979,1151
156,49,-187,-85,-64,-225,-180,59,474,593
179,29,-36,25,46,-3,73,78,-41,-90
224,11,93,93,120,84,196,37,-414,-536
113,-79,97,92,133,165,197,-39,-561,-737
-14,-101,107,95,152,341,255,-57,-634,-780
-38,-33,134,84,140,334,231,-105,-567,-653
-69,46,96,-8,43,91,47,-166,-424,-516
-67,76,103,-12,-7,-42,-37,-106,-227,-361
-63,27,47,-5,-11,-35,-19,-64,-113,-224
-71,-10,-89,-54,-23,103,31,-128,-214,-248
-22,27,-40,-52,-52,88,-12,-143,-247,-281
-61,13,-29,-57,-23,144,53,-96,-193,-258
-116,0,-14,-26,64,236,129,-68,-180,-208
-49,27,101,14,80,102,18,-113,-162,-156
123,46,102,8,31,-28,-74,-166,-150,-138
275,28,49,-28,-29,-70,-58,-183,-145,-113
248,33,77,-7,-45,-131,-60,-200,-163,-58
239,85,137,34,-35,-111,-54,-212,-154,35
175,72,107,43,-26,-89,-25,-169,-104,100
42,31,68,39,-32,-92,-29,-154,-76,154
-116,-28,38,27,-33,-56,3,-31,7,145
-175,-58,1,-4,-31,-37,27,58,131,86
-128,-22,2,7,-11,-46,2,-46,126,19
-16,46,13,-8,-63,-70,17,32,208,38
42,51,21,7,-66,-67,52,162,176,11
19,-8,-2,2,-59,-62,53,249,106,2
81,-32,-21,-34,-91,-75,-9,213,104,91
125,-77,-41,-55,-94,-52,-20,108,53,70
114,-92,-35,-55,-76,-46,-60,2,-29,29
27,-59,-6,-53,-63,-81,-107,-38,-26,37
-89,-34,-30,-49,-88,-86,-93,-15,25,60
-56,3,-129,-44,-105,-94,-75,-18,106,174
4,-14,-123,-45,-77,-78,-51,35,245,270
82,-25,-45,-25,-29,-84,-42,164,384,336
216,9,47,1,1,-110,-61,198,420,385
249,32,109,16,-1,-115,-67,130,293,349
87,3,59,8,0,-51,6,42,94,249
-78,-21,-3,-1,4,-106,-24,35,34,190
-48,9,-52,-37,-20,-191,-94,9,-63,94
-51,37,-69,-44,-2,-42,-49,-92,-245,-134
-145,36,-38,-7,68,199,68,-109,-353,-451
-167,-39,-23,44,109,304,163,-66,-326,-560
5,-14,32,80,118,238,145,-49,-216,-299
12,28,26,104,140,151,74,-39,-134,-112
-116,9,-6,67,108,86,70,46,-23,19
-204,24,58,39,48,-15,28,81,18,22
-359,26,94,86,68,-33,-12,23,-31,-161
-428,17,91,112,85,-41,-20,-44,-73,-249
-372,14,95,140,122,-51,-59,-184,-178,-278
-229,0,61,87,53,-90,-64,-155,-131,-171
203,63,24,-3,-103,-278,-112,14,45,73
423,-10,-60,-39,-87,-37,-24,43,32,153
202,-128,-160,-65,-5,365,170,48,52,144
42,-91,-143,1,64,409,154,-14,70,135
-25,-24,-142,-10,-15,38,-29,-12,176,147
38,24,-128,-52,-27,78,17,-37,67,140
137,56,-97,-15,-11,15,-41,-115,-34,195
122,64,-52,22,17,-42,-94,-167,-61,172
108,49,-94,9,5,-32,-61,-136,-47,151
137,53,-69,-6,-8,-15,-39,-142,-79,158
128,105,97,51,38,-34,-52,-130,-153,71
18,75,118,33,15,-5,-15,-17,-77,-42
-93,6,92,8,-18,51,84,183,85,-161
-93,-8,108,33,-4,62,120,206,116,-206
-76,-17,110,31,8,39,103,134,52,-154
-26,-39,39,-50,-49,10,107,222,106,-11
48,28,-47,-73,-79,11,87,223,82,72
96,131,-64,-34,-31,25,48,45,-61,57
103,112,-93,-43,-29,12,49,26,-8,70
41,68,-120,-47,-41,-26,-17,-2,27,-17
9,52,-83,-33,-55,-52,-70,-46,9,-84
13,26,-107,-36,-47,-34,-28,17,66,-85
-53,-69,-106,-62,-37,10,96,245,211,-30
-101,-128,-27,-53,1,59,154,322,211,19
-68,-56,-5,-4,38,62,86,189,89,28
-12,9,12,26,58,47,34,58,5,35
11,21,21,41,53,42,-7,-12,-26,21
-62,-2,50,12,22,9,-50,-58,-38,-8
-81,4,45,-32,-10,-32,-65,-80,-13,19
-45,10,47,-29,-27,-53,-70,-86,-9,59
-55,9,48,-4,-18,-48,-55,-7,16,90
-12,27,52,-1,-1,-11,-21,20,-19,102
33,35,9,-16,-39,-28,-29,-25,-107,74
32,38,-77,-29,-93,-48,-45,-68,-64,90
4,17,-74,-27,-76,-36,-41,-32,60,113
-51,12,-54,5,9,9,-17,2,126,72
-20,56,39,4,31,-3,-15,79,171,82
37,47,43,-43,-19,-37,12,243,314,154
70,59,67,-29,-57,-69,-1,219,297,125
-6,18,54,-29,-86,-57,-32,56,114,3
-150,-58,3,-31,-68,23,-4,-48,-6,-71
-218,-73,-22,5,-37,17,12,-74,-35,-37
-145,-63,-77,-34,-70,-92,-63,-99,-34,87
-139,-54,-108,-78,-113,-212,-143,-87,52,202
-116,-43,-36,-41,-80,-186,-117,-21,156,265
0,-46,-21,-20,-7,9,30,45,196,342
110,-6,-25,-21,29,197,148,26,103,212
158,19,9,-2,28,143,58,-20,5,62
111,15,72,78,87,105,24,-21,-125,-124
98,-6,101,121,122,147,111,19,-293,-378
-7,-6,105,124,119,154,101,7,-438,-544
-106,29,120,122,87,76,13,-63,-450,-535
-18,28,119,104,55,-7,-34,-64,-277,-359
93,15,120,90,39,-44,-95,-86,-140,-227
120,-16,131,86,27,-68,-118,-66,-18,-99
31,-95,52,20,43,67,-11,40,34,-23
37,-76,-26,-69,5,113,21,101,74,64
-27,-1,-29,-73,-34,-4,-48,71,121,188
-162,-6,3,-25,-22,23,-36,19,53,160
-158,-7,-5,-44,-22,-5,-83,-60,-26,56
-155,-33,-39,-66,-7,68,10,-32,-43,-99
-98,-13,-34,-32,9,86,17,-19,-87,-186
-71,-46,-44,-19,18,119,11,-38,-132,-171
1,-42,-57,-46,2,100,11,-33,-82,-40
195,11,-91,-39,-13,-11,-26,-43,-35,105
175,-16,-130,15,2,-46,-9,-51,-50,114
85,-17,-14,35,4,-44,-28,-70,-69,77
86,-38,19,31,3,-6,-34,-69,-50,75
39,-96,-38,2,-4,5,-50,-45,20,78
56,-13,-141,-51,-41,-38,-71,-27,86,22
87,49,-108,-47,-41,-56,-57,0,83,-79
121,-2,-77,-9,9,-64,-76,-45,-20,-61
162,-6,-11,35,38,-30,-97,-127,-83,47
169,15,41,63,27,-37,-54,-31,-10,167
180,52,73,57,-23,-238,-114,146,144,253
10,91,109,57,-9,-347,-188,75,111,124
-154,98,119,69,1,-282,-142,101,120,-53
-111,53,84,43,13,-38,-27,101,75,-104
-92,-73,-65,-99,5,448,303,112,-32,-140
0,-84,-78,-126,3,536,405,153,-5,-71
-30,-86,-22,-71,-15,256,198,99,103,80
-23,-40,13,-42,-84,2,1,51,250,248
49,-2,17,-39,-123,-68,-69,19,356,357
101,-3,-25,-59,-129,-93,-71,-11,398,466
173,11,-81,-59,-80,-82,-70,-66,265,478
137,26,-98,11,42,9,-1,-105,18,230
38,-24,-80,22,43,10,28,-89,-88,8
-59,-47,-40,2,-2,-7,37,17,-64,-127
-62,34,86,50,11,-7,36,63,-184,-272
-21,102,148,87,85,69,42,13,-374,-403
-11,128,166,108,154,201,85,-16,-387,-460
-70,89,156,104,140,137,17,-89,-356,-519
-56,59,107,47,70,1,-86,-165,-386,-533
-21,72,58,41,39,-27,-98,-201,-377,-383
-31,70,23,45,52,3,-54,-196,-277,-219
-46,70,62,62,69,11,-76,-231,-197,-149
-155,58,132,59,55,-9,-79,-218,-101,-190
-239,-9,117,-7,-12,-23,-19,-45,60,-191
-226,-76,-23,-58,-36,4,76,141,128,-130
-148,-54,-85,-60,-31,4,83,139,55,-85
27,-15,-69,-84,-68,-40,65,199,133,-41
174,-3,-76,-98,-88,-62,50,241,171,-9
207,8,-59,-65,-60,-40,48,180,79,9
151,4,-26,-15,-5,-23,22,61,44,22
108,-11,-7,27,27,-26,-15,-20,21,23
155,-2,5,12,6,-43,-23,0,37,53
211,32,11,-16,-24,-59,-45,49,79,86
76,19,15,-6,-15,-43,-37,52,50,80
-140,-19,12,23,27,-5,-17,-28,-44,33
-237,-37,8,25,28,4,-12,-106,-64,48
-260,-46,34,14,33,10,6,-129,-19,84
-99,-4,12,-7,11,-2,11,-90,81,151
75,36,36,-10,21,-25,24,-7,161,178
99,8,7,-31,-31,-79,61,152,274,184
116,-4,8,-15,-50,-68,80,197,284,144
89,-7,48,23,-1,-1,64,69,126,27
-20,-26,37,14,-20,46,32,-11,17,-42
-102,16,30,27,-36,-9,-20,-50,-1,-41
-68,70,-60,-6,-67,-64,-39,-47,-21,-65
-53,33,-131,-19,-53,-43,2,-17,-44,-138
-92,-2,-80,-2,1,9,17,-19,-55,-134
31,-4,24,10,28,57,34,2,-49,-76
175,-9,75,6,9,28,33,-24,-51,0
145,-20,92,-5,-8,-37,26,-59,-15,94
41,-51,48,-62,-32,-44,13,-36,96,261
21,-65,-38,-116,-84,-106,-21,37,254,450
54,-46,-48,-71,-74,-144,-76,49,356,549
55,-42,-8,-48,-67,-100,-102,-28,362,532
68,0,37,0,-48,-33,-53,17,260,398
55,41,80,48,-21,-145,-95,67,62,155
37,66,-5,73,15,-228,-125,43,-176,-320
49,3,-67,-19,50,101,61,-46,-314,-429
24,-74,-120,-69,43,236,116,-50,-169,-210
14,-47,-59,-8,36,131,58,47,131,118
-56,-42,-22,27,10,-15,-16,91,290,271
-87,-43,-47,-23,-42,-47,-36,72,194,177
-122,-33,-59,-3,-22,-3,21,107,61,3
-104,-17,-4,43,43,56,85,114,-47,-124
-39,27,93,96,111,122,123,68,-235,-331
-6,56,113,126,134,121,101,-19,-396,-521
-40,36,89,97,100,65,55,-97,-425,-530
-60,28,69,65,52,19,19,-125,-365,-337
-36,24,58,30,29,-3,-6,-139,-250,-140
-25,10,1,-3,6,-28,-21,-143,-160,-80
-10,-10,-8,-28,1,-54,-21,-86,-46,-56
3,-30,-7,-23,12,-17,-8,-31,12,-25
-8,-48,-40,-13,29,46,7,-28,-25,-29
-6,-32,-75,-8,14,49,16,-74,-84,-46
19,-1,-51,-36,-8,28,10,-149,-143,-19
70,59,-73,-22,-7,-9,-7,-190,-150,17
30,130,-99,30,-6,-70,-82,-250,-143,-23
2,98,-46,7,-47,-151,-153,-218,-57,39
-56,1,-38,-51,-83,-147,-115,-90,76,138
-97,-56,-60,-62,-89,-125,-55,34,144,167
-31,-121,-182,-79,-75,-113,-6,180,294,309
39,-100,-246,-25,-7,-74,-8,156,356,362
105,-25,-198,-9,1,-56,-9,173,444,321
122,-29,-108,-20,-13,-32,14,229,410,245
