40,20,34,18,-15,-15,0,11,-2,65
51,23,24,4,-13,-13,18,22,-18,71
62,14,20,-12,-21,-14,19,6,-25,66
60,-6,19,-25,-41,-24,-8,-6,-21,66
40,-2,23,-9,-43,-14,-22,6,-10,38
10,-6,29,-1,-29,-3,-18,10,-11,-20
-18,-8,29,11,-16,15,-8,2,-39,-62
-28,-17,34,8,-16,14,-5,12,-26,-65
0,-20,20,-11,-43,-3,-25,16,29,-5
34,-1,-29,-5,-44,-14,-41,-6,37,26
35,7,-6,0,-38,-17,-38,-25,8,21
5,17,18,0,-24,0,-14,-13,11,0
2,34,12,6,-3,9,6,-2,5,-23
-14,40,14,16,-4,8,11,-1,-1,-57
-18,34,7,26,-11,18,8,-10,-38,-77
-20,3,0,4,9,30,2,2,-10,-26
-24,-5,-33,1,29,24,-3,-4,-21,-6
-30,3,-29,-10,22,22,-13,-24,-34,0
-27,1,-16,-33,6,2,-20,-19,-13,16
9,15,-26,-50,1,5,-25,13,13,20
11,24,-8,-12,3,12,-5,18,12,7
4,15,6,6,-3,14,26,7,11,0
-4,-7,4,4,-5,30,34,-13,4,-9
21,1,6,21,-15,4,27,-43,-26,5
30,19,-29,16,-9,4,15,-51,-58,4
25,13,-9,3,-11,-8,-8,-48,-47,-11
-2,-3,8,10,-15,-3,2,-6,2,-36
-51,-6,-3,14,-5,14,24,40,49,-41
-43,3,-1,8,11,8,16,18,27,-31
-38,5,12,12,16,14,10,-4,6,-30
-37,3,20,21,20,15,-9,-26,-27,-7
-6,0,-8,13,21,7,-8,-40,-79,18
29,-14,-57,-17,8,3,-10,-30,-93,38
43,-8,-31,-36,-3,-13,-34,-38,-89,43
51,34,12,-18,-8,-37,-4,-48,-28,65
43,15,2,-33,-22,-35,-4,25,125,71
47,26,8,-20,-5,-10,-10,39,131,11
0,-2,15,-1,26,16,-15,54,95,-24
-42,-31,-3,-4,27,7,-23,46,62,-6
-36,-20,-6,0,32,-4,-19,23,35,15
-38,-13,6,5,31,14,-1,10,29,17
-29,-5,14,8,35,7,-3,-5,0,24
-9,8,19,-3,31,0,-19,-7,-10,18
-31,0,13,-10,22,-1,-28,-4,-38,-27
-43,-17,11,-5,16,4,-31,-18,-47,-29
-22,-21,23,-3,21,7,-40,-11,-50,-31
-19,-17,35,-5,27,3,-36,2,-30,-31
-26,-12,-14,-10,13,-3,-14,13,1,5
-28,-9,-122,9,16,-7,-19,0,12,25
-28,-29,-137,10,23,15,-12,11,29,46
-31,-38,-56,14,26,12,9,35,39,16
6,-4,39,17,15,1,-9,35,19,-22
18,6,38,18,4,-2,-14,29,11,-15
9,14,-26,28,6,3,-7,22,-6,-25
24,15,-53,36,-2,18,-11,1,-43,-38
29,18,31,23,-2,16,-22,-18,-91,-38
41,17,16,12,1,8,-34,-40,-127,-34
49,19,29,-2,3,12,-31,-57,-171,-28
58,16,46,4,10,-2,-22,-80,-198,0
47,15,50,19,14,-1,-18,-99,-201,35
46,19,57,29,16,4,-21,-89,-156,84
29,12,52,40,16,0,30,-66,-91,91
-6,-1,24,34,-11,-4,51,-23,40,62
-17,-9,24,17,-13,-17,30,13,175,37
-32,-13,21,7,-21,-15,23,67,252,-17
-55,-2,25,-1,-5,-4,15,95,212,-85
-43,22,31,13,17,6,10,63,110,-74
-16,26,36,18,11,3,6,27,59,-31
-11,10,23,5,3,1,-6,1,22,-5
9,-7,-125,-13,-38,-28,-35,-11,3,-5
37,-18,-130,-23,-40,-26,-51,-13,-1,7
23,-27,-40,-15,-26,-20,-53,-10,-32,-5
7,-30,22,-6,-16,0,-32,-10,-33,-15
23,-27,38,-16,3,8,-14,-1,-34,0
25,1,49,-12,13,11,-2,-21,-76,-13
1,4,47,-10,0,0,-10,-21,-92,-44
-23,-8,33,-16,-4,-6,-6,0,-71,-73
-48,-10,-8,-20,-1,5,5,-1,-78,-129
-55,-11,9,-24,3,-1,22,0,-86,-157
-36,-21,18,-30,7,-13,28,50,26,-143
-4,-23,11,-29,2,-22,33,114,176,-64
24,-8,8,-15,-2,-26,22,93,151,-3
17,5,-1,-3,-5,-11,10,54,53,-9
-6,10,12,10,10,11,11,36,2,-42
-4,8,24,21,13,6,9,9,-25,-24
7,11,11,12,13,6,0,9,-18,19
0,-3,-7,-1,4,11,-2,30,5,54
0,-15,-8,-1,8,4,7,34,11,58
15,-11,4,-2,9,-6,0,-4,-17,55
41,-4,-4,-11,-16,-31,-22,-56,-50,77
39,-12,-11,-12,-12,-14,-1,-33,-45,67
5,-27,-8,5,-10,14,16,-11,-59,6
6,-30,-27,-3,-18,13,-16,-56,-103,1
4,-14,-21,0,-12,23,-22,-79,-126,-7
-27,-19,-50,-17,-26,8,-11,-40,-86,-26
-70,-45,-141,-33,-36,9,12,22,-5,1
-78,-37,-98,-28,-27,20,33,32,5,27
-57,-21,-40,-24,-32,7,12,38,55,29
-40,-21,-28,-19,-16,13,15,90,176,31
-18,-9,-14,-5,2,2,12,110,195,21
-24,1,3,-2,13,3,-5,66,132,4
-24,5,17,15,19,-2,-5,47,92,-8
0,-11,6,11,-1,-10,-17,17,24,-8
7,-28,-5,3,-4,-8,-18,-5,1,2
8,-30,-10,-13,-3,-9,-1,-19,-4,4
13,-1,6,-8,7,-9,-2,-28,-20,6
-2,2,14,0,18,-18,-7,-31,-38,-2
-19,-15,20,-7,16,-13,-3,-21,-23,19
-21,-8,33,-7,5,-20,3,-21,-16,32
-4,6,24,-15,0,-11,-2,-24,-26,30
7,14,14,-20,9,-6,-11,-24,-41,21
3,12,9,-15,13,4,-13,-26,-36,22
11,19,21,-4,18,-8,-26,-37,-35,23
23,3,16,-13,19,-16,-25,-31,-21,39
17,-21,10,-17,17,0,5,-3,-12,86
-5,-28,18,-12,16,15,14,2,-22,58
-31,-20,22,12,17,15,6,-4,-36,23
-38,-17,-43,2,1,0,1,21,-15,23
-8,-22,-19,-16,-16,-4,43,47,42,37
-1,-6,18,-8,-12,-11,58,49,40,9
-13,-6,28,9,0,-13,15,16,21,-3
-22,-13,27,17,-3,-27,-32,-26,0,3
-7,-10,26,15,-11,-28,-32,-7,47,40
31,22,46,23,-4,-27,2,18,59,87
27,42,48,39,10,-22,0,-23,-13,85
13,35,38,29,6,-18,-28,-73,-53,52
37,28,21,14,-13,-23,-50,-76,-58,40
28,25,-1,26,-3,-12,-34,-41,-43,7
0,3,0,49,-5,0,8,9,-29,-33
16,9,31,42,-9,-1,39,44,-23,-51
53,11,40,32,-10,-12,27,62,11,-24
57,11,21,26,4,-9,7,76,40,3
33,6,-8,20,10,-11,28,50,1,22
-2,-1,30,27,15,5,39,22,-22,5
-18,6,29,24,16,8,47,6,-26,0
-22,3,-32,6,3,3,35,14,-17,11
-34,-6,16,-6,-7,0,27,13,2,-4
-25,13,44,-20,-11,-3,7,0,-18,-28
-18,26,35,-16,-19,-7,-21,-24,-47,-36
-13,33,-1,-17,-26,-6,-36,-27,-54,-12
-7,24,-4,-10,-14,-1,-28,-19,-46,14
12,14,7,-8,-12,14,-30,-7,-15,37
25,19,12,-14,-9,5,-35,-4,-1,47
36,29,19,-24,-20,1,-43,18,-21,46
27,39,17,-17,-18,3,-31,42,9,35
-7,47,18,-3,0,22,-17,32,27,0
-62,43,23,6,2,28,-17,8,-12,-58
-67,48,35,12,12,17,-34,-18,-42,-63
-32,46,9,8,25,25,-30,-13,-46,-43
-33,27,-52,-6,26,49,-8,31,-22,-32
-28,-4,-111,-21,18,40,-5,37,0,-26
3,-28,-41,-11,19,35,-11,34,7,-12
-8,-66,14,-11,25,28,-23,39,31,7
24,-68,1,-23,13,-4,-37,26,46,12
38,-55,1,-31,24,8,-21,27,36,-6
10,-30,8,-17,26,6,-14,17,9,-25
28,0,12,-21,9,-11,-29,15,12,-6
13,0,10,-22,3,-5,-33,5,29,3
-24,-3,19,-17,5,-2,-15,4,6,-21
-9,0,1,-27,12,1,-1,13,12,-37
-2,1,-7,-43,11,-11,-6,16,49,-27
-3,2,-3,-34,5,-19,-13,4,43,-20
-3,0,3,-27,8,-13,-4,4,26,-20
-9,0,0,-30,15,-3,18,12,22,-22
-23,7,9,-14,17,-7,37,21,17,-14
-14,6,20,0,4,1,10,16,-3,-10
-16,-6,10,-3,-4,0,-4,6,-3,-13
8,0,-9,-11,1,6,-6,-4,-2,-3
41,4,-14,-2,9,8,-19,-25,-55,5
46,-3,-11,8,7,11,-17,-36,-96,0
44,4,-18,0,-3,15,4,-22,-103,10
26,12,-16,-3,-14,11,9,-13,-103,15
-7,15,-64,-16,-23,20,14,-3,-68,11
-38,-3,-93,-25,-36,23,41,32,85,21
-44,-1,-85,-11,-7,31,73,48,131,9
-10,23,-10,1,19,31,82,48,91,-6
4,24,0,9,32,34,55,48,61,-14
-21,14,10,27,31,33,23,-4,-19,-24
-13,22,18,14,27,6,-16,-97,-156,-26
11,30,-68,9,19,5,-39,-181,-286,-28
11,36,-109,19,12,4,-24,-214,-363,-44
1,38,-13,29,40,22,-11,-220,-413,-60
11,39,49,32,44,25,-14,-186,-391,-53
11,10,30,5,12,-17,-20,-70,-155,-11
-8,-42,-14,-48,-44,-63,-13,136,288,60
-19,-50,-12,-66,-65,-58,0,253,561,109
-6,-42,-8,-61,-57,-21,17,244,555,77
7,-38,-4,-53,-34,-10,14,174,388,20
22,-13,27,-22,3,9,33,82,193,1
-6,-1,38,-4,34,28,62,46,126,-27
-31,-11,46,3,50,29,75,40,99,-33
-35,-12,27,-8,41,26,74,13,78,-14
-20,-9,-1,-18,20,15,55,-19,48,-3
2,-3,-11,-19,-7,5,18,-33,31,11
2,0,-20,-26,-25,-9,0,-25,64,31
17,-3,-65,-23,-33,-16,-13,-27,56,11
37,-3,-114,-15,-20,-11,-18,-36,25,-4
-2,-9,-64,-2,-4,-4,-7,-39,17,-12
-42,-7,9,-5,-9,-1,4,-15,27,-17
-23,4,13,-9,-6,2,0,-21,14,-28
-6,22,19,-5,24,-8,-2,-38,10,-31
-25,-6,-1,-13,5,-7,-11,-43,-15,-26
-37,-38,-18,-23,-9,-7,-13,-39,-19,-22
-10,-37,-21,-25,-9,-2,-5,-53,-19,-12
21,-36,-5,-21,-18,4,-14,-72,-31,25
47,-17,15,-9,-19,-20,-50,-57,-34,56
22,-1,26,-1,-3,-13,-37,0,0,40
8,6,15,3,15,-7,17,-34,-32,6
9,-1,34,13,23,4,42,-42,-31,-16
18,0,41,30,30,4,49,-37,-42,-21
-1,5,50,20,23,9,50,-14,-38,-27
-8,2,41,13,28,0,63,6,-31,-42
-6,-27,28,-6,6,-17,50,9,-2,-21
-7,-41,32,-2,-10,-22,32,0,2,4
3,-28,30,11,-2,-4,17,-6,-1,5
12,-12,28,21,9,-7,-5,-4,-26,-2
21,-11,30,13,6,-11,-24,-23,-44,3
23,-34,31,6,7,-26,-32,-56,-78,20
-9,-53,20,18,4,-8,-22,-56,-74,-10
-17,-40,24,29,7,6,0,-39,-61,-58
-3,-22,16,26,5,-9,-11,-45,-70,-42
5,-16,-65,19,0,-22,-30,-41,-56,-4
0,-21,-157,-3,-16,-38,-41,-21,-17,30
-25,-21,-147,6,-1,-28,-28,0,26,18
-40,-15,-111,3,7,-11,7,9,35,-7
-25,-18,-56,-12,-6,-9,24,-1,5,-10
14,-2,27,-12,-10,-23,25,-8,-4,1
35,12,50,9,-6,-13,39,1,12,29
52,-3,44,5,-1,16,26,0,17,53
87,-2,41,3,-1,16,-4,-15,-11,68
92,18,39,15,-2,-4,-20,-19,-30,70
47,-5,13,-2,-22,-20,-39,0,-3,57
-4,-27,-19,-9,-25,-2,-44,16,26,35
-16,-25,-2,-8,-18,1,-34,2,36,2
-20,-12,23,-17,0,-7,-13,-10,22,-36
-32,6,28,-2,9,-6,-1,-17,5,-81
-44,17,27,1,6,1,17,-12,1,-89
-24,27,25,-12,-1,3,14,-27,-19,-59
-6,33,18,-22,0,1,5,-46,-37,-45
3,28,28,-25,11,5,5,-42,-24,-43
5,33,37,1,9,0,4,-36,-12,-44
-5,36,31,12,13,-2,-19,-47,-49,-55
-8,25,23,12,16,-9,-35,-45,-60,-45
6,-16,4,-13,-9,-48,-14,62,147,24
-3,-11,-4,-22,-22,-46,-31,79,138,46
0,6,3,-13,-7,-17,-34,19,42,44
21,22,-15,3,-1,-15,-25,-22,21,50
41,34,8,4,8,-9,-10,-19,14,48
34,33,43,22,7,-5,2,-28,-69,12
34,39,44,29,14,-3,0,-49,-97,-34
17,20,37,32,9,-10,-3,-47,-81,-28
3,-1,25,26,4,-9,13,-14,-40,8
6,-9,15,14,-5,-26,-7,7,-5,39
48,-16,-27,0,-9,-44,-18,48,22,45
38,-30,-54,14,-1,-31,1,59,17,30
-3,-31,-2,36,10,-11,-2,31,-2,-17
-34,-39,24,37,6,-1,2,26,-11,-49
-43,-28,10,18,4,12,50,35,-15,-62
-41,-27,11,-2,-10,7,50,43,-6,-36
-23,-34,-9,-12,-20,-6,40,32,17,-1
10,-7,-56,-2,-11,-4,33,25,-6,-14
33,1,-1,1,-6,-1,-3,27,-21,-17
52,-7,21,-9,-17,-2,-22,20,-21,5
67,-16,18,-13,-22,-4,-11,3,-27,32
35,-36,14,-26,-31,0,-1,-5,-15,18
-12,-42,15,-32,-30,19,39,17,14,-27
-9,-28,31,-13,-11,19,75,25,0,-28
12,-3,38,-1,0,4,53,-7,-14,-20
8,-6,0,-7,-8,0,33,-19,-30,-27
-15,-36,-30,-11,-14,7,42,0,-26,-47
-27,-44,-26,-7,-23,6,32,13,-13,-48
16,-21,-20,0,-25,11,-6,-7,-31,-20
41,-18,24,0,-21,0,-21,-27,-43,-16
19,-28,13,1,-18,0,-14,-27,-15,-20
-3,-27,-2,19,-18,3,-7,1,29,3
5,-2,-2,34,-14,7,0,0,9,1
22,2,5,48,-8,8,-4,-28,-68,-17
20,1,-23,44,-18,17,6,-48,-84,-6
20,2,-50,50,-19,20,21,-46,-88,30
9,23,30,64,-1,36,27,-58,-114,7
-3,15,43,46,3,33,50,-61,-118,0
-20,2,17,24,-19,1,50,-35,-20,25
-20,-2,20,35,-13,4,40,-32,4,7
-7,11,21,36,10,1,28,-49,10,-10
-14,-2,-2,12,-7,-16,25,8,77,19
-7,-14,-10,-17,-37,-34,21,62,174,68
14,-17,12,6,-12,-8,22,43,175,73
0,-3,31,31,19,11,34,36,131,57
-31,3,39,43,35,16,28,28,69,54
-34,19,41,45,40,13,25,18,35,45
-11,38,-24,33,13,-1,10,-4,18,37
14,23,-105,-2,-11,-17,-2,-19,-9,51
49,23,-34,-18,-17,-15,-11,-33,-30,104
32,26,6,-17,-12,3,-1,-36,-54,95
-15,15,4,0,0,23,16,-12,-55,29
-50,-18,-13,-10,-8,17,4,36,76,35
-63,-44,-22,-28,-15,26,10,83,190,37
-44,-36,-1,-30,-8,24,-2,75,140,7
-20,-19,9,-30,-4,21,-17,64,38,-5
8,-8,13,-24,-6,13,-12,40,0,9
-2,-15,-11,-38,-14,-2,-27,21,3,27
-28,-33,-82,-44,-17,-6,-33,13,-5,23
-14,1,-42,-48,-10,-12,-34,-14,-5,-4
-25,-1,2,-57,-10,0,-54,-24,-37,-30
-20,-17,-11,-55,-3,0,-69,-2,-56,-32
7,-19,32,-55,-7,19,-61,0,-64,-40
68,24,-2,-49,-24,10,-73,-14,-85,0
124,37,-7,-31,-22,5,-79,-23,-76,70
114,29,52,-29,-8,8,-74,-24,-56,92
79,16,41,-47,0,15,-37,-32,-63,55
84,19,31,-33,-3,27,-24,-16,-57,52
76,32,22,-17,-15,7,-26,21,62,54
7,29,33,10,10,27,-5,46,89,-47
4,5,-3,9,21,40,3,18,-24,-105
-15,-1,-42,-8,16,33,-3,22,-20,-60
-58,-9,-65,8,17,39,-25,49,16,-51
-83,-5,-3,17,21,29,-50,53,0,-57
-66,-12,25,25,6,14,-48,45,-17,-43
-67,-30,-40,22,9,31,-36,39,-9,-26
-67,-40,-2,27,30,44,-17,26,8,-17
-34,-27,50,26,21,18,-39,3,20,-11
-4,-1,56,21,3,-11,-55,-1,24,14
-29,-7,31,3,0,-20,-47,13,38,34
-51,-20,14,-2,-1,-21,-49,23,17,13
-28,4,14,5,3,-7,-54,-3,-16,15
0,13,16,-1,6,-13,-40,-18,-64,6
6,8,-17,17,23,14,-11,23,-50,-38
-2,-13,-52,23,35,28,3,49,-30,-68
-3,-36,-15,23,11,5,2,27,-30,-59
6,-41,-30,7,5,-7,26,28,-23,-51
17,-28,-120,3,10,-16,33,20,-19,-44
14,-16,-153,10,12,-20,22,3,-21,-20
10,-6,-139,4,7,-12,11,-3,-22,-18
-10,8,-34,2,11,-3,-24,-21,-30,-38
-20,5,41,-2,12,4,-47,-36,-27,-38
-24,0,48,-6,12,-3,-32,-18,-14,-36
-4,-2,43,-16,10,-9,-17,-27,-34,-25
3,1,34,-15,10,-11,-10,-30,-67,-32
-19,8,35,0,24,15,23,-13,-57,-44
-5,8,19,0,23,14,28,-4,-48,-22
17,16,17,0,16,-11,10,-5,-41,-2
29,16,26,-7,-7,-25,9,13,-13,28
28,15,34,-19,-9,-32,-8,20,-13,31
12,20,27,-28,12,-6,-29,28,-18,3
-13,16,15,-20,31,0,-14,26,-37,-30
-24,10,25,-13,22,8,-16,2,-54,-40
-19,17,15,-17,2,17,-12,-23,-68,-35
-32,26,19,-6,8,16,9,-49,-92,-50
-33,26,22,13,23,33,19,-81,-137,-36
-26,19,22,-8,13,37,-5,-49,-85,-21
-22,16,12,-36,-16,-9,-23,46,64,2
-8,15,10,-40,-25,-37,-21,42,58,15
33,16,16,-16,-14,-29,-12,-2,-11,17
26,24,17,-4,8,0,13,43,31,-7
13,3,15,-1,3,11,11,111,131,0
27,0,3,4,1,7,2,88,147,43
68,33,-29,-5,-4,11,-7,13,79,64
77,38,-22,-5,0,-3,-13,-28,14,51
41,36,-6,2,-4,-7,-6,-47,-39,15
-2,30,5,-4,-9,-6,11,-47,-44,3
-22,3,-16,-1,-17,-1,18,-25,-6,7
-38,-14,-32,2,-23,15,37,0,37,9
-49,-20,-21,-4,-24,14,53,26,81,21
-21,-5,-75,-30,-33,2,43,41,76,72
14,9,-10,-28,-38,-2,24,29,57,82
36,5,25,-20,-33,4,18,6,38,49
22,-12,23,-20,-24,15,10,-12,36,0
6,-6,11,-16,-2,10,-1,-26,8,-33
0,-13,-2,-21,9,11,4,-28,-14,-29
-18,-11,-33,-12,18,11,11,-24,-33,-21
-15,-17,-50,11,33,14,21,-30,-49,3
-31,-16,-17,-2,36,10,27,-20,-49,-5
-23,-9,-15,-13,21,9,15,-3,-41,-23
-10,-12,-3,1,13,9,26,13,-35,-10
0,-6,8,18,18,14,19,14,-9,12
-11,-3,11,31,30,19,16,6,0,2
-12,-2,9,32,37,14,49,-13,-49,-20
0,3,21,13,38,13,75,-28,-92,-19
18,6,20,6,32,9,40,-30,-49,-2
47,15,-18,-10,3,-32,-21,7,38,6
31,15,-24,-33,-3,-47,-14,43,72,1
3,18,12,-25,7,-25,0,35,68,0
-10,17,15,-9,19,5,2,19,39,1
-22,1,-2,-4,9,7,-13,4,34,-6
-39,-28,-20,-18,-2,-17,-19,6,62,-2
-45,-28,-92,-24,-9,-26,-11,19,54,10
-51,-26,-101,-26,0,-18,3,15,33,5
-53,-17,-17,-23,-7,-3,-5,4,15,8
-32,-3,9,-20,-16,-9,-1,-5,15,21
-19,-2,-6,-17,-20,-19,18,-4,17,44
-10,-2,-112,-16,-20,-24,9,-5,10,23
13,20,-139,1,-28,-21,-3,-6,-6,-7
-7,23,-119,8,-24,-3,12,0,-10,0
-15,16,-91,2,-11,-9,9,-9,-5,5
-7,13,-93,-1,0,-12,-8,-22,-1,8
-25,0,-41,-15,2,-13,0,-21,18,16
-25,-4,1,-7,5,3,-12,0,67,36
-28,-4,-36,-12,1,6,-23,1,56,34
-41,-17,44,-16,-7,11,-23,-2,34,11
-51,-7,75,-6,-10,5,-11,-12,2,-7
-51,0,89,5,9,13,27,-11,-21,-23
-29,14,93,7,24,21,36,-19,-36,-30
-18,16,92,14,19,7,27,-24,-49,-36
-8,11,78,16,28,10,22,-33,-45,-28
17,4,58,5,23,13,14,-36,-37,-11
9,2,42,0,21,0,-1,-34,-1,-1
-8,-4,57,0,17,-2,-24,-22,11,14
-35,-14,47,-7,9,-7,-27,-30,-12,12
-13,-7,44,0,13,-3,-26,-53,-44,2
1,2,38,11,16,0,-18,-52,-75,1
-10,1,36,19,20,2,13,-47,-87,2
1,-4,-39,22,17,1,22,-61,-92,34
18,3,-10,31,15,-6,12,-58,-75,32
-12,-12,25,19,1,-17,24,-4,41,30
-22,-23,19,0,3,-4,-4,34,94,75
-31,-43,4,-4,-13,5,-11,65,105,111
-8,-37,19,10,-19,6,-5,59,92,108
22,-27,-3,7,-22,0,-9,27,53,92
40,-34,-5,-9,-27,-6,9,3,37,89
18,-20,22,1,-7,4,22,-8,17,49
-24,0,38,26,0,12,18,-26,-31,-13
-14,5,52,35,2,3,18,-1,-48,-39
21,19,58,39,25,9,8,12,-39,-38
-5,7,45,20,22,38,26,18,-26,-40
-42,-10,3,-14,4,26,40,43,46,-19
-17,0,-9,-17,1,11,23,25,71,-21
4,6,3,-8,8,6,31,13,40,-30
5,4,4,-12,5,5,36,18,46,-38
20,-5,-13,-14,-7,4,26,28,42,-26
56,12,-19,-22,-9,-3,11,14,61,26
66,11,-13,-13,-5,-4,-46,-31,17,49
44,15,-2,6,5,4,-69,-25,44,27
7,21,-23,22,15,7,-54,25,68,8
-11,1,-112,19,-1,11,-54,31,7,-1
-19,-12,-77,-1,-8,13,-60,5,-27,-17
-14,-16,-22,-6,-8,-11,-55,-7,-28,-18
-2,-18,-30,-7,-9,-14,-47,2,-32,-6
6,-14,-8,-9,-2,-14,-32,3,-25,-7
0,-27,-12,-21,-26,-24,0,18,21,-4
-6,-17,-40,-16,-34,-19,14,15,34,-16
-4,-10,-58,8,-27,-4,23,13,3,-36
9,-24,0,12,-26,3,15,-2,-30,-26
26,-15,13,8,-28,4,-3,-22,-57,-19
18,-3,26,29,-13,6,7,-21,-61,-12
6,9,39,58,16,22,27,-26,-76,-12
-6,-2,16,44,2,16,11,-26,-112,-24
-6,-24,-22,10,-26,-15,-24,-33,-114,-19
5,-32,-34,-14,-41,-34,-70,-38,-99,4
1,-23,-17,-10,-42,-25,-84,-64,-114,4
13,-14,12,7,-13,-8,-80,-88,-165,-22
16,-27,-16,-15,-8,-1,-58,-39,-35,4
-1,-27,-72,-8,3,18,-18,1,59,21
-34,-13,-61,5,17,25,15,-17,-9,-16
-62,-5,13,15,25,24,20,-35,-67,-37
-56,-14,12,4,18,15,-3,-20,-2,-9
-48,-21,0,-7,0,1,-3,41,150,25
-36,0,-19,6,1,13,16,87,180,15
-3,20,-18,14,1,19,18,72,92,1
1,18,10,9,-3,15,46,40,25,-6
-8,-6,-3,9,-11,12,48,41,36,-17
-13,-9,-12,-16,-14,19,22,58,50,-14
9,-9,-7,-10,-23,22,21,64,57,1
36,-9,3,-1,-28,-3,15,57,103,14
23,-12,-6,-8,-30,-10,20,51,136,21
15,-10,0,-8,-22,-16,19,31,105,9
4,-3,0,-10,-20,-24,-6,3,43,-11
-28,12,11,-9,-10,-25,-9,6,28,-15
-46,21,-11,0,-6,-20,-5,24,52,-8
-44,15,15,12,-12,-14,-16,17,58,-14
-20,29,25,14,-17,-14,-24,-9,30,-12
-10,22,20,8,-21,-4,-21,-19,12,-35
-18,17,19,10,-36,-9,15,-11,12,-61
-1,24,9,18,-33,-11,26,-19,2,-12
22,35,-35,17,-43,-19,11,-45,-8,22
53,25,-46,20,-46,-20,8,-29,6,26
35,-5,33,38,-27,3,14,18,12,-6
-10,-16,36,38,-3,17,2,32,6,-34
-20,-13,5,34,-1,19,-13,30,8,-21
-21,-31,-16,23,-18,3,-29,17,12,-7
-2,-16,-20,15,-26,-12,-18,-10,9,-11
30,-2,-37,16,-14,-10,-28,-17,21,0
48,-15,-36,10,-11,-31,-44,-29,7,52
48,-25,4,4,-13,-36,-44,-22,-8,65
46,-9,15,6,-11,-36,-43,-19,-38,31
8,-7,15,13,0,-13,-19,14,-42,-39
-11,-21,22,22,15,14,3,30,-51,-68
7,-6,28,19,16,6,-4,11,-48,-42
37,4,31,21,17,-12,2,-7,-39,-19
67,1,27,9,24,3,32,6,-23,17
60,-22,28,15,33,22,47,22,-7,30
16,-32,14,11,26,24,55,35,-4,23
-12,-23,8,6,31,35,62,17,-19,3
-14,-2,19,12,29,17,48,-34,-44,-6
-4,2,27,18,18,-13,13,-41,-43,-9
6,-5,18,1,8,2,37,14,0,5
2,-5,0,5,11,-7,40,26,0,27
25,6,3,0,10,-22,8,-8,-14,39
42,30,3,-1,-1,-23,7,-31,-9,46
17,26,-54,-1,-2,-13,12,-32,-11,26
9,6,-25,2,4,-8,6,-35,-24,-2
1,0,-33,1,13,0,8,-39,-37,-17
-7,-5,-75,2,5,8,11,-23,-37,-26
-7,-18,-1,1,5,8,-23,-17,-45,-30
2,-18,-75,-5,15,15,-44,-17,-41,-27
4,-19,-117,-10,13,12,-31,1,-31,-2
4,4,-23,-20,17,18,-30,4,-20,4
18,4,54,-10,17,30,-37,13,-12,-22
0,-21,49,-7,19,23,-28,26,-6,-11
-21,-4,38,-6,15,7,-20,13,-7,-11
-20,9,-11,0,12,18,4,-2,-18,-15
13,-10,-77,-15,-17,8,10,2,-13,13
79,-5,0,-25,-15,-4,-21,11,7,85
108,-8,6,-11,-13,0,-27,11,15,125
114,-12,-30,-13,0,-1,-28,1,24,134
73,0,35,-6,15,7,-36,4,15,120
23,4,65,16,23,29,-24,10,3,62
-22,-11,51,12,24,20,-13,21,0,14
-83,-21,26,-6,3,0,-23,14,39,-36
-101,-17,18,-12,2,7,-33,-7,48,-71
-46,2,0,2,2,7,-22,-4,53,-35
-2,19,11,19,-6,7,-28,5,27,11
10,19,42,31,8,17,-29,-4,11,17
3,20,38,30,21,10,-33,-18,6,2
7,33,43,35,41,11,-25,-8,28,-28
9,59,42,36,66,27,-3,-5,71,-30
12,40,14,40,46,14,11,-10,59,-8
-14,16,-13,40,12,1,23,-8,40,-15
-22,3,-11,49,20,7,23,-11,17,-2
-17,6,-8,47,11,10,1,-10,6,20
-6,6,-26,42,0,-14,0,-21,13,27
-15,-14,-59,23,-10,-2,33,-19,-10,1
-21,-19,-28,18,-7,10,34,-27,-36,-15
-23,-11,10,28,14,2,22,-30,-40,-15
-7,-7,18,23,9,-3,21,-13,-25,3
13,-11,14,21,-9,-11,-15,-17,-15,14
6,-14,24,12,-12,-11,-21,-12,-16,12
-1,0,13,7,1,12,-5,3,3,14
-12,-8,2,1,14,28,8,5,26,9
-18,-20,2,5,22,14,5,8,14,14
-15,-17,5,16,20,14,1,7,7,3
-8,-19,4,10,18,16,-6,4,-5,10
0,-12,-2,0,5,-5,-21,-11,-30,19
14,13,22,9,7,-14,-20,-10,-42,-8
25,24,33,16,20,-4,-25,-8,-33,-2
26,16,39,15,21,-3,-11,-20,-23,8
1,0,34,10,43,2,-2,-11,-12,6
-12,-8,31,8,34,7,-1,-3,12,1
7,4,27,5,17,-2,-10,-7,4,-15
17,16,31,0,13,-6,-21,-17,-21,-20
18,29,36,-5,6,3,-19,-14,-29,-19
22,34,30,0,7,0,-9,-7,-36,-45
18,25,23,-8,5,6,-4,2,-23,-38
-10,-14,30,5,23,25,7,5,-24,-27
-61,-43,24,9,26,20,36,7,-35,-25
-68,-29,19,11,11,12,52,15,-20,-18
-60,-35,-12,9,3,22,40,23,13,-17
-45,-33,-16,-2,4,22,27,15,12,-31
-23,-5,2,-8,20,10,52,28,48,-24
12,13,12,-24,18,-5,47,34,101,5
9,-3,2,-40,0,-17,2,8,64,11
4,8,-7,-28,-6,-20,-25,1,-5,15
0,11,7,-4,-10,-20,-9,2,-27,13
-6,19,19,5,-14,-3,5,1,-24,14
-23,22,18,1,-11,-20,-5,-11,-11,31
-17,19,-22,5,-9,-29,2,-24,-1,62
-6,6,-18,4,-15,-30,24,-33,-6,63
-18,1,-16,-4,-9,-23,55,-27,-10,33
-37,11,-4,0,12,-12,89,0,-25,-12
-9,39,5,7,16,-27,87,0,-44,-35
27,39,-2,9,8,-27,74,-6,-46,-38
28,17,-85,6,5,-21,69,14,14,-36
39,20,-47,12,0,-26,51,11,22,-12
70,20,11,-11,1,-38,19,5,-4,21
66,22,16,-3,1,-29,15,-12,-33,10
21,23,22,19,13,-16,7,-52,-120,-49
1,18,1,11,3,-21,-4,-65,-104,-76
-19,-4,-8,-13,-11,-20,2,-28,5,-86
-26,-11,5,-22,6,-4,26,-6,-18,-128
-13,-10,0,-17,18,8,44,6,-89,-129
-7,-16,-44,-12,37,0,34,0,-109,-90
-18,-48,-24,-20,13,1,26,48,8,-41
-42,-55,10,-31,-1,-2,47,162,250,48
-21,-10,28,-8,27,2,45,168,256,78
7,23,29,3,26,18,12,78,104,44
8,-6,14,-23,7,7,-5,27,58,33
26,-10,5,-47,-10,-11,-3,33,63,46
65,19,-12,-34,-15,-23,28,52,70,48
80,36,-23,-18,-17,-6,32,14,3,34
47,24,22,-18,-8,4,15,-22,-41,24
22,20,14,-19,-4,-1,-9,-31,-48,6
2,4,-84,-2,4,16,7,-26,-48,5
-18,3,-82,21,15,7,32,-26,-43,7
-34,3,8,15,11,-1,23,0,0,0
-38,-9,-2,-3,-16,-4,-5,55,103,16
-28,9,9,-6,-49,-36,-27,38,101,39
7,27,10,-17,-72,-69,-30,10,50,67
18,30,-6,-25,-88,-84,-40,-4,35,88
-4,21,-16,-23,-83,-72,-43,-20,-7,40
-35,13,-31,-20,-55,-53,-17,-17,-31,-42
-72,8,-11,-9,-26,-14,12,8,-30,-115
-76,8,8,-10,8,22,27,13,-26,-121
-55,7,6,-8,11,41,0,7,-37,-95
-30,10,6,-12,1,28,-13,21,-31,-61
-11,27,12,-19,6,0,-9,18,-26,-8
-7,28,18,-31,9,-10,-31,4,-24,13
-2,28,6,-26,4,-8,-58,-2,-13,14
26,46,6,-12,11,4,-53,1,-30,4
38,43,1,-11,7,-11,-57,2,-21,12
27,13,-27,-23,1,-16,-78,-24,-9,23
0,11,-24,-19,14,3,-53,-23,-34,-22
-23,9,-5,-2,30,49,-7,1,-54,-64
1,22,-3,5,37,46,-24,-6,-81,-39
36,17,-13,-7,13,16,-46,-42,-103,-21
29,7,-22,-9,1,-7,-36,-24,-73,-11
13,-10,-10,4,-2,-4,-24,-3,-83,-32
-3,0,-9,7,-3,-1,-23,5,-31,-44
-3,-4,-44,-4,-8,-9,-36,31,74,-19
10,6,-115,6,1,2,-35,20,76,-44
12,17,-103,11,8,20,-8,13,23,-29
21,16,-64,16,7,5,-19,3,0,6
43,16,28,10,9,-18,-41,-20,-29,0
53,2,36,4,-1,-29,-45,-36,-33,-4
46,-19,25,2,-1,-21,-30,-28,-18,0
44,-35,21,4,16,2,5,-7,-10,0
23,-28,23,6,26,25,16,-5,-12,5
-13,-8,36,23,20,26,32,13,-11,8
-15,-7,25,14,26,30,31,38,9,15
-8,-10,33,1,26,26,24,69,50,8
0,-6,35,-1,9,14,9,76,76,9
-10,-4,31,8,9,10,4,46,48,3
-32,0,29,17,7,19,3,12,30,0
-33,1,20,14,5,16,18,4,11,-16
-43,-3,9,19,-8,20,11,12,15,-19
-34,12,16,24,-20,4,-9,3,18,-6
-18,19,-13,23,-27,-4,-12,7,17,13
-14,16,-40,17,-27,-9,-12,9,0,10
-3,20,-5,9,-21,-21,-19,-5,-4,8
-2,32,7,-1,-3,-2,-12,-19,13,-13
-6,31,6,8,6,9,21,-10,15,-14
-17,20,-5,19,7,15,23,-10,-2,4
-22,21,-46,13,5,25,16,-8,-8,13
-23,27,-137,22,8,16,10,-10,-10,25
-19,20,-96,7,-9,13,9,-22,7,24
3,5,-40,0,-29,6,3,-19,21,19
-11,3,-55,-1,-16,12,-2,5,-7,-19
-21,-15,8,-10,-9,11,-23,-7,-13,-7
0,-20,12,-12,-16,-8,-21,-23,9,21
14,9,-10,1,-11,2,-28,-31,8,18
-1,18,-42,16,-1,-2,-18,-29,-10,-6
-31,11,25,16,-9,0,15,-19,-11,-13
-27,4,38,4,-23,10,11,-8,-6,-1
-21,0,27,0,-25,2,-5,3,7,6
-39,-10,27,0,-27,-7,-31,-20,7,-10
-50,-11,28,-9,-27,11,-19,-28,-16,-32
-28,19,41,-13,-27,7,-22,-27,-32,-32
-13,31,54,-13,-22,-7,-18,-15,-17,-2
-11,11,52,-1,1,-1,-2,-10,-16,-5
-3,-8,22,6,10,0,-3,-5,-14,5
5,-19,17,-13,5,2,1,11,22,7
13,-22,43,-28,-11,-3,4,-3,51,23
17,-10,42,-36,-23,-3,1,-21,14,35
31,19,45,-22,-6,-1,20,-23,7,20
45,16,34,-25,-11,0,29,-21,-11,27
43,8,14,-28,-21,-2,36,-26,-31,30
19,-2,2,-22,-22,-12,29,-40,-43,17
-6,-21,-6,-20,-21,-11,3,-33,-45,-9
2,-17,-3,-15,-16,-17,-2,-37,-44,-11
12,13,9,-11,0,-12,-3,-36,-56,0
19,19,11,-19,14,-16,-15,-36,-61,14
20,22,9,-19,15,-9,-28,-22,-48,-13
52,34,-25,-13,14,-10,-22,-27,-56,-28
63,9,-83,-2,11,-12,-15,-29,-57,-16
35,-42,-26,-3,2,-10,19,-24,-39,8
29,-58,6,13,1,-17,32,-50,-53,5
8,-47,23,50,21,-12,3,-55,-50,43
-22,-39,39,72,33,3,4,-29,-5,75
-46,-20,37,64,34,17,9,-12,25,58
-62,-36,-4,47,8,13,24,5,42,34
-63,-56,-20,26,-6,10,35,26,56,-10
-47,-46,-16,14,-12,-7,20,19,66,-32
10,-24,-13,14,-15,-11,11,15,88,-14
35,-31,-17,4,-4,21,14,19,70,-6
31,-53,-20,0,5,23,17,-3,52,32
-3,-45,-2,-9,10,14,20,-23,17,7
-28,-13,11,1,22,40,44,-13,-9,-53
-7,16,21,13,22,49,64,-10,-47,-58
37,46,29,11,25,40,55,-26,-47,-24
70,66,39,10,15,15,25,-23,-30,0
71,61,48,23,15,11,-9,-8,-33,13
37,13,39,20,29,24,8,-13,-52,0
-7,-31,15,9,11,20,43,30,-14,-7
-31,-45,-6,-9,4,14,72,76,67,4
-33,-37,-10,-27,-13,-9,26,82,84,16
-23,-16,-20,-33,-28,-19,-9,53,52,3
-6,-7,-45,-33,-24,-14,-18,29,19,5
-3,-16,-30,-30,-22,-24,-22,43,61,13
29,-12,-18,-18,-15,-12,-24,31,93,37
47,-7,-13,-14,-21,-15,2,16,87,74
32,-6,0,-10,-12,-17,0,12,73,99
-6,-11,5,1,-6,-9,-10,7,52,67
-25,-24,10,0,-5,-11,-9,-7,45,23
19,-18,3,-6,-17,-26,-8,-34,42,42
54,1,-6,-11,-10,-37,4,-48,-7,68
44,18,11,0,2,-45,7,-39,-18,64
24,29,11,6,-3,-44,14,-16,29,59
5,41,-14,3,6,-22,8,-23,21,50
2,40,-14,4,-1,-31,0,-55,-40,24
-31,21,-10,0,2,-8,18,-16,-38,-8
-42,26,25,2,10,23,48,12,-19,-16
-40,25,16,17,7,34,25,-1,-53,-22
-9,28,-83,1,-18,3,-17,-23,-59,25
-11,26,-81,-7,-26,-2,-14,0,-18,24
-63,29,11,15,2,5,22,14,0,-69
-84,24,-5,34,12,9,22,10,-32,-156
-90,13,24,15,-4,-2,-23,-3,-22,-145
-81,16,33,8,-11,-15,-36,-4,8,-100
-37,44,36,14,12,20,-9,0,28,-71
2,50,36,-3,-8,14,-14,-8,32,-36
27,42,29,-26,-22,-9,-53,-9,29,-17
31,39,-19,-30,-27,-23,-81,-33,-15,-8
41,24,-127,-26,-25,-22,-86,-64,-40,24
20,-10,-122,-19,-14,-7,-53,-58,-36,43
-13,-21,-21,-23,-5,0,-26,-38,-29,6
-35,2,-14,-11,-5,0,-21,-31,-43,-46
-32,10,-86,-9,3,6,-12,-22,-57,-71
2,12,7,-7,16,18,-4,-5,-6,-40
16,15,49,-7,27,24,21,46,78,-6
-14,-10,49,-9,30,29,41,67,64,-22
-28,-20,38,-13,37,30,25,27,1,-39
-16,3,30,-21,21,7,-12,-3,-23,-37
9,23,27,-27,7,-22,-56,22,23,-38
1,13,18,-17,0,-17,-70,49,43,-32
-20,0,26,13,12,-4,-62,-8,-68,-60
-25,10,23,24,11,21,-60,-102,-197,-80
-4,3,11,22,11,35,-62,-168,-290,-79
8,4,17,26,11,25,-48,-174,-310,-76
-7,11,16,22,-1,12,-25,-110,-202,-51
-40,-23,-22,-8,-44,-36,19,5,41,-19
-43,-58,-43,-25,-66,-60,13,86,208,6
-23,-55,-28,-20,-71,-47,32,212,383,36
5,-22,-12,-6,-34,-25,45,265,469,64
25,5,0,7,10,-7,31,153,280,41
44,12,7,13,14,-5,18,57,104,53
49,18,-20,10,0,-20,-5,0,55,59
32,2,-29,1,3,-23,-11,13,63,39
22,-13,-51,9,10,-5,3,27,58,11
35,-19,-94,20,8,7,-26,2,43,-9
45,-9,-15,24,14,-11,-37,10,68,7
25,4,-12,11,11,-6,-33,18,58,37
12,15,-54,3,-14,-6,-48,-15,18,37
9,20,-16,0,-20,-17,-63,-32,-20,-10
-9,6,17,3,-13,-8,-67,-42,-44,-101
-18,-2,22,-3,-21,-3,-62,-38,-53,-136
-26,-15,21,-25,-25,-1,-46,-6,-34,-103
-22,-15,21,-23,-19,-1,-16,0,-16,-49
-22,-15,11,-7,-9,-7,5,-15,-10,-27
-29,-19,4,-13,-2,-5,-5,-15,-12,-22
-19,-6,-2,-14,-20,-15,-10,1,-3,7
12,9,-27,-14,-33,-24,3,6,-2,49
39,13,-74,-14,-27,-16,-16,-1,3,71
37,6,-72,-19,-24,0,-22,-10,-1,81
13,-16,-101,-23,-21,6,-25,-27,14,90
14,13,-28,-13,-16,5,-29,-46,-24,70
18,20,-20,-8,-12,-7,-32,-62,-37,31
-1,12,4,-20,-9,1,-11,-57,-41,-12
-7,20,42,-12,15,19,22,-29,-49,-53
-9,25,60,0,20,19,24,-4,-54,-85
0,15,45,-3,-8,-2,-5,2,-71,-63
25,9,34,0,-33,-21,-18,-3,-48,-10
32,-3,37,1,-29,3,-2,14,-19,28
25,-26,27,0,-21,-3,16,37,-3,44
-4,-27,24,1,-15,2,21,34,-9,46
-5,-10,22,4,11,10,20,28,-22,30
9,4,29,6,16,14,8,18,-38,20
21,2,6,-13,-6,-5,-10,23,-6,42
2,-13,-91,-16,-9,-30,3,27,24,44
-14,-25,-102,19,9,-25,23,8,1,-19
-12,-8,-60,39,12,0,9,5,-22,-73
-9,1,35,42,7,-5,-8,2,-46,-67
-40,14,56,25,14,-2,-4,-2,-62,-65
-52,40,-16,7,6,2,-9,1,-65,-76
-40,49,-26,-3,20,4,-18,-1,-63,-70
0,54,-4,-7,26,-1,-20,-13,-67,-66
21,17,22,-8,23,4,-10,-8,-47,-45
38,-4,27,-9,28,22,9,10,-13,4
98,-2,29,-8,15,24,19,25,-1,63
87,-21,2,7,22,53,66,44,40,97
23,-67,-75,24,25,71,95,42,50,99
-3,-69,-20,29,18,46,69,23,45,51
-8,-40,20,24,10,21,47,1,22,-15
-43,-26,20,20,9,27,31,-5,9,-69
-65,-16,26,31,16,23,12,-4,2,-67
-34,-21,-26,39,26,27,25,12,23,-20
2,-14,-119,44,20,36,57,18,22,28
27,10,-112,58,31,23,51,7,15,36
36,-3,-24,47,18,13,35,0,14,41
35,-27,44,31,7,14,25,-17,24,60
39,-20,53,27,0,20,7,-21,13,51
39,-3,49,26,5,-2,-20,-40,-4,36
25,6,42,26,9,6,-51,-38,-5,40
-6,-20,40,17,14,17,-26,-2,15,52
-22,-32,34,9,17,24,5,14,32,46
0,-16,35,19,25,9,-17,-10,44,58
11,7,49,32,20,0,-33,-45,4,50
13,18,47,47,37,10,1,-59,-41,-1
34,26,55,47,29,4,-21,-73,-72,-25
68,38,55,27,1,-21,-60,-72,-74,1
63,27,48,5,-5,-8,-30,-54,-87,1
18,5,43,11,-1,16,-21,-63,-120,-34
-8,-17,23,-4,-16,5,-21,-53,-142,-24
-19,-33,0,-12,-17,-10,-22,-38,-109,-2
-28,-32,-4,5,-9,4,-23,-28,-64,6
-15,-5,6,12,0,-10,-32,-34,-26,18
6,28,25,14,1,-10,-33,-16,74,11
-10,28,29,12,-8,-4,-5,51,243,6
-30,48,38,23,7,4,6,62,193,-11
-43,39,32,26,19,21,5,29,79,-43
-52,9,6,14,6,25,5,31,83,-39
-35,-5,-43,8,-18,-12,9,69,134,-10
-1,12,-128,24,-10,-21,3,52,106,1
23,25,-61,12,-18,-38,-16,43,87,7
35,13,-6,-10,-15,-46,-23,35,46,7
65,9,-30,-20,-15,-40,-41,20,-3,7
80,6,-24,-35,-17,-54,-44,-1,-22,25
25,-15,-10,-36,-18,-26,34,21,-22,2
-16,-18,-80,-25,-14,21,84,68,28,25
-27,7,-99,-7,-4,11,54,63,43,39
-14,16,-67,0,-12,-18,-17,16,22,31
26,-14,53,-1,-39,-15,-25,10,14,68
5,-38,31,-12,-35,-2,-11,-3,-12,37
-24,-36,23,-18,-22,4,3,14,-12,29
-42,-29,5,-1,-7,1,10,30,25,21
-27,-30,-30,7,-1,1,16,19,24,9
-23,-7,10,8,15,27,33,14,0,-9
-16,3,43,16,21,29,29,19,-3,-24
-15,3,73,33,24,22,25,28,-12,-59
-17,3,60,36,15,29,14,-12,-67,-109
-2,4,49,20,9,25,14,-29,-78,-106
15,5,26,17,18,8,33,9,-39,-61
9,13,-43,15,32,6,28,22,-8,-19
0,19,7,27,30,12,17,8,0,-8
-23,15,24,17,17,-4,8,0,-3,-23
-31,14,-24,8,10,-6,9,7,-18,-43
-7,28,3,21,11,0,24,6,-24,-40
28,33,10,12,25,-13,21,-1,-9,-32
15,17,9,6,7,-14,6,-10,-36,-35
-8,20,20,8,12,-15,7,0,-29,-10
-19,18,-14,-8,6,0,22,34,-11,8
-14,11,-57,-14,11,12,11,40,-17,13
-20,-9,-4,-10,-16,8,4,30,-23,11
34,3,13,-13,-25,16,7,31,-14,27
78,-6,3,-20,-20,22,-3,47,-7,45
58,-20,0,-18,-12,22,-4,52,-19,55
51,-9,-20,-8,5,19,-2,27,-39,53
42,0,-59,0,12,23,3,24,-41,54
38,0,-15,-5,9,25,16,24,-29,37
44,-3,13,-11,3,12,1,12,-21,38
49,-4,-1,-3,16,12,-19,7,-11,70
59,-4,18,-17,28,10,-20,0,-15,88
60,-4,13,-31,27,-7,-18,0,-10,81
69,-2,11,-31,22,-6,-25,3,-22,55
50,0,18,-22,8,6,-23,5,-14,39
12,-11,17,-20,15,2,-22,12,12,9
-17,-13,9,-4,25,7,-14,14,37,-40
-29,-6,20,9,33,27,0,3,27,-43
-33,0,29,14,51,22,-4,-4,29,-42
-14,-7,42,17,46,14,-2,-12,48,-40
4,-17,26,2,31,9,-7,-6,38,-9
22,5,16,0,37,11,-16,-12,37,12
17,10,2,10,32,2,-18,-16,41,24
7,-15,-67,12,10,1,-24,-22,8,25
9,-13,-121,7,3,16,-16,-24,2,23
15,2,-49,3,-5,21,-9,-37,17,24
22,1,6,6,-4,13,-31,-50,-6,7
15,7,24,4,6,18,-39,-52,-25,-9
-5,7,23,-5,1,31,-34,-49,-26,-3
-1,11,8,-24,-18,39,-16,-53,-36,9
1,9,0,-25,-26,35,-6,-56,-59,11
-2,1,-1,-28,-26,16,-9,-50,-49,-1
-1,0,15,-12,-17,5,-1,-35,-6,-2
3,12,33,9,0,22,13,-9,45,-5
13,37,-5,21,-6,22,15,23,81,1
11,43,-90,25,-3,20,25,36,71,1
6,35,-20,22,-6,19,19,37,62,9
-3,24,33,8,-7,3,17,30,55,27
-3,22,59,10,0,9,3,18,34,13
16,25,43,12,10,20,-5,10,18,8
8,16,37,-1,2,0,-38,-8,-14,20
-11,0,26,-19,2,8,-16,26,24,3
0,5,11,-24,1,15,-9,27,53,18
-12,-12,-30,-18,-4,15,-17,24,59,56
-7,-22,-129,-16,-12,1,-49,-10,57,71
82,14,-60,-39,-35,-50,-114,-99,-14,95
150,44,20,-36,-43,-56,-121,-113,-69,86
45,30,42,12,0,-4,-21,-22,-48,-50
-64,11,50,31,32,38,52,24,-49,-166
-55,-6,38,-9,14,30,46,-1,-37,-127
-24,-17,1,-53,-9,2,14,-15,-29,-67
-42,-19,-2,-52,-8,-12,-2,-25,-31,-64
-95,-9,-9,-25,11,12,18,-30,-36,-77
-96,-6,-8,-4,35,32,37,-18,-27,-80
-76,8,24,3,31,20,43,0,-21,-32
-43,34,-70,13,22,19,28,-4,-22,-1
-36,39,-128,6,15,14,33,-19,1,2
-27,30,-66,-1,0,10,10,-52,-11,20
11,14,25,-16,-30,-21,-16,-68,-32,33
1,0,29,-24,-39,-13,39,12,28,5
-32,-13,42,-23,0,12,66,68,44,-72
-21,-19,10,-36,-4,7,56,69,56,-43
4,-20,-97,-43,-32,-25,40,45,47,16
4,-1,-89,-33,-35,-74,-11,-67,-66,5
-36,26,49,-11,-8,-57,-26,-154,-175,-75
-65,14,78,-15,-3,2,55,-102,-149,-96
-42,3,60,-2,4,34,97,-53,-112,-52
26,9,22,14,18,19,69,-32,-84,-15
37,31,12,45,44,29,63,22,-32,-25
-44,17,72,68,67,47,78,87,61,-44
-71,-4,62,54,52,53,61,112,111,-15
-24,0,65,54,43,50,19,52,24,25
-10,5,57,36,38,31,-13,-36,-84,7
-30,22,41,18,30,-1,-34,-112,-180,-56
-79,6,-23,-8,14,-19,-32,-68,-146,-104
-54,-6,-27,-32,0,-29,-24,-11,-68,-82
15,-13,-3,-52,-36,-39,-9,31,37,-5
20,-62,-28,-81,-66,-47,29,120,245,70
-2,-94,-54,-52,-33,-16,57,180,320,75
32,-42,-42,-25,-28,-16,33,127,230,55
79,0,20,-14,-17,-16,-8,59,109,13
82,-2,37,-11,-21,-21,-24,31,36,2
53,-7,31,-1,-15,-18,-22,11,14,3
32,-20,12,-10,-10,-12,-33,6,13,25
6,-53,-3,-17,-1,-12,-27,11,31,47
5,-50,6,-15,-6,-6,-25,0,24,51
44,-16,-9,-10,-14,-10,-41,-16,4,50
62,-3,-25,-25,-18,-23,-42,-15,17,56
26,-15,-40,-37,0,-15,-14,0,14,44
-24,0,-12,-27,9,-15,2,-4,4,-13
-50,-4,14,-18,15,-9,24,-2,-16,-30
-62,-22,5,-16,14,-8,35,13,6,12
-42,-16,-9,-22,-12,-41,-8,-20,-10,69
-16,-4,-37,-31,-27,-54,-43,-68,-33,120
19,13,-23,-46,-39,-58,-22,-86,-32,158
96,20,0,-55,-57,-79,-41,-110,-24,264
194,45,-37,-45,-71,-117,-95,-137,-11,341
277,57,-129,-40,-82,-144,-138,-160,-18,310
253,18,-141,-81,-89,-130,-126,-141,-8,269
187,-8,-33,-77,-71,-98,-75,-39,106,350
110,25,57,-13,-39,-71,-61,7,85,298
-46,43,78,21,-4,-5,-8,-15,-26,39
-100,31,69,16,3,67,50,-32,-105,-163
-91,20,62,25,-9,74,62,0,-78,-235
-126,-2,52,32,19,94,118,130,41,-243
-178,-2,60,50,50,84,105,129,13,-257
-204,0,69,84,73,56,36,73,-7,-211
-164,15,88,104,94,37,13,41,-5,-151
-111,27,75,86,72,29,16,19,-13,-145
-41,22,17,47,4,29,16,4,-12,-76
31,20,15,30,-10,16,0,-5,-18,-6
2,13,22,33,9,33,-11,45,-21,-32
-46,-20,8,27,22,54,1,81,-28,2
-22,-20,14,21,10,29,-29,46,-34,53
23,22,41,18,-9,-36,-79,-21,-51,33
30,48,35,20,-9,-39,-63,-36,-51,-92
-39,38,25,17,12,24,-2,-19,-80,-301
-181,-9,27,37,60,70,49,50,-44,-402
-228,-31,29,42,85,83,74,70,2,-394
-183,-21,-28,37,49,90,64,34,-44,-275
-166,-4,-69,65,54,86,41,36,-72,-181
-147,1,31,71,84,59,20,53,-51,-146
-94,-8,42,46,63,22,0,46,-22,-92
-27,-9,4,19,26,-1,-5,20,20,-44
68,-28,-30,-8,-5,1,-3,32,58,15
96,-18,-10,-5,-13,1,-14,36,38,45
71,21,21,11,-5,-12,-20,23,23,9
67,15,13,19,20,-4,6,13,-31,-39
64,2,-13,2,18,-5,15,10,-41,-30
113,22,-17,-5,-8,-24,-21,-18,-35,67
117,48,-21,-15,-14,-48,-44,-32,-26,116
118,37,-21,-24,-7,-44,-46,-23,-16,167
178,52,-4,-13,-10,-64,-47,-32,-12,244
179,57,-45,-10,-11,-48,-64,-46,-30,212
180,35,-90,-49,-55,-86,-89,-84,-7,185
207,36,-53,-87,-89,-134,-135,-117,41,269
137,8,-38,-39,-49,-78,-60,-40,59,272
116,-7,0,28,0,-37,-28,-49,-20,248
254,24,26,53,6,-58,-82,-131,-104,346
265,34,36,53,9,-42,-103,-105,-95,314
39,6,16,39,9,-24,-73,-40,-48,74
-44,-11,-55,18,1,-30,-69,20,48,25
-62,-42,-144,-12,-12,-5,-37,45,116,115
-143,-68,-82,-32,-35,44,62,87,197,175
-140,-47,-22,-30,-36,79,126,146,261,170
-122,-8,25,50,15,93,87,116,157,104
-27,31,64,67,22,43,21,16,48,138
0,58,97,82,17,35,-11,-35,-90,-35
-173,7,76,138,55,99,126,81,-82,-387
-245,-31,69,143,60,125,194,188,45,-440
-155,3,141,137,48,86,144,149,19,-342
-116,15,162,146,57,72,84,53,-91,-262
-132,-9,123,147,104,114,91,16,-142,-222
-110,9,92,42,61,69,8,-141,-295,-257
-82,29,1,-95,-40,-8,-59,-261,-418,-256
-128,10,-30,-69,12,45,42,-178,-373,-255
-158,-36,-6,3,57,66,94,-82,-186,-179
-82,-37,-32,-35,12,23,79,30,105,59
27,-18,-48,-87,-59,-48,4,122,344,270
51,-71,-100,-130,-114,-107,-60,190,499,376
65,-75,-107,-136,-116,-112,-78,166,487,396
21,-76,-100,-109,-89,-58,-21,154,363,180
48,-24,-106,-65,-46,2,47,117,165,-193
139,97,-8,-9,-10,-7,7,-6,-41,-403
26,98,48,53,49,32,35,23,-58,-544
-104,-6,34,43,77,58,102,101,6,-542
-131,-73,-1,5,38,32,109,106,24,-461
-69,-99,-34,-20,-1,-3,65,45,26,-252
18,-72,-38,-47,-24,-23,11,-14,-3,-77
96,-54,-55,-70,-53,-48,-12,-32,16,46
120,-62,-110,-104,-94,-70,-34,-19,59,171
174,-51,-103,-112,-118,-78,-76,-11,81,296
147,-33,-73,-85,-88,-62,-62,-17,83,300
64,-14,-34,-71,-70,-86,-49,-32,58,167
78,16,-11,-84,-94,-132,-92,-107,-19,48
287,82,30,-56,-87,-128,-120,-170,-97,166
542,90,16,-62,-91,-114,-103,-149,-69,381
778,70,-41,-96,-126,-133,-102,-105,38,813
805,77,-117,-97,-105,-119,-110,-102,100,1117
450,46,-49,-23,-1,-25,-41,-52,113,902
-28,-23,45,40,77,50,62,27,90,474
-254,-70,-6,-3,21,-17,-8,-32,60,207
-214,-41,-35,-58,-45,-101,-144,-178,-61,-27
-142,-18,-17,-68,-24,-82,-126,-179,-101,-82
-27,-21,-8,-62,-15,-54,-81,-95,-3,113
125,-12,12,-10,14,-16,-5,36,127,385
333,87,74,30,13,-42,-57,-8,111,564
304,124,85,17,13,-64,-73,-2,163,591
78,94,49,-2,11,-50,-59,20,142,523
-139,52,51,59,48,15,38,82,57,342
-229,14,124,137,102,106,132,111,-72,-40
-386,16,203,175,132,153,126,91,-149,-577
-325,53,181,152,94,90,66,74,-97,-760
19,98,39,95,50,14,-44,-4,-79,-492
117,74,8,24,69,76,-17,-20,-139,-384
-219,-38,-35,-14,97,197,179,137,-68,-645
-493,-79,-18,16,71,170,230,197,62,-692
-315,-3,25,33,4,37,83,48,59,-459
22,63,33,9,-78,-122,-170,-189,5,-185
228,47,29,20,-42,-105,-223,-231,-48,-165
250,15,39,53,67,64,-46,-64,-81,-185
198,-11,-9,-7,63,155,47,17,-124,-34
160,0,-73,-105,-25,79,-5,-60,-247,187
-141,-31,-50,-100,-8,76,34,-30,-258,83
-456,-113,-27,-46,35,90,64,84,-63,50
-257,-118,-19,-36,15,25,-16,150,184,298
117,-99,-12,-6,38,44,15,229,356,425
221,-92,16,20,89,106,101,214,256,157
105,-47,51,78,103,99,98,96,39,-390
-77,12,1,120,67,58,70,89,16,-561
-126,36,58,114,39,21,23,77,42,-323
0,54,143,155,70,20,-37,0,22,-2
205,41,104,146,75,-17,-138,-166,-114,286
117,-37,8,7,17,-27,-144,-156,-102,140
-188,-93,-56,-157,-72,-19,-69,-66,-80,-207
-318,-103,-52,-197,-80,23,17,46,-20,-126
-210,-112,-69,-124,0,92,91,178,130,272
-38,-38,-21,-40,55,125,101,141,86,478
79,46,104,46,51,138,95,71,40,340
-31,92,257,233,38,75,31,-20,-53,-316
-188,62,293,319,-24,-37,-82,-105,-120,-712
-251,7,291,326,-43,-80,-98,-22,74,-360
-211,-55,185,278,2,-60,-74,17,234,-69
97,-27,27,78,-2,-88,-149,-160,122,214
373,35,-143,-224,-116,-100,-134,-171,3,343
173,29,-240,-290,-29,102,110,153,72,-124
-100,30,-147,-146,154,246,237,268,15,-561
-273,5,-87,-52,194,223,185,191,-67,-636
-327,-15,-100,-8,157,178,140,137,-62,-601
-267,-67,-76,-1,99,142,118,106,-77,-502
-107,-81,-49,-24,46,85,52,32,-69,-269
18,-67,-39,-49,0,7,-6,-32,-43,-53
141,-22,-49,-49,-47,-51,-36,-59,-13,89
206,14,-99,-54,-58,-76,-97,-102,-78,88
201,-34,-182,-46,-35,-45,-99,-88,-116,68
188,-72,-154,-28,-39,-56,-81,-49,-16,251
173,-45,-85,10,-58,-76,-78,-42,82,573
94,-36,49,26,-46,-59,-54,-42,96,688
48,-36,63,-40,-73,-52,-58,-48,73,615
178,8,49,-92,-99,-70,-55,-23,116,671
384,16,-10,-111,-124,-87,-66,-23,189,791
402,16,2,-40,-83,-84,-83,-64,190,635
98,-1,74,86,21,-13,-4,-50,76,56
-231,-34,129,150,81,63,95,47,7,-501
-216,-5,138,131,37,29,71,32,-51,-555
-164,23,124,98,-9,-30,9,5,-47,-347
-69,-5,64,66,-7,-21,8,39,8,10
161,49,-25,20,-7,-52,-59,-54,-92,209
189,13,-60,-45,-44,-39,-16,-31,-131,172
237,-61,-89,-105,-105,-47,2,-20,-108,352
273,-56,-60,-112,-169,-149,-120,-142,-89,461
71,-27,-24,-65,-190,-215,-169,-165,-7,223
48,32,36,6,-118,-186,-154,-144,11,189
223,109,128,134,-31,-147,-136,-159,-32,377
155,82,162,253,68,6,37,-22,-48,246
-44,-23,153,259,97,107,190,87,-69,8
-202,-77,90,186,63,64,197,125,-67,-18
-253,-14,76,162,63,23,108,42,-149,-10
-330,-11,84,74,36,1,81,36,-112,-216
-400,-12,40,-67,-14,-9,113,100,-22,-532
-244,78,12,-142,26,22,116,97,-9,-580
-144,88,-3,-130,86,91,160,120,16,-496
-285,55,-34,-17,130,117,164,120,-29,-369
-386,-31,-43,22,124,133,180,184,28,-288
-476,-95,1,25,98,108,147,186,41,-358
-323,-67,-10,-19,1,-21,-4,-14,-102,-312
-93,-12,-16,-56,-63,-106,-99,-151,-106,9
65,3,-30,-66,-80,-117,-161,-193,-90,258
39,17,17,0,11,-11,-58,-92,-47,181
-120,48,81,75,93,112,91,103,86,-193
-228,77,110,114,112,145,135,175,113,-525
-124,76,-12,67,71,86,96,134,62,-438
12,20,-100,35,38,48,55,101,39,-88
93,-25,-108,14,9,28,44,86,64,359
133,-54,-105,-85,-95,-48,14,109,260,857
317,-21,-84,-182,-200,-177,-94,-9,328,1262
577,116,-7,-136,-202,-263,-243,-224,129,1361
445,174,21,-43,-116,-228,-250,-264,-11,832
71,61,-10,-6,-39,-132,-123,-104,74,336
-146,-64,17,-13,-32,-75,-47,38,227,117
-242,77,232,266,121,105,95,43,-301,-1156
-65,121,289,303,189,115,114,60,-310,-813
323,176,223,202,121,-3,-33,-57,-157,-24
525,172,88,-34,-13,-81,-130,-113,-83,250
175,-15,-141,-258,-81,-58,-38,28,-34,-185
-61,-126,-224,-248,-48,14,73,126,82,-220
-165,-62,-70,-84,38,51,79,77,111,-24
-189,-37,0,-22,9,-22,-39,-75,-1,167
-203,-17,15,-1,-8,-37,-62,-70,-76,-25
-223,-14,26,32,27,1,8,22,-86,-455
-163,-20,41,48,42,19,57,100,-44,-502
-36,5,22,3,-19,-30,-1,27,-122,-318
-19,-23,-15,-46,-46,-43,-16,-29,-162,-284
-302,-112,-24,-8,17,39,97,95,-49,-492
-311,-84,26,56,70,90,126,110,-45,-455
-156,-4,78,61,69,67,78,79,-50,-160
-147,60,114,51,67,38,38,51,-54,-22
-146,51,85,46,58,27,29,41,1,25
-98,42,-35,-5,-6,-32,9,42,242,193
-4,21,-101,-89,-116,-169,-108,-77,327,309
183,41,-102,-122,-158,-253,-251,-256,153,402
224,100,15,-69,-121,-210,-240,-294,-121,176
-84,19,74,29,13,-15,-34,-58,-184,-59
-262,-105,58,74,112,145,170,170,-111,67
-263,-127,46,80,138,190,253,288,1,50
-161,-106,45,56,87,118,152,209,-16,-83
-18,-2,33,24,38,4,14,51,-52,27
180,105,34,6,-1,-100,-150,-148,-191,59
217,54,43,-15,-19,-86,-146,-146,-173,80
81,-24,22,33,62,50,76,83,42,87
50,36,62,67,79,57,127,128,53,-51
41,86,49,26,19,-18,40,17,-76,-279
20,31,-1,-12,-5,-10,37,9,-114,-289
-111,-60,-50,-49,-29,15,83,143,58,-134
-176,-95,-100,-108,-89,-54,15,142,173,38
-95,-59,-151,-143,-134,-109,-44,38,207,277
115,51,-101,-110,-113,-118,-80,-96,138,383
405,139,5,-69,-76,-101,-99,-141,75,547
440,116,51,6,25,42,66,15,-8,512
279,42,30,6,40,78,111,77,-39,464
168,-18,-18,-41,-47,-32,-38,-72,-54,585
408,8,-83,-120,-177,-171,-220,-226,-51,750
783,33,-170,-264,-345,-346,-439,-418,-112,862
658,-26,-172,-244,-309,-284,-348,-265,-40,611
186,-39,-89,-107,-130,-103,-105,-2,26,-94
-383,24,52,60,50,60,104,192,43,-992
-495,67,198,192,155,129,168,233,54,-986
-576,5,227,252,215,200,243,255,85,-707
-668,-147,126,180,186,205,280,270,189,-470
-363,-49,104,146,149,106,141,75,48,-307
2,87,-8,41,37,-43,-97,-246,-264,-169
334,173,-56,-96,-108,-138,-251,-423,-505,-70
340,130,-87,-99,-108,-71,-144,-221,-329,101
166,0,-105,-70,-55,24,2,14,-114,102
45,-94,-102,-81,-39,35,43,73,-34,34
94,-48,-145,-77,-49,6,14,72,-37,-212
295,72,-186,-70,-67,-6,15,177,114,-66
548,156,-63,-31,-48,36,45,259,359,809
716,160,10,-57,-75,-32,-44,135,397,1454
625,129,12,-51,-87,-99,-134,-26,296,1274
-29,27,40,28,25,-16,-63,-10,162,98
-741,-135,36,94,125,106,60,24,-123,-1218
-726,-249,-62,38,65,93,51,-8,-295,-1311
-513,-229,-68,26,51,113,89,86,-237,-952
-256,-76,40,87,97,109,37,20,-326,-910
-4,92,139,95,85,37,-84,-158,-351,-561
-45,116,116,67,72,16,-77,-101,-167,-102
-247,5,41,51,73,30,-8,60,-15,-74
-290,-96,-46,-15,0,-29,5,233,317,-185
-273,-49,-14,-2,2,-13,42,330,490,-278
-334,-41,64,66,89,87,151,393,479,-276
-226,-56,40,40,82,56,110,305,430,-121
147,66,3,-27,-13,-114,-146,-7,198,143
553,242,-7,-89,-142,-336,-454,-363,-63,580
327,111,-20,-96,-118,-251,-280,-113,125,496
84,-59,-49,-97,-48,-86,-48,125,190,375
257,-9,-28,-123,-75,-83,-78,-20,102,653
163,-63,-87,-166,-124,-61,-93,-68,281,607
106,-133,-107,-139,-101,-16,-10,86,599,811
376,9,35,-20,-27,-8,-38,79,489,983
369,173,157,121,65,-13,-123,-97,-170,197
-120,-18,79,115,123,108,70,65,-420,-578
-343,-192,-27,68,140,235,300,336,-153,-533
-115,-110,-48,19,75,137,168,227,-84,-373
-31,-73,-113,-83,-16,54,42,91,-60,-233
148,-35,-128,-125,-69,13,1,52,7,265
213,17,-88,-87,-73,-28,-17,5,20,780
30,29,-7,-68,-91,-85,-38,-100,-16,961
7,72,6,-108,-160,-205,-184,-292,-145,732
-102,123,34,-22,-23,-97,-114,-219,-313,-458
141,220,109,47,57,-15,-32,-71,-337,-927
274,118,-59,-7,8,-18,-61,-38,-249,-440
210,-47,-150,43,-6,23,-17,77,65,226
316,68,66,215,-2,-75,-95,22,157,374
251,169,272,409,60,-123,-191,-110,103,-5
224,109,157,475,135,-46,-139,-152,3,-402
-40,19,146,438,274,216,169,59,-187,-833
-536,-92,101,277,373,458,531,432,-227,-1015
-430,-64,-37,-8,208,314,433,354,-159,-540
173,98,-136,-314,-111,-66,-26,-48,-103,351
469,158,-228,-497,-313,-275,-258,-178,59,1053
217,2,-270,-399,-214,-106,-45,129,332,1041
-22,-104,-298,-280,-88,31,81,294,455,724
-97,-78,-180,-144,0,60,59,165,184,376
-169,-1,7,23,96,141,162,198,51,-88
-224,161,216,145,185,200,214,117,-245,-871
-423,114,206,195,269,253,236,108,-298,-1013
-492,-116,21,59,145,144,128,80,-97,-443
-334,-301,-244,-172,-105,-52,-71,3,93,53
-134,-168,-159,-180,-132,-86,-119,-33,93,112
-250,5,19,-32,-2,8,-48,-32,-99,-364
-166,100,83,5,8,19,-24,-84,-227,-465
-56,72,31,-65,-82,-38,-88,-141,-242,-210
146,-27,-73,-135,-160,-118,-204,-252,-284,375
1301,103,-203,-358,-437,-477,-645,-726,-432,1754
1677,198,-226,-425,-574,-637,-828,-868,-405,1888
563,-45,-168,-197,-296,-242,-294,-294,-185,454
-545,-218,4,161,162,269,335,286,-265,-1137
-1122,-125,406,556,609,647,754,620,-381,-2400
-995,8,492,628,721,693,796,717,-87,-2485
-796,-11,268,364,490,509,608,650,312,-1367
-552,-50,68,109,206,250,330,465,387,-274
-29,158,141,84,73,17,9,108,168,258
256,192,126,43,-7,-73,-96,46,137,511
-26,35,11,8,4,38,105,281,258,227
-312,5,10,36,14,44,94,162,22,-315
-532,-56,-3,83,59,39,36,8,-189,-586
-456,-118,-61,104,80,42,49,-5,-93,-538
-241,-70,-50,125,78,27,0,-83,79,-168
49,62,-23,113,48,-10,-105,-239,91,323
124,140,41,82,-5,-46,-134,-298,-30,453
-48,33,60,17,46,60,26,-149,-211,121
-3,-62,-80,-61,59,136,132,-40,-341,-48
162,-113,-134,-127,-27,43,34,-93,-259,194
495,-95,-181,-255,-196,-123,-116,-164,-99,585
367,-143,-273,-357,-329,-260,-172,-14,149,646
-299,-316,-382,-370,-327,-263,-87,263,670,304
-264,51,25,116,128,169,265,387,158,-823
-20,138,113,114,122,161,244,309,8,-413
74,124,121,39,41,72,135,191,42,-84
37,31,28,-70,-65,-43,-15,64,68,-175
114,-6,-37,-147,-167,-172,-172,-72,54,-128
234,49,-51,-161,-223,-253,-305,-227,-93,138
327,84,-19,-145,-255,-317,-425,-382,-259,501
201,36,13,-59,-228,-304,-403,-353,-261,524
-2,-9,74,124,-57,-140,-207,-174,-202,271
-219,-25,125,261,157,86,72,57,-53,-45
-247,5,72,204,197,128,198,215,163,-287
-206,100,98,86,141,91,175,184,99,-631
-282,92,120,23,123,105,167,85,-80,-817
-337,47,104,-62,72,138,192,26,-199,-722
-163,53,3,-136,2,69,124,11,-119,-288
272,63,-103,-214,-126,-71,-24,-102,-97,278
465,18,-148,-279,-195,-137,-112,-178,-151,466
346,-11,-107,-199,-110,-71,-39,-125,-220,260
374,81,-8,-108,-33,-25,22,-96,-177,256
130,87,48,-53,26,18,35,-55,-134,114
0,22,59,-12,48,65,36,-7,-5,490
288,84,41,-69,-60,-81,-135,-117,230,1160
968,206,-45,-259,-338,-438,-557,-404,308,1164
718,81,-82,-238,-242,-241,-293,-134,39,73
-120,-272,-173,-195,-71,71,174,397,258,-558
-413,-346,-160,-149,-14,116,309,547,582,322
-314,-240,-119,-145,-81,-51,90,295,638,1289
-363,-184,-101,-171,-133,-168,-90,93,641,1323
-272,29,58,-45,-72,-172,-130,-31,388,424
-84,91,136,59,-6,-153,-152,-89,58,-644
198,118,191,136,72,-90,-163,-109,-124,-885
513,198,213,105,5,-221,-383,-301,-138,-215
456,145,110,18,3,-213,-368,-276,15,229
-62,-2,-12,-27,108,47,12,107,184,-243
-434,-149,-115,-43,155,245,314,296,32,-862
-270,-189,-73,42,97,242,330,72,-350,-435
-44,-111,79,114,20,169,195,-142,-510,248
-84,-56,95,71,-131,-83,-122,-270,-357,523
-194,-53,59,158,-71,-182,-247,-158,76,644
-59,-15,-12,179,21,-130,-205,-63,196,224
164,104,27,136,66,17,1,-20,-18,-207
-31,82,88,173,200,300,358,144,-162,-501
-409,-58,27,157,295,374,434,162,-336,-1268
-333,-90,-139,-87,212,305,338,103,-326,-1346
-208,-94,-249,-228,83,194,251,45,-230,-815
-236,-120,-231,-244,-81,6,50,-106,-295,-593
-267,24,-72,-255,-253,-199,-227,-354,-477,-694
-100,149,-32,-260,-339,-288,-298,-296,-284,-436
427,144,6,-226,-304,-231,-211,-122,63,267
493,56,7,-117,-81,3,4,57,215,471
198,14,69,5,114,160,174,172,211,327
-28,-31,114,107,234,190,203,130,236,419
361,2,-13,-68,36,-41,-64,-139,209,881
1006,111,-192,-272,-266,-326,-404,-414,111,1520
750,-36,-210,-206,-189,-153,-157,-91,334,1557
368,-165,-169,-103,-37,49,101,127,336,1107
-23,-105,-41,-25,49,119,168,121,105,277
-731,-45,163,153,204,201,248,171,-11,-627
-1138,-42,335,324,337,266,304,235,-65,-1447
-852,-80,308,337,272,203,255,236,15,-1696
-551,-161,130,191,95,113,192,223,291,-1093
-252,-178,48,148,41,80,168,155,378,-318
176,-160,-73,61,16,-1,28,0,286,522
439,-36,-253,-72,-94,-186,-247,-382,-225,772
26,2,-66,120,59,-48,-107,-289,-460,304
-325,-88,49,157,150,106,110,-3,-299,-225
-338,-55,37,-17,59,66,94,71,-23,-481
-559,-120,12,-37,117,155,239,265,205,-871
-555,-130,-56,32,205,252,323,301,89,-916
-275,29,4,63,200,218,211,92,-247,-695
-8,182,148,93,188,176,86,-114,-499,-513
185,216,82,83,125,100,-5,-228,-557,-241
295,144,-88,33,48,20,-32,-156,-291,253
430,87,-85,14,21,-6,-65,-149,-151,746
467,77,11,12,-19,-51,-123,-187,-111,831
699,181,54,-74,-188,-239,-347,-426,-271,748
770,130,-37,-230,-330,-339,-425,-454,-255,497
196,-78,-127,-223,-213,-144,-121,-56,75,-137
129,-63,-109,-165,-138,-72,19,143,325,488
681,125,-13,-92,-118,-125,-73,21,272,1429
196,64,83,62,52,54,110,72,99,944
-858,-268,-17,79,134,216,333,295,146,-521
-1030,-367,-108,-15,57,171,287,359,292,-1633
-649,-197,-77,-12,28,128,228,355,397,-1473
-204,-62,-95,11,4,61,110,247,309,-787
175,12,-12,43,-17,-25,-13,64,167,-67
150,36,116,164,14,-31,-55,-58,75,248
-229,35,269,316,57,-20,-37,-80,-27,215
-558,-68,267,284,53,-35,-64,-152,-265,-228
-617,-181,99,95,15,-24,-55,-83,-203,-589
-365,-164,-37,-45,-10,-15,-12,39,118,-239
-119,-73,-76,-110,2,4,-23,-5,60,-301
88,8,-118,-223,-64,-16,-81,-117,-148,-368
17,31,-60,-41,47,87,30,-17,-60,13
61,-9,-23,-9,41,69,27,-5,124,543
458,33,-103,-103,-153,-126,-150,-105,307,1264
1069,135,-163,-215,-381,-359,-376,-256,384,1868
1100,260,-60,-136,-341,-322,-397,-305,172,1629
640,309,111,93,-82,-106,-195,-223,-199,667
-55,246,184,275,139,124,88,3,-311,-576
-503,81,102,245,201,225,259,159,-135,-1077
-354,27,1,115,132,131,156,50,-31,-860
-183,7,-70,65,50,10,6,-79,-92,-665
-150,-169,-110,28,26,-3,39,15,114,-192
0,-279,-198,-133,-59,-68,-33,-32,246,420
-166,-347,-296,-314,-174,-107,-68,-57,272,436
-192,-261,-262,-307,-197,-97,-42,-20,246,190
166,-62,-131,-182,-132,-48,-18,1,113,208
288,164,16,-48,-45,-22,-35,-85,-193,159
73,270,86,29,25,-21,-48,-158,-397,-23
-249,124,175,187,162,77,116,24,-315,-363
-391,-131,105,279,235,159,273,177,-223,-806
-342,-188,31,259,192,109,193,112,-194,-774
-123,-81,20,210,93,-33,-5,-91,-156,-411
-57,-128,2,114,60,-5,5,-69,69,-165
-316,-201,76,97,128,225,291,246,194,-458
-263,-86,202,145,127,213,272,275,26,-523
-133,51,238,160,80,62,95,151,-17,-392
54,151,203,114,18,-81,-79,-8,-3,-155
304,183,155,93,33,-100,-168,-127,-30,73
356,115,50,-4,38,-33,-140,-55,52,230
254,48,-84,-181,-37,0,-105,-19,37,147
94,10,-152,-293,-121,5,-53,-17,44,126
-39,-76,-122,-233,-94,34,10,60,207,340
-72,-182,-238,-189,-109,11,-1,134,295,484
-175,-183,-147,-90,-67,-3,-40,71,125,203
-180,-55,-19,15,10,-20,-107,-63,-135,-105
-106,-31,-12,52,36,39,-21,-24,-136,-67
-154,-86,-79,56,71,134,116,72,-102,-76
-149,-103,-53,40,48,117,73,-8,-168,-115
-79,-68,-32,21,1,41,2,-76,-133,-121
-181,-26,-43,32,5,26,27,-36,-69,-294
-197,-13,-131,35,6,35,44,-21,-53,-269
-13,44,-164,22,-6,21,2,-47,-47,-127
214,123,-130,0,-51,-31,-70,-76,-63,46
204,122,-73,1,-52,-43,-63,-10,-11,44
222,101,1,-41,-112,-93,-101,-19,110,270
508,50,-97,-169,-269,-244,-290,-211,48,813
486,-34,-224,-223,-294,-292,-340,-335,-124,974
422,5,-89,-128,-194,-180,-220,-207,-85,1043
374,84,5,-50,-132,-132,-177,-122,-11,808
194,32,-50,-17,-59,-60,-79,0,139,488
202,94,29,74,38,-8,-59,-71,-39,277
-51,19,77,141,105,51,6,-56,-147,-147
-525,-112,28,162,166,126,114,101,-3,-638
-575,-32,131,176,179,109,83,101,-14,-852
-129,109,182,145,130,2,-85,-43,-80,-551
79,154,156,67,79,-28,-98,-40,-79,-337
-139,34,70,-17,23,47,77,159,54,-401
-280,-94,45,-28,23,95,158,322,206,-392
-194,-134,31,-10,57,91,172,362,321,-191
-234,-81,54,17,83,98,154,259,251,-234
-206,-31,41,-23,13,20,50,67,165,139
17,47,40,-68,-77,-93,-109,-143,107,817
71,-4,19,-59,-70,-114,-142,-218,35,1034
-36,-138,-18,-61,-59,-65,-37,-110,48,509
-125,-184,-41,-81,-65,-16,39,-9,34,-257
-57,-15,50,7,5,64,120,39,-14,-355
80,109,19,74,33,67,98,-3,-69,-174
182,78,43,110,67,18,4,-99,-129,130
177,-80,-40,8,-5,-27,-14,-49,49,396
263,-158,-150,-150,-212,-167,-143,-45,273,559
509,7,-28,-141,-299,-319,-366,-297,80,588
429,110,37,-23,-153,-228,-296,-341,-154,263
5,36,26,36,-6,-33,-28,-18,148,-20
-330,-47,74,122,126,93,153,209,354,-261
-270,-39,72,137,182,133,168,148,141,-131
54,34,-16,-55,58,72,96,49,-9,432
568,127,-118,-290,-218,-186,-135,-213,-190,927
699,166,-56,-189,-203,-188,-134,-289,-242,761
92,22,41,24,44,71,111,-110,-255,-416
-330,-29,79,89,124,166,219,-8,-283,-1128
-445,-26,122,144,212,219,287,102,-214,-1306
-603,-84,90,136,223,220,292,157,-171,-1573
-580,-28,94,124,186,185,223,108,-167,-1161
-260,50,109,104,112,72,65,-24,-111,-440
-11,-59,-2,1,10,-13,-38,-143,-175,-84
-97,-119,-65,-34,16,25,31,-91,-168,-66
-48,3,11,17,53,31,23,-119,-198,-119
-76,31,109,70,88,12,-47,-198,-305,-243
-88,-3,78,75,80,14,-7,-49,-143,-55
-51,-15,-31,54,30,-5,8,107,167,97
-175,-43,-58,-3,-21,-12,16,165,328,-53
-89,-36,-52,-102,-89,-73,-77,52,236,11
-113,-69,-59,-88,-36,-34,-62,1,88,55
-117,-47,37,-48,56,38,27,88,46,70
44,-42,-14,-79,-10,-54,-45,120,132,426
184,-105,-150,-78,-37,-106,-87,119,199,787
251,-85,-268,-122,-44,-98,-63,177,260,722
220,-8,-186,-143,-68,-29,50,261,396,317
280,127,26,13,33,48,97,189,331,216
377,244,118,68,23,-57,-81,-86,129,240
535,325,52,-28,-89,-239,-347,-391,-153,192
199,115,33,-87,-90,-128,-191,-217,-136,205
-365,-164,-18,-83,-30,68,114,186,83,-11
-498,-240,-48,-57,-7,118,168,241,108,-45
-600,-276,-28,12,61,165,201,298,215,-269
-398,-135,41,66,103,99,76,165,99,-508
-112,-40,30,56,64,36,-14,66,24,-172
94,-53,-36,0,-17,-2,-16,57,93,236
126,-25,-79,50,-55,-33,-41,-25,88,60
147,74,84,223,27,7,-43,-109,-97,-141
31,86,292,347,139,76,10,-131,-373,-209
-97,77,300,310,190,132,45,-132,-527,-429
-160,-19,111,137,153,119,100,-34,-349,-391
-132,-65,-99,-48,147,154,136,41,-108,-179
-162,-63,-333,-272,32,115,98,-3,8,-10
-107,17,-295,-355,-139,0,9,-58,68,315
30,106,-146,-241,-155,-55,-61,-60,104,404
427,249,-5,-140,-165,-175,-214,-200,105,413
599,259,82,-64,-127,-183,-244,-261,-18,272
158,56,15,-18,-24,10,39,37,45,-249
-282,-78,-54,21,71,180,268,222,94,-601
-359,-68,-4,61,109,172,206,131,-27,-512
-130,-14,44,80,98,85,83,14,-141,-217
-104,58,78,78,78,47,54,0,-113,42
17,153,54,51,27,11,15,0,-23,335
290,129,-68,-2,-36,-75,-76,-60,43,637
568,85,-126,-50,-111,-179,-161,-153,109,761
610,77,-42,-5,-84,-178,-163,-181,61,426
510,78,85,22,-8,-73,-58,-110,-36,255
379,96,147,13,-2,-3,-3,-70,-158,377
217,118,123,35,-67,-115,-144,-217,-255,435
230,96,-10,-1,-165,-244,-301,-350,-269,280
115,-72,-191,-40,-151,-185,-211,-227,-140,-232
-263,-207,-95,40,23,46,53,8,0,-426
-548,-156,105,120,175,149,130,28,42,-265
99,120,68,-31,-27,-137,-233,-341,-199,114
312,176,25,-111,-93,-155,-254,-313,-271,-8
-185,-54,-4,-23,64,126,167,217,63,-72
-56,-17,-8,17,64,124,180,227,151,435
-6,61,9,45,66,70,102,110,102,335
-280,-25,-43,63,96,127,176,181,169,-416
-425,-125,-34,52,96,130,176,152,67,-957
-324,-192,-101,6,25,32,35,-36,-129,-586
-82,-139,-156,-33,-23,-51,-72,-186,-207,-6
218,16,-57,-55,-65,-94,-96,-220,-133,377
232,95,41,2,13,22,76,28,205,549
-219,-29,72,80,128,164,216,206,339,109
-430,-133,39,59,129,146,173,153,209,-356
-155,-36,52,32,73,60,71,2,-47,-398
261,47,10,-29,-58,-91,-100,-143,-72,38
404,-24,-59,-57,-140,-158,-147,-76,223,414
384,-34,-1,46,-106,-129,-101,-36,239,711
268,0,55,141,-61,-132,-140,-129,84,754
-66,-86,55,158,-7,-125,-146,-146,1,153
-246,-89,107,171,36,-108,-150,-141,54,-211
-157,10,196,105,61,3,-33,-16,138,-208
-141,65,106,-47,96,162,159,144,19,-416
-152,98,-49,-158,44,172,221,170,-75,-577
-77,112,-66,-159,-61,35,55,-13,-57,-237
1202,361,-68,-242,-405,-460,-578,-597,-57,1572
612,76,-111,-173,-267,-242,-243,-176,232,1517
-351,-229,-65,-13,-70,-1,91,172,308,409
-812,-322,30,156,110,117,162,86,-181,-890
-532,-91,63,160,111,137,118,-63,-514,-974
-76,114,-8,68,-15,22,-24,-188,-549,-436
-60,-77,-256,-157,-175,-125,-141,-172,-231,11
-137,-143,-271,-263,-186,-114,-137,-150,-58,161
4,152,-27,-119,-18,26,-28,-91,-166,-310
-5,281,170,104,182,239,283,326,111,-477
-117,224,251,252,263,304,424,490,237,-550
-1,26,129,182,172,214,309,376,205,-585
60,-157,-38,-24,6,102,179,270,270,-399
278,6,-5,-40,-34,-10,-16,26,212,8
409,80,12,-16,-39,-89,-147,-165,72,498
-169,-79,4,16,69,58,27,-40,-65,26
-651,-187,41,96,243,269,259,143,-155,-480
-309,-57,75,79,163,176,138,30,-241,-420
46,49,129,140,69,68,41,-21,-201,-276
42,-31,106,153,4,-5,25,49,51,166
21,-49,113,159,-9,-65,-61,-1,158,402
-68,-95,79,184,62,3,-26,-11,100,79
-135,-78,29,102,52,60,44,8,-56,-350
-142,16,-40,-34,-9,32,28,-40,-144,-483
-188,-41,-105,-36,13,33,28,-44,-73,-339
83,-79,-196,-124,-54,-45,-44,-104,-6,155
593,23,-170,-246,-173,-165,-164,-234,37,1110
1001,121,-125,-273,-209,-220,-247,-328,111,1856
971,189,-66,-233,-187,-240,-321,-444,-46,1667
122,22,-4,-50,9,25,-5,-120,20,465
-688,-279,-89,-6,90,200,258,151,28,-1009
-477,-209,-128,-36,41,122,142,5,-108,-1072
-40,1,-132,-23,21,35,-10,-144,-318,-660
88,129,19,23,37,2,-88,-266,-559,-584
139,92,30,-68,-55,-86,-141,-224,-430,-266
11,-24,-60,-171,-143,-130,-109,-10,-56,206
-318,-60,19,-59,-7,-7,-22,18,-44,137
-323,-38,91,34,78,42,9,-17,13,40
-295,-46,111,88,135,102,165,224,424,-147
-177,-59,58,71,107,81,219,342,594,-429
-160,-31,51,92,106,78,211,349,464,-566
-221,64,83,173,146,93,192,295,288,-627
116,177,83,139,45,-27,3,85,152,-258
282,231,109,81,-44,-141,-158,-49,107,-62
119,127,114,16,-106,-140,-107,54,240,56
166,106,96,-54,-186,-221,-196,-38,282,598
358,195,54,-98,-235,-360,-412,-340,127,1029
586,228,44,-57,-160,-289,-355,-377,-77,1032
334,38,3,32,70,55,16,-21,-175,188
-118,-47,-83,-46,102,177,170,194,-146,-631
-129,45,-131,-180,-39,15,0,52,-154,-594
-194,10,-56,-54,50,82,86,129,86,79
-120,-86,-52,32,110,152,177,162,195,627
34,-149,-133,-22,15,32,11,-18,0,553
276,-96,-116,-56,-36,-57,-83,-102,-132,246
233,4,-76,-92,-25,-27,-119,-144,-146,39
-45,-57,-111,-64,27,77,56,47,0,-353
-256,1,20,146,110,77,54,39,-25,-557
-22,142,121,289,109,2,-64,-108,-207,-469
-87,88,136,235,139,67,58,1,-198,-419
-256,-92,33,24,35,35,96,86,-67,-15
98,-133,-66,-106,-89,-75,-16,-15,-21,640
205,-69,3,-81,-19,-30,26,9,91,882
49,-74,-39,-160,-20,-41,8,4,109,802
145,-86,-80,-157,-61,-100,-85,-58,5,443
-58,-57,-104,-109,-75,-138,-106,-41,-16,-535
-300,70,48,-12,-58,-111,-125,-69,-50,-769
-328,78,169,101,25,76,21,-39,-95,-284
-229,-36,82,57,-28,31,-25,-54,-42,-72
-151,-114,-32,-14,-67,-97,-126,-24,199,44
-186,-34,9,62,96,25,18,100,276,-11
20,117,33,-23,81,73,59,39,44,-82
355,268,-67,-172,-82,-38,-76,-107,-138,-22
133,211,35,1,13,53,8,8,-174,-344
-215,95,186,171,131,153,154,195,-67,-603
-477,10,166,240,191,153,153,217,-7,-459
-411,-76,43,190,168,130,121,166,3,-302
-144,-142,-86,93,102,163,175,150,-9,-303
-54,-180,-129,23,61,175,191,123,-18,-267
-179,-200,-127,-82,-16,88,80,-13,-125,-314
-16,-93,-51,-150,-123,-61,-103,-146,-166,-90
-23,0,-39,-71,-112,-106,-152,-121,-70,60
24,-21,-22,1,-44,-39,-74,-50,25,252
104,-76,-61,-6,-34,1,-31,-42,1,298
-48,-142,-75,-25,-31,14,7,27,90,184
-79,-94,-71,-70,-32,-14,5,21,111,159
142,52,-33,-93,-20,0,13,-13,22,125
160,76,58,-36,19,46,38,-35,-64,31
90,42,59,8,63,56,33,-49,-112,-4
19,13,19,10,31,44,39,-13,-98,-61
-67,49,62,92,21,30,43,-14,-98,-150
-25,32,103,93,-34,-20,-33,-68,-82,-47
188,71,97,75,-67,-65,-97,-148,-139,53
429,171,80,25,-77,-102,-147,-245,-172,242
379,173,-3,-115,-109,-134,-206,-327,-185,387
59,-8,-111,-225,-131,-105,-152,-241,-114,336
-243,-171,-84,-132,-32,8,-19,-39,-16,106
-294,-199,-71,-118,-51,-10,-33,73,92,21
-92,-166,-119,-180,-163,-89,-108,104,248,268
172,-51,-44,-98,-114,-76,-94,68,263,485
193,64,112,73,68,0,-19,44,252,383
23,21,121,85,117,31,21,47,238,-18
-151,-31,80,166,117,93,126,122,-49,-532
59,59,79,130,29,-8,8,-12,-108,-49
67,63,23,67,-7,-30,-42,-51,-122,157
-31,37,-14,9,-5,17,-8,-64,-201,-144
-16,-1,-130,-57,-49,-8,-45,-89,-206,-471
81,-47,-71,-23,-52,-21,-15,2,-4,-180
140,-14,24,52,-7,-6,15,47,114,160
100,34,22,0,-25,-55,-44,-34,60,266
-109,-13,-66,-83,-12,-26,-12,2,97,117
-312,-60,-72,-84,67,99,120,121,152,-154
-194,-9,-26,-48,73,105,98,52,53,-216
399,155,-28,-96,-88,-91,-135,-187,-69,175
426,139,-32,-54,-82,-87,-125,-185,-75,69
-114,-38,-32,45,55,50,53,-33,-40,-383
-189,-98,-41,76,69,20,27,-108,-167,-216
-203,-124,-66,94,66,7,31,-106,-212,-115
-204,-62,-75,52,95,65,131,-12,-216,-315
9,96,-42,-81,10,32,109,-22,-218,-385
129,143,-28,-146,-63,-31,-10,-67,-117,-279
170,100,-34,-90,-42,-38,-18,10,129,102
204,120,33,-32,-24,-43,-33,65,230,294
-11,-12,-23,-46,-45,-70,-16,50,237,304
-199,-38,-56,-53,-42,-56,-6,14,216,166
-41,110,35,0,-6,-34,-33,-71,-28,-215
8,130,88,55,34,19,-41,-91,-162,-278
13,98,40,30,9,36,-6,-13,-62,23
-19,-30,6,-23,-22,22,26,67,60,252
153,-67,-22,-56,-68,-16,0,35,84,623
227,-24,9,-15,-34,-4,-12,-36,35,765
32,-71,52,41,22,6,1,-77,-61,623
-205,-196,-46,-19,-16,-9,18,-4,54,523
-191,-233,-142,-133,-100,-38,35,110,280,478
24,-139,-115,-176,-163,-95,-15,89,296,200
153,13,5,-25,-25,17,44,78,167,30
-33,8,19,9,25,59,96,83,146,-260
-198,88,33,27,0,5,5,-42,44,-470
-72,123,-51,46,0,-11,-66,-109,2,-174
129,120,-45,20,-32,-46,-103,-126,-37,-47
-63,-20,-11,-11,-24,3,5,46,60,-306
-154,-72,19,44,59,88,161,211,166,-307
-98,-46,61,96,115,147,240,248,106,-102
178,58,63,64,64,76,90,73,-114,193
169,113,37,103,82,33,-8,-69,-240,206
-173,37,65,143,120,62,32,-44,-189,-286
-252,11,103,130,118,87,67,11,-104,-654
-166,-63,77,98,90,105,104,105,-12,-494
-11,-95,25,43,24,71,54,66,-24,-175
45,-121,-40,-33,-77,-21,-47,5,29,182
-84,-134,-58,-65,-106,-38,-63,20,119,152
-157,-79,-8,-15,-53,5,-76,-64,-47,-279
-73,-52,-5,29,-29,-6,-93,-125,-103,-383
135,24,0,76,12,15,-80,-106,-97,-236
56,142,88,145,108,101,1,-77,-236,-301
-69,141,86,102,65,89,26,-24,-173,-202
-26,86,69,81,29,41,-26,-121,-168,34
-32,21,75,51,29,37,-66,-211,-245,286
69,30,52,-49,-31,6,-77,-189,-217,516
215,40,0,-92,-73,4,-23,-40,-33,644
107,17,-33,-97,-136,-125,-83,161,333,48
75,-4,-4,-43,-94,-102,-37,141,332,-20
-12,-74,-37,-37,-70,-30,68,232,369,-34
62,-109,-113,-77,-95,-20,72,249,311,-171
325,13,-133,-77,-124,-90,-54,67,59,-360
314,152,10,-17,-106,-112,-117,-61,-72,-494
1,124,91,25,-54,-28,-28,-12,2,-175
-191,98,131,105,33,55,69,68,76,132
-240,28,95,116,88,85,113,129,118,41
-122,-18,2,0,-6,-5,14,40,69,-32
-43,-5,-10,-14,-16,-56,-55,-83,23,13
117,-49,-17,18,20,-34,-42,-75,87,328
273,-22,-52,-32,-39,-79,-66,-120,26,572
-157,-107,-139,3,7,52,99,118,100,-13
-141,-96,-85,1,-7,26,80,120,138,-154
-23,56,32,50,46,56,105,101,57,-358
-132,98,92,107,104,94,130,76,-45,-471
-168,67,83,92,80,52,55,1,-133,-359
22,26,-19,-16,-25,-42,-44,-52,-125,45
262,-23,-145,-146,-154,-149,-140,-97,-24,614
387,-26,-155,-162,-170,-171,-172,-193,-131,752
231,0,-46,-29,-36,-89,-99,-223,-245,552
245,54,-42,-14,-38,-95,-124,-243,-204,439
-60,23,-84,4,0,2,28,-12,66,6
-254,12,-79,125,116,124,227,239,229,-282
-95,24,2,177,95,75,145,112,2,-243
50,49,103,214,32,-8,-14,-89,-223,-213
201,50,131,236,17,-89,-113,-205,-242,115
175,40,91,170,6,-111,-132,-150,-57,512
147,38,-24,53,11,-62,-65,-51,-8,453
-62,3,15,3,54,25,13,-22,-82,-70
-147,-33,56,-90,27,64,78,4,-71,-580
333,49,-93,-288,-164,-93,-71,-37,66,-140
536,56,-138,-333,-275,-200,-148,-6,244,536
177,-98,-177,-254,-213,-109,-31,82,291,680
-132,-127,-91,-84,-93,1,57,66,124,344
-289,-30,80,73,-2,5,34,-4,-61,-551
-314,-26,88,100,32,32,85,137,60,-1006
-238,-41,-11,87,49,71,113,193,127,-667
-161,-47,-20,25,67,88,76,88,0,-259
7,-23,-82,-125,-22,31,24,-4,-38,195
-37,-86,-107,-126,-42,9,23,-34,21,415
-110,-180,-61,-31,18,34,45,2,125,353
-53,-101,-6,28,35,11,17,-16,114,38
-211,-14,80,126,133,119,161,109,75,-495
-351,-22,102,144,186,195,287,221,37,-543
-233,-12,78,89,111,121,197,127,-85,-304
-64,-49,-11,-35,-31,-22,-7,-32,-117,-70
55,-70,-49,-90,-132,-163,-213,-216,-209,-62
193,48,52,29,-125,-237,-342,-363,-322,-104
0,89,162,208,18,-72,-156,-203,-286,-214
-298,26,161,275,157,139,132,90,-66,-183
-121,16,66,181,139,101,72,37,26,162
95,-22,-112,-87,-46,-32,-41,14,265,331
84,-19,-185,-275,-185,-86,-53,42,343,206
-71,-33,-127,-193,-149,-67,-40,4,118,35
-59,-50,-39,-20,-39,-40,-44,3,108,313
237,31,-17,59,11,-65,-86,-58,170,886
683,181,-34,41,-3,-120,-173,-235,-89,968
397,135,-9,64,44,-9,-32,-93,-210,47
-164,-8,40,152,150,163,214,221,-58,-716
-170,-17,113,115,107,123,164,188,-41,-752
32,-22,68,-2,-10,-7,22,59,-58,-541
64,-104,-57,-41,-13,-6,16,81,42,-36
-120,-110,-99,-10,63,40,30,93,82,164
-183,-2,-66,32,98,40,12,18,-21,26
-117,85,16,31,43,-3,-26,-67,-129,-63
-94,152,22,-8,-33,-58,-100,-166,-253,-251
-157,123,1,-22,-53,-75,-105,-143,-207,-354
-317,-13,-21,-18,-56,-64,-56,-14,-32,-426
-158,-24,0,25,-80,-124,-102,-39,6,-320
234,60,68,115,-98,-174,-158,-138,-52,-100
273,99,109,187,-49,-63,1,-63,-7,-37
21,43,124,248,66,66,162,67,67,49
-247,-69,90,221,163,102,166,66,67,248
-256,-57,30,68,144,70,115,17,61,477
337,65,-76,-178,-4,-66,-113,-121,77,622
310,-49,-150,-266,-79,-80,-66,18,252,606
95,-113,-111,-211,-29,12,73,127,168,223
-54,-59,-22,-63,47,87,149,186,139,-187
27,10,47,83,93,81,143,151,119,76
126,100,77,174,113,31,64,32,21,375
67,162,115,194,115,5,-4,-70,-107,107
50,110,87,117,62,-13,-7,-93,-125,-149
-9,-39,-103,-92,-50,-46,-23,-57,-3,-99
25,-57,-304,-316,-157,-102,-122,-129,-38,69
281,-7,-278,-324,-119,-34,-57,-37,11,210
420,-24,-300,-213,-54,50,73,216,266,245
279,-52,-210,-72,12,51,84,231,318,56
141,34,-66,14,26,-11,-29,45,204,0
94,116,-25,-37,-48,-94,-146,-120,-71,69
-16,96,6,9,29,4,-28,-65,-230,-82
-246,-9,145,122,170,171,165,70,-276,-410
-252,-56,212,181,219,226,221,125,-256,-518
-206,4,195,64,129,128,125,50,-277,-506
-255,-34,106,-82,-13,25,26,22,-164,-369
-170,-29,49,-71,-33,-14,-29,8,-45,-143
-91,47,67,-19,-32,-59,-91,-33,51,-24
-59,25,58,-11,-41,-66,-101,-60,132,172
161,75,81,-2,-65,-110,-161,-170,39,594
756,184,51,-87,-208,-280,-305,-285,75,1353
990,220,-1,-162,-304,-359,-357,-307,86,1519
435,5,-113,-216,-265,-249,-203,-165,43,717
-284,-209,-133,-184,-100,-40,50,85,85,-141
-509,-177,-20,-46,92,139,186,161,-32,-543
-320,10,127,86,167,181,169,107,-199,-780
-77,88,136,74,94,84,61,78,-85,-641
63,95,120,43,37,13,-25,31,11,-467
-23,1,73,14,27,21,3,43,52,-152
-49,45,79,32,27,28,17,24,58,218
162,246,152,84,15,-36,-96,-149,-49,505
16,230,164,117,47,-11,-40,-84,39,341
-203,50,92,99,29,33,64,117,199,-120
-263,-31,80,129,29,46,112,169,210,-485
-237,26,124,124,18,15,59,65,144,-376
-57,101,87,11,-106,-160,-157,-189,-72,-109
28,31,-52,-81,-119,-147,-171,-173,-175,-124
-153,-109,-192,-193,-80,0,14,74,-60,-322
-148,-69,-153,-177,-42,29,64,99,-42,-404
-140,52,19,53,109,85,107,75,-28,-266
-68,42,-49,29,86,82,107,62,-13,32
110,-60,-129,-62,32,93,106,69,-21,218
103,-118,-62,6,78,104,64,-16,-138,236
245,3,-30,-5,-1,-31,-127,-232,-271,503
376,137,-25,-29,-59,-102,-244,-378,-334,836
129,26,-59,-50,-41,-39,-157,-328,-395,582
120,-54,-91,-111,-69,-65,-147,-306,-381,254
-114,-131,-80,-63,2,12,19,-47,-26,-276
-361,-146,-25,29,69,96,142,102,-55,-901
-171,-159,-68,15,27,57,60,50,-184,-636
240,-85,-86,19,17,32,47,199,205,191
365,54,20,78,35,27,57,379,623,765
163,-19,6,81,47,48,83,329,632,941
-103,-149,-45,9,19,59,117,294,609,523
-477,-128,-14,-21,-14,19,65,113,181,-790
-430,-62,50,-21,-7,4,19,12,-127,-1195
-268,-25,86,14,33,30,5,-4,-163,-441
-21,-22,-2,-73,-77,-50,-56,-13,3,648
35,-51,4,-54,-49,-5,6,48,173,1075
2,-83,49,53,88,122,143,162,266,843
-57,-101,23,38,71,103,97,151,271,45
1,0,76,66,46,41,2,49,192,-347
303,139,128,115,30,-36,-116,-97,118,76
55,52,81,146,43,-49,-127,-85,174,82
-250,-46,48,175,108,11,-42,-22,43,-421
-265,-59,83,231,196,123,70,20,-277,-1003
-405,-90,121,287,261,224,207,110,-392,-1208
-389,-52,80,177,144,109,94,9,-379,-895
-306,-10,-56,36,-1,-7,-21,-54,-242,-424
-207,20,-95,12,-31,-25,-10,2,-49,29
-70,-21,-55,-39,-56,-59,-44,19,141,426
229,3,-102,-189,-137,-145,-145,-66,173,492
133,34,-92,-162,-79,-80,-41,-19,89,-139
-67,19,3,-62,13,41,119,76,20,-528
61,96,94,-67,10,28,69,-4,-124,-302
210,147,70,-84,-3,-3,31,-95,-222,110
225,150,38,-79,-25,-17,-15,-173,-256,376
261,63,-26,-108,-85,-54,-61,-199,-181,660
388,37,-43,-123,-115,-73,-71,-170,-109,899
382,50,-26,-79,-79,-30,3,-70,-91,603
43,-67,-104,-69,-29,0,82,82,-77,-430
-252,-115,-120,-14,41,80,176,138,-37,-864
-321,-71,0,40,82,77,143,48,-130,-650
-98,62,90,70,74,31,42,-20,-79,-285
-26,133,158,102,73,1,32,84,192,-110
-283,-3,81,59,72,8,86,244,413,-115
-238,-19,40,-2,17,-114,-72,125,257,-53
11,65,81,39,11,-209,-252,-73,12,104
141,62,96,57,37,-183,-251,-133,-18,204
177,59,44,6,-34,-157,-218,-210,-105,158
-92,9,18,22,-3,35,74,-98,-199,-191
-327,-30,90,123,99,239,341,130,-131,-461
-233,-89,39,91,35,224,311,140,-91,-314
-135,-126,2,77,21,127,198,111,7,-123
69,-38,31,75,25,-13,-8,11,-10,19
162,15,25,14,10,-42,-76,-19,-38,72
273,45,-103,-225,-138,8,-8,-24,-87,70
390,123,-74,-185,-151,-43,-86,-86,-84,297
408,105,-67,-147,-138,-71,-139,-85,31,544
413,108,-23,-109,-117,-70,-146,-93,75,702
304,130,19,-46,-67,-22,-106,-107,-28,469
-61,21,0,-11,-7,67,7,13,4,186
7,93,-1,-54,-81,-61,-133,-124,-13,182
-22,96,-29,-69,-114,-121,-204,-238,-139,-114
-334,-65,-38,2,-5,48,14,-16,-89,-547
-320,-137,-57,20,33,101,85,63,-57,-453
-165,-174,-107,7,1,59,21,-1,-46,-128
-32,-156,-130,-36,-63,-26,-60,-78,-16,127
174,-35,-68,0,-68,-34,-50,-51,67,297
34,-45,-13,73,38,73,66,49,67,16
-98,-85,1,76,91,126,117,65,4,-296
-98,-49,-4,78,89,104,120,64,31,-229
-268,-59,35,104,84,70,115,56,70,-146
-327,-67,38,106,38,17,0,-24,-15,-104
-225,-120,-30,55,9,8,-39,0,23,23
-147,-165,-66,6,-13,20,-5,60,122,182
-85,-142,-32,14,-24,31,0,52,107,221
0,-63,24,68,-7,34,-14,8,52,101
8,-2,70,103,12,32,-28,-57,-47,-1
14,54,99,153,32,29,-34,-104,-135,-42
103,82,42,105,40,22,-37,-109,-114,101
45,15,-123,-61,3,34,-6,-31,8,215
174,19,-232,-172,-123,-68,-102,-95,28,316
354,46,-285,-153,-194,-175,-191,-175,97,652
271,42,-174,-110,-176,-149,-146,-116,199,737
166,48,-70,-122,-178,-140,-148,-139,141,604
134,127,-72,-108,-137,-142,-158,-190,-10,429
0,157,21,-54,-35,-23,-41,-76,-115,-266
-37,102,8,-75,-35,36,66,87,-109,-678
-91,-2,-3,22,20,94,141,160,-54,-433
-210,-128,27,79,45,96,140,149,-14,-279
-96,-162,47,114,29,30,43,29,-151,-334
10,-37,148,241,124,65,-9,-88,-320,-454
-25,76,196,296,223,124,35,-74,-264,-428
121,98,158,150,175,114,84,25,0,18
138,14,-66,-162,-19,22,63,127,282,354
-101,-71,-196,-283,-97,-8,56,168,443,217
-427,-98,-117,-110,-7,50,73,199,337,-303
-290,-5,27,0,18,41,11,128,98,-475
-11,57,62,10,-13,-29,-72,-11,-82,-324
135,91,80,8,-24,-66,-125,-99,-180,-170
200,110,85,14,11,-28,-91,-87,-175,-70
167,94,41,29,55,15,-28,-76,-151,-130
125,107,107,34,31,-22,-77,-119,-127,-104
49,48,133,37,35,-10,-73,-121,-131,-42
-168,-91,84,29,54,29,4,-37,-23,71
-115,-161,23,-33,3,0,17,39,169,361
149,-102,-9,-117,-91,-79,-38,44,234,593
226,-69,-32,-142,-111,-69,-7,115,226,557
168,-87,-68,-150,-107,-19,65,189,234,508
140,-33,-30,-128,-100,-49,11,66,86,481
8,22,32,-67,-37,-36,-30,-13,23,336
-244,-43,-40,-42,23,63,76,157,211,106
-275,-88,-29,-31,25,119,144,261,232,-156
-45,-31,15,-29,-19,61,55,128,21,-216
80,101,85,15,-23,-23,-87,-76,-204,-319
-100,110,98,66,19,-44,-105,-93,-200,-392
-265,16,40,87,93,42,16,73,26,-214
-153,26,26,56,85,68,73,137,131,-76
19,99,50,107,80,38,10,32,0,-168
190,68,-31,101,28,-43,-105,-90,-114,-172
218,7,5,100,3,-47,-120,-141,-177,-86
-81,-87,88,111,47,52,32,22,-60,-201
-317,-146,56,4,16,80,118,168,130,-230
-288,-99,-49,-87,-21,55,70,86,72,-159
-142,-43,-55,-84,-25,29,7,-21,-62,-29
-34,6,3,-38,-1,46,26,-14,-88,117
-52,31,13,7,18,59,52,-4,-74,209
117,24,1,13,2,27,40,-48,-14,545
369,9,-40,-41,-59,-60,-43,-131,-21,623
202,-29,-114,-86,-115,-104,-82,-75,36,477
-47,-123,-143,-127,-141,-89,-41,129,268,381
-123,-103,-107,-117,-103,-36,21,170,217,4
-53,4,-43,-63,-55,-23,0,55,25,-274
33,102,33,9,-22,-20,-27,-14,-8,-168
405,226,1,13,-60,-136,-204,-273,-44,599
460,83,-32,-64,-109,-121,-144,-155,133,656
194,-45,-34,-37,-37,-21,-12,-19,110,311
-133,-51,-6,19,32,21,54,-23,-95,-279
-481,-36,-5,106,135,131,147,33,-224,-1123
-460,-67,18,72,105,135,161,89,-144,-1052
-108,-52,24,53,78,113,169,118,-3,-362
-27,3,14,142,158,158,219,88,-51,-332
-98,55,50,125,128,93,118,-10,-126,-599
-195,35,77,75,64,31,21,-45,-95,-636
-162,15,27,1,11,-17,4,-18,-21,-360
-121,30,-70,-50,-19,-28,0,14,19,-138
-2,41,-191,-75,-63,-58,-55,-51,-53,-62
348,57,-144,-61,-121,-157,-166,-198,-151,251
741,88,-1,-46,-195,-258,-256,-313,-186,658
876,111,56,-42,-201,-281,-246,-335,-149,739
515,128,91,13,-84,-149,-116,-201,3,477
-121,5,88,147,159,100,147,92,231,103
-639,-181,28,155,299,241,308,225,218,-190
-441,-166,0,-8,132,110,148,52,60,-99
-96,-74,55,-34,-37,-67,-79,-118,-46,-1
-111,-33,182,89,-15,-21,-13,5,20,-86
-272,-45,285,135,29,54,100,84,5,-272
-239,-56,256,92,48,61,107,17,-108,-298
-77,-19,100,2,77,78,121,11,-136,-220
8,16,-81,-185,-15,47,110,72,-7,4
72,28,-115,-185,-93,-24,11,50,59,206
27,37,-31,-59,-63,-51,-63,38,118,440
55,105,9,-23,-83,-109,-133,-31,97,652
148,127,0,-77,-117,-152,-196,-133,34,624
273,135,-17,-146,-162,-191,-228,-200,-56,360
154,92,-15,-120,-69,-68,-53,-13,57,-15
10,16,6,-51,70,123,197,219,156,48
174,6,-29,-42,42,70,135,117,46,408
178,10,-55,-54,-12,-23,30,5,39,494
-55,0,-32,-58,-31,-41,22,28,107,93
-164,-45,-14,-27,12,16,98,105,85,-474
-25,-93,-22,-21,33,60,151,174,136,-362
111,-65,-30,-67,-26,-51,29,56,121,-199
97,20,6,-45,-40,-95,-57,-34,-19,-201
40,74,41,5,13,-27,-30,-9,-143,-174
123,98,24,-2,9,-16,-34,-23,-180,-39
288,97,18,-59,-47,-94,-108,-79,-110,241
234,12,-38,-89,-54,-105,-143,-120,-78,-8
-83,-46,-101,-42,-6,-5,-4,20,82,-463
-183,-64,-141,30,50,61,79,133,204,-218
228,55,-25,12,-10,-71,-95,-91,-2,322
469,156,82,-38,-108,-176,-183,-246,-116,572
-170,-10,102,56,8,-3,61,13,50,171
-548,-94,136,155,104,67,122,64,-40,-318
-568,-33,212,278,139,7,8,-50,-183,-710
-322,18,205,309,143,-17,-84,-115,-181,-365
81,44,68,191,88,-18,-99,-99,-98,277
458,90,-80,19,-15,-25,-81,-102,-42,573
388,-28,-140,-132,-46,-4,-38,-79,-32,480
26,-137,-97,-144,30,87,69,33,28,-95
-212,-81,-23,-45,108,166,192,203,78,-708
-188,-3,60,48,170,226,271,266,11,-666
-255,-8,85,100,197,215,217,113,-247,-566
-84,21,1,-3,33,15,-40,-208,-573,-370
218,99,-18,-99,-100,-163,-186,-316,-551,92
289,121,-26,-129,-140,-211,-211,-268,-343,437
84,78,-8,-72,-76,-131,-122,-120,-41,402
-101,16,3,-36,-7,-26,42,178,471,124
-14,-14,1,-6,26,44,128,364,720,-256
101,-86,-5,21,77,108,176,377,676,-84
220,-91,-56,-49,4,23,30,110,320,230
109,-85,-83,-77,-67,-57,-109,-100,60,273
-371,-153,-50,18,49,83,53,59,33,-219
-512,-130,-28,72,97,157,157,174,56,-471
-527,-159,-13,72,103,163,181,194,74,-379
-279,-167,-34,16,43,74,90,160,138,-31
240,-23,-29,-54,-77,-95,-113,-9,178,479
408,40,-7,-61,-104,-132,-180,-88,92,682
57,-19,38,39,20,13,8,29,30,285
-380,-93,57,129,151,156,204,198,49,-426
-420,-63,54,115,147,115,161,149,-8,-656
-184,20,57,98,107,56,97,72,-29,-384
-85,67,93,168,114,55,70,0,-160,-342
-9,103,105,176,82,19,-26,-81,-239,-195
17,93,92,122,35,-14,-51,-52,-123,78
51,32,-1,57,0,-34,-76,-68,-29,274
231,25,-65,-69,-111,-105,-173,-172,-67,448
194,9,-121,-192,-180,-76,-130,-133,-89,380
193,22,-161,-226,-205,-63,-61,-45,-64,228
455,101,-105,-170,-188,-114,-107,-92,-46,466
707,193,-49,-132,-200,-183,-204,-196,-21,801
695,167,-74,-140,-206,-207,-208,-225,-7,692
212,49,-84,-108,-160,-151,-121,-145,80,470
72,-10,-134,-150,-221,-237,-278,-338,-77,885
441,-36,-199,-208,-310,-316,-404,-489,-221,1536
486,-118,-214,-191,-226,-177,-180,-236,-57,1299
342,-126,-202,-149,-159,-65,-25,-32,24,264
-237,-108,-31,50,80,192,260,279,172,-1000
-903,33,237,317,360,405,459,427,169,-2009
-896,172,267,309,276,212,200,104,-79,-1758
-647,146,141,167,89,-5,-29,-91,-154,-952
-535,10,48,151,12,-39,8,37,75,-408
-321,6,45,196,8,-25,46,86,154,-118
-102,-5,47,178,16,-48,-7,35,156,145
359,134,98,102,-10,-151,-157,-148,51,360
844,251,35,-46,-19,-117,-163,-210,-194,382
569,40,-207,-205,-3,75,73,-10,-210,407
58,-133,-305,-181,-10,119,127,38,-227,86
-259,-231,-183,-68,1,64,76,50,-47,-87
-98,-212,-102,-25,-17,1,40,75,112,-184
92,-27,-65,-23,-28,0,72,163,167,-607
-103,72,-13,93,103,145,186,240,56,-864
-544,45,43,152,195,214,212,199,-103,-1008
-483,19,96,104,158,119,104,64,-185,-637
-244,25,76,71,116,90,73,46,-106,-185
-154,-44,53,55,93,113,111,104,19,95
-36,-147,-44,10,42,66,62,79,72,355
110,-168,-96,-9,15,5,-40,20,64,418
77,-94,-40,29,42,0,-63,0,72,271
55,-62,1,17,9,-10,-60,6,153,415
-188,-97,15,15,17,48,-17,73,189,150
-485,-70,89,65,69,115,57,89,66,-381
-299,10,104,56,45,54,7,-35,-101,-293
155,103,-11,4,-44,-108,-179,-205,-233,38
123,36,-85,3,-27,-41,-61,-7,-126,-4
111,-9,-20,-36,-38,7,53,132,18,69
187,6,5,-59,-75,-49,-20,19,-12,185
122,0,-4,-70,-81,-86,-94,-91,-56,223
-27,-4,1,-47,-55,-83,-118,-163,-134,93
22,2,-44,-23,-67,-99,-137,-140,-151,-88
110,19,3,-9,-60,-80,-104,-58,-91,-192
-126,-14,93,75,56,55,16,41,-23,-254
-141,-15,105,105,102,91,56,73,26,-114
41,35,89,52,61,62,40,95,65,-14
-2,65,84,1,22,71,55,116,68,-79
-64,88,51,-34,-49,-4,1,21,-28,-131
-58,7,-20,-76,-113,-73,-60,-58,-71,39
-3,-46,-57,-85,-107,-71,-59,-65,-11,272
212,5,-26,-51,-68,-53,-65,-116,-63,383
392,23,-80,-19,-39,-35,-39,-109,-56,477
136,-6,-130,12,7,16,57,15,53,173
-51,-3,-43,43,10,-7,43,26,45,-114
-47,-9,-4,64,7,-37,-17,16,67,-27
42,-22,-2,97,41,6,-16,33,34,0
143,0,43,101,28,-2,-39,0,-13,144
97,-17,92,61,8,-25,-31,12,14,212
-26,-46,38,-25,10,11,13,58,81,220
-146,-2,-5,-50,27,29,9,25,8,46
-29,67,-7,-30,66,47,16,24,-66,-27
68,13,21,-52,56,61,69,53,-65,-10
-30,-92,-40,-79,33,44,89,60,-22,-101
-177,-140,-31,-62,13,-18,21,-33,-39,-228
-120,-56,13,-26,24,-30,-33,-48,-63,-330
-66,37,86,42,77,10,-31,-2,-45,-356
-66,33,89,63,82,-3,-49,47,82,-261
34,16,-21,1,-3,-64,-99,43,178,18
45,0,-65,-42,-76,-57,-68,66,200,162
-110,-60,-149,-33,-74,0,-13,48,151,48
72,-22,-76,-46,-97,-33,-43,-67,-11,64
320,8,-17,-1,-47,-14,-29,-61,-63,251
619,85,63,0,-53,-65,-112,-107,-48,607
561,38,1,-128,-180,-173,-176,-104,46,809
356,-9,-31,-153,-220,-204,-159,-66,120,725
16,59,167,95,-34,-119,-83,-65,-38,-5
-514,-48,284,321,159,26,59,47,-31,-568
-497,-67,221,257,159,64,79,97,90,-499
-192,-23,56,68,35,-7,-63,-6,64,-48
-188,-89,35,75,139,140,46,44,-30,-19
-172,-83,-34,-2,165,208,112,93,-157,-284
-175,-48,-146,-116,49,144,81,110,-163,-454
-80,2,-100,-7,13,80,61,81,-101,-497
171,137,74,75,-11,-5,-49,-82,-137,-224
268,237,149,-3,-106,-134,-195,-275,-237,220
372,239,102,-75,-168,-205,-265,-304,-232,430
299,217,35,-89,-141,-157,-185,-205,-178,221
183,206,82,7,3,12,25,57,91,101
130,151,170,162,164,176,210,303,230,-96
164,14,63,92,125,141,167,293,174,-242
10,-149,-117,-80,13,86,101,177,52,-408
-48,-209,-191,-132,-42,63,103,111,27,-270
-67,-258,-178,-135,-56,42,70,10,8,-12
-77,-186,-100,-107,-61,-10,-50,-173,-163,108
-84,-114,-41,-75,-45,-33,-82,-216,-203,249
-166,-99,-39,-36,4,37,48,-19,15,276
-201,-79,-24,-9,21,52,84,61,66,160
-107,-33,-48,25,52,81,122,175,123,95
51,13,-49,48,59,95,145,259,240,-63
94,80,61,25,5,5,43,147,220,-335
-16,70,38,-6,-29,-50,-30,23,115,-346
-13,30,4,-19,-39,-73,-69,-54,-2,-129
-31,13,17,-13,-18,-40,-30,-21,-65,-233
-111,-20,-10,-18,5,12,31,32,-71,-273
37,-7,-28,-51,-24,3,0,34,-11,9
301,29,-13,-41,-29,0,-4,62,96,245
322,36,41,6,16,34,27,59,123,382
5,-19,46,24,13,45,26,64,140,483
-187,-54,-13,-31,-58,-39,-86,-30,130,528
-72,-36,-47,-77,-121,-122,-177,-117,49,318
-149,-37,14,27,-2,16,15,85,44,-405
-185,-35,50,110,95,130,165,193,26,-681
-205,25,25,122,130,146,154,120,-71,-694
-208,89,-8,102,122,109,58,12,-185,-562
24,173,38,33,57,-9,-77,-99,-174,-48
375,256,29,-27,-23,-123,-170,-174,-75,480
582,244,24,-66,-95,-180,-224,-231,-40,835
329,121,9,-84,-136,-165,-197,-177,34,958
-227,48,-7,-99,-160,-180,-196,-168,69,580
-214,70,19,-148,-201,-219,-263,-249,29,509
-207,-97,-23,-124,-72,-22,8,41,261,367
-280,-265,-87,-83,46,129,196,192,250,-260
-12,-176,-79,-67,11,59,72,-34,-230,-739
283,-30,-29,0,22,23,12,-167,-534,-595
392,-10,18,110,104,41,39,-164,-474,-110
364,-14,53,147,99,11,46,-121,-229,261
323,60,129,153,65,-38,-48,-202,-191,303
343,141,175,60,-49,-172,-216,-301,-136,207
24,92,137,-45,-40,-130,-109,-54,228,-107
-724,-71,71,11,143,128,182,246,360,-695
-1021,-120,29,49,195,239,328,344,286,-776
-705,-24,3,12,102,142,243,262,175,-598
-306,-21,-34,-24,29,80,194,337,211,-450
-136,-99,-44,-30,10,64,175,425,410,-138
-88,-37,22,21,37,56,135,279,351,51
-139,-7,21,41,50,62,154,180,257,92
-136,-8,-21,9,31,36,131,128,173,47
-23,27,-62,-13,-3,-14,41,1,-12,123
309,94,-126,-18,-54,-96,-100,-174,-145,496
605,57,-80,-58,-114,-140,-139,-174,-70,815
639,-37,-122,-74,-120,-113,-85,-42,68,784
335,-6,-30,-5,-28,-35,-46,-13,-25,146
-28,36,44,-42,-28,-7,-34,-3,-71,-285
-341,-34,-17,-113,-77,-29,-40,12,-39,-355
-465,-100,-28,-65,-64,-21,-30,9,22,-273
59,-6,10,-49,-131,-92,-141,-151,-66,121
167,21,36,19,-45,-43,-119,-150,-162,-31
89,40,0,15,22,42,-29,-65,-199,-192
60,117,48,59,55,91,23,-9,-220,-241
1,95,86,113,107,118,69,45,-108,-146
27,11,20,27,69,102,97,129,120,212
188,45,-26,-25,2,38,48,59,134,452
130,86,-35,0,-15,-17,-14,-69,104,497
192,125,-20,-39,-83,-85,-102,-172,94,477
579,230,-37,-141,-226,-223,-297,-345,-85,448
160,222,49,-51,-125,-90,-137,-148,-226,-444
-221,215,156,109,21,51,47,36,-255,-786
-255,164,229,232,81,65,39,0,-211,-506
-164,22,190,192,39,24,16,-17,-124,-398
-111,-232,45,85,-4,23,42,28,-60,-250
-190,-360,-76,32,34,77,70,41,-40,-165
-239,-224,-143,-43,90,93,61,18,50,38
-214,-167,-309,-204,1,49,42,67,251,449
37,-146,-272,-212,-48,49,82,114,297,736
376,-84,-112,-94,-34,-18,-18,-87,1,621
223,-68,-37,33,18,-18,-53,-142,-204,165
57,-71,-23,49,63,24,11,-14,-84,86
81,-9,-5,-12,4,-11,3,30,7,51
-23,16,23,-55,-10,-17,23,74,43,-321
-101,7,18,-63,-14,-20,34,111,127,-347
-204,-6,0,-63,-30,-84,-63,13,98,-316
-346,-37,17,-10,11,-38,-48,-85,-44,-320
-279,25,66,83,70,52,42,-122,-117,-261
-172,-22,54,130,89,78,62,-62,-15,-55
-163,-108,52,168,144,109,128,59,-8,-160
-165,-73,102,200,179,140,169,106,-66,-419
-141,-64,112,162,129,112,154,77,-88,-397
66,-52,47,31,14,1,33,-31,-80,-12
283,39,-32,-82,-59,-81,-77,-121,-99,377
281,99,-100,-153,-97,-94,-99,-139,-117,428
344,162,-53,-84,-58,-84,-84,-120,-85,325
393,125,-28,-33,-21,-47,-33,4,95,210
152,35,-21,-44,-19,1,29,96,183,-126
-27,26,-14,-13,14,31,55,44,90,-336
200,164,-50,-13,-22,-25,-18,-86,16,-61
344,198,0,-73,-104,-119,-102,-151,42,210
331,151,-4,-121,-146,-166,-139,-163,48,229
191,66,29,-47,-54,-49,10,-29,19,127
-16,-55,28,22,36,84,149,100,33,179
-88,-123,-49,11,15,51,66,24,39,173
-3,-100,-164,-17,-67,-94,-128,-157,41,175
-286,-107,-71,123,30,7,-20,-22,76,-85
-489,-102,88,258,162,144,150,156,42,-326
1,29,114,230,121,90,96,125,9,-35
202,-58,42,166,88,79,100,157,137,201
79,-150,-58,5,14,36,75,122,170,254
-80,-118,-88,-183,-83,-20,13,6,43,285
-469,-73,-72,-147,-8,27,55,-56,-150,-138
-632,-34,-42,-54,58,26,28,-168,-406,-725
-447,81,-14,-35,16,-17,-22,-233,-514,-766
-239,139,48,-1,13,1,-9,-152,-379,-469
-8,73,58,28,31,42,45,-2,-132,-188
125,-9,16,34,23,44,73,145,164,186
34,-146,-6,23,33,40,68,220,345,443
28,-152,-61,-65,-3,16,30,257,498,492
118,12,-57,-124,-67,-37,-49,126,380,472
130,174,-9,-100,-110,-132,-164,-84,61,213
148,239,-1,-76,-133,-168,-222,-195,-38,-6
302,158,-65,-115,-128,-123,-149,-109,139,296
476,54,-110,-144,-114,-49,-10,0,188,453
593,82,-44,-122,-90,-52,-33,-98,-49,272
368,34,104,39,58,25,10,-98,-149,112
-317,-209,89,131,178,166,202,112,-31,-214
-674,-249,65,168,214,227,315,273,74,-651
-583,-90,115,179,190,186,277,253,58,-753
-285,-2,72,100,88,83,155,146,5,-333
77,37,-8,4,0,9,60,57,-4,268
247,50,-2,-1,-18,-23,-5,0,-46,453
287,-4,-22,-12,-26,-41,-42,-28,-30,303
197,-67,-62,-48,-49,-23,-15,-6,21,-89
-66,-181,-61,0,23,55,87,97,54,-340
-177,-217,-23,43,69,58,82,68,-40,-279
-173,-102,12,38,61,0,18,-25,-138,-146
-210,-50,31,46,47,-5,24,-12,-122,-75
-50,-28,11,38,10,-25,-7,-25,-106,8
51,14,-46,47,1,-47,-44,-48,-78,2
16,17,-5,60,29,-19,0,12,81,-9
-32,11,64,66,59,43,70,111,150,-16
10,17,27,7,-3,18,12,62,75,54
94,79,-6,-59,-72,-55,-104,-66,23,168
284,103,-73,-131,-163,-168,-247,-188,-36,264
389,52,-95,-161,-203,-194,-264,-232,-59,286
261,4,-47,-94,-132,-95,-128,-120,-31,188
262,28,-8,-2,-26,-21,-24,-36,-45,159
226,-67,-71,26,39,48,70,72,35,224
314,-106,-66,-40,-25,-36,-68,-60,-10,427
441,-16,-177,-147,-164,-228,-343,-319,-119,809
132,-44,-174,-90,-83,-142,-184,-163,-21,662
-281,-80,43,108,158,124,133,93,-69,-309
-557,-100,159,286,341,309,321,209,-229,-1274
-551,-43,192,314,350,307,324,206,-262,-1248
-353,11,134,125,117,94,132,125,-122,-762
-132,49,94,-64,-71,-46,-8,76,66,-275
10,92,96,-70,-47,-24,-24,24,33,-77
125,87,42,-49,-23,-12,-48,39,61,155
74,48,18,-53,-57,-59,-86,-2,90,313
136,12,-42,-99,-134,-141,-180,-154,-40,350
221,3,-42,-91,-138,-128,-168,-122,6,446
89,-31,7,-5,-82,-37,-18,78,226,388
-29,3,-26,30,-87,-56,1,129,325,284
-99,9,10,28,-82,-85,-6,139,458,428
41,-25,42,7,-101,-164,-117,-37,322,747
-106,-96,-12,-18,-25,-77,-63,-102,61,625
-252,-83,-64,-58,21,26,37,-30,-110,-6
54,99,-28,-58,-51,-68,-82,-102,-196,-333
287,255,81,86,25,-61,-98,-170,-344,-288
-77,-46,126,70,79,143,237,203,-44,-343
-154,-119,104,96,40,83,152,151,82,-101
-129,-77,109,223,21,-37,-30,-45,-5,-170
-291,-17,184,365,177,31,-22,-85,-208,-721
-570,-31,182,263,208,160,148,86,-196,-929
-390,-60,70,-2,85,129,171,133,-67,-460
74,-5,-133,-231,20,61,99,94,47,53
444,91,-292,-378,-84,-34,-33,-39,55,412
527,129,-241,-329,-105,-83,-137,-179,-14,576
281,18,-89,-128,-9,-23,-92,-109,9,300
84,-50,45,-22,10,8,-34,-65,-69,-100
-123,-72,65,-43,15,41,37,-66,-188,-392
-383,-77,55,-9,92,141,215,121,-42,-445
-582,-58,33,33,123,208,306,263,54,-528
-396,-6,20,-4,53,150,210,195,12,-320
-152,-3,-9,-41,-4,73,92,66,-71,-24
197,45,-23,-71,-76,-46,-65,-124,-182,290
828,104,-125,-228,-271,-233,-277,-245,-111,684
1049,57,-243,-363,-407,-330,-349,-226,11,853
558,-36,-239,-338,-346,-192,-100,90,332,758
-128,-51,-83,-114,-147,-133,-119,20,119,-63
-372,4,-49,-26,-92,-144,-196,-125,-160,-803
-367,74,82,94,25,-39,-85,-52,-187,-915
-192,105,136,196,166,71,57,62,-52,-394
-200,68,106,198,236,115,98,128,94,-64
-165,100,110,185,238,151,163,192,175,-161
-68,159,188,163,178,137,155,154,188,-122
-216,31,178,128,158,134,153,126,221,87
-75,-87,64,46,80,58,47,40,155,480
-97,-156,-14,2,0,13,5,-17,-19,256
-297,-121,37,31,40,57,48,-14,-183,-287
-285,-15,72,59,70,79,69,20,-185,-365
-101,73,6,40,39,36,46,-45,-194,-302
131,70,-11,-21,-31,-50,-45,-187,-230,-32
186,3,-48,-81,-103,-141,-192,-357,-308,188
194,18,-15,-50,-82,-112,-221,-347,-294,186
208,24,-20,-29,-43,-30,-82,-56,-48,73
22,-50,-67,0,23,57,91,218,230,-64
-175,-131,-26,34,88,134,183,333,382,-131
-135,-119,-59,17,43,59,119,239,265,-138
-170,-113,-71,38,64,70,119,203,202,-128
-115,-34,17,95,122,127,128,202,168,-46
169,100,121,99,81,57,10,82,93,35
393,168,123,10,-18,-69,-179,-87,9,213
435,163,30,-99,-119,-153,-280,-140,39,445
316,179,33,-83,-122,-149,-265,-135,46,405
206,121,53,-32,-60,-92,-205,-128,-14,300
82,-12,5,-34,-59,-70,-169,-162,-128,264
-248,-133,-63,-51,-51,1,-41,-28,-111,4
-581,-123,-53,-18,22,112,114,181,-38,-493
-599,-95,-65,22,54,134,126,242,5,-649
-205,-42,-158,3,19,80,36,138,-37,-434
107,-26,-177,28,18,66,14,117,20,-204
-87,-108,4,288,101,89,74,85,59,31
-257,-125,73,285,100,37,-16,0,64,242
44,-24,52,154,-21,-103,-218,-175,25,520
245,35,-90,-63,-79,-106,-219,-180,-27,405
195,18,-314,-374,-193,-57,-92,-45,-50,54
6,31,-171,-309,-144,14,-6,12,-132,-404
-63,45,23,-59,22,117,84,73,-111,-442
80,71,31,6,29,89,65,74,4,74
34,52,33,14,21,67,29,14,8,379
0,46,37,26,12,58,3,-60,-129,422
232,60,-15,-26,-54,-12,-95,-191,-314,319
507,6,-96,-105,-140,-114,-241,-356,-428,287
367,-113,-137,-148,-158,-115,-207,-270,-248,361
88,-68,-49,-77,-109,-105,-159,-176,-84,320
-182,-15,15,-2,-49,-52,-73,5,217,110
-343,-12,36,52,30,74,152,341,608,-272
-128,31,56,60,46,49,145,326,472,-505
82,70,125,102,85,73,119,183,126,-358
-143,4,141,155,164,183,223,209,2,-438
-202,-62,66,85,109,156,180,207,39,-102
-18,-80,12,25,35,69,50,117,88,306
-208,-168,-61,1,29,55,21,83,77,43
-163,-142,-117,-60,-27,-15,-64,-5,0,-84
-8,-25,-47,-85,-76,-93,-157,-102,-100,-66
-55,105,34,-37,-35,-49,-94,-52,-48,-313
131,311,162,61,19,-12,-29,-56,-84,-402
266,304,183,108,71,20,28,-42,-128,-458
124,121,103,96,88,84,135,88,-24,-471
2,35,45,91,79,102,163,111,9,-333
-86,-5,68,92,62,89,131,69,34,-106
-86,-78,23,45,9,22,40,-6,55,83
-121,-169,-91,9,-18,-10,-2,-72,11,173
-124,-189,-73,-2,-17,27,67,16,23,130
21,-158,-81,-60,-50,23,104,90,91,138
166,-98,-67,-109,-115,-39,3,9,132,296
274,-5,-21,-88,-137,-93,-128,-117,30,328
235,-39,-17,-39,-108,-106,-153,-162,37,409
125,-24,41,22,-69,-85,-121,-157,-15,300
132,92,107,81,-21,-73,-126,-180,-173,138
191,96,8,33,-41,-92,-151,-168,-148,238
56,-14,-24,4,14,16,1,15,1,187
39,-83,-60,-107,2,44,76,85,59,194
162,-28,-89,-143,-63,-26,-14,5,11,301
54,27,16,-13,9,-5,-12,-49,-81,180
-249,33,113,111,119,74,42,-76,-271,-385
-282,36,129,116,83,63,-1,-101,-349,-607
-176,24,85,47,-5,25,-10,12,-113,-324
31,46,64,27,-38,-10,-45,17,-81,-112
131,-10,24,12,-49,-18,-31,117,6,-8
-4,-85,20,32,10,41,50,213,106,-98
-245,-67,58,115,115,104,126,207,151,-224
-299,-25,56,130,141,90,94,144,157,-176
1,91,47,28,49,-19,-28,-18,80,-22
202,114,-57,-48,-52,-56,-39,-80,-53,38
312,26,-135,-102,-103,-71,-35,-86,-141,436
401,18,-108,-140,-146,-124,-115,-150,-96,941
446,114,-42,-114,-140,-153,-165,-189,4,1162
293,90,3,-61,-74,-105,-100,-109,106,765
-128,-35,39,23,25,23,81,145,299,-328
-175,-11,66,77,9,-6,74,223,450,-709
10,-22,10,47,-51,-96,-40,64,386,-312
28,-132,-53,65,-5,-51,-18,-10,227,56
133,-116,-36,87,58,-4,14,-22,136,307
213,28,58,150,135,36,52,-31,42,181
77,68,128,156,136,30,37,-27,62,-5
-134,-28,-71,31,23,-29,-16,-94,17,-99
-518,-95,-100,38,6,18,46,-46,-51,-282
-727,-104,18,122,63,82,130,57,-29,-573
-511,-62,54,99,81,78,138,114,93,-474
-150,8,19,-55,25,30,88,50,44,-257
94,57,4,-157,-29,-4,28,-97,-182,-298
-36,6,-9,-129,30,47,120,-8,-115,-403
-324,-59,-104,-90,107,119,192,82,-33,-477
-372,-113,-101,-42,142,171,212,57,-74,-396
-52,-22,-66,-36,79,145,137,-6,-78,-111
202,87,-50,-64,-9,37,-20,-90,-87,86
172,59,-56,-70,-50,-24,-69,-114,-116,85
202,112,-4,-42,-56,-63,-95,-174,-196,11
252,149,70,18,-59,-112,-155,-251,-224,142
120,-11,41,27,-33,-75,-53,-94,36,388
107,-48,40,52,-1,-41,-10,-16,133,350
361,2,14,28,-15,-85,-73,-56,139,305
507,10,-56,-72,-33,-109,-91,-113,104,428
155,20,-55,-114,-28,-84,-62,-90,78,332
-495,-17,96,51,94,36,34,6,68,-8
-645,-66,179,119,154,123,119,88,104,-178
-313,-42,65,-15,46,51,83,53,121,-6
-58,-35,-46,-110,-22,-17,30,-5,76,62
-106,-26,-113,-135,-11,40,87,104,74,-142
-34,-7,-94,-83,9,47,80,102,25,-85
129,35,-52,-61,-14,-6,2,-26,-83,-22
130,91,-3,-50,-35,-38,-31,-87,-166,-141
-84,25,-38,-68,-68,-52,-37,-52,-89,-82
-184,-22,-42,-75,-103,-71,-48,-31,-5,123
-26,37,-19,-78,-147,-137,-152,-132,-58,300
171,94,-18,-75,-140,-176,-250,-230,-147,458
495,145,9,-28,-94,-152,-218,-235,-158,613
727,227,61,-41,-50,-73,-103,-117,-96,573
366,75,26,0,48,37,40,102,79,306
-179,-59,35,92,101,64,62,107,138,175
-599,-134,52,151,140,80,45,23,-105,-675
-603,-108,70,185,220,205,168,117,-145,-805
-137,0,53,121,183,163,141,109,-28,0
144,83,7,-16,15,-68,-93,-107,-81,276
-259,-55,-52,-46,0,-12,-35,25,-38,-239
-406,-129,-83,-32,15,77,84,161,-13,-632
-23,-57,-81,-48,-27,35,55,98,-37,-330
424,50,-10,2,-15,8,28,30,-21,147
315,-20,26,57,23,38,78,80,79,314
-46,-92,-26,29,-3,12,28,65,122,275
-108,-32,-109,4,-47,-45,-66,-30,70,46
-12,57,-93,-34,-78,-90,-136,-136,-58,-218
137,96,-51,-47,-47,-44,-68,-81,-64,8
299,124,-14,-11,-31,-50,-83,-90,-96,322
262,141,-6,-27,-79,-131,-162,-127,-14,523
-6,96,19,7,-68,-115,-130,-90,13,237
-477,-70,62,109,59,30,16,-2,-136,-608
-400,-87,49,141,91,88,96,72,-89,-596
-2,56,12,151,94,97,109,116,-25,-379
222,49,52,114,77,108,112,126,-106,-380
131,-62,40,80,67,138,151,171,-72,-291
80,-78,29,33,22,36,25,13,-113,-80
117,-7,16,-63,-53,-44,-86,-141,-232,-27
-104,-48,-41,-124,-59,-3,0,-17,-101,-86
-87,-73,-82,-83,-38,13,63,73,15,-18
151,-14,-27,-18,4,13,49,18,-75,68
152,2,-11,-9,9,12,21,12,-102,165
-88,-29,0,-4,-4,0,23,93,45,123
-267,-10,60,20,46,14,33,97,126,-193
-409,-35,68,64,106,69,96,131,208,-402
-341,-53,66,74,94,88,143,172,266,-313
-187,31,81,55,57,28,77,165,283,-137
-213,24,70,38,31,-4,39,154,213,-35
-173,2,48,11,-2,-30,-9,79,125,-30
-17,-12,16,-28,-56,-55,-48,28,42,-25
124,-27,-7,-45,-55,-42,-26,-3,-29,83
136,-63,-22,-38,-41,-9,34,-1,-43,211
171,-39,-4,-22,-31,-14,4,-30,-27,299
205,4,2,-15,-30,-40,-31,-51,-62,242
148,-82,-130,-65,-60,-49,-54,-37,-11,107
328,-30,-176,-145,-173,-155,-154,-101,14,268
478,96,-90,-136,-243,-235,-234,-154,82,552
457,99,-67,-96,-201,-222,-240,-180,159,652
659,147,-74,-59,-114,-144,-168,-168,144,741
404,130,16,-25,-33,-15,-9,-30,115,453
78,45,61,-10,-8,37,72,50,87,217
-124,33,160,137,92,74,103,42,19,-60
-380,46,253,320,224,126,151,82,42,-275
-426,66,294,366,235,66,39,-59,-82,-424
-361,11,254,318,200,36,-39,-175,-265,-487
-535,-161,-70,-138,100,191,240,156,-173,-647
-279,-28,-98,-173,34,158,229,155,-103,-339
-145,-35,-72,-96,29,126,221,180,60,-111
-2,-103,-194,-108,-17,66,155,143,163,-18
95,-55,-136,-87,-29,33,46,-15,-37,73
5,25,-32,-51,-13,15,-9,-108,-181,155
109,79,-19,-52,-28,-42,-89,-197,-256,238
232,183,67,-46,-50,-74,-106,-152,-178,115
91,236,135,10,-18,-15,-46,2,-73,-401
75,211,105,22,-37,-15,-54,6,-55,-445
296,169,36,-34,-82,-63,-102,-56,-20,32
429,101,-3,-73,-93,-103,-142,-139,-67,403
317,-31,-21,-95,-66,-72,-114,-151,-149,461
112,-205,-107,-159,-39,-12,-38,-92,-114,190
-166,-323,-137,-159,-52,-5,-7,-5,38,-191
-222,-327,-62,-54,-7,21,12,82,159,-137
-282,-234,18,39,61,96,107,222,278,-73
-458,-113,94,107,146,176,188,315,348,-201
-524,-83,87,106,153,151,167,276,293,-284
-374,-53,56,61,87,83,94,178,167,-186
-143,-17,18,23,26,18,24,79,69,-15
137,0,-33,-42,-38,-42,-59,-19,6,100
257,11,-65,-80,-67,-69,-99,-67,-25,71
313,9,-85,-98,-75,-65,-82,-56,-12,102
534,33,-96,-134,-122,-115,-147,-102,39,343
561,4,-96,-134,-141,-151,-205,-176,-21,537
525,21,-95,-122,-177,-184,-262,-299,-173,621
284,60,-58,-64,-127,-146,-176,-217,-88,534
-154,105,45,49,6,-31,-61,-81,-14,127
-707,68,114,130,135,120,100,78,-2,-488
-888,-76,75,170,194,177,235,174,6,-712
-409,-62,74,164,148,104,171,69,-73,-456
-108,-38,46,53,59,39,60,0,-92,-202
54,50,-35,-107,-54,-16,-13,-50,-87,-91
165,184,-32,-163,-108,-54,-64,-80,-69,-66
203,162,-80,-121,-115,-111,-140,-132,-31,95
430,129,-156,-121,-187,-246,-311,-254,-22,476
341,63,-34,-6,-100,-221,-288,-197,1,376
172,0,72,232,106,-44,-109,-79,-71,225
-32,-115,61,310,226,164,134,132,-39,63
-275,-250,-21,230,208,231,259,295,38,-228
-57,-261,-104,136,114,91,151,206,23,-303
185,-166,-136,-12,12,-33,-3,73,60,-64
167,-81,-145,-121,-36,-36,5,48,161,208
151,59,12,-69,-73,-92,-104,-147,-15,233
-29,120,242,-16,-101,-81,-106,-158,-79,21
-321,44,205,-52,-42,79,99,90,38,-232
-229,41,120,-13,41,143,150,98,-74,-290
-10,28,-13,-64,49,144,145,79,-71,-192
80,37,-160,-225,-54,32,34,-16,-14,-51
36,2,-141,-201,-61,-20,-2,-69,-45,49
-69,-78,-60,-78,17,21,30,-29,-93,261
-179,-16,27,11,79,75,87,10,-125,177
-239,32,69,69,109,119,151,59,-124,-101
-170,-54,-2,31,78,96,132,94,-99,-286
-46,-41,-39,-13,2,8,55,72,-82,-381
380,118,-21,-88,-121,-164,-166,-134,-76,-7
573,214,5,-92,-165,-222,-257,-258,-109,448
118,60,-23,-51,-75,-81,-80,-75,-42,448
-167,-141,-111,-71,-39,6,44,117,176,414
-161,-59,-51,-17,11,46,74,165,279,320
-185,100,116,91,99,97,103,205,309,50
-142,231,186,138,92,51,31,87,94,-495
13,177,82,45,1,-21,-23,51,56,-445
62,51,0,-21,-47,-63,-29,72,155,-12
-79,-41,-16,-16,-45,-72,-69,3,100,-115
-71,-62,-14,8,-14,-67,-111,-115,-109,-447
-98,-97,21,78,52,3,-10,-47,-201,-579
-299,-142,22,95,81,58,122,92,-147,-576
-61,-117,-20,35,10,-33,67,49,-110,-288
388,-87,-15,37,-53,-77,6,12,-11,89
503,-33,0,49,-95,-112,-85,-86,-28,225
184,-22,34,113,-2,0,-45,-69,-29,216
39,29,39,179,139,118,46,14,28,213
182,87,-5,1,56,25,-38,-67,-38,204
33,-67,-174,-217,-52,5,-10,4,29,218
-225,-152,-166,-179,-30,72,82,121,97,189
-458,-91,-63,-10,66,125,126,135,42,-144
-529,-16,50,138,152,158,125,40,-147,-552
-203,28,10,137,106,113,50,-63,-247,-576
-4,47,26,107,75,64,4,-103,-259,-418
-157,52,80,111,86,65,18,-103,-263,-282
-233,0,104,106,86,74,57,-85,-204,-88
-178,-34,83,51,29,17,9,-86,-128,58
-78,-84,-1,-30,-30,-29,-20,6,99,198
41,-95,-100,-85,-77,-45,-7,118,318,193
87,9,-112,-119,-123,-92,-53,103,289,-112
171,179,-47,-96,-125,-106,-85,4,100,-184
70,209,24,-25,-54,-60,-68,-82,-67,-98
43,85,12,-6,-27,-41,-49,-76,-54,82
270,10,-40,-69,-87,-79,-70,-57,101,378
306,-30,-30,-58,-71,-47,-47,7,238,537
160,-106,-9,-17,-2,22,21,129,359,466
-88,-133,4,0,7,22,69,181,324,320
-363,-129,39,53,43,58,128,152,188,186
-266,-32,51,67,45,42,57,41,-24,-3
-12,73,31,20,-17,-32,-46,-36,-63,-4
-46,28,-9,-10,-44,-34,-26,27,24,-79
7,-27,-26,-41,-36,11,25,89,69,98
507,104,-12,-96,-139,-85,-119,-62,-55,544
771,178,-15,-94,-200,-198,-287,-252,-196,705
674,149,-22,-42,-171,-210,-300,-256,-136,580
287,30,-66,-23,-126,-144,-171,-73,109,217
-208,-114,-61,22,-53,-62,-38,68,249,-213
-364,-116,87,161,113,72,87,143,190,-344
-235,-31,200,146,146,88,58,11,-94,-531
-110,0,15,-33,17,9,-48,-130,-300,-487
-132,-43,-211,-102,-27,23,-3,-78,-274,-320
-318,-91,-139,-24,77,141,126,-8,-290,-394
-335,-34,13,94,183,229,251,40,-301,-438
-90,121,131,146,191,206,193,-61,-415,-428
-5,167,172,94,109,113,56,-185,-507,-363
21,58,114,40,48,71,33,-138,-423,-242
-43,-97,21,29,59,95,151,99,-4,-96
-115,-99,-26,-9,10,39,160,298,414,86
-84,43,-15,-42,-41,-24,73,360,540,148
-42,74,-29,15,5,34,58,266,348,180
38,13,-74,34,33,53,42,145,187,281
143,-9,-53,-19,-12,-1,-16,58,105,286
181,-48,-155,-45,-64,-48,-39,40,79,265
77,-87,-85,11,-21,-17,15,78,90,130
-1,-94,8,29,7,4,21,46,79,-84
11,-128,-23,-32,-48,-15,36,102,240,4
144,-84,-44,-64,-81,-43,3,76,221,28
335,0,-19,-49,-72,-75,-81,-54,39,84
390,72,-39,-109,-128,-138,-153,-121,63,359
108,82,-15,-108,-129,-119,-101,-31,247,528
3,95,76,12,-20,-9,6,13,142,385
96,44,17,54,26,38,45,44,44,117
4,-6,-9,46,19,30,50,92,18,-178
-124,-18,-32,46,21,36,72,87,-30,-212
-19,15,56,53,-22,-16,17,-17,-107,8
176,110,141,82,-57,-95,-74,-121,-165,156
217,138,156,91,-42,-99,-99,-128,-189,151
61,29,119,77,4,-34,-56,-42,-81,172
-163,-53,81,46,67,25,18,37,8,-75
-455,-95,-21,-56,55,35,34,26,-70,-348
-452,-57,-118,-164,-60,-11,8,33,-66,-214
-83,97,-44,-108,-104,-86,-90,-27,-32,-35
51,202,36,-16,-42,-104,-150,-107,-44,-15
5,221,98,29,20,-57,-105,-95,-58,-181
-165,85,102,60,52,26,-2,7,-81,-497
-171,-64,36,56,66,67,96,106,-65,-498
-94,-170,-7,16,53,81,120,118,-40,-262
-199,-263,-47,9,45,86,82,100,-16,-115
-184,-213,-54,8,38,51,47,73,3,-38
15,-70,-52,-37,-16,-12,-4,22,72,124
262,19,-66,-90,-86,-81,-111,-66,81,402
659,148,-92,-133,-178,-203,-266,-222,1,846
747,215,-123,-114,-206,-260,-313,-296,-39,917
271,85,-17,-30,-121,-156,-188,-228,-74,535
-103,-33,39,45,-25,-26,-25,-57,-48,289
-7,73,-75,80,9,-23,22,-22,-117,251
40,41,-99,70,55,27,89,83,82,131
16,13,-47,36,42,30,56,74,130,-321
-184,-13,92,178,98,103,100,123,163,-519
-328,-35,228,328,125,121,105,92,34,-672
-405,-104,205,289,115,93,81,34,-141,-779
-293,-190,4,126,88,57,76,18,-95,-314
-80,-207,-186,47,101,91,117,62,105,461
565,58,-161,-80,19,-7,-51,-89,149,1013
906,286,-134,-347,-219,-231,-330,-380,-115,811
147,216,-42,-345,-171,-85,-94,-124,-96,-49
-496,23,47,-181,18,174,282,290,78,-688
-412,-121,-20,-77,103,254,353,325,0,-823
62,-70,-17,-28,81,154,205,169,-77,-544
412,53,34,-14,46,35,35,13,-83,-65
224,99,59,13,62,36,2,-28,1,251
-238,45,51,27,78,56,15,-8,119,368
-425,73,16,19,62,25,-41,-77,-34,240
-444,90,32,55,96,69,17,13,-131,-51
-377,95,139,91,118,92,79,136,-21,-183
-167,79,96,23,18,-21,-44,22,-3,-73
-223,-75,40,5,13,-19,-43,-3,-11,-277
-356,-168,51,63,84,95,81,108,-2,-532
-248,-181,0,39,42,93,105,118,-36,-400
-13,-190,-71,-38,-33,19,31,48,-37,-15
173,-110,-77,-128,-134,-101,-94,-57,42,198
341,102,2,-92,-142,-150,-149,-123,160,427
113,72,43,-53,-79,-88,-82,0,260,316
61,94,80,0,-47,-89,-93,-33,182,479
8,43,85,32,-24,-58,-49,-12,170,506
-107,-52,5,-26,-55,-48,0,26,194,308
-332,-120,-27,-20,-3,37,114,112,166,-240
-240,-93,2,18,49,80,107,67,-57,-799
245,38,-23,-62,-45,-20,-2,-66,-255,-695
412,148,-48,-106,-103,-92,-102,-189,-378,-532
199,167,3,-35,-75,-109,-133,-163,-239,-369
80,124,58,90,14,-52,-55,-54,-44,-147
275,76,41,151,64,6,14,-31,-21,99
208,-52,31,167,104,68,74,0,-13,220
-157,-144,-94,147,159,137,130,58,-20,131
-253,-122,-161,25,119,121,115,29,-72,80
-188,-102,-111,-102,19,44,40,-64,-86,170
-22,-38,10,-94,-28,-38,-65,-190,-143,325
155,59,88,-73,-55,-113,-171,-282,-151,476
-30,8,16,-49,-15,-89,-178,-272,-152,256
-120,-14,-59,-28,15,-10,3,69,-102,-346
17,41,-18,-13,41,0,69,211,13,-384
197,-7,-51,-43,19,-4,70,203,86,-101
280,-50,-52,-98,-69,-63,-2,120,154,-8
292,-8,-17,-120,-103,-90,-76,76,307,32
173,69,0,-14,-30,-43,-50,54,304,31
-111,67,7,68,50,26,26,82,238,-22
-210,23,63,84,75,39,67,72,119,29
-143,-9,74,56,11,-28,-31,-3,-2,-56
-93,-75,60,53,-9,-38,-59,16,68,-92
-154,-173,21,51,6,-39,-52,20,123,-29
-216,-208,-10,6,1,-26,-47,9,121,106
87,-73,-35,-74,-71,-62,-77,-10,90,532
479,116,-61,-171,-135,-101,-116,-69,-6,762
604,150,-41,-174,-145,-116,-154,-124,0,675
431,50,7,-91,-85,-102,-147,-115,53,406
-13,-70,-21,-80,-49,-63,-75,-65,144,170
-344,6,31,-28,-7,-33,-49,-88,124,299
-218,109,120,67,48,-35,-63,-158,22,367
111,47,50,61,24,-38,-89,-146,-41,206
72,-129,-37,39,61,126,135,157,124,-181
-143,-127,1,117,140,199,227,205,140,-355
-136,134,98,225,146,61,9,-82,-73,-140
-326,233,140,251,119,20,-54,-163,-255,-220
-462,53,102,256,111,77,64,2,-249,-577
-207,-55,135,227,63,39,45,14,-266,-835
91,-75,129,88,28,30,27,-19,-249,-730
33,-90,18,-89,19,81,67,23,-117,-409
-168,-110,-83,-217,-56,64,28,-2,-91,-233
-153,-110,-139,-233,-78,38,13,-21,-121,-200
-4,-97,-162,-234,-70,22,36,10,-35,-15
158,-24,-180,-190,-70,-14,24,-4,-39,-28
164,42,-46,-91,-37,-16,5,-65,-108,-144
90,47,21,-46,-12,-35,-1,-53,-3,-121
215,72,-26,-25,0,-43,-1,29,162,50
142,17,-88,-16,6,-4,36,95,141,55
42,-10,-25,-33,0,-15,36,91,102,106
174,92,28,-27,-15,-45,-36,13,59,299
336,163,78,9,6,-46,-68,-69,-100,232
412,97,82,8,19,-40,-39,-30,-82,277
154,-12,4,-13,-5,-46,-22,25,25,241
-359,-170,-46,-3,23,-29,-9,1,52,155
-584,-244,-8,41,90,12,33,-1,75,198
-387,-185,-15,34,79,16,36,26,130,186
-177,-90,9,33,53,2,18,-1,68,-123
-143,-27,26,75,70,8,7,-26,-45,-318
-109,5,36,77,65,9,25,26,-16,-198
-94,11,66,70,77,14,50,28,-27,-158
-38,18,26,34,48,-13,-11,-52,-55,-59
176,15,-24,-45,-46,-75,-103,-150,-137,63
285,8,-34,-36,-55,-78,-101,-160,-190,139
181,-7,11,38,-11,-67,-86,-160,-149,231
5,-38,64,75,21,-40,-51,-137,-54,156
-195,-21,168,167,65,42,85,30,92,-48
-184,20,182,127,-24,4,64,30,28,-177
-243,-1,105,36,-68,2,62,55,-46,-410
-177,-46,45,91,21,33,60,44,-92,-308
-12,-74,-93,10,71,80,95,-1,-137,15
247,212,-280,-276,-78,-40,-57,-268,-437,-60
126,238,-61,-112,17,50,-1,-158,-345,-163
1,130,-13,-36,69,109,80,-31,-185,-110
88,62,-22,-52,-14,10,0,-26,28,110
76,21,-56,-95,-90,-93,-56,86,348,239
20,13,-63,-96,-105,-101,-26,200,498,128
118,2,-60,-98,-96,-85,-37,172,381,61
153,-23,-48,-65,-51,-35,3,167,291,83
282,-19,-35,-39,-28,5,10,98,163,154
471,20,-53,-83,-70,-69,-62,-42,80,410
245,4,-112,-117,-97,-107,-111,-136,-32,442
-183,-35,-136,-43,-6,15,-5,-43,-43,270
-136,17,-12,-37,-29,-27,-25,10,120,455
53,61,-4,-82,-100,-105,-68,45,253,636
51,53,8,-31,-22,-26,-16,53,174,395
7,52,32,9,31,3,-12,-22,42,230
-36,96,88,65,74,34,-32,-122,-150,-175
-156,107,53,99,102,47,-47,-205,-363,-808
-233,123,-6,86,78,45,-62,-205,-444,-1125
-322,77,56,93,134,138,102,27,-181,-948
-270,-9,21,70,128,135,181,148,-60,-665
-65,-42,-31,18,66,97,169,165,-96,-398
221,-6,-38,-33,-12,31,77,98,-63,-70
378,20,25,-41,-31,-19,-21,0,-84,110
394,16,78,27,6,-16,-54,-91,-126,185
322,31,69,48,3,-28,-101,-154,-122,305
-16,-11,39,12,-54,-55,-118,-91,98,459
-297,-82,43,61,-16,-1,-20,68,328,541
-411,-123,-35,97,41,54,44,65,174,178
-406,-84,-3,91,77,77,58,-15,-88,-336
-276,-15,49,92,97,128,114,31,-222,-311
-24,-11,-60,-35,9,84,99,102,-114,-91
279,15,-171,-214,-174,-81,-52,119,209,215
300,61,-83,-142,-132,-74,-36,115,360,335
0,73,57,0,21,30,67,63,146,71
-234,58,106,48,76,66,71,56,40,-188
-266,-38,30,16,29,66,90,147,214,-11
-82,-95,-73,-54,-49,25,79,185,311,244
98,-38,-96,-73,-80,-48,-18,46,134,146
21,-25,-39,11,-14,-20,-33,-53,-41,15
-101,-49,-21,113,62,17,3,-27,1,77
-22,-59,43,128,52,2,23,16,106,166
-8,7,134,149,48,19,24,-3,15,-87
-218,29,167,164,124,121,121,61,-66,-363
-114,92,83,21,45,82,101,52,-43,-165
116,129,-51,-134,-98,-6,11,1,-38,-9
257,123,-99,-182,-176,-80,-58,-19,7,115
85,10,-68,-78,-71,-31,4,18,0,144
-53,-60,19,92,78,56,39,-48,-187,2
-171,-138,21,111,99,75,40,-65,-232,-91
-190,-223,-64,-17,-2,14,21,15,-46,200
16,-158,-94,-142,-116,-91,-115,-117,-55,511
302,67,-56,-227,-237,-258,-332,-371,-152,605
374,253,8,-171,-220,-264,-334,-357,-142,364
356,247,69,-55,-92,-103,-111,-73,67,184
431,210,41,-16,-47,-47,-25,84,209,403
273,107,29,33,12,6,36,139,270,603
71,10,63,184,178,123,139,174,182,345
-60,-72,38,224,223,171,173,156,-51,-314
-348,-92,8,155,128,124,113,71,-274,-955
-525,-51,93,120,96,134,150,101,-286,-1231
-546,-100,93,40,58,146,191,140,-156,-931
-229,-84,-39,-87,-10,52,123,93,-4,-407
7,-74,-88,-87,-33,-26,22,7,47,-91
11,11,21,28,-19,-62,-67,-42,31,-25
-312,0,66,110,36,-2,-5,50,-1,-201
-298,-74,-53,77,56,18,31,54,-50,-161
82,-68,-161,-11,2,-26,-34,-34,-50,134
232,-91,-244,-159,-41,-43,-63,-40,15,409
49,-119,-204,-259,-88,-45,-44,-13,42,272
20,3,11,-80,5,-1,-27,-23,-50,35
-4,77,122,66,100,67,45,38,-33,-98
-158,29,82,67,101,92,116,105,20,-281
16,10,16,-16,12,5,45,7,-11,-25
245,54,-2,-47,-61,-80,-79,-136,-152,203
174,26,-9,-37,-48,-50,-49,-97,-128,126
-16,5,-17,-1,11,22,50,8,-39,-268
-107,36,18,5,28,41,73,40,-33,-399
-48,50,53,3,29,35,34,70,44,-139
339,-23,-63,-67,-94,-87,-114,-53,142,513
277,4,-38,-25,-61,-78,-70,-59,177,602
180,-21,-2,23,-42,-73,-84,-120,125,479
449,2,-64,-47,-186,-239,-289,-347,-9,552
718,165,-66,-64,-263,-340,-441,-526,-221,490
249,64,35,27,-96,-92,-141,-196,-168,84
-154,-103,64,61,45,136,190,204,63,-46
-145,-78,5,3,66,169,237,267,27,-321
-159,-3,0,-18,73,147,193,223,-15,-675
-391,-29,59,91,134,144,207,198,8,-766
-538,-95,63,162,146,138,173,157,-2,-669
-424,-86,59,150,99,75,73,96,29,-377
-257,-101,-11,48,0,-30,-47,4,100,-75
-170,-119,-58,-20,-42,-55,-83,-31,108,76
-207,-100,-64,-63,-38,-4,-16,19,26,-42
-70,10,-28,-31,-18,16,-29,-16,-102,52
16,72,110,99,71,65,-10,-80,-261,43
93,17,148,89,54,59,-7,-98,-267,-57
281,-60,-8,-21,-35,-7,-53,-129,-226,47
144,-135,-87,-36,-12,15,-40,-149,-216,382
-77,-53,36,46,64,58,-6,-161,-216,530
-27,65,114,85,67,42,-28,-166,-238,397
64,32,36,7,-14,-5,-62,-98,-153,345
4,10,-10,-21,-36,-30,-47,-64,-145,-144
-47,8,-46,-36,-61,-32,11,56,-6,-505
80,-4,-154,-94,-131,-104,-3,162,266,-228
153,-56,-138,-106,-120,-111,-7,187,420,36
129,-48,-36,-59,-45,-61,41,252,526,5
-45,-30,73,71,69,21,64,248,463,-132
-95,-52,60,79,67,26,9,163,386,26
-133,-25,62,83,86,71,47,159,307,72
-134,-15,38,76,86,93,86,140,153,-26
-27,-18,-12,8,18,43,75,103,69,-237
47,15,4,-30,-64,-43,4,29,24,-287
55,46,36,-23,-74,-54,-3,-4,-43,-179
57,47,60,4,-27,-32,-13,-58,-165,-71
213,33,38,-24,-44,-64,-93,-126,-219,203
400,52,-30,-111,-111,-101,-133,-113,-44,646
399,48,-76,-143,-143,-111,-114,-62,119,904
194,100,7,-31,-54,-72,-92,-75,61,511
-191,128,136,112,104,54,48,11,-60,-401
-301,86,127,105,121,100,113,97,-53,-630
-63,75,92,9,26,14,33,45,-6,-213
16,72,68,-9,-17,-41,-55,-55,-46,-98
-222,-18,6,-6,-8,-16,-23,-36,-33,-109
-267,-146,-122,4,29,52,49,23,2,92
7,-102,-73,1,13,-9,-55,-71,8,420
164,43,46,13,-19,-102,-168,-198,-34,442
122,53,2,23,-18,-73,-95,-127,0,183
-30,-53,-98,49,22,-1,37,35,55,-121
-33,-73,-97,25,23,2,62,62,41,-62
23,-10,-34,16,21,23,94,95,14,-13
-14,-67,-16,32,50,80,159,221,83,-145
65,-54,9,11,15,36,99,188,45,-329
64,58,76,-8,-33,-32,-9,50,-67,-308
-127,68,105,9,-15,-19,-30,0,-47,-152
-88,-11,33,-6,15,12,0,10,-4,97
132,11,-29,-74,-7,-4,10,39,50,76
255,68,-40,-136,-56,-67,-38,21,127,63
172,-5,-72,-125,-81,-99,-95,-40,87,194
101,-55,-63,-72,-47,-55,-80,-52,3,194
284,-23,-34,-44,-41,-50,-84,-72,-33,274
228,32,2,-9,-19,3,-58,-77,-95,191
-35,57,91,121,92,109,1,-32,-144,-153
-96,-5,74,156,129,120,20,0,-99,-192
-127,-96,50,157,116,107,55,69,36,36
-141,-142,53,151,92,101,75,112,119,80
-97,-82,93,81,25,29,-45,-66,-112,-152
4,-3,4,-12,-23,-30,-120,-194,-252,-357
-198,-72,-124,-42,-11,55,33,-8,-84,-418
-252,-105,-23,24,30,115,160,161,39,-315
-73,-22,159,196,84,62,87,81,21,-172
-125,1,220,198,68,6,20,-12,-39,-79
-255,-62,143,93,22,-13,-7,-49,-88,-117
-146,-80,38,28,27,-10,-6,-13,-7,52
129,-57,-222,-158,-26,2,-9,-7,45,361
280,47,-349,-370,-153,-34,-74,-132,-121,340
217,183,-174,-238,-142,-72,-141,-265,-289,49
208,197,-68,-92,-141,-130,-173,-307,-241,106
177,81,8,-21,-110,-65,-21,-65,83,429
193,72,48,34,-37,34,94,86,187,438
110,126,95,106,65,80,64,28,60,164
-248,49,127,145,188,180,159,112,90,-229
-330,-12,13,15,143,193,212,169,117,-230
-219,0,-130,-172,-30,50,53,25,9,-229
-189,-19,-124,-188,-71,-19,0,-18,-26,-179
-75,-6,-70,-119,-68,-54,-49,-35,18,67
103,15,-25,-60,-80,-92,-103,-91,-5,75
190,9,16,12,-23,-66,-69,-78,-7,-34
116,-12,28,39,17,-74,-72,-133,-97,-195
68,-17,19,20,-5,-95,-102,-177,-136,78
-90,-40,40,36,30,-1,18,-16,20,458
0,-22,-32,22,26,26,62,56,60,508
210,17,-110,26,6,6,37,58,149,631
110,-78,-131,2,-4,21,49,110,307,597
-163,-106,-42,-1,26,29,49,93,221,58
-84,56,38,43,27,3,17,4,-7,-387
206,108,37,45,16,9,17,-19,-98,-219
31,-12,17,52,40,39,59,31,-76,-102
-382,-177,-32,26,40,66,108,132,87,-216
-195,-138,-72,-45,-63,-39,0,53,100,-209
181,54,14,-21,-95,-96,-57,-43,-22,-271
66,131,92,59,-19,-25,3,-28,-165,-658
-62,123,110,118,66,48,43,-6,-202,-653
-55,60,95,123,100,79,82,60,-67,-403
-5,63,66,61,28,0,0,8,-67,-161
95,49,13,-29,-38,-75,-67,-37,-7,291
137,1,-34,-93,-95,-106,-93,-83,84,659
182,77,-7,-75,-116,-125,-192,-215,7,678
-51,80,28,-2,-41,-51,-128,-209,-77,189
-397,14,16,50,42,74,32,-70,-83,-476
-389,-42,-29,67,79,108,109,33,-10,-491
31,-77,-72,19,25,39,74,45,44,-16
344,-67,-93,-64,-43,-39,16,-7,14,115
423,5,-28,-77,-47,-40,-23,-81,-72,146
12,68,121,19,52,30,3,-70,-89,85
-300,33,173,113,123,101,60,-27,-59,-51
-216,-17,94,103,105,98,65,-10,-63,-240
-138,-38,41,40,53,50,40,12,10,-309
-124,-27,50,35,61,60,83,63,99,-300
-277,-65,23,42,70,75,107,82,123,-239
-186,-67,-32,-21,-16,-3,32,50,170,4
125,-17,-66,-94,-122,-103,-105,-81,41,117
30,-60,-60,-45,-72,-38,-39,-58,-60,-132
-78,-95,-14,22,21,66,66,7,-98,-223
83,-35,-10,17,-20,6,-37,-139,-184,90
178,27,-22,-13,-71,-92,-181,-284,-271,268
421,44,-69,-81,-158,-172,-254,-339,-314,332
575,21,-113,-135,-188,-170,-222,-274,-214,238
511,12,-95,-139,-174,-122,-120,-73,40,394
278,-53,-77,-91,-108,-26,15,215,433,800
0,-48,-4,20,-35,11,15,136,334,723
151,75,26,65,-59,-63,-106,-73,114,407
148,93,74,132,21,11,1,78,235,82
-229,-46,112,197,124,115,134,213,203,-580
-447,-100,166,236,155,125,134,167,35,-902
-510,-27,261,330,203,147,136,125,-16,-684
-752,-69,215,345,206,156,133,120,14,-549
-552,-65,182,331,188,112,76,67,50,-261
-293,-20,110,224,141,78,25,9,2,-126
-152,-49,-123,-201,-110,-29,-38,-7,-18,-157
101,-16,-433,-538,-326,-128,-104,-40,-31,-32
165,8,-410,-465,-285,-99,-75,-14,16,65
141,15,-195,-240,-117,11,17,47,124,248
271,133,-27,-97,-25,37,7,11,123,483
428,237,31,-63,-56,-48,-93,-111,9,417
198,105,-27,-50,-47,-21,-29,-52,12,224
-180,-83,-32,-18,24,86,114,95,46,16
-241,-81,9,14,74,111,142,137,27,-168
-141,-11,27,0,28,45,63,93,-4,-255
-192,-51,15,19,45,69,87,128,14,-194
-138,-72,0,9,46,71,99,131,22,-40
103,8,6,0,7,24,24,27,-37,135
293,39,7,-18,-33,-13,-26,-10,19,258
235,-12,0,-3,-21,-22,-32,-21,34,133
139,-37,-1,5,15,3,-26,-60,-81,-111
-2,-46,-21,8,29,45,42,-6,-120,-241
-168,-68,-2,35,79,105,142,90,-98,-385
-162,6,50,79,109,99,128,49,-147,-281
-80,20,56,66,94,68,83,13,-138,-25
-48,-57,-17,-6,16,20,35,44,-31,130
19,-32,-22,-35,-24,-18,-13,62,45,172
102,48,8,-35,-43,-49,-72,13,-4,-51
21,54,0,-30,-49,-61,-76,17,-1,-327
-36,55,-57,-2,-9,-22,-32,42,29,-282
11,17,-93,-15,-3,-3,-16,18,11,-62
99,-36,-40,-38,-26,-19,-41,-17,-6,127
200,-64,-38,-57,-45,-64,-86,-85,-16,273
300,-4,-43,-79,-81,-142,-191,-202,-81,322
198,40,4,-40,-61,-122,-190,-192,-114,243
179,3,22,-22,-45,-73,-94,-46,53,417
237,-29,8,-46,-60,-51,-58,18,113,462
47,-75,-9,-17,-15,8,25,95,130,86
-354,-109,-49,44,61,74,85,122,48,-453
-657,-73,-39,91,117,113,115,128,-69,-755
-380,-8,14,51,63,60,68,84,-59,-466
264,63,-9,-39,-45,-46,-44,-15,-49,99
579,46,-54,-97,-99,-91,-89,-32,-40,420
656,92,-33,-97,-122,-97,-93,6,28,628
420,150,45,-33,-72,-77,-87,-30,-60,410
-11,53,7,9,-9,-12,-37,-45,-210,-251
-120,-59,-23,0,33,61,79,83,-117,-454
-147,-70,-21,9,34,57,104,153,86,-193
-255,12,17,0,-8,-31,-4,46,92,-11
-139,41,44,-3,-7,-26,-3,-1,39,206
-76,21,40,14,19,10,41,71,60,114
-150,-57,7,3,20,17,60,136,113,-196
-83,-73,10,16,23,19,38,98,91,-210
164,-82,-27,7,18,-64,-46,-1,173,401
220,-75,-96,-28,-30,-142,-122,-55,170,524
210,-27,-14,-50,-54,-163,-160,-126,158,588
-98,-15,71,10,11,-4,-12,-13,96,191
-301,-35,67,69,93,149,199,167,67,-227
-305,-79,36,92,122,157,218,186,8,-299
-326,-114,6,82,124,143,171,144,-1,-315
-293,-98,22,104,132,140,168,100,-54,-374
-140,-18,66,83,108,84,111,15,-138,-260
-13,-14,11,-30,33,6,34,-39,-113,-7
84,-56,-87,-132,-57,-71,-27,-80,-37,268
233,-34,-82,-126,-97,-116,-65,-122,-17,545
212,-3,-36,-78,-49,-63,-5,-47,35,573
190,51,9,-9,-10,-11,36,11,16,229
229,99,28,38,0,-41,-5,-18,-50,-181
183,68,3,63,6,-57,-33,-28,-51,-408
344,98,-21,17,-55,-165,-190,-156,-143,-281
316,89,-6,-19,-60,-163,-203,-168,-159,-24
-48,38,91,41,22,-29,-53,-64,-123,-5
-304,8,155,57,89,77,39,-21,-80,-171
-272,-19,79,30,106,128,69,30,7,-310
-248,-47,32,25,77,93,43,41,7,-339
-223,-83,39,37,48,53,15,21,-43,-293
-181,-76,55,78,83,81,45,34,-55,-187
-220,-66,9,40,92,85,56,44,-66,-53
-93,-40,-106,-117,-11,12,5,-11,-26,231
135,38,-109,-146,-69,-60,-78,-95,-32,368
60,33,-35,-43,-1,-26,-65,-128,-124,80
-35,-49,-29,-29,21,-11,-42,-155,-145,14
-36,-52,-13,-14,9,-3,-23,-116,-77,69
-166,-13,0,10,29,43,51,49,127,-94
-233,-13,-42,17,61,85,98,164,220,-126
-64,24,-63,-18,0,11,23,138,153,-66
166,82,-41,-97,-119,-129,-140,-20,77,21
392,165,-26,-139,-187,-215,-256,-181,15,106
673,177,-15,-116,-191,-230,-280,-222,-38,273
568,101,45,20,-74,-126,-183,-131,-91,215
165,-22,51,102,56,22,-21,-35,-120,-3
-213,-108,41,132,128,121,130,95,0,-32
-562,-165,31,127,166,172,223,221,156,-140
-590,-191,-33,49,116,139,173,188,88,-210
-224,-106,-72,-72,0,31,47,88,18,-31
-75,-55,-43,-91,-24,19,34,80,31,-44
-244,-77,-15,-41,-1,26,48,82,37,-315
-242,-113,-60,-80,-51,-36,-5,52,107,-146
-136,-89,-68,-81,-84,-73,-53,15,103,109
66,60,-4,-35,-59,-52,-44,-5,48,205
180,160,0,-31,-66,-63,-56,-67,-76,42
300,95,-133,-97,-121,-110,-93,-90,-80,-97
428,31,-76,-96,-105,-87,-91,-66,-8,167
230,-22,17,-32,-39,-25,-42,-30,8,295
97,-20,18,-37,-51,-18,-8,92,184,403
8,-22,-44,0,-5,65,94,240,362,375
84,68,-4,43,28,67,87,152,175,36
167,111,53,36,12,0,19,2,-27,-211
54,-10,18,18,22,-6,-24,-58,-71,-59
-79,-198,-46,-3,29,63,54,42,-25,193
-83,-188,-76,-1,20,62,76,61,-37,141
-92,-85,-146,4,-7,38,71,82,70,118
-97,-9,-79,6,-6,33,93,142,178,85
-208,70,109,84,33,42,93,136,104,-187
-284,93,214,213,84,45,53,53,-36,-323
-146,64,161,206,57,1,-15,-26,-112,-211
3,6,131,169,52,-6,-15,-25,-155,-301
5,-29,86,100,39,8,-5,-17,-129,-288
7,0,-9,-67,-25,-7,-25,-56,-94,-76
20,50,-93,-200,-103,-34,-3,-37,-10,92
-252,-45,-61,-114,-38,13,83,81,123,41
-348,-129,-80,-28,20,36,68,102,116,44
-85,-73,-75,12,42,36,22,13,-62,27
409,110,-5,22,20,-21,-80,-168,-291,289
238,77,-13,13,16,0,-15,-98,-209,335
111,80,3,17,10,-13,12,-67,-154,322
63,63,8,15,2,-12,5,-9,-22,363
37,44,9,-8,-34,-67,-77,-12,68,202
8,31,-32,-27,-56,-81,-95,11,67,-95
101,35,-125,-46,-68,-68,-55,62,160,-130
210,96,-50,10,2,-5,25,73,160,-243
186,151,110,81,84,43,50,38,18,-389
-53,107,150,103,90,39,14,-3,-84,-509
-93,1,92,110,53,20,-21,-10,-95,-449
56,-32,36,103,20,-2,-48,-2,-18,-70
-26,0,44,144,66,-8,-67,-23,-5,101
-11,65,29,116,75,-19,-87,-106,-107,65
-26,37,-74,44,45,12,-41,-71,-108,-14
-80,-44,-165,-64,-53,-9,-5,-4,15,50
121,-39,-168,-176,-193,-127,-131,-109,-16,218
197,34,-65,-146,-196,-139,-148,-130,-27,233
78,61,31,-85,-120,-75,-95,-70,40,201
-25,47,17,-30,-28,24,24,59,208,319
24,117,44,-14,1,19,39,75,270,418
84,112,50,-28,-23,-69,-47,-49,144,349
84,85,127,0,-16,-102,-110,-168,-86,10
-137,32,78,-20,4,9,-8,-104,-256,-538
-130,-5,-69,-61,-7,88,84,9,-248,-696
-35,-19,-86,-84,-21,95,105,37,-151,-394
-68,-101,-67,-109,-36,53,71,27,-28,63
21,-92,-15,-103,-34,17,23,-14,0,294
94,-1,37,-58,-24,0,-3,-51,-35,335
71,80,122,3,41,28,9,-76,-94,189
-2,116,178,53,63,-10,-61,-203,-246,-181
-54,92,150,74,40,-21,-74,-191,-198,-147
-156,7,141,122,104,71,71,-49,-81,-173
-320,-117,98,131,141,136,171,51,-52,-390
-482,-211,19,85,138,166,214,132,-32,-445
-343,-173,-49,17,69,99,144,154,11,-309
-86,-56,-20,-90,-45,4,40,142,143,-101
159,50,-40,-157,-134,-94,-29,71,312,266
410,88,-99,-135,-174,-145,-76,-6,289,654
566,100,-88,-13,-121,-138,-96,-96,167,861
417,146,28,80,-33,-110,-133,-178,25,581
137,78,60,92,20,-37,-82,-108,-48,-7
-33,-58,67,63,67,79,77,87,41,-266
21,-59,-18,-73,62,121,148,166,65,-442
-12,-61,-95,-186,-4,87,141,160,73,-432
-273,-98,-21,-74,28,84,148,145,93,-192
-626,-70,93,57,135,115,160,138,77,-199
-576,11,148,109,178,130,164,115,-10,-287
-300,8,111,72,119,81,96,91,-7,-205
-122,-50,46,27,73,24,52,78,51,-74
-50,-68,-23,2,52,-2,16,44,24,6
-8,-28,-48,13,44,-4,-6,29,46,107
-26,-32,-68,22,35,1,-1,51,85,146
-10,-51,-22,-18,-14,-58,-45,-19,66,190
50,-27,2,-47,-53,-93,-83,-114,-49,235
49,9,68,6,-9,-53,-37,-81,-140,57
77,41,105,59,33,-28,-11,-73,-172,-60
146,30,87,34,3,-45,-8,-34,-29,106
239,27,32,-9,-47,-59,-47,-29,14,231
232,1,-14,-51,-69,-43,-66,-65,-52,199
34,-17,4,-20,-36,24,-2,-1,5,205
-31,-8,16,2,-20,14,21,19,95,240
-20,-26,-69,-9,-25,-12,16,31,135,112
-21,-50,-117,17,2,18,19,28,3,-245
9,24,35,73,29,34,0,-59,-192,-558
57,56,104,85,22,26,-14,-81,-226,-481
49,29,71,53,-6,0,-2,-44,-114,-70
13,34,41,55,-12,-18,-9,-31,-67,169
-71,49,33,86,23,25,16,0,-31,140
5,44,39,48,-12,-9,-42,-17,-4,89
104,77,46,31,-41,-52,-107,-25,30,2
84,156,116,67,17,-46,-97,-23,1,-136
-3,125,114,8,6,-46,-81,-13,-66,-220
43,15,-47,-89,-34,-34,-75,13,-75,-214
305,-32,-215,-203,-134,-86,-119,-47,-45,138
527,12,-178,-209,-229,-184,-196,-193,-50,661
728,91,-65,-207,-247,-221,-242,-288,-72,965
433,18,-82,-203,-146,-86,-72,-86,59,704
-271,-36,6,-81,20,87,144,188,165,-211
-821,-38,117,69,166,193,236,253,89,-805
-815,-45,100,107,178,167,141,146,8,-569
-325,59,64,50,91,71,3,27,-86,-297
-5,132,38,18,24,20,-46,-29,-178,-467
92,73,-30,-30,-59,-37,-113,-112,-281,-668
51,-78,-97,-56,-69,-44,-99,-119,-257,-509
7,-101,-65,-7,-44,-18,-55,-100,-205,-217
-86,-25,7,58,2,17,3,-96,-197,57
-167,22,56,93,51,52,77,-38,-117,351
-33,39,38,68,40,42,92,53,128,503
266,68,6,19,-24,-24,33,38,190,590
270,10,25,52,22,20,87,76,194,502
139,-68,20,86,59,90,145,131,163,204
135,-58,-11,41,21,60,84,121,130,102
92,2,-12,38,-1,0,11,19,52,245
173,40,9,43,-23,-57,-99,-129,-92,222
-97,-44,34,96,61,26,-4,-4,-36,-128
-530,-150,-45,72,72,66,154,352,400,-386
-210,15,4,49,31,0,51,206,375,47
-63,78,35,41,25,-12,-27,37,162,86
-128,15,2,24,27,-1,-7,5,70,-103
-160,-25,-19,3,0,21,36,56,76,-253
-91,2,-18,-10,-27,9,18,25,10,-275
53,60,-5,16,-39,-39,-38,-59,-111,-176
260,94,-14,42,-40,-70,-58,-114,-181,-49
430,81,-33,31,-63,-82,-75,-148,-186,112
501,69,4,45,-52,-53,-58,-116,-124,176
286,89,96,52,-26,6,24,-22,-46,123
-160,79,64,-7,-12,31,74,26,-31,-52
-375,-3,-46,-18,19,76,117,69,4,-185
-238,-70,-58,-34,-2,62,106,79,14,-129
-90,-83,-113,-74,-46,9,26,51,-6,40
11,-37,-109,-55,-35,-5,-9,20,-16,223
23,16,-12,0,19,24,22,28,7,334
-10,-6,-13,10,11,22,19,69,161,296
-117,-15,-2,21,15,20,27,97,251,-15
-34,2,0,-3,0,-6,13,73,193,-192
233,21,-31,-55,-70,-62,-51,0,119,-108
462,2,-47,-73,-92,-76,-74,-43,90,222
456,-55,-54,-67,-84,-80,-82,-29,159,473
13,-136,-76,-65,-62,-41,-39,38,239,473
-230,-153,-143,-31,-11,2,-19,42,133,343
-86,-117,-147,-54,-29,-22,-48,-1,-10,312
250,-19,-76,-116,-129,-133,-165,-140,-127,203
648,117,-73,-179,-256,-296,-351,-345,-228,44
707,203,-41,-128,-207,-253,-353,-339,-253,-145
351,135,-25,17,-8,-51,-110,-110,-179,-294
-367,-2,132,201,239,209,181,137,-153,-590
-727,-112,162,240,242,184,163,133,-51,-341
-162,-11,114,118,-9,-129,-189,-187,-78,345
19,48,137,124,-39,-149,-218,-241,-138,349
-409,-84,149,191,126,97,86,77,34,10
-578,-173,98,133,209,234,309,353,328,-160
-421,-148,-27,-31,189,256,335,374,325,-332
-84,-52,-101,-174,33,126,187,235,204,-225
107,20,-39,-118,-17,4,46,93,68,-102
88,28,-8,-82,-11,-22,0,20,-94,-102
-44,28,-2,-60,0,-13,0,-22,-190,-168
0,18,43,24,46,0,0,-35,-151,47
315,-29,31,-40,-58,-78,-91,-89,3,744
722,21,-9,-166,-205,-207,-237,-208,-4,1127
598,38,-22,-123,-126,-147,-152,-143,22,782
-53,-99,-20,-9,19,34,40,39,27,-16
-346,-80,44,66,79,90,67,71,-25,-677
-407,-3,133,133,118,95,113,103,-26,-883
-499,1,159,155,146,120,152,128,-2,-795
-456,-8,116,125,159,137,151,143,5,-628
-289,0,2,-29,59,69,92,105,-15,-374
-113,3,-62,-124,-27,17,72,72,-40,-209
78,1,-67,-127,-58,-28,28,0,-108,-241
185,18,-36,-109,-61,-46,-25,-45,-112,-270
29,17,-1,-54,-31,-41,-31,-19,-29,-216
-63,-18,-10,-49,-28,-24,-2,13,72,-104
-13,-59,-24,-39,-8,27,39,0,12,-26
-40,-5,38,47,79,93,84,-8,-95,-96
-85,8,31,64,90,94,80,-2,-80,-52
-74,7,0,34,32,54,46,-1,-5,79
62,41,-22,15,-34,-21,-27,-40,42,138
212,58,-36,-16,-49,-59,-83,-56,60,241
310,94,-32,-54,-42,-54,-67,-38,68,369
348,130,-2,-69,-78,-95,-126,-77,30,397
218,84,47,-47,-66,-73,-109,-66,1,268
46,-58,30,-26,-50,-49,-80,-78,-3,22
11,-151,-26,-30,-68,-94,-122,-169,-59,13
48,-33,16,14,-80,-171,-227,-332,-154,233
67,130,93,115,-22,-183,-273,-366,-112,399
186,154,54,69,-49,-209,-280,-298,7,605
182,66,-9,6,-44,-84,-75,-75,44,354
-247,-103,45,107,130,213,311,256,76,-265
-552,-136,86,125,214,319,398,324,0,-798
-424,-97,-1,36,157,244,267,224,-86,-911
-187,-80,-148,-32,56,143,166,133,-39,-522
-65,-84,-183,-58,20,81,127,125,110,-26
48,-22,-33,-15,4,24,49,50,64,204
121,32,-17,-19,-30,-16,0,8,0,156
50,-7,-54,-29,-48,-4,18,39,-24,-117
67,-36,-40,4,-97,-46,-5,18,-18,-53
142,-16,10,45,-89,-37,-41,-46,-28,197
76,2,63,100,-9,35,-31,-83,-87,416
-7,53,92,106,38,50,-20,-52,-53,469
-195,-4,-17,-6,28,43,-3,-29,21,194
-218,-60,-198,-221,-82,-35,-88,-56,86,-141
-65,28,-160,-225,-126,-84,-157,-83,75,-415
-179,38,-38,-87,-60,-16,-64,51,90,-607
-196,-42,-11,-36,7,57,48,120,38,-374
73,-33,-46,-52,-21,18,18,34,-39,20
324,71,-38,-49,-55,-47,-54,-46,-59,248
219,52,24,20,30,33,-13,-1,-36,273
-57,-16,73,78,120,116,61,88,28,35
-185,-69,46,68,104,84,46,82,15,-280
-176,-66,5,47,50,26,-15,30,-16,-338
-223,-15,42,95,80,62,21,41,-41,-332
-146,33,85,125,96,80,52,66,-5,-161
-33,49,62,68,43,20,-5,21,15,103
112,45,-42,-48,-48,-47,-82,-40,6,321
205,49,-141,-182,-139,-86,-126,-68,-9,355
308,60,-82,-140,-91,-56,-85,-18,-5,178
271,-9,-3,-51,-32,-18,-45,-11,-32,-46
93,-28,0,-8,-8,-23,-40,-65,-120,0
-97,-6,-36,42,29,-21,-43,-89,-136,36
50,-34,-131,46,29,-55,-46,-9,202,186
-19,-25,43,101,76,19,44,42,182,-11
-37,10,118,95,65,27,64,22,72,-124
61,45,98,61,26,2,57,22,57,40
161,53,20,-8,-51,-43,10,-33,6,258
4,33,-9,-14,-50,-49,-42,-103,-82,173
-175,-36,4,60,39,19,19,-68,-146,-40
-60,-42,17,71,46,24,18,-82,-222,-237
50,32,26,49,12,-6,-36,-149,-344,-453
50,112,56,68,-17,-59,-96,-188,-374,-405
-28,157,99,76,-9,-43,-65,-50,-233,-224
-88,108,94,62,35,24,35,161,38,-26
-17,59,69,75,80,73,79,180,132,128
118,62,-17,26,68,53,58,78,105,196
17,17,-141,-61,32,43,48,62,117,165
-102,-31,-84,-62,5,51,66,119,192,122
-140,-69,-32,-68,-49,1,27,156,298,113
-26,-70,-64,-128,-157,-99,-75,95,296,143
130,-51,-126,-168,-210,-144,-114,90,265,216
236,-25,-110,-140,-149,-94,-47,104,199,369
262,34,-12,-58,-63,-37,1,60,193,555
197,113,94,16,-9,-35,-34,-51,104,519
192,205,132,34,-27,-107,-124,-186,-106,253
-69,131,113,73,35,-7,19,-31,-107,-298
