(-0.4703369, 0.364868164, 0.5571289, -0.5789795)
(-0.470092773, 0.364624023, 0.557312, -0.579223633)
(-0.473022461, 0.366882324, 0.558105469, -0.574584961)
(-0.473022461, 0.366882324, 0.558105469, -0.574584961)
(-0.474609375, 0.3694458, 0.5585327, -0.571228)
(-0.475219727, 0.369873047, 0.559082031, -0.569885254)
(-0.475219727, 0.369873047, 0.559082031, -0.569885254)
(-0.4744873, 0.369506836, 0.5601196, -0.569702148)
(-0.471923828, 0.370239258, 0.561218262, -0.5703125)
(-0.470214844, 0.371276855, 0.5611572, -0.5710449)
(-0.470214844, 0.371276855, 0.5611572, -0.5710449)
(-0.467224121, 0.3711548, 0.5618286, -0.572937)
(-0.467224121, 0.3711548, 0.5618286, -0.572937)
(-0.4630127, 0.371398926, 0.5634155, -0.574707031)
(-0.456665039, 0.3779297, 0.563659668, -0.5751953)
(-0.456665039, 0.3779297, 0.563659668, -0.5751953)
(-0.453369141, 0.380065918, 0.5634155, -0.576660156)
(-0.453369141, 0.380065918, 0.5634155, -0.576660156)
(-0.449707031, 0.381958, 0.5626831, -0.5789795)
(-0.449707031, 0.381958, 0.5626831, -0.5789795)
(-0.4456787, 0.383361816, 0.5628662, -0.580993652)
(-0.4456787, 0.383361816, 0.5628662, -0.580993652)
(-0.4420166, 0.385498047, 0.5626831, -0.582580566)
(-0.436950684, 0.3922119, 0.5597534, -0.584777832)
(-0.429443359, 0.395629883, 0.559143066, -0.588562)
(-0.429443359, 0.395629883, 0.559143066, -0.588562)
(-0.428710938, 0.40222168, 0.555480957, -0.588134766)
(-0.427063, 0.406982422, 0.553405762, -0.58795166)
(-0.426513672, 0.4083252, 0.5527344, -0.58807373)
(-0.424865723, 0.4100952, 0.551330566, -0.589355469)
(-0.426879883, 0.4095459, 0.5510864, -0.588501)
(-0.426879883, 0.4095459, 0.5510864, -0.588501)
(-0.41986084, 0.4093628, 0.5515747, -0.5932007)
(-0.412719727, 0.4128418, 0.549560547, -0.59765625)
(-0.412719727, 0.4128418, 0.549560547, -0.59765625)
(-0.404968262, 0.41607666, 0.5476074, -0.602539063)
(-0.404418945, 0.411438, 0.5509033, -0.603027344)
(-0.404418945, 0.411438, 0.5509033, -0.603027344)
(-0.405151367, 0.415405273, 0.548339844, -0.602172852)
(-0.405151367, 0.415405273, 0.548339844, -0.602172852)
(-0.407348633, 0.410461426, 0.550292969, -0.6022949)
(-0.407714844, 0.411193848, 0.549926758, -0.6018677)
(-0.4074707, 0.411865234, 0.5498657, -0.601623535)
(-0.4074707, 0.411865234, 0.5498657, -0.601623535)
(-0.405639648, 0.4111328, 0.549743652, -0.6034546)
(-0.408630371, 0.413574219, 0.548522949, -0.600952148)
(-0.41973877, 0.4081421, 0.552063, -0.5936279)
(-0.41973877, 0.4081421, 0.552063, -0.5936279)
(-0.427734375, 0.40625, 0.5531616, -0.588256836)
(-0.430480957, 0.4091797, 0.551330566, -0.585876465)
(-0.430480957, 0.4091797, 0.551330566, -0.585876465)
(-0.42175293, 0.41204834, 0.5496826, -0.5917969)
(-0.426330566, 0.408935547, 0.5519409, -0.588501)
(-0.426330566, 0.408935547, 0.5519409, -0.588501)
(-0.4227295, 0.4128418, 0.549194336, -0.5910034)
(-0.417663574, 0.413146973, 0.5489502, -0.594543457)
(-0.417663574, 0.413146973, 0.5489502, -0.594543457)
(-0.4147339, 0.4152832, 0.547302246, -0.5966797)
(-0.420166016, 0.415405273, 0.547485352, -0.592590332)
(-0.427185059, 0.4138794, 0.54901123, -0.587219238)
(-0.428771973, 0.413330078, 0.549377441, -0.5860596)
(-0.428771973, 0.413330078, 0.549377441, -0.5860596)
(-0.43536377, 0.411560059, 0.5509033, -0.580993652)
(-0.43536377, 0.411560059, 0.5509033, -0.580993652)
(-0.442321777, 0.4099121, 0.552185059, -0.5756836)
(-0.442321777, 0.4099121, 0.552185059, -0.5756836)
(-0.447631836, 0.408935547, 0.5529785, -0.571472168)
(-0.447631836, 0.408935547, 0.5529785, -0.571472168)
(-0.4475708, 0.409790039, 0.55255127, -0.5713501)
(-0.439697266, 0.411193848, 0.551635742, -0.5772705)
(-0.4364624, 0.412597656, 0.5507202, -0.5796509)
(-0.4434204, 0.411743164, 0.5513916, -0.57421875)
(-0.4434204, 0.411743164, 0.5513916, -0.57421875)
(-0.4407959, 0.41204834, 0.551147461, -0.576293945)
(-0.4407959, 0.41204834, 0.551147461, -0.576293945)
(-0.436035156, 0.4133911, 0.5500488, -0.5800171)
(-0.443359375, 0.412719727, 0.5507202, -0.5743408)
(-0.4326172, 0.4133911, 0.550231934, -0.5824585)
(-0.440734863, 0.413574219, 0.550231934, -0.5761719)
(-0.4335327, 0.414367676, 0.5498047, -0.5814209)
(-0.4335327, 0.414367676, 0.5498047, -0.5814209)
(-0.4354248, 0.414367676, 0.5499878, -0.579834)
(-0.4354248, 0.414367676, 0.5499878, -0.579834)
(-0.440979, 0.4156494, 0.549072266, -0.5755615)
(-0.431152344, 0.415344238, 0.549377441, -0.5829468)
(-0.4404297, 0.41619873, 0.548645, -0.57598877)
(-0.440673828, 0.4171753, 0.547973633, -0.5757446)
(-0.440673828, 0.4171753, 0.547973633, -0.5757446)
(-0.432006836, 0.416564941, 0.5484009, -0.5823364)
(-0.422973633, 0.414855957, 0.549560547, -0.5890503)
(-0.4222412, 0.414550781, 0.5498047, -0.5895386)
(-0.4222412, 0.414550781, 0.5498047, -0.5895386)
(-0.429138184, 0.41607666, 0.54888916, -0.5843506)
(-0.438781738, 0.4182129, 0.547485352, -0.5769043)
(-0.443847656, 0.419921875, 0.5463257, -0.572876)
(-0.443847656, 0.419921875, 0.5463257, -0.572876)
(-0.443847656, 0.419921875, 0.5463257, -0.572876)
(-0.4406128, 0.420227051, 0.5461426, -0.5753174)
(-0.43145752, 0.419311523, 0.5467529, -0.5822754)
(-0.43145752, 0.419311523, 0.5467529, -0.5822754)
(-0.422790527, 0.4177246, 0.5477295, -0.5888672)
(-0.4335327, 0.41973877, 0.5463867, -0.5807495)
(-0.4335327, 0.41973877, 0.5463867, -0.5807495)
(-0.4364624, 0.4215088, 0.545227051, -0.5784302)
(-0.434631348, 0.420959473, 0.545410156, -0.579956055)
(-0.4345703, 0.420959473, 0.545410156, -0.5800171)
(-0.4345703, 0.420959473, 0.545410156, -0.5800171)
(-0.43359375, 0.419921875, 0.545715332, -0.5812378)
(-0.43359375, 0.419921875, 0.545715332, -0.5812378)
(-0.433898926, 0.419555664, 0.5460205, -0.580993652)
(-0.433898926, 0.419555664, 0.5460205, -0.580993652)
(-0.4300537, 0.418640137, 0.5465698, -0.5839844)
(-0.4300537, 0.418640137, 0.5465698, -0.5839844)
(-0.442260742, 0.42010498, 0.5454712, -0.574768066)
(-0.451782227, 0.422119141, 0.544006348, -0.567260742)
(-0.458435059, 0.42401123, 0.5425415, -0.5618286)
(-0.458435059, 0.42401123, 0.5425415, -0.5618286)
(-0.460449219, 0.425048828, 0.5418701, -0.5601196)
(-0.455444336, 0.424926758, 0.541931152, -0.564147949)
(-0.455444336, 0.424926758, 0.541931152, -0.564147949)
(-0.4451294, 0.423400879, 0.5430908, -0.5723877)
(-0.4451294, 0.423400879, 0.5430908, -0.5723877)
(-0.4472046, 0.422851563, 0.543640137, -0.5706787)
(-0.449401855, 0.4241333, 0.5426636, -0.5689087)
(-0.449401855, 0.4241333, 0.5426636, -0.5689087)
(-0.448913574, 0.4241333, 0.5422363, -0.569702148)
(-0.448913574, 0.4241333, 0.5422363, -0.569702148)
(-0.448730469, 0.4241333, 0.5422363, -0.5698242)
(-0.4486084, 0.424072266, 0.5422363, -0.5699463)
(-0.4486084, 0.424072266, 0.5422363, -0.5699463)
(-0.448486328, 0.4241333, 0.5422363, -0.570068359)
(-0.444580078, 0.425354, 0.5419922, -0.5723877)
(-0.444580078, 0.425354, 0.5419922, -0.5723877)
(-0.444030762, 0.425354, 0.542114258, -0.5726929)
(-0.444030762, 0.425354, 0.542114258, -0.5726929)
(-0.4439087, 0.425354, 0.542114258, -0.572814941)
(-0.4439087, 0.425354, 0.542114258, -0.572814941)
(-0.4430542, 0.425476074, 0.5421753, -0.5733032)
(-0.4430542, 0.425476074, 0.5421753, -0.5733032)
(-0.442993164, 0.4255371, 0.5421753, -0.573364258)
(-0.440551758, 0.426147461, 0.541931152, -0.5749512)
(-0.440490723, 0.4262085, 0.541931152, -0.5750122)
(-0.4404297, 0.426147461, 0.541931152, -0.575073242)
(-0.4404297, 0.426147461, 0.541931152, -0.575073242)
(-0.4404297, 0.426147461, 0.541931152, -0.575073242)
(-0.440307617, 0.426147461, 0.541931152, -0.5751343)
(-0.4395752, 0.426452637, 0.5419922, -0.5755005)
(-0.437744141, 0.426269531, 0.542297363, -0.576660156)
(-0.43762207, 0.426330566, 0.542297363, -0.5767212)
(-0.43762207, 0.426330566, 0.542297363, -0.5767212)
(-0.43737793, 0.426086426, 0.542297363, -0.5770874)
(-0.43737793, 0.426086426, 0.542297363, -0.5770874)
(-0.4373169, 0.426086426, 0.542297363, -0.577148438)
(-0.4373169, 0.426086426, 0.542297363, -0.577148438)
(-0.437255859, 0.426147461, 0.542297363, -0.577148438)
(-0.437255859, 0.426147461, 0.542297363, -0.577148438)
(-0.437194824, 0.426147461, 0.542297363, -0.5772095)
(-0.437072754, 0.426330566, 0.5421753, -0.5772705)
(-0.437072754, 0.426330566, 0.5421753, -0.5772705)
(-0.437011719, 0.426330566, 0.5421753, -0.5772705)
(-0.437011719, 0.426330566, 0.5421753, -0.5772705)
(-0.436950684, 0.426330566, 0.5421753, -0.577331543)
(-0.436889648, 0.4263916, 0.5421753, -0.5773926)
(-0.4359131, 0.427001953, 0.542114258, -0.577697754)
(-0.4359131, 0.427001953, 0.542114258, -0.577697754)
(-0.435546875, 0.427185059, 0.5422363, -0.5777588)
(-0.435302734, 0.427307129, 0.542297363, -0.5777588)
(-0.435302734, 0.427307129, 0.542297363, -0.5777588)
(-0.4354248, 0.427734375, 0.542114258, -0.577514648)
(-0.4354248, 0.427734375, 0.542114258, -0.577514648)
(-0.4354248, 0.427734375, 0.542114258, -0.577514648)
(-0.43536377, 0.427734375, 0.542114258, -0.5775757)
(-0.43536377, 0.427734375, 0.542114258, -0.5775757)
(-0.434936523, 0.4276123, 0.5423584, -0.5777588)
(-0.434936523, 0.4276123, 0.5423584, -0.5777588)
(-0.4348755, 0.4276123, 0.5423584, -0.5778198)
(-0.4348755, 0.4276123, 0.5423584, -0.5778198)
(-0.4348755, 0.42767334, 0.5423584, -0.577697754)
(-0.4348755, 0.42767334, 0.5423584, -0.577697754)
(-0.4345703, 0.42767334, 0.5425415, -0.577880859)
(-0.43182373, 0.427856445, 0.5444946, -0.577880859)
(-0.43182373, 0.427856445, 0.5444946, -0.577880859)
(-0.43182373, 0.427856445, 0.5444946, -0.5779419)
(-0.431884766, 0.427978516, 0.5444336, -0.5778198)
(-0.431884766, 0.427978516, 0.5444336, -0.5778198)
(-0.431884766, 0.427978516, 0.5444336, -0.5778198)
(-0.431884766, 0.427978516, 0.5444336, -0.5778198)
(-0.431884766, 0.427978516, 0.5444336, -0.5778198)
(-0.431884766, 0.427978516, 0.5444336, -0.5778198)
(-0.43170166, 0.427856445, 0.544555664, -0.5779419)
(-0.43170166, 0.427856445, 0.544555664, -0.5779419)
(-0.431213379, 0.4276123, 0.5447998, -0.5782471)
(-0.431213379, 0.4276123, 0.5447998, -0.5782471)
(-0.431152344, 0.4276123, 0.5447998, -0.5783081)
(-0.431152344, 0.4276123, 0.5447998, -0.5783081)
(-0.431335449, 0.427734375, 0.544555664, -0.5783081)
(-0.431335449, 0.427734375, 0.544555664, -0.5783081)
