105,-33,-15,-31,-19,-48,-37,-18,109,136
176,19,-35,-9,-32,-86,-59,-79,37,102
106,-23,-31,9,-67,-119,-61,-85,0,117
14,-83,-17,-33,-17,-95,27,-89,58,139
22,-94,-113,-113,0,-11,144,-97,83,141
88,-24,-162,-165,-108,54,130,-49,58,115
147,142,68,-87,-166,104,-98,-20,83,91
-48,40,107,4,-78,134,-222,-180,-33,-12
13,27,87,29,59,107,-111,-243,-94,65
310,202,187,69,25,-16,-66,-186,3,302
403,214,145,12,-48,-131,-173,-124,44,378
334,140,67,-13,174,-149,-96,263,148,303
168,54,19,-69,38,-30,147,390,203,134
-81,-45,-26,-110,-84,29,168,122,25,-149
-162,-92,-72,-105,-35,40,105,-88,-125,-267
-84,-135,-110,-115,-15,-24,-34,-206,-151,-116
-163,-194,-82,13,130,-83,-168,-276,-209,-69
-204,-184,-88,48,178,-10,-31,-37,-196,-111
-44,-50,-39,-59,-5,63,114,168,-55,-8
43,43,40,-66,-225,85,178,180,56,140
22,48,80,45,-83,93,113,123,18,122
20,45,96,135,46,64,40,86,9,70
72,70,88,128,22,0,-21,75,5,9
108,120,121,155,1,-70,-66,-1,-8,-21
40,60,117,126,7,-53,-16,41,74,0
-5,16,50,3,-39,-52,1,118,133,28
53,55,34,-53,-77,-65,-11,49,109,96
97,30,-14,-95,-84,-43,-3,34,91,128
16,-32,-38,-79,-32,8,51,82,101,-12
-112,-111,-74,-37,26,61,63,77,96,-194
-129,-92,-96,-8,-1,-22,-26,-99,-53,-268
-27,-19,-109,-119,-116,-110,-89,-170,-87,-154
46,68,-5,-104,-161,-113,-61,-87,13,-28
-13,57,59,3,-54,-40,28,-11,41,5
-156,-46,41,88,71,71,85,-1,-9,8
-104,-83,0,69,39,82,17,-46,-47,192
82,-31,-19,-6,-78,39,31,-58,7,411
156,20,-29,1,-118,52,156,-33,32,467
108,14,-13,74,-101,102,284,101,126,393
108,97,40,151,131,92,217,135,151,194
70,223,170,206,367,127,-25,6,40,-108
-30,231,222,172,268,75,-161,-67,-69,-308
-85,119,118,76,138,-71,-135,-39,-83,-316
-15,20,-21,-37,-11,-244,-146,-29,-73,-172
185,0,-93,-95,-67,-301,-114,-76,-84,99
163,-9,-109,-114,-11,-159,1,-38,-57,154
53,-9,-68,-106,-66,-14,96,82,58,139
7,-40,-112,-131,-181,-75,-72,21,56,152
-152,-133,-109,-71,-75,-76,-184,-113,-72,-55
-268,-152,-49,-8,20,0,-71,-92,-146,-341
-359,-128,-1,68,53,45,15,-25,-159,-609
-420,-154,17,93,63,85,95,44,-241,-689
-326,-167,-36,29,-23,81,111,59,-245,-481
-131,-110,-118,-3,-127,8,17,6,-197,-221
-43,-112,-144,7,-110,-53,-165,-91,-195,-111
-57,-86,-60,27,1,-30,-174,-123,-146,-70
38,56,75,122,312,71,-115,-125,-96,35
54,55,119,123,368,202,55,101,115,138
129,59,-13,-1,55,88,109,186,180,215
152,24,-111,-2,-9,-25,99,50,99,230
104,-19,-91,-31,-43,-51,111,-48,25,209
49,50,21,-36,-10,33,116,-90,0,101
-83,58,-26,-78,23,132,98,-111,8,-31
-155,-51,-96,-233,-87,107,62,161,108,-41
-50,-71,-135,-314,-209,4,113,469,187,10
52,25,-42,-249,-197,-48,60,209,53,-52
-32,-2,49,67,-2,-99,-40,-18,-136,-227
-126,-124,10,139,92,-122,-105,-127,-185,-190
-28,-124,-81,-41,24,-73,-99,-92,-66,78
187,10,-109,-125,-211,9,-52,6,66,212
263,183,-16,23,-138,79,-17,12,26,103
33,128,69,288,191,170,86,70,38,2
47,39,74,192,122,58,50,69,68,252
350,77,79,1,-4,-132,-90,-4,65,696
559,180,78,-89,-42,-170,-114,-31,108,923
462,126,36,-191,-161,-72,-29,12,138,770
308,35,-35,-300,-227,58,79,90,157,525
150,17,-42,-239,-48,183,115,14,70,248
-117,-40,32,56,99,141,117,-164,-157,-228
-476,-169,44,158,106,127,177,-373,-427,-842
-764,-260,18,150,142,279,288,-481,-506,-1216
-583,-111,98,139,20,205,95,-470,-359,-977
-321,-30,90,104,16,-19,-151,-510,-297,-664
-115,6,92,142,254,-129,-147,-378,-149,-312
24,4,14,-36,14,-130,222,241,98,-5
-45,-117,-136,-268,-378,-84,474,678,155,-25
-110,-149,-187,-238,-159,-9,182,525,68,-125
24,12,-121,-73,-39,-105,-391,334,106,-14
125,145,87,215,-57,-294,-572,108,73,22
-28,110,245,407,97,-245,-315,33,21,-148
-141,9,162,303,304,52,-86,-77,-90,-284
-113,1,89,153,256,118,21,-107,-31,-165
81,60,76,41,42,-43,-70,-107,119,185
245,76,46,-48,-132,-187,-227,12,195,495
190,5,-75,-115,-180,-141,-73,344,214,500
-5,-75,-195,-140,-171,-42,70,306,148,241
-140,-116,-125,-101,-61,10,92,198,89,-28
-202,-136,-50,-28,133,17,42,86,-20,-167
-177,-106,-40,-53,64,9,49,84,-44,-132
-122,-15,-27,-47,36,40,188,130,29,-2
-48,9,-18,-10,26,14,204,78,63,89
45,-4,-16,-56,-31,-31,145,27,65,117
139,31,2,-31,0,-64,73,-64,40,178
152,42,40,114,82,-49,34,-191,-96,135
157,25,-10,85,103,-14,38,-158,-144,159
312,126,31,0,88,97,-17,-87,-51,239
337,192,78,-63,-36,115,-195,-68,-57,167
212,147,-19,-137,-47,80,-154,-68,-17,156
83,3,-66,-95,-123,14,-58,-73,65,260
-81,-128,-65,78,-91,4,-143,-160,35,197
-5,-67,-70,18,-61,148,-150,-62,94,232
149,27,5,-1,85,219,-50,159,195,312
106,0,29,124,196,126,-117,-1,35,94
-16,-34,17,106,8,-114,-210,-282,-201,-198
-121,-61,-36,-5,-34,-184,-80,-280,-178,-313
-102,-68,-81,-115,-109,-127,63,-109,-22,-219
-100,-85,-91,-133,-190,-9,71,-67,38,-247
-260,-84,-28,-13,-34,83,-48,-106,-92,-554
-358,-45,33,52,27,63,-21,276,-76,-674
-280,-20,63,57,42,40,32,316,3,-387
-53,31,44,7,112,-19,-7,105,37,35
159,110,63,-1,116,-80,-40,71,105,258
286,198,128,44,35,-72,-68,55,88,319
278,129,87,-8,-31,-106,-128,5,14,369
220,-10,13,24,-16,-104,-163,-24,46,386
269,95,58,70,17,-71,-143,-36,95,288
132,205,163,127,67,-33,-97,-92,8,26
-146,110,131,166,63,-46,-112,-150,-74,-172
-290,-110,-16,87,-12,-38,-8,-59,-34,-258
-147,-123,-109,-84,-43,-4,146,63,101,-152
27,51,-49,-157,-91,-6,175,134,204,-80
36,136,-5,-125,-115,-79,147,93,117,-215
-112,55,-73,-135,-107,-76,126,75,3,-353
-219,-28,-65,-77,-13,-9,76,20,-29,-340
-258,-59,-25,13,80,31,35,-26,-37,-278
-165,-49,-39,40,72,43,11,-56,-75,-102
8,-4,-60,-28,-60,83,87,30,36,172
154,18,-45,-95,-79,74,92,80,145,357
284,66,-11,18,88,27,35,66,152,478
373,93,52,115,51,-94,-84,-24,71,598
340,48,24,78,5,-97,-138,-85,40,712
262,7,-3,45,50,7,-47,5,130,711
271,24,0,6,21,59,20,81,207,602
213,27,-4,39,115,79,-34,-44,31,232
-42,-85,-42,57,211,103,-3,-140,-144,-242
-304,-174,-96,-7,113,113,160,-94,-175,-522
-333,-152,-89,-105,-262,-4,298,37,-48,-488
-329,-128,-40,-59,-309,-151,189,44,57,-428
-338,-111,-18,29,-63,-76,-82,-122,-28,-451
-289,-69,-24,1,3,83,-40,-118,-14,-411
-247,-33,-14,-54,-206,89,197,88,79,-356
-226,-48,15,12,-133,48,338,82,-34,-363
-214,-119,-4,103,145,163,518,-64,-154,-293
-211,-163,-13,153,182,214,542,22,-57,-134
19,-5,87,157,229,150,126,47,70,117
170,178,208,221,355,130,-220,106,107,240
222,233,159,57,152,71,-395,182,189,327
153,168,43,-123,-2,116,-176,178,206,253
118,180,118,14,57,81,-167,144,173,139
75,180,150,56,-8,-76,-229,90,115,30
-67,93,6,1,-46,-77,-135,94,73,-84
-79,33,-92,99,-6,-110,-171,-43,-29,-108
-10,-54,-198,-29,-124,-162,-201,-92,-26,26
36,-146,-309,-236,-265,-184,-157,-72,56,179
51,-170,-253,-285,-376,-191,-106,-48,46,198
16,-128,-212,-233,-367,-199,-81,-35,-5,155
13,-119,-95,-78,-91,-105,-44,-95,-69,137
184,-16,30,-72,12,60,94,-128,-68,213
181,-15,-28,-172,12,150,245,-135,-20,273
96,-15,0,-68,86,263,284,-153,-45,228
126,61,111,93,152,299,98,-107,-88,110
88,90,167,109,132,200,-132,126,-79,-136
-65,55,105,69,93,134,-240,156,-129,-398
-183,-8,44,-9,45,68,-151,39,-149,-467
-136,-1,99,-77,3,-60,-4,114,-75,-342
-67,60,139,-22,87,-153,8,109,-62,-247
-66,49,133,39,104,-108,56,89,-40,-182
-164,-87,64,189,105,23,124,-38,-88,-180
-205,-169,34,252,93,14,51,-224,-194,-191
-53,-112,-8,106,24,-55,-51,-353,-201,-28
38,-59,21,133,142,-87,-214,-453,-184,127
31,-79,10,103,187,-31,-128,-33,68,215
113,-104,-187,-140,-145,-92,44,404,255,243
178,-60,-251,-197,-214,-94,8,145,123,166
225,12,-110,-161,-130,-66,-46,-30,50,186
220,61,-30,-34,69,136,27,-129,-38,210
269,119,75,9,93,243,93,-151,-31,362
228,39,57,-37,3,164,72,-161,-2,461
165,59,47,12,48,111,-16,-102,76,395
248,178,121,47,26,-58,-81,244,188,293
154,112,101,72,-31,-216,-100,219,31,65
-51,24,59,55,-63,-231,-127,20,-93,-204
-169,-68,-85,-49,-117,-204,-86,-2,-100,-356
-124,-66,-75,-65,-85,-175,-65,-70,-106,-353
-149,-102,-87,-78,-33,-100,19,-66,-89,-315
-265,-166,-101,-72,-15,9,198,-43,-45,-324
-228,-128,-46,-72,-203,1,274,-39,8,-276
-162,-116,-39,-71,-183,-37,202,-57,2,-220
-82,-108,-50,-116,13,34,73,77,37,-93
113,22,26,-113,-47,-66,-157,118,58,165
97,26,47,-7,-40,-65,-137,73,62,254
-83,-38,20,32,65,123,54,114,142,122
-104,26,3,-18,60,197,86,78,62,-79
30,139,-15,-35,1,125,-17,-48,-81,-174
-29,68,-104,-1,52,53,-29,-79,-156,-254
-84,2,-53,80,230,-48,1,-42,-74,-201
-21,31,69,178,475,32,-43,-64,-83,-146
32,98,169,180,184,61,53,81,19,-70
27,96,153,55,-220,1,112,160,118,24
-32,35,2,47,-175,-30,38,22,48,53
-49,-35,-66,20,-129,-49,7,-101,-43,102
-27,-84,-18,-20,-56,-38,13,-155,-82,143
37,-78,-12,-32,119,2,15,-172,-79,181
112,-34,-11,-90,52,-12,5,-104,4,271
84,-10,13,-84,-88,-50,39,69,40,307
6,-49,-9,-49,-71,-148,-11,88,-2,222
-38,-100,-85,-46,25,-126,-68,-53,-88,116
-69,-118,-134,-49,75,-67,-24,-5,-42,52
45,-13,-13,-33,36,-9,2,53,20,88
316,155,72,-139,-184,-1,-4,64,96,301
369,170,36,-169,-172,-15,-27,50,90,374
338,78,-111,-71,-39,-1,-37,39,103,416
360,96,-92,-52,-37,-35,-103,-32,76,390
229,118,55,2,8,31,-73,-28,9,137
40,93,112,33,49,104,-20,-13,-52,-177
-169,3,-7,-92,1,96,68,-30,-98,-469
-364,-106,-159,-161,-26,64,227,22,-28,-695
-382,-95,-140,-177,-121,10,366,55,-3,-760
-295,30,47,30,-161,70,526,-45,-160,-671
-245,93,128,158,-231,49,406,-68,-93,-392
-309,9,62,126,-123,-3,180,-102,-42,-274
-296,-57,33,103,249,55,-114,-50,-13,-263
-192,-27,51,119,320,10,-373,52,108,-140
-153,0,81,148,121,-80,-336,206,187,-29
-112,14,66,156,76,-113,-293,72,89,29
23,47,86,148,56,-66,-364,-85,17,92
73,81,94,92,30,59,-219,-41,40,103
48,98,83,29,-28,59,-108,3,22,75
-18,71,101,80,29,96,-20,73,34,11
-23,34,71,155,92,79,-18,59,12,-10
45,47,63,130,154,-3,-61,58,34,96
88,42,84,135,188,-20,-76,49,62,237
105,-27,4,35,71,10,-16,32,92,333
172,-43,-64,-58,0,1,88,-47,57,394
236,-54,-102,-89,-25,26,201,-180,-48,377
253,-61,-129,-129,-68,11,187,-196,-32,373
138,-68,-96,-119,-89,-28,-6,-226,-28,222
-4,-41,-33,-74,-62,-59,-239,-249,-107,-50
-81,-27,-30,-95,-77,-81,-197,95,-79,-177
-83,-36,-47,-95,-103,-94,-88,159,-59,-142
-65,-32,-56,-55,-76,-124,-128,16,-88,-44
-46,-10,-33,10,-47,-181,-236,4,-99,12
-54,-49,-33,22,-38,-139,-152,146,-68,34
-56,-47,-49,25,60,-23,-30,43,-62,65
16,44,19,13,96,131,90,2,-43,71
62,78,41,-23,-8,155,95,-19,-71,23
-45,6,9,11,68,222,80,0,-56,-108
-52,56,31,27,75,190,138,216,53,-173
20,88,-28,25,16,83,129,313,60,-172
124,137,39,66,-13,43,56,139,9,-82
83,125,63,37,-6,88,91,105,51,-33
-81,-5,-14,-4,-23,96,98,86,50,-90
-172,-117,-78,-47,-36,98,45,10,14,-133
-164,-174,-121,-82,-2,114,-7,-87,-90,-184
-157,-183,-79,97,27,74,-9,-87,-95,-222
-101,-76,26,233,46,-19,-96,-159,-147,-210
4,58,107,128,-75,-39,-68,-165,-153,-143
-98,7,71,59,7,-83,35,31,-35,-163
-67,7,28,61,140,-171,41,152,72,-54
132,17,-35,33,200,-100,36,152,133,269
204,-25,-101,27,229,74,63,142,232,547
318,36,-47,-33,-58,127,60,128,290,626
525,195,1,-108,-206,143,61,55,174,514
415,185,5,-121,-99,111,10,-10,65,316
230,100,-8,-163,-133,-10,-29,-19,47,139
119,17,-67,-210,-247,-157,-16,-36,10,-112
-135,-94,-92,-127,-254,-146,-29,-105,-94,-493
-382,-158,-134,-82,-143,32,-19,-163,-169,-765
-278,-158,-93,-4,-43,29,-111,-289,-228,-540
-103,-124,-73,31,81,-93,-180,-252,-163,-81
-18,-34,-41,-40,92,-238,-28,100,120,204
133,136,75,-55,-76,-248,58,191,247,314
125,113,-26,-100,-148,-80,68,112,142,257
-128,-46,-123,22,-8,61,45,43,41,-11
-272,-84,36,224,175,123,2,-91,-125,-288
-143,76,180,223,180,169,38,-46,-85,-274
24,237,210,96,-124,119,108,91,97,-77
-44,175,206,66,-161,15,68,73,64,-116
-42,101,165,49,-123,-119,3,38,8,-100
77,107,106,56,-47,-162,-42,-16,-21,20
112,85,114,79,160,-51,-53,-66,-37,64
66,31,60,43,139,-6,-34,-33,-20,48
-22,-55,0,22,57,23,-23,-127,-70,29
-11,-113,-50,-14,-21,60,-13,-200,-81,162
35,-137,-106,-113,-119,115,-3,-226,-97,245
46,-146,-121,-164,-140,78,-68,-204,-72,247
83,-123,-122,-161,-26,3,-86,151,94,244
140,-78,-144,-240,-72,-75,175,487,202,220
132,-41,-106,-197,-53,-162,223,332,141,147
-24,-70,-57,-85,23,-121,172,209,51,-60
-35,-41,-35,-68,-7,-4,168,67,-71,-249
5,44,-34,-137,-23,79,276,17,-107,-311
-105,2,-4,-72,44,135,298,57,-87,-305
-32,38,112,81,114,39,4,41,-45,-107
153,149,135,64,58,-77,-357,-10,42,231
159,110,98,37,68,-37,-271,-24,19,344
101,72,98,154,178,-11,-126,-31,4,354
46,26,98,301,243,-21,-107,-78,-27,285
-57,-32,113,329,208,0,-89,-144,-100,102
-89,-46,86,200,104,21,-55,-229,-178,-66
-92,-24,53,91,60,55,-30,-277,-164,-145
-111,-52,-76,1,57,77,18,-242,-96,-233
-159,-72,-185,-50,15,78,137,-210,-105,-430
-134,-50,-140,-122,-66,29,406,117,-32,-473
-141,-126,-127,-170,-131,-6,446,246,-12,-371
-146,-160,-87,-82,-106,-34,72,7,-111,-334
-26,-51,-13,0,-24,-56,-452,-20,-8,-153
119,55,62,15,-36,-94,-565,-24,87,162
99,30,53,31,-61,-85,-279,63,147,274
-26,-45,-14,20,-66,-39,-87,113,136,78
-100,-30,37,70,-6,25,-44,19,-16,-180
-73,-7,84,108,36,76,-22,-85,-88,-117
-41,-34,92,105,53,114,-17,-133,-90,132
9,-78,9,5,17,99,56,-18,87,293
184,9,-13,-36,71,52,102,27,214,316
301,202,109,45,25,-90,9,-54,130,160
114,185,107,69,-8,-105,-48,-117,-44,-168
-135,57,61,60,105,-44,-115,-79,-72,-295
-172,30,55,51,61,-73,-108,27,9,-194
-192,-40,0,12,-112,-95,-23,88,13,-178
-196,-93,-45,-34,-141,45,51,67,40,-149
-177,-144,-123,-57,-137,102,68,-6,17,-77
-95,-178,-168,-78,39,128,61,-80,-26,7
70,-58,-63,-60,29,40,73,-50,12,167
173,28,8,-98,-88,-57,65,-94,29,285
192,63,42,-53,-27,-92,-64,-228,-44,330
201,20,13,18,129,-138,-87,-134,-27,360
203,-33,-51,-15,149,-105,-140,-89,-1,341
282,143,73,25,115,75,-142,-102,8,262
320,258,180,24,-51,261,58,111,22,117
171,160,117,13,19,231,109,205,31,62
-100,-62,8,-18,57,112,197,332,144,76
-125,-147,-68,-118,-36,-2,319,235,108,69
29,-34,-33,-158,-115,-132,293,22,-57,2
32,46,-1,-171,-202,-176,158,-50,-80,-108
-77,53,17,-184,-219,-85,-117,-55,-52,-180
-127,29,19,-92,-239,-11,-221,-65,-45,-205
-292,-191,-101,66,-132,-28,-99,-76,-158,-294
-440,-338,-221,112,119,-92,60,7,-209,-443
-447,-230,-120,181,442,-1,141,51,-71,-487
-155,66,149,193,233,44,82,106,120,-151
71,157,187,120,-23,-54,-144,-10,117,89
133,132,135,105,100,-93,-152,43,79,65
95,130,119,98,50,-103,-48,203,69,-32
12,95,95,78,5,-14,6,123,43,-152
78,114,116,71,28,48,3,33,37,-104
130,96,67,40,108,58,-29,-10,-3,22
126,7,-50,-29,205,5,-108,-68,-20,168
207,59,-100,-109,61,-68,-93,-18,81,334
249,125,-42,-104,-53,-21,33,83,176,360
67,12,-67,-162,-89,4,149,114,145,202
-79,-111,-162,-238,-124,-40,150,92,123,90
-122,-149,-126,-124,-90,-110,-30,-69,-28,-85
-164,-118,-29,25,-19,-81,-131,-168,-116,-202
-182,-46,20,65,22,41,6,-37,-81,-203
-97,52,64,40,-10,56,19,-13,-89,-171
-91,64,96,52,53,70,6,-11,-107,-138
-78,19,66,33,112,73,-7,24,-40,-27
32,14,-9,-70,14,8,32,71,34,107
111,-5,-66,-202,-132,-39,152,78,37,163
131,29,-28,-133,-110,-79,129,4,4,135
-45,68,106,113,38,-15,118,-131,-71,-79
-81,84,142,199,106,51,74,-304,-158,-141
86,96,118,116,59,7,-22,-58,-59,40
253,116,44,-16,-38,-38,-80,315,124,284
234,127,42,-1,1,-13,-303,138,95,377
58,43,2,-15,-17,42,-205,23,23,294
-67,-62,-73,-85,-116,57,-75,34,36,195
-62,-78,-93,-74,-154,-12,-105,-90,-35,70
25,-76,-103,-60,-135,-59,-80,-82,-14,47
60,-98,-64,-41,26,-71,-29,-7,16,-7
-10,-147,-108,-110,24,-112,29,42,-57,-126
-89,-205,-184,-219,-135,-199,37,45,-50,-124
-36,-161,-128,-122,-82,-136,24,-3,-39,-23
26,-42,-8,79,12,-65,-26,-75,-55,-12
-48,-60,37,185,49,-26,-58,-157,-139,-97
-137,-127,-26,92,-2,27,-24,-98,-84,-59
-7,-72,-41,9,10,64,10,-45,-18,58
50,4,-5,93,218,95,50,-18,2,87
7,64,74,197,290,44,105,68,85,49
-54,40,39,160,70,7,116,92,116,-32
24,67,-43,78,-77,55,158,-11,52,-13
126,86,-41,11,13,103,209,-121,8,52
113,41,-165,-89,-37,66,229,-93,65,80
-103,-48,-106,-60,13,53,179,-60,21,-109
-77,-42,6,-16,79,86,218,141,-21,-137
95,-21,-54,-160,-164,65,349,302,77,39
22,-55,-78,-163,-241,-51,126,108,55,24
-69,-27,20,-30,-113,-133,-402,-17,37,13
73,62,48,-96,-126,-146,-575,-107,33,183
124,65,23,-170,-157,-101,-318,-81,-17,230
75,33,5,-176,-205,-34,-121,-31,-111,115
101,23,-37,-86,-199,-58,-135,-130,-178,-8
57,-35,-54,60,-94,-57,-174,-275,-188,-108
2,-110,-42,99,102,125,-115,-261,-182,-94
106,-56,-4,110,305,181,-182,-291,-265,92
118,-15,-2,82,207,31,-154,-73,-127,210
82,38,53,87,74,-66,-19,292,118,207
92,163,181,40,-111,-73,66,422,148,109
-170,98,149,53,-50,39,71,229,24,-241
-473,-81,66,112,69,167,102,107,-68,-523
-548,-114,38,73,-47,128,145,33,-87,-652
-375,-46,43,2,-185,4,125,-81,-125,-662
-380,-95,-11,-5,-111,13,147,-91,-123,-581
-362,-135,-8,112,275,26,121,-46,-81,-381
-253,-137,-6,171,479,8,21,67,61,-117
-148,-136,-75,43,159,9,84,199,183,16
67,19,35,-4,-138,33,127,182,141,59
206,192,140,16,-185,64,87,52,57,64
43,75,113,118,110,124,-4,-41,-33,-4
58,40,87,144,284,143,-26,-20,23,85
157,77,61,79,99,26,-72,-39,47,198
191,26,-26,24,-4,-31,-144,-131,25,244
218,81,-68,62,24,12,-123,-137,28,219
187,153,-44,-10,-45,79,-9,-7,97,212
156,93,-71,-126,-72,107,93,60,164,234
141,21,-103,-133,4,90,94,29,156,275
72,-35,-151,-59,8,137,130,-27,113,285
-9,-109,-113,-86,-52,156,212,-51,104,265
-20,-114,-98,-85,-93,56,172,-170,23,146
-11,-89,-139,-100,-115,-77,50,-208,-5,43
51,-11,-57,-72,-97,-194,-82,-165,33,78
141,3,-7,-76,-134,-269,-49,-20,104,183
130,-43,-67,-89,-140,-213,34,64,121,194
57,-76,-82,-39,-70,-193,-82,-199,-24,85
62,-11,-13,11,45,-173,-254,-282,-98,-25
97,104,81,24,31,-90,-148,234,112,1
144,153,124,-40,-122,-38,51,443,289,184
126,120,78,-65,-80,-29,29,165,170,206
-35,13,0,-69,-83,9,16,-42,12,76
-87,-33,-5,-18,-68,60,6,-127,-37,35
-13,46,59,78,15,109,-10,-169,-21,43
114,143,129,72,45,72,-40,-82,89,84
95,207,143,49,155,51,-25,89,42,-210
-153,127,74,73,124,-3,54,235,-138,-621
-414,-93,30,152,99,10,183,148,-146,-648
-332,-181,-43,76,48,4,189,13,-82,-327
-53,-75,-66,-61,-31,-6,90,17,-4,-28
42,11,-2,-14,21,-3,-194,33,22,16
45,0,0,-23,-14,-43,-313,-7,-1,47
-25,-110,-103,-140,-138,-59,-138,38,-44,-1
-62,-128,-115,-128,-160,-56,-55,15,-89,-72
-92,-58,-41,-28,-26,53,-28,-36,-150,-134
-43,36,40,31,169,176,8,2,-102,-44
43,105,108,28,96,49,-40,41,-43,80
186,182,166,50,33,-43,-118,-10,-61,160
256,206,195,125,95,-22,-127,-32,-11,218
102,136,175,163,108,-5,-66,-25,-3,65
-33,82,144,125,92,58,-1,-24,-6,-44
-144,-41,9,72,55,-1,-46,-63,-39,-100
-193,-189,-195,-62,-140,-181,-95,-141,-125,-177
-188,-221,-253,-195,-158,-187,-51,-121,-136,-187
-100,-46,-125,-233,-105,123,209,115,76,-64
3,93,-3,-278,-365,188,414,347,357,144
176,142,63,-139,-282,-53,181,206,331,274
246,100,77,106,-26,-156,-268,-277,-72,198
45,-96,-71,17,-94,-75,-243,-381,-263,9
-105,-207,-159,-32,44,78,177,-191,-169,-28
-70,-114,-64,69,240,194,498,-54,-114,-72
-129,-86,-34,44,237,260,698,256,26,-175
-86,-2,9,31,16,234,534,398,206,-42
-8,34,65,145,-5,174,0,257,228,93
64,77,129,189,50,74,-266,129,159,114
166,87,124,125,17,-56,-383,95,97,142
210,60,52,16,12,-135,-263,33,51,158
199,71,-27,-103,52,-148,-64,-37,55,150
177,70,-55,-213,-85,-130,43,-57,78,138
-30,-9,-15,-92,-38,-11,86,-96,44,-12
-220,-22,114,205,90,-34,-53,8,0,-182
-257,-24,141,300,41,-125,-130,68,-90,-265
-359,-154,-53,214,-44,-103,-99,-148,-214,-337
-264,-185,-180,37,-50,-67,-134,-255,-199,-187
-64,-82,-83,-56,75,14,-134,-210,-129,25
81,50,-83,-93,111,47,-9,72,2,111
111,84,-170,-126,-73,-30,140,192,71,30
82,50,-116,-78,-120,-34,207,112,69,-2
111,-9,-52,-48,-60,-4,162,70,87,159
177,9,-17,-23,-18,-14,-93,15,100,342
240,130,71,30,32,-34,-278,100,215,460
151,72,35,-13,-8,-40,-123,229,318,484
128,33,-11,-16,-16,-24,-25,80,176,397
112,61,-10,13,15,5,1,-93,-46,41
23,82,93,33,57,6,-36,-237,-199,-336
-182,6,111,54,105,44,-111,-331,-287,-636
-286,-104,57,24,98,52,-109,-29,-204,-636
-243,-145,-3,-44,0,-28,-65,153,-77,-372
-268,-178,-45,-86,-25,-14,50,-43,-71,-213
-301,-246,-139,-88,44,41,184,-70,-58,-160
-248,-223,-137,5,137,20,111,-164,-150,-269
-131,-93,-28,76,192,30,-55,-197,-208,-326
-68,38,113,63,65,116,-44,32,39,-174
-84,-23,74,102,-18,114,18,126,61,-121
-31,-77,4,33,-66,45,-45,45,-78,-107
99,-11,7,-38,-102,35,-42,-7,-92,-2
203,98,86,26,-36,50,-32,-5,-20,117
185,100,114,70,91,55,-30,40,23,99
159,108,124,55,249,114,-18,57,35,100
188,155,128,-14,120,72,-19,67,64,152
114,98,87,-93,-16,158,54,86,115,181
28,-7,8,-101,-23,247,87,49,132,187
36,-16,-9,-83,-75,120,-26,-128,-9,156
52,-23,-37,-116,-168,-3,-14,-224,-70,110
7,-66,-170,-130,-163,-130,12,-219,-83,85
67,-5,-113,-96,-216,-309,-27,-163,-33,135
175,76,25,-92,-312,-345,-106,-62,51,196
183,105,15,-27,-184,-158,-9,77,29,140
41,48,-28,5,42,102,286,181,26,-7
-123,-68,-64,-71,-13,144,390,137,17,-188
-178,-82,-77,-15,-40,-3,221,46,-27,-296
-43,-5,-64,10,128,-101,-121,6,-22,-146
129,91,14,118,290,-7,-153,107,96,128
103,79,84,176,112,-44,24,174,135,120
-50,-22,71,165,171,-10,59,107,58,-77
154,67,47,17,157,-16,-87,35,64,96
260,131,17,-64,47,0,-196,2,67,253
100,39,38,-102,-74,17,-92,79,136,267
-16,-48,-4,-141,-81,-7,-3,125,186,250
-48,-128,-33,-115,-41,-77,-46,-19,53,140
-97,-165,-40,-63,11,-84,-88,-176,-112,-45
-165,-165,-60,-51,-5,12,-42,-219,-172,-203
-242,-129,-2,-5,-219,87,-5,-237,-186,-313
-272,-29,110,208,-233,84,-1,-182,-188,-348
-299,-20,128,304,-74,-36,88,62,-83,-319
-230,41,158,280,190,-2,120,35,-17,-237
-29,159,126,203,452,84,24,-52,-40,-120
104,192,32,29,219,34,64,218,106,22
120,110,-38,-104,-4,13,89,266,136,113
142,71,-53,-99,-11,-10,35,109,64,166
109,48,42,36,39,-38,-38,-14,-32,100
144,41,35,6,-19,-67,-59,-25,-39,141
239,91,41,-21,-76,-107,-91,-56,-22,199
198,78,37,6,-58,-103,-93,-54,3,240
82,-28,-38,-47,-86,-116,-44,7,62,309
63,-116,-123,-131,-157,-141,-32,14,79,317
56,-89,-105,-148,-166,-134,-63,-34,46,226
12,-60,-55,-91,-112,-117,-87,-63,4,48
-18,-53,-55,-22,-3,-48,-77,-87,-49,-50
-83,-139,-137,-86,31,19,-47,-107,-112,-51
-195,-228,-137,-84,31,104,12,-56,-80,-22
-172,-129,-10,18,25,164,133,77,37,-142
-167,-12,103,140,61,127,131,58,-74,-326
-168,26,81,191,136,33,126,-83,-206,-401
-19,100,79,129,167,80,349,-51,-107,-257
57,100,49,-28,-35,194,534,123,79,-96
38,87,24,-4,-97,211,332,111,70,-74
22,78,-24,71,69,193,-200,-30,54,1
89,66,-7,8,108,153,-340,-190,5,103
167,60,9,-45,56,126,-193,-258,-24,176
211,79,37,-5,3,24,-210,-172,-29,243
208,-7,-23,6,-115,-156,-188,225,71,376
218,-71,-98,-45,-145,-202,-105,204,59,429
267,-4,-55,23,1,-204,-145,-23,-40,387
181,-22,-45,-63,-167,-261,-82,-3,22,365
131,0,-59,-169,-327,-253,-71,-131,-50,267
-21,-43,-83,-164,-240,-127,-29,-192,-96,4
-192,-116,-117,-157,-73,10,70,-56,14,-224
-146,5,-5,-25,159,81,59,202,171,-152
-114,100,122,93,81,49,160,526,233,-99
-149,114,138,17,-57,130,317,331,79,-303
-120,116,81,-70,-63,347,383,9,-96,-433
-10,79,11,-95,85,421,308,-115,-159,-326
-25,31,-3,52,202,253,-42,-147,-166,-272
-163,18,-60,236,193,27,-366,-210,-149,-287
-70,70,-35,188,247,-162,-355,-95,-43,-168
87,80,-28,66,161,-371,-265,87,-2,-44
81,100,-74,49,23,-332,-126,43,-33,-61
-128,43,-1,113,119,-143,17,-41,-74,-159
-192,-65,31,126,198,-18,39,-46,-70,-120
-59,-29,74,48,30,78,44,97,82,68
-102,-62,34,-52,-109,49,-10,157,145,89
-251,-154,-58,-51,-27,-10,-21,118,74,-34
-218,-77,-62,-21,40,-23,6,72,48,-44
-62,55,18,11,79,-28,28,6,4,2
69,75,59,-15,-61,-44,42,47,83,150
152,40,55,-44,-149,-56,5,38,88,186
136,29,60,-5,-70,-23,-15,-29,18,101
133,46,77,50,12,-14,-23,-60,-16,70
154,102,83,76,48,5,-20,-62,-38,89
122,47,59,45,23,10,-27,-20,-5,58
52,-16,30,45,44,18,0,38,73,-4
54,33,23,86,74,34,126,20,74,28
48,78,-65,114,178,154,262,-47,11,49
-3,51,-70,103,219,299,285,-80,-33,-6
-38,16,37,18,19,255,130,-39,-14,-33
-71,-37,2,-21,-116,73,-79,-94,-33,-16
-129,-151,-94,-62,-92,-75,-21,-159,-63,-82
7,-172,-151,-169,-91,-213,-42,-149,-48,52
236,-12,-66,-215,-167,-290,-238,-192,-100,199
188,-7,-116,-242,-261,-127,-88,55,-39,175
-26,-171,-214,-312,-239,81,127,157,95,160
-26,-190,-179,-322,-182,133,162,52,112,191
143,-59,-78,-259,-158,21,30,67,86,267
241,123,48,-21,-110,-179,-176,105,69,277
98,155,109,110,-75,-164,-218,70,2,-23
-120,83,192,221,52,-4,-104,230,11,-297
-166,37,204,343,184,40,-41,222,-47,-305
-144,66,160,293,286,78,-41,70,-130,-280
-134,27,116,147,207,59,36,51,-79,-239
-141,-28,76,45,1,24,91,42,-90,-238
-117,-71,27,-13,-92,-28,-50,-85,-131,-146
-45,-158,-121,-81,-84,-26,-82,-158,-96,52
127,-121,-144,-81,23,6,-53,-130,3,286
198,-73,-198,-145,-21,-37,-14,-82,175,456
202,-65,-245,-244,-192,-145,-58,-186,111,475
286,-33,-141,-229,-219,-210,-195,-303,-44,382
208,-71,-123,-172,-172,-161,-153,-139,-62,211
84,-81,-122,-81,-193,-72,-88,24,-145,-32
-111,-50,0,133,-25,48,-37,-68,-238,-292
-307,-107,80,192,135,106,65,-10,-129,-402
-305,-90,100,178,185,78,130,55,15,-388
-108,84,178,216,164,22,124,-61,-28,-295
-1,173,190,178,313,159,166,-104,-74,-267
-93,141,201,199,327,303,312,-169,-181,-359
-104,51,182,229,224,246,364,-150,-238,-233
-61,-40,42,151,159,92,310,297,13,18
14,-83,-24,61,150,-38,20,355,192,171
257,105,86,49,76,-125,-367,258,294,328
250,187,142,-17,-95,-101,-294,146,235,261
43,97,86,-46,-80,-11,-77,107,150,65
-137,11,41,-14,-34,7,-34,30,44,-100
-150,-15,47,-1,-56,-41,-72,-45,-3,-215
-162,-98,-38,-93,-124,-36,5,-18,-12,-298
-173,-136,-199,-161,-117,-1,104,14,-48,-324
-172,-127,-223,-116,-51,-8,18,-53,-83,-273
-201,-162,-92,-28,19,-73,-99,-146,-142,-277
-114,-121,-23,26,87,-71,-131,-174,-161,-190
119,25,53,4,56,0,-118,-91,-48,149
185,40,4,-91,-126,13,-55,34,72,393
37,-38,-29,-91,-56,48,62,112,158,329
94,53,79,-34,-3,14,82,124,173,217
277,192,131,-28,-61,3,49,73,116,223
285,142,60,-56,-74,4,5,51,64,253
196,94,50,9,-55,-44,-74,-61,-32,180
106,92,57,14,-56,-54,-74,-120,-57,121
-27,-44,-28,-55,-112,-53,-37,-103,-47,57
-67,-126,-114,-122,-184,-113,-73,-126,-61,-6
-61,-147,-215,-135,-145,-104,-127,-160,-71,-33
-153,-167,-289,-138,-23,34,-72,-138,-102,-180
-305,-122,-73,-2,33,109,-17,-215,-149,-391
-308,1,108,158,55,56,10,-344,-173,-375
-174,62,162,259,65,-71,48,-309,-97,-152
-18,38,95,109,-8,-41,97,-192,69,167
173,57,-1,-120,-87,-95,55,129,212,402
340,173,47,-100,-70,-111,43,585,382,459
151,122,79,32,69,72,132,453,294,290
32,56,73,106,132,129,112,141,120,183
25,45,47,71,101,150,134,89,87,99
11,63,56,66,89,173,148,31,43,20
11,36,35,39,-35,122,169,140,58,14
-70,-69,-45,5,-91,-1,111,249,47,-54
-89,-95,-50,31,-33,-79,-130,-2,-104,-99
-20,-62,-43,11,157,-48,-174,-146,-116,-33
129,3,-27,-146,67,-42,1,36,67,144
160,-27,-132,-399,-334,-103,138,183,197,215
31,-120,-136,-201,-265,-172,35,15,12,-19
-53,-143,-73,62,-91,-199,-86,-213,-218,-259
-137,-166,-84,36,-58,-89,81,-248,-331,-398
-198,-163,-103,-5,-50,26,282,-52,-203,-320
-177,-175,-152,-38,-79,44,170,84,-3,-78
-42,-93,-170,-9,-62,14,-147,95,105,113
59,4,19,80,81,16,-314,59,118,104
111,112,145,100,238,87,-161,-57,-20,28
77,143,139,49,177,189,-9,-127,-161,56
26,91,38,-13,55,358,85,-119,-130,69
-40,71,-51,-69,-24,426,83,-54,-41,-95
-5,101,36,-73,-43,281,-57,-79,-114,-251
-10,140,118,69,94,-5,-141,-66,-73,-271
23,200,198,245,281,-208,-135,1,81,-146
93,141,70,46,107,-245,45,60,164,16
123,24,-103,-217,-180,-160,113,-83,122,130
9,-111,-197,-153,-189,-110,70,-292,12,80
-56,-115,-208,14,-49,-153,-137,-471,-121,8
-41,8,-28,80,98,-183,-199,-102,-45,-5
-85,-4,52,58,57,-146,-68,445,183,-43
-71,-13,-2,65,91,-54,18,433,180,-127
-48,11,-77,76,74,-53,-14,199,4,-253
-94,55,-35,75,36,-30,36,161,-39,-286
-126,93,139,190,127,47,130,146,3,-176
-71,75,173,256,196,65,228,35,0,-32
-9,3,119,181,113,88,412,-59,-90,29
-55,-58,69,121,83,163,647,-122,-147,9
-31,-28,71,134,108,99,472,-123,-124,31
104,89,63,135,184,36,-55,-120,-37,94
143,104,138,119,88,35,-527,-23,68,97
-9,-31,74,52,33,-22,-601,82,79,2
-96,-131,-43,-11,57,-69,-342,99,7,-21
-17,-114,-70,-55,62,-21,-183,-27,-44,120
84,-21,-10,-45,8,56,-69,31,31,272
136,24,16,-90,-124,42,2,142,145,275
141,38,3,-99,-121,18,-2,125,125,168
92,49,16,-127,-144,-10,-51,83,40,91
35,84,70,-59,-95,-14,-92,31,-16,32
56,109,97,0,-68,-25,-121,6,13,125
198,154,110,-14,-122,-104,-184,-41,49,310
248,133,75,-67,-228,-162,-207,-62,45,330
215,78,-25,-137,-296,-147,-52,14,50,258
244,116,-134,-125,-251,-116,1,-8,-13,252
152,70,-158,-71,-29,10,-38,-125,-103,155
-97,-105,-131,-79,195,183,16,-151,-168,-87
-137,-153,-93,-162,82,156,73,-84,-123,-195
-44,-149,-119,-212,-41,8,71,-4,22,-77
35,-89,-31,-115,-145,-186,21,21,58,-44
-39,-78,42,-4,-168,-229,-11,45,55,-236
-154,-122,11,69,-120,-193,-18,-19,65,-345
-91,-108,-75,32,-146,-173,15,-75,42,-317
-84,-74,-116,-71,-90,-65,67,-97,21,-216
-36,-19,-25,-119,15,48,9,-118,75,85
75,69,56,-111,-17,90,-83,-147,92,307
115,100,121,22,52,43,-72,-36,112,289
38,42,106,155,70,34,48,188,117,169
-136,-16,128,203,7,97,145,248,159,-4
-114,29,144,131,-22,86,84,196,241,-35
7,131,154,19,-136,37,-62,23,165,33
-1,167,117,-44,-181,40,-88,-98,29,0
-65,120,84,-62,-73,76,-10,-67,-4,-48
-202,-14,55,130,276,148,58,-35,2,-116
-238,-111,-49,254,433,139,159,7,41,-127
-72,-106,-68,80,95,-4,207,55,69,-24
9,-138,-165,-82,-178,-93,126,0,-36,-12
-75,-136,-186,-80,-84,-65,-26,-71,-186,-184
-87,-91,-86,-84,6,39,-13,-38,-189,-213
-46,-25,-58,-73,80,33,14,-29,-157,-139
-105,-78,-69,14,255,45,5,-14,-55,-116
-118,-151,-94,0,195,51,-8,-12,-10,-139
-100,-105,-94,-49,-18,96,-9,-63,-61,-212
-23,18,16,-75,-228,69,7,-80,-77,-117
-41,75,110,-24,-20,37,0,-127,-71,-7
-10,140,169,60,92,67,39,-110,-6,121
7,126,181,180,68,66,43,24,76,155
-37,39,91,165,66,38,15,210,148,123
31,9,-98,4,65,85,162,195,162,246
172,72,-106,-76,-118,-3,244,140,168,384
124,86,7,-75,-236,-56,168,91,113,284
94,90,56,-59,-169,-110,-105,37,89,223
113,95,79,-41,26,-93,-257,-2,68,201
-76,31,61,-36,133,7,-65,24,28,-53
-191,-24,34,-11,54,29,60,-66,-101,-281
-96,-6,-46,20,34,-13,55,-220,-183,-259
-28,-4,-32,14,19,-14,47,-244,-139,-180
-85,-32,-17,-13,45,48,17,-167,-49,-166
-56,-1,-6,11,99,50,-69,71,-47,-108
-31,-38,-44,3,49,16,-70,279,-49,-48
-35,-73,-55,42,102,34,-130,21,-85,-24
2,-31,44,196,227,35,-164,-125,-114,-10
88,81,144,234,210,120,-73,-69,-51,91
202,212,145,58,-84,106,60,63,14,178
59,107,-7,-68,-118,18,99,85,3,48
-95,-63,-109,-159,-129,-47,32,67,49,-36
-82,-95,-90,-88,-48,28,22,65,108,27
18,-23,-50,-89,19,155,78,-5,97,108
-56,-42,-73,-150,2,246,185,-59,70,75
-193,-186,-128,-43,-6,109,155,-130,17,28
-54,-218,-146,30,-18,-130,-9,-283,-32,196
204,-57,-62,50,24,-250,-139,-207,39,339
322,36,1,-42,-164,-293,-64,274,203,429
303,27,-30,-144,-274,-294,-75,279,183,402
241,82,21,-66,-154,-201,-137,33,62,210
76,77,43,-20,-94,-135,-152,-56,-21,-60
-95,74,42,-37,-77,-59,-83,-33,-53,-339
-225,91,142,54,0,30,3,4,-36,-522
-222,108,204,127,75,66,93,87,52,-351
-94,125,168,81,56,36,83,127,59,-133
20,115,140,109,81,24,58,26,-78,-84
26,46,51,61,48,79,314,-35,-93,-7
-52,-48,-111,0,16,150,554,-40,-109,6
-128,-112,-146,14,32,146,461,-4,-114,-72
-77,-73,-28,31,30,85,-22,29,-60,-71
11,4,15,18,-24,-29,-533,-90,-1,-15
-13,-33,-20,-20,-96,-104,-363,-110,-34,-57
0,-50,-31,-52,-128,-124,-210,-139,-101,-43
28,5,-52,-43,51,-123,-234,-148,-211,-21
-56,-94,-136,-102,119,-78,-77,73,-124,-10
-44,-170,-166,-227,-96,-98,5,71,7,105
52,-95,-125,-249,-111,-45,-3,-14,42,172
151,50,-18,-154,0,62,-45,-75,32,59
88,71,82,48,26,63,-223,-208,-113,-146
-127,-43,76,140,46,16,-209,-95,-163,-259
-111,-40,10,28,-32,16,-45,140,24,-106
71,47,-55,46,-49,-56,27,183,126,94
207,138,-22,169,16,-137,0,89,40,176
213,154,25,96,101,25,47,64,64,195
84,19,-9,23,106,51,91,67,75,147
-43,-92,-72,-10,58,56,79,-17,28,73
-137,-136,-64,-39,-18,101,42,-129,-152,-70
-94,-117,-46,-68,-236,136,15,-161,-118,-69
70,-30,11,-47,-93,118,-87,-194,-55,-3
90,12,29,-51,-2,11,-45,21,23,-46
-122,-31,47,13,90,-76,9,136,84,-127
-64,16,77,26,44,-129,0,73,50,-44
66,57,6,-16,-63,-200,14,86,103,93
50,31,-21,111,-70,-255,-83,-18,-5,158
38,-8,56,131,-67,-161,-91,-59,-47,230
167,101,76,80,71,41,17,-6,-60,320
282,101,38,-58,30,123,52,58,21,372
241,22,9,-98,82,125,52,74,66,229
33,-20,7,-92,71,104,67,55,42,-68
-211,-82,-34,-142,27,38,52,21,-17,-357
-242,-80,-9,-47,72,-57,48,13,-57,-389
-34,53,67,-7,-39,-132,23,5,19,-168
-8,92,75,-73,-16,7,35,-45,-81,-187
-159,-11,33,32,129,177,149,45,-110,-308
-148,-87,24,101,78,74,168,135,70,-201
-83,-66,12,86,-28,-64,116,28,25,-175
-172,-95,-10,154,30,-83,137,-89,-136,-269
-184,-121,-54,118,57,-32,212,-90,-203,-265
-76,-109,-76,-14,0,23,185,-35,-30,-73
90,-24,-49,-82,-42,41,-10,-112,103,107
168,64,-11,-53,8,44,-128,-235,52,129
55,73,-38,40,32,5,-214,-230,-33,2
-26,56,-35,25,-10,-34,-146,216,105,5
-71,48,33,31,-4,-58,-33,342,176,-18
-32,61,15,78,92,7,-24,94,48,-38
95,146,78,59,136,172,77,116,130,135
163,200,152,70,48,246,135,173,192,225
9,112,155,140,68,187,93,131,151,123
-39,16,56,68,-5,67,100,80,111,99
18,-39,-61,-78,-99,-21,144,11,23,65
34,-44,-82,-115,-115,-95,89,-100,-119,-77
-42,-91,-110,-104,-95,-142,-68,-128,-174,-219
-83,-145,-112,-81,-31,-168,-331,-133,-156,-193
3,-123,-106,-95,-7,-96,-291,-160,-212,-24
55,-37,-103,-149,-180,3,-71,-73,-223,97
-53,-98,-127,-112,-205,8,-25,-53,-173,129
-146,-102,-139,22,19,48,-29,-84,-150,47
-30,1,-26,95,221,45,-121,-105,-115,-15
155,130,122,118,187,-50,-157,-32,-31,30
109,145,153,149,110,-6,-30,19,16,-24
-47,113,109,150,146,195,129,16,-4,-169
-137,79,140,141,147,304,166,13,0,-261
-121,55,135,123,103,205,53,-51,-6,-277
-92,20,57,74,60,93,-2,10,-6,-271
-57,-9,-45,-37,-43,37,47,257,80,-152
-109,-97,-145,-90,-82,30,78,257,79,-48
-71,-117,-152,-121,-216,79,144,178,121,113
-37,-127,-117,-161,-500,-1,131,154,134,158
18,-89,-75,-85,-372,-183,-9,73,88,124
169,89,65,29,-29,-292,-123,53,169,190
157,107,97,19,290,-128,-75,95,188,139
27,3,-9,-104,205,-39,0,56,67,-63
-67,-46,-66,-143,-16,-82,-21,-35,-21,-181
-129,-110,-75,-77,8,-66,-9,-123,-25,-181
-57,-66,-50,-19,-25,-1,115,-201,-69,-134
179,43,16,-38,-127,2,155,-251,-115,32
323,115,22,-8,-29,8,109,-148,-149,236
340,142,0,-23,-2,-8,-44,150,-34,441
286,110,22,-21,-18,-34,-290,157,120,465
-93,-62,-32,67,133,-32,-12,-20,-101,-269
-132,-98,-116,3,142,-103,-466,-10,-54,-204
-86,-74,-76,-71,-26,-79,-392,-27,-47,9
42,-8,1,-145,-316,-26,-123,53,113,281
53,-7,43,-42,-206,-48,-117,-62,22,244
64,-22,40,62,-164,-145,-215,-226,-112,158
137,-14,3,23,-200,-153,-214,-339,-193,146
203,69,4,-40,-118,19,47,-229,-55,165
145,104,4,-79,-127,109,312,-33,70,136
-17,35,92,39,96,116,181,-19,77,91
-13,107,206,157,266,125,60,262,205,134
35,85,140,15,117,100,202,323,227,121
53,-17,-66,-210,-80,57,357,117,156,86
169,-5,-116,-256,-141,-13,248,-124,74,136
137,2,-19,25,50,-36,-194,-378,-127,31
-43,-19,76,239,225,16,-498,-28,-131,-216
-180,-26,119,189,188,79,-242,326,-80,-412
-131,35,121,123,93,-15,-60,144,-107,-410
-106,-7,2,-32,-53,-119,84,151,30,-276
-190,-89,-96,-124,-109,-77,273,190,70,-220
-296,-96,-76,-82,-33,34,295,171,58,-273
-242,9,-30,-27,34,104,141,85,-28,-255
-173,42,71,58,83,124,58,63,7,-170
-162,-11,-24,121,137,103,86,119,107,-113
-105,-27,-127,136,196,107,103,12,18,-106
-30,8,-1,211,249,72,29,-177,-131,-97
68,73,146,227,202,49,-60,-224,-100,21
32,52,121,134,111,65,-79,-138,21,102
4,26,35,90,125,83,73,52,15,16
68,95,-15,11,-1,161,315,259,45,-80
128,153,70,-90,-186,79,207,147,37,-56
16,83,65,-56,-125,12,-75,63,10,-27
-118,-27,28,57,1,33,-265,48,19,21
-136,-68,-32,-19,0,51,-172,31,-60,24
-114,-131,-138,-150,50,84,-120,-34,-102,24
-150,-244,-260,-259,-66,113,-66,-86,-88,1
-173,-289,-333,-266,-292,121,-6,-89,-115,-29
-234,-305,-235,-116,-325,-10,-65,-122,-219,-35
-142,-191,-128,44,-204,-206,-96,-137,-254,87
132,-27,-56,74,173,-78,-30,-47,-40,346
249,104,102,110,376,-21,6,104,195,426
241,208,185,56,80,-34,25,188,289,276
145,217,176,-11,-69,-6,-15,111,160,8
-1,146,127,0,26,-68,-72,-15,-9,-130
2,98,92,-15,-16,-200,-205,-126,-7,-30
43,80,71,-24,-32,-261,-251,-179,-21,30
55,93,109,91,70,-140,-160,-119,57,82
100,140,130,42,-13,-31,26,51,185,137
154,101,55,-44,-98,-25,85,44,133,168
144,39,21,4,-5,-2,51,-63,20,143
185,89,86,63,25,-3,22,-119,-58,84
37,59,93,56,8,8,40,-80,-47,12
-5,14,17,-61,-89,19,-37,-128,-56,-50
11,-60,-155,-190,-183,79,-7,-135,-35,-56
17,-9,-149,-140,-141,84,57,-200,-92,-160
-76,70,44,22,4,48,29,-368,-228,-375
-300,-121,33,133,149,22,33,-355,-195,-375
-238,-213,-70,76,154,-66,86,-114,-37,-105
10,-74,-24,12,81,-92,27,191,142,187
221,100,79,13,-53,-61,30,455,229,324
194,66,52,39,-50,-50,116,510,185,176
17,0,48,78,25,-11,81,263,29,-98
-45,-32,28,60,31,38,-8,74,-54,-121
34,-37,-37,-28,-69,-4,-78,0,-65,0
67,-46,-51,-78,-199,-77,-123,-40,-25,170
-3,-70,-74,-56,-250,-123,-109,-46,-46,146
-107,-125,-122,-5,-65,-114,-57,7,-45,70
-145,-142,-92,63,147,-130,-65,-39,-91,34
-120,-152,-106,-12,123,-103,-68,-65,-51,18
-19,-57,-87,-143,-89,-18,8,20,-27,-22
34,49,-10,-141,-48,64,105,133,57,11
-37,23,17,-96,-29,12,132,128,87,-9
-83,-25,16,-52,0,30,121,-36,-30,-106
-182,-65,-4,-24,69,97,158,-100,-76,-252
-189,-28,20,-21,77,103,121,-145,-99,-317
-106,50,24,-45,102,146,98,-127,-145,-280
72,59,-7,-109,47,154,252,276,-18,31
257,38,-57,-245,-137,80,479,423,-25,310
391,87,-45,-130,-127,27,326,65,-140,388
446,148,7,89,-25,-52,-121,-124,-215,342
233,89,45,109,70,18,-417,-76,-132,232
-135,36,97,280,272,135,-299,-59,-69,-60
-281,29,181,377,271,1,-163,-114,-67,-358
-336,-87,94,260,180,-89,-148,-168,-102,-529
-327,-123,17,148,152,-66,-102,-82,-74,-533
-229,-22,75,33,-65,19,28,82,84,-354
-187,-30,17,-58,-180,31,89,132,169,-193
-101,-73,-79,-126,-153,-21,79,109,212,-41
-69,-92,-141,-110,-88,-11,76,93,205,27
-90,-93,-133,12,29,6,44,29,120,45
-13,24,-30,42,127,44,29,-21,-18,37
134,170,17,-10,96,90,32,-14,-13,49
194,215,64,27,17,182,84,48,130,74
155,181,163,81,-1,188,131,21,128,51
81,139,152,50,-13,144,244,-9,60,79
24,16,88,30,-51,3,194,-26,38,103
85,-5,41,5,-99,-221,-59,-66,-2,137
113,27,46,13,-137,-307,-392,-99,39,163
72,6,6,-23,-202,-225,-379,-119,-31,113
25,-35,-49,-72,-157,-148,-197,-22,5,86
-13,-109,-86,-89,139,2,-71,-34,15,111
-110,-228,-179,-188,37,59,80,-118,61,173
0,-194,-271,-282,-264,-8,102,-234,27,222
106,-126,-225,-113,-203,-31,-33,-391,-141,153
168,-27,-44,-13,-5,-80,-151,-200,-91,224
76,-52,-27,-40,192,-20,161,334,139,221
-83,-166,-97,-31,184,38,343,293,81,68
-4,-34,8,24,104,39,113,55,-59,-54
119,182,127,-6,-47,-6,-133,17,-57,-6
-39,116,153,161,142,33,-103,-96,-133,-72
5,52,144,183,133,-23,35,76,-3,47
50,47,106,137,82,-19,77,225,66,102
77,67,142,193,102,-43,-186,153,69,128
113,29,107,136,63,-100,-308,102,104,166
172,16,30,35,0,-64,-164,54,69,100
67,16,23,21,25,22,-43,1,-14,-80
-155,-129,-59,-20,56,105,27,-23,0,-145
-242,-232,-142,-67,37,129,29,-55,7,-133
-225,-163,-123,-77,30,105,47,-41,-22,-302
-166,-5,-4,-36,77,72,123,-3,-14,-399
-80,99,72,-33,-63,-25,137,-31,-49,-267
-230,-70,-36,-12,-80,-4,108,-67,-113,-267
-187,-111,-44,67,-1,34,44,-72,-56,-88
-14,7,-5,74,-9,15,56,67,29,193
79,78,20,2,-52,-33,54,164,41,275
156,110,55,-10,48,-29,-1,86,42,272
235,145,104,16,36,-101,-45,67,137,293
220,162,100,42,8,-133,-120,-23,80,164
153,180,141,70,-43,-65,-62,-17,33,6
132,143,96,24,-125,-48,7,9,24,-60
185,112,1,-12,-92,-67,-45,-78,21,41
225,122,-26,-6,-142,-108,-82,-142,-36,163
115,52,17,14,-143,-65,1,-78,39,197
-46,-23,-71,-34,-69,-13,43,-38,72,71
-128,-43,-84,-96,74,6,40,-67,23,-112
-119,-31,-91,-181,-45,-42,24,-73,-12,-193
-119,-44,-93,-214,-213,-47,17,-63,-41,-172
-230,-126,-83,-56,56,93,91,-25,-49,-221
-243,-141,-33,140,390,228,209,-14,-10,-215
-218,-140,-68,13,291,319,305,-82,-44,-230
-147,-63,-58,-132,3,439,447,-102,-96,-277
-55,100,104,19,-9,530,434,-58,-71,-249
-57,119,250,309,37,333,170,126,-34,-204
-78,49,202,276,-16,-77,-171,388,52,-140
-77,-7,87,139,-99,-289,-345,196,3,-164
-18,-34,-10,92,-72,-313,-65,123,0,-76
-9,-71,-53,70,100,-258,257,98,65,82
5,-116,-118,-31,107,-110,356,65,82,280
97,-64,-90,-94,-51,-52,129,75,95,365
211,65,20,-39,0,-102,-433,-13,96,345
229,129,71,1,140,-128,-565,-96,102,308
138,92,21,-55,15,-113,-281,-65,122,228
77,60,-44,-94,-64,-79,-126,-77,44,116
54,5,-94,-115,-92,-108,-105,-114,-21,34
-79,-123,-169,-140,-113,-128,-64,-105,-44,-95
-115,-119,-204,-74,-65,-63,-55,-92,-70,-149
7,-25,-192,-15,-67,-33,54,81,-7,35
164,48,-78,-50,-193,-2,145,101,98,350
231,36,-3,-94,-167,24,149,82,129,463
346,128,33,-41,98,46,45,82,85,404
429,261,75,4,120,-26,-193,-52,15,265
223,161,59,-15,23,-59,-221,-88,6,36
-1,18,12,-11,57,-54,-156,-85,-24,-159
6,19,-14,24,81,11,-91,-88,-60,-181
-53,28,46,51,-65,61,53,59,65,-190
-249,-39,74,33,-22,88,147,122,68,-354
-236,-66,26,-8,0,36,62,13,-77,-352
-177,-97,-52,-74,-37,-26,-73,-113,-133,-208
-192,-151,-68,-26,-4,-24,-127,-179,-117,-216
-152,-111,-38,9,18,-3,-32,-96,-70,-256
-128,-87,-32,-6,31,47,67,14,-37,-222
-60,-77,-14,12,39,27,59,-11,-95,-82
109,0,50,68,23,-53,-71,-149,-121,55
210,101,85,60,6,-74,-144,-261,-206,76
103,22,23,-17,-11,1,-31,-126,-163,-12
-105,-130,-101,-113,-6,134,156,176,4,-131
-88,-110,-126,-166,3,185,194,219,90,-121
138,31,-145,-178,-20,145,178,70,48,4
126,31,-131,-65,8,115,203,3,14,176
31,-2,15,65,43,149,205,-28,-51,266
30,-2,41,44,53,142,-4,-54,-133,267
-53,-37,-2,-21,114,151,-178,-70,-160,31
-168,-20,74,61,0,79,-64,31,-142,-278
-69,68,164,145,-76,-114,-82,122,-57,-231
-1,73,134,68,-18,-97,-29,172,64,-122
-209,-35,38,-37,-65,-57,54,125,60,-281
-304,-123,-37,-108,-119,3,67,2,4,-284
-195,-164,-77,-102,-114,47,55,-185,-109,-184
-95,-204,-95,-61,-90,4,-16,-360,-189,-126
41,-148,-56,-49,-8,-25,-111,-394,-152,-6
207,84,106,82,114,-32,-105,-131,-41,95
156,190,235,224,151,-66,-95,250,94,83
41,80,158,195,133,-39,-32,347,150,129
32,-5,82,133,60,-51,-97,54,47,162
63,3,70,95,74,-13,-149,-82,9,136
137,91,37,2,107,118,-67,-92,20,118
150,97,-106,-140,-35,133,86,-67,36,123
-19,-39,-129,-140,-34,180,214,-27,58,16
-34,-63,-41,-6,-62,168,243,-33,73,-31
37,39,46,105,75,75,135,-104,46,-49
-43,36,48,65,123,176,190,-87,78,-50
-228,-140,-38,101,96,231,92,-352,-104,-149
-290,-232,-92,155,101,-12,-197,-389,-241,-146
-177,-173,-141,131,93,-274,-285,-38,-89,-14
29,-44,-176,0,-69,-299,-91,317,209,196
231,103,-106,-173,-379,-277,79,587,381,397
243,155,60,-88,-170,-179,76,472,328,384
219,192,146,41,71,-47,-2,222,214,245
144,178,134,27,16,-17,-53,122,170,47
7,115,41,-14,17,49,43,150,110,-204
-105,49,53,-8,17,83,125,164,41,-362
-126,25,92,29,-10,50,66,121,-4,-293
-83,-3,84,25,-53,15,38,86,9,-106
-38,-41,36,-11,-76,4,38,43,-28,41
-2,-48,28,12,33,32,11,-29,-78,72
49,-4,64,12,6,-21,-58,-67,-52,64
85,39,66,-78,-127,-71,-137,-118,-38,60
151,72,22,-215,-92,-29,-102,-127,-67,106
120,14,-132,-382,-124,-90,35,-16,0,159
39,-61,-307,-496,-238,-83,373,104,17,162
105,-57,-242,-205,-110,-22,490,1,-138,130
58,-89,-155,151,89,-12,360,-51,-150,62
-213,-133,-70,306,295,7,181,29,20,-1
-273,-56,-38,293,312,68,196,48,95,-64
16,139,121,182,192,134,88,-55,39,-2
205,251,202,105,-2,133,-300,-139,2,36
224,163,118,60,31,49,-628,-121,95,230
239,117,55,75,103,-23,-571,-149,109,412
243,96,-13,48,78,-32,-262,29,82,458
224,63,-55,-29,19,-34,-87,133,19,310
182,74,-166,-78,16,-19,-122,-38,-82,-25
-30,53,-72,-17,45,10,-191,-168,-183,-488
-262,-35,70,74,56,109,-106,-150,-186,-673
-337,-74,120,90,22,141,41,-39,-95,-532
-295,-110,64,-9,-78,-8,19,-7,-24,-321
-256,-146,-46,-146,-128,-59,4,-6,-46,-250
-184,-98,-20,-97,-77,-131,-53,-19,-41,-209
-165,-92,8,-43,-80,-206,-50,42,43,-195
-202,-132,-6,-28,-97,-216,-24,87,96,-197
-173,-98,21,57,-19,-137,-54,-5,16,-160
-14,30,82,114,100,-12,-72,-104,-52,-38
140,85,118,20,22,59,-25,-88,-16,168
127,-18,39,-35,53,91,38,54,84,230
97,-58,22,1,86,78,105,190,173,266
60,-76,10,0,42,50,72,123,108,217
36,-68,0,-30,-4,20,12,19,19,135
26,-9,36,-29,-13,9,23,4,-2,58
18,-16,4,-55,-33,-4,33,8,-56,-1
-13,-51,-21,-91,-47,28,74,2,-165,-108
49,20,-46,-102,-31,123,159,3,-81,-61
10,-47,-88,-90,-60,94,111,-69,-90,-89
-90,-135,-78,-107,-120,-4,20,-141,-49,-141
-213,-198,-115,-107,-94,-18,60,-166,-37,-219
-292,-211,-89,62,118,-43,110,-177,-103,-301
-311,-181,-148,129,181,-106,188,-18,-141,-342
-244,-117,-188,59,146,-66,115,42,-118,-211
42,7,4,42,128,26,-159,52,29,146
328,153,71,-114,-171,55,-158,84,191,435
230,67,21,-231,-347,63,-61,31,127,360
29,-35,-18,-117,-297,9,-106,-51,9,194
-9,9,43,171,-31,-87,-233,-221,-220,104
71,113,228,474,340,-59,-220,-262,-290,106
181,210,260,384,270,-24,-63,-110,-63,144
270,251,196,98,82,69,168,88,168,149
270,215,125,39,347,222,309,162,255,115
254,192,108,-10,108,112,200,52,233,74
50,26,16,-34,17,73,160,222,185,-57
-76,-45,-29,-86,1,81,201,447,243,-90
-55,-14,-14,-140,-11,46,-55,165,167,-57
-89,-31,-7,-111,11,22,-160,22,73,-61
-104,-46,57,73,98,-36,-179,-81,-20,-45
-17,22,116,119,37,-155,-222,-252,-50,97
1,1,17,-20,-34,-130,-75,-171,-5,235
114,-19,-83,-144,-104,-50,34,-20,112,395
341,50,-50,-198,-217,-86,-94,-58,113,473
439,140,54,-114,-212,-187,-199,84,104,491
242,23,38,-55,-167,-176,-62,199,90,352
77,-82,-19,-46,-110,-100,-24,76,-10,126
78,-50,10,8,-27,-80,-162,33,-30,-78
-22,-35,52,51,28,-39,-85,185,-1,-371
-177,-98,39,43,19,-18,17,165,-38,-469
-236,-140,-10,1,3,7,59,1,-104,-450
-218,-94,9,-13,5,45,101,-73,-119,-403
-203,-70,20,-15,1,52,22,-141,-93,-299
-140,-78,-22,-73,-56,33,-4,-152,-65,-148
-68,-24,-23,-74,-81,13,-5,-106,-145,-148
-146,-70,-79,-40,-102,-7,36,113,-134,-252
-216,-145,-122,-94,-100,16,83,215,5,-228
-112,-75,-57,-113,-50,45,69,71,20,-117
-28,-9,8,31,113,121,50,-55,-52,-69
-24,13,82,145,196,170,117,-46,-65,-41
-6,15,66,44,90,158,239,32,48,80
46,20,67,36,70,91,226,17,69,166
106,45,140,159,103,-28,-7,-83,-9,186
146,51,90,88,94,-43,-148,-74,-16,176
167,51,67,75,106,-2,-166,-90,22,173
176,103,104,69,89,26,-170,-189,-55,144
29,-18,-12,-49,22,2,-131,-166,-47,69
-147,-241,-234,-156,-51,-97,-106,-120,-44,20
-92,-192,-212,-75,-7,-140,-121,-114,-29,15
89,104,53,54,-74,-165,-89,-63,6,17
-31,87,103,23,-188,-149,-33,-29,5,-43
-209,-48,19,10,-216,-155,31,0,-18,-116
-268,-176,-93,-58,-166,-72,196,84,0,-201
-191,-133,-118,-171,-172,48,492,143,37,-190
-69,-30,-93,-162,23,62,557,64,-32,-124
-104,-35,-86,-35,213,158,405,66,-38,-115
-78,-8,17,107,207,157,-37,102,58,-28
86,51,36,94,98,-30,-439,-34,45,112
161,47,0,32,-56,-154,-332,-82,26,253
211,63,5,1,-73,-113,-221,-135,-29,341
322,149,90,-19,-118,30,-132,-61,35,400
237,117,61,-99,-211,85,-5,121,165,391
202,65,32,-51,42,89,-48,23,183,401
182,126,54,47,177,71,-72,69,115,274
-28,128,46,124,182,15,-21,271,0,-76
-203,-41,-18,72,81,-50,-49,125,-85,-262
-188,-123,-142,-74,-52,-7,-38,-144,-103,-218
-107,-87,-156,-166,-285,26,32,-202,-78,-162
-159,-49,-78,-116,-199,85,86,-237,-107,-262
-189,-2,4,-29,172,185,148,-125,-123,-299
-95,-4,-20,-113,14,26,220,351,96,-67
41,-5,-58,-136,-137,-182,31,204,69,55
2,16,-15,-24,-3,-199,-254,40,-35,-125
-230,-43,4,91,138,-41,-183,145,-7,-452
-220,3,67,178,97,112,83,219,50,-408
29,93,158,167,-60,20,80,130,39,-83
81,77,112,96,-45,-22,108,-12,-70,61
-46,-46,8,135,65,27,229,-70,-82,37
-59,-89,-143,126,101,13,212,-15,11,35
101,58,-85,60,53,-10,-17,-23,39,73
111,153,45,24,2,-3,-414,-75,-61,11
-21,93,-18,5,72,54,-329,5,-24,-58
-59,-44,-83,-60,7,30,-128,60,82,-34
-45,-108,-117,-119,-85,-12,-85,23,95,24
-63,-114,-152,-37,-77,-15,-77,-34,50,13
-137,-97,-110,81,39,37,-18,-46,-25,-86
-153,-61,36,114,68,41,28,-6,-5,-87
-46,-22,71,78,7,9,0,1,37,49
61,21,58,20,-34,-13,-30,0,51,163
150,54,42,16,-7,9,-46,1,22,221
228,79,39,53,21,-5,-84,-44,-31,274
268,56,47,8,-44,-30,-100,-63,-25,366
317,65,33,-50,-93,-29,-103,-64,-19,413
280,118,50,-21,-91,-45,-139,-102,-65,316
237,147,52,-55,-100,-57,-102,-55,-28,227
155,85,33,-45,-62,-35,-33,29,52,156
-3,4,27,11,6,1,9,72,70,31
-194,-51,26,52,43,43,45,74,44,-170
-297,-107,-34,22,25,61,101,33,-28,-286
-228,-87,-127,-33,-67,25,80,-40,-108,-263
-237,-93,-90,-60,-100,14,74,-48,-135,-297
-308,-148,-86,-41,-55,34,26,-19,-96,-311
-336,-144,-45,43,109,97,21,-10,-54,-327
-179,-30,44,85,134,34,23,19,4,-185
-24,42,68,11,6,-31,31,53,36,-5
37,96,45,-73,-4,27,75,66,9,102
43,150,33,-80,14,62,74,44,-16,155
0,78,30,-107,-42,90,8,-17,-34,159
-1,4,12,35,30,155,74,-68,-6,184
34,10,-5,163,-53,127,119,-78,56,178
87,38,3,31,-119,24,52,-91,23,135
133,33,-61,50,206,2,-28,-118,-112,93
188,46,-19,-102,95,0,66,26,8,140
69,-69,-64,-186,-200,15,203,138,106,76
-69,-147,-15,111,-62,-55,94,-23,-38,-86
-38,-28,141,294,72,-168,-119,-161,-148,-169
9,45,101,191,226,-52,-112,-120,-112,-151
-95,-69,-104,-36,125,-22,-27,16,78,-109
-150,-142,-221,-130,-30,-29,12,63,135,-133
33,-65,-159,-129,-73,-76,-50,-42,25,-90
114,-23,-164,-136,-186,-197,-139,-127,-37,-61
-15,-63,-235,-102,-196,-198,-137,-132,-48,-152
-82,-18,-138,15,-76,-39,-52,-44,21,-149
-1,98,61,59,-65,117,0,23,88,-22
-17,36,92,34,144,254,34,31,91,101
76,40,22,-26,114,204,33,7,-5,176
223,114,17,-57,67,56,-17,-113,-156,139
193,218,-11,-2,233,16,68,-283,-242,54
-32,28,-50,24,205,-45,105,-344,-237,139
-73,-118,36,89,-106,-114,47,-292,-97,255
85,-23,134,95,-201,-61,-74,-165,75,347
169,44,119,86,47,-100,-176,203,211,322
161,31,58,-11,29,-147,-30,249,75,232
199,107,76,-42,43,-51,38,-103,-48,209
132,137,112,-9,67,97,212,-45,97,112
-98,25,33,-84,-104,120,559,307,110,-232
-299,-77,-34,-81,-57,107,510,448,-78,-597
-358,-103,-63,-44,10,82,334,569,-138,-677
-274,-87,-21,0,62,25,-52,247,-179,-517
-133,-26,25,13,64,-22,-211,-88,-296,-320
84,65,48,-43,-34,-65,-191,-162,-205,22
218,46,51,-47,-48,-82,-437,-182,-60,248
198,20,0,-19,53,-15,-414,2,17,195
185,73,57,20,45,30,-197,186,78,194
174,102,27,-31,17,108,-47,155,112,282
113,57,-49,-83,-29,103,20,193,162,222
3,18,-54,-5,-46,-13,9,173,143,56
-60,-15,14,146,-7,-133,-42,123,123,26
-133,-64,62,182,56,-132,-77,85,115,-3
-213,-143,-41,15,3,-64,-28,98,144,-130
-242,-151,-77,-87,-65,-59,-47,16,81,-196
-236,-129,-55,-56,-56,-45,-57,-30,51,-123
-161,-114,-30,-25,-41,-48,-45,-67,-24,-58
-135,-117,-26,-3,20,6,34,-27,-14,-3
-150,-144,-7,52,97,124,200,136,125,-18
62,-8,35,56,56,123,228,159,157,54
230,138,96,80,37,78,24,-43,6,64
141,167,133,155,76,143,-32,-193,-84,-8
36,124,146,149,37,178,-2,-186,-64,-25
-47,22,83,59,-46,158,38,-58,-16,-81
-130,-33,11,24,-47,97,80,31,-5,-235
-115,-16,22,77,160,47,33,6,-42,-331
8,72,68,103,281,0,14,24,19,-162
9,63,93,48,75,-80,7,43,82,-10
-65,-20,25,0,-24,-103,-32,-18,-33,-31
-57,-37,-29,-46,-67,-149,-74,-75,-119,-2
-31,-60,-76,-116,-110,-170,-56,-100,-56,21
44,-63,-102,-172,-159,-114,-48,-124,-18,19
33,-55,-81,-190,-159,-13,-19,-118,-7,18
-92,-124,-97,-160,-148,27,31,-98,-5,18
-84,-134,-144,-150,-234,-40,27,-73,2,79
59,-62,-85,-165,-345,-219,-14,-20,66,183
203,2,-48,-87,-139,-250,-113,-110,-29,178
220,8,-19,84,175,-161,-161,-179,-80,139
190,81,54,186,407,4,-83,-109,-18,145
212,205,163,152,233,121,44,59,68,177
343,326,272,70,-47,57,87,190,169,305
334,282,198,-1,-164,-42,0,58,25,316
150,61,5,-40,-98,-50,-29,-5,-86,322
84,-94,-142,-85,-15,-70,-9,25,-4,302
62,-64,-163,-53,149,-71,-29,7,27,142
4,-45,-194,-97,75,1,26,90,125,167
-13,-61,-142,-258,-162,51,141,156,158,194
-13,-71,-140,-334,-229,20,182,111,92,59
-27,-63,-81,-136,-96,27,160,45,4,-140
-73,-13,94,203,62,-2,15,-42,-81,-284
-144,-42,129,247,117,15,-102,-83,-104,-260
-214,-96,55,128,104,68,-102,-100,-157,-319
-164,-43,56,56,60,31,-104,-85,-150,-256
-84,0,83,68,53,33,-84,-70,-216,-165
-33,79,120,130,55,125,12,-19,-243,-130
23,182,100,124,122,308,158,29,-134,-81
-61,106,49,67,135,387,180,-11,-166,-285
-131,-16,-22,-16,109,322,142,-55,-123,-403
-104,-27,-36,3,208,197,79,-102,-70,-335
-98,-27,-6,72,249,-4,8,-104,-29,-200
-138,-51,-21,34,231,-77,19,-40,33,-99
-175,-61,-1,88,167,-93,19,-10,39,-174
-206,-69,37,157,-216,-170,4,-6,23,-240
-162,-49,0,118,-323,-225,-54,-130,18,-95
-92,-46,-66,72,-62,-71,-52,-143,65,32
50,50,2,-2,-41,-62,-58,197,186,128
19,5,-11,-106,-42,-117,19,488,259,79
-28,-52,-77,-132,-50,-64,89,324,224,39
46,-6,7,-53,-11,8,61,146,160,111
127,57,63,-13,-83,40,82,101,181,224
93,24,17,-61,-90,120,216,94,169,219
39,0,2,-35,19,244,263,40,86,118
47,-1,0,-9,86,263,157,-24,0,90
167,79,12,-46,0,69,-157,-50,15,178
227,122,23,-92,-72,-149,-353,-95,4,237
172,65,-23,-120,-121,-205,-24,7,29,225
140,41,-22,-62,-87,-160,201,0,8,205
99,-17,-25,-27,-89,-16,258,-135,-68,204
49,-117,-127,-162,-213,75,350,-148,5,192
-59,-166,-208,-253,-261,85,247,-291,-11,41
-223,-208,-207,-178,-254,27,146,-358,-183,-314
-105,-105,-75,-80,-130,-179,-318,-177,-163,-326
17,13,57,41,50,-312,-697,-98,-128,-158
-6,52,128,98,-15,-324,-518,83,-89,-43
-24,59,38,48,49,-149,-157,408,4,-7
-17,3,-60,-4,197,113,64,360,37,-39
71,26,13,31,65,107,-17,105,-26,-21
75,48,58,81,20,61,-176,0,-71,-32
116,114,112,129,-14,-86,-303,-34,-44,6
133,114,116,176,121,-174,-287,-95,-71,80
165,67,63,70,207,-45,-153,-101,-65,235
166,37,0,-6,120,21,-52,-63,-21,282
-37,-37,-57,71,160,-33,-160,-189,-148,43
-187,-110,-31,164,243,-83,-214,-189,-177,-116
-67,-2,95,212,266,25,-25,124,45,24
184,215,180,-12,-223,40,88,195,193,270
34,84,19,-195,-306,-13,88,109,115,122
-183,-139,-190,-273,-129,3,159,199,143,-134
-125,-97,-167,-274,-195,-18,205,141,106,-175
-174,-105,-136,-208,-175,13,333,55,56,-176
-242,-160,-139,-138,-91,72,382,32,23,-159
-192,-162,-126,-42,-23,56,201,0,-28,-108
-20,-53,-49,-23,-20,2,-158,-9,-35,-54
119,122,58,-2,28,4,-285,-29,-42,-87
-20,135,127,146,181,162,-60,25,-84,-255
-97,54,147,296,283,266,92,90,-53,-186
-53,85,166,269,283,263,138,112,27,8
-22,133,159,203,247,176,172,119,88,126
96,136,39,33,74,16,241,108,56,192
121,67,-86,-66,-6,-29,224,48,-10,163
51,-34,-84,-47,3,-49,13,-32,12,74
-33,-33,47,76,90,-58,-170,-94,35,-118
-121,63,187,180,117,-44,-164,-57,44,-265
-188,37,155,134,58,-60,-89,-7,81,-177
-135,23,103,70,24,-53,-20,-35,19,-60
-97,-26,35,-21,-22,-25,62,-15,30,49
-82,-37,-11,-76,-74,-55,34,3,50,92
-123,-37,-38,-57,-104,-96,-44,-68,-59,-29
-166,-41,-118,4,16,-4,-30,-60,-92,-78
-3,9,-146,9,147,72,-3,17,58,168
202,84,-101,-104,16,36,-9,47,149,385
279,182,48,-51,-161,12,17,30,119,364
230,214,41,-16,-166,17,82,69,123,327
261,103,17,-33,-118,-63,-27,-5,43,343
247,51,48,6,-144,-99,-79,-164,-84,188
148,7,27,32,-18,3,4,-271,-158,5
70,-71,-29,-16,133,180,109,-271,-129,-18
80,-100,-45,-117,-26,149,102,-294,-97,73
136,-124,-88,-154,-175,-40,-65,-117,-45,160
86,-175,-114,-99,-142,-216,-63,330,47,106
-10,-155,-52,-19,41,-252,-66,246,-76,-80
-13,-79,20,-55,-4,-161,-89,63,-73,-66
-55,-132,-62,-199,-239,-29,62,90,57,-25
-39,-153,-159,-277,-272,-18,84,51,10,-92
0,-22,-138,-170,-200,-23,29,-26,-98,-201
-37,85,-36,-58,-104,-28,82,33,-59,-170
-92,-13,-6,-53,-75,2,112,112,59,-81
-92,-53,19,50,-4,49,70,72,65,-82
-35,-23,78,138,130,87,-69,-27,26,17
73,73,123,108,162,77,-168,-47,123,175
77,78,111,68,87,72,-127,-39,134,89
-59,36,90,87,181,167,16,-15,62,-189
-187,79,129,170,251,333,160,75,86,-299
-175,76,91,143,111,302,148,50,107,-237
-97,32,33,73,-16,150,22,-85,-76,-232
74,89,15,8,-38,-25,-38,-155,-140,-148
7,-54,-41,-36,42,-210,-23,-139,-106,-148
-121,-190,-83,-37,-26,-387,-41,-144,-129,-230
-89,-151,-57,-59,-164,-372,-113,-191,-183,-260
-75,-48,-77,-20,-110,-161,-90,-122,-174,-299
-136,-56,-56,-8,-3,-26,85,-5,-124,-292
-183,-95,-17,-3,149,116,426,33,-98,-221
-92,-31,42,22,96,142,698,56,-39,-96
-42,7,50,35,63,131,548,108,-30,-30
8,65,81,150,192,91,-28,131,4,106
139,155,132,166,201,-39,-558,16,28,286
214,110,112,27,38,-73,-577,-89,36,328
231,39,37,-37,-1,-61,-407,-146,16,256
48,-99,-26,56,114,-87,-310,-231,-153,37
-93,-162,-36,119,207,-85,-179,-119,-123,-11
179,61,77,29,-34,-63,58,151,152,319
429,204,98,-193,-409,-64,126,117,192,573
287,136,-7,-209,-238,-5,57,-138,-62,435
56,-21,-108,-169,-49,43,75,-84,-52,273
32,-12,-117,-70,105,113,129,119,159,248
54,39,-40,90,104,104,114,169,150,154
-86,-73,-21,156,61,33,63,111,9,-174
-207,-75,25,221,118,50,62,-39,-79,-469
-190,0,74,189,89,12,0,-142,-135,-493
-203,-1,51,110,80,13,-10,-144,-134,-362
-204,-44,-7,22,58,5,65,-65,-80,-128
-11,1,-31,-54,-16,-13,117,-136,10,188
279,165,48,-20,-24,-36,67,-85,133,441
449,293,144,88,-14,-107,-71,374,291,528
341,188,86,44,-60,-106,-132,482,275,407
172,68,-25,-54,-73,-18,-106,217,180,158
194,109,-83,-111,-93,-7,-64,123,112,6
55,-4,-92,-178,-153,-41,-57,60,-30,-85
-194,-112,-76,-87,-55,25,-7,17,-82,-186
-182,-126,-17,46,13,0,-45,-55,-94,-213
-150,-138,-44,61,66,-73,-94,-141,-182,-260
-208,-198,-90,35,109,-12,-75,-173,-265,-243
-180,-184,-50,9,-26,51,-37,-123,-182,-86
-20,-13,4,-63,-199,-21,-8,-78,-58,83
-3,14,19,-54,-139,-57,-25,-35,-4,35
-184,-109,-47,-46,-21,1,46,104,32,-187
-243,-123,-70,-21,147,14,110,187,54,-341
-103,51,29,15,136,35,79,73,-17,-415
9,150,75,-13,-5,53,43,3,-43,-319
37,119,29,6,-61,24,10,-50,-36,-96
0,20,12,28,-151,-8,-8,-156,-59,31
57,-24,21,62,-184,17,12,-178,57,212
187,-66,-92,-57,-280,13,-7,-213,85,353
180,-142,-193,-174,-152,49,-113,-294,34,319
141,-150,-221,-176,195,123,-67,70,176,328
137,-109,-98,-70,254,126,38,332,331,355
171,2,68,85,38,33,50,95,219,207
42,25,124,123,-101,-62,61,36,132,8
-142,-65,37,41,-144,-63,190,232,76,-170
-119,-56,-3,-32,-189,-93,112,190,1,-238
-85,-65,-86,-34,-127,-47,-87,5,0,-199
-140,-79,-145,42,145,69,-110,-35,21,-209
-79,2,36,112,258,168,32,22,76,-68
13,76,93,114,221,228,218,34,55,117
125,98,57,57,141,200,274,-75,-49,194
280,216,69,20,41,15,72,-227,-61,228
113,131,25,-17,-50,-120,39,-131,54,147
-76,-10,2,-46,-91,-171,-6,-32,64,17
39,58,67,32,-39,-123,-295,-20,123,137
149,88,109,65,-69,-64,-242,175,206,331
150,49,42,54,-74,-56,-155,129,58,300
161,39,-105,4,-4,-43,-163,-99,-48,250
120,-23,-52,-51,41,-99,-217,-180,-52,189
86,23,26,-79,-69,-154,-157,-134,-59,47
29,94,34,-59,-77,-100,-24,-67,-154,-187
-198,-1,25,-24,-4,-9,13,-26,-148,-475
-456,-105,39,36,86,48,37,-22,-129,-708
-456,-184,-44,-12,74,4,7,-54,-116,-565
-279,-212,-154,-113,66,43,20,1,-29,-261
-124,-141,-113,-57,21,148,174,123,59,-25
3,-93,-64,-43,-117,82,199,52,59,96
86,-18,0,-39,-136,26,170,-32,18,147
100,36,72,6,-86,-24,77,-16,36,173
118,9,38,42,46,-69,-261,-56,-21,157
70,-4,29,113,262,-27,-354,-71,-7,136
36,20,65,75,222,141,-65,74,72,107
88,111,97,-104,-144,140,69,135,107,106
85,103,17,-128,-93,158,44,3,-42,42
3,-56,-46,-60,56,296,183,-101,-102,-32
-146,-173,-70,0,85,357,445,-135,-139,-156
-238,-151,-27,5,11,174,429,-133,-159,-252
-195,-31,69,23,-68,-86,50,-35,-86,-273
-78,38,77,-19,-131,-146,-338,82,77,-174
-15,23,78,21,-132,-182,-288,39,47,-122
-104,-34,64,300,139,-75,-83,-71,-54,-181
-103,-40,-6,304,326,-41,-20,-116,-94,-127
42,55,21,144,331,-130,-49,-81,-69,44
180,88,40,2,-115,-171,-7,56,80,206
290,157,7,-42,-356,-97,-3,100,147,353
192,99,6,-1,-192,27,31,99,116,311
166,57,36,-39,-70,47,-6,40,68,287
295,146,55,-53,83,10,-200,-119,1,366
397,203,95,-81,-57,-182,-347,-197,45,405
339,114,48,-150,-202,-334,-308,-173,17,282
309,84,37,-64,-196,-345,-229,-82,1,207
250,109,32,-22,-153,-238,-66,185,97,216
19,-49,-58,-97,-144,-118,56,330,171,114
-114,-141,-83,-101,-77,-53,69,170,135,51
-25,-132,-89,-110,-48,-31,66,-2,100,222
21,-74,-72,-16,-2,-72,53,-252,-99,278
-93,-146,-129,6,-31,-75,65,-439,-221,106
-304,-254,-140,-2,-11,47,79,-579,-268,-305
-419,-177,-92,40,68,212,128,-398,-235,-655
-377,-42,-35,-38,-62,191,118,90,-90,-740
-433,1,95,64,107,191,-66,128,-192,-865
-331,41,156,106,73,138,-122,418,-32,-631
-197,11,101,17,-77,108,31,529,136,-239
-97,-21,66,6,74,150,50,261,126,-28
7,20,87,54,346,103,83,363,202,88
77,57,67,65,133,-121,20,354,218,120
37,27,25,43,-124,-203,-89,78,18,-2
-47,-36,-21,27,-136,-109,-40,-34,-97,-117
1,-33,-67,28,-98,34,114,56,-77,-127
30,15,-22,14,75,101,161,95,-19,-131
-158,-122,-112,-25,304,106,71,24,9,-159
-130,-165,-139,-85,115,8,-95,-82,18,-72
-6,-85,-62,-106,-6,-60,-111,-113,-41,6
-4,-36,-23,-10,39,-54,-71,-82,-57,33
-16,-31,-21,-7,63,0,-16,3,15,64
5,1,-12,-34,95,69,64,79,51,64
99,76,54,-45,82,50,102,94,44,123
64,72,70,-42,45,3,71,33,68,61
13,93,120,7,56,-29,6,-29,37,32
6,28,100,99,113,-2,-55,-58,16,82
26,12,86,155,107,35,-72,-87,-9,91
189,107,112,109,33,-24,-90,-132,12,161
224,141,135,113,41,-117,-88,-155,3,141
139,99,86,42,57,-1,40,-53,44,101
46,5,-26,-62,-60,23,72,-37,10,80
-77,-98,-166,-54,13,-5,-9,-101,-51,50
-78,-137,-243,-90,21,2,-17,-37,-98,81
101,-26,-72,-158,-238,-108,-2,45,-8,225
190,41,31,-154,-344,-275,-83,-19,-82,175
153,43,36,-141,-224,-204,-119,-88,-184,51
-25,-44,10,-98,-50,-71,-12,-3,-202,-69
-76,-84,29,20,59,-62,-22,-11,-213,-57
125,24,91,96,102,-60,-56,-106,-206,132
219,66,47,-36,-97,41,124,-48,-133,258
114,-48,-62,-104,-137,97,218,-6,-138,163
119,-81,-95,-67,-49,91,122,27,-56,190
321,86,-8,-25,-77,-41,-254,-78,-72,187
342,280,152,53,-98,-22,-326,-170,-206,-153
-179,3,38,10,-87,197,186,84,-96,-497
-482,-236,-113,-18,-76,300,634,238,-38,-516
-359,-186,-170,18,65,312,616,179,-38,-353
-253,-102,-149,88,233,228,258,166,22,-270
-133,11,-1,130,197,-3,-314,85,27,-210
-113,54,41,74,75,-68,-406,-19,-25,-182
-86,0,33,-9,-51,-121,-253,-28,-2,-26
-24,-35,-58,-95,-109,-147,-123,6,-3,73
-64,-31,-120,-80,-23,-66,-30,16,16,7
-139,-20,-26,29,121,56,-15,7,23,-63
-82,-6,16,84,162,85,-21,-9,15,13
46,58,40,90,139,52,-5,8,101,119
92,109,67,122,126,19,62,14,83,48
-25,45,35,154,222,159,227,7,-15,-220
-170,22,19,185,317,333,310,-19,-77,-444
-156,53,66,147,165,239,107,-85,-102,-356
28,122,86,23,-152,38,-220,-148,-46,-26
147,119,28,-10,-40,-36,-215,-210,-5,170
228,115,19,-38,-86,-200,-64,-151,78,350
204,59,-34,-90,-225,-195,33,-107,143,433
133,43,-65,-146,-232,-89,0,-133,101,309
113,40,-88,-188,-244,-126,-89,117,101,135
84,32,-94,-101,-74,-126,-105,217,100,5
-100,-29,-82,-49,125,19,-7,4,0,-261
-337,-107,-26,42,159,134,93,-17,-37,-440
-281,-35,61,113,144,174,122,62,42,-242
-23,88,108,69,0,62,120,237,132,90
34,100,93,110,-41,-73,39,230,157,184
79,124,71,136,11,-54,25,89,127,223
142,142,16,99,160,93,112,-18,79,271
157,43,-20,68,211,144,103,-154,-39,282
242,36,26,82,51,-5,-119,-281,-72,397
254,23,24,94,-77,-208,-378,-376,-103,464
249,-47,-84,2,-39,-201,-367,-127,20,504
322,-13,-50,-39,-66,-138,-182,208,121,443
287,45,-60,-85,-230,-50,-62,37,-24,129
-52,-15,-33,-45,28,102,-2,-206,-171,-301
-395,-97,-9,-45,223,165,49,-260,-206,-568
-326,-22,25,-103,82,88,-11,-165,-72,-431
-201,18,11,-116,-133,-30,33,192,109,-250
-169,-10,-87,-159,-187,-100,129,540,181,-228
-240,-68,-34,-64,-78,-51,91,415,119,-274
-264,-93,7,90,33,-16,0,102,-33,-256
-101,-8,-6,86,94,7,-19,3,-36,-96
-25,26,-109,85,117,47,0,-27,-39,-71
-170,-108,-139,29,39,109,133,-42,-83,-175
-197,-150,-93,-57,-54,163,257,-68,-104,-151
-86,-70,-28,5,-72,45,206,-103,-61,-18
4,-51,-18,56,-38,-159,-33,-28,42,112
85,-47,-61,92,241,-37,-254,-26,56,169
246,91,46,86,103,66,-227,22,88,223
46,-45,37,33,-40,10,-155,-13,-91,-14
-127,-169,-61,-54,-66,-21,-69,-93,-161,-158
-200,-165,-30,17,2,-18,-73,-222,-151,-218
-85,-40,79,97,31,24,-90,-69,0,-78
106,49,74,-5,-88,-63,0,365,157,98
99,38,29,-80,-111,-28,71,342,136,56
110,69,66,-120,-129,-37,-18,130,95,34
65,72,52,-36,-100,-87,-29,66,82,2
63,19,-4,-27,-87,-116,-11,23,92,100
152,3,2,4,-61,-130,-68,-70,63,271
180,13,63,96,-38,-164,-157,-114,58,346
347,132,120,66,-39,-160,-122,-134,37,465
377,170,119,0,-64,-84,43,-86,0,449
132,90,67,-28,-47,29,168,17,37,247
-41,-7,0,-33,1,94,125,60,26,40
-31,-21,-7,-7,57,75,-112,62,29,7
52,4,26,20,59,50,-81,-28,-44,27
42,-58,-9,-9,-9,69,311,10,-72,16
-99,-172,-80,-67,-76,45,402,73,-56,-73
-137,-157,-69,-68,-68,-13,70,67,-22,-43
-112,-85,-5,-9,-30,-112,-459,-7,-4,-9
-255,-130,-39,0,-13,-135,-480,-105,-94,-263
-374,-182,-172,-74,-62,-63,-197,-80,-147,-552
-302,-123,-135,-156,-140,-29,-23,-23,-102,-487
-207,-59,-45,-172,-132,-13,86,29,-34,-363
-159,-1,-1,-135,17,40,147,59,-26,-300
-39,110,89,-25,102,33,156,102,50,-102
-23,113,110,137,86,-39,-35,14,34,-49
-50,64,69,174,118,-9,-143,-71,-49,-124
-2,75,78,115,121,54,-69,-50,-54,-65
4,79,94,106,115,91,8,-109,-91,-30
-43,36,79,84,55,80,76,-191,-119,-36
16,31,23,-15,-76,57,112,-153,-44,60
58,60,14,-42,-59,132,69,-191,-27,95
10,-13,-43,40,221,293,0,-91,-29,116
137,-94,-147,29,309,165,-62,218,112,322
202,-114,-128,-79,-101,-83,-97,98,175,395
186,-36,-88,-172,-332,-240,-66,-2,177,318
40,-16,-60,-147,-181,-287,0,48,159,149
-118,-79,-87,-114,-125,-198,147,200,250,19
-159,-103,-77,-31,-59,-127,114,47,48,-136
-108,-19,16,40,-3,-46,46,-139,-123,-204
6,155,164,71,-4,79,-39,-153,-70,-150
62,257,255,103,-27,121,-45,7,27,-81
-45,158,192,95,-5,110,52,162,12,-107
-136,50,64,0,99,104,107,161,35,-128
-60,38,-29,-154,65,36,92,108,39,-15
57,39,-89,-285,-163,11,81,61,32,152
141,53,-55,-200,-141,18,95,25,8,179
271,176,94,79,130,-9,18,-17,19,229
287,181,185,246,276,-35,-87,-92,-4,219
162,41,72,176,171,-43,-122,-28,-38,121
-28,-100,-86,26,0,-96,-73,110,-36,-29
-163,-191,-169,-46,5,-112,-61,0,-94,-120
-90,-204,-180,-44,60,-219,-124,-125,-135,-32
92,-104,-92,20,52,-279,-163,-149,-127,129
145,5,39,72,63,-104,-85,-86,-63,190
149,68,92,1,-6,33,36,0,10,195
165,31,8,-125,-169,14,192,112,75,294
145,-1,-62,-127,-144,-1,275,134,74,299
5,-6,-81,-34,-26,17,219,110,73,121
-86,-18,15,30,31,49,152,54,61,-54
-57,10,11,40,69,81,13,-59,-12,-81
-19,38,-46,8,43,95,23,-80,-33,-84
7,89,78,47,30,40,-52,-36,13,-77
69,97,93,48,29,-5,-148,6,100,69
96,3,-29,-73,-52,-40,-68,27,84,107
144,-12,-103,-130,-109,-75,-31,-125,-71,-34
243,67,-26,-133,-145,-87,-37,-236,-104,-94
145,-15,-33,-91,-142,-87,-44,-208,-26,-73
-40,-102,-81,-53,-66,-52,-46,-170,8,-105
-246,-99,-26,34,51,30,42,27,27,-269
-301,-46,-7,3,71,164,127,195,18,-339
-361,-65,-8,12,98,274,131,31,-67,-437
-514,-149,-35,83,168,314,160,-58,-147,-607
-429,-95,11,79,232,355,224,-18,-72,-466
-224,19,109,140,244,241,155,12,18,-245
-60,92,153,146,63,42,83,67,73,-87
80,171,198,206,-22,-171,19,205,124,90
185,188,154,239,42,-186,-43,269,110,237
215,95,-14,97,3,-100,7,165,86,281
113,-26,-60,9,-45,-2,152,21,35,186
48,-59,-73,-25,-67,56,185,-176,-110,64
-10,-31,-49,-30,-36,70,82,-302,-168,-12
-134,-43,-36,37,162,147,64,-203,-92,-112
-76,29,4,112,259,50,123,116,112,-78
-78,-3,-45,-30,24,-101,326,343,202,-55
-129,-58,-128,-106,-167,-133,88,121,132,-18
-43,17,-50,-107,-442,-195,-273,-48,137,107
49,85,34,-74,-267,-146,-221,-71,148,260
153,113,59,-51,-42,-118,-211,5,180,395
220,134,79,-6,-1,-124,-164,127,112,364
238,113,55,73,83,-90,-138,-59,-38,247
257,99,32,14,-28,-84,-201,-131,0,316
210,57,25,0,-56,-68,-301,73,44,341
102,0,-3,-14,-60,-59,-166,287,48,191
17,-6,5,-1,20,34,73,71,-83,-43
70,10,19,8,18,54,190,0,-138,-6
77,-9,-4,-2,-1,46,120,69,-65,89
140,-39,-100,-62,-19,42,-153,103,53,204
215,-24,-122,-92,-73,87,-306,-65,-14,193
101,-23,-57,-97,-92,125,-202,-225,-166,-40
-171,-102,-26,-13,-51,63,-205,-315,-216,-238
-249,-136,-32,140,58,-78,-260,-266,-168,-184
-182,-142,-36,112,197,2,63,119,-28,-115
-119,-90,-64,-64,21,34,238,317,127,-58
-195,-81,-33,-67,-138,51,162,190,92,-204
-311,-171,-83,-91,-185,147,183,129,26,-446
-213,-96,-61,-49,-164,132,134,22,-100,-543
-216,-51,-65,38,106,172,122,-36,-172,-547
-170,-28,-136,39,392,173,136,9,-96,-392
20,93,28,74,339,19,66,45,23,-154
150,189,200,95,150,-135,-46,33,57,-31
123,185,184,37,48,-111,-28,17,69,-20
103,145,110,-19,30,-77,8,34,108,83
79,67,0,2,27,-64,3,27,118,190
99,83,23,44,-43,-99,-33,-21,80,230
92,93,76,-16,-93,-86,-26,-36,52,228
-39,-14,22,-19,-39,-70,-2,-24,60,155
-132,-95,-24,62,13,-130,-52,-61,16,73
-60,-33,-9,120,80,-140,-65,-87,33,152
151,73,-20,35,-42,-140,-65,-70,120,390
277,98,-89,-78,-68,-165,-103,-144,106,483
259,91,-19,-110,-120,-137,-82,-171,51,367
124,61,28,-60,-98,4,33,-95,16,97
-38,-52,7,-45,-77,202,175,20,-20,-140
-133,-130,-73,-84,0,301,219,17,-59,-243
-120,-66,-57,-91,36,323,220,-14,-61,-247
-65,25,35,-61,30,265,191,-12,-24,-228
1,112,119,-5,25,179,131,12,47,-106
161,174,143,-10,39,150,60,96,129,137
185,113,77,109,96,100,15,221,159,214
87,35,32,273,128,-29,-111,71,37,95
64,-33,0,71,-63,-191,-85,2,-50,51
9,-98,-122,-170,-232,-266,18,69,-44,-8
-124,-130,-106,-135,-173,-180,-29,8,-100,-206
-259,-133,-2,60,0,-72,-92,-93,-179,-351
-172,-96,32,106,21,-79,-141,-123,-174,-258
-77,-33,26,40,-1,-45,-92,-106,-157,-187
-81,-45,2,22,-7,-52,-94,-119,-150,-54
-24,-80,-33,17,-18,-140,-138,-160,-165,120
-11,-105,-36,42,57,-115,-108,-173,-175,138
148,-21,1,31,74,5,0,-71,-43,212
280,98,49,-50,-122,47,103,7,74,229
69,53,38,-3,-70,59,89,-138,-53,1
-91,51,-5,84,103,151,63,-184,-91,-145
-160,70,8,85,126,224,130,144,85,-136
-151,125,72,90,106,237,102,356,239,-53
-84,146,84,101,230,204,106,286,280,-8
-112,16,26,28,214,152,239,184,173,-117
-86,-17,-48,-31,186,192,579,35,46,-124
-8,-63,-98,-121,21,164,713,-85,-46,-42
109,-86,-89,-178,-121,137,353,-198,-94,65
239,-42,-65,-168,-133,94,-274,-315,-57,236
328,23,-24,-164,-139,-31,-534,-76,85,447
294,21,-43,-196,-263,-227,-358,295,202,510
30,-149,-141,-148,-186,-287,-187,204,75,196
-180,-239,-156,-75,-57,-216,-167,107,-34,-170
-211,-123,-5,86,118,-108,-153,56,-54,-328
-151,-18,97,193,411,41,-138,43,-16,-242
1,23,82,77,296,43,-42,106,21,-59
132,56,59,22,61,66,116,158,88,100
218,107,94,-53,-280,11,208,116,136,265
203,117,87,-95,-238,41,96,-122,73,248
167,104,88,-113,-174,75,-52,-427,-90,202
97,69,44,-180,-190,32,-257,-559,-188,157
-139,-83,-39,-113,-82,16,-288,-259,-128,-99
-178,-111,-55,-6,62,-104,-214,203,-9,-263
-102,-29,-41,94,155,-160,-114,596,135,-191
-160,-68,-16,181,127,-97,-92,408,119,-147
-127,-87,5,229,24,-114,-173,28,-64,-191
-101,-58,-43,108,-124,-143,-121,-56,-156,-265
-199,-105,-68,6,-49,-53,16,16,-107,-341
-86,-46,-58,-119,-124,-27,67,87,-11,-176
157,91,-36,-182,-198,-71,38,78,50,44
75,77,13,-91,-61,-23,18,55,60,36
-67,8,39,80,67,1,-47,-2,-3,-44
-37,7,43,168,111,-3,-72,-26,7,4
50,64,120,195,100,-18,-92,-75,-6,16
75,97,144,165,90,0,-50,-76,-17,-16
10,64,103,167,88,42,-26,-85,-46,-37
-72,-5,15,173,83,106,-21,-135,-88,-63
-64,-52,-51,113,75,190,-19,-179,-88,17
-8,-19,-42,-19,-84,147,-15,-153,-39,86
-28,9,-18,-79,-275,-99,-80,-153,-67,-78
-92,34,45,32,-22,-220,-42,-109,-90,-293
-228,-23,37,124,257,-138,98,7,-44,-313
-195,-53,2,16,85,-34,144,106,95,-68
-43,-7,-28,-107,-167,-33,111,94,134,83
-16,-9,-29,-95,-131,-31,92,56,75,61
-10,-18,-16,-42,-35,0,82,49,88,41
-25,-34,-21,-18,47,44,86,39,75,23
-34,-71,-96,-83,89,104,98,73,52,69
70,14,-54,-125,16,175,107,102,63,135
3,19,-23,-143,-77,207,130,123,75,167
-35,-28,-25,-93,-38,133,48,45,20,208
164,94,80,67,8,5,-84,-87,-64,295
341,219,150,127,6,-40,-143,-159,-105,347
261,130,65,-12,-78,-23,-122,-139,-69,312
139,-8,-87,-141,-191,-24,-63,-40,44,260
109,-34,-137,-177,-266,-76,72,-4,64,153
80,43,-53,-113,-233,-162,216,38,71,56
9,73,-1,-51,4,-71,233,34,20,12
-11,19,-53,-141,-39,-17,53,37,27,51
-53,-47,-87,-145,-176,-74,-228,-47,3,-33
-88,-25,-20,-44,-102,-129,-308,-215,-132,-169
-86,26,64,33,-51,-84,-188,-268,-163,-297
-169,-19,25,47,31,3,-89,-228,-154,-450
-222,-111,-25,121,384,112,-62,-38,-61,-428
-65,-78,9,178,349,4,-82,228,71,-113
69,-28,12,90,102,-36,-25,142,51,174
135,7,2,11,6,3,120,-50,-47,321
150,93,63,32,22,-11,313,-196,-81,338
-89,51,65,114,167,117,527,-243,-121,6
-361,-88,24,200,406,349,507,-41,-78,-318
-193,-10,90,139,294,371,149,496,191,-213
-104,18,94,55,105,260,-105,369,171,-138
-118,-29,43,46,83,184,-45,91,12,-149
-139,-105,-42,-73,-55,30,-34,155,30,-162
-177,-129,-49,-72,-141,-147,-171,235,39,-235
-76,-45,36,62,-91,-207,-334,106,-6,-181
-31,-31,40,80,22,-248,-257,-16,-52,-102
-54,-72,-19,66,155,-244,-207,-116,-153,-67
-6,-78,-63,7,168,-145,-124,-143,-188,15
96,-18,-57,-48,32,-22,62,23,16,161
263,106,24,-123,-330,-16,230,187,233,326
257,109,24,-103,-279,-64,138,85,184,322
166,65,13,-48,-126,-41,-6,-32,93,234
124,58,22,-7,-98,-51,-171,-169,-2,206
176,29,-7,-7,-106,-80,-297,-264,-57,323
284,36,-26,-69,-67,-20,-197,-82,28,511
350,63,-38,-132,-80,17,-64,143,126,646
276,0,-106,-115,-102,-4,-60,-25,47,576
201,-63,-190,-116,-122,45,36,-61,42,382
243,30,-45,-69,-164,-42,10,-88,23,87
87,79,16,-73,-142,-96,-20,-41,-75,-338
-310,-18,-45,-188,-127,18,140,197,-7,-685
-354,-20,-60,-179,-57,139,168,123,-54,-684
-295,-35,-62,-73,17,176,119,-8,-100,-565
-298,-57,-26,33,58,134,86,-115,-113,-514
-325,-59,61,167,80,35,0,-265,-190,-490
-278,-19,93,155,84,-18,-1,-251,-146,-336
-235,-31,73,126,114,-5,86,-68,-53,-232
-160,-7,92,198,174,-14,36,253,81,-86
-37,44,69,212,173,-40,-5,337,48,-38
42,61,58,153,211,-23,-36,55,-94,-58
138,81,70,64,206,138,70,71,4,83
229,129,79,-48,-154,143,116,168,146,293
216,122,81,-36,-197,31,26,100,101,335
204,121,84,5,-98,20,18,36,35,297
56,51,52,32,75,105,95,-21,30,197
-78,-32,28,71,198,100,81,-103,24,129
-12,-41,-25,-24,-39,-14,-59,-143,8,199
181,-36,-104,-176,-232,-152,-216,-118,18,374
210,-84,-207,-271,-371,-251,-209,9,8,342
47,-141,-256,-307,-390,-124,-63,45,-32,29
-64,-65,-164,-124,-132,38,-9,-80,-146,-233
-87,14,7,112,180,0,-118,-213,-271,-298
-63,47,69,168,319,-46,-168,-201,-226,-213
-126,-21,4,122,244,-77,-105,-78,-100,-168
-149,-6,-68,66,115,-42,-14,34,-38,-207
-132,103,24,52,-10,29,68,55,6,-250
-144,99,73,42,20,102,118,25,54,-251
-59,106,76,67,31,72,97,1,91,-157
-12,61,63,95,-51,45,140,-12,65,-114
20,9,-10,-5,-203,21,141,105,98,-18
86,20,-27,-121,-316,-56,67,232,156,96
44,5,-32,-162,-132,-39,-119,4,35,44
-67,-40,-53,-144,166,119,-93,-37,69,13
-65,24,53,9,298,129,53,75,166,74
45,120,134,118,123,-69,57,19,81,81
-35,41,61,130,66,-103,67,-1,14,-24
-175,-119,-107,8,9,34,165,-6,35,-46
-76,-141,-160,-81,-62,98,277,-81,-1,87
135,-48,-123,-74,-76,112,461,-192,-32,203
148,16,-12,66,59,168,425,-281,-26,188
43,40,127,190,209,92,110,-12,4,177
129,102,158,145,166,-96,-339,226,83,269
234,131,112,65,77,-78,-536,163,50,247
216,102,16,7,45,-5,-290,252,107,243
193,78,-35,-39,9,21,-65,126,115,295
247,111,28,-37,-20,-30,-10,-30,23,271
181,79,-11,-36,-5,-85,-35,-93,-109,49
40,70,-51,33,195,-78,-136,-43,-48,-65
-22,50,-34,107,339,-40,-303,-38,79,0
-13,25,-90,-65,120,-7,-191,-57,75,31
-21,7,-126,-177,-91,15,-39,-67,25,-79
-116,-15,-28,-120,-241,1,24,-40,-31,-309
-332,-72,77,65,-76,13,103,32,-115,-612
-371,-148,26,61,-29,8,211,136,-67,-555
-145,-146,-42,-38,-109,-49,205,119,-15,-204
35,-93,-48,-114,-170,-127,63,21,-20,21
104,-19,-25,-122,-124,-82,-124,-73,-50,54
101,70,15,-76,-23,42,-196,-102,-76,6
126,159,117,-28,42,81,-53,-8,26,63
70,142,164,84,90,71,107,-71,-7,-8
-77,-26,50,138,83,150,321,-121,-99,-190
-52,-49,38,101,32,105,188,-194,-139,-155
17,9,135,213,94,17,-271,-386,-202,-80
-43,-19,130,273,108,-46,-317,-356,-209,-103
-25,-46,38,126,89,-2,-17,-10,-76,-98
10,-59,-40,-39,112,131,193,320,111,-25
-56,-89,-58,-37,30,100,73,235,128,-35
-204,-148,-39,80,107,33,-73,68,26,-131
-199,-160,-70,77,64,53,13,115,49,-29
18,-88,-34,-30,-84,-44,3,97,83,148
245,-8,-13,-99,-87,-95,-3,111,115,248
239,-35,-62,-195,-253,-151,-42,128,144,328
215,-48,-56,-150,-257,-185,-140,4,24,298
262,28,20,-50,-243,-204,-180,-99,-82,226
188,56,7,-17,-295,-190,-86,-55,-57,194
61,51,38,-27,-255,-89,81,28,-20,76
10,23,6,-79,-129,37,142,48,-18,-32
55,18,-43,-207,-143,118,141,77,21,-25
24,27,-83,-226,76,248,111,54,30,-75
-104,29,-17,-62,276,304,92,38,8,-248
-112,46,29,20,349,280,119,78,39,-163
-56,18,57,97,263,120,101,3,26,87
-6,-74,-16,37,1,-49,45,-147,3,231
69,-133,-134,-114,-160,-98,-75,-310,-110,243
90,-89,-110,-104,-182,-76,-161,-360,-186,159
140,36,-5,-16,-43,-80,-178,-134,-97,142
127,76,48,33,28,-131,-114,264,105,141
-109,-51,-13,0,-11,-78,-40,214,110,-102
-324,-119,-66,-9,21,-45,12,130,77,-392
-351,-40,-47,54,149,-76,46,101,28,-501
-225,99,135,172,216,-97,29,-26,-18,-327
-156,78,107,168,152,-74,30,-110,-6,-108
-108,-24,20,75,112,102,80,-163,-17,-30
-39,-47,7,30,125,339,124,-320,-74,9
99,40,41,-38,-17,331,90,-148,40,172
68,40,1,-86,-114,164,77,200,95,116
58,71,49,-56,19,-15,-68,65,-37,0
104,88,80,2,119,-226,-136,138,-32,68
-45,-32,-5,33,16,-235,-20,318,41,2
-220,-131,-45,46,15,-94,50,183,17,-165
-286,-152,-14,113,66,-38,33,73,-50,-257
-221,-123,0,57,18,-55,16,46,-63,-186
-13,-25,1,-58,-108,-140,-8,44,26,43
101,22,-20,-133,-190,-215,-15,-6,18,131
58,12,-38,-119,-157,-129,236,-2,-19,30
27,-25,-139,-96,-128,-20,447,-40,-63,37
68,-58,-142,-71,-120,2,345,-76,-91,162
263,46,3,-5,-83,-139,-175,-110,-39,279
250,104,100,127,105,-173,-589,-207,-101,162
36,40,103,191,344,35,-311,-71,-76,-62
-16,51,103,135,247,209,-19,61,7,-67
19,114,106,35,-6,217,60,41,16,-85
-127,67,101,47,-111,206,142,-6,4,-192
-169,-55,31,61,-34,132,153,-123,-64,-156
-47,-96,-20,-4,-43,55,177,-142,-47,38
113,-36,-62,-51,-112,-4,134,-95,33,237
291,75,-103,-90,-175,-54,130,189,186,375
214,47,-42,-79,-193,-142,112,354,247,308
-41,-83,-30,14,-77,-110,-57,112,127,66
-123,-87,-32,34,13,-31,-223,76,82,-76
-128,-65,-18,-4,28,-33,-278,95,70,-126
-29,-29,-33,-75,-37,-43,-149,76,95,-78
44,11,-31,-106,-61,0,-33,79,95,-50
166,61,-23,-133,-98,-2,-8,95,127,123
225,78,-15,-124,-82,-8,-17,99,150,288
213,95,3,-46,-31,-32,-92,-18,41,334
85,55,5,32,46,-44,-93,-131,-74,200
-82,-71,-2,128,220,53,29,-130,-116,31
-11,-67,2,105,219,128,100,-100,-88,105
186,91,-24,-2,-117,-11,-3,-82,-34,196
91,73,-2,100,-27,-116,-188,-22,-47,77
-99,-3,2,216,87,-29,-160,-3,-102,-165
-198,-14,3,100,-66,39,17,95,-40,-423
-251,5,24,58,35,83,71,99,-55,-573
-166,44,50,-8,76,146,112,100,-63,-441
-87,67,-15,-68,15,132,107,78,-38,-227
-50,97,50,-44,-24,112,45,-21,-86,-156
-34,63,83,6,-196,-11,-51,-134,-130,-66
-74,-82,-28,-29,-390,-109,-23,-151,-104,-6
55,-149,-173,-199,-471,-107,50,-79,-17,162
71,-57,-103,-152,-91,23,19,-66,-4,73
-98,26,21,-65,230,141,0,-8,6,-157
39,185,70,-91,89,70,107,216,90,-2
127,181,27,-40,-8,-36,174,168,96,236
35,56,75,157,115,-24,169,-55,-14,198
42,11,58,199,305,23,59,-76,0,209
83,55,11,92,204,68,-148,-44,18,185
26,22,-2,-39,-38,124,-161,-106,-91,-74
-54,-56,-8,-72,-165,82,-61,-179,-174,-323
-105,-87,-27,-46,-133,15,-102,-189,-153,-373
-152,-107,-27,0,43,-50,-195,-116,-56,-264
-171,-100,-9,42,124,-164,-86,44,53,-170
-137,-91,-18,-33,62,-154,-38,63,87,-27
-46,-68,-20,-72,-19,-101,-31,12,53,82
133,13,23,-37,-53,-91,-18,-36,9,131
198,64,48,-9,-4,-61,-36,-23,13,161
108,60,64,43,125,81,59,-32,-20,95
65,40,74,92,167,128,105,-137,-86,92
46,22,93,141,172,50,44,-274,-167,35
40,48,171,225,166,-86,-79,-340,-157,14
153,63,133,131,125,-41,-186,-158,-5,200
380,127,66,-49,-96,-12,-87,361,213,413
415,164,33,-94,-161,-15,-25,305,142,277
231,119,8,-52,-53,178,73,145,95,125
-43,64,82,52,75,317,132,153,132,17
-184,12,84,-4,46,242,182,177,156,-20
-344,-142,-51,-106,-10,110,172,73,69,-130
-426,-259,-126,-36,49,-22,119,-115,-88,-268
-410,-297,-107,111,143,-110,255,-249,-205,-350
-218,-151,-14,110,110,-72,347,-115,-112,-224
3,27,59,23,0,-49,216,220,77,-28
65,60,53,-18,-27,48,-144,214,142,31
136,92,77,-34,-190,32,-433,75,174,151
274,157,131,31,-151,-112,-370,-41,122,350
404,229,128,55,-98,-255,-226,-36,138,536
242,130,-7,-3,-79,-264,-81,41,90,349
-44,-6,-60,-57,-64,-193,22,180,126,37
-114,-6,-50,-46,-45,-86,-24,158,147,-79
-96,14,-90,-47,-11,3,14,88,89,-98
-129,7,-26,-47,19,98,239,84,12,-170
-189,6,1,-17,15,125,402,-57,-106,-323
-251,-64,-24,-15,-11,55,323,-173,-194,-378
-170,-102,-62,-71,-63,-44,86,-92,-81,-186
-25,-45,-42,-75,-40,-117,-352,24,29,-30
-25,-24,-39,-36,0,-139,-436,128,92,-7
-202,-176,-175,-73,-12,-85,-142,68,64,-92
-247,-204,-152,-76,18,-38,-64,-181,-79,-179
6,-12,7,-8,79,28,-110,-348,-119,-48
198,101,54,-7,-5,87,-89,-240,-22,168
123,24,-80,29,59,57,-35,152,103,257
75,-22,-54,24,139,65,33,267,183,289
61,-33,-12,-111,-45,58,147,351,245,311
90,-27,-9,-105,-74,0,87,246,115,245
170,32,49,-7,-58,-55,-63,-8,-89,96
139,88,102,52,-95,-128,-79,-60,-123,-55
66,56,70,97,-44,-140,-98,-104,-120,-86
43,29,-19,138,206,-48,-98,-139,-126,-78
72,62,-37,77,285,61,8,-22,-20,-23
52,44,15,-28,-21,63,84,56,45,-46
-3,11,0,-116,-270,-14,76,34,24,-121
-115,-78,-53,-106,-272,-47,0,-33,0,-120
-202,-157,-102,-81,-94,54,53,-7,8,-93
-173,-122,-38,3,18,55,49,-52,-53,-140
-133,-52,39,71,-14,-20,-42,-153,-157,-271
-134,-39,40,80,218,-1,-61,-159,-158,-265
-38,-28,25,48,288,-49,-32,-48,-29,-33
97,27,19,0,145,-111,-13,39,52,142
194,118,57,-2,11,-43,2,27,50,182
135,115,97,45,10,40,33,-32,-21,102
48,38,73,84,71,138,119,-39,-64,76
58,-34,3,49,55,106,90,-69,-67,146
96,-46,-22,24,83,50,-81,-157,-86,125
169,53,58,94,28,-52,-254,-166,-67,0
35,10,11,62,-195,-111,-35,-44,-67,-132
-139,-119,-71,-29,-217,-28,127,-53,-83,-134
-102,-58,-45,7,81,115,48,-220,-118,-84
-20,-1,-54,62,404,169,-13,-302,-152,-44
90,63,12,44,198,-1,-35,-140,51,151
104,12,15,-33,-57,-192,16,289,160,243
44,-124,-103,-154,-112,-112,138,234,107,276
64,-144,-133,-168,-91,0,204,-25,45,333
89,-46,-72,-107,-78,45,128,-99,16,240
70,58,16,-34,-49,56,-20,-24,49,119
-14,97,52,-6,-48,25,-65,270,140,-13
-116,122,69,36,-3,27,29,364,147,-233
-188,91,96,139,109,71,145,147,-10,-414
-259,9,77,151,127,102,270,-19,-104,-453
-294,-45,23,36,46,42,286,-43,-89,-422
-256,-52,-7,-18,10,-7,138,-19,-42,-316
-54,20,-1,-42,47,21,-88,29,60,-63
78,81,36,27,74,56,83,55,110,80
38,39,6,70,155,12,299,16,-2,-36
24,0,-40,-43,5,-15,167,8,-24,-61
23,6,-7,-137,-254,-71,-221,152,160,42
-81,-84,-42,-130,-287,-124,-383,95,139,21
-115,-121,-97,-38,-130,-152,-244,-28,29,-5
-149,-121,-88,-15,-71,-98,-70,-28,-7,-91
-86,-68,-84,-38,-78,-41,54,-27,-70,-131
-33,-32,-64,-40,-60,31,120,-37,-69,-74
26,-25,-75,-86,-34,129,169,-49,-28,40
85,-23,-137,-111,-22,171,84,-62,23,211
160,34,-122,-118,-23,142,-134,-115,48,310
266,169,19,-13,72,135,-236,64,34,296
171,166,170,191,159,91,-183,171,-56,93
-63,-3,117,250,148,66,-110,32,-127,-132
-134,-107,-8,114,103,144,73,111,-34,-114
8,-94,-56,-24,40,152,81,82,-16,85
190,2,-17,-73,-19,70,-9,-43,-50,185
87,1,9,-42,-22,-19,-25,-22,-14,103
-68,-78,-13,20,-41,-160,-65,-48,-38,4
-42,-89,-57,-92,-157,-218,-101,-122,-99,40
27,-14,-19,-112,-166,-68,-26,-81,-58,120
30,24,28,-71,-234,5,89,23,73,151
-102,-10,12,65,-88,-73,50,-55,1,-43
-185,-26,40,192,213,-125,66,-198,-179,-292
-149,9,65,150,110,-223,71,-256,-232,-325
-187,25,106,160,-63,-118,33,-225,-192,-391
-235,7,116,151,-153,34,-108,-20,-73,-380
-236,-68,11,18,-84,154,-51,170,35,-248
-71,12,8,-50,136,250,97,81,51,-36
194,186,118,91,423,154,19,-88,81,294
349,243,116,129,245,-42,-112,-79,148,457
250,148,56,40,65,-94,-91,130,227,376
157,37,-25,-62,-59,-130,72,355,260,317
192,22,-68,-139,-119,-153,34,234,184,357
266,-5,-90,-168,-129,-162,-68,53,53,410
257,-15,-129,-157,-160,-184,-89,17,47,320
190,2,-95,-111,-184,-195,-95,17,34,68
36,-31,-54,-73,-169,-141,-53,1,-24,-159
-102,-56,-96,-61,-86,-57,22,-30,-72,-291
-131,-58,-114,-74,-53,-4,42,-165,-132,-251
-19,-3,-30,-23,100,19,-89,-399,-202,-53
152,126,124,89,137,-20,-168,-457,-173,110
102,148,176,123,42,-5,-100,-399,-152,9
-45,51,135,127,87,71,-101,-73,-37,-59
-39,3,83,104,-16,13,-50,531,118,-8
2,-8,31,19,-127,-61,-37,382,60,13
-87,-18,-3,-2,-41,32,72,167,29,-118
-257,-29,-7,58,195,149,130,99,11,-302
-297,-18,13,96,271,150,124,23,-60,-326
-157,10,36,77,120,106,109,27,-31,-161
-18,4,2,3,38,57,63,204,77,-37
6,-16,-40,-87,-40,-13,70,260,90,-71
-61,-57,-66,-118,-77,-35,59,79,-27,-210
-171,-102,-73,-46,1,19,55,-47,-117,-317
-144,-148,-81,-66,15,46,23,-76,-129,-163
-75,-143,-107,-120,-3,73,26,-73,-94,83
-44,-178,-159,-134,39,251,81,-22,-53,224
-47,-205,-186,-50,138,355,75,-25,-37,175
-1,-149,-173,103,231,278,-6,-94,-63,108
192,29,31,144,98,-22,-100,-99,-40,201
195,89,120,115,89,-184,-171,-107,0,215
79,43,106,90,143,-43,-94,-37,72,129
-43,-33,19,22,-32,24,162,-29,55,-107
-5,0,-26,-29,-102,65,545,-116,-61,-263
-7,7,-32,-29,-75,124,722,-39,5,-128
-57,18,22,35,10,63,361,91,160,35
4,83,103,57,44,-82,-324,261,260,116
32,110,104,35,52,-198,-562,273,230,45
7,76,94,65,118,-185,-362,96,97,-76
39,8,27,6,89,-154,-218,-36,3,-9
50,-19,-36,-105,-166,-140,-109,-41,-1,92
38,-26,-83,-168,-365,-195,62,-16,-23,71
-60,-82,-150,-149,-206,-164,159,-14,-48,-21
-114,-34,-68,-78,-86,-40,178,55,-39,-140
67,142,87,-44,-196,-15,-31,45,-31,-102
43,137,113,24,-135,17,-229,-35,-52,-124
-125,14,78,71,-70,65,-130,-25,-65,-129
-208,-52,36,90,-64,53,-61,-29,-127,-127
-166,-54,-54,88,-45,-5,-99,-105,-147,-59
-19,-17,-111,95,213,0,-147,-206,-161,44
192,121,28,55,380,145,-26,-85,-10,231
391,281,142,-160,-126,126,118,183,302,448
392,237,83,-190,-228,80,50,123,247,473
218,78,-92,-103,-197,0,3,25,103,346
26,-99,-162,-2,-241,-88,-31,-22,9,210
27,-145,-152,-13,-215,-131,-64,-53,-19,217
90,-84,-156,-72,14,-99,14,50,82,284
88,-52,-77,-79,149,-44,70,56,91,181
-61,-94,-61,-80,48,4,47,-63,-33,-133
-376,-172,-48,-22,61,53,61,-129,-149,-539
-447,-142,22,60,105,146,81,-108,-136,-614
-254,-11,86,134,88,233,92,13,-58,-372
-106,80,88,198,151,268,114,94,-47,-275
-68,96,96,241,308,259,37,-29,-129,-329
41,88,103,202,247,132,-35,-59,-62,-141
166,23,5,84,101,-29,-57,-18,43,167
204,35,84,36,26,-118,-25,0,91,275
186,129,179,36,-30,-154,-9,39,112,199
166,140,156,-50,-70,-106,36,99,111,125
216,135,56,-125,-78,-88,47,60,72,104
52,-3,-70,-86,-25,-14,156,14,1,-36
-140,-131,-197,-30,-58,-14,231,-45,-72,-177
-174,-147,-258,-105,-156,-60,244,-134,-129,-139
-61,-102,-164,-200,-215,-85,16,-161,-103,63
61,-58,-84,-216,-191,-96,-273,-251,-95,210
122,-28,-69,-232,-183,-69,-318,-245,-45,310
204,32,14,-136,-155,-81,-210,25,89,390
160,26,87,80,-112,-146,-134,-46,47,225
64,11,110,101,-90,-141,-115,-195,-33,63
59,51,135,106,18,0,-162,-175,-83,77
125,89,69,64,192,84,-152,263,89,196
97,24,-40,-65,100,33,-59,440,274,133
50,18,0,-29,-11,-39,-47,242,211,-46
-69,36,57,19,3,-58,34,100,72,-282
-259,-37,44,50,45,-46,104,38,-1,-425
-262,-68,27,65,77,1,66,-23,-33,-408
-266,-66,29,72,128,55,-25,1,-20,-392
-323,-86,44,96,152,59,21,141,-15,-370
-290,-87,16,62,76,68,223,148,-15,-244
-171,-111,-62,-52,-71,42,265,-2,-12,19
-112,-137,-118,-122,-108,-3,139,-40,-2,95
-36,-41,-26,-59,-14,27,-153,-62,-25,17
-17,39,56,13,120,138,-245,-71,-36,-68
-26,67,94,70,199,145,-116,-76,-67,-127
-66,19,61,81,246,120,-83,-125,-99,-134
-76,15,72,66,157,84,5,46,-30,-87
52,90,147,11,-239,-95,145,314,97,102
197,129,111,-88,-232,-54,311,196,95,309
153,29,37,-51,28,58,461,89,62,335
136,-103,-68,-61,-11,32,346,74,31,312
288,-81,-83,-24,-32,-71,-195,-38,-56,289
365,46,64,128,-73,-132,-671,-211,-114,259
262,95,126,107,-244,-131,-495,-170,-32,233
75,2,6,6,-225,-107,-146,-17,34,116
-60,-100,-80,-17,-21,-81,-35,-5,-32,-4
-28,-106,-63,53,148,-45,11,-99,-99,-11
-87,-111,-91,53,128,-26,84,-174,-119,-104
-176,-79,-103,86,105,5,37,-223,-105,-165
-149,-11,-57,86,67,3,-127,-315,-83,-146
-157,-12,-85,71,96,-65,-229,-314,-94,-195
-199,-24,-86,79,124,-88,-102,-59,-93,-288
-173,14,43,85,183,3,-26,50,-28,-292
-48,78,86,27,70,160,132,225,158,-71
140,156,74,-52,-134,153,191,389,286,205
183,132,50,-42,-226,76,98,241,236,302
71,8,-37,25,10,64,17,60,108,222
44,-22,-47,61,259,67,-65,-59,-18,121
35,-11,-6,-52,93,54,-24,1,-39,-28
-9,-30,4,-103,-52,50,83,75,-36,-150
15,-38,-10,-82,-14,39,72,8,-48,-64
32,-62,-24,-76,-19,13,33,-60,-63,107
29,-136,-91,-58,-101,-21,48,-140,-63,342
92,-153,-195,-163,-213,-42,55,-163,-52,492
133,-106,-134,-239,-258,-71,12,-133,-44,401
192,-30,-74,-172,-118,-63,-115,-73,6,280
172,25,1,-80,28,-51,-131,7,21,91
-23,22,55,-31,-14,-20,76,170,55,-233
-210,0,52,-10,11,78,195,171,58,-451
-271,-14,30,-53,14,149,197,83,36,-511
-274,-8,39,-49,42,302,215,43,24,-432
-215,91,148,85,158,341,158,-27,12,-337
-185,121,153,158,184,238,88,5,-18,-286
-119,78,71,121,92,69,27,79,-36,-214
24,73,45,127,12,-135,-141,-162,-118,-126
42,10,7,87,-7,-126,-121,-257,-135,-52
62,20,5,59,98,29,12,-159,18,100
40,12,40,20,121,97,-13,-89,142,202
29,-57,-84,-21,-20,-23,4,282,236,231
187,-8,-109,-75,-177,-216,29,436,287,290
188,-32,-170,-115,-206,-200,62,177,148,238
15,-122,-171,-170,-215,-107,192,117,102,133
-62,-97,-112,-143,-170,-3,209,19,-17,-57
-156,-19,-64,61,-69,20,44,-41,-118,-259
-207,6,32,149,-11,-13,-218,-54,-93,-256
-124,35,25,182,87,-7,-221,-135,-104,-183
-36,87,72,173,269,92,-45,-144,-52,-72
93,184,187,98,193,105,114,-83,15,76
163,188,171,-20,3,27,113,-55,65,156
155,150,123,-73,-17,-9,40,135,150,143
164,166,126,-53,-2,-45,14,441,246,163
166,175,124,35,77,-54,-133,193,150,150
101,60,59,89,95,-64,-215,-74,-45,53
115,-2,14,34,15,-138,-256,-175,-152,18
57,-66,-18,-33,-48,-147,-211,-152,-138,45
-110,-157,-69,-55,-48,-74,-75,-66,-135,-51
-117,-161,-65,-61,-38,-33,-1,-23,-91,9
-16,-97,-49,-73,-67,-51,-2,-15,-64,144
141,63,54,-31,-123,-134,-91,-74,-70,108
78,76,81,14,-160,-164,-128,-124,-141,-59
-145,-104,-46,-33,-101,-67,-3,5,-111,-252
-196,-221,-110,-21,69,40,96,96,-1,-201
-91,-239,-141,-6,257,144,74,33,-2,-22
162,-126,-116,-25,129,132,87,79,74,158
327,83,-14,-22,-237,75,251,57,44,204
56,23,-51,47,-57,313,593,5,-79,8
-88,-23,-7,70,117,448,650,-22,-139,-108
-132,-9,-31,94,145,269,170,-90,-145,-220
-178,21,18,152,150,75,-447,-229,-143,-273
-124,38,104,233,292,28,-314,-262,-126,-189
-11,63,104,157,110,61,74,-13,9,33
14,48,23,-48,-19,34,177,188,100,142
62,85,18,-101,76,-8,-59,108,160,114
75,83,8,-132,-166,-159,-235,186,244,131
6,28,-19,-118,-320,-327,-153,237,193,136
-1,47,-54,-124,-317,-316,-85,152,144,107
-13,35,-17,-58,-111,-167,-40,85,97,70
-16,21,28,24,134,-110,-141,-35,18,59
25,2,-13,-15,60,-142,-173,-80,-23,92
125,29,-12,-51,42,-134,-163,-69,-8,168
165,90,9,-49,-49,-58,-77,29,43,165
67,77,-20,-36,-114,6,-10,92,52,82
-15,-5,-99,-3,-3,66,36,79,40,34
-39,-39,-105,15,40,46,88,-49,-69,-73
-9,-67,-48,-38,-8,-17,125,-135,-138,-120
0,-68,-10,-38,30,53,168,-54,-117,-129
13,14,98,13,-9,153,98,128,4,-57
-13,26,72,-9,-3,102,-126,159,66,-23
-53,-14,-42,7,35,58,-100,131,36,-76
-116,-61,-14,20,45,59,-9,60,11,-149
-193,-102,-36,-1,-31,35,-15,-28,-48,-233
-186,-130,-39,-32,-100,-2,-70,-101,-149,-288
-172,-136,-34,-8,-59,1,-41,-130,-145,-186
-208,-178,-36,5,50,21,-26,-202,-92,-17
-104,-138,-46,41,100,3,-26,-259,-44,130
81,-5,-89,41,5,-40,-88,-390,-79,134
158,130,22,-1,24,12,-107,-385,-109,4
197,183,91,-69,80,118,132,57,-42,-37
74,136,106,96,110,115,58,83,-50,-49
17,105,212,239,40,-74,-53,316,152,77
131,81,127,62,-89,-171,135,665,436,296
196,145,149,128,26,-67,107,291,233,205
46,84,115,229,178,101,153,69,53,-13
-103,-75,-14,117,152,185,225,103,90,35
7,-90,-42,3,38,151,147,9,73,285
229,-17,-86,-90,-102,97,-33,-103,64,505
238,-6,-101,-178,-208,38,-23,-161,4,427
83,-102,-192,-266,-310,-71,91,-125,-70,181
-64,-122,-207,-207,-210,-197,-10,-64,-75,-48
-242,-132,-74,-79,-93,-308,-201,60,-34,-251
-261,-53,38,-2,-73,-323,-336,35,-13,-252
-72,97,117,11,96,-174,-223,-14,-36,-250
47,168,149,40,144,-91,-148,-25,-47,-176
-33,143,165,66,61,-78,-105,-30,-76,-179
-166,62,125,66,107,53,3,-3,-115,-399
-220,14,87,75,141,125,76,26,-112,-454
-181,-37,42,43,101,102,45,44,-73,-286
-39,-12,69,20,28,100,-6,18,-26,-75
69,51,107,106,42,90,-47,-54,-42,-29
-37,5,81,132,76,109,0,-7,-4,-52
-130,-77,35,72,17,61,15,-17,5,-18
-105,-61,37,86,81,-40,-10,-33,27,13
-102,-8,63,109,88,-92,43,2,47,-46
-80,25,40,-27,-74,-59,135,13,13,-104
-88,-18,-61,-131,-84,-40,190,66,27,-130
-126,-102,-160,-131,16,-33,174,74,18,-182
-99,-129,-141,-55,17,-75,-23,-86,-89,-151
-72,-186,-130,52,-116,-37,-181,-249,-193,-54
-19,-202,-172,-46,-293,48,-30,-176,-139,55
-114,-246,-217,-123,-182,83,227,-195,-130,19
-197,-246,-216,-88,3,115,464,-242,-187,-126
0,18,-1,83,350,138,441,-116,-31,-39
263,337,222,225,427,67,-73,-13,158,211
341,326,155,206,277,46,-472,210,297,419
388,173,74,67,4,-23,-217,497,334,546
379,112,-23,-49,-102,-68,-81,276,219,510
274,68,-131,-117,-160,-60,-75,94,157,409
131,14,-53,-66,-106,-26,-48,6,60,272
32,-14,4,-26,-49,-48,-61,-31,10,99
-52,-10,-11,-42,29,-78,-49,-25,8,-149
-186,2,29,-6,16,-126,46,1,-15,-474
-275,-23,39,16,-14,-148,103,-32,-108,-510
-199,-29,31,15,53,-32,121,-26,-114,-255
-33,20,51,-31,-31,57,73,58,26,13
32,14,34,-68,-98,29,-62,63,90,203
49,-37,-8,-33,-29,9,-88,20,70,303
94,-23,-61,-1,-8,6,-54,32,46,308
113,6,20,59,28,18,-43,26,32,211
214,104,71,72,26,-3,-93,-84,-45,175
266,123,72,-3,-34,-31,-109,-169,-102,183
170,57,40,-132,-101,-4,-16,-68,-42,74
-1,-12,0,-173,-92,0,89,37,37,-48
33,-3,-35,-139,-45,-63,122,53,0,-14
135,-13,-82,-36,31,-90,106,83,-139,15
73,-90,-158,2,-87,-72,-6,10,-127,61
-84,-170,-181,-61,-292,-83,-217,-71,-68,49
-162,-137,-226,-40,-159,-39,-222,-107,-101,-108
-156,-37,-71,-12,-55,34,-4,-48,-111,-183
-175,-33,15,-85,-15,168,121,3,-35,-145
-217,-91,6,-48,158,442,226,-38,-20,-182
-148,-38,50,10,125,428,195,-185,-26,-145
-44,5,63,25,124,319,122,-288,-14,-55
38,44,87,33,84,133,100,-111,66,32
0,65,136,99,61,-92,-123,-59,42,-32
-55,54,135,101,68,-208,-231,29,-45,-171
47,53,69,0,-33,-305,-177,386,30,-72
61,26,7,-68,-82,-259,-84,451,109,-18
-15,4,18,34,6,-114,-59,187,61,-47
-16,41,66,49,18,-62,-72,-7,-46,-115
-7,66,87,28,-4,-45,-47,-140,-132,-252
-29,60,80,14,-9,-18,-8,-133,-108,-369
-62,51,94,12,0,-1,15,-72,-4,-273
-118,10,139,166,53,-28,-55,-130,-38,-138
-145,-52,107,206,15,-62,-64,-13,-58,-66
-151,-122,12,69,-109,-67,-22,68,-2,-41
-77,-88,-15,-21,-190,-82,-30,-46,0,-32
13,-15,-23,-79,-252,-74,119,-67,-35,-108
-5,6,-47,-101,-136,29,319,5,31,-46
-43,1,-46,-54,28,194,441,35,79,55
-23,-25,-50,-54,133,300,363,103,132,172
128,-3,-61,-143,22,187,101,131,210,377
337,82,-2,-45,-77,-54,-123,84,148,548
520,155,42,49,73,-269,-379,-38,52,606
353,76,17,19,162,-231,-271,-1,88,462
75,-8,5,67,117,-62,-67,40,112,189
78,30,39,68,67,-18,-51,-57,11,38
53,6,-9,-35,-10,-69,-61,-62,-11,-44
-109,-128,-124,-102,9,-71,-12,27,102,-84
-119,-107,-98,-50,100,-48,-30,-80,51,-116
-153,-77,-21,54,69,-18,-52,-194,-59,-154
-124,-21,-50,-13,-245,0,122,-53,8,-60
-86,-46,-41,-126,-293,17,169,59,71,27
-27,-20,-45,-120,-226,0,-26,13,11,51
17,37,-19,-105,-239,-60,-90,-26,-109,30
71,60,-18,-37,-117,-54,-117,-150,-203,15
44,46,-2,52,92,-12,-162,-254,-212,-67
-94,-73,-59,11,196,99,-82,-221,-150,-124
-114,-106,-102,-110,-6,213,113,-57,-21,-110
-77,-27,-99,-155,-125,305,281,131,86,-156
45,88,22,-108,-34,294,447,310,137,-127
69,135,162,187,285,215,649,362,75,-82
-10,47,102,322,212,-8,510,103,-105,-110
-26,-38,-68,173,105,-96,87,6,-119,8
68,19,-11,112,140,-43,-479,21,7,183
57,48,78,52,27,-6,-509,11,64,141
-29,-4,59,35,-5,-34,-251,-11,29,-13
-51,-48,-4,-8,-27,-87,-154,-91,-69,-84
-107,-69,-14,-26,-48,-118,-123,-129,-120,-144
-83,-50,14,-9,-54,-106,-87,-63,-55,-47
42,35,40,-2,-47,-92,-88,-61,-44,6
-19,42,52,4,-32,-40,-48,-26,-16,-102
-110,45,74,12,-22,1,2,41,31,-183
-73,126,115,52,20,36,55,49,39,-198
9,132,93,33,18,34,85,46,39,-97
80,66,32,-1,2,31,54,44,49,89
294,111,17,-28,-43,-6,-3,-66,39,309
346,127,17,-34,-40,5,-35,-211,-7,345
153,20,-64,-85,-34,64,104,-147,35,243
115,-22,-106,-145,-50,45,129,-70,82,210
148,22,-56,-96,-25,-26,13,146,161,155
-54,-16,-18,-17,-12,-112,-47,279,113,-136
-289,-94,-36,2,-5,-87,-40,-45,-87,-364
-213,-85,-22,13,2,-20,-25,-286,-173,-167
-29,-23,-20,-51,-183,-1,-60,-332,-146,-12
-118,-158,-128,-90,-74,121,-40,-266,-114,-143
-120,-202,-112,34,211,160,-86,37,3,-51
68,-48,-2,88,98,-3,-93,211,79,159
5,2,57,92,39,-58,-61,34,19,37
-174,-30,24,111,75,94,43,68,20,-184
-152,-3,-56,77,33,123,94,159,-37,-297
-86,4,-30,50,26,143,58,134,-79,-259
25,48,68,33,-7,111,85,290,77,31
127,82,61,-12,-66,29,72,290,112,198
74,45,24,19,-53,-39,-28,83,-2,143
-70,-46,-9,27,67,19,-75,-19,-62,10
-52,-56,-18,-4,189,144,-36,-22,-74,9
132,36,-7,-111,186,206,41,73,41,150
240,143,51,-97,24,8,49,125,142,237
174,97,77,-48,-79,-150,21,79,94,224
84,-14,37,-23,-52,-141,-50,-71,-46,161
7,-159,-80,-94,-75,-114,-36,-67,-71,113
5,-185,-136,-76,-75,-94,49,-12,-61,22
7,-96,-56,33,-50,-113,113,-32,-96,-153
-185,-138,-61,51,4,68,247,-13,-54,-289
-260,-159,-61,33,59,242,259,-10,26,-228
-78,-24,30,41,66,177,-12,-142,0,-90
48,68,94,82,43,60,-104,-192,-86,-18
44,76,143,181,-31,-135,-70,-65,-110,-36
-4,69,73,181,-123,-302,-45,65,-77,-48
4,61,-72,43,-64,-283,-185,79,-5,10
170,152,-11,-87,110,-175,-341,1,49,101
302,259,71,-227,-52,-46,-149,39,164,151
134,174,64,-122,-142,51,82,64,174,39
4,83,50,76,-41,16,30,-30,99,-74
25,51,45,133,79,-26,-110,-172,20,-68
55,24,64,158,256,79,-175,-205,-35,26
80,-21,7,34,75,145,-89,8,-7,193
76,-123,-111,-154,-140,112,54,73,-12,369
77,-159,-173,-197,-167,71,144,-111,-108,347
17,-141,-147,-121,-117,-39,288,-180,-173,119
-205,-137,-94,-50,-52,-103,385,-31,-101,-195
-319,-102,-17,28,113,-66,147,118,23,-274
-243,11,122,122,185,-63,-290,166,91,-306
-196,-16,91,135,76,-155,-375,16,18,-328
-130,-1,25,77,92,-128,-107,-11,-66,-288
-34,106,79,30,-5,-7,-8,43,-73,-215
-58,57,36,-5,-62,70,-73,38,-29,-106
-27,18,21,-19,-89,63,-124,5,0,68
10,-25,-18,-36,15,23,-177,-57,-11,157
76,-39,-54,-94,0,-10,-99,16,54,202
271,36,-62,-173,-198,-46,-37,68,86,279
345,20,-130,-128,-257,-137,-105,2,60,404
222,-48,-133,-39,-133,-205,-25,-40,61,367
86,-44,-43,-17,0,-159,241,-16,79,175
43,49,47,-20,-34,-101,281,-57,-3,-76
-89,57,90,37,15,-29,72,-25,-5,-224
-176,48,121,120,141,48,-217,49,82,-224
-139,30,41,127,148,57,-192,53,59,-232
-129,1,15,107,90,46,-27,-32,0,-284
-140,-8,-35,107,81,36,63,-136,-69,-272
-71,24,23,93,84,32,82,-208,-102,-152
12,73,57,48,75,53,15,-284,-139,-119
26,44,20,-4,18,64,-43,-39,-30,-76
43,-24,-32,-65,-63,131,80,402,172,52
43,-58,-118,-108,-109,214,75,226,109,120
89,-24,-103,-36,-5,197,12,29,22,190
253,111,50,23,96,18,-78,-73,-19,251
210,108,37,-51,47,-111,-74,-121,-47,203
-25,-21,22,19,162,-119,-34,-144,-98,13
-185,-88,44,67,91,3,44,-77,-98,-157
-255,-99,19,2,-136,26,142,81,-24,-239
-291,-156,-26,1,-121,-7,190,187,20,-228
-198,-123,-93,28,-33,22,147,66,7,-127
-118,-78,-55,90,110,67,34,-152,-132,-117
-28,-38,17,143,151,72,-9,-155,-168,-80
97,8,42,90,28,34,60,-37,-91,32
167,79,98,77,44,-9,75,-14,37,158
175,95,96,26,18,-14,-2,184,234,312
295,156,92,19,-1,-43,17,462,374,498
369,178,17,-16,-30,-58,-21,229,215,459
292,118,-36,-59,-48,-56,-51,60,98,281
143,41,18,-86,-77,-56,-67,42,62,186
103,40,52,-83,-114,-39,-75,-42,11,170
56,-7,6,-98,-146,-8,5,-12,0,94
-51,-51,-28,-119,-90,0,32,7,-8,-125
-300,-141,-75,-106,85,62,104,0,-78,-497
-436,-183,-77,-104,18,75,179,-14,-154,-661
-368,-168,-40,-32,-49,44,144,-132,-226,-587
-288,-183,-51,21,-36,2,58,-132,-163,-395
-246,-188,-53,0,111,68,27,-63,-48,-257
-213,-115,-41,12,251,174,55,-33,0,-186
-75,-18,-43,-19,110,83,-8,67,-2,-43
68,-34,-51,-77,12,17,-14,182,15,128
194,-22,-29,-18,58,-6,-55,64,20,288
247,-10,7,93,122,-80,-176,-86,-49,345
190,-30,45,216,156,-159,-280,-158,-85,332
176,52,123,208,107,-134,-242,-151,-49,292
237,178,160,58,4,15,-24,-47,2,281
206,141,79,-102,-83,33,152,3,-8,191
163,65,6,-144,-159,-31,172,-62,-31,160
88,-20,-36,-106,-137,-117,49,-78,5,140
-32,-102,-97,-108,-57,-117,-149,25,103,5
-16,-81,-130,-200,-40,12,-148,43,104,-109
36,5,-95,-288,-198,107,147,29,98,-153
-132,-53,-87,-196,-157,97,280,-40,10,-261
-132,-55,-54,-81,-85,11,173,-160,-90,-182
-11,73,28,-23,-58,-43,-9,-172,-65,-114
-43,106,83,74,20,3,-59,6,-31,-135
-158,-22,9,110,-2,2,-73,10,-29,-132
-120,-55,-34,25,-61,-35,-178,-151,-101,-99
-40,-66,-29,33,96,61,-172,-38,-110,42
101,-65,9,129,305,297,-28,96,-54,245
351,85,103,131,235,401,113,85,58,461
457,158,99,17,33,187,282,16,63,545
361,84,23,-20,-6,52,344,-132,-35,364
67,92,121,80,71,-33,255,-82,-77,-91
-315,51,149,115,75,-155,-41,198,68,-441
-459,34,189,230,150,-169,-519,211,146,-518
-341,33,125,161,100,-111,-449,68,37,-413
-219,-49,-54,-64,-97,-71,-50,52,29,-228
-108,-91,-209,-172,-188,-11,140,-73,30,-53
-62,-94,-312,-178,-189,63,217,-128,41,-6
-58,-73,-149,-109,-122,9,-21,-217,32,2
-33,-40,-14,-46,-15,-64,-230,-24,59,52
-80,-147,-117,-97,-53,-179,-34,412,137,87
4,-132,-136,-110,-8,-207,-38,309,181,187
140,17,-14,-34,0,-107,-59,195,193,177
159,77,86,104,36,-63,-86,32,8,60
44,47,133,241,145,23,-85,-61,-66,7
33,55,123,225,146,51,-1,26,14,54
70,83,114,126,77,13,-9,55,46,50
15,101,119,95,101,37,-20,-26,-62,-191
-111,51,117,119,180,99,39,-3,-93,-304
-150,8,73,55,113,100,117,67,-39,-200
-116,0,13,-6,22,15,83,9,-90,-169
-177,-78,-70,-51,-43,-57,-19,-125,-177,-249
-155,-76,-68,-57,-69,-88,-72,-208,-209,-265
-128,-40,-40,-38,-44,-58,-52,-233,-206,-240
-130,-54,-65,-15,-10,-66,-76,-182,-118,-138
-144,-133,-131,-28,32,-98,-39,-6,-34,-61
-66,-108,-117,-52,71,-44,40,121,0,5
125,48,-52,-69,-53,38,89,104,64,179
188,95,25,-88,-126,84,69,50,67,286
232,30,-38,-172,-110,97,31,74,138,418
235,-55,-133,-157,-109,85,9,99,206,549
285,-2,-50,67,-5,19,-76,-24,71,564
459,186,127,203,22,-157,-131,-80,26,520
384,186,96,64,-79,-166,-69,-71,-8,309
128,38,-52,-58,-156,-72,27,-101,-48,92
-30,-95,-122,-116,-107,-9,152,-122,-52,-71
-63,-112,-121,-97,2,-10,206,-230,-101,-138
-200,-117,-66,-52,-94,-17,157,-298,-114,-249
-281,-86,-6,0,-127,-35,63,9,13,-315
-68,56,67,23,-128,-86,-134,288,136,-147
18,62,45,-4,-49,-55,-255,142,107,3
-109,-42,-28,-25,183,88,-45,138,81,-27
-60,-70,-74,-54,173,89,-6,24,-43,-32
87,7,-7,-64,46,6,-89,-53,-86,69
150,63,28,-64,3,-14,-75,-35,-84,125
169,85,34,-43,42,0,-13,1,-69,175
14,-10,27,73,247,90,0,4,-59,20
-116,-41,47,181,271,143,-35,-24,-107,-276
-160,2,76,107,-59,136,15,84,-47,-379
-198,9,73,42,-72,136,73,193,99,-280
-86,21,24,2,8,101,49,144,100,-69
-34,-9,-5,29,24,84,43,58,23,47
-104,-63,21,95,-65,-39,37,-50,-48,-8
-168,-124,-9,92,-181,-170,78,-127,-154,-220
-174,-127,-52,86,-116,-159,158,-99,-201,-323
-70,-35,-114,-24,-60,-36,162,51,-6,-108
-23,49,-68,-147,-126,81,127,90,150,-7
-67,43,-41,-221,-116,164,177,50,143,-81
-79,32,-39,-209,-66,160,-54,-65,53,-94
-3,61,5,-141,30,115,-223,-21,-12,-43
152,162,132,15,47,-5,-165,188,34,52
163,164,137,20,-37,-84,35,219,120,97
12,87,101,106,181,21,348,82,86,-8
-80,18,79,212,293,67,360,30,-23,-160
-72,5,43,97,220,75,60,61,-52,-190
-3,51,69,103,247,61,-445,4,-32,-66
155,137,125,125,124,72,-435,-11,38,144
264,176,140,43,-31,34,-199,11,89,247
164,54,22,1,-37,17,-8,17,136,179
88,-17,-33,8,-43,12,99,-80,128,140
94,-58,-46,-40,-60,7,70,-268,32,202
173,-93,-121,-148,-131,-55,-93,-447,-65,365
207,-116,-194,-245,-180,-57,-198,-242,-28,459
-4,-212,-217,-262,-129,72,-52,242,123,240
-30,-163,-207,-280,-127,97,139,383,170,106
188,41,-110,-260,-187,38,176,186,84,200
114,44,-32,-126,-108,74,173,-63,-62,110
-39,-53,-111,-56,-43,133,181,-87,-93,12
-94,-38,67,286,173,163,34,-34,-81,-91
-17,84,245,474,258,69,-155,50,-104,-122
47,162,239,317,181,-64,-232,85,-63,-53
-35,75,127,217,226,-140,-25,141,0,-16
-39,-15,2,15,40,-194,179,240,77,20
-114,-82,-61,-55,-35,-106,179,239,87,-99
-82,-35,6,78,33,-81,-142,-9,-1,-132
29,-5,30,70,3,-137,-312,-172,-25,-19
-33,-84,-56,-22,-16,-165,-263,-147,-59,-44
-113,-136,-141,-108,-74,-238,-222,-91,-101,-170
-209,-148,-100,-74,-51,-184,-184,-137,-134,-320
-213,-88,7,-5,-85,-16,-32,-83,-73,-274
-121,-15,74,-9,-213,-36,-10,-52,-13,-115
-78,0,77,36,-140,-89,1,-33,3,-76
-105,-23,37,45,-80,-119,34,-23,-43,-104
-90,-54,31,58,81,-25,33,1,-12,-39
29,-11,35,19,133,65,94,42,64,59
138,94,43,-51,-54,32,70,50,77,91
131,126,70,-32,-95,8,-8,-30,-21,-7
51,104,93,33,-106,-2,-20,-93,-108,-101
-34,32,44,14,-206,9,42,-7,-69,-85
-41,29,27,26,-106,69,86,51,-15,-40
63,94,79,33,102,120,0,12,21,63
127,71,44,-20,206,132,-32,-34,-7,149
126,-15,-59,-113,112,111,37,-34,-52,194
70,-101,-172,-181,56,76,26,-33,-41,194
-88,-218,-260,-188,51,2,-22,-46,-41,50
-100,-224,-216,-94,-71,-153,-78,-117,-58,-49
-39,-122,-69,-17,-315,-210,-12,-68,0,-70
-73,-56,3,-18,-221,24,84,-6,25,-168
-52,79,111,36,-66,146,103,15,17,-201
-101,153,199,146,-41,77,106,58,39,-247
-150,103,132,168,74,60,106,-39,-28,-268
-21,112,33,147,257,92,109,-131,-45,-99
113,104,-40,12,190,81,151,-64,104,156
294,161,-12,-86,28,49,81,20,188,413
389,217,51,-57,-64,5,17,278,191,442
306,131,43,-13,-66,-7,55,371,144,333
191,45,9,-3,-86,-51,-41,130,61,261
132,28,-21,-13,-88,-77,-104,57,66,232
35,38,21,-3,-1,-99,-6,50,13,61
-40,72,93,44,111,-103,59,48,-56,-145
-129,9,35,13,58,-44,86,87,-19,-177
-105,-23,-43,-35,-8,-44,-25,55,32,-50
-55,-72,-83,-72,-31,-34,-58,-49,10,35
-76,-156,-95,-101,-39,-13,59,-157,-87,2
-30,-122,-141,-99,-44,5,139,-122,-81,29
57,-58,-198,-59,-46,5,117,6,32,201
132,-21,-133,-19,-46,32,166,12,62,331
197,0,-41,-75,-115,67,344,-178,-76,308
110,-52,-45,-54,-119,85,355,-298,-184,186
11,-59,2,89,53,49,-164,-366,-163,89
76,59,97,146,216,-31,-649,-335,-126,68
41,92,152,151,207,-114,-612,247,87,40
-146,-28,30,83,152,-50,-342,357,122,-181
-210,-45,37,77,106,-1,-142,99,-21,-363
-284,-37,55,62,96,46,-31,29,-37,-416
-276,-56,32,32,88,74,36,75,-3,-309
-130,-33,24,78,72,41,-4,30,-19,-187
-56,-17,-8,26,19,-10,-42,-44,-38,-208
-80,-27,-56,-26,-22,-37,-51,-140,-95,-303
-203,-68,-48,11,11,-14,-30,-232,-185,-396
-293,-75,-1,42,76,16,-9,-266,-223,-420
-220,-37,27,33,89,85,34,-103,-111,-270
-105,-50,-13,-60,-76,156,181,225,94,-67
-7,-42,-32,-54,-111,160,191,239,130,58
167,113,89,44,-67,57,113,142,151,200
248,149,75,0,-92,-6,56,29,39,193
149,52,1,-36,-11,26,89,56,32,116
39,10,3,5,115,49,101,77,63,40
-5,62,97,60,96,24,51,-8,33,-21
-20,90,144,107,96,-2,-38,-98,-21,1
46,92,138,99,74,-37,-96,-174,-60,78
109,72,77,46,37,-32,-120,-178,-42,137
77,-64,-81,-100,-54,-27,-12,99,83,211
-22,-180,-256,-197,-168,-46,47,158,116,218
30,-107,-143,-134,-208,-96,-34,-9,35,139
8,-21,9,-30,-170,-85,-62,60,-18,-82
-197,-101,-4,-16,-141,2,52,239,-46,-278
-266,-198,-78,-55,-58,167,79,97,-71,-186
-187,-210,-148,-120,76,270,26,-86,-83,-4
8,-86,-74,-131,7,188,-46,-158,-31,247
249,50,5,-63,-69,-28,-154,-164,24,521
372,139,102,58,-71,-423,-239,-16,79,642
356,122,134,169,136,-552,-220,78,116,624
356,67,64,130,188,-310,-84,45,115,604
403,88,26,-65,-128,-139,60,83,210,603
254,58,8,-147,-213,-48,53,-23,171,269
-28,24,27,18,-74,6,78,-153,-38,-358
-296,-29,44,186,19,25,40,-158,-182,-741
-339,-4,63,123,-21,-20,-140,-82,-180,-714
-321,-7,31,-25,74,206,103,297,69,-514
-146,51,8,-154,182,385,325,422,187,-159
-3,125,-2,-183,97,199,229,200,109,-6
-79,38,-140,-165,-51,-22,106,82,89,-46
-123,-49,-112,-41,-75,-170,-30,-9,21,-189
-98,-50,-47,-60,-74,-195,-84,-31,-57,-355
-275,-111,0,84,46,-113,-35,-23,-120,-460
-311,-133,51,176,109,-21,-14,-14,-112,-285
-205,-105,21,142,138,36,6,10,-46,-59
-162,-116,-7,175,247,33,-78,-100,-135,-17
-200,-172,-21,227,300,-19,-210,-280,-299,-114
-98,-129,8,190,199,35,-206,-253,-241,-22
159,88,120,42,-203,75,-33,-13,37,221
298,230,188,-2,-233,-8,67,125,164,279
252,202,157,34,9,-30,124,123,154,186
150,102,100,14,76,70,187,53,65,137
81,40,49,-35,-44,104,176,25,19,100
12,-27,8,-48,-29,123,106,9,26,28
46,-28,-30,-49,76,48,-64,-24,92,29
136,32,-6,-86,7,-104,-100,-70,109,109
45,-14,-60,-170,-177,-229,17,-110,65,52
-130,-84,-104,-111,-121,-127,66,-178,-36,-138
-108,-28,-82,-76,-44,2,24,-235,-58,-202
-12,34,-28,-80,-46,29,-41,-44,-17,-127
-82,24,-22,-50,-68,30,217,314,54,-95
-156,-26,-20,-32,-23,115,621,154,-33,-159
-163,-64,-33,0,56,186,701,-1,-47,-145
-8,1,25,70,77,73,182,-38,11,5
212,116,69,74,63,-54,-529,-98,35,189
261,113,54,41,52,-77,-588,-93,29,254
263,116,52,16,21,-84,-280,226,92,280
218,129,51,4,4,-90,-207,166,29,172
138,63,-7,-37,23,-28,-249,-24,-7,107
101,-5,-95,9,51,-78,-207,-92,-56,99
76,0,-102,53,34,-71,-154,-139,-101,68
-12,7,-23,-58,-115,12,-3,14,18,-1
-116,-54,-55,-130,-160,-33,37,146,92,-105
-89,-55,-74,-138,-139,-70,14,115,36,-159
-182,-108,-42,-20,-4,14,27,44,-39,-194
-233,-136,-11,91,57,46,9,29,-11,-115
-105,-85,-18,15,10,37,-7,26,72,23
69,-15,-33,-36,-25,13,-51,-25,72,162
157,29,-29,-11,-21,6,-42,-20,70,220
123,-18,-38,27,-58,-12,-4,-17,34,151
185,-22,-43,-51,-173,-84,-21,-61,-14,145
119,14,11,-34,-157,-51,-64,-126,-127,-74
-19,94,104,118,115,97,22,-150,-206,-321
-13,129,121,129,208,164,126,-96,-111,-205
-31,74,81,36,83,109,159,-24,21,-20
-101,17,48,45,150,22,96,-16,69,-55
-153,-51,-33,5,102,-7,26,-93,22,-179
-194,-115,-132,-96,-13,2,26,-129,-31,-247
-127,-126,-130,-39,-27,-22,81,4,-44,-169
11,-87,-84,37,-21,-65,58,-32,-52,-46
22,-46,-28,60,-23,-85,-17,-116,-13,7
-105,-83,-17,52,-29,-24,-14,9,42,-26
-149,-70,-9,17,-69,16,87,161,15,-80
-24,59,66,43,4,8,50,47,-22,-28
29,91,73,66,190,72,75,-2,-22,17
15,29,53,31,136,103,23,-64,-81,-5
-21,-26,15,-2,66,135,-32,-92,-136,-11
16,-42,-55,-140,-43,85,54,161,-55,88
81,-41,-115,-253,-112,60,130,221,17,203
198,8,-63,-248,-169,-44,88,153,95,316
300,107,11,-127,-21,-68,-65,89,133,314
303,195,73,58,92,-6,-89,41,127,241
160,113,71,196,68,7,-110,-49,5,108
36,-3,-6,130,-6,10,-122,-100,-55,69
4,-41,-24,60,-16,77,-72,-92,-5,168
-1,-43,-63,48,17,47,-74,-150,0,186
-85,-25,-39,95,194,-78,-120,-222,-56,-27
-234,-15,28,148,110,-177,-128,-207,-32,-259
-305,-25,57,130,-154,-366,-227,-266,-99,-391
-248,-21,10,83,58,-229,-57,-111,-95,-370
-63,18,-21,-98,76,116,418,385,196,-67
35,27,-2,-154,-159,74,354,323,236,165
113,64,53,0,-90,-26,49,105,145,300
203,100,76,9,-219,-36,-34,114,213,450
217,57,12,-70,-111,55,191,111,241,451
234,43,-25,-67,77,85,319,-64,121,378
175,26,-9,-55,-12,55,248,-110,73,298
104,-14,-20,-44,-21,21,-83,-143,6,185
47,-46,-60,-30,22,5,-346,-192,-110,-15
-40,-49,-95,-53,-28,14,-146,210,-4,-154
-203,-69,-94,-121,-105,75,65,296,93,-263
-290,-56,-67,-84,-95,87,32,-14,-71,-371
-364,-125,-39,4,23,84,-68,-180,-241,-455
-303,-99,13,111,180,73,-79,-64,-181,-416
-103,39,137,181,88,-73,-28,116,-126,-323
-50,21,64,99,-2,-99,-16,76,-190,-318
-79,-35,-2,25,37,19,-38,1,-171,-304
-65,-3,13,28,76,168,-87,-40,-136,-250
109,134,47,1,69,246,-59,-41,-95,-92
193,185,41,-52,43,221,111,8,-3,87
154,150,2,-83,49,186,384,30,22,167
101,87,-33,-37,45,74,406,50,62,259
101,19,12,-3,-56,-155,34,71,123,356
144,40,30,-35,-106,-268,-476,80,184,335
115,22,-60,8,-30,-182,-522,-78,47,147
155,21,-90,53,-15,-168,-331,-276,-148,74
95,-35,-97,-99,-125,-158,-100,-292,-201,57
-123,-206,-197,-199,-154,-58,106,-153,-112,-89
-173,-155,-138,-168,-100,-7,89,-21,17,-169
-234,-123,-64,-71,-7,-6,-156,87,118,-209
-202,-176,-77,43,86,36,-131,21,121,-104
-181,-259,-127,109,94,48,2,-100,76,-31
-52,-116,-25,130,46,38,8,-185,9,-93
196,230,188,132,-69,21,-58,-185,-27,-112
96,254,210,163,-20,-2,-18,171,31,-133
-83,111,41,119,55,14,226,427,100,-95
-84,100,53,77,69,54,211,259,69,-34
-11,83,81,50,32,68,67,100,28,8
-30,65,132,181,37,27,-93,-41,-27,-23
-45,58,125,145,-70,-50,-53,-37,-41,-37
-11,42,91,41,-161,-89,25,20,-8,26
15,-3,33,4,-21,-73,22,-22,-30,87
82,-17,17,19,107,-95,-36,-111,-58,153
186,47,29,-14,-130,-163,-110,-158,-23,252
190,22,-40,-114,-252,-91,-109,-183,-21,249
114,-33,-53,-128,-103,38,-80,-154,-3,208
44,-121,-132,-158,58,116,66,89,95,232
35,-148,-271,-253,-74,27,43,115,102,204
113,-67,-177,-191,-152,-106,-58,-57,21,152
133,24,47,24,67,-79,-93,-98,-6,105
42,42,115,107,165,35,-16,123,58,61
-145,-50,32,44,77,130,155,252,85,-125
-152,-84,-12,20,61,116,162,136,13,-197
-12,19,21,-1,107,21,113,27,-39,-144
-12,31,70,44,137,27,157,38,-9,-88
-51,-10,61,163,149,58,143,5,-38,-101
-28,11,89,206,162,24,-11,-6,-38,-107
-14,75,170,241,230,34,-123,-21,-34,-92
-66,91,195,214,192,80,-51,20,45,-113
-186,23,104,107,84,64,-28,-15,-1,-230
-239,-16,45,59,58,13,-44,-112,-142,-328
-158,9,44,16,-22,8,-18,-106,-66,-218
-54,20,25,-91,-245,10,72,-66,34,-70
14,38,5,-130,-164,23,136,-197,-45,-52
39,68,23,-69,127,48,72,-369,-163,-82
-26,4,12,24,265,111,2,-366,-207,-96
-99,-105,-75,41,276,124,-52,-161,-154,-88
-58,-114,-107,-31,202,87,-112,147,-39,-33
206,18,-23,-125,-213,15,26,459,202,219
394,28,-34,-176,-462,-193,-31,248,196,446
537,51,-62,-113,-422,-411,-206,9,60,543
668,194,-28,-35,-175,-268,-200,-55,7,575
488,188,21,-80,21,59,-1,71,72,503
262,111,10,-207,-141,115,82,163,133,417
107,22,-24,-236,-218,11,100,117,70,239
-89,-64,-85,-185,-47,-2,199,118,-5,-54
-217,-67,-29,-81,-11,-77,224,162,37,-273
-295,-54,-24,-57,-26,-73,85,135,89,-343
-399,-92,-27,-69,-14,27,39,110,93,-383
-406,-73,26,-5,33,43,31,41,29,-443
-341,-21,117,70,83,27,-4,-30,-39,-566
-230,15,94,5,22,-1,-8,-51,-46,-470
-227,-63,8,-1,28,28,23,-44,-60,-300
-232,-104,13,99,104,66,15,-17,-53,-218
-126,-65,46,130,127,75,-1,-20,-19,-49
16,-5,94,191,155,75,-4,-54,20,122
113,27,61,122,98,61,43,-57,87,206
122,22,32,74,52,74,74,-82,34,151
163,127,99,63,23,95,17,-119,-37,120
100,135,118,45,7,137,-48,-7,36,147
-38,8,12,-13,8,131,21,154,130,108
-53,-39,-27,7,19,38,-6,80,45,-11
-75,-54,-61,4,118,7,-63,-13,-72,-156
-147,-67,-50,-22,95,63,34,56,-60,-238
-117,-41,-3,0,6,32,136,69,-9,-199
-97,-46,1,19,7,-20,118,-33,-73,-161
-116,-114,-74,-48,-52,-37,177,-49,-77,-102
-77,-144,-144,-142,-162,-51,378,-14,-12,0
47,-84,-94,-141,-187,-47,433,99,-10,98
89,-45,-43,-108,-174,-45,339,236,46,189
86,-9,-3,-21,-83,-69,-84,141,86,250
148,60,65,35,-18,-71,-319,4,9,226
147,93,74,65,38,-42,-370,-12,-10,188
91,77,20,20,65,47,-341,-101,-25,187
106,63,28,-141,11,143,-99,-138,-61,179
88,23,-16,-162,14,117,29,-95,-23,144
172,17,-49,-172,-16,27,-36,-8,75,227
320,71,14,-39,-20,-1,-139,-12,-2,261
307,83,119,191,-160,-23,-95,-124,-195,216
343,139,49,49,-325,-9,-91,-307,-290,170
91,-47,-101,-17,-124,92,-68,-138,-144,12
-176,-193,-118,78,217,60,-191,62,41,-101
-152,-87,-76,6,76,-203,-178,92,120,-80
-99,-3,-62,-102,-15,-178,15,20,97,-161
-258,-50,-34,19,64,-23,68,-179,-80,-463
-442,-160,-13,178,132,44,-26,-318,-251,-616
-134,-11,51,139,149,-27,-169,-26,-56,-164
191,175,139,110,145,-163,-89,375,178,234
208,132,68,56,33,-158,-6,311,178,310
164,37,10,21,-30,-79,-75,62,117,368
240,69,14,-2,-72,-21,-120,-9,123,531
329,145,10,-26,-27,-64,-136,13,125,591
263,133,19,62,130,-115,-166,-54,37,359
11,23,26,115,292,-160,-229,-150,-121,-55
-169,-66,-23,24,247,-111,-115,-77,-116,-261
-30,21,0,-146,-267,-84,45,69,10,-213
38,23,8,-115,-410,-166,-34,-29,-59,-188
-37,-53,1,26,-208,-101,-36,-167,-101,-173
-48,-15,22,0,-239,-39,47,-207,-62,-148
-184,-45,-6,-24,-7,71,171,-151,-22,-191
-359,-116,-34,16,98,156,191,-22,39,-246
-381,-95,-8,70,11,104,125,245,47,-326
-359,-66,-10,67,23,116,109,282,42,-401
-287,-74,-19,4,103,321,133,36,-21,-358
-118,-24,-3,-45,37,371,139,-26,-21,-223
-22,34,37,41,91,223,62,15,-84,-203
-90,8,60,167,224,37,-33,-75,-198,-267
-85,-4,91,188,212,-110,-58,-123,-145,-147
-37,-41,8,56,158,-96,62,-1,16,-4
75,30,23,-26,0,-15,105,121,180,172
56,73,16,12,6,52,138,303,248,221
-3,23,6,16,41,42,194,361,220,170
37,-6,-19,-33,4,14,206,189,161,201
93,17,-39,-84,-46,-27,177,69,116,236
96,43,-28,-108,-98,-69,77,9,95,207
56,17,-51,-113,-116,-104,-67,0,135,146
24,-2,-47,-83,-121,-146,-157,-41,97,94
-2,34,6,-19,-111,-161,-174,-101,5,61
-55,52,37,-3,-105,-90,-89,-72,-38,-30
-79,37,11,-25,-111,-27,-6,-17,-25,-110
2,43,27,29,-73,-25,-36,-10,-20,-32
51,63,0,65,25,-48,-98,-50,-49,59
60,24,-88,11,140,-1,-106,-74,-72,123
130,13,-29,-16,53,17,-107,-56,-42,170
103,7,-16,9,44,52,-99,-58,-32,148
114,42,12,42,70,39,-106,-90,-48,148
90,84,70,61,72,30,-2,-89,-66,137
31,32,22,-13,26,58,316,-89,-55,160
50,-72,-81,-128,-74,64,490,-67,-70,199
155,-68,-129,-176,-132,-21,187,-81,-99,239
117,-42,-120,-120,-101,-105,-392,-82,-66,187
-14,-59,-173,-95,-67,-113,-465,-42,-55,-4
-67,-44,-51,-33,-26,-54,-162,44,1,-90
-128,-8,84,133,62,-20,-42,42,18,-150
-353,-94,76,162,101,44,0,39,-44,-365
-357,-99,58,139,99,61,6,3,-102,-461
-130,-15,1,77,52,17,-9,-4,-99,-347
-53,-9,12,23,36,31,73,70,-5,-210
88,46,-24,-12,11,55,124,126,98,-3
97,97,58,12,33,79,97,108,105,54
-25,59,109,79,95,122,5,33,80,-2
2,33,59,57,61,163,18,14,92,61
24,-31,44,61,24,170,122,-21,-21,17
-64,-105,-3,48,-22,125,219,-18,-63,-63
-169,-204,-80,-37,-133,23,126,-24,-29,-47
-146,-207,-34,68,-20,-75,-105,-146,-105,-41
35,-79,20,76,-54,-67,-28,-108,-90,50
63,9,2,-90,-82,60,261,80,15,100
-42,10,-37,-133,188,188,391,164,71,0
13,59,-52,-185,80,141,11,-2,18,-33
104,90,-36,-87,18,67,-375,-336,-100,24
104,84,-17,10,55,68,-269,-470,-159,34
158,75,-3,6,52,35,-217,-428,-96,110
262,119,-6,-44,-2,-24,-139,-102,41,263
280,94,-130,-244,-166,-81,-35,16,31,292
276,46,-174,-255,-192,-124,-169,-255,-96,333
276,77,-68,-146,-159,-178,-189,161,4,306
249,131,54,-64,-252,-305,-145,408,157,239
128,85,104,69,-61,-267,-230,241,115,117
-97,-5,80,112,80,-112,-36,495,142,-145
-319,-106,47,242,184,-67,16,308,20,-451
-459,-209,-2,324,63,-171,-122,0,-128,-514
-363,-132,-46,149,-139,-110,-97,-53,-100,-328
-154,-6,-73,63,147,152,52,43,33,-78
10,78,-7,-39,90,138,166,196,196,118
-4,67,-42,-137,-160,-23,141,177,170,67
-128,-1,-11,-124,-149,-3,139,122,96,-105
-203,-55,-74,-61,-53,18,105,43,-6,-276
-239,-75,-7,28,50,51,93,-1,-51,-335
-182,-46,24,70,115,130,141,61,2,-263
-56,32,56,33,115,220,172,105,94,-129
65,46,-16,43,69,198,154,72,143,37
129,0,-143,-20,-9,103,178,-4,94,132
197,28,-104,-93,6,96,290,-92,18,136
164,63,1,-101,111,290,478,-81,38,75
132,103,49,-72,20,307,319,-132,11,18
169,161,72,37,50,141,-163,-296,-77,31
210,209,243,260,147,-16,-464,-377,-118,116
110,89,184,309,122,-218,-479,-134,-87,113
49,-109,-144,-11,-93,-346,-213,347,64,119
39,-171,-227,-166,-204,-330,-82,311,59,117
8,-119,-120,-136,-171,-256,-126,124,40,125
-63,-82,-47,-72,-102,-164,-106,55,18,25
-158,-61,26,19,-7,-51,-44,21,-45,-94
-210,-28,100,106,37,-13,88,-11,-105,-166
-213,-19,119,98,16,56,411,-25,-126,-254
-128,-4,93,42,-19,64,477,-39,-118,-253
-95,3,81,27,-32,-1,156,-26,-98,-218
-39,35,72,63,132,3,-335,6,-37,-138
22,54,45,67,190,49,-398,-36,-61,1
42,47,9,47,7,-13,-238,-5,-2,124
-11,-4,22,32,-68,13,-137,10,26,70
41,22,16,20,-88,-35,-84,-45,-32,58
99,60,-54,52,35,-61,-80,-63,-30,94
147,94,-86,34,135,-38,-119,-75,0,178
222,110,-115,-47,17,-113,-203,-83,55,312
160,-13,-159,-150,44,-125,-118,-66,81,351
28,-142,-244,-192,35,-102,-11,-23,103,244
-52,-165,-312,-201,-62,-62,72,60,112,27
-10,-64,-128,-104,-25,-27,54,-10,-42,-171
-97,-38,44,0,75,23,53,-73,-113,-251
-250,-102,29,25,137,92,105,-46,-55,-242
-215,-92,41,26,132,95,117,-10,14,-138
-98,-49,49,19,102,60,70,-28,-5,-31
-15,-30,25,-10,70,55,91,9,39,130
70,3,20,-74,1,52,116,84,112,204
146,88,56,-59,6,64,113,98,107,180
241,176,176,68,57,38,52,64,43,190
194,185,215,125,87,4,4,11,-47,137
-84,5,139,159,135,20,39,-51,-135,-34
-234,-119,73,190,174,74,219,-120,-173,-134
-144,-131,26,103,-2,53,321,-174,-147,-67
-105,-110,11,19,-133,49,335,-162,-91,-93
-114,-99,33,15,-88,77,119,-79,25,-15
32,9,99,-23,-138,39,-212,-179,40,170
101,39,61,-83,-184,-23,-147,-223,-16,196
155,-15,-15,-127,-180,-42,-25,-109,-16,290
233,-27,-46,-106,-42,-20,20,96,75,390
335,50,0,-91,-95,-102,25,466,234,431
210,-20,-85,-152,-191,-150,-70,287,127,229
-24,-88,-141,-137,-73,-75,-230,-18,-69,-145
-178,-41,-21,41,158,35,-205,-53,-130,-389
36,162,181,80,-73,24,41,158,97,-89
171,188,142,10,-240,-75,56,217,218,145
114,28,23,51,-28,-57,-32,42,157,139
1,-81,-80,-36,-21,16,30,-52,94,-41
-37,-75,-105,-101,-60,44,69,-87,32,-210
151,64,-77,-61,-66,-15,24,-82,26,-116
164,88,-28,21,12,-27,-112,-161,-74,-130
-95,-60,-45,31,64,77,-5,-131,-157,-256
-251,-179,-166,-10,29,89,76,-196,-177,-332
-270,-160,-119,3,3,-50,-71,-288,-174,-413
-320,-190,-75,15,-41,-183,-164,1,-96,-415
-320,-151,-4,79,110,-88,-60,285,-29,-312
-107,37,137,66,57,11,95,353,62,-44
-4,69,126,-70,-171,-53,147,244,79,91
-13,15,82,3,-64,-67,77,102,24,71
44,10,79,134,62,-31,-87,11,9,140
101,-4,-43,100,76,8,-216,-60,-5,217
140,-13,-82,38,24,-9,-194,-53,14,256
158,-9,5,-4,-15,-32,-59,74,86,246
141,37,14,-12,-37,-39,-11,85,32,110
74,88,99,107,47,6,-41,-48,-166,-148
-15,78,105,130,163,67,-65,-115,-192,-259
-64,51,7,3,86,167,91,59,9,-230
-29,31,-114,-119,31,175,275,166,147,-129
-11,5,-71,-139,78,221,504,105,89,-70
-95,-39,-65,-147,-43,224,610,99,32,-105
-175,-90,-75,-122,-55,185,370,136,58,-145
-85,-37,7,12,53,140,-242,30,48,-48
-39,4,104,164,153,129,-422,-156,-12,-16
-42,-62,44,101,114,172,-241,-207,-26,60
38,-88,-63,-30,-11,196,-112,-218,29,275
139,-60,-63,-59,-124,64,-138,-226,29,373
322,98,37,-51,-273,-217,-199,-130,-28,325
344,221,105,7,-268,-343,-258,-158,-43,191
136,117,68,64,-107,-306,-237,-126,-19,54
-27,-16,35,64,152,-241,-109,197,67,-22
-66,21,83,49,163,-138,-68,248,53,-126
-121,75,122,36,-30,-65,-79,76,-33,-270
-206,-3,74,44,-68,-11,-42,28,-73,-296
-163,-36,14,23,-41,1,-1,38,-22,-175
-70,8,21,28,146,35,50,50,50,15
-70,-24,-6,-4,183,49,142,95,38,46
-100,-94,-57,-47,66,17,145,66,-21,0
-144,-144,-99,-66,37,14,92,39,-3,-12
-193,-187,-133,-114,7,29,39,102,85,-43
-133,-125,-110,-139,-7,28,69,86,63,-86
45,61,-34,-104,-15,-24,6,-32,-52,-29
170,138,16,-128,-19,19,-33,-55,-86,57
163,86,-5,-119,2,86,-13,-13,-9,141
130,61,33,-2,50,74,-34,-55,-29,98
90,77,124,171,97,2,-61,-61,-15,26
5,77,116,352,154,-26,-130,-138,-106,-59
9,67,122,365,216,71,-137,-179,-184,-82
106,122,183,268,168,137,-13,-98,-74,4
109,97,152,177,58,53,154,-120,-22,-9
24,13,24,38,-35,-68,288,-236,-119,-106
-64,-53,-102,-43,-68,-95,260,-265,-151,-158
-131,-66,-22,56,78,-13,-83,-284,-75,-135
-64,-22,35,102,141,-41,-336,-53,62,-22
73,21,11,-2,8,-159,-108,454,205,107
152,44,-63,-161,-215,-157,60,426,192,197
56,-74,-242,-286,-250,-101,166,227,130,267
-39,-190,-281,-293,-141,-45,265,160,159,313
32,-146,-196,-206,0,-7,219,82,89,284
270,17,-71,-72,75,-38,-110,-67,-52,380
442,129,17,-50,-144,-59,-326,-93,-14,620
436,163,55,-161,-483,-88,-148,18,79,609
260,107,62,-116,-321,-58,-64,60,34,217
95,98,108,4,72,37,-146,62,-39,-156
-24,109,115,31,187,67,-139,101,-25,-309
-132,106,136,31,80,84,-25,132,19,-306
-180,131,187,110,71,48,-3,43,-49,-274
-188,40,77,67,11,-28,52,1,-82,-191
-129,-66,-42,-27,-70,-30,157,15,-38,-87
-88,-120,-125,-87,-93,-17,166,-20,-17,-40
-131,-176,-193,-70,22,-23,124,-110,-55,-115
-225,-230,-160,-20,-6,-117,-67,-360,-250,-316
-362,-310,-194,-62,-47,-70,-126,-511,-400,-521
-249,-226,-126,-96,38,82,-51,-337,-266,-441
21,42,61,-102,-86,105,87,193,34,-184
-33,108,107,-99,-140,70,401,510,153,-173
-101,33,4,-154,-91,128,697,505,191,-107
-94,-19,-130,-134,-47,108,528,300,150,-20
43,12,-111,-30,-31,34,-77,86,82,54
221,121,0,6,-44,53,-557,-113,30,137
197,173,80,56,17,118,-514,-170,63,136
-4,145,124,171,273,187,-226,-106,126,10
-30,164,196,241,292,45,-186,-14,102,-34
71,133,200,220,178,-140,-189,110,50,23
13,-11,55,186,183,-112,-54,117,66,7
-89,-123,-55,122,131,12,17,56,6,-69
-69,-65,-46,91,97,18,24,-28,-70,-58
-76,-60,-9,60,42,-32,10,-57,-56,-33
-216,-177,-78,34,-58,-93,-26,-36,-68,-134
-255,-212,-127,-14,-181,-159,-60,-52,-96,-187
-206,-155,-115,-60,-158,-98,0,-24,-65,-174
-107,-70,-72,-140,-190,33,138,106,61,-14
96,26,-40,-175,35,114,161,118,66,178
354,154,14,-154,233,100,131,94,91,361
329,123,12,-135,27,-11,54,81,149,370
161,31,52,60,27,-44,-110,-74,57,232
135,63,109,144,52,26,-121,-132,-40,167
99,78,81,194,96,90,-90,-147,-117,77
39,46,-18,143,108,200,-19,-121,-124,-14
53,53,43,95,101,229,34,-87,-76,3
61,80,123,100,90,154,40,-71,8,73
-25,7,44,71,63,56,86,-8,110,92
-80,-93,-129,2,-15,-91,105,22,103,50
-4,-68,-105,-63,-113,-189,20,-58,30,74
75,-40,-62,-135,-152,-180,-31,-148,-3,156
97,-39,-72,-173,-155,-162,-26,-45,39,250
69,-56,-82,-121,-125,-162,-9,92,69,252
24,-36,-99,21,-61,-133,-9,23,69,184
3,18,-101,74,-28,-43,43,25,123,150
-2,42,0,33,-28,82,64,-7,68,55
12,79,68,-9,-1,246,92,-116,-18,-70
91,95,78,-15,96,325,158,-143,-10,11
255,145,105,44,111,205,104,-237,-25,282
246,149,129,144,140,65,-35,-270,-27,337
86,58,90,137,102,-84,-84,-104,-36,141
-66,-32,22,72,-1,-196,-141,28,-58,-86
-153,-53,-30,45,-57,-192,-124,239,-39,-296
-255,-128,-67,35,-26,-146,-156,27,-215,-612
-252,-120,-29,39,115,-56,-190,-69,-309,-719
