-83,138,184,2,-51,-115,-164,-163,-126,-73
-34,40,66,4,-45,-97,-143,-124,-47,9
65,25,12,-28,-67,-107,-132,-109,-51,-14
213,62,0,-98,-96,-108,-113,-90,-44,-54
308,74,-15,-144,-124,-95,-89,-54,-2,-16
344,75,2,-103,-86,-45,-54,-15,11,80
235,54,45,-15,-16,17,26,36,54,60
50,-22,-1,-3,-7,9,50,83,143,45
-113,-146,-67,-43,-17,0,43,88,169,60
-282,-220,-91,-24,44,74,99,132,148,17
-503,-264,-94,7,88,111,137,157,98,-161
-387,-81,10,39,47,36,-3,35,-17,-241
-247,-13,11,51,58,26,-23,7,-17,-284
-295,-137,-50,21,56,61,22,70,-24,-330
-331,-207,-60,15,57,75,35,80,-55,-360
-300,-178,-38,18,61,76,41,45,-87,-449
-237,-155,-22,4,43,69,44,53,-99,-447
-82,30,42,22,-26,-15,-37,-25,-174,-338
-57,139,16,37,-45,-46,-31,-62,-182,-288
-169,25,-17,51,0,0,30,0,-102,-276
-162,-47,3,6,11,20,62,58,-14,-215
-47,-56,-35,-57,-16,29,110,88,48,-93
60,-8,-23,-22,-19,24,89,62,60,18
140,44,35,46,-9,1,42,13,65,93
259,53,51,21,-10,-13,-5,0,128,198
269,60,41,-18,-36,-41,-60,8,134,210
106,15,21,-14,-39,-30,-28,43,104,158
-41,-14,-18,31,-3,20,16,65,85,154
-95,30,-93,133,10,-2,12,-16,-7,124
-217,-112,-186,207,19,13,21,-45,-66,-1
-239,-150,-189,222,84,81,62,-7,-75,-186
-98,-53,-101,93,94,95,111,32,-37,-214
-69,-56,-63,-57,51,94,138,91,52,-110
-71,75,126,2,74,104,131,101,85,-56
-68,206,282,54,95,127,137,75,75,-15
64,181,266,-6,77,139,107,17,25,201
399,114,87,-88,-14,50,-24,-99,-18,577
536,37,-94,-110,-81,-41,-120,-119,4,661
371,-46,-186,-118,-87,-67,-143,-100,-42,297
168,-94,-185,-109,-55,-73,-109,-84,-118,-49
-97,-127,-127,-25,-17,-83,-110,-113,-233,-263
-374,-177,-17,-1,14,-24,-94,-112,-267,-330
-388,-257,-31,0,44,113,10,8,-110,-217
-213,-286,6,11,36,126,40,62,3,-83
68,-65,62,-12,-22,-12,-55,-33,-23,35
325,219,121,-9,-30,-136,-108,-81,-23,205
418,252,114,-9,-67,-137,-130,-96,-13,349
121,137,-33,-92,-92,-121,-115,-55,-29,217
192,107,-105,-180,-157,-132,-113,-16,71,465
17,79,86,-149,-133,-108,-70,19,140,402
-323,1,152,-53,-49,-46,0,69,129,75
-471,-73,128,33,4,8,28,79,79,-242
-423,-94,96,87,32,41,30,66,73,-443
-245,-68,18,92,39,20,5,27,85,-317
-69,9,-25,124,35,-21,-12,-33,58,-135
-79,-20,-136,247,84,-10,-7,-40,28,-136
-227,-138,-73,377,133,10,33,-36,-32,-306
-322,-191,-13,455,201,45,78,-31,-124,-529
-314,-187,16,373,204,39,41,-61,-181,-501
-251,-153,0,146,78,-27,-72,-142,-281,-405
-190,-133,-8,-92,-38,-25,-61,-87,-232,-312
-155,-180,41,-226,-47,112,120,147,-2,-107
-58,-271,-51,-369,-20,196,288,330,246,193
171,-48,-33,-333,-81,73,200,221,278,323
321,311,121,-178,-153,-108,-14,26,116,236
360,388,146,-59,-88,-96,-32,-6,83,174
326,316,107,19,-21,-19,-3,-27,28,91
168,197,48,23,10,30,-24,-66,-65,-50
31,89,29,-13,26,21,-47,-100,-101,-97
0,-8,73,-30,-34,-64,-124,-127,-129,-61
4,-193,50,-46,-58,-107,-109,-83,-43,67
114,-315,-15,39,3,3,22,43,135,257
343,-80,44,124,1,-11,-20,1,107,317
633,242,77,58,-83,-156,-169,-170,-33,351
566,220,-49,-38,-36,-116,-142,-173,-10,357
148,31,-178,-64,9,-11,-57,-86,36,256
-19,22,-140,-47,48,75,52,15,119,311
-241,3,-92,-159,-1,93,156,163,257,306
-562,-5,3,-77,-23,51,171,164,155,-130
-385,26,120,89,50,41,126,58,-37,-367
-92,11,79,32,25,15,106,69,57,-128
-14,132,63,-102,-31,-30,79,84,148,34
-195,121,147,-110,-34,11,123,118,120,-85
-361,2,121,-84,9,99,178,124,2,-249
-325,-45,30,-67,103,191,146,35,-192,-335
-50,-5,-68,-37,118,180,61,-55,-237,-126
310,66,-136,-34,-30,-78,-169,-193,-233,172
392,75,-140,45,-76,-231,-313,-305,-297,92
279,32,-43,219,-22,-234,-298,-289,-226,-46
217,1,7,164,-21,-190,-239,-214,-57,-21
76,-47,-61,-17,7,14,-119,-84,-48,-31
-144,-161,-66,66,143,263,29,55,82,-64
-97,-314,-96,220,218,293,91,126,170,255
190,-137,-91,165,166,125,13,26,98,630
375,229,84,93,90,-38,-80,-89,0,732
325,318,194,210,-55,-203,-116,-86,28,654
270,287,257,299,-140,-280,-173,-117,102,539
48,78,79,-93,-265,-261,-130,-17,252,348
-302,-147,-121,-461,-295,-170,-14,136,300,-116
-517,-179,-76,-248,-128,-65,37,160,134,-653
-463,-106,1,-134,-2,48,109,160,-27,-802
-242,10,23,-249,2,118,159,139,-116,-613
12,39,-35,-314,-55,50,113,78,-65,-220
141,33,-103,-217,-67,18,108,77,27,16
183,87,-34,-95,-52,24,99,86,78,66
289,113,80,-41,-85,-44,22,48,99,207
400,47,104,-37,-94,-96,-55,18,182,483
240,-298,-159,-101,-34,16,12,127,296,636
-65,-364,-250,12,75,131,84,126,203,421
-129,-156,-226,165,128,129,49,1,-30,58
-165,-380,-504,94,117,156,135,99,7,-26
252,-392,-712,-177,-62,23,22,43,40,323
713,-115,-526,-351,-250,-168,-160,-83,37,416
640,422,225,-199,-315,-338,-353,-272,-201,-116
41,477,399,90,-77,-153,-199,-183,-301,-743
-201,374,333,120,32,5,-6,-58,-252,-871
-192,281,270,26,-54,-51,-13,-33,-161,-555
-292,69,113,4,-21,4,64,73,-16,-153
-244,43,65,-61,7,50,83,87,16,159
1,151,28,-169,-31,14,21,-5,-28,384
71,95,-3,-66,-14,0,-1,-42,-75,328
-199,-89,16,143,126,108,129,33,-112,-105
-673,-316,54,306,284,271,284,166,-62,-722
-678,-264,126,325,276,280,250,128,-61,-919
-242,110,202,209,91,33,-60,-197,-313,-676
115,288,150,89,-46,-135,-222,-349,-413,-275
400,174,8,-20,-44,-75,-111,-211,-155,227
400,-138,-138,-52,7,24,42,-21,148,565
203,-209,-56,134,95,63,93,83,319,707
142,394,321,305,78,-58,-89,-63,173,502
-175,387,309,256,69,-35,-65,-11,147,187
-691,-30,92,266,154,69,43,59,-1,-410
-961,-236,-22,335,231,132,85,36,-253,-872
-586,-222,-75,250,182,82,38,-68,-391,-720
34,-109,-41,191,67,-48,-82,-177,-302,-176
496,16,205,242,-35,-162,-222,-267,-150,288
663,34,170,-90,-178,-170,-220,-175,59,543
633,-132,-189,-382,-171,2,12,121,372,803
282,-481,-303,-338,-41,169,244,393,646,892
-465,-699,-273,-282,39,257,420,528,618,371
-345,107,133,-88,-25,76,173,177,161,3
223,570,296,18,-58,-47,-81,-118,-90,87
642,516,154,-17,-103,-144,-181,-204,-118,149
786,473,-40,-58,-221,-274,-306,-262,-152,60
299,184,-16,109,-124,-191,-252,-177,-107,-164
-521,-150,43,315,186,145,77,114,50,-449
-689,-285,-98,184,256,301,252,277,150,-379
-210,-136,-257,-117,97,149,146,134,43,-9
0,-117,-483,-407,-107,-1,72,-1,-136,70
198,-74,-567,-579,-301,-144,-32,-52,-85,232
395,39,-473,-496,-316,-215,-131,-46,131,447
400,157,-73,-156,-218,-193,-142,-52,249,409
179,231,380,37,-135,-113,-64,11,285,106
-208,37,135,-28,-31,39,116,192,286,-151
-309,-124,55,26,28,79,151,180,189,-67
-5,-84,155,36,-9,8,85,39,-4,-27
255,-61,49,-84,-75,-32,43,-26,-157,4
130,-83,-4,88,72,86,110,1,-169,32
-36,-23,224,521,302,199,98,-111,-334,-198
208,117,445,752,382,227,-69,-359,-548,-268
516,224,444,650,255,139,-230,-501,-546,-84
164,43,142,242,9,-68,-290,-392,-360,-223
-446,-178,-143,-298,-167,-224,-201,-179,-237,-476
-599,-219,-345,-588,-212,-170,6,118,27,-229
-550,-229,-379,-235,2,24,236,343,310,126
-408,-296,-234,417,357,206,299,354,468,430
71,-201,-102,704,478,282,184,206,420,816
300,-163,-174,605,352,142,52,129,368,730
230,-31,-253,123,54,-81,-41,101,277,357
21,122,36,-121,-119,-171,-115,-12,106,65
-299,12,162,-185,-99,-37,97,143,161,-196
-314,225,201,-224,4,122,284,203,-35,-870
-160,413,242,-376,-117,9,155,58,-279,-1134
-292,170,18,-410,-123,21,168,118,-254,-900
-588,-29,72,-84,88,126,212,101,-360,-754
-582,-177,90,1,2,-15,39,-102,-520,-607
-387,-214,62,28,-155,-191,-130,-230,-533,-524
-168,66,116,81,-134,-191,-167,-258,-500,-559
-25,93,5,-78,-109,-115,-117,-164,-357,-452
176,4,-90,-217,-85,-71,-42,-50,-170,-188
352,112,75,-80,-11,-70,-59,-86,-146,-11
335,141,23,9,3,-106,-125,-146,-189,45
250,-123,-176,182,118,11,-8,-6,16,261
29,-314,-201,188,133,122,171,200,247,409
-87,-30,34,2,-85,-69,12,49,145,219
-230,-8,429,-32,-133,-26,-47,-109,-2,-31
42,116,161,-60,56,377,107,-77,22,145
463,391,-47,50,147,440,25,-141,-13,285
461,81,-74,96,148,199,-91,-158,2,312
458,-180,-302,-129,11,-166,-250,-207,-4,426
623,-161,-343,-305,-342,-501,-299,-118,148,670
784,211,-216,-459,-531,-530,-236,66,437,884
368,244,-151,-521,-307,-227,-36,227,546,756
-131,100,30,-277,-164,-124,5,238,359,372
-89,97,96,-117,-73,-16,73,306,367,375
165,70,-60,-217,4,137,188,399,510,697
70,63,67,59,121,217,150,267,314,486
-441,-67,209,462,232,212,93,83,-57,-265
-989,-180,371,662,309,170,76,-34,-429,-1146
-781,-124,178,286,107,-43,-71,-175,-602,-1145
-143,102,94,-103,-160,-251,-219,-239,-453,-465
141,139,201,-267,-188,-223,-209,-189,-295,-114
332,-28,-2,-400,-143,-67,-34,23,-14,204
414,-28,-165,-131,-54,5,50,160,267,468
-2,74,-23,342,148,97,113,260,465,330
-508,-184,144,530,284,176,221,331,537,65
-392,-190,185,298,82,-81,-56,-36,168,-24
182,-20,30,46,-122,-224,-291,-360,-247,196
270,-117,-337,-302,-129,46,-186,-309,-390,128
-109,-235,-482,-275,47,240,1,-150,-378,-396
-276,-119,-299,0,206,223,98,6,-170,-596
-263,-46,-219,11,151,145,179,179,75,-421
-202,95,22,81,-17,-28,136,167,41,-360
-192,143,271,209,52,-97,-6,-18,-173,-293
65,88,339,155,79,-38,-27,-39,-41,337
546,70,130,-190,-126,-128,-70,75,325,1127
385,-116,-75,-181,-174,-101,12,273,594,961
-99,-388,-241,56,-10,15,116,358,594,186
-49,-55,-272,103,40,-44,-40,81,183,-456
159,193,-166,-21,37,-17,-33,-23,-62,-573
-2,-212,-27,-90,56,144,197,195,27,-579
-263,-18,485,120,122,207,287,230,-40,-766
-101,701,697,131,135,197,206,41,-283,-680
-226,581,607,298,137,129,101,-67,-397,-359
-4,207,315,423,115,7,-42,-174,-310,311
342,111,102,221,26,-92,-233,-340,-265,619
421,125,51,-122,-145,-203,-329,-368,-187,588
353,142,139,-98,-141,-206,-251,-172,43,439
-37,-57,-118,-111,-33,-49,-13,93,234,-16
-301,-306,-512,-172,-61,-16,83,138,156,-441
74,-165,-436,-55,-67,-81,-64,-111,-176,-428
715,52,-329,-316,-228,-192,-214,-244,-206,330
925,82,-296,-565,-401,-313,-265,-199,74,1088
497,45,-141,-396,-277,-213,-112,-43,254,1258
-50,98,58,-301,-143,-73,62,108,238,788
-496,4,-44,-252,24,119,210,206,93,26
-773,-109,-141,-301,48,180,215,159,-121,-734
-915,-128,-16,-268,-32,90,103,27,-303,-1181
-796,-53,165,-57,50,101,80,-36,-369,-1232
-589,-157,94,196,182,139,58,-79,-238,-830
-381,-314,79,485,267,142,0,-94,5,-156
-203,-272,151,533,235,53,-65,-163,84,237
-251,-174,148,348,175,4,-91,-228,75,317
-211,-357,-30,306,176,78,27,-32,322,596
168,-312,-232,415,132,0,-16,33,230,500
1020,80,-542,-19,-113,-208,-221,-6,136,507
1580,147,-892,-664,-289,-141,-75,265,617,1060
1534,291,-339,-441,-264,-283,-194,7,414,1029
1188,538,470,-67,-194,-288,-264,-218,124,679
385,237,561,82,-18,-4,11,2,189,360
-610,-359,456,321,123,102,141,76,84,-21
-931,-396,316,489,154,-48,32,-61,-105,23
-545,-34,-20,190,73,-111,-17,-94,-86,195
-556,-131,-411,-258,-22,44,141,108,19,-113
-640,-201,-250,-114,-66,35,206,227,18,-650
-424,26,88,30,49,210,330,316,-67,-1116
-130,172,255,96,183,386,433,313,-207,-1197
-352,-136,173,174,261,426,474,388,-37,-900
-672,-89,396,261,304,353,338,262,-82,-936
-587,417,687,410,259,139,-26,-148,-460,-1150
-408,211,294,291,190,70,-134,-228,-444,-802
187,71,-32,-49,14,-3,-192,-195,-185,-31
754,225,-90,-360,-193,-178,-280,-214,33,772
612,183,-180,-481,-85,8,7,56,221,1023
430,117,-361,-646,-140,13,69,77,112,779
539,104,-220,-391,-138,-66,-117,-206,-131,475
683,188,156,295,101,94,-202,-331,-202,361
277,133,289,865,255,147,-205,-295,-239,-148
-771,-189,362,1087,430,140,-114,-175,-272,-858
-1548,-522,307,775,472,161,46,-16,-154,-857
-990,-392,-33,49,-51,-123,35,57,91,-182
-231,-191,-376,-459,-336,-264,-4,106,249,204
-272,-185,-307,-533,-250,-83,170,239,164,-224
-449,-104,-83,-370,-107,-31,156,65,-207,-935
-172,11,-24,-443,-93,-22,59,-65,-225,-805
-18,-165,-262,-587,-140,33,173,145,126,-184
69,-67,-246,-399,-135,13,186,215,248,28
226,363,51,-20,-35,-54,33,28,37,-79
282,357,11,95,18,-70,-9,-28,-7,65
486,138,-82,-57,-93,-180,-115,-114,-41,299
960,-67,58,-114,-367,-430,-348,-176,163,943
1236,-43,20,-120,-450,-452,-350,43,696,1706
1203,60,-471,-272,-348,-274,-210,281,1084,1887
730,52,-415,-91,-123,-136,-178,204,857,1285
355,348,58,-104,-70,-47,-170,29,425,721
222,381,22,-459,-71,199,111,130,114,369
204,405,122,-448,-37,254,187,-8,-545,-348
350,447,448,-70,-16,49,-40,-309,-1051,-638
415,362,404,-22,-93,-115,-151,-370,-960,-589
47,11,79,8,-6,-23,-42,-195,-644,-672
-530,-377,-166,40,120,148,179,76,-248,-669
-1193,-704,-333,47,212,306,369,288,-78,-774
-1413,-574,-169,177,267,315,278,191,-246,-964
-1001,-133,220,332,182,121,-10,-117,-395,-890
-772,-60,226,377,223,149,-4,-86,-277,-735
-848,-165,35,302,293,231,138,53,-158,-736
-678,-48,183,356,292,210,176,76,-78,-648
-207,207,246,320,116,65,68,-7,-83,-278
53,143,206,191,31,3,-15,-69,-77,76
248,32,262,173,-36,-86,-121,-162,-102,337
534,-15,36,71,-62,-144,-204,-206,-45,631
661,-88,-405,-141,-23,3,-164,-150,66,763
714,-118,-316,114,153,300,-98,-153,38,628
450,-231,-171,672,559,620,64,-111,-25,264
342,-103,-268,613,559,512,114,-23,85,139
219,-45,-301,18,-3,-65,4,8,157,32
-84,47,265,-118,-366,-519,-198,-46,111,20
-468,164,586,-129,-209,-352,-61,169,336,208
-540,101,61,-634,-273,-117,247,518,628,239
-126,58,-255,-745,-360,-87,225,478,561,335
189,-21,-199,-446,-226,-70,153,372,599,593
213,-2,-16,-200,-140,-30,129,340,695,546
257,-8,-16,-182,-85,1,119,288,612,435
525,40,-58,-225,-73,-6,54,148,361,696
740,270,117,-16,-65,-59,-83,-31,61,805
609,323,246,83,-96,-127,-147,-106,-49,732
178,101,152,12,-112,-127,-122,-113,-160,522
-370,-160,-54,-115,-149,-164,-113,-84,-254,-190
-590,-277,-257,-186,-111,-85,-38,26,-154,-466
-714,-341,-331,-275,18,101,105,61,-231,-713
-868,-494,-411,-261,174,303,305,128,-273,-1046
-776,-377,-235,-15,199,275,278,88,-263,-1269
-684,-63,38,220,124,98,72,-48,-347,-1428
-577,39,159,561,250,93,8,-106,-332,-1188
-110,97,432,659,274,-11,-162,-289,-369,-440
712,293,347,213,-16,-265,-440,-584,-465,388
1146,264,339,-61,-345,-536,-617,-696,-376,879
1144,116,196,-66,-456,-648,-649,-620,-142,1174
1251,127,-157,-127,-472,-631,-566,-458,142,1390
641,-89,-588,-506,-441,-417,-280,-107,470,948
-484,-484,-756,-649,-226,-14,154,329,624,130
-1009,-181,-146,-130,151,298,380,391,292,-612
-683,265,382,127,328,466,447,303,-66,-765
-189,258,384,71,232,403,361,181,-289,-287
169,241,160,54,57,142,154,-26,-492,-151
185,177,101,114,49,28,39,-11,-318,-271
-182,-42,17,148,169,171,193,200,132,-288
-410,-124,-2,-20,59,125,179,163,68,-504
-29,18,-84,-126,-52,-8,-7,-69,-212,-430
121,-16,-138,49,93,83,22,-80,-155,-278
69,-22,-94,139,131,119,51,-40,-50,-154
96,132,41,217,150,77,-23,-50,-36,-115
-232,-25,199,610,316,117,22,58,37,-214
-409,-237,191,869,458,258,166,204,99,-219
-299,101,463,789,266,97,61,90,-137,-314
-179,254,684,612,-12,-230,-222,-151,-351,-188
332,-132,137,400,-30,-248,-236,-119,11,865
921,-321,-303,-50,-112,-226,-230,-55,501,1973
1283,39,-460,-897,-450,-338,-305,-40,722,2101
1212,388,-497,-1192,-449,-160,-110,199,903,1606
395,241,-448,-899,-223,114,234,512,944,803
-135,70,-237,-431,-65,167,318,425,468,-23
251,389,166,-38,-154,-37,-76,-156,-307,-685
580,266,181,48,-237,-114,-328,-452,-549,-657
735,189,-54,-115,-156,-106,-295,-396,-369,-237
-17,-55,-235,-126,217,54,0,-67,-168,-457
-775,-413,-229,102,264,110,237,241,91,-448
-841,-339,294,495,258,114,199,173,25,-281
-774,-330,514,723,383,283,211,89,-103,-199
-842,-581,-124,678,513,459,278,128,-63,-143
-924,-509,-378,448,474,308,117,-31,-235,-489
-766,-534,-333,103,299,46,-100,-186,-456,-610
-59,-116,37,-162,-28,-87,-110,-161,-428,-277
578,471,158,-491,-331,-123,-13,-40,-142,189
220,257,30,-582,-333,6,113,160,162,138
-81,256,80,-506,-338,-107,-4,69,-32,-441
-239,191,138,-294,-266,-150,-75,-63,-277,-887
-364,181,264,-42,-112,-68,-62,-100,-295,-822
-391,91,286,75,-3,6,-1,-31,-77,-356
-497,-78,274,161,37,44,50,73,124,-66
-564,-107,185,26,-65,-32,-36,-5,45,-128
-368,2,-3,-219,-141,-128,-163,-196,-205,-437
86,83,-153,-194,-85,-139,-244,-340,-452,-576
447,79,-200,-148,-71,-210,-398,-543,-724,-551
611,24,-199,-196,-114,-224,-355,-499,-642,-294
826,101,-129,-257,-273,-309,-346,-410,-380,231
904,14,-380,-219,-245,-177,-194,-138,77,720
469,-186,-392,-150,-175,-54,-9,157,376,691
-131,47,142,179,-98,-137,-79,67,164,172
-346,329,363,583,122,-52,-14,15,-1,-40
-239,192,246,495,281,165,178,157,64,69
277,228,128,35,47,39,75,119,143,379
747,262,-3,16,-102,-135,-55,103,299,820
823,155,-79,6,-123,-134,-25,180,456,991
675,85,50,-105,-246,-194,-36,191,508,990
243,51,114,-131,-191,-112,46,258,517,736
-688,-259,-206,-184,55,214,326,447,452,106
-345,-252,-352,-156,135,258,320,372,438,247
694,117,96,92,112,117,126,221,581,1070
1009,101,86,-8,-12,-16,10,227,787,1361
644,158,-85,-81,-69,-42,-29,226,678,807
-240,230,-61,-94,-37,39,42,225,381,-94
-1068,-99,-107,-89,50,127,132,224,144,-754
-1060,-382,148,206,235,236,211,187,-16,-748
-629,-765,-143,95,244,303,324,312,210,129
-463,-852,-465,-62,204,298,355,353,196,87
-854,-296,74,466,381,260,205,37,-462,-1183
-998,209,650,802,470,214,73,-286,-971,-1630
-696,232,473,606,346,72,-80,-434,-965,-1173
-153,-66,-113,457,195,-73,-240,-428,-565,-342
492,-115,-129,725,181,-97,-268,-297,43,651
1029,10,-4,326,-67,-116,-300,-206,348,1431
1476,551,-37,-661,-495,-531,-569,-365,180,1302
1038,440,24,-449,-374,-347,-224,21,422,793
1025,459,113,-374,-319,-164,55,315,593,105
837,377,70,-257,-196,-41,88,290,612,-9
-352,2,82,-140,-107,-26,52,128,261,-199
-1983,-433,272,147,208,204,167,12,-450,-1315
-2091,-576,70,265,398,410,342,48,-823,-1817
-1233,-381,-236,-205,197,358,337,62,-734,-1273
-806,-7,-73,-223,153,272,195,-184,-922,-1107
-722,-18,40,41,284,345,244,-176,-851,-1113
-431,-99,-10,24,148,217,210,-64,-404,-559
382,14,-72,-188,-166,-109,-9,-49,243,765
473,67,58,-108,-100,-65,-3,-6,272,529
316,-79,-44,-23,11,85,154,208,349,155
158,-177,-34,99,97,188,274,371,396,26
-237,-118,100,93,119,212,280,367,259,-371
-278,-14,48,-62,54,154,175,200,26,-305
263,123,-146,-218,-89,-59,-114,-133,-225,77
520,54,-415,-263,-112,-150,-256,-311,-352,259
446,-35,-414,-170,-54,-94,-203,-296,-347,299
468,47,71,165,-55,-117,-191,-244,-128,564
486,259,376,415,-41,-155,-208,-269,-37,484
236,357,431,455,49,30,-108,-204,-94,56
-282,102,303,359,167,383,129,4,-18,-241
-223,-54,105,-41,5,238,91,77,139,-60
320,19,-63,-411,-264,-277,-214,0,303,415
615,-86,-368,-460,-379,-496,-276,87,410,685
387,-240,-416,-379,-259,-270,-55,211,410,334
300,107,-75,-142,-104,-132,-53,27,148,-133
1,30,23,76,16,-39,10,1,-1,-244
-419,-174,-9,360,165,22,11,-19,-128,-262
-298,-173,0,453,116,-91,-90,-65,-123,-60
-478,-208,187,305,70,-70,-7,36,-88,-359
-573,-124,58,137,83,-13,30,-1,-88,-420
-334,68,17,266,176,34,-28,-182,-191,-305
39,88,148,245,199,92,-70,-256,-118,12
320,-52,-55,109,178,60,-131,-194,195,687
713,1,-339,-237,88,-25,-81,26,601,1425
1031,125,-531,-641,-124,-109,33,257,856,1876
612,94,-41,-4,-41,-105,99,289,693,1366
-213,-55,316,514,189,113,255,317,272,9
-774,-79,389,221,18,71,148,18,-586,-1547
-775,187,285,-177,-205,-178,-133,-314,-1011,-1885
-459,190,-10,-222,-190,-207,-152,-258,-743,-1296
-259,-154,-172,-40,-119,-145,-92,-125,-423,-777
-141,-416,-49,2,-63,-75,-10,-68,-239,-372
105,-190,272,58,26,29,-49,-102,-65,31
332,-54,265,155,113,196,39,58,384,642
687,196,-93,-172,-81,37,29,172,772,1345
974,381,-141,-511,-361,-312,-132,119,875,1775
867,191,1,-188,-206,-265,-5,307,989,1883
367,179,24,1,143,20,119,159,310,827
264,226,-9,-103,60,-10,-119,-359,-740,-414
448,210,-29,-161,-333,-351,-456,-607,-1032,-1087
258,76,-109,-153,-392,-348,-396,-401,-695,-1045
210,55,-198,-357,-301,-196,-255,-195,-325,-557
-101,8,-173,-365,-188,-22,-28,23,15,-55
-568,-44,-150,-210,12,160,145,128,65,-71
-679,0,54,52,181,163,120,71,65,-191
-456,-54,-14,-19,112,58,37,59,176,-81
-123,-9,-74,-174,-61,-19,31,137,312,-108
-468,-37,-26,15,6,88,147,244,297,-584
-1009,-383,-160,210,142,224,280,307,222,-569
-767,-347,-189,89,124,178,204,192,124,55
-544,-137,-40,28,125,136,146,46,-219,-207
-457,-155,-8,222,237,192,195,15,-451,-881
-274,-2,-17,266,222,115,29,-263,-784,-1289
-180,-30,-55,170,169,96,-11,-276,-613,-890
42,49,99,61,92,54,12,-103,-127,-169
128,202,374,74,5,5,27,13,167,178
167,268,635,274,-65,-107,-34,-54,119,191
533,47,97,105,-74,-73,-97,-111,122,571
862,-270,-439,57,-15,18,-115,-191,98,938
1211,-119,-186,664,129,-63,-277,-375,83,1205
1391,264,300,999,107,-318,-503,-419,323,1711
-200,-48,-193,-270,61,-11,68,346,854,598
272,320,171,-640,5,233,406,622,920,657
345,476,184,-683,-123,217,513,597,515,0
-167,131,-27,-550,3,273,467,344,-225,-1016
3,-364,-353,-558,-38,208,159,-17,-443,-338
-91,-326,-199,-327,-26,118,-55,-215,-364,-26
-931,-229,-23,-160,64,95,-14,-154,-280,-545
-1561,-729,-358,-270,200,267,311,188,23,-843
-1532,-778,-447,-211,255,390,442,281,-58,-1264
-742,-107,111,181,264,195,83,-78,-343,-1057
26,274,443,414,79,-162,-295,-311,-308,-116
434,491,509,377,-138,-415,-459,-366,-189,540
703,563,501,357,-309,-457,-445,-269,61,906
809,180,73,165,-333,-428,-375,-179,240,930
721,-178,-166,407,-70,-261,-250,-182,-16,278
713,-42,-73,501,93,-206,-240,-261,-275,-61
501,221,-99,-119,-155,-341,-295,-281,-402,-319
-269,141,-30,-485,-396,-388,-232,-195,-549,-903
-796,-9,-94,-408,-191,9,170,140,-420,-1153
-710,63,46,-176,120,375,536,367,-247,-930
-376,198,324,205,322,404,457,263,-98,-304
-156,179,324,414,400,353,349,226,161,143
136,232,205,460,262,191,203,185,279,130
148,104,-5,201,-11,10,99,219,412,129
-157,-260,139,-77,-98,-28,41,237,492,251
-18,-433,154,-73,27,85,125,312,701,880
626,-149,-579,-421,31,178,250,366,764,1348
905,314,-415,-486,-218,-108,-23,71,364,1164
1231,725,343,55,-254,-379,-396,-372,-107,1068
1249,584,377,59,-317,-476,-557,-551,-220,1041
587,26,-279,-293,-358,-362,-384,-292,39,816
-84,-260,-602,-407,-148,-74,-67,32,283,382
-507,-244,-178,-171,18,91,87,149,293,-187
-106,67,251,5,-16,41,124,232,362,202
84,252,277,41,-4,12,133,297,394,350
-815,-112,120,92,150,206,325,360,205,-313
-1333,-590,-88,149,343,424,506,400,185,-373
-1340,-848,-157,131,365,482,552,389,67,-817
-1180,-617,-72,98,184,212,229,12,-622,-1864
-656,105,63,51,-10,-131,-205,-499,-1252,-2164
-529,6,-141,-62,16,-29,-141,-406,-1045,-1691
-605,-166,-84,169,146,71,-122,-330,-805,-1203
4,19,93,533,176,-88,-285,-361,-484,-131
930,152,-182,42,-126,-275,-354,-321,-166,982
1287,270,-306,-424,-304,-260,-230,-171,12,1418
1029,408,131,-369,-211,-93,-44,54,304,1434
303,204,158,-219,26,219,269,377,534,537
-485,92,159,-19,157,292,340,462,503,-554
-349,137,219,-43,27,-10,-9,266,596,-305
97,209,215,-136,-144,-263,-306,-28,475,268
632,188,149,-136,-232,-313,-374,-204,223,937
1635,221,-139,-329,-345,-418,-458,-297,188,1621
1932,156,-453,-542,-432,-464,-451,-251,208,1466
307,-95,-240,-10,-56,-96,-81,-13,47,-144
-1824,-481,201,669,534,464,495,342,-118,-1848
-2095,-379,163,479,594,576,592,323,-282,-1948
-1083,-25,33,14,179,166,160,-61,-386,-712
-41,21,-30,-215,-156,-188,-214,-380,-536,224
868,193,-21,-306,-247,-278,-309,-375,-330,644
1202,99,-87,-277,-291,-304,-318,-232,34,749
873,-130,-267,-85,-165,-190,-184,-12,291,504
-144,-164,-332,198,118,52,63,247,412,148
-813,-110,-188,232,279,200,192,353,394,30
-810,-46,204,168,288,248,274,337,193,-98
-294,146,347,46,128,160,223,198,-37,-19
206,215,115,4,16,31,58,-22,-208,148
348,73,63,339,108,57,1,-124,-247,247
128,-113,100,613,227,203,33,-178,-295,150
-602,-436,84,541,335,392,237,58,-68,-163
-1173,-420,222,428,321,247,131,47,-150,-862
-653,-39,-3,79,98,49,0,12,-147,-749
-150,177,4,-230,-8,50,1,-16,-115,-357
249,34,-270,-417,-124,-3,-44,-83,-64,243
767,161,-253,-370,-195,-164,-196,-167,-86,511
1185,469,109,-257,-341,-451,-439,-345,-152,394
1283,478,130,-350,-543,-642,-544,-446,-18,534
1061,179,-173,-412,-515,-508,-442,-320,257,913
468,-50,-440,-565,-438,-327,-233,-94,331,710
-185,133,-210,-361,-247,-214,-165,-104,-37,58
-692,68,303,420,26,-115,-87,-11,-86,-253
-1023,-393,166,669,233,42,116,302,255,-367
-750,-713,-428,111,196,193,287,491,559,-4
-647,-749,-523,-180,274,514,490,553,536,-126
-911,-317,28,59,509,892,543,345,-31,-1110
-594,299,431,118,430,664,161,-154,-613,-1398
-197,258,130,-110,284,225,-93,-268,-516,-801
29,128,38,-40,73,-184,-93,-123,-264,-33
95,86,257,190,-182,-259,82,22,-154,280
-99,-95,312,474,62,90,254,79,-176,-32
-383,-207,241,708,385,331,273,-9,-267,-422
-391,-174,184,554,322,339,225,-63,-231,-268
-215,-304,-116,-105,8,163,162,6,-141,-3
215,-237,-242,-374,-153,-115,78,105,161,684
514,233,-3,-250,-102,-185,1,126,263,995
285,596,170,-122,-25,-29,83,136,94,308
-206,407,238,170,115,84,113,70,-226,-767
-482,36,58,503,203,90,46,-49,-450,-1393
-456,-147,-109,483,210,59,-41,-105,-400,-1265
230,51,348,572,137,-103,-226,-195,-111,-111
995,19,495,376,102,-135,-255,-38,521,1540
1283,-260,-166,-622,-103,-18,16,393,1192,2410
1441,191,-412,-1044,-367,-30,107,469,1359,2427
841,271,-348,-754,-188,152,121,301,1042,1485
-667,-47,-175,-196,135,304,104,-87,-196,-1140
-1392,-267,25,430,350,213,53,-308,-1069,-2484
-721,-255,-61,403,29,-97,-67,-210,-693,-1224
-380,-248,-426,-244,-375,-373,-157,-123,-331,-542
-259,-111,-240,-276,-385,-408,-275,-255,-398,-500
478,364,264,-28,-350,-409,-338,-293,-250,30
571,360,140,-237,-371,-315,-185,-119,-26,292
346,196,-89,-518,-333,-219,-103,-22,91,457
208,193,125,-207,-241,-223,-181,-150,58,608
-113,133,423,519,-41,-193,-217,-277,-187,198
-250,-30,77,459,-4,-147,-133,-200,-319,-291
-313,-220,-205,-45,-130,-163,-107,-148,-336,-412
-144,-144,71,-214,-171,-105,-48,-66,-223,-423
670,159,17,-547,-191,33,40,84,-51,-162
772,16,-366,-677,-154,61,105,189,71,55
250,-65,-364,-328,90,126,157,181,79,23
-179,-21,-147,-31,80,28,67,81,110,170
86,29,-430,-326,-138,-52,75,231,503,686
748,236,-279,-144,-93,22,158,356,804,1295
1043,348,944,1500,466,149,109,240,809,1787
967,601,1526,2540,784,130,-18,82,771,1984
712,291,654,1164,202,-151,-163,63,766,1560
-165,-89,-42,-333,-490,-527,-462,-269,78,139
-852,-80,-212,-547,-354,-307,-310,-245,-321,-939
-1262,-211,-667,-953,-58,234,230,195,-197,-1536
-1347,-126,-432,-895,109,505,508,303,-456,-2027
-1013,-36,-49,-350,183,407,336,78,-745,-1948
-580,37,160,-107,131,251,134,-83,-713,-1319
-1,77,54,-190,18,144,70,-39,-354,-384
459,121,14,-230,-67,59,18,60,89,435
534,46,-122,-231,-85,35,25,174,485,986
128,-59,-169,-136,-16,58,80,239,704,1105
-547,-277,-91,85,97,136,195,302,616,406
-660,-377,-57,409,254,223,279,266,173,-382
211,-64,38,449,146,-31,-92,-273,-552,-247
1152,200,-41,-11,-180,-427,-549,-804,-1026,163
794,-108,-217,-402,-238,-291,-339,-496,-626,157
282,-149,-242,-585,-272,-108,-72,-127,-97,344
-146,191,29,-371,-194,-38,12,11,208,243
-657,-14,59,-98,9,131,183,259,507,-27
-251,-127,-104,-171,-88,36,97,238,612,139
403,-3,-150,-256,-232,-94,-38,149,579,682
790,456,43,-234,-288,-221,-201,-80,290,966
569,463,28,-242,-297,-234,-181,-101,95,548
-699,-68,0,-8,87,160,191,72,-311,-1068
-1526,-249,171,339,569,621,524,131,-896,-2653
-822,-79,206,327,593,677,523,77,-1093,-2539
989,115,67,11,117,162,93,-190,-950,-838
2167,157,56,-38,-208,-297,-259,-280,-357,949
2193,0,-170,4,-305,-462,-390,-202,185,1675
738,67,-169,373,-66,-320,-379,-220,178,725
-1658,-326,-38,943,486,102,-70,-82,-11,-643
-2686,-781,-85,920,576,246,99,-32,-304,-1411
-2022,-503,-49,267,238,127,86,-19,-405,-1495
-1055,-84,-167,-278,122,125,72,62,-109,-809
-198,147,61,-345,-75,-5,26,195,404,370
485,157,161,-437,-400,-284,-113,281,909,1508
932,165,-191,-696,-611,-423,-235,285,1317,2360
1010,217,-202,-453,-487,-418,-313,256,1564,2946
238,-78,-83,-113,-190,-136,-37,475,1521,2263
-699,-306,49,104,107,241,361,599,791,299
-975,-183,225,197,268,383,444,363,-294,-1624
-372,348,372,191,230,226,148,-206,-1175,-2047
-292,230,213,217,288,261,104,-417,-1471,-1795
-353,-205,22,240,351,400,262,-232,-1025,-1220
-77,-31,259,772,469,409,164,-308,-752,-735
6,244,468,928,345,239,-102,-489,-746,-704
-67,77,156,396,56,-190,-405,-497,-619,-777
-161,-127,-264,-16,58,-289,-337,-310,-406,-795
-158,87,9,82,140,-105,-78,-107,-238,-701
-116,102,272,393,33,-133,-16,-44,-234,-628
95,-163,282,619,65,-56,-21,-29,-135,-101
567,-113,-166,404,135,137,97,105,186,745
785,104,-527,-265,-53,-44,-25,25,223,925
565,357,-19,-532,-233,-208,-181,-93,116,602
469,433,223,-596,-219,-173,-156,-29,219,526
408,123,-351,-906,-260,-49,29,190,417,580
593,-115,-564,-852,-366,-53,130,359,669,1032
972,75,-201,-447,-356,-188,-16,282,862,1566
889,364,162,-145,-311,-294,-190,134,872,1413
110,203,87,-187,-261,-237,-102,166,778,702
-642,-116,0,-121,-136,-93,-2,136,433,-237
10,-33,203,4,-149,-157,-161,-131,-82,-325
1147,337,300,-246,-403,-441,-454,-516,-526,198
1559,506,-167,-599,-525,-528,-518,-568,-494,626
847,92,-785,-466,-242,-225,-168,-98,262,1114
-580,-357,-544,-30,142,202,306,490,997,1037
-970,-207,199,54,176,263,364,453,732,384
-313,-11,402,105,-13,-35,1,10,266,537
-373,-259,-19,121,11,-17,-24,-67,28,387
-977,-693,-237,314,228,217,223,28,-361,-761
-951,-745,-65,512,417,341,296,-16,-805,-1673
-404,-175,-82,166,368,348,241,-142,-976,-1577
285,206,-54,-69,214,246,153,-164,-700,-782
163,46,34,157,171,176,117,-54,-370,-379
-236,-122,-76,173,66,64,80,84,-82,-466
-488,-135,-59,214,5,-15,59,172,153,-516
-779,-75,171,366,126,48,58,93,87,-493
-248,202,122,98,13,-37,-56,33,367,363
154,294,24,-276,-197,-171,-142,64,682,1028
14,261,202,-220,-83,4,41,202,623,829
-320,272,422,72,259,334,286,247,199,-20
-607,105,384,418,477,497,248,-37,-488,-942
-748,-181,96,666,592,636,69,-474,-1336,-1859
-769,-369,-48,351,391,546,-52,-670,-1634,-2161
-646,-400,129,197,228,165,-133,-577,-1226,-1740
-49,-121,56,35,49,-167,-82,-180,-379,-587
644,301,2,-295,-317,-363,-17,146,360,604
902,135,-8,-127,-343,-327,-7,258,677,1210
1068,139,-50,86,-304,-377,-134,146,498,1207
1326,461,-41,-148,-339,-456,-290,-49,265,1032
1663,385,-60,-441,-396,-436,-329,-113,277,1185
1707,213,-272,-488,-378,-345,-223,51,613,1409
1209,4,-483,-647,-448,-285,-99,268,924,1503
102,-45,-263,-573,-401,-211,-62,295,915,1118
-1384,-322,12,-169,-22,161,275,521,850,221
-1699,-474,155,197,343,466,519,572,551,-405
-748,-189,148,248,358,391,385,265,333,-48
-43,138,155,97,127,110,97,-16,378,582
24,210,137,-8,-8,-39,-24,-220,20,26
-314,111,83,-13,-16,-77,-104,-458,-743,-1228
-290,-16,-91,-70,-139,-238,-284,-618,-1078,-1252
-481,-124,-122,90,-56,-159,-192,-433,-1083,-1395
-747,-143,-93,168,116,122,74,-158,-1054,-1787
-618,-108,46,228,187,236,102,-159,-949,-1325
-332,-211,113,700,407,326,153,-105,-657,-656
-160,-541,-184,644,360,209,55,-58,-324,-100
-304,-625,-101,503,265,140,-111,-84,-163,212
23,12,133,303,204,247,-144,-75,-77,390
439,268,-81,-301,-67,87,-77,144,400,900
664,312,218,-287,-204,-182,-70,281,773,1022
1579,391,200,-340,-478,-367,-50,431,1092,1430
2179,563,-135,-230,-430,-382,-118,382,1211,1873
2038,1141,293,218,-260,-441,-381,-69,585,1310
999,1074,679,146,-115,-250,-282,-203,-57,-119
-823,335,337,-25,96,113,102,-12,-380,-1389
-1060,-344,-62,-91,30,26,39,-70,-274,-410
278,-634,-472,-483,-355,-285,-230,-142,147,1368
1067,-421,-613,-814,-521,-301,-213,10,426,1658
-67,-360,-351,-422,-196,-31,-1,129,194,477
-1241,-222,130,39,159,222,201,194,-131,-764
-1785,-152,96,35,305,373,329,216,-316,-1258
-1207,-213,-105,-12,226,250,245,150,-216,-709
-410,-218,-170,-162,-9,38,97,120,110,-2
-285,-192,-202,-215,-12,110,169,176,139,-414
-533,-37,161,145,290,380,365,171,-193,-1110
-1015,28,435,455,550,523,400,10,-615,-1736
-1297,-109,284,415,534,475,268,-146,-833,-1948
-884,-177,63,405,542,627,250,-153,-673,-1273
-651,-321,-46,393,621,770,288,-67,-389,-621
-518,-387,-72,207,385,272,49,-189,-390,-432
-64,-171,42,75,42,-323,-224,-265,-279,-120
624,101,-113,-117,-372,-543,-305,-194,-53,507
786,168,38,289,-220,-317,-317,-254,-40,674
510,79,418,704,78,-6,-279,-254,-46,396
-31,-300,224,519,116,-38,-204,-144,29,70
-607,-725,-308,276,49,-179,-47,40,126,-198
-494,-396,-757,-448,-253,-195,172,342,442,-117
134,38,-851,-924,-375,-152,235,477,626,341
524,12,-481,-633,-255,-77,175,445,740,1016
689,24,69,-455,-270,-116,56,294,682,1440
794,-28,-8,-627,-411,-194,-7,228,727,1719
682,55,-111,-384,-210,-68,75,218,604,1317
544,187,97,55,-1,-29,86,208,458,762
727,688,486,311,-56,-261,-220,-172,41,271
1201,903,365,104,-196,-418,-440,-465,-250,157
1089,396,-168,-371,-234,-275,-217,-195,75,623
355,93,-202,-547,-217,-93,27,185,565,713
-286,41,222,-205,-100,23,143,278,512,169
70,7,115,86,-106,-134,-120,-5,313,492
655,69,1,212,-190,-315,-401,-282,112,967
831,156,-10,345,-63,-216,-306,-291,-155,566
175,256,327,501,159,-11,-110,-262,-608,-755
-1361,106,936,674,302,140,23,-246,-1033,-2239
-1831,-225,411,261,389,388,351,102,-564,-1967
-1112,-339,-230,11,453,527,492,231,-127,-1254
193,-275,-394,310,417,427,284,48,-96,-555
1187,-86,-63,245,-61,-52,-222,-234,-88,328
946,214,153,-73,-504,-615,-658,-441,-153,534
-357,102,-206,-535,-430,-368,-249,-60,13,278
-1363,-106,-200,-639,-202,17,126,187,-40,-601
-1068,35,13,-515,-50,163,196,154,-150,-644
-395,153,66,-244,92,225,235,211,113,130
113,131,81,-40,138,217,230,219,143,209
795,-10,-120,-166,-51,-8,-29,-94,-278,373
1476,216,-135,-279,-319,-353,-467,-561,-688,794
819,170,-102,-175,-222,-307,-436,-551,-641,327
-698,-255,-78,-24,1,-77,-124,-195,-368,-835
-1576,-534,-80,110,146,82,107,114,-5,-1193
-1150,-426,-144,30,43,85,174,274,311,-645
-331,-206,-142,-130,-65,44,171,334,502,2
130,-32,-79,-149,-143,-39,63,236,364,125
161,46,-24,-35,-50,26,96,142,-19,-259
-6,90,176,227,239,296,282,160,-208,-462
-269,36,222,366,419,455,390,209,-104,-424
-635,-125,134,303,393,457,427,301,150,-461
-929,-164,202,269,328,389,371,257,111,-639
-393,76,220,189,160,145,125,24,-10,-309
275,178,103,43,-39,-81,-63,-14,100,405
388,78,58,183,-46,-122,-112,-42,35,601
440,-7,160,611,11,-212,-252,-253,-186,644
537,61,256,750,83,-219,-309,-375,-372,668
648,-12,-2,88,-78,-211,-248,-280,-147,1023
647,-57,-198,-452,-164,-108,-157,-44,271,1086
374,-165,-747,-689,36,301,213,303,360,163
-127,-305,-953,-713,41,381,394,359,40,-906
-538,-3,-108,-72,90,130,165,130,-142,-1135
-388,259,625,555,190,-77,-95,-86,-237,-750
569,236,367,360,-57,-254,-235,-120,-6,407
985,28,-38,115,-176,-237,-190,-11,311,1143
767,-115,-204,-103,-167,-187,-130,54,433,1002
582,165,64,-268,-305,-320,-306,-130,220,583
443,484,214,-324,-304,-311,-344,-235,34,19
300,314,-49,-413,-321,-230,-245,-151,24,-273
-91,100,-192,-373,-286,-147,-98,4,122,-248
-340,-113,-20,-45,35,127,185,177,180,-136
-6,-165,-22,59,121,144,121,4,119,535
310,64,-57,175,33,-16,-242,-462,-103,1065
51,-72,-107,440,196,227,-140,-352,4,976
-334,-409,-316,109,139,213,-26,-49,294,770
-634,-349,-111,-10,139,95,50,237,459,403
-621,122,480,617,287,133,315,480,307,-347
-210,135,70,313,122,73,345,389,-86,-630
-175,-116,-297,-31,84,35,146,107,-227,-371
-299,-137,-84,135,298,196,198,101,-152,-444
-799,-286,-95,2,303,322,362,257,-251,-1534
-826,-223,-115,-90,88,160,214,48,-550,-1863
11,106,-73,-238,-129,-73,-67,-193,-500,-798
233,-219,-308,-469,-84,-28,-34,-53,-110,83
-38,-168,174,24,74,-108,-173,-158,-127,341
76,307,673,742,215,-148,-333,-413,-442,161
724,533,399,517,28,-143,-272,-371,-373,250
788,369,102,-173,-252,-233,-272,-320,-335,-5
-161,22,160,-340,-137,-71,-81,-145,-318,-644
-506,-186,-245,-351,31,81,147,227,184,-225
178,346,224,-148,-238,-235,-180,-136,-41,219
400,359,415,30,-204,-195,-158,-159,-13,514
204,113,138,-59,-53,2,51,23,52,379
-151,-92,-151,-129,33,138,252,177,20,-40
-92,-12,-227,74,92,120,208,161,75,-4
289,138,-126,244,54,11,86,163,421,837
250,39,58,-48,-230,-201,-58,147,599,1333
173,-199,348,152,-315,-357,-216,18,536,1237
204,-333,71,271,-112,-94,-29,176,562,805
116,-91,-256,-159,-62,84,137,243,440,112
-814,-124,-29,47,248,240,231,225,119,-1177
-1444,-229,140,205,548,495,445,338,-28,-1694
-874,-156,-62,7,247,260,278,196,-5,-973
24,-133,-227,51,35,103,15,-41,-33,-285
890,-77,-262,-20,-21,164,-169,-269,-166,252
1670,39,-287,-211,-74,13,-443,-605,-405,885
1727,55,-145,-307,-144,-178,-362,-422,-129,1482
972,509,140,-126,-204,-292,-172,-187,26,1036
-434,492,134,378,29,-118,10,-68,-147,-234
-1571,-207,-283,463,216,17,103,-4,-259,-1124
-1742,-530,-15,197,202,86,137,62,-196,-1265
-1100,-230,223,79,251,291,291,244,28,-836
-157,127,-70,-249,126,391,331,312,256,-167
472,265,-148,-459,36,412,276,200,175,179
639,197,-116,-396,20,171,78,-4,-10,430
316,157,-40,-358,-213,-218,-109,-86,27,422
77,256,136,-296,-467,-486,-225,-54,19,-149
242,234,138,-186,-294,-374,-244,-91,-120,-487
449,120,172,17,-14,-68,-38,-79,-219,-120
425,60,125,172,-28,-147,-105,-154,-242,-63
29,-82,136,411,70,-123,-96,-92,9,131
-119,-155,52,297,73,-77,-47,16,296,672
-368,-284,-104,-59,15,-22,45,125,404,811
-886,-306,68,-58,172,169,199,153,38,-191
-879,-145,272,188,258,169,113,-81,-545,-1175
-685,-152,272,480,273,47,-42,-216,-589,-1120
-631,-320,-50,334,144,32,34,-24,-218,-756
-325,-221,-305,-110,-148,-116,-60,-116,-225,-396
140,-14,-293,-459,-242,-147,-104,-203,-258,-1
636,252,-152,-533,-283,-142,-47,-88,34,592
755,365,29,-398,-222,-134,-4,20,257,717
520,328,110,-115,58,72,113,28,69,195
119,172,51,-3,245,231,160,-41,-236,-277
-346,-76,-64,-7,160,125,70,-106,-375,-601
216,-197,80,236,-10,28,86,112,300,711
798,-346,-248,278,160,135,148,275,647,1211
1410,-253,-553,297,261,220,101,263,719,1487
2025,225,-345,174,4,-72,-257,9,750,1938
2142,592,5,-421,-503,-599,-682,-255,714,1926
1621,524,196,-639,-956,-1082,-973,-394,490,1210
-125,73,179,-265,-579,-584,-374,133,515,-104
-2120,-217,210,-51,144,335,500,690,372,-1627
-2652,-227,254,95,465,717,804,694,-169,-2440
-1990,-69,356,231,430,555,551,353,-403,-1840
-335,154,204,43,69,76,16,-61,-204,97
956,246,-50,-193,-242,-263,-301,-202,137,1589
1583,181,-154,-321,-355,-346,-361,-173,353,2097
1476,66,-201,-299,-305,-283,-299,-159,173,1365
330,-86,-215,-232,-227,-218,-235,-214,-371,-589
-880,-112,-9,-1,-37,-92,-157,-297,-890,-2032
-1078,-45,221,548,341,216,123,-256,-1113,-1817
-1095,-142,154,498,445,383,293,-24,-709,-1067
-1036,-453,58,235,347,334,277,78,-415,-510
-694,-341,-13,56,173,139,113,-34,-380,-462
-399,-136,-42,-5,-7,-62,-55,-139,-349,-534
-95,-38,97,238,-30,-138,-104,-102,-210,-270
45,-5,121,342,30,-99,-54,-46,-137,-248
246,-107,-129,170,-26,-100,-38,-37,64,220
235,-229,-265,-62,-74,-24,68,130,460,709
-322,-226,-75,-272,-126,-7,121,261,585,178
-839,-194,-43,-156,39,72,138,231,312,-813
-273,58,26,127,259,226,211,234,281,-481
709,261,27,-129,81,165,168,282,599,615
1275,231,-64,-445,-183,-73,-136,50,595,1351
1641,154,-381,-687,-290,-207,-361,-173,561,2113
1316,-104,-430,-499,-154,-150,-284,-88,708,2528
746,-137,31,-34,-204,-246,-255,-44,594,2175
-151,220,585,651,-92,-286,-268,-151,20,421
-1661,-46,440,1217,430,163,133,95,-160,-1164
-2203,-379,109,709,514,477,476,362,16,-1266
-1421,-346,-103,-11,235,347,337,165,-183,-1082
-703,-120,-196,-255,158,218,104,-202,-816,-1601
-308,165,-18,-435,65,137,2,-353,-1168,-1865
-217,185,127,-362,-76,49,36,-228,-990,-1666
-163,157,165,-47,81,117,96,-155,-896,-1586
-74,112,129,78,190,201,154,-136,-851,-1254
81,83,58,90,155,167,175,-17,-446,-556
95,58,11,203,127,83,131,107,-86,-178
9,-45,54,274,83,-28,-15,38,69,-57
-172,-307,-52,135,-19,-106,-96,-30,133,2
54,-209,-135,-74,-30,32,-1,-73,7,146
818,131,-141,234,54,121,-48,-231,-67,749
1370,366,-160,903,215,2,-233,-350,102,1292
1206,267,-197,849,104,-217,-327,-230,376,1290
629,284,307,564,-84,-447,-426,-183,331,740
-454,70,330,-30,-100,-308,-133,116,387,196
-1144,-308,-67,-598,90,172,359,496,572,-4
-571,-146,-99,-850,82,342,490,505,478,-102
91,-27,-247,-987,-302,152,361,446,441,128
506,-29,-365,-745,-374,86,276,480,717,716
371,-20,-267,-177,-136,7,133,333,661,711
-49,113,-84,196,-104,-184,-102,16,192,281
-39,71,99,151,-145,-276,-235,-199,-206,81
-101,-102,384,252,-63,-216,-263,-335,-629,-462
145,-206,86,27,0,-27,-113,-233,-620,-393
295,-88,-156,-305,-149,-92,-150,-237,-457,74
185,186,-53,-290,-197,-154,-202,-227,-198,226
137,287,94,-169,-157,-97,-108,-59,125,200
59,48,-62,-125,-148,-86,-69,14,175,-56
-53,-68,96,-96,-161,-92,-129,-123,-130,-493
-142,-128,259,-104,-210,-119,-205,-317,-417,-412
131,-136,117,-200,-232,-161,-215,-282,-272,93
451,-154,-251,-310,-24,82,-39,-39,112,616
17,-366,-363,68,338,396,232,208,310,592
-874,-389,-180,661,666,408,317,239,151,-177
-862,-3,42,778,508,215,275,271,57,-505
-409,113,-44,228,12,-78,168,222,-13,-571
-48,221,81,-219,-174,-96,120,166,19,-515
123,294,232,-278,-219,-67,90,106,10,-467
169,206,227,-131,-129,-5,111,120,68,-186
391,227,170,-82,-117,-56,12,-5,25,85
613,322,122,-189,-222,-200,-142,-204,-154,121
633,118,7,-213,-232,-208,-160,-170,-60,438
207,-168,-58,6,-47,-36,7,22,106,307
128,-32,79,271,47,-24,2,-23,-109,-279
595,386,158,-36,-254,-327,-318,-347,-421,-164
814,393,51,-285,-316,-329,-322,-264,-148,401
447,96,-115,-200,-155,-93,-69,57,331,743
254,-221,-433,-250,-93,17,91,319,811,1383
430,-322,-409,-33,-76,-64,7,281,879,1753
140,-150,54,384,27,-126,-133,39,453,1096
-598,-106,94,312,125,-7,-55,-47,50,-83
-1202,-240,-45,61,202,195,153,92,-74,-832
-779,-119,54,-17,207,247,173,91,-245,-1021
-67,135,104,-133,92,169,72,-24,-409,-966
324,243,78,-130,47,124,8,-78,-362,-598
479,281,137,93,86,153,19,-17,-96,-34
631,353,182,463,127,136,42,73,210,594
440,302,300,519,57,-48,-84,0,182,492
20,150,386,361,-38,-254,-276,-282,-316,-338
-136,-81,-113,48,70,-32,-79,-182,-409,-759
123,-97,-315,-296,51,134,94,-16,-133,-102
-70,-377,-266,-360,-40,138,135,49,-13,527
-517,-928,-499,-367,-54,155,252,208,87,502
-349,-932,-560,-90,-14,34,74,92,-89,-38
-622,-311,-146,87,-27,-74,-117,-138,-419,-889
-931,138,309,109,-3,-20,-81,-133,-441,-1238
-862,-55,255,-89,1,92,82,81,-148,-983
-693,-11,137,-313,-108,23,37,24,-141,-976
-457,87,-47,-388,-169,-28,17,25,-116,-898
-242,-236,-282,-124,3,95,164,240,222,-272
38,-35,-79,1,86,130,156,206,260,179
327,482,266,70,104,107,15,-81,-134,225
315,460,230,144,122,108,-36,-189,-304,261
425,371,197,174,103,68,-71,-234,-289,252
461,330,248,130,9,-79,-202,-328,-283,157
25,215,214,108,-74,-173,-231,-286,-130,-30
-360,4,80,72,-59,-108,-101,-83,144,-31
-170,-143,-275,-119,-115,-51,20,89,274,229
194,-226,-306,65,-48,-11,56,135,349,561
195,-370,-159,514,238,101,82,186,519,941
110,-324,-112,745,290,56,-18,151,584,1048
242,-63,410,1076,166,-116,-180,46,532,1029
201,-18,131,378,0,-110,-114,115,493,490
-84,-23,-147,-508,-127,0,2,137,289,-264
-221,85,78,-597,-78,175,176,189,100,-675
-673,-3,-46,-539,134,453,456,268,-184,-1139
-755,-38,56,-85,319,459,454,61,-587,-1161
-238,105,357,125,83,48,72,-269,-685,-526
296,137,16,-202,-110,-89,-88,-351,-550,80
388,43,-336,-392,-98,46,36,-107,-216,255
122,43,-154,-131,1,60,-25,-77,-86,-229
-250,-50,30,91,99,80,-73,-80,-76,-889
-338,-180,-5,20,91,58,-29,0,-64,-934
-214,-161,-72,-36,-7,-16,23,51,-155,-659
3,-29,5,100,-108,-107,-52,-29,-288,-335
349,59,-12,220,-43,-114,-166,-142,-215,281
1656,172,-308,-345,-257,-370,-407,-257,103,1653
1815,342,-105,-375,-351,-455,-410,-196,256,1722
1092,431,277,-148,-365,-351,-256,10,332,1134
-858,-30,194,459,107,178,288,426,327,-351
-1855,-458,70,646,402,384,472,458,195,-1162
-1381,-509,-197,57,207,223,335,330,137,-794
-424,-237,-245,-374,-11,53,124,133,85,49
104,13,76,63,-76,-185,-232,-212,-9,404
226,-38,288,685,44,-141,-299,-248,191,537
307,-258,-6,393,118,67,-72,102,658,736
543,-164,63,68,151,47,-23,191,671,744
1001,323,176,-109,85,-27,11,121,237,483
1316,978,161,-478,-109,-94,-76,-92,-288,-26
912,847,-114,-660,-306,-174,-159,-252,-451,-225
42,245,-415,-724,-349,-93,-32,-99,-284,-251
-518,-166,-352,-496,-202,29,138,136,19,4
-398,-177,6,26,-25,54,185,232,317,543
267,-10,145,200,-25,-38,23,139,513,1159
675,152,86,94,-59,-76,-64,113,509,1165
501,135,253,137,-37,-86,-50,117,377,757
-296,-68,325,316,106,51,66,114,163,95
-1501,-430,257,454,371,352,398,303,-10,-1104
-1710,-733,-22,199,333,374,432,299,-199,-1585
-1193,-928,-337,-70,255,332,324,97,-512,-1275
-402,-346,-287,-164,42,61,22,-283,-810,-1215
339,403,10,-85,-189,-260,-278,-444,-569,-683
438,255,89,74,-59,-177,-167,-157,-87,-300
252,158,127,164,71,-29,-60,-17,-78,-400
-131,193,60,102,60,-36,-52,-141,-292,-633
-406,189,1,7,165,108,76,-125,-336,-679
-164,278,96,-93,152,182,119,-95,-383,-463
314,402,184,-72,47,71,3,-111,-198,27
354,221,94,30,-9,-78,-152,-129,22,258
434,-54,-43,214,-72,-250,-361,-222,167,637
610,26,-218,55,-267,-449,-522,-299,245,1130
516,-68,-442,-186,-299,-360,-356,-84,559,1653
467,-110,-204,-113,-118,-58,-40,187,649,1623
-78,-23,135,-153,61,205,196,266,332,569
-757,7,280,-42,274,423,381,313,13,-520
-904,-146,87,-5,224,308,283,242,-77,-743
-599,-116,-13,-93,15,49,58,42,-151,-659
-269,25,46,14,-71,-94,-105,-155,-300,-608
-208,-81,-19,24,-64,-66,-72,-45,36,-141
-304,-272,-202,-277,-180,-45,27,204,567,259
-11,-96,-278,-384,-209,-56,39,225,542,189
158,166,-61,97,78,51,-1,55,143,-33
-81,167,210,403,310,235,100,28,-243,-332
364,230,271,230,156,57,-39,-209,-708,-377
1131,191,-63,-35,-176,-261,-262,-398,-769,156
1587,178,-129,-81,-305,-395,-356,-376,-343,963
1376,41,-162,5,-154,-352,-386,-332,-34,941
448,-168,-137,210,10,-173,-226,-190,-86,145
-767,-351,-243,105,171,163,185,148,-141,-766
-1436,-602,-320,79,283,397,466,367,-28,-1018
-1227,-425,424,354,281,292,314,177,-113,-567
-745,19,744,386,196,173,112,-11,-198,-276
-399,38,45,161,102,133,48,5,-1,-93
-244,-180,-630,-203,-57,0,-18,75,288,136
104,-44,-479,-197,-65,-84,-95,119,437,375
567,321,21,-308,-211,-160,-112,96,370,620
908,478,87,-537,-453,-261,-126,21,177,886
882,359,6,-350,-383,-256,-126,16,301,1247
481,237,29,-153,-209,-169,-96,56,499,1103
-29,26,-66,-144,-153,-128,-76,63,371,366
-328,-184,-129,-100,-79,-43,-23,89,214,-285
-260,-244,-145,-123,-91,-57,-68,86,348,-171
-110,-138,-70,-74,-33,2,-28,130,411,-76
-234,15,157,193,256,244,166,143,0,-788
-54,214,319,408,423,368,260,99,-352,-1043
493,294,273,349,307,255,177,75,-394,-253
914,243,233,184,104,74,62,29,-191,801
838,275,172,66,-30,-80,-91,-156,-256,982
388,313,121,49,-39,-117,-159,-298,-518,177
-404,101,64,79,2,-100,-142,-323,-736,-978
-1026,-125,153,275,129,-21,-139,-336,-884,-1736
-767,-291,50,444,271,131,-58,-236,-660,-1379
-138,-365,-114,329,184,93,-9,-65,-137,-290
136,-101,-101,76,-70,-161,-131,-29,242,334
357,268,-19,13,-245,-300,-150,74,521,518
420,222,7,99,-152,-184,-6,193,543,469
189,-169,-201,-53,-146,-210,-63,10,88,112
166,-540,-578,-383,-179,-145,-24,-15,-132,14
286,-705,-659,-738,-309,-135,48,117,97,626
-28,-495,-278,-601,-249,-83,95,147,127,614
-37,425,291,-225,-101,-24,76,-38,-269,-328
161,622,396,-135,-26,8,96,-42,-353,-717
195,375,260,-55,84,104,146,17,-352,-918
245,321,200,75,205,174,143,-13,-300,-689
326,355,235,209,258,187,118,-24,-128,-182
-278,143,254,256,220,158,98,-6,-106,-133
-992,-139,147,208,63,-5,-58,-152,-225,-228
-858,-260,-18,360,72,-62,-98,-164,-56,69
-335,-295,76,593,178,-66,-126,-135,156,565
353,-229,-38,273,65,-100,-174,-97,320,1060
388,-248,-404,-177,-78,-62,-31,89,458,1033
-166,-209,-352,-324,10,169,249,363,581,634
-605,-76,-15,-271,69,249,290,361,408,-233
-1214,-91,232,-49,195,308,278,172,-216,-1490
-1088,-209,-35,-31,226,308,219,30,-420,-1390
-519,-283,-450,-290,142,336,234,107,-77,-254
-184,-168,-236,-276,134,281,193,145,136,251
-136,-5,427,314,176,42,29,1,21,100
-204,-85,295,389,122,78,205,121,57,17
-147,-23,248,226,75,160,228,19,-107,-265
-26,-12,276,17,-102,11,27,-171,-336,-567
155,42,144,-173,-148,-59,-18,-61,-197,-420
514,200,-85,-343,-178,-146,-141,-52,8,26
596,136,-120,89,-23,-86,-196,-138,144,506
567,90,-59,370,68,-119,-273,-221,259,888
427,5,-234,190,19,-182,-236,-146,288,876
901,-14,-551,-70,-167,-214,-140,19,428,1267
1196,-56,-510,-58,-279,-388,-289,48,621,1622
837,-103,-216,-199,-312,-440,-331,17,448,961
517,106,-19,-349,-360,-387,-292,-99,-23,-205
-52,164,-185,-433,-126,-3,64,118,-138,-645
-688,-118,-233,-363,211,418,469,352,-197,-695
-715,-347,53,-137,339,425,464,371,-33,-356
-165,29,263,-57,116,92,169,184,223,224
-13,281,216,-108,-57,13,122,130,395,310
-236,222,212,-6,-91,11,111,122,372,70
-514,99,233,19,-117,-49,53,73,303,98
-802,-127,142,53,7,68,131,35,78,-141
-694,-121,183,113,83,119,125,-107,-423,-844
-359,38,233,61,36,59,59,-196,-661,-1054
-71,109,107,-93,-78,-61,-44,-220,-576,-694
-44,41,-48,-140,-89,-74,-73,-195,-414,-429
-45,-86,-124,-7,49,71,53,-13,-125,-114
-5,-146,-90,88,162,177,141,100,-32,-80
233,82,65,98,121,96,22,-32,-92,16
425,278,-9,156,66,-21,-138,-189,-112,208
568,382,-18,246,60,-103,-227,-239,-36,474
576,205,171,344,7,-168,-278,-242,90,893
447,-20,236,498,-2,-194,-297,-172,359,1245
269,-228,103,351,-18,-98,-120,117,750,1289
-237,-302,-145,-202,-141,-31,29,293,715,446
-234,-42,-260,-405,-81,103,159,350,473,-259
127,97,-109,-289,42,243,278,409,427,-313
351,89,7,134,77,150,137,235,210,-257
645,233,127,165,-105,-169,-206,-132,-86,-22
391,219,210,-172,-401,-484,-528,-441,-325,-40
162,189,74,-261,-376,-409,-435,-430,-475,-184
439,365,-180,-228,-133,-134,-152,-301,-528,-98
517,334,-66,-100,72,118,119,-87,-423,-137
151,261,285,150,317,364,303,86,-255,-384
-72,151,351,110,295,284,136,-54,-240,-516
125,-215,-11,-233,-62,-101,-197,-240,-133,26
378,-303,-288,-463,-382,-347,-275,-129,247,742
-76,-257,-178,-211,-144,-45,137,348,643,654
-473,-142,0,92,135,210,379,541,662,357
-467,-45,117,195,206,232,314,353,302,53
-559,-153,38,146,148,147,183,120,-95,-120
-854,-358,-65,46,72,70,97,8,-254,-220
-958,-428,-125,-31,30,25,26,-79,-451,-729
-452,-404,-241,-167,-120,-119,-108,-138,-320,-604
-508,-323,-186,-110,-66,-67,-61,-6,-1,-808
-537,75,-21,-2,-24,-73,-117,-123,-271,-1278
-154,177,43,119,31,-18,-77,-187,-391,-827
69,174,178,354,181,84,-47,-266,-357,-172
46,170,294,461,250,152,6,-253,-290,192
-40,50,144,259,187,91,38,-214,-303,57
129,113,82,80,13,-99,-61,-270,-372,-110
381,220,92,-18,-188,-233,-103,-245,-299,-62
404,187,11,-42,-188,-236,-130,-225,-288,-157
194,104,-70,115,-68,-181,-173,-250,-314,-472
27,173,200,302,-15,-144,-169,-173,-185,-539
-238,178,81,-5,-2,84,81,97,33,-436
-325,-48,-265,-126,96,248,246,208,63,-97
-191,-123,-209,-62,62,153,158,142,101,481
98,-103,25,185,-20,-94,-96,14,231,944
143,-285,-3,608,28,-213,-265,-32,393,963
161,-356,-261,412,-39,-210,-240,-3,388,538
247,-236,-295,-158,-190,-185,-152,63,345,358
236,10,-15,-488,-159,-20,56,283,506,329
101,117,-60,-594,-103,130,188,343,254,-273
-40,114,-14,-426,-1,217,232,238,-104,-588
-242,12,-4,-319,95,302,303,226,-89,-398
-183,28,0,-187,140,293,311,194,24,-40
-36,32,-111,-247,25,172,216,134,19,-7
-69,-98,-159,-238,-76,63,144,138,35,-192
286,-197,-94,-89,-158,-120,-37,87,171,280
690,-80,-44,-94,-255,-246,-161,77,417,910
1119,354,64,-98,-292,-333,-296,-46,449,1289
1048,370,97,223,-72,-200,-278,-133,285,1174
444,159,97,535,222,75,-115,-148,53,601
46,86,166,369,255,177,0,-136,-118,-5
-812,-72,156,110,215,191,141,-39,-338,-1072
-988,-45,108,2,258,281,326,127,-349,-1401
-311,59,-69,-92,183,245,299,137,-140,-572
-292,-198,-157,60,192,228,186,44,-148,-339
-568,-574,-296,62,199,277,236,195,8,-391
-299,-84,10,56,52,20,16,88,88,-144
305,541,460,98,-107,-243,-226,-93,124,240
600,413,483,114,-197,-313,-270,-115,168,531
551,92,171,12,-235,-298,-266,-108,164,684
13,-127,-114,-116,-133,-139,-149,-98,-8,193
-328,-28,-126,-150,-77,-90,-139,-139,-142,-378
-203,87,26,61,120,87,36,63,144,-87
-62,18,99,139,199,219,196,244,286,339
246,-190,-47,-10,118,159,170,256,375,867
674,-208,-211,-182,-142,-113,-65,44,273,1136
523,125,-93,-74,-331,-369,-305,-183,62,715
-98,127,44,311,-91,-171,-98,-66,-13,-1
-550,-167,3,390,159,21,58,-34,-193,-700
-745,-198,8,21,95,-13,8,-167,-474,-1301
-642,120,209,79,167,83,-13,-321,-832,-1593
-361,-198,-231,132,372,352,178,-81,-508,-904
26,-376,-371,265,373,311,178,95,-61,-90
365,-140,-188,226,122,15,-11,65,164,345
547,471,432,267,-16,-78,-62,-12,154,397
-27,513,478,-73,-26,33,81,14,-21,-93
-392,262,357,-256,-119,-25,-1,-134,-384,-471
-232,-14,-30,-407,-190,-42,0,-97,-329,-339
-88,-152,-304,-382,-200,-8,37,9,-105,-136
128,-84,-202,-254,-150,-47,-19,7,-9,-43
408,81,-49,-134,-135,-165,-140,9,252,348
525,185,-102,-120,-197,-274,-225,46,516,580
580,253,26,-46,-230,-309,-239,41,483,736
208,201,170,177,-12,-71,-12,121,258,638
-301,22,12,0,131,210,218,160,-149,-202
-266,39,-150,-149,71,157,109,-32,-466,-630
-265,-63,-132,-103,12,32,-17,-119,-349,-319
-513,-204,75,19,43,46,1,-71,-177,-382
-354,-190,40,65,8,-6,-44,-98,-193,-389
124,-31,12,163,11,-28,-38,-80,-83,72
257,127,211,299,122,48,-18,-66,39,348
-8,-1,170,246,169,108,44,32,208,444
251,-172,-64,161,99,116,135,204,457,869
980,-97,-130,12,-46,-39,16,125,362,987
1677,293,106,-76,-377,-481,-469,-356,-31,808
1945,651,16,-151,-482,-623,-622,-493,11,766
1355,411,-344,-425,-426,-393,-296,-146,232,483
407,175,-245,-463,-334,-254,-83,-19,39,6
-545,-168,-241,-309,-45,38,167,103,-117,-261
-1492,-430,14,-169,216,333,426,336,-42,-702
-1922,-625,58,-61,329,475,526,446,70,-1138
-1504,-547,30,-78,224,335,342,259,0,-1086
-810,-35,113,-84,67,83,76,-39,-268,-894
-247,207,107,-107,-5,17,1,-79,-251,-341
67,157,87,-44,-56,-27,-52,-128,-198,256
22,47,124,57,-23,-16,-45,-151,-145,434
-247,-55,210,82,6,35,34,-34,17,223
-726,-180,299,134,25,84,126,118,173,-21
-359,-203,186,41,-62,0,53,153,309,297
731,-42,-113,-4,-173,-184,-136,86,569,1342
1620,122,-255,214,-106,-240,-193,82,814,2054
1478,58,-249,227,-23,-159,-142,85,632,1342
411,123,-78,70,47,-13,0,89,214,-200
-264,354,236,152,244,224,230,231,71,-939
-890,128,112,108,258,262,243,92,-452,-1463
-727,-78,-99,76,82,54,14,-201,-881,-1343
-663,-257,-97,46,43,-12,-92,-318,-984,-1172
-1142,-374,48,153,151,99,4,-170,-771,-1318
-987,-325,7,383,248,183,93,-13,-391,-832
-593,-301,-148,397,286,216,148,93,-104,-289
-141,-42,16,-54,42,86,58,25,-101,27
324,238,201,-325,-117,-9,-32,-90,-114,517
379,231,213,-210,1,111,94,-5,53,862
308,115,17,-311,-63,67,84,56,223,720
227,-48,-212,-396,-146,-13,15,87,289,289
18,-210,-231,-137,-53,16,-3,137,376,-119
-15,-116,-6,372,99,0,-152,-19,302,-170
36,102,62,503,172,43,-123,-102,31,-158
-224,132,218,279,164,53,16,-19,-77,-225
-88,202,474,31,35,-11,41,-32,-108,-230
525,159,223,-107,-106,-61,-23,-114,-134,58
653,104,77,310,39,-80,-132,-223,-189,55
398,-71,-105,387,126,-63,-112,-158,-95,99
-400,-342,-127,95,38,16,21,-5,-22,-28
-1021,-309,5,177,229,306,284,190,-5,-239
-160,110,-202,87,251,282,210,111,25,382
659,303,-119,-129,-308,-319,-279,-262,-65,761
609,95,84,-415,-665,-657,-533,-366,-12,728
412,-196,-395,-705,-547,-450,-343,-50,396,723
154,-162,-461,-580,-292,-167,-78,195,516,586
-202,-219,-227,-218,27,151,219,351,363,185
-205,-47,-21,3,153,232,238,225,67,-399
-162,285,334,19,88,111,70,3,-214,-784
-204,61,170,-155,2,40,33,16,-119,-548
-337,-131,-120,-233,4,94,100,48,-28,-369
-419,17,-52,-54,145,190,164,-85,-353,-659
-492,-21,55,114,202,231,261,-47,-387,-707
-334,-175,-84,-12,88,183,307,201,142,41
21,-100,-104,-6,55,74,173,236,369,519
208,154,92,228,36,-73,-35,-4,27,106
53,193,308,522,81,-84,-92,-106,-240,-357
-190,-72,181,429,98,-16,-18,40,-79,-314
-288,-275,-19,79,28,15,16,27,-46,-205
-130,-164,-11,-211,-131,-65,-51,-41,-116,-113
247,120,-59,-357,-195,-94,-96,-59,-80,144
406,327,7,-12,-16,-75,-134,-150,-117,307
378,115,-133,38,-30,-82,-82,53,362,779
333,127,-88,-270,-182,-125,-58,139,445,593
182,108,-103,-422,-206,-84,-31,113,313,205
-43,108,-22,-176,-64,-33,-28,-8,-88,-425
-148,25,110,96,4,-83,-87,-165,-385,-891
170,50,57,37,-69,-119,-116,-159,-145,-250
576,134,-55,-97,-130,-80,-36,-3,285,568
328,-85,-41,40,22,107,171,209,490,529
-19,-83,93,177,159,192,207,140,300,113
-92,235,211,168,80,69,35,-59,33,-87
-155,155,159,205,48,22,-38,-130,-159,-38
-240,-63,0,120,-18,-58,-152,-286,-442,-20
-6,-189,-194,-175,-169,-175,-253,-387,-587,-164
695,-14,-153,-256,-230,-196,-272,-322,-425,-71
1412,197,-107,-287,-268,-274,-356,-294,-83,806
1573,211,-117,-271,-290,-347,-411,-255,242,1521
579,-4,-56,-57,-138,-238,-277,-136,268,930
-599,-264,49,266,53,-52,-81,18,198,155
-1155,-402,-66,348,150,67,72,148,187,-206
-1171,-326,-116,238,190,87,78,102,24,-542
-748,-92,1,322,155,-2,-65,-73,-118,-607
-567,-213,-229,314,106,-17,-71,-39,-15,-51
-158,-145,-247,7,42,42,31,109,244,830
248,83,-88,-211,-33,35,82,220,422,1000
284,163,-9,-204,-16,28,100,226,301,412
44,98,11,-104,81,70,109,158,43,-327
-75,23,177,-26,85,7,23,4,-186,-781
528,171,121,-203,-57,-57,-75,-47,-55,-209
674,181,-73,-367,-174,-58,-47,53,150,146
-5,-19,-211,-34,-11,63,105,134,71,-384
-557,-292,-173,223,231,245,311,252,126,-587
-557,-298,23,25,212,298,347,260,196,-258
-366,140,227,2,161,209,208,130,87,-322
-216,344,360,265,194,158,149,99,38,-426
-457,169,464,562,327,205,186,120,-103,-504
-370,41,331,448,293,201,161,91,-238,-332
-198,22,206,261,144,74,-9,-121,-569,-435
-9,10,83,90,50,-40,-140,-239,-613,-414
289,-99,-150,-298,-137,-112,-140,-204,-388,-40
539,-257,-432,-419,-119,8,-22,-98,-260,79
830,-212,-507,-373,-52,113,83,56,68,532
440,159,-91,-263,-106,0,21,96,252,504
-566,86,-19,17,49,39,68,168,191,-154
-1192,-253,30,588,273,169,170,210,19,-772
-778,-199,132,595,259,91,6,-16,-145,-738
-184,-159,119,-13,10,-89,-260,-251,-139,-133
753,47,-393,-533,-325,-329,-350,-142,420,1190
1204,400,-177,-399,-444,-462,-421,-182,506,1763
844,345,-39,-48,-237,-206,-105,-1,338,1245
84,144,44,75,72,173,259,173,74,259
-527,25,-71,-144,176,371,428,256,-132,-675
-427,252,120,102,262,354,307,126,-356,-1318
-68,445,502,464,220,121,22,-123,-560,-1362
47,229,500,293,45,-50,-120,-192,-461,-918
44,36,247,-30,-65,-60,-71,-105,-200,-432
-153,-124,40,-174,-112,-71,-56,-63,-82,-134
-490,-282,112,19,-108,-104,-86,-70,-96,-32
-342,-240,302,407,-13,-127,-147,-108,-28,251
285,-54,168,392,-1,-152,-204,-158,86,647
586,-22,-140,113,-95,-146,-118,48,418,839
618,103,-75,144,-104,-172,-97,210,706,834
584,249,-132,-189,-161,-130,-81,273,874,719
626,293,-185,-613,-251,-51,-36,300,840,550
1299,339,-180,-622,-383,-237,-256,-35,433,928
1542,156,-220,-577,-495,-451,-441,-307,165,1688
977,-61,-19,-268,-197,-183,-144,-101,261,1739
-297,-124,116,17,141,129,132,-15,-67,566
-1917,-493,63,131,375,414,373,69,-649,-1438
-2262,-583,53,210,441,530,503,57,-1116,-2822
-1431,-54,221,423,367,340,287,-154,-1200,-2548
-678,59,263,257,217,176,160,-147,-753,-1360
-481,-72,245,76,96,78,109,-72,-367,-708
-462,-251,2,20,85,100,141,97,54,-106
-162,-244,-165,48,54,78,112,222,541,714
119,-147,-96,283,48,21,21,178,650,1071
160,-175,-132,249,28,-31,-56,67,490,908
124,-141,-45,69,21,-6,-56,-5,273,568
366,22,83,-95,-38,11,-67,-64,38,359
535,78,-110,-353,-209,-98,-134,-103,-96,59
458,61,-167,-150,-115,-97,-144,-141,-255,-374
222,-20,-248,-221,-69,-45,-59,-85,-267,-515
-210,-183,-230,-446,-207,-76,1,21,-68,-526
-372,-238,-143,-409,-213,-10,56,134,171,-284
-19,-156,-36,-244,-163,-10,49,96,216,64
328,1,35,-68,-36,-8,27,12,115,152
475,154,62,50,73,41,71,14,32,69
471,263,162,107,77,56,105,41,89,277
99,273,210,163,79,32,58,-23,37,135
-664,11,106,255,167,128,117,6,-167,-501
-763,-74,22,338,212,146,107,-18,-307,-598
-314,-60,-15,272,106,30,42,-81,-295,-359
6,-41,142,160,2,-77,-73,-151,-324,-319
-27,-153,72,106,110,103,58,-46,-268,-353
-221,-135,-131,-22,139,235,192,14,-247,-459
-166,-14,-269,-183,60,167,173,59,-65,-258
49,161,-44,-10,22,-16,52,18,26,-78
80,164,142,60,-104,-171,-47,-18,49,17
156,-26,-81,-114,-139,-127,-12,61,170,219
409,43,-172,-140,-91,-98,-75,-18,187,442
674,198,106,72,-90,-220,-255,-151,270,741
817,102,-155,48,-145,-317,-306,-85,487,924
658,-3,-452,-124,-222,-304,-228,64,620,1007
472,117,-285,-380,-409,-318,-184,152,631,1016
143,201,131,-373,-330,-162,-52,181,408,558
-106,192,147,-108,12,132,52,25,-129,-83
-323,77,26,58,223,248,112,-108,-532,-421
-294,-130,29,98,252,173,122,-83,-436,-95
-297,-244,84,136,214,162,199,30,-152,72
-183,-113,122,46,-22,11,136,69,89,34
65,-5,100,6,-55,-1,99,109,205,14
64,50,141,186,64,51,72,50,23,-166
117,144,153,178,48,-43,-56,-79,-109,-94
-4,139,265,259,-29,-158,-209,-250,-270,-452
-271,-213,155,312,-89,-195,-186,-177,-138,-369
-389,-491,-79,234,-48,-117,-78,-29,33,-36
-260,-188,-39,164,69,-39,-60,-118,-190,-262
46,359,99,-21,78,37,3,-93,-268,-252
-138,354,196,185,186,146,123,42,-193,-310
-287,183,167,378,266,180,163,97,-103,-404
-126,69,-72,-1,54,24,25,11,-17,-246
58,-10,-152,-324,-149,-142,-140,-71,73,130
442,37,-250,-523,-219,-155,-161,-24,274,635
829,61,-323,-556,-338,-211,-173,41,519,1143
898,52,-247,-374,-303,-195,-120,151,707,1302
496,49,-122,-278,-160,-56,-3,226,609,766
-372,-55,27,-135,-4,90,116,235,304,-213
-964,-84,177,34,166,232,211,231,121,-815
-764,2,149,25,144,171,81,71,-64,-813
-556,-69,44,35,116,119,-7,-77,-329,-772
-309,-10,112,104,176,163,11,-128,-491,-746
-2,103,52,29,65,50,-56,-166,-466,-598
-64,41,-9,-4,56,74,0,-90,-334,-530
-153,9,-11,23,107,120,-28,-171,-425,-557
123,67,-86,-18,-8,-48,-176,-208,-293,23
443,125,-88,-67,-94,-190,-222,-94,79,849
473,140,65,-64,-171,-207,-138,21,245,1093
271,32,34,35,-111,-163,-106,-20,124,840
169,-94,-290,73,3,-34,-15,17,51,471
329,-24,-299,0,25,104,175,172,96,162
415,100,60,17,-4,103,144,117,-36,-53
560,180,224,-40,-111,-12,48,94,136,213
745,222,122,-163,-169,-98,1,93,330,589
407,118,48,-70,-151,-155,-119,-57,89,205
-278,-82,42,53,-14,6,-29,-55,-158,-485
-852,-207,150,461,195,113,-54,-173,-532,-1012
-921,-333,-2,433,232,41,-119,-218,-573,-989
-521,-280,-236,-63,58,-19,-26,-24,-224,-369
-94,-65,-128,-260,-102,-16,95,149,19,144
202,132,66,-246,-77,58,127,148,75,315
453,95,66,-124,-55,23,34,66,84,476
562,11,-7,-106,-80,-48,-27,83,223,712
443,58,-2,-117,-97,-100,-74,37,218,494
-182,-35,61,59,-11,-55,-62,-17,-13,-361
-662,-180,54,189,65,36,33,54,-10,-712
-672,-275,-185,33,54,99,117,172,102,-480
-380,-242,-260,-135,1,56,83,150,173,-2
-112,-74,-152,-171,9,45,50,156,332,494
-187,-58,-115,-162,51,85,63,192,438,721
-348,-269,-196,-137,89,202,199,286,437,713
-101,-246,-144,-121,-18,70,88,138,328,865
-20,-210,90,180,66,23,40,62,311,924
174,138,238,308,100,8,17,38,269,842
328,429,210,126,-20,-83,-37,-56,35,196
102,253,170,94,41,0,38,-87,-337,-830
309,219,159,104,61,26,16,-250,-827,-1133
763,228,5,-91,-142,-165,-160,-398,-934,-639
929,350,31,-149,-188,-213,-218,-348,-666,-192
823,422,162,-64,-165,-197,-200,-284,-386,81
319,248,31,-87,-111,-113,-76,-147,-203,-47
-377,-106,-212,-148,-39,33,116,43,-34,-116
-785,-394,-224,78,56,112,196,95,-1,-118
-859,-453,34,509,181,120,175,91,46,-108
-769,-399,116,535,226,143,179,115,81,-61
-580,-343,42,270,194,170,191,144,101,-41
-382,-157,75,122,181,198,190,160,69,-129
26,148,177,70,165,153,53,39,90,69
431,229,200,184,166,99,-93,-63,97,229
601,158,57,92,59,1,-181,-110,65,209
508,93,-37,-60,-51,-156,-258,-158,-67,51
263,51,-78,-304,-194,-220,-206,-29,157,244
45,-17,-161,-421,-235,-160,-77,122,456,483
59,-120,-275,-335,-198,-132,-74,94,410,389
296,-165,-308,-235,-165,-142,-105,20,221,337
228,-157,-112,-108,-111,-99,-68,-13,10,101
-47,62,181,33,-22,-34,-8,-43,-153,-102
-455,180,212,145,108,94,119,-5,-100,-304
-746,85,187,373,254,182,188,42,-10,-348
-413,-61,85,357,176,50,25,-51,59,173
-238,-180,46,278,163,45,-2,-95,-59,129
-450,-342,-71,179,228,238,253,123,-132,-386
-366,8,29,-3,108,241,231,98,-332,-711
-369,169,169,42,39,105,6,-100,-481,-853
-389,-57,61,5,10,31,-29,-106,-328,-758
-280,-88,3,-148,-73,-63,-54,-50,-123,-456
-127,1,-23,-175,-88,-73,-13,-5,5,-254
30,47,-13,-25,-44,-81,-71,-88,-64,-194
133,-22,82,399,15,-152,-228,-257,-116,14
88,-159,110,603,134,-52,-243,-302,-126,131
169,-237,-11,381,153,13,-262,-354,-236,191
529,-78,-95,9,30,-75,-300,-382,-323,138
993,326,52,-530,-362,-279,-308,-245,-96,289
1161,566,-139,-814,-586,-479,-355,-177,64,438
789,472,-327,-624,-341,-306,-209,-42,67,178
391,234,-506,-360,87,223,250,328,302,164
93,-50,-445,-185,289,525,575,609,656,620
-309,-156,171,59,229,371,425,465,591,680
-281,-27,400,106,38,71,115,158,225,342
5,-18,18,-117,-69,15,62,123,132,127
-83,-41,-41,-103,-49,65,81,95,63,-50
-581,-145,112,79,79,122,121,87,26,-228
-655,-261,120,156,130,109,98,72,20,-305
-336,-187,163,398,152,37,-21,-55,-217,-698
36,-17,250,693,147,-85,-170,-213,-384,-786
277,74,92,453,0,-221,-241,-226,-239,-450
34,-21,-248,-4,-77,-162,-148,-92,-22,-374
-101,-99,-353,-330,-83,-41,10,53,252,127
108,-25,-108,-462,-185,-57,39,148,595,1004
217,-8,24,-445,-205,17,119,258,757,1224
-98,-45,-25,-218,-63,191,161,183,500,614
-411,-42,70,367,291,324,156,-41,-136,-418
-726,-220,29,881,553,385,250,-75,-452,-1196
-826,-428,-59,791,361,102,95,-99,-430,-1081
-440,-345,-150,94,-48,-165,-99,-119,-292,-544
163,-36,-77,-495,-307,-168,-70,-37,2,57
499,178,6,-611,-249,-29,34,88,154,330
587,180,24,-550,-275,-66,11,81,44,333
406,105,172,30,-233,-240,-179,-145,-181,111
132,103,346,568,-62,-278,-279,-299,-333,-258
-101,-68,72,376,30,-184,-173,-247,-284,-400
-290,-249,-125,-1,-25,-149,-128,-215,-319,-599
-64,-11,43,-13,25,-12,-8,-68,-174,-248
153,223,105,-70,-23,38,34,0,-2,289
-108,93,-6,-348,-98,65,146,129,134,304
-104,-70,-144,-459,-123,34,151,204,362,578
265,-25,-128,-339,-101,-24,68,245,603,973
382,0,-156,-268,-31,64,149,358,709,836
398,49,-60,-167,1,80,118,255,419,274
213,119,13,-59,36,94,126,230,320,40
55,90,15,-15,74,120,139,228,294,91
365,-50,-123,-161,-62,-28,10,171,390,603
584,-91,-127,-188,-105,-93,-58,100,296,711
423,295,82,-27,-41,-96,-150,-111,-133,21
-120,509,218,185,137,33,-86,-160,-416,-640
-496,146,164,170,123,58,-50,-121,-369,-672
-253,-67,18,22,-31,-62,-125,-93,-138,-288
-91,-122,-201,-84,-80,-64,-88,-22,-17,-330
-51,-22,-260,-141,-124,-89,-103,-53,-3,-461
131,255,-21,-86,-100,-126,-158,-135,-43,-448
-246,209,167,78,71,5,-17,-102,-248,-837
-753,-64,157,190,230,169,160,-96,-564,-1006
-412,-116,110,208,233,167,141,-205,-764,-646
-164,18,103,237,206,107,39,-294,-759,-404
-197,16,-83,110,110,41,-41,-241,-491,-162
-368,-126,-270,-87,15,20,7,-47,-104,-86
-292,-120,-192,-171,-41,-36,31,95,123,-168
-60,32,-36,-153,-139,-118,3,110,153,-210
58,47,38,-63,-137,-150,-85,45,111,-45
47,-27,19,3,-32,-74,-25,83,164,147
-120,-159,27,35,57,27,64,110,112,62
-139,-126,69,123,108,48,45,8,-51,-61
-89,-30,11,106,80,15,5,-33,-75,-121
59,85,57,-36,19,18,-7,-13,-42,-97
310,111,43,-127,-50,-32,-59,15,68,276
461,106,41,-88,-44,-41,-74,56,212,616
461,37,29,-45,-16,0,-37,83,259,717
451,-68,-58,-108,-54,-30,-53,76,341,878
516,-92,-76,-132,-95,-72,-55,122,570,1176
576,-6,-61,-115,-133,-102,-71,161,721,1241
1014,208,-85,-224,-253,-183,-136,96,735,1433
1635,412,-105,-345,-390,-350,-331,-101,580,1684
1535,408,-156,-284,-315,-319,-356,-206,320,1234
1008,333,-34,-159,-257,-274,-355,-282,25,562
-312,91,37,-15,-88,-99,-176,-187,-205,-348
-1633,-304,-13,250,232,231,157,32,-403,-1232
-1771,-438,-47,441,405,371,300,99,-562,-1669
-1520,-219,146,425,404,344,227,-40,-835,-2343
-1274,-149,263,321,320,252,107,-190,-989,-2446
-902,-164,179,222,277,215,132,-132,-711,-1589
-488,-172,-57,-18,131,150,180,-25,-379,-769
-80,-43,-88,-104,-52,-11,80,-27,-125,-327
7,68,151,209,-46,-114,-64,-54,18,-26
-16,9,121,469,53,-53,-37,12,110,171
72,-3,93,651,233,80,108,190,286,403
308,4,82,205,311,243,266,226,-17,1
417,-221,-161,-391,43,237,320,302,149,127
77,-226,-214,-633,-171,186,283,337,322,57
-145,68,31,-329,-258,-71,3,121,217,73
-140,45,152,215,-98,-164,-128,-13,116,177
-276,-237,200,434,-25,-186,-182,-110,97,296
-230,-506,-101,252,-30,-146,-155,-125,100,505
41,-288,-512,-190,-42,-44,-40,-53,131,628
434,167,-431,-448,-86,-15,-27,-35,88,580
1365,612,127,-474,-272,-213,-211,-76,281,1243
2020,809,211,-551,-436,-358,-292,42,778,1998
1556,451,-26,-510,-425,-281,-126,266,1036,1782
327,73,-13,-238,-99,80,220,452,925,956
-1006,-98,121,108,271,435,452,390,342,-434
-1584,-249,187,305,526,646,578,252,-240,-1255
-1377,-287,153,282,465,468,373,-83,-855,-1507
-1053,-154,103,147,172,95,47,-403,-1327,-1985
-710,17,153,135,43,-26,12,-297,-983,-1596
-375,67,162,139,34,-31,8,-193,-618,-936
-60,85,156,172,76,-5,-46,-209,-551,-632
129,39,93,154,67,4,-55,-151,-395,-359
102,12,39,103,31,15,-5,-38,-149,-89
-213,-40,37,69,73,81,75,64,13,-114
-229,-30,-6,69,88,97,43,55,26,-137
-155,-73,-175,70,66,78,4,63,58,-96
-190,-146,-223,214,141,110,29,102,76,-126
-117,-118,-5,310,139,23,5,65,74,-98
-12,-53,144,134,-2,-64,-7,79,104,15
256,128,33,-120,-103,-93,-39,77,148,355
512,278,174,-97,-105,-113,-126,-53,44,674
600,249,192,-176,-168,-130,-167,-153,-47,773
599,205,15,-232,-196,-135,-166,-169,2,813
452,109,-68,-225,-194,-129,-153,-113,106,644
71,-185,-131,-176,-79,-24,2,48,234,226
-85,-547,-278,-177,-28,48,100,218,342,11
117,-164,-117,-134,-128,-110,-74,48,176,-46
386,500,161,-71,-217,-331,-335,-262,-108,-144
509,303,0,-161,-241,-318,-309,-214,3,132
857,183,-116,-220,-265,-286,-277,-138,198,695
1256,248,-124,-211,-271,-280,-243,-121,266,1122
1082,283,-43,-69,-141,-152,-99,-95,109,833
6,130,94,188,96,92,104,32,-51,-44
-1417,-280,177,671,319,233,219,121,-81,-848
-1605,-585,187,1050,386,171,148,49,-32,-795
-818,-513,-146,517,200,71,64,6,48,-314
-334,-396,-446,-153,42,20,10,18,149,74
-83,-74,-174,-67,211,225,155,199,333,287
170,268,136,33,196,263,199,247,339,301
20,82,113,101,-22,-12,-6,55,124,-72
-133,-147,73,181,-142,-162,-50,50,133,-29
-97,-256,-199,-171,-196,-154,-1,161,295,368
-137,-324,-341,-549,-257,-123,21,147,196,401
-233,-99,144,-242,-100,-9,51,19,-181,-132
-270,252,449,176,162,159,130,-42,-374,-619
-212,291,260,250,237,183,96,-89,-371,-659
-83,197,168,221,260,210,110,-103,-473,-759
366,297,167,-117,65,118,79,-93,-442,-525
721,266,-88,-438,-156,-56,-26,-112,-212,109
560,131,-240,-436,-179,-100,-75,-90,2,564
341,73,-244,-341,-115,-52,-35,-14,211,781
271,67,-187,-365,-155,-62,-9,59,383,910
60,-2,15,-93,-75,-70,-71,-8,240,541
-180,-128,107,234,117,27,-64,-71,29,-58
98,-78,54,254,163,32,-149,-141,-26,-129
274,7,-32,92,86,-104,-306,-248,-157,-269
-41,-89,-170,-112,-57,-137,-231,-133,-98,-310
100,117,-81,-245,-294,-188,-94,76,223,222
305,338,0,-315,-406,-242,-78,100,296,494
60,103,-26,-154,-175,-67,42,154,186,165
-328,-241,-17,48,96,182,240,288,161,-174
-462,-314,44,117,185,246,306,273,15,-349
-479,-72,153,163,190,216,246,171,-139,-577
-424,35,167,179,163,156,141,30,-319,-548
-225,104,162,174,131,71,18,-136,-463,-359
8,221,159,153,113,38,-11,-184,-426,-300
191,214,155,112,95,60,27,-110,-252,-61
464,-18,-13,-7,18,67,85,88,116,530
888,-181,-199,-149,-110,-49,4,133,314,949
1083,-4,-187,-204,-236,-232,-220,-101,16,696
850,333,-68,-197,-302,-387,-435,-367,-201,300
75,197,-52,-106,-164,-211,-256,-187,-6,-32
-282,78,-27,1,-31,-44,-45,47,260,-6
-1173,-329,-171,-46,9,107,145,330,417,-509
-832,-277,-109,-55,60,108,95,155,99,-482
-225,-26,57,-19,21,10,-46,-89,-198,-209
-234,-83,-39,-39,6,9,2,-110,-263,-205
-284,-150,-117,-25,49,61,57,-78,-248,-221
2,20,66,142,131,66,18,-148,-381,-376
221,122,59,176,135,23,-66,-206,-445,-568
267,37,-74,62,73,-11,-92,-187,-341,-523
233,-67,-122,0,43,15,-36,-64,-21,27
164,-40,-103,48,-28,-45,-99,-103,85,538
-154,-140,59,375,18,-57,-197,-224,-75,524
234,-185,60,430,35,-11,-206,-196,8,855
558,-286,-273,272,22,-88,-165,-45,417,1315
122,-414,-325,138,-56,-64,69,227,726,796
-280,-325,-262,-433,-351,-119,204,372,561,-476
-374,-104,10,-577,-450,-244,80,287,268,-902
-502,-25,118,-335,-207,-97,143,364,267,-747
-290,55,110,-162,-22,59,218,336,140,-604
-630,71,136,213,274,282,324,203,-318,-1016
-902,130,514,679,532,373,287,-20,-659,-1208
-405,146,464,463,459,335,237,-33,-433,-454
36,133,69,-98,240,283,240,68,-143,97
409,480,171,-371,-17,63,22,-55,-160,227
294,387,68,-377,-138,-103,-157,-212,-306,60
61,58,-16,-183,-69,-86,-151,-177,-210,84
181,4,9,-110,-74,-85,-125,-95,93,506
307,42,23,-88,-79,-87,-94,-18,269,735
286,53,68,-21,-25,-28,-29,51,326,800
285,101,99,35,29,24,31,47,210,478
171,86,70,35,55,51,76,123,258,173
-199,-33,45,65,93,81,119,164,242,-236
-608,-204,6,79,116,100,131,99,-44,-692
-763,-334,-81,14,77,62,71,-5,-332,-956
-665,-377,-118,3,54,34,8,-103,-475,-969
-310,-323,-98,4,26,23,-18,-90,-344,-498
-42,-37,24,86,20,-14,-84,-110,-265,-281
73,32,9,110,0,-44,-108,-100,-170,-109
63,-128,-119,-13,-29,-31,-27,17,31,164
139,-37,-104,-70,-83,-114,-59,-20,82,371
261,131,43,17,-76,-109,-67,-47,109,441
136,100,63,189,101,122,151,139,231,286
184,87,-39,125,112,161,175,178,212,196
382,113,-131,-44,56,19,-61,-21,111,250
346,76,-79,278,226,58,-137,-140,70,343
352,54,-60,376,146,21,-153,-200,9,355
34,-123,-166,118,-64,-96,-155,-193,-87,-2
-95,-76,-141,-53,-191,-243,-182,-147,-113,-189
97,183,-2,-212,-257,-280,-158,-26,24,-76
475,294,-32,-357,-370,-310,-132,1,111,278
931,314,-91,-427,-420,-351,-195,-83,117,699
778,171,-101,-387,-302,-209,-73,3,218,741
126,-68,-116,-169,-81,5,91,82,145,296
-579,-173,16,51,84,115,166,102,-25,-403
-873,-258,34,146,162,172,209,110,-109,-754
-646,-549,-176,7,155,213,261,246,127,-294
-468,-695,-339,-77,108,185,229,310,292,115
-309,46,11,32,60,62,57,95,107,-20
-310,399,304,152,42,17,-29,-97,-98,-244
-484,136,208,274,147,129,93,-122,-217,-439
-487,-37,84,164,168,145,112,-136,-296,-444
392,215,132,-41,-43,-162,-153,-90,46,462
671,437,305,25,-72,-158,-197,-152,-7,425
629,371,203,13,-95,-122,-131,-114,-67,245
515,283,87,13,-50,-96,-119,-115,-98,245
336,235,64,51,-28,-119,-167,-97,6,437
-185,-18,-3,15,-6,-61,-86,15,70,318
-381,-262,-20,98,46,40,60,137,169,348
-161,-168,149,432,122,61,86,185,285,444
-73,-53,239,624,216,40,-5,102,193,231
-268,-135,32,247,159,7,-45,57,44,-130
-240,-98,-109,-254,-51,-5,58,146,130,-176
55,21,-104,-299,-76,27,78,124,121,-157
127,2,-48,-146,-91,5,-11,45,112,-47
66,-23,19,-68,-33,-28,-69,8,141,124
196,-20,-137,-252,-62,-53,-17,108,286,484
356,18,-227,-268,-75,-33,115,227,365,614
353,82,-104,20,7,-30,93,112,46,-22
165,130,-88,84,2,-62,2,-89,-401,-819
80,83,-83,82,-8,-85,-58,-187,-521,-847
231,32,152,179,-77,-185,-188,-286,-490,-219
488,8,53,177,-124,-229,-230,-250,-214,437
676,-77,-353,-185,-202,-206,-174,-51,250,1007
447,-210,-418,-446,-209,-120,-73,91,387,807
184,-230,-203,-427,-177,-50,10,149,362,413
35,-131,-204,-356,-194,-96,-75,-18,85,134
-196,20,-131,-150,-19,13,-18,-55,2,151
-512,200,283,136,173,171,90,-78,-175,-351
-500,241,337,241,264,256,162,-22,-161,-531
-276,114,137,132,209,227,190,139,245,-103
-180,45,152,167,217,248,256,271,454,91
-156,-1,103,160,221,264,252,265,292,68
-163,-123,2,204,239,244,212,198,129,96
-375,-209,-6,429,334,261,224,142,-126,-492
-432,6,137,466,223,93,34,-88,-515,-1236
-435,25,139,261,98,-57,-144,-305,-793,-1339
-127,47,61,-32,-31,-137,-198,-347,-691,-982
173,200,61,-226,-152,-164,-178,-283,-412,-575
-103,36,-90,-284,-158,-79,-67,-107,-138,-308
-516,-186,-127,-158,-24,26,32,-3,-20,-332
-306,-165,-103,-18,53,59,54,-6,9,-280
448,69,-88,-74,-64,-88,-123,-155,-68,214
1387,288,-50,-206,-333,-371,-401,-362,-82,986
1982,351,-33,-236,-533,-608,-575,-474,59,1535
1922,286,-91,-250,-575,-634,-568,-388,270,1738
686,7,-107,-38,-264,-297,-272,-173,295,1057
-1093,-357,-28,311,209,192,173,115,243,-37
-2007,-405,42,287,423,475,462,300,137,-876
-1636,-243,164,64,276,346,395,222,-72,-1249
-977,-105,251,3,86,152,252,137,-272,-1420
-492,-199,0,140,188,231,278,251,-173,-889
55,-476,11,426,277,260,254,296,188,609
365,-322,-96,69,74,95,79,104,99,747
490,204,-243,-570,-237,-161,-104,-99,20,487
164,217,-208,-595,-182,-71,56,79,287,129
-139,90,-7,-361,-34,99,228,191,242,-308
-433,57,330,100,103,136,175,47,-96,-610
-299,111,333,289,152,109,129,-23,-189,-418
-59,214,228,423,169,48,58,-71,-224,-337
71,147,144,599,234,67,54,-18,-175,-342
188,62,95,463,135,-6,-40,-7,-134,-232
94,10,132,4,-130,-205,-228,-138,-145,-174
-76,-89,-12,-321,-71,27,56,158,175,-19
20,-34,-140,-381,-35,152,233,368,438,293
35,0,-76,-167,-12,117,175,303,395,541
-77,-46,70,52,104,146,132,195,232,508
-132,-112,91,121,152,140,76,81,153,552
183,-117,-68,-86,-23,-22,-57,6,243,844
372,-89,-233,-223,-153,-115,-102,-22,205,631
416,38,-115,2,-132,-200,-215,-174,-21,219
217,44,13,244,-52,-188,-232,-178,-115,-183
-260,-75,56,229,86,24,-33,-46,-227,-724
-604,-152,190,228,190,141,79,-2,-304,-955
-392,-64,166,240,227,158,98,22,-144,-460
164,168,49,-11,59,43,-14,-66,-108,162
519,254,-91,-261,-206,-174,-239,-264,-245,407
360,42,-268,-348,-235,-198,-237,-198,-50,573
138,-124,-311,-318,-107,-52,-52,3,203,542
-28,-225,-341,-305,-51,39,106,189,326,199
-95,-259,-430,-293,-51,60,151,232,199,-230
-81,-165,-323,-181,-111,-38,39,74,-79,-485
-109,-50,48,137,-120,-164,-143,-130,-237,-604
-140,-82,181,315,-184,-325,-302,-251,-235,-646
29,-119,133,346,-249,-412,-375,-240,-1,-215
302,-15,56,-9,-235,-322,-271,-127,163,314
495,79,-113,-292,-124,-68,-20,68,321,805
445,200,-8,-238,55,194,228,245,468,1010
-34,151,34,-104,220,366,347,288,296,537
-93,71,20,81,249,323,307,224,85,234
332,210,196,142,154,173,166,157,159,579
213,220,236,47,59,80,56,25,87,467
-16,-74,11,-9,44,70,30,-22,-36,165
-310,-337,-123,83,126,161,135,80,5,-102
-171,-277,-129,68,59,81,68,90,164,225
150,-128,-48,-1,-70,-88,-96,-13,177,462
228,274,194,42,-93,-151,-189,-192,-173,-167
-169,308,176,-37,-64,-73,-64,-122,-253,-727
-572,-11,82,45,95,128,127,68,-160,-946
-599,-58,136,454,341,281,165,77,-225,-1054
-637,-91,152,605,330,182,23,-98,-552,-1351
-557,-50,263,514,192,15,-132,-306,-838,-1410
-281,43,230,221,-49,-160,-247,-441,-806,-941
198,122,97,-45,-223,-235,-291,-391,-457,-148
469,15,-105,45,-170,-182,-219,-178,9,440
360,-261,-396,-18,-144,-142,-121,36,316,590
35,-311,-330,-6,-59,-75,-93,7,204,161
-384,-116,-50,-49,-28,3,-40,-93,-65,-420
-407,-167,-57,-238,-64,31,11,-45,-44,-240
32,84,78,-91,-42,-13,-67,-90,35,361
259,250,-40,-149,-55,-31,-88,-121,67,602
265,111,-177,-397,-150,-59,-89,-55,325,745
631,82,-238,-639,-337,-168,-115,61,686,1110
1115,221,-217,-659,-384,-239,-174,49,745,1506
1489,332,-54,-448,-391,-332,-276,-52,634,1902
1111,283,76,-204,-153,-67,6,142,631,1819
-194,46,117,51,179,346,448,496,431,636
-1128,-90,183,260,355,481,561,471,-126,-877
-1095,-51,202,274,337,389,388,168,-742,-2049
-290,46,67,123,195,222,213,15,-714,-1679
491,3,-89,97,99,69,110,57,-190,-575
529,-194,-109,134,38,-2,72,134,157,30
436,-123,-214,-40,-100,-87,-7,115,316,391
-122,-25,-186,-36,-55,-22,42,129,251,151
-923,-4,179,100,144,196,233,216,-16,-592
-670,25,190,-19,74,147,160,158,-34,-149
-183,-60,29,-118,-122,-98,-107,-51,114,824
-38,13,-55,-188,-224,-229,-233,-170,121,670
-244,35,47,-66,-126,-109,-146,-157,-48,-189
-432,-60,187,274,119,88,17,-76,-188,-715
-365,41,325,488,297,158,29,-170,-549,-1147
-287,172,232,259,233,91,-43,-343,-986,-1680
-126,209,60,116,175,82,-21,-251,-692,-1229
12,277,-25,68,191,191,109,-4,-161,-524
-22,143,-34,146,172,183,156,125,150,41
-128,40,291,293,103,105,90,115,218,237
-269,-85,309,188,16,18,-29,-69,-122,-132
-235,-195,135,370,106,-2,-102,-243,-463,-220
-247,-290,161,536,150,-25,-98,-279,-505,-171
-233,-321,-32,101,-78,-131,-107,-222,-363,-243
-232,-292,-246,-206,-99,-62,-36,-75,-151,-195
-9,-235,-512,-347,-5,96,92,146,217,240
55,-19,-254,-438,-74,48,81,148,308,324
-9,96,-38,-336,-114,-20,43,91,190,156
115,147,-57,-260,-125,-58,0,52,136,105
259,118,1,-3,-88,-101,-66,-22,101,151
535,88,80,283,-82,-216,-209,-120,176,597
719,46,-41,201,-118,-260,-259,-97,473,1064
759,-17,-256,-232,-195,-242,-182,24,666,1289
909,112,-287,-606,-243,-146,-49,214,808,1448
522,198,-167,-447,-73,94,173,388,668,870
-409,84,62,174,231,242,234,235,1,-458
-972,-22,325,404,222,138,59,-158,-704,-1457
-640,73,522,278,94,44,-38,-284,-834,-1422
-137,36,277,115,62,74,56,-144,-573,-900
164,-39,16,-19,52,131,149,1,-273,-397
415,49,-79,-192,-48,41,42,-42,-195,-103
455,127,-21,-54,-58,-47,-85,-111,-103,152
206,1,97,183,-26,-143,-188,-154,-22,301
-66,-336,28,139,-93,-195,-202,-105,107,459
-30,-363,-187,-44,-38,-33,-28,64,247,497
-19,33,-311,-195,48,112,59,32,107,292
-38,234,11,-74,89,95,21,-20,78,447
-313,53,214,163,190,98,64,-1,94,400
-419,-174,192,397,218,102,50,-37,117,207
-292,-368,-88,324,146,142,111,66,145,12
-262,-373,-223,110,31,86,120,94,2,-297
-262,-59,28,23,-14,-20,35,-3,-176,-517
-143,17,-5,-177,-36,19,59,67,-78,-390
-91,-68,-40,-164,-94,-55,-46,30,-25,-366
319,181,50,-122,-189,-156,-192,-41,120,147
835,204,-170,-456,-410,-269,-246,0,367,873
973,149,-274,-708,-543,-394,-323,-41,401,1062
923,164,-88,-523,-435,-350,-248,-5,405,1090
477,-74,-97,-352,-226,-115,32,196,499,821
-144,-73,23,-45,97,166,248,206,182,125
-133,81,0,6,152,206,267,176,77,5
-105,218,-5,-47,32,51,146,132,158,-44
-303,279,119,26,47,26,81,71,-46,-483
-366,247,192,77,60,23,39,-8,-248,-560
-476,178,269,177,151,71,50,-85,-366,-708
-439,77,262,252,174,70,0,-162,-288,-497
-168,-12,142,433,155,28,-60,-120,-41,99
-42,-185,-82,657,271,99,26,4,83,161
-38,-417,-348,448,276,181,136,95,66,315
388,-193,-221,-33,-4,-6,-44,-85,-175,425
813,258,201,-382,-322,-268,-275,-251,-250,425
825,351,111,-410,-305,-222,-223,-99,-44,332
104,125,-48,-249,-158,-84,-92,34,-54,-471
-1040,-170,0,12,111,146,113,87,-268,-1357
-1102,-183,70,105,186,180,119,32,-332,-1271
-371,-6,37,-5,27,28,-10,-48,-272,-695
-41,33,0,-43,-31,-9,-30,-41,-199,-396
-90,41,-60,26,17,27,-7,5,-131,-321
-179,48,29,96,63,49,12,34,-66,-215
-171,7,73,235,124,70,43,83,72,70
120,37,62,250,66,-26,-35,36,219,399
363,92,85,74,-52,-148,-161,6,350,679
579,167,50,-183,-148,-176,-181,43,456,1017
917,212,-54,-303,-205,-120,-90,146,525,1302
659,10,-237,-264,-182,-65,-44,88,156,703
103,-157,-264,-150,-101,-35,-17,-55,-233,54
-268,-74,-108,-97,-89,-58,-46,-194,-449,-449
-749,-202,-83,26,43,113,119,-46,-390,-910
-876,-313,-15,251,196,245,242,55,-244,-1025
-438,-254,-59,211,142,154,153,29,-34,-388
-61,-85,-80,-52,4,40,90,-51,-79,-35
13,55,129,-59,-39,-5,76,-109,-188,-5
215,198,141,-32,-77,-46,70,-70,-41,298
224,157,60,-44,-87,-39,66,-11,64,378
51,0,7,-137,-57,-13,52,35,128,377
-149,-112,69,6,88,78,103,88,124,211
-274,-213,27,161,185,157,142,130,135,32
-151,-206,-91,270,204,171,113,150,152,-71
50,-123,-110,462,186,110,64,142,137,-23
257,84,260,530,44,-104,-124,-58,-51,-87
388,314,444,58,-35,-80,-114,-95,-173,-159
373,253,133,-324,-99,-16,-62,-61,-124,-15
160,162,8,-465,-238,-141,-170,-139,-80,2
41,102,-61,-324,-262,-249,-267,-230,-61,12
445,107,-121,-149,-243,-274,-266,-184,81,480
542,75,-196,-71,-169,-217,-191,-36,328,759
126,-4,-171,15,49,2,30,176,499,514
-362,-116,0,144,255,214,231,288,377,47
-453,-134,47,177,230,221,213,208,129,-108
-518,-154,-169,-65,99,148,122,98,-111,-425
-128,-179,-397,-338,-72,19,37,116,86,-121
640,-9,-211,-352,-244,-165,-97,160,565,794
1106,234,79,-271,-329,-275,-156,151,790,1401
1001,270,174,-211,-235,-203,-73,135,617,1275
14,-34,60,-4,28,56,157,189,187,321
-692,-331,-151,287,287,243,265,70,-454,-699
-422,-284,-243,162,231,171,169,-78,-654,-798
-147,252,273,25,81,47,-40,-234,-677,-911
-162,509,522,39,54,14,-105,-267,-652,-1103
10,398,253,-85,-4,-15,-82,-169,-297,-484
-230,207,220,26,40,19,-12,-72,-56,-196
-598,-33,192,144,141,118,74,-2,-138,-580
-575,-203,67,146,191,157,113,-32,-362,-848
-187,-221,-130,9,72,58,-5,-99,-322,-608
-62,-308,-239,-90,-18,-5,-58,-78,-128,-338
-56,-123,-92,-108,-78,-75,-140,-133,-121,-231
122,130,13,-117,-71,-80,-163,-141,-67,44
-215,-31,52,26,104,52,29,9,-23,-127
-631,-175,82,188,208,164,217,113,-121,-549
-487,-235,99,323,184,123,165,86,-86,-384
-238,-311,132,526,203,88,79,45,9,-49
-77,-227,22,483,145,-14,-29,-36,-52,-15
214,36,-165,63,-50,-199,-238,-196,-154,123
606,58,-397,-343,-143,-147,-148,-33,172,694
739,-70,-389,-375,-96,32,107,308,706,1198
512,-69,-40,-36,39,93,180,370,847,1227
452,257,180,8,-87,-151,-91,43,548,1159
584,374,62,-190,-341,-338,-235,-80,449,1339
454,149,-66,-52,-305,-298,-215,-101,274,1169
-87,-140,-203,96,-12,-7,-42,-67,-93,306
-641,-281,-21,47,235,321,232,48,-374,-1021
-490,-102,423,41,236,326,186,-11,-432,-1258
-55,351,462,-26,97,169,63,-95,-319,-727
218,457,67,-221,-145,-60,-67,-173,-277,-400
44,130,-76,-141,-112,-66,9,-48,-148,-284
-473,-108,9,264,189,90,138,70,-154,-606
-412,-98,-13,251,233,152,193,187,-10,-522
-114,143,66,16,10,-20,38,62,-29,-197
-18,285,143,-94,-61,-49,-28,-10,-21,-21
110,255,44,-186,-78,-9,-6,-7,27,0
374,163,8,-86,-152,-163,-191,-191,-59,98
621,91,-27,144,-122,-247,-320,-254,59,332
377,-33,-85,187,-39,-137,-253,-189,93,-3
-256,-310,-343,-17,-18,-43,-138,-168,-145,-391
-505,-499,-481,-117,57,115,120,93,10,-132
-410,-425,-370,-167,85,195,286,334,425,476
3,-118,-159,-54,0,7,126,248,604,1088
390,121,149,-37,-152,-166,-24,139,645,1459
531,176,368,-193,-298,-269,-147,2,459,1346
410,125,175,-252,-218,-173,-114,-70,58,616
-192,61,143,-45,12,80,60,-57,-418,-490
-398,-114,-100,-195,11,112,73,-101,-594,-856
-278,-309,-230,-191,29,59,14,-133,-516,-624
-106,-86,51,21,94,30,-32,-142,-310,-297
-115,168,180,86,83,-3,-52,-117,-145,-447
-380,67,92,172,96,26,12,-77,-194,-981
-279,58,48,51,43,8,33,-105,-269,-972
32,63,-58,-133,-71,-78,-16,-136,-166,-402
172,-53,-168,-187,-146,-96,-13,-14,128,162
407,-11,-84,-139,-138,-92,-25,54,296,499
459,78,119,176,-32,-77,-31,69,339,551
-73,-40,118,612,280,128,138,148,169,-119
-802,-327,-198,812,504,269,252,118,-104,-773
-1097,-456,-281,800,523,277,254,34,-274,-715
-550,-243,-74,436,342,176,160,-33,-202,-126
258,88,-165,-494,-144,-30,42,-1,32,530
554,406,248,-693,-364,-142,-40,0,45,436
538,403,267,-508,-245,-58,1,13,-9,116
397,282,145,-322,-151,7,21,14,-52,-180
245,208,121,-161,-96,6,22,-4,-97,-364
107,123,93,-84,-53,24,39,2,-86,-189
16,52,82,-11,6,69,71,52,15,103
46,45,113,121,77,96,59,60,100,385
152,22,45,146,36,30,-11,18,116,333
281,37,-155,-113,-141,-110,-106,6,170,84
283,21,-167,-209,-190,-154,-149,41,230,-1
-28,-128,-146,-189,-105,-27,-46,102,131,-296
-17,11,-92,-173,-132,-75,-129,-68,-124,-284
47,310,80,58,-65,-76,-175,-186,-238,-59
52,141,12,148,66,70,6,34,72,333
218,-48,-23,5,-7,32,40,150,394,765
251,-216,-36,-72,-86,-45,9,152,464,916
79,-312,-113,-68,-30,15,49,156,424,808
-154,-82,-35,-80,17,72,52,89,325,520
-328,82,91,-1,34,54,26,-10,118,295
-154,67,-3,-85,-79,-124,-123,-170,-144,-88
53,-32,-113,-200,-195,-247,-170,-107,43,-9
-45,-184,-200,-212,-195,-185,-80,57,186,-54
-459,-308,-180,-61,-62,-44,28,38,-258,-871
-665,-251,83,418,179,57,13,-134,-617,-1191
-523,-189,247,869,378,136,27,-180,-614,-929
-188,-230,176,716,367,167,68,-120,-446,-380
228,-242,-12,247,208,101,19,-59,-166,484
551,150,83,-72,93,113,41,34,56,1084
422,443,216,-190,6,119,47,64,182,1045
18,206,100,-88,-48,61,24,125,298,617
-221,-46,-203,-109,-7,76,100,303,460,10
-581,-137,-137,-130,123,185,234,361,204,-1193
-356,3,110,-3,210,227,227,156,-322,-1448
487,307,109,-145,-15,-29,-82,-185,-460,-377
581,343,-20,-273,-235,-238,-309,-313,-293,109
-104,54,-69,-211,-172,-151,-155,-135,-42,8
-355,-152,-77,-122,-61,-23,6,24,154,57
-28,-36,-24,-88,-49,2,43,54,221,210
181,105,25,-84,-107,-75,-35,-76,-7,-67
258,96,-14,-135,-148,-149,-100,-183,-253,-264
329,61,-34,-151,-151,-157,-106,-181,-308,-54
78,1,-31,-97,-99,-117,-79,-143,-276,-57
-21,28,8,-47,-52,-96,-89,-121,-136,94
145,53,20,-53,-61,-93,-81,-75,77,548
258,91,86,75,39,8,17,-22,69,468
237,65,155,319,189,107,71,-31,-85,270
61,-194,6,389,261,151,122,56,33,247
-369,-583,-161,256,182,107,129,156,160,-258
-526,-417,-192,30,-50,-91,-69,0,3,-695
-34,238,-119,-261,-190,-147,-113,-75,-13,-325
43,230,-165,-347,-158,-30,58,92,164,2
-262,-40,-98,-126,13,122,177,170,95,-252
-376,-280,-112,55,188,293,318,282,113,-308
-315,-85,-45,167,253,284,271,197,74,-89
-106,106,27,136,146,68,37,-9,22,358
26,73,97,5,-22,-52,-51,-26,155,551
62,64,125,-153,-144,-90,-6,93,414,556
15,59,66,-105,-147,-98,-16,91,292,293
-40,145,158,34,-54,-49,-26,23,71,39
-206,125,236,189,39,15,-13,-46,-107,-84
-170,-7,138,283,11,-98,-162,-199,-323,-254
127,36,55,363,-30,-191,-275,-258,-346,-303
-82,-15,-17,341,44,-76,-159,-105,-219,-580
-155,-112,-3,145,25,-23,-55,-57,-197,-590
151,-48,100,106,-47,-59,-52,-100,-242,-411
244,46,146,41,-41,-21,-19,-76,-276,-426
265,91,-10,-151,-43,21,15,-12,-134,-16
-42,106,135,-15,74,149,104,116,117,131
-208,137,158,-95,93,188,145,172,176,-99
-63,45,-63,-249,53,170,167,223,224,60
202,-8,-194,-50,159,163,130,228,299,605
468,165,-74,-49,55,9,-27,34,131,651
444,255,98,-168,-141,-175,-196,-138,-143,149
499,-71,-100,-223,-192,-226,-249,-99,66,590
949,-322,-421,-363,-319,-355,-366,-99,470,1628
1299,-118,-408,-485,-515,-588,-653,-340,425,1763
783,135,106,-76,-382,-570,-685,-472,126,925
-207,83,379,366,-12,-224,-349,-292,-121,-151
-1304,-27,243,341,380,288,176,-14,-492,-1622
-1660,-76,191,348,601,496,399,-12,-842,-2354
-854,-38,117,87,430,398,391,-9,-569,-1303
-183,-38,13,-131,201,253,323,76,-91,-282
43,29,-6,-5,137,156,214,67,36,-47
31,57,16,96,85,79,125,22,-50,-98
-352,-28,153,54,32,9,90,40,-129,-288
-498,-126,-43,-104,20,20,176,155,-67,-376
-356,-229,-259,-199,-28,60,267,330,161,-107
-165,-188,-330,-278,-59,44,206,333,288,203
151,47,-172,-23,9,-26,15,127,123,346
190,105,34,315,143,-5,-33,33,-44,202
62,52,-15,141,67,-15,-39,74,117,269
56,10,-151,-193,-101,-47,-69,149,455,459
151,55,-45,-248,-106,-32,-23,243,655,488
353,78,39,-191,-71,-5,30,292,720,690
524,144,48,-46,-102,-102,-53,179,629,885
506,201,125,130,-75,-153,-179,-52,150,457
380,149,-48,25,-59,-112,-180,-172,-290,-104
79,57,-298,-99,12,13,-44,-120,-401,-280
-180,-27,-163,134,187,159,50,-54,-295,-239
-304,-14,269,338,205,117,-54,-170,-422,-718
-402,-53,241,493,235,19,-203,-354,-689,-1288
-388,-38,98,567,293,49,-116,-274,-573,-1182
-310,-127,-131,243,115,36,11,-12,-156,-570
-48,-165,-111,-247,-121,-34,116,266,360,268
485,17,64,-618,-237,-13,187,411,727,1019
1065,147,-43,-691,-316,-117,39,267,771,1637
876,104,-108,-414,-209,-106,-39,129,557,1312
-457,1,49,59,114,139,155,108,66,-351
-1107,-131,234,330,268,244,216,3,-417,-1277
-571,-88,214,199,82,60,4,-214,-607,-842
-153,-322,-261,-48,0,90,-32,-168,-341,-111
-12,-154,-122,-299,-205,-50,-133,-129,-114,124
27,26,177,-166,-222,-194,-218,-90,51,240
118,-13,-163,-145,-100,-102,-73,36,87,202
224,161,-29,-119,-69,-83,-18,28,-48,-54
216,228,159,-97,-46,-20,8,44,-76,-83
84,93,113,42,7,51,74,126,55,76
-225,-69,246,327,64,-23,-35,57,136,181
-407,-113,222,316,128,-19,-15,3,52,-46
-231,-1,66,53,64,-12,20,-21,-52,-199
75,60,-55,-192,-11,12,91,42,52,58
69,-68,-165,-225,-14,72,176,144,234,380
25,-73,-120,-110,-7,74,165,125,201,397
21,-6,39,29,50,90,129,73,66,252
260,151,241,133,113,85,31,-46,-87,379
518,233,181,120,84,20,-79,-121,-72,585
566,127,-15,-16,2,-41,-108,-90,108,662
281,-17,-153,-83,-40,-66,-85,-38,177,288
-214,-274,-171,-30,-52,-65,-50,29,128,-496
-337,-183,53,316,21,-83,-121,-90,-152,-1049
-43,97,143,337,-33,-189,-258,-269,-315,-774
-41,16,-54,108,-58,-148,-190,-194,-212,-370
-30,-106,-293,-165,-172,-148,-105,-7,123,237
58,-78,-401,-431,-258,-107,-39,91,338,768
142,-32,-233,-420,-262,-124,-101,-33,193,753
174,-15,-47,-245,-244,-160,-146,-58,201,526
59,-58,-51,-69,-168,-130,-102,-6,221,319
133,13,-47,-42,-92,-51,-17,33,161,219
368,32,-96,-158,-121,-24,30,104,180,347
536,48,-18,-117,-69,49,99,225,319,376
714,245,112,42,55,113,160,258,467,268
-185,205,179,313,303,315,295,225,27,-705
-1160,93,312,487,484,464,375,66,-685,-1858
-1084,68,365,378,352,285,179,-197,-964,-1627
-359,73,177,175,136,71,-29,-315,-755,-502
-41,-27,-4,93,66,55,-10,-170,-325,179
-53,-168,-157,2,30,59,57,41,118,432
-162,-212,-103,3,-25,9,40,81,265,435
-17,19,113,55,-83,-78,-58,-49,119,262
91,145,107,-28,-94,-80,-32,-49,9,-46
-246,-45,-39,-9,23,47,87,-31,-248,-715
-389,-197,-117,35,35,43,82,-89,-404,-977
-74,-162,-126,-9,-44,-40,31,-99,-255,-338
297,-75,-123,-149,-155,-163,-79,-126,-16,533
125,-36,-28,-114,-115,-127,-43,-77,117,626
35,58,9,-77,-94,-102,-56,-74,114,382
-51,57,12,-33,-68,-79,-68,8,245,181
-338,-57,51,112,80,64,38,97,124,-576
-306,-35,101,206,126,50,23,-30,-141,-1000
-213,29,113,191,84,-26,-71,-160,-284,-861
-222,2,129,274,115,-15,-66,-107,-164,-473
-95,-27,84,518,208,36,-3,-1,-13,-156
-43,-44,20,696,278,62,10,30,48,-10
-196,-183,213,875,232,-50,-105,-77,-81,32
-191,-383,-63,537,31,-188,-194,-181,-151,243
140,-263,-406,-406,-271,-185,-102,-55,84,532
488,-116,-451,-1024,-392,-86,60,153,368,722
954,-28,-371,-935,-337,-19,143,286,606,1203
1374,450,-46,-645,-353,-179,-99,21,352,1355
1119,570,88,-311,-229,-198,-201,-154,74,1118
280,290,95,-58,31,78,77,70,71,425
-292,-54,-137,-42,69,150,186,171,-23,-219
-230,-134,-191,-59,-39,29,73,95,-26,-418
-437,-182,-107,114,28,44,57,48,-97,-863
-664,-344,-163,172,133,168,124,100,-10,-682
-574,-373,-125,20,123,225,96,64,62,-252
-478,-112,113,-39,122,209,-4,-98,-258,-531
-577,301,376,182,266,156,-55,-290,-692,-1039
-300,361,229,51,132,-6,-61,-247,-503,-556
271,331,154,-32,-154,-247,-199,-255,-193,261
474,152,72,10,-183,-290,-233,-194,107,739
349,-11,-51,56,-105,-179,-103,32,533,966
31,-108,-81,76,-43,-67,28,238,769,910
-468,-259,-146,-84,44,141,251,443,816,747
-641,-344,-143,-80,248,382,447,547,552,167
-285,-111,47,111,318,364,341,242,-224,-727
383,-24,5,135,183,138,64,-90,-520,-330
529,-79,-67,190,127,3,-87,-219,-398,55
133,-56,-64,182,24,-61,-117,-212,-324,-342
-654,-94,184,216,35,26,24,-82,-341,-1078
-871,-88,581,349,84,48,73,-49,-377,-1307
-219,70,364,-60,-126,-49,12,-45,-213,-684
65,-21,-179,-407,-145,18,88,76,8,-153
-46,-27,-329,-283,49,170,196,146,7,-77
10,319,-108,-183,63,128,131,71,-18,100
256,343,42,-159,37,72,55,6,-25,346
437,225,-24,-162,-9,22,3,-24,26,507
413,135,-106,-196,-68,-6,12,64,225,626
350,121,-22,-46,-55,-53,-34,79,408,680
51,-34,71,168,8,-57,-70,61,406,394
-148,-143,24,82,13,-9,-17,105,250,-63
0,106,72,36,3,-37,-72,-19,-31,-296
-136,41,84,89,66,3,-103,-157,-318,-367
-482,-201,-54,95,165,189,1,-143,-400,-459
-287,-84,-93,67,98,157,-41,-173,-364,-281
148,-2,-29,212,-2,-103,-211,-232,-228,151
321,-17,129,676,46,-243,-278,-234,-103,239
164,-153,19,782,68,-256,-253,-181,-46,-30
-214,-396,-306,229,5,-181,-158,-88,-62,-301
-244,-257,-86,-334,-134,-76,19,81,75,7
145,47,73,-516,-157,52,174,207,313,654
566,223,-120,-374,-109,43,131,135,468,1218
501,200,-94,-175,-156,-70,-6,41,344,878
246,133,133,-23,-168,-179,-143,-79,5,88
19,98,220,-30,-131,-171,-159,-166,-264,-417
-86,14,-10,-214,-117,-117,-113,-114,-201,-328
-53,-108,-229,-266,-83,-57,-39,9,1,-27
102,-83,-314,-316,-75,-21,7,124,184,318
110,70,-115,-193,-28,11,46,154,214,336
106,210,230,-52,13,44,62,114,82,61
242,252,226,-2,-18,-10,4,-7,-75,2
247,121,101,55,-40,-63,-50,-81,-122,41
321,22,-66,-145,-94,-85,-23,-14,-6,199
507,16,-115,-204,-83,-50,36,70,150,590
507,-58,-87,-126,-13,23,97,138,219,643
86,-211,-31,35,108,134,197,236,273,243
-265,24,133,242,165,133,138,165,238,-89
-594,44,136,317,231,160,145,156,170,-599
-815,-160,76,335,297,217,194,136,-31,-1065
-594,-140,60,188,218,129,87,0,-224,-982
-240,-79,54,-35,50,-12,-41,-71,-143,-550
183,6,-10,-250,-131,-104,-134,-108,-90,46
560,118,-177,-427,-306,-231,-250,-250,-314,246
139,36,-156,-238,-149,-95,-104,-212,-408,-72
-178,36,-1,18,37,36,6,-177,-425,-263
39,93,126,121,0,-51,-68,-188,-274,23
582,154,4,22,-117,-138,-105,-112,99,736
866,178,-18,-131,-181,-173,-85,-43,272,934
491,108,63,-168,-131,-91,3,15,130,392
-311,-168,-155,-145,12,126,208,212,103,-209
-852,-247,-214,7,30,125,189,205,42,-464
-778,-108,24,37,-52,3,14,94,43,-227
-441,-63,98,16,-40,-14,-36,94,210,330
8,18,87,-30,-93,-98,-129,33,328,783
242,123,11,-107,-133,-115,-119,22,263,585
197,215,17,71,43,-3,-82,-67,-62,13
97,279,208,244,133,42,-33,-153,-186,-71
-61,155,148,129,59,33,23,-60,-79,-52
-448,-96,-162,-25,24,75,110,72,-45,-460
-431,-122,-157,157,179,195,245,169,-1,-465
-165,-59,-31,143,169,208,267,170,34,-214
-68,-26,1,-27,36,107,191,139,90,-149
-21,13,31,60,7,27,110,99,44,-275
-73,-27,85,208,128,99,142,85,-158,-464
41,26,129,191,98,54,28,-98,-409,-434
267,152,144,3,-138,-169,-230,-366,-637,-499
189,68,75,-139,-173,-148,-176,-262,-392,-278
256,36,51,-79,-107,-59,-90,-72,59,164
-98,-85,-58,-33,-69,-53,-59,50,130,-508
-419,-150,-113,48,36,21,2,65,26,-794
-433,-111,1,87,84,71,15,-12,-178,-736
-106,-139,-24,50,-4,-16,-57,-77,-166,-93
88,-129,-62,62,-45,-65,-105,-119,-130,284
39,-27,89,305,76,13,-72,-156,-190,150
88,111,253,468,202,118,26,-89,-204,78
64,73,123,210,144,111,62,-30,-188,31
87,39,-14,-72,-17,3,-29,10,-29,186
234,133,-11,-215,-120,-34,-53,86,226,441
105,-13,-121,-192,-128,-51,-43,128,347,419
46,-102,-42,74,-72,-77,-84,56,266,391
164,-47,55,0,-92,-100,-121,-30,122,338
196,-7,-67,-291,-157,-115,-120,-51,51,106
204,94,43,-245,-127,-96,-92,0,119,-33
105,29,98,-7,-26,-37,-40,19,139,-155
104,-88,-15,89,-63,-121,-127,-47,124,-26
319,-140,-184,2,-130,-189,-148,-36,207,361
578,-74,-181,-12,-70,-93,-58,63,319,722
801,101,-95,-46,-52,-57,-35,83,306,820
549,150,-90,-184,-130,-118,-86,-40,83,508
231,23,-130,-382,-178,-88,-64,-62,67,512
-252,-324,-294,-498,-74,128,204,237,315,657
-549,-95,57,-151,189,322,420,393,300,216
-669,294,248,167,303,340,384,272,16,-513
-656,172,157,213,248,248,257,125,-126,-692
-401,72,143,171,181,209,189,128,89,-309
-323,122,363,448,240,170,116,71,130,-339
-270,137,453,500,191,58,12,-61,-115,-571
-143,53,59,50,64,47,35,-83,-266,-457
-112,-27,-129,-142,-2,86,84,-13,-230,-299
-281,-219,-124,-175,-35,79,72,-8,-339,-592
-183,-256,-6,-103,-47,27,-29,-89,-401,-626
667,99,47,-213,-192,-183,-286,-251,-270,178
1367,148,-167,-389,-325,-313,-395,-209,85,1018
1619,139,-265,-437,-435,-424,-468,-179,334,1341
1076,321,-72,-281,-332,-345,-403,-156,304,731
-707,119,88,3,-1,-2,-56,27,97,-684
-1625,-115,199,239,277,296,236,180,-47,-1147
-1288,-88,314,354,360,334,237,91,-257,-989
-873,-53,266,329,289,238,153,-60,-518,-966
-553,-114,53,240,164,121,67,-127,-523,-636
-363,-173,-36,246,108,45,-21,-142,-422,-376
-69,-178,-156,119,23,-40,-92,-124,-185,62
145,-99,-156,-110,-78,-79,-96,-36,102,429
76,-53,-98,-186,-25,21,13,120,308,481
-45,-107,-136,-173,31,106,119,244,415,473
-130,-184,-112,-98,33,102,120,266,459,466
-99,-164,133,293,73,-28,-101,34,227,371
116,-46,94,370,64,-113,-232,-205,-132,87
265,-68,-293,-53,-106,-107,-146,-139,-132,97
320,93,-238,-282,-198,-126,-103,-73,4,259
334,303,-84,-99,-31,-26,-34,-57,7,205
395,275,60,152,46,-14,-30,-125,-71,195
457,164,423,752,136,-103,-166,-250,-95,365
605,86,398,878,163,-163,-232,-289,-92,560
552,-93,-275,185,-30,-176,-153,-144,-28,459
-96,-174,-255,-96,-104,-124,-51,-32,-105,-208
-620,-93,113,-235,-7,141,246,262,147,-541
-696,-219,-133,-404,19,288,487,579,573,-399
-618,-295,-173,-274,93,300,475,562,469,-497
-409,-228,-120,-75,196,310,392,434,224,-306
109,-20,2,-165,53,194,241,335,277,504
417,102,52,-291,-130,-1,31,134,119,636
291,228,123,-213,-175,-134,-133,-50,-109,52
253,239,115,-97,-97,-114,-128,-75,-188,-239
262,164,50,12,16,3,-38,-59,-297,-352
238,103,-9,48,25,-4,-37,-113,-347,-282
-230,-13,-7,54,68,43,0,-87,-307,-442
-573,-93,46,-14,81,103,69,11,-144,-643
-366,1,65,-67,59,68,67,25,-3,-466
-204,2,49,90,102,52,37,-41,-40,-230
-6,24,73,117,93,41,-15,-87,-82,-37
273,123,95,-49,-56,-72,-87,-74,84,248
197,37,251,150,-61,-92,-102,-24,218,343
75,-6,234,314,15,-89,-130,-98,117,243
142,-63,-137,92,-15,-120,-177,-135,68,380
417,-165,-460,-162,-22,-46,-48,9,188,722
606,-68,-300,-161,10,-3,56,74,240,804
701,276,10,-218,-130,-168,-92,-76,115,645
509,174,-190,-494,-264,-169,-89,-3,182,451
-178,-183,-210,-373,-190,-58,43,104,122,-238
-624,-258,-87,-161,-37,24,108,91,28,-636
-529,81,130,-8,27,-1,36,-85,-191,-598
-184,186,117,53,61,1,21,-149,-328,-494
23,53,-47,3,37,3,60,-38,-178,-239
69,88,73,44,44,2,43,15,-21,-62
-51,99,110,126,81,21,51,12,-2,-77
177,56,-33,59,30,-11,40,40,117,290
632,124,-126,-49,-48,-66,-12,41,284,830
956,241,22,-87,-134,-167,-126,-17,389,1278
1017,299,55,-132,-156,-169,-130,33,574,1550
448,221,5,-155,-131,-69,-32,104,395,792
-362,-30,-10,-20,13,49,69,68,-132,-547
-646,-236,-59,118,154,156,158,29,-494,-1218
-735,-274,-21,124,178,165,169,-2,-557,-1358
-609,-55,205,219,213,162,155,-12,-401,-1094
-459,-23,164,184,199,131,115,-55,-395,-891
-451,-163,27,84,109,67,52,-88,-331,-669
-294,-44,30,75,46,0,-33,-100,-200,-288
99,221,114,43,-33,-103,-146,-187,-150,103
410,313,115,-78,-100,-141,-161,-207,-130,306
204,145,39,-39,-35,-21,-57,-94,-111,106
-196,-238,-105,77,100,145,98,123,140,106
-213,-314,-175,71,89,142,103,165,311,324
-246,-189,-117,-31,36,83,77,142,303,367
-293,-168,9,-26,11,-6,13,43,168,161
-257,-85,137,68,0,-74,-78,-55,28,-36
-205,-38,13,84,3,-51,-61,-32,1,0
-185,-55,39,484,110,-35,-96,-112,-110,-158
-132,-106,80,744,186,-17,-135,-177,-322,-522
-5,-175,-111,228,72,26,-50,-99,-298,-428
233,-30,-32,-267,-67,37,8,21,60,239
462,293,209,-152,7,98,84,172,450,781
349,264,223,294,137,119,71,211,548,784
184,49,66,463,137,53,12,151,485,609
-128,-174,-90,51,-15,-18,-5,91,323,290
-316,-207,-89,-106,13,50,55,69,54,-203
-235,-120,-229,-459,0,175,170,113,-104,-428
80,18,-196,-625,-187,34,52,-21,-235,-226
538,125,-154,-574,-341,-182,-101,-130,-45,458
665,156,-65,-440,-366,-266,-208,-167,23,649
554,128,-16,-417,-337,-218,-195,-122,-15,486
-19,11,1,-282,-92,34,69,40,-7,-147
-588,-9,113,59,188,212,217,34,-290,-1101
-663,43,195,320,282,231,149,-85,-533,-1339
-515,2,114,259,236,210,136,-41,-435,-994
-305,-34,-8,74,132,166,138,47,-161,-436
-52,47,2,-11,25,16,-36,-60,-124,-54
109,123,-34,-52,-32,-43,-81,-122,-98,152
143,97,-20,-65,-36,-32,-64,-114,-105,75
184,42,-4,9,21,5,-44,-76,-15,126
235,81,34,90,48,1,-45,-90,-37,258
247,75,77,206,-43,-156,-182,-195,-105,395
137,-5,63,136,-175,-258,-258,-198,-36,450
68,-63,-94,-124,-186,-153,-131,-46,139,531
44,-199,-332,-31,-74,-23,-8,75,218,450
37,-323,-358,69,68,120,151,208,233,239
98,-232,-317,-97,4,81,148,182,57,-195
285,43,65,-24,-101,-70,-25,26,-47,-266
486,96,180,-62,-131,-69,-40,88,197,205
483,-38,-11,106,-62,-21,6,170,388,510
340,100,2,295,-20,-47,-58,78,257,390
175,202,25,57,-79,-96,-122,-70,-25,237
69,140,113,-70,-15,5,8,23,111,402
-455,-47,10,-73,66,132,186,187,191,-57
-635,132,47,-154,-45,21,68,21,-68,-370
-133,356,172,-216,-177,-113,-89,-95,-31,79
138,177,35,-301,-202,-96,-56,41,225,484
5,69,2,-204,-100,-8,55,143,262,199
-492,-98,-26,-68,69,152,228,211,46,-612
-578,-206,-87,-74,78,166,203,124,-196,-803
-231,-128,-42,-71,9,37,34,-92,-411,-524
-7,-83,4,75,-12,-77,-86,-202,-430,-386
-28,-101,70,222,21,-83,-93,-197,-338,-508
30,-72,56,170,-12,-75,-92,-215,-346,-544
-27,-87,-94,-41,-69,-54,-72,-198,-319,-396
-168,14,78,-19,-43,-30,-23,-126,-172,-168
-216,48,267,287,114,93,107,36,39,-22
-293,-42,248,547,255,197,215,167,162,36
-168,95,336,575,240,123,155,105,138,124
-62,104,311,190,80,-1,58,-13,53,55
0,-15,52,-252,-21,27,90,55,107,113
217,33,-129,-501,-96,62,135,150,225,280
194,108,-79,-354,-90,51,121,133,194,153
-62,106,101,75,47,5,21,3,51,-112
2,101,181,281,48,-81,-92,-56,86,-12
282,13,-21,140,-66,-157,-142,-15,352,565
780,-73,-212,0,-197,-245,-207,50,742,1641
1101,-62,-267,-92,-237,-277,-222,73,872,2197
1275,7,-320,-310,-289,-293,-232,-35,654,2000
1348,206,-221,-442,-302,-272,-226,-126,384,1560
541,299,-59,-317,-144,-83,-74,-62,45,242
-386,231,-14,-136,-16,18,-11,-87,-390,-835
-1168,44,65,97,147,149,106,-103,-772,-1584
-1430,-218,13,259,240,217,212,-13,-640,-1485
-1217,-327,-59,437,294,234,189,-13,-517,-1355
-942,-348,-77,488,298,191,101,-142,-755,-1673
-716,-376,-40,458,303,130,45,-192,-793,-1545
-459,-379,-32,415,236,75,-19,-137,-583,-998
-80,-203,38,72,14,-31,-76,-56,-276,-381
131,37,87,-280,-140,-103,-127,-52,-60,-34
167,184,189,-216,-122,-95,-94,0,114,101
272,129,120,-210,-138,-56,29,129,237,165
115,-265,-248,-294,-83,92,247,349,409,137
-5,-265,-291,-201,23,118,231,299,367,86
330,281,-29,-77,52,-8,11,21,133,125
509,379,-4,-185,-55,-115,-95,-82,19,220
520,274,9,-261,-98,-79,-22,25,122,566
268,140,51,-202,-48,-2,71,143,247,579
-221,-87,-14,-82,34,77,138,233,408,345
-150,-77,-84,-87,15,58,106,208,444,387
167,153,-13,-147,-120,-120,-119,-7,165,127
-31,168,97,-24,-13,-46,-101,-86,-164,-412
-165,63,102,63,114,73,-9,-120,-345,-460
-43,-98,10,7,100,59,-3,-89,-195,10
146,-248,-133,-50,15,3,-36,-8,60,432
169,-369,-251,-24,-46,-47,-75,7,100,380
-42,-207,-158,15,-20,-2,-9,63,34,17
-370,26,-2,31,34,50,39,52,-90,-341
-382,156,82,36,23,-6,-66,-140,-317,-565
-189,215,147,123,51,-51,-134,-233,-409,-621
-67,99,71,93,44,-35,-102,-129,-226,-314
43,22,29,37,1,-54,-104,-81,-92,-23
95,45,78,101,-15,-96,-116,-112,-77,65
226,96,38,197,22,-76,-64,-101,-35,133
342,68,-113,118,12,-50,1,-42,41,187
424,-32,-208,-88,-49,-63,-20,-5,134,293
294,-22,-63,-101,-29,-30,-36,25,225,319
-49,-27,-36,-93,0,45,28,95,233,227
-191,-80,-99,-172,-84,-22,28,72,201,320
83,-33,-139,-226,-214,-144,-65,55,322,795
472,94,-118,-173,-206,-169,-128,4,374,1148
596,147,-41,-180,-204,-170,-135,14,417,1120
218,69,4,-70,-80,-27,-19,117,391,509
-314,11,85,110,126,169,116,187,286,-157
-594,-71,105,180,202,245,188,243,249,-257
-576,-159,85,187,208,247,190,203,79,-272
-382,-142,93,182,189,211,119,14,-327,-551
-76,-98,39,114,96,126,27,-115,-470,-506
95,-47,40,117,87,107,10,-93,-319,-281
56,-78,41,150,104,113,36,-42,-222,-286
-29,-60,24,130,60,38,-15,-88,-287,-518
16,55,-11,13,-80,-99,-111,-118,-255,-448
-160,119,62,21,-70,-64,-33,0,-117,-384
-321,56,92,120,2,19,63,35,-144,-513
-75,0,7,176,46,38,74,0,-166,-357
244,23,-55,164,65,32,61,4,-78,-47
531,144,169,331,26,-89,-77,-60,60,370
578,192,224,296,-89,-234,-217,-147,181,608
298,7,-119,-120,-183,-227,-163,-74,298,565
331,19,-248,-372,-202,-87,5,125,489,823
296,115,-60,-384,-138,20,119,248,594,912
-226,49,139,-171,-16,63,142,145,199,-5
-922,-172,68,-13,141,176,222,68,-357,-1191
-1082,-204,13,48,196,198,224,-17,-611,-1511
-528,-82,75,49,93,74,76,-104,-425,-801
-43,7,70,-5,24,26,24,-74,-148,-122
114,102,71,-27,10,3,11,-29,10,91
19,34,16,-44,7,28,55,37,126,157
-77,-66,-32,-51,0,16,62,53,80,82
2,-72,-35,-2,-5,-27,11,4,25,158
257,-28,-49,88,0,-65,-43,-46,95,582
606,45,-78,29,-82,-169,-167,-157,144,1063
705,-6,-104,-147,-199,-242,-266,-203,173,1313
532,-19,-58,-213,-212,-215,-215,-147,188,1005
14,-10,24,-138,-119,-104,-120,-140,-104,-225
-478,-81,78,-30,-11,5,-40,-132,-411,-1332
-331,-8,89,-43,-33,9,-35,-99,-374,-1206
301,111,-19,-169,-159,-117,-103,-70,-120,-358
824,202,-74,-195,-209,-170,-124,-3,195,569
694,155,-90,-148,-154,-115,-22,91,349,798
-18,17,57,286,161,123,190,158,237,331
-554,-112,222,773,390,262,244,69,-13,57
-394,-168,152,703,309,189,181,33,-29,62
-36,-214,-93,90,50,68,132,125,66,-33
-48,-232,-194,-104,78,148,183,235,112,-215
-514,-133,-37,-1,284,389,337,366,60,-803
-1268,-173,109,185,351,435,353,297,-208,-1477
-1015,-142,112,215,250,234,114,15,-450,-1231
-335,-5,21,-66,33,12,-106,-205,-467,-695
26,51,-20,-220,-107,-87,-191,-228,-307,-249
84,54,-24,-238,-84,-29,-116,-123,-128,-29
24,-25,-81,-166,-41,49,-36,-37,-4,50
28,-95,-158,83,38,50,-15,-7,74,129
109,-125,-159,321,115,34,0,-7,88,314
201,-83,-53,480,174,-1,-48,-81,3,483
-107,143,168,-356,-159,-146,-144,-111,-97,-628
221,264,67,-379,-176,-147,-156,-116,5,-104
543,99,-137,-366,-212,-127,-99,-3,278,651
746,42,-122,-250,-273,-217,-141,24,491,1089
867,173,-12,-190,-296,-268,-151,59,626,1159
692,257,-5,-290,-278,-192,-92,143,641,868
547,178,-42,-301,-197,-32,-62,128,489,562
400,24,-63,-180,-46,142,-1,96,341,412
194,-129,-113,-97,56,200,42,93,266,552
-110,-81,-59,55,207,157,59,45,94,494
-768,4,103,265,191,0,11,-66,-197,-134
-1060,-169,271,512,43,-220,-135,-182,-381,-534
-868,-379,148,723,35,-298,-315,-370,-687,-1048
-525,-425,-269,422,-1,-199,-245,-321,-792,-1446
34,-180,-584,-384,-123,9,78,-50,-566,-1053
230,32,-186,-466,105,279,368,199,-224,-469
124,143,143,-120,312,401,468,334,36,-118
-75,307,125,-221,62,142,196,118,-42,-186
-104,277,101,-158,-52,-48,-78,-139,-144,-115
-142,-3,159,81,47,49,-48,-71,58,248
149,70,210,77,41,74,2,27,255,643
565,230,120,-44,4,-25,-32,17,236,702
808,219,50,-57,-58,-137,-44,61,301,785
493,117,42,107,-34,-141,-41,82,327,609
-262,-75,-69,299,133,43,72,115,196,-73
-618,-220,-177,141,130,100,107,24,-162,-732
-584,-232,-47,-36,-6,-21,-17,-185,-602,-1125
-63,-24,144,-23,-83,-110,-94,-180,-480,-714
394,87,21,3,-87,-105,-46,-20,-48,48
577,167,72,61,-101,-129,-50,9,203,561
105,77,286,73,-67,-80,1,17,133,327
-447,-214,86,146,41,25,103,77,49,81
-213,-269,-298,208,94,31,47,61,172,486
127,-243,-358,151,33,-71,-81,26,339,914
232,-320,-303,-111,-70,-105,-88,81,436,961
142,-27,-90,-302,-74,-13,9,115,244,445
47,437,319,-154,60,128,124,91,-60,-212
-264,245,250,-39,141,215,223,133,-171,-680
-263,113,160,22,104,107,81,-41,-329,-614
113,139,17,-53,-54,-83,-145,-218,-285,-205
307,83,-70,-165,-142,-173,-227,-179,-57,-49
206,14,-70,-168,-148,-160,-230,-129,-5,-184
-176,-71,-67,-110,-61,-68,-141,-91,-121,-528
-545,-140,-34,-28,65,76,12,5,-167,-632
-600,-134,45,71,118,87,61,6,-185,-562
-301,-27,93,75,99,88,120,2,-145,-360
-35,37,73,59,75,91,160,36,-61,-85
147,82,74,69,45,59,139,23,-25,220
285,136,86,98,58,47,92,2,39,502
193,102,96,289,163,60,66,-6,40,488
152,58,166,574,202,27,-13,-40,50,456
280,38,203,468,62,-93,-142,-75,135,595
257,-4,18,23,-113,-169,-204,-99,51,240
225,63,-30,-301,-187,-112,-98,1,-13,-248
357,192,-133,-592,-275,-87,-31,76,99,-73
160,136,-170,-455,-249,-103,-46,117,284,36
-224,-113,-143,-194,-109,-17,6,199,391,-86
-316,-323,-167,-27,-12,53,78,232,406,5
-168,-118,-96,1,-29,0,5,124,307,224
-198,-12,-23,-9,-43,-3,-5,51,197,349
-149,-103,90,91,38,58,88,54,153,587
85,-18,87,75,8,-15,-17,-117,-69,498
52,-11,2,115,57,-57,-87,-271,-431,-203
-184,-95,-59,175,227,159,134,-81,-458,-602
-316,-40,102,108,216,239,244,65,-325,-496
-123,74,258,85,106,127,165,77,-92,-71
-171,-103,73,-9,27,93,160,130,64,-59
-319,-197,-62,-120,19,134,180,129,-48,-556
-245,-41,59,43,82,117,89,-50,-319,-709
11,119,103,28,18,6,-57,-206,-399,-394
217,192,79,-85,-95,-120,-135,-230,-279,-71
104,117,10,-131,-137,-135,-120,-141,-79,12
-69,-5,-78,-108,-81,-71,-61,-27,48,47
-2,-56,-165,-87,-71,-77,-92,-20,96,194
99,-84,-180,-89,-132,-156,-184,-53,167,407
282,-34,-12,-69,-172,-188,-238,-73,254,637
536,92,-31,-134,-163,-150,-163,-48,301,749
928,232,-109,-211,-210,-177,-149,11,488,1168
1217,324,-40,-183,-236,-205,-149,65,688,1475
1025,346,94,-48,-95,-95,-24,160,735,1254
71,160,172,216,178,148,168,237,465,297
-881,-87,213,546,427,322,245,117,-165,-691
-850,-171,306,797,460,222,80,-155,-659,-811
-545,-235,37,627,244,7,-154,-322,-753,-826
-682,-385,-286,55,-18,-18,-75,-126,-528,-1076
-628,-341,-311,-474,-196,-12,11,10,-329,-984
-265,-120,-188,-315,-82,44,35,34,-131,-460
-157,29,30,-8,36,82,40,3,-133,-251
40,50,135,-21,-50,17,-40,-85,-234,7
397,-95,-108,-281,-170,-29,-67,-47,-84,494
552,-59,-193,-400,-184,-86,-99,-16,105,747
541,221,16,-217,-107,-80,-83,18,229,645
-60,224,82,-30,-83,-74,-43,61,208,-89
-845,-124,-13,164,36,25,49,83,-4,-910
-891,-272,-96,169,25,19,43,89,-53,-837
-643,-210,-35,90,-15,-22,21,112,19,-609
-285,-74,34,-45,-32,18,85,192,86,-393
115,90,101,-81,-24,17,67,104,-96,-345
341,254,216,77,115,99,72,-5,-236,-174
300,274,166,21,146,153,111,8,-128,42
155,173,92,-94,40,57,54,-24,-48,164
88,67,17,-170,-90,-82,-52,-80,-1,263
112,12,-63,-198,-149,-107,-89,-35,116,350
238,32,-129,-131,-142,-90,-94,-28,125,361
32,29,-56,23,-21,-26,-31,-9,77,151
-132,20,30,87,60,51,36,14,-16,-97
-142,3,109,128,65,29,24,-31,-161,-255
-33,-3,67,79,28,5,9,-41,-155,-98
120,-18,-54,-68,-24,13,7,-25,-61,159
166,13,-52,-100,-18,36,38,4,-15,167
56,17,1,-4,1,34,45,34,0,24
-88,-65,98,108,35,44,81,69,62,3
-101,-121,142,307,88,24,60,40,74,54
33,-116,53,306,42,-74,-40,-36,99,143
295,-75,-177,-3,-110,-169,-138,-92,125,322
441,-143,-261,-220,-187,-179,-140,-20,227,557
407,-106,-141,-166,-154,-102,-39,102,310,598
165,89,30,59,-44,-33,26,100,224,316
-67,79,161,198,83,72,108,133,297,247
-123,5,182,149,132,147,145,132,299,176
-146,103,190,71,177,241,236,186,185,-57
15,196,141,-8,163,203,224,107,68,-136
243,104,81,88,30,-46,-22,-129,-70,20
309,-106,-89,477,68,-171,-237,-308,-259,85
250,-195,-261,661,141,-112,-255,-331,-439,-157
63,-229,-212,397,21,-183,-305,-386,-501,-352
-1,-83,-65,-222,-161,-154,-171,-195,-262,-284
-4,174,58,-761,-216,68,113,159,130,-106
242,182,-159,-786,-231,66,126,236,330,373
413,246,58,-367,-160,-43,-25,87,285,672
322,124,107,-200,-88,-49,-75,-27,45,392
144,-27,16,-71,-18,1,-31,-53,-223,-183
-282,-64,-7,40,12,12,-62,-109,-381,-674
-637,-72,20,-33,23,70,-2,-56,-298,-805
-669,-56,29,14,65,130,91,32,-172,-692
-677,-149,-101,124,65,103,110,62,-75,-496
-673,-302,-162,151,-7,11,46,48,77,-131
-180,-185,-110,-11,-176,-147,-89,-20,220,313
398,13,-188,-338,-336,-225,-127,-11,314,571
675,168,-169,-371,-239,-142,-65,1,252,655
675,355,60,-85,7,24,9,-57,33,619
276,271,157,133,107,69,18,-126,-157,363
-347,54,274,466,180,60,26,-141,-352,-209
-413,-136,152,451,160,80,118,2,-127,-96
-558,-409,-187,39,98,187,281,246,149,-105
-821,-419,-95,-51,152,267,312,276,41,-789
-646,-164,152,47,231,230,218,88,-276,-1181
-216,24,53,-19,158,129,116,5,-258,-902
10,74,-40,-146,7,9,52,36,-96,-494
144,83,52,-109,-86,-87,-41,59,43,-152
329,0,-118,-197,-151,-99,-66,125,251,237
493,34,-155,-198,-165,-123,-76,109,386,606
554,138,3,-66,-105,-102,-80,75,387,705
327,122,92,47,1,-18,26,85,217,338
68,129,71,30,18,22,81,60,44,5
26,132,91,85,70,85,106,36,-1,170
24,131,123,158,111,77,53,-33,-69,304
-56,49,86,98,49,-17,-94,-177,-309,-78
204,3,12,2,-38,-79,-139,-191,-330,-94
454,-83,-83,-33,-66,-71,-78,-93,-126,272
527,-95,-80,47,-46,-91,-82,-59,30,473
259,149,82,145,-29,-132,-147,-150,-80,68
-620,68,66,105,46,-11,-49,-93,-227,-807
-934,-65,15,52,104,94,35,-15,-233,-959
-537,10,8,-104,24,67,47,45,-43,-406
-251,-11,-23,-103,-17,44,66,57,57,5
108,-48,-76,-39,-76,-67,-40,-2,91,314
399,-21,-168,-111,-148,-147,-115,16,240,553
477,49,-118,-157,-204,-208,-165,-4,301,724
534,101,-35,-111,-187,-218,-164,-14,381,965
446,113,50,125,-32,-106,-85,16,396,881
-1,-41,25,266,143,43,50,71,282,297
-536,-286,-37,245,262,206,185,170,125,-386
-724,-398,26,254,296,304,280,271,48,-554
-313,-121,58,144,148,185,199,208,108,-75
318,100,-52,-111,-67,2,57,94,164,400
486,-173,-183,-274,-148,-10,62,213,409,699
-74,-523,-285,-232,-40,119,214,451,583,472
-739,-367,-170,-128,79,170,189,322,181,-548
-688,27,37,-51,105,98,1,-93,-543,-1259
-161,205,37,-95,54,51,-88,-306,-779,-849
352,319,122,85,-7,-100,-231,-421,-732,-309
511,388,252,211,-6,-146,-239,-400,-604,-213
202,248,220,99,0,-63,-143,-259,-370,-229
-133,148,165,8,-18,-49,-112,-168,-203,-374
-282,32,59,-82,-84,-77,-110,-75,-31,-438
-199,-20,-29,-110,-90,-73,-66,9,74,-341
45,36,-32,-112,-106,-101,-85,19,170,-55
176,45,-34,-71,-76,-78,-41,54,246,116
272,95,47,18,-1,-16,3,50,144,183
389,121,54,-4,-38,-51,-68,-29,2,356
219,30,0,-28,-34,-22,-27,-19,-56,274
49,-30,-77,-21,-33,-7,-16,-38,-123,134
20,-68,-75,-9,-25,-17,-53,-93,-179,-24
-14,-16,58,76,39,-1,-32,-98,-134,-55
-101,52,193,175,92,14,-20,-109,-104,58
-313,-51,248,359,167,73,29,-52,-75,66
-247,-129,97,353,150,65,20,-27,27,223
-11,-79,-83,22,-15,-70,-100,-97,75,228
91,-8,-108,93,-3,-66,-138,-107,35,-25
125,4,-79,193,41,2,-59,-3,139,42
43,-23,-109,-20,-33,6,-24,51,130,-105
-202,-101,-103,-117,-64,15,12,31,-143,-673
-57,-63,-33,-148,-93,-13,-17,0,-205,-587
266,16,-105,-256,-132,-66,-56,14,-5,-30
369,86,-71,-195,-97,-44,-28,70,114,255
161,80,-14,-129,-5,67,84,153,153,276
18,-34,-5,-30,8,17,-34,-48,1,322
282,64,-21,-83,-61,-82,-135,-142,-43,341
551,205,-39,-134,-131,-145,-199,-128,53,402
404,116,-72,-141,-142,-123,-137,-6,189,309
51,-18,-67,-87,-64,-40,-32,107,354,268
-70,-47,-27,3,22,57,69,223,548,560
11,-66,7,120,82,99,106,205,451,529
161,-62,37,289,104,72,78,89,130,90
172,105,109,323,98,30,54,19,-119,-302
-202,74,77,90,73,71,134,-15,-355,-622
-474,-94,-39,-180,-4,60,150,-101,-597,-937
-561,-113,-66,-71,62,100,149,-58,-519,-922
-397,-82,-128,265,249,183,185,67,-193,-513
-268,-35,-153,399,298,177,151,102,-2,-305
-250,16,47,181,147,58,17,-15,-65,-385
-201,-23,94,48,43,10,-29,-26,-31,-234
65,-38,45,210,53,-15,-51,7,149,262
386,70,53,207,-47,-151,-206,-64,223,679
268,42,-60,1,-82,-113,-170,-43,235,772
-183,-82,-38,-68,-31,-14,-43,43,351,746
-160,47,3,-241,-51,68,91,139,396,666
-90,123,-21,-412,-80,142,243,211,352,313
-146,91,16,-355,-18,205,287,178,142,-197
55,97,43,-202,-27,136,143,39,-112,-348
37,0,-36,-125,-32,72,51,-37,-270,-534
-40,-68,-31,-80,-17,10,12,-58,-357,-676
84,9,69,-29,-68,-41,11,-22,-209,-371
223,39,69,-96,-147,-78,11,36,8,68
259,43,-14,-157,-143,-81,-29,41,89,254
-173,-19,-18,-98,-59,-18,8,57,56,-51
-449,-119,-17,-53,-30,1,26,30,-18,-168
-205,-64,-7,-61,-53,-36,-21,-31,-34,46
-17,-68,-36,-50,-4,25,35,5,-11,68
-296,-273,-106,58,152,200,186,124,-3,-227
-456,-209,-16,196,222,227,175,93,-82,-463
-333,83,187,296,213,137,84,-55,-251,-464
-189,136,223,207,162,70,29,-137,-258,-208
7,91,174,75,43,-27,-59,-161,-134,141
126,47,108,46,-5,-62,-91,-76,13,326
180,68,147,230,46,-14,-40,0,102,298
59,104,364,782,193,-14,-79,-84,-29,10
26,56,288,773,165,-58,-101,-154,-216,-157
222,-40,-98,127,-25,-88,-30,-85,-54,173
453,-44,-275,-359,-170,-54,83,79,311,681
357,-75,-256,-400,-104,58,211,200,476,699
14,-19,-148,-290,-45,56,107,76,266,255
-149,109,7,-239,-46,40,3,-53,83,67
44,193,-31,-332,-115,-12,-56,-84,55,192
96,78,-233,-373,-184,-82,-78,-59,76,146
459,65,-165,-230,-196,-211,-91,-115,-143,134
738,131,-122,-208,-222,-238,-150,-143,-63,485
538,107,-51,-111,-90,-103,-80,-50,34,387
-74,0,36,20,56,43,43,76,116,-39
-659,-91,86,107,144,145,126,198,194,-328
-766,-97,102,126,175,179,133,173,103,-400
-420,-9,97,95,105,89,17,13,-141,-429
-87,22,29,5,13,0,-67,-46,-158,-208
22,-34,-10,-10,15,5,-44,17,18,122
-25,26,75,57,63,21,-57,19,62,205
-31,179,227,142,110,-10,-124,-103,-104,43
98,146,178,231,103,-38,-192,-225,-243,55
246,15,39,390,45,-139,-247,-273,-158,243
400,-20,-5,314,-96,-262,-306,-268,32,465
301,-69,-207,-201,-225,-242,-192,-144,94,303
-27,-118,-410,-474,-199,-107,18,-1,23,-143
-193,-19,-208,-198,-5,74,185,119,-7,-414
13,69,-143,-98,34,125,226,171,18,-213
242,58,-77,-149,-72,29,143,148,179,178
209,49,45,-140,-105,-23,48,135,330,342
0,-4,46,-98,-44,47,70,134,178,-140
-266,-16,110,20,105,208,238,200,7,-632
-555,-20,196,141,237,314,333,260,-19,-660
-523,-33,153,137,212,223,194,130,-171,-505
-166,110,141,36,55,30,-31,-78,-343,-262
117,46,48,-67,-70,-101,-158,-199,-374,-7
293,2,-16,-47,-124,-203,-269,-271,-333,149
321,-17,-94,-10,-148,-261,-320,-279,-216,224
341,5,-177,-12,-110,-214,-273,-201,-114,260
77,-33,-134,182,24,-53,-123,-74,-78,3
-507,-160,30,256,127,96,41,95,-18,-300
-667,-183,240,78,13,31,16,102,17,-345
-111,-253,-211,13,-134,-194,-171,4,165,207
12,-233,-366,-186,-87,-70,-12,144,343,488
-18,-97,-138,-272,-27,53,104,157,240,394
61,23,89,-202,108,235,289,209,174,244
194,46,70,-181,152,295,370,269,302,458
175,193,88,-111,70,141,178,89,162,366
161,190,102,-68,9,32,56,-10,36,183
451,126,36,-117,-64,-47,-25,-10,96,456
531,196,51,-71,-87,-98,-96,-57,112,557
163,52,99,0,-8,-25,-20,21,194,386
-32,6,95,37,52,16,-1,71,256,258
-357,-58,70,92,142,112,91,162,205,-97
-525,-101,-12,130,194,155,149,135,-27,-499
-443,-131,-91,97,117,67,38,-46,-334,-888
-301,-108,-7,102,72,18,-5,-126,-415,-977
-120,-77,-23,76,32,2,15,-50,-244,-608
-51,-144,-147,6,-1,-10,26,34,-45,-161
9,4,-12,9,37,35,9,-8,-84,-101
-59,128,156,50,72,70,23,-82,-317,-400
-33,53,139,8,42,35,-9,-105,-314,-311
78,-93,23,19,39,31,-22,-27,-127,32
189,-151,-73,-33,-21,-11,-39,23,30,220
320,-50,-90,-77,-135,-136,-165,-57,-10,151
66,10,25,-17,-67,-80,-100,-40,-100,-256
-276,52,98,-28,27,43,27,31,-99,-609
-494,21,70,28,60,63,50,36,-73,-628
-363,-16,18,69,40,23,12,35,45,-275
-92,-37,-4,35,7,-7,-42,45,154,160
254,-59,44,21,-48,-73,-124,-72,70,484
699,-56,-23,-38,-94,-157,-216,-191,-12,808
1061,139,-59,-121,-157,-226,-305,-285,-94,887
888,224,89,-109,-197,-261,-335,-328,-262,405
533,221,193,-140,-218,-262,-304,-307,-312,41
558,193,20,-268,-218,-183,-187,-167,-97,280
69,58,-65,-242,-160,-80,-27,-2,81,214
-582,-85,-60,-29,-1,5,52,56,83,-179
-534,-193,-117,15,38,39,84,91,112,-59
-433,-213,-75,81,40,35,89,95,170,86
-659,-220,69,395,205,123,141,104,111,-339
-917,-308,107,596,322,192,202,134,30,-842
-690,-347,-127,330,194,124,170,154,109,-562
-199,-140,-152,-68,-8,24,81,99,86,-210
71,46,-26,-160,-45,4,37,52,43,-49
246,136,-4,-123,-16,-15,-13,-7,21,221
269,150,-32,-128,-28,-43,-57,-69,1,433
237,178,66,-102,-68,-73,-127,-113,28,467
391,114,-10,-202,-174,-131,-172,-51,202,636
801,153,-53,-215,-267,-203,-194,17,491,1048
996,251,-23,-133,-225,-181,-176,76,638,1159
610,181,90,315,72,-2,-82,76,418,566
-213,-3,104,483,328,232,98,84,-3,-382
-1037,-306,-102,176,293,266,162,54,-400,-1124
-1018,-312,-42,167,221,238,143,-34,-678,-1344
-508,-112,68,72,110,218,143,-55,-619,-969
-475,-129,-4,213,108,123,62,-154,-604,-939
-502,-145,-13,428,206,56,2,-185,-549,-925
-300,-132,-102,112,42,-29,-45,-125,-353,-603
-40,-68,-117,-227,-132,-80,-56,-61,-134,-159
289,59,-46,-119,-79,-58,-70,-52,36,350
634,155,-14,102,-72,-143,-181,-136,61,773
788,165,-36,23,-180,-280,-293,-207,0,939
800,110,-257,-427,-342,-327,-255,-55,229,1167
650,220,-194,-614,-343,-173,-42,216,581,1215
187,288,-13,-488,-220,-47,55,249,469,507
-296,74,46,-272,-61,99,152,235,243,-295
-615,-138,38,-27,179,293,297,242,130,-678
-458,-110,10,49,203,241,236,169,119,-441
-338,-105,-7,-18,118,117,169,173,210,-248
-180,-38,-14,-99,-31,-25,40,77,97,-356
-34,-26,50,-68,-78,-27,11,0,-39,-175
74,-18,82,-14,0,74,37,-48,-96,115
224,41,26,5,79,125,55,-87,-146,172
314,117,-13,83,84,35,-19,-145,-142,159
116,151,108,155,54,-23,-39,-120,-122,-121
33,125,213,151,0,-57,-29,-86,-105,-339
209,88,171,27,-85,-108,-95,-104,-60,-191
37,-26,-18,-20,-34,-33,-28,-7,46,-106
-52,-47,-59,117,35,11,0,18,68,84
-282,-101,65,242,88,49,-8,-18,-72,-23
-382,-191,2,293,116,57,-3,4,-74,-77
-276,-153,-34,413,171,46,15,19,-5,77
-174,-146,77,364,136,21,3,28,60,252
-20,-62,15,-57,-7,-48,-33,-26,-14,134
184,171,-174,-391,-153,-72,-57,-66,-88,76
255,143,-145,-450,-265,-92,-22,41,141,307
285,61,-15,-374,-281,-117,-6,106,329,380
215,-21,-38,-259,-175,-22,55,143,330,286
-50,-79,-52,-164,-47,88,133,216,375,213
-23,-11,-12,-136,-34,57,99,212,406,223
93,14,-25,-137,-71,0,24,139,333,223
-331,-155,-27,-81,-60,-22,15,32,72,-86
-534,-214,39,20,-59,-85,-70,-127,-229,-336
-259,-69,43,17,-74,-93,-86,-140,-317,-475
-225,-78,-56,-85,-26,24,19,11,-158,-437
-334,-17,155,208,236,212,136,89,-41,-354
-340,18,231,330,433,389,299,116,-105,-440
-232,-143,63,177,336,362,322,118,-132,-214
212,-22,-12,27,91,103,41,-79,-170,301
508,291,37,-77,-134,-178,-246,-248,-176,371
395,193,-33,-121,-173,-196,-225,-122,22,278
250,45,-106,-85,-125,-105,-102,55,259,243
117,-14,-73,-40,-58,-33,-26,112,225,-107
-70,-3,-32,-5,-8,-5,1,21,-114,-661
-162,77,45,93,94,63,66,-34,-309,-793
20,132,12,149,149,101,100,-57,-292,-493
133,88,-41,145,132,73,75,-79,-269,-149
-62,-3,27,151,94,46,49,-108,-271,-21
-380,-12,72,148,95,26,-1,-177,-322,-224
-273,58,100,106,87,-22,-53,-210,-263,-164
-74,131,225,124,105,8,12,-93,-73,16
158,161,236,51,42,-14,21,-36,102,347
