-23,18,53,60,31,47,71,18,10,131
-35,-1,54,48,-4,-2,-1,-37,-39,69
-25,5,43,26,-19,-24,-77,-67,-54,24
-9,13,28,1,-19,-17,-109,-49,-42,22
0,4,22,0,-17,-26,-103,-52,-40,20
0,-8,8,-7,-25,-26,-97,-51,-31,31
-4,-4,17,-3,-9,-17,-86,-43,-9,37
-2,6,17,20,36,-1,-47,-40,70,50
-11,-2,-1,3,25,-18,-53,-30,48,26
-29,-34,-20,-19,-16,-22,-62,-17,-4,19
-26,-65,-31,-12,-12,-1,-50,-1,-2,53
-19,-92,-74,-17,-5,14,-15,23,28,98
16,0,-133,-8,-26,-6,-35,4,22,131
69,87,-35,-2,-50,-33,-71,-30,6,169
85,67,54,13,-32,-13,-31,0,61,249
65,5,14,2,0,14,40,56,152,292
43,-27,5,-13,-7,7,57,59,135,244
53,68,54,4,-26,-19,18,-19,-1,97
18,85,59,3,-14,-17,0,-47,-81,-132
-51,34,35,-8,-2,17,-22,-48,-113,-336
-78,18,35,3,27,37,-3,-38,-106,-321
-66,11,44,19,34,18,1,-36,-79,-169
-62,-12,21,8,10,0,-46,-43,-103,-78
-69,-41,-6,-23,-2,7,-74,-20,-99,-49
-62,-49,-29,-30,7,14,-11,26,-52,-36
-46,-47,-31,-30,5,25,47,57,-37,-36
-19,-14,-12,-32,-5,19,43,31,-34,-50
-22,-4,-16,-36,-7,5,43,18,-2,-27
-21,-33,-33,-41,-10,9,64,45,44,39
1,-14,-20,-26,-15,21,56,49,66,88
57,14,-1,-23,-10,9,-8,14,52,98
49,16,0,-32,-15,-3,-16,23,51,85
29,-3,-15,-38,-14,2,11,32,59,60
23,-13,-26,-42,-27,-11,-26,26,36,-5
9,-26,-34,-32,-23,-13,-45,34,7,-65
-22,-26,-98,-26,-15,-2,-45,24,-25,-127
-39,-7,-60,-15,7,-11,-46,18,-26,-188
-16,26,13,20,28,12,-18,17,-6,-108
-46,5,23,48,61,48,19,23,15,-30
-83,-41,-15,41,47,57,29,19,27,11
-41,-31,-102,24,13,37,9,-19,9,88
39,1,-63,6,-2,-7,-32,-93,-38,123
54,-40,-20,-23,-19,-8,-17,-105,-86,41
56,9,2,-23,-34,-17,15,-106,-130,-66
63,121,45,5,-35,-34,-8,-128,-145,-111
38,90,44,8,-6,2,-17,-101,-104,-51
15,56,21,32,11,18,-3,-77,-74,-46
-6,29,51,42,22,19,29,-37,-32,-65
-17,20,53,33,29,41,75,7,15,-74
-15,22,0,27,28,49,72,19,33,-68
-28,26,-72,36,7,41,52,28,33,-73
-21,27,11,44,-1,38,54,34,37,-49
11,24,61,37,-4,25,20,26,61,0
40,19,61,27,-12,8,-23,24,64,26
27,16,51,9,-7,3,-36,11,67,37
13,21,53,0,4,9,-35,-1,42,31
7,23,49,5,19,6,-35,-18,23,-12
-1,14,43,3,15,6,-29,-24,-20,-83
-19,2,30,9,0,9,-32,-16,-33,-92
-6,18,20,17,-4,12,-32,2,-13,-28
2,23,0,8,-1,6,-27,23,6,7
-14,-9,-9,-12,-7,5,-11,23,22,13
-24,-31,-17,-40,0,8,38,28,47,14
-11,-104,-52,-54,19,44,64,78,100,58
-60,-274,-107,-53,46,92,110,154,157,120
-115,-292,-84,-19,45,95,101,119,132,76
-47,35,58,14,-1,0,-43,-35,-16,-53
67,223,100,0,-55,-58,-99,-76,-60,-50
68,179,63,-22,-65,-75,-83,-54,-44,-35
31,85,37,-26,-50,-62,-68,-25,-31,-46
22,47,8,-36,-51,-43,-41,-9,-16,-23
19,49,-14,-33,-53,-32,-29,-13,-10,11
26,35,-24,-35,-38,-47,-15,-9,-22,27
19,12,-83,-37,-39,-36,-23,2,-24,31
19,14,-160,-12,-28,-19,0,10,-6,54
16,-1,-144,-7,-16,-10,18,12,11,47
3,-16,-56,-18,-12,8,28,28,8,16
-11,-22,-19,-26,0,27,31,43,7,12
-26,-28,21,-16,0,16,41,57,16,12
-10,-10,35,-18,-4,11,43,44,3,6
-2,-9,37,-14,-4,4,39,16,-8,15
-4,5,47,16,6,11,7,-15,-18,25
11,31,70,43,13,-3,-57,-61,-28,23
17,34,57,39,12,-25,-104,-95,-54,-12
16,14,60,26,-13,-19,-97,-95,-63,-8
10,-5,31,12,-28,-23,-79,-76,-55,8
-11,-33,11,-7,-26,-27,-60,-57,-50,6
-25,-55,-10,-15,-14,-11,-19,-21,-39,3
-18,-62,-3,-15,-19,-12,15,18,-25,24
-12,-54,4,-16,-20,-7,34,52,-6,58
-20,-54,-3,-22,-18,12,14,64,5,81
-23,-56,0,-25,-5,5,7,64,16,106
-25,-46,-3,-19,-10,-3,16,59,30,148
-1,-23,4,-19,-24,-1,23,76,45,171
53,3,23,-17,-10,7,28,86,24,76
19,-2,4,-10,15,24,54,101,18,-67
-30,-1,-18,24,32,59,96,107,21,-95
-16,28,23,51,33,65,116,67,27,-38
-3,36,34,41,21,49,95,36,19,-15
0,-2,-9,10,18,33,83,30,35,6
0,-27,-40,4,21,33,93,31,42,47
-2,-48,-27,22,37,40,74,44,81,95
7,-47,-28,23,43,39,24,24,61,82
29,44,34,23,2,-14,-42,-52,-35,26
21,71,56,19,-9,-43,-66,-74,-51,-8
-7,43,57,28,11,-17,-54,-54,-39,-84
-33,7,37,22,8,-23,-59,-49,-49,-162
-27,-16,8,6,-7,-48,-69,-34,-42,-192
4,-20,-24,-13,-21,-19,-44,-13,-3,-130
34,-17,-19,-6,-9,-15,-20,0,44,-49
72,-3,1,-7,-10,-22,-21,-10,60,18
65,7,19,-11,-7,-5,-11,-10,65,57
65,8,31,0,-5,12,-4,2,95,107
61,2,25,19,11,24,11,39,107,148
-30,-9,13,30,21,32,17,38,61,42
-151,-44,-5,37,12,21,12,-15,-75,-232
-189,-54,-8,35,16,36,32,-34,-133,-329
-147,-36,-12,22,8,46,67,-20,-112,-200
-93,-22,-5,18,6,30,84,-41,-95,-95
-81,0,13,25,24,26,81,-63,-117,-106
-80,-9,-13,9,20,26,64,-48,-103,-156
-74,-27,-93,-29,24,2,44,8,-30,-150
-70,-23,-86,-35,15,-25,20,42,24,-112
-45,-5,-25,-20,-4,-26,-31,38,30,-77
-32,7,-71,1,12,-17,-58,12,6,-88
-36,-6,-37,15,48,24,-31,28,5,-117
-66,-82,-2,3,61,57,45,87,42,-80
-77,-169,-51,-8,66,58,79,121,92,5
-7,-39,7,-4,33,-8,19,72,78,19
79,180,109,9,1,-58,-71,-42,-21,-8
99,185,106,19,1,-53,-84,-77,-51,5
64,107,39,-5,-19,-47,-56,-53,-26,4
18,30,-36,-19,-7,-18,-23,-28,-35,-16
-9,-7,-19,7,25,15,-10,0,-32,-28
0,12,1,47,42,33,25,35,-10,-29
44,30,17,71,55,32,33,30,-15,-52
55,17,12,46,40,12,5,14,-8,0
28,-3,1,14,3,-4,-23,12,10,65
-13,-17,-3,7,6,32,-14,7,15,72
-7,19,-20,27,32,34,16,-17,-21,34
17,50,13,23,25,3,4,-21,-33,6
-2,45,33,26,16,3,0,0,-15,17
30,50,25,-5,1,-35,-42,-24,9,72
58,51,11,-21,-11,-49,-91,-33,37,95
27,34,2,-1,14,-40,-63,-22,53,88
4,2,-7,-1,19,-23,-45,-10,53,44
-16,-15,-15,-11,28,0,-26,8,49,12
-26,-24,-24,-14,12,2,-8,15,56,26
-29,-27,-39,-21,-23,-21,-23,25,53,44
-72,-42,-50,-3,13,9,28,40,61,-2
-89,-87,-49,16,51,55,64,35,59,8
-55,-152,-37,24,52,53,49,20,20,84
18,-155,-65,4,28,37,48,28,34,141
108,104,-22,-3,-30,-29,-41,-49,-28,61
116,257,12,-9,-61,-73,-77,-90,-91,-6
56,144,32,5,-24,-22,-3,-22,-16,47
29,100,23,56,21,29,54,18,42,81
29,105,32,91,48,54,62,7,39,72
42,84,71,77,58,47,67,3,42,92
40,13,17,30,31,37,64,16,79,156
14,-30,-16,16,37,45,48,20,87,194
19,51,24,30,23,19,-24,-27,12,123
9,81,45,25,2,-26,-76,-78,-89,-52
-31,25,17,2,-13,-33,-91,-95,-128,-209
-54,12,8,17,-12,-17,-95,-85,-91,-211
-47,18,32,26,-13,-21,-106,-74,-62,-124
-52,18,39,11,-9,-27,-105,-73,-66,-105
-61,3,10,-9,-4,-15,-70,-55,-64,-123
-66,-19,-19,-24,-3,-10,-39,-37,-47,-98
-76,-58,-31,-27,-18,-39,-16,-21,-23,-38
-92,-116,-47,-26,-18,-20,24,20,0,2
-23,-76,-81,-10,-3,26,83,56,39,74
102,44,-114,0,-12,32,101,50,62,129
113,58,-101,28,9,34,100,55,63,120
56,22,-4,35,0,13,61,38,18,85
-15,-72,-5,-17,-26,-10,39,32,15,74
-37,-152,-125,-80,1,36,77,86,48,93
3,-50,-23,-63,23,38,70,70,31,53
53,123,76,-15,12,-22,-6,-30,-48,-13
64,137,83,0,-20,-66,-62,-90,-72,7
41,71,29,-29,-53,-73,-82,-96,-47,40
39,17,-7,-57,-64,-62,-80,-92,-14,75
46,-16,-31,-66,-67,-62,-86,-79,19,111
46,-37,-31,-62,-57,-54,-107,-69,24,119
52,-49,-25,-59,-50,-55,-88,-47,26,148
75,-30,-41,-57,-53,-33,-48,-25,-16,115
33,-7,-81,-28,-31,-8,6,16,-64,-20
-41,-13,-42,-13,-13,5,62,68,-30,-69
-54,2,13,-20,-19,8,85,103,51,-8
-26,21,13,-18,-25,6,78,100,52,-7
37,23,9,-2,-2,3,66,94,37,3
123,9,23,20,46,39,84,45,66,106
172,21,50,46,96,86,59,-39,40,158
271,82,39,27,50,54,-5,-94,-14,139
252,126,35,11,-6,-15,-79,-116,-75,50
29,60,16,-2,-10,-69,-115,-82,-99,-72
-241,-22,5,11,13,-48,-50,-4,-53,-172
-262,-38,6,11,-17,-45,-10,54,4,-108
-161,-27,-12,-6,-23,-31,15,63,55,-17
-101,-18,0,-2,5,26,66,41,39,19
-90,-24,25,29,24,76,147,33,-31,-50
-102,-42,28,41,40,80,175,20,-73,-127
-88,-27,31,49,44,47,97,-8,-78,-110
-10,42,16,46,26,13,-3,-23,-45,-23
32,67,57,50,33,2,-10,3,25,82
47,55,72,53,47,4,19,46,85,121
-11,11,42,29,23,-2,17,57,83,10
-9,-18,6,6,6,1,-13,43,74,6
68,-1,20,8,-12,-31,-70,2,76,175
55,-40,34,25,-22,-60,-101,-25,90,257
-8,-47,64,80,31,-21,-107,-23,75,196
-18,-14,50,60,22,-36,-114,-23,32,29
-98,-51,-53,-32,-49,-62,-83,-21,-92,-219
-143,-73,-100,-80,-67,-24,-21,-12,-157,-326
-92,-77,-87,-59,-32,45,74,44,-69,-207
-86,-57,-84,-17,7,77,128,94,-3,-116
-100,-38,-74,10,7,61,109,94,30,-121
-100,-79,-55,11,0,53,91,99,32,-186
-55,-65,-9,9,0,29,36,31,-41,-208
36,80,83,38,-9,-30,-52,-65,-92,-171
45,122,90,92,-38,-99,-124,-108,-111,-159
-23,39,5,146,-27,-91,-121,-107,-105,-152
-49,-13,-70,195,25,-63,-119,-119,-109,-140
-46,-68,-136,156,29,-65,-87,-88,-72,-104
-45,-107,-145,75,4,-55,-21,-44,-28,-94
23,-45,-19,6,-61,-74,-61,-29,-16,-72
97,47,13,-172,-150,-70,-48,-14,13,-5
95,21,-82,-260,-143,10,54,68,96,74
90,15,-17,-179,-89,26,74,67,133,175
82,51,27,-105,-74,-2,5,6,136,250
22,40,33,-88,-77,-21,-50,-47,73,164
28,14,38,-58,-68,-19,-34,-46,58,131
42,-32,62,22,21,61,24,7,112,237
60,-91,25,99,105,121,66,35,144,348
78,-158,-22,93,106,123,76,57,124,310
150,12,63,73,43,49,22,-5,-11,116
149,243,195,15,-57,-69,-68,-149,-178,-91
28,138,23,-94,-92,-67,-42,-110,-129,-161
-43,103,-113,-97,-61,-33,-2,-61,-75,-187
-106,43,-41,-56,-44,-24,29,-33,-52,-175
-130,-11,-3,-32,-9,0,28,-28,-79,-166
-87,5,45,10,39,47,4,-29,-95,-167
-36,34,37,23,34,39,-21,-20,-59,-177
7,50,0,4,3,-19,-50,-35,-67,-198
-25,-2,-44,-13,-1,-6,-32,7,-38,-162
-22,-33,-81,-10,8,30,4,51,17,-57
55,-15,-53,0,4,44,31,45,43,97
44,-37,2,-24,-17,29,35,27,38,134
-2,-76,48,-61,-29,38,65,40,16,58
37,-113,-8,-96,-35,40,97,75,72,92
68,-121,-31,-54,-11,13,69,62,93,99
-15,-151,-32,77,80,15,35,14,49,9
-67,-102,2,141,129,17,26,-42,0,-31
36,81,98,109,105,20,36,-95,1,86
111,154,125,91,110,30,39,-65,33,204
45,55,49,57,119,60,56,-7,48,167
34,55,-46,19,39,3,1,-58,-31,16
67,67,-67,-105,-102,-73,-40,4,20,-30
31,31,-87,-133,-113,-31,11,125,122,-17
-36,-24,-176,-71,-29,57,68,139,73,-87
-77,-75,-176,-50,12,82,66,107,7,-95
-96,-132,-80,-49,7,64,60,76,7,-11
-99,-135,-53,-33,25,67,60,40,7,18
39,44,28,-11,9,8,-25,-72,-48,19
85,132,90,7,-3,-30,-100,-145,-97,-9
5,60,51,39,26,-4,-95,-147,-121,-55
-61,-32,38,33,23,-8,-101,-106,-78,-13
-6,-63,9,-36,-32,-46,-90,-47,5,98
45,-62,-17,-69,-53,-47,-58,10,44,86
0,4,31,-35,-26,-34,-40,13,-6,-41
9,85,88,-10,-20,-60,-51,-39,-45,-20
131,120,81,-33,-70,-91,-40,-53,-9,141
203,122,75,-25,-83,-78,14,-3,45,224
219,77,73,25,-38,-36,34,44,139,294
220,13,25,30,-31,-43,30,67,242,458
251,55,-21,-5,-43,-49,17,71,308,571
210,95,-52,-6,-44,-35,35,77,304,527
96,10,-12,-24,-26,18,74,70,222,331
-40,-53,25,9,38,102,117,28,8,-59
-180,-86,51,77,116,185,178,34,-211,-550
-218,-101,6,22,81,149,130,8,-314,-896
-198,-53,-11,-37,20,57,35,-77,-330,-828
-218,-38,3,-31,-9,7,-67,-141,-292,-557
-297,-82,-3,52,-19,7,-101,-92,-212,-379
-313,-143,-16,95,-4,10,-85,-51,-172,-277
-212,-124,-31,45,-14,-37,-141,-63,-131,-177
-46,-54,-32,-49,-43,-111,-178,-108,-123,-80
90,5,-24,-52,-27,-104,-139,-139,-132,48
132,43,-60,-29,-39,-89,-92,-77,-38,190
46,14,-103,-42,1,-3,-5,48,47,175
68,-8,-44,-66,12,32,25,107,44,173
31,-78,0,-10,40,40,35,91,-1,221
-79,-191,-15,23,90,85,65,72,-29,229
-88,-170,-87,-33,54,78,116,113,30,131
0,145,34,-42,-4,-29,39,81,118,56
39,226,119,71,43,-54,-20,54,201,162
45,111,77,190,118,-6,-23,39,170,205
168,99,50,180,136,-7,-25,-25,94,282
430,188,39,36,-6,-105,-111,-87,113,475
535,205,26,-155,-219,-166,-127,-13,241,546
415,66,-132,-309,-330,-143,-59,134,400,558
265,-53,-241,-287,-202,3,71,279,511,536
213,77,0,-107,-58,47,66,226,450,464
22,147,167,44,31,57,45,156,313,320
-252,48,178,138,137,131,100,141,151,115
-488,-80,73,93,122,104,86,51,-108,-337
-587,-97,-2,110,118,100,66,-73,-430,-967
-452,36,3,157,117,58,-7,-228,-689,-1186
-220,5,15,64,14,-13,-60,-258,-624,-839
-47,-114,-18,-57,-78,-60,-41,-163,-330,-357
21,-89,-26,-97,-88,-66,-31,-84,-119,-124
33,25,18,-73,-81,-74,-64,-83,-86,-50
86,132,58,-16,-31,-47,-89,-119,-79,13
-9,147,40,50,46,16,-69,-111,-124,-139
-252,10,-14,92,110,79,-26,-87,-200,-378
-353,-138,-84,129,146,101,-2,-87,-264,-479
-320,-290,-103,156,120,73,58,-6,-145,-301
-168,-249,-27,175,66,28,73,10,-58,-60
0,-8,185,209,81,-28,11,-88,-123,-6
102,143,131,51,17,-63,-32,-134,-144,-31
150,134,-19,-47,-34,-9,-26,-78,-44,67
90,21,24,125,-10,35,9,15,68,188
-50,-141,70,235,41,27,17,45,81,195
-143,-249,18,135,73,24,40,60,60,187
-35,-30,-47,-164,-19,-26,8,31,-12,29
22,154,-125,-321,-144,-59,24,85,-21,-252
-128,20,-153,-255,-94,34,174,255,132,-250
-6,79,-109,-239,-77,24,151,202,156,14
155,141,-36,-255,-129,-66,29,86,218,264
217,110,6,-78,-71,-27,15,53,279,398
353,130,57,49,-11,22,42,76,318,416
378,97,58,10,-21,27,33,144,382,415
248,-114,-61,-48,-20,49,64,245,495,585
53,-162,-106,-34,14,98,141,262,414,441
-212,63,-40,3,28,71,88,107,38,-154
-342,157,102,31,0,-19,-16,-66,-290,-497
-280,42,86,44,-2,-42,-15,-76,-248,-221
-72,48,52,23,9,-45,-47,-108,-205,-27
9,115,18,59,59,12,-39,-132,-257,-111
7,116,51,27,-3,-36,-83,-96,-136,-85
-1,80,74,-2,-1,-20,-72,-32,-33,-33
23,111,95,10,31,-4,-60,-81,-119,-145
18,80,28,92,72,9,-32,-89,-164,-196
22,-21,-147,166,154,56,11,-82,-156,-112
74,-110,-210,183,247,177,90,-94,-192,-44
42,-182,-192,134,220,230,98,-78,-175,0
-80,-199,-134,77,103,166,16,-120,-209,-61
-111,-145,-60,34,12,56,-53,-124,-180,-39
-123,-73,-31,-129,-74,-16,-68,-46,-52,-36
-141,16,18,-187,-54,-25,-46,24,20,-95
-138,102,161,-65,-14,-28,-4,33,6,-86
-35,159,190,2,33,-23,-25,18,-7,-43
143,282,224,82,90,-48,-97,-45,-39,38
74,224,239,169,148,-5,-39,-21,-16,18
-31,95,152,236,173,14,42,-10,-24,-28
-39,-51,19,202,27,-60,40,4,-3,37
-148,-389,-241,26,-123,-93,67,124,138,159
-139,-348,-186,-103,-197,-85,102,170,214,193
200,266,6,-233,-386,-244,-100,-14,109,224
175,120,-92,-305,-431,-258,-149,0,199,478
143,-167,-144,-223,-232,-103,-66,52,282,663
471,84,-45,-183,-215,-161,-156,-30,317,676
552,319,3,-171,-240,-215,-163,-36,338,686
376,142,-79,-108,-179,-129,-32,64,337,705
124,10,-19,35,-86,-24,100,137,243,389
-35,17,122,181,35,87,181,130,71,-28
-165,30,205,295,172,183,190,106,-117,-314
-112,36,90,145,118,95,83,40,-160,-403
-39,-33,-116,-33,-10,-13,8,20,-55,-220
54,-88,-86,8,8,2,-7,12,-5,21
158,-114,-39,15,24,8,-32,-32,-48,34
215,-29,-49,-26,-41,-68,-86,-61,-30,30
244,149,-24,-85,-103,-136,-158,-123,-48,56
-62,208,-39,-102,-136,-161,-122,-148,-109,-106
-423,0,-2,-109,-61,-26,82,37,36,-37
-352,-105,52,-43,59,121,173,150,196,279
-166,-134,53,77,83,126,111,129,222,420
-197,-194,-22,59,24,27,25,48,80,165
-365,-265,-76,-34,14,12,34,-7,-84,-222
-370,-241,-51,-68,22,23,65,-48,-343,-817
-284,-49,36,-24,18,16,94,-5,-408,-1082
-180,221,159,30,64,24,79,-89,-465,-907
123,183,43,-73,59,37,108,-29,-274,-443
308,122,-72,-77,76,28,85,21,-87,-141
288,60,-15,-26,157,84,112,57,62,124
475,171,54,-43,81,8,-7,-38,120,472
294,234,139,33,87,-8,-36,-81,97,274
-365,94,44,88,140,124,101,78,177,-254
-477,3,-125,-44,-47,51,77,108,262,-56
-57,5,-166,-162,-206,-94,-84,-41,230,508
143,36,-98,-147,-179,-136,-158,-147,82,496
56,98,19,-65,-81,-107,-156,-197,-162,-48
7,25,4,-102,-76,-135,-220,-192,-285,-261
64,-23,-45,-131,-97,-160,-244,-155,-302,-317
39,-42,-69,-119,-101,-129,-186,-56,-233,-254
6,-46,-65,-97,-86,-69,-98,20,-141,-121
-93,-60,-68,-80,-84,-46,-25,87,-46,-94
-241,-99,-54,-65,-69,-22,40,106,28,-157
-203,-185,-43,-27,2,61,143,148,116,-33
-48,-280,-116,-46,23,125,229,222,257,233
-57,-301,-136,-39,41,169,279,281,371,335
150,-4,-18,-74,-69,32,138,182,332,290
338,149,-6,-128,-122,-35,96,190,423,366
134,-4,-6,-32,7,99,204,258,404,283
75,44,65,50,94,149,157,184,311,296
200,159,136,122,135,125,54,49,192,531
310,100,86,89,85,51,-23,-10,161,795
424,227,100,66,-1,-67,-163,-89,142,912
225,206,80,106,35,-80,-193,-135,38,535
-21,-18,0,103,88,16,-68,-86,-139,-113
-211,-137,36,120,110,60,-14,-82,-328,-658
-364,-119,109,104,67,24,-14,-75,-289,-789
-312,0,97,27,2,-34,-65,-85,-188,-500
-271,103,148,82,70,-8,-77,-202,-252,-263
-384,19,-4,70,79,40,-49,-214,-276,-282
-455,-87,-77,1,28,42,4,-79,-183,-518
-347,-50,66,79,109,105,67,-45,-255,-697
-166,62,157,145,143,102,14,-119,-383,-685
-42,85,118,74,11,5,-36,-103,-267,-433
-10,41,40,8,-56,-27,-26,-67,-158,-212
-51,-10,-15,-32,-51,-24,24,-57,-93,-91
2,21,1,-21,-37,0,18,-65,-58,36
115,70,41,50,9,24,7,-80,-40,154
60,-30,-46,76,40,74,93,37,100,232
94,72,13,80,-5,13,55,26,126,241
168,239,148,60,-37,-65,-43,-92,-20,153
34,136,97,89,14,-27,-64,-135,-97,14
-118,-28,-10,166,31,-51,-152,-192,-159,-163
-202,-126,0,259,32,-84,-197,-238,-260,-382
-244,-244,-167,95,3,-26,-89,-125,-192,-340
-197,-335,-379,-219,-66,3,26,57,49,-85
-58,-260,-331,-205,-64,10,29,95,152,50
537,420,285,63,-60,-93,-94,-14,242,482
501,366,189,-78,-51,10,17,101,370,556
176,45,-33,-154,-33,69,132,192,392,539
-35,-53,-100,-185,-104,-8,84,197,381,507
-9,40,23,-165,-150,-128,-51,55,289,478
-89,-120,-2,-90,-33,-19,4,79,206,173
-294,-503,-241,-130,61,119,164,228,147,-197
-213,-324,-236,-197,-19,30,67,104,-6,-243
73,242,35,-76,-69,-91,-114,-146,-224,-233
37,365,220,112,55,-41,-79,-111,-228,-442
-168,302,305,353,295,152,72,10,-206,-621
-332,200,241,638,509,315,173,50,-262,-679
-170,160,92,571,386,166,45,-73,-295,-475
-140,17,31,333,193,-9,-57,-134,-234,-246
-194,-91,37,11,44,-86,-109,-175,-253,-184
-49,-109,-23,-280,-121,-72,-96,-123,-135,126
178,-166,-64,-533,-271,-85,-79,-54,74,572
285,-271,-238,-545,-258,-49,-36,12,216,673
284,-99,-196,-281,-193,-114,-133,-65,137,503
182,-184,-197,-114,-120,-155,-150,-86,85,381
-159,-517,-264,-47,43,35,85,133,157,197
-428,-406,-106,178,250,192,193,149,-54,-314
-160,122,117,319,246,117,30,-68,-336,-611
40,141,189,259,181,66,-12,-93,-253,-299
195,152,191,22,71,-34,-98,-76,-80,78
246,199,270,-39,36,-57,-147,-59,69,252
202,276,353,101,48,-99,-263,-221,-121,-42
-19,252,238,61,-41,-138,-246,-246,-271,-465
-205,0,-127,-128,-91,-27,51,30,-51,-472
-170,-157,-302,-193,-106,43,234,203,193,-145
90,-53,-188,-208,-221,-26,187,161,212,207
64,-31,-214,-289,-270,-37,153,143,98,123
-128,-247,-332,-290,-163,102,277,341,268,223
-61,-391,-360,-227,-59,157,351,499,530,619
102,-210,-65,-104,-20,85,255,351,407,565
252,235,166,-24,-79,-93,-44,-9,48,204
442,599,185,-86,-188,-232,-230,-159,1,202
356,425,91,-150,-198,-220,-186,-52,194,309
265,235,48,-94,-134,-163,-177,-11,277,306
216,181,43,-56,-94,-131,-200,-54,222,222
177,66,-24,-92,-104,-153,-234,-93,196,387
130,-46,-94,-119,-116,-142,-233,-118,142,506
109,-51,-85,-91,-117,-138,-274,-201,-26,340
-48,-97,-25,-25,-35,-74,-208,-188,-245,-234
-222,-113,8,63,88,49,-67,-78,-411,-864
-214,-62,30,119,126,117,52,13,-316,-791
-345,-179,35,167,176,209,237,84,-171,-532
-572,-485,-94,168,258,315,455,220,-78,-439
-473,-405,-15,183,246,270,469,176,-145,-422
-61,105,175,183,62,34,179,-86,-371,-310
188,240,98,91,-86,-105,-27,-152,-381,-230
294,184,7,-36,-109,-110,-68,-83,-288,-167
132,96,42,-59,-49,-29,-7,-25,-160,-97
-51,7,102,10,29,52,117,37,10,-94
128,62,75,-43,5,13,106,37,162,68
272,92,18,-34,9,8,59,35,238,199
295,108,-25,62,40,2,-15,35,353,246
257,126,20,109,53,-13,-62,-1,375,276
182,94,121,109,62,-9,-44,-8,374,457
329,107,119,58,2,-61,-97,-65,336,706
369,136,162,58,-41,-68,-135,-91,187,684
261,-23,32,-39,-91,-64,-99,-5,191,608
96,-257,-194,-148,-123,-61,-37,88,166,303
-184,-179,-103,-54,-11,37,50,109,24,-307
-335,2,74,78,98,81,52,-21,-220,-691
-331,-139,-1,6,24,24,7,-46,-250,-619
-212,-45,-8,-32,-43,-20,-25,-56,-286,-514
-69,28,4,-9,-29,-9,-30,-55,-261,-307
-94,-179,-75,5,4,38,29,0,-103,-19
-129,-358,-176,-124,-99,-10,58,133,170,171
8,-71,-102,-181,-170,-106,-35,109,428,256
-3,-86,-105,-173,-126,-64,-3,149,536,434
-193,-364,-160,-86,7,120,203,329,579,612
124,-170,-86,-61,-15,80,138,231,390,591
345,83,31,-48,-95,-58,-50,51,59,218
183,90,148,106,87,111,98,121,-71,-87
306,295,263,196,183,138,69,-18,-170,-61
515,443,263,186,135,34,-97,-182,-174,140
445,344,228,119,32,-43,-128,-169,-128,167
99,190,191,114,37,-21,-43,-52,41,17
-315,20,171,196,125,86,71,41,-29,-272
-536,-99,157,231,183,134,70,9,-227,-629
-436,-129,100,224,164,125,44,-20,-278,-613
-242,-183,-47,160,115,119,78,0,-198,-232
-384,-483,-184,129,172,200,207,84,-118,-126
-441,-657,-173,75,182,239,286,216,35,-69
129,-43,53,-44,-70,-56,0,12,21,237
292,416,244,-32,-121,-148,-192,-200,-60,264
7,58,0,-99,-67,-10,-28,-5,81,424
-77,-187,-141,-136,-71,8,12,10,-18,381
-216,-152,-58,-20,-15,-20,-63,-112,-242,-204
-333,-27,122,93,57,-2,-91,-170,-390,-807
-372,43,191,57,-19,-85,-155,-239,-510,-1119
-331,-34,28,-42,-96,-118,-154,-195,-466,-1003
-144,-114,-97,-96,-118,-111,-132,-121,-289,-515
56,-88,-31,-78,-118,-107,-171,-157,-227,-155
-21,-154,-109,-95,-104,-80,-133,-145,-167,-96
-87,-239,-276,-150,-112,-60,-41,-56,-18,32
-16,-217,-285,-151,-139,-71,-21,-10,111,250
-67,-249,-297,-12,-14,38,82,61,159,227
-101,-284,-212,28,11,71,120,131,186,158
0,-92,-85,26,-80,-43,-17,10,52,117
194,26,-37,-95,-138,-131,-116,-95,-55,201
94,-250,-128,-139,-29,5,33,69,64,223
25,-132,-8,-37,64,104,98,92,23,74
390,576,264,87,7,-37,-97,-159,-238,-64
348,424,173,49,-17,-60,-37,-43,-92,63
87,76,48,0,12,-4,80,103,98,123
-206,-139,-43,72,107,109,202,166,168,22
-191,-107,8,180,125,103,168,110,169,-17
-25,12,124,275,88,4,19,27,96,22
-4,3,83,234,86,-10,-36,-26,15,-41
26,36,54,28,30,-9,-73,-91,-91,-188
-45,-183,-86,-124,23,69,34,47,55,-11
0,-94,1,-44,94,118,40,72,78,115
188,277,95,-68,39,32,-122,-114,-137,23
163,161,-56,-211,-60,-46,-136,-104,-112,36
8,-78,-150,-234,-13,28,38,84,80,76
16,-87,-143,-212,58,141,157,190,154,119
132,13,-82,-165,30,100,79,126,88,155
-146,-73,21,4,96,104,67,70,-55,-64
-269,-3,161,146,85,10,-27,9,-36,-115
-181,224,338,316,105,-42,-130,-82,-53,-76
87,227,263,264,19,-107,-205,-161,-115,-60
41,87,57,98,-123,-148,-212,-162,-107,-119
-38,-31,-82,-3,-166,-156,-198,-135,-56,-27
6,-56,-118,-32,-115,-100,-127,-68,-11,-17
-66,-36,-53,61,39,52,-21,2,-9,-113
-95,11,53,47,48,72,-20,55,45,-45
115,70,58,-68,-42,-48,-146,-22,98,146
239,141,-24,-169,-75,-107,-169,-57,81,151
6,39,-132,-152,14,18,9,55,145,58
-237,-122,-131,-42,64,94,118,86,121,-45
-366,-230,-139,39,70,87,150,70,110,-80
-155,-118,-151,17,55,71,159,24,73,28
56,43,-85,20,50,72,176,35,-47,14
93,107,39,46,21,31,88,18,-176,-125
35,54,-9,105,-27,-37,-18,36,-150,-177
-25,-49,-59,160,7,-11,8,50,-78,-131
-35,-117,-109,98,-14,-2,60,57,8,-45
62,-116,-129,-128,-129,-21,58,53,115,128
1,-115,-98,-105,-41,34,50,5,81,167
40,77,42,21,38,70,33,14,44,216
144,187,121,0,72,132,98,125,154,391
164,83,81,-48,132,210,185,197,238,478
327,228,151,-119,-38,-20,-33,24,145,412
205,200,71,-135,-81,-75,-45,39,174,371
94,17,-24,-85,23,74,105,125,255,518
186,-39,-19,-43,52,101,92,56,82,391
304,242,47,-23,-53,-49,-85,-95,-61,151
140,199,7,-49,-80,-62,-48,-17,107,202
74,55,-149,-139,-129,-70,-31,18,138,179
32,143,-60,-112,-132,-92,-98,-97,-70,-141
-80,51,-15,-102,-100,-80,-97,-119,-154,-348
-33,-11,-48,-117,-105,-94,-117,-109,-82,-279
1,-15,-53,-72,-50,-54,-105,-49,-19,-116
-25,-27,-56,-68,-29,-51,-115,-53,-75,-89
-146,-48,35,8,26,-27,-103,-71,-153,-307
-206,-70,81,59,71,-5,-109,-64,-140,-386
-176,-7,95,66,64,0,-118,-76,-127,-410
-108,177,155,67,49,-13,-132,-162,-234,-556
-47,169,103,22,19,-39,-134,-224,-240,-417
-53,21,9,0,2,-23,-132,-199,-153,-164
-122,-25,5,63,26,11,-144,-186,-166,-141
-187,-8,74,177,48,-21,-184,-242,-284,-309
-177,-41,74,227,31,-53,-194,-261,-317,-358
-79,-153,-16,113,-9,-67,-149,-181,-182,-165
177,-180,-101,-47,-47,-61,-72,-82,-36,167
436,-3,-92,-116,-101,-66,19,-19,3,342
316,-65,-185,-204,-128,-34,138,161,140,361
92,-156,-175,-116,14,133,302,320,187,262
-122,-113,-67,35,130,216,357,392,229,74
-284,-20,72,88,114,173,296,416,284,-19
-153,65,118,30,32,87,195,312,189,-111
95,75,61,-43,-25,42,165,282,250,89
213,33,-32,-22,1,78,180,296,336,441
306,83,-112,-9,-36,30,115,201,291,523
212,87,-16,50,9,37,68,81,148,261
97,47,30,77,41,66,50,51,119,179
71,67,-19,116,52,43,-22,-22,14,115
-6,13,9,104,47,19,-46,-47,-31,-15
-223,-198,35,79,88,59,24,-6,-58,-173
-137,11,92,49,40,0,-34,-90,-191,-363
-25,232,104,54,7,-24,-64,-119,-201,-337
-1,138,53,56,0,-30,-52,-92,-114,-185
91,72,52,-5,-49,-87,-91,-69,2,85
48,-15,0,-63,-79,-79,-84,29,212,326
61,-53,-48,-98,-110,-78,-46,112,389,538
159,-79,-104,-149,-150,-75,-31,169,591,857
221,-91,-115,-145,-87,-20,26,252,750,960
214,-5,-103,-20,13,36,43,168,459,529
156,57,-88,49,46,49,63,83,174,82
7,7,19,110,99,95,148,59,-18,-81
-367,-201,59,174,194,217,308,116,-174,-383
-420,-345,-46,102,129,154,282,132,-207,-653
-200,-322,-49,65,89,116,203,125,-63,-479
-11,39,149,119,96,90,95,8,-77,-322
106,321,239,104,29,10,7,-39,-2,-31
199,488,288,129,-24,-63,-112,-116,-8,186
-20,348,204,179,50,-6,-95,-148,-143,-14
-269,92,49,120,61,20,-53,-160,-314,-392
-334,-57,45,53,85,55,-14,-169,-445,-540
-98,-39,-47,-46,-32,-62,-104,-229,-450,-297
155,247,42,-65,-123,-184,-223,-351,-516,-347
-1,117,-6,-24,-22,-62,-114,-244,-378,-342
-161,-85,-58,-43,22,34,15,-68,-196,-200
-58,-1,-24,-100,-54,-42,-61,-109,-237,-256
-62,9,-60,-120,-65,-82,-101,-128,-192,-188
-4,-12,-89,-117,-30,-74,-115,-144,-158,0
31,-39,-77,-62,7,-34,-76,-121,-80,117
1,-37,-89,-41,21,1,2,-25,39,107
-170,-165,-98,-15,46,72,109,95,117,12
-153,-174,-88,34,30,46,80,28,-14,-111
1,-127,-70,-28,-90,-78,11,32,72,-18
-30,-125,28,74,5,-2,60,78,133,58
-6,-213,22,36,34,19,43,55,126,220
-202,-409,-134,-127,9,21,88,171,289,322
-160,-213,-116,-101,66,90,131,196,324,365
88,150,27,-95,-24,-45,-18,4,122,246
53,306,139,-6,-1,-56,-61,-38,92,133
-165,37,66,81,133,146,124,76,115,245
-101,-106,-16,6,105,197,244,197,111,199
-63,-43,22,1,31,67,139,202,199,145
84,145,122,45,4,-24,0,15,8,51
79,88,16,-22,-65,-55,2,30,-11,-65
13,70,18,11,-35,-42,36,66,84,-175
116,182,85,16,-66,-79,-27,-10,8,-122
289,221,72,-52,-133,-149,-132,-85,-100,-2
248,191,36,-46,-102,-136,-130,-80,-103,-6
62,122,-34,-7,-37,-75,-127,-101,-166,-161
-44,73,28,69,22,-55,-127,-158,-214,-224
-67,35,114,162,1,-93,-143,-176,-193,-190
-83,-6,144,253,-10,-105,-167,-181,-158,-120
-49,-7,160,237,40,-83,-184,-218,-92,-19
-13,-22,56,95,18,-91,-171,-190,-40,53
-51,-93,-66,124,33,-36,-68,-62,71,114
-12,-125,-123,174,31,-16,-5,51,216,303
104,-101,-113,128,69,26,8,67,299,455
-3,-274,-240,-58,103,144,148,179,315,373
-155,-372,-347,-134,89,179,199,198,165,74
-146,-212,-68,-55,134,218,202,155,4,-267
-90,24,264,-36,169,212,144,29,-185,-572
164,447,393,-70,78,55,-54,-232,-440,-712
186,301,205,-144,30,1,-41,-177,-230,-339
172,118,13,-111,59,9,11,-47,58,151
195,219,2,28,101,-1,-39,-56,45,311
-270,-97,-48,198,178,74,62,67,110,16
-254,-157,-105,274,114,4,35,44,214,-85
-62,-15,-38,179,-23,-73,-44,-110,43,-257
-107,-39,-63,-100,-146,-104,-49,-165,5,-270
-39,-53,-171,-394,-319,-190,-80,-134,61,-70
45,-2,-169,-438,-407,-237,-132,-105,20,1
12,21,-89,-301,-323,-180,-96,-46,-59,-59
33,-1,-49,-221,-217,-124,9,69,4,-55
88,15,-23,-126,-122,-70,118,195,92,9
126,42,1,-26,-82,-29,149,286,104,131
140,56,34,62,-4,35,161,286,108,218
117,48,64,132,114,93,158,205,118,176
82,30,11,81,156,113,149,109,125,87
69,-3,19,23,146,118,116,53,107,65
77,-83,-9,-2,106,45,37,19,110,134
60,-145,-13,34,117,39,-26,-36,66,261
56,-145,-26,35,73,-4,-81,-78,133,361
57,-55,-25,-21,0,-75,-161,-117,140,325
125,0,-37,-78,-81,-122,-231,-147,91,328
350,3,-38,-91,-179,-190,-253,-150,74,541
577,78,5,-99,-293,-256,-256,-120,135,646
576,118,67,-59,-251,-236,-212,-100,243,515
488,303,196,22,-126,-165,-206,-157,42,116
-1,230,156,36,50,41,-21,-48,-121,-472
-705,-85,74,42,154,189,167,99,-67,-856
-640,-100,69,33,69,85,113,67,-104,-776
-348,-14,73,19,-12,-19,24,-11,-148,-534
-128,58,98,31,49,-2,7,-105,-105,-297
-13,69,94,48,92,53,66,-85,36,-106
-87,-17,14,0,34,52,100,30,121,-27
-202,-98,-48,17,51,102,88,78,-1,-12
-72,-37,-12,27,38,90,69,55,-21,34
129,75,47,0,-2,11,9,11,155,196
34,12,22,-6,1,11,8,3,164,242
-63,-45,-60,-56,-47,-21,-31,-63,-88,-119
-137,-101,-200,-87,-89,-19,-2,-8,-218,-297
-261,-230,-212,-14,14,92,159,113,-68,-112
-134,-119,23,143,173,189,210,76,28,-14
72,64,53,110,46,24,85,-9,8,24
162,101,-6,79,-57,-59,12,-13,-8,169
242,110,41,82,-12,-12,8,-12,2,188
198,-5,36,33,16,47,81,115,229,422
111,-180,-31,-45,-6,71,134,248,440,733
39,-324,-222,-120,0,106,181,313,450,769
265,-160,-136,-61,13,56,91,246,432,875
393,61,39,-21,-27,-34,-33,146,402,860
27,305,182,71,49,23,-7,-15,-49,-319
-388,-32,12,-17,-8,-11,-45,-124,-434,-963
-312,-86,-30,-26,-117,-159,-183,-209,-467,-915
-31,17,41,47,-102,-173,-211,-237,-284,-523
109,40,30,25,-61,-123,-172,-180,-161,-392
52,-65,-148,-142,-99,-80,-60,0,43,-157
-24,-129,-206,-158,-65,7,50,103,134,83
-78,-120,-172,-58,34,88,130,153,115,245
137,115,46,-6,42,52,31,-33,-196,125
185,247,157,33,42,39,-23,-169,-480,-184
-138,39,98,85,127,110,86,-70,-326,-361
-157,-35,57,98,131,130,107,-52,-254,-424
-214,-77,63,152,187,218,161,45,-132,-341
-125,26,171,223,242,229,113,-1,-156,-186
-57,108,179,159,165,137,41,-30,-6,-63
60,98,108,49,41,41,-30,-53,11,4
98,1,25,-30,-24,-28,-92,-82,-26,1
89,-92,-20,-24,-1,19,-32,19,-3,97
192,122,81,16,-9,-13,-86,-43,-24,57
200,284,134,5,-79,-123,-212,-184,-132,-4
138,194,60,-23,-131,-165,-232,-164,-146,162
51,6,-46,-41,-103,-59,-82,2,-21,419
-54,-238,-108,-37,-17,82,93,185,255,614
-16,-295,-116,-41,19,127,146,229,471,633
34,13,34,22,57,124,137,179,409,433
-160,-4,60,95,163,237,245,185,197,108
-121,-146,-56,35,72,152,154,103,-75,-146
109,22,-8,-17,-43,-34,-32,-21,-20,-115
343,334,124,-21,-137,-257,-287,-257,-3,40
39,42,-12,29,-46,-46,-105,-125,-282,-174
-330,-250,-99,34,-9,37,-15,-66,-416,-365
-512,-228,-73,43,29,49,37,-36,-359,-554
-461,-91,20,101,108,119,126,32,-140,-405
-253,-69,18,125,174,181,146,-21,-139,-211
183,249,142,79,67,22,-60,-215,-341,-199
179,321,159,7,-72,-102,-141,-152,-215,-201
-32,139,58,-3,-70,-96,-115,-108,-129,-184
11,65,-14,-13,-80,-109,-104,-120,-128,-44
136,91,-59,17,-120,-159,-148,-110,-177,-16
-24,-22,-128,66,-50,-78,-48,-20,-105,-80
-84,-121,-150,54,0,-22,52,0,8,-63
14,-95,-193,-43,-52,-32,93,-29,-3,-36
22,-32,-82,-136,-82,-15,166,-7,-41,-37
-47,-2,43,-75,-13,39,196,0,19,-59
-146,-78,41,8,16,70,140,52,110,-14
-102,-161,-39,-12,-33,10,60,78,153,84
-360,-425,-106,59,100,153,199,235,164,38
-409,-413,7,349,345,329,283,289,175,10
52,132,200,444,198,38,-97,-69,-28,53
180,166,-15,181,-98,-216,-295,-148,-100,127
14,-104,-271,-41,-48,-17,-61,74,7,222
152,-53,-231,-146,-28,9,-36,53,124,298
212,215,28,-17,-65,-85,-134,-59,117,203
232,322,173,108,-32,-65,-96,-48,106,232
237,279,180,118,-70,-130,-154,-114,0,92
232,239,103,-13,-111,-149,-148,-97,23,-48
203,225,112,-80,-104,-101,-112,-51,41,-70
74,155,144,-137,-140,-105,-155,-52,5,-114
-13,81,63,-206,-114,-58,-151,-73,29,-85
44,32,-101,-222,-63,-20,-131,-102,47,-40
2,-70,-192,-214,-43,-40,-80,-100,12,-70
-65,-163,-241,-275,-38,-20,-16,-61,-51,-74
-32,-132,-236,-241,-8,30,44,-4,31,-1
16,72,-83,-92,82,60,68,-6,24,-42
-25,162,2,-69,110,103,136,57,-68,-64
3,23,-107,-182,46,133,251,322,188,163
179,67,-155,-245,-99,25,214,464,336,309
66,118,-24,-20,2,50,219,418,310,288
88,53,57,193,102,87,266,366,419,384
67,-3,83,280,93,90,281,336,522,379
-228,-96,-23,248,129,202,370,392,562,345
-134,-69,-115,-14,9,110,275,341,567,631
196,129,43,-75,-70,-37,13,-23,122,498
110,208,101,-29,-91,-80,-110,-236,-376,-198
30,207,67,-97,-142,-149,-191,-367,-680,-659
57,156,-14,-164,-185,-197,-234,-393,-656,-752
17,119,-10,-100,-143,-169,-209,-285,-436,-486
-27,33,-57,-86,-118,-125,-144,-159,-274,-258
-31,24,-63,-111,-52,-52,-28,-13,-38,-208
-64,169,57,-4,56,29,22,1,-54,-332
22,203,40,3,28,-34,-63,-74,-106,-221
83,186,18,-49,-52,-104,-130,-113,-126,-99
45,111,-1,-23,-11,-74,-115,-93,-118,-82
13,70,-61,0,27,-33,-81,-72,-141,-84
-96,11,-56,36,63,47,-28,-19,-239,-129
-81,-14,-115,-33,-12,16,-35,-10,-283,-75
-108,-103,-125,-62,-20,19,20,41,-209,30
-156,-143,13,36,66,67,53,39,-105,82
6,20,100,52,55,20,-29,-63,-49,38
183,230,110,-15,-69,-108,-173,-159,-44,53
122,180,-16,-66,-141,-148,-159,-88,6,73
-83,5,-88,-71,-92,-54,-21,51,-17,101
-178,-74,-11,7,10,46,86,129,45,111
5,-8,18,33,56,60,89,94,187,58
-6,28,27,24,70,59,90,50,165,-129
-284,-167,-41,54,162,192,248,225,271,-98
-290,-326,-112,12,119,183,224,284,224,147
-302,-347,-17,89,140,153,131,155,52,222
44,78,216,199,174,103,28,-48,-70,295
413,465,270,113,9,-117,-178,-270,-138,71
233,325,174,35,-47,-148,-179,-241,-120,-282
160,186,100,6,-26,-86,-120,-160,-62,-239
142,93,35,-49,-56,-85,-102,-96,-81,-125
12,-15,-28,-75,-102,-103,-54,-18,-222,-72
-97,-91,-62,-66,-59,-15,56,44,-172,-84
-66,-48,-32,1,-10,32,105,20,-160,-72
-3,-19,-91,44,5,35,98,10,-139,21
83,-51,-222,4,-17,22,68,38,-37,86
-92,-281,-298,-7,69,133,162,176,254,48
-204,-455,-291,38,126,183,207,239,355,136
25,-185,-74,141,116,125,176,189,414,306
282,252,92,138,21,0,27,16,286,371
353,129,52,-5,-70,-75,-47,-1,325,661
354,-55,-4,-99,-62,-46,-32,85,470,899
251,138,106,-41,-2,4,-15,29,267,712
186,187,105,-92,-34,-24,-13,-40,135,308
120,199,68,-99,-38,-35,-47,-116,-162,-190
-200,-18,-76,-52,33,81,63,-11,-318,-504
-395,-180,-37,16,122,166,198,91,-202,-731
37,4,84,51,88,81,48,8,-111,-606
303,185,161,42,-8,-71,-183,-143,-139,-406
119,64,105,18,-44,-86,-196,-178,-254,-254
-22,5,76,3,-55,-59,-151,-132,-259,-118
-56,93,116,18,-67,-106,-161,-159,-141,-206
-74,76,121,50,-30,-63,-127,-166,-117,-188
-7,6,58,6,-31,-42,-105,-132,-57,0
-45,-45,-24,-42,-39,-53,-73,-71,-137,8
-92,-53,-48,-41,-42,-56,-53,-46,-260,-111
-86,-23,12,38,-10,-55,-32,-81,-375,-356
-116,-33,31,158,30,-38,-13,-62,-373,-438
-166,-130,2,207,69,5,8,17,-212,-208
-253,-360,-74,154,52,39,62,151,21,188
-15,-318,-49,112,26,35,36,86,-41,197
-98,-176,-51,64,34,52,12,39,-112,-121
-9,21,-40,-63,-51,-21,-79,-34,-138,-144
149,85,-43,-192,-120,-92,-166,-123,-204,-104
170,42,-87,-304,-172,-115,-119,-46,156,33
280,41,-16,-222,-98,-67,-87,2,231,212
274,-54,-56,-96,-37,-15,22,200,338,453
75,-85,20,26,73,87,110,248,429,323
-191,-170,87,140,133,153,210,246,383,128
-622,-384,82,293,241,276,389,370,402,-18
-526,-357,146,350,301,314,338,214,128,-95
-212,-206,143,176,118,94,35,-146,-299,-449
-419,-370,-54,51,65,73,60,0,-80,-572
-119,-116,-2,69,38,-5,-47,-66,15,-279
241,149,72,-56,-65,-104,-139,-129,83,31
187,4,-49,-279,-157,-117,-71,-50,102,145
-49,-154,-96,-238,-87,-5,53,49,55,64
85,96,47,-102,-72,-20,0,-33,21,6
160,148,94,-62,-81,-65,-76,-138,-84,-88
170,108,115,-7,-80,-102,-124,-111,-20,-38
173,110,210,138,0,-68,-123,-111,17,90
126,68,177,126,4,-79,-141,-142,-95,25
46,12,48,11,-19,-77,-83,-72,17,-7
54,-30,-64,-119,-47,-48,-26,-25,111,62
119,-73,-120,-169,-47,-14,2,17,165,184
67,-150,-125,-150,1,37,-3,13,96,125
-10,-142,-120,-152,-28,0,-30,-1,-1,24
-45,-76,-85,-66,3,-20,-23,-7,-27,-60
-176,-243,-108,37,107,62,44,32,64,-12
-206,-226,-133,59,118,112,105,79,116,20
-198,-87,-54,88,152,166,175,86,87,-60
-263,-228,-83,102,166,198,212,176,179,134
55,61,111,6,7,13,-26,18,22,305
268,220,26,-122,-116,-114,-171,-133,-140,321
128,-85,-287,-207,-114,-35,-33,57,61,481
132,-35,-157,-133,-47,0,-5,53,14,385
393,325,68,-91,-77,-108,-127,-64,-77,283
245,286,77,-66,-89,-121,-129,-56,-71,155
47,134,86,57,30,-54,-81,-7,21,140
-10,61,50,69,54,-56,-53,53,237,193
-150,5,49,67,72,3,11,70,170,76
-110,33,65,24,-6,-79,-82,-96,-131,-423
-138,15,31,-10,-53,-115,-71,-120,-197,-628
-87,21,22,-27,-16,-46,-34,-132,-183,-408
0,29,-29,-111,-56,-67,-17,-114,-134,-267
-138,-24,-34,-56,-23,-33,28,-45,-107,-283
-269,-102,16,152,113,92,160,64,-62,-221
59,106,144,385,173,77,76,-30,-30,97
17,80,143,365,77,-29,-82,-137,-154,-34
3,24,170,303,36,-42,-71,-68,-85,-59
160,130,231,306,41,-56,-112,-118,-98,-125
96,94,54,144,42,5,-45,-82,-95,-124
43,28,-216,-140,-24,48,31,59,-5,69
120,81,-102,-75,35,78,58,95,111,300
216,147,52,-73,-14,-1,-3,13,130,391
163,121,0,-252,-130,-96,-83,-53,22,212
96,70,-104,-325,-136,-95,-65,-46,-129,-50
27,54,-80,-214,-48,6,33,31,-151,-196
-109,0,-21,-104,48,100,129,129,26,-250
-105,-8,3,-55,77,89,115,104,176,9
-13,-30,-47,-70,39,38,56,39,169,311
221,72,-100,-131,-87,-85,-80,-54,129,390
202,88,-11,-139,-103,-102,-91,-62,185,335
62,17,-20,-123,-72,-42,25,-5,270,223
-32,-21,-43,-99,-53,-11,89,0,162,54
-17,-5,-57,-98,-52,1,76,35,37,-29
-246,-118,-117,-18,82,154,167,182,53,-120
-255,-199,-161,6,94,155,154,259,-7,-239
-171,-240,-137,7,32,69,87,278,-30,-337
-138,-188,-44,123,108,93,59,190,-128,-242
65,205,127,125,39,-51,-107,-80,-244,-274
167,415,169,59,5,-95,-125,-185,-204,-320
35,232,99,42,71,31,28,-29,-17,-184
8,91,47,12,46,54,78,46,136,88
48,97,-15,-23,-11,18,51,58,171,145
23,87,-60,2,8,53,81,112,228,100
24,-257,-71,35,108,188,188,319,529,668
55,-252,-113,-17,47,139,139,309,533,682
364,622,242,86,-65,-152,-294,-255,-262,-77
153,582,152,97,-72,-190,-366,-391,-509,-406
-64,34,9,21,-35,-51,-124,-99,-89,31
-20,111,50,32,-35,-42,-60,-2,71,106
31,126,50,30,-48,-29,-50,48,142,188
74,156,70,21,-62,-62,-101,-43,-81,-14
-160,76,69,32,-22,-37,-54,-54,-214,-392
-202,17,63,63,51,60,37,0,-261,-578
-318,-113,-37,36,80,149,187,182,-105,-463
-510,-242,-52,88,150,213,269,275,102,-187
56,102,72,57,21,-3,-41,-83,-83,94
327,314,71,-48,-163,-199,-246,-259,-143,209
201,239,42,-39,-127,-152,-170,-211,-79,147
267,170,-95,-79,-124,-103,-102,-184,-72,52
174,86,-159,-95,-120,-84,-33,-13,101,143
151,152,13,-20,-88,-113,-102,-87,-85,41
-45,-2,-18,-17,-50,-56,-45,-40,-148,-140
-210,-158,-67,24,-14,0,32,76,-63,-181
-106,10,35,124,-7,-18,11,6,-166,-225
5,153,91,115,-19,-42,-16,-55,-197,-229
11,99,33,2,-41,-31,-12,-37,-84,-98
-9,6,-35,-91,-51,-13,-1,15,23,104
-42,-90,-101,-109,-32,15,14,78,77,264
-65,-121,-107,-96,-3,43,48,92,164,266
-40,14,-85,-113,-16,37,55,76,187,143
-143,-68,-125,-110,2,67,125,158,301,156
-163,-174,-113,-54,51,142,200,234,360,249
-179,-148,-11,53,136,199,194,209,297,139
-142,9,86,89,113,147,141,84,61,-61
-39,106,78,61,52,71,101,5,-81,-3
16,9,7,28,50,111,127,49,3,230
227,118,46,6,-6,22,0,-38,-59,215
251,199,59,-53,-98,-105,-139,-97,-109,181
158,170,57,-33,-87,-82,-123,-115,-220,176
43,94,20,27,-17,13,-26,-83,-267,94
-229,-65,13,103,101,120,87,25,-96,3
-209,-15,96,153,101,82,14,-42,-41,-149
28,134,138,129,14,-63,-140,-176,-133,-216
49,86,38,55,-11,-70,-101,-93,-80,-207
9,74,-31,-25,-28,-39,-38,-73,-133,-197
82,125,24,-65,-41,-60,-44,-159,-170,-113
-39,44,-5,-53,-17,-1,52,-23,30,24
-31,22,-102,-43,-22,5,34,-1,49,102
-3,-35,-106,-1,1,11,62,71,66,240
-92,-91,-33,76,67,75,134,117,38,228
-46,-82,-25,66,63,68,117,108,68,198
77,-4,-11,3,-21,-32,-25,33,49,92
141,129,67,-8,-31,-85,-105,-66,14,-156
20,-77,-45,-20,-18,-13,-10,71,230,0
56,-17,39,126,58,19,-31,68,146,138
138,145,137,217,82,1,-128,-55,-97,-37
-59,-46,90,175,18,-51,-155,-126,-254,-267
64,107,211,58,-92,-158,-249,-227,-358,-175
-292,-214,-188,-250,-7,77,63,149,92,-79
-306,-153,-203,-188,104,190,167,222,213,-6
-103,97,-95,-57,120,139,97,164,189,64
132,208,8,-89,-26,-27,-52,40,54,72
-41,75,24,-63,-24,-14,-45,16,0,-59
-191,-104,-44,50,87,84,63,51,-30,-197
-91,-93,-80,81,82,82,78,37,-67,-185
98,49,-12,83,5,-24,-16,-35,-63,-88
81,68,108,151,32,-46,-28,-89,-58,-88
-161,-135,54,112,42,14,62,14,95,129
-333,-322,-8,57,122,189,248,207,209,320
106,-106,-72,-178,-25,103,184,169,121,236
258,103,-45,-254,-137,-40,-4,0,6,116
207,214,109,-98,-44,-66,-126,-203,-220,-95
70,128,-65,-145,-113,-167,-179,-184,-282,-138
-15,19,-201,-85,-80,-105,-105,-100,-130,-86
-83,-67,-79,137,-1,-46,-77,-52,-5,-25
-39,-44,78,307,74,-41,-83,-75,-32,-82
26,-7,0,87,0,-81,-79,-99,-133,-19
160,79,-127,-137,-136,-194,-148,-139,-166,39
64,18,-121,-146,-99,-96,-67,-55,-82,64
-70,-117,-1,-82,36,103,118,131,277,151
-191,-167,-15,-53,138,248,248,236,397,190
161,124,-10,-21,-56,-21,-66,-32,-4,150
58,27,-104,-27,-56,-39,-65,-11,26,182
-6,18,-68,-11,-50,-85,-103,-66,-21,-68
14,-26,20,-16,-11,-28,-70,-60,-59,-122
-11,-91,-28,-58,-26,-12,-4,31,115,15
-173,-239,-91,-63,31,84,154,179,262,49
-60,-151,-30,-43,23,60,132,208,307,89
130,142,177,81,48,-24,-60,-5,65,24
-29,44,170,103,102,16,-10,0,-32,-15
-61,-62,23,71,90,110,152,106,22,-81
123,23,34,-3,1,5,52,-3,-76,-136
6,-137,-83,-70,-47,2,73,16,-74,-201
-70,-257,-152,-60,-25,24,82,84,114,22
66,-17,1,83,93,50,16,-38,28,136
258,244,81,67,46,-32,-101,-152,-117,117
146,84,19,-22,-6,-9,-48,-9,31,253
-146,-240,-20,-19,76,163,145,140,121,359
-170,-221,-23,8,7,95,113,141,112,368
-17,-29,42,121,-89,-48,-8,16,-4,335
-16,-52,126,254,-85,-100,-81,-135,-259,-109
-86,78,210,260,-44,-91,-106,-169,-355,-471
-126,15,70,90,-36,-56,-99,-171,-386,-569
-217,-182,-19,89,22,10,-62,-147,-330,-561
-198,-188,-2,85,57,74,10,0,-150,-300
-110,-10,70,95,54,48,-23,-14,-116,-169
-293,-73,44,138,50,40,-32,32,-63,-225
-314,-182,14,169,121,109,44,112,83,-54
228,152,131,34,-35,-65,-133,-69,-17,53
289,175,93,-62,-124,-127,-141,-30,54,126
1,-163,-83,-71,-31,24,68,157,186,214
-5,-58,-118,-56,-48,-20,43,93,21,87
118,253,-26,-21,-35,-59,-41,-98,-246,-136
196,254,75,-48,0,6,-34,-99,-200,-117
189,167,76,-68,-68,-58,-101,-120,-140,-55
49,36,-36,-167,-144,-118,-119,-124,-144,-116
-1,-16,-96,-130,-69,-34,-82,-77,-78,-82
52,-9,-187,-87,-49,-29,-92,-87,-54,11
106,19,-181,-78,-68,-65,-77,-90,-42,72
49,-29,-134,-94,-78,-56,-67,-51,-17,48
-55,-100,-39,-55,-13,7,10,33,64,63
-121,-207,-70,-33,49,78,126,218,282,283
-10,-221,-84,-23,77,129,160,309,431,583
115,-160,-102,-106,-65,4,90,286,472,604
91,-169,-106,-134,-83,-6,138,342,577,535
208,26,45,15,42,67,114,203,482,579
253,176,110,60,36,43,81,143,424,624
172,209,157,107,76,40,47,89,260,514
43,162,191,159,133,34,-12,-65,-71,29
26,175,158,169,134,41,-41,-172,-306,-509
-62,109,100,76,47,-26,-94,-229,-414,-791
-18,47,73,35,5,-53,-142,-219,-301,-476
-162,-37,98,123,78,24,-49,-164,-229,-696
-192,-34,114,169,63,-22,-66,-177,-209,-701
-217,-294,-168,-63,-6,0,39,-13,-109,-167
-181,-292,-221,-184,-20,67,156,126,13,-143
-291,-339,-160,-145,71,184,293,305,281,9
-50,-76,51,13,184,208,179,100,149,37
166,63,69,-71,-2,-33,-106,-149,-50,-51
-95,-285,-119,-165,-55,-10,10,54,147,-15
-149,-223,-80,-121,-30,-1,50,94,240,21
509,419,147,-63,-113,-220,-261,-201,-16,166
182,17,-36,-93,-54,-99,-77,24,322,565
141,84,62,17,38,-32,-18,-84,33,315
-21,92,78,37,39,-23,-4,-147,-264,-117
-219,-20,33,43,65,40,91,-54,-246,-186
-87,-49,1,11,45,46,108,30,-112,-130
21,2,-37,-67,-46,-42,32,71,41,-106
47,102,32,-27,-61,-80,-44,-18,54,-142
2,59,49,41,-15,-15,14,11,133,-93
-36,-19,10,24,-6,8,45,66,216,30
108,49,4,-33,-68,-69,-78,10,145,136
152,119,23,-51,-90,-111,-120,-10,138,105
-10,17,10,-14,-18,-32,-27,30,233,147
-155,-106,24,96,141,131,99,69,220,175
-173,-60,32,104,130,132,89,0,26,-14
-7,114,35,41,-15,-64,-139,-214,-226,-196
0,99,45,51,-25,-118,-205,-269,-309,-406
-65,-29,14,63,43,-17,-73,-88,-160,-364
12,-41,-35,5,-14,-27,-10,32,-88,-161
86,-13,-63,-64,-98,-103,-10,108,-90,48
121,93,35,16,-24,-65,32,84,6,170
129,135,58,13,-26,-67,46,11,52,134
92,59,29,12,0,-9,106,32,108,178
-46,-23,-2,54,59,88,183,101,71,123
-106,-115,-38,85,119,163,239,189,105,45
-143,-128,44,229,258,234,225,170,155,51
-7,-65,100,223,121,55,-54,-86,-33,26
-189,-108,59,123,96,60,-29,-88,-116,-285
-295,-93,-1,-52,93,112,66,-13,-95,-314
44,25,0,-124,-53,-55,-91,-51,46,43
161,241,-32,-45,-70,-76,-97,-17,117,-7
149,151,-25,5,-64,-75,-96,-33,67,43
-125,-30,23,48,39,71,65,44,33,-19
-350,-206,-110,17,67,143,154,160,87,-35
0,27,-9,100,88,50,-43,-54,-124,-125
336,205,64,29,-49,-154,-266,-267,-257,-158
174,-15,7,-44,-68,-121,-150,-113,-53,-76
-38,-242,-93,-132,-75,-45,-4,50,100,-17
-57,-218,-130,-211,-139,-50,-20,51,50,10
11,-105,-83,-188,-135,-47,-63,15,21,77
110,155,77,-25,-40,3,-33,28,35,147
105,328,220,128,53,23,-19,-15,-56,101
-212,42,166,199,172,170,163,121,36,57
112,102,84,116,16,-21,-38,-72,-127,-42
186,163,-110,2,-129,-180,-223,-222,-257,-221
26,21,-213,-45,-82,-112,-151,-136,-124,-143
8,-18,-120,-68,-14,-29,-83,-65,-33,-58
34,-3,-57,-89,-51,-39,-82,-60,-55,-84
-208,-234,-96,-24,-32,-8,-2,-10,-54,-125
-347,-385,-78,176,23,53,148,56,16,-109
-91,-84,81,449,-30,-69,96,21,79,-90
11,88,403,715,23,-131,-14,-68,97,-30
5,72,428,658,75,-103,-77,-110,45,79
71,-11,87,257,-37,-127,-126,-51,123,311
55,-141,-292,-123,-114,-109,-110,19,164,412
-91,-195,-385,-332,-86,10,-14,93,67,339
-153,-89,-150,-419,1,152,131,155,5,187
249,160,-108,-518,-92,79,25,59,-154,-325
235,75,-169,-440,-87,90,88,131,-79,-226
124,-32,-90,-304,-45,77,112,99,2,-101
87,-94,-102,-237,-16,74,115,81,20,-16
-46,-138,-75,-132,46,145,186,144,22,-120
-321,-202,-2,6,174,248,270,248,101,-90
233,226,174,-24,-24,-110,-201,-138,-186,-49
-262,-125,9,-21,100,139,165,147,44,-80
134,115,75,-48,-19,-44,-52,-32,0,34
250,203,123,-21,-79,-158,-203,-177,-143,-3
89,34,45,-12,-55,-106,-127,-123,-163,-19
72,-26,-34,-38,-56,-69,-57,-65,-111,-3
44,-7,-91,-17,-22,-25,0,0,-73,-6
7,24,-10,-44,-15,-3,3,-8,-159,-17
103,65,19,-111,-99,-93,-88,-54,-165,101
148,64,-7,-98,-78,-66,-51,5,-80,174
97,0,-8,-77,-60,-44,-13,38,-33,187
105,-98,-67,-45,-40,-14,10,95,167,585
260,15,-49,-16,-37,-2,3,129,295,713
198,-18,13,29,28,98,113,268,427,551
346,37,187,123,121,120,96,222,499,564
380,83,168,28,23,15,-11,106,444,595
117,33,3,-129,-77,-62,-70,53,273,401
-398,-96,-39,-46,60,65,48,73,-13,-249
-467,52,96,4,73,38,-2,-117,-358,-731
-407,-58,33,-25,13,-12,-38,-193,-454,-701
-598,-471,-133,-19,61,76,68,-20,-221,-422
-211,-272,-70,-18,-27,-31,-59,-66,-131,-155
212,310,165,36,-53,-86,-139,-173,-181,-114
163,346,216,98,34,9,-75,-136,-163,-112
95,179,91,56,48,44,-24,-87,-139,-66
-88,6,31,77,105,112,78,-21,-112,-142
-145,-7,13,52,39,0,-51,-87,-182,-344
-260,-41,-41,0,-36,-79,-144,-116,-251,-470
-204,-81,-53,-14,29,14,-52,-36,-124,-300
28,-33,-83,-69,0,1,-42,-84,-119,-235
-121,-74,-88,-40,22,53,55,-49,-136,-303
-227,-134,-65,16,97,129,135,5,-102,-274
-48,-107,2,67,11,25,67,14,134,87
-102,-245,-2,100,26,53,195,187,320,251
-105,-232,32,127,75,80,181,209,397,435
131,-96,85,157,154,136,119,23,216,475
330,-184,-196,-137,-114,-50,10,113,375,665
420,41,-43,-109,-160,-147,-87,147,358,511
381,411,228,47,-63,-138,-124,-14,102,107
174,346,123,-12,-111,-163,-127,-76,-16,-128
-126,95,29,19,-16,-11,50,11,-91,-178
-209,11,15,28,18,31,99,1,-286,-331
-48,101,-24,15,-11,-27,-27,-106,-340,-386
73,159,16,55,23,-21,-100,-198,-308,-373
-92,39,32,85,79,65,-9,-130,-247,-399
-144,-26,-65,68,83,84,44,-73,-195,-332
-57,-16,-12,35,50,34,10,-81,-82,-194
26,-4,20,17,13,-14,-30,-97,-15,-122
-8,-37,-23,21,15,2,-11,-53,17,-81
-46,-76,23,38,46,56,2,10,28,-31
-3,-88,46,47,56,75,8,62,117,113
-1,-93,18,34,44,72,41,93,194,248
-214,-530,-192,-56,16,133,195,323,414,383
-64,-88,45,100,34,85,105,175,262,278
-14,108,168,245,90,83,42,62,99,360
148,47,-20,-28,-107,-87,-100,6,34,431
145,24,-21,-83,-63,-42,-103,-97,-199,-35
-253,-232,-103,-79,49,158,135,102,-128,-313
-225,-277,-177,-209,-101,48,103,204,118,58
323,155,-28,-249,-311,-272,-267,-164,-163,145
218,228,113,-25,-119,-156,-230,-267,-339,-101
31,129,90,55,-37,-47,-131,-190,-333,-334
24,65,47,10,-49,-35,-104,-111,-301,-371
-108,-103,-35,-31,-1,30,8,13,-168,-223
-277,-231,-91,-30,46,57,71,68,-100,-207
-149,-133,-42,-14,25,-16,-48,-55,-168,-238
-40,-18,25,-4,15,-30,-111,-191,-300,-321
-103,-55,36,39,46,3,-72,-117,-196,-234
-93,-131,9,79,100,55,-23,-45,-100,-123
-81,-189,-21,163,192,137,64,30,-2,-37
-25,-91,-44,194,182,64,-7,-52,-44,-87
45,58,52,150,38,-98,-143,-187,-149,-124
11,-12,18,104,-19,-93,-71,-92,-52,-40
-72,-97,-138,48,-49,-53,-7,-31,-21,-69
-156,-177,-187,-73,-75,-17,35,35,45,-50
-100,-203,-130,-179,-105,5,53,136,172,80
-225,-331,-138,-124,-26,112,174,272,329,222
-163,-452,-206,-138,-4,141,264,350,515,499
400,-21,-38,-142,-121,-79,-14,117,351,535
498,388,180,-64,-144,-199,-214,-147,-17,262
313,241,101,-50,-84,-124,-151,-145,-40,331
206,-16,-75,-95,-69,-50,-46,-13,132,536
-26,-279,-116,-10,52,80,103,107,263,404
-19,-316,-56,47,100,87,145,180,423,309
7,-107,137,201,188,109,107,127,348,148
-176,0,312,425,346,213,118,54,148,-30
95,162,211,324,145,12,-61,-126,-72,8
146,157,-26,15,-128,-200,-198,-205,-226,-197
90,196,33,-123,-113,-131,-133,-164,-267,-374
141,277,96,-165,-82,-97,-117,-174,-225,-363
8,172,52,-119,-61,-67,-77,-112,-125,-368
-39,31,-25,-114,-71,-80,-41,-69,-136,-369
-113,-56,-25,-7,23,-22,-63,-59,-99,-310
-144,-137,-133,55,121,42,53,0,49,-229
-74,-200,-231,110,116,43,85,29,71,-189
-104,-271,-156,210,146,71,119,45,-6,-158
-266,-505,-122,157,67,37,121,84,-8,-103
-271,-332,-22,-5,-54,-51,68,17,-61,-161
138,224,154,-190,-167,-128,-51,-90,-107,-92
343,186,95,-265,-166,-121,-87,-93,23,80
281,25,25,-176,-50,-12,6,33,191,159
86,-118,-61,-107,81,131,146,183,229,140
-179,-310,-47,-47,153,206,220,217,187,130
-372,-477,-64,58,231,301,313,278,271,247
-59,-289,-33,7,50,91,119,190,313,417
118,-45,113,29,-68,-109,-118,10,146,270
241,-5,160,80,-22,-87,-94,-6,186,377
-40,-270,-46,-5,19,50,100,150,231,141
-92,-274,-124,-116,-73,-22,47,130,128,44
322,19,0,-136,-166,-212,-224,-179,-243,101
484,165,88,-96,-159,-250,-351,-380,-338,150
253,56,38,-80,-105,-157,-241,-278,-225,19
182,28,23,-55,-62,-97,-148,-174,-136,35
149,20,-19,-64,-74,-93,-116,-107,-94,123
-6,-77,-66,-63,-41,-25,-30,23,99,146
-186,-204,-118,-47,-7,44,60,164,312,111
-108,-148,-162,-59,-44,0,29,142,298,72
1,-5,-129,15,19,32,18,58,68,-115
-174,-164,-184,138,203,254,235,228,68,-149
-293,-287,-119,202,312,373,372,328,120,-178
-234,-194,28,141,192,221,216,199,59,-310
-57,41,58,19,-21,-15,-16,30,-11,-294
-61,75,-10,-62,-110,-102,-67,28,14,-125
17,162,95,25,-24,-49,-91,-29,-90,-102
-143,239,200,106,21,-55,-143,-148,-285,-417
-81,262,168,53,-82,-145,-173,-212,-381,-533
-1,188,139,63,-26,-62,-77,-94,-124,-153
284,217,115,25,-33,-63,-149,-221,-199,217
179,122,29,-14,-55,-64,-91,-140,-238,153
108,67,-48,-35,-47,-47,-60,-93,-227,47
22,-47,-38,-52,-25,-3,-41,-50,-168,-50
-68,-116,-67,-68,-29,0,2,2,-101,-172
-6,83,10,-32,-56,-66,-52,-67,-118,-195
-142,-2,1,26,28,37,56,25,7,0
-137,31,44,91,49,35,-20,-50,-127,-111
-131,1,8,132,65,62,-9,-11,-107,-182
-293,-251,-36,176,147,162,131,85,14,-101
-474,-683,-255,73,176,276,335,273,195,61
-424,-555,-271,46,196,339,415,432,398,210
-328,-6,36,89,147,212,218,240,270,259
245,465,151,-121,-139,-134,-158,-77,64,328
721,705,209,-213,-248,-278,-322,-203,14,213
566,508,98,-199,-222,-223,-264,-157,88,119
461,371,-17,-161,-220,-255,-269,-200,71,111
343,291,36,-83,-147,-190,-198,-128,130,266
132,144,13,-63,-96,-110,-98,1,148,393
-81,-8,-47,-61,-41,-8,3,74,68,245
-273,-166,-107,-84,-14,44,100,127,32,-20
-168,-61,1,32,51,56,120,91,-87,-281
193,257,207,184,103,29,27,-53,-171,-211
202,245,208,206,70,3,30,-50,-67,-100
11,138,130,197,85,15,40,-62,-121,-273
-311,-180,-52,-43,48,83,95,50,-60,-255
-323,-196,-42,-94,72,143,161,123,45,-172
-48,28,58,34,91,27,-48,-132,-142,-164
86,73,6,-77,-51,-85,-101,-146,-71,-28
72,-55,-56,-125,-88,-88,-46,-5,86,177
-168,-229,-92,-83,-12,16,95,139,191,171
-368,-352,-143,-113,27,111,241,246,322,194
123,-72,-65,-139,-35,32,120,82,185,276
305,125,61,-26,-14,26,40,-48,-35,40
187,121,117,28,-19,-14,-19,-126,-171,-166
145,56,82,8,-46,-37,-15,-80,-101,-134
88,-54,77,72,44,49,20,-5,-29,87
94,-45,120,108,76,44,6,-48,-28,61
154,19,90,74,13,3,-30,-107,-108,-8
-60,-141,-71,-4,-30,11,20,-6,-44,31
-7,-180,-155,-62,-83,-55,-35,0,30,116
274,-18,-15,-100,-150,-180,-153,-88,40,84
102,-11,98,23,-13,-45,-58,-63,16,-51
-39,-185,-85,17,49,52,87,48,30,25
-76,-178,-31,20,55,41,74,21,23,-6
-230,-340,-130,-29,30,68,148,163,159,67
-108,-307,-113,-59,6,57,151,177,191,159
-236,-271,-4,110,151,145,145,97,99,104
-99,-375,-124,-14,4,11,33,16,59,246
96,-245,-91,-56,-76,-53,-33,-18,40,189
237,297,203,28,-68,-115,-121,-156,-93,-37
-31,225,216,110,21,-16,-9,-59,-33,-64
9,-42,65,83,17,22,77,75,170,66
138,103,163,215,38,-35,-54,-90,4,-30
218,17,9,-63,-107,-107,-103,-70,34,266
48,-192,-148,-189,-93,-5,23,94,144,401
-145,-341,-196,-172,-35,106,140,224,194,408
214,221,119,-50,-87,-105,-174,-191,-217,78
67,157,46,-24,-50,-53,-72,-137,-234,-309
-108,72,-25,-50,-52,-53,-39,-122,-356,-593
-144,-1,7,-52,-50,-66,-38,-103,-345,-496
-72,-7,19,-9,-44,-60,-27,-84,-213,-334
-182,-90,43,67,47,61,106,7,-147,-284
-427,-328,-24,91,114,180,245,131,-104,-228
-244,-277,-65,-31,-2,89,138,90,-37,-78
54,12,4,-74,-73,-25,-39,-15,-51,-59
-47,-27,19,20,63,59,-7,68,50,32
34,-36,49,90,132,60,-33,35,19,183
110,-67,-4,24,34,-34,-100,7,33,262
-7,-137,-88,18,28,-9,-33,90,188,332
42,-33,-82,58,14,-55,-79,-9,80,276
126,84,-14,32,-90,-168,-141,-114,-54,135
0,-7,21,92,39,-9,37,23,54,81
19,76,1,-7,-21,-83,-84,-10,-34,-118
149,158,18,-38,-82,-152,-171,-125,-188,-266
136,104,34,-41,-70,-120,-134,-100,-81,-174
120,116,39,-62,24,6,-9,25,104,37
44,40,-4,-31,30,25,55,132,247,152
-238,-139,-67,87,175,180,146,164,177,160
-310,-243,-39,83,194,228,199,185,124,136
-121,-220,-63,9,82,110,129,150,129,88
155,90,4,-63,-93,-126,-102,-66,-55,-102
220,304,85,-44,-142,-207,-209,-257,-269,-221
77,171,48,7,-85,-113,-99,-181,-190,-208
81,95,24,0,-60,-59,-19,-85,-72,-125
10,63,42,12,-4,0,47,-7,-9,-96
-74,20,45,27,15,23,74,-1,-69,-221
-34,-3,3,-12,-27,-26,24,-61,-150,-303
0,-9,-31,-6,-57,-39,-36,-73,-158,-251
-62,-47,-45,20,-36,-28,-21,-46,-86,-176
-103,-67,-16,51,11,-18,11,-25,-36,-101
-154,-152,-14,115,54,21,37,2,-42,-23
-209,-358,-125,117,63,89,77,134,84,152
-295,-509,-117,106,131,168,141,219,283,171
192,321,32,-122,-73,-68,-116,-58,85,211
166,197,-3,-103,-28,10,-14,10,79,292
187,179,-15,-151,-100,-60,-43,12,101,420
236,170,-16,-130,-106,-88,-86,-19,103,432
123,134,0,-31,-16,13,-7,9,35,171
-108,9,-91,5,47,81,88,44,-149,-314
-139,-71,-85,-4,49,75,78,28,-253,-460
-88,-67,-8,84,87,64,13,-56,-245,-232
-216,-47,42,208,178,129,57,-50,-248,-209
-166,50,2,236,172,92,35,-68,-277,-256
88,141,16,155,91,0,-61,-152,-300,-193
-140,-17,14,70,89,80,53,-41,-217,-267
-491,-243,-17,13,116,215,261,190,-62,-259
-134,-44,84,-53,23,111,147,128,-92,-193
212,137,126,-49,-4,36,-5,26,-65,-91
167,-58,-48,-73,-42,1,4,135,183,212
156,-37,16,-6,-11,10,65,120,152,215
403,427,219,-24,-69,-102,-104,-82,6,196
407,511,260,-25,-76,-125,-121,-134,28,120
132,205,52,-42,-56,-71,-42,-52,102,-32
-245,-236,-162,-109,-14,64,29,147,155,-93
-382,-300,-107,46,204,296,231,260,151,39
-147,-59,-14,13,50,78,-30,-41,-100,-36
205,135,5,-90,-134,-152,-223,-159,-145,-53
208,80,6,-88,-117,-119,-178,-76,18,62
-132,-151,48,96,110,116,56,112,324,231
174,-52,27,20,12,-6,-36,48,399,490
525,161,16,-127,-175,-226,-226,-108,258,523
218,75,35,-57,-90,-134,-132,-68,199,252
148,54,32,-41,-51,-83,-83,-124,-8,-7
-234,-86,39,16,55,56,44,-41,-64,-278
-271,-118,24,23,76,94,93,-8,-99,-456
-258,-162,-26,-11,49,84,73,-60,-267,-408
-209,-188,-107,-106,-64,-27,-1,-71,-265,-288
-117,-152,-80,-63,-52,-17,13,25,-13,-114
-273,-380,-59,53,135,172,189,155,176,-21
-292,-536,-139,-35,59,112,144,146,134,-90
325,512,279,141,-12,-117,-187,-237,-166,-283
68,226,150,129,27,-46,-79,-128,-71,-203
-57,50,40,85,23,-22,-19,-74,-67,-64
-17,70,11,14,-19,-40,-65,-68,1,-12
-157,-10,3,53,-11,-22,-80,-63,17,-53
-190,-49,-85,-20,36,52,94,95,246,190
-183,-61,-153,-143,-38,-6,39,88,259,285
-89,-111,-145,-15,72,166,220,261,295,144
325,309,75,-28,-117,-115,-99,-40,-8,-90
318,365,123,-58,-185,-208,-215,-150,-85,-169
220,265,69,-36,-125,-131,-151,-133,-97,-98
125,137,-18,-83,-117,-93,-78,-60,-43,-18
4,76,-28,-56,-66,-27,-6,14,49,44
-63,55,-5,1,-6,7,23,37,57,70
-14,75,-20,-11,-48,-33,-6,0,15,33
88,63,-28,-37,-73,-67,-33,-34,26,43
36,46,-13,11,-18,-15,-16,-20,25,-13
-24,42,21,59,59,47,7,-7,-19,-48
55,45,-117,4,-42,-30,-72,-23,87,173
-10,-44,-72,37,-13,12,-12,24,107,205
-43,-140,-96,39,10,43,35,76,69,156
95,7,-24,56,45,14,-28,-25,67,207
188,148,6,15,35,1,-67,-116,-80,97
-61,-29,-6,5,114,116,95,83,107,102
34,106,89,61,16,-40,-93,-83,-90,55
117,85,52,42,-11,-56,-68,-28,21,176
51,3,10,33,1,-17,-11,58,108,328
-7,-38,3,18,48,54,45,126,83,306
-36,-67,-114,-35,42,59,59,101,50,156
-39,-158,-197,-46,46,91,97,158,208,212
53,-126,-51,61,144,186,162,220,309,407
-25,-103,-29,66,101,141,105,151,101,249
-314,-105,0,-16,2,27,8,-95,-354,-600
-370,-184,-111,-167,-124,-41,32,13,-167,-477
-137,-136,-84,-162,-136,-91,14,60,-23,-139
149,132,162,44,37,4,32,-64,-117,-91
227,211,178,30,-13,-47,-3,-77,-57,-135
150,106,39,-54,-95,-78,-13,-16,-57,-88
112,-43,-93,-123,-116,-58,28,70,150,86
239,39,-99,-101,-121,-111,-40,11,157,227
195,119,-26,-1,-27,-39,-28,-11,60,242
94,-22,12,48,75,53,34,56,169,470
-120,-111,-30,35,74,46,30,66,39,143
-236,-102,-41,17,56,2,-21,-74,-142,-438
-458,-304,-61,112,205,192,174,98,0,-459
-338,-232,32,244,350,328,258,128,5,-279
-139,-279,-86,58,114,103,53,-2,-89,-212
-320,-425,-116,30,55,76,61,12,-81,-186
418,684,287,33,-187,-299,-324,-455,-528,-331
69,34,20,24,-45,-65,-27,-70,-66,-94
29,-131,-99,-30,-71,-61,14,51,88,15
269,283,53,24,-53,-77,-20,-16,32,143
239,218,78,19,-55,-60,5,6,69,195
3,62,71,115,29,47,115,14,-101,129
-160,-65,-71,87,48,58,107,-32,-310,-73
-148,-188,-71,-45,-54,-39,39,1,-80,-118
129,10,6,-30,-110,-164,-156,-124,-49,5
-78,-127,37,251,82,-5,-10,-3,-33,-1
-5,-159,-65,210,64,13,0,147,256,427
-351,-457,-150,94,209,258,310,455,605,587
-92,-246,-35,-87,122,221,255,321,421,484
337,253,122,-224,-146,-135,-179,-168,-200,-89
296,314,-46,-247,-249,-212,-184,-123,-134,-108
242,146,-39,-153,-147,-106,-61,-4,15,-13
155,26,-21,-84,-77,-22,26,101,120,30
219,95,66,-37,-36,0,29,128,110,171
466,346,138,-45,-106,-141,-150,-114,-128,188
282,248,75,-40,-101,-125,-115,-141,-139,19
-96,-21,-21,-24,-6,6,37,-25,-95,-160
-193,-163,-100,-74,-6,9,31,-18,-144,-223
-168,-92,-23,17,102,88,52,-57,-234,-232
-181,-119,-78,-5,40,11,50,-9,-25,-110
-373,-243,-60,113,134,108,118,88,17,-163
-720,-528,-79,245,325,340,342,357,332,7
-545,-540,-51,292,366,345,308,325,474,307
77,-70,64,151,125,31,-62,-81,11,8
310,396,147,-46,-148,-266,-325,-316,-277,-290
162,340,85,-123,-155,-217,-233,-214,-202,-223
131,182,17,-150,-117,-131,-127,-92,-80,-60
153,188,16,-125,-116,-97,-103,-40,-71,-8
110,219,37,-51,-75,-49,-88,-27,-115,16
46,135,35,-13,-39,-31,-56,-9,-21,88
64,19,-8,-50,-59,-45,-6,35,169,222
122,5,-59,-96,-82,-73,-11,19,220,324
173,1,-216,-91,-91,-89,-56,9,241,510
142,-3,-136,-52,-42,-26,-4,52,337,457
73,-117,-118,-83,-77,-48,-26,60,333,320
-1,-161,-135,-72,-57,-19,-22,52,162,167
-51,90,-16,55,42,44,-24,-50,-193,-332
-146,120,79,64,52,43,-4,-76,-356,-698
-189,-57,0,-1,20,38,27,-44,-338,-643
-256,-200,-58,-20,50,99,106,59,-247,-436
-284,-155,-3,35,96,138,129,77,-185,-236
-365,-164,40,109,159,192,165,101,-68,-91
-80,-30,97,71,83,85,30,15,-21,104
226,186,119,-10,-80,-94,-133,-90,-146,104
45,47,86,52,-24,-16,-30,18,-80,27
-99,-79,70,131,48,32,12,21,-164,-169
-102,-64,79,177,101,68,36,1,-235,-272
-54,84,122,102,112,79,43,-12,-187,-177
-88,49,56,24,120,125,88,17,-144,-87
-145,-65,-174,-140,-48,0,7,-29,-124,-162
106,140,-46,-69,-66,-106,-175,-229,-263,-157
222,200,73,-42,-75,-145,-226,-227,-202,-42
102,113,-73,-94,-86,-132,-147,-129,-97,-4
19,12,-183,-71,-46,-61,-58,-39,-12,53
-5,-28,-152,-60,-37,-43,-22,-3,39,75
-37,-45,-43,-37,0,-4,-1,-9,25,0
-24,-19,22,-28,-2,-18,-23,-37,-23,-112
-49,-41,69,-16,-30,-53,-39,-36,-6,-28
-37,-50,130,124,-11,-72,-52,-43,-38,64
53,-54,94,93,-49,-86,-88,-2,24,155
89,-12,74,38,-36,-74,-97,-30,-21,78
7,-1,-7,-66,-33,-32,-12,5,-10,-1
-65,-88,-108,-159,-27,39,118,116,105,59
-58,-89,-92,-116,14,93,146,101,136,128
47,-14,-25,-79,-12,50,68,10,88,169
25,-16,19,-49,-7,45,56,43,106,114
-107,-61,98,57,116,148,125,93,168,126
64,-1,111,49,94,116,90,55,133,154
81,-10,1,-33,21,82,114,127,128,77
-12,-45,-22,-26,18,88,154,230,240,130
175,153,110,31,29,-16,-26,29,70,3
187,121,100,46,65,26,12,17,94,88
129,-133,-117,-49,-14,15,37,65,186,389
-100,-485,-258,-77,3,59,121,143,217,387
-107,-294,-94,5,69,78,154,128,159,239
251,266,93,0,-33,-76,33,-41,41,200
391,500,181,52,-40,-98,-34,-214,-187,-50
313,364,155,-1,-87,-135,-88,-253,-243,-193
210,153,46,-62,-104,-126,-86,-178,-89,-77
71,26,1,-38,-42,-71,-75,-143,24,-22
-78,-26,-3,-28,4,-41,-84,-119,27,-139
-81,-11,26,2,17,-42,-108,-132,-45,-270
-26,-14,15,3,-5,-71,-152,-124,-75,-233
-40,-158,-172,-33,-32,-78,-120,-25,92,-89
-137,-275,-275,28,46,6,-22,66,213,23
-131,-119,-113,142,151,101,61,59,171,58
-17,14,12,59,43,27,6,93,172,159
151,126,42,-11,-68,-84,-52,102,299,288
187,115,120,5,-13,-50,-27,36,275,282
56,111,-41,-100,-38,-95,-81,-65,37,164
-51,149,49,7,28,-18,-48,-71,-21,36
-70,167,153,78,80,8,-3,-72,-53,-194
-105,79,129,64,91,46,43,0,47,-145
-107,-13,84,85,100,106,141,154,320,4
6,64,90,39,11,-8,20,67,252,39
-58,80,94,37,-12,-38,-38,-32,88,-68
-144,-107,-21,-5,7,55,123,46,61,131
-506,-355,-266,-78,-5,99,177,101,-214,-296
-188,-49,11,16,-50,-111,-130,-168,-340,-522
84,125,157,89,-57,-190,-244,-286,-375,-472
-62,57,106,59,-15,-84,-92,-120,-225,-403
-251,30,102,130,121,92,100,30,-136,-299
-127,-3,31,107,66,58,99,38,-55,-79
44,63,62,71,-43,-68,-28,-27,-102,24
173,84,60,27,-70,-69,-53,-22,-25,174
138,34,2,-52,-104,-87,-79,-21,69,175
217,97,-26,-92,-122,-119,-128,-102,-37,49
182,95,-9,-85,-82,-68,-44,-62,-63,9
159,55,-6,-110,-82,-34,-2,-21,24,62
126,2,-34,-104,-77,-44,16,11,104,95
112,-6,-26,-55,-26,-9,26,11,121,145
163,87,-34,-85,-91,-81,-119,-71,-118,163
9,15,-63,-42,-64,-45,-77,-56,-136,73
-39,-13,-35,3,-32,-36,-31,-36,-68,-1
-130,-58,-51,63,27,6,34,3,27,-104
-172,-76,-27,90,69,31,43,8,22,-158
-131,-92,-61,43,53,13,49,20,27,-103
-121,-93,-42,-4,46,34,73,52,18,-88
-242,-155,-7,24,122,140,163,76,21,-186
-280,-148,26,65,190,214,255,165,114,-181
154,43,-35,-119,-112,-89,-16,68,225,280
125,30,18,-52,-31,-43,-19,16,132,132
-21,-73,22,-13,24,-29,-40,-51,-75,-50
53,158,164,139,153,98,61,3,23,6
0,-85,5,108,28,17,25,106,259,411
-81,-17,104,235,134,101,86,31,2,-54
-294,-170,-25,123,176,204,229,171,30,-193
-158,-97,-1,50,192,170,121,93,-109,-224
77,70,65,-13,100,60,-8,-22,-130,-30
176,143,32,-172,-106,-129,-169,-118,-116,120
115,111,-3,-212,-157,-178,-217,-161,-207,-71
-125,-151,-61,-34,44,88,91,171,142,136
92,88,17,-33,-58,-56,-88,-4,136,59
147,63,-12,-72,-77,-74,-84,51,207,491
235,-9,-90,-131,-124,-87,-53,59,293,599
288,-34,-136,-196,-190,-124,-77,11,250,533
162,-149,-218,-214,-174,-72,-28,74,259,487
167,-64,-127,-143,-129,-56,-29,67,159,486
177,209,139,54,16,48,7,24,-48,174
-63,159,187,152,120,151,99,19,-262,-272
-40,85,108,64,23,36,-5,-106,-345,-348
-17,7,69,21,-12,4,-6,-60,-272,-455
17,36,34,64,12,15,-3,-68,-308,-470
-70,-49,2,60,13,32,67,20,-93,-342
-116,-74,107,75,37,45,83,17,-62,-416
-136,-25,123,74,75,56,48,-90,-252,-530
-214,-21,43,19,66,77,41,-40,-316,-505
-246,-65,-55,-30,37,79,46,9,-236,-388
-87,-113,-124,-51,19,66,52,47,-7,-122
-61,-11,-14,67,51,38,-42,-70,-172,-67
-55,-121,-86,15,41,40,19,20,-2,31
108,111,61,21,-15,-39,-61,-70,-115,46
16,60,56,30,-10,-27,-76,-52,-146,35
4,-5,-8,22,0,29,11,47,105,166
-5,-61,-97,18,47,86,67,74,51,173
-367,-421,-79,62,132,191,263,282,380,79
-152,-261,-55,28,68,93,133,186,291,167
256,132,-19,-117,-129,-153,-158,-112,-64,98
79,-23,-97,-127,-119,-107,-77,-46,-75,-19
46,127,12,-28,-39,-54,-74,-85,-87,-134
104,320,85,36,0,-39,-108,-113,-86,-175
108,60,-20,-26,-30,-2,-4,-2,101,96
130,62,-39,-36,-33,-14,25,26,156,165
61,48,3,-20,1,11,57,54,120,166
25,46,19,0,12,24,21,63,67,157
91,66,3,-13,-5,9,27,44,53,135
35,6,-27,9,-8,25,89,49,56,110
3,-19,-5,106,8,31,111,51,20,143
39,-4,-30,107,-63,-38,27,-15,-112,119
-8,-12,-66,-102,18,50,26,43,155,194
-60,-94,-38,-61,74,112,93,170,302,291
20,-48,-16,-19,66,92,90,182,289,348
204,224,97,-3,36,27,25,89,265,348
-291,-44,91,173,189,169,165,107,136,-125
-98,54,2,35,-53,-90,-141,-136,-254,-379
-132,-66,-138,-15,21,51,11,-42,-153,-53
5,-22,-42,-37,-39,0,-4,-28,-57,-48
-140,-74,35,97,114,135,122,137,104,6
-60,199,222,224,152,82,-31,-63,-133,-101
184,294,40,-73,-107,-149,-199,-183,-136,-204
48,141,-22,-93,-57,-57,-38,-44,-57,-107
-68,-41,-115,-51,-11,0,21,12,-34,210
-29,20,-21,-15,-4,5,-45,-81,-283,-65
-246,-60,5,52,64,46,33,6,-25,-53
207,203,93,-30,-125,-160,-212,-139,-92,-7
132,97,-19,-69,-91,-85,-146,-61,-45,154
112,141,-23,-45,-53,-66,-49,-45,0,77
43,71,-41,-44,-41,-40,1,-25,37,62
26,25,-46,-56,-50,-43,2,25,86,198
123,151,45,-2,-26,-39,-35,-11,108,275
201,181,63,12,-11,-36,-61,-50,107,333
156,156,29,-42,-45,-76,-63,-33,97,242
4,121,19,5,16,-3,23,-13,-29,-54
-103,83,-4,21,40,33,68,-12,-157,-358
-237,-31,-20,6,5,-10,4,-51,-158,-305
-231,-117,-42,14,56,40,83,70,20,-100
-122,-4,-86,-5,28,22,67,69,44,-36
66,202,2,-16,-30,-36,-30,-35,-23,-45
62,208,91,37,2,-26,-71,-22,-48,-151
48,209,93,31,9,-47,-78,-80,-49,-196
105,186,-59,-37,-41,-45,-86,-34,71,105
64,191,53,20,6,3,-45,15,115,200
0,157,88,67,72,72,31,69,172,237
-1,97,42,9,38,36,21,69,167,199
-25,-15,-78,-75,-8,16,18,60,59,-110
-168,43,14,35,89,66,55,60,39,-271
-64,47,-11,53,78,28,-34,-26,0,-101
-44,68,44,60,70,60,-27,-15,-123,-49
280,140,-17,-133,-171,-194,-227,-136,-53,155
-30,-120,-142,-73,-48,-28,-31,69,103,104
60,25,-41,0,-31,-31,-51,10,57,49
10,49,-73,-20,-71,-63,-86,-80,-88,-95
-12,108,37,1,-40,-13,-72,-97,-259,-146
-130,-26,-3,16,21,48,31,0,-199,-126
-20,-35,30,46,47,67,73,70,89,135
-73,-110,41,80,95,133,128,112,87,-38
-222,-317,-126,-42,-2,47,100,172,63,-56
2,95,216,198,214,183,72,16,41,67
263,315,315,163,95,32,-97,-146,-30,205
-162,-76,42,101,52,33,-9,13,-8,-329
-14,-86,-102,-93,-78,-45,-17,24,58,-177
-43,-135,-121,-101,6,63,88,159,160,-6
-102,-98,-49,-25,4,57,30,-38,-145,-304
221,119,89,-12,-43,-29,-28,26,107,214
121,28,18,42,29,22,36,48,105,314
121,58,-46,-57,-120,-133,-130,-133,-198,187
160,17,-38,-34,-93,-66,-115,-83,-132,150
-122,-220,-234,14,72,196,175,189,176,-10
53,79,0,-42,-94,-78,-126,-68,-84,-48
76,94,-72,-24,-96,-74,-64,-41,42,100
148,93,57,55,-70,-75,-71,-11,128,252
-111,-21,-32,-44,72,135,171,62,96,-104
-57,-22,-74,-82,26,106,141,89,105,110
17,16,-59,-115,-61,-4,33,9,62,306
171,183,32,-48,-70,-36,-31,-56,69,269
-45,-21,-11,-55,-57,-19,19,0,40,-148
22,37,31,-57,-65,-23,31,10,62,-180
120,36,-105,-27,-49,-3,99,120,228,376
167,103,-30,47,35,60,87,48,154,424
185,215,76,20,-10,3,-35,-74,-94,152
-122,65,57,44,-27,-61,-144,-185,-508,-476
-183,21,28,35,2,-43,-125,-148,-425,-426
-154,27,12,-23,-15,-16,-63,-55,-151,-239
-131,-5,-53,-57,-3,18,-4,-14,-51,-167
-107,-32,-82,-72,-2,21,17,-9,-73,-207
-84,93,72,19,24,-5,-57,-80,-208,-150
24,107,65,17,-7,-34,-81,-99,-43,-53
-117,-97,-6,-3,32,28,10,3,15,-19
-96,-72,20,58,54,20,30,0,-61,-6
30,153,116,112,60,-8,-4,-74,-94,-59
-45,93,77,81,39,3,41,7,33,-31
7,39,12,29,17,-8,-16,10,-5,35
12,28,-21,-48,-27,-38,-33,11,44,78
10,43,18,-60,-36,-14,19,35,145,169
41,-107,-142,-95,-19,-3,50,57,98,395
-54,-210,-188,-93,0,33,101,156,256,338
-86,-229,-160,-48,18,63,101,217,342,177
-22,-180,-145,-105,-77,-30,26,133,262,164
70,-48,-44,-93,-114,-126,-82,14,96,252
264,203,97,-42,-139,-216,-213,-122,-60,162
230,253,107,-69,-121,-184,-162,-117,-109,-202
12,173,122,-21,1,-56,13,-34,-82,-532
-38,134,141,45,86,58,123,21,-75,-521
-15,111,131,63,97,94,122,6,-114,-384
-27,-8,45,19,31,27,25,-63,-150,-82
1,-6,43,34,28,18,18,-82,-226,-99
22,28,30,10,-13,-2,-14,-94,-330,-175
66,41,-7,-28,-73,-38,-78,-114,-328,-167
-60,-8,-9,-13,-57,-34,-35,-58,-108,-80
-128,-10,14,-1,-48,-46,-38,-84,-100,-208
-182,-75,-4,32,12,35,35,-23,-60,-180
-86,-117,-49,27,17,37,43,-16,-93,-69
-77,-179,-109,28,24,54,83,18,-19,-44
-12,-13,0,44,20,53,70,-1,-31,-122
47,107,64,21,-7,4,6,-29,-52,-107
-65,-80,15,52,54,50,36,28,-14,4
-144,-207,-26,58,80,72,41,58,60,28
73,212,81,40,5,-26,-101,-51,30,41
139,111,17,-43,-60,-81,-165,-85,50,138
218,1,-23,-47,-28,15,-57,-1,70,195
209,37,9,-21,-27,3,-43,8,107,226
101,51,60,48,-3,-25,-57,-11,149,177
-100,-57,-86,34,16,40,46,90,161,275
-79,-64,-51,41,27,20,39,59,61,226
-277,-205,13,189,146,112,136,73,-25,-382
-217,-153,37,205,116,68,44,-8,-131,-463
-21,27,108,90,-12,-81,-124,-116,-167,-342
34,38,50,-93,-94,-115,-125,-68,-19,-141
5,-62,-66,-188,-109,-75,-41,33,109,52
-113,-188,-107,-175,-67,-15,70,140,213,150
31,-6,1,-88,2,4,55,47,124,112
17,11,-142,-18,28,21,27,-19,11,28
-41,-139,-184,-26,11,2,19,2,17,99
-67,47,109,94,62,29,-14,-46,-78,-101
60,166,157,79,33,-23,-59,-47,-33,-19
129,129,113,25,26,-36,-62,-21,86,114
97,64,66,19,3,-21,-96,-47,50,148
22,0,25,14,27,4,-55,-19,43,107
1,-27,10,29,27,-10,-72,-51,-37,25
-198,-101,17,90,80,54,5,-8,-117,-247
-339,-155,-6,122,129,106,76,28,-99,-460
-22,-19,66,-13,12,-6,-47,-14,-59,-84
134,58,51,-99,-51,-74,-92,-66,25,192
75,47,73,-81,-28,-47,-64,-56,21,101
-31,-15,3,-35,-12,-9,-3,48,0,158
-120,-115,13,-4,57,80,78,131,214,207
147,-1,-21,-101,-72,-57,-34,-10,83,35
-45,-83,-12,-63,-37,-24,0,63,57,-53
-239,-229,-5,24,62,81,87,152,160,-43
-181,-226,35,84,111,119,99,105,137,-34
240,198,81,-22,-108,-120,-141,-142,-133,17
164,128,40,-22,-72,-86,-110,-111,-92,-52
104,69,-29,-1,-13,-34,-63,-81,-24,-24
51,40,-66,33,27,2,-47,-60,-25,-1
20,7,1,53,50,17,-37,-24,-40,-8
23,-18,8,35,59,33,11,34,58,57
88,-8,-34,14,25,9,20,18,69,85
35,-44,-29,21,24,20,79,40,50,58
14,-38,48,81,44,33,107,59,41,72
37,-13,72,135,33,7,75,27,38,69
-53,-18,81,70,11,-23,-16,-53,-85,-77
26,-11,-30,-85,-47,-53,-30,-54,-47,0
84,29,-70,-122,-65,-43,-25,-61,-54,58
67,-15,-54,-86,-27,8,43,52,194,228
42,-28,-39,-85,-29,-9,21,57,185,255
-249,-191,-120,34,137,147,188,136,69,68
-119,-139,-70,80,159,162,209,135,110,31
130,-3,-19,-28,15,32,119,108,94,7
103,-43,-54,-72,-33,3,139,177,104,20
21,45,68,46,75,109,205,167,121,55
130,169,78,9,3,20,83,35,52,165
138,126,11,-65,-89,-91,-81,-98,-127,63
13,11,-15,-36,-38,-55,-60,-91,-148,-16
-17,23,29,10,-24,-48,-50,-34,-78,-139
72,93,68,30,-17,-85,-114,-90,-57,-24
-4,-8,61,111,107,79,91,65,146,132
-34,-72,-94,-29,-24,-51,-14,-41,-9,-2
55,15,-56,-14,-39,-93,-56,-74,-17,50
114,110,69,119,18,-60,-61,-76,-31,176
109,131,127,223,57,-27,-29,-38,22,282
5,42,96,102,-2,-86,-76,-124,-172,-113
-164,-27,60,25,22,-21,-19,-74,-224,-374
-196,-61,10,-52,0,-24,-52,-106,-275,-423
-196,-99,-32,-80,-32,-53,-98,-149,-363,-373
-171,-87,-52,-96,-41,-31,-72,-124,-307,-263
-132,-95,-98,-93,-31,16,-27,-33,-205,-120
-91,-107,-124,-17,47,95,84,44,-106,50
-231,-179,-117,18,78,151,171,128,-20,25
-143,-130,-76,30,65,154,189,155,22,-24
-125,-150,-68,17,45,126,153,177,69,-18
37,-118,-59,-43,-56,-7,-18,40,4,92
265,106,-10,-73,-141,-106,-130,-74,-46,160
106,66,-13,-32,-19,-9,-5,60,200,64
13,10,-12,-18,12,19,34,94,239,110
85,68,44,33,27,7,-25,-46,-10,94
72,90,19,20,-14,-36,-82,-118,-152,-74
89,95,27,8,-34,-63,-113,-126,-167,-87
-8,20,16,21,2,-23,-65,-61,-35,20
-76,-63,-26,30,44,25,-5,12,101,140
10,-59,-46,11,46,27,0,30,123,108
65,-38,-116,-22,-20,-20,-48,-10,3,5
-22,-32,-41,-17,-21,-39,-39,-30,-53,-138
-39,-14,15,7,20,-8,3,-2,46,-82
47,18,28,2,3,-19,-31,-21,78,104
154,-6,-32,-56,-62,-55,-56,-9,165,316
134,-139,-92,-91,-81,-21,0,101,343,423
86,-176,-90,-84,-50,15,47,173,355,404
110,24,41,7,22,50,59,159,323,277
0,-13,62,28,40,57,53,104,104,-38
-69,110,122,50,47,17,-30,-61,-232,-589
-55,103,88,64,31,-7,-50,-114,-344,-697
57,38,6,-14,-57,-75,-98,-113,-254,-379
117,-15,16,14,9,-4,-29,-36,-83,-123
-15,-65,-86,-132,-138,-58,8,59,5,-160
-290,-111,-34,-37,-34,26,76,66,5,-256
-320,-137,18,77,134,173,171,66,-120,-109
-146,-185,-98,0,54,124,167,154,55,-11
-46,-55,-29,18,33,72,96,111,111,-35
-46,104,133,99,65,33,-18,-105,-136,-268
-35,72,64,53,-14,-74,-105,-212,-263,-352
-29,-18,6,30,-29,-62,-42,-95,-34,-181
-42,-45,-4,41,-6,-57,-44,-95,-14,-122
14,-79,-59,-104,-78,-39,-27,-39,116,156
74,-58,-61,-134,-90,-45,-35,-11,174,211
187,42,-53,-114,-72,-29,-48,10,139,236
-31,5,78,126,69,91,63,40,62,151
50,-19,8,153,68,70,74,96,176,286
-44,-46,79,203,105,82,60,41,-13,16
-229,-213,7,131,64,54,61,44,-63,-262
-254,-283,-86,-14,-28,-6,27,96,27,-309
192,158,51,47,-40,-86,-178,-161,-169,46
58,35,-14,-115,-74,-55,-113,-87,-153,-79
82,-5,-74,-127,-76,-48,-93,-49,-130,2
58,-92,-112,-94,-35,26,-6,45,79,84
110,45,26,-41,-6,27,-27,0,76,70
141,204,96,-24,-51,-30,-106,-66,-90,0
30,123,63,-58,-112,-81,-131,-79,-113,-24
17,-38,-57,-95,-61,-41,-58,-48,3,74
-73,-78,-26,-64,36,44,43,33,90,100
-98,-77,3,-41,34,48,60,39,16,103
-114,-57,5,-31,18,50,65,62,-41,85
44,6,35,-46,-6,13,13,5,23,103
66,-13,17,-47,8,44,39,39,141,133
-41,-80,-37,-58,0,2,19,70,142,137
35,-10,28,-6,33,4,8,27,148,199
122,-11,0,8,46,36,75,98,228,222
188,-18,-40,-71,-51,-25,62,141,317,379
13,-85,-18,-24,22,48,122,187,313,389
-190,-113,17,43,115,130,183,176,162,158
-198,-103,2,11,47,46,96,-14,-191,-241
-116,-64,13,12,23,16,39,-111,-341,-436
31,-24,23,7,11,-17,3,-109,-213,-271
166,30,0,-47,-72,-87,-60,-66,-96,-27
210,122,4,-34,-92,-129,-141,-105,-216,38
222,170,-27,0,-74,-130,-127,-96,-123,93
94,69,-5,-24,-75,-90,-66,-38,24,89
34,9,1,-22,-34,-78,-66,-51,1,72
2,2,10,-8,-5,-72,-94,-110,-115,-34
-103,-39,9,23,39,-9,-67,-106,-124,-136
-138,-97,-57,0,4,10,-11,1,-1,63
47,45,37,66,52,27,26,11,141,187
-24,-47,-20,100,83,97,101,95,169,127
-217,-146,-61,165,162,197,164,134,-3,47
-160,-162,-15,133,140,172,150,155,71,132
77,9,-43,-45,-77,-82,-83,-43,33,141
126,73,-95,-149,-188,-206,-168,-144,-20,87
68,21,-72,-103,-101,-109,-64,-64,0,1
45,73,-32,-21,-25,-63,-39,-8,21,-25
21,76,16,51,47,-4,2,8,83,43
0,71,41,54,32,22,42,17,-17,3
113,137,46,41,3,-6,30,0,9,46
89,138,-5,25,20,4,35,-1,-36,-53
-119,-1,-27,56,97,95,111,47,-119,-165
-125,-106,-22,-8,11,47,52,24,-223,-278
64,64,3,-91,-108,-98,-74,-80,-150,-198
88,148,45,-66,-92,-106,-82,-96,-95,-117
24,82,43,-10,-4,-1,10,0,-10,-13
-39,-140,-29,-9,-40,-7,-27,15,98,-16
-124,45,77,68,39,14,-26,-34,-220,-281
-279,-204,-4,73,102,100,108,77,-11,-253
33,238,160,84,12,-29,-42,-90,-29,-148
-40,-16,7,-38,-7,3,-5,59,66,52
62,128,67,0,9,-17,-63,-37,20,-10
37,7,-18,-47,-4,-1,-14,20,124,241
51,-111,-106,74,12,-8,62,169,376,364
32,-128,15,189,65,41,113,213,454,443
4,97,22,-68,-7,-33,-25,-88,-182,-361
10,21,-33,-139,-13,-7,-36,-127,-368,-274
81,49,-37,-176,-27,7,23,2,-6,-74
76,18,39,-18,48,93,96,91,212,279
165,69,10,-90,-75,-34,11,101,229,374
72,57,24,-49,-52,-40,-10,60,95,304
5,37,81,20,8,-10,23,14,78,256
64,78,68,27,-9,-26,12,-35,-9,107
49,108,24,15,-48,-47,-13,-38,-107,-130
55,65,16,14,-12,-19,8,-34,-136,-264
-121,-50,-29,22,14,27,56,-10,-166,-331
-116,-68,-68,-34,-21,3,59,-3,-134,-261
-81,-19,2,19,22,33,44,-14,-84,-223
-46,28,43,76,29,10,-47,-77,-132,-262
-96,20,42,116,59,31,-26,-67,-203,-257
-177,-46,54,146,99,89,69,-6,-219,-203
-217,-114,10,95,73,77,110,37,-150,-73
-12,-3,-10,21,9,16,53,18,-142,-36
-13,-6,22,15,-24,-18,-12,9,-106,-40
-156,-99,37,63,12,21,0,49,-23,1
129,105,-5,-34,-19,-30,-67,-47,-64,178
243,118,-60,-98,-58,-36,-68,-38,-62,92
122,30,-72,-105,-66,-30,-56,5,25,85
97,74,41,-91,-61,-50,-51,-13,62,80
-65,-98,-222,-115,-12,55,133,163,211,109
-15,-100,-156,-37,51,71,69,79,207,63
83,-100,-61,-8,46,70,56,65,183,137
-29,-145,-76,-8,59,112,83,121,133,118
-54,-51,-65,-20,3,10,5,59,70,59
-202,-125,24,75,121,111,93,98,167,19
-192,-177,57,141,200,235,242,212,309,130
50,-15,71,59,71,112,168,129,216,155
257,329,168,-9,-107,-112,-96,-115,-27,44
128,75,46,-39,-61,-108,-161,-84,77,29
-41,-53,-51,-7,-19,-32,-65,-21,-32,-11
-110,-181,-83,39,18,10,27,31,105,19
-86,-73,-52,103,6,-12,29,35,152,9
-21,49,62,127,36,-21,-3,7,105,9
119,103,42,45,2,-63,-101,-76,-11,38
154,101,17,-54,-30,-53,-111,-82,0,15
95,65,-52,-123,-71,-30,6,18,47,37
83,36,-83,-107,-57,-2,34,50,121,142
155,75,-109,-69,-46,-5,10,20,159,211
128,49,-41,-34,-68,-83,-96,-47,28,137
120,80,68,23,-10,-33,-49,-18,83,90
30,7,44,14,5,3,1,39,112,110
-47,-177,-43,-22,10,43,27,102,104,530
239,330,182,41,-40,-82,-102,-142,-120,216
6,199,142,62,-11,-59,-65,-183,-288,-378
-172,16,48,15,-22,-40,-36,-131,-342,-642
-151,-10,32,0,-33,-36,-42,-98,-355,-496
-112,37,32,26,-24,-38,-41,-113,-314,-432
-141,35,-5,16,-6,-25,-2,-80,-196,-412
-138,1,20,15,-2,1,17,-40,-145,-314
-162,-56,23,16,25,39,69,16,-69,-197
-165,-99,9,28,60,80,124,63,36,-79
-133,-139,-34,5,64,89,157,97,104,45
-115,-201,-99,-30,45,112,161,163,140,159
33,-89,-63,-27,20,60,75,96,124,300
102,79,32,-59,-88,-121,-164,-129,-68,88
96,107,50,-68,-99,-132,-171,-156,-192,-151
15,84,13,-46,-55,-68,-90,-78,-190,-160
-17,39,42,-14,14,-26,43,10,54,-88
-1,2,-22,-17,-18,-30,-4,-2,-11,93
-6,-60,-54,-48,-25,16,44,78,232,233
171,76,-19,-39,-66,-47,-36,84,206,180
94,20,0,-11,6,0,-8,96,265,173
-5,-8,-4,-56,-18,-41,-86,-53,-29,191
-201,-67,14,63,90,66,4,-39,-299,-257
-167,-38,6,42,59,55,20,-9,-289,-341
3,-35,47,108,71,53,10,23,-80,45
179,224,115,47,-70,-91,-191,-131,-202,51
53,69,29,22,-52,-61,-155,-107,-181,-41
23,-22,-14,0,-18,-23,-99,-61,-127,-54
-12,-55,-65,-43,-70,-20,-47,-2,-10,-27
-165,-115,-1,81,72,92,140,113,222,11
-45,-26,27,88,49,59,54,20,21,67
41,-10,30,49,-18,-8,-60,-83,-137,13
-83,-102,11,78,-24,-15,-19,-18,8,-64
-15,-73,49,156,-23,-30,-27,18,170,82
89,-3,91,189,-17,-47,-88,-32,139,207
150,-10,36,85,-39,-69,-92,-24,115,338
87,-51,-33,-68,-23,-22,-13,19,109,346
44,-53,-91,-163,-34,-18,17,51,176,278
131,-20,-115,-190,-60,-20,-24,24,152,117
-30,102,81,35,55,42,17,-28,-74,-288
-182,-48,-39,65,94,95,69,67,76,-155
-268,-183,-64,37,107,162,152,160,43,-275
122,129,2,-95,-80,-70,-52,-100,-27,40
88,76,-26,-12,17,0,6,-63,-25,4
59,48,69,8,4,-10,15,-14,31,18
-2,-1,-47,-165,-84,-59,-6,-61,-23,-35
-11,-8,-20,-79,-38,-29,19,-17,3,-5
53,12,16,2,-8,-6,-30,-8,49,33
60,9,5,11,8,-1,-12,-25,16,60
20,-40,-15,-12,26,11,-5,5,10,85
-12,-11,-11,-16,42,23,-7,9,-20,25
-30,-15,-76,-15,33,23,-5,5,-3,30
-208,-148,-25,30,110,106,90,68,90,-31
-156,-124,33,28,86,101,82,96,151,17
3,-15,39,-19,0,2,6,49,111,65
188,145,57,-60,-77,-95,-73,-32,-38,51
53,100,-23,-39,-50,-54,-23,6,51,16
38,31,19,-5,-18,4,-35,18,-29,19
69,19,19,-13,-8,24,6,48,32,126
-2,-88,-15,-12,29,54,100,139,250,204
-34,-117,-6,25,76,90,150,148,257,154
82,91,28,-34,-65,-29,-26,-34,17,-118
123,75,28,-39,-64,-61,-96,-66,-20,36
24,20,21,-12,-32,-46,-86,-81,-4,-4
-82,-114,-80,-25,-20,-27,-47,-41,-84,-112
5,-21,3,-28,0,4,29,44,128,38
156,146,76,-12,-23,-29,5,-3,116,136
128,96,100,10,-17,20,59,72,74,162
30,54,84,10,-17,15,38,33,25,-150
-49,64,97,66,4,7,17,-28,-102,-372
-106,46,76,77,0,-7,0,-61,-192,-401
-119,-47,-9,19,-20,0,6,-54,-162,-315
100,11,-36,-39,-73,-53,-76,25,12,-197
47,12,8,-17,-42,-4,-25,46,41,-186
-8,17,15,27,18,43,21,75,46,-69
-92,-17,9,12,-27,-27,-120,-158,-369,-87
-20,-28,15,14,-16,0,-46,-56,-117,10
42,-37,-16,-37,-59,-23,-5,-42,-55,107
75,0,-25,-29,-55,-26,6,-25,-22,122
-101,-36,6,7,31,86,173,61,6,-57
-209,-111,2,28,51,121,194,62,20,-57
-171,-109,-20,13,33,84,168,40,26,55
-45,-59,-33,-40,-30,1,61,9,-66,110
-68,-120,-58,-42,-29,9,14,49,-36,175
-113,-151,-81,18,13,55,-4,59,-21,174
45,33,-27,77,-27,-35,-132,-31,-117,63
48,86,121,170,25,-36,-135,-67,-141,-99
-156,-50,130,232,138,77,14,31,-45,-248
-146,-102,61,144,146,119,80,103,50,-133
-46,-97,-60,-51,45,77,64,147,156,212
240,42,-68,-172,-96,-72,-66,65,134,483
151,38,-8,-25,50,49,73,68,204,344
24,-173,-112,-78,42,80,146,145,274,135
-42,-90,-70,-77,1,6,36,46,78,-230
0,155,50,-48,-49,-114,-143,-166,-236,-483
9,142,27,-51,-61,-106,-127,-177,-237,-392
38,-6,-66,-86,-78,-84,-118,-95,-58,127
208,187,105,37,20,-23,-36,-52,70,-27
207,215,104,28,-12,-58,-102,-93,45,-51
81,137,0,62,20,-18,-63,-32,24,-26
-53,56,43,79,39,-3,-52,-91,-190,-90
-42,-6,-38,-28,-34,-17,-53,-64,-176,-93
-44,0,-36,-46,-23,-2,-33,-52,-90,-41
-97,0,-12,-28,0,14,-14,-51,-78,1
-155,-33,-22,-22,0,24,30,-22,-122,-50
-37,25,-4,-23,-33,-10,13,-55,-161,-126
-116,-53,-68,16,-16,22,85,48,69,33
-125,-77,-54,29,22,39,71,25,27,59
-36,-61,-70,-5,15,27,50,15,-1,31
110,-24,-68,-75,-75,-70,-24,-44,-132,21
-267,-246,-147,20,63,109,124,99,-141,-90
50,121,-35,14,-8,-29,-87,-48,-192,-59
210,206,28,9,-7,-74,-133,-98,-57,21
143,126,21,9,-6,-55,-95,-69,26,28
72,50,31,0,-10,-41,-90,-66,-20,-36
31,15,-6,15,3,-27,-81,-55,-58,-43
-14,-55,-95,63,48,14,9,5,109,78
-44,-97,-165,46,75,66,94,80,120,72
-207,-189,-140,37,123,136,171,179,212,96
-136,-138,-31,78,148,164,189,158,230,159
216,117,178,20,19,14,12,-4,122,240
145,164,163,-70,-70,-66,-48,-50,20,143
-66,-46,-79,-45,26,80,113,115,223,74
116,140,-2,-17,-70,-67,-64,-53,22,-4
101,91,-31,-45,-69,-64,-61,-21,107,110
60,15,-135,-65,-57,-41,-34,-4,133,90
10,-12,-111,-45,-33,-17,-38,-32,29,-46
23,-8,-14,-33,-18,-2,-40,-51,-71,-64
-98,-125,-54,-58,14,62,69,101,53,5
-60,-86,-80,-47,6,32,8,22,31,35
-6,9,44,40,53,44,-21,-35,-17,85
11,17,48,5,-23,-15,-49,-18,-35,-24
-11,26,87,15,-24,-25,-47,-17,19,-62
155,87,104,95,-36,-68,-89,-46,31,71
51,8,74,102,-7,-44,-38,13,84,90
0,-48,52,81,23,-31,-15,8,60,11
-11,-71,8,0,33,-17,14,-17,22,-91
-70,-133,-32,-22,84,77,120,99,140,34
-53,-191,-38,-40,75,100,160,154,209,188
112,109,64,-104,-93,-109,-69,-51,-12,165
124,276,118,-35,-32,-68,-41,-47,-71,-88
10,107,50,-22,5,-34,-20,-12,-11,-124
-31,-4,10,-11,33,9,6,-8,-17,216
-112,34,27,-16,10,-21,-3,-99,-248,-167
-194,-15,8,-10,17,-25,8,-128,-333,-489
-147,-50,-18,-12,28,20,63,-38,-177,-295
-40,-70,-50,-37,11,20,54,46,-18,97
51,-25,-4,1,38,24,24,23,30,259
128,44,14,5,24,22,-20,22,37,269
128,74,-21,-24,-67,-59,-60,41,20,51
38,64,-21,1,-50,-35,-20,25,-21,-198
-106,35,6,33,-1,11,25,-6,-158,-466
-285,-90,-14,56,67,126,178,116,-125,-505
-242,-115,9,107,128,188,204,158,-33,-310
-48,-23,49,92,72,86,49,22,-81,-107
-58,-51,22,38,-12,-11,-49,-47,-93,35
-78,-30,20,47,-30,-21,-44,6,18,228
236,245,74,-33,-125,-149,-202,-131,-12,275
74,96,-1,-13,-60,-48,-110,-19,32,229
-24,46,12,16,11,7,-19,41,143,134
-8,84,68,44,76,57,42,81,142,-30
-101,30,98,99,150,133,98,117,177,57
-82,35,83,87,111,65,11,-18,-28,106
62,37,-53,-122,-159,-185,-226,-197,-273,-4
-62,-19,-47,-78,-77,-76,-104,-87,-263,-93
-36,22,-92,-42,-30,-40,-79,-45,-231,-142
41,65,-50,-27,-51,-71,-82,-51,-177,-6
63,7,-37,-35,-58,-78,-82,-50,-104,140
54,-37,-65,-56,-66,-64,-56,-25,-73,154
-132,-36,-77,-24,-50,-28,-9,-39,-223,-277
-192,-74,-140,-18,-40,-8,6,-16,-192,-307
-174,-80,-85,35,12,47,65,54,-93,-163
-58,-38,-60,62,22,53,68,55,-58,-13
109,62,15,42,-34,-20,-11,4,7,151
124,56,26,9,-26,-20,-35,0,14,159
84,33,40,15,21,23,24,41,77,211
75,43,35,13,18,14,31,48,128,268
58,28,21,5,5,8,10,37,122,296
40,70,15,9,-14,-24,-21,-23,-39,145
-41,44,13,0,-31,-46,-58,-83,-152,-86
-103,15,2,7,-25,-37,-27,-81,-157,-275
-72,20,-17,4,-18,-26,-1,-61,-47,-260
27,62,60,34,-16,-16,-29,-30,142,-15
61,93,30,24,-54,-50,-48,-7,137,125
86,51,-8,-12,-59,-73,-25,24,186,212
74,50,19,8,4,-21,15,18,135,108
-75,-37,1,9,34,27,59,65,115,29
-8,-70,-22,-14,15,1,11,13,69,38
9,-31,0,-28,-6,-19,-11,3,91,-4
180,58,60,14,-7,-29,-51,-9,136,204
166,27,24,-27,-20,-42,-14,45,277,248
128,48,19,-11,-9,-35,-17,45,265,218
-99,-116,-132,-72,13,25,-16,14,-32,-49
-49,-93,-134,32,77,45,24,34,38,-191
-16,44,48,276,161,35,-17,-19,-33,-183
-8,-19,128,230,107,-2,-19,-1,-12,-11
-2,-98,81,26,28,-28,-2,31,142,205
-31,-79,-4,-163,-47,-45,3,-12,92,283
-41,-113,-118,-258,-99,-38,28,11,36,184
-137,-179,-179,-195,3,65,124,112,93,84
193,225,-106,-84,-77,-91,-72,-79,-89,-90
87,150,-100,-32,-39,-84,-89,-106,-194,-158
105,192,101,-51,-90,-88,-69,-74,-68,-129
109,218,139,8,-45,-66,-80,-95,-116,-137
-24,30,92,63,17,1,-16,-30,-9,-128
3,-26,-44,49,-6,-61,-46,-101,-159,-93
41,-11,-3,-16,-20,-62,-17,-75,0,-41
52,-27,-113,-107,-36,-22,22,-9,149,-27
1,-26,-112,-114,-6,41,110,71,205,-39
80,32,26,-74,47,100,142,134,253,197
37,12,53,1,72,107,152,124,231,271
-18,-24,24,15,51,83,130,75,98,231
-64,-57,-20,-11,0,39,48,-11,-141,38
-106,-68,-22,-22,-25,22,-4,-63,-229,-137
-90,-65,-31,-30,-32,4,-21,-67,-116,-76
39,-46,-106,-59,-57,-29,-24,-35,86,189
96,-45,-75,-51,-45,-17,-1,15,225,381
78,-68,-21,-24,-13,23,67,107,315,458
36,-82,-10,11,20,56,99,139,268,339
-142,-211,-7,82,140,187,252,251,368,174
-82,-205,-37,5,68,106,228,298,426,130
154,137,101,21,-15,-34,44,75,100,-85
-119,121,122,60,12,-35,-49,-146,-431,-569
19,72,17,-46,-72,-126,-140,-208,-412,-469
37,58,-16,0,-25,-85,-128,-199,-406,-401
126,89,45,-18,-36,-79,-96,-110,-218,-156
62,61,29,1,-13,-32,-54,-71,-170,-155
-105,-46,20,65,68,44,31,-3,-119,-205
-72,-78,-17,43,13,-14,48,30,0,-82
-49,-24,-16,9,-38,-57,14,-8,-51,-70
-53,10,-6,29,-18,-23,30,-8,-37,-78
-28,-27,6,8,29,5,41,-29,-223,-280
46,76,93,90,42,-11,-21,-77,-262,-176
51,86,103,80,37,-6,-37,-83,-224,-90
39,40,35,39,4,-24,-54,-45,-146,50
-36,5,12,58,5,-16,-27,2,-66,104
-117,11,7,41,16,-4,14,57,0,34
-64,-23,-30,-27,-27,-8,0,89,31,30
-88,-87,-32,-16,9,46,60,142,93,148
-73,-78,-23,2,22,55,69,145,144,195
60,-12,-45,-50,-71,-50,-56,48,144,244
94,-17,-64,-44,-73,-53,-38,71,229,290
40,-126,-155,-28,-30,4,37,122,298,354
82,-13,-128,-2,-4,23,46,87,198,298
87,234,116,132,93,82,67,6,-97,32
-107,107,70,158,125,90,70,-94,-448,-397
-236,-85,17,106,86,57,29,-164,-607,-707
-181,-143,15,62,59,53,31,-125,-470,-595
-134,-102,20,17,10,9,12,-91,-296,-409
-22,34,30,-9,-32,-46,-36,-94,-198,-223
-23,82,48,-20,-50,-57,-50,-97,-176,-198
-123,-41,-26,-51,-16,0,-2,15,-31,-102
-103,-58,14,43,66,63,57,72,44,8
58,57,-85,118,-3,-28,-73,-48,-61,34
-27,10,-102,110,-28,-37,-32,-29,-13,84
-81,0,-44,69,-24,-40,-7,0,9,45
39,30,1,-80,-95,-89,-51,-8,22,75
91,12,-49,-98,-54,-36,-21,-1,36,115
-19,-116,-47,-75,13,56,73,75,84,137
29,-95,-27,-97,-9,36,65,106,157,169
115,82,71,-25,21,37,51,36,107,113
199,134,69,-28,-18,-24,5,-36,24,90
82,62,-76,0,-19,-47,-8,-73,-25,5
39,75,-48,-19,-67,-103,-44,-90,-43,-45
6,39,34,-12,-53,-73,-19,-60,-55,-37
79,28,20,-29,-49,-54,-31,-37,-10,53
77,15,-2,-41,-47,-61,-34,-13,61,114
80,17,13,-21,-29,-46,-16,-3,67,113
72,19,10,8,-47,-65,-48,-6,56,73
31,-19,19,44,-45,-68,-87,-20,52,35
-37,-59,-8,78,2,-45,-64,-6,56,22
-71,-84,-49,85,49,-10,-18,2,56,29
-96,-71,-12,58,64,39,42,33,60,32
-48,-61,25,16,44,55,61,76,128,124
72,22,110,-6,-11,2,-27,19,133,224
145,127,129,-56,-69,-48,-86,-7,112,272
172,123,19,-132,-117,-55,-55,39,185,366
98,25,-28,-126,-85,-17,-7,62,153,203
-83,-59,-12,-27,5,79,76,67,46,-125
-104,-55,19,17,19,98,55,30,-22,-221
-43,-29,6,-5,-18,49,-24,-25,-61,-165
-43,-47,-6,-16,-8,45,-33,-50,-95,-105
-91,-69,-12,1,23,57,-15,-44,-70,-95
-124,-86,-14,-6,25,49,-19,-24,-24,-137
-113,-83,-16,-21,17,26,-43,-16,-41,-155
-15,-6,-3,11,32,41,-41,-30,-68,-115
32,1,-107,-13,5,39,-38,-8,-26,-68
5,-50,-140,-26,2,29,-17,36,32,-38
41,17,-5,-7,-4,4,-52,17,44,-4
49,10,41,33,4,18,-29,33,76,39
20,-26,73,52,11,25,-4,42,92,12
19,1,143,57,9,0,-5,30,80,-33
41,11,78,11,-28,-10,8,11,63,13
26,-31,21,-19,-23,0,3,61,160,224
16,-63,-22,-25,16,37,16,76,174,405
-40,-180,-105,-44,13,47,37,91,151,389
41,-165,-107,-36,11,33,23,72,84,214
239,183,73,13,-10,-32,-49,-24,-32,47
-86,-65,21,36,64,77,135,106,98,70
33,11,52,31,14,41,34,-9,-53,-111
126,194,123,31,-20,-8,-48,-96,-170,-231
91,136,57,-22,-86,-61,-78,-70,-97,-147
77,69,34,-13,-66,-56,-69,-68,-47,-43
5,8,19,-11,-45,-55,-71,-83,-62,-67
-11,-19,-11,-14,-8,0,-39,-60,-13,-55
-24,-19,-91,1,14,18,-51,-61,-13,-13
-97,-55,-56,-31,-13,13,-14,-33,-62,-108
-86,-62,-78,-43,-11,39,12,13,-13,-76
-49,-23,-12,-36,-7,50,54,44,32,2
-74,-8,18,32,27,66,87,63,62,31
-46,-14,36,63,48,61,67,51,100,66
-9,-10,49,53,23,-1,2,0,86,63
5,-1,28,60,17,-20,-23,-14,58,35
43,11,-28,63,20,-23,-64,-76,-38,-31
8,-46,-133,-56,-2,-5,-80,-61,-20,-17
14,-46,-59,-66,18,19,-44,-8,48,52
9,-19,-67,-25,38,27,-23,7,37,-27
-30,-29,12,19,61,43,22,46,50,-86
-92,-103,58,26,66,49,76,73,80,-110
-98,-101,83,39,70,51,75,37,56,-147
-77,-4,137,80,107,106,101,42,13,-238
51,57,105,-1,19,2,-9,-20,-35,-231
94,14,40,-60,-33,-44,-21,-27,2,-27
49,-55,19,-46,-10,3,35,2,28,101
55,54,72,-42,-34,-57,-6,-45,-24,35
52,144,121,-13,-12,-61,-22,-81,-82,27
-10,-22,27,-24,-6,-28,-13,-8,34,259
-53,-62,34,26,58,73,58,71,169,405
125,4,-44,-41,-42,-27,-7,62,305,719
274,13,-87,-140,-154,-134,-77,43,376,893
77,-8,-43,-108,-52,-73,-36,-27,57,46
-61,-20,-11,-52,19,-5,26,1,-15,-265
-132,0,-9,6,56,19,33,-24,-112,-434
-220,1,24,34,70,11,-5,-103,-283,-681
-246,-32,39,34,64,13,-9,-122,-374,-762
-214,-34,47,44,68,46,19,-81,-316,-597
-207,-72,19,48,76,63,65,-25,-178,-383
-125,-61,12,25,54,49,33,-23,-129,-292
-15,-16,3,30,44,35,6,-20,-98,-212
82,22,4,20,22,3,-24,-14,-28,-31
40,-21,16,41,58,50,5,4,-15,29
10,-43,19,30,34,23,-38,-26,-44,11
55,6,18,9,-10,-32,-93,-38,-32,41
25,36,29,49,-26,-58,-62,-80,-26,18
33,30,54,162,16,-28,-22,-68,1,45
-34,-18,68,136,28,-17,32,-18,33,36
-125,-82,19,69,40,22,82,57,92,79
-27,-116,-43,-10,32,36,106,76,83,137
-75,-172,-54,-25,70,86,159,118,93,33
383,259,0,-110,-89,-69,-80,-24,72,210
239,98,-105,-62,-38,-28,-39,17,126,266
171,66,-36,-34,-41,-44,-25,34,118,259
42,24,25,-18,-44,-48,-29,31,103,169
-91,11,83,-27,-47,-37,-55,-40,-13,-20
-180,-31,16,-78,-49,-1,-52,-66,-138,-226
-148,-51,-30,-74,-32,17,-30,-29,-135,-289
-35,42,24,-37,-35,-7,-59,-30,-74,-178
37,54,59,0,5,18,-31,-13,-34,-57
17,34,27,-3,-8,15,-35,-22,-53,-56
-24,16,2,14,-21,22,-22,11,-18,-21
17,14,6,19,-12,24,18,57,58,110
34,-24,-19,-12,-22,8,37,68,112,224
21,-78,-63,-26,1,47,82,92,143,243
-42,-64,-43,12,58,94,131,104,89,29
-4,37,-40,-10,-27,-36,-7,-33,-24,-166
41,25,-58,10,-47,-81,-64,-44,-3,-88
29,6,-15,34,-2,-42,-35,0,52,33
39,48,18,34,17,-62,-79,-61,-27,-4
-42,50,44,45,48,-15,-51,-64,-90,-200
-121,-12,-26,36,66,45,4,0,-40,-267
-60,-25,-38,-15,14,14,-3,39,19,-180
-72,-75,-47,-46,13,42,42,89,94,-55
15,-48,-97,-21,4,34,23,54,105,107
81,50,-165,-6,-54,-72,-38,-54,3,112
59,15,-85,-34,-57,-57,-29,-31,-6,105
32,-14,-40,-40,-45,-8,3,3,-17,40
16,-1,-3,-16,1,27,17,20,-17,-2
27,3,27,0,19,28,1,-1,-39,-40
-10,-18,36,-5,34,42,18,9,-45,-81
24,-14,-20,-56,-22,26,16,46,30,-4
20,-7,-2,-18,-14,51,33,78,82,79
-17,-13,-20,-6,0,60,23,44,11,26
-105,-88,9,25,39,74,40,44,25,-29
-115,-90,36,73,56,87,50,70,104,85
-55,-50,4,119,84,69,26,21,63,116
-35,-19,-24,130,105,77,59,54,87,140
85,51,-20,-2,-35,-34,-33,7,84,188
80,42,-48,-11,-78,-77,-66,-9,82,140
124,31,-30,35,-64,-72,-88,9,111,165
128,54,48,70,-25,-55,-72,-64,-34,-23
-51,-8,56,95,58,36,9,-25,-98,-269
-19,-23,-9,-36,12,8,-23,-4,-60,-266
-24,-80,-43,-117,-7,3,-21,22,-6,-114
1,-89,-16,-99,-6,8,-7,45,50,97
132,44,14,-98,-36,-26,-36,16,45,125
169,148,15,-76,-11,-16,-31,-7,11,49
140,99,14,-56,-2,-11,-42,-13,-2,-33
110,92,23,-65,-48,-69,-98,-67,-99,-127
76,58,15,-59,-38,-80,-62,-47,-71,-71
5,-178,-90,-72,-6,-6,33,91,140,102
124,66,0,-70,-58,-58,-62,0,53,63
111,148,85,-25,-4,-13,-4,20,23,56
-77,-1,66,9,51,53,55,36,-36,-105
-247,-149,23,38,88,101,102,53,-80,-289
-287,-173,29,35,75,80,95,52,-90,-351
-158,-6,31,2,-2,-5,8,-16,-135,-224
-58,64,-21,-12,-30,-20,0,-46,-149,-62
-191,-97,-52,5,60,110,118,81,13,-45
-13,12,14,26,51,46,50,31,64,67
218,173,85,23,-20,-74,-82,-74,14,155
143,94,20,40,5,-24,-43,-13,72,221
118,48,-112,16,0,-14,-25,-3,90,353
163,75,-139,-1,-46,-59,-68,-46,21,296
32,33,-151,2,-53,-70,-57,-47,-44,49
-7,-20,-165,-21,-66,-73,-38,-31,-24,-69
42,-59,-105,-19,-42,-24,3,34,63,-79
25,-109,-84,-5,-3,33,93,151,223,0
29,-65,13,38,48,76,121,186,271,115
66,67,163,91,59,57,46,104,165,213
-52,54,208,67,15,28,4,20,5,94
-135,2,97,-37,-44,-10,-39,-45,-129,13
-84,-47,-24,-93,-75,-41,-64,-92,-225,18
-64,-19,2,-39,-44,-39,-79,-147,-291,-220
18,29,14,-34,-64,-72,-99,-152,-227,-321
-8,7,5,-30,-59,-49,-40,-105,-198,-326
-30,8,19,-29,-56,-18,-5,-75,-183,-217
-44,9,10,-32,-67,-36,-7,-41,-104,-160
7,-15,-6,-23,-5,17,25,8,-22,-39
67,10,-43,-34,-3,0,48,16,31,39
62,31,-4,5,40,39,87,38,102,168
29,20,60,29,53,58,83,43,128,248
20,3,49,15,31,36,36,40,132,286
19,13,47,24,37,26,15,29,137,307
25,79,78,70,49,28,10,-4,72,165
-45,53,63,78,53,38,27,10,48,65
14,-6,-3,-7,-5,-16,-5,43,140,243
82,21,2,-42,-54,-48,-28,24,129,262
-88,-33,3,-13,19,26,62,60,46,-51
-291,-137,-37,3,65,50,94,61,-56,-319
-218,-84,-29,-28,6,-19,8,-23,-132,-341
-88,23,5,-26,-32,-58,-38,-91,-201,-366
-84,-13,-22,-19,-3,-38,-29,-102,-203,-304
-54,-4,-27,-31,-23,-52,-23,-72,-132,-237
-43,-39,-29,-27,2,-29,48,-23,-8,-50
-62,-46,-31,4,41,5,77,-10,31,80
-71,-11,6,20,34,1,50,-50,-61,64
-64,15,4,-3,2,-26,16,-84,-138,-60
-14,35,-16,-39,-43,-52,7,-57,-73,-38
2,33,-4,-26,-23,-28,29,-2,-4,24
22,55,25,26,25,9,56,37,27,27
124,143,-29,8,1,-36,-8,18,87,75
64,110,-76,10,11,-44,-12,14,19,35
-25,16,-26,-36,-14,-53,-28,6,12,-10
-86,-11,-14,14,52,41,7,22,5,-3
131,23,-78,-35,8,-4,-16,21,124,161
106,27,-35,-1,29,10,-7,24,79,159
61,55,64,33,23,1,-37,0,12,48
26,18,58,5,-10,-38,-67,-31,-54,-13
-110,-130,-17,-7,-2,3,-21,-26,-90,-111
-112,-72,-8,-14,-1,-12,-9,-51,-93,-155
-21,89,62,2,19,-15,11,-60,-89,-106
-74,-142,-29,-8,-25,-13,55,73,86,96
-130,-189,17,115,31,17,72,82,89,107
-100,-108,110,225,83,0,17,-10,-14,113
43,68,151,204,54,-66,-74,-129,-141,69
157,199,73,70,-6,-93,-74,-147,-143,8
74,164,-39,-90,-49,-72,-45,-75,-112,-64
20,68,-61,-116,-10,-23,0,-11,-53,-64
25,28,-14,-56,28,26,38,29,7,7
32,10,-4,-22,33,44,48,48,53,95
51,-37,-65,-57,17,37,48,63,96,159
-110,-231,-140,-68,75,133,177,198,221,153
63,8,-8,-91,-41,-22,4,26,101,147
117,132,86,-84,-44,-40,-55,10,139,207
179,80,9,-35,-5,12,-27,37,211,405
201,83,-13,-46,-19,-1,-16,37,186,352
151,63,-7,-45,-26,-6,-2,27,96,131
-39,4,2,-8,4,29,-2,-7,-70,-330
-166,-13,27,35,48,66,5,-32,-194,-554
-86,-16,12,-12,-2,19,-5,-64,-213,-407
-80,-57,-35,-78,-73,-29,-25,-53,-188,-296
4,-25,-15,-74,-90,-50,-39,-25,-106,-64
70,25,20,-29,-49,-42,-37,-55,-76,18
32,7,31,8,-9,-27,-24,-64,-77,-48
-13,13,31,18,-10,-3,1,-48,-46,-88
-6,30,-1,3,-40,-4,0,-19,9,-42
11,27,1,7,-33,6,-18,-11,60,4
3,-16,3,-3,-15,17,-33,3,54,41
-1,-18,6,8,-5,35,-41,3,35,27
-30,-19,4,32,24,43,-7,-13,16,-4
-62,-14,12,27,32,37,14,-29,-3,-12
-43,-48,-109,5,5,13,-44,-6,73,86
27,12,-47,7,9,10,-50,-30,16,22
82,55,16,-38,-41,-45,-22,-26,32,117
50,47,22,-25,-22,-27,-15,-5,17,81
-34,-18,12,6,12,21,25,28,28,56
-9,-15,8,0,6,12,7,20,22,50
-42,-20,22,22,48,50,26,51,54,20
-193,-90,44,96,138,161,123,130,113,-15
-203,-87,52,119,156,178,131,146,143,-19
-18,-27,38,79,92,102,57,115,204,102
160,0,8,34,44,61,32,85,175,158
185,-12,-43,-39,-24,11,24,93,161,178
175,96,87,18,3,-20,-5,48,112,240
83,42,78,33,15,-17,6,0,-30,82
-9,-2,-1,-43,-67,-85,-32,-64,-142,-193
-3,9,-9,-56,-65,-86,-47,-98,-142,-131
12,28,-32,-68,-65,-104,-74,-122,-134,-50
2,8,-50,-52,-39,-66,-60,-78,-97,-42
6,-3,-40,-25,0,-16,-10,-34,-48,-10
20,-3,-18,-18,17,-25,-19,-51,-49,11
-12,-21,-2,3,41,-4,-17,-29,-30,30
-72,-51,-8,19,58,23,8,32,35,61
-57,-52,16,47,82,67,31,67,82,48
54,15,36,40,61,50,-5,28,99,110
72,42,26,72,62,36,-14,3,40,98
-53,-2,-49,124,71,-1,-32,-52,-124,-207
-48,31,82,133,45,-7,-56,-83,-165,-279
-51,27,61,-38,-69,-68,-99,-79,-141,-204
-56,-27,0,-35,-42,-18,-39,-33,-69,-106
14,-18,10,-16,-32,-10,-30,-12,-28,-3
-40,-79,-8,6,-13,-25,-5,6,-28,0
-82,-117,3,26,24,-9,39,8,-11,3
-2,-14,45,49,33,18,48,4,1,26
23,-18,30,27,27,28,48,27,18,51
92,-59,-33,-45,-32,-8,28,35,30,72
140,-110,-68,-93,-93,-59,-11,46,115,169
159,-1,-2,-47,-61,-27,-12,49,150,228
204,160,1,5,-25,-9,-18,28,137,254
112,50,-43,-8,-33,-19,1,62,207,365
28,-61,-78,-51,-64,-39,20,101,238,408
-34,-37,-24,4,-8,6,74,106,195,277
-23,70,50,47,16,-4,33,15,-6,-27
-35,78,81,64,19,-15,-14,-50,-174,-292
-54,20,33,36,2,-9,-21,-67,-161,-314
-3,6,-22,-4,-35,-26,-48,-70,-88,-181
-30,-20,-34,-11,-30,-22,-42,-34,-60,-112
-38,-10,-24,-2,-10,-16,-21,7,-80,-149
-83,-31,-32,8,12,-8,5,44,-51,-182
-135,-65,-38,32,21,-17,20,32,-54,-173
-76,34,34,66,33,-15,-8,-17,-136,-263
-26,120,109,131,32,-7,-39,-39,-198,-339
-113,-38,-2,93,18,11,21,-26,-151,-153
-110,-69,-59,-22,9,29,46,-26,-157,-122
-172,-119,-66,-40,36,89,120,50,-64,-90
-15,-15,-52,-88,-55,-9,26,0,-53,-68
19,20,-55,-104,-82,-17,-9,0,-28,-30
25,-8,-68,-91,-53,25,18,13,-5,36
-58,-78,-88,-45,3,72,78,38,16,42
-142,-195,-152,-17,36,121,148,157,171,169
-37,-142,-51,20,49,94,112,178,258,285
200,142,105,90,28,-10,-54,-44,52,130
143,150,109,136,62,18,-18,-89,-60,-91
74,90,67,97,20,-2,-10,-81,-28,-81
101,90,37,48,-19,-40,-55,-92,-50,16
37,46,-7,-16,-40,-56,-47,-61,-56,22
-77,-55,-65,-59,-33,-14,17,37,53,79
-30,-43,-16,-27,34,55,64,69,70,42
87,83,69,9,23,15,-16,-21,7,33
151,154,56,-2,-57,-87,-108,-87,-8,124
102,111,40,39,-44,-74,-96,-101,-69,38
4,26,37,75,-18,-19,-64,-69,-68,-50
39,2,16,36,-40,-52,-79,-92,-88,2
34,-8,0,1,-50,-72,-76,-85,-84,7
17,7,0,5,-35,-32,-39,-50,-32,-6
60,32,-9,-30,-46,-21,-27,-21,27,29
64,25,-16,-32,-18,17,-7,17,34,10
14,-8,-63,-10,17,64,64,84,80,27
27,-18,-58,-20,-23,15,47,74,106,108
110,26,-10,-22,-45,-30,-38,-18,5,211
165,54,18,-34,-59,-56,-89,-84,-56,194
82,8,8,-25,-47,-46,-52,-17,-2,90
68,25,20,-9,-43,-30,-33,1,17,73
-39,-17,-23,5,-6,20,-5,14,-8,-4
-132,-73,-62,19,27,63,44,48,-4,-86
-93,-70,-15,0,20,42,43,53,0,-106
-70,-32,13,22,40,38,43,36,-13,-152
3,13,44,25,16,5,0,12,8,-118
-3,9,47,32,2,-7,-26,-17,-16,-105
-7,-10,3,1,-3,-13,-29,-26,-26,-44
-44,-55,-57,-18,-10,0,-7,0,-17,-18
-114,-142,-132,11,39,59,77,73,52,0
-155,-224,-133,58,73,79,104,98,102,2
-217,-290,-143,77,128,129,123,111,116,42
-3,48,-20,96,85,55,11,28,85,115
285,306,80,25,-30,-77,-98,-25,171,309
326,260,84,-67,-86,-108,-88,5,214,325
243,138,21,-98,-76,-52,-22,71,243,284
214,97,-38,-91,-56,-22,27,97,262,305
117,112,0,-41,-16,9,73,89,177,155
-83,23,18,-32,6,24,64,32,-18,-130
-214,-39,-1,-27,15,11,20,-28,-186,-268
-222,-61,-56,-16,4,-3,-44,-123,-346,-354
-216,-74,-10,-23,-9,-16,-63,-138,-370,-443
-237,-90,8,-22,0,6,-34,-79,-256,-425
-199,-63,45,31,63,75,10,-35,-181,-326
-85,28,65,68,85,74,18,-30,-128,-189
38,68,26,15,0,-22,-53,-66,-104,-78
42,45,29,-23,-33,-31,-68,-58,-79,-71
-117,-46,14,-22,11,26,7,27,0,-70
-274,-163,-26,-4,65,89,111,125,102,-54
-151,-127,-45,-24,44,50,73,91,90,1
92,30,8,-40,-15,-49,-12,0,-27,-65
42,26,30,-5,17,-5,51,19,-9,-83
75,18,12,3,3,-15,44,7,33,69
109,36,22,-1,8,-9,39,24,107,268
236,98,-51,-51,-47,-42,-5,41,227,345
218,92,12,-39,-22,-13,32,85,249,353
220,66,11,-41,-27,-27,6,74,208,310
102,40,23,-4,7,-11,0,42,87,99
-92,-13,41,66,32,-31,-50,-76,-189,-176
-232,-71,31,127,29,-47,-81,-177,-388,-475
-198,-69,27,168,59,-8,-64,-163,-335,-437
-118,-62,-22,125,64,3,-48,-133,-227,-256
-85,-53,-60,20,46,4,-19,-104,-155,-162
-41,-22,-6,1,45,28,7,-56,-116,-157
-49,3,71,13,38,33,22,6,-26,-137
-14,60,67,-85,-72,-39,-38,-14,-11,-43
14,99,2,-139,-99,-29,-42,-19,-15,-4
73,39,-43,-100,-55,22,13,30,68,65
67,0,-34,-52,-25,33,29,70,122,120
17,-18,-11,23,32,61,50,73,145,168
26,-15,-20,26,28,65,46,74,173,251
103,37,-78,-17,-27,33,4,37,146,332
128,48,-48,-48,-40,8,14,38,156,370
-47,-41,18,11,27,88,124,135,224,319
35,24,34,-18,-58,-9,-4,21,109,180
37,56,47,-50,-74,-45,-76,-58,-45,-153
-69,-18,30,-33,-32,17,-22,-9,-50,-223
7,-50,-21,-72,-79,-31,-42,-18,-10,-68
-29,-86,-37,-54,-33,2,5,16,13,-80
-36,-78,-30,-41,4,43,45,36,59,-138
-13,-8,-12,38,66,88,94,55,76,-105
28,75,89,107,85,104,111,39,14,-16
-10,-35,-96,16,34,37,83,22,25,187
13,-1,-1,68,74,56,97,14,68,192
156,118,108,43,15,-12,12,-108,-54,87
-6,13,53,-20,-29,-62,-23,-111,-35,-118
-88,-66,11,-41,-39,-64,-25,-65,32,-43
11,-11,14,-44,-83,-117,-114,-127,-90,31
-20,-26,16,-25,-47,-98,-105,-113,-92,-2
-36,-41,18,-19,-23,-51,-66,-61,-2,54
25,-39,-3,-46,-50,-48,-84,-34,31,124
9,22,38,-14,-1,-17,-53,-2,-57,-109
13,20,26,-25,-10,-21,-46,-9,-96,-153
-87,-33,42,50,67,83,44,44,-85,-179
-129,-38,55,105,87,100,68,56,-49,-180
-129,-50,0,65,61,60,54,61,-10,-125
-50,-32,-53,21,34,24,28,34,6,-9
62,58,15,-17,-31,-52,-15,-17,-33,-14
147,69,34,-15,-43,-57,-12,-4,17,170
111,19,8,-23,-37,-28,23,44,101,276
85,-1,-14,-12,-35,-14,38,63,109,314
62,14,-11,4,-26,-17,17,28,42,189
-13,2,-3,16,7,24,31,33,20,-64
-68,-4,-24,13,5,19,32,18,-14,-269
-123,-35,-32,-15,-12,-4,12,-6,-41,-309
-50,-5,-18,-23,-22,-26,9,-17,-16,-172
-20,-5,-64,-1,-4,-11,36,14,80,-50
-52,-50,-24,35,25,27,79,56,134,82
0,-36,12,102,40,22,59,34,114,251
-50,-50,-72,110,71,-14,-41,-69,-97,32
8,-26,-39,-16,-18,-74,-106,-108,-127,-102
-23,-11,-6,-53,-42,-70,-73,-60,-68,-121
-28,6,8,-51,-63,-66,-30,-44,-78,-47
8,-1,38,8,-52,-76,-26,-45,-62,48
-20,-3,44,86,-9,-70,-25,-42,-50,59
-60,-21,48,90,13,-49,-55,-45,-70,-12
-68,-45,57,14,0,-27,-41,-13,-64,-51
-76,-80,24,-65,0,-22,-16,7,-34,-11
-45,-66,-20,-51,39,13,46,38,23,36
-41,-70,-26,-26,57,59,86,76,72,51
10,-18,8,-91,-14,3,16,14,-22,5
118,83,-90,-160,-61,-37,-5,-11,-15,81
95,11,-48,-55,-16,-12,-18,31,62,207
38,-23,-38,-42,-4,-5,20,43,44,134
-37,-66,-34,-38,14,30,63,86,63,2
-119,-92,9,58,108,111,98,97,54,-96
-24,-46,-18,56,81,56,34,13,-28,-105
55,12,-38,18,25,2,12,3,-17,-43
133,87,-36,1,3,-40,-21,-26,-13,56
109,84,39,-33,-11,-60,-48,-80,-65,90
82,34,15,-81,-62,-75,-72,-87,-77,54
1,-3,-6,-32,-49,-40,-62,-32,-38,-42
-109,-33,16,95,43,19,-1,12,-9,-120
-65,-28,-14,133,60,0,-20,7,25,6
-49,-73,44,111,57,23,17,63,130,146
-111,-217,22,26,62,79,82,119,164,225
-116,-229,-33,-103,14,58,83,106,141,232
35,-24,-28,-153,-46,-3,16,44,107,253
-42,-64,-31,-128,-30,30,63,90,140,258
-27,85,59,-45,-30,-4,-8,-1,22,123
147,327,126,-1,-53,-69,-125,-136,-138,-27
114,247,109,10,-29,-66,-96,-120,-156,-163
32,42,7,-10,-5,-1,27,0,55,38
-36,0,23,21,48,44,64,46,133,121
6,1,34,11,32,24,53,62,180,141
26,12,25,-32,-35,-25,-28,56,173,100
-44,-13,38,-12,-12,22,8,79,196,113
-11,-26,1,2,3,49,37,90,152,61
23,38,2,20,12,29,64,79,46,-14
85,80,26,-33,-65,-66,-22,-34,-118,36
20,54,14,-36,-89,-95,-82,-108,-254,-148
-105,-25,33,22,-1,6,-28,-54,-219,-277
91,32,31,-5,-50,-27,-54,-44,-129,-160
82,42,17,-28,-81,-44,-64,-19,-59,-71
-52,6,-46,11,-42,-13,-19,15,-20,-36
-46,35,-61,66,11,19,31,-8,-53,-89
74,80,-7,25,-33,-27,-5,-46,-59,-73
148,105,-63,-9,-53,-49,-51,-84,-79,-55
48,53,25,18,-8,-5,-40,-92,-89,-72
52,37,78,40,25,16,-16,-59,-17,20
69,30,42,37,19,11,1,-34,24,99
14,0,32,29,11,-5,15,-16,22,66
14,13,38,28,7,-4,8,-34,-16,51
-1,13,-60,3,3,-13,3,-55,-105,-135
-98,-56,-31,0,20,0,12,-38,-101,-229
-148,-103,-10,35,45,34,6,-12,-73,-207
-175,-144,-37,41,55,59,41,15,-43,-147
-142,-162,-78,17,42,47,87,55,26,-29
-51,-128,-84,-9,23,30,99,95,108,65
2,-31,-34,-29,13,10,61,54,55,2
46,49,50,-50,-30,-53,-14,-12,14,-19
31,64,114,-29,-18,-42,-20,-3,22,37
55,42,71,-13,13,6,29,40,72,88
71,50,40,-20,8,-5,7,11,43,52
2,18,44,-6,3,2,-4,-19,-12,-14
-94,-37,30,26,50,55,7,-7,-54,-134
-153,-45,49,79,117,111,41,16,-64,-176
-104,-32,62,98,112,104,39,13,-26,-66
22,-2,17,8,3,-21,-57,-45,0,28
106,56,8,-45,-71,-112,-122,-69,21,57
111,50,0,-14,-39,-78,-71,-45,41,61
141,60,-6,-18,-41,-73,-85,-61,9,96
31,20,11,8,3,-5,-28,-39,21,104
-25,-18,-29,-15,-31,-12,-1,-44,14,95
-54,-76,-68,-32,-20,17,68,54,126,129
-109,-97,-62,-39,-12,29,78,92,218,108
-1,-11,-15,-16,-9,-7,0,-2,112,32
114,43,-39,5,7,17,0,37,110,70
179,71,-80,-18,-52,-11,-49,63,135,131
157,117,60,1,-59,-51,-98,-40,4,17
30,53,53,-7,-58,-60,-70,-47,-71,-117
22,4,-15,-45,-86,-57,-45,-21,-43,-154
41,14,-24,-34,-70,-57,-28,4,33,-18
25,-9,-30,-47,-43,-42,-21,17,71,65
-12,-28,-1,-2,26,28,36,70,113,71
88,47,13,-39,-20,-19,12,45,89,211
48,55,-6,-37,-24,-36,-51,10,42,125
-6,42,41,30,48,-1,-48,-39,-58,-33
-176,-17,30,50,118,90,44,-30,-195,-305
-127,-10,-4,14,76,41,42,-34,-101,-221
-31,8,-84,1,25,-28,-55,-51,-70,32
-74,-29,12,34,68,23,-18,-20,-51,3
-92,-72,0,36,63,31,-16,-25,-56,-47
-5,7,-10,-17,-3,-7,-33,-32,-58,3
54,101,8,-26,-32,-52,-50,-65,-91,7
37,61,31,-26,-14,-57,-26,-56,-103,-23
12,9,19,-23,1,-37,-7,-25,-81,-50
-48,-14,44,65,30,-21,5,-19,-108,-182
-129,-59,35,110,48,-5,11,-10,-137,-305
-247,-224,-49,83,71,68,78,66,-72,-281
-259,-251,-134,25,64,102,122,132,28,-149
-90,-4,-45,29,58,89,102,115,46,-79
13,63,9,1,14,36,66,70,83,-3
31,-48,-67,-94,-65,-14,41,52,132,88
30,-22,-40,-89,-48,6,62,70,146,149
145,97,14,-67,-39,-25,27,36,120,241
193,184,49,-64,-61,-82,-66,-30,56,176
168,178,63,-40,-53,-79,-82,-33,39,153
117,111,43,-21,-40,-56,-51,-25,36,163
84,72,34,-14,-11,-24,-16,-7,23,108
13,40,28,-17,-3,-31,-23,-58,-96,-44
-77,-34,38,12,-16,-44,-39,-76,-177,-170
-84,-40,94,110,3,-25,-48,-39,-133,-119
-122,-75,69,157,39,-17,-42,-7,-64,6
-149,-86,-36,145,53,-19,-47,-22,-51,0
-29,-23,-13,33,24,-17,-53,-47,-44,2
25,-2,-95,-131,-47,-33,-67,-36,11,51
40,-34,-154,-166,-39,-16,-29,24,87,166
-73,-123,-117,-55,117,156,134,155,122,-3
153,35,40,-13,52,98,69,125,135,83
248,140,64,3,6,-1,-19,34,120,201
-14,13,7,-1,9,17,27,63,89,131
-28,18,-16,-61,-55,-67,-60,-14,41,120
-60,6,0,-42,-28,-36,-53,-32,6,63
-35,-36,-12,-43,-6,11,-18,12,64,126
29,-33,-54,-56,-28,-16,-26,16,111,178
22,-3,-71,-9,-1,-7,-3,21,88,120
27,23,15,22,21,4,0,-4,2,-9
-4,26,43,21,29,8,8,-36,-126,-205
-88,-14,24,8,41,28,16,-62,-242,-414
-132,-40,22,25,53,44,17,-63,-274,-551
-135,-48,23,36,80,62,31,-34,-214,-450
-174,-68,-46,49,76,74,52,3,-172,-372
-175,-83,-23,56,82,101,64,33,-104,-288
-66,-25,-1,29,39,72,26,25,13,-67
12,19,7,30,27,47,12,35,109,89
34,12,19,47,61,50,24,26,108,140
27,-30,-98,46,55,49,30,30,87,155
85,-83,-203,3,7,12,-2,52,131,224
50,-203,-168,-20,6,46,56,106,204,322
34,-97,-35,21,24,64,97,78,90,157
47,166,211,39,-42,-41,-28,-44,-117,-140
132,137,115,-92,-129,-104,-65,-46,-26,40
149,125,-15,-108,-109,-55,-18,7,57,147
183,97,8,-92,-93,-51,-30,-15,33,197
155,82,-13,-62,-80,-48,-40,-50,-41,128
-18,16,28,-1,-41,1,3,-49,-100,-54
-141,-14,67,39,-9,20,25,-56,-178,-341
-142,-24,63,35,19,26,57,-25,-153,-387
-75,-8,52,44,50,35,70,6,-65,-261
-48,2,43,63,60,53,90,40,12,-197
-105,-49,20,34,74,64,96,73,46,-178
-79,-55,1,-20,21,47,64,63,81,-105
104,36,20,-56,-45,-13,-5,-16,49,57
220,105,-45,-57,-86,-73,-83,-96,-6,302
157,72,-10,-22,-71,-80,-81,-105,-34,398
48,56,51,30,-22,-50,-44,-87,-71,229
-115,23,67,94,71,60,67,26,9,66
-238,-77,38,106,132,149,145,118,117,88
17,-22,17,18,36,53,17,56,140,258
205,126,51,-17,-46,-40,-85,-21,68,249
41,92,34,-12,-22,-8,-47,-16,2,39
-174,-59,-64,-48,-21,20,33,56,22,-122
-49,-12,24,50,38,33,12,-15,-93,-183
-64,-27,29,46,45,41,31,18,-6,-59
57,-12,-22,-39,-54,-31,-27,-3,73,115
49,-49,-52,-77,-79,-20,-3,32,119,209
115,6,-12,-41,-64,-24,14,41,104,204
48,28,-57,-20,-49,-60,-14,-16,-20,-11
17,88,-5,9,-43,-71,-61,-72,-112,-123
3,75,-18,22,-23,-33,-68,-80,-151,-177
-88,-14,-18,25,3,3,-22,-50,-138,-250
-4,-17,-121,-12,-42,-54,-39,-53,-69,-60
-41,-68,-15,-9,-1,10,-1,6,-27,-68
-47,-76,-35,-27,-18,17,-7,-6,-64,-100
22,4,26,-7,-29,5,-10,-12,-72,-70
21,37,40,5,-35,-8,0,-15,-48,-59
-46,-33,48,95,1,-38,-4,-38,-20,-137
24,-72,7,130,14,-8,16,7,36,132
83,-44,-80,24,-23,-27,-5,17,69,243
118,-46,-197,-80,-71,-56,-18,39,149,359
100,-80,-103,-81,-54,-36,3,83,214,392
106,5,57,-42,1,23,36,83,171,258
96,161,85,-24,21,37,49,23,-15,-95
-15,140,86,-37,0,5,30,-33,-159,-407
-79,51,79,-18,-2,2,-2,-26,-111,-335
-93,-14,48,3,-2,8,-41,-33,-101,-165
-135,-50,21,20,18,24,-38,-34,-151,-215
-105,-45,15,9,16,11,-24,-6,-85,-171
-17,-18,64,107,-4,21,20,-8,-11,60
0,-8,72,104,22,20,21,0,-4,39
-36,-7,51,76,28,24,14,6,-1,-55
-185,-64,-8,56,78,90,103,79,68,-107
-190,-121,-75,5,108,160,193,141,143,36
-169,-186,-20,67,167,258,242,271,276,256
86,13,8,-34,-36,28,36,33,83,217
238,109,-18,-129,-190,-156,-134,-128,-80,66
127,-19,-32,-68,-76,-24,-19,23,66,116
177,39,-26,-65,-80,-16,-21,68,205,233
291,204,3,-117,-160,-122,-136,-1,224,295
238,128,-27,-125,-163,-132,-116,0,193,305
101,19,-22,-74,-78,-76,-61,8,110,248
-38,-43,-5,8,7,1,6,-8,-10,106
-142,-74,20,75,78,79,67,-13,-114,7
-131,-66,41,82,79,61,21,-68,-228,-132
-36,-27,74,67,57,0,-39,-101,-193,-104
0,-54,25,15,22,-5,-25,-41,-98,-24
-150,-207,-62,-7,46,37,42,41,-81,-260
-287,-279,-83,6,71,46,52,28,-153,-566
-149,-60,23,23,42,-16,-30,-86,-251,-617
0,205,123,41,6,-68,-113,-166,-294,-475
14,126,56,13,-2,-69,-81,-107,-185,-216
5,21,-79,-49,-42,-74,-56,-73,-111,-84
-44,-2,-53,-18,-21,-31,-37,-58,-114,-159
-76,-17,25,13,-6,-34,-15,-54,-117,-221
-113,-83,1,-11,-7,-33,14,-10,-50,-153
-32,-47,7,-19,12,-10,27,-14,-21,-62
47,-6,20,3,24,-3,3,-25,-3,-18
52,-25,0,-22,11,-8,-8,-17,20,24
42,-39,-35,-33,0,-24,-4,-10,31,51
24,-59,-64,-24,10,-20,25,-8,53,85
69,-9,-6,-39,-8,-29,19,0,76,133
20,-10,40,-17,6,-1,35,5,57,84
-70,-48,34,13,54,44,66,14,30,0
-44,-46,25,24,50,26,38,-2,0,-25
18,-8,34,0,23,-1,-11,-4,21,0
48,31,52,0,23,-15,-36,-10,19,29
51,47,14,23,32,-20,-23,1,22,51
48,54,27,15,1,-45,-15,0,26,39
24,10,26,4,5,-18,17,11,30,17
-7,-39,20,20,32,24,59,33,59,14
61,-12,9,-22,-11,-30,0,1,66,71
105,19,-17,-39,-44,-74,-39,-21,68,117
79,10,-5,-24,-34,-49,-14,1,80,130
62,10,-67,-4,-6,-26,20,39,85,142
56,8,-99,23,26,3,5,38,69,135
74,7,13,32,30,7,10,23,90,174
99,17,30,5,-3,-11,5,7,113,225
14,-23,13,26,25,38,44,41,133,178
-121,-124,-3,82,91,102,88,111,188,214
-194,-151,-6,101,83,90,67,106,182,204
-137,-44,56,129,91,90,73,115,163,98
-30,74,84,130,52,28,6,44,13,-143
78,139,11,40,-26,-90,-122,-95,-169,-327
-2,65,-10,17,12,-37,-66,-61,-167,-379
-34,-14,-6,-10,16,-1,-6,-1,-59,-180
33,10,64,-28,-26,-41,-40,-29,-47,-5
36,32,101,-10,-21,-60,-53,-52,-97,-46
25,62,69,1,-33,-61,-85,-100,-160,-151
61,64,66,42,-59,-78,-102,-104,-133,-110
61,55,24,89,-33,-51,-20,-32,-22,-39
94,12,-144,6,-30,-17,15,18,76,39
75,-19,-248,-68,-8,35,33,59,127,96
56,-44,-232,-69,38,108,86,125,223,233
139,-13,-154,-106,-33,40,41,124,305,509
122,7,-29,-132,-61,17,12,95,256,575
0,-4,-34,-140,-44,38,32,41,69,229
0,5,-74,-169,-115,-41,-48,-42,-81,-112
-69,-49,-70,-123,-60,-2,-3,-10,-91,-206
-183,-116,-44,-64,16,75,78,61,-13,-93
-210,-161,-27,-40,12,47,36,47,-57,-99
-168,-83,36,26,33,36,9,-8,-114,-232
38,127,125,46,15,-24,-49,-70,-134,-210
60,132,127,52,25,-8,-33,-65,-121,-166
-26,36,86,61,56,34,14,-23,-74,-152
-70,-10,63,78,73,70,58,43,-5,-65
-32,50,84,62,57,48,6,1,-53,-123
3,-8,33,-1,7,3,-44,-22,-40,-123
-169,-203,-51,-13,26,39,13,34,11,-75
-222,-140,-50,30,81,96,79,77,78,25
25,101,-73,16,15,3,-46,-59,-85,-82
1,45,-110,-23,-30,-42,-68,-55,-97,-144
3,26,-70,-37,-41,-55,-44,-12,10,-5
140,96,23,-71,-91,-88,-93,-66,-34,31
131,82,32,-68,-65,-64,-77,-45,-14,28
73,43,40,-34,-21,-45,-50,-49,-25,17
-10,17,38,7,16,-16,-43,-84,-101,-63
-29,16,33,23,11,-6,-33,-68,-95,-73
-27,-3,54,65,0,-19,-29,-43,-30,-13
-7,-11,72,131,37,-7,-11,-22,-4,59
17,0,95,135,32,-23,-37,-31,-27,61
17,16,115,129,-5,-54,-80,-71,-69,24
-20,-10,35,59,-16,-25,-55,-38,-62,-10
-72,-71,-72,-33,-3,14,34,40,18,35
-17,-31,-12,-21,30,39,69,46,54,112
70,34,1,-62,12,20,48,28,43,131
117,47,-27,-124,-51,-18,40,49,94,142
125,99,7,-72,-69,-33,2,20,79,142
104,88,36,-36,-47,-16,-31,-7,59,148
65,39,21,-35,-25,-9,-27,-8,52,140
-32,-17,-77,21,20,37,14,-5,-49,104
-127,-143,-61,-26,0,34,47,16,-68,-66
10,-27,-27,-24,-18,10,37,4,-63,-12
108,25,-26,-46,-50,-18,19,9,-13,84
60,-50,-32,-10,-5,38,51,82,77,146
-85,-178,-79,68,111,175,150,158,118,139
-172,-225,-67,82,145,216,218,213,155,104
24,-24,12,19,21,64,55,119,118,159
244,256,130,23,-45,-91,-147,-107,-69,126
184,257,128,52,-27,-84,-164,-145,-145,19
46,152,28,49,-15,-22,-88,-83,-148,-73
-50,40,14,23,-6,7,-38,-35,-93,-61
-32,13,12,6,-15,13,14,17,-16,29
-10,17,10,-24,-54,-17,9,16,-17,8
-10,-3,-8,-55,-77,-58,-9,-4,-41,-83
-17,-15,-15,-44,-46,-40,-7,-7,-49,-116
-24,-20,-17,-29,-14,-14,-10,6,4,-56
-24,-14,-12,-12,-15,-16,-14,5,23,33
0,27,12,2,-25,-53,-34,-29,-31,65
-27,-3,14,-5,-18,-47,-40,-30,-24,26
-18,-12,16,10,3,-17,-50,-24,8,48
10,11,11,6,-8,-23,-65,-20,33,74
-10,-13,-2,-8,-12,-35,-53,10,85,93
-27,-31,-23,-4,-4,3,3,37,120,145
58,-16,-68,4,0,20,28,61,161,240
116,-16,-55,-24,-19,28,58,107,195,276
73,-48,-53,-22,-12,44,80,137,200,267
136,33,-45,-30,-29,-1,9,70,178,311
189,99,2,1,2,16,22,74,191,334
77,39,35,32,52,76,100,123,205,311
-117,-37,10,32,64,92,128,118,133,175
-173,-87,-45,-3,19,32,82,36,-33,-71
-159,-57,-80,18,16,9,42,-39,-179,-399
-176,-44,-18,55,31,16,30,-39,-222,-647
-174,-120,-15,39,43,22,55,20,-142,-588
-72,-68,15,31,0,-14,18,-8,-106,-346
0,133,93,107,-6,-62,-59,-118,-212,-228
-185,69,126,254,115,37,6,-107,-311,-342
-285,-67,59,220,77,17,3,-92,-290,-376
-66,39,4,104,-27,-65,-101,-149,-291,-262
30,84,-116,-25,-46,-55,-106,-142,-248,-175
2,15,-103,-116,-50,-62,-70,-74,-113,-73
28,54,11,-81,-25,-17,-37,-18,-26,-6
110,176,42,-64,-48,-28,-80,-45,-26,54
132,162,-96,-94,-77,-49,-81,-54,3,130
94,85,-158,-82,-57,-38,-62,-46,-38,87
-9,13,-157,-51,-33,-11,-33,-33,-64,-51
-70,-2,-64,-24,-14,12,-20,-12,-21,-64
-20,-1,26,-20,-9,6,-34,0,21,-1
6,3,51,3,11,27,-16,11,26,11
25,16,7,18,10,46,11,29,32,32
27,9,-26,7,3,51,26,17,6,30
52,7,26,-6,-17,20,9,-12,-21,39
89,-3,12,-36,-43,-5,7,6,12,76
61,-21,4,0,-8,13,22,11,29,65
-10,-19,37,73,43,48,52,19,15,4
-66,-37,18,59,26,45,52,55,44,-23
-82,-50,-13,-1,-20,7,34,76,87,-21
-70,-60,-22,-20,-27,5,48,71,95,16
-47,-97,-75,-71,-38,-8,28,58,88,94
-95,-136,-76,-74,-27,5,37,112,157,191
90,30,18,3,34,44,24,103,191,331
206,109,-26,5,5,1,-55,34,159,376
122,68,-42,-40,-37,-64,-105,-32,80,218
31,8,-35,-42,-18,-53,-93,-69,18,68
6,-4,-23,-6,-4,-33,-79,-56,16,16
53,60,56,34,6,-14,-67,-48,-33,-50
51,60,83,25,-31,-36,-61,-58,-81,-75
-25,35,72,9,-38,-34,-55,-59,-94,-89
-158,-40,22,109,64,52,46,21,-30,-121
-99,-79,-41,57,5,24,30,26,-6,-53
-33,-36,-16,52,6,18,22,-4,-25,-78
-7,0,9,60,19,10,18,-19,-2,-45
33,37,135,43,1,-13,8,-40,67,14
44,69,134,-34,-45,-61,-16,-67,77,71
41,47,57,-73,-42,-70,-20,-62,57,155
56,78,90,-2,-4,-38,-8,-60,63,174
16,63,119,32,-3,-51,-19,-83,-12,19
-65,-18,97,25,3,-40,-18,-60,-59,-121
-80,-42,69,59,20,-6,-4,-11,-32,-117
-30,-56,19,44,-26,-17,-37,27,75,-5
39,-53,-2,38,-33,-41,-61,11,78,89
27,-36,2,30,7,0,-15,28,73,118
8,-22,-16,-5,24,30,45,61,76,74
-72,-53,-75,-42,36,53,95,81,23,-83
-167,-94,-70,-8,95,109,111,45,-105,-269
-43,-33,-31,-22,68,84,36,-22,-163,-162
-10,-32,-83,-72,10,49,23,16,-46,-21
-62,-62,-199,-89,-2,42,20,47,31,-14
-58,-62,-112,-60,17,41,34,58,27,-34
-108,-44,44,17,71,68,54,63,-12,-108
-62,9,73,29,27,13,5,29,-20,-66
106,86,42,-26,-77,-94,-124,-54,-56,15
189,96,21,-36,-80,-128,-169,-112,-82,31
121,40,24,-30,-52,-87,-119,-63,-30,34
54,-19,2,-22,-27,-28,-49,-10,18,46
3,-98,-43,-17,8,32,19,47,58,57
-77,-169,-66,6,67,99,87,88,78,11
-92,-151,-36,0,60,64,91,50,50,-40
-102,-160,-38,-22,26,18,60,46,54,9
-15,-74,-19,-16,9,-6,25,17,71,85
178,184,-28,-2,-11,-64,-41,-69,20,129
209,192,-69,7,-14,-72,-65,-89,-2,133
105,135,-51,20,-3,-47,-81,-100,-65,-20
5,94,40,23,0,-49,-49,-56,-69,-147
-62,40,81,20,31,-18,0,-14,-52,-184
-32,-10,39,4,10,-1,18,31,21,-23
14,-4,-15,-35,-31,-27,1,29,45,56
-5,-11,-80,-23,-2,-27,12,-2,23,44
-34,-45,-1,12,42,14,43,4,15,45
16,-45,18,-27,-14,-32,16,16,23,54
12,-46,35,17,-26,-45,0,21,26,15
-87,-93,58,140,64,3,50,54,22,-60
-63,-69,58,168,72,5,31,14,-32,-137
45,51,57,108,6,-42,-16,-29,-30,-55
92,59,2,-43,-40,-65,-29,-9,71,79
78,6,-33,-144,-64,-77,-44,17,149,188
43,-50,-24,-125,-22,-9,-7,80,239,298
74,-16,-2,-106,1,37,21,111,264,372
112,117,13,-80,2,18,7,67,138,231
-40,70,38,-19,52,45,28,24,-32,-76
-192,-44,30,23,101,89,63,15,-90,-215
-120,-35,13,-3,51,57,49,9,-85,-172
-68,-56,-40,-40,15,36,52,35,-58,-135
-96,-84,-67,-33,12,28,39,30,-50,-146
-68,42,17,8,42,36,7,-28,-90,-259
-116,25,15,24,74,56,27,4,-36,-177
2,31,-2,-6,3,-13,-19,-3,-12,55
0,38,50,8,-11,-56,-59,-42,-7,72
-71,7,78,77,41,0,-9,-18,22,96
37,13,36,35,7,-33,-31,-29,14,173
170,104,38,-51,-50,-104,-89,-117,-84,78
22,64,25,-66,-37,-54,-24,-78,-95,-70
-43,31,21,-67,-25,-27,10,-29,-86,-136
24,57,33,-55,-54,-73,-59,-75,-99,-146
17,60,45,-14,-30,-50,-44,-72,-113,-177
-63,19,26,36,28,-13,41,-12,-68,-172
-24,8,34,46,54,18,65,16,-21,-108
41,7,22,3,14,8,44,39,19,-49
106,37,-3,-42,-46,-32,-7,31,62,11
72,18,8,-23,-20,-4,7,63,137,110
30,-11,5,8,21,33,39,68,134,152
1,-38,-32,-5,-1,1,7,1,14,26
-53,-60,-39,-10,-10,-17,-8,-29,-47,-69
-7,21,4,-2,-22,-40,-45,-67,-50,28
-46,-32,-35,-2,2,-7,-15,-24,-30,5
-76,-48,-115,-22,-36,-26,-28,-24,-46,-102
-71,-53,-101,-22,-40,-31,-21,-19,-28,-57
-22,-44,-50,-7,-18,8,3,32,50,28
-28,-42,-14,25,37,61,55,79,111,60
51,2,0,-4,-13,2,19,50,117,192
33,-61,-33,-22,-40,-39,-20,14,47,247
-60,-66,3,25,26,18,25,0,-65,30
16,144,98,50,23,8,-11,-66,-185,-178
43,117,65,7,-16,-30,-45,-63,-188,-225
19,23,9,-30,-25,-23,-32,-8,-87,-144
1,-3,-6,-17,-3,3,-14,14,-10,-37
-37,-26,0,20,30,45,16,34,28,40
-38,-23,4,27,31,43,21,23,26,104
18,0,-1,-17,-19,-8,-7,2,11,85
39,-1,-20,-39,-39,-28,-9,3,24,27
4,-11,-16,-32,-32,-19,-20,-21,-27,-55
-65,-34,-41,-1,-5,16,-3,-19,-37,-28
-68,-25,-36,5,6,15,8,-29,-26,0
22,18,22,-24,-15,-13,-2,-36,-45,-13
45,16,6,-50,-18,-5,7,-3,-24,28
41,-33,-13,-67,5,35,47,45,23,73
-13,-118,-63,-36,30,82,123,124,116,142
-84,-147,-114,43,89,127,171,127,114,145
-21,-77,-43,57,89,111,169,104,105,140
89,-11,-5,-8,-10,7,88,18,66,167
90,15,37,0,-13,-11,64,-22,5,114
15,11,62,23,-1,16,100,62,112,87
146,130,106,13,-39,-19,46,26,131,68
192,163,119,15,-37,-17,8,-25,78,58
144,96,80,-5,-47,-38,-4,-32,11,110
83,39,75,10,-51,-26,3,-24,16,174
37,-14,73,10,-51,-5,18,-3,-7,91
-68,-44,79,19,-25,13,-1,-32,-85,-140
-81,-4,113,44,1,2,-67,-90,-126,-182
56,66,120,34,-31,-52,-124,-107,-100,-87
73,67,97,52,-47,-75,-123,-76,-47,-50
40,22,50,83,-11,-47,-85,-51,-11,-2
50,-5,-12,58,-4,-23,-53,-49,-33,-6
-48,-73,-112,-24,8,28,25,-10,-39,-74
-94,-90,-236,-88,12,64,71,27,-31,-127
-31,-35,-188,-96,-22,40,35,43,-4,-81
9,33,-33,-55,-29,25,1,40,20,-6
-4,37,2,-15,-10,43,-2,37,6,17
-35,-18,-37,-33,-7,52,8,39,33,42
-66,-63,-48,-25,7,64,28,50,86,66
8,-51,-64,-54,0,46,15,47,189,80
48,-65,-97,-110,-36,23,11,81,175,128
-44,-138,-86,-71,13,74,90,156,184,93
2,3,3,-42,5,45,51,80,90,-23
152,235,92,-12,-44,-26,-81,-43,-16,-50
137,183,62,-3,-45,-15,-71,-29,22,40
58,70,36,13,-13,17,-47,-17,0,136
5,17,35,24,-19,-15,-68,-86,-76,92
-63,-9,4,29,-13,-35,-48,-80,-114,39
-230,-154,-61,53,50,75,97,35,6,88
-275,-201,-22,94,127,171,215,118,102,72
-162,-38,23,72,80,110,156,22,-116,-121
-37,53,53,57,48,68,99,-43,-233,-292
85,45,10,-30,-32,-29,1,-55,-161,-172
82,52,-4,-59,-71,-81,-36,-73,-129,-107
93,108,62,-3,-51,-70,-45,-84,-130,-84
82,100,75,41,-16,-26,-37,-77,-100,-57
96,94,79,61,18,11,-27,-65,-111,-55
51,67,53,56,16,11,-23,-46,-81,-71
49,47,13,41,-17,-24,-36,-42,-13,-19
55,60,16,50,-3,-25,-37,-49,51,18
75,28,-14,1,-1,-16,-25,-17,79,88
44,-67,-56,-2,24,3,-17,34,94,156
92,-77,-91,-10,21,12,-9,59,128,244
192,-4,-76,-45,-28,-30,-41,39,104,278
108,-15,-51,-25,-20,3,-6,76,115,185
-20,-56,-22,30,41,47,33,81,56,-34
-92,-120,-82,3,40,7,7,45,1,-138
139,149,-63,-1,-12,-46,-66,-17,-9,40
125,101,-20,-7,-17,-21,-28,-14,47,88
67,25,-11,11,-12,-14,18,-5,108,9
23,-11,-6,52,32,24,65,42,79,-27
-4,-33,-15,53,32,39,52,90,46,13
-106,-77,-36,35,42,39,10,43,-45,8
-72,-116,-76,-65,-5,4,3,36,-49,-62
-14,-42,-91,-67,-33,-15,-22,-5,-84,-128
12,85,30,-15,-18,-41,-77,-70,-140,-143
48,146,146,30,10,-63,-90,-100,-155,-160
-6,92,123,59,33,-15,-53,-57,-93,-112
-110,3,67,108,84,62,25,22,-16,-22
-171,-89,2,105,94,124,123,119,92,98
-30,-85,-83,-15,-25,-7,29,30,58,131
91,10,-32,-54,-83,-100,-70,-61,-10,113
81,59,23,-32,-62,-65,-66,-60,-22,81
1,23,21,-32,-23,-16,-60,-30,-40,-59
-80,5,-2,-32,-13,-22,-50,-23,-76,-272
-79,2,-12,-34,-35,-53,-52,-21,-87,-350
-31,18,-14,-24,-31,-39,-47,-8,-7,-199
18,12,-4,-26,-20,-38,-47,8,115,-25
37,1,-1,-35,-12,-43,-30,30,222,124
-10,-58,-27,-33,-17,-26,2,19,122,223
-88,-116,-41,-35,-6,10,45,9,0,101
-182,-130,-41,2,37,54,97,43,-32,-152
-130,-74,-51,37,49,53,93,45,-39,-200
-18,6,15,39,9,-12,-11,-74,-137,-170
-80,-21,22,40,26,9,-8,-65,-140,-171
-61,-6,43,12,16,3,-5,-20,-86,-111
-27,8,39,9,11,-11,-8,-3,-61,-49
38,48,50,10,3,-26,-3,-11,-36,5
99,69,36,-11,-17,-34,1,5,16,79
167,77,35,-16,-37,-42,-9,7,30,102
180,71,30,-8,-45,-66,-48,-6,51,80
104,34,7,8,-1,-57,-56,21,108,90
20,-21,-33,12,39,-13,-17,39,99,61
-5,-22,-96,-21,27,-36,-49,-13,26,39
-82,-38,-45,-19,36,-31,-43,-17,-4,39
-119,-61,16,41,83,30,-8,8,19,72
-103,-27,-3,-46,-34,-53,-62,-39,29,-26
-135,-66,-28,-60,-42,-41,-9,23,61,12
-59,-15,-10,-30,-12,-3,29,59,63,39
15,64,-3,2,0,-5,6,2,6,29
-27,65,64,39,27,-1,5,-32,-51,-26
-1,23,40,15,8,-17,8,-32,-53,30
-8,-8,6,-7,5,0,17,-10,-22,52
-62,-19,0,41,63,56,65,43,-10,-20
-44,-6,-14,30,52,64,62,61,25,19
38,48,25,14,-1,18,-10,14,6,46
30,29,31,49,42,51,54,45,59,103
17,59,27,53,59,55,72,43,66,78
-18,93,15,11,9,10,14,-9,-40,-112
10,82,42,-14,-24,-16,-21,-63,-101,-198
-21,32,25,-8,-11,-8,-7,-63,-107,-140
-51,15,22,3,3,-7,1,-61,-124,-98
-50,-15,-11,0,3,12,0,-36,-89,-120
-133,-82,-29,11,43,81,47,21,-3,-150
-94,-76,-18,3,33,68,24,28,5,-95
42,9,-10,-43,-53,-57,-99,-38,-19,-13
37,9,9,-23,-53,-51,-105,-51,-33,7
33,9,35,-16,-37,-47,-66,-29,-14,12
29,26,38,-36,-51,-63,-43,-29,-9,34
4,-8,11,-30,-21,-24,0,0,18,56
-12,-74,-42,-36,14,10,37,50,86,73
-33,-170,-117,-59,41,71,114,127,136,100
51,-26,-62,-50,13,43,75,64,69,60
150,188,62,-12,1,-21,0,-50,-28,-24
87,97,41,-5,-3,-22,9,-29,23,-50
-7,-55,-42,-41,-38,-9,14,20,125,-45
-78,-77,-36,-8,-7,45,41,55,86,-71
-105,-80,-23,31,34,74,75,73,71,-60
-74,-21,-51,-7,-40,-8,0,31,24,-65
36,178,39,-1,-58,-34,-77,-56,-42,-70
26,145,49,20,-10,14,-42,-35,-6,0
-19,52,6,18,-17,-1,-22,-12,7,17
-32,23,-6,-3,-42,-38,-53,-28,-50,-6
1,24,2,-2,-40,-35,-73,-66,-90,-19
1,29,-41,1,-17,-19,-41,-43,-76,-72
-29,6,-107,-5,-20,-34,-13,-17,-41,-132
-57,-2,-6,50,-6,-43,-16,-29,-67,-141
-59,-1,51,116,5,-40,-37,-40,-55,-82
-48,2,70,136,28,-15,-36,-26,-37,-51
-48,-24,16,66,23,0,-14,3,-4,17
-79,-87,-42,-49,8,17,12,39,81,140
-21,-50,-56,-84,25,23,3,20,70,180
40,19,-16,-42,38,28,17,38,69,128
123,76,28,-29,12,4,-2,31,92,127
133,83,28,-16,0,-10,-13,21,136,181
131,77,6,9,0,-29,-21,18,156,209
49,1,-43,25,9,-7,25,58,153,200
-118,-102,-22,14,28,35,91,108,129,208
-248,-143,4,36,78,67,83,26,-68,-83
-51,0,34,99,52,17,19,-77,-226,-297
111,138,10,95,-27,-83,-16,-68,-147,-211
60,74,1,80,-6,-62,6,-9,-65,-151
10,0,24,66,46,1,55,13,-22,-128
10,-9,54,15,37,20,39,14,-6,-92
65,65,-46,-176,-120,-86,-65,-23,23,84
19,33,-18,-141,-52,-6,16,38,57,134
34,18,3,-71,-7,22,59,57,33,49
-34,-21,28,-23,37,60,101,83,13,-101
-32,-18,35,-32,-6,22,58,50,-14,-180
-107,-38,57,14,11,34,51,48,-19,-207
19,35,74,29,13,26,15,2,17,-76
96,56,48,-2,-16,-9,-19,-34,-32,1
21,26,-3,-32,-71,-62,-61,-58,-104,-48
-39,10,-10,-7,-80,-70,-74,-72,-128,-100
-53,-36,0,38,-19,-28,-48,-46,-86,-72
-57,-78,-8,34,1,-17,-15,-24,-67,-53
-33,-50,-20,14,-8,-11,0,-1,-27,-24
31,15,9,4,-20,-29,-26,-9,-30,0
9,20,32,16,0,-20,3,-7,-28,8
31,15,19,5,7,-20,-1,-28,-42,-9
34,-3,-27,-17,-28,-29,-38,-34,-55,-25
-10,-35,-27,-21,-33,-31,-43,-22,-34,-54
11,-32,-9,-5,-22,-26,-57,-38,-31,-44
11,-35,-15,16,-7,-22,-68,-65,-45,-28
-32,-55,-45,19,-3,-8,-39,-48,-42,0
-55,-52,-38,13,2,16,-5,-26,-41,-9
-25,7,-23,2,-10,15,0,-28,-7,-14
-9,30,-24,-16,-9,17,27,-22,3,-7
1,-27,14,16,34,87,46,13,16,-23
-19,-41,7,24,43,90,40,22,15,-57
-64,-104,-17,18,30,61,24,30,49,-27
-124,-206,-53,0,36,61,38,74,104,42
15,-17,29,30,55,45,0,12,32,49
108,155,111,70,47,15,-47,-40,-28,0
141,131,57,12,-38,-73,-87,-33,24,46
133,80,25,-38,-73,-86,-92,-4,114,129
156,52,45,-14,-22,-35,-47,17,133,186
92,-1,52,22,37,33,37,69,169,222
36,-18,19,0,15,21,32,42,122,221
-74,-104,-39,-52,-18,-28,-28,-7,57,194
-52,-61,-30,-81,-56,-64,-62,-59,-1,110
23,-19,-38,-111,-83,-69,-46,-44,3,65
1,-73,-31,-92,-36,12,20,23,28,92
-22,-77,-4,-3,60,94,113,73,5,31
-17,-83,-3,10,90,90,130,97,23,16
24,-5,-49,-14,37,13,25,2,-47,-72
46,22,-116,-40,7,-38,-38,-53,-74,-152
44,-16,-68,-53,6,-48,-32,-32,-61,-156
-1,-78,-35,-27,42,-9,15,8,-32,-137
35,-14,12,0,46,6,16,4,-45,-115
96,98,58,-3,10,-20,-29,-27,-78,-133
35,60,46,-10,0,-17,-39,-29,-87,-156
-20,6,0,-11,4,0,-15,-24,-72,-164
-13,0,-67,3,6,3,11,-24,-44,-87
-4,14,5,21,13,0,2,-15,-12,-11
-32,0,50,32,31,3,0,-2,11,15
-45,-9,37,37,42,9,4,6,37,32
-22,-4,28,28,22,7,-18,1,53,108
-4,-27,20,19,8,9,-23,8,90,206
7,-24,16,4,2,-18,-36,3,72,182
12,-15,-21,-14,-21,-30,-30,-1,25,64
-36,4,-27,8,41,37,26,2,-26,-106
