-29,-10,17,2,-9,-7,18,-19,114,-21
-26,-9,-4,-1,0,-11,40,-16,148,-32
-23,-21,-86,-10,-11,-1,49,-14,157,-24
-15,-12,-61,-1,-7,11,56,-9,165,-15
-17,-3,1,-3,6,20,57,-7,153,0
-24,12,5,-1,5,29,59,3,151,3
-23,8,-51,-14,5,30,52,10,143,5
-23,33,7,-14,6,37,51,8,146,13
-23,43,20,-19,10,49,45,-5,119,-23
-20,51,8,-18,6,50,60,-10,104,-23
-10,71,-39,-11,4,42,54,-5,92,-20
-4,77,-67,-14,13,36,44,-11,90,-26
-4,86,23,-15,21,39,51,-4,88,-17
-1,80,37,-10,30,37,25,0,67,-6
-1,82,43,-9,22,28,19,-11,50,-10
4,102,47,4,43,31,16,-5,38,1
10,110,50,5,57,20,0,-16,14,3
-14,81,21,-22,29,-3,-29,-26,-23,-17
-20,66,18,-31,3,-18,-57,-35,-48,-30
0,54,4,-36,0,-27,-69,-44,-66,-28
-1,51,-110,-46,0,-11,-52,-49,-43,-31
-7,54,-143,-51,4,-2,-31,-54,-23,-26
-11,48,-75,-56,4,10,-20,-46,-17,-30
-12,48,8,-50,19,31,-5,-5,24,-25
1,34,28,-58,13,33,-6,5,27,-26
-17,10,29,-70,-10,17,-12,-24,-6,-18
-30,-4,28,-59,-18,9,10,-37,-22,-31
-33,-14,17,-47,-34,-7,35,-32,-29,-41
-33,-12,-49,-46,-40,-27,32,-31,-20,-30
-43,-20,-127,-37,-53,-20,14,-6,-3,-14
-39,-13,-35,-27,-55,-16,34,43,20,-19
-28,-8,28,-14,-43,-18,23,72,17,-12
-20,-17,32,-3,-45,-19,17,35,-7,-7
-20,-1,43,-5,-45,-24,5,-2,-24,-8
-18,10,34,2,-41,-5,-7,4,-17,-8
-17,-11,14,2,-47,8,7,37,-15,-12
-23,-26,7,-8,-39,2,14,34,-7,-2
-14,-4,0,-17,-34,-9,35,37,11,7
-10,0,-35,-16,-17,-14,43,45,45,15
-3,-13,7,-5,-17,-17,16,45,56,21
-12,-20,13,-13,-33,-7,23,44,69,29
-5,-15,9,-2,-26,10,18,45,44,36
5,-12,8,7,-12,26,25,39,-7,31
4,-4,4,3,1,37,28,37,-14,12
3,-5,-3,15,13,34,15,33,-14,-13
11,-13,-63,19,22,13,9,16,-25,-14
12,1,-33,18,23,-11,25,5,-32,-6
-2,8,19,26,8,-27,19,-3,-51,-9
-1,-12,30,33,7,-34,-19,-24,-69,-23
0,-18,34,36,6,-27,-32,-27,-68,-23
0,-25,41,43,0,-36,-23,-24,-71,-20
-6,-45,43,34,-1,-43,10,23,-45,-26
-14,-45,25,32,2,-33,19,55,-29,-22
-4,-28,16,42,0,-39,0,45,-32,-8
0,-40,9,42,-9,-39,23,38,-51,-12
-1,-39,3,46,-9,-15,35,33,-86,-46
2,-17,-7,31,-3,3,20,21,-87,-45
-8,-20,-15,16,0,-4,13,6,-74,-40
-27,-12,-18,0,-20,-13,-12,-7,-70,-36
-33,-26,-16,-20,-35,-27,-9,10,-23,-14
-30,-19,-21,-8,-26,-44,-17,53,44,8
-17,-21,-36,-3,-22,-49,-85,75,81,4
-10,-11,-21,3,-18,-45,-109,31,73,-1
-4,-9,-15,16,-15,-41,-66,33,100,14
9,-3,-22,18,-19,-14,-39,48,95,27
12,11,0,29,-4,7,-20,66,56,28
7,18,-3,33,0,19,-2,80,27,25
11,32,-7,34,15,20,5,70,-25,10
7,39,-2,31,37,7,12,61,-29,-2
-4,18,-4,25,33,20,20,53,-15,-14
-6,5,-6,17,18,31,1,30,-27,-31
-12,10,-18,10,4,29,-6,15,-35,-33
-15,6,2,4,1,19,-6,6,-46,-25
-9,4,-21,7,7,6,-55,-4,-44,-21
-5,17,9,16,11,-8,-56,-25,-45,-8
3,24,28,43,23,5,-26,-45,-41,0
6,13,34,65,47,23,-13,-55,-54,-4
15,10,33,49,29,31,-2,-35,-44,5
15,3,27,33,29,21,17,-34,-22,29
7,-3,31,27,30,-4,10,-55,-17,17
11,8,34,22,22,-17,-16,-53,-21,8
7,-3,14,17,13,1,-25,-20,0,6
-7,-12,-6,17,11,4,-24,-27,5,-10
-25,-13,-45,13,10,-4,-43,-50,24,-14
-34,-35,-32,9,10,4,-35,-39,57,-8
-43,-39,-14,-13,8,12,-16,-18,71,-23
-26,-51,-27,-25,4,10,-20,-25,62,-25
-8,-39,-20,-20,13,20,-23,-32,36,-8
-23,-37,-24,-19,5,14,-34,-36,26,0
-42,-47,-41,-38,-1,11,-18,-24,31,9
-38,-44,-48,-34,2,14,-3,-16,33,9
-35,-38,-60,-38,5,-3,19,-10,42,12
-26,-26,-108,-45,-6,-13,7,7,44,31
-2,-1,-106,-27,-4,-1,34,-9,34,60
11,2,-133,-18,-13,5,20,-15,7,56
13,11,-62,-5,-9,10,-15,-25,-21,45
27,21,15,3,-4,5,-18,-64,-42,34
32,48,27,6,0,-9,-12,-87,-72,34
30,74,27,7,14,-7,-13,-68,-36,60
9,49,-1,-3,18,18,2,17,44,93
-6,18,18,-25,-9,30,-7,37,32,71
-4,17,15,-23,-25,9,-3,17,13,66
-24,29,0,-32,-23,14,38,82,49,69
-46,27,-15,-29,-28,21,46,89,53,61
-24,25,8,-4,-16,22,32,51,-2,49
3,41,7,13,3,27,19,18,-40,40
29,61,21,22,-4,29,12,-4,-52,51
49,84,38,31,-5,21,12,-19,-54,60
43,90,33,18,4,14,45,-21,-43,52
34,85,23,21,9,11,43,-19,-35,42
37,88,-52,29,-5,13,5,-6,-33,14
24,80,-129,22,2,12,17,36,-29,12
18,90,-54,29,10,18,15,29,-30,15
12,105,38,37,11,19,5,-17,-41,15
13,99,52,42,10,21,3,-45,-49,25
6,73,56,24,0,11,-3,-59,-77,28
-5,53,41,-11,-12,-4,10,-74,-91,15
-11,42,29,-22,-12,-6,51,-48,-70,2
-10,24,6,-6,-13,7,91,4,-49,6
-4,17,16,8,-8,19,98,19,-36,14
-13,6,22,18,14,2,92,33,-11,16
-7,-15,1,-1,14,-24,41,53,-79,8
10,-28,4,-42,-7,-35,-26,36,-220,22
21,29,-23,-4,17,16,40,30,0,41
26,30,-82,7,20,5,-14,56,56,41
25,11,13,17,33,8,-57,62,59,53
19,-22,49,-6,17,-11,-109,-11,-95,26
2,-36,39,-38,7,-48,-135,-44,-230,2
-2,-26,66,-31,21,-33,-42,-44,-77,5
-4,-28,35,-39,15,-24,-24,-49,-80,-3
-2,-21,-37,-36,14,-8,-14,-48,-55,0
5,-38,0,-56,1,-28,-76,-48,-165,-3
14,-50,46,-67,-3,-46,-99,-42,-224,-10
19,-12,66,-35,0,-17,16,-25,11,-6
22,-6,37,-22,-6,-12,45,-11,93,7
46,21,39,-13,7,5,66,-4,151,26
88,8,38,-32,1,-9,-1,-2,34,40
101,-14,42,-50,-13,-14,-36,-15,-44,42
69,15,61,-24,-12,0,16,-21,9,5
56,0,47,-22,-24,-6,19,-21,18,-12
24,-53,7,-55,-43,-62,-77,-16,-189,-37
-20,-147,-46,-116,-74,-130,-255,-33,-570,-85
-49,-46,26,-30,-45,-23,-31,-17,-84,-65
-65,-10,46,4,-35,8,60,0,117,-51
-48,-25,28,3,-29,16,68,28,161,-36
-19,-12,4,15,-20,22,64,32,195,-12
-5,-4,52,16,-1,34,74,24,198,0
12,-10,69,17,3,46,83,24,193,0
19,-21,73,21,19,52,82,24,164,8
16,-17,35,14,24,49,75,22,160,39
6,-23,-47,-8,13,41,67,26,142,12
7,-45,11,-12,23,28,41,12,112,2
6,-48,33,0,24,17,29,-10,86,-10
3,-53,42,-3,2,14,49,-20,85,-18
9,-41,50,-7,-4,19,42,-5,87,-2
16,-29,39,0,-9,15,38,5,94,8
14,-18,-3,-2,-2,-9,40,4,96,8
9,11,-3,0,25,-22,29,36,107,33
9,6,25,0,27,-37,8,20,52,19
6,-8,24,-11,16,-44,26,3,27,33
6,0,24,-10,3,-45,43,5,34,33
-6,4,33,-12,-18,-33,53,3,34,13
-15,1,24,-12,-15,-22,48,-7,24,2
-25,12,0,3,-6,-30,32,-11,3,-2
-16,22,11,16,7,-36,22,-3,-10,-5
-1,9,-1,11,1,-32,-26,-4,-29,-23
-4,-4,-16,7,8,-34,-36,-23,-46,-30
-14,-17,-36,-7,3,-37,-26,-38,-36,-39
-17,-24,-39,-13,17,-24,-30,-40,-30,-46
-16,-29,-29,-7,11,-38,-38,-34,-36,-48
-6,-23,-25,-4,1,-43,-47,-36,-30,-55
-1,-21,-18,-3,-6,-44,-51,-21,-16,-46
10,-12,-4,-8,-5,-41,-43,-10,0,-29
23,3,16,-15,-16,-35,-53,-16,-9,-9
12,4,20,-3,-6,-27,-50,-23,-18,3
7,-10,-26,6,-9,-14,-39,-16,2,2
-2,-9,-69,19,-15,10,-29,2,38,7
-22,-24,-9,17,-14,16,-23,8,64,9
-31,-10,35,31,-9,13,-31,-25,35,0
-25,35,48,46,8,19,-24,-54,-37,-23
-25,23,35,16,-18,20,-5,-53,-55,-33
-32,-10,25,-16,-36,26,0,-46,-79,-36
-29,-6,8,-42,-35,32,27,-5,-27,29
-28,-2,-9,-54,-49,19,58,63,51,78
-22,0,6,-61,-59,17,37,116,61,26
-9,11,13,-48,-39,29,38,86,48,26
-4,20,13,-22,-13,47,43,49,51,64
-18,11,15,4,14,55,46,9,45,54
-42,-8,-21,20,16,45,42,15,31,27
-41,0,-117,5,15,25,42,38,27,34
-43,1,-34,-19,2,6,14,9,-14,-27
-46,-2,24,-21,12,-11,24,-3,-16,-28
-31,11,30,-21,14,-10,44,2,9,-2
-19,14,22,-26,-3,-10,25,-3,34,13
21,25,23,-18,-15,-29,14,-13,39,16
43,28,9,-8,-10,-38,22,17,49,37
25,1,8,-4,-7,-23,21,39,19,24
-12,-39,3,-10,-10,-40,11,5,-39,-18
-20,-53,-3,-34,-27,-48,-8,-23,-73,-25
-20,-32,-21,-53,-41,-31,0,-18,-74,-13
-20,-17,-24,-52,-42,-28,14,3,-71,-10
-14,0,-29,-37,-12,-12,19,11,-81,-11
7,3,-32,-22,-8,2,-1,23,-87,13
19,6,-18,3,-12,6,-21,9,-106,16
21,25,-15,29,1,10,-20,-29,-124,-3
9,30,-5,36,11,18,-28,-36,-114,-16
-3,19,0,43,16,12,-53,-56,-130,-8
-10,-1,-7,34,0,-10,-81,-92,-146,-16
-3,-7,-30,4,-23,-14,-87,-98,-140,-36
0,-13,-105,-4,-29,3,-86,-88,-111,-19
-19,-39,-90,-10,-37,26,-73,-37,-64,11
-36,-52,-48,-14,-32,30,-36,41,6,49
-21,-33,-42,-19,-39,3,-55,9,-25,12
-20,-26,-35,-33,-37,7,-25,5,-22,10
-31,-52,-49,-51,-39,24,39,39,4,6
-23,-59,-65,-54,-45,6,21,0,-58,-92
-3,-59,-63,-36,-26,-6,8,-41,-86,-131
1,-57,-65,-33,-10,1,21,-64,-71,-125
1,-77,-80,-56,-11,7,25,-54,-59,-106
7,-102,-105,-76,-30,16,23,-36,-52,-91
33,-87,-98,-94,-36,0,6,-36,-32,-66
56,-58,-85,-103,-53,-36,-41,-43,-8,-54
33,-51,-71,-102,-68,-19,-50,-51,-3,-65
4,-51,-50,-83,-73,-13,-27,-72,-21,-100
-9,-28,-41,-54,-68,-41,-34,-75,-13,-102
-11,-27,-56,-36,-67,-56,-91,-66,-11,-88
-22,-27,-75,-42,-86,-61,-83,-78,-9,-88
-19,-22,-85,-15,-79,-46,-61,-14,34,-68
-26,-26,-39,14,-59,-24,-79,-7,37,-62
-67,-45,-19,30,-43,3,-56,-17,22,-89
-58,-45,-13,40,-16,20,0,21,60,-75
-24,-50,-36,45,12,47,32,19,87,-47
-44,-65,-53,38,42,53,36,-14,57,-66
-76,-71,-63,7,30,9,15,-66,0,-108
-48,-64,-85,-22,14,-17,4,-100,-28,-108
-26,-56,-72,-20,-2,-36,-14,-101,-19,-85
-28,-55,-37,-25,-24,-52,-21,-22,16,-54
2,-37,-46,-36,-45,-48,-7,51,65,-30
75,24,-60,-55,-51,-56,-16,49,51,-33
131,66,-133,-66,-37,-66,-43,25,23,-37
113,78,-137,-43,-31,-94,-117,-2,5,-31
60,57,-77,-22,-44,-119,-176,-12,-7,-43
21,16,43,-24,-73,-127,-167,-71,-47,-78
46,9,92,-6,-88,-150,-137,-132,-76,-86
90,3,77,-17,-105,-180,-147,-160,-82,-75
114,-16,61,-70,-110,-199,-158,-120,-68,-65
115,-17,37,-82,-112,-191,-171,-64,-56,-48
90,-28,44,-74,-91,-165,-163,-64,-42,-33
40,-77,1,-77,-65,-114,-93,-43,-1,-7
-12,-110,-82,-107,-48,-73,-19,-11,29,15
-9,-78,-175,-108,-50,-64,6,-13,26,25
2,-31,-91,-67,-38,-59,4,-33,18,25
18,5,26,-39,-14,-19,37,-42,18,2
37,62,105,-1,2,-5,37,-48,33,-20
8,94,157,48,35,-5,24,-56,65,-44
-53,69,159,69,53,-15,-5,-86,76,-59
-137,-3,134,57,19,-17,-6,-9,96,-98
-149,-33,101,30,-2,0,24,120,163,-81
-90,-22,58,-18,-16,33,66,180,208,-5
-99,-54,13,-60,1,92,146,171,182,2
-142,-126,-159,-89,46,163,181,165,143,-29
-183,-205,-233,-67,139,215,214,214,168,-36
-227,-248,-229,-16,208,201,207,243,165,-63
-233,-252,-290,-36,204,155,155,207,120,-73
-184,-196,-128,-12,171,125,94,139,94,-43
-117,-135,-37,20,53,75,74,108,60,-4
-83,-90,-83,-20,-16,62,65,88,25,0
-59,-63,-117,-11,17,74,75,83,26,47
-29,-20,-54,-4,32,59,45,68,45,99
-8,7,19,-18,28,22,-2,54,39,83
-7,11,65,4,43,11,-12,34,45,120
23,60,99,34,48,-12,-51,-30,-40,86
24,75,105,27,26,-32,-92,-51,-110,37
7,68,39,11,16,-35,-125,-29,-93,34
-19,65,-7,17,11,-20,-99,-16,-75,19
-35,57,67,38,6,7,-32,-11,-83,-25
-23,71,99,51,5,-4,-3,-22,-83,-51
34,81,103,47,-9,-34,-83,-56,-60,-17
59,71,78,68,-36,-73,-143,-74,-122,-33
57,-26,26,3,-64,-172,-340,-105,-538,-45
62,-33,66,-15,-71,-181,-351,-70,-546,-17
22,105,163,168,-1,-35,-62,-66,24,-15
-33,45,142,187,10,2,0,-96,-46,-50
-6,-64,72,91,-53,-100,-213,-115,-502,-26
15,-100,57,10,-110,-191,-370,-135,-740,-20
23,98,116,11,-164,-156,-124,-149,18,-4
28,70,74,-12,-127,-134,-158,-139,29,19
20,-5,105,8,-68,-190,-403,-185,-406,-29
29,-77,167,67,23,-190,-552,-139,-726,-16
60,107,335,242,121,44,-120,-43,97,86
29,165,417,346,110,73,-45,-72,171,23
-10,199,460,450,92,24,-42,-116,66,-54
-58,132,463,486,74,-60,-132,-164,-212,-137
-105,90,357,536,68,-96,-148,-215,-218,-178
-68,45,-36,191,-93,-53,29,-166,-1,-106
35,38,-211,-153,-117,25,153,-42,117,40
-28,-197,-465,-514,-124,48,107,35,-173,55
-133,-383,-580,-729,-182,13,-16,17,-554,-26
-161,-238,-365,-413,-39,189,297,0,31,-46
-131,-122,-97,-98,75,245,315,-35,123,-60
-146,-47,71,-10,-3,87,130,-162,17,-107
-115,-23,143,7,-109,-151,-176,-262,-198,-122
-108,54,231,125,-55,-302,-414,-352,-179,-126
-158,167,326,239,-17,-399,-594,-481,-135,-194
-98,239,358,176,-106,-417,-616,-459,-122,-196
57,288,299,-2,-105,-204,-335,-212,55,-25
285,268,37,-160,36,88,-36,101,136,240
435,254,-109,-70,197,271,234,323,435,423
347,196,-101,106,303,312,320,307,505,370
187,39,-196,150,321,307,313,275,429,252
202,1,-326,19,222,291,392,383,545,334
311,8,-429,-206,74,338,511,518,677,477
205,-63,-430,-246,86,368,510,530,599,403
65,-103,-326,-257,74,298,392,418,427,229
60,-18,-192,-310,29,256,338,335,357,179
76,58,-108,-238,50,252,324,323,366,173
13,22,-92,-71,104,217,293,257,332,95
-33,2,-2,12,64,140,249,213,256,10
-35,33,110,93,27,45,176,153,143,-62
-9,49,111,138,48,-4,113,58,38,-58
-1,11,50,135,91,-37,23,-57,-16,-49
35,32,15,132,81,-127,-122,-173,-58,-23
46,133,161,181,-42,-257,-258,-280,-98,-22
84,275,580,296,-136,-324,-308,-337,-155,-42
162,430,887,458,-135,-298,-251,-318,-166,-33
227,474,824,463,-141,-198,-96,-216,-105,44
138,316,516,386,-128,-63,145,-123,-76,33
109,150,231,372,-44,144,404,-34,-80,22
44,6,126,365,55,257,521,-37,-200,-77
-160,-163,-97,69,37,241,481,-104,-373,-314
-369,-412,-507,-379,12,291,511,-21,-395,-468
-355,-576,-846,-650,89,487,705,168,-203,-323
-183,-513,-794,-507,161,475,657,304,43,-46
-4,-321,-565,-353,135,268,328,286,186,123
-55,-267,-452,-347,42,49,-12,135,128,62
-119,-203,-293,-257,28,-124,-335,27,88,4
-113,-88,-17,-72,84,-218,-608,-76,95,24
11,121,256,171,90,-250,-657,-125,141,134
113,217,294,284,54,-214,-444,-14,220,206
83,150,174,241,24,-162,-213,75,224,162
16,106,90,78,-55,-202,-181,2,128,47
12,104,10,-115,-123,-221,-172,-110,20,-32
48,116,-56,-243,-167,-210,-139,-184,-29,-47
112,121,-108,-298,-167,-135,-30,-192,-4,21
195,120,-135,-253,-117,-27,82,-151,80,143
215,110,-70,-159,-46,52,168,-163,89,171
105,43,-7,-78,-23,47,187,-293,-55,47
32,-21,-11,83,78,110,218,-355,-147,-25
-81,-131,-15,295,224,177,236,-310,-177,-91
-234,-155,198,446,289,110,134,-344,-324,-263
-289,-4,476,511,216,-21,-79,-349,-463,-417
-269,137,630,555,133,-158,-327,-364,-466,-453
-232,194,685,550,89,-240,-440,-192,-263,-359
-114,264,778,431,73,-168,-356,144,88,-148
-13,329,735,357,81,-37,-131,316,238,-31
66,378,656,483,105,-12,-41,408,271,12
121,325,309,524,138,-15,-11,282,219,58
78,135,-82,260,125,22,49,175,122,35
138,30,-442,-147,82,147,184,235,167,132
353,-22,-729,-569,59,349,478,480,440,440
305,-265,-1002,-729,144,447,648,567,514,504
-98,-502,-892,-604,79,244,408,273,166,145
-309,-411,-409,-347,-47,153,287,87,-95,-145
-156,-129,-21,-212,-144,248,393,212,-25,-86
-65,-17,135,-29,-120,267,392,260,20,-26
-105,-56,72,56,-48,222,311,101,-103,-80
-117,-69,-62,-125,-45,175,202,-79,-237,-135
-9,-86,-301,-318,-2,217,187,-53,-187,-57
160,-182,-653,-327,221,285,226,291,131,219
418,-116,-712,-377,253,184,160,557,539,608
457,4,-422,-326,66,-187,-147,356,497,630
412,129,-122,-236,-103,-355,-276,245,383,541
220,66,-50,-139,-111,-326,-271,137,229,361
25,-36,-61,-46,-69,-300,-182,82,80,127
-127,-109,-63,-8,-31,-300,-171,115,4,-70
-145,-69,11,17,-50,-247,-134,4,-120,-155
-19,69,132,100,-69,-212,-94,-206,-247,-106
-36,86,164,125,-49,-108,-71,-355,-352,-154
-123,82,217,140,-30,-21,-65,-532,-486,-280
6,175,279,172,-48,-4,-72,-489,-437,-180
79,76,143,40,-133,50,41,-175,-111,41
86,-66,-59,-125,-184,106,146,100,138,192
0,-158,-108,-86,-51,199,147,153,141,125
-93,-192,-101,69,150,311,149,181,80,-24
-9,-47,-7,84,136,239,43,469,217,0
124,68,25,21,40,87,-70,500,335,112
166,137,95,32,-19,-111,-187,261,239,115
167,234,325,190,26,-310,-315,75,110,75
76,208,334,106,42,-297,-285,-12,-10,-19
-15,122,322,-112,-100,-251,-241,31,-71,-106
53,157,358,5,-163,-258,-222,149,9,-49
53,159,382,278,-107,-240,-248,27,-31,-58
55,132,348,440,18,-122,-173,-26,-30,-56
39,58,177,542,184,-3,-97,-10,0,-40
-72,-84,41,524,284,21,-117,-103,-87,-108
-290,-315,-267,173,252,32,-135,-257,-279,-289
-282,-301,-379,-204,98,109,41,-228,-284,-282
-89,-172,-386,-375,69,278,316,-25,-112,-93
16,-135,-521,-580,-58,301,471,125,55,49
94,-44,-488,-629,-153,256,507,185,146,120
123,24,-367,-482,-151,271,548,251,201,153
105,34,-169,-325,-197,174,472,230,172,107
69,45,53,-180,-178,37,293,136,123,60
68,106,216,-27,-100,-83,91,120,177,48
185,285,491,182,-87,-199,-55,150,301,140
243,384,704,404,-45,-232,-173,3,209,139
234,352,593,378,16,-130,-161,-154,71,97
244,259,301,189,44,16,-5,-121,86,145
159,131,158,190,83,-54,31,-176,-3,85
24,-19,31,149,100,-162,-15,-250,-131,-41
30,-89,-86,-55,10,-107,36,-95,-35,7
95,-10,17,-4,-48,-43,89,-89,14,72
6,-4,235,425,50,-114,-60,-302,-169,-58
-245,-166,295,760,122,-250,-301,-387,-281,-270
-311,-283,94,630,100,-243,-345,-249,-159,-269
-364,-330,-5,463,142,-228,-396,-290,-166,-335
-334,-275,-28,136,43,-140,-303,-296,-173,-326
-188,-98,23,-220,-136,-74,-170,-162,-134,-212
-14,-125,-300,-660,-134,162,144,165,115,33
130,-183,-668,-1010,-45,492,510,488,399,300
166,-121,-607,-893,-11,604,597,564,426,357
171,30,-215,-470,43,563,497,373,278,297
127,99,44,-3,220,494,350,147,95,194
175,113,-10,41,246,451,319,233,133,246
150,58,-95,-64,181,378,255,358,219,246
87,39,-74,-147,91,248,169,300,180,183
96,94,23,-146,19,133,139,249,178,188
125,161,201,-14,-4,-10,5,123,123,177
135,243,426,161,-77,-221,-190,12,24,99
133,295,510,233,-139,-348,-304,-53,-35,64
108,256,411,189,-119,-281,-261,-87,-42,56
-15,108,292,255,0,-233,-289,-192,-170,-53
-137,80,472,573,91,-261,-368,-272,-312,-200
-31,294,917,768,-39,-325,-405,-194,-270,-137
129,491,1145,974,-92,-271,-317,-47,-104,42
162,464,907,1031,-35,-218,-262,-10,-29,114
91,289,475,934,69,-220,-279,-46,-96,0
3,86,-69,334,3,-197,-225,-56,-136,-60
89,-71,-720,-615,-48,103,156,206,106,162
92,-308,-1191,-1278,-20,304,452,373,261,284
-216,-546,-1109,-1150,-20,183,275,88,-35,0
-370,-513,-754,-605,88,138,165,-140,-247,-198
-340,-387,-487,-239,98,56,91,-216,-294,-228
-258,-279,-432,-246,-5,8,50,-126,-182,-158
-126,-128,-338,-300,-70,29,58,83,-21,-61
78,108,-34,-291,-56,96,44,160,78,56
228,186,-76,-344,-17,224,53,105,170,202
269,164,-115,-373,-21,326,182,141,236,276
180,91,-105,-124,66,379,306,179,186,165
11,-47,-123,131,179,352,347,61,-12,-42
-193,-224,-180,150,265,315,348,-145,-262,-281
-338,-354,-249,-38,187,359,411,-166,-341,-417
-274,-255,-86,37,159,394,459,155,-117,-336
-89,-47,163,287,158,272,310,290,93,-137
45,69,276,316,13,5,93,125,100,-32
62,105,294,247,-132,-228,-145,70,80,-49
53,101,270,229,-102,-281,-353,167,166,-33
136,97,201,230,-39,-285,-517,433,396,94
211,115,187,174,-23,-262,-593,498,519,222
163,106,197,110,-28,-237,-495,60,222,123
66,33,128,91,1,-152,-291,-131,-21,10
113,-11,-49,-184,-70,0,-50,-32,10,74
100,-5,-64,-255,-131,21,16,-71,-18,41
58,9,-34,-107,-44,-25,-28,-173,-96,-41
14,2,-7,-10,28,-110,-160,-258,-168,-103
58,48,60,-15,46,-205,-278,-315,-210,-97
124,96,12,17,74,-235,-298,-124,-70,10
131,127,79,64,28,-209,-195,90,106,93
69,121,280,186,53,-145,-105,33,68,35
-34,94,492,433,6,-204,-186,-141,-119,-136
-107,123,715,633,-88,-306,-333,-284,-336,-292
-105,150,769,677,-164,-329,-367,-194,-362,-285
-42,77,441,447,-146,-234,-242,-76,-232,-101
-115,-88,53,236,-26,-198,-260,-218,-272,-114
-202,-191,-313,-185,-59,-271,-345,-242,-259,-162
16,-35,-432,-488,-189,-164,-154,30,21,108
57,19,-367,-436,-176,0,26,41,27,171
-96,-29,-189,-239,-178,1,19,-92,-171,-26
-184,-83,-180,-270,-247,-33,-16,-92,-241,-141
-132,-78,-158,-262,-162,28,25,52,-97,-78
-184,-44,64,76,0,78,28,69,-92,-139
-143,-3,80,215,135,167,71,35,-147,-150
139,97,-95,-4,143,337,286,259,129,155
530,241,-254,-282,22,418,489,586,572,628
475,187,-273,-372,-17,222,329,440,470,589
113,-77,-372,-491,-113,-109,-7,34,62,204
42,-116,-285,-385,-89,-129,3,-159,-52,119
-36,-181,-178,-17,169,52,59,-240,-94,1
-113,-265,-104,406,391,12,-93,-299,-343,-106
-97,-287,-101,230,202,-129,-297,-146,-724,-119
-100,-141,-31,102,70,-92,-94,57,-204,-99
-76,-71,-118,-86,31,13,109,112,32,-76
-107,-78,-185,-325,-18,74,225,116,-8,-127
-70,-6,-89,-415,-56,115,202,210,63,-63
-8,-20,-55,-409,-17,270,282,203,156,48
-28,-19,-23,-356,-17,414,428,141,171,37
0,116,181,-135,-93,344,350,15,79,-23
46,266,483,249,-112,170,143,-47,-7,-58
-30,204,528,551,42,71,32,35,36,-81
-227,38,417,623,164,-118,-262,-334,-259,-332
-160,76,519,629,106,-231,-434,-463,-338,-328
139,256,677,634,18,-166,-342,-191,-37,-4
233,244,471,468,56,-96,-229,41,207,186
90,-51,-149,67,147,-25,-40,190,364,191
-173,-336,-613,-348,103,-72,-48,41,185,-33
-354,-527,-883,-845,-79,-183,-185,-155,-47,-223
-257,-436,-763,-849,-131,-109,-71,-63,49,-125
-203,-185,-260,-363,-110,-119,-87,-158,-5,-172
-95,76,115,-207,-201,-199,-158,-292,-118,-153
173,305,212,-197,-171,-69,-12,-108,54,85
397,411,190,-208,-115,175,219,220,321,328
422,281,-70,-97,110,412,453,501,548,459
276,45,-350,152,390,419,480,475,524,397
-17,-205,-493,185,413,200,244,148,184,114
-115,-207,-395,-5,203,30,96,-76,-19,-10
-96,-131,-238,-186,31,-79,56,-130,-77,-24
-87,-120,-204,-341,-91,-93,80,-103,-89,-22
12,32,0,-257,-181,-49,126,-69,-51,28
33,105,170,-76,-127,5,110,-101,-91,-7
47,125,204,-72,-100,48,98,-81,-49,28
79,146,155,-88,-125,38,85,-104,-20,121
34,62,39,-136,-144,104,167,-157,-109,28
-35,-35,-57,-140,-71,99,226,-142,-175,-56
-113,-177,-220,-125,3,49,238,-103,-174,-84
-221,-257,-224,77,73,22,180,-193,-243,-170
-207,-180,-80,160,41,-61,92,-396,-349,-201
-85,-37,15,21,-101,-112,9,-337,-236,-83
-57,-9,43,21,-89,-129,-56,-59,-58,-32
69,82,45,92,-9,-161,-118,103,159,147
224,178,5,48,-55,-186,-201,175,278,274
138,143,72,87,32,-125,-288,307,302,164
68,96,122,94,84,-146,-340,333,337,82
30,49,96,48,-26,-206,-242,315,332,63
34,33,51,44,-26,-120,-88,269,259,51
9,10,52,138,78,-16,13,-58,28,-25
-125,-78,93,223,96,48,140,-361,-281,-207
-151,-91,123,267,25,54,281,-406,-421,-281
-116,-71,32,248,-30,6,308,-395,-429,-265
-20,-18,-33,186,-72,-89,164,-379,-343,-166
34,14,-32,-37,-159,-190,9,-222,-152,-69
-19,-32,-77,-293,-207,-185,-118,284,145,-30
21,57,87,-280,-120,-29,-198,766,528,113
68,215,333,43,-9,53,-310,546,518,121
14,216,328,257,74,141,-290,159,228,6
-11,138,221,248,71,181,-166,-66,6,-4
-94,-6,95,167,113,173,-91,-71,-72,-52
-163,-112,-33,49,119,154,-70,-127,-131,-122
-196,-144,-40,124,120,73,-137,-299,-268,-196
-165,-120,-9,96,14,-13,-98,-281,-273,-159
-65,-8,159,52,-110,-66,0,-114,-195,-64
-11,48,243,74,-120,-133,-18,-117,-220,-39
-31,25,219,21,-124,-186,-71,-108,-226,-58
-36,-15,95,-142,-179,-210,-76,58,-98,-57
36,23,6,-251,-173,-167,-52,240,117,65
92,47,-71,-248,-122,-145,-65,280,256,184
107,7,-160,-214,-59,-123,-57,206,272,233
94,-11,-135,-3,52,-50,-75,112,195,200
-29,-74,-29,261,214,-10,-161,-117,-39,12
-137,-131,93,270,139,-44,-138,-217,-193,-132
-206,-87,385,498,60,-117,-155,-338,-314,-228
-216,-15,491,598,-20,-194,-201,-428,-376,-255
-181,-49,257,275,-159,-184,-131,-384,-314,-208
-257,-98,75,2,-242,-211,-173,-496,-419,-308
-216,-58,-109,-367,-328,-236,-164,-500,-437,-308
97,52,-365,-780,-297,75,201,-4,28,79
366,108,-494,-790,-108,406,541,564,559,479
63,-147,-477,-365,205,366,355,430,378,212
-209,-139,97,408,347,178,17,144,40,-134
-157,101,503,859,319,72,-141,87,-22,-163
-131,120,375,903,262,12,-149,-21,-68,-164
-139,79,250,741,248,0,-131,-130,-73,-172
126,206,6,114,74,103,-10,44,200,84
349,155,-386,-668,-281,150,164,296,486,350
141,-8,-300,-727,-411,35,28,71,224,109
196,200,108,-211,-285,71,42,8,157,115
230,255,160,142,-108,97,78,31,195,177
-62,14,57,210,34,-44,-75,-124,8,-52
-115,9,96,174,-15,-123,-125,-154,-42,-102
-74,-41,-40,-31,-18,-121,-136,-113,-2,-81
-163,-159,-76,-129,-80,-206,-270,-229,-134,-181
-23,110,566,549,-3,-118,-208,-192,-124,-98
190,323,791,853,68,78,24,-2,40,83
135,140,328,655,84,114,76,68,71,93
-109,-29,108,607,100,-136,-185,-212,-234,-190
-148,-84,-249,-54,-86,-256,-257,-299,-291,-239
167,-178,-952,-989,-63,165,284,289,268,276
96,-402,-1182,-1023,235,370,497,455,332,318
-28,-386,-918,-784,222,267,373,274,130,178
55,-229,-650,-725,12,201,331,232,108,170
102,-100,-420,-486,5,187,285,294,123,171
78,-46,-290,-243,127,214,221,298,109,133
43,-48,-223,-152,152,196,135,168,41,95
16,-33,-140,-67,135,150,18,10,-65,43
-2,18,-2,26,122,101,-76,-20,-118,-11
-31,71,191,54,37,-38,-328,-104,-369,-106
-51,35,335,-27,-148,-205,-623,-290,-953,-202
-4,156,501,96,-207,-159,-414,-294,-649,-185
178,340,540,283,-143,-32,-124,-116,-200,-26
366,344,222,346,60,246,294,244,258,239
293,63,-181,215,304,400,425,311,207,275
41,-209,-338,62,289,199,202,21,-133,55
-37,-106,-78,43,24,-74,73,-291,-175,-69
54,135,319,245,-230,-322,-1,-410,-221,-40
64,207,485,256,-391,-421,-66,-419,-215,-40
-41,124,247,57,-436,-364,-115,-465,-251,-131
6,-56,-260,-603,-419,-191,-72,25,-115,-4
81,-95,-354,-506,19,96,-23,230,234,153
58,-111,-286,-115,291,73,-288,96,60,123
70,-144,-184,-95,190,55,-380,188,-483,118
139,39,33,43,112,194,56,475,135,201
106,77,16,153,196,205,200,661,534,197
-154,-256,-192,95,265,49,-202,258,-385,-78
-156,-208,-59,66,120,-21,-270,-68,-682,-162
-47,128,361,321,63,69,65,-107,-15,-119
-3,264,710,606,50,56,57,-29,100,-58
7,312,717,644,-21,-68,-49,-12,142,-32
-61,230,417,316,-124,-165,-140,-90,118,-64
-58,130,61,-163,-200,-252,-205,-172,107,-54
-24,-34,-409,-583,-57,-135,-103,-115,85,21
96,-112,-677,-749,133,95,158,257,240,244
59,-61,-397,-300,238,161,288,253,408,193
97,58,-103,-138,50,137,281,88,331,156
96,151,68,55,-110,93,261,13,246,128
12,74,176,415,36,97,164,9,69,39
-94,-72,109,353,123,25,5,33,-76,-72
-129,-40,161,345,63,-80,-45,105,173,-83
-162,-15,213,370,26,-139,-100,71,176,-116
-105,-37,4,133,43,-85,-62,99,185,-60
-51,-119,-198,-53,105,0,-6,34,61,-1
-266,-273,-115,64,90,-98,-114,-214,-264,-228
-394,-162,155,16,-206,-277,-146,-554,-413,-454
-259,-32,181,-148,-362,-290,-77,-493,-443,-391
-40,157,283,-357,-405,-243,-28,-269,-493,-212
249,146,34,-787,-363,20,168,80,-585,156
259,163,-20,-681,-263,273,538,143,-7,282
148,198,297,53,-3,285,458,-44,122,157
231,257,369,498,162,370,482,252,299,232
294,237,277,584,283,355,330,424,287,270
172,102,202,633,345,128,-74,176,37,113
-129,-200,-252,19,177,-102,-316,-65,212,-101
-156,-203,-321,-356,33,-56,-261,87,270,-113
-211,-331,-510,-348,189,23,-272,141,61,-126
-137,-375,-568,-303,277,26,-422,161,-396,-71
-26,-122,-186,-147,183,151,-93,71,25,1
-30,23,231,247,155,195,68,-42,171,-34
-77,24,300,436,138,176,78,-66,100,-64
-165,-35,225,363,20,-1,-130,-260,-196,-211
-164,-63,93,21,-195,-220,-273,-392,-346,-277
69,63,-349,-639,-138,-74,211,-80,233,85
40,-14,-393,-480,32,-37,307,66,334,140
68,-16,-218,-287,38,-73,226,284,244,184
159,9,-63,-193,10,-150,-106,226,-297,188
233,206,67,14,42,-35,20,121,98,222
56,54,-65,38,34,-16,22,141,330,122
14,42,41,174,33,-39,-62,205,375,113
53,93,155,208,68,-68,-154,46,142,65
-56,59,270,308,113,-89,-196,-168,-136,-105
-80,74,104,63,-162,-8,-6,-99,88,-58
-66,54,-16,71,-122,44,67,-63,91,-45
-155,-68,-9,116,-81,-45,-132,-209,-267,-178
-172,-242,-152,-298,-167,-167,-404,-276,-839,-214
-149,-109,-71,-409,-135,7,-84,-238,-336,-171
-5,81,41,-310,-119,224,252,-75,96,-3
189,249,92,-230,-115,314,398,122,287,184
299,330,185,-28,-98,239,346,220,246,277
109,102,122,97,-42,33,96,105,21,90
-7,80,286,394,-2,-84,1,-27,85,-42
-91,14,340,583,70,-127,-52,-154,40,-126
-268,-195,64,404,57,-257,-157,-336,-105,-258
-424,-403,-280,-89,-102,-501,-421,-531,-442,-412
-284,-337,-379,-278,-109,-548,-449,-471,-402,-321
157,-149,-486,-312,1,-211,-10,-102,191,131
202,-5,-201,17,176,25,118,-13,232,181
236,92,23,152,157,132,135,172,150,231
155,19,96,195,132,156,42,310,-186,218
-21,287,506,302,13,249,267,-157,31,2
-22,303,511,253,-150,106,139,-351,-110,-29
-132,90,302,276,-178,-32,-60,-447,-403,-124
54,41,194,89,-322,-303,-431,-394,-887,-5
103,66,-96,-174,-301,-245,-185,-239,-204,100
-4,-154,-616,-590,-74,-22,39,266,372,132
8,-223,-748,-707,186,270,194,589,646,234
20,-182,-511,-368,338,394,218,337,438,214
-21,-218,-497,-271,381,412,191,428,396,182
-41,-188,-488,-205,387,395,240,597,696,188
-30,-102,-276,-14,339,319,192,614,623,140
-2,-29,-84,63,228,251,105,383,407,106
57,18,14,-31,106,227,36,178,145,104
91,56,104,-115,3,184,52,163,100,124
175,222,244,36,-96,-9,54,145,284,180
186,229,252,211,-44,11,65,135,242,175
27,1,63,213,33,-32,-67,9,-137,14
-83,-160,-20,148,-25,-162,-340,-104,-667,-131
-43,-4,102,192,-23,-52,-103,-50,-153,-65
-114,-13,73,146,1,-78,-74,-119,-53,-130
-83,26,109,128,-42,-92,-88,-136,-67,-110
-19,7,116,67,-60,-90,-128,-115,-186,-70
-110,-84,94,118,-31,-81,-153,-160,-247,-148
-435,-160,481,562,-86,-255,-369,-526,-409,-520
-349,10,629,667,-191,-341,-449,-628,-513,-527
-189,108,536,439,-363,-484,-585,-667,-767,-463
-52,64,357,68,-487,-551,-678,-560,-1091,-315
132,211,279,-169,-401,-240,-79,-226,-126,10
259,256,149,-341,-281,24,299,54,377,225
13,125,139,-138,-119,-16,179,-132,140,-50
38,153,149,-137,-199,68,271,-8,61,-6
125,107,-109,-389,-225,272,490,226,177,142
-50,-132,-241,-115,111,93,56,85,109,-3
-147,-207,-219,318,300,5,-76,-22,-27,-95
64,-146,-194,197,228,57,9,355,7,149
134,-288,-322,128,373,174,-44,656,-217,290
-100,-218,41,780,533,241,87,332,134,75
-155,-94,189,639,146,67,32,30,156,-43
-128,-11,117,121,-181,-56,-16,-50,63,-84
-245,-107,6,-328,-273,-184,-184,-141,-204,-264
-149,-171,-371,-936,-162,20,2,8,-61,-132
144,-77,-604,-1319,-243,323,401,255,428,240
184,-29,-300,-461,5,319,338,163,373,269
-206,-272,-278,479,488,42,-58,-232,-62,-146
-271,-250,-122,322,141,-239,-292,-308,-294,-264
-59,9,200,294,-165,-294,-242,-215,-146,-113
53,80,88,239,111,75,144,164,274,19
-75,50,254,294,98,0,13,12,70,-158
11,28,116,-111,-42,4,1,-42,-223,-84
221,-53,-371,-760,-132,146,121,125,-326,182
98,-111,-552,-676,46,223,301,52,109,105
-10,-69,-304,-196,159,144,237,14,149,-40
200,211,43,-72,55,205,351,276,412,183
198,258,246,86,-30,109,162,264,228,167
87,161,159,124,-59,-37,-57,198,124,47
-13,-1,-188,7,46,-1,23,134,211,-10
4,-82,-336,-248,62,152,161,262,347,78
-11,-159,-362,-390,8,189,136,218,-14,50
41,-161,-251,-355,-46,134,22,120,-528,24
89,42,-37,-73,93,256,282,89,1,41
48,37,-14,122,237,242,255,138,170,27
-41,-38,-11,256,285,130,55,10,89,-39
-64,-77,-32,83,114,-1,-99,-70,-134,-72
3,29,91,73,-31,-79,-172,10,-57,-32
-41,139,368,419,-175,-304,-336,-177,42,-79
-100,112,504,555,-203,-347,-398,-323,-112,-136
-128,89,676,628,-225,-425,-582,-423,-533,-213
-77,22,563,550,-187,-438,-678,-316,-906,-190
74,118,216,319,-49,-85,-83,85,49,91
91,27,-131,-51,-20,103,156,157,328,179
-13,-128,-415,-418,29,111,114,52,221,69
8,-248,-624,-780,-43,80,93,122,122,105
-39,-291,-495,-534,-50,56,66,94,98,51
60,29,67,-148,-125,-67,-13,-44,176,47
74,47,93,-185,-164,-134,-70,-103,141,47
24,-14,145,-134,-201,-226,-266,-145,-199,-7
2,-19,441,157,-255,-357,-498,-210,-676,-76
-121,14,460,342,-140,-250,-175,-252,-103,-147
-234,-100,134,152,-81,-211,-123,-322,-48,-292
-101,-20,-54,-57,-88,-40,50,-114,67,-159
11,-106,-391,-239,126,195,234,160,102,27
88,-150,-542,-210,384,397,386,291,249,141
172,133,-153,52,128,224,259,222,440,232
146,132,-35,56,69,38,93,104,380,198
107,15,-66,-80,28,-119,-174,-117,-31,119
21,-137,-125,-186,34,-120,-342,-212,-573,30
51,31,-1,-58,66,89,56,-149,55,103
99,83,7,-91,-73,139,248,-59,269,176
118,90,-83,-101,-111,169,357,13,287,196
91,59,-98,-54,-75,134,303,76,85,132
16,23,30,24,-22,117,263,16,-22,22
-25,53,117,125,87,120,315,-18,61,-31
-18,93,175,142,109,8,196,-60,34,-47
33,196,285,174,-28,-114,11,-76,-11,-23
87,232,347,209,-112,-212,-287,-83,-152,-4
76,208,290,220,-50,-189,-326,76,-13,-8
-62,-51,-121,31,87,2,-64,-219,-106,-84
-79,-23,6,302,113,3,-63,-227,-144,-102
-154,-99,144,335,11,-70,-180,-163,-445,-165
-123,-58,284,204,-96,-161,-299,-120,-604,-136
-49,182,351,48,-195,-136,-68,-107,-10,-49
-31,211,242,-222,-386,-209,-40,-54,78,-48
66,207,134,-354,-389,-125,50,13,146,38
193,150,168,-128,-191,61,152,131,111,210
-105,-217,-129,157,223,76,21,-26,-19,-6
-211,-45,25,52,-51,-304,-433,-285,-150,-298
91,186,0,-376,-223,-75,-178,126,255,51
448,123,-505,-690,34,394,229,569,454,548
325,-157,-696,-293,419,451,204,500,30,464
91,-109,-430,94,434,389,333,256,340,189
-51,-122,-326,47,279,229,266,284,360,35
-71,-76,-226,60,182,128,162,373,395,28
-9,-18,-166,157,167,101,56,189,180,65
8,48,-114,169,158,145,146,143,171,40
-69,19,149,315,127,131,193,8,164,-74
-122,60,411,514,90,39,85,-88,33,-173
-115,126,786,695,-39,-135,-188,-186,-398,-246
-90,152,796,678,-168,-253,-413,-242,-752,-269
-82,209,570,577,-211,-158,-175,-229,-143,-209
-99,85,199,256,-235,-185,-165,-221,-23,-189
-73,-112,-377,-365,-151,-131,-95,-106,78,-76
-120,-337,-803,-815,-111,-164,-180,-100,-88,-66
-119,-247,-578,-461,12,-151,-207,-188,-121,-92
37,10,-127,-115,-20,-49,-70,-150,67,12
126,124,38,37,-22,-13,-22,-92,122,110
143,101,120,177,-61,-58,-136,-66,-223,123
40,-41,10,76,-124,-90,-203,-103,-672,7
47,116,137,45,-96,95,256,-179,-151,8
42,58,27,-120,-124,131,395,-209,-73,10
-67,-102,-167,-274,-134,57,292,-258,-130,-103
-209,-260,-315,-411,-178,-13,60,-355,-374,-227
-206,-199,-232,-308,-117,55,32,-288,-231,-221
96,-11,-264,-197,148,181,-11,767,744,200
289,76,-199,-20,346,404,167,768,854,401
256,24,-61,80,347,354,7,508,255,297
22,64,166,227,125,195,66,111,99,52
5,124,226,318,88,148,98,28,155,18
7,132,226,195,24,55,30,-17,26,16
73,104,183,-31,-147,-148,-225,20,-431,36
90,208,318,88,-182,-204,-197,106,-191,23
-9,192,373,204,-171,-108,-41,73,136,-43
-127,-14,74,45,-51,8,72,44,130,-94
-325,-255,-280,115,225,20,-17,-138,-83,-282
-302,-244,-278,51,171,-51,-155,-191,-295,-297
-76,-131,-374,-371,32,72,78,93,61,3
139,-20,-461,-610,-11,182,327,328,478,261
112,25,-215,-297,49,103,218,221,374,187
118,129,-3,-67,-33,-14,114,126,257,154
87,156,299,235,-99,-137,-68,8,-25,75
44,187,531,498,-132,-190,-119,-113,-54,-27
-41,89,210,50,-295,-187,-127,-245,-49,-103
-83,15,-76,-298,-349,-146,-71,-310,-102,-135
24,-15,-79,-40,-125,-51,-127,-273,-460,-36
34,-95,116,459,102,-26,-280,-285,-869,-19
-173,-100,110,701,192,25,-38,-413,-262,-153
-422,-353,-246,303,165,-72,-94,-543,-307,-365
-332,-294,-345,-198,6,-95,-135,-347,-241,-299
36,-55,-359,-604,-83,118,50,335,101,83
177,7,-450,-550,88,335,361,656,443,292
40,-73,-436,-380,118,219,356,535,457,154
25,-19,-214,-204,39,66,178,445,372,127
89,86,-1,-68,7,3,60,341,345,177
43,39,50,-23,-6,-51,-2,177,24,61
-6,27,90,19,-1,-19,77,74,-28,-33
-42,72,162,142,-31,-52,70,-79,-26,-98
-15,85,140,121,-40,-77,6,-123,-50,-79
18,20,63,-36,-72,-147,-252,-176,-463,-93
25,0,38,-109,-150,-163,-300,-143,-603,-107
80,155,117,5,-105,-31,73,-18,73,3
71,88,9,17,-53,23,167,71,197,39
-7,3,-62,5,-53,0,107,26,139,-23
-161,-109,39,194,23,-158,-177,-209,-262,-211
-218,-29,336,619,95,-229,-186,-416,-363,-336
-117,44,138,316,-127,-233,16,-412,-241,-273
-19,28,-3,-53,-181,-203,-7,-350,-221,-222
101,-114,-317,-665,-219,-55,-1,0,-360,-45
192,-193,-494,-872,-135,167,122,469,-225,152
153,16,-148,-159,165,252,180,479,445,167
141,154,147,235,236,140,8,251,444,131
130,212,268,218,102,65,20,25,276,111
48,111,252,132,1,0,-31,-93,-36,34
-57,6,199,104,-58,-29,-17,-128,36,-21
-95,-10,155,27,-108,-16,-60,-126,80,-54
-161,-75,101,-12,-115,-92,-112,32,60,-131
-37,-50,137,-9,-129,-175,-277,46,-357,-94
65,-16,245,67,-30,-96,-237,15,-544,-30
-157,-62,320,393,180,-17,-17,-188,-132,-221
-353,-145,312,401,113,-160,-154,-382,-246,-428
-214,-31,298,114,-134,-176,-118,-330,-164,-299
-55,23,132,77,-26,-93,-134,-371,-325,-179
5,103,84,263,62,-110,-138,-370,-192,-132
35,268,502,641,-10,-187,-168,-265,-3,-115
297,426,610,579,-108,-21,50,20,323,179
117,133,139,254,-79,-52,2,-39,237,43
-101,-273,-480,-383,-88,-141,-151,139,97,-57
212,-149,-705,-486,384,447,439,623,742,369
114,-203,-624,-349,388,434,390,398,510,237
-30,-353,-567,-174,383,185,-2,130,-211,16
-18,-269,-364,-29,272,42,-141,66,-350,-28
39,-65,-196,-51,140,107,145,153,267,56
57,-16,-163,-87,55,78,198,167,348,89
27,-38,-195,-91,21,39,180,184,311,85
-27,-94,-234,-68,0,-41,40,72,15,10
-159,2,139,116,-147,-127,7,-334,-129,-266
-202,47,262,209,-209,-238,-179,-645,-353,-338
-176,-21,256,192,-265,-357,-413,-854,-946,-368
-57,-5,142,166,-220,-332,-368,-716,-914,-249
5,117,65,107,-125,-141,-79,-435,-138,-108
145,184,-27,-149,-18,30,3,-81,224,105
177,128,-129,-367,55,173,138,329,414,174
198,42,-310,-322,256,291,204,965,576,268
77,57,-119,-12,197,310,120,355,550,159
87,124,64,76,59,209,106,251,453,159
74,31,69,29,-37,-33,-94,176,-47,144
-24,-100,-54,-38,-85,-109,-138,91,-237,33
-38,-11,-54,-55,-67,6,113,30,224,7
-3,8,-137,-195,-44,31,111,-25,213,11
0,8,-200,-218,-15,41,94,-54,143,6
-33,-17,-72,-183,-109,-47,-40,-129,-123,-51
156,424,700,228,-398,-225,-38,4,137,52
138,274,311,-59,-407,-154,6,20,123,60
110,-19,-218,-457,-339,-109,-82,-10,-285,62
5,-276,-548,-294,95,-5,-62,-99,-322,30
-189,-358,-552,127,431,81,71,-225,53,-99
-149,-261,-381,80,207,19,59,-193,115,-61
-55,-111,-148,31,50,-95,-64,-240,4,-44
-64,-93,-39,12,62,-177,-238,-227,-275,-116
250,137,-96,-214,-36,237,457,293,349,321
110,67,-41,-113,-10,180,365,134,136,162
60,-67,-48,-163,-53,-3,19,68,-398,73
108,-50,-30,-90,-53,-71,-70,88,-374,99
81,68,43,37,17,39,153,171,219,106
-76,17,57,36,36,-5,49,214,230,-25
-69,43,145,143,54,-84,-162,112,170,-48
-28,60,214,207,57,-159,-359,-31,-90,-69
154,117,-17,-142,27,256,342,262,359,230
85,43,-71,-149,41,205,232,253,262,174
-23,-135,-68,113,126,-9,-188,102,-321,28
-66,-115,110,325,128,-109,-311,-29,-424,-39
-73,19,182,332,75,-46,-73,-57,95,-25
-58,55,143,276,42,-45,-47,-74,96,-51
-41,116,194,278,67,-32,-71,-126,-2,-92
-16,83,86,73,29,-16,-80,-72,-169,-56
-138,215,759,804,26,-190,-178,-318,-125,-212
-35,298,632,672,-54,-134,-76,-394,-180,-141
-77,38,195,258,-132,-247,-238,-560,-824,-245
-52,13,73,-109,-189,-250,-167,-608,-903,-240
158,208,29,-536,-274,67,410,-253,-14,48
254,115,-235,-998,-333,286,654,126,311,223
-69,-111,-253,-605,-139,177,367,97,69,-89
-96,-73,-53,-75,-67,37,2,433,43,-113
10,-36,-221,-18,138,89,-81,727,510,92
200,14,-464,-158,356,312,102,868,853,365
132,-67,-522,-125,502,333,113,561,713,278
46,-31,-229,-40,369,221,60,200,374,105
74,-34,-123,-118,185,170,27,167,118,117
-166,-239,-328,9,439,348,112,75,168,-82
-93,-151,-212,54,335,303,151,89,198,-37
-49,-79,-74,97,255,232,156,97,159,-16
-1,-172,-85,49,143,65,-82,77,-548,-14
48,-130,-14,158,48,-18,10,110,-569,36
72,69,175,312,6,0,409,173,273,122
82,124,197,264,-61,-164,327,176,314,144
4,89,189,86,-106,-236,118,5,143,36
-20,11,122,-163,-175,-240,-70,-86,-120,2
95,65,-8,-223,-191,-98,45,53,187,174
171,171,139,56,-121,-69,19,64,334,255
82,121,212,248,-55,-143,-157,-106,203,130
-44,34,195,255,-49,-215,-312,-307,-39,-34
-67,32,302,206,-134,-344,-478,-521,-425,-141
30,198,278,-9,-301,-280,-198,-510,-200,-72
138,252,154,-10,-291,-226,-135,-471,-158,-48
182,187,17,-54,-224,-139,-103,-434,-191,-13
244,-81,-290,-409,-172,-85,-184,-223,-690,91
90,-248,-308,-380,-100,-131,-210,-136,-727,9
-5,-42,107,167,5,-17,31,-204,25,-28
-88,10,243,323,-24,16,3,-353,-47,-103
-160,-81,131,224,73,111,31,-337,-119,-137
-247,-198,-22,176,225,103,-49,71,-184,-198
-94,-82,-157,4,303,293,115,753,409,28
135,78,-140,-155,321,435,188,962,824,316
134,71,-117,-170,310,436,165,754,769,329
-18,-47,-166,-128,300,376,96,462,427,153
-133,-136,-155,37,311,302,-6,224,20,21
-15,42,-39,-56,73,140,142,224,295,123
11,78,146,51,-22,-67,-1,147,230,103
-57,61,298,226,-90,-184,-203,-43,13,-15
-119,-24,507,351,-168,-392,-590,-200,-783,-100
-71,65,823,550,-160,-445,-575,-219,-828,-112
-40,211,648,489,-118,-290,-157,-188,23,-75
57,250,318,320,-111,-239,-68,-141,140,20
98,113,-117,194,-1,-106,8,-46,175,108
-109,-329,-704,-536,-12,-110,-66,-88,-101,-13
-147,-291,-544,-833,-168,-37,61,-28,80,-14
-155,7,209,58,31,-17,0,-141,49,-118
-165,144,374,207,39,-63,-103,-263,-84,-227
3,220,107,-249,-140,-8,8,-113,21,-65
126,73,-318,-489,-124,153,185,74,1,124
48,-184,-596,-381,143,332,421,124,189,165
-86,-381,-735,-187,320,286,347,-33,118,42
-49,-306,-634,-141,169,204,261,-163,44,19
18,-149,-364,-137,59,230,270,-191,34,28
18,-70,-201,-77,117,298,282,-165,39,8
54,36,-34,13,64,165,213,96,214,82
117,158,113,10,-115,-104,117,205,317,159
142,154,38,-137,-185,-116,180,257,337,205
132,134,-34,-170,-141,3,292,481,402,221
108,124,-63,-80,-66,84,304,576,440,210
123,129,-4,-13,11,148,307,544,438,224
90,118,101,93,79,173,269,330,308,155
54,89,136,192,124,149,116,134,53,70
-8,30,71,182,162,96,-55,-14,-59,-8
-42,62,67,132,126,46,-87,-12,92,-10
-15,82,88,12,45,-33,-179,-1,131,8
-3,65,89,-70,14,-60,-235,-19,159,6
9,39,96,-62,1,-68,-244,-62,-56,-4
22,57,124,-12,-89,-110,-169,-72,-113,-22
12,86,150,41,-154,-162,-78,-45,52,-15
-32,82,167,142,-32,-182,-117,-85,38,-44
-2,108,238,140,-64,-215,-183,-165,-42,-65
-14,81,249,36,-168,-249,-230,-192,-114,-95
17,114,239,-27,-213,-232,-197,-143,-91,-64
30,167,270,5,-227,-204,-145,-195,-125,-80
-20,172,263,51,-206,-140,-38,-184,-149,-89
27,116,105,24,-104,8,151,-37,-59,63
-32,6,-29,30,30,127,177,-134,-132,8
-166,-120,-158,-71,25,78,43,-341,-250,-169
-165,-152,-240,-187,-39,2,-53,-342,-200,-177
-69,-56,-150,-84,24,45,-34,-225,-78,-95
-17,-33,-75,14,100,126,42,-98,-2,-16
-65,-78,31,218,154,103,33,64,82,-54
-37,-55,21,180,93,44,40,513,353,-4
92,27,-45,-15,19,18,17,590,464,127
101,29,-56,-90,-23,25,68,326,330,123
47,17,-57,-88,-33,83,182,176,198,45
25,38,-83,-43,29,179,286,193,183,21
28,33,-159,36,81,260,368,261,204,35
6,11,-79,133,118,233,313,312,209,20
-17,-17,78,217,126,116,105,267,92,-34
-7,4,180,154,3,-17,-97,71,-155,-81
-19,90,350,211,-140,-123,-144,-140,-130,-151
-21,122,490,261,-272,-255,-264,-258,-224,-192
-21,98,386,123,-360,-346,-374,-313,-252,-189
-14,49,190,2,-327,-306,-379,-278,-194,-156
8,-12,-65,-31,-121,-173,-257,-177,-107,-64
62,-51,-278,-85,92,26,-20,-10,22,81
73,-53,-199,-139,86,110,110,57,-11,135
-38,-71,-80,-101,38,16,14,-76,-159,26
-14,-30,-90,-125,-21,-14,10,-93,-136,-17
63,-11,-96,-78,-2,70,101,29,5,59
84,-9,-11,16,29,104,143,105,69,85
-12,-42,71,61,-7,-15,-8,1,-48,-52
-62,-59,73,28,-72,-133,-155,-107,-154,-130
56,51,131,32,-103,-140,-181,-94,-97,-45
197,139,95,11,-35,-32,-83,10,56,110
223,88,-75,24,154,129,68,114,183,201
89,22,-64,284,283,123,68,38,93,89
-135,-64,84,378,168,-26,-81,-170,-118,-147
-232,-73,258,495,128,-38,-49,-232,-222,-275
-218,9,391,462,34,1,110,-192,-264,-319
-259,-79,109,-16,-154,34,265,-87,-203,-317
-241,-128,-187,-243,-101,135,365,-29,-120,-279
-101,-34,-221,-404,-41,205,393,-31,-58,-190
37,-15,-322,-828,-79,334,530,182,157,4
150,-5,-371,-909,-137,325,480,329,305,159
127,-51,-343,-334,131,276,226,316,315,150
53,-90,-284,126,380,179,-51,220,230,89
34,-69,-181,72,251,-43,-362,109,137,40
199,103,49,130,124,-63,-403,152,188,176
215,110,49,133,78,-3,-249,139,174,232
13,-46,-85,17,83,-44,-244,29,-7,-2
-60,-73,-65,-13,51,-76,-276,-71,-146,-115
-1,-17,65,40,32,-88,-289,-153,-223,-100
-3,-3,141,62,22,-61,-262,-217,-315,-150
-27,-27,128,9,-8,-8,-152,-157,-271,-148
40,-54,51,-73,-11,53,-95,-53,-257,-51
107,34,88,-69,-12,83,-10,-66,-95,20
100,-5,47,-158,-105,31,24,-71,-131,35
62,-74,2,-150,-105,22,43,-65,-265,82
-13,-61,84,112,14,14,58,-204,-171,36
-72,-49,162,202,-73,-101,-13,-412,-263,-99
-76,15,228,182,-272,-231,-67,-495,-331,-157
-106,46,222,136,-308,-308,-222,-550,-423,-231
-56,79,230,-8,-322,-270,-243,-432,-328,-130
26,33,-31,-217,-281,-183,-111,-92,-29,22
150,-60,-450,-268,-12,98,115,414,343,248
241,-53,-498,-45,286,305,218,791,599,409
122,-95,-378,-67,306,240,44,583,451,289
-55,-189,-302,-119,275,168,-28,325,259,66
7,-109,-232,-161,152,150,94,296,198,88
95,-37,-208,-135,86,140,178,255,92,160
31,-74,-134,-98,89,120,114,144,-193,83
7,-32,-23,-61,41,75,155,148,4,62
55,20,29,-24,-42,-31,119,308,186,109
86,44,68,-7,-68,-46,64,312,218,141
67,53,90,12,-36,34,52,275,122,140
80,74,140,57,-2,69,58,182,70,146
43,54,112,51,-5,48,81,75,30,41
-60,-14,35,34,-1,-20,55,14,-38,-68
-78,-39,-11,33,-26,-114,-67,-54,-84,-103
-76,-18,136,196,3,-151,-181,-133,-119,-106
-133,-47,265,405,29,-199,-346,-258,-290,-178
-158,-82,267,376,34,-283,-509,-391,-460,-226
-149,-24,254,302,44,-282,-450,-463,-299,-215
-173,-36,182,165,85,-229,-378,-469,-312,-220
-85,-35,20,-170,138,-72,-126,-286,-181,-143
66,3,-26,-352,72,42,198,31,72,8
41,6,73,-101,-18,33,319,154,166,33
-1,-26,61,-12,-154,18,291,125,141,23
-57,-78,25,-33,-221,-16,181,79,68,-3
-36,-28,13,-35,-197,-37,112,83,44,27
82,49,-49,-35,-111,1,160,103,105,106
156,39,-117,-48,-20,97,311,168,230,143
18,-28,-50,-51,-37,21,179,4,110,-25
-19,46,232,60,-143,-118,12,-157,-9,-105
78,203,416,103,-233,-130,23,-126,13,-39
37,131,321,23,-182,-90,-20,-145,-200,-82
-34,30,166,29,-39,-13,17,-141,-224,-133
114,39,-114,-164,53,161,237,146,134,79
272,-27,-415,-339,155,339,436,432,466,341
191,-154,-524,-226,253,291,296,401,491,337
93,-121,-307,-14,251,78,-27,182,304,197
61,-39,-91,97,195,-18,-178,53,163,88
8,-55,-69,50,127,-37,-204,-35,-50,18
-34,-71,-52,-14,51,-48,-156,-60,-93,-16
-1,-9,-3,7,4,-54,-100,-105,16,-15
71,50,44,39,35,-6,-28,-121,36,24
88,45,22,50,100,112,200,-29,55,62
18,1,4,86,126,143,284,2,-20,15
-33,-3,-78,82,80,122,313,12,-72,-86
-79,-15,-105,51,57,175,436,131,-28,-145
-96,-39,-90,-48,16,203,463,192,13,-124
-53,-22,-6,-165,-72,178,389,147,-4,-39
-53,16,84,-156,-123,105,242,-2,-106,-27
-43,63,152,-9,-142,35,74,-193,-165,-126
12,116,174,111,-122,-96,-199,-346,-162,-100
55,127,109,115,-113,-281,-479,-552,-228,-82
31,122,78,135,-99,-391,-606,-716,-323,-108
65,140,121,204,-28,-362,-579,-664,-219,-28
127,156,69,149,-45,-334,-471,-546,-124,92
103,163,34,-11,-139,-231,-230,-459,-235,22
-33,67,115,-60,-172,-185,-92,-390,-406,-179
-86,9,181,56,-157,-161,-63,-109,-290,-200
-1,83,240,120,-141,-77,14,190,-49,-95
81,93,72,-81,-127,-20,103,534,183,36
18,-68,-236,-228,39,105,210,623,281,80
-180,-282,-434,-39,336,248,241,588,245,-18
-83,-171,-376,-109,258,224,144,661,417,119
72,8,-160,-90,125,41,-69,524,494,237
126,103,37,45,66,-68,-212,277,366,222
70,99,94,81,49,-11,-186,196,241,159
22,51,29,39,62,81,-59,216,178,107
-29,-5,-46,4,54,102,6,103,51,36
-130,-60,-8,39,31,58,55,14,-88,-54
-174,-63,91,118,-3,0,50,-41,-158,-91
-123,-17,165,156,-64,-88,-20,-82,-159,-86
-56,69,309,205,-139,-186,-127,-146,-203,-103
-10,123,368,233,-111,-220,-222,-206,-228,-95
52,80,161,64,-48,-110,-147,-94,-117,16
65,1,-73,-190,-66,-19,-26,28,-1,61
100,-26,-218,-293,-39,13,-13,84,45,84
27,-102,-315,-238,87,-22,-138,11,-28,41
-81,-132,-162,-113,56,-114,-260,-150,-149,-34
-118,-113,-10,46,23,-50,-135,-149,-136,-35
-170,-109,72,98,-29,8,-36,-121,-123,-59
-146,2,192,199,-45,-30,-87,-166,-185,-74
-145,-2,133,224,-1,-64,-126,-195,-236,-121
-72,-26,-14,133,60,-28,-118,-169,-162,-116
-27,-14,-39,58,59,-41,-150,-179,-140,-96
7,-30,-53,-79,34,0,-86,-101,-81,-56
-11,-128,-231,-343,48,146,123,81,-4,-24
-72,-238,-312,-396,122,350,304,221,-74,-23
-49,-166,-215,-205,131,355,307,223,-109,-9
22,-53,-96,-134,60,290,360,240,101,51
41,-77,-125,-143,42,259,376,233,110,22
5,-75,-245,-104,65,242,421,213,137,-45
-31,-68,-260,-67,91,227,420,218,105,-105
-52,-120,-192,-97,31,105,223,210,-85,-138
-41,-72,-58,-37,18,90,209,177,-2,-136
-15,-14,18,3,29,132,202,108,30,-167
-15,1,34,-2,27,153,163,71,46,-171
-50,-12,43,-12,-29,116,67,56,54,-145
-13,27,30,8,-102,-39,-126,-25,28,-66
19,64,139,23,-136,-181,-343,-152,-12,-22
71,78,197,9,-125,-281,-552,-279,-48,36
140,150,239,12,-127,-318,-655,-332,5,164
185,218,294,79,-134,-361,-700,-313,88,247
167,192,246,137,-90,-322,-609,-246,97,212
49,31,45,89,-1,-186,-350,-149,74,88
-13,-52,-61,30,22,-87,-129,-63,44,40
-50,-80,-10,68,55,-61,-82,-24,-134,1
-75,-25,137,154,54,-59,-23,-50,-24,-33
-33,3,191,65,-78,-77,54,-23,104,19
-60,-5,186,63,-158,-141,0,-101,40,-29
-112,32,117,119,-182,-217,-144,-272,-154,-150
-105,62,115,-20,-275,-250,-228,-324,-234,-185
-46,89,144,-142,-232,-194,-216,-229,-147,-127
-8,111,152,-141,-144,-128,-140,-74,-41,-72
71,149,164,-44,-131,-35,4,93,88,44
92,116,46,-3,-41,115,163,167,145,102
99,43,-185,-80,120,273,317,245,184,135
93,-51,-413,-256,147,300,418,273,217,175
16,-171,-463,-284,137,252,437,158,162,126
-138,-244,-362,-30,207,216,368,-43,-23,-28
-228,-298,-290,9,157,184,240,-114,-343,-180
-243,-269,-221,18,179,214,292,-76,-293,-228
-173,-169,-162,44,213,249,429,38,-137,-94
-42,-65,-107,17,108,237,500,148,0,63
33,-10,-72,-10,70,278,550,360,193,85
1,-29,-60,-22,28,309,519,502,309,15
-65,-66,-94,-68,-67,256,402,482,261,-35
-102,-94,-110,-87,-82,135,148,268,105,-87
-51,-12,-2,10,-37,-27,-163,41,-1,-17
99,167,261,301,43,-185,-573,-246,-8,-11
93,156,290,324,24,-373,-841,-371,-66,-27
49,48,233,190,-80,-594,-1147,-497,-524,-102
-47,-55,131,0,-172,-582,-1055,-513,-780,-169
-84,16,91,-22,-180,-400,-626,-428,-219,-162
-94,-14,-43,-17,-138,-319,-450,-340,-118,-161
-141,-116,-186,-66,-90,-283,-413,-279,-302,-171
-152,-153,-243,-189,-66,-186,-242,-156,-200,-42
-74,-97,-216,-273,-95,-134,-145,-115,-191,11
-51,3,-79,-272,-162,-110,-33,-234,-68,-61
24,91,-24,-245,-180,-61,73,-249,-43,-28
121,107,-40,-183,-121,43,190,-193,-41,31
99,43,-88,-214,-114,56,189,-190,-203,38
17,23,0,-269,-181,11,148,-234,-368,10
-21,48,-6,-233,-132,147,362,-103,-110,-32
-46,21,-4,-84,22,288,531,298,145,42
-110,-53,-8,76,101,245,484,582,100,83
-122,-98,-65,106,110,198,442,684,202,41
-158,-188,-235,43,165,121,282,546,106,-37
-160,-100,-72,76,109,238,405,430,331,-33
-52,9,69,102,70,194,299,267,287,-29
-20,-51,31,39,37,15,-118,67,-274,-58
-14,-112,-59,-73,-17,-95,-368,-20,-590,-77
7,-95,-273,-365,-100,115,147,159,293,22
32,-59,-174,-167,-14,23,-43,71,254,64
98,-25,-26,-32,-31,-217,-485,-65,-146,146
128,-47,-2,-75,-92,-380,-788,-155,-531,149
114,146,190,83,-131,-291,-459,-238,161,93
73,147,234,82,-130,-191,-316,-243,53,66
8,30,118,-56,-153,-153,-316,-183,-310,-5
-52,-139,-12,-224,-220,-297,-560,-200,-934,-128
-80,8,93,-110,-200,-184,-276,-222,-329,-148
-101,46,64,-16,-133,-51,-48,-199,-15,-143
-80,21,8,140,-7,18,46,-153,6,-97
-54,-24,106,257,31,-35,-25,-125,-79,-70
19,-35,106,155,-36,-58,23,-3,28,0
89,10,40,87,-83,-25,139,76,258,71
98,17,-90,170,19,-9,165,86,217,79
135,46,-67,199,67,19,220,47,182,70
119,-8,-126,59,30,33,259,5,155,55
104,-49,-251,-14,12,44,251,-50,134,43
21,-85,-193,-16,96,134,237,-135,57,-22
-58,-130,-135,-95,149,204,269,-151,41,-71
-110,-151,-153,-202,132,228,290,-107,76,-106
-18,-18,-19,-122,129,223,299,-34,124,-53
43,25,47,14,104,191,247,66,147,19
32,7,54,39,23,97,117,195,250,67
84,49,88,36,-50,-54,20,197,313,128
136,91,107,20,-59,-99,53,314,362,222
113,63,85,7,-6,-27,128,318,315,274
-18,-15,43,30,50,71,150,155,145,100
-78,-20,86,107,64,113,184,40,63,-44
-57,14,74,141,65,140,273,29,50,-98
-100,-14,-24,123,56,132,308,43,6,-155
-161,-49,10,68,0,2,173,17,-108,-227
-161,-26,95,59,-59,-92,39,-13,-173,-268
-75,54,151,0,-100,-76,57,14,-126,-220
-60,70,174,43,-98,-63,34,-14,-97,-164
-51,44,157,119,-61,-27,-28,-71,-74,-116
29,39,91,92,-75,-83,-154,-73,52,-69
162,117,113,-40,-105,-112,-236,-48,165,62
170,84,41,-119,-53,-99,-248,-98,147,119
147,107,146,149,71,-146,-367,-209,60,110
171,245,370,415,125,-224,-488,-287,40,91
72,140,263,243,16,-274,-427,-288,1,4
71,32,35,-51,-98,-206,-232,-201,6,25
39,8,-14,-162,-84,-179,-202,-305,-162,-47
32,25,19,-216,-122,-102,-116,-301,-221,-66
171,80,-87,-312,-81,112,178,-106,-10,67
180,8,-259,-149,146,302,403,47,109,119
-9,-159,-317,7,306,303,379,73,23,-42
-43,-133,-193,35,269,242,262,94,-1,-80
18,-98,-119,75,270,278,201,168,86,-1
47,-88,-104,45,264,346,195,260,216,67
4,-98,-60,49,257,336,114,290,259,35
-44,-101,-4,81,236,286,28,259,219,6
-55,-78,30,69,164,252,121,142,165,-48
-31,-36,67,41,21,145,295,107,74,-84
16,-17,74,3,-136,3,402,120,55,-28
47,-31,18,-40,-215,-91,339,177,55,52
18,-103,-90,-66,-134,-26,199,264,-85,30
6,-73,-39,-12,-39,102,255,322,130,14
-16,-89,-67,-24,-14,84,177,264,151,0
40,-48,-47,-24,-13,23,16,272,200,100
99,73,86,65,15,-73,-229,175,243,151
91,86,150,141,78,-94,-377,65,41,92
51,73,125,144,59,-74,-291,48,-19,27
24,77,140,158,11,-74,-198,44,43,29
9,64,195,209,6,-155,-348,-16,-174,51
43,135,300,369,35,-137,-336,-107,-38,-3
31,149,320,395,-2,-85,-188,-126,23,-51
-37,78,149,259,-86,-47,-40,-141,-35,-114
-38,48,34,35,-148,-65,-61,-188,-80,-87
37,87,47,-109,-121,-138,-262,-265,-104,-6
2,49,76,46,59,-144,-457,-357,-165,-82
-73,-55,-36,-11,48,-58,-245,-148,-83,-110
-70,-86,-88,-117,-88,-23,-44,26,-1,-53
7,-7,-16,-19,-108,-83,-51,0,-38,-4
10,47,44,126,-54,-156,-145,-57,-86,-5
13,30,-47,11,-59,-107,-58,58,26,56
42,0,-150,-121,-68,-3,126,174,115,117
13,13,-71,-39,-26,11,93,54,-26,41
-3,-23,-85,-33,-18,-55,-60,-92,-162,-18
25,-50,-147,-185,-62,-51,-62,-101,-150,28
26,-85,-174,-288,-79,19,85,-24,-133,74
89,-34,-101,-202,-26,45,162,-29,-102,177
117,0,-30,-100,29,22,47,-107,-181,137
55,-13,-9,-61,31,62,66,-12,-180,48
9,-5,-32,-36,91,226,271,183,45,13
0,-5,-31,-51,134,270,280,302,105,46
19,39,16,-42,103,208,223,267,125,66
-24,33,48,-4,92,186,185,211,92,9
-70,46,100,85,125,193,187,109,-9,-62
-98,38,71,140,124,164,199,49,-62,-85
-119,0,28,129,96,113,159,23,-67,-79
-128,-40,9,86,70,-3,-50,-47,-73,-92
-73,0,21,30,-10,-140,-226,-50,-26,-57
-55,25,68,7,-73,-168,-250,-35,-45,-36
-62,52,101,43,-62,-147,-245,-100,-100,-77
-54,81,93,87,-41,-111,-231,-159,-180,-109
-46,73,3,57,-74,-118,-213,-137,-150,-84
-7,47,-31,-81,-105,-98,-171,-73,0,-6
-5,32,-9,-131,-85,-69,-123,-74,26,9
-80,-11,-15,-85,-54,-73,-95,-122,-26,-74
-107,-13,66,-13,-71,-85,-85,-144,-87,-123
-105,14,141,-4,-143,-74,-87,-144,-109,-134
-94,1,89,-84,-171,-15,-9,-76,-70,-95
-59,10,91,-38,-129,24,46,-24,-43,-40
-33,74,200,87,-132,3,22,-101,-113,-52
41,76,99,9,-152,50,81,-57,-13,54
102,18,-86,-81,-43,100,127,31,173,176
-22,-127,-169,-35,82,-8,-37,-162,17,-14
-26,-137,-185,-143,15,-8,-2,-131,-5,-33
43,-28,-119,-190,-17,59,92,-19,33,28
55,47,58,99,45,95,147,176,113,39
71,82,168,278,96,80,122,192,169,72
1,19,130,279,117,21,21,-50,-22,-22
-140,-88,-29,104,84,3,16,-156,-186,-143
-184,-181,-196,-169,32,20,-32,-106,-324,-190
-100,-215,-395,-411,48,145,41,247,-98,-52
-2,-152,-370,-326,113,249,181,565,292,94
20,-140,-294,-263,151,245,158,493,321,97
-91,-210,-274,-42,266,220,56,280,168,-42
-128,-207,-170,186,278,148,45,229,97,-118
-11,-73,-95,106,-9,30,189,286,140,-15
30,-34,-14,28,-205,-3,399,312,169,54
-10,-60,0,-20,-183,62,480,282,162,8
-45,-85,-30,-76,-137,170,487,226,145,-49
-55,-94,-37,-70,-106,231,405,166,130,-53
-21,-52,12,-8,-70,197,250,80,116,-11
37,24,90,73,-87,51,22,-19,127,46
85,77,152,143,-122,-126,-238,-126,137,60
140,146,180,187,-106,-300,-552,-247,87,83
194,183,127,135,-46,-374,-669,-252,35,139
101,37,-8,-37,-23,-308,-567,-206,-164,80
47,13,-63,-131,-57,-143,-331,-154,-58,70
48,68,-25,-60,-30,-18,-139,-90,37,68
28,40,-72,7,-2,0,-24,-37,-57,36
13,-48,-107,42,32,-69,-120,-28,-262,6
-21,-98,14,92,63,-120,-206,-73,-322,-9
23,25,97,101,50,-75,-110,-66,-18,52
25,46,81,67,-16,-113,-143,-97,-22,4
36,13,37,37,-52,-146,-231,-98,-207,-18
55,-74,-14,8,-82,-275,-546,-129,-797,-40
10,114,204,203,-33,-69,-94,-171,13,-90
-48,120,246,175,-77,-74,-19,-254,-46,-154
-21,99,161,0,-177,-67,49,-155,-122,-98
-33,-175,-138,-294,-213,-118,-77,75,-596,-1
-96,-174,-320,-155,63,289,490,280,346,32
-51,-57,-209,-55,47,197,323,175,300,41
-23,16,-30,68,54,46,24,4,96,0
15,-94,181,30,-53,-265,-605,-157,-871,-55
47,174,269,141,-23,-34,-25,-171,254,-11
124,124,130,67,-13,55,49,-55,294,108
278,-6,-204,-249,11,124,21,191,79,313
156,-143,-368,-216,103,22,-190,74,-71,197
40,-56,-142,106,127,-99,-246,-195,164,23
112,81,100,128,-16,-203,-277,-308,111,-2
184,163,175,76,-68,-158,-160,-263,117,34
171,161,169,-78,-77,-1,39,-152,173,56
76,90,103,-188,-38,92,154,-86,180,25
-2,25,73,-96,62,135,146,-87,129,-14
-58,-4,75,68,155,184,204,40,149,16
37,52,70,64,82,188,280,310,349,156
-36,-8,30,85,98,75,209,182,252,69
-134,-80,8,38,54,-11,125,-50,37,-63
-102,-15,67,-20,-40,14,141,-152,-34,-73
-72,26,56,-62,-72,18,126,-225,-96,-71
-15,-21,-19,-104,-32,69,118,-178,-193,-20
12,7,-28,59,131,227,228,60,210,80
-2,22,-85,135,214,237,157,185,266,151
15,38,-47,133,204,162,-1,265,230,99
43,-17,1,12,127,-25,-317,77,-365,21
14,-1,17,-54,68,-32,-254,-4,-315,5
-41,43,44,-69,12,61,1,-143,37,-23
27,100,41,-67,-39,69,98,-157,115,69
66,115,33,71,46,100,127,-23,175,133
35,58,43,87,106,161,196,54,170,141
-108,-47,-22,49,108,185,270,116,142,-16
-272,-120,-54,44,78,140,293,235,108,-196
-253,-71,-20,32,43,146,364,479,304,-109
-137,-9,-45,29,23,154,403,596,434,-7
-48,10,-5,20,30,84,210,340,153,-32
-39,-11,-60,-22,77,49,22,123,-132,-22
-15,23,-38,-53,110,110,95,88,47,81
16,48,35,-14,67,81,90,12,65,27
-4,32,11,-13,45,-10,37,0,75,-18
-30,33,31,1,51,-92,-94,19,61,-20
-1,82,62,53,61,-77,-138,-11,59,20
9,90,51,42,47,-31,-62,-10,79,46
20,86,89,39,44,-4,-4,40,95,96
30,63,35,49,46,-19,-36,23,68,114
32,60,4,69,46,-13,-59,-50,25,40
14,82,113,82,47,2,40,-36,-32,32
10,98,133,75,21,-51,93,-25,-27,5
-8,65,125,59,2,-71,34,-86,-55,-67
-2,48,114,54,7,-42,-9,-158,-110,-85
28,50,88,31,1,-44,-4,-193,-125,-69
64,50,42,-21,-42,-105,-8,-157,-104,79
80,68,65,4,-59,-127,-57,-132,-92,98
68,73,83,35,-48,-116,-83,-165,-116,-15
64,49,-3,37,-36,-78,-16,-130,-169,-5
48,40,-88,80,-16,-67,22,98,-44,84
34,48,66,180,10,-72,-21,230,68,91
76,84,285,241,39,-48,-122,60,26,18
14,51,266,169,41,-27,-170,-109,-63,-122
-95,-20,156,3,-16,-30,-130,-101,-71,-216
-65,-16,57,-157,-101,-12,-28,152,57,-146
56,47,9,-216,-101,84,152,385,228,3
75,9,-94,-207,-29,94,274,346,206,69
-19,-99,-96,-38,37,43,210,190,90,-27
-66,-87,78,151,10,24,142,53,-21,-151
-69,-48,105,189,-49,22,135,-14,-105,-207
-66,-40,131,185,-48,27,128,-19,-116,-189
-63,-29,135,222,28,43,43,-87,-136,-144
15,11,33,127,102,96,-49,-150,-35,-91
162,26,-188,-203,80,194,38,-14,172,86
104,-21,-207,-247,57,55,-60,-106,85,57
-17,-36,-81,-71,42,-88,-165,-243,-120,-34
-60,-30,-59,-33,-26,-94,-151,-232,-192,-88
-17,-8,48,83,-58,-88,-147,-114,-128,-25
48,46,182,186,-105,-130,-141,-50,-41,51
23,-4,113,128,-119,-139,-127,-121,-13,20
-88,-132,-29,-30,-131,-134,-142,-168,-61,-87
-142,-172,-100,-174,-92,-98,-138,-110,-124,-77
35,-36,-81,-190,-32,20,-35,49,-46,61
195,45,-131,-135,56,164,72,236,82,202
221,106,-18,-76,36,160,53,258,103,267
134,85,22,-98,-36,73,-17,127,4,210
100,30,-26,-129,-53,71,40,65,1,168
90,37,28,-37,-90,42,90,20,-12,106
76,39,4,-45,-93,22,176,39,17,44
-34,-86,-86,5,48,59,212,25,-31,-67
-36,-91,-70,21,99,90,225,89,3,-63
-22,-38,-41,-43,65,75,185,170,72,-20
-84,-61,-46,-22,87,75,138,163,50,-39
-87,-70,-61,-3,82,84,108,153,78,-47
-66,-33,23,52,110,106,98,126,56,-32
-74,6,82,82,125,125,149,154,50,18
-65,64,106,64,48,90,133,76,-5,-29
-72,83,150,59,-65,-37,58,-60,-99,-103
-74,61,192,78,-130,-171,-41,-95,-90,-51
-33,45,156,56,-161,-209,-92,-68,-27,23
-3,57,145,50,-165,-188,-121,-116,-71,19
-32,30,105,72,-107,-135,-118,-186,-155,-19
-8,15,12,86,7,-55,-61,-110,-85,49
92,89,32,108,90,60,65,15,15,99
127,118,85,198,108,94,147,54,90,140
57,59,141,328,112,-11,44,-29,-75,75
-7,45,160,269,44,-60,10,24,-178,4
-19,59,91,137,16,-25,78,114,20,16
35,29,-60,-112,-31,-48,5,26,-45,9
96,3,-190,-318,-65,9,7,-9,-36,56
164,-12,-265,-339,21,152,72,77,113,150
140,-29,-239,-102,179,180,61,104,174,156
98,18,-131,27,142,76,58,118,172,115
48,4,-70,50,43,9,95,235,178,45
15,-21,-24,82,6,-9,86,208,149,-45
38,22,17,19,-80,-91,27,91,121,-60
73,21,-61,-74,-116,-147,-46,42,139,3
33,-15,-150,-64,-50,-106,-117,-15,115,-11
-60,-78,-120,-43,-36,-65,-112,-73,41,-62
-58,-81,-78,-88,-67,-40,-61,-64,79,-49
-22,-27,-25,-95,-111,-130,-84,-65,86,-36
10,32,44,-104,-148,-168,-93,-64,63,-38
146,150,94,-92,-139,-39,48,46,127,68
204,170,89,-21,-73,118,208,174,241,169
169,123,53,57,40,193,233,164,197,144
132,83,80,87,62,189,185,118,96,70
43,-24,-54,48,110,172,179,61,-1,-15
-72,-112,-131,-26,51,68,75,-61,-125,-131
-33,-71,-38,-23,-21,-30,-20,-108,-159,-108
44,-22,-18,-32,-48,-47,-21,-91,-122,-19
-1,-43,8,-14,-100,-125,-55,-159,-198,-63
-13,15,92,-20,-222,-254,-106,-234,-257,-91
-17,58,139,-24,-287,-274,-130,-285,-283,-81
-61,31,150,73,-159,-225,-148,-317,-301,-116
-89,30,172,242,9,-132,-118,-278,-259,-137
-42,38,110,158,-7,-25,-10,-14,1,-40
-9,22,-12,42,45,111,140,308,288,80
1,-8,-136,-21,165,217,254,439,350,153
12,-44,-230,-28,179,218,271,358,285,175
9,-50,-208,-65,141,169,204,242,190,141
-14,-24,-126,-88,120,194,224,252,114,85
-17,17,-7,-33,134,273,261,237,63,54
-30,43,37,36,118,250,239,210,52,35
-35,69,67,57,42,142,188,178,58,46
-23,63,106,34,-24,41,84,71,-138,7
-5,35,96,51,-33,-15,-42,11,-286,13
44,53,22,93,27,-253,-440,-127,-53,108
79,125,140,141,-29,-435,-732,-324,-88,105
78,80,126,49,-109,-462,-663,-304,-247,80
-74,-216,-99,-160,-124,-513,-742,-319,-943,-93
-88,-37,-10,-115,-119,-197,-185,-287,-229,-129
-60,-25,-3,6,11,-93,-111,-241,-209,-43
-39,-70,-102,-34,78,0,-28,-176,-325,14
-18,-219,-173,-171,36,-70,-210,-127,-949,7
-27,-149,-52,-21,67,-56,-160,-32,-728,1
-32,26,77,172,154,98,98,105,1,-7
13,19,26,145,169,140,120,122,108,-39
6,-45,-10,84,124,35,-30,-22,-71,-98
36,-81,-213,-144,50,-122,-179,-12,115,-7
73,-61,-200,-270,-67,-142,-111,9,191,64
-20,-108,-83,-191,-126,-199,-145,-95,-60,-29
-142,-252,-8,-103,-144,-346,-480,-248,-879,-226
-186,-214,65,7,-110,-260,-385,-166,-717,-279
-60,-1,49,39,-123,-17,56,-2,188,-47
81,105,135,41,-72,75,115,-14,214,112
88,-10,-48,-113,26,121,59,113,13,105
-24,-284,-277,-270,64,17,-166,206,-525,23
-21,-3,-29,4,144,150,170,62,278,14
-4,-3,-12,14,77,112,120,-11,204,-12
-33,-85,-48,-42,-47,22,-38,19,-15,-57
-69,-218,-61,-150,-160,-145,-420,-59,-699,-130
-67,63,294,44,-219,-128,-163,-114,111,-133
1,93,274,4,-246,-73,-52,-46,191,-66
52,111,201,-54,-247,-57,-37,29,90,-15
30,-66,42,-103,-198,-102,-263,16,-609,-81
46,-23,17,103,-26,131,81,118,-146,-17
18,13,1,221,141,280,326,175,268,20
-65,-40,-22,236,174,177,203,42,183,-80
20,-23,-78,58,97,142,176,46,182,5
14,-78,-119,-15,59,109,149,56,101,12
4,0,-3,154,105,120,195,27,257,-3
22,21,58,184,113,126,190,13,223,28
-23,-6,66,227,126,74,123,-60,128,10
-87,-43,10,167,118,24,63,-148,35,-36
-66,-148,-302,-368,-48,11,68,-34,-62,-62
51,-69,-248,-433,-95,78,177,37,139,15
62,-59,-198,-364,-86,84,123,34,62,56
-53,-233,-239,-177,89,-10,-273,-126,-694,-47
-77,-63,-92,13,119,52,-94,-247,-225,-74
-67,81,50,52,26,68,42,-340,10,-117
-83,89,120,83,-30,61,98,-304,-50,-117
-48,118,211,145,-68,32,144,-40,24,-34
-31,117,256,233,-83,-71,119,124,135,31
-53,105,293,314,-80,-143,26,11,112,-57
-131,46,196,250,-61,-128,-57,-143,-5,-186
-182,-32,-49,62,13,1,-72,-130,-17,-197
-83,-52,-230,-169,62,137,5,167,235,8
76,-29,-352,-363,29,152,24,345,463,262
162,53,-290,-410,-21,110,-7,288,525,309
191,151,-126,-311,-65,40,10,254,499,314
89,118,-29,-152,-56,-28,32,171,284,209
-9,46,2,-18,2,-101,15,48,101,81
-85,11,1,22,8,-207,-75,-32,25,19
-107,-26,-2,5,-19,-193,-66,15,27,-18
-102,-12,25,62,40,-95,0,5,61,-49
-88,27,-7,123,96,60,125,16,93,-27
-51,66,16,157,96,163,198,39,122,25
-57,48,66,121,52,123,182,33,107,26
-95,-2,16,-2,-53,-6,101,-27,39,-26
-61,26,-20,-132,-127,-99,45,-41,44,-6
-49,23,-69,-177,-87,-80,29,-36,43,16
-50,16,-49,-124,-4,-23,26,5,19,19
-34,72,61,-7,-1,-3,27,93,32,0
-32,109,132,41,-36,-16,2,24,-18,-28
-54,79,90,84,-47,-56,-57,-70,-93,-43
-92,31,68,125,-19,-106,-155,-110,-134,-39
-103,46,85,89,1,-103,-166,-126,-96,-48
-98,7,5,79,60,2,-43,-32,21,-32
-81,-47,-108,52,118,108,83,61,106,0
-100,-72,-168,-6,62,98,127,99,123,1
-111,-40,-86,-58,-68,11,53,-13,-34,-45
-57,22,-45,-160,-188,-16,52,-22,-157,-21
-7,60,-100,-212,-147,78,224,84,115,45
43,67,-65,-110,-6,161,251,111,201,113
48,85,0,150,180,150,160,46,163,99
78,75,15,140,127,45,30,67,-12,125
74,98,51,74,24,3,14,166,108,168
6,77,86,82,4,6,-65,56,96,96
-34,40,128,162,20,69,-63,-61,77,24
-39,43,163,260,11,104,65,5,92,16
-58,24,113,319,31,110,132,46,40,-12
-114,-40,-58,300,113,97,118,21,18,-67
-182,-105,-128,118,107,79,118,-65,-63,-131
-143,-77,-150,-140,70,110,97,-172,-167,-137
-33,22,-112,-276,27,133,49,-203,-177,-67
23,31,-120,-369,-27,126,48,-42,-40,23
26,39,-75,-247,-11,128,61,176,84,73
18,68,18,-21,22,74,-5,176,69,78
38,122,150,172,-9,-102,-115,237,89,85
76,134,174,147,-109,-261,-217,247,-9,95
35,78,102,22,-139,-175,-119,238,38,62
-21,22,48,22,-76,-81,-59,173,125,20
9,5,4,40,-32,-75,-69,102,120,38
20,9,58,96,-6,-28,-27,49,94,48
-19,8,111,196,6,0,-40,-32,39,6
-50,17,158,309,-6,-89,-188,-179,-46,-51
-108,5,83,295,-35,-244,-407,-348,-167,-128
-69,28,2,142,-97,-300,-442,-370,-218,-123
-8,-3,-66,-85,-136,-216,-272,-218,-111,-54
64,1,-120,-232,-102,2,17,-53,33,36
188,99,-68,-203,-58,133,197,24,91,127
211,97,-43,-210,-29,189,277,65,146,186
121,24,-35,-122,21,189,267,-20,122,116
-31,-64,9,36,44,120,211,-140,8,-43
-64,-65,9,82,44,75,176,-116,-7,-83
-61,-66,-53,37,21,-1,99,0,70,-67
-67,-54,0,28,-31,-131,-100,47,58,-69
-120,-88,-2,48,34,-185,-251,90,2,-41
-84,-51,53,3,26,-188,-271,39,18,-18
7,1,99,15,59,-113,-139,35,81,18
-14,-72,20,56,112,-44,-45,75,93,-13
9,-125,-104,-22,82,-42,-35,182,23,19
18,-74,-126,-23,81,-34,49,122,80,7
1,-55,-107,-134,17,-48,61,43,19,-43
15,-42,-42,-254,-46,-18,110,6,5,-51
-10,-15,37,-165,-25,22,154,-8,-51,-46
-61,-22,106,58,69,59,147,9,-40,-49
-35,14,159,148,62,48,94,-28,5,-37
28,83,161,102,-43,37,69,-30,41,13
2,45,114,45,-52,27,92,-5,55,12
-156,-145,-29,5,48,-3,14,-68,-90,-108
-168,-145,7,30,48,-23,-51,-110,-124,-154
-116,-48,122,55,-12,-66,-96,-110,-81,-131
-96,-40,80,11,-38,-77,-85,-27,-34,-105
-49,-63,-20,-115,-45,-38,20,87,35,-30
-29,-84,-159,-235,-47,31,145,102,87,-14
-37,-94,-232,-265,2,124,282,177,145,9
-59,-115,-253,-256,56,172,308,172,163,12
8,-2,-114,-174,15,101,145,-65,30,-17
69,90,-17,-137,-19,31,10,-156,-51,-31
75,85,12,-119,-53,44,64,0,-22,-6
104,110,54,-73,-79,31,89,80,16,54
116,107,47,-34,-95,27,72,92,55,141
45,62,54,0,-108,-37,-95,-28,37,67
-7,63,15,-50,-92,-90,-248,-147,19,-24
-77,-20,-79,-46,-12,-47,-250,-174,2,-83
-150,-84,-30,55,22,-12,-178,-159,-11,-108
-121,26,160,53,-122,-116,-228,-239,-166,-156
-60,112,265,110,-171,-229,-291,-294,-285,-160
-42,96,211,157,-101,-161,-151,-187,-237,-106
-5,84,148,146,-54,-56,-28,-171,-201,-59
25,47,41,96,-16,13,38,-157,-193,-21
-55,-75,-121,25,29,44,75,-71,-207,-53
-64,-83,-172,-36,-26,30,73,41,-140,-14
3,-8,-78,21,-31,0,-46,181,-45,48
67,34,-73,39,23,-22,-153,365,123,117
117,48,-234,-99,43,40,-38,356,162,168
126,49,-256,-188,44,131,53,208,92,164
97,20,-203,-87,106,140,5,92,61,159
99,-15,-126,34,144,69,-84,72,62,169
51,-63,-74,12,48,7,-116,95,-35,94
-56,-161,-82,-50,-30,-62,-170,94,-297,-16
-121,-156,-74,-22,-5,26,-3,105,-138,-41
-158,-125,-55,33,29,112,85,77,-69,-62
-96,-80,-82,-19,-7,113,123,73,12,-29
-49,-76,-113,-119,-63,60,133,61,42,-14
-57,-77,-108,-153,-61,67,123,21,29,-22
-62,-59,-74,-155,-66,98,144,16,25,8
-8,8,4,-112,-88,86,163,20,55,33
1,45,66,-33,-61,18,107,-67,6,-26
7,69,108,33,-27,-32,22,-154,-18,-16
28,77,117,19,-42,-75,-62,-193,-27,0
-8,41,71,-15,-47,-61,-89,-209,-74,-59
-45,-4,9,-45,-42,22,-1,-148,-66,-92
-86,-35,-35,-1,-25,10,-3,-161,-134,-151
-136,-55,-79,41,-20,-93,-103,-135,-175,-173
-86,0,-64,88,-45,-186,-185,-11,-27,-95
-16,64,25,132,-80,-203,-193,27,59,-18
-4,67,63,190,-79,-178,-168,-53,12,-12
-68,-6,98,182,-129,-153,-140,-106,-101,-45
-83,-82,-30,65,-203,-141,-154,-41,-216,-41
-74,-73,-1,27,-185,-138,-228,-95,-268,-51
-2,37,37,-9,-117,-70,-210,-168,-154,-32
60,54,-53,-192,-55,53,-114,-94,-145,24
80,21,-137,-321,-15,116,-1,-19,-119,79
104,32,-47,-157,70,159,-3,33,-50,141
153,84,119,54,102,166,26,97,31,212
228,189,213,64,32,189,193,245,129,300
127,165,268,169,70,209,258,335,188,221
-64,92,299,319,155,186,224,291,147,31
-99,90,305,350,138,144,166,135,32,-36
-45,55,181,233,76,113,164,87,21,15
-27,19,50,122,47,62,140,112,56,47
-6,20,14,-2,-24,-70,61,-20,-65,20
120,106,-3,-87,-135,-156,60,-67,-119,78
144,102,-156,-105,-119,-219,-23,-81,-64,114
130,65,-168,-127,-29,-204,-159,-123,-31,90
108,49,-81,-126,35,-124,-194,-162,-32,43
53,3,-79,-113,81,0,-50,-53,73,26
19,-85,-175,-121,128,145,166,125,198,65
57,-35,-112,-27,159,174,220,161,223,74
-5,-31,-99,-14,135,118,157,81,119,0
-50,-45,-177,-118,40,116,188,67,106,15
-71,-23,-49,-61,73,135,229,-8,21,7
-24,75,128,75,122,117,199,-76,-100,12
-20,119,200,134,94,52,84,-91,-130,2
-34,74,137,61,37,-10,-42,-202,-203,-25
-13,44,86,34,22,-5,-65,-233,-203,-5
-50,-36,26,9,16,15,-12,-68,-31,8
-121,-126,-166,-72,16,15,32,19,61,-25
-92,-104,-154,-84,27,-4,23,124,100,29
-10,-26,0,0,51,5,12,137,87,110
-9,-16,37,1,50,0,3,321,70,86
-14,-3,70,32,66,-20,-44,405,62,43
-2,2,93,17,12,-34,-89,157,-39,18
23,44,83,-31,-28,-6,-52,81,-8,42
48,23,-66,-106,15,76,56,61,75,100
22,-58,-209,-88,110,117,95,-63,53,86
-20,-73,-83,19,159,121,92,-186,-65,24
-64,-55,45,36,92,120,161,-188,-121,-38
-101,-56,83,57,34,104,180,-132,-105,-61
-93,-39,74,49,-9,65,97,-152,-133,-47
-14,40,164,40,-46,30,26,-56,-37,-24
110,142,270,46,-63,-5,11,210,184,96
179,205,281,58,-84,-41,33,377,348,212
169,205,331,228,-72,-109,-33,174,218,167
172,215,353,371,-55,-98,-49,73,124,122
157,170,323,395,1,-78,-73,103,151,147
112,75,202,218,8,-48,-48,94,167,137
43,11,93,-7,-42,-111,-135,-27,76,30
4,25,52,-132,-79,-144,-227,-161,-26,-29
-17,-33,-64,-252,-58,-7,-85,-82,-2,-16
55,-48,-148,-186,70,121,35,56,88,58
-20,-155,-283,-10,285,157,89,48,45,-22
-73,-188,-320,18,261,218,301,74,59,-43
-119,-173,-140,32,146,236,416,63,10,-68
-106,-128,-11,76,11,124,376,45,9,-71
-49,-57,38,136,-48,86,364,106,82,-54
-26,-61,63,110,-12,111,289,153,98,-51
-11,-80,44,154,110,74,102,48,-21,-36
-35,-119,-45,92,149,-2,-42,-12,-86,-41
-43,-127,-141,-169,2,-54,-151,-34,-25,-80
-52,-155,-146,-195,-51,-99,-265,56,73,-57
-33,-127,-66,-79,-87,-125,-278,292,244,2
33,-42,20,26,-57,-125,-275,217,302,58
102,6,30,23,-32,-125,-276,7,230,77
95,-14,-26,-24,-38,-110,-208,-68,171,51
74,-7,54,-5,-11,-100,-188,-116,88,6
87,21,143,86,66,-102,-168,-107,36,14
86,17,115,95,66,-86,-67,-99,38,-1
28,-47,40,14,27,-50,54,-111,45,-23
-27,-80,1,-31,-28,-56,69,-83,82,-35
-36,-108,-10,-24,-79,-69,73,10,114,-2
40,-63,-33,-42,-71,0,148,146,182,57
76,-20,12,-10,-61,37,145,77,116,23
42,-13,74,47,-22,26,95,-93,-20,-50
22,-5,19,19,26,43,120,-54,-15,-29
39,-12,-80,-64,29,8,91,79,64,105
20,-53,-173,-84,40,-29,-34,45,77,90
-19,-78,-76,-17,96,-11,-131,-7,50,-26
-22,-16,60,89,96,-90,-262,-133,-18,-49
1,30,147,123,47,-190,-288,-107,-66,-22
-10,18,110,46,-14,-166,-172,-53,-117,-13
-12,43,82,23,-35,-114,-119,-92,-143,-15
-3,67,15,-27,-35,-57,-36,-58,-118,4
-2,81,17,-88,-77,-2,84,3,-77,18
-16,66,23,-117,-82,71,132,-14,-62,-18
-74,8,17,-100,-69,115,100,-79,-123,-92
-165,-47,86,2,-49,71,22,-181,-257,-175
-252,-67,176,141,-64,-24,-43,-242,-366,-230
-282,-72,172,183,-73,-122,-97,-296,-461,-203
-252,-74,92,125,-62,-178,-165,-338,-478,-257
-105,15,86,99,-72,-174,-136,-288,-340,-160
59,105,41,-25,-59,-100,-14,-180,-194,20
91,22,-159,-233,9,72,120,-24,-118,93
89,-62,-229,-159,103,257,264,247,53,167
71,-77,-182,52,138,221,212,370,126,155
-14,-67,-64,197,105,45,-35,115,-92,4
39,13,-2,155,14,-102,-162,60,-98,43
99,51,-8,72,-36,-185,-176,55,-36,112
126,75,-11,-75,-91,-181,-142,44,16,103
70,50,2,-145,-58,-31,-84,100,61,24
24,21,24,-142,-57,55,-101,56,-38,-19
-27,2,28,-101,-100,-12,-202,-31,-254,-29
-23,60,55,64,-83,-10,-97,-35,-121,-4
-48,0,33,201,92,31,-58,-12,-98,-19
-171,-119,-148,196,270,11,-118,-56,-144,-130
-127,-89,-253,-61,169,82,-9,22,-23,-73
10,-27,-304,-254,47,158,195,196,208,103
90,3,-268,-179,0,74,196,219,267,197
118,67,-126,-55,-26,-39,104,156,213,190
91,101,-66,2,-12,-57,85,132,108,157
67,92,-85,12,4,-67,100,149,89,191
87,139,36,59,-37,-108,26,71,72,153
118,201,113,85,-39,-76,-6,35,85,72
109,162,80,51,17,44,43,62,63,29
18,73,-74,51,79,132,81,30,11,-33
-40,36,-68,118,134,163,103,12,21,-39
-1,77,-30,86,27,116,128,50,73,-6
8,44,-106,21,-73,13,36,45,-44,-31
-13,-12,-67,-6,-61,-57,-30,10,-101,-49
-40,23,58,63,-33,-100,-21,11,27,-73
-96,26,86,24,-69,-120,-38,98,18,-101
-88,19,52,-48,-54,-30,62,275,118,-92
-24,20,-46,-112,20,79,122,273,146,-16
53,70,5,-134,0,39,40,117,87,47
35,48,51,-77,-45,-44,-41,0,4,28
-12,12,61,3,-30,-80,-63,-69,-56,-28
-5,51,139,128,6,-88,-74,-116,-93,-37
4,82,224,274,69,-76,-53,-138,-107,-52
-10,21,177,281,92,-121,-101,-132,-280,-83
-67,-37,85,207,95,-120,-96,-139,-294,-133
-107,-29,39,55,26,-93,-35,-168,-218,-166
-122,-47,-60,-236,-81,-110,-51,-155,-259,-151
-85,-43,-122,-382,-148,-75,3,-36,-227,-82
-89,-9,-5,-173,-140,-78,-31,8,-239,-99
-82,22,109,110,-41,-90,-110,-36,-377,-116
-25,113,170,209,-22,-48,-34,-103,-191,-44
-16,-6,-270,-301,37,63,45,43,43,90
-1,-191,-302,-383,-50,-97,-319,119,-705,85
29,-102,-194,-285,-96,-120,-325,-9,-599,57
-29,8,-76,-66,59,52,-47,13,-104,88
-68,19,-36,43,131,114,67,-28,12,52
-77,-104,-39,-19,66,20,-126,-95,-555,-78
-61,-31,11,-8,36,97,67,-18,-279,-24
-102,-3,-136,-46,-36,160,309,73,146,30
-85,17,-1,-36,-33,190,361,122,125,22
-33,41,14,-50,-10,234,388,112,60,37
-43,-172,-182,-201,-49,70,23,94,-651,34
8,37,21,100,56,136,193,103,239,87
139,98,130,3,64,39,-154,-134,-303,78
136,95,180,42,29,-17,-234,-151,-309,75
120,193,274,150,-10,-24,-66,-5,266,59
64,-16,122,-83,-133,-212,-364,60,-396,-26
60,-33,85,-126,-178,-247,-396,-22,-539,-29
73,89,77,78,-55,-123,-109,-72,110,35
27,28,-21,90,24,-13,88,-203,274,0
-47,-45,-9,192,88,21,75,-265,168,-74
-117,-126,-62,134,86,-35,-33,-237,19,-152
-173,-287,-189,-86,20,-152,-231,-253,-495,-225
-148,-147,-47,76,119,-29,-13,-173,167,-172
0,-31,-9,-6,121,-10,-32,27,387,-9
35,-17,-18,-55,131,16,19,188,339,52
-19,-233,-179,-204,0,-168,-320,183,-643,46
62,123,64,280,80,-26,159,92,436,88
-13,66,130,324,115,-19,82,-15,368,9
-106,-54,80,237,96,-83,-95,-150,-5,-110
-84,-102,-2,37,-8,-163,-241,-179,-328,-112
-64,-125,-38,-118,-117,-212,-314,-210,-545,-134
-24,98,127,79,-93,-57,30,-204,121,-87
-14,132,174,158,-70,-21,109,-135,196,-26
-12,84,66,92,-25,38,198,-32,223,59
-8,17,3,58,8,6,136,-5,77,88
-112,-32,42,152,25,9,139,-40,160,25
-74,-18,-130,-139,-28,124,230,13,323,-22
-65,-44,-240,-297,-12,155,183,-134,139,-103
-102,-126,-360,-398,-36,88,-25,-318,-443,-176
98,75,-159,-298,-21,233,343,-15,351,123
91,111,-51,-149,-46,177,375,129,475,107
26,48,-83,-89,7,169,406,232,297,26
13,-72,-206,-152,56,140,250,289,-172,-15
25,72,27,-8,15,145,230,220,442,18
38,111,115,21,-115,-1,13,80,403,9
65,133,173,31,-128,-143,-264,-64,177,-3
97,5,86,-39,-77,-289,-680,-150,-503,-22
113,182,217,146,97,37,-169,-263,303,120
138,230,266,112,41,62,-99,-259,325,120
122,209,195,76,14,81,-46,-217,218,62
57,-60,15,-25,4,-83,-399,-177,-748,-6
-80,-91,34,115,145,16,-78,16,72,-42
5,10,-7,106,178,117,136,130,429,66
11,-57,-125,-25,138,88,110,126,253,95
-33,-163,-152,-95,87,-48,-144,-19,-316,48
-38,-51,0,30,97,40,51,-134,6,5
-65,-1,71,102,87,109,151,-220,182,-33
-60,38,118,118,63,126,132,-251,132,-63
-55,51,120,139,33,115,124,-175,117,-27
-11,20,38,120,29,72,34,-112,2,64
0,6,-46,86,62,92,82,-143,185,52
-105,-41,37,180,81,67,117,231,435,-24
-122,-29,138,306,99,35,26,90,225,-69
-106,-68,91,234,34,-82,-205,-37,-290,-89
-118,-68,-14,112,-9,-131,-278,-154,-406,-165
-129,-44,-90,-27,-33,-86,-162,-179,-94,-158
-21,-6,-182,-195,-40,22,-24,-97,91,-24
124,84,-216,-259,18,147,179,60,307,157
122,53,-207,-161,1,77,65,89,75,114
8,50,-17,63,-27,30,44,41,78,-58
-114,82,272,466,17,-80,-156,-284,-147,-270
-179,27,201,488,49,-134,-195,-341,-271,-306
-269,-164,76,272,-21,-262,-435,-400,-829,-470
92,-1,-375,-422,-71,186,192,55,87,14
93,-16,-384,-429,-16,269,287,108,226,98
58,-51,-289,-419,-65,180,177,78,17,108
99,-93,-156,-359,-111,18,-40,97,-415,145
84,20,-37,34,22,13,126,-16,155,49
65,31,21,33,69,116,159,-45,107,-6
29,-31,33,24,66,116,129,-41,-94,-38
36,-160,-41,-59,-2,-7,-134,-44,-692,-41
58,18,121,46,35,103,145,-129,52,-9
76,71,161,54,54,87,111,-187,94,-12
83,56,123,0,33,44,24,-203,2,3
52,-186,-36,-223,-72,-143,-397,-252,-943,-34
55,58,101,-147,-161,12,125,-26,236,98
-26,-9,78,-156,-185,8,158,178,398,7
-57,-71,78,-107,-143,13,103,396,255,-44
-61,-155,50,-68,-14,-31,-159,281,-369,-95
-61,-42,84,318,270,115,76,114,317,-45
-77,-73,69,303,205,49,22,-23,221,-67
-63,-91,47,143,55,-39,-80,-55,43,-65
-62,-214,7,19,-142,-271,-432,-118,-605,-118
-109,-36,41,85,-131,-147,0,-99,201,-71
-51,-5,73,-53,-176,-124,27,-36,113,-44
-40,-31,34,-163,-188,-162,-57,-3,-65,-29
-1,-77,-42,-265,-164,-137,-122,19,-342,15
72,37,-21,-133,-38,207,334,146,345,128
21,7,-18,-60,5,156,234,80,277,66
-6,-6,1,7,25,88,104,18,94,45
-29,-226,-42,-75,-3,-131,-387,-25,-898,10
-18,-251,-97,-47,64,-114,-378,-14,-843,70
-29,-61,-45,193,176,48,44,-75,201,136
-81,-37,9,157,109,-46,-76,-242,130,13
-80,5,83,57,8,-82,-179,-308,48,-54
-43,8,94,31,-59,-46,-192,-283,-77,-37
-20,92,39,137,94,178,161,38,294,41
14,71,-64,-1,126,256,236,107,402,83
28,23,-175,-107,124,264,263,64,346,75
25,-75,-162,-234,-45,-1,-47,-1,-303,9
112,173,165,-4,-39,10,208,97,197,51
101,185,219,102,-16,-38,128,16,238,58
62,99,115,28,-53,-178,-47,30,32,32
38,-74,-79,-182,-114,-362,-324,62,-502,10
78,124,-69,-129,-77,-180,11,36,337,133
68,90,-49,-114,-65,-121,-19,-54,292,133
32,33,-62,-71,-67,-154,-114,-78,26,93
13,-69,-132,-109,-120,-282,-396,-145,-639,21
-49,81,157,130,-80,-123,-73,-188,122,25
-95,89,192,136,-94,-117,-32,-121,82,7
-117,48,139,53,-85,-111,-49,-123,-83,-57
-116,-122,-6,-164,-129,-194,-267,-169,-731,-135
-119,-86,-34,-181,-151,-119,-70,-152,-430,-135
-59,64,15,-108,-110,44,245,-48,114,-70
19,143,45,-74,-57,133,329,94,232,11
15,126,46,-15,-18,98,219,34,254,0
6,86,55,15,-26,-34,-68,-21,108,3
95,183,46,144,59,-18,20,-51,338,154
-56,24,-77,166,152,-40,1,-168,164,17
-119,-21,-23,166,83,-113,-148,-208,-74,-108
-55,-49,-14,69,-30,-196,-373,-59,-534,-68
30,137,63,130,10,52,109,32,229,1
39,95,123,138,-3,59,108,-153,133,16
3,-32,-9,33,-6,-6,-20,-279,-241,-41
-8,-143,-54,-99,-69,-100,-200,-216,-635,-102
-21,29,51,-187,-101,24,229,167,192,-58
67,66,-25,-280,-52,113,275,345,365,73
27,34,-10,-33,75,99,150,245,257,54
-31,-141,-116,33,59,-120,-285,229,-418,-25
-71,-180,-118,11,55,-127,-298,102,-503,-73
-75,-29,10,149,139,104,177,63,272,-32
-54,-5,48,171,128,114,216,31,311,0
-48,-14,25,155,115,67,154,26,247,-3
-46,-68,-108,34,66,0,61,104,72,56
24,-16,-307,-139,8,72,234,109,337,120
-14,-10,-232,-123,-29,51,226,114,330,79
-31,-30,-88,-83,-73,-59,35,33,38,30
-29,-103,13,-105,-108,-169,-237,-40,-471,15
-153,15,267,188,-155,-192,-230,-268,-211,-144
-102,36,319,209,-206,-173,-175,-223,-155,-82
-34,69,295,179,-224,-188,-198,-214,-156,11
-42,-38,143,52,-182,-309,-456,-301,-624,-41
6,24,-8,-39,-28,-118,-110,-175,-116,6
119,46,-287,-277,102,158,279,130,359,196
88,-82,-461,-394,207,305,382,382,490,276
4,-60,-189,-90,269,248,255,429,430,225
-28,-14,8,33,171,83,52,207,59,159
61,176,170,13,-97,-63,1,-53,160,75
103,175,94,-14,-90,-12,47,-65,213,60
199,133,-6,-84,-8,57,83,39,105,144
277,-2,-95,-191,20,68,-3,199,-316,226
29,17,-8,84,184,221,337,104,270,45
10,36,-4,93,125,177,276,-12,193,25
73,60,2,55,71,122,161,-73,13,82
-1,-147,-85,-36,60,-27,-198,-164,-706,22
-71,-95,-11,93,117,17,-62,-208,-307,-73
-58,18,96,187,73,97,104,-229,91,-93
-89,-51,8,100,3,84,122,-94,167,-88
-118,-101,-47,61,4,35,96,4,191,-75
-156,-150,-54,74,68,-2,-32,5,-13,-107
46,95,160,249,157,253,191,105,357,21
88,184,249,319,125,174,108,-70,294,44
70,140,160,193,41,0,-62,-217,50,9
-1,-88,-32,-52,-65,-202,-319,-156,-549,-67
-24,-70,-92,-169,-82,-163,-152,12,-185,-57
-36,-41,-180,-312,-68,-81,-6,140,194,-16
-43,-70,-190,-450,-118,-90,11,194,211,17
-49,-42,-66,-336,-76,-82,30,56,125,-34
-75,-63,-7,-203,11,-80,-109,-99,-96,-88
114,142,117,54,110,33,74,-7,263,242
67,74,54,126,168,50,125,-29,238,174
-38,-60,-39,108,143,-1,41,-133,30,-5
-138,-274,-132,18,67,-168,-311,-218,-616,-170
-220,-55,247,255,108,-55,-50,-229,9,-236
-230,-34,246,275,98,-61,-56,-186,-44,-236
-153,-57,94,67,-77,-148,-225,-130,-362,-213
17,-56,-40,-132,-174,-202,-333,97,-507,-53
60,60,-101,-102,-89,-133,-58,77,262,47
130,72,-106,-146,-100,-80,97,185,398,149
94,25,-100,-204,-169,-22,178,329,371,140
28,-171,-110,-269,-234,-239,-346,188,-697,4
-37,-149,11,-72,-171,-356,-542,-23,-828,-52
-66,58,155,173,-58,-181,-130,-127,155,12
-104,39,85,131,-7,-34,16,-145,137,-44
-154,18,9,37,26,63,110,-105,77,-78
-123,-34,-75,-93,1,38,71,57,-9,-1
36,66,-113,-41,45,131,215,223,254,97
46,81,-66,58,125,132,171,121,260,80
-53,44,65,242,171,3,-8,-76,56,-41
-23,77,125,266,176,4,-19,-49,62,15
97,126,99,97,111,45,-30,25,55,103
100,135,17,-34,93,128,107,-11,203,75
71,150,26,-128,42,135,174,-59,170,15
58,153,60,-166,-11,121,168,-116,110,-17
47,106,14,-141,30,134,146,-87,79,-16
15,25,-21,-50,102,69,49,-101,-91,-50
-37,44,30,101,134,45,116,-186,9,-130
-19,65,48,51,74,56,153,-162,44,-93
-40,36,12,-4,39,23,80,-102,75,-96
46,91,33,-88,-83,-31,54,174,187,-10
137,109,-5,-184,-169,-52,33,305,147,114
145,65,-143,-5,80,184,147,129,396,205
48,2,-84,17,86,57,39,25,301,121
-26,-63,-79,21,92,-41,-17,-28,49,74
12,-132,-93,-71,19,-74,-175,-59,-502,22
-8,-76,-29,-32,22,62,58,-83,-274,-23
-23,14,4,20,48,208,359,-75,57,-39
-13,42,-29,19,40,234,453,-11,34,-40
-7,22,30,-1,34,215,409,110,-28,-23
-28,-1,7,-8,12,124,221,118,-132,-53
-26,95,79,101,4,123,143,-75,13,-103
-21,68,34,170,67,106,66,-60,89,-69
50,57,-11,122,64,59,-100,-28,103,52
55,-53,35,17,-1,-123,-486,-124,-535,98
-6,38,125,154,80,-24,-145,-53,-5,138
-52,14,119,171,109,6,-92,2,-96,70
-3,129,229,290,115,-11,-66,38,30,66
68,25,147,178,30,-251,-479,25,-667,108
25,145,120,98,-89,-219,-164,-98,122,0
-66,74,49,-49,-195,-275,-216,-244,61,-128
-139,-71,-83,-217,-206,-242,-274,-291,-223,-183
-140,-211,-185,-251,-149,-256,-456,-306,-818,-181
22,17,-128,-73,-73,-109,-117,-241,-221,20
119,101,-81,-31,-39,66,195,-136,222,130
24,-13,-189,-32,21,217,379,-81,236,37
-27,-37,-130,83,34,206,352,-136,98,-72
-12,-1,134,184,-39,37,76,-264,-215,-129
-47,47,244,263,-63,-62,-64,-298,-143,-156
-90,37,240,268,-79,-126,-161,-292,-41,-168
-108,5,133,166,-60,-131,-169,-115,16,-112
-62,7,2,14,-44,-109,-172,72,140,0
8,-21,-134,-173,-93,-109,-243,43,5,6
66,61,-54,-113,-66,-40,-106,121,240,17
138,49,-164,-209,-25,126,176,317,539,154
146,-16,-196,-211,25,225,322,452,635,230
91,-5,-32,-56,70,189,227,328,430,165
54,-31,-7,-70,39,130,89,121,103,39
3,-17,-35,-109,7,158,165,20,211,-36
-21,-30,-78,-113,-47,171,210,39,294,-28
-35,-62,-104,-62,-26,164,192,43,252,-34
-56,-106,-171,-84,25,162,115,8,106,-78
-37,-97,-106,-70,55,132,25,43,-97,-77
-27,-13,55,59,83,152,98,121,93,-30
-16,46,140,69,63,141,159,110,113,58
7,63,159,42,5,141,222,45,78,68
6,20,105,19,-48,69,143,-62,-44,-22
-86,-105,-7,-26,-46,-32,25,-169,-266,-120
-105,-108,-56,-7,-32,-1,169,-130,-25,-88
-69,-66,-103,-78,-69,-16,181,-24,58,36
-83,-109,-265,-133,-1,-52,52,36,42,33
28,-35,-209,-105,39,-55,-106,24,3,52
84,48,28,-33,26,-115,-285,-119,-132,61
193,184,173,32,-38,-46,-115,-16,159,136
211,184,214,169,6,-55,-217,-122,149,131
68,14,86,204,66,-80,-308,-241,-123,10
-117,-258,-190,19,23,-186,-378,-182,-692,-152
-206,-231,-181,3,16,-124,-170,-198,-465,-248
-171,-71,34,12,-52,-92,-75,-251,-200,-201
-160,-17,166,-9,-154,-185,-154,-223,-177,-182
-137,13,142,-43,-236,-286,-271,-165,-153,-172
-32,91,160,-26,-270,-327,-360,-66,-87,-98
76,136,149,-22,-92,-31,-32,170,357,62
108,105,13,-6,51,107,110,140,316,91
106,0,-151,-146,132,186,102,101,154,117
49,-164,-208,-216,133,81,-163,43,-399,71
-46,-79,-45,54,195,70,-82,-39,-156,21
-47,26,65,145,90,92,29,-68,148,-6
-25,22,27,171,12,5,-50,-105,146,-37
-55,-34,-116,127,-52,-107,-150,-106,2,-79
-52,-95,-105,49,-37,-75,-141,-33,-95,-55
-27,-73,-164,-226,-21,56,76,-23,164,-36
-43,-67,-136,-287,-108,14,36,-13,170,-34
-34,-27,7,-177,-137,-84,-122,-42,-30,-87
-20,-130,44,-128,-152,-224,-414,-73,-635,-116
11,-56,34,-42,-94,-61,-122,-11,-203,-55
42,2,47,3,11,106,147,32,190,6
79,-33,-84,-36,105,192,241,117,275,62
101,-53,-137,-75,92,181,240,252,239,94
40,-86,-136,-27,69,81,113,221,-5,20
-45,-112,-16,50,70,-4,56,2,-162,-53
-81,-63,114,143,45,-59,110,-160,-68,-45
-25,34,227,137,-49,-164,39,-269,-112,-53
48,77,202,-17,-167,-243,1,-284,-224,-25
103,72,143,-93,-225,-251,28,-136,-232,29
218,83,-59,-167,-52,79,292,303,351,210
206,12,-154,-136,55,234,361,520,559,269
14,-167,-204,-75,126,157,191,443,328,69
-100,-333,-202,-33,154,-34,-266,361,-382,-69
-69,-172,-102,60,187,77,-113,215,38,-22
-75,-72,-105,123,183,151,77,111,345,32
-78,-48,-43,86,120,129,112,158,339,87
-51,-66,17,131,134,114,95,203,281,63
-49,-79,23,103,99,54,-19,66,113,-8
-52,-3,58,98,60,46,-7,-62,194,-37
-31,40,48,84,24,6,-1,-64,201,-42
-43,39,20,49,-6,-9,-10,-65,178,-71
-38,11,27,-7,-55,-6,-44,-87,19,-93
-34,1,91,30,-65,0,-44,-84,-88,-111
-57,42,197,212,3,129,164,11,148,-118
-57,63,201,258,7,140,189,-9,119,-134
-80,-36,55,140,38,101,147,-40,-123,-161
-118,-259,-196,-92,92,18,-62,-29,-580,-186
-44,-147,-175,-126,66,49,56,37,-92,-77
25,-21,-80,-122,-16,-16,63,50,171,10
26,13,-38,-27,-3,-147,-67,-19,109,34
54,77,110,120,-31,-280,-257,-122,-55,-31
65,105,189,157,-77,-374,-315,-144,-150,-84
-77,32,109,-63,-176,-347,-133,-257,-259,-215
-109,8,156,-26,-211,-342,-169,-409,-448,-318
-8,-5,49,-190,-232,-263,-113,-344,-512,-199
82,-119,-182,-350,-201,-185,-161,-178,-773,-57
87,-75,-190,-212,-106,-21,90,-74,-183,-26
111,-44,-203,-179,-35,56,236,98,236,28
163,4,-208,-124,100,98,240,291,416,110
125,-23,-173,118,298,50,30,303,275,105
138,-2,-116,133,289,46,-85,250,197,97
194,99,65,143,188,190,155,181,389,158
154,76,90,182,160,190,218,155,253,105
135,21,7,148,123,139,145,127,-11,43
44,-155,-116,-23,32,10,-96,126,-591,-54
27,-43,18,43,65,83,93,216,-104,-50
47,35,149,96,-71,-38,-6,51,-109,42
12,-3,131,135,-58,-87,-47,26,-216,20
-74,-205,-79,-145,-82,-247,-377,-68,-895,-92
-42,-20,-169,-167,-87,-67,65,16,-73,9
-53,-75,-142,-179,-79,-55,80,33,-190,1
-64,-95,47,-152,-132,-105,-97,-28,-531,-38
-52,91,179,74,-100,21,102,-81,25,-21
25,163,176,187,-68,33,75,-117,156,33
36,133,156,115,-66,-57,-62,-192,115,46
-42,55,35,109,29,-131,-206,-282,-36,18
0,16,-37,-13,46,-127,-276,-227,-133,12
67,70,-23,-92,15,-45,-110,-120,153,62
124,105,-41,-220,34,42,24,-3,307,156
133,136,9,-146,83,102,94,7,290,226
103,106,50,-46,76,87,95,-75,88,206
102,55,-12,-105,-24,79,116,-197,-123,86
46,66,-21,-88,-81,109,252,-288,-12,27
31,85,176,-9,-89,99,312,-355,-77,-13
45,91,247,3,-108,85,308,-237,-13,6
2,68,225,6,-116,29,160,89,105,18
-10,21,176,40,-36,-12,-32,357,222,33
-6,70,246,135,20,34,-75,364,454,48
72,170,350,224,60,97,-39,407,503,101
209,210,284,221,116,187,74,534,630,287
144,72,104,86,142,170,46,356,331,277
-16,-42,15,47,135,126,3,180,8,87
-32,-12,-35,123,168,150,124,192,225,40
-76,-103,-193,43,170,147,156,188,273,28
-73,-79,-188,83,100,97,89,163,238,45
-80,-26,-6,279,74,-31,-140,20,-45,-6
-57,0,92,325,68,-87,-245,-11,-90,6
-110,-30,32,107,-16,-177,-254,-179,43,-49
-67,3,78,-72,-66,-125,-162,-169,18,-37
62,-17,-134,-377,-105,20,-3,31,-40,112
138,-76,-252,-449,-93,34,-34,168,-308,202
78,1,-150,-192,42,105,160,132,80,143
-15,-9,-89,-44,97,128,237,59,124,40
-83,-4,0,24,85,128,245,37,26,7
-83,-13,10,-11,41,63,118,-20,-140,-45
-8,39,90,64,37,44,14,-31,-100,3
105,182,234,214,89,76,31,-19,185,108
87,159,218,209,78,27,-18,-52,175,91
20,56,124,243,103,10,-1,-91,114,49
22,16,48,225,87,-10,-9,-109,96,33
64,31,-37,39,11,-48,-63,-90,119,57
91,9,-131,-154,-18,-30,-59,-61,135,71
37,-38,-150,-162,9,25,4,-28,109,18
-58,-74,-155,-69,65,61,69,-25,30,-36
-53,-61,-54,15,74,90,145,-5,37,-44
-49,-85,-7,47,49,63,121,-38,37,-76
-72,-113,21,67,16,-32,4,-90,6,-75
-94,-75,57,125,27,-94,-95,-98,-19,-57
-99,-73,30,81,-6,-119,-103,-62,-52,-52
-84,-75,13,6,-52,-109,-64,-47,12,-65
-81,-56,27,-60,-72,-91,-83,-61,47,-102
-7,-3,9,-158,-89,-81,-169,-31,86,-42
41,20,5,-185,-80,-79,-186,-13,75,26
38,15,42,-122,-39,-17,-23,0,37,73
76,81,94,-82,-63,32,99,42,55,87
66,98,108,-56,-110,-17,57,1,0,18
-32,15,59,43,-54,-64,-18,-81,-90,-108
-95,-17,23,114,-16,-88,-58,-105,-120,-182
-44,44,18,99,-14,-61,-31,-40,-34,-148
0,63,-22,142,53,-7,19,19,39,-105
8,37,-53,101,42,-2,67,22,64,-101
-9,-6,-94,-35,-35,-13,114,5,61,-99
-43,-32,-129,-182,-97,-5,130,2,74,-93
-59,-36,-116,-219,-106,-2,134,10,62,-34
-36,-26,-99,-189,-68,18,138,55,81,49
-39,1,-68,-134,-40,11,89,52,101,-8
-98,-10,-26,-96,-54,-18,12,5,43,-93
-65,33,85,38,-49,-29,-77,-41,-7,-76
-62,84,231,195,-18,-84,-216,-138,-104,-67
-105,119,262,216,-16,-139,-274,-194,-179,-66
-119,112,219,124,-44,-143,-267,-228,-196,-136
-56,106,110,-55,-99,-87,-147,-130,-133,-122
36,92,-71,-283,-156,-17,-7,39,-7,-10
137,67,-94,-315,-147,60,81,152,65,126
191,88,-14,-61,-92,35,35,123,57,157
65,-9,-57,123,-20,-103,-166,-77,-55,12
25,-52,-163,173,13,-164,-253,-162,-60,-41
-28,-92,-141,111,37,-208,-305,-213,-114,-105
-115,-152,-137,-91,-24,-188,-226,-223,-190,-205
-31,-82,-100,-213,-77,-38,64,-28,-87,-58
78,-21,-112,-183,27,109,239,161,58,65
101,-26,-102,-81,121,154,238,189,88,32
106,-64,-196,-82,176,207,254,204,123,48
86,-56,-177,-38,184,216,262,222,158,52
10,-50,-121,25,171,116,143,147,92,10
-13,-71,-158,-43,133,-2,18,52,-32,-11
50,-26,-92,-83,55,-41,-76,-14,-89,-12
60,11,1,-14,20,-74,-152,-90,-142,-39
8,20,36,65,34,-82,-111,-121,-159,-77
-22,25,73,79,18,-85,-48,-122,-102,-65
-46,0,52,45,-22,-77,-45,-126,-72,-104
-75,-53,-19,-31,-31,-82,-38,-71,-31,-94
-99,-57,-37,-97,-80,-96,-29,45,62,-85
-154,-41,2,-98,-105,-90,-24,28,17,-109
-112,31,78,-16,-67,-18,66,47,21,-10
-46,63,97,72,-5,54,148,142,108,39
-70,39,166,240,70,14,93,104,54,-54
-93,23,150,206,-8,-93,-16,-2,-47,-102
-6,2,41,-31,-117,-81,22,26,3,22
83,-33,-103,-191,-90,23,132,133,99,165
59,-117,-161,-225,-65,14,45,125,-25,141
50,-66,-52,-212,-122,-17,-30,90,-58,100
25,52,167,-14,-95,-4,-31,-5,10,58
-28,36,236,144,9,-6,-79,-137,-163,-12
-45,25,218,176,62,30,-45,-169,-271,5
-64,-30,-38,38,26,64,21,-86,-181,-11
-82,-146,-262,-131,5,41,0,-67,-111,-47
-13,-171,-253,-164,30,70,36,-31,3,44
52,-119,-167,-131,31,134,98,50,124,124
-33,-152,-112,-97,34,177,153,54,93,25
-67,-145,-62,-96,-14,189,250,45,39,-70
-16,-84,3,-92,-70,172,326,126,52,-69
39,-33,0,-54,-87,127,339,246,90,-32
138,21,-95,-50,-98,97,304,290,167,60
210,86,-92,-84,-108,86,239,254,207,123
200,59,-96,-65,-77,74,180,232,188,121
157,20,0,33,24,149,182,189,112,98
49,3,53,119,90,133,47,89,54,32
3,25,113,178,84,-4,-197,-11,-11,10
56,55,213,248,73,-37,-234,-111,-85,56
1,24,222,215,29,7,-88,-149,-134,44
-92,4,191,149,-53,-10,9,-129,-124,-26
-186,0,197,141,-139,-142,-140,-191,-172,-160
-175,37,233,169,-161,-231,-384,-270,-211,-213
-62,79,225,111,-164,-264,-526,-294,-180,-136
-31,51,157,58,-196,-357,-667,-356,-204,-114
-137,-15,189,101,-230,-456,-823,-460,-300,-207
-75,65,333,183,-201,-422,-799,-469,-235,-149
61,119,231,108,-145,-254,-525,-318,-66,7
25,28,43,177,14,-177,-335,-318,-118,-43
47,23,-67,157,63,-141,-226,-410,-216,-49
320,127,-245,-149,73,135,142,-223,50,248
291,-44,-578,-339,220,321,362,-116,190,312
142,-186,-597,-270,311,375,408,-122,177,219
101,-132,-345,-122,270,356,384,-122,129,182
60,-47,-128,59,253,260,269,-67,144,115
8,-50,-73,94,207,258,276,409,405,100
-47,-86,-97,124,189,366,516,986,711,89
-121,-107,-93,143,236,452,695,940,600,8
-167,-138,-95,68,214,412,702,667,301,-54
-203,-148,-128,-57,146,330,666,590,171,-23
-144,-78,-137,-145,95,295,593,561,198,52
-29,-9,-96,-129,92,255,396,429,225,106
-2,-18,-107,-111,80,137,98,206,176,25
26,14,-58,-47,36,-76,-250,29,109,-1
103,87,78,14,-45,-327,-603,-72,108,48
149,127,96,6,-97,-447,-668,-104,87,99
109,96,32,-38,-120,-359,-369,-60,64,50
74,81,85,-26,-84,-178,-93,-33,102,17
48,37,67,-30,-68,-45,46,-18,96,10
-37,-62,-3,-63,-67,16,104,26,43,-58
-86,-113,-17,-39,-55,-29,-4,-11,-6,-115
-56,-81,22,-35,-100,-171,-234,-111,-60,-102
-42,-79,124,7,-148,-329,-526,-219,-274,-92
-23,35,246,114,-137,-360,-645,-350,-126,-67
75,196,345,185,-78,-383,-838,-529,-47,-31
104,255,322,137,-93,-384,-873,-599,-60,-39
24,167,92,-14,-138,-201,-517,-483,-90,-98
30,75,-189,-245,-135,54,-80,-215,-10,-8
31,-20,-218,-318,-97,218,193,-12,82,69
-72,-94,-101,-154,-19,195,213,-19,-2,-57
-165,-125,16,72,62,62,112,-145,-127,-183
-36,0,123,50,-30,-33,117,-98,-1,-61
14,29,60,43,-29,-11,153,-58,96,-17
-24,-33,-37,12,-7,41,185,-26,140,-2
7,-34,-49,-39,49,81,201,163,269,93
108,37,-9,-41,85,71,83,260,326,155
109,61,55,-2,55,32,57,162,237,120
10,-7,-24,-30,4,79,261,211,187,19
-36,-46,-90,-72,-6,152,447,359,159,-40
-10,-66,-113,-111,16,166,378,505,94,3
13,-64,-100,-119,22,123,219,465,206,77
13,-48,-65,-67,45,114,120,337,248,117
-13,-56,-76,-32,77,174,196,228,155,32
-56,-81,-105,-50,57,229,336,233,99,-59
-46,-53,-34,-59,-2,132,199,178,55,-57
-21,21,86,73,59,1,-140,-13,-39,-45
-32,69,171,196,170,-34,-378,-171,-126,-32
4,84,139,193,167,-41,-431,-222,-90,-19
-4,46,33,128,128,-23,-365,-215,-51,-25
-17,40,10,89,97,-105,-447,-239,-37,-8
60,123,112,105,70,-263,-642,-313,-21,52
85,175,165,136,16,-279,-591,-355,-33,34
39,136,119,118,-44,-176,-311,-266,-28,-18
-3,106,140,73,-94,-126,-170,-207,-57,-59
-36,92,140,86,-89,-111,-118,-181,-92,-96
-30,121,183,152,-34,-85,-86,-176,-158,-98
-23,149,259,241,32,-39,-76,-147,-167,-95
-14,151,253,282,20,23,-41,-72,-78,-92
-21,158,306,236,-69,-17,-129,-165,-112,-134
-30,98,217,49,-155,-36,-134,-229,-144,-118
-88,-60,-13,-214,-167,1,-31,-191,-157,-119
-109,-133,-189,-298,-78,42,40,-113,-138,-122
21,-65,-250,-259,30,162,195,85,11,4
46,-7,-145,-102,41,149,209,178,8,19
-4,-6,-55,11,-10,14,130,132,-80,-39
31,18,-46,52,0,-23,112,112,-55,-11
67,-33,-238,-112,45,102,295,270,85,85
33,-119,-460,-331,51,223,566,416,130,115
-12,-125,-493,-320,37,262,695,448,73,112
-13,-116,-399,-179,18,204,630,417,-74,89
5,-30,-160,-59,-1,171,570,368,76,62
-3,-2,-48,-51,-35,120,414,309,87,31
-22,3,-29,-76,-12,91,247,243,-33,-12
-48,-4,-54,-108,-5,59,71,175,-49,-38
-30,17,-28,-125,-69,-106,-216,24,-11,-3
33,102,70,-37,-66,-282,-548,-121,11,45
-5,107,124,65,-1,-309,-590,-167,-30,36
-104,61,104,98,-2,-250,-411,-144,-92,-97
-99,47,110,70,-113,-239,-333,-167,-97,-203
-67,74,166,78,-177,-275,-431,-269,-121,-185
0,127,241,96,-169,-258,-514,-381,-157,-144
93,136,195,48,-107,-69,-333,-297,-102,-23
76,19,-38,-46,10,150,-64,-133,-24,52
30,-27,-129,-48,71,203,39,-43,11,94
6,57,-36,-3,-11,143,63,15,35,128
-78,46,-1,38,-90,32,85,51,29,61
-265,-101,-38,111,-31,-82,-1,-66,-81,-148
-241,-76,43,194,18,-172,-110,-156,-125,-179
-91,2,71,131,82,-153,-102,-78,-29,-25
-11,56,55,51,74,-107,-45,54,115,114
50,86,35,-27,-103,-137,38,155,242,218
76,43,-20,-32,-63,-49,145,164,165,223
45,-20,-109,-133,-18,59,150,130,-60,157
19,10,-38,-144,-67,101,216,90,66,127
7,72,82,-106,-135,26,132,-6,26,93
-1,102,123,-103,-155,4,130,-59,-78,35
-50,25,41,-153,-162,119,386,107,-57,-20
-132,-91,-137,-148,-47,313,817,344,61,-33
-136,-145,-309,-36,117,393,985,413,156,31
-111,-194,-337,-98,111,303,819,451,194,77
-166,-254,-274,-106,57,165,439,273,109,-14
-166,-210,-153,-41,22,62,98,30,-10,-98
-109,-135,-45,-29,3,-36,-178,-82,-62,-135
-62,-85,-25,-45,-38,-209,-471,-69,-93,-167
-22,1,70,66,-53,-414,-784,-157,-165,-225
38,125,405,378,32,-450,-910,-368,-257,-180
29,120,447,447,49,-250,-554,-302,-233,-108
-72,15,336,349,19,-100,-264,-205,-237,-137
-108,-39,272,258,-23,-143,-262,-235,-277,-111
-13,9,194,25,-125,-277,-403,-301,-284,14
144,58,11,-285,-150,-279,-425,-258,-192,220
236,58,-171,-415,-66,-115,-243,-81,42,403
193,51,-115,-203,45,-87,-223,-121,19,363
44,-33,-81,-76,123,-150,-239,-242,-160,218
55,-27,-57,-40,99,-95,-102,-129,-90,141
4,-52,-125,-68,55,-63,-10,-48,-90,4
-74,-92,-145,-155,13,14,127,29,-129,-108
-158,-143,-172,-156,19,129,332,60,-178,-167
-89,-118,-225,-193,15,219,512,111,-136,-81
14,-81,-235,-227,11,292,604,216,5,45
66,-88,-279,-236,15,262,566,287,99,119
55,-95,-225,-165,-2,137,306,207,-63,95
44,-54,-92,-76,-25,-1,23,69,-223,37
108,14,-12,-47,-58,-89,-148,61,-116,71
189,71,29,50,38,32,-97,9,122,140
135,-5,-41,5,57,171,226,115,39,113
65,-104,-157,-70,58,284,468,215,-81,65
1,-285,-260,-164,7,151,179,158,-708,-74
7,-52,-72,41,23,70,58,15,2,-175
13,7,-5,55,7,-37,-88,-84,-87,-163
25,34,39,64,9,-65,-116,-69,-150,-48
-18,-187,-72,-97,-78,-243,-490,-28,-985,5
-54,-198,-73,-97,-71,-260,-524,-61,-919,-30
-100,-6,38,85,59,-27,-8,-91,102,-34
-122,-30,17,60,50,19,112,-89,130,-63
-96,-48,-41,35,10,-23,10,-44,175,-23
-32,-49,7,-4,-38,-145,-311,-88,78,40
22,156,173,135,-27,-161,-374,-235,229,6
-40,14,14,74,-27,-74,-143,-76,97,-8
-59,-125,-19,-20,-26,-105,-328,-126,-489,-57
-71,-107,18,1,-34,-127,-370,-233,-555,-153
-127,-38,49,30,-69,-95,-165,-197,-101,-190
-141,-74,38,-15,-80,-100,-122,-149,-12,-207
-112,-11,107,12,-32,-32,-16,-147,84,-214
-36,39,183,38,-15,-2,0,-149,-107,-196
-62,16,147,213,125,121,262,-218,82,-212
52,67,77,98,-3,86,316,-122,157,-101
76,-44,-198,-59,-96,-4,219,-64,-36,-41
-34,-318,-487,-325,-148,-147,-83,-76,-674,-112
-105,-244,-330,-254,-49,5,124,39,-88,-121
-55,-104,-109,-71,53,97,214,331,436,-16
32,17,53,34,102,139,102,401,507,71
55,60,94,40,50,128,4,150,369,55
80,61,74,0,-2,97,12,47,265,50
109,70,72,8,-2,160,129,121,249,71
108,71,64,13,-5,201,214,165,293,108
99,72,58,6,1,158,230,150,314,68
47,47,56,25,35,164,314,137,261,12
0,5,58,40,81,211,415,150,235,-24
-26,-9,49,46,67,154,313,145,241,-28
-48,-16,46,60,34,83,174,116,228,-21
-74,-11,83,106,67,37,33,59,166,8
-46,37,129,134,101,6,-71,-16,112,54
8,78,121,124,67,-56,-194,-115,62,67
44,108,71,120,36,-111,-322,-192,24,77
82,117,146,128,48,-135,-401,-238,-2,112
73,87,239,161,34,-155,-387,-259,-157,79
23,101,392,253,-27,-152,-266,-270,-318,8
-22,182,555,430,-62,-134,-76,-283,-210,-22
-27,213,567,505,-84,-125,16,-184,-161,-72
66,242,438,446,-88,-50,120,-91,-32,-31
45,109,141,129,-107,-11,150,-46,25,7
-29,-123,-315,-378,-108,-4,79,72,-14,15
-73,-230,-494,-625,-62,-57,-148,0,-196,-33
30,-85,-419,-554,-36,-96,-259,-68,10,9
183,73,-157,-287,29,-12,-116,24,190,141
152,70,-145,-83,152,102,97,103,143,84
88,25,-288,-115,168,198,270,178,110,37
53,6,-281,-32,183,266,391,208,136,35
32,-2,-132,14,123,222,346,179,113,38
50,-13,-169,21,49,156,217,196,117,75
-5,-46,-245,38,78,179,292,312,179,63
-36,-44,-234,49,150,273,422,359,213,94
33,23,-136,71,222,337,402,277,222,149
3,25,-27,78,230,358,414,126,150,24
-92,-28,18,55,153,301,288,7,-93,-106
-142,-67,-15,18,110,200,94,16,-231,-165
-137,-20,30,36,66,87,-36,83,-26,-115
-45,56,120,38,-9,-76,-293,46,45,-45
55,153,218,106,-22,-149,-460,-92,80,37
68,127,167,106,-37,-170,-428,-147,96,60
-11,69,81,62,-29,-84,-239,-151,10,8
-98,5,126,23,7,13,-61,-147,-70,-64
-144,-37,116,10,22,21,-4,-151,-71,-90
-126,-15,150,35,11,-40,-55,-156,-78,-54
-82,17,195,71,-37,-104,-122,-178,-143,-77
-69,9,208,61,-82,-156,-184,-173,-262,-117
-41,-25,194,26,-158,-289,-268,-118,-257,-64
86,20,243,83,-207,-423,-336,-102,-111,61
142,96,270,154,-194,-399,-323,-160,-3,56
66,53,169,101,-128,-244,-273,-149,-121,-4
-68,-94,-16,-30,-85,-185,-239,-168,-127,-97
-84,-142,-170,-33,55,-79,-93,-118,27,-73
14,-68,-256,-60,145,74,66,2,119,75
98,19,-150,-94,55,79,151,75,206,113
110,46,-27,-53,-7,37,188,113,248,71
99,49,-10,-17,12,23,160,104,231,85
57,31,-30,42,37,39,162,100,201,71
-12,3,1,119,107,48,145,62,91,51
-20,3,-10,65,105,96,142,48,56,-6
-59,-41,-88,-22,122,247,265,109,60,-72
-128,-79,-63,-8,107,318,338,134,5,-109
-168,-86,-21,46,85,231,266,122,-39,-89
-115,-30,73,127,73,94,95,58,-4,-3
-68,3,114,157,15,60,30,-16,1,12
-23,20,63,76,-93,52,89,-16,25,-30
80,55,-110,-72,-176,-26,34,62,7,60
114,29,-178,-170,-180,-124,-198,10,-52,80
95,42,-157,-247,-140,-157,-258,-20,64,46
79,2,-253,-295,-118,-113,-126,66,128,13
70,-12,-241,-199,-61,-25,53,75,145,-11
80,-10,-184,-136,-36,31,194,82,148,-11
48,-43,-149,-115,-41,19,199,56,61,-34
1,-74,-112,-103,-69,-11,94,5,-22,-58
5,-65,-79,-75,-77,-21,-16,-30,-48,-70
50,-35,-46,-23,-40,-19,-42,-12,-25,-72
67,0,33,47,17,-31,-51,44,44,-65
52,-2,101,108,55,-57,-110,43,136,21
123,65,157,131,28,-121,-213,12,220,179
211,153,164,164,35,-154,-303,-15,266,331
165,119,35,172,86,-85,-240,-71,228,357
58,56,121,226,68,-33,-167,-147,99,176
6,51,296,306,-7,-105,-176,-170,42,29
12,116,318,353,-58,-209,-270,-280,-77,-51
-22,124,226,349,-87,-327,-439,-430,-247,-180
-119,34,191,166,-201,-421,-494,-450,-376,-349
-37,12,62,-139,-303,-339,-256,-234,-275,-220
116,-9,-90,-345,-305,-74,138,96,-33,58
114,-88,-112,-256,-188,91,325,245,54,130
6,-98,1,34,11,209,415,188,153,42
-94,-142,-13,89,24,268,521,163,81,-71
-179,-197,-140,72,33,273,513,106,34,-138
-125,-210,-357,-100,66,279,406,158,142,-41
-43,-202,-356,-311,6,201,173,197,252,51
23,-60,-164,-230,50,117,-72,96,214,141
34,-3,-20,-56,157,107,-121,95,145,131
39,-68,-33,-46,126,6,-252,94,-5,30
160,53,63,14,110,-29,-296,-10,162,110
227,109,124,39,35,27,-181,82,261,197
124,3,38,10,-34,73,33,214,227,146
13,-75,-62,67,36,94,151,191,146,45
-75,-99,-80,38,56,106,67,156,-73,-62
-28,-6,63,96,47,39,30,72,26,-38
-2,-43,103,112,33,-88,-254,-18,-319,-57
-7,-66,68,88,3,-127,-366,-67,-458,-71
49,83,125,127,-24,-127,-198,-63,109,19
129,100,150,103,-70,-223,-229,-46,253,133
100,32,141,77,-45,-181,-202,-50,211,154
38,16,120,46,-6,-80,-82,-35,171,126
38,22,197,86,-43,-117,-79,-82,98,77
-49,-11,316,196,-80,-185,-147,-203,-57,-67
-169,-17,364,209,-112,-201,-191,-343,-196,-250
-174,-2,227,140,-102,-145,-143,-394,-215,-328
-118,15,82,80,-77,-104,-99,-324,-163,-271
-75,-39,-11,-74,-79,-123,-175,-277,-215,-216
55,-93,-223,-277,-63,18,-56,-68,-125,0
150,-57,-239,-267,-16,249,308,211,314,229
145,-59,-158,-140,25,281,383,271,399,237
57,-62,-58,-52,11,183,300,210,329,110
-44,-54,12,29,48,109,179,134,197,-41
-10,-26,-75,-39,72,171,259,215,196,-23
71,-21,-170,-161,126,337,472,329,265,90
-37,-80,-153,-88,246,422,528,285,137,-20
-153,-127,-131,-49,217,340,468,253,47,-113
-91,-67,-65,-51,106,226,432,287,99,-45
-74,-23,-8,4,117,254,607,352,105,-48
-91,-25,-35,-6,105,308,763,506,85,-107
-92,-65,-67,-103,2,211,608,472,-122,-127
-82,-59,-61,-168,-71,137,435,408,-21,-43
-81,-31,-72,-180,-78,54,230,312,2,-20
-113,-12,-59,-115,-43,-45,24,138,-106,-90
-29,34,-104,-42,9,-156,-290,-30,-311,-65
104,52,-19,13,85,-307,-838,-281,-762,18
138,167,293,239,186,-209,-731,-464,-178,163
101,100,259,203,152,-219,-597,-327,-29,240
66,76,226,163,133,-239,-634,-328,-176,190
41,-26,209,69,98,-360,-908,-434,-874,53
167,271,319,139,7,-236,-457,-331,6,63
192,309,266,141,-108,-208,-308,-263,-20,39
145,148,131,17,-184,-268,-316,-149,-294,63
31,-25,-29,-138,-184,-330,-366,-149,-531,4
-144,-71,-190,-97,1,-32,173,-17,38,-39
-159,-23,-100,41,70,7,266,40,-18,-158
-25,7,-66,-171,-75,-58,102,47,-288,-129
15,-91,-180,-398,-174,-110,-169,12,-751,-112
-34,60,83,-128,-99,-35,-62,-132,-247,-145
-26,135,265,109,-28,-103,-168,-240,-208,-112
19,181,249,168,-12,-92,-123,-177,-22,35
55,142,131,312,94,16,-52,-116,171,52
78,32,-83,331,216,110,-14,-30,66,35
-50,-83,-259,157,224,48,46,-68,97,-114
-84,-52,-229,-25,45,-59,23,-125,53,-170
-69,-6,-190,-160,-53,-30,127,-132,15,-132
-12,15,-249,-272,-30,144,434,-70,46,-63
39,15,-249,-334,-47,289,724,65,72,5
28,-16,-289,-318,-52,398,915,232,134,35
-29,-38,-196,-94,82,467,954,291,103,-5
-101,-62,-114,121,180,394,764,267,9,-41
-69,-2,-26,130,79,250,517,378,82,61
-2,40,-7,112,15,148,295,638,295,136
10,46,-93,105,51,42,5,490,318,146
62,62,-89,-5,-69,-95,-165,142,232,106
141,116,-61,-70,-129,-122,-196,15,229,198
150,132,-2,9,-83,-125,-265,-72,198,180
120,87,87,40,-46,-75,-185,-61,158,79
97,93,117,58,-12,-106,-236,-89,100,21
98,112,156,111,21,-188,-437,-223,25,-7
124,169,199,151,51,-206,-593,-328,-88,-28
152,173,167,120,23,-232,-635,-327,-83,-28
141,124,93,54,7,-243,-523,-234,51,35
85,79,21,41,20,-190,-383,-189,113,68
4,7,16,43,21,-147,-273,-186,89,25
-70,-32,92,35,-20,-176,-266,-245,-81,-56
-83,-52,137,47,-52,-209,-301,-303,-346,-44
-39,37,179,44,-88,-139,-146,-333,-190,-34
9,109,167,42,-127,-103,-31,-348,-122,-80
57,113,152,31,-129,-66,50,-301,-54,-80
73,70,81,-11,-51,47,172,-192,-17,-48
-8,-28,-64,-149,0,114,200,-103,16,-86
-54,-86,-150,-180,57,180,204,130,134,-24
17,-19,-101,-11,176,205,164,295,287,150
58,-11,-86,23,156,139,47,236,210,126
-46,-113,-106,3,109,81,-4,156,-56,-9
-171,-166,-140,67,106,54,39,212,-15,-35
-138,-104,-24,120,12,13,26,130,-5,-73
-86,-72,36,107,-39,53,101,5,-82,-51
-163,-99,-54,117,29,186,307,-110,-109,-165
-217,-150,-83,68,80,286,471,-119,-134,-237
-139,-193,-309,-334,-20,462,764,358,212,-55
-94,-164,-307,-237,21,347,599,374,250,-16
-93,-127,-170,-113,19,218,307,271,171,-30
-30,-151,-88,-159,-66,0,-188,359,-273,20
60,-82,12,-125,-75,-101,-330,489,-208,97
102,125,184,119,19,-20,-137,333,350,178
69,134,233,219,66,-3,-105,86,213,120
30,53,171,168,22,-22,-54,3,-28,-2
-15,-1,62,75,-9,17,121,91,133,5
-55,-55,-37,-47,-17,10,40,63,173,-13
-32,-35,-49,-105,-42,-21,-140,-46,138,0
31,-6,-47,-160,-82,-57,-245,-74,154,55
111,85,-7,-136,-104,-129,-365,-85,156,174
136,120,35,-34,-74,-181,-409,-122,169,202
109,92,25,-4,-35,-109,-280,-154,131,102
64,63,-7,0,18,15,-56,-96,58,97
36,52,12,86,121,75,62,-64,37,151
-2,33,24,130,144,73,95,-65,21,101
-25,29,45,119,84,4,53,-141,-6,-9
-42,45,83,96,-7,-120,-35,-228,-73,-69
-59,52,110,61,-65,-195,-126,-301,-127,-153
-70,33,85,33,-86,-228,-176,-286,-267,-185
-2,53,125,54,-179,-166,-83,-107,-297,-88
43,104,205,133,-187,-55,50,0,-249,-30
105,122,136,71,-219,7,120,73,-66,5
155,29,-117,-208,-310,-20,100,41,-10,58
74,-106,-252,-382,-298,-71,35,-122,-133,-15
76,-53,-128,-136,-124,0,102,-193,-6,3
154,18,1,153,94,59,68,-111,49,164
149,37,77,360,218,25,-134,-57,65,91
104,32,144,476,247,-44,-314,5,42,-41
79,-4,49,272,205,-80,-301,-50,17,-76
-5,-142,-237,-84,122,-25,-99,-73,-39,-134
-65,-245,-487,-351,29,28,39,18,-155,-184
-31,-232,-413,-325,29,25,55,84,-149,-120
41,-82,-187,-131,2,51,187,182,128,-3
74,-18,-99,-126,-78,49,258,276,188,84
89,22,-54,-93,-21,105,303,270,208,164
125,65,-75,-5,72,182,278,194,175,177
105,35,-82,68,127,212,181,58,84,62
57,-7,19,140,145,155,71,-14,90,-13
-8,-73,-29,118,109,121,123,81,141,-29
-50,-119,-135,45,80,198,308,206,169,-39
-21,-96,-102,-39,59,185,249,149,-23,-52
0,-85,-135,-121,-34,112,125,69,-95,-35
-24,-85,-147,-119,-61,115,130,64,13,-6
-6,-62,-16,-71,-35,123,107,32,21,-38
39,-15,19,-19,-25,85,15,7,64,26
92,4,27,-1,-37,-20,-138,-11,137,116
174,42,99,49,0,-194,-462,-109,70,183
169,29,102,4,16,-252,-611,-168,-250,137
75,25,86,-12,13,-106,-245,-103,-196,-44
-20,-19,77,-33,-17,-39,-39,-50,-128,-87
-52,-34,39,-35,-36,-22,-53,-96,-67,-113
-143,-48,219,55,-71,-25,-40,-109,-150,-180
-150,-88,152,-10,-87,-29,-65,-49,-306,-129
-72,-6,134,18,-64,22,111,80,5,-97
41,44,108,57,-54,40,219,178,164,-62
-2,-26,5,16,-67,45,221,151,110,-98
-77,-94,-46,-91,-60,-11,84,82,61,-145
-136,-93,9,-78,-19,-78,-80,-29,-36,-179
-85,-17,124,-39,-19,-85,-84,-97,-86,-148
-21,47,185,-37,-60,-107,-96,-123,-43,-117
29,11,137,-81,-100,-163,-257,-155,-112,0
-31,-53,95,70,-19,-245,-367,-285,-251,-46
-82,-15,127,229,61,-202,-260,-390,-289,-152
-11,84,164,170,38,-111,-118,-274,-291,-123
-20,5,36,43,-10,-52,36,-165,-323,-80
-142,-138,-6,149,-11,-117,36,-282,-633,-209
-206,-115,62,269,-5,-165,25,-468,-679,-296
-207,-96,31,126,-69,-206,-80,-549,-625,-281
-120,-8,38,57,6,-122,-38,-290,-180,-113
1,-13,-191,-261,45,42,91,222,199,204
34,-114,-465,-592,-41,96,120,350,351,324
50,-85,-358,-364,35,103,45,408,430,257
-35,-75,-147,-42,172,69,-126,314,344,93
-89,-104,-81,61,212,36,-185,189,84,4
-110,-108,-50,45,168,-7,-111,251,-118,53
-125,-95,-51,15,108,68,167,357,-16,112
-74,-85,-114,-43,78,215,448,409,299,123
2,-85,-162,-90,96,317,506,441,388,135
1,-76,-150,-49,158,356,464,353,346,89
-37,-80,-60,-11,153,283,331,205,231,22
-27,-56,-7,-18,62,127,147,99,113,2
18,-22,21,-31,-20,-36,-50,55,86,29
76,24,92,34,-20,-113,-224,-94,29,43
88,44,111,59,-32,-125,-270,-180,-13,53
65,34,-29,-5,-96,-96,-265,-174,30,47
56,68,-6,26,-83,-112,-349,-262,-4,51
45,2,3,-19,-75,-149,-446,-249,-312,38
9,-134,13,-124,-80,-180,-520,-126,-753,48
36,20,159,178,26,81,66,-116,57,60
-34,-25,124,183,24,115,185,-16,27,33
-151,-189,-6,66,15,74,145,83,-311,-8
-360,-332,-97,-52,-32,44,177,-48,-455,-221
-333,-223,-91,-143,-129,71,350,-18,-160,-186
-172,-84,-66,-196,-175,41,262,-30,-137,-147
-41,-105,-67,-260,-197,-87,-155,-112,-701,-193
-92,-181,-72,-277,-190,-139,-388,-160,-1004,-251
-2,172,145,-58,-177,-217,-388,-228,66,-128
115,230,187,71,-95,-315,-570,-248,193,49
147,113,62,94,22,-311,-682,-193,-137,109
18,-67,-100,74,103,-239,-589,-54,-380,18
71,123,-3,148,213,90,41,98,419,122
9,107,10,84,92,75,67,44,280,57
-53,-21,-78,-55,-46,-13,-104,10,-251,-27
-106,23,-61,34,-38,-73,93,-88,49,-98
-102,-93,-140,-116,-132,-161,-158,-99,-474,-121
-90,-119,-198,-212,-211,-116,-162,-26,-641,-57
-55,-54,-183,-203,-142,22,35,3,-265,-5
-43,22,-149,-183,-117,107,228,18,246,92
-73,-5,-134,-52,-60,26,112,-28,260,71
-10,15,-111,-55,-153,-213,-133,-59,122,69
70,62,-134,-111,-234,-302,-202,-55,105,88
7,12,-117,-88,-199,-192,-34,-42,232,1
-79,-78,-54,-53,-198,-147,20,-42,151,-81
-187,-168,-98,-105,-208,-96,22,-62,87,-172
-228,-192,-142,-166,-232,-91,-16,-93,66,-214
-158,-120,-70,-126,-205,-132,-103,-182,111,-194
-157,-107,-61,-106,-105,-126,-127,-279,110,-238
-172,-97,-113,-170,-40,-78,-45,-269,94,-232
-87,-68,-118,-180,-54,-85,-28,-207,-31,-145
-53,-41,-70,-92,-117,-68,79,-126,92,-60
-148,-74,-79,21,-111,-39,133,-126,158,-122
-224,-158,-124,59,-60,-24,136,-162,70,-204
-303,-244,-203,4,-58,-27,209,-122,43,-274
-350,-299,-252,-165,-158,-51,265,-72,49,-339
-142,-173,-186,-357,-143,-31,183,-38,10,-219
-52,-104,-118,-288,-131,-81,30,-11,51,-126
83,-89,-112,-337,-143,-257,-385,-17,-246,5
205,17,-22,-250,-105,-360,-666,-89,-209,138
275,220,124,-51,-16,-217,-439,-136,219,281
253,253,207,161,69,-81,-124,-119,191,324
138,222,324,377,143,3,78,-203,62,234
37,214,414,422,98,8,145,-287,-38,141
18,223,431,343,70,15,181,-275,-81,104
36,206,337,187,44,-4,175,-171,-47,84
38,132,153,-47,-14,-11,159,63,78,46
131,132,22,-228,-23,107,233,495,361,200
170,153,15,-21,142,252,245,640,496,279
73,91,27,295,331,232,126,452,389,186
0,40,62,383,364,160,-33,175,225,46
-47,28,141,263,262,155,-21,-17,53,-57
-56,66,240,200,143,152,61,-7,-9,-72
-39,82,259,170,110,143,129,58,-27,-60
-50,51,148,84,80,152,213,139,-12,-81
-15,68,88,51,62,153,277,208,58,-53
117,79,114,66,84,172,337,282,205,70
227,78,-19,57,174,239,424,372,358,208
123,-21,-128,84,330,241,319,289,266,133
81,-69,-89,26,233,178,111,216,34,88
188,45,45,46,130,188,107,230,159,181
192,91,103,116,129,196,146,175,289,161
130,71,96,178,165,150,85,101,228,88
123,82,104,179,148,85,12,73,168,117
97,91,131,202,187,80,0,48,121,159
-31,85,126,169,160,95,1,-52,-4,9
-30,82,171,215,167,76,32,-16,13,-13
-29,51,212,313,213,70,-30,-24,-160,-113
4,-57,131,147,78,19,-162,7,-640,-172
47,53,153,120,23,148,218,91,-123,-89
91,122,102,39,5,198,439,182,191,-14
106,120,82,-40,-81,154,427,221,214,-32
119,130,63,-24,-67,156,394,283,227,11
128,148,125,171,53,124,276,244,254,28
113,144,198,182,64,30,134,142,240,36
123,151,155,23,-12,15,73,119,214,81
146,171,159,-39,10,52,2,32,207,91
199,170,72,-103,32,84,-9,-42,212,141
198,93,-39,-88,42,105,55,-56,206,186
76,-24,-114,39,103,70,65,-111,151,126
-34,-95,-107,164,168,15,-7,-257,5,11
64,17,-1,145,66,-37,-104,-299,-11,70
131,67,34,82,-34,-106,-189,-273,55,120
150,82,38,69,-63,-172,-250,-177,144,136
143,82,-31,25,-58,-152,-240,-16,252,156
78,40,-65,-9,-20,-75,-155,213,346,136
-33,-2,38,59,68,-11,-139,333,303,0
-107,-24,75,98,113,17,-101,398,215,-107
-31,28,119,105,81,31,6,475,307,41
0,47,89,89,86,116,167,407,320,134
-21,23,61,79,49,125,254,266,246,57
-34,23,70,46,-11,96,252,161,171,-11
-62,-16,35,1,-26,94,214,92,99,-23
-91,-75,-101,-70,-10,73,118,22,55,-50
-68,-50,-76,-63,-26,32,-2,-36,14,-68
-5,25,19,-16,-48,-6,-121,-78,4,-35
29,64,48,2,-37,-60,-223,-148,-39,-39
60,67,6,-23,-27,-63,-248,-156,-43,-34
91,78,-17,-21,-27,19,-148,-47,-6,11
46,63,-7,48,-52,0,-106,-69,-36,-5
-2,59,12,194,44,-23,-107,-132,-116,35
-10,47,34,216,103,-59,-150,-128,-117,27
43,44,32,92,15,-92,-142,-80,-21,19
56,79,53,23,-63,-67,-80,-66,7,54
41,84,46,19,-71,-47,-3,-93,-40,49
8,53,48,49,-28,-46,67,-99,-140,56
-36,-15,-34,-22,-35,-2,222,-28,-126,22
-19,-53,-130,-131,-15,109,328,66,-90,18
9,-80,-132,-164,-19,114,315,106,-58,45
-3,-71,-123,-126,3,91,261,124,8,35
-119,-129,-127,29,43,83,180,103,124,-39
-69,-77,-42,35,-57,-53,-15,-39,39,15
24,-101,-86,-43,-143,-278,-418,-145,-383,72
68,-124,-159,-86,-127,-353,-652,-221,-602,91
33,-47,-68,-50,-9,-155,-373,-218,-130,96
-30,-62,-25,-11,42,-56,-196,-173,-67,40
-59,5,15,71,105,11,-31,-89,121,3
-67,13,19,67,79,-9,-12,-27,118,-16
-83,15,76,87,15,-58,-13,9,102,-62
-82,22,91,23,-29,-12,29,-29,56,-59
-86,-22,-22,-146,-80,28,63,-77,84,-51
-72,-43,-75,-240,-112,49,71,-50,172,-16
-113,-95,-103,-209,-81,66,53,-52,158,-31
-156,-147,-132,-101,-30,12,-53,-104,-108,-48
-138,-92,-82,-75,-79,15,-15,-74,-47,11
-95,-74,-123,-125,-117,35,50,12,75,11
-34,-46,-65,-96,-50,15,37,85,169,96
-32,4,48,-31,27,-44,-37,5,170,99
-46,39,121,1,53,-53,-41,-139,115,-42
-68,25,118,20,-22,-74,32,-104,62,-85
-55,40,32,-6,-60,-39,153,16,64,-49
126,152,28,-23,3,38,251,168,264,177
186,175,-1,34,87,68,218,188,362,317
62,90,-40,-19,10,56,93,20,224,135
-8,-5,-128,-149,-50,46,-15,-58,24,11
-72,-96,-208,-148,11,16,-109,-59,-105,28
-134,-92,-186,15,91,-47,-142,-122,35,-70
-74,-16,-115,1,15,-123,-209,-163,90,-72
-13,56,-44,-5,-11,-43,-95,-90,158,-21
-15,91,10,64,23,20,-8,-90,129,-35
10,128,64,93,-2,-51,-49,-80,112,20
58,172,141,139,-9,-70,-57,-66,160,30
99,217,264,246,7,-24,25,-30,159,28
133,258,346,353,49,36,95,28,175,51
108,226,325,388,82,71,123,-51,139,36
94,171,262,275,58,44,123,-110,10,-18
33,122,189,98,2,-14,76,-175,-114,-120
-107,-1,13,-126,-45,-22,51,-208,-209,-243
-151,-102,-169,-241,-5,5,25,-73,-181,-236
-47,-104,-259,-197,3,-37,-91,138,-250,-39
5,-4,-104,78,77,-20,-49,167,-154,105
-37,-22,51,237,120,87,276,127,-11,-1
-81,-50,88,207,92,188,494,288,61,-15
-133,-78,79,167,134,230,479,279,-86,-110
-116,-171,-15,-89,83,152,180,167,-699,-152
-6,-58,-30,-219,35,217,288,235,-350,-45
82,69,-16,-260,-69,216,347,386,198,97
78,37,-96,-232,24,124,102,378,270,157
8,-11,-100,43,291,34,-157,57,61,69
27,31,-49,142,326,-28,-224,-128,-81,21
-6,7,-49,104,219,-157,-286,-75,-60,5
-9,-29,-41,37,108,-252,-326,5,-13,27
41,23,20,10,73,-219,-235,-1,-28,124
74,68,42,-5,55,-107,-51,71,5,201
95,92,15,57,58,-22,60,93,50,151
94,121,45,107,28,-11,74,39,-4,101
83,120,93,105,-10,-31,20,-17,-99,81
60,114,55,102,25,-37,-28,-44,-180,138
38,77,-5,23,4,-82,-125,-97,-213,118
24,33,-35,-76,-74,-152,-213,-185,-275,25
37,7,-34,-91,-82,-104,-153,-160,-254,-12
42,-7,-17,-53,-46,-7,-18,-86,-180,-17
51,1,-25,-41,-30,41,57,-41,-140,13
33,0,-50,-17,-24,30,84,-49,-154,42
22,-20,-36,55,30,-1,25,-103,-164,6
50,-118,-133,-40,-26,-120,-229,-140,-635,11
33,-190,-159,-118,-95,-156,-335,-156,-940,-6
0,-45,65,-4,-79,-8,14,-118,-281,-29
15,22,131,-1,-119,-50,65,-82,-156,-80
21,21,131,-24,-130,-35,135,-3,-145,-62
-43,-39,72,-69,-111,-1,169,24,-186,-14
-49,-66,-16,-142,-95,18,153,8,-114,-19
25,-98,-156,-144,-36,64,180,-2,19,-16
39,-135,-277,-11,72,96,177,-78,19,-25
40,-88,-187,-22,18,48,111,-200,18,-46
54,-14,-21,-35,-28,-13,-8,-249,47,-18
58,17,55,-60,-72,-31,-38,-103,131,-47
129,29,75,-73,-73,-23,-65,68,242,27
137,-19,19,-121,-62,-55,-191,231,43,52
35,-192,-55,-186,-129,-151,-435,143,-651,-74
-78,-134,14,0,-95,-22,-138,-10,-195,-138
-175,-147,35,133,-23,-21,-55,-101,12,-158
-137,-123,57,149,3,-10,-14,-65,89,-129
-51,-48,113,181,-26,42,39,-83,84,-165
-48,-56,74,115,-103,-21,-23,-101,49,-174
7,-122,-54,-25,-109,-70,-171,-6,-263,-131
56,-215,-226,-210,-168,-148,-283,98,-580,-6
62,-91,-136,-229,-173,-4,93,131,121,86
18,-103,-138,-318,-190,32,155,7,175,-30
38,-47,-33,-194,-157,59,145,-88,108,-51
-3,-71,16,-76,-78,84,116,-191,39,-112
-118,-145,-43,-60,-7,76,56,-290,-70,-196
-82,-102,-23,-68,-12,47,-17,-347,-117,-140
-27,-52,24,-22,-34,-13,-104,-353,-74,-89
-29,-32,69,54,2,-18,-104,-152,61,-95
-15,8,105,94,49,45,-32,98,185,-64
-7,18,100,64,37,34,9,89,82,-30
-8,2,59,-30,0,41,70,104,27,5
51,3,-45,-134,30,150,136,241,219,99
172,45,-54,-67,97,236,151,357,396,184
164,29,-57,-8,105,232,131,320,323,186
106,-39,-79,-104,-5,107,74,249,46,117
83,-1,-16,-108,-57,67,191,251,138,90
68,-8,17,-102,-62,36,80,215,17,60
61,35,54,21,34,22,-54,30,-47,99
47,69,27,126,100,14,-90,-38,2,137
21,37,36,120,79,-76,-191,19,0,68
31,58,43,66,64,-146,-304,38,16,72
117,148,102,31,67,-155,-378,8,63,174
172,177,147,13,32,-138,-332,-15,101,162
161,116,177,61,-8,-168,-360,-69,-95,87
124,99,151,147,-6,-120,-281,-66,-120,24
88,100,74,204,25,-62,-139,-70,-40,-23
27,5,-37,130,52,-56,-143,-101,-84,-90
-15,-58,-198,22,57,-49,-143,-118,-93,-114
0,-29,-185,-77,41,-11,-60,-89,-65,-95
-28,-27,-226,-122,30,48,8,-82,-124,-112
-86,-116,-235,-177,-51,35,-19,-52,-322,-147
-65,-109,-119,-152,-118,19,-7,-4,-276,-136
-21,-11,-59,-36,-71,49,53,-20,-63,-123
-35,3,-117,22,-13,39,48,-18,-58,-39
19,56,-88,23,-8,12,28,-9,-20,11
152,156,79,13,-16,25,10,6,48,104
216,181,97,-29,-21,26,-31,-17,105,86
150,117,60,-54,-74,-16,-53,-43,106,19
107,85,56,-74,-155,-64,4,-10,87,-12
54,8,4,-83,-160,-96,-27,-15,-32,-49
-30,-74,-44,-57,-56,-104,-118,-71,-213,-113
-35,-22,3,51,96,-14,-58,-103,-80,-112
13,-34,-8,52,173,30,-85,-86,-165,-68
65,0,2,51,148,87,70,-33,86,-20
61,-2,-7,45,84,101,115,-14,140,28
32,-18,-45,21,32,97,131,-36,121,65
-33,11,-5,55,41,-34,-8,-91,44,-116
-27,-19,-58,27,56,-79,-74,-102,-164,-119
-19,-166,-137,-102,9,-205,-386,-78,-867,-129
12,-183,-60,-128,-41,-235,-476,36,-975,-95
-2,-115,8,-88,-71,-131,-324,74,-552,-53
-50,6,97,11,-59,-5,19,35,195,-22
-78,-3,97,52,-65,-31,2,-83,213,-52
-51,7,110,49,-69,-59,-75,-210,161,-52
12,72,188,108,-38,-47,-117,-275,110,-1
51,125,200,149,3,22,1,-232,46,67
69,124,108,97,17,82,133,-193,39,134
31,60,65,50,7,79,172,-194,-65,62
-2,33,61,-12,-45,34,148,-184,-191,-105
-19,-32,-99,-186,-121,-14,120,-246,-222,-138
-50,-113,-347,-310,-147,0,159,-302,-179,-82
-75,-128,-310,-194,-64,26,182,-231,-82,-16
-68,-96,-153,-36,27,22,155,65,137,10
-27,-23,-37,7,72,42,96,372,371,-1
19,21,31,18,102,54,-12,524,471,56
80,52,72,56,99,43,-106,467,474,153
69,55,112,151,132,66,-40,387,393,170
9,40,167,257,101,20,-33,143,212,75
-22,32,163,253,1,-29,-42,31,112,-1
-18,50,173,208,-41,11,65,42,70,-17
-36,23,100,119,-74,36,190,89,13,-34
-67,-21,8,2,-134,48,261,134,-2,-60
-9,-17,-104,-112,-112,124,326,233,48,22
-68,-155,-346,-192,-28,113,263,172,11,12
-189,-257,-370,-179,18,-4,64,12,-166,-58
-129,-195,-279,-247,-58,-37,-2,-11,-147,-92
16,-60,-179,-237,-83,-19,27,61,-8,15
140,62,-62,-3,0,-107,-112,26,49,112
191,98,21,165,61,-234,-284,-90,14,146
155,90,78,189,43,-283,-339,-174,-68,92
147,79,93,135,27,-228,-295,-220,-122,88
183,78,4,27,-18,-113,-121,-155,-64,217
196,53,-125,-75,-56,-40,-7,-24,83,194
-10,-80,-107,73,77,0,-29,147,-50,-7
-29,-33,90,185,112,49,19,57,22,-55
-33,-112,87,74,36,-72,-250,26,-496,-86
-37,-171,31,-18,-45,-214,-436,-3,-797,-71
-8,18,132,66,-87,-147,-155,-45,-22,-80
-9,51,182,30,-98,-111,-73,-13,122,-25
-7,18,142,12,-73,-27,6,56,272,32
-12,7,137,72,-19,12,53,45,320,43
-51,0,160,256,83,41,90,-46,205,-17
-50,2,139,200,82,53,125,-118,82,10
-88,-33,61,-14,-42,50,115,-168,-9,-5
15,7,-27,-198,-94,127,231,183,186,-56
31,-26,-75,-67,55,154,172,137,63,-47
-47,-157,-210,-73,87,42,18,117,-140,-72
-9,-252,-215,-139,-12,-205,-415,95,-790,-43
-68,-61,16,138,75,74,44,-59,-79,17
-149,-218,-66,-30,-41,14,-97,-27,-616,-142
-144,-190,-145,-40,-100,84,177,0,-391,-213
-97,-43,73,100,-21,162,395,15,155,-161
-56,-34,93,63,-8,114,353,54,137,-39
8,-95,68,27,-35,-23,59,86,-213,73
191,156,156,20,-33,-112,-259,70,315,134
212,167,3,-123,-30,-72,-240,100,490,186
137,78,-142,-171,-44,-108,-265,-56,313,120
14,-111,-167,-290,-139,-295,-553,-264,-393,-18
-33,11,-72,-189,-174,-7,117,-246,-11,-48
-93,-9,-42,-110,-127,39,284,-290,-105,-105
-125,-204,-229,-305,-69,77,166,-73,-620,-169
-82,-71,-238,-174,37,264,409,158,141,-70
-130,-153,-243,-124,170,165,57,256,25,-94
-62,-141,-41,57,378,-1,-384,264,-224,-79
59,104,178,194,408,-19,-319,284,177,41
159,58,130,-2,198,-120,-506,240,-275,223
97,129,89,-4,-27,-98,-4,-8,312,187
83,49,29,-80,-38,-142,-109,31,25,195
20,-115,-61,-193,-92,-192,-334,76,-532,88
-60,-14,21,-27,-33,38,14,-103,29,-84
-68,44,-7,56,-48,43,146,-58,343,-75
-40,44,-41,32,-64,8,87,-27,166,-48
-58,99,234,97,-32,125,227,-20,119,-80
12,128,161,23,-59,151,252,105,181,-3
0,31,41,-42,-74,64,72,151,-59,2
-43,-59,-62,-29,-53,-44,-155,24,-354,-62
-25,57,-51,-202,-94,14,152,-24,354,9
-16,38,-93,-201,-45,20,175,31,349,52
-70,-92,-84,-136,-9,-62,-15,-12,-55,-16
-49,-168,-50,-163,-37,-123,-169,-39,-505,-54
-18,-24,36,-22,47,-13,57,-44,-52,-24
-68,-48,-27,51,115,0,49,-71,-22,5
-140,-60,-61,62,42,-17,88,-87,88,-47
-110,-13,95,80,-39,-59,28,-116,69,-95
-8,57,109,124,-23,16,131,-92,123,-37
-19,-14,11,-21,-50,21,160,-110,-32,-18
4,-107,-128,-191,-43,109,255,-5,-134,68
-31,-249,-171,-176,-10,53,83,0,-598,106
-123,-50,55,245,49,81,188,-135,176,-42
-161,-75,-18,127,26,25,77,-104,91,-151
-233,-211,-191,-186,-85,-50,-106,-31,-237,-267
-216,-335,-300,-448,-236,-217,-483,-109,-811,-269
-20,1,-55,-148,-142,6,-50,-248,205,-12
-39,-13,-81,-110,-130,-18,-36,-311,109,-45
-92,-88,-100,-128,-166,-91,-97,-309,-155,-77
-133,-233,-165,-266,-236,-214,-257,-204,-803,-109
-166,-97,-179,-161,-145,-29,182,97,108,-142
-140,-93,-141,-159,-75,10,100,163,167,-158
-98,-74,-133,-110,-66,-87,-109,122,143,-117
-61,-172,-201,-133,-104,-316,-559,-77,-485,-130
-15,-54,-46,-35,-74,-251,-410,-103,-189,-102
33,87,70,22,-75,-110,-123,-55,303,-43
39,110,75,0,-82,-115,-120,-85,262,32
23,87,37,14,-74,-136,-172,-146,106,2
-25,-16,-75,-30,-82,-161,-232,-176,-96,-98
-49,-19,50,150,2,-60,-2,-38,176,-60
-67,8,126,289,42,-16,67,-13,247,-73
-83,-59,75,184,-5,-98,-111,-59,-127,-109
-100,-141,-3,21,-53,-202,-309,-158,-503,-159
-113,-13,-42,-208,-114,-53,6,-151,252,-78
-16,10,-158,-438,-190,76,153,12,417,71
100,-21,-190,-361,-125,107,123,94,154,171
10,-185,-197,-150,49,18,-150,-78,-563,51
20,61,-40,17,76,176,264,-286,154,20
2,44,-100,34,37,133,269,-218,152,-50
19,5,-42,-31,-77,-8,145,-114,-89,-6
90,-32,37,-77,-124,-155,-112,-4,-569,108
204,256,243,131,93,93,201,603,639,323
209,241,208,153,125,136,207,618,688,331
125,121,178,130,104,128,92,264,224,155
32,-27,187,56,19,-41,-261,-5,-525,-12
8,170,286,149,-49,-46,14,-179,207,-67
-72,135,217,95,-57,-56,23,-158,172,-127
-51,104,163,25,-62,-69,-14,-82,29,-127
41,-35,-36,-193,-101,-152,-211,17,-468,-42
79,55,-73,62,159,192,328,339,473,153
17,44,-27,107,206,189,250,228,273,82
20,-26,-60,18,171,165,100,67,-121,29
11,-73,-81,-21,146,134,15,-14,-260,17
-91,-45,-62,39,104,162,128,-28,7,26
-52,-19,-33,91,142,183,193,93,232,37
10,-48,33,125,233,131,52,162,34,8
174,250,341,342,147,364,354,392,494,161
111,168,212,288,126,281,170,258,153,57
37,9,30,54,69,146,-31,117,-140,-25
8,-156,-183,-339,-61,-31,-278,-9,-469,-66
33,-48,-82,-149,-56,-68,-148,-83,69,-63
16,12,44,39,32,-95,-98,-78,153,-60
21,4,85,108,90,-133,-194,-76,-49,-62
58,-43,19,67,64,-170,-306,-46,-405,-69
38,92,98,156,-65,-76,64,-75,241,-106
-26,31,79,8,-187,-121,24,-152,186,-123
-118,-69,-39,-86,-96,-145,-100,-201,-93,-167
-170,-200,-30,-116,25,-229,-433,-251,-763,-239
-159,-49,166,134,154,-115,-251,-250,-293,-224
-125,45,257,266,181,-69,-182,-213,-182,-127
-63,140,245,225,-14,-17,-12,-149,79,29
-6,154,164,56,-300,-36,76,-142,57,96
-3,64,35,2,-288,-45,111,-104,29,123
59,18,-153,30,-52,147,275,7,358,189
14,-38,-195,-3,50,158,246,102,352,166
-3,-84,-177,-141,-32,27,80,448,255,104
36,-197,-278,-378,-140,-119,-231,463,-408,49
91,83,-35,-125,0,192,255,203,289,48
111,65,14,-128,-50,139,221,155,261,69
147,20,-1,-221,-121,43,11,115,-33,80
143,11,21,-228,-136,11,-106,109,-137,104
50,62,-20,-16,1,147,164,20,335,70
34,45,-4,99,66,125,170,-35,276,55
0,-114,-75,57,52,27,-30,-79,-173,7
