(0.543457031, -0.0637207, -0.14239502, 0.824768066)
(0.5419922, -0.06335449, -0.141235352, 0.825927734)
(0.5415039, -0.06304932, -0.140563965, 0.826416)
(0.5415039, -0.06304932, -0.140563965, 0.826416)
(0.5415039, -0.06304932, -0.140563965, 0.826416)
(0.5415039, -0.06304932, -0.140563965, 0.826416)
(0.541931152, -0.06262207, -0.137939453, 0.826660156)
(0.542602539, -0.0629272461, -0.135498047, 0.8265381)
(0.542602539, -0.0629272461, -0.135498047, 0.8265381)
(0.5425415, -0.0628051758, -0.133911133, 0.826843262)
(0.5425415, -0.0628051758, -0.133911133, 0.826843262)
(0.5428467, -0.0629272461, -0.132751465, 0.826843262)
(0.5428467, -0.0629272461, -0.132751465, 0.826843262)
(0.5430908, -0.06317139, -0.132080078, 0.8267822)
(0.5430908, -0.06317139, -0.132080078, 0.8267822)
(0.5430908, -0.06317139, -0.132080078, 0.8267822)
(0.5430908, -0.06317139, -0.132080078, 0.8267822)
(0.544677734, -0.0639648438, -0.13079834, 0.8258667)
(0.5453491, -0.06427002, -0.129882813, 0.8255615)
(0.5453491, -0.06427002, -0.129882813, 0.8255615)
(0.5453491, -0.06427002, -0.129882813, 0.8255615)
(0.5453491, -0.06451416, -0.129394531, 0.825622559)
(0.54486084, -0.06524658, -0.1293335, 0.8258667)
(0.5439453, -0.0659790039, -0.1293335, 0.826416)
(0.5439453, -0.0659790039, -0.1293335, 0.826416)
(0.5439453, -0.0659790039, -0.1293335, 0.826416)
(0.5437012, -0.06677246, -0.1293335, 0.8265381)
(0.543640137, -0.06768799, -0.129150391, 0.8265381)
(0.543640137, -0.06768799, -0.129150391, 0.8265381)
(0.543640137, -0.06768799, -0.129150391, 0.8265381)
(0.543640137, -0.06768799, -0.129150391, 0.8265381)
(0.543640137, -0.0686035156, -0.129150391, 0.826416)
(0.5437622, -0.06976318, -0.1293335, 0.8262329)
(0.5439453, -0.07043457, -0.129272461, 0.8260498)
(0.5439453, -0.07043457, -0.129272461, 0.8260498)
(0.5439453, -0.07043457, -0.129272461, 0.8260498)
(0.5441284, -0.07092285, -0.129089355, 0.825927734)
(0.5446167, -0.0713501, -0.129272461, 0.8255005)
(0.545166, -0.07183838, -0.1296997, 0.825073242)
(0.5452881, -0.0720214844, -0.130004883, 0.8249512)
(0.5452881, -0.0720214844, -0.130004883, 0.8249512)
(0.54486084, -0.0721435547, -0.130432129, 0.8251343)
(0.54486084, -0.0721435547, -0.130432129, 0.8251343)
(0.5442505, -0.07232666, -0.131164551, 0.8253784)
(0.5442505, -0.07232666, -0.131164551, 0.8253784)
(0.5442505, -0.07232666, -0.131164551, 0.8253784)
(0.543640137, -0.0725708, -0.131713867, 0.8256836)
(0.543334961, -0.07269287, -0.132385254, 0.8257446)
(0.543334961, -0.07269287, -0.132385254, 0.8257446)
(0.543334961, -0.07269287, -0.132385254, 0.8257446)
(0.543334961, -0.07269287, -0.132385254, 0.8257446)
(0.543396, -0.07287598, -0.133361816, 0.8255615)
(0.543396, -0.07299805, -0.133789063, 0.825439453)
(0.543396, -0.07299805, -0.133789063, 0.825439453)
(0.543457031, -0.07299805, -0.134277344, 0.8253784)
(0.543151855, -0.07299805, -0.13458252, 0.8255005)
(0.543151855, -0.07299805, -0.13458252, 0.8255005)
(0.543151855, -0.07299805, -0.13458252, 0.8255005)
(0.54296875, -0.07299805, -0.134765625, 0.825622559)
(0.54296875, -0.07299805, -0.134765625, 0.825622559)
(0.54296875, -0.07299805, -0.1350708, 0.8255615)
(0.54296875, -0.07287598, -0.135314941, 0.8255615)
(0.54296875, -0.07287598, -0.135314941, 0.8255615)
(0.5430298, -0.0727539063, -0.135620117, 0.825439453)
(0.5430298, -0.0727539063, -0.135620117, 0.825439453)
(0.5430298, -0.0727539063, -0.135620117, 0.825439453)
(0.543151855, -0.0727539063, -0.135742188, 0.8253174)
(0.543151855, -0.0727539063, -0.135742188, 0.8253174)
(0.543151855, -0.07269287, -0.136047363, 0.8253174)
(0.543151855, -0.07269287, -0.136047363, 0.8253174)
(0.543151855, -0.07269287, -0.136047363, 0.8253174)
(0.5430908, -0.0727539063, -0.1362915, 0.8253174)
(0.5432129, -0.07269287, -0.136413574, 0.8251953)
(0.5432129, -0.07269287, -0.136413574, 0.8251953)
(0.5432129, -0.07269287, -0.136413574, 0.8251953)
(0.5432129, -0.07269287, -0.136413574, 0.8251953)
(0.543151855, -0.07269287, -0.136413574, 0.8251953)
(0.543151855, -0.07269287, -0.136413574, 0.8251953)
(0.5432129, -0.0726318359, -0.136413574, 0.8251953)
(0.5432129, -0.0726318359, -0.136413574, 0.8251953)
(0.5432129, -0.0726318359, -0.136413574, 0.8251953)
(0.543457031, -0.0726318359, -0.136413574, 0.825073242)
(0.543457031, -0.0726318359, -0.136413574, 0.8250122)
(0.543457031, -0.0726318359, -0.136413574, 0.825073242)
(0.543457031, -0.0726318359, -0.136413574, 0.825073242)
(0.543457031, -0.0726318359, -0.136413574, 0.825073242)
(0.5437622, -0.07232666, -0.135864258, 0.8249512)
(0.5437622, -0.07232666, -0.135864258, 0.8249512)
(0.5437622, -0.07232666, -0.135864258, 0.8249512)
(0.5437622, -0.07232666, -0.135864258, 0.8249512)
(0.5437622, -0.07232666, -0.135864258, 0.8249512)
(0.544189453, -0.07196045, -0.135375977, 0.824768066)
(0.544555664, -0.0720214844, -0.135314941, 0.824584961)
(0.544555664, -0.0720214844, -0.135314941, 0.824584961)
(0.544677734, -0.0718994141, -0.135192871, 0.8245239)
(0.54486084, -0.07183838, -0.13494873, 0.8244629)
(0.54486084, -0.07183838, -0.13494873, 0.8244629)
(0.545105, -0.0718994141, -0.1348877, 0.8242798)
(0.545105, -0.0718994141, -0.1348877, 0.8242798)
(0.545105, -0.0718994141, -0.1348877, 0.8242798)
(0.545105, -0.0718994141, -0.1348877, 0.8242798)
(0.5452881, -0.07183838, -0.134765625, 0.82421875)
(0.5452881, -0.07183838, -0.134765625, 0.82421875)
(0.5452881, -0.07183838, -0.134765625, 0.8241577)
(0.5452881, -0.07183838, -0.134765625, 0.8241577)
(0.5455322, -0.07159424, -0.1348877, 0.824035645)
(0.545593262, -0.0713501, -0.135009766, 0.8239746)
(0.545593262, -0.0713501, -0.135009766, 0.8239746)
(0.545776367, -0.07104492, -0.1352539, 0.823852539)
(0.545776367, -0.07104492, -0.1352539, 0.823852539)
(0.545715332, -0.07080078, -0.135192871, 0.8239136)
(0.545776367, -0.0706176758, -0.135375977, 0.823852539)
(0.545776367, -0.0706176758, -0.135375977, 0.823852539)
(0.545776367, -0.0706176758, -0.135375977, 0.823852539)
(0.545776367, -0.0706176758, -0.135375977, 0.823852539)
(0.545898438, -0.0703125, -0.135375977, 0.8237915)
(0.545898438, -0.0703125, -0.135375977, 0.8237915)
(0.5461426, -0.0702514648, -0.135375977, 0.823669434)
(0.5461426, -0.0702514648, -0.135375977, 0.823669434)
(0.5461426, -0.0702514648, -0.135375977, 0.823669434)
(0.5461426, -0.0702514648, -0.135375977, 0.823669434)
(0.5461426, -0.0703125, -0.135375977, 0.823669434)
(0.5461426, -0.0703125, -0.135375977, 0.8236084)
(0.5461426, -0.0703125, -0.135375977, 0.8236084)
(0.5461426, -0.0703125, -0.135375977, 0.8236084)
(0.5461426, -0.0703125, -0.135375977, 0.8236084)
(0.5462036, -0.0703125, -0.135375977, 0.8236084)
(0.5462036, -0.0703125, -0.135375977, 0.8236084)
(0.5462036, -0.0703125, -0.135314941, 0.8236084)
(0.5462036, -0.0703125, -0.135375977, 0.8236084)
(0.5462036, -0.0703125, -0.135375977, 0.8236084)
(0.5462036, -0.0703735352, -0.135314941, 0.8236084)
(0.5462036, -0.0703735352, -0.135314941, 0.8236084)
(0.5462036, -0.0703735352, -0.135314941, 0.8236084)
(0.5462036, -0.0703735352, -0.135314941, 0.8236084)
(0.5463867, -0.0703125, -0.135498047, 0.8234863)
(0.5463867, -0.0703125, -0.135498047, 0.8234863)
(0.546630859, -0.07019043, -0.135559082, 0.8233032)
(0.546630859, -0.07019043, -0.135559082, 0.8233032)
(0.546630859, -0.07019043, -0.135559082, 0.8233032)
(0.546630859, -0.07019043, -0.135559082, 0.8233032)
(0.546875, -0.0701293945, -0.135742188, 0.8231201)
(0.546875, -0.0701293945, -0.135803223, 0.8231201)
(0.546875, -0.0701293945, -0.135803223, 0.8231201)
(0.546875, -0.0701293945, -0.135803223, 0.8231201)
(0.546875, -0.0701293945, -0.135803223, 0.8231201)
(0.547119141, -0.07006836, -0.135864258, 0.822937)
(0.547119141, -0.07006836, -0.135864258, 0.822937)
(0.547302246, -0.0698852539, -0.135986328, 0.822814941)
(0.547302246, -0.0698852539, -0.135986328, 0.822814941)
(0.547485352, -0.06976318, -0.136047363, 0.8226929)
(0.547485352, -0.06958008, -0.1362915, 0.822631836)
(0.547485352, -0.06958008, -0.1362915, 0.822631836)
(0.547485352, -0.06958008, -0.1362915, 0.822631836)
(0.547485352, -0.06958008, -0.1362915, 0.822631836)
(0.547485352, -0.06958008, -0.1362915, 0.822631836)
(0.5476074, -0.0692749, -0.136474609, 0.8225708)
(0.5476074, -0.0692749, -0.136474609, 0.8225708)
(0.5476074, -0.0692749, -0.136474609, 0.8225708)
(0.5476074, -0.0692749, -0.136474609, 0.8225708)
(0.5476074, -0.0692749, -0.136474609, 0.8225708)
(0.5475464, -0.0690918, -0.136657715, 0.822631836)
(0.5475464, -0.0690918, -0.13671875, 0.822631836)
(0.5475464, -0.0690918, -0.13671875, 0.822631836)
(0.5475464, -0.0690918, -0.13671875, 0.822631836)
(0.5475464, -0.0690918, -0.13671875, 0.822631836)
(0.5475464, -0.06903076, -0.13671875, 0.8225708)
(0.5474243, -0.06878662, -0.136657715, 0.8226929)
(0.5474243, -0.06878662, -0.136657715, 0.8226929)
(0.5474243, -0.06878662, -0.136657715, 0.8226929)
(0.5474243, -0.06878662, -0.136657715, 0.8226929)
(0.547485352, -0.06878662, -0.136657715, 0.8226929)
(0.5476074, -0.06854248, -0.13659668, 0.822631836)
(0.5476074, -0.06854248, -0.13659668, 0.822631836)
(0.5476074, -0.06854248, -0.13659668, 0.822631836)
(0.5476074, -0.06854248, -0.136657715, 0.822631836)
(0.5476074, -0.06854248, -0.136657715, 0.8225708)
(0.5476074, -0.06854248, -0.136657715, 0.8225708)
(0.5476074, -0.06854248, -0.136657715, 0.8225708)
(0.5476074, -0.06854248, -0.136657715, 0.8225708)
(0.5476074, -0.06854248, -0.136657715, 0.8225708)
(0.5476074, -0.06854248, -0.136657715, 0.8225708)
(0.547851563, -0.06842041, -0.136352539, 0.822509766)
(0.547851563, -0.06842041, -0.136352539, 0.822509766)
(0.5479126, -0.0684814453, -0.1361084, 0.822509766)
(0.5479126, -0.06842041, -0.135742188, 0.8225708)
(0.5479126, -0.06842041, -0.135742188, 0.8225708)
(0.5479126, -0.068359375, -0.135742188, 0.8225708)
(0.5479126, -0.068359375, -0.135742188, 0.8225708)
(0.548034668, -0.0682373047, -0.135559082, 0.822509766)
(0.548034668, -0.0682373047, -0.135559082, 0.822509766)
(0.548034668, -0.0681152344, -0.135314941, 0.8225708)
(0.5480957, -0.0679931641, -0.135131836, 0.8225708)
(0.5480957, -0.0679931641, -0.135131836, 0.8225708)
(0.548034668, -0.06793213, -0.13494873, 0.822631836)
(0.548034668, -0.06793213, -0.13494873, 0.822631836)
(0.5482788, -0.0678710938, -0.134765625, 0.822509766)
(0.5482788, -0.0678710938, -0.134765625, 0.822509766)
(0.5482788, -0.0678710938, -0.13482666, 0.822509766)
(0.5484009, -0.06762695, -0.134765625, 0.82244873)
(0.5484009, -0.06762695, -0.134765625, 0.82244873)
(0.5484009, -0.06762695, -0.134765625, 0.82244873)
(0.5484009, -0.06762695, -0.134765625, 0.82244873)
(0.5484619, -0.06762695, -0.134765625, 0.82244873)
(0.5484619, -0.06762695, -0.134765625, 0.82244873)
(0.5484619, -0.06762695, -0.134765625, 0.82244873)
(0.5484619, -0.06762695, -0.134765625, 0.82244873)
(0.5484619, -0.06762695, -0.134765625, 0.8223877)
(0.5484619, -0.06762695, -0.134765625, 0.8223877)
(0.5484619, -0.06762695, -0.134765625, 0.82244873)
(0.548522949, -0.06762695, -0.134765625, 0.8223877)
(0.548522949, -0.06762695, -0.134765625, 0.8223877)
(0.548522949, -0.06762695, -0.134765625, 0.8223877)
(0.548522949, -0.06762695, -0.134765625, 0.8223877)
(0.5484009, -0.06768799, -0.13482666, 0.82244873)
(0.5482178, -0.06768799, -0.13482666, 0.8225708)
(0.5482178, -0.06768799, -0.13482666, 0.8225708)
(0.5482178, -0.06768799, -0.13482666, 0.8225708)
(0.5482178, -0.06768799, -0.13482666, 0.8225708)
(0.5482178, -0.06768799, -0.13482666, 0.8225708)
(0.5482178, -0.06768799, -0.13482666, 0.8225708)
(0.5482178, -0.06768799, -0.13482666, 0.8225708)
(0.5482178, -0.06768799, -0.13482666, 0.8225708)
(0.5482178, -0.06774902, -0.13482666, 0.8225708)
(0.5482178, -0.06774902, -0.13482666, 0.8225708)
(0.5482178, -0.06774902, -0.13482666, 0.8225708)
(0.5482178, -0.06768799, -0.13482666, 0.8225708)
(0.5482178, -0.06768799, -0.13482666, 0.8225708)
(0.5482178, -0.06768799, -0.13482666, 0.8225708)
(0.5482178, -0.06768799, -0.13482666, 0.8225708)
(0.5482788, -0.06768799, -0.13482666, 0.8225708)
(0.5482788, -0.06768799, -0.13482666, 0.822509766)
(0.5482788, -0.06768799, -0.13482666, 0.822509766)
(0.5482788, -0.06768799, -0.13482666, 0.822509766)
(0.5482788, -0.06768799, -0.13482666, 0.822509766)
(0.5482788, -0.06768799, -0.13482666, 0.822509766)
(0.5482788, -0.06768799, -0.13482666, 0.822509766)
(0.5482788, -0.0678710938, -0.13494873, 0.822509766)
(0.5482788, -0.0678710938, -0.13494873, 0.822509766)
(0.5484009, -0.0680542, -0.135131836, 0.8223877)
(0.5484009, -0.0680542, -0.135131836, 0.8223877)
(0.548584, -0.0682373047, -0.135192871, 0.8222656)
(0.548584, -0.0682373047, -0.135192871, 0.8222656)
(0.548706055, -0.068359375, -0.1352539, 0.822143555)
(0.548706055, -0.068359375, -0.1352539, 0.8220825)
(0.548706055, -0.068359375, -0.1352539, 0.8220825)
(0.548706055, -0.068359375, -0.1352539, 0.8220825)
(0.548706055, -0.068359375, -0.1352539, 0.8220825)
(0.5487671, -0.06829834, -0.1352539, 0.8220825)
(0.5487671, -0.06829834, -0.1352539, 0.8220825)
(0.5487671, -0.06829834, -0.135314941, 0.8220825)
(0.5487671, -0.06829834, -0.135314941, 0.8220825)
(0.5487671, -0.06829834, -0.135314941, 0.8220825)
(0.549072266, -0.068359375, -0.135498047, 0.8218384)
(0.549072266, -0.068359375, -0.135498047, 0.8218384)
(0.549072266, -0.06829834, -0.135498047, 0.8218384)
(0.549072266, -0.06829834, -0.135498047, 0.8218384)
(0.549072266, -0.06829834, -0.135498047, 0.8218384)
(0.549072266, -0.06829834, -0.135498047, 0.8218384)
(0.549072266, -0.0679931641, -0.135681152, 0.8218384)
(0.5491333, -0.06768799, -0.1359253, 0.821777344)
(0.5491333, -0.06768799, -0.1359253, 0.821777344)
(0.549377441, -0.06732178, -0.1361084, 0.821594238)
(0.549377441, -0.06732178, -0.1361084, 0.821594238)
(0.549194336, -0.06677246, -0.136230469, 0.821777344)
(0.549194336, -0.06677246, -0.136230469, 0.821777344)
(0.5484619, -0.06616211, -0.136413574, 0.8222656)
(0.5484619, -0.06616211, -0.136413574, 0.8222656)
(0.5476074, -0.06530762, -0.136535645, 0.822876)
(0.5476074, -0.06530762, -0.136535645, 0.822876)
(0.546813965, -0.0643310547, -0.136657715, 0.8234863)
(0.546447754, -0.06347656, -0.137023926, 0.823730469)
(0.546447754, -0.06347656, -0.137023926, 0.823730469)
(0.546630859, -0.0628051758, -0.1373291, 0.8236084)
(0.546630859, -0.0628051758, -0.1373291, 0.8236084)
(0.5470581, -0.0623168945, -0.1375122, 0.8233032)
(0.5473633, -0.0619506836, -0.137695313, 0.8231201)
(0.5473633, -0.0619506836, -0.137695313, 0.8231201)
(0.5474243, -0.06188965, -0.137695313, 0.8230591)
(0.547302246, -0.0618286133, -0.137756348, 0.8231201)
(0.547302246, -0.0618286133, -0.137756348, 0.8231201)
(0.5473633, -0.0618286133, -0.137695313, 0.8231201)
(0.5473633, -0.0618286133, -0.137695313, 0.8231201)
(0.5473633, -0.0618286133, -0.137695313, 0.8231201)
(0.5474243, -0.0620727539, -0.137817383, 0.8230591)
(0.5474243, -0.0620727539, -0.137817383, 0.8230591)
(0.547485352, -0.06237793, -0.137878418, 0.822998047)
(0.547485352, -0.06237793, -0.137878418, 0.822998047)
(0.547485352, -0.0626831055, -0.137878418, 0.822937)
(0.547485352, -0.0626831055, -0.137878418, 0.822937)
(0.5476074, -0.06311035, -0.137878418, 0.822814941)
(0.5476074, -0.06311035, -0.137878418, 0.822814941)
(0.5477295, -0.06365967, -0.137939453, 0.8226929)
(0.547973633, -0.0640869141, -0.137878418, 0.822509766)
(0.547973633, -0.0640869141, -0.137878418, 0.822509766)
(0.547973633, -0.06451416, -0.137817383, 0.82244873)
(0.547973633, -0.06451416, -0.137817383, 0.82244873)
(0.5477905, -0.0648193359, -0.137756348, 0.8225708)
(0.547485352, -0.06500244, -0.137817383, 0.822814941)
(0.547485352, -0.06500244, -0.137817383, 0.822814941)
(0.547485352, -0.06512451, -0.137878418, 0.8227539)
(0.547485352, -0.06512451, -0.137878418, 0.8227539)
(0.547485352, -0.06512451, -0.137878418, 0.8227539)
(0.547485352, -0.06512451, -0.137878418, 0.8227539)
(0.547485352, -0.06512451, -0.137878418, 0.8227539)
(0.547485352, -0.06512451, -0.137878418, 0.8227539)
(0.547485352, -0.06512451, -0.137878418, 0.8227539)
(0.547485352, -0.06512451, -0.137878418, 0.8227539)
(0.5475464, -0.06512451, -0.137878418, 0.8227539)
(0.5475464, -0.06512451, -0.137817383, 0.8227539)
(0.5475464, -0.06512451, -0.137817383, 0.8227539)
(0.5475464, -0.06518555, -0.137817383, 0.8227539)
(0.5475464, -0.06518555, -0.137817383, 0.8227539)
(0.5475464, -0.06518555, -0.137817383, 0.8227539)
(0.5475464, -0.06518555, -0.137817383, 0.8227539)
(0.5475464, -0.06512451, -0.137817383, 0.8227539)
(0.5475464, -0.06512451, -0.137817383, 0.8227539)
(0.5477905, -0.06524658, -0.138000488, 0.8225708)
(0.5477905, -0.06524658, -0.138000488, 0.8225708)
(0.5479126, -0.06518555, -0.1381836, 0.82244873)
(0.5479126, -0.06518555, -0.1381836, 0.82244873)
(0.5479126, -0.06518555, -0.1381836, 0.82244873)
(0.547851563, -0.06512451, -0.1383667, 0.82244873)
(0.547851563, -0.06512451, -0.1383667, 0.82244873)
(0.547851563, -0.06506348, -0.1383667, 0.82244873)
(0.547851563, -0.06506348, -0.1383667, 0.82244873)
(0.547851563, -0.06506348, -0.1383667, 0.82244873)
(0.547851563, -0.06506348, -0.1383667, 0.82244873)
(0.548034668, -0.06506348, -0.13848877, 0.8222656)
(0.5482788, -0.06500244, -0.13861084, 0.822143555)
(0.5482788, -0.06500244, -0.13861084, 0.822143555)
(0.5484009, -0.0648193359, -0.13861084, 0.8220215)
(0.5484009, -0.0648193359, -0.13861084, 0.8220215)
(0.5484619, -0.0648193359, -0.13861084, 0.8220215)
(0.5484619, -0.0648193359, -0.13861084, 0.8220215)
(0.5484009, -0.0645751953, -0.13861084, 0.8220825)
(0.548522949, -0.06439209, -0.13873291, 0.821960449)
(0.548522949, -0.06439209, -0.13873291, 0.821960449)
(0.548522949, -0.06439209, -0.13873291, 0.821960449)
(0.548522949, -0.06439209, -0.13873291, 0.821960449)
(0.548706055, -0.06414795, -0.13873291, 0.8218994)
(0.548706055, -0.06414795, -0.13873291, 0.8218994)
(0.548706055, -0.06414795, -0.13873291, 0.8218994)
(0.548706055, -0.06384277, -0.138671875, 0.8218994)
(0.548706055, -0.06384277, -0.138671875, 0.8218994)
(0.548706055, -0.06347656, -0.13861084, 0.821960449)
(0.548706055, -0.06347656, -0.13861084, 0.821960449)
(0.548706055, -0.06317139, -0.1385498, 0.8220215)
(0.548706055, -0.06317139, -0.1385498, 0.8220215)
(0.548645, -0.06286621, -0.13848877, 0.8220825)
(0.548645, -0.06286621, -0.13848877, 0.8220825)
(0.548645, -0.0628051758, -0.13848877, 0.8220215)
(0.548706055, -0.0628051758, -0.13848877, 0.8220215)
(0.548706055, -0.0628051758, -0.13848877, 0.8220215)
(0.548706055, -0.0628051758, -0.13848877, 0.8220215)
(0.548706055, -0.0628051758, -0.13848877, 0.8220215)
(0.548706055, -0.0628051758, -0.13848877, 0.8220215)
(0.548706055, -0.0628051758, -0.13848877, 0.8220215)
(0.548522949, -0.0628051758, -0.1383667, 0.8222046)
(0.548522949, -0.0628051758, -0.1383667, 0.8222046)
(0.5482178, -0.06274414, -0.138244629, 0.8223877)
(0.5482178, -0.06274414, -0.138244629, 0.8223877)
(0.5480957, -0.06274414, -0.138244629, 0.822509766)
(0.548034668, -0.0628051758, -0.138061523, 0.822509766)
(0.548034668, -0.0628051758, -0.138061523, 0.822509766)
(0.5480957, -0.0628051758, -0.138061523, 0.822509766)
(0.5480957, -0.0628051758, -0.138061523, 0.822509766)
(0.5480957, -0.06286621, -0.138061523, 0.822509766)
(0.5480957, -0.06286621, -0.138061523, 0.822509766)
(0.5480957, -0.06286621, -0.138061523, 0.822509766)
(0.5477905, -0.0628051758, -0.138000488, 0.8227539)
(0.5477905, -0.0628051758, -0.138000488, 0.8227539)
(0.5475464, -0.0628051758, -0.138000488, 0.822876)
(0.5475464, -0.0628051758, -0.138000488, 0.822876)
(0.5475464, -0.06286621, -0.138000488, 0.822876)
(0.5475464, -0.06286621, -0.138000488, 0.822876)
(0.5476074, -0.06286621, -0.138000488, 0.822876)
(0.5476074, -0.06286621, -0.138000488, 0.822876)
(0.5476074, -0.06286621, -0.138000488, 0.822814941)
(0.547485352, -0.0628051758, -0.138061523, 0.822876)
(0.547485352, -0.0628051758, -0.138061523, 0.822876)
(0.547485352, -0.0628051758, -0.138061523, 0.822876)
(0.547485352, -0.0628051758, -0.138061523, 0.822876)
(0.5471802, -0.06274414, -0.138122559, 0.8231201)
(0.5471802, -0.06274414, -0.138122559, 0.8231201)
(0.5471802, -0.06274414, -0.138122559, 0.8231201)
(0.5473633, -0.0628051758, -0.138305664, 0.822937)
(0.5473633, -0.0628051758, -0.138305664, 0.822937)
(0.547668457, -0.0628051758, -0.1383667, 0.8227539)
(0.547668457, -0.0628051758, -0.1383667, 0.8227539)
(0.547668457, -0.0628051758, -0.1383667, 0.8226929)
(0.547668457, -0.0628051758, -0.1383667, 0.8226929)
(0.5474243, -0.06274414, -0.138427734, 0.822876)
(0.5474243, -0.06274414, -0.138427734, 0.822876)
(0.546936035, -0.0625, -0.13848877, 0.823181152)
(0.546936035, -0.0625, -0.13848877, 0.823181152)
(0.546630859, -0.06237793, -0.138671875, 0.8234253)
(0.546630859, -0.0623168945, -0.138671875, 0.8234253)
(0.546630859, -0.0623168945, -0.138671875, 0.8234253)
(0.5467529, -0.06225586, -0.138793945, 0.8233032)
(0.5467529, -0.06225586, -0.138793945, 0.8233032)
(0.5467529, -0.06225586, -0.138793945, 0.8233032)
(0.5467529, -0.06225586, -0.138793945, 0.8233032)
(0.5467529, -0.06225586, -0.138793945, 0.8233032)
(0.5465088, -0.0620727539, -0.13873291, 0.8234863)
(0.5465088, -0.0620727539, -0.13873291, 0.8234863)
(0.5465088, -0.0620727539, -0.13873291, 0.8234863)
(0.5463867, -0.0618286133, -0.138793945, 0.823547363)
(0.5463867, -0.0618286133, -0.13885498, 0.823547363)
(0.5463867, -0.0618286133, -0.13885498, 0.823547363)
(0.5463867, -0.0618286133, -0.13885498, 0.8236084)
(0.5463867, -0.0618286133, -0.13885498, 0.8236084)
(0.5463867, -0.0618286133, -0.13885498, 0.8236084)
(0.5462036, -0.0617675781, -0.13873291, 0.823730469)
(0.5462036, -0.0617675781, -0.13873291, 0.823730469)
(0.5462036, -0.0617675781, -0.13873291, 0.823730469)
(0.5462036, -0.0617675781, -0.13873291, 0.823730469)
(0.5462036, -0.0617675781, -0.13873291, 0.823730469)
(0.5462036, -0.0617675781, -0.13873291, 0.823730469)
(0.5463867, -0.0615234375, -0.138671875, 0.8236084)
(0.5463867, -0.0615234375, -0.138671875, 0.8236084)
(0.5463257, -0.061340332, -0.13848877, 0.823730469)
(0.5463257, -0.061340332, -0.13848877, 0.823730469)
(0.546447754, -0.06121826, -0.138305664, 0.823669434)
(0.5465698, -0.0610351563, -0.138061523, 0.8236084)
(0.5465698, -0.0610351563, -0.138061523, 0.8236084)
(0.5466919, -0.06085205, -0.137756348, 0.8236084)
(0.5466919, -0.06085205, -0.137756348, 0.8236084)
(0.5466919, -0.06048584, -0.137634277, 0.823669434)
(0.5467529, -0.06011963, -0.1375122, 0.823730469)
(0.5467529, -0.06011963, -0.1375122, 0.823730469)
(0.546875, -0.0598144531, -0.1375122, 0.823669434)
(0.546875, -0.0598144531, -0.1375122, 0.823669434)
(0.546813965, -0.059387207, -0.1373291, 0.823730469)
(0.546813965, -0.059387207, -0.1373291, 0.823730469)
(0.546813965, -0.0587768555, -0.137451172, 0.8237915)
(0.546813965, -0.0587768555, -0.137451172, 0.8237915)
(0.546875, -0.05810547, -0.1375122, 0.823730469)
(0.546875, -0.05810547, -0.1375122, 0.823730469)
(0.5469971, -0.0575561523, -0.137756348, 0.823669434)
(0.5471802, -0.05718994, -0.137939453, 0.823547363)
(0.5471802, -0.05718994, -0.137939453, 0.823547363)
(0.5474243, -0.0568847656, -0.1381836, 0.823364258)
(0.5474243, -0.0568847656, -0.1381836, 0.823364258)
