36,15,0,-2,-5,79,0,60
20,1,4,4,20,21,29,25
-30,-6,-5,-5,-13,-106,-43,-59
28,9,2,3,20,111,31,39
-6,-4,-5,12,19,-103,0,68
22,14,15,-5,-57,-53,-36,-13
-46,-21,-3,-4,11,-22,-44,-64
2,4,4,3,-2,25,5,8
7,-4,-11,-8,0,-52,-17,-9
-39,11,26,11,37,31,19,9
96,9,-10,5,20,64,60,83
61,-5,-11,-2,17,-125,23,15
-2,-15,-18,-23,-75,82,-88,-42
17,-1,5,3,27,-106,76,-34
6,6,6,-3,-34,37,-36,7
-36,9,6,15,64,94,6,23
-11,5,13,14,14,66,29,-8
-35,-22,-28,-8,3,20,39,-41
28,3,7,8,26,60,-62,43
-24,4,2,3,45,127,45,-34
-42,-8,-13,-26,-56,-100,7,-120
-52,9,-11,-6,6,120,-9,63
57,-8,9,10,35,53,74,62
-7,-15,-12,-14,-38,37,-29,-51
-15,4,-1,11,3,38,47,5
1,-12,-10,-8,-16,-12,67,12
-60,-4,-12,-17,-25,-68,-55,-29
55,19,16,5,-33,10,-52,-2
-13,-10,2,8,32,83,50,49
-27,-10,-5,1,17,-46,-5,-9
-32,-4,2,-4,6,-96,3,-3
3,5,-8,-7,-78,-128,26,-66
19,4,12,-3,7,-9,14,3
1,-15,6,9,34,127,-11,36
-74,18,6,6,7,-61,-11,-11
45,-18,-21,1,8,54,-61,-18
28,12,6,0,-10,-86,-91,-26
52,8,2,5,5,54,82,23
1,-31,0,-25,-34,-5,-19,-101
-70,20,-5,-1,-8,84,65,45
-17,-11,-4,8,29,28,107,34
-50,-16,-10,-11,3,44,-128,-128
80,9,2,14,1,-19,71,63
-21,2,7,-6,-26,-104,-51,48
6,-4,-7,2,41,103,-52,37
-2,11,-4,-3,-16,4,-95,-26
-18,-6,-11,-11,-51,-92,4,-19
18,-12,2,-5,12,-75,23,-15
-23,2,-5,2,11,54,53,-16
3,13,15,15,15,-17,-10,-10
-32,-18,-16,-22,-55,-49,-25,-8
64,-2,-2,0,40,43,127,33
14,4,22,26,29,37,-48,64
60,8,19,-7,-32,-79,48,-92
49,-8,-56,-11,4,5,39,62
15,-2,4,-5,20,83,1,-23
-14,0,-16,-10,0,-76,36,19
-16,-1,-4,-10,-22,-41,-45,41
62,22,27,21,46,47,14,24
-93,-18,-27,1,-9,-65,68,-18
-7,-2,-7,2,14,55,67,-11
-15,-14,-10,-19,-23,-126,-66,-42
-36,9,8,-1,-5,4,-21,-11
20,14,6,0,9,-65,2,-2
-31,-27,-12,-23,-45,-16,-73,-57
29,3,-9,14,45,51,17,33
-29,5,20,18,32,118,39,-4
-10,12,9,-8,-26,-114,-116,2
5,-13,-3,3,18,35,86,36
-8,0,-1,-10,-60,16,-72,-3
-15,12,20,19,27,20,46,-52
-4,7,23,12,4,48,3,27
33,0,-28,-12,-4,40,24,21
-14,3,7,16,23,102,-42,5
-66,-11,-8,-15,-18,-66,-35,-76
44,-5,-2,-2,-16,7,66,90
-37,2,5,-2,-1,71,-75,-74
16,0,3,6,-10,-121,44,-26
105,-2,-23,-14,4,72,0,112
-13,-2,-1,2,12,69,-37,-5
58,29,45,31,27,-54,66,89
-71,-3,-15,-10,-9,37,110,5
-45,-28,-15,-17,21,48,-31,6
-49,-18,-10,-15,-30,-14,-17,-37
13,3,-4,-8,-10,91,100,-27
25,0,-6,1,-11,45,-9,39
-72,-4,12,10,29,87,-33,-43
29,2,-2,1,18,54,81,18
-46,-9,-10,-18,-64,-124,-125,-82
17,-3,-5,-10,-9,-66,106,-11
-1,-6,-7,-4,-24,20,-45,-25
29,12,32,21,41,19,8,8
15,-1,-47,-16,-44,-83,68,23
65,-14,-15,-14,-26,1,-89,4
-46,9,16,13,9,-36,34,-44
64,24,33,31,43,-41,58,77
-28,3,7,-3,3,-121,-66,-59
6,-11,-4,-8,1,25,-36,57
-22,17,11,14,4,5,56,92
-39,-17,-19,-14,-18,47,-35,-56
49,5,2,3,29,47,-43,30
-73,-7,-5,-9,-26,74,2,-56
-3,-5,1,-1,1,42,7,-60
-2,-2,-17,-18,-26,36,-67,-3
3,1,10,7,24,-13,31,-6
11,7,11,8,16,30,25,30
37,-2,-4,-13,-55,-49,-95,-19
-67,-5,8,14,5,13,-61,-118
22,1,8,8,15,25,33,58
20,14,17,10,4,-54,26,25
-38,-4,-1,-6,-10,-71,46,-41
11,-13,-13,-11,-9,-6,4,76
-35,-5,-5,-11,-5,21,-8,2
-17,-10,-9,-9,-2,-40,61,-42
18,6,6,10,49,56,-42,28
-2,-10,-17,-14,-60,-128,-39,-34
-39,4,0,-2,13,120,24,-34
-5,-13,-6,-3,-1,118,19,26
24,4,-2,1,0,-2,44,10
55,-5,-8,-1,14,40,-60,-9
-16,3,13,4,0,-7,41,46
-56,4,-5,8,16,-31,-55,-91
36,9,44,7,-6,-49,-6,75
-35,-10,-23,-8,-6,-118,-21,-83
29,-4,3,7,-23,-48,24,-11
31,7,6,1,3,21,-53,93
27,4,3,7,15,85,6,15
-11,6,5,4,4,15,87,-47
1,-4,-5,-5,4,-11,9,-6
-42,3,-7,-6,-2,-117,13,-17
20,-17,-13,-6,-10,-5,35,-6
0,10,-1,-9,-19,127,11,41
-36,-13,-2,-2,1,5,-32,-31
21,-7,-4,-10,-24,29,37,3
-7,0,-10,-1,3,-19,42,6
6,-3,5,3,19,53,67,1
-4,14,14,-1,-13,30,44,-6
-31,-21,-33,-8,12,6,-3,57
-23,-2,-8,-7,-15,72,-77,-64
1,2,11,8,24,-105,55,2
15,-4,-12,-12,-21,14,31,-13
17,1,10,5,15,47,117,8
-67,-9,-12,-13,-34,19,1,-111
23,-4,-9,-8,-10,28,-10,98
22,4,3,-2,3,3,-31,-5
62,5,6,-3,-15,8,-27,27
-91,-5,-1,5,12,12,36,-74
11,10,12,7,5,35,28,12
0,-16,-19,-16,-10,-25,-45,39
74,12,8,11,15,-1,-23,13
-26,-7,8,1,-16,-4,39,68
-34,-12,-15,-18,-21,-54,-31,-45
-10,4,3,11,19,-66,-21,-23
1,1,11,7,29,36,-19,-16
48,9,3,4,-10,-68,-36,35
-17,-12,-5,-6,-8,-49,38,35
3,4,-2,-1,-7,83,-24,-25
-38,2,10,3,-6,-33,11,-26
45,4,-3,7,13,55,38,28
26,-2,-2,-3,-3,93,-34,1
-56,-7,-1,1,-3,-100,-22,-46
38,0,-3,-2,-2,112,6,-18
14,-1,8,-11,1,45,65,30
-3,-1,-6,1,-5,-25,12,-6
17,1,10,4,9,29,-1,51
-34,0,-2,3,8,44,8,0
7,-7,-10,-6,0,12,51,-18
25,0,-1,-3,2,30,-24,-1
-18,4,5,2,-11,-38,57,-14
-26,3,-1,-3,-13,-15,10,-19
28,-3,-10,-2,-1,-23,18,38
-8,-3,2,0,6,-93,-39,-19
-38,-5,-2,1,2,73,-15,-79
73,10,8,15,22,79,51,85
-28,-11,-17,-17,-22,-84,-80,-51
-72,2,5,6,-4,-34,17,-67
-6,-9,1,1,13,105,-10,55
-36,0,-3,-6,-18,-71,79,-35
2,7,-5,-1,6,9,58,-3
38,-3,1,-2,-1,10,-35,68
23,13,2,7,22,9,45,44
-51,-11,2,1,-9,-62,-30,-30
12,-1,-6,4,10,38,-3,24
-18,4,43,7,7,15,-61,-58
14,-5,-37,-3,2,-52,-40,45
16,-3,-6,-9,-28,-110,-11,18
9,3,2,9,18,99,28,-13
-15,3,-1,1,4,68,4,1
36,11,20,10,8,38,34,6
-33,-9,-6,-7,-1,13,-46,7
5,-1,0,2,11,33,67,21
21,-2,-14,-10,-26,-31,37,3
8,-4,-6,-9,-17,-17,-4,-18
8,6,6,6,9,20,5,-10
-28,0,0,-17,-43,-103,-63,-37
-7,-13,-9,2,11,95,58,18
-5,12,5,5,12,54,-31,-34
-47,-26,-16,-20,-29,-16,-94,-48
34,5,-4,-1,21,62,53,86
-62,-9,-8,-5,-20,-50,-8,-69
12,-3,-8,-12,1,-24,42,42
13,7,12,11,-4,17,-19,5
48,11,16,7,12,-30,18,-36
-30,3,-32,-7,-5,-45,-17,-63
3,-14,6,0,-2,67,30,19
-18,3,-3,-1,-4,-51,7,-48
-12,-1,17,6,-3,31,-85,24
122,3,-28,-7,-2,-65,-38,123
-91,-11,2,1,-6,75,-70,-76
5,1,-5,-1,17,-1,4,1
-37,-12,-14,-16,-40,11,-89,-25
15,11,22,7,5,28,-23,-24
36,-4,-5,-6,-24,12,3,54
3,-5,-8,-7,-3,-7,38,3
-20,-3,-8,-5,-4,2,-20,-44
15,5,6,1,-1,64,-41,50
9,-5,-3,-2,3,33,21,-36
1,6,14,9,-2,-21,41,-7
13,0,-5,8,29,4,77,37
-20,-8,-2,-4,-1,28,-24,-12
-25,1,5,-1,-14,-100,-10,-23
68,1,-3,-1,13,29,12,55
-82,-5,-2,2,12,-1,23,-45
9,6,6,6,22,-37,102,-14
25,3,2,2,10,-37,93,40
1,0,-4,-4,-17,-50,-29,-29
8,-1,2,3,-16,-27,-12,-18
3,2,4,-1,1,34,30,32
-6,0,-3,-1,7,52,-45,-13
-14,-8,-10,-10,-18,-9,85,-27
30,-10,-13,-10,-4,-18,-35,24
-3,13,18,21,23,-24,84,37
-5,-7,-6,-8,-9,-42,11,-36
-21,-4,-2,0,4,91,26,-9
5,4,6,8,8,52,43,24
43,-4,-5,-3,-14,-37,23,23
-13,5,0,-1,-8,17,-35,-16
-72,-11,-4,-1,17,70,-24,15
27,6,-2,-4,-13,22,10,10
-17,-14,-13,-6,-9,-19,2,-20
10,0,3,-4,7,-19,-24,-6
7,7,3,-2,-11,18,38,2
-9,-7,-2,0,5,-15,1,-54
-4,-1,-2,-2,-4,46,-8,36
13,-2,-5,-3,-7,2,-13,11
8,-2,-7,-3,16,127,58,33
-1,-3,-6,-6,-23,-128,-29,-18
-47,-8,-4,-6,2,116,-11,-87
-14,-5,-7,2,1,-43,-85,0
-12,0,-5,-11,-29,-81,51,7
26,5,0,-1,1,-16,28,19
-4,-12,-3,-5,-8,13,-51,-38
-30,-5,2,3,16,15,72,23
12,6,9,10,9,53,0,1
-39,-4,-3,-6,-20,-55,-27,-69
11,-1,0,-3,4,13,8,81
23,-3,-6,-8,-14,22,-2,-25
18,4,2,5,8,-64,-39,-3
-3,1,3,3,5,-47,56,24
-41,-2,1,1,10,57,21,-96
23,3,1,-4,-33,-90,19,78
-11,-3,-2,0,14,45,-30,-4
50,-1,-5,-8,-9,54,-38,5
-48,3,3,2,6,0,82,-7
29,-3,0,5,5,-65,32,-12
35,0,0,1,2,6,-6,66
-46,-1,3,1,18,23,13,-20
25,9,2,-2,-10,36,-24,8
-19,-5,2,2,2,50,13,-24
0,-1,6,3,-19,-67,-23,10
13,4,-18,2,12,12,-20,22
-14,-12,-32,-6,-3,4,2,8
13,-3,9,0,2,-42,-32,30
13,0,-4,4,13,-62,9,-24
37,2,11,5,6,31,-60,1
-36,-5,-5,-4,-23,-85,34,49
31,10,-1,1,7,5,-49,-68
19,-6,-3,-4,12,1,9,36
-42,-9,-3,-5,-15,-36,-58,-36
33,13,26,12,37,-9,22,34
-36,-5,-39,-6,-30,-67,-26,-23
-10,-5,0,-5,-18,19,-2,-22
-7,2,10,1,4,2,-19,5
-3,-6,-10,0,14,42,-42,-84
-14,0,5,-8,-38,-67,-47,-33
-3,3,-1,-1,7,-10,-4,-35
-3,-2,-12,-6,-8,-1,-8,16
1,-1,9,1,0,-33,-6,44
10,4,9,2,13,53,36,16
-13,-2,-5,-10,-12,6,-46,-21
38,0,0,3,2,-41,28,7
0,6,3,-7,-23,-11,-3,8
-36,-7,2,2,5,66,21,-13
0,-5,-10,-3,2,112,16,8
-2,5,8,8,11,50,83,24
6,-4,-2,-5,-2,54,65,-16
31,-2,-1,1,6,-14,60,62
5,7,7,3,-3,-53,-18,-8
-1,1,-2,-3,5,74,4,2
-14,-6,4,4,-13,-67,-23,-35
-13,2,6,4,18,114,-63,-37
7,4,15,7,17,-9,-16,0
-12,-12,-11,-8,-17,-70,-45,1
55,8,6,3,-9,-42,-128,-10
-53,-1,3,1,11,15,-17,-15
-44,-9,-5,-9,-2,39,-27,-76
32,5,1,3,-2,84,48,59
-3,3,2,2,-3,59,13,11
32,1,-2,-3,2,27,-13,-1
24,10,1,4,-3,-48,0,38
-64,-16,-4,-4,1,21,-18,-63
7,-5,-4,-2,11,32,-43,-46
-40,8,14,10,7,11,94,-3
24,0,-14,-5,-6,5,20,59
20,-5,-11,-8,-16,51,-1,-12
28,1,10,8,8,-57,3,34
19,1,-3,-8,-10,-31,13,-12
-22,-4,0,1,4,40,9,-39
46,7,7,-1,3,-31,42,41
-81,5,6,8,10,69,-52,-41
25,-3,-7,-4,0,-47,46,26
2,-3,1,3,1,-58,8,-10
6,4,1,-2,3,36,16,-1
5,0,-12,-2,1,-47,21,65
61,1,0,2,-13,-28,-45,1
-55,-3,7,3,4,-34,-18,-17
20,17,24,7,-10,2,98,6
-87,-15,-9,-6,2,48,17,-121
64,4,-4,-8,-13,56,-50,75
18,4,2,6,14,36,6,-15
-28,-4,2,5,4,11,-19,-22
59,5,2,2,5,-74,4,27
-119,-12,-7,-3,5,65,5,-48
-2,-3,-3,-6,-18,-12,6,-18
-15,-1,-5,1,13,8,-19,6
13,2,-4,-6,-16,-49,7,10
26,0,0,-3,0,-54,-82,-27
28,4,5,7,15,81,22,29
-34,-6,-8,-6,-15,-45,9,-13
25,-1,-5,-9,-8,-51,11,26
2,4,10,4,8,-19,32,-28
-23,-4,-3,-5,-9,-47,-57,-16
-8,0,5,3,14,14,18,-4
22,-5,-17,-4,0,30,99,-39
12,7,-3,0,-12,-48,107,54
-37,-15,-10,-12,-1,32,34,3
-29,-18,-5,-2,5,57,-18,-19
-16,1,1,-6,-23,-86,-37,-13
-53,6,6,4,16,47,-11,-114
37,-5,-10,-1,8,120,52,24
26,1,-5,-5,-12,-24,-11,17
9,2,6,8,19,63,40,13
89,-1,-8,-6,-30,-80,8,40
-71,0,5,0,-17,81,33,-71
8,0,-4,-4,15,59,19,-27
-37,-3,-4,-7,-12,-75,-19,72
34,-10,-7,-7,-1,33,20,58
26,6,11,-7,-12,-43,-68,2
-32,-7,-8,4,-8,-31,-18,-5
7,-2,-4,-7,-4,59,6,0
-53,-7,-1,1,25,32,39,-25
40,7,1,-1,-12,-90,-55,7
20,-4,-3,-5,2,15,-13,-19
2,-5,-3,-9,-14,-60,12,0
-35,-3,-8,-3,3,45,-20,-16
12,-6,-1,-4,-3,-49,-4,-8
-25,4,-7,2,15,26,11,-13
-31,-5,1,-1,-38,-42,-39,-79
49,3,1,-4,-4,-4,9,76
36,5,0,8,20,58,34,43
-24,-6,-2,0,2,5,10,0
3,2,6,4,13,98,-1,-17
-23,-3,-1,4,-1,-30,-23,-16
4,1,-1,1,-4,-40,1,15
14,0,-3,-5,-6,24,-6,51
-8,1,6,7,-1,49,-14,-65
-14,-5,-4,-3,0,21,-51,29
30,3,-6,-2,-12,-5,40,-9
-37,4,7,1,-4,28,17,-43
-32,-10,-6,-3,17,87,25,30
-33,3,6,8,13,42,17,-19
13,-3,-4,-4,-12,-74,-35,10
22,1,4,2,-3,-25,-9,35
33,8,8,-2,1,11,-37,-4
-17,-7,-10,-3,1,3,17,13
-61,-8,1,2,3,8,-20,-32
3,2,1,7,13,14,39,-4
-55,-8,-1,-10,-35,-53,75,-68
49,-4,-4,-7,-20,-118,-51,11
3,5,-2,2,19,39,29,-23
-7,1,3,-8,-28,-102,-20,7
7,2,0,5,12,15,-1,39
-29,-1,1,3,8,78,14,-34
-21,1,-2,3,6,6,-24,-7
43,1,2,4,10,-6,-17,1
1,-6,-5,-2,-3,-18,-16,36
-3,-1,-4,-3,-4,-30,13,-7
6,1,-4,-3,-10,-40,49,-3
-18,-16,-22,-8,-3,-1,-21,-33
40,11,9,8,18,8,-31,52
21,2,19,-1,0,-25,16,-19
-30,-9,-31,-5,2,64,37,35
12,4,3,-3,-10,36,6,-17
24,2,-5,3,12,28,-5,1
-55,-3,-6,-5,-11,-8,1,-67
-2,-10,4,-5,-1,-39,-28,80
-1,0,1,-4,-2,59,57,-10
33,0,-4,0,-2,-37,-48,19
-27,-2,4,4,2,50,79,-11
-2,0,3,-1,-21,-41,-40,-62
-10,-3,-2,-1,7,50,21,-11
22,-3,-5,-6,1,24,46,43
13,-1,-4,-3,-1,12,-2,4
20,5,6,3,7,-3,5,-11
4,-1,0,1,5,-17,-14,51
-57,-4,-1,-6,-19,-43,-30,-51
1,-1,-7,-1,-8,-48,-26,-21
21,-4,-13,-3,15,75,6,3
15,16,14,-3,-14,-107,-44,26
-82,-10,-2,-3,-4,98,-13,-86
30,-7,-27,-12,4,7,20,89
-10,7,11,11,12,18,13,-18
-22,3,4,8,11,24,66,-6
106,10,-2,5,-15,-102,-37,1
-63,-15,-5,-4,5,33,4,-69
-45,-9,-26,-6,-14,41,-86,-15
27,6,9,16,33,20,-27,48
22,4,2,-15,2,-49,42,44
27,4,0,0,-9,-12,-74,-24
11,3,9,-2,-10,-97,-66,-26
-9,-5,0,-3,-16,65,41,-14
-34,-13,-11,4,18,59,-33,45
19,6,6,-2,3,21,31,29
-19,-10,-5,-13,-8,45,-12,-39
4,-8,-5,-7,-21,-46,-48,-38
7,7,5,11,10,66,41,26
-16,-4,8,8,11,-32,31,-28
28,12,16,10,5,36,49,58
24,-11,-16,-11,-15,-37,-9,48
39,-4,-6,-6,-1,-22,-22,-44
-8,5,10,7,14,30,0,42
14,-4,3,-5,-2,8,30,2
0,1,2,2,21,-39,8,-15
-13,-8,-9,-9,-25,5,-4,14
19,-1,-3,1,3,-11,-10,-14
-2,-1,5,-4,-5,29,8,35
-35,-3,-8,0,13,-16,32,-17
13,6,9,4,2,72,32,-14
31,3,2,0,-4,-33,-113,-1
-55,-10,-8,-7,-12,-58,26,0
20,4,2,2,0,40,-15,30
2,3,0,4,5,12,-10,-5
0,-1,1,-3,-9,12,62,16
-16,-12,-5,0,4,57,13,-59
-7,1,-4,-9,-22,43,-38,-26
-21,-10,-6,-10,5,-21,28,-16
10,-4,-1,-1,-7,1,10,18
9,5,6,0,2,-19,-39,-14
3,-1,-2,3,-3,-80,-6,-2
22,-5,-4,0,3,56,-11,36
-72,-8,-2,-4,-9,33,-35,-78
27,13,0,0,-1,7,15,0
-34,-12,-7,-7,2,1,-14,42
9,3,8,6,0,-13,18,2
63,7,-16,5,-10,-56,-6,44
-62,-10,-1,-2,-1,39,-1,-41
14,6,4,1,-5,-78,-45,-62
-20,-1,-1,0,-2,-48,-64,20
-10,-3,-1,-7,1,72,45,-8
3,-5,5,6,5,11,2,23
7,-2,-12,0,7,99,76,19
-22,-4,13,-8,-9,-58,6,-35
13,4,4,2,1,-43,11,-6
33,2,4,3,5,-13,-33,33
-20,-5,3,0,-5,26,2,-17
-41,0,-9,-2,6,-29,2,-50
12,-4,0,-1,7,34,12,24
4,-1,-3,-3,-18,-90,2,-7
0,-4,-2,-5,-9,-32,-12,2
63,8,2,4,1,-36,-34,30
-58,-8,4,3,8,76,24,-65
22,-5,-13,-13,-26,-78,-24,16
5,7,4,2,6,21,40,8
1,-10,-10,-8,-6,-3,61,31
-3,3,4,2,2,11,10,-5
2,9,3,2,8,18,18,13
-26,-12,-1,0,-1,91,3,-86
19,10,2,4,7,21,21,80
-13,-5,-6,-2,-8,-31,-23,11
-14,0,-2,-4,7,63,-9,-32
9,-4,0,-4,-15,-87,-80,-7
50,5,6,6,12,-9,16,38
-18,-3,3,-1,4,69,-12,25
29,4,-24,6,4,-74,-52,-36
-59,-5,3,-7,-7,-22,16,34
5,-5,-4,-4,-7,60,19,51
15,-3,-2,-2,4,-43,15,13
3,2,7,0,-3,78,6,12
2,4,0,2,2,-43,3,-41
-26,-2,-8,0,1,15,1,-36
0,2,0,-4,-3,-25,-5,16
-9,-2,3,3,10,11,43,10
36,1,-5,-2,-5,-2,0,16
-27,-4,1,1,-5,-54,-14,-20
-42,0,2,-5,1,-41,5,-88
32,-3,-1,-2,-10,-14,39,80
16,1,1,1,5,21,-7,16
-2,-1,-6,-4,-1,-21,-9,-36
52,2,-2,3,12,77,-26,56
-67,-10,-1,-3,-9,0,-5,-50
-12,-1,-1,-2,-7,-28,9,3
4,4,0,-2,-3,75,2,4
-19,0,5,6,7,6,-23,-7
-12,-5,-2,-7,-11,42,33,-9
28,1,-4,-4,1,-28,-2,16
-15,2,5,8,12,42,-67,-13
16,1,-1,4,-3,-45,-5,14
-3,3,6,4,13,63,26,16
-19,-5,-8,-6,-6,6,-35,-35
12,4,9,12,9,10,17,-2
-37,-10,-8,-10,-3,66,9,-49
38,1,3,-1,8,67,-27,2
90,13,13,2,-8,22,25,33
-105,-23,-38,-7,-5,21,4,-47
35,-2,1,2,-4,-11,13,48
-27,8,30,7,-2,-43,22,-43
0,-3,-3,2,11,51,4,3
28,11,11,-7,-10,-38,-47,33
-62,-16,-20,-6,8,78,52,-15
6,-4,-13,-12,-29,-113,-2,-8
-25,-6,2,7,9,2,4,-1
4,0,3,-9,-36,-64,15,13
0,3,8,0,3,29,20,7
20,-6,-1,0,2,-19,0,22
-10,-2,-7,-4,5,5,-11,-2
-4,-2,-2,-1,-2,51,37,-38
62,6,1,-3,-6,-91,-30,59
-34,-1,-5,3,-2,-12,-7,11
-16,-3,-3,-6,-13,9,-4,-27
8,-5,-1,0,4,-13,25,13
22,10,5,-1,-9,-4,-9,-5
25,6,1,1,-12,-59,6,19
-40,-18,-4,-13,-6,-29,3,-20
9,3,5,0,1,-9,-30,16
-40,-7,1,-2,-18,0,-10,4
26,3,-7,0,4,-40,-16,-30
-30,0,24,7,17,127,32,28
-9,-4,-4,-2,4,-59,-86,-46
16,1,-4,-2,-2,-34,-19,-21
12,1,1,3,2,-34,15,50
-2,9,7,-1,-16,-36,-3,-4
26,-9,-31,-12,7,-1,24,21
-55,1,2,2,-6,-30,-25,-27
-10,-12,-9,-5,4,43,7,-42
16,3,0,4,0,-25,0,0
-18,-3,8,4,-3,7,17,-11
21,2,-12,-2,11,59,-17,-16
-9,-1,-3,-1,5,-14,12,-4
-1,-2,-8,-5,-9,-56,10,10
19,8,11,5,22,122,-8,21
-10,-7,-4,-9,-13,-57,24,-24
-38,-5,0,1,15,62,-17,-24
26,-1,-6,2,-11,-57,-7,25
-51,-3,4,0,-4,-78,10,-78
40,6,1,1,-3,-49,-13,57
2,-2,-4,-6,-5,47,-4,19
-11,5,-2,4,11,-32,-11,-14
46,0,-6,-6,-5,47,25,31
-43,-10,-1,-5,-2,60,-4,-52
26,6,16,1,-6,-30,9,43
-9,-2,-31,-2,9,4,26,6
-17,-6,1,-4,-24,6,-50,-3
21,2,0,-1,-9,-63,-36,1
1,-3,-3,1,10,40,-2,-9
13,2,4,-1,4,96,12,-1
-31,-13,-5,-3,4,23,-42,-30
5,-1,-2,2,7,-9,23,6
-14,0,2,5,3,25,-13,-19
26,5,7,4,4,-48,-14,5
5,3,2,2,1,-20,32,11
-35,-3,3,1,4,34,-8,-9
-1,-3,-5,-3,-7,-8,-15,-17
3,1,-2,-8,-5,-45,-18,-2
13,7,1,2,-6,-40,68,41
-1,-5,-2,-8,-18,18,-23,-64
19,-1,-7,-3,4,-26,22,-4
-24,-7,-3,1,-9,-9,-8,-42
39,4,19,3,11,-14,26,59
22,-1,-9,4,-10,-84,-22,24
-4,-1,1,-5,-12,9,-4,-17
-5,3,7,-6,-13,-89,-25,1
-40,3,-1,1,11,51,-12,-16
13,-5,-4,-7,-9,14,39,-4
-4,-5,-6,-1,11,44,-9,11
-3,-6,-5,-4,-5,31,68,9
-10,0,-5,-8,-21,-59,-35,-39
35,7,5,0,8,-19,9,41
-57,-3,-6,-2,-8,-48,-54,-44
17,-5,-4,-7,-2,43,-1,25
-53,-7,-2,1,4,20,14,-29
23,4,-2,-3,0,0,12,14
11,-3,1,-3,-4,4,19,-1
-2,5,2,4,6,15,-26,5
22,1,-4,-3,-13,-10,-5,-9
-1,-7,0,5,25,65,48,19
-39,2,-2,-11,-52,-57,-36,-20
-28,-6,0,4,16,68,-12,-60
38,-5,-15,5,16,35,46,76
-7,8,27,5,-5,29,24,10
28,1,-7,-5,11,-20,26,28
3,1,0,-1,-7,4,-27,3
-22,0,1,1,-4,-24,-8,-41
-4,-7,-6,-2,-1,-1,-17,15
5,11,6,11,13,-1,-9,22
32,-11,-2,-9,-21,-67,1,-6
-11,-5,6,1,14,37,28,0
-51,0,-7,2,-3,8,-49,-18
-3,3,-1,1,14,52,62,-3
-5,-2,-4,-6,-16,-90,-79,-6
36,1,0,-5,-9,0,3,-5
-9,-1,0,0,-4,49,9,9
2,-3,-6,-3,8,-32,3,-8
-17,0,5,3,7,27,4,0
-4,-1,2,0,-4,45,-14,3
14,1,-5,-9,-17,-128,-20,-12
7,0,1,8,13,68,0,6
-1,-4,-3,4,8,45,62,24
-12,-1,-2,-4,-13,-45,-64,-16
-15,-8,-11,-5,7,-5,-33,-52
27,-4,2,-3,-10,-3,11,13
-2,1,-3,0,-1,-17,37,8
-10,-4,-10,-9,-10,-1,-23,-23
65,10,12,4,3,26,7,28
-42,-10,1,-4,-7,-41,-19,-46
-23,-2,0,-3,-11,38,-11,-9
20,-4,-2,5,20,9,31,-20
63,11,-3,3,-4,-30,-19,19
-45,-6,-2,-1,13,40,3,-14
9,-3,-6,2,8,-28,-4,7
-9,1,4,1,-18,-32,12,5
13,7,1,-4,-10,-22,23,23
3,-9,-3,-7,-8,-53,-4,8
-14,-1,-2,-3,-5,44,-8,-20
-1,2,0,1,11,6,17,6
-27,-1,-2,3,13,49,-14,1
15,-3,-5,-3,-8,-27,-9,11
65,5,-3,-5,0,-38,-18,31
-58,-10,-3,-3,-4,-57,-5,-41
-21,-5,-2,2,5,8,8,-18
11,0,-1,-3,3,45,33,-8
25,0,0,-1,-6,-80,-34,60
21,6,-11,1,0,-16,50,68
5,-4,5,-1,-4,-24,-45,6
-29,-2,-2,0,6,29,-12,-20
-26,-2,0,2,0,-46,14,-43
12,1,-3,-4,-7,-51,-10,1
-26,-4,2,5,15,43,14,-16
60,10,1,1,-4,45,-10,33
-77,-17,-2,-3,-13,43,-8,-38
24,-1,-6,-4,4,69,-40,4
-18,-5,-1,-2,-11,11,20,-29
7,9,2,6,7,-14,14,72
15,-3,2,2,10,57,12,-4
7,3,3,-2,-6,-91,15,4
-20,-8,-4,-8,3,76,-22,-17
-9,-3,6,13,11,-84,-1,5
14,12,-4,-5,-39,-48,-19,-17
-5,0,4,-1,3,-37,-36,-14
-14,4,-1,-2,-7,-49,21,17
-15,-12,-7,-2,4,46,-14,-33
-10,7,-3,0,21,74,-15,5
3,-9,-8,1,-7,14,13,-2
-10,5,3,-5,-14,-1,-38,-16
25,-2,3,-1,-3,27,-15,3
-58,-10,-3,-6,-13,-102,38,-56
29,0,-2,-2,-6,58,-58,24
35,1,-5,5,12,41,37,19
-32,-8,-11,-11,-1,2,25,4
23,8,9,13,10,-39,-36,-21
-26,1,5,-1,-3,-27,11,-30
41,-4,-6,-1,9,23,17,24
-43,-1,2,-2,-9,-17,-36,-57
14,7,0,-3,1,30,-3,34
12,-4,-1,-4,3,32,10,29
-16,0,4,6,-5,-17,-15,-17
21,1,-2,-6,-20,6,14,-2
-12,0,0,-2,24,23,-3,-3
19,6,1,3,15,59,29,48
2,-11,-6,-4,-1,4,16,-46
-30,-2,1,8,0,14,-2,-14
15,-2,-7,-9,-7,-10,5,-11
7,0,14,1,17,40,6,-24
-22,2,-2,-1,-10,1,-50,-2
43,2,4,3,-5,-125,29,15
-18,-4,-10,-6,1,73,-72,14
18,-1,-2,5,12,23,14,18
-38,-15,-6,-3,-10,-39,14,-18
12,8,2,-1,-3,11,-11,45
19,-11,-5,5,21,0,26,8
-19,-3,-7,-8,-17,-32,3,-24
7,0,-1,-5,-4,5,13,-2
0,-3,-2,-4,7,19,-17,-9
10,8,7,4,-5,-26,31,48
-38,-5,-3,-4,-19,36,-7,-15
9,3,-3,0,15,58,31,25
4,-1,1,1,-3,19,-14,-8
24,-1,-1,-5,-8,-15,-13,-2
58,9,5,4,3,-40,32,29
-94,-8,-10,-2,-10,-94,-29,-60
24,2,3,-4,8,-13,4,3
-17,-3,3,3,3,34,4,-25
4,-5,-3,0,8,-5,2,30
23,0,-3,-3,-8,-47,15,-16
-2,-2,-6,-6,2,93,22,0
15,-3,-1,2,-24,-86,21,-5
-51,-6,-5,-6,-6,-26,-24,-63
21,1,1,0,-1,34,38,30
1,-3,-5,0,-3,-29,21,5
4,4,2,-7,-7,-23,-2,-9
-34,-3,2,5,3,43,-24,-33
22,-6,-1,-3,2,0,9,17
-13,-2,-5,-2,-1,-22,2,-59
-1,-5,-3,-1,1,37,43,26
-18,-2,-7,-5,-12,-51,-44,-24
25,3,1,-2,11,4,13,-9
-11,4,9,2,5,22,-3,45
-9,-3,1,5,7,-12,-7,1
2,-1,3,2,3,41,2,1
-6,-3,-2,-1,-13,-89,-19,-20
42,2,-3,-1,-5,-47,-56,24
-55,-4,4,7,17,-11,-19,-49
17,5,1,4,7,50,45,69
26,-1,-3,-4,8,-43,-57,22
-23,-8,-3,-4,-23,-16,2,-1
2,3,-2,-8,-1,14,11,-30
9,-1,-1,1,10,29,-44,2
-36,1,4,11,17,127,16,9
55,6,-6,-5,-15,-76,-5,16
-23,-9,-6,-8,-12,19,11,-2
2,-1,0,-4,-15,-35,-1,-61
4,4,1,1,9,62,30,56
5,-3,-6,1,7,40,-3,-6
29,2,8,7,-8,-42,-7,13
-44,-8,-4,-8,-33,-84,6,-46
-17,8,3,-1,12,-28,-1,-8
-16,-19,-3,6,-3,70,-6,-3
-19,2,-9,-5,10,-5,-19,-53
49,-2,-1,5,25,107,32,86
-13,1,4,3,-17,-46,23,-30
-21,1,1,-2,-1,-11,46,20
-1,8,-1,1,9,88,-2,-10
3,-2,6,11,19,39,3,-8
-3,-7,-11,-3,9,57,3,43
9,4,5,-8,-22,-48,-4,-11
15,-4,0,-6,40,1,18,18
11,13,3,9,13,39,4,-22
-59,-12,-10,-10,-15,-31,-16,-19
-13,-1,-11,3,9,11,-16,-49
-55,-24,0,-7,-10,70,3,34
7,-3,2,-8,-41,-69,-33,2
-4,4,5,4,5,14,0,-10
20,-2,-1,-2,5,13,-53,-28
28,5,-8,0,-10,-65,-1,24
0,-4,-11,0,-7,-57,15,-42
30,7,11,-2,-16,-64,-9,31
-6,7,-7,-1,37,46,49,-42
29,-8,-6,-5,-38,-47,-27,7
-8,-2,3,-3,-3,40,-12,-21
7,0,-8,3,19,66,-2,-4
29,-1,6,3,7,62,4,12
-3,-3,-3,8,6,-23,-17,-29
-40,6,2,2,1,0,14,17
14,-5,-4,-15,-44,-48,-20,-15
-12,-6,-3,-9,-1,35,8,4
-14,3,-1,4,-6,-2,-13,2
37,-1,-8,-9,1,10,-7,3
2,-1,1,7,8,43,-5,-23
-12,-8,4,-2,-15,-21,58,14
28,12,3,-7,-15,-19,-14,4
-38,-11,-4,4,16,46,14,35
14,6,-7,-3,7,-14,-3,-9
-30,-6,4,-1,-24,-34,-22,-30
-27,2,5,8,16,17,21,17
35,3,-2,-7,-22,-44,2,-5
-21,-8,-3,-3,2,3,-16,5
3,-1,0,-2,-8,-22,-112,-20
-1,4,9,11,0,1,19,6
-22,0,-1,-1,14,-31,-6,11
11,-3,-2,-6,-17,68,35,6
-2,1,-5,-4,10,9,-9,15
43,5,0,-4,-1,15,-4,11
32,-4,-6,-8,-5,-12,1,6
-47,-4,5,1,0,-6,-11,-41
-6,-8,-7,-1,8,8,-19,-4
-2,-3,5,1,-5,-48,31,-7
-9,4,0,0,6,60,46,11
-8,9,2,-5,-9,-63,-14,-29
8,-18,-10,-2,12,89,53,69
9,-1,-3,-2,-6,39,-62,17
-32,-2,2,-1,-11,-53,0,-90
52,0,-3,-5,6,17,-7,48
-57,2,0,-4,-14,-15,-4,-35
4,-1,1,7,30,-39,21,-22
67,2,3,-7,-22,43,53,99
-28,-3,-3,2,1,4,-30,-25
14,4,-2,-1,7,67,33,16
-6,-5,-6,-10,-6,-53,-47,-21
-4,-4,-4,4,-28,-90,-29,-10
36,22,20,13,74,65,24,22
-1,-1,-2,4,2,-35,-8,12
-20,-10,-6,-1,-11,24,-10,25
-27,-1,-3,-3,-8,19,-42,-33
-8,-10,-7,-15,-11,-61,43,-19
40,5,1,-1,2,30,-44,73
-40,-4,-3,1,8,-20,21,-58
28,-4,-8,-14,-15,-56,-18,62
23,1,-2,-4,-67,-33,-60,-21
-50,4,2,-1,18,44,102,-23
24,-4,-5,-2,-13,14,29,23
-32,0,2,6,40,-19,-38,-19
-1,-8,-4,4,-4,62,51,7
15,9,9,1,-19,-86,3,-18
-19,-6,-3,-9,-15,60,-56,-1
-19,-4,-13,-1,-1,-30,23,-3
7,-8,5,7,7,-26,-6,43
-4,11,-3,-1,-8,2,-89,-51
66,4,-5,-3,2,-31,74,-5
-30,-3,13,7,-27,94,-10,25
-4,-14,-7,1,43,-88,-7,-31
-25,-7,-1,-2,-24,-2,-5,-20
12,9,3,2,15,-41,-85,-36
6,-4,-4,-2,-9,2,40,-13
3,7,2,6,4,63,-33,2
-16,2,5,2,7,-41,49,-44
23,3,-2,2,11,51,19,87
-22,-2,3,0,11,62,25,-44
-12,-3,-5,-7,-8,-33,-8,29
15,-1,1,-1,-6,69,4,-1
-38,7,7,-4,-1,41,0,-33
27,-7,-4,7,26,-34,-66,-17
-8,-2,-4,-2,-7,21,0,2
-37,-2,2,6,-16,-7,-89,10
2,-7,-11,-12,-23,-43,19,16
-6,6,5,5,28,62,-12,-25
-9,-15,-8,-7,-4,28,68,40
40,-2,-5,-2,20,18,17,11
-35,1,5,6,4,-9,26,-31
6,-1,-5,-9,5,54,8,44
14,-3,-7,-16,-42,-94,-16,-43
-1,4,-3,0,13,-9,26,18
-21,-13,-4,-7,-80,-21,-44,-43
45,2,2,7,68,-7,48,59
36,10,5,13,16,26,29,-15
-65,-12,-11,-1,3,-48,-13,-31
48,14,7,4,-25,-62,-13,17
-87,-8,-3,-13,-51,-69,-30,-24
6,-4,0,-1,3,111,44,-16
65,9,-4,-5,15,-13,55,58
-18,-8,2,9,33,-41,30,-32
4,2,-1,-5,-14,-2,-47,-27
4,9,1,-1,0,7,-16,0
16,-9,-5,-4,-7,71,80,-21
-16,-9,-8,-13,-19,-2,-7,-3
19,5,1,-2,5,-12,-20,-10
-24,-11,-12,-3,-14,61,-54,-46
31,12,13,7,18,31,48,23
12,12,1,1,22,11,8,10
33,-10,-5,-1,-16,45,17,15
-28,-3,2,9,79,-75,-44,-8
-15,-14,-16,-10,-38,-97,-112,-30
-21,-8,1,7,39,127,86,15
-4,4,-1,-2,-17,-99,-8,-39
55,20,7,1,-7,-19,33,45
5,-6,2,-5,-31,-112,-73,-4
-28,-19,-6,7,35,6,-73,56
-15,9,-7,-17,-46,79,51,11
-3,-1,-6,1,-15,79,-3,-7
21,10,8,3,43,33,23,61
3,5,-1,0,-44,-90,6,-68
-2,-3,10,15,47,101,90,19
8,-1,-2,-1,-25,-61,-27,-10
-10,-7,-3,6,11,95,45,68
-5,0,-6,-4,-12,15,34,5
1,5,7,0,64,22,-8,-10
-17,2,0,-5,-20,-66,22,14
1,-13,-2,3,-3,48,-39,-80
-48,7,0,-7,-3,-48,24,23
-8,-11,-8,-4,-22,16,-25,-5
-7,-1,-4,-10,-17,88,15,16
-39,0,-1,-3,-1,26,-39,-80
45,2,5,3,-1,7,41,16
-2,4,-7,1,-17,-21,-26,-17
-18,-9,7,1,9,63,-40,3
19,-2,-4,1,-13,-53,16,-16
10,9,5,7,9,116,66,17
-80,-12,-9,-15,-9,-43,-9,-79
38,1,-3,-2,-1,-3,37,58
-18,3,-1,-4,-12,-83,-26,-17
94,10,7,6,30,80,-17,94
-23,-12,-5,-4,-17,-62,-27,-58
6,-7,-10,-8,-20,50,57,43
-4,3,10,11,10,-49,21,-7
-15,-5,-11,-7,22,103,-14,-1
-8,-4,0,5,-11,-31,39,-14
-11,-2,-4,-7,-19,-37,40,-12
3,7,5,5,22,59,-5,6
-14,-13,-18,-8,-10,-29,-16,-20
16,5,15,5,-15,61,-51,27
9,-1,0,0,7,-107,-12,-7
4,-1,-2,-1,-13,30,22,24
-17,-8,-4,-7,5,0,-13,-26
-12,4,-2,3,-12,-66,-15,-7
-40,-3,-4,1,14,-20,-26,-43
56,-4,-6,-7,-16,-9,-7,79
-26,0,2,-1,-22,22,30,-6
87,4,-2,-5,5,2,11,24
-24,11,5,2,11,-9,-33,-42
19,-3,-3,2,3,-23,37,34
13,0,3,1,-8,-73,-64,-6
5,-6,-3,3,12,73,28,15
-3,3,3,1,-11,-81,-33,-23
-33,-6,-4,-3,-5,77,17,-30
5,-3,1,-1,-6,-84,-24,-41
0,0,-9,1,5,-17,52,38
8,-9,7,6,9,93,41,54
-31,4,-1,-5,-21,-56,-11,-28
-6,-7,-10,-7,2,-37,-5,-39
24,6,5,0,-2,-52,3,82
-23,-2,-5,-8,-6,42,-39,-29
10,2,2,-1,-2,3,-9,-7
5,-3,-2,0,10,15,31,28
-14,-1,-4,-4,-4,-9,-17,-29
17,4,5,3,11,71,63,22
-8,-4,-4,-10,-6,-63,-24,-18
-6,2,0,1,-10,20,-20,-52
-4,2,-3,-3,-32,39,5,14
7,-6,0,0,-12,-112,1,-75
-3,-10,-22,-1,23,108,12,20
-16,10,10,-2,-22,-76,-32,-19
2,-9,-3,-3,-2,-56,-5,-42
-33,-5,-6,2,2,54,-18,-23
-33,-4,-3,-4,-9,-37,-22,38
21,-1,1,-1,-15,72,6,1
11,1,3,-3,5,-31,-49,-9
-27,-3,1,4,12,23,17,6
13,0,4,4,-9,-64,4,-25
-3,-1,-7,-7,13,16,45,39
-20,-2,3,5,25,47,17,-39
24,1,2,0,-5,-48,-1,17
20,7,3,0,2,9,33,18
-17,-8,-3,-4,13,106,4,-9
-7,3,-2,-3,7,-52,27,1
-2,-5,-6,-1,-9,0,-35,16
-8,3,4,6,9,87,46,-12
-14,0,5,3,38,5,-15,-17
-27,-4,-7,-6,-12,-38,64,31
24,-2,-2,3,63,28,-6,-31
-47,-13,-6,-13,-27,36,-28,28
45,2,-6,1,-2,-35,-12,-13
-8,-2,9,2,9,69,64,16
-17,-5,-5,-10,-30,24,-31,-35
16,-2,-4,-6,0,-13,5,-15
11,3,1,2,5,-32,-22,12
17,2,-9,8,15,-54,-30,-17
-30,-4,13,4,-9,96,44,26
2,-4,1,-3,12,-67,2,-23
-12,0,-2,-2,-13,10,15,21
22,-2,0,1,-3,-51,-24,-7
21,2,-6,-6,-5,47,-1,44
3,5,-1,-1,-19,-29,-8,-79
-43,-18,-8,-10,-2,49,19,33
14,5,0,1,-14,-19,-9,15
26,6,1,-1,2,-37,-37,11
-38,-2,1,-1,7,39,22,-2
7,-1,-4,4,-9,15,26,-26
9,-2,7,-3,15,60,-11,-14
-22,-1,-1,0,-24,-48,-7,10
24,4,-1,6,13,50,17,30
-32,8,6,5,17,-14,-27,-52
0,-13,-9,-9,-25,-58,-48,57
23,3,-2,1,2,13,21,6
24,8,2,3,7,0,-36,-13
-3,-1,-3,-1,-8,-10,29,44
-2,0,4,2,-5,-2,7,-35
-7,-3,-7,-6,4,-11,-22,4
8,-1,-1,-2,-8,30,-52,-15
16,-1,4,7,10,24,15,-10
9,-1,2,0,6,-14,-34,-9
-77,-3,4,8,14,-17,16,-7
1,-7,-6,-1,-8,25,20,10
30,3,-1,-3,-29,-89,-20,4
6,3,-1,-5,40,127,5,12
10,0,1,-3,-11,-35,18,-7
17,0,5,0,-2,-88,-1,11
-26,-7,-2,-4,-18,-17,20,-14
-6,2,2,5,-1,-16,-22,-8
