14,1,-34,-10,1,19,1,-4
-21,-4,1,8,22,49,1,-12
16,-2,-17,0,-12,6,-17,-8
8,-2,26,-10,-49,-64,1,-33
-29,-7,5,-3,18,62,19,46
-7,6,5,4,14,-36,-9,18
4,3,-10,-8,-43,-37,2,-60
20,-1,9,8,30,93,29,82
-17,-8,-6,-12,-35,-111,-84,-122
-66,-7,0,1,17,12,21,97
98,7,14,7,25,63,40,96
-28,-13,-32,-7,-31,-30,26,-37
-1,17,0,5,29,127,-56,-8
88,1,18,-1,-1,-116,-12,25
-128,-6,-7,-4,1,10,-29,-89
-74,-23,-18,-10,-29,100,22,5
72,-9,-3,-11,-26,-91,-22,4
33,25,14,7,-2,-37,29,-44
19,35,0,0,-16,9,21,-61
-27,-38,-33,-6,25,-47,-65,65
6,-29,-12,6,34,33,44,46
46,4,8,1,-63,-99,-37,38
-46,-22,-9,0,25,-61,99,-28
68,18,-15,-4,-2,-48,-91,16
58,15,11,2,-12,-36,61,0
-53,-12,-18,-13,16,-77,-8,-81
9,5,13,-1,-30,-122,13,51
-19,-10,-16,-27,-88,-77,-60,-118
18,-1,8,15,23,24,98,55
0,11,4,4,33,127,46,-34
-78,-6,2,-6,-8,120,-49,-20
-28,-1,2,10,22,-3,124,-24
-71,6,4,-6,-15,66,10,61
-3,-11,-9,-9,-9,104,-36,-23
77,-16,-5,6,29,59,58,65
-29,41,20,23,30,64,17,-37
45,-17,-12,-13,34,20,63,58
-42,-18,-13,-16,-51,-48,-59,-48
12,0,10,3,-14,-22,0,49
10,-7,-7,-7,-14,-70,-40,-22
-86,20,11,10,36,-28,1,-35
-63,-28,-29,-9,17,127,-99,-38
45,2,-2,3,-2,-37,57,-19
-68,-9,-1,1,20,68,0,-45
-74,11,22,4,-6,-128,-59,-120
40,25,9,-7,3,22,8,21
54,-35,-15,-13,-37,-22,-4,73
85,22,-13,1,11,33,-98,-15
-39,30,5,9,-31,-100,-105,-94
-2,-27,4,7,25,24,-32,95
19,22,18,7,32,75,-64,-54
-46,-29,-15,-14,-53,1,-4,-11
-21,13,26,39,84,103,2,43
19,15,3,7,-15,28,-83,-2
-17,5,4,10,43,77,30,74
36,-5,-4,-12,-36,-128,-55,14
-1,-1,1,-1,3,99,-10,-46
43,28,33,33,30,-91,120,21
5,-2,-4,-14,5,26,17,-31
22,13,-19,-1,29,96,127,39
20,-8,-1,-1,-12,45,-42,-7
-31,-7,-14,-16,-23,-63,4,-97
15,16,-1,3,-4,11,4,57
-110,-17,12,13,85,79,-15,-34
84,-5,-16,-25,-73,-59,-55,17
-15,-8,-2,6,9,-53,80,2
-9,7,7,1,-5,28,-105,-53
70,13,1,26,47,127,101,122
22,-14,-6,-3,25,-11,-15,6
0,1,0,-1,-34,-70,2,7
-54,-11,-1,-3,-26,-128,-38,-40
26,19,24,10,9,37,-11,-4
-89,-12,-47,-24,-36,-110,95,-40
81,-7,-4,3,3,49,62,77
0,9,6,2,-1,39,71,-6
-1,2,0,-2,-2,-35,31,0
-50,-16,2,-11,-42,65,76,18
-28,-8,-1,-10,-19,-82,-87,2
-26,-2,-10,-6,1,39,-14,-30
13,-3,-1,-4,-6,-18,54,61
70,-11,-3,-12,-1,91,40,-7
23,3,-16,-2,4,55,-10,-24
-63,-14,-18,-7,-12,-82,-29,19
15,0,44,-10,-31,-87,-75,4
-20,10,19,28,40,117,-74,-28
24,0,10,5,15,88,47,1
-32,-15,-39,-16,-13,-100,-6,-2
-5,3,-2,0,-2,-88,-5,-56
-17,4,13,1,-38,38,-66,27
-12,-13,-13,-7,15,76,63,-30
23,7,8,12,21,48,98,19
-1,3,-3,0,1,66,49,29
4,-13,-13,-18,-40,-104,12,26
-76,1,1,8,46,74,63,-13
-16,-8,1,-18,-68,-68,-67,-17
30,2,-6,10,34,116,-20,6
-4,4,4,-4,-9,-66,-14,32
-5,11,6,-5,11,12,-25,-16
-28,-17,-4,-7,-23,-1,-79,-32
26,-4,-11,-3,-6,17,21,9
21,5,1,4,24,86,21,5
-62,-1,3,1,0,-100,-37,-50
107,17,23,21,40,-8,77,109
47,-7,-24,-26,-46,16,-44,-48
-26,-11,-9,-9,-8,16,41,-22
8,-4,-1,-8,-13,68,52,-12
-26,12,11,5,9,25,60,-13
6,-1,12,16,22,30,26,30
29,-2,-28,-8,-9,65,24,60
24,-3,-1,0,9,-31,-10,37
4,1,2,6,14,-70,-48,-57
-12,4,-4,-4,-27,-100,9,7
26,19,30,29,38,48,-63,2
-39,-11,-7,-7,-33,-128,-86,-17
49,18,16,12,9,65,24,7
-57,-9,-3,6,34,60,47,-32
-55,1,8,4,1,-98,107,0
13,-16,-21,-28,-48,57,13,-18
-30,4,7,-2,24,-8,2,-23
-54,-4,-4,3,-5,-86,-73,-77
31,-13,-12,-20,-30,-128,-50,-41
16,11,8,10,29,46,33,70
-45,-24,-27,-30,-23,105,21,-55
12,12,1,-3,-24,-65,-56,-8
-11,-8,6,-9,28,116,10,18
-52,-17,-33,-2,-5,-12,-27,-27
4,3,10,9,11,77,-60,-1
-22,-9,-15,-15,-8,-28,-11,-14
26,-6,4,-7,8,127,42,41
17,11,11,5,1,-15,10,8
-51,-16,-2,-11,0,45,40,-32
37,6,-1,6,-2,-1,-51,71
-28,-6,-6,-6,-36,-65,68,-18
48,10,8,8,9,17,71,60
-28,-23,-27,-25,-37,-79,39,-34
9,2,10,-2,-15,-37,127,39
18,3,-3,0,13,40,56,-24
-69,-1,-6,-13,-38,-58,49,-41
15,0,8,11,14,68,3,31
-30,0,8,9,22,84,-5,-66
-4,-17,-24,-11,0,18,-3,65
-21,-6,-6,-25,-33,-57,-72,-93
13,-1,-6,0,-3,-15,-25,26
-21,-11,-15,-14,2,11,45,-33
4,6,0,-6,-18,33,-100,-24
-15,2,12,13,19,121,32,-30
26,0,2,8,13,13,45,71
81,2,-5,-2,21,105,75,68
-69,-18,-15,-14,8,78,70,-85
53,13,8,1,-22,-32,67,48
-47,2,-2,-2,-14,70,-56,-69
32,-5,0,0,16,96,18,8
1,-2,3,4,-9,-63,-97,-14
8,6,9,10,29,-27,31,0
3,0,-3,1,3,-20,-7,-18
5,0,0,2,4,-3,-60,48
-5,2,-2,-2,-28,-111,-23,-40
-10,-1,16,14,5,-26,-68,-66
44,6,0,1,22,8,-5,77
-32,-11,-11,-11,-18,25,-24,-16
34,7,3,2,-6,9,-28,16
-6,-11,-10,-10,20,127,-2,-8
49,3,5,2,-21,-128,-19,-20
-59,-6,-2,-1,-9,-8,-21,-20
27,10,3,1,-10,-33,-28,4
6,8,9,12,20,6,88,63
-30,-9,-7,-10,-19,91,0,-86
76,14,13,10,-2,-51,12,-2
1,9,15,14,11,42,111,70
24,-6,-10,6,72,127,24,54
-21,-7,-10,-23,-75,-114,-48,-28
-12,5,5,9,7,5,3,-21
-7,-1,3,2,14,106,42,-14
3,-3,-1,-4,-9,-39,-82,39
4,4,3,12,45,82,101,-16
-7,-7,-8,-13,-27,-46,18,10
11,-8,-9,-8,-8,23,-9,28
20,0,-2,-3,-23,36,-89,-73
-10,-2,-4,-3,11,-39,46,-3
-68,-5,-2,-3,-17,-99,12,-53
39,16,7,15,15,-6,24,-47
21,0,-1,-4,-12,-37,26,60
0,2,10,2,11,86,25,48
-14,-15,-16,-12,-2,83,-97,-76
-6,-2,0,0,-5,-94,21,15
-7,3,2,5,-3,-49,16,-15
13,17,22,31,52,69,-59,16
21,10,8,8,4,82,117,64
30,6,8,8,0,-84,-96,-36
-63,-7,-2,-1,2,89,-10,-1
-21,6,4,2,-13,-114,-66,-4
36,4,-1,3,8,-28,-8,50
21,-7,-12,-14,-1,-14,-7,-14
-31,-8,-4,-3,4,-117,38,-9
-25,-8,-12,-22,-58,-68,-75,-52
-11,-10,-14,-12,15,92,67,34
-44,-5,-6,-16,-54,-87,32,-48
29,2,1,-1,11,1,57,38
-21,-9,-10,-6,7,57,40,-27
-5,10,9,8,-30,-21,-56,-65
-22,-7,-7,-3,26,96,100,36
-21,-21,-21,-28,-37,-76,-39,-98
26,-1,-8,-4,23,117,18,108
-21,-10,1,-9,-64,-118,-92,-18
7,-1,1,4,6,-51,-53,6
-36,11,15,19,18,11,-38,-35
-5,-7,-11,-14,-33,-128,-22,-53
31,6,6,11,43,70,98,64
-36,-2,7,9,12,59,3,-58
8,-2,-3,-4,-21,-51,39,-14
75,12,17,26,28,72,43,92
0,8,4,7,12,42,37,-3
10,-5,-5,-8,-17,-55,-17,16
-9,7,6,8,22,90,-70,-18
-60,-2,-4,-4,7,-16,65,-32
15,1,5,2,-2,-91,-37,14
57,2,1,2,32,72,104,120
47,13,5,-4,-6,47,98,16
2,-8,6,1,-9,-36,5,55
-57,-15,-12,-7,10,83,-42,-31
14,5,2,2,2,3,-73,-11
20,4,-7,2,20,120,-27,40
12,-2,-2,-5,-27,53,9,-42
-26,-10,-13,-17,-10,46,-58,-78
-45,-1,11,16,-4,-69,10,45
43,2,-1,0,-16,-41,-59,-14
-37,-1,-6,-2,17,87,8,20
2,4,2,5,-12,-57,-56,-30
-45,-9,-6,-1,3,44,-10,-71
-23,-5,-6,-8,-20,-10,82,22
1,-10,-17,-20,-16,-17,-17,-71
40,1,6,12,17,40,47,34
-48,3,3,0,-4,11,-37,-48
31,3,2,2,-15,-48,16,28
3,2,8,11,30,10,78,2
15,13,9,10,10,-37,-20,9
-15,-11,-15,-17,14,75,55,22
34,-3,0,-10,-56,-111,-75,4
-7,2,-3,0,0,9,4,4
-21,-2,1,-9,0,59,-12,13
26,4,8,7,4,65,-96,13
47,4,-2,2,8,-41,78,42
-3,-2,-5,-4,-11,-101,-20,-31
-15,-4,-3,-2,0,6,95,-41
14,-3,-2,1,7,-84,-22,33
-35,-3,-2,1,17,-32,41,-8
47,2,-9,-9,-17,-119,-59,-1
-42,-13,-7,-8,-33,-67,-72,-29
26,2,-2,-5,-26,-42,49,17
-49,-5,0,6,20,89,53,-94
28,1,-6,-9,-9,-1,50,102
12,3,2,1,-1,-80,-17,8
-9,-7,-4,-3,-5,80,11,-67
-16,-19,-18,-19,-16,25,-25,67
-22,6,5,9,31,127,-86,10
38,-6,-4,-14,-20,-78,11,39
-41,-4,-11,-7,-40,-78,-21,-42
44,9,4,8,38,21,9,43
-76,-19,-7,-19,-45,-13,0,-69
-30,1,-2,3,18,-12,1,28
37,12,5,4,18,-48,-59,30
-21,-1,1,5,-2,-58,-44,-79
84,-4,6,11,3,48,7,61
12,5,-14,-1,31,36,67,-29
-13,-8,1,-11,-28,-83,81,48
-27,4,10,10,12,-1,72,-21
21,10,10,7,10,-52,15,26
-13,-2,4,4,3,52,36,-30
-1,0,-3,3,16,50,14,-44
11,1,-3,1,1,-16,15,65
-13,9,14,18,15,-72,-14,-32
48,-4,-6,-8,-17,-93,5,54
-42,-9,-15,-15,-8,34,95,-103
3,2,6,4,11,127,-49,24
-41,-7,-3,3,17,50,22,-25
13,7,5,1,-4,-20,-61,-16
-2,9,15,10,4,-90,-8,-12
20,-6,-7,-10,-15,31,22,-17
-24,-1,-2,-10,-8,-74,56,19
6,-8,-24,-11,-28,-27,-26,-20
3,6,0,2,7,19,-3,66
-50,-21,-15,-19,-31,-79,-33,-55
-13,-3,-7,-3,7,14,27,-50
27,-4,5,-1,0,85,29,73
-32,-9,-9,-9,4,-20,-5,-18
2,-2,1,9,23,103,61,18
28,2,5,-5,-30,-77,-33,6
-66,-3,3,3,17,94,39,-53
42,9,-1,4,19,47,-9,45
12,-4,1,0,-3,-13,43,34
-15,-11,-23,-8,-2,127,-1,-43
11,3,10,2,6,-45,70,22
-4,-6,-5,-9,-14,69,-104,-17
-13,5,1,-4,-16,-3,-29,-34
-37,2,1,2,3,96,17,-35
70,-5,-11,-9,-17,-7,-44,50
-19,-8,1,7,22,113,60,6
1,2,2,3,-4,-42,-48,22
27,2,3,5,9,14,-36,-1
-27,4,8,8,19,86,55,-25
16,-9,-8,-7,-8,-37,95,14
4,4,-3,-8,-22,81,-10,-5
19,0,0,-2,-9,-111,13,28
-26,-2,0,-3,-9,17,-16,-44
21,2,3,6,9,19,19,32
-12,-3,-3,1,27,53,-9,-1
14,6,7,7,2,-50,-5,26
-14,-5,-1,3,19,3,70,10
-23,-8,-10,-14,-38,-91,-13,-60
5,-5,-1,-3,4,47,11,-1
-24,-5,0,-1,6,-29,-27,-45
19,-2,-7,-6,-5,-44,3,5
-3,7,12,13,19,33,-15,80
22,4,-10,-4,-17,-107,37,37
-20,-10,0,-13,-15,-38,106,-35
-61,-1,-2,-5,-22,-94,-22,-59
94,3,2,0,-18,-6,12,80
-14,-1,13,0,2,17,-23,-50
14,-2,-24,2,29,127,9,38
-10,0,7,3,-9,-50,-16,0
-30,-2,-12,-10,-18,-36,-40,-9
16,1,8,10,19,5,56,-22
17,3,4,-3,-11,-14,-15,20
13,1,2,0,3,-3,-36,-34
-8,7,10,13,19,27,60,-48
-33,-4,-5,-3,2,-32,19,31
-21,-7,-4,-4,-5,-16,16,-17
5,5,-7,-10,-30,-46,-16,7
-18,-11,-2,-2,15,76,-50,-17
-6,-2,-2,0,-16,-86,-74,-30
-2,-4,0,-6,-8,39,14,-6
2,1,1,4,21,37,3,56
10,-1,0,3,7,23,12,-59
38,0,-4,-6,-33,-58,-62,39
-15,2,3,3,1,11,-18,15
11,-2,0,1,3,-50,14,54
18,8,9,10,14,3,49,-3
-2,-3,-6,-7,-2,-46,53,-9
2,-1,1,-2,-14,-63,13,20
-28,-5,-10,-1,0,120,25,-26
16,0,4,-1,6,8,-5,32
-16,6,8,9,26,90,-79,-27
-7,-6,-6,-10,-39,-57,-28,-26
-2,1,4,11,21,41,49,-17
-56,-5,-11,-11,-6,-50,53,-10
51,-10,-6,-8,-16,109,24,67
-19,10,12,14,22,-29,-116,-50
12,0,2,1,-5,-22,-63,19
16,-6,0,6,26,-1,-39,11
-36,2,-4,-11,-42,-81,-86,-96
34,2,1,6,28,90,79,37
1,1,5,1,-13,-41,-18,3
0,-1,-6,-8,-9,-63,-45,-35
9,1,-6,-2,18,26,52,41
39,3,5,4,7,32,-86,3
-29,5,5,-2,-26,-26,-45,-44
-1,-8,-12,-9,-18,-13,-11,-1
-16,-1,-1,0,4,45,-60,-23
-26,-9,-6,-5,4,-23,65,-16
22,0,-3,-5,-6,-18,-2,-1
16,-2,-3,-10,-30,-12,-58,-3
-32,-7,-3,-3,10,-38,24,20
8,1,-4,-3,-13,9,53,28
-13,-5,-1,-4,-13,-51,95,-36
14,1,-1,-2,-6,14,-3,3
-32,-3,-3,4,38,110,81,-52
67,3,0,-8,-31,-46,-77,74
-28,-6,-3,1,12,30,112,-26
-14,0,-2,-4,-7,-37,32,7
31,7,9,10,16,-5,16,10
-47,-11,-5,-4,7,106,47,-16
57,6,-1,3,24,-24,10,106
-70,-8,-6,-7,-30,-64,-101,-99
36,0,-6,-5,-21,17,30,92
7,5,1,0,1,-78,8,-24
-13,-3,-2,-6,-23,18,-23,-9
13,-3,-4,-2,10,45,85,22
-5,3,3,1,-15,-91,-25,-17
-9,3,7,8,30,59,42,-4
-4,-4,-4,0,14,116,-101,0
0,-4,-4,-10,-24,-108,-3,-29
43,5,0,3,8,48,39,3
-55,-4,1,5,23,104,31,-18
0,-5,-3,-4,4,-6,17,9
15,3,4,6,6,-12,2,6
20,1,-2,-4,-14,-64,-8,-16
-24,-16,-16,-20,-20,-67,-60,-47
-17,4,3,4,10,-39,-58,-31
-8,-6,1,1,0,-18,5,21
-4,-5,-10,-12,-5,60,27,1
6,-1,-3,-5,-25,-73,-54,-5
12,1,0,1,9,42,-49,-14
18,4,-1,0,0,42,-6,63
-54,-13,-8,-9,-8,-58,10,-41
1,0,3,7,0,56,35,-7
14,-3,-4,-6,-2,59,36,-18
35,7,2,0,-14,-58,10,34
-28,-5,-3,-9,-4,87,-109,-27
46,-3,-3,1,-4,-4,26,51
-23,-2,-5,-4,5,10,31,-18
-18,-8,-4,0,11,-9,22,-49
-6,11,10,15,33,59,62,17
-11,-7,-4,-5,-11,-36,-31,-58
39,0,-1,-5,-4,-30,-30,42
-14,4,15,14,14,55,-10,7
14,2,3,-1,2,-29,82,-8
-37,2,3,4,3,58,-17,14
-2,-6,-2,-1,-13,-123,44,58
49,4,-3,1,17,116,36,21
-36,-6,0,1,-8,-57,22,-46
24,18,10,7,1,-57,-78,58
11,-8,-1,8,17,102,-61,-59
-3,0,-5,-14,-32,-42,-11,-14
2,-2,3,7,12,80,-30,-9
-3,-1,-6,-8,-20,-49,33,16
-18,3,0,2,9,-30,32,7
2,6,6,7,2,-69,29,-59
44,-7,-4,-4,-10,-95,21,53
-40,-4,-4,-1,11,66,18,-15
-1,1,1,-2,-8,-73,-31,-3
22,-5,-1,0,8,46,54,4
-21,1,-1,-2,-8,-63,0,11
18,-5,-3,-3,-7,-93,52,-25
-12,-1,-3,-3,-9,31,-45,-12
-31,-5,0,3,12,34,-21,24
11,8,2,-2,-11,48,32,-20
-13,-9,-6,-11,-20,-101,-96,-9
-27,-3,-1,0,-4,65,78,-7
41,2,0,0,14,38,-10,55
-6,-3,-6,-6,-21,-10,-28,-12
37,5,3,4,14,8,1,-23
27,0,0,-1,8,12,62,23
-11,-1,-5,-6,-23,-44,-28,-7
-77,-4,2,6,11,3,-44,-19
46,10,8,10,6,-30,29,18
-16,-2,4,1,-3,44,-46,-18
-6,0,-1,0,7,-62,-12,-14
4,-1,0,-2,-24,-29,-43,-36
-18,-7,-7,-8,-11,99,-16,11
-16,-7,-9,-11,-29,-29,-53,-29
12,-1,-4,-4,-5,25,6,12
0,-7,-3,-3,-1,60,-40,-8
25,18,21,20,34,9,18,65
34,0,-2,-7,-22,-54,-71,-30
-89,-17,-6,-6,-5,61,17,-60
-7,1,-7,-3,10,52,46,36
-3,-10,-12,-9,8,50,-12,-1
3,6,6,8,2,36,69,19
7,9,2,3,0,105,-35,22
12,-15,-7,-5,-2,-106,-28,-6
-2,0,1,1,-1,40,58,-4
1,0,-2,-3,13,7,8,25
-21,-7,-1,0,1,-63,-42,-80
25,8,3,6,17,47,29,42
-2,2,1,2,1,-53,-1,-9
-13,-5,-6,-6,-12,-81,49,-4
3,-3,-5,-7,-4,127,-21,0
-16,-2,-3,-10,-28,-118,-21,-28
21,-5,-5,-5,-2,61,30,-3
-45,-7,-4,-6,5,98,6,8
-41,1,1,1,-5,13,-20,-50
43,-5,-4,4,39,113,7,76
-12,0,-1,-4,-25,-67,-6,-18
11,1,1,4,16,-20,15,4
4,-2,-2,0,7,73,27,22
-9,-2,0,2,4,-48,11,-17
-11,7,4,6,12,38,35,1
-16,-5,-4,-5,3,30,4,-26
18,-3,-6,-6,-9,-105,10,22
-10,1,4,4,9,3,-2,-4
31,5,-3,-5,-12,-62,-31,17
-40,-10,-4,-3,-5,-91,30,-22
19,0,4,4,13,-87,97,34
-3,-4,-6,-5,-16,61,33,-44
-37,-16,-13,-13,-14,52,9,-28
34,7,3,2,-2,32,35,14
2,3,3,1,8,2,-23,16
-13,2,2,4,-8,19,-6,-73
24,0,3,2,15,79,-1,31
15,4,2,4,-6,27,-11,21
-5,-1,-1,1,13,82,27,9
0,9,8,5,-6,13,71,18
-11,-4,-7,-5,-1,67,11,-9
-54,-9,-2,-3,-1,86,52,13
22,10,2,1,-2,-73,-42,-30
-22,-4,-2,-2,8,-105,-1,27
4,-1,7,12,9,37,26,-27
7,-6,-9,-8,20,93,64,48
1,2,2,4,4,-55,31,3
-20,-5,-3,-9,-26,-68,-29,-34
23,8,4,7,18,5,62,25
2,2,0,2,16,-30,-97,-48
12,-9,-9,-10,-19,18,-36,39
27,-2,-6,-8,-12,-78,45,40
26,3,7,4,-6,64,-92,17
-3,-1,3,5,6,-25,-26,-53
-4,4,1,0,-9,-6,17,9
1,-3,-4,0,13,44,42,34
0,1,-5,-4,-3,-44,-32,-11
7,-10,-7,-8,-24,-54,-16,12
8,2,0,-3,-3,-36,-19,-4
38,6,6,7,22,95,15,81
-51,-13,-9,-15,-38,-81,16,-38
15,3,-1,-2,-10,68,0,-9
6,-1,3,7,9,-33,-25,12
21,7,1,4,-2,35,13,-7
-61,-12,-7,-8,3,74,72,-51
33,6,3,1,-10,-23,37,96
-37,-5,-3,-3,-10,6,-30,-67
-17,-7,-8,-8,7,118,53,20
17,1,-4,-6,-11,-110,-87,-16
-34,-7,0,-5,-45,-120,1,-59
32,2,0,-2,9,7,55,22
-6,-4,0,-10,-38,-107,-85,-29
1,-3,-3,-1,5,40,31,26
5,5,0,1,15,4,37,-10
59,7,3,7,1,-36,-31,39
-67,-3,3,7,-9,17,-42,-108
-6,1,6,16,45,17,51,62
8,0,-3,-8,-45,-111,-5,-59
-23,6,1,2,21,69,47,8
66,-6,-2,-1,6,-41,-17,76
-13,-1,1,4,11,-1,-61,-44
48,14,8,10,28,111,14,33
-36,-12,-6,-7,-9,-25,3,-1
-13,-2,-2,-1,3,-52,-76,-38
-12,2,-1,-6,-19,-22,28,5
15,-1,4,5,7,-64,-32,-5
-15,-6,-8,-11,-38,3,-83,-59
-16,2,-4,4,32,76,-13,-29
80,1,-1,-2,-8,-24,41,62
-68,-9,-6,-4,6,100,19,-16
-2,-1,1,3,8,18,48,16
3,-4,-3,-4,-8,21,-15,-6
-31,-1,1,3,21,54,20,-74
52,14,7,6,-7,-11,50,72
-19,-10,-8,-12,-13,68,9,-43
30,-2,-3,-2,11,109,38,64
-34,9,12,10,-5,3,21,-84
-1,-6,0,3,-2,-68,-22,-4
-4,1,2,2,7,74,29,46
44,5,-3,-7,-10,-58,12,9
10,3,3,2,8,56,-101,-18
-45,-10,-9,-9,-7,-80,-57,-42
7,-4,-1,-2,-2,-34,-40,-17
-31,1,0,-1,-3,-40,-13,-56
-2,-10,-6,-1,-6,65,-8,105
26,3,-2,1,16,105,68,3
-14,0,-3,-3,0,-1,-37,-30
15,-4,-2,-9,-14,46,52,-23
-21,-13,-10,-12,-30,-104,-6,55
-6,3,2,6,31,108,21,-17
-4,-2,-6,-9,-19,-96,19,41
28,3,5,11,27,77,39,24
-36,4,3,-2,-31,-128,-46,-49
-4,-2,-1,-1,4,95,-16,-4
-6,-3,-1,-8,-28,-26,47,10
-17,6,4,5,-2,-32,-34,-32
74,3,1,6,24,-13,34,79
-40,-3,-1,1,1,-118,-35,-45
3,-1,-2,3,7,-52,5,-17
0,1,-2,-1,10,77,25,12
-33,4,-3,-10,-63,-84,-70,-45
-21,-9,-3,-8,-16,-103,14,30
23,1,3,7,13,73,-5,28
-3,-6,-6,-4,0,23,-20,9
-9,0,0,4,34,68,25,-29
-12,1,1,0,-16,-10,-15,18
9,3,3,2,-30,-67,-8,-56
10,2,-1,0,16,89,18,47
3,1,0,2,5,-12,23,-10
-11,-1,-4,-5,-11,-79,-50,-8
15,-3,-3,1,34,70,54,15
-10,3,6,6,-16,-80,18,6
11,-7,-9,-8,-5,48,-16,-34
31,8,0,-1,25,112,37,27
-33,-7,-6,-4,-3,21,23,5
-38,-4,-5,-8,-17,-48,-74,-57
-38,-1,6,8,27,47,36,-9
71,-1,-8,-11,-20,-18,47,66
-35,-3,3,4,6,55,0,-59
1,5,9,9,7,12,-30,-13
-6,-2,-6,-6,-2,27,47,7
11,1,-2,3,0,21,-63,-8
22,1,-3,-3,-10,-55,-38,27
-33,2,1,1,2,32,7,-21
26,-2,-4,-4,-6,4,35,27
-4,-4,-2,4,12,10,-26,-5
-1,8,10,9,0,-49,-58,30
8,-3,-5,-5,-14,-54,50,-28
16,-5,-3,-1,7,48,28,36
33,-1,-4,-6,-20,-104,-52,-1
-45,-4,-1,1,14,44,10,-22
11,-4,-3,2,14,55,18,20
13,3,0,-4,-8,8,-2,28
-11,-4,-3,1,3,39,6,-11
45,4,-4,-3,9,4,40,50
-50,-6,-3,-3,-7,2,-5,-24
-7,-6,-4,-2,13,9,2,-21
-7,-1,2,2,-11,-20,7,-35
-3,4,2,5,17,74,40,39
-5,4,2,2,-10,-62,30,8
-5,-1,-1,2,14,-32,25,8
34,7,4,1,1,6,4,14
-41,-12,-7,-9,-22,14,-23,-41
23,0,-2,-2,8,6,27,17
-6,1,4,9,-2,9,-30,-18
31,4,2,4,14,56,61,64
-7,-4,-3,-3,-1,-51,119,-16
13,-5,-6,-5,-3,-5,36,47
-4,5,-2,-4,-15,-128,-39,-52
-11,-18,-10,-9,-5,59,36,14
-4,3,-1,1,12,59,21,-10
-18,-6,-2,-7,-30,-56,-123,-23
3,-1,-3,-7,-6,-64,-31,25
-14,0,-3,-2,4,5,9,-47
32,-1,1,2,-3,-26,-25,4
-16,-1,-1,0,12,-35,-83,-7
15,-4,-3,-2,-7,-14,26,19
-50,-4,3,4,4,59,43,-33
6,2,2,1,0,-38,11,7
36,7,3,8,14,24,14,56
-8,3,1,-1,6,-4,-40,-26
-20,-7,0,0,2,34,41,-1
23,0,-1,-3,-8,37,40,7
-18,-11,-15,-17,-17,-54,50,-6
-9,-1,0,6,6,77,17,-16
22,7,0,4,-1,-9,9,18
-26,-5,1,3,-2,-29,-12,-5
24,-4,-1,-1,-16,-19,-46,-55
-51,-9,-8,-10,-18,119,79,16
1,5,1,3,18,-63,-1,-29
13,-2,-6,-5,-15,-64,-53,1
-21,-3,3,1,9,-67,-51,-35
46,9,3,1,-11,-12,26,6
-37,-15,-1,-1,2,21,-31,13
-17,0,-3,-5,6,-37,-30,-59
22,6,2,4,-9,-58,37,32
-5,-7,-1,0,4,57,15,3
-4,6,1,-3,0,7,-76,-7
14,-8,-5,-8,-19,-42,46,12
-16,-3,-1,-3,-11,9,32,-3
12,-3,-3,-4,-4,60,-15,-6
6,2,-1,-2,-1,-24,-20,-18
-16,7,8,10,23,72,20,3
-21,0,-3,-1,17,15,4,7
-26,-4,4,3,-11,-128,-32,-67
15,-1,1,-1,-8,7,-18,68
28,3,-1,0,-2,-47,-20,17
0,-5,-4,-2,-5,-16,-78,9
-7,3,1,3,6,59,46,10
-5,-3,-3,1,1,1,29,5
9,3,3,4,-1,-25,-8,-9
-11,-3,-6,-7,-6,-37,21,0
5,-1,-3,-3,1,49,-27,-5
17,-2,-2,-3,0,-23,-72,-4
-44,-11,-10,-11,-24,-32,-28,-1
-5,1,-1,-2,-4,15,71,-14
26,0,-5,-2,19,59,-26,-1
-24,-13,-4,-5,-2,-25,81,-44
11,0,-3,-4,-5,22,30,-4
-4,-3,-1,-2,-15,-38,-33,-11
3,-3,-2,3,15,3,-1,1
8,11,5,3,-1,106,15,-56
-57,-23,-11,-9,-2,11,-5,-20
26,8,6,5,4,10,66,51
12,3,3,3,-2,-26,24,-12
6,-3,-7,-9,-28,-87,-9,-37
12,2,0,3,17,47,4,46
14,0,-2,-1,14,71,-13,3
-15,-9,-7,-8,-3,42,-78,4
-36,4,5,6,-4,-98,-5,-6
40,1,-3,-8,-16,68,66,12
-39,-19,-10,-7,-6,-4,13,-3
31,9,4,-3,-26,-94,-63,17
42,-2,-2,1,11,16,14,23
-14,3,5,7,26,-23,-24,-7
-10,-4,-4,-10,-56,-78,-87,-17
-2,-2,-5,-2,15,20,95,18
-7,-5,-7,-6,-15,55,-63,-6
-20,3,5,7,11,-18,-10,-52
78,5,1,8,35,89,-28,79
-65,-19,-12,-11,-14,19,45,-33
2,1,-1,-4,-26,-115,-25,-4
4,1,-2,-1,3,2,66,14
4,-3,-3,-6,-13,-44,0,-65
16,2,0,-3,-17,-37,53,12
-4,-1,5,6,34,127,55,-16
-9,-5,-4,-4,-19,-75,-24,30
-4,4,1,-1,6,57,115,-2
1,3,6,9,19,-38,-60,20
-10,0,-1,-5,-13,-61,47,-34
38,9,5,7,-5,-21,4,16
-35,-8,1,-4,7,127,-1,-42
23,14,11,11,-5,-75,-44,-38
-36,-6,-3,0,47,127,52,113
23,-6,-9,-11,-25,-12,-3,-14
-11,-4,0,4,21,64,78,62
-19,-12,-16,-24,-17,-45,-15,-45
-14,-11,-5,-8,-11,13,-23,-58
1,0,0,-1,12,68,-11,3
12,4,7,5,6,-100,-5,4
2,-5,3,2,11,87,56,37
56,7,5,8,1,-102,-55,15
-94,-14,-17,-11,1,122,-83,-40
9,-2,4,0,-14,-115,-120,-72
-12,-5,-4,-5,-6,64,86,-16
-8,4,-2,1,-11,17,24,19
48,10,5,8,10,85,28,40
-19,0,-6,1,22,16,-10,-33
67,5,2,6,-7,-9,-54,85
-54,-15,-16,-17,-10,58,85,-63
-6,2,1,-1,-7,28,7,-40
-17,2,3,5,2,72,56,-24
-11,-3,-2,1,20,108,28,6
26,4,1,4,-12,-80,20,35
12,2,1,-6,-15,-84,48,21
18,-2,6,3,-13,-74,9,-45
-9,2,-4,-1,8,42,16,-10
-37,-4,0,6,25,-74,15,32
9,2,3,0,-5,-5,-27,-24
26,2,-5,-2,-2,25,5,25
-39,-9,-3,-6,-16,-20,-44,4
27,0,-5,-7,-6,-2,-31,-59
-24,-4,4,4,15,31,6,-16
31,-2,-7,-3,4,28,62,97
-21,3,3,4,3,-59,-8,-38
-1,3,6,7,-3,-32,-62,-5
19,2,-1,-3,-2,8,-5,22
-16,-2,-8,-1,1,35,0,-20
43,9,11,6,4,-16,5,77
-20,-2,2,2,1,17,47,22
-5,0,-2,-5,6,-2,-41,-37
-41,-14,-11,-11,1,99,30,-13
3,-5,-6,-9,-36,-100,21,-13
0,2,-2,-1,9,70,76,25
1,-6,-6,-4,2,50,32,-15
-39,-8,-6,-12,-39,-91,-45,-11
9,2,0,5,18,110,51,32
5,-6,-9,-15,-19,-3,-6,28
-14,-6,-6,-4,-3,55,-94,-43
49,10,10,8,9,-14,94,77
-11,0,1,-1,-2,-49,0,-27
-4,-3,-3,1,2,-33,-61,-20
-3,9,7,7,-4,-98,107,63
-7,-12,-8,-6,4,-21,-6,-32
-7,-6,-4,-3,-4,42,-25,-28
-6,6,6,8,13,62,-4,34
20,2,4,10,31,67,68,11
-18,6,2,3,-15,-66,9,-10
3,-7,-5,-3,5,43,46,11
7,-2,-5,-11,-37,-36,-71,-64
-14,-5,-3,-2,-4,-57,-37,9
16,5,4,3,13,112,-17,9
-26,-7,-8,-7,-17,-93,-83,-21
-13,-2,-1,1,-4,27,46,-38
14,4,4,1,-12,-54,-1,2
-41,-6,1,2,7,12,-119,-63
39,2,-8,-8,-11,45,33,31
-42,5,6,7,2,-51,-85,-23
7,-16,-9,-4,3,66,-2,38
-14,-6,-2,-6,-16,-71,29,-34
-6,2,3,2,-7,-62,-15,-17
9,-2,0,-1,5,-1,-73,4
11,2,1,2,0,-50,16,-8
13,9,10,11,7,-7,-10,21
-41,-9,-5,4,13,16,29,-44
26,-1,-1,-2,-6,-8,16,41
-19,1,1,0,17,-6,-15,-14
21,-2,0,-5,-2,-49,39,66
6,3,1,0,-3,26,-1,-7
10,11,7,6,6,9,43,11
6,-13,-9,-8,9,111,9,15
-22,3,-1,-1,-6,-95,76,-26
8,-2,-5,-3,22,81,21,44
23,0,-3,-8,-33,-75,34,1
4,1,2,-3,-22,-57,10,1
0,3,-1,1,8,59,1,-13
-10,0,2,6,4,-128,-36,-33
6,-1,2,3,25,97,-20,3
24,14,11,8,-5,-88,56,17
-3,-10,-6,-6,-15,-9,-34,-8
-27,-2,-9,-15,-20,-17,-89,-34
45,-4,-3,-2,11,86,34,54
-57,-6,-2,-1,0,-12,-22,-36
38,6,4,5,16,0,-25,11
8,-4,-2,-4,-9,-87,5,-18
-40,-5,-2,1,18,85,45,-23
17,-5,-11,-12,-22,10,-41,6
10,2,-1,3,22,70,-13,25
-11,0,3,2,-15,79,35,-10
-1,1,1,0,-9,-128,-52,-4
-9,-4,-4,-2,25,121,21,-24
51,8,12,9,-2,61,1,69
22,0,1,-3,0,-30,66,10
10,3,-2,3,-3,20,35,18
-11,-6,-4,-4,-8,28,-92,20
-20,-6,-9,-9,-10,-54,-58,-39
-8,-6,-1,1,1,-26,25,-35
-1,2,2,4,6,-39,-68,27
-35,-5,-7,-6,-14,-73,-62,-63
-39,-5,-3,-6,-28,-49,-16,-37
4,-2,-12,-2,6,42,59,33
-4,0,7,-4,-8,-16,14,-24
9,5,5,4,-2,-1,25,11
-1,-4,-6,-8,4,-73,2,-20
1,1,9,13,19,89,-2,7
-9,-5,-9,-5,-5,-39,4,-26
13,-2,-1,2,9,10,43,23
10,0,-2,-3,-6,-9,43,7
-14,-6,-6,-6,2,89,-67,-18
33,9,5,7,6,-75,87,-55
-20,-14,-6,-13,-41,-56,-33,13
-14,0,0,1,11,11,6,-26
-24,-10,-8,-14,-11,62,-38,-13
39,-2,-8,-6,-12,-38,-53,-12
-26,-1,1,-2,-3,-107,-22,-32
9,4,5,5,7,104,-38,20
-5,6,9,6,7,53,30,-37
-2,-9,-14,-17,-13,62,-2,48
22,2,-3,3,4,2,9,11
-9,-2,1,3,6,0,43,21
-10,1,-3,-9,-25,-128,-20,5
-31,-9,-6,-3,-12,39,-84,-31
19,5,5,4,8,-70,34,3
-48,-3,-2,-2,1,75,47,-41
53,2,2,4,15,52,-52,73
-53,-6,-2,0,-2,40,73,-43
9,10,4,6,-9,-99,-48,24
16,3,1,0,6,74,-30,-9
-17,0,3,5,2,7,11,-3
-5,-6,-2,-2,6,55,20,33
24,7,5,5,17,92,-1,-9
-7,1,-1,1,-21,-124,-44,-7
-3,0,3,-1,-1,-101,15,-7
3,2,3,2,6,26,22,19
-25,5,5,7,11,-18,-14,-28
24,-14,-20,-7,-2,50,-9,45
24,4,8,1,-23,1,-36,-39
-55,-4,2,2,-7,-14,-52,-49
34,1,-5,-8,-1,70,29,65
-14,2,-3,0,7,100,30,-32
37,-2,-3,3,18,-40,-17,25
-6,0,0,0,5,-53,25,21
-4,-4,-2,1,-3,-58,-12,-13
-33,-5,-2,-7,-13,-12,-23,-21
-14,-1,-4,-2,4,27,34,20
20,0,2,-2,-9,-38,10,1
-2,-4,0,4,2,-34,-64,-15
22,1,-1,-2,12,63,74,27
-56,7,4,4,-14,-18,-4,-52
34,-10,-11,-7,5,11,-20,28
10,1,-4,-6,-12,-7,-40,0
-11,2,5,0,-20,-92,-5,-8
20,-4,1,8,15,31,13,23
-10,0,-8,5,8,50,-20,-8
13,1,4,-1,4,17,13,-14
-18,-6,-5,-10,-15,-17,-57,-14
-20,-6,-7,-5,-7,-62,-17,-21
36,6,1,-1,-1,37,-20,16
-10,-4,-5,-4,-9,-67,62,3
-5,0,-1,-3,-16,-21,-6,-33
13,4,4,3,12,59,22,17
-14,-11,-7,-11,-12,20,-20,-26
-6,-2,-3,-1,8,51,-1,19
7,-4,-3,-6,-3,30,34,-29
-1,-2,-2,-1,3,14,18,-18
-18,5,3,1,5,30,30,13
-22,-9,-12,-16,-32,22,-100,-39
-7,-9,-1,2,12,37,45,-1
49,3,3,1,-9,22,-13,70
-25,2,2,-2,-14,-86,-22,-26
-17,-7,2,5,14,73,32,-5
53,10,7,9,12,-48,45,61
-54,0,-1,-3,3,82,-6,-11
-16,-6,1,-1,2,-84,5,-32
10,-2,-6,-7,-6,-11,23,7
-10,4,5,6,2,34,23,16
15,-1,-4,0,3,-30,49,30
52,8,6,6,7,70,-44,-10
-48,1,4,1,0,-15,42,12
14,0,1,-1,-2,-46,15,-14
-6,-2,-2,-5,-6,-18,-33,-21
-5,-3,-5,-3,4,79,78,16
33,2,-1,0,4,56,16,0
-2,1,1,2,7,-20,-14,-2
-8,-2,-3,0,-17,-128,-10,-30
16,-4,1,-1,8,89,20,32
8,1,-1,3,3,18,-31,14
-17,1,-4,-3,-2,31,-63,-4
-26,-8,-1,2,11,93,-7,-37
25,1,-3,-2,-9,-112,-2,1
-4,-2,2,1,1,-8,-6,-16
-17,-6,-9,1,2,103,4,-6
18,0,6,-1,14,-13,32,10
-15,13,2,-4,-14,65,-33,-6
13,-11,2,-1,-6,-53,23,-6
6,24,-4,-1,0,54,29,45
3,-12,-3,-1,-11,-80,-28,-32
20,31,11,5,11,-46,60,28
-1,-25,2,4,-7,-64,-12,-19
-7,-1,-3,-5,5,70,-25,-22
-22,-16,-1,9,3,2,-51,4
10,0,-6,-1,-6,15,-54,10
9,11,-3,-1,1,-22,-10,-45
-54,-14,-4,-8,-33,-106,-20,8
28,15,4,-2,7,54,5,11
-20,-7,5,10,6,33,54,5
-14,0,-5,-6,1,44,51,-40
47,-7,-3,0,8,101,14,42
1,3,1,-2,3,9,-50,22
-54,-17,-5,-2,-13,-63,37,-57
22,11,5,8,7,-37,16,38
4,-5,-2,-7,3,-67,-15,-18
6,3,-5,-8,-5,41,2,-4
11,-14,-7,-7,1,-23,83,23
-24,0,-3,-7,-8,5,-17,-26
63,2,3,3,-3,-79,1,-17
-75,-12,-7,-4,7,1,36,-20
-10,1,4,-3,-12,-33,-22,-17
31,3,-3,-1,10,121,30,64
-3,-6,1,4,12,-46,-79,-12
23,3,-5,-1,-8,19,54,33
-20,-15,-3,0,3,17,-24,5
-11,-1,-2,-3,4,39,-6,-5
3,0,-1,3,7,14,1,10
-5,8,3,-1,-7,4,77,-4
11,-11,-13,-11,-8,106,-8,-21
-2,-4,-1,-1,-7,-53,44,36
-25,-4,2,2,-3,-80,14,-26
15,-1,-4,-5,-18,-9,20,-5
7,2,1,1,-7,-46,-18,6
5,-1,-16,-2,5,74,-19,-12
-41,-11,12,1,0,60,-17,-19
14,6,-6,-5,-8,28,-13,-2
35,7,0,2,14,40,-2,32
1,5,2,-1,-15,-51,15,-16
-38,-10,-9,-8,-18,2,10,-40
18,-7,1,-1,16,102,82,79
-30,-7,-3,-6,-22,-99,-38,-85
7,6,1,1,18,-63,27,30
10,3,0,-4,-32,-1,16,24
-5,3,-3,-4,-7,-92,-4,-27
-14,-9,-3,1,16,31,18,15
-8,-1,7,8,18,15,30,-10
97,6,-1,2,4,35,-13,28
-108,-21,-12,-8,-6,-7,-88,-66
36,11,-3,5,14,62,14,41
-41,-11,8,-2,-13,-55,54,-3
11,5,5,8,16,29,0,-10
38,9,-2,-6,-15,-84,9,-2
9,1,1,-1,-4,-92,-41,45
-10,-2,-2,4,8,65,52,-11
-6,9,3,5,6,14,-38,-19
-20,-5,5,5,2,2,-24,-27
-37,-18,-6,-4,8,96,24,6
21,9,1,6,27,32,2,5
-3,-4,-4,-8,-13,-41,16,19
24,4,6,7,8,74,16,0
33,1,3,2,8,-44,42,52
-45,-6,-1,-5,-19,-7,-33,-29
-20,-11,-16,-6,-1,-9,19,-10
3,7,9,4,11,17,-4,4
-4,7,0,-2,-1,-60,4,-5
15,3,-2,-5,-10,-5,8,-14
3,-14,-12,-13,-7,-4,46,7
36,2,0,6,0,26,-51,-8
-29,0,-1,-5,-16,-20,-3,-15
1,-4,0,2,0,-3,-50,-4
4,2,2,3,3,21,7,9
1,1,2,1,17,27,-53,34
-6,-3,-3,-3,5,41,48,-27
26,1,1,5,10,1,-16,7
23,5,7,8,1,-106,-40,-32
-32,-14,-7,-9,-15,1,38,39
-8,2,1,1,2,61,-58,-21
2,-3,-9,-7,-9,21,-21,3
-7,8,13,4,17,31,1,18
29,2,-3,-2,5,2,-21,-38
-35,-5,-6,-7,-21,-74,5,7
25,-9,-3,-4,-8,-30,-76,-1
-27,-2,-3,-2,-7,-20,34,-1
5,3,3,4,-5,-100,-35,-23
12,-3,-5,-9,-9,-9,-10,-3
-20,0,-3,-11,-25,-6,-30,-55
-11,-4,-4,-1,16,-18,66,44
58,3,-6,-3,-11,-30,13,32
-34,-3,2,-2,-3,16,-27,-40
-12,-7,-5,-3,-1,76,43,0
0,1,-1,-6,-20,-67,-55,-17
-38,-9,0,3,6,17,59,-14
41,1,-3,-3,-3,6,-98,-24
-14,2,8,0,-12,-95,-9,68
-42,-9,-3,0,20,127,41,-30
6,0,-2,-7,-9,0,3,-7
14,0,3,5,11,-89,7,5
