(0.171630859, 0.35144043, 0.854797363, 0.340942383)
(0.171630859, 0.35144043, 0.854797363, 0.340942383)
(0.171630859, 0.35144043, 0.854797363, 0.340942383)
(0.1716919, 0.35144043, 0.854797363, 0.340942383)
(0.1716919, 0.35144043, 0.854797363, 0.340942383)
(0.1716919, 0.3513794, 0.854797363, 0.340942383)
(0.1716919, 0.3513794, 0.854797363, 0.340942383)
(0.1716919, 0.3513794, 0.854797363, 0.340942383)
(0.1716919, 0.351501465, 0.8548584, 0.3408203)
(0.1716919, 0.351501465, 0.8548584, 0.3408203)
(0.1716919, 0.35168457, 0.8548584, 0.340515137)
(0.1716919, 0.35168457, 0.8548584, 0.340515137)
(0.171630859, 0.351989746, 0.8548584, 0.340209961)
(0.171630859, 0.351989746, 0.8548584, 0.340209961)
(0.171386719, 0.351989746, 0.8550415, 0.3399048)
(0.171386719, 0.351989746, 0.8550415, 0.3399048)
(0.171264648, 0.35144043, 0.8555908, 0.339172363)
(0.171264648, 0.35144043, 0.8555908, 0.339172363)
(0.170776367, 0.350402832, 0.8565674, 0.33807373)
(0.170776367, 0.350402832, 0.8565674, 0.33807373)
(0.16998291, 0.349914551, 0.8577881, 0.335876465)
(0.16998291, 0.349914551, 0.8577881, 0.335876465)
(0.168945313, 0.3503418, 0.858764648, 0.333435059)
(0.168151855, 0.35168457, 0.8590698, 0.331604)
(0.168701172, 0.35333252, 0.8586426, 0.330627441)
(0.168701172, 0.35333252, 0.8586426, 0.330627441)
(0.169311523, 0.3531494, 0.8588257, 0.3300171)
(0.169311523, 0.3531494, 0.8588257, 0.3300171)
(0.1694336, 0.352111816, 0.8594971, 0.329406738)
(0.1694336, 0.352111816, 0.8594971, 0.329406738)
(0.169128418, 0.351318359, 0.8601074, 0.328674316)
(0.169128418, 0.351318359, 0.8601074, 0.328674316)
(0.169189453, 0.3515625, 0.859985352, 0.328735352)
(0.16986084, 0.352355957, 0.859436035, 0.3289795)
(0.16986084, 0.352355957, 0.859436035, 0.3289795)
(0.170349121, 0.3536377, 0.8586426, 0.3295288)
(0.170349121, 0.3536377, 0.8586426, 0.3295288)
(0.171325684, 0.3550415, 0.857727051, 0.329833984)
(0.171325684, 0.3550415, 0.857727051, 0.329833984)
(0.171142578, 0.354980469, 0.8578491, 0.329650879)
(0.170715332, 0.3554077, 0.8577881, 0.329650879)
(0.170715332, 0.3554077, 0.8577881, 0.329650879)
(0.170959473, 0.356628418, 0.857177734, 0.329772949)
(0.170959473, 0.356628418, 0.857177734, 0.329772949)
(0.171508789, 0.358215332, 0.8563843, 0.329772949)
(0.171508789, 0.358215332, 0.8563843, 0.329772949)
(0.171813965, 0.359680176, 0.8557129, 0.3297119)
(0.171813965, 0.359680176, 0.8557129, 0.3297119)
(0.1720581, 0.3612671, 0.8550415, 0.329650879)
(0.1720581, 0.3612671, 0.8550415, 0.329650879)
(0.172241211, 0.362976074, 0.854187, 0.329956055)
(0.172668457, 0.3651123, 0.852844238, 0.3307495)
(0.172668457, 0.3651123, 0.852844238, 0.3307495)
(0.172973633, 0.366333, 0.851806641, 0.33203125)
(0.172973633, 0.366333, 0.851806641, 0.33203125)
(0.172973633, 0.367248535, 0.8508911, 0.333313)
(0.172973633, 0.367248535, 0.8508911, 0.333313)
(0.172729492, 0.367126465, 0.8505249, 0.3345337)
(0.172729492, 0.367126465, 0.8505249, 0.3345337)
(0.172729492, 0.3670044, 0.850097656, 0.335693359)
(0.172729492, 0.3670044, 0.850097656, 0.335693359)
(0.172729492, 0.3670044, 0.850097656, 0.335693359)
(0.173034668, 0.367614746, 0.849243164, 0.337097168)
(0.173400879, 0.367675781, 0.8484497, 0.338806152)
(0.17401123, 0.367492676, 0.847839355, 0.340209961)
(0.17401123, 0.367492676, 0.847839355, 0.340209961)
(0.174499512, 0.366699219, 0.847473145, 0.3416748)
(0.175415039, 0.364990234, 0.84765625, 0.342590332)
(0.175415039, 0.364990234, 0.84765625, 0.342590332)
(0.176513672, 0.3638916, 0.8473511, 0.3439331)
(0.176513672, 0.3638916, 0.8473511, 0.3439331)
(0.1776123, 0.3623047, 0.847167969, 0.345458984)
(0.1776123, 0.3623047, 0.847167969, 0.345458984)
(0.1784668, 0.359985352, 0.847473145, 0.346740723)
(0.1784668, 0.359985352, 0.847473145, 0.346740723)
(0.180419922, 0.3581543, 0.8475342, 0.34753418)
(0.182312012, 0.3590088, 0.846618652, 0.3479004)
(0.182312012, 0.3590088, 0.846618652, 0.3479004)
(0.183349609, 0.3602295, 0.84576416, 0.348022461)
(0.183349609, 0.3602295, 0.84576416, 0.348022461)
(0.18371582, 0.360900879, 0.845459, 0.3480835)
(0.18371582, 0.360900879, 0.845459, 0.3480835)
(0.184143066, 0.36151123, 0.8451538, 0.347839355)
(0.184509277, 0.362060547, 0.8450928, 0.347229)
(0.184509277, 0.362060547, 0.8450928, 0.347229)
(0.184875488, 0.3619995, 0.8453369, 0.346496582)
(0.184875488, 0.3619995, 0.8453369, 0.346496582)
(0.184875488, 0.3619995, 0.8453369, 0.346496582)
(0.184997559, 0.361206055, 0.845947266, 0.3458252)
(0.1850586, 0.3607788, 0.8463745, 0.345214844)
(0.1850586, 0.3607788, 0.8463745, 0.345214844)
(0.185668945, 0.3618164, 0.845947266, 0.344726563)
(0.185668945, 0.3618164, 0.845947266, 0.344726563)
(0.1864624, 0.363464355, 0.8452759, 0.344238281)
(0.186889648, 0.364196777, 0.845031738, 0.343811035)
(0.186889648, 0.364196777, 0.845031738, 0.343811035)
(0.186401367, 0.363830566, 0.845397949, 0.34362793)
(0.186401367, 0.363830566, 0.845397949, 0.34362793)
(0.18572998, 0.3623047, 0.8463135, 0.343322754)
(0.18572998, 0.3623047, 0.8463135, 0.343322754)
(0.18572998, 0.3623047, 0.8463135, 0.343322754)
(0.185852051, 0.362121582, 0.8464966, 0.3430786)
(0.185852051, 0.362121582, 0.8464966, 0.3430786)
(0.186401367, 0.36315918, 0.8460083, 0.342773438)
(0.186401367, 0.36315918, 0.8460083, 0.342773438)
(0.186340332, 0.363586426, 0.84588623, 0.342651367)
(0.186340332, 0.363586426, 0.84588623, 0.342651367)
(0.185791016, 0.3619995, 0.846801758, 0.342468262)
(0.185791016, 0.3619995, 0.846801758, 0.342468262)
(0.18548584, 0.3605957, 0.8474121, 0.342468262)
(0.18548584, 0.3605957, 0.8474121, 0.342468262)
(0.185180664, 0.359863281, 0.8477783, 0.3425293)
(0.185180664, 0.359863281, 0.8477783, 0.3425293)
(0.1854248, 0.359375, 0.848022461, 0.3423462)
(0.186096191, 0.3600464, 0.84765625, 0.342224121)
(0.186096191, 0.3600464, 0.84765625, 0.342224121)
(0.186096191, 0.3600464, 0.84765625, 0.342224121)
(0.186218262, 0.360656738, 0.847473145, 0.342041016)
(0.186340332, 0.359985352, 0.8477783, 0.341796875)
(0.186340332, 0.359985352, 0.8477783, 0.341796875)
(0.186096191, 0.359130859, 0.848205566, 0.341796875)
(0.186096191, 0.359130859, 0.848205566, 0.341796875)
(0.186096191, 0.359130859, 0.848205566, 0.341796875)
(0.185791016, 0.358032227, 0.848876953, 0.341430664)
(0.185791016, 0.358032227, 0.848876953, 0.341430664)
(0.185852051, 0.3583374, 0.8487549, 0.341369629)
(0.185852051, 0.3583374, 0.8487549, 0.341369629)
(0.186096191, 0.358825684, 0.8485718, 0.341186523)
(0.186218262, 0.35925293, 0.8484497, 0.341003418)
(0.186218262, 0.35925293, 0.8484497, 0.341003418)
(0.186218262, 0.359375, 0.848510742, 0.340759277)
(0.186218262, 0.359375, 0.848510742, 0.340759277)
(0.186645508, 0.359680176, 0.848327637, 0.340698242)
(0.186645508, 0.359680176, 0.848327637, 0.340698242)
(0.186584473, 0.359680176, 0.848327637, 0.340698242)
(0.186584473, 0.359680176, 0.848327637, 0.340698242)
(0.186584473, 0.358947754, 0.848510742, 0.340942383)
(0.186340332, 0.358276367, 0.848693848, 0.341430664)
(0.186340332, 0.358276367, 0.848693848, 0.341430664)
(0.186340332, 0.358276367, 0.848693848, 0.341430664)
(0.186157227, 0.3585205, 0.848510742, 0.34173584)
(0.186157227, 0.3585205, 0.848510742, 0.34173584)
(0.18572998, 0.358276367, 0.8485718, 0.34197998)
(0.18548584, 0.358581543, 0.8484497, 0.342102051)
(0.1854248, 0.359436035, 0.848022461, 0.342285156)
(0.1854248, 0.359436035, 0.848022461, 0.342285156)
(0.18560791, 0.3600464, 0.8477173, 0.342285156)
(0.18560791, 0.3600464, 0.8477173, 0.342285156)
(0.1850586, 0.3602295, 0.8477173, 0.342468262)
(0.1850586, 0.3602295, 0.8477173, 0.342468262)
(0.1843872, 0.3600464, 0.8477783, 0.342773438)
(0.1843872, 0.3600464, 0.8477783, 0.342773438)
(0.184021, 0.360351563, 0.8475952, 0.343139648)
(0.184021, 0.360351563, 0.8475952, 0.343139648)
(0.1842041, 0.361755371, 0.8468628, 0.343444824)
(0.183776855, 0.3618164, 0.846801758, 0.343688965)
(0.183776855, 0.3618164, 0.846801758, 0.343688965)
(0.183044434, 0.360717773, 0.8474121, 0.343811035)
(0.183044434, 0.360717773, 0.8474121, 0.343811035)
(0.182678223, 0.360717773, 0.847473145, 0.34387207)
(0.182678223, 0.360717773, 0.847473145, 0.34387207)
(0.182861328, 0.361938477, 0.846984863, 0.343688965)
(0.182739258, 0.362792969, 0.8466797, 0.3435669)
(0.182739258, 0.362792969, 0.8466797, 0.3435669)
(0.182250977, 0.362243652, 0.8470459, 0.343505859)
(0.182250977, 0.362243652, 0.8470459, 0.343505859)
(0.18182373, 0.361938477, 0.847167969, 0.343688965)
(0.18182373, 0.361938477, 0.847167969, 0.343688965)
(0.18182373, 0.361938477, 0.847167969, 0.343688965)
(0.181640625, 0.3619995, 0.847106934, 0.3439331)
(0.181640625, 0.362365723, 0.8468628, 0.344055176)
(0.18145752, 0.3626709, 0.8467407, 0.3441162)
(0.18145752, 0.3626709, 0.8467407, 0.3441162)
(0.18145752, 0.3626709, 0.8467407, 0.3441162)
(0.18145752, 0.3626709, 0.8467407, 0.3441162)
(0.18145752, 0.3626709, 0.8467407, 0.3441162)
(0.18157959, 0.362854, 0.8467407, 0.3439331)
(0.1819458, 0.3632202, 0.8465576, 0.343811035)
(0.1819458, 0.3632202, 0.8465576, 0.343811035)
(0.181884766, 0.362915039, 0.8467407, 0.343688965)
(0.181884766, 0.362915039, 0.8467407, 0.343688965)
(0.182006836, 0.362548828, 0.846984863, 0.343444824)
(0.1821289, 0.362731934, 0.8469238, 0.343261719)
(0.1821289, 0.362731934, 0.8469238, 0.343261719)
(0.182250977, 0.3633423, 0.8467407, 0.342956543)
(0.182250977, 0.3633423, 0.8467407, 0.342956543)
(0.182067871, 0.363098145, 0.8470459, 0.342651367)
(0.1819458, 0.36328125, 0.847106934, 0.342407227)
(0.1819458, 0.36328125, 0.847106934, 0.342407227)
(0.182006836, 0.363647461, 0.846984863, 0.342285156)
(0.182006836, 0.363647461, 0.846984863, 0.342285156)
(0.1819458, 0.363830566, 0.8468628, 0.342468262)
(0.1819458, 0.363830566, 0.8468628, 0.342468262)
(0.18182373, 0.3638916, 0.846801758, 0.342590332)
(0.18182373, 0.3638916, 0.846801758, 0.342590332)
(0.1817627, 0.364196777, 0.8465576, 0.3428955)
(0.1817627, 0.364196777, 0.8465576, 0.3428955)
(0.18157959, 0.3640747, 0.8465576, 0.343017578)
(0.181274414, 0.363769531, 0.846801758, 0.342956543)
(0.181274414, 0.363769531, 0.846801758, 0.342956543)
(0.181335449, 0.363769531, 0.846801758, 0.342956543)
(0.181335449, 0.363769531, 0.846801758, 0.342956543)
(0.181335449, 0.3640747, 0.8468628, 0.3425293)
(0.181335449, 0.3640747, 0.8468628, 0.3425293)
(0.181091309, 0.364135742, 0.8470459, 0.3421631)
(0.181030273, 0.364196777, 0.847106934, 0.341918945)
(0.181030273, 0.364196777, 0.847106934, 0.341918945)
(0.181030273, 0.364868164, 0.846801758, 0.341918945)
(0.181030273, 0.364868164, 0.846801758, 0.341918945)
(0.1809082, 0.3656006, 0.8465576, 0.3418579)
(0.1809082, 0.3656006, 0.8465576, 0.3418579)
(0.180603027, 0.3656006, 0.8466797, 0.34173584)
(0.180603027, 0.3656006, 0.8466797, 0.34173584)
(0.180297852, 0.365356445, 0.8468628, 0.34161377)
(0.180053711, 0.365478516, 0.8468628, 0.34161377)
(0.180053711, 0.365478516, 0.8468628, 0.34161377)
(0.179992676, 0.3657837, 0.8467407, 0.3416748)
(0.179992676, 0.3657837, 0.8467407, 0.3416748)
(0.17980957, 0.366027832, 0.8465576, 0.341918945)
(0.17980957, 0.366027832, 0.8465576, 0.341918945)
(0.1795044, 0.366088867, 0.846435547, 0.342407227)
(0.1795044, 0.366088867, 0.846435547, 0.342407227)
(0.179199219, 0.366271973, 0.8461914, 0.342956543)
(0.179199219, 0.366271973, 0.8461914, 0.342956543)
(0.178894043, 0.3665161, 0.84588623, 0.3435669)
(0.178894043, 0.3665161, 0.84588623, 0.3435669)
(0.178283691, 0.366210938, 0.8460083, 0.3439331)
(0.177978516, 0.366577148, 0.84576416, 0.344238281)
(0.177978516, 0.366577148, 0.84576416, 0.344238281)
(0.177978516, 0.367736816, 0.845214844, 0.344360352)
(0.177978516, 0.367736816, 0.845214844, 0.344360352)
(0.177734375, 0.368835449, 0.8446655, 0.344665527)
(0.177307129, 0.368896484, 0.8446655, 0.344909668)
(0.177307129, 0.368896484, 0.8446655, 0.344909668)
(0.177307129, 0.368896484, 0.8446655, 0.344909668)
(0.177062988, 0.3694458, 0.8442383, 0.345397949)
(0.177062988, 0.3694458, 0.8442383, 0.345397949)
(0.177185059, 0.370178223, 0.84375, 0.34588623)
(0.177124023, 0.370361328, 0.8433838, 0.346557617)
(0.177124023, 0.370361328, 0.8433838, 0.346557617)
(0.176696777, 0.369812, 0.8433838, 0.347290039)
(0.176696777, 0.369812, 0.8433838, 0.347290039)
(0.176330566, 0.36932373, 0.8434448, 0.3479004)
(0.1762085, 0.369384766, 0.8432617, 0.348327637)
(0.1762085, 0.369384766, 0.8432617, 0.348327637)
(0.176147461, 0.369567871, 0.8430786, 0.3486328)
(0.176147461, 0.369567871, 0.8430786, 0.3486328)
(0.1762085, 0.369934082, 0.8428955, 0.3486328)
(0.1763916, 0.3701172, 0.8428955, 0.3482666)
(0.1763916, 0.3701172, 0.8428955, 0.3482666)
(0.1763916, 0.370178223, 0.8430786, 0.347839355)
(0.1763916, 0.370178223, 0.8430786, 0.347839355)
(0.176086426, 0.369873047, 0.8434448, 0.347473145)
(0.176086426, 0.369873047, 0.8434448, 0.347473145)
(0.17578125, 0.369812, 0.8436279, 0.3470459)
(0.17578125, 0.369812, 0.8436279, 0.3470459)
(0.175964355, 0.370788574, 0.843322754, 0.346801758)
(0.175964355, 0.370788574, 0.843322754, 0.346801758)
(0.176086426, 0.3717041, 0.842956543, 0.3466797)
(0.175720215, 0.371582031, 0.8430786, 0.346618652)
(0.175720215, 0.371582031, 0.8430786, 0.346618652)
(0.175720215, 0.371582031, 0.8430786, 0.346618652)
(0.175720215, 0.371582031, 0.8430786, 0.346618652)
(0.175537109, 0.371398926, 0.8432007, 0.346618652)
(0.175537109, 0.371398926, 0.8432007, 0.346618652)
(0.175537109, 0.371398926, 0.8432007, 0.346618652)
(0.17565918, 0.3717041, 0.843139648, 0.346496582)
(0.17565918, 0.3717041, 0.843139648, 0.346496582)
(0.17565918, 0.3717041, 0.843139648, 0.346496582)
(0.17565918, 0.372009277, 0.8430786, 0.346252441)
(0.17578125, 0.3723755, 0.842956543, 0.3460083)
(0.17578125, 0.3723755, 0.842956543, 0.3460083)
(0.17578125, 0.3723755, 0.842956543, 0.3460083)
(0.17578125, 0.3723755, 0.842956543, 0.3460083)
(0.17578125, 0.3723755, 0.842956543, 0.3460083)
(0.175720215, 0.372131348, 0.8430786, 0.3460083)
(0.175720215, 0.372131348, 0.8430786, 0.3460083)
(0.175964355, 0.3725586, 0.8428955, 0.34588623)
(0.175964355, 0.3725586, 0.8428955, 0.34588623)
(0.175964355, 0.372619629, 0.8428955, 0.34588623)
(0.175964355, 0.372619629, 0.8428955, 0.34588623)
(0.175842285, 0.372436523, 0.8430176, 0.34576416)
(0.175842285, 0.372436523, 0.8430176, 0.34576416)
(0.17590332, 0.372680664, 0.842956543, 0.345703125)
(0.17590332, 0.372680664, 0.842956543, 0.345703125)
(0.17590332, 0.3727417, 0.842956543, 0.345703125)
(0.17590332, 0.3727417, 0.842956543, 0.345703125)
(0.176025391, 0.372619629, 0.8428955, 0.3458252)
(0.176025391, 0.372619629, 0.8428955, 0.3458252)
(0.1762085, 0.372497559, 0.8428345, 0.3460083)
(0.1762085, 0.372497559, 0.8428345, 0.3460083)
(0.176147461, 0.371643066, 0.843139648, 0.3461914)
(0.176147461, 0.371643066, 0.843139648, 0.3461914)
(0.176086426, 0.371276855, 0.843322754, 0.3461914)
(0.176086426, 0.371276855, 0.843322754, 0.3461914)
(0.176086426, 0.3713379, 0.843322754, 0.3461914)
(0.176086426, 0.3713379, 0.843322754, 0.3461914)
(0.176086426, 0.3713379, 0.8432617, 0.3461914)
(0.176086426, 0.3713379, 0.8432617, 0.3461914)
(0.176147461, 0.37121582, 0.8432617, 0.346313477)
(0.176147461, 0.37121582, 0.8432617, 0.346313477)
(0.176147461, 0.37121582, 0.8432617, 0.346313477)
(0.176086426, 0.3706665, 0.843505859, 0.346435547)
(0.176086426, 0.3706665, 0.843505859, 0.346435547)
(0.1762085, 0.370910645, 0.8432007, 0.346801758)
(0.1762085, 0.370910645, 0.8432007, 0.346801758)
(0.176086426, 0.370788574, 0.843139648, 0.347229)
(0.17590332, 0.370056152, 0.843322754, 0.3475952)
(0.17590332, 0.370056152, 0.843322754, 0.3475952)
(0.17590332, 0.370056152, 0.843322754, 0.3475952)
(0.176025391, 0.369934082, 0.8432617, 0.347839355)
(0.176025391, 0.369934082, 0.8432617, 0.347839355)
(0.176147461, 0.369812, 0.8432007, 0.3480835)
(0.176269531, 0.3694458, 0.8432617, 0.348144531)
(0.176269531, 0.3694458, 0.8432617, 0.348144531)
(0.176635742, 0.36932373, 0.8432617, 0.348205566)
(0.176635742, 0.36932373, 0.8432617, 0.348205566)
(0.176635742, 0.36932373, 0.8432617, 0.348205566)
(0.177124023, 0.369506836, 0.8430176, 0.3482666)
(0.177185059, 0.36895752, 0.843139648, 0.348510742)
(0.177062988, 0.368164063, 0.843505859, 0.3486328)
(0.177062988, 0.368164063, 0.843505859, 0.3486328)
(0.177185059, 0.3682251, 0.8433838, 0.348754883)
(0.177185059, 0.3682251, 0.8433838, 0.348754883)
(0.177490234, 0.368652344, 0.8430786, 0.348815918)
(0.177490234, 0.368652344, 0.8430786, 0.348815918)
(0.177490234, 0.3682251, 0.8432007, 0.348938)
(0.177490234, 0.3682251, 0.8432007, 0.348938)
(0.177307129, 0.367614746, 0.8434448, 0.3491211)
(0.177307129, 0.367614746, 0.8434448, 0.3491211)
(0.177307129, 0.367614746, 0.8434448, 0.3491211)
(0.1774292, 0.367980957, 0.8432617, 0.349182129)
(0.1774292, 0.367980957, 0.8432617, 0.349182129)
(0.177490234, 0.368042, 0.8432617, 0.349182129)
(0.177490234, 0.368042, 0.8432617, 0.349182129)
(0.177307129, 0.367736816, 0.8433838, 0.349182129)
(0.177368164, 0.367736816, 0.8433838, 0.349182129)
(0.177368164, 0.367736816, 0.8433838, 0.349182129)
(0.1774292, 0.3678589, 0.8432617, 0.349182129)
(0.1774292, 0.3678589, 0.8432617, 0.349182129)
(0.1776123, 0.367736816, 0.8433838, 0.349060059)
(0.1776123, 0.367736816, 0.8433838, 0.349060059)
(0.17755127, 0.367492676, 0.843505859, 0.348938)
(0.17755127, 0.367492676, 0.843505859, 0.348938)
(0.17755127, 0.367492676, 0.843505859, 0.348938)
(0.17755127, 0.367492676, 0.843505859, 0.348938)
(0.1776123, 0.367492676, 0.8435669, 0.348938)
(0.17767334, 0.367797852, 0.843505859, 0.3486328)
(0.17767334, 0.367797852, 0.843505859, 0.3486328)
(0.177490234, 0.3675537, 0.84375, 0.348327637)
(0.177490234, 0.3675537, 0.84375, 0.348327637)
(0.17755127, 0.367614746, 0.8438721, 0.348022461)
(0.17755127, 0.367614746, 0.8438721, 0.348022461)
(0.17755127, 0.367797852, 0.8438721, 0.34777832)
(0.17755127, 0.367797852, 0.8438721, 0.34777832)
(0.1774292, 0.368042, 0.843994141, 0.347351074)
(0.1774292, 0.368042, 0.843994141, 0.347351074)
(0.1772461, 0.368103027, 0.844177246, 0.346984863)
(0.177062988, 0.368164063, 0.8442993, 0.346557617)
(0.177062988, 0.368164063, 0.8442993, 0.346557617)
(0.176879883, 0.3684082, 0.8444214, 0.346130371)
(0.176879883, 0.3684082, 0.8444214, 0.346130371)
(0.176635742, 0.368286133, 0.844726563, 0.345703125)
(0.176269531, 0.3684082, 0.844848633, 0.345458984)
(0.176269531, 0.3684082, 0.844848633, 0.345458984)
(0.1762085, 0.3685913, 0.844909668, 0.345214844)
(0.1762085, 0.3685913, 0.844909668, 0.345214844)
(0.17578125, 0.368286133, 0.8451538, 0.345031738)
(0.17578125, 0.368286133, 0.8451538, 0.345031738)
(0.175476074, 0.3678589, 0.845581055, 0.344665527)
(0.175476074, 0.3678589, 0.845581055, 0.344665527)
(0.175476074, 0.368286133, 0.84552, 0.344299316)
(0.175476074, 0.368286133, 0.84552, 0.344299316)
(0.175537109, 0.368713379, 0.845397949, 0.344055176)
(0.175292969, 0.368530273, 0.8456421, 0.343811035)
(0.175292969, 0.368530273, 0.8456421, 0.343811035)
(0.175109863, 0.368286133, 0.8458252, 0.34375)
(0.175109863, 0.368286133, 0.8458252, 0.34375)
(0.1751709, 0.3685913, 0.8456421, 0.343811035)
(0.1751709, 0.3685913, 0.8456421, 0.343811035)
(0.1751709, 0.3685913, 0.8456421, 0.343811035)
(0.1751709, 0.3685913, 0.8456421, 0.343811035)
(0.175231934, 0.3682251, 0.8458252, 0.34375)
(0.175231934, 0.3682251, 0.8458252, 0.34375)
(0.175354, 0.367797852, 0.845947266, 0.343811035)
(0.175598145, 0.367675781, 0.84588623, 0.343994141)
(0.175598145, 0.367675781, 0.84588623, 0.343994141)
(0.175598145, 0.367675781, 0.845947266, 0.343994141)
(0.175598145, 0.367675781, 0.845947266, 0.343994141)
(0.175476074, 0.3673706, 0.846069336, 0.34387207)
(0.175476074, 0.367492676, 0.8461304, 0.343688965)
(0.175476074, 0.367492676, 0.8461304, 0.343688965)
(0.175537109, 0.367919922, 0.846069336, 0.3433838)
(0.175537109, 0.367919922, 0.846069336, 0.3433838)
(0.175476074, 0.3682251, 0.8460083, 0.343139648)
(0.175476074, 0.3682251, 0.8460083, 0.343139648)
(0.175476074, 0.3682251, 0.8460083, 0.343139648)
(0.175048828, 0.367980957, 0.8463135, 0.3428955)
(0.175048828, 0.367980957, 0.8463135, 0.3428955)
(0.175048828, 0.367980957, 0.8463135, 0.3428955)
(0.1749878, 0.367797852, 0.846435547, 0.342773438)
(0.174865723, 0.367797852, 0.8465576, 0.342651367)
(0.174865723, 0.367797852, 0.8465576, 0.342651367)
(0.174560547, 0.367797852, 0.8466797, 0.342407227)
(0.174560547, 0.367797852, 0.8466797, 0.342407227)
(0.174438477, 0.367980957, 0.846801758, 0.34197998)
(0.174438477, 0.367980957, 0.846801758, 0.34197998)
(0.174438477, 0.368347168, 0.8468628, 0.341430664)
(0.1743164, 0.368896484, 0.8468628, 0.340942383)
(0.1743164, 0.368896484, 0.8468628, 0.340942383)
(0.17401123, 0.368713379, 0.847167969, 0.340515137)
(0.17401123, 0.368713379, 0.847167969, 0.340515137)
(0.17401123, 0.368713379, 0.847167969, 0.340515137)
(0.173828125, 0.368896484, 0.847229, 0.340271)
(0.17376709, 0.36920166, 0.847229, 0.340026855)
(0.17376709, 0.36920166, 0.847229, 0.340026855)
(0.173583984, 0.3692627, 0.8473511, 0.339660645)
(0.173583984, 0.3692627, 0.8473511, 0.339660645)
(0.173400879, 0.36920166, 0.847473145, 0.339477539)
(0.173217773, 0.36920166, 0.84765625, 0.3392334)
(0.173217773, 0.36920166, 0.84765625, 0.3392334)
(0.173217773, 0.36920166, 0.84765625, 0.3392334)
(0.173278809, 0.369567871, 0.8475952, 0.338928223)
(0.1730957, 0.369750977, 0.8477173, 0.338562)
(0.172729492, 0.36932373, 0.8480835, 0.338256836)
(0.172729492, 0.36932373, 0.8480835, 0.338256836)
(0.172607422, 0.3694458, 0.848144531, 0.3380127)
(0.172607422, 0.3694458, 0.848144531, 0.3380127)
(0.172851563, 0.370056152, 0.8479614, 0.337646484)
(0.172851563, 0.370056152, 0.8479614, 0.337646484)
(0.172851563, 0.3703003, 0.8479614, 0.337463379)
(0.172851563, 0.3703003, 0.8479614, 0.337463379)
(0.172363281, 0.369506836, 0.8484497, 0.3373413)
(0.172363281, 0.369506836, 0.8484497, 0.3373413)
(0.172363281, 0.369506836, 0.8484497, 0.3373413)
(0.172363281, 0.369506836, 0.8484497, 0.3373413)
(0.172363281, 0.369934082, 0.848327637, 0.337280273)
(0.172302246, 0.369750977, 0.848510742, 0.337036133)
(0.172302246, 0.369750977, 0.848510742, 0.337036133)
(0.172180176, 0.369384766, 0.848693848, 0.336853027)
(0.17199707, 0.36920166, 0.848876953, 0.336730957)
(0.17199707, 0.36920166, 0.848876953, 0.336730957)
(0.17199707, 0.36920166, 0.848876953, 0.336730957)
(0.17199707, 0.369018555, 0.848999, 0.3366089)
(0.17199707, 0.369018555, 0.848999, 0.3366089)
(0.171875, 0.368652344, 0.849243164, 0.336425781)
(0.171875, 0.368652344, 0.849243164, 0.336425781)
(0.171875, 0.368652344, 0.849243164, 0.336425781)
