(0.115905762, 0.353515625, 0.861084, 0.346496582)
(0.115905762, 0.353515625, 0.861084, 0.346496582)
(0.115722656, 0.3534546, 0.861084, 0.346557617)
(0.11529541, 0.35333252, 0.861145, 0.3466797)
(0.11529541, 0.35333252, 0.861145, 0.3466797)
(0.114868164, 0.352905273, 0.861206055, 0.3470459)
(0.114868164, 0.352905273, 0.861206055, 0.3470459)
(0.114562988, 0.352172852, 0.86138916, 0.347473145)
(0.114562988, 0.352172852, 0.86138916, 0.347473145)
(0.114013672, 0.35168457, 0.86151123, 0.3479004)
(0.114013672, 0.35168457, 0.86151123, 0.3479004)
(0.113525391, 0.350769043, 0.8617554, 0.348327637)
(0.112548828, 0.348022461, 0.862731934, 0.348938)
(0.112548828, 0.348022461, 0.862731934, 0.348938)
(0.111938477, 0.344482422, 0.8640137, 0.3494873)
(0.111938477, 0.344482422, 0.8640137, 0.3494873)
(0.110717773, 0.341003418, 0.8654175, 0.349853516)
(0.110717773, 0.341003418, 0.8654175, 0.349853516)
(0.110168457, 0.3406372, 0.8656006, 0.3499756)
(0.110168457, 0.3406372, 0.8656006, 0.3499756)
(0.110107422, 0.340942383, 0.8654785, 0.350036621)
(0.109924316, 0.33984375, 0.865905762, 0.3499756)
(0.109924316, 0.33984375, 0.865905762, 0.3499756)
(0.109191895, 0.337585449, 0.8668823, 0.350036621)
(0.109191895, 0.337585449, 0.8668823, 0.350036621)
(0.108215332, 0.335449219, 0.8676758, 0.3503418)
(0.108215332, 0.335449219, 0.8676758, 0.3503418)
(0.10723877, 0.33416748, 0.868164063, 0.350830078)
(0.10723877, 0.33416748, 0.868164063, 0.350830078)
(0.10723877, 0.332336426, 0.8688965, 0.350646973)
(0.10723877, 0.332336426, 0.8688965, 0.350646973)
(0.1083374, 0.331726074, 0.8687744, 0.351257324)
(0.108093262, 0.331481934, 0.8685913, 0.351989746)
(0.108093262, 0.331481934, 0.8685913, 0.351989746)
(0.107543945, 0.329223633, 0.8694458, 0.352111816)
(0.10760498, 0.328674316, 0.869384766, 0.352844238)
(0.10760498, 0.328674316, 0.869384766, 0.352844238)
(0.10748291, 0.327392578, 0.869812, 0.353027344)
(0.10748291, 0.327392578, 0.869812, 0.353027344)
(0.106933594, 0.326843262, 0.8701782, 0.352722168)
(0.106933594, 0.326843262, 0.8701782, 0.352722168)
(0.1071167, 0.3287964, 0.8691406, 0.353393555)
(0.1071167, 0.3287964, 0.8691406, 0.353393555)
(0.108093262, 0.330505371, 0.868042, 0.354248047)
(0.108093262, 0.330505371, 0.868042, 0.354248047)
(0.108398438, 0.3289795, 0.868042, 0.35559082)
(0.108398438, 0.3289795, 0.868042, 0.35559082)
(0.106811523, 0.324523926, 0.870239258, 0.354797363)
(0.105834961, 0.323547363, 0.870727539, 0.354736328)
(0.105834961, 0.323547363, 0.870727539, 0.354736328)
(0.106323242, 0.3256836, 0.869751, 0.3550415)
(0.106323242, 0.3256836, 0.869751, 0.3550415)
(0.106811523, 0.3272705, 0.868835449, 0.355651855)
(0.106567383, 0.326599121, 0.8690796, 0.355834961)
(0.106567383, 0.326599121, 0.8690796, 0.355834961)
(0.106567383, 0.326599121, 0.8690796, 0.355834961)
(0.105224609, 0.3241577, 0.870422363, 0.355163574)
(0.104248047, 0.323547363, 0.8710327, 0.354553223)
(0.104248047, 0.323547363, 0.8710327, 0.354553223)
(0.104125977, 0.32421875, 0.870727539, 0.3546753)
(0.104125977, 0.32421875, 0.870727539, 0.3546753)
(0.104431152, 0.324584961, 0.8703613, 0.355102539)
(0.104431152, 0.324584961, 0.8703613, 0.355102539)
(0.104187012, 0.323913574, 0.8706665, 0.355102539)
(0.103637695, 0.322998047, 0.8712158, 0.3546753)
(0.103637695, 0.322998047, 0.8712158, 0.3546753)
(0.103210449, 0.3223877, 0.871582031, 0.354431152)
(0.103210449, 0.3223877, 0.871582031, 0.354431152)
(0.102966309, 0.322509766, 0.871521, 0.3544922)
(0.102966309, 0.322509766, 0.871521, 0.3544922)
(0.10345459, 0.322509766, 0.8713379, 0.3548584)
(0.10345459, 0.322509766, 0.8713379, 0.3548584)
(0.10357666, 0.321838379, 0.8717041, 0.354614258)
(0.10357666, 0.321838379, 0.8717041, 0.354614258)
(0.103271484, 0.321289063, 0.872131348, 0.354125977)
(0.102478027, 0.320800781, 0.872497559, 0.3538208)
(0.102478027, 0.320800781, 0.872497559, 0.3538208)
(0.102478027, 0.320800781, 0.872497559, 0.3538208)
(0.101989746, 0.321411133, 0.872314453, 0.3540039)
(0.101745605, 0.322021484, 0.871948242, 0.354309082)
(0.1015625, 0.322265625, 0.8718262, 0.354553223)
(0.1015625, 0.322265625, 0.8718262, 0.354553223)
(0.101318359, 0.322692871, 0.871765137, 0.354309082)
(0.101318359, 0.322692871, 0.871765137, 0.354309082)
(0.101135254, 0.3236084, 0.871459961, 0.354309082)
(0.101135254, 0.3236084, 0.871459961, 0.354309082)
(0.100952148, 0.323852539, 0.871276855, 0.3544922)
(0.100952148, 0.323852539, 0.871276855, 0.3544922)
(0.101074219, 0.3241577, 0.87109375, 0.354614258)
(0.101074219, 0.3241577, 0.87109375, 0.354614258)
(0.101379395, 0.324646, 0.8708496, 0.354797363)
(0.101196289, 0.3244629, 0.8709717, 0.3546753)
(0.101196289, 0.3244629, 0.8709717, 0.3546753)
(0.100646973, 0.3241577, 0.8712158, 0.3544922)
(0.100646973, 0.3241577, 0.8712158, 0.3544922)
(0.100280762, 0.3239746, 0.8713379, 0.354431152)
(0.100219727, 0.3241577, 0.8711548, 0.354736328)
(0.100219727, 0.3241577, 0.8711548, 0.354736328)
(0.100219727, 0.3241577, 0.8711548, 0.354736328)
(0.100280762, 0.32409668, 0.87109375, 0.354980469)
(0.100280762, 0.32409668, 0.87109375, 0.354980469)
(0.100036621, 0.323730469, 0.871276855, 0.354919434)
(0.09967041, 0.3236084, 0.871459961, 0.354614258)
(0.09967041, 0.3236084, 0.871459961, 0.354614258)
(0.0993652344, 0.323669434, 0.871459961, 0.3546753)
(0.0993652344, 0.323669434, 0.871459961, 0.3546753)
(0.0993652344, 0.323852539, 0.871276855, 0.354919434)
(0.0997314453, 0.3241577, 0.8710327, 0.355285645)
(0.0997314453, 0.3241577, 0.8710327, 0.355285645)
(0.09942627, 0.323547363, 0.8713989, 0.354919434)
(0.09942627, 0.323547363, 0.8713989, 0.354919434)
(0.09887695, 0.3234253, 0.871643066, 0.3546753)
(0.09887695, 0.3234253, 0.871643066, 0.3546753)
(0.09875488, 0.3239746, 0.871459961, 0.354614258)
(0.09875488, 0.3239746, 0.871459961, 0.354614258)
(0.09875488, 0.3241577, 0.8712158, 0.354980469)
(0.09875488, 0.3241577, 0.8712158, 0.354980469)
(0.09899902, 0.3248291, 0.8709717, 0.3550415)
(0.09899902, 0.3244629, 0.8710327, 0.355102539)
(0.09899902, 0.3244629, 0.8710327, 0.355102539)
(0.09857178, 0.323913574, 0.871276855, 0.355163574)
(0.09857178, 0.323913574, 0.871276855, 0.355163574)
(0.09844971, 0.32409668, 0.8711548, 0.3554077)
(0.09851074, 0.324707031, 0.8707886, 0.355651855)
(0.09851074, 0.324707031, 0.8707886, 0.355651855)
(0.09863281, 0.324951172, 0.870605469, 0.355896)
(0.09863281, 0.324951172, 0.870605469, 0.355896)
(0.09863281, 0.324951172, 0.870605469, 0.355896)
(0.09857178, 0.3244629, 0.8706665, 0.356140137)
(0.09863281, 0.32409668, 0.8706665, 0.356506348)
(0.09863281, 0.32409668, 0.8706665, 0.356506348)
(0.09875488, 0.324401855, 0.870422363, 0.356811523)
(0.09875488, 0.324401855, 0.870422363, 0.356811523)
(0.09899902, 0.32434082, 0.870239258, 0.357177734)
(0.09899902, 0.32434082, 0.870239258, 0.357177734)
(0.09906006, 0.3239746, 0.870239258, 0.357421875)
(0.0993652344, 0.324035645, 0.870239258, 0.35736084)
(0.0993652344, 0.324035645, 0.870239258, 0.35736084)
(0.09979248, 0.324401855, 0.870056152, 0.35736084)
(0.09979248, 0.324401855, 0.870056152, 0.35736084)
(0.09967041, 0.323852539, 0.870239258, 0.3574829)
(0.09967041, 0.323852539, 0.870239258, 0.3574829)
(0.0997314453, 0.323486328, 0.870239258, 0.357727051)
(0.0997314453, 0.323486328, 0.870239258, 0.357727051)
(0.09991455, 0.323181152, 0.8703003, 0.3577881)
(0.09991455, 0.323181152, 0.8703003, 0.3577881)
(0.1003418, 0.3232422, 0.8703003, 0.357727051)
(0.100769043, 0.322937, 0.8703003, 0.3577881)
(0.100769043, 0.322937, 0.8703003, 0.3577881)
(0.100830078, 0.3225708, 0.8703003, 0.358093262)
(0.100830078, 0.3225708, 0.8703003, 0.358093262)
(0.100830078, 0.3225708, 0.8703003, 0.358093262)
(0.100830078, 0.3225708, 0.8703003, 0.358093262)
(0.100585938, 0.322631836, 0.870239258, 0.3583374)
(0.100585938, 0.322631836, 0.870239258, 0.3583374)
(0.100708008, 0.322814941, 0.870056152, 0.358581543)
(0.100952148, 0.322875977, 0.869812, 0.358947754)
(0.100952148, 0.322875977, 0.869812, 0.358947754)
(0.101318359, 0.322692871, 0.869689941, 0.359436035)
(0.101318359, 0.322692871, 0.869689941, 0.359436035)
(0.10168457, 0.322509766, 0.869506836, 0.359924316)
(0.10168457, 0.322509766, 0.869506836, 0.359924316)
(0.101989746, 0.3223877, 0.8692627, 0.3604126)
(0.102416992, 0.322021484, 0.86920166, 0.360839844)
(0.102416992, 0.322021484, 0.86920166, 0.360839844)
(0.102966309, 0.321777344, 0.8690796, 0.361206055)
(0.102966309, 0.321777344, 0.8690796, 0.361206055)
(0.1038208, 0.3217163, 0.8688965, 0.3614502)
(0.1038208, 0.3217163, 0.8688965, 0.3614502)
(0.104492188, 0.321411133, 0.8688965, 0.3616333)
(0.104492188, 0.321411133, 0.8688965, 0.3616333)
(0.10534668, 0.321167, 0.868835449, 0.361572266)
(0.1060791, 0.320800781, 0.8688965, 0.361572266)
(0.1060791, 0.320800781, 0.8688965, 0.361572266)
(0.106872559, 0.3206787, 0.868835449, 0.3616333)
(0.106872559, 0.3206787, 0.868835449, 0.3616333)
(0.108032227, 0.320556641, 0.868652344, 0.3618164)
(0.108032227, 0.320556641, 0.868652344, 0.3618164)
(0.109191895, 0.3201294, 0.8687134, 0.361755371)
(0.110351563, 0.3196411, 0.8687134, 0.3618164)
(0.110351563, 0.3196411, 0.8687134, 0.3618164)
(0.11138916, 0.318969727, 0.868835449, 0.3618164)
(0.11138916, 0.318969727, 0.868835449, 0.3618164)
(0.112182617, 0.318481445, 0.8688965, 0.3618164)
(0.112915039, 0.31817627, 0.869018555, 0.3616333)
(0.112915039, 0.31817627, 0.869018555, 0.3616333)
(0.11340332, 0.317932129, 0.8690796, 0.36138916)
(0.11340332, 0.317932129, 0.8690796, 0.36138916)
(0.113830566, 0.317749023, 0.86920166, 0.361206055)
(0.113830566, 0.317749023, 0.86920166, 0.361206055)
(0.114257813, 0.317749023, 0.8692627, 0.360839844)
(0.114257813, 0.317749023, 0.8692627, 0.360839844)
(0.114624023, 0.317688, 0.869384766, 0.360534668)
(0.114624023, 0.317688, 0.869384766, 0.360534668)
(0.114807129, 0.317504883, 0.8694458, 0.360473633)
(0.114807129, 0.317504883, 0.8694458, 0.360473633)
(0.115112305, 0.3178711, 0.8692627, 0.360534668)
(0.115112305, 0.3178711, 0.8692627, 0.360534668)
(0.115112305, 0.3178711, 0.8692627, 0.360534668)
(0.114685059, 0.316711426, 0.8699341, 0.3600464)
(0.114685059, 0.316711426, 0.8699341, 0.3600464)
(0.114440918, 0.31640625, 0.870239258, 0.359680176)
(0.114440918, 0.31640625, 0.870239258, 0.359680176)
(0.1149292, 0.31628418, 0.870056152, 0.360107422)
(0.1149292, 0.31628418, 0.870056152, 0.360107422)
(0.115905762, 0.3170166, 0.8695679, 0.360290527)
(0.116394043, 0.318359375, 0.8691406, 0.3600464)
(0.116394043, 0.318359375, 0.8691406, 0.3600464)
(0.116210938, 0.3184204, 0.8692627, 0.359680176)
(0.116210938, 0.3184204, 0.8692627, 0.359680176)
(0.11541748, 0.318481445, 0.8694458, 0.359436035)
(0.11517334, 0.3190918, 0.8692627, 0.35949707)
(0.11517334, 0.3190918, 0.8692627, 0.35949707)
(0.11517334, 0.319763184, 0.8689575, 0.3595581)
(0.11517334, 0.319763184, 0.8689575, 0.3595581)
(0.114990234, 0.319763184, 0.8689575, 0.3595581)
(0.114990234, 0.319763184, 0.8689575, 0.3595581)
(0.114990234, 0.319763184, 0.8689575, 0.3595581)
(0.114746094, 0.319396973, 0.8691406, 0.3595581)
(0.114746094, 0.319335938, 0.86920166, 0.3595581)
(0.114746094, 0.319335938, 0.86920166, 0.3595581)
(0.1149292, 0.319763184, 0.869018555, 0.35949707)
(0.1149292, 0.319763184, 0.869018555, 0.35949707)
(0.115478516, 0.3204956, 0.8687744, 0.35925293)
(0.115600586, 0.3204956, 0.8688965, 0.358947754)
(0.115600586, 0.3204956, 0.8688965, 0.358947754)
(0.115600586, 0.3204956, 0.8688965, 0.358947754)
(0.115600586, 0.3204956, 0.8688965, 0.358947754)
(0.115600586, 0.320556641, 0.8688965, 0.358947754)
(0.115600586, 0.320556641, 0.8688965, 0.358947754)
(0.11541748, 0.320373535, 0.869018555, 0.358764648)
(0.11541748, 0.320373535, 0.869018555, 0.358764648)
(0.11529541, 0.320373535, 0.8691406, 0.3585205)
(0.11529541, 0.320373535, 0.8691406, 0.3585205)
(0.115234375, 0.320800781, 0.8690796, 0.3583374)
(0.11529541, 0.321472168, 0.868835449, 0.358276367)
(0.11529541, 0.321472168, 0.868835449, 0.358276367)
(0.11517334, 0.322021484, 0.868652344, 0.358276367)
(0.11517334, 0.322021484, 0.868652344, 0.358276367)
(0.114868164, 0.322265625, 0.8687134, 0.358093262)
(0.114868164, 0.322265625, 0.8687134, 0.358093262)
(0.114624023, 0.3227539, 0.8685913, 0.3579712)
(0.114624023, 0.3227539, 0.8685913, 0.3579712)
(0.114318848, 0.322998047, 0.8685913, 0.357910156)
(0.114013672, 0.323303223, 0.8685303, 0.357849121)
(0.114013672, 0.323303223, 0.8685303, 0.357849121)
(0.113708496, 0.323486328, 0.868652344, 0.3574829)
(0.113708496, 0.323486328, 0.868652344, 0.3574829)
(0.113342285, 0.323730469, 0.8687744, 0.3571167)
(0.113342285, 0.323730469, 0.8687744, 0.3571167)
(0.11315918, 0.3239746, 0.868835449, 0.3567505)
(0.112792969, 0.3241577, 0.8688965, 0.3564453)
(0.112792969, 0.3241577, 0.8688965, 0.3564453)
(0.112487793, 0.324523926, 0.8688965, 0.3562622)
(0.112487793, 0.324523926, 0.8688965, 0.3562622)
(0.112060547, 0.324584961, 0.8689575, 0.356140137)
(0.111755371, 0.324523926, 0.8690796, 0.356140137)
(0.111755371, 0.324523926, 0.8690796, 0.356140137)
(0.11151123, 0.324401855, 0.8690796, 0.356323242)
(0.11151123, 0.324401855, 0.8690796, 0.356323242)
(0.111206055, 0.3241577, 0.86920166, 0.3562622)
(0.111206055, 0.3241577, 0.86920166, 0.3562622)
(0.110778809, 0.324035645, 0.869384766, 0.356140137)
(0.110778809, 0.324035645, 0.869384766, 0.356140137)
(0.110534668, 0.323852539, 0.869506836, 0.355957031)
(0.110534668, 0.323852539, 0.869506836, 0.355957031)
(0.110290527, 0.324035645, 0.8695679, 0.355834961)
(0.110351563, 0.324035645, 0.8695679, 0.355773926)
(0.110351563, 0.324035645, 0.8695679, 0.355773926)
(0.110351563, 0.323852539, 0.869689941, 0.355651855)
(0.110351563, 0.323852539, 0.869689941, 0.355651855)
(0.110290527, 0.323547363, 0.869873047, 0.35546875)
(0.110534668, 0.323547363, 0.8699341, 0.35534668)
(0.110534668, 0.323547363, 0.8699341, 0.35534668)
(0.111083984, 0.323547363, 0.869873047, 0.3552246)
(0.111083984, 0.323547363, 0.869873047, 0.3552246)
(0.1116333, 0.323364258, 0.8699951, 0.3550415)
(0.1116333, 0.323364258, 0.8699951, 0.3550415)
(0.111938477, 0.322937, 0.8701172, 0.354919434)
(0.111938477, 0.322937, 0.8701172, 0.354919434)
(0.112365723, 0.322937, 0.8701172, 0.354736328)
(0.112365723, 0.322937, 0.8701172, 0.354736328)
(0.112731934, 0.322937, 0.8701172, 0.3546753)
(0.113037109, 0.323059082, 0.8699951, 0.3546753)
(0.113037109, 0.323059082, 0.8699951, 0.3546753)
(0.113220215, 0.322875977, 0.8701172, 0.354553223)
(0.113220215, 0.322875977, 0.8701172, 0.354553223)
(0.11315918, 0.322509766, 0.8703613, 0.354370117)
(0.11315918, 0.32244873, 0.8703613, 0.354370117)
(0.11315918, 0.32244873, 0.8703613, 0.354370117)
(0.11315918, 0.32244873, 0.8703613, 0.354370117)
(0.113220215, 0.322631836, 0.8703003, 0.354370117)
(0.113220215, 0.322631836, 0.8703003, 0.354370117)
(0.112976074, 0.322631836, 0.8703613, 0.354309082)
(0.112792969, 0.322509766, 0.8704834, 0.354064941)
(0.112792969, 0.322509766, 0.8704834, 0.354064941)
(0.112609863, 0.322814941, 0.8704834, 0.353942871)
(0.112609863, 0.322814941, 0.8704834, 0.353942871)
(0.112487793, 0.323303223, 0.8703613, 0.353881836)
(0.112243652, 0.323364258, 0.8703613, 0.353881836)
(0.112243652, 0.323364258, 0.8703613, 0.353881836)
(0.111999512, 0.322998047, 0.8704834, 0.353942871)
(0.111999512, 0.322998047, 0.8704834, 0.353942871)
(0.111755371, 0.322875977, 0.870544434, 0.353942871)
(0.111755371, 0.322875977, 0.870544434, 0.353942871)
(0.1116333, 0.322937, 0.870544434, 0.353942871)
(0.1116333, 0.322937, 0.870544434, 0.353942871)
(0.11138916, 0.3227539, 0.870605469, 0.354064941)
(0.11138916, 0.3227539, 0.870605469, 0.354064941)
(0.111022949, 0.322631836, 0.8706665, 0.354187)
(0.111022949, 0.322631836, 0.8706665, 0.354187)
(0.111022949, 0.322875977, 0.870544434, 0.354187)
(0.111083984, 0.322937, 0.870544434, 0.354125977)
(0.111083984, 0.322937, 0.870544434, 0.354125977)
(0.111022949, 0.323120117, 0.870544434, 0.3540039)
(0.111022949, 0.323120117, 0.870544434, 0.3540039)
(0.110961914, 0.323364258, 0.870544434, 0.3538208)
(0.110961914, 0.3234253, 0.870544434, 0.3538208)
(0.110961914, 0.3234253, 0.870544434, 0.3538208)
(0.110961914, 0.3234253, 0.870544434, 0.3538208)
(0.110961914, 0.3234253, 0.870544434, 0.3538208)
(0.111022949, 0.3234253, 0.870544434, 0.3538208)
(0.111022949, 0.3234253, 0.870544434, 0.3538208)
(0.111022949, 0.3234253, 0.870544434, 0.3538208)
(0.111022949, 0.3234253, 0.870544434, 0.3538208)
(0.111083984, 0.3232422, 0.870544434, 0.353881836)
(0.111083984, 0.3232422, 0.870544434, 0.353881836)
(0.111083984, 0.3232422, 0.870544434, 0.353881836)
(0.111083984, 0.3232422, 0.870544434, 0.353881836)
(0.111083984, 0.3232422, 0.870544434, 0.353881836)
(0.11114502, 0.3232422, 0.870544434, 0.353881836)
(0.11114502, 0.3232422, 0.870544434, 0.353881836)
(0.11114502, 0.3232422, 0.870544434, 0.353881836)
(0.111206055, 0.323303223, 0.870544434, 0.3538208)
(0.111206055, 0.323303223, 0.870544434, 0.3538208)
(0.111206055, 0.323303223, 0.870544434, 0.3538208)
(0.111022949, 0.3232422, 0.870544434, 0.3538208)
(0.111083984, 0.3232422, 0.870605469, 0.353759766)
(0.111083984, 0.3232422, 0.870605469, 0.353759766)
(0.111022949, 0.323059082, 0.8706665, 0.353759766)
(0.111022949, 0.323059082, 0.8706665, 0.353759766)
(0.111022949, 0.323059082, 0.8706665, 0.353759766)
(0.111022949, 0.323059082, 0.8706665, 0.353759766)
(0.111083984, 0.323120117, 0.8706665, 0.353759766)
(0.110900879, 0.322998047, 0.8707886, 0.35357666)
(0.110900879, 0.322998047, 0.8707886, 0.35357666)
(0.110656738, 0.322631836, 0.870910645, 0.3536377)
(0.110656738, 0.322631836, 0.870910645, 0.3536377)
(0.1104126, 0.3223877, 0.8709717, 0.3538208)
(0.1104126, 0.3223877, 0.8709717, 0.3538208)
(0.110107422, 0.322143555, 0.8709717, 0.354064941)
(0.110107422, 0.322143555, 0.8709717, 0.354064941)
(0.109619141, 0.321655273, 0.8711548, 0.354248047)
(0.109619141, 0.321655273, 0.8711548, 0.354248047)
(0.109069824, 0.320861816, 0.871521, 0.354248047)
(0.108825684, 0.320739746, 0.8717041, 0.354064941)
(0.108825684, 0.320739746, 0.8717041, 0.354064941)
(0.108947754, 0.320922852, 0.871765137, 0.3536377)
(0.108947754, 0.320922852, 0.871765137, 0.3536377)
(0.108947754, 0.320739746, 0.8720703, 0.353088379)
(0.108886719, 0.320617676, 0.872314453, 0.352478027)
(0.108886719, 0.320617676, 0.872314453, 0.352478027)
(0.108825684, 0.3209839, 0.8724365, 0.351989746)
(0.108825684, 0.3209839, 0.8724365, 0.351989746)
(0.108642578, 0.321411133, 0.8724365, 0.351623535)
(0.108642578, 0.321411133, 0.8724365, 0.351623535)
(0.108398438, 0.3217163, 0.8724365, 0.35144043)
(0.108398438, 0.3217163, 0.8724365, 0.35144043)
(0.108398438, 0.321777344, 0.8724365, 0.35144043)
(0.108398438, 0.321777344, 0.8724365, 0.35144043)
(0.108398438, 0.3217163, 0.8723755, 0.351623535)
(0.108459473, 0.3217163, 0.8723755, 0.351623535)
(0.108459473, 0.3217163, 0.8723755, 0.351623535)
(0.108459473, 0.3217163, 0.8723755, 0.351623535)
(0.108459473, 0.3217163, 0.8723755, 0.351623535)
(0.108520508, 0.3217163, 0.8723755, 0.3515625)
(0.108581543, 0.3217163, 0.8723755, 0.3515625)
(0.108581543, 0.3217163, 0.8723755, 0.3515625)
(0.109008789, 0.321472168, 0.8724365, 0.351501465)
(0.109008789, 0.321472168, 0.8724365, 0.351501465)
(0.109375, 0.321105957, 0.872497559, 0.3515625)
(0.109375, 0.321105957, 0.872497559, 0.3515625)
(0.109802246, 0.320800781, 0.8724365, 0.3517456)
(0.109802246, 0.320800781, 0.8724365, 0.3517456)
(0.109802246, 0.320800781, 0.8724365, 0.3517456)
(0.110229492, 0.32043457, 0.8723755, 0.352111816)
(0.110229492, 0.32043457, 0.8723755, 0.352111816)
(0.110534668, 0.3199463, 0.872314453, 0.352661133)
(0.110900879, 0.319519043, 0.8721924, 0.353271484)
(0.111328125, 0.3189087, 0.8720703, 0.353881836)
(0.111328125, 0.3189087, 0.8720703, 0.353881836)
(0.111877441, 0.318481445, 0.871948242, 0.3544922)
(0.111877441, 0.318481445, 0.871948242, 0.3544922)
(0.112365723, 0.317993164, 0.8718262, 0.355102539)
(0.112365723, 0.317993164, 0.8718262, 0.355102539)
(0.112854004, 0.317688, 0.871643066, 0.355651855)
(0.112854004, 0.317688, 0.871643066, 0.355651855)
(0.11340332, 0.317443848, 0.871459961, 0.356140137)
(0.11340332, 0.317443848, 0.871459961, 0.356140137)
(0.114074707, 0.3173828, 0.871276855, 0.356506348)
(0.114501953, 0.316955566, 0.8712158, 0.3567505)
(0.114501953, 0.316955566, 0.8712158, 0.3567505)
(0.114501953, 0.316955566, 0.8712158, 0.3567505)
(0.114990234, 0.31628418, 0.871276855, 0.357177734)
(0.115600586, 0.315979, 0.8711548, 0.3574829)
(0.116271973, 0.315856934, 0.8710327, 0.357666016)
(0.116271973, 0.315856934, 0.8710327, 0.357666016)
(0.116638184, 0.315490723, 0.8710327, 0.357849121)
(0.116638184, 0.315490723, 0.8710327, 0.357849121)
(0.116882324, 0.3151245, 0.8710327, 0.358093262)
(0.116882324, 0.3151245, 0.8710327, 0.358093262)
(0.1171875, 0.314880371, 0.870910645, 0.358581543)
(0.1171875, 0.314880371, 0.870910645, 0.358581543)
(0.117553711, 0.314697266, 0.870605469, 0.35925293)
(0.117553711, 0.314697266, 0.870605469, 0.35925293)
(0.117614746, 0.314208984, 0.8704834, 0.3600464)
(0.117492676, 0.313476563, 0.8703613, 0.361022949)
(0.117492676, 0.313476563, 0.8703613, 0.361022949)
(0.117553711, 0.313049316, 0.8701172, 0.361877441)
(0.117553711, 0.313049316, 0.8701172, 0.361877441)
(0.117736816, 0.312927246, 0.869812, 0.3626709)
(0.117797852, 0.3126831, 0.8696289, 0.36328125)
(0.117797852, 0.3126831, 0.8696289, 0.36328125)
(0.117858887, 0.3125, 0.869506836, 0.3637085)
(0.117858887, 0.3125, 0.869506836, 0.3637085)
(0.117858887, 0.3125, 0.869506836, 0.3637085)
(0.118103027, 0.3123169, 0.8694458, 0.363952637)
(0.118103027, 0.3123169, 0.8694458, 0.363952637)
(0.1182251, 0.312011719, 0.8694458, 0.364196777)
(0.118286133, 0.311767578, 0.8694458, 0.364440918)
(0.118286133, 0.311767578, 0.8694458, 0.364440918)
(0.1182251, 0.3112793, 0.869506836, 0.364685059)
(0.117919922, 0.310302734, 0.869751, 0.364990234)
(0.117919922, 0.310302734, 0.869751, 0.364990234)
(0.117797852, 0.309448242, 0.8699951, 0.3651123)
(0.117797852, 0.309448242, 0.8699951, 0.3651123)
(0.118164063, 0.309143066, 0.8701782, 0.364990234)
(0.118164063, 0.309143066, 0.8701782, 0.364990234)
(0.118530273, 0.30871582, 0.8704834, 0.364440918)
(0.118530273, 0.30871582, 0.8704834, 0.364440918)
(0.118713379, 0.30847168, 0.870910645, 0.363586426)
(0.118713379, 0.30847168, 0.870910645, 0.363586426)
(0.11895752, 0.30859375, 0.8712158, 0.362609863)
(0.119018555, 0.308959961, 0.871459961, 0.361694336)
(0.119018555, 0.308959961, 0.871459961, 0.361694336)
(0.118896484, 0.309448242, 0.871643066, 0.3609619)
(0.118896484, 0.309448242, 0.871643066, 0.3609619)
(0.118652344, 0.3098755, 0.8717041, 0.360473633)
