(-0.0111694336, 0.278930664, -0.7732544, 0.5692749)
(-0.0111694336, 0.278930664, -0.7732544, 0.5692749)
(-0.0111694336, 0.2789917, -0.7732544, 0.5692749)
(-0.0111694336, 0.2789917, -0.7732544, 0.5692749)
(-0.0111083984, 0.278930664, -0.7732544, 0.5692749)
(-0.0111083984, 0.278930664, -0.7732544, 0.5692749)
(-0.0111083984, 0.278930664, -0.7732544, 0.569335938)
(-0.0111083984, 0.278930664, -0.7732544, 0.569335938)
(-0.0111083984, 0.278930664, -0.7732544, 0.569335938)
(-0.0111083984, 0.278930664, -0.7732544, 0.569335938)
(-0.0111083984, 0.278930664, -0.7732544, 0.569335938)
(-0.0110473633, 0.278930664, -0.773193359, 0.569397)
(-0.0110473633, 0.278930664, -0.773193359, 0.569397)
(-0.0110473633, 0.278930664, -0.773193359, 0.569397)
(-0.0109863281, 0.278930664, -0.773193359, 0.569397)
(-0.0109863281, 0.278930664, -0.773193359, 0.569397)
(-0.0109863281, 0.2789917, -0.773193359, 0.569397)
(-0.0109863281, 0.2789917, -0.773193359, 0.569397)
(-0.0109863281, 0.2789917, -0.773193359, 0.569397)
(-0.0109863281, 0.2789917, -0.773193359, 0.569397)
(-0.010925293, 0.2791748, -0.7730713, 0.569397)
(-0.010925293, 0.2791748, -0.7730713, 0.569397)
(-0.010925293, 0.2791748, -0.7730713, 0.569397)
(-0.010925293, 0.2791748, -0.7730713, 0.569397)
(-0.010925293, 0.2791748, -0.7730713, 0.569458)
(-0.0108642578, 0.27923584, -0.7730713, 0.569458)
(-0.0111694336, 0.27947998, -0.7729492, 0.569458)
(-0.0112304688, 0.27947998, -0.7728882, 0.5695801)
(-0.0113525391, 0.2796631, -0.7727051, 0.569702148)
(-0.0113525391, 0.2796631, -0.7727051, 0.569702148)
(-0.01171875, 0.279968262, -0.772460938, 0.569885254)
(-0.01171875, 0.279968262, -0.772460938, 0.569885254)
(-0.0117797852, 0.2802124, -0.772338867, 0.5699463)
(-0.0117797852, 0.280151367, -0.772338867, 0.5699463)
(-0.0117797852, 0.280151367, -0.772338867, 0.5699463)
(-0.0116577148, 0.280456543, -0.7722168, 0.5699463)
(-0.0116577148, 0.280456543, -0.7722168, 0.5699463)
(-0.0116577148, 0.280517578, -0.7722168, 0.5699463)
(-0.0116577148, 0.280517578, -0.7722168, 0.5699463)
(-0.0115356445, 0.2803955, -0.772277832, 0.5699463)
(-0.0116577148, 0.280456543, -0.772277832, 0.569885254)
(-0.0116577148, 0.280456543, -0.772277832, 0.569885254)
(-0.0116577148, 0.280456543, -0.772277832, 0.569885254)
(-0.0116577148, 0.280456543, -0.772277832, 0.569885254)
(-0.0116577148, 0.280456543, -0.772277832, 0.569885254)
(-0.0115356445, 0.280334473, -0.772277832, 0.5699463)
(-0.0115356445, 0.280334473, -0.772277832, 0.5699463)
(-0.0115356445, 0.280334473, -0.772277832, 0.5699463)
(-0.01159668, 0.280456543, -0.7722168, 0.5699463)
(-0.01159668, 0.280456543, -0.7722168, 0.5699463)
(-0.01159668, 0.280517578, -0.7722168, 0.5699463)
(-0.01159668, 0.280517578, -0.7722168, 0.5699463)
(-0.0115356445, 0.280517578, -0.7722168, 0.5699463)
(-0.0115356445, 0.280517578, -0.7722168, 0.5699463)
(-0.0115356445, 0.280517578, -0.7722168, 0.5699463)
(-0.0114746094, 0.280517578, -0.7722168, 0.5699463)
(-0.0114746094, 0.280517578, -0.7722168, 0.5699463)
(-0.0114746094, 0.280517578, -0.7722168, 0.5699463)
(-0.0114746094, 0.280517578, -0.7722168, 0.5699463)
(-0.0114746094, 0.280517578, -0.7722168, 0.5699463)
(-0.0114746094, 0.2805786, -0.7722168, 0.5699463)
(-0.0112915039, 0.280822754, -0.772277832, 0.569702148)
(-0.0112915039, 0.280822754, -0.772277832, 0.569702148)
(-0.0112304688, 0.280822754, -0.772277832, 0.569702148)
(-0.0112304688, 0.280822754, -0.772277832, 0.569702148)
(-0.0112304688, 0.280822754, -0.772277832, 0.569702148)
(-0.0112304688, 0.280822754, -0.772277832, 0.569702148)
(-0.0111694336, 0.280822754, -0.772277832, 0.569702148)
(-0.0111694336, 0.280822754, -0.772277832, 0.569702148)
(-0.0111694336, 0.2808838, -0.772277832, 0.569702148)
(-0.0111694336, 0.2808838, -0.772277832, 0.569702148)
(-0.0111083984, 0.2808838, -0.772277832, 0.569702148)
(-0.0111694336, 0.2810669, -0.7722168, 0.569702148)
(-0.010925293, 0.280761719, -0.7722168, 0.5698242)
(-0.010925293, 0.280761719, -0.7722168, 0.5698242)
(-0.0112304688, 0.280944824, -0.7720947, 0.569885254)
(-0.0112304688, 0.280944824, -0.7720947, 0.569885254)
(-0.0112304688, 0.280944824, -0.7720947, 0.569885254)
(-0.0112304688, 0.280944824, -0.7720947, 0.569885254)
(-0.0111694336, 0.280944824, -0.7720947, 0.569885254)
(-0.0111694336, 0.280944824, -0.7720947, 0.569885254)
(-0.0112915039, 0.28112793, -0.771972656, 0.5700073)
(-0.0114135742, 0.28137207, -0.771789551, 0.570068359)
(-0.0116577148, 0.2814331, -0.7716675, 0.5701904)
(-0.0116577148, 0.2814331, -0.7716675, 0.5701904)
(-0.01184082, 0.281311035, -0.771606445, 0.5703125)
(-0.01184082, 0.281311035, -0.771606445, 0.5703125)
(-0.0120849609, 0.281188965, -0.771606445, 0.5704346)
(-0.0120849609, 0.281188965, -0.771606445, 0.5704346)
(-0.0120849609, 0.281188965, -0.771606445, 0.5704346)
(-0.0120849609, 0.281188965, -0.771606445, 0.5704346)
(-0.0120849609, 0.281188965, -0.771606445, 0.5704346)
(-0.0120239258, 0.281188965, -0.7715454, 0.5704956)
(-0.0119628906, 0.28125, -0.7715454, 0.5704956)
(-0.0119628906, 0.28125, -0.7715454, 0.5704956)
(-0.01184082, 0.2810669, -0.771606445, 0.5704956)
(-0.01184082, 0.2810669, -0.771606445, 0.5704956)
(-0.01184082, 0.2810669, -0.771606445, 0.5704956)
(-0.01184082, 0.2810669, -0.771606445, 0.5704956)
(-0.0119628906, 0.28112793, -0.7716675, 0.570373535)
(-0.0119628906, 0.28112793, -0.7716675, 0.570373535)
(-0.0120239258, 0.2810669, -0.7718506, 0.5701904)
(-0.01171875, 0.280456543, -0.772460938, 0.5695801)
(-0.01171875, 0.280456543, -0.772460938, 0.5695801)
(-0.01171875, 0.280456543, -0.772460938, 0.5695801)
(-0.0116577148, 0.280456543, -0.772460938, 0.5696411)
(-0.0116577148, 0.280456543, -0.772460938, 0.5696411)
(-0.0116577148, 0.280517578, -0.772460938, 0.5696411)
(-0.0114135742, 0.2805786, -0.772460938, 0.5695801)
(-0.0114135742, 0.2805786, -0.772460938, 0.5695801)
(-0.0112304688, 0.280944824, -0.772338867, 0.569519043)
(-0.0111694336, 0.280944824, -0.772338867, 0.5695801)
(-0.0111694336, 0.280944824, -0.772338867, 0.5695801)
(-0.0111694336, 0.280944824, -0.772338867, 0.5695801)
(-0.0111083984, 0.280944824, -0.772338867, 0.5695801)
(-0.0111083984, 0.280944824, -0.772338867, 0.5695801)
(-0.0111083984, 0.280944824, -0.772338867, 0.5695801)
(-0.0111083984, 0.280944824, -0.772338867, 0.5695801)
(-0.0108032227, 0.2810669, -0.7723999, 0.569458)
(-0.0106811523, 0.2810669, -0.772338867, 0.569519043)
(-0.0106811523, 0.2810669, -0.772338867, 0.569519043)
(-0.0106811523, 0.2810669, -0.772338867, 0.569519043)
(-0.0106201172, 0.2810669, -0.772338867, 0.569519043)
(-0.0106201172, 0.2810669, -0.772338867, 0.569519043)
(-0.0106201172, 0.28112793, -0.772338867, 0.569519043)
(-0.010559082, 0.2810669, -0.772338867, 0.569519043)
(-0.010559082, 0.2810669, -0.772338867, 0.569519043)
(-0.010559082, 0.2810669, -0.772338867, 0.569519043)
(-0.010559082, 0.2810669, -0.772338867, 0.569519043)
(-0.010559082, 0.2810669, -0.772338867, 0.569519043)
(-0.010559082, 0.2810669, -0.772338867, 0.569519043)
(-0.010559082, 0.2810669, -0.772338867, 0.569519043)
(-0.0104980469, 0.2810669, -0.772338867, 0.569519043)
(-0.0104980469, 0.2810669, -0.772338867, 0.569519043)
(-0.0104980469, 0.280944824, -0.772277832, 0.569702148)
(-0.0106201172, 0.279907227, -0.772338867, 0.570068359)
(-0.0106201172, 0.279907227, -0.772338867, 0.570068359)
(-0.0106201172, 0.279907227, -0.772338867, 0.570068359)
(-0.0106201172, 0.279907227, -0.772338867, 0.570068359)
(-0.010559082, 0.279968262, -0.772338867, 0.570068359)
(-0.010559082, 0.279968262, -0.772338867, 0.570068359)
(-0.0103149414, 0.2798462, -0.772338867, 0.5701294)
(-0.0103149414, 0.2798462, -0.772338867, 0.5701294)
(-0.0100097656, 0.2796631, -0.772338867, 0.570251465)
(-0.0100708008, 0.279907227, -0.772277832, 0.5701904)
(-0.0100708008, 0.279907227, -0.772277832, 0.5701904)
(-0.0100708008, 0.279907227, -0.772277832, 0.5701904)
(-0.0100708008, 0.279907227, -0.772277832, 0.5701904)
(-0.0100708008, 0.279907227, -0.772277832, 0.5701904)
(-0.0100097656, 0.280151367, -0.772155762, 0.570251465)
(-0.0100097656, 0.280151367, -0.772155762, 0.570251465)
(-0.0100097656, 0.280151367, -0.772155762, 0.570251465)
(-0.0101928711, 0.280517578, -0.771972656, 0.5703125)
(-0.0102539063, 0.2810669, -0.7718506, 0.5701904)
(-0.0102539063, 0.2810669, -0.7718506, 0.5701904)
(-0.0103149414, 0.281555176, -0.771789551, 0.570068359)
(-0.009887695, 0.2822876, -0.77142334, 0.5701294)
(-0.009887695, 0.2822876, -0.77142334, 0.5701294)
(-0.009887695, 0.2824707, -0.77130127, 0.570251465)
(-0.009887695, 0.2824707, -0.77130127, 0.570251465)
(-0.009887695, 0.2824707, -0.77130127, 0.570251465)
(-0.00982666, 0.282531738, -0.771240234, 0.5703125)
(-0.00982666, 0.282531738, -0.771240234, 0.5703125)
(-0.00982666, 0.282592773, -0.7711792, 0.5703125)
(-0.00982666, 0.282592773, -0.7711792, 0.5703125)
(-0.009765625, 0.282592773, -0.7711792, 0.570373535)
(-0.009765625, 0.282592773, -0.7711792, 0.570373535)
(-0.009765625, 0.282592773, -0.7711792, 0.570373535)
(-0.009765625, 0.282592773, -0.7711792, 0.570373535)
(-0.00970459, 0.282592773, -0.7711792, 0.570373535)
(-0.00970459, 0.282592773, -0.7711792, 0.570373535)
(-0.00982666, 0.282775879, -0.7710571, 0.5704346)
(-0.0100097656, 0.282958984, -0.7709961, 0.5704346)
(-0.0100097656, 0.282958984, -0.7709961, 0.5704346)
(-0.00994873047, 0.282958984, -0.7709961, 0.5704346)
(-0.00994873047, 0.282958984, -0.7709961, 0.5704346)
(-0.00994873047, 0.282958984, -0.7709961, 0.5704346)
(-0.0100097656, 0.2831421, -0.770874, 0.5704956)
(-0.0100097656, 0.2831421, -0.770874, 0.5704956)
(-0.0100097656, 0.2831421, -0.770874, 0.5704956)
(-0.0100097656, 0.2831421, -0.770874, 0.5704956)
(-0.009765625, 0.28302002, -0.770874, 0.570556641)
(-0.009765625, 0.28302002, -0.770874, 0.570556641)
(-0.009765625, 0.28302002, -0.770874, 0.570556641)
(-0.009765625, 0.28302002, -0.770874, 0.570556641)
(-0.00970459, 0.28302002, -0.770874, 0.570556641)
(-0.00970459, 0.28302002, -0.770874, 0.570556641)
(-0.00970459, 0.283081055, -0.770874, 0.570556641)
(-0.009643555, 0.283081055, -0.770813, 0.5706177)
(-0.009643555, 0.283081055, -0.770813, 0.5706177)
(-0.00958251953, 0.283081055, -0.770813, 0.5706177)
(-0.009521484, 0.283081055, -0.770813, 0.5706177)
(-0.009521484, 0.283081055, -0.770813, 0.5706177)
(-0.009521484, 0.283081055, -0.770813, 0.5706177)
(-0.009521484, 0.283081055, -0.770813, 0.5706177)
(-0.009460449, 0.283081055, -0.770813, 0.5706177)
(-0.009460449, 0.283081055, -0.770813, 0.5706177)
(-0.009460449, 0.2831421, -0.770813, 0.5706177)
(-0.009399414, 0.2831421, -0.770751953, 0.5706177)
(-0.009399414, 0.2831421, -0.770751953, 0.5706177)
(-0.009399414, 0.283203125, -0.770751953, 0.5706177)
(-0.009399414, 0.283203125, -0.770751953, 0.5706177)
(-0.009399414, 0.283203125, -0.770751953, 0.5706177)
(-0.009399414, 0.283203125, -0.770751953, 0.5706177)
(-0.009399414, 0.283203125, -0.770751953, 0.5706177)
(-0.009399414, 0.283203125, -0.770751953, 0.5706177)
(-0.009338379, 0.283203125, -0.770751953, 0.5706177)
(-0.009338379, 0.283203125, -0.770751953, 0.5706177)
(-0.009338379, 0.283203125, -0.770751953, 0.5706177)
(-0.009094238, 0.283081055, -0.770813, 0.5706177)
(-0.009094238, 0.283081055, -0.770813, 0.5706177)
(-0.009033203, 0.283203125, -0.770751953, 0.5706177)
(-0.009033203, 0.283203125, -0.770751953, 0.5706177)
(-0.009033203, 0.283203125, -0.770751953, 0.5706177)
(-0.009033203, 0.283203125, -0.770751953, 0.5706177)
(-0.008972168, 0.28326416, -0.7706909, 0.570739746)
(-0.009094238, 0.283630371, -0.7703247, 0.5709839)
(-0.009094238, 0.283630371, -0.7703247, 0.5709839)
(-0.009155273, 0.283813477, -0.7701416, 0.571105957)
(-0.009155273, 0.283813477, -0.7701416, 0.571105957)
(-0.009094238, 0.2838745, -0.7701416, 0.571105957)
(-0.009094238, 0.283813477, -0.7701416, 0.571167)
(-0.009094238, 0.283813477, -0.7701416, 0.571167)
(-0.009033203, 0.283813477, -0.7701416, 0.571167)
(-0.009033203, 0.283813477, -0.7701416, 0.571167)
(-0.009155273, 0.284057617, -0.770019531, 0.571228)
(-0.009155273, 0.284118652, -0.770019531, 0.571167)
(-0.009155273, 0.284118652, -0.770019531, 0.571167)
(-0.009216309, 0.283996582, -0.7699585, 0.5713501)
(-0.00970459, 0.2843628, -0.7696533, 0.5715332)
(-0.00970459, 0.2843628, -0.7696533, 0.5715332)
(-0.0100097656, 0.284667969, -0.7695923, 0.571472168)
(-0.0100097656, 0.284667969, -0.7695923, 0.571472168)
(-0.0101318359, 0.2845459, -0.76953125, 0.571594238)
(-0.0103759766, 0.2845459, -0.7694702, 0.5717163)
(-0.0104370117, 0.284790039, -0.7694092, 0.571594238)
(-0.0104370117, 0.284790039, -0.7694092, 0.571594238)
(-0.0104370117, 0.284790039, -0.7694092, 0.571594238)
(-0.0104370117, 0.284851074, -0.7694092, 0.571594238)
(-0.0104370117, 0.284851074, -0.7694092, 0.571594238)
(-0.0103759766, 0.284851074, -0.7694092, 0.5716553)
(-0.0103149414, 0.285461426, -0.769042969, 0.571777344)
(-0.0103149414, 0.285461426, -0.769042969, 0.571777344)
(-0.0102539063, 0.285461426, -0.769042969, 0.571777344)
(-0.0102539063, 0.285461426, -0.769042969, 0.571777344)
(-0.0102539063, 0.285461426, -0.769042969, 0.571777344)
(-0.0102539063, 0.285461426, -0.769042969, 0.571777344)
(-0.0102539063, 0.285461426, -0.769042969, 0.571777344)
(-0.0102539063, 0.285461426, -0.769042969, 0.571777344)
(-0.0102539063, 0.285461426, -0.769042969, 0.571777344)
(-0.0101928711, 0.285461426, -0.769042969, 0.571777344)
(-0.0101928711, 0.285461426, -0.769042969, 0.571777344)
(-0.0101928711, 0.285461426, -0.769042969, 0.571777344)
(-0.0101928711, 0.285461426, -0.769042969, 0.5718384)
(-0.00982666, 0.285827637, -0.7689209, 0.571777344)
(-0.009765625, 0.285827637, -0.7689209, 0.571777344)
(-0.009765625, 0.285827637, -0.7689209, 0.571777344)
(-0.009765625, 0.285827637, -0.7689209, 0.571777344)
(-0.009765625, 0.285827637, -0.7689209, 0.571777344)
(-0.00970459, 0.285827637, -0.7689209, 0.571777344)
(-0.00970459, 0.285827637, -0.7689209, 0.571777344)
(-0.00970459, 0.285827637, -0.7689209, 0.571777344)
(-0.00970459, 0.285827637, -0.7689209, 0.571777344)
(-0.00970459, 0.285827637, -0.7689209, 0.571777344)
(-0.009643555, 0.285827637, -0.7689209, 0.571777344)
(-0.009643555, 0.285827637, -0.7689209, 0.571777344)
(-0.009643555, 0.285888672, -0.7689209, 0.571777344)
(-0.009643555, 0.285888672, -0.7689209, 0.571777344)
(-0.009521484, 0.285888672, -0.768859863, 0.5718384)
(-0.009521484, 0.285888672, -0.768859863, 0.5718384)
(-0.009521484, 0.285888672, -0.768859863, 0.5718384)
(-0.009521484, 0.285888672, -0.768859863, 0.5718384)
(-0.009521484, 0.285888672, -0.768859863, 0.5718384)
(-0.009521484, 0.285888672, -0.768859863, 0.5718384)
(-0.009521484, 0.285888672, -0.768859863, 0.5718384)
(-0.009521484, 0.285888672, -0.768859863, 0.5718384)
(-0.009521484, 0.285888672, -0.768859863, 0.5718384)
