(-0.009765625, 0.2921753, -0.7595825, 0.580993652)
(-0.009399414, 0.29284668, -0.7600708, 0.5800781)
(-0.0068359375, 0.29510498, -0.7614746, 0.577026367)
(-0.0068359375, 0.29510498, -0.7614746, 0.577026367)
(-0.00689697266, 0.296081543, -0.76171875, 0.576293945)
(-0.00561523438, 0.301940918, -0.7630615, 0.571411133)
(-0.00561523438, 0.301940918, -0.7630615, 0.571411133)
(-0.006713867, 0.3034668, -0.7635498, 0.5699463)
(-0.006713867, 0.3034668, -0.7635498, 0.5699463)
(-0.00762939453, 0.302368164, -0.7652588, 0.5682373)
(-0.007019043, 0.300476074, -0.7677002, 0.565917969)
(-0.007019043, 0.300476074, -0.7677002, 0.565917969)
(-0.0068359375, 0.294067383, -0.7696533, 0.5666504)
(-0.008728027, 0.29675293, -0.7687378, 0.5664673)
(-0.008728027, 0.29675293, -0.7687378, 0.5664673)
(-0.0103149414, 0.2994995, -0.7685547, 0.5652466)
(-0.0103149414, 0.2994995, -0.7685547, 0.5652466)
(-0.0103149414, 0.2994995, -0.7685547, 0.5652466)
(-0.0103149414, 0.297424316, -0.7698364, 0.5645752)
(-0.0103149414, 0.297424316, -0.7698364, 0.5645752)
(-0.0103149414, 0.297424316, -0.7698364, 0.5645752)
(-0.010925293, 0.296264648, -0.770385742, 0.5644531)
(-0.010925293, 0.296264648, -0.770385742, 0.5644531)
(-0.0139770508, 0.297424316, -0.7703247, 0.5638428)
(-0.0139770508, 0.297424316, -0.7703247, 0.5638428)
(-0.0147094727, 0.296325684, -0.7706299, 0.5640259)
(-0.016784668, 0.2944336, -0.769042969, 0.567077637)
(-0.016784668, 0.2944336, -0.769042969, 0.567077637)
(-0.0158081055, 0.293457031, -0.768493652, 0.5683594)
(-0.0158081055, 0.293457031, -0.768493652, 0.5683594)
(-0.0140380859, 0.291564941, -0.76763916, 0.5704956)
(-0.0140380859, 0.291564941, -0.76763916, 0.5704956)
(-0.0139160156, 0.291809082, -0.7666626, 0.571777344)
(-0.01361084, 0.291625977, -0.7658081, 0.572937)
(-0.01361084, 0.291625977, -0.7658081, 0.572937)
(-0.0133056641, 0.291931152, -0.765197754, 0.5736084)
(-0.0133056641, 0.291931152, -0.765197754, 0.5736084)
(-0.012512207, 0.291442871, -0.764648438, 0.574584961)
(-0.0123901367, 0.291259766, -0.763977051, 0.575622559)
(-0.0123901367, 0.291259766, -0.763977051, 0.575622559)
(-0.0122070313, 0.2906494, -0.763305664, 0.576843262)
(-0.0120849609, 0.288452148, -0.7624512, 0.5790405)
(-0.0120849609, 0.288452148, -0.7624512, 0.5790405)
(-0.0116577148, 0.2876587, -0.7624512, 0.5794678)
(-0.0101928711, 0.286193848, -0.7628784, 0.5796509)
(-0.0101928711, 0.286193848, -0.7628784, 0.5796509)
(-0.0101928711, 0.286193848, -0.7628784, 0.5796509)
(-0.008850098, 0.2849121, -0.7631836, 0.579895)
(-0.008850098, 0.2849121, -0.7631836, 0.579895)
(-0.008056641, 0.284973145, -0.7631836, 0.579895)
(-0.007019043, 0.283996582, -0.7632446, 0.58026123)
(-0.007019043, 0.283996582, -0.7632446, 0.58026123)
(-0.006713867, 0.284118652, -0.7630005, 0.5805664)
(-0.00677490234, 0.284423828, -0.7626953, 0.580810547)
(-0.00677490234, 0.284423828, -0.7626953, 0.580810547)
(-0.007019043, 0.28503418, -0.7624512, 0.580810547)
(-0.007019043, 0.28503418, -0.7624512, 0.580810547)
(-0.00677490234, 0.285644531, -0.762756348, 0.58013916)
(-0.00677490234, 0.285644531, -0.762756348, 0.58013916)
(-0.00402832031, 0.284118652, -0.7637329, 0.579589844)
(-0.00402832031, 0.284118652, -0.7637329, 0.579589844)
(-0.00384521484, 0.284057617, -0.7637329, 0.5796509)
(-0.00384521484, 0.284057617, -0.7637329, 0.5796509)
(-0.00390625, 0.284973145, -0.7632446, 0.579834)
(-0.00390625, 0.284973145, -0.7632446, 0.579834)
(-0.00390625, 0.2859497, -0.7628784, 0.579834)
(-0.00390625, 0.2859497, -0.7628784, 0.579834)
(-0.00408935547, 0.2861328, -0.762756348, 0.579895)
(-0.0048828125, 0.28692627, -0.762390137, 0.5800171)
(-0.00634765625, 0.288085938, -0.7617798, 0.5802002)
(-0.00634765625, 0.288085938, -0.7617798, 0.5802002)
(-0.00634765625, 0.2880249, -0.76171875, 0.580322266)
(-0.00634765625, 0.2880249, -0.76171875, 0.580322266)
(-0.006164551, 0.287353516, -0.7618408, 0.5805054)
(-0.006164551, 0.287353516, -0.7618408, 0.5805054)
(-0.00634765625, 0.2871704, -0.761901855, 0.5805054)
(-0.00634765625, 0.2871704, -0.761901855, 0.5805054)
(-0.00677490234, 0.286743164, -0.76171875, 0.5809326)
(-0.00677490234, 0.286743164, -0.76171875, 0.5809326)
(-0.006652832, 0.285644531, -0.7618408, 0.581359863)
(-0.008422852, 0.286193848, -0.761352539, 0.581665039)
(-0.008422852, 0.286193848, -0.761352539, 0.581665039)
(-0.008422852, 0.286193848, -0.761352539, 0.581665039)
(-0.008056641, 0.286193848, -0.7612915, 0.5817871)
(-0.00799560547, 0.286254883, -0.761230469, 0.5817871)
(-0.00799560547, 0.286254883, -0.761230469, 0.5817871)
(-0.008056641, 0.2868042, -0.761169434, 0.581604)
(-0.008056641, 0.2868042, -0.761169434, 0.581604)
(-0.008300781, 0.2866211, -0.761047363, 0.581848145)
(-0.008300781, 0.2866211, -0.761047363, 0.581848145)
(-0.008972168, 0.286682129, -0.7609863, 0.5819092)
(-0.008972168, 0.286682129, -0.7609863, 0.5819092)
(-0.00958251953, 0.286682129, -0.7609863, 0.5819092)
(-0.00958251953, 0.286682129, -0.7609863, 0.5819092)
(-0.0101928711, 0.286682129, -0.7609863, 0.581848145)
(-0.0101928711, 0.286682129, -0.7609863, 0.581848145)
(-0.0104980469, 0.286560059, -0.761047363, 0.5819092)
(-0.010559082, 0.2852173, -0.762084961, 0.5811157)
(-0.010559082, 0.2852173, -0.762084961, 0.5811157)
(-0.0102539063, 0.28503418, -0.7623291, 0.5809326)
(-0.0102539063, 0.28503418, -0.7623291, 0.5809326)
(-0.00994873047, 0.28527832, -0.762390137, 0.5807495)
(-0.00994873047, 0.28527832, -0.762390137, 0.5807495)
(-0.009521484, 0.2852173, -0.7624512, 0.5806885)
(-0.009521484, 0.2852173, -0.7624512, 0.5806885)
(-0.009338379, 0.2850952, -0.7625122, 0.5806885)
(-0.009338379, 0.2850952, -0.7625122, 0.5806885)
(-0.008300781, 0.284423828, -0.762939453, 0.580444336)
(-0.008300781, 0.284423828, -0.762939453, 0.580444336)
(-0.008300781, 0.284423828, -0.762939453, 0.580444336)
(-0.00720214844, 0.28338623, -0.7632446, 0.580627441)
(-0.00610351563, 0.282592773, -0.762573242, 0.581848145)
(-0.005554199, 0.282714844, -0.762207031, 0.5822754)
(-0.005554199, 0.282714844, -0.762207031, 0.5822754)
(-0.00537109375, 0.28302002, -0.761901855, 0.582519531)
(-0.00518798828, 0.283447266, -0.7615967, 0.582702637)
(-0.00518798828, 0.283447266, -0.7615967, 0.582702637)
(-0.00537109375, 0.284240723, -0.761352539, 0.582702637)
(-0.00524902344, 0.284790039, -0.761047363, 0.5827637)
(-0.00524902344, 0.284790039, -0.761047363, 0.5827637)
(-0.005554199, 0.285461426, -0.761230469, 0.582214355)
(-0.00537109375, 0.286010742, -0.7614136, 0.5817261)
(-0.00537109375, 0.286010742, -0.7614136, 0.5817261)
(-0.005065918, 0.286193848, -0.761535645, 0.581481934)
(-0.005065918, 0.286193848, -0.761535645, 0.581481934)
(-0.00537109375, 0.2869873, -0.7614746, 0.581176758)
(-0.00567626953, 0.287353516, -0.7614136, 0.5810547)
(-0.00604248047, 0.287536621, -0.7614136, 0.580993652)
(-0.00793457, 0.288208, -0.761352539, 0.5806885)
(-0.00793457, 0.288208, -0.761352539, 0.5806885)
(-0.00799560547, 0.288146973, -0.7612915, 0.5807495)
(-0.00799560547, 0.288146973, -0.7612915, 0.5807495)
(-0.00799560547, 0.288146973, -0.7612915, 0.5807495)
(-0.008300781, 0.288513184, -0.7612915, 0.5805664)
(-0.008300781, 0.2883911, -0.7614746, 0.5803833)
(-0.008300781, 0.2883911, -0.7614746, 0.5803833)
(-0.008483887, 0.288513184, -0.761535645, 0.580322266)
(-0.0087890625, 0.28894043, -0.761230469, 0.580444336)
(-0.0087890625, 0.28894043, -0.761230469, 0.580444336)
(-0.0087890625, 0.28894043, -0.761230469, 0.580444336)
(-0.008300781, 0.28894043, -0.761169434, 0.5805664)
(-0.008300781, 0.28894043, -0.761169434, 0.5805664)
(-0.007019043, 0.288452148, -0.761169434, 0.580810547)
(-0.007019043, 0.288452148, -0.761169434, 0.580810547)
(-0.00677490234, 0.288330078, -0.761047363, 0.5810547)
(-0.00677490234, 0.288330078, -0.761047363, 0.5810547)
(-0.00677490234, 0.288330078, -0.761047363, 0.5810547)
(-0.005432129, 0.288452148, -0.7605591, 0.581604)
(-0.005432129, 0.288452148, -0.7605591, 0.581604)
(-0.0048828125, 0.288208, -0.7605591, 0.5817871)
(-0.005126953, 0.2868042, -0.760314941, 0.5827637)
(-0.005126953, 0.2868042, -0.760314941, 0.5827637)
(-0.00518798828, 0.286254883, -0.760437, 0.582885742)
(-0.00518798828, 0.286254883, -0.760437, 0.582885742)
(-0.00518798828, 0.286254883, -0.760437, 0.582885742)
(-0.00518798828, 0.286254883, -0.760437, 0.582885742)
(-0.00518798828, 0.286254883, -0.760437, 0.582885742)
(-0.00518798828, 0.286254883, -0.760437, 0.582885742)
(-0.00537109375, 0.286560059, -0.7602539, 0.5829468)
(-0.00537109375, 0.286560059, -0.7602539, 0.5829468)
(-0.00537109375, 0.286560059, -0.7602539, 0.5829468)
(-0.00579834, 0.28704834, -0.75994873, 0.5831299)
(-0.00579834, 0.28704834, -0.75994873, 0.5831299)
(-0.00592041, 0.2874756, -0.759643555, 0.583313)
(-0.00592041, 0.2874756, -0.759643555, 0.583313)
(-0.005493164, 0.28729248, -0.7595215, 0.5835571)
(-0.005493164, 0.28729248, -0.7595215, 0.5835571)
(-0.005493164, 0.28729248, -0.7595215, 0.5835571)
(-0.005432129, 0.287231445, -0.7593994, 0.583740234)
(-0.005432129, 0.287231445, -0.7593994, 0.583740234)
(-0.00531005859, 0.286865234, -0.7593994, 0.58392334)
(-0.00531005859, 0.286865234, -0.7593994, 0.58392334)
(-0.005126953, 0.286682129, -0.7593994, 0.5840454)
(-0.005126953, 0.286071777, -0.7595215, 0.5841675)
(-0.005126953, 0.286071777, -0.7595215, 0.5841675)
(-0.005126953, 0.286071777, -0.7595215, 0.5841675)
(-0.005126953, 0.286071777, -0.7595215, 0.584106445)
(-0.005126953, 0.286071777, -0.7595215, 0.584106445)
(-0.0048828125, 0.286010742, -0.7597046, 0.58392334)
(-0.00457763672, 0.286010742, -0.7597656, 0.5838623)
(-0.00457763672, 0.286010742, -0.7597656, 0.5838623)
(-0.005126953, 0.286865234, -0.759460449, 0.5838623)
(-0.005126953, 0.286865234, -0.759460449, 0.5838623)
(-0.005859375, 0.287902832, -0.7591553, 0.583740234)
(-0.005859375, 0.287902832, -0.7591553, 0.583740234)
(-0.006225586, 0.288574219, -0.7588501, 0.58380127)
(-0.006225586, 0.288574219, -0.7588501, 0.58380127)
(-0.006652832, 0.289123535, -0.7585449, 0.5838623)
(-0.00714111328, 0.2894287, -0.758422852, 0.58392334)
(-0.00714111328, 0.2894287, -0.758422852, 0.58392334)
(-0.008300781, 0.290222168, -0.7581177, 0.58392334)
(-0.008728027, 0.2906494, -0.7579346, 0.58392334)
(-0.008728027, 0.2906494, -0.7579346, 0.58392334)
(-0.009460449, 0.291259766, -0.757568359, 0.584106445)
(-0.00970459, 0.2913208, -0.7574463, 0.5841675)
(-0.00970459, 0.2913208, -0.7574463, 0.5841675)
(-0.0100708008, 0.2915039, -0.757385254, 0.5842285)
(-0.0114135742, 0.292663574, -0.756958, 0.584106445)
(-0.0114135742, 0.292663574, -0.756958, 0.584106445)
(-0.0114135742, 0.292663574, -0.756958, 0.584106445)
(-0.0114135742, 0.292663574, -0.756958, 0.584106445)
(-0.0114135742, 0.292663574, -0.756958, 0.584106445)
(-0.0114135742, 0.292663574, -0.756958, 0.584106445)
(-0.0112304688, 0.29284668, -0.756958, 0.5840454)
(-0.0112304688, 0.29284668, -0.756958, 0.5840454)
(-0.0108032227, 0.2925415, -0.7570801, 0.5840454)
(-0.0101318359, 0.291625977, -0.7573242, 0.5842285)
(-0.009521484, 0.290771484, -0.7574463, 0.584472656)
(-0.009521484, 0.290771484, -0.7574463, 0.584472656)
(-0.008911133, 0.290222168, -0.757385254, 0.584777832)
(-0.008544922, 0.290161133, -0.757385254, 0.584838867)
(-0.008544922, 0.290161133, -0.757385254, 0.584838867)
(-0.008605957, 0.290222168, -0.757385254, 0.584838867)
(-0.008605957, 0.290222168, -0.757385254, 0.584838867)
(-0.008361816, 0.290039063, -0.757202148, 0.5852051)
(-0.008728027, 0.29083252, -0.756652832, 0.5854492)
(-0.008972168, 0.2913208, -0.7564697, 0.5854492)
(-0.008972168, 0.2913208, -0.7564697, 0.5854492)
(-0.008972168, 0.291381836, -0.7564697, 0.5854492)
(-0.008972168, 0.291381836, -0.7564697, 0.5854492)
(-0.008850098, 0.29119873, -0.7564087, 0.5856323)
(-0.009094238, 0.291748047, -0.7561035, 0.5857544)
(-0.009765625, 0.2925415, -0.7557373, 0.5858154)
(-0.009765625, 0.2925415, -0.7557373, 0.5858154)
(-0.009887695, 0.29284668, -0.755615234, 0.5858154)
(-0.009887695, 0.29284668, -0.755615234, 0.5858154)
(-0.0103759766, 0.293823242, -0.755126953, 0.5859375)
(-0.0103759766, 0.293823242, -0.755126953, 0.5859375)
(-0.0109863281, 0.294372559, -0.7550659, 0.5857544)
(-0.0115356445, 0.29510498, -0.754943848, 0.585510254)
(-0.0120239258, 0.2958374, -0.754760742, 0.5853882)
(-0.0131835938, 0.296875, -0.754455566, 0.5852051)
(-0.0131835938, 0.296875, -0.754455566, 0.5852051)
(-0.0143432617, 0.297180176, -0.7541504, 0.5854492)
(-0.0153808594, 0.297485352, -0.753479, 0.5860596)
(-0.0153808594, 0.297485352, -0.753479, 0.5860596)
(-0.015625, 0.297851563, -0.753234863, 0.586181641)
(-0.015625, 0.297851563, -0.753234863, 0.586181641)
(-0.0159912109, 0.298217773, -0.753051758, 0.5863037)
(-0.0177001953, 0.3008423, -0.7519531, 0.5862427)
(-0.0177001953, 0.3008423, -0.7519531, 0.5862427)
(-0.0181274414, 0.300964355, -0.75201416, 0.5861206)
(-0.0184936523, 0.3013916, -0.75201416, 0.5859375)
(-0.0184326172, 0.301635742, -0.7518921, 0.585876465)
(-0.0183105469, 0.3013916, -0.7518921, 0.585998535)
(-0.0183105469, 0.3013916, -0.7518921, 0.585998535)
(-0.0180664063, 0.301635742, -0.7518921, 0.585998535)
