-16,2,7,10,-2,5,-25,-89,-125,-42
-29,-12,-3,2,-22,-11,-28,-56,-71,-53
-39,-21,-14,-9,-34,-18,-23,-33,-33,-48
-49,-29,-15,-29,-15,-25,-22,-20,-20,-21
-34,-34,-13,-16,5,-37,-35,11,-9,12
0,-9,0,9,11,-32,-28,40,46,34
11,-4,-13,-5,-9,-27,-15,69,125,49
2,-20,-28,-16,-24,-17,-10,109,174,58
-5,-15,-21,-15,-12,1,11,124,170,70
-7,-13,-12,-19,-11,25,40,100,104,76
5,-4,-6,-5,0,47,58,69,50,33
1,7,-5,0,2,29,37,9,-2,-2
-8,11,0,-4,2,0,11,-29,-18,-22
-15,13,28,0,7,7,10,-4,2,-27
-22,2,24,9,12,28,38,37,63,-36
4,30,22,23,18,23,25,15,62,-28
36,38,16,31,16,8,-6,-36,-15,-5
43,12,5,32,4,-9,-17,-40,-63,0
50,-15,-12,15,4,-18,0,-27,-86,-1
75,-9,-19,-9,-11,-25,-19,-59,-125,-6
69,2,-2,-15,-10,-18,-23,-93,-157,-18
-1,6,17,11,16,5,-9,-72,-83,-39
-57,7,31,17,25,21,0,-61,9,-52
-84,11,12,-5,18,19,-8,-59,63,-58
-87,-1,-13,-19,13,9,-14,-11,58,-38
-24,0,-12,-19,-3,-9,0,30,16,0
-15,-6,-4,-24,-25,-14,33,63,0,24
-34,-8,-10,-10,-20,-11,47,73,11,37
27,-11,-15,-1,-1,2,17,28,-4,37
81,-9,-5,14,10,5,7,-18,-25,22
43,9,0,16,0,0,3,-7,-20,6
-9,3,-10,2,-10,-26,-11,2,-12,19
-30,-6,-8,-16,-22,-30,-16,-8,0,5
-27,-11,-9,-6,-17,-18,-4,-2,22,-13
-18,-7,-12,-3,-2,-12,16,27,41,-10
4,8,13,1,9,-4,21,22,47,0
6,17,28,3,7,2,5,6,55,2
-17,5,6,6,1,9,8,8,38,4
13,-6,0,25,-2,16,16,11,25,6
60,-3,5,19,-12,-2,17,10,55,28
45,-5,15,8,-9,-3,12,-1,56,17
-4,-13,0,7,6,-3,2,-1,27,-9
-55,-28,-18,8,7,-17,-15,45,6,-35
-94,-25,-39,0,-21,-16,5,77,23,-39
-86,-16,-33,-7,-29,-4,35,61,44,-6
-24,2,0,6,1,8,34,20,50,12
27,14,15,8,24,25,9,-12,56,22
41,15,17,7,30,24,-9,-33,33,-1
26,13,9,-9,6,6,-24,-48,-1,-13
48,10,-4,-37,-22,-2,-18,-47,-8,3
85,7,-4,-34,-14,8,-11,-19,-14,28
12,-4,1,-15,-8,14,-1,-14,-40,10
27,-13,2,0,-12,12,1,-14,-52,-4
62,-12,-1,4,-25,-9,5,-5,-60,19
5,0,-7,23,1,-3,-7,10,-19,38
-28,13,5,27,33,23,-12,11,51,22
-3,14,9,13,23,15,-7,5,105,21
16,11,9,4,9,-7,-6,16,103,24
-3,10,24,16,5,-10,-5,20,35,0
-28,7,5,10,7,-11,-7,12,-43,-24
-28,-4,-6,-7,9,-9,-4,-5,-71,-20
-15,8,6,-14,6,2,6,-10,-59,-2
-26,7,15,-13,3,0,11,5,-20,7
-34,4,9,4,5,-1,-11,-7,-12,-14
-21,3,4,9,-7,-2,-16,-19,-27,-30
4,3,-2,-3,-15,0,1,-22,-32,-20
11,-1,-17,-11,-14,-2,16,-5,-15,-6
10,8,-12,-14,-9,3,4,6,1,7
-3,-5,-8,-11,-15,-13,-18,-5,-7,-2
-28,-25,-25,-33,-24,-30,-30,4,-36,-12
-37,-31,-39,-36,-32,-25,4,67,-31,-17
-28,-23,-19,-27,-25,-3,36,120,24,-10
4,-4,-4,-14,-12,7,43,148,115,21
11,0,-8,-8,-14,1,27,137,166,43
5,-11,-6,-9,-4,15,30,50,160,42
25,6,15,17,35,40,53,-37,74,42
60,43,45,61,49,52,52,-111,-27,30
66,60,65,60,31,45,31,-146,-89,0
32,27,37,23,11,8,8,-116,-121,-42
13,15,3,7,2,-12,-7,-72,-120,-52
1,39,10,23,16,-7,-27,-56,-126,-38
-25,18,6,19,-1,-18,-41,-57,-138,-28
-40,-21,-11,-5,-19,-22,-48,-38,-103,-32
-19,-16,-9,-8,-6,-26,-38,-24,-24,0
-9,-19,-26,-10,-11,-31,-32,2,20,8
-17,-25,-35,-20,-18,-22,-11,37,36,1
-14,-8,-10,-5,-2,1,7,28,50,16
-17,9,3,12,5,6,7,4,60,17
-25,6,-7,-6,-3,3,-9,10,75,-1
-18,-8,-9,-12,2,15,2,5,69,-2
-5,-6,-1,5,17,25,4,-1,31,5
29,14,7,38,24,25,0,-4,0,4
26,12,11,28,14,-2,-14,-18,-36,-3
-4,-8,5,6,14,-15,-18,-29,-48,-32
-16,-9,4,7,14,1,3,-20,-34,-43
-4,23,-1,-2,8,14,12,-7,-42,-32
9,8,-18,-28,-23,-1,6,14,-50,-24
29,-17,-28,-30,-42,-12,4,29,-26,-8
37,-22,-27,-19,-35,-13,6,26,12,17
10,-16,-8,-7,-19,-6,6,36,39,21
-7,-7,4,1,0,5,9,29,56,30
5,3,-5,-1,-13,-4,-2,14,37,19
-8,-10,-16,-26,-39,-33,-16,26,-9,2
-16,-11,-14,-16,-27,-38,6,71,-21,-3
-8,9,11,9,11,-1,18,78,41,6
-6,14,35,21,34,32,30,34,99,1
4,24,54,32,49,55,24,-40,82,11
17,29,42,28,41,38,-17,-71,-11,16
6,20,23,8,16,2,-41,-83,-102,24
-25,7,-9,-11,-4,-7,-32,-71,-124,31
-41,-4,-6,0,-6,-2,-35,-44,-81,20
-23,10,19,11,-7,-23,-42,-17,-26,7
-5,10,21,0,-3,-14,-20,-5,-25,-6
19,0,3,-13,4,-2,15,-2,-18,-29
47,-18,-9,-18,-4,-1,24,18,45,-8
62,-28,-33,-29,-18,-13,9,48,94,30
71,-16,-18,-11,-17,-15,0,30,47,-5
17,2,2,0,-7,-8,8,-13,-1,-52
-83,10,-11,-11,-8,-7,9,-28,-6,-50
-152,-14,-29,-27,-22,-11,4,-20,35,-28
-104,-32,-42,-48,-5,0,22,23,117,11
20,-9,-8,-22,7,18,57,76,172,55
76,-6,-8,-12,9,14,66,129,155,55
64,-4,7,9,34,37,53,171,115,39
31,9,29,24,51,49,36,86,10,7
17,14,35,23,22,27,35,-4,-60,-1
11,22,45,29,15,27,9,-55,-65,13
-18,32,42,23,8,13,-39,-127,-100,2
-13,32,35,22,-2,-18,-84,-187,-149,-25
-8,18,9,8,-17,-40,-72,-154,-130,-46
-9,-17,-19,-15,-32,-41,-34,-57,-68,-26
-13,-24,-24,-31,-32,-21,0,30,-1,0
-4,-8,-15,-6,-17,-3,15,60,55,18
0,1,-10,9,-16,-3,40,47,59,18
-2,-1,-4,8,1,14,27,33,53,22
-6,-2,2,10,12,22,38,15,47,7
-20,-17,-15,4,14,57,41,-2,17,-2
-9,-16,-18,-1,-2,72,44,11,2,-6
-4,-3,-9,-14,-5,36,39,18,3,-5
9,9,-7,-21,-17,-13,30,-13,-49,-19
5,-6,1,-12,0,-27,12,-22,-62,-42
-19,-8,7,14,23,-24,-10,-7,13,-22
-31,3,6,33,30,-33,-41,14,107,10
-3,0,2,13,5,-45,-9,79,173,50
24,-7,-16,-18,-19,-39,18,129,157,70
11,-11,-30,-22,-27,-9,8,126,84,43
13,22,12,24,15,30,17,47,4,16
33,52,36,63,40,35,19,-64,-66,-14
27,37,30,51,32,9,0,-142,-95,-29
0,25,19,25,25,9,-17,-141,-76,-17
-13,0,0,-14,8,12,11,-80,-61,-16
-12,-8,-1,-17,-2,20,33,-32,-44,-12
-1,9,14,2,0,15,-16,-39,-38,-9
11,1,21,11,13,-19,-53,-55,-47,-18
10,-17,23,-1,12,-19,-45,-47,-50,-24
-17,-5,8,-12,0,-10,-19,-12,-25,-15
-33,-10,-4,-18,-14,-25,-12,24,0,-3
-7,-26,-22,-21,-14,-18,-7,25,6,14
7,-23,-15,-15,-9,14,8,31,8,24
-7,-16,-7,-3,0,27,25,42,26,39
-4,-1,5,7,6,5,19,38,34,26
41,12,11,3,-5,8,-10,12,24,11
62,10,7,-2,-10,0,-33,-5,11,3
7,-5,-22,-22,-25,-23,-25,55,7,-1
-23,-9,-29,-25,-30,-27,-22,81,12,-12
-18,-11,-10,-20,-21,-29,-34,42,9,-13
-4,0,-5,-16,-14,-17,-20,-6,27,9
7,6,5,-3,-5,2,13,-46,35,19
1,0,-2,1,-1,0,-1,-71,7,18
-14,0,1,8,-5,-4,-23,-79,-12,10
-6,22,25,21,6,15,-32,-66,-65,-18
-7,14,41,18,16,19,-12,-42,-103,-38
2,19,42,26,23,18,-8,-30,-91,-29
4,12,26,22,8,0,-11,1,-68,-24
-9,0,5,21,-10,-9,-10,32,-22,-23
-21,-19,-1,9,-6,-3,3,43,9,-2
-18,-27,0,2,9,14,24,54,25,8
-3,-7,0,10,6,11,39,48,33,12
-6,6,3,15,5,12,25,21,35,5
-9,1,2,8,1,3,12,-3,43,7
26,7,10,8,15,7,3,10,54,5
36,3,3,6,7,21,-20,4,45,10
13,10,-5,-11,-19,-22,-36,10,35,37
-30,-6,-13,-5,-13,-41,-32,12,4,47
-36,-12,-28,-27,-17,-38,-12,-4,-20,6
15,-8,-21,-39,-37,-35,-15,-35,-72,-3
19,-5,-8,-14,-23,-20,-14,-33,-114,-27
32,-8,3,15,9,9,12,0,-37,-46
31,0,-4,11,7,12,21,39,132,5
-41,-10,-11,-5,-2,4,32,70,245,55
-57,-15,-7,6,10,28,40,65,167,39
-26,-11,1,6,22,46,33,40,-3,12
23,0,7,12,21,42,60,48,-82,0
27,1,-6,10,11,23,41,51,-63,-16
23,4,-11,9,0,0,4,10,-27,-32
34,25,18,32,8,-13,-26,-64,-23,-43
39,29,23,32,10,-28,-53,-106,-25,-55
26,10,-8,-2,-11,-22,-42,-95,-57,-45
-5,-15,-35,-48,-38,-31,-26,-30,-80,-23
-20,-28,-48,-57,-51,-30,-9,79,-49,-6
-11,-17,-32,-27,-32,-11,-6,66,-19,-11
-12,-11,-11,-3,-9,-9,-18,-15,-23,-18
-26,-2,3,0,6,4,-26,-51,-29,-5
-7,23,15,14,31,6,-23,-57,-32,15
25,33,31,20,38,18,-20,-45,24,31
29,25,26,13,30,23,-6,-28,95,30
27,24,26,18,19,11,2,-19,99,30
17,5,9,3,9,5,-5,-17,2,0
-12,-14,-10,-6,3,4,4,-29,-60,-6
-36,-30,-29,-7,-9,-5,-6,-6,-60,-11
-24,-24,-24,-9,-13,4,-4,27,-62,-11
37,0,-1,-4,-6,15,9,42,-17,18
60,16,1,-9,1,19,0,49,5,47
-29,22,5,-8,4,-1,11,35,21,14
-68,7,9,5,2,-3,28,32,26,-16
-23,1,7,-3,4,-8,15,16,0,-6
29,0,-6,-5,-17,-22,7,9,-26,16
42,-12,-13,-11,-20,-20,4,16,-39,17
4,-43,-41,-33,-35,-25,-2,43,3,1
3,-34,-37,-51,-36,-25,19,119,79,9
40,-6,-18,-44,-21,-14,48,149,132,30
-14,5,4,-20,-2,4,35,104,126,28
-69,13,17,19,35,44,36,10,98,19
-28,17,29,33,44,57,22,-65,53,24
30,16,47,34,37,34,18,-97,-14,26
49,14,62,39,43,20,-4,-108,-90,14
18,19,63,49,45,11,-20,-111,-139,-6
-14,12,39,30,17,-4,-35,-102,-145,-40
-26,-15,-9,1,-15,-21,-45,-58,-128,-67
-38,-24,-59,-20,-26,-46,-66,-59,-110,-51
-41,-32,-81,-41,-45,-59,-75,-65,-90,-39
-47,-57,-102,-72,-71,-63,-77,-50,-44,-41
-31,-43,-75,-54,-48,-38,-61,-5,-11,-19
18,-7,-5,-16,-8,15,0,29,-4,19
30,6,41,6,16,80,44,40,-18,15
3,14,40,19,31,77,46,21,-41,-10
6,21,25,37,22,19,20,3,-38,-15
10,26,20,44,26,-3,-23,-26,-36,-12
-3,18,32,30,48,-32,-77,-51,-38,-20
-15,-5,4,-4,22,-81,-76,-26,-13,-14
18,-18,-35,-31,-12,-58,3,39,20,19
38,-7,-39,-17,-7,2,30,49,33,43
25,3,-19,2,1,36,7,19,27,45
19,0,-5,1,3,5,6,22,36,38
0,0,-2,-3,-8,-14,0,28,24,5
-9,1,12,0,-12,-10,-19,-4,-15,-20
-5,-9,1,11,-21,-11,-7,-24,-29,-34
-4,-14,-16,-5,-34,-21,-5,7,-5,-9
-6,-15,-23,-20,-40,-18,-5,68,22,20
-8,-16,-21,-22,-39,-9,-4,61,15,16
-20,-17,-5,-11,-27,0,3,26,80,21
-4,6,21,0,0,16,23,-10,167,23
1,6,0,-11,4,23,24,-26,153,7
3,1,-2,-9,17,23,35,0,85,13
6,10,19,35,47,19,15,5,-13,6
19,26,20,51,61,13,-4,-25,-111,-27
24,36,39,53,54,-6,-11,-50,-101,-34
13,35,22,32,20,-17,-16,-45,-48,-32
13,16,12,10,1,0,-3,-18,-33,-15
10,8,19,10,21,22,23,-6,-49,41
-3,10,18,13,22,17,20,-9,-64,53
-5,1,17,8,9,2,-4,-11,-97,13
5,2,25,10,2,0,-14,-15,-119,-13
-10,-5,11,-7,-12,-4,-5,10,-64,-32
-38,-20,5,-31,-31,-21,13,54,53,-35
-44,-24,-22,-48,-42,-28,10,63,149,-7
-37,-23,-38,-21,-28,-12,5,34,120,1
-37,-33,-53,-18,-37,-23,-4,-30,10,-20
-45,-63,-77,-52,-55,-37,-17,-60,-88,-55
-17,-54,-76,-58,-34,-17,9,25,-48,3
18,-1,-2,0,5,5,26,84,77,80
14,34,53,32,36,32,38,61,133,67
18,40,37,24,26,34,31,42,118,22
43,39,19,28,14,13,11,2,23,-5
46,47,23,37,21,5,-15,-38,-77,-36
30,23,-4,19,25,14,-30,-53,-98,-46
46,33,14,9,51,45,11,-66,-49,9
62,26,22,18,36,30,29,-86,-31,33
25,0,11,16,-15,-5,-5,-84,-36,0
-34,-28,-14,-5,-31,-24,-5,-24,16,-18
-49,-21,-20,-30,-23,-26,3,34,33,-31
-38,0,-22,-35,-33,-24,13,48,-17,-46
-45,0,-6,-30,-31,-42,-9,61,-46,-45
-49,-10,-4,-21,-24,-23,-6,62,-29,-23
-60,-26,-13,-28,-23,12,3,40,-19,-30
21,-14,-10,-16,-20,15,6,17,15,1
100,1,-9,-6,-13,-15,2,-1,72,70
-12,-3,-11,-8,0,11,21,9,118,77
-80,-2,0,6,10,21,24,0,93,10
-62,4,-7,5,0,-14,-32,-66,-16,-30
-32,-1,-23,-12,-3,-14,-46,-77,-43,-29
2,-16,-21,-16,0,25,-17,-23,6,-1
43,12,8,5,28,54,10,31,55,14
51,23,39,51,51,61,29,36,32,10
30,13,38,63,36,16,8,-12,-29,2
46,16,16,21,-16,-21,-1,-23,-14,22
65,24,0,-4,-34,-47,-30,-18,10,61
13,32,-10,1,-27,-46,-41,-25,2,56
0,16,31,17,-20,-25,-31,-22,-12,0
16,0,66,11,-23,-16,-30,-24,-20,-39
46,7,29,-5,-28,-8,-17,-10,-4,-27
20,-5,-27,-22,-4,5,0,18,7,-8
-51,-22,-51,-25,11,7,18,42,22,-6
-81,-27,-42,-27,-17,6,25,42,20,-3
-61,-19,-33,-14,-12,14,26,46,26,-22
-53,-12,-21,-5,5,19,35,61,45,-15
-34,-11,-10,0,2,12,37,48,32,2
8,-22,-5,-1,-3,4,40,6,-14,31
52,-5,16,2,29,24,41,-8,-6,42
47,27,20,20,39,37,53,2,72,24
59,45,29,47,16,32,41,17,119,24
55,31,37,56,6,21,28,14,90,28
7,17,19,35,9,10,11,38,33,0
-30,-3,-18,-5,-14,-35,-26,58,-26,-18
-60,-34,-46,-45,-27,-58,-82,18,-63,-33
-42,-30,-20,-29,0,-39,-59,-9,-34,-14
10,7,35,5,27,-21,0,3,26,23
38,20,43,13,30,6,29,-11,16,31
12,-3,4,0,-6,12,3,-55,-88,-11
-1,-3,-25,-3,-32,4,0,-71,-125,-44
-22,-12,-34,1,-19,7,-25,-80,-91,-58
-47,-28,-27,-8,-16,25,-9,-77,-26,-45
-23,-7,4,11,-3,45,26,-30,50,-14
10,15,34,30,19,29,35,4,41,-22
9,26,45,38,46,22,19,3,-7,-18
16,30,42,38,69,18,-21,-6,-53,14
28,24,40,20,46,-13,-42,-14,-86,19
27,22,17,-23,-23,-53,-22,-26,-117,-24
5,-10,-20,-46,-52,-52,-2,-4,-112,-43
-35,-25,-39,-32,-40,-46,-35,30,-47,-21
-22,-21,-38,-24,-35,-51,-48,48,32,0
-6,-18,-44,-29,-37,-53,-15,17,87,13
-9,-26,-57,-59,-61,-37,15,15,98,21
-4,-15,-44,-52,-50,-1,42,88,115,51
13,8,0,-8,-5,34,55,98,160,69
21,16,20,16,29,55,49,50,198,67
41,25,45,35,45,62,30,13,178,49
64,42,57,40,59,66,8,-17,48,23
74,55,67,63,68,49,-21,-63,-106,-27
39,21,62,67,56,21,-41,-87,-202,-71
8,-3,63,35,37,1,-50,-98,-231,-70
-50,-18,60,22,21,12,-42,-87,-190,-48
-63,-21,42,15,6,7,-26,-62,-132,-43
-42,-38,-2,-10,-20,-14,-11,-23,-68,-29
-17,-38,-37,-19,-32,-15,11,18,-9,10
-7,-37,-56,-14,-30,-19,18,36,5,34
-40,-43,-82,-32,-53,-35,-6,38,4,30
-53,-46,-77,-40,-27,-22,5,38,15,10
-18,-9,-40,-12,7,14,27,34,22,4
22,48,6,13,24,31,17,0,-1,-20
11,39,23,5,17,11,0,-11,0,-44
-26,1,-1,-19,-14,-13,0,43,82,4
-17,-11,-10,-30,-24,-18,33,82,134,37
63,12,3,-14,-22,-2,41,73,101,44
73,19,11,7,-13,4,27,55,43,18
5,-1,24,0,-4,-6,17,72,20,0
-24,-16,25,-13,9,0,-7,70,47,-4
-17,4,35,9,16,7,-44,-7,44,16
10,2,1,3,2,2,-68,-105,8,15
0,-27,-28,0,-28,-23,-49,-103,-19,34
-2,-37,-24,-23,-52,-55,-21,-50,10,52
21,-26,-36,-33,-39,-35,2,-27,10,16
52,-11,-45,-13,-7,-5,3,-60,-29,-18
66,-3,-37,3,9,8,-32,-99,-60,-18
82,17,5,10,16,16,-29,-62,-41,-3
21,42,29,31,38,29,10,-16,-21,-4
-121,37,32,42,47,27,19,-12,-23,11
-148,32,16,35,42,31,15,3,-8,9
-51,40,12,23,38,31,13,26,-2,-18
32,30,39,42,28,15,16,30,40,-37
59,35,91,70,23,3,8,21,74,1
14,-3,105,25,-18,-35,-28,-5,8,-10
-47,-61,30,-32,-43,-28,-17,16,-60,-41
-36,-41,-25,-9,-1,26,38,82,-11,-18
-25,-31,-66,20,15,30,29,95,109,4
-28,-40,-80,-6,-9,16,11,81,185,24
-53,-45,-68,-47,-51,-28,-31,13,99,-10
-88,-55,-81,-76,-102,-79,-96,-102,-133,-80
-42,-18,-51,-64,-82,-55,-69,-122,-242,-88
7,14,-37,-39,-40,2,-3,-71,-188,-64
45,29,-25,-10,6,55,57,-11,-90,-17
82,48,-2,11,38,50,57,25,-3,73
89,49,8,13,22,43,48,40,57,133
45,47,21,14,13,30,48,14,32,101
6,24,42,16,12,-24,-7,20,-8,35
9,8,59,13,2,-49,-9,75,-4,11
53,6,35,12,15,0,38,75,4,9
101,34,23,43,68,36,35,12,-12,-21
102,57,20,35,56,19,19,-33,15,-34
19,17,-10,-8,0,-13,-15,-65,36,-57
-118,-53,-75,-30,-25,-17,-27,-78,27,-58
-126,-40,-69,-29,-12,-4,-7,-31,64,-10
-51,1,-5,2,18,19,52,64,113,36
0,5,32,32,8,27,102,152,123,41
18,12,56,43,-6,33,106,145,113,32
16,16,73,45,-14,15,63,29,37,-5
-34,-21,49,-6,-60,-39,-42,-107,-32,-52
-64,-55,52,-53,-70,-51,-99,-145,-18,-57
-38,-45,39,-58,-54,-35,-127,-121,8,-35
-49,-40,-55,-58,-41,-61,-120,-107,-61,-49
-47,-29,-99,-46,-37,-68,-63,-49,-89,-36
-38,-38,-114,-47,-42,-49,-11,18,-98,-47
-68,-50,-117,-57,-29,-23,17,53,-91,-65
-63,-27,-83,-45,1,27,78,87,6,-9
22,43,-4,14,65,82,127,121,130,87
104,87,69,64,102,81,128,146,216,156
139,80,83,69,85,49,105,140,254,154
115,52,86,57,65,44,64,114,223,103
70,39,99,56,61,50,19,68,151,49
85,36,106,48,27,34,-12,22,64,26
71,23,72,39,-11,-10,-63,-99,-33,-6
-54,20,36,13,-26,-37,-109,-216,-143,-59
-153,20,-4,-10,0,-26,-91,-219,-198,-87
-116,14,-19,-1,17,1,-62,-168,-197,-88
-9,1,-12,8,33,15,-41,-125,-171,-67
28,-3,-33,12,14,-2,-37,-69,-119,-38
-12,-27,-52,-8,-21,-34,-33,-12,-61,-36
0,-31,-27,-14,-15,-25,-18,31,-11,-26
40,11,30,-1,10,14,25,55,25,1
89,44,64,2,20,32,31,57,49,44
140,-7,35,-17,-6,-10,-12,14,32,88
48,-75,-53,-60,-60,-65,-63,-24,-6,53
-87,-76,-89,-77,-90,-64,-62,-26,-16,-32
-116,-64,-79,-71,-85,-45,-48,-31,-41,-96
-104,-29,-46,-17,-36,-4,-3,6,-21,-103
-88,-12,-3,33,12,13,28,70,65,-51
-37,-16,-11,31,28,44,48,96,119,10
23,12,-14,2,17,24,40,39,57,51
50,23,-24,-12,11,-17,-11,-19,-18,38
39,18,-7,11,29,-2,-9,-10,24,20
22,28,15,20,22,12,15,26,113,51
53,45,35,26,15,31,30,61,173,82
47,39,32,21,-2,19,18,46,121,76
-22,-14,-20,-6,-15,-11,-17,-7,-22,6
-51,-60,-57,-41,-20,-25,-52,-28,-125,-43
-35,-41,-27,-27,-9,-6,-26,44,-94,-37
1,4,9,0,10,7,9,116,36,-5
45,49,37,21,27,29,31,87,159,34
90,48,24,25,35,51,51,63,243,70
132,47,21,28,42,57,58,29,184,83
128,42,35,19,35,39,41,-18,16,55
73,29,61,41,34,24,17,-44,-119,0
-6,14,84,65,45,7,-15,-65,-161,-54
-92,-12,59,45,28,-29,-42,-67,-150,-70
-208,-43,-14,-2,-16,-28,-67,-44,-110,-71
-254,-68,-70,-50,-63,-23,-80,-32,-105,-91
-182,-81,-110,-98,-91,-39,-93,-26,-92,-87
-31,-34,-97,-100,-56,-22,-47,-12,-41,-27
59,15,-28,-40,-6,15,26,19,7,38
44,14,-8,-10,5,10,56,80,34,53
58,17,15,28,44,10,57,128,68,68
56,32,24,35,158,36,38,103,81,64
45,45,53,57,121,29,20,7,77,35
45,42,72,73,26,-20,-39,-106,16,-17
31,9,27,45,-29,-89,-85,-103,-50,-47
10,-25,-33,-19,-62,-84,-61,-38,-86,-32
0,-31,-39,-39,-45,-9,-15,-48,-137,-17
-6,-15,-14,-13,-18,12,2,-84,-162,-6
-5,-5,-22,-2,-9,11,1,-85,-144,-16
18,8,-25,12,9,28,18,-42,-82,9
39,27,21,28,11,36,39,6,-21,25
9,3,47,13,-27,-7,-3,4,-24,-21
-16,-12,55,6,-29,-20,-40,-3,-21,-34
4,7,95,38,11,-12,-8,27,4,1
35,31,52,53,18,11,45,55,32,42
31,30,-10,53,30,53,74,86,77,64
7,5,-37,40,53,98,86,86,121,57
-11,-11,29,22,66,86,63,66,117,35
-39,-18,77,-6,55,3,6,28,52,33
-22,-8,32,-30,9,-53,0,6,-3,32
-14,-26,-13,-45,-101,-86,-16,-25,-55,2
-57,-88,-67,-92,-196,-129,-87,-79,-110,-69
-56,-123,-127,-164,-201,-136,-124,-101,-128,-120
-27,-93,-123,-164,-101,-81,-109,-74,-104,-116
-45,-57,-108,-131,-18,-76,-111,-84,-127,-142
-73,-63,-153,-136,-23,-130,-146,-142,-182,-176
-40,-50,-178,-110,-32,-97,-110,-100,-112,-101
77,50,-58,24,31,70,45,89,73,81
150,114,76,125,95,170,149,212,181,172
125,96,126,131,102,146,131,176,120,137
37,57,103,87,74,73,84,169,74,70
-24,0,57,60,36,22,44,167,25,35
-38,-14,31,32,13,-3,43,90,-6,34
-13,0,21,33,10,18,41,5,2,29
11,18,24,62,17,36,37,-66,12,13
9,37,38,44,41,52,9,-94,-7,-7
9,47,61,33,57,43,-5,-106,-37,-19
20,28,53,22,27,13,-17,-113,-62,-42
52,1,22,-7,-8,-3,-35,-96,-56,3
50,-13,8,-12,-38,-20,-41,-81,-52,50
-20,3,54,28,-28,-12,-26,-61,-47,10
-56,-3,39,43,-33,10,-4,-51,-47,-11
-85,-45,-47,-3,-49,1,-3,-41,-55,-52
-130,-68,-128,-76,-42,-3,-1,-15,-16,-90
-147,-69,-141,-70,-6,12,-9,34,58,-22
-33,-9,-81,-13,37,10,-16,44,81,70
97,34,-17,0,22,-23,-36,43,85,91
81,25,-3,-8,-13,-46,-35,28,30,34
100,23,25,4,-21,-28,-6,43,18,1
150,33,77,32,20,38,48,128,119,1
121,35,123,61,80,70,93,170,260,8
80,26,95,50,41,5,26,68,251,0
80,-3,14,18,-38,-69,-39,-65,63,-8
-36,-36,-42,-12,-57,-37,-11,-89,-117,23
-129,-34,-44,-21,-3,35,79,-55,-218,8
-117,-22,-52,-4,39,52,82,-50,-260,-36
-44,-4,-55,11,47,14,8,-52,-217,-55
44,41,11,66,44,-1,-34,-32,-126,-16
47,61,62,67,27,24,-29,5,-16,-2
-41,-5,53,5,-38,-19,-50,-42,-46,-92
-119,-95,-35,-126,-126,-127,-144,-131,-127,-149
-134,-133,-96,-187,-167,-162,-177,-166,-147,-128
-90,-89,-37,-97,-120,-103,-99,-81,-75,-56
-33,-39,-76,4,-53,-35,4,6,0,3
22,15,-108,17,5,36,85,65,63,55
93,89,-34,60,92,127,142,122,137,137
139,148,102,114,132,142,121,96,111,140
113,128,162,110,91,61,53,39,57,72
47,58,110,76,42,-3,1,9,59,8
11,7,26,22,39,2,10,24,108,-10
-17,-30,-24,-15,50,5,43,59,136,0
-61,-48,-58,-31,23,12,30,45,80,-5
-37,-22,-30,-30,-5,7,5,0,-23,-10
4,-17,20,-37,-6,-6,-18,-23,-73,-10
-31,-20,46,-47,-17,-30,-29,-20,-51,-11
-104,-36,51,-31,-27,-46,-29,-2,-50,-31
-111,-68,-2,-6,-53,-79,-54,-22,-63,-69
-5,-78,-95,-18,-105,-96,-81,-50,-64,-58
130,-26,-110,-12,-61,-50,-32,-24,-15,20
201,51,-49,9,30,16,37,29,48,140
124,75,12,57,87,57,64,48,57,144
-8,60,43,93,104,100,60,77,62,71
-51,28,49,91,101,92,66,113,66,32
-25,1,66,66,80,53,86,195,82,26
8,15,79,50,24,21,49,142,66,9
-3,13,64,26,-3,-6,1,-2,16,-26
-17,9,81,20,14,-12,-29,-100,-8,-24
-33,-16,59,16,-52,-45,-73,-172,-50,-55
-71,-68,-50,14,-124,-84,-111,-176,-84,-83
-105,-110,-176,-8,-171,-123,-139,-124,-101,-114
-80,-103,-237,-87,-199,-162,-150,-106,-113,-113
-34,-59,-187,-98,-137,-75,-75,-65,-68,-59
53,39,-47,-12,40,103,66,22,49,64
119,123,51,77,269,212,181,82,145,160
124,114,88,100,345,151,153,64,142,138
45,41,60,59,233,30,45,9,68,48
-17,14,43,22,28,-25,-4,-2,22,-1
-26,-12,-25,-25,-142,-54,-21,2,9,-9
-62,-73,-102,-115,-195,-98,-44,-4,-14,-49
-37,-52,21,-123,-134,-65,-10,38,12,-23
-38,-13,72,-76,-41,12,34,73,55,-13
-45,0,-7,-81,-20,7,20,53,57,-29
-40,27,-32,-21,-10,5,5,18,18,-14
-86,-7,-29,39,-5,14,-31,-43,-91,-49
-95,-54,-23,0,-47,-44,-60,-77,-148,-90
-1,0,175,21,-64,-59,-49,-60,-81,-53
50,29,190,64,-10,1,0,10,47,-9
19,4,11,44,0,42,31,67,84,-7
-3,-6,-63,24,28,75,31,44,-14,-24
49,44,-7,94,141,163,87,31,-75,23
122,101,51,124,217,126,112,43,-45,103
124,98,81,74,137,22,75,41,13,111
112,81,92,33,39,-31,24,19,40,86
33,6,8,-29,-29,-143,-49,-46,12,41
-122,-88,-86,-106,-97,-177,-91,-93,-72,-86
-189,-131,-84,-169,-103,-94,-90,-100,-131,-157
-142,-103,-4,-198,-117,-51,-65,-68,-74,-103
-90,-77,-26,-176,-166,-51,-63,-34,44,-38
-113,-116,-196,-184,-267,-135,-129,-32,35,-85
-60,-124,-355,-268,-304,-147,-119,-13,-8,-90
133,18,-253,-146,-117,40,62,130,77,50
214,167,41,121,126,243,205,197,208,187
112,160,159,214,275,271,176,64,227,143
46,110,163,208,352,176,104,-51,161,47
64,74,154,191,234,57,52,-77,71,6
84,70,121,163,120,-7,29,-53,-24,32
90,44,44,86,58,-60,-6,-37,-56,38
61,15,11,31,-43,-108,-24,-2,-24,19
-7,12,43,12,-81,-63,-3,18,22,14
-56,19,81,17,-44,-23,14,32,46,29
-95,10,78,6,-31,4,40,117,83,30
-75,-7,51,-19,-42,29,56,146,114,27
-60,-36,18,-57,-83,8,20,40,51,-28
-93,-81,-37,-129,-150,-73,-84,-103,-79,-118
-157,-130,-139,-172,-197,-178,-208,-232,-232,-213
-92,-108,-210,-145,-142,-128,-157,-168,-224,-158
73,38,-82,-5,40,57,26,-3,-60,24
123,106,74,136,188,186,131,61,9,110
92,38,51,111,174,136,97,48,6,87
51,3,-18,28,162,61,52,40,7,29
-7,-15,-44,-14,44,-24,18,7,3,-3
-8,19,-3,6,-50,-35,33,20,53,17
26,59,52,52,-21,53,91,58,100,45
41,66,110,69,5,50,72,32,71,35
43,75,168,101,25,0,-1,-33,-19,-2
25,49,175,123,7,-48,-60,-96,-86,-21
-40,-1,58,51,-21,-63,-64,-48,-54,-5
-82,-22,-7,7,4,-85,12,78,47,28
-103,-53,-68,-26,-41,-73,34,108,96,-12
-125,-112,-148,-79,-103,-9,-21,18,58,-81
-100,-129,-186,-102,-92,-10,-67,-76,-9,-144
-18,-90,-195,-118,-45,-21,-57,-82,-40,-121
4,20,-69,-60,46,47,30,48,-2,-33
-33,70,124,17,83,79,52,65,-5,17
61,12,95,6,19,27,-5,-38,-67,30
190,8,1,-16,12,40,9,-67,-49,93
217,75,48,23,86,86,45,0,57,130
251,117,114,74,152,85,62,80,179,161
143,109,99,121,203,80,93,102,205,140
0,56,49,97,92,46,60,17,70,53
-91,-25,-30,-24,-89,-34,-65,-81,-111,-52
-186,-115,-111,-126,-162,-106,-155,-140,-205,-147
-152,-62,-64,-58,-83,-28,-77,-60,-113,-78
-28,33,32,78,41,82,53,49,19,25
-35,13,10,65,43,41,30,18,15,-25
-110,-66,-72,-22,-58,-91,-93,-96,-104,-134
-130,-149,-161,-169,-195,-209,-202,-159,-154,-144
-7,-74,-75,-196,-150,-135,-112,-16,1,10
146,51,50,-3,59,67,85,173,181,161
123,56,-6,97,131,107,132,180,172,142
-23,-28,-33,40,60,8,28,40,30,5
-21,-7,61,63,79,46,13,7,-20,0
38,26,78,26,60,74,-4,6,-34,60
30,0,98,-72,-1,15,-11,17,-18,100
-83,-33,52,-99,-47,-65,-2,25,6,47
-82,-29,-84,-48,-37,-41,5,27,14,-16
28,30,-114,-32,17,89,34,29,23,2
102,52,-41,14,39,95,27,27,-17,11
132,89,90,134,100,95,78,77,10,17
73,113,270,229,156,109,85,109,75,32
20,123,389,279,109,38,28,77,69,38
-27,76,203,157,51,-4,-12,13,-2,7
-110,-5,-34,-3,-26,-56,-84,-94,-102,-62
-177,-118,-184,-125,-195,-207,-190,-187,-214,-168
-201,-262,-366,-253,-371,-329,-272,-271,-306,-249
-157,-354,-440,-289,-357,-259,-217,-216,-256,-218
-41,-212,-267,-170,-110,0,-34,-32,-77,-80
147,103,-10,-40,132,225,151,142,134,116
197,246,181,97,248,269,217,190,186,185
105,196,247,206,235,146,116,97,111,120
44,116,168,215,174,45,62,54,86,89
92,93,61,213,195,62,64,73,96,81
68,46,101,226,286,66,47,54,14,2
-44,-39,190,72,110,-64,-63,-61,-110,-96
-111,-121,122,-239,-300,-206,-193,-178,-213,-156
-26,-38,36,-232,-356,-108,-97,-73,-60,-39
38,-10,-83,-193,-272,-8,21,60,141,80
32,-7,-168,-205,-251,-71,-32,15,139,71
-125,-170,-396,-235,-225,-178,-144,-104,-56,-39
-246,-329,-529,-253,-148,-163,-209,-193,-262,-189
-19,-89,-229,-33,148,60,-20,-17,-138,-36
242,206,104,218,420,271,235,244,126,215
234,231,137,183,303,230,228,230,139,201
53,152,153,67,57,56,75,55,-4,23
-23,145,345,45,-40,5,4,17,-17,-45
35,98,472,109,-9,27,20,30,47,27
158,139,497,358,175,150,156,120,168,153
110,117,360,421,252,152,153,69,119,130
-162,-169,-172,94,22,-109,-119,-191,-148,-118
-517,-538,-785,-364,-478,-484,-460,-478,-465,-434
-576,-519,-844,-529,-564,-480,-467,-444,-467,-447
-511,-375,-679,-569,-479,-410,-382,-346,-392,-368
-182,-69,-239,-352,-216,-136,-93,-56,-117,-75
256,226,226,-12,137,249,253,272,232,234
423,313,339,234,334,406,331,337,337,293
386,226,268,263,231,236,189,205,191,151
367,98,155,213,68,61,35,90,84,55
270,-55,-44,67,-30,-83,-64,-14,18,-7
100,-58,-59,55,68,-59,-50,-31,-15,-5
38,98,126,158,205,83,47,42,50,126
-55,169,193,176,182,128,89,70,123,185
-94,117,153,97,57,121,99,60,138,139
-87,54,52,-109,-10,99,94,51,88,24
64,138,82,-114,120,229,187,132,118,81
145,165,234,91,194,281,215,128,93,123
41,39,274,108,80,157,110,17,-6,16
-111,-69,237,4,-62,4,-34,-75,-81,-90
-149,-102,12,-74,-101,-101,-60,-73,-69,-87
-180,-187,-458,-210,-235,-326,-158,-126,-110,-134
-268,-349,-780,-473,-407,-495,-284,-217,-207,-236
-278,-340,-579,-468,-395,-461,-311,-240,-233,-237
61,60,70,6,-25,-50,4,46,47,71
286,279,362,272,223,228,217,213,215,232
205,175,262,245,133,135,107,90,124,126
-20,-18,64,135,-27,-28,-69,-82,-51,-78
-157,-141,-102,-2,-63,-33,-129,-137,-141,-187
-98,-71,-41,19,81,83,-20,-25,-34,-88
26,92,172,204,327,199,125,117,82,62
58,134,219,235,331,183,141,105,76,80
10,64,117,83,129,76,60,27,1,15
34,46,52,-38,49,67,54,66,45,48
158,124,119,8,35,92,109,137,151,149
301,129,51,12,6,110,132,173,223,263
213,62,-43,-14,33,101,103,148,195,196
-96,-41,-8,118,9,-96,-114,-128,-121,-141
-422,-291,-68,-16,-292,-432,-431,-451,-502,-489
-352,-341,-243,-345,-436,-406,-383,-351,-401,-395
101,40,-46,-133,-102,50,60,94,76,94
241,186,92,59,101,243,260,229,215,254
137,107,77,-13,56,140,191,140,122,133
30,86,150,7,49,64,107,49,33,30
-49,39,156,42,30,36,34,10,-11,-37
-103,-40,-30,-23,-55,-76,-61,-50,-45,-86
-131,-67,-233,-69,-164,-179,-199,-157,-113,-112
-107,-184,-510,-212,-290,-259,-323,-242,-166,-85
-66,-255,-486,-122,-95,-120,-156,-91,-42,39
97,12,-29,211,322,186,158,182,181,207
186,267,275,201,357,221,215,181,149,145
154,284,411,-9,165,114,118,57,38,33
130,53,412,-5,32,110,100,76,74,74
101,-109,148,87,26,137,132,119,96,138
-139,-81,-163,-50,-118,-53,-17,1,-95,-87
-480,-344,-582,-397,-403,-359,-274,-140,-315,-417
-346,-333,-565,-391,-299,-344,-247,-59,-129,-315
88,28,-106,-22,238,1,63,159,277,58
221,200,156,204,391,282,252,168,368,191
229,246,326,326,285,264,224,33,186,188
107,181,340,308,117,100,42,-184,-104,51
-5,73,229,162,-2,3,-82,-266,-209,-49
-36,-17,72,7,-112,-67,-109,-213,-175,-43
13,-28,-54,-88,-149,-44,-55,-105,-118,15
37,-11,-54,-57,-91,1,-7,-31,-102,-1
-43,-31,0,78,36,75,58,30,-79,-61
-52,8,89,181,136,158,131,107,-11,-26
16,72,168,198,103,160,162,142,49,43
-2,46,103,113,4,74,101,83,33,32
-53,-33,9,-17,-67,13,26,17,0,-9
-44,-66,-39,-107,-90,-13,-8,0,17,-8
68,-7,-29,-122,-81,-106,-61,-23,35,32
48,-3,-38,-107,22,-154,-125,-79,-14,-4
-46,-28,-40,-144,167,-143,-112,-51,-24,-47
-183,-121,-179,-292,-3,-233,-149,-58,-61,-125
-248,-234,-408,-385,-416,-344,-231,-102,-60,-144
-59,-146,-379,-233,-437,-190,-110,-17,42,-6
309,180,15,150,38,173,177,201,196,223
339,371,239,299,232,210,208,166,134,230
289,415,155,172,105,91,65,26,-7,126
196,188,28,98,89,106,60,42,12,46
-47,-208,80,212,209,160,120,81,49,19
-288,-338,201,176,75,-33,-48,-103,-113,-116
-391,-276,125,-137,-174,-239,-241,-241,-250,-251
-215,-144,-55,-242,-80,-100,-96,-46,-76,-116
26,4,-101,-112,110,96,115,171,144,74
120,53,-101,1,63,97,126,161,181,99
122,63,-7,96,-51,4,37,38,70,40
97,95,128,192,32,0,4,-1,22,36
37,85,180,230,193,93,35,22,11,29
40,113,193,208,246,154,85,57,46,42
49,126,212,177,135,116,60,41,51,41
0,94,174,190,38,74,20,-10,-6,-17
-84,25,182,184,-13,8,-17,-49,-59,-56
-276,-156,223,57,-165,-146,-179,-184,-187,-194
-388,-364,-230,-556,-465,-358,-337,-318,-328,-306
-40,-193,-604,-769,-381,-202,-128,-57,-71,-21
352,117,-337,-402,-102,74,158,237,232,289
322,164,-96,-157,0,99,127,198,190,204
106,90,41,113,156,85,65,97,102,38
9,56,115,296,286,138,70,72,129,53
-87,-70,-96,27,89,16,-36,-49,-4,-44
-171,-195,-315,-274,-228,-179,-204,-229,-248,-233
-115,-145,-307,-299,-282,-189,-191,-190,-231,-172
-29,-49,-145,-142,-126,-111,-82,-71,-138,-23
88,78,147,136,81,60,85,62,-11,133
96,110,221,218,183,177,188,148,135,197
-13,72,162,188,163,100,117,101,153,90
-191,-43,92,173,65,1,-13,-20,31,-117
-169,-46,89,184,21,-28,-70,-59,-45,-172
135,69,98,157,78,-9,-7,37,49,-5
298,122,96,93,117,59,58,81,111,126
129,88,189,146,132,162,89,44,28,27
-198,-26,234,149,47,78,4,-63,-152,-155
-217,-103,45,-133,-128,-62,-76,-104,-198,-189
65,-30,-148,-291,-147,-56,8,22,-17,30
302,97,-224,-188,-42,-59,54,101,164,251
161,-2,-365,-301,-136,-136,-80,-20,103,157
-218,-195,-308,-289,-314,-213,-245,-214,-150,-164
-121,0,89,116,-112,38,-7,-24,-27,-77
125,209,308,322,137,249,251,227,194,173
74,191,325,261,135,207,228,194,182,167
-20,114,227,141,129,175,157,137,149,97
-23,42,35,29,117,165,137,139,162,76
-103,-49,-32,165,187,149,127,103,127,-4
-79,-59,191,244,186,16,16,0,25,-56
45,-21,293,-1,88,-229,-157,-159,-118,-75
131,1,-61,-226,-18,-304,-182,-156,-123,-60
187,59,-337,-193,-139,-135,-50,-27,-74,-3
47,-209,-526,-378,-406,-181,-138,-170,-209,-91
-381,-517,-797,-765,-688,-425,-392,-405,-361,-299
-333,-337,-472,-555,-443,-232,-259,-202,-177,-191
156,141,81,44,199,211,158,176,167,123
214,299,340,302,441,310,273,236,239,184
-6,174,345,349,272,207,188,133,167,70
-58,55,315,395,248,120,79,1,15,-42
-54,10,243,303,229,-23,-13,-71,-85,-58
-70,7,135,136,-61,-106,-86,-100,-120,-47
-27,-25,-12,-20,-228,-93,-79,-59,-70,-15
13,-50,-158,-206,-255,-82,-39,-9,19,12
-6,-62,-235,-374,-225,-80,-32,-3,44,29
25,9,-153,-197,-71,20,28,73,93,55
40,54,-48,28,182,138,131,148,160,74
120,111,77,117,354,194,209,224,228,184
231,187,288,235,341,196,232,255,305,295
306,223,328,263,161,100,137,177,284,315
180,172,168,265,42,6,23,51,174,154
-255,-224,-204,56,-249,-237,-236,-206,-202,-276
-477,-558,-464,-345,-389,-318,-302,-213,-396,-470
-444,-292,-258,-418,-275,-182,-170,-76,-250,-332
-165,106,65,-94,15,98,78,93,62,-80
25,181,206,216,235,256,195,77,128,-19
32,102,175,224,162,145,51,-106,-61,-106
90,58,120,91,-10,46,-62,-176,-135,-81
222,126,99,40,-88,2,-85,-131,-69,23
252,135,-6,2,-103,-75,-78,-96,-8,84
196,77,-45,-13,28,31,7,-38,-18,123
106,7,19,70,226,161,101,0,-42,150
0,-30,18,46,159,116,103,22,0,139
15,33,35,40,8,16,69,20,-5,72
-15,8,-7,71,34,-84,-22,-61,-94,-73
-20,-29,-33,21,81,-136,-60,-88,-76,-37
-7,23,149,-37,-51,-105,-35,-24,21,49
-12,51,232,-32,-196,-102,-26,0,25,11
18,-60,26,44,-82,28,76,93,79,2
31,-88,-165,24,218,246,236,200,150,-1
-89,49,42,16,182,113,128,97,105,-75
-80,47,170,79,13,-31,-5,6,54,-17
148,38,42,162,78,14,-20,-64,-39,78
188,62,-175,-11,-73,-94,-117,-188,-161,6
-160,-148,-395,-418,-445,-369,-322,-338,-293,-264
-461,-440,-555,-590,-589,-421,-363,-302,-251,-360
-161,-147,-159,48,-115,55,100,185,195,44
48,170,411,663,338,383,392,399,388,224
-67,98,540,556,272,232,225,184,178,26
-37,-1,158,95,55,41,61,88,61,-35
92,-53,-436,-470,-190,-141,-42,47,55,32
34,-31,-551,-688,-133,-167,-91,-27,35,4
-59,66,-148,-386,227,97,112,106,167,38
237,368,484,322,563,468,471,455,566,349
313,279,534,556,239,311,339,368,506,315
131,-43,131,335,-108,-1,20,34,107,72
75,-29,-28,196,-12,11,-54,-91,-78,-4
-8,131,30,7,149,33,-60,-186,-173,-110
-238,78,-1,-214,-7,-201,-263,-423,-395,-320
-198,-193,-254,-281,-250,-314,-334,-455,-479,-311
56,-357,-269,-65,-341,-280,-198,-245,-312,-88
28,-265,-165,-20,-351,-232,-106,-57,-105,79
45,-124,-299,-191,-201,-59,10,82,41,162
-113,170,-202,-138,-24,64,46,82,12,-13
-154,188,147,27,61,66,13,34,-12,-96
72,90,283,90,45,-6,-11,36,69,59
178,96,237,150,139,54,76,138,190,188
-31,-105,127,137,168,115,95,95,99,16
-172,-107,0,-63,-53,-72,-103,-123,-135,-152
-64,-53,-69,-215,-188,-164,-161,-136,-120,-84
28,-82,-222,-198,-125,-57,-31,-5,17,42
94,-21,-164,-21,28,85,123,100,98,125
51,55,62,158,109,127,125,99,107,74
-131,-33,98,143,28,19,-19,-42,-57,-85
-196,-119,45,39,-24,-44,-60,-65,-155,-172
-54,-64,-33,0,58,46,47,66,3,-35
24,98,19,70,167,140,138,147,214,122
85,232,246,211,232,218,191,150,271,121
89,198,334,210,195,173,131,97,236,73
52,86,356,159,128,31,-2,19,170,114
26,-38,175,50,30,-110,-109,-83,-56,36
-82,-171,-191,-156,-172,-219,-180,-136,-187,-60
-175,-120,-283,-84,-107,-41,-32,42,-20,-42
-36,-69,-244,-7,-49,5,5,70,-13,-76
170,-3,-262,-279,-219,-195,-162,-101,-165,-123
145,62,-218,-288,-300,-268,-249,-179,-167,-152
-66,162,-241,-260,-182,-102,-114,-50,-82,-236
140,353,-75,-164,74,192,151,170,64,27
340,-114,22,78,183,248,179,107,-13,242
-14,-190,206,272,217,200,130,26,-51,147
-284,241,299,242,236,168,177,120,86,18
-21,128,149,123,173,102,185,194,214,83
441,-246,-75,91,110,71,181,219,338,329
176,9,204,172,-15,-95,-82,-107,39,81
-570,-8,353,-67,-305,-380,-450,-483,-412,-475
-530,-277,-118,-487,-341,-283,-335,-333,-367,-368
6,-152,-298,-297,-87,96,80,50,-44,76
319,117,-125,142,49,181,225,205,199,292
48,75,-46,236,-33,37,83,73,94,35
-215,-71,-140,23,-121,-93,-103,-155,-251,-318
181,52,13,19,-67,-52,-68,-127,-193,-75
494,215,305,238,169,201,137,94,117,292
199,93,323,269,343,277,158,128,147,204
-127,-69,70,160,304,73,14,11,36,4
-210,-133,-220,-115,100,-199,-191,-178,-125,-116
-76,-40,-268,-424,-99,-341,-251,-173,-122,-140
-42,-51,-133,-368,-274,-276,-148,-37,-9,-117
-53,-54,23,-68,-214,12,58,143,152,52
90,84,170,224,53,232,216,293,277,254
19,13,-80,168,99,185,189,278,218,185
-194,-211,-329,-131,-105,-74,-11,121,20,-76
-175,-192,-288,-271,-222,-178,-90,57,-46,-144
173,166,50,4,53,99,119,136,126,67
188,301,363,288,211,185,144,-8,124,96
-120,67,285,103,44,25,-64,-291,-42,-123
-184,-112,-51,-122,14,32,-87,-310,-64,-175
-1,-14,-114,37,98,57,-42,-189,-36,-42
231,178,68,177,141,59,21,-63,2,167
301,243,273,265,161,45,42,0,-15,212
115,143,366,310,114,-5,-19,-68,-161,61
-120,-66,148,212,-5,-55,-97,-129,-293,-137
-188,-219,-271,-79,-153,-127,-132,-99,-295,-194
-306,-363,-485,-683,-497,-409,-299,-246,-366,-311
-216,-359,-585,-888,-554,-408,-265,-202,-299,-246
155,-14,-376,-275,-99,47,149,180,81,132
427,335,147,341,347,408,457,422,387,438
236,253,321,372,351,343,332,262,266,241
19,121,309,222,162,128,104,72,95,6
-62,74,283,155,36,46,-27,5,17,-67
-123,36,216,86,-14,-13,-89,-37,-40,-113
-101,-13,54,-67,-27,-43,-69,0,48,-63
-101,-98,-117,-52,3,-16,-27,42,174,9
-68,-119,-93,52,38,15,22,81,207,85
-2,-26,16,114,2,-40,6,57,76,95
13,-13,27,48,-104,-109,-93,-70,-160,-41
10,-21,117,9,-118,-83,-93,-114,-227,-119
-12,-22,94,-41,-130,-84,-93,-120,-189,-87
-84,-96,-132,-51,-179,-110,-121,-136,-130,-64
-156,-152,-341,-21,-144,-37,-115,-117,-87,-78
-168,-69,-324,-189,-59,-16,-113,-118,-129,-140
-72,-29,-285,-355,91,-62,-135,-142,-172,-172
181,-70,-272,-171,419,70,84,105,110,131
265,222,170,256,493,259,321,352,379,369
87,280,496,362,114,128,193,178,201,115
-118,-61,180,-51,-317,-147,-67,-84,-46,-132
-122,-61,-174,-306,-399,-187,-75,-49,4,-37
92,94,-134,-97,-245,-140,-65,2,75,121
140,-50,79,92,6,24,-12,38,68,119
44,-22,248,171,199,201,111,142,129,120
-117,-3,150,179,157,137,55,88,94,14
-93,-45,-55,40,109,60,18,95,109,-58
58,26,-25,26,170,95,63,114,81,-67
92,51,47,68,145,42,51,67,-5,-43
46,9,28,53,-7,3,26,49,-24,47
-42,-23,-16,-19,-160,-32,-46,-34,-124,35
-20,54,60,-43,-66,-51,-65,-99,-206,8
102,82,133,7,132,51,46,-15,-144,64
122,58,212,89,203,71,63,8,-133,13
58,35,230,160,71,-44,-52,-88,-188,-53
-2,-1,104,58,-134,-99,-138,-118,-98,-4
-230,-176,-137,-134,-228,-220,-266,-206,-73,-90
-402,-369,-479,-253,-173,-294,-349,-280,-159,-257
-134,-210,-477,-182,93,7,-47,-3,39,-11
78,-19,-264,-127,66,102,97,114,117,125
78,19,-198,-197,-72,47,73,72,66,24
206,147,-21,-25,48,142,162,207,248,157
372,297,373,390,203,204,227,284,328,286
291,278,664,527,206,173,166,161,117,176
-129,8,617,217,-22,-43,-48,-24,-118,-74
-304,-212,-25,-339,-282,-240,-221,-122,-273,-281
-79,-72,-319,-375,-190,-111,-83,20,-171,-189
-153,-142,-505,-344,-200,-141,-118,-62,-203,-259
-489,-452,-716,-434,-340,-304,-292,-301,-335,-433
-176,-152,-257,-64,2,30,27,-51,-21,-106
247,280,283,263,103,272,263,138,212,241
222,241,312,203,0,181,145,35,111,235
174,108,122,54,22,54,3,-87,-25,145
242,102,7,-5,76,37,-40,-85,-44,132
220,101,14,68,125,35,-17,-63,-74,-1
3,10,47,83,84,-20,-39,-35,-58,-119
-163,-48,72,104,52,-21,-32,30,72,1
-116,2,153,147,61,4,3,85,135,77
-36,59,178,102,74,13,22,63,51,53
-32,20,122,77,42,0,-23,-1,-104,-18
10,-12,21,48,-22,-54,-93,-76,-222,-98
50,-69,-121,-132,-144,-134,-163,-153,-228,-125
9,-154,-231,-308,-210,-178,-171,-147,-123,-24
-7,-90,-186,-242,-31,7,9,36,61,135
41,75,75,22,177,198,183,192,199,131
-15,138,230,199,225,225,217,210,192,10
-55,108,147,293,205,173,200,258,185,13
3,-9,88,310,152,90,117,249,170,86
-48,-54,105,26,-82,-156,-142,-15,-26,-30
-125,-122,-12,-231,-258,-265,-244,-214,-118,-155
32,-58,-132,-114,-72,-59,-50,-121,72,-15
50,-60,-215,-249,-134,-87,-68,-154,53,-45
-34,-68,-187,-445,-309,-176,-146,-179,-45,-79
11,-47,-300,-400,-259,-117,-91,-86,-119,-7
81,-27,-288,-92,-53,4,12,9,-120,27
45,34,-28,210,174,153,118,85,-81,49
-32,72,109,292,266,204,118,82,-18,16
5,135,69,210,309,183,61,12,44,-26
252,51,71,123,362,139,93,73,189,140
417,-270,41,137,276,226,310,317,408,398
22,232,283,182,-69,114,208,186,216,189
-496,341,387,60,-313,-287,-292,-327,-333,-337
-394,-133,90,-125,-219,-338,-421,-441,-524,-465
-92,-192,-149,-141,-20,-92,-186,-210,-362,-218
18,-152,-293,-138,-107,-39,-71,-112,-253,-28
92,-59,-202,-101,-170,-18,-3,-6,-86,36
132,75,-31,15,38,76,97,125,106,56
75,120,124,149,306,181,148,131,129,73
-111,58,229,264,320,119,74,31,45,14
-52,46,122,164,37,-4,-6,-7,102,73
119,43,-34,-3,-11,-42,-11,58,234,156
99,72,-1,-10,108,-41,0,71,188,37
52,-2,-19,-108,-55,-68,13,64,123,-52
-1,-87,13,-137,-238,-102,-4,35,76,-38
-90,-15,93,-95,-229,-150,-97,-85,-126,-89
23,92,39,-17,-65,-7,-26,-80,-209,33
54,-16,-148,-46,-61,1,-10,-69,-161,118
-68,-174,-301,-111,-153,-57,-39,-51,-25,105
-39,-105,-187,15,-52,31,48,58,106,69
-25,-24,-42,58,-41,-1,34,39,85,-69
-12,-7,41,67,-60,-45,-36,-23,30,-93
114,90,283,143,111,130,116,122,164,79
50,68,216,55,111,95,87,104,140,77
-59,-28,-55,-58,111,33,28,57,100,31
-57,-20,-96,-126,145,59,86,90,145,44
-20,-2,15,-9,11,25,107,112,155,52
-14,13,50,132,-49,-10,48,94,105,29
4,80,165,258,151,57,23,36,-28,-46
-27,7,38,123,190,-33,-97,-182,-304,-250
19,14,68,19,54,-106,-119,-182,-252,-159
-16,55,72,-88,-139,-98,-72,-75,-72,-17
122,181,-162,-313,-195,3,53,89,131,154
359,99,-208,-219,-59,147,228,286,365,364
77,-175,-229,-89,-31,51,69,88,158,145
-404,-198,-135,-16,-68,-105,-203,-242,-232,-269
-395,-237,-22,28,-65,-125,-202,-251,-299,-324
-196,-155,40,68,-137,-166,-136,-130,-174,-177
87,0,108,100,-29,-31,35,108,100,98
136,86,177,225,144,85,110,157,177,180
-26,-6,96,183,59,2,23,4,31,27
-149,-89,-74,-45,-103,-108,-118,-148,-140,-136
-138,-87,-217,-287,-179,-117,-156,-194,-241,-214
69,101,-11,-134,-71,59,25,17,-37,-42
181,216,103,13,42,193,191,192,178,104
96,139,97,-73,0,109,177,207,259,124
74,-36,23,-124,44,59,145,171,237,120
-54,-72,-49,-39,182,44,67,64,56,13
-18,32,-142,-47,247,15,36,43,32,31
150,61,-132,-33,100,19,71,93,100,166
180,14,-41,46,-89,36,48,54,65,154
117,54,129,185,-6,133,48,71,139,176
67,84,187,201,142,176,58,32,126,95
-20,46,90,135,79,28,-29,-105,-99,-102
-102,-33,-41,9,-121,-145,-165,-253,-307,-189
-101,-93,8,-71,-188,-160,-160,-218,-274,-133
-36,-76,-7,-80,-119,-109,-99,-118,-134,-85
88,35,30,69,42,-11,-14,-37,7,-24
119,91,104,128,95,75,39,29,95,63
-33,-20,-54,24,126,133,68,62,121,8
-219,-133,-221,-102,99,76,88,135,191,-40
-224,-102,-148,-77,-66,-41,50,150,226,-9
-45,-13,108,-32,-183,-149,-64,-18,27,-35
162,96,341,22,-154,-134,-98,-87,-95,-23
193,246,406,175,20,42,13,1,-35,20
118,271,437,211,179,169,167,87,-2,40
160,191,367,147,107,100,154,36,-27,131
104,0,-5,54,-80,-56,-28,-85,-62,110
-148,-174,-318,-67,-92,-31,-70,-90,-30,-46
-412,-360,-558,-223,-174,-174,-248,-232,-235,-350
-417,-533,-807,-433,-253,-316,-335,-237,-285,-347
-45,-156,-347,-209,100,40,43,143,75,68
291,255,186,123,266,243,267,277,278,280
377,288,142,115,145,130,190,119,202,213
85,125,43,-9,-50,-75,-41,-152,-5,32
-234,-162,-142,-212,-231,-247,-250,-302,-226,-225
-89,-34,44,-20,76,37,30,33,-24,-132
163,278,491,416,412,337,325,298,240,114
69,167,346,372,160,185,178,116,120,49
-138,-125,-223,-44,-191,-95,-109,-170,-84,-122
-196,-228,-499,-347,-286,-197,-240,-273,-227,-169
40,4,-303,-316,-196,-117,-113,-74,-110,51
278,54,-74,-72,22,90,127,193,149,339
217,109,234,182,193,223,250,264,226,344
-87,82,297,194,164,100,68,53,-15,-30
-214,-102,49,70,133,-63,-114,-151,-237,-276
-134,-112,-70,-38,51,-130,-156,-167,-251,-226
-58,-39,28,44,-84,-88,-129,-122,-131,-93
21,45,82,110,-86,-22,-75,-82,-44,-58
97,54,-39,33,-70,-29,-39,-74,-40,-28
35,-26,-110,-45,-22,9,-20,-51,-60,-14
-42,-68,-173,-220,-63,-22,-37,-35,-61,9
84,46,-163,-308,-66,26,56,120,137,166
109,107,59,-46,95,167,190,279,322,205
-40,-19,249,142,107,60,80,154,228,45
-182,-133,236,86,-135,-220,-155,-58,22,-101
-121,-112,24,-33,-157,-182,-132,-35,-4,-57
127,59,-48,-3,82,108,114,155,115,151
218,206,183,223,200,197,194,200,123,204
75,162,297,284,158,128,86,74,6,31
-22,67,205,142,55,54,10,1,-14,-34
-30,-6,16,-19,-14,7,2,10,45,-5
-22,5,-46,-15,4,3,8,36,62,9
-111,-60,-125,-86,-90,-93,-86,-105,-89,-98
-349,-383,-543,-469,-418,-356,-350,-377,-378,-341
-44,-188,-393,-243,-141,-69,-69,-44,-95,-66
368,214,53,171,206,243,215,193,95,232
134,97,132,155,-2,35,0,36,-172,-25
-216,-164,71,-52,-164,-123,-178,-71,-300,-243
-164,-102,-12,-112,-26,-18,-111,-63,-149,-112
32,19,6,-62,124,17,-59,-137,-53,-4
184,126,48,89,274,73,60,-65,100,106
221,183,83,165,188,116,159,42,151,176
38,79,96,63,-115,-21,30,-51,22,86
-71,-36,18,-89,-302,-174,-113,-133,-90,-27
30,119,122,63,-96,-18,-11,6,-24,6
68,166,140,134,120,85,34,61,21,0
30,-226,-284,-209,72,10,6,81,74,19
26,-307,-396,-234,-36,57,115,194,191,124
13,135,121,159,6,138,130,161,130,100
-250,-28,73,76,-100,-112,-132,-177,-200,-213
-377,-315,-318,-204,-237,-272,-326,-354,-380,-366
-146,-164,-257,-109,-20,-62,-155,-146,-164,-128
142,174,77,122,341,188,148,173,173,162
189,238,263,235,398,211,225,258,283,214
154,143,181,207,187,106,153,189,230,154
146,113,125,171,81,-21,49,79,97,78
23,29,154,68,-36,-159,-68,-56,-75,-47
8,42,254,-36,-179,-68,-7,-3,-63,-4
10,19,-17,-92,-202,20,42,52,38,81
-94,-254,-323,-173,-216,-101,-93,-90,-34,-20
-245,-303,-244,-202,-204,-191,-182,-192,-163,-214
-272,9,-59,-195,-146,-165,-191,-231,-250,-296
46,173,139,-20,56,84,36,24,0,23
173,171,203,148,157,211,227,220,233,244
111,-8,56,92,96,152,210,202,237,214
39,-56,12,62,83,102,157,119,163,120
-121,-39,-66,-59,-14,-69,-45,-94,-67,-113
-219,-166,-348,-315,-119,-186,-176,-196,-160,-214
-70,-129,-303,-222,-89,-103,-100,-56,-22,-18
61,14,2,109,-20,-9,-7,30,48,92
70,54,153,198,61,85,52,62,61,67
15,36,246,171,143,161,93,64,27,-44
-44,-20,186,114,131,143,94,55,43,-105
-62,-19,103,85,99,79,52,67,180,-20
87,112,111,36,41,8,20,52,176,76
219,172,36,-41,-12,5,75,152,129,165
238,133,-9,11,35,67,142,204,73,182
94,25,-36,100,47,32,9,0,-152,19
-131,-96,-107,7,-87,-128,-127,-149,-278,-153
-256,-140,-84,-67,-206,-235,-177,-173,-192,-197
-285,-175,140,-84,-317,-262,-207,-227,-84,-202
-76,-61,85,-202,-248,-44,-19,-80,177,-7
168,122,19,-28,81,207,189,103,387,220
242,248,255,217,330,270,242,149,331,282
172,160,275,185,256,194,151,86,112,156
168,122,153,223,210,202,135,71,-45,19
109,57,-24,317,249,137,20,-94,-277,-167
-222,-277,-629,-274,1,-275,-352,-442,-611,-427
-228,-329,-866,-726,-219,-451,-427,-417,-524,-296
83,-2,-357,-346,-239,-154,-72,13,-26,101
72,57,-17,-34,-206,39,104,158,183,116
16,22,77,133,16,158,199,189,197,97
-32,45,176,219,130,152,167,110,108,85
-102,28,301,205,54,-14,-20,-60,-20,-21
-135,-12,359,41,-30,-111,-142,-121,-40,-105
-46,-45,108,-87,-61,-58,-86,-33,57,-10
-2,-79,-214,-74,-30,53,70,82,121,-2
105,38,-156,14,24,111,146,108,106,40
98,108,47,89,36,64,86,41,58,36
-8,103,196,43,-33,-36,-14,-16,26,45
-20,81,205,61,33,28,7,25,26,68
59,72,163,145,139,102,55,41,-40,62
136,70,146,143,93,17,5,-16,-101,98
129,47,93,69,47,-47,-43,-14,-34,58
20,-24,-11,-33,34,-22,-20,66,76,-64
-93,-98,-113,-136,-115,-43,-10,116,118,-99
-118,-86,-134,-187,-292,-92,-68,-14,-11,-141
-64,-43,-89,-138,-326,-177,-175,-164,-153,-170
-32,-96,-264,-222,-216,-166,-131,-73,-33,-91
40,-177,-367,-181,79,14,66,138,165,85
103,-74,-62,94,372,158,161,200,149,167
-76,141,261,234,209,76,24,-19,-130,-44
-142,98,211,146,-30,21,-23,-86,-177,-42
-33,-21,42,72,-38,57,18,-20,-80,41
17,-31,-89,-27,-44,63,48,27,-32,50
-13,43,-82,-19,-34,90,61,44,8,29
-21,95,-173,-112,-95,19,9,10,24,28
214,-78,-316,-186,-118,-55,-22,-8,23,132
306,-150,-53,70,129,76,79,75,86,223
-131,263,511,314,404,117,0,-16,-30,-69
-283,203,617,319,402,23,-115,-135,-176,-299
-28,8,334,220,120,-31,-84,-107,-196,-184
148,-7,8,91,-103,-44,-52,-72,-143,-6
152,-17,-227,-14,-157,-47,-37,-31,-39,84
-124,-182,-357,-156,-293,-204,-176,-192,-165,-104
-349,-326,-404,-513,-438,-383,-374,-364,-333,-318
-26,-18,50,-291,-100,-56,-77,23,16,38
287,208,246,-102,168,192,240,347,366,357
188,104,197,-155,68,101,195,249,297,236
86,32,-19,-82,0,112,150,165,192,149
102,99,71,94,94,187,168,164,184,145
37,86,95,174,101,75,80,61,91,41
-134,-103,-215,40,-93,-113,-108,-127,-113,-128
-289,-294,-465,-117,-233,-240,-245,-263,-278,-269
-356,-447,-444,-181,-205,-275,-313,-319,-357,-328
-153,-92,-31,27,51,-32,-82,-70,-121,-90
53,180,163,91,98,102,98,119,95,95
96,98,69,51,10,52,49,95,121,93
103,70,119,65,113,106,84,120,144,101
35,32,120,33,188,140,116,114,125,64
32,0,38,-12,42,57,102,108,140,68
116,53,85,38,-96,-12,89,127,161,108
138,58,93,55,-122,-89,-12,53,92,82
159,99,98,90,-22,-48,-43,30,21,71
53,185,124,95,31,-5,-61,16,-126,-17
-98,68,29,33,14,-11,-47,29,-209,-129
-165,-259,-85,-8,47,-42,-41,-34,-168,-147
-294,-263,-163,-105,17,-77,-79,-158,-127,-161
-211,-15,-60,-82,-26,-11,-54,-164,-44,-78
81,137,181,57,40,109,42,-62,45,97
150,117,177,21,13,95,69,-68,-42,79
125,78,146,56,63,135,111,17,-28,99
66,38,17,37,38,115,112,76,20,92
-1,-9,-154,-106,-66,-31,0,0,-51,-35
0,-53,-231,-69,90,-47,-46,-39,-68,-49
9,-63,-218,-31,130,-39,-53,-16,-9,-15
-97,-117,-209,-145,-261,-246,-200,-114,-109,-141
-162,-167,-217,-178,-399,-267,-253,-191,-196,-218
16,-28,-33,66,0,2,-24,-4,11,-12
214,197,296,355,367,215,184,184,194,209
180,218,338,296,239,209,170,156,162,219
23,116,219,222,64,125,102,76,84,85
-69,13,79,113,-1,-4,27,0,-1,-39
-129,-69,31,-96,-94,-107,-77,-75,-63,-155
-214,-104,159,-95,-205,-186,-159,-131,-122,-212
-204,-169,-9,-123,-237,-197,-188,-174,-215,-181
-43,-211,-468,-372,-101,-71,-82,-84,-145,-67
281,19,-306,-207,305,200,174,179,114,170
231,55,-174,-54,270,116,132,140,110,104
-13,-34,-234,-181,-135,-96,-29,0,22,-47
195,157,430,292,22,7,-5,-132,-91,-16
-162,-105,179,69,-162,-145,-137,-179,-131,-183
-311,-192,-176,-262,-330,-249,-222,-209,-158,-250
-285,-327,-678,-493,-398,-307,-261,-246,-167,-255
-145,-295,-528,-248,-86,-12,1,8,50,-37
152,180,260,306,383,397,388,373,355,281
204,329,499,343,314,265,268,227,217,200
83,171,291,170,119,49,27,-16,6,5
-122,-7,57,79,-5,-53,-72,-103,-50,-88
-208,-111,-124,-127,-189,-144,-103,-99,-69,-76
-152,-171,-280,-251,-252,-118,-29,36,13,5
-47,-111,-150,-47,-104,0,53,171,177,118
99,46,69,107,57,83,112,196,270,148
175,137,181,120,162,120,110,143,220,79
144,135,210,156,346,170,60,54,92,12
154,151,221,196,354,64,-59,-124,-168,-55
98,64,144,193,-11,-122,-133,-239,-341,-102
59,13,95,156,-164,-61,-59,-130,-247,-37
67,11,43,51,-61,41,48,19,-59,118
2,1,-29,-24,-18,37,60,57,31,94
-25,34,4,-24,4,35,55,77,114,55
-54,112,103,-77,-28,-34,-18,26,107,29
-165,67,52,-153,-137,-179,-188,-167,-98,-83
-210,-175,-188,-261,-192,-165,-183,-170,-130,-118
-140,-238,-202,-197,-142,-74,-53,-25,-20,-68
-25,-137,-179,-106,-77,-11,15,36,56,-55
139,44,-131,-80,64,152,165,215,254,88
212,125,9,15,141,216,245,329,336,189
181,146,146,100,109,130,169,217,165,159
54,120,205,224,112,34,54,31,-3,69
68,70,52,132,69,27,50,2,33,53
54,5,-104,6,10,21,61,6,92,-8
-59,-28,-56,68,28,-41,-45,-128,-33,-104
4,35,81,124,188,75,-15,-100,-57,-47
8,56,150,117,190,97,6,-51,-62,-31
-44,10,87,68,-4,-41,-41,-34,-66,-20
45,17,-30,-40,-217,-134,-71,-23,-59,61
-32,-63,-113,-192,-283,-200,-108,-52,-68,-20
-96,-141,-251,-289,-195,-109,-62,-16,21,-32
43,7,-79,-78,4,65,44,73,170,91
53,81,163,133,81,94,57,42,128,55
-68,6,78,106,19,4,-50,-53,-47,-49
-31,52,67,76,50,9,-7,-41,-88,13
44,72,75,64,99,90,85,24,-40,91
101,65,106,102,134,118,118,41,-3,62
63,72,130,154,145,95,76,0,-24,-4
-11,94,195,152,132,27,0,-58,-100,-119
-112,25,83,-16,22,-81,-93,-104,-162,-202
-53,11,-180,-158,-36,-41,-46,-36,-100,-56
193,8,-193,-19,24,102,95,71,1,114
38,-202,-181,-35,-145,-42,-26,-52,-56,-26
-224,-215,-248,-190,-306,-224,-194,-160,-142,-206
-114,-3,-93,-103,-132,-68,-20,58,85,-13
80,42,-32,-22,-17,38,117,195,266,163
159,58,18,53,-5,12,69,118,202,159
127,31,195,101,40,-40,-71,-74,2,76
-72,-98,453,73,250,-25,-138,-146,-131,-97
-49,74,462,147,396,193,121,130,87,2
98,231,226,213,170,247,268,266,243,170
106,161,-18,113,-100,49,111,102,137,111
-44,-158,-464,-181,-325,-213,-150,-149,-95,-105
-269,-386,-723,-539,-430,-331,-296,-293,-282,-268
-255,-67,-307,-497,-317,-188,-201,-176,-218,-187
-57,-68,-66,-126,-49,-15,-59,-38,-73,-29
64,-100,-27,110,208,90,54,82,44,125
104,5,73,149,132,57,91,153,137,143
37,85,106,94,-44,0,71,131,151,64
-3,90,119,95,-26,55,77,99,123,45
-13,75,150,121,66,83,54,43,80,21
-12,52,133,148,132,10,-30,-69,-57,-63
-57,-31,90,159,130,-20,-52,-90,-102,-108
-9,-23,60,107,65,51,38,19,2,-51
73,60,110,94,-16,88,77,45,34,26
112,164,190,97,33,94,86,80,82,97
105,217,168,6,112,99,95,106,143,98
100,62,35,-158,47,59,55,59,123,106
106,-282,-135,-187,49,68,70,80,145,196
-2,-73,-168,-132,96,-13,20,47,71,147
-146,101,-249,-184,-95,-199,-152,-120,-148,-115
-228,-114,-259,-144,-334,-297,-258,-227,-256,-293
-74,-99,-43,37,-183,-68,-77,-36,-64,-151
175,58,77,183,71,168,130,125,53,67
200,101,154,324,153,144,114,112,25,133
138,25,140,295,130,80,102,128,95,135
-44,32,21,57,47,40,51,75,103,31
-268,23,43,-152,-39,-86,-97,-127,-46,-166
-235,-48,126,-211,-25,-105,-107,-167,-87,-192
-148,-88,73,-257,-114,-129,-116,-216,-184,-212
-33,-130,-185,-203,-128,-51,-69,-173,-168,-156
135,-59,-303,-14,0,50,58,3,39,89
104,-48,-221,50,-19,-31,3,-41,-23,110
95,53,-35,54,23,108,116,111,84,126
104,116,41,-6,-12,185,210,235,252,145
91,157,174,35,-60,88,156,156,249,132
-13,77,246,97,-67,-20,38,54,146,52
-127,-56,92,13,-122,-80,-22,43,93,-14
-167,-109,-128,-86,-88,-79,-71,-8,54,-59
-85,-96,-179,-51,286,69,-20,-38,14,-73
81,34,-7,45,551,95,36,-12,-42,13
159,135,122,98,152,-32,-5,-5,-120,86
164,140,104,102,-206,-36,1,11,-65,99
115,91,122,100,-149,7,1,-13,-7,14
-11,3,102,99,-49,12,-13,-29,29,-99
-95,-64,22,51,6,29,-3,-2,75,-96
-171,-112,56,-45,-78,-31,-59,-87,1,-113
-154,-116,-14,-172,-184,-133,-118,-153,-112,-150
26,-40,-163,-65,-28,-63,-81,-98,-81,-60
60,25,-113,-8,50,-7,-84,-149,-128,-37
-12,47,-64,-34,-3,11,-47,-139,-164,-11
24,75,51,87,57,86,75,29,-53,78
62,52,98,122,59,72,100,118,-3,99
-24,-32,50,29,-18,-19,34,104,0,20
-66,-38,21,6,11,14,16,86,78,-35
-45,-7,22,48,142,54,6,24,114,-29
11,17,5,29,136,-8,-17,-31,61,29
60,-29,-129,-172,-136,-123,-59,-49,-32,61
86,-117,-263,-266,-291,-146,-54,-26,-68,64
94,-13,-100,-86,-129,-5,65,89,4,59
-21,61,68,81,61,118,127,180,83,-31
-57,87,91,125,163,194,172,182,126,5
-71,30,11,71,86,99,95,28,17,-37
-19,19,-15,27,0,-11,7,-46,12,-50
110,83,119,78,22,-11,-43,-112,-46,-1
115,90,253,189,102,10,-96,-221,-201,42
123,48,193,136,202,73,-8,-110,-129,121
43,0,188,90,90,34,25,4,-9,82
-99,-60,73,80,-107,-55,-36,-15,8,-36
-172,-141,-201,-87,-213,-153,-146,-112,-93,-170
-199,-178,-415,-318,-302,-252,-221,-183,-166,-228
-145,-146,-470,-430,-247,-195,-171,-111,-95,-126
117,30,-212,-308,-26,65,81,140,142,101
342,216,148,120,197,321,305,335,337,324
226,202,329,391,191,271,249,259,261,264
-31,54,252,264,-2,41,31,34,40,6
-133,-27,77,111,-37,-38,-74,-96,-93,-118
-175,-62,-46,30,66,-24,-121,-151,-165,-166
-255,-168,-103,-148,-33,-176,-248,-234,-269,-270
-214,-230,-26,-206,20,-209,-230,-189,-240,-207
50,-118,-93,-63,248,54,100,163,123,162
224,77,-6,47,185,228,339,404,414,381
204,226,268,65,-67,81,188,241,303,232
155,153,214,33,-131,-74,-34,7,65,39
54,24,-75,-49,-123,-72,-55,-38,-42,-40
-163,-87,-212,-182,-188,-107,-98,-92,-135,-163
-174,-70,-144,-185,-140,-81,-90,-86,-164,-155
99,109,112,148,123,115,78,63,6,88
79,116,197,252,176,101,46,15,41,74
-173,-154,-91,24,-44,-128,-159,-175,-104,-143
-200,-273,-253,-92,-52,-74,-110,-116,-46,-154
53,-23,6,38,106,142,116,125,154,52
142,122,120,85,83,97,121,124,114,91
26,66,-10,17,44,-5,-9,-53,-107,-22
-125,-103,-237,-159,-59,-106,-149,-215,-311,-99
-139,-149,-293,-240,-225,-174,-192,-209,-280,-123
-30,-20,-92,-74,-186,-101,-63,-11,-37,-13
95,83,45,9,-78,-4,69,128,94,71
214,112,117,114,118,200,186,230,139,146
171,119,200,198,144,216,203,240,179,142
-63,6,186,108,-57,-26,11,47,67,-31
-133,-64,251,-16,-180,-137,-107,-118,-69,-110
60,61,151,18,-53,-28,-38,-101,-62,13
67,-22,-124,-13,175,80,-14,-126,-107,-8
-123,-173,-259,-50,425,79,-40,-133,-147,-97
-94,-105,-206,-39,269,-18,-31,-38,-56,-19
40,56,-99,-73,-184,-152,-46,10,5,64
101,164,-7,-99,-323,-169,-23,54,84,66
113,29,32,-66,-220,-79,56,145,274,57
-49,-60,137,63,-63,-4,38,119,346,18
-107,51,101,27,63,102,83,100,291,16
48,143,62,52,225,205,168,134,147,70
161,170,131,195,414,235,196,131,-31,158
208,151,88,172,314,156,151,72,-142,205
129,72,43,133,-2,25,37,-49,-225,97
-103,-67,151,115,-170,-128,-134,-225,-316,-162
-345,-263,188,-4,-322,-325,-346,-419,-430,-444
-442,-434,-311,-331,-417,-374,-398,-425,-382,-499
-194,-268,-560,-369,-209,-117,-136,-130,-101,-225
133,66,-247,-123,56,140,144,153,165,106
200,186,30,20,146,201,215,220,274,254
208,196,196,104,195,223,225,238,314,262
146,174,246,158,204,179,196,217,245,186
19,109,214,111,166,67,81,91,117,83
-60,0,61,-22,6,-40,-18,35,131,31
-21,-87,-151,-110,-143,-97,-28,24,122,-18
-11,-88,-221,-127,-153,-104,-84,-63,-34,-68
-52,-66,-117,-29,-46,-32,-70,-68,-124,-65
-21,-5,25,79,76,86,44,49,-42,-24
65,70,116,102,80,120,88,72,15,19
96,96,129,120,38,25,25,19,-31,55
77,59,91,70,-32,-66,-66,-56,-88,23
0,-13,20,-47,-57,-93,-97,-58,-80,-23
-13,0,85,-47,58,26,16,40,-21,-21
19,76,224,88,114,133,126,124,92,23
-36,37,133,141,54,40,64,61,97,11
-108,-69,-68,57,-91,-148,-100,-111,-62,-77
-235,-231,-330,-196,-374,-307,-280,-274,-253,-209
-194,-189,-325,-272,-354,-230,-256,-255,-267,-185
0,-5,-85,-74,-32,-1,-54,-73,-91,-22
74,68,38,59,166,132,77,64,98,83
97,89,60,124,185,148,127,127,155,132
34,34,7,83,225,60,37,36,29,54
-76,-55,-161,-200,160,-46,-67,-81,-96,-83
166,-14,-122,-268,42,66,82,111,106,141
333,83,108,8,-7,146,213,251,265,288
47,122,33,37,-114,6,63,80,118,62
-111,-28,-120,47,-40,-39,-34,-22,-28,-90
9,4,87,169,53,-3,-42,-82,-150,-113
55,49,193,128,4,-33,-64,-105,-170,-46
-11,-15,56,39,-19,-23,-24,-24,-74,-13
-41,-15,159,40,19,35,52,71,48,12
-45,-4,220,9,68,58,53,68,104,19
-115,-26,-34,-52,25,17,17,15,74,-70
-92,-27,-156,-66,-103,-46,-30,4,77,-69
-38,-41,-17,4,-141,-128,-116,-47,39,-7
-113,-154,-145,-25,-120,-116,-132,-76,-54,-43
-70,-91,-297,-129,-82,-10,-7,18,-29,0
62,62,-107,-45,-10,44,42,10,-88,34
224,129,71,73,69,99,71,-30,-115,129
222,161,172,190,122,164,129,50,38,181
89,132,277,301,53,83,70,34,72,90
-102,-34,291,247,-42,-100,-126,-138,-146,-101
-167,-151,198,-79,33,-159,-195,-196,-252,-193
-69,-36,-37,-266,110,-49,-60,-24,-75,-51
-23,41,-145,-152,50,45,51,104,62,51
18,-51,-245,-5,143,96,85,140,140,74
84,-33,-297,-51,32,6,23,56,27,-44
-10,-142,-351,-220,-230,-123,-70,-75,-98,-125
-154,-115,-85,-255,-264,-133,-82,-48,-5,-47
-46,97,194,-1,-47,22,35,76,125,55
147,120,46,127,83,91,93,71,88,89
344,-12,-74,158,154,157,161,113,91,192
64,206,195,195,105,85,58,10,-13,30
-288,61,305,68,-88,-148,-175,-217,-241,-235
-252,-167,91,-9,-125,-178,-222,-220,-257,-230
-93,-107,-68,9,-42,-57,-90,-54,-99,-80
-14,-45,-81,-27,9,30,36,75,41,28
-21,-17,-26,-86,16,42,75,93,86,21
-2,26,44,-63,81,84,82,135,118,4
122,83,136,25,141,149,170,254,154,79
157,73,146,77,27,82,168,286,133,110
80,5,47,81,-5,21,85,124,25,71
-2,-51,-146,-3,49,3,-37,-166,-158,16
-142,-170,-342,-186,-116,-161,-195,-393,-300,-83
-169,-251,-460,-318,-297,-310,-279,-403,-261,-116
109,-9,-141,-69,-87,-51,-5,-60,92,111
236,172,176,164,63,109,143,104,299,220
99,122,224,147,47,41,5,-29,156,59
-41,29,129,89,68,17,-57,-74,43,-50
-80,-7,29,64,111,53,-11,-24,42,-44
-41,33,22,93,113,79,49,58,62,35
17,64,96,114,79,45,54,127,86,79
75,121,157,112,92,80,86,159,58,71
77,133,157,79,73,89,84,124,-1,-6
17,86,263,23,-26,4,11,54,-79,-90
-88,-63,276,-129,-146,-127,-131,-126,-289,-235
-185,-327,-293,-293,-260,-271,-294,-336,-512,-292
-145,-285,-430,-49,-137,-188,-205,-237,-377,-143
-95,-73,-108,209,55,-31,-57,-51,-88,-45
-111,-59,-235,-184,37,6,1,20,87,-43
-52,-22,-212,-300,-82,-7,27,70,178,3
145,117,17,-88,-27,74,136,177,273,166
351,238,227,106,176,249,300,300,344,364
273,228,359,192,179,196,235,189,191,265
95,141,221,123,-43,17,53,24,0,63
-101,-40,-142,-39,-224,-137,-131,-132,-180,-141
-268,-273,-434,-217,-242,-207,-248,-224,-271,-289
-200,-258,-277,-214,-143,-138,-195,-150,-156,-189
-3,-29,100,47,-7,3,-18,34,54,29
133,100,243,264,140,152,134,167,187,161
90,68,177,265,231,156,114,119,115,95
-61,-38,-17,110,172,27,-2,0,-13,-19
-175,-112,-155,-122,100,-104,-114,-115,-106,-103
-147,-161,-260,-265,43,-204,-166,-133,-95,-81
-41,-74,-148,-88,22,-39,-45,-13,2,2
98,92,16,133,77,150,151,162,158,118
196,227,114,224,59,142,176,199,197,159
138,169,122,121,-28,31,63,74,77,67
19,15,98,-66,-108,-17,20,15,20,-2
-104,-81,-49,-162,-98,-22,-18,-2,-14,-42
-63,-65,-28,-201,-131,-51,-59,-46,-51,-21
1,1,168,-184,-138,-57,-84,-92,-116,-38
105,102,91,-19,17,49,-9,-38,-77,-17
76,117,41,125,107,81,17,-21,-30,2
-14,86,74,179,108,60,21,5,15,16
0,75,85,134,93,68,60,37,47,89
19,40,89,100,66,47,46,29,40,86
-3,8,124,125,52,23,12,8,-5,-7
12,20,127,78,76,54,-2,-36,-59,-32
5,0,89,-34,0,2,-43,-77,-103,-63
-74,-112,-172,-187,-122,-115,-85,-84,-101,-93
-141,-191,-344,-193,-126,-109,-48,18,16,-17
-195,-174,-298,-118,-111,-131,-86,-22,18,-35
-140,-143,-202,-54,-104,-118,-118,-102,-32,-89
89,-10,109,176,25,30,-1,-1,82,13
60,-54,35,103,-96,-88,-93,-98,-51,-87
-17,-66,-124,-91,-118,-107,-116,-94,-95,-40
-7,96,65,103,133,152,132,182,178,125
-86,42,111,161,106,102,128,190,169,-6
-16,-34,-54,-105,-35,-88,-34,-41,-87,-124
188,74,-124,-307,-49,-28,0,-46,-77,56
237,164,-4,-171,-15,83,88,77,60,222
57,84,99,30,27,26,33,37,-3,95
0,65,110,104,18,-11,-9,-53,-181,-75
44,17,-6,-12,-90,-45,-20,-69,-231,-88
-12,-124,-100,-60,-77,-21,15,-4,-111,-33
-53,-136,-79,36,83,106,112,103,60,51
-17,37,104,132,135,122,98,80,97,50
-14,64,171,119,68,11,-10,-10,83,21
-59,21,122,98,72,-24,-45,-22,115,2
-120,-34,18,47,147,-13,-45,-6,93,-80
-124,-61,-54,-49,118,14,-12,27,71,-75
-86,-57,-84,-83,-60,7,-3,63,67,-49
-3,-24,-42,-42,-204,-71,-17,81,23,-62
95,74,46,37,-186,-113,-26,37,-70,-50
179,132,100,67,0,-17,-32,-91,-201,21
209,115,147,84,105,67,-7,-159,-232,80
144,51,133,66,94,109,51,-26,-2,192
26,22,85,113,144,112,75,70,186,160
-114,-22,11,155,210,-7,-47,-72,89,-57
-205,-119,-229,-117,19,-176,-182,-196,-86,-212
-270,-255,-391,-331,-374,-302,-260,-249,-195,-266
-165,-154,-298,-278,-340,-212,-185,-167,-115,-136
160,135,32,-66,35,80,76,71,101,134
235,166,173,22,166,178,176,159,181,198
103,73,120,81,121,126,153,159,150,103
78,67,75,146,122,181,209,216,169,91
93,65,78,187,147,178,189,156,128,101
-63,-48,-28,91,-12,-34,-19,-19,-19,-22
-183,-111,-184,-94,-129,-138,-134,-100,-112,-149
-107,-28,-153,-119,-72,-48,-50,-22,-20,-63
-40,16,-51,-22,-48,-28,-33,-18,-23,-11
1,37,155,39,-43,-40,-49,-52,-75,-18
92,92,364,-51,-33,15,-1,-13,-31,95
176,102,320,-144,-24,66,80,75,58,168
138,28,-56,-81,41,103,163,172,187,133
-65,-83,-223,60,76,37,98,96,142,-8
-191,-128,-203,35,-79,-94,-55,-34,15,-187
-82,-41,-67,52,-147,-64,-44,11,94,-151
47,9,14,40,-171,-50,-31,-47,-7,-110
38,-47,-16,-52,-182,-90,-71,-115,-180,-89
32,-9,-32,-64,-136,-69,-42,-10,-124,45
67,52,-49,-38,-32,-9,4,58,-33,123
57,-74,-44,21,193,105,63,53,50,88
-38,-37,53,118,592,218,104,0,78,18
-77,77,98,139,601,153,50,-58,39,-18
60,160,78,104,133,17,20,-21,77,84
204,225,193,86,-147,1,54,54,137,178
171,187,316,84,-69,109,110,106,130,161
57,122,349,129,-38,74,52,27,24,52
-170,-79,218,78,-225,-154,-188,-215,-252,-214
-351,-309,-186,-172,-376,-342,-373,-366,-428,-395
-370,-443,-728,-474,-371,-334,-353,-323,-403,-361
-62,-122,-504,-325,-65,2,-25,11,-65,-14
149,202,-180,-78,122,166,156,189,145,172
204,60,-143,30,120,108,106,118,128,158
147,-218,-79,125,190,81,87,79,105,119
-100,41,258,221,207,98,78,65,53,-8
-113,116,311,79,-80,-27,-1,0,-17,-51
-18,-1,177,-48,-257,-138,-51,-15,-25,-26
18,-2,34,4,-110,-49,13,40,42,22
65,50,81,127,59,94,97,107,117,81
81,30,128,136,126,163,126,96,125,105
61,11,147,166,196,174,111,75,100,63
16,2,174,203,223,83,23,21,20,-24
-58,-12,106,133,68,-77,-129,-108,-120,-91
-106,-56,-195,-176,-202,-208,-194,-153,-167,-88
-105,-77,-398,-356,-239,-163,-93,-56,-100,-47
-63,-2,-270,-309,-148,-39,2,24,-16,-6
1,44,-326,-331,-161,-100,-84,-97,-100,-44
132,-33,-287,-154,-60,-36,-71,-85,-75,24
205,51,42,181,151,168,155,134,183,220
121,211,357,301,233,194,191,153,249,175
27,137,467,261,216,125,98,69,136,39
-78,-69,243,27,50,-52,-51,-35,17,-89
-233,-231,-222,-244,-188,-208,-130,-75,-19,-147
-104,-151,-279,-191,-224,-105,-43,13,39,-45
155,44,-37,3,-32,67,62,52,41,70
126,66,-9,66,73,54,12,-26,-95,-23
-18,-17,-74,49,87,-5,-35,-66,-178,-72
-37,-11,-11,39,25,16,6,25,-61,42
29,56,129,72,-18,21,36,65,12,80
47,63,137,88,23,11,25,31,-26,15
39,46,102,102,70,54,23,10,-48,-5
22,46,134,105,57,54,12,-12,-53,-4
-6,45,133,122,3,-4,-37,-84,-93,-73
-49,-7,55,73,-37,-48,-67,-86,-94,-108
-68,-69,-61,-25,-39,-37,-37,-36,-56,-83
-54,-81,-136,-119,-56,-7,13,35,28,-8
-26,-62,-139,-180,-85,-22,33,72,135,75
-27,-33,-145,-228,-80,-34,1,27,103,31
70,75,-59,-93,6,42,77,92,119,93
70,64,-32,6,10,36,79,108,84,101
-40,-42,-81,-87,-73,-65,-38,-18,-55,-47
11,-16,-20,-4,6,2,-28,-36,-96,-66
83,39,115,150,119,99,47,29,-29,-4
-12,28,171,180,143,60,22,27,22,-34
-69,40,198,187,164,-15,0,52,109,-6
-24,89,290,198,158,35,39,55,127,7
35,85,235,43,27,67,60,70,131,55
4,8,18,-62,-67,23,41,90,149,67
-137,-185,-288,-136,-195,-151,-111,-42,29,-46
-200,-306,-539,-332,-328,-284,-263,-207,-183,-139
0,-155,-470,-320,-234,-182,-190,-218,-214,0
104,-33,-284,-164,-96,-41,-55,-164,-136,89
105,27,23,20,72,86,51,-61,-83,62
59,78,224,167,174,126,86,-6,-77,-43
-17,70,187,135,119,81,94,75,30,-26
-31,39,157,66,38,85,113,152,162,64
-3,55,184,45,-2,62,66,104,110,56
28,101,141,50,1,26,4,0,-25,-8
10,115,48,101,51,73,40,37,6,-11
-3,118,-12,124,67,56,17,27,-13,-60
72,66,-85,47,2,-37,-93,-88,-187,-110
229,-93,-149,62,161,62,5,-26,-130,79
118,-74,-55,106,330,123,101,55,1,155
-346,113,251,-120,-56,-190,-171,-191,-165,-194
-430,-150,211,-327,-368,-352,-296,-266,-177,-313
-92,-108,-9,-140,-145,-80,-62,-24,38,-58
138,53,-105,90,109,173,134,153,148,101
148,59,-76,135,99,142,114,102,34,47
66,-1,-52,119,28,37,4,-42,-109,-43
30,-30,-17,80,36,-17,-62,-121,-160,20
28,-67,-35,-62,-117,-122,-151,-190,-214,52
-81,-89,82,-168,-229,-160,-128,-120,-57,2
-49,10,80,-12,-73,-31,22,85,235,94
106,89,-55,54,80,104,121,207,396,232
108,46,-36,-24,95,126,153,228,327,174
-25,-44,25,-80,-8,13,51,76,27,-73
-136,-109,-110,-137,-98,-87,-57,8,-168,-235
-127,-83,-125,-41,-88,-65,-46,61,-64,-131
-59,-36,18,139,1,-13,-27,56,17,-35
55,29,74,158,206,105,34,43,97,17
137,114,93,113,234,115,60,-19,61,-37
136,156,51,46,9,-7,6,-143,-86,-45
120,50,-49,-10,-111,-39,20,-57,38,177
65,-45,20,-6,-34,52,92,57,79,191
-124,29,152,22,-35,-11,-49,-135,-286,-177
-192,-123,-47,-61,-144,-146,-208,-274,-437,-251
2,-31,-158,-93,-38,-62,-82,-94,-165,50
154,49,-58,12,112,111,86,114,100,206
138,73,90,88,124,133,130,169,192,165
1,102,185,32,98,74,68,84,122,11
-73,-25,97,-35,105,110,102,101,114,-12
-98,-64,44,23,104,155,174,182,174,51
-82,-35,-2,93,-37,18,83,88,114,7
-26,-86,-126,-12,-241,-205,-132,-109,-55,-99
15,-75,-183,-143,-220,-237,-212,-174,-121,-103
67,9,-128,-88,19,-73,-85,-47,-11,-11
-30,0,-75,5,132,11,6,31,52,5
-167,-34,18,-55,-60,-40,-13,28,48,-47
-127,-35,71,-164,-161,-109,-71,12,10,-73
57,-20,-21,-136,-60,-53,-16,49,50,-29
155,48,-15,-27,3,69,122,111,130,87
167,110,50,95,32,119,172,112,187,189
107,67,-11,110,31,82,123,51,95,110
20,-24,-115,22,-33,-13,23,-12,-20,-33
-118,-55,-118,-5,-63,-74,-88,-93,-107,-127
-101,7,4,50,1,-31,-63,-91,-103,-97
29,84,141,113,60,56,48,36,28,35
144,147,215,186,162,139,131,120,130,123
143,146,237,218,241,206,169,104,99,107
17,85,223,238,286,194,87,-18,-38,2
-91,-42,95,146,308,100,-5,-75,-103,-75
-138,-156,-124,-128,-70,-132,-109,-109,-132,-126
-151,-200,-81,-249,-385,-289,-205,-180,-149,-147
-28,-48,-32,-168,-285,-195,-123,-83,-44,-25
-49,0,-133,-150,-129,-167,-118,-105,-58,-50
-196,-159,-278,-273,-73,-248,-237,-236,-173,-176
-107,-169,-324,-363,-147,-130,-87,-76,-38,-58
93,-35,-312,-227,-159,106,162,189,203,162
153,65,-136,-10,3,204,194,196,222,172
176,169,138,163,204,247,196,141,192,133
183,212,270,230,266,203,168,113,178,130
85,123,220,166,54,27,31,41,39,53
-41,26,127,99,-82,-72,-43,37,-40,-34
-98,-33,47,51,-97,-83,-50,32,-31,-64
-97,-30,54,73,-5,-41,-41,-19,-19,-67
-59,-14,85,90,45,-10,-11,-63,6,-44
-10,-44,30,48,-9,56,51,-12,95,37
0,-44,10,71,68,117,102,66,200,117
-74,-53,-35,28,88,48,51,38,110,7
-164,-83,-92,-50,-56,-84,-115,-131,-178,-209
-103,-29,-147,-120,58,-37,-97,-102,-194,-202
120,89,-86,-79,212,67,47,72,-36,12
268,143,38,-9,-48,30,72,26,-83,126
257,129,62,-34,-181,29,50,-17,-79,120
123,90,61,-40,-109,-22,-2,-17,8,140
11,88,2,-30,-92,-88,-60,-13,65,97
2,79,-67,0,-25,-49,-50,7,62,-28
92,-73,-72,-11,46,-9,-41,-31,-32,-58
-85,-160,83,20,31,-18,-53,-90,-151,-70
-180,-47,133,49,-6,-4,-14,-86,-157,-81
-48,29,65,80,7,49,42,-24,-93,-20
-4,16,10,98,35,71,57,-2,-34,4
-40,-22,-19,108,116,52,29,-18,8,-29
-49,-33,-29,95,23,34,30,5,102,-18
-4,-14,-27,29,-127,29,59,74,230,36
-38,-26,-1,3,-20,63,47,77,241,58
-93,-7,111,-73,130,44,7,20,121,-10
-50,100,72,-139,56,-144,-76,-30,-46,-116
35,-28,-220,-160,-50,-204,-89,-21,-76,-66
59,-291,-379,-152,-26,-31,62,99,60,72
41,109,99,145,134,156,150,138,64,77
92,318,397,250,126,164,122,69,27,109
114,113,244,186,65,73,53,-24,-9,73
7,-24,189,132,-68,-57,-65,-121,-86,-81
-124,-106,96,-15,-166,-136,-147,-186,-152,-189
-161,-97,-122,-166,-142,-89,-98,-99,-58,-106
-75,-20,-139,-198,-113,-6,4,31,47,5
95,77,-14,-95,-108,25,64,96,117,121
152,66,-49,-6,-22,3,54,91,165,134
-107,-174,-243,-145,61,-164,-141,-93,4,-82
-270,-298,-435,-359,-29,-259,-248,-174,-139,-212
-55,-106,-400,-235,-109,-24,-24,50,16,-11
154,139,0,104,53,197,186,214,181,167
124,137,183,222,143,185,144,135,137,111
114,108,242,216,166,186,150,106,103,70
94,123,282,185,125,136,140,97,82,36
32,104,254,153,55,46,61,47,42,6
-41,3,113,98,-34,-36,-41,-40,-23,-4
-75,-54,-42,20,-51,-72,-89,-94,-55,-25
-95,-62,-124,-70,-65,-95,-98,-135,-125,-87
-105,-108,-212,-148,-123,-141,-147,-178,-232,-138
-60,-106,-156,-60,-58,-97,-130,-154,-221,-48
16,-33,-24,-3,28,6,-12,-42,-93,12
101,100,112,9,127,153,165,148,134,74
143,185,230,64,120,192,223,226,285,131
114,134,227,78,29,82,125,127,221,87
45,27,114,59,-49,-47,-20,-25,21,-26
-23,-23,-58,-23,-86,-82,-68,-59,-71,-31
-21,9,-138,-96,-85,-61,-59,-45,-72,15
-90,-48,-207,-152,-117,-85,-102,-120,-168,-95
-139,-157,-250,-149,-101,-96,-114,-139,-191,-146
-59,-104,-105,1,59,22,6,-5,-6,-4
40,29,92,117,131,98,102,92,122,96
44,37,142,81,77,44,57,46,80,57
5,-2,72,20,69,6,-7,12,43,29
-22,-22,36,11,137,-7,-25,12,36,20
-48,-45,26,-5,79,-19,-31,19,15,-1
-51,-26,33,7,-62,-39,-34,3,-20,-43
-13,17,107,125,-61,-28,-31,-9,-61,-75
29,-14,9,112,-25,30,34,61,15,-2
-8,-68,-173,-7,-20,70,83,137,148,97
-1,-14,-171,-66,-32,35,44,83,101,64
59,32,-2,-46,-45,-10,-16,-20,-59,-26
191,108,144,-48,-10,10,6,15,-36,45
152,102,120,3,60,47,-9,1,-60,56
-48,66,297,129,174,31,-61,-61,-167,-64
-139,3,326,142,154,-25,-100,-94,-222,-150
-115,-106,91,20,-101,-131,-144,-129,-194,-83
-49,-84,-177,-70,-189,-107,-105,-100,-135,-7
-34,-44,-378,-184,-173,-98,-82,-93,-134,22
-70,-121,-461,-302,-189,-148,-115,-73,-86,-69
-46,-170,-276,-188,-104,-35,-31,34,32,-30
120,23,22,15,94,179,158,189,192,189
202,229,286,147,206,243,214,210,223,271
98,198,327,219,205,149,133,136,158,110
-82,42,163,168,69,-41,-58,-29,-28,-127
-188,-123,-87,-31,-30,-138,-190,-185,-223,-284
-150,-184,-258,-186,18,-100,-161,-161,-129,-187
38,-16,-96,-51,83,-7,12,69,183,68
96,94,149,113,-102,-11,106,246,330,168
26,76,248,105,-129,27,110,207,243,141
-76,-14,105,-37,-98,10,27,37,-24,71
-69,-66,-62,-9,-63,14,-17,-79,-206,-3
2,-24,-85,159,34,39,-38,-171,-256,-15
-65,-113,-195,51,-38,-142,-242,-396,-394,-175
-180,-203,-362,-337,-145,-220,-314,-410,-341,-346
121,44,-180,-243,18,16,0,-25,7,-51
313,146,14,38,51,108,150,135,98,169
111,99,180,159,35,118,129,83,-16,128
-24,55,221,81,52,61,23,-18,-119,0
-40,-17,20,-84,65,-31,-55,-27,-45,-34
49,-19,-106,-90,172,50,46,93,90,40
87,41,-12,57,123,53,118,142,155,109
-23,22,66,62,-81,-84,-6,43,91,19
-74,-8,62,-22,-189,-112,-69,-13,27,-53
-29,-135,-88,-30,-93,-12,-1,33,38,3
-40,-70,-38,49,-36,59,52,71,49,17
-80,25,53,43,-61,39,10,18,12,-12
-51,45,80,55,-56,0,-1,28,66,30
6,27,31,44,-42,-5,-6,36,86,9
131,-52,-105,-13,-18,43,44,92,118,68
208,7,-123,5,89,107,117,163,196,130
18,317,147,99,318,60,12,-39,-95,-96
-86,95,176,56,329,-81,-151,-256,-376,-214
-25,-77,20,-41,-7,-143,-134,-159,-230,-12
9,-58,-41,-4,-181,-24,-16,30,25,112
-17,-39,66,95,-95,49,27,82,89,52
-111,-94,277,87,-42,-10,-40,-8,-6,-83
-106,-111,159,-99,6,6,-6,-12,-2,-68
-37,-58,-23,-153,-21,44,20,21,51,-2
-21,16,14,-50,-83,13,18,31,62,4
-63,19,-20,28,-111,-62,-17,11,56,-17
-73,-35,-199,-88,-118,-84,-21,25,57,-18
-61,-80,-318,-173,-91,-95,-44,-13,-13,-54
29,-63,-329,-122,-48,-56,-36,-18,-39,-21
112,-31,-288,-54,-6,-14,-15,0,-32,54
116,3,-81,23,41,7,-35,-32,-68,42
93,100,328,173,155,37,-33,-65,-98,-11
37,111,372,219,196,32,-3,-42,-39,-32
-49,8,144,94,-6,-33,-20,-17,34,-48
-66,-11,1,-101,-94,-23,28,56,68,-7
51,165,-137,-173,14,117,140,134,70,135
244,179,-172,-125,102,207,206,194,124,267
208,-170,-90,-12,22,78,145,139,134,158
-157,-184,92,88,-77,-109,-22,-46,-32,-90
-219,55,162,97,-94,-138,-121,-167,-158,-168
-70,-4,-16,41,-137,-128,-125,-174,-161,-116
-79,-138,-177,-66,-164,-106,-108,-150,-157,-129
-67,-77,-100,-43,1,21,-26,-55,-81,-60
12,36,51,68,262,134,69,36,22,16
20,92,128,137,260,70,42,28,33,7
17,114,103,59,-25,-37,1,36,84,24
16,77,52,-13,-154,-22,32,63,104,33
12,50,55,-10,-45,-7,3,30,65,1
17,23,58,-11,-16,-60,-34,-18,62,9
40,-18,23,6,-69,-28,-6,-4,72,46
25,-26,-7,34,-66,28,47,40,71,79
8,-14,-50,67,1,67,71,43,54,61
-39,-44,-57,77,21,37,-13,-60,-85,-34
-71,-87,-114,-110,-100,-122,-181,-211,-255,-150
35,-57,-161,-225,-19,-96,-145,-139,-128,-127
97,-11,-168,-145,350,125,86,108,143,33
62,56,1,-28,383,162,217,279,248,144
-32,49,159,-57,-127,-40,119,238,166,91
-95,-44,63,-73,-290,-111,9,155,99,-14
-25,-37,21,-2,-118,14,76,162,172,-2
56,61,123,126,73,145,150,144,261,46
44,117,102,210,146,113,88,21,215,29
38,95,-2,174,119,22,-32,-104,61,-39
-53,-68,-141,-30,-46,-109,-173,-260,-174,-127
-24,-148,-142,-84,-103,-79,-134,-221,-296,-52
83,134,104,84,59,91,52,-14,-187,130
87,226,133,119,76,91,75,35,-129,158
77,78,50,87,-14,-15,-24,-69,-182,48
-77,-82,-25,19,-121,-128,-158,-219,-248,-124
-147,-138,-140,-155,-95,-97,-142,-182,-168,-184
-1,-49,-13,-137,102,67,36,-7,-4,-80
135,74,375,20,170,160,155,117,163,130
48,40,257,33,38,47,61,46,163,137
-62,-53,-94,-75,-68,-93,-68,-79,-3,-34
-106,-80,-222,-68,-74,-87,-99,-125,-142,-129
26,11,-141,47,-1,11,-18,-61,-131,-76
80,1,-163,-50,-81,-13,-14,-30,-87,-19
-65,-117,-319,-250,-202,-142,-136,-91,-100,-61
-58,-42,-222,-167,-120,-103,-108,-40,-26,-38
6,86,132,99,18,23,33,99,99,55
18,76,282,131,84,125,109,183,183,101
-15,-6,94,51,72,96,108,144,175,75
-67,-36,-39,77,66,38,68,99,126,44
-90,-27,14,112,63,13,45,63,89,26
-135,-26,91,47,1,-52,-43,-21,13,-50
-100,54,60,-17,-24,-25,-42,-24,10,-59
180,94,2,-14,51,109,88,77,66,77
407,47,147,57,143,193,161,122,75,179
70,101,263,107,61,36,32,-15,-17,17
-238,-65,-41,-12,-132,-141,-110,-101,-36,-119
-180,-210,-460,-294,-158,-81,-42,6,73,-32
-104,-174,-426,-235,-34,23,36,63,93,3
40,-26,-102,66,87,19,21,6,-29,-47
98,17,207,145,49,-68,-37,-89,-121,-103
128,41,196,38,0,-23,-20,-24,36,45
139,96,7,36,99,80,54,49,110,105
32,124,146,77,104,14,8,-12,-24,-36
2,112,249,84,-62,-70,-48,-48,-84,-56
41,52,77,36,-126,-49,-16,28,22,70
55,-56,-81,15,-29,61,83,103,99,164
-15,-75,-206,-16,7,84,107,88,71,122
-99,-45,-215,-122,-127,-53,-7,-27,-7,-36
-129,-128,-186,-204,-148,-94,-76,-76,-31,-112
-197,-46,-38,-106,-71,-75,-86,-80,-52,-128
-133,-6,65,0,16,-20,-19,-6,7,-19
50,37,192,64,196,126,137,129,134,110
148,91,130,111,220,180,147,88,45,88
135,62,21,87,15,51,34,-33,-143,26
100,62,114,81,-16,9,23,60,-94,-4
116,147,288,130,103,64,77,127,42,46
98,183,327,173,170,99,81,75,74,51
47,136,277,248,162,81,42,-25,28,32
-50,-35,25,141,0,-46,-67,-117,-45,-25
-179,-244,-337,-113,-121,-210,-214,-236,-163,-176
-355,-420,-692,-506,-300,-418,-404,-406,-353,-378
-296,-347,-610,-484,-419,-367,-338,-302,-264,-292
-39,-76,-156,-154,-316,-123,-81,-60,-9,-51
97,73,83,-29,-99,44,69,100,125,79
140,120,66,35,104,170,170,209,200,161
189,186,112,103,131,230,223,277,260,238
197,209,194,157,96,253,252,316,285,249
154,162,195,132,29,157,203,238,233,169
109,139,148,121,76,95,144,130,130,82
-17,67,113,203,191,66,33,-31,-55,-53
-142,-54,39,89,91,-53,-125,-245,-260,-200
-218,-175,-108,-158,141,-120,-219,-325,-336,-252
-52,-100,-93,-188,359,-7,-73,-135,-149,-81
109,23,0,-14,122,42,61,34,25,57
68,62,119,163,-154,-27,45,68,121,90
-70,25,165,228,-183,-84,-39,38,137,68
-67,-41,-28,22,-191,-95,-80,0,34,96
-40,-82,-257,-171,-216,-122,-130,-61,-104,8
-90,-155,-338,-215,-197,-121,-138,-73,-170,-168
-44,-86,-145,-222,-134,-89,-117,-153,-295,-247
126,90,158,-77,55,45,-9,-120,-240,-34
230,169,178,131,315,216,162,109,115,238
95,76,59,172,328,172,166,225,348,191
-24,26,25,158,134,66,82,190,339,51
-113,-29,49,183,-12,-4,-3,41,100,-74
-151,-111,-50,-30,-137,-31,-25,-53,-64,-80
-109,-138,10,-185,-212,-84,-45,-122,-159,-71
39,-37,32,-62,-63,-6,14,-74,-136,-13
142,69,0,44,44,48,46,-9,-83,24
137,97,-10,35,53,76,77,40,-13,17
105,105,24,36,26,89,112,79,89,53
19,84,180,58,-44,-16,5,-27,11,-25
-109,-35,133,-97,-215,-226,-171,-173,-136,-124
-102,-118,-169,-212,-160,-182,-110,-65,-66,-49
-17,-82,-191,-99,64,41,76,102,53,81
-2,29,-10,76,138,117,107,97,91,103
-42,72,68,127,91,59,36,14,81,28
-108,-39,-16,30,-46,-66,-62,-35,63,-33
-153,-121,-35,12,-87,-80,-55,-11,78,-47
-106,-77,40,108,84,60,34,49,63,-46
42,47,199,185,198,140,105,73,-2,-15
128,139,293,188,182,134,114,74,34,85
167,156,246,105,129,104,87,60,43,114
166,163,37,-59,11,40,4,-32,-68,40
149,209,-202,-140,-69,-16,-50,-101,-158,19
62,-132,-472,-196,-221,-160,-145,-141,-170,-22
-82,-715,-737,-417,-345,-258,-225,-154,-131,-61
-371,-116,-159,-253,-178,-123,-143,-82,-85,-147
-288,248,354,-1,7,5,-49,-51,-73,-179
-21,31,285,107,96,15,20,28,61,8
57,27,167,159,76,34,51,83,139,73
79,59,56,127,65,106,102,110,154,48
85,34,-20,21,97,55,69,57,68,3
50,-8,-80,-66,49,-19,-30,-36,-60,-25
132,7,-47,-92,51,-14,-11,-21,-27,33
130,10,-29,-42,49,-19,14,0,32,60
2,-20,-44,11,-31,-16,12,1,54,27
-54,-3,-11,41,-143,-61,-21,1,54,-1
-110,-29,102,32,-140,-63,-18,0,61,-31
-73,-35,84,71,26,64,66,78,137,32
94,78,114,168,235,236,235,220,232,169
150,158,302,213,229,218,220,207,208,166
57,98,210,61,59,58,50,32,34,6
24,32,-49,-72,-28,-42,-58,-81,-101,-62
-45,-63,-307,-137,-112,-97,-116,-123,-162,-106
-249,-230,-449,-257,-336,-283,-268,-250,-286,-292
-282,-231,-201,-161,-374,-308,-285,-232,-259,-266
10,-8,32,50,-48,41,41,112,103,120
106,83,55,175,149,186,184,187,223,231
53,62,65,117,85,73,64,44,109,116
54,72,59,63,16,5,-13,-33,29,49
-72,33,35,38,77,20,-9,-6,1,-35
-189,-36,98,-6,194,56,-2,20,-29,-127
-75,-74,95,-129,198,19,-22,-12,-84,-133
199,2,-8,-182,-30,-24,-14,-15,-97,-21
255,53,-177,-157,-229,-35,5,36,-16,100
118,34,-147,-88,-107,7,41,69,51,132
-9,15,-51,16,21,2,13,-11,-18,35
23,47,37,75,52,9,0,-14,-34,37
73,4,71,99,40,17,0,21,-5,51
37,-70,31,83,5,-2,8,77,0,8
-154,-5,20,43,-55,-50,8,86,-50,-83
-222,-13,32,48,-32,6,43,112,-46,-114
-80,20,119,148,79,89,120,179,58,-35
58,55,207,221,142,94,90,77,87,35
118,57,169,162,77,59,-8,-62,13,75
141,67,-12,-32,30,-9,-65,-81,-12,121
41,0,-92,-199,108,-53,-95,-89,6,70
-25,-35,-131,-310,-12,-107,-94,-83,68,22
-38,-83,-250,-249,-231,-129,-80,-97,83,-11
-50,-107,-249,-24,-102,-19,-53,-116,-33,-36
-15,-2,-91,137,48,55,-34,-64,-108,-22
-47,23,55,108,4,0,-49,-52,-161,-67
-112,-150,202,-84,-123,-120,-111,-114,-233,-178
-83,-37,204,-135,-62,-48,-20,-16,-108,-73
6,70,-17,-86,29,83,85,100,43,88
82,60,-30,63,85,134,121,110,66,88
71,64,31,131,91,111,91,60,17,-17
165,109,98,147,82,85,42,-45,-130,-40
238,161,241,190,66,19,-45,-161,-243,144
111,119,346,220,61,-13,-59,-100,-115,211
-28,41,315,192,107,39,18,45,22,31
-78,-29,123,165,130,48,43,73,32,-80
-172,-136,-172,20,37,-65,-70,-51,-79,-154
-290,-313,-367,-290,-242,-246,-236,-200,-207,-257
-240,-297,-337,-439,-342,-245,-229,-148,-126,-199
57,0,-115,-164,-107,11,8,94,114,45
146,33,-195,-140,-132,21,59,105,149,75
44,-79,-375,-259,-300,-112,-41,16,63,-1
-10,-134,-461,-297,-211,-177,-103,-49,-7,2
31,-60,-260,-102,41,-88,-59,-10,-4,60
149,129,194,251,227,142,122,171,164,205
155,171,317,303,211,210,191,165,145,163
48,86,170,116,163,110,55,7,-42,-5
-41,30,153,22,178,40,0,-27,-47,-41
-72,20,244,37,17,4,-14,-28,-29,-63
-90,-26,68,57,-163,-68,-62,-63,-59,-114
-79,-38,25,38,-92,-52,-59,-59,-14,-66
-26,21,145,1,-35,-8,-21,-22,34,9
37,59,29,-83,-64,25,24,34,88,78
71,96,-44,-58,-45,85,93,122,148,122
22,62,48,85,44,89,72,83,76,39
-61,-27,45,130,158,67,22,19,-10,-80
1,-36,-15,35,120,104,105,127,111,6
29,-29,-25,36,59,59,115,154,195,75
-55,-87,-85,47,102,-90,-33,-37,5,-58
-130,-89,-148,-76,52,-178,-146,-171,-178,-159
-123,-21,-99,-160,-38,-126,-137,-125,-177,-130
21,53,-81,-142,-92,-44,3,29,-17,12
144,89,-12,-13,-140,21,109,88,51,116
132,86,96,111,-99,76,108,47,37,100
50,51,150,176,102,128,59,25,41,48
47,50,133,145,284,95,26,12,84,72
74,62,95,131,258,24,-5,-21,19,58
-36,-12,22,58,-89,-89,-95,-129,-144,-93
-225,-158,-169,-138,-353,-246,-215,-232,-238,-236
-238,-194,-238,-277,-287,-183,-166,-176,-172,-170
-44,-56,-189,-221,-74,42,48,28,48,42
99,71,6,-78,38,143,165,165,177,152
117,105,158,31,127,128,129,129,136,101
114,47,35,60,128,48,53,43,36,45
86,32,-14,64,78,17,31,24,22,71
49,85,94,115,79,36,59,46,52,66
28,64,107,98,8,-14,32,31,50,22
-25,39,97,82,1,-10,-2,-3,-6,-46
-73,12,85,36,29,28,-13,-44,-50,-115
-129,-40,31,18,3,7,-58,-97,-92,-168
-131,-92,-18,-91,-131,-102,-118,-106,-89,-125
-65,-134,-223,-256,-198,-161,-112,-64,-4,-37
79,-66,-264,-143,-48,-24,4,50,113,107
116,81,9,100,115,128,119,138,160,180
71,119,210,204,160,160,150,183,175,196
68,103,269,212,176,173,183,229,222,132
74,121,322,260,176,146,165,159,128,4
36,114,289,233,108,57,51,6,-30,-93
-66,-44,128,-1,-76,-92,-75,-98,-78,-101
-160,-204,-267,-270,-236,-212,-186,-195,-172,-129
-138,-266,-646,-372,-284,-299,-305,-344,-389,-193
-65,-196,-601,-321,-194,-202,-231,-243,-290,-77
21,46,-243,-123,-64,-25,-33,-14,-23,16
144,201,53,31,15,55,54,69,32,79
178,-72,-9,10,118,126,115,135,71,186
102,-148,82,94,280,233,221,238,170,219
-118,122,354,61,43,19,28,47,14,-29
-189,129,360,93,-129,-129,-100,-62,-44,-216
-85,44,122,140,-59,-92,-63,-67,-21,-199
-32,7,-102,20,-50,-72,-37,-61,35,-66
-61,16,-283,-142,-72,-33,8,5,118,28
98,-103,-454,-263,-25,67,121,125,272,129
175,-139,-209,-75,143,192,220,192,358,176
-186,53,344,217,170,168,140,130,192,-24
-215,6,392,258,14,3,-57,24,-10,-127
92,27,190,171,-151,-171,-227,-146,-245,-125
163,6,180,34,-263,-278,-290,-283,-437,-106
21,-48,128,-86,-158,-126,-135,-163,-307,30
25,-1,-82,-24,84,140,125,41,-35,141
2,70,-84,51,237,185,152,36,53,53
-15,121,55,90,311,96,41,-77,-22,-54
-5,68,36,-48,174,33,-33,-160,-137,-62
82,46,-79,-120,30,57,4,-75,-61,70
136,40,-29,29,-93,33,44,2,55,93
30,-17,-41,7,-221,-82,-24,-42,42,-33
-25,-54,-214,-137,-175,-92,-47,-53,14,-57
-22,-42,-114,-48,-49,-37,-34,-22,33,7
27,24,96,57,141,87,79,80,104,74
-8,43,95,72,311,179,126,122,78,39
-15,51,153,82,273,176,118,95,62,30
17,65,129,19,82,52,41,38,64,52
23,37,-5,-55,-139,-116,-95,-51,-14,7
-1,-14,-61,-54,-226,-156,-122,-42,-30,-44
-93,-71,-19,49,-85,-35,-71,-12,-24,-78
-161,-110,-34,71,17,37,-45,-47,-87,-118
-54,-51,-78,-14,-31,-4,-3,4,-50,-25
29,-25,-87,-81,-131,-99,-1,55,6,46
55,9,-71,-142,-101,-56,17,63,23,37
98,98,-50,-89,-87,-27,22,46,30,23
138,28,-81,3,-37,7,57,64,67,55
130,-48,-59,105,37,63,60,70,67,91
155,-95,-37,143,103,122,92,111,93,144
77,0,27,149,157,132,93,116,99,97
-311,304,356,103,118,-52,-100,-135,-169,-177
-369,17,358,-84,45,-179,-218,-245,-289,-260
-105,-77,22,-231,-118,-154,-171,-144,-193,-206
113,-28,-30,-79,-39,19,16,54,41,6
124,-10,168,99,98,142,152,192,203,167
146,58,173,108,46,99,115,149,141,147
30,30,43,76,-37,-18,10,5,-1,11
-191,-184,-248,-71,-163,-149,-134,-145,-146,-128
-257,-323,-547,-254,-333,-216,-191,-201,-218,-186
-189,-255,-508,-321,-404,-233,-168,-152,-187,-187
-98,-103,-268,-249,-326,-181,-133,-98,-117,-145
109,59,-17,0,104,88,60,94,109,81
248,171,185,265,498,292,222,250,272,254
111,118,210,294,418,196,121,126,139,134
-18,46,194,191,279,45,-31,-45,-43,-15
-3,14,114,-50,32,-111,-91,-70,-67,-12
109,55,-38,-218,-310,-160,-8,48,67,90
195,97,-38,-92,-210,23,142,178,199,195
125,83,54,50,9,114,138,130,139,129
-48,-40,1,-15,-27,10,-21,-42,-42,-13
-164,-164,-95,-73,-85,-55,-122,-145,-157,-86
-110,-136,-45,3,14,-1,-61,-85,-131,-73
-36,-41,-8,117,149,55,1,-21,-87,-83
-3,43,117,171,175,30,-6,-13,-60,-133
17,45,163,143,26,-4,0,2,19,-104
48,12,18,33,-52,61,52,62,114,41
25,-8,-103,-48,-58,84,89,71,117,110
-52,-15,-104,-47,-103,2,19,31,72,20
-33,43,34,-80,0,1,1,15,41,0
49,140,101,-89,153,11,24,3,9,48
111,128,-49,-102,130,17,47,47,26,74
88,42,-159,-89,-79,-10,33,46,17,48
-29,-48,-195,-67,-196,-68,-29,-27,-55,-21
-25,-41,-99,-9,-109,-17,-14,-6,-50,28
25,6,86,102,24,13,14,9,15,42
-41,10,264,172,48,-24,-42,-35,58,-33
-72,-34,249,51,75,21,-8,4,144,-16
-66,-49,70,21,117,42,7,-16,109,-41
-8,-8,-16,39,38,5,-3,-27,19,-15
75,35,-25,5,-36,3,18,-3,-24,83
37,35,13,9,-6,19,4,-24,-113,21
-10,19,47,19,-19,-24,-51,-90,-232,-68
-9,-10,2,8,-33,-52,-75,-110,-227,-65
-28,-53,-116,-50,-12,-2,-26,-38,-92,-7
-14,-21,-96,-17,49,68,60,60,57,51
22,43,-30,62,108,113,123,134,133,81
48,92,36,131,104,123,139,161,140,78
74,123,118,160,83,92,111,86,59,61
26,98,136,142,-3,33,51,6,3,29
-118,-41,107,47,-196,-85,-85,-91,-53,-142
-189,-147,141,-146,-268,-177,-196,-194,-139,-293
-128,-132,-96,-312,-134,-123,-161,-138,-6,-164
-25,-110,-363,-280,76,-36,-38,13,142,19
45,-61,-306,-158,118,-27,44,112,144,97
98,36,-140,32,128,34,86,128,104,139
140,157,44,153,130,89,79,33,-18,72
24,72,75,15,-111,-86,-97,-144,-141,-23
-142,-69,126,-96,-278,-211,-185,-168,-111,-111
21,-6,149,-40,-84,-9,-20,-18,-13,-32
222,86,124,110,157,140,99,19,-55,107
108,54,81,162,159,94,78,15,10,133
-85,-44,-31,86,8,11,30,17,115,40
-185,-126,-202,-33,-106,-63,-44,-59,52,-108
-127,-87,-166,-24,-59,-29,-31,-54,-15,-119
91,135,162,161,151,153,143,132,147,106
156,257,348,157,173,169,208,209,220,187
57,113,194,66,78,79,106,120,92,65
-82,-76,79,32,10,-27,-48,-49,-93,-101
-156,-155,-82,-210,-233,-241,-237,-242,-262,-297
-203,-122,-320,-423,-279,-300,-292,-288,-286,-286
53,129,-309,-250,11,-9,10,25,17,93
197,-64,-265,-2,109,190,248,246,241,313
-62,-248,22,163,93,191,198,182,180,129
-148,64,207,161,10,32,31,-3,0,-97
121,159,132,82,-27,-49,-34,-65,-58,-90
145,85,47,61,28,8,22,-10,24,25
4,7,30,69,31,25,14,-11,39,1
-63,-58,63,29,-53,-58,-73,-75,-32,-50
-97,-110,61,3,-54,-95,-138,-127,-99,-57
-113,-137,-126,-34,-1,-59,-114,-67,-90,-94
-92,-88,-164,-130,-111,-109,-87,17,-71,-136
-18,-24,-126,-168,-191,-95,-48,59,-48,-72
202,157,8,-14,83,178,200,212,132,214
306,229,50,85,224,268,295,200,196,323
181,18,56,132,208,132,146,54,141,180
15,22,138,161,235,38,53,-7,113,62
-65,71,182,159,130,34,50,24,122,18
-124,-43,109,89,-70,-37,-19,-11,35,-66
-103,-63,0,-12,-101,-54,-40,-31,-21,-98
5,36,29,-39,-74,-20,-17,-39,-25,-56
9,40,-10,-123,-105,-33,-58,-97,-85,-34
-55,-33,-182,-245,-172,-99,-99,-134,-147,-85
-73,-92,-229,-191,-135,-125,-99,-125,-153,-85
11,-36,-99,-34,9,9,53,70,30,91
11,-33,-57,24,27,43,107,158,139,146
-17,0,-33,104,35,22,53,79,66,39
100,108,52,119,132,101,46,47,38,46
123,109,101,60,64,87,33,17,5,36
-34,18,87,51,-32,-15,-56,-68,-102,-78
-65,-8,43,28,14,-8,-55,-55,-82,-68
9,58,56,12,78,59,24,44,45,19
-21,-11,-9,-21,35,3,-17,0,50,12
-71,-117,-90,-70,-28,-82,-73,-84,30,-58
-121,-82,95,59,-18,-62,-90,-84,68,-120
-30,21,126,103,-5,-18,-24,2,93,-81
79,41,31,20,-72,1,17,-3,-27,-16
60,-2,-18,-45,-197,-24,-4,-39,-129,46
107,41,77,-11,-131,71,55,40,-71,128
131,62,11,0,18,97,81,37,-81,118
22,-20,-179,-92,-56,-51,-29,-40,-143,21
-94,-123,-294,-155,-122,-96,-80,-47,-112,-57
-136,-119,-251,-12,150,0,-56,-33,-118,-126
-82,-85,-155,43,412,7,-70,-48,-134,-122
-28,-59,107,-12,359,-49,-73,-38,-46,-62
18,38,429,-82,-79,-159,-55,38,73,9
66,37,40,-155,-419,-152,-8,136,170,70
202,14,-172,28,-55,98,122,202,259,168
347,85,77,266,319,275,259,263,310,289
41,292,419,259,202,169,139,61,90,68
-285,93,360,88,-42,-47,-106,-205,-200,-195
-229,-123,-23,-65,-215,-184,-224,-274,-287,-203
-216,-187,-365,-269,-364,-318,-303,-312,-299,-244
-219,-347,-587,-446,-337,-261,-239,-252,-250,-269
61,-131,-328,-179,-13,124,116,91,68,50
154,187,112,157,179,253,245,199,224,223
89,112,233,237,155,131,114,76,100,120
26,31,179,177,163,43,4,-21,-44,17
-23,40,126,119,215,-32,-65,-65,-106,-35
17,77,30,36,98,-43,-35,26,-35,6
90,-7,-48,-19,-41,31,67,135,73,80
29,53,95,11,-41,24,38,81,34,43
-108,-75,123,-37,-62,-68,-70,-61,-67,-74
-98,-194,-12,-66,-62,-34,-16,14,40,-34
92,15,-42,31,35,71,110,152,231,108
141,130,-19,69,92,102,112,165,261,105
69,70,-45,19,40,44,51,128,167,12
-30,-13,-75,48,-11,-21,-15,35,2,-74
-188,-171,-93,-11,-173,-167,-176,-183,-278,-197
-208,-247,-65,-223,-274,-247,-259,-302,-437,-198
21,-62,-109,-205,-71,-8,-16,-37,-138,74
167,123,32,-31,107,189,193,188,174,229
147,179,176,162,254,248,194,144,154,134
149,182,152,232,310,217,133,34,32,92
73,98,145,245,280,80,-14,-92,-120,1
-42,-29,71,110,74,-103,-151,-208,-275,-181
-110,-129,-138,-44,-212,-142,-173,-183,-238,-196
-72,-67,2,-112,-282,-120,-75,-63,-72,-58
-64,-38,131,-188,-231,-144,-76,-38,2,-14
-85,-124,-179,-217,-156,-81,-29,23,74,-1
5,-87,-324,-130,-35,16,55,95,125,49
53,-3,-221,-106,-29,-46,-35,-10,-4,19
-10,16,-55,-88,-159,-176,-153,-114,-130,-40
55,127,91,14,-51,-9,13,66,42,96
95,178,93,37,116,168,166,195,203,187
-30,78,65,74,150,139,110,117,136,65
-110,-57,-57,66,71,22,-11,-35,-20,-112
-58,-129,-127,28,-49,-94,-107,-125,-101,-148
101,11,91,50,1,1,-5,-11,-2,-20
135,127,406,67,108,102,107,117,101,113
55,82,381,50,102,108,115,139,97,146
-1,-15,22,8,23,41,34,74,-3,119
-49,-88,-203,-34,-31,-20,-31,34,-41,44
-163,-165,-328,-133,-133,-123,-128,-31,-73,-138
-181,-170,-328,-174,-155,-144,-135,-66,-90,-213
-50,-34,-73,-10,-5,-4,19,46,55,-76
19,67,124,110,94,48,70,79,125,24
86,96,158,119,97,48,64,-17,1,32
154,105,149,105,64,44,36,-49,-26,57
89,72,103,80,30,15,-2,-46,60,61
-11,7,43,57,-32,-21,-50,-82,84,-8
-94,-74,-68,11,-123,-50,-87,-104,3,-85
-83,-54,-82,0,-81,-3,-55,-53,-30,-20
-56,-26,-55,-63,-4,31,-16,-20,-54,15
-36,-32,-61,-89,31,34,22,-7,-100,1
0,32,16,3,73,88,88,52,-93,15
76,131,194,110,215,170,133,87,-33,35
79,135,316,187,395,124,76,37,-22,25
22,75,293,147,161,-45,3,12,17,8
-28,45,121,44,-351,-213,-95,-35,0,-57
-79,-70,-187,-66,-396,-232,-158,-90,-42,-109
-140,-218,-458,-146,-168,-141,-175,-146,-126,-106
-183,-89,-538,-271,-54,-117,-199,-206,-242,-161
146,-43,-357,-272,15,9,-9,4,-75,9
362,42,244,61,219,234,241,217,163,295
28,171,526,161,161,145,118,70,81,152
-140,16,228,-31,-11,-15,15,2,95,12
-32,7,-55,-136,-56,-80,-5,9,98,-46
74,2,-135,-143,-86,-51,2,22,26,-2
150,22,-60,0,-59,79,110,115,99,148
125,45,36,177,61,128,134,150,200,158
-58,-47,22,178,109,58,29,34,119,-38
-140,-118,-87,48,73,-6,-75,-125,-68,-156
-71,-53,-62,-4,-56,-43,-72,-105,-99,-96
-10,71,0,-20,-133,-23,-2,22,3,-13
-53,27,-32,-40,-88,-55,-35,-7,-34,-62
-74,-92,-136,-89,-20,-23,-36,-39,-77,-95
-32,-62,-114,-26,12,52,28,29,3,-2
-13,-3,-3,122,52,64,56,49,59,69
-35,6,149,245,124,14,7,2,37,49
-20,-19,279,81,85,-75,-69,-72,-42,-59
44,-18,184,-93,26,-46,-57,-73,-78,-60
156,24,-170,-129,79,113,82,74,42,80
271,151,-151,-38,82,174,189,152,130,127
125,96,92,-82,-166,-77,-22,-101,-104,-82
-100,-15,126,-233,-278,-196,-164,-218,-180,-151
-47,55,-18,-89,-65,-13,18,16,70,57
20,59,79,176,90,76,102,113,187,130
10,-28,115,206,95,52,67,65,142,80
-34,-60,35,152,118,92,69,54,104,55
-101,-93,-92,60,46,17,-20,-28,2,-38
-149,-151,-285,-170,-124,-131,-142,-93,-140,-153
-183,-192,-382,-328,-207,-182,-164,-66,-189,-189
-41,-35,-118,-125,-71,-31,-3,69,-19,-11
115,123,154,122,58,89,126,159,197,139
91,112,178,145,31,54,96,128,232,85
-19,47,103,75,-79,2,47,87,223,-4
-84,-12,31,49,-71,15,38,66,225,-17
-46,-1,11,42,-4,35,24,3,57,-58
57,36,16,22,87,70,30,-74,-188,-73
148,96,63,71,232,164,58,-89,-266,32
115,85,130,137,246,97,6,-97,-210,55
10,13,71,72,264,-59,-79,-134,-180,-40
-5,-6,-38,-61,168,-105,-61,-71,-98,-22
45,53,-17,-64,-134,-70,14,35,42,63
73,56,-15,-80,-267,-76,-6,-6,46,47
92,54,-18,-38,-109,9,50,0,75,64
87,62,85,121,110,157,153,100,172,102
15,39,148,181,140,129,102,82,120,66
-165,-56,9,133,-59,-69,-71,-73,-47,-91
-328,-204,-131,-57,-265,-226,-204,-186,-155,-185
-266,-219,-28,-322,-303,-235,-182,-98,-83,-89
-14,-71,-24,-304,-163,-62,8,121,159,64
211,73,-207,-100,15,126,176,255,317,171
129,13,-303,-31,67,63,78,60,95,10
-80,-123,-297,-132,54,-134,-158,-236,-243,-207
0,-29,-94,-75,121,-80,-152,-201,-203,-70
163,72,123,76,70,35,10,-35,-51,87
189,87,186,148,22,133,135,120,102,151
155,225,187,189,144,224,205,240,238,218
165,93,104,190,205,197,174,179,203,163
-47,142,191,176,91,29,-16,-47,-58,-120
-327,18,224,130,-78,-160,-199,-223,-260,-324
-340,-194,25,-18,-153,-208,-201,-170,-224,-260
-203,-185,-98,-216,-177,-170,-132,-75,-115,-117
23,-23,-99,-186,-79,-29,24,63,39,66
243,92,-147,-62,60,131,159,180,175,246
269,139,30,-26,65,119,133,124,153,209
102,45,96,-104,-157,-123,-49,-67,-22,7
57,-146,-186,-99,-183,-115,-54,-71,-15,-13
-78,-51,13,133,72,104,90,34,66,27
-219,-50,229,203,128,106,73,36,30,-26
-151,-17,121,110,28,-1,-7,55,6,-62
-83,-15,-40,34,4,-1,-11,84,18,-78
-12,-16,-145,-30,8,12,21,39,24,-60
60,-3,-144,-50,33,10,-8,-57,22,-29
32,21,-19,24,146,71,0,-73,48,22
29,28,90,90,126,84,44,-18,93,65
75,65,167,99,0,7,39,13,85,87
55,53,150,34,-102,-77,-27,-6,-6,-6
-28,-16,-16,-46,-176,-107,-97,-80,-124,-104
-133,-152,-261,-231,-276,-177,-179,-181,-215,-171
-50,-97,-232,-220,-105,-6,-61,-65,-85,-34
145,101,62,64,171,264,189,162,139,185
128,72,119,141,125,183,179,158,149,155
42,21,51,71,6,2,39,33,48,45
-23,23,12,82,-11,-47,-30,-57,-36,-21
-54,24,0,87,146,-14,-52,-78,-59,-49
-133,19,-23,0,288,-52,-130,-155,-150,-136
-140,45,-30,-91,62,-164,-176,-186,-190,-159
67,5,-4,-69,-210,-77,0,27,38,56
215,10,35,-32,-181,110,185,233,256,248
61,82,4,-1,-104,92,105,98,135,112
-66,76,-197,-55,-120,-31,-65,-93,-72,-36
-54,-169,-293,-219,-212,-138,-151,-163,-164,-69
-116,-364,-31,-174,-90,-14,-1,-12,-36,-24
-136,35,248,37,209,157,138,113,90,-44
-55,130,107,63,272,82,81,71,58,-117
7,24,53,129,183,28,58,96,101,-30
98,67,153,187,67,84,97,129,109,59
206,78,115,165,148,96,53,35,-3,64
175,44,1,97,179,-34,-68,-101,-107,79
-5,-34,-102,-83,-164,-236,-188,-157,-88,22
-215,-155,-217,-208,-374,-243,-200,-152,-74,-122
-186,-139,-217,-137,-283,-118,-83,-46,-42,-94
1,4,-93,-19,-66,20,76,108,62,47
31,74,26,82,124,145,158,153,108,94
41,103,91,155,196,168,144,108,66,52
153,96,239,198,164,141,104,71,34,56
7,-6,299,115,41,25,-36,-47,-81,-53
-163,-96,137,-76,-123,-123,-171,-172,-211,-170
-105,-64,-139,-285,-194,-131,-107,-104,-156,-104
124,72,-176,-309,-72,33,84,106,107,151
275,144,-11,-40,145,232,265,317,373,331
181,130,128,239,262,261,284,307,365,247
-66,39,110,296,143,21,30,17,91,-33
-378,-254,11,75,-160,-329,-334,-338,-274,-365
-383,-383,-350,-321,-365,-397,-400,-373,-305,-366
-57,-104,-447,-334,-219,-122,-108,-27,64,-3
121,101,-188,-135,-54,28,59,138,218,130
161,131,4,17,23,53,97,128,143,110
167,162,165,110,105,101,105,95,45,120
125,161,216,149,213,142,57,7,-110,6
47,54,138,123,216,111,34,-28,-177,-124
-13,-20,80,71,22,46,13,-63,-158,-74
-24,-17,41,28,-91,-20,-28,-79,-136,17
-14,-4,43,34,-90,-97,-78,-78,-135,57
-68,-30,58,55,-104,-140,-107,-74,-126,-38
-108,-46,50,59,-67,-68,-49,-7,-43,-89
-2,-15,-17,-1,35,100,66,65,38,24
102,14,-82,-75,130,169,113,70,73,119
124,32,-48,-23,270,147,107,47,68,131
73,45,24,31,255,65,61,-1,-16,93
43,50,65,71,-10,-21,-7,-20,-93,20
23,38,29,86,-90,-64,-61,-5,-93,-86
-48,14,-9,7,-47,-69,-79,-24,12,-179
-128,-59,21,-67,-107,-105,-97,-48,171,-155
-20,-37,-33,-48,-59,-12,7,15,201,-1
90,30,-20,13,22,74,102,65,88,161
34,23,98,60,3,55,67,48,-19,140
2,15,276,148,13,13,-1,1,-62,55
-9,-26,106,66,-16,-24,-52,-64,-104,14
-112,-148,-242,-125,-116,-91,-115,-135,-151,-70
-171,-166,-325,-171,-121,-127,-162,-175,-171,-126
-139,-72,-66,-17,31,-53,-109,-118,-72,-126
-133,-23,84,45,83,-10,-32,-8,50,-101
-72,-7,56,-32,-37,-2,73,135,164,-4
67,11,-1,-106,-38,55,159,295,211,89
226,83,9,-41,65,94,160,270,126,129
256,115,-6,32,101,65,60,37,-72,98
135,63,-128,-54,-27,-52,-103,-223,-221,19
-48,-68,-184,-185,-284,-225,-245,-365,-257,-122
-118,-135,-147,-148,-242,-146,-128,-147,-6,-33
34,20,-93,27,59,117,132,177,253,163
42,64,-29,179,231,154,134,160,148,93
6,99,72,176,207,115,71,51,-10,-25
-22,126,146,81,96,83,35,15,-37,-47
-30,80,419,66,133,29,19,-11,-34,-44
45,41,376,53,121,-11,25,12,16,18
117,7,65,53,-51,7,28,59,86,119
0,-48,-16,-20,-145,-31,-34,-15,7,22
-139,-126,-138,-140,-135,-63,-82,-93,-108,-144
-117,-102,-239,-132,-42,-6,-44,-71,-116,-146
-133,-79,-238,-102,-58,-65,-66,-77,-88,-102
-7,-31,-136,-46,-185,-146,-55,-16,16,27
164,113,144,126,-40,-6,71,133,140,150
187,179,261,177,149,143,122,137,82,74
80,97,82,88,164,93,18,5,-98,-62
-6,-2,-122,-8,3,-72,-115,-112,-163,-72
-137,-204,-343,-258,-278,-222,-242,-214,-194,-145
-162,-296,-437,-323,-252,-68,-105,-79,-77,-95
57,-31,-216,-57,160,251,185,195,193,178
206,29,16,137,470,302,288,290,334,306
2,226,322,185,306,27,104,151,201,125
-218,168,419,99,-120,-215,-149,-92,-54,-113
-166,-1,253,13,-179,-140,-169,-164,-190,-178
-56,-67,-96,-109,-189,-53,-78,-91,-169,-130
-1,-186,-177,-75,-179,-42,-13,-7,-95,-55
26,-19,23,25,-126,-61,-23,6,-40,41
56,52,52,21,-3,19,16,30,6,76
61,19,26,13,86,88,46,45,37,56
37,4,25,34,89,50,25,11,7,9
-8,-13,24,52,61,19,-1,11,7,-9
-46,-19,-1,39,-62,-24,-17,43,73,-8
-7,-16,-40,11,-130,-55,-23,23,33,-49
20,0,8,11,-77,-13,9,-9,-46,-98
5,24,96,78,-8,46,39,22,-4,-74
53,58,128,119,61,91,66,39,10,-35
117,63,99,85,161,53,-36,-115,-182,25
14,-37,-17,-38,263,-35,-140,-201,-256,21
-85,-87,-150,-202,94,-102,-122,-81,-86,21
-36,-53,-189,-199,-112,-45,2,65,75,96
-52,-78,-141,-80,-146,-48,19,16,32,35
-75,-62,-4,7,-89,0,28,3,-13,-59
19,60,111,120,70,136,119,138,127,-3
119,107,75,141,141,153,150,180,305,116
221,117,-79,15,81,102,106,171,405,191
150,140,-199,-114,-66,-31,-10,64,267,86
-83,-125,-176,-183,-158,-146,-152,-119,-99,-107
-157,-202,166,-63,-66,-44,-64,-75,-243,-68
-141,52,137,22,-40,-14,-26,-54,-277,-29
19,-26,-101,49,25,8,-10,-26,-227,5
72,-98,20,99,223,58,15,1,-159,36
-112,-27,110,35,165,-30,-54,-75,-158,-88
-106,-4,-19,-28,-112,-77,-63,-90,-105,-109
28,20,-29,19,-174,-58,2,-24,-6,-13
97,38,77,101,-54,11,46,36,68,48
-4,27,124,105,28,24,27,11,73,6
-132,-3,83,-2,-16,-22,-45,-64,-9,-66
-112,-16,135,-96,-51,-38,-50,-75,-36,-41
36,2,-64,-166,-27,25,25,-3,18,44
161,38,-243,-161,-17,61,62,6,52,78
41,4,-148,-73,-58,-25,-21,-72,-18,-2
-42,-13,51,47,-38,-16,-15,17,5,-7
65,59,173,154,84,84,75,156,77,67
117,110,189,206,148,107,91,158,86,119
64,65,123,129,60,40,45,74,61,53
-60,-23,-16,10,39,-55,-34,-35,-15,-96
-156,-96,-178,-58,51,-120,-110,-134,-113,-188
-114,-121,-247,-128,-15,-73,-113,-129,-136,-141
-14,-74,-130,-179,3,-18,-49,-27,-50,-7
47,-41,-106,-129,19,45,64,85,76,93
95,9,-87,66,21,92,103,101,99,126
89,57,6,199,-32,4,-7,-26,-31,64
52,85,102,172,-29,-44,-53,-76,-83,12
-28,86,248,68,41,12,-38,-51,-63,-42
-67,4,188,-164,-16,37,3,14,-10,-36
-80,-81,-6,-138,-68,-6,-9,30,10,-34
-46,-36,-69,7,-17,11,-7,0,34,-4
-32,29,-97,13,12,16,-9,-80,13,0
4,26,-121,-44,-74,-43,-23,-91,-3,-14
143,-29,-74,0,-144,-41,40,-6,31,26
27,28,82,10,-12,6,9,-57,-64,-52
-84,20,110,-48,61,-34,-49,-85,-85,-74
127,37,-8,-58,27,-6,34,97,113,132
190,30,46,57,108,80,106,179,207,167
-11,-13,183,153,255,71,55,87,119,13
-97,56,200,144,146,24,15,48,50,-37
-60,48,51,67,-110,2,33,51,64,1
-63,-21,-149,-49,-157,-34,-11,6,19,-1
-142,-145,-372,-231,-197,-134,-136,-119,-134,-106
-42,-88,-223,-179,-107,-81,-93,-96,-129,-42
-34,-91,-52,-106,-67,-52,-53,-65,-67,-28
-123,-126,-94,-17,-75,-71,-70,-62,-48,-95
-6,6,58,122,69,66,43,69,77,20
142,156,234,156,173,172,163,187,228,140
148,187,302,165,143,131,136,142,177,109
67,93,183,128,68,39,36,42,55,44
-54,-32,-12,25,-25,-40,-22,-29,-37,-58
-147,-94,-125,-47,-98,-106,-85,-77,-117,-184
-98,-49,-64,-75,-91,-110,-102,-84,-168,-187
-37,-42,-149,-159,-76,-72,-59,-24,-82,-68
-47,-64,-195,-163,-56,6,-14,26,30,-23
113,26,-58,-43,1,50,29,-15,-53,26
225,139,182,114,25,74,62,-15,-34,186
80,81,247,132,3,33,14,-12,12,113
-26,28,76,65,29,16,-25,-6,15,-4
56,32,-42,26,149,109,72,104,126,70
3,-75,-145,-58,243,42,25,35,84,22
-143,-188,-253,-168,77,-149,-100,-37,-57,-100
-192,-175,-298,-205,-270,-214,-98,26,-120,-145
-141,-106,-206,-157,-311,-132,-47,47,-29,-99
-15,-25,14,-34,-85,7,38,49,167,47
133,91,138,76,88,122,134,100,383,251
189,149,246,154,139,160,131,81,381,238
174,147,250,187,145,132,70,8,96,83
122,102,171,142,73,53,-25,-69,-220,8
11,30,61,82,-16,-31,-90,-140,-339,-56
-93,-46,10,79,-32,-36,-100,-149,-335,-126
-113,-88,-53,19,27,17,-69,-118,-298,-106
-66,-53,-61,-42,33,10,-35,-70,-211,-74
-33,-27,-53,-59,-97,-58,-22,-44,-106,-61
-47,-9,-18,-56,-145,-59,-3,-15,-17,-25
-2,68,7,-29,-83,-20,25,15,27,28
12,60,0,-6,-32,-5,-3,7,0,15
9,-24,-31,13,35,18,-10,-1,-6,-20
36,-13,104,42,137,45,19,10,15,-21
54,11,163,18,183,-2,0,-2,7,-21
20,6,49,4,87,-54,-19,-7,6,-5
13,22,-1,26,-49,1,37,58,70,88
34,42,-32,0,-84,67,84,123,136,153
2,12,-44,-24,-29,70,56,49,53,88
-11,-26,-30,19,63,65,-6,-22,-26,18
-28,-29,-15,19,53,-35,-49,-4,10,0
-70,-47,-37,-39,-43,-140,-62,5,24,-52
-102,-78,-103,-84,-124,-138,-90,-44,-92,-161
-83,-81,-140,-59,-119,-101,-103,-93,-186,-249
-61,-92,-156,-48,-66,-34,-66,-52,-99,-195
46,35,36,68,55,86,29,41,71,8
149,139,144,144,116,135,95,24,56,98
83,91,111,111,79,117,83,22,66,83
8,59,125,79,40,52,47,15,70,73
-69,-38,44,-44,-116,-47,-14,-29,40,43
-91,-98,-33,-198,-207,-59,12,48,121,70
40,14,75,-153,-21,92,139,185,242,132
68,-11,-107,-94,149,150,114,123,143,58
-19,-89,-232,-39,120,5,-35,-41,-30,-76
-35,-31,-91,15,-22,-199,-194,-206,-237,-185
41,-28,2,63,-16,-194,-192,-205,-285,-146
108,-6,114,148,51,-6,21,43,19,81
72,234,274,170,20,99,117,218,261,190
44,236,222,35,0,81,102,211,290,173
0,-25,-59,-92,-14,44,73,137,188,102
-109,11,-179,-63,-19,0,7,1,-28,-48
-169,-202,-301,-179,-128,-127,-116,-155,-240,-207
-235,-284,-265,-287,-219,-224,-199,-233,-323,-300
66,47,91,74,27,28,48,53,-7,16
295,207,141,218,220,258,256,249,313,316
157,113,80,125,138,170,135,107,291,206
27,34,123,89,25,34,-25,-83,73,-22
52,62,252,141,22,26,-43,-141,-93,-51
-13,8,245,102,-30,-5,-85,-186,-235,-71
-122,-66,52,-66,-116,-66,-128,-206,-311,-122
-93,-52,-206,-188,-104,-50,-68,-109,-214,-67
-85,-111,-299,-168,31,-20,-49,-64,-155,-86
-16,-89,-218,-61,278,60,1,-11,-88,-43
62,20,-90,42,256,9,35,42,-20,90
-1,-32,-57,-25,-98,-146,-48,-10,-20,19
-91,-108,4,-85,-309,-233,-124,-53,-3,-69
-60,-100,-57,-96,-331,-187,-117,-50,20,-55
38,2,-70,-14,-106,13,27,67,114,59
72,94,67,104,163,144,136,154,181,126
43,100,180,123,247,89,64,47,33,-12
69,106,149,45,89,37,23,-30,-81,-96
92,88,49,-18,-54,17,23,-7,-31,23
76,41,26,-5,-22,3,22,26,41,101
-38,-21,0,31,67,73,58,45,83,14
-90,-78,-38,10,61,72,61,46,92,-51
-47,-57,-22,-23,-46,-21,1,12,72,-40
-17,-42,-38,-30,-73,-49,-12,20,78,-14
18,-29,-56,-13,-41,-18,7,46,81,43
24,-4,-31,14,-20,-9,5,24,32,61
-8,-6,-14,39,-35,-30,-9,0,-27,48
-40,9,8,38,-59,-56,-46,-33,-80,13
-69,-2,-8,20,-43,-48,-44,-60,-69,-47
-22,2,30,50,104,73,29,10,22,-19
37,39,146,82,185,128,69,50,78,14
38,55,198,69,48,21,30,30,51,3
-5,41,116,55,-60,-84,-33,-13,-6,-23
-48,-23,-71,20,-39,-76,-37,-29,-27,-18
-79,-58,-202,-60,-48,-27,0,1,3,8
-4,-57,-204,-89,-45,20,48,32,8,68
-4,-77,-140,-94,-77,-27,2,5,-52,52
-9,-19,46,-55,-49,-36,-5,14,-58,-5
138,129,190,-65,28,57,75,89,19,9
201,140,-9,-80,35,94,124,128,105,26
66,31,-125,-35,5,52,63,81,156,40
-95,-35,5,-35,-54,-61,-48,-42,69,-61
-120,-37,13,27,-31,-66,-92,-97,-73,-116
-65,4,1,124,82,37,-6,-4,-41,-32
-49,7,24,109,86,50,27,34,1,13
15,14,71,83,93,58,15,13,8,38
42,6,107,73,157,64,-16,-51,-43,-1
-6,-15,12,-12,61,-27,-52,-96,-84,-46
11,73,79,86,-67,-35,-16,-51,-30,6
-3,54,87,157,-149,-45,2,-22,5,6
-59,-63,-68,-20,-195,-125,-61,-56,-22,-46
-50,-61,7,-120,-112,-58,-64,-54,-42,-45
0,-5,120,-36,26,51,4,7,5,-2
10,-31,-34,-51,69,35,15,-6,-16,-46
60,51,-36,-27,109,53,51,35,27,4
84,73,-115,-51,81,69,92,84,118,90
9,-70,-288,-136,-53,24,62,29,88,41
44,-117,-223,-123,12,23,55,31,86,50
180,-73,-77,-52,137,43,103,98,154,182
14,128,85,-32,-65,-65,-12,-15,18,99
-243,144,202,3,-262,-211,-232,-217,-224,-123
-187,-86,43,-23,-179,-150,-188,-162,-194,-145
-43,-89,-80,-8,9,2,-36,-21,-32,-75
57,-10,8,47,110,59,29,34,14,-11
102,80,127,88,74,47,59,55,30,46
103,205,175,122,2,36,65,72,69,92
90,161,76,80,9,25,47,66,91,86
17,-174,-19,62,20,28,42,63,96,39
-210,-226,51,89,123,51,13,10,0,-92
-259,-53,48,11,142,-59,-89,-124,-150,-223
-152,-68,-116,-109,-60,-127,-115,-135,-153,-167
-61,-132,-304,-206,-226,-88,-75,-78,-123,-69
44,-35,-176,-91,-91,28,50,28,-8,37
154,120,64,34,30,116,130,131,129,119
180,160,120,60,49,97,100,138,211,148
159,109,112,117,103,106,104,120,238,160
75,49,104,167,124,94,75,88,147,81
-40,-19,78,134,66,20,-8,6,-40,-64
-157,-112,-36,-14,-7,-101,-94,-39,-190,-170
-111,-77,-99,-130,5,-104,-68,23,-127,-108
45,33,-37,-107,-31,-13,22,42,-22,3
113,57,-35,-75,-128,-2,34,-12,57,100
32,-28,-52,-82,-187,-64,-35,-92,41,58
-9,-60,-29,-44,-85,-35,-60,-78,10,-14
-4,-3,32,0,69,28,-32,20,39,39
-37,33,70,13,176,25,-6,61,53,75
-32,44,33,22,150,35,39,92,100,82
47,65,21,78,64,106,98,58,110,51
104,63,-25,93,46,112,100,-30,45,-8
33,21,-30,70,46,78,68,-49,11,-95
-35,25,71,75,25,10,12,-63,-12,-100
53,104,218,162,76,41,37,-37,-46,-20
90,98,336,193,80,36,-7,-94,-170,12
-27,-50,222,2,-66,-107,-144,-218,-273,-32
-128,-183,-284,-228,-166,-195,-191,-248,-255,-142
-201,-253,-553,-308,-219,-202,-181,-185,-206,-222
-116,-172,-357,-260,-170,-121,-68,-10,-35,-119
217,165,43,25,0,115,184,235,219,159
275,276,161,165,42,138,194,191,181,162
101,43,57,107,52,78,110,77,108,89
-101,-27,142,64,24,-3,24,-17,92,27
-231,-49,165,-60,-98,-137,-138,-138,-19,-78
-130,-91,-70,-141,-108,-99,-108,-120,-52,-25
33,0,-105,-19,42,54,68,83,107,149
72,58,-28,76,132,117,127,164,172,127
7,18,-38,42,157,72,60,76,56,8
-55,-20,-52,-20,134,-6,-21,-6,-49,-60
-29,-23,-33,-4,-15,-39,-19,35,-17,-29
49,-5,-23,37,-73,-13,37,91,58,15
17,7,14,31,-14,53,93,125,98,18
-69,6,101,34,0,73,114,127,122,3
-44,12,117,16,-25,23,57,75,99,0
31,34,31,61,1,2,10,10,27,-31
8,8,1,106,37,55,2,-95,-119,-95
-54,-31,128,68,11,46,-65,-219,-251,-97
-151,-80,106,-112,-55,-55,-145,-251,-237,-111
20,-60,-110,-146,96,-46,-72,-79,-71,-25
325,73,-123,-29,206,43,75,111,130,173
236,143,18,-32,-42,-47,42,85,157,188
49,102,52,-115,-255,-172,-77,-39,25,71
11,102,86,-30,-150,-54,11,31,79,65
-23,39,53,112,38,106,114,107,115,41
-104,-74,-88,84,71,51,0,-12,-35,-98
-195,-194,-278,-97,-95,-121,-155,-167,-191,-246
-150,-159,-190,-107,-150,-129,-108,-106,-133,-179
15,19,70,70,23,18,51,70,66,18
74,98,182,127,82,76,109,115,145,114
-20,52,147,102,-13,23,31,56,75,30
-81,-43,-15,-4,-32,8,-6,-15,-11,-29
61,16,-62,-56,26,54,32,30,31,98
171,130,55,-16,47,62,54,65,51,136
55,98,102,11,16,-41,-43,-57,-54,-32
-16,-26,13,38,76,-34,-65,-71,-74,-59
36,-81,-120,23,263,97,86,83,72,75
-17,58,-80,41,156,64,82,80,77,46
-43,52,-8,31,-144,-13,41,34,58,4
-50,-43,19,-72,-255,-80,-5,0,25,-32
-83,-111,-81,-87,-134,-48,-24,-16,-10,-50
-15,-46,-46,-26,25,88,49,55,41,0
-35,-70,-45,-87,-39,39,15,25,-6,-30
-36,-89,-110,-58,-24,-23,-32,-51,-92,-43
59,47,152,137,214,40,0,-14,-39,33
93,73,154,121,279,59,49,72,58,89
79,83,136,70,128,57,49,82,102,75
14,19,157,43,-52,-5,-55,-48,-17,-19
-63,-36,8,-90,-202,-132,-140,-126,-106,-121
-110,-39,-166,-116,-138,-99,-100,-82,-54,-124
-61,-9,-172,-16,20,44,-2,12,31,-22
3,-16,-139,-17,19,45,16,-4,-12,13
38,-11,-72,-48,-44,-47,-23,-28,-23,41
140,112,167,58,-105,-48,12,56,80,144
144,171,269,146,-26,34,55,99,94,168
51,136,213,80,105,86,57,50,19,67
-45,17,108,-16,88,14,-19,-29,-85,-137
-130,-265,-176,-114,4,-85,-113,-101,-117,-250
-167,-273,-227,-85,-51,-77,-82,-73,-86,-169
-169,-52,-125,-32,-145,-79,-82,-67,-90,-117
-118,-56,-134,-34,-157,-83,-83,-35,-74,-73
-7,-26,-85,-40,-79,-36,-25,39,-28,24
86,61,8,-53,-29,-12,15,47,-29,119
83,67,27,-72,-16,-5,21,35,7,156
57,20,-51,-94,13,52,53,76,132,146
86,14,-32,-9,63,102,118,167,259,142
113,36,25,77,102,110,114,216,247,100
47,20,50,93,90,79,53,124,92,-16
-9,13,64,70,42,28,0,-6,-24,-87
43,50,69,49,16,0,-2,-63,-37,-32
39,50,88,39,17,2,19,-73,-35,17
-18,25,100,63,28,13,23,-74,-60,1
-52,-6,76,84,32,-13,-18,-103,-111,-73
-81,-42,6,70,32,-6,-32,-88,-108,-80
-74,-57,-80,15,17,0,-45,-63,-101,-54
-76,-76,-138,-71,-20,-35,-76,-92,-143,-71
-7,-15,-44,-33,-1,1,-31,-68,-107,-62
72,47,47,4,-14,12,-1,-43,-56,-31
83,81,85,3,-62,-23,-28,-51,-45,-25
49,42,110,-3,-74,-47,-42,-30,-5,-16
-29,-7,20,-57,-63,-37,-41,-3,34,4
-58,-33,-102,-90,-45,-39,-49,-19,2,-1
-21,-31,-85,-43,9,10,-3,0,-3,53
18,-2,4,41,131,85,42,14,-1,52
35,39,61,99,179,59,6,-32,-67,30
86,33,10,36,26,-10,-7,-38,-46,78
50,-25,-133,-126,-123,-26,20,16,61,84
-70,-74,-161,-136,-123,-26,7,36,90,-8
-99,-32,-7,17,-34,2,29,56,92,-51
-58,0,87,78,50,58,67,71,105,-6
-37,-22,66,41,115,76,73,71,95,35
1,9,82,59,129,13,22,47,30,25
71,39,19,-18,3,-21,15,45,-25,98
34,-26,-94,-136,-159,-68,-21,39,-118,99
-36,-50,-151,-113,-160,-110,-56,58,-190,-60
16,-78,-80,17,-29,-30,-24,94,-33,-70
52,-23,85,116,107,36,20,64,207,15
46,80,130,74,132,58,10,-18,320,70
41,75,82,63,67,84,22,-26,269,81
45,65,123,119,28,49,22,-25,13,16
33,61,145,116,23,-8,-21,-79,-244,-78
0,40,119,73,27,-29,-57,-100,-322,-128
-76,2,40,25,-28,-57,-106,-116,-280,-127
-137,-76,-69,-16,-97,-99,-161,-164,-266,-152
-165,-152,-157,-140,-156,-133,-177,-164,-261,-170
-73,-116,-222,-251,-226,-133,-94,-45,-118,-36
166,61,-99,-114,-44,102,117,167,117,204
178,106,122,171,171,247,183,198,172,195
16,70,366,257,264,178,77,41,32,-17
-72,-27,205,-8,236,2,-56,-97,-74,-119
-95,-138,-284,-271,-75,-163,-141,-117,-64,-35
-43,-154,-371,-146,-147,-124,-91,-31,3,30
-37,-84,-261,-40,-24,-73,-54,1,-10,-42
-82,-86,-196,-197,-218,-179,-106,-64,-80,-111
106,53,68,-70,-196,-30,64,102,92,97
198,153,201,32,-15,122,182,193,199,206
128,156,164,95,71,140,144,128,165,131
-10,69,127,120,30,62,46,15,54,17
-99,-24,42,66,0,-9,-28,-38,-18,-57
-131,-62,-42,25,44,-24,-45,-45,-24,-85
-131,-113,-81,-33,83,-31,-61,-40,-11,-91
-75,-85,-139,-140,53,-2,-30,-24,13,-81
31,12,-146,-119,55,37,5,-22,8,-32
55,36,-36,-39,80,-9,-25,-79,-83,2
45,58,150,106,39,-29,-21,-69,-107,84
62,62,151,140,-65,-9,0,21,-26,147
77,42,38,61,-105,-26,-4,22,-31,56
56,12,-4,12,-45,-1,16,37,-11,-9
-17,-26,46,-35,-14,-10,-6,36,27,-22
-77,-73,-25,-66,-22,-19,-40,-21,-14,-49
-16,-39,-147,-49,9,34,-7,-17,-42,-18
46,25,-82,0,31,64,44,51,26,52
-2,30,7,42,5,14,29,49,36,27
-45,11,65,78,-3,-25,-2,21,0,-55
-33,16,51,72,16,-11,-5,22,-9,-98
-26,6,12,24,33,4,-14,-5,-29,-41
-34,2,9,13,104,30,-23,-28,-31,-13
9,6,11,0,137,12,-26,-5,10,17
64,-19,-33,-64,-41,-59,-33,3,48,48
39,-38,-40,-59,-174,-94,-31,-7,59,9
-9,-13,48,12,-109,-60,-6,6,91,-34
-34,-36,35,-36,-58,8,28,12,88,-14
-24,-76,-82,-116,-42,41,48,38,50,27
-31,-37,-101,-38,32,86,77,86,50,68
29,47,1,72,89,122,107,115,36,118
68,97,135,125,75,46,26,17,-89,103
4,61,245,131,-5,-62,-97,-110,-210,14
9,20,132,90,-25,-59,-80,-41,-170,-38
72,42,-1,22,0,28,16,57,-67,-75
85,54,50,4,13,62,26,19,-73,-123
49,8,62,-22,25,74,24,-52,-56,-83
0,-51,-56,-42,48,29,9,-79,3,17
-3,-23,-72,-22,84,-7,14,-53,72,95
-33,-8,-49,-40,79,-35,-13,-67,26,48
-61,-37,-26,-20,24,-102,-79,-125,-79,-24
-49,7,66,79,-85,-95,-80,-105,-68,-72
-53,82,182,107,-61,9,-8,-26,2,-57
-120,34,110,-12,-54,-13,-37,-29,-40,-73
-175,-74,-174,-142,-100,-96,-88,-61,-134,-138
-90,-18,-408,-196,-96,-88,-34,34,-46,-84
72,75,-349,-194,-58,-11,35,126,133,33
174,-110,-137,-120,30,37,70,128,253,160
25,-170,90,100,130,96,97,101,294,194
-101,56,258,278,116,68,26,5,119,52
-119,26,115,172,-25,-35,-87,-120,-176,-128
-25,-83,-117,-92,-226,-155,-162,-171,-315,-179
180,19,-11,-185,-187,-79,-56,-73,-243,-51
99,-1,17,-183,-89,2,2,-13,-143,-12
-76,-77,-146,-97,0,-4,-2,-7,-65,-17
26,-7,-106,19,125,94,112,123,132,131
163,106,46,107,147,160,208,202,258,220
122,131,222,165,145,100,119,101,178,153
0,27,182,117,49,23,14,-10,46,36
-85,-43,47,42,-74,-33,-31,-62,-23,-37
-148,-121,-72,-12,-155,-120,-106,-127,-81,-118
-82,-108,-165,-55,-22,-25,-35,-57,-36,-52
11,3,-101,-30,240,122,83,64,36,32
78,87,36,43,189,107,65,55,-10,0
141,122,150,158,53,60,50,19,-23,20
102,131,236,211,67,7,0,6,31,49
-34,64,241,123,58,-47,-42,-5,63,-1
-140,-37,122,-4,-42,-95,-77,-23,68,-55
-113,-108,-136,-177,-210,-146,-124,-60,9,-74
-53,-119,-337,-345,-329,-181,-153,-83,-97,-116
-66,-94,-287,-242,-173,-86,-67,-34,-85,-61
-18,0,-44,35,87,82,97,86,45,80
39,59,91,138,160,104,141,136,134,83
86,64,106,100,109,100,153,157,191,65
122,87,100,112,99,127,151,169,204,117
-21,-61,-88,73,108,64,56,47,40,13
-234,-193,-230,-70,23,-37,-65,-87,-105,-156
-284,-35,-1,-171,-213,-152,-187,-203,-242,-226
60,139,137,-32,-190,-78,-98,-107,-184,-7
419,138,2,95,120,123,97,61,-23,190
290,80,33,176,313,128,102,50,-38,93
34,58,136,129,153,24,41,65,-54,-33
-87,29,185,57,-131,-40,10,106,5,-84
-120,-22,1,3,-185,-48,7,99,70,-53
-51,-106,-44,-89,-86,-93,-56,-44,-14,-38
0,-186,-72,-237,-88,-175,-164,-202,-118,-55
22,1,-132,-210,-86,-87,-89,-147,-57,-5
58,99,-73,-29,4,88,48,-10,62,79
63,73,-10,64,44,104,65,7,64,101
-36,-27,-40,34,-47,-31,-64,-108,-57,-18
-75,-88,-72,9,-80,-78,-103,-125,-92,-76
-37,-88,-78,-18,-43,2,-16,-16,8,17
-19,-43,-54,-37,-17,61,35,55,75,59
0,1,15,-7,44,104,75,75,77,20
26,38,62,75,227,175,114,90,85,18
43,81,114,109,228,62,39,62,55,24
45,137,186,110,59,-50,-28,4,-20,-13
52,144,176,122,3,-8,-10,13,-9,-4
20,-94,50,88,74,48,35,52,66,16
-70,-102,7,43,137,47,46,58,84,26
-127,93,27,-41,-68,-125,-68,-37,9,-49
-157,-27,-39,-170,-305,-221,-149,-87,-35,-108
-129,-138,-222,-258,-282,-159,-104,-47,-30,-88
27,-97,-320,-185,-107,0,18,42,2,44
194,42,-127,30,86,123,113,110,65,186
75,14,-7,83,94,76,55,38,49,131
-64,-43,12,16,14,15,-2,-22,-3,2
-31,36,120,55,35,70,56,86,45,0
18,112,308,176,69,130,103,138,106,-16
83,36,373,181,35,89,72,70,105,-13
205,-89,38,17,-27,69,90,91,235,119
23,96,-23,-44,-92,-16,12,10,203,14
-261,30,-12,-31,-119,-150,-164,-187,-145,-344
-302,-210,-249,-114,-16,-179,-255,-282,-390,-408
-166,-175,-384,-224,181,-93,-164,-191,-344,-119
52,-19,-239,-195,159,-43,-64,-103,-249,123
204,92,-48,-72,-71,-61,-60,-93,-166,181
286,138,180,105,-112,49,77,60,8,182
203,134,278,165,-6,107,128,89,43,139
65,49,71,60,-7,40,47,13,8,60
-58,-82,-166,-103,-84,-31,-26,-9,11,-52
-120,-100,-170,-78,-23,-33,-12,12,40,-86
-76,-2,11,89,124,31,65,48,81,-19
17,44,87,103,112,113,134,83,142,89
45,55,106,75,50,125,125,82,168,96
-59,-3,65,6,-68,-15,18,-5,95,-17
-77,-40,5,-14,-71,-79,-45,-46,9,-33
-3,6,8,80,108,40,-7,19,0,19
-11,15,-36,82,159,55,5,80,-42,-45
-24,-36,-67,-67,54,-37,-24,79,-67,-127
-2,-50,-47,-133,-76,-79,-6,62,12,-41
10,-36,-74,-64,-90,-39,37,31,115,98
21,6,-30,16,-21,27,54,2,161,102
-3,31,141,9,-82,-22,-5,-55,103,-11
-49,6,131,-31,-116,-86,-96,-121,-18,-113
-49,14,-10,-16,-40,-59,-90,-95,-84,-107
57,77,3,49,65,30,9,2,-43,-11
154,161,181,123,133,110,88,63,13,113
80,95,239,149,70,78,25,-27,-47,78
-18,-25,82,70,36,23,-16,-69,-112,-1
-16,-48,-22,-17,-12,-12,-35,-56,-129,-22
-28,-68,-184,-110,-90,-59,-76,-67,-146,-29
-120,-157,-359,-244,-133,-103,-122,-122,-190,-91
-2,-41,-201,-103,-15,24,0,3,-39,9
128,80,38,110,74,113,106,127,92,126
0,7,105,136,41,0,10,0,2,19
-97,-42,19,-40,28,-82,-79,-90,-36,-92
-24,60,-21,-57,37,3,18,15,72,-43
8,98,-32,3,-3,63,82,73,97,1
9,71,-3,70,4,35,63,46,46,11
-22,11,30,111,9,4,3,-7,-22,-31
-89,-31,83,74,20,4,-19,-19,-54,-76
-78,-33,290,-20,24,-30,-55,-31,-43,-64
10,-52,248,-116,-57,-67,-34,4,46,0
144,8,-101,-37,0,52,112,128,189,141
198,114,-102,91,102,130,153,174,233,214
118,93,-63,23,5,12,42,47,84,105
-3,-48,-191,-114,-126,-132,-108,-132,-147,-38
-53,-124,-247,-92,-118,-86,-79,-117,-170,-36
-101,-95,-33,12,-17,15,-2,-61,-109,-38
-205,-138,52,-96,-59,-76,-86,-99,-136,-159
-104,-61,18,-87,-18,-49,-20,7,15,-76
70,84,61,88,51,77,113,155,223,104
63,88,106,167,37,74,105,121,205,89
21,21,18,61,15,59,52,48,103,12
20,-7,23,-29,-43,8,12,3,0,-47
54,40,132,23,-69,-21,-5,-4,-60,-21
44,64,122,116,8,16,5,26,-13,20
-39,6,27,120,96,76,35,22,26,-12
-95,-64,0,33,83,22,-13,-46,-48,-66
-187,-175,-166,-131,-65,-103,-92,-89,-97,-128
-177,-105,-223,-137,-92,-80,-50,-15,6,-78
63,87,-82,-56,-49,-19,24,68,105,72
249,77,-74,-65,4,36,56,52,73,150
166,2,-57,-22,285,87,48,13,32,115
-3,11,51,59,391,91,83,30,35,39
-10,76,99,89,54,42,77,28,24,28
58,113,103,75,-172,-32,-15,-58,-38,23
-16,18,93,-35,-250,-111,-85,-91,-55,-63
-153,-127,0,-151,-265,-149,-139,-97,-75,-180
-82,-76,-67,-60,-78,-17,-26,11,41,-40
73,43,-31,68,162,136,95,116,164,123
63,70,33,127,279,149,103,108,140,107
22,49,45,83,166,73,75,100,97,37
35,68,48,71,-28,15,39,66,56,3
34,72,53,27,-154,-76,-73,-82,-85,-58
13,-33,-46,-163,-197,-205,-174,-172,-194,-116
25,-68,-98,-193,-118,-173,-125,-119,-155,-70
13,-13,1,-60,-19,-19,-11,-6,-62,-13
-63,-24,73,68,47,80,31,54,6,-30
-84,-78,-56,-6,5,57,43,103,80,-13
-1,-42,-55,-14,-27,13,54,117,179,99
-6,0,16,68,11,-9,19,49,212,61
-79,-10,31,65,23,-41,-21,-46,54,-62
-85,-24,-19,-1,-35,-33,-26,-73,-66,-66
-6,-24,-95,-39,-36,30,38,3,19,31
75,47,-37,-9,39,89,106,81,106,99
77,93,43,7,57,76,69,66,15,63
15,77,86,47,55,55,5,22,-119,-32
-21,50,149,110,13,-1,-18,0,-166,-95
-33,-13,161,88,-1,-31,-38,-55,-149,-85
12,-23,23,-32,106,39,30,-37,-14,45
32,28,-11,-50,54,37,62,-21,102,103
14,64,114,26,-36,25,39,4,105,21
19,24,44,-58,-35,31,47,19,96,37
69,34,-64,-89,15,56,92,40,111,104
48,62,-33,72,39,38,39,-30,36,29
-61,-35,-27,95,-42,-78,-89,-162,-112,-86
-69,-107,-67,-6,-92,-125,-130,-185,-139,-70
115,41,111,151,102,90,78,64,115,86
132,94,132,206,157,153,136,144,193,65
-47,-49,-113,-4,-17,-31,-31,0,38,-115
-212,-185,-392,-323,-198,-204,-192,-154,-146,-231
-162,-110,-243,-378,-181,-184,-191,-142,-123,-98
-18,36,78,-204,-43,-69,-70,-25,-41,37
9,7,86,-44,5,-26,-15,4,-45,-6
51,-30,-43,29,9,33,30,56,-19,53
147,35,-12,117,71,138,134,146,70,158
128,35,49,148,96,126,138,103,59,109
35,42,79,165,87,84,85,38,-1,-10
-14,69,169,171,55,16,-10,-58,-116,-85
-2,5,177,117,-21,-103,-123,-143,-154,-66
-26,-78,53,-1,-79,-162,-132,-99,-72,-21
-12,-20,9,-57,-32,-62,-1,45,59,46
-30,-14,-74,-111,-55,58,75,91,104,51
-130,-142,-291,-225,-128,-29,-12,2,9,-57
-64,-68,-226,-115,-1,-5,2,11,14,-39
165,200,65,156,231,234,212,194,223,175
234,182,162,243,206,245,263,255,316,268
91,24,174,161,8,55,116,120,187,125
-136,-23,160,47,-190,-165,-113,-107,-77,-123
-243,-154,-22,-136,-296,-288,-262,-260,-264,-275
-171,-190,-176,-313,-222,-199,-212,-207,-241,-216
67,-33,-203,-259,83,29,-22,-18,-43,24
157,41,-188,-78,250,113,54,59,48,103
82,61,-49,36,159,76,39,58,59,72
-20,91,113,124,46,-4,-11,11,13,15
-83,43,128,129,-54,-52,-44,-20,-14,-57
-102,-17,176,103,-77,-34,-31,-8,-12,-48
-38,-22,148,45,-77,3,23,56,51,27
-12,3,81,71,12,81,57,92,80,39
-16,35,59,76,59,76,50,51,26,2
-16,-6,-81,-54,-68,-43,1,10,4,-7
30,6,-186,-128,-80,-26,2,18,15,-11
25,-3,-212,-125,3,18,0,-43,-61,-47
-28,-107,-230,-86,122,9,-37,-112,-125,-95
-5,-117,-108,20,198,19,-1,-38,-32,-37
-52,25,140,114,-27,-47,-35,-18,-13,-15
-52,67,220,35,-140,-81,-33,-6,18,-9
92,96,152,0,66,34,51,98,125,87
182,141,76,37,106,144,121,147,149,141
142,103,70,74,20,125,112,94,104,169
48,2,56,88,-32,-42,-56,-73,-59,37
-67,-85,-63,-17,-106,-151,-181,-158,-189,-152
-96,-91,-125,-55,-62,-86,-143,-138,-255,-162
-44,-28,-101,-40,12,9,-36,-41,-181,-71
-1,-37,-121,-23,-16,12,0,28,-25,3
37,-11,-49,12,-18,23,29,102,135,83
50,14,-1,-13,-7,25,28,124,147,92
72,33,23,32,51,33,7,66,62,65
22,39,131,122,123,63,13,-8,-71,18
-67,21,385,81,156,43,-15,-86,-196,-60
-95,-35,230,7,-3,-67,-102,-183,-269,-129
-56,-74,-173,-58,-170,-104,-97,-140,-170,-93
-34,-24,-240,-98,-118,7,0,-29,-25,-12
-54,1,-162,-115,-65,63,56,28,19,4
-24,-5,-72,-109,-85,13,44,73,44,18
62,21,-51,-101,-83,-51,-11,17,0,1
39,-12,-111,-59,-101,-152,-131,-102,-145,-38
16,-100,-163,6,29,-94,-125,-66,-127,-16
68,-40,-14,138,288,120,57,104,76,101
65,48,160,195,329,173,128,124,194,132
53,102,237,171,142,133,132,74,195,92
59,110,289,139,26,91,142,110,198,107
40,69,258,46,5,69,109,96,139,83
16,46,109,-58,-43,-14,37,10,7,11
-58,-25,-36,-83,-121,-112,-82,-80,-98,-83
-203,-194,-368,-217,-251,-212,-227,-216,-214,-183
-307,-325,-618,-403,-389,-340,-349,-347,-375,-334
-154,-193,-340,-150,-204,-126,-178,-186,-286,-205
157,58,26,118,84,227,165,137,5,119
216,108,163,164,96,212,195,178,147,211
138,74,152,113,108,79,67,91,188,182
63,84,187,81,183,15,-7,54,176,111
25,106,215,46,81,-31,-2,87,187,58
-12,83,191,29,79,0,58,140,196,51
-19,46,122,71,151,10,33,52,62,4
-59,-42,-38,44,-38,-40,-46,-50,-60,-64
-139,-119,-182,-10,-67,-71,-101,-140,-175,-158
-93,-107,-233,-83,-43,-91,-111,-168,-214,-135
-14,-23,-163,-191,-115,-74,-68,-93,-148,-17
-21,-2,-49,-151,-135,-33,-34,-43,-91,34
-15,2,-6,20,34,59,65,64,37,9
-15,-11,50,81,71,58,76,71,35,-75
-43,-50,107,36,-77,-52,-36,-37,-68,-142
3,-23,13,-18,-115,-41,-25,-17,-38,-62
96,82,-9,-20,-35,48,81,70,42,88
118,125,69,76,69,113,129,118,127,186
97,100,139,160,119,100,63,66,136,157
50,54,59,106,58,38,-21,-30,0,36
-10,-1,-49,40,25,5,-69,-66,-62,-65
-16,-18,-93,-60,178,41,-3,20,24,-57
27,14,-105,-163,223,51,75,115,129,34
56,38,28,-72,-57,-11,77,122,162,111
-28,-17,152,42,-217,-108,-22,1,55,59
-122,-107,59,11,-212,-127,-115,-112,-54,-21
-96,-125,106,-81,-155,-61,-61,-70,-50,-47
25,-54,-6,-86,7,63,67,64,48,0
34,14,-118,20,214,115,77,59,16,-7
-1,45,-61,94,178,35,-2,-46,-109,-106
-92,-2,-40,9,-77,-110,-102,-117,-170,-184
-130,-52,-57,-27,-154,-145,-128,-98,-104,-160
8,56,23,72,16,24,3,15,37,44
99,112,110,84,75,119,97,112,128,151
91,63,115,28,35,78,72,52,48,75
104,52,37,-1,13,15,10,-37,-50,112
104,74,17,16,39,42,46,5,22,172
3,12,-38,4,50,46,48,18,51,44
-97,-71,-125,-21,2,-19,-35,-77,-40,-113
-96,-82,-149,-9,-51,-52,-84,-123,-86,-103
-64,-110,-195,-51,-73,-59,-74,-85,-73,-11
-31,-36,-94,-37,-27,-19,-10,3,8,19
-54,-13,46,11,-35,-59,-39,-8,17,-49
-35,-34,55,-28,-56,-74,-60,-18,31,-49
2,1,119,-7,-20,0,18,49,57,-33
51,36,195,-7,24,41,70,62,21,-31
66,28,58,-60,74,50,80,72,26,22
45,23,-125,-113,31,46,85,105,68,72
78,66,-102,-58,9,59,92,109,72,84
108,84,-48,29,18,17,15,7,-52,25
34,0,14,51,-21,-51,-85,-97,-153,-54
71,77,193,129,88,42,39,36,2,48
148,147,276,170,179,131,148,150,150,162
53,73,182,124,112,82,85,62,74,87
-81,-24,-35,20,-44,-9,-15,-50,-21,-44
-172,-131,-268,-125,-247,-165,-147,-162,-92,-156
-207,-210,-380,-267,-337,-249,-225,-181,-117,-195
-147,-115,-199,-117,-198,-131,-125,-26,-31,-106
-55,-14,17,-6,-36,10,9,79,20,-12
-16,-12,174,73,126,82,68,63,-13,7
6,-39,121,122,214,125,97,31,4,25
-1,-36,-16,42,5,35,52,-16,48,41
47,4,-107,-96,-156,-20,-1,-53,21,37
117,49,-58,-72,33,53,37,-17,6,41
53,33,-14,2,293,122,64,17,-20,26
-27,25,-28,-27,226,6,-8,17,-3,17
-18,39,0,27,0,-74,-28,19,29,51
-3,15,72,97,-33,-57,-45,-25,-44,15
58,-13,31,53,-29,-56,-67,-66,-114,-74
89,44,32,43,-95,-49,-68,-59,-82,-81
38,136,231,82,-46,-37,-97,-55,-39,-37
-49,28,273,31,-36,-65,-129,-91,-64,-53
-47,-58,-14,-32,-94,-48,-74,-50,-27,-35
-37,-54,-209,-53,-75,21,21,25,36,31
1,-7,-218,-95,16,82,91,71,68,111
55,35,-81,-59,48,121,141,125,102,131
82,59,35,15,62,130,168,154,94,57
80,82,224,68,64,89,129,118,72,-9
35,38,336,61,-3,-3,32,57,57,-26
-35,-42,68,29,-19,-35,-41,-7,10,-27
-99,-138,-185,-34,-66,-101,-136,-143,-118,-121
-172,-214,-306,-102,-153,-181,-230,-227,-168,-203
-135,-163,-220,-116,-117,-98,-115,-86,-34,-122
87,46,-2,-41,46,89,97,124,135,76
174,151,50,13,114,133,144,161,148,184
124,93,1,0,65,87,97,162,113,168
-16,-30,-57,-33,-38,7,27,106,48,39
-84,-27,-21,2,-51,-31,-10,19,3,-42
-47,42,52,52,-38,-9,1,-32,42,-23
-54,30,20,62,-34,-6,-14,-92,48,-1
-56,15,48,98,37,37,1,-85,33,12
14,85,160,144,177,104,78,-18,33,49
71,111,238,148,213,84,62,-26,-40,24
31,63,217,143,91,-18,-50,-118,-158,-45
-97,-51,157,71,23,-114,-125,-164,-173,-135
-110,-136,-120,-166,13,-102,-76,-34,24,-106
-71,-136,-334,-325,-142,-81,-14,55,139,-70
-126,-142,-316,-297,-246,-83,-31,8,69,-70
-31,-36,-189,-145,-102,37,66,64,62,61
200,171,49,65,103,169,181,165,87,197
255,179,80,78,71,86,97,57,-61,177
110,47,0,19,3,-10,-9,-73,-167,54
20,-4,11,59,60,-4,-46,-88,-150,-71
2,6,43,105,102,21,-10,-54,-94,-123
-10,12,48,99,31,45,25,-14,-19,-72
-37,-21,62,83,-23,-12,-19,-30,-42,-33
-25,-31,25,0,-110,-100,-44,-2,-10,31
-10,7,4,-29,-128,-99,-3,47,27,23
0,34,80,21,-13,-7,30,50,35,-1
3,-1,172,61,64,37,57,47,111,35
0,-33,47,11,91,28,17,14,164,44
-21,-58,-99,-35,72,16,12,-3,156,26
0,-11,-19,22,69,76,43,35,102,34
-10,-1,131,22,-48,39,-2,-19,-13,10
-37,-31,20,-80,-158,-66,-65,-45,-79,14
-57,-14,-108,-71,-128,-115,-83,-10,-99,-13
-67,3,-161,-34,-64,-93,-61,13,-93,-76
-50,-111,-256,-132,-38,-19,-6,48,-14,-87
-33,-70,-118,-56,40,60,64,91,113,-81
-29,161,92,62,86,72,71,59,130,-70
33,181,65,58,-15,-12,-23,-18,49,-19
137,-17,-13,80,-68,-12,-47,-54,-69,42
101,-255,-6,124,-8,71,47,4,-99,156
-78,-23,134,99,-6,60,21,-19,-132,130
-73,245,301,36,-49,5,-53,-108,-187,3
72,155,230,79,23,44,-11,-24,-76,-46
59,23,99,142,307,101,43,52,58,-18
-22,-39,-44,81,555,68,6,38,69,4
-2,-19,-192,-37,239,-48,-35,5,7,3
-33,-69,-197,-249,-318,-231,-146,-114,-129,-105
-89,-158,-123,-428,-483,-300,-227,-241,-246,-192
67,-24,-112,-226,-174,6,25,6,-11,89
64,11,-152,-15,51,157,163,158,144,197
-57,-68,-51,44,8,44,41,46,41,23
-58,-66,7,61,-10,-7,-22,4,14,-8
-92,-77,-44,19,-72,-75,-74,-30,-25,-76
-81,-83,-59,2,-121,-111,-81,-39,-27,-94
-18,-21,6,64,-15,-7,-11,25,30,-11
61,49,79,110,106,51,12,26,17,19
80,53,51,51,78,4,-11,-30,-31,7
80,56,9,-24,13,7,0,-14,-41,30
71,85,31,18,12,56,41,37,15,78
-10,62,77,90,21,52,59,67,67,45
-36,-34,29,-13,-13,11,47,81,68,7
