40,16,29,7,15,11,0,17,-35,5
9,8,38,27,0,0,3,-17,-9,14
-48,-20,8,18,-12,15,12,-23,-4,-4
-68,-31,7,-5,-12,20,23,-5,29,20
-39,-24,20,-2,-6,31,31,5,60,53
29,2,18,9,0,37,22,-3,74,38
38,9,27,8,20,23,22,-19,58,12
19,-14,20,2,28,11,-8,-30,9,-34
35,-24,1,-20,-10,4,-1,-8,0,-53
44,-4,-14,-28,-38,17,71,24,21,-27
15,11,-11,2,-11,38,85,22,20,3
8,21,-18,9,9,27,24,0,0,10
33,56,-6,16,4,-14,-82,-26,-2,30
24,46,-10,23,-8,-47,-146,-50,-17,11
-2,11,-38,2,-39,-83,-157,-36,-25,-6
3,-18,-24,-22,-58,-98,-107,-10,-22,-10
23,-13,-4,-40,-18,-49,-56,-14,-10,1
3,-9,-9,-40,-7,-14,-32,-8,7,12
-94,-15,-26,-17,-12,-4,-10,3,5,-2
-178,-43,-11,5,-9,30,23,15,1,-37
-102,-32,20,7,-15,25,43,21,30,-30
61,-2,31,-2,-16,20,46,23,18,1
65,8,11,-12,-18,31,46,26,2,5
0,8,11,-7,-3,25,37,3,-6,5
12,11,26,3,10,26,12,-11,-11,2
-3,7,30,0,10,36,-7,-4,8,-6
-30,3,1,-11,-20,27,9,2,5,-14
-33,11,-38,-28,-26,5,3,-8,3,0
-27,14,-41,-24,-28,-22,-29,-5,14,25
-10,5,-50,-23,-47,-35,-59,3,8,7
2,-2,-47,-25,-60,-34,-53,-4,-1,17
10,-18,-31,-21,-48,-16,-15,1,1,40
40,-9,-17,-30,-42,2,-8,2,-4,38
115,6,-8,-50,-44,-4,-19,-9,1,34
153,-26,0,-45,-32,-2,-22,31,37,8
89,-29,15,-22,1,8,-12,71,56,-22
67,-2,25,5,9,-9,10,56,55,34
35,14,16,-7,-21,-28,11,46,49,135
-161,-18,10,-4,-23,9,9,10,27,48
-269,-17,30,24,22,43,37,-7,14,-39
-118,8,50,37,62,51,61,-6,-6,-63
14,19,54,44,82,51,58,-24,-50,-55
54,32,45,58,71,25,31,-42,-87,-22
57,39,8,32,30,2,6,-49,-102,-6
35,24,-20,3,9,2,4,-26,-107,-7
37,31,-24,5,-20,-13,6,9,-78,-13
38,15,-40,-11,-43,-32,-2,20,-36,-18
18,-10,-45,-35,-68,-31,6,16,-9,-25
-1,-13,-14,-35,-45,-20,9,11,24,-14
1,6,2,-13,-9,-16,3,10,52,0
13,14,24,-12,4,4,12,8,59,5
26,9,26,3,13,21,20,2,55,-4
5,5,26,22,12,0,4,-20,36,-19
-11,-9,24,18,12,7,19,-27,-4,-16
3,-6,34,30,23,32,27,-35,-41,-8
-40,-7,37,34,32,45,13,-35,-52,-14
-76,-24,18,10,17,28,9,-18,-30,-16
-28,-5,5,5,5,-4,24,1,-12,6
-7,-7,1,3,-3,-19,38,12,0,10
-19,-9,4,1,-8,-5,21,29,7,-16
6,12,-1,-2,-9,-12,-4,17,29,-1
102,3,-43,-7,-12,-24,-28,4,30,33
138,4,-72,-21,-15,-34,-41,20,55,52
54,10,-62,-20,-18,-21,-9,39,63,15
-4,-8,-38,-29,-25,-1,0,51,44,-14
-38,-10,-30,-37,-37,-8,-14,75,18,-26
-61,-18,-34,-23,-24,1,-11,66,-26,-39
-34,2,-4,14,-5,14,-28,30,-52,-20
-12,20,21,48,21,-1,-40,-19,-36,3
-1,58,45,61,54,0,-27,-58,-10,20
34,76,54,37,33,12,-6,-57,11,5
81,-17,14,17,26,37,37,-15,39,25
71,-141,-22,24,51,75,75,40,49,72
19,-106,2,22,42,58,51,-4,-23,29
-141,36,88,15,-6,12,-12,-83,-103,-59
-178,32,125,1,-14,-2,-36,-111,-106,-56
-27,-10,95,-16,2,-5,-42,-84,-72,13
46,-7,-9,-37,-16,-52,-33,-25,-18,11
11,-7,-71,-33,-5,-58,-8,26,28,-13
-5,-4,-106,-26,-2,-81,-18,55,60,-10
7,0,-100,-14,-7,-57,-21,60,46,-24
12,-4,-77,-20,-9,-46,-14,33,38,-8
32,18,-25,8,11,-30,-19,14,32,23
49,44,17,49,38,-1,-21,-9,-13,21
33,30,21,45,27,8,-11,-29,-32,-17
-5,-2,23,22,5,-4,-7,-23,-22,-39
-58,-21,-2,3,3,-7,-12,-10,-27,-29
-54,-20,0,-15,3,12,-13,-15,-1,-19
-47,-24,0,-24,2,-1,2,-6,15,-13
-24,-12,-6,-5,12,1,26,-8,16,-3
15,-5,5,-5,42,29,28,-12,14,20
36,1,33,2,52,34,29,-8,-3,38
46,26,30,13,46,9,-4,-19,-14,32
56,32,-12,0,12,-21,-25,-9,-8,26
52,32,-42,-5,0,-22,-31,9,-6,17
42,10,-35,0,-18,-12,-31,16,-17,6
-23,2,-24,3,-13,-3,-32,15,-31,-11
-107,-16,-48,-6,-17,12,-34,0,-24,-26
-81,-43,-50,-18,-14,33,-15,3,-18,-40
-53,-52,-6,-21,-2,40,0,6,-21,-24
-88,-50,-2,-24,-11,-6,43,33,-2,-4
-21,-19,13,-16,-33,-50,55,50,13,-12
130,0,7,-11,-20,-57,-1,36,22,5
112,17,-2,10,21,-58,-31,3,3,19
25,7,-3,27,35,-63,-45,-28,-12,-8
-26,-3,2,45,33,-31,-43,-20,8,-7
15,-14,19,19,21,17,1,-6,40,47
22,-24,28,7,29,59,35,12,51,54
-11,-16,29,25,45,71,46,0,15,4
-44,29,18,34,19,20,16,-25,-25,-42
-42,56,7,28,8,6,9,-23,-20,-26
-25,25,-12,6,3,3,6,-31,-25,-13
-1,7,-34,-2,-25,-14,-5,-10,-11,4
29,2,-42,-17,-42,-30,-16,5,-7,1
28,-12,-23,-34,-51,-25,-10,11,-16,-5
28,-8,-12,-35,-42,-5,-6,18,9,7
28,-8,-13,-23,-32,10,13,31,24,39
50,-1,14,-7,-22,18,23,55,41,37
22,0,54,-10,-18,11,35,73,75,8
-11,-7,35,-10,-12,14,28,51,66,0
-52,-28,-5,-3,-5,29,40,4,20,-8
-78,-25,6,15,10,40,25,-15,-5,-10
-80,11,34,35,30,43,26,-19,-16,-9
-45,29,68,43,59,55,44,-28,-33,-15
3,25,58,29,41,54,28,-40,-25,-18
23,10,32,6,16,35,6,-39,9,-19
47,27,6,2,14,7,-6,-24,13,-2
50,37,-12,-15,12,-14,-23,-11,2,19
28,35,-35,-20,-17,-25,-55,-17,-1,19
7,28,-34,-15,-41,-38,-65,-15,5,13
18,15,-29,-25,-51,-42,-52,-12,-5,2
-2,-8,-27,-21,-37,-24,-21,4,-15,-16
-46,-5,-17,-1,-11,-1,-10,7,-48,-36
17,-9,-1,-1,-11,-22,-5,-9,-57,9
51,-25,-15,0,-25,-8,13,0,-9,62
-31,-30,-17,-15,-11,21,18,0,13,45
-45,-19,3,-41,-3,15,28,7,24,1
8,0,17,-26,18,10,3,25,38,-28
79,18,24,7,38,-7,-19,16,21,-35
35,-6,26,19,13,-21,18,16,1,-37
-30,-24,24,9,-11,-8,46,44,0,-27
-40,-20,31,16,0,38,39,39,2,5
-55,-6,33,23,23,55,45,14,-5,14
-3,12,7,15,20,51,31,18,-13,13
44,27,-5,13,19,43,20,22,3,8
60,40,-14,8,6,5,8,6,5,15
26,21,-34,0,-18,-20,-29,0,-9,18
-40,11,-31,-3,-35,-30,-50,-24,-11,-6
-43,5,-12,-2,-29,-30,-53,-38,-36,-15
-19,-9,0,-12,-24,-37,-28,-39,-48,9
-8,-23,17,-11,-24,-41,0,-44,-29,26
-18,-28,13,-2,-11,-14,1,-33,-24,17
-31,-22,5,-3,7,17,12,-26,-38,2
-18,-16,9,7,17,45,-7,-42,-73,-10
-2,-2,24,3,14,36,-13,-39,-58,-18
4,-2,27,0,2,-5,9,5,6,-13
8,37,30,-2,15,0,30,23,32,-27
24,25,-5,-3,28,12,55,42,62,-38
38,-77,-43,8,41,48,72,75,134,12
26,-83,-21,36,47,37,46,95,146,55
-27,37,31,17,-10,-42,-24,24,38,-6
-58,49,11,-15,-41,-87,-85,-48,-68,-56
21,13,-33,-25,-46,-68,-98,-44,-69,1
108,-2,-43,-45,-45,-52,-100,-21,-37,31
124,-22,-48,-34,-28,-33,-73,22,-14,19
17,-36,-43,-11,-16,-17,-43,55,-4,4
-121,-27,-46,-14,-27,-27,-37,16,-14,-13
-137,-18,-32,-5,-26,-26,-42,-56,-46,-11
-18,2,23,15,3,23,-18,-85,-28,26
46,35,54,21,41,26,-5,-66,-21,33
42,31,56,20,50,14,5,-52,-39,24
45,9,49,23,41,28,16,-32,-37,6
39,9,35,22,30,38,11,-32,-30,-3
8,-3,19,13,28,12,-6,-24,-23,-11
3,-11,0,-2,30,8,0,-18,-38,-25
-37,3,6,20,25,20,8,-27,-57,-36
-146,-4,-11,14,10,-15,-16,-36,-56,-33
-105,-12,-35,-37,-16,-58,-26,11,-3,-18
6,-9,-43,-48,-37,-47,7,72,14,-4
68,9,-34,-28,-32,-5,19,72,28,0
34,14,-51,3,-12,27,9,47,23,1
2,3,-44,8,-14,31,0,24,3,-9
10,-7,-10,2,0,26,-3,0,3,-11
13,2,8,-13,-2,-4,3,-8,14,1
16,-3,10,-15,-14,-24,3,-16,17,16
12,0,20,13,6,-26,-16,-8,13,21
15,9,13,15,14,-33,-37,-13,9,22
13,-12,26,-2,0,-8,-49,-14,10,16
14,-31,29,-2,-17,15,-23,-4,8,14
-10,-41,5,-19,-18,0,21,-8,-20,-4
-31,-44,-5,-14,-3,13,53,-22,-38,-7
-40,-26,-8,4,7,39,83,-6,-27,-19
-25,-18,-11,-5,25,35,58,46,8,-20
26,5,-12,-19,18,10,-11,68,43,8
44,21,1,-16,2,17,-45,36,73,14
40,23,1,-20,-9,-7,-46,21,71,9
28,30,-9,-21,-13,-14,-46,27,47,5
10,37,-4,-7,-21,5,-39,16,17,3
24,45,-4,-9,-17,-5,-18,-1,-14,1
-7,-17,-31,-3,-14,2,-7,9,-34,6
-9,-85,-46,15,1,37,11,35,-15,20
-15,4,12,20,4,46,-6,13,-69,-9
-73,72,101,7,-7,19,-14,-20,-124,-46
-61,-15,64,4,-4,4,-5,-26,-98,-49
7,-46,4,-6,-6,0,1,-3,-50,-43
28,-27,-16,-18,-3,-9,13,5,27,-8
30,-33,-26,-13,9,1,27,2,117,28
56,-32,-25,10,23,28,28,13,131,63
82,5,-4,32,24,17,38,16,97,99
66,36,3,53,31,-12,32,-4,44,67
16,58,15,72,48,-10,8,-34,-40,9
-10,48,5,64,36,-25,-19,-48,-76,-24
-33,33,-6,29,6,-25,-32,-27,-35,-47
-24,20,-18,-3,-23,-26,-38,-27,-24,-64
-32,3,-30,-25,-33,-32,-35,-23,-38,-56
-5,2,-17,-29,-30,-35,-11,-25,-60,-14
4,-1,-9,-13,-26,-27,-16,-31,-91,12
-23,-2,0,-2,-1,-8,-23,-22,-93,-13
-24,-7,17,16,18,-4,-1,-10,-64,-23
-4,-1,35,8,14,6,47,0,-19,4
9,4,23,2,2,8,73,16,36,13
1,7,-3,6,-2,-3,45,-2,54,3
-18,-16,2,1,12,-4,25,-3,54,-10
-28,-24,12,12,34,6,22,-2,-2,-6
-28,-32,-2,-4,30,-5,11,2,-41,-4
-4,-26,-12,-25,-5,-14,42,29,-14,23
22,2,-7,-36,-23,-7,30,31,1,45
31,22,-10,-22,-15,-9,-19,11,0,27
35,9,-27,-22,-28,-10,-41,5,7,0
18,15,-52,-33,-38,-14,-51,6,3,-20
-18,6,-49,-39,-35,-18,-41,14,13,-50
-42,-14,-34,-26,-46,-36,-38,11,31,-36
-36,-23,-31,-30,-50,-51,-36,10,19,-28
-31,-15,-17,-20,-22,-28,-27,6,7,-23
-29,-12,8,-16,-6,-12,-19,10,39,20
-5,2,29,-3,4,10,-6,28,56,47
22,16,35,7,9,17,0,0,16,44
29,16,33,9,12,13,3,-11,-6,4
12,20,37,25,29,24,0,-17,-12,-4
4,17,52,35,45,34,16,-33,-42,-14
18,-9,8,14,19,21,75,-35,-56,-13
54,-3,-9,9,10,7,51,-17,-37,-2
5,-1,6,16,21,-6,-3,-2,-20,-3
-88,-16,-17,-5,13,1,-25,0,-5,-6
-61,-20,-35,-24,-1,4,-25,19,21,7
7,22,-25,-21,-35,-38,-51,15,21,22
31,48,23,-16,-65,-84,-96,-23,-7,5
46,23,-2,-35,-75,-82,-80,-26,-25,-9
53,-2,-25,-25,-69,-56,-49,-17,-32,3
48,-30,-37,-17,-62,-30,-15,12,0,5
2,-31,-18,-20,-24,7,31,45,30,4
-40,-15,17,-12,2,26,32,41,7,-2
-70,-21,23,5,14,37,21,29,0,-20
-69,-5,36,25,21,49,24,28,19,-20
-23,71,51,15,6,19,15,24,20,-1
73,76,30,-14,0,10,29,11,10,16
119,-104,-33,-4,15,41,50,3,15,36
38,-125,23,48,64,91,72,17,45,41
-76,77,127,45,55,53,64,31,18,-11
-75,31,56,-5,4,-10,-3,22,-15,-39
-44,-30,-47,-22,-25,-18,-32,-9,-1,-7
-2,0,-84,-11,-22,-4,-33,-57,-1,1
45,20,-69,-5,-35,-36,-31,-58,-7,11
68,14,-57,-30,-57,-42,-15,-39,-4,21
33,11,-33,-23,-27,-33,-4,-14,-7,15
-14,-7,-20,-2,-14,-38,-24,-17,-15,4
-101,-44,-25,-26,-18,-19,-43,-33,-27,-19
-170,-56,-32,-39,-18,17,-50,-19,-36,-53
-69,-24,-11,-44,-21,9,-9,16,0,-12
24,-1,21,-19,-8,-1,44,42,27,18
-1,-12,27,14,13,14,69,51,3,10
-2,-1,18,50,43,12,25,43,-27,0
39,25,36,76,70,-1,-1,6,-38,13
73,43,64,74,75,14,11,-16,-41,32
76,75,52,50,55,41,23,-18,-7,33
67,66,48,53,45,41,13,-25,-10,-2
67,34,17,43,34,9,-6,-34,-30,-27
6,-16,-40,-12,4,-6,-9,-1,-16,-25
-57,-42,-66,-45,-17,-1,6,30,13,-36
13,-14,-54,-22,-10,4,4,0,-16,-16
151,26,-26,-4,-6,-21,-12,-55,-40,31
55,-3,-26,-5,-8,-32,-28,-80,-69,14
-140,-37,-20,-5,-1,-23,-25,-48,-84,-29
-118,-26,-7,6,15,8,-23,-19,-60,-29
-24,-20,20,25,23,18,-7,-14,-36,-18
17,-19,45,21,35,32,0,-8,-1,4
21,-14,51,8,32,53,8,-8,12,8
14,-14,29,2,30,38,13,-2,21,-15
-11,-6,20,4,23,24,32,2,44,-7
-35,-17,-11,1,2,19,39,9,48,2
-52,-28,-23,2,9,15,59,29,39,33
-47,-11,-4,0,20,17,60,28,18,9
-14,4,-5,2,23,4,18,28,-10,-23
2,15,-13,-5,7,-14,-7,33,-2,-22
1,24,-18,-2,3,-19,-11,32,1,-1
-4,10,-30,-20,-13,-36,-27,29,6,12
-19,-9,-27,-33,-39,-41,-50,10,14,11
-33,-15,-6,-36,-40,-26,-50,0,-1,14
5,-1,16,-26,-37,-10,-57,-9,0,25
78,-4,-6,-20,-17,-12,-43,-6,0,40
83,-10,3,-22,-10,-7,-19,1,-3,30
18,-13,6,0,-7,26,6,3,-10,-14
-22,-5,10,28,24,47,23,11,-20,-28
-23,3,14,15,22,44,21,-7,-10,-18
-14,-3,6,0,0,29,5,-9,19,-3
-29,-26,-2,20,-11,11,-22,0,5,9
-17,-13,11,20,0,22,-27,-14,-12,3
12,18,28,23,14,19,-8,-21,9,13
-4,7,29,22,7,14,2,-17,12,-11
-6,14,15,3,-1,0,5,5,14,-9
3,5,20,-20,-16,-11,-8,13,16,0
16,10,0,-19,-33,-17,-28,0,14,-4
35,15,-38,-23,-44,-41,-28,5,8,-1
36,2,-63,-26,-44,-36,-18,21,-10,-6
7,-11,-32,-15,-36,-20,-2,21,-37,-5
-13,-14,-8,-8,-42,-17,-7,-3,-59,2
2,4,4,-7,-31,-13,-11,-9,-25,8
0,7,26,-1,-6,4,-13,-1,32,5
-3,-4,43,6,9,22,-1,4,67,2
-27,-19,28,-1,-5,25,10,27,107,3
-44,-21,34,23,-2,28,22,25,109,5
-41,-10,32,15,10,16,28,26,77,7
-27,1,22,4,13,19,50,37,36,9
-2,-9,22,8,8,39,58,16,-36,6
26,-20,0,0,-9,35,57,-9,-58,7
78,-12,-19,3,9,39,36,-8,-28,15
109,-1,-30,10,20,31,17,4,4,5
60,-1,-33,-6,8,-9,0,40,24,6
-51,-8,-57,-31,-42,-56,-22,83,33,-4
-66,-2,-55,-17,-53,-41,-41,82,23,-13
-107,28,-8,22,-20,-19,-70,8,-26,-38
-104,78,63,75,54,-8,-77,-91,-89,-72
29,100,111,98,81,-16,-75,-156,-101,-44
98,65,72,53,34,-34,-20,-116,-71,1
109,21,29,31,35,18,56,-56,-6,32
52,6,33,29,52,89,46,-56,8,29
-17,-3,42,11,40,69,7,-76,-30,6
-41,-13,27,0,7,8,-4,-66,-61,-19
-32,-29,6,11,-2,-15,-4,-68,-81,-23
-1,-33,26,7,6,10,6,-47,-46,0
30,-29,34,19,23,36,23,-31,-35,10
22,-22,18,10,17,8,21,3,-39,3
-29,-24,-26,-3,-20,-43,7,9,-23,-12
-48,-19,-64,-32,-30,-46,1,-5,0,-20
-5,20,-69,-41,-45,-49,-4,4,14,-11
23,34,-68,-36,-37,-37,-15,23,16,-13
13,-36,-85,-40,-27,3,-18,39,45,-4
0,-81,-99,-32,-14,28,-1,62,84,31
-34,38,1,-4,-4,33,15,65,68,13
-85,49,49,-13,0,42,4,22,14,-34
-63,-34,6,-20,-4,16,10,23,-5,-38
-4,-38,-4,0,-21,-48,9,34,22,10
15,-18,-2,22,-2,-59,15,17,14,15
1,14,17,30,28,-45,0,4,4,9
1,58,45,40,35,-54,-24,7,8,29
24,76,31,27,21,-28,-22,2,4,40
47,-22,-16,-8,8,11,20,30,19,37
-2,-107,-43,10,39,83,69,56,34,27
-48,-18,-4,19,42,54,46,1,-4,-6
-4,59,34,-21,-19,-51,-43,-63,-41,-61
148,43,14,-51,-43,-60,-58,-67,-40,-31
125,18,-38,-47,-50,-43,-47,-29,-21,34
-3,2,-70,-38,-43,-43,-42,16,8,40
-52,-8,-49,-20,-27,-21,-44,42,33,-10
-33,-12,-29,0,-5,-9,-43,27,49,-26
-36,-13,-18,13,-9,-3,-17,7,26,-37
-33,-4,-17,22,-10,1,-5,10,14,-38
-14,-2,-5,3,-4,12,8,12,22,-9
59,-4,7,-3,10,2,19,2,41,29
55,4,27,18,17,-3,21,-10,72,39
7,-15,23,13,12,7,26,3,40,32
1,-27,3,10,13,7,36,13,1,15
-27,-32,9,22,24,24,34,21,-19,-25
-30,-29,18,19,34,38,32,3,-39,-24
-1,5,24,22,37,12,13,-3,-25,-6
19,10,8,19,17,-13,-23,-5,-34,-3
29,13,-3,1,-21,-24,-41,-1,-32,0
31,33,6,-25,-36,-21,-55,2,-29,6
29,28,-7,-16,-44,-28,-44,23,-25,7
24,23,-41,-12,-22,-25,-14,34,-11,-2
24,23,-32,-9,0,-6,11,28,12,-18
-18,20,0,-8,-10,-2,0,4,8,-11
-70,-20,-16,-19,-17,-11,-19,-12,-11,13
-71,-43,-1,-17,-26,-2,-1,-4,-10,23
-24,-37,20,-14,-14,3,23,-3,-3,21
74,-36,23,-8,18,-1,33,-12,0,19
25,-13,7,2,29,22,36,-18,22,-23
-56,6,29,8,19,25,35,-22,33,-45
-102,0,9,15,2,9,46,3,33,-39
-78,-12,-12,14,15,13,58,19,27,-6
-29,-11,15,24,28,23,55,6,-13,24
33,6,28,38,33,19,48,-2,-36,4
66,16,10,31,32,15,35,21,-7,0
68,17,6,12,23,1,20,23,0,-4
3,16,-23,-13,-4,-8,-4,18,0,2
-19,20,-68,-32,-30,-19,-23,24,-3,-13
0,9,-65,-31,-45,-26,-33,11,-21,-24
39,19,-10,-13,-18,-1,-16,-6,-19,4
50,19,22,5,19,38,-15,-17,-23,17
25,26,38,21,32,47,-20,-18,-22,14
5,22,52,13,1,-16,-13,-2,-6,5
5,1,49,4,-4,-47,9,-14,-11,8
1,-3,31,19,11,-30,7,-26,-15,24
-10,-16,3,0,4,-16,5,-17,4,25
-7,-23,0,-3,1,1,5,-13,13,31
-2,0,18,5,17,22,17,-11,4,30
-26,0,36,0,17,28,9,-22,-22,-16
-24,-17,15,-15,19,22,8,-7,-11,-19
-16,-17,-13,-11,6,16,20,5,43,23
4,7,-20,9,12,12,23,8,42,37
29,30,-25,6,20,13,37,2,16,13
17,14,-33,1,-6,-10,9,6,8,-5
-2,-10,-28,-26,-44,-30,-24,29,3,-12
-22,-13,-22,-44,-39,-14,-38,30,-11,-29
-24,-19,-33,-28,-10,27,-25,20,1,-19
-23,-27,-16,-6,-18,38,16,12,10,5
-23,-8,0,1,-17,20,2,-23,3,3
2,95,17,-7,-38,-9,-21,-48,-12,-13
26,135,42,-26,-43,-31,-18,-21,-2,-7
24,-87,-3,-26,19,13,25,36,38,41
-5,-174,2,31,78,33,30,51,71,67
-44,59,111,59,24,-58,-12,-5,56,16
-40,57,66,-1,-48,-84,-36,-54,9,-26
24,-9,0,-3,-15,19,-21,-40,-44,-17
53,-17,-12,13,28,69,-8,-10,-47,1
37,0,-20,6,0,13,-10,15,-30,2
4,-5,-16,9,-28,-32,-39,14,-37,9
-22,-9,-10,10,-27,-30,-37,3,-33,-10
-18,0,-33,-9,-37,-20,-1,30,-7,-22
-22,4,-48,-23,-27,-7,12,52,1,-18
-7,8,-32,-30,-37,-12,6,39,6,-23
4,-3,-43,-30,-36,-10,18,8,-6,-11
4,-19,-51,-21,-28,6,26,-20,-16,9
-8,-26,3,-12,-8,35,22,-35,-9,7
-9,-17,18,7,12,41,-11,-11,21,-1
-1,1,11,20,7,12,-22,-18,59,-9
-10,18,30,16,-14,-39,-32,-31,85,0
0,21,51,0,-5,-52,-33,-20,54,9
31,7,42,-7,-12,-55,-42,-5,-22,0
45,28,47,0,-6,-5,-10,3,-56,11
37,74,47,14,4,87,38,13,-51,13
25,7,13,19,11,138,83,34,-13,28
23,-85,-25,25,52,139,125,71,49,57
-6,-29,15,34,65,75,67,70,24,16
-67,34,63,12,19,-24,-42,-3,-77,-68
-69,0,11,-19,-38,-49,-72,-32,-134,-82
-21,-23,-35,-32,-43,-1,-41,-32,-95,-35
8,4,-25,-11,-12,10,-11,-48,-44,25
26,19,-29,9,-20,-43,-40,-71,-23,23
40,30,-26,9,-36,-111,-82,-104,-32,-2
46,18,-4,-11,-26,-119,-84,-93,-25,-9
60,-39,-3,-13,5,-62,-51,-39,4,22
57,8,37,24,30,-5,-13,-4,29,21
6,162,141,52,35,7,-6,-29,3,-25
-31,31,94,27,41,20,16,-30,-12,-18
-87,-131,-2,25,77,63,51,-4,-9,-27
-81,0,-32,30,67,68,88,22,-2,-14
0,129,-86,2,37,40,88,34,14,33
83,-62,-111,-8,29,30,93,58,52,56
24,-185,42,48,44,35,77,55,45,0
-102,-126,102,15,11,-36,-19,-14,-37,-75
-74,-44,0,-58,-32,-84,-53,-26,-44,-59
30,22,-77,-88,-44,-66,-35,22,31,18
75,38,-90,-79,-42,-52,-13,51,121,70
21,23,-77,-71,-16,-14,-5,58,114,34
-32,12,-83,-46,14,7,16,53,87,-21
-5,10,-57,-14,41,15,20,43,82,-12
36,8,5,10,63,29,1,12,4,12
-17,-9,19,-8,54,39,19,-23,-79,1
-63,-38,-21,-42,22,33,35,-35,-118,-23
-55,-43,-15,-40,20,10,47,-13,-116,-27
-14,-4,20,2,41,2,76,9,-73,-7
13,7,30,6,50,-9,55,42,-16,20
24,4,21,13,44,-12,46,60,60,37
24,0,1,13,32,-17,36,64,97,49
19,9,-19,-5,4,-5,35,59,80,46
5,12,-51,-27,-6,-7,26,44,77,33
-4,14,-55,-15,14,-3,7,26,90,19
27,34,-13,1,25,12,-2,-4,101,8
49,43,-52,17,19,1,-29,-39,41,-6
66,57,-30,-4,-16,-14,-44,-68,-42,-2
42,55,1,-26,-30,-19,-45,-78,-85,-8
0,30,2,-18,-9,-28,-33,-56,-77,-27
1,0,3,-10,6,-12,-23,-24,-59,-23
36,-15,21,-7,19,17,-11,-19,-53,7
25,-23,42,0,49,27,-12,-22,-49,-4
-3,-2,27,-4,34,7,-26,-35,-52,-7
-33,17,3,-9,2,14,-32,-41,-55,-24
-36,-8,-2,-16,-8,32,-6,-31,-20,-7
-50,-21,-4,-25,-13,23,24,-8,16,24
-61,-26,-14,-28,6,9,22,14,20,0
-26,-28,-1,-2,25,9,32,14,17,-11
4,-21,12,0,20,-6,28,25,25,-16
13,-28,-13,-7,-15,-30,6,12,28,-8
17,1,-27,3,-3,-34,-27,5,18,-8
18,10,-51,-7,-16,-15,-42,22,20,0
9,6,-50,-7,-32,-22,-47,28,25,-7
-11,12,-8,-5,-39,-26,-44,17,1,-24
-11,4,13,-23,-45,-10,-22,13,-3,-21
-3,8,12,-30,-52,-9,-25,-1,-6,-20
-14,5,-17,-37,-44,-28,-43,-16,-6,-9
0,-26,-22,-27,-22,-27,-44,16,18,17
12,-11,7,-6,-16,-37,-28,43,32,23
-8,3,42,-1,-24,-6,-1,32,29,9
-14,7,31,-7,-34,12,0,7,31,12
-4,0,15,-9,-23,16,0,-3,20,10
8,78,22,-16,3,16,-1,-15,-24,-14
43,174,29,-32,-17,-15,-29,-31,-64,-18
83,14,-44,-43,-26,-24,-20,27,-20,10
40,-280,-102,-18,12,36,61,93,95,69
-65,-83,44,28,22,14,15,34,57,43
-131,101,100,-18,-64,-105,-126,-95,-56,-77
-71,0,-5,-68,-113,-117,-147,-82,-27,-83
0,-22,-64,-54,-74,-55,-101,-6,32,0
29,-16,-75,-36,-45,-16,-55,18,40,40
41,4,-27,-12,-41,-16,-43,-5,5,13
17,32,3,-2,-59,-56,-64,-23,-35,-29
-24,14,8,-13,-69,-67,-52,-19,-47,-34
22,-13,6,-11,-33,-38,-3,-8,-39,-5
69,6,16,6,21,11,29,-17,-30,20
58,21,38,24,43,6,21,2,-15,6
36,13,3,23,30,16,25,35,4,5
59,22,-34,20,5,65,60,52,20,47
117,-50,-93,10,25,112,116,109,98,108
16,72,25,36,48,87,100,100,96,69
-159,78,219,50,-39,-30,-65,-65,-80,-123
-165,-130,157,-15,-122,-102,-151,-139,-178,-199
-67,-87,-20,-46,-106,-97,-97,-66,-87,-90
-4,-3,-130,-44,-59,-69,-31,11,19,40
34,30,-108,1,-1,-54,-11,20,19,63
23,25,-81,5,-12,-32,-17,-5,19,27
2,-3,-70,0,-51,-2,9,-5,25,7
2,-17,-50,-1,20,4,22,-4,28,15
7,-2,0,-32,39,8,34,-3,39,39
11,6,60,-19,24,41,41,2,14,42
0,-6,33,-31,-9,30,24,-1,-2,9
-71,-3,-16,-53,-9,-2,15,3,0,-10
-75,-6,-15,-36,-10,22,18,0,0,-23
-41,-13,22,-13,1,29,29,16,2,-5
-11,-10,49,10,55,52,41,30,9,5
18,3,26,41,141,27,67,28,4,-7
48,3,-5,50,117,40,61,30,1,-1
33,7,-10,67,55,31,23,23,5,18
16,0,-41,34,34,8,19,19,29,24
27,14,-29,-6,1,-3,32,14,37,9
51,36,-17,-29,-32,-23,40,14,36,23
53,24,-33,-44,-52,-20,38,0,-2,10
32,18,3,-29,-56,-5,17,-19,-19,-5
-15,18,11,-13,-37,48,-2,-30,-30,-2
-39,-13,22,7,-19,84,26,-22,-43,-21
-39,-31,34,20,-9,49,10,-33,-73,-56
-21,-41,19,5,4,-23,-15,-43,-56,-45
-31,-30,5,18,-1,-83,0,-11,-1,-13
-60,-14,15,48,10,-109,0,-32,23,-9
-38,16,38,44,16,-81,-15,-52,39,-2
53,31,48,14,13,-35,-3,-23,61,14
83,22,42,3,21,59,50,-6,42,28
11,-15,49,7,41,130,69,17,-3,20
-15,-30,40,-23,17,107,72,64,-48,5
1,12,13,-60,-26,17,60,90,-51,-1
-21,25,-1,-55,-29,28,38,73,-22,-36
-34,21,-9,-38,-2,47,27,25,18,-40
-1,40,-13,-5,-1,71,25,5,24,-8
-1,-20,-21,17,-2,79,43,3,39,21
-6,-92,-26,23,20,62,48,34,71,46
-16,36,40,52,41,23,32,47,49,45
8,99,89,44,13,17,35,19,38,26
87,11,71,26,35,89,29,-19,37,31
54,-30,28,25,106,112,8,-50,20,19
-20,-31,0,39,153,98,-37,-88,-40,6
-29,14,-2,32,47,15,-86,-128,-73,52
9,34,56,11,-58,-124,-139,-145,-89,43
9,32,97,-7,-25,-177,-129,-113,-62,-8
-7,29,56,24,-4,-151,-75,-54,-32,-26
-109,-73,66,14,-45,33,127,18,121,-89
-79,-21,-3,-63,-58,-7,55,21,68,-96
0,21,-39,-62,-18,11,53,38,37,-24
23,25,-39,-40,39,17,51,26,16,25
-5,0,-41,-47,35,8,57,28,33,16
-17,-8,-18,-69,-17,24,64,21,29,-9
-17,-18,11,-65,-39,51,70,16,36,-2
0,-20,27,-1,-23,44,65,28,50,-5
-10,-10,-39,29,3,21,56,33,44,-3
-29,0,-34,7,12,26,56,22,62,14
-6,0,-15,22,25,34,56,25,64,36
3,-7,-11,49,26,51,64,25,34,25
8,0,-16,14,-7,13,50,24,17,-9
0,17,-6,-25,-38,-26,41,33,8,-16
14,26,-15,1,-54,-13,22,21,8,-7
65,29,-34,-6,-47,-20,3,2,24,5
76,37,-72,-26,-53,-47,-41,16,16,8
28,26,-89,-33,-60,-50,-48,34,10,12
-8,33,-23,-42,-41,-37,-31,21,6,-1
-9,95,29,-32,-9,-19,-25,-8,-9,-23
0,34,-21,-35,-5,-10,-13,-12,8,-36
9,-174,-89,-18,34,33,13,35,63,15
-47,-56,37,58,91,65,23,37,57,13
-69,147,146,85,66,17,-28,-48,-27,-63
45,45,71,62,47,-4,-33,-61,-39,-36
109,-121,-19,22,62,15,14,-5,12,41
64,-115,-19,3,62,37,51,39,57,57
14,7,33,7,61,44,23,5,13,7
0,61,59,31,58,39,3,-16,-18,2
-14,18,46,40,60,25,-5,-1,0,49
-22,-11,42,20,62,24,-10,11,15,45
-26,-3,-57,2,50,-1,-7,5,13,0
-33,7,-60,37,42,-15,-10,-8,-8,-13
1,7,-35,46,50,-27,-25,-11,-17,-26
31,57,-29,29,64,-18,-21,-16,0,-10
44,77,-44,18,31,-30,-2,-9,17,-2
44,-24,-92,2,-1,-45,23,36,58,19
13,-109,-61,39,37,14,25,82,95,46
-45,-30,1,82,46,11,-59,24,43,-1
-80,18,16,50,4,-24,-221,-56,-32,-74
-32,-7,3,14,8,-14,-206,-51,-52,-50
17,-13,6,34,32,-8,-72,-34,-27,9
12,4,12,45,39,-5,52,-26,-1,20
-31,-7,47,68,30,10,162,3,-5,-14
-40,-8,82,130,31,27,175,12,-3,-24
-29,-11,81,96,45,26,93,8,-22,-13
-5,-8,59,64,38,2,21,14,-24,-5
7,0,15,36,31,-12,3,19,-7,-13
-2,0,-6,27,30,-9,47,22,-3,6
20,31,-7,30,5,-6,31,22,8,28
66,39,-23,-9,2,-16,-38,-10,9,39
60,-5,-42,-49,16,-2,-42,-15,-20,30
31,-15,-38,-28,-1,8,-24,-6,-49,10
-5,-2,-41,0,-28,10,-13,-8,-32,15
-5,0,-40,9,-47,2,-29,-16,0,51
33,7,-12,3,-23,15,-41,0,22,46
16,22,2,2,-23,-6,-75,4,10,-1
0,16,2,10,-57,-16,-80,-2,-7,-20
4,21,30,27,-34,-15,-44,-3,-21,-21
1,7,63,36,0,-46,-44,1,-25,-18
-25,-21,85,31,-20,-52,-67,-22,-40,-39
-75,-33,76,13,-53,-34,-80,-47,-72,-52
-83,-42,45,18,-24,-16,-72,-55,-82,-30
-36,-22,44,26,7,-27,-89,-60,-85,-13
56,1,25,-1,-31,-14,-69,-19,-70,-3
90,9,-10,-31,-73,-11,-27,41,-27,3
44,31,-41,-38,-90,-23,-22,64,-3,5
-5,-3,-57,-37,-85,4,-37,39,-8,-20
-7,-19,-14,-15,-87,50,-21,19,-9,-1
0,-8,32,-7,-73,72,-6,-3,-6,6
-22,-6,31,-26,-55,82,10,-1,-3,-47
-14,0,14,-40,-30,58,-30,-7,-11,-27
36,3,13,-28,-15,10,-59,-10,6,-6
13,-15,21,-27,-25,-25,-61,-12,16,0
-13,-33,28,-21,-18,-37,-36,-7,33,43
-19,-10,30,22,11,11,0,-20,32,37
-26,42,83,56,12,-11,1,-49,8,-16
-44,39,78,13,-43,-61,-58,-61,-25,-50
13,64,32,-15,-252,-53,-66,-43,-29,7
74,172,-9,-14,-249,-18,-7,-4,-11,66
107,75,-46,-31,150,32,63,46,-4,100
9,-131,32,11,127,139,91,66,-39,34
-121,-137,123,3,44,161,45,33,-97,-66
-73,-44,43,-77,-105,97,10,13,-91,-62
4,3,-47,-134,-73,24,12,12,-54,-24
4,1,-65,-116,-155,-9,-10,-13,-24,5
-3,-6,-42,-64,-110,-76,-73,-39,-11,4
3,8,-35,-32,-138,-184,-124,-45,-1,-7
1,23,-8,-49,-141,-144,-71,-2,14,21
9,6,-5,-57,-127,-47,25,45,29,13
47,9,2,-55,-81,12,111,60,41,15
47,0,8,-36,-21,68,124,35,29,24
0,-19,-6,-2,-6,87,134,15,19,9
-38,-32,-16,11,16,98,89,-28,-1,-11
-43,-31,-29,18,14,36,24,-66,-21,-13
-53,-36,-37,-6,39,11,0,-63,-18,-50
-36,-21,-50,-76,3,-2,4,6,25,-19
-9,30,-67,-110,18,-68,-26,28,44,-7
32,60,-53,-59,-19,-89,-22,27,35,0
65,3,-84,-26,-3,-56,29,43,33,19
12,-98,-128,-23,3,-22,71,61,58,40
-50,-20,-67,-25,-11,-15,34,47,35,12
-62,73,31,-29,-30,-1,23,17,-23,-16
-14,124,32,-15,1,25,38,-9,-47,-44
48,151,-9,-27,29,-3,60,-16,-7,-10
70,-108,-107,-52,19,0,41,7,75,85
59,-289,-138,-23,53,49,74,68,149,121
-1,16,30,7,61,25,20,28,92,13
0,22,3,-10,54,32,4,21,38,-20
17,93,59,47,106,79,71,35,22,-11
-136,108,250,75,58,-25,2,-47,-109,-143
-183,-139,146,39,31,-124,-63,-108,-174,-169
-92,-128,-60,-30,8,-104,-31,-67,-85,-69
10,-15,-133,-157,12,-34,23,-11,8,28
68,51,-87,-154,42,24,59,-14,40,63
63,63,-46,-99,6,70,81,-20,23,38
39,43,-62,-39,-15,51,61,-8,12,40
29,26,-77,23,23,4,29,-10,-4,46
46,33,-47,104,126,-30,12,-11,-6,31
17,25,-51,45,106,-69,21,-19,-12,12
-3,0,-113,-83,-23,-103,24,0,-6,-8
-25,-5,-114,-117,-74,-93,23,16,9,-15
-59,-12,-39,-90,-56,-64,53,19,15,-28
-35,-16,-5,-48,-32,-30,94,32,19,22
31,17,22,22,35,19,79,34,41,43
142,97,24,83,52,5,37,18,68,66
149,62,-35,76,70,-4,76,42,102,103
-59,-135,-56,18,63,41,149,68,89,51
-238,-192,28,-80,27,39,101,-16,-18,-87
-127,-99,29,-97,-17,-9,-15,-59,-58,-97
65,35,-11,-15,-12,-57,-58,-27,0,-12
89,109,4,17,-13,-24,-92,-5,29,8
66,55,-22,-3,-7,52,-107,51,72,31
21,-45,-76,-37,-26,74,-75,77,111,41
14,-52,-56,0,-50,-3,-42,49,92,47
7,86,121,45,-24,-39,-32,2,54,34
-3,124,145,30,-6,-26,-67,-56,-19,-9
0,-10,21,16,57,-40,-105,-60,-41,-10
9,-47,-1,50,88,-44,-87,-48,-44,0
-3,1,45,54,90,6,5,-41,-63,-11
-31,67,85,40,107,6,105,-16,-64,-22
-49,29,55,26,59,-21,132,12,-56,-34
-11,-12,22,16,-14,61,133,48,-28,-2
-7,-22,25,0,29,133,96,27,-18,-8
-36,-58,-16,41,78,173,92,24,23,1
5,-49,-7,122,74,174,96,41,39,20
45,-14,15,106,53,90,61,21,35,9
36,33,14,64,1,-15,-4,6,29,-16
14,70,63,47,-63,-132,-75,-29,-3,-19
4,48,61,62,-65,-199,-113,-53,0,2
-28,23,-69,100,-8,-152,-53,-30,4,4
-55,-19,-370,104,28,-95,59,-6,10,2
-8,-11,-184,85,55,14,83,4,37,9
28,15,62,65,61,65,46,30,68,0
36,14,106,48,47,113,-20,58,69,-16
7,-3,109,61,56,133,-16,27,13,-15
-9,-7,129,82,52,104,17,-12,-41,-13
15,60,120,94,19,86,-39,-54,-59,-2
47,192,65,53,16,63,-104,-87,-47,27
102,44,13,43,54,-40,-106,-40,-2,65
24,-211,135,144,73,-35,-40,19,28,53
-116,-108,293,157,46,-49,-59,-57,-69,-56
-137,-7,195,53,-56,-105,-81,-128,-143,-131
-87,-50,21,24,-19,-6,2,-27,-52,-94
-6,-50,-54,-9,-1,25,70,67,41,-6
54,-56,-63,-24,-9,8,71,91,80,45
17,-37,-46,11,-55,-2,35,88,77,56
24,86,11,17,-132,-58,-48,30,30,14
62,87,23,-22,-136,-73,-89,-31,3,2
56,60,11,-25,-96,-26,-56,-15,-15,19
41,80,16,-12,-32,38,0,17,-31,-33
21,-48,-41,-37,-23,64,60,53,1,-31
-11,-210,-60,-5,15,100,86,87,57,22
-69,-12,60,49,33,103,25,37,49,7
-80,77,34,44,-22,48,-34,-29,-11,-1
-21,8,-6,44,-61,44,-27,-52,-56,-4
6,-30,1,35,-6,-6,-13,-40,-62,-6
-26,-44,-20,13,-51,-60,23,7,-14,4
-52,-44,-18,39,-70,-29,74,27,26,-2
-3,-18,-2,31,-7,41,91,21,65,3
107,55,12,7,10,40,30,6,102,52
118,100,-12,7,-54,45,0,-1,99,65
28,53,-34,-5,-24,54,19,25,45,37
-16,16,-13,-27,-9,106,28,54,-22,3
36,6,-8,-5,41,133,42,58,-27,12
58,-13,-21,17,45,50,52,22,-23,25
-32,-39,2,-24,-2,-42,0,-40,-62,-39
-131,-39,-11,-109,-44,-110,-5,-76,-113,-121
-64,28,-9,-81,-43,-156,26,-76,-97,-95
115,70,45,-9,-20,-161,17,-76,-54,8
211,78,60,25,-26,-124,-45,-83,-45,86
84,12,8,31,47,-6,15,-26,-39,55
-102,-16,-107,18,124,144,146,71,-33,-58
-157,-56,-124,11,102,145,147,64,-35,-80
-53,-117,-56,0,48,68,79,12,-8,-10
-1,-67,20,-26,-19,-17,-31,-33,27,54
-59,116,119,-75,-95,-94,-94,-70,20,40
-74,72,47,-96,-92,-104,-69,-45,2,-1
-58,-32,-49,-78,-78,-138,-38,-25,10,-11
-8,-28,-49,-44,-43,-96,-1,14,35,9
63,2,-67,-19,14,28,16,55,44,3
175,26,-47,-15,22,94,0,40,22,25
88,4,-24,-20,42,84,-15,-13,-29,-206
-53,-26,-40,40,68,95,4,-46,-49,-382
-91,-19,-30,76,21,49,-50,-26,-17,-109
-90,-13,35,119,1,-24,-50,-8,-6,38
-32,-2,27,89,6,-59,-44,-24,-16,69
10,11,42,-2,29,-65,-40,-15,-16,76
22,14,43,7,37,-33,-19,24,16,88
5,-20,11,7,42,-13,18,35,26,86
15,-33,18,-23,-28,-186,15,8,13,88
31,-14,20,-5,-10,-125,4,-5,17,104
60,59,23,16,45,31,30,24,16,73
73,98,41,5,-5,62,50,53,4,6
30,-29,-11,-43,-50,183,14,45,2,0
-99,-177,-65,7,-6,106,5,66,13,2
-157,-129,-76,74,102,23,-15,74,-32,-57
-82,0,-23,52,66,98,-97,11,-49,-52
38,43,6,-32,-65,47,-129,-33,-13,19
106,84,27,-46,-27,-119,-125,-76,25,86
62,87,53,11,21,-248,-171,-109,33,59
41,34,10,59,11,-256,-121,-62,3,20
-19,-11,-7,68,-29,-55,-24,-10,-7,-14
-53,5,28,45,-96,212,-6,-10,-31,-23
-99,-17,38,75,15,214,-11,-15,-54,-37
-96,-50,5,83,97,56,-38,-21,-45,-4
71,-10,23,58,97,-93,-99,-51,-51,50
199,36,38,53,91,-87,-63,-57,-87,29
105,-11,-24,43,106,91,64,3,-53,-12
30,-61,-89,5,83,224,163,104,6,0
104,-22,-110,-19,28,155,180,136,101,122
-34,229,95,1,-16,-5,43,38,33,65
-215,56,208,-53,-81,-96,-163,-82,-122,-95
-180,-144,66,-125,-114,-76,-211,-61,-122,-101
-88,-92,-82,-120,-109,-70,-138,-2,-41,-39
-12,-53,-137,-71,-89,-147,-97,-10,-12,-34
39,-31,-125,-56,-70,-166,-56,-13,-6,-17
0,-43,-118,-15,-3,-70,-10,34,31,5
8,4,-78,21,60,35,32,35,28,16
91,106,-8,42,73,92,80,22,26,-5
130,73,44,-20,-42,73,79,30,47,11
128,-60,-46,-57,-203,-26,106,81,108,112
48,-133,-34,-19,-329,-102,127,94,118,129
-164,15,131,-15,-166,-195,-25,-91,-52,-81
-197,5,123,-75,-55,-108,-81,-184,-134,-159
-106,-50,18,-38,100,108,27,-95,-60,-97
-37,7,-95,11,248,155,91,10,10,-11
93,40,-144,16,142,4,99,92,71,78
226,-20,-121,12,101,-67,17,114,102,151
124,105,29,29,32,-118,-148,-25,12,95
-101,-43,59,-12,-70,-165,-173,-116,-98,-61
-180,-192,-71,-54,-116,-137,-19,-4,-63,-96
-75,28,-112,-61,14,-151,73,100,5,-29
165,417,-141,-80,57,-109,0,44,8,40
381,357,-149,-121,51,43,-60,3,30,108
154,-176,-44,-17,56,200,21,52,66,77
-326,-378,325,147,81,214,43,-3,-8,-67
-425,-315,351,35,-30,77,-29,-122,-127,-188
-227,-111,46,-128,-107,-5,14,-94,-117,-155
-31,-22,-152,-204,-125,37,93,3,-1,-40
72,-3,-91,-152,-39,64,86,42,73,43
123,27,32,-58,7,9,57,29,85,60
131,56,54,-38,-46,20,69,40,83,74
119,84,-30,1,-17,54,89,66,76,32
71,77,-217,24,8,0,22,35,42,-6
5,19,-182,-66,-18,-74,-59,41,27,-42
-33,-9,-65,-99,-85,-122,-101,66,35,-146
-13,4,4,-11,-99,-78,-34,57,28,-125
13,19,38,21,-16,5,96,37,31,9
50,63,0,47,62,71,135,14,32,66
48,44,5,136,163,149,168,-8,-15,64
28,11,52,167,140,153,78,-7,-20,16
-1,3,116,121,61,237,2,-44,-24,-9
-20,9,64,42,66,188,-114,-112,-66,-34
4,30,-16,-43,52,-12,-149,-144,-71,1
45,45,-23,-81,-7,-364,-62,-62,9,90
11,18,29,-94,-109,-467,-73,-10,42,107
13,0,94,-48,-91,-170,-39,15,47,127
7,-36,124,-10,-82,108,47,26,42,68
-89,-102,63,12,-60,191,86,4,-15,-24
-112,-54,-12,-22,-28,82,28,-70,-80,-48
9,60,-71,-11,41,3,-44,-114,-81,-24
89,74,-44,10,35,-163,-83,-37,-29,-30
32,19,-4,0,-80,-286,-122,11,7,-17
-64,-12,-3,28,-72,-252,-127,15,9,-5
5,-30,-15,30,-14,-61,-35,30,10,3
85,-4,-12,18,-9,116,29,32,34,-12
15,66,-5,-1,-2,147,14,0,46,-25
-83,-30,-26,12,-15,140,50,18,51,28
-87,-88,6,51,43,208,128,87,51,48
-36,-31,42,44,81,208,144,129,73,60
-13,15,68,72,142,252,122,115,69,13
-2,26,95,108,190,181,81,50,50,-37
-34,-75,52,133,114,29,20,-19,56,-23
-73,-109,-26,107,31,-54,-14,-54,43,-106
-34,103,46,44,-77,-187,-63,-51,14,-223
75,106,47,26,-121,-293,-158,-40,6,-11
163,61,36,10,-135,-297,-168,-2,3,128
60,57,40,12,-76,-167,-119,17,0,100
-38,36,-17,36,-8,32,-20,43,-24,5
-43,-14,-79,37,25,171,84,89,-26,-30
-96,-66,-97,56,56,225,109,103,-7,-24
-47,-8,-55,81,59,121,91,59,-4,23
157,298,-21,42,-6,-78,13,-19,-38,76
331,533,-68,-36,-27,-121,-47,-81,-56,148
306,-185,-180,-28,87,-10,34,23,36,147
-95,-714,-54,95,225,170,137,119,105,58
-344,-50,328,105,86,82,-57,-101,-92,-113
-270,90,237,-72,-178,-168,-215,-223,-198,-189
-65,-92,17,-93,-166,-145,-94,-85,-79,-65
-5,-65,-21,-28,-33,29,4,-19,-30,-34
36,28,-1,19,2,48,-11,-38,-50,-38
-43,-7,-43,30,-44,3,39,16,-14,-20
-112,-57,-21,23,-35,18,122,68,21,-124
-22,-25,41,53,50,97,103,39,-6,-269
88,21,31,-14,4,73,61,-3,-21,-43
120,35,-27,-83,-96,45,27,-13,-24,114
55,39,-30,-49,-16,45,-31,-33,-31,124
28,20,-52,-8,-24,-42,-46,-40,-14,3
18,-2,-120,7,-3,-60,73,-8,-22,-64
45,14,-71,-4,-11,-133,85,0,-28,32
53,22,-32,-9,-100,-324,-4,-3,-8,101
14,8,17,42,-98,-366,-67,-15,4,75
-65,-32,49,128,-23,-115,-21,-28,-9,32
-89,-54,69,171,51,135,116,4,-15,28
-74,-44,18,122,95,246,208,41,-23,12
-31,-9,25,52,106,324,271,69,-9,-9
-27,-25,48,39,107,363,318,100,25,-75
-23,-6,72,57,121,213,158,38,11,-6
19,13,51,61,31,17,-21,-39,-25,52
99,39,30,61,-31,-150,-141,-65,-40,52
129,18,-30,42,-87,-268,-157,-41,-27,78
43,-6,-105,25,-123,-279,-98,60,9,89
6,7,-122,2,-95,-151,-22,137,37,-20
113,-47,-155,-23,-25,58,141,174,85,-34
77,81,-39,26,68,171,247,110,56,1
-179,128,210,57,53,78,152,-107,-125,-139
-237,-101,179,7,-19,-30,-5,-247,-211,-154
-63,-90,27,-48,-55,-118,-95,-214,-146,-16
73,-38,-68,-56,-56,-109,-101,-97,-49,93
98,-11,-86,0,21,-25,3,20,23,81
-3,30,-51,26,55,8,142,101,70,8
-25,96,-21,14,10,72,149,109,109,25
25,98,-33,-32,21,133,140,68,116,75
48,-35,32,-23,22,78,97,-27,52,115
-21,-30,223,44,24,-17,-7,-96,-63,52
-73,2,152,-14,29,-82,-49,-96,-113,-18
-125,-40,-57,-46,35,-125,-47,-49,-68,-27
42,25,-136,-64,-88,-76,27,-11,-39,-26
139,11,-237,-148,-94,68,137,31,-23,2
46,-52,-222,-160,-23,174,169,63,-23,-17
-8,-4,-108,-111,0,107,152,54,3,-5
-29,12,-59,-77,2,49,96,48,19,0
-37,13,-24,-54,-6,42,101,51,11,-52
0,36,15,-9,11,37,79,8,-2,-15
67,23,85,2,-18,-73,51,2,41,83
-4,-50,121,16,-74,-181,34,21,74,85
-116,-35,82,-43,-73,-111,-67,-113,-62,-22
-23,-7,5,-100,-43,66,-34,-148,-116,-166
8,-28,-30,-45,-30,226,162,33,-11,-205
-12,-45,17,30,-11,255,209,110,42,-86
12,-42,39,61,86,303,162,46,11,-10
-70,-57,59,35,109,299,111,-9,-31,-4
-8,45,76,-27,-42,-149,7,-27,-1,57
92,140,28,-85,-266,-819,-317,-69,43,124
122,142,-18,-91,-331,-833,-515,-132,33,131
60,79,-76,-34,-134,-301,-330,-143,-41,50
-15,-2,-92,19,49,44,-80,-79,-56,6
7,-53,-119,-18,33,12,30,36,17,40
13,-57,-102,-81,-100,-2,62,83,53,17
-6,-34,-52,-69,-201,110,129,46,24,2
-8,1,30,-7,-42,154,166,11,-1,-9
-14,-6,60,46,31,116,144,0,-30,-2
-61,-38,25,98,83,117,115,6,-29,23
-72,-44,22,91,85,188,129,40,2,12
0,8,20,86,29,200,131,72,12,-28
74,31,38,83,-21,86,62,67,10,-24
72,28,65,134,34,134,44,29,-15,-26
16,-3,40,149,65,240,105,30,-34,-58
-105,-63,-29,78,45,191,142,70,10,-58
-108,-52,-59,35,-10,-96,81,57,41,21
-6,27,-50,51,-120,-444,-84,15,45,85
112,83,0,96,-139,-414,-195,-24,33,115
91,68,14,74,24,-5,-163,-62,-10,28
16,43,19,-8,72,116,-86,-67,-50,-72
-27,-1,23,-19,-21,5,-32,-14,-19,-54
45,-11,-17,-41,-72,-69,-31,23,42,37
73,18,-10,-24,-65,-147,-24,-1,38,81
-67,11,12,60,-40,-110,-7,-16,9,38
-37,37,39,132,-4,-21,36,-15,-3,0
209,85,67,160,48,65,40,-48,-37,-16
266,-53,-20,70,35,225,77,-19,-18,-14
-78,-105,13,31,88,231,146,47,26,-107
-344,84,168,27,-17,24,41,-52,-100,-219
-305,-62,65,-17,-135,55,85,-65,-134,-176
-159,-171,-67,8,6,164,153,10,-60,-55
59,-52,-71,-114,145,1,24,3,-43,46
83,23,-45,-127,20,-212,-46,-4,-5,58
15,5,1,-28,-10,-340,-39,35,31,41
11,20,43,4,-103,-446,-30,54,50,47
-22,7,-12,58,-131,-247,-51,27,40,32
-41,-36,-77,58,-64,212,84,52,43,-17
28,-17,-63,85,124,466,224,103,73,3
54,11,-18,113,168,298,229,94,92,57
6,34,13,141,151,98,129,18,49,44
11,84,86,109,89,-9,-30,-74,-9,34
7,0,108,65,2,-125,-163,-97,14,73
-98,-111,44,125,74,-7,-118,-17,53,32
-16,-34,25,179,149,115,42,3,36,-49
72,59,33,100,21,-52,98,5,23,-53
96,132,18,161,-80,-184,36,1,7,35
65,49,-30,337,-25,23,33,68,11,68
43,-126,-129,392,19,172,103,162,54,51
-28,-30,-83,374,-10,111,64,85,54,34
-16,158,98,341,-17,-36,-45,-77,3,11
52,134,107,210,-12,-147,-104,-130,-9,36
55,23,11,26,50,-38,6,-67,15,45
46,31,-41,-173,54,98,126,24,64,68
82,136,-112,-216,91,394,305,104,125,45
136,149,-158,-188,242,556,314,108,152,43
107,-128,-93,-113,233,127,7,33,76,53
-123,-99,241,114,-45,-255,-250,-96,-80,-63
-309,-80,372,158,-196,-207,-352,-248,-298,-288
-187,-118,184,-89,-200,-198,-183,-173,-283,-302
-64,-86,69,-58,-157,-202,-28,-36,-134,-105
12,-64,-14,-20,27,104,12,13,-12,23
1,-52,-66,-73,233,377,-54,-41,7,17
-47,-55,-53,-35,25,144,-107,-41,3,-29
-58,-27,-22,-199,-289,-211,-47,95,68,-48
47,39,0,-343,-336,-647,-38,186,172,63
148,84,27,-275,-191,-396,-83,36,113,127
109,32,31,-65,3,240,-105,-157,-52,29
136,92,37,-45,-64,194,-244,-182,-52,-1
120,143,31,-139,-305,-149,-331,-88,19,3
-1,50,12,-97,-239,-83,-126,66,58,-32
-43,0,-19,21,-7,222,110,120,79,-9
-25,-43,-44,148,275,472,102,53,51,30
16,-51,3,217,337,561,47,22,35,51
-34,-38,40,235,228,395,80,98,74,1
-30,23,55,165,-115,-121,-28,105,102,-6
18,13,62,47,-220,-219,-93,39,53,-16
4,2,30,-171,-183,-146,-147,-80,-27,18
-23,26,-12,-304,-160,-269,-250,-131,-24,72
-75,19,-16,-277,-49,-270,-276,-118,0,42
-52,0,-45,-66,39,91,-74,23,45,-10
-39,-47,-107,354,210,310,23,22,17,-85
-43,-77,-52,620,319,392,13,-25,-36,-85
8,-34,-17,152,186,566,191,87,20,-6
52,-15,-52,-295,-163,139,187,184,103,25
28,-32,-104,-461,-251,-216,70,144,96,13
7,1,-71,-264,17,19,-5,5,11,-31
42,49,13,165,303,-10,-179,-139,-72,-42
44,46,46,292,191,-388,-287,-137,-61,5
19,21,29,113,-121,-248,-157,-20,11,29
-35,-44,-13,-37,-208,26,27,94,54,0
-55,-68,-25,56,-38,93,87,137,66,1
13,-25,21,161,110,-28,-8,101,67,48
63,-42,39,204,127,-1,-100,-18,16,37
80,38,51,235,86,43,-136,-93,-40,3
64,112,141,271,10,-405,-285,-152,-92,-16
-79,-9,100,191,41,-370,-269,-164,-138,-77
-113,-52,14,112,87,-29,-156,-114,-117,-59
20,36,6,263,67,-67,-107,-34,-16,48
78,64,-9,334,108,-111,-10,92,94,162
45,3,-52,236,58,218,176,145,101,102
-54,-48,-67,35,-30,545,166,47,-15,-54
-33,-1,-36,-160,-130,404,86,-21,-78,-75
18,-31,-63,-429,-228,111,27,-13,-92,-55
42,-17,-99,-816,-227,-53,62,99,-27,-21
-4,45,-51,-650,-182,-10,95,125,23,24
-36,-7,-44,-219,-2,-30,-35,27,42,77
-55,-14,41,388,189,-112,-311,-166,-26,33
-43,15,109,592,24,-302,-432,-251,-80,-72
39,52,106,111,-225,-323,-339,-120,-18,-20
-54,14,67,-321,-197,26,-134,72,27,-5
-195,-111,-50,-332,135,758,313,215,32,-49
-80,-153,-108,-162,239,918,445,196,45,6
98,-92,-84,-31,331,577,352,134,11,-41
29,119,-76,-179,-57,-147,210,180,83,-12
-15,421,-208,-456,-302,-449,-129,92,139,118
313,73,-327,-501,-163,-255,-384,-153,85,229
129,-677,-34,12,144,-179,-267,-147,34,105
-295,-33,553,468,109,-931,-704,-201,-44,-102
-151,314,392,499,-294,-1208,-950,-245,-74,-125
27,104,-10,26,-219,-198,-372,-61,-1,-27
111,-41,-159,-577,-176,422,85,82,18,0
119,-26,-61,-48,-394,208,114,63,-37,-63
55,-9,11,420,34,173,230,92,-9,-59
6,34,45,10,649,740,314,65,17,-19
64,81,63,-422,573,591,19,-24,17,24
102,-35,-36,-330,215,-82,-259,25,95,110
28,-49,0,141,-248,-656,-305,65,71,107
-151,-42,66,318,-653,-726,-313,-65,-140,-74
-108,-86,-18,27,-270,-9,-150,-112,-177,-81
16,-35,-26,-67,265,728,20,-71,-78,28
52,49,30,-54,479,507,-148,-167,-80,19
37,158,95,-23,-9,-636,-651,-261,-68,7
-68,64,-6,-49,-126,-847,-667,-164,-55,-32
-104,-87,-155,10,180,-146,-180,79,-4,-50
-126,-157,-180,155,217,424,171,245,62,-41
-101,-120,-132,231,96,650,306,253,74,-31
0,9,-42,52,141,630,239,145,59,-8
30,56,61,77,135,375,59,9,47,-17
74,78,102,129,96,54,-157,-38,81,17
71,118,103,182,-162,-115,-222,-22,51,45
15,51,18,-194,-884,-396,-165,26,41,63
-57,-91,-49,-492,-621,54,27,31,-40,-26
-87,-170,-76,-472,122,1390,481,168,-98,-138
-103,-160,-52,-18,507,1265,456,183,-33,-137
-83,-39,9,191,731,-216,-118,-67,6,-57
173,129,90,-296,158,-1465,-668,-259,62,160
294,183,65,-383,-348,-2073,-1091,-296,112,268
116,69,-81,5,-357,-1255,-766,-113,78,130
-115,-64,-76,201,20,219,86,101,-12,-93
-222,-106,13,308,233,871,442,152,-67,-184
-131,-105,-9,104,382,850,381,6,-104,-123
121,80,0,-225,465,264,63,-157,-116,-26
315,208,-80,-530,115,-503,-327,-136,9,132
96,56,-156,-263,-232,-572,-340,-20,117,140
-47,22,-14,267,-253,-296,-141,60,146,61
13,66,152,430,-266,-254,109,116,121,25
117,132,203,-112,-209,98,250,113,71,56
0,19,90,-714,-201,385,199,48,-27,-27
-236,-136,-34,-461,24,613,193,43,-51,-112
-294,-171,-32,478,342,777,131,-78,-134,-176
-121,-58,-37,378,31,94,-1,-95,-64,-21
117,80,24,-484,-21,-350,-52,6,110,174
139,37,47,-343,130,-256,7,18,93,106
16,-62,-16,87,249,407,156,36,-29,-82
-157,-144,-87,3,415,937,366,74,-92,-174
-117,-111,-97,-71,350,670,485,156,-1,-57
85,29,-39,77,68,84,320,181,141,83
112,102,20,169,-364,-550,-22,97,163,108
-77,14,-34,-44,-786,-566,-248,-5,80,19
-361,-164,-133,-97,-636,-138,-270,-86,-64,-156
-206,-71,-16,189,-377,-162,-240,-107,-96,-140
265,194,144,299,174,-594,-438,-210,-57,-20
416,209,-46,-243,496,-286,-351,-135,49,132
273,114,-119,-504,305,-12,-105,29,175,250
189,54,2,221,163,83,53,129,240,253
69,46,155,805,224,-54,101,191,224,165
-78,28,211,212,-22,-202,115,81,46,11
-200,-102,50,-534,-153,-317,40,-76,-151,-179
-242,-76,-18,-596,-89,-296,-39,-174,-238,-259
-176,-38,-68,-269,85,344,-83,-197,-232,-219
32,-10,36,281,411,1116,124,-56,-103,-88
78,-34,-4,435,565,770,360,191,103,59
120,7,-86,293,784,467,383,238,185,156
77,73,-54,276,328,579,251,85,41,60
98,174,42,115,-520,-361,-85,-56,-74,-47
130,136,70,-596,-987,-1184,-264,-27,-17,5
-89,-107,-1,-407,-488,-545,-115,19,-2,-40
-198,-202,-103,-114,-60,-165,-222,-120,-94,-87
-53,7,-12,133,240,-295,-287,-158,-47,17
80,122,70,-171,86,-206,-6,47,80,68
60,54,52,-107,-90,280,176,140,103,34
-13,13,71,70,-186,420,-29,-72,-11,-32
-68,-4,88,-103,-101,-229,-343,-237,-95,-71
-35,-20,86,-82,23,-1052,-541,-217,-69,-2
6,-61,-69,-232,-13,-606,-171,-14,-8,68
-14,-55,-112,-221,-194,363,367,144,21,27
-47,-100,-31,282,99,829,480,126,18,-12
-81,-183,-25,805,683,1072,416,74,14,4
-48,60,63,528,451,392,303,126,45,59
39,98,43,-89,-8,119,292,215,128,138
92,-37,-94,-567,14,773,515,339,190,126
-6,-141,-135,-317,151,1292,734,412,191,49
-3,-52,-34,677,200,577,540,341,210,91
-10,109,306,1363,-39,-527,-180,-293,-218,-151
63,161,373,684,-586,-1860,-1130,-850,-524,-305
65,147,70,-1188,-550,-2280,-1473,-691,-331,-121
-144,-12,-254,-1820,-215,-951,-863,-193,-104,-52
-67,-19,-334,-783,-87,555,24,146,4,-46
78,37,-273,89,-24,1195,817,491,176,54
119,-255,-141,379,38,1029,1071,559,289,164
-140,-233,200,685,556,1359,786,233,100,23
-223,-4,244,281,757,925,252,-82,-119,-96
-23,71,63,-280,279,-1063,-635,-380,-194,-78
29,44,-5,-38,-261,-2289,-1263,-477,-184,-77
-108,-144,-147,235,-492,-1701,-843,-351,-157,-105
109,0,-53,6,-185,-206,-106,-80,11,63
345,221,94,-41,1,404,333,166,183,217
275,254,129,270,126,162,306,176,165,214
177,132,95,391,-21,-26,158,76,46,101
60,-57,-96,-208,241,460,276,29,-78,-71
-78,-15,-64,-178,465,778,305,26,-95,-109
-200,-8,11,151,285,513,-1,-132,-209,-203
-188,-175,-56,92,-105,-185,-284,-195,-231,-188
-127,-159,-11,-249,-206,-382,51,93,-2,-15
-48,-33,-32,-250,57,220,414,276,136,65
-12,-2,-83,179,217,803,389,85,40,0
-9,15,19,513,-31,34,-94,-211,-94,-77
163,137,80,-261,-393,-1690,-910,-277,11,114
146,88,85,-856,-336,-1444,-851,-173,18,145
-64,-54,10,-569,9,136,115,83,-44,18
-153,-88,-54,-343,201,967,764,226,-27,-25
-141,-122,-149,-155,128,984,740,127,-46,-91
-180,-178,-165,574,16,501,352,-15,-59,-95
-84,-78,-20,694,-142,241,7,0,39,69
108,96,189,69,-229,238,-109,14,39,121
308,250,318,32,-229,95,16,-119,-147,-49
190,202,172,249,-25,-373,-4,-154,-160,-51
-151,-23,-68,75,99,-855,-256,-56,-42,-6
-144,-46,-129,-33,-20,-748,-275,50,45,43
70,117,-165,-53,-115,-41,3,101,79,96
203,166,-110,-263,-44,390,53,7,24,70
84,-109,73,-125,-82,366,152,-35,-27,1
-206,-176,137,-121,-180,-85,141,-21,-54,-68
-254,-304,-51,-380,-18,-234,111,76,68,17
15,-190,-109,-334,268,334,275,81,65,49
81,60,-46,96,305,827,431,16,-133,-141
-79,74,-44,697,250,916,585,182,-69,-153
74,20,-152,-89,56,514,574,327,119,48
228,73,-158,-165,-134,-165,345,234,177,165
5,249,103,612,-161,-979,-265,-103,22,44
-117,-17,111,19,-424,-1493,-900,-355,-118,-103
-10,-99,-30,-507,-369,-850,-795,-324,-109,-77
13,-59,-133,-577,-164,-277,-393,-172,-70,-33
20,61,-7,-320,-95,187,35,4,-63,0
-1,85,28,130,-19,529,213,25,-111,-45
-144,-101,-71,220,201,596,275,64,-90,-72
-166,-182,-102,-23,462,561,321,89,-38,-69
47,-1,25,-205,231,24,100,10,5,7
198,165,150,-102,-91,-391,-138,-11,43,119
102,128,164,307,-95,53,177,70,3,66
0,-103,-73,311,288,1051,636,175,7,0
-87,-287,-363,-489,305,1269,598,214,98,25
-24,169,-176,-567,-164,452,179,145,133,66
221,804,202,223,-274,-1289,-465,-26,66,95
265,-42,147,516,-52,-1783,-766,-116,66,138
-73,-562,233,210,15,-993,-572,-90,94,105
-406,5,431,-171,-269,-469,-500,-292,-153,-200
-250,-115,19,-438,-48,-159,-398,-332,-228,-259
10,-104,-234,-281,-4,136,-266,-116,-48,-44
122,15,-140,-97,-43,297,-11,116,92,94
38,7,-72,73,37,442,216,164,73,31
-48,-29,-27,223,254,562,298,117,17,-29
-65,-73,3,205,464,864,471,167,-24,-81
-35,-75,23,203,527,1195,722,242,-28,-94
4,-13,48,144,335,846,730,256,59,18
-62,-17,208,63,325,551,205,-2,24,20
-104,-12,193,-17,7,-228,-452,-198,16,36
78,134,38,-551,-746,-2228,-952,-159,159,203
161,137,-52,-351,-814,-2360,-1073,-254,75,166
5,115,43,641,-243,-808,-528,-279,-130,-60
-86,42,7,86,111,358,85,-16,-72,-119
-30,-19,-112,-586,305,990,340,197,96,-25
88,-50,-139,-174,416,914,356,176,105,37
417,56,-81,195,369,564,268,97,86,153
646,198,-73,93,163,311,222,107,60,119
250,23,-81,150,-38,438,437,184,-52,-94
-271,-227,-173,213,-95,510,503,197,-75,-134
-469,-291,-197,-110,154,561,310,-21,-102,-116
-282,-26,56,-266,162,-368,-260,-333,-147,-86
5,131,66,-233,-246,-1967,-943,-329,-5,68
26,43,13,-95,-350,-1750,-898,-158,135,167
23,42,85,44,-41,-335,-330,-34,96,81
-66,0,75,32,256,852,122,16,-45,-123
-94,-50,56,-67,241,976,340,70,-99,-202
-40,20,35,-145,25,435,398,129,-29,-76
-9,37,28,-35,20,270,368,119,30,32
-20,-36,64,324,214,377,347,47,5,5
15,25,114,389,174,90,106,10,51,25
41,17,50,54,-73,-425,-193,48,114,84
131,16,-79,74,-90,-430,-35,197,181,134
174,94,-96,271,123,160,187,191,132,105
114,151,54,62,243,800,339,118,54,32
-137,-61,64,277,136,745,334,-13,-71,-91
-215,-234,-117,-59,-230,-71,5,-185,-186,-135
-105,-88,-127,-757,-800,-843,-340,-269,-155,-45
-48,110,108,-347,-730,-803,-366,-227,-147,-82
18,21,12,-284,40,-680,-425,-138,-85,-69
91,54,-16,-401,306,-665,-462,-78,-1,56
89,26,16,154,206,-261,-165,-24,-34,74
104,-22,5,331,103,236,214,53,-21,59
67,5,0,74,78,394,252,43,-28,-4
111,10,12,110,85,264,200,32,-17,-6
106,120,89,233,133,199,115,-30,1,41
78,356,99,89,46,222,106,-22,29,25
13,97,-114,-28,52,452,225,115,116,35
-183,-411,-151,138,302,593,336,255,130,12
-394,-412,14,73,242,161,193,167,-61,-177
-284,-135,51,17,-57,-366,-129,-38,-185,-196
-12,18,5,35,-311,-368,-124,-62,-85,-22
102,19,-117,-252,-263,-287,3,-32,23,80
65,0,-120,-112,-122,27,168,33,63,57
22,31,-56,39,95,133,235,58,57,20
27,54,-1,-231,273,314,9,-72,14,21
107,103,50,-151,40,78,-110,-124,37,91
163,194,152,46,-244,-686,-222,-68,106,132
-46,4,132,290,11,-192,-185,-131,-35,-34
-171,-132,24,187,130,369,47,-94,-107,-74
-31,-55,43,98,-82,-73,35,-20,-61,-32
57,24,36,102,-85,-73,24,35,-8,2
85,81,53,-41,31,348,196,89,3,29
60,37,29,-213,0,426,208,55,-29,16
-26,-62,-134,-315,-37,262,91,15,-47,-69
-148,-104,-297,-176,93,-70,61,18,0,-70
-79,-13,-180,59,124,-296,-64,7,64,40
-29,24,32,520,-32,8,6,-40,18,16
47,73,134,597,-286,98,151,70,14,-2
176,198,159,-38,-425,219,207,233,98,63
94,-12,-118,-587,87,456,237,160,63,62
105,-202,-263,-874,207,-706,-61,-12,49,135
94,136,60,-264,-59,-1197,-573,-244,-35,92
98,166,142,312,50,-369,-520,-241,-71,31
110,-14,29,355,167,97,-2,10,16,84
-128,64,203,3,68,73,179,22,-71,-70
-222,-80,214,109,-44,6,20,-105,-211,-222
-44,20,37,1013,283,313,82,0,-98,-102
110,83,-49,680,526,460,211,101,60,46
23,-185,-63,-142,274,123,72,10,54,19
-240,-150,19,-553,-254,40,-55,-121,-67,-130
-140,-100,67,-377,-416,59,67,-13,-23,-58
74,-144,-46,-336,-331,-237,168,102,65,47
153,-56,-67,-674,-334,-355,18,87,133,122
74,249,90,-190,-142,-285,-211,-68,21,25
6,200,6,83,58,-239,-211,-63,-6,0
-65,-256,-145,605,129,107,0,63,85,56
-131,-216,-56,405,115,316,155,86,73,7
-91,100,50,-402,42,258,167,39,8,-48
-105,7,0,-245,93,291,210,43,-26,-116
-109,-67,-10,351,237,396,274,63,-35,-109
-63,-21,-35,379,226,583,290,40,-46,-39
0,-62,-106,11,157,624,222,3,-50,6
107,-7,-25,-56,163,-12,-10,-23,2,55
110,88,221,170,237,-695,-312,-116,38,93
137,147,242,75,-126,-1053,-339,-28,139,164
92,80,94,37,-331,-655,-99,79,163,116
-46,-52,-55,137,-287,142,128,58,40,-35
-54,-151,-218,-182,90,676,250,6,-99,-148
139,-18,-189,-234,166,622,404,116,-25,-39
16,25,-128,-214,110,580,365,202,75,3
-160,-27,-100,-10,85,690,181,93,25,-53
-80,34,22,458,39,-72,-62,-13,-29,-23
49,104,98,98,-102,-1270,-527,-121,-24,69
14,22,53,-199,-105,-1335,-722,-304,-136,-26
59,36,77,-72,-120,-855,-503,-247,-151,-30
86,111,147,353,-78,-220,-95,-52,-62,0
-74,-2,50,573,96,702,329,50,-19,-20
-91,-94,-26,45,-24,864,391,104,81,16
6,-32,-1,-421,-147,7,107,141,191,57
96,-25,-152,-597,34,-437,-3,185,274,161
44,10,-53,-196,7,-164,54,58,100,69
-83,-47,143,388,194,299,55,-176,-166,-145
57,117,185,91,298,723,285,-41,-112,-62
123,168,46,-277,152,553,270,62,-47,20
-23,-39,-163,-129,-90,21,83,47,4,38
61,-23,-82,168,-328,-702,-213,-54,76,140
93,91,62,114,-320,-757,-429,-170,-10,91
-71,-24,-29,-31,-143,119,-114,-105,-115,-80
-174,-123,-80,6,-3,455,251,88,-42,-122
-244,-135,-65,82,212,498,241,64,-29,-121
-140,-37,-23,94,241,323,33,-76,-79,-90
181,73,-13,-45,-218,-635,-178,-48,30,69
189,76,4,-31,-212,-642,-179,-6,79,64
-23,3,24,127,158,116,72,13,30,-36
30,17,74,375,308,506,173,1,5,-21
184,107,108,399,134,311,150,48,77,110
24,1,50,-224,-12,198,193,74,92,77
-336,-211,-113,-514,-95,270,161,63,5,-86
-264,-126,-146,-478,-113,-34,-21,18,-18,-126
-22,130,-91,-198,7,-276,-164,-38,-5,-59
142,208,-67,142,-158,-892,-314,-31,81,89
283,90,86,322,-211,-879,-398,-126,60,157
95,28,229,249,-5,61,-141,-136,-98,-21
-25,8,72,-27,98,466,87,-15,-100,-95
-121,-184,-142,-131,94,427,190,103,0,-47
-125,-189,-130,-46,68,194,150,83,42,-38
-40,-30,-51,-207,21,-81,16,9,8,-53
3,-3,-60,-237,-132,-24,74,34,12,-44
43,30,-14,208,-288,38,145,122,91,55
-28,131,192,565,-254,-59,144,88,94,61
-180,54,238,62,246,543,244,30,16,-42
-278,-152,-39,-180,681,1132,360,54,-18,-103
-217,-138,-75,60,465,457,204,55,15,-88
-46,-35,5,-49,-58,-714,-74,55,93,17
159,111,24,-186,-545,-1453,-481,-45,122,158
392,228,100,18,-319,-1045,-574,-196,23,196
492,192,88,120,-68,-39,-185,-185,-85,79
263,94,-1,24,24,213,-84,-102,-97,-66
252,136,-36,0,138,211,-102,-57,-75,-29
206,-97,-162,-56,-12,183,26,29,17,127
-114,-308,-172,-9,-20,289,123,86,66,92
-328,-63,0,96,199,698,157,46,-12,-87
-307,-6,-16,96,324,597,175,37,-29,-123
-119,37,-77,8,0,-185,126,113,91,14
115,17,-90,-35,-420,-658,39,165,215,164
149,-114,-37,226,-83,-125,168,132,175,114
-105,-20,216,222,237,528,228,-23,-55,-133
-290,-131,248,-28,58,654,29,-197,-258,-292
-127,-83,131,-58,-57,289,-174,-215,-225,-223
36,-12,39,82,-94,-780,-395,-82,-16,0
134,57,-58,-5,-432,-1389,-399,134,249,225
128,193,61,-6,-251,-475,-138,113,280,220
62,158,39,-91,139,540,229,114,235,189
-19,53,-135,-228,289,871,382,114,91,23
168,233,1,-228,66,492,179,-9,-77,-67
125,70,-37,-274,-104,-17,-57,-82,-160,-81
63,-189,-147,48,-31,-188,-94,-35,-85,-60
222,-83,-21,228,-99,-246,-237,-112,-85,-38
309,11,65,98,-26,-38,-155,-107,-92,10
2,-122,-57,-172,173,127,137,41,-47,-6
-271,-121,-68,-84,-5,-5,206,71,-2,39
-335,-19,9,136,-26,-57,4,-131,-75,28
-371,59,63,214,40,-250,-209,-212,-108,-86
-442,-26,14,54,-90,-69,-137,-24,-17,-174
-314,-86,-34,21,88,670,214,164,68,-129
-6,39,71,302,369,401,334,231,148,16
178,121,63,18,147,-224,216,190,135,81
211,59,-50,-166,-174,-53,89,24,11,33
43,-29,5,556,-327,80,-64,-183,-189,-105
-3,0,47,0,-327,-328,-54,-61,-115,-57
64,2,-24,-822,-140,-308,25,75,77,89
37,-32,-109,-234,307,-151,-211,-120,25,45
150,188,19,288,70,-625,-496,-185,15,97
149,181,49,287,58,-74,-57,-13,4,78
28,-87,-28,497,411,853,424,153,2,2
-40,-137,-55,356,262,897,448,204,39,-17
-171,-36,-48,-35,-103,591,225,90,-28,-92
-94,-30,-116,-703,-476,-228,-171,-12,13,-7
60,-21,-113,-393,-375,-642,-418,-3,110,117
-4,-68,28,175,-73,-536,-339,-101,-23,27
37,-38,125,-496,-225,-963,-361,-147,-46,-2
182,112,122,-324,-427,-1178,-484,-95,44,81
120,223,148,253,-266,-330,-208,-63,18,24
65,112,67,268,-27,464,133,-32,8,-20
-9,-31,0,197,339,751,282,10,26,-14
-84,-77,-12,155,427,706,299,46,-19,-52
-61,-69,-25,70,263,695,329,114,-44,-48
-4,-13,-50,3,48,360,222,104,-47,10
24,7,-37,-58,-104,-232,-12,1,-59,31
-14,11,0,-72,-31,-442,-202,-130,-105,-22
-4,29,4,60,-103,-405,-244,-85,-78,-9
40,20,-12,320,-157,-42,-119,0,-45,0
7,-22,-23,170,172,432,47,-12,-42,-27
44,-64,-61,-176,321,315,74,34,39,30
56,29,14,-233,-52,-202,-11,43,47,54
-81,38,69,-131,-144,-134,-13,-60,-90,-86
-170,-108,-17,-45,110,319,113,-61,-107,-117
-148,-129,-50,0,237,318,35,-37,-56,-68
-15,-7,3,-35,-113,-299,-202,-7,59,41
63,20,16,-44,-320,-511,-220,-9,88,90
39,-55,-81,67,-73,53,9,6,57,62
146,20,-124,25,45,48,78,58,108,102
74,72,-21,-8,9,-181,24,128,153,109
-359,-28,185,85,42,85,39,66,17,-130
-356,-158,96,83,94,313,85,-6,-100,-177
135,213,-142,-102,200,499,158,51,-46,32
214,192,-192,-35,108,391,140,119,29,89
-23,-148,33,302,-103,-80,73,103,61,28
-35,-13,330,30,-264,-474,-124,-49,-33,-49
-57,7,230,-245,-170,-282,-145,-82,-93,-82
-95,-108,-9,-8,-101,43,20,0,-72,-108
182,-56,-45,411,102,40,-20,-25,-33,-10
334,82,-121,37,389,69,83,-6,6,61
372,183,-123,-155,229,-189,115,29,42,80
350,260,-40,177,-63,-159,38,18,-2,63
-6,101,20,448,132,396,213,34,-33,43
-335,-656,-118,-49,107,443,317,61,65,115
-527,-298,213,-681,-263,-67,-6,-141,0,-16
-410,185,265,-825,-372,-504,-392,-316,-143,-192
-25,48,-34,-322,-111,-232,-190,-50,-13,-34
184,-19,-108,172,-24,-115,21,41,7,47
202,54,-86,209,92,0,0,65,-22,14
34,26,-59,145,153,90,-45,40,-35,-77
-143,-64,-106,-22,24,-116,-84,46,-1,-116
-24,101,-41,-90,-207,-562,-265,-85,17,14
87,133,55,179,-173,-544,-488,-268,-39,78
87,25,28,-41,-74,-42,-246,-127,-28,69
20,-32,-7,-112,-62,315,106,103,45,0
-75,-55,-25,53,80,458,274,191,76,-61
-50,-28,21,65,188,447,239,130,21,-43
-24,-51,24,63,171,384,166,80,1,-4
-23,-6,49,58,73,139,32,12,-25,-23
-17,27,39,21,-136,-264,-85,-22,-4,6
-9,5,-5,118,-133,-235,14,47,75,89
44,34,25,12,46,238,257,92,99,148
56,55,58,-39,275,772,302,38,4,69
17,10,-2,403,197,711,152,-10,-62,-19
69,20,-53,265,-46,-196,-132,-57,-98,-61
-51,-10,-69,-240,-217,-525,-380,-62,-71,-83
-52,23,-86,-486,-499,-708,-327,43,56,-12
-27,-3,-131,-558,-236,-493,-46,98,78,21
-6,-68,-97,-106,113,195,134,51,29,-3
100,-27,-31,184,92,348,34,-75,10,18
114,66,52,200,-234,-536,-245,-155,-4,24
128,128,68,-60,-417,-953,-427,-124,34,78
118,66,31,-332,-152,-12,-100,0,67,83
-81,-60,23,179,176,721,285,93,47,-17
-187,-86,49,260,406,677,299,26,-19,-114
-68,-15,13,-151,419,390,197,-4,-67,-92
-59,-19,-17,-203,215,146,145,66,-86,-61
-82,-46,-9,217,10,54,61,54,-84,-56
-36,-22,45,653,-170,-21,10,6,-5,-10
44,5,39,280,-136,-185,4,19,117,101
123,90,131,-462,-188,-542,-214,-45,121,131
97,-1,-8,-503,-328,-495,-281,-80,19,69
48,-44,-118,-160,-126,276,68,41,-18,6
10,1,-49,-69,227,844,334,90,-4,-31
-63,-29,-58,-5,358,338,134,-64,-69,-97
-39,14,-7,159,214,-458,-197,-218,-117,-85
-41,23,29,362,9,-292,-261,-162,-89,-39
-15,15,8,195,94,143,-90,-14,-20,4
177,159,104,106,-176,-405,9,169,127,159
205,78,60,-59,-570,-909,-16,157,148,181
-91,-180,-97,-151,-293,-232,10,-53,-67,-64
-258,-169,-129,-289,170,487,180,-70,-130,-171
-101,-42,22,-194,116,418,125,-24,-49,-63
2,29,121,174,102,380,9,-109,-102,-80
-27,-4,53,91,107,59,-21,-67,-52,-56
-39,-17,-24,-70,18,-305,-58,-4,25,47
37,-47,-149,-317,-56,-178,30,154,157,201
91,17,-75,-106,-126,-12,108,196,185,191
-17,20,-25,129,21,235,97,88,75,56
-154,-35,-57,114,170,344,95,21,-5,-63
59,74,-10,-6,89,-18,21,-45,-16,-31
179,176,25,-57,-15,-293,-95,-97,-30,-19
-141,123,-22,79,35,93,-11,-60,-79,-183
-89,-9,-77,256,117,374,141,39,11,-127
285,-74,40,145,11,219,123,98,127,126
180,95,220,51,44,174,50,18,20,55
67,155,27,-184,107,-13,17,-46,-113,-64
1,-182,-239,-303,12,-289,-20,10,-44,26
-246,-288,-95,253,0,-259,-106,-44,-81,-50
-341,129,227,329,-206,-410,-213,-90,-131,-138
-105,-9,97,-239,-17,-159,-34,70,36,17
77,-101,95,-316,48,328,159,55,38,38
62,-129,127,-51,-21,130,62,-72,-77,-70
-98,-117,-22,90,-5,-122,-120,-84,-72,-53
-161,-28,-113,131,-71,276,-185,-51,-28,-9
115,71,-179,89,-265,-24,-100,61,89,114
347,-55,-263,-48,72,-143,100,203,256,273
159,68,11,-23,351,-152,93,200,241,177
-24,90,303,40,-197,-645,-112,-30,0,-33
-126,-93,149,16,-312,-174,-3,-70,-96,-147
-213,-112,-9,91,145,639,222,-5,-104,-210
-135,-105,-64,26,240,691,220,12,-94,-163
34,-83,-81,-220,175,555,197,-1,-65,-51
40,29,-6,70,157,39,-30,-129,-69,-1
19,158,18,197,-34,-889,-490,-265,-86,36
139,215,51,-137,-336,-808,-416,-115,53,185
171,156,122,-211,-466,-495,-114,34,132,183
54,-5,29,-200,-299,-330,40,72,127,113
29,-57,-32,-103,138,339,206,85,66,33
-82,-46,-18,76,292,659,210,39,-59,-113
-159,-107,-103,-15,107,418,95,1,-118,-161
-68,-152,-166,5,54,175,69,56,-23,-59
-26,25,-17,128,142,-29,54,48,38,0
-31,105,96,39,147,144,42,-17,-23,-45
-8,32,9,216,59,267,92,4,-28,-40
1,5,-41,263,17,46,64,34,24,-16
0,-7,23,52,-79,-209,-82,-34,-1,-4
57,22,11,96,-54,5,-122,-36,29,52
277,315,32,67,-33,-21,1,151,227,252
292,291,-32,0,-137,-289,86,194,256,268
-57,-252,-79,-192,-62,156,70,25,49,-1
-408,-302,96,-353,137,119,-146,-234,-219,-281
-224,-144,107,-417,60,-369,-257,-248,-206,-180
21,24,102,103,-109,-349,-78,-57,-53,-22
14,8,106,380,71,69,83,19,-31,-18
138,23,26,52,139,275,103,29,5,10
248,85,-39,-73,103,275,47,-13,22,52
219,92,-93,80,2,69,-4,-10,35,89
92,17,-99,-29,-61,-180,-58,37,47,53
11,-55,-115,-58,-65,-275,-40,68,45,16
-33,-54,-76,0,-68,-134,18,67,30,-2
-221,-84,-20,9,3,104,-16,-4,-36,-46
-254,-54,45,57,62,141,-81,-56,-52,-83
-137,27,92,78,35,17,-34,-6,-16,-63
-44,57,62,51,54,102,131,105,32,-10
58,22,-33,3,80,266,273,136,26,15
48,-25,-65,14,114,272,248,54,-33,-48
-91,-31,-34,46,136,93,18,-74,-124,-119
-29,-8,14,28,-20,-315,-183,-68,-85,-44
66,0,54,-2,-213,-555,-230,54,41,104
-137,2,73,68,-114,-19,-49,97,56,62
-164,-87,6,45,76,376,177,66,65,45
81,26,13,1,33,110,148,0,131,131
233,115,59,230,213,-60,0,-138,76,52
105,38,-15,30,171,-10,-39,-193,-11,-87
21,-30,-95,32,-141,-178,-86,-141,-65,-90
32,26,16,600,-263,-17,-112,-87,-140,-84
-83,9,-22,-90,-162,390,97,54,-90,-32
-155,-79,-141,-900,190,491,321,192,43,72
-78,-30,-31,-486,327,139,163,139,85,146
186,103,123,133,-55,-294,-92,8,16,140
358,117,29,92,-417,-568,-194,-78,-77,49
218,10,-51,188,-296,-740,-323,-180,-152,-68
-89,-69,-32,131,96,-332,-275,-176,-180,-97
-55,18,102,-232,91,99,-87,-71,-75,44
-54,-7,120,9,-34,39,-84,-57,-57,39
-127,-14,44,34,32,67,-9,-48,-87,-40
-100,-17,5,-85,64,257,110,4,-70,-98
-69,-68,-34,6,89,334,165,109,19,-68
6,-15,-15,68,28,165,163,170,113,16
29,6,-28,72,-24,160,129,119,97,4
0,6,-24,42,-52,88,49,29,33,-22
-7,18,11,61,-25,-62,-65,-37,-31,-18
40,11,-48,45,57,28,-112,19,-3,58
39,14,-69,12,41,18,-38,80,16,71
-37,-30,-18,54,-160,-121,10,27,-53,3
-62,-51,-27,-340,-316,-139,-68,-100,-106,-52
-94,-52,-19,-112,-228,-96,-113,-165,-117,-81
-182,-85,13,522,64,-113,-95,-135,-102,-109
-154,-30,62,302,436,225,25,-26,-56,-95
60,61,-14,-324,479,504,254,199,120,79
172,154,51,145,149,645,408,344,232,195
127,55,41,139,-76,699,488,327,233,177
-58,-170,-100,-585,-233,461,313,19,-24,-90
-67,-180,-148,-552,-311,-212,-93,-211,-174,-184
201,109,7,96,-314,-1228,-614,-164,22,112
162,85,44,400,-268,-1277,-836,-258,-21,103
2,124,3,191,-286,-1026,-627,-237,-79,-4
-26,284,-118,-488,-4,-564,-365,-80,-26,29
-6,19,-226,-362,211,110,24,123,86,90
-21,-303,-28,106,200,511,274,190,107,35
-187,-74,292,208,21,444,221,68,-26,-134
-146,2,169,234,-7,246,120,-13,-82,-152
0,65,37,-85,52,280,58,-35,-55,-31
42,81,28,22,21,399,-6,-114,-97,18
-51,-151,-58,132,113,252,21,-23,-53,26
-181,-190,-67,-3,22,-214,-18,29,4,-17
-103,53,25,48,-144,-567,-67,-16,16,-38
-6,76,7,83,-38,-425,-94,-47,25,-6
151,65,79,65,3,84,6,9,73,62
188,40,117,-43,49,260,125,67,75,63
105,-77,-53,-213,252,451,149,73,24,-9
67,-50,-59,-32,282,304,97,62,29,12
-61,-12,8,183,-23,-345,-47,7,18,38
-139,-18,0,119,-94,-222,-87,-24,-14,-14
-20,-24,-21,113,21,83,-32,1,-24,-71
125,-31,7,142,134,221,36,10,-33,-59
175,65,0,-37,75,137,5,-34,-40,18
-33,57,-121,-226,-36,76,3,12,-9,19
-142,-66,-153,75,-48,-18,128,125,83,33
51,50,80,440,22,0,143,90,122,52
123,281,209,-11,54,381,137,37,88,-39
192,74,-50,-223,79,458,192,165,219,122
476,-121,-189,-10,179,-29,171,269,377,481
282,101,108,151,179,-159,6,56,177,332
-485,84,444,80,21,-167,-180,-387,-426,-422
-655,-277,173,-81,-190,-89,-103,-370,-549,-618
-396,-274,-143,-135,-35,414,115,-102,-258,-324
-74,-102,-157,4,99,307,30,-32,-32,-29
234,139,-36,111,-128,-510,-212,0,132,179
251,204,55,10,-262,-930,-363,-22,120,166
145,91,-12,13,-187,-662,-288,11,70,78
66,21,-75,246,93,221,205,159,117,59
-11,28,8,284,363,688,385,106,47,-22
-113,-49,-14,-150,132,426,95,-43,-75,-140
-87,-68,-107,-513,-143,-101,-171,-117,-92,-117
-43,24,-69,-392,-216,-573,-250,-75,5,43
-77,-60,-28,-45,-370,-742,-251,1,134,154
84,-63,16,167,-229,-330,-206,-17,82,81
234,71,60,157,155,351,21,-18,-51,-63
152,152,24,-85,160,387,151,17,-78,-75
37,138,34,-72,-3,111,66,-8,-26,1
-229,-68,7,81,94,25,22,-10,37,-64
-218,-84,30,187,52,241,102,45,72,-52
42,1,51,89,-50,422,216,61,72,40
41,-147,-97,-135,150,430,249,98,104,40
-86,-32,-128,-265,287,419,181,107,105,-16
104,253,-36,-74,-132,-289,-45,71,130,116
305,245,-107,35,-346,-926,-270,32,164,254
219,178,-130,-83,-133,-313,-111,65,117,160
-41,-43,53,-1,32,86,-77,-45,-53,-23
-250,-335,172,31,-11,-81,-296,-178,-163,-151
-292,-216,170,-152,-68,-87,-399,-174,-202,-224
-93,-147,17,-67,-123,-11,-181,-68,-83,-112
54,-14,-70,31,-80,67,47,21,56,19
67,64,8,52,39,98,129,69,91,27
22,76,47,123,115,49,121,55,73,29
11,65,26,57,36,2,96,59,53,49
-19,1,23,7,-106,1,39,74,-26,-8
-79,-64,-40,-62,-59,68,129,100,-41,-33
-59,-58,-77,-299,151,280,283,133,33,12
-39,-63,-17,30,295,328,203,10,-14,-12
26,-13,33,339,152,104,30,-104,-73,-53
196,129,55,-88,-151,-152,-61,-38,-11,34
254,180,41,-160,-209,-289,-86,-22,-2,64
74,46,-25,22,-7,70,14,-39,-55,4
-81,14,-49,77,120,538,160,-19,-81,-70
-112,33,-18,92,166,596,188,-31,-82,-70
-110,-50,-38,90,301,293,94,-52,-75,-64
-62,-92,-131,-89,172,-460,-164,-104,-48,-28
25,83,-102,32,-410,-1176,-487,-171,-11,28
114,302,71,458,-551,-1072,-492,-82,48,84
137,-52,43,-154,-193,-204,-75,121,131,124
-51,-346,29,-602,65,606,282,158,117,33
-159,21,227,84,-118,454,199,1,-26,-103
-79,49,95,93,20,189,115,4,-24,-63
-70,-57,-24,-114,110,29,70,23,-12,-42
-29,-59,24,25,110,-163,5,16,11,-18
17,-57,-43,-235,100,-30,71,76,73,66
57,-20,-72,-121,74,59,122,107,94,116
137,102,57,194,137,68,44,2,19,62
119,157,57,158,171,113,-47,-100,-91,-21
121,261,-90,-10,-124,-152,-98,-29,-29,12
188,258,-166,-53,-260,-351,-76,47,78,94
124,-270,-97,18,-61,39,73,77,100,105
-201,-289,119,114,162,542,142,-31,-24,-74
-330,-121,116,57,106,376,77,-56,-106,-165
-129,-41,19,5,-33,-79,-6,-5,-77,-92
-29,-3,14,16,-67,-285,-14,35,-16,-28
-190,-144,-87,-31,-55,-182,60,129,78,-13
-169,-112,-55,34,150,125,129,105,88,-4
254,109,104,403,337,264,117,7,74,82
362,254,229,385,118,87,1,-71,41,97
-193,-12,86,-93,-89,72,-114,-175,-121,-116
-273,-180,-172,-469,-79,132,-103,-161,-150,-98
264,1,-185,-411,-145,-273,-43,47,63,174
385,48,-61,41,-171,-489,-111,10,26,107
119,180,106,241,-68,-151,-100,-78,-72,-112
-231,139,83,124,-87,140,6,19,33,-94
-203,-18,-91,-154,26,396,113,149,149,57
-54,-100,-149,-248,250,298,110,149,116,82
-27,-10,-16,74,66,0,93,63,25,42
-2,103,75,146,-43,-30,120,0,-33,0
1,79,35,169,54,3,114,-7,-4,1
-30,18,-15,341,16,-115,-66,-26,31,2
-59,-35,19,288,-69,-216,-332,-160,-78,-86
39,-17,28,-194,-205,-410,-284,-97,-64,-38
84,-5,12,-518,-114,-226,-51,23,0,3
80,-53,-57,-392,14,158,141,52,-25,-35
63,-66,-45,-102,113,335,234,51,-50,-57
23,-40,11,41,114,406,307,61,-7,28
15,-25,32,226,182,467,341,117,98,146
-65,-22,1,134,100,320,152,44,56,53
-257,-79,-38,-60,-45,53,-73,-71,-85,-148
-246,-59,-61,-182,-140,-273,-49,21,-39,-119
-25,31,-6,-84,-210,-552,-168,-15,25,20
178,82,44,15,-95,-225,-342,-197,-27,19
272,59,-51,-118,-52,-238,-338,-118,66,41
261,62,-31,-10,-81,-523,-270,-6,146,148
126,59,97,106,-110,-357,-102,-24,42,87
0,4,76,79,-45,5,39,-53,-91,-6
19,11,3,46,87,309,105,-39,-123,-21
31,-45,-18,71,182,443,141,-9,-83,-19
-60,-146,-53,104,121,313,135,28,-28,-34
-97,23,40,124,-47,21,61,27,-10,-22
-16,116,50,72,-11,-112,6,27,30,31
75,-61,-88,12,181,-43,64,71,84,108
3,-15,13,57,97,124,119,98,77,92
-202,104,291,97,28,84,0,-71,-132,-131
-212,-87,146,1,8,203,-20,-116,-186,-212
-71,-53,-92,-57,47,476,88,9,-67,-85
55,0,-172,-69,8,285,117,83,24,27
109,-33,-176,-65,101,72,158,116,99,100
14,-52,-70,-105,229,-201,-35,-6,15,12
-109,17,4,-74,-111,-657,-339,-160,-121,-133
-12,225,-67,-10,-273,-368,-252,-94,-66,-75
198,187,-145,-5,-333,-178,-61,56,114,130
113,-273,-57,54,-262,-162,34,101,198,174
-247,-133,269,64,-106,-198,-45,-44,14,-73
-258,-128,238,-149,16,-4,-14,-40,-71,-129
-102,-145,7,-132,232,369,256,76,-70,-77
-14,-102,-128,-25,196,359,438,206,11,-2
80,-80,-104,24,129,573,322,126,56,66
96,-25,-28,126,306,716,-26,-106,-9,65
143,175,104,160,225,-467,-371,-184,-2,59
150,231,165,118,-239,-1190,-514,-113,83,43
-15,21,60,180,-368,-550,-145,89,133,7
-52,-55,-56,195,-256,-61,124,181,128,34
30,112,-6,-31,-130,163,0,-46,-61,5
-72,2,-79,-632,41,182,-110,-189,-218,-107
-168,-97,-191,-677,141,90,-16,-64,-129,-66
-15,116,-61,-135,161,143,134,58,0,20
140,235,-29,217,97,272,113,53,0,6
250,27,-27,163,-1,186,45,36,10,36
214,43,180,126,-65,-4,24,-35,-37,4
-57,30,177,79,-51,51,31,-65,-65,-44
-135,-79,-30,10,30,117,118,45,8,26
-35,-163,-163,-130,132,190,203,138,102,91
-85,-97,-11,75,158,5,59,35,45,-23
-237,-49,199,355,48,-367,-239,-190,-127,-194
-105,-87,67,81,-29,-323,-186,-138,-67,-89
128,58,26,-38,-79,44,1,58,94,93
142,67,1,120,-189,247,117,113,116,62
51,9,-79,-146,-139,384,145,44,37,-1
-38,-30,-114,-202,-88,177,8,-59,-29,-51
-36,21,-47,65,-9,-443,-221,-43,13,-2
-46,-29,-61,-84,209,-594,-219,107,98,50
-60,-47,-51,-141,110,-97,28,203,141,49
88,60,28,-14,-29,168,80,69,80,12
172,163,52,149,-80,63,-7,-112,-24,-2
45,50,-19,144,-110,-174,-98,-151,-44,-26
21,-77,-69,-147,-48,-16,3,-21,47,50
68,10,70,-48,-54,204,140,33,44,69
-110,-26,84,-8,-94,138,81,-21,-51,-58
-270,-149,-86,-128,62,162,-42,-31,-41,-77
-63,28,23,30,-101,-179,-90,14,52,77
85,162,194,65,-78,-457,-95,-14,-1,85
78,122,108,84,250,108,38,-15,-67,-17
199,42,-13,80,168,289,182,109,64,78
181,-157,-52,70,69,153,187,133,133,149
-29,-82,36,97,1,84,66,-44,-30,-54
-210,58,43,-112,-72,92,-47,-185,-206,-233
-117,-40,-73,-131,-95,30,-26,-72,-146,-119
53,-69,-97,-3,-53,-81,-43,11,-54,27
30,-17,-28,82,41,-118,-111,-7,-34,26
22,56,-1,76,17,17,-42,10,-10,1
51,15,-31,-10,-14,278,143,86,56,18
-48,-148,-100,33,14,188,163,103,133,41
-85,6,33,168,29,-306,33,70,203,54
-45,148,175,33,-45,-400,-67,0,152,42
-36,63,98,-22,-68,-130,-62,-39,29,12
-8,20,9,67,2,49,-16,-69,-58,-1
33,38,34,67,152,220,44,-88,-107,-31
26,35,30,50,128,156,43,-65,-106,-41
21,6,10,162,64,70,6,-24,-78,-37
36,-12,-34,-75,48,58,-10,-6,-30,-18
59,-12,-55,-178,-2,67,3,-14,-22,-8
108,13,-33,188,-75,-120,-45,-17,-14,15
38,18,-21,112,-73,-146,-64,22,14,55
-94,-36,-46,-115,-14,61,23,94,57,36
-115,-34,-37,-67,13,65,-11,46,19,-9
-41,2,-36,-38,-46,15,-73,-60,-60,-35
-16,26,-77,-33,-69,51,55,23,-12,-24
-62,-120,-140,26,45,130,179,116,92,12
-48,-20,17,107,165,178,133,45,72,26
-72,181,289,65,21,-109,-156,-203,-137,-123
-54,-6,127,-95,-127,-245,-260,-182,-163,-143
110,-203,-113,-9,-95,-2,31,103,44,30
290,-34,47,425,112,132,211,172,128,150
121,260,249,399,37,53,59,-18,-2,65
-331,-27,62,40,-168,-67,-110,-127,-86,-115
-391,-322,-269,-676,-101,-81,-78,-72,-59,-76
125,-42,-219,-655,-113,-199,-152,-65,-26,83
177,104,-41,7,-53,-250,-185,-37,-7,65
172,77,-54,-213,11,-80,84,196,127,72
227,168,-46,-121,-25,164,184,292,212,104
115,-10,-45,495,342,479,140,133,97,18
71,-121,-7,188,227,248,80,57,55,24
-90,34,90,-177,-310,-289,-112,-96,-60,-49
-185,-105,5,-204,-348,-437,-268,-216,-183,-120
-108,-63,-32,-172,-38,-193,-165,-117,-119,-87
-128,93,41,-71,77,-190,-59,-14,-52,-91
-110,18,43,-8,50,-294,0,31,8,-59
24,8,58,79,53,-58,0,-5,43,43
166,59,70,158,-23,181,3,-37,40,133
36,16,16,93,13,318,105,19,17,31
-109,-102,-52,8,132,448,257,95,-8,-50
-60,-78,-23,7,143,541,363,131,-4,-34
-24,-22,15,121,229,446,259,31,-15,-2
28,-4,-5,149,226,196,77,-64,-46,-4
80,50,-4,-34,-233,-667,-223,-28,-11,41
55,74,-22,-175,-442,-961,-305,2,34,88
-48,-23,-87,-166,-100,-130,-130,-50,-25,1
-1,-11,-80,-61,73,339,-28,-50,-45,-19
70,70,42,140,-5,-19,-125,-74,-39,-5
-12,12,41,-29,-100,-256,-174,-100,-53,-54
35,-31,-72,-252,-157,-289,-131,0,45,34
48,38,-12,-70,-99,-148,-38,39,86,66
-34,59,97,117,-9,2,-10,-15,-12,-37
-13,70,49,195,10,129,55,-1,-21,-21
37,174,-135,14,278,425,198,72,10,5
169,130,-213,-52,348,545,309,138,61,73
79,-265,-12,262,274,423,322,157,76,85
-235,-296,323,213,166,372,204,13,-71,-92
-382,-120,374,-27,-90,6,-30,-166,-254,-248
-166,-137,35,-76,-181,-412,-170,-103,-165,-102
50,43,-133,-89,-194,-367,-186,-31,-59,25
59,76,-118,251,-97,-317,-235,-67,-51,12
31,43,-69,364,-121,-503,-352,-127,-57,-16
88,87,28,-27,-423,-337,-161,-73,-7,35
82,-22,-152,-781,-56,119,127,109,119,133
83,-20,-142,-741,76,222,169,168,166,148
95,104,67,31,93,204,76,15,42,46
54,0,40,235,101,71,9,-37,-13,20
-33,-108,11,206,68,-29,-4,1,10,0
-45,-21,40,165,69,70,57,32,11,-40
8,-80,-31,100,32,195,113,38,29,-5
0,-112,-23,273,80,182,124,78,82,82
-68,152,165,426,138,78,69,60,65,41
-89,122,167,50,0,-109,-63,-55,-22,-56
-118,-92,-52,-427,-149,-230,-142,-131,-126,-117
-41,-120,-179,-502,-63,-76,-18,-77,-127,-74
70,-44,-85,-81,38,115,112,42,-35,7
45,-19,-15,181,112,270,130,67,2,13
42,125,-75,67,176,247,102,70,30,24
173,260,-122,16,4,9,20,77,91,75
106,-162,-41,299,-65,-91,-56,41,100,60
-147,-149,206,44,-28,-184,-106,-26,35,-67
-145,-5,152,-289,-78,-195,-109,-61,-17,-106
-40,-98,-51,-188,-80,-168,-66,-24,39,-40
10,2,-2,14,-43,-133,-49,-50,44,-6
62,63,2,46,-18,-54,-25,-55,-13,30
65,79,-35,29,26,78,34,8,-34,28
96,45,-83,36,64,169,124,104,35,72
167,-117,-101,58,95,192,187,151,105,155
12,11,116,62,146,229,136,48,12,91
-252,19,206,30,235,390,168,15,-114,-142
-351,-154,25,15,40,322,275,165,-34,-175
-194,-132,-61,58,-131,117,312,193,26,-94
44,-56,-92,50,152,233,154,24,-12,-24
247,176,-34,26,126,-78,-230,-219,-71,32
284,314,12,-39,-264,-549,-430,-297,-99,0
112,-55,-69,-28,-206,-454,-340,-152,38,92
-248,-155,8,83,103,-160,-238,-100,57,31
-344,1,114,166,166,-155,-175,-104,-62,-88
122,129,111,-21,-267,-613,-116,-9,-4,58
464,141,17,-275,-350,-456,-85,-41,-21,88
132,-57,-31,38,-26,444,100,-54,-104,-58
-180,-112,-85,-4,244,426,166,53,-65,-78
-75,20,-14,-32,198,89,72,65,-11,-21
-39,-16,7,17,105,133,143,86,32,8
-94,8,28,-101,9,143,200,126,88,39
18,28,83,67,46,124,126,43,64,90
186,30,53,126,-2,-11,-63,-133,-20,100
42,-55,-29,62,-200,-379,-265,-187,-115,-51
-41,-118,-161,-305,-182,-273,-135,-20,-87,-91
68,2,-103,-307,-45,109,108,94,-4,-2
3,39,14,53,128,250,98,58,15,-26
-106,-4,-2,103,159,126,-25,30,46,-48
-81,5,-18,41,-11,30,-86,48,92,0
-56,-23,-39,-7,-121,29,-7,79,70,14
-20,-11,-19,62,-136,-9,26,44,4,4
119,70,13,101,-75,-67,-12,-8,-18,39
99,140,124,76,50,-147,-63,-39,-22,52
-1,71,153,47,177,-51,-69,-66,-60,-14
-63,-49,4,-67,159,126,32,-27,-50,-54
-59,-116,-95,35,105,311,76,-23,-61,-49
86,-135,-139,41,79,195,89,73,64,72
142,123,55,-77,51,-218,102,157,188,156
-79,364,375,95,49,-199,-72,-73,-37,-47
-75,85,163,279,25,-33,-141,-192,-162,-126
32,-281,-200,-78,-120,28,-39,-15,0,35
-103,-232,-62,-472,-321,-101,-15,43,48,28
-233,-61,44,-156,-233,-141,-114,-63,-69,-112
-106,-24,-57,-2,5,97,-54,-5,-22,-74
44,-58,-112,-178,27,207,48,79,49,9
115,-44,-97,-52,5,86,49,88,75,46
151,85,-21,66,1,-53,-26,0,19,3
127,103,-15,58,6,-154,-65,-35,-7,-24
114,10,-28,-15,41,-58,-9,21,25,3
80,-12,16,292,142,372,171,98,71,54
-46,29,112,689,176,385,208,103,86,78
-217,41,122,88,-3,-51,-30,-41,-13,-18
-332,-104,-67,-578,-178,-401,-275,-154,-119,-174
-104,-201,-185,-583,-112,-453,-255,-63,-53,-92
262,7,-19,-70,27,-196,-58,47,49,81
173,80,47,101,57,246,113,62,36,88
-95,-133,-32,67,47,494,207,112,71,94
-299,-94,39,404,205,257,116,61,7,-29
-90,103,131,12,123,-141,-93,-117,-106,-127
199,180,97,-371,-297,-248,-122,-84,-61,-12
104,59,-52,-109,-185,30,48,62,36,62
-51,-46,-95,214,125,426,138,76,22,10
-9,-61,-41,285,-6,80,-17,-34,-41,-35
84,14,33,509,-548,-935,-386,-210,-113,-61
59,175,130,373,-678,-1024,-543,-244,-118,-27
-46,169,-139,-744,22,-128,-148,-22,36,58
35,36,-418,-1082,468,566,316,258,278,180
113,-177,-100,-169,512,569,340,260,275,177
-33,-55,352,328,241,3,-2,19,11,-26
-58,-64,291,312,-73,-244,-150,-136,-172,-153
52,-59,78,257,-131,-97,-9,-102,-169,-131
65,-57,-23,98,39,176,116,3,-75,-52
42,-97,-85,14,328,653,190,59,17,25
48,-30,-52,-13,127,299,133,96,105,72
-4,52,-1,-54,-193,-395,-47,59,90,44
-45,92,44,40,-128,-372,-144,-33,15,19
-10,58,-6,130,12,-79,-80,-32,-35,5
38,46,-61,117,59,92,36,12,-36,10
38,66,1,26,90,91,15,-11,-45,14
-50,-10,-24,-179,24,63,-46,-76,-106,-57
-141,-104,-69,-120,-127,21,-55,-73,-123,-105
-24,-39,-22,38,-124,74,9,-6,-37,-7
176,93,18,-107,-82,17,31,0,42,88
70,89,31,-80,-83,-64,-13,-41,15,16
-73,47,28,18,81,15,-1,-20,-16,-53
14,-97,-30,-26,109,-59,23,-11,8,-1
3,-175,-36,40,12,19,92,33,56,49
-110,19,73,130,54,231,186,71,40,-14
-75,15,63,97,114,326,186,81,-2,-36
-44,-26,35,195,108,235,177,67,-4,-17
-52,-18,38,42,-39,56,108,5,-2,-23
-76,-9,2,-127,-136,-146,-70,-54,-4,-33
-89,-14,-68,-79,-17,-121,-120,-57,26,-13
54,21,-97,-108,52,-148,-176,0,84,92
148,45,-80,-65,-37,-218,-210,71,59,103
75,20,-21,215,-40,-181,-158,57,-3,13
61,17,8,130,-19,-126,-125,-35,-17,-8
75,120,71,-65,-40,-172,-115,-77,-18,-50
-27,149,81,-61,-76,-218,-98,-150,-90,-138
-18,-16,22,-37,-136,-230,-66,-121,-59,-22
36,-88,-23,44,30,36,41,-28,16,93
-48,43,-28,89,134,381,199,76,97,109
-28,158,68,311,186,410,243,120,124,78
20,-6,27,101,103,229,204,159,98,42
39,-198,-29,-215,-131,-120,13,13,-42,-55
-22,-77,-36,-356,-108,-254,-176,-215,-211,-146
-44,51,-11,-324,-17,-80,-57,-112,-110,-33
-87,-35,8,236,54,169,128,38,18,51
-64,-38,1,223,66,366,165,84,61,48
-52,16,25,-12,61,443,52,-17,-65,-58
-60,-49,-80,43,108,178,3,28,-63,-83
73,85,-34,-2,-108,-600,-26,169,115,117
158,209,65,19,-278,-548,-91,42,76,145
136,51,24,56,-87,-87,-179,-179,-118,1
0,-104,-80,-161,0,131,-64,-104,-145,-98
-145,-43,-15,-61,38,68,53,58,-35,-99
-16,91,73,85,9,-190,-55,-17,-22,-31
137,82,66,58,-30,-236,-107,-110,-16,45
-58,-81,4,11,33,-68,-85,-83,-28,-2
-168,-106,3,32,57,2,-83,-17,-45,-55
-72,-49,0,92,-16,144,40,20,-17,-23
-24,-52,-12,160,-7,223,111,20,21,1
9,4,32,-7,-10,-21,50,16,45,39
99,55,-25,-234,-100,-121,80,61,95,85
141,34,-62,-66,-47,68,116,84,78,70
88,23,12,147,227,392,135,16,-21,-14
28,36,56,34,180,338,175,33,-43,-21
-42,-30,-29,-59,-13,218,215,100,8,12
-73,-67,-89,-95,53,222,120,63,29,0
-100,-20,-33,-9,-137,-320,-79,29,37,-4
-104,16,35,109,-205,-415,-200,5,63,27
14,72,49,-15,-119,-319,-257,-72,31,45
132,172,11,-45,43,-177,-218,-162,-73,-9
83,60,-88,30,-7,3,-123,-178,-116,-82
-36,-208,-50,-87,-7,38,-36,-39,-34,-38
-79,-94,144,-78,84,-102,0,26,28,20
-1,85,116,4,-76,-282,-36,13,23,25
63,168,-11,85,-199,-67,33,46,37,27
162,65,-134,154,76,247,185,133,109,98
242,-163,-251,-152,300,484,369,282,267,225
14,223,208,-61,118,299,190,134,113,57
-243,108,347,-45,-25,-84,-126,-191,-232,-260
-104,-293,-68,-193,9,-68,-75,-93,-146,-149
-141,-172,-107,-75,88,260,3,3,-64,-80
-255,-118,-50,64,-56,245,-79,-47,-83,-127
31,4,-36,61,-288,-445,-231,-11,36,31
151,70,-40,-70,-238,-664,-260,-2,102,110
54,-8,-73,-15,81,98,22,47,75,113
-34,-28,-41,43,238,465,185,43,-3,45
-83,-18,44,173,-69,-64,61,-13,-58,-32
-52,-25,50,273,-170,-325,-67,-70,-62,-69
126,20,35,7,138,-4,-80,-65,-11,-8
52,197,153,117,88,-49,-92,-82,-54,-29
12,142,51,-6,30,-144,-95,-94,-106,-25
117,-42,-112,-400,52,-48,-5,-10,-14,84
13,-105,-101,-267,70,117,93,47,5,19
-124,-51,56,531,172,369,151,69,-24,-106
-85,27,159,578,161,400,210,117,13,-67
-98,-36,-11,-376,-80,115,144,68,-7,-64
-65,-145,-253,-779,-268,-61,-8,-27,-93,-61
122,-72,-229,-407,-91,11,-41,23,-13,23
247,115,-3,87,-4,-186,-105,32,27,36
171,249,27,167,63,-178,-144,-62,-12,14
123,412,-125,11,151,231,-45,14,60,68
74,-39,-200,200,265,506,130,142,162,140
-77,-417,48,290,89,1,106,92,139,110
-323,-100,418,-53,-462,-988,-188,-45,5,-49
-337,-55,355,238,-406,-733,-282,-163,-152,-160
-137,-102,83,327,-5,110,-88,-125,-159,-102
-17,-23,-84,-264,74,250,69,-19,-106,-21
59,7,-61,-253,152,246,143,21,-42,22
124,34,-9,-83,152,48,68,-26,-11,45
87,31,-15,3,-12,-163,-54,-36,24,44
34,25,-12,123,34,6,-34,31,22,1
125,39,-6,38,0,67,25,101,53,33
191,55,-85,-121,-94,-79,-4,77,103,125
65,42,-58,-32,-72,-78,-68,-68,20,47
-58,-1,-20,39,-49,31,-84,-126,-53,-41
-124,-20,-26,40,39,134,-24,-59,-63,-57
-28,12,-6,-1,36,59,31,-4,-33,-4
68,3,-14,-57,12,13,39,9,-26,5
-1,-37,-9,-43,88,135,9,8,-34,-36
-20,7,43,0,54,128,24,4,-4,3
28,67,69,-35,-118,-54,-17,-39,10,17
-61,-7,3,116,-60,-207,-108,-95,-50,-70
-135,-88,-59,137,79,-116,-66,-31,-49,-110
-39,-21,-9,-146,-17,28,63,71,31,-20
1,-16,46,-66,-52,52,89,65,39,6
-10,-36,20,-29,-8,130,130,96,45,24
-18,-43,-12,19,75,224,169,107,45,31
-14,-27,-4,132,38,237,163,101,32,18
26,7,-25,55,0,260,156,91,25,5
36,-7,-65,-92,149,312,136,13,-23,-14
61,37,-64,-210,113,8,-59,-53,-37,6
127,131,10,-151,-216,-551,-265,-51,13,59
129,143,64,-14,-275,-721,-334,-81,13,55
26,48,38,65,-164,-311,-244,-93,-26,-16
-131,-42,-35,71,-28,131,-57,-66,-57,-99
-60,22,-67,-14,20,137,96,43,34,-7
107,-6,-29,-22,-3,-56,121,77,116,120
6,-26,73,74,47,81,25,-3,50,38
-54,8,99,84,25,45,-36,-22,12,-2
-63,-35,52,48,-63,-170,-54,-44,-32,-46
-116,-86,27,31,22,33,-7,-94,-123,-125
-61,-60,0,23,16,219,119,-29,-78,-95
36,18,4,75,-7,278,249,75,19,-29
81,-43,-79,-103,56,119,247,107,110,50
34,-168,-186,-335,170,263,146,79,149,93
-13,4,-14,43,288,288,-50,-22,74,56
-35,196,33,102,121,-301,-204,-21,-1,-4
87,200,56,331,-28,-367,-97,58,23,38
168,101,122,477,-38,-1,93,149,69,76
7,-31,84,-70,-133,119,97,102,6,9
-213,-212,-56,-246,-220,-80,-183,-144,-151,-136
-183,-203,-163,-493,-10,-169,-324,-228,-183,-157
122,100,-58,-431,-160,-509,-232,-95,-18,56
177,229,29,-55,-295,-407,-82,2,79,178
32,108,52,139,0,288,166,65,53,99
-22,-55,51,194,196,498,280,85,-5,-20
-169,-118,13,208,260,562,241,56,-40,-106
-127,6,67,165,170,384,104,-10,-5,-77
121,70,60,83,-9,-68,-19,-59,30,-3
210,8,-3,39,-5,-142,31,-47,-17,-11
28,-159,-102,3,51,70,104,57,19,18
-30,92,-86,-104,129,256,41,83,86,109
22,180,-40,-14,149,145,-73,-44,30,104
-66,-112,35,379,8,-582,-287,-153,-61,-16
-135,-87,147,-5,-390,-1197,-498,-180,-88,-92
-46,28,71,-437,-537,-695,-261,-40,6,-53
-40,-8,-77,-183,-101,209,118,114,92,-9
30,45,7,-21,234,608,271,117,101,72
113,86,100,292,105,399,154,45,73,73
-17,-4,23,279,-26,-20,-6,-15,35,-18
-96,-130,-151,-295,52,-119,-29,34,51,-49
57,-100,-154,-330,87,154,120,143,131,63
-3,11,-9,-273,200,275,130,39,25,-6
-178,20,100,68,60,136,20,-109,-131,-155
-102,-16,101,431,-2,40,-81,-157,-133,-90
86,31,91,222,-47,-8,-112,-122,-69,58
45,11,28,-97,-60,-83,8,16,16,74
53,20,-25,-56,-60,-46,88,85,80,36
212,110,-10,40,-105,-45,75,62,75,54
188,63,-45,17,8,22,39,27,25,5
31,-28,-103,31,279,228,71,75,19,-75
100,138,-87,0,80,205,100,148,75,20
216,49,-186,-35,-16,123,141,155,136,165
39,-205,-112,35,60,123,110,79,125,119
-561,-79,294,91,-31,-31,-159,-203,-124,-236
-582,-125,243,77,-21,-133,-274,-264,-207,-311
-123,-89,0,53,-8,-369,-121,-88,-51,-48
145,-12,-73,-77,-257,-438,-62,3,48,112
112,7,-89,-234,-195,-241,-124,-8,63,75
35,104,0,-108,32,-146,-45,41,77,31
122,115,74,50,165,60,105,93,94,32
120,12,-3,-3,117,316,182,100,88,32
33,-11,10,255,126,310,124,27,26,-3
96,22,51,103,102,67,58,-19,14,-3
79,14,35,-186,-56,-65,24,38,21,37
-20,-20,-47,-78,-84,-14,44,128,14,25
-70,-26,-40,56,-5,41,41,103,-10,-31
-53,-47,-55,46,-32,-76,41,17,-50,-34
-30,-53,-75,3,-41,-19,17,-86,-49,-12
-23,-17,-35,42,144,465,-14,-150,-57,-28
38,98,24,-18,-61,32,-46,-68,11,26
-14,93,66,21,-75,-247,-27,2,17,43
-109,-17,54,164,217,131,51,-43,-63,-51
4,-47,6,133,198,291,69,-59,-79,-73
253,91,43,165,-82,1,-21,-45,-46,7
153,115,55,231,8,-242,-36,-4,25,89
-28,38,32,197,172,12,-12,-6,38,66
-84,3,71,-35,-182,-120,-103,-104,-22,-23
-193,-81,-82,-617,-282,-234,-176,-104,-91,-116
-70,-34,-229,-843,-188,-313,-45,89,49,18
160,17,-57,-183,-66,-128,91,163,173,147
98,-6,47,99,74,170,168,155,193,100
-88,6,178,249,70,167,48,10,44,-70
-97,-26,132,344,114,115,-61,-79,-76,-96
-40,14,-11,34,70,31,-34,-33,-55,-4
69,105,-132,-173,-34,-33,-10,24,1,71
301,238,-150,-66,-32,-190,-69,-1,9,112
169,-77,-80,84,31,-209,-126,-67,-53,4
-302,-203,92,121,4,49,-55,-81,-115,-168
-316,-93,81,46,-77,137,67,16,-54,-163
62,-78,-80,-65,-8,201,130,94,97,74
139,-130,-37,-117,40,131,135,107,180,183
-162,-52,128,33,77,-50,20,0,29,-72
-198,0,66,38,39,106,28,-24,-85,-175
-9,87,-10,10,75,275,166,65,-40,-48
80,17,-19,53,156,172,152,44,-33,47
40,-24,49,133,106,-64,-55,-72,-104,32
32,44,50,82,-121,-373,-241,-101,-98,5
118,93,-7,-44,-124,-345,-157,6,1,31
64,0,-18,-103,37,66,-3,37,10,2
74,-81,-48,-112,29,35,-59,-24,16,63
32,78,5,-65,-65,-134,-127,-19,29,46
-13,178,84,3,-175,-199,-46,22,32,-41
-3,52,61,190,-171,-233,-123,-55,-45,-56
-23,-74,-41,194,-63,-20,-160,-144,-120,-60
-147,-189,-181,-237,135,188,24,-59,-87,-78
-134,-91,-104,-326,93,154,174,87,34,-15
-96,-20,31,18,119,253,225,112,42,-28
-98,-65,10,122,99,512,227,54,5,-82
-60,-26,32,141,184,678,105,-36,-6,-55
47,77,63,54,258,124,-90,-102,-17,15
235,97,18,-75,-163,-978,-259,-78,45,135
254,-15,-11,-83,-515,-1113,-176,50,136,188
70,50,4,26,-131,-271,-8,46,53,47
-12,78,36,151,140,272,67,-9,-31,-53
6,-43,-40,85,75,209,35,0,-53,-8
33,-25,-114,-103,-141,29,-37,1,-52,43
13,10,-137,-117,-137,27,-44,3,-67,-12
-30,-38,-101,-100,-94,163,83,86,-4,-11
-71,-37,-6,-139,74,177,127,115,59,62
-31,-18,8,-44,114,29,82,45,64,50
-81,-17,-12,-64,-93,-6,43,15,77,-16
-72,-7,-5,43,-12,111,66,13,73,-17
72,101,79,196,179,304,141,53,61,12
127,94,64,103,110,249,138,74,29,12
49,-79,-38,-6,130,237,154,110,68,34
-88,-76,59,50,150,-1,-61,-96,-72,-96
-29,30,136,66,-104,-401,-248,-234,-163,-96
57,86,102,76,-204,-496,-106,-61,-22,6
-13,69,33,129,-79,-200,-50,-24,23,-3
-29,63,-11,467,72,185,-104,-119,-78,-48
75,-57,-78,84,147,241,24,23,15,50
5,-31,-6,-173,229,146,118,124,85,87
-186,52,38,-304,28,0,0,-45,-99,-91
-159,-68,-24,-435,-302,76,-83,-109,-150,-122
-49,-71,-41,-13,-566,-264,-161,-92,-64,-35
36,-61,-133,-227,-196,-337,-19,56,49,62
160,48,-125,-497,258,187,140,151,127,119
176,156,101,309,146,124,3,-12,8,46
151,85,117,544,-29,-141,-107,-128,-89,-40
80,-64,-51,-58,38,-158,-139,-88,-71,-57
-52,-201,-147,-339,-71,-180,-108,85,42,5
-169,-169,-92,-243,-117,-175,15,174,114,48
-185,-61,-5,142,8,3,92,54,24,1
-74,16,82,292,66,162,104,-45,-6,-2
24,68,155,48,119,284,134,-26,73,36
-14,69,111,35,188,349,186,52,130,7
13,14,-26,16,120,283,235,141,208,37
85,35,-27,44,50,285,155,118,170,41
52,20,-38,65,59,257,9,48,18,-4
25,54,-38,47,-46,-184,-117,35,-57,13
55,140,-21,4,-81,-475,-144,46,-55,63
151,109,-74,-68,73,-225,-122,-33,-77,98
165,-110,-114,27,231,229,28,-41,-73,97
-11,42,111,185,92,283,75,-57,-101,-18
-179,175,340,111,-180,-7,-145,-252,-257,-239
-291,-90,115,-52,-183,-97,-165,-232,-224,-199
-164,-191,-71,-45,-120,-221,-148,-129,-92,-68
46,-64,-40,104,-51,-355,-219,-91,-8,-14
98,-6,-20,117,156,-234,-140,-14,56,30
67,-51,-69,-1,59,-191,14,61,111,59
46,-45,-36,-75,-16,133,154,110,111,71
7,67,40,-75,15,303,241,124,104,96
28,84,42,173,-76,28,34,-17,49,113
-9,-11,-96,-179,-114,-170,-107,-46,10,50
-165,-17,-72,-538,-115,-88,-3,104,65,-5
-212,65,6,-167,-29,36,37,100,-6,-111
-25,-10,-35,120,40,219,55,41,-68,-168
253,-79,-59,100,73,298,108,25,-55,-86
205,2,-28,57,-14,-66,7,-12,-32,2
38,36,1,54,-102,-246,-126,-48,-38,8
-3,-6,-1,30,-110,-191,-134,-5,14,55
-14,-13,-22,-15,-55,-50,0,56,52,67
-103,109,-58,0,84,212,85,34,34,6
-13,150,-59,24,126,246,79,39,45,59
34,-277,23,92,109,203,52,57,55,87
-169,-178,209,126,131,142,-17,-46,-65,-93
-119,-23,118,-52,161,16,-54,-119,-133,-150
140,20,-8,-116,-84,-262,-27,-53,-50,19
242,50,-3,98,-262,-411,4,3,-1,82
155,69,63,122,-89,-148,32,2,-34,10
21,30,66,-9,40,153,-1,-31,-56,-31
-129,-12,-27,102,47,182,-3,13,-16,4
-168,37,-11,334,44,181,126,139,72,87
-115,11,5,122,33,273,128,90,50,25
-123,-90,-66,-315,-75,41,-84,-147,-112,-143
-23,-9,-161,-579,-188,-414,-230,-199,-119,-124
191,215,-161,-311,-28,-506,-212,-60,33,66
322,330,-132,41,-92,-310,-62,96,149,177
276,94,-29,160,81,127,108,126,123,124
50,-386,135,199,161,333,150,87,66,44
-321,-319,312,138,7,93,-34,-84,-92,-135
-503,-81,289,-4,-136,-192,-200,-231,-253,-317
-247,-83,-8,-108,-133,-108,-89,-106,-168,-172
41,-196,-201,-89,-132,100,63,56,3,39
45,-46,-63,31,62,223,118,69,27,54
25,72,32,33,190,200,118,34,0,16
13,-70,-45,66,55,90,93,14,1,18
-4,2,-25,247,4,164,109,31,61,46
42,163,-23,-184,24,99,141,128,158,102
76,89,-99,-454,-118,51,97,167,176,111
13,0,-71,-33,-38,143,51,101,67,22
-71,-37,-36,195,82,88,-11,67,-11,-42
97,55,76,108,35,-306,-106,29,-28,-24
254,97,107,7,-31,-443,-162,-65,-67,-45
44,-31,-7,0,-52,-357,-175,-89,-28,-5
5,-6,14,97,-112,-380,-308,-172,-21,120
181,159,109,148,-230,-353,-368,-233,-94,88
-78,-61,-125,-414,74,112,-7,14,-31,-39
-360,-229,-237,-556,276,562,363,276,88,-107
-78,21,74,49,207,464,286,121,3,-38
109,123,194,242,195,146,64,-82,-110,15
37,58,94,158,24,-81,-8,-81,-96,13
48,36,57,104,-21,-92,-15,-43,-43,37
93,80,24,9,93,43,22,-1,-9,25
93,117,-54,-147,99,-4,47,20,7,-5
32,20,-115,-44,-39,114,52,19,-2,-34
-117,-149,-77,432,-29,90,-70,-81,-100,-100
-161,-99,21,193,-11,-260,-209,-107,-77,-53
-13,31,-7,-422,-211,-411,-163,25,67,98
82,17,-76,-264,-160,-144,-49,93,62,109
0,-36,-65,-75,31,60,-48,30,-45,-29
-135,-109,-26,315,54,161,0,-36,-85,-120
-69,-101,46,400,-22,146,67,-61,-17,-56
113,44,53,-320,-85,142,141,-3,123,87
130,121,9,-415,65,346,205,62,160,88
33,46,39,35,132,111,70,-15,29,7
-31,-1,28,122,-30,-389,-122,-100,-64,22
3,40,60,65,-118,-423,-141,-82,-78,16
79,63,83,46,-30,-110,-65,-32,-92,-35
56,66,54,88,75,140,24,-3,-120,-68
-89,-7,-37,104,95,178,66,19,-86,-54
-102,-82,-85,51,99,227,0,-29,-54,-30
39,-33,-79,-6,-88,75,-100,-39,-19,66
115,58,-49,-154,-235,-242,-70,58,87,109
50,71,7,-91,-82,-151,17,96,118,62
-32,6,7,125,123,128,134,83,81,13
8,-53,-12,104,209,397,235,120,102,48
5,-80,7,-109,148,566,213,62,57,20
-173,-116,31,-69,-151,140,-39,-169,-146,-176
-184,-121,-33,50,-283,-348,-191,-166,-155,-177
-23,3,8,35,-245,-847,-185,35,54,35
12,111,129,491,-27,-661,-55,132,168,111
-32,77,164,481,51,-21,28,25,47,33
17,-89,-1,-403,159,302,-47,-147,-143,-107
143,-225,-246,-969,257,511,79,-42,-101,-115
220,-55,-108,-282,80,247,242,169,77,11
128,106,39,372,68,180,254,198,155,175
62,139,74,188,1,158,127,129,117,141
-6,96,53,-4,-127,-159,-121,-51,-36,-53
-143,-1,-27,-2,-128,-198,-250,-158,-140,-160
-229,-11,-39,100,-27,-235,-230,-134,-101,-110
-132,43,-85,-76,31,-292,-164,-38,32,1
-5,122,-54,-85,-52,56,25,61,117,89
19,-6,-61,131,-18,504,281,155,128,106
-7,-167,-119,141,261,789,415,154,91,57
-10,-10,13,133,434,473,240,29,-11,-32
-35,260,312,36,-95,-567,-95,-88,-108,-112
28,-1,226,-111,-348,-1000,-401,-148,-112,-106
80,-166,-15,-77,-165,-520,-380,-133,-29,17
-40,-133,-46,74,48,-11,-107,-53,33,52
45,1,27,115,107,144,30,-96,-43,-18
171,171,62,77,143,334,35,-121,-116,-1
14,170,28,-19,-10,158,20,-33,-42,118
-12,-55,-78,-83,-173,-59,94,90,65,98
-127,-158,-94,44,-84,-15,82,118,65,16
-84,-28,-29,29,62,-73,-94,15,13,-12
-13,57,8,-34,60,-71,-153,-55,-45,-68
-23,16,-35,2,-19,50,16,-11,-66,-102
-22,31,-117,-128,-84,176,148,75,-4,-42
124,147,-132,-159,-64,142,128,103,84,80
229,69,-104,106,46,65,102,108,179,160
26,-203,90,196,165,148,102,68,130,60
-237,-142,265,106,104,8,44,-20,-3,-98
-133,21,143,-3,15,-164,-8,-25,-26,-61
4,54,12,-62,-89,-132,-29,-26,-28,19
4,6,2,45,-111,-190,-118,-89,-90,0
-7,-22,-6,63,-42,-87,-121,-72,-122,-42
42,71,-11,-100,81,164,6,24,-72,-25
83,-17,-38,-74,140,180,68,86,22,35
24,-94,-25,39,86,69,35,52,46,25
-56,-18,-2,36,0,-9,-1,-28,18,-30
-35,21,-28,27,-85,58,28,-44,-4,-46
-2,25,-11,132,-144,134,89,8,18,-2
5,-19,-96,-101,-35,55,110,53,38,14
15,-24,-157,-372,69,76,90,31,30,18
63,28,10,54,89,134,-50,-76,-33,0
97,35,85,332,37,-185,-220,-74,-38,34
16,36,90,-135,-61,-359,-246,-33,-29,17
-118,-37,6,-362,-57,-186,-111,-18,-37,-25
-98,-42,-20,-37,-42,-96,-5,24,8,4
-18,-8,55,377,-43,-129,-29,2,21,5
92,29,67,129,-40,-26,-33,-51,-17,-15
36,-24,-9,-183,30,220,39,-32,-27,-32
-27,-59,-34,-87,89,166,99,1,-1,-8
-11,-36,-10,-4,-3,-29,110,21,2,15
32,8,-6,-17,-45,-26,104,86,15,36
14,10,-31,-34,-12,90,65,123,4,9
-1,1,-56,-19,70,274,74,94,15,-3
-29,-43,-114,-56,53,245,101,77,83,2
-46,-59,-122,-61,0,38,97,99,196,6
50,-51,-59,25,10,-53,25,34,178,58
249,44,37,81,-11,-133,-142,-97,38,147
-72,109,91,48,63,-116,-211,-121,-101,-46
-317,132,115,165,59,-165,-232,-120,-179,-197
-71,81,72,199,-176,-452,-233,-186,-176,-60
300,198,145,312,-218,-609,-187,-134,-107,98
323,141,-11,78,-96,-5,36,48,16,127
28,-172,-219,-489,117,554,247,134,85,41
-161,-283,-16,-538,19,442,189,28,-42,-110
-259,-103,221,-216,31,214,102,-45,-138,-184
-78,-156,128,185,64,-15,29,-32,-83,-58
104,-6,2,164,22,-312,-81,-28,-14,56
68,168,-6,21,68,-262,-115,1,33,47
-21,101,-19,86,116,49,5,23,34,22
-98,-46,-55,177,33,355,187,28,-23,-53
-102,-89,-113,125,59,422,231,11,-53,-88
-2,-16,-69,-58,21,255,130,33,17,24
60,51,12,-46,-101,-13,-58,0,32,45
128,105,21,58,-111,-391,-215,1,31,42
94,15,-55,-74,-80,-515,-105,84,93,59
-89,-93,-53,-17,-141,-243,13,61,23,-35
-198,-133,-2,89,-119,117,-4,-73,-78,-100
-52,-60,1,-31,-15,24,-109,-128,-67,-59
182,110,82,-117,52,-246,-139,-65,35,57
186,165,125,-219,-18,-150,-109,0,95,127
8,80,30,-139,-94,8,-71,26,60,70
-72,32,-86,-23,-112,-79,26,80,64,30
22,-1,-107,6,-5,132,169,124,107,52
-19,-50,7,88,185,422,241,114,91,19
-229,-31,162,135,191,346,133,-22,-56,-110
-199,-101,79,68,24,38,-41,-107,-141,-144
27,0,-50,-18,-133,-323,-164,-43,-38,-11
135,42,-106,-91,-142,-453,-252,-36,34,81
96,2,-105,-99,-28,-114,-118,-31,18,22
105,-12,-61,-14,116,238,109,23,0,-9
169,-12,-38,-38,202,338,157,25,-25,-9
170,1,-14,-61,127,288,67,-35,-54,-18
104,23,28,193,-246,-102,-63,-51,-43,-5
-98,-6,1,221,-286,-227,10,33,21,44
-235,41,60,-50,9,48,138,43,-5,-11
-156,84,67,16,169,289,91,-41,-72,-80
104,36,-78,27,153,267,59,26,60,57
293,28,-85,111,53,-132,43,149,238,250
181,-34,-35,160,95,-255,80,199,281,258
-163,51,228,-182,-32,-187,-17,-12,0,-57
-386,-36,237,-347,-241,-16,-139,-267,-321,-341
-258,-210,-40,11,-51,38,-69,-162,-252,-242
-102,-41,-2,123,114,-23,-50,-37,-97,-105
30,34,-49,-91,37,-58,-64,27,42,-9
63,13,-145,-121,-124,-221,-140,76,117,42
-94,-7,-57,245,-123,92,-99,67,61,-34
-192,-70,6,580,41,186,39,31,11,-79
-7,-113,-81,52,266,-32,164,100,104,68
226,-18,-37,-177,20,-143,156,156,173,196
89,23,3,-212,-94,-40,16,-4,8,26
193,214,-24,-343,-58,66,-55,-151,-156,-15
369,404,-52,-228,14,228,61,-40,-44,93
115,67,-69,136,17,218,118,73,140,141
-68,-394,169,282,53,23,-47,-48,103,97
-195,-156,370,79,215,-90,-180,-211,-130,-140
3,55,183,-89,5,-221,-69,-111,-179,-145
4,59,1,24,-45,69,79,10,-102,-41
-199,-24,-61,55,57,264,112,30,-92,-72
-124,-11,-45,-2,48,133,23,-4,-78,-49
12,4,-43,-16,-25,-172,-83,-1,-18,40
58,4,-56,-2,-41,-209,-109,-6,0,41
42,4,-44,6,32,97,-56,-17,-41,-33
-58,-32,-30,29,63,132,-49,-7,-35,-62
-43,-8,-22,28,-10,-121,-93,4,31,-26
107,57,-28,-76,-161,-277,-90,32,99,62
201,42,-27,-80,-145,-223,-48,53,121,142
118,8,18,21,-34,-82,1,36,76,139
-109,-47,47,60,-1,89,7,-33,-50,-53
-204,-89,0,40,33,278,67,-28,-99,-165
-134,-32,-19,28,153,284,112,3,-48,-127
7,0,1,-21,87,177,133,66,68,6
37,-42,8,13,-31,96,108,56,74,78
-27,-12,-14,0,-1,32,21,-3,11,38
-36,19,-41,-177,26,57,-54,43,1,9
6,31,0,46,-64,-160,-125,51,-4,8
36,-9,-46,-7,-190,-365,-101,37,22,24
82,9,-62,-220,-152,-206,72,43,91,49
73,49,-31,-63,25,-188,28,-21,101,29
43,35,-20,-5,-2,-71,-50,-37,82,15
7,29,30,8,-49,45,-57,-8,34,3
-39,33,57,65,101,65,-50,36,2,-13
-47,3,27,117,104,338,93,69,-7,-25
19,50,66,92,-98,486,212,36,-21,3
13,40,100,159,-14,192,118,-61,-68,2
-41,-75,-54,-164,161,46,93,-20,-34,-6
45,-40,-82,-227,6,-145,14,61,82,67
132,49,39,170,-19,-411,-235,-87,37,62
44,41,38,38,37,-199,-336,-205,-71,-22
-37,1,-11,-33,-167,-266,-204,-95,-29,-12
-129,-1,22,230,-307,-303,-61,-2,0,-55
-54,35,37,-59,-13,72,150,102,70,-10
86,80,34,-386,55,307,242,133,117,97
64,46,7,-70,49,253,186,36,21,45
65,-21,-49,75,109,188,132,-29,-36,-13
-95,-115,-129,52,259,435,62,-44,-74,-90
-126,-95,-86,158,185,312,-92,-14,-62,-76
94,97,62,81,-258,-631,-206,57,81,123
109,146,124,-66,-388,-843,-222,-34,31,88
-60,-9,1,-56,-56,-3,-36,-79,-80,-67
-122,-77,-47,44,162,390,115,-48,-88,-106
-87,47,-5,61,133,310,121,-24,-45,-63
47,219,-53,25,9,106,100,-3,9,21
131,-65,-154,7,1,-33,98,58,84,95
-117,-359,7,161,145,73,55,53,56,4
-277,-121,276,267,86,115,-17,-29,-45,-150
-116,-19,170,215,-6,39,-40,-69,-71,-114
60,24,-63,-252,-19,-131,28,-14,-19,-20
55,39,-160,-385,-45,-254,90,120,110,74
-73,67,22,338,154,31,139,156,139,81
-47,5,60,288,186,200,92,63,73,73
195,-8,-52,-237,-107,-126,-165,-119,-39,56
201,-1,-135,-570,-276,-317,-258,-163,-131,-70
88,28,-62,-411,-238,-157,-129,-50,-71,-91
-85,-55,-32,128,-68,114,17,21,-27,-74
-3,-48,-24,493,106,292,139,53,4,13
224,102,77,189,163,132,107,0,12,114
73,147,83,-213,25,-173,10,-14,8,78
-13,-20,-43,-277,-91,-245,-29,48,28,61
-27,-72,-43,-40,68,90,56,38,20,-54
-113,-33,-10,209,101,176,58,-2,8,-109
-72,72,50,155,49,211,53,15,48,-51
-23,22,65,15,-19,75,3,-16,24,-22
-99,-293,-83,41,-4,-53,-67,-50,-22,-20
-107,-140,-73,-63,-54,-91,3,29,18,42
-53,210,54,-167,-96,4,91,110,73,62
1,75,17,-53,9,246,194,132,75,18
140,9,-37,-18,116,199,172,99,86,54
195,54,-22,17,36,-224,-115,-21,12,55
152,77,31,112,11,-194,-240,-100,-60,28
53,27,25,113,63,-37,-137,-86,-114,-25
-111,-55,-21,95,-19,-271,-150,-89,-135,-45
-150,-57,-23,154,-60,-133,-161,-72,-78,-39
-103,-19,10,-88,-186,-302,-92,4,26,-12
-39,-6,-40,-226,-158,-159,34,75,91,50
139,94,3,-62,1,238,85,2,53,116
300,229,134,144,90,249,20,-125,-40,76
169,270,111,233,94,161,21,-87,-70,-23
50,-134,-208,132,146,142,182,99,70,29
13,-91,-151,133,220,46,166,123,120,108
-187,134,254,-171,-105,-109,-76,-103,-69,-32
-328,-311,290,-250,-45,-27,-162,-161,-176,-152
-367,-366,109,-148,48,-59,-123,-92,-170,-211
-194,-45,-64,-113,-130,-255,-127,-62,-117,-153
-48,33,-122,-25,-96,-6,-33,-2,-36,-76
4,-45,-162,58,1,161,82,92,66,4
58,64,-87,43,-101,-45,96,115,118,72
88,107,-42,-1,-43,-65,40,48,67,53
102,-11,-72,-55,90,62,-4,10,64,27
101,3,-58,-164,42,18,16,6,61,28
72,9,-8,156,-65,-27,63,26,27,17
79,23,76,392,19,216,129,30,-19,-10
92,-24,105,-115,229,465,170,9,-24,-32
91,-108,40,-179,412,558,135,0,4,3
31,60,74,100,349,266,7,-8,83,96
-62,185,122,303,-224,-642,-236,-59,70,78
-33,102,56,208,-858,-1202,-267,-18,40,38
-42,-68,-118,-129,-332,-404,-2,67,42,-20
-42,-81,-209,-254,519,551,291,231,135,50
68,88,16,139,389,314,172,157,118,110
14,34,66,63,-186,-243,-123,-57,-52,-16
-170,-129,-70,-528,-467,-323,-247,-104,-154,-178
-159,-158,-207,-647,-85,6,-60,14,-48,-113
-26,-36,-88,-63,110,204,82,36,44,-20
41,54,102,278,65,124,72,-34,51,34
-21,15,63,200,55,177,109,-8,43,21
-46,40,3,102,76,264,129,26,20,-25
102,350,1,36,3,67,-27,-57,-2,8
170,191,-20,25,-30,-166,-111,-58,-5,84
49,-323,51,104,103,-30,-21,27,-25,22
-169,-211,152,102,124,164,27,7,-97,-120
-52,-165,65,127,112,78,46,26,-43,-26
290,62,96,126,63,-125,31,35,60,171
233,218,112,90,-147,-295,-136,-116,-43,117
-24,100,30,70,-231,-156,-175,-173,-87,-39
-22,-82,-96,-104,12,169,10,-77,-30,-100
7,-142,-198,-359,111,196,50,-32,-32,-71
39,5,-73,-246,54,35,-69,-39,-63,21
139,173,48,27,14,-228,-169,-27,-64,68
93,119,68,229,-127,-301,-152,-13,-75,2
5,-54,1,-109,-173,-50,8,39,-42,-11
-118,-132,-72,-162,0,165,128,83,-2,-27
-168,-64,-33,67,124,248,138,68,-29,-61
-129,-15,20,138,110,215,111,67,-15,-38
-150,-8,52,134,127,175,65,18,-35,-49
-191,-27,39,26,64,142,55,-33,-88,-79
-122,-34,-5,-63,-68,40,49,-31,-78,-59
4,-12,-20,-118,-11,115,95,19,2,-11
19,-18,-1,-33,187,451,178,21,26,2
23,-1,47,171,212,502,105,-1,0,-11
29,12,43,230,124,33,-55,-9,29,8
89,32,-45,-251,-157,-682,-202,54,119,108
107,76,-75,-343,-405,-1350,-265,108,144,130
69,178,-15,-94,-200,-634,-206,39,58,48
-45,4,-66,-24,71,414,8,19,-37,-73
-158,-273,-144,329,27,706,175,77,-45,-105
-43,154,-63,52,121,448,144,27,-8,-19
287,433,-127,-348,-21,-161,1,38,105,177
469,-191,-119,-136,-199,-584,-139,75,231,328
-51,-178,403,199,-55,-425,-269,-129,0,6
-384,-38,439,167,30,-117,-265,-236,-232,-265
-210,-142,55,36,100,183,-51,-103,-153,-179
22,-48,-85,9,113,275,96,-3,-37,-38
192,93,-49,28,-21,24,55,0,5,41
112,59,-18,66,-67,-112,-39,-22,4,53
-145,-76,-47,35,50,122,63,12,-19,-14
-107,-63,-45,-49,164,276,135,2,-69,-25
-16,48,-7,-38,179,231,79,-56,-98,-24
-46,15,-9,162,47,213,15,-54,-90,-39
52,43,68,528,3,105,-14,15,4,39
113,61,52,281,74,27,5,29,54,64
96,0,-64,-402,-223,-210,-27,0,13,24
11,-99,-157,-566,-287,-323,-101,-73,-94,-90
-11,-70,-118,-392,-19,-141,-27,-24,-49,-55
-40,-37,-103,-176,77,-12,30,15,4,-6
-135,-68,-98,296,10,7,-4,-17,-35,-15
-92,36,30,310,22,-129,-34,9,41,47
56,148,176,-37,-73,-161,-77,40,105,111
63,19,123,-11,-161,-28,-67,19,64,24
-51,-87,-43,-76,-65,-8,37,40,34,-69
-68,-13,-41,-57,112,83,103,53,33,-37
164,10,39,126,189,339,67,-4,13,84
365,57,70,204,140,255,29,-12,-9,103
120,99,85,39,-57,-57,29,27,-32,-20
-340,-37,-23,-168,-143,-63,19,19,-65,-118
-372,-177,-115,-183,-22,142,71,48,-60,-109
-16,-102,-45,-6,168,258,169,145,8,-35
254,56,-59,2,56,103,105,153,79,111
122,53,-39,176,3,37,-40,-23,-14,53
-82,13,58,231,-67,-211,-178,-176,-105,-76
-24,84,86,-192,-186,-479,-308,-128,-25,-5
77,84,35,-235,-125,-349,-332,-96,2,72
-14,-72,-104,-149,-47,5,-141,-61,-18,39
-57,-77,-77,-23,-123,128,74,48,12,31
-55,-20,49,-23,-51,161,174,84,30,22
-51,-25,-2,3,67,253,180,89,32,-7
29,74,-17,127,125,269,162,55,37,1
160,40,-68,93,65,93,121,86,117,90
135,-45,-37,116,82,56,85,111,155,128
-92,119,292,205,53,-189,-112,-114,-79,-73
-180,-53,267,129,-74,-386,-318,-322,-298,-225
-202,-192,4,50,-71,-252,-263,-216,-229,-193
-48,-128,-143,-119,-143,-231,-118,10,-5,-36
189,43,-160,-398,-15,-49,0,98,110,138
265,207,-109,-294,13,84,69,91,103,194
100,100,-70,10,-3,131,143,155,157,168
-163,-60,20,93,-9,104,102,66,55,-43
-302,-157,23,19,-79,60,-37,-104,-132,-227
-192,-116,-17,-36,-21,65,-8,-83,-142,-191
11,0,-27,-135,18,20,72,5,-31,-43
68,10,-13,121,63,20,62,0,8,9
60,-2,19,330,125,184,40,-20,12,17
5,-33,45,-116,34,321,118,23,19,4
-40,-24,22,-191,-109,3,56,36,32,15
-45,-9,-9,15,-113,-206,-64,-29,-1,34
42,-31,-24,163,-137,-345,-107,-39,-30,30
118,-23,0,220,101,-417,-139,7,-34,33
156,64,42,-190,94,-193,-46,66,37,72
105,69,28,-190,-7,159,63,55,80,73
26,42,-3,40,30,202,107,29,120,52
-21,31,-7,108,7,61,46,10,154,22
-32,41,-8,83,18,11,3,-30,82,-23
-63,47,-62,20,56,101,-4,-42,4,-43
-11,68,-80,7,65,151,-37,8,-13,8
202,34,-23,34,-14,-71,-15,79,25,102
96,15,133,73,-18,-129,-3,29,-39,26
-124,-33,201,58,-82,-25,-61,-123,-202,-117
-96,-84,66,-15,-98,107,-20,-129,-221,-104
-41,-78,-33,47,268,318,79,-36,-138,-73
37,7,-2,317,480,316,178,80,-19,26
62,97,72,478,158,-78,109,111,61,85
-55,68,105,286,-420,-486,-116,-28,-7,-20
-290,-154,-66,-327,-608,-375,-193,-133,-101,-162
-232,-232,-270,-1007,-79,68,23,-1,3,-61
-12,-42,-164,-694,345,230,161,111,134,118
214,141,85,117,84,20,39,11,87,126
230,180,113,333,-99,-118,-65,-57,7,-3
28,148,25,212,-9,28,-40,-30,-47,-104
7,102,-60,77,138,82,-19,18,-13,-44
-26,-74,-208,6,95,0,-2,79,90,80
21,-232,-120,24,4,126,63,91,125,144
36,-30,206,66,-19,145,41,-39,-1,29
-130,194,204,-25,-100,40,-25,-108,-111,-122
-218,-113,-43,-37,-28,54,-13,-4,-5,-61
-125,-191,-33,34,11,-39,-11,28,62,30
-11,-35,49,-20,4,-151,9,16,34,51
133,40,83,-26,36,-144,50,42,47,98
273,47,79,62,164,-15,26,-5,-20,61
193,18,35,63,106,162,55,-49,-95,-1
-123,-68,-41,69,75,331,168,-7,-103,-60
-280,-104,-87,67,82,387,150,44,-33,-67
-152,4,-55,-13,24,180,26,35,-1,-47
-12,71,-55,-73,-249,-528,-113,-4,-10,-76
54,45,-73,-114,-238,-616,-197,30,43,-42
-8,-27,-2,1,128,-52,-178,49,75,-10
-216,-129,9,296,46,15,-209,-108,-26,-69
-32,13,-16,161,-227,-229,-262,-173,-26,22
404,232,-34,-514,-270,-256,-126,-23,86,170
362,164,-99,-724,-134,-29,81,181,210,221
155,16,7,74,40,203,188,175,165,152
-34,25,125,556,114,137,91,-16,-26,-48
-54,152,137,10,24,67,91,-32,-44,-85
-49,24,57,-183,13,127,139,10,0,-43
-121,-125,-20,87,207,264,110,-12,-27,-83
-156,-120,-26,122,251,271,102,-16,-29,-89
-57,-14,-6,-19,81,2,92,32,17,-25
24,35,9,11,36,-123,56,18,40,25
-72,57,-4,197,-45,-139,-9,-15,18,-5
-81,304,-55,11,-133,-237,-117,-10,27,-20
237,478,-188,-221,-33,0,-36,52,95,107
353,-377,-194,15,191,403,149,155,193,238
-139,-431,296,356,147,229,70,20,19,-16
-278,-85,373,62,-180,-193,-150,-201,-216,-260
106,9,78,-161,-312,-395,-209,-178,-142,-72
209,80,-60,-113,-177,-351,-185,-118,-63,63
-113,-67,-123,-15,21,80,-5,-12,-53,-33
-203,-93,-60,79,107,328,139,32,-37,-100
-81,14,22,102,208,331,106,-12,-38,-78
4,55,33,69,329,300,88,19,49,33
70,49,-3,-100,-132,-399,15,78,143,107
13,-42,-37,-53,-310,-551,-77,-6,73,29
-22,-47,8,55,-42,-160,-26,-22,32,-10
27,24,58,265,200,132,81,80,81,42
37,33,65,346,226,316,137,141,100,66
-31,-13,34,-1,15,144,59,26,-2,-31
-77,-53,-87,-387,-165,-220,-122,-116,-120,-117
-13,23,-85,-394,-177,-133,-74,-13,-30,-35
-6,31,-71,-192,-50,214,87,136,60,20
-52,-46,-132,-183,205,376,192,140,59,14
-11,-28,-51,15,214,102,104,35,6,37
46,36,33,159,84,-127,-31,-47,-42,21
125,91,68,148,-134,-317,-151,-22,-43,7
120,97,64,141,-172,-153,-108,-1,-49,11
-83,-9,22,47,-123,210,66,9,-55,-22
-182,-57,8,6,26,455,133,-48,-87,-58
-20,18,13,-4,174,109,72,-110,-64,-7
14,40,4,2,64,-211,5,-83,-4,42
62,-10,-4,38,169,-83,-86,-124,-17,13
277,10,7,-10,1,-250,-88,-14,85,88
74,51,100,92,-242,-209,-77,20,100,47
-273,-66,73,268,-170,207,-48,-91,-73,-148
-313,-250,-188,-202,76,281,104,-1,-54,-120
-144,-132,-178,-272,-13,-97,20,1,4,15
8,206,38,-108,-208,-430,-248,-91,-26,48
75,229,12,-105,-82,-407,-274,-24,-8,8
60,132,-13,172,153,-135,-101,108,64,21
129,137,68,228,118,113,23,94,52,76
265,27,-27,-122,-35,176,88,62,19,46
459,-122,-235,-313,-107,270,204,155,111,118
385,-146,-197,-141,49,431,311,200,177,195
20,164,159,121,161,384,142,-34,-81,-45
-143,64,284,251,117,54,-76,-227,-268,-180
-167,-181,120,4,-93,-379,-178,-108,-113,-7
-240,2,23,-84,-137,-317,-68,72,68,87
-241,142,-65,31,12,-90,107,118,118,5
-220,-209,-34,62,28,69,153,16,6,-131
-241,-335,104,125,253,448,123,-67,-96,-159
-22,76,150,13,226,119,-182,-206,-159,-83
131,150,-26,-136,-287,-780,-425,-159,-122,11
-6,63,-62,162,-278,-560,-298,-76,-117,-71
-68,5,3,233,-74,72,-34,5,-76,-89
1,-5,23,63,-13,255,97,38,-22,-12
81,14,-110,-363,111,188,122,96,46,72
209,57,-145,-359,121,117,90,106,75,120
132,-46,-51,192,63,133,72,65,59,58
-93,-122,-46,206,138,237,101,38,21,-35
-64,95,-12,-146,152,271,94,-18,-38,-44
166,135,36,-61,-85,-125,-42,-80,-55,50
106,-77,49,65,-227,-343,-133,-77,-22,48
-177,-32,97,141,-318,-280,-126,-32,-12,-77
-106,-33,65,26,-67,-218,-58,-8,-16,-84
-13,-123,-104,-321,264,-19,56,1,19,-25
14,-76,-42,69,177,262,114,12,64,50
27,25,66,191,213,501,157,19,91,76
10,36,34,-52,179,342,137,44,96,22
-58,-60,-85,-52,-22,-79,39,70,78,8
-2,-7,-65,-8,-196,-238,-68,71,59,60
102,126,5,-77,-290,-426,-118,60,49,112
43,124,10,-19,-30,-127,-114,-19,-33,22
-1,106,-58,42,24,9,-36,-15,-50,-25
52,-13,-132,-2,-25,28,112,88,53,64
30,-99,-41,12,47,253,236,150,101,77
-144,-73,146,27,65,284,125,3,-68,-120
-93,-103,94,99,28,85,-60,-127,-148,-151
65,20,21,65,-16,-133,-228,-170,-136,-66
109,71,10,-91,-114,-294,-281,-97,-58,7
102,40,0,-99,-131,-354,-77,94,73,64
28,35,75,257,211,100,133,130,78,42
-43,0,105,424,269,300,202,94,72,28
-96,-47,59,68,38,223,112,-38,1,-29
-95,-125,-51,-411,-207,-59,-113,-167,-70,-87
-87,-222,-200,-575,-176,-155,-108,-60,9,-30
6,-2,-119,-173,10,-46,-14,82,141,97
73,255,24,103,27,99,36,97,100,75
19,103,12,111,-31,190,102,108,13,10
-14,-23,11,76,-30,38,101,67,0,7
65,-1,17,16,-33,-166,-19,-8,-9,48
98,37,57,47,24,-244,-177,-103,-51,24
80,83,59,43,-33,-244,-204,-98,8,24
18,10,5,35,-85,-157,-93,-50,60,0
-79,-89,-33,3,-72,-20,11,-53,-8,-63
-109,-62,-10,17,36,121,61,-80,-106,-115
-40,95,-25,75,151,249,54,-92,-116,-98
118,171,-74,-16,38,234,70,-13,-10,28
63,-158,-50,-58,-22,214,204,137,117,114
-234,-109,237,65,5,151,156,40,15,-35
-262,-64,232,130,64,196,57,-74,-96,-119
-167,-66,29,196,363,202,76,-11,-45,-96
-76,-57,-103,113,363,-49,46,98,28,-75
280,65,-97,104,-289,-328,3,180,92,50
518,178,-115,-172,-495,-365,-34,184,159,190
183,142,-25,-319,-335,-280,-163,-5,78,72
-40,-15,6,-129,-9,-276,-201,-204,-69,-105
-155,-109,-77,-343,70,-79,0,-101,30,-10
-266,-49,-17,-230,-70,55,44,7,158,134
-112,-9,38,113,-50,183,39,-2,108,85
233,20,56,212,90,179,88,-16,71,48
220,141,69,147,74,136,60,-38,40,11
-72,61,47,82,13,150,-30,-55,-31,-69
-195,-94,4,0,43,91,-82,-97,-127,-137
12,-22,7,-26,113,-155,-43,-42,-110,-72
68,0,-14,-17,-6,-212,-5,38,-34,-36
57,-56,-58,-46,-113,22,89,124,55,14
13,-60,-31,61,53,278,222,148,90,57
-92,-42,-11,7,197,341,222,72,44,49
-109,-7,-10,98,167,194,88,-13,-24,-17
20,60,26,406,12,-180,-103,-74,-51,-26
-1,77,22,164,-243,-460,-209,-79,-30,-12
-124,39,-58,-234,-164,-20,-167,-75,-32,-49
-81,-10,-91,-178,25,206,-82,-29,-23,-54
73,100,28,28,-81,-229,-81,6,19,18
199,444,63,-66,-254,-437,-152,-37,26,75
279,386,-150,-136,-212,-239,-107,1,51,133
160,-789,-321,-286,115,144,125,150,151,134
-320,-550,255,10,188,267,150,70,41,-79
-385,161,432,202,21,59,-19,-126,-133,-209
-111,49,74,120,87,110,27,-53,-60,-83
57,4,-32,27,183,218,108,41,8,25
131,54,10,-17,120,191,113,66,32,69
85,20,-1,-38,34,116,112,85,41,41
54,3,14,32,-10,-38,117,109,56,27
15,41,22,168,-20,-76,69,55,29,-3
-95,-60,-107,-29,14,123,35,-30,-21,-100
-59,-46,-123,86,265,542,208,46,69,-40
32,55,1,425,461,604,262,114,144,50
42,79,75,57,43,-79,9,23,68,58
-26,-2,-109,-623,-582,-845,-395,-152,-88,-15
-35,-56,-242,-761,-508,-910,-482,-156,-110,-23
18,63,-23,-252,-147,-590,-290,-62,-38,62
58,88,116,111,-8,-260,-194,-39,-51,44
113,43,89,125,59,50,-35,-11,-66,1
37,-16,13,92,115,389,163,36,-58,-22
-38,-19,-11,75,86,398,232,51,-16,-1
66,28,-46,95,22,330,222,76,79,106
117,-56,-98,91,38,287,193,105,161,179
-50,60,82,100,214,143,76,-28,22,0
-134,-44,219,58,185,-312,-152,-196,-181,-205
-81,-80,135,10,-50,-325,-140,-88,-122,-169
-84,-7,13,-17,-117,-50,-40,27,-7,-74
-50,12,-111,-120,-103,69,42,79,98,19
18,71,-118,-82,-1,187,95,98,137,54
131,105,-13,35,60,293,98,47,79,79
137,53,33,86,0,211,92,41,59,109
3,-53,29,64,34,-47,69,88,88,92
-29,-63,-37,-65,-50,-257,-53,48,58,54
-94,-32,-5,115,-140,-285,-211,-145,-124,-92
-176,-57,29,208,155,-62,-203,-239,-256,-202
-49,-45,13,6,266,128,-80,-105,-138,-70
42,-3,24,48,-136,-43,16,49,-6,45
63,0,0,56,-119,-43,166,133,69,73
120,40,55,44,129,142,148,24,8,39
41,36,19,-170,79,58,-32,-131,-87,-62
-26,1,-48,-312,-234,-185,-179,-135,-47,-28
-52,-28,-12,58,-133,-149,-72,-9,40,64
-228,-64,-20,97,199,99,87,62,52,6
-164,-46,-46,48,66,132,31,70,37,-83
200,62,-60,313,-287,-115,-112,67,68,-1
257,137,14,189,-422,-414,-211,-25,38,51
-29,-39,-107,-411,-30,-97,-31,3,20,-15
-35,-33,-121,-494,128,268,197,168,95,12
-27,11,8,7,197,419,191,192,83,28
-85,-78,36,155,258,348,102,100,10,-9
-14,-85,15,67,44,78,27,-19,-37,-21
83,55,59,100,-185,-3,3,-104,-44,-1
16,74,35,44,101,-87,33,-104,10,44
-34,32,43,-15,187,-285,-42,-90,38,52
133,86,113,188,-50,-359,-178,-152,-52,83
301,94,104,209,-191,-217,-219,-202,-144,95
15,9,97,51,-144,-7,-114,-135,-178,-77
-203,-103,-4,-54,-96,146,33,4,-98,-123
-131,-149,-170,-247,113,282,172,119,18,-17
57,41,-91,-127,218,225,155,85,30,55
108,201,46,190,101,111,38,17,-28,16
-5,56,-43,150,-124,-19,1,81,26,-6
-78,-279,-200,-158,-77,-10,-2,135,107,47
-204,-168,-78,-233,140,135,28,73,59,-17
-196,93,114,-24,36,-94,-3,-15,-18,-78
-104,51,83,63,-85,-167,-17,-43,-36,-59
-108,26,37,84,-62,-83,-1,-64,-30,-65
-94,26,34,71,-69,-138,-18,-57,-16,-65
6,26,51,115,86,247,-42,-55,-45,-60
150,-27,27,304,172,400,51,42,13,30
242,-97,-9,415,104,104,147,148,124,147
236,-21,3,20,-63,-57,122,94,89,84
178,53,32,-456,-237,-226,-61,-108,-91,-83
246,57,-2,-641,-41,-239,-140,-110,-68,-12
211,168,26,-144,194,-20,-138,-56,19,87
-99,129,-131,303,29,21,-130,-79,-2,57
-183,-18,-383,-30,-139,-3,66,118,152,132
-137,-109,-55,-250,-160,-169,190,282,268,138
-270,-103,382,186,-113,-188,0,40,29,-101
-309,-138,256,240,-129,-84,-161,-156,-157,-234
-105,-99,-13,-110,-51,-64,-102,-90,-121,-144
43,-17,-134,-88,98,125,13,-14,-62,-37
88,76,-96,44,114,180,55,33,-11,23
108,203,-42,74,47,113,68,25,10,53
132,112,-87,43,33,67,82,26,51,73
119,-213,-31,19,29,-33,90,85,112,109
-88,-73,195,39,28,-25,55,54,63,28
-209,73,195,32,40,-25,1,-30,-41,-56
-73,-36,69,38,75,52,37,-15,-39,-42
159,23,53,42,81,140,50,-16,-38,-3
91,42,32,10,-6,68,0,-36,-46,-23
-89,-46,-24,24,16,0,-67,-29,-54,-65
-43,-56,-49,20,129,56,-42,-21,-60,-54
18,-35,-60,51,52,-173,-44,15,-28,-17
77,25,-49,31,-74,-158,-55,18,11,34
120,125,-39,-125,-72,44,-67,-73,-35,9
11,25,-131,-154,-109,-25,-120,-113,-127,-87
-204,-162,-176,-114,-138,-224,-135,-58,-105,-78
-135,-81,-61,-278,-179,-63,-44,52,31,52
42,12,46,-58,8,117,95,82,46,46
109,20,72,126,199,103,131,37,31,32
109,84,66,77,203,100,47,-14,78,65
-43,109,19,-18,65,152,-13,-8,94,15
-48,10,-77,-139,-309,-206,-30,82,146,41
140,-73,-31,76,-282,-292,28,150,191,148
41,12,101,110,185,7,29,24,48,41
-62,32,115,45,246,117,-23,-81,-117,-70
59,30,72,50,96,105,9,-74,-177,-31
63,5,-2,0,-19,69,25,-42,-160,-16
-74,-20,-29,-9,-21,111,27,4,-146,-63
-152,-44,-39,-7,-2,120,18,30,-148,-113
-41,-37,-74,-20,71,126,-32,-4,-90,-5
-66,-4,-64,-74,17,-67,-125,-31,-41,88
66,75,-11,-2,-157,-430,-259,-36,-44,68
299,103,6,90,-140,-362,-167,-26,-44,9
86,-5,16,-6,36,97,42,18,-49,-97
-103,-102,9,-60,106,346,160,40,-41,-91
-42,-99,-20,-66,101,310,155,34,8,-11
0,-41,1,-61,18,114,70,-17,26,10
1,35,58,154,-64,-197,-59,-69,11,12
5,-3,-3,33,-140,-292,-72,-30,15,46
-46,-56,-33,-192,-74,128,120,60,18,45
-76,-52,14,-30,231,550,228,16,-38,-30
-46,9,73,69,262,272,44,-80,-61,-41
20,55,57,0,-42,-266,-147,-69,19,39
124,120,22,123,-172,-493,-201,-15,80,128
165,160,91,589,-76,-247,-96,36,56,133
45,66,77,518,50,-188,-57,-85,-77,-7
-145,-53,-83,-143,-83,-313,-221,-243,-213,-181
-85,-196,-375,-788,-190,36,-162,-98,-100,-99
-53,-15,-180,-789,-169,-8,-109,38,47,11
-172,3,220,-69,-211,-213,-157,-19,-9,-62
-41,-83,106,24,-66,-33,19,69,67,-2
21,-21,-39,48,219,369,168,112,61,6
-81,-21,-46,102,219,406,209,117,30,-5
-147,-11,3,123,79,56,164,80,22,-23
-68,39,49,155,102,104,96,66,19,-8
30,78,74,159,11,6,73,109,19,20
116,17,37,164,-81,-122,56,98,-9,-10
298,-57,-45,165,214,308,123,87,41,39
523,-75,-45,112,344,331,108,63,137,164
451,61,141,320,-142,-215,-182,-177,-27,36
224,123,119,119,-296,-251,-278,-306,-192,-80
-39,-78,-119,-501,-437,-356,-165,-142,-79,13
-696,-259,-318,-765,44,64,52,49,-2,-32
-833,-116,-184,-195,156,120,114,89,42,-58
-216,85,62,168,-65,-266,-35,39,88,33
141,126,72,-2,-141,-496,-154,44,125,67
95,37,-27,-60,-34,-118,-71,41,73,-3
40,21,8,42,58,144,-30,-29,-38,-111
12,14,70,266,95,140,0,-9,-54,-91
10,-26,76,196,101,223,113,48,-4,10
110,21,71,-10,102,383,205,49,-20,35
79,7,17,-141,35,339,207,60,-50,-7
-20,-56,-35,-51,-9,117,135,45,-46,-97
-63,-69,29,183,133,91,41,-42,-47,-143
122,69,97,112,180,-115,-139,-105,5,61
224,142,49,-43,-103,-462,-281,-67,82,249
-36,83,-12,8,-153,-292,-112,36,97,128
-154,-67,-65,-10,-55,-97,69,70,49,-14
-130,-12,-78,-8,-55,-105,-6,-9,-52,-83
182,470,-102,-23,-77,0,-116,-103,-99,23
517,309,-177,-79,-50,143,-24,-18,31,237
82,-584,-78,45,108,195,137,138,143,115
-473,-368,278,178,145,166,100,23,1,-224
-318,-4,212,43,2,196,24,-73,-63,-218
-30,35,-5,-36,-69,65,17,-6,20,-30
65,40,-31,-13,-68,-100,-19,12,30,41
33,22,11,32,28,-74,-23,6,-12,28
22,17,1,9,17,-216,-70,6,-10,28
29,20,-17,-18,3,-345,-113,-42,-25,14
11,13,-20,-61,-19,-159,-94,-83,-66,-37
-11,-19,-10,-64,-152,-39,-59,-79,-73,-49
-48,-70,-27,154,-81,100,19,-24,-52,-28
-20,-26,-22,76,102,223,172,51,12,20
1,39,47,-92,76,168,190,37,21,21
-38,-14,4,73,59,290,134,-4,-23,-31
-13,1,-50,38,135,320,81,8,-1,-23
59,62,1,-129,-32,-4,-10,20,34,14
53,31,-43,-143,-168,-195,-38,41,30,1
64,0,-97,-217,-37,-37,-79,-7,-9,-7
29,-32,-74,86,158,66,-82,-83,-75,-44
1,-22,32,488,-22,14,-12,-51,-54,-40
2,-21,72,-24,-80,-217,-95,-17,33,10
-59,-19,27,-210,-55,-430,-134,12,87,29
-13,69,25,58,-44,-262,-27,46,144,77
216,165,111,290,89,-106,-22,44,182,173
214,138,135,110,40,6,-14,-8,76,88
-31,-75,-33,-323,-89,103,18,-84,-121,-108
-136,-218,-163,-463,15,219,82,-32,-137,-142
-120,-64,-63,-180,99,243,149,77,-12,-48
-37,100,-7,42,49,114,132,116,77,32
5,52,-6,141,51,-16,52,101,86,30
-60,77,-17,159,-51,-172,-49,32,18,-41
80,229,-167,119,-166,-173,-17,64,28,27
356,-73,-235,179,47,337,127,133,84,158
69,-360,-33,-121,258,611,161,91,43,37
-393,-116,274,-289,-115,-69,-7,-77,-101,-202
-340,-60,222,-167,-138,-214,-79,-120,-68,-185
-115,-52,9,-134,110,-81,37,-10,76,2
26,0,-26,76,33,-198,7,-22,33,55
74,88,41,362,-49,-94,-135,-168,-131,-38
52,49,7,-30,59,395,6,-112,-137,-80
-15,38,8,-204,-25,4,27,-5,-14,0
59,93,69,32,-174,-462,-124,-34,46,103
21,49,52,98,-38,-149,-49,-28,10,50
3,31,57,80,172,107,-20,-25,-11,20
11,-37,20,56,202,-16,-64,-1,14,31
42,-57,-57,46,32,-51,-6,23,16,24
112,27,-64,79,21,76,37,9,9,25
159,60,-25,-42,-49,24,2,8,14,45
214,49,-50,-136,-142,-92,-67,-14,26,114
103,79,-33,-70,-80,-47,-117,-14,-23,43
-108,-8,-25,-29,-47,-144,-130,22,-59,-91
-184,-72,-31,36,-50,-250,-86,58,-24,-107
-162,-42,-2,105,-33,-43,16,53,51,-16
-94,-38,22,51,-39,174,116,15,84,42
-7,-36,-10,-182,-71,104,88,-26,32,13
85,1,-21,-192,-6,72,42,-60,-12,-11
100,32,43,1,106,163,49,-39,-9,17
7,34,79,116,150,193,93,-14,-14,28
-54,1,79,146,193,251,131,30,9,7
-60,18,110,240,278,500,238,86,38,14
-84,12,61,306,108,173,283,127,27,-18
-148,-112,-93,-14,58,88,177,26,-68,-96
-144,-105,-136,-214,45,204,-20,-131,-192,-168
-44,28,-53,51,-340,-575,-391,-187,-138,-105
126,99,-75,-61,-550,-1042,-484,16,131,133
230,196,-16,-343,-238,-525,-238,176,232,245
150,115,37,-127,-89,-136,-133,56,75,109
-11,-149,-43,66,153,274,13,-24,-40,-28
-53,-162,-49,-125,372,401,113,-30,-58,-61
56,53,27,-108,38,121,55,-33,-19,-20
202,74,-32,129,-92,42,47,25,58,91
229,-3,-53,134,39,268,133,48,77,165
-76,68,63,57,94,214,117,-20,-15,13
-353,-91,149,1,32,-67,-17,-133,-149,-186
-260,-266,65,-57,-152,-332,-34,-46,-37,-104
-179,-1,33,-41,-151,-188,17,26,49,-48
-159,-2,-22,12,100,258,30,-2,8,-79
-144,-60,-44,85,220,147,-38,-22,-38,-89
-36,0,-17,71,-54,-350,-72,61,15,-17
175,88,40,345,20,-44,115,213,132,116
276,123,81,426,243,494,214,212,121,107
264,74,0,-145,-121,78,67,90,55,52
133,-34,-164,-655,-332,-336,-125,-57,-38,-26
110,-30,-179,-654,-109,-282,-187,-104,-62,-42
61,10,-63,-151,73,20,-69,-43,-16,4
-88,56,-22,322,73,170,54,-20,-20,19
-94,66,-43,422,14,83,82,4,13,86
-85,-89,17,86,104,166,103,-20,14,58
-172,-34,169,5,193,293,74,-79,-69,-64
17,116,148,26,2,-16,-41,-39,-22,19
171,44,61,41,-28,-81,-89,-24,3,87
14,-94,76,34,-17,-165,-181,-121,-99,-56
-143,-57,55,-88,-73,-357,-158,-88,-101,-110
-143,-20,7,10,-60,-199,-19,2,-18,-99
22,-46,-23,212,-31,93,68,31,0,-54
218,64,-34,-128,-40,218,70,17,2,42
123,153,-43,-231,-162,87,-24,-53,-27,57
-51,24,-105,-24,-75,64,-19,-25,-25,5
-138,-168,-173,47,205,168,94,106,40,-60
120,-25,-58,-18,108,-11,35,61,70,81
43,39,13,5,-38,49,31,38,32,62
-184,-43,-8,79,-119,50,32,57,-24,-99
-120,-35,37,170,-248,-295,-146,0,-58,-89
-35,23,119,17,-109,-501,-184,-52,-24,-16
-21,-40,-23,-378,6,-225,-30,11,41,0
-16,-80,-123,-417,27,87,84,42,70,-6
54,6,-46,-89,-41,208,153,87,151,57
86,118,91,152,239,320,143,69,147,113
15,101,157,361,337,182,37,-28,21,40
-1,33,100,291,130,13,56,-8,-19,-1
28,0,62,63,-36,-8,73,-5,-26,2
17,-21,-16,-148,-91,64,-32,-97,-79,-11
-10,-40,-69,-95,-53,88,-87,-111,-107,-41
-4,-27,-60,39,6,37,-32,-7,-43,-37
8,-11,-49,-80,116,114,38,87,13,0
-22,-6,-48,-53,110,168,88,127,39,21
8,14,-28,40,-122,-273,56,103,58,22
70,76,5,43,-132,-300,-81,-30,12,12
68,95,13,20,-86,-148,-195,-131,-29,14
-79,-45,-6,29,10,-134,-142,-81,12,21
-119,-66,62,31,38,-116,-126,-81,-27,-49
55,30,82,-52,-17,-50,-67,-115,-110,-112
142,-87,-3,71,60,236,119,-4,-39,-13
31,-61,18,225,144,403,211,98,69,87
-95,191,194,199,-60,133,98,-6,-7,-4
-141,-18,34,78,-247,-386,-166,-101,-61,-49
-68,-188,-242,-584,-74,-428,-223,-46,9,12
50,-44,-108,-534,-10,-26,-7,67,80,84
50,40,35,-19,78,191,117,81,66,43
8,32,43,199,152,159,83,92,63,-8
3,25,24,168,67,76,8,77,38,0
-8,10,-11,142,-131,83,0,46,23,6
-49,-23,-44,129,-120,184,37,24,13,-33
-57,-17,-76,-1,90,264,79,-6,-11,-51
-13,28,-13,-4,168,40,19,-43,-33,-21
49,74,68,139,0,-285,-89,-40,-33,-10
92,49,129,385,3,-144,-16,4,-24,14
37,6,87,202,58,191,106,13,-57,-4
-88,-59,30,-240,-41,153,2,-128,-149,-92
-114,-106,-93,-620,-68,-112,-118,-165,-130,-83
70,-16,-135,-467,-91,-241,-57,52,92,115
125,77,7,175,-44,-251,-10,114,128,146
36,94,114,227,85,-26,28,39,26,44
-1,95,41,59,92,271,81,-13,-43,-30
98,190,-115,71,55,198,96,50,12,47
171,0,-64,93,-50,-108,63,95,53,109
-33,-214,119,37,-122,-166,21,36,7,20
-240,-181,127,-36,-94,-20,-19,-47,-70,-105
-184,13,24,3,30,107,-58,-86,-114,-127
-52,-22,-87,15,37,226,32,-7,-42,-42
-32,-128,-93,4,76,256,124,64,9,8
-43,-77,-61,9,212,242,33,18,-2,-17
-25,19,-30,1,73,-120,-72,1,29,-35
99,73,0,-47,-282,-715,-150,17,75,26
143,64,23,-76,-319,-611,-149,21,89,79
32,55,47,-8,-26,-51,-16,-34,-6,51
-69,-7,19,25,156,293,105,-79,-105,-55
-179,-54,-3,18,155,314,75,-75,-104,-128
-17,40,37,32,40,201,-51,-64,-34,-10
241,111,94,107,24,-45,-70,-55,-2,83
143,41,33,0,40,-158,-24,0,41,49
-101,-46,-59,-126,6,40,68,101,90,-2
-2,-38,-18,184,26,197,98,84,57,-24
163,0,-2,93,18,137,77,59,16,-6
143,5,-46,-258,-110,-55,57,75,26,41
-7,-8,-76,-127,-71,-41,21,59,25,28
-108,-20,-51,47,13,-16,-49,7,-33,-29
-48,-28,-14,64,1,1,-51,-41,-58,-25
-19,-34,-4,73,52,185,34,-86,-68,-43
-147,-101,-60,-13,182,252,-23,-111,-82,-116
-179,-94,-71,-175,155,12,-54,2,15,-48
-35,40,23,-29,-161,-382,-39,100,123,101
92,99,109,340,-228,-332,-20,42,89,132
93,93,121,110,-95,179,117,11,11,49
-69,-49,27,-154,168,503,273,83,-39,-96
-184,-161,-12,266,501,353,193,51,-106,-198
-104,-106,-19,291,146,-85,14,-39,-41,-84
221,131,41,-1,-372,-560,-146,-104,99,166
368,270,100,-30,-513,-771,-369,-199,126,188
171,57,-84,-514,-245,-341,-302,-94,148,98
-35,-49,-105,-559,-130,108,-41,72,137,24
-86,-38,-105,-251,82,205,126,142,87,-5
-31,42,-9,73,181,224,144,107,12,12
19,68,92,264,130,193,58,-10,-98,-18
18,45,71,225,87,135,12,-81,-160,-57
-77,23,22,112,25,88,-16,-81,-153,-86
-129,-20,-37,29,0,142,48,-25,-104,-76
-98,-172,-104,-7,22,233,168,59,-20,-22
-49,-164,-94,55,144,345,249,103,58,41
143,116,-6,112,177,313,202,72,109,122
129,396,145,86,-4,-44,8,-4,56,65
20,85,209,7,-100,-268,-138,-141,-68,-37
-111,-320,151,61,85,-282,-132,-126,-69,-79
-186,-141,118,65,116,-282,-103,-99,-58,-116
-42,38,15,39,-51,-233,-90,-33,10,-38
185,79,-30,404,-97,-220,-59,123,168,132
159,41,6,433,-133,-153,-81,64,145,135
-134,-93,-103,-503,-298,-69,-114,-106,-82,-114
-238,-226,-275,-1020,-165,74,-60,-124,-182,-220
-44,-32,-101,-388,218,292,35,-35,-81,-75
96,100,80,208,220,248,-38,-22,-15,38
71,16,-6,150,-89,-200,-46,44,49,98
-26,-3,-67,56,-276,-530,-36,92,108,72
-72,20,-23,51,-93,-214,3,51,59,-8
29,24,17,-36,59,271,107,61,17,-24
129,67,32,-9,30,282,120,112,48,35
-21,7,1,25,112,104,58,60,16,26
-68,-31,-10,29,133,-73,-1,-40,-23,-16
27,14,42,33,5,-61,37,-46,26,32
96,47,77,63,48,95,98,-15,67,66
56,21,62,223,213,409,103,0,62,10
0,36,34,139,92,201,6,-20,43,-26
4,104,0,-151,-132,-241,-71,-22,27,-38
33,26,-76,-131,-79,-128,-3,49,24,-17
-12,-156,-125,-85,-19,139,30,88,0,-22
-140,-118,-75,10,-52,218,-11,40,-51,-74
-47,15,-1,129,-62,3,4,56,-10,-16
33,70,74,6,66,59,-13,62,45,10
-20,-18,19,-65,279,175,12,18,38,-27
-6,-40,-65,7,95,-24,68,12,36,2
86,58,30,284,-187,-298,5,23,53,58
142,109,92,20,-178,-432,-87,3,40,58
70,7,25,-138,-172,-218,-126,-87,-51,-8
-22,-92,-79,-158,-100,16,-34,-79,-49,39
-22,-38,-41,-121,168,189,48,-48,16,110
-29,107,120,39,101,-63,-21,-60,5,21
-99,50,54,-47,-146,-181,-61,-21,-39,-85
-70,29,-84,-53,-51,65,40,58,2,-48
44,-52,-150,28,69,223,177,120,89,74
55,-100,-50,99,113,226,202,134,140,87
-119,33,159,107,89,158,53,-38,-19,-103
-102,-20,72,-47,17,158,-53,-137,-112,-110
63,-12,-42,-91,21,143,-45,-100,-55,7
84,10,-31,156,57,-1,-8,-34,-15,17
120,57,24,202,42,-72,-2,4,1,31
114,56,12,-43,-180,-281,-94,-9,2,42
-23,-22,-79,-216,-257,-494,-177,-4,32,44
1,41,-31,-259,-56,-294,-144,-60,2,27
-47,44,18,-125,95,127,25,-33,-13,-56
-196,-50,53,239,205,439,157,-6,-30,-141
-126,-59,73,407,147,238,114,-3,-15,-58
-37,-43,5,-26,-169,-78,54,78,91,62
-35,37,3,-104,-257,-89,71,107,105,68
-79,-2,47,215,81,-86,-27,-24,-15,-16
45,-161,-94,-128,149,45,-33,-61,-50,-4
130,-30,-80,-339,7,116,8,3,5,9
12,32,48,305,72,-24,-15,62,49,14
139,208,100,528,98,-51,54,125,132,126
119,203,91,-145,-76,91,103,78,89,100
-90,-68,-74,-577,-150,24,-68,-92,-108,-107
-79,-147,-193,-579,-108,-206,-202,-128,-129,-102
8,-65,-96,-174,-52,-5,-68,-11,-13,7
-18,-21,10,289,74,254,60,2,-7,-2
-57,17,60,234,92,31,44,-10,-18,-24
-12,86,64,36,-7,-145,-20,-1,22,15
30,19,27,-14,-58,-150,-37,17,35,41
13,-126,-22,21,-43,-140,4,65,69,36
101,-37,30,53,-1,-30,31,46,42,17
121,57,67,72,89,209,40,-63,-51,-31
-4,-63,25,44,140,374,42,-55,-61,-71
-53,-59,11,13,49,188,86,21,-26,-7
-42,-12,-10,3,-30,-44,61,16,-31,21
-52,-7,-35,1,17,5,-33,0,-34,0
-53,26,-51,-36,-62,-130,-48,65,54,36
8,28,-75,-54,-115,-386,-42,102,108,59
-45,-2,-87,-31,-3,-169,-58,44,27,-29
-85,-6,-46,48,44,13,-29,10,-27,-64
5,25,27,168,101,35,-77,-42,-39,-3
146,49,66,212,42,1,-74,-77,-47,7
109,58,76,211,-160,-16,-42,-73,-38,-27
-61,-19,28,-92,-241,9,-38,-93,-43,-55
-60,-114,-179,-688,-56,-7,43,43,88,42
23,0,-58,-418,30,-25,62,90,109,99
15,120,201,345,70,96,1,-41,-50,32
-110,12,158,361,79,181,101,-46,-102,-49
-132,-78,-22,-178,267,241,227,16,-28,-32
-71,-34,-4,-109,263,584,220,0,19,-21
38,3,35,125,141,294,45,-9,55,5
210,129,77,94,-169,-583,-185,10,53,86
185,133,60,9,-106,-611,-239,-28,-7,83
49,2,-65,31,-20,-292,-185,-90,-71,-2
-45,-107,-137,271,-91,-63,-109,-93,-138,-83
-43,-17,-27,130,-99,26,-36,-73,-142,-127
115,153,129,-279,-65,30,-38,-70,-96,-22
243,133,59,-260,-60,25,-92,-89,-53,76
1,0,-28,-88,0,-5,-70,-22,-32,-25
-297,-222,-114,-23,71,66,87,111,10,-127
-215,-125,-125,14,1,138,182,178,75,-45
19,31,-36,255,-48,125,161,138,94,43
114,19,30,226,55,126,92,36,49,35
138,257,51,34,108,102,59,-38,-6,18
461,311,-145,-74,140,16,88,72,141,253
374,-242,-169,-61,25,15,188,238,326,368
-301,-146,317,126,-20,-20,73,55,113,7
-711,-72,494,78,-147,-245,-271,-349,-339,-451
-439,-361,13,-114,-173,-220,-293,-298,-301,-364
-42,-181,-233,-94,-42,-32,-79,-41,-68,-78
84,53,-157,-51,6,-1,-5,34,1,4
59,62,-101,-43,3,59,53,79,61,57
111,59,-49,-26,28,130,83,101,100,131
95,-18,-36,19,77,85,69,75,70,103
-115,-115,-38,108,140,160,87,81,11,-68
-111,43,46,170,136,177,15,1,-41,-114
103,189,64,2,-48,-105,-56,-47,-25,12
43,10,-14,-110,-178,-259,-37,10,31,57
-61,-110,-49,-122,-71,-62,-28,-8,3,4
-8,-26,4,-69,93,223,32,-23,-16,-48
52,42,40,67,118,89,56,23,62,9
147,75,14,73,-50,-39,97,78,154,75
257,39,-20,-68,-117,-52,115,99,160,121
163,-163,-41,-176,-100,-89,29,59,73,80
-112,-64,21,-32,44,-26,-71,-30,-42,-9
-137,103,55,196,145,-157,-119,-49,-44,38
-32,172,70,425,115,-167,-71,30,37,98
37,154,66,182,3,-51,-76,-7,4,37
-23,6,-74,-306,-182,-121,-176,-121,-129,-101
-1,4,-40,-172,-26,294,197,162,118,24
-14,-51,-4,143,-38,192,113,58,-18,-19
-65,-107,-8,292,198,159,31,-43,-70,-50
-22,-57,24,-16,192,1,-25,-49,-6,9
84,-16,-5,-146,-105,-166,42,58,76,57
116,80,44,-16,-82,-195,55,96,108,48
-36,89,76,-17,-32,-58,-2,21,55,-7
-74,16,32,137,15,174,-38,-97,-94,-106
-15,-20,-23,14,-29,92,45,-15,-113,-94
-3,-23,-58,-386,-67,61,158,116,-34,10
-25,-11,-51,-190,7,53,122,66,-22,44
53,52,14,180,146,98,29,-43,-69,29
67,60,52,161,104,132,-118,-164,-166,-40
