-17,-12,-8,-18,-21,-6,-22,-51,-52,-82
-30,-17,-25,-18,-6,10,3,14,43,-48
-13,-8,-10,-18,7,14,0,57,88,4
-5,-6,0,-20,6,14,4,68,51,13
-11,-14,0,-8,0,16,6,77,18,22
3,-6,4,6,13,16,5,61,10,25
4,1,-4,5,10,0,13,48,-1,13
-1,8,1,-7,-11,-18,24,23,-19,3
-7,4,8,-10,-9,-13,11,-7,-20,11
-9,-1,-9,-6,0,-3,11,-16,-7,21
0,8,0,1,2,24,19,-5,-7,19
-2,2,6,7,-2,31,26,-6,-2,-5
-3,-5,0,-4,-12,13,24,7,13,-11
-7,-10,-16,-13,-20,-6,20,45,30,0
-14,-15,-19,-13,-15,-5,12,49,24,6
-7,-19,-21,-12,-9,-1,0,39,31,9
-19,-20,-30,-20,-5,2,-10,50,39,9
-10,-5,-13,-1,-10,-15,-17,59,25,24
13,20,2,15,-18,-29,-8,32,18,23
5,20,17,18,9,8,12,-14,24,-4
5,36,34,30,37,30,20,-58,39,-3
24,44,38,30,32,3,0,-92,31,-33
37,27,32,18,9,-10,-24,-100,6,-42
40,-5,28,14,-12,1,-16,-89,-32,2
4,-14,27,6,-5,13,0,-61,-76,5
-10,1,24,7,9,-6,1,-53,-94,-5
-14,-4,24,-7,15,-17,-14,-44,-85,-2
-18,-11,12,-22,17,-21,-31,-15,-27,21
-4,-13,-4,-16,-12,-17,-20,17,-2,12
-14,-15,-20,-22,-17,-7,15,44,5,-7
1,-11,-8,-12,-16,-7,9,31,12,-7
13,-9,-6,0,-3,-14,-20,14,15,7
2,-2,-23,0,-5,-18,-13,14,10,6
-13,10,-31,2,-8,-9,-3,14,1,-7
-6,3,-19,-3,-11,-10,-7,2,-1,-12
0,-13,-12,-26,-19,-11,-15,0,7,-21
3,-15,-27,-44,-17,5,5,44,56,15
12,-4,-5,-7,6,9,24,48,92,37
16,-5,-1,18,12,-2,5,20,80,38
14,4,-3,20,3,9,14,21,57,32
10,8,10,24,6,21,22,14,5,11
10,16,25,19,15,22,1,1,-59,-13
24,27,31,3,15,12,-17,-1,-101,-39
25,46,21,0,3,-6,-25,9,-114,-51
-13,9,-6,-14,-6,-10,-20,10,-99,-31
-35,-25,-26,-8,-13,3,-21,6,-76,-28
-46,-24,-26,10,-14,12,-11,-9,-105,-41
-36,-36,-16,16,-11,10,2,-42,-133,-42
-6,-42,1,10,4,12,5,-29,-45,-4
-6,-25,6,0,5,-1,5,-6,133,31
-20,-10,-4,0,-2,-19,-4,20,267,26
-3,27,-13,1,-12,-13,-8,48,273,26
11,29,-14,-20,-20,-8,-18,27,100,28
3,-6,-16,-26,-32,-18,-30,14,-113,4
27,3,-9,-8,-14,0,0,15,-200,4
41,20,11,8,10,24,38,8,-160,9
33,19,21,19,7,20,41,-8,-78,41
45,13,18,29,29,27,18,-45,-36,40
15,-9,5,28,36,24,-10,-81,-49,-29
-21,-17,5,30,19,-2,-19,-61,-35,-32
-39,-10,3,15,8,-18,-29,-27,-6,-41
-18,5,3,10,0,-7,-17,-2,19,-45
3,12,5,8,-3,0,-4,16,52,-3
9,11,6,-4,0,-8,-3,10,16,7
34,28,16,-8,-2,-18,-12,-33,-75,4
26,20,8,-14,-9,-22,-25,-60,-104,-4
-3,-5,-10,-26,-9,-19,-26,-54,-75,6
-14,-8,-6,-21,-7,0,-18,-30,-45,8
-27,-13,-17,-2,-15,14,0,-11,-1,-15
-15,-8,-14,0,-5,16,16,0,16,-16
-17,-12,-6,-9,-4,-6,5,5,18,-10
-26,-20,-11,2,-11,-4,1,15,28,-7
-17,-27,-2,-3,-10,-6,9,29,34,0
-16,-26,2,2,-20,-3,22,43,42,19
-13,-29,-14,-8,-10,4,25,43,48,39
-3,-19,-20,-6,0,12,9,41,38,44
13,-4,-13,8,28,33,-3,36,36,33
26,3,-9,13,26,18,-7,44,47,38
18,-5,-4,4,1,-17,1,52,46,39
5,8,13,9,7,-5,20,31,11,5
10,22,9,18,17,11,-2,-2,-26,-13
2,3,0,18,4,-1,-31,-26,-32,-15
-17,-5,-15,-9,-18,-23,-36,-37,-20,-2
-16,7,-15,-27,-26,-22,-20,-27,-2,1
8,5,-6,-11,-20,-20,-8,-17,-6,-9
0,1,6,-2,-10,-9,-8,-18,-9,-40
-4,-2,18,-4,10,7,3,0,15,-36
-5,-5,23,0,23,7,17,18,41,-16
10,-4,1,8,16,1,13,19,55,4
24,8,-4,0,4,2,-3,15,59,47
3,10,-2,-7,5,13,-16,4,43,50
-16,2,0,1,14,21,6,2,8,29
2,2,4,12,8,17,9,14,-61,-3
38,9,0,9,0,-5,-10,5,-105,-9
27,9,-1,10,3,-13,-18,0,-82,-19
7,10,4,6,-7,-11,-1,8,-61,-54
16,13,2,0,-23,-28,-14,27,-27,-50
-17,-11,-7,-18,-24,-33,-31,28,6,-21
-70,-47,-26,-34,-27,-2,0,59,38,-11
-44,-31,-22,-28,-17,19,32,61,53,9
-7,-5,-3,-9,-5,21,46,0,46,20
16,-4,-1,7,11,25,31,-48,27,23
5,-4,5,4,23,28,11,-63,8,28
-8,2,15,12,32,16,-3,-57,43,20
6,11,20,11,20,8,-3,-31,95,22
18,18,22,15,17,0,-8,-39,99,28
14,18,15,10,22,-16,-26,-59,13,12
3,3,-5,-16,-5,-24,-35,-51,-70,-1
-1,0,-4,-10,-4,-13,-26,-17,-128,-11
9,-1,9,12,7,11,1,3,-133,-25
5,0,5,14,4,25,11,13,-57,-12
1,0,10,25,7,23,14,13,26,24
8,10,15,22,12,5,3,-19,23,9
7,14,8,-8,0,-2,-2,-32,-1,-15
9,15,6,-22,2,0,-22,-29,-27,-25
3,17,-3,-19,-14,-7,-24,-28,-54,-17
9,2,-8,-21,-16,-16,-36,-23,-66,-5
5,-16,-33,-26,-24,-18,-21,-15,-51,12
-18,-40,-55,-34,-47,-18,-10,15,-26,12
-36,-56,-64,-44,-60,-24,4,55,-23,-11
-22,-32,-36,-16,-17,-22,18,81,-20,-7
-5,3,0,17,18,-7,23,90,64,34
-7,11,6,26,32,16,30,90,155,29
-14,12,21,25,36,37,37,57,204,6
4,20,46,12,24,29,30,33,167,-15
29,22,34,3,16,8,23,3,41,-13
31,23,30,4,23,4,-5,-53,-110,-10
17,16,27,6,19,5,-28,-71,-163,-9
2,0,4,1,2,12,-25,-46,-115,-10
-27,-12,-9,-1,-1,9,-3,-10,-44,18
-24,-2,-9,-1,-4,-14,-6,-4,-9,18
4,3,-11,-7,-19,-20,8,-12,-13,1
8,1,-11,-16,-22,-10,17,-7,-1,7
-13,4,0,-2,-9,-14,-10,-4,-11,6
-12,10,11,12,-1,-7,-13,-19,-17,-18
0,14,9,20,15,-13,-23,-30,-35,-56
-2,6,7,13,13,-17,-23,-35,-51,-78
-22,-14,5,0,-3,-11,-8,-10,-6,-45
-21,-24,-10,-15,-18,5,18,26,68,5
7,-23,-12,-16,-17,7,29,27,91,44
23,-22,-8,-1,0,3,13,14,64,44
1,-19,-11,-9,-5,1,19,29,33,3
-33,-23,-37,-21,-20,-2,22,70,22,-31
-11,0,-21,0,-7,2,39,77,25,-11
22,17,12,8,8,8,20,29,46,24
14,12,16,0,0,0,12,-2,79,49
24,16,9,-2,-3,-2,8,-18,107,72
18,12,0,3,1,14,10,-18,112,61
14,12,12,15,7,6,23,-6,92,39
5,23,30,24,16,0,3,-9,39,2
0,30,34,29,25,-1,-5,-29,-18,-42
6,38,32,30,29,2,-21,-25,-42,-57
4,31,27,25,11,-5,-48,-13,-68,-45
-21,-14,-6,-12,-18,-25,-36,-9,-56,-47
-29,-32,-34,-22,-17,-21,-11,13,-55,-42
-20,-14,-27,-20,-7,1,11,25,-95,-46
-21,-8,-7,-18,-6,-4,17,24,-76,-33
-2,-3,-2,1,8,5,34,22,24,5
7,0,-6,12,19,18,37,-7,160,43
5,0,-6,6,18,21,39,-27,212,55
-8,-13,0,-6,-7,11,21,-25,135,30
-6,-8,3,2,-9,11,16,7,40,7
18,12,25,19,6,15,21,12,-53,2
20,32,29,21,19,14,4,-8,-88,12
18,30,21,4,18,12,1,-15,-52,0
-5,18,-2,2,-2,6,4,-2,-9,-8
5,17,2,-3,-7,-14,0,-3,-4,-10
21,23,0,-8,-7,-3,2,-25,-32,-8
-2,0,-15,-7,-2,12,13,-16,-27,6
-9,-1,-11,-5,-5,19,22,-6,-20,7
-13,-3,0,-1,-15,16,29,-4,-36,-15
7,-12,-13,-15,-7,-5,28,5,-42,-4
9,-27,-37,-24,-12,-17,15,62,-1,13
-8,-17,-24,-15,-7,-9,32,87,95,38
-9,8,-3,14,13,20,28,47,131,31
14,28,25,24,31,26,17,-17,112,4
24,56,44,26,26,9,-18,-107,44,-12
14,59,37,12,11,-20,-56,-148,-49,-28
18,34,25,8,16,-8,-44,-94,-46,-19
0,0,16,13,-1,0,-39,-29,-1,-31
-10,-17,-11,1,-22,-13,-23,31,52,-33
-10,-26,-23,-13,-25,-19,1,80,68,-12
-5,-21,-28,7,-20,-15,25,91,40,17
-14,-16,-21,11,-8,-13,29,37,-28,16
-11,-15,-16,1,-6,-24,30,-18,-61,15
-3,-11,-10,-5,-14,1,16,-23,-57,6
16,3,2,-12,-4,11,5,-10,-9,17
19,-1,-1,-1,6,9,22,22,85,36
21,0,5,9,9,27,47,73,155,39
9,4,15,9,15,33,47,82,141,-11
-12,11,18,11,11,21,38,77,78,-34
-25,6,2,7,8,14,24,62,35,-28
-2,26,14,29,28,5,22,5,-50,-47
18,43,31,36,24,1,-19,-72,-145,-50
16,18,26,16,5,-3,-52,-96,-131,-23
3,10,21,2,-6,-2,-44,-81,-88,2
6,11,4,-4,-14,-10,-21,-51,-65,12
0,0,-19,-8,-22,-11,-6,-14,-35,16
-16,-9,-15,-5,-27,3,15,7,-26,-15
-10,11,-9,-2,-7,0,23,12,-14,-29
-3,10,8,-7,-14,-8,0,1,-12,-4
13,1,10,-10,-5,-5,-1,-13,-5,29
54,5,2,-8,0,1,8,-20,5,11
47,-19,-10,-4,-2,12,12,-22,10,9
-56,-53,-11,-8,0,8,16,5,30,22
-105,-58,-8,-13,-5,0,25,32,53,21
-56,-32,-2,-9,-12,-3,22,44,62,6
2,-1,11,2,-3,9,11,51,60,20
-13,-6,5,4,-3,8,15,42,41,21
-17,-14,-15,-4,-7,-4,11,17,18,8
12,-13,-19,-3,-9,-3,6,40,20,4
1,-9,-15,-23,-8,5,23,99,53,13
-6,4,-2,-11,-1,2,21,78,54,23
-7,9,-3,-3,-8,-3,21,14,31,8
-2,12,4,6,6,10,19,-18,84,8
34,11,5,10,24,18,-2,-32,121,30
65,15,-1,-3,16,0,-15,-33,125,36
42,14,-4,-18,10,-16,-16,-35,56,8
11,9,6,-8,20,0,-10,-34,-52,-12
24,22,15,1,18,10,-7,-32,-107,-16
27,41,27,18,11,0,-27,-42,-128,-21
-10,13,-1,16,-8,-22,-47,-53,-110,-46
-47,-13,-30,-9,-18,-32,-34,-13,-73,-59
-23,-13,-11,-9,-3,-6,-1,20,-49,-17
-9,-25,-11,1,12,5,2,8,-56,4
-22,-10,-7,9,14,4,0,21,-44,2
-14,0,11,14,9,18,10,63,24,-1
-8,8,10,-1,8,22,16,72,95,-10
-3,1,7,5,13,18,6,26,108,-18
19,0,0,1,4,23,-1,-35,38,13
31,9,14,-13,-7,10,-5,-73,-87,34
30,12,5,-15,-6,5,-27,-104,-176,19
10,-19,-6,-19,-10,-17,-34,-75,-172,0
-8,-35,-27,-27,-22,-19,-32,-26,-114,1
-17,-34,-27,2,-19,-17,-14,8,-70,-4
-4,-16,-13,19,-9,2,-9,19,-39,-8
-1,-1,9,12,16,16,2,14,-12,3
1,17,18,-6,10,-8,-14,3,1,27
2,22,23,-19,0,-17,-29,0,-12,21
7,7,15,-12,-5,-12,-21,-2,-15,-4
31,-9,6,-6,-12,-15,-25,-8,-13,-4
19,-23,-22,-14,-24,-9,-34,-10,9,13
-4,-40,-31,-35,-23,-2,-9,20,51,36
-18,-23,-20,-28,-11,6,2,28,33,21
-30,3,-19,-8,-19,0,-8,10,3,4
-24,-3,-27,-8,-29,-14,-13,29,20,11
-30,-33,-33,-29,-29,-13,0,91,51,-5
-22,-21,-16,-10,-2,1,26,91,62,-18
39,27,31,26,32,10,9,-1,29,-1
57,61,52,52,38,3,-27,-107,-39,9
21,62,55,70,54,21,-33,-163,-112,-37
-15,25,12,49,28,4,-51,-134,-96,-51
-40,-25,-31,10,-14,-21,-35,-35,-40,21
-22,-28,-18,4,-24,-8,-16,23,-23,64
16,8,9,6,-9,8,0,22,-17,47
31,22,16,-10,2,8,6,30,-4,3
14,13,22,-20,1,10,11,40,-8,-34
-25,-7,-1,0,9,14,11,17,-45,-83
-34,-14,-2,37,16,11,-12,-8,-77,-105
-17,-1,0,41,14,11,-14,-11,-48,-75
5,5,17,17,7,-3,1,-23,31,0
-4,-6,23,3,0,-15,-12,-23,74,37
-21,-4,1,-17,-12,-28,-5,0,50,34
-16,-5,-21,-27,-24,-22,21,40,14,23
17,-14,-18,-9,-18,5,43,40,-3,22
46,-11,-6,-3,4,9,35,24,2,30
22,-13,-9,-16,2,16,27,30,42,25
-6,-21,-11,-16,-9,6,32,41,71,14
-24,-19,-2,0,3,6,23,1,61,-9
-23,-15,0,0,3,5,35,-21,42,-7
16,17,19,-2,5,-3,18,-42,19,-13
19,48,15,-13,-20,-10,-5,-21,25,-15
-26,4,-9,-15,-13,-2,7,16,44,-27
-37,-32,-30,-13,-11,-1,21,37,60,0
-33,-26,-24,-9,-18,1,47,46,89,19
-3,-14,-6,0,-3,14,43,44,71,19
-3,-8,-6,3,12,5,27,60,44,-5
4,12,-4,6,21,0,40,78,78,-7
25,34,13,13,26,0,27,53,111,15
39,60,28,23,16,11,16,-15,94,23
49,53,14,15,12,0,-29,-91,-17,21
27,11,5,8,4,-11,-57,-123,-132,11
15,-2,4,-2,-4,-11,-41,-92,-124,17
-1,0,-4,-10,-3,-3,-16,-28,-26,30
-31,-6,-13,-12,-17,-1,3,50,87,24
-46,-16,-3,-3,4,9,28,71,109,-3
-49,-5,2,7,14,18,35,66,52,-15
-23,34,12,13,-1,10,14,29,-4,-8
-14,43,10,10,-7,-6,-3,-15,-50,-15
-28,-8,4,-2,-17,-14,-6,-29,-43,-25
14,-30,-5,-8,-7,0,-2,-33,-43,-37
108,-8,4,14,14,16,10,-24,-58,-31
80,18,13,22,20,13,-1,-18,-63,-23
4,32,12,2,0,-6,-14,-18,-56,-16
-38,0,9,16,3,6,-9,0,-50,-24
-68,-43,-2,15,-4,10,-6,4,-54,-41
-45,-38,-34,-28,-39,-27,-21,-6,-33,-19
28,30,-21,-37,-61,-61,-58,11,-6,34
46,65,21,-23,-43,-56,-58,28,29,41
41,8,6,-24,-35,-25,-16,28,92,42
23,-24,-18,-17,-3,3,40,29,164,68
-18,-32,-30,-1,31,33,75,37,172,51
-5,-22,-12,9,34,41,52,21,84,20
-20,2,9,21,30,38,44,3,-34,-26
-16,7,26,33,28,33,25,-17,-121,-62
3,18,29,11,8,10,-14,-43,-147,-47
-19,11,37,6,14,-6,-35,-71,-137,-52
-81,-9,21,1,15,0,-39,-75,-118,-54
-98,-42,-1,-32,9,2,-31,-40,-66,-40
-72,-31,-8,-25,9,8,0,2,6,-1
-3,-20,-25,-20,-2,-10,23,74,92,30
49,-11,-38,-13,-15,-13,25,127,157,29
35,16,-10,-3,0,-6,12,56,138,18
28,38,14,12,8,-2,-7,-25,59,12
74,37,19,10,4,-1,-13,-51,13,51
93,25,11,10,7,17,-12,-52,-12,58
101,12,3,10,13,9,-20,-64,-50,26
73,1,1,5,-7,-10,-40,-72,-82,-25
-60,-13,-7,-3,-21,-10,-28,-58,-86,-39
-119,-13,3,7,4,-1,-7,-24,-38,-21
-104,-10,-8,9,3,11,6,-2,14,-19
-49,-9,-13,-2,-4,14,0,27,39,-18
6,-20,-9,-11,3,5,20,53,56,20
18,-22,-16,-7,8,20,40,58,56,36
0,-29,-14,8,3,6,29,48,49,41
-16,-44,-17,-10,-7,-3,5,54,61,45
-49,-35,-7,-8,14,13,7,67,49,8
-85,8,15,11,17,18,23,36,-6,-44
-63,38,21,28,10,-4,12,-7,-41,-55
45,45,37,26,-1,-25,-19,-29,-35,-27
130,47,44,15,-12,-27,-26,-21,-12,-6
94,35,27,8,-20,-24,-37,-25,-21,-12
39,4,2,3,-7,-15,-49,-41,-63,-35
-54,-48,-19,-9,5,4,-26,-18,-71,-67
-70,-65,-47,-24,4,-7,3,19,-60,-25
11,-51,-57,-52,-33,-37,-3,47,-44,85
68,-17,-44,-44,-42,-27,10,75,30,153
-21,7,-15,-11,-13,1,27,53,110,79
-69,12,13,12,22,34,26,19,144,-1
0,35,37,31,39,40,26,-30,102,-7
37,27,25,13,28,15,-10,-88,-27,2
48,4,7,0,25,9,1,-88,-114,9
82,-5,6,12,31,25,28,-55,-111,-2
36,1,21,35,24,17,0,-32,-48,-15
-20,11,12,24,-1,-17,-36,-19,32,0
-22,10,0,-5,-15,-25,-40,8,61,14
-14,14,5,-3,4,-13,-14,42,13,-24
-21,6,16,10,4,1,3,40,-60,-63
1,-1,16,7,-21,-15,-20,-4,-148,-51
20,13,-4,-29,-51,-52,-58,-31,-164,-27
-46,-18,-31,-44,-48,-32,-22,14,-63,11
-63,-56,-48,-33,-21,0,41,53,21,67
-16,-19,-14,2,7,5,38,27,29,45
91,26,9,0,9,-12,16,-4,25,28
33,-27,-38,-21,7,-3,9,28,35,11
-72,-68,-40,5,26,36,16,45,70,-3
-106,-48,2,31,45,62,24,0,89,-31
-58,25,46,31,38,34,0,-32,107,-24
19,91,45,-5,-1,-30,-31,-27,60,-40
23,51,2,-17,-33,-33,-34,-8,-50,-79
36,8,-13,-10,-24,-8,-30,10,-86,-17
66,2,-1,0,-3,9,-15,-6,-55,42
42,-1,0,10,18,19,14,-39,-40,38
18,15,7,10,19,5,21,-73,-75,-4
14,11,-4,-4,7,0,5,-83,-90,-10
11,9,-5,-1,-9,-4,-21,-78,-61,-9
-9,9,8,3,-15,-18,-28,-60,-37,-12
9,24,14,-1,-20,-26,-37,-36,-12,-9
29,3,-8,-26,-14,-25,-38,-3,13,33
34,-17,-21,-28,2,-13,-28,15,15,31
-1,-35,-28,-7,17,1,1,38,3,1
-40,-27,-17,-8,18,8,16,62,-17,-29
-38,-34,-22,-15,11,15,28,108,6,-32
-2,-16,-3,0,-3,6,33,115,46,-2
-1,9,24,6,-1,-5,8,12,39,13
-13,22,18,0,-2,-21,-22,-74,17,-6
20,7,4,3,2,-8,-24,-99,-17,-27
14,-31,-7,-11,1,-2,-26,-92,-70,-39
-63,-47,-3,1,12,13,-11,-56,-50,-35
-69,-22,-2,16,5,5,-2,11,52,-1
-1,-4,-15,4,-9,-7,2,57,128,44
66,14,-12,-8,-2,-6,10,50,106,35
90,16,-9,-26,-9,-18,-5,29,9,52
19,-1,-13,-23,-13,-32,-29,31,-75,40
-29,-10,-21,-17,-14,-35,-22,35,-66,28
-9,-17,-5,2,9,-12,3,22,-31,16
-18,-11,18,23,11,5,7,-4,-22,-18
-25,6,16,13,2,-1,-8,-33,-37,-38
-21,7,7,-4,3,-11,7,2,-27,-23
-33,-26,-6,-3,-3,-2,25,40,-19,-21
-34,-33,-22,8,-13,14,20,20,-15,-9
-25,-12,-6,12,-5,22,0,-8,1,1
-4,9,5,6,9,13,-2,-37,13,3
17,13,8,21,3,23,0,-33,26,8
3,-20,3,21,10,31,18,-3,70,3
-32,-43,15,24,34,50,27,23,72,-16
-71,-13,25,17,33,31,12,12,3,-48
-16,30,11,-8,-23,-37,-38,-17,-71,-21
131,78,8,-38,-64,-84,-71,-32,-101,42
143,50,-9,-46,-64,-48,-59,-25,-81,64
47,-4,-9,-21,-38,-4,-15,-20,12,41
-11,-23,5,9,4,1,1,2,132,20
27,-6,8,8,11,-17,1,25,154,25
76,12,14,-7,-3,-10,1,45,71,16
34,6,9,3,6,19,-21,48,-45,-33
29,7,11,1,4,17,-25,43,-111,-31
1,34,23,-5,-12,-12,-29,2,-114,-3
-84,19,4,-13,-27,-21,-18,-6,-94,3
-198,-71,-31,2,15,21,61,31,-44,-12
-92,-66,-12,22,49,37,71,17,-26,-1
173,63,37,18,13,-4,-5,-30,-26,22
220,83,33,20,-2,-35,-37,-40,-24,29
184,45,18,24,24,-20,-46,-36,-47,-12
127,26,7,10,38,-5,-45,-34,-59,-40
38,-11,-6,-7,12,-1,-30,-23,-31,-40
-112,-9,-12,-28,-30,-16,-27,-3,3,-10
-330,-24,-27,-28,-42,-25,-21,5,-7,-29
-397,-56,-47,-29,-27,-6,11,15,-13,-71
-287,-72,-43,-13,-4,23,45,31,15,-51
-109,-25,-16,-9,9,19,41,40,33,-6
80,13,4,-1,11,8,15,27,35,23
162,38,14,12,10,7,8,1,31,39
133,39,0,23,15,0,13,-18,18,44
97,25,-14,20,21,-6,16,-24,23,16
42,-7,-24,-7,16,3,10,-19,42,23
-49,-39,-18,-14,15,15,1,-20,49,45
-146,-64,-19,-13,-11,1,-15,-14,25,41
-160,-50,-17,-13,-9,-13,-7,-4,-12,-2
-36,-9,1,1,8,0,26,12,-13,-49
105,0,6,0,11,-4,16,0,-36,-35
177,4,0,-5,-5,-17,2,2,-55,4
193,24,-5,-11,-23,-12,14,40,3,33
123,13,-24,-38,-40,-32,19,128,95,21
17,-9,-33,-50,-45,-26,19,189,145,20
0,-1,-9,-25,-10,-7,11,118,92,23
38,45,28,-1,6,-13,-23,-5,-40,-5
43,113,48,5,5,-9,-32,-63,-103,-8
-2,69,32,12,4,-1,-25,-85,-104,-6
-39,-64,-29,4,29,22,6,-67,-54,-2
-84,-113,-35,36,74,105,84,-2,77,0
-67,-25,22,45,59,81,84,-20,161,9
-28,35,80,21,-2,-9,-8,-101,164,11
-11,0,49,-9,-40,-49,-49,-116,154,5
-18,-24,-6,-16,-35,-12,-21,-46,29,-1
32,11,8,10,5,27,3,0,-158,-13
53,32,33,44,26,37,1,5,-254,-33
66,38,37,45,22,18,-38,-21,-239,-31
70,44,27,32,14,-21,-69,-47,-196,-29
-3,11,0,14,-14,-28,-41,-44,-133,-42
-45,-11,-31,-17,-34,-44,-1,-7,-66,-43
-46,-10,-22,-36,-28,-36,9,22,1,-8
-21,8,-6,-18,-7,-19,27,34,41,15
85,14,2,4,10,8,38,29,25,49
261,22,6,19,-1,6,39,27,17,70
304,3,-8,-1,-27,6,38,67,43,81
144,-26,-25,-10,-29,11,52,134,68,49
-4,-21,-13,-6,-18,-4,16,109,58,40
-82,11,6,-22,-18,-17,-33,-6,32,79
-175,1,-6,-42,-4,-10,-17,-87,58,67
-235,-36,12,29,59,54,40,-82,77,-28
-283,-26,44,74,86,73,37,-76,50,-163
-347,-51,25,55,74,46,-5,-82,9,-281
-285,-68,-4,2,12,-12,-68,-87,-9,-253
-146,-3,-9,-45,-43,-73,-82,-53,-28,-142
-5,43,-18,-52,-55,-63,-52,-14,-37,16
121,3,-36,-38,-41,-39,-29,17,0,163
156,-4,-12,-10,-21,-23,-21,22,5,166
98,-14,-1,13,4,2,13,17,-3,71
27,-59,-20,9,25,28,63,53,13,18
29,-41,-15,7,27,40,82,59,37,24
103,42,5,-1,-7,-5,0,6,9,36
100,73,18,1,-30,-36,-60,-25,-34,19
13,37,5,12,-8,-18,-51,-9,-43,-27
-32,0,0,8,5,17,-20,20,-11,-29
-1,-24,-3,-5,-14,17,17,36,4,-21
26,-49,-11,-1,-8,14,69,51,26,5
19,-35,-5,10,9,28,75,63,48,42
36,27,13,7,-13,8,16,31,34,50
38,32,8,-3,-24,-8,-14,5,23,43
16,1,-10,-3,-12,12,0,1,28,4
-16,3,-16,-4,5,3,-18,-11,-13,-33
-13,2,-10,-6,0,-18,-26,-19,-80,-55
-24,13,3,11,-4,1,-10,5,-63,-39
-38,4,2,19,2,8,-1,25,16,-18
7,-2,0,7,-5,-2,-13,29,109,18
108,42,1,-4,-22,-25,-35,9,104,44
129,36,-24,-35,-50,-39,-34,10,12,63
53,-15,-30,-47,-47,-28,-6,44,-80,25
-44,-63,-34,-27,5,16,53,105,-88,-18
-135,-69,-22,-9,20,54,78,150,40,-14
-48,-10,15,8,34,47,65,84,172,40
57,26,49,26,47,23,34,-31,153,50
39,50,63,32,37,2,-3,-109,49,16
6,103,64,33,16,-12,-35,-165,-106,-30
-9,83,47,17,3,-26,-45,-179,-203,-109
36,-23,2,-13,0,-21,-55,-128,-197,-98
-2,-95,-30,-3,22,25,2,-28,-105,-16
47,-46,0,34,34,59,41,13,-22,43
87,37,8,26,21,23,-6,-10,-14,28
46,42,6,4,-3,-12,-19,-31,-11,-5
-38,22,-1,-8,-14,-21,-31,-35,-22,-23
-127,33,16,2,-13,-15,-47,-39,-53,-53
-139,39,19,3,-6,-7,-23,-33,-30,-55
-38,-21,-13,0,-8,2,11,0,3,-8
108,-36,-23,5,-6,5,6,14,48,46
175,3,-2,8,-8,11,1,16,88,45
134,34,12,0,-11,-1,1,13,81,-5
119,-16,-18,-26,-35,-27,-5,9,64,0
-60,-87,-62,-61,-60,-46,-20,5,35,38
-278,-95,-68,-54,-37,-28,5,27,35,80
-227,-39,-36,-7,-2,11,45,52,28,55
-120,-1,-4,18,12,41,34,41,-18,-12
-12,22,9,23,25,26,11,40,-15,-18
100,16,12,11,15,3,13,47,31,3
96,1,18,10,10,-4,24,51,64,19
28,12,17,10,11,-3,32,38,110,20
-29,21,12,3,14,10,23,10,100,-11
-88,-22,-7,-18,12,16,20,18,49,-31
-57,-41,-31,-38,9,12,42,54,18,3
24,-26,-10,-31,9,6,47,98,20,30
79,27,34,4,13,-2,14,65,4,12
194,119,59,16,0,-26,-31,-32,-20,18
130,87,36,19,-4,-12,-52,-67,2,9
-45,-12,21,35,30,44,-14,-25,28,-16
-103,-2,41,57,61,46,-2,-44,-16,-35
-83,17,46,41,48,14,-32,-101,-74,-13
-49,-10,12,7,1,-10,-42,-108,-94,-1
-58,-23,-13,-8,-8,-3,-28,-68,-94,-39
-75,-41,-24,-14,-1,8,-10,-20,-60,-60
-22,-12,-3,-9,-13,-12,-16,14,-27,-54
-31,14,-5,-22,-23,-29,-17,57,-13,-48
-91,-14,-28,-23,-33,-19,6,125,-15,-69
81,23,-26,-33,-37,-35,17,140,13,-5
367,119,-9,-41,-41,-44,2,52,39,138
243,94,-40,-39,-38,-22,-9,-17,48,156
-15,-116,-91,5,25,70,83,46,148,109
-86,-237,-63,84,105,160,152,112,260,97
-119,65,116,74,53,48,43,-49,158,0
-150,118,141,-27,-65,-92,-90,-173,-8,-122
-111,-62,24,-32,-34,-36,-29,-92,-56,-93
-16,-55,-15,25,31,28,18,-22,-79,-14
61,32,7,24,22,24,-8,-20,-75,16
12,60,30,39,28,22,-24,-44,-70,-9
-60,29,18,33,27,-2,-44,-75,-83,-44
6,41,8,6,-12,-36,-40,-79,-97,-79
92,31,-15,-25,-54,-48,-27,-51,-111,-61
18,-33,-44,-22,-29,3,41,74,-54,-20
-60,-37,-35,3,4,16,61,150,52,20
35,33,-4,1,-19,-23,-5,63,118,96
130,83,27,-10,-37,-55,-53,-55,123,89
58,31,19,-13,-5,-12,-3,-69,90,37
-4,-24,-6,5,17,26,43,-43,25,8
-50,-21,-9,20,28,38,36,-28,-43,-55
-73,13,-1,6,6,27,24,-17,-57,-62
-73,16,-8,-9,-6,-2,-12,-8,-49,-49
-107,-51,-35,-25,8,13,11,27,-28,-69
-154,-133,-54,-8,26,40,74,73,14,-60
-66,-69,-13,18,20,18,56,52,38,23
102,89,46,9,-22,-51,-27,-15,39,71
87,65,20,5,-42,-52,-41,1,57,29
-6,-25,-32,1,-17,10,4,66,99,-3
-29,-14,-32,0,-2,23,6,53,90,8
40,7,-16,-11,-8,0,2,33,37,45
100,8,-6,1,21,6,9,19,-3,50
49,-6,-15,14,60,6,12,4,-38,6
62,2,1,1,30,-1,20,-1,-41,-17
30,15,15,9,12,0,20,-8,-34,-17
-47,10,5,6,-6,-7,4,-16,-25,-11
-83,27,6,-20,-28,-38,-44,-54,-44,-11
79,37,-8,-56,-25,-72,-87,-84,-36,66
303,-8,-41,-58,-31,-59,-66,-39,25,155
135,-26,-32,-15,0,17,23,45,68,71
-128,43,67,38,50,81,36,54,48,-37
-109,39,64,20,17,34,-21,-11,-18,-80
-66,6,-26,-26,-34,-36,-58,-28,-26,-33
-215,-88,-68,-12,-16,4,-1,38,-13,-42
-195,-93,-47,10,2,37,42,70,15,-35
-93,-53,-22,29,-5,35,42,71,53,-4
38,4,1,26,-21,-14,-13,41,20,3
14,18,11,58,2,-19,-27,55,-10,-5
-48,51,24,127,6,-13,-9,56,-31,-30
-66,28,11,80,-12,-17,-6,26,-23,-57
12,24,17,12,-16,-4,10,19,41,9
167,47,17,-16,0,10,26,-15,82,112
166,38,27,-5,21,16,16,-58,35,73
106,31,41,27,52,32,-1,-89,-89,-20
186,-10,15,22,33,24,-10,-96,-139,-17
177,-28,-10,-10,-4,28,28,-51,-109,22
26,-38,-23,-18,-5,37,57,-15,-91,25
-36,-35,-18,-37,-2,-4,-15,-31,-77,32
28,64,15,-46,-31,-72,-121,-97,-77,51
-60,74,1,-61,-62,-107,-143,-75,-50,47
-175,-50,-33,-55,-33,-34,-42,-15,-8,9
-133,-77,-34,-25,-18,0,25,6,-18,-64
-44,-20,-19,-17,-24,-8,46,3,-38,-127
-116,-35,9,13,3,15,42,13,17,-136
-243,-112,-10,19,38,40,21,40,90,-89
-164,-45,3,4,8,1,-42,0,71,-17
-33,7,-9,-10,-20,-27,-74,-17,-39,-70
108,27,-4,-17,-22,-18,-65,-14,-120,-66
212,70,18,-23,-38,-53,-52,-33,-141,24
165,61,-1,-38,-57,-91,-30,-26,-100,75
-63,-37,-32,-13,-9,-29,37,42,-26,38
-115,-21,-9,21,20,37,70,37,-13,-2
-27,-13,0,17,12,62,58,6,-15,-24
-6,-39,-10,-3,22,85,65,19,16,-14
-65,-70,-15,13,57,88,79,44,39,18
32,-28,-2,10,22,1,37,38,66,110
65,-2,-12,-6,-10,-25,31,35,53,73
88,31,13,-1,-8,6,46,38,22,15
149,34,12,-2,-5,3,40,18,-12,-15
-19,-37,-21,-5,18,24,64,41,17,-45
-199,-46,0,0,21,23,24,57,47,-46
-44,15,10,0,-24,-48,-76,-39,-27,-8
195,52,15,-9,-39,-63,-92,-104,-101,11
204,54,11,-23,-50,-44,-27,-34,-69,50
79,57,24,-28,-38,-36,9,39,-34,53
-1,16,16,-8,-3,-24,-8,42,9,21
7,-46,-30,9,7,-10,-16,-6,63,19
-106,-94,-54,28,39,66,39,8,132,16
-43,17,0,33,18,48,8,-53,66,7
-4,71,28,22,-5,-1,-29,-81,-32,-9
-77,5,23,40,29,31,6,-34,-73,-40
-71,28,51,52,39,42,4,-43,-114,-96
29,38,15,30,1,0,-31,-50,-125,-69
84,17,-48,-21,-23,-44,-36,-2,-15,75
-27,-25,-57,-22,11,-15,11,64,62,105
-204,-142,-49,36,94,83,117,146,113,6
-142,-128,0,33,58,21,59,73,50,-44
135,51,72,-34,-86,-153,-133,-111,-121,-53
163,76,42,-73,-134,-152,-148,-112,-84,31
2,-5,-7,-20,-56,-9,-35,-16,-2,45
-44,70,22,17,17,40,-2,11,-1,-15
83,109,22,11,6,19,-25,3,1,16
128,35,-6,-30,-15,11,-14,14,28,36
-83,-28,-24,-47,0,35,17,32,12,-52
-87,-49,-28,-29,6,32,0,4,-47,-152
13,-111,-48,-23,18,26,27,26,-4,-32
241,24,4,-25,-38,-61,-65,-51,9,140
73,110,35,-3,-30,-42,-70,-52,-40,17
-273,-55,-17,20,58,46,40,42,-16,-108
-68,-27,-1,-2,4,-22,-12,-12,9,35
139,64,15,-52,-68,-61,-81,-40,23,76
-86,-65,-20,-27,-13,17,15,63,54,-11
-63,-6,9,29,15,34,19,43,23,-37
-80,-17,-13,19,12,36,22,50,36,-12
-44,-27,-16,3,8,20,20,39,42,26
98,30,23,7,-10,0,-36,-15,31,17
109,91,50,-2,-39,-12,-90,-39,11,10
-53,-33,3,9,31,49,-8,25,39,6
-133,-122,-23,36,101,109,83,69,47,14
-24,-37,-15,57,91,51,82,23,7,11
194,110,13,33,36,-37,-23,-36,-13,89
176,104,25,2,-37,-61,-84,-70,-42,99
195,-9,-22,-23,-62,-46,-56,-61,-41,46
139,-53,-14,-8,-25,9,35,13,0,11
-146,-49,10,22,15,24,38,51,45,2
-153,40,44,22,15,-11,-16,11,31,-57
-199,16,-3,-8,-6,29,22,-3,-68,-361
-277,-108,-69,-23,-11,61,65,55,-36,-292
205,-122,-62,-41,-23,-22,-19,-2,67,117
371,0,16,1,3,-32,-72,-18,88,199
-150,140,104,75,25,-2,-54,-22,-27,-94
-434,-64,8,-11,-17,0,-48,-36,-89,-134
-197,-107,-62,-35,-39,-5,-32,-12,-33,25
78,36,0,31,12,22,11,18,8,90
181,99,49,101,55,59,71,40,17,64
187,159,54,39,-10,-32,19,-22,8,124
123,87,-8,0,-29,-58,-25,-34,22,118
66,-73,-56,68,73,80,72,64,88,42
-18,-154,-87,45,115,116,119,107,137,61
-1,-48,-13,21,80,32,100,87,106,61
-128,27,100,-10,-3,-58,26,-10,-4,-129
-165,21,84,-77,-128,-137,-111,-125,-81,-233
-377,-160,-62,-90,-104,-15,-59,-61,-76,-218
-473,-221,-89,-24,11,121,75,67,-12,-147
203,124,35,-47,-56,-26,-42,-46,-22,50
551,215,29,-108,-131,-155,-140,-128,-19,162
365,106,-9,-55,-61,-74,-25,-27,80,211
167,72,24,0,-3,21,52,2,26,56
-15,-27,9,35,45,62,66,-6,-25,-34
-137,-140,-25,62,122,109,87,52,23,-1
180,67,30,5,43,-12,-6,-20,-9,46
182,199,54,-38,-94,-115,-97,-90,-76,-49
-125,-12,-18,-3,-42,-24,-23,-17,-18,-102
-119,-153,-59,-1,32,77,68,60,61,18
-187,-141,-21,51,101,151,142,111,109,38
93,51,12,26,42,47,48,31,114,79
232,89,-1,-26,10,-15,9,48,143,136
-207,-51,-40,-11,34,21,51,89,93,-13
-132,50,-8,-36,-29,-67,-49,-18,21,65
227,98,22,-31,-14,-61,-80,-73,-15,142
169,83,67,26,37,-5,-57,-84,-113,-80
-4,56,58,37,7,-15,-24,-77,-151,-206
-89,-42,1,13,21,43,72,-1,-100,-197
-153,-103,-39,-27,-14,7,36,2,-2,-52
-219,-63,-11,9,14,-6,17,22,34,-14
-16,115,43,-10,-46,-100,-92,-39,71,129
42,33,2,1,-55,-41,-45,-3,84,130
-29,-31,-15,44,30,69,93,88,20,-20
167,34,13,33,46,47,98,76,-10,46
485,79,35,9,7,-27,3,9,16,292
740,129,67,0,12,-32,-31,-17,41,342
700,101,43,-25,3,-29,-38,-22,47,195
340,-35,-25,-31,13,0,-7,-4,12,17
-74,-129,-65,-38,3,7,7,-8,-19,-41
-670,-208,-77,-46,-13,-15,-23,-35,-19,-93
-1207,-141,-47,-15,4,-13,-7,-22,-54,-370
-1076,-54,-8,19,31,-16,3,-53,-160,-597
-689,-62,0,21,23,-30,-18,-67,-183,-603
-477,-158,-41,1,35,5,45,19,-74,-404
-129,-91,-18,45,70,31,101,80,15,-124
198,-10,5,56,85,83,95,74,-7,28
477,8,7,18,26,41,22,30,22,232
667,202,51,-27,-57,-158,-127,-99,35,411
196,146,28,-40,-1,-68,-58,-36,25,165
-96,-31,-28,-16,37,88,129,112,54,8
384,75,25,-15,-44,-5,20,8,22,129
580,180,40,-45,-112,-121,-130,-161,-155,-25
11,-67,-22,-8,12,36,17,-22,-56,-70
-263,-57,30,64,83,153,55,51,130,116
-120,48,43,20,-3,9,-59,-36,101,194
-214,-15,-29,-28,-59,-51,-54,-22,45,114
-131,-11,-26,3,4,26,45,63,49,-6
-92,-42,-21,41,69,56,104,83,22,-78
50,-84,-29,38,57,47,70,47,9,37
367,81,15,9,-17,-35,-39,-60,-39,106
195,80,21,2,-51,-70,-48,-80,-47,-8
-51,-50,-32,5,-14,1,2,-14,-2,-85
335,49,-3,-19,-51,-66,-72,-68,-47,26
456,172,36,-35,-120,-129,-123,-98,-21,187
-127,52,23,7,-38,11,29,20,53,69
-323,-42,2,6,36,67,106,66,33,-141
-194,-86,-28,-18,8,20,44,40,20,-130
-207,-148,-49,-1,22,64,58,88,89,-3
-258,-117,-2,68,120,139,136,165,141,6
-345,-10,61,88,116,112,99,98,67,-118
-189,19,35,-14,-23,-48,-50,-82,-46,-97
202,-112,-84,-76,-54,-44,-10,-5,63,136
417,105,20,-24,-38,-18,4,7,22,136
478,142,49,-12,-54,-15,-18,-50,-102,-44
132,-116,-37,-1,18,29,28,-5,-11,1
-5,-36,12,4,-2,-58,-102,-96,-3,120
385,306,105,-24,-80,-125,-149,-98,20,180
120,152,15,-48,-75,-69,-69,-15,24,49
-324,-185,-59,15,46,112,100,87,37,-33
-151,-87,-20,32,75,95,126,109,63,32
291,100,63,18,8,-26,-7,13,27,140
445,145,70,-14,-48,-86,-112,-96,-48,133
-43,26,-5,-43,-37,-47,-70,-69,-56,-50
-433,-164,-83,-41,16,63,63,92,75,-129
-259,-168,-42,19,61,123,129,173,155,-69
-56,23,58,60,66,37,6,1,-32,-82
-332,-33,9,-12,5,-73,-105,-148,-219,-237
-472,-171,-62,-23,21,-4,-3,-36,-138,-277
-167,11,17,20,21,18,-6,19,-6,-32
77,181,82,15,-44,-81,-127,-93,-43,150
30,92,34,-26,-37,-50,-69,-34,-42,114
84,20,-10,-45,-9,-31,-22,12,-18,19
336,-29,-38,-60,1,-53,-43,-12,-13,-4
294,21,-23,-27,8,-15,-11,9,20,4
-25,-62,-38,33,30,76,62,53,-5,-158
-387,-344,-93,114,162,247,263,207,44,-236
-449,-314,-65,141,219,273,324,236,53,-252
-187,126,43,-45,-113,-139,-82,-113,-70,-128
-157,156,0,-162,-263,-319,-312,-223,28,173
-48,69,14,-23,-75,-130,-189,-70,202,293
346,172,63,29,-9,-39,-102,-81,-4,41
166,129,34,0,-20,-11,-27,-20,-122,-108
79,57,24,12,0,5,-1,36,-44,95
305,55,44,28,-1,-15,-49,-51,-116,199
280,24,16,-12,-29,-40,-92,-182,-294,74
-198,-21,3,-5,-11,5,-35,-112,-206,-86
-204,-34,-14,-3,14,23,0,1,-3,-81
44,-96,-53,-10,38,74,101,131,116,-65
-395,-207,-88,10,55,127,190,210,140,-107
-550,-260,-70,31,100,137,201,229,200,-63
85,-96,4,23,51,38,48,64,93,62
276,-50,-47,-33,-25,-37,-54,-18,15,129
-165,-155,-91,-18,5,31,43,84,24,-18
358,162,82,13,-5,-7,8,12,-19,118
749,549,245,37,-69,-88,-156,-158,-106,208
354,361,128,-3,-87,-118,-215,-184,-44,183
-117,48,-10,-69,-103,-175,-266,-218,-62,24
-115,-126,-114,-112,-108,-112,-133,-76,26,5
-391,-266,-113,25,62,121,159,156,31,-211
-140,-70,11,96,88,139,187,118,-77,-265
114,0,11,17,-10,49,109,31,-121,-123
-148,-281,-106,22,52,95,141,72,-46,-86
-342,-112,-17,58,76,39,12,-25,9,-71
159,204,84,30,10,-83,-123,-132,-13,54
661,202,34,-69,-102,-186,-208,-152,2,248
482,125,0,-65,-86,-96,-121,-38,37,188
174,75,0,-18,-15,6,-12,34,4,74
-29,-11,-12,-4,25,16,24,44,-3,91
-132,-18,-5,13,26,8,13,13,-47,-28
-278,-86,-19,17,25,38,-2,8,-77,-158
-357,-147,-21,27,49,69,35,40,-59,-180
-240,-55,1,-2,14,29,49,52,-2,-118
69,-13,-18,-52,-45,-14,60,108,169,106
283,26,0,-36,-33,-27,32,73,203,210
145,95,51,3,-39,-51,-76,-43,77,121
-149,26,27,27,12,22,-42,-23,13,-36
-49,20,26,40,46,54,-5,6,7,0
-173,8,29,56,83,87,56,12,-129,-165
61,27,30,6,33,43,36,-49,-195,-83
333,54,-11,-55,-24,-42,-34,-109,-133,120
83,35,-43,-44,-15,-10,35,19,50,231
-64,-112,-95,-48,-63,0,57,112,155,227
-228,-203,-74,2,-6,54,52,117,157,142
-182,77,90,62,46,24,10,-4,14,-49
-96,86,83,21,21,-10,-9,-71,-114,-211
211,-29,-10,-39,-54,-56,-33,-77,-96,-133
161,-120,-77,-62,-69,-65,-30,-65,-60,-98
-212,-150,-46,42,81,95,164,55,-34,-226
20,133,61,63,59,35,97,22,22,-26
262,212,55,-38,-77,-107,-79,-107,-46,10
-341,-214,-119,-38,-33,-33,19,-1,-63,-308
-307,-273,-80,50,55,29,121,103,59,-179
40,60,63,78,56,-22,16,67,146,124
393,358,126,22,-43,-48,-128,-32,123,336
597,405,107,-36,-128,-83,-184,-110,31,300
311,-9,-44,-10,11,85,34,43,55,164
-270,-168,-59,80,118,171,157,97,51,-10
-570,-166,-20,26,27,31,70,-32,-76,-249
-568,-148,-26,-85,-124,-131,-28,-134,-184,-406
-383,-43,-22,-63,-102,-104,-37,-92,-126,-322
-184,-37,-23,8,-3,15,38,38,28,-119
-8,16,5,32,38,47,12,58,80,71
289,98,29,8,-4,0,-104,-20,87,256
424,157,36,-14,-33,-48,-105,-45,55,203
102,23,-28,-15,-3,16,42,43,28,31
-113,-130,-70,-11,22,76,117,93,90,56
-105,-169,-45,17,62,108,143,90,152,117
295,153,89,31,27,17,51,-29,55,105
46,125,53,-9,-9,-21,11,-51,-11,-28
-259,-101,-22,6,50,72,89,46,18,-133
161,119,38,-29,-42,-58,-42,-75,-74,-96
123,135,12,-67,-82,-85,-70,-52,-34,19
-194,-98,-39,8,55,120,168,175,104,-37
-426,-306,-86,46,123,195,241,246,167,-27
-361,-281,-75,45,109,121,121,166,239,163
468,169,82,20,13,-48,-66,-68,96,260
665,295,120,-13,-28,-102,-133,-193,-95,118
-174,105,66,18,30,16,-10,-69,-105,-142
196,109,22,-44,-90,-108,-111,-113,-75,23
292,15,-67,-110,-153,-176,-122,-106,-49,90
-159,-7,-50,-28,-33,-20,23,31,8,26
-316,-117,-25,53,90,173,157,136,-4,-86
-173,-82,7,45,71,115,127,105,-35,-139
141,84,50,4,-34,-64,-94,-52,-17,14
165,151,74,17,-29,-35,-122,-85,-34,-8
-21,-15,13,43,36,47,12,-7,-45,-117
186,-46,-11,-17,-25,-33,-57,-83,-89,-27
-76,-100,-75,-73,-54,-33,-33,-11,-20,31
-223,-52,-51,-47,-33,-28,1,37,85,88
-186,-64,-22,-15,4,-4,23,12,78,26
-49,-22,11,33,51,41,71,35,63,-4
309,206,122,72,36,4,-12,-31,9,65
208,239,109,42,-18,-25,-70,-74,-58,31
-112,-14,-25,-30,-40,-37,-45,-4,-14,-12
-122,-139,-68,-10,13,22,51,68,58,64
-163,-151,-53,42,68,80,99,50,-1,53
-251,-125,-42,12,11,5,30,-26,-78,-41
-283,29,26,-5,-21,-49,-26,-47,-53,-85
-355,-67,18,10,33,42,59,25,-6,-112
-347,-301,-72,41,106,155,207,166,54,-198
270,-12,-25,-14,5,26,106,77,-44,-262
947,449,87,-111,-180,-252,-206,-195,-179,-83
503,76,-19,-63,-97,-143,-182,-162,-84,151
290,-126,-45,12,14,-6,-59,-61,58,376
203,151,52,8,-28,-45,-51,-42,47,219
-216,96,40,19,-1,10,30,20,-6,-101
-259,-61,-28,9,9,52,43,48,26,-61
-133,-95,-36,4,11,66,57,64,80,39
-69,-78,-4,26,18,67,61,20,11,-15
-98,-62,2,28,19,37,43,13,-29,-50
-30,15,7,-7,16,4,29,57,46,9
111,120,21,-32,-22,-39,-19,27,77,79
5,38,-5,-26,-22,-20,9,26,39,11
-160,-29,-8,22,5,14,57,34,10,-64
-80,-58,-15,25,3,15,21,20,49,35
-11,30,7,10,-17,-12,-33,-15,13,35
-126,-32,-22,11,19,25,17,17,-33,-64
-57,-39,-17,-1,20,10,18,-4,-31,-37
139,63,25,-19,-27,-43,-30,-21,42,46
173,159,46,-59,-97,-116,-146,-103,-2,37
-244,-138,-51,-9,36,52,27,34,2,-95
-71,-13,22,65,121,139,128,82,-25,-86
58,13,7,7,28,22,5,7,-13,-1
120,-38,-26,-23,-14,-37,-39,8,59,101
100,64,15,-9,-21,-30,-25,0,16,40
24,0,-6,11,25,38,26,48,-9,8
120,54,52,-2,-7,-31,-61,-42,-37,79
101,130,85,-14,-61,-101,-162,-152,-100,-24
-195,-74,-24,-5,11,28,-21,3,-24,-108
-272,-188,-71,6,64,93,60,119,117,77
84,24,0,9,8,5,-19,14,46,67
164,113,9,-11,-56,-42,-57,-43,-11,-42
35,25,-6,11,-37,-18,-26,-12,14,-65
123,4,12,43,-39,-4,0,14,38,63
143,35,16,37,-25,19,12,26,33,48
-153,-91,-30,16,27,56,62,53,28,-86
-122,-210,-81,6,98,111,124,117,99,12
-64,0,-14,-34,31,-39,-35,-47,-4,64
-469,67,5,-65,-34,-105,-122,-107,-78,-161
-298,63,45,5,27,-11,-48,-50,-91,-248
114,23,33,23,27,1,-37,-74,-155,-163
145,-27,-25,-27,-32,-22,-35,-48,-81,2
25,-32,-11,-8,-2,9,14,17,-17,15
177,23,17,-6,14,5,7,31,39,107
269,74,24,-34,-20,-57,-54,-15,45,181
68,8,-14,-33,-33,-41,-42,1,35,99
-43,9,-2,12,-2,8,45,38,45,26
-41,117,40,9,-13,-7,13,-17,-6,-30
-28,0,-14,1,14,21,46,25,30,-1
-40,-56,-40,10,29,42,75,83,111,43
3,61,-10,-2,0,-3,12,42,73,58
-24,-84,-41,-14,8,9,-1,16,37,79
-10,-265,-63,7,42,52,29,15,-1,16
41,3,55,26,24,19,0,-47,-70,-21
-174,46,66,19,-2,-14,-51,-71,-127,-96
-355,-156,-19,16,63,66,50,51,-27,-128
89,-19,-9,-1,16,-2,-5,6,4,7
302,102,16,-30,-57,-67,-78,-69,-69,-10
-4,17,-15,-23,-50,-37,-46,-2,0,51
67,-10,-21,-18,-12,-4,-11,23,46,153
381,211,60,-20,-48,-67,-78,-53,-51,105
158,155,49,-5,-33,-52,-64,-38,-79,-17
-113,-11,-2,11,10,-6,-1,8,-50,-107
-107,-58,-19,-9,0,-3,0,29,-55,-90
-45,-106,-40,-15,1,25,33,68,33,34
-41,-79,-24,0,15,41,38,65,79,73
-111,-53,-17,0,7,24,30,37,95,54
-40,20,10,-3,7,-7,-39,-21,45,21
26,108,39,-10,-24,-34,-92,-70,-53,-55
-5,42,28,34,24,23,-30,-47,-110,-81
-9,-32,8,45,46,50,11,-30,-101,-64
5,-24,8,4,28,25,-4,-44,-87,-65
89,-19,-9,-11,18,17,9,3,-33,-29
84,-81,-44,-13,4,0,14,35,23,12
-183,-87,-46,-21,-30,-43,-45,-14,0,-18
-52,39,-17,-36,-69,-106,-108,-83,-45,20
-89,1,-5,23,0,-5,-24,-21,-13,0
16,1,26,52,43,40,15,-4,-24,13
148,63,37,37,48,37,43,43,5,52
140,123,20,16,13,7,-16,7,3,81
105,40,-58,-25,-31,-28,-55,-4,9,83
21,-140,-130,-12,42,86,91,150,119,96
74,-133,-128,30,82,122,151,172,140,95
-114,229,82,28,-18,-39,2,-14,-47,-116
-312,198,269,-8,-111,-181,-157,-199,-283,-337
-224,-169,152,-32,-108,-168,-207,-207,-240,-208
-29,-170,-36,-46,-78,-94,-157,-113,-51,46
-84,-134,-105,-21,-5,36,29,71,94,108
-106,-88,-71,37,92,123,145,148,99,47
183,23,-22,48,89,75,86,61,36,70
269,66,-5,13,12,17,-3,-6,21,113
118,71,18,-3,-37,-4,-30,-35,-8,50
123,45,6,-8,-33,-15,-16,-37,-38,2
-58,14,-42,-14,-9,15,16,-6,-68,-114
-157,19,-111,-24,0,30,31,31,-21,-87
74,38,-111,-27,-4,29,49,64,99,70
198,38,25,32,18,46,60,83,152,152
-6,4,144,60,25,24,12,31,68,91
-56,-68,95,-13,-52,-86,-88,-90,-87,-56
-97,23,63,-65,-103,-139,-156,-149,-162,-151
-116,10,31,-28,-31,-37,-66,-49,-61,-82
-2,-61,-8,0,33,28,25,24,18,17
104,-20,-25,-4,28,6,26,7,16,36
95,-31,-40,-22,-15,-24,-3,-4,14,55
-87,-97,-73,-35,-2,17,46,48,53,55
-216,-77,-50,-12,25,59,74,50,38,3
-128,35,3,-4,15,29,49,4,11,24
11,113,38,0,15,9,10,-2,35,82
34,16,-9,0,18,23,2,7,24,57
-24,-132,-47,9,20,49,30,45,48,-44
128,72,31,11,-12,-2,-6,9,8,-80
60,166,51,-10,-59,-56,-55,-72,-91,-188
-229,21,-16,-17,-24,-12,6,-5,-67,-267
-187,-20,-28,-10,-15,4,11,1,-63,-169
-29,-61,-45,-12,-5,7,9,24,3,26
59,-45,-17,-15,14,23,18,43,59,82
206,27,20,-7,14,-4,-18,-11,8,88
125,21,18,10,26,10,-15,-37,-69,5
-73,-52,-11,14,33,36,59,27,7,-16
-6,29,6,6,8,-11,20,18,73,59
110,99,26,-16,-42,-71,-52,-52,18,96
49,20,-1,0,-45,-41,-37,-42,21,141
-26,-71,-7,41,45,62,59,54,70,101
17,-73,1,53,64,73,74,49,42,39
-3,-23,-1,21,11,-1,11,2,-5,-8
-45,-8,-3,0,6,5,22,29,3,-62
-32,48,31,14,9,2,13,-3,-50,-125
-249,-107,-28,17,54,68,91,88,-40,-210
-114,-72,-15,16,28,41,40,75,66,-51
156,91,36,-23,-59,-65,-86,-30,92,156
107,31,17,-8,-4,18,-3,15,53,83
135,47,0,-38,-35,-26,-29,-37,5,52
32,88,-8,-76,-87,-94,-75,-48,28,116
-116,105,35,-12,-24,-36,-38,-26,-9,18
-24,44,40,42,30,18,-12,-28,-70,-53
187,12,14,16,14,2,-25,-57,-81,-58
59,-61,-20,3,15,16,22,-18,-17,-70
-62,-51,-18,31,30,15,43,20,45,10
-15,-17,-18,16,-6,0,19,21,50,38
51,5,-5,9,-18,4,-1,26,81,84
43,29,19,22,0,11,-1,6,23,24
-28,-27,-4,11,9,26,34,5,-39,-61
-14,3,0,1,-13,-2,9,-16,-56,-57
-7,-14,-9,-30,-33,-20,-21,-30,-25,2
108,27,15,-19,-23,-15,-23,-5,8,94
19,14,8,-4,-14,-5,-8,18,24,98
-52,-50,-9,-4,12,15,17,40,38,82
15,-117,-30,3,36,37,56,51,41,40
68,-25,-3,20,20,23,36,49,44,3
79,228,50,3,-48,-75,-79,-64,-33,-60
-245,48,-35,-21,-40,-59,-64,-70,-49,-133
-421,-295,-98,7,76,92,83,82,12,-176
-296,-136,7,44,105,111,142,109,-4,-208
70,189,98,-37,-71,-114,-100,-115,-91,-33
232,110,22,-66,-83,-120,-135,-122,-64,100
160,-78,-39,32,62,70,50,49,-10,55
322,6,1,36,19,12,-15,-5,34,169
358,144,57,5,-35,-49,-76,-75,-7,154
-32,17,17,8,-13,-11,-31,-45,-58,-18
-317,-125,-53,16,5,38,32,43,-22,-78
-252,-105,-37,26,19,34,52,55,-3,-63
-45,-18,15,4,0,-15,-10,-7,-37,-59
31,-1,11,-20,-8,-18,-32,-10,-34,-41
-73,-26,-18,-11,-12,-19,-8,7,-10,-40
-173,-52,-29,7,6,4,-1,14,-24,-95
-29,-4,-2,-6,8,21,12,24,-2,-16
116,66,27,-6,14,21,17,24,9,54
112,50,10,-10,13,9,8,8,-5,25
89,25,-1,-25,-6,-19,-23,-11,-6,5
53,-1,-17,-29,-19,-18,-40,-10,1,34
34,-19,-21,-15,-2,2,-9,20,34,83
-46,-25,-13,7,27,38,40,37,22,31
-40,-41,-27,10,25,26,21,-2,-14,6
4,-3,-17,-7,3,-4,4,-2,-10,-2
-6,52,-11,-12,8,-11,5,7,-2,-11
-32,20,-14,-10,12,-15,-11,0,7,0
-66,-29,-13,30,38,20,21,18,-7,-45
-42,46,18,36,40,19,30,2,-53,-70
-8,44,1,-5,-7,-21,5,-2,-7,31
310,87,12,-34,-54,-70,-72,-47,54,189
213,6,-2,-16,-27,-28,-35,-20,52,94
-110,-37,24,2,5,8,17,15,39,-76
-123,6,43,8,-12,-21,-21,-40,-55,-134
-70,-26,21,2,-4,-20,-26,-59,-96,-78
-13,-37,-17,-10,7,-12,-10,-41,-56,11
25,-8,-23,9,0,-14,-11,-38,-14,31
-6,-9,1,16,1,5,-2,-10,-18,-28
16,-41,-3,4,3,20,20,16,2,-23
66,0,3,-3,-8,-1,17,-1,33,58
56,66,27,0,-6,-19,-25,-18,24,46
-96,-4,4,17,15,17,12,19,5,-56
-165,-60,-8,21,23,42,55,64,9,-50
-87,-42,-7,4,27,23,72,60,26,7
7,4,10,-1,-2,-9,19,18,29,62
42,10,12,0,-6,-4,-20,9,34,40
117,35,9,-16,-16,-15,-23,-14,-1,-19
47,-43,-14,-10,0,0,19,-7,-32,-44
96,-7,11,0,14,6,28,5,-18,-4
132,100,46,-6,-19,-29,-44,-45,-33,37
-119,-3,1,-17,-9,0,-16,-12,-24,-13
-181,-50,-36,-10,-4,17,23,19,-20,-69
-41,-9,-28,-11,-32,-28,-34,-30,0,11
121,72,7,-7,-33,-54,-77,-77,6,119
129,-16,-28,-10,-12,-16,-41,-33,18,97
-101,-132,-82,27,56,104,105,137,101,-30
32,163,49,72,81,122,136,128,78,6
184,210,107,63,56,44,51,8,2,66
-8,-71,48,11,6,-13,-17,-46,-53,-11
-265,-144,37,-67,-91,-88,-137,-124,-149,-159
-199,-108,-13,-93,-100,-76,-122,-77,-96,-85
-46,-42,-27,-29,-32,-8,-28,-2,-15,5
77,22,-4,28,16,39,16,26,24,56
117,63,4,34,39,51,41,44,34,53
56,27,-10,31,45,43,43,45,22,4
204,15,-22,0,1,-18,-34,-33,-21,13
384,7,-58,-39,-34,-41,-49,-33,10,70
202,-203,-182,-38,41,71,108,145,146,168
-363,-83,-115,22,77,111,135,191,143,65
-660,252,186,19,-75,-65,-80,-57,-98,-267
-379,-15,184,-53,-171,-174,-198,-193,-214,-306
27,-120,16,-62,-89,-84,-82,-68,-88,-84
251,-41,-43,-23,-3,18,42,24,29,76
171,-24,-18,35,60,79,72,49,77,120
-2,-47,-1,68,71,108,59,28,58,52
107,33,17,46,27,41,32,-11,26,43
242,111,29,7,-20,-39,-43,-60,-30,7
-44,46,0,-1,-21,-37,-46,-56,-79,-127
-174,-57,-40,-19,-16,-18,-39,-51,-96,-102
46,6,-23,-32,-27,-49,-63,-55,-54,66
47,97,36,0,2,-32,-43,-40,-56,17
-184,-73,-18,2,31,31,21,41,13,-26
5,-79,-17,1,17,27,48,77,77,38
258,101,44,-1,-28,-44,-27,-10,47,89
113,84,32,-7,-25,-35,-22,-28,2,29
-124,-25,-1,6,24,38,40,33,-12,-71
-212,-66,-13,23,46,64,58,61,19,-60
-115,-57,-13,11,27,17,7,10,30,49
158,4,-7,-12,-14,-40,-42,-47,-25,65
157,12,-18,-19,0,1,30,16,-14,16
125,71,22,-7,6,-4,20,7,17,69
117,89,39,-3,-32,-52,-64,-48,33,145
-36,-16,-3,1,-3,-9,-13,-9,16,37
-110,-49,-4,-2,25,50,54,42,31,-38
-5,-9,-1,-10,2,12,40,35,24,-41
-56,0,-17,10,1,2,29,29,2,-88
-102,27,-26,2,-2,-9,15,9,11,-85
52,143,-41,-10,-26,-31,-22,0,34,48
152,84,-91,-10,2,6,7,38,69,140
-61,-199,-67,16,35,41,58,68,83,83
-440,-125,165,72,64,40,49,32,0,-121
-372,-1,170,34,21,-10,3,-29,-80,-206
211,95,11,-16,-17,-36,-22,-50,-47,0
635,280,-35,-30,-49,-54,-60,-70,-43,143
474,-13,-108,17,49,75,91,72,55,87
153,-98,-48,52,106,121,150,167,243,180
-146,66,118,14,-19,-46,-17,5,141,38
-279,-89,100,-48,-115,-131,-124,-123,-84,-198
-236,-196,-57,-40,-68,-41,-27,-45,-53,-185
-201,-120,-79,11,16,44,62,33,15,-105
-233,0,-13,-6,3,1,0,-15,-5,-53
-102,18,8,-9,-3,-34,-29,-26,22,49
33,13,6,23,25,7,-1,11,51,87
71,50,24,29,14,19,5,-3,-2,-4
120,42,0,2,-11,-14,0,-29,-23,-30
122,9,-11,-26,0,0,38,26,30,63
15,14,0,-2,11,17,40,31,40,26
-38,49,-5,-4,-5,2,12,6,35,-17
-65,52,-4,-6,-26,12,8,0,40,-25
-138,-6,-11,12,5,37,31,16,34,-24
183,29,1,-2,-13,-25,-15,-22,38,122
149,-22,-26,-19,-7,-47,-15,-48,15,87
-36,-49,-26,7,21,14,54,-1,27,5
66,58,15,20,24,40,54,15,37,6
41,16,21,21,37,51,48,21,27,0
8,-8,6,9,42,52,54,36,26,-16
53,58,6,-4,-9,-8,9,12,13,7
-29,19,-2,12,-2,0,13,19,25,12
-59,-12,-2,27,21,37,21,40,64,4
-4,40,16,9,-3,-9,-37,-37,13,-16
-61,25,4,-17,-19,-44,-49,-64,-52,-91
64,31,-13,-17,-17,-39,-14,-18,-17,-49
78,19,1,-4,-5,-27,-31,-19,0,27
-21,-49,-17,-1,13,18,-2,14,17,18
-81,-132,-52,-2,39,67,80,58,40,0
35,-28,-20,-2,14,24,41,34,38,59
0,86,24,0,-10,-24,-31,-30,-16,0
-41,58,36,9,13,-9,-21,-14,-32,-13
1,4,23,15,18,13,0,19,27,63
2,-29,6,15,18,31,20,11,26,39
18,-11,6,1,7,16,3,-22,-30,-15
-91,-28,-14,-10,-7,-4,-5,-23,-63,-90
-51,0,-9,-10,-25,-27,-33,-38,-60,-53
11,36,15,-9,-31,-50,-47,-36,-25,12
-13,22,18,-5,-22,-29,-18,-4,-4,-25
-18,-27,-8,-11,15,30,27,41,19,-15
10,-15,-3,-3,30,23,28,18,7,20
-25,-31,-13,-4,13,16,25,26,16,3
24,-29,-22,-15,-13,0,29,46,96,61
70,29,7,-16,-8,-25,6,20,84,86
60,23,6,13,4,-9,3,8,33,44
134,48,22,8,-13,-12,-11,2,-4,44
-48,6,8,5,-2,14,0,17,-41,-87
-131,-43,-19,7,0,8,-11,-14,-70,-134
104,-14,-21,-8,-25,-29,-15,-39,-43,-10
86,-12,-11,6,-7,-18,-8,-35,-14,77
-99,-3,15,29,11,5,0,-25,1,80
-133,5,19,42,26,18,13,2,23,8
-27,-10,12,36,32,31,34,37,43,-35
-31,-22,0,12,15,11,22,30,44,-58
-94,-12,-1,0,-1,-10,14,14,2,-93
10,44,5,-21,-24,-28,-7,-13,-46,-76
-8,5,-12,-19,-23,-28,-24,-41,-65,-81
-128,-43,-21,-3,-10,-14,-25,-33,-68,-65
-165,-27,-11,-8,-16,-26,-39,-18,-30,-52
-96,0,-8,-7,-14,-3,-13,31,45,7
-2,4,8,22,26,42,22,49,35,26
154,19,22,41,56,63,49,40,4,67
456,52,13,3,16,2,-4,-11,12,197
742,124,33,-35,-52,-68,-83,-62,14,305
581,110,17,-48,-54,-58,-72,-38,4,252
59,-36,-25,-28,-13,-5,-5,17,-3,107
-482,-142,-40,-15,10,33,58,59,0,-97
-856,-179,-44,-15,17,53,69,66,-27,-325
-825,-180,-59,0,5,2,-7,-24,-80,-392
-378,-48,-2,15,2,-6,-45,-58,-77,-259
179,142,70,19,2,0,-36,-11,2,-4
481,144,52,-8,-24,-18,-45,-30,-13,116
255,31,-13,-52,-49,-29,-56,-35,-32,82
-60,-53,-26,-2,7,21,15,26,-9,20
-75,-67,0,23,38,46,53,33,-11,21
184,88,30,-22,-27,-51,-47,-48,-10,74
82,95,13,-46,-48,-73,-82,-50,25,65
-132,-31,-10,-8,7,9,16,18,21,-17
-121,-36,-4,24,24,15,37,-1,-34,-21
16,-14,0,33,13,11,16,-4,-57,-10
90,7,9,17,6,0,7,-2,-22,-2
74,0,-4,-13,-6,-4,-4,11,11,39
156,1,-3,-23,-11,3,6,19,24,103
121,9,7,-2,4,16,35,36,44,112
45,7,1,1,6,9,24,24,38,58
-9,-111,-51,2,15,24,22,41,49,18
-58,-42,-30,24,21,36,53,50,59,13
-79,107,65,52,26,28,60,21,43,-47
-55,32,47,26,13,-1,8,-10,20,-91
-112,-47,-11,-12,-23,-22,-38,-31,-20,-159
-74,-20,-1,-18,-28,-11,-24,-32,-30,-134
-21,-31,0,2,12,27,18,0,-19,-43
-29,-29,-11,13,27,48,42,29,-2,17
94,124,22,-21,-50,-50,-54,-46,8,89
-1,33,-3,-7,-23,-21,-15,-20,7,16
-153,-70,-35,19,47,61,71,55,17,-61
77,-42,-33,1,4,-1,3,16,54,84
230,-26,-10,5,2,-14,-20,-20,50,134
-33,31,17,8,29,8,-22,-45,-19,-7
-95,69,27,1,9,-5,-20,-29,-34,-75
18,60,34,17,7,8,2,17,-2,-39
7,-6,8,35,24,42,46,47,5,-29
261,41,14,-2,-22,-39,-51,-44,-36,87
184,118,8,-60,-94,-125,-139,-119,-90,55
-129,0,-49,-42,-45,-39,-42,-25,-63,-50
-98,-122,-55,17,42,43,62,66,22,2
-78,-120,-22,46,71,66,76,74,75,55
-85,12,41,4,-13,-31,-21,-25,-29,-39
-129,7,31,-44,-54,-64,-51,-61,-88,-89
-46,-20,10,-24,-29,-17,-11,-15,-37,-12
-12,-11,-9,2,0,8,12,18,0,28
-63,-13,-14,6,25,33,44,30,-2,-14
-26,17,-5,1,9,18,15,5,4,-18
144,85,19,-10,-29,-24,-42,-31,-30,15
111,-3,-3,-11,-13,-14,-18,2,-20,20
-4,-65,-23,3,22,14,10,36,22,42
-34,-37,-1,21,39,34,16,28,40,24
76,-5,3,17,30,18,20,28,59,76
143,13,5,27,20,0,11,12,45,139
200,53,-13,18,26,20,14,19,8,94
353,141,-48,12,35,46,53,69,12,102
293,-104,-173,7,55,81,103,129,111,195
-82,-121,-88,40,72,74,79,83,115,93
-445,285,271,32,-53,-113,-138,-166,-172,-308
-495,39,208,-106,-202,-256,-257,-288,-317,-468
-384,-154,-39,-109,-139,-142,-132,-129,-164,-309
-183,-116,-84,-27,-12,2,15,8,-24,-122
99,-23,-45,15,34,39,55,14,6,10
159,29,-29,34,70,75,67,62,63,57
124,8,-26,43,83,98,89,115,120,100
19,-60,-33,43,74,95,95,112,105,136
-133,-52,43,9,-10,-1,-20,0,15,69
-136,1,72,-67,-126,-145,-174,-163,-95,-34
-22,7,10,-56,-97,-98,-128,-121,-102,-37
62,-60,-27,-2,22,45,12,13,-41,-31
83,-26,-8,18,72,91,69,58,-8,-49
172,64,13,-6,18,2,-15,-13,-29,43
354,63,-6,-32,-14,-34,-22,-9,24,258
256,8,-10,-3,-2,-4,18,19,54,247
139,20,-1,15,0,3,21,28,40,112
59,33,0,13,0,6,13,25,47,30
-160,-15,-23,11,-2,10,19,31,33,-64
-374,-32,-19,36,8,13,30,1,-24,-208
-323,-39,-4,27,12,13,17,-22,-92,-325
-298,-82,-27,6,10,11,10,-7,-88,-281
-124,-58,-37,5,-1,8,2,6,-27,-79
245,14,4,2,2,3,-9,-2,11,116
309,22,15,-3,9,4,-10,17,33,183
170,6,16,9,33,22,13,21,29,77
-45,-14,5,-13,13,-3,6,0,0,-12
-242,-53,-25,-20,0,-12,2,5,-17,-59
-118,0,11,-2,9,14,16,17,-9,-43
44,2,13,0,-1,3,6,-3,16,57
205,6,3,-7,-8,0,9,4,98,190
262,131,33,-24,-26,-25,-24,-5,78,129
-73,73,16,-27,-33,-19,-48,-31,-18,-63
-323,-62,-18,-22,-19,4,-7,-15,-63,-126
-84,-38,-6,0,23,34,50,34,-15,-27
124,54,30,19,32,38,33,17,-23,17
179,70,29,7,-4,-5,-21,-25,-70,-19
173,10,-3,-16,-33,-46,-58,-59,-94,-12
-164,-115,-42,6,17,16,-1,23,10,5
-164,-30,-17,15,23,21,18,72,144,80
-5,73,21,7,0,-13,-15,18,93,38
137,65,24,5,-19,-24,-36,-9,-29,14
88,-37,-4,22,9,22,8,35,-39,5
-57,-25,7,17,4,18,17,16,-5,50
-96,-2,-4,-20,-27,-19,-10,-30,-27,5
-195,-59,-34,-25,-13,-18,-9,-22,-61,-95
-141,-55,-30,-15,-16,-26,-18,-31,-64,-88
128,-63,-29,-3,6,1,-1,-5,-34,-1
169,-54,-20,6,19,10,7,2,-9,37
206,54,21,-9,-35,-66,-71,-66,-30,50
122,87,27,-1,-31,-55,-58,-41,-40,7
-77,-11,-1,23,36,43,49,54,24,-5
-14,12,10,19,36,34,33,27,44,63
97,102,35,-14,-40,-72,-89,-79,-15,60
-38,27,12,-3,-21,-19,-63,-51,-35,-42
-79,-33,-1,5,18,20,-14,7,-14,-18
-49,-12,2,-11,13,9,4,22,14,12
-45,4,16,0,21,17,19,24,12,-35
26,25,21,-3,0,1,-11,-26,-14,-16
39,17,0,-27,-7,-3,-17,-21,21,34
-52,-16,-12,-15,7,23,28,22,44,3
-59,-20,-1,5,23,40,59,36,39,9
-32,-8,-7,24,12,36,44,34,29,39
74,1,-3,19,9,24,29,34,21,51
172,4,-5,3,4,10,20,40,32,72
116,38,7,-4,-8,-8,-19,34,28,66
72,57,40,15,-12,-25,-57,-16,-38,-15
27,-3,8,0,-22,-35,-52,-48,-67,-49
-102,-9,-21,-14,-25,-27,-17,-3,-36,-56
-281,-36,-19,-5,-7,1,11,25,-16,-111
-341,-55,-18,3,0,14,2,10,-31,-159
-162,-37,-10,-6,-7,-1,-2,-27,-41,-132
28,-33,-7,-17,-1,-9,-1,-18,-27,-37
75,-37,-4,-7,10,12,0,8,-3,42
49,-21,0,14,20,34,12,18,12,59
56,20,0,-1,1,4,3,-5,0,34
69,46,4,-17,-13,-13,-16,-27,-22,-9
2,-2,-1,-4,6,14,6,1,-5,-23
-45,-31,-8,20,30,35,26,21,9,-45
109,21,-8,27,6,-2,-9,0,14,45
247,19,-9,0,-23,-31,-16,-5,26,194
7,-38,-1,6,18,35,53,44,57,131
-52,10,36,2,33,31,47,32,31,0
217,104,65,-6,-32,-50,-38,-57,-36,23
245,93,23,-20,-69,-73,-78,-97,-89,38
-100,-46,-34,-3,-18,-12,-8,-18,-42,-35
-225,-91,-41,8,29,36,45,41,18,-71
-231,-32,-25,1,16,10,10,23,5,-77
-210,1,-7,8,20,15,24,35,-3,-89
-165,-7,6,17,34,20,24,41,-14,-64
36,21,20,13,7,-8,-25,-30,-43,39
166,55,42,4,-13,-43,-66,-94,-111,3
39,-45,-4,-21,-25,-20,-44,-53,-102,-96
-13,-106,-51,-15,-21,0,-2,11,-6,-65
-18,25,10,0,8,4,0,-4,25,4
35,50,23,-9,4,-18,-18,-32,57,100
91,0,-2,-4,13,1,4,7,84,127
78,1,1,2,33,24,5,25,20,31
12,26,5,-1,16,4,1,3,-31,-20
194,60,30,26,5,13,17,19,27,16
131,64,13,11,-10,-16,-4,1,-1,21
-3,-14,-32,-14,-15,-10,7,6,-33,-2
-181,-77,-52,-24,-22,-24,-30,-27,-67,-37
-265,-34,-40,-29,-36,-58,-69,-63,-76,-29
-145,-44,-37,-5,19,7,16,2,-4,-2
45,4,17,29,44,47,60,21,6,-25
85,41,41,13,22,13,23,-24,-44,-105
-36,6,7,-12,3,-3,2,2,1,-86
-44,-18,0,-8,-5,9,9,41,68,-17
57,24,15,0,-8,8,8,24,44,-10
55,48,18,0,-15,-12,-2,3,5,12
-46,-19,-2,12,-3,14,10,9,7,5
-36,-26,-18,14,0,11,18,8,-3,-42
75,27,-11,-12,-24,-25,1,-15,-15,-6
19,-6,-15,-22,-15,-20,-4,3,16,55
-31,-56,-17,-3,-5,1,-26,4,32,96
89,61,34,-10,-8,-25,-53,-32,11,106
-15,52,28,7,19,9,-6,-1,-8,-27
-71,-8,6,29,39,50,48,48,12,-72
9,4,26,13,17,14,13,-2,-7,-11
30,-40,4,7,19,15,12,-15,-13,32
106,-16,-1,15,6,12,8,-5,-12,59
233,46,8,2,-22,-14,-26,-22,-21,57
251,26,-18,-22,-37,-26,-30,-35,-24,17
-32,-45,-35,-10,-1,12,3,8,-2,-47
-187,-45,0,12,20,31,16,32,1,-82
-105,20,30,9,-6,-13,-9,5,-2,-10
-122,25,23,13,-26,-33,-19,0,23,18
-26,0,8,12,-22,-25,-1,9,49,8
69,7,4,-2,-3,-1,-5,20,29,6
44,-1,-6,0,11,8,1,20,2,13
-63,-29,-13,6,15,12,13,15,-20,-4
-273,-65,-22,-6,-1,7,6,6,-36,-80
-251,-36,-15,-14,-19,-14,-6,4,-9,-83
-29,8,0,-6,-8,-9,-7,9,43,15
47,3,0,0,-1,3,18,7,30,20
229,39,-13,-1,-3,9,18,3,-7,80
319,161,-1,29,36,53,47,42,23,128
294,219,-47,53,96,113,128,106,85,97
430,-90,-248,27,145,173,233,211,249,315
257,-269,-163,58,149,150,214,212,311,436
-554,318,517,84,-71,-193,-197,-241,-167,-192
-767,89,467,-92,-293,-394,-442,-459,-481,-653
-327,-266,-22,-142,-195,-171,-184,-155,-217,-433
45,-179,-191,-70,-52,14,38,79,48,-136
248,-54,-152,-17,1,39,74,96,116,28
81,-19,-80,-12,5,26,39,31,79,115
-46,-18,-36,0,37,67,67,47,66,125
45,7,-4,40,67,87,93,85,110,140
95,37,6,25,27,31,36,17,66,76
33,16,-21,-27,-35,-42,-52,-71,-49,-41
-277,-91,-59,0,19,55,57,28,-14,-117
-64,41,12,46,51,80,90,49,49,-20
221,153,46,21,-20,-15,-20,-21,49,70
-2,-30,-5,28,3,30,27,27,53,35
-108,-51,-4,45,41,72,56,46,32,-11
137,76,34,17,11,17,10,0,38,95
236,69,8,4,6,-1,13,-13,42,123
34,-9,-32,4,15,10,29,20,35,14
-8,59,-44,-5,0,0,13,33,43,15
21,90,-44,10,35,44,42,59,42,40
110,11,-9,35,73,73,73,89,84,116
69,81,115,46,33,20,17,28,21,46
-147,-116,100,-8,-37,-46,-48,-60,-91,-105
-86,-150,3,-72,-111,-111,-110,-110,-140,-157
8,-41,-46,-105,-152,-162,-148,-142,-127,-88
-97,-40,-60,-63,-52,-61,-71,-56,-68,-12
-46,7,-26,4,25,30,11,11,-34,4
20,39,10,21,35,45,45,33,-3,-12
121,53,18,-6,5,-6,-19,-18,1,24
19,-20,-22,-20,10,8,0,14,5,12
-93,-46,-24,30,51,42,32,55,33,26
-1,14,11,23,15,-4,-18,-7,32,65
8,36,2,-16,-12,-11,-19,-29,-13,-8
-13,17,-3,-14,3,14,21,0,-10,-30
28,-9,-16,5,10,18,28,11,23,5
40,-58,-39,14,21,17,39,29,53,26
4,96,26,35,26,14,6,20,25,8
-12,106,56,11,2,-5,-13,-3,3,-8
-28,-72,-4,16,23,25,12,22,44,18
-55,-59,5,6,2,5,-13,-5,4,-10
-60,-7,29,-22,-56,-57,-58,-58,-58,-61
-28,-7,19,-28,-57,-51,-60,-51,-52,-42
23,0,5,-15,-24,-19,-24,-22,-16,19
23,-12,-12,-9,24,14,26,9,12,40
-20,-31,-21,6,39,38,43,26,23,45
-2,-4,-3,20,28,29,22,4,9,32
113,63,28,8,0,-6,-14,-36,-30,1
110,47,19,1,-15,-12,-19,-31,-13,-41
-37,-30,-15,4,5,16,26,17,67,-42
-164,-62,-22,6,15,26,41,25,62,-56
-138,-44,-25,0,5,16,31,15,8,-17
123,70,15,-12,-29,-23,-15,-9,28,93
214,94,15,-13,-36,-41,-29,-27,34,91
75,28,0,0,-4,0,21,15,38,35
-52,11,-5,-10,0,0,23,15,41,-3
-190,6,3,-1,9,5,11,17,4,-67
-263,-25,-1,14,15,0,-1,-2,-51,-133
-82,-39,-16,19,17,7,14,18,-30,-96
99,6,-9,15,2,-1,-7,-1,-31,-47
90,14,-20,-2,-19,-22,-44,-23,-28,0
9,-72,-39,-2,4,23,17,32,29,55
0,-68,-22,9,32,51,72,60,86,85
105,48,28,3,10,5,30,6,52,68
235,84,42,-14,-7,-19,-24,-30,2,53
164,25,19,-2,3,-5,-15,-18,0,50
14,2,10,11,44,1,13,3,9,51
14,30,6,1,39,-9,5,0,27,93
-113,0,-7,-4,9,-6,0,8,12,54
-136,-20,-12,0,3,-1,2,12,24,26
36,-14,-9,5,8,9,13,16,52,72
117,-2,-7,6,0,12,17,14,32,81
136,-5,-11,-18,-13,-5,3,-4,3,55
-103,-35,-13,-29,-18,-20,-12,-23,-40,-29
-320,-39,-21,-15,-10,-6,-14,-16,-63,-164
-364,-51,-33,-22,-5,7,15,9,-34,-303
-266,-50,-34,-18,0,0,14,29,14,-245
28,-4,10,25,21,-15,-5,-10,-14,-86
230,50,35,50,20,-11,-17,-45,-85,-58
294,64,34,14,-10,-30,-56,-86,-88,-3
206,53,17,-16,-18,-28,-45,-44,-47,7
-64,-77,-25,0,25,46,35,47,-4,-24
91,-26,20,10,28,34,33,54,40,117
248,106,53,-24,-42,-73,-76,-35,14,213
-131,-19,-7,-34,-33,-50,-66,-50,-50,52
-189,-23,-14,-3,0,-8,-36,-36,-90,-69
-31,43,-4,-19,-27,-17,-35,-24,-39,11
-40,12,-10,-13,-8,1,1,26,20,58
-108,-34,-20,13,13,15,30,48,30,-15
-97,3,11,12,-3,-6,4,17,31,-54
-141,6,13,4,-9,1,14,17,19,-71
-129,-14,-3,17,21,39,41,38,7,-82
88,2,-3,13,41,50,54,36,4,-60
269,-120,-40,-43,4,-8,-2,-14,8,114
204,4,37,-32,-21,-60,-73,-73,-12,177
34,152,95,-12,-39,-56,-53,-71,-53,21
-220,-28,-1,8,0,26,38,14,-11,-98
-174,-55,-42,30,9,36,48,31,20,-54
-13,-32,-33,6,14,15,12,19,14,12
99,-36,-22,9,11,29,16,29,22,23
197,-18,-19,-8,-12,2,-19,7,28,63
328,37,-6,-33,-68,-86,-93,-94,-58,49
159,-28,-30,-4,-14,-11,-1,-13,-60,-48
-168,-81,-18,41,49,100,84,90,27,-61
-132,9,34,22,29,39,24,35,48,32
17,72,38,-18,-42,-54,-72,-27,19,111
-100,8,9,-36,-51,-61,-65,-9,-11,21
-129,-57,-21,-6,3,26,61,57,18,-49
80,21,-1,19,0,27,62,32,22,-5
76,50,6,4,-12,10,21,-3,16,0
-20,16,8,10,4,18,20,-25,6,-7
-13,-3,10,9,3,17,3,-32,1,25
-6,-10,18,7,3,8,-8,-28,6,15
-22,1,7,8,9,2,0,-18,4,-17
-43,0,-4,1,13,2,1,-4,6,-13
-67,0,0,5,22,17,3,13,5,-13
-21,8,1,14,19,15,12,6,11,-5
104,31,8,5,0,-17,-4,-25,17,31
100,31,3,2,3,-24,-18,-35,14,53
9,-11,-11,2,13,-1,18,4,27,7
-10,-2,-1,3,14,10,28,17,26,-16
2,5,-2,-3,2,4,26,28,30,4
2,24,3,0,-27,-7,-10,4,20,-3
-42,6,3,-4,-24,-16,-6,-3,3,-26
-167,-21,-5,2,-4,-1,-3,7,4,-70
-191,-43,-14,5,-9,0,1,3,7,-79
-74,-25,-3,4,5,9,10,7,28,-32
56,0,10,2,18,16,26,2,29,21
135,27,13,1,1,-1,11,-8,21,48
123,43,11,3,-5,-1,0,-12,-5,-3
26,-19,-15,13,33,45,56,17,15,-40
63,69,-12,36,66,76,99,55,50,16
122,214,-46,36,66,77,108,80,94,85
241,83,-190,31,112,130,170,163,187,192
180,-179,-174,68,175,201,239,242,271,254
-385,49,353,82,-4,-72,-85,-114,-71,-118
-465,-54,412,-123,-304,-409,-472,-466,-418,-352
-169,-185,48,-157,-218,-234,-282,-227,-247,-177
131,-39,-75,-49,-35,-35,-44,-2,-50,-2
330,107,-49,17,22,26,14,43,-24,39
319,36,-69,0,22,39,46,67,42,84
238,-180,-154,-25,28,57,70,105,125,90
-114,-96,-72,6,37,47,55,58,62,-27
-205,175,68,19,7,-17,-2,-26,-29,-40
-346,83,38,-14,-42,-49,-48,-47,-55,-84
-423,-85,-43,-9,-15,-14,-25,-11,-43,-149
-255,-75,-44,0,21,12,-1,5,-13,-76
-31,-51,-19,-5,24,28,37,31,24,26
117,-49,-20,25,40,54,85,67,57,70
136,1,3,36,54,41,56,48,62,102
109,47,19,31,39,-1,0,0,23,78
105,70,25,13,0,-33,-42,-29,-15,23
65,42,4,3,-11,-11,-13,2,5,18
17,-28,-10,20,8,26,54,49,25,15
99,18,5,19,0,14,32,40,29,38
177,79,6,-16,-37,-24,-10,6,20,65
115,30,-14,-30,-34,-17,-7,6,28,64
87,2,1,-13,-8,5,-2,10,22,53
41,-15,-6,10,19,31,26,34,16,32
-41,-19,0,24,38,40,24,29,-6,-17
-14,23,20,4,0,-20,-31,-47,-44,-70
-95,39,28,-6,-39,-62,-73,-85,-83,-112
-211,-74,-22,9,0,0,-6,-19,-11,-40
-77,-67,-13,12,35,45,37,29,56,85
-32,-6,3,7,35,47,52,41,52,61
-145,2,5,14,24,36,35,29,17,-28
-4,0,3,-10,-15,-32,-40,-64,-47,-8
181,-8,-27,-32,-37,-15,-4,-50,-28,25
237,114,33,-25,-33,-29,-16,-30,-27,35
-40,39,23,0,11,11,2,12,-38,-52
-19,3,6,6,19,16,2,15,-13,-2
53,11,11,-3,-13,-24,-31,3,1,62
-63,-12,-6,-8,-10,-29,-34,17,11,-32
-52,-39,-17,-11,1,-2,-10,30,13,-87
-36,-32,-9,-16,3,3,7,17,-2,-88
-112,-27,7,-9,3,5,2,-19,-82,-176
-88,-47,-9,2,12,16,7,8,-60,-86
130,19,22,15,7,6,4,24,35,142
364,86,60,13,3,-2,-6,0,57,208
291,52,23,23,22,39,27,19,6,43
-28,-31,-18,9,37,45,49,40,-29,-99
-295,-31,-10,0,-9,-3,-23,-19,-64,-127
-224,-25,-35,-36,-59,-53,-93,-88,-60,29
-114,-13,-29,-40,-60,-51,-78,-83,-23,161
-37,15,0,-11,-22,-19,-25,-10,20,128
239,2,6,31,41,51,51,62,43,96
562,41,2,17,20,17,28,32,25,163
346,76,-4,-33,-42,-49,-44,-35,-33,66
-319,12,-19,-55,-54,-58,-76,-71,-78,-149
-659,-102,-46,-18,-6,7,-9,-29,-77,-308
-504,-96,-25,22,49,63,67,28,-55,-336
-202,-32,-7,12,24,25,27,16,-26,-212
10,0,5,7,-5,-9,-1,19,0,-42
122,10,16,6,-3,-2,-7,23,30,98
135,-3,2,1,1,9,3,21,37,122
98,2,-9,-3,5,-12,9,12,14,72
15,-10,-17,-7,-5,-8,6,0,4,48
0,-17,-18,10,7,12,14,10,29,54
240,41,17,23,14,-4,-8,-20,15,67
190,37,25,10,-4,-6,-24,-44,-18,48
-136,-49,-9,-1,1,9,-7,-19,-2,8
-125,-30,-16,-1,-3,0,0,-3,-4,-35
95,19,-2,-4,0,-12,-7,-14,-31,9
85,-2,-3,0,-1,-11,-6,0,0,62
50,40,21,0,-12,-23,-21,-4,13,67
8,64,9,-10,-16,-29,-31,-2,-8,1
11,83,-16,-10,-18,-16,-15,6,-3,-22
42,-47,-48,-6,-9,6,-1,18,5,25
-31,-195,-33,25,26,45,44,47,35,54
-153,6,59,47,39,45,41,26,-12,-78
-145,-17,24,-7,25,17,24,6,-62,-149
116,-21,-2,-49,-16,-31,-39,-43,-32,11
302,124,20,-62,-101,-136,-135,-116,-14,155
60,77,-5,-42,-62,-53,-58,-42,-29,11
-207,-64,-52,13,31,73,68,72,-5,-95
-131,-58,-29,28,40,60,60,47,2,-20
-4,-7,1,14,21,8,5,-1,4,50
54,25,27,4,2,-16,-24,-9,-13,43
26,21,16,-6,0,-12,-21,4,-24,0
-6,7,12,-2,5,10,-4,5,2,-21
56,30,24,-5,-1,-10,-30,-14,6,2
51,15,11,-10,-14,-16,-10,-13,3,22
-127,-63,-18,14,24,25,36,47,15,-21
-185,-43,-18,23,14,14,17,25,-24,-63
0,-3,-19,-11,-21,-11,-15,-6,-32,-51
183,29,-6,-26,-32,-25,-39,-31,-24,41
95,3,3,-3,-4,-8,-13,1,-3,56
-21,-2,0,28,24,28,13,27,-2,0
-67,15,14,31,19,14,9,8,-14,-23
-37,9,16,24,16,-5,-8,1,2,-14
-33,-13,15,22,12,3,-11,16,8,-21
-33,-25,8,26,19,23,-6,19,-2,-23
0,-8,2,11,16,4,0,-14,-35,-9
199,29,-16,-12,-5,-22,-8,-51,-24,124
356,100,18,-18,-6,-16,-25,-45,10,214
228,118,52,1,-1,0,-22,-15,0,105
95,-12,-10,-6,-16,-6,-25,0,-7,22
-131,-180,-85,4,16,46,35,52,7,-78
-598,-210,-82,29,59,88,92,72,-18,-230
-619,-61,0,-10,-25,-27,-34,-48,-98,-268
-307,21,49,-48,-87,-100,-110,-107,-143,-193
-3,-10,29,-17,-36,-32,-50,-11,-34,6
263,21,22,-2,1,2,-12,34,44,148
300,41,10,0,11,17,17,44,71,154
166,21,11,15,26,42,40,37,38,73
19,9,12,29,18,39,29,21,0,-30
-7,23,1,0,-8,-2,2,-3,-13,-56
146,27,-15,-18,-19,-23,-21,-22,-3,1
182,5,-30,-42,-25,-18,-3,-32,-16,26
-64,12,2,-29,-15,-5,-13,-27,-32,9
-244,-17,17,9,15,20,0,5,-10,-22
-184,-17,4,16,28,34,31,27,8,-46
114,56,8,-13,-43,-20,1,-10,-8,-43
308,26,-10,-33,-82,-45,-24,-34,-30,-7
141,-39,-32,-8,12,-3,-3,28,-1,-4
83,-1,-13,7,16,8,-1,32,28,49
15,62,26,0,-15,-9,-21,-10,23,71
-173,18,28,5,20,-5,-11,4,10,13
-235,-61,7,27,23,31,31,30,16,-42
-137,-95,-27,8,13,48,72,35,12,-57
57,-4,-11,5,32,34,45,20,18,13
411,135,40,1,4,-34,-44,-44,-16,124
431,89,25,-11,-16,-42,-50,-50,-47,80
-20,-42,-46,-21,-3,-7,-13,-12,18,102
-111,-112,-65,-23,10,20,20,35,109,233
-115,23,21,23,24,22,20,45,52,90
-279,6,51,27,27,10,5,9,-39,-165
-456,-103,-8,-6,11,-5,-1,-17,-79,-331
-472,-62,-32,-26,-21,-44,-29,-34,-64,-274
8,130,23,-34,-84,-133,-133,-131,-78,-71
289,69,-3,-39,-66,-67,-78,-84,-63,-24
152,-68,-42,-2,24,61,71,47,10,-25
97,-12,-4,23,41,47,67,51,54,75
70,56,20,14,3,8,15,3,29,42
-39,31,8,-1,-21,-1,-20,-17,5,-15
-102,-10,-7,-6,-3,10,-16,-2,13,-27
-54,-28,-9,17,20,10,0,5,21,-38
29,-8,12,28,26,17,-2,7,16,-8
49,16,18,18,23,14,-3,-4,16,3
-4,-7,-11,1,14,4,0,0,15,-21
-38,-29,-17,-1,23,7,14,13,27,20
-54,-10,5,12,9,16,25,28,41,50
-95,-4,19,25,0,22,18,13,43,15
-86,-3,19,14,4,26,23,16,34,5
50,20,10,-6,6,29,28,21,39,33
253,47,0,-21,-25,-14,-17,-13,39,91
193,31,-6,-25,-39,-33,-30,-23,29,63
78,-24,-26,-7,-16,1,14,4,27,33
4,-41,-12,15,2,14,24,21,36,65
-40,20,14,15,4,7,-6,4,8,21
-19,31,-5,-10,-12,-12,-19,-23,-35,-29
28,16,-5,-20,-19,-35,-19,-28,-20,13
48,22,9,-11,-1,-15,-28,-24,-6,31
31,31,6,12,6,-6,-29,-27,-21,-4
106,-18,-38,15,18,23,15,7,17,33
68,-84,-76,30,48,94,80,95,86,72
49,-106,-119,34,90,153,150,155,147,108
-99,145,32,43,55,88,84,71,89,41
-419,250,218,7,-53,-76,-110,-115,-100,-181
-429,38,78,-79,-112,-137,-152,-138,-140,-226
-100,-172,-122,-81,-55,-45,-46,-12,-1,-25
103,-270,0,12,17,11,1,6,34,41
140,-11,161,40,-2,-30,-43,-58,-55,-67
286,92,76,-5,-42,-39,-51,-42,-91,-39
407,-16,-65,-19,-19,-13,-12,13,-43,62
133,-30,-78,-29,-27,-26,-19,25,5,98
-172,6,-33,-32,-9,-24,-34,14,29,58
-205,-18,-17,12,37,9,13,25,30,3
-75,4,-3,29,24,26,32,32,24,-2
-36,-9,5,24,23,16,23,28,-2,-21
133,25,8,2,23,0,4,1,-16,1
214,61,9,-9,11,-14,-9,-20,-33,16
4,9,10,-2,6,-18,-14,-33,-44,-25
-102,-54,-14,9,12,-2,1,2,-6,-1
-69,-42,-12,20,11,10,12,28,35,46
-37,27,26,30,14,12,-6,-2,-5,7
-97,9,12,15,11,19,-6,-3,-28,-15
-181,-29,-1,5,10,24,9,11,-15,-45
-265,-71,-22,11,17,40,48,31,15,-66
-59,-58,-17,28,21,34,44,41,33,-9
348,77,34,1,-18,-26,-26,-22,6,63
426,92,9,-45,-52,-69,-60,-56,-23,53
308,7,-31,-57,-43,-49,-43,-28,-12,61
94,-26,-24,-11,-4,-1,12,13,20,103
52,-15,11,11,42,42,42,36,32,101
89,34,36,25,35,36,42,26,31,42
-35,71,45,15,14,-1,1,-3,-17,-48
-121,9,4,-15,-19,-22,-29,-33,-63,-118
-96,-78,-40,-30,-29,-8,0,-23,-55,-107
-274,-25,-3,4,-5,-7,2,-12,-58,-170
-622,-72,-16,15,17,21,11,3,-71,-298
-313,-51,-21,7,4,-8,-3,-17,-28,-81
126,32,-7,-27,-29,-58,-37,-48,-11,92
5,-16,-24,-31,-9,-2,14,0,-7,-6
97,-38,-7,-1,25,30,37,39,39,42
288,77,35,15,27,28,34,35,76,147
116,95,37,26,36,36,36,17,42,82
6,-22,-18,20,51,66,54,46,39,43
89,-76,-36,32,55,74,90,92,95,142
51,32,57,0,-38,-66,-48,-30,4,80
-118,12,62,-78,-127,-179,-198,-154,-138,-101
-103,-55,-12,-64,-60,-76,-98,-59,-92,-97
-17,-17,-13,-1,10,9,-5,12,-27,-42
98,103,11,21,24,28,25,18,5,7
188,65,-10,6,19,24,26,16,31,47
114,-61,-40,20,34,73,66,62,99,84
18,-16,9,18,21,21,23,16,48,49
-130,0,33,-19,-23,-54,-41,-59,-69,-88
-208,-72,5,-16,16,19,42,27,-32,-119
-197,-82,-25,11,35,59,66,70,15,-79
-188,-78,-52,43,38,39,51,31,20,-66
180,83,7,39,-1,-25,-17,-42,30,65
377,199,52,7,-37,-51,-42,-55,54,118
231,149,37,-9,-23,-43,-36,-36,30,42
37,44,-1,-15,-35,-12,-2,-18,-1,-26
-164,-79,-55,-23,-19,15,36,27,19,-32
-185,-126,-50,-4,16,50,67,57,53,29
-79,-55,-21,2,10,36,54,37,66,60
30,-1,-10,0,-1,4,41,18,49,25
139,46,11,0,-9,-27,-2,-23,10,37
221,136,47,4,-14,-45,-30,-66,-24,64
117,60,5,20,-6,-6,6,-38,2,57
-52,-132,-63,27,26,51,74,25,54,39
-39,37,35,29,27,23,39,9,28,16
-86,124,81,25,8,-12,2,-7,0,-46
-201,-6,31,2,4,12,43,11,-1,-107
-142,-51,-11,-24,-10,7,28,1,-25,-108
-198,-97,-40,-9,-1,10,26,0,-18,-87
-225,-118,-21,12,26,39,45,39,24,-21
42,1,15,11,10,-5,6,5,30,58
278,54,14,0,-2,-44,-21,-18,-5,74
332,53,2,-12,-6,-30,-17,-4,-12,20
302,40,-2,-21,-7,-2,-6,0,-3,0
-39,-14,-1,-1,4,23,9,0,4,-37
-216,-2,1,-1,-13,-2,-10,-24,15,-3
-32,53,14,1,-20,-20,-3,-5,47,84
74,63,32,3,4,5,40,34,55,63
98,-6,-4,-16,4,15,27,44,44,55
128,-28,-28,-26,11,22,15,23,39,89
127,-7,-14,-14,14,7,6,-8,10,45
29,-35,-26,-27,-17,-19,-11,-38,-44,-85
-373,-94,-41,-24,-10,-9,-4,-19,-58,-191
-406,-66,-14,13,20,5,15,-7,-40,-169
-218,-21,8,40,35,33,48,10,-3,-121
-29,23,19,20,29,28,24,13,8,-27
82,57,14,-20,0,-10,-15,-10,-8,29
-2,55,-2,-34,-41,-33,-25,-25,-13,14
15,30,-13,-10,-27,-20,-12,3,16,31
2,-16,-11,23,7,9,1,20,33,29
69,26,11,27,-16,-17,-21,0,27,54
105,33,7,10,-28,-26,-32,-19,5,51
-77,-30,-11,22,24,24,37,42,23,0
-137,-11,10,24,31,40,58,44,32,-11
-26,24,15,20,5,20,6,-1,-3,2
214,19,-4,6,-9,-4,-25,-34,-21,61
325,32,5,4,-6,-9,-28,-30,12,77
267,20,11,0,4,-4,-16,-8,31,76
79,4,-4,-9,6,2,17,4,30,126
101,33,0,-19,1,3,32,0,29,174
128,14,11,-9,5,29,37,25,35,132
27,-13,-1,-13,6,31,34,41,44,73
-175,-41,-15,-7,0,27,14,45,18,-24
-113,0,-10,6,-18,1,-1,-2,-37,-129
-108,3,0,17,-7,-7,-3,-7,-55,-223
-205,-2,11,31,12,8,-5,10,-46,-334
-120,-19,11,13,14,6,-11,1,-14,-278
-102,-6,14,-26,-13,-27,-44,-39,-41,-161
-67,-22,-12,-23,-46,-38,-35,-6,-5,35
124,-53,-35,15,14,30,42,62,93,221
243,45,8,10,2,5,-2,3,58,217
-101,65,6,-28,-51,-51,-72,-64,-42,19
-240,16,9,-15,-19,-36,-46,-35,-64,-67
-68,-43,1,0,18,11,11,15,-32,-50
-68,-69,-18,5,21,18,40,24,6,-40
27,-14,-13,-1,13,-12,1,-2,23,11
144,13,-7,-2,11,-1,2,0,8,44
9,-16,-20,-12,0,14,20,9,3,17
-152,-32,-15,-15,-11,12,25,9,-2,-21
-177,-8,-3,-12,-3,5,25,12,10,-14
-1,20,17,6,-4,-13,-25,-10,0,33
113,17,14,10,-18,-15,-43,-9,0,48
121,17,1,0,-22,-10,-25,13,28,58
-43,-75,-19,2,21,23,43,55,58,30
-95,-74,-8,28,51,29,45,52,43,11
6,65,28,18,4,-25,-26,-24,-35,-42
123,58,24,8,-10,-30,-52,-52,-59,-3
249,178,53,-3,-33,-58,-69,-73,-58,39
227,178,0,-8,-21,-7,7,-9,12,72
189,-49,-134,9,49,81,124,110,140,140
118,-247,-177,32,96,128,186,188,229,194
-161,159,176,72,58,22,36,12,37,-9
-324,125,298,-6,-92,-162,-184,-227,-227,-286
-214,-158,47,-83,-127,-143,-162,-190,-213,-237
-184,-171,-114,-63,-53,-32,-42,-45,-73,-83
-15,-40,-93,-11,11,20,29,42,30,2
88,69,-19,11,-7,5,14,30,25,0
-4,37,-3,20,-8,0,0,14,6,16
17,-5,-20,13,20,14,19,33,23,47
21,-10,-14,16,18,19,19,38,24,33
-20,-11,8,18,19,14,24,16,17,22
-31,3,10,5,15,6,16,-1,25,16
5,20,10,-14,2,-4,-16,-15,7,-1
27,14,2,-5,12,6,3,-8,-6,-8
67,-81,-39,-2,21,27,41,31,40,23
89,-112,-35,9,30,37,42,45,51,33
60,78,39,20,16,4,0,-5,-3,2
-37,158,56,-1,-1,-20,-41,-42,-41,-35
-125,7,-3,-9,14,17,5,0,-2,-31
-49,16,12,7,9,27,30,5,30,-1
-12,-18,-12,0,7,20,24,15,51,47
-60,-96,-25,22,58,56,71,61,66,68
-28,-26,20,11,18,10,29,16,14,26
70,33,43,-28,-58,-74,-57,-60,-55,-6
131,28,19,-26,-45,-52,-59,-46,-53,16
80,10,-12,-16,-20,-15,-21,-20,-29,5
6,7,-28,-5,-19,-2,-6,0,9,6
6,11,-20,0,0,1,0,14,17,21
-16,-12,-15,8,19,20,21,19,17,0
12,0,1,3,19,13,3,15,14,-29
20,8,1,-26,-1,-3,-9,-14,-1,-71
-45,-9,-11,-19,-14,7,7,-5,-1,-71
-12,27,20,10,7,18,8,-7,-25,-56
101,34,15,2,-6,-1,-29,-32,-58,-24
40,-55,-52,-15,-14,0,-7,3,-15,19
-32,-114,-90,-25,-20,-1,20,25,42,91
-44,64,11,-11,-29,-10,9,10,31,83
-193,133,85,22,-12,0,2,16,-11,-50
-228,-24,30,32,21,22,21,25,-5,-98
-103,-24,6,28,20,10,0,13,9,-42
59,62,-6,0,-2,-7,-24,-5,6,45
111,109,-54,-21,1,3,4,23,30,64
359,42,-58,-8,18,17,17,18,25,69
472,-71,84,49,43,17,-8,-28,-42,49
-129,-80,142,35,-2,-34,-63,-89,-115,-83
-332,-77,14,-53,-64,-78,-98,-100,-103,-35
20,-54,-62,-59,-36,-37,-32,-26,2,134
-122,-60,-51,3,29,50,68,52,51,31
-268,-7,-12,15,19,52,47,29,-20,-186
-59,42,-17,-7,-22,-11,-32,-37,-69,-163
-15,-22,-40,-37,-40,-40,-55,-44,-27,11
52,-42,-29,-17,-7,10,9,9,29,33
262,40,19,-11,7,19,24,16,48,88
129,63,24,-3,-16,-3,-13,-3,-8,54
-43,-35,-9,26,17,29,43,52,19,38
157,49,21,28,16,-1,13,29,39,104
142,31,19,1,0,-16,-8,4,4,77
43,-15,-19,10,-3,-10,2,13,22,66
-46,-1,-8,18,1,5,-3,28,12,37
-43,7,9,26,8,18,17,25,-18,-18
37,0,4,3,0,-7,2,8,-10,-7
-36,-4,13,-11,-10,-19,-11,-15,-30,-50
-138,-21,-6,-22,-21,-26,-28,-35,-67,-144
-265,-50,-34,-14,-18,-15,-13,-23,-72,-219
-253,-58,-20,-16,-18,-7,-8,-18,-61,-190
-45,-18,8,-10,-4,-2,6,-14,-24,-54
80,7,25,2,21,12,7,-3,-5,42
122,10,8,13,45,48,18,11,3,89
169,49,7,32,45,55,25,32,51,112
224,39,-4,33,33,43,27,35,71,141
54,-58,-33,25,45,51,62,65,89,167
-257,-103,8,17,17,-2,14,18,-2,-29
-227,-58,36,-45,-83,-113,-128,-125,-167,-277
7,76,17,-71,-120,-141,-156,-141,-171,-219
90,108,-4,-67,-100,-119,-134,-106,-109,-44
-72,-106,-99,-30,-16,-1,3,27,17,61
-28,-108,-57,28,50,83,92,114,109,126
128,91,51,51,40,41,52,49,47,62
97,88,40,35,19,16,36,18,8,32
25,7,5,12,12,12,40,24,13,37
-4,-17,-13,1,8,0,16,25,43,37
123,31,-3,-34,-7,-34,-23,-5,36,61
47,-1,-7,-27,7,-10,-10,-5,1,-24
-205,-88,-21,7,50,58,41,47,0,-72
-94,-26,1,5,34,29,22,46,15,7
96,127,49,3,-16,-16,-14,-7,-8,23
-6,66,14,24,-4,11,1,1,17,36
77,12,-8,41,10,19,-17,-9,52,121
256,84,11,13,-15,-37,-41,-41,11,112
151,36,13,-14,-24,-30,-32,-33,-15,-7
-50,-69,-9,-5,-2,0,-23,-5,-23,-80
-98,-66,-14,-12,-8,-19,-21,-22,-50,-103
-118,-30,-11,-20,-19,-24,-35,-35,-56,-161
-208,-22,-10,-9,-7,-14,-7,-8,-14,-165
-102,-26,-20,1,7,-9,14,11,13,-43
27,-6,-13,3,17,2,24,10,25,60
140,25,12,4,-6,-3,-12,-7,11,90
42,23,22,18,-15,-4,-23,-15,-19,30
-60,-51,-3,8,5,25,25,20,10,-1
-52,-47,3,-3,14,28,33,27,31,-15
-59,-27,-4,-1,13,22,8,13,3,-4
2,3,2,-8,4,0,7,15,0,48
56,37,10,-14,-1,-18,0,-3,6,71
97,62,13,-6,0,-23,-26,-28,-22,34
88,15,14,-18,4,-17,-41,-36,-56,1
-65,-17,-15,-27,5,9,0,21,-16,-15
-145,-11,-21,-8,1,27,22,52,14,-24
-110,-19,-15,2,2,6,-5,18,3,-22
-78,-40,-16,8,17,16,-14,12,-2,-24
-31,-45,-18,19,22,32,16,22,6,-35
27,0,0,24,9,4,1,14,17,2
31,19,11,17,-6,-10,-21,-6,11,36
91,5,5,-6,-30,-18,-11,-25,-25,29
26,-2,-16,-22,-22,-12,2,-14,-38,-27
10,27,1,-23,-25,-26,-19,-24,-44,-54
56,23,3,-26,-19,-28,-23,-18,-30,-21
43,-17,-7,-34,-14,-4,2,-2,-26,14
66,-6,8,-29,-2,3,15,-8,-19,35
109,15,9,-14,8,0,-8,-4,-18,32
25,20,2,-13,27,7,-19,-17,-31,23
63,20,5,0,17,18,-22,-18,-19,34
75,31,21,17,6,20,-13,-5,-5,16
36,118,35,22,-6,6,-14,-4,-12,-11
-28,37,-30,-3,-10,-3,-9,8,-4,30
-80,-266,-111,12,60,75,87,106,102,101
-98,-150,20,66,87,84,80,92,92,64
-202,134,155,34,-8,-58,-77,-87,-95,-91
-272,11,73,-17,-43,-48,-72,-80,-128,-171
-73,-83,-23,-19,-19,1,0,-13,-44,-86
154,-48,-61,-52,-43,-35,-25,-27,-10,46
183,1,-51,-60,-58,-58,-33,-25,-15,36
205,58,-16,-15,-47,-54,-17,-18,-4,39
181,76,8,3,-36,-49,-34,-12,15,78
-95,4,-3,22,7,12,16,23,38,-5
-145,-27,0,38,46,62,67,46,41,-24
-3,2,13,31,39,46,47,20,19,-7
35,20,27,50,34,20,27,-12,10,-32
-102,-15,2,27,14,-3,6,-12,4,-27
-216,-45,-10,13,1,2,18,0,-5,-52
-143,-9,4,19,6,18,31,3,8,-15
-66,32,12,9,9,9,24,-1,9,-27
115,42,7,0,15,-1,3,-7,-23,-116
335,21,-8,-28,-31,-40,-37,-27,-40,-60
106,-45,-23,-18,-14,-1,-2,14,16,-3
-101,10,15,29,17,15,13,16,40,13
-144,23,21,19,1,-6,-15,-13,11,63
-116,-44,-18,8,0,5,13,16,36,68
129,-34,-15,10,19,21,38,21,55,66
256,4,-4,3,7,6,17,3,44,91
-93,-10,-7,14,22,36,57,24,24,-12
0,112,41,1,-24,-17,-3,-42,-20,-9
267,130,29,-41,-55,-68,-55,-73,-26,136
157,21,-16,-33,-23,-18,-11,-9,39,122
87,-28,-20,1,0,22,32,30,54,9
65,-35,-1,17,14,26,37,43,56,9
-73,-16,10,0,9,13,27,36,50,1
-381,-23,-5,-30,-23,-29,-5,-9,3,-106
-319,-23,-3,-23,-24,-32,-14,-18,-4,-78
-77,-5,5,9,12,7,8,12,6,-26
30,-13,9,33,39,36,38,25,19,-30
55,-8,6,22,19,16,6,-6,9,0
-8,27,24,10,-8,-8,-7,-29,-4,-16
20,70,38,7,-27,-19,-15,-40,-31,-51
10,55,22,-5,-15,-18,-9,-34,-11,-55
-67,-49,-24,-2,13,36,28,32,39,-31
6,-124,-45,5,23,81,83,57,52,8
60,-69,-20,2,17,69,73,49,56,64
187,121,56,-10,-28,-38,-36,-46,30,104
90,106,25,-39,-69,-81,-70,-72,3,102
-137,2,-18,-21,-32,-13,-12,-9,6,15
-208,-28,-9,10,14,23,17,24,8,-71
-228,-74,-3,36,48,51,48,58,12,-113
-49,16,15,24,8,18,14,22,-5,-139
74,90,12,-17,-29,-52,-46,-39,-19,-79
12,20,-14,8,-2,-26,-15,-10,-9,-20
34,1,-6,29,7,-10,-2,4,0,18
120,-28,-39,-3,5,-10,-1,12,15,86
129,-57,-59,-9,6,11,30,48,52,119
40,95,44,13,12,26,44,42,54,67
26,85,67,9,7,15,6,11,43,31
69,-1,8,0,11,7,-4,0,31,18
57,-17,-10,-4,12,-3,-10,-3,9,-5
-67,-11,-13,-16,-4,-24,-25,-25,-20,-52
-140,-17,5,-1,-9,-23,-13,-27,-23,-65
-20,-22,-7,8,14,-3,13,5,-11,-21
125,-37,-44,2,42,34,62,49,47,69
210,-60,-108,13,80,94,118,111,141,159
180,53,-48,50,99,123,131,109,174,169
-95,259,215,63,17,-6,-19,-66,-14,-37
-171,20,217,-17,-112,-148,-177,-203,-184,-145
-59,-108,21,-53,-94,-93,-119,-103,-123,-68
-33,-97,-89,-46,-51,-26,-32,-14,-21,-6
47,-76,-98,-66,-37,-10,2,8,34,77
57,-1,-55,-49,-24,0,8,19,25,10
-97,1,-27,-13,-18,3,-4,-2,-39,-144
-257,-23,-23,11,8,25,17,28,-36,-190
-148,58,1,1,5,0,-11,1,-33,-120
-29,9,-16,-22,-15,-14,-16,-10,-2,-1
-71,-152,-57,3,39,65,71,59,73,89
105,-48,14,42,55,58,62,35,73,136
166,80,43,29,8,-7,-13,-11,27,91
89,32,-6,16,-3,0,-2,4,14,65
179,-28,-16,4,13,34,34,43,58,113
171,38,29,0,9,-4,7,6,39,83
32,69,35,9,2,-17,0,4,-3,-2
37,13,8,0,13,-3,12,32,11,20
42,24,16,-12,3,-17,-1,3,4,-8
-24,0,15,0,-15,-28,-19,-23,-24,-72
-158,-62,-6,1,-34,-23,-33,-30,-45,-74
-328,-60,-7,20,-8,-3,-2,-16,-32,-107
-419,-38,7,28,27,26,15,-11,-56,-255
-110,2,16,6,19,-13,-15,-38,-83,-275
398,32,-19,-27,-23,-41,-43,-63,-65,-16
313,22,-34,-33,-37,-28,-38,-56,-28,146
-60,4,-17,0,-7,-3,-2,6,26,89
-88,10,0,15,3,15,8,34,45,51
56,31,8,10,-1,11,5,18,29,57
55,24,-6,10,1,20,-1,5,21,56
-6,-3,1,1,18,27,23,8,2,40
-4,14,17,-3,19,14,23,10,1,41
-31,5,0,-6,11,16,-2,17,5,38
-24,-11,-27,0,16,16,15,9,7,15
1,-10,-17,14,14,12,10,8,3,-2
-17,0,2,16,-10,4,8,0,-8,-25
-17,10,0,5,-9,-16,-6,9,4,-15
-2,-11,-12,-1,-1,-9,3,31,14,8
26,-5,-12,-5,1,-10,7,25,24,28
21,16,2,-12,-9,-22,-12,5,26,33
-28,-5,-7,-28,6,-10,1,1,16,24
-23,-14,-4,-11,8,6,17,10,7,27
-22,-1,14,-10,5,3,1,2,-25,3
5,-23,-2,-21,11,3,4,-14,-32,-34
156,-32,-18,-16,-3,6,-5,-5,4,14
186,22,12,7,1,1,-2,4,9,49
113,74,39,18,0,-1,0,-11,-32,1
-124,-4,-2,5,5,9,2,7,-43,-81
-269,-67,-13,12,22,28,16,41,2,-89
-181,-30,6,23,42,53,36,51,35,-31
54,-37,-26,15,26,40,22,34,30,25
155,-34,-42,-2,-35,-7,-22,7,33,80
74,72,19,-4,-41,-52,-57,-32,5,55
-73,45,65,-2,-21,-48,-78,-70,-74,-31
-58,-4,36,-3,-16,-22,-59,-58,-86,-26
-46,-15,-2,-10,-7,0,-7,-10,-33,7
-27,-1,-10,0,3,9,18,16,16,46
202,79,14,5,-32,-32,-51,-45,1,84
259,18,-4,3,-3,-11,-8,-22,-13,0
95,-30,-17,6,34,26,33,34,10,-40
-57,-25,-9,3,6,14,23,30,23,-9
22,36,19,4,-30,-5,-12,-5,11,30
3,13,3,-4,-15,6,-18,-11,-26,-41
-313,-92,-55,-27,-8,13,1,-29,-66,-144
-426,-121,-79,-39,-10,3,7,-30,-41,-94
-189,-53,-33,3,21,20,33,18,4,-31
113,16,13,29,15,17,29,39,40,36
254,77,37,15,-3,-20,4,10,47,73
121,71,31,-2,-8,-31,9,-2,10,22
-20,-10,-7,-5,0,6,23,29,35,18
39,23,7,-8,-17,-12,-4,14,31,32
78,40,3,-18,-30,-38,-37,-20,-19,-9
10,-18,-12,-4,-5,-14,-9,-8,-11,-26
-26,-16,-3,2,22,2,23,15,9,-6
-12,-6,5,4,4,11,35,22,8,-3
-3,-11,8,0,3,20,26,23,25,9
23,10,8,13,4,13,12,8,28,11
20,17,2,11,10,16,10,11,22,-5
18,9,11,-6,20,10,3,-3,13,-15
59,11,9,-19,0,-14,-2,-21,23,25
30,1,6,-11,-12,-17,0,-4,21,26
-63,-3,1,0,-7,-12,-8,-13,-13,-19
-59,3,5,3,-3,-5,-6,-11,-22,-27
-83,-21,2,18,10,17,6,18,-12,-26
-46,-13,0,24,3,3,-11,-2,-7,11
14,0,5,21,-5,-8,-7,0,5,58
-10,-4,6,19,12,5,14,17,27,62
-3,9,5,19,21,15,17,30,23,12
105,38,29,7,-5,-9,-4,11,-2,-4
72,11,7,-11,-13,-22,-10,-10,-16,-38
71,-13,-19,-25,-16,-31,-13,-33,-35,-56
35,-34,-27,-32,-17,-22,-13,-23,-47,-7
-40,-27,-17,-23,-12,-12,-9,-16,-36,18
-48,-3,-8,-7,0,-3,3,-16,-12,-2
-192,-10,-12,10,19,36,47,14,14,-48
-248,29,15,44,59,66,58,45,38,-38
-76,83,34,44,62,50,41,37,31,-6
236,15,-13,30,63,57,61,50,49,58
368,-111,-45,18,46,60,67,56,55,106
216,-19,55,-41,-77,-99,-106,-137,-137,-30
124,118,68,-111,-153,-180,-205,-212,-179,-46
59,16,-4,-77,-73,-72,-83,-64,-32,101
-57,-37,-38,3,0,33,22,46,40,95
-120,-22,-28,35,25,49,47,59,55,4
-216,-16,-14,24,19,33,28,46,33,-80
-208,7,0,14,10,22,23,33,5,-115
-67,19,6,15,3,12,17,18,12,-79
-86,20,-18,0,12,24,27,27,-2,-93
-174,-19,-54,-26,25,5,20,25,-22,-109
-217,-160,-48,-10,18,3,21,19,6,-46
-200,-10,67,28,17,-2,-20,-10,-5,-12
9,105,96,22,10,-11,-42,-43,-56,-8
302,28,28,7,23,-2,-22,-31,-62,27
445,8,-3,-3,22,0,6,-11,-13,110
457,23,-9,-23,3,4,4,6,22,203
544,60,-5,-31,-8,-15,-13,5,43,261
248,28,-14,-28,-17,-17,-21,2,31,220
-160,-35,-17,-2,-19,-4,-20,-4,13,103
-281,-50,-15,-6,-9,5,-26,-3,-12,-31
-321,-61,-19,0,-10,7,-7,6,-32,-147
-563,-76,-42,11,-3,8,0,-8,-66,-262
-420,-28,-9,16,20,16,-2,-17,-65,-234
-79,0,25,19,37,24,3,3,-39,-161
44,16,16,11,16,7,-17,11,-19,-125
140,44,14,-1,-28,-38,-46,-40,-51,-72
-29,-42,-10,-5,-9,0,10,2,-54,-50
-90,-114,-32,1,13,25,33,32,29,78
193,1,0,-8,-19,-30,-30,-9,57,178
165,78,29,-11,-17,-19,-21,-4,17,119
47,133,54,10,-6,-5,-13,2,-4,98
101,136,29,22,0,-10,0,-5,-3,81
147,-7,-25,15,14,19,26,21,15,45
93,-146,-52,20,58,64,66,56,26,19
-55,-85,-14,19,17,5,-13,-7,-38,-44
-81,-12,24,-18,-43,-55,-79,-82,-107,-129
-54,-5,5,-21,-26,-14,-20,-29,-40,-77
-2,-24,-36,7,21,35,28,45,45,41
164,41,-60,18,28,30,32,61,73,80
187,5,-104,-9,21,27,40,75,79,82
-115,199,71,4,-2,-6,-8,2,6,-20
-244,162,244,-21,-104,-128,-178,-185,-172,-171
-158,-198,74,-62,-105,-111,-157,-157,-161,-140
-121,-234,-73,-30,-9,18,-7,-8,-31,-12
3,-70,-56,14,36,66,42,50,38,70
100,8,-14,26,42,50,41,43,48,80
90,13,0,14,26,15,38,30,48,61
56,44,8,8,-18,-38,-13,-18,3,11
-60,-1,-14,-6,-20,-31,-16,-17,-17,-28
-91,-54,-31,8,20,37,48,37,19,-38
-59,-8,-19,15,28,46,48,37,19,-62
-37,17,-22,0,6,3,25,20,18,-30
-13,1,-13,-8,-6,-4,16,16,0,6
34,1,2,-7,-9,-9,2,1,13,35
91,29,3,-14,-16,-21,-26,-12,10,79
92,42,-1,-30,-12,-27,-21,-15,-2,90
-57,0,7,-4,24,12,29,9,-9,-13
-186,-21,7,16,31,37,68,28,15,-56
-38,8,12,7,3,-4,9,0,17,11
242,72,15,-10,-19,-30,-39,-34,-6,73
294,55,4,-4,-4,-25,-13,-25,-5,25
198,38,1,-2,0,-33,-28,-22,0,3
15,-7,-21,0,5,2,-13,4,7,-10
-145,-23,-5,0,21,30,17,21,14,-40
-302,-43,-19,1,11,25,34,9,-7,-70
-301,-55,-34,0,-7,1,3,-10,-36,-58
-22,-45,-25,-7,-15,-6,-1,-13,-20,36
166,-25,-12,-6,4,6,14,-1,12,83
112,27,6,9,2,2,3,1,31,34
33,23,2,3,-9,-2,-4,0,15,-8
2,15,-7,0,-2,4,-6,-1,14,-6
27,25,2,-7,-5,-4,-24,-18,3,-6
5,17,1,0,-7,-7,-12,0,-1,-16
11,-9,0,7,-1,3,3,9,4,19
22,-9,-7,-1,-7,6,0,10,1,20
20,-1,-2,-1,-13,-5,-3,7,-6,6
27,9,0,-5,-18,-15,-1,-2,-18,-1
-3,-2,9,14,-1,-8,-11,-4,-32,-28
38,0,23,13,19,-3,-8,0,-25,-16
118,2,13,-1,11,-3,2,0,1,88
22,-14,-5,9,12,10,27,21,34,131
-14,-17,-8,34,44,39,41,36,54,95
114,14,12,36,35,33,10,20,31,62
10,12,11,21,4,7,-13,-4,-19,-47
-86,34,6,3,-10,-12,-16,-18,-39,-102
-37,15,-3,-5,-18,-10,-9,-16,-41,-143
-159,-109,-79,-40,-32,-12,-34,-18,-37,-156
-307,-45,-52,-50,-50,-67,-55,-29,-41,-106
-106,103,59,-19,-33,-48,-35,-17,-4,-18
95,30,44,10,16,20,17,31,63,54
37,-21,26,20,37,41,34,20,24,-6
-31,-13,12,23,17,19,5,-3,-16,-59
-191,-60,-23,10,18,35,24,25,-23,-96
-132,-75,-13,11,35,39,44,34,8,-3
33,-26,12,22,23,25,16,16,32,111
153,120,60,5,-27,-27,-31,-35,12,119
160,145,46,-26,-51,-68,-82,-77,-28,55
139,11,-22,-37,-24,-33,-39,-10,15,103
133,-35,-16,-5,11,10,28,38,23,76
154,-33,8,8,12,8,12,7,-32,-17
116,-5,3,-3,3,-4,-5,-6,-45,-22
-63,-10,-2,-10,-13,0,-5,-9,-29,-21
-101,-24,-6,-14,-19,3,-2,12,2,-29
-3,-19,-3,-4,-5,5,5,27,11,-20
-41,-16,0,0,12,5,19,25,7,-51
-25,-8,8,-4,3,4,15,-4,0,-43
-13,2,6,-24,2,-7,-13,-21,-14,-25
-20,18,8,-22,-5,-27,-18,-13,0,15
-16,12,0,1,1,0,13,14,3,29
-10,35,-8,18,29,28,51,18,-5,-24
110,65,-22,-12,-1,-10,1,4,-20,-26
94,-133,-83,-29,-11,3,10,34,30,26
-64,-127,-28,27,40,50,42,63,66,82
-21,149,105,32,20,10,-11,0,10,78
30,100,58,4,-11,-9,-11,-25,-3,68
48,13,5,0,-3,-6,-4,-13,-8,54
44,-15,-6,-1,4,-5,1,-2,-1,-5
-106,-60,-30,-9,4,16,16,12,0,-101
-120,-22,-25,-22,-15,-17,-4,-30,-52,-134
-147,-15,-27,-31,-31,-50,-24,-57,-76,-143
-272,-44,-33,-12,-23,-16,-6,-20,-52,-152
-47,-17,-14,7,-20,-1,-3,0,-5,-18
105,18,8,14,-5,9,18,9,36,81
59,1,6,30,14,34,32,19,34,50
110,39,21,26,1,4,0,-7,11,43
133,71,30,-6,-18,-43,-49,-44,2,44
64,51,15,-28,-7,-22,-10,-25,1,17
119,59,28,-12,21,0,12,5,16,62
256,28,5,3,30,6,24,27,53,151
245,-91,-28,29,69,67,72,77,97,184
99,-88,-3,24,52,51,38,30,39,102
-116,-41,22,-12,-22,-32,-42,-50,-64,-3
-208,-52,-6,-31,-42,-40,-50,-56,-105,-108
-512,-60,-35,-32,-43,-25,-46,-33,-107,-236
-537,-23,-23,-8,-12,-13,-24,-22,-59,-293
-273,-31,-23,16,5,-8,0,-11,-38,-289
20,-3,-17,17,-3,-6,15,9,-24,-140
244,54,0,12,-32,-22,4,12,39,76
223,37,10,-1,-10,-7,-9,10,59,159
112,25,21,6,17,17,-7,0,52,122
65,36,22,11,17,11,-14,0,50,114
58,18,9,9,8,13,0,24,45,73
36,16,19,15,4,15,0,10,15,22
75,18,11,-7,-5,-12,-14,-18,-5,44
85,12,-7,-18,-9,-5,1,-5,-9,13
-24,9,-6,-3,-1,16,24,4,-18,-38
-115,-90,-5,15,39,53,80,55,31,-22
-98,-86,7,30,63,65,84,61,41,-27
27,64,31,7,-2,-9,2,3,-1,7
80,105,24,-18,-48,-60,-60,-44,-32,32
19,11,-13,-13,-8,-12,-27,-5,4,31
-16,-1,-17,-8,10,22,3,39,48,36
-34,27,11,13,5,0,0,21,32,-1
-8,34,28,18,3,-19,-18,-9,0,-32
-65,-55,-1,7,8,11,4,13,8,-29
-199,-136,-41,3,24,33,34,35,35,0
-94,-33,-13,28,29,23,28,23,29,58
130,108,58,16,10,2,14,-10,10,46
257,94,42,-16,-26,-21,-10,-30,6,35
389,90,27,-43,-77,-72,-74,-92,-14,83
273,28,-11,-67,-78,-87,-88,-94,-37,44
-85,-103,-68,-20,0,3,26,2,13,-23
-301,-76,-29,39,50,67,62,30,13,-80
-89,54,29,49,34,34,19,-11,12,-46
143,95,17,23,0,-8,-7,-24,22,-4
45,17,-3,7,-5,-4,8,1,29,-7
6,-45,-12,7,9,22,15,4,0,-29
44,-15,-8,-1,3,16,20,14,12,15
-45,3,21,2,7,19,39,36,54,31
-84,16,0,0,0,2,20,31,45,2
-103,26,-11,-21,-32,-25,-23,0,5,-3
-141,-6,-4,-6,-14,-3,0,5,6,4
11,-13,-5,2,-6,7,20,18,18,14
90,-8,-11,0,-11,-4,9,13,21,7
-36,-32,-13,22,0,-9,2,15,13,-13
-89,-24,0,13,7,-3,9,10,3,-10
-49,17,16,-4,15,2,18,11,2,8
0,26,16,0,13,14,26,16,22,5
130,7,2,8,2,7,18,-5,30,17
164,-14,-5,-1,13,-8,-2,-18,27,0
0,-46,-2,-10,15,1,9,-5,12,-49
-140,-10,0,-11,6,6,-9,-16,-18,-54
-34,45,3,9,10,17,9,-1,0,11
144,62,4,20,33,31,55,31,45,95
211,29,-2,32,66,72,106,87,115,175
201,-27,-13,50,89,103,113,115,146,189
55,26,67,18,-4,-19,-30,-34,-6,23
-39,35,44,-70,-139,-177,-196,-194,-193,-158
39,-144,-140,-83,-75,-75,-79,-49,-64,-29
-62,-223,-211,-22,60,94,100,139,117,98
-463,289,140,49,38,31,17,23,-21,-169
-598,144,278,-11,-106,-140,-178,-170,-225,-380
-301,-240,49,-64,-99,-103,-125,-116,-161,-209
12,-161,-55,-22,0,7,-4,6,-24,-20
125,12,-38,21,28,49,42,40,29,66
97,29,-35,20,20,35,30,32,38,52
60,6,-34,16,19,21,21,26,27,45
59,-15,-22,23,20,22,17,20,23,49
55,11,0,27,28,30,26,20,13,9
42,5,6,24,23,29,24,10,2,-10
68,-11,0,17,4,8,14,0,11,42
168,45,1,6,-17,-30,-29,-23,6,99
159,98,19,-3,-32,-49,-53,-66,-41,42
-52,17,-15,-3,-14,-15,-25,-33,-61,-58
-13,-33,-31,-6,-7,22,16,22,-10,14
188,97,3,-15,-14,-13,-13,-5,9,94
159,48,-34,-14,-5,-22,-5,10,32,107
73,-166,-72,2,18,19,36,42,41,91
-24,-52,22,14,30,25,26,23,5,27
-85,53,56,-20,1,-6,-2,-4,-9,-26
-151,-25,-18,-39,-15,-8,6,16,-8,-10
-262,-57,-50,-20,11,18,35,46,8,-14
-232,-60,-20,35,40,42,31,23,0,-86
-65,-38,9,31,39,34,-1,4,-25,-134
103,51,17,-9,3,-9,-15,-20,-42,-82
184,114,16,-15,-19,-45,-32,-47,-53,28
180,133,-12,-8,-18,-13,-12,-16,-12,104
185,76,-74,-11,18,44,44,46,53,122
131,-113,-66,11,56,84,77,95,94,110
-153,-114,138,67,39,23,11,-3,-19,-66
-371,-65,155,-18,-75,-106,-128,-149,-193,-229
-262,-81,5,-87,-102,-110,-133,-113,-138,-100
-72,-33,-42,-52,-36,-35,-58,-23,-20,13
63,1,-28,-2,22,26,14,37,19,-27
48,-47,-38,30,48,78,93,75,22,-13
-83,-44,-10,50,45,76,101,79,44,31
48,65,25,26,0,2,3,23,32,77
292,158,13,-40,-87,-118,-135,-83,-41,119
6,34,-17,-35,-72,-75,-89,-63,-75,10
-21,-81,-24,17,33,48,37,42,-18,-38
363,21,19,31,64,46,50,47,10,15
332,40,24,8,20,-1,8,17,21,92
4,16,19,5,1,-15,-10,-4,27,97
-121,41,-6,-5,-19,-30,-51,-35,-31,9
-168,0,-34,-21,-29,-20,-37,-13,-38,-24
-120,-30,-27,-2,5,2,0,12,-26,-50
90,-21,-1,-9,-8,-2,-20,-8,-33,0
74,-3,-11,-10,-2,-6,-36,-6,-27,47
-42,3,-18,21,7,-10,-26,3,-27,-36
-90,0,-9,23,0,-15,-20,0,-36,-105
-119,0,0,1,-7,-17,-17,-12,-61,-139
-122,3,4,0,-12,-18,-22,-23,-53,-143
-98,-31,-2,16,0,-3,-4,-14,-27,-86
-45,-53,-2,32,30,38,53,25,13,-8
55,-14,6,12,33,40,38,13,15,54
127,22,9,-2,14,3,-16,-10,-5,82
67,12,2,-10,-5,-29,-29,-23,5,93
-4,-17,-2,-4,2,0,15,13,22,70
20,-5,19,1,10,21,13,11,5,37
-66,-1,8,1,4,10,-11,-20,-22,-8
-170,-20,-6,4,-3,-7,-4,-5,-28,-48
-82,-4,-5,-10,-10,-5,6,6,-23,-27
-119,-8,1,-11,-9,2,-13,-3,-25,-45
-82,-3,11,-6,-4,4,-16,-5,-8,-29
123,27,0,-11,5,0,-7,-18,1,13
197,31,-15,-19,-9,-12,-13,-23,0,37
111,17,-7,-20,-17,-16,-10,-1,6,21
27,8,-4,-1,-11,1,-5,12,9,17
6,6,-5,9,0,7,2,10,17,7
-9,-20,-1,-2,5,2,6,13,39,14
3,-13,1,-11,6,-13,10,13,41,41
-25,13,9,0,15,11,9,23,28,33
-80,1,4,3,22,26,16,21,1,-34
-117,-34,-9,9,14,34,20,2,-14,-83
-39,-23,-14,2,14,12,4,-26,-17,-58
114,18,-7,-18,-29,-34,-48,-61,-15,12
67,-10,-25,-17,-38,-11,-44,-9,11,43
38,9,-10,2,-14,7,-17,15,15,11
180,60,8,-4,-23,-22,-11,-8,-7,30
40,20,1,-1,-18,-8,18,17,1,11
-92,11,14,9,-3,-3,10,16,3,-21
-58,1,0,8,5,5,0,18,15,0
-23,-3,-9,8,11,16,9,24,6,-9
-9,0,13,2,5,13,-2,15,-5,-17
-11,4,21,-16,-8,-18,-29,-1,-8,1
-80,-18,4,-16,2,5,-5,7,0,-5
-79,-18,2,-1,32,31,15,24,3,-7
72,-11,1,0,22,13,2,3,-8,7
187,-10,2,-7,4,6,-9,-9,-17,-8
29,-16,-5,10,-3,19,19,14,29,-6
-175,25,2,27,-17,-9,-9,-16,14,-10
-206,15,0,19,-17,-12,-22,-39,-3,-28
22,-3,-10,2,3,6,22,4,30,29
125,-4,-7,10,8,13,31,15,19,30
172,9,8,6,1,-10,12,-12,4,3
331,10,8,-8,-21,-26,-11,-25,-11,56
201,-6,-16,-19,-26,-17,5,-1,-2,94
-104,-47,-31,0,11,34,45,52,44,48
-88,13,4,19,-2,19,15,38,73,61
-5,49,35,22,-20,-28,-34,-27,30,24
-136,17,11,16,8,5,2,-20,-14,-126
-232,39,13,0,16,12,15,-5,-21,-189
-205,39,10,-4,15,-7,3,-7,-13,-166
-12,20,-11,2,-8,-30,9,-10,-1,-74
91,2,-8,10,-11,-22,16,13,33,32
146,22,2,3,-17,-23,3,11,56,137
216,-58,-36,-1,-6,-2,28,22,72,173
129,-116,-51,7,32,39,67,59,89,133
-67,72,50,36,45,46,53,41,51,5
-162,73,80,11,17,7,1,-12,-23,-103
-240,-18,-5,-37,-42,-38,-31,-39,-47,-100
-242,-55,-29,-34,-33,-19,-17,-24,-15,-86
-145,-5,0,-3,6,2,-2,-13,11,-106
-3,15,4,3,15,6,7,-2,19,-49
52,1,6,13,16,23,30,25,35,-25
101,-12,0,6,16,16,14,13,27,6
235,-2,-18,-26,-18,-25,-7,-16,12,71
100,2,-23,-27,-25,-24,-17,-15,8,50
-186,-5,-7,-1,-10,-1,7,-2,25,2
-168,-14,8,10,9,8,22,-1,6,-20
149,32,13,-3,-6,-9,0,-13,-1,21
183,45,7,-5,-7,-14,-5,-1,8,57
24,16,8,10,26,17,20,24,35,51
-2,7,11,27,44,40,49,32,47,47
8,-3,6,25,28,36,38,37,39,28
80,11,6,8,-6,-11,-7,9,20,13
51,25,2,-4,-22,-20,-21,-15,-26,-31
-76,-7,-16,-17,-17,-15,-5,1,-40,-27
-134,-56,-25,-25,-23,-16,-15,-5,-25,14
-103,-17,-7,-6,-11,-7,-20,-8,-40,-13
-17,44,21,-2,-1,-10,-31,-19,-62,-38
-25,-1,-1,4,6,14,-17,4,-45,-14
43,-24,-4,5,5,22,-11,10,-17,44
86,2,14,-4,-7,5,-18,-4,-9,59
52,25,5,-21,-33,-25,-43,-22,-18,21
20,-17,-11,-11,-13,-15,-38,-7,-25,14
-33,-32,-6,0,19,5,-11,16,-22,12
-60,-8,9,3,29,23,24,12,-10,-12
13,7,20,14,33,40,15,12,-7,-1
123,9,0,4,16,5,1,-14,-21,35
108,4,-8,-9,-9,-31,-31,-38,-60,11
20,-29,-16,0,0,-3,4,-9,-45,-49
-98,-41,-21,10,24,27,14,-6,-37,-119
-212,-43,-22,10,9,24,13,-3,-22,-66
-83,18,-5,21,7,1,5,3,-3,7
90,121,43,23,7,-19,-20,-19,-20,4
208,194,46,-27,-58,-84,-94,-85,-81,0
155,-66,-57,-65,-55,-47,-49,-25,-48,-7
6,-311,-98,-9,31,53,58,80,52,38
-164,-32,47,28,33,27,29,37,51,35
-178,53,49,-11,-6,-5,7,9,47,6
-125,14,19,-10,-6,16,33,14,25,-24
9,49,15,6,-14,-16,-8,-24,-26,-40
163,-5,-21,0,-4,-9,10,7,20,48
151,39,19,11,6,2,-10,-3,45,110
46,54,26,8,-4,-9,-34,-43,-26,11
-30,-45,-11,11,12,33,28,4,-24,-59
-10,-57,-13,18,10,39,52,15,26,1
28,13,6,7,-5,12,8,-1,40,54
-20,41,6,8,-6,9,-4,-1,24,-14
-47,12,-1,22,1,10,5,7,3,-76
-9,-18,-16,8,5,9,17,2,12,-56
43,-9,-12,-6,-4,0,14,8,34,22
-4,7,-8,-12,-3,-5,13,10,43,38
-51,2,0,-1,4,4,9,0,24,-16
14,0,-4,2,-2,-12,-10,-9,5,7
21,7,-6,-5,-16,-10,5,-2,14,65
-44,9,3,7,-2,0,28,7,36,26
71,24,15,14,17,-1,22,4,21,12
148,22,-1,-4,17,-17,-13,-10,-1,27
-14,-20,-13,-1,16,3,-1,-1,3,-14
-84,-18,-2,3,21,20,14,3,9,-37
-43,8,16,0,14,8,14,8,7,-45
9,27,15,-8,-5,-2,10,-5,9,-31
-38,14,7,-4,-6,26,14,2,22,-9
-123,-3,7,-8,4,36,31,27,32,-12
-110,-13,14,6,15,12,9,13,20,-17
50,4,9,30,19,2,0,16,34,5
41,4,1,25,9,0,9,11,26,-10
-163,-13,-7,2,-21,-7,-17,-19,-21,-87
-187,8,-12,-6,-23,-13,-17,-14,-9,-71
76,19,-20,-10,-17,-10,-3,9,36,64
207,-53,-39,0,13,22,38,44,79,143
92,-20,-12,-9,14,9,5,7,41,102
44,82,38,-23,-40,-76,-82,-91,-59,-1
37,54,40,-38,-41,-81,-79,-78,-82,-41
14,-9,-10,-14,4,-16,-6,3,3,10
-39,-28,-62,38,82,82,88,101,104,77
-104,-55,-106,71,153,168,187,186,182,141
-15,-99,-127,82,180,217,228,246,267,248
-83,160,83,97,117,112,113,106,131,100
-252,214,349,2,-136,-227,-249,-305,-311,-337
7,-98,162,-168,-320,-384,-408,-435,-466,-434
626,-120,-90,-172,-237,-210,-215,-224,-257,-121
412,-70,-141,-85,-66,-12,-11,-1,-28,55
-271,-43,-84,-6,48,88,91,117,85,-20
-321,6,-21,43,67,93,67,70,53,-73
-96,5,-9,46,47,55,24,39,27,0
21,0,4,25,29,31,20,48,39,67
76,28,7,13,8,7,-18,22,27,74
2,-9,-2,2,13,17,-3,30,23,57
-55,-37,-4,4,28,48,24,37,18,24
-64,2,12,-1,12,27,14,8,-7,6
10,30,17,8,-1,9,-2,-14,-23,4
133,9,0,-9,-2,-5,-4,-10,-13,11
33,-87,-47,-11,14,20,29,24,-2,10
-77,-46,-33,0,38,28,41,28,-10,14
-7,129,58,-3,-12,-35,-33,-41,-46,-8
17,45,22,-24,-29,-33,-27,-9,-21,11
-102,-86,-31,11,20,32,58,69,30,23
-100,-79,-24,33,40,42,66,59,28,-9
29,6,18,14,-2,-2,2,7,-5,4
182,73,41,-2,-28,-28,-36,-21,-22,57
174,43,9,-20,-19,-19,-16,-32,-33,49
40,13,-24,-24,-18,-17,-10,-21,-11,54
-15,-11,-19,-18,-1,-8,15,11,1,61
44,16,0,-3,20,16,25,26,6,63
75,12,2,0,8,6,10,8,11,40
29,-45,-22,11,15,9,24,0,21,13
-69,-32,-12,21,25,22,26,10,9,-34
-76,34,5,15,7,-10,-33,-29,-48,-94
-218,16,-9,5,-10,-18,-48,-49,-71,-152
-300,-28,-3,14,7,15,-16,-14,-38,-164
-221,-44,5,12,-5,24,-6,-11,-24,-119
-99,-42,0,13,4,25,2,-3,-24,-67
20,-9,17,12,29,16,0,2,-8,-5
84,12,27,9,15,9,12,0,12,39
30,-21,0,-6,15,18,25,25,18,19
79,-8,5,3,13,10,8,24,25,47
287,94,26,-10,-44,-53,-46,-17,18,137
286,110,11,-41,-71,-82,-76,-21,15,131
124,11,-15,-27,-29,-12,-21,15,28,57
72,-11,-12,-5,0,14,5,14,28,52
12,-3,-1,3,16,19,24,21,40,25
-4,10,13,13,4,19,45,20,40,16
-22,17,10,16,-2,4,35,4,37,8
-197,-15,-12,25,12,-2,13,-5,25,-42
-363,-51,-25,12,11,-5,11,2,-5,-129
-256,-37,-5,-12,-5,6,2,-13,-26,-154
-134,-17,6,-4,0,13,16,7,-9,-137
-53,-7,6,13,17,20,23,18,16,-104
126,-9,4,21,24,29,13,1,1,-14
344,45,9,3,0,-13,-7,-34,-12,136
274,55,0,-20,-31,-38,-16,-24,25,205
162,58,-2,-29,-54,-40,-28,-10,70,227
91,43,-5,-9,-28,-10,10,2,37,105
74,-21,-24,1,-2,22,32,17,1,12
-24,-12,-15,-19,-14,-13,-21,-14,-2,-10
-148,7,5,-6,-5,-22,-40,-21,0,-97
-129,-28,-15,6,8,5,6,18,2,-157
-75,-32,-13,9,23,20,52,35,25,-129
-96,-8,-1,11,7,7,32,18,4,-113
-75,7,5,12,-10,5,12,4,-16,-54
8,26,9,0,-11,1,-11,-4,-25,49
27,6,1,-19,-10,5,-6,-6,-25,67
5,-28,-18,-7,2,6,11,8,-8,0
-124,-33,-19,7,-2,0,-14,-8,-26,-63
-137,-4,4,17,-3,-8,-28,-35,-38,-81
101,8,3,12,6,-3,-34,-29,-26,11
151,0,1,2,0,-14,-30,-20,0,82
19,-9,10,10,1,-9,-27,3,21,54
-44,-28,1,26,22,21,18,25,17,14
-67,-3,13,22,24,23,22,16,13,4
-36,11,16,7,5,0,5,9,-1,4
-26,-21,-6,2,-11,0,0,16,-8,1
-12,-41,-12,-16,0,1,0,16,-11,14
142,17,17,-25,-11,-19,-21,-4,-35,35
126,26,24,-18,-9,-5,-14,-4,-34,-2
49,-6,0,-10,6,11,7,18,-10,-10
7,0,0,-10,0,-5,-9,0,2,25
-3,61,32,-22,-34,-47,-63,-54,-27,48
-18,12,11,-4,-22,-19,-19,-15,-6,16
96,-30,-12,9,3,19,34,31,38,14
130,-26,-2,8,15,16,22,-8,4,-38
-5,-14,-5,-17,-4,-9,-5,-30,-26,-42
-94,7,-3,-15,-11,-20,-20,-25,-23,7
-113,-16,-3,18,9,3,-8,2,0,0
-76,-37,-3,29,24,21,20,19,16,-27
-48,-25,-4,9,16,19,12,21,29,1
-58,22,10,13,4,7,1,16,29,-3
3,72,11,9,-13,-30,-28,-27,-2,2
70,25,-9,-12,-17,-22,-16,-22,-11,-5
50,-30,-15,8,-2,22,22,35,32,-4
0,-22,0,11,15,27,43,55,56,27
-10,29,24,4,27,15,-3,11,13,0
152,102,29,-14,-23,-44,-57,-53,-19,30
93,19,-24,-26,-32,-19,-7,-4,15,44
-15,-66,-43,-12,8,22,55,41,76,92
103,-27,-13,8,43,40,49,62,106,141
204,59,35,20,25,14,3,1,44,78
3,38,38,10,-10,-13,-35,-52,-30,-57
-333,-38,-9,-6,-6,0,0,-26,-68,-203
-343,-26,1,3,-2,11,28,-10,-71,-219
-114,17,14,-8,-8,-10,-1,-12,-32,-82
-88,-30,-15,-14,-7,4,23,19,10,-51
-42,-17,-5,1,0,14,29,35,41,-44
73,0,2,8,0,4,6,16,36,33
101,1,-9,10,0,1,0,-4,40,66
57,0,-8,6,5,7,0,-9,26,9
82,2,-3,0,-5,-13,-12,-24,2,31
65,16,1,0,-10,-11,8,3,2,45
-5,5,-6,1,14,16,50,22,15,38
-48,-14,0,3,13,14,29,3,25,29
-70,-21,6,11,14,6,2,8,11,-13
-80,-13,-1,17,17,7,18,26,7,-7
-29,4,-6,-10,-8,-8,20,5,17,21
41,17,-6,0,-16,-8,6,2,14,19
43,11,12,14,16,17,41,25,21,2
48,-13,17,0,35,36,18,8,7,-2
143,6,12,4,17,25,-9,-22,-19,-16
232,44,5,-8,-29,-22,-43,-24,-23,9
116,22,-16,-32,-41,-42,-40,-18,-30,35
-140,-15,-37,-36,-36,-48,-41,-23,-45,-1
-234,-54,-42,-27,-25,-18,-11,-14,-26,-16
-141,-20,-10,5,-3,5,14,-10,3,-34
-2,25,20,31,11,0,8,-18,12,-22
33,16,11,30,7,-10,12,-3,4,-10
2,9,4,11,0,6,16,14,9,14
-61,-1,9,2,13,14,9,13,30,16
-115,-5,10,7,31,19,0,22,21,12
-71,-1,4,8,23,19,12,18,21,14
89,0,2,11,10,5,24,16,23,30
92,-10,-2,15,15,7,11,-3,-7,2
181,16,12,11,4,5,-7,-28,-42,-18
263,49,3,-14,-25,-19,-39,-46,-53,8
-60,46,-4,-25,-26,-11,-37,-24,-33,6
-212,1,-8,-7,3,6,-15,15,-7,19
-39,-89,-23,3,46,30,22,50,38,74
36,-99,-9,23,64,55,46,60,45,55
-26,-27,42,4,8,-10,-35,-18,-49,-29
-76,4,39,-21,-49,-64,-95,-89,-103,-27
60,57,18,-45,-53,-66,-77,-89,-80,24
216,85,-12,-39,-39,-52,-39,-52,-30,26
108,8,-32,9,-1,-15,11,6,24,1
-34,-46,-36,28,20,19,39,28,32,-18
-107,-58,-31,19,19,32,42,22,22,-28
-94,-9,-17,4,-3,10,0,8,-7,-68
-21,45,0,-28,-18,-28,-26,-29,-21,-101
-116,-3,-7,-21,-1,9,-11,0,-4,-126
-109,-21,5,13,22,25,14,21,19,-52
-75,-27,0,15,26,24,46,30,18,36
56,-10,13,17,31,30,62,30,15,88
310,32,36,6,7,3,29,3,23,130
253,20,19,8,-10,0,-2,-3,11,74
64,11,3,14,-10,7,15,6,0,10
-94,34,14,-1,-11,-13,-7,-5,-8,-30
-247,21,8,20,-2,-19,-16,-23,-47,-98
-275,-1,-14,6,-36,-46,-51,-35,-56,-117
-273,-36,-35,-28,-38,-47,-33,-19,-30,-95
-118,60,4,-6,-1,-25,-3,-24,-22,-61
126,84,-8,-8,-19,-18,-16,-21,-10,30
171,-143,-81,-11,-3,21,40,28,43,75
142,-191,-51,18,36,44,96,72,91,123
65,73,82,26,14,-8,22,6,37,108
-44,154,105,8,-3,-30,-22,-15,-5,22
-31,14,27,1,5,0,-2,15,16,2
8,-52,-12,4,25,25,7,16,14,-7
43,-32,-7,9,19,26,7,3,-17,-23
48,-18,-15,16,20,26,11,7,-37,-40
-36,-36,-22,15,18,23,34,27,-29,-40
-65,-56,-32,6,12,20,15,38,31,26
59,22,5,-9,-19,-20,-31,-14,46,72
62,96,14,-11,-47,-59,-60,-46,-21,0
64,71,-5,-18,-43,-32,-51,-30,-53,0
-5,-15,-16,2,1,14,16,11,-25,-2
-143,-74,-25,9,14,36,50,49,0,-15
-118,-32,-14,-10,-11,3,16,14,0,-12
21,11,-8,-10,-15,-22,-9,-12,-4,-12
107,14,7,2,-7,2,5,0,28,19
70,-4,20,6,5,22,7,3,28,18
9,-16,0,9,7,16,-5,-4,14,-3
-29,-9,4,2,11,3,-11,-5,0,-5
-22,30,29,0,0,0,5,-13,3,-32
-10,11,18,-14,11,7,18,-4,2,-40
-40,-6,-8,0,15,9,5,3,-3,-25
-19,-16,-18,0,0,10,0,5,-6,32
55,5,-3,-10,-9,7,-1,2,8,75
49,38,6,-2,-8,-11,-18,4,4,20
-44,9,-6,11,5,2,2,24,-3,-25
-76,-16,-6,7,12,10,16,23,-8,-39
60,-14,-4,-5,-2,-10,-14,7,5,31
15,-37,-15,0,-12,-12,-9,-6,34,72
-101,-47,-13,21,18,6,12,6,23,18
144,60,31,20,3,-16,-22,-26,-29,-12
220,122,43,-24,-33,-42,-39,-47,-63,-30
-82,14,-4,-22,3,24,33,18,-28,-71
-46,-27,-19,-14,5,31,20,13,17,13
199,14,-2,-33,-33,-29,-43,-44,41,119
46,-1,6,2,8,0,-14,-12,24,40
-102,-43,0,9,32,21,9,4,-3,-21
-96,-51,-20,1,8,9,1,-7,-19,-35
-45,7,-5,5,-6,-1,8,-5,-21,-65
-10,38,22,6,-2,-11,-5,-6,-11,-51
-55,2,11,11,-1,-19,-13,1,-5,-54
-51,-13,16,12,-4,10,10,14,-9,-57
-29,-18,3,8,14,20,18,16,-7,-45
-61,-45,-23,9,21,12,11,16,0,-1
-4,-8,5,3,-14,-18,-17,-2,22,70
70,52,22,-6,-48,-48,-35,-12,11,59
69,25,-1,-10,-23,-17,-9,-2,0,9
13,12,-7,-15,-9,-5,4,0,7,5
-27,-5,-13,-8,-2,1,10,10,30,17
-41,-39,-23,0,18,16,31,32,33,19
-37,-27,-12,9,29,32,22,34,12,17
-47,18,-2,12,2,9,-4,6,-9,9
-2,0,-9,6,-12,-1,-14,-16,-11,10
93,-16,-15,-6,-6,1,-6,-14,0,36
55,0,-3,-3,4,6,3,-1,-6,8
78,29,11,4,8,9,-3,-4,-15,-30
115,20,4,-2,5,1,-14,-10,-18,-38
-6,12,2,-8,-13,-7,-21,-15,-3,-10
-93,20,11,7,-21,-9,-5,-16,-1,-34
-75,-4,13,14,1,5,14,0,-19,-50
0,-69,-20,-8,5,12,30,8,-17,16
145,-30,-20,-40,-22,-15,15,0,32,140
86,32,7,-23,-31,-39,-26,-21,11,104
-33,13,9,4,3,-9,11,2,-10,26
-35,45,24,14,21,3,9,21,10,25
-96,39,12,-2,4,-11,-13,-11,-5,-39
-231,-55,-15,-5,2,-11,-8,-13,-11,-127
-78,-10,7,1,3,-8,-19,-16,-32,-119
71,11,0,-4,1,4,-11,-15,-24,-100
112,-30,-2,3,9,20,25,-3,-4,-61
70,-3,15,9,16,16,30,10,5,10
11,-5,2,2,10,8,14,14,1,40
-5,0,-6,-8,0,-2,-2,11,4,10
43,10,-4,-11,-6,-1,-5,0,3,8
-30,-3,-8,-24,-10,-2,-2,-4,7,40
-109,6,10,-14,-3,-5,-7,1,1,26
-86,-17,7,-3,5,14,5,15,-1,-16
-8,-28,0,5,11,21,5,11,17,12
0,-8,4,1,7,7,-1,2,27,17
43,22,11,4,4,3,2,-8,8,-21
93,37,3,4,3,-9,1,-9,0,-11
43,14,-16,-10,-8,-26,11,0,-1,7
3,-22,-23,-15,-17,-16,12,-2,4,18
9,-20,-10,10,-12,7,14,14,9,19
18,39,24,8,-4,1,11,14,-9,24
43,33,18,-1,-9,4,0,8,-15,21
-8,-1,-3,1,-3,18,24,6,-1,17
-51,-14,-1,5,4,9,10,0,6,-2
-61,-12,14,15,14,6,2,-4,1,-12
-52,-1,18,13,13,3,4,-11,9,-18
-65,-6,9,-2,2,5,0,-8,4,-27
-43,-10,2,-1,10,0,3,0,-1,-16
87,-1,3,-3,0,-21,4,15,6,29
215,28,3,-4,-20,-25,-15,9,24,85
173,57,13,6,-19,-10,-13,6,27,63
114,26,0,-6,4,5,3,9,22,26
76,-9,2,-25,8,11,-5,3,11,25
-13,-17,0,-21,10,5,-25,-7,0,-7
-99,-30,-9,2,23,1,-7,1,-9,-29
-113,-32,-11,8,19,0,7,-2,-6,-30
-156,-15,4,6,8,0,-4,-12,-12,-20
-104,9,3,0,7,-3,1,-13,-14,-16
-161,-18,-14,-5,0,-17,8,-24,-15,-53
-142,-1,6,6,9,-12,11,-9,-15,-40
125,46,14,15,19,3,2,3,25,86
200,25,-3,16,27,33,20,34,56,110
60,-5,-1,9,20,36,26,41,22,-18
-51,-2,11,6,10,12,13,9,-27,-103
4,-14,0,4,3,5,3,-1,-12,-56
-126,-60,-23,14,-12,-4,18,4,15,-63
-195,3,-2,8,-29,-19,-21,-27,-32,-99
15,80,6,-6,-43,-23,-53,-52,-52,-50
230,74,8,-9,-38,-20,-36,-27,-10,25
260,89,22,-4,-34,-21,-38,-24,-6,36
45,29,-8,-8,-18,-10,-20,-4,6,27
-125,-125,-64,-11,25,41,39,56,52,56
-136,-136,-29,17,66,79,74,83,76,58
-94,-7,49,0,2,0,-2,-13,-13,-14
-66,12,44,-38,-51,-54,-52,-63,-62,-29
-14,-13,4,-38,-29,-25,-24,-33,-32,3
32,-8,-15,-3,-8,9,2,-2,16,14
34,18,-8,10,16,16,12,15,15,-17
2,16,9,12,21,18,7,20,14,-19
0,-29,-13,28,14,4,8,17,36,63
-45,-68,-30,41,26,19,41,62,71,84
-54,-52,-18,53,46,36,47,73,60,-5
107,73,13,17,0,-17,-14,3,16,5
208,100,19,-16,-43,-63,-68,-35,-13,52
153,114,21,-32,-68,-83,-96,-76,-50,11
27,40,-9,-54,-55,-61,-30,-37,-29,5
-102,-48,-29,-14,22,33,83,48,28,-32
-142,-70,-8,7,53,68,80,44,31,-55
-85,-44,2,-14,16,23,10,-8,8,-24
-77,-21,1,-5,-4,0,-9,-30,-12,-18
5,2,10,10,-2,0,4,-10,-12,-14
125,40,20,16,0,2,6,-8,-2,14
84,15,18,22,12,15,3,-10,11,13
-21,-16,6,11,18,19,6,-8,11,8
-33,-8,0,-23,7,1,12,-5,3,37
19,5,2,-23,-6,-4,4,8,0,28
0,-6,-11,-11,-9,16,13,27,7,0
20,14,0,10,-7,3,4,24,23,22
33,14,6,13,4,-18,-20,2,22,22
-26,9,-1,9,11,2,-8,3,-3,-23
-61,7,1,11,6,-1,-5,-4,-24,-39
-85,-38,-13,24,7,-5,9,-7,-32,-42
-47,-29,-13,18,0,-11,10,-8,-2,-5
55,22,15,6,-15,-23,-12,-20,9,32
48,22,13,-1,-3,-14,-8,-21,-17,2
26,-24,-3,-4,-4,-12,-7,-19,-15,2
78,-13,-10,-4,-12,-6,-11,-3,0,35
134,32,5,-16,0,2,-16,3,7,18
63,-8,3,-21,8,14,11,8,5,-30
-101,-32,-2,-7,12,25,3,1,-7,-50
-226,-46,-21,-11,0,2,-3,-20,-13,-48
-106,-24,-19,-14,-13,-14,-15,-7,16,16
144,83,17,-3,-14,-21,-25,-1,30,90
100,61,19,3,6,0,-10,-10,-6,11
-55,-12,-8,2,9,14,-1,-6,-25,-76
-20,-61,-35,-22,-4,9,7,18,0,-9
65,-57,-29,-9,24,22,54,51,45,106
68,83,42,3,22,13,37,39,61,160
78,60,42,-8,21,3,7,17,43,130
237,51,40,-16,-2,-14,-1,8,35,72
261,59,26,-3,-18,-18,-12,1,10,-6
11,-36,-24,-5,-10,4,-8,-8,-26,-102
-272,-92,-41,1,-5,-7,-8,-15,-31,-140
-245,-58,-23,19,-8,-13,-20,-22,-41,-120
-261,-10,5,5,-18,-23,-56,-69,-66,-189
-344,-9,8,-6,-21,-16,-50,-74,-89,-288
-257,-88,-25,1,14,40,42,27,-18,-187
-24,-51,-5,36,50,57,80,71,54,18
173,48,35,27,13,16,19,27,53,129
184,36,15,9,2,-1,1,13,26,149
137,0,-16,-5,4,-6,8,1,2,92
158,50,-8,-26,-24,-31,-40,-27,2,93
25,43,-2,-10,-26,-22,-37,-21,-8,43
-110,-14,-10,-21,-18,-11,-14,-3,-3,-8
-128,-34,-10,-21,-3,6,-6,15,1,-24
-56,-26,5,10,15,19,3,19,-2,-10
-39,0,18,35,10,2,-5,-9,4,-18
2,26,0,11,-16,-16,-9,-17,-2,-9
80,-11,-16,0,-3,-2,-2,5,-2,27
65,4,0,5,-15,4,4,9,10,50
-8,28,6,-4,-15,-1,2,0,5,7
7,-15,-12,7,0,25,29,21,3,-26
76,-47,-13,12,9,33,46,8,0,7
126,6,-6,-1,0,-7,2,-11,5,83
152,93,15,-10,-15,-51,-32,-45,-13,39
165,56,27,-9,-20,-39,-18,-25,-16,11
39,-27,10,9,0,0,16,16,6,15
-96,-45,-3,22,9,33,40,39,15,8
-92,-21,6,21,11,36,4,24,7,-7
-66,-16,6,7,6,20,-11,22,-2,-30
-12,-1,-2,-1,-8,-6,-6,9,-6,-3
75,35,-8,-3,-18,-26,-28,-15,-16,14
53,18,-24,-17,-19,-30,-22,-23,-19,22
42,5,-5,-12,-17,-13,0,-11,-5,15
17,-8,4,-6,9,15,25,19,9,7
-29,-15,13,-11,23,15,40,21,9,-2
-64,1,8,-4,0,0,10,0,-3,7
-134,18,0,0,-3,-15,-16,-23,-32,-23
-143,4,3,16,21,-4,-16,-20,-38,-72
-61,-18,1,11,31,18,2,2,-12,-27
36,-5,5,6,18,18,11,17,8,11
-27,18,9,1,4,5,3,11,6,-6
-173,14,0,1,8,5,-1,7,-2,-60
-166,5,3,-3,-10,-1,-14,5,0,-42
0,5,7,5,-8,9,-3,10,13,4
162,0,-2,2,4,10,7,18,5,9
181,-35,-20,-11,-3,-2,4,13,-12,-24
160,-37,-37,-39,-32,-26,-22,-9,-17,14
205,-12,-22,-42,-38,-42,-33,-14,0,97
115,24,4,-4,-10,-27,-29,-11,5,98
-163,0,0,12,6,-8,-6,-7,-7,-29
-254,-21,3,11,1,1,-10,6,-7,-85
-62,9,14,-7,6,6,-16,2,13,-12
10,10,7,-5,19,17,0,19,26,21
-1,-2,6,13,30,14,14,12,36,25
-33,-28,-11,13,41,18,44,10,20,0
-18,0,-2,3,24,17,32,18,-12,-8
50,34,7,0,0,0,12,0,-38,-3
55,8,5,5,7,-6,-8,-10,-34,-12
-10,-35,-7,-4,0,-12,-15,-9,-8,-6
9,-10,-2,-13,0,-4,-18,-20,13,36
46,43,18,-12,-2,-11,-36,-35,-20,35
11,33,2,4,3,-15,-19,-24,-25,19
-24,6,-10,22,11,3,1,-3,-8,-13
-12,-23,-12,4,1,1,4,0,-8,-42
15,-21,-14,-7,-9,-2,-10,-11,-13,-37
-8,-26,-12,-6,-19,-7,-12,-8,-12,-16
4,-33,-17,-19,-12,-4,-20,-4,-3,17
41,-16,-17,-17,9,10,10,16,35,48
18,45,9,-5,-8,-5,7,11,16,16
-40,26,7,-3,-13,-15,-7,-10,-19,-29
-35,4,4,11,5,0,16,5,-11,-4
-21,-21,5,9,12,17,25,9,3,13
20,-12,-4,7,14,24,13,0,6,13
59,20,-1,17,3,27,-6,-5,5,22
73,24,14,8,1,16,-24,-11,17,36
83,13,20,-9,-7,-2,-25,-18,26,43
25,-2,4,-17,-6,4,5,-3,23,15
14,-2,-5,-9,12,19,27,19,11,-14
94,25,4,8,-6,5,-6,3,-3,21
126,49,13,0,-21,-15,-26,-10,-5,49
59,-17,-1,2,10,11,-1,19,8,36
-68,-80,-15,25,45,45,50,57,21,-22
-139,-41,-3,20,27,17,36,21,-9,-55
-257,-32,-19,-21,-14,-18,-3,-2,-26,-71
-398,-32,-44,-49,-28,-16,-2,5,-17,-94
-191,32,-11,-25,-28,-33,-40,-35,-38,-137
126,56,18,-25,-42,-65,-84,-79,-79,-135
152,35,17,-26,-34,-56,-53,-66,-78,-101
-99,-87,-21,20,31,51,58,33,-12,-77
40,-25,7,30,33,46,42,41,33,76
233,90,24,1,-18,-38,-35,-25,3,111
70,12,-6,-1,-17,-36,-36,-35,-13,69
-17,-24,-3,6,-2,-14,-25,-9,9,98
-73,-7,2,14,2,-1,-6,2,14,82
-150,-16,13,21,16,13,12,26,17,22
-96,3,3,16,22,22,18,34,9,-20
151,55,12,-1,11,4,-2,11,-23,2
285,47,7,-19,-7,-23,-26,-26,-48,-6
187,-6,-7,-21,-22,-15,-7,-22,-48,-58
4,-27,-5,-2,-17,-7,-9,-6,-38,-67
-142,-37,-9,6,-13,-9,-5,-7,-18,-25
-54,-21,-5,-2,-12,-8,-14,-3,12,47
4,-6,5,-2,-1,3,-2,1,14,53
-11,3,11,4,6,17,12,10,24,29
-12,10,7,21,12,22,21,8,7,-2
-18,7,5,16,11,16,22,9,7,-18
-6,23,2,14,9,6,9,15,11,-7
10,26,3,8,-1,-3,1,9,1,5
-7,4,-4,-6,-17,16,-6,-2,0,2
-29,-9,0,-11,-6,27,-4,6,6,-22
-27,-11,8,-7,8,0,0,0,-8,-24
-8,-7,1,0,-2,-12,0,-10,-5,10
14,8,5,-7,-11,-20,-27,-23,6,13
7,-1,-15,-7,2,-4,0,3,13,-13
46,1,-2,-2,10,10,7,14,21,-6
29,-2,11,0,12,7,2,-1,-1,-21
65,-15,0,1,11,1,14,1,-4,12
123,-1,1,3,-17,-11,1,4,21,89
47,23,16,-6,-27,-30,-30,-23,-8,54
-93,-35,-15,-7,-4,-9,-8,-14,3,14
-143,-45,-17,8,6,20,14,5,17,1
-82,-5,15,19,22,32,18,2,-8,-18
-30,-6,2,25,31,47,33,22,-3,-32
-17,8,-9,15,12,22,20,17,0,-27
32,17,-13,-6,-5,-4,6,7,9,-5
-7,-24,-39,-15,-15,0,-3,14,14,-28
21,-1,-7,-2,-1,7,-4,15,0,-24
88,64,9,-17,-29,-26,-34,-4,-12,22
-5,26,-19,-20,-21,-14,-2,2,-15,-10
-61,-11,-27,-5,3,-3,22,16,8,-20
-18,-5,2,13,7,-6,7,10,30,19
-8,-5,5,14,5,16,-2,-1,33,34
26,7,5,23,16,4,2,-5,-3,11
116,15,0,11,1,-8,25,-2,-19,12
86,5,-2,-6,-15,-10,10,-1,-16,-27
-41,-10,-10,-4,0,-2,4,-1,-5,-39
-96,-14,-20,-2,6,2,-10,9,9,-18
-42,12,3,0,-8,-14,-30,-9,-1,-7
-3,-18,1,-17,-1,0,-22,-16,-2,23
-48,-43,5,0,23,36,21,6,27,35
-51,-18,21,11,16,25,28,11,17,-11
19,-1,15,3,6,-3,-9,-15,-28,-46
-24,-51,-13,-2,6,1,-3,-6,-24,-31
37,1,2,5,12,0,4,14,23,54
116,65,26,4,-8,-36,-27,-14,19,85
28,51,27,-11,-17,-44,-43,-29,-19,3
12,1,18,-12,-18,-26,-20,-13,-29,-14
26,-18,-4,-8,-13,7,-3,13,-3,1
39,-20,-9,3,4,25,4,29,9,4
30,-9,3,10,19,20,-2,18,-5,4
29,17,19,13,18,5,-3,5,-3,15
77,0,9,5,-3,-4,-23,-5,-19,13
-53,-21,-17,-11,-16,-23,-36,-31,-57,-16
-275,-52,-20,-9,-15,-14,-5,-19,-45,-55
-209,-37,-3,8,-3,14,14,15,10,-39
-27,-3,10,7,6,11,13,5,29,0
40,19,6,8,6,9,14,1,9,-16
47,19,0,10,15,14,14,8,4,5
25,-7,-2,18,17,18,48,12,12,42
43,-22,-3,25,21,24,39,16,24,67
40,-8,2,32,9,8,9,25,29,62
-2,4,2,15,-12,0,-9,9,-18,20
24,-1,-28,-4,-15,-14,-21,-9,-35,-31
43,1,-14,-7,-16,-25,-12,-17,-35,-62
70,0,-8,-22,-17,-24,-42,-31,-61,-79
42,0,-30,-48,-27,-28,-41,-29,-58,-82
-89,3,-16,-33,-14,-16,-19,-4,-29,-48
-126,13,3,-14,-5,-7,-27,-15,-29,15
-89,-27,-9,-8,1,17,-3,3,3,34
57,13,7,-2,7,11,-5,14,33,84
186,32,-2,-7,11,8,11,13,29,136
225,26,-1,0,17,23,20,13,22,122
67,-1,13,17,21,18,30,1,-2,18
-150,-26,10,23,22,18,26,7,-7,-58
-124,-19,11,12,5,10,11,2,-6,-59
-79,-10,0,8,-6,-11,-15,-9,-18,-70
-185,-26,-1,0,-7,-14,-10,-12,-23,-120
-202,-17,5,9,-8,-28,-12,-18,-44,-187
-4,-9,1,1,-18,-23,-23,-17,-58,-128
122,-10,-7,-11,-28,-13,-27,-16,-23,21
90,0,-7,-27,-13,-1,-20,-3,3,103
55,21,5,-24,8,5,-9,1,8,78
143,26,11,-21,0,-15,-12,-5,0,62
116,-23,-11,-1,-1,-8,5,4,-5,78
-53,0,0,25,13,18,33,16,-10,18
-64,2,15,26,22,24,28,3,-18,-33
-3,-42,1,14,31,29,22,13,-12,-14
84,-37,-7,7,24,24,13,13,8,46
114,22,26,4,4,1,-8,17,17,81
10,40,48,-6,-7,-13,-17,4,-5,38
27,33,20,-23,-28,-51,-67,-49,-46,55
-67,-42,-25,-33,-13,-15,-33,-28,-36,-10
-118,-48,-22,12,21,36,42,27,-8,-84
44,38,25,13,1,-9,-5,-16,-36,-55
12,-5,12,-11,10,2,11,7,-10,-37
-11,-20,0,-10,8,12,8,13,14,-23
23,11,10,-5,3,9,-6,2,-4,-4
-23,-14,4,-10,-3,2,4,-2,0,2
-166,-15,-26,-36,-31,-25,-20,-25,-9,-18
-113,7,-32,-39,-39,-37,-43,-39,-20,-18
74,36,13,-1,-20,-26,-39,-30,-10,21
41,33,38,35,4,-1,-20,-27,-25,0
19,-5,18,26,21,12,-3,-7,-21,-16
83,-11,12,3,9,10,11,15,13,56
203,5,6,-27,-18,-14,0,13,15,138
99,-35,-19,-27,-1,8,14,27,12,74
4,2,9,-5,2,8,8,23,-12,-25
-56,38,23,0,-14,-10,-18,-11,-38,-78
-188,-25,-6,-3,-6,-4,-9,-17,-35,-132
-162,-48,-10,-2,4,3,0,3,-11,-166
-108,-25,-15,-4,3,1,-9,5,-19,-143
-39,6,-15,0,9,-1,-20,7,-13,-53
53,27,0,21,-3,-4,-16,4,4,44
59,21,-6,16,-11,-2,9,8,6,57
-18,-23,-28,14,13,27,21,25,1,13
-24,-67,-33,11,27,31,29,33,7,31
102,-21,-10,0,-3,-9,0,-8,15,116
64,66,17,-15,-29,-40,-21,-41,-7,58
-18,81,16,-18,-33,-48,-43,-50,-8,19
29,21,9,-2,-8,-9,-21,-22,3,49
33,-14,-12,17,7,27,17,11,3,29
-35,2,-8,22,12,9,15,11,0,-26
-23,-10,-4,1,1,3,24,11,2,-15
66,12,4,-17,5,4,33,19,8,33
88,16,14,-5,6,1,24,14,8,42
12,-15,0,10,-1,4,-3,17,5,30
10,-20,-7,14,-2,4,-9,19,13,30
50,-11,-11,-2,-3,3,-7,9,9,5
-24,-10,-22,0,-8,0,-9,0,-3,-10
-157,-14,0,13,8,-2,-7,-4,-21,-81
-159,1,15,4,9,-7,3,0,-22,-129
-10,14,7,-6,0,-5,12,-7,-27,-82
98,0,-4,-10,-6,0,2,-15,-18,-14
72,-2,-8,-11,1,3,-4,-7,4,32
-121,-25,-24,-3,13,11,-15,6,7,23
-188,-66,-40,-11,-5,-16,-22,-7,-5,30
5,-35,-14,-9,-11,-21,-11,-12,16,69
35,27,10,10,4,-1,11,-1,6,5
-146,-21,-8,10,33,34,43,22,3,-71
-66,24,12,18,39,21,30,22,24,-24
155,93,26,6,0,-39,-31,-36,16,69
83,26,-4,-14,-9,-23,-16,-19,6,23
0,-12,-13,-11,-2,6,8,16,-5,-27
54,11,-6,-17,-21,-34,-20,-22,9,38
77,26,2,-13,-32,-43,-26,-35,13,56
61,3,13,1,-19,-10,6,10,20,11
63,8,25,21,13,23,20,18,14,-8
43,0,13,22,34,41,45,25,22,-17
18,-8,10,11,37,20,27,30,47,6
122,25,6,3,2,0,-16,-4,17,43
146,29,-4,-6,-5,-2,-16,-7,-6,59
51,14,-10,-21,-3,-7,-3,0,8,62
-103,-3,-17,-14,2,9,9,9,30,37
-163,-18,-6,5,12,32,39,22,39,-52
-146,-15,0,-8,12,20,27,8,16,-111
-212,-8,1,-8,13,24,11,-2,-3,-144
-200,-12,5,7,17,12,22,3,0,-121
-80,6,9,15,15,7,18,-1,19,-21
2,19,19,12,0,6,19,-2,36,53
66,15,15,11,-1,7,27,19,40,76
196,13,13,3,-4,4,17,33,50,100
193,8,12,9,-12,-12,-6,4,30,61
26,1,-3,16,-9,-23,1,0,-4,24
4,22,-11,1,-7,-22,-3,-2,-12,17
108,36,-2,-6,-17,-23,-6,-1,6,-11
28,21,11,7,-24,1,9,-8,-3,-77
-100,-55,-8,11,-5,16,0,-9,1,-58
-1,-41,0,-5,0,11,-11,-7,6,14
142,41,16,-8,-23,-16,-30,-17,18,99
-34,12,11,7,-20,0,-5,3,13,0
-260,-52,1,25,15,34,36,12,-12,-159
-257,-56,-17,15,21,42,45,14,-22,-135
-96,-45,-20,5,21,36,38,12,22,-16
35,-6,-4,2,-9,8,29,4,45,35
170,71,21,-23,-41,-37,-20,-13,22,59
175,77,19,-32,-32,-51,-43,-38,-6,49
84,31,11,-11,-6,-33,-21,-5,0,27
50,12,11,0,0,-11,-1,9,8,10
32,17,21,-5,-7,2,-10,-20,-5,10
-28,-7,-8,-13,-2,6,-4,-13,-17,0
-72,-39,-17,0,24,25,9,22,9,-1
-40,-16,5,12,26,20,9,18,11,0
-7,-11,11,18,5,11,-2,-1,0,1
-15,-10,6,12,-5,11,8,15,-18,3
-22,-25,-10,5,0,8,31,29,-12,8
42,-2,6,5,-2,2,12,22,5,16
95,57,30,-11,-5,-7,0,-10,10,16
28,24,23,-6,1,13,20,-12,21,-12
3,-7,9,5,10,22,13,-4,10,-24
85,3,2,2,5,-2,2,-11,-7,-1
-11,-20,-6,-16,7,-22,-12,-34,-21,0
-252,-60,-28,-13,10,-2,-16,-25,-31,-48
-204,-57,-45,-4,-7,13,-2,-8,-20,-48
-34,10,-13,-5,-24,-15,4,1,19,15
61,48,-2,6,-25,-22,-13,-2,32,66
147,39,-9,4,-16,-20,-20,-1,43,109
164,35,-9,11,3,-3,-13,14,33,62
151,21,6,2,13,8,6,20,21,7
74,-5,6,-4,4,4,9,-1,-1,0
-36,-25,0,-1,8,9,11,-5,-2,4
-250,-19,1,-3,13,5,5,-6,-23,-41
-276,-31,-6,3,24,8,9,10,-24,-54
-104,-48,-14,26,34,31,23,24,3,-19
79,38,33,18,11,1,-10,-17,-10,-5
222,82,29,-21,-9,-29,-20,-37,-20,-17
196,-16,-17,-15,2,4,5,-6,-11,-8
63,-27,-11,2,-3,-3,-19,-14,-4,28
-80,-4,-9,-13,-12,-9,-26,-13,6,38
-114,7,-13,-15,-13,-17,-7,-3,11,-7
-9,17,-18,-19,-9,-21,-4,1,7,-18
20,-15,-18,-3,10,-3,6,17,13,-8
0,-5,-14,-7,-2,5,6,11,8,-23
-8,27,-4,3,-28,-14,-7,-5,3,-24
16,9,-2,9,-23,-15,-1,10,5,-1
31,-19,-8,-2,-4,-1,27,13,21,16
41,-6,-1,-24,-3,0,21,12,30,30
27,10,15,-15,3,5,21,14,25,19
-28,-4,10,3,10,15,17,-1,-6,1
-75,-44,-11,4,12,12,15,4,-1,-30
-18,-31,-8,2,11,18,11,5,7,-23
0,41,20,2,-4,-4,-1,-10,0,-6
-10,41,12,3,-12,-18,-14,-13,6,26
18,11,7,13,5,2,13,4,13,44
43,19,7,14,27,10,20,20,23,21
45,18,-1,7,14,5,15,22,22,14
62,-7,-11,17,7,9,8,13,12,5
106,13,4,25,-2,-5,-9,-13,-3,28
97,29,15,10,-38,-39,-43,-47,-21,25
-97,-42,-8,3,-11,-4,-3,-3,-4,-53
-264,-55,-28,10,12,24,17,15,-8,-95
-155,5,-3,-4,0,4,13,-16,7,-57
-12,9,9,-14,0,1,12,-10,20,-20
-25,-10,-1,0,20,27,19,8,7,-29
2,-14,-6,17,17,29,8,20,0,-23
147,-27,-7,10,6,19,23,15,2,20
172,4,7,-7,2,3,1,-2,-11,58
33,-7,-9,-26,-1,-17,-12,-12,-11,60
-5,-10,-7,-29,11,-13,-10,-2,0,77
19,7,15,-3,7,6,-1,13,16,69
56,32,24,6,-4,-7,-26,7,24,61
-32,27,12,-2,-26,-25,-39,-16,-7,3
-182,-66,-15,20,17,44,53,38,-2,-115
-50,-56,-11,9,32,34,57,33,-10,-101
94,61,17,-14,-27,-48,-37,-42,-39,-37
-20,76,14,-12,-39,-38,-45,-30,-24,-76
-45,19,0,-5,-14,-3,4,0,-3,-56
-69,-12,-13,-19,-3,10,1,9,16,15
-142,-35,-20,1,14,15,-10,0,20,14
-49,-14,-6,11,22,3,0,-1,16,-1
55,-8,4,-4,5,2,12,11,5,32
70,4,10,0,2,3,4,0,8,64
55,33,21,6,6,-8,-12,-14,13,43
-23,-16,-9,12,3,3,14,1,28,22
-32,-53,-15,22,28,30,32,17,27,15
8,27,16,25,29,21,28,8,17,-7
18,89,35,0,2,-4,-9,-30,-24,-5
10,13,3,3,1,20,9,3,1,29
57,-8,0,10,11,27,19,29,19,29
224,31,-3,0,-10,-10,-3,4,10,44
236,27,-10,-6,-22,-34,-29,-14,-13,-1
31,-34,-33,-12,-7,-8,5,4,-4,-34
-210,-37,-27,-11,-16,-5,8,6,-3,-68
-286,10,4,-5,-22,-30,-30,-17,-14,-50
-73,16,8,-5,-16,-36,-50,-23,-25,7
98,17,14,-4,0,-19,-32,-23,-15,57
12,-5,12,7,8,-3,-21,-14,-10,12
22,-36,4,15,29,12,2,6,-18,-38
51,-75,-18,16,49,36,32,45,0,-46
-97,-38,0,7,20,14,26,29,-4,-55
-65,30,32,-7,-21,-31,-39,-25,-20,-21
-11,-5,20,-17,-18,-13,-26,-3,10,17
-15,-16,6,-7,-1,4,-2,1,23,30
24,32,22,8,-3,12,9,3,2,31
37,28,18,13,10,16,15,13,-17,5
145,7,-1,1,2,-6,-5,-7,-57,-31
219,-8,-10,-12,-12,-27,-28,-18,-59,-6
-25,-31,-27,-12,-5,-20,-18,9,-23,8
-255,-37,-33,-7,11,1,5,20,6,5
-134,-35,-14,14,14,6,7,16,18,47
19,-20,2,-1,4,2,14,24,39,62
76,57,34,-3,-7,-3,-10,-4,3,17
79,54,16,-9,-16,-33,-44,-47,-35,18
-31,1,-6,-4,5,2,-11,-9,-33,-35
32,38,12,-3,9,24,23,19,-20,-78
148,35,5,-11,0,0,4,-8,-10,-31
82,-26,-14,-6,-16,0,-9,-9,0,21
-63,-56,-8,19,-8,5,-8,-8,-7,-7
-123,-36,-9,12,-1,2,-11,-18,-7,-22
-111,-13,-15,-3,-1,-10,-5,-15,0,-21
-54,-14,-2,-5,5,0,15,4,-3,-20
35,9,7,5,-1,-9,5,2,-11,2
47,10,-4,3,-8,2,10,2,-17,28
95,19,3,-2,-10,5,-4,1,10,72
117,8,9,-6,-19,-1,-10,0,24,64
90,26,17,0,-17,8,-13,-3,-3,26
28,26,9,-1,-13,0,-32,-16,-28,-6
-126,-32,-21,-20,-22,-12,-36,-22,-33,-46
-281,-50,-21,-24,-25,-15,-27,-10,-32,-46
-182,-36,6,-11,-12,1,-5,11,-23,-2
7,-25,11,4,19,16,19,27,0,18
67,-1,3,9,13,6,14,14,0,18
8,-5,-3,12,7,-1,16,5,-19,2
-10,-17,-13,9,20,9,21,6,-9,-11
-6,-6,-1,2,19,0,0,-15,-11,-28
45,2,-6,-5,2,-12,-22,-40,-16,-18
102,3,-8,-10,5,-9,1,-10,13,38
102,30,8,-2,-6,-19,1,0,23,52
77,19,-5,-4,-11,-15,-8,-6,14,23
25,-2,-10,-7,-5,-4,-2,3,0,-2
-14,14,-1,-2,-8,-13,-2,-3,5,-21
-19,6,-4,4,-12,4,1,7,7,-24
-3,2,-4,-1,-9,7,11,9,-3,-18
-41,0,4,6,7,1,15,7,-5,-8
-57,-3,6,0,10,-5,0,2,-5,-10
-73,-15,1,-1,-4,-8,12,5,-2,-41
-8,-10,3,-6,-9,8,2,-1,-5,-40
41,-2,0,-5,0,18,2,1,5,-27
19,-6,-15,-24,3,5,-7,0,12,-9
-43,-15,-24,-25,-10,-2,-18,0,7,0
-50,-17,-3,-7,2,11,-4,12,8,9
0,-15,1,1,28,24,28,19,18,16
60,9,-2,1,16,7,13,-9,13,39
3,6,-10,5,-8,-2,-5,-19,19,33
-25,-18,-14,6,-3,3,4,-3,12,0
8,6,0,14,0,3,4,9,-23,-26
30,19,10,11,-10,-10,-14,0,-26,1
7,-17,0,10,-1,-11,-18,5,10,43
-58,-28,3,13,23,2,8,19,9,13
2,54,19,-6,-13,-37,-27,-22,-41,-12
195,73,-3,-39,-63,-90,-78,-63,-50,48
47,-31,-39,-17,-16,-8,16,12,-6,23
-92,-58,-14,10,35,55,74,67,32,-12
-26,3,24,21,37,40,37,31,29,12
-30,32,34,31,36,28,16,-1,18,3
-93,21,23,14,17,20,-5,-14,-10,-41
12,44,15,-3,-12,-13,-39,-43,-42,-14
187,41,1,1,-30,-16,-40,-21,-2,49
103,-12,-13,16,-13,3,-4,6,28,63
5,-18,3,12,8,5,0,-11,0,15
-59,-31,-2,5,16,11,12,-9,-26,-66
-62,-26,-17,-22,4,-1,25,17,11,17
20,60,11,-25,-18,-33,-3,11,73,135
-49,35,7,-6,0,-8,21,11,38,1
-133,-16,-8,4,21,20,24,25,-12,-119
-250,-40,-17,7,19,16,-1,23,-28,-140
-155,-40,-11,3,0,2,0,10,-3,-69
-63,-11,-3,0,-7,1,7,6,16,-22
121,26,-6,0,-12,-4,4,-13,0,-23
276,28,-9,-4,-8,3,-12,-18,-4,-3
249,12,0,1,-4,0,-3,-11,7,32
43,-19,2,6,-4,0,17,-9,0,62
-47,17,9,14,-6,0,8,-13,10,97
-42,57,17,27,9,7,14,-7,39,92
-16,24,15,35,15,8,23,13,58,63
67,15,14,32,18,6,15,7,18,25
128,17,12,13,19,3,13,-16,-16,-55
2,-25,-11,-11,4,9,5,-9,-19,-59
-125,-42,-29,-15,-1,8,4,4,-9,-12
-70,-27,-19,-8,3,0,-1,-3,-2,22
-135,-25,-13,-6,-6,-10,-12,-4,-13,-34
-208,-12,-13,-11,-19,-18,-14,-5,-30,-115
-145,37,8,-1,-25,-14,-6,-1,-13,-96
77,52,28,-5,-18,-12,8,-4,14,-28
307,39,25,-1,-15,-10,4,12,37,81
306,7,11,-8,-3,-5,2,11,39,130
37,-17,5,-14,7,15,14,6,28,69
-76,-31,8,-7,10,22,25,17,18,25
-151,-45,-6,1,-3,7,6,1,-11,-33
-244,-44,-15,17,0,1,-2,-7,-35,-120
-167,-22,2,8,22,7,-2,-11,-38,-137
-2,13,22,5,19,-1,-8,-12,-28,-79
56,25,6,19,0,-2,-11,-11,-9,-5
89,10,1,24,-5,4,-4,-1,7,69
69,3,-5,3,-3,7,11,-2,14,87
59,8,-14,0,-5,9,13,1,29,77
45,9,4,0,0,8,28,7,29,49
20,15,10,-1,8,5,21,18,22,1
-9,9,0,-5,14,-1,9,30,21,-10
-20,3,-2,-10,1,-4,7,18,10,-3
-10,2,0,0,-3,1,6,15,9,9
-22,1,11,6,2,2,7,13,11,-7
-34,15,14,12,-1,2,1,-10,-2,-27
36,14,8,2,-7,-13,-4,-19,-11,8
117,10,0,-13,-14,-19,-2,-8,19,63
70,-1,-4,-2,0,0,6,11,36,41
-9,-19,-4,13,22,33,11,36,17,0
-55,-32,-19,21,18,29,2,21,24,-4
-56,2,-1,10,-2,-1,-9,-12,18,-1
-93,41,11,1,-1,-11,4,-20,-11,-70
-150,16,4,-9,-1,3,6,-6,-19,-98
-119,-23,0,-1,-3,26,4,21,-13,-44
60,-26,-8,-4,6,12,6,22,19,51
174,3,-7,-7,-4,-9,-9,12,34,105
116,1,-5,-6,-5,-9,-4,6,8,41
170,55,15,-29,-18,-27,-35,-32,-6,37
90,44,13,-29,-8,-25,-19,-29,-3,-9
-66,-64,-24,-2,6,11,20,24,26,-41
-19,0,0,0,-2,-9,-1,-3,14,-3
-82,31,9,3,7,0,-2,-6,-6,-39
-192,-49,-11,38,30,40,23,25,2,-68
-6,2,14,16,7,0,-24,-28,-15,-37
158,43,11,-24,-21,-34,-45,-46,-37,4
-31,-5,-7,-17,-12,-11,10,4,-15,5
-131,-32,-7,18,13,25,32,27,-2,-18
-42,-29,0,26,34,41,50,39,11,7
-16,23,12,17,17,13,10,-3,-20,10
29,27,1,-1,-1,-9,-29,-36,-52,-21
49,-5,-17,-16,-12,-18,-8,-22,-24,-9
63,2,-11,-11,-17,-15,-8,7,21,26
66,40,8,5,-17,-2,-5,21,17,18
-31,-12,6,3,-8,11,10,13,20,4
-69,-8,9,-1,-12,-1,-10,-21,12,5
7,23,10,-18,-21,-31,-27,-36,13,27
31,-25,-22,-30,-15,-13,1,8,42,58
41,-8,-13,-25,3,2,7,17,32,41
20,13,21,0,15,7,3,-3,-13,-10
-32,-15,17,10,23,23,25,1,-20,-47
-65,-39,6,24,31,23,42,10,-18,-51
-53,-48,-1,23,10,8,12,13,-3,10
61,9,-4,0,-21,-24,-20,0,12,79
50,28,13,-9,-5,-13,-13,-4,5,33
-44,-11,0,3,9,20,18,19,7,-18
-23,0,-2,-2,-5,5,7,22,6,-13
44,43,10,-5,-15,-11,-15,2,14,19
14,18,8,-4,-13,-11,-17,-6,4,15
-51,-28,6,9,9,16,15,4,-21,-68
-13,-26,4,15,21,38,37,13,-15,-91
122,51,6,-5,-19,-13,-22,-10,22,57
126,26,-17,-10,-28,-17,-34,-2,33,101
44,-2,-5,14,5,13,-4,11,11,6
-10,26,4,-5,-13,-14,-38,-23,-21,-22
-114,-4,-25,-28,-45,-28,-35,-30,-31,-23
-178,-54,-36,-3,-20,9,8,-2,-19,-30
-136,-22,-19,24,15,25,44,16,9,-16
18,29,4,11,5,17,32,20,41,50
131,40,12,-7,0,8,14,23,44,84
107,22,19,4,14,22,44,22,40,39
14,-44,3,21,31,43,38,22,14,-11
17,-32,-2,0,2,15,-14,-14,-26,-60
43,17,-8,-35,-44,-46,-61,-57,-73,-66
-119,5,-26,-32,-42,-41,-42,-35,-71,-46
-109,-4,-8,0,-19,-6,-16,-12,-46,-31
1,-19,-4,20,-19,0,-14,-3,-21,26
50,-27,-5,9,-7,-8,-5,1,5,90
-4,-16,1,19,17,5,3,7,19,54
-40,-3,-1,15,20,21,9,11,18,-18
16,12,-2,-1,7,4,-4,11,2,-37
80,15,-6,-21,-5,-8,0,1,4,-35
48,4,0,-22,2,0,5,-2,1,-43
14,7,-5,-16,9,-4,3,-12,-11,-67
-55,6,3,0,18,-5,3,-24,-1,-64
-128,-11,0,9,20,15,12,1,21,-27
-86,-4,1,5,16,21,14,1,33,-6
-17,9,13,0,-3,-6,-6,-19,-1,-2
-41,-28,-5,9,6,-1,11,8,-4,-8
-15,-42,-12,8,24,11,45,35,25,18
118,12,6,-7,13,-6,8,14,29,44
143,24,5,-7,3,-21,-18,0,19,54
66,0,1,1,-1,-15,-1,4,12,42
14,19,4,0,-6,-3,-3,-1,0,23
41,44,7,-5,-2,-6,-23,-6,-5,39
87,55,20,8,-14,-24,-48,-17,-31,29
20,-28,-8,4,0,-3,-5,13,-26,-21
4,-52,-22,1,10,16,16,26,4,-16
-26,-19,-18,8,10,1,13,7,7,6
-53,4,0,8,2,-5,-13,-16,-1,19
-84,1,10,6,6,9,-7,-8,-3,-1
-91,-4,7,0,6,11,11,-8,-5,-19
39,23,8,-18,-22,-27,-31,-18,-21,6
97,6,7,-16,-23,-17,-23,-16,-34,-38
42,-27,-2,-13,3,10,-6,-1,-31,-76
41,-25,0,3,17,7,-5,6,-16,-45
61,-5,13,14,17,8,-2,13,-5,-1
-138,29,21,12,0,-4,-1,-3,-9,7
-211,24,15,21,2,-16,-9,-12,-4,18
-92,-1,-4,17,-8,-4,3,0,2,33
32,-67,-35,0,-3,34,45,44,22,2
-13,-55,-33,-9,-11,17,28,32,14,-37
-88,-11,-11,-14,-13,-10,0,-14,-16,-79
62,22,7,-13,-11,-18,-30,-45,-41,-48
338,66,17,-24,-33,-25,-20,-38,-16,34
156,29,0,-12,-27,-13,0,-6,1,47
-85,-16,-15,-17,-15,-5,8,6,15,26
-63,-27,-12,-8,-5,4,4,9,18,19
22,-2,0,9,14,16,13,14,20,33
75,30,10,11,9,11,4,1,7,53
25,29,14,8,20,10,8,16,8,19
-84,-1,10,0,33,3,8,13,-5,-18
-205,-37,-18,-20,-2,-20,-26,-11,-30,-13
-149,-22,-27,-15,-4,-11,-12,6,-15,-15
4,0,-6,0,22,3,-5,9,-13,-10
37,-6,4,9,25,5,2,0,3,15
-11,3,4,14,13,13,-1,15,12,21
0,17,7,9,9,23,-3,21,4,-29
47,26,11,-2,-12,1,-7,1,-18,-18
-35,-23,-14,-8,-26,-13,-27,-23,-26,11
-58,-23,-19,-7,-10,-12,-14,-12,14,46
70,38,-5,-1,-15,-12,-7,-5,14,55
124,59,2,-5,-28,-20,-18,-18,-3,39
-2,6,-10,2,-9,-2,1,-4,-6,-20
-62,-51,-21,4,14,29,40,6,-13,-38
-4,-14,9,3,4,10,18,-9,0,6
-15,7,22,16,3,18,7,-6,12,-22
15,-15,6,13,4,26,27,1,13,-23
76,-25,3,-23,-2,6,11,-8,11,59
86,12,4,-17,-10,-12,-12,-14,-3,61
32,35,0,0,-10,-5,-35,-12,-25,0
-37,1,-25,0,-3,2,-13,-2,-23,-33
-7,0,-19,2,-1,-3,0,3,-10,-27
36,2,0,6,-1,-9,-4,-2,0,1
74,18,2,-2,-6,-16,-22,-9,-4,27
72,21,12,2,2,-12,-5,-11,-9,10
23,9,16,0,-7,-7,7,2,-10,3
-8,-19,3,-12,-14,-6,6,8,-1,0
-98,-64,-8,-6,4,17,8,30,7,-9
-159,-68,-9,-6,12,27,4,21,11,-7
-94,-19,-3,-6,2,9,15,13,19,15
26,49,20,-29,-25,-27,-8,-6,23,30
111,61,32,-20,-30,-50,-45,-29,-5,29
22,8,5,-6,9,1,0,6,3,-8
-25,2,1,15,14,19,22,0,-1,-57
-90,-2,2,24,-2,-3,-13,-27,-28,-94
-156,-32,1,9,-12,-2,-9,-22,-31,-110
4,-8,2,6,-3,-5,-11,-13,-17,-45
198,39,20,5,3,-15,-22,-8,0,69
176,29,11,5,-2,-12,-24,5,11,96
105,1,-16,21,2,-15,-5,12,19,41
74,-8,-18,19,-2,-6,-6,14,-7,29
-11,0,-6,5,0,1,-3,7,-12,3
-218,-6,4,4,2,2,4,0,-21,-90
-349,-15,-2,-2,-14,-8,-13,-14,-51,-172
-242,-37,-15,-12,-14,-10,-23,-16,-44,-151
71,-51,-16,-6,6,13,-4,13,-6,18
125,-49,-11,7,20,35,17,20,39,132
-16,-29,-6,21,40,47,47,23,49,58
73,41,19,-5,2,-10,-1,-21,-4,10
137,75,19,-38,-32,-60,-58,-54,-22,19
40,35,13,-16,1,1,-25,-13,-7,1
-35,12,5,13,28,37,24,16,-13,-48
-48,7,5,12,7,4,17,12,-21,-37
-60,-14,-2,-2,-12,0,21,13,5,2
-36,-45,-21,0,-4,6,28,18,20,48
146,-25,-26,-5,1,-11,16,18,53,149
134,40,12,3,15,5,11,14,34,79
-53,48,29,4,2,1,-2,-6,-20,-73
-111,-57,-28,-13,0,29,28,34,20,-45
25,-10,-16,-2,-13,5,10,25,57,55
107,74,33,1,-25,-32,-34,-29,11,10
13,11,11,-2,-6,-8,-29,-16,-11,-55
-74,-16,1,4,29,22,-4,0,0,-19
-124,-18,-5,18,31,27,16,1,10,-1
-41,4,3,9,19,15,13,-7,27,25
56,16,15,3,17,1,36,-8,39,8
122,-2,7,2,2,14,29,0,30,-6
52,-29,-9,-6,-8,4,16,-4,17,-16
-22,-39,-26,-17,-11,-5,19,6,2,-5
105,37,-3,-22,-29,-32,-15,-4,3,47
139,70,11,-18,-46,-42,-23,-7,9,42
74,44,11,-5,-30,-16,-10,7,14,20
-49,-1,9,8,2,8,0,17,16,-31
-110,-23,7,18,16,23,0,13,22,-33
-83,-24,4,22,6,25,1,0,15,-38
-41,-4,12,8,5,11,7,5,12,-33
-12,4,22,3,3,-4,-7,1,11,-16
-17,3,14,8,6,-11,-19,-8,-6,-11
-43,-15,-4,-11,14,3,4,2,-7,-10
-22,-24,-7,-7,26,15,44,19,14,25
47,19,9,-1,4,0,0,-6,2,45
-2,16,2,-9,7,-7,-17,-20,-21,13
-129,-35,-13,-4,17,16,0,-2,-20,-18
-123,-36,-13,-9,10,19,6,-6,-22,-33
51,-11,-10,-14,-1,1,0,-6,-21,-20
154,3,-4,-11,-12,-12,-1,0,-19,-9
108,-9,-22,-7,-10,-10,11,4,-10,9
17,-18,-28,-4,-6,-10,12,5,21,39
-15,15,-4,10,-2,-5,3,7,31,48
11,31,16,15,-3,0,-4,-3,22,27
24,25,25,13,-1,-1,-9,0,22,11
-47,-7,16,15,5,4,2,11,27,-16
-100,-40,-7,13,20,16,26,19,29,-25
8,-37,-5,22,31,28,42,16,19,-9
43,2,16,13,13,-5,14,-12,-7,-34
-122,50,13,-14,-33,-54,-35,-38,-33,-48
-136,16,-11,-27,-30,-40,-34,-24,-25,-17
76,8,-3,0,1,-7,-5,-7,8,84
242,18,15,13,26,27,23,16,32,117
168,0,22,18,43,44,35,33,24,19
91,-18,12,22,48,44,48,20,19,-20
96,-26,10,12,20,29,39,26,29,48
-58,-11,-4,-13,-28,-12,-4,-24,2,32
-394,-13,-27,-32,-52,-33,-43,-43,-38,-113
-437,2,-21,-28,-53,-45,-37,-27,-47,-170
-185,8,-9,-28,-33,-32,-14,-2,-37,-140
83,25,11,-6,4,-11,14,14,-1,-52
149,-5,12,17,20,10,20,35,22,46
87,-26,-1,10,20,18,20,40,23,67
61,32,7,9,3,-2,-16,7,1,31
80,-16,-5,0,12,0,-15,-5,-8,44
68,-55,-18,-8,30,30,18,5,3,52
-27,28,17,2,17,22,8,-18,-14,-22
-14,88,24,-21,-32,-48,-44,-58,-44,-52
55,15,-11,-56,-45,-52,-37,-36,-9,22
-42,-33,-11,-22,0,5,6,28,25,34
-55,-34,3,16,25,39,14,34,18,13
67,-18,5,25,20,39,17,11,12,37
75,18,11,35,17,19,3,0,-7,12
59,40,16,22,0,-6,-24,-18,-46,-31
125,29,-11,-3,-9,-27,-38,-13,-40,0
-18,-32,-38,-21,-5,-17,0,13,-2,45
-85,-63,-36,-12,-10,-14,3,9,-12,35
12,-33,-23,-6,-2,-3,-8,2,-15,-5
89,66,15,-3,-10,-8,-18,-9,-22,18
48,80,16,0,-2,7,-9,-1,-31,-10
-69,4,-8,2,7,21,2,8,-17,-53
-99,-37,-11,0,10,18,-5,13,-5,-13
0,-15,-12,-21,-13,-22,-25,-15,7,41
-26,8,0,-16,-7,-12,-5,-4,-19,-19
-97,-20,-4,4,19,9,32,12,-14,-51
-36,-21,-4,15,15,6,17,5,1,-4
27,2,5,-2,10,3,-4,-1,10,15
13,16,3,-4,15,12,3,-2,22,22
-19,11,2,12,11,16,9,0,24,23
15,-7,11,5,-2,11,6,13,19,44
16,-3,14,20,-3,5,-3,0,2,39
-54,-24,10,21,11,17,8,20,-1,-10
6,-13,9,19,10,11,11,24,-18,-40
108,26,18,-5,-25,-15,-25,-39,-70,-33
123,27,-6,-34,-41,-54,-47,-66,-68,7
51,-4,-19,-29,-33,-35,-46,-30,-35,13
-67,-29,-17,0,-13,-13,-20,11,-23,-11
-90,-8,-1,19,1,-1,14,2,-4,-18
-48,13,0,18,7,14,12,0,1,-26
-57,-1,-4,25,15,22,18,10,6,-45
-10,5,18,13,12,9,0,-2,-3,-67
145,14,22,-19,-18,-25,-20,-24,-6,-5
174,8,1,-28,-14,-30,-26,-11,11,95
41,-30,-17,-3,10,3,2,21,18,87
-53,-39,-22,24,28,36,16,31,18,24
-48,15,4,14,14,27,-1,-5,1,-12
-33,25,5,-2,5,10,-4,-27,-13,-25
-35,-7,-10,-2,5,0,1,-1,7,-17
-29,-15,-15,-18,3,-7,4,9,1,-24
22,5,-7,-11,7,-10,-6,12,-3,0
27,16,-14,11,-2,-10,-2,5,0,14
-11,-2,-13,9,-4,-8,0,-2,7,-8
8,4,2,-6,2,-16,-7,3,-3,-7
22,-9,-3,0,12,3,9,2,-5,5
40,-8,-8,9,0,7,6,5,6,30
89,27,15,0,-18,-23,-17,-11,-4,23
34,31,18,-3,-19,-16,-10,-5,-11,-27
53,18,7,-7,1,13,16,15,16,-2
59,16,0,-5,-7,4,7,-9,3,24
-213,-66,-43,0,1,3,29,-12,-24,-42
-275,-84,-39,2,16,25,17,6,-6,-15
-44,10,12,14,18,11,-2,-1,12,34
135,65,38,8,16,-1,-8,-10,18,27
50,-3,13,5,17,6,15,22,28,-2
-144,-71,-20,14,29,27,46,32,19,-47
-138,-59,-18,15,22,24,30,6,0,-77
-52,32,9,0,-19,-35,-29,-37,-23,-94
-107,21,13,-12,-30,-41,-41,-42,-47,-112
-115,-18,4,-10,2,-6,12,10,-11,-43
137,45,10,-12,-7,-30,1,8,34,113
252,81,20,-18,-25,-43,-35,-11,22,119
59,12,6,-3,-18,-24,-25,0,-9,0
22,-67,-30,3,8,21,41,38,7,-21
169,-20,-8,7,9,11,22,1,3,39
124,34,9,-2,-15,-22,-49,-41,-16,58
-52,42,5,2,0,-4,-38,-24,-21,2
-69,2,2,15,15,27,9,10,-25,-16
-28,-19,4,13,24,22,18,22,-25,-11
-27,-22,4,-1,17,13,3,3,-23,-24
-19,-20,2,-4,7,15,5,2,-1,-3
6,-11,10,-12,-13,0,-8,-7,-1,15
-19,-22,-10,-11,-33,-10,-4,11,7,9
-40,-23,-9,1,-15,-4,-2,21,-1,-18
52,14,-1,-4,-13,-16,-25,-8,-28,-14
80,20,4,-8,-26,-22,-31,-26,-21,23
39,10,0,-1,-4,5,-3,-3,-1,48
-16,5,-4,0,0,10,18,0,4,-9
-29,4,-6,-4,3,0,17,8,0,-53
5,13,-5,-12,9,4,6,11,8,-40
-21,3,0,-15,7,6,-9,7,10,46
-39,-20,-1,-13,4,1,-6,13,20,123
-70,-26,4,5,4,11,-1,15,6,56
-58,-15,16,24,22,14,2,11,0,-10
89,4,21,21,32,14,7,1,10,-32
257,13,3,-1,3,3,-2,-21,-4,-7
121,3,1,-16,-9,-3,-13,-22,-23,-5
-181,-14,-3,-7,-12,6,-10,-7,-32,-77
-285,-33,-5,-6,-8,8,0,-1,-30,-128
-128,-11,1,6,-1,-5,0,-1,-26,-72
7,-12,-4,7,-11,0,-4,2,-9,10
53,-7,-2,7,-11,-5,-6,3,4,71
34,27,20,1,-18,-7,-23,-8,0,34
-43,23,21,10,-4,-10,-21,-12,-6,-51
-12,8,15,10,4,-21,-40,-24,-27,-53
66,-3,-10,-3,-8,-19,-27,-6,-20,12
51,-6,-11,-2,-10,-11,-2,13,-6,49
76,11,8,8,-15,-6,-4,2,8,62
72,10,7,6,-17,-2,-9,1,23,84
-79,-11,7,26,11,25,11,13,18,20
-79,-31,-5,23,29,30,47,24,20,7
33,-33,-8,8,16,22,33,18,2,26
107,24,4,-9,-1,5,5,2,-15,3
108,40,0,-18,-14,-33,-24,-34,-33,-29
62,6,-21,-29,-30,-37,-27,-28,-28,-4
-63,-18,-30,-17,-16,0,0,2,-4,26
-68,-11,-5,-6,-2,5,18,21,21,20
-40,0,8,-17,-12,-2,-4,14,6,-29
-74,-8,-6,-23,-7,4,2,25,-9,-61
-103,-25,-13,-18,1,13,7,12,-12,-46
-114,-20,-7,-4,14,3,0,13,-8,-30
-97,-23,8,9,8,0,-1,15,-10,-38
-43,-7,1,10,3,6,-3,-1,-2,6
-45,-15,-7,10,24,14,0,12,12,22
15,-8,17,18,26,15,6,14,3,-3
107,25,33,13,0,-8,-13,-12,-32,-15
103,39,29,14,-7,-11,-13,-29,-30,-9
103,4,-2,0,-9,-17,-3,-23,6,55
124,-37,-15,-6,0,-15,4,-9,26,77
25,-5,9,15,12,8,13,4,7,7
-117,-18,2,42,19,29,30,33,0,-39
-78,19,-7,20,-8,-13,14,9,-13,-13
85,104,-5,-29,-79,-89,-71,-51,-14,75
125,41,-19,-50,-59,-52,-53,-28,26,96
66,-8,-1,-19,-8,8,-3,9,39,45
-2,0,8,3,24,22,4,10,20,18
-29,11,5,2,19,6,10,0,12,11
-18,-26,-10,0,11,20,25,15,16,-6
64,-23,-16,9,6,14,29,5,7,-25
66,7,-3,13,21,14,10,-1,-13,-44
-59,5,0,7,11,2,-15,-13,-42,-84
-106,-11,-13,-7,-7,0,-16,-23,-34,-52
-68,-11,-15,-18,8,10,17,-3,3,15
-121,-12,-7,-8,24,7,16,-4,7,34
-184,-36,-14,11,27,19,46,21,12,-17
-19,-17,2,15,7,6,25,15,13,-18
15,-27,-7,13,-4,13,-1,-3,2,-38
-92,-24,-14,11,13,21,10,13,-9,-93
9,41,1,6,-11,-12,-24,-10,-23,-45
85,50,3,-18,-44,-46,-61,-38,-32,5
90,-38,-22,-13,-17,-5,-5,6,2,20
46,-71,-11,19,34,34,38,16,31,32
71,38,26,7,2,-7,-20,-21,28,80
-6,22,11,-23,-12,-20,-7,-1,15,22
-56,2,9,-8,-5,-7,4,6,-15,-74
70,45,23,4,-11,-12,-12,-23,-17,-24
53,6,18,14,14,19,-3,-8,-14,3
0,-28,9,23,30,31,8,12,1,5
-52,-48,0,19,26,28,14,17,32,19
-89,-3,15,9,23,21,15,19,44,47
-76,26,5,4,0,-9,4,1,4,11
8,0,-17,-9,-17,-16,3,6,-4,25
110,-12,-3,-5,0,-7,1,7,-1,5
159,6,11,5,8,0,11,-2,-31,-35
251,45,13,-11,-7,-31,-32,-19,-38,42
278,56,2,-32,-47,-54,-59,-41,-27,122
125,8,-16,-19,-37,-28,-18,-16,6,100
-80,-22,-14,-5,-11,4,19,22,21,14
-161,0,-4,-1,-2,15,27,27,22,-45
-131,30,2,11,8,2,15,17,7,-96
-155,3,0,36,12,5,17,21,2,-127
