83,-20,-71,-9,17,-42,-34,-37,8,79
3,-46,-112,-25,-5,-44,10,12,83,70
-56,-33,-76,-10,0,-9,62,29,86,3
-23,0,-7,15,11,0,34,-15,39,11
9,201,198,12,62,21,70,-33,237,128
-36,417,374,12,112,67,151,21,510,186
-53,202,165,30,51,47,95,26,227,-2
-48,-35,-40,6,-16,8,-4,23,-43,-110
-48,-63,-54,0,-18,10,-29,34,-82,-100
-56,-75,-66,3,-3,11,-30,14,-110,-97
-43,-76,-48,15,5,3,-62,-4,-131,-95
-35,-32,3,14,3,6,-41,8,-81,-78
-23,19,28,15,13,14,-14,9,-39,-56
-8,-49,-36,-2,-18,-9,-21,-6,-100,-68
-6,-40,-73,-7,-19,-12,-14,-9,-99,-59
-21,-47,-160,-8,-26,-9,-7,-16,-84,-61
-18,-46,-155,-19,-21,-11,0,-20,-66,-62
-21,-47,-143,-15,-17,1,-1,-9,-48,-66
-13,-47,-54,-15,-18,6,-19,-5,-35,-62
8,8,60,-26,-10,4,0,-5,7,-44
6,-10,28,-34,-15,7,-4,-12,-15,-53
-4,-42,1,-22,-16,9,-5,-8,-45,-45
-3,-48,3,-12,-7,0,-3,6,-22,-15
7,-42,-15,-16,-11,-4,-19,12,-5,-7
20,-25,6,-15,-15,-2,-4,-4,-15,-24
29,-15,8,-12,-11,-2,27,-7,-11,-9
33,45,98,11,7,18,18,6,78,32
50,276,406,31,88,61,37,11,303,114
34,248,309,36,99,49,29,-1,264,99
15,19,-16,19,25,-2,-40,-23,21,10
28,-38,-61,9,-4,-20,-53,-43,-40,-21
46,-32,-76,0,-24,-38,-45,-58,-44,-16
64,-29,-82,-27,-56,-34,-49,-33,-19,22
14,-52,-66,-38,-76,-8,-11,14,28,25
-18,-9,6,-43,-63,15,28,30,77,31
11,-17,-20,-47,-97,-18,7,22,27,35
24,-32,-47,-31,-88,-33,-28,5,-2,57
24,-34,-45,22,9,-25,-40,-22,-17,29
40,-24,-9,36,62,-24,-69,-52,-66,-16
90,2,7,15,49,-35,-83,-58,-81,-15
70,-35,-38,-24,7,-53,-73,-10,-20,45
-61,11,31,-18,35,-11,-11,31,99,73
-94,282,304,34,127,73,60,2,258,84
-57,91,130,17,69,13,-43,-31,31,35
-42,-113,-106,-34,-21,-38,-88,25,-66,52
-102,-156,-153,-43,-29,-5,-25,105,-7,12
-99,-113,-110,-14,-19,17,0,77,-55,-68
-46,-45,-44,22,0,22,-38,9,-125,-95
7,17,12,47,28,11,-50,-21,-110,-68
92,211,173,65,71,31,4,-28,47,25
121,103,69,45,31,9,-17,-34,-28,20
18,-71,-112,4,-10,-8,-40,-10,-69,-1
-48,-87,-197,-33,-36,-8,-45,19,-44,-32
-112,-96,-139,-44,-32,1,-62,28,-68,-99
-167,-113,-105,-43,1,8,-73,28,-79,-128
-124,-79,-63,-47,0,0,-98,8,-71,-106
-43,17,15,-37,0,40,-116,-12,-16,-67
10,67,62,-19,9,99,-75,-8,32,-34
38,23,27,-6,0,73,-19,3,-17,-21
80,35,15,-21,-13,42,158,18,-21,30
69,31,3,-44,-48,41,249,33,13,76
22,34,20,-26,-66,27,158,10,-5,42
8,48,69,56,6,-11,32,-49,-49,-15
-10,19,54,112,81,-27,8,-52,-43,-20
22,138,262,119,99,12,67,-33,89,79
100,234,373,89,86,0,66,-21,228,216
29,7,54,4,15,-50,40,41,172,161
-72,-122,-116,-22,-5,-18,45,87,35,-17
-17,-62,-73,2,-5,0,28,35,-51,-59
36,-40,-54,0,-21,-39,0,-2,-87,8
90,-44,-40,7,-32,-65,-42,-40,-112,74
18,-134,-73,-6,-2,-10,-14,0,-33,146
-71,-207,-158,-75,-19,22,45,121,118,190
-68,-97,-116,-42,-15,24,42,120,5,-104
-40,35,6,30,20,21,-21,-6,-178,-309
-25,4,-2,27,27,8,-64,-42,-164,-195
1,-27,-39,-10,19,-12,-53,-24,-103,-71
-16,-24,-21,-16,23,-16,-20,-21,-95,-61
33,35,15,-9,10,-20,-62,-49,-92,-49
84,119,72,-8,31,29,-109,-72,-25,29
97,55,-13,-17,42,40,-121,-82,-51,104
39,-45,-106,-46,7,43,-33,7,36,139
-23,-62,-67,-1,11,71,106,51,69,19
-125,-78,-59,14,13,84,184,86,66,-91
-192,-57,-34,37,34,63,118,49,-1,-183
-66,-24,-1,46,32,-16,34,-22,-57,-125
71,73,58,4,47,-44,49,-14,89,102
7,321,300,9,133,17,145,9,404,217
-59,310,310,64,84,-12,96,-31,266,56
-23,94,89,82,-58,-66,-2,-60,-34,-89
-11,48,-28,106,-79,48,-45,-118,-167,-119
49,17,-54,63,-89,133,-85,-123,-141,33
173,47,-102,-9,-108,85,-110,-64,-38,180
286,161,-68,15,-71,-6,-170,-98,-69,178
176,178,43,51,2,-9,-166,-98,-7,151
-99,-34,-7,44,58,77,-133,-18,-17,6
-188,-119,-100,11,82,97,-47,43,-42,-84
-209,-175,-252,-53,25,48,89,77,-71,-154
-192,-204,-213,-120,-45,-47,126,104,-59,-163
-105,-169,-122,-114,-63,-100,39,75,-59,-102
-18,-92,-42,-51,-31,-108,-57,0,-97,-56
82,102,31,-12,-1,-113,-85,-33,21,45
106,164,10,-48,-31,-89,-65,36,188,110
18,3,-66,-45,-56,-68,-46,54,3,-15
10,-24,9,-20,-20,-52,29,15,-94,-54
-28,-87,-16,-29,-10,-44,88,38,-69,-46
-51,-99,-31,-24,-5,-16,66,47,-53,-51
-28,-72,-47,-15,-1,-19,18,11,-32,-20
18,-9,9,-18,-5,-37,-29,-38,-10,42
15,173,284,-1,53,19,-14,-45,106,71
-19,173,289,57,67,70,-65,-92,20,-69
63,8,38,36,12,-2,-184,-153,-146,-81
106,-72,-78,-54,-26,-71,-202,-60,12,96
67,-109,-117,-68,14,-25,-91,22,77,121
62,-98,-138,-47,103,156,12,-9,20,139
-121,-146,-217,-35,158,289,103,-14,36,109
-22,3,-32,-14,124,241,215,-81,19,53
177,74,6,-66,18,116,346,-80,76,150
90,-37,-40,-75,-68,8,268,-67,48,182
-37,-54,-28,-30,-78,-34,40,1,60,136
-84,-107,-102,-80,-128,-55,-54,164,196,147
-188,-138,-185,-74,-87,-34,-63,177,149,-83
-146,-54,-63,1,-36,-106,-74,67,-14,-254
-51,26,88,43,-7,-210,-67,-15,-33,-140
33,290,343,63,70,-169,18,-51,189,57
164,411,413,6,61,-87,94,-10,306,170
219,197,155,-17,1,-73,60,12,86,87
134,41,10,2,-7,-71,34,28,-38,67
-16,-45,-39,-2,-8,-58,25,46,-46,43
-89,-85,-53,-9,-1,-41,7,43,-68,-43
-55,-57,-25,-3,-9,-45,-45,8,-98,-95
47,10,13,-33,-20,-61,-67,-7,-38,-48
100,0,-13,-47,-23,-57,-95,-37,-4,7
16,-104,-103,-47,-40,-49,-107,3,37,-13
-95,-106,-72,-5,0,-7,-70,45,29,-134
-52,-5,42,77,42,-6,-105,-70,-96,-186
31,27,39,63,10,-81,-141,-102,-51,-37
37,9,-1,26,-22,-93,-103,-18,27,-8
0,52,24,69,33,-19,-61,-53,-66,-131
-64,64,49,77,71,43,-54,-81,-5,-91
-59,11,34,50,20,45,-145,-107,-74,-125
3,22,70,70,-4,42,-189,-149,-196,-137
-33,-129,-70,-11,-44,85,-81,-29,-54,87
-130,-238,-198,-102,-73,100,36,97,182,226
-121,-86,-71,-24,-27,87,131,76,106,-69
-49,39,64,71,43,44,137,-21,-74,-216
9,163,165,37,50,-42,68,12,190,39
10,515,409,66,119,-80,83,10,455,85
-58,345,298,91,126,-50,70,-33,194,-81
-143,-74,-24,8,38,7,105,70,8,-67
-92,-119,-106,-18,-8,18,91,104,20,99
-1,-44,-81,11,-10,8,17,53,-43,133
106,20,-56,32,-28,-31,-61,-41,-105,110
92,-21,-23,-23,-76,-11,-59,-40,-59,83
-15,11,73,10,-20,50,-39,-67,-86,-59
14,9,68,25,-14,4,-72,-127,-184,-121
-23,-46,12,-11,13,-5,3,-40,-99,-154
-84,-60,9,14,80,14,43,15,-113,-283
13,-12,44,37,60,-8,-31,-47,-187,-280
265,32,5,-34,-32,-66,-137,-123,-159,17
173,-99,-127,-130,-97,-46,-107,-12,66,298
-40,-43,-10,-100,-52,51,21,79,178,224
14,213,283,50,63,79,12,-100,-27,43
48,37,102,37,11,-9,-65,-182,-194,94
-93,-152,-76,-75,-31,8,52,34,24,171
-141,-106,-63,-40,16,74,132,114,20,-66
-161,-42,-36,24,63,94,128,75,-56,-226
-177,-53,15,46,56,64,86,47,-96,-222
31,107,166,79,38,-27,-44,-85,-127,-61
231,332,329,15,51,-22,-69,-138,113,311
68,82,66,-47,33,27,-22,-46,112,259
-89,-178,-281,-95,-28,45,39,82,8,-29
-3,-80,-234,-70,-42,2,4,35,-18,-118
-84,-25,-56,-20,-9,16,-18,15,-37,-200
-174,-102,-84,-76,-24,44,14,90,36,-177
-137,-71,-60,-93,-23,96,-11,70,26,-198
-32,72,79,-54,12,169,-55,-33,31,-162
93,131,109,-27,26,255,-130,-154,-52,-55
104,25,-58,-47,49,574,-147,-236,-152,-7
-82,-97,-116,-27,136,710,-30,-243,-177,-91
-166,31,176,176,266,455,37,-324,-268,-264
109,286,431,344,230,-50,-272,-427,-304,-67
90,100,208,160,31,-302,-373,-131,58,306
-246,-138,-60,-86,-89,-147,-30,267,336,105
-75,244,181,-96,-48,-132,200,191,321,4
59,212,70,-220,-127,-250,280,297,526,278
-140,-156,-192,-211,-154,-231,285,428,320,28
-241,-194,-124,-40,-31,-148,168,279,12,-248
-126,-33,-13,106,42,-161,-79,6,-222,-282
-8,39,26,131,25,-195,-213,-88,-267,-177
20,-1,15,38,-33,-131,-161,15,-91,-13
-26,11,-9,-35,-52,-23,-49,121,92,49
-56,11,0,-10,-19,33,65,55,-31,-56
90,44,34,19,-48,-91,76,-81,-155,-31
228,137,118,80,-47,-235,-49,-249,-292,13
-18,-21,51,77,-2,-181,40,-110,-100,78
5,43,95,64,-16,-57,71,-19,10,93
8,80,137,116,54,38,56,-67,-35,64
-76,24,91,125,145,157,118,-39,-38,25
42,-13,-72,-72,14,142,176,188,266,262
154,17,-63,-76,-41,164,29,117,160,234
401,205,135,65,-14,49,-297,-305,-233,206
234,39,-42,-63,-101,-75,-319,-247,-86,363
-157,-206,-242,-203,-107,9,-43,116,188,118
-238,-158,-124,-90,-42,18,14,105,52,-165
-178,-78,-23,-28,-22,-60,40,104,39,-190
-169,54,116,-43,15,-25,243,237,257,-114
-111,336,431,115,155,64,292,92,155,-199
126,372,395,218,145,-59,-25,-229,-243,-185
164,6,-33,-9,-67,-209,-135,-113,-38,152
-23,-143,-150,-90,-75,-114,-14,109,173,127
-10,-43,-94,-38,-27,-2,54,134,73,-54
-7,10,-118,45,19,72,52,76,-61,-189
6,229,115,256,145,96,-74,-160,-323,-213
44,254,105,221,120,102,-83,-165,-226,406
-237,-170,-306,-67,-13,213,155,205,145,563
-217,-269,-371,-195,-89,196,242,303,219,255
-136,-280,-378,-223,-117,94,182,232,176,84
-140,-261,-361,-188,-92,63,116,187,158,-14
-77,-144,-165,-123,-50,58,55,153,124,-76
46,-46,-77,-93,-16,34,8,128,106,-110
88,138,68,-41,43,17,-5,100,117,-206
-35,112,83,-4,61,-10,3,91,71,-349
-54,-16,-21,-6,20,-64,-36,85,-19,-353
-40,-40,-16,11,46,-65,-69,68,-48,-184
-12,35,77,78,101,-74,-103,10,-91,-21
114,242,289,207,108,-80,-177,-161,-296,-97
151,324,379,288,112,7,-204,-293,-499,-297
-19,299,373,286,159,143,-110,-273,-462,-385
-202,328,359,111,225,309,122,-18,-74,-302
-259,-9,12,-41,185,335,145,78,-88,-361
-262,-238,-227,6,178,361,84,-20,-402,-586
-62,-114,-206,35,141,280,-7,-133,-461,-393
-159,-246,-276,-133,63,297,97,110,-66,-69
-161,-292,-294,-178,-3,217,50,84,-40,-112
-95,-267,-305,-132,19,117,-46,-9,-133,-166
-43,-130,-210,-65,66,37,-52,-40,-81,-98
77,24,0,-7,-29,-158,-145,-3,47,11
121,83,138,108,-68,-237,-335,-213,-166,60
-215,-212,-81,-30,-149,-101,-250,-26,168,262
54,-101,-55,-116,-263,-91,-196,74,219,322
338,28,-25,-140,-333,-193,-237,25,135,421
124,-145,-173,-197,-268,-80,-57,136,217,258
16,-107,-106,-139,-151,28,203,234,220,27
30,245,188,-28,5,136,466,306,415,47
95,436,339,72,108,157,364,222,368,52
35,220,198,83,72,89,91,98,169,-40
-27,-135,-82,27,-44,-15,-74,28,6,-59
-84,-207,-142,29,-56,-47,-117,1,-1,-6
-69,-138,-77,135,26,73,-103,-46,-87,54
-122,-105,24,180,72,205,-37,-39,-43,27
48,111,242,235,91,167,-1,-162,-187,-112
155,75,126,161,76,158,194,-74,-169,-37
-117,-242,-182,-3,23,197,351,212,153,89
-136,-248,-182,-10,9,158,216,218,168,56
-26,-125,-78,58,52,115,87,96,-48,-91
-19,-41,49,181,134,124,60,63,-176,-217
19,0,87,245,181,131,0,0,-240,-105
-101,-118,-67,82,82,130,89,166,84,98
18,-80,-107,-54,-9,108,152,243,151,-5
55,-132,-139,-83,-45,64,125,192,39,-39
76,-53,-14,24,4,28,30,66,-81,-54
129,95,192,191,91,0,-107,-150,-271,-38
53,41,163,158,54,14,-101,-135,-132,176
126,-32,-32,-22,-54,51,-35,26,61,313
242,39,41,4,-33,-19,-149,-99,-74,284
150,227,291,71,40,-72,-180,-90,96,255
97,323,350,-1,67,-50,-82,52,312,255
-242,-48,46,-30,80,20,61,172,263,3
-120,-227,-208,-121,-37,-60,88,187,99,-100
36,-252,-325,-191,-127,-173,11,133,14,-45
-110,-350,-437,-215,-123,-119,66,214,81,-56
-144,-312,-310,-167,-89,-78,81,204,51,-49
-54,-155,-108,-64,-53,-69,28,118,10,-36
-41,-97,-25,-24,-17,5,52,120,47,-35
-44,-72,-4,31,5,55,40,66,-48,-60
73,51,109,92,5,-49,-60,-87,-133,18
165,85,117,104,14,-102,-92,-156,-201,94
-35,-141,-105,-49,-23,-52,20,86,104,211
13,-82,-95,-46,-37,-57,2,64,66,115
338,311,273,214,52,-148,-209,-318,-389,306
311,420,269,160,79,-99,-86,-145,-65,593
99,131,54,0,20,-54,25,39,130,403
-42,-147,-173,-109,-87,-91,36,129,254,267
-143,-291,-294,-185,-112,-52,101,208,329,102
-127,-299,-282,-207,-128,-33,71,133,190,-156
-185,-256,-230,-150,-66,20,84,150,127,-397
-101,-137,-141,-99,-43,-13,17,91,35,-453
70,39,-47,-123,-73,-94,-36,25,97,-199
110,292,204,-57,20,-101,-5,-44,236,-38
148,190,183,62,31,-138,-74,-154,-11,-38
105,29,50,67,5,-116,-66,-80,-7,109
-107,-149,-138,-37,-28,-66,25,112,211,268
-145,-136,-100,-25,-49,-91,-24,8,53,159
-155,-205,-170,-114,-140,-161,-52,24,109,119
-59,-194,-172,-124,-141,-145,-37,-22,43,103
168,17,50,41,-14,-126,-164,-332,-267,108
340,72,2,55,-12,-86,-137,-245,-207,276
64,-28,-136,0,4,91,185,221,145,152
156,191,163,134,70,47,113,48,-190,-269
177,368,440,336,164,17,-56,-249,-604,-574
44,326,415,350,189,-22,-148,-337,-586,-520
-283,-8,146,226,191,49,-35,-157,-364,-493
-447,-178,5,73,188,232,228,163,-148,-534
-293,-19,117,-75,126,248,289,287,165,-219
-189,-105,-31,-159,8,105,183,191,151,-63
-119,-270,-272,-169,-92,-57,140,65,-45,-55
-93,-240,-322,-127,-91,-155,105,70,3,-15
-17,-144,-224,-59,-41,-188,-7,36,48,43
77,-64,-40,4,12,-187,-65,-24,43,135
151,7,37,36,25,-141,-101,-43,36,147
180,160,200,148,84,-60,-150,-149,-128,51
147,214,296,279,119,-67,-289,-380,-323,55
186,143,184,166,59,-3,-300,-376,-322,24
33,-58,-26,-60,-3,156,-104,-84,-86,28
-179,-201,-199,-188,-39,160,79,242,243,11
-59,-144,-231,-137,14,18,29,80,6,-126
21,-95,-121,-74,31,-59,52,-18,-129,-122
39,-73,-81,-91,-79,-149,113,125,104,111
-122,-77,-70,-29,-66,-22,150,111,-10,0
-186,-138,-139,-30,-79,53,158,14,-162,-34
31,-67,-110,-129,-216,-86,154,79,43,181
82,-30,-99,-145,-249,-164,112,101,129,198
34,24,-58,-84,-198,-197,37,9,77,77
52,68,40,8,-112,-175,0,-67,-24,34
-10,144,221,146,17,-109,-31,-153,-128,-17
174,505,519,209,129,-54,-83,-248,-93,126
256,570,518,120,128,-41,-95,-213,78,389
113,58,3,-100,-80,-111,-30,43,252,499
-94,-170,-123,-7,-47,-75,-16,1,61,143
-27,-46,-42,95,4,-55,-34,-73,-51,43
116,-30,-143,-44,-91,-46,35,67,92,222
10,-188,-251,-180,-168,-31,122,222,232,209
139,24,-2,-18,-77,-51,9,-13,-46,47
120,44,25,8,-49,-40,-10,-3,29,81
-86,-94,-43,42,1,29,78,101,70,-43
-2,75,137,173,55,1,-26,-133,-214,-155
150,135,135,120,-21,-108,-102,-181,-181,-71
88,-107,-204,-177,-180,-114,38,156,239,37
-65,-260,-335,-246,-149,-15,139,235,214,-59
-216,-276,-285,-155,-52,66,183,202,114,-160
-78,-8,5,-28,36,84,168,123,14,-197
62,64,79,56,31,43,76,10,-170,-226
18,80,94,144,64,37,4,-130,-390,-378
23,90,70,117,36,8,-32,-94,-275,-269
57,78,-7,73,22,4,-30,-79,-195,-120
9,28,-48,53,7,9,-1,-66,-182,-144
-110,-19,15,49,0,41,51,1,-163,-251
72,136,155,47,-11,8,9,-19,-111,-76
93,185,236,-18,27,62,16,41,120,175
-258,-190,-176,-86,14,76,5,130,94,-49
-141,-149,-162,-31,8,20,-112,-34,-232,-251
-63,-74,-55,-1,-4,-2,-162,-76,-252,-151
-46,-47,-34,0,-11,8,-173,-106,-224,-79
-45,-68,-56,-42,-54,-3,-109,-48,-121,129
3,-8,-4,20,-46,-92,-12,-60,-112,477
163,211,220,158,17,-182,-18,-243,-206,590
227,122,109,4,-92,-227,-62,-132,12,603
192,-2,-49,-107,-159,-192,-56,57,168,475
234,38,26,-16,-105,-200,-160,-25,62,398
111,9,0,-14,-68,-106,-77,68,175,296
-15,-1,57,59,24,40,0,28,-50,-138
-199,-17,131,153,125,197,101,-8,-273,-564
57,132,127,-22,23,153,167,113,-18,-303
204,326,290,-76,31,80,139,46,58,-50
-27,84,76,-115,0,32,143,44,3,-79
-178,-244,-248,-166,-81,6,137,124,-66,-148
-132,-226,-208,-141,-77,4,81,88,-97,-76
-51,-133,-120,-88,-48,-10,51,53,-121,-18
-60,-105,-103,-76,-60,-29,53,79,-77,15
-97,-76,-74,-55,-54,-30,38,84,-63,-44
-9,34,34,-34,-42,-58,-8,18,-37,-6
102,77,78,39,-26,-91,-82,-126,-211,11
136,173,196,159,53,-53,-113,-222,-348,-70
127,183,171,183,101,-11,-128,-216,-310,-19
-15,17,0,58,41,9,-27,2,-9,-49
151,154,137,105,58,0,-73,-153,-316,-271
-42,-48,-76,-42,9,68,54,69,-62,-82
-183,-128,-108,-84,16,142,187,192,78,-74
-67,-22,24,33,46,66,75,-23,-80,67
24,-66,-71,-70,-76,-38,20,18,75,319
90,-83,-175,-168,-124,-40,48,51,68,319
21,-179,-296,-209,-153,-71,20,52,133,276
26,-213,-255,-218,-174,-108,-1,75,149,306
71,-171,-172,-178,-131,-90,-43,44,60,748
76,-122,-82,-127,-53,-72,-107,-16,-29,1127
163,164,274,0,76,-60,-192,-172,-161,840
388,453,569,172,217,-98,-352,-480,-484,521
270,212,299,179,249,-22,-323,-450,-460,656
182,100,195,194,189,79,-252,-334,-422,646
407,228,201,162,22,-38,-292,-359,-552,190
17,-53,-82,46,11,92,-96,-87,-437,-531
-442,-403,-414,-134,-26,278,214,337,82,-799
-63,-83,-80,-41,-56,211,220,260,135,-690
79,73,74,25,-43,106,216,202,11,-707
-137,-153,-175,-97,-26,197,363,331,-14,-754
-252,-237,-310,-98,34,262,379,243,-217,-767
-90,-47,-125,1,91,157,223,40,-388,-659
-9,75,76,97,182,160,96,-14,-445,-618
-137,28,135,198,210,182,22,-55,-524,-690
-163,39,100,170,89,177,-15,-87,-515,-652
-85,231,221,181,92,221,-86,-185,-442,-508
211,305,312,274,146,-10,-332,-441,-584,-182
63,70,135,147,208,36,-365,-310,-307,9
-287,-170,-114,-60,248,360,80,87,-85,-339
-389,-268,-198,-93,275,516,385,150,-130,-441
-187,-171,-136,-48,161,201,315,-10,-251,-278
68,-77,-175,-112,-56,-234,196,118,-27,74
52,44,7,-99,-176,-355,61,210,178,180
4,182,207,-94,-185,-220,27,164,234,159
32,27,-19,-93,-246,-212,30,90,34,121
101,-10,-88,-81,-284,-269,103,103,-30,147
130,0,-60,-53,-270,-328,120,109,-54,140
74,-57,-81,-73,-229,-297,122,134,-19,115
5,-45,-40,-50,-157,-227,103,122,-38,79
42,20,17,-33,-119,-209,35,55,-28,161
143,124,112,-12,-91,-213,-32,-5,-9,236
183,114,87,0,-104,-199,-74,-36,-93,198
30,58,92,74,-34,-141,-96,-88,-167,89
25,80,100,163,38,-83,-130,-195,-324,61
170,105,92,72,-57,-156,-175,-169,-261,210
3,-85,-109,-137,-152,-117,-26,138,99,228
-75,-42,-28,-41,-44,-4,51,78,-114,24
52,294,284,78,50,-9,-25,-84,-179,64
101,533,513,102,132,-12,-64,-129,-27,196
35,209,177,-23,51,-10,-19,-16,69,303
54,-147,-216,-137,-78,-49,43,116,0,277
6,-173,-233,-94,-45,-24,54,140,-44,250
8,-30,-101,108,73,-52,-98,-122,-299,112
143,209,214,313,175,-69,-273,-420,-574,18
308,137,1,-23,-89,-133,-202,-56,51,443
371,116,-81,-80,-94,-92,-156,-34,5,381
107,169,257,284,171,1,-260,-422,-625,-121
-72,-22,68,87,13,-37,-220,-202,-169,169
-165,-442,-549,-531,-359,25,174,580,777,335
-102,-431,-551,-490,-310,38,189,436,306,-140
-186,-350,-363,-263,-167,-5,100,238,71,-175
-38,-62,-81,-58,-37,29,59,64,-169,-183
86,111,113,61,72,140,92,5,-312,-199
-20,29,69,83,121,212,153,98,-250,-207
-111,-36,30,84,113,206,149,112,-238,-215
-62,-13,40,76,78,150,95,82,-254,-163
41,55,80,79,35,83,-2,-5,-281,-27
66,80,88,102,45,65,-27,-59,-310,42
-27,-9,23,56,61,72,42,-3,-252,45
-81,-17,65,42,79,77,44,-18,-216,15
6,256,356,94,139,84,17,-62,-121,89
76,373,510,193,190,72,-37,-147,-172,144
176,169,194,106,51,-31,-87,-142,-277,161
240,4,-83,-70,-92,-105,-72,-34,-157,215
-55,-65,-72,18,-4,-45,-63,-43,-201,7
-12,81,83,162,42,-85,-177,-251,-470,-79
139,78,25,8,-106,-194,-227,-200,-322,187
-70,-121,-146,-173,-155,-131,-69,105,84,214
-49,-147,-184,-174,-146,-75,-26,136,52,104
101,-100,-211,-162,-137,-24,-5,111,-64,80
-19,-131,-184,-81,-9,114,98,140,-165,-137
-89,-158,-171,-54,25,143,128,140,-186,-132
-52,-112,-126,-47,0,88,68,51,-235,-28
2,-54,-72,-8,-7,60,11,-11,-293,6
12,14,-6,1,10,68,47,58,-171,79
-43,136,133,30,98,131,146,154,-36,160
-56,39,38,71,81,104,80,31,-267,282
-3,60,79,118,70,34,-5,-104,-383,141
3,108,156,193,94,-2,-61,-197,-457,-107
49,198,280,299,154,-24,-148,-366,-636,-238
-38,61,90,120,45,-52,-71,-132,-233,51
37,-3,-57,-95,-97,-55,36,89,-14,183
63,140,54,-135,-28,46,133,122,-1,237
-133,136,95,-127,72,142,222,200,128,-5
-151,-115,-131,-116,-23,46,110,149,-82,-300
-150,-145,-151,-51,-27,23,40,103,-178,-386
-144,-95,-86,22,39,49,32,43,-293,-450
-79,-23,-35,75,55,37,16,-33,-381,-480
-73,-8,-1,53,36,23,18,-15,-343,-505
-72,0,49,58,53,25,10,-22,-305,-373
-55,164,251,247,177,52,-77,-220,-543,-404
49,221,266,299,165,-7,-185,-351,-669,-299
4,-29,-51,-35,-65,-96,-69,7,-140,25
-24,-170,-178,-141,-101,-44,39,158,-36,91
144,-36,-39,-56,-95,-138,-103,-32,-219,77
405,140,72,-23,-108,-215,-250,-218,-390,196
-13,-200,-184,-149,-100,-87,-64,53,-53,290
-320,-201,-78,-132,9,76,140,275,101,-1
44,221,314,-23,58,25,45,60,-124,-25
133,85,75,-129,-64,-35,10,50,-84,185
-5,-175,-206,-154,-83,7,69,140,-74,114
3,-166,-202,-89,-35,29,70,98,-208,0
54,-84,-93,-29,-9,13,35,45,-257,42
61,-51,-81,-21,-14,-9,24,69,-165,164
108,-3,-62,-38,-16,-26,8,70,-119,430
102,8,-27,-32,-14,-28,-19,44,-106,606
49,-38,-104,0,-19,-47,-70,-31,-233,401
153,32,-74,15,-12,-68,-118,-128,-383,264
37,-25,-24,10,13,-3,-50,-27,-284,253
-92,28,119,132,101,44,-44,-56,-360,32
65,113,150,137,86,-4,-101,-112,-364,126
-42,-79,-65,-4,27,12,18,79,-53,431
-173,-126,-79,-58,29,44,94,177,72,220
-57,-38,-27,-61,-14,-7,-5,113,-28,23
-55,-64,-31,-40,-14,0,-20,93,-102,-114
-108,-100,-32,-6,-5,-34,-93,-31,-206,-261
-178,-72,48,104,43,-73,-203,-241,-396,-531
88,317,436,375,127,-159,-378,-519,-744,-756
472,622,579,370,54,-193,-360,-438,-676,-386
153,198,-46,-101,-102,-13,104,288,172,26
-191,83,-48,-174,97,262,386,443,327,-164
-261,2,5,-61,214,281,304,207,29,-299
-281,-190,-119,3,114,163,181,128,-156,-299
-165,-203,-181,-57,5,103,172,200,-77,-216
-62,-115,-123,9,19,82,82,70,-295,-330
3,23,112,156,79,48,-56,-154,-510,-346
174,191,227,186,47,-57,-176,-287,-531,-151
185,171,60,58,26,-50,-108,-173,-295,37
-83,-158,-218,-75,12,39,27,42,-46,99
-136,-270,-239,-87,9,50,49,90,-62,-5
-95,-147,-61,41,64,-5,-86,-140,-322,-99
-80,-203,-156,-111,-81,-54,-52,63,33,166
7,-136,-167,-167,-116,-9,35,175,152,226
75,-83,-179,-109,-77,1,20,78,6,150
-14,-49,-97,-81,-5,37,49,91,10,35
-25,68,25,-43,48,74,37,73,63,5
-44,-64,-77,-13,0,14,-64,19,-54,-52
-79,-85,-39,14,16,-44,-118,21,-53,-106
-62,-74,-21,0,14,-77,-132,40,11,2
-49,-24,8,36,25,-68,-149,-30,-73,-49
-3,12,6,64,30,14,-150,-96,-149,-43
-9,19,43,58,43,99,-71,-79,-70,14
53,223,302,105,121,134,67,-72,67,76
167,326,389,123,162,96,76,-130,82,178
95,130,145,116,135,34,-43,-146,-81,48
35,-33,-58,-21,88,69,-57,0,105,143
97,23,-11,28,105,72,-69,-77,-69,46
169,194,176,195,71,-87,-158,-157,-198,41
53,145,168,176,-27,-145,-140,-28,-14,146
92,110,118,64,-72,-57,-129,-101,-106,105
50,-21,-39,-88,-148,-10,-46,17,41,185
-137,-265,-272,-218,-200,-37,118,248,294,151
-148,-207,-158,-74,-78,-70,90,75,39,-62
79,-53,-155,-18,-63,-143,54,-45,-35,87
12,-87,-214,-101,-119,-133,185,104,197,192
-112,-60,-102,-85,-116,-85,184,171,251,40
35,-17,-108,-123,-118,-66,127,176,250,401
-45,49,38,-136,-40,-1,156,243,429,645
53,184,160,-99,-15,-16,94,125,323,338
158,52,-28,-92,-104,-76,4,4,84,77
-38,-53,-68,-61,-39,-1,49,48,112,-89
-116,-102,-127,-83,-17,10,77,87,203,-115
-55,-52,-64,-20,32,29,60,10,32,-300
-51,-20,-18,50,87,66,55,-34,-89,-400
-20,102,104,91,112,94,35,-65,-69,-328
58,276,301,153,118,59,-44,-137,-46,-210
213,373,411,339,94,-73,-241,-388,-396,-197
258,359,371,302,48,-144,-270,-397,-279,31
-86,-153,-187,-142,-99,22,108,231,370,131
-236,-377,-389,-258,-61,228,301,369,275,-121
-153,-309,-295,-193,-60,173,205,190,142,-105
-79,-193,-175,-124,-64,172,171,129,159,-33
-31,-20,-20,-24,1,221,136,47,99,-36
-34,-34,-33,7,2,208,119,-27,-24,-57
-46,-120,-119,-73,-50,175,79,-75,-65,-30
-8,-124,-139,-113,-84,147,-43,-108,-68,44
33,-83,-109,-72,-53,88,-328,-138,-119,107
-61,-120,-92,-25,-7,-9,-618,-163,-102,137
-102,-22,87,125,74,-96,-733,-299,-204,-42
43,253,305,198,113,-122,-598,-399,-229,-25
31,320,241,-62,43,-79,20,-8,464,315
74,190,67,-143,18,2,478,191,550,282
122,-11,-70,-41,-22,-36,123,41,194,140
45,-87,-112,-39,-42,-86,45,41,110,9
31,-42,-49,5,-45,-154,147,46,51,-134
19,-43,-68,-10,-74,-147,87,90,70,-221
-77,-56,-30,15,-31,-9,149,122,78,-264
77,144,188,109,10,22,175,-13,0,-154
226,272,269,189,38,-33,100,-134,-152,-127
-12,219,321,337,204,7,-11,-225,-283,-252
-56,108,140,222,129,-31,-50,-128,1,24
297,145,-25,-38,-107,-201,-74,-36,181,191
123,-117,-380,-280,-211,-107,146,230,353,103
-236,-361,-541,-257,-123,52,260,289,386,-52
-168,-209,-238,-152,-68,1,154,148,370,-1
-19,-10,41,-67,-30,-48,67,34,306,56
4,-90,-82,-78,-56,-81,33,63,262,84
-35,-135,-159,-89,-42,-37,71,155,372,130
53,-51,-49,-10,-1,11,29,34,211,137
31,-26,-19,37,31,51,27,-28,109,99
34,-33,-26,-3,-3,40,21,-8,131,61
28,-35,-57,-12,-18,25,-26,-2,132,75
14,163,170,26,68,23,-125,-86,154,77
59,197,272,50,69,-25,-177,-119,165,200
113,13,72,39,-19,-70,-177,-102,71,347
48,-81,-76,6,-49,-28,-139,-89,85,365
-182,-116,-65,93,6,59,-76,-168,-26,8
42,90,170,168,-17,0,-24,-250,-54,40
243,133,91,24,-60,43,171,73,278,137
46,-55,-93,-81,-5,164,311,298,367,-92
-91,-127,-124,-86,0,107,196,177,171,-305
-262,-194,-115,-7,25,91,119,101,29,-428
-235,-180,-89,5,27,78,120,173,112,-345
-90,-113,-68,-14,-2,10,100,174,143,-181
-60,-52,-17,24,6,-51,28,103,110,-163
-7,6,43,52,-11,-144,-88,-11,83,-97
-25,41,52,57,9,-105,-61,-15,117,-130
5,268,273,49,81,-25,10,18,272,-154
92,367,406,143,113,-1,-34,-75,171,-127
168,149,118,77,-3,-69,-89,-83,76,-11
47,-14,-55,28,7,-21,-27,-26,94,-62
-80,-39,38,153,92,39,-38,-87,-6,-181
-87,0,32,160,63,15,-9,2,153,-59
104,105,148,119,6,-53,-70,-68,186,355
193,65,18,-47,-32,-53,-97,-40,395,857
-38,-224,-325,-261,-101,7,36,240,783,822
113,-223,-356,-212,-165,-27,-24,128,448,411
202,-70,-235,-85,-102,-23,-86,-49,213,224
38,-120,-147,-61,-62,-5,-49,32,305,44
-55,-123,-81,-43,-50,2,-45,55,261,-189
-112,-63,-23,-29,-26,31,-5,42,169,-499
-146,-50,-69,-14,4,63,3,47,135,-625
-104,-6,-26,10,22,65,-33,33,158,-466
-96,12,79,62,48,55,-78,-46,67,-417
-160,-8,130,133,133,134,-70,-146,-43,-440
-35,112,249,232,207,94,-78,-340,-161,-69
23,73,103,79,96,-20,-21,-148,215,612
0,-55,-104,-80,47,13,39,95,461,501
257,64,4,-21,-21,-138,-159,-55,342,303
46,41,33,-36,-73,-151,-74,61,535,110
-179,60,141,-122,-50,16,133,271,712,-124
39,143,156,-93,-86,8,48,105,482,-215
138,111,73,-23,-114,-51,-28,-26,260,-270
5,39,35,11,-66,-24,-14,19,216,-302
-184,-184,-174,-74,-84,-7,78,155,279,-228
-124,-241,-275,-179,-163,-40,86,209,415,25
-86,-116,-114,-104,-104,28,94,182,361,-52
-75,29,91,28,1,83,78,83,199,-244
-43,57,161,158,69,69,10,-105,-88,-364
-20,52,157,178,63,-1,-84,-197,-86,-236
155,107,143,84,-40,-89,-151,-177,80,70
32,1,-25,-19,-60,-38,-60,-48,217,101
32,-123,-158,-118,-96,-44,-26,76,340,225
-85,-206,-191,-113,-42,23,49,140,335,193
-158,-98,-23,45,72,73,39,41,221,54
-59,89,258,229,143,32,-116,-196,-10,-68
115,185,299,220,88,-64,-215,-283,-25,49
69,25,39,12,0,-6,-6,37,257,73
-92,-187,-212,-156,-32,56,162,233,390,-20
-12,-192,-233,-173,-77,-31,98,169,377,-19
-7,-137,-135,-89,-28,-34,50,118,271,-136
12,40,20,51,76,0,-10,-40,112,-169
142,339,290,48,144,49,37,-48,329,47
90,274,258,-69,86,16,114,109,643,211
-26,-24,34,-17,17,-22,41,71,382,63
19,-24,14,61,-16,-34,-91,-110,106,-37
60,11,6,39,-40,46,-105,-183,74,55
-149,-162,-96,1,9,249,29,-103,159,67
-126,-217,-179,-98,-41,242,97,3,284,41
36,-54,-107,-127,-74,137,128,0,214,-119
106,15,-89,-78,-78,61,126,-30,212,-28
167,-15,-93,-86,-120,5,120,52,321,321
93,-81,-108,-94,-105,-46,-31,106,404,752
36,-104,-121,-90,-88,-146,-151,80,413,814
15,-118,-161,-109,-101,-207,-127,87,419,651
-32,-97,-184,-52,-40,-145,-32,69,316,263
-29,49,34,140,104,-29,-32,-126,10,-190
81,295,326,210,191,40,-64,-224,-15,-440
6,143,181,33,86,84,-19,-6,249,-495
-238,-125,-88,-25,63,140,56,105,241,-628
-178,-92,-51,-2,36,45,-23,19,146,-595
-55,-1,30,50,16,-55,-157,-90,107,-411
-92,-13,-21,57,33,25,-140,-142,46,-370
-110,-74,-136,-23,-12,64,-14,-93,81,-313
-68,4,37,-11,8,57,162,-16,195,-180
-45,90,174,104,102,78,214,-37,100,-189
147,171,236,223,151,-48,15,-224,-111,-118
71,122,174,159,141,-38,-86,-89,152,70
43,161,209,201,202,91,-206,-103,135,35
123,126,145,149,166,100,-345,-200,42,27
-178,-176,-92,-7,99,164,-153,4,208,-47
-164,-180,-144,-89,-36,37,-306,-50,165,-17
-59,-168,-255,-169,-128,-36,-522,-42,277,192
-59,-129,-221,-92,-108,49,-559,-181,36,52
113,-66,-144,-167,-206,0,-90,-135,53,115
152,-127,-201,-210,-212,-125,763,194,308,284
129,-82,-127,-95,-103,-223,731,237,346,280
157,38,30,4,-33,-265,181,79,249,199
51,16,30,5,-32,-217,3,57,264,154
-86,115,182,48,72,-73,70,55,231,-30
19,434,475,111,174,-9,73,-15,244,-62
99,355,338,91,87,-48,46,-42,129,-40
28,56,53,24,-23,-97,-6,-51,96,35
116,-13,-55,-63,-103,-146,-51,-23,276,231
29,-147,-182,-123,-116,-69,68,152,328,188
-122,-200,-202,-96,-62,31,171,247,228,-14
-96,-97,-92,-40,-2,59,151,142,91,-76
-67,15,49,34,64,72,141,50,3,-110
-27,-28,24,44,34,35,101,7,-28,-69
50,4,46,52,12,-12,29,-51,-40,-11
272,232,234,174,21,-110,-154,-281,-197,44
291,247,224,154,9,-150,-199,-313,-147,158
-152,-106,-28,19,18,14,45,65,252,191
-24,-73,-48,0,-4,-18,-1,-17,188,167
-11,-95,-143,-138,-70,-22,73,98,273,108
-28,-100,-129,-105,-55,-8,72,67,211,32
106,73,69,78,-4,-68,-93,-149,-44,-42
108,77,89,85,-4,-36,-65,-72,-14,-26
5,70,72,150,98,88,0,-121,-144,-118
-3,27,-26,27,11,35,-3,-86,-17,-84
-70,-217,-283,-230,-148,0,127,176,333,32
-102,-229,-262,-238,-125,22,147,165,339,53
0,-8,4,-110,-28,67,126,108,300,139
40,9,16,-1,18,79,89,0,106,133
16,3,11,29,35,63,45,-46,13,54
-48,-14,24,59,58,55,24,-33,-12,-55
-5,52,75,106,73,35,-29,-115,-84,-31
-40,-39,-57,-16,-5,10,25,34,62,18
-129,-142,-176,-111,-36,46,118,217,167,-55
-32,55,-41,-56,16,46,56,124,172,-17
83,293,280,19,82,54,-7,20,210,40
10,156,190,31,48,24,-74,-42,116,-48
-21,14,34,56,11,-27,-160,-141,-56,-119
142,88,61,30,-57,-122,-216,-185,-18,64
66,130,136,125,4,-87,-237,-206,-38,40
-170,143,203,285,132,-32,-245,-260,-124,-103
31,23,-28,-52,-40,-15,-65,35,231,304
56,51,6,-199,-25,43,100,141,379,305
-44,54,40,-161,28,39,197,97,310,153
43,-17,-77,-55,15,3,160,-29,-52,-58
-40,-107,-134,-16,25,6,95,12,-73,-80
-36,-58,-31,46,49,4,2,-52,-110,-92
165,75,48,71,14,-57,-128,-219,-166,28
152,47,10,7,-41,-113,-155,-189,-39,152
-12,-36,-43,-69,-57,-59,-41,9,83,122
-77,-115,-74,-69,-34,-9,23,60,19,110
-67,-52,30,73,52,40,31,40,-67,14
-57,80,222,264,171,60,-34,-159,-319,-254
-2,48,107,162,112,-3,-83,-209,-298,-317
-50,-140,-154,-93,-28,-8,77,131,99,-290
-20,-86,-137,-101,-32,12,90,162,162,-247
-7,-42,-146,-74,22,35,61,82,88,-109
92,15,-145,-18,60,2,-44,-55,26,409
196,12,-115,13,0,-114,-218,-141,-2,754
196,54,-92,31,-31,-143,-273,-138,92,601
156,113,-63,70,-25,-134,-279,-158,153,395
54,27,-154,11,-7,0,-91,-43,70,296
-53,-125,-231,-88,-34,53,19,21,100,417
-231,-330,-337,-256,-108,57,155,315,354,65
-106,1,-41,-169,-13,78,136,211,277,-323
-11,403,361,18,146,87,28,-65,175,-437
73,319,283,114,120,21,-67,-219,2,-386
104,195,145,189,80,-11,-107,-267,-238,-535
9,168,244,206,102,23,-62,-207,-341,-685
-98,17,123,97,59,35,17,-71,-137,-430
-72,-176,-161,-118,-64,26,129,149,88,-226
-142,-228,-250,-142,-29,96,229,208,19,-309
-133,-126,-104,-87,-7,46,179,141,84,-198
-120,-140,-61,-27,-21,6,103,61,19,-176
-79,-12,106,127,70,0,-20,-158,-153,-175
352,380,417,303,97,-153,-355,-573,-194,195
925,835,705,472,77,-377,-781,-1088,-373,436
769,528,301,156,-119,-389,-578,-569,-117,418
-428,-521,-528,-378,-184,104,396,667,328,-235
-597,-503,-370,-223,-7,223,367,483,170,-379
-354,-275,-161,-76,17,121,95,217,99,-179
-229,-160,-81,-21,24,147,60,128,-30,-197
-85,-13,50,68,41,107,-27,-41,-214,-188
-186,6,140,161,98,94,62,-59,-185,-143
-332,-27,162,175,99,170,321,98,-18,-138
138,221,282,189,67,86,142,-135,-245,-16
331,123,4,-136,-132,-82,8,17,145,425
-85,-38,-67,-284,-109,-25,122,330,577,286
-234,-205,-187,-358,-138,-35,161,408,657,245
-69,-248,-268,-245,-162,-112,71,199,309,203
26,-145,-166,-101,-42,-38,40,108,144,173
31,-84,-92,-22,66,35,-11,-8,-65,26
-88,-158,-129,-24,117,54,45,-46,-209,-153
-92,-185,-117,-11,154,94,53,-64,-143,-83
61,21,76,102,195,109,-28,-161,-54,54
192,162,197,215,129,48,-124,-280,-114,124
80,60,117,165,-4,-8,-42,-80,-87,39
-196,-189,-124,0,-52,103,143,226,-36,-185
-83,-115,-67,1,-50,76,-33,107,-90,-21
-3,-52,-18,2,-94,7,-40,80,2,400
78,50,63,42,-79,-65,-60,0,-23,509
118,151,202,115,6,-104,-150,-176,-173,348
9,207,240,-30,-19,-139,-56,41,369,433
148,177,137,-58,-124,-213,-66,48,342,338
170,46,-22,-56,-162,-210,-111,2,61,5
-153,-144,-138,-92,-138,-100,20,173,-22,-528
-116,-20,7,17,-37,-12,15,68,-197,-698
54,13,19,-3,-40,-56,-59,-23,-159,-364
-106,-147,-135,-96,-55,23,87,181,98,-87
-135,14,-47,-61,30,110,161,198,197,-61
-22,-23,-112,-73,-21,46,82,114,103,-56
-38,-149,-155,-87,-63,8,59,91,43,-59
-66,-124,-97,-27,-36,13,43,41,3,-86
-98,-105,-50,24,-11,17,33,14,-11,-139
-132,-24,71,99,34,5,-5,-55,-80,-281
56,85,119,72,-1,-57,-83,-111,-105,-203
39,-9,-7,-37,-36,-39,-47,-28,19,-76
-57,-43,-18,-52,0,26,24,24,115,-37
-143,-107,-50,-17,40,90,91,89,73,-117
-149,-94,-33,9,37,65,59,65,65,-96
-9,-17,5,5,5,24,7,1,50,18
211,120,110,99,33,-17,-81,-171,-151,0
285,102,65,44,-20,-75,-116,-156,-29,228
164,82,65,45,2,-41,-68,-104,14,157
24,192,255,92,96,29,-11,-99,1,6
-83,140,245,-34,49,65,131,136,279,72
120,99,106,-18,-11,-2,44,37,81,117
152,-4,-34,-18,-34,-16,63,78,9,136
-99,-100,-67,26,39,78,131,100,-49,-110
-114,-116,-99,41,65,79,75,13,-132,-106
-7,-69,-49,17,28,7,29,-16,-158,-101
49,43,78,71,42,-12,-20,-103,-205,-86
-17,54,105,69,31,2,-16,-38,-51,24
35,-9,-13,-4,-31,-1,-10,1,-21,67
-16,-155,-140,-74,-34,34,20,32,-13,35
-75,-177,-165,-69,-29,42,0,14,-19,37
-5,-148,-192,-75,-54,-1,-18,18,30,151
64,-83,-208,-36,-46,-25,-32,-25,-61,105
-71,-33,-67,33,33,22,-30,-51,-145,-127
-83,47,88,44,61,38,-24,-40,-39,-111
29,53,70,44,33,20,-78,-89,-45,-34
11,4,38,45,-1,-6,-114,-81,-93,-73
-23,-30,19,26,-48,-34,-111,-22,-49,-65
131,8,2,-3,-74,-51,-133,-60,-4,110
99,-39,-76,-53,-80,-23,-106,1,100,218
43,-17,1,10,-49,-18,-122,-59,43,236
118,122,131,9,-21,-18,-60,-40,136,432
168,392,387,34,69,7,35,-12,314,667
102,267,253,-7,43,-16,53,21,291,953
-65,-162,-176,-145,-91,-31,28,182,320,960
-122,-229,-230,-117,-80,17,0,145,163,369
-2,-59,-51,11,-34,37,-83,-52,-125,-214
-21,13,58,96,19,56,-52,-147,-317,-663
-141,-72,-25,7,6,76,211,52,-84,-644
-103,26,61,57,65,58,319,73,28,-575
183,204,194,157,24,-79,102,-105,-123,-470
305,229,149,91,-29,-147,-40,-152,-100,-249
-3,-47,-87,-15,-9,-25,72,-11,19,-229
-207,-212,-225,-85,-9,55,183,112,86,-270
-200,-104,-110,1,34,59,119,23,-100,-411
-105,-36,-39,52,25,-12,7,-64,-167,-331
-86,110,148,77,46,1,-11,-45,18,-165
103,476,416,109,109,15,-25,-94,175,-15
255,154,36,-38,-23,-16,-24,-82,51,121
-78,-235,-207,-54,-1,129,92,13,11,-36
-267,-240,-172,-23,24,178,149,11,9,-189
-133,-145,-125,-40,10,104,54,-77,-39,-96
16,-147,-184,-129,-40,39,-59,-59,35,81
-59,-158,-149,-81,29,139,-45,-40,41,34
-60,16,92,28,97,162,-22,-115,-25,-17
13,32,8,53,25,27,-178,-258,-212,-12
-10,-83,-148,-89,-101,-72,-322,-80,-67,68
12,-152,-213,-209,-164,-132,-273,192,153,197
56,-124,-180,-142,-103,-153,-32,229,145,163
82,-36,-92,-29,-26,-164,160,171,72,100
52,-22,-88,4,8,-138,127,166,98,139
0,-38,-18,-13,7,-144,45,136,131,128
85,37,35,0,-5,-162,-6,44,56,98
220,114,59,47,5,-125,-44,-15,-52,111
192,97,93,82,74,22,-60,-80,-172,64
-156,-130,-43,14,126,180,29,13,-72,-55
-216,-114,-36,36,166,135,-2,-41,-107,-192
-61,26,82,94,166,-21,-189,-211,-241,-177
90,145,165,99,128,-83,-195,-199,-142,35
277,433,419,115,92,-134,-148,-157,75,253
132,332,331,-13,3,-137,-45,22,319,327
-94,-95,-96,-149,-125,-60,70,176,251,171
34,-102,-130,-90,-141,-62,47,22,-9,121
166,65,9,13,-103,-141,-6,-89,-66,186
57,-3,-64,-21,-98,-168,74,42,10,141
-120,-70,-81,-22,-35,-108,104,73,0,-7
-80,42,73,76,68,-41,27,-81,-142,-158
-68,119,209,194,170,87,-5,-167,-285,-297
13,83,92,112,88,132,46,-43,-157,-188
94,-14,-114,-93,-82,54,123,184,196,103
-20,-51,-58,-1,-12,100,197,126,95,-18
0,98,180,179,80,140,89,-151,-215,-154
19,121,165,168,45,66,-88,-247,-187,23
60,53,8,13,-86,-67,-165,-104,97,243
73,-36,-200,-225,-191,-40,30,193,327,258
-144,-220,-356,-210,-128,75,122,228,203,-3
-218,-237,-230,-110,-64,68,69,112,65,-97
-171,-200,-169,-118,-70,36,81,134,108,-31
-78,-87,-57,-63,-24,29,74,73,25,-107
-91,-42,-5,-12,5,23,45,9,-15,-143
-96,-26,5,-26,-4,16,24,6,0,-122
-37,118,89,-34,29,31,9,6,85,-63
-6,388,308,9,132,74,32,4,266,17
64,384,307,106,132,5,-64,-147,127,65
165,240,266,184,38,-120,-220,-300,-182,59
112,103,113,77,-16,-72,-121,-176,-209,0
9,-80,-82,-50,-42,-1,-17,-67,-127,25
-19,-135,-138,-84,-50,-4,-23,7,-29,150
-278,-243,-143,-54,13,91,90,162,73,13
-18,-21,29,-24,-20,31,15,57,-76,-105
217,48,12,-28,-57,-29,-83,-69,-197,17
-41,-177,-175,-113,-55,28,20,71,1,60
-134,-160,-133,-51,-4,58,40,81,-28,-39
-54,17,99,111,60,14,-142,-145,-231,-84
-101,2,84,83,46,-3,-172,-128,-189,-78
-143,-166,-187,-118,-56,-17,-87,54,-33,-10
-69,-100,-109,-184,-75,-7,-44,93,124,21
15,66,100,-138,-26,82,-54,71,207,94
3,-72,-73,-107,-62,64,-39,42,69,70
24,-83,-122,-99,-97,-14,98,46,46,50
31,-36,-77,-26,-43,-4,215,44,17,57
-7,-57,-44,6,6,43,195,88,30,37
-25,-54,-21,3,17,31,91,78,-5,-5
-3,-13,-33,-20,-9,-19,10,58,62,72
-11,116,150,6,40,0,0,28,145,139
49,66,97,50,43,15,-2,2,42,198
100,85,79,139,85,53,-2,-97,-179,127
-1,63,81,188,113,63,27,-105,-229,-44
2,85,117,151,91,60,54,-66,-186,-108
25,-23,-59,16,4,39,85,79,28,71
14,-110,-178,-77,-53,1,112,167,217,210
156,19,-50,-57,-62,-49,16,58,192,213
117,77,75,61,-6,-42,-69,-87,-68,-55
219,199,225,204,37,-45,-156,-289,-333,-91
114,100,55,86,-2,60,-40,-159,-188,-20
-219,-191,-200,-140,-79,188,182,179,131,-171
-201,-161,-162,-106,-40,162,128,94,-51,-347
-123,-73,-48,10,5,38,-66,-53,-154,-284
-44,10,11,23,4,-14,-109,-42,-43,-138
8,292,249,7,84,41,-19,13,195,115
16,361,336,44,138,63,84,10,244,296
-60,58,96,67,60,12,104,-20,12,146
-75,-130,-103,-25,-60,-101,0,16,48,146
44,-99,-108,-51,-103,-170,-88,16,76,166
59,-53,-92,0,-45,-124,-38,19,41,87
-19,-32,-15,85,33,-67,4,-31,-77,-106
16,124,201,150,97,-36,-20,-207,-209,-242
21,54,82,32,35,3,106,-40,-41,-160
-125,-108,-70,-41,3,74,241,168,138,-208
39,-27,-43,-33,12,61,230,56,-32,-294
73,-24,-59,-21,10,1,172,-24,-47,-179
80,-26,-45,-12,7,-34,53,-66,-28,-47
89,-22,-41,-12,7,-47,-146,-10,11,7
128,20,7,25,33,-56,-320,28,29,114
141,80,121,78,49,-89,-303,-73,-47,181
33,146,278,254,119,-88,-292,-289,-334,72
2,169,309,246,68,-141,-302,-300,-298,82
-13,-86,-91,-113,-136,-145,-92,113,262,316
171,-60,-131,-135,-112,-70,-56,34,89,121
119,-44,-74,-28,-17,-37,-95,-140,-170,-54
-139,-201,-172,-83,3,25,40,98,-8,-108
-174,-132,-85,-128,2,72,115,255,170,-102
-37,126,189,-87,29,101,83,209,241,-115
-57,47,83,-47,18,115,90,174,125,-53
-23,-94,-112,-50,-48,47,102,124,8,459
13,-116,-154,-82,-85,-23,74,108,44,559
-16,-142,-177,-122,-124,-94,-25,78,120,331
-4,-127,-146,-102,-123,-123,-97,38,140,131
7,-72,-69,-57,-68,-85,-95,16,120,-11
-22,49,99,61,44,-30,-64,-12,-6,-242
131,92,73,65,22,-50,-62,-19,-66,-52
58,-28,-93,11,0,-32,-54,3,49,265
0,-11,-138,42,21,-21,-75,-68,23,327
-61,-71,-203,-10,30,51,88,55,28,246
-228,-164,-211,-38,48,101,187,101,7,-82
-204,-156,-134,-65,19,72,192,132,64,-320
-67,148,184,35,126,98,158,45,-51,-633
-62,347,424,148,229,153,116,-38,-125,-769
-144,93,205,168,153,131,55,-63,-226,-685
2,84,142,127,51,40,-57,-141,-210,-337
288,224,178,124,9,-49,-186,-315,-323,-71
265,53,-57,-12,-54,-77,-117,-174,-132,187
-217,-262,-257,-158,-54,81,165,253,253,101
-153,-102,-91,-94,-15,69,102,146,153,-69
27,86,61,-62,29,38,26,33,102,-66
-9,-27,-88,-21,7,-2,12,0,-6,-89
8,-7,-52,35,7,-46,-21,-21,-22,-90
-20,6,36,86,33,-25,-42,-75,-32,-49
-96,-47,11,52,23,15,-9,-38,44,8
-53,-35,-81,12,-11,19,18,38,34,-58
-47,-39,-118,-16,-40,4,35,80,61,-4
26,32,22,-25,-34,-10,3,31,135,169
82,10,-2,-49,-64,-48,-59,-4,95,222
37,-48,-45,-49,-69,-61,-129,-30,55,206
1,-16,24,7,-24,-59,-228,-135,-93,139
-34,-20,-33,37,-12,-34,-246,-131,-136,75
-2,-74,-117,-39,-54,-17,-231,-85,-56,175
-52,-178,-187,-123,-89,15,-183,-21,30,157
-31,-127,-56,-126,-86,-4,-139,-26,7,-44
152,190,274,-27,-16,-29,-26,-122,-1,-80
203,324,437,130,82,-11,-9,-222,-125,20
201,212,297,212,100,0,-25,-250,-313,51
202,97,144,135,46,17,-6,-72,-130,172
-96,-80,1,55,65,162,221,237,132,-2
-219,-148,-66,22,54,176,414,238,44,-360
-80,-169,-136,-57,-42,74,406,208,68,-181
67,-74,-41,-38,-35,68,285,164,40,-17
90,-3,41,57,9,40,129,59,-53,23
116,-10,5,40,-24,-1,58,56,-21,68
65,-81,-73,-52,-61,-4,97,143,78,59
60,-31,-16,-15,-33,-42,37,34,-13,-29
20,13,26,32,-1,-73,-65,-69,-71,-39
-126,-103,-63,-20,-21,-68,-21,59,81,23
-67,-110,-105,-77,-54,-96,7,95,75,22
15,-16,-37,-47,-29,-85,5,47,-13,-38
33,-4,-9,2,-5,-40,11,53,-30,-45
51,33,24,27,3,-29,-11,44,-19,12
-62,-12,-17,34,11,-10,-13,57,16,-6
-71,39,69,100,32,-22,-57,-37,-44,-33
104,175,154,139,43,-43,-135,-163,-149,0
155,130,97,79,-4,-75,-185,-168,-90,94
76,244,236,58,76,-1,-129,-136,25,106
73,341,318,0,94,21,-99,-19,336,369
-72,-6,1,-109,8,45,41,227,416,277
-20,-8,11,19,14,10,-7,-7,-77,-55
24,19,-16,11,-51,-56,-34,-63,-91,-19
-68,-132,-197,-75,-83,-5,157,124,119,5
-112,-192,-254,-86,-45,60,248,151,109,21
-103,-94,-135,-47,7,120,227,156,47,-83
-71,9,-5,8,56,106,149,97,10,-84
-3,8,1,30,30,43,13,-86,-84,17
22,18,17,49,4,13,-41,-199,-123,92
-95,-67,-23,28,-10,29,49,-110,-107,23
15,-34,-28,0,-28,37,95,-84,-161,10
-51,-109,-93,-59,-30,71,208,78,0,62
-93,-138,-121,-82,-30,38,221,156,26,-24
-51,121,110,-27,59,36,47,127,123,-53
-3,300,278,68,137,21,-221,41,157,-3
74,95,115,120,47,-94,-376,-110,-77,56
173,13,-27,19,-36,-164,-315,-98,-68,175
-2,-134,-155,-72,-59,-63,-122,65,29,70
2,-30,-13,41,0,-21,-106,-3,-150,-144
168,154,138,152,14,-106,-240,-185,-297,-149
243,216,144,52,-1,-145,-246,-139,-96,86
10,112,34,-43,45,-40,-103,49,163,154
-101,-180,-200,-103,-19,-9,-47,129,55,81
-90,-190,-175,-82,5,45,21,147,10,-23
-95,-138,-126,-44,17,74,68,112,-15,-124
-69,-93,-99,1,-5,35,48,36,-84,-189
-65,-97,-80,-6,-28,2,-15,-9,-64,-124
-30,-77,-52,-39,-40,22,-39,-27,-15,-85
38,3,17,-37,-35,66,-38,-75,-40,-99
0,-39,-45,-47,-63,52,4,-22,-50,-104
-22,4,24,44,-1,8,10,-70,-183,-182
-39,79,135,151,93,1,-13,-157,-284,-198
-177,-75,-20,28,48,42,149,58,-15,-21
-73,-100,-110,-79,-35,49,208,168,141,136
36,-9,-46,-30,-47,34,135,13,-16,108
30,89,95,42,-9,-3,51,-53,-25,111
84,359,364,106,75,-14,-32,-136,40,106
111,378,270,160,113,-36,-95,-279,-120,23
-100,45,-9,131,73,-8,-31,-197,-214,-76
-118,-194,-189,-93,-82,-15,108,119,150,150
-91,-217,-244,-164,-128,15,171,238,190,-68
-43,-67,-50,-20,-43,11,48,-20,-149,-232
-59,-90,-133,-61,-75,-45,3,14,34,-36
30,24,-27,-46,-71,-76,-47,-25,75,0
132,50,37,-22,-71,-70,-62,-57,23,41
56,-51,-48,-55,-51,0,45,24,34,34
27,-11,9,11,-12,9,32,-10,-16,-5
14,78,140,169,107,30,-48,-182,-195,-104
-67,-30,-44,87,62,5,-38,-93,-63,-38
-41,-154,-268,-179,-108,0,139,196,205,46
-16,-95,-179,-136,-59,40,145,122,72,-28
45,-40,-46,-76,-36,34,62,46,50,41
53,-28,4,-6,-27,17,13,12,-27,-10
35,51,86,67,27,-4,-12,-57,-109,-88
-5,-8,-2,0,-5,-31,-29,-26,-68,-55
-137,-158,-188,-77,-23,-13,-2,75,7,-90
-137,-182,-155,-81,-21,-51,-48,39,9,-59
30,-38,-17,-34,-36,-121,-148,-77,-27,27
-41,153,138,-47,41,-8,-66,-2,195,34
5,378,357,8,110,109,-41,-35,289,61
180,277,247,39,-1,7,-91,-126,25,95
93,-45,-45,-33,-53,4,148,7,-43,72
-55,-207,-151,-71,-37,34,276,119,50,67
3,-182,-196,-85,-67,-19,133,107,105,180
101,-68,-206,-27,-53,-56,-25,7,39,191
83,26,-113,30,9,-32,-88,-48,-17,104
-59,-31,-131,20,71,98,26,54,-33,-36
-44,-87,-84,9,54,82,41,69,-51,-27
25,-54,-3,-8,1,-33,-38,14,-7,53
16,-53,17,16,2,-99,-45,-13,14,48
-26,-30,65,80,44,-54,-19,-59,-76,-33
-1,80,188,199,132,54,-83,-219,-302,-151
88,155,253,226,191,167,-257,-364,-439,-131
43,41,101,-72,67,173,-245,-19,112,148
-107,-32,43,-137,73,130,-232,67,171,-110
-118,-41,44,46,156,109,-266,-145,-280,-407
-35,-2,81,102,86,10,-306,-169,-238,-188
-18,-24,39,62,-61,-131,-279,-54,-40,36
-35,34,88,86,-64,-156,-88,-121,-166,-62
99,47,26,-11,-140,-156,215,-54,-84,59
143,64,-1,-79,-168,-159,372,101,87,143
29,42,41,-67,-126,-139,316,147,175,86
-106,-123,-129,-100,-137,-138,206,192,235,94
-110,-107,-117,-80,-99,-77,178,185,230,73
67,-6,-35,-31,-101,-110,54,48,151,112
118,66,56,25,-51,-85,-17,-51,27,132
-25,25,49,39,2,6,67,37,71,71
-22,-23,-29,-28,-16,24,90,109,166,82
109,78,39,-50,-29,-8,14,23,155,164
145,108,78,-7,-34,-48,-56,-84,48,120
43,77,80,61,-15,-73,-100,-107,-42,-15
76,182,221,151,32,-84,-186,-223,-157,-113
64,132,161,54,-7,-44,-66,-54,-32,-57
-14,-65,-79,-92,-65,39,137,190,129,-22
-95,-172,-165,-93,-24,82,149,135,38,-127
-71,-22,3,-51,38,67,62,15,54,-71
149,430,403,37,122,34,-38,-87,205,89
13,249,247,-32,71,29,33,70,219,16
-175,-143,-87,-65,9,63,103,119,-8,-100
-99,-90,-42,33,55,73,15,-44,-219,-57
-74,-32,40,110,79,59,-37,-95,-311,-95
97,34,56,103,13,-48,-155,-173,-216,136
46,-73,-98,-41,-42,-10,-45,53,168,334
-127,-95,-109,-63,11,81,45,109,142,5
-89,-149,-174,-117,-59,6,0,60,43,-122
52,-118,-173,-128,-108,-31,-22,40,15,-71
7,-122,-152,-90,-72,0,2,47,8,-82
-51,-122,-139,-67,-70,-21,9,53,38,-88
16,-65,-115,-66,-76,-69,-19,11,36,-25
30,-8,-61,-9,-27,-44,-18,-21,-26,-22
101,113,59,39,14,-30,-30,-47,2,41
180,100,19,-22,-34,-28,19,-20,105,172
238,41,-29,-22,-51,-46,28,-103,15,159
79,-1,27,61,42,38,88,-169,-162,-55
-94,-28,69,100,99,132,172,-115,-215,-203
48,-8,-14,-22,-30,4,119,-23,4,46
64,-55,-120,-120,-114,-50,93,71,192,142
-1,-55,-81,-67,-53,-4,-8,125,149,33
-114,57,158,28,92,69,-124,169,216,-14
-149,160,314,102,187,87,-148,74,158,-55
-81,16,73,34,64,10,-133,56,51,-33
39,9,-16,34,18,-12,-94,5,-45,-9
72,66,50,80,51,22,-75,-78,-164,-23
-36,-1,-7,43,33,37,-14,-21,-52,-19
-11,18,-21,67,34,4,-57,-103,-117,-56
33,155,47,131,70,-16,-106,-176,-137,17
52,167,79,105,84,4,-48,-139,-111,85
-123,-90,-87,42,94,59,35,-14,-21,76
-17,-103,-126,-3,34,-24,-38,-10,28,128
128,50,31,44,29,-124,-165,-145,-107,115
53,-32,-30,-7,-7,-120,-178,-29,115,309
108,86,49,58,-11,-121,-285,-132,52,214
283,281,171,84,-24,-153,-355,-273,-219,-67
-54,119,141,-27,46,73,-24,27,-108,-395
-274,-105,-16,-11,56,185,134,97,-137,-424
-233,-179,-195,-90,-34,127,151,186,31,-240
-200,-222,-396,-162,-100,41,262,255,88,-285
-131,-200,-371,-144,-91,7,342,240,148,-126
6,-69,-131,-55,-50,-19,195,92,48,-45
120,38,50,2,-27,-27,38,-40,-118,-24
175,149,134,-57,-30,-43,-6,-28,28,217
78,173,124,-170,-48,-1,108,153,396,440
-85,-71,-132,-100,-67,35,131,157,205,165
-107,-99,-66,0,-10,59,111,107,-9,-94
67,44,85,84,37,10,20,-91,-244,-185
98,62,82,65,25,-29,-19,-118,-220,-112
17,4,24,21,48,27,64,34,-40,-73
-3,-11,58,65,118,94,65,-14,-45,-17
20,56,126,91,140,117,12,-118,-77,240
1,-50,24,41,64,120,38,-38,-105,709
-182,-190,-76,21,50,152,77,84,-60,611
-243,-183,-75,22,39,144,13,38,25,337
-47,-68,-35,-21,-30,96,-22,19,76,129
117,45,29,-17,-65,41,-105,-77,5,-86
28,71,42,51,-17,12,-154,-169,-146,-402
-118,147,84,33,62,48,6,-71,-67,-492
-185,338,318,-11,148,86,155,90,244,-161
-35,293,223,31,89,-35,26,-51,28,-187
141,50,-79,-55,-100,-160,-63,-66,-65,-119
27,-193,-259,-252,-207,-120,90,240,252,-29
-53,-194,-158,-169,-116,-24,102,170,106,-228
6,-103,-115,-64,-53,-18,-2,24,0,-240
34,-66,-165,-43,-29,4,-54,31,98,-88
70,22,-36,-5,12,59,-69,15,148,104
100,26,81,44,42,93,-102,-20,108,174
159,145,221,163,102,98,-182,-141,-20,94
307,288,321,282,152,52,-249,-410,-384,-28
132,48,44,83,40,8,-141,-322,-352,-75
-340,-263,-184,-115,-40,28,203,108,-20,-497
-321,-200,-131,-90,-43,-27,307,137,-140,-751
-157,-80,-89,-93,-65,-97,155,136,-34,-487
-125,-40,-9,-22,-12,-84,24,100,-5,-311
-97,-41,-64,52,15,-88,-75,-27,-116,-188
-44,-34,-62,55,-7,-82,-69,-49,-104,-63
-74,-70,-3,7,-46,-28,18,21,-11,-23
-7,-47,6,-39,-89,6,33,-6,-29,0
111,-11,-10,-81,-141,4,11,-8,-53,90
-28,-54,-8,-86,-87,2,62,111,35,75
-20,204,269,-6,70,-4,27,109,166,147
-39,290,364,36,112,6,-44,37,199,187
-107,-11,41,-50,-17,-5,-69,83,180,175
0,-103,-106,-126,-108,-33,-97,102,130,125
68,-56,-52,-51,-76,-43,-128,-58,-114,-54
7,-48,-12,17,-56,-46,-109,-163,-170,-64
-119,-140,-101,-69,-90,21,57,18,61,74
-111,-78,-151,-78,-20,201,166,53,48,33
131,29,-107,-28,-1,181,34,-173,-173,63
151,-9,-41,-39,4,83,9,-198,-176,109
17,-94,-106,-74,48,61,-14,-66,-65,85
-103,-165,-215,-30,111,-5,-201,52,13,32
-26,-123,-170,20,47,-157,-250,101,99,112
59,-41,-19,44,-17,-196,-160,68,10,48
12,31,93,75,34,-69,-67,26,-86,-86
8,156,160,27,47,-15,46,103,109,7
31,22,-20,21,-26,-60,63,110,47,32
79,-2,-1,25,-45,-84,14,76,7,70
70,-31,-12,0,-48,-72,-10,81,72,156
44,-41,11,-9,-39,-43,-25,52,77,159
161,93,137,43,-44,-93,-109,-98,-48,143
247,160,164,62,-63,-94,-124,-147,-66,213
91,313,377,175,85,1,-111,-216,-65,77
111,500,457,162,141,36,-68,-182,71,150
52,50,-12,-43,-45,36,76,112,162,177
-113,-215,-208,-141,-92,96,223,287,160,26
-113,-188,-176,-139,-117,74,200,241,163,60
-20,-83,-97,-86,-109,-18,69,83,115,125
143,42,-11,5,-28,-121,-108,-99,39,191
168,84,8,30,60,-113,-98,-127,-16,166
-83,-85,-122,-44,88,21,97,74,48,19
-186,-183,-181,-26,95,87,164,132,-18,-140
-111,-133,-143,-19,67,70,109,101,-53,-122
-11,-30,-45,7,27,34,42,50,-80,-95
6,6,-11,22,8,4,-6,9,-58,-62
26,77,73,105,48,-20,-108,-143,-158,-75
10,99,155,155,88,-13,-146,-220,-235,-117
21,187,262,105,97,11,-82,-135,-102,-63
51,266,342,-4,86,15,-31,-6,85,67
-115,-20,34,-88,18,-15,-47,129,156,66
-46,-120,-149,-47,-31,-74,-154,33,-46,-36
-25,-38,-46,107,61,-21,-205,-162,-358,-280
8,22,80,109,32,-59,-276,-233,-307,-143
70,6,34,37,-37,-28,-220,-145,-167,21
277,174,172,106,-9,-35,-192,-213,-216,165
211,90,8,-71,-75,-41,109,65,93,225
-79,-245,-310,-152,-34,65,343,201,36,8
-331,-337,-329,-31,123,151,313,148,-73,-107
-291,-268,-286,-26,77,41,143,169,112,20
28,-95,-145,-76,-52,-40,25,130,111,44
123,3,-37,-53,-64,-19,29,16,-20,2
78,-29,-48,-80,-101,-16,103,69,140,145
16,-45,-58,-148,-136,-22,146,196,356,239
-7,-72,-69,-128,-120,-27,114,169,299,243
9,-86,-62,-78,-65,-7,80,133,212,265
36,-21,-40,-1,3,42,79,88,109,188
73,49,-85,74,47,88,79,-2,-4,102
74,76,-36,82,43,114,46,-50,-40,41
83,95,91,72,31,68,-22,-123,-87,7
2,99,133,46,56,49,-26,-101,-39,-131
-115,325,369,79,199,128,77,-9,77,-347
-192,298,372,93,215,166,132,36,76,-407
-59,53,116,56,63,52,87,0,-107,-378
-1,-64,-38,-13,-43,-50,86,52,-78,-214
-118,-145,-84,-40,-50,-66,73,110,-15,-95
-131,-164,-97,-47,-63,-57,21,55,-16,-10
-52,-123,-97,-49,-100,-61,-12,20,5,72
-9,-24,-28,-50,-83,-36,46,92,94,49
-15,-17,13,6,-33,-24,43,67,-23,-94
-24,20,61,90,12,-32,-57,-88,-221,-195
-91,13,76,153,72,1,-107,-190,-387,-315
-96,-77,-22,53,26,-13,-73,-107,-220,-117
-22,-42,-13,48,13,-6,-28,-58,-185,-106
-104,-61,1,49,21,25,36,16,-107,-131
-24,57,102,64,5,-60,-64,-78,-97,-25
134,131,36,-31,-59,-134,-132,-42,92,189
118,29,-52,16,-17,-79,-109,-71,-32,86
-52,-85,-63,-20,6,7,-11,23,-12,-4
-16,-68,-36,-16,-9,-14,-120,-16,-10,-2
33,-52,-62,-25,-31,-30,-244,-60,-46,-34
4,-74,-93,-66,-40,-18,-281,-33,-27,-21
53,-23,-42,-53,-38,-25,-284,-44,8,53
-35,70,109,-19,32,43,-163,37,105,-7
-88,129,200,44,82,83,-128,28,121,-39
-35,-31,-30,37,5,42,-48,4,24,38
36,-38,-32,25,-19,24,217,-59,-21,129
181,24,-2,-4,-80,-63,329,-125,-30,180
120,12,5,1,-70,-57,280,-34,20,156
-78,-70,-19,9,-25,17,263,136,22,49
-132,-152,-118,-87,-58,39,361,257,176,239
-49,-117,-107,-125,-77,15,359,195,202,327
-15,-73,-76,-51,-41,42,298,38,9,61
68,10,-58,14,-25,82,264,-33,-61,-45
122,101,31,90,0,90,179,-97,-112,-122
122,146,161,110,7,99,-98,-108,-123,-205
23,118,163,115,53,82,-442,-85,-99,-295
10,69,76,58,71,18,-540,-137,-99,-286
-17,88,77,-43,73,20,-416,0,183,-114
201,352,294,-28,87,42,-382,-51,223,42
125,145,107,-29,1,-38,-337,-89,121,70
-139,-148,-134,-44,-30,-45,56,39,54,-80
-190,-172,-144,-24,2,-19,423,153,84,-90
-76,-126,-122,-15,-11,-65,370,123,-17,-91
37,-69,-83,-16,-34,-138,127,130,17,122
65,22,25,27,7,-114,-11,90,51,245
165,79,14,0,-14,-113,-75,12,64,330
111,-22,-87,-21,-52,-106,-56,3,-42,147
36,-45,-49,-27,-50,-76,-33,52,-18,65
-21,-102,-72,-13,1,-18,-1,18,-73,54
-32,-115,-99,-15,-6,0,22,49,-60,77
-42,-86,-59,-13,-3,25,73,104,-8,0
-61,-23,9,23,10,-6,-7,-3,-89,-75
15,92,85,6,-9,-60,-82,-47,5,85
86,62,22,-29,-41,-73,-76,-24,14,141
-24,-33,-41,-7,-7,-2,-18,11,-26,-1
-41,-56,-20,42,28,21,-4,-33,-104,-102
-15,-47,-32,26,27,2,-19,-39,-103,-101
-51,-78,-54,3,3,1,4,44,-2,-160
-43,-24,15,59,30,-1,-40,-28,-90,-300
-4,121,122,73,70,10,-46,-85,-70,-239
48,370,293,26,116,35,58,-44,191,20
16,263,204,4,95,47,105,7,234,138
51,55,28,38,-5,-43,-36,-94,-59,43
76,14,-44,8,-89,-124,-132,-102,-53,72
54,-1,-31,-17,-86,-86,-81,-33,25,107
-71,-82,-91,-32,-61,-36,18,56,71,51
-65,-126,-164,-96,-92,-27,73,121,124,52
51,-17,-60,-50,-38,-4,46,-6,-29,93
-1,-39,-92,10,4,1,7,-66,-68,51
-76,-148,-214,-64,-52,-8,27,52,105,64
-74,-144,-181,-88,-68,21,58,82,130,106
-25,-72,-85,-25,-33,29,46,30,29,51
-10,-22,-1,43,11,68,48,16,-76,-75
-39,8,-24,84,38,126,37,-5,-92,-127
28,169,156,177,123,122,-60,-159,-194,-138
-108,178,329,233,215,134,-88,-208,-213,-190
-118,53,193,203,126,14,-141,-194,-245,-206
84,143,174,153,44,-74,-195,-253,-293,-49
-98,-114,-100,-57,-27,-23,-23,47,157,242
71,-150,-233,-182,-121,-103,-7,148,235,252
50,-146,-195,-158,-107,-85,-18,134,177,203
3,-95,-96,-76,-51,-7,5,74,72,103
48,131,131,-47,0,85,76,107,123,61
80,201,203,-39,-3,49,55,63,95,61
53,-8,1,-34,-47,-30,25,8,-73,-36
-91,-128,-82,-38,-30,-24,81,49,-46,-113
-98,-108,-59,-6,-3,-8,75,20,-64,-147
-21,-47,-10,27,8,6,12,-56,-116,-99
17,-100,-132,-108,-117,-36,-3,73,128,105
44,-48,-97,-132,-138,-54,-17,86,199,160
7,-21,-47,-40,-53,-20,-36,28,93,126
-3,-48,-40,13,13,36,-1,33,38,108
28,22,32,50,41,63,-6,-9,7,98
34,3,18,14,20,40,-55,-20,-48,72
56,-22,-1,-5,18,8,-52,-1,-4,92
116,6,21,14,23,-24,-39,-11,20,117
39,15,43,28,39,-11,32,45,99,39
64,283,239,30,124,63,104,78,236,12
73,503,443,132,231,101,38,-64,161,-78
228,453,432,273,187,-20,-227,-409,-208,-49
354,298,251,202,53,-94,-288,-415,-238,158
-77,-86,-60,9,-16,17,14,25,-113,-178
-357,-313,-216,-88,-16,94,184,217,-93,-388
-286,-278,-225,-104,-33,63,147,161,-24,-241
-79,-71,-116,-61,-19,26,72,48,-25,-82
55,69,-66,5,-3,-35,-27,-85,-70,-3
127,23,-168,-37,-83,-150,-108,-108,-83,54
-10,-116,-282,-121,-80,-52,30,65,18,19
-272,-261,-246,-112,29,158,172,111,-20,-212
-291,-235,-115,-52,113,233,65,-75,-216,-322
-168,-227,-154,-104,58,83,-103,-170,-118,-88
-22,-147,-206,-155,21,28,-97,-95,23,37
-164,-158,-117,-110,74,126,9,30,116,13
-46,-91,-34,-52,9,44,25,97,178,75
170,92,114,72,-44,-111,-4,72,94,114
188,133,141,113,-55,-134,144,63,57,125
81,84,85,80,-48,-77,216,62,46,46
0,29,36,34,-67,-6,111,63,82,-4
57,52,68,37,-62,30,-14,16,51,-17
115,172,187,46,-30,13,-29,-34,77,244
142,334,385,27,-6,5,-69,0,250,699
50,171,227,-35,-55,10,-185,58,314,783
71,-38,-52,-77,-124,-9,-203,-29,174,1018
86,-72,-160,-71,-118,-27,33,-66,91,1206
39,-84,-92,-29,-92,-80,180,-64,5,738
38,-63,-65,-21,-91,-134,148,9,-1,26
-22,17,2,40,3,-60,160,108,-12,-725
-70,102,149,131,105,18,142,92,-27,-821
-140,87,205,253,160,64,76,-28,-218,-824
-140,139,245,320,197,83,15,-106,-373,-981
-42,97,133,161,96,45,48,8,-135,-679
45,-13,-33,3,6,20,80,58,-62,-414
-22,-111,-107,-41,-23,33,92,78,16,-311
23,-34,-30,7,7,4,6,-15,-74,-365
122,193,199,101,94,-19,-96,-171,-105,-230
-82,105,149,30,67,11,-20,34,118,-86
-81,1,-23,15,4,10,7,103,-1,-149
39,-14,-162,-15,-19,-26,-70,18,-54,-5
-16,-203,-306,-163,-81,-16,3,141,100,114
-87,-192,-164,-104,-40,5,41,121,55,28
-52,-98,-59,-80,-58,-18,13,73,68,24
-8,-8,-6,-84,-65,-5,1,23,108,-38
51,317,268,-18,58,36,-8,-90,143,-79
60,293,265,37,92,41,-12,-129,57,-65
-70,-34,12,26,32,57,23,4,-16,-55
-27,-10,39,68,17,13,-34,-39,-86,49
149,68,71,65,-15,-63,-147,-159,-119,211
148,123,155,150,73,-3,-179,-273,-192,156
34,46,94,111,93,53,-57,-137,-148,60
-127,-116,-128,-75,11,66,135,183,54,-44
-120,-136,-159,-116,-17,62,143,239,130,-73
66,-61,-38,-44,-36,-19,5,47,-48,-115
189,68,78,31,-45,-126,-178,-125,-104,8
272,201,192,129,10,-122,-243,-264,-240,59
-56,-7,14,88,85,39,-50,-107,-173,-51
-372,-313,-250,-124,-3,116,184,222,100,-176
-139,-208,-198,-164,-77,21,95,161,72,-96
-71,23,75,-100,-12,21,28,86,112,-2
-9,105,178,-83,16,26,25,89,164,86
62,-38,-13,-79,-29,4,-10,64,41,95
25,-123,-126,-56,-39,-10,-34,20,-49,62
-56,-121,-107,-20,-3,0,-35,14,-80,-6
-62,-136,-121,-45,-17,8,-21,40,-21,37
-47,-154,-126,-49,-25,52,-20,21,10,75
-29,-81,-26,-23,0,60,-44,-27,-27,61
74,-21,-2,-29,-34,-32,-102,-60,-22,156
128,6,-17,0,-32,-101,-173,-104,-62,191
4,-32,-3,34,0,-90,-168,-118,-78,86
-39,-32,6,39,-1,-72,-124,-127,-115,-58
-1,-2,26,55,14,-25,-64,-102,-229,-156
-39,-69,-34,29,36,-8,-24,-15,-182,-106
-41,-128,-127,-76,-18,-55,9,115,82,127
-44,-35,-64,-38,42,-23,63,128,72,70
27,72,121,137,105,-51,-52,-101,-184,-28
227,148,150,98,25,-124,-88,-131,-127,153
154,-60,-133,-117,-80,-56,95,155,227,306
22,-114,-178,-73,-40,3,95,69,61,91
-99,-136,-195,-97,-56,10,86,107,138,55
-46,-88,-222,-111,-74,43,123,150,156,3
2,-27,-95,-61,-43,-7,-36,5,0,6
-118,-104,-82,-53,0,37,18,43,-26,-113
-167,-109,-71,-15,20,11,8,1,-81,-199
-20,-8,-30,-25,-21,-54,-12,-38,-80,-45
-29,38,-39,-27,-10,-7,24,13,44,54
-38,-37,-145,-38,-25,-15,-36,7,33,33
19,-30,-59,-39,-27,-37,-84,-39,-10,41
15,-40,-60,-64,-42,-22,-61,-28,15,98
10,-53,-52,-64,-60,-20,-47,-45,14,123
23,-46,-20,-42,-46,52,1,-70,2,85
41,-1,41,28,25,90,79,-100,-26,7
132,266,284,159,115,24,165,-209,6,5
243,374,363,197,114,-22,190,-222,-2,90
94,76,79,85,54,36,89,65,1,380
-68,-109,-89,-21,11,55,-26,228,152,755
135,28,28,28,-9,-82,-217,-58,113,1118
227,97,99,68,-10,-133,-272,-235,37,961
18,-13,5,9,-50,-131,-166,-67,116,461
-93,-21,4,-8,-25,-44,-37,56,132,-27
-21,191,265,28,66,41,54,81,92,-492
-116,109,182,43,70,64,92,131,6,-917
-247,-56,-28,27,53,116,157,208,-98,-1250
-122,-50,-91,4,28,91,78,98,-212,-1090
-76,-62,-84,22,39,59,-36,-20,-265,-747
-145,-95,-61,22,49,63,-47,-41,-227,-518
-158,-181,-191,-102,-51,17,-3,114,60,-200
-104,-117,-147,-121,-55,10,-21,105,129,-114
39,-10,-52,-63,-43,-41,-103,-41,-39,-161
84,-7,-43,-47,-65,-82,-78,-72,-57,-118
-1,-50,-42,-25,-34,-12,109,61,1,-124
-44,-34,8,43,60,75,118,46,-107,-182
-110,-23,61,124,136,123,19,-51,-218,-217
-127,-80,-44,20,65,110,-10,23,12,39
59,26,-19,-42,-2,36,-81,7,94,120
232,380,319,26,86,10,-110,-124,18,61
135,372,331,44,143,37,-4,-59,111,153
37,96,74,44,80,-3,67,-83,-66,41
-53,-21,-15,63,62,39,194,-63,-172,-106
-69,-40,-45,28,5,11,198,-14,-94,14
-1,-44,-113,-58,-76,-68,88,57,62,202
-10,-29,-95,-37,-95,-114,2,1,-15,109
-40,35,20,19,-47,-90,-31,-84,-70,33
24,15,-69,-14,-83,-115,-77,-43,33,178
27,-40,-178,-39,-96,-156,-89,-8,54,133
-102,-85,-106,-27,-49,-71,-3,9,19,-55
-167,-114,-75,0,-14,28,43,22,29,-64
-52,-78,-57,0,-34,32,-53,2,47,36
28,-29,-14,10,-38,54,-133,-7,45,67
20,34,48,25,-7,68,-66,-27,1,-12
-45,38,59,4,2,90,194,8,39,-32
-61,-36,-9,-11,-19,90,292,31,20,10
-31,-35,-26,-19,-35,37,147,11,3,56
-45,-63,-57,-31,-53,-27,11,-20,-1,97
41,-11,-60,-37,-71,-62,-23,-37,78,264
221,114,65,7,-59,-129,-92,-119,56,527
205,144,135,91,11,-119,-154,-205,-41,618
110,213,179,2,68,-54,-37,-36,184,429
99,381,280,-50,94,-8,53,67,439,227
-54,169,70,6,90,59,118,73,206,-259
-87,40,-10,104,81,38,54,-36,-154,-629
0,12,-23,8,-12,-33,38,67,19,-418
-30,-41,-67,-22,-31,-31,53,115,96,-214
-49,-43,-23,2,-13,-24,28,58,37,-168
-132,-98,-64,-4,-9,-11,20,44,40,-127
-122,-134,-125,-80,-57,-25,18,92,175,31
82,-42,-82,-41,-69,-35,-31,4,3,-27
150,43,4,36,-19,-2,-70,-96,-161,-76
29,5,18,68,30,31,-32,-77,-180,-103
-93,-54,-6,67,58,27,-23,5,-144,-152
33,-29,-50,16,17,-47,-73,0,-64,-24
33,-92,-188,-33,4,-35,-8,79,58,98
86,68,66,12,47,-9,8,33,34,87
128,61,120,19,8,-31,-10,11,6,156
81,-35,1,13,-33,-17,-16,13,9,154
106,-26,-20,11,-37,2,-18,-6,13,178
12,-76,-36,-16,-40,41,35,61,45,164
-168,-165,-88,-11,-20,101,100,110,-44,-36
-52,-69,0,32,-5,54,12,-2,-85,47
35,90,133,74,49,30,-12,-61,-99,141
-12,194,252,12,91,61,35,61,177,182
-67,15,57,-12,35,-6,-15,34,102,14
-45,-100,-72,-14,-26,-89,-63,-23,-2,-78
38,-15,-41,-1,-52,-132,-109,-70,-14,-65
137,2,-64,-79,-114,-160,-87,-3,83,43
174,38,-11,-48,-64,-120,-87,-45,34,73
124,69,63,42,9,-51,-93,-100,-20,74
13,44,63,39,74,77,32,43,-23,4
-105,-84,-55,-23,46,122,119,158,-12,-118
-65,-60,-30,-1,8,56,38,62,-103,-190
-5,-57,-41,-27,-26,-15,-60,20,-40,-75
-172,-163,-117,-66,-21,30,-20,78,81,-45
-34,-51,-65,-35,-14,46,-43,-77,-121,-83
35,-28,-74,-47,-31,49,-24,-83,-173,-101
24,31,-6,-56,-32,76,26,-44,-80,-70
-57,299,278,-20,92,143,135,-14,162,-19
-146,246,246,4,127,155,290,64,192,-66
-6,-7,-62,-13,4,33,239,106,44,15
32,-95,-116,-12,-40,-29,25,169,105,103
-14,-92,-67,25,-19,-67,-103,89,82,61
48,-35,-23,14,-39,-112,-163,-14,30,102
66,-3,11,21,-23,-81,-121,-36,49,175
93,150,169,131,69,-35,-129,-178,-105,61
113,112,123,98,40,-67,-133,-176,-153,23
-23,-62,-47,-15,-16,-16,17,59,14,-25
-6,-23,-35,12,20,27,49,2,-50,-57
52,2,-7,8,13,3,31,-11,-43,-8
23,0,17,42,20,-4,1,-47,-78,-21
-66,-14,16,48,13,4,6,-46,-34,13
-26,-31,-49,-56,-41,2,41,49,148,171
96,-24,-37,-68,-35,19,35,15,39,126
73,-66,-63,-48,-38,-3,-5,6,24,98
41,-13,-18,9,-9,-14,-3,-5,44,115
-25,-82,-80,-37,-16,23,85,50,32,77
-16,-89,-112,-75,-47,3,65,52,60,143
63,-11,-28,-38,-34,-15,-2,-17,49,466
118,39,-24,3,0,-13,-21,-56,17,810
34,97,3,-26,35,20,21,30,132,628
10,186,154,-13,61,47,-4,30,164,273
38,84,140,26,27,1,-123,-77,-30,-71
77,-34,-4,-4,-49,-47,-163,-76,-64,139
72,-72,-45,-51,-62,-45,-108,-16,0,417
-52,-94,-8,14,7,-10,-122,-86,-129,-6
-161,-113,1,61,42,9,-69,-79,-158,-472
-29,-14,45,19,5,-3,80,0,-87,-482
-37,46,107,74,45,6,45,-57,-103,-445
-87,-5,34,84,55,-3,-94,-74,-117,-456
-138,-88,-79,2,28,-2,-103,35,-23,-464
42,0,2,4,-5,-53,-170,-71,-169,-438
0,-61,-60,-34,-43,-44,-80,-17,-53,-261
-61,-179,-174,-134,-89,-20,88,159,197,-102
61,-52,-57,-65,-65,-58,64,36,47,-244
1,18,31,-16,-7,-15,138,19,22,-282
27,36,67,55,40,17,193,-28,-71,-202
85,68,87,89,50,2,132,-71,-147,-144
27,18,28,21,17,-6,89,-40,-145,-130
-71,-67,-49,-38,-3,4,108,69,-107,-128
-43,-50,-27,-20,6,2,69,54,-65,16
-29,-56,-29,-29,-18,6,59,85,22,153
9,53,47,-21,14,29,37,62,92,126
63,392,354,54,137,67,20,-15,189,26
56,396,390,114,133,35,-11,-75,98,-82
41,96,87,73,20,-20,-50,-88,-27,-43
126,-24,-78,-6,-34,-44,-66,-63,-27,174
1,-162,-281,-95,-53,-16,26,106,117,301
0,-151,-256,-73,-51,-23,22,112,121,231
86,-70,-100,-48,-51,14,-5,32,83,211
63,-3,-5,-29,-12,78,22,7,111,178
-1,-72,-47,-5,-8,55,18,-7,65,116
-4,-104,-106,-27,-31,8,5,60,135,129
-6,-45,-27,19,8,-11,-22,-32,-30,-122
-47,-21,4,42,17,-1,-30,-89,-121,-273
-68,-30,-15,24,-5,-4,8,-28,-43,-158
-71,-3,58,68,19,-11,7,-38,-76,-55
-109,141,133,89,48,-20,-40,-90,-68,-63
-74,376,215,0,62,28,-15,-55,171,-37
-85,229,151,-18,54,108,23,-16,174,-83
-56,-27,1,15,1,46,-116,-58,0,-66
-35,-122,-85,-35,-38,-12,-119,119,124,3
71,-72,-64,-18,-12,-66,-83,160,84,3
113,-20,0,17,24,-67,-98,73,28,127
75,-28,-34,-1,11,-22,49,30,27,271
94,0,-89,-11,-15,33,216,54,73,348
32,-50,-51,1,-37,55,163,62,8,237
-20,-47,31,56,-12,15,43,5,-82,85
0,-26,61,75,1,-24,-27,-65,-141,40
15,-24,42,59,-9,-7,-70,-97,-143,-37
17,-53,-80,-25,-61,-21,-114,-49,-7,-31
-92,-136,-207,-31,-24,17,-48,34,-1,-160
-89,-60,-31,38,49,33,-60,-26,-88,-239
11,64,107,100,82,-46,-114,-175,-221,-280
35,50,112,99,65,-129,-130,-174,-278,-337
170,139,136,102,3,-197,-206,-171,-209,-147
31,30,70,58,-11,-88,-90,-57,-104,-86
-145,-163,-87,-48,-21,46,81,62,-72,-148
-132,-174,-114,-80,-39,43,87,76,-36,-78
-114,-126,-97,-77,-35,40,86,97,22,-48
-2,189,201,-19,31,41,38,23,97,33
107,324,315,-38,29,16,-11,9,242,193
94,113,148,1,-28,11,-56,-50,85,158
134,93,155,97,-31,-16,-130,-185,-125,114
71,65,70,43,-64,-36,-90,-78,-45,82
-126,-164,-165,-92,-85,29,96,141,113,61
-152,-194,-169,-67,-46,59,116,116,46,-26
-49,-53,-59,-22,-25,30,66,52,27,-5
31,-24,-96,-46,-54,-4,23,33,75,95
11,-83,-115,-66,-81,-33,-26,22,69,103
-55,-98,-83,-58,-70,-36,-19,36,101,75
-62,-82,-77,-28,-45,-38,21,31,68,52
-71,-52,-63,11,10,-4,13,-40,-53,1
-209,-62,-32,90,84,71,26,-52,-96,-60
-82,4,10,64,36,51,11,-28,0,83
125,150,104,12,7,36,0,-27,6,58
109,102,84,58,26,51,-9,-43,-56,-37
61,43,62,62,21,37,-22,-45,3,28
49,17,22,49,3,31,-29,-53,13,29
-49,-97,-103,-30,-45,50,51,119,61,-18
-108,-149,-182,-63,-29,119,81,157,48,-36
-12,-64,-168,-19,4,104,-27,-6,-54,-9
22,137,64,7,55,42,-90,-83,15,22
15,399,323,-15,109,24,-64,-21,265,57
50,251,178,-55,36,6,-75,52,268,105
2,-44,-43,-26,-11,36,-96,27,8,-13
-39,-78,-20,39,26,64,-70,19,-129,-110
-6,-39,20,48,41,52,-43,-5,-193,-114
-14,-88,-69,17,16,9,36,-3,-201,-115
6,-90,-166,-3,-3,-52,3,24,-108,-40
11,-36,-32,14,14,-75,49,48,-33,-8
-44,-64,5,46,31,-48,171,51,-64,-69
-49,-102,-61,0,-14,-52,182,113,13,43
44,-77,-92,-58,-65,-70,115,100,27,142
142,-25,-45,-50,-71,-101,14,-1,-35,185
52,-38,-21,-34,-53,-97,-1,-27,-16,170
-36,-93,-64,-48,-48,-49,25,41,45,152
25,34,33,-33,-9,-19,36,38,87,132
67,282,219,26,88,19,16,-9,114,16
46,219,199,78,106,28,-29,-33,45,-42
-2,-30,15,46,26,-5,-22,6,23,5
-8,-58,-41,2,-18,-8,-4,53,55,2
-1,-48,-106,3,-29,5,10,68,23,-2
-23,-68,-185,-8,-26,17,26,82,70,202
4,0,-135,29,10,31,14,0,51,546
139,157,85,88,32,8,-137,-210,-28,648
174,66,69,40,-12,-1,-190,-247,-57,465
31,-22,8,8,0,28,-71,-134,-51,277
-227,-144,-59,0,26,95,109,21,-36,341
-206,-161,-90,-30,-1,140,148,26,2,445
-12,-33,-2,-8,-18,138,148,-70,-98,-135
-116,-76,-32,-49,-28,78,336,95,-93,-812
-169,-46,0,-47,-5,7,507,188,-25,-893
-106,20,74,54,64,25,290,102,-93,-728
6,55,56,97,60,30,-83,62,-112,-577
42,47,40,41,25,15,-195,63,-6,-440
12,4,7,5,6,-46,-214,3,-9,-330
-146,-81,-20,7,18,-38,-163,0,-31,-261
-264,-163,-54,-18,18,-12,-99,55,22,-232
-116,-52,-15,-40,5,-25,-98,55,62,-143
55,310,247,-16,90,-12,-105,-8,142,-62
35,363,297,-24,113,-16,-68,-8,201,-48
-31,32,40,-32,24,-51,-49,24,55,-45
29,-61,-14,-1,-19,-97,-97,-12,-57,31
123,22,-1,39,-26,-123,-162,-87,-117,60
38,-31,-88,-7,-55,-109,-139,-43,-68,35
-40,-84,-70,-11,-29,-79,-121,-77,-113,46
-111,-120,-109,-64,-34,-73,-75,2,84,196
-71,-144,-224,-115,-58,-86,44,112,183,197
107,-43,-177,-46,-39,-144,7,32,68,169
326,142,-31,50,-16,-158,-110,-76,13,247
368,131,42,45,-8,-39,-31,-61,13,285
183,-4,-47,11,21,114,127,43,49,245
87,-31,-95,4,16,138,106,44,15,366
-8,-110,-73,-59,-32,95,78,117,86,663
-46,-89,2,-57,-42,66,14,67,105,682
-3,-56,5,-26,-55,14,-123,-117,-50,413
-112,-114,-61,-50,-68,-4,-124,-149,-166,-41
-191,-155,-151,-75,-78,-18,-59,-93,-126,-207
-100,-93,-78,-71,-76,-79,-83,-67,-73,-117
-89,-47,2,-19,-12,-69,-122,-20,-60,-175
-63,-17,23,17,33,-22,-118,-3,-78,-293
-73,94,90,48,108,66,-51,50,-73,-527
-170,260,383,103,217,189,9,49,-6,-690
-18,260,360,140,174,122,-150,-105,-103,-617
51,143,212,167,128,79,-168,-232,-335,-504
-74,-27,40,48,62,72,151,-29,-161,-349
-48,-93,-88,-59,-7,53,318,129,35,-139
-71,-104,-87,-18,27,65,191,112,45,-47
-38,-24,10,30,49,5,5,14,-26,-60
87,98,118,45,11,-61,-105,-57,-1,60
28,29,60,48,2,-29,-59,-13,34,70
44,46,52,35,6,-12,22,-13,-13,-10
13,-34,-57,-34,-35,33,203,57,0,-49
-113,-175,-162,-82,-66,89,254,147,68,-73
-67,-138,-112,-62,-61,36,119,121,72,-36
23,-44,-50,-28,-76,-54,16,38,44,20
46,148,7,-32,-26,-28,6,17,146,113
50,282,81,-41,34,45,31,26,260,218
3,-12,-68,-58,-48,13,13,22,114,183
20,-98,-83,-75,-91,-44,18,14,87,171
52,-58,-75,-71,-89,-74,57,9,87,183
32,-33,-64,-60,-79,-84,69,10,76,152
0,-18,0,-11,-56,-61,43,0,-1,-6
33,99,135,48,0,-22,36,-49,-63,-118
60,223,211,43,55,55,26,-60,7,-34
-2,6,15,10,6,87,4,-28,-56,-29
92,30,32,48,1,36,-115,-127,-169,-16
62,-19,22,41,-5,-43,-204,-167,-136,101
-145,-177,-98,-41,-32,-18,-97,10,52,111
-71,-119,-83,-59,-72,-16,-62,33,54,44
125,5,23,-14,-81,-73,-161,-84,-63,63
6,28,46,7,-31,-39,-183,-52,-3,44
-160,-134,-84,-70,-60,2,-130,66,120,52
0,-161,-150,-151,-154,-44,-174,117,164,174
76,-90,-105,-120,-139,-2,-218,49,27,126
85,-42,-67,-79,-127,-8,-205,-11,-3,99
185,52,-56,-21,-100,-20,-11,-23,-39,119
167,86,-53,52,-5,47,360,63,-75,11
23,44,-34,107,120,98,532,148,-91,-152
-152,-67,-62,105,159,102,467,181,-61,-182
-114,-82,-118,67,110,9,278,144,-27,-137
-35,-46,-16,48,59,-32,185,65,-64,-107
-45,-48,39,36,38,-19,189,28,-43,-77
-36,5,81,60,44,-12,177,-17,-66,-78
-19,42,117,92,41,-22,133,-40,-57,-51
-23,-13,19,9,-17,-11,73,82,77,31
43,138,198,30,35,21,-109,135,189,103
93,359,472,102,118,21,-156,55,245,198
95,206,283,73,50,22,-148,-42,121,219
78,-1,22,14,-44,53,-125,-90,6,193
123,13,3,10,-63,-23,-121,-134,-66,81
14,-28,-13,13,-35,-55,-23,-65,-97,-90
-134,-143,-95,-21,-5,27,126,66,-25,-154
-122,-129,-85,-19,14,107,195,120,49,-97
-3,-9,24,5,22,131,139,52,47,-57
-22,-68,-22,-6,-15,89,70,5,-18,-109
-33,-86,-46,-18,-37,19,-47,-36,-30,-68
-4,-60,-21,1,-18,-24,-121,-125,-89,-51
-2,-10,26,47,6,-41,-119,-124,-117,-108
13,6,-51,12,-29,-70,-78,-24,-29,-58
70,25,-47,-1,-39,-97,-93,-43,35,51
37,161,145,0,41,-83,-96,-69,152,130
0,296,282,-74,78,-15,10,43,371,164
-28,79,43,-119,-20,-3,45,79,282,120
-74,-99,-70,-52,-38,-24,-4,-26,60,1
35,-55,-32,-11,-45,-48,-75,-83,9,27
111,-21,-21,-3,-51,-53,-90,-77,-5,96
168,56,57,53,-18,-73,-141,-142,-51,149
130,75,80,36,-13,-69,-105,-63,39,332
4,-5,9,-14,1,16,15,81,143,514
8,-124,-102,-55,-39,15,24,90,90,420
96,-48,-37,-12,-24,-19,-51,-71,-55,223
68,-13,-6,20,-2,-38,-55,-116,-81,45
-137,-175,-155,-69,-18,7,97,110,5,-180
-142,-166,-152,-71,0,4,94,136,44,-185
-63,-73,-72,-15,38,-1,52,76,39,-238
-10,202,110,59,131,49,35,-17,43,-273
-40,337,224,145,210,93,-10,-113,-8,-236
44,152,144,154,85,7,-123,-217,-299,-221
88,6,-19,-27,-60,-25,-79,-52,-147,-103
-57,-151,-166,-121,-84,5,42,98,-32,-149
-120,-140,-105,-31,-14,40,56,1,-191,-249
-119,-89,-39,15,-2,30,21,-31,-200,-240
-70,-18,12,-4,0,25,-18,-18,-118,-185
-47,16,44,-24,-1,27,-15,-15,-27,-94
-58,-106,-104,-50,-49,9,-7,0,-55,-80
2,-104,-110,-64,-67,-16,-21,-20,-54,-18
13,-101,-86,-40,-59,-21,14,-3,-12,31
18,-52,-41,16,-28,-13,3,-29,-69,-40
27,-26,10,28,-16,2,-25,-43,-81,-77
32,-27,17,1,-15,14,-30,-6,-3,-46
32,22,65,4,5,54,2,2,20,-21
-23,-63,-29,-15,-16,49,63,86,94,2
47,-38,-49,6,0,38,36,48,32,27
147,58,36,64,30,22,-82,-79,-90,59
39,17,51,72,49,71,-135,-121,-118,44
-63,-48,-3,20,18,120,-108,-76,-1,65
-38,-23,-8,-1,-8,105,-98,-36,19,30
-81,19,34,-2,16,80,-33,-4,66,31
33,227,204,-63,11,55,131,64,270,208
125,260,215,-63,0,-6,177,23,182,221
-15,13,0,-4,3,-59,56,-29,-4,154
-99,-84,-73,0,21,-47,30,38,58,213
37,-11,-88,-20,-27,-108,-46,-3,16,247
38,16,-91,1,-32,-143,-123,-84,-82,55
-30,16,-20,23,-5,-105,-156,-94,-121,-209
-43,29,3,-12,-6,-43,-112,-1,-9,-306
-53,-82,-91,-72,-43,10,-63,92,86,-114
-8,-120,-139,-85,-57,32,-54,76,117,193
67,-75,-101,-49,-31,0,-42,-9,25,232
104,-37,-83,-45,-40,-33,123,2,-4,131
21,-48,-81,-27,-19,-8,253,71,31,-21
-71,-26,20,61,51,11,161,19,-52,-177
45,141,156,158,101,-31,-21,-151,-197,-172
175,166,53,77,21,-81,-63,-70,-11,80
108,31,-98,-1,-27,-38,-20,20,67,131
-41,-82,-139,-37,-27,-1,11,31,90,78
-125,-170,-164,-101,-44,17,90,103,133,33
-46,-96,-112,-70,-18,13,57,46,15,-19
-8,-17,-81,-17,12,5,-16,-30,-119,-75
-70,-10,10,17,54,26,-31,-27,-104,-182
34,326,348,116,166,32,-97,-158,-8,-163
155,544,425,68,158,35,-111,-140,175,12
-14,118,121,-37,42,98,64,47,108,-32
54,29,113,82,20,34,-55,-147,-192,-94
27,72,136,123,43,42,-54,-227,-308,-209
-213,-168,-89,-30,2,121,248,41,-102,-218
-247,-321,-245,-156,-65,106,392,221,79,-118
-164,-248,-189,-136,-66,46,216,167,65,-11
-40,-126,-96,-90,-55,-22,-81,137,88,106
-66,-108,-93,-39,-29,-25,-131,147,116,118
-64,-95,-92,-10,-30,-46,-129,45,29,68
-15,-62,-74,-12,-50,-66,-106,1,-5,78
-11,-26,-18,25,-37,-43,-94,-33,-34,49
-29,11,61,97,12,-21,-94,-96,-141,-35
-102,14,92,102,39,5,-47,-48,-76,-48
-160,38,124,0,45,55,54,70,162,6
21,91,77,-50,-9,-4,22,20,156,161
107,-59,-86,-39,-78,-96,-20,-25,34,249
33,-95,-91,-17,-46,-56,-15,-27,-9,204
8,-54,-52,26,0,-1,-46,-60,-59,124
33,8,24,86,51,49,-98,-126,-73,93
112,101,108,145,60,62,-182,-183,-90,106
177,171,131,110,40,73,-232,-113,29,148
39,82,39,-17,17,139,-91,77,207,-94
-33,-110,-108,-86,-64,86,68,100,124,-263
-3,-87,-98,-74,-88,29,93,36,56,-175
23,-27,-46,-20,-50,-16,-46,-32,-46,-190
-47,-67,-50,-29,-31,-38,-98,-42,-92,-274
-82,-55,-64,4,-23,-55,-66,-59,-105,-267
-41,37,-15,85,17,-73,78,-109,-162,-275
31,91,50,26,3,-96,252,-27,-27,-104
45,-8,-38,-31,-24,-91,303,65,7,12
59,-26,-27,-13,1,-64,146,62,-19,41
18,-37,-40,1,0,-58,34,45,25,44
18,-39,-34,-14,-9,-55,-14,23,8,35
78,-11,-13,-41,-30,-76,-47,7,30,133
127,39,-1,-27,-39,-100,-52,-41,30,260
83,137,91,-29,-31,-82,-17,-27,113,360
49,362,226,-61,34,-13,74,76,311,480
35,284,192,-4,64,22,56,0,132,404
-115,-109,-61,-5,6,58,79,69,-24,119
-109,-117,-38,34,28,142,102,53,-72,-68
53,-25,4,46,20,108,11,-39,-83,-18
62,-46,-21,5,-1,36,-53,-42,-76,-88
-82,-129,-90,-46,-11,13,16,103,-9,-257
-61,-50,-69,-33,21,36,63,99,33,-312
32,-12,9,32,27,5,5,-22,-78,-285
66,24,70,86,30,-50,-86,-93,-136,-253
-7,-51,-4,33,-11,-58,-60,-17,-54,-159
-13,-68,-15,22,-13,-64,-2,-57,-105,-94
14,-55,-21,15,-28,-105,20,-58,-80,50
16,-88,-89,-37,-47,-103,40,63,96,498
161,5,-48,-68,-25,-87,35,87,167,1093
144,14,-41,-64,-5,-42,42,62,83,957
18,-67,-83,-17,-8,-2,49,18,-69,328
-85,-65,-78,14,16,38,79,18,-107,-291
-61,-39,-37,10,-3,9,38,3,-62,-508
24,10,19,23,-38,-50,-79,-34,-26,-523
7,34,39,56,-10,-8,-120,-38,-99,-693
-61,35,18,85,30,53,-111,-45,-173,-690
-166,-63,-86,-1,-4,73,-85,40,-93,-339
-165,-127,-120,-83,-39,68,-86,52,-77,-151
-109,-82,-79,-57,-23,69,-63,-2,-44,-120
-47,4,17,-2,15,37,6,-35,-14,-101
41,61,77,34,26,-8,171,-53,-13,-60
70,115,148,108,76,-22,219,-132,-145,-128
8,93,131,133,90,-14,161,-131,-159,-171
-86,65,46,8,33,90,335,171,166,-108
-40,285,311,2,87,199,348,190,255,-51
-11,235,287,58,80,154,128,47,134,0
30,23,45,36,-20,38,-14,18,69,68
49,-59,-58,-31,-88,0,-12,78,34,24
78,-16,-12,-13,-72,-24,-90,14,-37,-20
-14,-61,-26,12,-37,-14,-95,0,-29,-30
-13,-108,-103,-79,-57,-8,-56,94,102,102
57,163,151,-58,14,-14,-60,68,154,86
20,154,167,-27,21,-49,-57,60,120,33
-7,-68,-67,-41,-55,-84,-82,47,-18,-2
-15,-96,-93,-51,-56,-77,-95,31,-35,32
-16,-100,-143,-44,-50,-74,-111,37,20,78
86,-30,-79,-12,-51,-94,-170,-56,-23,85
78,-23,-43,-6,-42,-94,-147,-124,-65,78
-50,-51,-79,-83,-25,2,29,-11,74,75
38,38,-5,-34,7,36,56,-88,9,102
53,-31,-27,16,-21,-4,39,-118,-54,137
8,-50,4,21,-17,20,119,-50,-32,112
31,-67,-35,5,1,53,144,23,-60,65
25,-47,-13,28,30,18,-85,68,-30,79
0,-50,-22,40,28,-26,-240,64,18,90
44,-2,14,30,26,-55,-215,2,-17,53
67,79,89,67,57,-47,-155,-68,-62,28
27,5,25,62,36,-46,-121,-65,-75,-2
33,-5,-13,38,15,-42,-81,-36,-46,-52
63,-6,-40,13,4,-47,-74,-55,-77,-67
-23,-77,-82,-25,-9,-24,-56,-3,-19,-38
-13,-43,-46,1,-6,-21,-110,-52,2,31
24,0,-6,16,-7,-2,-99,-49,38,74
-19,112,74,1,49,56,9,70,181,50
25,410,285,27,154,106,37,52,328,92
34,259,186,13,93,76,40,56,247,116
91,49,-10,61,16,6,-12,-57,-83,-18
97,20,-132,61,-13,-25,37,-64,-110,-40
-8,-39,-168,16,-28,-1,161,40,-23,-21
-92,-66,-70,14,-14,2,145,69,0,-28
-43,-65,-51,-19,-31,-13,67,61,37,31
38,30,24,24,-4,-29,-17,-38,-44,29
37,8,-13,15,-15,-62,-6,-47,-56,6
-1,-70,-152,-42,-46,-81,40,16,41,58
-28,-124,-182,-87,-61,-35,98,92,79,62
-19,-118,-144,-90,-59,19,117,117,80,58
-18,-89,-172,-47,-33,46,72,94,35,6
-24,-12,-8,40,19,32,1,-3,-121,-85
-62,67,143,74,60,18,-41,-57,-121,-61
-44,-7,35,-14,9,9,-9,25,23,57
16,-69,-31,-47,-18,-9,-22,17,-45,13
32,-33,16,-16,-3,-42,-48,-22,-103,-13
-24,-21,19,-3,16,-48,-38,-14,-94,-11
-91,-61,14,-7,23,-36,-5,36,-41,-25
-39,-73,-28,-43,-14,-39,-33,71,11,60
-3,-27,13,-51,-16,-23,-35,39,-15,66
-66,229,255,28,108,81,43,22,45,-78
-7,344,240,51,120,77,30,-2,56,-102
67,94,-14,-24,-7,5,-14,-39,-45,-42
-17,-117,-133,-75,-40,67,55,5,-38,-25
-31,-132,-120,-51,-8,99,64,31,-13,4
25,-73,-61,-4,2,34,-10,-15,-17,44
95,-21,10,18,-17,-58,-141,-61,18,306
75,5,53,3,-9,-84,-226,-76,122,619
25,-67,-35,-71,-42,-73,-218,-37,142,572
-6,-145,-131,-109,-73,-56,-219,8,100,306
6,-81,-71,-48,-62,-78,-318,-69,-37,-55
24,11,32,27,-15,-87,-404,-139,-147,-243
-88,-48,7,28,39,19,-301,-81,-175,-416
-160,-134,-85,-24,37,109,19,26,-108,-593
-53,-19,-40,-57,2,93,340,88,9,-474
69,215,158,-17,38,24,409,47,83,-258
89,98,96,47,38,-15,344,-42,-73,-149
58,62,51,88,54,-18,233,-61,-86,-62
90,76,0,80,37,-17,114,-44,-8,49
78,74,48,27,10,-26,84,-21,64,36
41,12,-16,-47,-39,-43,137,64,53,-47
-113,-121,-99,-78,-27,12,221,164,77,-98
-162,64,66,-49,76,83,223,122,190,-40
-48,272,199,-24,112,94,178,47,268,82
47,54,43,12,15,-1,38,-64,-11,75
-24,-90,-72,-34,-37,-16,45,72,-2,4
-76,-100,-117,-26,-11,4,63,107,-25,-70
-41,-34,-33,41,20,-6,1,-10,-144,-117
-4,0,51,67,21,-1,-50,-117,-211,-119
-97,-100,-55,-44,-23,37,38,0,-41,-19
-65,-95,-86,-84,-43,43,83,24,-13,2
-60,-118,-100,-46,-29,20,55,-25,-90,-6
-68,-101,-43,-11,20,15,72,-14,-42,59
19,-21,29,37,48,62,74,-43,-35,128
79,27,68,103,91,131,32,-34,-37,143
-40,-71,1,95,136,216,9,94,33,115
-37,-73,5,59,93,122,-118,63,90,212
96,149,203,72,89,-5,-351,-69,55,311
30,290,367,29,125,54,-288,-115,16,181
-101,53,108,-75,14,40,-169,-98,-118,-121
-166,-168,-143,-79,-51,-16,-340,-83,-171,-252
-195,-137,-97,2,-6,-38,-556,-149,-223,-285
-163,-82,-46,45,-10,-97,-456,-233,-305,-271
-76,-47,-122,12,-65,-176,99,-86,-115,-106
14,-8,-77,-4,-53,-66,654,129,116,-4
143,94,58,24,1,35,483,108,87,49
210,111,35,54,-13,-35,134,63,37,107
161,103,-12,75,-7,-116,-44,-8,-39,68
4,-25,-109,3,-27,-82,-25,43,48,90
-60,-97,-124,-70,-63,-39,11,88,127,83
56,-47,-81,-68,-75,-61,-25,45,93,71
100,4,-46,-46,-71,-96,-33,9,43,72
113,125,42,-12,-37,-106,-22,-1,20,56
98,80,-25,-4,-26,-105,4,-4,10,73
71,7,-1,-3,-28,-34,17,-28,4,95
31,8,31,13,-12,33,22,-46,12,64
-19,-31,22,12,-4,32,22,-42,-14,2
-100,-40,32,53,41,14,0,-57,-43,-66
-101,-46,17,37,33,-23,-29,-50,24,-12
4,-28,-44,-104,-46,-46,-7,33,178,144
38,252,160,-125,23,-12,32,95,416,255
62,341,240,-53,66,-55,-57,11,281,191
-15,-6,-8,-52,-14,-98,-117,33,74,145
39,-75,-73,-41,-50,-79,-145,49,10,129
118,-18,-26,-13,-46,-25,-164,20,5,123
38,-16,2,47,10,53,-44,76,29,1
-59,-21,27,103,59,97,154,119,41,-46
-89,68,119,131,89,95,228,68,72,-16
-82,17,86,73,15,24,138,-17,22,12
-99,-79,-2,-2,-63,-5,110,2,-14,-5
-96,-50,32,20,-59,-29,55,-28,-104,38
-236,-122,-35,37,-13,44,142,54,-122,8
-291,-174,-56,46,27,101,181,102,-113,-187
-185,-162,-17,53,32,89,128,63,-122,-277
-27,-86,0,3,-4,59,54,62,-51,-222
120,151,210,-7,8,49,-23,12,27,-185
28,69,124,9,11,46,-36,2,-66,-256
-77,-95,-59,-12,1,38,18,57,-41,-86
89,-43,-31,-15,-2,6,-28,-4,-81,424
276,-43,-71,-28,-31,-21,-56,-40,-94,608
226,-54,-104,-56,-55,-44,-68,-47,-39,383
215,28,-38,-37,-60,-78,-164,-137,-108,95
158,105,51,-43,-36,-27,-123,-60,19,-36
11,-7,-28,-35,-22,26,-5,3,49,-133
-17,-36,-19,59,11,40,9,-99,-124,-123
-113,-49,-2,84,26,56,-15,-142,-164,-232
-219,-191,-172,-85,-65,43,66,38,56,-260
-190,-181,-172,-111,-83,38,44,43,71,-138
-110,-77,-60,-15,-40,28,-128,-39,13,-22
-43,90,100,99,51,36,-397,-116,-31,45
-76,159,178,155,99,9,-425,-121,-14,-7
-264,-117,-74,6,-7,0,-19,143,110,-145
-301,-207,-128,-33,-18,6,191,225,111,-165
-332,-172,-28,56,38,1,85,106,11,-196
-143,-91,-6,62,29,-44,8,13,-49,-112
364,10,-31,-20,-22,-79,75,38,-15,22
594,122,-12,-37,-20,-71,140,4,-36,8
467,374,181,16,71,-17,72,-66,-13,-139
158,456,282,39,168,123,94,14,150,-227
-20,137,79,-1,63,102,89,78,167,-180
7,-46,-87,-9,-47,11,3,0,-36,-184
63,-36,-63,-12,-65,-26,-22,-22,-62,-229
187,4,-61,-42,-109,-76,-49,-15,-5,-132
167,7,-71,-54,-105,-59,4,25,29,-123
58,32,-23,-20,-51,-25,45,11,42,-106
81,80,32,-10,-27,-12,31,17,88,16
13,9,8,23,3,14,41,-1,-17,-25
-103,-7,59,92,49,28,61,-61,-105,-101
-134,-61,-20,48,2,5,103,-1,18,12
-96,-88,-119,0,-32,21,98,43,33,-6
-42,-72,-44,17,-8,51,61,32,25,2
166,-18,22,7,-23,34,15,28,66,112
201,70,75,17,6,35,-6,-8,41,141
-46,-70,-55,5,24,36,3,1,56,80
31,-58,-102,-10,-25,-27,-78,-72,-37,37
149,42,-35,-19,-57,-66,-152,-136,-108,48
105,25,-30,-24,-35,-62,-151,-67,-54,62
14,-54,-68,-31,-31,-52,-128,11,-34,55
-64,-123,-105,-18,-12,-41,-51,29,-51,37
13,-9,13,23,9,-45,-7,-22,-29,102
31,168,165,1,57,127,74,7,84,116
-38,80,137,-21,77,289,126,41,79,36
-42,-93,-77,3,44,338,97,9,-37,21
-9,-87,-167,31,63,413,109,32,-10,62
31,-42,-141,49,73,342,131,39,31,121
3,-52,-76,45,52,207,129,-25,-36,90
-23,14,95,131,103,50,93,-142,-209,-58
-11,45,122,72,61,-114,25,-136,-146,64
-114,-130,-75,-78,-47,-191,-78,-52,-63,89
-249,-218,-147,-97,-41,-166,-131,73,-33,-84
-95,-82,-46,-31,-36,-218,-273,46,-36,-101
52,4,-2,3,-47,-204,-321,-40,-116,-81
-56,-80,-72,-35,-55,-123,-254,9,-55,-50
-83,-77,-82,-41,-61,-142,-147,45,7,-20
-11,57,62,-4,-37,-186,45,74,74,29
17,182,202,46,-4,-197,175,68,82,51
35,71,86,55,-39,-206,74,8,-11,70
115,81,71,55,-40,-168,-74,-30,28,153
186,71,29,4,-97,-196,-85,-65,37,283
57,-32,-51,-43,-101,-148,9,-8,19,234
-114,-95,-35,12,-23,-6,88,-12,-55,70
-171,-68,-7,13,33,84,216,29,19,48
-58,196,195,0,124,105,174,41,168,105
-55,210,206,-5,133,91,-82,92,210,79
-120,-21,3,45,95,44,-396,82,43,-127
-179,-87,-69,46,116,130,-359,17,2,-199
-167,-160,-167,-44,37,126,-53,-48,-2,-112
-16,-120,-150,-71,-15,5,21,-117,-122,-141
64,-74,-123,-71,12,-26,-101,-115,-131,-107
73,44,0,-25,47,-21,-248,-150,-90,4
165,181,85,59,-10,-97,-375,-166,-43,113
42,0,-65,-3,-98,-22,-207,33,-38,34
-124,-123,-113,-70,-128,129,200,140,-12,-77
-66,-48,-52,-43,-105,151,726,163,18,-8
39,12,21,-2,-95,83,620,131,53,181
-21,-19,25,14,-78,7,216,99,72,197
-45,-8,41,-2,-77,-96,34,77,141,227
154,316,262,0,-35,-167,12,27,318,301
227,487,365,-16,17,-168,30,69,447,301
130,236,195,57,48,-74,-66,33,162,41
-10,16,52,121,95,73,-93,77,6,-183
19,4,35,120,127,67,-104,36,-37,-184
9,-11,28,100,129,18,-152,-12,-115,-175
5,-25,-32,80,70,-5,-280,-73,-119,-84
-75,-72,-137,1,1,137,-292,-60,-36,6
-97,-110,-116,-78,-64,196,-82,-36,-34,-64
18,-85,-108,-80,-105,84,454,15,-93,-82
36,-62,-154,-54,-84,23,761,121,21,2
37,-21,-118,-8,-27,9,379,108,41,14
0,-19,-97,13,26,11,123,67,26,-24
-23,-3,-53,36,57,-15,56,34,-5,-154
-16,20,-18,29,44,-88,37,-4,-36,-154
22,67,94,0,14,-174,1,-47,-24,85
75,55,106,9,-16,-166,-33,-107,-83,220
38,-16,25,-35,-25,-62,-28,-74,-59,302
-23,-95,-51,-91,-42,-19,-11,-2,12,298
1,-86,-63,-73,-35,-33,-51,-22,-17,152
-38,-56,13,12,35,-41,-78,-56,-73,-73
-74,17,141,131,108,-5,-94,-91,-201,-354
1,168,268,113,107,19,-33,-79,-146,-386
-6,320,372,6,89,41,127,68,170,-211
-86,127,159,-116,6,17,198,206,276,-100
-120,-112,-57,-86,-21,-9,109,82,-32,-209
-75,-128,-72,-59,-31,-14,68,70,-42,-116
-23,-86,-48,-36,-46,-49,37,123,33,-25
59,-31,-10,-6,-51,-72,-51,45,-18,-21
89,-15,-16,-15,-67,-77,-138,-40,-19,57
162,67,-19,-28,-58,-54,-165,-60,63,139
50,-15,-83,-33,-57,11,-141,-74,15,63
-97,-145,-138,-81,-74,22,-81,-2,12,17
-100,-132,-111,-75,-72,-17,-88,-10,-21,15
-7,-43,-25,-34,-65,-69,-133,-100,-93,43
98,27,29,-6,-52,-110,-160,-143,-76,189
96,62,87,52,2,-50,-165,-166,-100,204
13,176,235,130,128,63,-95,-183,-173,20
-120,109,163,58,125,86,-2,-36,7,54
-190,-182,-154,-100,-18,62,104,238,225,143
1,-102,-119,-86,-35,31,58,138,57,76
53,-76,-62,-45,-13,12,-1,23,-26,-14
37,-41,-26,-31,-21,9,-8,15,-22,-39
95,12,10,-8,-9,18,-15,-20,-79,-9
6,33,75,37,38,58,10,-44,-75,-18
-11,327,315,85,149,111,53,-97,77,201
-16,259,211,33,86,73,57,-56,128,546
-112,-102,-105,-48,-40,13,89,74,34,383
-126,-137,-106,-48,-33,-9,52,34,64,312
49,-59,-76,-56,-67,-84,-33,-34,138,316
184,-32,-112,-88,-95,-97,-47,-64,112,157
195,-2,-72,-73,-88,-55,-18,-103,34,-85
222,95,49,-4,-29,-10,-61,-190,-58,-359
-4,7,-2,-5,34,115,-69,-155,-210,-710
-210,-140,-182,-19,49,184,-75,-70,-249,-814
-72,-92,-203,-35,9,84,-170,-118,-188,-535
107,16,-25,-3,27,29,-289,-206,-300,-454
38,27,7,36,75,29,-459,-162,-285,-426
-12,-76,-74,-46,17,-6,-253,39,-7,-226
-37,-54,-29,-19,47,-13,338,125,39,-199
-15,197,162,54,116,-13,652,150,107,-133
49,309,232,57,99,-68,342,177,259,9
57,111,89,9,4,-107,86,152,180,36
-26,-76,-73,-46,-43,-104,42,154,103,17
1,-75,-114,-47,-40,-78,7,87,49,64
70,-17,-93,7,-7,-39,-36,-31,-35,114
86,6,7,54,36,-3,-62,-117,-80,168
2,2,27,46,65,53,-17,-63,-89,77
-37,-31,-6,7,21,39,11,39,-65,-14
-71,-60,-12,25,16,19,17,49,-110,-96
-61,-57,-39,33,12,20,13,50,-102,-84
-51,-112,-206,-18,-23,-15,26,83,14,55
-30,-119,-239,-46,-43,-35,62,84,68,136
-220,-181,-142,-8,-2,67,133,103,75,33
-38,-59,-39,-8,-28,99,48,-11,-19,12
83,44,42,-12,-22,125,-44,-87,-31,86
1,-33,-9,6,0,113,-119,-69,-42,69
-37,-48,9,19,36,112,-128,-17,-14,58
-53,-42,-7,14,35,283,-93,-31,-6,78
-50,-56,-41,-28,-4,341,-47,-63,11,82
-54,-55,-22,-21,-15,202,-4,-83,-21,10
-74,-39,1,-9,-13,-21,65,-76,-69,-74
-35,125,114,-41,-10,-167,245,34,118,8
-3,375,332,-9,95,-76,296,92,279,75
19,255,209,43,92,-67,112,63,195,54
-10,5,34,61,28,-116,-119,49,37,-5
-5,-45,-22,35,4,-141,-197,13,0,7
98,-30,-29,-12,-29,-158,-175,-29,-8,96
142,-11,-21,-22,-49,-167,-93,-16,34,135
132,26,-4,-17,-57,-191,-12,-19,92,137
179,149,126,43,-23,-210,29,-60,73,103
209,109,114,102,7,-185,22,-89,-55,112
127,13,17,35,-25,-103,34,20,69,155
70,35,76,81,5,19,-20,-67,-72,-109
118,60,0,44,-18,57,-13,-71,-93,-106
52,-56,-146,-76,-84,37,56,100,147,81
-122,-173,-150,-69,-35,108,77,130,129,4
-142,-28,-66,-20,58,163,53,73,109,-72
-56,28,4,-8,62,135,9,2,94,-14
-12,-87,-70,-11,9,76,20,-28,-2,21
25,-67,-115,-3,2,22,48,0,-19,38
27,-48,-54,5,15,-34,13,9,22,50
57,-26,12,16,6,-49,-9,0,64,108
41,-64,-30,-29,-9,-13,9,22,92,154
9,-32,32,-15,67,21,-1,-15,-6,41
4,179,296,62,226,55,-23,-30,47,35
47,93,165,14,186,1,-36,-4,52,155
-19,-105,-81,-17,79,-31,-33,14,-5,164
-75,-123,-119,4,2,-48,-54,-21,-41,137
19,-61,-31,6,-76,-80,-125,-116,-109,126
71,-59,-36,-42,-126,-50,-103,-133,-192,31
-115,-145,-101,-60,-114,30,20,19,-92,-226
-100,-72,-37,-65,-106,8,50,32,-53,-325
-12,-9,-35,-53,-94,-47,-1,-47,-138,-255
-42,-48,-110,-41,-68,-32,-59,-61,-151,-189
-67,-37,-7,-14,-41,-4,-67,-61,-117,-161
11,35,57,21,-21,0,-54,-92,-108,-107
-4,-1,-8,23,-13,13,-29,-125,-70,-22
-5,-39,-76,-11,76,9,-27,-142,-30,59
34,-3,-29,-60,182,21,76,-52,40,221
32,185,177,-89,224,39,175,46,268,477
23,242,264,-24,217,50,114,23,284,508
-23,-22,20,-21,67,-8,-81,-7,80,217
4,-91,-65,-29,-59,-66,-258,-42,-34,8
-16,-103,-77,-20,-110,-62,-205,3,-34,-193
-65,-77,-42,46,-67,-27,-171,39,-87,-455
-77,-3,40,128,17,80,-60,40,-167,-564
-10,93,135,132,26,121,69,56,-83,-324
-22,16,45,58,-51,95,232,71,-29,-189
-75,-109,-79,-23,-125,17,220,62,-35,-169
-44,-71,-44,-9,-108,-28,76,41,-10,-144
-77,-62,-108,-5,-103,-48,57,22,-5,-162
-31,-34,-157,0,-93,-49,18,23,7,-112
126,89,42,75,-37,-56,-82,-97,-71,-41
144,143,152,104,0,-32,-37,-80,-47,-40
22,88,86,40,13,42,89,60,68,-62
-69,-61,-78,-9,-29,48,76,117,40,-76
-19,-17,-46,15,-26,14,-57,32,-17,123
-4,-7,-23,-5,-26,-1,-127,22,63,332
-103,-105,-130,-56,-31,66,-58,137,162,213
0,-69,-78,-40,-43,75,-152,35,61,82
76,-2,8,-5,-39,91,-225,-70,-9,43
125,234,205,26,25,77,-96,-98,99,56
38,418,333,-4,94,38,167,37,343,45
-36,179,114,-25,28,-11,134,69,225,-21
-69,-83,-23,18,-12,21,61,-31,-57,-105
-196,-172,-42,39,15,84,203,84,16,-98
-159,-171,-111,-41,-61,17,363,206,163,16
162,-35,-65,-72,-138,-140,197,58,20,148
197,75,86,30,-75,-170,-56,-108,-57,180
95,89,154,112,15,-81,-121,-142,-169,-19
-68,-98,-32,35,-8,-33,-47,-14,-182,-126
-105,-169,-123,-58,-41,-27,9,112,-68,-93
-42,-115,-82,-25,0,-27,-12,105,-57,-54
42,-47,-19,47,32,-27,-51,73,-22,28
76,-9,-63,77,35,9,-55,36,-47,10
-16,-8,11,107,80,92,-52,-17,-99,-79
-28,99,211,93,93,100,-66,-57,-22,15
16,46,117,25,13,24,-62,-38,18,104
41,-39,-29,-34,-60,-39,-35,-13,-32,-13
-18,-26,14,11,-11,-29,44,-39,-114,-136
24,41,61,46,7,-59,52,-52,-123,-79
73,11,-13,-22,-46,-85,10,-6,-52,35
-130,-176,-144,-97,-57,-29,45,115,74,37
-196,-146,-113,-116,-17,27,92,152,146,-25
-59,181,160,-66,25,38,83,66,204,29
-19,71,-43,-54,-33,-8,40,35,128,91
31,-53,-148,-50,-65,-43,-6,-2,1,111
52,-39,-103,-34,-40,-36,-9,-30,-36,125
52,-23,-86,-19,-25,-37,-14,-39,-45,122
64,-13,-21,-12,-27,-39,-25,-37,-17,225
26,-59,-73,-55,-48,-44,-13,25,94,325
7,-16,-38,-49,-38,-54,-31,24,155,284
0,-25,-35,-14,-39,-82,-89,-59,69,192
-20,-55,-86,-21,-28,-54,-42,6,90,179
-3,-26,-64,-33,-26,-9,31,76,104,72
8,7,6,-8,-17,9,21,27,-8,92
17,28,20,13,13,33,-3,-25,-51,539
7,-8,-11,-7,7,18,-19,-10,-3,565
-5,36,35,-57,5,12,-23,41,118,259
25,322,235,-60,77,29,-5,53,328,67
104,376,232,10,103,27,-38,-20,206,-127
99,109,78,83,60,14,-80,-110,-150,-359
-89,-67,-67,49,29,61,10,39,-84,-575
-116,-61,-21,57,45,69,37,29,-137,-640
-149,-53,26,92,93,73,21,-36,-277,-598
-234,-93,0,63,91,87,55,1,-208,-455
-134,-2,47,33,75,69,30,-15,-131,-293
-99,-48,-16,22,37,27,-21,-34,-117,-158
-104,-82,-58,31,22,1,-41,-50,-109,-97
-75,-58,-69,32,16,-9,-62,-23,-85,-96
-114,-79,-68,19,12,8,-34,0,-66,-99
-113,-96,-53,-20,-20,1,-45,24,7,-62
72,-28,-1,-16,-26,-47,-117,-38,-12,-10
237,30,30,-23,-42,-83,-169,-90,-4,106
145,24,14,-23,-25,-67,-146,-62,-6,35
-5,-34,-62,-1,-16,-42,-102,-44,-39,-45
47,-19,-13,-3,-44,-36,-40,-12,-12,63
14,-36,-7,18,-18,6,64,-17,-94,12
-42,-75,-71,-2,-24,13,124,-2,-121,8
-48,-94,-89,-38,-39,3,63,15,-36,125
-2,-82,-111,-66,-54,-18,34,18,40,147
5,-29,-117,-13,-18,-35,32,-35,27,101
50,17,5,40,12,-42,-34,-109,3,79
160,81,78,34,-2,-41,-120,-154,-4,118
49,-32,-14,-52,-35,19,-49,9,76,114
-48,-138,-173,-96,-59,38,-33,77,141,203
57,-81,-185,-60,-59,0,-86,-29,86,343
88,-15,-104,-9,-21,17,-100,-98,-13,274
10,-32,-18,0,3,25,-37,10,39,140
52,69,122,68,47,14,54,-42,-111,-4
76,138,165,105,83,17,84,-103,-248,-147
-90,-26,-61,10,67,30,135,79,-78,-184
-145,-88,-94,-41,25,-25,110,195,53,-188
46,64,83,27,-13,-121,-67,55,56,-85
119,81,43,23,-57,-166,-139,25,72,7
-54,-82,-77,-69,-54,-42,63,190,149,-11
-89,147,163,-48,50,87,169,144,187,-83
-80,416,422,44,173,212,241,46,158,-186
-49,351,382,98,191,260,231,-54,4,-184
-36,29,49,14,49,177,200,-32,-85,-102
-80,-118,-90,0,11,90,145,1,-94,-125
-92,-72,-27,46,38,37,-49,-26,-129,-177
-48,-28,-4,48,45,29,-302,-23,-88,-93
-36,87,109,33,70,68,-242,14,91,-12
4,331,300,38,128,83,-71,6,240,5
-19,71,41,12,46,55,-77,-53,16,-33
14,-77,-76,-5,-2,-19,-250,-134,-123,-16
18,-91,-58,-2,32,-64,-370,-150,-112,27
-14,-78,-20,40,73,-122,-398,-141,-83,22
19,-38,1,39,53,-144,-352,-68,17,34
37,-37,-5,-12,-12,-120,-42,-8,16,22
-10,-1,57,-20,-25,-84,445,46,2,-28
-41,-75,-19,-42,-68,-87,584,166,26,-3
36,-106,-95,-87,-122,-141,268,204,118,142
117,-42,-26,-50,-92,-114,42,82,12,140
80,-9,-7,15,-19,-43,-32,-2,-81,100
48,-37,-74,15,-11,-47,-68,-13,-54,116
-6,-111,-73,-32,-17,-49,-21,10,16,134
-19,-55,19,-35,-3,-35,6,3,77,224
76,168,252,-6,36,21,30,14,181,384
113,158,208,-6,32,26,30,46,244,484
123,9,-15,26,-12,-42,-34,-20,110,567
142,3,1,67,-20,-72,-19,-52,33,456
119,-10,1,16,-45,-7,62,34,37,190
9,-57,-33,-1,-28,109,122,21,-108,-192
-83,-64,-115,16,16,157,78,-46,-198,-494
-204,-92,-140,-13,26,136,82,-9,-139,-600
-274,-166,-85,-33,18,82,100,33,-149,-614
-237,-187,-104,-61,-20,36,114,120,-35,-511
-50,-80,-53,-40,-47,-18,21,59,-84,-405
6,-33,-11,-9,-45,-40,-26,-42,-142,-305
-25,-52,-33,-20,-52,-34,-4,-38,-83,-201
-1,-44,-31,-22,-56,-11,23,-2,-18,-102
44,21,24,0,-39,11,32,-10,11,-33
33,35,56,21,-18,29,27,-11,-10,-36
21,-7,-14,15,-44,12,-20,-20,-11,26
50,21,-4,44,-28,-15,-103,-92,-20,181
11,26,37,75,11,-11,-134,-135,-26,306
-44,-25,-19,21,-5,-29,-87,-61,58,318
-56,-50,-109,-43,-37,-24,16,116,226,240
41,79,57,30,22,94,73,54,100,-35
84,299,269,44,116,411,234,-47,28,-217
-36,293,258,-36,107,525,472,15,179,-226
-100,5,-1,-55,-14,268,501,18,70,-209
-70,-138,-129,-70,-100,-41,292,-25,-39,-115
-34,-115,-109,-56,-106,-177,93,-47,-55,-36
-44,-126,-97,-36,-74,-56,-95,-77,-107,105
13,-113,-57,-15,-39,4,-458,-27,-5,643
126,-23,-13,-16,-26,-11,-653,40,132,806
196,21,9,-24,-21,-63,-542,-12,83,466
215,30,5,0,-18,-110,-146,-63,-23,171
180,57,33,39,4,-138,176,-63,-97,30
-3,-116,-110,-68,-61,-176,165,130,110,95
-82,-159,-175,-99,-99,-205,37,222,267,76
51,-24,-85,-47,-102,-198,-33,157,202,-16
223,157,124,62,-37,-166,-117,-12,9,-45
124,329,312,135,115,-51,-29,-32,5,-115
-79,221,253,152,176,80,88,-1,-114,-311
-119,0,51,88,83,41,53,-3,-219,-412
-112,-55,-54,-2,12,-22,14,0,-190,-421
-159,-120,-98,-14,-15,-32,0,27,-128,-350
-192,-185,-117,-23,-28,-59,-6,83,-1,-201
-78,-141,-99,-44,-45,-92,-50,53,37,26
-38,-46,-26,-69,-56,-69,-16,92,175,172
37,109,143,-48,-14,-43,-15,56,213,193
34,6,-10,-9,-9,-30,-49,-29,26,45
-38,-39,-55,43,38,24,3,-19,-96,-104
-90,-40,-31,62,64,71,105,38,-123,-169
-84,-30,-29,67,49,50,62,-3,-135,-115
-36,-24,-19,51,21,30,23,-9,-74,16
11,53,50,83,33,37,-6,-42,-77,58
39,111,122,98,58,19,-54,-74,-69,40
20,61,69,107,63,24,-54,-93,-101,17
-137,-102,-77,20,37,57,34,48,87,40
-130,-127,-119,-31,-8,41,68,103,110,-81
-51,-32,-45,-1,-20,2,11,25,-26,-244
-44,-42,-73,-45,-66,-42,-10,27,-7,-199
-62,-77,-113,-85,-100,-83,-7,46,67,-113
1,73,32,-51,-41,-54,-23,-12,119,-11
154,369,327,5,63,-8,-33,-92,200,178
138,295,268,40,76,8,-37,-58,152,179
63,45,18,23,14,-21,-26,-30,6,88
24,-36,-78,-30,-30,-38,33,21,23,94
-10,-52,-62,-4,-12,0,61,1,-31,50
-26,-45,-30,48,19,13,15,-74,-95,42
-70,-34,-13,30,25,-35,-40,-80,-18,69
21,71,15,-33,10,-58,-45,-46,39,88
16,10,-41,-31,20,-13,-48,-37,-102,-74
-94,-80,-101,-29,67,49,-8,42,-77,-127
-134,-114,-81,-15,79,94,-13,66,-47,-63
-80,-104,-74,-29,26,83,-117,18,-20,215
22,-29,-57,-30,-29,3,-233,-80,-59,292
148,85,44,25,-17,-69,-311,-223,-187,164
-5,65,91,71,60,1,-203,-135,-188,-76
-172,-30,10,17,49,59,40,77,33,-78
-37,-28,-37,-31,-27,8,234,112,82,-24
93,-7,-70,-28,-23,27,379,127,-14,-112
21,-69,-70,-18,0,32,285,142,-40,-181
24,-60,-59,-36,-38,-43,115,88,-33,-151
63,-22,-39,-19,-62,-59,6,18,-48,-120
48,-10,-33,-41,-63,-6,2,17,28,-21
36,254,162,-56,17,33,43,38,243,70
14,326,230,-50,61,16,52,42,301,63
-7,20,0,-48,-30,-17,20,57,84,5
10,-85,-95,-13,-42,15,2,12,-79,-46
40,-50,-57,14,-23,15,-17,-67,-137,-3
-37,-115,-80,-17,-53,2,-26,4,-5,110
-81,-130,-102,-43,-69,-17,-23,60,88,61
57,16,-17,-39,-62,-38,-58,-5,44,43
69,35,9,0,-39,7,-51,-54,-29,28
63,-5,-3,43,6,95,-39,-64,-112,-30
74,25,38,110,88,179,-90,-122,-209,-83
50,12,52,125,119,201,-104,-188,-235,-100
-1,-45,-8,62,87,150,-86,-150,-131,-69
-47,-86,-67,-8,11,54,-133,-91,-36,-44
59,10,-4,0,-30,-70,-251,-209,-128,-14
54,83,78,-9,-12,-66,-82,-145,-35,54
20,-100,-132,-117,-81,-93,257,73,77,89
26,-146,-171,-164,-116,-134,428,193,136,77
-95,-105,-89,-48,-31,-76,275,136,37,-110
-47,-82,-91,-26,-30,-43,115,57,-6,-54
8,-59,-97,-32,-52,-13,70,0,5,90
48,-29,-74,-28,-84,-51,52,19,118,216
98,142,87,-16,-55,-62,50,29,251,307
218,358,292,26,-5,-47,11,29,326,481
194,156,135,43,0,18,73,52,175,364
92,24,21,49,26,57,97,13,-12,94
-70,-100,-70,7,25,26,90,107,12,-50
-88,-152,-134,-46,-17,-77,56,160,118,5
38,-27,-40,24,1,-96,-15,31,-7,-50
77,109,120,133,82,1,-12,-58,-152,-253
-52,114,158,158,142,125,46,0,-120,-334
-63,-18,23,87,76,106,20,50,-87,-253
33,-50,-38,-8,-10,11,-32,59,-12,-87
78,-47,-68,-55,-43,-49,-70,47,-21,-41
101,-16,-41,-39,-24,-57,-137,-25,-91,-30
-30,-66,-63,-3,32,-8,-99,-24,-101,-71
-122,-80,-156,17,66,25,-26,37,-32,-69
-72,139,57,33,99,20,-52,35,43,-23
4,286,232,5,109,14,-40,11,131,113
-51,-29,-55,-41,4,-21,-56,6,21,150
18,-62,-51,-8,-22,-46,-115,-48,-70,186
40,-43,-8,17,1,-38,-116,-59,-80,207
49,-79,-39,-15,-24,-52,-103,-41,0,257
51,-84,-80,-50,-73,-78,-101,-17,102,302
65,-5,0,-27,-46,-69,-106,-67,113,235
80,139,139,-20,0,-68,-79,-39,222,214
9,-12,20,0,-20,-62,-57,23,70,-16
11,24,81,93,25,-71,-57,-70,-155,-344
44,40,77,77,30,-47,0,-70,-203,-399
-76,-34,20,48,56,74,106,33,-210,-475
-228,-155,-66,-4,44,172,188,152,-108,-506
-109,-115,-70,-30,-8,115,94,93,-91,-372
-17,-7,-3,-29,-22,67,14,38,-38,-199
22,-16,-20,-40,-45,43,-34,-15,-56,-98
26,-36,-25,21,-34,18,-105,-108,-167,-78
24,-34,4,49,-33,-27,-136,-145,-119,24
54,-2,10,28,-55,-93,-162,-121,-57,36
19,-9,5,-6,-54,-95,-112,-79,-12,51
-45,-64,-60,-27,-44,-62,-24,-18,19,25
-113,-73,-54,-21,-17,-2,43,4,-4,-49
-124,113,171,-8,39,64,81,43,117,-25
-53,143,182,-58,4,23,55,93,271,98
62,-66,-106,-139,-136,-82,-4,98,246,190
88,-92,-145,-112,-143,-103,-54,29,167,183
25,-34,-88,-13,-70,-61,-19,-13,66,75
-14,-16,-87,18,-7,6,29,-27,-30,-31
-73,-66,-154,-4,16,30,70,-1,-49,-86
-35,3,-83,18,52,29,53,-19,-48,-49
30,32,18,32,35,9,8,-64,-97,75
51,-18,-20,2,-22,-9,-3,-10,9,290
130,32,-4,1,-34,-23,-41,-63,10,356
135,38,7,7,-12,8,7,-49,-42,286
19,-34,-44,-3,2,71,159,97,-35,79
-9,-6,-8,42,54,98,88,75,-94,-106
5,110,111,81,94,94,-63,10,-93,-270
34,267,271,113,139,88,-165,-62,-100,-354
41,124,151,123,93,59,-253,-129,-245,-265
-62,-22,-9,62,78,87,-240,-61,-156,30
-112,-136,-187,-43,22,77,-204,61,79,203
-73,-137,-139,-55,-16,53,-54,40,76,134
-63,-96,-64,-2,1,44,278,5,-16,-22
-47,-49,-32,4,-7,5,376,67,22,-51
1,174,167,21,48,-7,233,74,138,-51
1,332,315,77,123,13,104,-8,103,-189
-25,45,39,52,23,-33,8,-38,-75,-217
-56,-104,-208,-41,-40,-46,11,17,-29,-85
-11,-108,-215,-77,-60,-38,-4,48,-10,-61
-63,-128,-145,-85,-53,22,-20,66,43,-36
-100,-110,-94,-49,-20,57,-61,-8,-28,-58
-61,-58,-55,-60,-32,9,-62,-68,-53,0
-53,-34,-68,-105,-56,-4,-19,-13,64,69
-54,-127,-127,-101,-61,75,64,-16,31,78
1,-107,-104,-85,-56,236,225,-22,4,62
56,-54,-57,-45,-25,324,420,36,6,-15
58,-2,-9,34,69,236,262,47,-41,-120
9,32,61,129,147,67,-155,55,-49,-147
0,119,171,200,202,-24,-380,4,-44,-127
110,422,384,238,256,29,-375,-192,-32,-58
39,516,396,143,233,69,-177,-229,125,6
-77,143,49,14,25,-81,3,-89,85,-26
-46,-144,-207,-92,-154,-245,55,80,72,57
37,-177,-172,-152,-201,-299,120,194,118,142
107,-90,-75,-55,-126,-268,14,116,20,192
4,-116,-94,-39,-95,-228,-30,118,75,222
-33,-104,-53,-58,-98,-187,36,118,156,216
104,19,47,-33,-102,-173,13,11,46,119
72,-19,-5,-22,-94,-120,18,37,52,42
5,-30,16,22,-25,-33,56,30,-9,-67
-10,0,68,73,30,-2,32,-56,-163,-149
0,-16,43,33,-7,-20,0,-20,-88,12
-22,-29,0,-1,-34,0,22,54,7,107
-5,-1,28,19,-15,0,-6,29,-2,93
38,58,51,41,21,8,-29,-25,-13,86
51,67,70,84,61,18,-59,-88,-114,12
46,42,86,70,67,21,-59,-89,-128,-88
-25,-33,18,6,25,9,-22,-18,-30,-175
-117,-65,11,33,59,29,19,6,-30,-254
-120,-100,-62,-10,23,-36,5,48,106,-59
-35,-127,-141,-113,-77,-159,-28,63,216,121
8,-32,-52,-121,-88,-168,-31,92,293,152
47,285,292,-30,43,-40,22,100,378,165
15,322,349,44,124,96,43,14,157,46
-88,22,67,37,51,87,8,-29,-102,-109
-62,-17,24,65,33,35,-55,-86,-201,-123
-22,-26,-24,14,-19,48,-34,-55,-162,-103
-24,-90,-105,-43,-59,90,22,-5,-112,-94
-13,-119,-114,-55,-39,106,59,-18,-104,-45
-4,-52,-36,-36,0,81,43,-60,-96,8
11,-73,-86,-3,-11,43,12,-15,-86,39
25,-89,-158,0,-33,21,21,47,-53,61
-19,-84,-76,17,-29,12,22,45,-59,-4
-71,-75,-14,44,8,22,22,11,-92,-69
-2,-8,-29,45,8,-22,-63,-73,-130,-42
76,39,-10,18,-20,-88,-117,-79,-56,37
230,150,119,10,-44,-143,-125,-120,-35,115
20,-22,-40,-81,-38,-37,43,25,30,21
-158,-203,-170,-97,-20,63,127,129,19,-86
-88,-100,-69,-24,20,78,88,68,-7,-76
-27,-28,8,31,48,73,46,31,-28,-55
-51,-39,-11,32,53,77,35,36,0,-28
-57,-70,-75,-33,-15,79,20,44,29,-31
-24,-54,-78,-77,-65,47,-65,33,80,51
29,222,168,-41,19,39,-93,-33,190,123
55,425,346,-10,93,14,-84,-78,254,133
139,167,110,-39,-30,-83,-110,-66,131,193
104,-42,-28,0,-44,-75,-56,-37,-27,95
85,-50,-21,13,-34,-49,-28,-47,-65,118
2,-43,-9,38,-18,4,-7,-41,-56,78
40,3,55,96,30,37,-21,-94,-155,3
23,-31,-37,50,35,56,41,37,47,123
19,-42,-82,2,17,48,48,116,149,182
60,-61,-62,-29,-6,8,11,74,95,181
47,-60,-52,-24,-5,-10,-8,41,72,127
9,-45,-18,0,0,0,-19,19,2,-45
-58,-74,-31,-7,-5,4,-22,0,-66,-200
-85,-80,-41,0,10,14,-29,-1,-114,-281
-111,-60,2,18,36,46,-29,-22,-128,-336
-84,104,200,13,66,80,-1,-54,-15,-263
-32,238,320,28,82,128,37,-77,49,-152
-25,35,78,-10,3,131,50,-72,1,-79
-64,-140,-90,-18,-20,139,99,-44,-41,-80
-87,-112,-54,39,31,112,94,-83,-105,-56
-96,-59,16,119,88,75,24,-120,-134,123
-100,-46,-36,110,87,31,-123,-68,-53,184
69,44,-27,41,30,-53,-283,-34,58,239
171,105,65,64,25,-113,-398,-133,-31,101
13,-81,-58,-10,-24,-103,-258,-1,42,-86
-72,-122,-166,-21,-23,-65,-142,85,40,-197
-42,-69,-186,3,-12,-28,-62,80,0,-158
70,12,-16,38,-8,-74,184,23,-53,-128
71,-1,10,38,-37,-113,345,47,5,-39
78,-31,-75,-40,-119,-176,204,90,131,90
100,-34,-98,-118,-151,-175,33,98,232,188
27,-118,-95,-119,-140,-137,-53,69,196,232
-21,-126,-93,-98,-124,-111,-86,47,185,201
94,-23,-24,-52,-91,-102,-148,-63,21,156
138,100,92,62,0,-46,-142,-160,-172,48
22,58,95,92,81,64,19,-26,-168,-63
-63,3,65,72,109,128,186,80,-145,-170
148,271,269,110,116,43,174,-66,-118,14
296,604,448,97,127,-32,95,-95,179,283
136,401,207,52,117,-8,61,4,168,189
-103,-110,-159,-38,31,49,145,159,8,66
-84,-180,-141,-66,-31,20,106,135,-21,137
-51,-138,-69,-52,-51,35,48,76,-3,118
-89,-147,-49,-40,-39,87,55,77,10,-4
-131,-152,-73,-42,-31,86,44,97,18,-80
-60,-29,-28,-51,-39,56,12,62,14,-136
-47,-38,-22,-33,-37,44,4,23,-119,-291
-67,-38,-13,4,-5,43,-2,-19,-167,-216
-88,-19,13,16,13,47,32,-17,-125,-140
-70,-16,12,27,8,64,50,-23,-122,-153
-31,-30,-30,-4,-9,48,-19,-51,-105,-118
-2,-44,-128,-54,-53,26,-81,-89,-65,-72
4,-11,-22,-51,-61,38,-75,-103,-50,-9
-14,22,63,0,0,69,6,-74,-29,31
11,20,17,38,37,101,86,-26,-17,95
-10,32,-4,66,73,123,130,22,22,84
-59,22,78,87,82,104,148,33,22,-5
-8,25,76,51,27,-11,109,-18,-11,-97
54,41,39,20,-10,-94,-27,-81,-78,-192
-12,-45,-51,-73,-61,-106,-78,12,70,-159
-71,79,103,-84,14,-23,-136,36,212,-28
86,240,242,-66,60,-59,-232,-18,252,178
97,69,48,-39,57,-128,-291,-19,116,142
19,-48,-41,17,89,-95,-319,-68,-40,41
-1,-71,-50,24,98,-16,-322,-94,-50,69
19,-69,-51,14,80,42,-227,-79,-33,89
46,-52,-29,-11,34,179,16,-52,-43,123
-55,-112,-94,-97,-11,415,341,27,65,116
-69,-115,-86,-49,59,463,401,-55,-13,40
-22,-80,-56,-7,70,280,315,-139,-145,-44
6,-43,-44,-34,54,115,240,-91,-159,-83
7,-60,-78,-81,21,21,110,-132,-186,-61
-37,-57,-106,-64,-35,-26,-38,-131,-141,-32
82,27,-35,8,-114,-198,-248,-12,-31,45
108,60,38,3,-152,-307,-525,113,113,112
55,241,198,-28,-74,-200,-510,114,241,111
23,354,303,-9,-19,-146,-245,78,235,14
55,164,90,36,-80,-245,114,57,65,-28
79,39,-61,70,-90,-287,264,116,0,20
28,-29,-83,10,-113,-249,335,229,66,37
-19,-62,-55,-5,-104,-177,334,215,76,-12
-22,-61,-49,-15,-88,-142,224,211,93,-79
32,51,70,25,-38,-88,100,140,12,-106
22,82,101,67,0,-78,25,57,-30,-62
27,43,57,58,3,-73,3,14,-73,7
-33,-7,19,31,3,-31,23,30,-8,74
-60,-36,-17,5,-25,-44,18,59,68,82
101,53,26,13,-57,-104,-73,-34,0,63
79,60,41,33,-16,-69,-55,-65,-31,2
-1,24,3,0,-13,-9,10,22,30,-16
-82,1,-24,-51,-15,47,74,125,135,-12
-115,-80,-83,-23,-12,56,64,80,87,-20
-90,-78,-80,-5,-2,55,44,40,47,0
-29,-50,-34,4,2,51,20,0,11,42
10,2,4,30,16,35,-9,-57,-36,57
25,18,23,39,38,35,-30,-67,-47,1
-22,-36,-41,-8,167,80,17,-4,-17,-33
-65,1,33,-31,375,127,33,27,36,-18
-99,109,204,-25,435,120,32,40,138,34
-84,49,110,-16,270,46,-9,-11,57,19
-58,-92,-103,-31,40,-22,-82,-91,-78,-12
-88,-146,-159,-62,-110,-40,-94,-120,-154,-61
-121,-159,-140,-63,-175,-64,-57,-106,-155,-109
-171,-194,-161,-94,-217,-113,-59,-76,-75,-87
-199,-234,-213,-157,-264,-181,-81,-2,131,87
22,-105,-157,-185,-293,-227,-127,-34,206,337
143,-5,-67,-55,-191,-158,-116,-88,44,293
84,57,6,116,-38,-12,-77,-114,-100,138
178,110,47,91,-36,56,-34,-54,-73,180
119,25,-70,-8,-55,197,133,132,24,154
-14,-59,-102,-55,-71,255,154,142,-2,11
6,12,21,25,-40,191,49,17,-217,-256
-20,81,106,86,50,170,45,-26,-251,-276
-77,30,45,70,40,142,58,5,-144,-159
-25,-8,10,22,-51,61,25,27,-43,-74
44,31,35,21,-44,5,-35,-32,-72,-23
82,50,55,19,-37,-47,-62,-43,-45,36
62,41,29,9,-31,-48,-44,-35,-7,47
0,1,45,31,0,-11,-21,-2,-9,5
-40,34,72,17,6,5,-3,33,14,-48
-24,300,290,16,61,61,21,24,126,-46
-79,353,374,57,110,167,73,12,98,-150
-115,64,110,49,49,142,60,-2,-61,-205
-67,-84,-46,14,21,45,19,21,-22,15
38,-75,-45,7,20,-60,-39,-16,40,216
134,-10,-30,44,15,-79,-39,-40,-7,189
54,-48,-34,27,8,-11,69,34,34,92
-66,-14,-13,-3,11,-3,72,72,102,18
-64,3,3,9,-2,-28,21,27,-26,-106
-82,-69,-29,9,-24,-61,-6,18,-70,-117
-46,-70,-59,-13,-61,-87,-38,11,-17,-48
-61,-99,-105,-44,-93,-68,-44,23,45,-2
-99,-89,-169,-32,-79,-61,-59,6,55,-33
-112,-84,-132,-27,-64,-63,-23,17,75,-105
42,-18,-29,-25,-40,-36,21,18,59,-52
174,264,197,-13,56,33,102,56,247,32
111,186,113,33,72,62,123,50,153,-27
8,-55,-113,52,50,54,95,6,-69,-95
15,-48,-37,45,49,40,33,-42,-105,-67
47,-11,-46,9,27,28,17,-37,-71,-35
83,4,-126,0,17,15,26,-41,-59,-4
79,4,-116,2,11,14,2,-59,-46,17
100,151,23,5,35,22,-13,-52,96,72
96,136,93,-2,19,9,-12,-34,111,86
4,-60,-2,-6,-7,3,-9,-73,-57,7
-110,-129,-62,-54,-18,20,25,-39,-60,-38
-107,-131,-79,-84,-39,22,71,11,-13,-57
0,-81,-49,-73,-45,10,71,-13,-52,-57
-12,-82,-102,-54,-32,41,104,21,-44,-44
-32,-86,-65,-45,-9,67,80,30,4,12
51,0,31,-6,19,-5,-21,24,-8,89
-16,14,63,50,84,10,84,95,53,89
32,28,68,51,87,41,94,75,44,49
117,19,41,33,57,47,6,39,-22,62
81,33,61,59,86,48,-57,7,-48,33
97,67,109,70,77,-1,-128,-66,-70,65
42,4,86,40,51,-18,-137,-93,-91,79
-18,64,176,-10,66,13,-81,0,87,138
95,292,377,-24,87,-3,-110,-7,194,220
68,147,218,-32,37,-78,-159,-11,107,139
-37,-80,-27,-29,-32,-146,-162,39,17,-6
2,-71,-4,-6,-11,-168,-147,8,-34,-43
-37,-109,-36,-9,13,-126,-69,51,-26,-71
-127,-126,-45,-1,23,-63,-14,94,24,-72
-76,-52,-22,-18,8,-31,-40,30,19,-7
17,24,-49,-91,-40,-53,-100,-2,21,47
54,-8,-119,-103,-83,-92,-198,-91,-64,196
0,-36,-97,-60,-62,-68,-229,-133,-79,266
-42,-94,-129,-91,-78,-73,-222,-94,-4,226
20,-88,-125,-85,-72,-77,-158,-62,57,261
84,-50,-58,-38,-48,-96,-73,-58,57,243
73,-43,-61,-18,-39,-119,88,-39,46,110
66,2,-18,-25,-33,-67,237,28,94,78
73,15,-20,-5,-21,-23,195,41,49,128
76,36,-51,51,4,-9,-8,-20,-61,31
64,65,31,76,7,-29,-180,-98,-127,-199
36,53,62,72,18,8,-168,-131,-176,-302
-83,-68,-40,23,17,66,-22,-23,-86,-313
-118,-131,-96,-22,-13,63,-10,124,89,-276
18,36,37,-12,9,80,-22,102,179,-99
89,362,266,-9,111,137,256,93,291,45
-16,347,212,58,176,103,472,122,234,-138
-215,-24,-5,94,119,57,350,104,-82,-437
-172,-105,-95,40,27,24,189,78,-149,-423
17,-28,-168,6,-33,3,106,48,-183,-357
26,-31,-163,34,-9,26,57,4,-197,-313
19,-7,-52,58,32,17,-12,-62,-182,-247
17,37,53,44,38,13,-10,-45,-86,-173
-39,-71,-27,5,17,24,43,7,-48,-125
-59,-141,-64,-9,-2,15,46,29,-31,-97
5,-60,21,33,5,0,-13,-44,-122,-103
3,-50,17,20,-1,-8,-3,-51,-103,-46
67,-54,-6,-9,-26,-25,9,-28,-38,48
64,-83,-42,-31,-47,-33,2,-2,23,69
57,-22,-13,-30,-27,-28,-28,8,37,20
84,178,143,-14,12,-12,-42,-12,123,90
72,30,34,-61,-28,-25,-36,6,116,148
-20,-116,-113,-58,-32,13,6,51,34,40
-3,-94,-69,-39,-28,9,-21,-3,-9,54
-50,-106,-46,-47,-30,0,-37,-4,11,83
-96,-94,-52,-29,-16,-6,-32,-20,-10,82
-103,-60,-27,-13,-10,0,-44,-57,-45,122
-110,41,99,22,33,47,-14,-48,-11,103
-71,6,68,37,41,33,-24,-77,-88,48
11,-49,-8,36,22,2,-46,-80,-143,4
100,-33,3,32,39,-1,-39,-34,-82,11
121,-12,-84,20,25,-16,-64,-16,-63,58
111,-17,-52,-5,-2,-3,-55,0,-61,53
68,-17,9,1,9,27,-20,-10,-78,-22
43,12,34,5,11,44,7,-7,1,45
57,36,54,-15,-19,15,21,22,104,189
44,-15,-65,-9,-38,-12,-10,11,70,252
56,-34,-185,-36,-49,-19,-35,2,76,237
61,-12,-99,17,-24,-31,-77,-66,-32,52
56,24,63,80,4,-22,-103,-123,-85,-24
62,2,55,35,-13,-22,-82,-90,-30,15
-21,-67,-46,-71,-31,32,39,95,100,-70
-55,160,142,-6,65,83,78,81,112,-209
9,445,361,73,142,68,15,-50,80,-178
-8,196,188,38,68,3,-71,-101,-60,-122
-116,-146,-155,-57,-37,-16,-37,-24,-33,-73
-103,-184,-136,-89,-63,45,78,23,56,13
-1,-123,-69,-60,-50,139,130,-30,45,120
10,-76,-38,-26,-31,169,177,-32,6,143
-45,-52,0,-7,11,140,346,27,47,124
-13,36,69,43,52,79,334,55,97,125
-18,27,-12,127,93,39,11,30,5,40
-99,-68,-94,73,62,10,-110,96,80,-48
-33,-92,-68,-33,-42,-64,-93,71,38,-199
-7,-59,-27,-43,-67,-112,-59,17,-30,-222
0,-38,7,-7,-51,-113,-43,0,-43,-164
-22,-31,29,-6,-33,-97,-34,39,2,-113
42,52,78,-35,-26,-132,-29,25,47,-26
41,-19,-5,-48,-53,-119,-14,24,8,-10
26,-71,-64,-59,-69,-89,-63,17,-32,18
0,-75,-49,-41,-39,-29,-129,-10,-38,50
8,-65,-42,-19,-29,-7,-193,-31,-39,70
46,-50,-76,4,-10,-2,-236,-66,-130,19
17,-36,4,47,23,30,-212,-77,-188,-60
-12,-2,89,46,29,31,-175,-67,-109,33
-23,139,242,8,30,52,72,48,155,337
-18,135,184,-4,15,33,292,121,173,356
2,-13,-86,25,-10,-28,248,81,-21,130
48,-3,-40,84,-1,-69,26,-14,-77,56
70,-23,1,28,-43,-83,-40,-2,-25,68
-28,-119,-103,-83,-99,-55,29,106,99,32
-61,-139,-133,-106,-101,-54,2,116,154,-22
-39,-51,-30,-49,-30,-21,-50,66,95,-92
-34,-51,3,1,26,28,-45,28,-46,-140
-86,-67,-26,31,34,40,-25,13,-80,-113
-88,-16,-48,49,29,30,-51,-59,-113,-131
32,68,-74,63,0,-27,-108,-168,-162,-105
17,17,-39,18,-25,-22,29,-57,-16,-22
-58,-57,-34,-16,-15,22,208,65,48,-20
0,67,85,0,12,18,157,40,47,37
88,312,312,30,84,37,91,27,172,125
75,111,121,26,37,6,78,28,90,78
1,-39,-34,51,24,9,91,39,-15,-51
-49,-20,-40,87,58,38,87,6,-75,-139
-44,-8,11,112,66,24,41,-87,-136,-143
-35,-30,-22,70,29,-3,-2,-68,-68,-82
-32,-26,1,11,-6,8,0,-8,16,-40
-9,219,219,23,79,53,-16,-36,137,11
-27,247,247,43,96,70,-60,-52,159,7
-70,-48,-49,21,6,94,-33,18,48,-74
-58,-86,-158,39,9,85,-45,-15,-9,-95
-41,-80,-112,33,4,2,-87,-39,-9,-22
-40,-103,-74,0,-11,-28,-5,44,82,92
-6,-89,-34,-3,-8,-25,97,69,89,190
45,-28,9,-14,-17,-55,238,39,34,163
45,-5,21,-37,-44,-118,247,31,32,154
20,-109,-78,-53,-63,-116,74,38,24,136
-49,-124,-117,-22,-14,-12,-27,33,3,-4
-19,-48,11,39,19,68,-138,-57,-136,-164
88,27,45,31,-37,43,-265,-86,-120,-110
88,12,-20,-18,-93,33,-299,-45,-37,19
28,-46,-57,-58,-71,79,-112,-38,-35,19
-4,151,128,-50,39,113,164,-31,108,47
-64,294,255,-46,99,96,225,51,279,86
-35,71,83,-29,24,-39,41,39,39,-17
-33,-96,-32,3,-7,-129,-71,29,-126,-93
-30,-84,-35,-2,-13,-130,-84,37,-122,-113
17,-41,-20,-30,-45,-83,-4,8,-151,-102
-61,-84,-48,-23,-22,-8,99,-1,-163,-158
-110,-87,-16,-2,16,33,163,31,-88,-135
-73,-44,26,25,53,64,192,20,-74,-115
-31,-49,-30,20,43,-8,242,17,-50,-48
-16,-38,-34,32,33,-42,348,61,51,31
58,0,23,40,24,-60,104,102,139,112
76,21,34,45,11,-40,-162,70,127,113
56,9,15,37,-11,-28,-269,-13,71,97
27,-33,-33,-16,-47,64,-195,7,60,91
42,6,8,-42,-48,139,-124,-33,33,128
57,-15,-7,-43,-64,79,-106,-75,-46,183
34,-26,-31,-30,-43,65,-36,0,-15,185
-67,-35,-4,22,15,97,-24,-49,-75,41
-94,-64,-18,28,4,10,-102,-120,-99,-15
-40,-72,-54,-19,-45,-71,-120,-58,-4,97
-30,-39,-48,-31,-48,-95,-133,-57,32,208
64,120,42,-39,-31,-94,-147,-74,76,282
51,325,245,-40,41,-40,-72,-5,269,222
5,226,139,-24,31,-52,-57,-13,177,40
19,-2,-51,-53,-54,-96,-3,-54,-33,-165
33,-26,-58,-47,-75,-99,53,-77,-92,-340
-71,-69,-73,-23,-36,-54,79,-3,-102,-558
-150,-102,-89,-21,-13,4,103,89,-79,-524
-150,-95,-47,-1,10,31,100,101,9,-261
-76,2,5,4,19,26,92,74,97,-18
37,66,-53,50,6,-3,-8,-26,31,103
14,42,-18,50,-1,19,3,25,37,82
-81,-35,-8,14,-9,45,86,121,83,-29
-10,-3,28,37,23,38,57,29,2,-106
25,22,31,95,75,47,20,-62,-107,-146
17,6,-88,73,43,21,8,-48,-93,-68
58,107,-59,-32,2,40,60,46,89,77
143,365,227,-22,64,87,52,-21,103,79
70,86,1,-21,-3,68,32,-7,-39,49
-19,-61,-68,45,2,67,8,-8,-103,154
108,17,68,42,-32,-17,-89,-80,-70,379
212,18,13,-44,-111,-73,-107,-53,9,457
146,-78,-84,-92,-125,-57,-57,20,52,305
28,-81,-69,-63,-57,-11,3,17,12,103
-52,91,119,6,33,16,11,-60,76,15
54,43,83,42,-16,-49,-64,-143,-86,-57
27,-61,-7,21,-38,-22,-35,-77,-127,-160
-86,-137,-84,-19,-24,43,56,32,-11,-187
-22,-68,-93,-6,-17,48,37,-19,-44,-167
7,-64,-163,-13,-18,29,2,-22,-90,-145
1,-59,-91,-5,-21,24,-20,-18,-93,-133
82,73,87,55,3,6,-106,-147,-138,-72
65,85,106,68,10,-15,-154,-176,-139,-70
-140,-139,-101,-33,-16,40,-19,76,26,-150
-159,-182,-142,-53,-7,97,66,150,26,-182
-43,-76,-129,1,10,62,56,50,-48,-140
-38,-54,-76,-9,5,24,171,57,-10,-85
-62,-73,-48,-25,-9,3,166,81,31,-63
-42,-25,18,17,33,10,47,51,17,-48
30,232,317,87,139,65,-22,-31,3,5
57,303,382,61,140,60,-50,-35,62,45
44,38,56,-36,13,-14,-79,33,94,82
14,-69,-57,-26,-3,3,-86,25,22,56
0,-67,-38,4,13,9,-99,-5,28,50
16,-57,-39,11,-9,-9,-125,-66,-30,-11
16,-45,-28,7,-19,-22,-130,-63,-23,5
32,22,18,-4,-1,-11,-29,-15,23,43
13,-1,2,-19,3,3,70,17,-6,31
0,-59,-94,-16,-35,13,104,-16,-67,16
-59,-98,-96,-37,-56,15,124,-51,-77,-8
-94,-86,-105,-45,-34,0,91,-46,-52,-52
-81,-69,-57,-22,0,39,43,-61,-39,-41
-48,-47,-8,-12,20,101,24,-53,3,23
-78,-50,-8,-34,26,146,111,58,104,118
67,92,76,-24,4,104,20,115,181,286
146,91,85,14,-4,79,-182,61,103,315
99,56,62,25,4,84,-104,-5,25,226
-10,0,19,-15,-14,102,212,53,44,48
-21,23,34,1,4,129,262,36,-42,-141
-2,54,0,42,42,90,109,-45,-104,-115
-16,6,-60,17,46,-15,23,-6,39,44
148,181,136,-9,48,-111,-26,-10,177,178
242,471,310,-2,110,-88,10,16,392,283
166,306,242,16,82,-65,52,13,246,190
3,20,74,54,38,-66,6,-64,-92,-65
-12,-28,27,32,9,-79,-64,-74,-182,-162
-117,-154,-100,-53,-35,-85,-33,35,-99,-214
-157,-196,-158,-59,-44,-102,-45,75,-73,-184
-53,-92,-153,-34,-49,-140,-53,32,-60,-73
23,17,-2,-1,-5,-111,-60,-13,-48,-34
29,-55,-14,2,-25,-87,-49,-11,-80,-34
-50,-68,-92,14,-5,-42,-38,13,-91,-120
47,35,20,84,19,-49,-135,-106,-198,-135
73,51,98,95,34,-53,-155,-119,-206,-91
-38,-46,37,33,12,-25,-110,-27,-111,-92
-60,-102,-74,-74,-57,-1,-31,81,38,7
-105,-30,12,-60,0,40,21,111,96,-14
-100,88,156,-11,41,42,13,68,136,20
0,-3,-34,-30,-44,-57,-66,-22,41,86
91,-57,-137,-82,-93,-83,-83,-28,60,170
23,-107,-101,-87,-55,-17,7,39,94,158
70,-52,-53,-46,-31,23,37,7,6,126
50,-30,4,16,23,38,9,-61,-75,71
-13,-15,48,28,105,41,-14,-60,-54,-8
-30,60,36,-17,157,49,-5,-3,91,90
-49,-57,-124,-15,111,33,-48,-7,75,214
-10,-71,-56,-6,26,-22,-95,-26,72,308
-1,-28,4,33,2,-29,-104,-96,-61,102
-59,-29,10,46,3,-11,-133,-164,-180,-160
-185,-121,-61,-26,-30,42,-103,-49,-50,-251
-145,-74,-43,-6,-37,74,-110,-26,-57,-325
-86,41,22,26,-19,60,-120,-61,-108,-356
-127,-34,-42,-19,-50,31,-90,-31,-58,-267
36,-14,-32,-31,-104,-35,-107,-97,-85,-120
116,9,-4,-33,-109,-45,72,-47,-27,24
63,8,-3,-24,-87,-25,255,40,60,142
29,36,41,23,-56,-34,219,42,82,202
20,32,35,37,-10,-1,98,70,86,99
13,72,64,38,13,22,23,34,38,-52
-10,302,275,28,75,69,21,27,174,-44
-25,330,303,25,89,88,35,51,246,-19
21,101,97,44,23,36,-24,5,24,-148
47,3,-8,20,-17,1,-18,-24,-86,-156
-45,-61,-41,0,-10,12,81,8,-48,-129
-124,-93,-38,8,3,23,178,32,12,-101
-67,-48,-23,9,-29,-7,241,45,25,-40
88,75,42,0,-50,-72,101,6,40,82
86,17,-17,-31,-54,-81,-21,28,39,96
-18,-79,-77,1,-2,-37,-22,24,-44,-6
11,-49,-39,34,52,-8,-10,-7,-83,-21
9,-60,-41,39,69,17,5,17,-49,-9
-39,-81,-60,22,55,21,12,38,-39,-47
-50,-80,-65,17,32,-3,-5,25,-50,-45
-3,-21,-19,24,12,-36,-44,-11,-35,9
68,63,47,18,-15,-46,-70,-28,30,159
74,-12,-14,0,-63,14,-48,1,4,344
101,-11,-39,8,-65,51,-46,-28,-49,324
135,9,-22,0,-70,-44,-156,-109,-108,225
90,42,36,51,-26,-70,-253,-207,-229,43
15,-36,-30,-1,-39,-64,-261,-123,-123,60
-106,-127,-124,-74,-63,13,-178,48,54,6
-48,124,83,-6,30,114,-148,-13,66,-137
20,404,281,-12,93,120,-10,8,267,-23
47,201,124,-14,44,84,179,51,185,77
13,-73,-84,-16,-13,13,194,69,8,65
25,-96,-112,-27,-20,-15,158,75,-42,10
68,-44,-82,-7,-28,7,218,62,-64,-26
10,-90,-96,-37,-45,86,307,148,7,-70
-32,-84,-103,-60,-52,109,285,154,29,-134
15,20,-76,-7,-37,80,169,-13,-142,-239
-4,-9,-82,17,-28,96,137,-68,-179,-184
-26,-38,-32,4,-8,127,131,-33,-63,-27
28,-32,-47,-9,14,39,-84,-37,-56,43
-11,-69,-60,15,51,-58,-310,1,-29,28
-41,-70,-16,47,71,-125,-288,22,46,-32
38,-13,9,42,46,-114,-117,48,64,-102
22,175,167,84,118,-21,4,56,73,-183
8,273,277,87,123,4,9,31,134,-91
10,46,-23,41,8,-106,-10,23,42,-28
40,-10,-123,16,-21,-163,44,64,17,5
11,-13,-32,37,24,-69,65,63,-4,-13
-62,-65,-22,26,47,56,73,94,20,-68
-59,-71,-63,15,54,162,33,51,20,-53
-22,5,4,-26,45,202,-62,27,77,30
21,145,151,-8,67,154,-128,-3,143,134
-3,5,41,38,25,53,-195,-53,44,131
1,-46,0,6,-17,50,-149,-54,33,143
63,-35,-39,-53,-67,7,-18,-95,13,171
23,-56,-51,-59,-85,-83,88,-112,-17,106
-92,-141,-96,-82,-101,-122,76,-32,-43,-62
-70,-107,-71,-54,-71,-155,-61,-59,-140,-148
-5,10,19,-30,-35,-121,-28,10,-51,-75
-55,-56,-29,-42,-24,-83,58,146,50,-56
-61,-77,-33,-12,-18,-87,57,119,42,-39
-23,-45,-21,-11,-4,-61,38,65,-3,3
-112,-104,-42,4,26,-16,38,49,-42,-91
-15,-44,-11,45,20,-45,-43,-15,-108,-168
189,75,42,81,4,-109,-143,-138,-173,-8
-3,35,59,27,31,-24,-3,31,92,88
-80,272,223,-18,127,94,165,139,316,3
48,301,222,-22,97,71,128,47,175,-8
52,1,9,-12,-7,-2,28,-20,-62,-36
9,-89,-31,5,-17,-12,-35,-33,-132,-64
-9,-78,-30,16,-24,-24,-47,-14,-100,-22
39,-31,-17,6,-23,-36,-31,-7,-57,37
70,-22,-13,0,-11,-16,-30,-18,-61,59
39,7,-18,-38,-20,-34,-5,8,36,138
33,-32,-117,-70,-64,-74,-2,20,75,170
-27,-120,-122,-81,-74,-49,-35,5,45,146
0,-109,-96,-45,-62,-18,-92,-51,19,209
58,-60,-38,-13,-39,9,-108,-94,-33,221
73,-25,-11,3,-5,30,-99,-76,-47,143
64,0,32,42,34,55,-92,-60,-40,12
22,65,110,94,61,65,-102,-116,-82,-151
8,109,134,89,65,36,-34,-145,-115,-223
-19,-21,-98,-13,-14,-4,155,-21,-66,-183
-50,-77,-99,-10,-22,-42,158,18,-52,-169
-38,-60,-19,41,-1,-75,29,-6,-61,-163
-17,-40,-48,-5,-35,-75,16,61,50,-105
-34,-35,-60,-30,-13,3,77,123,69,-124
24,10,5,-16,-5,12,58,90,56,-85
36,173,191,-2,36,14,1,35,131,0
-29,272,322,-12,72,28,-53,17,213,73
-66,84,117,-8,17,-22,-127,-40,75,92
-83,-67,-71,14,-13,-35,-181,-94,-50,70
-19,-4,-15,32,0,21,-183,-155,-106,45
42,-7,-42,-30,-46,12,-98,-76,-38,66
-86,-121,-134,-86,-48,44,212,132,98,33
-89,-79,-59,-50,10,57,364,170,137,22
-12,30,30,5,58,52,256,88,82,-32
-25,-11,9,36,59,43,146,28,-8,-119
-73,-52,-16,12,47,38,144,62,38,-99
4,-30,-24,-19,13,8,112,47,29,-54
-41,-32,-53,-6,-1,6,64,1,-44,-71
-106,-36,-135,28,21,0,36,-12,-67,-101
0,19,-124,8,18,-31,-2,-52,-90,-52
54,155,81,-46,32,13,48,-15,78,69
53,84,20,-29,35,72,98,0,52,75
57,-10,-43,-17,-5,94,123,6,4,102
6,-39,-32,-34,-42,81,109,13,26,151
-78,-63,-26,-37,-45,74,133,11,8,115
-121,-87,-60,-40,-50,53,206,59,71,105
44,-13,-27,-39,-88,-52,-32,84,72,130
113,126,101,-8,-53,-103,-250,47,105,135
61,337,300,23,60,-86,-245,-14,247,162
38,115,100,9,-14,-121,-209,-1,153,388
136,-7,-39,-29,-93,-136,-124,57,75,531
220,12,-80,-30,-92,-118,-102,26,34,589
55,-75,-150,-33,-72,-68,-62,30,55,351
58,-68,-88,-32,-76,-35,-48,15,31,109
83,-15,-46,-6,-51,31,-35,-7,-13,-56
85,89,54,27,6,47,-60,-46,-41,-175
-5,29,-8,64,55,36,-74,-26,-164,-497
-98,-1,24,121,128,41,-50,-18,-265,-694
-140,-43,51,125,130,47,-28,-17,-217,-555
-159,-64,0,78,90,2,-37,-18,-165,-392
-84,-17,4,56,50,-80,-24,-22,-128,-222
25,52,33,32,-11,-141,-22,-23,-94,-74
63,156,147,26,-35,-122,24,-32,-100,-41
48,275,335,22,0,6,164,51,25,-24
40,196,251,3,-16,117,195,77,53,-8
-41,-21,15,6,-33,131,110,34,-69,-86
-61,-69,-95,28,-2,112,32,-17,-141,-130
-41,-90,-65,15,-4,46,-22,-25,-87,-51
3,-76,-38,1,-5,27,-105,-39,-73,-28
-38,-78,-16,0,-2,10,-224,-67,-114,-67
-92,-70,12,5,30,-13,-316,-59,-88,-69
-24,-31,3,33,34,-64,-399,-166,-120,-3
9,26,6,21,12,-52,-413,-202,-90,70
49,20,-5,-7,-14,-39,-364,-133,-75,65
25,-21,-24,-7,-32,-29,-143,-18,-17,41
-29,-54,-117,-32,-42,-7,274,70,38,25
-95,-49,-96,8,12,24,562,113,69,1
-39,58,40,34,21,-1,406,121,133,65
-74,5,8,1,-3,-29,212,100,111,66
-102,-135,-133,-64,-59,-41,132,92,83,127
-27,-127,-136,-92,-102,-73,76,80,132,205
4,-100,-129,-110,-114,-82,41,75,147,200
-31,-96,-118,-96,-89,-59,39,67,154,116
13,-15,-68,-55,-51,-37,57,32,105,28
49,45,-49,-36,-9,-13,67,-6,110,64
118,287,197,-42,40,9,69,16,302,199
137,440,336,-21,72,27,69,34,360,184
23,153,124,26,46,33,57,35,125,10
6,-11,-9,52,34,28,27,-15,-76,-117
104,-12,-32,12,-9,-10,-7,-28,-114,-74
34,-77,-96,-2,-22,-14,-15,-19,-117,-38
-51,-87,-87,5,-8,-7,-21,-3,-71,-20
42,37,-27,27,-3,-8,-14,1,15,70
68,20,-79,24,5,-11,-19,-6,-2,152
-23,-94,-96,61,50,8,-31,-56,-127,97
-46,-83,-121,62,46,-2,-34,-51,-103,89
42,-42,-85,22,12,-22,-51,-46,-132,20
64,-55,-13,3,11,-15,-62,-42,-173,-63
-31,-105,-50,-19,4,16,-28,-5,-148,-183
-4,-63,-49,-60,-22,6,-80,-10,-75,-178
34,77,49,-96,-7,-14,-123,-1,122,-11
-15,-63,-50,-77,-25,-44,-158,-23,25,3
-17,-93,-48,-21,6,-4,-103,-57,-110,-50
-33,-81,-3,10,51,58,-39,-35,-154,-117
-40,-67,13,30,76,61,13,-36,-170,-157
-26,-21,39,46,66,24,88,-44,-143,-133
36,-3,6,11,-3,-38,11,-13,-37,-4
15,29,41,-48,-26,14,-19,66,155,129
-99,83,141,-40,33,110,59,96,247,75
-90,-41,-11,-12,12,52,179,21,53,-52
-34,-46,-36,26,14,72,341,18,6,-50
-1,7,-86,45,26,99,294,11,-4,-27
9,9,-91,51,28,78,176,11,-14,-18
12,6,-16,42,13,32,77,17,17,-9
67,34,23,23,-13,-2,58,23,87,72
70,46,34,10,-6,31,80,32,176,145
0,-37,-62,-2,-11,39,59,1,101,118
-12,-53,-34,-12,-12,52,46,5,38,69
-91,-76,-89,-4,-12,38,50,-29,-23,54
-78,-65,-66,0,-28,-31,0,-61,-1,182
-4,-25,-11,-19,-51,-69,-1,-59,-14,192
-29,-53,-53,-76,-79,-87,57,26,11,62
-64,47,8,-71,-37,-65,38,66,33,-71
0,327,310,11,94,-17,-141,77,100,-22
11,261,285,78,149,0,-232,73,39,-29
-70,-32,15,60,100,-10,-193,63,-17,-29
-4,-72,-63,-5,32,-14,-188,32,-12,-31
87,-13,-51,-3,15,17,-176,-27,-114,-133
14,-45,-34,-4,18,60,-146,-25,-158,-200
-27,-54,-16,-5,17,60,-131,-14,-156,-169
-61,15,60,30,64,79,-139,-58,-148,-136
-46,-23,23,61,39,31,-145,-82,-157,-35
77,16,37,55,1,-74,-134,-64,-83,178
143,39,52,58,-7,-118,-84,-41,-44,401
64,-56,-45,9,-9,-79,-45,33,41,432
-75,-148,-111,-20,-11,-35,-45,74,112,250
-37,-97,-70,-22,-56,-98,-73,7,52,61
20,-6,-9,-73,-118,-140,-50,-35,62,-122
-9,-21,-45,-108,-159,-63,-43,-28,66,-214
11,-60,-76,-99,-154,46,33,-15,9,-163
-70,-119,-99,-87,-78,118,148,68,13,-217
-89,-123,-74,-42,-13,119,109,40,-63,-271
-39,-62,-19,-7,4,48,35,-36,-118,-258
-48,-36,0,10,11,3,41,-68,-134,-259
-30,12,23,11,13,15,62,-36,-82,-200
41,315,265,0,84,29,64,-9,140,-39
41,401,327,0,111,61,98,20,218,4
-35,78,67,13,42,48,98,49,18,-118
-57,-76,-54,23,15,29,59,9,-100,-130
5,-57,-42,5,-18,-8,0,-9,-61,5
54,-19,-13,28,-17,-14,-40,-35,-61,30
59,19,8,52,1,18,-6,-44,-77,52
3,-5,-5,16,3,41,22,2,7,133
-9,-55,-35,0,1,17,15,-27,-26,97
0,-100,-101,-34,-31,-18,34,-9,6,74
35,-64,-90,-32,-48,-25,48,18,57,56
6,-28,-27,11,-20,-15,28,-10,29,-4
-114,-100,-47,-3,-9,-4,53,35,74,-81
-142,-105,-61,-10,-6,-13,42,21,1,-250
-31,-61,-39,-1,-12,-22,4,-16,-39,-165
-14,-52,-20,29,20,12,23,-12,-39,10
-28,-52,-37,19,28,-16,-26,-22,-20,162
-10,-52,-59,-35,-12,-54,-119,-41,16,176
-7,-74,-95,-78,-44,-54,-337,-97,12,116
7,-38,-69,-78,-45,11,-512,-178,-29,1
-36,-36,-31,-36,-13,156,-504,-159,0,-75
8,-9,2,-16,-30,170,-419,-131,28,-64
174,220,197,13,17,118,-199,-140,67,85
172,394,360,-3,86,151,223,-7,231,205
40,146,143,-65,11,87,580,143,215,123
12,-76,-84,-60,-58,-26,722,235,107,40
78,-9,-95,28,-21,-98,464,229,76,86
5,19,17,131,64,-77,190,134,-18,2
4,-41,6,66,29,-58,136,132,5,19
60,-18,23,41,19,-18,104,106,-18,23
43,30,75,45,30,7,82,74,-2,3
44,-35,1,17,9,-32,39,48,-30,30
46,-65,-41,1,-9,-61,37,42,5,101
16,-96,-62,-27,-41,-72,36,49,63,75
-20,-93,-57,-19,-37,-54,36,49,26,10
-28,-89,-67,-14,-34,-28,18,29,-2,119
34,-46,-82,-10,-44,-11,1,8,-32,242
62,202,184,74,67,50,-2,-82,-74,101
51,496,468,113,166,109,23,-92,33,-143
-23,270,284,64,100,80,26,-43,-42,-360
-46,-34,-30,-10,-13,37,6,-62,-189,-307
-14,-122,-182,-88,-76,-9,-5,-74,-161,-73
-72,-193,-188,-124,-93,-44,16,-37,-72,48
-56,-167,-126,-94,-85,-96,33,-28,-21,63
7,-66,-45,-20,-19,-99,11,-54,-41,55
49,35,29,19,31,-86,-109,-25,-7,63
3,-33,-16,27,25,-58,-263,50,-7,-67
-27,-53,-26,22,31,-18,-282,27,-9,-145
-56,-51,-27,31,30,-22,-258,-29,-20,-123
-69,-38,-49,41,37,-19,-199,-70,-69,-93
-23,-15,-11,46,49,1,-159,-52,-58,-76
34,11,25,23,25,14,-140,-27,1,-8
85,79,90,24,12,-12,-132,-63,-2,70
-8,-33,-5,-30,-18,-20,-2,45,78,79
-85,-114,-89,-33,-29,1,145,120,42,-20
-107,-100,-91,-7,-16,27,147,91,-2,-43
-66,-64,-105,-1,-42,3,71,44,11,18
-7,-40,-176,-13,-44,-27,81,47,58,52
49,-2,-147,-10,-14,-29,71,1,12,89
34,9,-32,7,1,-14,32,-16,-7,70
16,2,7,14,13,6,19,-7,4,120
-29,-45,-59,-12,-5,7,18,28,71,190
-33,-51,-108,-33,-34,-12,-4,19,39,102
-26,-21,1,-31,-39,-20,-25,17,33,31
-3,10,32,-27,-35,-18,-20,14,39,-28
87,56,51,-10,-26,3,-9,-49,-61,-65
-7,-20,2,-16,-4,107,78,5,-18,-77
-117,95,164,1,64,173,115,25,80,-133
24,341,388,-2,69,72,19,-68,86,-71
13,152,198,-28,2,-40,-44,-45,12,-64
-8,-58,2,-13,-31,-85,-86,-54,-100,-70
51,-52,-25,7,-42,-91,-103,-62,-106,35
30,-64,-40,-5,-53,-77,-19,9,-60,51
-80,-104,-29,7,-15,-35,31,29,-90,-53
-28,-30,37,5,-31,-68,-35,-27,-25,60
111,123,120,-35,-49,-81,-36,7,133,168
64,-55,-43,-24,-38,-54,-16,38,28,60
-21,-116,-95,-7,-6,-14,-15,21,-41,3
-57,-105,-82,-16,0,4,1,40,-5,-51
-45,-67,-45,-17,7,-8,10,23,-5,-62
23,-23,-17,4,67,-18,92,9,18,17
20,-22,-31,6,119,-26,115,18,51,44
-2,155,119,1,180,15,59,18,199,72
6,267,182,22,177,67,52,19,256,67
-27,3,-13,46,63,45,51,-9,0,-40
-27,-43,-3,54,8,-8,11,-34,-91,-53
81,2,4,53,-48,-90,-77,-87,-98,57
