10,-110,214,25,3,-8,-19,11,-1,112
-1,-75,290,25,14,-16,-11,-4,35,52
-3,14,412,35,41,9,17,-17,129,41
-27,-176,173,14,-14,-27,-7,-17,-25,-49
-32,-175,19,1,-29,-38,-10,-25,-64,-97
-19,-73,-72,0,-24,-31,3,-28,-65,-148
-26,150,-53,19,-14,-21,11,-12,-68,-190
-28,428,7,20,-20,-10,2,1,-59,-187
-1,555,30,11,-25,-13,-29,3,-43,-128
41,697,224,2,16,5,4,-18,130,-26
48,581,317,-7,31,7,14,-42,212,18
31,-35,10,-18,-53,-57,-27,-41,-51,-54
38,-251,-80,-8,-46,-66,-9,-25,-78,-30
33,-261,-90,-3,-12,-37,2,-1,-61,16
12,-206,-96,8,9,-32,14,7,-54,39
-2,-163,-121,8,20,-34,16,8,-52,20
4,-98,-78,14,37,-16,28,12,-1,31
15,-3,-10,17,46,14,43,17,59,72
19,-53,-58,5,15,9,30,18,-20,49
33,-71,-54,1,6,10,9,8,-51,29
51,-78,-41,-5,-3,3,-3,0,-62,26
37,-78,-30,-18,-17,-6,-10,-10,-61,2
14,-71,-18,-16,-22,-19,-40,-18,-87,-26
14,-21,3,-9,6,-17,-46,-28,-52,8
4,-35,-7,-15,2,-15,-41,-29,-38,4
-19,-102,-24,-25,-29,-29,-41,-21,-61,-38
-14,-124,-27,-11,-39,-30,-28,-11,-63,2
4,-109,-36,-3,-34,-18,-11,-10,-53,21
14,-104,-53,-1,-26,0,-25,0,-46,6
8,-91,-45,-10,-33,-7,-37,8,-42,-12
9,-62,-53,-8,-40,-21,-46,-5,-45,-15
32,-26,-32,2,-10,-24,-31,13,-7,-13
38,10,-24,0,8,-11,-7,26,41,-3
8,-24,-15,6,-3,-8,-8,25,20,-27
-5,-16,-3,17,-7,-3,-1,26,22,-46
-3,-9,0,12,-26,-12,7,16,30,-51
4,-9,18,-1,-28,-25,11,5,38,-28
0,-4,11,1,-18,-9,13,10,41,19
17,16,25,-1,-14,-6,15,23,62,107
44,226,253,-4,35,20,48,37,231,224
61,461,445,-9,112,71,94,51,419,289
43,224,188,-36,55,38,69,40,239,152
18,-28,-44,-45,-24,-20,33,18,20,8
-4,-45,-54,-43,-29,-31,14,10,-7,-8
0,-37,-104,-44,-34,-11,10,4,-34,-12
6,-42,-96,-43,-25,2,33,-6,-74,-86
-21,38,48,3,26,20,60,-9,-52,-173
-8,337,346,49,123,77,103,-14,206,-103
-13,326,295,80,121,76,98,-13,216,-42
-32,27,-117,80,59,35,43,-10,-28,-51
-37,-74,-190,38,31,36,34,3,-79,-52
-48,-105,-148,0,6,37,10,8,-101,-65
-42,-110,-120,4,11,28,-31,7,-119,-47
-43,-121,-115,15,-14,13,-47,6,-129,-70
-37,-46,-42,25,-9,17,-43,1,-76,-95
-37,-75,-85,28,-31,4,-49,0,-120,-119
-54,-118,-210,9,-39,-13,-51,-2,-134,-108
-74,-118,-158,-7,-31,-20,-39,-23,-111,-102
-78,-107,-18,6,-31,-26,-38,-32,-91,-63
-59,-92,4,15,-33,-27,-45,-29,-43,204
-30,-87,-3,13,-37,-24,-46,-15,8,512
-7,22,49,-18,-29,-19,-7,2,146,481
19,139,120,-50,-15,-19,28,7,315,562
36,-55,-63,-80,-78,-71,-34,-2,172,502
46,-59,-101,-84,-96,-99,-54,-16,159,381
46,-30,-88,-99,-94,-106,-55,-25,158,285
57,-34,-90,-168,-98,-98,-64,-39,89,209
98,-3,-120,-233,-58,-59,-44,-36,32,124
140,42,-92,-250,-26,-26,-38,-47,-24,60
151,79,-36,-226,8,0,-14,-40,-28,44
139,99,-44,-229,54,40,34,-23,-51,-32
151,138,-132,-355,110,100,120,13,-72,-229
144,172,-193,-332,176,178,203,90,20,-366
81,150,-82,-26,209,196,222,118,82,-397
28,120,153,290,180,141,163,53,13,-333
-9,103,184,451,120,81,101,-19,-78,-281
-31,143,119,420,91,91,103,-30,-58,-214
-52,266,349,271,89,109,124,-22,106,-116
-178,9,371,313,-28,-47,-25,-121,-93,-228
-273,-186,280,476,-111,-177,-162,-205,-255,-313
-253,-242,120,373,-107,-165,-141,-159,-209,-269
-172,-212,29,124,-121,-140,-120,-102,-128,-157
-102,-163,24,18,-131,-123,-105,-65,-88,-33
-53,-108,25,-50,-122,-90,-62,-3,-28,48
2,154,221,-91,-31,10,31,46,177,96
74,364,332,-105,41,56,78,57,341,189
97,134,52,-168,-52,-3,21,41,196,164
102,-35,-159,-226,-129,-30,-5,58,111,132
102,-30,-198,-262,-62,18,18,87,126,176
111,4,-224,-247,37,72,51,101,121,368
130,56,-196,-175,59,76,85,97,85,417
69,40,26,-110,23,30,66,53,30,179
-74,-36,202,20,-3,-32,-13,-44,-127,-158
-206,-162,139,230,35,-71,-109,-138,-352,-445
-230,-146,21,223,92,-19,-94,-124,-332,-387
-183,-142,-66,-27,69,22,-56,-81,-263,-194
-77,-101,-98,-159,34,45,-3,-49,-201,-74
-25,-64,-129,-96,20,35,31,-32,-149,-78
-7,-25,-106,30,39,24,32,-36,-112,-107
27,89,54,216,94,49,46,-23,-24,-90
41,62,58,366,99,47,36,16,-25,-103
73,37,-31,259,102,75,53,58,0,-100
107,38,-139,-37,104,115,84,73,28,20
107,13,-245,-257,100,147,86,59,28,96
32,-45,-248,-285,53,81,35,11,-18,37
-107,-95,34,-73,-56,-50,-51,-73,-83,-90
-150,21,302,208,-83,-82,-50,-92,8,-138
-157,322,557,452,-15,-52,-17,-91,282,-99
-151,253,449,416,-39,-65,-19,-64,247,23
-106,-63,125,238,-95,-48,-28,-15,-46,367
-71,-126,25,203,-77,-8,-5,29,-94,340
-43,-99,-5,69,-100,-36,-18,44,-50,204
-36,-109,-49,-34,-126,-62,-75,25,-20,397
-24,-140,-61,-50,-128,-73,-116,-6,6,443
52,-70,-1,-55,-109,-84,-122,-40,86,380
118,-115,-53,-59,-145,-134,-171,-76,22,344
116,-120,-78,-84,-190,-162,-167,-98,-17,197
57,-108,-85,-95,-175,-138,-133,-71,0,-12
-7,-118,-93,-102,-143,-104,-93,-15,40,-77
11,-60,-74,-130,-87,-54,-56,13,18,-102
59,35,-46,-192,-15,-10,-42,15,-36,-188
89,192,49,-194,49,14,-14,19,42,-197
116,221,59,-212,37,0,-13,28,193,-57
152,14,-232,-394,-31,-38,-16,63,200,122
168,-62,-338,-586,-51,-3,60,147,275,209
156,-60,-262,-354,-62,-30,75,114,256,209
163,-7,-127,154,-71,-84,27,13,126,241
164,25,-7,522,-104,-110,-57,-113,-6,401
140,45,145,557,-121,-116,-77,-142,4,521
122,270,426,289,-44,-20,20,-37,272,502
142,285,322,30,-12,25,62,69,402,556
158,21,-65,5,-82,-52,-42,-20,53,351
89,-42,-146,-34,-87,-69,-80,-105,-211,-139
-79,-98,-139,-149,-80,-26,-12,6,-114,-398
-160,-135,-208,-276,-81,-1,58,138,115,-272
-126,-113,-252,-312,-46,1,64,193,306,41
50,49,-102,-195,-26,-53,-20,117,366,335
330,259,54,-180,-42,-111,-91,-14,257,407
455,267,-55,-412,25,-15,-26,6,69,407
341,157,-206,-638,158,167,132,160,32,642
273,40,-237,-583,253,266,210,159,-56,704
95,-31,-15,-226,220,210,163,28,-216,503
-188,-49,259,208,109,68,1,-150,-470,-155
-332,-32,274,444,56,15,-22,-154,-480,-699
-333,162,377,497,73,33,43,-34,-5,-555
-237,172,389,520,59,38,18,32,244,-268
-205,-96,104,388,-20,-36,-62,37,76,-486
-182,-133,-21,60,-57,-84,-120,-3,-14,-664
-125,-139,-8,78,0,-43,-98,-10,-55,-472
-157,-160,92,300,32,-12,-87,-31,-77,-72
-199,-159,152,332,28,-3,-58,-33,-41,187
-199,-39,152,242,39,40,10,57,182,220
-214,4,108,164,38,77,55,103,231,1
-153,-169,-151,-14,-21,33,44,140,212,554
32,-142,-271,-183,-56,-32,22,203,549,2411
361,11,-251,-238,-132,-109,-89,125,574,2825
585,104,-319,-396,-251,-208,-211,-26,178,1155
685,54,-492,-525,-292,-251,-260,-159,-166,45
783,-6,-560,-541,-335,-313,-294,-260,-148,59
624,-45,-260,-420,-393,-373,-318,-299,-8,217
389,-75,-25,-181,-289,-274,-219,-288,-426,-554
267,48,14,18,-50,-49,-1,-150,-709,-1285
255,192,46,50,180,197,209,94,-422,-1203
469,427,275,164,370,292,219,45,-292,-575
270,514,345,139,530,347,181,-57,-431,-617
-251,401,185,-139,603,439,302,108,-348,-1119
-380,308,55,-365,543,513,451,383,62,-931
-283,384,385,-172,463,507,482,446,371,-201
-367,200,375,351,331,376,368,338,285,-505
-374,-132,51,841,228,239,216,220,85,-605
-551,-289,245,1079,35,-15,1,11,-62,-465
-642,-325,228,846,-103,-161,-115,-122,-198,-809
-383,-239,62,283,-122,-144,-90,-115,-263,-940
-115,-130,-28,-102,-60,-52,-41,-28,-150,-464
-81,-81,-79,-38,-4,-53,-66,-47,45,439
-152,-215,-299,-99,-65,-150,-159,-99,168,550
96,-173,-539,-562,-251,-246,-249,-145,313,750
546,-57,-592,-828,-441,-347,-312,-101,581,1944
878,16,-425,-775,-471,-389,-321,-77,632,2266
803,19,-78,-436,-327,-278,-247,-86,402,1220
453,7,186,47,-157,-143,-128,-46,110,269
229,94,327,220,-124,-212,-182,-161,9,722
163,123,282,-62,-122,-296,-259,-223,44,1239
16,-63,-15,-710,-128,-242,-174,-72,34,503
-205,23,-142,-695,32,41,137,280,267,-548
-378,157,-171,232,300,436,522,619,366,-1288
-534,212,175,1294,421,596,621,528,-97,-2059
-911,91,660,1928,527,620,573,285,-693,-3070
-1051,67,764,1473,524,615,518,84,-1052,-3492
-944,464,755,437,396,544,449,-81,-929,-2994
-693,525,357,-459,209,388,299,-116,-711,-1922
-182,383,-243,-1131,66,250,188,-47,-628,-861
91,312,-691,-1635,7,165,143,3,-384,-15
98,78,-869,-1624,97,127,101,51,-160,45
50,-189,-576,-764,132,-62,-112,-148,-251,-30
17,-273,-150,398,105,-210,-262,-323,-435,-242
6,-198,170,1167,120,-66,-77,-200,-427,-609
-222,-83,613,1614,66,-66,-81,-298,-660,-909
-473,-125,518,1381,-80,-170,-111,-258,-530,-479
-656,-300,35,402,-135,-252,-134,-144,-100,596
-673,-311,-202,-327,-46,-202,-89,-31,175,651
-136,-44,-309,-100,56,-70,-8,67,328,665
365,61,-466,18,17,-6,23,115,436,1629
472,126,-198,-88,-10,-15,4,112,622,2918
459,448,173,-320,66,24,40,72,903,2898
306,297,-108,-300,36,59,112,159,889,1901
-32,-114,-287,958,-84,-6,69,120,502,803
-290,-305,72,1406,-271,-198,-147,-104,349,8
-183,-352,390,619,-529,-451,-606,-376,343,267
22,-207,494,143,-568,-483,-743,-438,163,-139
186,-51,384,-51,-511,-384,-617,-384,101,-558
194,5,309,-271,-499,-269,-437,-221,290,-388
103,31,160,-382,-463,-98,-215,68,594,-468
242,114,19,-564,-328,-48,-157,210,685,-689
444,263,20,-727,-27,84,-131,117,330,-913
48,130,63,-264,245,209,-53,83,83,-1041
-596,-154,-34,188,334,226,-16,113,78,-953
-743,-177,75,173,300,196,5,126,128,-921
-310,75,267,51,223,152,-42,55,141,-608
187,288,257,-256,14,87,-87,6,265,130
14,-55,-145,-518,-87,-12,-126,27,218,108
-14,-191,-458,-635,-80,-121,-225,-50,204,114
331,-119,-397,-519,-194,-330,-420,-261,188,316
577,0,-168,-242,-135,-341,-445,-285,266,482
439,124,-96,50,137,-103,-242,-123,223,14
37,247,-98,-16,298,180,0,29,-3,-874
-67,483,-204,-549,308,310,146,85,143,-533
-48,522,-185,-850,160,236,172,104,630,662
123,65,-254,-894,-219,-57,-60,40,693,1632
608,-222,-465,-798,-477,-191,-167,121,635,1992
1063,116,-235,-408,-420,-96,-68,177,508,1517
932,281,38,62,-145,-18,-50,62,172,662
762,186,-1,762,238,70,-9,-10,-64,388
411,126,-116,1892,469,265,189,92,-151,311
75,-65,-263,1415,397,358,286,182,-96,253
39,-314,-222,-409,168,218,132,123,-29,332
-192,-427,181,-936,95,35,-91,-43,-36,392
-582,-381,281,-23,306,45,-179,-218,-341,-17
-942,-221,82,513,542,420,196,85,-495,-1081
-886,112,118,507,537,595,413,231,-663,-1726
-186,435,540,689,210,330,156,-65,-814,-1499
102,446,979,749,-188,40,-58,-167,-532,-1113
-507,-18,738,176,-210,67,69,96,-195,-1163
-995,-351,454,101,12,174,196,222,-298,-1640
-865,-334,442,483,106,44,19,-69,-684,-1604
-524,-312,193,389,63,-103,-121,-211,-663,-905
-288,-257,-197,-281,-108,-135,-55,-59,-249,-416
-163,-157,-282,-660,-278,-195,-117,-137,-148,-297
-98,52,-338,-735,-112,-82,-61,-211,-269,-412
-24,550,-95,-831,290,273,245,-53,-59,-482
72,624,33,-1055,285,362,339,109,213,-214
48,153,175,-1013,105,306,261,188,91,-16
-44,-189,-17,-275,43,231,227,275,176,248
-17,-327,-46,510,-171,-40,53,189,245,530
-149,-449,479,1239,-459,-438,-307,-149,51,491
-150,-498,476,1104,-499,-607,-514,-415,-63,926
200,-382,120,200,-491,-587,-532,-443,46,1768
512,-257,-7,-139,-411,-459,-390,-302,182,2144
445,-192,-14,-44,-208,-202,-100,-21,136,1381
139,-129,3,92,22,102,201,264,87,415
127,69,155,231,126,164,188,120,-167,28
-137,38,128,344,104,105,80,12,-264,-420
-632,-214,-116,323,130,176,240,257,15,-722
-493,-217,-198,97,214,286,405,461,80,-864
-168,-50,-9,-21,261,305,353,331,-246,-1149
-1,102,-82,-137,120,64,35,-104,-501,-606
215,153,-605,-529,-55,-160,-161,-253,-245,787
747,233,-978,-875,-163,-199,-164,-167,71,1614
803,278,-1160,-980,-143,-52,-12,8,239,1338
680,400,-1155,-835,37,191,183,116,195,753
698,377,-340,-158,165,270,203,31,-203,208
246,400,1189,879,283,198,77,-282,-787,-526
-874,307,1748,1060,372,265,199,-165,-711,-1605
-1009,-79,674,24,213,356,455,352,-173,-1607
-478,-179,212,-157,59,222,346,333,-340,-1459
-500,-214,326,415,5,31,84,25,-624,-1261
-605,-338,42,331,-57,-108,-66,-117,-541,-857
-450,-277,-109,-289,41,-99,-34,-84,-304,-570
-139,-146,-209,-616,183,-71,3,-32,-19,127
-10,-116,-345,-91,171,-23,70,75,196,719
184,-34,-528,436,92,96,215,278,304,873
439,176,-439,934,65,92,206,247,298,1315
478,147,-386,1373,10,14,140,188,260,1473
528,22,-266,584,-130,-75,53,114,107,833
512,22,-271,-664,-274,-191,-47,-38,-91,43
224,-10,-463,-1186,-376,-203,-27,-27,23,250
-40,163,-264,-1140,-360,-126,98,100,429,1122
-65,369,350,-558,-98,-31,83,63,711,1270
48,30,360,-16,-121,-241,-197,-106,510,737
112,-289,190,89,-436,-491,-316,-13,371,123
40,-277,255,220,-304,-415,-275,-101,-169,-523
-207,-266,251,229,-84,-277,-204,-247,-762,-1087
-215,-302,68,47,-53,-159,-85,-132,-616,-894
48,-118,155,20,36,-23,-10,-109,-490,-363
-106,55,111,-11,174,138,159,4,-550,-691
-395,-70,-33,-28,256,298,353,191,-533,-1104
-431,-16,-40,14,242,290,335,128,-530,-1045
-351,57,-199,79,177,267,294,90,-378,-653
275,243,-423,-213,56,207,224,23,-207,232
1217,572,-173,-176,-101,-18,-28,-140,-141,764
875,346,-192,914,-9,-24,28,54,145,446
296,126,-176,824,270,154,181,128,81,173
277,161,-23,-250,371,163,101,-42,-194,270
297,92,-542,-1018,354,115,52,-20,-5,499
115,2,-649,-1281,333,6,-77,-48,46,354
258,210,-426,-1592,431,104,-45,-131,-180,29
348,335,-662,-1967,664,467,393,219,-15,-183
-264,77,-573,-1348,716,578,602,404,-7,-701
-760,-142,-169,558,381,347,397,186,-176,-1038
-482,-69,-9,999,-250,15,147,33,-54,-592
-342,-143,522,1192,-638,-373,-170,-154,-73,-254
-419,-305,1300,1318,-901,-795,-587,-536,-408,-55
-406,-372,966,955,-1005,-820,-621,-555,-405,80
-249,-261,416,358,-805,-535,-352,-226,-66,86
-83,-63,418,160,-314,-223,-117,-15,-59,-234
-211,76,735,754,284,38,9,-23,-285,-600
-417,112,632,704,298,141,160,137,68,-341
-295,299,438,-78,121,195,265,292,551,6
21,121,40,-757,-54,93,199,241,465,241
144,-266,-210,-560,-182,-189,-116,-24,170,508
-28,-544,-171,156,-327,-586,-539,-380,138,1020
-27,-600,-155,221,-550,-754,-649,-403,242,1219
-9,-430,-132,11,-459,-474,-318,-69,196,566
-11,-22,64,93,-67,-62,-21,-7,-176,-259
322,611,470,114,100,51,-19,-176,-270,-322
265,347,151,-52,61,115,88,3,-204,-444
-78,-72,-338,-120,124,224,266,307,-15,-544
-285,-81,-257,418,308,253,264,344,15,-434
-158,110,48,1601,350,147,112,142,-12,-183
210,163,-155,1193,106,-18,-30,37,220,393
304,-13,-467,-307,-86,-49,9,123,445,879
33,98,81,-683,-96,-81,-26,27,418,747
-333,181,276,-238,168,7,-43,-101,133,81
-319,-86,-286,-5,414,205,84,-91,-301,-421
14,38,-488,-189,513,347,167,-69,-319,-208
290,36,-604,-410,296,234,83,-91,-170,391
516,-6,-491,-344,69,49,-31,-115,33,859
264,-195,-389,-369,-60,-61,-55,89,331,738
-57,-34,254,-114,10,-92,-84,122,154,0
-210,213,283,-296,176,159,107,218,-31,-630
-260,-59,-627,-1142,42,323,352,424,149,-440
-235,-252,-241,-611,13,200,258,284,143,5
-682,-420,706,971,8,-137,-133,-145,-224,2
-848,-491,569,1248,-12,-154,-131,-112,-230,-155
-542,-389,203,206,-41,-44,-7,22,-112,-297
-293,-339,-63,-654,107,31,37,20,-62,-275
-135,-315,-352,-537,299,137,93,32,-94,-230
96,-145,-461,-192,286,207,130,28,-143,-333
217,35,-417,720,188,162,88,83,-14,-379
255,191,-153,1288,66,17,-5,63,88,174
447,250,142,343,-148,-146,-114,15,231,1494
578,185,249,-465,-333,-261,-189,-3,307,1984
355,-76,98,-832,-343,-218,-94,124,425,1420
-71,-350,233,-432,-327,-247,-118,50,293,637
-222,-319,341,95,-273,-249,-194,-132,-20,-189
-207,-222,33,190,-173,-144,-135,-136,-75,-1017
-191,-251,-98,78,-191,-102,-107,-89,241,-695
17,-166,-190,-127,-121,10,7,70,479,-81
238,0,-146,-285,-75,97,173,327,642,195
2,-27,171,-179,-45,80,170,312,422,-96
-321,-181,261,78,-29,-43,-3,80,49,-413
-344,23,225,-5,45,-10,24,24,-88,-716
-19,723,464,-34,215,148,168,11,-243,-798
195,875,260,34,310,212,165,-145,-759,-910
72,441,-158,-7,276,235,202,-59,-771,-957
-132,82,5,-195,62,58,70,-57,-542,-790
-185,-31,-112,-131,56,75,110,94,-303,-571
69,103,-131,305,171,120,158,138,-110,-306
25,145,226,555,72,-24,14,-28,-83,-355
67,393,421,59,-27,-11,48,-14,299,39
-34,198,271,-148,2,18,88,9,299,293
-216,-257,193,467,-28,-180,-138,-212,-242,41
63,-213,-110,611,-78,-251,-281,-237,-321,294
244,-50,-371,86,-90,-184,-291,-166,-370,666
323,46,-538,-685,-76,-70,-97,-71,-59,1000
436,-2,-676,-977,-74,-13,2,50,196,919
120,-5,0,-406,-69,-106,-54,19,163,108
-313,-47,709,343,50,-25,13,-16,-200,-538
-436,-192,356,534,125,131,152,97,-202,-406
-417,-250,-21,153,17,60,101,77,-81,-35
-251,-191,-115,107,-62,31,78,102,-4,-89
200,-8,-98,284,-121,-6,1,70,49,9
345,55,-16,137,-238,-87,-47,30,8,261
37,6,-72,-326,-287,-2,128,271,378,397
15,244,154,-748,-175,0,84,171,584,503
-72,-36,-39,-900,-28,-38,-23,3,113,-54
-240,-292,-371,-353,151,108,130,175,76,-192
-69,-167,-305,153,66,38,27,106,164,259
309,29,-314,218,-109,-168,-210,-153,124,694
187,-87,-193,45,-287,-295,-257,-175,172,707
-96,-148,457,286,-317,-320,-290,-202,33,335
-321,159,932,623,-52,-168,-204,-196,-28,-190
-721,-36,528,591,185,152,128,114,-116,-945
-983,-208,200,267,378,449,433,292,-232,-1140
-789,-102,24,-18,319,374,384,258,-32,-667
-107,96,23,694,186,110,119,101,140,-83
853,274,-109,1351,200,134,110,82,69,157
980,258,-554,26,184,333,363,283,41,31
489,126,-417,-689,29,118,120,27,-86,69
97,-138,-323,-293,-49,-192,-256,-356,-347,227
-140,-411,-792,-606,-137,-160,-166,-186,-258,267
43,-208,-240,-732,-150,-39,-37,-8,-25,292
-27,23,533,211,5,28,-8,-40,-30,-60
13,162,352,1585,121,121,45,-62,-102,-122
263,275,-15,1002,-92,121,79,-1,44,109
611,319,-179,-961,-278,124,175,171,319,303
654,527,463,-1056,-180,-19,-75,-157,48,45
-337,141,529,-193,155,-157,-314,-470,-329,-703
-694,-424,-165,-139,297,-52,-155,-224,-213,-575
-108,-362,-430,-488,69,-73,-70,1,67,87
49,-223,-83,-420,-177,-231,-187,-37,113,283
-232,-220,81,21,-204,-213,-196,-82,31,110
-337,-244,36,173,-123,-194,-222,-199,-173,-50
-117,-85,25,76,-2,-81,-126,-156,-143,174
220,7,-171,-177,8,97,30,-19,24,694
355,-92,-265,-407,-78,59,-9,-67,42,864
-43,-217,-133,-92,-123,-54,-53,-77,98,459
-263,-292,-238,318,-108,0,56,71,160,156
-375,-266,8,276,53,206,288,306,122,-419
-453,-176,338,262,166,223,290,330,49,-808
-328,17,407,330,122,16,7,34,-118,-645
-343,69,353,224,99,-24,-51,-41,-147,-378
-311,-97,220,64,71,21,19,-61,-183,-189
-222,-170,101,-56,-4,8,46,-40,-22,-53
-211,-193,-54,-209,-67,-52,16,39,131,-110
-181,-26,-176,-505,67,-7,2,-35,-105,-406
-177,93,-184,-476,283,149,59,-68,-285,-649
-98,-13,-439,-67,251,270,170,81,-65,-244
-100,35,-469,263,90,245,243,195,298,189
-197,502,481,668,27,37,71,7,481,202
130,559,722,331,-220,-264,-236,-277,242,336
405,174,254,-274,-447,-442,-415,-405,12,636
153,-21,-35,-359,-386,-363,-310,-256,113,557
46,-81,-70,-145,-249,-201,-140,-82,147,242
401,-8,-3,5,-166,-158,-149,-223,-90,317
316,-5,-33,6,-106,-106,-115,-225,-192,362
-1,-37,-100,-110,-85,-57,-31,-21,46,197
61,-142,-216,-177,-113,-119,-92,-9,155,260
276,-117,-260,-221,-155,-177,-122,0,313,785
427,-63,-351,-277,-100,-85,-10,127,355,1039
617,99,-349,-276,-20,-50,-11,65,186,890
383,134,-366,-292,-13,-41,-29,87,245,659
-181,-68,-499,-326,23,124,183,378,410,8
-162,47,-161,-93,109,215,223,305,60,-706
-30,110,248,191,244,305,236,147,-342,-1142
-359,-3,296,319,284,314,281,192,-236,-1141
-400,-4,247,326,293,311,285,183,-164,-904
-125,-81,172,52,191,215,196,114,-75,-258
186,-107,129,-268,45,-8,-14,-41,56,756
244,-2,-29,-255,5,-89,-147,-167,30,1215
172,121,-111,-7,205,171,83,-5,-105,285
-62,331,163,133,366,373,297,191,-1,-668
-563,311,445,340,351,345,267,125,-33,-1142
-764,-123,476,632,66,44,0,-84,-246,-943
-418,-247,410,602,-164,-177,-176,-220,-325,-421
-196,-201,115,372,-210,-214,-205,-172,-174,-173
-239,-279,-151,378,-66,-98,-97,-13,-48,-164
-208,-225,-161,391,-44,-66,-32,24,12,144
25,-24,-50,33,-174,-156,-112,-101,45,836
233,-47,-77,-385,-272,-237,-206,-163,47,1235
145,-279,-237,-356,-275,-266,-223,-102,66,948
-227,-227,-211,-51,-139,-171,-110,-5,78,122
-21,195,-7,22,-46,-96,-78,-74,-152,-557
139,375,62,50,50,4,-35,-128,-391,-891
-347,122,-80,134,199,168,127,-8,-412,-1241
-546,4,6,272,305,254,229,111,-268,-1246
-368,406,384,197,377,277,264,153,149,-711
-203,509,358,-90,335,289,274,173,393,-228
-143,65,-15,-227,227,264,247,182,129,-231
-157,-196,-50,-62,179,161,130,46,-77,-247
-60,-266,-27,22,50,-64,-78,-137,-137,-167
60,-252,-10,-131,-115,-191,-191,-169,-51,-32
96,-224,-213,-444,-249,-143,-81,32,169,240
30,-104,-134,-217,-124,-32,31,87,159,224
-238,-79,-3,247,-1,-86,-48,-48,-40,3
-152,-116,-167,-34,-4,-146,-129,-143,-140,113
281,-76,-351,-376,32,-126,-131,-103,61,590
534,-23,-493,52,26,-7,-43,16,224,956
252,0,-527,127,-9,158,151,232,340,775
31,37,-133,106,-46,91,127,187,300,381
262,75,49,-182,-201,-111,-68,-17,103,13
391,126,36,-528,-378,-265,-189,-120,96,-72
413,93,33,-481,-452,-343,-265,-175,141,497
618,91,166,-13,-376,-424,-378,-225,313,1186
716,59,-20,135,-275,-389,-351,-191,362,1121
440,5,-105,42,-146,-188,-139,-75,214,449
194,45,-28,44,36,-1,-19,-93,-93,-172
19,42,-36,17,146,119,102,-20,-238,-791
-102,37,-57,-66,152,155,174,125,-58,-1135
74,87,-109,-224,59,90,76,112,116,-551
173,58,-75,-158,3,13,-35,-43,70,169
437,167,-150,63,-67,-69,-111,-117,77,827
854,354,-102,-20,-170,-80,-97,-43,149,1140
703,359,-133,-436,-84,186,186,200,76,519
212,231,-144,360,210,553,577,538,14,-507
-206,166,455,1586,343,504,468,374,-275,-1076
-382,208,653,959,440,374,328,260,-77,-950
-386,263,429,315,556,341,279,190,14,-753
-499,-21,93,18,464,201,136,1,-319,-802
-434,-213,28,-637,258,85,46,-98,-448,-632
-520,-285,588,-160,98,-31,-69,-164,-467,-681
-680,-406,437,317,-88,-233,-259,-294,-553,-919
-620,-365,161,349,-178,-357,-377,-404,-589,-848
-396,-70,210,69,-149,-260,-256,-276,-235,-451
-201,210,267,-211,-53,-129,-104,-106,168,-80
-137,-86,-37,-221,-52,-95,-94,-75,21,-17
-126,-248,-124,-170,-70,-78,-99,-88,-50,-34
-61,-180,-45,-66,-39,-104,-144,-130,-31,106
120,-67,49,-56,-26,-145,-208,-203,-17,466
187,-78,-54,-106,-23,-104,-158,-172,23,741
-4,-197,-233,-157,-2,39,56,95,244,621
81,-1,-221,-384,-16,105,155,222,545,581
399,80,-340,-553,-157,-61,-7,83,424,673
504,138,-153,-314,-202,-187,-159,-57,241,735
410,139,-69,-110,-131,-158,-150,-144,27,648
145,-7,-130,-132,-81,-50,17,12,72,252
9,-81,-38,-54,43,42,108,98,111,-50
43,-8,99,47,92,44,64,1,15,-23
-119,-43,66,42,68,47,65,30,143,186
65,-27,-12,6,-3,-2,-30,-46,65,266
190,-67,-46,57,-43,-18,-78,-112,-67,73
107,-114,-89,123,-33,-17,-39,-69,-56,-100
117,-46,-158,42,-45,-63,-48,-74,55,7
88,51,-236,-243,-62,-94,-99,-49,229,137
129,13,-236,-628,-55,-118,-126,-11,292,328
18,-89,-346,-544,91,57,95,238,413,381
3,436,-102,240,289,244,237,177,318,222
98,676,129,455,242,270,218,31,78,77
-41,37,-278,71,36,188,167,83,-72,-51
-114,-194,10,-86,-169,-6,-20,11,-198,-409
-155,-166,411,247,-198,-114,-135,-107,-383,-816
-199,-193,304,321,-145,-52,-72,-97,-387,-610
-110,-148,49,-10,-138,-11,-33,-51,-236,-196
50,-10,-182,-261,-106,4,-18,8,-9,-62
315,84,-215,-142,-56,-40,-61,-67,10,143
442,84,-192,-4,-74,-87,-120,-135,10,625
232,-52,-259,-34,-53,-15,-46,-5,106,648
-63,-105,38,-12,-41,-35,-31,42,42,119
-197,-13,208,102,5,-36,-78,-19,-50,-305
-247,-47,-72,31,37,55,9,41,3,-206
-343,-88,-10,214,40,87,102,92,-52,-242
-299,-26,237,394,26,104,165,139,-29,-370
-173,-33,61,-5,-1,178,295,255,73,-527
-102,-62,91,-176,50,153,223,180,88,-605
125,-133,58,87,38,-28,9,-18,14,-476
447,-190,77,252,-2,-114,-78,-86,-81,-334
248,-211,152,281,15,-61,-58,-116,-207,-176
-91,-169,211,207,40,-49,-80,-166,-273,-94
12,162,334,83,85,0,-43,-118,-75,63
171,567,463,-97,25,-38,-70,-143,169,458
33,292,175,-143,-66,-80,-95,-82,128,601
-141,-60,-69,-39,-95,-76,-60,32,10,525
168,89,8,105,-87,-84,-97,-35,-21,524
371,156,-62,92,-27,-30,-35,-13,100,424
-121,-97,-317,-35,176,234,260,276,192,-242
-206,-105,-419,15,267,333,325,295,-3,-637
37,56,-245,115,202,220,144,72,-290,-615
-28,-71,-24,209,63,41,-34,-85,-420,-480
-131,-198,60,281,-77,-154,-202,-200,-332,-313
-287,-201,-47,59,-150,-226,-228,-160,-136,-321
-203,-126,-98,-214,-121,-142,-140,-75,-76,-242
12,-60,-107,-257,0,0,-5,1,-105,-294
327,111,-143,-356,51,74,77,88,13,-214
354,403,50,-423,103,144,128,128,218,-64
116,454,290,-252,152,134,109,45,220,-109
-26,-27,-56,-65,43,0,-70,-86,-75,-94
61,-91,-202,-226,-143,-121,-178,-87,25,247
163,-87,-340,-530,-258,-99,-97,96,268,574
160,-115,-305,-336,-137,28,40,183,296,613
60,-72,159,269,16,40,16,39,57,463
-128,0,400,581,28,-53,-77,-85,0,290
-92,126,313,202,35,-147,-129,-130,241,320
32,-159,-170,-306,-30,-243,-236,-140,315,540
319,-129,-316,-57,-100,-212,-215,-61,454,882
452,-42,-364,249,-41,44,32,137,338,893
155,-4,-231,252,90,216,217,124,-104,411
-84,-24,-75,-85,44,146,146,79,-316,-77
-126,-78,-182,-405,-36,50,12,-9,-392,-467
-304,-85,-194,-325,68,76,60,-52,-244,-626
-138,61,-46,4,100,41,13,-92,-258,-414
307,197,-204,0,58,17,-11,-110,-149,91
-131,65,-95,137,75,5,14,-12,-32,99
-465,59,218,166,61,30,38,32,-54,-146
-453,5,55,-158,24,120,146,161,113,-150
-69,82,228,-129,-19,58,78,91,98,-29
228,124,579,490,21,-43,-68,-98,-148,-189
-60,-47,483,666,5,-68,-65,-120,-275,-683
-215,-75,210,363,-23,-35,-13,-50,-239,-804
-148,-23,32,119,5,12,20,13,-62,-513
-96,11,44,-14,47,33,32,39,12,-337
61,50,5,-51,99,23,-10,-5,11,-109
238,14,-193,-212,12,-4,-50,-25,100,200
237,-24,-302,-278,-75,-15,-30,34,211,238
189,261,69,-67,-72,-13,-35,23,260,14
38,523,671,268,-18,-5,-23,-2,277,-239
1,302,466,208,-116,-76,-66,1,138,-195
182,69,-47,-43,-223,-123,-97,8,121,276
380,73,-199,-134,-203,-138,-107,-22,106,742
383,79,-153,48,-31,-48,-66,16,50,725
195,31,121,348,85,8,-27,24,-9,466
-18,4,231,360,141,75,38,-8,-133,156
-136,2,2,3,115,104,90,-3,-146,-98
-29,-36,-82,-197,-24,-20,-37,-74,-144,22
-103,-107,-104,-319,38,34,-1,-21,-54,227
-114,-118,-178,-458,31,61,58,49,68,161
107,54,-173,-588,-89,-6,43,69,218,54
325,238,-193,-593,-108,8,44,47,139,23
237,266,-47,-50,9,114,128,103,38,-179
28,420,329,454,190,188,176,92,127,-451
-26,590,369,327,270,166,145,59,301,-431
-59,229,52,110,150,17,2,-48,79,-342
-98,-115,-81,65,-24,-116,-108,-114,-65,-200
-161,-242,-201,-94,-171,-172,-103,-18,94,-21
-183,-227,-189,-134,-197,-135,-57,83,82,-73
-152,-100,-15,2,-102,-51,-40,36,-88,-141
-10,12,-26,-56,-27,48,39,69,-24,93
174,54,-235,-149,104,165,104,106,113,417
102,-124,-278,53,147,111,34,22,12,375
-132,-235,-1,315,35,-59,-104,-107,-120,117
-104,-271,-4,203,-187,-238,-191,-148,-67,230
-96,-302,-63,172,-231,-246,-171,-97,-7,260
40,-226,-83,214,-42,-136,-112,-103,-60,234
347,-36,-149,27,33,-52,-49,-18,19,466
297,215,13,238,99,118,104,153,195,393
98,247,118,416,117,200,149,124,161,151
64,-3,-18,223,29,35,-19,-67,-48,173
138,23,-83,-336,-133,-183,-221,-262,-168,170
122,46,-259,-480,-180,-185,-208,-245,-61,144
74,34,-352,-499,-72,-4,3,-17,152,46
9,20,-190,-562,30,99,131,127,221,-90
-15,-21,-200,-473,148,149,141,94,50,-146
-108,-115,-230,-109,187,125,99,40,-132,-317
-230,-190,44,42,69,47,43,28,-201,-508
-344,-114,429,350,118,87,98,15,-302,-704
-317,-119,329,474,28,15,40,-62,-307,-444
-213,-182,18,297,-95,-69,-42,-107,-138,111
-345,-286,44,148,-138,-100,-49,-45,126,442
-311,-208,151,112,-151,-159,-86,-27,326,863
-12,103,296,10,-171,-193,-158,-74,444,1419
35,3,175,-8,-83,-101,-73,12,287,971
39,-53,59,30,82,96,110,115,-33,-73
-82,12,55,0,161,217,188,126,-204,-708
169,152,-180,-299,1,100,68,51,-162,-595
651,322,-343,-525,-122,-11,-35,-48,-223,-550
475,190,-61,-226,-22,13,22,-21,-267,-858
286,289,201,321,121,58,63,-16,-206,-915
330,756,514,510,163,64,42,-89,62,-600
263,628,452,333,123,80,71,-12,187,-316
86,104,10,-35,23,69,65,52,-3,-223
9,-27,-127,-204,-14,52,27,31,-50,-100
-19,-17,-32,-89,-78,-33,-71,-51,-90,167
-49,-50,6,140,-17,-64,-130,-110,-131,324
-84,-53,9,273,123,-40,-116,-126,-66,263
-187,-20,121,206,159,-4,-32,-46,70,21
-330,-141,140,193,146,36,41,50,29,-199
-408,-147,142,189,132,67,68,57,-88,-302
-340,-125,78,62,61,41,76,63,-128,-225
-235,-184,-65,-93,17,7,62,53,-81,54
-146,-225,-216,-173,-26,-55,-27,35,36,165
281,-25,-353,-322,-156,-174,-126,37,252,328
665,170,-293,-408,-194,-190,-134,25,359,447
543,143,-107,-173,-47,-15,-20,63,154,242
199,54,3,141,148,126,94,72,-121,92
31,59,-12,126,206,159,132,121,1,227
186,97,-69,-36,171,135,81,101,95,472
345,105,-254,-353,79,123,80,102,160,568
355,41,-330,-476,41,127,136,131,182,293
185,-29,-176,-37,82,94,87,24,-50,-280
-100,261,249,362,109,7,-14,-152,-91,-605
-168,527,527,492,146,-6,-52,-221,54,-358
70,247,10,445,29,-1,-19,-75,174,210
337,20,-424,266,-151,-66,-46,49,352,596
590,127,-111,-31,-324,-284,-244,-79,382,710
483,155,143,-237,-325,-324,-277,-98,169,344
80,141,47,-462,-37,-16,-38,-26,-203,-337
-127,130,-114,-656,281,207,108,-121,-475,-698
-266,-55,-277,-207,464,296,167,-61,-532,-723
-243,-227,-405,266,344,311,189,170,-332,-468
56,-80,-492,43,129,350,352,337,73,-2
95,-54,-149,2,-33,154,179,187,74,204
-158,-170,339,285,-294,-255,-232,-171,-145,49
-175,-306,135,224,-482,-414,-344,-283,-214,283
-65,-311,105,-71,-445,-345,-290,-263,-162,562
-91,24,511,32,-202,-207,-197,-180,130,453
-220,86,524,169,-27,-74,-55,-4,242,-7
-180,-69,271,218,35,4,-11,-3,-82,-474
-184,-123,204,257,21,19,14,33,23,-490
-252,-251,53,231,-42,-51,-14,107,220,-291
-164,-248,-40,90,-64,-89,-56,74,194,-198
45,-74,-25,-50,-19,-47,1,73,142,-61
152,281,207,12,71,42,96,95,77,-113
203,478,180,51,122,132,145,32,-39,-118
205,81,-374,-275,70,171,214,97,-111,4
-24,-164,-360,-423,124,211,251,183,-88,-143
-288,-204,-47,-144,201,168,187,121,-156,-285
-169,-132,116,22,83,19,31,-24,-160,-70
47,-3,68,97,-4,-33,-44,-92,-155,143
214,103,-34,33,-31,26,-6,-22,-82,336
219,156,-27,-225,-67,103,83,95,136,421
-4,-56,-100,-222,-43,94,69,91,166,314
-229,-250,40,97,-16,-86,-121,-83,122,201
-240,-289,201,247,-64,-197,-219,-112,152,242
-306,-357,134,230,-110,-139,-143,-29,115,134
-111,-144,140,203,11,-51,-72,-105,-138,-63
294,63,102,183,14,-94,-137,-269,-250,0
50,88,70,122,24,-57,-82,-169,13,-96
-364,367,319,197,191,98,110,35,403,-266
-168,319,296,388,129,65,99,74,337,-80
181,32,-53,260,40,8,26,9,29,316
-122,-129,-362,-244,92,121,140,73,-29,214
-304,-239,-388,-486,59,109,92,3,-99,152
-176,-265,-400,-495,-53,4,5,-50,-89,304
-20,-197,-433,-449,-103,-55,-25,-32,-82,257
146,-13,-259,-241,-23,-10,17,28,-36,-28
325,-34,-326,-118,-16,-2,18,55,-36,-134
380,-2,-331,-151,-9,19,35,75,-43,-184
162,64,269,155,-58,-73,-50,-26,-178,-464
-234,-199,392,337,-85,-141,-114,-63,-106,-486
-254,-427,8,-65,-178,-199,-183,-35,160,109
129,-251,-85,-269,-181,-271,-227,-52,249,534
450,9,-111,-309,-4,-87,-95,-40,-22,282
337,39,-202,-240,152,179,128,25,-294,-121
121,-68,-280,194,91,200,187,59,-271,-255
-230,-194,68,820,49,99,111,31,-278,-580
-435,-187,471,732,-38,-39,4,-50,-349,-666
-264,-67,498,90,-156,-144,-108,-191,-441,-364
-149,-105,158,-128,-131,-129,-101,-118,-209,37
-218,-139,64,45,-15,-57,-2,73,87,128
-187,150,278,-19,129,101,132,191,325,137
11,297,368,-271,132,157,170,170,334,67
252,141,75,-149,49,49,54,38,41,-134
271,62,-153,1,-31,-30,-47,-46,-128,-265
337,174,-109,-112,-86,-64,-92,-71,-95,-167
371,197,1,-392,-95,-15,-12,36,70,-7
364,152,-144,-524,-42,85,104,142,230,259
288,104,-51,-192,-13,78,79,162,263,316
64,75,354,533,-16,-60,-85,-24,16,-24
-71,-41,271,553,-62,-84,-98,-18,-15,-151
-136,-105,62,108,-60,1,-11,72,45,-125
-216,-193,-144,-143,3,50,33,100,112,-104
-176,-156,-151,-120,-15,-9,-35,-5,37,-97
-159,-94,-82,-80,-22,-39,-87,-116,-74,-166
-190,-57,-120,-206,-11,21,0,-56,24,-143
-139,148,67,-255,36,109,119,58,245,-7
-214,-76,138,79,76,92,72,2,-10,-27
-153,-177,115,314,47,8,-12,-84,-106,106
-30,-188,-20,158,-48,-74,-80,-88,27,361
54,-170,-128,-34,-116,-129,-127,-68,129,536
256,34,-5,-3,-154,-200,-206,-151,76,672
405,129,60,-12,-188,-238,-267,-262,-20,941
194,217,58,-112,-110,-128,-141,-145,184,975
1,423,158,-118,26,23,59,75,382,420
207,183,8,19,54,118,149,155,-64,-147
111,0,-112,93,52,203,217,167,-241,-374
-291,-230,-174,208,21,206,241,211,-124,-510
-126,-224,83,432,20,121,125,105,-217,-455
-87,-174,241,408,-32,3,-11,-13,-271,-502
-223,-109,204,159,-4,-47,-90,-121,-282,-672
-117,83,155,18,136,-42,-129,-218,-204,-538
-169,-73,-78,-158,117,0,-39,-105,-177,-382
-295,-193,-252,-247,55,84,116,106,-87,-304
-248,-135,-245,-165,18,62,87,66,-54,-121
-157,-176,-223,-76,-8,20,46,14,-17,114
39,-154,-249,-153,-50,-31,-3,1,82,295
272,-105,-375,-369,-72,-83,-51,-10,160,383
396,-54,-487,-397,-60,-88,-57,17,265,447
360,28,-374,-438,-27,1,13,116,426,472
352,88,-384,-492,-32,120,115,228,437,303
175,143,-247,-122,20,121,109,151,149,-42
7,154,364,344,44,-36,-21,-67,-156,-195
-171,-5,476,363,0,-122,-75,-125,-135,-148
2,-16,-29,-119,-60,-134,-93,-130,77,325
227,56,-294,-333,-123,-207,-171,-131,335,792
-159,223,314,-35,-38,-146,-129,-23,425,606
-594,214,675,75,167,129,121,150,202,166
-394,11,368,301,211,202,161,99,-159,207
-288,-85,219,881,111,140,82,25,-206,439
49,-17,155,695,-1,168,120,98,-74,418
289,-102,100,92,-77,179,203,258,101,145
296,-289,19,-230,-227,17,82,156,-28,-211
529,-112,-1,-194,-264,-194,-181,-187,-264,-430
430,29,-80,-330,-280,-314,-314,-276,-232,-499
140,93,-111,-410,-114,-167,-179,-94,-137,-698
148,197,-87,-193,132,65,-16,1,-231,-758
251,180,-213,-238,158,165,86,75,-195,-508
259,64,-319,-384,60,108,42,109,-32,-84
197,-109,-353,-160,-43,-32,-141,-5,-144,181
209,91,-32,98,-75,-123,-147,-130,-12,277
114,588,698,299,76,-15,-13,-93,235,69
-164,534,751,726,163,105,127,32,273,-292
-452,-41,128,932,106,79,115,49,-14,-469
-392,-259,-288,365,66,33,69,24,-142,-303
-168,-196,-163,-133,12,-43,8,-14,-104,-116
6,-70,207,-112,-20,-131,-85,-111,-117,43
129,-56,85,108,-6,-115,-90,-134,-140,268
104,-22,-180,-56,61,21,47,32,73,274
37,-90,-487,-581,108,148,200,260,306,120
-40,-142,-322,-461,121,88,121,174,57,-211
-183,-158,89,121,102,-4,-54,-65,-332,-538
-314,-289,83,157,26,0,-61,-74,-330,-527
-394,-311,208,175,-28,0,-32,-35,-187,-356
-321,-281,188,239,-77,-52,-37,-10,-42,-179
-224,-157,136,146,-101,-88,-51,-2,47,-167
-53,190,203,45,-32,-41,-38,-6,181,-43
33,-13,-4,-25,-49,-73,-82,-25,49,167
111,-116,-154,-79,-96,-140,-141,-64,44,541
130,-113,-205,-71,-88,-121,-140,-72,26,692
13,-147,-176,-43,-44,-52,-84,-75,-12,645
-91,-235,-128,-96,-66,-58,-51,-28,137,800
4,-186,-97,-159,-170,-134,-99,-31,242,1163
220,-32,-109,-215,-195,-144,-99,-10,326,1498
384,193,87,-165,-75,-47,-29,23,292,1130
279,210,114,-60,66,28,37,92,355,272
-32,-61,-163,-90,48,-11,11,70,310,-519
-183,-228,-303,-132,75,61,69,97,127,-1100
-87,-144,-224,-16,176,164,128,92,-111,-1339
-11,-6,-152,-37,183,127,74,-20,-356,-1204
102,38,-250,-145,154,96,28,-41,-375,-626
105,-9,-238,-100,147,178,106,97,-333,-534
10,-78,-148,-17,111,167,120,98,-322,-489
-50,-75,65,196,55,68,25,14,-252,-166
-112,-92,258,263,-23,2,-44,-4,-130,-9
-84,-91,130,-30,-161,-63,-70,28,-37,-41
14,0,73,-128,-225,-107,-89,-15,-71,-45
69,93,76,-42,-151,-86,-50,-23,3,249
146,352,330,24,-57,-56,-35,-6,221,498
-20,586,641,61,119,75,55,49,380,232
-303,464,638,16,227,146,116,74,385,-216
-37,395,474,-267,80,-4,-34,-22,366,-105
483,182,-319,-987,2,-56,-94,-76,173,260
383,48,-794,-862,284,219,162,150,128,43
-148,-123,-706,328,522,433,348,288,7,-460
-164,-124,-637,642,332,392,301,198,-73,-443
-8,80,-271,343,84,191,172,85,17,-175
-272,-112,770,555,-229,-296,-276,-324,-489,-447
-190,-133,882,681,-320,-419,-403,-438,-570,-312
-52,-129,258,321,-228,-213,-176,-197,-251,21
-23,-153,22,230,-160,-79,-49,-57,-71,134
176,-87,14,248,-143,-112,-90,-75,35,416
185,-52,-133,358,-53,-106,-95,-27,157,450
175,58,-34,402,43,-61,-57,10,212,336
13,-119,-177,-91,-5,-6,0,111,232,235
-206,-240,-279,-570,-55,58,89,173,150,45
-255,-116,78,-356,-3,40,41,-17,-169,-120
-444,-192,224,26,69,40,9,-122,-388,-295
-531,-301,-65,-64,-5,-12,-35,-110,-242,-120
-333,-254,-205,-331,-115,-55,-53,-52,22,164
-7,-21,-34,-237,-87,-61,-34,-19,161,155
389,552,380,-59,-11,-42,-26,-6,458,169
593,682,423,-36,-30,-22,-35,-23,417,126
203,106,-27,61,-52,17,14,14,-2,-181
-128,-123,-99,82,-14,87,63,38,-187,-335
-113,-72,18,-19,15,131,92,63,-160,-209
-113,-94,118,20,-16,77,52,32,-146,-149
-46,-106,135,51,-73,-50,-65,-92,-93,205
-85,-217,31,23,-99,-83,-69,-72,32,450
-230,-374,-102,6,-97,-90,-20,23,120,415
-156,-319,-177,-89,-91,-88,-33,-11,73,380
-162,-262,-175,-81,73,26,2,-61,-136,117
-43,-288,-203,-140,180,117,73,-31,-243,-80
284,-198,-285,-201,190,127,71,-61,-271,-186
321,-71,-292,-187,123,80,33,-55,-93,20
202,33,-146,-259,-16,-15,14,1,125,601
50,57,-141,-330,-134,-86,12,23,238,1001
-116,-19,37,-52,-125,-102,-16,63,283,764
-314,-83,248,415,-51,-103,-45,9,191,94
-466,-97,90,304,-36,-55,-10,-32,35,-540
-435,-50,8,31,38,36,61,-4,-105,-940
-247,-75,-32,-45,111,97,105,24,-149,-871
456,45,-112,-127,88,91,97,40,-49,-414
541,316,-50,-183,110,96,121,61,166,-296
157,509,329,-29,130,37,111,81,395,-280
59,202,462,297,71,-129,-98,-112,108,-218
76,-39,252,168,-67,-236,-205,-212,-130,-68
81,-20,38,-146,-145,-147,-71,-81,-93,-27
18,-12,-93,-173,-66,-11,42,22,-109,-32
-190,-173,-198,22,-61,-32,-11,-3,-131,259
-39,-137,-270,135,-112,-114,-110,-101,-118,855
408,74,-329,20,-118,-102,-107,-61,7,804
674,75,-343,-214,-79,11,46,154,248,529
513,-5,-94,-232,72,141,172,209,237,241
-51,-134,113,141,150,113,128,118,27,-408
-364,-175,156,233,56,34,71,47,-22,-818
-379,-104,99,128,-26,-13,22,-21,3,-620
-330,-35,16,80,-3,-23,14,4,81,-266
-282,313,263,-40,114,42,70,23,217,-141
-199,568,437,354,228,144,156,88,423,-148
-25,222,152,553,169,169,183,135,218,-211
390,-80,52,364,16,72,68,39,-174,-189
393,-144,114,-129,-150,-53,-33,-85,-346,-268
-135,-191,91,-199,-198,-124,-92,-171,-376,-454
-135,-136,-77,-39,-165,-146,-123,-179,-208,-205
54,91,-171,-101,-136,-93,-103,-117,-51,-53
-50,133,-209,-317,-77,69,71,79,44,-163
-221,-82,-135,-171,-25,118,152,140,-82,-348
-26,-51,104,70,-54,-43,-41,-42,-180,-200
131,-36,223,61,-102,-178,-225,-188,-190,53
78,-132,74,18,-77,-117,-184,-107,-104,41
-5,-115,-27,44,-42,-26,-95,-13,-61,-77
-32,-35,-117,24,-10,41,-28,24,-139,-64
32,-51,-65,-5,3,40,-35,-38,-194,127
-23,-96,-34,-23,15,29,-32,-35,-122,7
-77,-44,-72,-55,11,4,-20,12,-56,-68
-13,-3,-60,-98,-7,-14,-16,60,7,0
56,-32,-144,-151,-20,30,17,140,49,12
162,-82,-248,-126,9,45,39,145,76,178
365,15,-224,-192,-40,-64,-96,12,145,612
393,158,-298,-475,-124,-110,-149,-32,269,894
374,377,27,-706,-87,28,-9,66,429,758
233,323,298,-384,46,208,182,146,236,178
101,110,224,150,0,128,107,18,-186,-169
-132,68,157,403,-76,15,-2,-3,-189,-319
-337,32,95,327,-48,2,13,57,-57,-388
-355,-12,-28,105,126,75,67,51,-134,-368
-227,-11,-230,-35,315,145,106,63,-130,-205
-103,58,-286,-65,339,201,153,146,44,17
-41,10,-176,-156,173,178,127,153,65,63
49,-24,-144,-22,11,73,45,112,109,278
216,-9,-132,218,-149,-95,-98,-43,82,629
-58,-109,271,472,-174,-215,-201,-215,-127,408
-474,-218,419,516,-93,-158,-100,-110,-102,-162
-352,-82,151,238,-55,-55,4,-11,-24,-264
-43,201,256,64,-16,-31,-28,-84,1,-4
-7,206,268,20,45,-42,-35,-92,215,523
-174,-182,-33,-14,-10,-51,-6,10,301,1007
-53,-75,64,145,-49,-87,-57,2,266,962
144,101,155,82,-32,-68,-62,-30,140,672
101,94,44,-52,129,142,127,112,77,151
222,89,-179,-85,284,254,205,139,-53,-284
387,219,-384,-258,237,218,174,24,-150,-488
385,560,-151,-81,197,228,207,19,143,-609
261,526,180,324,125,223,208,106,298,-595
96,9,16,281,-46,76,83,56,-8,-524
-89,-232,6,34,-141,-98,-81,-100,-186,-354
-252,-381,-49,-21,-199,-227,-206,-181,-200,-159
-305,-378,-165,20,-100,-228,-225,-160,-181,-135
-187,-260,-170,-121,-25,-165,-175,-125,-225,-150
-81,-107,-44,-399,80,-21,-34,-34,-149,-68
-158,-88,127,-234,139,25,21,19,-64,59
-188,-250,-17,351,1,-79,-44,15,-12,318
41,-181,-101,500,-119,-91,-34,53,127,361
436,100,53,282,-131,-89,-65,-46,34,230
629,219,17,-415,-208,-113,-109,-126,-59,260
219,74,-84,-497,-74,46,58,23,-46,-65
-179,28,328,198,108,80,87,6,-113,-418
-141,383,479,251,115,30,70,0,190,-320
32,654,150,-198,117,78,149,73,554,21
158,298,-493,-624,174,171,153,95,296,214
148,-10,-884,-882,282,311,239,159,9,97
171,-101,-1223,-1049,277,412,370,250,3,82
178,-126,-870,-647,128,322,326,269,129,142
107,-22,580,491,-77,-56,-56,-4,-23,73
-94,-14,1128,1202,-174,-298,-279,-227,-227,-104
-470,-209,667,922,-119,-220,-171,-179,-255,-341
-507,-255,308,268,-100,-149,-100,-176,-312,-386
-272,-124,233,53,-101,-116,-97,-182,-271,-236
-83,-102,99,20,-103,-89,-70,-128,-130,32
2,-141,11,5,-112,-72,-37,-47,5,297
131,-118,75,59,-166,-116,-96,-39,102,521
125,-161,6,51,-228,-165,-144,0,266,575
-113,-113,29,39,-174,-122,-142,17,232,339
-226,-71,138,94,-94,-59,-112,-17,31,222
-139,-59,95,21,-47,-15,-52,20,34,303
-4,-77,-46,-101,-42,30,7,50,49,421
2,-136,-73,-23,-10,40,0,12,48,637
21,-114,33,116,-9,-4,-52,-29,-99,333
88,-123,-17,48,-62,-31,-57,18,-140,-173
108,-29,47,-35,-72,-24,-57,5,-12,-359
182,369,377,59,22,46,1,10,236,-303
161,404,358,345,128,122,76,34,24,-499
-18,144,171,415,195,157,79,-9,-319,-580
-47,83,117,22,154,124,62,-14,-194,-283
-23,-5,-53,-340,62,69,34,-21,-84,-80
44,-58,-149,-312,23,85,43,9,-71,-172
83,-80,-218,-130,-21,33,21,25,-18,-354
38,30,-216,12,-43,-17,-13,-23,-30,-403
8,-17,-132,-5,-34,10,21,21,-137,-477
-17,-24,-60,-56,-14,26,10,-31,-216,-412
42,28,-109,-34,-14,-13,-60,-102,-185,-234
17,3,-199,-41,-9,5,-40,-33,-106,-85
69,-51,-207,-64,3,47,39,51,-51,-116
195,-2,-89,-71,-15,3,-2,1,-71,-136
46,132,59,-49,26,22,9,22,63,-72
-57,179,114,-37,66,65,33,32,119,-77
-45,-34,-16,-10,45,49,-10,-28,-106,-72
-59,-67,-46,131,83,46,27,-19,-83,-3
-144,-124,-132,227,73,40,65,78,45,84
-167,-100,-195,31,59,52,50,90,73,279
-223,-99,-282,-333,32,67,54,93,72,348
-220,-60,-275,-439,-17,21,6,43,105,349
49,387,157,-304,-30,-54,-77,-93,282,365
354,408,180,-269,-67,-96,-108,-128,239,367
302,-21,-83,-89,-103,-126,-104,-81,-34,171
37,-113,-104,49,-55,-77,-57,-25,-154,-229
-176,-123,-79,120,16,8,16,22,-199,-424
-264,-159,-40,70,20,7,48,61,-74,-126
-267,-161,119,81,-26,-56,-24,17,14,241
-114,-55,260,82,-87,-126,-111,-61,15,480
-6,-47,113,-72,-154,-138,-86,-17,135,607
234,-71,-18,-170,-178,-127,-43,64,279,603
836,134,47,-152,-125,-100,-43,43,249,530
775,228,138,-64,40,-15,-32,-29,24,109
218,178,140,-58,147,82,47,-38,-146,-238
-29,36,2,-55,96,67,63,3,12,-103
-104,-124,-141,55,2,-6,41,73,235,-6
172,238,-660,-693,405,337,298,202,-34,-105
291,110,-1046,-275,281,448,488,448,321,88
111,-35,-424,428,145,300,333,303,177,-54
-335,-42,1032,1533,-31,-167,-176,-245,-292,-434
-395,-27,899,1365,-207,-343,-325,-397,-402,-458
-207,-80,168,375,-254,-241,-190,-221,-239,-299
-214,-110,166,-63,-99,-187,-168,-171,-123,-268
-191,-63,353,-31,-98,-263,-265,-289,-145,-128
-94,-76,83,-197,-193,-292,-264,-261,-46,305
30,-118,-93,-343,-216,-213,-140,-81,118,675
196,-14,0,34,-163,-170,-103,-23,179,778
65,52,57,322,-9,-31,32,113,305,441
-236,-121,-76,144,108,97,161,200,177,-65
-349,-237,-198,-195,141,136,148,127,-66,-382
-228,-210,-214,-287,67,55,23,-33,-200,-407
-142,-155,-70,-173,-40,-78,-70,-120,-168,-210
-146,-136,-15,-163,-142,-173,-126,-168,-124,153
-51,-24,-17,-269,-146,-134,-74,-94,-82,489
16,306,161,-269,1,46,99,98,121,256
-75,662,466,-24,178,158,186,152,369,-118
-211,405,385,234,239,135,130,68,186,-310
-262,-59,83,188,138,71,66,69,-24,-455
-218,-163,-30,-8,61,45,66,127,80,-362
-114,-99,-51,-68,112,93,119,124,69,-247
133,92,-12,26,153,120,116,33,-90,-138
242,62,-181,-142,104,142,128,78,-63,-27
43,-4,-372,-373,88,138,140,132,93,126
69,-38,-352,-170,62,17,-18,-23,-9,456
247,4,-289,-86,-48,-107,-127,-141,-49,644
330,108,-220,-269,-107,-72,-43,-27,-5,379
84,51,22,-65,-68,-20,0,41,-27,-89
-106,-74,260,358,-33,-33,-41,-14,-129,-485
-57,-81,103,236,-20,25,3,25,-132,-672
-37,61,42,-110,-43,95,109,124,32,-544
58,165,35,-182,-48,55,63,40,-59,-255
18,-20,89,28,-74,-78,-130,-151,-259,-114
-84,-143,21,68,-21,-48,-57,-30,-54,-85
-31,-72,38,116,48,-21,-14,-48,-93,-24
-20,-36,77,57,40,-28,-41,-72,-126,113
-146,-156,-66,-84,24,12,23,76,4,7
-257,-107,-15,-70,115,60,44,84,-3,-227
-159,252,313,-56,176,94,56,36,104,-183
108,292,233,-47,118,83,16,-16,68,15
180,57,-20,5,16,-1,-49,-37,7,55
116,-71,-93,6,-7,-18,-8,23,51,-48
65,-150,-136,10,0,-30,-19,16,23,-28
52,-117,-136,-18,-18,-57,-50,-57,-36,62
74,-67,-165,-168,-27,21,41,19,2,90
105,57,-111,-184,6,84,104,74,69,195
43,68,-127,-213,-2,78,89,66,45,269
120,20,-223,-365,37,84,94,122,77,279
334,101,-163,-157,270,126,87,77,64,290
295,136,-23,477,370,158,67,-13,6,404
265,16,-108,528,207,191,159,123,185,654
108,-128,-161,352,6,61,111,128,227,457
-206,-132,318,514,-142,-225,-180,-129,29,-56
-252,239,722,110,-246,-285,-215,-195,166,-228
-202,318,618,-83,-153,-120,-34,-45,305,-346
-70,8,152,-96,-101,-54,0,9,61,-408
28,-51,-38,-93,-58,-52,-25,-30,-161,-415
39,-102,-156,-139,-10,-25,16,11,-102,-318
132,-68,-217,-220,11,8,52,63,-28,-188
243,44,-236,-305,-19,5,34,37,-45,-59
233,150,-226,-367,-33,0,8,5,0,69
225,74,-288,-389,-65,23,36,23,0,79
94,-83,-100,-80,-72,-19,-5,-16,-104,64
-80,-137,110,289,-49,-100,-96,-115,-211,10
-104,-44,61,277,-13,-92,-83,-80,-172,15
-47,6,88,235,52,-26,-18,0,-90,155
-64,1,27,163,103,26,29,50,23,253
-142,-9,-43,174,95,72,74,86,168,306
-219,-48,-132,74,49,62,95,117,302,446
-334,-228,-6,-48,-29,2,31,69,187,496
-477,-331,93,-15,-73,-53,-31,7,48,361
-532,-286,0,-94,-84,-36,-17,-1,-101,-26
-151,-49,88,-158,-98,-54,-50,-88,-285,-381
229,-19,145,-32,-49,-54,-68,-100,-270,-425
-189,-280,-82,84,78,42,42,40,-65,-451
-247,-34,-102,93,101,75,73,59,137,-350
618,600,181,-70,-27,-15,-18,-64,216,-30
793,519,146,-180,-149,-98,-64,-69,206,149
437,136,-87,-144,-149,-96,-48,-14,144,158
279,42,-155,-102,-126,-59,-32,-38,43,203
12,-39,-192,-114,-129,5,28,57,84,154
-79,-57,-183,-109,-83,66,70,143,136,138
8,-39,-118,28,39,27,11,53,53,125
-100,-84,41,178,119,-5,-60,-16,-13,-76
-60,-127,-47,143,87,-42,-110,-93,-180,-253
161,13,-52,-89,67,-31,-90,-103,-184,-93
19,-56,-108,-216,131,115,75,82,-14,196
-229,-213,-232,-278,187,256,209,224,62,368
-390,-203,-94,19,126,132,61,72,-82,313
-380,-89,142,334,-23,-107,-177,-153,-169,516
-310,85,173,138,-38,-101,-130,-100,97,1010
-335,38,-105,-272,21,9,-29,0,177,893
247,12,-298,-189,32,-11,-79,-31,119,511
901,263,-163,48,-97,-157,-203,-141,35,241
850,295,-287,-249,-103,-4,-17,32,-11,-57
436,219,-115,-245,89,242,246,203,-85,-723
-229,115,639,406,177,192,144,31,-305,-1447
-426,53,621,644,23,-31,-96,-198,-355,-1345
-149,366,425,164,-73,-70,-99,-166,21,-764
-119,142,45,-481,-100,53,80,37,81,-533
-156,-226,-42,-364,-31,130,156,86,-125,-503
-400,-369,93,151,67,80,83,24,-177,-338
-811,-421,210,491,128,34,22,11,-126,-157
-663,-389,306,514,44,-47,-76,-24,-46,103
-798,-391,223,386,-10,-30,-67,1,34,118
-1061,-326,178,270,60,64,29,86,209,56
-459,-244,-18,63,8,19,0,65,225,141
462,-71,-232,-194,-158,-149,-156,-78,85,218
611,128,-266,-209,-174,-183,-181,-150,-32,49
635,332,-258,-303,-167,-146,-145,-146,-107,-28
892,328,-322,-597,-180,-113,-115,-66,0,128
939,293,-268,-590,-65,-65,-73,-29,-9,205
628,444,16,223,98,0,-38,-61,-52,285
234,804,115,719,242,182,145,44,268,382
239,772,-120,459,309,321,285,160,357,523
326,280,-397,-42,161,210,196,132,91,413
346,-3,-698,-1002,-93,139,183,190,70,200
440,-140,-369,-871,-193,17,112,149,0,-167
-88,-328,604,415,-175,-229,-151,-136,-326,-784
-727,-425,768,934,-165,-283,-234,-241,-481,-970
-728,-296,497,442,-87,-150,-130,-162,-375,-755
-488,-341,275,82,-13,-54,-60,-40,-220,-533
-40,-383,98,-56,5,-24,-44,0,-141,-316
165,-297,-49,-168,5,-10,-25,3,-76,-44
-114,-141,-72,-81,24,7,-11,-29,-148,27
-360,-136,-35,116,0,-22,-41,-57,-156,99
-240,-74,-65,128,-69,-61,-50,-8,-33,195
-33,90,-49,-10,-96,-77,-56,11,54,144
53,122,-13,-96,-96,-80,-44,10,93,121
37,8,-70,-140,-123,-104,-71,-29,61,298
29,-51,-109,-154,-111,-91,-71,-4,148,612
526,42,-177,-137,-116,-148,-98,-30,176,804
965,212,-38,-71,-81,-129,-84,-91,9,388
729,255,99,25,23,6,19,-79,-140,-132
91,91,48,74,118,141,158,62,-71,-397
-153,285,190,41,129,125,141,54,66,-322
-145,678,574,-12,94,43,34,-21,167,-302
-224,335,278,-47,49,30,0,27,83,-397
-441,-91,-184,-81,50,74,57,114,13,-344
-250,-120,-232,-82,51,51,53,78,-17,-191
148,-55,-98,66,4,-30,-32,-35,-104,72
272,-41,-84,321,10,-27,-1,-21,-112,220
248,38,-40,220,12,31,87,68,53,232
165,55,0,-170,15,83,139,119,222,188
78,-113,-88,-319,-29,-21,3,0,104,28
57,-192,-87,-215,-47,-102,-94,-73,121,223
96,-191,-267,-180,-31,-69,-72,-51,169,718
129,-171,-568,-300,-10,-35,-59,-44,142,1042
253,-116,-662,-502,-107,-105,-150,-83,99,1084
243,-73,-447,-585,-198,-147,-193,-68,108,896
-87,17,-150,-398,-113,-37,-91,3,61,309
-318,104,362,276,90,84,-15,-88,-419,-811
-487,26,539,739,269,224,134,-9,-547,-1377
-508,-45,340,654,366,353,277,179,-294,-1382
-124,90,30,95,207,258,236,206,-89,-885
146,156,-222,-387,51,146,186,217,82,-468
37,60,-149,-299,43,79,87,141,24,-463
-201,57,230,29,137,14,-38,-61,-95,-512
-285,380,480,-55,226,51,-16,-113,177,-373
-275,323,320,309,204,120,98,25,309,-213
-337,-91,79,803,58,62,106,74,68,-201
-363,-183,109,752,-68,-39,27,37,-15,-30
-425,-205,107,155,-145,-83,-41,-10,4,291
-426,-238,1,-271,-149,-74,-46,-10,38,504
-271,-222,-81,-243,-97,-56,-33,11,140,612
-134,-102,17,-98,-54,-77,-79,-29,197,724
287,-30,82,84,-48,-135,-178,-130,127,790
519,-107,-71,-3,-40,-69,-99,-64,96,473
577,-43,-213,-326,12,51,41,59,50,-26
518,103,-312,-483,58,123,77,87,-14,-247
279,48,-261,-300,38,89,6,-33,-183,-222
311,86,-198,-305,-157,-103,-151,-186,-291,-123
248,181,-262,-326,-246,-161,-161,-95,-18,32
182,388,348,47,-283,-277,-256,-115,192,313
365,476,394,214,-251,-279,-267,-169,36,473
354,261,127,198,-61,-53,-39,-45,-171,263
-115,60,412,186,92,81,131,100,-26,-66
-376,-36,310,16,105,118,218,219,167,-89
-170,-82,-141,39,130,151,223,219,127,45
36,-46,-422,467,233,193,182,105,1,123
18,31,-362,649,295,258,235,123,64,237
-328,-280,-497,135,170,221,243,171,99,144
-586,-470,-266,-97,88,75,90,8,-83,-190
-657,-352,444,186,-49,-137,-111,-166,-248,-445
-830,-269,506,239,-134,-183,-152,-124,-232,-491
-671,-220,220,-41,-127,-104,-92,7,-71,-341
-412,-156,0,-202,-93,-51,-23,77,102,-134
-83,-27,-83,-222,-15,-17,-36,38,210,-49
58,-48,-169,-203,49,33,14,72,217,-108
215,-157,-204,-298,-77,-60,-6,67,133,-26
-86,-133,-23,-120,-39,-58,-28,1,6,-32
-242,-117,136,123,53,-32,-37,-49,-116,243
-30,-120,80,-136,68,-65,-67,-82,-64,579
369,-45,-76,-336,-22,-159,-184,-148,28,679
963,117,-250,-42,-239,-283,-288,-177,140,694
964,499,40,245,-260,-285,-265,-208,268,391
513,694,463,248,-121,-156,-158,-148,345,88
310,377,290,-91,-159,-126,-115,-57,122,-194
263,175,1,-367,-122,-2,32,136,28,-363
-76,63,43,-157,146,255,227,210,-175,-656
-404,-86,164,195,271,333,258,179,-357,-880
-350,-144,104,260,214,273,222,170,-308,-715
-348,-46,114,427,211,253,173,114,-258,-619
-285,54,173,418,181,207,92,16,-204,-407
-164,28,-8,63,119,175,64,15,-163,-204
-21,22,7,-173,67,129,38,-20,-203,-132
-140,-157,61,-167,11,25,-15,-34,-234,-186
-191,-196,26,19,-24,-59,-92,-76,-207,-112
-110,-125,-31,171,-84,-161,-174,-138,-188,41
-93,-77,-116,61,-153,-219,-214,-168,-77,193
-81,2,-134,-117,-95,-155,-149,-110,119,307
-80,-99,-135,-161,-12,-46,-33,8,135,204
85,2,-122,-257,16,42,48,52,76,-44
310,59,-252,-322,-15,72,106,89,173,168
220,34,-76,-3,24,15,46,-30,10,268
17,-24,102,221,31,-58,-4,-77,-73,159
-59,-48,-25,111,0,-45,57,43,40,97
-35,56,-99,145,-8,18,114,126,164,3
214,454,-10,35,17,84,142,130,370,83
418,465,-288,-519,-16,146,198,235,417,237
305,126,-309,-523,-36,88,131,182,169,217
-200,-124,363,307,-34,-116,-140,-147,-144,-58
-521,-225,409,391,-83,-207,-228,-231,-127,-5
-451,-148,46,-106,-145,-143,-133,-79,89,422
-344,-73,-208,-330,-116,-11,23,125,231,591
-302,28,-22,-30,-39,47,81,144,206,394
-471,-41,252,270,22,13,41,0,-53,-34
-359,-74,9,168,78,79,111,2,-141,-248
262,-65,-136,40,54,54,62,-49,-180,-164
301,-188,-105,62,35,24,14,-31,-162,157
-103,-242,-4,113,-17,-38,-61,-74,-129,468
-321,-282,130,79,-88,-143,-175,-164,-53,658
-318,-135,177,18,-101,-176,-205,-170,177,724
79,369,379,-64,-27,-111,-150,-91,449,562
526,443,394,87,56,-33,-89,-41,282,-65
744,135,142,283,67,20,-8,52,-17,-835
809,154,0,134,71,104,90,127,-204,-1109
413,110,-86,0,45,99,66,75,-316,-1010
-22,-82,-188,-38,12,22,4,25,-272,-702
-182,-170,-213,-98,10,12,-7,25,-227,-421
-197,-69,-50,-71,70,55,32,-24,-219,-320
-201,-168,-100,-163,34,17,-2,-17,-142,-224
20,-148,-196,-264,-68,-85,-109,-71,-4,217
277,-55,-291,-340,-77,-147,-174,-120,95,700
97,-126,-390,-490,103,-4,-47,11,187,495
-46,-121,-392,-385,222,109,95,158,252,54
192,28,-403,-35,146,173,176,210,268,-36
331,242,-159,150,141,215,193,151,229,123
-37,133,286,407,97,103,86,11,71,195
-414,-193,308,164,-75,-73,-63,-101,-126,260
-401,-288,58,20,-121,-82,-8,-5,60,431
-394,-332,-9,422,-104,-56,45,76,142,302
-131,-182,158,484,-85,-53,30,-25,-71,-26
326,-1,204,173,-178,-137,-78,-119,-146,-199
68,16,95,-158,-133,-70,-31,-36,-55,-612
-262,353,243,-163,134,96,115,-28,140,-784
-298,590,305,-190,252,147,160,-36,262,-574
-173,261,-81,-222,169,77,96,-13,98,-295
-113,-39,-347,-262,115,116,121,89,35,-159
-65,-61,-291,-226,50,102,112,124,75,-104
-50,-9,62,96,-2,-2,-1,13,-35,-103
-8,38,212,485,-1,-46,-36,-23,-62,121
157,144,161,523,-66,-105,-92,-85,-57,396
298,178,-60,273,-50,-43,-61,-54,-61,363
274,17,-386,58,45,50,20,19,-80,206
70,-139,-88,84,-15,-56,-81,-64,-170,3
-178,-238,198,146,-157,-240,-239,-204,-285,-159
-194,-219,5,-120,-194,-222,-200,-133,-210,-162
-78,-173,-42,-242,-155,-130,-127,-42,-85,-22
36,-60,29,-101,-45,-36,-53,-28,-46,84
28,91,136,74,49,18,-1,-28,-36,-37
-121,0,-21,44,59,85,75,43,-48,-223
-42,11,-127,-175,96,147,109,74,-102,-280
91,81,-152,-335,115,138,94,69,-66,-135
146,39,-178,-458,63,155,96,103,23,48
216,-43,-511,-629,20,247,186,231,162,234
98,-86,-309,-294,-47,96,46,60,-4,175
-167,65,315,360,-155,-181,-224,-229,-132,-94
-147,419,654,434,-183,-218,-217,-176,206,-89
62,332,496,65,-220,-148,-119,-50,270,137
105,-22,114,-133,-222,-76,-14,48,94,241
166,-77,-86,-97,-168,-2,59,120,162,356
353,7,-68,19,-62,68,101,114,223,425
109,-84,-49,184,27,69,68,71,201,189
-316,-269,-52,229,71,5,-10,-16,165,-138
-236,-170,-65,-221,43,-35,-63,-112,180,72
-29,-125,-237,-495,23,-52,-83,-154,20,373
-40,-108,-267,-164,134,-2,-31,-142,-183,244
-152,-128,-280,-10,250,125,90,17,-132,97
-244,-129,-32,88,322,186,131,82,-54,142
-250,-130,137,605,190,42,-3,-45,-109,396
-50,-125,119,760,-67,-117,-83,-86,-55,612
-58,60,148,481,-122,-88,4,15,142,517
-300,362,584,246,-37,-64,26,-6,216,217
-371,18,368,-85,-120,-64,25,38,-50,-201
-340,-70,150,-102,-40,47,103,121,-154,-616
-255,-96,52,-38,47,110,151,137,-126,-702
23,-136,-126,-153,-18,32,64,78,-86,-316
164,-50,-182,-165,-32,-21,-31,20,-128,-216
558,225,-103,-38,-18,-34,-86,-44,-174,-172
516,487,169,47,57,31,-49,-77,-101,-76
248,171,58,40,33,22,-33,-67,-229,-149
259,-11,28,76,-4,-32,-64,-52,-250,-269
-28,-98,43,118,22,-18,-20,-19,-225,-351
-178,-158,-57,60,42,29,49,80,-115,-275
-66,-124,-130,72,59,74,64,127,-12,-143
81,-23,-116,29,33,64,50,112,36,-108
156,72,-22,-142,28,67,46,62,30,-118
25,7,16,-121,67,77,34,-13,-81,-92
-113,-116,22,142,77,18,-22,-89,-222,-151
-184,-184,-53,171,5,-35,-38,-83,-150,-82
-216,-171,-91,30,-53,-56,-29,-43,-2,170
-131,-87,-92,8,-56,-70,-39,-37,92,300
84,3,-128,220,-29,-49,-19,-6,178,309
332,215,54,277,33,-9,-21,-44,155,418
384,506,484,37,145,64,14,-74,169,283
419,477,441,-321,93,13,-11,-87,196,182
339,80,-91,-578,-96,-119,-123,-180,0,214
325,-6,-264,-567,-137,-157,-189,-266,-210,210
105,-52,-272,-351,-87,-101,-84,-100,-138,64
-128,-205,-310,-170,-95,-40,26,94,63,-11
-157,-166,-22,174,-46,-42,-25,32,63,18
-130,-18,240,241,-8,-17,0,48,139,140
-60,-9,142,30,9,61,81,155,252,471
157,-35,-33,-234,-38,106,138,197,250,532
201,-29,-86,-187,-53,109,177,208,244,249
12,-91,-57,153,-123,-43,49,67,117,73
-35,-147,-159,176,-167,-138,-66,-50,-10,24
68,-33,-75,52,-54,-56,-48,-56,-110,-244
148,169,167,202,76,65,29,6,-154,-732
17,171,100,139,83,105,66,68,-69,-864
-107,-49,-174,-220,1,79,67,68,-122,-726
-198,-127,-88,-328,-29,13,-1,0,-204,-674
-232,-140,18,11,-2,-93,-125,-108,-203,-469
-151,-105,-87,66,52,-71,-138,-76,-112,-174
-30,-68,-301,-229,58,51,0,45,-12,-59
94,9,-136,-20,51,39,-3,16,-26,-57
100,258,373,237,71,31,11,-6,123,-27
-51,567,659,304,81,30,32,15,355,-46
-98,299,481,305,-24,-85,-70,-46,211,13
-7,-79,122,101,-111,-139,-101,-58,60,239
9,-116,-34,-86,-39,-13,-2,-5,77,397
-83,-177,-96,-35,68,89,94,31,-32,260
-100,-238,-186,26,69,105,134,78,-51,67
-156,-236,-91,216,50,43,57,-21,-70,-50
-236,-177,-114,181,40,-16,-43,-159,-93,-17
-277,-250,-217,-6,15,-10,-23,-98,-93,-8
-151,-136,-162,-94,2,14,41,-8,3,-35
214,59,-245,-190,-68,-36,-21,-65,-43,27
177,40,-218,-201,-102,-62,-49,-45,-51,6
-65,-17,119,7,-47,-11,-6,36,-23,-69
-94,0,127,29,-26,-1,-6,61,58,35
157,196,125,-122,-51,-52,-69,37,257,270
226,344,155,-196,17,18,-16,88,352,282
11,60,-172,-311,76,144,110,157,168,68
91,-18,-192,-291,59,160,158,167,97,10
145,-43,-101,90,99,122,123,113,81,-51
33,-94,0,273,135,69,69,39,69,-45
-33,-58,139,523,32,-21,10,11,102,249
33,31,73,467,-85,-75,-39,-16,141,774
117,130,70,69,-128,-76,-91,-66,129,944
71,-174,-186,-298,-167,-127,-153,-89,-26,658
123,-278,-352,-394,-184,-138,-139,-71,-23,598
180,-160,-241,-147,-124,-54,-45,-3,-29,684
-25,-23,198,252,-4,-38,-37,-6,-252,-138
-131,62,379,347,108,38,1,-5,-365,-1098
-13,113,158,-63,93,90,59,18,-236,-839
-91,134,73,-243,107,100,91,47,-42,-339
-430,-56,32,-106,156,107,115,73,67,-211
-475,-233,-363,-542,121,169,173,165,274,55
-409,-270,-551,-654,23,116,127,152,352,316
-561,-270,-127,10,-17,-12,-10,33,154,49
-595,-275,141,575,-70,-97,-86,-23,-33,-429
-387,-194,229,457,-123,-118,-72,-57,-203,-703
535,59,253,199,-135,-104,-76,-113,-269,-634
1016,553,414,104,-34,-27,-38,-130,-112,-465
705,675,401,99,69,75,44,-89,-127,-424
400,218,-37,-108,18,92,100,-28,-222,-119
284,2,-253,-282,-57,56,110,26,-112,158
99,-55,-90,-82,-63,-49,4,-52,-107,109
-17,-155,-164,30,-89,-118,-65,-82,-59,46
20,-164,-205,24,-108,-103,-68,-38,-16,15
211,51,91,131,-63,-52,-53,-29,-15,-16
112,77,222,235,36,54,22,5,-122,-228
22,26,120,182,83,95,66,6,-152,-256
78,26,-21,53,23,48,39,8,-66,-85
49,-1,-100,-43,-30,26,42,37,26,-10
56,0,-15,-3,20,18,12,-15,18,11
74,-8,-13,37,70,13,-26,-40,5,70
32,23,5,10,69,16,-7,-10,74,107
24,110,43,59,109,53,42,6,62,-27
55,50,-13,41,51,22,-30,-55,-106,-87
-34,-4,22,-22,29,6,-68,-96,-112,73
-83,-80,-109,-81,43,22,-10,-41,-1,285
-98,-119,-194,-54,74,78,64,37,73,406
-59,-132,-141,104,35,54,0,28,63,466
28,-74,-102,107,-48,-25,-68,10,63,302
181,121,124,26,-55,-50,-103,-55,34,122
157,374,331,-72,24,24,-26,-29,86,42
-76,193,-18,-402,61,129,113,92,102,-18
-116,-75,-335,-544,90,166,137,134,57,114
-107,-136,-281,-408,22,94,54,97,54,178
-30,-134,-11,-109,-105,-43,-55,41,70,60
-91,-170,124,237,-137,-134,-138,-36,-26,-131
-192,-149,180,435,-90,-149,-180,-120,-143,-198
38,-74,44,117,-95,-117,-136,-100,-61,-35
187,-109,-49,-63,-80,-86,-99,-52,-39,46
115,-54,84,-22,-43,-52,-99,-32,-84,-42
36,35,166,-27,-52,-36,-105,-42,-111,-22
-71,-34,76,-14,-58,20,-27,58,-11,97
-130,-137,-189,31,-36,99,96,161,111,186
-132,-73,-332,201,46,129,131,169,165,152
21,346,-62,103,183,160,129,160,312,109
432,614,0,-448,219,147,103,115,399,355
264,195,-276,-307,152,70,41,56,173,560
-209,-123,19,329,48,-54,-69,-59,52,419
-333,-211,287,434,-78,-184,-182,-186,-67,227
-173,-174,186,-148,-136,-166,-115,-87,65,236
33,-79,69,-351,-125,-106,-33,-18,81,-8
255,165,160,-14,-51,-56,-26,-81,-62,-455
143,388,223,144,28,-32,-30,-111,-69,-574
-158,104,26,145,80,21,20,-12,-204,-581
-93,93,89,114,104,38,15,-9,-252,-421
294,195,-65,-138,52,-4,-32,-100,-225,-52
331,77,-370,-341,128,95,105,20,-48,42
4,-154,-303,-316,204,162,185,98,34,-123
-123,-239,-236,-235,161,144,147,82,-14,-96
-231,-162,1,51,37,44,81,42,14,-64
-324,-178,179,335,-69,-57,16,-7,-43,-146
-208,-129,163,307,-109,-74,-6,-16,-89,-11
-124,-105,139,195,-111,-45,19,23,-80,98
-9,-72,30,122,-73,-6,47,40,-54,92
180,5,-66,16,-72,-24,-8,25,15,-54
134,30,12,124,5,-25,-31,31,70,-194
-107,62,99,191,90,-14,-13,9,118,-59
-236,404,300,48,142,32,-4,5,403,241
-311,412,257,94,180,89,56,56,428,404
-334,-38,-100,151,122,90,56,47,46,289
-421,-227,-49,124,89,73,29,-22,-135,135
-416,-139,233,227,53,-3,-36,-127,-213,-13
-84,-36,177,193,-74,-132,-152,-147,-171,-72
556,17,1,-100,-213,-219,-213,-141,-130,122
1104,188,-74,-250,-236,-218,-194,-132,-101,410
906,149,-151,-282,-249,-191,-132,-51,-18,399
408,24,-130,-222,-179,-120,-61,20,110,385
194,30,-71,-213,-62,-12,-2,52,136,256
164,50,-90,-337,-46,33,7,49,86,210
20,-14,-212,-341,-9,72,62,105,140,216
145,-74,-360,-466,-74,67,68,143,174,141
374,44,-112,-302,-80,17,18,67,36,99
25,-19,122,247,-66,-51,-26,-25,-156,-53
-360,-172,48,475,0,9,54,29,-156,-279
-309,-148,11,279,76,96,118,99,-15,-278
-253,-109,13,193,128,80,77,41,-17,-255
-399,-143,72,219,157,95,90,3,-74,-258
-443,-141,176,287,215,170,140,2,-160,-360
-180,-94,177,250,159,114,80,-39,-197,-326
-65,189,312,111,66,15,19,-46,89,-94
-4,447,399,-24,21,-6,43,14,430,253
194,239,86,-116,-62,-50,17,50,331,352
386,170,-154,-97,-52,-23,37,41,55,-9
448,144,-158,-79,-22,26,49,6,-131,-470
324,117,-97,-54,6,18,-28,-134,-303,-459
192,8,-175,-161,15,14,-24,-101,-181,-108
30,-56,-270,-254,-1,39,59,62,90,56
-54,-23,-223,-202,-51,17,43,96,216,-57
38,-43,-115,20,-79,-39,-64,-54,-65,-318
-47,-41,-89,207,20,17,-18,-103,-258,-457
-278,-138,-103,211,105,117,96,23,-206,-460
-331,-177,-115,106,103,122,122,91,-114,-276
-272,-170,52,33,40,56,54,60,-18,54
-156,-91,131,249,26,24,-10,-8,10,159
-53,290,269,645,124,85,33,5,239,211
-3,375,274,434,104,82,40,30,341,326
-68,-68,-165,-264,42,42,18,45,35,238
-202,-232,-382,-580,31,54,8,3,-159,-99
-250,-289,-214,-525,-68,-8,-55,-60,-223,-404
-130,-203,-258,-560,-97,-28,-65,-10,-78,-261
16,-17,-417,-529,-42,52,41,110,77,-75
355,252,-410,-827,-67,159,170,245,295,210
516,301,-260,-831,-87,173,186,268,410,417
-49,-252,191,188,-49,-90,-109,-55,-91,109
-452,-428,580,1040,-100,-347,-366,-375,-448,86
-354,-326,364,525,-149,-291,-291,-288,-315,265
-167,-113,316,-224,-42,-149,-184,-153,-145,179
-18,-24,187,-201,140,1,-53,-14,-24,-32
-79,-55,47,605,233,150,80,97,13,-224
-65,85,106,990,221,219,151,119,10,-373
-79,-37,173,825,19,0,-42,-52,-211,-387
-281,-213,145,148,-168,-191,-202,-166,-303,-182
-403,-216,52,-198,-145,-182,-166,-113,-157,125
-350,-198,-103,-437,-113,-91,-67,-13,2,238
-70,-102,-138,-352,-70,-55,-43,-22,-17,108
161,-16,-42,-164,-93,-85,-45,-52,-90,-6
-55,-19,31,-40,-66,-40,31,-13,-67,-86
-136,65,79,107,29,6,71,-7,-15,-58
72,177,39,204,9,-23,17,-43,71,52
354,195,-62,64,-79,-83,-33,-19,215,256
501,92,-194,-80,-132,-89,-89,-21,152,180
505,31,-253,-68,-49,-25,-54,-30,19,-1
506,86,129,-30,-63,-64,-55,-65,23,-65
293,114,248,-77,-115,-58,-16,11,138,-71
264,356,339,-100,-60,-25,1,2,279,-23
189,460,413,-184,57,52,110,123,507,120
-49,68,51,-239,111,115,225,284,434,157
-175,-130,56,47,118,49,122,131,102,118
-285,-153,88,263,69,-1,27,17,-61,148
-406,-231,17,176,-27,0,24,26,-111,160
-315,-273,-59,10,-118,-16,25,80,-68,273
240,-86,-61,-175,-207,-77,-8,92,30,500
408,67,-101,-265,-218,-133,-54,46,36,542
-146,-80,-175,-135,-53,-75,-46,-5,-134,389
-183,-187,-126,34,121,-3,-16,-28,-152,352
-111,-258,-45,143,125,0,-8,-51,-95,301
-99,-301,16,198,70,0,-3,-14,-89,162
-228,-305,-43,228,92,69,43,62,-113,-196
71,-158,-57,443,101,55,6,0,-169,-525
605,334,147,601,129,37,-31,-52,70,-418
432,636,191,186,119,69,27,29,357,-229
316,371,-82,-421,8,16,10,41,128,-353
59,23,-43,-390,-6,-20,-46,-47,-178,-629
-66,-98,-27,-184,1,-34,-75,-140,-351,-714
-28,-5,-27,-146,32,-6,-19,-145,-418,-728
-87,10,-180,-339,17,22,48,-36,-204,-362
-20,75,-202,-464,-21,21,61,54,119,76
135,96,-69,-259,-52,-1,55,86,251,204
235,46,-48,100,-106,-91,-43,-42,88,175
324,145,-180,-147,-99,-102,-69,-112,1,209
442,241,-299,-650,-2,-3,33,7,105,343
522,332,-280,-265,40,72,97,113,175,305
570,257,-463,-182,-48,154,154,214,222,235
249,127,-232,-239,-59,148,140,201,228,-49
-101,369,698,350,-42,-108,-136,-133,190,-378
-258,250,974,806,-143,-324,-327,-356,-71,-630
-494,-282,299,528,-129,-203,-181,-186,-359,-859
-551,-382,-98,134,26,11,19,38,-270,-756
-448,-369,-212,23,143,100,59,85,-146,-393
-464,-308,-86,80,186,151,94,88,-80,-23
-536,-231,126,295,168,158,93,69,-55,293
-489,-54,397,491,76,39,-23,-59,-63,423
-482,-24,319,317,-54,-79,-115,-107,-7,428
-462,-215,-65,20,-78,-58,-47,11,46,337
-189,-235,-292,-214,-67,-6,36,130,56,17
246,-131,-458,-439,-52,-14,0,73,-30,-197
563,-16,-189,-346,-51,-65,-71,-74,-179,-208
535,-34,-4,-151,-106,-118,-128,-152,-187,-50
475,-45,-46,-87,-182,-156,-150,-128,-34,229
315,4,81,53,-184,-163,-131,-83,88,390
-4,-92,128,153,-92,-55,3,12,3,282
-167,-115,94,137,37,62,105,53,-81,82
-114,-55,80,85,60,45,75,22,-67,56
-156,-55,74,105,55,40,70,35,-6,-12
-144,-122,14,94,38,48,70,29,16,39
334,53,-69,-72,-96,-60,-21,-44,19,153
372,405,71,-164,-126,-73,-28,-19,131,59
149,665,435,-59,43,55,69,40,315,-65
-145,381,280,65,177,107,109,42,154,-339
56,74,-97,12,148,73,73,-7,-128,-343
248,61,-81,-30,90,45,25,-60,-198,-206
-32,8,10,213,93,49,42,-36,-206,-162
-137,3,-129,239,100,119,139,65,-47,40
-46,49,-280,15,105,144,171,101,101,189
-4,38,-229,-81,94,89,124,67,221,258
-26,-119,-193,-90,58,65,114,109,201,266
0,-84,-266,-148,80,160,207,184,127,183
231,-60,-399,-220,116,203,215,164,26,83
60,-183,-286,-244,63,61,56,25,-52,10
-311,-209,223,67,-62,-177,-169,-146,-105,-56
-457,-214,301,258,-171,-282,-230,-172,-81,-17
-467,-152,208,141,-155,-228,-187,-153,-54,-70
-295,-99,178,-6,-122,-176,-145,-142,-97,-118
17,-147,33,-139,-144,-165,-147,-137,-112,115
166,-136,-63,-159,-123,-147,-145,-122,-81,413
94,-118,-188,-187,-80,-102,-74,-27,1,321
-12,-41,-264,-216,-13,-33,13,39,28,-32
317,134,-238,-306,-5,-9,24,-3,-13,-43
325,209,-119,-347,38,46,50,17,4,-124
88,523,271,-240,182,169,143,96,288,-255
-8,614,394,-186,205,210,165,110,424,-127
-125,79,27,-254,66,138,127,110,185,-50
-262,-298,-96,-11,40,58,64,92,37,-52
-302,-308,91,351,45,-10,-20,14,-12,-74
-101,-191,173,364,10,-62,-84,-46,-48,-33
216,-7,124,196,-22,-77,-114,-97,-96,92
150,139,100,131,-27,-56,-114,-126,-102,18
-112,80,81,189,9,-33,-64,-82,-67,-214
-205,-10,44,218,35,5,-12,-39,-132,-327
-167,-22,48,139,26,28,20,-15,-154,-221
-84,-12,47,55,35,25,5,-62,-183,-11
10,-17,9,-1,29,13,0,-46,-99,106
33,-55,-55,76,16,27,25,47,52,68
79,48,-34,112,-6,36,38,63,78,1
135,256,143,65,4,52,41,31,84,27
58,48,-59,12,-18,-10,-14,-1,-19,20
-57,-82,-217,-313,0,-18,-29,29,-35,-10
-52,-71,-318,-633,73,30,-12,47,-23,12
118,-27,-408,-202,97,63,20,57,35,346
316,-24,-517,257,61,107,73,107,199,826
400,4,-448,335,87,119,90,131,270,956
346,311,190,-61,70,80,74,91,259,575
112,511,641,-247,37,12,30,35,262,134
-34,107,74,-68,52,0,6,27,46,36
-205,-180,73,142,-47,-98,-84,-39,-56,9
-447,-294,391,355,-155,-239,-204,-112,-63,19
-451,-315,276,435,-160,-215,-172,-95,-40,104
-353,-258,103,260,-152,-178,-137,-110,-70,114
-414,-234,70,78,-66,-40,-36,-72,-115,-156
-533,-187,157,129,36,86,84,13,-92,-291
-325,-210,94,367,71,103,90,47,-118,-179
-323,-150,95,487,82,129,81,25,-116,-330
-502,-155,56,207,83,136,85,21,-74,-474
-552,-224,11,-96,56,76,47,-5,-95,-418
-302,-151,50,-113,-2,17,1,-17,-160,-286
167,-23,-79,-170,-50,-6,4,7,-161,-217
307,238,69,-118,27,74,60,-2,6,-210
202,579,392,60,119,151,140,59,358,-87
272,371,34,7,16,52,91,44,285,52
464,118,-455,-363,-152,-84,-18,-10,65,65
582,247,-403,-539,-174,-89,-32,11,66,79
678,224,-298,-444,-182,-119,-101,-40,67,338
438,67,-230,-315,-124,-91,-87,-56,21,293
-45,-20,-62,-156,27,48,45,54,47,38
-98,-9,142,120,77,74,71,85,64,175
282,-102,65,113,-54,-53,-35,-28,-60,382
386,-168,-103,-136,-180,-188,-141,-96,-71,326
288,-206,-231,-312,-199,-217,-192,-133,-113,-51
205,-149,-205,-314,-132,-147,-148,-132,-156,-333
105,-160,-267,-306,-1,5,33,18,-143,-347
-13,-141,-250,-90,166,126,154,105,-159,-250
59,16,-70,181,184,108,115,52,-78,37
86,6,-119,149,138,103,137,105,135,233
23,-39,-165,26,149,148,159,134,205,351
-101,-9,179,208,130,97,58,27,15,108
-259,-57,375,339,28,0,-16,27,-19,-263
-48,-13,240,176,-44,-47,-47,19,-96,-477
18,80,91,34,14,-34,-60,-51,-205,-486
-219,29,57,25,45,-25,-49,-16,-67,-271
-313,-56,26,8,15,-5,-7,54,83,-16
-293,-118,-76,96,43,51,40,57,75,106
-193,-125,-90,164,67,74,66,26,-39,63
31,-33,3,51,75,56,26,-42,-106,62
4,18,129,71,65,8,-37,-98,-83,1
133,40,72,27,10,-17,-39,-74,1,38
431,22,-146,-95,-79,-44,-25,-8,42,130
299,369,220,94,-26,-63,-41,-21,121,292
224,768,546,54,40,-20,15,-5,333,509
93,457,270,58,46,48,104,71,266,443
-42,70,-28,144,19,73,111,97,134,194
-78,-48,-91,53,-52,47,88,94,126,-11
-120,-136,-174,-2,-49,-2,26,25,14,-228
-189,-137,-121,-18,9,-41,-38,-71,-128,-414
-158,-43,19,-118,-8,-59,-50,-69,-50,-320
71,356,329,-80,21,6,-16,-6,280,-9
99,204,150,-95,-1,8,7,40,198,15
-3,-125,-129,-80,27,27,31,39,-88,-177
-165,-239,-165,-155,139,43,29,43,-141,-248
-260,-312,-187,-331,219,39,17,32,-131,-159
-113,-236,-234,-71,225,79,27,15,-130,13
128,-66,-30,376,159,75,0,-21,-141,199
89,201,402,705,155,58,-14,-18,-21,167
-81,129,273,332,84,69,32,20,-14,49
-167,-90,-113,-285,-46,40,57,69,-125,-140
-179,-48,-61,-157,-48,-19,-21,-8,-213,-410
-117,-63,-47,109,-97,-99,-122,-114,-256,-378
-167,-137,-196,4,-134,-102,-89,-48,-99,-66
-204,-100,-202,59,-47,-17,13,67,73,256
-200,-73,-239,-15,32,62,101,114,192,358
-210,-74,-362,-481,48,138,168,166,312,323
-346,-257,-157,-286,-8,35,46,62,125,32
-74,-177,48,28,-83,-104,-105,-114,-79,-148
484,54,217,-99,-202,-228,-200,-193,-106,-60
595,139,271,-141,-225,-234,-216,-175,4,220
477,50,9,-148,-143,-138,-154,-99,121,434
312,-103,-241,-241,-88,-11,-18,41,166,247
75,-147,-193,-93,-68,41,72,91,62,-90
-92,-153,-179,139,-63,10,82,35,-81,-215
-199,-177,-33,148,-83,-46,39,-23,-159,-303
-154,-90,250,44,-37,-35,28,-24,-112,-224
-42,-19,202,-72,45,53,86,45,-29,-145
110,117,12,-262,118,146,150,105,17,-107
289,248,38,-137,138,151,130,88,3,-27
319,236,98,732,156,39,-2,-40,-75,114
206,73,-35,709,76,18,14,5,0,194
91,-69,92,128,-43,-22,-14,9,-3,212
-16,-119,197,-24,-226,-201,-197,-119,-89,186
30,-53,182,97,-311,-309,-304,-201,-126,153
-21,-61,113,31,-271,-251,-255,-176,-125,23
-86,-115,78,-101,-125,-118,-127,-80,-95,-70
-134,-104,-4,-46,12,-53,-52,-53,-31,-34
-242,91,102,-56,51,20,42,53,281,288
-173,395,325,-92,60,33,85,80,549,830
-99,179,45,-180,-31,-55,18,29,384,1031
-227,-181,-101,-162,-69,-81,-7,18,117,539
-407,-291,-14,-77,4,-32,20,20,5,-114
-183,-170,-25,60,77,20,42,-25,-172,-423
-107,-74,22,253,139,82,77,-44,-309,-800
-120,47,120,231,194,157,142,58,-137,-861
51,519,373,117,241,212,168,94,184,-474
146,613,344,7,162,138,101,28,206,-195
245,160,-59,-134,23,62,72,61,-6,-194
291,-36,-145,-111,-32,39,53,23,-167,-256
55,-91,-31,16,-43,-12,-15,-75,-256,-316
-21,-111,-128,48,-67,-45,-34,-46,-171,-220
47,-127,-156,-70,-98,-60,-20,6,-15,26
-23,-48,55,-72,-69,-31,-38,6,93,206
-244,-147,8,-14,4,47,51,90,158,298
-344,-227,-84,-56,44,74,128,148,153,332
-248,-153,-64,-69,47,55,77,74,27,254
-236,-180,-65,-32,25,42,49,18,-77,84
52,-143,-110,188,4,-8,0,-10,-72,170
169,-109,-161,377,-35,-52,-34,0,-13,305
196,24,-143,165,-66,-53,-35,0,99,438
386,231,-33,-302,-143,-117,-102,-52,180,530
270,11,-108,-390,-229,-201,-212,-113,-3,217
169,20,-129,-260,-174,-154,-174,-128,-67,-133
352,39,-20,-194,-133,-114,-127,-146,-83,-132
177,10,2,-159,-91,-73,-84,-108,-78,-139
-55,8,-84,-169,-55,-17,-28,-24,-55,-256
-98,26,-57,-185,4,37,5,41,-33,-275
-59,31,-11,-189,103,141,88,115,-45,-283
-27,-28,-63,-140,110,182,105,99,-88,-255
183,24,-62,2,43,102,39,32,-72,-56
488,120,69,188,-29,-21,-80,-90,-70,59
311,-9,-21,286,-17,-73,-129,-97,-1,5
-52,-180,-138,169,-18,-58,-56,7,107,-59
-127,-93,-121,17,-44,-45,-22,66,109,-119
-87,221,167,9,27,32,22,63,15,-416
-76,454,541,42,137,130,92,65,110,-507
-91,200,176,115,167,145,138,75,93,-249
-8,44,-144,114,106,91,113,42,56,3
-114,-17,-234,-151,39,108,155,142,163,11
-182,-12,-136,-289,29,131,184,147,54,-91
-349,-92,105,121,-18,45,99,41,-168,-296
-486,-183,133,327,-49,-41,-11,-38,-224,-373
-336,86,229,8,-10,5,-13,-25,4,-284
184,531,389,-128,57,24,-28,-57,148,-162
525,387,223,-255,70,-45,-129,-155,-90,-42
334,-20,-204,-349,62,-8,-69,-67,-145,135
227,-235,-482,92,35,62,5,40,-3,341
227,-204,-256,355,-57,3,-39,23,73,444
170,-50,110,546,-60,-115,-116,-49,19,339
218,47,136,114,-98,-155,-181,-153,-156,332
340,33,-195,-715,-89,-30,-84,-82,-85,526
170,-192,-542,-849,-25,54,-19,16,-16,426
-92,-213,-321,-51,3,-49,-110,-63,-51,50
-221,-128,-218,315,-9,-48,-59,1,-41,-243
-72,-7,-294,48,-28,45,47,117,-18,-245
11,6,-123,81,17,108,71,50,-165,-267
-271,-126,287,477,82,85,46,-9,-257,-430
-427,-95,618,603,90,23,-4,-19,-184,-420
-271,-174,333,447,-28,-84,-98,-79,-181,-241
-165,-151,156,165,-130,-195,-197,-162,-196,-15
-204,-109,3,-77,-63,-91,-100,-42,-38,173
-315,-132,-90,-122,31,42,36,106,79,156
-405,-156,-32,44,96,83,73,94,-4,85
-387,-116,10,125,115,86,89,51,-38,98
-244,24,273,165,88,55,78,35,146,290
-56,407,660,291,104,41,70,16,477,552
12,367,413,378,47,8,39,37,531,481
192,-66,-49,324,-72,-30,-4,77,254,202
460,31,-169,-69,-145,-87,-74,-6,30,54
319,126,-228,-467,-191,-136,-123,-114,-136,-99
77,9,-256,-478,-136,-101,-70,-92,-143,-297
134,-72,-281,-449,-77,-34,-11,-7,-91,-449
241,60,-180,-420,-26,25,46,41,5,-263
189,-2,-210,-368,-31,81,101,67,-17,-36
127,-68,-233,-195,-69,58,101,68,1,26
-13,-105,18,121,-56,-9,43,12,-1,-155
-178,-200,252,382,-67,-101,-77,-113,-83,-277
-161,-189,29,156,-77,-94,-59,-72,-29,-144
-112,-80,-37,-25,-20,0,10,25,69,21
-158,46,188,176,61,69,44,57,145,66
-224,38,212,172,84,99,104,103,233,87
-228,-213,-168,-171,13,68,73,79,76,196
-135,-224,-101,-233,31,58,22,18,-92,151
225,-52,92,-82,-8,-53,-91,-85,-199,109
429,71,-31,-202,-51,-102,-115,-82,-93,197
272,77,-216,-268,-31,3,6,74,96,346
73,38,-261,239,-10,99,98,180,174,404
-120,254,136,499,-35,120,145,163,251,184
-294,242,400,524,-27,0,13,-36,25,-224
-526,-172,110,194,-21,-141,-148,-233,-393,-618
-611,-278,144,-98,-30,-107,-95,-167,-341,-600
-358,-290,222,-17,34,1,36,-8,-118,-409
94,-171,223,95,77,13,35,0,-11,-159
-160,-79,248,148,146,42,34,-57,-57,-179
-339,-58,266,132,161,60,18,-110,-81,-229
-275,-120,140,35,94,8,-1,-93,29,-42
-458,-361,-127,-37,59,31,68,39,153,141
75,-189,-233,-120,46,76,117,99,158,275
731,132,-247,-176,-25,-13,38,28,69,233
741,214,-220,-181,-96,-110,-66,-93,-77,122
450,103,-167,-192,-80,-78,-72,-134,-208,34
-83,-30,-63,-36,35,16,0,-25,-119,5
-330,241,279,128,108,86,56,43,228,87
-262,419,350,86,102,103,79,97,531,128
131,158,-95,-139,-47,-30,-21,54,307,166
603,109,-132,-212,-170,-211,-181,-127,-87,220
470,146,-114,-244,-183,-201,-160,-128,-43,260
65,98,-142,-128,34,34,35,39,99,233
-266,1,-39,92,204,189,163,145,116,-39
-188,68,13,157,199,182,175,141,132,-243
328,198,-44,-44,46,33,38,26,18,-342
678,247,-199,-192,-123,-127,-116,-108,-223,-352
662,212,-244,-31,-99,-111,-102,-116,-269,-213
409,44,-334,-35,-38,-3,-2,-32,-209,-69
279,-29,-349,-244,-13,68,55,33,-150,36
327,-94,-323,-435,-39,67,63,68,-93,4
72,-85,-104,-316,-37,33,29,55,-90,-107
-138,85,406,276,20,21,-7,1,-66,-107
0,-9,337,478,9,-41,-103,-82,-96,148
222,-132,10,54,-55,-111,-149,-103,-61,354
134,-173,-44,-146,-51,-80,-75,-40,-59,175
-32,-43,-57,-176,46,59,62,76,-40,-124
-136,45,-83,-229,90,89,84,47,-93,-266
-200,7,-25,-5,61,6,1,-37,-84,46
-368,-120,-72,113,41,5,-5,-10,30,411
-373,-143,-114,-54,40,64,71,44,119,564
-444,-95,14,63,66,56,85,45,65,373
-670,-164,199,328,60,21,37,44,-20,-150
-253,-189,235,342,50,30,24,79,-9,-291
58,-222,32,163,67,88,99,176,109,-105
417,8,-152,-74,35,45,71,144,135,98
1085,466,-178,-282,-43,-61,-46,4,30,225
1149,818,75,-170,8,-44,-88,-102,85,313
823,820,80,-119,66,29,-54,-116,142,292
555,397,-388,-611,34,128,74,15,131,209
147,28,-272,-671,-73,15,0,-23,60,110
-424,-207,202,126,-85,-160,-185,-202,-237,-228
-570,-284,94,496,-96,-201,-185,-186,-391,-560
-459,-218,146,491,-122,-199,-139,-100,-224,-498
-208,14,292,277,-54,-68,14,83,281,-200
116,150,293,175,36,41,80,94,389,-128
-73,-102,82,176,61,70,64,19,-33,-437
-402,-180,18,123,95,104,120,84,-167,-621
-308,-150,-95,-142,108,56,88,42,-133,-487
-159,-125,-197,-434,106,27,40,29,-23,-275
-27,-99,-157,15,57,37,18,47,33,-72
116,-20,-182,447,-18,61,33,76,118,160
167,385,254,473,37,109,55,55,295,238
-29,302,635,191,-29,-28,-54,-71,107,33
-179,-113,287,-174,-98,-14,-7,10,-98,-132
-214,-200,-154,-347,15,174,178,182,-39,-167
-424,-337,-238,-89,53,135,117,109,-95,-237
-627,-441,125,464,23,-56,-101,-102,-196,-57
-668,-483,138,398,-24,-157,-175,-158,-170,351
-616,-411,91,-12,-84,-119,-90,-29,75,701
-688,-398,55,-46,-11,-9,7,91,196,640
-561,-377,-83,17,54,45,42,134,154,279
80,-128,-110,-50,18,-5,0,44,65,-36
489,6,-106,-146,-12,-1,15,10,-7,-300
681,157,-233,-285,-81,-48,-35,-51,-42,-362
815,335,-291,-534,-192,-150,-161,-160,-100,-199
421,295,-266,-539,-129,-107,-108,-66,11,-77
128,546,83,-141,134,27,-11,-2,298,3
186,714,306,68,215,72,16,-72,254,1
118,225,59,61,137,93,64,-33,-97,-106
-32,-69,23,154,58,52,38,-25,-212,-189
-67,-45,193,275,-38,-46,-53,-69,-181,-217
37,37,166,410,-82,-76,-55,-48,-91,-123
55,25,7,473,-23,-14,26,22,-29,-29
-10,13,-24,154,32,33,75,66,53,53
-89,-18,11,-85,118,68,85,80,81,53
-95,-62,-140,-121,176,119,89,94,58,66
-16,-69,-187,-200,73,77,48,57,70,137
14,-122,-148,-305,-80,-59,-65,-3,103,244
114,-143,-256,-342,-214,-148,-115,2,105,312
7,-150,-95,-66,-203,-131,-101,-23,-15,251
-90,-88,79,-68,-185,-98,-74,-52,-76,483
-78,47,173,-125,-134,-67,-61,-65,-23,800
-178,-118,-26,-50,-111,-55,-81,-39,13,731
-163,-148,-126,-87,-82,-32,-64,47,127,443
56,-49,-120,-143,34,63,6,77,75,219
244,-29,39,52,91,80,35,52,-63,-72
164,-17,214,223,63,51,40,57,-102,-413
-47,24,245,145,22,22,2,-2,-171,-519
-236,143,334,206,18,-16,-28,-52,-9,-105
-302,388,545,197,116,65,45,-7,262,352
-226,236,239,40,169,101,88,-6,82,184
-221,-94,-232,-104,75,59,61,-31,-121,-119
-173,-135,-358,-95,49,87,85,20,-44,-144
335,-5,-465,-147,44,112,86,37,-56,-116
654,68,-358,-25,80,81,43,-14,-160,-335
73,28,372,349,100,-8,-48,-109,-209,-568
-225,34,678,417,64,-45,-82,-108,-112,-486
-136,-110,207,60,12,-31,-35,-15,-38,-237
-87,-191,-71,-201,-50,-31,5,35,76,49
-66,-170,-210,-311,-87,-19,37,42,170,300
-45,-100,-280,-134,-93,13,81,63,177,346
-210,-100,-66,310,-37,6,46,52,89,80
-431,-169,73,360,-26,-55,-64,-76,-129,-223
-287,52,191,19,4,-39,-52,-104,-52,-131
78,85,82,-258,-11,-20,-25,-52,65,119
-231,-212,-134,-445,109,44,31,-8,-40,58
-725,-324,-83,-18,300,147,107,-9,-67,121
-770,-393,-43,796,284,213,189,65,26,295
-286,-314,-39,816,124,204,217,159,150,206
200,-108,122,475,-9,69,86,91,48,-138
276,66,255,-65,-156,-71,-17,-10,-21,-353
615,572,300,-442,-229,-111,-35,0,290,-26
907,553,-70,-594,-289,-155,-49,33,269,236
814,179,-161,-367,-243,-169,-89,-6,-9,143
419,95,-51,-102,-130,-128,-108,-75,-113,125
85,9,-86,-33,-84,-109,-130,-93,-88,303
-170,-101,-85,-59,-38,-44,-92,-29,-35,279
-360,-159,-93,-64,49,75,44,109,1,14
-354,-27,-29,-60,95,131,73,110,-13,-211
-33,136,-105,-208,19,82,-4,-3,-89,-139
418,176,-111,-200,-70,-35,-78,-71,-128,-77
427,162,154,236,-83,-124,-125,-123,-126,-158
283,45,185,499,-43,-79,-78,-92,-74,-122
44,-52,29,186,-26,-11,-31,-13,19,-119
-154,-11,21,-83,9,1,-45,-21,-31,-245
-130,66,124,-103,25,11,-49,-67,-98,-323
138,320,283,-187,36,50,12,-51,58,-240
469,475,105,-387,15,67,49,30,179,-100
310,229,-363,-436,38,100,73,131,80,-85
127,104,-518,-245,109,177,136,198,4,12
172,103,-494,-294,85,199,185,235,137,282
299,111,-364,-476,-5,142,153,211,239,357
155,-21,-43,-121,-85,16,50,113,142,180
-48,-85,320,226,-131,-119,-91,-34,67,181
-112,-181,222,188,-163,-212,-198,-152,-32,486
-58,-183,22,29,-163,-205,-217,-184,-65,747
-9,-57,94,112,-92,-132,-176,-210,-90,554
-26,-48,57,146,-65,-61,-75,-127,-110,292
-15,-55,-98,4,-26,-9,23,-2,-209,-62
35,-36,-43,-34,57,38,63,2,-282,-366
-102,-70,19,65,139,90,73,24,-149,-584
-164,-56,-3,6,70,48,22,35,43,-525
36,-13,-89,-120,0,2,-8,33,56,-236
132,121,12,30,95,59,43,56,-25,-186
36,108,-23,10,222,194,128,114,-49,-293
-79,2,-109,-166,298,321,210,144,-54,-335
-229,-172,-166,136,186,176,94,16,-112,-378
-250,-169,9,409,-26,-125,-170,-222,-254,-374
-244,253,560,521,1,-154,-198,-236,-28,-270
-228,631,729,420,58,-40,-60,-103,412,-72
-189,277,203,304,3,28,43,49,457,155
-203,-181,-323,290,13,95,161,227,340,256
-205,-183,-92,511,24,88,198,269,230,125
-151,-161,181,447,-76,-95,-5,24,-46,-96
-206,-196,105,-256,-27,-174,-145,-170,-232,-233
-89,-66,-12,-236,81,-90,-127,-168,-257,-226
218,110,-123,149,1,-33,-73,-101,-184,-25
58,-28,-279,193,-96,-12,-6,-3,-121,224
-259,-168,-18,53,-112,-21,-4,32,-79,255
-403,-244,237,-126,-171,-100,-69,-20,-90,126
-366,-274,28,-151,-152,-84,-51,27,5,32
-146,-240,-22,-115,-42,7,21,81,41,-147
291,-114,-16,-108,-6,39,33,49,-71,-237
109,54,117,-88,12,50,24,-1,-90,-294
-78,23,88,-57,2,26,-4,-14,-71,-176
39,-102,-118,-157,-100,-59,-68,-38,-98,63
-20,-148,-188,-232,-112,-59,-52,-5,-59,108
-85,-147,-154,-134,-48,-29,-47,25,-9,48
-23,-88,-128,-43,-43,-69,-69,24,63,57
265,15,-88,-19,-57,-124,-110,-15,151,431
420,176,9,106,12,-94,-106,-11,238,725
156,419,309,314,170,108,65,144,416,471
-94,220,96,108,195,201,163,172,154,29
-211,-70,-96,-250,100,133,112,75,-130,-116
-297,-223,-90,-141,15,2,-21,-56,-226,-50
-276,-270,-162,-81,-60,-100,-92,-77,-200,-58
-11,-95,-86,-98,-63,-93,-67,-46,-136,-117
313,72,56,66,-47,-100,-95,-95,-65,-69
406,208,151,141,-22,-130,-167,-154,101,157
282,124,-51,-178,-1,-62,-83,-45,182,314
233,14,-277,-474,53,116,134,145,136,262
96,-76,-339,-438,106,234,244,229,76,187
-288,-209,-217,-175,92,222,236,245,111,37
-435,-207,12,105,40,114,156,141,22,-89
-506,-153,287,297,67,6,27,-36,-150,-318
-464,-11,295,341,94,-38,-20,-113,-130,-467
-184,366,482,188,136,50,45,-57,182,-449
527,619,465,-16,46,-6,3,-89,199,-281
796,483,82,-271,-139,-169,-132,-202,-103,-101
428,276,-104,-335,-119,-117,-73,-157,-203,5
178,30,-159,-47,-49,-70,-30,-125,-202,54
21,-74,-310,-67,-85,-84,6,-46,-84,98
39,-92,-363,-358,-112,-26,81,82,71,252
61,-109,-211,-217,-150,-92,-20,26,128,273
168,-128,-259,-142,-137,-154,-135,-76,-19,316
262,-104,-332,-382,9,-36,-54,-33,-72,513
219,-153,-411,-488,55,96,94,127,31,360
89,-107,-233,-96,37,49,47,69,-57,-17
18,5,-30,204,68,-65,-86,-50,-113,-32
140,125,-36,367,159,-64,-98,-49,-25,70
86,143,-229,119,172,72,56,117,150,104
-32,5,-574,-242,184,222,223,270,257,149
-233,-285,-179,193,78,48,39,83,34,-34
-352,-355,759,759,-125,-275,-268,-249,-231,-143
-161,-224,781,475,-157,-243,-193,-209,-229,-59
115,-61,409,219,-43,-43,-13,-39,-156,-109
37,46,218,230,-7,20,23,-42,-172,-274
103,151,134,105,-148,-101,-60,-123,-92,-159
273,272,209,-219,-192,-90,-42,-29,219,83
270,382,349,-464,-30,75,111,139,501,218
207,222,210,151,77,150,138,172,383,334
-52,52,90,994,73,123,114,153,202,232
-158,69,131,720,23,123,161,151,162,87
-174,0,151,11,-24,8,32,-4,24,-22
-303,-157,37,-425,-78,-125,-132,-166,-136,-183
-546,-204,-52,-254,3,-98,-146,-190,-242,-401
-637,-128,-129,-115,114,28,-43,-91,-246,-538
-284,-112,-239,-249,89,82,51,-19,-132,-203
129,-101,-124,-129,-7,17,12,-58,-132,-2
145,-139,-71,90,-94,-66,-70,-46,-193,-148
357,-65,-41,47,-120,-63,-68,-17,-241,-285
371,-16,-102,-64,-99,-21,-45,-41,-309,-233
220,-1,-138,-9,-28,0,-19,-36,-195,-66
26,107,64,68,100,110,92,126,141,-116
-185,38,77,17,196,200,160,161,13,-350
-258,-30,-16,-91,139,169,100,72,-200,-435
-245,-63,51,-31,38,67,19,0,-189,-272
-320,-162,53,51,-9,33,2,19,-94,-135
-379,-225,-50,-27,4,44,16,49,0,49
-358,-191,-102,-127,44,62,15,35,2,168
-298,-41,8,-111,70,70,19,38,97,215
-82,287,236,-78,105,79,25,8,292,272
-50,23,27,-44,74,53,8,10,162,61
103,-128,-124,54,14,3,-28,-7,-14,-133
22,-122,-173,27,-71,-45,-50,-5,-34,-252
39,-138,-186,-115,-121,-58,-33,23,67,-77
509,36,-161,-174,-152,-101,-75,-16,103,228
617,228,-134,-194,-150,-104,-95,-85,2,283
315,347,-78,-229,-42,-12,-10,-38,64,280
79,198,-96,-113,75,67,48,-14,40,160
14,50,-293,-153,125,145,117,47,108,178
-54,-100,-362,-299,142,245,229,185,232,163
-75,-243,-100,-10,105,154,134,96,61,-61
-50,-193,96,373,4,-46,-80,-129,-235,-283
-48,46,326,493,-111,-173,-216,-284,-392,-323
27,290,457,291,-124,-167,-170,-222,-214,-163
10,635,510,106,19,-9,8,-29,234,38
-114,473,228,19,69,60,60,59,266,48
-25,49,-178,-90,-7,26,30,92,21,-7
128,-57,-329,-155,-20,8,1,94,-15,103
246,-35,-332,-169,0,11,5,83,11,315
245,-50,-166,-120,6,10,0,72,13,335
263,-25,209,73,10,-71,-82,-7,-25,201
252,116,309,332,71,-52,-60,-28,38,91
199,38,35,329,88,19,-6,-8,-7,95
214,-76,-282,-226,54,51,35,25,14,423
210,-126,-345,-595,-27,-1,7,27,64,585
144,-157,-182,-277,-98,-157,-144,-112,1,412
70,-159,-196,153,-76,-189,-207,-134,6,185
78,-25,-149,137,56,20,-22,25,42,-54
142,150,-183,161,134,238,199,187,74,-233
57,108,-226,326,80,248,214,180,69,-227
-235,-120,192,598,-92,22,36,-2,-72,-210
-385,-275,172,277,-249,-171,-115,-103,-97,-106
-275,-227,40,-404,-311,-194,-124,-81,-53,1
-264,-77,214,-232,-210,-114,-65,-38,-55,-95
-406,-77,327,205,-36,-27,-25,-58,-161,-325
-343,-132,189,227,105,69,45,-20,-106,-304
-164,138,364,101,125,95,77,26,192,-90
-183,372,534,64,116,97,84,45,398,8
-345,71,189,125,51,56,63,30,254,132
-420,-179,-184,150,-15,-14,20,0,95,219
-338,-184,-204,-33,-60,-59,-19,-45,39,344
-154,-131,-71,-173,-67,-50,-27,-68,-57,396
189,-62,23,-182,-76,-80,-70,-107,-147,287
533,59,85,-220,-93,-130,-140,-174,-146,140
248,84,102,-205,-32,-79,-88,-108,-29,-34
90,10,-120,-355,21,15,20,34,28,-301
572,139,-209,-527,8,32,6,9,67,-260
579,165,-173,-349,-11,-15,-48,-123,-22,1
301,-27,-266,-112,17,-9,6,-92,-64,203
176,-121,-222,43,28,8,50,10,-51,187
27,-112,-119,133,29,29,70,93,19,35
-156,110,191,184,93,117,149,167,178,-81
-269,-35,118,115,51,114,128,176,57,-144
-176,-107,53,85,-26,22,37,46,-132,-157
-199,-46,230,278,-25,-32,-32,-76,-251,-401
-345,-98,209,327,-39,-63,-55,-90,-223,-453
-393,-162,35,171,12,-21,-21,-60,-194,-326
-353,-162,-52,100,57,39,21,-18,-175,-303
-197,79,111,72,81,98,74,5,2,-185
3,481,382,35,115,116,91,2,299,-15
186,156,29,-64,0,28,39,0,140,-11
177,-90,-246,-128,-59,-33,-10,8,78,-20
74,-100,-318,-78,45,11,10,44,26,-47
-47,-125,-291,-85,132,107,100,123,-19,-177
-197,-130,-35,-135,149,156,157,138,-43,-165
-298,-143,65,-226,119,159,142,105,21,164
-334,-165,-5,-104,143,125,105,94,226,428
-492,-350,-42,399,85,-37,-50,-13,144,255
-604,-434,-10,610,4,-89,-76,-49,86,149
-327,-317,25,348,-20,-71,-67,-68,97,364
355,-63,67,103,-66,-101,-90,-87,62,552
231,50,70,-80,-91,-98,-79,-88,-72,514
-501,39,12,-221,-39,4,28,-7,-77,300
-421,64,-66,-186,14,101,129,125,100,130
630,374,-145,-44,-70,-1,44,74,78,-4
1216,631,-156,77,-166,-137,-101,-80,-72,-127
830,456,-184,-24,-76,-118,-64,-61,-43,-144
377,271,-69,-96,52,-46,10,-25,-75,-341
96,115,24,99,96,-6,45,-25,-117,-481
21,35,79,73,63,1,22,-20,-78,-314
37,80,107,-144,32,14,40,39,18,-177
0,352,456,-33,100,51,45,16,138,-195
-118,389,671,238,102,19,-14,-65,155,-159
-153,5,226,103,-21,-60,-85,-86,-20,-7
-92,-173,-149,-208,-64,-95,-96,-53,-16,132
30,-212,-353,-497,-91,-110,-110,19,190,311
335,-84,-456,-636,-140,-155,-159,12,242,412
566,86,-464,-717,-155,-103,-96,-2,199,360
307,149,-248,-523,-21,39,62,56,83,-46
-12,47,57,-36,124,115,123,64,-67,-302
-100,-106,160,324,64,-5,-7,-44,-169,-210
-104,-17,61,64,52,-64,-77,-54,-158,-115
-175,18,-115,53,245,41,29,63,-21,8
-303,-40,-192,708,296,161,175,183,61,3
-299,-17,-380,630,242,307,307,280,101,-33
-184,59,-416,185,149,262,233,182,-10,-97
-229,377,478,213,-3,-26,-64,-126,-123,-293
-205,506,994,280,-85,-147,-178,-254,-174,-414
-33,100,416,204,-103,-103,-100,-164,-239,-350
122,-111,94,86,-157,-128,-107,-140,-248,-182
141,-115,104,24,-187,-155,-104,-133,-183,3
49,-79,-7,15,-152,-104,-47,-43,-99,247
-9,-57,-84,2,-92,-53,-16,10,-8,362
-22,-21,-18,-45,-44,-26,-16,48,158,443
111,37,-19,-113,1,6,0,59,192,416
348,-14,0,-116,-9,21,-2,43,57,258
426,-35,27,-106,-34,5,-19,-2,-30,80
-51,-99,-125,-63,-15,13,-9,7,36,-164
-288,-167,-135,100,-40,-33,-53,6,93,-259
61,-1,17,30,-136,-75,-84,-24,48,-79
252,111,162,-79,-88,-16,-31,-18,-38,-30
-20,91,156,74,112,115,76,62,26,-127
-204,-92,-48,187,140,142,96,100,-1,-117
-132,-129,-170,123,122,114,61,65,0,40
-171,-199,-135,149,117,59,5,-1,-41,128
-237,-205,-139,78,74,39,33,11,-6,211
-226,-173,-46,-1,-30,-14,-6,-33,-50,115
-29,-26,69,-117,-91,-45,-74,-88,-142,-28
45,7,-49,-185,-11,14,-56,-41,-90,-112
19,-82,-146,90,164,100,8,13,-19,-118
228,-57,-173,509,208,114,47,35,-9,-74
92,-54,-173,475,96,86,20,22,-28,-8
-115,-96,41,99,-71,-23,-42,-56,-77,-23
-60,-119,136,-174,-206,-126,-81,-116,-177,-42
58,-107,11,-410,-288,-173,-115,-128,-165,3
15,-52,16,-400,-222,-106,-76,-48,-28,-37
7,253,293,-126,1,30,12,14,227,28
36,319,409,-24,75,59,4,-23,278,85
73,-4,100,-33,0,-22,-63,-78,107,104
22,-163,-67,-38,-46,-66,-82,-39,86,93
-20,-126,-137,-144,0,9,17,102,171,66
-27,-94,-185,-257,68,115,123,176,158,99
-99,-96,-6,-26,114,109,109,127,111,226
-212,-8,245,205,108,74,105,106,246,368
25,325,441,78,31,46,81,91,510,633
374,264,132,-243,-194,-130,-87,-14,456,961
418,-42,-222,-383,-305,-242,-175,-68,207,753
167,-129,-176,-192,-181,-155,-133,-61,-30,-13
-135,-98,-143,-89,-21,23,-19,-32,-313,-579
-180,-83,-197,-212,6,106,68,3,-384,-724
-103,-22,-60,-108,-11,80,55,-21,-364,-703
-251,-22,78,108,-18,40,27,-33,-241,-544
-595,-226,4,223,36,99,88,59,-209,-560
-681,-243,33,204,113,187,160,136,-180,-666
-469,-130,-2,60,72,122,122,78,-176,-560
-55,20,-77,-28,1,3,-20,-44,-222,-451
233,44,-93,-40,-29,-72,-91,-101,-167,-352
361,-18,-146,24,23,-52,-72,-55,-62,-199
412,118,119,326,56,-70,-82,-92,-35,-105
211,122,166,339,67,-39,-40,-70,-54,11
15,-41,-58,-231,80,15,4,31,25,205
83,-94,-321,-329,28,76,52,120,144,419
92,-260,-407,142,-15,71,27,98,74,417
67,-312,2,658,-53,-95,-140,-92,-133,185
50,-230,155,407,-162,-236,-234,-192,-225,-60
-65,-129,148,-129,-196,-154,-121,-110,-117,-106
290,410,338,-350,-121,-65,-18,-34,253,98
429,809,380,-248,-97,-107,-34,-41,354,31
130,423,52,-106,-65,-102,-40,-32,63,-163
116,33,-261,-211,28,9,55,25,-62,-79
63,-71,-286,-303,146,142,141,77,-62,-115
-35,-32,-208,-345,178,184,132,53,-74,-137
-22,30,-148,-344,120,150,120,62,-30,-82
109,102,-31,-291,49,156,150,129,69,-26
163,19,155,-18,-56,40,55,39,-23,-144
70,-122,35,288,-91,-91,-71,-90,-154,-217
49,-180,-58,427,-115,-175,-165,-153,-140,19
132,-68,73,260,-160,-183,-166,-114,-14,295
155,47,65,156,-103,-70,-71,-14,65,290
83,50,-30,155,23,39,19,27,-4,97
41,-14,-162,516,131,79,69,51,-69,10
-59,-105,-45,791,97,-17,-31,5,-42,8
-23,-138,-8,298,-17,-95,-89,-4,-9,214
-163,-185,58,-160,-100,-114,-93,-14,-13,221
-410,-260,87,-279,-130,-94,-61,23,-3,-1
-384,-159,-73,-424,-105,-13,24,125,69,19
-110,33,35,-230,-29,28,29,44,-27,135
11,21,35,-151,34,63,59,38,-30,115
118,173,89,-289,94,141,141,93,182,76
128,426,580,-35,171,140,116,25,299,-50
143,134,367,225,76,2,-24,-65,134,-106
54,-155,-117,139,-26,-77,-104,-62,35,71
-34,-80,-222,-226,-11,-37,-50,-7,97,230
-16,-7,-263,-532,51,69,52,69,82,132
-149,-55,-22,-330,67,77,59,19,-59,-163
-262,-91,171,-20,-32,-17,-14,-57,-95,-214
-154,41,141,0,-84,31,61,22,-13,-49
-115,0,186,62,-87,58,129,51,-111,-81
-295,-135,187,233,-21,17,84,-28,-197,-267
-294,-213,34,361,98,26,68,-75,-189,-330
-103,-139,-46,135,38,0,31,-68,-104,-181
-4,-39,-28,1,0,-12,10,-31,-42,-98
87,-4,59,191,25,-43,-43,-69,-60,-102
-5,179,190,229,64,-12,-22,-57,114,-33
-64,491,421,171,113,41,24,-19,406,186
-107,177,148,79,73,43,53,46,310,406
-113,-198,-238,0,-2,13,40,88,80,554
-72,-200,-245,-20,-46,-35,-38,17,42,586
-56,-203,-148,-54,-75,-63,-82,-3,64,460
221,-149,-159,-119,-104,-72,-56,44,57,288
433,35,-142,-135,-113,-73,-59,-19,-57,-31
136,125,-213,-78,-4,-9,-13,-37,-129,-347
30,-64,-334,-133,-33,-30,-3,15,-147,-299
70,-64,-187,-149,-107,-113,-85,-9,-64,-127
159,44,-67,-62,-96,-117,-126,-35,-30,5
229,103,12,122,-33,-70,-82,-27,-94,-36
80,19,-2,189,52,33,38,66,-101,-279
-69,-34,-21,20,113,106,125,102,-89,-406
-143,13,-19,-165,178,149,126,45,-108,-432
-151,-34,-116,-217,199,115,80,-41,-139,-341
-94,-81,-254,-294,158,112,72,-27,-103,-161
-25,-59,-355,-415,91,181,148,86,5,55
14,-36,-299,-292,50,175,175,125,91,226
-28,-51,49,-8,-88,26,53,22,66,268
-237,-102,282,203,-128,-64,-46,-61,-9,172
-474,-109,303,158,-20,-36,-47,-13,82,121
-377,214,436,80,69,0,-27,12,348,311
-145,337,440,131,58,-47,-93,-90,322,465
-188,49,125,178,-28,-94,-98,-72,217,368
-98,-69,-68,108,-64,-37,0,65,232,82
570,70,-76,-26,-73,-25,15,51,57,-170
757,196,-33,-65,-10,-27,16,-34,-85,-220
394,162,9,-18,13,-51,-9,-79,-94,-71
230,218,123,21,49,-41,-29,-78,-38,121
116,139,28,-58,126,50,60,32,12,143
35,86,16,87,203,100,102,67,-47,29
49,45,6,130,290,137,113,51,-93,-55
70,-59,-255,-50,326,202,160,127,21,38
120,-123,-347,380,198,97,35,23,-28,32
52,-43,-225,779,15,-19,-45,-53,-91,37
-74,6,7,600,-137,-96,-81,-60,-80,163
192,62,160,-99,-219,-125,-83,-42,-98,391
219,-67,59,-248,-159,-80,-52,-16,-181,352
4,-135,-21,-222,-109,-42,-45,-6,-149,54
-20,-112,-151,-317,-83,4,-20,36,-124,-95
111,2,-180,-258,-14,63,36,97,-39,-27
234,24,-293,-271,12,91,57,111,80,55
175,41,-304,-301,29,94,53,68,11,-55
14,319,298,-16,32,23,-12,-61,18,-158
0,584,864,301,29,-34,-90,-146,163,-147
-177,265,524,255,46,-6,-32,-56,77,-182
-369,-95,99,58,65,46,37,22,-80,-162
-381,-107,-100,-63,102,110,84,74,-47,-123
-242,-37,-148,-89,86,81,39,42,-49,-78
-56,-18,-180,-133,72,75,50,37,-9,36
289,-36,-206,-286,43,83,115,71,162,290
298,-22,-32,-238,-77,-40,11,13,231,384
35,-59,-52,27,-182,-162,-98,-58,86,222
141,-44,-95,158,-140,-89,-44,-13,59,265
143,-48,-78,51,-98,-20,19,44,106,361
69,-107,-83,-111,-37,28,73,93,192,328
124,-103,-309,-290,2,51,85,98,156,183
135,-69,-463,-265,73,85,54,60,24,-135
25,-50,-223,-78,100,94,47,5,-171,-516
-82,-67,-203,-15,91,107,63,30,-222,-636
-260,-175,-187,38,-35,-18,-25,-3,-158,-428
-337,-213,240,152,-239,-252,-228,-130,-94,-7
-227,-157,404,215,-240,-314,-329,-252,-197,129
-210,-126,310,234,-51,-139,-189,-195,-300,-137
-338,-135,228,265,103,64,4,-56,-283,-369
-348,-146,119,234,121,105,52,-6,-223,-448
-262,-143,120,134,63,51,13,-14,-165,-477
-186,-137,42,-35,-22,-11,-25,-5,-70,-385
72,29,19,-92,-63,-71,-70,-16,-28,-76
110,154,103,25,-78,-110,-108,-44,-26,108
127,216,171,44,-61,-110,-101,-27,-33,122
143,156,113,-75,-27,-76,-85,-53,-98,142
-20,65,48,-182,32,6,-35,-43,-56,77
0,269,200,-262,114,112,47,39,196,33
147,472,333,-314,148,208,162,111,377,67
75,177,-3,-123,115,260,256,187,213,-104
28,-14,-135,90,-3,192,242,230,119,-206
119,23,3,77,-81,61,139,169,100,-74
15,-65,0,206,-112,-149,-92,-61,-97,-91
-159,-193,-153,239,-89,-254,-202,-187,-198,-124
-189,-33,-16,208,-52,-165,-117,-144,-108,-63
-87,447,303,150,29,-2,50,-47,239,122
35,433,251,31,40,22,93,-39,317,379
227,38,-72,-74,-51,-56,27,-52,103,443
134,-96,-194,-135,-80,-65,29,9,32,158
79,-86,-173,-69,-97,-86,-1,31,65,30
264,-7,-98,3,-129,-108,-54,4,117,126
302,58,-146,-127,-76,-41,1,38,179,212
136,147,-18,-197,50,30,46,5,90,152
25,69,148,-76,68,-4,-12,-130,-199,144
-2,-15,-6,-208,-3,6,-19,-89,-174,138
-98,-100,-220,-465,-29,100,83,130,47,-99
-83,-74,-295,-290,39,137,132,185,64,-163
-342,-133,12,159,61,57,36,77,-83,-321
-531,-216,47,142,32,14,-9,39,-81,-179
-432,-152,-90,-183,56,10,-41,-15,-69,15
-423,-132,22,315,88,-22,-86,-75,-71,-22
-594,-296,0,948,59,23,-27,-29,-147,-209
-499,-270,-71,654,-27,38,7,31,-110,-225
87,-96,-11,22,-130,-45,-53,0,-126,-113
203,-55,188,-327,-202,-122,-116,-93,-224,-189
53,-63,165,-287,-158,-63,-56,2,-126,-170
166,-19,27,-212,-95,3,-5,37,-15,12
205,310,218,96,-63,-49,-41,-89,177,63
380,659,372,199,-79,-132,-107,-165,397,88
590,267,-4,-34,-120,-132,-103,-92,264,183
484,-97,-281,-181,-111,-109,-69,-12,88,264
353,-106,-299,-203,-126,-143,-97,-18,84,335
198,-167,-304,-267,-148,-137,-67,52,138,248
161,-156,-252,-222,-103,-77,7,79,90,55
64,-61,28,123,-18,-42,4,26,-98,-272
-53,-33,153,372,23,-9,37,35,-176,-440
-5,-41,103,274,58,45,78,72,-126,-352
-38,-33,132,49,88,108,116,98,-104,-288
-208,-88,67,-54,117,151,145,92,-143,-250
-247,-151,-66,-107,72,110,108,73,-106,-119
-170,-155,-48,-64,14,51,51,63,-54,-1
-138,-148,10,37,44,59,32,64,-38,-37
-28,71,265,81,157,98,45,45,134,-26
-10,102,305,20,165,104,81,62,235,-13
-299,-194,30,75,137,85,67,63,75,-1
-180,-178,-144,-67,97,64,56,30,67,483
6,-65,-346,-422,6,71,102,71,120,775
100,120,-352,-434,-109,-38,0,12,92,767
199,124,-215,-88,-213,-233,-203,-176,-85,591
-83,44,138,159,-127,-208,-211,-239,-167,198
-331,1,344,278,-8,-86,-92,-142,-41,-1
-141,-148,42,307,-24,-45,-31,-28,-41,-53
181,28,-31,253,-19,-36,-18,-11,-70,-124
30,41,-44,33,65,55,70,65,-70,-307
-321,-94,-29,-107,146,161,143,119,-125,-611
-186,-82,-94,-158,33,51,21,32,-193,-605
-267,36,-145,-245,-53,-34,-52,-57,-250,-478
-670,52,47,-112,25,-2,-33,-67,-171,-322
-675,-113,-129,-68,104,63,44,47,-58,-137
-252,-78,-390,-212,178,151,115,147,61,113
330,71,-448,-261,144,102,55,102,76,333
635,169,-584,-148,71,59,34,81,70,270
609,201,-537,-224,47,133,105,149,143,94
534,98,22,-110,10,84,59,77,93,-157
570,238,430,-12,-101,-77,-58,-76,67,-342
611,739,660,-173,-185,-138,-95,-124,346,-126
525,627,578,-83,-243,-215,-179,-193,309,205
322,54,179,64,-233,-257,-235,-188,44,185
175,-41,52,107,-92,-126,-120,-56,5,-4
122,-18,4,59,38,9,3,17,-116,-154
39,10,-9,72,127,85,53,4,-273,-302
-121,-41,37,124,147,78,37,41,-251,-368
-154,-31,-10,-214,139,92,75,105,-77,-137
-229,-103,-121,-97,127,103,104,120,-40,59
-384,-137,144,692,94,50,23,31,-86,-21
-382,-114,343,1066,38,-16,-56,-44,-102,-164
-133,-94,220,560,-47,-42,-58,-74,-112,-112
-24,-64,25,-176,-87,-17,-15,-62,-89,34
7,-77,-67,-109,-2,3,2,-16,-9,253
30,-121,-160,-37,94,21,10,31,79,449
-37,-116,-131,-120,94,7,3,51,119,442
-220,-219,-156,-132,17,-54,-35,38,101,298
-286,-305,-58,-54,-55,-84,-47,0,51,309
-25,-305,27,7,-65,-92,-94,-67,-51,237
-94,-276,-13,76,1,-29,-24,-33,-71,-30
-518,-310,-98,8,15,73,88,82,17,-208
-225,-157,-37,-46,-70,19,62,98,122,-67
393,344,416,188,-100,-67,-25,20,271,92
305,621,577,338,-21,-24,-9,3,338,97
221,288,253,131,28,16,20,18,136,22
318,7,67,-113,101,40,18,-22,-106,-63
127,-162,-89,-131,154,115,91,15,-144,-36
-107,-265,-263,-165,125,138,121,64,-52,79
12,-204,-337,-280,85,116,93,71,49,266
347,6,-220,32,38,43,33,37,124,373
161,142,24,420,-5,-60,-59,-46,-12,-60
-76,180,-62,119,-43,-59,-52,-38,-148,-496
-46,215,-202,-424,-94,-48,-26,-16,-162,-653
47,139,-202,-535,-125,-80,-70,-76,-222,-587
81,-58,-205,-526,-129,-87,-68,-80,-155,-306
7,-134,-102,-248,-103,-95,-48,-66,-128,-117
-101,-48,117,191,-48,-85,-42,-47,-77,-33
-237,303,416,503,68,23,22,48,227,60
-174,306,359,328,85,91,72,102,277,230
15,0,-57,-73,-28,23,7,45,63,370
103,-52,-104,3,-79,-91,-111,-58,27,553
14,-151,-121,30,-93,-151,-139,-72,100,622
-90,-206,-223,-79,-73,-81,-36,20,168,414
-79,-70,-46,42,-5,-7,0,-5,-50,-3
-232,149,268,169,62,34,9,-92,-197,-342
-406,126,179,86,120,130,106,-15,-145,-461
-268,-122,-141,-171,31,81,97,65,-158,-448
-102,-121,-137,-346,-62,3,41,63,-46,-257
-189,-112,71,-78,-47,-3,11,21,-32,-200
31,-94,52,72,-42,-23,-15,-1,-48,-125
278,-73,-101,-40,-47,-32,-11,-3,14,29
281,23,-147,-90,-68,-76,-58,-79,77,212
307,184,-67,-140,-70,-87,-90,-137,129,345
152,72,-119,-153,-3,-14,-12,-64,46,238
-97,-3,120,21,78,18,8,-56,-49,29
-276,-82,225,116,122,50,18,-73,-129,-118
-149,-100,93,-20,105,132,139,41,-57,-137
136,19,-21,-172,-6,89,136,55,-5,-32
7,-22,-40,-104,-29,57,95,66,37,-3
-178,-38,143,74,8,72,119,143,249,-3
-151,198,488,211,4,17,35,85,388,54
-97,86,287,94,-37,-49,-54,2,240,93
-20,-175,-135,-142,-91,-92,-112,-60,1,152
-1,-221,-207,-176,-38,-58,-80,-45,-62,152
189,-131,-341,-191,5,-13,-27,-14,-97,106
565,1,-529,-419,-68,-56,-56,-49,-81,237
340,-5,-484,-482,-90,-56,-19,-22,3,228
89,41,-355,-232,-19,0,36,24,92,185
-65,-8,-148,259,50,21,20,-3,-49,63
24,11,272,508,79,27,2,-76,-217,-36
411,78,186,265,-1,-9,-34,-78,-131,101
388,32,195,75,-13,-34,-49,-39,-10,19
150,-6,109,76,78,-21,-58,-59,-43,-161
-125,-72,-79,563,142,92,32,10,-46,-318
-139,59,-129,517,117,233,213,147,-10,-379
-14,164,-30,70,76,267,239,162,-67,-420
-135,-15,128,-147,-73,63,59,24,-172,-464
-365,-189,231,-312,-157,-96,-81,-76,-174,-499
-292,-162,196,-172,-66,-77,-62,-56,-60,-329
-121,-83,45,-194,-55,-43,-21,-3,76,-55
-62,-78,-50,-222,-40,-1,11,26,114,111
-146,-44,76,85,45,18,40,4,85,87
-179,300,466,319,97,31,57,4,287,109
-183,386,542,245,61,-7,4,-24,344,177
-245,-28,136,104,14,-23,-7,-15,86,202
-245,-223,-130,78,44,23,70,8,-86,124
-144,-179,-104,-8,33,23,83,0,-75,105
3,-80,-137,-106,-38,-19,27,-21,-29,213
90,-28,-144,-132,-63,-34,-4,-31,-27,209
266,150,-47,-112,-48,-28,-3,-37,28,258
499,256,-29,-113,-67,-48,-23,-35,116,499
331,113,-48,-37,-60,-34,-13,5,177,507
88,16,26,22,12,61,40,29,163,284
-18,-46,-115,-142,-11,112,99,110,175,1
-87,-115,-217,-238,-82,68,107,147,165,-129
-59,-109,-111,-29,0,36,50,47,-55,-234
-84,3,98,282,141,24,-5,-56,-256,-377
-222,388,479,396,202,67,22,-52,1,-396
-219,265,318,142,63,34,-5,0,143,-138
-194,-89,-91,-55,-50,-41,-83,30,75,54
-64,-137,-137,-51,-28,-66,-105,11,68,79
170,-101,-49,-1,22,-55,-102,-30,-49,76
71,-93,-52,-44,72,20,-16,4,-152,-22
49,-92,-86,-235,103,69,41,38,-167,-169
12,23,33,-239,169,88,36,18,-114,-184
-29,3,-73,-37,152,116,77,52,-14,-47
199,-35,-394,-84,31,83,75,94,-9,79
230,103,-399,-35,-25,15,-3,60,-34,93
89,104,-212,199,-42,-99,-143,-61,-80,113
-87,-16,-154,-207,-55,-128,-163,-52,23,316
-119,-99,45,-402,-51,-91,-127,-3,43,242
83,-51,125,-144,-20,-47,-106,-28,-33,148
222,35,58,25,1,14,-14,-3,-11,192
182,19,54,107,2,42,72,50,38,88
349,11,82,247,-63,-48,11,7,55,0
216,80,285,490,-105,-170,-160,-169,-135,-248
-97,71,275,438,-33,-112,-124,-162,-195,-331
-109,18,192,253,-1,-12,0,-70,-143,-98
-80,-34,104,118,-10,40,62,-5,-115,10
-259,120,205,85,50,78,90,8,15,-6
-440,445,478,105,88,79,106,33,250,189
-443,234,330,111,41,78,110,68,206,268
-334,-143,45,167,1,74,120,107,101,32
-356,-178,112,226,-24,35,55,77,83,-201
-284,-183,85,13,-66,-8,32,33,66,-304
629,-110,-254,-265,-125,-59,0,26,138,-85
1130,35,-486,-134,-105,-114,-80,-54,107,-6
612,108,-428,-60,-44,-104,-76,-85,36,-201
278,118,-298,-397,71,-2,4,20,-39,-282
288,152,-37,-611,69,0,9,50,13,-29
196,42,-89,-210,-8,7,4,55,53,223
132,-1,-132,38,-68,30,26,60,50,327
-46,-67,90,455,-60,-46,-91,-52,-118,140
-329,-186,231,475,-113,-199,-249,-198,-323,-200
-389,-78,234,137,-155,-202,-254,-217,-328,-310
-294,-81,39,-194,-148,-107,-132,-85,-165,-131
-265,-154,-107,-181,-93,-38,-26,22,-74,-90
-219,-83,-115,-58,-44,-27,-16,-42,-162,-176
-47,-104,-127,-75,-64,-72,-30,-45,-67,-31
28,-148,-131,-84,-58,-64,-3,24,34,41
-96,-158,-159,-22,15,27,62,59,-12,-154
-136,-48,-134,16,80,94,121,108,77,-229
77,450,278,33,146,116,132,83,448,-7
172,518,285,1,124,71,82,35,497,80
99,86,-45,-2,40,16,38,20,141,-21
66,-4,-25,18,48,18,28,-19,-107,-14
59,-17,-30,-44,31,10,19,-36,-156,15
47,-83,-146,-157,-32,-11,-3,-24,-92,109
49,-75,-256,-165,-42,2,12,23,4,139
14,-77,-476,-307,27,79,74,147,152,138
-41,-82,-431,-467,79,141,135,206,172,218
-122,-45,80,-179,115,67,48,33,-4,350
-203,-39,340,157,92,10,-42,-107,-118,563
-236,-81,194,136,67,65,35,-27,10,616
-202,-158,3,-10,88,150,148,117,113,377
-75,-211,-47,62,88,124,99,91,1,125
-148,-140,42,315,104,21,-43,-49,-136,-220
-267,167,383,411,142,42,-42,-31,26,-515
-79,19,170,285,115,93,33,60,27,-628
266,-31,-156,-88,-52,-11,-52,-33,-152,-554
412,92,-152,-233,-123,-91,-146,-118,-216,-469
179,7,0,24,-92,-83,-116,-78,-192,-476
23,-83,45,211,-84,-61,-64,-39,-70,-270
71,-42,21,159,-104,-57,-56,-49,38,24
240,224,210,95,-28,-24,-43,-26,180,304
125,157,184,115,21,16,-12,6,75,222
-121,-34,6,125,-19,-5,-35,-6,-77,32
-99,-9,-60,39,-81,-75,-90,-64,-64,229
41,-23,-104,-60,-120,-111,-106,-84,-46,359
27,-44,-142,-129,-119,-110,-78,-52,-108,206
-113,-35,-159,-163,-83,-72,-80,-61,-120,151
33,66,-147,-235,-83,-80,-119,-65,42,300
476,231,-184,-268,-71,-85,-112,-56,113,448
587,199,-300,-290,-7,-7,-33,-6,40,378
383,121,-68,-169,62,112,73,63,-37,56
40,-30,170,222,109,143,80,62,-109,-298
-291,-209,73,332,82,97,54,54,-53,-413
-357,-199,49,255,72,110,125,111,11,-241
-289,-75,74,175,85,141,173,89,6,-30
-264,206,186,108,147,174,192,76,205,48
-270,462,355,241,252,187,169,47,365,43
-350,148,339,639,180,110,88,-16,100,-202
-47,-120,168,662,0,-40,-40,-100,-141,-240
328,-62,90,33,-116,-117,-113,-131,-117,-42
175,-39,28,-338,-101,-115,-117,-130,-38,203
-11,-119,-193,-430,-28,-38,-31,-45,44,356
8,-154,-358,-531,32,52,91,67,128,212
83,-46,-394,-534,50,114,137,100,163,120
45,-151,-265,-376,-19,77,75,46,39,137
-135,-217,250,162,-133,-126,-128,-109,-95,20
-88,-133,294,419,-163,-171,-178,-122,-171,-217
135,31,146,162,-145,-117,-154,-91,-188,-332
460,91,-36,-238,-60,-1,-48,31,-77,-243
371,121,-133,-302,84,150,92,111,-65,-255
177,202,-207,-426,132,200,132,126,0,-181
181,154,-185,-573,69,124,79,89,63,-6
-21,-20,18,-437,0,9,-7,11,-1,30
-258,-117,112,-109,3,-58,-88,-111,-186,-119
-408,-192,257,426,76,-149,-184,-230,-231,-254
-369,-195,200,706,58,-203,-193,-205,-86,-125
-189,-56,103,867,-36,-123,-71,-56,54,86
-7,108,124,622,-48,45,91,116,146,133
67,330,476,273,39,93,104,116,190,-51
-52,208,432,-135,-27,-33,-1,-1,86,-180
-63,-119,-137,-271,-129,-143,-82,-55,-56,-129
5,-148,-233,-254,-132,-121,-40,-30,-61,-32
145,-78,-79,-55,-64,-78,0,-24,-54,103
234,-26,5,37,-47,-62,2,20,60,179
256,34,9,50,-66,-80,-8,16,171,117
169,118,21,17,-29,-36,14,-2,147,-58
31,48,-19,17,7,1,38,-3,23,-189
-58,-32,-35,29,11,18,50,9,-30,-227
-76,-64,-86,-37,48,90,109,63,-3,-173
-74,-72,-43,-33,86,123,89,44,-5,-86
-121,-94,134,140,70,20,-26,-73,-147,-6
-136,-140,64,161,40,-35,-54,-114,-197,77
-38,-23,-16,-35,-25,-62,-57,-96,-52,169
166,412,141,-172,-16,-31,-22,-32,281,361
197,190,-56,-208,-48,-26,-15,39,203,295
113,-68,-223,-248,-62,-4,-9,89,83,83
25,-19,-192,-249,-8,40,-9,98,2,-77
-162,-89,-209,-144,88,111,42,107,-53,-133
-300,-197,-111,62,144,163,87,81,-123,-197
-81,-127,91,259,85,75,16,-51,-214,-148
96,153,194,150,36,5,-14,-103,-53,-27
-80,12,23,-76,36,26,21,-16,-17,-95
-287,-214,-153,-141,91,101,98,77,-59,-130
-405,-239,-222,-178,108,159,168,147,25,31
-446,-225,-204,-67,77,111,125,150,94,252
-428,-205,40,83,35,15,34,98,131,403
-555,-261,162,249,77,3,13,47,89,391
-304,-231,-6,272,93,35,41,43,114,335
587,50,-95,216,2,-12,20,0,90,313
1006,226,-187,-7,-118,-107,-60,-97,-67,248
791,267,-117,-236,-216,-191,-137,-160,-87,139
284,110,75,-97,-195,-198,-173,-181,-94,-66
20,-42,198,89,-107,-128,-102,-124,-71,-135
-45,-68,134,-28,-72,-64,-36,-50,-2,-37
-149,27,145,-62,-11,-2,3,33,90,-141
-26,348,240,-76,65,62,54,119,468,24
156,592,217,-327,63,106,96,122,667,314
175,305,-160,-364,-35,108,66,110,301,181
217,93,-276,-51,-96,28,-6,58,-93,-81
69,58,-57,199,-35,2,-49,-41,-302,-265
-199,-78,151,354,43,-13,-64,-70,-296,-365
-327,-129,218,338,62,-18,-57,-34,-231,-413
-234,-33,153,255,91,33,-17,7,-221,-375
-114,-10,111,75,87,74,38,88,-139,-225
-179,-52,-18,-163,12,26,13,85,-107,84
-330,-58,-56,-269,-45,-38,-43,29,-48,412
-455,-152,-100,-266,-40,-24,-20,49,10,395
-127,-161,-246,-365,-33,4,24,96,34,211
267,-124,-182,-183,20,0,11,35,-108,-198
255,-132,-5,111,67,-33,-6,-59,-250,-477
-59,-20,3,74,80,-27,6,-74,-175,-448
252,97,-145,-4,68,-11,16,-62,-122,-90
564,116,-173,17,55,24,34,10,-26,177
359,50,-138,-68,47,48,39,76,77,219
171,12,-149,-102,-16,5,2,51,82,193
11,-54,-34,-129,-114,-62,-23,18,12,25
75,-48,3,-193,-166,-58,-13,-3,-7,24
204,173,107,-62,-190,-70,-62,-69,18,61
140,553,374,154,-115,-55,-32,-66,288,64
-44,344,268,219,-58,-102,-57,-52,301,20
-190,-87,-46,227,14,-120,-119,-96,10,-60
-237,-110,-202,186,63,-64,-65,-65,-53,1
-263,-40,-105,182,56,-16,-24,-38,-82,166
-276,-75,-139,144,25,-9,0,15,11,269
-230,-147,-236,68,26,13,73,135,157,260
-354,-75,94,132,70,30,75,128,98,-7
-248,-96,195,129,6,-41,8,-9,-138,-227
429,-21,-15,-36,-104,-114,-52,-77,-222,-189
530,21,-113,-128,-98,-83,-30,-45,-198,-198
302,-35,-143,-169,-33,-28,0,-10,-169,-139
192,-61,-43,-121,16,-14,-25,-4,-93,-14
157,-22,-15,-100,87,41,31,78,-1,28
183,185,-39,-302,254,128,88,93,70,18
98,290,-21,-217,379,163,79,22,53,-14
-108,-64,-337,305,261,164,119,82,-9,-57
-132,-86,-324,763,170,128,109,93,12,-20
16,43,167,929,113,17,6,-6,-48,46
153,112,363,262,-41,-96,-100,-88,-63,145
170,44,117,-434,-95,-105,-77,-52,54,420
116,-11,-219,-617,-48,-19,11,53,237,740
183,302,-9,-521,-30,0,17,50,479,849
87,286,233,-132,-78,-132,-114,-79,363,576
-132,-93,183,427,-123,-200,-171,-138,-72,104
-313,-150,119,419,-90,-116,-83,-96,-170,-291
-273,-78,-73,36,-40,18,47,37,-93,-539
-182,-66,-55,-12,0,64,88,91,-10,-589
-195,-102,92,127,-7,6,15,15,-62,-542
-193,-97,102,142,24,28,39,43,-59,-392
-161,-74,85,35,21,42,61,65,-57,-253
-154,-94,14,-44,35,73,91,61,-72,-191
-135,-126,-10,-88,34,70,83,42,-93,-182
-106,-135,-43,-148,8,56,70,47,-62,-125
-40,-107,-136,-266,0,65,60,36,-36,13
41,-77,-223,-371,-30,11,0,-32,-83,85
-211,-79,-165,-431,-8,9,11,-1,-12,86
-457,135,163,-205,147,96,54,48,252,226
-469,303,542,66,131,24,-18,-26,353,502
-443,-19,235,-23,-6,-59,-26,-8,272,699
-429,-303,-49,-24,-41,-57,17,71,245,598
28,-295,5,385,-89,-102,-37,22,120,278
624,-145,-19,479,-121,-110,-60,-44,-54,89
884,81,-71,111,-142,-109,-101,-121,-251,-119
816,275,16,-109,-131,-123,-130,-171,-328,-284
506,223,-13,-245,-171,-166,-157,-181,-190,-187
229,84,-184,-383,-170,-117,-89,-34,27,-101
81,131,-37,-149,-52,3,34,73,57,-297
-79,126,228,227,41,65,87,51,-93,-498
-330,-10,254,408,74,61,47,-25,-193,-516
-421,-100,129,244,85,63,33,-20,-137,-313
-354,-148,-19,59,69,80,77,33,-13,-96
-230,-78,-32,25,59,71,102,53,50,63
-79,-193,-52,-9,2,17,63,61,-1,180
153,-133,-63,-102,-45,-17,-10,13,-74,210
98,-3,-108,-181,6,19,8,3,-61,232
-73,20,-137,-54,52,44,26,22,-21,247
-351,-69,-123,142,62,21,-10,37,39,167
-339,-188,-163,45,2,6,-14,77,117,169
-40,47,1,-63,16,55,25,103,219,161
-5,541,409,34,145,156,102,92,339,-84
73,399,389,153,179,165,101,60,148,-290
517,54,23,56,1,-1,-55,-42,-210,-269
349,36,-130,-103,-132,-102,-167,-126,-214,-196
48,6,-153,-128,-143,-104,-144,-105,-48,-39
100,29,-56,-142,-138,-96,-90,-77,33,106
406,61,9,-212,-179,-89,-52,-59,56,298
447,70,119,-69,-185,-76,-44,-82,23,278
132,-121,90,76,-149,-62,-40,-51,-115,35
-19,-214,-20,68,-43,-21,-12,9,-147,-41
7,-238,-95,28,69,27,36,39,-128,-58
-71,-232,-174,7,66,8,47,81,-66,-191
-114,-101,-199,-61,2,-29,1,99,-9,-352
-130,-92,-199,-98,0,-7,-11,81,-6,-382
-68,-23,-126,-190,4,13,0,46,60,-81
-31,82,-38,-194,16,8,4,-2,67,166
-89,-34,-182,-176,-13,-5,-10,-24,-51,76
-171,-124,-169,-38,-36,-31,-48,-44,-29,39
-140,-133,-37,97,-45,-67,-83,-87,-70,152
12,-111,38,95,-36,-69,-72,-77,-141,142
126,-55,25,-39,-20,-13,-4,-19,-144,-67
72,56,76,-36,32,72,65,15,-89,-254
-50,311,319,35,88,137,124,60,157,-194
-14,254,219,239,139,156,158,65,135,-98
-76,-41,-3,598,154,152,142,85,-14,-129
-245,-193,-73,617,122,113,107,102,21,-20
-312,-247,-114,95,55,63,38,33,-14,113
-286,-228,-131,-320,32,41,8,17,-9,11
67,-150,-235,-419,11,0,4,58,38,-121
363,-29,-220,-450,-67,-72,-45,-8,-9,-168
127,47,-46,-396,-46,-56,-27,-26,-3,-143
191,102,-47,-265,-3,-23,11,8,39,149
239,162,145,-28,24,-18,-6,-51,-48,184
231,87,86,-107,-23,10,43,-4,-23,98
88,-50,-93,-283,-59,35,55,26,-27,-1
-269,-101,0,-62,35,-35,-95,-112,-207,-197
-346,-18,14,-207,214,-51,-117,-136,-153,-183
-155,372,139,-148,368,125,77,41,335,152
95,495,159,665,367,237,177,105,459,201
274,140,-137,906,177,211,173,108,66,-37
138,18,125,754,47,59,81,0,-156,-164
-131,-84,289,91,-147,-133,-55,-118,-219,-253
-191,-132,-111,-475,-200,-125,-60,-119,-203,-270
-9,-3,-162,-418,-120,-81,-53,-74,-119,-128
53,245,152,-137,-23,-59,-35,-25,32,35
151,326,143,-145,50,46,70,79,157,152
391,234,-63,-607,25,141,156,163,188,301
285,13,-251,-809,-20,129,149,125,145,284
-61,-228,-227,-270,-77,-5,-17,-5,68,299
-323,-352,170,517,-167,-198,-188,-170,-48,399
-298,-299,218,608,-262,-255,-204,-175,52,543
-119,-145,275,316,-387,-266,-181,-126,158,573
1,0,356,193,-271,-148,-106,-53,151,356
91,-88,185,166,0,-47,-68,-41,42,204
138,-37,65,108,88,-27,-64,-39,28,181
-29,-26,39,140,32,-36,-65,-20,-25,-82
-144,-33,-108,75,-2,-29,-59,1,-73,-488
-92,-3,-133,56,14,-10,-43,6,-148,-697
183,52,14,319,47,0,-60,-51,-245,-656
211,48,-31,340,71,20,-67,-48,-202,-505
-7,-52,-186,-140,65,62,-20,-12,-157,-382
-204,-142,-223,-461,55,91,27,-8,-160,-327
-237,-167,-214,-407,38,104,39,3,-147,-262
-177,-132,-25,-121,-47,17,-19,-5,-96,-142
-8,-35,203,248,-94,-83,-105,-56,-32,120
215,14,155,384,-139,-131,-154,-96,43,425
340,67,58,210,-159,-141,-171,-109,146,603
209,285,220,-133,-67,-32,-72,-19,435,576
-41,223,285,-429,-52,46,35,141,627,447
-232,-67,171,-174,23,89,88,150,263,165
-366,-132,205,155,75,70,41,0,-102,34
-521,-212,170,172,46,70,59,18,-84,3
-683,-331,126,216,112,149,148,110,-29,-116
-630,-400,87,190,79,131,145,64,-67,-291
-87,-126,62,2,11,70,107,24,57,-242
127,139,-6,-131,49,59,78,-15,-3,-293
203,102,-13,-31,35,-16,14,-117,-287,-471
283,13,-39,75,-52,-128,-59,-184,-332,-440
278,-32,-171,-18,-134,-144,-63,-140,-227,-273
187,50,-235,-212,-179,-143,-34,-61,-112,-19
100,-8,-224,-202,-177,-127,-18,20,-19,114
179,47,-84,-105,-128,-107,-36,22,65,177
209,433,241,-132,9,10,61,106,451,231
-1,284,88,-162,31,55,101,148,395,80
-159,-51,-254,-135,-26,19,46,75,117,-65
-118,-140,-274,-89,-1,44,72,102,121,-76
104,-118,-228,-100,37,46,53,112,143,-11
240,-10,-169,-234,39,4,-27,47,89,102
206,9,-246,-465,99,42,-11,92,78,150
193,62,-355,-501,249,147,110,194,197,223
187,74,-226,339,288,148,113,130,61,170
118,60,-18,1067,192,139,101,33,-238,-68
59,37,204,1120,97,89,65,-14,-333,-195
-76,-63,314,385,-89,-83,-86,-123,-364,-347
-300,-203,150,-365,-236,-153,-130,-105,-310,-537
-277,-247,-57,-332,-146,-66,-41,3,-197,-528
-189,-35,45,-168,-16,9,3,16,-125,-350
-111,510,377,-84,85,74,21,-4,199,-38
-140,541,403,-42,102,91,32,6,295,58
-292,-18,57,-36,32,46,1,51,41,-37
-383,-277,-94,-31,9,28,-10,87,-22,-111
-345,-251,-73,29,61,42,-10,52,-56,-53
-23,-76,6,68,66,32,-18,-1,-129,63
85,8,41,59,52,28,-26,-21,-132,189
51,86,49,5,-8,-6,-49,-8,0,311
326,150,-17,-63,-47,-57,-63,-4,114,409
411,33,-86,-83,-34,-55,-49,5,107,344
325,-38,-77,-81,-9,-15,-17,9,12,99
278,46,-57,-88,-33,-23,-25,-24,-61,-84
335,38,-53,-85,-100,-81,-94,-75,-75,-122
309,-40,-113,-105,-92,-98,-99,-68,-48,-57
167,-50,-152,-124,-70,-68,-69,-55,-50,-25
159,22,-116,-147,-23,-30,-32,-54,-28,150
238,114,-129,-226,9,-3,20,-21,57,383
236,156,-121,-365,-42,-8,33,43,177,502
32,62,-53,-251,-57,2,46,95,223,367
-204,-66,47,78,56,53,65,71,114,205
-247,-139,76,281,66,-6,-53,-75,-14,251
-174,-175,-64,134,-21,-65,-81,-31,107,536
53,47,-2,-20,8,-17,-11,80,299,692
124,430,241,18,210,152,109,83,261,320
25,253,139,41,234,185,110,35,6,-40
108,-84,-124,-314,61,124,58,27,-80,-41
282,-139,-143,-357,-103,-5,-59,-67,-106,-10
40,-144,90,136,-213,-137,-177,-187,-293,-379
-189,-176,212,346,-250,-137,-139,-149,-274,-436
-69,-87,112,177,-125,-54,-63,-53,-71,13
110,113,-46,-42,-5,5,-38,-56,41,423
22,-6,-186,69,84,43,7,-68,-50,327
-133,-161,-159,243,123,55,12,-69,-109,146
-163,-211,-187,46,67,0,0,-14,24,66
24,-3,97,-86,-1,-136,-103,-73,25,147
200,130,163,58,5,-113,-98,-83,-20,208
0,0,-46,213,77,22,45,37,58,-83
-159,172,-18,189,179,189,246,206,331,-328
-43,264,-152,97,196,214,283,213,313,-314
69,141,-227,-18,89,56,81,23,107,-170
34,58,-286,-163,45,-7,-1,-57,-1,-199
-5,22,-266,-171,112,107,103,51,-48,-310
-121,10,25,-81,131,152,148,67,-143,-414
-209,-36,257,81,77,109,118,25,-221,-499
-342,-125,217,277,7,-7,11,-59,-207,-570
-388,167,494,405,-109,-221,-186,-241,-20,-526
-38,94,155,157,-212,-271,-225,-233,-73,-264
7,-146,-169,-334,-187,-204,-162,-70,-51,-84
-226,-184,-146,-484,21,-11,-12,56,0,-124
-132,-139,-19,168,78,103,58,20,-110,-29
-106,-117,96,445,-7,107,76,43,-157,30
-52,-98,90,325,32,77,66,67,-103,-15
-177,-172,123,99,120,-3,-21,-32,-127,-171
-505,-308,101,81,198,-22,-10,-21,-109,-301
-237,-207,110,153,191,13,40,-5,-117,-193
267,-1,165,144,58,-66,-11,-46,-41,234
127,-14,187,135,-48,-130,-70,-69,40,419
-202,-156,54,73,-55,-65,-1,16,169,268
-270,-183,-94,-89,-143,-78,14,97,292,83
193,19,-178,-192,-229,-139,-66,13,209,208
688,131,-206,-250,-258,-172,-107,-39,128,558
476,93,-284,-191,-210,-115,-25,17,90,550
174,73,-285,23,-147,-35,20,9,29,538
160,22,-281,-64,-191,-58,-18,-37,-30,653
245,24,-285,-481,-224,-78,-15,-44,-106,743
182,32,-295,-608,-108,2,48,-51,-253,293
38,86,45,-216,9,70,77,-52,-326,-257
23,374,505,63,108,171,165,65,-11,-586
38,601,801,233,162,213,174,123,231,-843
-82,286,474,340,107,129,78,43,-52,-1079
-276,12,178,343,148,128,108,26,-280,-1165
-311,-59,145,237,155,123,114,37,-218,-822
-278,-129,70,129,93,69,60,15,-161,-440
-313,-224,-12,44,15,0,8,0,-110,-276
-383,-194,9,34,10,-3,8,0,3,-146
-421,-148,30,85,59,54,24,45,31,-59
-52,-151,-61,67,15,10,-75,3,-218,-4
214,0,-72,5,-64,-43,-48,-80,-127,68
153,50,-83,-33,-69,-50,-31,-70,-78,77
209,24,-188,-49,-61,-38,-16,-36,-24,252
154,-58,-260,-96,-68,-24,6,30,83,517
188,-29,-206,-180,-70,-5,10,112,222,628
319,359,68,-213,36,44,25,88,410,672
269,649,239,-238,151,115,67,74,509,514
180,269,-212,-416,70,115,94,113,281,229
135,-57,-226,-281,8,92,104,113,29,-113
70,-119,214,323,-14,-32,-48,-43,-168,-390
64,-95,237,618,-32,-96,-119,-111,-195,-317
82,-20,80,468,-24,-57,-72,-78,-97,-120
48,68,12,73,13,24,9,-3,-10,-94
18,63,-29,-190,11,42,39,48,91,-9
-43,-68,-105,-189,-4,19,45,3,33,42
-227,-145,-144,-114,11,10,13,-19,71,172
-376,-161,-95,-58,11,-13,-20,29,190,298
-317,-125,-121,-82,-19,-9,-1,81,247,355
-38,-42,-157,-161,-54,-27,-39,15,119,323
164,-11,-75,-71,-12,-24,-14,1,45,41
463,60,-31,-31,3,-18,21,30,122,-116
440,-28,-54,-87,-2,-1,39,-15,-35,-137
78,-27,36,-24,39,28,33,-31,-183,-59
-61,49,77,-90,75,77,42,8,-163,118
-102,-17,13,35,95,101,55,62,-55,200
-66,-102,-68,227,57,40,14,29,-24,215
-29,-153,1,416,14,-31,-69,-66,-49,348
-117,-139,287,534,-69,-113,-165,-120,1,427
-150,127,497,238,-91,-97,-155,-67,242,393
-65,225,439,-53,-28,-22,-90,-54,196,152
76,0,-53,-181,-33,-17,-87,-91,-46,30
123,-54,-433,-519,-29,38,-16,2,3,-7
153,-4,-494,-534,-28,70,68,92,-74,-433
212,31,-283,-86,-26,14,41,31,-313,-634
38,4,-154,351,0,4,1,-31,-338,-513
-196,-17,-1,364,24,44,34,2,-209,-468
-262,-140,-2,55,-93,-36,-23,-29,-194,-468
-152,-145,-141,-363,-149,-26,-16,14,-141,-350
-159,-150,39,-431,-103,15,0,40,-151,-291
-144,-109,116,-313,-43,14,-18,12,-139,-211
-65,-16,34,-271,-8,-21,-44,-24,-68,-92
37,92,-31,118,-47,-9,-15,33,67,109
118,221,-79,387,-32,77,98,153,326,373
138,466,353,302,61,98,87,111,590,548
-104,212,577,61,-32,-115,-114,-85,459,419
-239,-252,191,-25,-207,-282,-235,-189,130,278
-180,-306,-38,50,-209,-256,-185,-147,66,302
-137,-245,-78,156,-111,-146,-85,-58,70,204
-68,-174,-49,248,15,-30,13,2,-37,-55
-127,-82,-18,239,123,73,93,44,-162,-219
-278,55,112,201,202,150,142,36,-119,-183
-333,-22,78,185,263,189,168,26,-123,-86
-354,-42,66,212,249,170,105,-32,-199,-89
-136,35,-84,-93,90,73,10,-42,-125,-58
307,120,-259,-483,-37,-20,-60,-20,-56,-33
490,99,-228,-465,12,-12,-50,-2,-91,-84
424,18,-152,-328,-64,-46,-22,32,-60,-3
196,-5,19,1,-102,-96,-40,0,5,134
95,-7,315,329,-70,-113,-74,-55,-37,31
122,-88,147,365,-45,-76,-45,-25,-91,-122
144,-59,-5,152,-46,-20,1,3,-42,-135
188,-54,-36,18,-108,-58,-31,-6,37,-21
306,-46,-66,14,-167,-151,-137,-119,-35,121
335,-15,-50,3,-122,-128,-160,-146,-10,347
156,-67,-81,-79,-92,-74,-101,-37,171,476
6,202,87,-112,-23,-12,-13,33,436,359
-93,471,313,-62,40,34,4,-47,398,98
-168,65,86,-63,-8,19,-8,-24,104,-49
-66,-183,-76,-110,-15,34,-1,8,-108,-67
-70,-121,-70,-82,73,89,56,-23,-205,-261
-360,-173,-99,136,184,186,163,79,-172,-546
-517,-217,-52,212,278,307,279,203,-38,-474
-623,-259,-40,157,315,315,322,246,45,-72
-730,-247,9,210,226,172,191,130,-25,228
-607,-163,21,82,101,80,98,19,-86,240
-245,-90,-31,-286,-56,-1,15,-40,-106,-1
-9,94,-16,-221,-111,-69,-66,-54,-106,-263
255,235,2,-30,-135,-104,-44,-40,-136,-520
640,250,-32,89,-131,-111,-27,-57,-150,-590
838,277,-8,86,-72,-66,-27,-82,-122,-444
655,432,144,-144,-19,-20,3,-41,81,-223
393,235,8,-182,-32,-44,-44,-30,53,-80
228,4,-145,42,-84,-85,-105,-83,-70,-82
137,-80,-261,232,-76,-100,-122,-85,-80,-39
96,-130,-261,314,-56,-60,-62,-15,-28,69
186,-131,-289,84,-109,-38,3,77,94,253
217,-97,-128,-318,-165,-90,-10,89,219,451
219,149,224,-320,-172,-203,-138,-61,299,645
250,416,381,-192,-170,-259,-215,-151,499,738
120,-21,31,-265,-217,-237,-172,-61,400,604
-43,-233,-149,-186,-103,-72,-5,79,238,414
-23,-89,-12,55,43,57,70,45,-51,249
130,76,105,147,88,103,59,-37,-314,94
94,31,68,14,52,101,63,16,-231,-16
-90,-46,39,-118,62,111,75,121,-50,-154
-219,1,143,-96,126,113,57,111,24,-278
-266,-159,15,-69,131,113,50,70,-134,-474
-266,-143,-209,-232,113,131,83,52,-148,-320
-113,-18,-266,-324,69,114,89,87,38,40
42,70,-240,-272,21,80,74,117,180,367
-10,159,-186,-111,10,56,39,56,56,286
-225,47,-70,48,82,59,-14,12,-222,-26
-449,54,202,280,177,45,-51,-48,-240,-178
-392,472,451,324,265,112,57,-20,155,-219
-75,389,192,-52,299,177,126,52,150,-117
129,15,-258,-103,266,165,144,90,52,0
-79,-52,-77,810,219,146,148,98,74,-77
-244,-136,258,1267,8,0,49,39,-14,-327
-73,-118,261,776,-148,-153,-72,-65,-121,-429
195,43,234,-106,-212,-252,-182,-183,-182,-237
89,120,180,-453,-187,-215,-184,-168,-93,-26
-77,-56,-103,-481,-122,-104,-57,2,53,151
76,-78,-327,-657,-83,5,68,149,207,312
273,-22,-454,-681,-18,70,103,170,204,358
291,-8,-308,-406,72,87,70,79,51,307
282,-10,-158,-216,56,54,28,-1,-58,339
185,-59,-170,-80,4,7,-23,-58,-146,191
6,-170,-148,115,-1,-17,-54,-92,-209,-175
-180,-193,186,326,-16,-84,-106,-166,-329,-451
-308,-204,259,462,-1,-100,-59,-120,-275,-532
-315,-236,151,534,-39,-93,-23,-33,-119,-368
-302,-217,102,491,-79,-85,-7,6,-36,-264
-313,-147,59,263,-59,-36,-2,31,3,-196
-244,-97,49,58,-63,-13,13,45,10,-107
-152,-88,3,-203,-151,-65,20,34,49,-36
-106,214,268,-338,-121,-19,50,17,184,41
-126,377,494,22,15,66,82,19,231,-18
141,102,107,292,51,84,68,72,95,-119
384,-78,-175,-16,51,107,102,135,41,-19
134,-166,-129,-305,88,104,110,135,55,59
-101,-219,-41,-89,95,6,-9,-19,-99,-5
-126,-151,-10,23,29,-75,-114,-152,-245,34
-105,-38,-33,-166,-6,-46,-82,-121,-147,160
-40,-93,-188,-276,-31,4,-25,-22,-22,127
313,-65,-258,-195,-103,-62,-97,-71,-71,39
491,32,-251,-70,-155,-135,-127,-86,-38,-60
281,-16,-258,79,-56,-92,-84,-38,-25,-133
165,-7,-225,53,27,-1,-32,-22,-55,-131
207,93,-301,-260,93,125,90,80,38,34
101,163,30,-319,123,153,137,111,53,25
-127,225,555,5,66,21,24,-23,90,-115
-135,-85,323,121,-114,-182,-166,-176,-8,-15
-54,-196,10,-105,-188,-160,-125,-113,33,183
-221,-224,-107,-156,-115,1,83,54,65,106
-310,-171,-119,53,-21,52,105,57,-18,93
-289,-62,57,253,78,14,-8,-45,-72,162
-329,-20,142,124,139,36,10,8,0,133
-210,214,112,-372,219,172,165,184,292,92
225,575,132,-168,302,247,243,242,558,171
651,287,-97,643,93,63,95,100,295,476
622,131,-17,929,-108,-108,-51,-39,85,705
242,53,67,625,-137,-127,-58,-51,-10,571
-87,-59,-91,-118,-94,-54,1,-23,-119,307
-171,-123,-108,-339,-39,-6,28,-53,-190,139
-131,-178,-79,-137,-50,-65,-35,-93,-170,82
-285,-122,240,76,-49,-130,-87,-97,-61,-124
