42,209,207,-16,71,32,3,-57,114,31
22,-15,-47,-77,11,1,-51,-40,-74,28
52,-4,-41,-90,27,3,-43,-27,-65,161
76,2,-40,-100,42,21,-8,7,8,244
70,-14,-86,-127,45,40,41,50,76,307
40,-54,-116,-152,7,2,-7,40,95,356
7,-50,-77,-86,-33,-66,-81,-15,101,346
-35,-88,-110,71,-52,-120,-128,-67,38,274
-11,-127,-206,161,-74,-138,-178,-93,-26,398
25,-110,-183,152,-110,-62,-166,-107,-28,598
-36,-123,-172,99,-140,-43,-134,-106,1,351
-92,-135,-250,-19,-117,-71,-58,-64,36,-19
-89,-105,-215,-176,-62,-47,79,0,74,-246
-8,-11,-82,-232,6,-34,102,23,136,-179
97,350,221,-105,153,17,81,2,390,-25
127,459,329,157,213,51,54,17,430,-34
75,124,64,386,136,45,25,52,69,-220
43,0,-11,518,95,100,79,85,-143,-365
-2,1,75,454,101,166,205,141,-151,-412
-38,-20,72,249,79,152,302,141,-150,-393
-76,-55,62,79,31,73,222,49,-214,-391
-120,-35,102,-76,-18,11,112,-15,-204,-372
-131,-63,80,-97,-48,-37,52,-40,-168,-249
-89,-105,11,-31,-71,-73,18,-24,-134,-61
-39,-103,-44,-69,-99,-75,-6,22,-31,230
39,-94,-145,-135,-112,-62,-21,50,68,455
138,-79,-186,-205,-140,-95,-71,39,125,691
259,-64,-227,-321,-165,-131,-119,-2,187,1149
367,25,-258,-367,-119,-125,-111,4,266,1533
409,93,-197,-373,-89,-124,-87,23,342,1610
451,50,-256,-426,-113,-117,-88,40,350,1590
536,50,-277,-545,-129,-71,-73,72,398,1463
668,114,-364,-689,-50,77,-9,138,402,968
616,137,-310,-540,145,327,71,154,286,302
206,101,216,-4,248,475,62,-4,8,-539
-300,8,570,471,247,388,42,-132,-180,-1398
-532,45,538,586,289,515,156,-108,-80,-1688
-540,201,442,444,247,539,258,-63,197,-1300
-405,108,258,135,80,139,203,-28,163,-895
-301,-62,8,-62,1,-143,111,0,-72,-832
-259,-53,-45,-36,21,-257,0,91,-53,-727
-225,-15,34,89,-10,-354,-72,89,-73,-530
-258,-11,117,196,11,-254,26,16,-282,-330
-305,-34,121,196,51,-47,77,8,-394,-350
-317,-21,121,330,17,-66,-42,-32,-368,-480
-288,-106,132,491,-63,-209,-96,-95,-439,-488
-174,-125,52,536,-90,-160,-23,-86,-443,-141
-78,-134,-62,462,-151,-159,-26,-76,-327,122
-17,-171,-97,320,-205,-245,-81,-76,-157,86
-1,-167,-95,153,-212,-236,-100,-52,-14,242
40,-121,-120,20,-210,-192,-108,-47,64,555
70,47,51,-113,-180,-165,-115,-63,188,561
60,21,27,-247,-193,-160,-200,-102,103,525
136,-64,-90,-292,-204,-174,-320,-121,-32,755
184,-22,-58,-228,-155,-177,-349,-68,55,749
60,-95,-117,-240,-203,-214,-331,-22,206,411
-128,-266,-239,-312,-313,-309,-345,0,410,142
-247,-330,-311,-264,-334,-303,-342,18,496,-85
-142,-137,-255,-170,-226,-181,-96,106,653,76
-25,250,104,-87,-63,-62,199,190,979,255
-50,124,75,-44,-12,-60,266,211,626,-227
-144,-37,-23,19,118,0,153,164,-105,-1039
-145,96,130,163,370,168,50,62,-644,-1400
-81,189,215,247,493,277,-3,-22,-767,-1164
-91,176,194,210,426,267,-195,-27,-511,-848
-89,184,187,196,327,216,-401,18,-313,-703
-101,191,153,80,168,239,-486,4,-263,-541
-188,0,-5,-103,-19,373,-438,-92,-404,-415
-218,-155,-110,-150,-126,363,-138,-105,-447,-267
-119,-144,-130,-114,-178,109,370,75,-187,306
35,-89,-144,-53,-157,13,438,184,-75,511
22,-83,-155,-40,-93,-12,317,237,-61,62
-7,-82,-168,-74,-26,-43,200,324,143,52
66,4,-12,-96,28,-47,107,319,283,670
132,207,302,-94,44,-12,213,289,478,926
131,183,208,-120,26,7,326,270,493,622
102,-13,-123,-99,98,122,249,97,154,321
159,-22,-196,-74,212,572,238,8,171,357
246,-62,-332,-320,129,721,320,61,449,643
342,-114,-552,-709,16,405,408,219,788,1088
421,-56,-562,-800,77,107,557,277,912,930
326,87,-128,-411,205,-50,544,179,789,123
166,97,374,85,188,-102,211,-44,244,-115
74,-8,447,360,132,-20,-188,-214,-237,132
83,-70,199,342,83,133,-525,-358,-355,474
120,8,145,299,68,197,-660,-470,-604,399
33,65,172,238,37,-50,-614,-448,-629,-168
-28,42,62,127,-92,-308,-691,-490,-502,-91
26,82,5,15,-214,-245,-622,-519,-463,628
84,132,-43,-29,-269,236,24,-396,-406,616
185,-8,-212,-100,-349,190,539,-219,-237,461
117,-167,-156,-19,-285,43,379,-182,-114,191
-79,-347,-199,121,-256,-64,59,-110,74,-23
-80,-410,-254,135,-285,-239,-435,-216,74,5
21,-325,-247,-70,-307,-481,-1093,-362,-144,-455
-3,-76,-68,10,-122,-491,-1452,-254,-225,-1048
23,283,150,122,89,-413,-1154,-186,68,-677
279,545,304,154,69,-159,-289,-120,560,762
419,175,88,-111,-247,685,-266,51,1044,1900
59,-261,-192,-395,-413,989,-180,97,1124,1101
-156,-263,-188,-443,-338,737,890,289,1040,687
81,-124,-100,-226,-103,612,1568,459,873,1572
429,-14,-29,80,139,876,1570,367,331,2301
571,186,202,446,393,499,878,18,-267,1592
224,290,353,538,460,-261,105,-178,-511,83
-252,-3,-2,124,191,-817,-336,-117,-133,-705
-576,-323,-364,-355,-91,-923,-346,226,844,-1380
-563,-284,-290,-433,-97,-851,-345,405,1262,-1932
-528,-147,-153,-263,47,-690,-502,204,588,-2217
-730,-288,-322,-219,178,-283,-389,159,90,-2083
-494,-199,-122,-71,330,-79,-113,124,-493,-1696
-118,319,595,306,434,-139,139,-122,-988,-1719
191,524,838,570,375,-195,-6,-402,-1746,-1702
332,532,770,639,346,-9,-47,-416,-2284,-1216
161,448,614,474,194,398,187,-122,-1696,-701
31,248,275,110,-56,813,394,232,-785,-127
350,99,-140,-277,-271,406,139,165,154,1914
559,-166,-583,-718,-592,-528,29,107,971,3587
490,-418,-795,-962,-876,-1015,236,378,1886,4219
475,-426,-748,-959,-1008,-876,-282,463,2661,4297
598,-283,-597,-552,-793,-406,-1060,135,1835,2702
607,75,-60,-13,-259,319,-1198,-268,450,1160
144,145,228,223,197,731,-923,-343,-278,-244
-466,79,198,444,495,617,-551,-355,-977,-2028
-754,-32,25,459,456,-114,571,-230,-966,-2646
-572,0,-34,157,155,-679,1159,-201,-995,-2668
-162,154,138,-159,-81,-438,778,-135,-757,-1590
-20,31,152,-271,-295,209,456,354,104,-1161
-61,-127,141,-118,-266,775,397,884,1007,-801
72,-118,163,-85,-172,552,378,966,1583,673
133,24,202,50,-76,-170,279,849,1476,481
110,141,224,276,63,-583,132,554,830,-402
11,220,340,434,256,-627,97,141,187,-768
-323,111,297,401,302,-579,68,-449,-290,-582
-54,448,472,193,250,-563,94,-1063,-1672,143
283,637,563,63,292,-241,144,-922,-2592,403
-24,361,382,180,440,181,185,-421,-2216,-421
-228,265,383,304,397,445,136,-150,-1294,-804
-449,84,241,375,249,619,93,-10,-867,-1446
-628,-248,7,342,140,397,52,122,-464,-1696
-144,-268,-69,208,-36,-177,103,339,525,379
104,-196,-177,-4,-248,-533,123,806,1957,2128
-30,-339,-416,-353,-484,-429,55,1024,2231,1607
-64,-309,-434,-449,-520,-205,-11,738,1732,1528
17,-262,-467,-429,-375,-213,-192,309,1484,1744
145,-160,-441,-422,-69,-164,-367,-75,701,658
233,34,-232,-477,242,-171,-383,-413,-164,99
250,154,39,-525,279,-302,-523,-668,-398,-852
318,416,307,-182,257,-222,-502,-609,-35,-1080
11,446,259,200,276,310,-37,-147,243,-1246
230,457,151,422,97,485,146,29,-557,-721
565,592,367,575,-161,164,2,5,-1047,1502
312,531,388,610,-231,-132,-285,-7,-856,1682
351,431,230,351,-5,-79,-108,-218,-609,648
490,128,-25,-1,426,163,408,-395,-280,752
237,-142,-219,-346,599,-36,215,-239,217,232
-78,273,199,-147,650,-430,0,-39,175,-1194
-156,719,654,110,249,-609,-166,-136,247,-1231
-370,90,182,-185,-655,-210,-468,-269,455,-817
-637,-580,-240,-543,-1375,458,-577,28,656,-1292
-395,-546,-401,-722,-1732,422,-404,429,1124,-1983
7,-339,-515,-772,-1636,-69,-320,672,1561,-1592
-233,-181,-247,-325,-729,65,-121,483,578,-1437
-1000,-165,138,333,493,805,310,234,-507,-2026
-1372,-186,268,644,959,1101,440,101,-821,-2774
-823,89,430,849,1073,740,19,-129,-1056,-2767
-317,397,607,914,1107,552,-408,-405,-1410,-2813
-657,150,317,810,806,1085,-83,-137,-1671,-2753
-1199,-374,-192,564,484,1496,869,401,-890,-1556
-842,-370,-407,284,319,846,1131,535,-454,-548
-48,97,-80,227,312,-111,639,154,-808,-169
524,378,270,248,208,-772,176,-226,-903,564
579,304,188,158,213,-798,-80,-407,-1135,712
485,245,36,96,301,-349,-136,-393,-1149,275
410,354,352,265,276,70,-339,-226,-768,-119
318,511,742,629,292,233,-749,-398,-462,-534
-134,286,488,518,181,166,-1148,-663,-93,-785
-450,-225,-70,93,-121,-2,-1368,-971,47,502
171,-235,-205,-191,-371,-171,-564,-1099,100,3151
512,213,107,-272,-374,-302,1011,-618,473,3617
46,39,-37,-413,-386,-385,1256,130,723,2112
185,95,18,-228,-293,-437,655,57,39,1254
252,298,238,109,-82,-307,373,-161,-112,1278
-332,-119,-30,35,-114,-127,434,151,843,908
-439,-400,-252,-68,-155,-9,538,444,1651,171
-259,-369,-243,-101,-163,8,496,501,1592,-621
-105,-102,-22,-37,-174,-93,446,530,739,-1343
-68,105,142,96,-183,-11,334,524,-406,-1642
323,342,272,232,-64,319,81,155,-1233,-1119
485,354,198,212,-48,239,-130,-273,-1236,-179
-49,-45,-165,-59,-172,-252,-200,-326,-244,329
-492,-469,-587,-311,-216,-669,-335,-262,338,433
-128,-366,-497,-162,-53,-638,-323,-238,24,371
288,-107,-143,-65,-43,-370,-99,-71,-273,533
475,299,181,-111,-183,-233,33,-62,-510,691
558,332,134,-132,-264,-245,56,-92,-875,267
575,245,136,124,-47,-42,157,14,-937,77
78,330,355,415,277,314,456,449,-59,-327
-846,53,176,291,211,310,510,765,502,-1254
-792,-266,-220,-152,-191,-94,223,735,705,-275
-45,-343,-389,-451,-513,-336,18,568,1028,1836
141,-334,-381,-545,-508,-286,42,439,1123,2947
184,-394,-479,-660,-571,-349,-79,110,630,3576
659,-198,-474,-759,-636,-356,-190,-87,337,3262
806,0,-314,-467,-270,52,-12,94,226,2091
400,1,-193,159,458,479,228,406,220,723
-337,-267,-298,400,712,849,280,551,373,-1057
-864,-413,-344,240,442,1218,246,467,336,-2481
-655,-230,-227,-65,209,805,83,371,240,-2722
70,125,0,-202,387,153,-123,12,-383,-1768
424,294,173,-128,423,-148,-249,-440,-642,-707
106,292,86,11,309,146,-226,-570,-1025,-1296
-1,277,-59,148,405,1117,174,-366,-1003,-1741
78,213,-171,173,253,1204,926,28,-750,-1409
-62,170,-34,309,94,757,891,336,-832,-1169
-268,0,-72,293,139,652,285,192,-640,-141
-455,-174,116,188,159,296,19,181,34,1057
-640,-310,430,236,-49,-317,-337,259,345,381
-668,-536,62,236,-134,-625,-436,443,203,-1026
-680,-645,-240,129,99,-664,-360,505,555,-1484
-494,-522,-232,62,187,-687,-274,40,425,-584
-85,-277,-217,163,-224,-766,-484,-732,-317,555
25,-303,-532,-123,-692,-883,-928,-1063,-283,1183
218,43,-393,-376,-679,-883,-1212,-1116,-760,512
565,574,156,-191,-178,-471,-1051,-985,-1675,-294
469,533,379,65,361,124,-420,-571,-1355,-94
102,214,256,99,584,407,517,-54,14,790
52,-18,38,59,554,435,904,42,583,1798
146,-92,66,229,478,87,655,-179,445,1465
144,-24,344,547,348,224,297,-166,270,99
143,10,375,600,181,389,148,19,321,-950
15,51,250,197,-37,51,218,209,924,-1317
-116,-239,-93,-176,-294,-351,317,489,1357,-837
113,-296,-227,-273,-396,-290,397,818,1756,-266
293,-224,-234,-330,-464,-290,342,812,1661,-464
23,-281,-338,-393,-532,-551,183,533,574,-334
-492,-380,-477,-412,-473,-666,106,398,-368,61
-307,-80,-236,-102,-125,-517,161,164,-1293,250
343,473,240,280,331,-167,421,23,-1317,498
643,803,440,298,455,12,322,-226,-816,630
587,613,307,294,433,94,152,-457,-1420,69
417,434,354,209,323,68,20,-645,-1681,147
450,82,146,-70,20,-132,-108,-608,-1129,1386
630,-73,-39,-268,-232,-372,-242,-532,-638,1640
809,29,-33,-284,-303,-475,-333,-511,-399,1056
274,-154,-141,-317,-349,-416,-174,-117,414,981
-479,-439,-321,-335,-355,-237,103,448,1074,1207
-457,-563,-409,-333,-458,-279,22,557,1082,601
-366,-554,-440,-443,-660,-426,-176,657,1049,-130
-820,-622,-495,-449,-627,-212,-121,942,679,-764
-1100,-567,-365,-263,-331,84,17,863,238,-1545
-262,-79,106,131,119,260,218,785,131,-678
611,347,466,472,482,277,262,439,214,800
730,580,610,517,545,142,50,-578,-1017,353
856,1159,1037,740,804,363,19,-1324,-2101,-916
800,1061,878,630,646,417,-21,-1188,-1366,-1213
160,560,452,449,363,321,45,-729,-812,-1651
-427,350,367,397,259,272,187,-408,-667,-1559
-524,149,273,226,75,187,148,-260,-330,-698
-571,-133,-41,-89,-214,76,80,-9,265,-189
-603,-274,-193,-189,-239,72,59,139,412,118
-348,-326,-314,-255,-150,-71,-99,67,340,1036
-225,-490,-538,-305,-66,-261,-302,-61,177,1197
-139,-344,-397,-129,114,-141,-209,-6,18,209
344,43,-57,85,216,32,-105,-146,-255,-543
214,104,20,89,191,62,-75,-201,-155,-695
-335,-109,-132,-82,36,-69,-115,-168,150,-514
-294,-244,-356,-337,-199,-241,-186,-59,694,47
470,30,-240,-386,-269,-243,-171,61,934,690
625,81,-151,-207,-87,-105,-85,90,751,914
157,-269,-327,-164,-34,-134,-247,0,631,760
-175,-287,-243,-12,53,-8,-475,-129,180,534
49,53,113,177,136,89,-661,-354,-783,662
457,358,329,222,192,132,-713,-423,-1399,238
341,368,288,156,344,237,-313,-131,-871,-413
-418,110,73,-64,319,159,572,365,98,-929
-919,-11,-16,-191,211,78,683,727,798,-952
-862,21,-3,-81,231,362,466,858,1213,-614
-584,-151,-107,33,301,1060,693,1039,1467,-28
-308,-383,-317,-224,-30,1022,526,1079,2058,720
-158,-636,-652,-604,-619,291,-243,770,1960,1198
-80,-649,-681,-598,-787,-154,-694,239,998,532
42,-294,-235,-216,-471,-200,-490,-31,-239,-845
222,176,289,369,249,-71,-58,-222,-1305,-1427
223,330,579,824,820,44,167,-583,-1976,-1352
285,286,521,756,756,19,275,-841,-2140,-717
244,258,437,504,417,-74,703,-711,-1242,242
297,135,184,143,10,-182,667,-428,-427,1236
415,-11,-136,-164,-231,-321,33,-494,-332,1171
480,-35,-202,-242,-222,-421,-274,-627,-534,564
372,48,-89,-230,-82,-319,-276,-437,-332,179
79,71,-87,-332,-3,-124,-194,-93,632,26
11,-89,-223,-349,32,-33,-277,70,906,231
-78,-71,-183,-276,147,1,-269,139,751,-8
-256,-192,-297,-430,-58,-187,-217,302,1107,-142
-219,-409,-578,-880,-470,-246,-39,448,1025,207
62,-323,-621,-911,-565,150,608,469,305,600
68,-59,-391,-237,-247,348,1126,493,-596,74
-109,340,31,313,306,527,833,162,-952,-892
-40,691,548,635,669,615,326,-386,-801,-1062
-246,295,522,497,528,551,-298,-459,-965,-1352
-589,-203,42,-129,150,274,-1012,-386,-1354,-1645
-703,-417,-146,-229,61,102,-1085,-335,-1092,-1387
-369,-297,122,324,241,-146,-795,-381,-304,-647
202,-162,206,555,58,-588,-524,-624,-155,221
302,-186,129,416,-170,-488,424,-657,-400,631
542,-110,84,182,-211,-143,918,-299,-174,1107
908,-170,-67,-35,-432,-566,132,-140,61,1925
981,-239,-113,-91,-651,-1094,-473,-25,445,2521
515,-415,-231,-145,-582,-704,-281,365,1250,2379
356,-375,-221,-121,-330,-63,68,602,1921,2721
154,-158,12,67,-26,431,297,500,1737,2673
-217,-99,93,134,70,344,273,253,971,1349
-600,38,268,186,118,-280,105,144,418,-754
-745,256,543,342,292,-417,116,122,-128,-2799
-735,118,447,473,431,-70,168,31,-561,-3838
-484,112,378,454,420,60,139,-107,-610,-3020
-213,63,220,266,254,21,200,49,-390,-1600
-175,-65,59,104,134,126,272,318,-117,-672
-225,-60,10,59,69,153,158,260,-287,-394
-190,155,71,60,105,40,-27,-41,-770,-381
232,570,217,36,144,-151,-310,-444,-1043,346
594,356,-109,-200,-176,-480,-541,-413,-143,1374
603,-54,-348,-410,-445,-522,-482,-1,979,1525
259,-265,-292,-293,-328,-163,-194,239,996,1103
-275,-351,-211,-161,-198,0,-6,280,686,513
-70,-183,-67,-80,-151,-82,0,120,78,218
63,-144,-59,-72,-59,-126,164,185,108,552
30,-74,-53,-74,46,-9,318,413,165,295
292,92,59,-23,89,423,189,460,-231,-512
344,-115,-139,-163,-25,642,-35,595,250,-159
43,-215,-175,-113,79,592,13,726,470,-175
-207,-54,61,69,179,394,259,898,797,-760
-168,-143,-50,-33,27,27,180,684,1390,-512
123,-273,-314,-279,-218,-299,-86,65,1177,108
332,-144,-270,-359,-365,-432,21,-198,470,295
445,407,191,-187,-172,-164,220,-281,-292,50
629,740,502,55,37,-27,-4,-729,-1369,601
587,208,58,-85,-161,-427,-516,-1121,-1282,2803
413,-200,-273,-296,-353,-592,-652,-976,-375,4074
413,-196,-305,-285,-331,-496,-524,-710,489,3669
625,203,-12,54,-6,-176,-256,-583,140,2022
288,505,357,374,370,275,173,-144,-394,-821
-86,543,447,264,416,379,339,301,-410,-2181
-700,267,408,382,654,568,515,489,-413,-3381
-1261,-180,139,312,625,575,516,611,294,-3805
-1117,-373,-117,28,314,348,339,658,828,-2506
-664,-454,-297,-192,-36,21,33,366,430,-649
-388,-407,-234,-133,-149,-130,-150,-95,-699,-310
-156,-122,18,111,27,1,-96,-304,-1373,-1067
24,187,245,314,295,209,44,-270,-1125,-1409
-202,277,443,371,479,382,150,-312,-835,-1628
-695,-2,205,234,383,374,205,-148,-309,-1618
-765,-203,-108,134,132,222,174,0,-108,-1108
-200,-80,-117,161,-37,113,40,-78,-450,-384
431,103,1,175,-78,107,-164,-232,-571,933
664,-55,-149,-131,-288,-159,-557,-354,4,2866
736,-315,-492,-619,-616,-599,-999,-444,595,3170
862,-178,-434,-850,-695,-757,-1163,-526,697,2412
561,124,-65,-527,-363,-454,-746,-341,102,678
39,133,100,-125,53,54,-51,118,-305,-1589
-2,250,293,10,225,466,358,424,170,-1822
19,259,314,97,161,578,482,498,490,-1132
-165,105,130,213,27,586,582,456,339,-988
-234,64,28,274,-17,512,754,105,-350,-918
-134,146,193,259,24,243,903,-175,-581,-176
-18,232,459,366,121,-23,330,-228,-400,384
-11,-53,194,446,264,-171,-195,-228,-452,426
1,-133,15,334,302,-166,-257,-177,-203,306
126,-99,-35,88,92,-170,-191,-78,103,422
215,-156,-148,-147,-145,-247,-206,-97,279,831
195,-320,-398,-379,-362,-375,-264,-5,595,1352
313,-300,-472,-425,-411,-400,-236,204,960,1440
211,141,25,-140,-104,-114,7,286,714,535
-80,359,283,75,105,64,88,262,517,-265
-94,-50,-47,-13,-13,-51,-31,221,399,153
-268,-390,-371,-257,-205,-196,-105,250,478,908
-238,-345,-356,-282,-219,-190,-78,244,550,773
-98,-129,-157,-110,-19,59,41,331,422,-624
-389,-30,-5,106,268,502,125,310,21,-2065
-503,117,140,178,405,757,-19,44,-68,-1952
-462,53,44,-63,147,523,-268,12,277,-835
-317,-443,-436,-424,-351,-126,-511,-19,265,29
-2,-540,-638,-643,-609,-539,-333,111,508,715
114,-431,-533,-536,-400,-210,132,454,847,684
140,-148,-253,-172,66,176,414,342,399,-47
89,183,151,197,440,376,426,48,-446,-766
71,345,354,270,505,568,257,-180,-612,-676
113,382,372,129,327,417,216,-114,-360,-367
213,208,219,103,116,-74,58,-174,-437,251
252,-33,-97,70,-200,-621,-180,-214,-354,674
340,-158,-193,30,-271,-599,-167,-64,59,1811
467,-53,-62,140,13,-214,-106,-74,754,2569
593,52,26,147,-69,-134,-224,-335,1174,2304
329,-89,-89,102,-199,131,-303,-502,116,1373
-18,-5,87,260,10,609,-124,-522,-1171,270
-30,425,590,459,314,826,356,-461,-1587,-525
-27,345,575,422,351,497,812,-281,-1350,-1450
-221,98,489,341,288,238,811,30,-580,-1855
-414,-8,419,192,116,106,384,68,-448,-1616
-328,157,286,107,4,21,0,92,-533,-1669
-246,427,167,81,50,-23,-130,59,-454,-1389
-290,521,102,-37,21,-57,-132,-164,-563,-931
-260,446,40,-287,-142,-84,-108,-97,-191,-407
84,95,-239,-527,-208,-157,-207,49,440,504
522,-244,-387,-564,-136,-82,-397,76,829,1449
208,-473,-371,-379,-76,-148,-478,81,1051,1066
-191,-512,-261,67,-140,-523,-545,-95,1062,295
49,-398,-210,185,-357,-715,-539,-215,663,294
394,-203,-169,-4,-397,-478,-322,-237,-172,139
500,1,24,23,-243,-310,-101,-205,-740,-446
346,-71,-36,-21,-190,-245,109,73,-583,-122
167,-210,-221,-152,-194,-247,133,441,-9,503
-156,-152,-130,-83,-44,-208,61,495,144,448
-360,-183,-132,-35,-8,-230,-196,176,58,395
-258,-164,-112,-37,-41,-181,-441,-64,-41,112
151,-64,-103,-69,-84,-79,-432,-22,601,683
399,34,-125,-121,-190,-116,-487,-199,1037,1395
165,229,-34,-177,-192,-76,-414,-103,1358,1668
-182,209,-29,-170,-63,102,336,473,1001,737
-195,62,-63,-17,134,319,1250,881,69,-1138
-228,158,140,105,322,431,1118,823,-423,-1931
-508,311,586,569,648,493,557,327,-1375,-2433
-397,466,851,983,823,451,178,-365,-1964,-2189
-132,470,676,782,618,263,-51,-639,-1450,-1625
-272,449,568,584,452,257,-7,-541,-811,-1284
-349,342,402,600,278,228,14,-344,-203,-708
-167,-102,-61,324,-4,50,-143,-290,126,179
326,-355,-432,-362,-405,-284,-390,-391,714,2103
781,-372,-627,-796,-727,-632,-641,-355,1142,3482
995,-133,-489,-772,-691,-631,-531,-170,1086,2785
1042,223,-131,-477,-346,-200,-219,-149,308,881
49,276,164,-9,208,394,214,87,-151,-1661
-981,144,212,160,433,522,347,386,378,-2450
-1163,-31,104,97,310,320,200,422,377,-1878
-792,-247,-137,22,110,189,152,371,-286,-1426
-469,-221,-219,-201,-121,-10,230,434,140,-819
-413,-259,-227,-314,-292,-191,227,595,987,-350
-309,-125,-67,-80,-191,-93,133,661,1151,-149
-131,44,107,113,38,87,80,425,625,-73
72,239,323,265,264,44,-58,-304,-316,104
321,371,420,376,251,-55,-279,-873,-1167,597
467,193,164,374,91,-13,-408,-767,-1343,855
462,50,24,148,-83,-13,-535,-497,-788,962
571,-21,-152,-248,-280,-9,-658,-431,-211,1332
643,-127,-422,-602,-516,-137,-423,-338,272,1728
412,-376,-628,-776,-588,-369,49,93,1055,1708
163,-409,-548,-541,-327,-317,32,485,1226,1029
-53,-89,-123,14,152,133,73,394,246,-31
-49,328,417,552,529,388,121,-16,-865,-440
-39,298,409,477,383,214,164,-96,-986,272
13,-7,-10,-4,-28,-106,208,-139,-593,1377
270,-50,-235,-276,-249,-331,195,-230,-294,1521
368,118,-44,-109,-48,-173,198,-158,-468,757
-181,180,191,210,342,216,376,68,-791,-994
-510,220,304,286,432,329,412,180,-309,-1811
-466,291,343,126,228,184,321,223,570,-1034
-333,48,-25,11,6,49,149,19,397,-634
-220,-65,-192,-13,-71,39,83,-149,-274,-769
-127,17,10,110,-7,72,107,-186,-670,-1112
62,114,83,135,7,264,137,-183,-596,-1272
202,25,-123,-138,-175,336,132,1,53,-365
414,45,-200,-328,-314,31,78,185,597,818
427,104,-126,-368,-241,-160,107,357,1126,1931
197,-203,-372,-383,-170,-103,115,444,1272,2195
-49,-247,-316,-302,-70,-46,0,349,635,1280
-320,-114,-51,-120,17,-18,-232,11,-372,-421
-194,79,150,173,208,154,-347,-345,-940,-1789
-221,171,272,366,362,258,-226,-297,-453,-2115
-307,190,319,385,346,121,-189,-251,-680,-1550
-303,257,324,286,324,114,-71,-124,-771,-933
-277,120,117,10,171,49,172,207,150,-505
-189,-89,-171,-253,-59,-72,410,409,828,-392
-182,-122,-150,-189,-205,-123,261,320,770,-491
-71,-55,55,149,-182,-105,-55,54,225,-341
9,-32,126,432,96,70,-81,-191,-477,-394
-147,-112,23,408,226,134,23,-128,-562,-459
-213,-136,-37,127,92,-26,71,15,-2,14
6,92,-55,-254,-103,-25,89,217,1228,644
86,-270,-540,-756,-482,-70,-212,354,2413,1329
-158,-795,-978,-962,-688,-169,-525,300,2412,1354
-240,-730,-900,-749,-501,-66,-549,245,1555,1071
74,-153,-482,-281,-95,204,-427,12,-218,739
405,636,99,198,325,460,-110,-312,-1948,0
513,896,399,386,564,528,419,-278,-1925,-308
647,882,726,478,543,121,485,-280,-1357,11
421,536,784,376,218,-303,223,-226,-706,80
110,26,328,282,51,-140,183,-141,-563,-536
173,-83,154,285,-97,-172,104,-116,-182,-453
-31,-246,94,284,-252,-358,-8,-12,323,91
-5,-324,-142,-9,-398,-451,-137,64,729,470
30,-296,-259,-251,-382,-398,-187,80,837,100
-28,-112,-83,-107,-156,-187,-73,11,264,-625
-40,154,200,-8,14,-13,21,-51,-179,-321
50,110,137,-45,49,39,55,2,-322,670
97,-50,41,-2,39,21,43,32,-300,1025
174,72,301,266,146,32,-30,-173,-360,783
342,216,359,371,242,100,-28,-341,-515,687
321,170,153,150,146,123,90,-186,-502,571
-10,-2,-114,-86,-31,-2,60,98,-287,-214
-274,-126,-215,-313,-252,-253,-96,214,68,-352
-369,-103,-163,-267,-249,-278,-134,201,293,-595
-365,-98,-144,-5,-47,-102,-21,231,365,-1016
-89,64,118,184,110,37,59,177,385,-782
8,116,163,233,160,99,75,51,256,-819
151,138,126,278,182,127,53,-122,-127,-717
416,69,0,132,70,27,-44,-171,-382,46
459,-45,-110,-84,-94,-112,-132,-83,-213,845
308,-35,-52,-151,-117,-121,-140,-51,176,1143
-25,-119,-78,-136,-133,-90,-145,-24,242,1148
-155,-85,-24,-96,-127,-104,-158,-49,138,1010
-117,-68,-50,-123,-123,-45,-103,1,210,1316
29,-115,-105,-150,-31,183,-103,-49,68,1779
-325,-348,-276,-201,97,365,-57,72,177,757
-512,-369,-259,-163,185,304,-12,184,485,-555
-230,211,178,120,314,168,38,95,284,-1552
1,790,589,363,359,124,98,-28,-251,-2098
-145,365,310,290,217,163,124,37,-443,-1563
-223,44,84,127,70,124,192,142,-437,-790
-48,27,60,27,-28,35,276,182,-275,-496
40,35,77,15,-32,84,169,177,92,-352
-95,-100,-51,-97,-123,-11,-239,-36,370,-93
-354,-243,-171,-215,-167,-152,-571,-194,359,-40
-269,-12,-1,-155,-44,-74,-635,-73,-78,-268
36,-19,-44,-78,-23,-7,-638,103,-778,-388
-64,-158,-160,-110,-32,106,-132,316,-731,-600
-199,-156,-141,-31,57,209,693,448,-153,-343
-18,66,-7,165,150,146,665,95,-218,-280
83,159,42,193,85,-57,201,-308,-442,-568
85,98,87,155,36,-125,6,-399,-386,-284
223,158,190,108,9,-165,193,-294,30,364
432,214,205,80,-8,-188,368,-165,387,651
431,116,171,122,17,-191,214,-36,715,536
318,-27,13,13,-98,-143,6,64,824,445
195,-198,-213,-200,-296,-97,-63,95,489,607
6,-407,-460,-453,-473,16,-77,115,424,832
21,-483,-618,-590,-509,80,-63,91,349,971
62,-422,-509,-548,-419,-121,-6,129,388,950
158,15,1,-256,-130,-161,157,87,45,428
423,415,394,185,246,109,170,-222,-699,0
473,426,397,336,345,193,-38,-214,-697,151
158,347,326,340,403,241,-112,-42,-301,-51
-375,24,78,136,277,129,-202,-21,-247,-793
-566,-191,-77,-44,113,-34,-220,-1,-390,-1081
-489,-161,-92,-73,55,-89,-3,89,-249,-828
-333,-67,-121,-260,27,-52,254,208,510,98
-56,-218,-388,-498,-264,-185,-37,159,1572,1756
136,-566,-824,-590,-673,-477,-331,73,2107,2624
440,-521,-723,-395,-745,-616,-217,-45,1473,2328
938,-85,-74,-3,-455,-355,-64,-273,-39,1219
813,279,493,374,-37,101,94,-224,-1349,-663
68,229,495,448,211,296,214,25,-1124,-1465
-247,185,315,304,275,215,82,32,-402,-500
-300,427,465,266,405,281,30,83,63,-6
-356,225,245,98,208,124,71,116,238,-238
-501,-90,-5,27,29,-154,83,91,68,-551
-434,-118,-53,71,45,-268,35,137,-189,-629
-262,-21,104,258,232,-178,10,122,-489,-650
-246,-15,270,335,286,-36,21,177,-323,-666
-183,79,326,396,385,297,91,159,-308,-1051
-167,282,452,361,551,761,252,191,-281,-1512
-233,183,343,121,464,825,216,95,-284,-1507
-207,-25,75,41,247,429,-1,-127,-496,-1247
-15,4,-52,170,96,102,-40,-171,-535,-560
141,-17,-102,224,-39,-73,-63,-164,-498,79
283,-42,-68,128,-142,-223,-119,-129,-361,675
516,37,-2,-164,-404,-440,-178,-296,-345,1024
648,103,-52,-521,-599,-481,-197,-274,22,987
383,31,-130,-452,-405,-352,-110,63,834,365
-179,-327,-315,-240,-136,-214,-84,289,1286,-43
-366,-503,-389,-183,-42,-13,-106,352,1490,618
-159,-409,-345,-184,-49,59,-118,142,1157,1115
147,-158,-132,-46,50,14,-86,-117,478,1041
384,70,81,102,133,-2,-124,-384,-560,1081
311,257,294,277,230,142,-112,-480,-1091,360
19,433,394,273,307,237,0,-284,-433,-667
-289,642,572,264,239,45,57,-110,245,-940
-633,271,323,178,-25,-140,16,-62,-97,-1231
-484,-146,-105,28,-79,-43,-39,-201,-923,-947
-227,-229,-201,-50,-58,-55,117,-172,-811,-605
-179,-201,-110,-4,-24,-97,299,-58,-554,-167
-149,-165,-70,54,40,-25,299,23,-403,-189
34,-24,48,87,139,111,290,139,-127,-404
141,85,169,53,135,209,263,216,115,89
148,-100,-16,-25,3,155,131,218,252,934
229,-180,-132,-115,-124,25,-60,128,513,1272
156,-236,-232,-204,-221,-41,-223,9,463,505
110,-233,-224,-208,-213,-21,-204,21,38,-274
174,-154,-84,-12,-85,-25,-41,70,-209,-497
-48,-253,-115,71,8,-6,167,219,104,-511
-21,-209,-66,23,26,12,200,299,546,5
70,-36,34,44,76,-4,28,248,487,165
13,88,-36,-14,60,-56,-253,334,89,-234
-132,215,-174,-198,-65,-115,-468,305,-164,-677
-429,193,-370,-310,-140,-95,-487,227,-139,-1020
-524,-31,-436,-324,-190,-21,-198,139,10,-650
-127,-236,-336,-342,-237,42,291,-168,-159,26
358,-115,66,-159,-157,-34,553,-430,-210,800
574,323,416,62,15,-134,221,-497,-125,1122
722,191,68,-10,-77,-299,-84,-387,86,1175
643,45,-22,38,-150,-321,-93,-169,554,711
125,-53,8,101,-107,-230,-26,64,746,-145
-612,-211,-48,107,-11,-64,-17,131,193,-884
-575,-8,151,232,188,300,-36,0,-705,-943
-200,189,362,383,387,814,-89,-143,-941,-620
-133,226,375,329,354,722,-291,-352,-759,-49
-244,30,123,228,195,287,-327,-367,-584,164
114,-19,-72,-27,-6,-73,-33,-219,-210,345
612,129,-38,-202,-49,-219,296,-65,82,520
513,117,-3,40,-7,-369,269,37,301,594
54,-110,-216,170,-58,-370,29,124,815,767
-18,-269,-440,-168,-144,-276,-3,116,1240,791
-51,-235,-308,-288,-172,-234,-54,124,1143,612
-274,-173,-137,-24,-71,-188,-176,203,674,219
-211,-155,-59,114,18,-35,-171,82,-15,-358
106,47,139,-16,15,47,-109,2,-282,-337
-170,-68,132,-70,-18,35,250,139,-165,-417
-261,-121,100,46,70,45,311,82,-492,-348
-15,82,215,247,230,52,168,-77,-1089,72
194,150,179,225,185,33,91,-157,-1023,1093
489,327,249,24,45,-48,7,-194,-523,2299
610,386,235,-123,-63,-153,-100,-185,16,1962
319,54,35,-97,-101,-164,-118,-72,68,44
-300,-78,-37,-62,-37,-55,-39,108,324,-1302
-621,-129,-131,-51,6,25,53,243,422,-1486
-464,-141,-142,-102,-25,49,90,286,503,-651
-162,-147,-120,-174,-102,10,37,224,467,513
247,-39,-74,-177,-154,-39,-49,60,186,948
354,31,7,-209,-240,-78,-90,13,-56,531
-75,-168,-79,-271,-321,-95,-46,200,-58,-323
-173,-140,45,23,46,125,116,207,-74,-1557
-306,-43,180,211,439,346,248,96,-206,-2256
-422,-61,101,139,441,289,153,-35,-219,-1671
-295,-75,1,185,306,151,-26,-165,-261,-808
-171,-69,-20,273,158,40,-154,-253,-288,-517
108,114,108,218,29,-80,-261,-325,-63,-265
375,126,35,-12,-105,-221,-362,-275,363,311
345,-129,-274,-184,-101,-217,-346,-102,534,559
149,-249,-419,-409,-150,-164,-353,51,1038,639
-192,-454,-636,-641,-372,-323,-450,254,2056,435
-539,-510,-656,-524,-308,-310,-311,341,1766,71
-485,-317,-393,-209,-106,-134,-96,406,753,150
238,197,183,49,16,133,13,162,-711,1251
733,671,808,240,126,253,135,-197,-1519,1736
319,283,530,62,-69,49,135,-216,-1029,918
-95,91,341,72,37,210,205,-193,-791,228
-226,131,280,212,266,325,419,-85,-595,-222
-62,234,273,327,445,314,592,-31,-474,-672
41,94,85,110,274,154,388,-20,-275,105
-19,-215,-320,-280,-168,-141,108,149,321,994
-93,-277,-400,-312,-312,-194,48,208,656,803
-230,-196,-243,-170,-241,-116,62,143,498,-442
-196,23,0,3,-99,1,122,63,169,-1182
-48,279,261,270,145,305,277,83,-179,-1453
62,375,318,345,309,441,303,-23,-779,-1512
24,267,259,299,393,417,272,-114,-1394,-1193
-175,-5,172,238,296,197,89,-191,-1478,-975
-70,52,212,260,179,25,-93,-284,-961,-865
67,426,429,233,186,49,-125,-309,-350,-920
-20,198,185,172,103,29,-150,-274,-257,-757
-89,-41,0,193,57,19,-142,-242,-194,-322
-141,-67,53,261,66,-13,-126,-250,-128,-167
-227,-206,-116,93,-53,-94,-77,-54,273,-53
-275,-367,-311,-172,-260,-242,-127,159,893,310
-231,-451,-437,-384,-451,-436,-232,188,1285,695
-115,-254,-362,-495,-501,-488,-226,212,1608,1003
59,-163,-322,-402,-421,-387,-182,78,1016,812
302,64,-139,-87,-71,-24,-12,-98,-94,597
560,350,98,188,274,389,202,-67,-866,489
886,417,187,184,284,398,198,1,-977,986
839,244,43,16,168,297,120,89,-844,1074
386,66,-46,-85,150,420,66,124,-742,290
7,30,138,2,164,522,-67,66,-497,-503
-173,85,422,118,97,351,-291,9,113,-703
-318,-189,71,13,-176,-6,-465,46,895,-426
-362,-368,-260,-186,-415,-297,-563,91,1481,-80
-244,-371,-329,-445,-562,-369,-369,295,1468,375
10,-176,-215,-464,-512,-339,-237,284,673,411
91,95,32,-182,-267,-270,-201,-4,-572,-182
-134,91,80,45,-4,-62,-61,-208,-1073,-540
-311,78,106,132,296,7,215,-383,-984,-410
-126,81,32,73,399,-64,10,-459,-526,72
90,-81,-221,-58,232,-96,184,-232,-37,300
110,-96,-269,-237,90,68,548,107,524,201
153,-81,-268,-320,-32,321,470,126,795,132
230,-25,-109,-155,8,297,324,-37,411,29
220,-38,61,226,76,-58,231,-130,170,277
171,-27,143,781,103,-290,53,-30,205,879
248,61,168,834,105,-123,-4,169,89,986
264,38,108,443,50,-53,-67,349,192,642
55,122,271,268,65,21,-124,301,-192,35
-308,-42,177,52,-14,106,-72,241,-200,-305
-294,-141,23,-150,-100,69,-11,232,-24,32
-54,-61,25,-97,-26,-27,-35,208,46,657
99,-12,76,10,73,-120,-238,-30,-72,605
-66,235,301,56,122,-75,-281,-316,-228,-223
-472,151,261,67,107,10,-96,-341,-387,-1209
-546,-130,68,156,140,24,190,-232,-817,-1895
-404,-135,-30,172,183,-30,244,-182,-780,-1731
-125,-108,-80,35,60,-113,-8,-198,-349,-762
18,-150,-168,-160,-74,42,-56,-161,55,-101
26,-104,-252,-276,-110,202,49,198,685,356
235,220,-188,-306,-117,8,99,629,1530,1529
238,352,-116,-411,-203,-346,-8,639,1807,2231
130,-152,-408,-595,-430,-524,-175,435,1527,1763
284,-325,-397,-439,-452,-395,-113,260,784,1190
578,-92,-148,-39,-246,-212,34,-72,-592,696
723,195,7,233,-1,-11,78,-472,-1291,51
398,208,37,218,119,124,89,-460,-895,-793
-276,15,-62,-11,151,182,156,-111,-236,-1546
-449,118,141,-38,272,238,171,-43,22,-1648
-238,126,156,60,272,187,107,-133,-277,-1301
51,57,-6,15,126,55,-41,-246,-591,-478
136,-158,-137,-118,-107,-113,-187,-270,-639,438
263,-152,-12,61,-133,-136,-247,-318,-788,641
440,16,94,216,-46,-84,-240,-327,-717,470
41,112,218,268,93,67,-63,-175,-700,-131
-409,187,378,279,190,207,143,2,-484,-984
-350,299,481,211,176,229,288,253,-20,-1195
-146,137,207,85,44,95,233,252,-47,-662
-25,-9,13,-11,-62,-1,117,226,23,84
-57,-84,-39,-43,-54,-4,106,315,447,413
-324,-199,-121,-80,-55,-1,95,351,641,-10
-461,-400,-349,-266,-224,-141,-2,375,1028,52
-407,-457,-430,-388,-341,-239,-74,303,1353,104
-271,-146,-108,-232,-209,-124,-51,97,1110,-394
-121,75,119,46,45,63,-31,-170,-264,-1042
-17,256,321,334,339,227,-6,-431,-1542,-1102
8,199,251,278,278,129,-76,-508,-1458,-546
50,32,47,71,78,-26,-131,-319,-587,28
131,-8,-34,-13,-4,-94,-125,-97,-16,325
136,45,-12,15,7,-87,-95,-7,168,186
63,114,88,47,97,0,-53,12,335,27
180,156,137,76,145,18,-103,-61,407,459
245,-30,-75,-17,-28,-71,-254,-233,378,963
136,-93,-128,-94,-154,-71,-265,-247,238,968
5,-117,-178,-105,-139,-47,-161,-129,56,623
-243,-114,-77,-38,11,102,63,115,-288,-480
-402,-128,-60,-42,49,181,226,334,-151,-1250
-233,-84,-84,-86,17,125,198,334,139,-785
149,291,182,-71,43,75,92,158,316,391
344,258,151,-128,-85,-102,-87,-1,608,1252
339,-111,-162,-213,-215,-233,-177,72,1059,1593
461,-107,-221,-228,-206,-224,-145,203,1345,2124
475,-134,-265,-277,-219,-290,-140,245,1315,2266
363,-126,-244,-294,-213,-326,-138,214,661,1474
229,69,-24,-72,-6,-99,-10,111,-343,34
-92,290,298,254,266,312,197,-51,-1215,-1540
-310,404,518,436,356,512,240,-161,-1465,-2266
-299,299,416,338,193,506,158,-159,-1202,-1971
16,187,212,135,-52,309,61,-194,-843,-735
304,-28,-37,6,-86,89,47,-205,-491,602
364,-240,-277,-92,-47,-11,54,-156,-212,1204
589,-303,-442,-306,-210,-157,-36,-111,44,1556
510,-170,-369,-280,-197,-74,87,33,205,1021
-125,125,-86,-106,-23,67,316,187,480,-43
-641,4,-122,-91,-40,-25,75,213,801,-212
-769,-239,-204,-40,-11,-64,-353,138,815,105
-731,-256,-249,-38,28,-50,-493,4,595,-185
-723,-226,-223,24,102,42,-443,-179,-249,-1222
-492,-3,47,184,316,245,-207,-310,-1010,-1988
1,274,305,235,368,222,106,-301,-1108,-1518
174,436,416,288,408,116,298,-196,-762,-891
87,299,227,202,343,267,211,-97,-417,-615
-7,-94,-34,-6,74,486,271,-90,-388,-299
-151,-157,-155,-85,-45,311,447,25,-104,-125
-2,-124,-228,-148,-187,-182,259,87,260,205
130,-27,-150,-72,-206,-320,169,190,313,265
47,13,-43,-51,-152,-147,226,435,259,50
-48,53,71,-149,-90,-107,134,455,64,-95
2,61,68,-301,-105,-110,39,362,55,539
114,-70,-199,-557,-242,-203,-93,266,433,1210
224,-178,-327,-603,-284,-381,-312,64,820,1270
293,-193,-116,-315,-152,-316,-414,-126,715,1021
114,-51,356,265,150,26,-298,-225,0,-128
131,149,613,655,321,160,-218,-322,-587,-790
172,244,477,479,359,154,-44,-290,-707,-769
25,292,355,354,297,69,174,-116,-394,-443
-94,295,300,392,153,53,140,17,201,214
-113,-111,-136,276,-55,-58,-156,-64,334,673
-66,-302,-361,159,-160,-200,-331,-89,318,880
-13,-317,-371,78,-212,-237,-444,-36,187,658
45,-177,-91,41,-152,-152,-363,-72,-87,-109
190,38,162,1,-53,-106,-57,-157,-289,-563
244,195,292,62,27,-125,-60,-169,-531,-574
97,405,457,200,170,5,-126,-63,-530,-757
-184,87,167,108,77,95,0,44,-302,-1015
-304,-89,-51,-9,-19,104,569,207,208,-799
-245,-63,-56,-65,-69,2,669,249,421,-286
-162,-72,-41,-84,-128,-87,248,205,263,152
-86,-132,-114,-50,-109,-79,87,253,-6,519
-16,-167,-211,-111,-79,-6,118,346,-10,626
-21,-62,-171,-216,-142,-48,122,395,357,528
-47,-90,-185,-310,-263,-188,10,398,860,702
57,-200,-277,-269,-269,-263,-126,235,880,765
238,-49,-120,-129,-165,-235,-123,38,538,432
104,-46,-79,-114,-132,-147,-7,11,461,62
16,-84,-129,-167,-112,-63,0,-89,523,51
97,-69,-151,-156,-29,-56,-46,-177,487,246
129,73,-50,-11,139,11,25,-47,160,31
99,510,275,167,374,227,186,60,25,-431
200,546,363,239,467,330,265,169,-66,-196
389,271,251,262,356,233,195,133,-224,265
288,87,137,317,178,86,65,-199,-621,160
-33,-99,-27,216,92,59,62,-340,-1029,-319
-215,-221,-121,-27,-35,8,39,-316,-906,-62
-114,-115,-4,-60,-179,-112,-32,-315,-623,776
-117,16,129,5,-146,-29,-7,-252,-282,621
-244,-71,73,65,-14,168,48,-170,-188,-172
-138,-165,32,124,80,202,21,-136,-358,-579
-202,-229,-44,161,143,186,19,-48,-368,-983
-225,-193,-57,102,102,105,-35,-64,-327,-813
106,1,-14,-6,-18,-33,-153,-161,-248,38
210,131,-53,-91,-123,-91,-190,-113,55,586
111,256,-96,-181,-198,-108,-153,56,509,678
188,456,69,-212,-182,-75,-70,117,708,991
154,185,-56,-222,-127,-53,-45,61,459,897
53,-188,-248,-236,-140,-119,-114,-19,357,426
6,-220,-193,-141,-102,-132,-154,9,719,87
36,-176,-164,-114,-158,-219,-241,32,882,-168
-27,-250,-230,-196,-234,-290,-265,30,670,249
-147,-293,-248,-215,-176,-154,-92,197,604,1079
-47,-52,-66,-112,-37,34,47,233,529,1174
-25,79,115,29,79,203,143,144,-10,-101
-207,-45,99,151,170,323,139,25,-700,-1307
-435,-74,73,265,269,452,160,-104,-965,-2072
-557,-71,66,281,295,474,244,-143,-1071,-2359
-461,-61,87,213,227,283,280,-51,-843,-1540
-120,-38,47,73,69,18,77,-56,-620,-136
313,22,-46,-41,-81,-212,-71,-88,-213,958
487,-23,-251,-256,-303,-422,-151,-44,384,1394
419,-143,-320,-337,-379,-460,-326,-108,311,893
339,44,-39,-66,-126,-238,-288,-203,-247,-392
232,287,318,308,239,108,-68,-177,-818,-1264
99,358,447,423,407,303,112,-15,-788,-710
89,258,332,280,310,253,113,162,-406,335
26,100,95,78,155,142,136,294,-68,290
-83,150,38,-100,74,88,210,330,198,-211
-42,326,115,-138,78,75,135,265,407,-346
26,-56,-245,-206,-18,-6,-107,201,801,-8
-74,-426,-553,-388,-195,-132,-275,288,1469,587
-160,-574,-525,-492,-382,-130,-426,273,1535,745
-123,-534,-395,-419,-457,-163,-539,253,1386,574
106,-131,-6,-3,-231,-163,-284,46,362,214
40,200,269,320,31,-69,177,-50,-414,-231
-395,262,327,228,92,189,366,14,-565,-731
-541,-99,2,-8,-34,469,61,-8,-617,-810
-287,-216,-164,-88,14,368,-247,-132,-569,-232
-106,-253,-225,-68,179,176,-177,-182,-515,270
-77,-123,-44,58,364,143,288,-132,-560,176
136,291,372,257,505,108,631,-160,-660,-148
228,477,435,307,371,-7,351,-274,-465,-303
193,531,418,359,221,-57,37,-442,-321,-224
403,415,230,215,21,-123,56,-410,-216,57
562,160,-93,-95,-170,-139,129,-168,-292,430
387,71,-54,-183,-194,-71,213,67,-437,548
269,143,347,44,-109,-16,137,-9,-628,332
159,129,404,220,5,93,47,-10,-422,208
40,-36,65,96,9,135,-22,54,-21,393
63,-139,-121,-7,5,58,-119,45,279,485
-51,29,155,109,7,-22,-109,106,596,211
-221,-119,50,132,-148,-256,-154,200,633,-7
-338,-263,-184,35,-169,-280,-127,174,294,-609
-384,-151,-109,-23,-45,-124,-100,-51,-93,-1065
-249,-52,0,78,-47,-167,-195,-133,-23,-742
-175,-36,8,288,0,-124,-274,-156,217,-501
-208,-60,-54,294,33,-40,-356,-213,152,-390
-34,27,-59,155,46,53,-388,-203,-244,163
215,75,-89,12,61,178,-264,-184,-578,670
281,19,-198,-98,39,163,86,-133,-456,786
206,-26,-30,-13,44,108,376,-19,-61,573
77,-98,97,33,-88,-66,193,-61,54,71
-28,-215,-75,-110,-285,-270,-12,-3,381,125
-112,-286,-248,-300,-375,-253,97,278,942,492
-127,-185,-206,-319,-265,-78,253,469,1082,454
-51,293,241,-118,-21,127,372,422,667,95
-177,240,253,83,151,199,324,242,-152,-504
-185,-54,-20,107,191,78,100,167,47,-375
-140,-187,-203,-8,87,-126,-159,110,508,11
-167,-286,-330,-116,-16,-225,-304,49,761,-68
-31,-244,-321,-128,-45,-167,-314,-108,447,-132
317,-14,-182,-2,48,-13,-255,-374,-636,-183
490,279,77,21,100,41,-173,-487,-1079,68
544,257,210,-45,11,-61,-38,-460,-980,549
550,164,223,-54,-30,-110,-25,-371,-542,618
406,173,272,-18,5,-52,-76,-205,-171,397
-48,-2,114,-58,-12,-14,-30,23,-53,166
-473,-216,-65,-94,-8,56,120,183,-86,-8
-502,-283,-171,-178,-10,123,247,320,11,294
0,-101,-229,-382,-145,10,104,363,571,685
235,-128,-309,-502,-320,-127,-304,330,1115,878
-277,-469,-489,-550,-389,-90,-425,564,1367,962
-443,-388,-350,-393,-247,134,-150,633,878,317
-271,93,148,159,224,551,595,407,-216,-1178
-299,250,460,579,450,551,626,-33,-777,-1957
-408,-18,303,580,299,173,295,-268,-634,-1638
-259,-74,177,470,139,-110,141,-339,-501,-1092
-4,271,334,373,185,-112,88,-274,-376,-606
302,525,332,236,199,-95,66,-146,-150,-178
434,448,108,223,151,-70,0,-178,-631,-195
136,480,32,305,259,107,87,-165,-827,-458
-36,297,12,234,227,137,111,-98,-549,-267
-98,53,42,88,88,5,-18,-173,-269,67
-252,-126,103,16,-4,-52,-168,-199,-137,-163
-362,-191,105,-46,55,209,-187,-109,-23,-445
-387,-175,8,-156,76,272,-175,-19,178,-400
-258,-273,-196,-183,36,40,-285,-63,116,-256
-43,-174,-168,-119,-17,-176,-273,-92,37,17
33,-81,-74,-35,-96,-190,41,33,-105,37
17,-58,12,-8,-111,-13,432,211,-155,41
121,-16,59,-9,-116,-16,305,169,-135,309
181,-44,-18,-69,-125,-61,81,-29,-83,728
149,34,66,-122,-102,25,26,-118,145,801
212,26,14,-128,-155,-18,-37,-168,187,503
327,-2,-69,-140,-253,-160,-99,-102,213,409
334,-64,-182,-214,-362,-192,-97,146,341,511
114,-233,-298,-296,-386,141,13,252,292,479
-125,-354,-399,-356,-334,192,15,193,266,444
-80,-286,-436,-329,-263,-159,-45,153,432,726
327,39,-183,-149,-76,-316,-24,51,416,1271
741,494,311,30,119,-181,29,-99,402,1423
622,213,171,-28,25,-242,-136,-81,219,1142
298,-32,46,20,12,-172,-188,-43,-227,602
50,79,180,193,113,-35,-74,-71,-620,-890
-79,97,164,194,90,-39,-2,14,-317,-1602
-34,27,49,78,36,-49,26,123,278,-1008
84,-62,-105,-47,14,-74,-13,124,780,183
252,-2,-127,-141,-17,-92,-37,109,1036,1340
184,-110,-204,-364,-128,-143,-74,118,999,1300
-248,-252,-246,-373,-75,-23,57,235,679,71
-400,-89,-22,49,131,187,152,234,174,-1144
-458,47,172,430,264,287,143,144,-428,-1769
-358,63,187,516,201,203,-11,-26,-581,-1174
-266,57,147,402,131,129,-58,-2,-172,-452
-168,178,262,230,206,107,61,76,123,-129
-45,543,486,57,228,57,278,0,25,-176
-98,359,271,14,90,-19,167,-184,-613,-702
-172,155,42,21,-16,-36,-47,-260,-875,-967
-155,114,52,-23,-87,25,-65,-157,-615,-668
-156,139,128,-68,-61,331,35,-82,-621,-720
-343,124,142,1,148,529,101,-17,-454,-916
-427,-23,-7,-100,169,350,-12,-12,-212,-643
-258,27,-43,-289,-28,149,-109,-45,161,-46
-106,-106,-178,-245,-33,43,-60,-126,-22,192
79,-189,-221,-65,30,-119,135,-100,-183,345
256,-126,-67,140,10,-204,159,-68,-101,506
413,-66,71,216,-69,-260,-85,-41,236,660
448,-171,-11,25,-219,-372,-219,73,730,1048
566,-278,-216,-258,-365,-474,-311,44,793,1557
723,-146,-251,-247,-293,-381,-313,-133,195,1169
859,69,-121,-60,-94,-167,-208,-316,-570,669
767,13,-79,-54,-84,-125,-196,-372,-673,676
600,53,53,44,36,-11,-98,-267,-502,543
61,193,287,264,265,219,112,-115,-542,-582
-795,39,210,227,271,291,250,146,-437,-1622
-1087,-172,-9,29,114,188,178,345,-66,-1342
-865,-279,-186,-201,-76,49,34,412,618,-351
-543,-206,-185,-440,-256,-95,-97,360,1274,528
-415,-308,-343,-613,-404,-219,-258,259,1485,1177
-139,-433,-555,-502,-358,-165,-299,64,991,1467
237,-152,-231,-105,-100,10,-242,-98,308,918
362,190,165,293,189,155,-107,-49,-639,-303
244,376,384,461,403,282,-56,-50,-1195,-1206
146,373,401,448,446,294,120,-119,-960,-1216
45,319,331,284,257,155,537,-21,-98,-674
-144,215,268,161,28,-57,520,94,590,-19
-113,-63,-30,44,-101,-221,218,95,672,647
-118,-115,-79,-10,-61,-167,112,106,482,717
-190,-47,60,76,22,-42,67,-1,-8,154
-327,-56,45,45,-11,-15,-14,-81,-470,-514
-268,-32,-39,-21,-74,-29,-65,-127,-780,-765
-98,22,-74,-56,-88,-19,-57,-112,-576,-711
-25,96,-41,-17,36,25,-22,-26,-4,-475
-30,-53,-146,8,76,-61,21,-3,106,-328
-58,-91,-22,162,97,-22,188,52,-95,-281
-49,98,355,492,193,139,250,105,-370,-486
144,183,323,442,104,166,109,60,-353,-391
406,52,6,118,22,58,-180,-163,-255,305
468,-183,-341,-119,80,14,-340,-233,-142,985
488,-149,-350,-235,72,11,-440,-233,58,1254
669,292,32,-219,78,-68,-469,-328,213,1365
676,277,109,-78,23,-190,-242,-303,-129,911
74,83,193,70,-33,-226,243,90,-102,-162
-471,-58,96,34,-54,-127,385,406,173,-1109
-567,-201,-90,-79,-121,-61,265,453,280,-1064
-520,-256,-178,-146,-196,-117,234,488,536,-593
-420,-129,-44,-26,-45,-77,213,245,337,-611
-279,39,125,110,150,5,168,4,104,-554
-278,-24,80,130,193,73,58,-111,-12,-399
-227,-59,-7,65,105,65,-93,-298,-178,-252
-36,-53,-159,-82,-97,-24,-307,-313,-125,73
82,-29,-218,-115,-167,-98,-406,-176,-42,211
46,-12,-57,-18,-37,49,-117,-18,-152,-13
49,0,6,52,93,264,-1,47,-106,193
49,-16,-38,-75,5,211,-132,-25,159,508
76,93,28,-202,-121,101,251,36,530,551
24,11,-84,-149,-133,202,676,153,517,269
-78,-114,-176,-127,-121,348,415,116,300,244
-72,-175,-131,-91,-151,64,149,52,175,707
-107,-232,-81,-64,-217,-343,-14,28,178,942
-130,-283,-175,-153,-294,-507,-114,-93,131,798
8,-206,-172,-169,-235,-487,-214,-179,52,540
169,162,178,33,60,-236,-151,-103,-139,148
163,334,380,339,366,125,80,-36,-603,-889
33,274,338,401,403,233,172,41,-511,-1375
-66,114,166,235,220,70,51,-5,-467,-999
24,32,28,98,61,-71,-65,-74,-443,-368
103,-62,-151,-44,-86,-163,-157,-30,-37,281
52,-153,-224,-158,-176,-199,-161,66,501,544
-56,-94,-113,-133,-140,-144,-116,9,624,354
-163,-68,-47,-36,-33,-29,-22,13,288,43
-127,-20,39,109,115,126,90,76,-375,-553
28,148,178,217,214,215,157,33,-961,-1000
133,165,161,174,162,192,160,93,-707,-636
146,87,50,24,27,129,95,122,-219,28
331,133,52,0,-28,148,25,0,-70,526
662,220,77,-30,-105,49,-46,-42,223,1038
474,320,183,-76,-62,0,-19,25,644,1201
160,202,157,-29,66,69,-46,-40,391,963
168,-57,-53,-103,42,39,-68,-79,-78,704
262,-127,-188,-335,-79,-48,-83,-77,-131,485
210,-250,-337,-375,-198,-96,-123,6,99,212
135,-241,-317,-237,-268,-66,35,187,401,86
229,-16,-114,-56,-174,93,361,358,458,230
288,319,110,0,-81,142,379,357,437,221
272,222,12,-101,49,-5,64,120,276,542
292,-121,-313,-271,299,-98,-109,-63,-40,645
204,-49,-360,-360,349,-55,-76,-115,-51,213
-205,2,-178,-224,81,-107,-104,-96,32,-518
-528,82,9,74,-81,-193,-181,-90,-68,-1105
-295,256,148,299,42,-113,-157,-70,-271,-888
46,338,338,445,172,-24,-232,-48,-220,-298
-143,188,318,370,180,21,-118,88,550,-88
-469,-347,-87,131,5,-186,12,179,1077,-223
-607,-555,-272,-106,-171,-431,-104,133,1140,-240
-528,-407,-201,-97,-160,-368,-225,-68,520,-406
-413,-163,-40,122,18,-46,-131,-35,-67,-773
-458,-165,-49,108,-6,112,-24,288,566,-782
-587,-398,-277,-158,-172,177,-30,480,1194,-721
-456,-271,-199,-332,-238,60,-192,235,813,-251
-78,305,358,-203,-59,111,-146,-102,-537,318
257,412,634,88,151,355,-85,-370,-1910,213
365,350,511,89,98,345,-190,-511,-1921,120
248,218,192,-13,55,268,-29,-450,-1434,308
232,173,87,90,205,195,388,-340,-892,478
155,40,63,285,370,190,469,-264,-556,222
-28,-49,59,461,396,188,240,-118,-483,-538
-77,32,153,492,363,161,97,15,-438,-1129
27,114,213,452,288,38,38,-80,-582,-1113
105,103,149,269,76,-108,34,-68,-392,-520
34,-116,-36,-2,-191,-100,54,71,100,110
-58,-289,-132,-91,-360,-166,85,202,504,269
-132,-290,-161,-118,-390,-270,104,340,622,201
-291,-307,-228,-207,-295,-219,115,394,420,-107
-155,16,31,-176,-69,-24,98,219,-159,-359
239,464,405,59,145,190,-93,-45,-541,-48
649,400,278,234,203,296,-377,-356,-502,693
668,207,15,6,129,255,-467,-395,10,1414
379,-42,-233,-300,24,131,-486,-193,244,1420
177,-125,-132,-172,-9,-70,-417,-103,281,900
54,-140,-25,28,-67,-280,62,-74,318,483
-51,-233,-181,-41,-254,-444,428,-5,558,789
71,-162,-176,-210,-391,-509,115,9,851,1474
496,-178,-256,-342,-476,-505,-266,-104,685,1713
561,1,-66,-147,-277,-269,-234,-156,40,454
-114,0,84,67,54,230,76,-8,-399,-1422
-538,-98,0,21,152,498,289,144,-264,-2013
-594,-196,-149,-66,130,448,309,325,424,-1618
-511,-216,-173,-99,78,279,269,505,1081,-927
-314,-73,-45,-67,6,59,170,435,950,-485
-192,-3,31,19,-37,-70,63,188,-39,-446
-148,-22,25,93,12,-65,-23,-59,-942,-713
-106,59,100,169,105,-42,6,-147,-1027,-806
-97,94,141,215,183,27,86,-54,-645,-532
-195,84,143,218,235,145,153,39,21,-400
-251,18,77,150,199,133,123,59,551,-152
-80,71,85,82,153,100,59,-41,468,767
6,331,237,5,114,55,7,-164,413,1145
11,135,56,-115,-49,-50,-144,-276,266,774
176,-126,-179,-201,-189,85,-238,-373,124,913
260,-102,-159,-167,-151,279,-120,-213,123,829
288,-5,-36,-16,2,161,0,-59,-185,651
252,171,132,163,151,-12,35,-151,-749,-141
89,176,172,175,156,16,94,-123,-992,-1248
122,343,281,104,76,30,37,-24,-527,-1429
63,277,213,3,-85,-12,-97,82,91,-739
-231,-157,-142,-222,-361,-104,-98,182,460,-373
-452,-350,-363,-434,-510,-269,13,316,1087,-227
-487,-458,-511,-412,-373,-415,-69,387,1387,-31
-407,-386,-415,-179,-53,-294,-32,406,822,69
-228,-155,-88,125,261,34,138,200,-176,-39
205,245,259,389,458,220,103,-276,-1214,-86
547,530,427,395,390,158,-27,-523,-1203,369
275,112,33,22,18,-99,-168,-226,-278,823
17,-193,-282,-273,-278,-206,-198,132,568,1033
2,-265,-312,-324,-343,-204,-225,204,776,1413
13,-242,-223,-240,-240,-137,-197,133,294,1415
39,-122,-95,-96,-75,49,-65,19,-321,702
214,71,43,-23,-20,96,-73,-259,-761,226
324,259,193,-29,33,-33,-158,-473,-800,-123
257,297,240,-82,76,-103,-157,-304,-561,-438
76,32,6,-16,200,-52,-51,-4,-673,-966
-122,-64,-42,31,292,63,78,177,-508,-1180
-304,-45,12,206,327,216,150,302,-166,-1263
-282,54,48,417,314,282,212,186,-264,-1337
-101,15,61,406,188,203,318,51,-407,-620
184,-23,53,245,26,2,50,-108,-271,402
483,60,85,53,-80,-208,-378,-268,121,969
560,-10,-59,-181,-184,-362,-612,-261,506,1287
322,-25,-94,-192,-151,-273,-528,-136,576,913
-162,-76,-44,-69,-43,36,-82,52,411,-487
-383,-15,87,89,86,234,657,243,281,-1361
-355,78,185,197,135,239,843,298,82,-1299
-266,0,78,74,47,205,429,288,239,-702
-127,18,-4,-193,-126,76,147,254,557,84
132,197,51,-377,-342,-149,-77,105,601,624
348,-77,-239,-524,-567,-400,-257,40,476,1240
570,-231,-389,-519,-430,-358,-266,31,644,2292
714,-337,-458,-435,-192,-204,-307,-25,1103,2883
677,-280,-356,-277,-74,-178,-311,-57,1169,2315
362,-83,-50,29,59,-131,-170,27,826,1031
8,266,413,438,272,34,89,43,32,-1065
-516,412,540,455,290,179,315,-11,-596,-2613
-697,73,184,215,90,124,312,-59,-748,-2210
-645,-112,-30,68,-37,-12,190,-20,-469,-974
-707,-256,-162,45,5,7,14,42,-261,-209
-503,-192,-106,90,51,34,-144,-35,-2,522
-148,-90,-83,34,10,18,-228,-100,37,594
-186,-195,-183,-59,-53,17,-182,13,105,-101
-403,-134,39,72,28,82,81,67,-344,-1250
-393,-58,167,176,116,144,444,107,-783,-2012
-98,-20,104,139,48,52,356,68,-595,-1443
190,45,25,59,-44,13,31,-110,-432,-339
253,18,-11,-55,-157,-34,-81,-86,-183,478
238,39,21,-34,-87,15,7,94,113,753
313,146,118,76,67,124,91,97,-109,775
477,330,233,98,70,27,-19,-167,-204,748
330,434,335,26,19,-99,-97,-280,-131,271
253,277,141,72,90,-107,-82,-281,-353,-192
456,176,62,76,75,-87,-85,-273,-382,164
271,-2,5,-51,-22,-86,-145,-246,-285,268
-11,-237,-155,-89,-16,-92,-311,-178,-161,118
-115,-261,-182,28,145,37,-319,-54,-64,-143
-137,-97,-122,71,261,275,-170,38,-80,-666
-39,92,72,15,231,333,-86,58,-31,-473
-143,-52,-33,-13,88,216,-8,22,-12,76
-474,-264,-293,20,38,190,302,63,36,185
-398,-223,-247,26,-23,170,376,92,263,318
-52,-33,12,59,-121,148,-15,70,224,420
0,167,44,47,-92,197,-251,94,227,124
-247,291,-14,-6,4,277,-216,71,243,-752
-453,361,11,-94,37,366,-140,74,416,-899
-453,207,129,-166,-7,183,2,134,750,-24
-382,-311,-34,-160,-118,-287,460,267,455,236
-89,-465,-215,-205,-258,-622,585,459,368,260
190,-439,-334,-309,-373,-703,20,369,149,224
296,-287,-286,-231,-263,-255,-202,140,-328,-337
357,-55,-67,-13,2,108,-31,82,-470,-464
434,204,196,260,261,289,181,22,-231,296
436,433,422,251,225,367,238,-220,405,809
520,417,308,-94,-52,123,162,-401,692,1199
721,132,-90,-283,-196,-168,56,-304,229,1380
625,45,-227,-231,-144,-221,28,-91,-9,1268
228,87,46,140,-3,-107,87,28,-255,356
-285,160,302,550,172,27,147,80,-525,-848
-584,43,139,435,144,4,52,13,-628,-901
-668,-150,14,100,1,-121,-99,-160,-282,-55
-632,-242,142,-45,-75,-217,-151,-221,186,18
-588,-369,83,-94,-160,-264,-137,-141,305,-563
-519,-337,-55,-85,-120,-142,8,53,268,-917
-433,-144,-34,22,29,56,174,165,-420,-1248
-172,85,79,66,113,140,189,129,-800,-1223
306,246,171,-15,90,44,22,-42,-793,-640
257,121,75,-24,-6,-71,-76,-11,-388,-218
-194,101,68,102,60,9,12,109,227,-174
-77,173,44,131,70,64,11,70,570,461
196,-33,-137,71,-72,-6,-137,1,405,1140
228,-2,-45,38,6,69,-139,-17,-1,1046
152,60,67,15,126,230,-66,-99,-450,320
-15,53,28,106,174,359,-13,-81,-453,-465
-204,-45,-35,140,161,291,-34,-15,-26,-756
-160,-1,111,32,-24,14,-183,-27,204,-475
96,221,412,55,-242,-250,-414,-37,123,-31
88,41,169,-2,-259,-186,-492,-70,-266,-175
-23,-170,-131,-209,-146,20,-244,-99,-420,-407
87,-259,-318,-224,-31,-28,356,-20,-85,16
249,-281,-350,-169,-120,-256,338,-3,202,938
218,-336,-449,-327,-383,-457,-200,-24,320,1591
144,-332,-478,-433,-437,-385,-400,81,314,1208
304,-210,-370,-355,-332,-224,-317,291,168,846
370,24,-37,-64,-50,19,-83,438,-18,290
332,215,240,181,192,191,61,384,-57,-751
165,167,248,230,259,169,180,217,19,-620
-229,48,182,205,233,123,418,-40,388,-515
-502,-60,45,87,124,-17,280,-256,775,-714
-494,-160,-95,-34,90,-89,27,-170,694,-694
-56,136,83,0,148,-10,37,-203,140,-521
274,565,474,139,248,95,125,-135,-144,52
297,411,371,196,213,98,110,-56,-296,756
99,127,152,229,161,100,69,-113,-560,573
-53,-56,-28,113,50,37,-9,-151,-255,65
-39,-181,-179,-92,-145,-47,-82,-92,199,-127
-17,-260,-277,-169,-253,-112,-119,24,366,-209
-35,-206,-228,-132,-194,-124,-180,25,196,-219
144,261,187,49,25,20,-150,-77,-21,11
241,299,194,103,79,56,-164,-85,3,338
87,120,62,80,54,99,-118,-35,-143,432
-64,174,164,185,186,245,142,-55,-459,274
-135,142,83,146,200,211,363,-182,-429,430
-300,-13,-99,-10,129,105,337,-99,95,203
-383,-149,-173,-73,37,1,176,64,465,-412
-198,-80,-86,-50,-18,-19,80,122,354,-821
-34,69,41,5,-18,44,60,70,-132,-951
22,105,181,129,6,25,42,4,-663,-926
190,63,123,93,-32,-17,-29,-152,-711,-123
464,-75,-143,-102,-147,11,-207,-313,-441,1174
546,-177,-300,-266,-191,-17,-332,-181,255,1638
503,-274,-431,-465,-277,-108,-384,141,1498,1321
296,-248,-401,-460,-265,-57,-408,328,2028,738
-269,1,-77,-298,-52,112,-227,475,1839,-63
-372,285,170,-175,67,127,193,402,858,-550
13,307,153,27,74,27,555,232,-607,-707
10,89,0,37,24,-27,504,177,-1230,-1018
-52,154,183,224,196,79,354,-57,-1781,-1129
-122,292,424,493,414,213,280,-240,-1689,-536
-238,177,314,445,291,140,162,-177,-1161,-45
-328,-30,126,319,67,-17,57,-112,-660,9
-334,-71,114,263,-7,-23,50,-57,-227,-291
-293,-70,77,187,-37,48,112,59,-28,-691
-110,-98,-24,38,-86,19,96,93,215,-171
162,-140,-175,-164,-241,-149,-59,1,568,929
386,-128,-200,-228,-233,-215,-123,-66,467,1458
345,-182,-267,-210,-51,-175,-99,7,574,1373
114,-274,-340,-239,-20,-217,-113,153,731,1133
-71,-102,-122,-233,-35,-268,-197,151,623,639
-272,-60,-60,-201,-38,-56,-212,166,527,-418
-418,-102,-62,70,129,412,-83,110,-15,-1400
-316,73,207,332,328,475,-55,-34,-336,-1467
-218,141,295,440,372,301,33,-97,-567,-1512
-193,64,182,350,307,289,398,18,-698,-1285
-115,-75,-11,117,152,211,527,284,-303,-583
58,-14,11,-35,22,-56,199,372,377,21
20,14,-17,-164,-99,-236,-52,204,1053,385
-26,-129,-176,-155,-176,-323,-179,-226,547,345
32,-10,-84,-15,-116,-207,-197,-550,-211,97
-3,43,10,16,-60,2,-140,-490,-807,-225
-78,15,10,-83,-19,98,-107,-310,-868,-176
-8,-53,-14,-109,-38,-20,-166,-275,-581,170
266,-68,-40,-23,-150,-221,-288,-286,-323,499
493,-18,-62,40,-215,-171,-188,-157,29,712
426,-87,-116,51,-130,51,56,25,152,538
264,16,37,194,223,280,101,32,-110,244
202,224,135,115,397,326,56,-65,-298,288
139,323,-22,-215,223,64,-119,-138,-174,495
-190,114,-281,-374,30,-235,-410,-105,107,158
-438,-156,-367,-250,-91,-274,-565,-8,429,-308
-320,-101,2,-8,-141,-166,-570,-7,322,52
-164,292,534,263,-38,-8,-274,85,386,65
-168,38,228,166,-73,49,196,250,638,-257
-218,-204,-135,-34,-153,-64,555,281,622,-180
-149,-195,-195,-8,-136,-106,703,322,458,-87
-70,-78,4,82,-70,-38,500,317,-141,-490
230,105,234,193,102,63,241,56,-855,-441
633,206,277,198,145,49,-76,-290,-1106,264
852,317,277,15,30,-37,-290,-436,-689,830
805,63,-9,-195,-148,-159,-378,-379,-345,971
524,-99,-154,-251,-174,-180,-339,-252,-144,599
229,-15,-51,-80,-49,-131,-162,-131,90,355
-221,-37,18,57,31,-101,230,40,139,398
-517,-130,17,89,-4,-76,424,149,-13,66
-238,-72,-95,3,53,109,138,192,371,-680
-77,-42,-166,87,-32,54,29,193,449,-378
2,-59,-183,116,-157,-51,-4,255,400,-112
-99,-74,-210,-44,-231,3,65,294,350,-132
-97,21,-161,-145,-172,129,134,264,276,-391
8,234,-31,-193,-110,139,121,171,558,-224
-116,194,3,-286,-59,78,21,9,636,345
-39,-144,-63,-185,102,20,-161,-187,87,1487
469,-159,-61,-160,88,-47,-248,-270,-271,1947
709,2,8,-287,-75,-65,-107,-207,-227,1204
530,57,93,-296,-98,38,104,-114,-269,362
-187,-43,124,1,101,204,159,-54,-329,-835
-803,-174,103,275,191,170,88,24,-12,-1394
-648,-193,-9,223,67,0,-158,81,377,-945
-244,-173,-80,84,-118,-165,-556,20,318,-317
-61,-171,-108,-109,-261,-155,-604,-49,-8,261
26,-124,-102,-170,-239,-49,-23,-54,-506,182
122,-33,-40,-66,-121,-53,450,43,-324,353
0,-111,-123,-86,-65,-108,224,231,203,374
-87,-27,-9,102,79,-45,234,315,245,-341
-155,441,503,490,361,160,390,233,-52,-1276
-304,438,536,515,387,211,330,87,-201,-1390
-378,94,200,330,268,146,187,-27,-133,-1059
-207,82,144,229,221,115,140,-113,-76,-728
-146,17,57,97,105,25,53,-145,-131,-472
-129,-29,-3,41,49,-17,-6,-142,-302,-312
-70,-11,8,77,62,19,-4,-81,-334,-240
-27,137,152,166,115,104,73,-17,-146,24
17,232,254,232,145,183,99,31,9,178
87,-10,18,130,-15,50,-24,104,252,382
205,-11,-51,-7,-109,-91,-91,142,358,495
202,15,-63,-17,-5,-79,-97,18,43,303
50,-64,-165,-36,58,-13,-77,-37,-4,108
-26,-150,-240,-77,-21,-54,-70,-12,59,165
28,-134,-119,-57,-71,-165,-80,-16,-60,164
58,-92,-64,-113,-147,-244,-117,81,165,417
78,-183,-182,-174,-221,-168,-34,359,264,835
53,-232,-228,-215,-226,6,136,556,514,923
-12,-281,-291,-288,-271,-41,91,423,869,751
-67,-259,-273,-307,-312,-231,-152,-20,576,232
-163,-131,-153,-193,-227,-265,-267,-320,-205,-890
-93,55,71,51,39,-47,-234,-490,-867,-1397
76,198,140,69,134,61,-224,-552,-728,-285
235,386,197,-32,96,56,-83,-462,-258,823
416,246,139,72,155,120,164,-313,-463,274
544,277,235,248,302,191,217,-81,-309,-179
412,267,240,278,381,249,128,4,-109,5
154,163,177,198,331,243,5,-72,-207,-534
-3,103,113,136,260,152,-62,-129,-200,-957
-277,-47,-30,-30,56,-38,-93,-70,242,-701
-410,-138,-122,-237,-270,-306,-154,54,1133,235
-326,-394,-395,-375,-489,-171,-171,114,1567,1107
-243,-492,-521,-445,-510,125,-42,157,1311,1229
-31,-233,-271,-247,-300,57,166,161,34,540
64,73,55,38,-27,10,353,148,-883,-648
42,217,231,200,100,119,391,48,-1299,-1244
124,294,332,188,120,155,239,-87,-1194,-869
172,276,331,84,138,77,37,-73,-612,-263
134,92,138,108,158,74,5,41,-22,161
187,-179,-114,154,78,37,14,107,216,887
287,-261,-225,205,46,-39,-83,46,336,1421
352,-162,-170,189,26,-130,-261,-135,14,1131
282,-82,-43,44,-25,-147,-360,-190,-164,508
-41,-71,-85,-170,-77,-108,-350,-68,17,-286
-302,-16,-92,-148,-12,0,-301,40,-91,-1043
-472,194,166,-52,125,149,-73,211,46,-942
-390,341,333,2,197,152,292,204,-12,-373
-90,158,84,-28,81,-28,318,36,-279,126
19,27,-176,-91,-58,-187,105,-67,-151,361
22,158,-50,-5,-11,-129,43,-15,182,189
34,414,225,211,94,-18,7,-75,18,-588
-72,428,312,280,131,58,-135,-129,-263,-1101
-294,220,235,187,143,157,-183,-41,-237,-927
-362,-40,-19,4,79,92,-182,93,-44,-330
-344,-184,-96,-122,34,-79,-176,171,187,62
-366,-302,-127,-188,49,-179,-32,188,261,132
-275,-362,-217,-170,-24,-158,140,138,299,0
-79,-287,-229,-108,-107,-108,236,63,310,-164
3,-196,-210,-45,-141,-132,-22,109,521,1
-86,-160,-283,-69,-140,-43,-140,219,745,389
18,177,-80,-94,14,123,-43,209,783,887
292,197,65,-88,13,97,95,133,351,691
440,-52,-101,-159,-129,10,264,-43,-264,149
471,-40,-79,-79,-118,-81,200,-156,-629,-11
386,110,169,171,78,8,142,-241,-1004,-341
275,232,423,363,216,129,158,-257,-999,-319
-65,66,295,215,60,46,97,-108,-409,-181
-352,-7,30,-48,-88,-58,65,-6,165,78
-228,2,-30,-137,-144,-92,9,-104,96,636
38,-69,-57,-109,-170,-100,-61,-225,-228,886
163,-37,-38,-50,-72,-58,-72,-174,-20,939
158,-87,-118,-88,-67,-71,-133,-100,325,752
4,-188,-219,-232,-175,-99,-153,36,578,166
-233,-272,-269,-284,-196,-59,-58,322,691,-458
-336,-217,-167,-153,-62,31,23,449,409,-820
-135,-44,32,32,90,88,75,413,-24,-211
96,96,166,219,228,157,62,160,-455,269
97,126,193,238,242,191,-1,-56,-178,352
6,38,78,134,151,97,-103,-189,-45,175
-142,-38,7,66,98,74,-114,-283,-426,-485
-149,-118,-98,-38,42,57,-97,-191,-533,-893
78,-131,-210,-190,-40,-52,-198,-144,-238,-484
258,10,-196,-330,-135,-120,-278,-126,145,100
309,162,-79,-295,-145,-76,-243,-75,296,90
409,132,-62,-83,-61,-7,-41,-60,-42,-153
371,269,107,79,76,87,252,-11,-182,-148
-7,177,139,52,104,149,298,212,115,-142
-292,82,288,156,118,159,234,378,207,-154
-409,66,564,497,178,122,151,181,-201,-443
-427,8,376,410,97,15,35,27,21,-406
-348,-6,132,117,4,-115,-109,-76,557,106
-188,-217,-139,-32,-122,-229,-243,-280,374,525
-133,-251,-202,-94,-188,-202,-191,-199,241,361
-57,-175,-149,-64,-140,-61,-22,16,-39,-198
309,28,-5,49,-41,56,44,-25,-648,-283
533,75,13,94,23,125,49,-54,-588,154
446,-109,-141,-55,-77,48,-30,58,226,435
291,-190,-230,-205,-197,-134,-147,129,867,384
-43,-201,-223,-184,-169,-156,-94,251,861,-58
-565,-244,-176,-57,-9,-12,39,322,535,-457
-520,-136,-44,85,119,64,72,158,4,-172
-27,-45,-38,51,87,38,-45,-187,-643,409
370,-22,-113,-53,30,43,-188,-425,-1075,783
441,1,-115,-77,34,-19,-230,-462,-764,970
273,53,-34,-56,54,-145,-190,-331,-185,832
161,538,394,138,191,-88,9,-148,178,493
291,794,649,299,257,124,165,-89,57,-88
144,404,382,259,139,251,216,31,-85,-741
-322,55,135,134,-2,138,254,202,206,-1065
-523,-140,4,66,1,32,222,189,148,-659
-373,-194,-65,47,45,-17,146,87,-27,226
-129,-198,-148,-65,-39,-74,49,26,102,693
-70,-82,-106,-95,-30,-80,29,-2,333,378
-235,-108,-86,-31,38,-48,39,25,225,-690
-311,-150,-88,-4,69,19,83,118,-5,-1579
-152,-44,-7,-46,122,87,130,129,-309,-1192
86,54,47,-119,142,87,118,37,-360,-229
209,-8,-71,-167,-31,-67,-43,-51,48,552
267,-67,-165,-69,-221,-204,-188,-43,401,849
348,-5,-113,94,-232,-204,-212,-23,429,912
356,218,142,126,-105,-43,-31,135,366,660
80,105,132,191,123,158,68,116,-181,-135
-180,-45,42,97,190,209,46,49,-669,-738
-314,-99,17,-24,116,171,29,100,-713,-1041
-256,-111,-39,17,81,275,24,50,-601,-1059
-22,-40,7,53,43,508,-43,-222,-480,-651
138,-6,0,-23,-61,353,-108,-314,-131,-269
59,18,-21,-124,-96,-32,-40,-55,575,-53
-81,-210,-258,-289,-222,-302,18,190,1097,422
-22,-348,-314,-358,-337,-312,41,259,1081,898
14,-291,-228,-324,-330,-350,-34,306,1106,1274
-29,-216,-127,-183,-162,-303,-76,81,174,1046
190,-35,24,12,59,-185,-85,-247,-770,406
418,152,183,188,221,11,65,-287,-979,-215
244,260,303,302,340,207,249,-125,-859,-561
-121,233,208,195,288,244,282,0,-483,-627
-189,244,-18,-28,72,72,97,-15,-107,-182
14,339,-131,-214,-164,-167,-243,-96,178,661
167,170,-238,-321,-286,-315,-482,-67,296,1228
220,21,-158,-193,-182,-199,-465,-14,123,898
23,-94,-49,-15,6,-20,-338,65,-37,85
-168,-89,122,223,255,176,-141,-57,-343,-849
-174,250,502,393,374,292,254,-97,-285,-1284
-128,347,506,270,188,108,217,-104,-198,-990
-107,-31,96,88,-33,-118,-355,-102,-159,-399
3,-159,-107,-105,-194,-144,-585,11,327,197
69,-126,-174,-165,-171,-28,-473,151,557,379
7,-49,-144,-17,182,205,-132,160,328,24
-82,-14,-184,-74,369,303,443,58,-13,-552
36,150,-144,-199,285,161,1059,76,-58,-526
113,266,80,-93,144,-4,711,143,35,55
129,-96,-138,-56,-27,-84,59,98,-140,388
236,-199,-326,-145,-5,1,-176,108,-194,519
166,-192,-249,-137,60,21,-236,155,-76,425
-160,-243,-79,96,-29,-70,-172,205,375,190
-307,-220,67,317,-187,-199,-3,128,524,137
-157,-79,116,293,-260,-159,228,-30,382,51
-47,79,125,155,-137,-41,250,-197,102,3
-36,36,98,111,-39,-170,103,-299,-226,319
87,19,152,56,-73,-333,-17,-325,-438,555
423,126,179,6,-108,-332,-144,-399,-693,533
530,112,62,-69,-178,-292,-165,-293,-433,370
299,21,-37,-144,-218,-222,-160,-101,107,7
-81,-160,-147,-204,-170,-7,-153,-7,544,12
-372,-278,-234,-279,-163,138,-150,65,887,358
-498,-31,50,-115,8,172,-37,165,826,273
-332,209,380,292,217,199,122,260,270,201
-206,74,259,430,94,66,129,372,508,87
-139,-121,-23,143,-136,50,39,293,988,378
-40,-174,-136,-101,-306,-122,-38,99,736,903
-53,-186,-155,-198,-373,-250,8,108,341,616
-27,0,34,8,-99,-27,205,223,-479,-471
-86,236,322,344,314,248,340,237,-794,-1443
-148,255,311,432,390,318,270,42,-980,-2064
-73,168,122,308,243,243,106,-160,-696,-1722
44,61,35,84,-8,44,-90,-317,-176,-668
53,-52,-30,-44,-115,-33,-85,-350,-275,-182
11,-83,-56,5,13,52,78,-214,-624,-253
105,-6,10,89,124,94,156,-63,-640,-151
137,88,69,40,88,38,127,96,-150,72
7,278,253,-1,73,42,145,227,538,-23
-222,46,53,-9,23,33,104,255,549,-553
-372,-177,-115,-45,-34,-3,7,130,89,-683
-253,-109,-46,27,18,70,-3,7,-349,-371
-11,37,76,112,76,116,-22,-112,-469,-118
-21,61,88,85,64,79,-44,-206,-357,0
-80,-41,-73,-75,-72,-89,-102,-163,-54,105
-48,-25,-165,-260,-192,-228,-137,-80,289,551
6,-137,-201,-260,-201,-207,-126,-29,22,597
106,-70,-72,-48,-11,-1,-35,-37,-518,213
208,131,64,69,78,109,18,-26,-541,20
280,179,13,-30,-27,42,-40,-19,-207,297
237,76,-83,-138,-134,-21,-162,-63,118,554
82,-7,-86,-83,-70,33,-208,-25,86,292
-13,34,12,16,59,96,-221,-10,13,166
180,68,-33,-19,35,-42,-374,-81,227,295
355,-87,-293,-155,-95,-179,-484,-138,349,443
308,-204,-426,-221,-149,-168,-337,-129,258,730
260,-199,-372,-190,-141,-80,21,48,196,729
181,-54,-191,-62,-57,44,352,233,126,155
2,77,44,57,63,142,552,299,24,-628
-165,126,108,82,120,240,499,315,101,-925
-72,454,316,96,173,241,382,211,394,-304
36,387,120,-51,128,83,218,53,547,860
-40,-216,-415,-351,-34,-133,-28,-35,479,1462
-72,-363,-462,-402,-151,-19,-35,14,533,1337
-62,-319,-397,-207,-198,332,98,127,536,1017
-9,-168,-103,75,-107,338,204,216,297,122
188,61,295,294,44,116,249,165,123,-621
-102,-42,310,191,11,-140,99,34,393,-677
-223,-67,202,-26,-84,-333,-193,-141,450,-215
52,21,131,-77,-65,-397,-444,-264,-37,129
162,135,220,85,136,-143,-378,-227,-762,119
7,219,320,265,331,146,7,-57,-1391,-626
-146,141,236,205,294,195,90,58,-1115,-976
-197,3,98,99,209,110,-109,6,-673,-1076
-202,-21,102,31,92,57,-202,-57,-370,-980
-129,65,170,87,68,57,-274,-166,-255,-884
-162,-47,-5,60,-6,-13,-298,-181,-236,-720
-161,-118,-25,62,-13,-24,-47,-87,-276,-452
-106,-100,-9,56,11,-17,286,-15,-214,-166
-13,-78,-29,-27,-55,-90,244,53,41,443
65,-89,-65,-115,-121,-105,80,143,229,930
265,-53,-132,-209,-198,-105,36,185,258,1041
398,99,-84,-270,-215,-105,17,236,352,784
251,277,197,-145,-47,-41,67,291,499,193
-77,-33,55,-10,43,-28,102,263,209,-607
-169,-178,-55,31,-6,-61,90,165,9,-789
-110,-244,-167,-111,-144,-118,49,107,216,-148
-62,-279,-260,-196,-181,-147,-20,-58,272,287
-87,-194,-166,-68,-32,-36,-56,-254,-18,85
-85,-55,-12,62,129,72,-36,-264,-66,168
-24,217,219,54,172,108,43,-38,219,309
172,228,174,38,97,64,85,126,487,54
340,140,-9,-80,-6,85,116,173,647,8
411,70,-156,-284,-136,126,122,74,477,507
490,33,-200,-295,-212,18,4,-44,156,743
489,54,-60,4,60,54,-44,-129,-383,265
290,116,177,291,276,56,-62,-194,-711,72
-73,254,368,331,186,-62,-75,-204,-546,-138
-445,402,443,195,64,-81,19,-49,143,-466
-506,38,122,77,-58,-98,62,165,574,-366
-366,-195,-158,-11,-130,-95,36,225,836,10
2,-253,-333,-125,-176,-28,-79,73,821,430
254,-176,-184,-63,-30,169,-116,-73,214,529
298,-68,-34,72,188,196,-110,-135,-278,462
401,51,49,119,242,17,-213,-180,-608,246
519,409,289,142,204,-123,-377,-224,-603,45
295,219,107,86,77,-139,-464,-240,-793,-204
-91,-38,-34,57,18,-108,-382,-180,-827,-108
-262,-107,42,85,0,-82,-288,-43,-694,386
-318,-213,-55,50,-8,140,-95,85,-391,697
-350,-332,-194,-72,-81,106,290,107,63,328
-248,-285,-177,-117,-131,-34,460,71,247,-281
-193,-103,-25,-58,-131,-98,159,84,287,-780
-263,-48,48,47,-58,-41,-55,58,182,-1033
-327,-100,-5,119,64,159,81,10,-2,-1088
-52,-47,20,69,38,127,288,24,-22,-803
363,80,-15,-53,0,-40,306,-76,-120,-6
460,138,-196,-161,178,-137,85,-131,112,1257
254,203,-336,-162,297,-119,-59,-79,494,1425
-81,111,-310,-155,151,-121,-84,-29,495,584
-380,63,-18,-128,21,-48,2,51,297,-103
-515,-45,48,-47,-4,113,142,121,-173,-799
-385,-186,-35,38,-31,176,188,95,-477,-1126
-414,-247,-118,64,-115,119,157,163,-45,-1234
-391,-220,-62,32,-199,31,31,113,81,-1529
-199,-78,58,44,-192,-1,-68,-4,-9,-1207
-45,-47,48,32,-143,-14,-96,-29,20,-223
-28,58,159,75,3,76,-6,4,12,344
18,203,319,209,188,214,105,9,-87,250
228,77,134,146,114,93,81,-123,-279,472
442,127,106,73,63,-42,33,-283,-555,479
436,135,136,106,129,-14,-37,-255,-616,380
258,25,90,107,141,83,-45,-157,-517,422
96,-99,-46,-8,-18,40,21,-63,-184,449
-127,-94,-51,-38,-95,-6,140,112,145,72
-556,-94,-7,-33,-72,54,208,251,449,-414
-678,-253,-141,-90,-118,41,187,361,802,-226
-560,-298,-198,-146,-175,-66,127,435,898,311
-475,-270,-177,-176,-228,-156,31,357,515,264
-304,-118,-36,-78,-160,-97,-9,149,-8,-20
-13,42,64,-20,-111,-64,-71,-23,31,98
132,8,-11,-114,-177,-58,-45,37,362,81
64,83,57,-133,-116,69,145,165,403,-166
220,297,236,-67,12,166,239,231,252,8
718,211,138,38,40,87,131,111,-442,140
1019,363,185,181,134,55,11,-117,-668,329
814,318,140,98,120,-49,-227,-339,-553,1014
462,105,-69,-103,113,-149,-393,-455,-410,1048
268,99,-100,-143,68,-166,-422,-414,-237,230
140,235,19,-78,18,-109,-345,-274,-19,-434
39,365,165,-149,51,-93,-253,-93,478,-221
-116,28,81,-95,42,-174,-267,-128,231,-3
-198,-177,-69,43,-51,-219,-159,-245,-128,-28
-187,-258,-251,66,-164,-179,-28,-198,-56,62
-124,-219,-202,129,-63,-78,-56,-84,92,106
-117,-118,-49,170,65,24,-98,-89,-43,-71
-121,-162,-50,-71,-67,3,-155,-109,-176,-25
132,117,103,-237,-129,-14,-50,-52,-158,97
308,447,354,-32,74,233,232,32,-120,-123
51,7,71,50,31,241,319,138,-119,-427
-165,-208,-103,0,-43,143,296,221,118,-508
-391,-335,-214,-19,-6,96,224,205,248,-644
-480,-352,-228,-21,52,167,196,191,95,-756
-340,-268,-178,11,94,501,205,145,-179,-621
-31,-93,-51,42,76,500,76,44,-129,-128
175,84,94,29,28,76,-41,91,619,734
125,-38,-18,-9,-51,-240,-95,143,972,1230
-45,-113,-87,-90,-156,-233,-106,85,776,946
-29,111,6,-49,-137,-162,-26,-117,-281,98
108,330,123,-115,-89,-53,166,-79,-969,-673
134,295,14,-310,-87,24,175,135,-738,-785
79,131,-150,-205,176,175,96,195,-500,-41
102,58,-316,-151,384,267,55,147,-249,770
286,-40,-498,-380,278,248,-31,163,47,1246
314,-62,-288,-321,280,235,-304,85,207,1013
107,74,267,335,277,24,-630,-152,384,590
-3,107,579,861,71,-182,-845,-391,437,714
-116,18,548,752,-66,-79,-891,-456,103,346
-276,-122,399,339,-224,-193,-763,-441,-14,-354
-333,-125,255,70,-185,-223,9,-203,-195,-892
-167,297,497,146,70,-104,907,31,-399,-1652
101,295,365,232,118,-151,664,126,-44,-1305
240,75,116,210,23,-244,263,98,221,-611
62,-85,-86,28,-133,-218,149,106,263,-518
-182,-225,-246,-141,-245,-143,106,152,292,-558
-162,-87,-92,-94,-171,-62,23,61,-87,-657
-181,35,-61,-7,16,112,19,-15,-482,-824
-299,107,-58,-69,112,199,-24,63,-132,-492
-266,56,-52,-135,110,163,-158,101,255,32
-148,-141,-190,-214,-20,8,-193,146,355,179
46,-161,-208,-156,-67,-47,50,193,208,445
164,-130,-168,17,-35,-17,258,153,41,871
209,-92,-31,86,-98,-109,352,39,439,1102
124,-95,44,118,-100,-228,282,-38,720,653
-137,-95,70,45,-151,-286,87,-97,579,-67
-347,-153,-34,-130,-264,-280,-109,-130,319,-220
-52,-318,-316,-277,-338,-313,-311,-206,308,1066
311,-453,-571,-485,-563,-542,-499,-221,673,2777
213,-502,-506,-415,-521,-455,-354,12,904,2555
64,-282,-199,-82,-159,-25,73,288,418,1036
151,178,258,321,277,341,394,259,-721,-829
116,513,548,558,523,526,487,92,-1344,-2310
-158,678,433,387,404,445,404,-36,-1162,-2360
-62,781,315,119,186,273,306,-77,-620,-968
143,380,94,51,83,196,224,-101,-788,52
252,168,87,135,168,237,184,-164,-821,232
225,-15,23,107,145,169,-32,-159,-424,-42
227,-84,-23,42,50,16,-346,15,-252,-253
137,21,125,151,138,70,-394,200,-314,-968
-340,76,324,300,328,270,-183,336,-309,-1802
-588,30,313,223,315,364,62,329,53,-1398
-271,-199,-40,20,134,259,126,124,166,-436
66,-210,-137,-103,26,158,45,-92,186,290
97,-199,-163,-148,-27,69,-85,-141,206,582
-53,-150,-121,-102,8,55,27,-37,53,280
-225,-153,-116,-108,-82,-77,-15,-83,-136,-174
-392,-255,-198,-172,-239,-234,-201,-183,-195,-114
-325,-14,43,-85,-131,-135,-138,-167,-118,-106
-84,271,268,39,10,-25,-64,-182,-135,-58
256,117,94,105,33,-23,21,-155,-219,619
650,54,-1,42,-12,-72,187,-158,-150,1434
813,-92,-220,-267,-194,-256,92,-147,272,1908
732,-232,-398,-530,-397,-451,-180,-102,642,1978
392,-208,-337,-361,-344,-386,-200,31,757,1210
-147,-153,-193,-49,-153,-210,-45,239,1042,423
-462,-57,-111,-8,-147,-142,-25,218,1128,68
-403,-163,-204,-37,-182,138,0,170,577,-714
-149,-111,-128,-105,-147,272,99,196,353,-706
-87,-178,-193,-354,-223,-29,123,208,375,-53
-104,-233,-287,-467,-285,-243,157,290,654,307
86,-64,-182,-293,-152,-103,239,333,589,379
390,231,110,31,58,15,114,69,-265,368
225,520,494,445,396,241,8,-336,-1184,-118
31,490,488,585,454,232,-109,-556,-1611,-456
-106,321,251,466,295,83,-136,-453,-1384,-365
-293,232,186,352,250,33,-24,-137,-732,-709
-416,145,251,309,281,114,102,82,-182,-1251
-386,87,238,306,315,188,57,-36,-241,-1597
-233,6,34,193,212,83,-77,-208,-143,-1095
-125,-13,-14,36,87,-18,-130,-231,41,-10
-18,233,125,-53,87,55,-64,-128,222,501
310,146,-86,-96,28,126,-114,-122,-173,365
514,8,-192,-105,-2,94,-170,-115,-511,-167
135,70,121,32,56,87,-84,-29,-537,-919
-186,125,321,180,99,57,23,54,-556,-1158
-232,-38,127,182,249,22,25,52,-324,-628
-283,-128,-6,79,303,39,41,89,-46,-316
-173,102,92,-63,102,-33,122,190,436,-266
-109,-8,-34,-119,-28,-79,58,163,572,-338
-256,-322,-267,-117,1,-111,-79,24,285,-456
-224,-379,-314,-157,-108,-215,-175,10,374,-18
-114,-389,-343,-221,-312,-375,-350,83,786,977
-3,-406,-441,-310,-444,-442,-483,154,1186,2274
153,-406,-537,-443,-529,-407,-622,94,1423,2996
309,-239,-336,-402,-491,-315,-733,-129,899,2129
273,-69,-133,-272,-323,-82,-515,-263,68,299
265,108,91,33,-3,214,39,-263,-1103,-1628
191,190,217,165,150,385,496,-48,-1157,-2136
254,217,248,140,119,301,571,153,-594,-930
394,312,291,186,91,171,643,195,-313,19
321,326,287,168,30,44,385,171,-37,-48
29,231,153,16,-99,-25,55,155,188,-288
-127,234,78,-146,-156,-92,-191,93,663,393
-64,224,44,-156,40,-41,-309,75,764,1123
-145,-128,-273,-225,146,0,-197,-9,205,1121
27,-23,-240,-138,214,12,358,-150,-531,595
199,148,-109,-57,239,11,580,-151,-722,18
59,196,245,110,280,77,338,-111,-725,-752
-244,79,422,369,203,21,188,-54,-579,-1102
-168,58,307,497,22,-83,57,-38,-171,-90
2,34,73,211,-166,-88,15,51,465,928
-70,-261,-308,-87,-218,18,66,163,471,894
-300,-293,-244,-73,-78,129,123,259,328,423
-580,-213,26,144,82,195,117,286,86,-474
-546,-91,168,296,200,235,-10,285,-230,-1193
-372,-99,87,171,132,147,-288,185,-306,-1061
-232,-162,-62,-112,-57,10,-269,38,-162,-710
-62,69,71,-181,-19,-11,-53,-3,193,-410
60,226,200,-77,80,-10,33,28,382,-216
159,16,56,-1,3,-100,150,-107,-190,-92
206,78,170,150,0,-130,307,-141,-387,-126
187,94,143,199,14,-150,211,-54,-240,-307
185,-4,10,-32,15,-169,11,-31,-192,-45
134,-43,-50,-131,77,-93,-45,-30,-219,75
12,19,-41,35,137,-4,-8,-4,-13,56
31,105,-36,144,90,-5,-3,0,344,326
117,-69,-147,184,-2,-27,22,-93,211,449
51,-91,-71,128,-35,-16,-55,-220,59,520
-13,-188,-83,-95,-109,-23,-208,-214,228,635
-25,-270,-180,-366,-216,-113,-310,-113,591,888
119,-209,-172,-353,-263,-194,-370,-69,496,1150
212,-136,-144,-248,-278,-144,-259,7,143,712
45,55,49,-66,-123,65,143,84,-250,-491
55,188,222,96,-3,167,401,-24,-413,-1162
-72,84,160,48,-42,105,289,-59,20,-1199
-57,45,91,-20,-92,24,96,41,548,-680
85,58,65,2,-31,50,57,24,471,251
-45,-94,-49,50,151,59,0,-92,77,970
-192,-237,-192,-76,71,-76,-81,-72,-56,872
-129,-203,-222,-186,7,-123,-88,1,23,337
-11,-5,-99,-249,-2,-79,-45,-5,65,-40
102,-17,-139,-207,32,0,38,-18,-333,-68
353,40,-141,-127,64,41,85,35,-310,943
397,-1,-223,-184,-14,-8,28,81,-28,1699
362,95,-127,-104,-11,23,20,64,71,1147
309,213,137,98,59,65,42,93,168,200
76,250,465,268,180,149,118,117,-60,-888
-289,405,772,346,341,291,253,187,-74,-1934
-388,226,485,293,244,189,158,58,-85,-1581
-273,-72,19,149,51,-4,-61,-183,-65,-678
-192,-211,-196,49,-49,-85,-160,-278,-122,-343
-136,-184,-237,-8,-79,-77,-110,-170,-175,-161
63,-51,-203,-63,-101,-94,-122,-145,-200,285
369,125,-91,-51,-96,9,-102,-115,-312,364
242,169,1,-20,-29,436,98,31,-201,10
-217,31,43,24,56,562,259,155,-179,-463
-452,-174,27,42,68,239,265,222,-49,-569
-436,-291,-49,-61,-17,-50,239,293,409,-472
-419,-417,-218,-196,-118,-138,106,275,790,-212
-515,-494,-336,-207,-42,-61,-99,195,483,-331
-469,-384,-258,-83,92,103,-271,108,189,-636
-112,-47,-10,123,242,151,-340,-50,-130,-510
211,406,354,241,323,97,-259,-166,-217,139
276,384,289,113,68,-180,-289,-122,-145,439
269,-69,-190,-140,-287,-297,-336,-95,-209,678
415,-134,-336,-300,-371,-260,-133,-117,128,1205
689,25,-163,-241,-187,-336,188,-135,-11,1369
730,194,72,8,193,-226,280,-169,-389,725
529,268,184,118,322,-95,130,-190,-362,-93
284,338,239,57,258,38,122,-97,19,-526
310,362,242,-13,83,-7,71,-82,194,-61
317,39,-4,6,-73,-167,-73,-45,43,610
264,-53,-85,48,-148,-187,-77,34,-76,762
100,-27,-62,81,-176,-85,-31,23,-296,195
-252,-32,40,103,-110,0,59,103,-291,-667
-509,-91,0,75,-54,41,137,190,-168,-950
-458,-158,-104,-47,-74,57,148,185,2,-596
-218,109,70,-59,-33,42,146,31,42,-328
-71,107,-8,-14,-83,-40,46,-29,103,-230
-190,-198,-249,9,-147,-52,-59,38,244,-248
-232,-77,-182,-28,-65,13,-74,47,257,-110
-211,26,-167,-146,-95,-17,-142,59,287,238
-119,68,-105,-63,-131,0,-182,136,160,525
161,60,-17,41,-121,39,-120,205,-75,1087
391,73,116,27,-65,-8,139,287,36,1569
437,87,154,-24,30,-54,388,484,318,1221
413,-31,-9,-4,75,-59,262,462,200,818
252,-121,-24,7,117,0,55,238,-69,259
54,-84,84,30,143,70,-41,-35,-430,-610
-259,8,188,174,171,119,-89,-300,-647,-1051
-604,-66,143,212,139,164,-139,-546,-616,-1345
-702,-173,25,166,74,186,-81,-480,-441,-1448
-444,-98,25,83,-33,78,-7,-241,-181,-1149
-146,-36,20,18,-116,-9,28,-86,-42,-811
56,-20,-16,-68,-187,-28,61,-7,206,-259
212,-14,-163,-236,-338,-77,60,29,542,375
242,-46,-262,-330,-362,-86,31,-13,522,680
102,-87,-148,-130,-24,28,36,-130,169,311
-129,-43,59,138,200,108,67,-149,-203,-293
-222,108,261,212,210,70,-24,-57,-288,-358
-202,314,414,106,232,120,-41,51,-70,-292
-119,60,110,-122,141,69,-115,46,20,-266
29,-67,-85,-172,56,-22,-174,31,64,74
62,-8,-100,94,119,38,-127,37,-167,-218
5,98,-56,338,175,155,11,38,-359,-708
-55,67,-18,267,46,101,72,61,202,-346
-132,-83,-151,-4,-93,43,15,78,821,151
-171,-28,-76,-261,-154,40,-180,-44,840,221
-144,-81,-59,-186,-91,37,-247,-104,151,-81
-1,-2,80,76,98,68,-175,-39,-212,21
72,29,143,203,171,98,-134,11,-13,325
-25,-102,4,134,66,-13,-70,12,-8,252
-57,-179,-148,20,-35,-110,186,13,-78,20
47,-128,-158,-57,-71,-170,300,13,-160,11
276,126,85,15,30,-136,85,-92,-287,373
307,198,151,69,84,-100,-62,-228,-299,438
247,79,63,15,21,-125,-182,-275,-324,362
294,-4,-26,-95,-99,-184,-291,-286,-383,602
242,-122,-166,-217,-216,-202,-306,-169,-292,868
209,-166,-203,-257,-253,-151,-170,-7,8,808
231,-5,-32,-85,-81,26,61,18,-103,138
-38,64,83,19,49,110,158,121,81,-353
-437,222,146,-42,80,110,246,343,788,-253
-555,169,-18,-67,47,54,174,294,687,-391
-444,-78,-173,-56,-19,-5,76,221,247,-424
-230,-69,-73,-47,-18,-24,27,75,32,-3
20,-77,-93,-115,-100,-125,-116,-176,-6,609
56,-234,-279,-279,-254,-221,-185,-131,139,770
50,-247,-316,-304,-264,-176,-89,7,173,709
134,-92,-158,-278,-252,-148,-39,16,300,627
215,-41,-179,-344,-333,-191,-69,91,545,310
184,-177,-385,-389,-375,-233,-110,202,664,202
60,-161,-278,-253,-204,-182,-63,193,585,153
52,137,271,319,337,188,194,121,-214,-670
43,396,606,761,729,483,412,-11,-890,-1373
1,327,495,691,617,415,341,-223,-1260,-1142
-47,177,311,415,367,285,215,-196,-906,-468
-64,247,331,172,213,178,120,-109,-199,153
-20,133,158,-10,60,45,5,-103,183,515
65,-93,-135,-142,-111,-63,-82,-80,136,523
98,-92,-179,-182,-112,-49,-45,6,-11,428
105,-26,-207,-147,80,21,20,27,-220,121
89,82,-89,-30,176,70,66,25,-82,-335
14,6,14,113,174,35,-23,55,208,-578
-28,66,249,203,183,7,-156,-84,-26,-568
-21,170,515,222,115,81,-199,-256,-414,-537
-22,-41,309,119,-62,45,-317,-246,-360,-426
-265,-161,71,69,-119,60,-317,-85,-122,-533
-255,-158,-16,128,-55,99,-215,-61,-183,-438
-14,-109,-33,121,-38,83,-62,-71,-240,-49
130,-122,-93,-7,-79,0,17,-18,-177,170
190,-97,-144,-104,-112,-124,237,48,65,284
30,-110,-181,-136,-77,-149,407,241,463,165
8,-102,-154,-53,-26,-95,224,241,410,9
170,58,22,46,-7,-78,35,75,110,-9
142,7,11,-29,-107,-141,-24,88,145,41
35,-161,-120,-142,-207,-108,24,222,461,395
54,-102,-38,-98,-168,-58,90,240,463,588
-6,-29,51,-32,-114,-54,95,188,324,499
-65,137,197,79,29,23,95,108,115,125
0,398,436,224,211,147,120,-21,-157,-296
43,116,232,208,142,123,58,-105,-425,-457
252,16,93,107,17,30,-48,-146,-323,20
482,79,48,19,-57,-45,-125,-197,-313,391
553,81,0,-78,-154,-105,-143,-189,-337,538
603,143,0,-149,-211,-119,-167,-188,-257,591
322,169,-72,-112,-52,-82,-166,-134,-54,560
-180,294,-121,-153,83,-63,-162,-13,288,678
-686,18,-373,-327,56,-6,-164,94,245,82
-793,-95,-415,-333,141,98,-66,120,57,-750
-400,-71,-214,-78,279,130,54,-9,-114,-435
-3,-42,-67,182,331,364,238,-93,-203,-140
77,-23,44,328,258,733,392,-69,-122,-310
-86,-76,147,369,125,651,386,42,166,-368
-241,-67,207,352,-51,42,257,140,607,-438
-342,-138,64,96,-206,-423,60,154,786,-357
-402,-276,-146,-204,-230,-446,-146,154,468,-78
-227,-186,-179,-246,-108,-392,-280,123,-123,116
74,48,60,-90,23,-296,-348,79,-542,29
107,66,67,-193,-27,-164,-231,142,-369,-247
41,-3,-86,-290,-60,131,-73,132,-345,-393
85,0,-27,-134,-114,97,-142,-66,-399,-332
187,191,362,142,-160,-157,-350,-271,-99,-75
125,95,255,229,-167,-207,-416,-284,57,1
25,-128,8,84,-182,-155,-325,-104,190,35
26,-205,-78,-45,-92,-68,-5,91,475,241
62,-203,-147,-74,-34,-68,267,102,492,427
-4,-183,-142,-99,-58,-113,221,129,256,265
-197,-199,-143,-134,-68,-92,122,199,163,-214
-278,-17,21,-80,31,-11,104,113,83,-855
-77,41,-19,-39,88,7,71,-25,79,-452
-25,-193,-282,-171,-51,-79,21,43,367,431
13,-161,-168,-155,-66,-47,89,70,89,667
331,175,157,113,99,68,102,-133,-490,333
420,352,343,304,151,68,11,-314,-723,-100
-69,179,283,333,108,85,58,-215,-644,-524
-445,32,205,240,126,173,169,-27,-306,-577
-314,182,295,171,170,215,177,-26,-102,-264
-114,62,91,123,98,144,81,-22,-121,-104
-89,-78,-126,-18,9,51,-3,44,280,88
-87,-169,-205,-187,-87,-39,-61,68,647,269
0,-171,-239,-268,-164,-102,-145,34,544,435
98,-118,-242,-219,-150,-92,-147,-25,151,388
206,-55,-202,-112,-99,-46,-34,-41,-147,164
346,245,0,19,18,25,128,-36,-112,252
459,524,187,64,141,89,157,-45,82,739
435,211,-20,51,187,44,39,-45,-112,709
248,24,-22,62,187,-6,-39,-53,-123,305
7,-82,28,6,65,-66,-105,-66,-129,-93
-12,-129,43,-41,-47,-56,-68,-3,-242,-201
53,-86,91,91,-43,-13,-32,-1,-346,-259
0,47,239,317,127,114,50,-12,-255,-412
-31,134,272,340,191,150,73,-17,-4,-382
-128,-81,34,159,3,15,-49,-43,314,-220
-330,-191,-130,-52,-120,-28,-127,5,418,-339
-406,-299,-273,-222,-199,-86,-177,117,359,-272
-68,-290,-310,-258,-248,-121,-203,133,374,596
317,-188,-267,-230,-267,-137,-238,46,264,1415
526,-53,-168,-104,-166,-105,-311,-150,-67,1467
493,183,25,-64,-62,-66,-227,-230,-6,1247
-7,352,318,22,58,119,135,-99,4,258
-421,48,218,148,106,235,127,17,-390,-856
-516,-18,126,191,114,221,32,90,-378,-1334
-393,-38,39,103,38,139,115,96,-104,-965
-252,-106,-121,-9,-33,39,194,55,-4,-537
-108,-145,-181,-66,-28,-39,275,114,77,-81
154,15,-38,-33,-19,-58,341,129,105,630
311,159,169,-18,-54,-81,304,87,254,1148
261,-13,18,-44,-106,-137,104,20,191,1166
242,-3,-15,-22,-87,-154,-18,-102,-96,827
166,90,88,110,64,-56,-40,-213,-596,-118
12,118,146,207,239,118,71,-167,-715,-1235
-148,188,236,258,289,257,215,5,-471,-1762
-226,243,310,247,214,253,249,85,-326,-1648
-215,207,266,94,45,126,185,111,-64,-1138
-172,45,71,-19,-9,84,111,84,103,-629
-137,-88,-118,-40,62,46,38,16,47,-235
19,-126,-271,-108,30,-34,-12,29,146,207
149,-147,-359,-162,-33,-59,-53,51,318,482
137,-210,-393,-266,-116,-72,-72,140,602,728
48,-222,-347,-261,-136,-90,-78,158,630,628
52,-29,-33,-107,-63,-70,-77,71,335,218
124,284,387,-60,-58,-93,-87,-18,215,-6
-78,45,281,-106,-148,-183,-121,-51,18,-520
-269,-129,112,-23,-118,-117,-82,-81,-291,-1111
-295,-55,81,109,15,40,25,-82,-485,-1163
-193,2,86,205,171,146,97,-52,-547,-657
-84,9,125,224,313,206,75,-81,-482,-255
-33,-44,75,80,262,159,-24,-129,-303,47
52,97,156,83,183,99,-28,-106,22,208
119,47,76,236,127,12,-79,-40,129,396
62,-87,-75,276,47,-57,-119,37,139,571
-108,-5,-78,189,-29,-65,-105,42,159,595
-229,106,-70,47,-81,-38,-88,-21,50,557
-187,191,-111,-205,-155,-64,-132,-112,-40,475
21,185,-144,-306,-193,-83,-148,-152,-1,155
110,51,-137,-260,-161,-90,-119,-132,137,117
94,6,-50,-214,-84,-48,-31,-53,285,410
161,-256,-206,-200,-101,-55,-23,-10,261,1237
284,-347,-376,-335,-221,-147,-99,-18,544,2650
315,-357,-458,-393,-163,-151,-101,-31,754,2649
277,-371,-529,-386,-47,-113,-12,81,825,1684
241,-171,-323,-186,80,133,138,155,243,-96
1,140,141,199,370,496,347,155,-574,-2769
-355,328,307,257,428,521,359,261,-73,-3235
-253,342,216,43,191,156,95,178,206,-1780
314,126,1,-58,-98,-153,-203,-60,-304,-363
610,128,-26,-102,-206,-166,-186,-72,-351,253
395,20,-123,-126,-239,-107,-26,136,98,583
-168,-94,45,82,-235,-134,57,255,456,409
-593,-132,173,191,-193,-96,68,227,396,-249
-582,-116,37,48,-207,-121,8,203,438,-319
-360,19,144,76,-77,-63,29,147,-68,-385
-53,186,303,249,150,71,64,-3,-651,-458
149,250,287,198,156,109,-30,-84,-538,-155
246,195,144,42,68,60,-146,-81,-270,50
69,110,-24,-50,147,114,-94,-43,-345,-258
-178,-17,-245,-178,185,210,10,58,-433,-481
-229,-29,-254,-289,173,225,22,91,-432,-531
24,204,-113,-508,151,178,52,106,-42,-19
336,194,-225,-796,-40,66,3,60,441,1067
131,-338,-461,-738,-341,0,-224,-37,952,1733
-138,-556,-282,-156,-444,-151,-268,-106,1221,1971
28,-375,67,579,-319,-464,-210,-212,794,1797
297,28,389,971,-2,-488,-199,-255,-219,954
363,211,455,761,149,-167,-230,-230,-798,60
247,149,264,303,-28,-60,-405,-237,-318,145
196,103,84,28,-196,-56,-627,-262,110,164
125,-177,-200,-64,-230,-47,-644,-251,-83,97
-16,-187,-141,-58,-175,-110,-350,-112,-289,-513
-160,-92,-45,-18,-123,-108,51,95,-316,-1437
8,97,121,98,-20,-45,319,164,-350,-1493
206,287,299,257,120,76,593,122,-699,-1393
-42,220,317,300,163,144,811,91,-802,-1661
-267,180,305,264,150,178,679,45,-651,-1485
-386,126,238,255,198,262,453,28,-560,-1302
-161,150,121,229,251,234,270,37,-274,-845
51,107,-30,195,380,134,116,48,172,-233
-37,-36,-119,81,360,79,66,35,333,111
-226,-113,-56,17,222,121,202,-3,-15,-67
-278,-96,30,41,128,99,253,-84,-368,-248
-272,47,127,66,78,32,194,-66,-283,-163
-295,256,196,-29,-5,-36,156,43,265,308
-281,-187,-204,-278,-292,-271,-22,169,852,895
-1,-366,-395,-370,-409,-370,-121,226,1322,1426
305,-150,-232,-262,-295,-282,-108,165,1236,1479
303,-54,-147,-190,-196,-165,-71,98,601,812
167,5,-21,-44,-27,25,16,-2,-277,-423
31,38,66,30,29,75,40,-160,-636,-812
-11,248,200,15,2,5,-1,-269,-280,-306
-113,88,56,-48,-37,-37,-44,-151,86,-4
-166,-146,-168,-145,-120,-37,-18,100,298,143
236,-8,-146,-168,-221,-125,-100,66,353,1039
438,-2,-170,-214,-286,-220,-195,-19,242,1381
52,-129,-239,-113,-99,-91,-95,65,117,699
-185,-97,-121,129,174,146,108,148,-102,-70
-70,135,110,268,306,258,149,116,-108,-646
-78,84,57,63,108,29,-11,101,451,-640
-82,-162,-131,-143,-110,-237,-179,-18,201,-259
215,0,23,-67,-48,-168,-193,-189,-400,376
412,167,192,88,218,102,-46,-167,-839,1060
362,165,221,170,446,273,23,-250,-1055,908
275,0,50,-5,218,200,-87,-327,-748,664
164,-127,-105,-213,-70,117,-138,-302,-496,726
-140,-58,-40,-253,-71,108,-52,-209,-531,158
-468,-118,-35,-275,4,-1,88,85,-123,-896
-613,-330,-220,-201,-84,-83,187,434,371,-1501
-405,-131,-71,100,-76,117,248,566,458,-1179
88,153,123,345,-61,164,209,441,271,-732
574,231,122,359,-56,51,74,43,-291,88
620,141,79,218,-37,-1,11,-113,-375,539
447,109,42,-31,-53,-55,-1,-97,-14,159
444,238,103,-111,51,-69,-106,-208,107,-419
146,126,18,-95,75,-77,-225,-127,222,-469
-202,6,0,-75,19,-42,-318,-61,392,-187
-218,-50,118,-15,-22,131,-352,-25,645,483
-73,-38,158,100,-12,353,-403,-100,624,1298
6,-47,11,-39,-131,283,-338,-220,320,1485
-78,-196,-223,-254,-232,24,17,-134,193,946
-73,-71,-232,-294,-209,-205,219,63,590,385
17,-32,-126,-209,-173,-298,137,163,702,7
-64,-324,-192,-52,-57,-376,-162,193,466,44
-262,-437,-334,-118,-32,-444,-416,231,245,382
-426,-342,-386,-210,-36,-348,-464,319,-403,89
-484,-33,-245,-125,78,34,-220,308,-895,-364
-398,317,-59,42,243,552,318,111,-785,-841
-222,575,149,210,440,695,729,-68,-410,-1409
7,570,299,246,423,369,477,-142,-188,-1454
199,252,330,307,324,91,388,-98,-333,-1110
281,169,355,394,304,104,419,12,12,-641
154,67,456,499,218,-2,330,187,593,-375
-157,-140,375,384,4,-243,271,343,993,-462
-305,-271,12,14,-189,-345,114,383,990,-423
122,-31,-83,-198,-222,-230,-63,19,333,-69
228,66,-57,-289,-223,-153,-153,-303,-176,-108
-68,-348,-343,-483,-362,-184,-228,-334,-144,11
-148,-671,-666,-645,-569,-361,-342,-307,233,902
-85,-530,-551,-328,-421,-367,-295,-286,-248,1069
41,-162,-97,90,-98,-142,-111,-264,-683,916
-44,-78,16,105,-86,-90,-51,-139,216,853
-136,-56,-72,-29,-188,-104,-35,3,1111,590
-154,132,-15,-33,-100,2,28,144,598,-226
-114,355,314,130,129,196,9,93,-414,-610
-162,192,239,217,330,396,125,125,-968,-736
-97,99,96,153,359,445,135,90,-935,-752
80,121,95,135,274,338,-90,-166,-1076,-886
217,-77,-163,-24,84,36,-301,-256,-463,128
273,-331,-359,-330,-131,-347,-345,-310,-44,893
201,-332,-362,-458,-349,-512,-371,-416,-54,565
121,37,83,-124,-208,-293,-436,-510,-444,266
-107,226,451,460,195,193,45,-328,-618,170
-549,82,348,535,273,374,627,298,739,-83
-728,-193,-24,165,2,200,711,808,1715,-218
-550,-291,-193,-118,-155,40,531,906,1256,-258
-284,-173,-93,-105,-18,41,385,675,-157,-556
144,169,176,116,238,201,349,362,-1453,-1070
463,446,377,163,276,218,234,92,-1104,-1107
460,465,387,159,386,186,93,-229,-626,-642
299,309,281,229,612,258,59,-373,-439,-453
197,333,312,244,637,294,38,-401,-385,-465
41,162,123,53,340,154,-60,-383,-386,-216
-7,9,-35,-87,14,23,-107,-295,-333,175
-153,-80,-23,-37,-61,-46,-178,-289,-332,145
-296,-137,10,13,-56,-117,-196,-170,-258,-28
-266,151,276,88,9,-51,-57,-9,-1,-17
-98,240,303,162,-58,-7,-29,3,-36,192
-96,-45,50,185,-204,-8,-81,57,-176,217
-31,-43,58,161,-215,51,-20,86,-142,221
159,-1,74,81,-272,-6,-10,-34,88,480
282,29,30,11,-304,6,-36,-129,356,759
248,-78,-88,-83,-267,69,-110,-103,409,865
17,-246,-275,-296,-313,-15,-144,91,768,765
-58,-278,-341,-429,-295,-98,-139,152,753,531
234,-228,-373,-492,-224,-110,-171,160,643,824
646,2,-168,-413,-326,-263,-224,220,604,1552
651,230,64,-31,-216,-158,-35,17,69,1283
485,290,127,377,151,59,62,-240,-617,420
351,250,155,439,269,82,0,-263,-837,-389
76,65,81,179,77,-72,-125,-241,-223,-683
-53,64,-60,-204,-228,-404,-306,-252,1123,653
-161,-265,-435,-596,-554,-758,-532,-175,2087,1581
-258,-606,-633,-646,-657,-811,-545,-30,1480,995
-141,-323,-333,-331,-353,-450,-259,44,85,17
14,194,185,212,217,133,123,-73,-1646,-818
-107,379,456,533,594,528,399,-95,-1960,-1195
-65,301,434,491,570,541,429,62,-795,-882
228,392,485,415,470,394,239,-9,-250,-687
139,363,458,340,388,295,123,-90,-299,-825
-191,122,245,256,336,252,139,19,-332,-1453
-200,0,78,94,188,129,79,60,-123,-1093
-178,-59,-57,-57,22,37,8,25,-18,-276
-101,-70,-117,-127,-86,4,-3,33,12,215
10,-62,-87,-82,-110,24,16,77,85,207
-44,-33,19,93,28,129,40,125,159,-304
-207,5,77,202,207,204,48,117,115,-861
-217,-89,-113,21,90,75,-110,45,125,-869
-47,-175,-345,-224,-123,-87,-274,12,123,-168
70,-223,-432,-310,-223,-111,-304,22,291,352
67,-230,-366,-272,-178,-60,-175,44,501,359
265,-110,-109,-86,7,-53,-42,27,305,346
319,-47,53,40,139,-84,22,46,82,654
268,88,152,17,118,-92,24,-104,-30,979
317,259,224,-94,-8,-103,-134,-244,82,1278
306,93,-30,-148,-155,-193,-248,-200,-100,1054
209,44,-86,-147,-184,-148,-90,-20,-80,485
205,131,-62,-130,15,0,151,40,-138,-211
302,171,-71,-193,273,37,223,14,-190,-265
33,20,-139,-169,288,128,282,212,-84,-490
-371,-128,-67,66,172,196,320,328,-13,-991
-323,53,122,90,10,159,245,264,145,-804
-269,-64,-89,-138,-125,90,171,236,122,-455
-410,-183,-156,-238,-68,151,257,302,129,-121
-356,-226,-184,-192,-49,313,282,283,154,-16
-175,-230,-165,-75,-144,452,209,178,105,-64
-77,-180,46,156,-200,252,147,122,-5,-58
-40,-64,151,315,-149,-65,26,-30,-140,-145
-140,207,288,386,-65,-259,-101,-178,-86,-439
-203,282,165,373,37,-262,-141,-118,146,-389
-151,72,-137,296,102,-275,-294,-115,-219,-20
-42,-134,-293,31,28,-320,-445,-158,-110,1198
39,-400,-480,-363,-253,-466,-477,-87,485,2407
75,-471,-480,-443,-395,-480,-466,27,879,2431
35,-338,-171,-301,-309,-246,-395,46,771,1816
-64,-77,274,-49,-62,92,-232,-26,188,689
-113,445,668,246,244,304,131,-13,-43,-937
-179,345,410,306,273,298,296,82,-111,-1756
-212,-8,61,205,164,151,23,117,-130,-1620
-137,-85,-32,82,59,-26,-99,104,-13,-1449
-94,-200,-164,-57,-74,-181,113,106,13,-1187
-67,-227,-178,-102,-91,-225,184,129,10,-733
23,-166,-114,-68,-23,-141,-137,173,20,2
44,-4,5,-13,67,-33,-225,214,-139,20
0,27,1,10,119,4,-104,259,90,-359
13,0,-44,-16,91,79,-51,174,223,-295
29,15,-7,8,110,272,62,22,-42,-126
-94,32,79,145,193,375,569,-14,-422,-802
-40,86,124,237,179,279,877,-199,-459,-745
78,52,68,177,49,3,397,-423,-207,-68
71,-30,48,40,-61,-271,-35,-358,-99,381
110,134,195,-47,-52,-330,-253,-202,-8,574
178,99,90,-66,-28,-281,-394,-187,-309,398
29,-61,-62,-47,-13,-154,-365,-34,-483,-189
-173,-72,-41,-5,11,6,-192,271,-136,-496
-141,-157,-144,-105,-120,39,-174,433,593,-47
59,-209,-256,-227,-213,62,-93,340,811,391
193,-186,-343,-250,-198,-6,137,113,561,778
66,-4,-139,-184,-68,17,315,-10,397,664
-159,5,3,-90,47,82,264,-11,221,61
-173,-34,6,53,126,56,133,-108,208,-221
-17,141,190,224,266,43,87,-219,15,-124
96,229,262,262,296,128,80,-313,-610,103
152,211,179,187,156,172,68,-190,-451,433
186,102,34,63,-45,8,3,21,214,1114
214,-51,-204,-199,-298,-235,-187,0,355,1689
204,-82,-254,-451,-385,-331,-301,-157,-214,1589
196,-22,-172,-383,-247,-177,-272,-344,-1062,907
218,189,106,43,34,69,-105,-395,-1282,114
227,287,219,391,214,228,172,-169,-492,-316
321,256,188,419,217,255,347,173,314,-228
431,202,177,291,114,125,177,258,508,41
263,120,200,134,-33,-33,-45,26,171,-34
24,200,240,-117,-122,-42,-93,-174,296,-393
-292,162,85,-324,-219,-6,-102,-174,369,-691
-591,-302,-438,-439,-398,-7,-39,-72,-339,-1163
-408,-221,-327,-227,-209,92,140,-33,-1135,-1283
52,132,147,162,141,204,243,-45,-1321,-925
311,263,280,207,172,221,271,134,-290,-290
230,118,208,76,81,200,393,395,573,-65
102,55,192,-22,30,107,338,418,671,129
57,280,282,26,193,126,202,233,366,-111
-56,91,81,41,199,122,138,124,-76,-575
-395,-107,-47,-21,110,40,147,182,-126,-1008
-234,-13,-33,-20,16,-131,19,11,-332,-1047
265,137,44,-41,-44,-153,-86,-158,-337,-526
164,64,77,43,13,-3,-33,-124,-259,-301
-279,-46,91,163,-4,39,42,-16,-228,-371
-408,88,195,256,109,71,91,42,-25,-352
-401,-35,58,197,228,49,-13,-31,56,-116
-264,-299,-186,-23,102,-81,-181,-104,286,496
-78,-315,-287,-246,-116,-217,-285,-129,669,845
-98,-348,-389,-342,-238,-292,-291,-28,927,1022
-229,-350,-341,-276,-241,-313,-255,-14,536,984
-327,-232,-76,-10,-127,-209,-179,-67,-172,371
-78,2,174,195,14,-57,-81,-66,-462,240
216,287,407,211,91,76,-10,-3,-412,538
257,168,182,132,77,83,-25,124,-349,56
92,-150,-140,-22,-39,-15,-73,287,148,-141
-42,-345,-330,-236,-187,-30,-150,385,814,195
-7,-330,-360,-235,-181,45,-183,295,1043,143
9,-168,-139,18,7,121,-85,85,650,-254
10,66,56,179,121,151,83,-88,50,-636
120,318,184,205,129,146,97,-198,-197,-512
385,346,137,125,35,80,125,-233,-433,238
621,197,-130,-78,-56,-1,264,-144,-217,1488
625,91,-248,-234,-80,-72,138,-78,0,1816
467,93,-110,-222,-49,-83,-18,-128,-16,1031
82,-2,-15,-210,-21,-85,-15,10,211,-189
-245,-149,-135,-240,5,-55,76,363,437,-942
-427,-183,-99,-198,43,30,205,693,658,-999
-260,173,337,-69,52,13,195,570,530,-593
-96,133,326,265,114,31,135,239,-80,-279
0,53,263,644,406,90,34,-190,-399,-314
28,74,237,636,508,91,-58,-446,-326,-294
-92,36,146,394,355,87,-96,-541,-586,-323
-121,111,141,202,241,155,-104,-552,-1079,-609
-165,84,99,101,97,129,-160,-462,-985,-644
-267,146,150,7,-49,12,-188,-343,-466,-323
-380,-23,110,-107,-217,-127,-252,-205,28,38
-189,-224,-102,-192,-310,-197,-211,-119,456,497
31,-330,-286,-300,-364,-225,-28,-4,1009,1242
-156,-488,-417,-378,-363,-236,89,218,1504,1321
-168,-400,-383,-333,-268,-122,140,264,1223,825
-185,-360,-362,-248,-216,-13,71,234,695,-22
-264,-307,-390,-159,-260,-92,-66,288,111,-522
39,34,-293,-93,-235,-210,-207,242,-182,67
522,309,-250,-214,-152,-132,-174,185,-151,1071
726,443,-115,-179,10,53,-24,155,86,1764
520,307,-70,47,56,81,84,59,510,1170
-13,80,104,312,44,85,88,-126,-58,-464
-429,23,287,525,127,192,158,-212,-1126,-1638
-116,321,478,544,190,258,181,-254,-1799,-1813
306,661,556,195,78,97,33,-314,-1140,-992
245,519,352,-101,123,-26,-97,-272,-218,-167
-7,57,155,-35,258,-22,-125,-187,-214,-265
-232,-82,178,10,227,0,-59,-85,-309,-514
-170,-117,72,-68,143,235,-36,-113,-407,-156
6,-168,-131,-142,108,558,-73,-109,-211,368
10,-257,-263,-165,21,290,-156,-6,507,541
-215,-276,-226,-145,-37,-177,-167,194,1328,406
-274,-187,-92,-89,-71,-432,-173,274,1368,376
-105,-262,-153,-36,-173,-331,-165,199,487,435
143,-10,95,171,22,47,-18,14,-818,307
425,260,341,352,178,154,84,-181,-1342,482
393,159,198,170,-6,-101,0,-231,-864,782
105,22,5,-1,-126,-194,-33,-149,-649,59
-309,-17,21,28,-40,-22,122,76,-477,-1022
-473,64,174,21,0,73,321,222,105,-710
-502,-145,-12,-19,-18,22,345,344,530,-500
-269,-337,-283,-77,9,-80,107,375,775,-182
168,-233,-316,-163,-48,-164,-88,199,662,276
373,-41,-186,-143,-41,-53,-186,-15,310,487
367,194,84,59,171,143,-183,-160,-428,-23
53,148,71,101,243,147,-305,-211,-704,-715
-372,32,55,0,218,150,-395,-101,-237,-1187
-542,216,243,-48,201,90,-401,-7,248,-1232
-324,73,81,-35,71,-157,-332,118,44,-882
-151,-115,-106,-45,-24,-187,-174,241,-255,-429
-276,-241,-205,-72,-91,-115,-4,278,-135,-26
-278,-309,-242,-124,-259,-232,211,302,362,554
-92,-237,-213,-179,-372,-272,362,219,719,795
46,-241,-277,-285,-377,-78,396,167,969,1004
254,-89,-188,-234,-266,-115,187,32,1045,1304
414,51,-63,-98,-127,-167,61,-154,574,1122
306,59,-19,-46,-51,-91,94,-106,293,570
116,34,-35,-13,13,10,173,52,-33,-154
38,130,61,54,68,110,204,-30,-492,-584
82,179,89,52,74,114,71,-319,-803,-74
62,29,-78,-95,-24,6,-69,-361,-696,246
140,14,-132,-183,-97,-70,-106,-261,-220,223
211,373,234,0,49,40,37,-139,190,281
37,201,229,195,138,123,178,68,239,-83
-141,-21,22,176,136,136,233,212,336,-710
-113,52,90,166,204,194,222,129,-135,-929
59,72,52,18,107,90,32,2,-619,-605
305,103,-28,-132,-13,-1,-91,-77,-744,-229
448,142,-53,-227,-42,5,-80,-92,-424,368
293,297,58,-283,-28,61,21,56,872,644
91,85,-105,-250,-68,23,20,142,1680,293
-13,-100,-127,-70,-106,-28,1,157,1538,72
-84,-75,26,90,-40,8,53,200,906,-125
-96,-45,89,134,61,147,183,313,447,-445
-227,-118,117,117,98,182,195,220,-251,-800
-391,-156,139,216,123,145,90,-39,-1214,-1269
-295,103,344,440,320,267,51,-318,-2227,-1676
-141,294,420,518,389,365,-74,-461,-2092,-1130
36,175,222,410,205,276,-261,-442,-1269,-40
309,115,135,187,56,85,-465,-473,-758,630
561,29,-24,-133,-87,-147,-704,-500,-227,1272
659,-25,-137,-326,-302,-255,-581,-356,40,1539
361,-50,-98,-227,-244,-112,-59,-100,-27,865
-239,-190,-4,-45,71,121,350,49,-142,44
-370,-60,301,141,160,148,267,35,83,438
-134,107,384,201,18,-54,280,34,256,822
-11,-96,30,97,14,-182,170,-22,163,405
-138,-268,-191,41,89,-96,-117,-75,153,-157
-315,-233,-202,46,40,74,-50,-1,46,-937
-302,-187,-186,47,-33,120,51,77,36,-830
-98,-135,-167,27,-77,10,109,89,11,-360
46,6,-116,-143,-91,-3,233,154,388,-140
62,144,-28,-319,-30,31,189,231,768,28
20,18,-114,-151,107,56,33,234,538,47
-84,-49,-92,160,177,-25,-90,202,175,-18
-114,-54,26,336,87,-135,-191,39,-151,-42
-147,-162,-4,64,-90,-87,-136,-62,-208,150
-211,-284,-4,-177,-196,-41,-51,-68,-201,28
-130,-242,-17,-171,-253,-150,31,-79,-312,-16
93,-119,-54,-235,-305,-290,34,-117,-192,519
207,-87,-157,-209,-295,-364,-76,-120,-18,941
96,47,-157,-62,-202,-276,-61,46,202,641
106,254,-72,81,-96,-168,-5,120,195,-75
167,271,2,141,-93,-152,-97,0,34,-518
26,15,-56,-38,-226,-172,-183,62,289,-399
-18,-161,-208,-197,-336,8,-175,141,594,122
289,-8,-77,-205,-306,394,-71,121,587,706
372,337,206,-152,-111,431,134,93,574,583
-62,231,216,-3,104,238,476,192,242,-312
-304,-54,119,207,294,176,672,274,-232,-897
-274,-62,105,284,381,189,676,393,-103,-995
-358,-161,-141,153,377,36,450,519,156,-1059
-356,-215,-302,39,372,-57,112,435,111,-887
-211,-202,-277,-42,161,-100,-16,327,133,-385
43,-59,-129,-65,-11,-114,-12,241,382,329
205,-117,-224,-155,-181,-202,-108,70,904,1057
274,-182,-308,-218,-309,-338,-329,-352,672,1423
329,-59,-160,-101,-261,-265,-333,-562,-371,891
266,68,-53,-18,-147,-153,-191,-454,-790,278
237,179,91,81,-42,-121,-131,-428,-806,459
280,188,286,98,-21,-116,-113,-421,-562,742
314,200,511,66,-27,-26,-63,-300,-181,849
240,351,709,126,60,110,76,-72,-89,466
-64,196,410,208,171,210,194,46,-356,-667
-326,3,77,97,114,168,177,138,141,-993
-325,-141,-117,-97,-46,27,80,207,736,-884
-90,-131,-183,-152,-128,-100,-46,142,685,-767
77,-34,-60,-22,-69,-98,-80,98,105,-608
15,155,206,271,166,75,53,149,-490,-734
-312,119,228,187,143,140,103,245,88,-532
-552,-366,-291,-200,-175,-61,-38,325,969,40
-574,-686,-651,-477,-417,-321,-216,358,1608,835
-340,-661,-644,-544,-508,-511,-343,356,1547,1477
125,-291,-287,-277,-313,-415,-288,188,541,1719
586,205,146,82,19,-110,-85,0,-427,1311
682,365,292,214,171,94,55,-57,-989,551
335,335,283,200,201,142,28,-163,-544,117
18,232,121,114,119,93,-76,-313,-353,-465
-44,72,-23,99,93,47,-171,-452,-996,-1124
-4,64,66,170,240,255,-1,-374,-1272,-1398
-64,20,41,91,239,354,192,-94,-671,-1054
-125,24,21,4,146,191,180,72,-23,-871
-164,23,-28,-50,14,91,88,104,62,-756
-127,108,15,-65,-20,77,68,69,-231,-742
81,482,382,87,220,166,92,-80,-459,-502
249,507,539,385,446,195,32,-257,-698,-242
151,172,369,553,451,133,-64,-336,-969,-360
71,40,162,375,233,42,-108,-265,-698,-128
1,-117,-80,48,-44,-41,-128,-172,-328,700
51,-195,-232,-132,-188,-72,-145,-161,-199,1345
96,-248,-329,-209,-244,-92,-127,-89,119,1346
0,-188,-216,-263,-250,-122,-53,151,905,979
-137,-117,-126,-196,-143,-89,66,387,1257,-121
-157,-171,-134,-55,-14,-33,124,423,1129,-470
-154,25,46,81,80,56,108,186,606,-470
-76,67,32,55,31,51,-17,-86,16,-404
145,49,-35,-15,-17,0,-158,-282,-467,-175
102,-45,-137,-182,-78,22,-149,-251,-392,-157
58,-62,-253,-413,-64,156,-64,-193,98,-83
26,19,-249,-460,27,235,-47,-177,531,14
-72,-208,-459,-442,6,142,-139,-48,660,127
64,-168,-516,-213,120,208,-228,85,115,-80
167,87,-192,290,348,388,-221,157,-830,-668
64,252,252,568,316,348,-281,149,-1219,-887
-95,224,505,469,121,204,-560,26,-1135,-752
-194,106,606,426,124,97,-498,-118,-917,-574
-168,192,685,481,125,-16,-41,-154,-593,-537
-239,224,589,228,-24,-117,299,-140,-41,-410
-280,-30,189,-130,-192,-251,449,-96,254,-27
-252,-352,-245,-354,-308,-393,504,83,446,393
-89,-316,-249,-311,-232,-319,437,166,487,567
207,-95,-119,-228,-122,-189,211,70,299,868
464,41,-88,-243,-87,-123,101,37,118,1499
451,62,-156,-238,-79,-75,11,5,-103,1437
109,44,-94,-167,-51,31,32,34,-60,578
-185,2,34,-5,21,202,128,116,92,-482
-148,166,301,265,172,279,255,52,-108,-984
-235,83,205,182,116,139,243,-12,-239,-797
-313,-124,-58,-67,-44,-60,20,-31,-128,-314
-90,-174,-215,-204,-37,-52,10,7,-19,64
109,-136,-164,-93,19,0,99,97,76,413
-38,-26,160,206,39,-55,68,124,202,435
-123,185,424,400,128,-35,93,71,251,156
10,-2,136,282,-17,-65,26,-46,143,166
120,-146,-102,22,-231,-176,-118,-243,81,434
166,-110,-92,-79,-267,-183,-129,-181,100,395
229,-26,-48,-116,-257,-159,-75,-33,120,309
211,-27,-53,-5,-19,-53,-8,66,107,-152
174,-12,-59,88,175,16,18,99,226,-307
520,269,188,28,80,-65,-59,6,316,540
639,235,13,0,-24,-175,-154,-63,85,672
301,270,-95,26,51,-136,-92,-43,4,-10
59,308,3,30,111,18,22,-9,114,-480
-217,114,-13,-20,38,318,138,64,314,-712
-721,-189,-64,-23,-52,507,221,149,536,-834
-891,-377,-142,-27,-110,224,200,209,650,-379
-497,-252,-105,-83,-100,-98,161,193,699,369
-74,-201,-155,-205,-219,-252,24,154,1025,1369
7,-401,-403,-431,-459,-385,-285,112,1478,2154
-59,-614,-691,-688,-665,-651,-630,128,1801,2149
107,-463,-540,-530,-464,-580,-587,122,728,897
322,30,32,56,123,-75,-179,2,-1121,-734
295,428,476,526,576,335,181,-88,-2002,-1354
165,556,570,585,669,393,329,-19,-1515,-772
178,794,628,416,562,296,300,-41,-448,-25
-3,471,312,204,289,139,106,-195,-472,-179
-64,55,-103,-4,1,-70,-93,-316,-598,-441
171,-60,-213,-208,-215,-247,-185,-262,-354,-293
-37,-236,-212,-255,-247,-201,-79,13,162,-497
-460,-291,-116,-22,0,57,165,249,289,-1023
-516,-126,127,239,215,228,240,272,254,-1037
-347,156,287,245,259,239,167,149,374,-781
-50,256,264,177,200,169,53,-34,113,-617
87,68,74,108,86,98,-27,-127,-462,-778
176,102,115,145,133,55,-33,-270,-939,-650
172,49,66,160,183,-89,1,-255,-858,-117
43,-33,-18,111,180,-174,13,-104,-435,165
-119,-53,-41,87,139,-107,-38,42,45,87
-276,-139,-91,5,-50,-123,-209,77,265,0
-200,-145,-184,-84,-205,-115,-325,8,-23,233
-120,-119,-268,-38,-112,282,-118,66,-538,236
-33,-78,-169,4,-30,400,55,73,-766,338
39,-167,-214,-131,-162,55,150,53,-160,1228
50,-251,-335,-272,-292,-134,219,41,237,1875
72,-197,-294,-246,-265,-203,178,16,159,1477
3,-62,-177,-131,-166,-175,106,85,218,303
-51,325,202,129,92,101,247,153,230,-1241
-51,658,643,289,274,373,444,161,410,-1751
-79,360,523,153,161,386,434,111,434,-1310
22,-29,243,24,106,341,292,-36,121,-517
190,-112,-7,-63,52,123,62,-195,60,337
470,-57,-181,-130,-72,-190,-263,-357,-197,980
587,-74,-254,-158,-221,-466,-542,-339,-137,1197
395,-140,-280,-197,-306,-531,-507,-132,243,1009
97,-70,-157,-131,-200,-226,-234,47,298,555
-47,-38,-36,50,5,38,26,35,73,-57
-205,-53,31,177,140,89,159,95,140,-646
-333,-164,-76,68,46,-3,121,241,468,-594
-315,-140,-65,8,-19,-34,44,191,118,-621
-104,3,68,88,69,42,23,36,-444,-648
164,74,73,116,103,65,-3,-90,-638,-70
229,211,173,47,87,66,5,-145,-439,126
318,306,184,-41,30,30,-10,-98,-57,-86
349,45,-14,-44,-16,-9,-53,-36,-114,-457
153,29,28,41,60,76,11,29,-191,-571
-150,-54,-26,8,47,89,-42,78,-114,-305
-367,-105,-52,-72,42,89,-203,19,-227,-88
-416,-136,-76,-184,34,68,-364,-44,-209,-11
-353,-122,-134,-159,-78,-41,-488,-144,81,132
-116,68,-114,-67,-180,-127,-521,-294,454,457
208,-72,-330,-132,-330,-246,-488,-306,462,724
303,-35,-301,-166,-247,-127,-15,-54,594,683
196,54,-100,-114,2,165,730,244,563,312
297,203,147,-185,77,150,660,204,336,154
220,185,237,-212,31,43,295,124,130,-43
-151,-18,69,-48,56,63,230,219,22,-316
-322,-67,45,103,114,35,179,136,32,-266
-428,-115,38,205,37,-47,75,3,-66,-329
-376,-88,65,301,-22,-57,39,-71,-461,-392
-51,87,224,261,78,-9,49,-150,-790,-327
69,98,170,93,127,-6,45,-142,-668,-124
29,-34,55,75,79,-33,3,-160,-442,-32
48,-98,5,125,101,-27,-62,-209,-344,94
65,-80,-46,54,123,-23,-102,-151,-65,463
156,152,124,28,19,-65,-98,-48,377,803
199,108,32,144,-107,-111,-107,-4,420,805
363,71,-80,130,-115,-60,-68,18,203,680
546,171,-31,11,-75,2,-31,19,183,327
116,-2,-142,-89,-70,47,63,176,461,-184
-499,-341,-291,-191,-142,-41,28,321,547,-388
-343,-347,-346,-252,-196,-189,-137,246,330,-176
70,16,-48,-145,-18,-83,-77,244,59,86
42,49,70,33,157,91,44,267,-87,84
-68,-36,-11,120,230,143,93,129,-298,-290
-33,-31,0,105,246,148,134,17,-449,-563
94,-11,39,107,206,111,64,-47,-326,-520
68,-29,181,98,53,41,-15,-71,-120,-393
-73,-148,128,45,-99,33,-42,-38,315,22
19,-64,98,3,-147,28,-32,-22,558,484
30,-9,88,-13,-111,-20,-31,-24,726,513
-129,-213,-66,-102,-154,-140,-143,-17,786,549
-149,-219,-61,-123,-162,-197,-233,-146,306,933
-5,-67,-37,-73,-116,-175,-250,-295,-121,1016
252,162,72,-23,-73,-117,-212,-300,-506,611
380,424,227,64,21,23,-80,-209,-899,-136
108,477,246,123,112,148,63,-12,-588,-483
-44,553,392,161,206,224,139,69,217,-73
-140,525,469,126,218,214,150,80,736,-116
-304,10,46,11,70,70,62,109,577,-516
-376,-387,-377,-125,-95,-49,-1,165,177,-757
-137,-257,-290,-121,-121,-8,-7,150,-248,-772
237,-29,-47,-83,-110,44,-67,28,-485,-135
376,33,-18,-117,-112,156,-57,-4,-299,442
343,68,-53,-104,-9,337,-60,-21,-54,754
348,150,89,-5,169,407,-105,-61,73,917
86,-4,20,60,258,224,-111,15,245,360
-319,-201,-84,77,211,14,-62,118,398,-374
-391,-248,-176,18,73,-152,-167,106,411,-737
-301,-204,-141,35,-14,-221,-257,-18,-39,-877
-296,-122,17,163,12,-183,-152,-100,-552,-870
-233,-88,19,87,9,-101,-48,-77,-490,-376
-83,184,182,44,33,-46,178,-76,-105,254
-36,309,267,82,58,-86,415,-82,93,233
-146,-93,-37,7,-29,-141,341,36,-37,-248
-239,-191,-124,-30,-39,-70,237,127,-80,-570
-186,-170,-183,-37,-36,-60,155,131,111,-400
-8,-111,-203,-99,-91,-122,34,52,357,158
195,-13,-161,-132,-142,-180,-65,-31,275,432
304,122,-52,-132,-149,-206,-115,-74,55,224
281,231,153,-27,-12,-47,-7,-7,-16,-15
218,75,94,68,67,92,108,86,70,48
90,64,149,164,139,181,229,18,-39,-118
-99,24,110,155,130,217,254,-75,-69,-268
-115,-80,-92,-18,-55,138,136,-212,-77,6
119,-193,-289,-274,-312,-107,-61,-218,143,717
408,-200,-284,-358,-388,-253,-193,-70,189,917
357,-116,-150,-260,-282,-219,-206,129,166,403
-11,-181,-143,-161,-128,-57,-98,243,188,-17
-211,-216,-134,-57,53,63,-16,212,-114,-336
-238,-71,16,106,206,121,65,200,-460,-728
-165,45,141,202,255,148,77,71,-837,-596
-128,117,242,284,311,230,107,-48,-1206,-498
-289,59,153,249,253,208,113,-5,-736,-607
-291,81,111,92,101,87,-14,-56,51,-302
-214,251,257,18,50,36,-88,-169,535,265
-110,-7,-14,-83,-99,-68,-185,-206,558,537
14,-157,-264,-197,-201,-180,-301,-223,442,474
78,-110,-293,-267,-113,-190,-306,-231,208,522
73,-66,-260,-330,-77,-165,-192,-121,143,733
38,-51,-181,-188,-53,-74,35,44,56,304
19,-31,-19,14,26,154,184,136,26,-202
223,289,362,170,143,239,126,127,259,248
465,418,518,387,336,243,121,8,-529,407
396,281,322,344,323,89,64,-37,-688,167
335,134,53,-26,56,-150,-132,-211,-629,30
280,-1,-172,-229,-77,-56,-223,-303,-558,55
132,-40,-209,-187,-89,224,-124,-112,-274,-482
-83,-5,30,-20,-33,477,39,33,-141,-980
-248,59,210,76,27,319,132,57,-38,-968
-343,47,127,30,3,36,245,156,212,-774
-353,-95,5,60,-2,-63,248,228,179,-776
-234,-145,1,150,-32,-79,156,207,27,-599
-192,-145,1,143,-92,-215,20,112,-96,-266
-207,-202,-129,-20,-138,-308,1,142,114,259
57,-257,-283,-229,-259,-372,-79,175,598,967
306,-196,-224,-264,-326,-389,-201,82,669,966
307,224,119,-110,-122,-217,-78,44,572,646
206,609,430,96,140,76,163,178,501,185
81,445,345,185,236,205,155,112,95,-427
-82,140,162,123,249,208,9,-104,-247,-817
-130,-47,-59,-112,89,85,-111,-192,-297,-522
-79,-86,-134,-283,-52,32,-148,-191,-256,-135
-61,-94,-159,-287,-99,27,-97,-118,-53,91
-9,-128,-195,-163,-81,-45,66,36,242,269
32,-82,-57,119,36,-33,260,116,408,266
44,-76,88,318,76,-8,185,107,403,269
68,-133,115,386,50,-39,-10,21,147,376
63,-178,25,276,5,-47,-48,4,-189,303
138,-139,-105,132,-33,-29,-67,3,-283,243
269,-13,-43,106,-12,-60,-163,-199,-379,149
136,33,69,104,31,-124,-197,-249,-316,9
-85,169,160,58,53,-199,-126,-116,50,50
-168,118,72,-15,-8,-234,-46,63,323,12
-309,-153,-64,-60,-75,-171,27,181,336,-283
-245,-96,-19,-41,-104,-41,-26,25,78,-223
-64,5,15,-19,-144,36,-57,-86,-254,-157
57,38,55,52,-16,196,61,-23,-399,-231
79,-93,-3,93,212,263,148,8,-317,-262
65,-62,10,16,196,58,78,-5,-24,-50
-36,-28,15,-32,76,-26,-30,-27,219,134
-153,-247,-162,11,-48,-34,-167,-106,71,76
-195,-196,-164,41,-62,-35,-173,-92,-57,-44
-121,-34,-161,-2,-61,22,-124,-55,-151,-26
10,92,-179,-81,-80,128,-76,-35,-122,198
57,208,-31,-61,-69,136,37,32,-59,150
96,213,101,8,5,64,167,12,-58,176
242,100,25,-52,22,15,164,4,59,565
322,-152,-141,-180,-93,-98,76,61,367,1055
259,-245,-246,-300,-212,-203,4,101,749,1402
129,-261,-330,-429,-363,-311,-122,98,956,1532
90,-186,-293,-454,-391,-303,-166,62,801,1287
43,-89,-180,-328,-265,-152,-46,56,458,783
110,32,-94,-122,-81,13,110,9,-165,437
162,238,231,124,99,129,161,-118,-629,267
-42,421,463,272,229,191,224,-188,-661,-17
-200,62,186,275,178,222,249,-155,-651,-619
-285,-116,69,244,120,180,195,-79,-575,-1451
-341,-83,103,256,146,100,43,60,-405,-1775
-322,-97,90,235,185,16,-106,140,47,-1315
-259,-99,84,223,226,29,-113,183,289,-949
-27,49,146,183,191,94,-22,213,385,-500
117,353,315,160,175,160,102,184,326,-116
-81,75,131,81,76,141,73,188,0,-288
-330,-203,-57,-6,-18,138,-37,139,-171,-548
-242,-133,-48,-35,-51,113,-127,37,-396,-794
-33,20,-33,-91,-125,18,-258,-45,-467,-643
-155,-59,-112,-75,-43,13,-343,-129,-532,-551
-199,-149,-149,-4,92,47,-305,-182,-560,-565
-77,-159,-80,-28,88,-50,-105,-116,-270,-96
-38,-165,-55,30,21,-136,143,-28,-19,384
0,-111,-31,225,3,-134,37,-9,118,660
40,-14,16,238,22,-43,15,45,176,540
174,70,27,109,56,41,181,65,78,90
362,105,15,-7,47,10,256,48,23,-93
357,-22,-38,-93,-8,-107,108,-22,32,161
322,-60,-49,-235,-20,-146,-22,-100,-40,221
200,129,94,-402,57,-10,-48,-42,130,159
229,254,157,-347,93,57,-122,-46,197,299
225,47,-94,-115,50,-38,-195,-95,51,150
50,-87,-246,21,-69,-156,-206,-11,132,-23
165,30,-117,95,-147,-139,-139,28,127,156
237,137,41,145,-122,46,-13,-29,10,147
105,81,10,-65,-159,100,157,-5,93,-66
100,100,16,-236,-193,27,288,41,150,-26
189,95,-28,-226,-149,-29,200,131,177,214
304,-40,-251,-346,-200,-124,6,271,507,551
501,-31,-360,-436,-251,-160,-129,297,782,955
468,-115,-505,-567,-461,-201,-264,351,1030,1411
133,-293,-625,-733,-675,-59,-311,411,1054,1739
0,-131,-387,-516,-379,280,-43,218,498,1575
57,171,20,-116,153,377,84,-148,-302,1069
-75,435,409,257,513,228,181,-260,-470,665
-416,142,462,541,424,-48,102,-411,-309,158
-541,-319,144,554,219,-329,-265,-394,104,-197
-579,-514,-231,158,42,-505,-606,-83,1200,-553
-498,-437,-256,-68,-50,-435,-430,-43,1109,-1550
-294,-117,75,167,105,-168,175,-47,63,-1992
-55,288,509,573,454,170,664,32,-1223,-1902
-21,581,857,737,579,277,636,-32,-1522,-1687
-178,436,822,504,385,156,394,-137,-1126,-1026
-177,146,600,358,253,143,242,-196,-1224,-383
-165,5,344,258,153,212,194,-143,-977,-13
-156,-143,89,134,-21,107,86,-43,-321,303
9,-95,13,94,-171,-80,-40,-54,-70,228
-65,-150,-109,-18,-278,-102,-76,-33,-2,-157
-149,-180,-201,-168,-317,-51,-11,51,-73,-176
164,13,-91,-115,-160,-5,34,1,-267,359
471,49,-38,45,71,57,3,-139,-630,201
360,114,-31,130,181,86,44,-99,-451,-421
76,118,-142,14,73,14,70,-57,-113,-573
-207,-54,-237,-119,-76,-20,65,-25,-57,-732
-371,-148,-173,-89,-58,52,137,59,-51,-779
-258,-121,-106,-26,6,114,204,158,65,-242
-30,73,79,19,60,91,109,108,81,199
36,235,258,53,105,-44,-92,86,172,284
71,68,86,111,132,-162,-167,71,84,311
102,-19,-6,132,120,-214,-217,-36,-10,520
-67,-163,-70,61,9,-173,-227,-43,-36,533
-308,-240,-68,16,-32,-86,-210,-36,-94,248
-501,-219,-44,40,10,13,-129,-5,-105,6
-567,-146,0,48,69,172,-40,27,-47,-2
-421,23,156,7,98,157,-20,42,206,332
-352,-172,-118,-50,15,49,-63,11,359,529
-279,-274,-260,-108,-51,92,-82,-19,411,484
91,-122,-178,-105,-77,205,-82,-54,292,112
646,122,-122,-78,-105,225,-35,-63,188,-384
877,222,-153,-92,-155,32,21,-91,167,-427
619,121,-178,-159,-214,-139,2,-42,413,49
317,49,-122,-200,-186,-132,-77,16,560,443
339,49,-131,-208,-124,-58,-87,17,443,501
438,114,-79,-126,-17,-11,-27,13,136,174
124,217,119,16,106,44,58,-5,-199,-420
-160,196,154,54,26,-60,49,20,-128,-262
-112,44,-63,-65,-198,-182,-44,56,173,64
-17,-110,-208,-260,-341,-197,-118,38,276,85
218,-41,-176,-303,-335,-209,-123,72,227,457
527,378,129,-229,-134,-53,-32,98,216,1269
528,513,254,-105,114,125,30,63,104,1520
320,201,26,-96,70,47,87,47,29,1116
80,7,-165,-164,44,-39,167,63,90,344
-137,-86,-229,-141,73,-92,18,48,91,-430
-200,-58,-24,47,63,-108,-160,-83,-69,-888
-208,26,219,266,117,28,-70,37,-113,-1118
-401,33,303,317,171,177,36,226,13,-976
-595,-154,153,135,113,157,56,268,-10,-515
-536,-310,-33,-39,48,149,251,284,6,-193
-260,-292,-96,48,9,65,394,165,60,62
-11,-158,-53,252,76,26,187,-7,-68,81
42,-65,-56,269,129,97,3,-47,-113,-78
120,-78,-120,110,74,23,-169,-129,-100,89
257,-57,-120,-112,24,-87,-257,-228,-128,451
383,288,89,-129,42,-116,-113,-129,371,710
192,192,-8,43,-52,-146,54,130,632,495
118,33,-78,-4,-176,-101,125,254,399,153
246,129,59,-142,-131,100,105,255,81,-81
-111,3,44,-234,-61,329,125,353,18,-545
-463,-98,105,-129,-164,306,-20,281,-135,-929
-365,-32,89,14,-133,205,-236,-114,-552,-882
-209,140,114,19,85,119,-312,-327,-426,-301
-92,140,184,73,215,69,-355,-410,-564,40
-99,-59,108,175,234,412,-200,-557,-915,-103
-233,-211,-36,167,169,497,82,-569,-844,-172
-143,-184,-64,182,137,157,476,-453,-636,-51
56,-114,-149,120,58,-214,296,-230,65,28
137,-180,-294,-41,-123,-344,-21,-41,739,369
70,-195,-278,-135,-240,-357,-166,-21,808,776
-1,-42,-36,-57,-123,-259,-46,74,418,366
99,112,191,213,100,-19,148,30,-406,-435
-20,119,241,368,206,95,111,-60,-830,-964
-214,34,186,290,221,175,49,-30,-711,-1167
-268,4,195,221,196,181,251,62,-404,-1035
-181,-44,143,127,121,79,553,125,-162,-608
12,-62,44,-19,21,-56,459,135,24,0
155,121,137,-109,28,-70,135,139,244,380
195,180,167,-250,4,-56,-35,86,407,535
340,-71,-149,-378,-118,-178,-198,1,147,387
371,-40,-170,-333,-123,-202,-174,4,31,259
261,-25,-121,-246,-106,-147,-109,42,61,274
114,-21,27,-51,-85,-106,-92,64,137,299
-122,-84,72,112,18,-148,-74,111,249,222
-240,-56,146,241,186,-205,-109,133,518,318
-231,92,180,300,256,-180,-129,153,608,392
-319,-101,-139,246,91,-149,-204,59,231,214
-397,-20,-147,179,45,-70,-270,-92,-90,-60
-322,88,-85,81,130,102,-237,-109,-257,-281
-201,-7,-190,-35,86,317,-134,-77,-281,-355
-49,-139,-220,-76,-2,234,-8,-45,-226,-305
98,-164,-50,-46,-96,-66,-166,-115,-176,171
149,-73,113,-2,-184,-184,-285,-130,-100,746
178,-13,128,16,-297,-70,-165,-82,-211,1109
122,-54,32,-27,-357,63,109,-13,-42,1266
8,-56,-17,-98,-365,56,232,75,249,1033
-60,-64,-71,-193,-411,-124,110,208,517,397
-248,-165,-157,-243,-357,-201,74,362,616,-420
-247,-76,-41,-100,-138,-113,165,353,415,-1047
35,108,91,52,39,-79,144,140,496,-427
209,420,247,-12,34,-108,78,-16,879,350
393,365,82,-236,-143,-177,-24,-46,716,629
413,-23,-219,-325,-214,-171,-71,-86,-139,683
269,14,-119,-283,-79,-18,10,-152,-796,394
62,5,-138,-284,-141,-27,0,-115,-659,56
12,-7,-179,-79,-175,14,55,64,-196,-192
-44,100,-71,174,-123,126,199,198,101,-348
-384,189,199,448,225,351,383,333,163,-1121
-570,118,323,565,455,446,414,305,-83,-1686
-492,20,232,252,281,279,280,152,-309,-1306
-345,3,128,67,356,161,133,-62,-446,-652
-201,-53,40,128,457,78,-46,-298,-445,156
121,-56,120,55,180,-99,-237,-443,-338,1285
513,23,111,-45,-109,-191,-317,-434,-265,2022
703,92,-5,-117,-166,-131,-242,-287,-134,2149
509,-31,-251,-203,-171,-49,-178,-138,131,1896
51,-309,-425,-272,-242,-146,-219,-43,667,1182
-180,-495,-446,-326,-353,-338,-329,111,1408,455
-409,-448,-397,-308,-319,-324,-326,197,1291,-584
-717,-266,-159,-99,-81,-149,-178,157,257,-1629
-605,61,211,232,224,107,37,166,-791,-2116
-406,302,480,453,421,309,202,171,-1099,-2496
-259,432,606,412,437,371,293,128,-542,-1801
-134,453,552,243,331,272,104,-42,-149,-907
-12,236,251,130,200,189,-112,-101,-415,-719
36,41,33,92,92,150,-172,2,-449,-824
16,71,33,50,26,153,-221,-25,-369,-851
-101,14,-34,2,10,120,-181,-41,23,-586
-161,-117,-118,26,72,53,78,37,492,-81
-195,-111,-91,45,61,-7,407,53,479,266
-145,-26,-31,50,35,-56,313,21,55,237
-80,-117,-109,-1,-43,-97,25,95,-5,129
0,-127,-144,-42,-74,-88,-32,206,285,226
68,-55,-81,-20,-45,-27,3,232,393,120
72,-27,-56,-25,-39,0,137,245,243,-12
88,-43,-85,-68,-98,-39,251,242,-9,82
237,-23,-87,-133,-166,-103,153,41,-246,401
401,261,142,-58,-25,-75,45,-243,-458,615
344,336,285,18,95,-92,20,-343,-331,604
239,-17,81,21,40,-136,-23,-319,-508,374
196,-61,21,49,74,-78,-81,-346,-594,6
23,-71,-2,46,50,-23,-105,-249,-243,-266
-187,-60,31,57,44,11,-53,-70,28,-568
-82,31,55,39,14,7,-33,-35,131,-275
96,132,27,-85,-45,51,21,10,363,388
19,221,36,-159,-31,84,113,89,448,650
-61,-15,-117,-180,-86,-10,81,83,131,504
-43,-90,-179,-242,-149,-64,57,142,16,294
-6,-118,-195,-266,-148,-48,85,228,44,294
70,-112,-212,-223,-123,-118,-28,95,111,478
0,-140,-219,-152,-120,-213,-156,-115,-7,206
-37,-86,-108,-9,-51,-139,-138,-193,-140,-165
-64,1,-21,15,-5,-29,-49,-112,196,-156
-3,-57,-69,-76,-23,41,46,41,146,52
-66,-71,-102,-106,-18,115,122,144,222,156
-172,-78,-150,-156,-35,98,83,70,316,-10
13,19,-135,-158,-43,57,-10,-15,-9,-315
212,83,-57,-126,-41,-31,-167,-114,-189,-226
246,4,-41,-39,34,-140,-368,-282,-357,91
230,61,81,104,163,-32,-328,-346,-457,107
360,316,354,126,170,200,-53,-247,-139,416
497,333,352,69,15,227,133,-160,138,942
633,183,154,-34,-93,88,257,-203,-12,1320
447,42,-66,-82,-68,30,251,-148,-84,1162
154,-49,-196,56,106,141,142,85,-85,421
46,-19,-106,113,276,234,82,323,-75,-435
-46,74,59,231,297,179,-11,193,-263,-1010
-269,101,143,423,221,89,-65,102,-177,-895
-550,-83,-13,463,66,1,-29,147,-34,-698
-603,-193,-64,254,-80,-83,-35,125,28,-684
-491,-226,-112,-20,-83,-140,-74,68,96,-493
-352,-235,-88,-127,-30,-147,-90,33,95,-210
-125,-169,87,-110,-40,-125,-61,69,245,10
-54,-134,145,-134,-120,-157,-86,94,479,35
-73,-8,131,-147,-143,-149,-104,37,571,40
15,244,215,-86,-14,-50,-43,9,554,229
-38,25,50,62,130,80,43,11,42,331
44,-14,32,152,154,135,40,-89,-271,477
109,-139,-155,-196,-117,-61,-154,-161,-135,699
192,-220,-331,-523,-319,-252,-314,-218,-41,742
353,-136,-251,-349,-318,-273,-326,-158,44,444
311,-42,-96,99,-130,-151,-204,-8,152,311
-81,173,90,382,226,115,92,158,380,-46
-301,113,71,372,269,212,318,240,290,-602
-148,130,109,303,145,115,269,75,-57,-702
9,192,164,138,41,36,112,0,-285,-655
-15,102,120,-2,-4,78,103,63,-175,-579
-65,-56,-18,-70,-55,76,141,130,136,-125
-27,-230,-193,-140,-83,-40,99,170,600,727
-21,-315,-330,-220,-107,-129,38,156,683,1324
-53,-318,-308,-213,-96,-141,3,129,334,1105
24,-218,-147,-62,-8,-61,24,48,-405,259
115,69,137,153,159,77,73,-67,-1083,-589
9,152,179,136,125,53,16,-110,-999,-1067
-265,26,34,7,7,-24,-41,-111,-603,-1132
-404,-82,-43,-51,-48,-57,-80,-141,-290,-441
-19,56,9,-39,-53,-48,-106,-217,-151,205
264,455,200,-37,37,62,8,-53,296,26
234,446,193,-25,119,179,109,200,690,-214
108,8,-48,0,66,235,25,211,594,-374
-89,-118,-126,7,61,342,37,141,218,-537
-14,-53,6,47,167,342,94,98,-25,-378
143,-61,37,24,112,-2,2,74,301,-45
452,-31,-15,21,-12,-298,-106,22,249,153
470,54,-28,67,13,-160,-67,-101,-79,93
267,50,-106,-7,-66,-98,-56,-200,-196,130
404,50,-164,-183,-290,-269,-154,-246,-34,319
358,-11,-236,-320,-383,-402,-197,-166,380,405
40,-21,-238,-244,-240,-264,-98,-73,231,129
-338,-3,-143,-67,-17,22,93,93,-244,-404
-327,44,-135,-16,66,151,214,270,-396,-237
-6,166,-42,-59,65,176,223,265,-306,729
78,204,91,-150,-105,3,62,68,172,1113
-30,-89,34,-93,-264,-260,-185,-210,-131,740
50,-155,-44,-45,-227,-293,-249,-254,-237,510
215,0,-70,-13,-55,-115,-127,-218,-322,-57
133,130,42,156,212,155,70,-201,-514,-756
-94,198,275,336,442,333,208,-212,-638,-792
-316,53,227,213,358,320,225,-32,-258,-412
-371,-43,149,-1,119,174,76,105,397,195
-291,190,360,53,39,173,15,105,717,319
-291,176,413,252,40,239,-6,87,237,-491
-185,0,268,323,48,175,-95,-24,-456,-1070
74,84,274,305,122,-33,-224,-230,-654,-1005
248,44,123,140,51,-224,-217,-294,-482,-250
203,-72,-80,-25,-38,-221,2,-86,-208,325
101,-142,-98,-100,-76,-127,128,121,-53,310
139,14,78,-62,-60,-63,79,68,-19,140
70,-52,52,-39,-67,-43,-31,22,130,-90
-177,-220,-86,-85,-60,50,-18,127,380,-471
-245,-213,-88,-60,-44,89,18,142,279,-711
-161,-186,-84,-44,-65,0,-60,37,138,-351
-83,-254,-132,-111,-143,-74,-154,-73,-63,301
134,-236,-121,-133,-176,-113,-85,-151,-318,1059
448,-11,-22,-190,-237,-160,19,-135,-78,1815
610,282,45,-266,-277,-174,-36,-49,397,2129
614,86,-89,-313,-328,-181,-171,56,417,1792
665,142,-38,-219,-146,-51,-121,172,472,960
469,335,82,13,223,391,165,172,358,-343
-269,351,145,133,369,710,381,69,86,-1395
-856,80,1,55,212,385,287,29,-123,-1599
-754,-63,-33,31,87,-49,135,-15,-200,-1216
-251,141,145,47,103,-155,107,19,99,-684
