(0.07940674, -0.121459961, 0.7472534, -0.648498535)
(0.07940674, -0.121459961, 0.7472534, -0.648498535)
(0.07946777, -0.121398926, 0.7472534, -0.648498535)
(0.07946777, -0.121398926, 0.7472534, -0.648498535)
(0.07946777, -0.121398926, 0.7472534, -0.648498535)
(0.07946777, -0.121398926, 0.7472534, -0.648498535)
(0.07946777, -0.121398926, 0.7472534, -0.648498535)
(0.07928467, -0.121154785, 0.7472534, -0.6485596)
(0.07928467, -0.121154785, 0.7472534, -0.6485596)
(0.07928467, -0.121154785, 0.7472534, -0.6485596)
(0.07922363, -0.12109375, 0.7472534, -0.6485596)
(0.07922363, -0.12109375, 0.7472534, -0.6485596)
(0.07922363, -0.12109375, 0.7472534, -0.6485596)
(0.07922363, -0.12109375, 0.7472534, -0.6485596)
(0.07922363, -0.12109375, 0.7472534, -0.6485596)
(0.07922363, -0.121032715, 0.7472534, -0.6485596)
(0.07922363, -0.121032715, 0.7472534, -0.6485596)
(0.07922363, -0.121032715, 0.7472534, -0.6485596)
(0.07891846, -0.120910645, 0.7471924, -0.648681641)
(0.0785522461, -0.120727539, 0.7470093, -0.649047852)
(0.0776977539, -0.124145508, 0.7434082, -0.6525879)
(0.07800293, -0.125366211, 0.742797852, -0.653015137)
(0.07800293, -0.125366211, 0.742797852, -0.653015137)
(0.07800293, -0.125366211, 0.742797852, -0.653015137)
(0.07873535, -0.126647949, 0.7420654, -0.6535034)
(0.07977295, -0.129150391, 0.741394043, -0.6536865)
(0.08068848, -0.129943848, 0.7408447, -0.6539917)
(0.08068848, -0.129943848, 0.7408447, -0.6539917)
(0.0814209, -0.13079834, 0.7402344, -0.65448)
(0.0818481445, -0.131347656, 0.739563, -0.6550293)
(0.0818481445, -0.131347656, 0.739563, -0.6550293)
(0.0819702148, -0.131347656, 0.7390137, -0.655639648)
(0.0819702148, -0.131347656, 0.7390137, -0.655639648)
(0.08166504, -0.130981445, 0.738647461, -0.656188965)
(0.0803833, -0.128967285, 0.73828125, -0.6571045)
(0.0803833, -0.128967285, 0.73828125, -0.6571045)
(0.0820922852, -0.129211426, 0.737731934, -0.6574707)
(0.0820922852, -0.129211426, 0.737731934, -0.6574707)
(0.08227539, -0.129211426, 0.737426758, -0.6577759)
(0.08227539, -0.129211426, 0.737426758, -0.6577759)
(0.08135986, -0.128601074, 0.737060547, -0.6585083)
(0.07910156, -0.127807617, 0.7352295, -0.6608887)
(0.07910156, -0.127807617, 0.7352295, -0.6608887)
(0.07885742, -0.127624512, 0.7347412, -0.661499)
(0.07885742, -0.127624512, 0.7347412, -0.661499)
(0.07800293, -0.126525879, 0.734313965, -0.6623535)
(0.0746459961, -0.123718262, 0.733398438, -0.6642456)
(0.0746459961, -0.123718262, 0.733398438, -0.6642456)
(0.07342529, -0.1227417, 0.7331543, -0.6647949)
(0.07342529, -0.1227417, 0.7331543, -0.6647949)
(0.07293701, -0.122192383, 0.7333374, -0.6647949)
(0.07293701, -0.122192383, 0.7333374, -0.6647949)
(0.07220459, -0.121582031, 0.7334595, -0.664855957)
(0.07220459, -0.121582031, 0.7334595, -0.664855957)
(0.07098389, -0.119995117, 0.733947754, -0.6647339)
(0.07098389, -0.119995117, 0.733947754, -0.6647339)
(0.07092285, -0.119873047, 0.734130859, -0.6645508)
(0.07067871, -0.119873047, 0.7342529, -0.6644287)
(0.07067871, -0.119873047, 0.7342529, -0.6644287)
(0.0703125, -0.119628906, 0.7342529, -0.6645508)
(0.06982422, -0.118530273, 0.7340698, -0.664978)
(0.06982422, -0.118530273, 0.7340698, -0.664978)
(0.07006836, -0.1182251, 0.7340088, -0.6651001)
(0.0700073242, -0.117553711, 0.7338257, -0.6654053)
(0.0700073242, -0.117553711, 0.7338257, -0.6654053)
(0.0700073242, -0.117126465, 0.7336426, -0.6656494)
(0.06994629, -0.116882324, 0.7334595, -0.665893555)
(0.06994629, -0.116882324, 0.7334595, -0.665893555)
(0.0698852539, -0.116760254, 0.7333374, -0.6661377)
(0.06939697, -0.116577148, 0.7327881, -0.666748047)
(0.06939697, -0.116577148, 0.7327881, -0.666748047)
(0.06939697, -0.116638184, 0.732666, -0.666931152)
(0.06994629, -0.11730957, 0.73236084, -0.6670532)
(0.06994629, -0.11730957, 0.73236084, -0.6670532)
(0.06939697, -0.116943359, 0.7324219, -0.667114258)
(0.0690918, -0.116699219, 0.7324829, -0.667114258)
(0.0690918, -0.116699219, 0.7324829, -0.667114258)
(0.0690918, -0.116699219, 0.7324829, -0.667114258)
(0.06921387, -0.116760254, 0.7324219, -0.6671753)
(0.06921387, -0.116760254, 0.7324219, -0.6671753)
(0.06945801, -0.117004395, 0.7322998, -0.6672363)
(0.06964111, -0.11706543, 0.732177734, -0.6673584)
(0.06976318, -0.116699219, 0.732177734, -0.6673584)
(0.06976318, -0.116699219, 0.732177734, -0.6673584)
(0.06970215, -0.116210938, 0.73236084, -0.667297363)
(0.06976318, -0.115905762, 0.7324829, -0.6671753)
(0.06976318, -0.115905762, 0.7324829, -0.6671753)
(0.06970215, -0.115905762, 0.7324829, -0.6671753)
(0.06970215, -0.115905762, 0.7324829, -0.6671753)
(0.06970215, -0.115905762, 0.7324829, -0.6671753)
(0.06970215, -0.1159668, 0.7324829, -0.6671753)
(0.06982422, -0.115783691, 0.7324829, -0.6672363)
(0.0703735352, -0.116638184, 0.73236084, -0.667114258)
(0.0703735352, -0.116638184, 0.73236084, -0.667114258)
(0.0703735352, -0.116638184, 0.73236084, -0.667114258)
(0.0703735352, -0.116638184, 0.73236084, -0.667114258)
(0.0703735352, -0.116638184, 0.73236084, -0.667114258)
(0.07080078, -0.11706543, 0.73236084, -0.6670532)
(0.0715332, -0.117370605, 0.732177734, -0.6670532)
(0.0715332, -0.117370605, 0.732177734, -0.6670532)
(0.07196045, -0.117553711, 0.7321167, -0.667114258)
(0.0720214844, -0.117553711, 0.7321167, -0.6670532)
(0.0720214844, -0.117553711, 0.7321167, -0.6670532)
(0.07208252, -0.117431641, 0.7321167, -0.667114258)
(0.07287598, -0.117797852, 0.7317505, -0.667297363)
(0.07287598, -0.117797852, 0.7317505, -0.667297363)
(0.07293701, -0.117797852, 0.7318115, -0.667297363)
(0.07293701, -0.117797852, 0.7317505, -0.667297363)
(0.07293701, -0.117797852, 0.7317505, -0.667297363)
(0.07293701, -0.117797852, 0.7317505, -0.667297363)
(0.07305908, -0.117919922, 0.7318115, -0.6672363)
(0.07305908, -0.117919922, 0.7318115, -0.6672363)
(0.07312012, -0.118164063, 0.7317505, -0.6672363)
(0.07312012, -0.118164063, 0.7317505, -0.6672363)
(0.07336426, -0.1184082, 0.731689453, -0.6672363)
(0.07336426, -0.1184082, 0.731689453, -0.6672363)
(0.07366943, -0.118530273, 0.731689453, -0.6671753)
(0.07366943, -0.118530273, 0.731689453, -0.6671753)
(0.07373047, -0.118530273, 0.731689453, -0.6671753)
(0.07373047, -0.118530273, 0.731689453, -0.6671753)
(0.07373047, -0.118530273, 0.731689453, -0.6671753)
(0.07366943, -0.118469238, 0.731689453, -0.6671753)
(0.07366943, -0.118469238, 0.731689453, -0.6671753)
(0.07366943, -0.118469238, 0.731689453, -0.6671753)
(0.07366943, -0.118469238, 0.731689453, -0.6671753)
(0.0737915039, -0.118530273, 0.7316284, -0.6672363)
(0.0737915039, -0.118530273, 0.7316284, -0.6672363)
(0.07409668, -0.118469238, 0.7316284, -0.6672363)
(0.07562256, -0.1184082, 0.731689453, -0.6669922)
(0.07562256, -0.1184082, 0.731689453, -0.6669922)
(0.07562256, -0.1184082, 0.731689453, -0.6669922)
(0.0758056641, -0.118530273, 0.7318115, -0.6668091)
(0.07611084, -0.1184082, 0.7319946, -0.666626)
(0.07702637, -0.118469238, 0.732177734, -0.666259766)
(0.07720947, -0.1182251, 0.732177734, -0.6663208)
(0.07745361, -0.117919922, 0.732177734, -0.6663208)
(0.07745361, -0.117919922, 0.732177734, -0.6663208)
(0.07775879, -0.117858887, 0.732177734, -0.6663208)
(0.0779418945, -0.117736816, 0.732055664, -0.6664429)
(0.0779418945, -0.117736816, 0.732055664, -0.6664429)
(0.0781860352, -0.117797852, 0.731872559, -0.666564941)
(0.0781860352, -0.117797852, 0.731872559, -0.666564941)
(0.07836914, -0.117736816, 0.731689453, -0.6668091)
(0.07891846, -0.11730957, 0.7307739, -0.667785645)
(0.07891846, -0.11730957, 0.7307739, -0.667785645)
(0.07910156, -0.11706543, 0.7305298, -0.6680908)
(0.07910156, -0.11706543, 0.7305298, -0.6680908)
(0.07922363, -0.116699219, 0.7303467, -0.668334961)
(0.07922363, -0.116699219, 0.7303467, -0.668334961)
(0.07989502, -0.115722656, 0.729919434, -0.6688843)
(0.07989502, -0.115722656, 0.729919434, -0.6688843)
(0.0803833, -0.11541748, 0.7297363, -0.6691284)
(0.08050537, -0.114807129, 0.7288208, -0.670166)
(0.08050537, -0.114807129, 0.7288208, -0.670166)
(0.0804443359, -0.114807129, 0.7285156, -0.6705322)
(0.0803833, -0.114807129, 0.7283325, -0.670715332)
(0.0803833, -0.114807129, 0.7283325, -0.670715332)
(0.0805664063, -0.114440918, 0.728210449, -0.670898438)
(0.0805664063, -0.114440918, 0.728210449, -0.670898438)
(0.08062744, -0.114135742, 0.728210449, -0.6709595)
(0.08062744, -0.114074707, 0.728210449, -0.6709595)
(0.08062744, -0.114074707, 0.728210449, -0.6709595)
(0.08062744, -0.114074707, 0.728210449, -0.6709595)
(0.08074951, -0.114074707, 0.7281494, -0.6710205)
(0.08068848, -0.114074707, 0.7281494, -0.6710205)
(0.08068848, -0.114074707, 0.7281494, -0.6710205)
(0.08068848, -0.114074707, 0.7281494, -0.6710205)
(0.08068848, -0.114074707, 0.7281494, -0.6710205)
(0.08068848, -0.114074707, 0.7281494, -0.6710205)
(0.08068848, -0.114074707, 0.7281494, -0.6710205)
(0.08068848, -0.114074707, 0.7281494, -0.6710205)
(0.08068848, -0.114135742, 0.728027344, -0.6711426)
(0.08068848, -0.114135742, 0.728027344, -0.6711426)
(0.08068848, -0.114135742, 0.728027344, -0.6711426)
(0.08068848, -0.114135742, 0.728027344, -0.6711426)
(0.08068848, -0.114135742, 0.728027344, -0.6711426)
(0.08068848, -0.114135742, 0.728027344, -0.6711426)
(0.08068848, -0.114135742, 0.728027344, -0.6711426)
(0.08062744, -0.114135742, 0.7280884, -0.671081543)
(0.08062744, -0.114135742, 0.7280884, -0.671081543)
(0.08050537, -0.114196777, 0.7280884, -0.671081543)
(0.08050537, -0.114196777, 0.7280884, -0.671081543)
(0.08050537, -0.114196777, 0.7280884, -0.671081543)
(0.08050537, -0.114318848, 0.7279663, -0.6712036)
(0.08068848, -0.114318848, 0.727844238, -0.671264648)
(0.08081055, -0.114257813, 0.7277832, -0.6713867)
(0.08087158, -0.114013672, 0.727722168, -0.671447754)
(0.08087158, -0.114013672, 0.727722168, -0.671447754)
(0.08093262, -0.113769531, 0.727722168, -0.6715088)
(0.08093262, -0.113769531, 0.727722168, -0.6715088)
(0.08093262, -0.113769531, 0.727722168, -0.6715088)
(0.08087158, -0.113769531, 0.727722168, -0.6715088)
(0.08087158, -0.113769531, 0.727722168, -0.6715088)
(0.08135986, -0.114379883, 0.727172852, -0.671936035)
(0.08135986, -0.114379883, 0.727172852, -0.671936035)
(0.08178711, -0.114562988, 0.7270508, -0.6719971)
(0.0819702148, -0.114685059, 0.7270508, -0.671936035)
(0.0819702148, -0.114685059, 0.7270508, -0.671936035)
(0.0819702148, -0.114685059, 0.7270508, -0.671936035)
(0.0819702148, -0.114685059, 0.7270508, -0.671936035)
(0.0819702148, -0.114685059, 0.7270508, -0.671936035)
(0.0819702148, -0.114624023, 0.7270508, -0.671936035)
(0.0819702148, -0.114624023, 0.7270508, -0.671936035)
(0.0819702148, -0.114624023, 0.7270508, -0.671936035)
(0.0819702148, -0.114624023, 0.7270508, -0.671936035)
(0.0819702148, -0.114624023, 0.7270508, -0.671936035)
(0.0819702148, -0.114624023, 0.7270508, -0.671936035)
(0.08215332, -0.114624023, 0.726989746, -0.6719971)
(0.08215332, -0.114624023, 0.726989746, -0.6719971)
(0.08215332, -0.114624023, 0.726989746, -0.6719971)
(0.08215332, -0.114624023, 0.726989746, -0.6719971)
(0.08215332, -0.114624023, 0.726989746, -0.6719971)
(0.08239746, -0.114624023, 0.7270508, -0.671875)
