(0.06378174, -0.07684326, 0.806335449, -0.5829468)
(0.06378174, -0.07684326, 0.806335449, -0.5829468)
(0.06378174, -0.07684326, 0.806335449, -0.5829468)
(0.06365967, -0.07672119, 0.806335449, -0.5830078)
(0.0619506836, -0.0748291, 0.805969238, -0.58392334)
(0.0619506836, -0.07476807, 0.805969238, -0.58392334)
(0.0619506836, -0.07476807, 0.805969238, -0.58392334)
(0.0620727539, -0.07489014, 0.805786133, -0.584106445)
(0.0620727539, -0.07489014, 0.805786133, -0.584106445)
(0.0620727539, -0.0748291, 0.805664063, -0.5843506)
(0.0615234375, -0.0739135742, 0.805297852, -0.584960938)
(0.0615234375, -0.0739135742, 0.805297852, -0.584960938)
(0.06121826, -0.07366943, 0.8051758, -0.5852661)
(0.06225586, -0.07562256, 0.8041382, -0.5863037)
(0.06225586, -0.07562256, 0.8041382, -0.5863037)
(0.0625610352, -0.0759277344, 0.804077148, -0.5863037)
(0.0625610352, -0.0759277344, 0.804077148, -0.5863037)
(0.0626831055, -0.07684326, 0.8039551, -0.5863037)
(0.0626831055, -0.07684326, 0.8039551, -0.5863037)
(0.06237793, -0.07702637, 0.803894043, -0.5864258)
(0.06237793, -0.07702637, 0.803894043, -0.5864258)
(0.06188965, -0.07684326, 0.803833, -0.5866089)
(0.06188965, -0.07684326, 0.803833, -0.5866089)
(0.06188965, -0.07684326, 0.803833, -0.5866089)
(0.0617675781, -0.07684326, 0.803710938, -0.586792)
(0.0617675781, -0.07684326, 0.803710938, -0.586792)
(0.0619506836, -0.07702637, 0.803527832, -0.5869751)
(0.0621948242, -0.07727051, 0.8032837, -0.587219238)
(0.0621948242, -0.07727051, 0.8032837, -0.587219238)
(0.0623168945, -0.07733154, 0.803039551, -0.587585449)
(0.0623168945, -0.07733154, 0.803039551, -0.587585449)
(0.0618286133, -0.0765380859, 0.8022461, -0.588806152)
(0.0618286133, -0.0765380859, 0.8022461, -0.588806152)
(0.0615844727, -0.07598877, 0.8017578, -0.5895386)
(0.0615844727, -0.07598877, 0.8017578, -0.5895386)
(0.061340332, -0.07556152, 0.801330566, -0.590209961)
(0.06109619, -0.07537842, 0.8007202, -0.5911255)
(0.06109619, -0.07537842, 0.8007202, -0.5911255)
(0.06225586, -0.0762939453, 0.7988281, -0.5934448)
(0.06555176, -0.07763672, 0.798706055, -0.5930176)
(0.06555176, -0.07763672, 0.798706055, -0.5930176)
(0.07080078, -0.08105469, 0.799072266, -0.591552734)
(0.07788086, -0.08721924, 0.79888916, -0.5899658)
(0.07788086, -0.08721924, 0.79888916, -0.5899658)
(0.0855102539, -0.09277344, 0.7994995, -0.5872803)
(0.09429932, -0.09539795, 0.800964355, -0.5834961)
(0.102233887, -0.09680176, 0.7993164, -0.5842285)
(0.107421875, -0.106201172, 0.795715332, -0.5864868)
(0.107421875, -0.106201172, 0.795715332, -0.5864868)
(0.107177734, -0.10748291, 0.794372559, -0.588134766)
(0.107177734, -0.10748291, 0.794372559, -0.588134766)
(0.106201172, -0.106323242, 0.7937012, -0.589477539)
(0.104980469, -0.104248047, 0.793396, -0.590393066)
(0.104980469, -0.104248047, 0.793396, -0.590393066)
(0.104553223, -0.102111816, 0.793518066, -0.590698242)
(0.104553223, -0.102111816, 0.793518066, -0.590698242)
(0.105895996, -0.102416992, 0.793518066, -0.5904541)
(0.1081543, -0.105407715, 0.7928467, -0.590332031)
(0.1081543, -0.105407715, 0.7928467, -0.590332031)
(0.109802246, -0.109130859, 0.791687, -0.5909424)
(0.109802246, -0.109130859, 0.791687, -0.5909424)
(0.110351563, -0.11138916, 0.790344238, -0.592285156)
(0.110229492, -0.112365723, 0.789123535, -0.593688965)
(0.110229492, -0.112365723, 0.789123535, -0.593688965)
(0.111328125, -0.113525391, 0.788147, -0.5946045)
(0.115600586, -0.118469238, 0.7869873, -0.5942993)
(0.115600586, -0.118469238, 0.7869873, -0.5942993)
(0.116394043, -0.119628906, 0.786743164, -0.5942383)
(0.116394043, -0.119628906, 0.786743164, -0.5942383)
(0.115905762, -0.1194458, 0.786499, -0.594726563)
(0.115905762, -0.1194458, 0.786499, -0.594726563)
(0.115600586, -0.118652344, 0.785827637, -0.5958252)
(0.115600586, -0.118652344, 0.785827637, -0.5958252)
(0.116516113, -0.119689941, 0.7854004, -0.5960083)
(0.117370605, -0.120910645, 0.78515625, -0.595947266)
(0.116271973, -0.121887207, 0.7868042, -0.59375)
(0.116271973, -0.121887207, 0.7868042, -0.59375)
(0.116088867, -0.120910645, 0.7871704, -0.593505859)
(0.116088867, -0.120910645, 0.7871704, -0.593505859)
(0.115783691, -0.119934082, 0.7874756, -0.593322754)
(0.11541748, -0.1194458, 0.7878418, -0.5930786)
(0.114624023, -0.120117188, 0.788635254, -0.59198)
(0.114624023, -0.120117188, 0.788635254, -0.59198)
(0.114624023, -0.120117188, 0.788635254, -0.59198)
(0.114562988, -0.120849609, 0.788635254, -0.5918579)
(0.114624023, -0.121582031, 0.788452148, -0.591918945)
(0.114624023, -0.121582031, 0.788452148, -0.591918945)
(0.114807129, -0.121826172, 0.788147, -0.592285156)
(0.114562988, -0.120849609, 0.787963867, -0.592773438)
(0.114746094, -0.120727539, 0.787902832, -0.5928345)
(0.114746094, -0.120727539, 0.787902832, -0.5928345)
(0.116699219, -0.123168945, 0.7876587, -0.592285156)
(0.116699219, -0.123168945, 0.7876587, -0.592285156)
(0.116699219, -0.123168945, 0.7876587, -0.592285156)
(0.116882324, -0.123291016, 0.7875366, -0.5923462)
(0.116638184, -0.122802734, 0.7875366, -0.5925293)
(0.116638184, -0.122802734, 0.7875366, -0.5925293)
(0.117004395, -0.122009277, 0.7873535, -0.5928345)
(0.117004395, -0.122009277, 0.7873535, -0.5928345)
(0.118286133, -0.122558594, 0.7873535, -0.5925293)
(0.119628906, -0.123413086, 0.7872925, -0.592102051)
(0.119628906, -0.123413086, 0.7872925, -0.592102051)
(0.120422363, -0.124145508, 0.7872925, -0.5918579)
(0.120422363, -0.124206543, 0.787231445, -0.5918579)
(0.120422363, -0.124206543, 0.787231445, -0.5918579)
(0.120056152, -0.124023438, 0.7871094, -0.592102051)
(0.120056152, -0.124023438, 0.7871094, -0.592102051)
(0.119812012, -0.123718262, 0.7869873, -0.5924072)
(0.119812012, -0.123718262, 0.7869873, -0.5924072)
(0.119506836, -0.123718262, 0.7869873, -0.5925293)
(0.119567871, -0.124084473, 0.7869873, -0.5923462)
(0.119567871, -0.124084473, 0.7869873, -0.5923462)
(0.119384766, -0.124450684, 0.78704834, -0.592285156)
(0.119384766, -0.124450684, 0.78704834, -0.592285156)
(0.118103027, -0.124450684, 0.78692627, -0.592651367)
(0.118103027, -0.124450684, 0.78692627, -0.592651367)
(0.117797852, -0.123657227, 0.7869873, -0.5928345)
(0.117797852, -0.123657227, 0.7869873, -0.5928345)
(0.117797852, -0.123168945, 0.78704834, -0.5928955)
(0.118774414, -0.124450684, 0.78692627, -0.5925293)
(0.118774414, -0.124450684, 0.78692627, -0.5925293)
(0.1184082, -0.124572754, 0.7869873, -0.5925293)
(0.117553711, -0.1239624, 0.78704834, -0.592773438)
(0.117919922, -0.124450684, 0.7869873, -0.592651367)
(0.117919922, -0.124450684, 0.7869873, -0.592651367)
(0.117797852, -0.124511719, 0.7871094, -0.592468262)
(0.117553711, -0.124389648, 0.787231445, -0.5924072)
(0.117553711, -0.124389648, 0.787231445, -0.5924072)
(0.117492676, -0.124023438, 0.787231445, -0.592468262)
(0.117492676, -0.124023438, 0.787231445, -0.592468262)
(0.117431641, -0.123657227, 0.787231445, -0.592651367)
(0.1171875, -0.123901367, 0.7874756, -0.5922241)
(0.1171875, -0.123901367, 0.7874756, -0.5922241)
(0.11730957, -0.124389648, 0.7874756, -0.592102051)
(0.117126465, -0.124694824, 0.7874756, -0.592102051)
(0.117126465, -0.124694824, 0.7874756, -0.592102051)
(0.116699219, -0.124572754, 0.787414551, -0.592285156)
(0.116699219, -0.124572754, 0.787414551, -0.592285156)
(0.116516113, -0.124206543, 0.7872925, -0.592590332)
(0.117126465, -0.124572754, 0.786865234, -0.5928955)
(0.117126465, -0.124572754, 0.786865234, -0.5928955)
(0.117431641, -0.125061035, 0.7866821, -0.5930176)
(0.117431641, -0.125061035, 0.7866821, -0.5930176)
(0.117431641, -0.12512207, 0.786438, -0.593322754)
(0.117431641, -0.12512207, 0.786438, -0.593322754)
(0.117126465, -0.124267578, 0.786193848, -0.5939331)
(0.11730957, -0.124389648, 0.7860718, -0.593994141)
(0.11730957, -0.124389648, 0.7860718, -0.593994141)
(0.117797852, -0.124694824, 0.7858887, -0.5941162)
(0.1182251, -0.125366211, 0.7854004, -0.5944824)
(0.1182251, -0.125366211, 0.7854004, -0.5944824)
(0.1182251, -0.125366211, 0.7854004, -0.5944824)
(0.1182251, -0.125305176, 0.7854004, -0.5944824)
(0.1182251, -0.125305176, 0.7854004, -0.5944824)
(0.1182251, -0.125305176, 0.7854004, -0.5944824)
(0.1182251, -0.125305176, 0.7854004, -0.5944824)
(0.1182251, -0.125305176, 0.7854004, -0.5944824)
(0.1182251, -0.125305176, 0.7854004, -0.5944824)
(0.118041992, -0.125427246, 0.7854004, -0.594543457)
(0.117980957, -0.125549316, 0.785339355, -0.5946045)
(0.117980957, -0.125549316, 0.785339355, -0.5946045)
(0.117797852, -0.125610352, 0.785339355, -0.5946045)
(0.117553711, -0.125976563, 0.785339355, -0.5946045)
(0.117675781, -0.126953125, 0.7850952, -0.5946655)
(0.117675781, -0.126953125, 0.7850952, -0.5946655)
(0.117675781, -0.126953125, 0.7850952, -0.5946655)
(0.117675781, -0.126953125, 0.7850952, -0.5946655)
(0.117675781, -0.126953125, 0.7850952, -0.5946655)
(0.117675781, -0.126953125, 0.7850952, -0.5946655)
(0.117736816, -0.1270752, 0.7850342, -0.5946655)
(0.117736816, -0.1270752, 0.7850342, -0.5946655)
(0.117858887, -0.127319336, 0.784973145, -0.594726563)
(0.118041992, -0.127502441, 0.7849121, -0.594726563)
(0.118041992, -0.127502441, 0.7849121, -0.594726563)
(0.118164063, -0.127868652, 0.7848511, -0.594726563)
(0.118469238, -0.128356934, 0.784667969, -0.5947876)
(0.1182251, -0.128356934, 0.7844238, -0.5951538)
(0.118041992, -0.128234863, 0.784484863, -0.5951538)
(0.117858887, -0.1281128, 0.784484863, -0.5951538)
(0.117858887, -0.1281128, 0.784484863, -0.5951538)
(0.117858887, -0.1281128, 0.784484863, -0.5951538)
(0.117858887, -0.1281128, 0.784484863, -0.5951538)
(0.117858887, -0.1281128, 0.784484863, -0.5951538)
(0.117858887, -0.1281128, 0.784484863, -0.5951538)
(0.117858887, -0.1281128, 0.784484863, -0.5951538)
(0.117858887, -0.1281128, 0.784484863, -0.5951538)
(0.117736816, -0.127807617, 0.7845459, -0.595214844)
(0.117736816, -0.127746582, 0.7845459, -0.595214844)
(0.117736816, -0.127746582, 0.7845459, -0.595214844)
(0.117797852, -0.127746582, 0.7845459, -0.595214844)
(0.117797852, -0.127746582, 0.7845459, -0.595214844)
(0.117675781, -0.128051758, 0.7845459, -0.5951538)
(0.117675781, -0.128051758, 0.7845459, -0.5951538)
(0.117675781, -0.128051758, 0.7845459, -0.5951538)
(0.117675781, -0.128051758, 0.7845459, -0.5951538)
(0.117614746, -0.128051758, 0.7845459, -0.5951538)
(0.117614746, -0.128051758, 0.7845459, -0.5951538)
(0.117614746, -0.127990723, 0.7845459, -0.5951538)
(0.117675781, -0.128051758, 0.7844238, -0.5953369)
(0.117675781, -0.128051758, 0.7844238, -0.5953369)
(0.117980957, -0.1281128, 0.7842407, -0.595459)
(0.117980957, -0.1281128, 0.7842407, -0.595459)
(0.1182251, -0.128173828, 0.7842407, -0.595459)
(0.1182251, -0.128601074, 0.7838745, -0.5958252)
(0.1182251, -0.128601074, 0.7838745, -0.5958252)
(0.118286133, -0.128601074, 0.7838745, -0.5958252)
(0.1182251, -0.128601074, 0.7838745, -0.5958252)
(0.1182251, -0.128601074, 0.7838745, -0.5958252)
(0.1182251, -0.128601074, 0.7838745, -0.5958252)
(0.1182251, -0.128601074, 0.7838745, -0.5958252)
