-29,-25,-7,1,3,-1,-4,-10
-26,-15,-10,-14,-10,-4,1,-3
18,10,-4,0,1,-1,-2,-4
-30,-32,-4,1,-3,-2,0,-1
39,40,4,-2,0,-3,-4,4
-4,4,-4,-5,-2,0,-1,-2
-34,-36,-7,-3,-3,1,2,-3
20,15,-7,-9,-1,-2,-1,-6
0,-6,13,15,5,1,0,-2
-5,-2,-4,-6,-7,-3,-2,-1
-8,1,-4,2,4,0,0,0
-5,-4,-1,0,0,1,-2,-1
-8,-10,-3,-5,-3,0,-2,-1
1,1,-5,-8,-10,-4,-2,2
-8,-3,2,-11,-5,-1,-2,-4
15,9,7,27,19,5,1,3
5,1,-3,2,3,1,2,3
-32,-20,-1,1,-1,0,-1,-3
-19,-11,-11,-17,-15,-6,-5,-10
64,38,12,-1,-3,1,8,24
-6,-4,-10,-11,-3,-3,-3,-8
-9,-12,-3,-3,-2,2,1,5
-12,-9,5,9,4,1,-2,-4
-12,5,-9,-7,-4,-2,1,5
-43,-23,8,7,0,-1,-2,-11
50,25,-3,-11,-4,-5,-1,8
-7,-3,4,8,4,-1,2,1
3,-6,-1,-3,-6,-1,-4,-5
-10,-18,-6,-6,-9,-5,-5,-9
-34,-17,0,11,10,-1,-8,-23
18,15,-17,-25,-17,-10,4,10
8,7,13,19,12,13,6,2
-10,3,6,15,11,1,-3,-2
13,0,0,0,2,4,-2,6
-4,-8,0,0,-6,-4,0,-2
5,7,-17,-24,-12,-6,-1,2
16,9,9,1,-3,-1,0,3
10,-5,-2,3,-1,-2,1,2
13,6,1,-1,2,2,-4,2
-78,-17,-1,-7,-6,-4,-7,-15
104,26,-2,1,3,13,24,31
-56,-21,-5,-5,-12,-19,-24,-19
58,33,8,3,3,1,0,7
-21,-23,-3,-2,2,2,3,-3
-3,3,-16,-20,-21,-15,-10,-14
7,23,9,-3,0,-3,6,8
-50,-37,-9,5,8,13,-1,-35
6,8,6,10,2,1,5,11
-20,-12,-9,-1,0,6,-1,-19
49,19,-6,-8,-3,-3,0,17
-56,-14,7,-3,-13,-16,7,24
90,27,-11,-11,0,22,1,-32
-38,-11,11,16,4,-27,-22,-5
18,2,3,6,9,17,10,4
1,-1,-15,-16,-26,-39,-5,-5
-22,0,6,11,23,41,8,17
-28,-16,6,-3,-3,-4,-8,-7
-73,-27,-16,-2,5,9,1,-17
112,59,25,10,9,17,23,43
-51,-17,-4,-14,-22,-44,-29,-15
20,17,0,-1,5,11,17,34
24,-10,-8,-11,-9,-3,-3,-9
-86,-37,-12,3,5,8,-9,-23
-5,-8,-1,-2,-9,-16,5,2
-62,-26,-3,2,9,13,0,-4
100,72,9,0,-10,-23,4,33
-13,3,1,6,14,19,-10,-15
-4,10,13,13,8,-4,-6,10
-83,-70,-24,-15,-11,-17,-10,-29
12,6,6,-4,-3,-1,11,15
20,25,-9,-4,2,4,-8,-15
17,13,14,-9,-19,-24,-9,12
63,30,7,-4,5,12,27,47
-60,-27,2,18,13,-2,-28,-38
56,7,-2,-1,7,4,8,20
-71,-50,-26,-3,5,15,12,-5
-53,5,19,-1,-13,-7,-3,-10
68,47,7,-1,-4,3,-6,9
-15,13,-2,-1,-1,-15,-22,-27
-9,-19,-16,-20,-9,-6,2,-4
-33,-19,7,12,7,-1,-7,-14
-26,-12,5,8,6,7,10,-3
13,-6,-1,3,2,1,-10,-3
-80,-42,-14,-7,-9,1,6,-11
127,112,16,6,4,2,-5,40
-74,-40,-9,-9,-3,5,6,-2
1,5,-10,-7,-9,-14,-3,15
-32,-27,-2,2,1,-2,11,-9
-35,-44,-9,-2,1,5,-4,-8
37,25,8,-2,0,7,11,17
-25,-17,-14,-11,-10,-6,0,-6
30,10,10,14,7,-13,-17,-7
66,16,-6,-6,-7,0,7,5
-53,-30,-17,-10,-7,11,11,-21
-32,-14,18,21,17,-13,-28,-10
8,10,-9,-14,-12,-13,-16,-14
8,3,5,15,13,19,9,2
-4,-17,-10,-6,-5,-5,-4,-6
12,3,-3,-11,-5,18,17,4
42,26,4,10,3,-12,-7,2
-39,-7,0,0,7,15,-1,-16
-8,-15,-14,-6,-9,-14,-5,-4
48,25,7,3,-1,8,22,9
-56,-19,4,3,2,-2,-13,3
83,40,6,-3,-9,-7,8,21
-31,-16,-4,2,5,-6,-10,-16
1,11,-8,-6,-5,4,12,22
41,29,30,13,7,14,12,17
-74,-39,-14,-5,-2,-7,-15,-36
31,10,6,0,1,-2,0,11
-90,-37,-7,0,-1,4,-5,-14
108,49,1,-1,1,0,0,11
-3,-8,-11,-12,-11,1,-5,4
72,25,18,11,9,-1,3,28
-98,-31,-11,-8,-5,5,2,-36
-29,-2,-7,-5,-6,-29,-38,-29
18,-3,7,-1,-3,-6,4,8
-20,-10,-13,-5,-10,-10,-9,-28
27,2,4,0,1,-7,0,19
-3,1,9,8,15,26,17,-1
18,28,10,12,6,4,-3,0
-25,-14,-4,-4,-5,-8,2,15
-21,-22,21,16,7,3,-3,0
25,38,-6,-7,-8,-1,14,16
62,19,-4,-8,-4,-9,1,22
-36,-12,11,12,11,12,0,-22
-21,-25,-18,-11,-10,-10,-6,0
-72,-36,-14,-6,-1,14,16,-10
21,9,-4,-6,-8,-18,-22,-1
-4,-8,-2,-5,-4,-5,17,24
109,57,14,12,16,28,14,29
43,4,12,4,-1,3,2,6
-114,-52,-12,-1,1,-7,-5,-46
-83,-49,-19,-16,-10,1,-10,-27
80,67,12,6,-3,-23,-11,7
27,-2,-9,-6,-2,19,11,7
-34,-16,8,8,8,26,25,30
0,5,-4,-6,-6,2,-10,-5
8,-23,-5,-7,-9,-18,2,21
-47,-8,-3,6,8,-1,-23,-29
6,9,0,2,-2,-9,6,-1
23,-10,-11,-6,2,20,17,19
8,16,10,13,7,1,3,-3
-19,-22,-12,-12,-13,-19,7,36
33,13,-8,-10,-5,-4,-10,-10
24,20,15,10,11,3,8,17
-53,-29,-12,-8,-7,-7,-13,-34
73,4,13,8,6,0,5,15
-78,-12,-4,0,0,2,-9,-37
19,1,3,0,-2,-4,5,22
47,12,-11,-14,-10,-11,-2,7
-48,-17,-3,0,-5,-11,-15,-45
28,-10,-3,-4,7,28,42,95
29,39,12,16,12,6,-15,-31
-49,-6,12,4,-4,-20,-4,-1
-18,13,-3,-3,-2,-11,-21,-31
-12,-10,-6,-8,-8,-10,-9,-37
-73,-39,-15,-9,-6,1,-8,-9
7,-12,-1,-2,1,19,13,10
79,52,4,-7,-4,4,21,64
-31,-16,0,11,4,-2,-24,-35
2,-2,-3,-7,-8,-12,9,0
-29,-23,-7,-2,-1,3,-3,-11
8,-13,-3,-3,0,14,11,15
47,22,2,-1,-4,-8,9,29
-38,-5,1,0,-1,-10,-19,-16
-50,-27,-8,-3,4,18,8,-2
-49,-14,-7,-1,-12,-36,-25,-39
80,43,13,3,5,20,13,12
73,50,8,2,-1,-4,-10,10
-81,-27,-5,-2,-2,-8,-14,-38
-24,-16,-2,0,2,2,-14,-26
-46,-22,3,5,8,7,13,12
-75,-25,-6,-3,-3,-12,-12,-9
119,56,9,2,3,4,2,25
-69,-42,-13,-3,0,6,2,-27
-3,-6,-7,-8,-8,-19,-3,3
0,-7,-6,-9,-9,-3,-14,-23
-43,-24,-7,-3,-6,-8,-7,-6
42,35,8,4,2,13,23,35
-16,-16,-22,-16,-15,-28,-14,-8
51,22,11,9,15,23,23,30
-28,-12,8,10,4,0,-8,-24
-3,-10,-9,-9,-4,9,3,-4
-11,-12,-6,-9,-13,-22,-29,-19
-31,-14,-4,5,3,1,0,-7
45,12,2,3,1,7,5,10
-17,-12,-9,-7,-11,-32,-37,-40
32,22,4,4,8,21,24,12
-35,-19,-5,-4,-4,-6,-12,-30
2,17,4,-5,-5,1,-6,0
-25,-31,-15,-6,-3,14,20,5
-95,-40,-1,2,-3,-19,-36,-40
127,60,7,-4,-6,-7,0,24
-53,43,-9,-12,-9,-16,-8,-10
-68,-31,-13,-4,-2,1,-5,-14
18,15,-6,-10,-7,-6,-1,-7
-52,-61,-17,-6,-6,-10,14,-3
113,60,15,4,12,24,22,62
-46,-8,-1,-4,-8,7,4,-3
-7,-9,-4,1,6,-6,-16,-9
-97,-31,-8,-3,-10,-6,-3,-30
12,-15,1,4,7,2,1,-2
95,71,20,4,-3,-14,-3,15
-20,-12,2,8,13,30,17,4
-16,8,14,8,6,18,14,19
17,-22,-13,-8,-11,-28,-28,-16
11,28,7,-1,-4,-6,-11,-11
23,-3,-2,-2,-3,-6,20,29
-13,2,9,9,7,-10,-28,-47
-35,-19,-6,-4,0,17,12,0
77,48,14,5,10,4,7,32
-65,-46,-4,4,-7,-12,-22,-33
59,23,-6,-8,-6,-1,8,28
-74,-75,-21,-8,2,8,2,-9
-24,-14,-4,2,7,7,9,11
-3,24,9,6,9,14,-7,-34
67,22,2,-6,-14,-14,3,20
46,6,-3,0,-13,-38,-21,6
-44,-17,3,1,10,24,2,-3
-32,-3,-4,-4,-10,-28,-17,-19
-43,-7,8,6,8,16,-3,-19
-17,-16,-20,-17,-6,-5,9,14
55,25,10,6,-1,-14,-15,-14
-11,12,10,7,8,24,27,7
44,20,-7,-10,-12,-10,-1,20
-15,-1,-4,-4,-10,-33,-25,-47
-23,-17,2,3,9,26,22,12
38,2,-10,-10,-5,15,17,25
-31,1,14,14,11,-3,-4,0
-60,-44,-9,-4,-4,-2,2,-1
76,59,13,4,0,9,34,66
-2,15,1,-6,-11,-23,-44,-49
7,18,9,6,16,10,23,23
-8,3,0,3,2,20,4,-8
-112,-80,-10,5,2,-9,-15,-27
72,40,1,-10,-9,4,7,23
-15,-23,-13,-12,-18,-27,-19,-3
-4,34,16,7,10,18,-8,-23
-25,-31,-22,-12,-4,6,24,20
31,13,15,13,8,-3,6,28
-95,-52,-19,-10,-14,-30,-23,-32
106,77,22,3,1,11,8,31
15,9,-4,-8,-12,-13,-21,-13
-75,-24,-3,1,-6,-33,-17,-22
31,11,-11,-10,9,37,15,15
3,-9,-11,-16,-12,2,20,39
6,4,0,4,2,-14,-12,-13
88,18,-5,-6,-5,-10,-5,2
16,14,5,3,-3,-13,-2,-12
-112,-57,-2,11,17,27,20,27
25,31,4,0,-7,-16,-22,-19
-2,6,2,1,2,-6,-16,-22
-2,6,2,4,7,24,17,10
-34,-54,-15,-8,-12,-17,-14,-9
25,15,-6,-9,-10,-12,-8,-4
-40,-21,-4,4,1,9,-1,-10
-4,-8,-13,-11,-8,3,1,10
18,10,2,0,-5,-23,-26,-34
-38,-20,0,4,3,2,-5,-16
11,20,2,-6,-8,-4,3,9
9,-7,1,-2,-10,-19,6,17
-17,-13,-7,5,18,23,4,-9
-4,-23,6,7,13,23,21,39
16,38,11,-4,-6,-4,-16,-23
-31,-19,-3,6,5,8,7,0
32,5,13,7,1,-7,0,34
0,9,-5,-6,-7,-14,-15,-31
43,7,10,7,5,7,14,19
-82,-41,-12,-4,1,4,-8,-18
50,20,6,1,-5,-2,4,-1
31,29,3,0,6,15,25,38
-110,-56,-29,-13,-10,-14,-17,-31
60,22,4,6,10,12,11,5
-91,-48,-19,-9,-12,-8,-6,-40
59,56,21,7,-3,-23,-19,-7
60,-4,-1,3,14,32,50,80
-33,15,13,1,-5,-12,-17,-20
19,21,4,2,-4,-21,14,2
15,-30,-16,-11,-5,8,0,10
-79,-25,1,5,20,37,-1,-20
-3,15,16,8,6,9,-2,-7
94,68,19,6,-3,-13,-1,23
-85,-47,-21,-14,-12,4,11,-17
-39,-27,-5,-3,-7,-24,-29,-13
38,1,-15,-14,-11,-5,-10,1
-88,-23,-2,2,3,4,-6,-29
103,63,16,6,5,4,6,40
-51,-32,-25,-16,-12,-15,-21,-52
-9,-30,-12,0,8,14,4,0
15,-8,-4,-4,-5,4,7,8
-41,-30,7,10,12,3,-4,-6
54,27,0,-5,-6,3,3,15
-82,-27,-10,-6,-4,5,19,7
100,58,9,-2,-9,-23,-23,4
-61,-35,-8,1,7,21,15,6
-21,-1,-6,-8,-11,-9,-1,12
77,50,7,-1,-8,-8,-19,-14
-62,-34,-10,0,10,9,8,-17
-18,-14,-6,-4,-10,-24,-11,-3
-71,-37,-9,-7,-8,7,15,-7
70,10,0,4,10,-3,-10,39
-92,-28,-12,-8,-11,-10,-26,-70
42,-2,-12,-13,-12,-21,-29,-30
-87,-27,1,5,0,-14,3,-20
59,18,-1,-6,-2,9,9,14
-48,-12,1,2,4,11,1,-11
36,9,6,4,5,7,26,34
2,10,-8,-14,-10,-7,-9,-2
70,-4,-4,-4,-11,-22,-24,-21
-58,10,4,2,2,6,1,0
-13,-7,-5,-3,-9,-9,-7,-11
50,9,2,3,7,7,11,24
-55,-14,0,1,1,3,-17,-46
19,-13,-6,-3,-11,-33,3,25
-31,-14,3,7,17,31,-12,-14
11,0,-3,-2,-2,-9,-10,-22
-17,21,17,7,5,9,20,26
45,15,7,3,-8,-34,-17,-27
-4,-14,-9,-3,10,45,6,-13
-47,-40,-10,-2,-5,-25,-12,-11
-19,5,2,-1,-2,-6,7,11
22,2,-6,-4,1,13,0,-1
21,6,2,2,-8,-23,-5,-10
11,-14,-12,-7,2,30,22,23
-7,7,-1,-1,-6,-24,-21,-5
2,15,8,7,10,25,10,7
-45,-1,7,0,-5,-12,0,-2
91,42,14,9,6,10,18,28
-80,-65,-16,-4,-1,-6,-6,-13
108,62,13,3,7,26,24,49
-62,-25,-10,-5,-8,-18,-20,-36
45,37,14,4,1,-6,-2,5
-28,-15,-4,-5,-6,-9,19,27
-35,-27,1,7,16,30,17,12
45,22,-1,1,-1,4,7,9
-6,-6,0,1,1,-5,-13,-15
14,9,4,3,-8,-4,11,14
-36,-45,-24,-12,-6,-14,-12,-8
-1,16,10,9,17,20,15,30
-17,-2,-6,-6,-7,-15,-13,-20
29,15,-2,-2,1,4,7,2
-2,-14,-10,-10,-13,-9,6,25
-32,-30,-9,-10,-21,-41,-25,-19
44,15,15,17,23,36,26,42
7,32,5,-3,1,8,-6,-28
-1,-17,-12,-8,-13,-19,-20,-32
-30,-11,-6,-6,-3,-5,-15,-29
-39,-23,-3,-3,-7,-4,11,19
4,-3,-6,0,6,5,10,25
11,11,17,8,6,5,-9,-7
47,41,9,-1,-8,-5,5,8
-46,-22,0,2,1,-2,-8,-20
-26,-13,-8,-5,1,11,2,-16
-47,-15,-3,-5,-6,-8,-2,6
-2,-13,-4,-3,-7,-10,9,5
5,1,-6,-3,2,15,10,19
37,27,3,-1,-1,7,2,-2
-1,5,0,3,1,-4,-18,-14
1,-4,-1,-1,-7,-21,4,9
-6,11,4,2,3,2,-3,-3
-7,-3,0,-1,1,11,-6,-15
58,6,6,5,5,12,25,43
-62,-8,-2,0,1,0,-8,-16
40,27,0,-2,-5,-13,-16,-26
-7,4,4,4,2,1,9,2
3,0,0,-5,-1,-3,-5,-11
-32,-21,-6,-2,1,18,24,20
-31,-27,-6,-3,-2,-16,-32,-5
39,31,11,5,1,-6,-14,-9
9,25,7,0,2,5,11,15
3,1,2,2,3,10,-8,-23
-63,-36,-7,-3,-6,-14,-13,-39
57,15,-3,-3,-6,-14,-10,9
-42,-28,-14,-9,-7,4,9,12
60,26,1,-3,-7,-4,7,24
1,13,13,10,8,16,8,-2
-22,-21,1,5,4,-11,-11,7
-46,-10,-6,-3,-5,-14,-24,-44
-20,-24,-12,-7,-4,2,-2,-4
48,25,6,3,7,17,13,23
-33,-16,-1,-3,-11,-29,-11,-12
1,-1,-2,1,-3,-9,7,5
-2,-10,1,1,8,15,5,1
-10,2,-7,-7,-9,-9,-3,7
28,12,3,-2,1,10,7,-1
8,3,-4,-5,0,5,14,12
60,28,7,5,4,-11,-8,8
-57,-36,-10,-4,-1,8,21,24
13,19,10,7,5,0,-11,-8
-69,-16,0,3,-3,-5,-15,-40
-46,-35,-8,-1,4,10,12,16
98,59,9,-4,-8,-11,-20,-33
-11,-18,-8,-4,0,7,4,5
2,-13,-1,2,2,-6,-14,-7
-15,-3,-6,-7,-9,-4,-3,-3
-1,-10,-2,2,5,3,14,19
-54,-16,-6,-9,-6,-11,-7,-29
35,22,1,-2,-6,-12,-18,-16
-34,-26,-10,-4,8,32,10,-2
-8,-2,4,6,-2,-25,-9,-9
43,-2,-9,-6,-4,10,9,-2
41,21,6,0,0,6,14,28
-14,-4,-6,-4,-12,-11,-5,-13
33,16,9,1,1,-2,4,36
-97,-60,-15,-5,-1,7,-2,-23
12,14,-3,-3,-7,-22,-19,-8
23,-1,-10,-8,-12,-17,-28,-42
18,12,4,0,4,16,12,7
-49,-29,-3,3,2,3,9,20
17,20,-4,-5,-2,-1,-7,-9
12,-3,0,-3,-5,-10,-8,-1
-70,-30,-13,-1,2,7,5,-18
50,10,3,-1,-6,-22,-15,15
-6,-12,2,3,11,32,27,12
-8,17,10,6,-2,-16,4,8
1,-5,-6,-5,-1,-18,-35,-27
65,25,11,6,0,-4,4,22
-63,-32,-16,-6,12,57,24,-13
1,-5,-3,1,-1,-17,-24,-13
-3,-6,-3,-4,-8,-6,0,-2
-42,2,-2,-4,-4,-6,-12,-26
59,15,6,3,0,-8,3,22
23,7,4,0,2,5,16,29
-27,-8,1,5,4,2,-5,-18
43,5,-4,-1,1,3,11,18
14,6,-3,-8,-15,-16,-11,-13
-8,5,5,5,3,-4,-4,-11
59,22,1,-3,-4,8,20,27
-52,-33,-9,-7,-7,-18,-23,-11
-13,-2,6,6,5,-3,-10,1
26,25,4,-4,-4,-6,-7,-9
-14,-2,-3,-2,-7,0,-2,-12
-65,-17,-3,1,3,11,10,-5
91,31,8,3,6,6,14,34
-56,-21,-8,-4,-4,-7,-10,-23
21,7,2,-1,-2,-2,-1,6
24,9,0,-1,-3,10,15,13
-55,-4,3,-2,-13,-46,-28,-27
-12,-4,9,12,22,40,16,21
-37,-12,-5,-9,-6,-6,-23,-53
-4,-11,-5,-3,-5,-15,-15,-14
-78,-21,-7,-1,5,14,13,-10
55,16,3,-2,-4,-3,2,20
-6,0,-3,-3,-4,-12,-6,-4
-18,1,3,3,6,22,10,-1
-11,-17,1,1,-1,2,5,6
-35,-26,-17,-11,-11,-23,-19,-29
29,21,7,4,1,-7,-5,0
0,5,2,0,-1,-2,-3,-7
29,14,-4,-4,-2,1,7,11
-6,1,5,4,2,7,7,5
1,-10,-4,-3,-3,1,15,35
-33,8,4,1,-2,-11,-1,-11
-58,-48,-7,2,10,10,-23,-26
57,31,4,1,0,0,1,-26
22,24,10,3,0,-1,-6,2
14,6,-1,1,1,3,21,31
-13,-19,-6,-5,-7,3,5,0
-70,-37,-12,-6,-3,-23,-5,15
65,9,3,3,7,23,9,12
37,39,5,-4,-4,-11,-23,-18
-22,-17,-4,0,1,4,0,-24
3,1,0,-3,-6,-17,-2,20
-47,-22,-7,-8,-6,-2,9,4
21,-4,2,4,12,24,23,29
10,7,4,1,-1,-11,-23,0
12,4,1,1,0,12,8,5
-104,-52,-17,-8,-11,-26,-10,3
96,53,-1,-4,-11,-21,-10,-18
-1,9,8,5,10,11,8,5
21,5,-3,-6,-6,-3,-6,1
5,0,-2,-1,0,7,1,-3
-40,-35,-12,-5,-6,-10,-8,-5
-49,-22,-4,-2,-5,-4,-3,5
-4,22,2,-1,-1,1,-2,-13
25,17,5,2,5,8,12,13
-46,-27,-11,-5,-1,13,1,-20
46,16,0,-6,-18,-35,-18,1
-46,-28,-4,4,15,43,13,4
0,-1,-3,-2,-2,-5,12,18
-22,-16,5,5,6,4,-1,0
107,42,-3,-7,-7,-2,8,28
-19,-4,-2,-2,-6,-16,-12,-21
34,19,4,4,6,8,7,12
-53,-23,-2,1,5,18,10,8
8,0,0,1,0,-10,-10,-10
61,23,7,0,-5,-21,7,38
-35,-17,-8,-1,2,28,-5,-45
-43,-28,-10,-6,-9,-35,-18,-15
38,7,9,9,12,18,35,41
-117,-30,-8,-8,-7,-5,-17,-51
62,30,1,-4,-6,-14,-10,13
83,15,-9,-13,-14,-9,-16,-8
-33,-13,-5,-2,-2,7,5,-14
17,-10,4,3,5,9,6,16
-15,3,4,6,6,1,1,-9
-13,-6,-1,1,2,0,2,10
-33,-13,-10,-6,-3,17,7,-9
45,21,6,2,-1,-23,-17,12
29,4,-6,-9,-7,-2,-8,-3
-8,6,0,-1,-2,-3,6,1
-3,-5,0,1,-2,-4,0,0
-11,-3,-2,-4,-7,3,0,-6
13,12,13,5,8,16,16,23
-26,-10,3,6,5,-3,-15,-21
-2,1,-2,-5,-1,3,1,9
-15,-13,-7,-1,-4,-10,-2,-17
9,6,-1,0,-2,-10,1,16
20,18,11,3,4,18,13,14
-31,-7,3,4,0,-22,-18,-26
25,3,-7,-3,4,29,21,13
-67,-27,-1,7,2,-10,-22,-30
59,25,-1,-5,-7,-6,-4,5
20,16,5,3,3,3,1,6
-9,-13,-1,2,1,-4,-2,-2
-52,-22,-11,-6,-5,-4,-1,-7
24,18,-2,-1,3,18,4,-2
49,-10,-8,-6,-11,-18,-23,-18
-97,-29,-7,1,-1,-13,-16,-40
57,25,9,1,1,-2,7,16
-26,-19,-10,-10,-9,-11,-8,-17
4,-2,-11,-9,-6,11,3,-23
12,9,5,3,2,-5,6,12
-29,-25,-10,-4,-3,-1,3,9
9,3,0,1,1,5,-5,-3
11,14,7,4,1,4,14,31
-6,-16,-8,-1,0,-2,-15,-28
-1,8,2,1,0,-5,14,6
14,2,5,3,6,7,-3,6
33,20,6,3,5,19,5,12
-31,0,3,3,2,1,2,2
55,16,-3,-3,-7,-5,0,-2
-24,-9,0,0,5,8,-2,-7
-18,-7,-7,-10,-12,-28,-6,3
37,15,4,6,11,25,14,12
-26,-7,-3,-3,-4,-5,-13,-13
-31,-13,-5,-3,-6,-2,7,11
17,-3,-6,-3,-2,-2,-15,-24
11,0,-1,-2,-2,9,14,16
-26,-12,2,0,-1,-18,-25,-4
115,53,13,7,2,-1,14,43
-62,-8,-4,2,4,1,-1,-25
-34,-18,-8,-3,0,-1,1,3
23,0,-1,0,-1,1,-1,-6
-8,-18,-9,-7,-11,-15,-2,-5
-44,-13,3,6,8,10,5,4
82,38,10,3,2,2,-1,16
-25,-23,-20,-16,-16,-7,-4,-15
-9,1,5,4,4,-14,-6,-1
-8,-4,-2,-2,-1,-1,-2,-5
-69,-37,-9,-5,-2,7,0,-16
71,40,9,0,-8,-27,-14,9
-31,-11,0,3,6,3,14,6
-2,11,3,4,9,33,14,-6
30,3,-1,-5,-6,-9,-5,12
-13,-13,-2,1,3,6,-2,-18
-22,0,-8,-6,-5,-5,-6,-18
12,-2,-3,-3,-4,-13,-9,4
-39,-13,-4,-3,-2,-1,8,4
29,25,11,6,4,0,-1,-8
33,15,-2,-5,-5,5,-2,-2
-5,-13,-1,-1,1,-6,-1,18
13,14,4,2,-3,-3,6,9
-11,-1,3,2,3,16,8,1
-67,-38,-6,-1,-1,-2,1,-2
54,40,6,0,-3,-3,9,28
42,10,-2,1,3,3,9,19
-23,-10,-8,-3,3,4,-2,-6
-7,-8,-1,-2,-10,-18,-19,-21
-28,-19,-6,-2,1,6,0,-6
14,1,-2,-3,-4,1,7,-8
29,14,2,-1,0,1,-1,18
-34,-11,2,2,1,-7,-14,-7
-20,-20,-9,-9,-9,-8,-2,-6
32,19,8,2,1,-15,-13,13
-14,-14,-5,-1,4,10,-3,-32
12,10,-3,-6,-2,1,0,-8
-84,-44,-8,2,-4,-22,-15,-27
99,67,14,3,7,12,-2,8
-47,-14,4,4,4,0,9,24
-10,3,-2,0,0,5,-1,-11
-7,-9,2,-2,-6,0,5,2
-6,-10,-9,-4,-6,-11,-8,-8
12,19,12,8,3,-1,-4,3
-8,-8,-2,-1,2,20,19,7
-44,-21,-5,-3,-9,-41,-22,7
11,-2,0,0,6,29,6,-1
64,32,4,0,-1,-2,2,21
-46,-16,-1,-3,-5,-11,-20,-32
-26,5,4,3,3,10,7,-1
-49,-34,-8,-5,-4,-10,-3,-5
-5,-8,-15,-10,-7,-11,-13,-29
-2,-1,1,1,3,11,14,15
24,0,0,0,1,0,2,0
-6,1,0,-1,-1,-13,-12,-17
-84,-35,-3,-1,-5,-9,5,-2
85,24,-1,1,7,24,9,28
-1,-3,-6,-6,-3,14,16,-2
23,12,5,2,-4,-1,-3,8
2,-6,-4,-4,1,1,-5,-14
-98,-41,-15,-9,-10,-12,-13,-38
45,27,-4,-4,-1,-3,-9,1
-87,-29,-5,-2,-3,-9,-8,-24
74,13,-8,-4,-4,0,7,20
-4,-5,-2,-1,-2,-8,-13,-11
77,54,17,8,9,21,8,8
-23,-16,-4,-2,-10,-34,-22,-3
-14,-4,-2,-1,0,13,10,1
-31,-13,0,-3,-4,-15,-12,6
9,7,-3,-3,-1,-5,0,-10
19,2,-4,-2,-5,-1,-6,-8
-10,-2,-2,-2,0,16,3,1
24,7,7,4,-1,-22,-17,3
-83,-26,-2,0,2,1,-15,-31
33,13,-2,-3,-5,-14,-2,-5
10,14,3,5,11,33,19,21
9,2,-5,-6,-12,-21,-22,-15
-25,-25,-6,-5,1,0,3,2
11,4,0,-1,0,-9,-3,-6
18,7,4,0,-4,-8,-4,8
5,3,2,4,5,4,16,7
-78,-39,-10,-5,-6,-4,-13,-20
3,29,2,-3,-3,5,-4,0
8,4,0,-3,-5,-11,-2,7
-22,1,2,-1,1,5,1,-9
-1,7,4,2,1,1,2,-2
-55,-38,-10,-2,-1,-1,-5,-22
-22,-10,-1,-3,1,11,10,3
26,8,2,3,1,-21,-18,4
31,2,-3,-2,-8,-6,-5,-3
0,-2,1,4,11,19,10,9
-5,-2,-4,-3,-5,-11,-6,-10
-8,-4,1,-1,2,4,9,12
2,-3,-1,-1,-10,-14,3,6
22,9,0,-4,5,11,2,2
-15,-10,-5,0,-3,-20,-22,-18
23,13,3,1,0,2,20,28
10,-6,0,0,4,5,2,12
2,16,9,3,-8,-5,-9,-18
-28,-15,-3,3,4,2,5,-2
-31,-16,-12,-7,-6,2,-1,-19
102,45,8,1,1,-6,-10,17
-29,-23,-8,-4,-1,-1,-3,-5
74,25,2,-3,-5,-6,-14,-14
-47,-15,-4,0,2,10,5,-2
-28,-16,-5,2,3,7,1,-1
-20,-18,-8,-1,-1,0,1,-4
-40,-12,2,4,-1,-5,2,4
87,40,12,6,9,14,20,34
3,4,-5,-6,-4,11,1,-17
8,7,3,-2,-3,1,14,16
-23,-17,-6,-6,-5,-12,-15,-10
-16,-1,4,1,2,11,7,6
-4,-4,1,0,0,2,9,10
27,12,0,1,1,-9,-4,12
-31,-11,-6,-4,-3,-3,-4,-12
10,1,2,-3,-8,-11,-1,4
17,7,-2,0,5,13,9,8
-23,-14,-3,0,2,18,0,-8
-72,-35,-7,1,3,-12,-12,-3
68,27,0,-3,-3,-5,-11,-6
30,26,7,-1,-3,-2,3,11
36,11,-1,-1,1,3,14,29
-34,-21,-12,-9,-12,-17,-10,-17
-94,-31,-4,1,3,13,9,-4
52,15,-1,-2,-4,-5,-12,-15
22,14,7,0,-1,-14,-9,2
42,22,4,-1,0,18,25,13
-47,-29,-8,-6,-5,-31,-30,-18
-44,-25,-2,0,2,10,-3,-11
8,9,-4,-3,-3,0,8,15
40,14,1,0,3,9,10,17
11,5,2,1,0,4,9,8
-5,2,3,3,6,20,6,1
-40,-19,-5,0,-1,-12,-13,-17
-16,-3,1,1,0,-1,-2,0
40,25,7,0,-1,3,7,10
-29,-20,-9,-8,-9,-20,-6,0
-6,-5,2,-1,3,22,4,3
1,-10,-2,-3,-1,3,6,-3
-32,-14,-4,1,1,-10,-10,-4
-3,9,-1,0,2,3,10,11
31,8,4,0,-1,-8,-10,-14
51,49,15,5,0,6,8,17
-2,2,-3,-2,1,14,0,-19
-16,-16,-7,0,2,-7,-7,-3
-30,-8,-5,-3,-7,-7,-2,1
32,-5,0,0,-2,-6,-13,-15
-8,-3,-1,0,2,7,11,8
-23,-1,-3,-4,-11,-39,-13,-8
29,2,2,6,14,31,22,0
-98,-49,-12,-3,-2,-17,-24,-39
50,31,6,4,2,10,10,23
55,16,8,3,-1,-9,-3,2
-10,-5,-1,-3,-8,-6,-1,0
-6,-2,-3,-4,-7,-17,-10,-7
-12,-12,-6,-5,2,19,8,-12
-13,-8,-2,-2,2,5,-4,12
-62,-25,-1,8,-1,-13,-1,4
109,72,17,7,8,24,19,26
-26,-22,-11,-7,-13,-26,-30,-30
-9,-5,-3,-7,-2,7,13,9
-21,-13,-5,-6,-1,-2,-4,-5
-66,-37,-14,-7,-6,-5,-1,-3
4,-7,-5,-5,-2,2,-8,-17
44,30,7,1,-2,-9,-3,0
42,18,-1,-4,-4,3,-15,-16
-14,-6,-1,1,2,8,5,10
11,-17,-1,0,2,10,17,17
-24,3,2,2,-4,-9,-12,-17
9,6,-2,-3,-4,-13,-1,2
20,10,4,1,6,0,-7,13
-53,-27,-4,3,6,10,12,3
-6,-14,-6,0,3,5,3,8
4,9,4,-2,-6,-8,-4,-6
-5,1,0,-1,-2,-7,-12,-18
7,4,-3,-4,-6,-3,6,2
-14,-9,1,4,5,-2,2,6
-26,-11,-8,-9,-3,0,-4,-15
-34,-19,0,1,0,-1,1,-7
83,40,5,0,-4,-11,-4,21
-3,-6,-7,-5,-4,-8,-7,-13
-32,-13,-5,-3,1,4,-12,-31
-17,-11,-2,-1,-3,2,-3,8
-39,-17,-4,-1,-5,-21,-6,-9
-28,-13,-3,3,13,32,13,0
72,44,14,7,0,-13,3,34
39,16,2,0,-1,1,5,4
7,5,2,0,-3,-4,-8,-12
-44,-24,-8,-7,-7,-9,-19,-24
-30,-23,-4,-3,0,6,14,21
17,12,-1,-2,1,-1,0,-8
22,8,-4,0,2,1,-5,6
3,6,4,3,-2,-4,-3,-17
5,5,1,-3,-2,1,-19,-12
2,-7,-5,-3,-2,-3,17,11
-25,-20,-3,0,4,10,7,8
3,6,2,-2,1,1,-5,-4
14,1,1,2,-7,-20,3,-4
-45,-20,-6,-1,-1,6,-8,-16
22,18,8,3,2,1,-5,-3
61,25,4,1,-1,3,20,36
-43,-28,-7,-1,3,2,-3,-19
47,32,11,5,3,3,14,30
-20,-9,-3,-5,-3,-7,-21,-30
11,5,-2,-2,-1,3,3,8
-2,-5,1,0,2,6,-3,8
16,0,-2,0,-1,-8,4,27
-12,-5,1,1,0,-2,-2,-4
-4,-3,0,1,-3,7,7,-3
-51,-21,-7,-2,-1,-5,-4,-9
75,38,5,-1,-4,1,5,6
27,21,3,-1,1,1,5,17
-49,-16,-4,-4,-5,-4,-17,-41
25,21,0,-1,-4,-15,13,19
-82,-55,-12,-1,5,-1,-10,-28
-33,-17,-7,-5,1,14,3,-6
98,71,16,6,2,1,5,26
-16,-6,0,-1,0,4,3,2
-13,-4,1,-1,-4,-6,7,3
-17,-11,-6,-2,-5,-9,-3,0
-32,-29,-6,-4,-2,-2,2,-5
-20,0,-2,-3,-3,-4,-11,-18
17,8,2,0,-3,9,15,6
-19,-6,0,0,4,-12,-25,-8
30,4,0,1,2,14,25,38
-28,-20,-12,-5,-8,-18,-25,-31
2,3,2,1,4,11,-7,-15
-39,-22,-8,-5,-6,-3,7,-5
7,16,3,2,1,-2,-1,2
47,19,2,-1,3,6,9,11
-25,-14,-3,-4,-5,-5,-10,-2
-10,1,-3,0,-2,-4,-9,-20
-56,-38,-7,0,1,1,-7,-9
44,22,5,3,3,19,25,31
57,12,-1,-1,-2,-2,-9,-11
-48,-5,-1,-1,-5,-23,-24,-25
38,10,-1,-2,-1,2,-9,-4
-10,-4,-1,-2,-6,-15,-10,-13
-26,-3,-2,-1,2,6,2,-14
8,-5,0,0,0,6,11,14
-48,-24,-6,-4,-6,-12,-13,-16
43,20,6,0,1,12,11,25
-31,-12,-2,0,4,-4,-13,-15
9,0,0,-1,-8,-9,3,0
-17,0,-1,1,2,0,6,1
13,-2,-1,-2,-6,-14,0,12
-23,-5,-3,-4,-2,8,-3,-6
20,7,1,2,5,11,7,12
45,10,-3,-5,-2,2,3,2
-17,-6,2,-1,0,-4,4,9
27,13,-2,-2,-6,-13,-7,-7
-15,-10,-6,-2,-3,3,-2,-13
-76,-36,-7,-2,-1,-4,-7,-8
59,33,3,-1,0,7,-1,-4
23,19,9,6,5,3,6,21
12,0,-5,-3,-5,2,11,7
-11,-9,-2,-1,-3,-20,-24,-13
-58,-18,-2,1,0,-2,-3,-19
-49,-27,-3,-1,0,4,3,3
46,17,-4,-6,-2,-1,-6,-6
27,12,4,2,1,1,7,6
13,-1,2,0,1,3,-4,4
4,8,0,-3,-3,-4,0,0
13,1,3,1,2,-5,-3,3
-18,-8,-9,-8,-7,2,-9,-16
0,-3,-3,-2,-1,1,-3,-2
-11,-11,-5,-1,1,17,6,-3
-14,-6,0,0,-8,-42,-33,-8
29,10,3,1,1,1,15,21
-41,-14,-4,0,1,6,2,-7
49,23,2,-1,-1,-11,-15,3
-16,-10,-3,0,1,18,15,3
-11,-8,-2,-3,-5,-8,-2,1
-16,-3,-4,-3,-1,-7,1,2
-8,-3,-3,-1,-3,-1,0,-11
33,15,7,2,5,14,18,19
-3,-2,-6,-2,-9,-23,-18,-12
-54,-33,-9,-3,0,8,-1,-18
20,19,4,-1,-4,-7,5,24
-39,-7,-4,-3,0,8,-1,-17
0,1,0,-2,1,5,8,11
0,-4,-4,2,3,12,-5,-2
-35,-27,-11,-6,-7,-21,-13,-23
39,10,1,-1,1,6,4,15
-7,0,-2,-3,2,6,0,-7
10,-4,-3,-2,-5,-10,-6,-9
-34,-21,-8,-4,-4,-6,-2,-10
24,11,0,1,3,15,19,4
-41,-17,-5,-1,-2,-6,-12,-11
63,25,4,-2,-3,-7,2,10
-18,-3,1,1,-3,-3,-10,-18
-13,-4,0,4,5,-6,-7,1
46,23,6,1,8,21,14,10
-18,-6,-4,-3,-4,-12,-12,-11
-25,-12,0,1,3,14,7,-4
-12,-11,-3,-3,-5,-5,-5,-10
30,24,6,4,0,0,3,7
-6,-2,-2,-1,3,14,6,3
6,3,2,0,-4,-25,-16,0
-11,-4,-3,-2,-9,-11,-4,1
-51,-22,-4,-1,5,1,-5,-18
42,22,6,-3,-3,-1,0,2
-20,-15,-7,-4,0,5,4,0
-22,-7,0,0,-1,-5,-5,-9
9,6,1,-2,-7,-14,-12,-12
-14,-13,-9,-4,3,7,4,-4
-6,-2,2,-1,1,-3,2,0
-28,-15,-1,0,0,3,8,10
49,18,2,0,-3,-4,-1,-4
15,6,2,2,1,8,9,16
1,-3,-4,-1,-5,-11,-8,-11
16,16,6,3,2,7,8,12
-40,-20,-4,1,0,2,-7,-16
-14,2,7,5,-1,-16,-4,4
23,9,6,3,5,22,12,7
3,3,1,0,1,10,5,0
-18,-8,0,1,4,-3,1,20
53,15,-8,-8,-10,-19,-22,-27
-22,-9,-3,-1,-5,-12,-5,2
-11,-6,2,1,0,4,-1,-1
0,-9,-5,-1,0,1,10,15
-20,-12,-1,1,0,3,-3,-12
15,7,-2,-1,0,-2,0,8
25,10,-1,-3,-2,-4,-1,-2
-29,-16,-7,-4,-3,2,4,-14
-3,2,0,1,5,6,6,9
-14,-8,-2,-8,-10,-20,-20,-24
17,9,-3,-1,1,16,23,17
10,3,3,-2,-1,-2,-7,-4
-1,-1,1,7,5,7,3,10
-2,4,-1,1,3,5,6,7
15,5,-4,-9,-10,-21,-8,3
-8,1,5,4,2,4,-7,-12
-38,-18,-6,-2,-1,-4,-5,-7
65,26,0,2,2,4,3,13
-43,-13,-4,0,1,-5,-9,-22
20,10,-1,-3,-4,-5,0,3
-46,-16,2,-4,-7,-6,-9,-16
15,1,-2,-1,2,3,3,-1
3,-8,-4,-4,-5,-1,-10,-13
-21,-5,-4,-3,-1,5,4,-4
-14,-4,1,0,-2,-12,-5,8
-9,-10,-5,-3,-2,-6,-2,-11
29,21,7,5,6,5,-12,2
11,-2,-1,-1,-2,0,9,17
-33,-21,-5,-1,0,14,10,-3
52,18,-1,-2,-7,-25,-21,7
13,7,3,2,-2,-10,-6,5
-15,-13,-5,0,3,5,2,-8
15,-1,-3,-5,-3,1,6,17
-25,-13,-6,-4,0,8,1,-5
-18,-11,1,3,-1,-4,3,-1
22,7,-3,-3,-4,-4,-7,-1
32,23,7,5,4,7,-4,1
-25,-6,1,4,6,11,13,21
13,9,1,3,4,3,0,-3
-8,-1,0,-3,-3,1,1,0
4,-1,-1,0,3,9,16,13
-13,11,10,0,-7,-11,-11,-2
-8,-10,-7,-3,0,10,8,6
-37,-19,-4,-1,-5,-8,-5,-20
13,13,2,1,-1,-3,-3,-4
17,10,4,0,1,7,8,12
-18,-16,-7,-5,-5,-3,-9,-9
2,6,2,-3,-8,-9,-6,-1
-39,-30,-9,-5,-4,-5,-1,-14
33,17,1,2,6,10,-1,-7
-11,-7,0,-2,1,2,10,7
29,16,3,2,3,4,3,1
12,6,5,1,-2,-21,-13,14
-15,-15,-10,-9,-7,3,-6,-12
28,11,4,0,2,11,15,18
-70,-28,-5,0,2,2,-8,-23
50,27,4,0,1,-11,-13,5
-32,-20,-6,-2,-4,-2,2,-15
-1,2,-1,0,-5,-12,-9,-4
12,-3,0,1,2,8,10,9
14,12,1,2,4,9,2,2
6,4,-2,-3,-7,-13,-10,-14
-13,-13,-12,-8,-7,-9,-17,-26
2,-1,-1,-4,-4,-16,-1,15
-11,-9,-4,-3,0,3,12,11
-1,-7,-4,-4,-1,-3,2,6
6,4,1,-1,0,9,4,-1
16,4,-2,0,2,-9,-10,2
-48,-18,-5,-5,-3,0,-2,-13
41,16,3,0,0,-3,-3,8
7,1,-1,-2,-3,-7,1,6
-10,-7,-6,-3,-2,5,3,1
-21,-14,-7,-5,-4,-6,-12,-20
-33,-16,-2,2,3,-1,1,-5
-2,-2,-1,-1,-2,-1,1,7
3,5,0,-3,-7,-11,-1,-5
29,6,-2,-2,1,5,5,8
-35,-15,-4,-2,1,22,13,-13
-49,-24,-8,-4,-5,-30,-33,-11
90,46,2,-3,-2,4,12,37
-16,-9,-9,-13,-18,-27,-41,-58
-34,-17,-6,0,-4,-11,1,-7
-9,-7,6,4,12,27,17,8
1,2,-4,-3,-1,-7,-8,1
-1,3,3,3,3,14,1,0
16,4,3,-1,-4,-6,4,13
-9,-6,-5,-3,-7,-13,-4,-14
0,1,5,6,7,8,-2,5
21,9,4,3,3,6,15,16
-24,-7,-4,-6,-3,2,-8,-14
9,4,0,6,2,0,11,21
5,4,0,-3,-7,-18,-18,-19
-8,-6,-4,-1,3,9,5,-3
-7,-1,1,2,5,1,8,15
26,7,1,-3,-2,0,-15,-28
10,5,3,0,1,8,13,12
-9,-3,1,2,-3,-6,-9,-4
-26,-11,-2,-2,-1,-1,-4,-3
51,22,1,-5,-4,-6,4,4
-34,-22,-6,-1,5,15,-2,-14
-4,-4,0,-1,2,7,12,9
19,10,1,0,-2,-10,-14,1
-52,-16,2,4,0,-15,-6,-4
31,1,-5,-3,-3,11,-2,-4
16,11,1,1,0,3,7,4
-34,-16,-6,-4,-8,-16,-14,-18
-25,-17,-15,-12,-7,-2,-15,-25
-33,-13,0,-3,-5,-3,4,8
34,8,-1,-1,-4,-3,4,5
39,12,5,4,5,6,3,7
20,15,9,1,1,-1,2,19
-36,-18,-2,0,-2,1,-1,-17
3,3,3,1,0,-4,4,19
-11,-6,-7,-5,-1,-1,-2,-6
55,25,7,4,3,11,19,13
14,7,1,-1,0,-2,-6,4
-14,-10,-2,-2,-4,-14,-9,-5
-18,-10,-6,-2,-3,-7,-4,-10
-26,-19,-9,-4,2,11,9,4
-39,-14,-3,-4,-2,-3,1,-5
50,28,6,2,1,0,4,12
-10,-1,3,0,-1,9,2,-5
-11,-4,-3,-1,-5,-20,-16,-12
22,6,4,4,2,0,3,6
-35,-10,-4,-1,-2,-3,-8,-8
23,11,0,-3,-2,-6,8,17
-23,-9,-2,2,8,20,10,6
-10,3,4,1,-2,2,2,-10
-13,-8,-3,0,-1,-7,-16,-9
45,21,6,0,2,9,9,15
-8,-7,-4,-5,-10,-6,-10,-17
-14,-11,-4,3,4,-1,-1,1
-38,-23,-5,-4,2,4,5,1
34,20,8,6,4,4,5,13
-14,-7,-3,-3,-4,-6,-7,-6
5,3,-1,-3,-6,-9,-6,-3
0,2,-4,-1,-3,-1,-1,-10
