-2,1,4,5,2,-3,-5,-2
-58,-25,-7,-1,-2,0,-1,-12
18,5,-3,0,-1,0,1,6
22,6,0,-2,-2,-2,-1,1
-3,3,8,-2,-2,-1,-2,0
14,3,0,4,3,-1,-3,0
-34,-13,-4,-5,-5,1,0,-7
-19,-3,1,-4,-7,-11,-2,-5
-12,-9,-9,-5,-4,-11,-14,-12
44,12,3,3,0,7,10,13
6,4,1,5,11,2,-4,3
-45,-15,-3,-4,9,30,28,6
32,3,0,3,-1,0,2,8
3,6,-3,-5,-7,-9,-7,1
-14,-5,1,-5,-12,-12,-4,-3
-9,-8,-1,6,13,1,-7,-3
-3,0,-1,-12,-9,0,2,0
7,6,-1,-2,2,5,4,1
3,3,1,3,-1,-6,-11,-9
-11,-4,-9,-32,-52,-24,-18,-12
-2,0,3,38,41,16,17,4
-15,-11,-1,-3,9,9,-7,0
18,8,-5,-1,-4,-1,8,5
1,-6,-4,-1,-4,-6,-10,-8
-23,-4,3,-9,-13,-4,-1,0
-20,-6,-3,1,-3,-1,-1,-5
4,-1,6,8,4,0,5,6
41,10,-7,-1,13,3,-5,4
28,0,-6,-16,-16,-4,-7,-2
-55,-22,-4,6,12,10,18,1
-25,-15,-6,-8,-13,-11,-21,-11
13,0,-4,-5,-3,0,-5,-11
-8,2,-3,3,-7,-15,-21,-17
-21,-18,-4,-3,14,5,-6,-1
53,9,-13,-34,-26,1,38,32
-12,11,13,26,25,17,4,-2
-2,-12,-6,-7,-6,-13,9,23
-40,-25,-18,-3,0,-16,-57,-62
18,9,4,-2,-6,-19,-17,-2
30,24,-3,1,-5,-4,17,9
-44,-19,-10,-17,-12,-3,7,-3
38,-11,-1,-2,-12,19,25,33
-23,14,-1,-9,2,-9,-25,-21
-11,-11,0,5,0,0,-8,-12
-18,4,2,9,16,0,-6,-9
-71,-22,-5,-7,-5,-1,7,-5
88,63,24,15,13,31,20,33
-89,-29,-15,-16,-21,-20,-11,-20
61,15,10,13,2,2,2,18
7,-7,-17,-2,6,-2,-15,-2
-71,-34,3,9,-1,-5,3,-18
50,26,7,-4,-4,-9,-2,21
21,9,-2,-8,-9,2,-13,-19
-23,-2,2,10,-71,-93,18,14
21,-4,-9,-10,62,88,-44,-42
-20,-15,8,20,53,49,61,29
-17,-5,2,-8,-55,-5,11,3
71,28,11,28,82,34,-13,10
-42,-6,2,17,-31,-43,-1,1
-36,-27,-15,-20,-26,-21,10,-2
18,32,17,-18,28,26,-13,11
47,31,25,16,-38,-16,-9,-4
-66,-7,-27,-26,-29,-30,-17,-45
17,-52,-21,2,14,-14,-41,-29
-71,-17,5,2,0,8,50,21
5,-43,-27,-28,10,25,2,-11
-30,30,37,-24,-17,5,25,42
86,70,24,49,27,7,-27,-13
-58,-26,-20,9,-19,-49,-28,-26
14,6,0,-15,-49,-38,-16,0
-4,-18,-5,8,15,26,19,-12
-15,2,8,-14,21,64,42,36
20,-3,1,-9,-12,-26,-43,-1
-40,4,9,18,58,57,24,-3
106,34,0,14,-31,-32,-2,43
-51,-10,-3,-20,-55,-74,-33,-27
-38,-26,-17,-32,3,77,-10,-26
27,27,31,28,71,78,59,25
5,-21,-16,-35,-12,-7,-6,27
55,23,8,26,16,6,-12,3
-68,-12,-6,-12,-27,-63,-49,-46
46,31,1,20,17,-8,3,20
-3,-24,1,1,27,17,-2,-13
-1,1,-5,-8,-18,-18,9,9
-37,-46,-28,-13,-19,-13,-34,-26
30,68,48,6,5,9,-12,17
-42,-57,-57,-5,-16,-23,-11,-48
53,14,14,-8,16,19,26,19
9,-2,3,12,-21,-26,8,-3
13,13,-17,-34,-11,22,-4,16
4,2,-7,-16,-36,-31,-5,-2
-65,-26,-15,13,11,3,-3,-8
102,74,24,19,39,6,6,14
-53,-85,-25,5,-56,-74,18,18
-53,-17,-4,-2,0,18,-11,-43
80,20,21,3,47,69,38,56
1,6,1,4,27,30,-17,-22
-23,26,0,-25,-36,-28,-8,-25
37,10,17,13,-26,-57,0,15
-30,-8,-11,17,8,-14,-2,-15
-1,-1,-9,-14,-25,-4,-43,-25
22,-27,-6,-18,24,24,14,-13
-72,39,46,52,61,42,29,20
105,31,-15,-68,-86,-84,-31,-9
-28,-49,-11,18,32,39,41,21
-70,-53,-13,-3,-21,-51,-45,-47
-14,22,16,16,60,98,58,39
5,18,-9,-22,-43,-33,-14,-16
2,23,-1,2,-37,-34,37,34
33,-13,3,22,28,25,-5,-6
-30,11,-6,-6,-9,-46,-29,-6
-71,-69,-19,-14,-9,12,-43,-61
79,49,4,3,35,23,24,12
-56,-17,-8,-5,-15,-25,-20,-13
69,-35,-24,-19,-75,-52,6,44
-29,28,26,-2,-12,-12,-51,-28
-77,-64,-22,-6,5,25,40,33
48,63,7,-16,4,14,9,16
92,36,5,10,-5,-32,-27,-13
-127,-95,-41,-4,2,-4,-30,-25
127,77,27,12,19,17,45,39
-110,-53,-41,-30,-54,-70,-38,-53
-32,-46,3,-2,79,92,43,10
85,53,8,20,22,11,18,32
-72,-14,22,-1,1,-16,1,2
45,49,14,11,-9,6,3,11
-5,-30,-29,-59,-30,-11,-3,1
-58,-65,-11,31,42,9,24,11
2,35,12,13,20,1,-9,-15
26,48,19,5,8,47,23,6
-42,-26,-3,-10,-26,-55,-43,-56
-4,-5,11,3,17,38,30,53
77,39,-9,-4,-5,-17,-15,-11
-100,-98,-59,-18,-9,-8,-32,-49
35,53,29,15,-18,-19,-7,-22
16,-27,-3,13,-9,-10,13,-12
-45,0,-6,9,-10,-22,-7,-1
85,58,13,-28,-27,7,22,40
27,5,13,38,44,54,31,25
-97,-36,-19,-9,-7,-38,-35,-43
-3,-24,-27,-18,9,9,12,2
-5,-37,5,-13,-27,-6,-53,-44
-26,-23,-7,23,16,15,0,21
119,91,27,10,-8,-67,-32,41
-90,-33,1,26,-25,-23,15,-25
42,0,-18,-26,44,61,34,33
-66,-36,14,9,5,-14,-21,-16
63,91,29,3,19,54,38,33
65,-47,-37,-26,-31,-72,-46,24
23,15,8,8,-32,-27,9,29
-13,7,-53,-13,7,46,17,-6
10,-4,41,17,-13,25,68,45
-49,-58,-10,6,-7,-32,-103,-70
-2,12,15,-28,-12,-6,28,18
-9,-8,-16,33,35,-11,-10,-30
57,45,4,21,20,25,37,59
-35,-7,4,-10,5,57,37,7
-41,-34,-3,24,18,-22,-1,10
-41,5,24,-13,-37,5,-43,-24
-51,9,-4,-17,-3,-7,-9,-14
54,-12,-11,-14,-5,-24,-9,6
-11,10,3,18,35,22,-12,-97
21,19,9,-19,-42,-45,37,95
-11,-23,-14,1,-29,-40,-30,-52
3,10,7,8,68,114,26,4
32,13,1,2,-13,-42,-13,9
-16,5,23,10,11,12,3,-20
-22,-51,-42,-21,-3,-2,-8,-3
-3,-7,-22,-14,-29,-22,8,15
-42,29,23,17,-10,-30,-34,-16
18,-27,-18,-2,-3,-6,-9,-6
-43,-3,4,-22,-11,31,22,10
-27,-7,36,17,29,30,31,25
73,38,-6,15,38,41,13,6
-75,-34,-15,-8,-7,7,9,-18
36,5,9,3,-12,-37,-46,-13
18,35,9,-16,-21,-18,4,-8
-58,-52,-45,-17,-59,-14,-22,6
34,64,81,39,90,46,20,-6
65,34,5,4,-1,-25,0,24
-83,-42,-13,-23,-13,-3,-25,-54
-78,-25,-13,-1,14,6,16,5
69,-31,-54,-31,-72,-59,-32,-22
-15,-6,2,-19,-6,26,8,-4
-18,36,7,10,14,-6,-10,-19
61,6,10,-6,-2,-21,11,41
19,58,6,13,26,56,37,-28
-98,-62,-23,-16,-25,-36,-53,-45
63,8,6,5,18,30,47,51
34,-35,-4,-3,-11,-1,-28,-29
-21,26,19,8,7,3,28,39
3,28,-1,-14,-25,-33,-3,-29
8,-41,-25,-1,-6,-6,1,8
-45,5,7,6,14,35,18,8
-10,15,-12,-6,11,0,-7,10
59,-18,-10,-14,-21,0,22,54
-54,-9,-29,-15,-39,-50,-52,-88
10,20,52,28,-1,-23,4,39
-59,-18,-23,-11,-5,13,-7,-27
-38,-57,-32,0,2,-24,-38,-29
60,63,34,8,6,9,19,47
-22,-48,-26,14,11,-27,15,12
75,31,21,-10,57,81,-3,7
-36,17,-12,-23,-47,-24,-27,-49
47,22,31,37,7,8,21,32
-18,-31,-14,8,9,-11,-14,-19
-51,-39,-18,-20,-29,-32,4,-4
35,50,15,10,27,17,1,2
-40,-15,-22,-23,-19,-27,-41,-52
17,-19,-2,-1,6,4,25,40
-1,-31,-10,18,-9,-33,-27,-15
-33,-26,-16,-26,22,31,12,-11
17,39,27,11,31,26,35,19
76,36,2,-1,13,17,-24,-11
-23,-12,0,1,-67,-73,-13,21
31,29,33,26,67,61,32,3
-69,-63,-35,-22,-36,-19,-30,-36
48,47,24,0,26,80,76,53
11,-71,-20,4,10,-44,-49,-19
-12,65,1,-28,-76,-59,-25,-37
21,0,31,8,36,3,-9,9
-71,-6,2,18,27,59,51,-2
-21,-11,-5,0,23,37,30,8
28,29,11,15,-13,-4,-2,9
53,-24,-19,-10,8,19,2,9
-24,-3,-6,-37,-45,-71,-16,33
-12,20,26,30,31,33,46,39
-47,-21,-14,9,6,-17,-17,-62
65,-26,-24,4,-51,-27,9,33
-43,31,-4,-18,12,10,-15,-30
-32,-5,27,22,53,54,45,24
-22,-51,-25,-30,-40,-54,-48,-28
-42,46,5,15,39,15,16,-26
107,27,-6,-2,-72,-68,-44,21
-19,-27,-24,-30,-74,-92,-51,-25
-33,-16,-8,7,56,96,42,18
-59,-39,8,0,70,37,44,19
28,25,7,8,13,-5,10,1
49,32,-23,-30,-24,-22,-8,-7
106,-10,-4,19,-11,-52,0,76
-65,17,-34,-19,-86,-76,-42,-45
-41,-37,8,15,110,109,67,8
-12,-24,1,6,-11,-40,-43,-8
-59,-34,-2,5,-6,6,22,8
99,61,1,-12,4,6,22,52
-50,-31,-11,-2,63,31,-18,-33
8,27,-10,-10,-35,-47,-13,-32
48,31,47,30,68,70,28,29
-40,-27,-14,-12,-6,-27,-17,-4
-4,-20,-4,-27,-79,4,-19,-22
-91,-27,-4,-16,9,-11,-16,-30
47,-13,-3,-14,-11,-31,-16,0
109,74,25,4,-21,-12,24,48
-39,-6,-8,5,-20,-53,-55,-50
24,3,-32,-13,5,66,46,27
-42,-20,8,37,27,18,18,-8
-81,-32,7,-7,-2,35,-19,-47
6,-35,-21,0,-31,-94,-15,20
25,21,-11,-8,12,47,10,-10
6,34,22,-1,10,8,1,0
28,1,3,6,-28,-37,-7,3
-51,-23,1,11,13,-10,-14,-23
43,47,25,17,4,16,24,30
1,-17,-33,-5,-2,6,22,26
0,3,24,2,44,66,19,-4
-2,-26,-16,-17,-49,-19,-41,-19
-55,-20,27,9,-5,-34,-27,-18
91,95,35,19,33,30,44,69
27,8,4,23,-25,-59,-13,18
-24,5,-11,-17,23,34,-5,-27
17,4,19,15,7,-1,-10,0
-118,-88,-42,-33,-36,-29,-42,-67
11,-22,-14,28,33,-26,3,8
7,54,23,-16,14,72,37,12
108,38,35,19,3,-10,13,50
-77,3,6,-15,-21,4,-1,-33
-27,-66,-34,3,-3,2,3,10
10,24,2,-12,-45,-85,-53,-55
28,-15,-24,-24,11,24,-14,-15
8,1,12,24,25,15,10,5
-32,-22,-10,-20,-9,23,5,5
-9,15,6,10,-9,-1,16,14
-37,-16,-6,-7,-35,-38,-30,-42
2,5,2,3,0,-13,3,-2
-24,23,4,-26,-37,3,-26,-45
-3,-17,2,-6,10,7,9,12
-2,-68,-81,-30,-36,-43,-31,-37
65,66,65,19,-4,25,44,95
-36,-14,-4,-14,7,-15,-6,-26
97,77,5,-3,-45,-16,-19,-9
-21,-22,19,15,53,43,25,-2
-109,-113,-57,-4,31,8,-11,-46
113,92,40,18,22,40,55,82
-80,-77,-37,-13,-40,-56,-16,-44
57,32,7,3,32,8,2,28
21,14,8,-1,-5,-11,-30,-13
-3,-35,-12,-8,-20,-16,-30,-28
-7,-19,-17,0,-14,-32,14,0
-79,6,32,12,-7,14,-5,-9
-16,10,-17,0,2,7,17,-1
48,31,17,-10,-27,-7,-19,23
127,46,32,12,33,27,10,42
-47,12,-21,-28,-58,-48,-15,-6
-79,-111,-50,-23,-9,-4,-14,-42
-48,-14,-3,-9,10,7,-3,-9
-4,16,10,13,13,15,-17,-21
-8,-17,-1,0,0,13,26,24
8,-25,-33,-27,-27,-52,-51,-38
73,76,24,11,21,-28,15,40
8,-25,-6,-2,0,29,-12,5
-32,-5,-13,-9,-45,-58,3,-18
-55,-47,-13,-32,-25,-5,-27,-31
-45,-35,-10,2,10,35,11,-23
23,25,4,6,-11,-42,-17,-3
68,43,16,8,45,49,46,51
-28,35,20,8,6,-22,5,2
-66,-118,-48,-44,-60,-34,-54,-71
72,35,-9,-12,-13,5,28,59
-88,7,23,18,-4,-36,-35,-36
5,-13,-20,8,15,61,30,-4
-21,49,54,22,36,5,-5,-1
50,20,24,20,15,-9,4,-5
-19,-65,-42,-14,-12,28,-21,-5
4,7,8,15,-14,-49,-12,9
-6,71,54,4,-53,-49,-20,-22
-111,-102,-55,-16,76,92,64,2
52,104,56,16,22,32,0,11
93,-18,-8,9,5,-5,2,18
-105,-75,-42,-10,-33,-16,7,-18
-8,40,44,8,-8,-30,-14,19
-55,16,21,7,8,24,4,-28
32,-44,-32,-11,-48,-27,-4,10
98,49,30,13,57,52,31,41
-128,-65,-24,1,37,22,-21,-54
70,-6,-23,-9,-4,-39,-35,2
-49,44,34,-1,-5,21,40,1
113,26,-12,22,-20,-64,5,53
-47,-61,-14,-9,21,50,13,-15
65,21,16,19,38,63,35,34
-63,4,-2,-3,23,29,-5,-5
-37,-31,-9,-17,4,-5,-11,-11
-63,-13,4,7,-19,-40,-36,-58
71,68,20,-14,-47,-58,-11,19
42,45,26,19,8,7,15,18
-53,-38,-21,23,51,34,4,11
58,30,9,-9,-35,-19,-8,-6
-60,-104,-50,-15,5,-1,-13,-10
-17,43,43,15,39,46,33,-4
16,-21,-45,-25,-66,-58,-33,-5
53,59,37,36,50,87,50,30
-85,-87,-32,-7,8,-42,-27,-30
54,25,6,-9,-35,-22,-4,-2
-16,8,-19,-1,-21,-5,-25,-30
-1,-4,21,3,55,55,41,31
87,5,-11,-16,-28,-2,12,27
-97,-49,-9,5,8,-56,-64,-40
-23,-21,7,9,-5,-42,-14,-16
68,56,-3,-23,-27,12,18,45
-55,-1,10,7,14,20,7,-45
6,-45,-48,-17,-61,-105,-39,9
22,63,61,3,65,125,44,14
-54,-20,-19,-4,-35,-61,-55,-57
38,6,0,2,9,-9,12,30
7,13,-2,-29,-45,-1,-8,-12
-37,-34,-13,1,23,-1,-11,-14
-61,0,4,-2,-70,-53,-14,-25
78,27,55,32,62,36,37,62
-18,36,-5,-30,-38,33,-15,-29
8,25,17,19,48,60,61,17
0,-16,-5,5,12,-12,-28,28
33,-15,-39,-13,-34,-70,-25,-27
91,67,22,19,48,38,28,29
-97,-54,0,-16,-32,-17,-19,-33
58,1,-21,-19,-7,6,25,41
-88,-41,-7,0,-23,-11,-2,-24
26,9,-14,0,26,-18,-27,-20
55,43,1,-8,-11,7,8,9
-55,-82,-49,-6,34,-19,-24,-22
-64,18,20,-21,-28,42,16,-12
2,3,3,-4,-17,-10,8,-18
28,5,-40,-7,3,-50,-34,15
20,-43,-11,-17,-7,43,34,18
48,46,0,2,4,1,2,-5
-57,-58,-26,-24,-49,-35,-44,-26
3,-17,24,12,12,31,14,3
-19,50,37,20,-2,-23,0,-3
103,-6,-32,-2,-7,1,9,63
-48,10,26,19,29,25,12,-3
-6,-63,-55,-19,-11,-15,-12,-2
-13,7,23,9,-9,-10,-8,19
-59,-4,13,18,43,29,7,-41
66,23,12,17,14,-30,6,49
40,39,23,9,-1,56,43,11
-13,-38,-33,-16,-41,-35,-21,8
-44,2,4,13,57,31,3,-11
25,-11,-11,-12,-8,-5,11,17
15,41,18,15,3,10,2,-14
21,28,-2,-13,-11,-24,-14,-28
-52,-43,-12,4,-35,-22,-14,0
-9,-59,-39,-6,19,20,23,20
63,102,64,16,3,-21,-28,-14
-29,18,23,21,19,17,18,-1
3,-57,-24,-28,-15,11,-9,-7
-12,14,-2,2,17,29,30,-10
-7,-39,-8,-3,-20,-41,-45,27
-3,11,-5,10,4,-2,1,-4
74,28,39,34,13,1,36,28
-28,45,-9,-14,10,34,3,-3
-21,-12,5,-10,-17,-18,-14,-46
49,-16,-21,-1,-16,-28,-4,30
-11,16,30,-13,-30,-14,-18,-4
-24,-44,0,10,-28,-18,-21,-24
-34,-10,-12,-17,36,49,36,-18
17,37,0,0,18,17,-5,6
-13,7,-20,-18,-57,-55,-27,-36
27,-24,-23,-12,1,28,-5,17
-77,-13,26,2,-3,-25,3,3
0,-20,-17,-7,-38,-38,1,-5
77,64,22,4,21,25,-3,12
-30,18,-15,-13,-24,-44,-29,-9
77,-6,-25,5,16,40,34,35
-87,-51,-22,-26,-42,-43,-39,-64
-92,-50,-51,-21,-3,-34,-35,-39
-16,6,51,20,15,-4,5,-15
-52,-20,-20,-4,-24,-4,12,5
82,25,0,4,17,36,27,21
50,45,22,0,-6,-27,-11,53
-46,-87,-38,-10,-2,7,-6,-27
-28,17,17,-5,-22,-32,-42,-28
49,55,22,14,-2,-21,15,23
-34,-60,-32,-19,-15,25,4,-18
56,51,37,26,31,30,31,35
-65,-39,-12,-14,27,13,-21,-42
52,-20,-22,1,43,-10,-11,31
-28,29,28,3,1,15,15,-15
0,-33,-23,-11,-30,6,5,6
35,-1,-15,10,4,-36,10,36
-40,15,16,1,32,74,28,-8
-30,18,-11,-11,-14,-19,-22,-36
14,12,34,15,9,-16,11,-10
34,10,-17,-5,-6,4,-4,13
-11,-7,-20,-16,-23,-12,-26,4
7,-17,-36,-18,13,-3,5,24
45,52,43,23,26,70,70,56
-14,5,0,-10,-53,-62,-64,-43
50,-6,-4,2,44,-18,-11,19
-57,-20,1,12,13,58,32,-12
-6,-3,-9,-5,-16,-40,-38,-18
-67,-30,-15,0,35,29,11,-17
14,-10,25,11,-30,-24,10,7
59,9,-11,7,15,-22,-6,26
-101,-78,-18,-39,-47,-31,-43,-72
-6,7,-9,-7,21,35,19,10
19,58,49,16,-20,-15,-6,-11
74,-69,-39,-1,-22,-47,-15,13
-54,34,58,11,37,61,17,-5
37,-11,-12,-4,-23,-35,-4,3
-108,-55,-27,-13,17,5,-1,-31
40,56,15,-1,-31,-16,23,65
3,-13,-25,-1,44,18,-8,-9
19,33,4,-18,-63,-26,7,10
-15,-32,2,13,10,-7,-15,-38
-90,-42,-4,8,1,25,-12,-32
108,60,2,13,22,8,0,33
1,22,4,-7,-39,-43,7,8
29,19,-3,1,34,70,25,11
-74,-29,18,13,-25,0,1,-21
46,-3,-24,-10,12,-3,1,23
-30,-34,-19,-4,-15,-9,-9,-37
51,55,15,10,6,-38,3,22
-90,-27,-2,-2,41,48,-9,-41
-7,55,61,26,25,39,39,30
63,-22,-29,16,31,30,27,54
-35,-33,-13,-23,-49,-46,-22,-12
96,82,22,13,34,25,19,19
-75,-93,-59,-36,-92,-117,-55,-42
60,29,61,42,83,88,52,45
-114,-46,-64,-37,-49,-46,-36,-69
49,52,58,26,67,87,33,28
25,3,-27,-16,-35,-52,-29,2
6,0,17,1,5,-9,-18,-7
-13,-12,-18,-4,-8,14,3,-9
61,1,-6,-4,-52,-76,-20,14
-53,-30,-35,4,39,31,9,5
-13,-17,10,-7,6,-22,-42,-53
58,38,15,-8,-27,40,26,32
-76,-10,-18,-25,-32,-49,-31,-15
85,4,6,10,12,1,0,7
-78,-23,-21,-25,-53,-25,-34,-54
5,45,31,21,18,10,12,43
13,-55,-15,-18,-12,-28,-29,-40
-12,-8,-17,8,11,36,14,-1
-16,5,-3,1,-10,-35,6,15
-74,-49,-2,-15,16,7,-10,-51
47,-3,-13,1,9,49,33,63
66,101,65,19,7,-7,-4,-19
34,-9,-31,-9,-4,14,19,37
2,28,23,9,-38,-28,13,4
-45,-66,-52,-3,27,2,-28,-41
-1,37,27,13,15,8,6,16
120,16,-10,-8,-38,-28,-16,19
-89,-43,-21,-12,-10,-13,-8,-13
-16,-4,-34,-27,-15,19,14,-12
-49,-10,38,7,-13,11,12,-12
30,49,6,2,15,-10,-5,2
11,-69,-34,-14,-32,-45,-24,-7
-2,6,1,-12,-43,-15,-13,-14
-23,-26,-24,-5,-27,-2,-15,-13
-15,3,2,-23,-12,3,-9,-6
-49,-23,-17,-3,28,53,8,-4
41,61,53,17,-12,-19,22,10
0,0,-6,1,5,-14,6,29
-20,-7,-44,-10,-34,-29,-59,-48
3,-30,17,4,-18,-12,-15,-16
46,50,7,5,17,-9,10,-14
-2,-30,0,14,20,50,57,55
-62,-38,-12,-3,-10,-23,-1,-6
-59,4,14,17,49,56,-5,-29
44,49,33,23,15,-23,-1,21
20,-105,-71,-18,40,13,4,5
39,77,46,16,9,35,26,22
35,54,74,20,12,4,6,14
4,5,3,17,23,14,15,13
-55,-37,-25,-19,-39,-45,-49,-52
-71,-59,-42,-8,9,-5,5,-20
85,63,27,8,-27,-10,-3,35
-91,-72,-32,-20,-10,-38,-19,-58
116,124,52,-3,17,16,11,33
-65,-42,1,12,39,67,30,41
127,75,5,3,-37,-37,1,36
-114,-60,-28,-20,33,26,-16,-44
-20,9,18,0,-45,-45,-30,-51
-64,-27,1,-1,30,5,11,-2
67,-11,-15,-7,-5,15,-8,13
-52,-29,-17,-24,-94,-39,-8,-10
46,19,-4,8,41,32,25,31
38,60,28,11,16,4,0,-6
-44,-12,22,15,-11,-15,-9,-5
47,23,4,-9,25,18,2,3
-27,-24,2,8,11,1,-2,9
0,6,9,20,3,21,24,9
15,-13,-34,1,47,14,20,11
-35,61,93,13,-36,-13,-7,5
-10,-2,-22,-6,-13,-6,-1,-19
30,-24,10,-4,-7,-22,-14,1
-33,-13,-7,6,24,27,20,-15
35,-36,-12,-10,2,0,-5,37
-3,62,57,17,-9,-3,-8,15
-37,0,-14,-14,-47,-33,-23,-45
3,10,0,-9,11,-20,-8,2
7,-20,-30,12,68,48,40,18
-2,-45,-22,-16,-34,-48,-35,-4
0,12,18,-11,-23,-8,-23,-13
4,-17,-17,4,23,36,25,17
-30,40,19,6,-31,-34,-16,-33
-13,-35,-37,-18,-13,-14,-12,12
-43,-42,-21,-7,12,-1,3,0
22,-8,-18,-19,-15,-48,-47,-23
83,60,43,26,3,10,34,40
-32,21,19,15,35,70,31,8
-83,-78,-62,-29,-39,-52,-40,-46
-21,-8,9,7,7,18,17,-6
79,64,47,35,27,10,-1,40
37,-19,-43,-35,-59,-56,-14,4
-18,12,34,29,62,65,10,2
-97,10,12,7,19,16,25,-12
38,-22,-53,-15,-21,-17,-6,-11
-58,-59,-25,-5,9,-1,-21,-27
127,103,33,7,-9,-4,39,72
-95,-75,-35,-1,30,43,-10,-47
-12,38,15,8,1,6,9,-11
39,-20,-14,-21,-29,-29,-20,-10
31,13,-6,7,14,11,24,30
-26,2,-10,-11,-29,-36,-12,-30
-34,-55,-9,-8,16,10,3,-1
-11,37,22,14,-4,33,3,-25
25,23,7,8,41,16,15,13
49,-21,-30,-9,-52,-50,-7,22
-128,-88,-46,-17,31,24,-32,-95
94,1,-4,-17,-20,-31,-1,56
63,48,78,22,20,9,15,15
10,7,-10,-9,-32,-4,4,25
-30,-41,-25,-6,-28,-47,-65,-44
-1,-27,-12,5,20,44,54,24
-114,-61,-28,-11,-15,-13,-37,-54
16,-1,-11,-13,-14,5,3,-6
32,-8,-15,-16,-41,-49,5,61
11,56,17,23,61,62,7,-23
56,-31,-20,0,-26,-10,6,39
46,77,47,15,23,12,6,14
-28,-45,-49,1,33,15,10,-12
-15,21,23,-7,-40,-15,13,5
-58,-30,-23,-10,-10,-3,2,4
62,5,10,-2,1,-20,-16,3
-30,-19,-9,-17,-8,3,-22,-9
29,27,4,11,33,0,-2,-20
-44,-8,-8,12,19,-18,0,-8
19,-20,-15,-7,27,67,27,23
26,22,28,12,-9,-30,-19,-1
-108,-51,-39,-18,-13,-12,-7,-37
10,4,-2,-18,-26,-16,-16,-19
10,-11,6,3,-13,-22,4,30
-2,13,-10,-10,-11,-4,-3,-20
16,6,26,29,49,34,18,28
-21,-27,-38,-12,-17,-31,-37,-28
60,92,56,13,13,33,12,23
-31,-32,-22,-2,1,3,10,-18
-1,-22,13,15,22,-34,-30,-7
16,-34,-22,-25,-26,40,19,3
-40,4,4,-10,-7,-15,-8,-6
14,16,-8,2,8,25,20,38
-18,0,-13,-14,-48,-52,-20,-41
-29,-16,-3,13,26,4,17,0
28,10,-1,-4,-10,11,15,21
-8,4,-5,-5,4,-8,-8,-5
-29,-57,-28,-17,-25,-48,-23,-13
27,57,72,-6,-10,14,-32,-10
-2,-20,-51,4,-7,4,21,-13
-8,5,21,4,-5,11,-9,-3
-25,-10,-13,-2,-7,10,17,15
-30,-6,-10,3,23,5,-8,-30
29,-48,-53,-22,-38,-60,-13,33
68,50,25,0,29,32,7,4
-22,51,26,-4,-21,-7,-21,-11
62,6,-12,2,8,29,65,59
-69,-26,1,-2,26,-2,-41,-57
25,-3,10,3,-22,-1,3,4
-34,-23,-23,-9,10,-37,-19,-7
51,-1,6,1,14,27,18,21
-39,-5,11,9,4,-1,2,-3
26,31,-32,-37,-116,-97,-60,-8
-12,-6,47,24,121,127,60,15
26,19,-3,2,-4,-4,0,18
63,-17,-9,2,8,1,21,34
-77,14,32,0,-11,-16,-26,-49
28,-6,-21,-9,-48,-42,-18,6
-47,-29,-17,-7,-7,-32,-30,-31
-17,-4,9,-8,-19,-12,-8,-27
84,56,63,38,66,62,39,67
-31,13,-13,-4,-27,-17,-23,-21
37,1,0,6,8,-13,6,-7
-17,24,14,9,0,30,-14,-18
-41,-70,-37,-12,-2,-11,10,1
33,19,-11,-14,-24,-5,-4,6
24,9,47,-1,-10,13,-21,-23
9,47,28,2,-19,-27,1,32
-48,-31,-16,-8,-11,-24,2,-12
23,-9,-22,-3,-50,1,15,35
-32,30,38,-8,3,3,-6,-33
50,23,-9,0,34,31,6,-12
4,8,12,12,5,5,14,21
-5,-16,-12,-28,-52,-70,-44,-39
-23,-21,-59,15,53,25,15,2
-30,-27,3,19,15,21,11,10
-13,-4,-4,5,32,18,6,-18
13,2,11,9,1,-6,-12,-17
-33,-20,-19,2,2,-39,-11,3
74,-19,-26,-16,11,48,21,57
-30,-10,-28,-13,-15,-15,-18,-36
-15,-19,21,16,22,25,32,24
-45,26,14,-9,-45,-38,-29,-43
13,18,27,24,13,6,0,-25
80,14,-5,-3,47,30,31,54
-70,-30,-23,11,18,-4,-1,-20
48,-3,24,-1,35,41,15,42
-84,-17,-17,-20,-34,-51,-32,-51
-4,-15,-7,-1,-15,16,13,-13
51,24,-3,-6,-3,-2,-6,28
-53,-45,-51,4,12,-5,26,-4
-49,16,22,-12,-44,-46,-52,-51
60,3,4,11,21,27,31,40
14,26,-4,-12,-38,-31,-16,-5
-55,-43,5,3,12,44,21,2
23,1,-3,-12,-15,-11,14,26
-11,0,10,-3,-36,-49,-36,-24
30,58,32,30,71,59,16,-5
55,34,3,-9,-57,-39,-24,7
-60,-44,-7,-3,30,21,7,-38
20,-7,-34,-10,-7,-6,20,32
-69,-56,0,-14,-20,-8,1,-10
55,22,6,-7,-16,-8,-29,-4
-56,-28,-12,-1,-2,-19,5,-19
18,0,-27,-31,-7,16,27,34
-25,42,42,3,19,20,-19,-49
-9,-2,-13,5,-1,1,3,17
-18,-24,-8,-4,-28,-30,-20,8
-3,33,21,20,11,15,10,-25
-9,-13,-9,-9,12,0,9,-7
47,16,2,-2,-9,-28,-6,21
-10,-74,-45,-10,14,26,18,0
58,60,99,14,-12,-18,-34,8
-41,-22,10,32,37,27,22,14
-21,-9,-24,-12,-47,-38,-9,3
-24,-29,-18,-22,-52,-15,-9,-24
87,53,55,17,81,63,44,70
59,39,3,-5,-15,0,18,43
-61,-57,-27,-20,-39,-39,-29,-61
-35,10,4,12,27,12,-20,-16
-49,-20,-14,-7,-47,-28,4,-14
-6,2,-14,-12,17,27,21,10
63,-5,-11,-2,6,12,30,49
42,38,7,7,30,2,-8,11
-35,-23,-32,-2,-64,-60,-43,-46
27,10,5,6,65,56,37,19
-77,-69,-57,-23,-37,-9,-34,-50
57,102,81,33,56,59,67,52
-45,-29,-22,0,-10,-15,-17,-24
47,7,-19,-28,-60,-62,-30,7
-67,-33,1,16,67,59,15,-17
54,44,9,4,-10,-14,5,19
-24,-22,-21,-7,4,-8,-14,-13
-16,-67,-31,2,-38,-59,-15,-10
2,61,10,-12,18,76,69,46
-24,-25,-26,-10,-9,-23,-21,-31
-4,-7,-2,3,15,36,-2,-30
43,22,2,3,-30,-27,-11,9
-16,17,15,13,4,-31,-22,-11
-68,-40,-29,-9,-13,-47,-20,-25
22,-12,-8,-10,65,59,15,12
-15,6,8,10,15,23,-12,-23
3,-11,-5,0,2,-20,-11,-19
15,19,-4,-19,-54,-44,-34,-22
-60,-41,-29,-31,-56,-20,-19,-36
18,-18,0,8,19,15,5,28
59,62,40,16,20,22,21,40
-51,-64,-42,-17,-58,-41,-4,-7
-35,36,45,20,55,25,-9,-29
-28,-32,-29,-14,-4,-15,-15,-31
25,31,36,2,3,20,-8,6
-1,-18,6,-12,-52,-32,-11,-5
-43,-3,-5,16,-1,-10,-5,8
57,46,11,0,-19,3,12,4
30,-50,-37,-10,30,-24,-32,-8
-13,21,22,17,26,-12,-1,5
-35,-59,-42,-25,-5,19,3,-9
35,74,77,43,33,30,5,9
-16,-35,-35,-15,-30,-63,-40,-40
24,31,22,22,54,91,58,39
-33,-19,-11,-14,-27,-43,-17,-14
-8,-18,-24,-17,-14,-13,-23,-17
4,-28,1,27,43,19,37,30
-8,58,58,14,16,-7,-16,-16
53,41,46,12,-10,21,12,34
24,-24,-36,-19,-10,-1,-4,12
-92,-8,36,15,1,17,15,-15
0,-49,-45,-11,-15,-34,-28,0
-14,-7,-17,1,-8,7,14,-15
49,-1,0,-22,-5,-27,5,29
45,86,2,7,53,50,25,22
41,-20,-26,-26,-22,-14,-17,-12
-86,-30,-16,-9,-13,-6,-28,-44
-24,3,4,9,-5,0,5,-8
25,-51,-69,-32,-66,-41,-23,-9
-57,29,70,27,36,13,12,-19
102,33,24,26,26,-20,18,69
-36,-34,-41,-18,0,48,0,-18
-9,36,57,19,-44,-75,-25,-16
-20,-22,13,15,57,109,36,25
6,-15,-41,-16,-66,-50,-26,-25
-15,42,72,33,74,38,31,-5
52,4,0,-13,-14,-7,9,43
21,5,-15,-1,-13,-22,0,15
-23,-44,-7,-9,-20,-5,-5,-14
16,47,0,-8,-20,-12,-7,2
-9,-4,35,11,11,15,23,1
-20,38,12,7,29,0,-9,-23
46,-11,-34,0,19,9,2,23
11,-33,-28,-23,-47,-12,29,30
-44,-8,13,7,-12,-10,-27,-30
-8,-4,-4,-2,-4,22,13,27
-43,-66,-34,-10,26,3,2,-5
27,83,61,15,-20,-43,-22,-19
27,42,-14,-18,-74,-55,-16,-12
-21,-90,-37,-11,66,89,-32,-27
10,45,52,15,5,15,38,21
-36,-34,-18,-1,14,6,-4,-5
-13,-29,-22,-21,-22,-10,-16,-12
29,10,-22,-10,-81,-117,-37,-7
34,-4,16,14,74,66,36,35
-78,-8,25,17,30,53,13,-14
42,9,5,14,31,13,16,26
42,17,-4,-1,-18,-10,14,10
-14,-9,-4,-21,-26,-41,-39,-31
4,-4,-37,-6,-3,-25,10,16
-90,-57,-25,-8,24,48,21,-37
6,-22,-35,-2,-5,-10,-13,0
44,46,47,2,-34,-10,1,8
6,35,12,0,-7,-7,-2,-4
44,26,16,11,38,-5,-8,19
11,-35,-42,-4,22,13,18,9
-89,-16,7,10,15,26,2,-23
49,-10,-21,-20,-14,-17,-16,32
19,-13,-9,-3,-42,-4,-5,-14
-33,38,34,22,53,-43,14,-2
11,13,-40,-27,4,47,-22,4
-43,-43,-18,-8,-17,4,-24,-42
42,17,22,11,15,11,10,25
-43,-4,12,-10,-30,-7,1,2
28,29,-26,-16,-78,-82,-17,-1
-19,-39,24,25,58,35,0,19
2,25,8,-15,-16,32,14,-3
61,23,11,-5,-18,4,5,15
-54,-34,-2,11,-3,-58,-20,-21
2,-3,-2,-7,-5,44,20,4
14,3,-21,-12,-21,-90,-62,-45
35,36,57,16,62,103,30,27
37,6,-22,-9,-19,-21,10,16
-41,-32,-7,13,29,-2,-13,-28
-20,-13,-12,-2,14,29,32,33
-3,-32,-45,-43,-85,-78,-66,-55
12,50,39,19,28,14,12,8
-17,-48,-58,-19,-38,-56,-41,-39
16,25,32,18,29,31,29,46
-45,-26,-40,11,6,20,3,-23
46,25,37,35,20,6,19,41
41,-3,-14,-8,25,38,31,38
-23,18,-5,11,-15,-13,-22,-21
23,-17,-7,-27,-10,15,50,37
-15,7,39,22,38,17,7,-11
-70,-12,-8,-6,-28,-47,-22,-37
28,-13,-11,-13,1,5,-26,-13
11,-4,-1,1,-26,-68,-17,13
-2,38,0,-2,33,84,38,3
11,9,26,-9,-19,-42,-38,-31
-11,-18,-5,12,22,30,33,22
-33,-20,-23,-17,-23,-39,-58,-38
-24,-19,-34,-20,-15,-36,-25,-41
56,28,11,8,-8,-1,11,34
12,17,-7,-21,-6,41,31,33
15,-4,-8,19,28,5,-3,-11
10,-32,-3,0,-24,-13,3,-4
-19,20,-3,6,20,12,-6,-13
-75,-61,-9,-8,8,9,0,-29
11,1,-9,-9,-43,-18,-7,4
11,14,-13,-24,17,-7,-23,-21
2,58,42,22,18,22,35,20
18,-13,8,6,-5,-20,-2,10
-20,-9,-6,-4,1,5,5,-11
8,4,-6,1,-20,11,15,31
6,-11,-9,-10,-17,-39,-21,-19
-28,0,-30,-23,-50,-25,-20,-29
-9,11,49,25,55,57,28,10
60,12,2,5,-19,-15,2,20
-24,-33,-30,-33,-12,-20,-18,6
-35,-23,4,17,14,4,4,-17
67,38,2,17,13,2,25,46
-72,-10,20,-3,11,13,-6,-47
67,17,8,23,25,20,20,39
-5,13,6,-19,-47,-30,-19,-11
-61,-23,-12,-14,-15,-8,-23,-39
26,17,-5,-6,31,29,24,40
13,-17,-12,-4,-16,-5,-9,0
-7,-5,-7,-1,24,-13,-6,5
10,41,41,23,17,26,26,22
-23,-30,-17,-11,-55,-41,-29,-30
-20,-30,-24,-10,8,-23,-16,-39
53,-14,-38,-9,-2,25,17,21
36,48,63,19,23,20,1,13
-15,-33,-19,-1,-14,2,21,32
-1,-16,3,-7,-49,-36,-15,-15
-48,-13,-26,-4,29,11,-16,-37
-4,-6,-25,-17,-29,-17,8,3
66,99,88,28,20,3,-12,6
-35,-62,-26,-11,-7,-2,18,2
54,20,19,1,-4,12,-1,19
-22,-10,-15,-5,19,-2,3,-11
-31,-19,-35,9,2,-33,-33,-34
24,10,14,-4,0,31,26,25
0,32,34,17,27,19,21,17
17,13,-1,-6,-27,-26,-41,-22
-11,-48,-29,-3,29,19,8,-7
-72,19,23,8,-12,-28,-4,-4
35,6,-7,-4,1,0,5,15
-14,-29,-21,-2,7,8,-3,-8
-38,-25,-7,-2,10,-1,6,1
3,1,-24,-15,-23,-11,-25,-18
-32,2,27,5,-13,-24,11,-6
9,-18,4,-3,-10,30,12,7
-7,23,9,-3,7,2,-8,-7
35,36,16,5,6,13,19,32
-32,-60,-44,-11,-25,-33,-39,-52
47,25,-20,-3,6,-4,15,21
-39,-23,9,-7,-14,-10,-11,-8
40,18,-2,-6,-16,13,13,20
89,64,24,9,11,1,13,34
-62,-26,13,3,-5,0,3,-10
-14,-41,-31,-21,1,9,-19,-15
31,39,7,1,-3,-22,-5,-9
-31,-25,1,3,-9,16,-23,-36
52,46,-4,3,31,20,20,25
-27,-13,-8,-10,-37,-38,-16,-4
6,-3,-12,0,19,11,-21,-4
-58,-16,-3,8,20,16,19,-6
22,2,-2,-10,-54,-32,-9,27
18,16,8,0,12,19,14,-3
-46,-29,-24,-1,-35,-19,-14,-28
51,20,-1,-11,35,24,16,39
-13,18,31,10,-5,-6,-12,0
9,7,-3,8,3,-1,27,20
6,7,0,3,17,17,-20,-17
-17,5,17,-3,-9,-13,-1,-1
-79,-79,-54,-27,-17,-29,-30,-46
77,19,15,11,11,3,-1,38
-46,9,16,-5,-29,-13,-11,-30
-50,13,4,11,4,-15,-4,-22
65,20,16,5,-26,-4,10,28
26,2,-15,18,71,-1,-16,0
39,-14,-5,9,31,73,56,53
-8,4,27,-5,0,-9,-5,-11
-48,-1,6,-2,1,13,4,-22
24,4,-23,-15,-47,-52,-16,-7
-73,-39,-12,-17,-46,-25,-11,-26
27,-10,-9,31,72,58,6,17
-1,4,2,-5,10,3,4,-9
2,6,-8,-4,-20,0,6,4
4,-35,-17,-11,2,-19,-22,-18
-3,14,-9,-14,-49,-20,-8,2
21,-10,-13,8,40,-9,0,1
20,30,24,10,28,58,35,35
-68,-39,-21,-14,-16,-33,-8,-39
52,33,27,15,7,7,-3,19
33,2,4,0,15,-2,12,25
-100,-25,-11,-20,-39,-15,-33,-73
25,16,8,6,-24,-49,-11,15
-4,-15,-5,-4,39,57,27,16
28,-6,-13,-9,-11,-3,-17,1
12,-9,-4,-4,-15,-5,-6,1
-40,-21,8,-7,-18,-39,-12,-24
18,6,10,-1,0,0,-11,-1
-25,14,9,3,-32,-14,-18,-18
12,-26,-15,-4,20,26,19,18
48,39,19,12,6,-3,14,32
-78,-70,-36,-19,-28,-30,-16,-20
39,76,54,20,26,23,16,-3
-27,15,25,0,-2,-25,-11,-23
19,-28,-22,2,17,39,14,-1
35,1,-26,-6,-11,-40,-12,20
-47,5,22,10,16,52,22,8
-43,-43,-33,-11,-22,-33,-30,-32
6,0,1,-2,8,14,4,-13
38,62,17,1,-18,-25,5,7
11,-62,-22,-1,-33,-31,6,11
23,32,25,5,38,48,-6,10
-44,-30,-17,-2,5,5,-5,-2
-9,16,13,-9,5,0,1,-9
18,-1,-20,-9,-24,1,-13,-2
5,-10,7,2,-19,-8,25,25
16,18,2,2,20,17,10,17
35,7,0,-2,-26,-24,15,16
-74,-19,-1,-4,22,17,-25,-56
26,-48,-31,-12,-16,-6,-2,11
-2,78,21,6,-15,-33,-18,0
-58,-39,-17,1,19,31,2,-37
37,4,21,11,19,8,18,40
4,20,7,-6,-16,-16,-16,-13
21,6,12,13,-15,-45,-18,-8
3,-21,-12,-25,-18,36,14,27
-54,-3,-15,-13,-19,-14,-24,-30
19,2,-3,3,-5,5,25,23
17,-23,-16,2,23,29,9,36
-4,14,-10,-7,3,-17,-6,-9
13,-35,-9,3,-2,9,5,-14
-49,25,8,5,4,-6,-10,-29
50,16,18,7,28,20,21,23
-7,-16,-19,-7,-20,-23,-16,-10
2,-21,-13,-15,-14,-4,12,14
-26,-4,-15,8,6,-4,0,4
3,40,45,12,24,40,6,-2
18,-12,13,2,-13,-11,-6,-8
-27,13,-8,-14,-27,-40,-16,-33
4,-29,-11,4,2,-5,-1,-2
17,14,14,-3,11,28,14,18
-1,22,23,14,10,0,-15,-9
20,-34,-37,-21,-68,-71,-21,10
17,55,21,1,79,89,21,4
-22,-36,-24,0,8,6,10,-1
-47,1,46,14,-13,-16,-8,-11
5,12,-4,0,15,-2,-19,-23
15,-9,-15,-9,-31,-26,13,7
13,-2,-9,-14,-25,-22,-23,-2
-24,-4,-4,10,21,37,11,-30
33,-10,-15,-8,10,-16,-11,27
-23,7,23,8,-20,-8,3,4
2,-14,4,-3,15,16,10,9
-4,-15,-43,-10,-66,-90,-36,-25
18,30,30,24,110,122,55,21
-2,-20,-7,6,-5,-10,-20,-11
-1,-6,-2,-1,6,-3,-2,-17
-19,-23,-13,0,-9,-1,-6,1
11,20,1,-6,-13,-21,6,6
2,-16,4,-6,-14,-19,-7,-10
-38,3,0,-6,-21,-5,-12,-16
6,-3,3,-8,16,2,6,9
-16,6,1,0,-16,-3,2,-1
-11,-18,-10,-10,-11,-3,0,3
59,-6,-26,14,-15,-17,-12,12
