(-0.0436401367, -0.06359863, 0.00164794922, 0.9970093)
(-0.0436401367, -0.06359863, 0.00164794922, 0.9970093)
(-0.0436401367, -0.06359863, 0.00164794922, 0.9970093)
(-0.0436401367, -0.06359863, 0.00164794922, 0.9970093)
(-0.0436401367, -0.06359863, 0.00164794922, 0.9970093)
(-0.0436401367, -0.06359863, 0.00164794922, 0.9970093)
(-0.0436401367, -0.06365967, 0.00164794922, 0.9970093)
(-0.0438232422, -0.06378174, 0.00164794922, 0.996948242)
(-0.0440063477, -0.0637207, 0.00164794922, 0.996948242)
(-0.0440063477, -0.0637207, 0.00164794922, 0.996948242)
(-0.04425049, -0.0635376, 0.00158691406, 0.996948242)
(-0.04425049, -0.0635376, 0.00158691406, 0.996948242)
(-0.0444335938, -0.06329346, 0.00164794922, 0.996948242)
(-0.0444335938, -0.06329346, 0.00164794922, 0.996948242)
(-0.0444335938, -0.06323242, 0.00164794922, 0.9970093)
(-0.0446167, -0.06341553, 0.00152587891, 0.996948242)
(-0.0446167, -0.06341553, 0.00152587891, 0.996948242)
(-0.0446167, -0.06341553, 0.00152587891, 0.996948242)
(-0.0446167, -0.06341553, 0.00152587891, 0.996948242)
(-0.0446167, -0.06341553, 0.00152587891, 0.996948242)
(-0.0446167, -0.06341553, 0.00152587891, 0.996948242)
(-0.0446167, -0.06347656, 0.00152587891, 0.996948242)
(-0.0446167, -0.06347656, 0.00152587891, 0.996948242)
(-0.0450439453, -0.06335449, 0.00158691406, 0.996948242)
(-0.0460205078, -0.06329346, 0.00152587891, 0.9968872)
(-0.0460205078, -0.06329346, 0.00152587891, 0.9968872)
(-0.0473022461, -0.06335449, 0.00122070313, 0.9968262)
(-0.0473022461, -0.06335449, 0.00122070313, 0.9968262)
(-0.0480957031, -0.0635376, 0.00109863281, 0.996765137)
(-0.0480957031, -0.0635376, 0.00109863281, 0.996765137)
(-0.0477905273, -0.06378174, 0.000915527344, 0.996765137)
(-0.04724121, -0.06384277, 0.0005493164, 0.9968262)
(-0.04724121, -0.06384277, 0.0005493164, 0.9968262)
(-0.046875, -0.06359863, -0.000366210938, 0.9968262)
(-0.046875, -0.06359863, -0.000366210938, 0.9968262)
(-0.04547119, -0.06384277, -0.00305175781, 0.9968872)
(-0.04547119, -0.06384277, -0.00305175781, 0.9968872)
(-0.0443115234, -0.06500244, -0.0078125, 0.9968262)
(-0.0443115234, -0.06500244, -0.0078125, 0.9968262)
(-0.0419311523, -0.0661010742, -0.0123291016, 0.9968262)
(-0.0419311523, -0.0661010742, -0.0123291016, 0.9968262)
(-0.03656006, -0.06665039, -0.015625, 0.996948242)
(-0.0296630859, -0.0670166, -0.018371582, 0.997131348)
(-0.0296630859, -0.0670166, -0.018371582, 0.997131348)
(-0.0239868164, -0.06665039, -0.0217285156, 0.9972534)
(-0.0198974609, -0.0664672852, -0.02532959, 0.9972534)
(-0.0198974609, -0.0664672852, -0.02532959, 0.9972534)
(-0.0169677734, -0.06640625, -0.0291748047, 0.9971924)
(-0.0142822266, -0.06591797, -0.03253174, 0.9971924)
(-0.01159668, -0.06530762, -0.0335693359, 0.9971924)
(-0.01159668, -0.06530762, -0.0335693359, 0.9971924)
(-0.009887695, -0.06524658, -0.033996582, 0.9971924)
(-0.009887695, -0.06524658, -0.033996582, 0.9971924)
(-0.00970459, -0.06506348, -0.0347290039, 0.9971924)
(-0.0102539063, -0.06500244, -0.0360107422, 0.997131348)
(-0.0102539063, -0.06500244, -0.0360107422, 0.997131348)
(-0.0108642578, -0.06512451, -0.0373535156, 0.9970703)
(-0.0108642578, -0.06512451, -0.0373535156, 0.9970703)
(-0.01171875, -0.06549072, -0.0390625, 0.9970093)
(-0.01171875, -0.06549072, -0.0390625, 0.9970093)
(-0.012512207, -0.0648193359, -0.04156494, 0.996948242)
(-0.012512207, -0.0648193359, -0.04156494, 0.996948242)
(-0.0119018555, -0.064453125, -0.04248047, 0.9968872)
(-0.0119018555, -0.064453125, -0.04248047, 0.9968872)
(-0.0100708008, -0.06518555, -0.0426635742, 0.9968872)
(-0.009277344, -0.06542969, -0.0436401367, 0.9968262)
(-0.009277344, -0.06542969, -0.0436401367, 0.9968262)
(-0.00982666, -0.06542969, -0.04534912, 0.996765137)
(-0.00982666, -0.06542969, -0.04534912, 0.996765137)
(-0.0104370117, -0.06591797, -0.0466918945, 0.996643066)
(-0.0104370117, -0.06591797, -0.0466918945, 0.996643066)
(-0.0101928711, -0.06640625, -0.04736328, 0.996582031)
(-0.0101928711, -0.06640625, -0.04736328, 0.996582031)
(-0.0101928711, -0.06640625, -0.04736328, 0.996582031)
(-0.008850098, -0.0679931641, -0.046875, 0.996521)
(-0.008850098, -0.0679931641, -0.046875, 0.996521)
(-0.00982666, -0.0688476563, -0.04663086, 0.996459961)
(-0.00982666, -0.0688476563, -0.04663086, 0.996459961)
(-0.01159668, -0.06939697, -0.0470581055, 0.9963989)
(-0.0123901367, -0.0692749, -0.0475463867, 0.9963379)
(-0.0123901367, -0.0692749, -0.0475463867, 0.9963379)
(-0.0123291016, -0.06915283, -0.0475463867, 0.9963379)
(-0.0123291016, -0.06915283, -0.0475463867, 0.9963379)
(-0.01184082, -0.06878662, -0.04736328, 0.9963989)
(-0.01184082, -0.06878662, -0.04736328, 0.9963989)
(-0.0117797852, -0.06878662, -0.04736328, 0.9963989)
(-0.0117797852, -0.06878662, -0.04736328, 0.9963989)
(-0.0125732422, -0.06903076, -0.047668457, 0.9963989)
(-0.0133056641, -0.0684814453, -0.048034668, 0.9963989)
(-0.0130615234, -0.06768799, -0.0478515625, 0.996459961)
(-0.0130615234, -0.06768799, -0.0478515625, 0.996459961)
(-0.0124511719, -0.06744385, -0.0473022461, 0.996521)
(-0.0124511719, -0.06744385, -0.0473022461, 0.996521)
(-0.012512207, -0.06756592, -0.046875, 0.996521)
(-0.0130004883, -0.06774902, -0.04675293, 0.996521)
(-0.0130004883, -0.06774902, -0.04675293, 0.996521)
(-0.0130004883, -0.06774902, -0.04675293, 0.996521)
(-0.0132446289, -0.06774902, -0.04650879, 0.996521)
(-0.0134277344, -0.06793213, -0.0460205078, 0.996521)
(-0.0134277344, -0.06793213, -0.0460205078, 0.996521)
(-0.013671875, -0.0679931641, -0.04559326, 0.996521)
(-0.013671875, -0.0679931641, -0.04559326, 0.996521)
(-0.0135498047, -0.0680542, -0.04522705, 0.996521)
(-0.0135498047, -0.0680542, -0.04522705, 0.996521)
(-0.0127563477, -0.0681152344, -0.0450439453, 0.996582031)
(-0.0123291016, -0.06793213, -0.0451660156, 0.996582031)
(-0.0123291016, -0.06793213, -0.0451660156, 0.996582031)
(-0.0123291016, -0.0678710938, -0.0451660156, 0.996582031)
(-0.0123291016, -0.0678710938, -0.0451660156, 0.996582031)
(-0.0121459961, -0.06793213, -0.0450439453, 0.996582031)
(-0.0121459961, -0.06793213, -0.0450439453, 0.996582031)
(-0.01184082, -0.0680542, -0.04486084, 0.996582031)
(-0.01184082, -0.0680542, -0.04486084, 0.996582031)
(-0.01184082, -0.0680542, -0.04486084, 0.996582031)
(-0.01184082, -0.0680542, -0.04486084, 0.996582031)
(-0.01184082, -0.0680542, -0.04486084, 0.996582031)
(-0.0104980469, -0.06774902, -0.0446777344, 0.996643066)
(-0.0104980469, -0.06774902, -0.0446777344, 0.996643066)
(-0.0100097656, -0.06744385, -0.04473877, 0.996643066)
(-0.0100097656, -0.06744385, -0.04473877, 0.996643066)
(-0.00994873047, -0.06744385, -0.04473877, 0.996643066)
(-0.009765625, -0.06732178, -0.0445556641, 0.996643066)
(-0.009765625, -0.06732178, -0.0445556641, 0.996643066)
(-0.009521484, -0.06713867, -0.0441894531, 0.9967041)
(-0.009521484, -0.06713867, -0.0441894531, 0.9967041)
(-0.009765625, -0.06707764, -0.0438842773, 0.9967041)
(-0.009765625, -0.06707764, -0.0438842773, 0.9967041)
(-0.0104370117, -0.0665893555, -0.0438842773, 0.9967041)
(-0.0104370117, -0.0665893555, -0.0438842773, 0.9967041)
(-0.0103759766, -0.06616211, -0.0436401367, 0.996765137)
(-0.0102539063, -0.06616211, -0.04345703, 0.996765137)
(-0.0102539063, -0.06616211, -0.04345703, 0.996765137)
(-0.0106201172, -0.0662231445, -0.0435791, 0.996765137)
(-0.0106201172, -0.0662231445, -0.0435791, 0.996765137)
(-0.0109863281, -0.06604004, -0.0437011719, 0.996765137)
(-0.0109863281, -0.06604004, -0.0437011719, 0.996765137)
(-0.0112915039, -0.06604004, -0.0437011719, 0.996765137)
(-0.01184082, -0.0657959, -0.043762207, 0.996765137)
(-0.01184082, -0.0657959, -0.043762207, 0.996765137)
(-0.01184082, -0.0657959, -0.043762207, 0.996765137)
(-0.0120849609, -0.06555176, -0.0438232422, 0.996765137)
(-0.0120849609, -0.06555176, -0.0438232422, 0.996765137)
(-0.0122070313, -0.06567383, -0.043762207, 0.996765137)
(-0.0123901367, -0.06585693, -0.0436401367, 0.996765137)
(-0.0123901367, -0.06585693, -0.0436401367, 0.996765137)
(-0.0122680664, -0.0659790039, -0.0435791, 0.996765137)
(-0.0122680664, -0.0659790039, -0.0435791, 0.996765137)
(-0.0120849609, -0.06616211, -0.0435180664, 0.996765137)
(-0.0120849609, -0.06616211, -0.0435180664, 0.996765137)
(-0.0120849609, -0.06616211, -0.0435180664, 0.996765137)
(-0.0120849609, -0.0661010742, -0.0435180664, 0.996765137)
(-0.0120849609, -0.0661010742, -0.0435180664, 0.996765137)
(-0.0121459961, -0.06628418, -0.04345703, 0.996765137)
(-0.0121459961, -0.06628418, -0.04345703, 0.996765137)
(-0.0121459961, -0.06628418, -0.04345703, 0.996765137)
(-0.0121459961, -0.06628418, -0.04345703, 0.996765137)
(-0.0120849609, -0.06628418, -0.04345703, 0.996765137)
(-0.0121459961, -0.0663452148, -0.04345703, 0.996765137)
(-0.0121459961, -0.0663452148, -0.04345703, 0.996765137)
(-0.0123291016, -0.06628418, -0.04345703, 0.996765137)
(-0.0123291016, -0.06628418, -0.04345703, 0.996765137)
(-0.0123291016, -0.06628418, -0.04345703, 0.996765137)
(-0.0123901367, -0.0662231445, -0.04345703, 0.996765137)
(-0.0120239258, -0.0661010742, -0.04333496, 0.996765137)
(-0.0120239258, -0.0661010742, -0.04333496, 0.996765137)
(-0.0114746094, -0.06616211, -0.0432739258, 0.996765137)
(-0.0114746094, -0.06616211, -0.0432739258, 0.996765137)
(-0.0114746094, -0.06616211, -0.0432739258, 0.996765137)
(-0.0114746094, -0.0662231445, -0.0432739258, 0.996765137)
(-0.0114746094, -0.0662231445, -0.0432739258, 0.996765137)
(-0.0114135742, -0.0659790039, -0.04321289, 0.996765137)
(-0.0114135742, -0.0659790039, -0.04321289, 0.996765137)
(-0.0113525391, -0.06567383, -0.04321289, 0.9968262)
(-0.0113525391, -0.06567383, -0.04321289, 0.9968262)
(-0.0112915039, -0.06561279, -0.04321289, 0.9968262)
(-0.0112915039, -0.06561279, -0.04321289, 0.9968262)
(-0.01159668, -0.06549072, -0.04345703, 0.9968262)
(-0.0117797852, -0.06536865, -0.04345703, 0.9968262)
(-0.0117797852, -0.06536865, -0.04345703, 0.9968262)
(-0.0117797852, -0.06518555, -0.04333496, 0.9968262)
(-0.0117797852, -0.06518555, -0.04333496, 0.9968262)
(-0.0120849609, -0.0649414063, -0.04321289, 0.9968262)
(-0.0123291016, -0.06463623, -0.0429077148, 0.9968872)
(-0.0123291016, -0.06463623, -0.0429077148, 0.9968872)
(-0.0124511719, -0.064453125, -0.0425415039, 0.9968872)
(-0.0124511719, -0.064453125, -0.0425415039, 0.9968872)
(-0.0123291016, -0.0640869141, -0.0421142578, 0.996948242)
(-0.0123291016, -0.0640869141, -0.0421142578, 0.996948242)
(-0.0119628906, -0.0639648438, -0.04168701, 0.9970093)
(-0.0116577148, -0.06365967, -0.0413208, 0.9970093)
(-0.0116577148, -0.06365967, -0.0413208, 0.9970093)
(-0.0114746094, -0.06341553, -0.04095459, 0.9970703)
(-0.0111083984, -0.06317139, -0.04046631, 0.9970703)
(-0.0111083984, -0.06317139, -0.04046631, 0.9970703)
(-0.0106201172, -0.06286621, -0.0401000977, 0.997131348)
(-0.0106201172, -0.06286621, -0.0401000977, 0.997131348)
(-0.009887695, -0.0626831055, -0.0397949219, 0.9971924)
(-0.009094238, -0.06262207, -0.039855957, 0.9971924)
(-0.009094238, -0.06262207, -0.039855957, 0.9971924)
(-0.008239746, -0.0626831055, -0.0400390625, 0.9971924)
(-0.008239746, -0.0626831055, -0.0400390625, 0.9971924)
(-0.007385254, -0.06262207, -0.040222168, 0.9971924)
(-0.007385254, -0.06262207, -0.040222168, 0.9971924)
(-0.00689697266, -0.0625610352, -0.0405273438, 0.9971924)
(-0.00689697266, -0.0625610352, -0.0405273438, 0.9971924)
(-0.006652832, -0.0623168945, -0.0407714844, 0.9971924)
(-0.006652832, -0.0623168945, -0.0407714844, 0.9971924)
(-0.006286621, -0.0621948242, -0.0408935547, 0.9971924)
(-0.00598144531, -0.06201172, -0.041015625, 0.9971924)
(-0.00598144531, -0.06201172, -0.041015625, 0.9971924)
(-0.005493164, -0.0619506836, -0.04107666, 0.9971924)
(-0.005493164, -0.0619506836, -0.04107666, 0.9971924)
(-0.00482177734, -0.06188965, -0.04119873, 0.9971924)
(-0.00482177734, -0.06188965, -0.04119873, 0.9971924)
(-0.00390625, -0.0616455078, -0.0412597656, 0.9971924)
(-0.00390625, -0.0616455078, -0.0412597656, 0.9971924)
(-0.0029296875, -0.061340332, -0.0412597656, 0.9972534)
(-0.0029296875, -0.061340332, -0.0412597656, 0.9972534)
(-0.00201416016, -0.06097412, -0.0413818359, 0.9972534)
(-0.00164794922, -0.06060791, -0.04168701, 0.9972534)
(-0.00164794922, -0.06060791, -0.04168701, 0.9972534)
(-0.00152587891, -0.0603027344, -0.0418701172, 0.9972534)
(-0.00152587891, -0.0603027344, -0.0418701172, 0.9972534)
(-0.00109863281, -0.06011963, -0.041809082, 0.997314453)
(-0.00103759766, -0.0600585938, -0.041809082, 0.997314453)
(-0.00103759766, -0.0600585938, -0.041809082, 0.997314453)
(-0.00103759766, -0.0600585938, -0.041809082, 0.997314453)
(-0.00103759766, -0.0600585938, -0.041809082, 0.997314453)
(-0.0009765625, -0.0600585938, -0.041809082, 0.997314453)
(-0.0009765625, -0.0600585938, -0.041809082, 0.997314453)
(-0.000915527344, -0.059753418, -0.0418701172, 0.997314453)
(-0.000915527344, -0.059753418, -0.0418701172, 0.997314453)
(-0.0004272461, -0.0592651367, -0.0418701172, 0.997314453)
(-0.0004272461, -0.0592651367, -0.0418701172, 0.997314453)
(0, -0.0591430664, -0.0418701172, 0.9973755)
(0.001159668, -0.05895996, -0.0417480469, 0.9973755)
(0.001159668, -0.05895996, -0.0417480469, 0.9973755)
(0.001159668, -0.05895996, -0.0417480469, 0.9973755)
(0.00158691406, -0.0587768555, -0.0417480469, 0.9973755)
(0.00158691406, -0.0587768555, -0.0417480469, 0.9973755)
(0.00158691406, -0.0587768555, -0.0417480469, 0.9973755)
(0.00189208984, -0.05859375, -0.0418701172, 0.9973755)
(0.00189208984, -0.05859375, -0.0418701172, 0.9973755)
(0.002319336, -0.0586547852, -0.0417480469, 0.9973755)
(0.002319336, -0.0586547852, -0.0417480469, 0.9973755)
(0.00250244141, -0.05883789, -0.0417480469, 0.9973755)
(0.00250244141, -0.05883789, -0.0417480469, 0.9973755)
(0.00250244141, -0.05883789, -0.0417480469, 0.9973755)
(0.00250244141, -0.05883789, -0.0417480469, 0.9973755)
(0.00250244141, -0.05883789, -0.0417480469, 0.9973755)
(0.002746582, -0.0586547852, -0.04156494, 0.9973755)
(0.002746582, -0.0586547852, -0.04156494, 0.9973755)
(0.002746582, -0.0582885742, -0.0413818359, 0.9974365)
(0.00250244141, -0.0579223633, -0.0412597656, 0.9974365)
(0.00250244141, -0.0579223633, -0.0412597656, 0.9974365)
(0.00250244141, -0.0579223633, -0.0412597656, 0.9974365)
(0.00225830078, -0.0577392578, -0.04107666, 0.9974365)
(0.00213623047, -0.057434082, -0.0408935547, 0.997497559)
(0.00213623047, -0.057434082, -0.0408935547, 0.997497559)
(0.002319336, -0.0571289063, -0.0407714844, 0.997497559)
(0.002319336, -0.0571289063, -0.0407714844, 0.997497559)
(0.00256347656, -0.05682373, -0.04058838, 0.997497559)
(0.00256347656, -0.05645752, -0.04046631, 0.9975586)
(0.00256347656, -0.05645752, -0.04046631, 0.9975586)
(0.00250244141, -0.05596924, -0.04046631, 0.9975586)
(0.00250244141, -0.05596924, -0.04046631, 0.9975586)
(0.002746582, -0.0556640625, -0.04046631, 0.9976196)
(0.002746582, -0.0556640625, -0.04046631, 0.9976196)
(0.0029296875, -0.05529785, -0.04058838, 0.9976196)
(0.0029296875, -0.05529785, -0.04058838, 0.9976196)
(0.00299072266, -0.0547485352, -0.04058838, 0.9976196)
(0.00299072266, -0.0547485352, -0.04058838, 0.9976196)
(0.00335693359, -0.05407715, -0.04046631, 0.997680664)
(0.00335693359, -0.05340576, -0.04046631, 0.9977417)
(0.00335693359, -0.05340576, -0.04046631, 0.9977417)
(0.00323486328, -0.05279541, -0.04046631, 0.9977417)
(0.00323486328, -0.05279541, -0.04046631, 0.9977417)
(0.00329589844, -0.0522460938, -0.0402832031, 0.997802734)
(0.003479004, -0.0513916, -0.0400390625, 0.99786377)
(0.003479004, -0.0513916, -0.0400390625, 0.99786377)
(0.00378417969, -0.0504760742, -0.039855957, 0.9979248)
(0.00390625, -0.0495605469, -0.0399169922, 0.9979248)
(0.00384521484, -0.04925537, -0.0401000977, 0.9979248)
(0.00384521484, -0.04925537, -0.0401000977, 0.9979248)
(0.00384521484, -0.04925537, -0.0401000977, 0.9979248)
(0.00384521484, -0.04925537, -0.0401000977, 0.9979248)
(0.00384521484, -0.04925537, -0.0401000977, 0.9979248)
(0.00408935547, -0.04925537, -0.0397949219, 0.9979248)
(0.00408935547, -0.04925537, -0.0397949219, 0.9979248)
(0.00415039063, -0.0495605469, -0.03967285, 0.9979248)
(0.00415039063, -0.0495605469, -0.03967285, 0.9979248)
(0.00390625, -0.0500488281, -0.03967285, 0.9979248)
(0.00390625, -0.0500488281, -0.03967285, 0.9979248)
(0.00372314453, -0.05053711, -0.03955078, 0.9979248)
(0.00372314453, -0.05053711, -0.03955078, 0.9979248)
(0.003479004, -0.0510864258, -0.03942871, 0.99786377)
(0.003479004, -0.0510864258, -0.03942871, 0.99786377)
(0.00299072266, -0.0513916, -0.0393676758, 0.99786377)
(0.00262451172, -0.0513916, -0.0392456055, 0.99786377)
(0.00262451172, -0.0513916, -0.0392456055, 0.99786377)
(0.00286865234, -0.051574707, -0.0391235352, 0.99786377)
(0.00286865234, -0.051574707, -0.0391235352, 0.99786377)
(0.00299072266, -0.051940918, -0.0391235352, 0.99786377)
(0.00299072266, -0.051940918, -0.0391235352, 0.99786377)
(0.00268554688, -0.0522460938, -0.03930664, 0.997802734)
(0.00244140625, -0.0524902344, -0.0393676758, 0.997802734)
(0.00244140625, -0.0524902344, -0.0393676758, 0.997802734)
(0.00244140625, -0.0524902344, -0.0393676758, 0.997802734)
(0.00244140625, -0.0524902344, -0.0393676758, 0.997802734)
(0.00250244141, -0.0524902344, -0.0393676758, 0.997802734)
(0.00250244141, -0.0524902344, -0.0393676758, 0.997802734)
(0.00244140625, -0.0526123047, -0.03942871, 0.997802734)
(0.00244140625, -0.0526123047, -0.03942871, 0.997802734)
(0.002380371, -0.05291748, -0.0394897461, 0.997802734)
(0.002380371, -0.05291748, -0.0394897461, 0.997802734)
(0.002319336, -0.05303955, -0.03955078, 0.997802734)
(0.002380371, -0.05316162, -0.0394897461, 0.997802734)
(0.002380371, -0.05340576, -0.03942871, 0.9977417)
(0.002380371, -0.05340576, -0.03942871, 0.9977417)
(0.00244140625, -0.053527832, -0.0393676758, 0.9977417)
(0.00262451172, -0.0537109375, -0.03942871, 0.9977417)
(0.00262451172, -0.0537109375, -0.03942871, 0.9977417)
(0.00262451172, -0.0539550781, -0.0394897461, 0.9977417)
(0.00262451172, -0.0539550781, -0.0394897461, 0.9977417)
(0.00262451172, -0.0539550781, -0.0394897461, 0.9977417)
(0.00262451172, -0.0539550781, -0.0394897461, 0.9977417)
(0.00280761719, -0.05407715, -0.03955078, 0.9977417)
(0.00280761719, -0.05407715, -0.03955078, 0.9977417)
(0.00268554688, -0.05432129, -0.03955078, 0.997680664)
(0.00268554688, -0.05432129, -0.03955078, 0.997680664)
(0.002380371, -0.05432129, -0.03955078, 0.997680664)
(0.002380371, -0.0542602539, -0.03955078, 0.9977417)
(0.00262451172, -0.05444336, -0.0394897461, 0.997680664)
(0.00262451172, -0.05444336, -0.0394897461, 0.997680664)
(0.00262451172, -0.0547485352, -0.0394897461, 0.997680664)
(0.00262451172, -0.0547485352, -0.0394897461, 0.997680664)
(0.00256347656, -0.0547485352, -0.0394897461, 0.997680664)
(0.00256347656, -0.0547485352, -0.0394897461, 0.997680664)
(0.00262451172, -0.0547485352, -0.0394897461, 0.997680664)
(0.00262451172, -0.0547485352, -0.0394897461, 0.997680664)
(0.00262451172, -0.0547485352, -0.0394897461, 0.997680664)
(0.00262451172, -0.0547485352, -0.0394897461, 0.997680664)
(0.00262451172, -0.0547485352, -0.0394897461, 0.997680664)
(0.00262451172, -0.0546875, -0.0394897461, 0.997680664)
(0.00262451172, -0.0546875, -0.0394897461, 0.997680664)
(0.00262451172, -0.0546875, -0.0394897461, 0.997680664)
(0.00268554688, -0.0546875, -0.0394897461, 0.997680664)
(0.00268554688, -0.0546875, -0.0394897461, 0.997680664)
(0.00268554688, -0.0546875, -0.0394897461, 0.997680664)
(0.00268554688, -0.0546875, -0.0394897461, 0.997680664)
(0.00268554688, -0.0546875, -0.0394897461, 0.997680664)
(0.00268554688, -0.0546875, -0.0394897461, 0.997680664)
(0.00262451172, -0.0546875, -0.0394897461, 0.997680664)
(0.00262451172, -0.0546875, -0.0394897461, 0.997680664)
(0.00262451172, -0.0546875, -0.0394897461, 0.997680664)
(0.00262451172, -0.0546875, -0.0394897461, 0.997680664)
(0.00262451172, -0.0547485352, -0.0394897461, 0.997680664)
(0.00225830078, -0.0547485352, -0.03930664, 0.997680664)
(0.00225830078, -0.0547485352, -0.03930664, 0.997680664)
(0.00183105469, -0.0546264648, -0.0391235352, 0.997680664)
(0.00183105469, -0.0546264648, -0.0391235352, 0.997680664)
(0.00170898438, -0.0547485352, -0.03894043, 0.997680664)
(0.00170898438, -0.05480957, -0.03894043, 0.997680664)
(0.00170898438, -0.05480957, -0.03894043, 0.997680664)
(0.00170898438, -0.05480957, -0.03894043, 0.997680664)
(0.00170898438, -0.05480957, -0.03894043, 0.997680664)
(0.00170898438, -0.05480957, -0.03894043, 0.997680664)
(0.00170898438, -0.05480957, -0.03894043, 0.997680664)
(0.00177001953, -0.0549926758, -0.0387573242, 0.997680664)
(0.00177001953, -0.0549926758, -0.0387573242, 0.997680664)
(0.00183105469, -0.05493164, -0.0387573242, 0.997680664)
(0.00183105469, -0.05493164, -0.0387573242, 0.997680664)
(0.00183105469, -0.0548706055, -0.0387573242, 0.997680664)
(0.00183105469, -0.0548706055, -0.0387573242, 0.997680664)
(0.00183105469, -0.0548706055, -0.0387573242, 0.997680664)
(0.00201416016, -0.05456543, -0.0385131836, 0.9977417)
(0.00201416016, -0.05456543, -0.0385131836, 0.9977417)
(0.00207519531, -0.0542602539, -0.0382080078, 0.9977417)
(0.00207519531, -0.0542602539, -0.0382080078, 0.9977417)
(0.00219726563, -0.0539550781, -0.037902832, 0.997802734)
(0.00219726563, -0.0539550781, -0.037902832, 0.997802734)
(0.00219726563, -0.0536499023, -0.0375976563, 0.997802734)
(0.00219726563, -0.0536499023, -0.0375976563, 0.997802734)
(0.00201416016, -0.05316162, -0.03729248, 0.99786377)
(0.00189208984, -0.0526123047, -0.03704834, 0.9979248)
(0.00189208984, -0.0526123047, -0.03704834, 0.9979248)
(0.001953125, -0.0521240234, -0.0368652344, 0.9979248)
(0.001953125, -0.0521240234, -0.0368652344, 0.9979248)
(0.001953125, -0.0516357422, -0.0368652344, 0.99798584)
(0.00189208984, -0.05114746, -0.0368652344, 0.99798584)
(0.001953125, -0.0507202148, -0.03692627, 0.99798584)
(0.001953125, -0.0507202148, -0.03692627, 0.99798584)
(0.00219726563, -0.0504760742, -0.03704834, 0.99798584)
(0.00219726563, -0.0504760742, -0.03704834, 0.99798584)
(0.00219726563, -0.0504760742, -0.03704834, 0.99798584)
(0.00219726563, -0.0504760742, -0.03704834, 0.99798584)
(0.00225830078, -0.0504760742, -0.03704834, 0.99798584)
(0.00225830078, -0.0504760742, -0.03704834, 0.99798584)
(0.002380371, -0.05053711, -0.037109375, 0.99798584)
(0.002380371, -0.05053711, -0.037109375, 0.99798584)
(0.00250244141, -0.0507202148, -0.037109375, 0.99798584)
(0.00250244141, -0.0507202148, -0.037109375, 0.99798584)
(0.00250244141, -0.0507202148, -0.037109375, 0.99798584)
(0.00244140625, -0.0507202148, -0.037109375, 0.99798584)
(0.00244140625, -0.0507202148, -0.037109375, 0.99798584)
(0.00244140625, -0.0507202148, -0.037109375, 0.99798584)
(0.00244140625, -0.0507202148, -0.037109375, 0.99798584)
(0.00250244141, -0.0505981445, -0.03729248, 0.99798584)
(0.00250244141, -0.0505981445, -0.03729248, 0.99798584)
(0.002380371, -0.0504760742, -0.03753662, 0.99798584)
(0.002380371, -0.0503540039, -0.03778076, 0.99798584)
(0.002380371, -0.0503540039, -0.03778076, 0.99798584)
(0.002380371, -0.0503540039, -0.03778076, 0.99798584)
(0.002380371, -0.0503540039, -0.03778076, 0.99798584)
(0.00244140625, -0.0503540039, -0.03778076, 0.99798584)
(0.00244140625, -0.0503540039, -0.03778076, 0.99798584)
(0.00244140625, -0.0503540039, -0.03778076, 0.99798584)
(0.00244140625, -0.0503540039, -0.03778076, 0.99798584)
(0.00244140625, -0.0503540039, -0.03778076, 0.99798584)
(0.00256347656, -0.0505981445, -0.0378417969, 0.99798584)
(0.00256347656, -0.0505981445, -0.0378417969, 0.99798584)
(0.00268554688, -0.05090332, -0.037902832, 0.9979248)
(0.00268554688, -0.05114746, -0.0380249023, 0.9979248)
(0.00268554688, -0.05114746, -0.0380249023, 0.9979248)
(0.00268554688, -0.05114746, -0.0380249023, 0.9979248)
(0.00268554688, -0.05114746, -0.0380249023, 0.9979248)
(0.00268554688, -0.05114746, -0.0380249023, 0.9979248)
(0.00268554688, -0.0512084961, -0.0380249023, 0.9979248)
(0.00268554688, -0.0512084961, -0.0380249023, 0.9979248)
(0.00268554688, -0.0512084961, -0.0380249023, 0.9979248)
(0.00268554688, -0.05126953, -0.0380249023, 0.9979248)
(0.00268554688, -0.05126953, -0.0380249023, 0.9979248)
