(-0.0319213867, 0.0131225586, -0.424560547, 0.9047241)
(-0.03302002, 0.01361084, -0.42401123, 0.9049072)
(-0.03302002, 0.01361084, -0.42401123, 0.9049072)
(-0.03363037, 0.0139770508, -0.4234619, 0.905151367)
(-0.03363037, 0.0139770508, -0.4234619, 0.905151367)
(-0.0334472656, 0.0140380859, -0.4229126, 0.9053955)
(-0.0327148438, 0.0139160156, -0.422485352, 0.905639648)
(-0.0327148438, 0.0139160156, -0.422485352, 0.905639648)
(-0.0319824219, 0.0137939453, -0.422180176, 0.905822754)
(-0.0319824219, 0.0137939453, -0.422180176, 0.905822754)
(-0.0319824219, 0.0137939453, -0.422180176, 0.905822754)
(-0.03173828, 0.0140991211, -0.422180176, 0.905822754)
(-0.03173828, 0.0140991211, -0.422180176, 0.905822754)
(-0.03137207, 0.0142211914, -0.421936035, 0.9059448)
(-0.03137207, 0.0142211914, -0.421936035, 0.9059448)
(-0.03137207, 0.0142211914, -0.421936035, 0.9059448)
(-0.03112793, 0.014465332, -0.421447754, 0.906188965)
(-0.03112793, 0.0150756836, -0.421142578, 0.906311035)
(-0.03112793, 0.0150756836, -0.421142578, 0.906311035)
(-0.03149414, 0.0156860352, -0.4210205, 0.9063721)
(-0.0317993164, 0.0161743164, -0.421081543, 0.906311035)
(-0.0314331055, 0.0164794922, -0.422119141, 0.905822754)
(-0.0314331055, 0.0164794922, -0.422119141, 0.905822754)
(-0.0310668945, 0.0165405273, -0.423339844, 0.905273438)
(-0.0310668945, 0.0165405273, -0.423339844, 0.905273438)
(-0.0302124023, 0.0158081055, -0.424377441, 0.9048462)
(-0.0285644531, 0.0147705078, -0.42565918, 0.9042969)
(-0.0285644531, 0.0147705078, -0.42565918, 0.9042969)
(-0.0270385742, 0.013671875, -0.427124023, 0.9036865)
(-0.0260620117, 0.0124511719, -0.4290161, 0.902832031)
(-0.02532959, 0.0112915039, -0.431213379, 0.901794434)
(-0.02532959, 0.0112915039, -0.431213379, 0.901794434)
(-0.0248413086, 0.0103759766, -0.433288574, 0.9008179)
(-0.0248413086, 0.0103759766, -0.433288574, 0.9008179)
(-0.0243530273, 0.009033203, -0.4348755, 0.900085449)
(-0.0232543945, 0.007385254, -0.4362793, 0.8994751)
(-0.0232543945, 0.007385254, -0.4362793, 0.8994751)
(-0.0218505859, 0.00573730469, -0.4378662, 0.8987427)
(-0.0218505859, 0.00573730469, -0.4378662, 0.8987427)
(-0.0208129883, 0.00402832031, -0.43951416, 0.8979492)
(-0.0208129883, 0.00402832031, -0.43951416, 0.8979492)
(-0.0200805664, 0.001953125, -0.4414673, 0.8970337)
(-0.0200805664, 0.001953125, -0.4414673, 0.8970337)
(-0.0193481445, -0.000122070313, -0.4440918, 0.895751953)
(-0.0193481445, -0.000122070313, -0.4440918, 0.895751953)
(-0.0181274414, -0.00256347656, -0.446960449, 0.894348145)
(-0.0181274414, -0.00256347656, -0.446960449, 0.894348145)
(-0.0161132813, -0.00604248047, -0.450317383, 0.8927002)
(-0.0126342773, -0.00970459, -0.453369141, 0.8911743)
(-0.0126342773, -0.00970459, -0.453369141, 0.8911743)
(-0.008422852, -0.0133666992, -0.455444336, 0.8901367)
(-0.00561523438, -0.0167236328, -0.4570923, 0.8892212)
(-0.00573730469, -0.0186767578, -0.459228516, 0.8880615)
(-0.00573730469, -0.0186767578, -0.459228516, 0.8880615)
(-0.00573730469, -0.0186767578, -0.459228516, 0.8880615)
(-0.007446289, -0.01965332, -0.461425781, 0.886901855)
(-0.008483887, -0.0203857422, -0.462768555, 0.886169434)
(-0.008483887, -0.0203857422, -0.462768555, 0.886169434)
(-0.008422852, -0.0209960938, -0.463256836, 0.8859253)
(-0.008422852, -0.0209960938, -0.463256836, 0.8859253)
(-0.008056641, -0.02142334, -0.463256836, 0.8859253)
(-0.008056641, -0.02142334, -0.463256836, 0.8859253)
(-0.008056641, -0.02142334, -0.4631958, 0.8859253)
(-0.009033203, -0.02142334, -0.463684082, 0.885681152)
(-0.009033203, -0.02142334, -0.463684082, 0.885681152)
(-0.009277344, -0.0210571289, -0.4654541, 0.8847656)
(-0.009277344, -0.0210571289, -0.4654541, 0.8847656)
(-0.006225586, -0.02178955, -0.464660645, 0.8851929)
(-0.006225586, -0.02178955, -0.464660645, 0.8851929)
(-0.006591797, -0.0218505859, -0.464355469, 0.885314941)
(-0.007385254, -0.0216064453, -0.46484375, 0.8850708)
(-0.007385254, -0.0216064453, -0.46484375, 0.8850708)
(-0.007385254, -0.0216064453, -0.46484375, 0.8850708)
(-0.007446289, -0.02142334, -0.465148926, 0.8848877)
(-0.007019043, -0.0212402344, -0.465332031, 0.88482666)
(-0.007019043, -0.0212402344, -0.465332031, 0.88482666)
(-0.00653076172, -0.0209350586, -0.465271, 0.8848877)
(-0.00653076172, -0.0209350586, -0.465271, 0.8848877)
(-0.006958008, -0.0202026367, -0.465026855, 0.885009766)
(-0.006958008, -0.0202026367, -0.465026855, 0.885009766)
(-0.006958008, -0.0202026367, -0.465026855, 0.885009766)
(-0.006958008, -0.0202026367, -0.465026855, 0.885009766)
(-0.00732421875, -0.01965332, -0.465209961, 0.88494873)
(-0.00732421875, -0.01965332, -0.465209961, 0.88494873)
(-0.00732421875, -0.01965332, -0.465209961, 0.88494873)
(-0.00732421875, -0.01965332, -0.465209961, 0.88494873)
(-0.00732421875, -0.01965332, -0.465209961, 0.88494873)
(-0.007507324, -0.0180664063, -0.4650879, 0.885009766)
(-0.00732421875, -0.0180053711, -0.465148926, 0.885009766)
(-0.00732421875, -0.0180053711, -0.465148926, 0.885009766)
(-0.00714111328, -0.0174560547, -0.465271, 0.88494873)
(-0.00714111328, -0.0174560547, -0.465271, 0.88494873)
(-0.007019043, -0.0169067383, -0.465271, 0.88494873)
(-0.007019043, -0.0169067383, -0.465271, 0.88494873)
(-0.00689697266, -0.0162353516, -0.4650879, 0.8850708)
(-0.00689697266, -0.0156860352, -0.46496582, 0.885131836)
(-0.00689697266, -0.0156860352, -0.46496582, 0.885131836)
(-0.006591797, -0.0153808594, -0.46496582, 0.885131836)
(-0.006591797, -0.0153808594, -0.46496582, 0.885131836)
(-0.006591797, -0.0151367188, -0.4650879, 0.8850708)
(-0.006591797, -0.0151367188, -0.4650879, 0.8850708)
(-0.007019043, -0.0145874023, -0.4654541, 0.8848877)
(-0.007019043, -0.0145874023, -0.4654541, 0.8848877)
(-0.007019043, -0.0142822266, -0.465698242, 0.8847656)
(-0.007019043, -0.0142822266, -0.465698242, 0.8847656)
(-0.006652832, -0.0141601563, -0.465881348, 0.8847046)
(-0.00646972656, -0.0140991211, -0.4661255, 0.8845825)
(-0.00714111328, -0.01373291, -0.466552734, 0.8843384)
(-0.00714111328, -0.01373291, -0.466552734, 0.8843384)
(-0.007385254, -0.0135498047, -0.4666748, 0.884277344)
(-0.007385254, -0.0135498047, -0.4666748, 0.884277344)
(-0.007507324, -0.0133666992, -0.466918945, 0.8841553)
(-0.007507324, -0.0133666992, -0.466918945, 0.8841553)
(-0.007751465, -0.0130615234, -0.467102051, 0.8840332)
(-0.007751465, -0.0130615234, -0.467102051, 0.8840332)
(-0.0078125, -0.0127563477, -0.467224121, 0.8840332)
(-0.009094238, -0.00994873047, -0.4675293, 0.8838501)
(-0.009094238, -0.00994873047, -0.4675293, 0.8838501)
(-0.008666992, -0.00958251953, -0.467651367, 0.883789063)
(-0.008666992, -0.00958251953, -0.467651367, 0.883789063)
(-0.008422852, -0.009155273, -0.4677124, 0.883789063)
(-0.008422852, -0.009155273, -0.4677124, 0.883789063)
(-0.008239746, -0.008544922, -0.4677124, 0.883789063)
(-0.008239746, -0.008544922, -0.4677124, 0.883789063)
(-0.00793457, -0.008117676, -0.467590332, 0.8838501)
(-0.00793457, -0.008117676, -0.467590332, 0.8838501)
(-0.00793457, -0.00762939453, -0.467590332, 0.8838501)
(-0.008117676, -0.00677490234, -0.4677124, 0.883789063)
(-0.008117676, -0.00677490234, -0.4677124, 0.883789063)
(-0.008239746, -0.006225586, -0.467651367, 0.8838501)
(-0.008239746, -0.006225586, -0.467651367, 0.8838501)
(-0.0078125, -0.006286621, -0.467468262, 0.883911133)
(-0.0078125, -0.006286621, -0.467468262, 0.883911133)
(-0.007385254, -0.00640869141, -0.467407227, 0.883972168)
(-0.007385254, -0.00640869141, -0.467407227, 0.883972168)
(-0.007385254, -0.00640869141, -0.467407227, 0.883972168)
(-0.007385254, -0.00640869141, -0.467407227, 0.883972168)
(-0.007446289, -0.00640869141, -0.467407227, 0.883972168)
(-0.007446289, -0.00634765625, -0.467407227, 0.883972168)
(-0.007446289, -0.00634765625, -0.467407227, 0.883972168)
(-0.007385254, -0.00634765625, -0.467407227, 0.883972168)
(-0.007385254, -0.00634765625, -0.467407227, 0.883972168)
(-0.007385254, -0.00634765625, -0.467407227, 0.883972168)
(-0.007385254, -0.00634765625, -0.467407227, 0.883972168)
(-0.007385254, -0.00634765625, -0.467407227, 0.883972168)
(-0.007385254, -0.00634765625, -0.467407227, 0.883972168)
(-0.007385254, -0.00634765625, -0.467407227, 0.883972168)
(-0.007385254, -0.00634765625, -0.467407227, 0.883972168)
(-0.007385254, -0.00634765625, -0.467407227, 0.883972168)
(-0.007385254, -0.006286621, -0.467468262, 0.883911133)
(-0.007385254, -0.006286621, -0.467468262, 0.883911133)
(-0.007385254, -0.00653076172, -0.467468262, 0.883972168)
(-0.007080078, -0.00726318359, -0.4671631, 0.884094238)
(-0.007080078, -0.00726318359, -0.4671631, 0.884094238)
(-0.00714111328, -0.007446289, -0.4671631, 0.884094238)
(-0.00714111328, -0.007446289, -0.4671631, 0.884094238)
(-0.00714111328, -0.007446289, -0.4671631, 0.884094238)
(-0.00714111328, -0.007507324, -0.467102051, 0.8841553)
(-0.007507324, -0.007751465, -0.46697998, 0.8841553)
(-0.007507324, -0.007751465, -0.46697998, 0.8841553)
(-0.00793457, -0.007751465, -0.466918945, 0.8842163)
(-0.00793457, -0.007751465, -0.466918945, 0.8842163)
(-0.008605957, -0.0078125, -0.466552734, 0.8843994)
(-0.008605957, -0.0078125, -0.466552734, 0.8843994)
(-0.008605957, -0.0078125, -0.466552734, 0.8843994)
(-0.008605957, -0.0078125, -0.466552734, 0.8843994)
(-0.008605957, -0.0078125, -0.466552734, 0.8843994)
(-0.008605957, -0.0078125, -0.466552734, 0.8843994)
(-0.008605957, -0.0078125, -0.466552734, 0.8843994)
(-0.008911133, -0.007751465, -0.466552734, 0.8843994)
(-0.008911133, -0.007751465, -0.466552734, 0.8843994)
(-0.009155273, -0.007385254, -0.4664917, 0.8843994)
(-0.009155273, -0.007385254, -0.4664917, 0.8843994)
(-0.009155273, -0.007385254, -0.4664917, 0.8843994)
(-0.009094238, -0.007385254, -0.4664917, 0.8843994)
(-0.009094238, -0.007385254, -0.4664917, 0.8843994)
(-0.009155273, -0.007385254, -0.4664917, 0.8843994)
(-0.009155273, -0.007385254, -0.4664917, 0.8843994)
(-0.009094238, -0.00732421875, -0.4664917, 0.8843994)
(-0.009094238, -0.00732421875, -0.4664917, 0.8843994)
(-0.009094238, -0.00732421875, -0.466552734, 0.8843994)
(-0.009094238, -0.00732421875, -0.466552734, 0.8843994)
(-0.009216309, -0.00714111328, -0.466552734, 0.8843994)
(-0.00958251953, -0.007080078, -0.46661377, 0.8843384)
(-0.00958251953, -0.007080078, -0.46661377, 0.8843384)
(-0.009643555, -0.007019043, -0.46661377, 0.8843384)
(-0.009643555, -0.007019043, -0.46661377, 0.8843384)
(-0.00958251953, -0.006958008, -0.46661377, 0.8843384)
(-0.00958251953, -0.006958008, -0.46661377, 0.8843384)
(-0.00958251953, -0.006958008, -0.46661377, 0.8843384)
(-0.009765625, -0.00689697266, -0.46661377, 0.8843384)
(-0.009765625, -0.00689697266, -0.46661377, 0.8843384)
(-0.009765625, -0.00689697266, -0.46661377, 0.8843384)
(-0.009765625, -0.00689697266, -0.46661377, 0.8843384)
(-0.0100708008, -0.00689697266, -0.4666748, 0.8843384)
(-0.0100708008, -0.00689697266, -0.4666748, 0.8843384)
(-0.0100708008, -0.00689697266, -0.4666748, 0.8843384)
(-0.0100708008, -0.00689697266, -0.4666748, 0.8843384)
(-0.0100708008, -0.0068359375, -0.4666748, 0.8843384)
(-0.010559082, -0.007080078, -0.4664917, 0.8843994)
(-0.010559082, -0.007080078, -0.4664917, 0.8843994)
(-0.0110473633, -0.007080078, -0.466430664, 0.884460449)
(-0.0111694336, -0.00762939453, -0.466247559, 0.8845215)
(-0.0111694336, -0.00762939453, -0.466247559, 0.8845215)
(-0.01171875, -0.00756835938, -0.466247559, 0.8845215)
(-0.0120239258, -0.007507324, -0.466186523, 0.8845825)
(-0.0135498047, -0.007080078, -0.465698242, 0.8847656)
(-0.0135498047, -0.007080078, -0.465698242, 0.8847656)
(-0.0140380859, -0.007080078, -0.465576172, 0.88482666)
(-0.0140380859, -0.007080078, -0.465576172, 0.88482666)
(-0.0146484375, -0.006958008, -0.465515137, 0.8848877)
(-0.0146484375, -0.006958008, -0.465515137, 0.8848877)
(-0.0147094727, -0.00689697266, -0.465515137, 0.8848877)
(-0.0147094727, -0.00689697266, -0.465515137, 0.8848877)
(-0.0147094727, -0.00689697266, -0.465515137, 0.8848877)
(-0.0147094727, -0.00689697266, -0.465515137, 0.8848877)
(-0.0147094727, -0.00689697266, -0.465515137, 0.8848877)
(-0.0146484375, -0.00689697266, -0.465515137, 0.8848877)
(-0.0146484375, -0.00689697266, -0.465515137, 0.8848877)
(-0.0146484375, -0.00689697266, -0.465515137, 0.8848877)
(-0.0146484375, -0.00689697266, -0.465515137, 0.8848877)
(-0.0146484375, -0.00689697266, -0.465515137, 0.8848877)
(-0.0146484375, -0.00689697266, -0.465515137, 0.8848877)
(-0.0146484375, -0.00689697266, -0.465515137, 0.8848877)
(-0.0146484375, -0.00689697266, -0.465515137, 0.8848877)
(-0.0146484375, -0.00689697266, -0.465515137, 0.8848877)
(-0.0145874023, -0.00689697266, -0.465515137, 0.8848877)
(-0.0145874023, -0.00689697266, -0.465515137, 0.8848877)
(-0.0145874023, -0.00689697266, -0.465515137, 0.8848877)
(-0.0145874023, -0.00689697266, -0.465515137, 0.8848877)
(-0.0145874023, -0.00689697266, -0.465515137, 0.8848877)
(-0.0145874023, -0.00689697266, -0.465515137, 0.8848877)
(-0.0144042969, -0.007019043, -0.465393066, 0.88494873)
(-0.0142822266, -0.00714111328, -0.465271, 0.885009766)
(-0.0142822266, -0.00714111328, -0.465271, 0.885009766)
(-0.0142822266, -0.00714111328, -0.465271, 0.885009766)
(-0.0140380859, -0.00726318359, -0.4650879, 0.885131836)
(-0.0137939453, -0.00732421875, -0.4649048, 0.8851929)
(-0.0137939453, -0.00732421875, -0.4649048, 0.8851929)
(-0.01361084, -0.007385254, -0.4647827, 0.885314941)
(-0.01373291, -0.00714111328, -0.4638672, 0.8857422)
(-0.0138549805, -0.00689697266, -0.463623047, 0.885864258)
(-0.0138549805, -0.00689697266, -0.463623047, 0.885864258)
(-0.0138549805, -0.006713867, -0.463317871, 0.886047363)
(-0.0138549805, -0.006713867, -0.463317871, 0.886047363)
(-0.0139160156, -0.00653076172, -0.46307373, 0.886169434)
(-0.0139160156, -0.00653076172, -0.46307373, 0.886169434)
(-0.0139160156, -0.00653076172, -0.46307373, 0.886169434)
(-0.0139160156, -0.00653076172, -0.46307373, 0.886169434)
(-0.0139160156, -0.00653076172, -0.46307373, 0.886169434)
(-0.0139160156, -0.00653076172, -0.46307373, 0.886169434)
(-0.0137939453, -0.006652832, -0.462890625, 0.8862915)
(-0.0138549805, -0.006652832, -0.46270752, 0.886352539)
(-0.0138549805, -0.006652832, -0.46270752, 0.886352539)
(-0.0138549805, -0.006713867, -0.462463379, 0.8864746)
(-0.0138549805, -0.006713867, -0.462463379, 0.8864746)
(-0.0137939453, -0.0068359375, -0.462280273, 0.8865967)
(-0.0137939453, -0.0068359375, -0.462280273, 0.8865967)
(-0.0137939453, -0.0068359375, -0.462280273, 0.8865967)
(-0.0138549805, -0.006958008, -0.462036133, 0.88671875)
(-0.0138549805, -0.006958008, -0.462036133, 0.88671875)
(-0.0137939453, -0.00720214844, -0.461914063, 0.8867798)
(-0.0137939453, -0.00720214844, -0.461914063, 0.8867798)
(-0.01373291, -0.007507324, -0.461792, 0.8868408)
(-0.01373291, -0.007507324, -0.461792, 0.8868408)
(-0.0140991211, -0.00756835938, -0.461425781, 0.8870239)
(-0.0142822266, -0.00762939453, -0.4613037, 0.887084961)
(-0.0142822266, -0.00762939453, -0.4613037, 0.887084961)
(-0.014465332, -0.0078125, -0.4611206, 0.887146)
(-0.014465332, -0.0078125, -0.4611206, 0.887146)
(-0.0147705078, -0.008056641, -0.460998535, 0.887207031)
(-0.0147705078, -0.008056641, -0.460998535, 0.887207031)
(-0.0151367188, -0.008178711, -0.460998535, 0.887207031)
(-0.0151367188, -0.008178711, -0.460998535, 0.887207031)
(-0.0153808594, -0.008300781, -0.460998535, 0.887207031)
(-0.0153808594, -0.008300781, -0.460998535, 0.887207031)
(-0.01550293, -0.008300781, -0.46105957, 0.887207031)
(-0.0155639648, -0.008605957, -0.46105957, 0.887146)
(-0.0155639648, -0.008605957, -0.46105957, 0.887146)
(-0.01574707, -0.009033203, -0.4611206, 0.887146)
(-0.01574707, -0.009033203, -0.4611206, 0.887146)
(-0.0162963867, -0.00958251953, -0.461242676, 0.8870239)
(-0.0162963867, -0.00958251953, -0.461242676, 0.8870239)
(-0.016418457, -0.009643555, -0.4613037, 0.8870239)
(-0.016418457, -0.009643555, -0.4613037, 0.8870239)
(-0.016418457, -0.009643555, -0.4613037, 0.8870239)
(-0.016418457, -0.009643555, -0.4613037, 0.8870239)
(-0.016418457, -0.009643555, -0.4613037, 0.8870239)
(-0.016418457, -0.009643555, -0.4613037, 0.8870239)
(-0.0163574219, -0.009887695, -0.461425781, 0.8869629)
(-0.0163574219, -0.009887695, -0.461425781, 0.8869629)
(-0.016418457, -0.0101318359, -0.461547852, 0.886901855)
(-0.0168457031, -0.0104980469, -0.461730957, 0.8867798)
(-0.016784668, -0.0108032227, -0.461853027, 0.88671875)
(-0.0169067383, -0.0109863281, -0.462036133, 0.8865967)
(-0.0169067383, -0.0109863281, -0.462036133, 0.8865967)
(-0.0170288086, -0.0110473633, -0.4621582, 0.886535645)
(-0.0170288086, -0.0110473633, -0.4621582, 0.886535645)
(-0.0170288086, -0.0110473633, -0.4621582, 0.886535645)
(-0.0170288086, -0.0110473633, -0.4621582, 0.886535645)
(-0.0170288086, -0.0110473633, -0.4621582, 0.886535645)
(-0.0170288086, -0.0110473633, -0.4621582, 0.886535645)
(-0.0171508789, -0.0111083984, -0.4623413, 0.8864746)
(-0.0172119141, -0.0113525391, -0.4625244, 0.886352539)
(-0.0172119141, -0.01159668, -0.46270752, 0.886230469)
(-0.0172119141, -0.01159668, -0.46270752, 0.886230469)
(-0.01739502, -0.01171875, -0.462890625, 0.886169434)
(-0.01751709, -0.0119018555, -0.46307373, 0.886047363)
(-0.01763916, -0.0120239258, -0.463256836, 0.8859253)
(-0.01763916, -0.0120239258, -0.463256836, 0.8859253)
(-0.01763916, -0.0120239258, -0.463256836, 0.8859253)
(-0.0178222656, -0.0122070313, -0.4633789, 0.885864258)
(-0.0178222656, -0.0122070313, -0.4633789, 0.885864258)
(-0.0180053711, -0.0123291016, -0.463500977, 0.8858032)
(-0.0181884766, -0.0123901367, -0.463623047, 0.8857422)
(-0.0181884766, -0.0123901367, -0.463623047, 0.8857422)
(-0.018371582, -0.0125732422, -0.463745117, 0.885681152)
(-0.018371582, -0.0125732422, -0.463745117, 0.885681152)
(-0.0184326172, -0.0128173828, -0.4638672, 0.8856201)
(-0.0185546875, -0.0130004883, -0.463928223, 0.8855591)
(-0.0185546875, -0.0130004883, -0.463928223, 0.8855591)
(-0.0186767578, -0.0131225586, -0.463989258, 0.885498047)
(-0.0187988281, -0.0134277344, -0.464111328, 0.885498047)
(-0.018737793, -0.01373291, -0.464111328, 0.885437)
(-0.018737793, -0.01373291, -0.464111328, 0.885437)
(-0.0189208984, -0.0139770508, -0.464172363, 0.885437)
(-0.0190429688, -0.0142211914, -0.464172363, 0.885376)
(-0.0190429688, -0.0142211914, -0.464172363, 0.885376)
(-0.0187988281, -0.0145874023, -0.464172363, 0.885437)
(-0.0189819336, -0.0147094727, -0.463989258, 0.885498047)
(-0.0191040039, -0.0149536133, -0.463806152, 0.8855591)
(-0.0191040039, -0.0149536133, -0.463806152, 0.8855591)
(-0.0193481445, -0.0151367188, -0.463745117, 0.8856201)
(-0.0193481445, -0.0151367188, -0.463745117, 0.8856201)
(-0.0193481445, -0.0151367188, -0.463745117, 0.8856201)
(-0.0193481445, -0.0151367188, -0.463745117, 0.8856201)
(-0.01940918, -0.0155639648, -0.463623047, 0.885681152)
(-0.01940918, -0.0155639648, -0.463623047, 0.885681152)
(-0.01940918, -0.01550293, -0.463623047, 0.885681152)
(-0.01940918, -0.01550293, -0.463623047, 0.885681152)
(-0.0195922852, -0.0156860352, -0.463562, 0.885681152)
(-0.0198974609, -0.0159301758, -0.463500977, 0.8857422)
(-0.0202636719, -0.0163574219, -0.4633789, 0.8857422)
(-0.0203857422, -0.0166015625, -0.463439941, 0.8857422)
(-0.0205078125, -0.0167236328, -0.463439941, 0.885681152)
(-0.0205078125, -0.0167236328, -0.463439941, 0.885681152)
(-0.0206298828, -0.0169677734, -0.463439941, 0.8857422)
(-0.0208129883, -0.01727295, -0.463317871, 0.8857422)
(-0.0208129883, -0.01727295, -0.463317871, 0.8857422)
(-0.0208129883, -0.01727295, -0.463317871, 0.8857422)
(-0.0209350586, -0.017578125, -0.463256836, 0.8858032)
(-0.0210571289, -0.0178222656, -0.463317871, 0.8857422)
(-0.0211181641, -0.0180053711, -0.4633789, 0.8857422)
(-0.0205688477, -0.0190429688, -0.463134766, 0.8858032)
(-0.0205688477, -0.0190429688, -0.463134766, 0.8858032)
(-0.0205688477, -0.0190429688, -0.463134766, 0.8858032)
(-0.0205688477, -0.0190429688, -0.463134766, 0.8858032)
(-0.0203857422, -0.01928711, -0.46295166, 0.8859253)
(-0.0203857422, -0.01940918, -0.46270752, 0.886047363)
(-0.0203857422, -0.01940918, -0.46270752, 0.886047363)
