(-0.0144042969, 0.0446777344, -0.458374023, 0.8875122)
(-0.0135498047, 0.0439453125, -0.4584961, 0.8875122)
(-0.0133056641, 0.0435791, -0.458618164, 0.8874512)
(-0.0133056641, 0.0435791, -0.458618164, 0.8874512)
(-0.0138549805, 0.04321289, -0.458435059, 0.887573242)
(-0.0138549805, 0.0433959961, -0.458251953, 0.8876343)
(-0.0138549805, 0.0433959961, -0.458251953, 0.8876343)
(-0.0143432617, 0.0441894531, -0.457946777, 0.887756348)
(-0.0143432617, 0.0441894531, -0.457946777, 0.887756348)
(-0.0150756836, 0.04473877, -0.4572754, 0.8880615)
(-0.01574707, 0.0458984375, -0.456848145, 0.8881836)
(-0.01574707, 0.0458984375, -0.456848145, 0.8881836)
(-0.0162963867, 0.0471801758, -0.4564209, 0.8883667)
(-0.0180664063, 0.0487060547, -0.455932617, 0.88848877)
(-0.0180664063, 0.0487060547, -0.455932617, 0.88848877)
(-0.0183105469, 0.0497436523, -0.4562378, 0.8882446)
(-0.0183105469, 0.0497436523, -0.4562378, 0.8882446)
(-0.0184326172, 0.05053711, -0.456298828, 0.8881836)
(-0.0184326172, 0.05053711, -0.456298828, 0.8881836)
(-0.018371582, 0.0505981445, -0.455993652, 0.8883667)
(-0.018371582, 0.05230713, -0.4572754, 0.887573242)
(-0.018371582, 0.05230713, -0.4572754, 0.887573242)
(-0.0205078125, 0.053894043, -0.4572754, 0.8874512)
(-0.0205078125, 0.053894043, -0.4572754, 0.8874512)
(-0.0225219727, 0.0549926758, -0.456665039, 0.8876343)
(-0.0236206055, 0.0556030273, -0.4562378, 0.887756348)
(-0.0236206055, 0.0556030273, -0.4562378, 0.887756348)
(-0.0244140625, 0.055847168, -0.4562378, 0.887756348)
(-0.0244140625, 0.055847168, -0.4562378, 0.887756348)
(-0.024230957, 0.0557250977, -0.456298828, 0.887756348)
(-0.0252685547, 0.05596924, -0.456298828, 0.8876953)
(-0.0252685547, 0.05596924, -0.456298828, 0.8876953)
(-0.0264282227, 0.05621338, -0.455688477, 0.887939453)
(-0.0260620117, 0.0556640625, -0.4547119, 0.88848877)
(-0.0260620117, 0.0556640625, -0.4547119, 0.88848877)
(-0.02545166, 0.05517578, -0.453674316, 0.8890381)
(-0.02545166, 0.05517578, -0.453674316, 0.8890381)
(-0.0256347656, 0.0543823242, -0.4529419, 0.889526367)
(-0.0256958, 0.0538330078, -0.451477051, 0.8902588)
(-0.0256958, 0.0538330078, -0.451477051, 0.8902588)
(-0.02331543, 0.0520019531, -0.4494629, 0.8914795)
(-0.0211792, 0.0493164063, -0.446167, 0.893310547)
(-0.0211792, 0.0493164063, -0.446167, 0.893310547)
(-0.0206298828, 0.0476074219, -0.444824219, 0.894104)
(-0.0206298828, 0.0476074219, -0.444824219, 0.894104)
(-0.0195922852, 0.0461425781, -0.443664551, 0.8947754)
(-0.0195922852, 0.0461425781, -0.443664551, 0.8947754)
(-0.018737793, 0.0450439453, -0.442810059, 0.8952637)
(-0.018737793, 0.0450439453, -0.442810059, 0.8952637)
(-0.0184326172, 0.0438842773, -0.442138672, 0.8956909)
(-0.01739502, 0.04260254, -0.44152832, 0.8960571)
(-0.01739502, 0.04260254, -0.44152832, 0.8960571)
(-0.0165405273, 0.0419311523, -0.441101074, 0.89630127)
(-0.0165405273, 0.0419311523, -0.441101074, 0.89630127)
(-0.0160522461, 0.0417480469, -0.4406128, 0.8965454)
(-0.0160522461, 0.0417480469, -0.4406128, 0.8965454)
(-0.0159301758, 0.0419921875, -0.440307617, 0.8966675)
(-0.0161743164, 0.0422363281, -0.440002441, 0.8968506)
(-0.0161743164, 0.0422363281, -0.440002441, 0.8968506)
(-0.0161743164, 0.0422973633, -0.440002441, 0.8968506)
(-0.0161743164, 0.0422973633, -0.440002441, 0.8968506)
(-0.0156860352, 0.041809082, -0.4389038, 0.8973999)
(-0.0156860352, 0.041809082, -0.4389038, 0.8973999)
(-0.0158081055, 0.0413208, -0.438232422, 0.8977661)
(-0.0158081055, 0.0406494141, -0.4373169, 0.8982544)
(-0.0166625977, 0.0402832031, -0.436706543, 0.898498535)
(-0.0166625977, 0.0402832031, -0.436706543, 0.898498535)
(-0.0169067383, 0.0397338867, -0.4362793, 0.8987427)
(-0.0169067383, 0.0397338867, -0.4362793, 0.8987427)
(-0.0162353516, 0.0388793945, -0.436157227, 0.898864746)
(-0.0162353516, 0.0388793945, -0.436157227, 0.898864746)
(-0.0151977539, 0.0378417969, -0.4362793, 0.898864746)
(-0.0146484375, 0.03729248, -0.436706543, 0.898681641)
(-0.0146484375, 0.03729248, -0.436706543, 0.898681641)
(-0.0137939453, 0.0369873047, -0.437255859, 0.8984375)
(-0.0137939453, 0.0369873047, -0.437255859, 0.8984375)
(-0.0120849609, 0.03668213, -0.4375, 0.898376465)
(-0.0120849609, 0.03668213, -0.4375, 0.898376465)
(-0.0108642578, 0.0363769531, -0.4378662, 0.898193359)
(-0.0108642578, 0.0363769531, -0.4378662, 0.898193359)
(-0.009643555, 0.035949707, -0.438232422, 0.8980713)
(-0.008483887, 0.03540039, -0.4385376, 0.8979492)
(-0.008483887, 0.03540039, -0.4385376, 0.8979492)
(-0.007019043, 0.03491211, -0.438842773, 0.897827148)
(-0.007019043, 0.03491211, -0.438842773, 0.897827148)
(-0.00579834, 0.0344848633, -0.438842773, 0.897827148)
(-0.00579834, 0.0344238281, -0.438842773, 0.897827148)
(-0.00579834, 0.0344238281, -0.438842773, 0.897827148)
(-0.00579834, 0.0344238281, -0.438842773, 0.897827148)
(-0.005859375, 0.0344238281, -0.438842773, 0.897827148)
(-0.00537109375, 0.03387451, -0.439025879, 0.897827148)
(-0.005126953, 0.0333251953, -0.439147949, 0.8977661)
(-0.005126953, 0.0333251953, -0.439147949, 0.8977661)
(-0.005126953, 0.033203125, -0.4393921, 0.897644043)
(-0.005126953, 0.033203125, -0.4393921, 0.897644043)
(-0.0048828125, 0.03289795, -0.43951416, 0.897583)
(-0.0048828125, 0.03289795, -0.43951416, 0.897583)
(-0.00457763672, 0.03277588, -0.439697266, 0.897522)
(-0.004211426, 0.0324707031, -0.439819336, 0.897460938)
(-0.004211426, 0.0324707031, -0.439819336, 0.897460938)
(-0.004211426, 0.0324707031, -0.439819336, 0.897460938)
(-0.004211426, 0.0324707031, -0.439819336, 0.897460938)
(-0.004211426, 0.0324707031, -0.439819336, 0.897460938)
(-0.004211426, 0.0324707031, -0.439819336, 0.897460938)
(-0.00372314453, 0.0323486328, -0.439819336, 0.897460938)
(-0.00366210938, 0.0322875977, -0.439819336, 0.897460938)
(-0.00366210938, 0.0322875977, -0.439819336, 0.897460938)
(-0.00366210938, 0.0323486328, -0.439819336, 0.897460938)
(-0.00366210938, 0.0323486328, -0.439819336, 0.897460938)
(-0.00360107422, 0.0322265625, -0.440002441, 0.8973999)
(-0.00360107422, 0.0322265625, -0.440002441, 0.8973999)
(-0.003479004, 0.0317993164, -0.4401245, 0.897338867)
(-0.003479004, 0.0317993164, -0.4401245, 0.897338867)
(-0.00378417969, 0.0316772461, -0.440185547, 0.897338867)
(-0.004211426, 0.0314331055, -0.4401245, 0.897338867)
(-0.004211426, 0.0314331055, -0.4401245, 0.897338867)
(-0.004699707, 0.0313110352, -0.4401245, 0.897338867)
(-0.004699707, 0.0313110352, -0.4401245, 0.897338867)
(-0.00524902344, 0.03100586, -0.440185547, 0.897338867)
(-0.00524902344, 0.03100586, -0.440185547, 0.897338867)
(-0.005493164, 0.0306396484, -0.440490723, 0.8972168)
(-0.00518798828, 0.030090332, -0.440856934, 0.8970337)
(-0.005432129, 0.0297241211, -0.441223145, 0.8968506)
(-0.005432129, 0.0297241211, -0.441223145, 0.8968506)
(-0.00579834, 0.02947998, -0.441589355, 0.8967285)
(-0.00610351563, 0.02911377, -0.441894531, 0.8965454)
(-0.00646972656, 0.0286865234, -0.4421997, 0.89642334)
(-0.00646972656, 0.0286865234, -0.4421997, 0.89642334)
(-0.006652832, 0.0282592773, -0.442565918, 0.896240234)
(-0.006652832, 0.0282592773, -0.442565918, 0.896240234)
(-0.00677490234, 0.0278320313, -0.4428711, 0.896118164)
(-0.00677490234, 0.0278320313, -0.4428711, 0.896118164)
(-0.007080078, 0.0274047852, -0.443115234, 0.8959961)
(-0.007080078, 0.0274047852, -0.443115234, 0.8959961)
(-0.00726318359, 0.02709961, -0.443481445, 0.895813)
(-0.00726318359, 0.02709961, -0.443481445, 0.895813)
(-0.00732421875, 0.0269165039, -0.4437256, 0.8956909)
(-0.007446289, 0.0268554688, -0.443969727, 0.895568848)
(-0.007446289, 0.0268554688, -0.443969727, 0.895568848)
(-0.007507324, 0.0267333984, -0.444152832, 0.8955078)
(-0.007507324, 0.0267333984, -0.444152832, 0.8955078)
(-0.00756835938, 0.0266723633, -0.444396973, 0.895385742)
(-0.00756835938, 0.0266723633, -0.444396973, 0.895385742)
(-0.0078125, 0.0266723633, -0.4446411, 0.8952637)
(-0.00799560547, 0.0268554688, -0.4449463, 0.895080566)
(-0.00799560547, 0.0268554688, -0.4449463, 0.895080566)
(-0.00793457, 0.0267944336, -0.4449463, 0.8951416)
(-0.008483887, 0.0266723633, -0.4437256, 0.8956909)
(-0.008483887, 0.0266723633, -0.4437256, 0.8956909)
(-0.008666992, 0.0264892578, -0.443481445, 0.895813)
(-0.0087890625, 0.0263671875, -0.44317627, 0.8959961)
(-0.0087890625, 0.0263671875, -0.44317627, 0.8959961)
(-0.008728027, 0.0261230469, -0.442932129, 0.896118164)
(-0.008728027, 0.0261230469, -0.442932129, 0.896118164)
(-0.008850098, 0.0257568359, -0.442688, 0.896240234)
(-0.008850098, 0.0257568359, -0.442688, 0.896240234)
(-0.008850098, 0.0255126953, -0.442626953, 0.89630127)
(-0.008911133, 0.02557373, -0.442443848, 0.8963623)
(-0.009033203, 0.0256958, -0.442260742, 0.89642334)
(-0.009033203, 0.0256958, -0.442260742, 0.89642334)
(-0.009094238, 0.0256958, -0.441955566, 0.896606445)
(-0.009094238, 0.0256958, -0.441955566, 0.896606445)
(-0.009216309, 0.0256347656, -0.4416504, 0.8967285)
(-0.009460449, 0.0256347656, -0.4413452, 0.8969116)
(-0.009460449, 0.0256347656, -0.4413452, 0.8969116)
(-0.00982666, 0.0256347656, -0.441223145, 0.896972656)
(-0.00982666, 0.0256347656, -0.441223145, 0.896972656)
(-0.0100097656, 0.02557373, -0.441101074, 0.8970337)
(-0.0100097656, 0.02557373, -0.441101074, 0.8970337)
(-0.0100708008, 0.02557373, -0.441101074, 0.8970337)
(-0.0100708008, 0.02557373, -0.441101074, 0.8970337)
(-0.0100708008, 0.02557373, -0.441101074, 0.8970337)
(-0.0103759766, 0.0256347656, -0.441040039, 0.8970337)
(-0.0103759766, 0.0256347656, -0.441040039, 0.8970337)
(-0.0103759766, 0.0256347656, -0.441040039, 0.8970337)
(-0.0103759766, 0.0256347656, -0.441040039, 0.8970337)
(-0.0103759766, 0.0256347656, -0.441040039, 0.8970337)
(-0.0106201172, 0.0257568359, -0.441040039, 0.8970337)
(-0.0108642578, 0.0260620117, -0.441101074, 0.896972656)
(-0.010925293, 0.0260620117, -0.441101074, 0.896972656)
(-0.010925293, 0.0260620117, -0.441101074, 0.896972656)
(-0.010925293, 0.0261230469, -0.441101074, 0.896972656)
(-0.010925293, 0.0261230469, -0.441101074, 0.896972656)
(-0.0108642578, 0.026184082, -0.441223145, 0.8969116)
(-0.0108642578, 0.026184082, -0.441223145, 0.8969116)
(-0.0110473633, 0.0262451172, -0.44140625, 0.8968506)
(-0.0110473633, 0.0262451172, -0.44140625, 0.8968506)
(-0.0112915039, 0.0262451172, -0.441589355, 0.8967285)
(-0.0112915039, 0.0262451172, -0.441589355, 0.8967285)
(-0.0112915039, 0.0262451172, -0.441589355, 0.8967285)
(-0.0114746094, 0.0264892578, -0.441772461, 0.8966675)
(-0.01171875, 0.0266723633, -0.441955566, 0.8965454)
(-0.01171875, 0.0266723633, -0.441955566, 0.8965454)
(-0.0117797852, 0.0267944336, -0.442138672, 0.8964844)
(-0.0123901367, 0.0267944336, -0.443603516, 0.8956909)
(-0.0125732422, 0.0267944336, -0.443786621, 0.8956299)
(-0.0125732422, 0.0267944336, -0.443786621, 0.8956299)
(-0.0126342773, 0.0268554688, -0.444030762, 0.8955078)
(-0.0126342773, 0.0268554688, -0.444030762, 0.8955078)
(-0.0125732422, 0.0267333984, -0.444213867, 0.895385742)
(-0.0125732422, 0.0267333984, -0.444213867, 0.895385742)
(-0.0126953125, 0.0267944336, -0.444396973, 0.8953247)
(-0.0126953125, 0.0267944336, -0.444396973, 0.8953247)
(-0.0130615234, 0.0269775391, -0.444458, 0.8952637)
(-0.0130615234, 0.0269775391, -0.444458, 0.8952637)
(-0.0130615234, 0.0269775391, -0.444458, 0.8952637)
(-0.0131225586, 0.0269165039, -0.4446411, 0.895202637)
(-0.0131225586, 0.0269165039, -0.4446411, 0.895202637)
(-0.0131835938, 0.0267333984, -0.444824219, 0.895080566)
(-0.0131835938, 0.0267333984, -0.444824219, 0.895080566)
(-0.0130004883, 0.0266113281, -0.445007324, 0.895019531)
(-0.0131835938, 0.0266723633, -0.445251465, 0.894897461)
(-0.0131835938, 0.0266723633, -0.445251465, 0.894897461)
(-0.0131835938, 0.0266723633, -0.445251465, 0.894897461)
(-0.0131835938, 0.0266723633, -0.445251465, 0.894897461)
(-0.0131225586, 0.0266723633, -0.445251465, 0.894897461)
(-0.0131225586, 0.0266723633, -0.445251465, 0.894897461)
(-0.0132446289, 0.0267333984, -0.4453125, 0.8948364)
(-0.0132446289, 0.0267333984, -0.4453125, 0.8948364)
(-0.0133666992, 0.0268554688, -0.445373535, 0.8948364)
(-0.0133666992, 0.0268554688, -0.445373535, 0.8948364)
(-0.0133666992, 0.0268554688, -0.445373535, 0.8948364)
(-0.0133666992, 0.0268554688, -0.445373535, 0.8948364)
(-0.0133666992, 0.0268554688, -0.445373535, 0.8948364)
(-0.0133666992, 0.0268554688, -0.445373535, 0.8948364)
(-0.0133666992, 0.0268554688, -0.445373535, 0.8948364)
(-0.0133666992, 0.0268554688, -0.445373535, 0.8948364)
(-0.0133666992, 0.0268554688, -0.445373535, 0.8948364)
(-0.0133056641, 0.0268554688, -0.445373535, 0.8948364)
(-0.0133056641, 0.0268554688, -0.445373535, 0.8948364)
(-0.0133056641, 0.0269165039, -0.445373535, 0.8948364)
(-0.0133056641, 0.0269165039, -0.445373535, 0.8948364)
(-0.0133056641, 0.0269165039, -0.445373535, 0.8948364)
(-0.0133056641, 0.0269165039, -0.445373535, 0.8948364)
(-0.0133056641, 0.0269165039, -0.445373535, 0.8948364)
(-0.0132446289, 0.02709961, -0.4453125, 0.8948364)
(-0.0132446289, 0.02709961, -0.4453125, 0.8948364)
(-0.0130615234, 0.02734375, -0.445251465, 0.8948364)
(-0.0127563477, 0.0275268555, -0.445251465, 0.894897461)
(-0.0119628906, 0.0283813477, -0.444885254, 0.895019531)
(-0.0116577148, 0.0285644531, -0.444763184, 0.895080566)
(-0.0116577148, 0.0285644531, -0.444763184, 0.895080566)
(-0.0113525391, 0.0288696289, -0.4446411, 0.8951416)
(-0.0113525391, 0.0288696289, -0.4446411, 0.8951416)
(-0.0111694336, 0.02923584, -0.444458, 0.895202637)
(-0.0111694336, 0.02947998, -0.444335938, 0.8953247)
(-0.0111694336, 0.0298461914, -0.4442749, 0.8952637)
(-0.0111694336, 0.0298461914, -0.4442749, 0.8952637)
(-0.0111694336, 0.0298461914, -0.4442749, 0.8952637)
(-0.0111694336, 0.0298461914, -0.4442749, 0.8952637)
(-0.0111694336, 0.0298461914, -0.4442749, 0.8952637)
(-0.0111694336, 0.0299072266, -0.4442749, 0.8952637)
(-0.0111694336, 0.0299072266, -0.4442749, 0.8952637)
(-0.0108032227, 0.0300292969, -0.444519043, 0.895202637)
(-0.0106811523, 0.0302734375, -0.444702148, 0.895080566)
(-0.0106811523, 0.0302734375, -0.444702148, 0.895080566)
(-0.0106201172, 0.0306396484, -0.444824219, 0.895019531)
(-0.0106201172, 0.0306396484, -0.444824219, 0.895019531)
(-0.010559082, 0.0310668945, -0.444824219, 0.895019531)
(-0.010559082, 0.03137207, -0.444885254, 0.8949585)
(-0.010559082, 0.0316772461, -0.445007324, 0.894897461)
(-0.010559082, 0.0316772461, -0.445007324, 0.894897461)
(-0.010559082, 0.0316772461, -0.445007324, 0.894897461)
(-0.010559082, 0.0316772461, -0.445007324, 0.894897461)
(-0.010559082, 0.0316772461, -0.445007324, 0.894897461)
(-0.0106201172, 0.03173828, -0.445007324, 0.894897461)
(-0.0106201172, 0.03173828, -0.445007324, 0.894897461)
(-0.0101928711, 0.0317993164, -0.44543457, 0.8946533)
(-0.0101928711, 0.0317993164, -0.44543457, 0.8946533)
(-0.0100097656, 0.03186035, -0.445617676, 0.8945923)
(-0.0100097656, 0.03186035, -0.445617676, 0.8945923)
(-0.00994873047, 0.03186035, -0.445617676, 0.8945923)
(-0.00994873047, 0.03186035, -0.445617676, 0.8945923)
(-0.00994873047, 0.0319213867, -0.445617676, 0.8945923)
(-0.00982666, 0.0321655273, -0.445617676, 0.8945923)
(-0.009277344, 0.03289795, -0.445617676, 0.89453125)
(-0.009277344, 0.03289795, -0.445617676, 0.89453125)
(-0.009277344, 0.0329589844, -0.445617676, 0.89453125)
(-0.009277344, 0.0329589844, -0.445617676, 0.89453125)
(-0.009277344, 0.0329589844, -0.445617676, 0.89453125)
(-0.009277344, 0.0329589844, -0.445617676, 0.89453125)
(-0.009277344, 0.03302002, -0.445617676, 0.89453125)
(-0.009277344, 0.03302002, -0.445617676, 0.89453125)
(-0.009277344, 0.03302002, -0.445617676, 0.89453125)
(-0.009277344, 0.0330810547, -0.445617676, 0.89453125)
(-0.009277344, 0.0330810547, -0.445617676, 0.89453125)
(-0.009277344, 0.0330810547, -0.445617676, 0.89453125)
(-0.009277344, 0.0330810547, -0.445617676, 0.89453125)
(-0.009277344, 0.03314209, -0.445617676, 0.89453125)
(-0.009277344, 0.033203125, -0.445617676, 0.89453125)
(-0.009277344, 0.033203125, -0.445617676, 0.89453125)
(-0.009277344, 0.033203125, -0.445617676, 0.89453125)
(-0.009277344, 0.033203125, -0.445617676, 0.89453125)
(-0.009277344, 0.03326416, -0.445617676, 0.89453125)
(-0.009277344, 0.03326416, -0.445617676, 0.89453125)
(-0.009277344, 0.0333251953, -0.445617676, 0.89453125)
(-0.009277344, 0.0333251953, -0.445617676, 0.89453125)
(-0.009277344, 0.0333251953, -0.445617676, 0.89453125)
(-0.009277344, 0.0333251953, -0.445617676, 0.89453125)
(-0.009216309, 0.03338623, -0.445617676, 0.89453125)
(-0.009216309, 0.0334472656, -0.445617676, 0.89453125)
(-0.009216309, 0.0334472656, -0.445617676, 0.89453125)
(-0.009216309, 0.0334472656, -0.445617676, 0.89453125)
(-0.009216309, 0.0334472656, -0.445617676, 0.89453125)
(-0.009216309, 0.0334472656, -0.445617676, 0.89453125)
(-0.009216309, 0.0334472656, -0.445617676, 0.89453125)
(-0.009155273, 0.0334472656, -0.445556641, 0.89453125)
(-0.009155273, 0.0334472656, -0.445556641, 0.89453125)
(-0.009155273, 0.0335083, -0.445556641, 0.89453125)
(-0.009155273, 0.0335083, -0.445556641, 0.89453125)
