(-0.136352539, 0.101745605, 0.9022827, 0.3959961)
(-0.13269043, 0.101013184, 0.9031372, 0.395568848)
(-0.13269043, 0.101013184, 0.9031372, 0.395568848)
(-0.1282959, 0.104370117, 0.903747559, 0.3947754)
(-0.1282959, 0.104370117, 0.903747559, 0.3947754)
(-0.127197266, 0.10345459, 0.9046631, 0.393310547)
(-0.127197266, 0.10345459, 0.9046631, 0.393310547)
(-0.125305176, 0.100769043, 0.905090332, 0.393432617)
(-0.121826172, 0.101196289, 0.9053955, 0.393859863)
(-0.121826172, 0.101196289, 0.9053955, 0.393859863)
(-0.11730957, 0.103149414, 0.9057007, 0.393981934)
(-0.11730957, 0.103149414, 0.9057007, 0.393981934)
(-0.114562988, 0.1027832, 0.9063721, 0.393371582)
(-0.114562988, 0.1027832, 0.9063721, 0.393371582)
(-0.114257813, 0.100708008, 0.907226563, 0.3920288)
(-0.114257813, 0.100708008, 0.907226563, 0.3920288)
(-0.114013672, 0.100158691, 0.907897949, 0.390686035)
(-0.113647461, 0.09991455, 0.9083252, 0.389892578)
(-0.113647461, 0.09991455, 0.9083252, 0.389892578)
(-0.113952637, 0.09881592, 0.9088135, 0.388916016)
(-0.113952637, 0.09881592, 0.9088135, 0.388916016)
(-0.113220215, 0.09765625, 0.909790039, 0.387146)
(-0.112304688, 0.09643555, 0.910522461, 0.3859253)
(-0.112304688, 0.09643555, 0.910522461, 0.3859253)
(-0.111694336, 0.09564209, 0.910827637, 0.385681152)
(-0.111694336, 0.09564209, 0.910827637, 0.385681152)
(-0.110839844, 0.09613037, 0.910827637, 0.3857422)
(-0.110839844, 0.09613037, 0.910827637, 0.3857422)
(-0.110778809, 0.0961914063, 0.910827637, 0.3857422)
(-0.110778809, 0.0961914063, 0.910827637, 0.3857422)
(-0.111022949, 0.09576416, 0.911010742, 0.385375977)
(-0.111206055, 0.09588623, 0.9110718, 0.385131836)
(-0.111206055, 0.09588623, 0.9110718, 0.385131836)
(-0.11114502, 0.09631348, 0.9110718, 0.3850708)
(-0.11114502, 0.09631348, 0.9110718, 0.3850708)
(-0.11114502, 0.09631348, 0.9110718, 0.3850708)
(-0.111450195, 0.09643555, 0.9110718, 0.38494873)
(-0.111572266, 0.09661865, 0.911010742, 0.3848877)
(-0.111572266, 0.09661865, 0.911010742, 0.3848877)
(-0.111816406, 0.0961914063, 0.9110718, 0.3848877)
(-0.111816406, 0.0961914063, 0.9110718, 0.3848877)
(-0.111755371, 0.09637451, 0.9110718, 0.384765625)
(-0.111694336, 0.09643555, 0.9111328, 0.384765625)
(-0.111694336, 0.09643555, 0.9111328, 0.384765625)
(-0.111938477, 0.09643555, 0.911010742, 0.3848877)
(-0.111938477, 0.09643555, 0.911010742, 0.3848877)
(-0.111938477, 0.09643555, 0.911010742, 0.3848877)
(-0.112182617, 0.09643555, 0.9112549, 0.384338379)
(-0.112182617, 0.09643555, 0.9112549, 0.384338379)
(-0.112426758, 0.09631348, 0.911499, 0.383667)
(-0.112426758, 0.09631348, 0.911499, 0.383667)
(-0.112548828, 0.09637451, 0.9116211, 0.383361816)
(-0.112548828, 0.09637451, 0.9116211, 0.383361816)
(-0.112548828, 0.09637451, 0.911560059, 0.383361816)
(-0.112548828, 0.09637451, 0.911560059, 0.383361816)
(-0.112609863, 0.09637451, 0.911560059, 0.383361816)
(-0.112609863, 0.09637451, 0.911560059, 0.383361816)
(-0.112487793, 0.09613037, 0.911743164, 0.383056641)
(-0.112548828, 0.0959472656, 0.9119873, 0.382568359)
(-0.112548828, 0.0959472656, 0.9119873, 0.382568359)
(-0.112487793, 0.09655762, 0.91204834, 0.382202148)
(-0.112487793, 0.09655762, 0.91204834, 0.382202148)
(-0.112365723, 0.09741211, 0.91204834, 0.382080078)
(-0.112365723, 0.09741211, 0.91204834, 0.382080078)
(-0.112731934, 0.09765625, 0.9121094, 0.381652832)
(-0.113525391, 0.09710693, 0.9123535, 0.38104248)
(-0.113525391, 0.09710693, 0.9123535, 0.38104248)
(-0.113525391, 0.09710693, 0.9123535, 0.38104248)
(-0.114074707, 0.09655762, 0.912597656, 0.380432129)
(-0.114196777, 0.09680176, 0.9127197, 0.380126953)
(-0.114196777, 0.09680176, 0.9127197, 0.380126953)
(-0.114013672, 0.0972290039, 0.912780762, 0.3798828)
(-0.114013672, 0.0972290039, 0.912780762, 0.3798828)
(-0.1138916, 0.0972290039, 0.912902832, 0.379638672)
(-0.1138916, 0.09674072, 0.913147, 0.379211426)
(-0.1138916, 0.09674072, 0.913147, 0.379211426)
(-0.1138916, 0.09643555, 0.913269043, 0.3788452)
(-0.1138916, 0.09643555, 0.913269043, 0.3788452)
(-0.113952637, 0.09631348, 0.9133911, 0.378601074)
(-0.113952637, 0.09631348, 0.9133911, 0.378601074)
(-0.113952637, 0.09631348, 0.9133911, 0.378601074)
(-0.113952637, 0.09631348, 0.9133911, 0.378601074)
(-0.114318848, 0.09649658, 0.9135742, 0.377990723)
(-0.114318848, 0.09649658, 0.9135742, 0.377990723)
(-0.114440918, 0.0961914063, 0.9136963, 0.377746582)
(-0.114440918, 0.0961914063, 0.9136963, 0.377746582)
(-0.114440918, 0.0959472656, 0.9138794, 0.377502441)
(-0.114257813, 0.09588623, 0.914001465, 0.3772583)
(-0.114257813, 0.09588623, 0.914001465, 0.3772583)
(-0.114257813, 0.09588623, 0.914001465, 0.3772583)
(-0.114135742, 0.09552002, 0.914123535, 0.37701416)
(-0.114196777, 0.0949707, 0.914306641, 0.376708984)
(-0.114440918, 0.09472656, 0.9144287, 0.376342773)
(-0.114440918, 0.09472656, 0.9144287, 0.376342773)
(-0.1149292, 0.09442139, 0.9144287, 0.3764038)
(-0.1149292, 0.09442139, 0.9144287, 0.3764038)
(-0.115356445, 0.0941772461, 0.914306641, 0.3765869)
(-0.115356445, 0.0941772461, 0.914306641, 0.3765869)
(-0.115539551, 0.09442139, 0.914123535, 0.3768921)
(-0.115539551, 0.09442139, 0.914123535, 0.3768921)
(-0.115600586, 0.09442139, 0.914123535, 0.3768921)
(-0.115600586, 0.09442139, 0.914123535, 0.3768921)
(-0.115600586, 0.09442139, 0.914123535, 0.3768921)
(-0.115722656, 0.09411621, 0.9141846, 0.37677002)
(-0.115722656, 0.09411621, 0.9141846, 0.37677002)
(-0.115844727, 0.09350586, 0.914306641, 0.376525879)
(-0.115844727, 0.09350586, 0.914306641, 0.376525879)
(-0.116088867, 0.0933227539, 0.9143677, 0.376342773)
(-0.116088867, 0.0933227539, 0.9143677, 0.376342773)
(-0.116210938, 0.09320068, 0.9143677, 0.376342773)
(-0.116394043, 0.09295654, 0.914306641, 0.376464844)
(-0.116394043, 0.09295654, 0.914306641, 0.376464844)
(-0.116455078, 0.09277344, 0.9142456, 0.376647949)
(-0.116455078, 0.09277344, 0.9142456, 0.376647949)
(-0.116455078, 0.0925293, 0.9142456, 0.376708984)
(-0.116455078, 0.0925293, 0.9142456, 0.376708984)
(-0.116455078, 0.0925293, 0.9142456, 0.376708984)
(-0.116455078, 0.0925293, 0.9142456, 0.376708984)
(-0.116516113, 0.0925293, 0.9142456, 0.376708984)
(-0.116516113, 0.0925293, 0.9142456, 0.376708984)
(-0.116516113, 0.0925293, 0.9142456, 0.376708984)
(-0.116516113, 0.09259033, 0.9142456, 0.376708984)
(-0.116516113, 0.09259033, 0.9142456, 0.376708984)
(-0.116638184, 0.09259033, 0.9141846, 0.376831055)
(-0.116638184, 0.09259033, 0.9141846, 0.376831055)
(-0.116455078, 0.09301758, 0.9140625, 0.37713623)
(-0.116455078, 0.09301758, 0.9140625, 0.37713623)
(-0.116271973, 0.09338379, 0.9139404, 0.377380371)
(-0.116271973, 0.09338379, 0.9139404, 0.377380371)
(-0.116271973, 0.09326172, 0.9138794, 0.377502441)
(-0.116271973, 0.09326172, 0.9138794, 0.377502441)
(-0.116271973, 0.09326172, 0.9138794, 0.377502441)
(-0.116271973, 0.09326172, 0.9138794, 0.377502441)
(-0.116271973, 0.09326172, 0.9138794, 0.377502441)
(-0.116027832, 0.09375, 0.9137573, 0.377807617)
(-0.116027832, 0.09387207, 0.913635254, 0.378051758)
(-0.116027832, 0.09387207, 0.913635254, 0.378051758)
(-0.116027832, 0.0939331055, 0.913635254, 0.378051758)
(-0.116027832, 0.0939331055, 0.913635254, 0.378051758)
(-0.1159668, 0.09387207, 0.913635254, 0.3781128)
(-0.1159668, 0.09387207, 0.913635254, 0.3781128)
(-0.115844727, 0.0941772461, 0.9135132, 0.3782959)
(-0.115844727, 0.0941772461, 0.9135132, 0.3782959)
(-0.115783691, 0.09429932, 0.9133911, 0.378601074)
(-0.115783691, 0.09429932, 0.9133911, 0.378601074)
(-0.115661621, 0.09448242, 0.913269043, 0.3788452)
(-0.115600586, 0.09429932, 0.913208, 0.37902832)
(-0.115600586, 0.09429932, 0.913208, 0.37902832)
(-0.115356445, 0.09411621, 0.913269043, 0.3791504)
(-0.115356445, 0.09411621, 0.913269043, 0.3791504)
(-0.11517334, 0.0939331055, 0.913269043, 0.3791504)
(-0.11517334, 0.0939331055, 0.913269043, 0.3791504)
(-0.114868164, 0.0940551758, 0.9133301, 0.3791504)
(-0.114868164, 0.0940551758, 0.9133301, 0.3791504)
(-0.114685059, 0.09399414, 0.913269043, 0.3793335)
(-0.114624023, 0.09387207, 0.913208, 0.379455566)
(-0.114624023, 0.09387207, 0.913208, 0.379455566)
(-0.114562988, 0.0935668945, 0.913269043, 0.379455566)
(-0.114562988, 0.0935668945, 0.913269043, 0.379455566)
(-0.114501953, 0.09320068, 0.9133301, 0.379455566)
(-0.114501953, 0.09320068, 0.9133301, 0.379455566)
(-0.114440918, 0.09301758, 0.913269043, 0.3796997)
(-0.114379883, 0.0933227539, 0.913147, 0.3798828)
(-0.114379883, 0.0933227539, 0.913147, 0.3798828)
(-0.114379883, 0.0933227539, 0.913147, 0.3798828)
(-0.114379883, 0.0933227539, 0.913147, 0.3798828)
(-0.114379883, 0.0934448242, 0.913269043, 0.3795166)
(-0.114379883, 0.0934448242, 0.913269043, 0.3795166)
(-0.114562988, 0.0933227539, 0.9133911, 0.379211426)
(-0.114562988, 0.0933227539, 0.9133911, 0.379211426)
(-0.114624023, 0.09320068, 0.9135132, 0.3789673)
(-0.114501953, 0.09326172, 0.9135742, 0.3788452)
(-0.114501953, 0.09326172, 0.9135742, 0.3788452)
(-0.114379883, 0.09350586, 0.913635254, 0.378601074)
(-0.114379883, 0.09350586, 0.913635254, 0.378601074)
(-0.114501953, 0.0934448242, 0.9136963, 0.378540039)
(-0.114501953, 0.0934448242, 0.9136963, 0.378540039)
(-0.114501953, 0.0934448242, 0.9136963, 0.378540039)
(-0.114440918, 0.0938110352, 0.9135742, 0.3786621)
(-0.114440918, 0.0938110352, 0.9135742, 0.3786621)
(-0.114440918, 0.0938110352, 0.9135742, 0.3786621)
(-0.114440918, 0.0938110352, 0.9135742, 0.3786621)
(-0.114440918, 0.0938110352, 0.9135742, 0.3786621)
(-0.114440918, 0.0938110352, 0.9135742, 0.3786621)
(-0.114440918, 0.09387207, 0.9135742, 0.3786621)
(-0.114440918, 0.09387207, 0.9135742, 0.3786621)
(-0.114440918, 0.09387207, 0.9135742, 0.3786621)
(-0.114440918, 0.09387207, 0.9135742, 0.3786621)
(-0.114440918, 0.09387207, 0.9135132, 0.3788452)
(-0.114257813, 0.0940551758, 0.9135132, 0.3788452)
(-0.114257813, 0.0940551758, 0.9135132, 0.3788452)
(-0.114257813, 0.09411621, 0.9135132, 0.3788452)
(-0.114257813, 0.09411621, 0.9135132, 0.3788452)
(-0.114074707, 0.0940551758, 0.913452148, 0.379089355)
(-0.114074707, 0.0940551758, 0.913452148, 0.379089355)
(-0.113769531, 0.0940551758, 0.9133301, 0.3793335)
(-0.113769531, 0.0940551758, 0.9133301, 0.3793335)
(-0.113464355, 0.0939331055, 0.9133911, 0.379455566)
(-0.113525391, 0.0939331055, 0.9133911, 0.379455566)
(-0.113525391, 0.0939331055, 0.9133911, 0.379455566)
(-0.11340332, 0.09423828, 0.9133301, 0.379455566)
(-0.11340332, 0.09423828, 0.9133301, 0.379455566)
(-0.113464355, 0.09429932, 0.9133301, 0.379455566)
(-0.113464355, 0.09429932, 0.9133301, 0.379455566)
(-0.11340332, 0.09429932, 0.9133301, 0.379455566)
(-0.113464355, 0.09429932, 0.9133301, 0.379455566)
(-0.113464355, 0.09429932, 0.9133301, 0.379455566)
(-0.11340332, 0.09436035, 0.9133301, 0.379455566)
(-0.11340332, 0.09436035, 0.9133301, 0.379455566)
(-0.113220215, 0.09448242, 0.913208, 0.3796997)
(-0.113220215, 0.09448242, 0.913208, 0.3796997)
(-0.113098145, 0.09454346, 0.913147, 0.380004883)
(-0.113098145, 0.09454346, 0.913147, 0.380004883)
(-0.112976074, 0.09429932, 0.913085938, 0.380126953)
(-0.112731934, 0.09436035, 0.913085938, 0.380310059)
(-0.112731934, 0.09436035, 0.913085938, 0.380310059)
(-0.112365723, 0.09448242, 0.912963867, 0.38067627)
(-0.112365723, 0.09448242, 0.912963867, 0.38067627)
(-0.112121582, 0.09454346, 0.9127197, 0.3812256)
(-0.112121582, 0.09454346, 0.9127197, 0.3812256)
(-0.111877441, 0.09448242, 0.9126587, 0.381469727)
(-0.1116333, 0.09460449, 0.9127197, 0.3814087)
(-0.1116333, 0.09460449, 0.9127197, 0.3814087)
(-0.1116333, 0.09460449, 0.9127197, 0.3814087)
(-0.1116333, 0.09460449, 0.9127197, 0.3814087)
(-0.111450195, 0.09454346, 0.912780762, 0.381286621)
(-0.111450195, 0.09454346, 0.912780762, 0.381286621)
(-0.111450195, 0.09454346, 0.9128418, 0.3812256)
(-0.111450195, 0.09454346, 0.9128418, 0.3812256)
(-0.111450195, 0.09466553, 0.912902832, 0.38104248)
(-0.111450195, 0.09466553, 0.912902832, 0.38104248)
(-0.111450195, 0.0949707, 0.912902832, 0.380981445)
(-0.111755371, 0.09503174, 0.912902832, 0.38079834)
(-0.111755371, 0.09503174, 0.912902832, 0.38079834)
(-0.111755371, 0.09503174, 0.912902832, 0.38079834)
(-0.111816406, 0.09503174, 0.912902832, 0.38079834)
(-0.111877441, 0.09503174, 0.912902832, 0.38079834)
(-0.111877441, 0.09503174, 0.912902832, 0.38079834)
(-0.111999512, 0.09527588, 0.912780762, 0.380981445)
(-0.111999512, 0.09527588, 0.912780762, 0.380981445)
(-0.111999512, 0.09527588, 0.912780762, 0.380981445)
(-0.111755371, 0.09509277, 0.912902832, 0.38079834)
(-0.111755371, 0.09509277, 0.912902832, 0.38079834)
(-0.111206055, 0.09527588, 0.913085938, 0.380432129)
(-0.111206055, 0.09527588, 0.913085938, 0.380432129)
(-0.110656738, 0.0949707, 0.9133911, 0.379943848)
(-0.110656738, 0.0949707, 0.9133911, 0.379943848)
(-0.109924316, 0.09472656, 0.913818359, 0.3791504)
(-0.109313965, 0.09454346, 0.9142456, 0.378356934)
(-0.109313965, 0.09454346, 0.9142456, 0.378356934)
(-0.108886719, 0.0941772461, 0.9146118, 0.377807617)
(-0.108886719, 0.0941772461, 0.9146118, 0.377807617)
(-0.108703613, 0.09375, 0.914855957, 0.377319336)
(-0.108703613, 0.09375, 0.914855957, 0.377319336)
(-0.108703613, 0.09375, 0.914978, 0.376953125)
(-0.108703613, 0.09375, 0.914978, 0.376953125)
(-0.108886719, 0.0936889648, 0.915161133, 0.376525879)
(-0.108886719, 0.0936889648, 0.915161133, 0.376525879)
(-0.109008789, 0.0939331055, 0.915344238, 0.375976563)
(-0.109375, 0.0938110352, 0.9155884, 0.375305176)
(-0.109375, 0.0938110352, 0.9155884, 0.375305176)
(-0.109619141, 0.09362793, 0.915893555, 0.3746338)
(-0.109619141, 0.09362793, 0.915893555, 0.3746338)
(-0.109619141, 0.0935668945, 0.91619873, 0.373901367)
(-0.109375, 0.0938110352, 0.9164429, 0.373168945)
(-0.109375, 0.0938110352, 0.9164429, 0.373168945)
(-0.109375, 0.0938110352, 0.916748047, 0.372497559)
(-0.109375, 0.0938110352, 0.916748047, 0.372497559)
(-0.109436035, 0.0938110352, 0.9169922, 0.3718872)
(-0.109436035, 0.0938110352, 0.9169922, 0.3718872)
(-0.10949707, 0.09411621, 0.9171753, 0.371276855)
(-0.10949707, 0.09411621, 0.9171753, 0.371276855)
(-0.109558105, 0.09448242, 0.9173584, 0.3706665)
(-0.109558105, 0.09448242, 0.9173584, 0.3706665)
(-0.109619141, 0.09466553, 0.917602539, 0.370056152)
(-0.109619141, 0.09466553, 0.917602539, 0.370056152)
(-0.109558105, 0.09503174, 0.917785645, 0.3696289)
(-0.109436035, 0.0953369141, 0.9178467, 0.36932373)
(-0.109436035, 0.0953369141, 0.9178467, 0.36932373)
(-0.109375, 0.095703125, 0.91796875, 0.369018555)
(-0.109375, 0.095703125, 0.91796875, 0.369018555)
(-0.10949707, 0.09613037, 0.9180298, 0.3685913)
(-0.10949707, 0.09613037, 0.9180298, 0.3685913)
(-0.109741211, 0.09643555, 0.918151855, 0.368286133)
(-0.109741211, 0.09643555, 0.918151855, 0.368286133)
(-0.109985352, 0.0970459, 0.918151855, 0.368042)
(-0.110107422, 0.0975952148, 0.918151855, 0.3678589)
(-0.110107422, 0.0975952148, 0.918151855, 0.3678589)
(-0.110107422, 0.0975952148, 0.918151855, 0.3678589)
(-0.110229492, 0.0980834961, 0.9180298, 0.3678589)
(-0.110351563, 0.09832764, 0.9180298, 0.3678589)
(-0.110351563, 0.09832764, 0.9180298, 0.3678589)
(-0.110107422, 0.09863281, 0.91796875, 0.367919922)
(-0.110046387, 0.09863281, 0.91796875, 0.367919922)
(-0.110046387, 0.09863281, 0.91796875, 0.367919922)
(-0.110046387, 0.09820557, 0.9180908, 0.367797852)
(-0.110046387, 0.09820557, 0.9180908, 0.367797852)
(-0.109924316, 0.09741211, 0.9182129, 0.367675781)
(-0.109924316, 0.09741211, 0.9182129, 0.367675781)
(-0.10925293, 0.09753418, 0.918151855, 0.367980957)
(-0.10925293, 0.09753418, 0.918151855, 0.367980957)
(-0.108215332, 0.0980834961, 0.9180298, 0.368469238)
(-0.10723877, 0.09802246, 0.91796875, 0.36895752)
(-0.10723877, 0.09802246, 0.91796875, 0.36895752)
(-0.106567383, 0.0972290039, 0.9179077, 0.369567871)
(-0.106567383, 0.0972290039, 0.9179077, 0.369567871)
(-0.105895996, 0.09686279, 0.9176636, 0.370361328)
(-0.105895996, 0.09686279, 0.9176636, 0.370361328)
(-0.10546875, 0.0970459, 0.9173584, 0.371276855)
(-0.105102539, 0.0973510742, 0.9170532, 0.3720703)
(-0.105102539, 0.0973510742, 0.9170532, 0.3720703)
(-0.105102539, 0.0974731445, 0.916687, 0.3729248)
(-0.105102539, 0.0974731445, 0.916687, 0.3729248)
(-0.105407715, 0.0973510742, 0.9163208, 0.373840332)
(-0.105407715, 0.0973510742, 0.9163208, 0.373840332)
(-0.105712891, 0.0977172852, 0.9157715, 0.374938965)
(-0.105712891, 0.0977172852, 0.9157715, 0.374938965)
(-0.105957031, 0.09814453, 0.915161133, 0.376159668)
(-0.106201172, 0.0982666, 0.9145508, 0.377563477)
(-0.106201172, 0.0982666, 0.9145508, 0.377563477)
(-0.106445313, 0.09851074, 0.914001465, 0.3788452)
(-0.106445313, 0.09851074, 0.914001465, 0.3788452)
(-0.106628418, 0.09863281, 0.9133911, 0.380188)
(-0.106628418, 0.09863281, 0.9133911, 0.380188)
(-0.106750488, 0.09863281, 0.912780762, 0.381530762)
(-0.106811523, 0.09863281, 0.912231445, 0.382873535)
(-0.106811523, 0.09863281, 0.912231445, 0.382873535)
(-0.106750488, 0.09838867, 0.911743164, 0.384155273)
(-0.106750488, 0.09838867, 0.911743164, 0.384155273)
(-0.106506348, 0.0980834961, 0.9113159, 0.385375977)
(-0.106506348, 0.0980834961, 0.9113159, 0.385375977)
(-0.105957031, 0.0980834961, 0.9108887, 0.386535645)
(-0.105957031, 0.0980834961, 0.9108887, 0.386535645)
(-0.10534668, 0.0980834961, 0.9104004, 0.387756348)
(-0.10534668, 0.0980834961, 0.9104004, 0.387756348)
(-0.104675293, 0.0982666, 0.909973145, 0.388977051)
(-0.104187012, 0.0978393555, 0.9095459, 0.390075684)
(-0.104187012, 0.0978393555, 0.9095459, 0.390075684)
(-0.10369873, 0.09741211, 0.9091797, 0.391235352)
(-0.10369873, 0.09741211, 0.9091797, 0.391235352)
(-0.103210449, 0.09698486, 0.9086914, 0.39263916)
(-0.103210449, 0.09698486, 0.9086914, 0.39263916)
(-0.103027344, 0.09655762, 0.908081055, 0.394226074)
(-0.103027344, 0.09655762, 0.908081055, 0.394226074)
(-0.103271484, 0.09637451, 0.9072876, 0.396057129)
(-0.10369873, 0.09613037, 0.9064331, 0.397827148)
(-0.10369873, 0.09613037, 0.9064331, 0.397827148)
(-0.104431152, 0.0961914063, 0.905639648, 0.3994751)
(-0.104431152, 0.0961914063, 0.905639648, 0.3994751)
(-0.10534668, 0.09637451, 0.904785156, 0.401184082)
(-0.10534668, 0.09637451, 0.904785156, 0.401184082)
(-0.10534668, 0.09637451, 0.904785156, 0.401184082)
(-0.107421875, 0.0973510742, 0.9031372, 0.4039917)
(-0.107421875, 0.0973510742, 0.9031372, 0.4039917)
(-0.108581543, 0.0974731445, 0.902526855, 0.405090332)
(-0.108581543, 0.0974731445, 0.902526855, 0.405090332)
(-0.109802246, 0.09753418, 0.901977539, 0.405944824)
(-0.109802246, 0.09753418, 0.901977539, 0.405944824)
(-0.110656738, 0.0979614258, 0.901489258, 0.406677246)
(-0.110656738, 0.0979614258, 0.901489258, 0.406677246)
(-0.11151123, 0.09820557, 0.901123047, 0.407165527)
(-0.11151123, 0.09820557, 0.901123047, 0.407165527)
(-0.112060547, 0.09875488, 0.900939941, 0.4072876)
(-0.1126709, 0.09881592, 0.9008789, 0.4072876)
(-0.1126709, 0.09881592, 0.9008789, 0.4072876)
(-0.113220215, 0.09881592, 0.900939941, 0.407043457)
(-0.113220215, 0.09881592, 0.900939941, 0.407043457)
(-0.113586426, 0.09869385, 0.901001, 0.406738281)
(-0.114135742, 0.09875488, 0.901062, 0.406494141)
(-0.114135742, 0.09875488, 0.901062, 0.406494141)
(-0.114440918, 0.09881592, 0.9011841, 0.40612793)
(-0.114440918, 0.09881592, 0.9011841, 0.40612793)
(-0.114746094, 0.09844971, 0.9013672, 0.405761719)
(-0.114746094, 0.09844971, 0.9013672, 0.405761719)
(-0.114746094, 0.09838867, 0.9015503, 0.405334473)
(-0.114746094, 0.09838867, 0.9015503, 0.405334473)
(-0.114501953, 0.09851074, 0.901672363, 0.405090332)
(-0.114501953, 0.09851074, 0.901672363, 0.405090332)
(-0.114257813, 0.09838867, 0.901794434, 0.4048462)
(-0.114196777, 0.09820557, 0.901977539, 0.4046631)
(-0.114196777, 0.09820557, 0.901977539, 0.404602051)
(-0.114196777, 0.09820557, 0.901977539, 0.404602051)
(-0.114196777, 0.09820557, 0.9019165, 0.404602051)
(-0.114257813, 0.0982666, 0.9019165, 0.404602051)
(-0.114257813, 0.0982666, 0.9019165, 0.404602051)
(-0.114257813, 0.0982666, 0.9019165, 0.404602051)
(-0.114562988, 0.09814453, 0.901855469, 0.404724121)
(-0.114685059, 0.09820557, 0.901794434, 0.4048462)
(-0.114685059, 0.09820557, 0.901794434, 0.4048462)
(-0.114562988, 0.09838867, 0.901672363, 0.4050293)
(-0.114562988, 0.09838867, 0.901672363, 0.4050293)
(-0.114685059, 0.09857178, 0.9016113, 0.405151367)
(-0.114685059, 0.09857178, 0.9016113, 0.405151367)
(-0.114868164, 0.09869385, 0.901672363, 0.404907227)
(-0.11505127, 0.09863281, 0.901855469, 0.404541016)
(-0.11505127, 0.09863281, 0.901855469, 0.404541016)
(-0.115234375, 0.09851074, 0.9019165, 0.4043579)
(-0.115234375, 0.09851074, 0.9019165, 0.4043579)
(-0.115234375, 0.09851074, 0.9019165, 0.4043579)
(-0.115234375, 0.09851074, 0.9019165, 0.4043579)
(-0.11517334, 0.09851074, 0.9019165, 0.4043579)
(-0.11517334, 0.09851074, 0.9019165, 0.4043579)
(-0.11517334, 0.09844971, 0.9020996, 0.4039917)
(-0.11517334, 0.09844971, 0.9020996, 0.4039917)
(-0.114990234, 0.0982666, 0.90234375, 0.403564453)
(-0.114990234, 0.0982666, 0.90234375, 0.403564453)
(-0.1149292, 0.0980834961, 0.902526855, 0.403198242)
(-0.1149292, 0.0980834961, 0.9025879, 0.403015137)
(-0.1149292, 0.0980834961, 0.9025879, 0.403015137)
(-0.1149292, 0.09814453, 0.9025879, 0.403015137)
(-0.1149292, 0.09814453, 0.9025879, 0.403015137)
(-0.1149292, 0.09814453, 0.9025879, 0.403015137)
(-0.114807129, 0.09820557, 0.902709961, 0.402771)
(-0.114807129, 0.09820557, 0.902709961, 0.402771)
(-0.114868164, 0.09814453, 0.902771, 0.4025879)
(-0.114868164, 0.09814453, 0.902771, 0.4025879)
(-0.114868164, 0.09814453, 0.902771, 0.4025879)
(-0.114868164, 0.09814453, 0.902771, 0.4025879)
(-0.114868164, 0.09820557, 0.902771, 0.4025879)
(-0.114868164, 0.09820557, 0.902771, 0.4025879)
(-0.114868164, 0.09820557, 0.902771, 0.4025879)
(-0.114868164, 0.09820557, 0.902771, 0.4025879)
(-0.114868164, 0.09820557, 0.902771, 0.4025879)
(-0.114868164, 0.09820557, 0.902771, 0.4025879)
(-0.114868164, 0.09820557, 0.902771, 0.4025879)
(-0.114868164, 0.09820557, 0.902771, 0.4025879)
(-0.114868164, 0.09820557, 0.902771, 0.4025879)
(-0.114868164, 0.09820557, 0.902771, 0.4025879)
(-0.114868164, 0.09820557, 0.902771, 0.4025879)
(-0.1149292, 0.09777832, 0.902832031, 0.402526855)
(-0.1149292, 0.09777832, 0.902832031, 0.402526855)
(-0.1149292, 0.09777832, 0.902832031, 0.402526855)
(-0.1149292, 0.09777832, 0.902832031, 0.402526855)
(-0.114868164, 0.09777832, 0.902832031, 0.402526855)
(-0.114868164, 0.09777832, 0.902832031, 0.402526855)
(-0.114868164, 0.09777832, 0.902832031, 0.402526855)
(-0.114868164, 0.09777832, 0.902832031, 0.402526855)
(-0.114868164, 0.09777832, 0.902832031, 0.402526855)
(-0.114807129, 0.0978393555, 0.902771, 0.402709961)
(-0.114807129, 0.0979614258, 0.9026489, 0.4029541)
(-0.114807129, 0.0979614258, 0.9026489, 0.4029541)
(-0.114624023, 0.09838867, 0.902526855, 0.403259277)
(-0.114624023, 0.09838867, 0.902526855, 0.403259277)
(-0.114685059, 0.09832764, 0.90234375, 0.403503418)
(-0.114685059, 0.09832764, 0.90234375, 0.403503418)
(-0.114746094, 0.09838867, 0.9022827, 0.403686523)
(-0.114746094, 0.09838867, 0.9022827, 0.403686523)
