(0.374267578, 0.153015137, 0.316040039, 0.858215332)
(0.374755859, 0.153015137, 0.31628418, 0.857910156)
(0.374755859, 0.153015137, 0.31628418, 0.857910156)
(0.375061035, 0.1529541, 0.31652832, 0.857727051)
(0.375061035, 0.1529541, 0.31652832, 0.857727051)
(0.374938965, 0.153015137, 0.316894531, 0.857605)
(0.374755859, 0.153198242, 0.317260742, 0.8574829)
(0.374755859, 0.153198242, 0.317260742, 0.8574829)
(0.3748169, 0.153564453, 0.317504883, 0.85736084)
(0.3748169, 0.153564453, 0.317504883, 0.85736084)
(0.375305176, 0.153869629, 0.317565918, 0.857055664)
(0.375305176, 0.153869629, 0.317565918, 0.857055664)
(0.376281738, 0.154052734, 0.317565918, 0.8565674)
(0.3768921, 0.1541748, 0.317688, 0.8562622)
(0.3768921, 0.1541748, 0.317688, 0.8562622)
(0.376831055, 0.15423584, 0.317932129, 0.8562012)
(0.376831055, 0.15423584, 0.317932129, 0.8562012)
(0.376342773, 0.1541748, 0.31829834, 0.8562622)
(0.376342773, 0.1541748, 0.31829834, 0.8562622)
(0.375305176, 0.154052734, 0.3189087, 0.856506348)
(0.375305176, 0.154052734, 0.3189087, 0.856506348)
(0.374084473, 0.153869629, 0.319519043, 0.856872559)
(0.37298584, 0.153564453, 0.3206787, 0.8569336)
(0.37298584, 0.153564453, 0.3206787, 0.8569336)
(0.3708496, 0.153381348, 0.322265625, 0.8572998)
(0.3708496, 0.153381348, 0.322265625, 0.8572998)
(0.3675537, 0.152587891, 0.324584961, 0.8580322)
(0.3675537, 0.152587891, 0.324584961, 0.8580322)
(0.362243652, 0.151855469, 0.3274536, 0.859313965)
(0.362243652, 0.151855469, 0.3274536, 0.859313965)
(0.35546875, 0.151794434, 0.329101563, 0.86151123)
(0.35546875, 0.151794434, 0.329101563, 0.86151123)
(0.3482666, 0.150756836, 0.3307495, 0.863952637)
(0.340515137, 0.150634766, 0.3328247, 0.866333)
(0.340515137, 0.150634766, 0.3328247, 0.866333)
(0.336364746, 0.150268555, 0.334106445, 0.8674927)
(0.336364746, 0.150268555, 0.334106445, 0.8674927)
(0.335693359, 0.1517334, 0.3320923, 0.868286133)
(0.337402344, 0.152160645, 0.331481934, 0.8677368)
(0.337402344, 0.152160645, 0.331481934, 0.8677368)
(0.3400879, 0.153564453, 0.331359863, 0.8665161)
(0.3400879, 0.153564453, 0.331359863, 0.8665161)
(0.3423462, 0.155151367, 0.331665039, 0.8652344)
(0.3423462, 0.155151367, 0.331665039, 0.8652344)
(0.342041016, 0.1560669, 0.332214355, 0.864990234)
(0.342041016, 0.1560669, 0.332214355, 0.864990234)
(0.3395996, 0.156494141, 0.333435059, 0.8654175)
(0.3395996, 0.156494141, 0.333435059, 0.8654175)
(0.337097168, 0.157043457, 0.334472656, 0.8658447)
(0.3355713, 0.15814209, 0.334960938, 0.866088867)
(0.3355713, 0.15814209, 0.334960938, 0.866088867)
(0.335632324, 0.159667969, 0.3348999, 0.8657837)
(0.335632324, 0.159667969, 0.3348999, 0.8657837)
(0.335998535, 0.160888672, 0.334655762, 0.865539551)
(0.335998535, 0.160888672, 0.334655762, 0.865539551)
(0.335632324, 0.1616211, 0.334777832, 0.8654785)
(0.334411621, 0.16192627, 0.335083, 0.8657837)
(0.334411621, 0.16192627, 0.335083, 0.8657837)
(0.333374023, 0.162353516, 0.335449219, 0.8659668)
(0.333374023, 0.162353516, 0.335449219, 0.8659668)
(0.332580566, 0.1630249, 0.335449219, 0.8661499)
(0.332580566, 0.1630249, 0.335449219, 0.8661499)
(0.33215332, 0.163452148, 0.335449219, 0.866210938)
(0.33215332, 0.163452148, 0.335449219, 0.866210938)
(0.3319702, 0.1638794, 0.335388184, 0.866210938)
(0.331665039, 0.16418457, 0.335449219, 0.866272)
(0.331665039, 0.16418457, 0.335449219, 0.866272)
(0.331359863, 0.164123535, 0.3355713, 0.866333)
(0.331359863, 0.164123535, 0.3355713, 0.866333)
(0.331298828, 0.164306641, 0.335449219, 0.866394043)
(0.331298828, 0.164306641, 0.335449219, 0.866394043)
(0.331481934, 0.164611816, 0.335144043, 0.866394043)
(0.331481934, 0.164611816, 0.335144043, 0.866394043)
(0.331481934, 0.164611816, 0.335144043, 0.866394043)
(0.331481934, 0.164611816, 0.335144043, 0.866394043)
(0.331298828, 0.164489746, 0.335510254, 0.866333)
(0.330871582, 0.164611816, 0.335876465, 0.866333)
(0.330871582, 0.164611816, 0.335876465, 0.866333)
(0.330444336, 0.164916992, 0.335998535, 0.866333)
(0.330444336, 0.164916992, 0.335998535, 0.866333)
(0.329956055, 0.165161133, 0.335693359, 0.8666382)
(0.329223633, 0.164916992, 0.335693359, 0.866943359)
(0.329223633, 0.164916992, 0.335693359, 0.866943359)
(0.328369141, 0.164794922, 0.33605957, 0.8671875)
(0.328369141, 0.164794922, 0.33605957, 0.8671875)
(0.327819824, 0.165222168, 0.336181641, 0.867248535)
(0.327819824, 0.165222168, 0.336181641, 0.867248535)
(0.327880859, 0.16595459, 0.33605957, 0.867126465)
(0.327880859, 0.16595459, 0.33605957, 0.867126465)
(0.328063965, 0.166625977, 0.3359375, 0.8670044)
(0.328063965, 0.166625977, 0.3359375, 0.8670044)
(0.32800293, 0.167053223, 0.33581543, 0.866943359)
(0.327392578, 0.167053223, 0.3361206, 0.8670654)
(0.327392578, 0.167053223, 0.3361206, 0.8670654)
(0.3267212, 0.1671753, 0.336486816, 0.8671875)
(0.3267212, 0.1671753, 0.336486816, 0.8671875)
(0.3267212, 0.167236328, 0.336425781, 0.8671875)
(0.3267212, 0.167236328, 0.336425781, 0.8671875)
(0.326660156, 0.1673584, 0.3363037, 0.867248535)
(0.326477051, 0.167297363, 0.336181641, 0.8673096)
(0.326477051, 0.167297363, 0.336181641, 0.8673096)
(0.32611084, 0.166992188, 0.336486816, 0.867431641)
(0.32611084, 0.166992188, 0.336486816, 0.867431641)
(0.325744629, 0.166748047, 0.336669922, 0.8674927)
(0.325744629, 0.166748047, 0.336669922, 0.8674927)
(0.3258667, 0.166564941, 0.336853027, 0.8674927)
(0.3258667, 0.166564941, 0.336853027, 0.8674927)
(0.3260498, 0.166381836, 0.336914063, 0.8673706)
(0.326293945, 0.1661377, 0.336853027, 0.8673706)
(0.326293945, 0.1661377, 0.336853027, 0.8673706)
(0.326171875, 0.165649414, 0.336914063, 0.8674927)
(0.326171875, 0.165649414, 0.336914063, 0.8674927)
(0.3260498, 0.165222168, 0.3371582, 0.8675537)
(0.3260498, 0.165222168, 0.3371582, 0.8675537)
(0.3258667, 0.165161133, 0.337402344, 0.8674927)
(0.3258667, 0.165222168, 0.337402344, 0.8674927)
(0.3258667, 0.165222168, 0.337402344, 0.8674927)
(0.3260498, 0.1651001, 0.337280273, 0.8674927)
(0.3260498, 0.1651001, 0.337280273, 0.8674927)
(0.32635498, 0.164855957, 0.337219238, 0.8674927)
(0.32635498, 0.164855957, 0.337219238, 0.8674927)
(0.32635498, 0.164428711, 0.337036133, 0.867614746)
(0.32635498, 0.164428711, 0.337036133, 0.867614746)
(0.326171875, 0.163818359, 0.3371582, 0.8677368)
(0.326171875, 0.163818359, 0.3371582, 0.8677368)
(0.326171875, 0.163146973, 0.3373413, 0.867797852)
(0.326477051, 0.162658691, 0.3375244, 0.8677368)
(0.326477051, 0.162658691, 0.3375244, 0.8677368)
(0.326477051, 0.162658691, 0.3375244, 0.8677368)
(0.326965332, 0.162475586, 0.3373413, 0.867614746)
(0.326965332, 0.162475586, 0.3373413, 0.867614746)
(0.327636719, 0.162475586, 0.337036133, 0.8674927)
(0.3279419, 0.162597656, 0.336853027, 0.867431641)
(0.3279419, 0.162597656, 0.336853027, 0.867431641)
(0.3277588, 0.162475586, 0.3369751, 0.8674927)
(0.3277588, 0.162475586, 0.3369751, 0.8674927)
(0.3274536, 0.16229248, 0.337036133, 0.867614746)
(0.3274536, 0.162353516, 0.337036133, 0.867614746)
(0.3274536, 0.162353516, 0.337036133, 0.867614746)
(0.3277588, 0.162353516, 0.336730957, 0.867614746)
(0.3277588, 0.162353516, 0.336730957, 0.867614746)
(0.327819824, 0.162353516, 0.336730957, 0.867614746)
(0.327819824, 0.162353516, 0.336730957, 0.867614746)
(0.327697754, 0.16217041, 0.336853027, 0.867614746)
(0.327697754, 0.16217041, 0.336853027, 0.867614746)
(0.3272705, 0.162109375, 0.336914063, 0.8677368)
(0.3272705, 0.162109375, 0.336914063, 0.8677368)
(0.3272705, 0.16204834, 0.336792, 0.867797852)
(0.3274536, 0.16192627, 0.3366089, 0.8678589)
(0.3274536, 0.16192627, 0.3366089, 0.8678589)
(0.327636719, 0.161682129, 0.3366089, 0.8678589)
(0.327636719, 0.161682129, 0.3366089, 0.8678589)
(0.327636719, 0.161315918, 0.336792, 0.867797852)
(0.327636719, 0.161315918, 0.336792, 0.867797852)
(0.327636719, 0.161010742, 0.336914063, 0.867797852)
(0.327880859, 0.160644531, 0.336914063, 0.867797852)
(0.327880859, 0.160644531, 0.336914063, 0.867797852)
(0.32800293, 0.16003418, 0.336914063, 0.8678589)
(0.32800293, 0.16003418, 0.336914063, 0.8678589)
(0.32800293, 0.1595459, 0.3371582, 0.8678589)
(0.32800293, 0.1595459, 0.3371582, 0.8678589)
(0.328186035, 0.159301758, 0.337463379, 0.8677368)
(0.328186035, 0.159301758, 0.337463379, 0.8677368)
(0.328186035, 0.1593628, 0.337463379, 0.8676758)
(0.328186035, 0.159423828, 0.337280273, 0.867797852)
(0.328186035, 0.159423828, 0.337280273, 0.867797852)
(0.327819824, 0.1593628, 0.337280273, 0.8679199)
(0.327819824, 0.1593628, 0.337280273, 0.8679199)
(0.327514648, 0.159240723, 0.337402344, 0.867980957)
(0.327392578, 0.159301758, 0.337768555, 0.8679199)
(0.327392578, 0.159301758, 0.337768555, 0.8679199)
(0.327575684, 0.159606934, 0.3378296, 0.8677368)
(0.327575684, 0.159606934, 0.3378296, 0.8677368)
(0.327636719, 0.159667969, 0.3378296, 0.8677368)
(0.327636719, 0.159667969, 0.3378296, 0.8677368)
(0.327636719, 0.159667969, 0.3378296, 0.8677368)
(0.327636719, 0.159667969, 0.3378296, 0.8677368)
(0.327636719, 0.159606934, 0.3378296, 0.8677368)
(0.327636719, 0.159606934, 0.3378296, 0.8677368)
(0.327636719, 0.159851074, 0.33795166, 0.867614746)
(0.327636719, 0.16027832, 0.337890625, 0.8675537)
(0.327636719, 0.16027832, 0.337890625, 0.8675537)
(0.327331543, 0.160705566, 0.337890625, 0.867614746)
(0.327331543, 0.160705566, 0.337890625, 0.867614746)
(0.327026367, 0.161071777, 0.33795166, 0.867614746)
(0.327026367, 0.161071777, 0.33795166, 0.867614746)
(0.326965332, 0.161499023, 0.337890625, 0.867614746)
(0.326782227, 0.161743164, 0.33770752, 0.8676758)
(0.326782227, 0.161743164, 0.33770752, 0.8676758)
(0.3267212, 0.1616211, 0.337585449, 0.867797852)
(0.3267212, 0.1616211, 0.337585449, 0.867797852)
(0.3265381, 0.161499023, 0.337585449, 0.8679199)
(0.3265381, 0.161499023, 0.337585449, 0.8679199)
(0.3265381, 0.161437988, 0.337585449, 0.8679199)
(0.3265381, 0.161437988, 0.337585449, 0.8679199)
(0.326599121, 0.161315918, 0.337768555, 0.8678589)
(0.3267212, 0.161193848, 0.3378296, 0.867797852)
(0.3267212, 0.161193848, 0.3378296, 0.867797852)
(0.326782227, 0.161010742, 0.3378296, 0.867797852)
(0.326782227, 0.161010742, 0.3378296, 0.867797852)
(0.326782227, 0.161010742, 0.3378296, 0.867797852)
(0.326782227, 0.161010742, 0.3378296, 0.867797852)
(0.326599121, 0.160827637, 0.3380127, 0.8678589)
(0.326293945, 0.160705566, 0.3381958, 0.8678589)
(0.326293945, 0.160705566, 0.3381958, 0.8678589)
(0.3258667, 0.160644531, 0.338317871, 0.867980957)
(0.3258667, 0.160644531, 0.338317871, 0.867980957)
(0.3258667, 0.160705566, 0.338317871, 0.867980957)
(0.3258667, 0.160705566, 0.338317871, 0.867980957)
(0.3258667, 0.160705566, 0.338317871, 0.867980957)
(0.3258667, 0.160705566, 0.338317871, 0.867980957)
(0.325927734, 0.1607666, 0.338317871, 0.867980957)
(0.325744629, 0.160705566, 0.338317871, 0.868042)
(0.325744629, 0.160705566, 0.338317871, 0.868042)
(0.325378418, 0.160644531, 0.338439941, 0.868164063)
(0.325378418, 0.160644531, 0.338439941, 0.868164063)
(0.325073242, 0.1605835, 0.338439941, 0.868286133)
(0.325073242, 0.160644531, 0.338439941, 0.868286133)
(0.325073242, 0.160644531, 0.338439941, 0.868286133)
(0.325073242, 0.160644531, 0.338439941, 0.868286133)
(0.325134277, 0.160461426, 0.338623047, 0.8682251)
(0.325134277, 0.160461426, 0.338623047, 0.8682251)
(0.324951172, 0.160339355, 0.338989258, 0.868164063)
(0.324584961, 0.160339355, 0.339294434, 0.868164063)
(0.324584961, 0.160339355, 0.339294434, 0.868164063)
(0.3244629, 0.160400391, 0.339477539, 0.868103)
(0.3244629, 0.160400391, 0.339477539, 0.868103)
(0.324523926, 0.160461426, 0.339477539, 0.868103)
(0.324523926, 0.160461426, 0.339477539, 0.868103)
(0.324523926, 0.160461426, 0.339477539, 0.868103)
(0.324584961, 0.160461426, 0.339477539, 0.868103)
(0.324584961, 0.160461426, 0.339477539, 0.868103)
(0.324584961, 0.160461426, 0.339477539, 0.868103)
(0.324584961, 0.160522461, 0.339477539, 0.868042)
(0.3244629, 0.160461426, 0.339538574, 0.868103)
(0.3244629, 0.160461426, 0.339538574, 0.868103)
(0.324401855, 0.160339355, 0.3395996, 0.868103)
(0.324401855, 0.160339355, 0.3395996, 0.868103)
(0.324523926, 0.160217285, 0.339538574, 0.868103)
(0.3248291, 0.16003418, 0.339538574, 0.868042)
(0.3248291, 0.16003418, 0.339538574, 0.868042)
(0.325134277, 0.159973145, 0.339660645, 0.8678589)
(0.325134277, 0.159973145, 0.339660645, 0.8678589)
(0.325256348, 0.159973145, 0.33984375, 0.867797852)
(0.325256348, 0.159973145, 0.33984375, 0.867797852)
(0.325256348, 0.16003418, 0.33984375, 0.8677368)
(0.325256348, 0.16003418, 0.33984375, 0.8677368)
(0.3251953, 0.159851074, 0.340026855, 0.8677368)
(0.3251953, 0.159851074, 0.340026855, 0.8677368)
(0.3251953, 0.159851074, 0.340026855, 0.8677368)
(0.324890137, 0.159851074, 0.340393066, 0.8677368)
(0.324890137, 0.159851074, 0.340393066, 0.8677368)
(0.324584961, 0.160095215, 0.3406372, 0.8676758)
(0.324584961, 0.160095215, 0.3406372, 0.8676758)
(0.32434082, 0.160705566, 0.3408203, 0.867614746)
(0.3241577, 0.161193848, 0.340881348, 0.8675537)
(0.3241577, 0.161193848, 0.340881348, 0.8675537)
(0.324035645, 0.1616211, 0.340881348, 0.8674927)
(0.324035645, 0.1616211, 0.340881348, 0.8674927)
(0.3239746, 0.161865234, 0.340759277, 0.8675537)
(0.3239746, 0.161865234, 0.340759277, 0.8675537)
(0.323913574, 0.16217041, 0.340698242, 0.8675537)
(0.323913574, 0.16217041, 0.340698242, 0.8675537)
(0.323852539, 0.162475586, 0.3406372, 0.8674927)
(0.323852539, 0.162780762, 0.3406372, 0.867431641)
(0.323852539, 0.162780762, 0.3406372, 0.867431641)
(0.323730469, 0.1630249, 0.340759277, 0.867431641)
(0.323730469, 0.1630249, 0.340759277, 0.867431641)
(0.323730469, 0.1630249, 0.340759277, 0.867431641)
(0.323730469, 0.1630249, 0.340759277, 0.867431641)
(0.3237915, 0.163085938, 0.340698242, 0.8673706)
(0.3237915, 0.163085938, 0.340698242, 0.8673706)
(0.3237915, 0.163085938, 0.340698242, 0.8673706)
(0.3237915, 0.163085938, 0.340698242, 0.8673706)
(0.323852539, 0.163085938, 0.340698242, 0.8673706)
(0.323852539, 0.163085938, 0.340698242, 0.8673706)
(0.323852539, 0.163085938, 0.340698242, 0.8673706)
(0.323913574, 0.163085938, 0.340698242, 0.8673706)
(0.323913574, 0.163085938, 0.340698242, 0.8673706)
(0.32421875, 0.163146973, 0.340515137, 0.8673096)
(0.32421875, 0.163146973, 0.340515137, 0.8673096)
(0.3242798, 0.163085938, 0.340332031, 0.8673706)
(0.3242798, 0.163085938, 0.340332031, 0.8673706)
(0.323913574, 0.1628418, 0.340271, 0.8675537)
(0.323669434, 0.162597656, 0.340393066, 0.8676758)
(0.323669434, 0.162597656, 0.340393066, 0.8676758)
(0.3237915, 0.162353516, 0.340332031, 0.8676758)
(0.3237915, 0.162353516, 0.340332031, 0.8676758)
(0.32409668, 0.16204834, 0.340332031, 0.867614746)
(0.32409668, 0.16204834, 0.340332031, 0.867614746)
(0.3241577, 0.1618042, 0.340332031, 0.867614746)
(0.323913574, 0.161315918, 0.340576172, 0.8677368)
(0.323913574, 0.161315918, 0.340576172, 0.8677368)
(0.3236084, 0.1609497, 0.340759277, 0.8678589)
(0.3236084, 0.1609497, 0.340759277, 0.8678589)
(0.3234253, 0.160705566, 0.341003418, 0.8678589)
(0.3234253, 0.160705566, 0.341003418, 0.8678589)
(0.323486328, 0.1607666, 0.340942383, 0.8678589)
(0.323486328, 0.1607666, 0.340942383, 0.8678589)
(0.323486328, 0.1607666, 0.340942383, 0.8678589)
(0.3236084, 0.160644531, 0.340942383, 0.867797852)
(0.3236084, 0.160644531, 0.340942383, 0.867797852)
(0.323486328, 0.16027832, 0.3411255, 0.8678589)
(0.323486328, 0.16027832, 0.3411255, 0.8678589)
(0.323303223, 0.159729, 0.341430664, 0.8679199)
(0.323303223, 0.159729, 0.341430664, 0.8679199)
(0.322875977, 0.1595459, 0.34173584, 0.867980957)
(0.3227539, 0.159484863, 0.341918945, 0.867980957)
(0.3227539, 0.159484863, 0.341918945, 0.867980957)
(0.3227539, 0.159484863, 0.341918945, 0.867980957)
(0.3227539, 0.159484863, 0.341918945, 0.867980957)
(0.322814941, 0.1595459, 0.341918945, 0.8679199)
(0.322814941, 0.1595459, 0.341918945, 0.8679199)
(0.322875977, 0.1595459, 0.341918945, 0.8679199)
(0.322875977, 0.1595459, 0.341918945, 0.8679199)
(0.322875977, 0.1595459, 0.341918945, 0.8679199)
(0.322631836, 0.159667969, 0.34197998, 0.8679199)
(0.322631836, 0.159667969, 0.34197998, 0.8679199)
(0.322631836, 0.159667969, 0.342041016, 0.8679199)
(0.322631836, 0.159667969, 0.342041016, 0.8679199)
(0.322814941, 0.159790039, 0.342041016, 0.8678589)
(0.322814941, 0.159790039, 0.342041016, 0.8678589)
(0.323181152, 0.16003418, 0.342041016, 0.8676758)
(0.323181152, 0.16003418, 0.342041016, 0.8676758)
(0.3236084, 0.160217285, 0.342041016, 0.8674927)
(0.3236084, 0.160217285, 0.342041016, 0.8674927)
(0.3236084, 0.160217285, 0.342041016, 0.8674927)
(0.323669434, 0.16015625, 0.342041016, 0.8674927)
(0.323669434, 0.16015625, 0.342041016, 0.8674927)
(0.323669434, 0.16015625, 0.342041016, 0.867431641)
(0.323669434, 0.16015625, 0.342041016, 0.867431641)
(0.3239746, 0.16027832, 0.342041016, 0.8673096)
(0.3239746, 0.16027832, 0.342041016, 0.8673096)
(0.3242798, 0.160522461, 0.342224121, 0.8670654)
(0.3242798, 0.160522461, 0.342224121, 0.8670654)
(0.324584961, 0.161010742, 0.3421631, 0.866943359)
(0.324768066, 0.161315918, 0.341918945, 0.8668823)
(0.324768066, 0.161315918, 0.341918945, 0.8668823)
(0.324584961, 0.161193848, 0.3416748, 0.8670654)
(0.324584961, 0.161193848, 0.3416748, 0.8670654)
(0.32421875, 0.161010742, 0.341918945, 0.867126465)
(0.32421875, 0.161010742, 0.341918945, 0.867126465)
(0.323913574, 0.161010742, 0.342041016, 0.8671875)
(0.323913574, 0.161071777, 0.342041016, 0.8671875)
(0.323913574, 0.161071777, 0.342041016, 0.8671875)
(0.323913574, 0.161132813, 0.342041016, 0.8671875)
(0.323913574, 0.161132813, 0.342041016, 0.8671875)
(0.3239746, 0.161132813, 0.34197998, 0.8671875)
(0.3239746, 0.161132813, 0.34197998, 0.8671875)
(0.3239746, 0.161193848, 0.34197998, 0.8671875)
(0.3239746, 0.161193848, 0.34197998, 0.8671875)
(0.323852539, 0.161071777, 0.3421631, 0.8671875)
(0.323547363, 0.161193848, 0.342407227, 0.8671875)
(0.323547363, 0.161193848, 0.342407227, 0.8671875)
(0.323547363, 0.161254883, 0.342407227, 0.8671875)
(0.323547363, 0.161254883, 0.342407227, 0.8671875)
(0.3237915, 0.161499023, 0.342224121, 0.867126465)
(0.3237915, 0.161499023, 0.342224121, 0.867126465)
(0.32409668, 0.161437988, 0.3421631, 0.8670044)
(0.32409668, 0.161376953, 0.3421631, 0.8670044)
(0.32409668, 0.161376953, 0.3421631, 0.8670044)
(0.324035645, 0.161193848, 0.3423462, 0.8670044)
(0.324035645, 0.161193848, 0.3423462, 0.8670044)
(0.3239746, 0.161071777, 0.342285156, 0.8670654)
(0.3239746, 0.161071777, 0.342285156, 0.8670654)
(0.32409668, 0.1607666, 0.3421631, 0.867126465)
(0.32409668, 0.1607666, 0.3421631, 0.867126465)
(0.3242798, 0.160339355, 0.342224121, 0.867126465)
(0.3242798, 0.160339355, 0.342224121, 0.867126465)
(0.324584961, 0.160217285, 0.3423462, 0.8670044)
(0.324890137, 0.159973145, 0.342285156, 0.866943359)
(0.324890137, 0.159973145, 0.342285156, 0.866943359)
(0.325256348, 0.159851074, 0.342224121, 0.8668823)
(0.325256348, 0.159851074, 0.342224121, 0.8668823)
(0.325744629, 0.159851074, 0.342102051, 0.8666992)
(0.3258667, 0.159667969, 0.34197998, 0.866760254)
(0.3258667, 0.159667969, 0.34197998, 0.866760254)
(0.3258667, 0.159667969, 0.34197998, 0.866760254)
(0.325744629, 0.159301758, 0.342102051, 0.8668213)
(0.325622559, 0.159240723, 0.342285156, 0.8668213)
(0.325622559, 0.159240723, 0.342285156, 0.8668213)
(0.325622559, 0.159240723, 0.342224121, 0.8668213)
(0.325622559, 0.159240723, 0.342224121, 0.8668213)
(0.325805664, 0.1595459, 0.342102051, 0.866760254)
(0.325805664, 0.1595459, 0.342102051, 0.866760254)
(0.325805664, 0.159851074, 0.342041016, 0.8666992)
(0.325805664, 0.160217285, 0.342041016, 0.8666382)
(0.325805664, 0.160217285, 0.342041016, 0.8666382)
(0.3256836, 0.160705566, 0.3418579, 0.8666992)
(0.3256836, 0.160705566, 0.3418579, 0.8666992)
(0.325805664, 0.161010742, 0.34173584, 0.8666382)
(0.325805664, 0.161010742, 0.34173584, 0.8666382)
(0.325744629, 0.161437988, 0.341369629, 0.8666992)
(0.325744629, 0.161437988, 0.341369629, 0.8666992)
(0.325622559, 0.161743164, 0.341247559, 0.866760254)
(0.325622559, 0.161743164, 0.341247559, 0.866760254)
(0.325317383, 0.16192627, 0.3413086, 0.8668213)
(0.3251953, 0.16229248, 0.341247559, 0.8668213)
(0.3251953, 0.16229248, 0.341247559, 0.8668213)
(0.325256348, 0.162597656, 0.341247559, 0.866760254)
(0.325256348, 0.162597656, 0.341247559, 0.866760254)
(0.3255005, 0.162963867, 0.341247559, 0.866577148)
(0.325805664, 0.163391113, 0.341247559, 0.866394043)
(0.325805664, 0.163391113, 0.341247559, 0.866394043)
(0.32611084, 0.163757324, 0.341369629, 0.8661499)
(0.32611084, 0.163757324, 0.341369629, 0.8661499)
(0.32635498, 0.1638794, 0.341430664, 0.8659668)
(0.32635498, 0.1638794, 0.341430664, 0.8659668)
(0.326416016, 0.16394043, 0.341430664, 0.8659668)
(0.326416016, 0.16394043, 0.341430664, 0.8659668)
(0.3262329, 0.16394043, 0.34161377, 0.8659668)
(0.3262329, 0.16394043, 0.34161377, 0.8659668)
(0.3258667, 0.164001465, 0.341918945, 0.8659668)
(0.3256836, 0.1642456, 0.3421631, 0.865905762)
(0.3256836, 0.1642456, 0.3421631, 0.865905762)
(0.3256836, 0.1642456, 0.3421631, 0.865905762)
(0.325744629, 0.164611816, 0.342224121, 0.8657837)
(0.325744629, 0.164611816, 0.342224121, 0.8657837)
(0.325805664, 0.164672852, 0.3421631, 0.8657837)
(0.325622559, 0.164611816, 0.3421631, 0.8658447)
(0.325622559, 0.164611816, 0.3421631, 0.8658447)
(0.325134277, 0.164428711, 0.342468262, 0.8659668)
(0.325134277, 0.164428711, 0.342468262, 0.8659668)
(0.3248291, 0.164306641, 0.342773438, 0.8659668)
(0.324951172, 0.164611816, 0.342834473, 0.8658447)
(0.324951172, 0.164611816, 0.342834473, 0.8658447)
(0.325256348, 0.1651001, 0.342651367, 0.8656616)
(0.325256348, 0.1651001, 0.342651367, 0.8656616)
(0.3255005, 0.165466309, 0.342651367, 0.865539551)
(0.3255005, 0.165466309, 0.342651367, 0.865539551)
(0.325378418, 0.165588379, 0.342773438, 0.865539551)
(0.325378418, 0.165588379, 0.342773438, 0.865539551)
(0.324951172, 0.165649414, 0.3430786, 0.865539551)
(0.324951172, 0.165649414, 0.3430786, 0.865539551)
(0.324584961, 0.16583252, 0.343261719, 0.865539551)
(0.324523926, 0.1661377, 0.343322754, 0.8654785)
(0.324523926, 0.1661377, 0.343322754, 0.8654785)
(0.324646, 0.166564941, 0.343261719, 0.8654175)
(0.324646, 0.166564941, 0.343261719, 0.8654175)
(0.324707031, 0.166625977, 0.343200684, 0.8654175)
(0.324707031, 0.166625977, 0.343200684, 0.8654175)
(0.324707031, 0.166625977, 0.343200684, 0.865356445)
(0.324707031, 0.166687012, 0.343200684, 0.865356445)
(0.324707031, 0.166687012, 0.343200684, 0.865356445)
(0.325073242, 0.166625977, 0.343017578, 0.865356445)
(0.325073242, 0.166625977, 0.343017578, 0.865356445)
(0.325439453, 0.166381836, 0.342834473, 0.8652954)
(0.325439453, 0.166381836, 0.342834473, 0.8652954)
(0.325439453, 0.166015625, 0.3428955, 0.865356445)
