1,-5,-4,18,17,1,-10,-3,10,41
26,59,7,13,5,6,21,11,29,48
34,83,9,8,-2,3,35,32,46,30
25,102,20,5,5,2,33,27,114,8
15,87,27,15,18,-12,31,-4,159,-24
-32,4,23,8,-8,-17,-48,-34,-94,-101
-56,-3,23,10,-8,-6,-44,-28,-139,-129
-51,-10,0,12,1,14,-17,-5,-74,-122
-15,-38,-29,-4,18,26,4,20,-19,-56
34,-68,-53,-23,0,10,15,14,-1,21
68,-62,-46,-26,-12,-6,5,3,38,73
54,-13,-20,-16,-16,-3,34,8,108,83
50,13,2,-42,-16,-10,-51,-2,-43,34
54,47,5,-35,-24,-23,-55,-9,-57,31
40,71,8,-22,-23,-24,-23,-8,-13,42
8,53,12,-19,-23,-25,6,-3,-6,29
-30,-14,-19,-16,-22,-6,1,13,-2,11
-83,-95,-35,5,7,14,40,30,9,16
-32,-85,-25,30,41,21,93,18,70,70
2,-35,-16,37,50,30,70,6,71,69
-84,-35,-4,21,19,17,7,-2,-67,-4
-89,-18,2,32,19,7,6,-6,-87,-34
24,20,-2,24,-2,-8,2,-17,-67,-5
153,66,14,0,-17,-20,-21,-36,-64,10
260,71,18,-20,-31,-34,-24,-35,-45,8
231,38,19,-23,-24,-19,1,-1,36,49
11,59,-2,-1,-7,-6,67,16,124,28
-197,39,-31,-22,-38,-36,-35,-29,-69,-107
-176,-31,-11,-29,-43,-42,-106,-38,-186,-117
-14,-65,12,-7,-5,-21,-65,-11,-67,-32
-60,-88,32,8,27,20,8,23,-5,-24
-178,-20,53,34,45,30,49,37,27,-83
-95,60,29,1,5,-3,-7,9,10,-98
44,-39,-15,-36,-43,-47,-30,-15,41,-24
20,-107,-18,-28,-34,-22,-38,3,28,30
-52,-45,-43,-3,7,31,21,55,76,36
-102,-93,-81,3,28,37,30,58,88,14
4,-94,-58,17,18,10,11,42,50,70
142,68,31,29,16,3,22,31,33,122
156,152,83,13,4,-6,-3,0,22,95
118,109,65,2,-12,-37,-30,-36,-6,53
61,25,30,15,3,-30,-2,-47,50,77
39,105,63,24,18,-5,-22,-41,-45,79
40,168,91,24,20,-2,-46,-43,-122,53
-51,45,20,-21,3,-3,-19,-15,-77,-5
-140,-37,-34,-17,11,30,8,16,-61,-93
6,-186,-86,-12,20,53,43,26,-55,-85
124,-282,-153,-32,10,42,62,22,-23,4
119,-118,-81,-32,-5,-8,58,8,56,85
25,80,52,-34,-45,-65,-57,-61,-40,-8
94,236,133,-32,-65,-95,-140,-96,-139,-43
454,231,105,-21,-54,-72,-109,-52,-60,103
409,98,31,2,2,11,-55,-28,-29,85
224,83,-32,9,55,77,1,-3,15,18
72,-28,-110,18,85,128,105,108,193,39
-197,-144,-63,27,79,110,122,113,169,-41
-478,-83,27,32,41,54,91,33,-6,-183
-806,-60,68,95,118,100,134,96,-17,-293
-960,-165,87,116,112,37,81,70,-12,-373
-707,-355,-55,-46,-99,-146,-72,-54,-120,-300
77,-283,-235,-185,-230,-232,-105,-18,-16,21
524,-69,-223,-181,-211,-214,-68,18,43,214
565,244,23,-47,-124,-101,-58,-22,4,213
482,300,139,32,-24,1,11,-42,67,180
249,174,116,34,8,5,9,-34,52,94
240,112,86,20,-1,-30,-79,-47,-109,103
358,85,43,8,31,-2,-49,-55,-120,162
106,-40,-38,-2,56,66,0,-71,-149,36
-425,-184,-64,22,78,101,50,6,-79,-80
-517,-208,-27,49,87,101,96,104,33,-80
-237,-92,8,40,61,101,98,90,86,-66
-73,75,86,37,28,80,44,21,37,-134
-92,61,76,8,-2,6,-75,-25,-112,-227
-14,7,-55,-65,-45,-58,-76,-3,6,-74
230,106,-73,-91,-96,-154,-120,-20,56,170
295,33,-64,-72,-73,-107,-74,-10,70,328
-252,-168,-80,-3,24,38,16,42,40,120
-723,-166,-6,73,110,164,103,64,-51,-274
-314,122,72,55,85,146,112,-51,-147,-403
238,355,88,-17,-3,18,-65,-188,-309,-225
308,276,69,-28,-9,3,-94,-150,-263,-23
90,156,74,37,55,27,-2,4,-37,-38
109,120,106,62,41,6,9,109,150,35
209,-16,71,55,15,-5,13,93,145,147
179,-134,-32,17,13,7,0,34,80,157
113,-122,-94,-7,2,-20,35,19,154,98
-450,-382,-158,17,60,13,140,71,261,-177
-991,-821,-310,-26,78,107,123,156,132,-305
-372,-460,-206,-34,12,83,52,122,80,-76
295,118,26,10,-75,-65,-86,-41,-34,45
363,241,66,-16,-101,-142,-106,-29,20,131
330,247,67,-36,-114,-133,-45,28,72,172
171,200,97,20,-52,-52,-7,-11,-47,88
146,194,98,41,-15,-51,-23,-88,-134,62
206,202,84,1,-89,-135,-113,-118,-144,101
180,157,59,-46,-138,-179,-127,-87,-78,101
57,50,14,-52,-87,-64,-51,-47,-25,57
10,-34,-14,-27,-6,38,4,-10,31,50
82,-22,14,27,44,60,14,12,35,68
235,48,34,19,17,32,17,53,78,147
330,73,7,-38,-54,-16,61,91,212,256
325,77,-8,-43,-40,-14,76,84,332,318
203,78,40,59,98,83,8,-13,48,143
-89,6,23,100,151,95,-4,-93,-226,-105
-171,-39,-44,-13,7,-2,-3,-51,-179,-116
-243,-40,-69,-70,-46,-7,31,-2,-91,-144
-594,-127,-39,45,103,79,2,-72,-165,-371
-565,-156,-19,104,180,78,-35,-130,-234,-377
-141,-32,4,57,90,9,-31,-78,-62,-101
23,5,-17,-24,10,30,-31,-4,0,19
30,-18,-37,-54,-2,118,33,85,78,73
327,46,-1,-45,-52,39,34,57,92,180
410,57,16,-24,-82,-64,-17,-25,-9,167
211,31,31,-3,-64,-52,9,5,13,52
155,52,20,-15,-67,-54,4,53,132,70
196,132,54,3,-51,-71,-5,56,155,86
21,61,61,52,45,26,66,83,124,18
-374,-70,35,78,115,130,119,118,56,-149
-312,-56,4,28,102,62,20,-13,-98,-253
-94,-15,-35,-31,77,-47,-91,-134,-197,-150
-51,-6,-45,-30,13,-93,-95,-95,-152,17
234,19,-80,-61,-79,-129,-86,-55,-25,218
475,152,-30,-51,-93,-26,-41,-50,26,295
333,200,93,14,-70,-5,4,-39,110,208
-1,-34,104,67,-19,-47,-18,40,146,61
-531,-532,-94,4,-23,-11,-5,120,11,-228
-889,-653,-210,-41,9,141,145,159,19,-451
-551,-192,-63,-25,-23,133,127,123,-7,-391
103,341,64,-52,-107,-35,-4,3,-86,-184
172,389,99,-55,-137,-109,-37,0,-39,-49
95,191,49,-44,-96,-92,15,6,74,44
-23,-42,11,18,18,-6,48,15,100,185
-68,-197,-33,15,73,81,37,74,37,236
94,-88,-41,19,101,81,33,18,48,201
113,98,7,80,128,37,-72,-148,-101,-19
92,225,93,97,64,-74,-194,-215,-143,-225
149,170,78,25,-10,-66,-129,-102,11,-193
164,112,53,21,50,53,34,74,209,-1
149,119,83,63,104,113,161,149,296,138
140,87,70,38,58,83,70,24,-63,45
-10,-1,17,-16,-6,15,-37,-90,-245,-11
-90,-13,-57,-90,-74,-65,-73,-111,-196,-16
212,187,-6,-87,-104,-95,-79,-91,-148,31
98,38,23,-20,-53,-39,-14,-6,-68,22
-338,-394,-64,30,45,97,139,146,64,0
-422,-684,-206,17,82,153,224,206,195,64
-226,-542,-241,-50,13,31,168,87,204,72
-7,-118,-130,-68,-60,-87,-76,-33,-47,-2
148,234,5,-40,-78,-99,-165,-106,-151,-10
120,203,44,-4,-13,-17,-81,-67,-107,39
-111,104,42,28,34,12,11,-6,-64,-20
-91,80,35,16,-3,-10,0,-10,-38,-26
156,51,16,-6,-22,-54,-29,-32,-20,90
268,84,8,-6,3,-46,-25,-52,-16,103
164,157,25,-7,12,-63,-75,-83,-72,-31
-14,60,6,1,-4,-62,-42,-40,-31,-74
-71,-26,8,8,-4,-25,34,40,18,-2
-73,14,32,26,58,81,67,51,2,-12
87,97,63,31,80,127,57,26,-27,-6
216,86,57,21,44,21,34,24,13,56
189,50,40,-2,-10,-14,41,26,88,82
286,139,87,-9,-43,-18,11,-37,145,148
577,477,160,-30,-123,-112,-158,-123,-41,178
396,658,176,-13,-124,-143,-178,-101,-78,65
-221,341,156,58,-8,-10,-49,-14,-81,-196
-419,-139,21,64,84,98,35,21,-87,-260
-920,-964,-211,76,193,237,192,180,85,-192
-1588,-1630,-506,0,212,303,311,302,207,-248
-508,-787,-426,-108,18,51,143,100,132,-82
724,240,-70,-114,-161,-209,-131,-106,-51,238
583,352,101,-28,-113,-140,-108,-79,-44,229
239,248,136,41,-1,8,-14,-12,-28,15
-145,196,97,38,1,22,23,2,-56,-257
-239,166,66,21,-31,8,-24,-57,-139,-356
49,193,78,-4,-59,15,-27,-68,-103,-106
158,168,78,-7,-63,-16,5,-20,25,116
160,87,54,22,-10,-51,-32,-36,-5,149
114,-3,2,21,44,-19,-67,-68,-93,105
173,50,-29,-36,-36,-41,-63,-32,-29,137
196,144,8,-33,-56,-100,-89,-20,16,130
141,178,92,46,24,-80,-110,-38,-20,47
151,289,185,94,43,-36,-76,-18,-32,25
48,227,149,68,4,-44,-24,26,25,34
-124,-96,-48,-13,22,11,97,73,167,74
-77,-311,-183,-81,34,82,114,102,59,74
-31,-404,-197,-103,53,71,-4,-14,-171,36
78,-261,-148,-85,38,17,-79,-123,-224,98
202,131,45,0,9,-24,-79,-144,-165,123
317,349,157,26,-39,-34,-64,-111,-81,88
181,260,167,65,-7,43,36,5,-5,-47
-232,-163,53,84,53,82,151,119,188,-182
-716,-632,-193,7,31,88,180,215,264,-329
-463,-498,-294,-120,-94,-9,57,158,120,-238
-37,-93,-179,-166,-159,-119,-19,83,148,35
88,266,24,-93,-118,-119,-16,66,111,117
188,346,163,22,-35,-47,30,65,119,225
174,250,169,80,19,-23,7,37,143,177
4,200,126,91,54,8,11,-35,5,-75
-395,30,33,48,63,42,88,-43,-44,-290
-384,-142,-44,-22,11,48,25,-24,-111,-298
67,-35,4,-2,25,66,-6,-5,-50,-23
207,35,42,57,132,125,46,-34,-78,82
89,15,2,73,228,169,69,-88,-154,-20
114,53,38,87,188,124,5,-135,-207,-44
140,52,64,102,85,48,-50,-134,-186,-26
82,-72,-36,27,-37,-22,23,-78,-55,21
246,-10,-72,-102,-205,-142,50,10,99,216
239,32,-36,-101,-210,-151,-83,67,54,179
20,-67,-28,-41,-92,-121,-106,111,158,109
142,-14,-25,-90,-195,-204,-76,181,345,329
84,-78,-44,-114,-226,-120,20,185,312,405
-224,-219,-57,-22,-25,23,24,49,49,54
-5,-87,-52,-7,40,18,-17,11,6,-113
395,219,33,-14,36,40,22,3,12,-39
110,212,92,11,53,87,27,-45,-185,-194
-597,1,48,33,83,103,55,-32,-272,-508
-915,-184,-2,104,180,147,19,-118,-408,-514
-272,-91,-37,56,119,69,-75,-245,-496,12
253,-27,-74,-40,-11,-11,-51,-144,-257,509
299,-31,-64,-33,-35,-57,-81,-82,-47,472
174,24,11,34,-4,-91,-113,-79,124,124
-17,17,45,46,6,-71,-102,-90,126,-304
-157,-4,42,43,26,8,-68,33,167,-564
-182,12,72,88,92,99,84,296,510,-481
-70,13,53,47,29,71,142,372,608,-49
30,30,27,9,-17,-11,58,145,176,170
35,40,16,5,-11,-47,-51,-151,-258,154
56,40,-8,-24,7,-15,-28,-153,-145,53
142,33,-37,-61,-23,6,37,-8,136,-1
168,5,-43,-40,-1,60,-7,17,-22,-93
170,42,-6,-12,5,85,4,-26,-183,-97
295,169,30,-22,-42,30,-15,-55,-152,119
445,242,62,-8,-55,-41,-13,-41,-31,370
134,83,52,5,-26,-33,40,13,43,282
-185,-208,-40,0,-6,-10,65,30,39,114
-440,-496,-196,-56,-15,-11,75,46,75,-45
-631,-390,-163,-24,54,48,52,16,0,-275
-420,-14,45,82,114,57,-7,-77,-118,-348
86,240,163,82,45,-28,-81,-127,-161,-100
481,222,53,-44,-60,-56,-86,-112,-90,219
464,51,-53,-92,-79,-36,-40,-9,81,364
221,68,-19,-13,33,55,16,62,145,232
-14,119,31,5,32,65,62,56,119,80
-31,67,33,25,-19,-60,38,-5,145,-13
-182,-179,-93,-54,-121,-162,-59,10,31,-202
-722,-365,-140,-77,-111,-96,-16,68,-65,-415
-531,-224,-91,-55,-91,-89,-15,26,-76,-303
-53,43,52,28,-14,-21,5,-10,-89,-52
322,237,127,52,3,-59,-64,-46,-66,195
498,233,110,34,-1,-67,-72,-32,0,296
312,107,53,26,25,19,42,-15,36,128
0,35,10,8,47,89,41,-12,-20,-114
-57,22,-5,-10,49,102,25,62,34,-119
39,51,5,-3,28,63,21,52,49,16
-29,-19,-3,2,26,57,-9,-7,-65,22
-39,-95,-45,-17,17,38,2,-25,-91,9
65,0,-30,0,27,26,-11,-50,-78,1
-25,51,1,30,31,24,4,-36,-35,-36
41,73,-19,-1,-3,-1,16,-34,0,-11
93,-49,-42,-5,8,15,-34,-2,-38,58
-293,-368,-112,-14,12,36,-1,47,0,39
-100,-164,-76,-61,-46,-30,-29,33,42,121
331,234,68,-33,-69,-66,-43,36,85,203
383,237,103,29,-10,7,0,22,47,123
266,101,124,90,54,42,-1,-8,-13,7
-269,-161,26,77,43,-1,47,45,94,-101
-513,-129,-72,-17,-45,-87,47,37,100,-172
-150,167,-22,-48,-76,-91,-30,-24,-95,-129
288,258,42,-2,-18,-4,-22,-16,-95,49
202,12,-13,26,61,105,31,32,-44,68
-193,-284,-101,37,114,140,70,69,-7,-51
-152,-301,-118,-7,44,46,14,15,-11,-58
-82,-192,-93,-33,-13,-18,-33,-39,-17,-66
-310,-129,-67,-26,-12,-10,0,-16,-9,-134
-348,46,29,23,22,4,10,0,-57,-189
105,213,79,12,-21,-40,-23,-52,-124,-9
363,120,27,-33,-75,-81,-46,-73,-143,269
194,-70,-40,-49,-54,-29,20,-13,-81,301
14,-102,-23,-12,-8,27,31,3,-35,157
24,-58,11,12,-4,-12,-35,-30,-14,43
124,99,68,46,7,-26,-28,-38,90,-70
29,117,79,55,4,-43,16,124,408,-147
-123,45,19,20,-10,-33,2,275,575,-183
-27,56,-9,-10,-15,-22,-15,153,277,-119
55,76,-1,7,30,11,-16,-54,-130,-10
26,137,18,18,51,7,-17,-144,-270,2
-99,72,18,0,-10,-24,-15,-105,-231,-6
-43,4,2,-12,-24,-15,-2,-95,-137,140
55,-60,-5,6,40,20,-6,-102,-128,133
25,-161,-35,3,89,49,-57,-76,-217,23
100,-50,-31,-13,3,15,-52,-74,-184,64
18,-62,-51,-40,-37,54,22,-42,-120,-44
-134,-128,-63,-43,-26,82,93,53,-10,-229
-68,-62,-34,0,44,89,90,95,74,-210
-73,14,4,45,66,28,45,93,172,-134
-157,124,101,77,7,-51,32,104,277,-153
-114,18,87,33,-71,-71,29,141,241,-105
102,-81,-18,-96,-161,-119,14,143,294,195
149,19,28,-61,-117,-102,-12,35,182,238
103,107,82,16,-52,-75,-48,-86,-52,141
170,123,62,0,-81,-140,-80,-120,-133,128
159,82,-9,-35,-89,-111,-44,-68,-119,114
101,-6,-89,-45,-28,43,96,71,75,142
24,-71,-85,0,70,137,184,113,212,121
2,2,40,33,85,101,19,-21,-70,-40
-4,43,74,57,110,97,-58,-86,-179,-133
-135,49,78,72,126,69,-78,-77,-74,-131
-275,33,83,72,104,47,-78,-56,-15,-122
-194,11,38,51,82,61,-20,-61,-84,-133
0,-59,-52,-17,-8,13,28,0,-46,-32
143,-61,-64,-18,-3,-3,46,7,10,14
128,-116,-75,-31,-4,-13,-19,3,-55,-18
89,-55,-54,-61,-61,-58,-64,15,-47,31
-58,37,-12,-63,-90,-97,-94,-15,-14,48
-84,105,33,-43,-90,-119,-112,-45,-16,53
-7,76,36,-3,-32,-32,-44,-32,-31,36
33,70,14,-5,30,67,7,-58,-80,-31
277,89,13,-5,31,58,30,-49,-55,45
424,43,51,12,16,21,34,-12,-2,160
332,-3,45,12,19,32,43,44,63,219
-49,-108,-15,13,26,31,70,93,120,129
-201,-153,-75,4,34,18,67,68,80,10
-118,-88,-59,-26,-25,5,74,57,49,-25
-396,-106,-14,6,13,16,53,28,-26,-230
-736,-112,21,67,74,77,55,20,-48,-375
-515,-24,48,59,42,29,40,11,25,-267
44,115,44,-30,-72,-142,-95,-68,-10,-45
453,144,-28,-111,-115,-167,-118,-65,12,133
451,117,-57,-105,-105,-104,-40,-13,32,181
393,144,16,-40,-58,-78,-27,-30,-33,220
395,157,82,23,-20,-36,-56,-62,-122,292
174,76,72,65,7,-29,-76,-42,-66,217
32,-85,-18,27,9,-37,-43,-16,36,158
-33,-172,-56,-15,-4,-1,2,-48,-40,118
-412,-211,-33,20,54,73,0,-8,-157,-204
-704,-111,14,43,63,93,34,109,-1,-429
-408,33,54,52,44,85,66,149,89,-344
-123,41,15,47,59,83,70,97,80,-177
-173,-165,-129,0,80,98,104,81,124,-147
152,-114,-195,-64,54,63,85,66,123,-105
471,111,-57,-42,8,-12,22,-32,58,54
333,67,32,5,19,-23,-57,-64,0,166
77,-78,-5,-1,48,2,-104,-49,-22,71
-196,-63,-10,0,7,8,-40,0,-59,-159
-285,20,45,29,24,30,-3,-14,-146,-230
-220,8,47,41,50,23,9,-45,-136,-113
-178,-13,26,33,55,40,34,43,34,13
127,23,-9,-17,-3,-10,48,100,235,225
277,32,-29,-62,-101,-66,20,-26,-9,221
247,34,-39,-94,-140,-71,-46,-66,-162,183
175,52,-3,-34,-77,-26,17,10,44,205
126,46,22,16,-29,-6,46,88,168,141
182,21,-11,-24,-65,-41,29,138,287,146
77,21,3,-21,-64,-83,-16,50,212,60
-128,37,64,37,3,-48,-25,-41,57,-111
-300,35,93,82,85,39,56,-14,13,-233
-184,116,83,76,82,83,75,-4,-89,-172
77,203,85,58,21,12,-19,-99,-203,-105
59,136,77,37,-8,-41,-78,-117,-152,-125
42,46,40,6,-25,-34,-57,-48,51,21
-1,-60,7,-10,-10,4,-14,25,174,114
-205,-233,-39,-14,25,65,36,44,95,22
-363,-315,-117,-5,78,84,68,-30,-3,-56
-67,-188,-156,-48,36,55,96,-30,16,43
355,28,-72,-53,-17,24,-16,-33,-118,97
453,85,15,6,6,14,-52,-30,-127,104
213,3,11,36,20,7,-12,2,-56,36
-188,37,-29,-13,-36,-35,-27,-11,-47,-110
-189,214,62,-13,-77,-71,-59,-55,-80,-148
28,222,92,5,-75,-85,-58,-61,-51,-25
20,104,43,26,-21,-2,38,-4,65,76
-235,-228,-41,58,102,127,68,23,-2,-9
-350,-402,-115,43,200,182,79,-1,-88,-55
-44,-209,-93,21,119,116,69,7,-63,66
238,39,-12,32,44,62,20,-41,-49,133
259,196,68,14,-35,7,-14,-49,-70,11
129,182,64,-15,-43,-31,-11,-31,-72,-114
-124,0,-11,-43,-34,-38,-5,41,96,-129
-270,-176,-88,-58,-70,-14,57,197,408,69
-99,-89,-11,-12,-84,-8,47,162,326,208
3,84,107,60,-70,-88,-25,32,73,116
35,126,117,57,-35,-114,-58,-33,-26,-13
134,113,71,3,-45,-101,-42,-4,15,-19
181,123,44,-48,-105,-125,2,78,90,29
80,88,24,-45,-99,-103,20,59,52,-21
2,-34,-27,4,47,20,48,-23,38,-78
-11,-90,-72,-1,95,78,37,-44,7,-33
28,20,-8,-4,23,7,-56,-51,-92,17
16,16,-22,5,29,33,-64,-82,-121,84
-61,-87,-87,17,114,147,3,-108,-164,61
5,-73,-78,-4,105,156,22,-25,-43,118
64,-32,-46,-16,45,88,25,7,4,154
-40,14,46,56,80,20,-62,-151,-161,-71
-90,22,55,34,11,-31,-91,-125,-170,-169
-32,4,3,-37,-82,-36,17,113,114,-66
10,18,1,-31,-95,-54,50,140,167,-115
-5,27,16,19,-16,0,50,43,40,-230
33,84,47,44,17,17,35,18,61,-176
92,94,64,39,-37,-32,-12,43,125,11
52,11,62,57,-28,-49,4,76,133,101
30,-43,0,-10,-70,-87,38,70,200,184
124,54,-13,-68,-112,-107,-51,-25,14,187
131,133,20,-75,-131,-142,-126,-57,-92,174
89,118,28,-45,-84,-93,-73,-6,22,171
-86,69,77,53,36,60,30,21,-36,-18
-333,-143,20,98,117,126,80,9,-88,-158
-208,-311,-133,-1,70,90,51,-13,-45,-100
119,-117,-128,-53,3,30,13,-45,21,-9
211,40,-44,-32,15,36,-15,-86,2,-13
-5,21,1,13,62,64,-32,-62,-62,-75
-283,-80,-12,37,110,111,46,19,-47,-182
-324,-85,-45,14,113,104,73,60,-2,-200
-87,-6,-23,-18,15,30,24,2,-52,-91
206,36,-9,-22,-27,-4,-33,-76,-130,14
146,35,-9,-15,16,25,-27,-86,-95,78
-17,-1,-6,3,22,51,-1,-73,-68,87
-80,-59,-27,-4,52,49,18,-44,-144,19
-190,-71,-28,-7,60,54,75,36,-94,-97
-61,1,13,1,6,-15,27,71,45,-57
315,84,15,-9,-17,-96,-66,13,81,24
296,66,-19,-46,-61,-128,-90,-27,52,-26
184,81,21,-7,-59,-74,-40,48,208,57
255,191,125,68,-53,-54,51,121,313,256
232,99,78,43,-105,-134,50,71,189,306
-95,-127,-24,-21,-139,-105,-30,5,-87,110
-473,-195,21,26,-54,-16,-17,-16,-131,-169
-529,-126,59,43,-15,22,15,-12,-148,-363
-279,58,67,-3,-89,-83,-42,30,68,-217
-100,45,10,-42,-82,-74,-15,151,390,87
138,21,-24,0,52,61,61,106,247,147
309,43,-40,-22,51,42,11,-73,-52,104
266,44,-40,-19,37,36,-34,-116,-266,48
217,47,-11,15,70,81,0,-68,-214,40
162,15,-40,-27,39,81,10,-18,-115,26
-70,85,-3,-29,40,57,-29,-76,-153,-88
-199,111,39,25,69,26,-70,-105,-168,-132
-42,75,41,5,5,-13,-58,-49,-73,-36
-107,-102,-24,4,59,57,13,-38,-73,-35
-311,-383,-114,5,127,122,74,-14,-118,-52
-143,-344,-169,-57,34,45,73,18,-97,21
133,-48,-107,-103,-71,-57,31,46,26,98
128,99,30,-23,-53,-61,-10,51,103,75
151,89,109,38,-41,-73,-30,25,129,64
250,11,67,-3,-92,-118,-30,74,240,128
218,33,28,-43,-106,-85,37,155,311,99
186,170,108,0,-46,-16,78,81,268,85
167,278,169,60,16,22,19,0,119,90
-42,222,139,89,103,78,-37,-32,-79,6
-251,30,-17,2,44,42,-14,-52,-156,1
-198,-258,-217,-86,-20,44,48,17,-109,62
-189,-404,-225,-52,58,90,64,31,-114,-95
-241,-272,-16,88,124,66,-15,-70,-185,-274
-96,-34,94,90,25,-47,-69,-87,-116,-246
-40,73,92,44,-23,-55,-39,-10,14,-183
-18,177,76,9,-43,-8,60,100,96,-67
93,158,31,-15,-36,-8,43,35,19,77
49,60,-4,-21,-33,-56,-52,-60,-69,75
36,-1,-15,-14,-20,-63,-49,-68,-63,23
113,-58,-29,-19,-14,-11,-7,-24,2,64
111,-56,-32,-13,4,16,28,-11,66,107
229,56,-51,-49,-36,-32,10,-56,121,151
355,86,-29,-53,-48,-39,-83,-75,-30,174
218,30,-8,-20,-3,-10,-82,-52,-103,91
-156,-10,8,25,67,50,11,-6,-87,-125
-140,93,42,39,72,76,15,-14,-77,-158
-123,74,45,37,57,92,37,11,-6,-75
-387,-45,29,47,46,111,104,84,23,-152
-319,-101,-16,31,43,102,164,141,178,-112
157,-90,-66,-38,-26,27,35,57,97,16
218,-60,-61,-54,-53,-39,-57,12,1,32
-58,-22,-22,-30,-43,-48,-29,70,81,12
-178,17,26,-2,-53,-83,-35,28,27,-27
-327,-33,23,27,-5,-49,-46,-45,-106,-184
-345,-18,-2,2,2,-24,-55,-64,-91,-196
15,22,16,31,52,-10,-41,-27,2,37
229,33,1,-8,34,-1,-10,-8,-7,148
207,40,-6,-36,-18,-8,-31,-4,-66,104
131,34,1,16,20,-23,-36,-28,-51,78
18,-26,-20,21,69,9,-28,-51,-38,53
-42,-81,-34,13,62,42,-16,-71,-78,-15
-35,-69,-38,-7,-6,1,-17,-44,-29,11
36,-22,-29,-35,-57,-15,20,6,52,71
183,50,2,-4,-19,4,44,4,80,111
231,78,30,7,-14,-7,17,-8,30,117
135,61,26,-19,-63,-33,-82,4,-47,60
26,73,31,-53,-113,-71,-55,74,30,40
-59,121,74,-24,-69,-42,-25,37,-8,-89
-295,31,96,64,57,93,64,50,10,-213
-252,-106,29,60,82,112,111,99,63,-171
48,-87,-49,-26,-33,-30,79,92,90,-21
183,-34,-92,-78,-58,-85,-1,9,71,110
45,-14,-46,-40,-20,-28,-63,-47,-61,58
-104,12,16,4,0,0,-46,-53,-84,-4
-50,21,34,22,-15,-37,-61,-55,-61,-48
26,24,27,22,-12,-63,-50,-42,-19,-45
50,15,3,27,31,-2,15,-2,23,-11
46,6,-15,-1,17,31,22,12,40,33
143,88,10,-22,-71,-22,11,26,113,127
305,195,51,-6,-79,-1,-2,18,95,189
286,209,77,10,-28,18,-2,-11,25,113
144,143,49,-15,-37,-4,26,-14,4,27
-60,40,44,0,-51,-51,36,28,23,-3
-297,-210,-37,18,11,-39,42,32,14,-8
-293,-207,-48,84,145,99,73,-8,-51,-47
-245,-201,-59,59,113,119,81,2,3,-59
-79,-268,-109,-7,17,17,80,3,133,-33
77,-41,-58,-25,-18,-10,21,-9,52,-51
350,427,40,-46,-55,-59,-118,-98,-150,-20
506,442,41,-29,-31,-34,-88,-70,-114,82
388,40,-14,-11,14,9,-16,13,-37,132
-106,-419,-101,-14,47,42,9,43,25,111
-543,-612,-141,14,93,101,69,94,88,-22
-515,-275,-43,35,90,81,78,60,76,-213
-657,16,23,18,45,37,29,0,-33,-405
-667,86,35,38,53,58,41,9,-84,-400
-146,106,43,50,40,25,-6,3,-22,-104
272,149,49,12,-36,-56,-83,-25,37,122
413,128,63,-18,-68,-72,-63,-6,64,231
387,88,28,-32,-57,-61,-20,-1,51,249
281,105,28,11,-23,-35,-10,-26,22,205
240,136,54,33,-13,-41,22,-48,73,211
170,68,22,-10,-41,-37,-49,-50,-53,105
2,-30,-33,-40,-30,-8,-26,-28,-99,-51
-73,-62,-36,-31,10,37,35,13,-41,-153
-51,-25,-10,-20,18,31,21,26,-19,-177
-188,-38,-24,-29,2,26,22,42,49,-178
-214,-70,-38,-3,57,77,50,12,28,-113
-148,-77,-25,59,198,148,71,-68,-66,-33
-67,-78,-43,30,142,129,-32,-66,-176,24
-7,-56,-39,9,38,71,-48,-47,-165,-3
-103,-71,-25,32,50,79,-25,-55,-68,-67
-6,7,0,18,-20,-9,-29,-60,-24,-39
43,55,19,-51,-135,-140,-41,-20,16,-37
-19,34,3,-64,-159,-180,-45,91,250,33
127,75,28,-45,-149,-144,8,205,481,241
254,146,105,20,-120,-113,25,122,196,159
205,129,104,39,-87,-111,-42,21,-30,53
107,99,51,25,-29,-60,-27,-33,-93,9
64,36,-9,0,17,47,71,34,100,124
100,-7,-16,-7,30,63,86,63,151,169
101,-21,-22,-10,69,62,49,-10,-50,71
73,-38,-20,22,114,76,5,-66,-129,-6
67,5,6,67,135,56,0,-100,-70,-65
-25,1,15,21,7,-7,-38,-68,-108,-76
-137,-6,-15,-68,-127,-114,-95,-61,-145,-67
-150,1,-27,-82,-120,-123,-100,-57,-110,-44
-182,-5,-1,-26,-64,-74,-46,0,2,-7
-83,-13,5,17,-7,-20,5,24,32,11
168,17,-14,-5,9,-4,-23,-22,-37,65
220,-11,-20,-11,12,0,20,17,51,153
-157,-153,-3,16,43,48,88,70,84,53
-150,-115,-6,26,51,83,71,51,-60,-1
116,54,7,31,25,46,9,-19,-119,-9
100,56,-11,28,33,34,-5,-31,-114,-145
80,12,-10,3,50,53,14,-27,-127,-235
-31,-49,-33,-10,81,71,-7,-29,-108,-143
-48,-113,-57,-6,115,63,12,3,-77,53
44,-67,-55,-17,30,6,37,-1,13,199
-26,71,-1,-11,-50,-47,-25,-60,13,120
-252,96,24,-16,-90,-41,-26,43,28,-42
-247,76,67,0,-86,-46,-9,121,24,-165
-97,39,113,35,-68,-68,-17,99,28,-228
0,-55,95,66,-6,-31,-39,125,249,-75
327,36,61,10,-72,-66,-51,99,243,158
-26,73,55,1,-66,-54,-28,-14,7,4
-443,2,-16,5,10,-18,-5,-118,-96,-228
-171,-40,-109,-51,-22,-9,-29,-41,-70,-121
-95,-131,-116,-35,29,71,19,51,-141,-37
108,-122,-91,-12,55,75,19,0,-148,69
121,-93,-60,-18,32,31,-37,-59,-124,115
21,-40,-9,-9,45,33,-18,-53,-78,75
46,-37,-15,-1,81,94,6,-54,-71,-10
-20,-56,-18,13,128,119,52,-58,-68,-121
-11,-40,-24,-20,51,62,34,-19,-49,-85
78,10,-38,-59,-24,-6,-12,-11,-45,31
71,-19,-54,-38,27,32,-3,-26,-71,54
60,-50,-53,-36,19,42,24,0,-39,90
40,-27,-9,-41,-63,-64,3,21,-1,106
51,91,71,-26,-126,-135,-58,-22,-29,65
86,153,133,47,-93,-163,-83,-37,12,40
49,70,91,114,12,-65,-8,21,119,54
24,1,55,68,-6,-35,-42,48,4,10
58,5,40,10,-81,-110,-93,-14,-81,-1
57,-1,20,-24,-112,-131,-61,14,41,9
38,45,49,1,-47,-35,2,76,113,-15
5,28,1,-19,-26,-7,14,62,101,-16
-21,0,-44,-67,-50,-56,4,77,140,50
42,30,-13,-30,13,13,33,31,104,122
36,-59,-25,-6,50,74,-5,-36,-66,60
37,-94,-28,-5,48,71,-18,-51,-119,-1
30,-58,-36,-38,14,53,12,-38,-89,-9
-61,-22,-25,-40,10,31,-9,-58,-107,-67
-74,1,-12,-27,17,14,-11,-67,-104,-76
123,14,-1,-1,35,28,6,3,0,41
172,126,23,24,53,22,5,0,18,43
-7,201,47,29,9,-23,-48,-83,-115,-79
-142,-16,-25,28,51,23,-26,-68,-133,-115
-440,-347,-126,37,128,132,66,26,3,-160
-708,-339,-39,94,154,198,130,94,52,-265
-324,-135,54,111,94,129,87,47,13,-164
136,78,51,39,-1,32,36,-15,-18,5
298,197,39,-33,-73,-41,6,-10,15,96
254,115,6,-37,-71,-37,45,25,146,155
211,-8,-39,-50,-69,-74,5,-9,60,156
265,41,-31,-71,-103,-126,-38,-4,-16,145
228,122,28,-37,-76,-91,-8,18,12,86
97,118,69,-4,-80,-132,-49,21,70,80
36,87,40,-16,-101,-192,-96,15,109,137
-51,-32,-22,-38,-56,-109,-91,-22,2,71
-217,-112,-33,0,57,84,22,6,3,-77
-189,-79,-19,37,115,149,53,-1,-30,-142
-20,-15,-10,1,49,85,0,-12,-85,-92
37,3,-4,29,55,70,11,14,-36,-82
-94,-17,-9,55,76,50,13,15,5,-126
-57,35,-7,-2,3,-49,-51,-39,-3,-26
91,39,-2,-46,-96,-154,-51,-19,-10,74
0,-33,-6,-30,-52,-96,-9,1,-16,27
-51,-35,10,-2,16,29,17,9,12,40
20,-38,24,14,18,41,2,12,-20,71
-13,-52,14,16,0,30,7,-3,-58,17
83,95,19,-4,-46,-17,-7,-24,-70,-2
106,126,1,-23,-50,5,23,-15,-52,-4
-64,13,6,6,-6,22,20,-22,-89,-34
-91,-28,5,10,-3,-13,17,16,-9,0
-43,-18,-14,-6,-3,-22,51,79,215,58
74,66,0,-18,-6,-42,58,63,323,156
144,86,-9,-32,-19,-20,-16,16,113,99
117,52,7,-8,26,41,-44,-6,-80,-133
47,61,65,57,51,45,-1,12,-39,-235
-38,-6,38,43,38,5,3,53,26,-155
-6,-140,-59,-19,55,18,8,7,15,-10
188,-140,-86,-44,13,4,-3,-40,-45,126
295,38,-14,-17,-27,-38,-17,-21,-14,217
82,122,51,27,15,21,-12,19,-40,83
-136,129,86,74,63,49,-28,-27,-93,-107
-161,36,35,36,14,-26,-55,-90,-161,-151
-449,-191,-50,10,38,16,31,-27,-99,-187
-645,-381,-146,4,140,88,42,0,-35,-241
-227,-212,-135,-27,34,34,11,-2,6,-82
30,-31,-31,-25,-52,19,92,57,174,126
171,49,11,-10,-76,9,77,50,200,174
268,103,23,-16,-63,-7,-79,-61,-75,63
219,94,31,-29,-62,-41,-95,-86,-106,14
110,64,33,-30,-76,-62,-45,-18,-3,99
186,34,16,-65,-171,-82,-15,26,0,241
303,53,13,-56,-158,-87,-2,21,5,255
292,126,27,-33,-67,-80,-15,-40,3,114
281,165,36,-26,-34,-49,34,7,135,93
180,94,49,6,19,35,10,72,83,19
-161,-3,53,50,98,103,66,118,76,-80
-433,-70,40,65,115,87,68,115,78,-144
-367,-70,20,60,91,38,17,-3,-51,-161
-180,15,-1,28,34,5,-21,-82,-139,-117
-169,49,-24,-28,-3,13,20,-51,-83,-104
-219,21,-39,-39,-14,12,23,-19,12,-102
22,8,-33,-20,-5,-31,-19,-26,55,19
-4,-101,-8,16,22,16,22,36,78,31
-110,-131,11,41,39,58,33,45,46,-57
43,-58,0,29,22,14,-8,-30,-6,22
231,-51,-54,-8,-22,-40,-36,-70,-67,65
150,71,-13,-1,-1,-54,-16,-38,-50,-91
-79,78,20,12,18,-15,-3,-5,-28,-205
-107,-35,-33,-3,13,21,23,32,16,-72
-44,-11,-18,-9,-18,-11,-2,0,-29,61
-120,-8,23,7,17,-20,-46,-53,-52,35
-110,-40,-2,5,16,7,-35,-49,0,11
-4,-14,-8,-5,-10,-14,-32,-50,-15,10
102,9,10,11,-7,-27,-23,-28,14,31
148,24,20,21,-18,5,30,49,92,76
161,43,13,19,-20,9,84,66,134,131
142,41,-12,-4,-17,-5,98,41,124,134
47,31,-4,-20,-40,1,14,-8,-103,-32
-46,86,63,16,-12,18,-75,-110,-315,-170
-15,69,67,39,35,39,-43,-87,-223,-43
-13,43,55,28,28,28,-3,-24,-115,65
1,26,26,6,-6,21,-10,7,13,127
123,-21,-55,-41,-33,-5,-4,11,63,122
256,-2,-126,-60,-35,-19,-24,28,103,44
193,-1,-153,-80,-42,-48,-37,95,178,-59
46,-1,-36,-27,0,-30,-40,32,81,-154
-23,-58,29,32,30,14,5,7,-3,-85
-481,-282,-12,8,1,-6,22,89,58,-86
-707,-329,-17,18,21,31,75,135,99,-146
-278,-59,44,61,65,34,57,38,6,-109
173,86,36,27,43,12,36,-42,-6,5
319,135,-10,-21,23,31,37,-26,74,154
243,153,38,18,67,38,-59,-50,-86,98
93,46,38,30,74,59,-90,-90,-218,-36
15,-5,5,-6,46,65,-22,-49,-125,-28
18,-17,-15,-21,14,32,0,-8,-60,27
-81,-123,-65,-36,14,12,13,7,-33,-8
196,104,8,-37,-74,-78,-23,13,66,111
158,17,7,-12,-24,-68,-48,-9,18,68
48,-39,3,26,50,-38,-43,-22,-3,31
18,15,-9,1,0,-48,-19,-3,56,38
-3,62,3,9,4,-26,68,9,147,47
-159,-8,38,57,28,29,67,-21,47,-53
-196,-25,43,24,-38,-28,-54,-27,-71,-123
8,20,14,-45,-136,-123,-70,-1,-16,-1
144,29,-11,-70,-150,-125,-22,42,63,106
76,21,7,-21,-55,-12,64,84,71,82
14,16,42,45,60,68,54,45,18,20
16,50,71,64,64,48,16,8,26,14
19,63,74,58,29,12,-20,-18,14,-3
50,20,13,4,25,2,-46,-46,-87,-43
57,7,-23,-17,32,33,-15,-29,-52,-32
75,-13,-29,-25,2,58,20,10,6,40
137,26,-5,-15,13,64,22,14,42,117
70,12,7,12,72,79,3,-43,-19,119
-134,-44,-1,52,134,92,22,-79,-64,9
-140,-25,-12,9,52,6,7,-28,1,-14
-74,0,-23,-45,-68,-94,-16,11,6,-8
-158,-28,-18,-7,-33,-53,-2,35,-8,-156
-219,-65,-42,-10,-16,-20,4,43,19,-270
-213,-77,-62,-45,-90,-60,-5,68,57,-265
-101,4,-12,-27,-64,-37,9,87,119,-92
2,88,43,-21,-59,-38,17,52,57,71
129,116,34,-45,-94,-60,11,41,118,189
94,64,21,12,25,43,59,-2,138,118
33,-2,6,47,119,129,23,-85,-112,-39
75,2,-29,-7,39,63,-1,-49,-122,8
113,-7,-46,-39,-52,-14,9,-13,-16,105
147,-69,-33,-19,-55,-36,0,-10,24,161
338,39,3,17,-37,-32,-10,0,57,235
466,208,79,71,-17,-27,-31,-29,30,218
354,180,86,69,1,-36,-28,-40,60,116
113,-16,16,31,17,-5,-38,-23,9,-2
-365,-256,-65,-5,25,34,-7,15,-26,-133
-1009,-434,-166,-54,14,40,53,71,18,-302
-731,-178,-106,-49,-4,25,47,56,2,-291
-49,45,-5,-18,2,28,19,10,5,-61
178,139,75,47,45,37,22,3,41,50
177,132,84,72,89,74,28,-13,-7,-52
-53,15,17,48,110,133,84,36,1,-182
-218,-83,-11,36,109,144,116,58,-17,-168
-126,-88,-28,-5,71,86,56,30,11,-54
-72,-81,-35,-22,29,12,0,1,46,19
98,4,-24,-25,-13,-31,-53,-85,-55,25
291,93,-24,-57,-102,-117,-95,-111,-113,50
188,82,-1,-50,-127,-171,-107,-99,-85,61
84,90,30,-21,-80,-127,-36,-48,60,112
98,91,46,-26,-81,-106,7,-12,99,162
101,67,54,-23,-92,-67,-68,-33,-78,125
85,84,94,17,-48,-47,-82,-21,-87,82
38,56,90,36,-11,-8,-16,39,41,101
-21,64,38,-12,-52,0,41,88,124,48
-91,156,32,0,-29,11,28,93,145,-85
-145,100,20,46,49,31,37,50,104,-198
-40,-16,-4,22,21,5,53,41,34,-180
99,-219,-76,-2,11,-19,-5,13,-29,-25
83,-285,-112,12,86,67,56,80,68,52
39,-189,-21,33,60,52,66,98,110,72
0,-149,7,22,36,21,13,19,28,95
17,-45,-37,-21,18,1,-45,-42,-39,110
5,91,-10,-8,22,-27,-72,-92,-75,30
-68,65,-6,2,22,-8,6,-108,-49,-37
-75,0,-36,-27,1,21,11,-75,-87,-82
-6,-35,-48,-45,-26,41,-43,-47,-189,-63
-27,-32,-16,-8,20,65,-20,-91,-239,-13
-86,-1,6,6,43,40,-37,-125,-240,-2
-76,58,23,13,37,24,-39,-61,-163,-51
3,27,17,12,-18,-40,-16,34,102,-14
46,91,51,12,-68,-87,20,86,264,-35
-15,138,77,59,0,15,71,162,324,-110
34,34,30,34,-29,-10,36,228,486,99
254,83,39,5,-76,-82,-1,127,318,244
425,203,103,8,-79,-83,-30,-66,-111,190
372,181,96,5,-75,-66,-64,-137,-234,137
216,144,4,-15,-26,5,-27,-82,-149,84
-143,-56,-124,-52,73,95,35,-34,-102,-134
-483,-88,-122,-31,111,155,75,-8,-88,-395
-583,-133,-50,20,126,190,133,50,-84,-347
-146,-207,-41,-8,39,82,86,25,-87,-81
71,-154,-12,-35,-36,-4,-16,-27,-100,17
-30,-127,22,12,-5,-3,-31,-43,-68,-8
-1,-87,43,-12,-91,-113,-38,0,1,46
-46,-98,30,-79,-169,-203,-52,36,60,108
119,39,66,-8,-69,-109,-21,25,104,159
180,212,110,53,26,-28,16,14,126,134
-12,117,43,23,42,37,-5,47,-31,51
-47,-126,-125,-7,112,99,5,67,-32,40
-130,-355,-278,-96,83,100,44,26,-34,-3
-253,-265,-192,-76,49,103,88,6,-87,-101
-102,-49,-40,-7,26,61,66,5,-74,-82
0,178,42,8,-35,-69,-47,-31,-8,12
89,203,88,19,-61,-142,-84,-45,103,93
90,154,114,47,1,-85,-150,-140,-154,-39
29,13,31,54,70,27,-67,-85,-198,-91
10,-30,12,37,62,96,38,55,-12,-35
2,-11,12,27,43,85,34,13,-2,-22
-18,11,7,-3,-10,-7,-24,-15,24,-56
74,71,1,-40,-65,-39,-6,85,150,-49
220,141,23,-33,-74,-35,64,141,216,51
275,171,68,0,-67,-69,21,33,29,110
116,38,59,15,-25,-56,-37,-35,-75,120
-56,-110,-5,-5,-48,-104,-58,-5,57,164
-42,-86,-12,-18,-77,-132,-95,-2,85,143
-229,-202,-47,-4,-16,0,-31,-3,2,-37
-118,-105,-50,-4,55,90,40,-20,-62,-89
40,89,-11,0,66,140,83,-45,-72,-97
-90,24,-14,0,70,144,145,-32,28,-94
-101,-14,-11,-18,3,76,105,13,57,-47
-78,-1,23,33,26,32,-32,-24,-123,-101
20,10,6,21,-17,-28,-103,-74,-171,-58
83,41,6,-16,-91,-108,-107,-64,-90,15
-20,36,42,25,-8,-48,-76,-59,-55,10
-18,3,23,8,-12,-74,-55,-16,16,71
66,38,-16,-47,-56,-49,5,19,67,108
128,98,13,-9,-8,50,53,-6,33,94
157,87,37,30,16,45,35,1,39,57
48,20,22,42,26,42,33,11,77,-11
-143,-91,12,33,55,81,61,-9,21,-117
-151,-154,-43,-17,33,88,94,33,11,-138
0,-63,-66,-76,-93,-51,64,84,124,15
18,37,-50,-64,-103,-94,27,76,175,94
-9,88,30,48,24,-26,7,3,105,35
53,70,48,49,34,-42,-78,-106,-83,32
120,33,12,-8,-39,-84,-96,-76,-99,146
110,23,3,-5,-18,-23,-35,-10,-22,138
8,-30,-23,8,46,54,28,16,5,13
-94,-68,-17,47,95,79,55,14,5,-138
-123,-40,0,40,65,54,37,9,-34,-248
-51,37,30,26,37,26,18,20,-13,-191
79,19,-6,-13,21,25,13,-3,10,25
126,-57,-59,-25,33,73,-24,-43,-160,99
119,-81,-60,-13,35,96,1,-34,-146,164
73,-40,-13,18,44,60,18,-42,-103,178
90,58,59,60,25,-18,-31,-51,-93,125
153,127,66,17,-51,-113,-52,8,36,118
5,39,-2,-33,-88,-134,-29,93,201,19
-257,-40,-42,-45,-82,-126,19,125,238,-170
-280,5,5,-4,15,21,58,128,104,-279
-94,100,90,47,56,6,-3,27,-8,-205
-102,78,112,77,46,-26,-41,-50,-88,-183
-220,-28,19,29,50,35,-11,-46,-141,-192
-275,-128,-60,-32,0,0,-42,-81,-156,-159
-77,-153,-111,-53,-26,-16,-35,-33,-20,29
175,-39,-85,-63,-42,-27,56,41,152,234
226,15,-69,-80,-76,-52,62,47,143,253
100,3,-37,-61,-72,-41,-52,-24,-135,160
-16,8,4,-20,-1,27,-57,-87,-236,144
-28,-2,-5,9,71,144,6,-79,-206,94
5,21,7,27,78,153,43,-33,-126,-28
-33,34,31,46,71,108,44,-9,-66,-215
-113,19,39,46,49,42,53,62,138,-325
-116,-32,11,28,30,-20,70,194,448,-133
33,-78,-54,-37,-57,-77,16,229,404,152
164,0,-72,-70,-126,-167,-50,41,53,172
243,25,-47,-47,-104,-123,-65,-69,-86,131
169,-96,-35,1,-38,-23,-42,-49,-74,65
-38,-88,32,54,7,-23,-82,-97,-146,-82
-79,10,60,62,73,51,-42,-112,-183,-93
10,44,31,29,116,128,64,-57,-107,36
57,60,19,1,30,65,61,3,-51,91
35,64,28,6,-10,7,4,22,-15,13
75,87,37,-3,-50,-45,-50,1,53,-15
21,89,45,-25,-63,-66,-29,67,215,13
-133,33,37,-14,-54,-66,24,106,267,-10
-38,6,15,-7,-41,-74,14,58,120,-11
104,-31,-13,-8,2,-7,19,-32,-42,44
95,-37,-13,39,106,93,88,-82,-36,63
29,3,3,31,64,43,32,-72,-66,29
13,54,-3,-38,-41,-25,-108,-70,-181,-36
-6,73,-1,-47,-40,4,-89,-50,-156,-35
-205,-9,20,-11,25,55,18,-8,-80,-35
-239,-17,41,10,35,71,82,36,-34,41
198,75,24,-16,-44,-18,47,61,51,217
391,9,-64,-76,-96,-96,-2,71,139,217
225,-10,-85,-13,19,-9,-3,25,80,42
-91,35,-32,74,155,93,-28,-66,-94,-242
-407,77,10,51,71,39,-32,-49,-91,-416
-522,-46,33,22,-16,17,4,0,-55,-348
-204,-262,20,20,-38,-31,-21,-49,-72,-95
-159,-428,-33,44,11,24,39,13,21,30
-265,-281,-38,32,23,75,133,96,116,-5
74,91,6,-69,-109,-67,93,75,169,117
428,273,0,-122,-174,-134,-46,0,13,189
496,384,74,-62,-131,-73,-87,-33,-74,190
314,301,150,49,-12,-53,-100,-85,-106,69
7,30,96,94,63,-13,-56,-60,-99,-72
-266,-290,-79,21,64,37,45,40,42,-84
-332,-367,-184,-28,100,86,68,31,64,-107
-11,-111,-146,-59,94,57,46,18,160,39
203,116,-26,-23,29,43,-2,43,113,107
216,113,19,-7,-19,62,8,13,-55,53
121,58,19,26,-16,73,14,-19,-121,1
-69,7,25,62,41,58,3,-32,-105,-25
-112,37,40,44,15,-47,-56,-57,-64,-21
-170,-15,6,0,-18,-71,-88,-66,-74,-69
-208,-88,-29,-34,-17,-53,-34,0,-8,-46
-70,-47,-33,-33,0,-61,-9,58,122,46
75,3,-17,-37,-26,-68,-50,27,54,30
96,23,22,-4,-17,-45,-64,-30,-44,13
76,49,58,17,-25,-43,-46,-32,-38,15
89,53,53,8,-58,-34,-9,34,85,60
62,-6,20,12,-21,23,28,61,150,108
98,49,22,-3,-45,-4,13,-16,-1,48
275,169,64,4,-38,-67,12,-3,121,111
367,224,110,67,29,-24,33,34,150,139
267,167,82,42,12,26,-28,-15,-102,42
81,10,17,40,47,87,0,-31,-133,-11
-213,-205,-27,41,95,119,76,36,-26,-51
-424,-375,-102,-6,66,105,95,74,20,-130
-486,-280,-101,-26,38,65,49,7,-95,-300
-456,-171,-53,-26,-9,12,6,-56,-124,-269
-188,-13,-55,-75,-130,-118,-54,-90,-63,-40
-54,118,-27,-114,-205,-201,-118,-17,-15,68
-98,156,17,-40,-98,-98,-22,74,54,23
143,150,37,36,6,6,20,58,64,25
267,68,44,52,20,15,17,40,102,72
121,6,45,34,28,15,7,28,77,-21
40,-17,19,34,50,16,19,-33,-32,-73
69,0,0,26,38,24,53,-70,-27,68
118,0,-22,-8,36,33,-10,-60,-48,209
35,-57,-43,-22,71,94,14,-17,-58,115
-1,-75,-32,-15,62,68,39,13,2,-14
21,13,9,-6,-4,-15,-18,-1,50,-84
5,43,12,-6,-29,-63,-49,0,78,-115
-47,9,-6,11,47,69,18,20,32,-186
-73,43,5,35,78,147,71,-13,-9,-116
37,127,43,47,19,54,92,-42,62,96
95,65,23,4,-39,0,31,-26,26,144
152,-7,-16,-64,-96,-36,-57,13,-47,133
157,40,4,-52,-109,-127,-82,18,-28,98
55,43,16,-19,-104,-192,-82,48,52,58
-24,-7,20,23,-31,-120,-47,35,74,29
-27,-42,36,69,64,4,23,31,67,44
-152,-166,-38,47,85,62,52,23,54,-22
-254,-179,-56,7,44,23,-14,-41,-48,-96
-77,-36,9,6,36,29,-8,-64,-90,-20
34,7,-15,-2,46,66,27,-2,-24,45
-37,2,-24,3,49,84,69,65,50,23
-85,3,-4,41,50,55,51,36,-5,-90
66,60,-17,12,9,-18,27,41,27,-94
272,156,-16,-19,-12,-14,37,45,102,27
153,114,15,-4,-14,-18,5,-2,51,43
-120,91,82,8,-50,-74,-103,-101,-126,-113
-228,13,48,-7,-32,-38,-50,-58,-81,-138
-175,-23,-29,-17,14,57,42,12,1,-78
-108,-23,-52,-27,16,69,22,22,19,-17
-12,-11,-20,-5,19,44,0,7,27,28
67,0,4,4,22,26,-8,-48,-72,-10
84,-144,-52,-19,43,32,13,-37,-45,11
49,-173,-35,13,76,43,13,-34,-72,-8
-81,-57,27,14,11,-14,-31,-29,-149,-44
-22,105,55,-15,-61,-55,-58,-37,-87,10
168,202,69,4,-8,-4,-58,-68,-77,-22
353,116,35,7,6,-21,-56,-28,74,149
422,-57,-29,-35,-35,-62,-27,60,215,405
176,-198,-85,-56,-21,-42,37,55,149,366
-73,-148,-39,-20,2,9,43,14,16,182
-236,-112,-32,21,66,94,52,28,-62,-54
-381,5,9,55,84,95,38,-4,-92,-381
-604,114,48,62,37,68,64,64,31,-575
-375,181,57,16,-29,29,81,118,195,-369
36,129,43,-41,-102,-42,25,71,176,2
159,-67,-25,-76,-109,-47,15,27,74,175
129,-191,-72,-31,-10,19,121,62,167,224
41,-170,-71,-11,-14,-19,57,22,54,95
100,0,-13,-24,-105,-108,-89,-37,-158,-25
261,160,41,-12,-94,-80,-78,-53,-164,46
143,141,76,47,0,-31,-59,-73,-148,107
78,64,39,59,63,-13,-47,-61,-57,127
46,-2,-5,27,69,18,-23,-43,-39,65
-22,-15,-11,27,67,76,28,-21,-10,-27
-61,-28,-22,-6,4,29,33,40,68,-95
-115,-68,-26,-32,-16,18,-23,96,112,-164
-78,-15,-16,-42,-31,20,-20,81,138,-89
5,54,4,-11,-42,-5,-25,-39,-62,8
18,39,26,0,-23,-42,-51,-112,-176,79
38,-2,0,0,-14,-75,-83,-112,-143,98
48,-25,-36,3,5,-18,-35,-74,-99,15
2,-18,8,33,63,49,-6,-96,-98,-101
10,30,31,6,50,43,-31,-66,-44,-76
70,130,44,-32,-3,-1,-32,11,68,-5
41,177,57,-18,-8,-11,11,68,91,-15
-48,96,40,13,18,7,46,80,67,-10
-110,-61,8,0,3,-32,12,69,56,28
-136,-287,-82,-18,-11,-33,31,118,110,23
78,-271,-122,-39,-62,-38,78,150,223,141
328,36,-21,-24,-109,-102,63,85,216,248
386,147,33,19,-18,-8,4,-6,7,219
297,98,56,53,62,51,-27,-47,-145,94
71,27,68,63,112,51,-49,-84,-161,-39
-211,-73,-8,38,119,113,-7,-56,-95,-132
-423,-94,-46,13,97,137,47,-17,-26,-198
-568,-91,-37,39,116,164,64,-30,-20,-267
-503,-38,0,56,76,100,21,-70,-76,-288
-116,29,36,-14,-52,-32,-29,-59,-112,-123
300,67,0,-57,-107,-125,-70,-5,-17,88
279,56,-35,-86,-129,-129,-16,62,48,128
119,64,-14,-53,-105,-107,-22,48,62,87
5,-51,-24,-23,-60,-117,-40,26,78,70
50,0,29,6,-24,-72,-30,38,101,105
139,150,116,56,-17,-66,-25,-3,75,172
112,137,98,53,2,-37,-18,-33,56,164
44,51,30,8,15,19,-21,-38,-55,28
15,-24,-18,-14,4,61,-3,-32,-93,-54
21,-70,-30,-19,3,61,39,-22,-64,-84
34,-40,-24,-21,9,53,59,0,-24,-106
-84,-34,-41,-31,13,62,45,54,59,-91
-231,-87,-52,6,87,109,49,33,51,-64
-120,11,-3,58,129,137,86,-19,75,39
62,143,35,52,94,87,15,-37,-28,43
118,-28,-48,4,67,58,-49,-38,-127,-5
148,-58,-73,-31,10,0,-16,-14,-57,13
226,-6,-36,-43,-48,-77,-35,0,27,80
223,-37,-54,-70,-98,-147,-81,-8,47,72
153,-47,-9,-77,-134,-197,-81,-7,31,78
78,-62,20,-55,-115,-127,-30,17,51,101
-229,-26,68,23,-24,-8,15,40,13,-10
-553,32,120,92,9,11,31,53,-11,-171
-432,31,109,89,9,19,19,34,-7,-167
-89,28,49,44,13,43,21,4,-9,-106
114,109,1,6,26,48,23,-23,14,-60
247,96,-23,-13,35,38,-9,-23,63,45
116,-119,-102,-14,50,64,41,21,89,60
-96,-224,-113,11,75,92,144,62,205,94
-171,-136,-63,1,61,78,74,33,82,10
-182,49,17,-24,-10,-11,-64,-58,-159,-137
-112,93,34,-2,4,-23,-57,-16,-95,-115
-87,17,50,58,74,-17,-49,-27,-87,-116
-39,39,61,31,9,-69,-77,-70,-128,-121
62,18,8,-24,-51,-62,-34,-18,-91,-33
151,33,9,8,-41,-41,15,-14,29,68
196,50,9,3,-59,-73,-21,-20,65,113
151,15,-63,-40,-69,-43,-42,6,-2,84
94,6,-96,-56,-31,15,17,27,17,110
72,65,-39,-13,-4,41,44,34,8,109
86,48,18,-10,-21,7,41,34,0,76
22,-88,13,-13,1,7,37,21,2,12
-50,-115,4,31,53,59,32,28,25,-59
-46,-22,2,36,73,55,26,36,93,-75
-58,-8,-4,-14,21,13,17,14,10,-72
-69,-29,-32,10,164,98,21,-64,-57,-67
-24,-13,-44,42,263,152,11,-65,56,11
-3,4,-5,9,86,65,18,-12,61,14
16,25,27,4,-78,-10,1,-16,-51,-4
1,34,45,17,-113,-36,-30,-39,-157,-61
21,38,10,-11,-98,-73,0,61,101,-6
27,1,-31,-47,-150,-115,-15,175,338,128
26,8,-25,-51,-172,-153,-2,131,183,94
56,87,34,-44,-151,-128,31,47,42,85
49,114,113,27,-63,-43,-22,-36,-101,44
16,59,108,89,44,-3,-53,-97,-189,-19
-3,26,60,50,32,12,-27,-68,-148,-48
-54,-27,-15,-27,5,45,43,-15,-45,-72
-72,-61,-43,-26,62,98,108,23,70,-70
-24,-52,-32,-23,44,62,25,-29,-86,-24
37,-40,-37,-30,-14,-33,-59,-42,-137,49
74,-20,-39,-30,-17,-97,-85,-20,-34,91
177,8,-36,-58,-51,-84,-52,6,19,176
206,14,-23,-38,-45,-25,-17,2,3,189
160,31,0,-7,-21,-7,-29,-2,0,138
147,108,77,40,12,-31,-56,-64,12,34
44,80,72,62,55,28,-55,-81,-92,-105
-177,-10,-18,32,61,82,11,-2,-121,-222
-527,-18,-58,2,29,67,71,73,10,-229
-437,-79,-58,0,31,49,42,-8,-64,-164
-50,-103,-47,11,30,10,0,-54,-94,-54
15,-77,-25,-1,29,20,-1,-3,-16,-14
-11,-69,9,0,23,32,57,42,89,-15
-66,-19,22,25,18,24,107,60,221,-65
-116,-62,-5,35,43,50,100,55,130,-107
-42,-153,-49,4,39,47,68,34,-9,-63
38,-98,-47,-30,-12,13,-32,-20,-174,-11
111,30,-16,-36,-34,-16,-95,-60,-180,35
130,119,25,-13,-46,-39,-104,-74,-101,90
76,122,35,-23,-58,-45,-84,-43,-45,72
21,77,26,-7,-27,-15,29,12,105,39
42,28,15,-2,-15,21,81,50,141,58
70,-23,2,-21,-24,15,-1,39,-34,25
39,-61,0,-11,-10,-1,-39,-9,-69,-3
30,-34,-9,-18,-17,-18,-29,-11,-31,10
47,10,-22,-22,-27,-12,-25,25,40,59
46,43,1,-14,-33,-37,-37,16,66,78
59,55,12,-18,-36,-44,-5,15,71,80
106,86,18,5,-2,-22,74,10,123,152
55,32,14,29,46,24,13,-14,-36,48
-38,-58,-34,34,106,97,-27,-52,-166,-103
-33,-27,-37,9,83,86,-6,-55,-152,-147
-135,-7,2,29,55,68,-16,-72,-151,-237
-291,-105,-35,40,81,110,14,-20,-54,-282
-304,-230,-67,25,102,160,52,0,-2,-185
-128,-153,-49,6,48,85,80,-11,41,-9
154,-4,-25,-58,-84,-77,6,58,163,215
245,82,30,-4,-66,-94,-46,76,104,211
189,141,83,32,-13,-47,-21,22,-13,121
104,139,94,11,-70,-149,-56,-10,-31,15
28,77,48,-35,-159,-207,-50,36,50,6
0,86,55,-14,-119,-95,-12,28,36,24
5,109,107,48,-10,18,-3,19,39,-3
96,104,91,27,-39,-36,-14,58,122,108
90,39,8,-26,-49,-48,-41,-44,-28,72
39,-6,-28,1,33,-18,-62,-125,-148,22
69,-64,-68,-22,13,-4,-7,23,86,175
117,-73,-83,-30,-13,0,43,87,144,187
-12,-76,-62,-9,8,-21,5,-36,-71,-24
-191,-41,6,14,17,25,16,-52,-129,-213
-239,61,127,97,82,92,48,-32,-27,-337
-176,-5,92,88,123,50,-15,53,201,-207
-10,-74,-22,-13,74,15,-31,118,287,99
37,-89,-63,-41,43,54,32,64,98,131
57,30,-47,-4,28,79,27,-21,-118,-2
-21,123,-28,-15,-40,24,15,0,-119,-100
-11,112,2,-55,-121,-86,-40,-37,-117,-120
1,-4,-4,-46,-131,-171,-100,-97,-117,-72
-49,-203,-78,-68,-127,-110,-24,10,18,62
-165,-199,-45,-52,-72,25,80,127,42,90
-87,-74,61,51,32,74,83,86,53,75
113,24,38,45,33,-17,-32,-17,20,72
138,115,11,-4,-22,-76,-85,-40,-30,-40
-37,78,34,-5,-23,-62,-35,56,128,-77
-73,-14,-21,-32,-13,4,53,97,189,6
22,-14,-52,-41,14,20,91,-15,73,93
88,30,-6,32,76,48,53,-95,-26,100
77,30,26,58,82,63,-55,-106,-198,23
63,35,-8,19,56,101,-46,-52,-200,16
27,-9,-22,-2,91,168,19,-50,-129,24
-42,-32,-29,31,129,198,44,-98,-114,-63
-96,-78,-27,52,129,185,65,-55,-53,-139
6,-88,-21,42,84,99,79,13,68,-44
268,70,12,-33,-67,-124,26,-20,153,153
421,248,101,-86,-214,-314,-195,-140,-92,133
314,223,55,-93,-233,-305,-170,-48,-116,93
154,65,-52,-77,-146,-174,-12,131,135,191
115,73,14,36,-12,-68,33,191,309,223
-329,-108,64,126,85,37,36,115,181,15
-756,-361,4,133,111,75,55,17,1,-286
-711,-376,-86,68,107,45,74,9,64,-394
-375,-125,-69,-4,36,45,80,99,157,-290
146,246,59,-4,9,52,24,28,0,-154
160,176,54,45,94,145,50,-26,-181,-141
79,-50,-33,25,87,142,66,10,-120,-25
128,-39,-58,-24,-24,-7,-42,-47,-72,134
64,-23,-51,-58,-68,-13,-69,-99,-129,103
70,29,-4,-42,-16,26,9,-91,-83,42
73,94,36,22,44,12,65,-53,56,1
7,73,42,28,59,-2,-25,19,72,-49
-19,27,34,-7,-14,-28,-63,20,5,-33
22,-31,-26,-76,-145,-114,-60,-15,-72,70
50,-39,-53,-90,-125,-105,-21,14,-38,103
96,-39,-58,-69,-43,-35,22,54,91,143
164,34,4,-31,-55,-41,32,23,74,229
164,78,50,4,-55,-57,-12,-34,-40,230
53,50,57,47,20,-16,-54,-105,-143,50
-31,40,70,69,78,15,-45,-102,-131,-155
-56,18,50,36,46,27,-6,-20,-2,-217
-74,-49,-7,-8,-14,4,2,80,201,-125
-101,-22,-1,20,72,61,53,144,289,-138
-90,0,12,32,75,81,78,140,118,-77
-29,-41,-38,-29,-11,16,51,33,-90,59
48,-4,-48,-55,-24,-14,-1,-55,-135,114
65,-34,-17,-37,-42,-21,-81,-92,-231,125
32,-37,-7,-22,-41,-14,-78,-85,-185,120
-11,-9,-31,-12,-6,17,-33,-56,-123,25
-11,37,-23,3,11,34,-6,-22,-47,-56
40,7,-30,17,39,25,-13,-6,88,-1
-4,-92,-83,6,83,38,-28,-6,142,10
-81,-223,-88,23,137,103,78,53,204,0
-34,-173,-40,51,191,131,128,70,127,5
-16,-31,-11,2,65,64,41,13,-117,-63
-100,156,38,-25,-84,4,-21,-21,-206,-158
-99,180,46,-19,-94,-6,-28,3,-114,-165
2,32,0,-41,-97,-46,-18,29,-38,-85
-52,-86,-21,-63,-157,-128,-37,25,0,24
99,15,21,-48,-184,-164,-24,30,72,165
240,122,73,-17,-158,-157,-44,51,105,261
90,86,53,11,-5,-49,-40,6,-8,100
-51,17,41,43,80,1,-28,-45,-93,-36
-4,1,50,49,48,-7,-45,-59,-87,-26
29,-2,27,16,-4,-4,-28,-45,-73,-15
-71,-39,-4,11,-1,37,18,-3,-47,-64
-135,-87,-46,0,14,43,66,60,39,-78
67,-9,-25,-57,-79,-108,67,108,254,99
263,55,-1,-60,-124,-146,-12,82,156,163
220,69,48,38,23,31,-28,-16,-35,72
90,80,48,62,90,61,-28,-35,-30,5
-15,19,9,19,57,21,-22,2,16,-13
-159,-58,-25,-21,46,58,3,-31,-60,-84
-273,-98,-35,4,84,73,-20,-102,-133,-134
-242,-83,-32,28,111,24,-26,-131,-102,-97
25,-2,-39,-10,32,-30,29,-40,49,61
363,26,-57,-74,-71,-60,-17,26,-29,144
365,35,-7,-37,-45,-14,-11,30,-60,84
-10,62,72,56,40,49,13,18,-15,-68
-497,35,121,94,77,49,2,23,13,-250
-557,-8,110,97,73,7,-7,13,16,-262
-186,-14,14,-3,-3,-16,5,29,130,-62
9,-31,-31,-38,-39,-3,34,29,141,49
88,-115,-83,-76,-69,-38,18,20,59,122
227,-32,-71,-86,-95,-87,-38,-15,29,158
204,56,-4,-19,-19,-27,-21,-19,1,79
73,13,-3,39,70,55,13,-6,-50,-21
13,18,25,71,85,53,-8,-53,-96,-58
-23,7,-7,39,92,76,-4,-73,-55,-31
-39,50,-33,0,68,54,20,-51,56,27
-78,94,-7,-7,8,12,51,-28,112,4
-90,16,12,7,-14,47,-21,-21,-62,-112
-7,5,24,11,0,53,-2,21,-2,-72
36,-30,-18,-24,-28,18,50,53,46,28
72,-15,-66,-63,-78,-56,39,74,98,73
142,62,-19,-54,-122,-105,8,66,127,104
135,104,53,-11,-126,-59,36,52,42,116
98,81,74,57,-30,-25,40,26,57,92
30,-42,49,48,14,-18,-44,-22,-19,23
-64,-166,8,36,38,22,-25,-16,-37,-20
-124,-163,-23,29,53,41,-9,-17,-51,-57
-58,-94,-32,3,42,28,31,-2,-21,-51
-39,-48,-53,-20,33,67,62,21,0,-42
15,30,-30,-22,35,59,28,-2,-42,-10
125,152,27,-4,23,0,-14,-67,-107,99
131,164,71,7,14,-23,-55,-111,-131,170
55,44,27,-19,-14,-19,-61,-99,-123,93
76,-42,-22,-49,-60,-21,-5,-7,-24,58
67,-103,-23,3,62,90,68,20,-8,-70
46,-80,-22,21,103,116,56,6,-6,-192
15,-43,-68,-26,20,0,-2,42,79,-63
-251,-113,-74,-24,55,-4,-15,37,62,47
-284,-74,3,39,95,-12,32,-8,102,102
-92,40,86,80,43,-45,-2,-56,62,3
-133,84,67,26,-86,-115,-83,-6,5,-227
-147,82,17,-12,-119,-111,-55,144,256,-214
4,28,-32,-8,-12,79,42,128,226,-136
174,36,-14,7,34,115,47,72,131,-17
101,5,13,10,13,28,7,31,7,-45
-65,-55,-37,-30,-32,15,47,-3,-93,-31
-176,-20,-51,-28,-46,0,58,9,-81,47
-46,105,-9,-22,-68,-46,16,6,-94,127
171,146,9,-56,-169,-210,-100,-18,-45,225
189,58,15,-68,-199,-295,-153,-31,-8,196
103,-73,-6,-36,-95,-119,-24,30,23,115
11,-75,34,31,1,9,45,45,29,36
-1,-16,46,67,85,37,17,-30,14,-47
-87,41,39,59,77,34,-10,-111,-42,-109
-93,6,-6,20,61,107,-22,-90,-141,-124
-123,-90,-40,19,102,178,65,-23,-84,-76
-53,-60,-39,1,79,136,32,-55,-110,-33
49,-43,-15,-11,46,65,-12,-47,-109,-19
72,-27,-23,-22,-1,1,-2,5,-42,-32
27,-4,-44,-45,-50,-38,-25,23,31,-30
40,35,-23,-29,-49,-50,25,60,189,59
113,84,44,13,-3,-27,47,41,231,155
84,90,112,31,-15,-23,-64,-12,-11,90
-32,20,64,46,10,-6,-46,-9,-52,14
-149,-69,-28,16,71,35,-10,-23,-82,-75
-31,-58,-63,-2,59,48,27,-8,-83,-70
131,36,-22,13,57,45,15,-11,-82,-83
90,39,-5,16,49,65,28,18,-24,-73
-1,22,-5,5,0,33,34,11,2,4
-63,14,-9,-37,-57,-25,-14,-16,-20,41
-131,-60,-43,-73,-99,-54,-20,8,12,46
-218,-151,-58,-49,-84,-68,-1,25,21,26
-54,-34,20,26,-33,-63,-8,-14,-68,-11
90,47,41,21,-4,-12,5,-26,-97,-47
59,47,51,33,71,86,12,-42,-95,-79
27,40,56,69,120,101,8,-51,-27,-94
38,6,2,22,68,74,46,16,69,-40
23,-72,-63,-43,31,68,51,55,-39,-23
-9,-75,-76,-25,53,90,35,5,-94,-9
9,-35,-61,-40,8,5,-22,5,-38,40
44,-18,-44,-76,-78,-111,-31,63,63,100
93,48,10,-43,-86,-120,-27,68,57,90
158,98,71,11,-36,-89,-46,3,43,130
147,90,92,42,-43,-167,-110,-46,67,145
51,21,34,-42,-113,-188,-143,-49,-47,46
43,7,-7,-75,-158,-149,-71,12,-33,41
64,52,17,-26,-111,-28,25,39,-30,75
23,65,47,40,-6,51,22,6,-54,75
-114,20,28,78,106,77,35,-14,-36,12
-178,-23,0,59,134,108,75,-13,-30,-95
-84,-17,28,54,92,91,66,-44,-89,-178
-89,-76,-25,16,82,94,28,-45,-115,-218
-71,-114,-72,-17,109,55,-19,-16,-6,-134
-48,-114,-75,2,94,38,-16,29,61,-28
-106,-75,-17,75,84,9,-34,6,101,-30
-106,-22,14,46,12,6,-54,-115,-132,-85
9,-11,-31,-67,-133,-50,-7,-59,-121,-3
87,6,-15,-91,-191,-132,19,47,100,49
210,55,21,-56,-179,-159,40,105,262,169
275,100,14,-65,-172,-99,38,120,242,303
207,51,-32,-91,-161,-62,-26,109,80,173
88,40,-11,-30,-41,0,-21,97,108,53
59,120,79,66,59,58,-26,61,104,80
-82,29,85,80,83,37,-37,-5,-74,-28
-223,-46,47,64,90,26,-29,-70,-181,-165
-258,-25,19,70,123,84,23,-107,-212,-233
-269,-57,-5,51,108,95,18,-99,-225,-225
-108,-103,-51,-9,40,81,14,-34,-115,-82
50,-44,-53,-31,-3,72,48,27,26,-7
178,98,2,-29,-13,33,17,-5,-16,-70
157,167,39,-20,-23,-38,-41,-10,-14,-72
17,77,41,3,-16,-40,-18,24,28,3
-48,-23,15,15,21,0,9,3,-34,56
-52,-130,-41,1,15,-10,21,2,-3,124
-81,-184,-99,-63,-40,-49,-34,-13,2,121
-45,-117,-82,-61,-13,-25,-28,-11,32,75
68,-21,-10,9,64,31,-15,-20,15,26
142,139,82,67,98,61,-8,-67,-81,-19
40,124,72,39,88,79,7,-56,-114,-74
-202,-77,-32,-16,50,85,59,-16,-93,-148
-102,-210,-145,-42,-12,49,116,21,60,-62
32,-256,-173,-59,-57,-54,101,61,219,54
9,-201,-134,-108,-169,-144,-24,55,52,76
5,25,-42,-109,-184,-165,-99,53,-25,62
-20,210,109,29,-54,-71,-52,65,37,75
-8,284,195,131,70,0,-45,-20,-47,-14
25,181,166,132,96,6,-71,-118,-156,-101
65,16,27,39,51,21,-7,-31,-11,34
15,-63,-19,6,56,68,33,15,37,103
-114,-149,-50,0,121,111,19,-9,-33,29
-135,-128,-81,-46,55,62,30,44,32,-15
34,-69,-86,-71,-25,-6,27,38,26,0
69,73,-3,-66,-73,-104,-18,-26,-48,-87
45,107,51,-35,-55,-105,-37,-19,-23,-87
207,52,14,-13,-40,-49,-3,26,95,151
305,79,57,17,-69,-73,7,47,157,254
206,56,57,-1,-103,-77,18,40,111,197
130,-11,0,-36,-66,-3,-1,-13,-71,91
83,3,0,-5,14,51,-13,-56,-134,35
-45,101,17,22,14,38,-13,-25,-42,-16
-307,117,44,38,16,29,15,9,5,-138
-460,-28,14,33,63,73,37,8,-33,-280
-279,-117,-2,33,85,63,13,-29,-60,-260
-204,-182,-15,19,45,13,29,23,7,-142
-58,-159,-42,-20,-31,-44,-20,37,-27,-31
183,1,-8,-15,-37,-69,-48,9,-56,100
244,71,46,57,23,-21,-39,-10,-45,146
149,-1,36,50,19,-23,-59,-43,-35,48
-25,2,5,1,-35,-45,-50,2,150,-30
-102,32,-19,-4,14,28,55,116,307,-83
-11,69,-28,-8,29,73,102,130,242,-71
-25,81,-23,1,38,76,54,48,39,-108
-120,-23,0,9,63,69,6,-8,-53,-82
-21,-54,2,34,93,83,24,-32,-120,-16
82,-15,-6,37,122,84,-16,-117,-241,55
36,18,12,35,123,55,-49,-156,-268,56
60,109,15,5,38,-20,-87,-129,-167,72
70,76,-43,-29,23,-34,-43,-37,54,107
-6,-128,-128,-63,-25,-6,63,53,269,118
-6,-210,-101,-63,-86,5,58,74,171,62
56,-117,-18,-61,-153,-19,2,93,-2,15
-8,-12,37,-37,-142,-5,22,86,-10,2
-91,111,128,23,-71,9,17,1,-109,-152
18,160,120,31,-38,-63,-55,-63,-138,-177
89,98,33,-16,-48,-157,-90,-15,42,-27
72,89,-4,-15,-26,-119,-16,81,280,141
40,45,-24,-8,-17,-55,-17,44,113,130
70,47,11,5,-61,-80,-36,24,37,176
72,44,27,14,-43,-26,3,38,66,182
23,-4,11,9,-11,37,43,-9,20,52
31,28,33,21,-8,22,52,-15,9,-43
-27,6,23,43,68,106,117,15,5,-140
-85,-103,-38,47,117,134,137,29,54,-125
-92,-157,-48,-4,26,69,77,-8,-42,-88
-55,-73,-10,-16,-9,-34,-48,-93,-139,-80
-1,20,15,-3,13,-68,-103,-148,-190,-37
53,95,0,-24,-6,-33,-54,-91,-111,55
88,80,-15,-16,-19,-43,-20,11,2,171
93,-29,-36,-29,-28,-50,0,73,63,222
14,-143,-78,-5,41,7,12,19,52,123
-57,-119,-27,107,203,128,50,-37,69,5
16,-14,36,102,140,129,55,-12,89,-50
-2,100,62,31,12,76,-50,10,-61,-218
-140,142,59,-7,-63,49,-36,35,-63,-244
-131,146,89,5,-64,16,5,1,-104,-178
-51,34,37,-18,-66,-46,-60,-51,-128,-21
-86,-136,-63,-72,-112,-143,-66,-13,-33,18
-35,-169,-95,-95,-123,-160,-10,31,60,-47
103,-67,-42,-1,-2,-25,29,31,63,-21
247,113,24,58,70,19,-37,-2,70,117
221,160,52,13,1,-57,-84,-33,57,131
46,-90,-24,-34,-45,-9,-27,-17,-20,81
-62,-232,-65,-30,-25,36,33,27,24,73
-133,-146,-47,-31,-14,15,38,16,17,-6
-290,-35,-26,-32,-30,-5,58,76,107,-55
-346,22,14,17,37,74,162,155,268,-66
-53,103,76,72,89,116,101,87,154,-18
169,94,90,61,32,20,-59,-54,-125,15
202,57,40,35,-5,-47,-105,-129,-223,32
217,57,-12,0,-27,-37,-77,-112,-168,44
113,-22,-50,-25,-34,-1,-19,-53,-84,27
-30,-34,-35,-1,10,-5,-14,-43,-60,-44
-72,10,-10,-1,15,23,-22,-37,0,-43
-47,49,18,-15,15,55,26,13,63,-13
-57,57,28,-8,18,41,-8,-9,-76,-46
-26,-1,3,-10,-14,26,11,-48,-185,-1
46,-53,-49,-67,-79,-46,14,-32,-151,172
97,-45,-77,-92,-89,-86,-9,-8,-62,256
173,-27,-56,-34,-31,-114,-53,-46,7,175
49,-21,-12,47,86,-17,-25,-63,45,-76
-226,11,40,70,120,122,97,74,216,-297
-451,28,117,82,45,33,44,137,239,-491
-362,-2,100,71,26,-11,16,163,202,-385
-93,52,22,11,15,12,35,83,17,-101
147,39,-42,-54,-31,-23,-11,-39,-111,140
199,-21,-103,-91,-6,-13,-22,-64,-154,164
110,-75,-105,-52,62,55,-18,-70,-98,151
37,-130,-33,24,99,64,-6,-51,37,172
50,-28,28,44,49,16,63,8,137,121
66,45,28,6,-56,-21,14,21,33,65
17,59,2,-15,-62,-23,-74,-28,-150,5
70,57,-13,-18,-87,-70,-65,-43,-131,6
122,0,-55,-76,-154,-118,-19,15,-50,-6
65,-76,-75,-108,-126,-57,14,63,54,49
94,-10,23,-8,-48,-10,21,19,16,68
32,58,103,99,17,13,14,16,5,13
64,80,85,66,-8,-1,5,57,65,134
162,178,87,41,18,0,-5,-14,29,166
39,122,67,40,89,70,-29,-108,-101,-51
-108,-14,43,18,91,68,-23,-56,-82,-217
-230,-179,-15,19,137,99,7,14,-4,-293
-238,-257,-116,-14,135,59,-26,-17,18,-269
-19,-106,-108,-61,35,19,-6,19,101,-72
161,-20,-94,-96,-96,-17,7,10,32,135
28,-76,-98,-73,-116,-53,-14,3,5,195
-136,-59,-35,18,48,103,96,57,-13,55
-93,5,52,91,164,209,139,97,20,14
39,62,87,65,44,48,47,56,38,43
33,70,77,-32,-171,-134,-7,58,51,45
-124,123,105,-16,-177,-154,-55,11,-1,-92
-205,93,105,75,4,-79,-39,-56,1,-168
-166,-10,14,20,4,-100,-35,-22,19,-103
0,-41,-38,-76,-135,-187,-83,-1,-56,-43
142,-26,-47,-66,-130,-159,-79,28,3,78
183,-16,-9,15,43,-1,-32,0,18,148
211,0,28,69,138,104,-18,-64,-75,154
258,53,24,9,35,24,-56,-87,-90,178
260,115,8,-72,-108,-84,-62,-45,18,277
121,77,-12,-55,-63,21,22,27,42,201
7,4,-5,10,23,98,80,43,-37,20
19,0,-12,2,11,36,45,-17,-80,-56
-64,31,15,1,-11,-5,15,-9,-46,-131
-153,39,56,18,1,-30,26,54,56,-207
-38,32,5,-1,9,-4,44,45,109,-194
-216,-81,-49,-2,40,27,90,67,132,-139
-309,-151,-17,56,86,42,133,70,179,-89
-63,-66,50,73,38,-1,-10,-18,38,-58
105,19,21,43,44,2,-91,-75,-161,-75
13,74,-24,-8,4,-25,-87,-86,-208,-75
-73,54,-35,-55,-16,3,-30,-38,-139,-42
-118,-77,-55,-30,22,41,24,-12,-103,-50
-106,-67,-33,-3,21,9,-3,-51,-117,-61
20,-23,-25,-9,4,10,12,-17,55,50
135,-41,-25,-31,-9,28,25,37,189,222
178,20,12,-18,-1,17,-19,-22,-43,189
228,29,-19,-37,-22,-7,-11,-34,-113,166
114,-31,-63,-53,-18,-7,-11,0,-63,105
-118,-7,-25,1,31,17,-25,-43,-143,-90
-90,84,23,14,0,-15,-32,-33,-61,-136
-9,62,15,-18,-66,-66,25,116,346,51
-14,47,19,-18,-47,-57,15,97,313,18
-127,-9,22,12,22,16,-29,-9,-11,-176
-257,-72,46,71,78,91,-12,-10,-54,-264
-154,-44,63,73,58,87,21,21,4,-122
22,-38,23,36,29,32,17,27,40,53
236,-27,-42,22,49,19,-22,-20,0,135
455,41,-81,-28,-35,-58,-59,-40,-23,213
316,137,-23,-16,-56,-36,31,-8,64,179
26,167,51,45,47,35,74,15,108,57
-270,-78,13,48,131,33,-55,-10,-97,-43
-597,-490,-176,-7,165,103,-22,-55,-199,-153
-403,-390,-213,-58,72,100,9,-52,-163,-191
10,-35,-99,-54,-51,0,-11,-79,-142,-134
155,119,9,-50,-111,-39,6,-27,-102,-81
129,133,53,-40,-126,-48,37,43,26,-40
46,123,63,17,-65,-80,48,65,175,33
100,182,80,-23,-105,-128,-45,69,87,83
178,179,80,-48,-164,-72,30,102,72,179
125,67,79,-1,-104,-24,43,75,59,184
105,48,105,50,-55,-53,-25,24,69,144
145,91,96,4,-88,-68,-46,6,62,126
170,90,48,-2,-57,-63,-76,-58,-19,41
63,8,-9,52,98,43,-21,-89,-78,-50
-120,-140,-72,11,57,90,71,11,-52,-54
-206,-204,-108,-13,75,100,88,60,7,-19
-118,-166,-93,2,122,143,64,13,-2,18
-9,-20,-24,3,71,106,13,-15,11,-3
-6,142,109,49,43,33,-70,-63,73,8
135,223,126,57,73,55,-38,-81,-1,40
286,96,-15,-20,33,42,62,-15,-4,79
311,-47,-80,-56,-9,-33,62,4,93,92
188,-159,-72,0,15,-61,6,8,27,67
-214,-223,-39,74,85,-25,-41,-23,-142,-181
-416,-61,29,68,-8,-149,-156,-77,-167,-290
-352,164,37,-27,-158,-225,-121,-1,-44,-194
-309,157,39,-45,-113,-74,13,98,40,-171
-219,10,77,36,-2,30,71,149,83,-136
-16,30,116,40,-42,-73,-7,87,82,42
40,-90,-5,-7,32,39,-31,-25,-5,124
-98,-196,-103,-1,138,159,1,-61,-72,79
-112,-90,-47,46,120,161,33,-38,-112,13
177,32,-4,4,38,160,78,-28,-78,80
391,87,-7,-38,-24,92,69,-20,-8,182
328,105,21,-46,-69,-21,23,9,30,86
265,108,56,-35,-63,-73,8,23,36,-16
131,90,41,0,16,0,76,32,125,62
29,-15,-57,-32,76,86,8,-33,-46,61
-171,-140,-147,-74,7,-26,-107,-80,-114,-46
-512,-179,-141,-58,-27,-88,-109,-108,-59,-185
-453,-60,-10,16,-40,-94,-86,-51,27,-167
-228,142,123,65,-36,-65,-30,26,88,-154
38,199,99,18,-80,-72,18,110,156,-158
238,183,47,-75,-216,-243,16,164,386,40
230,155,61,-54,-180,-161,0,130,152,27
138,-1,63,53,23,68,67,94,-21,59
73,-192,4,60,49,54,43,38,19,268
-5,-162,-22,15,13,18,-22,-58,-12,270
-111,-66,-26,-10,33,43,-54,-162,-169,33
-62,-78,-103,-1,183,190,-21,-183,-246,-121
-30,-118,-136,16,267,284,78,-131,-222,-200
-91,-96,-102,34,189,232,126,-18,-113,-242
-10,-49,-67,22,78,129,107,84,55,-82
161,56,2,-2,-35,-19,59,109,183,128
218,175,80,-18,-123,-124,-11,58,98,109
226,159,81,-37,-208,-222,-100,-21,31,126
207,103,50,-75,-263,-315,-152,-1,128,235
81,146,63,-58,-206,-199,-49,73,179,213
-7,219,104,26,-47,-40,61,79,253,159
22,188,113,90,53,-41,-65,-84,32,10
-12,64,90,90,49,-42,-174,-156,-224,-147
-110,-192,7,31,43,64,-40,-46,-166,-159
-109,-282,-39,36,108,155,83,5,-120,-117
-174,-236,-80,14,115,160,106,26,-59,-58
-277,-272,-151,-49,43,95,98,55,16,-17
-121,-118,-98,-39,22,56,90,18,32,-18
-125,26,8,15,58,54,77,11,47,-62
-68,51,8,-21,-1,0,-10,90,74,-20
-6,66,-20,0,39,18,1,73,74,-4
-49,18,-21,54,159,114,-9,-40,-101,-116
2,-2,-19,39,137,119,-4,-77,-165,-94
86,3,-23,8,86,79,26,-51,-90,13
67,20,-23,-10,70,89,62,12,40,45
-8,6,-1,-8,38,106,45,-42,-58,-22
16,-10,-1,-27,-37,-11,-16,-60,-118,31
130,-11,-40,-85,-156,-102,-1,54,5,209
134,18,-18,-66,-150,-118,-30,37,35,243
131,68,53,-14,-128,-169,-70,-2,42,178
160,122,75,-11,-183,-276,-123,14,154,158
84,113,88,-2,-167,-249,-127,0,173,9
236,98,112,68,-8,-9,9,42,146,-114
321,99,104,100,44,78,99,92,228,-39
96,80,76,22,-41,-58,13,48,120,10
-105,0,-25,-76,-65,-38,-50,-48,-117,6
-320,-130,-105,-81,-7,69,29,-50,-145,-8
-523,-176,-65,-20,63,87,39,-23,-79,-85
-535,-60,30,48,85,72,33,6,5,-191
-345,52,71,82,112,91,47,6,0,-348
-26,56,49,66,116,93,52,-11,-18,-288
210,13,-13,0,60,64,-20,-79,-122,-85
210,-85,-88,-61,10,61,-3,-101,-193,99
112,-161,-134,-64,29,113,42,-72,-168,194
81,-64,-92,-17,144,162,56,-56,-114,107
-1,-2,-35,28,173,143,53,22,101,-3
-89,32,25,74,102,68,1,52,247,-117
-50,93,78,98,7,-65,-65,38,345,-72
46,77,46,8,-166,-183,33,163,500,91
122,50,21,-76,-245,-206,-20,104,164,64
156,105,70,-32,-174,-176,-92,-6,-106,3
174,144,79,-6,-137,-157,-90,-30,-107,89
143,107,55,1,-60,-50,-49,-19,-48,136
81,39,21,34,74,86,15,-8,-26,113
22,64,37,57,113,127,52,-52,-96,20
-60,28,16,45,80,88,85,-31,-14,-9
-98,-72,-47,12,51,76,6,-20,-103,-85
-141,-169,-127,-4,89,154,9,-34,-166,-154
-146,-164,-140,-12,112,190,88,73,101,-29
-88,-138,-94,-10,72,119,76,70,104,49
-34,-61,-33,3,78,93,53,-2,-40,9
-21,3,10,21,74,30,5,-45,-96,-78
60,61,17,-2,-8,-101,-54,-72,-66,-61
201,97,20,-82,-176,-290,-142,-83,-34,40
368,110,21,-91,-213,-307,-127,44,70,176
351,92,52,-24,-112,-133,31,160,145,257
279,108,99,49,-41,-52,23,90,87,214
127,125,134,78,-22,-94,-91,-31,39,100
-171,76,127,102,30,-53,-82,-52,60,-11
-226,13,32,39,18,16,47,29,131,-17
-99,-3,-56,-53,-72,25,152,91,237,32
-139,-55,-48,-39,-33,58,39,-61,-58,-130
-15,3,0,5,-2,24,-138,-194,-329,-138
-120,-16,28,11,-37,-40,-111,-128,-218,-93
-486,-297,-103,-36,7,34,54,76,70,-141
-317,-271,-131,-13,69,138,181,188,170,-133
-70,-139,-71,20,108,142,160,144,120,-128
-70,-46,0,44,136,102,83,-10,40,-117
-138,82,27,-12,57,26,-16,-115,-21,-105
-96,133,-1,-66,-41,-33,-122,-149,-154,-140
28,87,-36,-55,-32,12,-64,-95,-142,-51
89,42,-39,-33,-5,53,12,-7,-70,44
37,-25,-34,-3,17,58,80,56,-7,4
-41,-142,-43,1,3,30,116,135,74,-10
18,-103,-28,-3,0,27,90,126,110,66
135,4,23,36,1,-48,21,27,55,127
196,71,67,31,-30,-100,-50,-28,-40,146
182,50,63,33,93,10,-78,-113,-130,147
138,21,42,30,69,0,-76,-124,-135,144
103,9,-19,-45,-89,-61,-49,-70,-57,151
50,50,-10,-73,-104,-18,-11,-41,-26,27
-5,109,61,-9,-77,-3,0,-30,-24,-97
-51,99,65,23,-32,-1,-11,15,125,-99
-78,32,35,39,15,-8,34,61,188,-116
-15,-60,-11,14,-17,-64,17,73,99,-31
64,-16,11,45,21,-54,-63,35,22,8
156,144,32,9,-38,-95,-98,6,30,71
66,81,-17,-14,-15,24,4,23,5,58
-12,-67,-28,2,52,93,41,-46,-147,-25
-46,-197,-67,18,133,94,24,-65,-154,-39
-164,-370,-162,12,199,155,31,-32,-16,-25
-183,-252,-147,-12,141,146,16,-38,-61,-55
-129,2,-30,29,90,76,-35,-83,-155,-121
-133,110,42,22,-22,-30,-43,-47,-113,-118
-133,136,90,15,-58,-63,-18,11,-59,-105
112,59,36,-45,-113,-78,-12,35,0,109
504,130,-3,-150,-309,-243,-37,141,216,418
660,279,35,-159,-347,-246,-16,173,344,481
479,272,76,-62,-171,-90,45,149,378,342
154,173,171,113,56,2,-75,5,39,6
-77,72,181,155,80,-40,-130,-79,-95,-107
-544,-101,102,119,85,43,23,0,-101,-240
-676,-273,-37,47,109,120,113,44,-64,-238
-441,-372,-185,-48,91,120,105,40,-65,-184
-227,-281,-157,-38,72,76,77,15,-72,-180
-41,-31,-49,8,72,64,71,-30,-5,-228
40,92,9,-5,14,-6,-65,-51,-38,-216
148,79,24,-29,-62,-91,-76,40,37,-12
121,26,25,-14,-44,-66,-33,18,9,146
116,27,-5,-19,-17,-16,-8,-16,-36,174
164,75,-19,-16,15,14,8,-25,-72,135
27,21,-18,14,103,90,23,-53,-83,25
-101,-25,-13,25,158,138,16,-87,-75,-55
-237,-101,-15,6,105,128,27,-70,-123,-136
-105,-96,-24,-11,26,103,50,-17,-123,-135
24,-109,-57,-47,-25,56,25,10,-60,-60
-96,-107,-96,-69,-43,8,-11,20,-8,-35
-24,-2,-49,-46,-63,-60,-45,-16,2,7
164,35,-3,-46,-95,-141,-63,-29,-8,47
63,-9,-3,-34,-58,-80,27,10,30,56
135,136,54,46,7,-17,125,43,190,178
240,232,93,85,30,-29,-4,18,108,178
173,131,68,39,-63,-107,-147,-10,-21,113
74,114,61,-2,-126,-134,-102,-2,-22,67
-67,52,23,-33,-88,-76,-45,31,49,42
-158,-16,1,-46,-85,-78,-6,53,20,-36
-97,-41,4,-33,-69,-44,45,50,-67,-103
101,7,25,3,30,52,92,54,32,62
186,47,75,70,109,37,0,-29,55,95
116,11,66,72,89,12,-63,-40,89,26
57,-31,-4,-5,2,-6,-21,55,251,2
-34,-75,-70,-18,82,48,-7,-10,121,-56
-110,-33,-48,45,184,74,-52,-130,-86,-37
-28,37,-15,22,86,91,-4,-98,-162,81
20,15,-19,-9,17,101,54,-37,-160,43
0,-40,-20,15,30,136,90,17,-60,-86
3,-22,-13,18,-3,72,49,1,-53,-153
-258,-83,-11,12,-45,-41,-10,-30,-82,-342
-526,-221,-46,-14,-97,-77,7,102,75,-321
-70,-40,-34,-73,-177,-106,43,188,236,102
353,290,58,-49,-139,-143,-61,-1,49,258
359,240,80,10,-25,-90,-78,-89,-75,209
142,28,19,-3,-15,-32,17,-28,-32,147
-155,-38,50,35,12,-7,54,-20,-70,3
-258,-155,0,10,28,-6,5,-15,-131,-13
-70,-180,-122,-75,5,33,-22,14,-73,77
-46,-63,-79,-8,123,175,24,-1,-39,-32
-38,35,12,44,142,187,33,-18,-55,-152
124,112,38,16,47,59,10,18,33,-131
325,206,64,5,20,24,-7,49,134,12
328,233,117,73,37,-24,-42,-50,0,68
131,45,14,-26,-96,-195,-135,-103,-100,69
75,-107,-73,-111,-176,-222,-73,31,76,144
-153,-185,-98,-80,-120,-86,43,105,128,62
-383,-251,-107,-51,-76,-46,23,93,73,-37
-440,-173,9,81,48,-19,-12,58,40,-101
-124,-18,58,112,141,57,-31,-29,3,-63
217,107,40,13,40,23,9,-93,-36,35
120,101,15,-38,-26,7,41,-71,-76,-45
-88,0,-27,-48,-17,32,-20,-29,-228,-232
-190,-68,-54,-24,0,46,22,3,-176,-196
-149,-86,-47,-11,8,33,9,-12,-112,-41
-37,-113,-44,-20,4,28,-8,-27,-64,71
3,-59,4,15,56,41,18,4,-12,49
-45,-6,23,32,90,39,22,29,72,-20
28,47,14,-10,7,-19,6,18,154,34
143,64,7,-55,-65,-48,-77,-25,16,73
149,32,29,11,18,30,-21,-54,-77,28
87,8,34,38,83,100,20,-73,-149,-26
31,-49,-18,7,80,78,21,-45,-115,-7
1,-73,-57,-3,113,71,20,-8,-45,31
-48,-75,-67,-20,49,46,26,55,23,37
-108,-42,-37,17,41,54,62,58,34,-31
-71,5,-7,39,64,46,23,1,-64,-96
0,56,-11,-13,-14,-24,-40,-8,-90,-62
-83,58,-16,-53,-125,-82,-48,-4,-76,-106
-6,76,14,-62,-209,-133,-61,-20,-57,-107
167,97,75,-29,-233,-204,-46,30,41,55
178,82,118,37,-168,-162,-43,80,163,156
147,-6,70,59,-56,-64,-25,74,277,226
218,54,72,27,-72,-110,5,42,203,237
191,44,43,-26,-93,-126,-44,-24,-60,203
35,0,-2,-42,-26,-43,-49,-27,-100,114
-96,22,36,23,64,18,-44,-26,-83,-51
-81,21,53,47,60,31,-30,-4,-56,-116
-5,0,-7,8,86,98,44,42,10,-107
70,39,-74,-45,121,103,82,66,92,-42
155,23,-90,-74,46,19,54,-26,74,58
164,-172,-141,-51,-15,26,22,-49,-70,129
141,-252,-157,-34,-19,72,61,20,-39,182
-82,-127,-57,37,68,109,72,-1,-48,-39
-261,-9,47,69,33,45,42,-30,-132,-242
-374,0,58,47,18,59,33,-6,-146,-329
-641,-29,32,40,9,16,-37,-78,-193,-431
-387,39,15,-11,-55,-129,-134,-110,-39,-179
79,105,-6,-68,-116,-142,-83,0,170,137
249,95,8,-53,-98,-70,13,125,189,197
200,64,45,14,-10,-27,11,104,151,171
248,112,46,35,79,101,15,-8,-15,75
433,165,37,8,62,121,-4,-83,-99,93
443,54,5,-6,24,47,-59,-110,-84,150
254,-38,-26,-6,36,31,-20,-26,34,121
20,-75,-15,41,80,58,68,63,197,61
-199,-138,-57,54,108,48,84,45,138,16
-578,-350,-171,-34,36,-22,16,31,-47,-166
-633,-259,-129,-62,-41,-117,-72,8,-138,-298
-212,17,38,42,30,11,-13,6,-130,-209
48,136,114,122,102,96,24,17,-52,-79
151,140,112,101,48,3,-36,15,54,19
4,117,101,51,-29,-40,-39,8,73,-16
-197,-44,25,-35,-116,-65,-4,32,72,20
81,-55,-64,-143,-188,-106,-4,69,94,215
288,102,-17,-116,-175,-129,6,82,120,249
141,138,59,19,-27,25,37,37,8,62
26,65,67,103,134,163,39,-89,-176,-126
-1,-23,37,85,173,160,13,-110,-208,-135
-21,-41,7,18,94,110,11,-83,-151,-60
-89,15,17,6,16,13,41,-90,-31,-15
-96,-54,-71,-69,-34,-58,-21,-41,16,7
50,-107,-147,-149,-122,-150,-118,25,-35,34
132,-7,-62,-107,-173,-212,-98,52,-15,39
56,28,9,-22,-46,-73,3,116,101,27
45,70,96,96,49,7,33,96,157,58
109,62,114,152,84,51,-26,-23,43,98
122,-9,24,102,135,156,66,-62,63,155
145,31,-10,16,56,99,84,-41,73,151
74,58,-55,-81,-78,-7,-23,-40,-52,21
41,76,-79,-114,-112,-75,-58,-44,-23,-46
-29,31,-3,-29,-51,-74,-36,-15,50,-118
-1,-7,36,18,-50,-69,37,87,157,-116
-32,-60,44,-2,-110,-108,41,171,184,-30
-171,-125,8,23,-13,-16,91,184,196,63
-178,-9,40,68,97,56,81,55,57,-55
-159,97,87,45,15,-77,-108,-123,-185,-267
-158,19,-5,-24,-19,-62,-112,-130,-221,-219
-152,-99,-89,-46,24,31,-6,-68,-138,-47
16,-15,-71,-53,12,49,39,-14,-28,90
31,-4,-42,-9,45,60,18,-32,-28,18
57,-11,-28,9,58,60,22,-48,-49,-39
87,9,19,56,120,95,47,-34,5,15
112,21,34,47,86,67,40,-24,50,118
96,5,1,-17,-16,-5,-21,-34,-83,119
23,-22,-16,-40,-49,-18,-27,-20,-140,43
-21,-22,-3,-19,-31,-9,-5,-17,-108,-48
-9,-9,9,-20,-26,-1,27,23,3,-77
83,45,15,-20,-24,-3,19,61,127,15
90,64,37,-9,-33,-26,29,39,131,67
-3,1,24,5,-26,-37,44,3,123,54
-33,-44,-22,-6,8,-40,-36,-30,8,5
27,22,-26,1,37,38,-23,-28,-61,4
-3,-15,-61,1,75,157,64,15,-63,-2
-93,-65,-95,-12,89,176,118,38,-52,-83
-378,-125,-86,-17,42,68,56,34,-51,-178
-330,-215,-121,-44,-15,-45,-44,-7,2,-65
46,-106,-53,-4,30,-41,-128,-146,-96,59
265,103,54,40,71,12,-97,-129,-113,114
243,111,78,56,7,-33,-65,-38,-21,164
111,-37,26,31,-45,-85,-17,15,11,126
-36,-80,-15,-9,-42,-24,74,109,99,-16
8,-11,20,15,-57,-23,95,184,216,-43
80,69,51,18,-130,-160,11,134,160,-16
93,225,74,0,-145,-148,18,76,89,-37
206,321,86,-9,-150,-103,66,52,198,78
194,236,92,19,-76,-90,-50,-88,76,133
119,41,81,46,35,-23,-206,-218,-271,88
-38,-63,60,43,106,43,-136,-147,-259,60
-136,-217,-20,38,146,130,11,-16,-71,47
-255,-351,-139,-13,121,139,45,-9,-78,-111
-207,-216,-163,-76,-3,51,46,25,-58,-212
-76,6,-65,-63,-82,-17,64,124,203,-3
-12,132,1,-54,-98,-75,20,122,270,91
-40,155,69,17,-18,-6,-2,35,88,-3
-117,77,86,61,32,35,18,12,-6,-91
-165,14,53,34,16,30,8,61,101,-91
-163,11,36,30,69,54,52,65,49,-151
-73,-35,-21,0,111,38,13,-67,-149,-188
106,-50,-52,-54,26,-12,-30,-119,-168,-26
154,-20,-28,-33,-30,9,61,-66,-15,140
174,12,-10,-13,-32,36,23,-62,-74,135
120,11,-12,-33,-41,50,-43,-47,-195,66
47,40,0,-10,-7,78,26,6,-129,24
135,99,12,23,41,65,22,21,-40,1
70,-27,-39,1,36,14,4,88,166,26
-81,-121,-31,35,63,26,26,112,287,19
-154,-44,34,87,61,27,54,49,205,-21
-45,-24,12,32,-18,-51,15,-9,36,-29
67,-64,-46,-42,-74,-90,-83,-66,-162,-45
47,-39,-61,-80,-83,-66,-65,-53,-139,-37
-59,5,-16,-68,-100,-85,-46,-18,-100,-26
-32,13,18,-35,-79,-47,29,61,-10,71
118,113,64,-9,-30,-5,59,92,139,214
65,125,95,10,-11,-22,-26,-23,55,151
-59,55,87,30,-30,-70,-71,-56,-36,-41
4,13,26,-8,-61,-107,-73,-1,52,-41
51,21,18,38,57,8,-30,-24,15,-71
170,130,-7,23,64,57,-26,-81,-46,-36
140,82,-43,-65,-14,24,-15,1,30,0
-59,-75,-46,-13,87,92,46,45,43,-40
-345,-241,-55,76,257,207,87,-36,-139,-187
-381,-279,-82,75,208,195,93,-63,-164,-157
-84,-139,-53,48,87,136,90,-43,-57,-9
16,9,5,4,-4,77,-14,-65,-136,-33
-100,53,21,-25,-60,-5,-26,-22,-84,-100
12,43,-18,-68,-80,-43,42,92,68,0
190,63,-24,-73,-105,-137,-11,94,128,158
129,53,8,-19,-104,-155,-34,52,97,103
29,53,38,8,-91,-148,-65,21,97,40
31,71,49,-10,-108,-200,-77,13,123,107
29,42,31,-47,-98,-86,-36,45,16,102
56,45,60,-9,-32,-14,-17,29,-39,49
90,71,65,30,-7,-55,-42,14,0,41
50,11,-15,-17,-16,2,0,33,23,31
-5,-35,-32,-20,-10,23,11,1,19,-6
53,50,36,16,-32,-31,-39,-40,30,4
114,49,60,45,-3,11,8,-26,51,45
82,16,37,58,101,141,44,-18,-2,22
61,59,11,54,144,143,24,-55,-130,-9
16,-63,-51,2,84,68,-4,-108,-202,-29
-96,-123,-68,-15,40,45,-48,-121,-207,-69
-65,55,-1,-3,19,70,-17,-29,-113,-45
-51,28,26,16,31,79,38,82,30,-1
-135,29,86,29,-22,-66,-9,29,34,-83
-41,-58,-25,0,-32,-94,39,76,265,36
67,-284,-189,-12,48,93,191,241,425,175
-81,-289,-152,-16,-8,72,72,119,29,-29
-316,-100,-23,-35,-78,-110,-118,-39,-150,-219
-242,90,73,-24,-52,-83,-108,-44,-109,-172
-36,165,104,-13,-24,-37,-71,-56,-110,-75
120,129,68,-13,-43,-90,-103,-66,-98,1
175,54,0,-41,-69,-92,-64,-33,-40,50
115,-72,-58,-51,-52,-19,10,59,46,76
69,13,-16,-15,1,68,72,78,43,56
84,89,47,22,37,62,51,14,-1,80
82,26,49,22,6,-25,-31,-30,-18,119
3,-25,35,17,4,-7,-24,-52,-65,89
-7,-49,-9,22,8,16,-3,-37,-44,57
53,-11,-33,3,25,38,45,-31,-32,47
116,105,-18,-24,21,33,90,-48,-3,94
127,101,17,-16,3,26,7,-28,-13,105
10,9,26,45,57,51,10,-5,-15,-25
-48,-58,14,49,52,46,31,-23,-102,-114
-15,-50,-1,12,9,12,4,-32,-96,-129
-39,-51,-13,-2,10,-4,9,72,140,-187
-142,-59,-9,33,46,18,21,164,372,-177
-155,16,14,42,58,28,63,91,281,-119
-121,28,15,49,57,36,52,-60,10,-89
-89,33,13,6,-21,-37,-126,-102,-124,-31
-136,28,6,-20,-25,-43,-117,-59,-74,-15
-43,-19,-30,-12,26,1,-28,-27,-85,-35
131,-29,-43,-21,11,-6,-15,-10,-82,7
42,-60,-43,-10,36,34,23,0,-92,3
-86,-34,-41,-14,-10,17,31,0,-25,22
-66,73,12,-14,-41,-11,20,2,111,64
55,90,40,-3,-55,-15,4,-1,53,76
41,21,36,-18,-78,-47,-50,-22,-25,48
36,-13,20,-28,-95,-66,-37,-18,-47,33
93,1,1,-27,-74,-65,-16,6,-12,76
113,86,1,-18,-41,-59,-8,-7,-42,80
113,92,3,-12,-11,-43,-11,-29,-61,75
158,36,7,-1,23,-17,27,6,57,127
172,-22,-44,-15,8,8,27,23,97,149
164,-34,-56,-55,-49,-20,-57,-20,-83,102
215,-8,-1,-30,-25,-24,-64,-9,-72,105
262,-23,-9,-14,16,0,-42,5,-5,103
73,-49,7,10,55,56,33,32,39,42
-361,-129,53,54,75,98,72,25,-35,-129
-491,-11,53,64,49,67,50,12,-11,-210
-390,58,25,42,34,24,45,15,47,-244
-572,-153,-20,52,109,60,1,-28,-124,-432
-557,-238,-15,80,108,72,12,-12,-152,-432
-49,-130,-63,31,46,33,29,5,-87,-110
262,-11,-123,-38,10,44,31,-18,-42,136
314,128,-79,-54,0,48,3,-40,-6,207
273,233,-15,-34,43,78,43,-21,22,162
218,122,15,-21,24,51,78,-1,85,123
193,-11,-8,-50,-60,-55,57,72,194,128
138,-69,-10,-36,-59,-47,66,143,280,137
-61,-125,-12,-1,-16,29,51,57,29,-45
-38,-24,-22,-59,-116,-61,-17,12,-25,-4
-41,73,17,-39,-98,-124,-97,-51,-67,-21
-150,32,68,100,113,-82,-216,-192,-178,-137
-138,7,78,145,156,-18,-122,-98,-46,-68
18,53,47,63,16,-68,35,7,161,63
89,58,-14,-75,-167,-175,-8,8,72,113
107,85,-6,-96,-190,-155,-92,15,-98,96
104,-12,21,-8,-73,-32,-45,45,-31,98
96,9,77,52,-17,-37,-44,37,30,56
49,88,82,28,5,-7,-32,11,11,-21
-26,71,49,-17,21,6,-18,-16,-17,-50
-66,29,0,-39,-18,-12,2,7,32,1
-34,0,-46,-38,-15,37,33,46,32,26
18,19,0,1,-25,21,8,16,-16,44
62,-33,7,27,-10,24,11,-10,-51,85
76,-109,-46,10,20,41,33,14,10,116
120,-30,-30,0,8,11,13,15,3,35
225,72,-5,-18,-44,-6,18,9,-5,34
227,110,3,-14,-7,0,12,-21,0,66
18,29,0,8,30,28,16,-42,-48,-113
-172,-75,-64,-60,-10,9,-59,-52,-166,-357
-468,-228,-110,-30,113,91,-24,-54,-162,-339
-612,-264,-60,75,254,222,68,-7,-81,-234
-407,-123,-17,77,170,195,126,78,75,-145
-50,-32,-32,22,24,81,101,125,186,34
334,91,15,-14,-98,-55,-13,3,87,200
338,123,45,-17,-140,-83,-19,-68,-8,124
-36,22,-20,-52,-146,-75,40,15,20,33
-124,4,12,-66,-164,-110,-8,17,-68,-33
80,123,107,-45,-158,-108,-18,14,-29,-18
279,122,122,3,-26,0,61,122,216,188
245,65,89,61,106,39,-8,-2,143,229
100,54,6,57,146,63,-85,-143,-63,116
42,74,-43,10,99,69,-65,-132,-122,23
-54,-93,-115,-41,46,30,-48,-84,-100,-31
-229,-298,-150,-22,49,-28,-25,-25,-101,-146
-234,-227,-93,-4,23,-53,31,63,-18,-167
134,87,60,15,-25,-64,11,85,88,-18
379,251,133,-10,-126,-186,-62,65,136,218
157,220,134,-11,-154,-217,-59,41,58,235
-13,124,104,8,-93,-120,-9,50,42,182
-14,11,66,29,-15,-5,21,17,8,84
-106,-64,18,12,13,10,0,-55,-87,-106
-252,-129,-27,15,49,60,40,-53,-99,-279
-213,-125,-8,39,71,93,51,-12,-27,-258
-43,-44,17,52,96,103,30,-24,-49,-209
-121,-55,-13,30,123,140,77,68,126,-97
-173,-57,-26,-14,50,57,48,55,175,68
-9,-25,-33,-30,-31,11,7,-22,34,111
143,20,-64,-35,-39,2,43,-18,88,138
150,23,-48,-44,-24,9,22,-30,-21,90
90,-3,-41,-22,-13,30,-32,-14,-168,15
77,16,-43,-9,12,39,10,28,-85,-18
13,73,9,14,33,36,23,34,17,-43
-48,65,49,31,29,-4,-47,-25,20,-8
-41,32,34,10,12,-27,-54,-13,26,32
9,19,-1,-31,-27,-27,-9,15,67,87
30,8,-11,-33,-39,-36,-35,-43,-34,25
-5,-29,-16,0,15,14,2,-36,-60,-47
14,-23,-1,26,42,35,26,10,57,-8
29,0,20,28,29,17,0,-18,-25,-10
20,17,25,2,-4,-10,-5,-54,-131,-45
2,39,15,-19,-35,-19,-10,-35,-124,-64
-28,20,-14,-2,-15,-27,25,-30,-50,-73
-26,-14,-10,24,-5,-25,86,-14,111,7
7,-46,-24,-6,-29,0,49,54,139,110
-1,-95,-46,-11,33,36,-36,15,-70,57
-38,-104,-46,23,124,86,-58,-84,-233,-45
-30,-51,-21,14,81,63,-27,-95,-212,-28
-55,9,16,20,15,30,-29,-60,-129,-64
-48,2,6,-1,-33,28,4,6,5,-38
-26,0,4,-24,-55,0,42,75,196,18
-29,13,24,1,-20,-5,34,74,167,-12
17,7,10,-37,-83,-62,25,76,100,-18
79,40,0,-82,-159,-115,2,102,90,-17
94,81,31,-20,-62,-26,20,61,28,25
99,92,63,39,23,10,1,-1,-15,104
71,45,29,27,-17,-65,-54,-25,-47,108
25,8,-7,-18,-46,-41,7,8,-10,33
36,6,1,-19,-23,23,27,43,51,39
30,-15,27,22,39,31,-3,11,15,3
-21,-57,-8,40,93,35,-16,2,24,-62
-61,-68,-36,22,39,-15,-11,37,58,-95
-101,-75,-36,44,104,33,-17,-14,-35,-148
-46,-45,-34,20,94,30,-62,-84,-80,-89
13,-12,-26,-16,1,14,-31,-27,18,5
-54,6,18,25,40,68,57,16,177,40
-81,39,46,30,59,57,65,3,133,-26
-1,49,38,-23,-28,-44,-36,-33,-103,-43
104,49,18,-68,-117,-129,-69,-27,-169,15
134,24,-3,-74,-129,-107,-27,11,-33,74
58,11,8,-43,-124,-69,27,60,70,81
-62,-7,6,-8,-66,-30,29,43,13,30
-29,4,2,-2,14,-14,15,-24,-22,27
87,29,24,27,63,5,-26,-83,-78,72
141,64,39,48,36,17,-37,-85,-111,112
150,66,17,3,-6,13,-42,-55,-81,100
202,26,-28,-7,30,65,-22,-26,-1,97
323,23,-27,4,61,55,-15,30,144,170
127,8,-48,4,59,57,16,39,156,49
-192,-101,-79,-5,91,113,61,52,105,-113
-241,-191,-61,22,98,121,142,64,118,-152
-374,-177,-54,23,34,56,71,0,-81,-273
-817,-135,-12,36,37,5,3,3,-225,-450
-911,-146,-11,76,92,39,35,19,-166,-460
-121,25,-19,-42,-119,-140,-62,-5,-93,-148
445,147,-17,-145,-307,-266,-112,35,55,177
483,151,9,-92,-232,-156,11,136,223,332
346,150,82,22,-72,-52,92,134,303,327
244,114,115,88,22,-44,-9,3,118,196
188,96,92,77,31,-25,-114,-76,-78,123
105,62,37,17,-14,-16,-55,-24,14,127
-1,-8,-7,7,1,22,-14,-14,18,32
-43,-43,-22,24,83,73,-13,-88,-113,-75
-33,-52,-51,8,89,87,-10,-95,-100,-51
-9,-58,-60,-33,8,62,28,-24,-44,20
5,-18,-8,-25,-8,23,44,-6,-26,30
-21,16,27,3,19,16,-11,-32,-74,-74
-31,0,22,-6,35,43,25,0,-27,-92
20,-3,20,8,31,47,38,24,15,-42
80,0,6,-6,9,4,-4,26,47,72
82,-18,-27,-18,7,21,2,-6,49,104
41,-6,-16,12,27,49,4,-28,-14,14
7,1,-12,4,13,16,55,14,112,28
14,28,-7,12,22,23,83,3,150,47
-67,-14,-17,-8,31,17,-15,-56,-63,-63
-96,-21,-49,-62,-22,10,-88,-59,-214,-133
-10,32,-50,-58,-38,-18,-62,-45,-160,-49
119,96,0,-20,-17,-21,-36,-40,-79,45
223,83,60,45,48,4,-34,-16,-20,126
115,-1,64,77,64,-14,-7,17,23,89
110,8,74,47,8,-87,-18,19,51,14
-255,-82,31,31,-3,-63,13,60,10,-180
-654,-219,-52,17,14,19,39,84,-35,-291
-499,-204,-88,-21,-19,13,-2,-14,-108,-252
-70,-12,-99,-58,-60,-40,-56,-65,-68,-51
163,45,-64,-48,-22,10,-2,-12,12,193
-51,-94,-57,-22,17,68,48,25,-4,126
-181,-93,-21,16,15,79,69,35,35,-22
105,-2,-22,-29,-56,12,14,41,116,87
235,92,-6,-53,-66,-47,-61,-9,-10,112
186,95,-1,-30,-13,-38,-53,-35,-84,58
143,91,39,12,-19,-38,-35,11,14,-3
108,66,74,68,14,-11,-35,-26,37,-86
23,47,108,65,4,-13,-56,-45,11,-204
18,40,99,26,-20,-21,-1,64,162,-167
52,88,41,1,-19,-3,100,138,325,-15
108,174,21,-17,-24,-14,45,78,183,109
140,151,42,18,11,-4,-32,-29,-19,180
29,-42,-1,36,41,48,42,-5,-66,113
-93,-192,-82,-19,-18,-28,14,36,8,35
-265,-294,-127,-57,-49,-49,-6,60,76,-44
-129,-167,-106,-37,3,15,21,49,81,-69
-7,1,-37,7,42,21,-43,-66,-92,-66
-77,148,57,70,114,52,-76,-145,-244,-97
-59,159,53,60,136,102,-8,-95,-189,-52
-19,-67,-36,-12,50,60,30,-17,-58,31
23,-186,-77,-41,-9,22,44,19,-28,60
22,-121,-43,-49,-55,0,68,49,11,64
40,16,25,-15,-64,-24,43,15,-1,1
74,109,84,36,-47,-60,-6,-12,-2,-4
51,81,44,9,-35,-33,59,32,121,74
71,66,18,-45,-92,-50,-1,32,29,77
80,61,31,-19,-42,-45,-67,-16,-76,0
67,57,21,16,30,17,-27,-39,-90,-41
47,45,14,-12,13,36,7,-43,-103,-21
36,29,3,-19,-20,-27,-14,-5,18,100
-4,-61,-19,-2,12,-5,3,42,91,97
-51,-36,11,59,89,6,14,-30,65,-2
-34,27,44,61,71,-22,-40,-67,-51,-63
-34,-20,2,4,-6,-44,-46,-5,-43,-31
-10,-42,-26,-22,-32,-72,-29,2,-16,12
41,10,-19,-29,-41,-57,-28,-2,-32,52
15,20,-9,-40,-54,-55,-38,-28,-43,-17
-6,-5,-5,-26,-19,-19,-20,7,40,-21
24,-33,6,1,23,34,54,95,195,73
-4,-26,7,4,30,45,49,36,90,26
-53,-18,0,-7,14,58,22,-13,-84,-91
-62,-15,-16,-18,10,57,43,-21,-114,-98
-61,-48,-25,-2,57,92,25,-31,-62,-29
-40,-64,-25,40,182,157,-9,-51,-12,7
-31,-39,-28,27,142,113,-4,-48,-49,-34
-80,-15,-11,15,51,44,6,-13,-20,-33
-157,-7,-4,4,-13,-17,61,-8,32,-15
-43,-12,-39,-11,-36,-58,6,-85,36,66
86,-35,-44,1,4,-45,-138,-114,-98,81
159,-5,-26,-48,-91,-77,-130,-29,-167,56
183,62,15,-42,-152,-135,-39,78,1,39
159,202,104,34,-72,-78,31,126,165,39
111,209,122,62,-39,-34,31,106,158,-7
101,-1,37,5,-94,-47,51,85,112,5
118,-94,-2,-48,-176,-87,51,115,216,99
153,-11,49,-18,-150,-73,4,112,126,52
-72,39,55,51,29,105,67,81,58,-83
-165,34,1,55,116,166,79,1,-14,-128
-79,0,-15,21,45,9,-12,-74,-72,-51
-260,-86,-37,1,21,-32,-16,-44,-36,-91
-320,-107,-51,7,48,-6,4,-36,-67,-170
-199,-2,4,33,62,-19,2,-42,-33,-122
-47,79,43,21,11,-38,-28,-10,-17,-30
30,79,20,-18,-22,-34,-29,0,-57,-3
50,-16,-23,-6,26,54,25,-30,-109,-27
120,-61,-41,-15,84,110,3,-73,-161,8
85,-56,-54,-13,124,91,-41,-95,-139,77
57,-11,-26,13,69,3,-91,-140,-165,76
48,33,6,28,9,-37,-53,-76,-21,119
69,38,-8,-5,-33,-47,51,53,276,223
10,-56,-31,-58,-97,-78,9,71,138,95
-110,-113,-37,-70,-111,-97,2,110,136,-44
-112,-36,22,18,10,17,89,123,95,-218
15,120,90,91,75,91,101,57,-26,-202
132,151,88,39,-1,16,26,52,104,-12
163,105,23,-12,-26,-27,-16,44,176,117
129,90,-10,-17,46,11,-2,-25,56,71
15,-47,-63,-48,36,30,-24,-94,-193,-35
-54,-78,-41,-33,-22,12,-58,-120,-259,-40
-92,-140,-17,-24,-78,-13,-32,-52,-139,31
-136,-143,-31,-15,-66,29,53,56,12,73
-132,-33,-15,35,41,89,67,42,21,-18
74,9,-36,14,48,35,5,-28,-39,9
224,26,-34,-43,-44,-36,60,49,75,117
209,105,30,-23,-35,-11,128,109,208,160
100,98,84,6,-4,6,3,33,35,70
-53,35,65,14,7,-29,-94,2,-20,9
-164,-49,11,18,20,7,-75,-5,0,-45
-92,-80,-34,-3,38,34,-18,-76,-112,-78
78,38,-37,-22,48,58,-18,-86,-148,-79
-55,122,19,24,76,84,-29,-75,-97,-103
-91,20,-18,7,9,-12,-13,-50,-9,-58
59,-143,-51,-4,-21,-87,-9,37,88,64
45,-99,5,25,-22,-106,-42,49,72,39
81,11,18,0,-78,-90,8,128,201,122
-133,-18,24,17,-41,3,67,136,151,-15
-454,-5,87,75,31,-12,6,32,-48,-243
-228,81,64,38,1,-79,-65,-79,-158,-140
30,112,8,-30,-64,-70,-79,-144,-207,44
147,92,-12,-55,-68,-48,-68,-144,-179,120
75,17,-30,-6,34,11,-47,-84,-85,116
80,-90,-74,-2,61,71,16,-34,-4,179
153,-149,-109,-29,39,111,65,31,56,151
118,-96,-67,-7,56,138,86,116,190,-34
68,-20,-19,-5,51,104,70,94,133,-197
-181,-65,-28,-5,61,64,61,76,126,-294
-265,-30,37,32,68,52,138,125,221,-298
-158,45,88,42,16,-13,109,86,139,-163
-28,52,58,-36,-103,-119,-86,-20,-119,21
119,72,9,-84,-159,-161,-175,-48,-159,130
172,86,1,-60,-90,-64,-92,-14,-63,153
177,83,44,7,-6,-2,-50,-21,-37,157
136,54,51,42,14,-25,-82,-69,-68,90
67,-33,-21,9,1,-18,-53,-89,-65,44
16,-70,-61,-23,-10,-4,-27,-72,-18,43
-17,-31,-37,-12,13,33,13,-40,-6,26
-13,-35,-44,-18,0,36,35,-2,-8,47
17,-29,-40,-13,-16,23,34,10,-29,55
12,10,5,23,27,54,61,2,-27,-7
-1,36,33,26,29,40,39,-26,-32,-77
-56,69,19,-10,-12,-5,-25,-72,-40,-104
-9,50,7,-6,2,0,1,-50,80,-41
103,3,-18,-18,10,29,5,14,67,34
26,-62,-33,0,45,46,0,-2,-49,17
-128,-121,-25,43,73,44,-27,-50,-54,-35
-132,-80,-10,32,45,49,31,-10,13,-42
-80,14,16,23,76,64,50,0,54,-53
34,-19,-19,-5,85,16,-18,-33,-19,-32
13,-115,-56,-5,98,44,32,-32,-47,-61
-131,-146,-23,55,111,80,99,0,82,-92
-35,-43,7,45,-17,16,0,21,-17,-13
62,162,63,16,-123,-67,-63,18,-32,68
-32,172,63,-9,-162,-102,-36,74,98,31
-50,60,31,-38,-198,-150,-2,140,175,23
54,39,11,-66,-234,-168,-11,118,173,92
158,62,18,-37,-155,-120,-20,52,107,104
157,87,50,4,-41,-50,-23,28,107,112
133,80,61,19,6,-34,-58,-3,23,107
45,-10,3,4,46,6,-43,-16,-47,79
-69,-117,-69,-13,123,126,40,-23,-63,-28
-95,-67,-48,7,174,150,50,-60,-152,-82
-79,7,-20,38,180,177,45,-83,-236,-60
-71,7,-30,37,128,183,69,-64,-221,-101
-44,-28,-60,-5,22,47,79,-46,-75,-77
17,-44,-51,-14,-36,-46,91,12,162,9
43,-36,-35,-34,-97,-93,-46,47,114,10
11,13,20,-18,-86,-75,-95,-8,-72,-66
-14,48,40,-8,-105,-156,-116,-29,-84,-40
13,63,25,-21,-86,-133,-63,67,133,111
76,93,59,31,14,13,29,90,187,174
216,162,88,30,14,-43,4,20,88,191
341,162,67,20,-11,-123,8,13,185,201
319,14,-3,-46,-85,-75,10,93,107,97
176,-130,-51,-60,-44,12,36,51,-46,-63
-31,-133,-23,23,66,53,-5,-38,-142,-195
-367,-48,8,29,47,-3,-73,-55,-101,-265
-816,-87,-23,-23,-15,-31,-71,-86,-122,-360
-660,-74,-4,7,16,27,-26,-78,-140,-282
-149,-84,-16,37,82,104,84,22,-6,-22
96,-52,-12,30,76,102,88,25,38,107
105,102,28,35,66,87,48,-4,-41,41
71,230,78,35,54,76,31,-19,-69,-21
112,159,27,-2,37,42,0,-42,-53,26
104,-99,-76,-56,-2,22,15,-18,-11,65
24,-386,-156,-38,34,61,59,2,-5,32
14,-341,-122,6,57,40,9,-33,-7,-16
17,-41,-10,2,-13,-55,0,-22,83,-1
24,130,33,0,-41,-65,42,37,125,45
65,131,41,-3,-37,-29,10,62,38,71
123,99,41,9,-18,-47,-26,31,-13,114
176,115,56,-16,-84,-102,-66,5,-2,209
203,67,38,-63,-148,-126,-78,11,9,304
154,3,15,-19,-64,-47,-59,-35,-36,263
81,34,39,37,9,-35,-70,-109,-63,81
45,66,61,67,73,-2,-61,-73,18,-67
-133,39,45,97,179,131,41,37,58,-282
-257,-4,25,79,121,152,133,149,127,-404
-143,-52,-12,34,31,97,104,138,176,-271
20,38,1,-19,-62,-14,15,14,64,-68
52,22,-42,-88,-159,-116,-30,8,76,134
-29,-41,-95,-106,-135,-101,11,46,126,153
-16,-1,-46,-25,31,47,41,-31,17,38
-89,-28,11,59,181,199,40,-91,-158,-114
-89,-77,21,72,182,198,59,-37,-106,-146
-53,-49,11,34,87,120,50,-10,59,-48
52,79,46,0,-14,5,-41,-104,-74,15
219,180,54,-28,-77,-104,-127,-153,-269,93
376,118,-17,-68,-110,-146,-72,-30,-102,277
322,82,3,-37,-117,-197,-41,-9,22,269
106,36,45,12,-69,-173,6,11,187,99
-142,-181,-17,13,-12,-29,76,156,306,-8
-171,-212,-41,21,16,-3,41,237,215,-25
-199,-75,-4,14,-8,-17,5,205,211,-73
-668,-48,-17,0,-56,30,20,56,-101,-390
-676,9,9,-8,-69,9,25,1,-200,-401
-68,62,35,0,-4,38,19,3,-82,-91
337,83,27,-10,58,45,-7,-60,-75,100
302,44,25,-2,56,36,-19,-83,-150,119
103,-20,3,12,32,22,-33,-73,-142,82
-71,-55,-49,-11,36,22,0,-37,-106,42
-83,-23,-31,-31,13,9,7,-16,-94,-4
42,29,21,-13,-19,-44,-33,-38,-95,-24
144,42,10,-39,-48,-45,-57,-43,-27,34
126,-5,-17,-33,-46,-20,41,20,137,89
104,-3,-8,0,-8,8,68,53,277,105
62,48,37,32,37,29,-58,21,124,58
141,26,35,31,45,32,-37,16,0,48
228,-69,-62,-47,-16,-17,-12,0,-35,97
190,2,-34,-26,-18,-36,-11,-30,-56,77
146,61,0,7,15,0,-16,-30,-98,11
35,-11,-27,8,22,10,1,-66,-107,-53
-184,-16,-2,36,47,36,37,-57,-9,-45
-426,-79,51,61,40,59,-4,3,-33,-127
-331,-144,25,19,-10,29,1,47,4,-93
-192,-46,-20,-20,-28,0,-22,5,-25,-88
-135,81,-29,-22,-21,-28,-55,-36,-66,-120
155,114,-11,-28,-44,-80,-68,-33,-47,-27
297,102,31,-14,-66,-57,-37,-7,-24,55
228,92,34,16,10,44,23,0,-9,58
165,98,6,29,76,75,5,-31,-21,69
11,-93,-41,24,81,103,31,26,48,72
-354,-354,-77,30,65,117,100,71,22,-33
-490,-310,-61,35,67,147,136,109,23,-87
-98,-153,-42,-12,-4,52,63,55,9,-20
90,-74,-33,-42,-41,-69,-42,-51,-67,-53
110,91,18,-30,-20,-120,-63,-58,-85,-87
156,195,56,-40,-57,-117,-33,29,162,47
131,176,66,-19,-90,-168,-44,90,324,138
25,85,63,32,-68,-131,-76,44,155,88
-30,71,99,92,19,-46,-65,-72,-82,-42
62,74,61,27,-51,-96,-38,-52,-99,-11
70,91,19,-41,-89,-40,-2,11,68,36
75,56,1,-49,-53,24,34,34,102,141
107,-22,-14,-10,4,50,76,53,66,236
153,-6,-40,8,49,60,42,0,1,187
183,107,-1,6,34,36,-15,-83,-27,131
106,88,45,33,27,19,-31,-95,52,49
-59,-61,-16,6,60,14,-23,-43,-49,-153
-151,-174,-62,0,82,65,62,60,-75,-234
-65,-138,-66,3,48,58,50,52,-15,-129
-82,-30,-29,3,37,33,-16,-29,-16,-113
-159,-9,-18,6,46,54,14,-39,-19,-146
24,-29,-46,-23,30,77,22,-24,-75,-19
93,-39,-70,-6,69,136,45,-38,-48,59
4,-16,-47,-12,30,113,75,-10,26,30
-261,9,45,4,-35,55,108,55,143,-85
-429,29,71,44,-7,-15,48,21,-13,-171
-181,115,41,-1,-82,-90,18,39,-25,-107
167,134,19,-43,-120,-147,30,78,184,85
157,5,-8,9,-46,-167,-11,8,223,150
58,-55,6,57,26,-117,-165,-117,-120,0
126,-6,20,33,19,-68,-185,-114,-255,20
51,30,12,25,31,-33,-112,-60,-149,59
-117,14,-7,4,35,26,-41,-36,-117,-34
-92,-42,-20,18,69,106,14,-32,-143,-82
1,-64,-23,0,35,101,60,-13,-113,-58
57,18,2,0,-29,27,59,30,-1,-29
46,33,3,-6,-51,-11,20,62,56,22
68,20,-5,-29,-62,-31,8,41,95,113
99,85,35,-28,-61,-25,37,27,130,85
97,64,24,-32,-37,-4,47,101,303,162
39,-21,12,-11,-3,18,35,94,193,102
-46,-15,8,0,5,5,0,-13,-30,-51
-3,78,25,-21,-23,-39,25,-45,-34,-73
8,104,47,-16,-15,-31,41,-12,31,-43
-110,24,84,57,95,51,-31,-51,-199,-191
-102,-58,22,32,79,84,26,-22,-191,-107
-25,-63,-46,-46,10,27,18,2,-78,6
-32,-106,-134,-28,82,51,-29,-33,-24,21
-29,-208,-171,-21,82,60,-11,57,205,115
61,-100,-60,17,81,65,26,70,218,124
141,68,36,31,39,-5,26,-5,149,120
54,55,50,27,-14,0,-50,-53,-79,0
30,10,26,10,-45,-26,-53,-44,-122,-43
172,66,47,-27,-134,-158,-98,-25,-57,40
200,44,2,-82,-176,-185,-80,1,30,89
-59,2,2,-46,-60,-20,24,28,-2,-27
-152,7,26,0,38,124,100,36,-43,-58
76,45,37,-14,26,93,77,15,20,41
8,22,19,12,58,43,10,-1,31,1
-440,-214,-79,41,142,93,19,-2,-34,-191
-391,-166,-42,67,132,81,18,-35,-97,-210
53,46,3,-10,-46,-81,-34,-27,-31,-80
227,107,4,-62,-121,-156,-62,-31,70,32
124,97,9,-2,-20,-102,-65,-34,-16,62
-13,23,53,56,21,-29,-21,6,-30,99
106,3,92,33,-50,-57,-27,-26,33,236
121,-66,67,-11,-49,-26,-50,-31,58,230
17,-64,0,-23,-3,49,8,24,-13,103
125,97,0,-23,-38,12,37,45,-32,25
182,262,72,15,-37,-17,0,0,-28,-73
30,229,78,32,-3,5,6,3,79,-171
-303,-19,-32,-4,13,36,76,118,170,-160
-390,-228,-67,8,7,25,98,98,73,-52
-14,-209,-53,9,7,5,34,-21,-82,20
214,-75,-20,-20,-22,-11,-42,-71,-134,-2
30,46,0,-28,-29,-3,-11,-32,16,-86
3,140,-9,-18,-38,-7,-4,16,-92,-67
101,167,27,15,-29,-10,0,30,-98,-7
14,50,33,16,2,-1,-5,8,-9,28
-2,-85,4,0,31,23,-10,14,76,101
-66,-200,-35,14,57,54,-7,-15,13,72
-7,-226,-100,-10,42,30,-37,-30,-16,54
-87,-203,-136,-34,20,29,-8,-71,-97,-59
-375,-301,-167,-38,26,95,16,-68,-146,-126
-113,-100,-97,-42,6,61,2,-42,-62,3
129,120,4,4,27,21,5,-11,1,33
18,121,51,59,66,53,16,4,-15,-52
-54,105,53,48,24,26,99,71,180,-15
5,77,28,21,-17,-19,98,90,276,23
119,61,22,-6,-48,-73,-58,18,60,27
142,49,12,-58,-99,-124,-121,-7,-102,11
72,17,25,-6,-25,-6,-22,44,-32,28
39,15,67,82,92,80,-17,-29,-92,18
16,-14,23,72,217,148,-42,-157,-213,-13
17,5,-7,5,200,112,-58,-186,-164,-37
21,44,-8,-34,43,24,-55,-117,-77,-28
-89,-2,9,21,36,34,-48,-74,-121,-105
-148,-56,-17,0,-54,-24,5,38,19,-87
-108,-82,-109,-94,-218,-174,58,181,218,8
-68,-27,-95,-128,-307,-242,77,234,246,31
157,192,124,-56,-309,-189,30,180,180,90
462,349,266,63,-178,-145,-25,138,256,238
524,281,209,99,-32,-68,58,99,416,414
298,90,27,30,-17,-25,50,28,234,285
81,-46,-80,-54,-52,-38,-45,-27,-72,77
-90,-61,-72,-18,75,29,-1,-70,-205,-114
-273,9,-31,41,190,107,-11,-145,-273,-335
-457,-22,-17,25,144,100,10,-98,-209,-391
-372,-58,-12,-23,-1,32,20,-2,-54,-205
-302,-95,5,-3,-6,14,24,28,49,-54
-48,-163,-45,17,80,115,91,82,120,64
168,-261,-128,-25,56,101,62,72,31,110
-21,-203,-87,31,65,15,-43,-74,-107,-46
-129,42,75,62,-2,-60,-79,-106,-54,-83
-9,115,93,5,-59,-34,-17,-49,-4,-9
91,34,-22,-51,-27,7,-21,-62,-173,31
99,-11,-63,-52,8,60,-14,-43,-127,51
68,-5,-26,-9,25,53,-33,-41,-54,69
15,0,-27,30,63,51,-32,-28,27,49
39,66,1,46,98,77,-21,-16,130,25
103,68,54,48,64,71,35,-18,127,1
130,73,44,35,-2,-30,12,-19,-86,-36
75,63,-13,-41,-108,-110,2,45,-10,-24
-6,-107,-128,-140,-187,-147,18,120,167,61
30,-126,-96,-96,-132,-144,-6,94,101,183
112,14,30,11,-67,-75,17,79,203,264
-15,6,40,45,10,-4,-5,30,-26,105
55,4,72,56,31,-12,-44,-32,-136,12
36,86,104,45,16,-8,-30,-26,-52,-74
-178,101,81,41,52,53,13,11,-3,-236
-117,50,24,56,79,84,48,33,21,-205
42,32,-29,1,28,33,14,-22,8,-16
-74,-76,-105,-53,53,79,52,-64,40,18
-256,-230,-162,-32,179,189,73,-33,13,-168
-120,-138,-81,30,190,148,-1,-65,-157,-237
-15,-7,11,54,124,104,-9,-96,-216,-235
-79,29,65,56,47,39,-25,-63,-150,-164
5,58,58,-7,-105,-87,-51,-2,-3,65
173,152,36,-83,-206,-215,-99,-11,39,148
197,202,14,-96,-195,-247,-86,13,91,153
223,149,28,-59,-158,-130,-5,104,178,275
69,-10,60,15,-37,-2,5,66,35,211
-133,-86,27,84,75,41,23,54,44,58
-85,-76,-20,65,92,90,72,75,102,-29
235,-19,29,35,37,47,34,22,0,-5
371,-10,71,22,-34,-3,-5,-37,-118,69
309,-33,30,-27,-100,-92,-39,-64,-55,186
290,60,-25,-99,-147,-125,-47,-99,49,266
-8,35,-26,-73,-83,-62,36,3,141,151
-406,-119,-1,21,53,-20,-11,66,44,-132
-1022,-339,-58,92,191,96,0,22,-153,-579
-972,-310,-80,55,115,114,42,6,-207,-643
-251,-48,-16,11,1,62,35,33,-103,-295
309,121,10,1,3,2,12,8,-33,83
494,196,10,-42,-57,-84,-36,-31,22,324
261,76,-10,-57,-75,-67,-48,-55,-50,222
38,-3,-43,-62,-20,1,-37,-58,-145,-4
11,0,-53,-53,-1,30,-18,-22,-95,-36
41,32,7,6,45,41,-26,-36,-54,3
-71,44,80,62,90,58,-16,-62,-85,-47
-74,-48,22,40,81,98,59,-3,-45,-20
63,-38,2,26,39,68,59,-13,10,42
244,62,-5,-22,-35,-44,65,33,260,237
332,95,2,-94,-136,-130,-7,100,258,252
242,102,39,-77,-111,-58,-64,80,60,105
16,79,46,-15,-16,9,-18,39,64,-50
-183,-15,13,41,73,-17,-46,5,-91,-200
-233,-56,32,69,73,-8,-46,0,-133,-255
-251,-100,3,54,54,-14,-49,-41,-144,-203
-100,-63,-70,-11,18,-35,-67,-85,-84,-93
-19,0,-57,-16,7,-1,-15,-21,-31,-2
-88,-44,-77,-16,-9,69,56,74,47,94
62,-115,-88,36,123,196,107,53,16,94
236,3,16,72,166,171,80,26,-9,53
122,36,28,9,47,45,40,29,16,28
-103,55,16,-44,-34,-14,-1,-18,-18,-57
-99,112,66,-4,-39,2,-28,-74,-48,-95
-1,37,39,-17,-60,-57,14,-28,-29,36
0,-23,-8,-73,-156,-154,-10,68,-9,42
31,-7,-19,-42,-67,-105,-36,36,-54,20
130,-61,-32,-10,-29,-70,-87,-23,10,119
175,4,-30,-29,-109,-143,-108,40,95,248
246,120,12,-28,-108,-129,-79,-14,15,228
249,78,36,20,3,-6,-30,-84,-95,138
179,-34,7,70,139,140,62,-38,3,110
-55,-99,-23,78,161,147,157,33,151,-22
-304,-155,-59,-9,-30,27,90,66,38,-134
-326,-76,-20,-44,-123,-21,7,92,27,-158
-496,-75,8,17,3,51,62,125,296,-219
-380,-35,10,45,47,-16,-17,43,164,-240
101,130,54,22,-59,-173,-131,-45,-227,-128
346,171,60,-38,-125,-141,-53,-14,-176,98
296,131,64,-18,-49,-42,17,20,-26,205
163,52,27,-17,2,23,-12,0,-7,189
0,-5,-12,-26,21,61,0,-28,-35,33
-125,-81,-43,-8,72,110,-3,-69,-136,-131
-244,-141,-48,35,144,172,0,-128,-239,-285
-167,-90,-15,39,161,143,-3,-99,-190,-214
-27,-55,-29,24,144,120,44,-31,-50,-34
88,17,-24,4,40,-13,34,-5,80,81
167,74,-20,-67,-138,-190,-43,39,134,142
171,125,2,-68,-170,-172,-29,69,128,137
101,135,68,1,-91,-97,0,58,91,59
-59,81,95,56,-11,-38,-1,71,107,-9
-133,-29,69,31,-55,-5,-21,49,31,-9
58,-54,5,-21,-110,-51,-8,39,24,113
89,-105,-62,-26,-54,17,34,26,38,91
0,-76,-47,14,55,106,101,-33,67,32
-20,-11,-25,9,75,79,57,-69,-9,26
-28,-12,-26,-33,55,56,-70,-58,-167,-27
-34,32,-7,-15,71,60,-95,-66,-184,-80
-4,16,-7,8,82,73,-33,-49,-130,-88
20,-66,-34,0,34,0,10,-6,-67,-69
175,-38,-26,-41,-75,-119,-13,58,136,101
233,70,23,-43,-103,-152,-52,8,112,179
107,183,59,-11,-76,-120,-91,-63,-62,16
-88,152,60,37,34,4,-48,-52,-117,-158
-219,-50,0,45,95,61,-10,-34,-39,-168
-245,-236,-25,43,63,70,37,51,207,-158
-233,-126,12,47,43,69,63,78,91,-85
64,32,28,27,-12,0,36,16,-65,90
234,64,-45,-3,5,-58,-18,-59,-51,131
120,85,-46,0,78,-27,-23,-107,-25,83
55,83,7,12,53,17,-23,-59,-49,166
-53,-6,3,0,0,27,4,21,23,169
-109,-116,-21,-24,-60,-1,13,28,-7,86
9,-134,-11,-6,-24,38,0,-9,-68,0
-43,-120,-20,10,-25,59,20,14,-42,-200
-199,-32,8,23,-31,26,73,66,21,-400
-157,69,55,-4,-70,-14,106,146,189,-241
47,161,54,-54,-123,-77,3,85,143,19
-119,-4,0,-40,-66,-53,-56,4,17,75
-202,-167,-68,3,72,50,-7,-45,-18,38
59,-97,-84,17,123,102,48,-49,13,17
240,15,-35,5,68,76,52,-11,96,34
185,47,-2,23,131,76,4,-14,-92,1
144,98,62,62,141,51,-5,-8,-37,22
180,86,58,29,35,24,-1,-19,108,95
-4,-14,13,-7,0,49,-10,-20,60,30
-321,-69,-21,-21,-30,9,16,0,-37,-77
-254,22,5,5,-62,-12,18,35,16,-68
49,127,19,-8,-92,-93,-37,-20,17,11
148,118,24,-22,-118,-153,-60,-40,-157,86
236,68,47,-18,-146,-189,-48,-3,-113,156
204,-47,-3,-48,-156,-188,-1,42,83,184
136,-66,-36,-59,-133,-132,64,84,232,172
54,77,8,-30,-72,-73,-4,51,75,33
-222,57,43,-1,-1,-10,-69,-1,-57,-99
-212,15,50,49,75,77,-33,-37,-111,-76
113,55,45,71,135,107,-25,-84,-122,36
212,45,-16,51,200,185,21,-62,-59,40
114,-24,-35,34,134,206,83,-41,-76,-42
28,-19,12,49,70,159,76,-61,-79,-81
-121,-96,-20,-10,8,62,20,-50,-59,-99
-386,-262,-132,-77,-51,-10,0,15,45,-121
-400,-272,-160,-82,-61,-41,29,53,73,-123
-26,-85,-74,-38,-52,-91,4,26,41,-10
-117,-37,12,27,33,-67,-17,0,-4,-35
-295,-126,8,36,92,-27,6,-2,-44,-108
-190,-68,0,11,57,-7,-16,-21,-52,-75
114,113,27,-50,-100,-125,-139,-79,-66,57
272,180,40,-52,-164,-180,-184,-113,-16,147
179,167,71,5,-59,0,-57,-89,-67,12
73,163,74,32,3,88,30,-49,-138,-160
49,46,-1,-1,-19,66,86,61,20,-178
71,65,-11,16,-26,20,47,122,192,-45
111,106,15,39,5,8,48,132,245,149
85,-6,-43,41,102,88,213,174,369,229
32,-145,-31,75,175,148,175,112,253,178
105,-123,5,-15,22,34,-38,30,3,80
227,-89,-45,-77,-22,29,-34,37,57,87
149,-13,-18,-8,70,111,4,-7,-166,27
-14,67,89,51,29,27,-40,-58,-247,-77
-102,42,73,8,-69,-90,-62,-20,-94,-58
-143,6,13,-46,-122,-125,-30,47,73,-13
-127,20,2,-61,-107,-146,-44,6,19,-66
-47,73,57,-9,-73,-135,-72,-52,-47,-66
-128,55,53,21,-33,-47,-36,-50,-43,-63
-101,3,-9,12,41,69,2,-46,-74,-69
-11,-91,-96,-17,116,133,16,-46,-82,-19
-10,-58,-71,1,138,109,-4,-83,-84,-6
-42,-37,-58,17,91,84,20,-67,-43,-28
-28,-141,-85,23,39,53,96,48,120,26
-24,-86,-15,8,-16,-10,15,9,-14,-43
12,99,28,-24,-65,-52,-71,-52,-101,-58
78,166,15,-68,-151,-212,-120,-13,14,40
106,59,9,-73,-174,-255,-99,-10,39,44
132,-22,50,21,-31,-54,-2,29,185,81
66,-4,109,127,125,86,28,19,148,54
6,0,106,111,68,10,6,6,1,81
108,72,41,-9,-83,-71,-41,-8,52,123
154,32,-47,-57,-24,0,-12,-34,-58,97
70,-47,-98,-45,45,60,23,-29,-222,66
61,-35,-44,-30,3,19,19,4,-72,55
71,1,20,-16,-48,-43,18,36,158,26
37,70,39,-3,-23,-72,-37,-9,-13,-69
60,119,26,7,66,11,-30,-5,-131,-31
-44,28,19,18,110,94,40,64,31,12
-99,-47,-9,5,74,117,64,72,72,-37
-121,34,30,-2,1,74,18,30,32,-67
-352,-56,18,-2,-26,27,14,82,110,-121
-252,-180,-69,-43,-23,-16,36,88,128,-66
57,-65,-74,-46,-21,-29,33,46,68,47
-11,-50,-46,-19,-21,8,52,34,27,41
-94,-64,-26,13,39,77,82,-16,21,-12
-132,-17,20,73,135,131,59,-122,-23,-137
-67,5,-10,31,100,62,-15,-93,-84,-113
74,10,-7,-11,-4,-20,-105,-62,-195,-23
109,-20,5,-7,-44,-23,-73,-66,-204,53
80,-16,17,-10,-102,-63,-38,-36,-131,86
82,25,5,-41,-158,-160,-90,-30,-58,73
195,132,-1,-70,-159,-174,-108,-39,-38,92
249,160,17,-35,-59,-61,-13,4,-7,99
93,16,39,48,63,69,58,20,-26,22
29,-68,28,56,63,49,26,-23,-53,71
66,-59,13,23,23,-19,-27,-66,-71,125
-56,-87,-49,-21,-20,-49,-39,-38,4,12
-421,-94,-35,6,18,27,49,71,121,-186
-557,-25,36,69,79,81,82,72,134,-272
-147,116,73,47,24,-2,14,-17,140,-214
266,116,41,2,-33,-5,37,106,323,-79
262,47,14,2,0,54,82,112,49,-57
132,29,-25,-26,-20,25,28,13,-106,23
111,77,-46,-52,-60,-30,-17,35,63,85
103,118,-26,-24,-39,-43,0,33,32,18
40,171,36,44,70,23,-5,-1,-40,12
-18,118,35,60,100,63,45,3,42,125
-98,-155,-31,50,59,74,99,-21,122,152
-143,-374,-38,53,36,75,49,-24,3,10
-25,-301,-31,36,19,55,-71,-46,-176,-94
22,-18,-24,-30,-23,15,-82,-45,-112,-46
54,247,52,-47,-45,-30,-75,-64,-92,-16
226,323,115,-9,-8,-4,-35,-62,-80,58
208,177,72,22,67,56,41,3,15,99
112,3,0,4,34,15,63,82,194,123
10,-168,-73,-43,-45,-34,25,86,182,100
-147,-223,-112,-64,-83,-25,53,95,121,39
-138,-73,-115,-98,-98,-17,94,135,133,-44
-177,7,-90,-70,-69,23,76,101,154,-102
-284,17,14,48,54,28,9,1,-40,-127
-301,59,110,62,37,-57,-69,-58,-90,-141
-132,32,128,52,-13,-72,-99,-83,52,-61
133,-23,58,25,17,-24,-82,-103,-16,36
50,-109,-53,-42,29,104,3,-93,-265,-15
-121,-133,-79,-36,51,149,77,-10,-183,-42
-24,-47,-42,38,148,127,23,-52,-88,-35
163,79,0,62,181,140,-20,-116,-49,0
132,132,9,9,67,56,-10,-104,-139,-39
55,24,-19,-32,-45,-10,-7,-16,-39,-87
40,-137,-121,-96,-146,-123,49,134,318,124
25,-57,-80,-71,-132,-149,24,86,265,194
41,57,67,43,-52,-97,-46,12,-19,50
156,84,121,65,-55,-113,-76,-7,-133,60
215,82,71,0,-123,-176,-87,-23,-115,48
-43,5,0,-53,-176,-219,-63,72,55,-3
-280,-72,-34,-49,-61,-42,42,147,154,-68
-91,22,6,-12,31,82,107,109,83,-5
155,113,100,76,65,52,25,18,-3,91
103,61,65,99,104,62,-32,-59,-132,-28
-13,0,10,55,71,38,-29,-63,-130,-146
34,2,-19,-29,-40,-35,-37,-37,-54,-20
61,-25,-71,-92,-59,-26,-7,8,21,99
-121,-102,-79,-31,63,40,19,-11,-4,33
-277,-122,-42,36,144,94,57,-11,-36,-106
-5,16,-1,17,69,14,35,-28,65,-22
195,103,28,-6,-12,-68,-43,-64,66,83
96,67,27,0,-16,-17,-114,-70,-130,17
42,17,6,9,-3,27,-78,-13,-126,10
-14,23,13,37,30,39,-25,-2,-28,-27
-83,22,30,27,11,22,-21,-16,-25,-76
-102,-25,6,16,0,-7,-8,2,-22,-82
-22,-63,-19,-6,-24,-26,9,36,67,20
89,4,-6,-56,-111,-24,43,73,148,142
209,43,-19,-60,-102,-47,9,41,5,149
88,-58,-48,-15,20,25,-7,-40,-162,10
-16,-66,-44,27,145,143,0,-90,-166,-103
-101,-60,-37,47,155,169,24,-54,-113,-131
-344,-103,-12,86,151,194,81,-19,-125,-255
-379,-73,-19,38,59,134,70,-24,-122,-266
-105,-3,-20,-43,-79,-39,11,-57,-67,-75
112,15,-34,-110,-229,-238,-79,-8,4,88
195,31,-71,-159,-295,-333,-78,80,136,218
218,99,12,-45,-127,-180,14,121,160,228
288,175,133,85,34,-73,-3,61,84,180
413,237,177,68,-39,-135,-73,-4,43,210
506,309,206,38,-96,-127,-111,-2,88,294
364,251,158,50,-14,-24,-30,16,154,248
-186,-108,7,64,124,109,43,-13,88,-27
-503,-354,-137,0,124,160,55,11,-47,-191
-520,-455,-233,-55,79,185,147,111,82,-234
-499,-383,-205,-71,19,102,114,103,51,-253
-243,-95,-66,-69,-34,-30,19,62,-36,-144
18,120,64,16,36,-10,-22,-7,3,-81
131,122,50,15,38,-9,-53,-80,-120,-15
-121,63,-12,8,45,8,-34,-59,-156,-65
-199,-49,-64,53,132,77,15,-54,-76,-126
18,-45,-44,41,118,104,7,-84,-26,-67
46,0,-3,-5,20,54,-19,-64,-124,-17
35,-30,12,-13,-25,-11,-31,-48,-105,60
116,-1,-4,-52,-65,-40,-26,-1,2,169
146,23,-39,-81,-82,-54,-2,35,68,222
175,83,5,-20,-15,-57,29,20,132,202
189,96,54,0,-45,-65,62,21,138,145
163,80,68,-4,-68,-35,0,10,-6,13
91,73,89,26,-25,0,-62,-20,-101,-126
-74,75,98,52,30,6,-58,-72,-108,-211
-215,92,105,41,38,11,-27,-69,-97,-177
-122,10,21,16,16,8,10,-17,-21,6
116,-112,-67,-12,-15,-10,38,-3,30,126
210,-124,-109,-15,-24,-3,75,30,121,120
-15,-123,-133,-36,-35,7,25,69,39,-89
-211,-9,-41,-37,-70,-33,8,59,23,-166
-112,102,54,-35,-83,-63,1,64,100,-20
14,80,65,-24,-42,-16,17,68,118,90
82,-4,64,40,54,28,12,-2,40,107
163,-33,22,69,119,104,-4,-68,-50,104
141,-33,-44,73,217,265,40,-145,-184,-50
-69,-94,-85,55,252,279,75,-112,-251,-184
-243,-164,-67,41,192,182,86,3,-145,-123
-535,-280,-102,24,168,172,112,24,-95,-205
-559,-240,-110,-16,70,62,58,20,17,-219
-17,-13,-51,-86,-181,-196,-38,32,103,37
365,170,9,-157,-362,-416,-115,82,267,296
332,220,78,-123,-321,-319,-27,205,515,309
293,351,244,58,-182,-209,21,126,315,195
342,339,259,118,-136,-261,-115,16,123,159
200,195,140,10,-135,-188,-208,-47,-103,16
-31,8,29,-8,18,1,-129,-85,-163,-94
-116,-107,-42,37,219,113,-93,-135,-221,-132
-157,-123,-75,38,269,189,-48,-166,-278,-166
-122,-105,-94,-5,165,189,71,-55,-105,-117
-114,-116,-64,-28,2,94,86,-21,-47,-11
-148,-143,-60,-37,-76,30,32,-21,-70,18
-34,-78,-44,-44,-101,-6,10,10,-50,-5
41,4,-25,-54,-116,-21,58,100,57,-3
69,113,31,-51,-156,-77,73,133,80,27
244,175,65,-46,-147,-85,48,98,97,146
368,217,91,-11,-68,-78,-12,5,34,161
211,173,123,46,-3,-40,-35,-46,-45,64
-131,-36,44,68,82,30,-8,-38,-12,-49
-152,-105,-29,62,123,71,-30,-46,66,-72
-54,-85,-92,5,145,148,47,-6,32,-35
-103,-158,-136,-26,124,121,88,71,15,12
-99,-143,-88,19,92,65,17,10,25,16
-112,-109,-21,63,74,7,-57,-65,39,-68
-109,-51,-17,2,-13,-37,-47,-13,5,-97
-230,-105,-56,-42,-28,1,43,77,91,-75
7,5,-11,-17,-46,-25,19,66,110,-89
96,97,28,5,-31,-63,-69,-27,-135,-121
-85,1,11,15,26,13,-21,-21,-222,-116
-31,8,32,18,11,5,-31,-24,-158,29
82,35,19,1,-17,-46,-61,-77,-137,171
80,23,-7,-19,-4,-2,-29,-75,-91,195
57,23,-8,-7,10,8,-11,-54,-19,124
32,28,8,19,34,5,41,-26,104,3
21,13,-1,17,29,27,26,51,122,-105
7,-34,-9,10,17,41,35,142,134,-161
17,13,19,6,1,16,45,109,89,-133
41,66,45,4,4,0,-12,0,-28,-50
28,47,33,4,16,0,-17,-29,-44,7
-4,-17,-9,-6,0,3,-5,-34,-49,29
71,34,-2,-6,3,13,25,-31,22,72
175,113,43,6,18,64,47,-47,30,86
158,72,36,0,11,69,-23,-50,-102,54
-40,-91,-8,8,25,67,23,16,-59,18
-316,-289,-82,-2,30,76,87,76,19,-53
-410,-354,-175,-71,-20,24,68,62,17,-95
-128,-157,-144,-70,-16,-14,-20,-42,-69,-88
71,49,-37,-20,21,-36,-44,-94,-73,-44
74,117,31,28,30,-36,0,-47,26,21
124,114,40,30,12,-23,-31,-17,-42,13
135,104,51,42,-2,-52,-62,-38,-64,21
111,115,88,37,-84,-176,-118,-50,-22,88
89,122,54,-40,-173,-193,-95,4,99,150
0,62,18,-49,-87,-10,48,91,257,113
-32,43,50,18,11,91,119,133,126,64
-33,38,79,66,27,44,66,69,-7,24
91,-13,39,38,55,23,-8,-5,-31,0
238,-25,-19,-34,-18,-29,-57,-64,-77,-10
69,-36,-61,-74,-107,-75,-31,-29,-58,-38
-100,-37,-46,-59,-88,-39,15,15,-5,-21
-160,-15,9,27,8,1,-30,-27,-61,-35
-187,56,84,89,91,58,-16,-47,-84,-77
-130,75,83,67,141,90,4,-64,-39,-58
50,136,45,34,103,54,15,-128,43,-31
125,80,8,9,-10,11,-36,-79,57,-14
-36,-172,-64,-3,-23,62,-36,50,-18,-72
-110,-175,-114,-32,-27,79,40,150,119,-55
108,120,-7,-32,-100,-57,33,167,273,120
253,27,-14,-15,-83,-112,-3,107,214,195
89,-59,-66,-22,-41,-68,14,54,56,94
-62,30,-28,-32,-56,54,134,121,198,58
-15,52,41,35,-15,14,20,21,112,39
-15,1,49,63,48,-41,-103,-106,-186,-48
-95,-36,48,26,33,27,-28,-62,-84,-69
-79,-9,40,1,9,63,25,-8,64,4
11,-8,0,16,65,64,40,-17,-106,62
12,-63,-36,0,55,45,30,-31,-94,75
19,-19,-24,-22,17,17,-13,-54,69,79
18,62,6,-11,-13,-65,-72,-96,-67,-8
-104,30,-2,-8,-38,-70,-48,-46,-101,-158
-147,4,4,2,-12,-24,20,52,40,-204
-189,-31,-14,-7,17,48,66,92,41,-178
-156,-8,-1,8,70,98,89,57,20,-141
-78,33,14,19,67,57,53,29,40,-80
17,4,3,0,-29,-19,-11,-42,-45,64
95,-3,28,14,-16,-22,-1,-66,7,106
88,13,25,16,27,-14,11,-23,66,41
20,-2,-17,-21,-30,-67,-57,-3,-20,-1
50,-7,-62,-56,-56,-73,-82,-35,-78,1
124,-39,-60,-22,1,26,-31,-19,-42,55
145,-49,-10,28,31,47,-16,21,61,150
214,187,96,80,33,0,-61,-34,-17,143
239,352,116,46,43,39,-22,-53,-19,106
153,180,22,-3,39,118,56,-34,-1,-1
-4,-40,-34,-3,4,88,5,-34,-126,-134
-167,-250,-44,5,-13,26,14,4,-92,-116
-246,-424,-66,9,15,43,73,50,6,-60
-386,-399,-70,25,57,47,121,97,85,-50
-235,-265,-91,16,19,0,132,121,102,4
129,-77,-181,-91,-97,-107,51,58,114,107
295,265,-39,-39,-52,-51,41,7,214,207
219,386,148,56,2,-62,-37,-56,117,187
-14,228,139,17,-63,-124,-145,-109,-106,68
-107,82,63,-12,-38,-70,-79,-95,-143,-39
-159,-1,38,-10,-20,-38,0,-12,-70,-159
-172,-62,-10,-58,-65,-47,43,92,251,-161
-54,5,-5,-54,-46,-22,61,144,209,-143
84,92,74,43,51,59,76,96,20,-148
51,61,89,107,140,53,1,-24,-64,-115
-79,-53,-6,30,119,51,-90,-62,-93,-36
-93,-75,-80,-38,76,85,-60,-73,-90,-29
34,-56,-82,-46,28,89,0,-56,-104,-23
108,-26,-42,-38,-23,56,8,-49,-126,2
12,-6,-18,4,-6,52,22,-52,-100,-11
0,38,31,38,81,40,1,-51,-62,-33
33,44,26,25,46,-16,8,11,29,8
64,18,8,0,-74,-51,25,87,140,114
105,7,7,-27,-119,-70,17,75,121,139
112,19,35,-7,-87,-63,-8,3,32,103
55,0,29,12,-65,-49,-34,-39,-52,50
80,18,1,-23,-59,-67,-36,26,60,90
145,122,38,-10,-42,-35,7,34,69,121
213,124,53,-12,-47,44,57,-10,113,128
220,118,48,0,26,33,64,-59,195,107
169,72,-17,-44,-21,-49,-55,-55,-2,77
44,-130,-85,-77,-95,-70,-127,15,47,47
-27,-183,-27,22,10,11,-63,36,53,40
-132,-83,46,91,80,65,9,25,-49,0
-342,-55,20,68,64,22,36,43,-180,-71
-175,51,2,24,35,0,18,32,33,-61
-88,-3,-8,45,42,-5,-6,-3,-19,-97
-398,-304,-88,26,60,50,32,16,-191,-212
-530,-293,-107,-11,45,68,56,35,-171,-343
-179,17,-21,-34,1,40,23,-11,-140,-233
235,169,25,-39,-22,20,13,-41,-89,42
255,106,19,-12,23,28,-18,-76,-118,43
71,-45,-14,26,77,53,4,-42,-75,-40
-31,-120,-42,21,60,80,83,46,55,-1
-115,-32,-35,-15,7,40,81,69,92,3
-135,42,-3,-28,-45,-51,-5,29,74,23
-57,20,2,-22,-63,-102,-46,5,48,16
73,56,22,19,-20,-112,-32,16,32,32
136,124,17,-3,-16,-77,-33,13,65,84
124,42,8,-27,-39,-20,-2,28,106,131
60,-4,46,23,-6,-14,-30,-36,32,23
11,-30,26,30,67,45,30,-94,18,-48
23,-17,-15,-4,112,76,24,-86,2,1
11,-27,-24,-13,99,88,-30,-68,-175,-27
-11,-9,13,22,71,56,-35,-87,-250,-69
36,46,20,-26,-64,-41,-25,-32,-125,8
66,96,23,-31,-88,-58,-19,15,-14,49
55,50,4,-58,-140,-138,-52,46,64,71
2,-40,-6,-72,-181,-174,-65,62,113,45
37,-39,-13,-50,-136,-127,-6,103,173,94
91,10,6,-17,-45,-32,65,142,175,137
119,110,60,12,8,17,48,98,133,123
119,139,87,53,68,56,16,24,48,64
72,92,93,85,79,44,-13,-73,12,-63
-31,-17,23,53,15,8,-39,-101,-189,-161
-114,-93,-61,-12,-37,-40,19,13,-155,-124
-162,-94,-93,-24,-23,-24,91,81,42,-32
-45,8,-54,-47,-37,-15,19,38,-31,45
75,78,22,-6,-22,-20,-50,-29,-70,49
76,8,41,28,-3,-33,-58,-59,-75,-20
-11,-110,9,13,-11,-5,-39,-59,-115,-49
-74,-122,-41,-21,16,52,-2,-19,-77,-9
-86,-42,-69,-32,31,24,-8,-15,-26,11
-96,-10,-49,-2,60,32,26,-17,49,6
-58,-4,-46,0,41,42,77,32,147,47
-33,19,-18,-18,-16,21,-11,7,-66,-22
-11,24,8,2,-17,-3,-61,-42,-129,-73
31,2,19,41,46,13,-41,-37,-26,-24
16,-95,-29,17,26,29,0,24,67,67
52,-57,-17,0,-11,22,24,23,127,78
208,79,20,-13,-16,-1,27,-14,97,188
270,90,-2,-23,-3,-13,9,-24,5,265
154,18,-26,-23,0,17,-13,-14,-85,94
-33,29,35,9,29,21,-25,-43,-75,-155
-237,67,111,40,3,-35,-78,-119,-91,-362
-304,33,62,29,4,-42,-67,-82,-194,-400
-134,-33,35,22,31,31,6,33,-12,-171
54,-137,-25,10,54,59,56,136,165,156
140,-74,-63,4,42,15,77,59,36,172
177,83,-2,10,11,-26,26,-67,-63,-7
84,129,54,4,-14,-28,-90,-49,-57,-103
-76,39,40,0,-16,1,-63,55,104,5
-60,-30,-3,-15,-40,8,-5,74,144,175
193,-28,-23,-22,-18,28,32,38,78,251
98,-164,-98,-70,-54,-2,2,14,34,218
119,-23,-66,-64,-74,-42,-17,-32,-20,88
-47,103,40,22,0,0,5,-11,0,-93
-404,4,36,39,24,23,26,37,-52,-320
-675,-117,-4,38,40,35,59,29,-95,-442
-573,-136,-18,17,25,20,21,-9,-98,-288
-11,-38,-19,-1,3,-24,-23,-13,14,73
157,-16,-34,-17,-13,-28,-37,-41,10,188
111,-14,-49,-29,0,3,7,-20,12,122
156,18,-31,-6,32,75,62,13,92,89
135,42,-8,25,72,112,36,-29,-33,-17
112,98,15,33,57,55,-3,-31,-83,-64
67,98,42,36,22,2,7,9,-10,-96
15,9,10,18,3,2,10,40,93,-71
14,-23,-14,-8,30,-13,4,57,185,59
30,-25,2,-14,-3,-69,-19,14,78,52
10,-46,1,-12,-7,-56,-28,-11,37,50
67,-7,11,21,46,2,26,1,228,156
60,-19,-9,5,36,50,0,-46,103,101
-45,-68,-43,-12,55,169,-23,-105,-205,-114
-50,-47,-23,17,91,218,28,-63,-186,-141
34,-10,-28,-23,13,101,53,17,-184,38
91,-25,-29,-40,-57,14,76,81,-54,118
93,0,1,-24,-101,-87,41,74,48,81
107,160,66,-31,-181,-210,-28,25,114,84
60,210,97,-74,-268,-382,-144,-16,77,2
-35,88,37,-108,-263,-381,-107,111,236,-58
14,39,61,-21,-125,-172,8,233,400,92
117,132,146,107,34,14,37,102,162,111
111,166,142,127,87,33,-17,-45,-17,79
10,70,48,51,32,-1,-72,-128,-126,18
-21,-64,-64,-10,36,54,-14,-76,-43,19
53,-40,-90,-27,53,101,60,-21,47,54
91,-57,-51,-6,84,115,21,-36,-93,11
20,-149,-28,59,144,146,27,-8,-81,-16
-62,-123,-18,57,123,108,1,-29,-82,-53
-128,-22,3,39,99,58,-26,-86,-53,-126
-146,-24,-48,-27,55,39,-13,-34,-96,-111
-106,-33,-60,-26,18,34,40,3,-61,-30
-129,-47,-41,6,49,61,129,14,73,14
-97,-28,9,25,40,57,105,17,86,4
-9,-51,8,-20,-35,-8,-46,-25,-110,0
4,-71,-22,-35,32,31,-45,-97,-207,-46
64,-34,-45,-14,143,128,13,-154,-258,-129
-49,54,-34,31,160,137,-6,-131,-229,-159
-181,87,-49,25,149,146,34,-39,-90,-122
-45,0,-62,4,79,152,106,54,44,-29
-12,-111,-28,23,13,96,95,94,84,-89
-101,-160,5,31,-47,1,49,165,161,-103
-113,-65,15,-32,-204,-194,-31,184,196,-53
81,76,17,-113,-369,-375,-136,88,128,78
237,219,89,-55,-327,-422,-195,10,117,225
320,307,135,-22,-228,-331,-151,50,192,290
293,281,118,-3,-104,-136,-20,59,192,216
194,163,117,45,-9,5,73,41,153,124
81,-20,72,56,73,57,61,-43,47,52
19,-128,14,15,48,21,-49,-100,-164,3
-54,-134,-47,-13,37,37,-76,-86,-232,-24
-67,-76,-67,3,91,99,-38,-72,-162,-6
-89,-77,-44,26,108,101,-6,-13,-70,5
-144,-119,-44,1,75,64,3,28,-10,13
-42,-53,-24,-3,41,43,-15,6,-23,-11
16,-18,-28,3,44,53,16,35,15,-65
42,-16,-29,-13,49,49,36,85,110,-77
1,-33,-19,-25,32,36,24,33,37,-83
-107,-92,-59,-47,-24,8,31,-27,-44,-56
-133,-51,-60,-50,-44,-15,24,-43,-62,-64
-252,-8,-14,-17,-10,7,4,-45,-101,-91
-134,35,28,31,33,41,0,-42,-70,-2
11,41,31,23,11,17,11,-17,2,62
4,-2,16,39,30,38,14,-23,-35,-16
7,-30,2,34,38,59,36,-37,-101,-102
8,-1,13,2,13,14,23,-28,-119,-148
-3,7,30,10,26,2,9,2,-90,-114
24,-1,5,-4,1,-13,-1,5,-58,9
62,-4,-9,-17,-29,-27,-12,37,17,118
95,13,-9,-41,-74,-75,0,45,103,156
113,81,-2,-47,-91,-104,60,75,276,200
119,152,39,-7,-6,-34,5,47,173,142
137,174,112,57,45,-1,-121,-72,-138,7
86,71,89,53,4,-15,-104,-65,-131,-17
-29,-104,-13,23,16,31,-31,-8,-70,-52
-137,-261,-93,5,60,77,15,31,68,-28
-280,-334,-142,-21,61,80,29,46,95,-41
-112,-185,-132,-32,22,45,33,4,-5,-36
144,23,-56,-23,-25,20,32,-30,-97,14
148,96,2,-23,-67,8,8,-40,-116,69
152,98,31,-21,-73,-36,-2,-30,-62,135
212,28,4,-32,-91,-51,36,23,26,161
147,-54,-54,-86,-113,-27,64,73,72,112
-86,-97,-55,-52,15,63,60,32,7,-101
-282,-21,20,75,259,231,80,-57,-89,-331
-90,106,95,123,197,144,64,-56,-95,-212
8,124,79,42,-44,-93,-86,-20,-100,27
-231,55,61,30,-81,-116,-84,20,-54,-13
-247,22,39,1,-87,-135,-78,-7,-91,-104
2,53,5,-38,-145,-206,-93,-8,-8,-6
63,23,-4,-80,-213,-231,-66,80,175,87
183,56,23,-71,-250,-213,-44,188,348,180
196,100,39,15,-55,-30,66,126,318,124
-28,28,53,120,168,125,42,-53,-16,-1
115,-10,31,64,128,83,-83,-66,-146,91
242,30,-14,-51,5,10,-69,-19,-70,107
149,114,9,-60,-1,8,-11,-46,-139,-54
-12,103,35,-14,10,-8,-1,-60,-143,-105
-331,-78,-20,44,63,13,24,-40,-98,-149
-540,-299,-121,49,122,92,84,-23,-65,-222
-494,-404,-207,-13,97,104,93,0,-72,-173
-118,-285,-181,-64,11,25,-29,-58,-152,-48
178,-79,-59,-47,-8,-15,-95,-114,-166,72
194,17,-1,9,126,116,-26,-116,-122,72
110,101,38,13,107,122,-30,-131,-127,15
48,194,43,-28,-11,24,-2,-39,-37,-55
59,135,31,-29,-65,12,101,183,286,34
96,95,82,8,-51,1,144,213,363,59
80,96,112,35,-65,-85,82,150,268,37
-59,-50,33,-1,-126,-164,-4,162,163,-51
-76,-82,-9,-12,-106,-84,11,184,112,-75
132,79,46,39,-15,15,4,64,34,71
226,149,85,63,0,-34,-82,-72,-79,122
159,153,78,32,-37,-105,-145,-153,-116,75
41,80,12,-18,-21,-63,-95,-104,-7,71
-47,7,-30,-14,30,19,-15,-64,-18,14
-91,-102,-71,-16,41,66,0,-55,-104,-41
-68,-157,-60,-19,40,70,37,-26,-75,10
33,-39,-4,0,39,45,24,-42,-57,51
82,29,15,7,26,18,0,-52,-63,24
60,8,0,-2,26,18,15,-39,-57,-7
27,10,-24,-39,-6,-7,-8,-10,0,-18
-50,-32,-58,-40,28,23,20,26,74,-26
-166,-87,-69,0,138,119,45,32,22,-89
-186,-31,-29,1,98,109,39,20,-24,-117
-62,-20,-22,-8,0,65,36,-18,-56,-58
33,-50,-7,29,28,69,36,-51,-73,7
43,23,83,43,25,-3,-59,-98,-85,39
67,91,72,14,-56,-73,-93,-73,-60,62
72,76,5,-27,-142,-138,-33,12,74,69
-1,17,-20,-37,-134,-148,23,75,264,47
-157,-109,-12,1,-14,-23,-3,42,92,-94
-41,-117,-5,9,-19,-16,-57,50,-72,-124
107,29,22,-16,-82,-58,-35,47,-39,-11
158,97,34,-31,-111,-53,-15,18,23,135
179,126,19,-8,-21,-6,15,9,44,169
55,34,-17,29,72,40,13,-20,-45,47
-9,61,3,31,34,-14,-13,-34,-54,-37
-34,91,27,-16,-43,-63,-39,-1,-72,-76
-89,-9,-17,-22,-29,-34,-2,17,-21,-40
-177,-117,-29,8,36,16,24,55,49,-34
-145,-136,-19,15,37,20,32,86,116,0
12,-91,-29,2,63,60,30,38,40,49
17,-6,-27,4,155,165,31,-39,-69,-16
5,41,-11,17,150,175,71,-75,-74,-88
2,-27,-39,16,105,168,72,-79,-79,-108
-33,-119,-75,-23,42,119,6,-34,-106,-88
17,-80,-45,-12,-5,25,-29,-18,-95,-4
32,-54,-7,24,-2,-36,0,-17,-120,28
24,-2,20,21,-22,-108,-14,-17,-114,29
84,111,27,-52,-204,-278,-64,34,30,148
77,146,36,-124,-280,-332,-70,107,266,255
38,180,91,-65,-183,-235,-5,96,357,169
101,208,169,46,-81,-152,-92,33,161,37
161,116,131,87,12,-37,-153,1,3,21
53,-18,6,39,58,79,-13,33,61,12
-121,-101,-61,38,113,139,59,-7,-60,-78
-111,-30,-26,41,82,75,10,-59,-143,-58
-12,71,0,-5,45,44,43,-10,-25,24
-50,-5,-13,-2,67,122,86,16,-5,-28
-58,-131,-53,39,202,262,103,-13,-104,-140
-112,-247,-99,12,206,231,50,-62,-136,-101
-81,-303,-147,-39,71,103,39,-72,-124,-15
91,-116,-132,-73,-61,-12,27,-72,-124,-4
47,75,-50,-58,-116,-75,-16,-32,-82,-52
-148,140,39,-11,-129,-123,-12,22,-1,-125
-70,168,90,-12,-185,-223,-31,77,108,-125
62,175,134,6,-145,-145,16,98,292,2
91,143,127,23,-114,-102,38,137,392,187
27,86,112,49,-48,-85,-40,86,145,166
-85,10,49,47,39,36,-1,1,-90,-4
55,-6,7,44,48,53,7,-12,-88,-48
289,10,-33,7,35,20,-17,-41,-68,3
167,-31,-80,-29,34,22,-30,-80,-121,-38
105,-28,-90,-39,23,20,-17,-80,-77,-35
46,-38,-24,-12,40,22,-30,-48,-37,-3
-317,-214,-48,6,67,49,19,13,31,-23
-286,-191,-68,-17,32,45,35,20,36,0
-134,-96,-78,-47,-10,47,14,-4,-20,-26
-274,-8,0,12,36,79,44,-39,-95,-180
-245,175,102,88,95,92,36,-73,-146,-201
87,171,63,37,48,22,-26,-113,-133,-34
167,-138,-85,-34,0,16,26,-37,-22,103
12,-223,-102,-30,0,43,96,91,81,125
55,-92,-63,-25,-9,13,96,127,163,167
118,-18,-27,-18,7,13,43,75,78,79
68,66,10,19,36,36,-8,5,9,-21
46,105,29,53,40,81,8,1,31,-16
50,75,62,69,85,80,41,-32,-41,-65
-26,3,73,71,66,-27,-11,-114,-32,-101
-51,-2,57,42,-6,-81,7,-57,154,-40
31,53,66,29,-54,-86,-39,11,125,9
85,42,37,-24,-101,-103,-69,67,10,45
30,24,5,-80,-176,-163,-70,103,56,83
-64,-26,-17,-86,-198,-174,-91,83,42,36
44,68,73,34,-93,-115,-120,-21,-50,-11
110,130,118,88,-1,-4,-72,-47,-67,-5
78,18,8,2,-22,12,21,-18,13,70
64,-34,-86,-60,-29,-4,24,-9,-40,121
87,38,-78,-52,-11,36,70,24,-21,152
26,65,22,-2,9,23,6,-18,-36,101
-61,-2,31,8,37,19,-26,26,80,93
-35,27,22,9,57,30,-15,43,103,4
4,110,42,29,71,30,-76,-90,-68,-153
5,26,-11,0,39,20,-27,-62,75,-84
-44,-59,-15,7,48,88,48,-4,31,-102
-119,-208,-67,4,72,157,127,31,-58,-144
-64,-258,-110,-20,57,144,139,29,-28,-48
-14,-64,-11,3,22,56,40,-20,-51,-13
-10,55,38,12,0,0,-34,-22,-54,-38
-48,-34,-5,-9,-27,-35,-81,6,-16,5
-105,-107,-49,-46,-37,-64,-97,11,38,26
62,55,-8,-42,-6,-68,-69,21,168,60
243,127,23,-19,-14,-82,-75,30,151,143
274,109,49,-10,-45,-109,-112,-1,15,200
170,84,47,6,-12,-63,-56,-22,-51,149
45,25,36,31,27,34,20,-19,-79,83
-28,-12,12,46,13,59,53,-10,-58,10
-181,-52,-16,46,36,85,43,-22,-45,-151
-544,-120,-45,31,95,155,83,0,0,-354
-541,-98,-74,-8,76,118,92,4,-82,-413
-102,22,-45,-51,10,23,40,13,-96,-169
130,51,-8,-24,-27,-14,29,33,46,125
163,11,24,23,9,9,13,-4,5,150
133,-7,-1,-7,-79,-105,-14,1,-23,74
88,0,-16,-42,-152,-164,-32,55,51,62
124,28,0,-18,-67,-67,-39,49,70,108
176,95,56,51,6,-54,-34,16,169,190
25,57,55,84,75,13,-16,3,124,68
-99,-26,14,62,111,84,-21,-20,-42,-99
-57,-25,17,42,56,52,-13,-10,-39,-77
9,24,24,27,25,25,19,16,6,-26
-24,27,7,-24,-38,-14,3,3,-52,-37
-40,20,-25,-68,-71,-16,2,0,-32,-15
145,116,9,-70,-96,-68,-18,2,-18,80
220,135,58,-27,-112,-133,-53,12,-37,116
84,41,41,-7,-73,-98,-67,7,-61,50
-47,-38,19,6,-4,-12,-27,-5,-54,-4
-82,-85,-2,8,26,19,13,-6,-16,17
-1,-71,-35,-14,7,15,23,19,55,53
52,-51,-76,-32,30,50,33,11,73,24
70,-39,-45,-6,45,65,38,-9,48,23
59,-21,-22,5,30,60,30,-36,-2,16
-5,-36,-40,-11,15,60,23,-38,-44,-17
-155,-42,-33,8,46,81,74,42,12,-66
-289,-39,11,45,74,76,53,23,-34,-168
-186,-61,11,38,66,33,-25,-62,-99,-196
2,14,47,40,32,-12,-58,-49,-14,-97
81,103,58,-2,-27,-47,-37,-8,69,-3
98,98,32,-22,-29,-30,45,18,141,89
62,37,-6,-11,24,-4,61,-31,99,141
8,19,-2,-3,25,-4,-36,-69,-108,54
-10,-5,-8,-19,-29,-10,-61,-15,-157,-6
-44,-46,-17,-2,-17,24,10,37,-52,-40
-71,-49,-22,6,6,29,11,16,-55,-90
-92,-72,-38,-13,5,6,34,26,-28,-113
117,-39,-42,-31,-32,-23,41,40,50,-45
159,40,4,-15,-68,-35,24,43,86,60
-76,20,39,18,-63,-18,17,31,41,47
-128,46,60,29,-19,-49,-2,-31,-18,12
-71,82,92,23,-36,-66,-40,-77,-89,-14
63,1,25,-29,-83,-52,-13,-24,-34,51
59,-31,-23,-23,-21,-26,-19,0,17,55
-40,-56,-25,30,115,61,10,-28,-18,-17
21,-48,-18,36,118,82,46,-21,27,19
95,-39,-25,-19,1,7,-26,-24,-25,69
77,-47,-50,-58,-62,-34,-63,-24,-54,76
18,-3,-21,-30,-32,-13,-31,-14,-53,6
-16,74,0,-1,1,18,-1,-6,-69,-54
-4,121,14,-5,22,20,36,21,-19,-21
-58,65,33,11,70,53,31,16,-10,-34
-90,38,65,52,81,66,19,8,20,-32
-10,74,54,55,64,65,77,41,159,25
84,11,-1,17,70,109,65,14,19,6
180,-84,-49,-30,34,91,40,3,-13,40
237,-162,-73,-57,-26,13,3,-3,-6,26
-21,-307,-127,-87,-75,-78,-13,19,39,15
-76,-104,-55,-94,-132,-144,-4,57,110,96
17,139,42,-22,-104,-107,-3,55,67,161
79,187,61,11,-75,-85,-17,12,36,132
-56,153,39,-13,-80,-137,-73,-10,-19,-13
-591,-145,-24,15,-32,-84,-36,26,-11,-246
-427,-274,-29,57,42,38,5,26,1,-243
5,-91,-11,42,73,70,10,-23,-37,-122
133,86,27,19,22,17,-32,-46,-67,-78
151,142,60,35,35,19,-17,-32,-16,-34
117,75,38,48,81,61,32,53,194,69
116,126,54,77,142,100,68,18,207,79
52,89,49,62,156,146,22,-81,-121,-86
23,-35,-18,6,77,104,-24,-103,-241,-121
-20,-73,-58,-33,0,28,-50,-110,-222,-42
-151,-130,-83,-47,-22,16,-29,-73,-165,-29
-145,-151,-108,-58,6,30,24,12,-48,30
51,-24,-72,-38,6,-5,63,71,54,123
200,79,5,-24,-88,-103,37,30,67,203
235,104,56,-24,-159,-140,-54,-23,-67,163
132,99,59,9,-77,-95,-87,-26,-65,96
41,93,86,54,15,-79,-76,-24,44,53
6,71,62,24,-16,-61,-27,10,31,-62
-34,57,17,-4,-44,-33,57,137,191,-71
-66,-79,-37,-19,-77,-17,90,187,305,48
-147,-241,-120,-32,-51,0,105,163,237,46
-75,-111,-33,-17,-71,-60,0,21,78,-42
58,82,71,-1,-76,-89,-82,-35,14,-49
162,149,58,21,13,0,3,14,40,4
25,165,24,-9,-14,-11,30,9,1,-61
-52,93,53,20,0,-5,-19,-63,-74,-97
64,95,95,62,49,24,-65,-135,-158,-26
124,53,15,-10,15,63,-13,-64,-62,121
6,-28,-53,-38,18,81,76,-11,91,121
-90,-98,-73,9,91,93,80,-16,97,31
-91,-75,-21,45,132,105,-32,-57,-128,-72
0,0,0,18,91,116,-62,-49,-179,-51
12,-49,-36,-7,47,100,-3,-1,-81,-16
-91,-90,-17,1,62,50,15,13,-12,-38
-121,-156,-20,21,68,-13,17,-1,14,-32
-123,-224,-122,-62,-45,-121,-21,-25,11,-45
25,-36,-130,-91,-126,-169,-58,-45,-18,-74
-45,83,-23,-29,-100,-103,-50,-5,-28,-116
-249,44,74,50,-25,-22,2,51,3,-102
-144,53,118,97,9,1,-14,62,23,41
61,47,85,53,-14,6,-29,32,9,122
166,50,36,-9,-46,6,-3,29,-28,129
160,37,8,-13,11,75,47,-10,-25,109
110,37,7,-1,30,24,6,-50,13,73
104,63,9,-14,-38,-57,-24,-21,-14,44
135,33,-1,-24,-53,-34,8,22,25,74
102,-23,-15,5,0,-22,-28,-2,-6,5
76,-31,-37,-24,7,-48,-57,-21,-24,-54
80,-20,-43,-59,12,-49,-48,17,11,-38
42,14,16,19,102,76,-1,71,110,-22
-156,23,76,125,209,214,75,21,57,-138
-414,-44,26,68,121,175,111,-24,16,-231
-260,-42,-26,-22,-35,48,82,36,8,-138
55,-26,-23,-28,-84,-58,23,66,4,32
123,-4,-2,4,-72,-129,-19,18,-2,68
73,88,33,-46,-163,-208,-38,-18,4,84
-21,121,64,-53,-187,-230,-51,-23,23,47
0,121,96,20,-89,-168,-20,14,44,11
100,113,63,18,-33,-99,-19,11,49,39
-20,11,-4,-9,7,1,-45,-25,-10,12
-73,-22,4,4,42,39,-58,-42,-34,11
3,-63,-21,2,90,118,-30,-42,-36,34
-2,-110,-69,-3,108,178,42,-44,-38,28
-1,-109,-90,-2,99,170,103,-30,-53,35
-4,-65,-58,-3,66,112,97,-9,-49,-1
-40,-17,-21,0,27,36,73,-8,62,40
-29,21,-17,0,18,-1,53,-6,91,33
64,74,-20,-12,30,-43,-104,-107,-210,-143
205,163,1,-12,43,-29,-135,-123,-179,-31
230,216,54,20,36,17,-46,-2,69,247
42,125,55,30,6,17,44,80,70,148
-250,-185,-32,17,15,46,112,109,17,-128
-387,-450,-113,2,40,65,123,97,40,-243
-91,-233,-49,0,-11,8,98,121,265,-108
64,-37,12,4,-32,5,44,212,348,-38
236,97,15,-34,-86,-69,-14,138,237,100
306,145,6,-45,-97,-110,-70,13,116,162
11,96,69,-9,-49,-86,-96,-109,-132,-97
-125,92,49,-21,-58,-61,-97,-141,-216,-168
-62,42,-12,-37,-62,-50,-61,-79,-104,-38
12,-26,-43,-22,-16,-25,-25,-40,-4,74
107,21,-20,-14,-12,12,0,-27,-10,153
141,88,-2,3,22,33,-27,-32,-57,140
-51,-30,-34,36,96,94,46,31,21,43
-306,-94,-6,72,114,128,102,59,23,-119
-310,-55,55,84,92,102,52,-6,-101,-177
-82,25,42,39,23,25,-30,-71,-160,-111
114,76,-6,-46,-80,-55,-71,-93,-144,19
188,65,-16,-49,-88,-91,-13,-38,45,175
26,2,-49,-55,-51,-53,66,29,173,93
-19,-82,-42,-34,-28,1,17,71,112,-33
60,-138,-1,14,7,43,-40,85,-14,-45
-25,-102,25,44,33,48,-9,4,-134,-149
-167,-12,48,22,8,4,-5,-9,-110,-195
-108,45,22,-9,-19,-19,-17,-7,8,-33
107,78,0,-6,-4,5,-8,-29,5,54
91,53,0,-10,1,39,37,14,66,58
16,0,2,2,26,90,64,43,53,19
-30,-139,-64,13,73,106,71,-7,-58,-15
-86,-166,-85,-11,53,68,16,-43,-86,-3
-28,49,7,8,29,44,4,-30,-63,19
25,97,27,23,16,-5,16,-7,-31,26
56,-27,-40,-43,-29,-79,-6,-15,-38,37
105,-59,-68,-93,-124,-196,-67,-28,15,98
166,-30,-13,-48,-120,-198,-85,-22,5,109
150,-103,15,42,-7,-91,-18,26,10,73
107,32,62,84,39,-41,-11,33,32,29
63,177,117,67,26,-30,-21,-6,34,-13
-33,107,101,50,76,39,-8,59,186,-24
-91,26,73,26,42,37,15,82,222,33
-100,22,19,-12,-10,39,55,38,152,75
-77,59,-17,-25,11,91,109,-2,98,41
-40,82,3,-18,-9,39,-48,-121,-163,-73
25,-4,-32,-38,27,39,-113,-131,-289,-93
69,-91,-54,-51,13,2,-66,-60,-175,-72
96,-76,-65,-58,-71,-84,-46,-12,-54,-48
38,-47,-55,-47,-94,-56,-18,5,-76,-24
-49,-65,-27,4,-45,-18,18,14,-77,-12
-88,-47,-16,31,10,19,28,0,-60,21
4,80,19,7,-14,-8,-5,11,-61,112
31,111,48,10,-36,-19,-2,-11,-95,101
-25,26,48,50,31,44,0,-29,-58,23
-14,-51,9,40,49,44,32,81,212,104
-14,-65,-35,8,24,29,72,74,187,-30
-125,-31,-38,12,48,15,38,-5,-7,-283
-118,32,-12,-20,-2,-10,33,91,235,-203
-80,149,96,20,-42,-24,22,108,260,-79
-62,-14,62,48,15,22,-55,-16,-93,-39
-106,-138,-18,39,71,45,-83,-136,-241,-11
-100,-123,-32,13,40,-9,-54,-95,-183,57
13,-58,-35,-20,-27,-10,22,-28,-81,121
60,3,-27,-32,-70,5,76,23,0,149
88,9,-27,-26,-57,6,104,49,60,115
146,24,-19,17,35,22,95,20,74,11
158,52,-21,7,40,-22,-55,-33,-84,-129
52,28,-45,-64,-39,-22,-21,48,87,-49
-6,21,0,-48,-32,50,38,103,98,2
-66,68,93,41,50,61,2,-10,-99,-17
0,79,100,62,45,3,-65,-77,-137,16
177,48,23,-5,-35,-45,-47,-24,-12,102
355,53,-4,-41,-95,-99,-38,-3,23,139
323,12,-44,-49,-103,-123,-45,33,75,195
135,-77,-99,-72,-89,-110,-69,-11,-25,149
-63,-116,-45,-52,-28,-62,-55,-60,-116,44
-201,-54,71,41,22,-26,-28,-39,-43,-13
-341,54,100,65,54,1,-13,-1,50,-113
-537,38,53,38,34,7,13,59,133,-272
-375,1,22,23,21,-1,18,85,170,-290
99,124,5,22,88,74,134,104,311,-39
318,138,15,16,50,12,46,-1,120,75
128,-29,7,-30,-47,-54,-132,-114,-278,-58
-22,-58,-17,-16,-24,5,-78,-65,-272,-83
-183,-106,-30,-3,10,46,-12,-17,-141,-27
-202,-156,-55,-12,23,65,47,21,-55,15
6,-72,-68,-6,33,65,81,48,37,108
143,24,-67,-15,10,41,59,23,67,130
89,96,-32,-9,-20,11,-2,-26,19,36
-76,74,38,19,14,20,-3,-40,-7,-76
-47,-34,28,43,71,56,5,-65,-68,-98
41,-179,-32,43,87,74,47,-39,-91,-26
18,-186,-45,10,48,68,75,3,-59,54
32,-87,-64,-17,8,31,59,29,-21,49
63,-1,-47,-44,-33,-51,-24,6,-10,25
62,85,26,-17,-61,-99,-95,-8,22,2
6,89,36,-19,-88,-119,-100,49,115,19
-21,52,12,-51,-92,-85,-34,108,215,21
-15,34,15,-20,9,94,52,68,68,-18
14,21,21,37,103,161,87,-5,-64,-49
97,-10,-7,25,86,99,49,-53,-111,-29
73,-30,-3,35,107,60,-2,-77,-97,4
-43,-23,10,56,105,36,9,-89,-14,6
-80,1,-8,14,6,-30,17,-65,56,14
22,46,-12,-52,-141,-133,-50,17,13,40
32,51,10,-26,-106,-93,-46,61,-30,23
-17,84,66,35,-28,-44,-30,66,30,-4
54,144,112,21,-81,-142,-78,66,109,23
117,134,75,-39,-142,-156,-78,33,62,29
118,74,47,-48,-104,-100,-42,2,18,27
19,3,17,-5,20,-5,-3,-53,-30,48
-59,-25,-11,29,173,104,20,-70,-91,4
-68,-53,-38,57,263,211,53,-61,-90,-33
-68,-195,-97,47,208,199,39,-55,-58,-40
-69,-267,-134,8,76,98,27,-27,-3,-58
-183,-107,-84,-23,-43,42,53,32,36,-141
22,171,30,-40,-162,-79,-7,14,17,-18
367,304,105,-40,-244,-237,-59,-45,84,238
386,225,74,-58,-249,-247,-37,28,180,311
240,96,41,-67,-199,-152,-54,68,68,191
39,-60,37,-26,-120,-76,-45,61,91,91
-225,-220,20,47,15,34,27,57,95,-70
-405,-179,-18,77,141,150,134,92,60,-269
-398,57,-4,53,126,120,99,27,2,-325
-312,118,3,15,58,56,45,-52,-74,-199
49,107,5,5,5,23,8,-100,-112,46
192,-109,-39,8,53,71,-55,-96,-187,81
100,-239,-48,26,87,92,-24,-34,-81,53
33,-105,-31,0,60,50,-2,-15,-33,-84
21,61,-1,-20,43,43,-25,-26,-23,-187
29,94,14,15,70,70,2,-3,31,-24
