(0.09899902, 0.360534668, 0.873535156, 0.311584473)
(0.09899902, 0.360534668, 0.873535156, 0.311584473)
(0.09893799, 0.360656738, 0.8734741, 0.3116455)
(0.09875488, 0.360656738, 0.8734741, 0.3116455)
(0.09875488, 0.360656738, 0.8734741, 0.3116455)
(0.09875488, 0.3605957, 0.8734741, 0.3116455)
(0.09875488, 0.3605957, 0.8734741, 0.3116455)
(0.09869385, 0.360534668, 0.8736572, 0.3112793)
(0.09869385, 0.360534668, 0.8736572, 0.3112793)
(0.09857178, 0.360900879, 0.8737793, 0.310546875)
(0.09857178, 0.360900879, 0.8737793, 0.310546875)
(0.09838867, 0.361022949, 0.8741455, 0.309448242)
(0.09838867, 0.361022949, 0.8741455, 0.309448242)
(0.09765625, 0.360351563, 0.875061035, 0.307861328)
(0.09698486, 0.359436035, 0.876281738, 0.3057251)
(0.09698486, 0.359436035, 0.876281738, 0.3057251)
(0.0960693359, 0.358642578, 0.877319336, 0.303833)
(0.0960693359, 0.358642578, 0.877319336, 0.303833)
(0.09527588, 0.359069824, 0.8777466, 0.302368164)
(0.09527588, 0.359069824, 0.8777466, 0.302368164)
(0.09460449, 0.359375, 0.8782959, 0.3007202)
(0.09399414, 0.359313965, 0.8790283, 0.298706055)
(0.09399414, 0.359313965, 0.8790283, 0.298706055)
(0.0934448242, 0.359436035, 0.879760742, 0.2966919)
(0.0934448242, 0.359436035, 0.879760742, 0.2966919)
(0.09320068, 0.359680176, 0.880249, 0.29486084)
(0.09320068, 0.359680176, 0.880249, 0.29486084)
(0.09307861, 0.3602295, 0.880493164, 0.2935791)
(0.09307861, 0.3602295, 0.880493164, 0.2935791)
(0.0938110352, 0.361755371, 0.8800659, 0.292785645)
(0.0938110352, 0.361755371, 0.8800659, 0.292785645)
(0.09454346, 0.3632202, 0.8796387, 0.292053223)
(0.09503174, 0.3647461, 0.8792114, 0.291259766)
(0.09503174, 0.3647461, 0.8792114, 0.291259766)
(0.09527588, 0.3657837, 0.8789673, 0.290588379)
(0.09527588, 0.3657837, 0.8789673, 0.290588379)
(0.0954589844, 0.366027832, 0.879089355, 0.289855957)
(0.095703125, 0.366333, 0.8791504, 0.28918457)
(0.095703125, 0.366333, 0.8791504, 0.28918457)
(0.09655762, 0.368103027, 0.8788452, 0.287719727)
(0.09655762, 0.368103027, 0.8788452, 0.287719727)
(0.09655762, 0.368103027, 0.8788452, 0.287719727)
(0.09661865, 0.370239258, 0.878051758, 0.287231445)
(0.09741211, 0.372436523, 0.876709, 0.288269043)
(0.09741211, 0.372436523, 0.876709, 0.288269043)
(0.0982666, 0.3741455, 0.8757324, 0.288818359)
(0.0982666, 0.3741455, 0.8757324, 0.288818359)
(0.09869385, 0.376098633, 0.875, 0.288146973)
(0.09881592, 0.378540039, 0.8743286, 0.2869873)
(0.09881592, 0.378540039, 0.8743286, 0.2869873)
(0.09942627, 0.3807373, 0.8734131, 0.286743164)
(0.09942627, 0.3807373, 0.8734131, 0.286743164)
(0.100402832, 0.381958, 0.872314453, 0.2880249)
(0.100402832, 0.381958, 0.872314453, 0.2880249)
(0.101379395, 0.382385254, 0.8717041, 0.289001465)
(0.101379395, 0.382385254, 0.8717041, 0.289001465)
(0.102172852, 0.382019043, 0.871521, 0.2897339)
(0.102172852, 0.382019043, 0.871521, 0.2897339)
(0.10333252, 0.381103516, 0.871765137, 0.289855957)
(0.10333252, 0.381103516, 0.871765137, 0.289855957)
(0.104370117, 0.380493164, 0.8718872, 0.289917)
(0.105895996, 0.379394531, 0.8721924, 0.289794922)
(0.105895996, 0.379394531, 0.8721924, 0.289794922)
(0.108459473, 0.379455566, 0.871948242, 0.289489746)
(0.111816406, 0.380432129, 0.871276855, 0.2890625)
(0.111816406, 0.380432129, 0.871276855, 0.2890625)
(0.114379883, 0.379089355, 0.871582031, 0.2888794)
(0.114379883, 0.379089355, 0.871582031, 0.2888794)
(0.116027832, 0.375488281, 0.87298584, 0.2886963)
(0.116027832, 0.375488281, 0.87298584, 0.2886963)
(0.117614746, 0.3731079, 0.8739624, 0.288146973)
(0.117614746, 0.3731079, 0.8739624, 0.288146973)
(0.119018555, 0.373901367, 0.873535156, 0.287780762)
(0.119018555, 0.373901367, 0.873535156, 0.287780762)
(0.119812012, 0.3746338, 0.873352051, 0.287231445)
(0.120849609, 0.37677002, 0.872497559, 0.286499023)
(0.120849609, 0.37677002, 0.872497559, 0.286499023)
(0.121765137, 0.379760742, 0.87109375, 0.286376953)
(0.121765137, 0.379760742, 0.87109375, 0.286376953)
(0.12286377, 0.381103516, 0.8703003, 0.286560059)
(0.122436523, 0.380126953, 0.870605469, 0.2871704)
(0.122436523, 0.380126953, 0.870605469, 0.2871704)
(0.121643066, 0.377563477, 0.871765137, 0.287353516)
(0.121643066, 0.377563477, 0.871765137, 0.287353516)
(0.121887207, 0.3765869, 0.872131348, 0.287353516)
(0.121887207, 0.3765869, 0.872131348, 0.287353516)
(0.122924805, 0.378234863, 0.871276855, 0.2874756)
(0.122924805, 0.378234863, 0.871276855, 0.2874756)
(0.123352051, 0.379760742, 0.870544434, 0.2874756)
(0.123352051, 0.379760742, 0.870544434, 0.2874756)
(0.123413086, 0.379760742, 0.870544434, 0.2874756)
(0.123291016, 0.3798828, 0.870544434, 0.287353516)
(0.123291016, 0.3798828, 0.870544434, 0.287353516)
(0.123291016, 0.3798828, 0.870544434, 0.287353516)
(0.123046875, 0.379943848, 0.8704834, 0.2874756)
(0.122802734, 0.379394531, 0.870727539, 0.287597656)
(0.122802734, 0.379394531, 0.870727539, 0.287597656)
(0.122619629, 0.379089355, 0.870727539, 0.287963867)
(0.122619629, 0.379089355, 0.870727539, 0.287963867)
(0.1227417, 0.379821777, 0.8703003, 0.2883911)
(0.1227417, 0.379821777, 0.8703003, 0.2883911)
(0.1227417, 0.3798828, 0.870056152, 0.28894043)
(0.122253418, 0.378601074, 0.870544434, 0.289489746)
(0.122253418, 0.378601074, 0.870544434, 0.289489746)
(0.121887207, 0.378051758, 0.870605469, 0.290161133)
(0.121887207, 0.378051758, 0.870605469, 0.290161133)
(0.121948242, 0.377990723, 0.870422363, 0.29083252)
(0.122558594, 0.3782959, 0.8699951, 0.291259766)
(0.122558594, 0.3782959, 0.8699951, 0.291259766)
(0.1227417, 0.378356934, 0.869751, 0.291931152)
(0.1227417, 0.378356934, 0.869751, 0.291931152)
(0.122497559, 0.377563477, 0.869873047, 0.292602539)
(0.122497559, 0.377563477, 0.869873047, 0.292602539)
(0.122497559, 0.376953125, 0.869873047, 0.293457031)
(0.122497559, 0.376953125, 0.869873047, 0.293457031)
(0.122802734, 0.377746582, 0.86920166, 0.294372559)
(0.122802734, 0.377746582, 0.86920166, 0.294372559)
(0.12286377, 0.3781128, 0.8687134, 0.295227051)
(0.122680664, 0.377380371, 0.8687744, 0.295959473)
(0.122680664, 0.377380371, 0.8687744, 0.295959473)
(0.1227417, 0.376831055, 0.8687744, 0.296813965)
(0.1227417, 0.376831055, 0.8687744, 0.296813965)
(0.12322998, 0.377380371, 0.868103, 0.297790527)
(0.12322998, 0.377380371, 0.868103, 0.297790527)
(0.1237793, 0.377380371, 0.8676758, 0.2987671)
(0.1237793, 0.377380371, 0.8676758, 0.2987671)
(0.123657227, 0.376159668, 0.867980957, 0.299560547)
(0.123291016, 0.375061035, 0.868347168, 0.299926758)
(0.123291016, 0.375061035, 0.868347168, 0.299926758)
(0.12286377, 0.374694824, 0.8684082, 0.300476074)
(0.12286377, 0.374694824, 0.8684082, 0.300476074)
(0.122131348, 0.374206543, 0.868652344, 0.30065918)
(0.122131348, 0.374206543, 0.868652344, 0.30065918)
(0.122131348, 0.374267578, 0.8685913, 0.3007202)
(0.122253418, 0.37487793, 0.868286133, 0.30078125)
(0.122253418, 0.37487793, 0.868286133, 0.30078125)
(0.122314453, 0.374572754, 0.868347168, 0.3010254)
(0.122314453, 0.374572754, 0.868347168, 0.3010254)
(0.122192383, 0.373535156, 0.8687134, 0.301269531)
(0.122192383, 0.373535156, 0.8687134, 0.301269531)
(0.12310791, 0.373168945, 0.868652344, 0.301513672)
(0.12310791, 0.373168945, 0.868652344, 0.301513672)
(0.123840332, 0.37322998, 0.868469238, 0.301696777)
(0.123840332, 0.37322998, 0.868469238, 0.301696777)
(0.123840332, 0.371948242, 0.869018555, 0.301696777)
(0.123535156, 0.369873047, 0.869873047, 0.301818848)
(0.123535156, 0.369873047, 0.869873047, 0.301818848)
(0.123840332, 0.370239258, 0.8696289, 0.302001953)
(0.123840332, 0.370239258, 0.8696289, 0.302001953)
(0.124023438, 0.3717041, 0.8688965, 0.302307129)
(0.124023438, 0.3717041, 0.8688965, 0.302307129)
(0.123413086, 0.371276855, 0.8691406, 0.302368164)
(0.122436523, 0.3701172, 0.869812, 0.3022461)
(0.122436523, 0.3701172, 0.869812, 0.3022461)
(0.122253418, 0.370056152, 0.869812, 0.3024292)
(0.122253418, 0.370056152, 0.869812, 0.3024292)
(0.122070313, 0.370422363, 0.8696289, 0.30255127)
(0.122070313, 0.370422363, 0.8696289, 0.30255127)
(0.122070313, 0.370178223, 0.869689941, 0.30267334)
(0.122070313, 0.370178223, 0.869689941, 0.30267334)
(0.121948242, 0.370056152, 0.869751, 0.3027954)
(0.122009277, 0.370422363, 0.8696289, 0.3026123)
(0.122009277, 0.370422363, 0.8696289, 0.3026123)
(0.121887207, 0.369995117, 0.8699341, 0.3022461)
(0.121887207, 0.369995117, 0.8699341, 0.3022461)
(0.121887207, 0.369995117, 0.8699341, 0.3022461)
(0.121826172, 0.3696289, 0.8701782, 0.302001953)
(0.121887207, 0.369812, 0.8701172, 0.301879883)
(0.121398926, 0.369384766, 0.870422363, 0.301818848)
(0.121398926, 0.369384766, 0.870422363, 0.301818848)
(0.121154785, 0.3682251, 0.870910645, 0.301879883)
(0.121154785, 0.3682251, 0.870910645, 0.301879883)
(0.121154785, 0.3684082, 0.8708496, 0.301940918)
(0.121154785, 0.3684082, 0.8708496, 0.301940918)
(0.121154785, 0.368835449, 0.8706665, 0.3017578)
(0.121154785, 0.368835449, 0.8706665, 0.3017578)
(0.120910645, 0.368530273, 0.870910645, 0.301696777)
(0.120910645, 0.368530273, 0.870910645, 0.301696777)
(0.120910645, 0.368530273, 0.870910645, 0.301696777)
(0.121337891, 0.369567871, 0.8703003, 0.301879883)
(0.121337891, 0.369567871, 0.8703003, 0.301879883)
(0.121154785, 0.369812, 0.8701172, 0.302185059)
(0.121154785, 0.369812, 0.8701172, 0.302185059)
(0.120849609, 0.3685913, 0.8706665, 0.3022461)
(0.120849609, 0.3685913, 0.8706665, 0.3022461)
(0.120605469, 0.367919922, 0.8708496, 0.3026123)
(0.120605469, 0.367919922, 0.8708496, 0.3026123)
(0.120544434, 0.368042, 0.8706665, 0.302978516)
(0.120544434, 0.368042, 0.8706665, 0.302978516)
(0.120788574, 0.368530273, 0.8703613, 0.3032837)
(0.120544434, 0.368286133, 0.870422363, 0.3034668)
(0.120544434, 0.368286133, 0.870422363, 0.3034668)
(0.120544434, 0.367736816, 0.8706665, 0.3034668)
(0.120544434, 0.367736816, 0.8706665, 0.3034668)
(0.120300293, 0.367248535, 0.870910645, 0.303344727)
(0.119995117, 0.3671875, 0.8710327, 0.3032837)
(0.119995117, 0.3671875, 0.8710327, 0.3032837)
(0.119995117, 0.367248535, 0.8710327, 0.3032837)
(0.119995117, 0.367248535, 0.8710327, 0.3032837)
(0.120178223, 0.3678589, 0.870727539, 0.3032837)
(0.120178223, 0.3678589, 0.870727539, 0.3032837)
(0.120422363, 0.368347168, 0.8704834, 0.303344727)
(0.120422363, 0.368347168, 0.8704834, 0.303344727)
(0.120239258, 0.367919922, 0.870605469, 0.3034668)
(0.120239258, 0.367919922, 0.870605469, 0.3034668)
(0.119812012, 0.36706543, 0.8709717, 0.303710938)
(0.119628906, 0.3668213, 0.8709717, 0.3040161)
(0.119628906, 0.3668213, 0.8709717, 0.3040161)
(0.119689941, 0.366882324, 0.8708496, 0.304260254)
(0.119689941, 0.366882324, 0.8708496, 0.304260254)
(0.119689941, 0.366882324, 0.8708496, 0.304260254)
(0.119689941, 0.366882324, 0.8708496, 0.304260254)
(0.119384766, 0.3668213, 0.870910645, 0.304199219)
(0.118896484, 0.366943359, 0.8709717, 0.304138184)
(0.118896484, 0.366943359, 0.8709717, 0.304138184)
(0.118896484, 0.366943359, 0.8709717, 0.304138184)
(0.118896484, 0.366943359, 0.8709717, 0.304138184)
(0.118896484, 0.367431641, 0.8707886, 0.304138184)
(0.118896484, 0.367431641, 0.8707886, 0.304138184)
(0.118713379, 0.3671875, 0.870910645, 0.304077148)
(0.118713379, 0.3671875, 0.870910645, 0.304077148)
(0.118286133, 0.366577148, 0.8712158, 0.304077148)
(0.117919922, 0.366577148, 0.8713379, 0.303955078)
(0.117919922, 0.366577148, 0.8713379, 0.303955078)
(0.117736816, 0.366638184, 0.8713379, 0.303955078)
(0.117736816, 0.366638184, 0.8713379, 0.303955078)
(0.117492676, 0.366455078, 0.871459961, 0.303894043)
(0.117492676, 0.366455078, 0.871459961, 0.303894043)
(0.117370605, 0.366638184, 0.8713989, 0.303894043)
(0.117370605, 0.366638184, 0.8713989, 0.303894043)
(0.11730957, 0.3668213, 0.871276855, 0.304077148)
(0.11730957, 0.3668213, 0.871276855, 0.304077148)
(0.11730957, 0.366882324, 0.871276855, 0.304077148)
(0.117126465, 0.366943359, 0.8712158, 0.304138184)
(0.117126465, 0.366943359, 0.8712158, 0.304138184)
(0.116577148, 0.3659668, 0.8718262, 0.303833)
(0.116577148, 0.3659668, 0.8718262, 0.303833)
(0.116210938, 0.365234375, 0.8722534, 0.3036499)
(0.1161499, 0.365661621, 0.8720093, 0.303710938)
(0.1161499, 0.365661621, 0.8720093, 0.303710938)
(0.116394043, 0.366699219, 0.871521, 0.303894043)
(0.116394043, 0.366699219, 0.871521, 0.303894043)
(0.116210938, 0.366394043, 0.871582031, 0.304077148)
(0.116210938, 0.366394043, 0.871582031, 0.304077148)
(0.115844727, 0.3657837, 0.8718872, 0.304199219)
(0.115844727, 0.3657837, 0.8718872, 0.304199219)
(0.115539551, 0.3651123, 0.872131348, 0.3043213)
(0.115539551, 0.3651123, 0.872131348, 0.3043213)
(0.115600586, 0.365234375, 0.8720703, 0.304382324)
(0.115783691, 0.3657837, 0.8718262, 0.3043213)
(0.115783691, 0.3657837, 0.8718262, 0.3043213)
(0.115844727, 0.3657837, 0.8718262, 0.3043213)
(0.115844727, 0.3657837, 0.8718262, 0.3043213)
(0.115661621, 0.365539551, 0.8720093, 0.304138184)
(0.115661621, 0.365539551, 0.8720093, 0.304138184)
(0.115356445, 0.3651123, 0.8722534, 0.3040161)
(0.11541748, 0.365844727, 0.8720093, 0.303894043)
(0.11541748, 0.365844727, 0.8720093, 0.303894043)
(0.115600586, 0.366699219, 0.871582031, 0.303955078)
(0.115600586, 0.366699219, 0.871582031, 0.303955078)
(0.11541748, 0.366455078, 0.871765137, 0.303833)
(0.11541748, 0.366455078, 0.871765137, 0.303833)
(0.11541748, 0.3661499, 0.8718262, 0.3040161)
(0.11541748, 0.3661499, 0.8718262, 0.3040161)
(0.11517334, 0.366027832, 0.871765137, 0.3043213)
(0.115356445, 0.366210938, 0.871582031, 0.30456543)
(0.115356445, 0.366210938, 0.871582031, 0.30456543)
(0.115356445, 0.366638184, 0.8713379, 0.30480957)
(0.115356445, 0.366638184, 0.8713379, 0.30480957)
(0.115539551, 0.366882324, 0.8712158, 0.3048706)
(0.115539551, 0.366882324, 0.8712158, 0.3048706)
(0.115600586, 0.366882324, 0.8712158, 0.3048706)
(0.115600586, 0.366882324, 0.8712158, 0.3048706)
(0.115356445, 0.3665161, 0.871459961, 0.30456543)
(0.115356445, 0.3665161, 0.871459961, 0.30456543)
(0.115356445, 0.366210938, 0.871643066, 0.304443359)
(0.115112305, 0.366210938, 0.871765137, 0.304260254)
(0.115112305, 0.366210938, 0.871765137, 0.304260254)
(0.11505127, 0.3659668, 0.8718872, 0.304260254)
(0.11505127, 0.3659668, 0.8718872, 0.304260254)
(0.11505127, 0.3659668, 0.8718872, 0.304260254)
(0.11517334, 0.366577148, 0.871582031, 0.3043213)
(0.11517334, 0.366577148, 0.871582031, 0.3043213)
(0.114807129, 0.366271973, 0.871765137, 0.3043213)
(0.114807129, 0.366271973, 0.871765137, 0.3043213)
(0.114501953, 0.3652954, 0.872131348, 0.304443359)
(0.114501953, 0.3652954, 0.872131348, 0.304443359)
(0.114196777, 0.364807129, 0.8723755, 0.304443359)
(0.114196777, 0.364807129, 0.8723755, 0.304443359)
(0.114196777, 0.3652954, 0.872131348, 0.30456543)
(0.114196777, 0.3652954, 0.872131348, 0.30456543)
(0.114013672, 0.365661621, 0.8720093, 0.3046875)
(0.113769531, 0.365356445, 0.872131348, 0.3046875)
(0.113769531, 0.365356445, 0.872131348, 0.3046875)
(0.113769531, 0.3652954, 0.8721924, 0.3046875)
(0.113769531, 0.3652954, 0.8721924, 0.3046875)
(0.113769531, 0.3652954, 0.8721924, 0.3046875)
(0.113769531, 0.365722656, 0.8720093, 0.30456543)
(0.113830566, 0.365722656, 0.8720093, 0.30456543)
(0.113830566, 0.365722656, 0.8720093, 0.30456543)
(0.113830566, 0.365722656, 0.8720093, 0.3046875)
(0.113769531, 0.365905762, 0.8718872, 0.3048706)
(0.113769531, 0.365905762, 0.8718872, 0.3048706)
(0.113586426, 0.365478516, 0.8720703, 0.3048706)
(0.113586426, 0.365478516, 0.8720703, 0.3048706)
(0.11328125, 0.3649292, 0.8722534, 0.304992676)
(0.11328125, 0.3649292, 0.8722534, 0.304992676)
(0.113220215, 0.36505127, 0.8721924, 0.304992676)
(0.11328125, 0.36541748, 0.8720703, 0.3048706)
(0.11328125, 0.36541748, 0.8720703, 0.3048706)
(0.113098145, 0.3651123, 0.8723755, 0.30456543)
(0.113098145, 0.3651123, 0.8723755, 0.30456543)
(0.113098145, 0.364624023, 0.872680664, 0.3043213)
(0.113098145, 0.364624023, 0.872680664, 0.3043213)
(0.113098145, 0.364624023, 0.872680664, 0.3043213)
(0.113098145, 0.364624023, 0.872680664, 0.3043213)
(0.11328125, 0.364379883, 0.87286377, 0.303955078)
(0.113342285, 0.364135742, 0.8731079, 0.303588867)
(0.113342285, 0.364135742, 0.8731079, 0.303588867)
(0.113098145, 0.363647461, 0.8734131, 0.303344727)
(0.113098145, 0.363647461, 0.8734131, 0.303344727)
(0.113098145, 0.363647461, 0.8734131, 0.303344727)
(0.112854004, 0.36340332, 0.8735962, 0.303161621)
(0.112915039, 0.3638916, 0.8734131, 0.303161621)
(0.112854004, 0.364563, 0.873168945, 0.3031006)
(0.112854004, 0.364563, 0.873168945, 0.3031006)
(0.112854004, 0.364440918, 0.87323, 0.303039551)
(0.112854004, 0.364440918, 0.87323, 0.303039551)
(0.112854004, 0.364563, 0.87323, 0.302856445)
(0.112854004, 0.364563, 0.87323, 0.302856445)
(0.112976074, 0.36505127, 0.8730469, 0.30267334)
(0.112976074, 0.36505127, 0.8730469, 0.30267334)
(0.113037109, 0.364990234, 0.873168945, 0.3024292)
(0.113037109, 0.364990234, 0.873168945, 0.3024292)
(0.113098145, 0.364685059, 0.873352051, 0.302368164)
(0.113220215, 0.364807129, 0.873291, 0.302368164)
(0.113220215, 0.364807129, 0.873291, 0.302368164)
(0.113220215, 0.364807129, 0.873291, 0.302307129)
(0.113220215, 0.364807129, 0.873291, 0.302307129)
(0.11315918, 0.364624023, 0.8734131, 0.3022461)
(0.11315918, 0.364624023, 0.8734131, 0.3022461)
(0.112976074, 0.364563, 0.8734741, 0.302124023)
(0.112976074, 0.364563, 0.8734741, 0.302124023)
(0.112792969, 0.364563, 0.873535156, 0.302001953)
(0.1126709, 0.364563, 0.8735962, 0.301879883)
(0.1126709, 0.364563, 0.8735962, 0.301879883)
(0.1126709, 0.364563, 0.8735962, 0.301879883)
(0.112182617, 0.363769531, 0.874023438, 0.301818848)
(0.112121582, 0.36340332, 0.8741455, 0.301818848)
(0.112121582, 0.36340332, 0.8741455, 0.301818848)
(0.112121582, 0.36340332, 0.874206543, 0.301818848)
(0.112121582, 0.36340332, 0.874206543, 0.301818848)
(0.112121582, 0.363464355, 0.8741455, 0.301818848)
(0.112182617, 0.3633423, 0.874206543, 0.3017578)
(0.112182617, 0.3633423, 0.874206543, 0.3017578)
(0.112304688, 0.363647461, 0.8740845, 0.301696777)
(0.112304688, 0.363647461, 0.8740845, 0.301696777)
(0.112487793, 0.364013672, 0.8739624, 0.301635742)
(0.112487793, 0.364013672, 0.8739624, 0.301635742)
(0.112548828, 0.364013672, 0.873901367, 0.301635742)
(0.112548828, 0.364013672, 0.873901367, 0.301635742)
(0.112548828, 0.364196777, 0.873840332, 0.3017578)
(0.112609863, 0.364196777, 0.873840332, 0.3017578)
(0.112609863, 0.364196777, 0.873840332, 0.3017578)
(0.112609863, 0.364196777, 0.873840332, 0.301696777)
(0.112609863, 0.364196777, 0.873840332, 0.301696777)
(0.1126709, 0.364135742, 0.873840332, 0.301696777)
(0.1126709, 0.364135742, 0.873840332, 0.301696777)
(0.1126709, 0.364135742, 0.873840332, 0.301696777)
(0.1126709, 0.364135742, 0.873840332, 0.301696777)
(0.112915039, 0.3642578, 0.873718262, 0.301696777)
(0.112976074, 0.3642578, 0.873840332, 0.301513672)
(0.112976074, 0.3642578, 0.873840332, 0.301513672)
(0.113098145, 0.3638916, 0.8740845, 0.301147461)
(0.113098145, 0.3638916, 0.8740845, 0.301147461)
(0.11315918, 0.3638916, 0.874206543, 0.30078125)
(0.11315918, 0.3638916, 0.874206543, 0.30078125)
(0.11328125, 0.364379883, 0.8740845, 0.300476074)
(0.11328125, 0.364379883, 0.8740845, 0.300476074)
(0.113342285, 0.364379883, 0.8740845, 0.300476074)
(0.113342285, 0.364440918, 0.874023438, 0.300476074)
(0.113342285, 0.364440918, 0.874023438, 0.300476074)
(0.113220215, 0.364196777, 0.8741455, 0.3005371)
(0.113220215, 0.364196777, 0.8741455, 0.3005371)
(0.113220215, 0.364196777, 0.8740845, 0.3007202)
(0.113220215, 0.364196777, 0.8740845, 0.3007202)
(0.113342285, 0.364440918, 0.873840332, 0.300964355)
(0.113464355, 0.364318848, 0.873840332, 0.301086426)
(0.113464355, 0.364318848, 0.873840332, 0.301086426)
(0.113586426, 0.364196777, 0.873840332, 0.3012085)
(0.113586426, 0.364196777, 0.873840332, 0.3012085)
(0.113586426, 0.364196777, 0.873840332, 0.3012085)
(0.113586426, 0.364196777, 0.873840332, 0.3012085)
(0.113586426, 0.364196777, 0.873840332, 0.3012085)
(0.113586426, 0.364196777, 0.873840332, 0.3012085)
(0.113647461, 0.364379883, 0.873840332, 0.301086426)
(0.113647461, 0.364379883, 0.873840332, 0.301086426)
(0.113647461, 0.364379883, 0.873840332, 0.301086426)
(0.11340332, 0.3640747, 0.8739624, 0.3010254)
(0.11340332, 0.3640747, 0.8739624, 0.3010254)
(0.11328125, 0.363769531, 0.8741455, 0.300964355)
(0.11328125, 0.363769531, 0.8741455, 0.300964355)
(0.11328125, 0.3637085, 0.874206543, 0.300964355)
(0.11328125, 0.3637085, 0.874206543, 0.300964355)
(0.113342285, 0.363952637, 0.874206543, 0.3007202)
(0.11328125, 0.363647461, 0.8744507, 0.300292969)
(0.11328125, 0.363647461, 0.8744507, 0.300292969)
(0.113098145, 0.362976074, 0.8748169, 0.300109863)
(0.113098145, 0.362976074, 0.8748169, 0.300109863)
(0.112792969, 0.362854, 0.874938965, 0.2999878)
(0.112792969, 0.362854, 0.874938965, 0.2999878)
(0.1126709, 0.36315918, 0.8748779, 0.299926758)
(0.112365723, 0.363464355, 0.8748169, 0.299865723)
(0.112365723, 0.363464355, 0.8748169, 0.299865723)
(0.112121582, 0.363464355, 0.8748779, 0.299682617)
(0.112121582, 0.363464355, 0.8748779, 0.299682617)
(0.111816406, 0.3633423, 0.875, 0.299621582)
(0.111816406, 0.3633423, 0.875, 0.299621582)
(0.111877441, 0.3637085, 0.8748169, 0.299743652)
(0.111877441, 0.3637085, 0.8748169, 0.299743652)
(0.112060547, 0.364135742, 0.8745117, 0.299926758)
(0.112365723, 0.364318848, 0.8743286, 0.300048828)
(0.112365723, 0.364318848, 0.8743286, 0.300048828)
(0.112365723, 0.364318848, 0.8743286, 0.300048828)
(0.112426758, 0.364196777, 0.8743286, 0.300231934)
(0.112426758, 0.364196777, 0.8743286, 0.300231934)
(0.112487793, 0.364196777, 0.874389648, 0.300231934)
(0.112731934, 0.364379883, 0.874206543, 0.300292969)
(0.112731934, 0.364379883, 0.874206543, 0.300292969)
(0.112792969, 0.364379883, 0.874206543, 0.300292969)
(0.112792969, 0.364379883, 0.874206543, 0.300292969)
(0.112915039, 0.363952637, 0.8744507, 0.300048828)
(0.112915039, 0.363952637, 0.8744507, 0.300048828)
(0.112854004, 0.363647461, 0.8746338, 0.299865723)
(0.112731934, 0.363830566, 0.8746338, 0.299682617)
(0.112731934, 0.363830566, 0.8746338, 0.299682617)
(0.112731934, 0.3638916, 0.8746338, 0.299682617)
(0.112731934, 0.3638916, 0.8746338, 0.299682617)
(0.112731934, 0.3638916, 0.8746338, 0.299743652)
(0.112731934, 0.3638916, 0.8746338, 0.299743652)
(0.112792969, 0.363952637, 0.874572754, 0.299682617)
(0.112792969, 0.363952637, 0.874572754, 0.299682617)
(0.112792969, 0.363952637, 0.874572754, 0.299682617)
(0.112609863, 0.3632202, 0.874938965, 0.299682617)
(0.112609863, 0.3632202, 0.874938965, 0.299682617)
(0.1126709, 0.3632202, 0.874938965, 0.299621582)
(0.1126709, 0.3632202, 0.874938965, 0.299621582)
(0.112915039, 0.3637085, 0.8746948, 0.299621582)
(0.112915039, 0.3637085, 0.8746948, 0.299621582)
