(0.00207519531, 0.3399048, 0.918518066, 0.201721191)
(0.00207519531, 0.33972168, 0.9187012, 0.20135498)
(0.00207519531, 0.33972168, 0.9187012, 0.20135498)
(0.001953125, 0.339111328, 0.919006348, 0.200744629)
(0.00177001953, 0.338562, 0.919372559, 0.200073242)
(0.00177001953, 0.338562, 0.919372559, 0.200073242)
(0.00158691406, 0.338684082, 0.9194336, 0.199523926)
(0.00158691406, 0.338684082, 0.9194336, 0.199523926)
(0.00146484375, 0.339538574, 0.9192505, 0.199035645)
(0.00146484375, 0.339538574, 0.9192505, 0.199035645)
(0.00146484375, 0.340576172, 0.9189453, 0.198730469)
(0.00146484375, 0.340576172, 0.9189453, 0.198730469)
(0.00152587891, 0.3416748, 0.9185791, 0.198486328)
(0.00164794922, 0.3435669, 0.9179077, 0.198364258)
(0.00164794922, 0.3435669, 0.9179077, 0.198364258)
(0.00158691406, 0.346252441, 0.916931152, 0.198181152)
(0.00158691406, 0.346252441, 0.916931152, 0.198181152)
(0.00183105469, 0.3505249, 0.915344238, 0.197814941)
(0.00219726563, 0.35723877, 0.912780762, 0.197692871)
(0.00219726563, 0.35723877, 0.912780762, 0.197692871)
(0.00244140625, 0.365722656, 0.9095459, 0.19732666)
(0.00244140625, 0.365722656, 0.9095459, 0.19732666)
(0.00219726563, 0.37487793, 0.905822754, 0.19708252)
(0.00219726563, 0.37487793, 0.905822754, 0.19708252)
(0.00219726563, 0.385192871, 0.9015503, 0.196899414)
(0.00219726563, 0.385192871, 0.9015503, 0.196899414)
(0.00158691406, 0.3945923, 0.8973999, 0.19708252)
(0.00158691406, 0.3945923, 0.8973999, 0.19708252)
(0.00146484375, 0.403198242, 0.8935547, 0.19720459)
(0.00146484375, 0.403198242, 0.8935547, 0.19720459)
(0.00207519531, 0.412231445, 0.889343262, 0.197692871)
(0.00207519531, 0.412231445, 0.889343262, 0.197692871)
(0.004333496, 0.42388916, 0.883728, 0.197937012)
(0.00799560547, 0.436401367, 0.8776245, 0.197814941)
(0.00799560547, 0.436401367, 0.8776245, 0.197814941)
(0.0125732422, 0.4482422, 0.8717041, 0.197509766)
(0.0181884766, 0.458313, 0.866394043, 0.197265625)
(0.0181884766, 0.458313, 0.866394043, 0.197265625)
(0.0181884766, 0.458313, 0.866394043, 0.197265625)
(0.0239257813, 0.465209961, 0.862792969, 0.196289063)
(0.0303955078, 0.469177246, 0.860839844, 0.194580078)
(0.0303955078, 0.469177246, 0.860839844, 0.194580078)
(0.0303955078, 0.469177246, 0.860839844, 0.194580078)
(0.03643799, 0.4730835, 0.858947754, 0.192382813)
(0.04119873, 0.478027344, 0.856323242, 0.190734863)
(0.04119873, 0.478027344, 0.856323242, 0.190734863)
(0.04510498, 0.481628418, 0.8544922, 0.189025879)
(0.04876709, 0.483886719, 0.8535156, 0.186767578)
(0.04876709, 0.483886719, 0.8535156, 0.186767578)
(0.05230713, 0.4857788, 0.852844238, 0.183898926)
(0.05230713, 0.4857788, 0.852844238, 0.183898926)
(0.0562744141, 0.489013672, 0.8514404, 0.180603027)
(0.0562744141, 0.489013672, 0.8514404, 0.180603027)
(0.06011963, 0.49230957, 0.8500366, 0.177062988)
(0.06011963, 0.49230957, 0.8500366, 0.177062988)
(0.06347656, 0.494506836, 0.8491211, 0.1739502)
(0.06347656, 0.494506836, 0.8491211, 0.1739502)
(0.06738281, 0.496582031, 0.848327637, 0.1706543)
(0.07159424, 0.4993286, 0.8470459, 0.167297363)
(0.07159424, 0.4993286, 0.8470459, 0.167297363)
(0.0745239258, 0.501709, 0.84588623, 0.164550781)
(0.0745239258, 0.501709, 0.84588623, 0.164550781)
(0.07702637, 0.5022583, 0.84576416, 0.162414551)
(0.0793457, 0.5015259, 0.8463135, 0.160644531)
(0.0793457, 0.5015259, 0.8463135, 0.160644531)
(0.0816040039, 0.5010376, 0.8466797, 0.159240723)
(0.0816040039, 0.5010376, 0.8466797, 0.159240723)
(0.0816040039, 0.5010376, 0.8466797, 0.159240723)
(0.08392334, 0.501098633, 0.8466797, 0.157714844)
(0.08532715, 0.5013428, 0.8466797, 0.156311035)
(0.08532715, 0.5013428, 0.8466797, 0.156311035)
(0.08630371, 0.501159668, 0.8468628, 0.155273438)
(0.08630371, 0.501159668, 0.8468628, 0.155273438)
(0.0869751, 0.5005493, 0.847290039, 0.15447998)
(0.0876464844, 0.5, 0.84765625, 0.1539917)
(0.0876464844, 0.5, 0.84765625, 0.1539917)
(0.08795166, 0.499572754, 0.8479004, 0.1538086)
(0.08795166, 0.499572754, 0.8479004, 0.1538086)
(0.08795166, 0.4991455, 0.848144531, 0.153930664)
(0.08795166, 0.4991455, 0.848144531, 0.153930664)
(0.0877685547, 0.498352051, 0.8485718, 0.15411377)
(0.0877685547, 0.498352051, 0.8485718, 0.15411377)
(0.0874023438, 0.4973755, 0.8491211, 0.15447998)
(0.0874023438, 0.4973755, 0.8491211, 0.15447998)
(0.08685303, 0.497009277, 0.8493042, 0.154785156)
(0.08618164, 0.496643066, 0.84954834, 0.155090332)
(0.08618164, 0.496643066, 0.84954834, 0.155090332)
(0.0857543945, 0.496582031, 0.8496094, 0.155273438)
(0.0857543945, 0.496582031, 0.8496094, 0.155273438)
(0.0856323242, 0.4963379, 0.849731445, 0.155456543)
(0.0856323242, 0.49597168, 0.849914551, 0.155578613)
(0.0856323242, 0.49597168, 0.849914551, 0.155578613)
(0.0856323242, 0.495422363, 0.8502197, 0.155822754)
(0.0856323242, 0.495422363, 0.8502197, 0.155822754)
(0.0857543945, 0.495056152, 0.8503418, 0.1560669)
(0.0857543945, 0.495056152, 0.8503418, 0.1560669)
(0.0859375, 0.494689941, 0.8505249, 0.156188965)
(0.0859375, 0.494689941, 0.8505249, 0.156188965)
(0.0861206055, 0.49420166, 0.850769043, 0.156188965)
(0.0861206055, 0.49420166, 0.850769043, 0.156188965)
(0.0861206055, 0.49420166, 0.850769043, 0.156188965)
(0.08648682, 0.493896484, 0.850952148, 0.156188965)
(0.08648682, 0.493896484, 0.850952148, 0.156188965)
(0.08728027, 0.4935913, 0.8510742, 0.156188965)
(0.08728027, 0.4935913, 0.8510742, 0.156188965)
(0.08770752, 0.492980957, 0.8513794, 0.156188965)
(0.08770752, 0.492980957, 0.8513794, 0.156188965)
(0.0877685547, 0.492919922, 0.8513794, 0.15612793)
(0.0877685547, 0.492919922, 0.8513794, 0.15612793)
(0.0877685547, 0.492919922, 0.8513794, 0.15612793)
(0.0877685547, 0.493103027, 0.8512573, 0.15612793)
(0.0875244141, 0.4932251, 0.8511963, 0.15637207)
(0.0871582, 0.492797852, 0.8514404, 0.156677246)
(0.0871582, 0.492797852, 0.8514404, 0.156677246)
(0.08660889, 0.4921875, 0.8517456, 0.157043457)
(0.08660889, 0.4921875, 0.8517456, 0.157043457)
(0.0859985352, 0.491943359, 0.8519287, 0.157226563)
(0.0856323242, 0.4921875, 0.851806641, 0.157226563)
(0.0856323242, 0.4921875, 0.851806641, 0.157226563)
(0.08538818, 0.4925537, 0.8516846, 0.157165527)
(0.08538818, 0.4925537, 0.8516846, 0.157165527)
(0.08514404, 0.492614746, 0.8516846, 0.156982422)
(0.08514404, 0.492614746, 0.8516846, 0.156982422)
(0.08496094, 0.492675781, 0.8516846, 0.156799316)
(0.08496094, 0.492675781, 0.8516846, 0.156799316)
(0.08496094, 0.492675781, 0.8516846, 0.156799316)
(0.08477783, 0.492675781, 0.8516846, 0.156677246)
(0.08477783, 0.492675781, 0.8516846, 0.156677246)
(0.08459473, 0.492675781, 0.851806641, 0.156494141)
(0.08459473, 0.492675781, 0.851806641, 0.156494141)
(0.08459473, 0.492675781, 0.851806641, 0.156494141)
(0.08459473, 0.492675781, 0.851806641, 0.156494141)
(0.08465576, 0.493347168, 0.851501465, 0.156005859)
(0.0847168, 0.493347168, 0.851501465, 0.156005859)
(0.08453369, 0.492919922, 0.8517456, 0.155944824)
(0.08453369, 0.493164063, 0.851623535, 0.155700684)
(0.08453369, 0.493164063, 0.851623535, 0.155700684)
(0.08453369, 0.493164063, 0.851623535, 0.155700684)
(0.0842285156, 0.4937744, 0.8513794, 0.155273438)
(0.0842285156, 0.4937744, 0.8513794, 0.155273438)
(0.0842285156, 0.4937744, 0.8513794, 0.155273438)
(0.08380127, 0.493042, 0.8519287, 0.154968262)
(0.08380127, 0.493042, 0.8519287, 0.154968262)
(0.0836181641, 0.493103027, 0.851989746, 0.154541016)
(0.0836792, 0.494689941, 0.851135254, 0.15411377)
(0.0836792, 0.494689941, 0.851135254, 0.15411377)
(0.0836792, 0.49609375, 0.8503418, 0.1538086)
(0.0836792, 0.49609375, 0.8503418, 0.1538086)
(0.08343506, 0.49597168, 0.850585938, 0.153259277)
(0.08343506, 0.49597168, 0.850585938, 0.153259277)
(0.08300781, 0.495178223, 0.8511963, 0.152526855)
(0.08300781, 0.495178223, 0.8511963, 0.152526855)
(0.08300781, 0.495178223, 0.8511963, 0.152526855)
(0.08312988, 0.4961548, 0.850769043, 0.151855469)
(0.08312988, 0.4961548, 0.850769043, 0.151855469)
(0.0841064453, 0.4984131, 0.84942627, 0.151428223)
(0.0841064453, 0.4984131, 0.84942627, 0.151428223)
(0.08483887, 0.500061035, 0.8486328, 0.150024414)
(0.08483887, 0.500061035, 0.8486328, 0.150024414)
(0.08514404, 0.500793457, 0.848144531, 0.149963379)
(0.08514404, 0.500793457, 0.848144531, 0.149963379)
(0.08557129, 0.5022583, 0.847229, 0.150024414)
(0.08557129, 0.5022583, 0.847229, 0.150024414)
(0.08544922, 0.5032959, 0.8466797, 0.149963379)
(0.08544922, 0.5032959, 0.8466797, 0.149963379)
(0.0855102539, 0.504272461, 0.8461304, 0.1496582)
(0.0855102539, 0.504272461, 0.8461304, 0.1496582)
(0.08581543, 0.5046387, 0.845947266, 0.149108887)
(0.0859985352, 0.504760742, 0.8460083, 0.1482544)
(0.08605957, 0.5050049, 0.845947266, 0.147644043)
(0.08605957, 0.5050049, 0.845947266, 0.147644043)
(0.0861206055, 0.5048218, 0.8461304, 0.147094727)
(0.0861206055, 0.5048218, 0.8461304, 0.147094727)
(0.0862426758, 0.5036011, 0.8469238, 0.14666748)
(0.0862426758, 0.5036011, 0.8469238, 0.14666748)
(0.0862426758, 0.5036011, 0.8469238, 0.14666748)
(0.08605957, 0.5026245, 0.8475952, 0.14654541)
(0.08569336, 0.5028076, 0.847473145, 0.146911621)
(0.08569336, 0.5028076, 0.847473145, 0.146911621)
(0.0858764648, 0.502868652, 0.8473511, 0.147155762)
(0.0858764648, 0.502868652, 0.8473511, 0.147155762)
(0.08569336, 0.5020752, 0.847839355, 0.147033691)
(0.0855102539, 0.5015869, 0.8482666, 0.14666748)
(0.0855102539, 0.5015869, 0.8482666, 0.14666748)
(0.08532715, 0.501647949, 0.8482666, 0.146240234)
(0.08532715, 0.501647949, 0.8482666, 0.146240234)
(0.0848999, 0.5019531, 0.848205566, 0.1459961)
(0.0848999, 0.5019531, 0.848205566, 0.1459961)
(0.08441162, 0.5019531, 0.8482666, 0.145935059)
(0.0843505859, 0.5015869, 0.8484497, 0.146118164)
(0.0843505859, 0.5015869, 0.8484497, 0.146118164)
(0.0843505859, 0.5010376, 0.8487549, 0.146240234)
(0.0843505859, 0.5010376, 0.8487549, 0.146240234)
(0.08416748, 0.500427246, 0.8491211, 0.14630127)
(0.0836792, 0.499267578, 0.8498535, 0.1461792)
(0.0836792, 0.499267578, 0.8498535, 0.1461792)
(0.08270264, 0.49786377, 0.8508301, 0.146118164)
(0.08270264, 0.49786377, 0.8508301, 0.146118164)
(0.08178711, 0.495788574, 0.8521118, 0.146118164)
(0.08178711, 0.495788574, 0.8521118, 0.146118164)
(0.08166504, 0.493530273, 0.8534546, 0.145690918)
(0.08166504, 0.493530273, 0.8534546, 0.145690918)
(0.08166504, 0.492675781, 0.854126, 0.144897461)
(0.08166504, 0.492675781, 0.854126, 0.144897461)
(0.0814209, 0.492614746, 0.854248047, 0.144226074)
(0.08074951, 0.492126465, 0.8546753, 0.1439209)
(0.08074951, 0.492126465, 0.8546753, 0.1439209)
(0.080078125, 0.4906006, 0.855651855, 0.143859863)
(0.080078125, 0.4906006, 0.855651855, 0.143859863)
(0.07928467, 0.489501953, 0.856323242, 0.143798828)
(0.07861328, 0.489807129, 0.8562012, 0.143859863)
(0.07861328, 0.489807129, 0.8562012, 0.143859863)
(0.078125, 0.49041748, 0.855896, 0.144104)
(0.078125, 0.49041748, 0.855896, 0.144104)
(0.07788086, 0.490478516, 0.855834961, 0.144287109)
(0.07788086, 0.490478516, 0.855834961, 0.144287109)
(0.07775879, 0.490478516, 0.855834961, 0.144348145)
(0.07775879, 0.490478516, 0.855834961, 0.144348145)
(0.0776977539, 0.490905762, 0.8555908, 0.14440918)
(0.0776977539, 0.490905762, 0.8555908, 0.14440918)
(0.0776977539, 0.4915161, 0.8552246, 0.14453125)
(0.07763672, 0.491638184, 0.855102539, 0.144714355)
(0.07763672, 0.491638184, 0.855102539, 0.144714355)
(0.0776977539, 0.491394043, 0.8552246, 0.144897461)
(0.0776977539, 0.491394043, 0.8552246, 0.144897461)
(0.0776977539, 0.4911499, 0.8553467, 0.145080566)
(0.0776977539, 0.4911499, 0.8553467, 0.145080566)
(0.07763672, 0.4911499, 0.8553467, 0.145080566)
(0.07763672, 0.4911499, 0.8553467, 0.145080566)
(0.07739258, 0.491271973, 0.855285645, 0.1451416)
(0.07739258, 0.491271973, 0.855285645, 0.1451416)
(0.07702637, 0.491455078, 0.8552246, 0.1451416)
(0.0766601563, 0.491394043, 0.855285645, 0.145202637)
(0.0766601563, 0.491394043, 0.855285645, 0.145202637)
(0.07635498, 0.4915161, 0.8552246, 0.1451416)
(0.07635498, 0.4915161, 0.8552246, 0.1451416)
(0.07598877, 0.491577148, 0.8552246, 0.1453247)
(0.07598877, 0.491577148, 0.8552246, 0.1453247)
(0.0758056641, 0.491455078, 0.8552246, 0.145690918)
(0.07562256, 0.491027832, 0.8554077, 0.146057129)
(0.07562256, 0.491027832, 0.8554077, 0.146057129)
(0.07550049, 0.490905762, 0.85546875, 0.14630127)
(0.07550049, 0.490905762, 0.85546875, 0.14630127)
(0.07531738, 0.4909668, 0.8554077, 0.14642334)
(0.07531738, 0.4909668, 0.8554077, 0.14642334)
(0.07531738, 0.4909668, 0.8554077, 0.14642334)
(0.07531738, 0.4909668, 0.8554077, 0.14642334)
(0.07531738, 0.4909668, 0.8554077, 0.14642334)
(0.07531738, 0.4909668, 0.8554077, 0.14642334)
(0.07531738, 0.4909668, 0.8554077, 0.1463623)
(0.07537842, 0.4909668, 0.8554077, 0.1463623)
(0.07537842, 0.4909668, 0.8554077, 0.1463623)
(0.07531738, 0.4906006, 0.855651855, 0.14642334)
(0.07531738, 0.4906006, 0.855651855, 0.14642334)
(0.07537842, 0.4902954, 0.8557739, 0.1463623)
(0.07537842, 0.4902954, 0.8557739, 0.1463623)
(0.07537842, 0.4902954, 0.8557739, 0.1463623)
(0.07519531, 0.49005127, 0.855957031, 0.1463623)
(0.07519531, 0.49005127, 0.855957031, 0.1463623)
(0.07525635, 0.489807129, 0.856140137, 0.1463623)
(0.07525635, 0.489807129, 0.856140137, 0.1463623)
(0.07525635, 0.489501953, 0.856323242, 0.146240234)
(0.07525635, 0.489501953, 0.856323242, 0.146240234)
(0.07513428, 0.489563, 0.856323242, 0.146118164)
(0.07513428, 0.489563, 0.856323242, 0.146118164)
(0.07501221, 0.489563, 0.856323242, 0.1459961)
(0.07501221, 0.489563, 0.856323242, 0.1459961)
(0.07501221, 0.489563, 0.856323242, 0.1459961)
(0.07501221, 0.489563, 0.856323242, 0.1459961)
(0.07501221, 0.489563, 0.856323242, 0.1459961)
(0.07495117, 0.489501953, 0.856323242, 0.146057129)
(0.07495117, 0.489440918, 0.8563843, 0.1461792)
(0.07495117, 0.489440918, 0.8563843, 0.1461792)
(0.07495117, 0.489440918, 0.8563843, 0.1461792)
(0.07501221, 0.489440918, 0.8563843, 0.146118164)
(0.07501221, 0.489440918, 0.8563843, 0.146118164)
(0.07501221, 0.489685059, 0.8562622, 0.146057129)
(0.07495117, 0.489990234, 0.8560791, 0.146057129)
(0.07495117, 0.489990234, 0.8560791, 0.146057129)
(0.07495117, 0.489990234, 0.8560791, 0.146057129)
(0.07495117, 0.489990234, 0.8560791, 0.146057129)
(0.0748291, 0.489807129, 0.8562012, 0.1461792)
(0.0748291, 0.489807129, 0.8562012, 0.1461792)
(0.0748291, 0.489807129, 0.8562012, 0.1461792)
(0.07470703, 0.489624023, 0.8562622, 0.1463623)
(0.07470703, 0.489624023, 0.8562622, 0.1463623)
(0.0746459961, 0.489563, 0.856323242, 0.14642334)
(0.0746459961, 0.489563, 0.856323242, 0.14642334)
(0.0746459961, 0.489563, 0.8562622, 0.14642334)
(0.0746459961, 0.489563, 0.8562622, 0.14642334)
(0.07489014, 0.489563, 0.8562012, 0.14654541)
(0.07489014, 0.489563, 0.8562012, 0.14654541)
(0.07495117, 0.489563, 0.8562622, 0.146484375)
(0.0748291, 0.489196777, 0.856506348, 0.1459961)
(0.0748291, 0.489196777, 0.856506348, 0.1459961)
(0.0746459961, 0.489440918, 0.856506348, 0.145690918)
(0.0746459961, 0.489440918, 0.856506348, 0.145690918)
(0.07458496, 0.4897461, 0.856323242, 0.145507813)
(0.0746459961, 0.489807129, 0.856323242, 0.145446777)
(0.0746459961, 0.489807129, 0.856323242, 0.145446777)
(0.0746459961, 0.4897461, 0.856323242, 0.145446777)
(0.0746459961, 0.4897461, 0.856323242, 0.145446777)
(0.0746459961, 0.489807129, 0.856323242, 0.145446777)
(0.0746459961, 0.489807129, 0.856323242, 0.145446777)
(0.07470703, 0.489807129, 0.856323242, 0.145446777)
(0.07470703, 0.489807129, 0.856323242, 0.145446777)
(0.07470703, 0.489868164, 0.8562622, 0.145446777)
(0.07470703, 0.489868164, 0.8562622, 0.145446777)
(0.07476807, 0.489868164, 0.8562622, 0.145385742)
(0.07476807, 0.489868164, 0.8562622, 0.145385742)
(0.07476807, 0.489868164, 0.8562622, 0.145385742)
(0.07476807, 0.489868164, 0.8562622, 0.145385742)
(0.07476807, 0.489868164, 0.8562622, 0.145385742)
(0.07476807, 0.489868164, 0.8562622, 0.145385742)
(0.07476807, 0.489868164, 0.8562622, 0.145385742)
(0.0748291, 0.489868164, 0.8562622, 0.145385742)
(0.0748291, 0.489868164, 0.8562622, 0.145385742)
(0.0748291, 0.489868164, 0.8562622, 0.1453247)
(0.0748291, 0.489868164, 0.8562622, 0.1453247)
(0.0748291, 0.489868164, 0.8562622, 0.1453247)
(0.0748291, 0.4901123, 0.856140137, 0.145385742)
(0.0748291, 0.4901123, 0.856140137, 0.145385742)
(0.0748291, 0.49017334, 0.8560791, 0.145385742)
(0.0748291, 0.49017334, 0.8560791, 0.145385742)
(0.0748291, 0.49017334, 0.8560791, 0.145385742)
(0.0748291, 0.49017334, 0.8560791, 0.145385742)
(0.07501221, 0.490356445, 0.856018066, 0.1451416)
(0.07495117, 0.4909668, 0.8557129, 0.1449585)
(0.07495117, 0.4909668, 0.8557129, 0.1449585)
(0.07513428, 0.491271973, 0.8555908, 0.14453125)
(0.07513428, 0.491271973, 0.8555908, 0.14453125)
(0.07519531, 0.491577148, 0.85546875, 0.144104)
(0.07519531, 0.491577148, 0.85546875, 0.144104)
(0.07513428, 0.4920044, 0.855285645, 0.143798828)
(0.07513428, 0.4920044, 0.855285645, 0.143798828)
(0.07519531, 0.49230957, 0.8551636, 0.143554688)
(0.07519531, 0.49230957, 0.8551636, 0.143554688)
(0.07513428, 0.492736816, 0.854980469, 0.143249512)
(0.07495117, 0.4934082, 0.854614258, 0.143005371)
(0.07495117, 0.4934082, 0.854614258, 0.143005371)
(0.07458496, 0.4942627, 0.854187, 0.1428833)
(0.07458496, 0.4942627, 0.854187, 0.1428833)
(0.0741577148, 0.494812, 0.8539429, 0.1427002)
(0.0736084, 0.495178223, 0.853759766, 0.14263916)
(0.0736084, 0.495178223, 0.853759766, 0.14263916)
(0.07305908, 0.495422363, 0.85369873, 0.14251709)
(0.07305908, 0.495422363, 0.85369873, 0.14251709)
(0.0725097656, 0.495910645, 0.8535156, 0.142211914)
(0.0725097656, 0.495910645, 0.8535156, 0.142211914)
(0.0721435547, 0.4968872, 0.853027344, 0.142028809)
(0.0721435547, 0.4968872, 0.853027344, 0.142028809)
(0.07196045, 0.497253418, 0.852844238, 0.141906738)
(0.07196045, 0.497253418, 0.852844238, 0.141906738)
(0.0718994141, 0.497436523, 0.852722168, 0.141784668)
(0.0718994141, 0.4979248, 0.852539063, 0.141601563)
(0.0718994141, 0.4979248, 0.852539063, 0.141601563)
(0.0717773438, 0.498474121, 0.8522339, 0.141296387)
(0.0717773438, 0.498474121, 0.8522339, 0.141296387)
(0.07147217, 0.4987793, 0.852172852, 0.1408081)
(0.07110596, 0.4991455, 0.8520508, 0.140380859)
(0.07110596, 0.4991455, 0.8520508, 0.140380859)
(0.07110596, 0.4991455, 0.8520508, 0.140380859)
(0.07086182, 0.499755859, 0.8517456, 0.140258789)
(0.0707397461, 0.5001221, 0.851501465, 0.140319824)
(0.0707397461, 0.5001221, 0.851501465, 0.140319824)
(0.0707397461, 0.5001221, 0.851501465, 0.140319824)
(0.0707397461, 0.5001221, 0.851501465, 0.140319824)
(0.07086182, 0.5003662, 0.851318359, 0.140380859)
(0.07086182, 0.5003662, 0.851318359, 0.140380859)
(0.07080078, 0.5007324, 0.851135254, 0.140380859)
(0.07086182, 0.501159668, 0.8508911, 0.140319824)
(0.07086182, 0.501159668, 0.8508911, 0.140319824)
(0.07104492, 0.5015259, 0.850647, 0.140380859)
(0.07104492, 0.5015259, 0.850647, 0.140380859)
(0.07128906, 0.501159668, 0.8508301, 0.140625)
(0.07128906, 0.501159668, 0.8508301, 0.140625)
(0.0715332, 0.500976563, 0.8508911, 0.1408081)
(0.0715332, 0.500976563, 0.8508911, 0.1408081)
(0.07183838, 0.501464844, 0.8505249, 0.141113281)
(0.07183838, 0.501464844, 0.8505249, 0.141113281)
(0.07208252, 0.5024414, 0.849914551, 0.141235352)
(0.0721435547, 0.5024414, 0.849914551, 0.141235352)
(0.0721435547, 0.5024414, 0.849914551, 0.141235352)
(0.07196045, 0.50213623, 0.8501587, 0.140991211)
(0.07196045, 0.50213623, 0.8501587, 0.140991211)
(0.0720214844, 0.502685547, 0.8498535, 0.14074707)
(0.07220459, 0.5032959, 0.8494873, 0.14050293)
(0.07220459, 0.5032959, 0.8494873, 0.14050293)
(0.07220459, 0.50390625, 0.8491821, 0.140075684)
(0.07220459, 0.50390625, 0.8491821, 0.140075684)
(0.07220459, 0.5043335, 0.848999, 0.139831543)
(0.07220459, 0.5043335, 0.848999, 0.139831543)
(0.0720214844, 0.5046387, 0.848876953, 0.139465332)
(0.0720214844, 0.5046387, 0.848876953, 0.139465332)
(0.07183838, 0.505249, 0.8486328, 0.138916016)
(0.07183838, 0.505249, 0.8486328, 0.138916016)
(0.07196045, 0.505615234, 0.848510742, 0.138305664)
(0.07196045, 0.505615234, 0.848510742, 0.138305664)
(0.07208252, 0.5064697, 0.8480835, 0.137634277)
(0.072265625, 0.506958, 0.8479004, 0.137146)
(0.072265625, 0.506958, 0.8479004, 0.137146)
(0.07220459, 0.506897, 0.8479614, 0.13671875)
(0.07220459, 0.506897, 0.8479614, 0.13671875)
(0.07208252, 0.5065918, 0.848205566, 0.136352539)
(0.07220459, 0.506530762, 0.848327637, 0.135864258)
(0.07220459, 0.506530762, 0.848327637, 0.135864258)
(0.0721435547, 0.506897, 0.848205566, 0.1352539)
(0.0721435547, 0.506897, 0.848205566, 0.1352539)
(0.07183838, 0.5076294, 0.8479004, 0.134521484)
(0.07183838, 0.5076294, 0.8479004, 0.134521484)
(0.0715332, 0.5084839, 0.8475952, 0.133605957)
(0.0715332, 0.5084839, 0.8475952, 0.133605957)
(0.0713501, 0.5097656, 0.8469238, 0.1329956)
(0.0713501, 0.5097656, 0.8469238, 0.1329956)
(0.07141113, 0.510131836, 0.8467407, 0.132507324)
(0.0717773438, 0.510131836, 0.846801758, 0.132202148)
(0.0717773438, 0.510131836, 0.846801758, 0.132202148)
(0.072265625, 0.510437, 0.8465576, 0.132202148)
(0.072265625, 0.510437, 0.8465576, 0.132202148)
(0.0725708, 0.510376, 0.8465576, 0.132324219)
(0.0725708, 0.510376, 0.8465576, 0.132324219)
(0.0726318359, 0.510009766, 0.8467407, 0.132263184)
(0.0726318359, 0.510009766, 0.8467407, 0.132263184)
(0.0725708, 0.5102539, 0.846618652, 0.132141113)
(0.0725708, 0.5102539, 0.846618652, 0.132141113)
(0.0723876953, 0.5106201, 0.8464966, 0.131896973)
(0.07196045, 0.510437, 0.8466797, 0.131713867)
(0.07196045, 0.510437, 0.8466797, 0.131713867)
(0.07141113, 0.510314941, 0.846801758, 0.131713867)
(0.07141113, 0.510314941, 0.846801758, 0.131713867)
(0.07110596, 0.5105591, 0.8466797, 0.131713867)
(0.0707397461, 0.5109863, 0.8463745, 0.131835938)
(0.0707397461, 0.5109863, 0.8463745, 0.131835938)
(0.07067871, 0.5109863, 0.8463745, 0.132141113)
(0.07067871, 0.5109863, 0.8463745, 0.132141113)
(0.07055664, 0.511230469, 0.8461914, 0.132324219)
(0.07055664, 0.511230469, 0.8461914, 0.132324219)
(0.0706176758, 0.51171875, 0.84588623, 0.1326294)
(0.0706176758, 0.51171875, 0.84588623, 0.1326294)
(0.07043457, 0.5119629, 0.8456421, 0.13293457)
(0.07043457, 0.5119629, 0.8456421, 0.13293457)
(0.07043457, 0.5116577, 0.8458252, 0.133239746)
(0.07043457, 0.511352539, 0.8460083, 0.133361816)
(0.07043457, 0.511352539, 0.8460083, 0.133361816)
(0.07019043, 0.511230469, 0.846069336, 0.133483887)
(0.07019043, 0.511230469, 0.846069336, 0.133483887)
(0.0698852539, 0.511535645, 0.84588623, 0.133728027)
(0.06964111, 0.5114136, 0.84588623, 0.134216309)
