(-0.144104, -0.380615234, 0.9067383, 0.1104126)
(-0.144104, -0.380615234, 0.9067383, 0.1104126)
(-0.143798828, -0.380004883, 0.907043457, 0.110351563)
(-0.143798828, -0.380004883, 0.907043457, 0.110351563)
(-0.14276123, -0.378601074, 0.9078369, 0.109924316)
(-0.14276123, -0.378601074, 0.9078369, 0.109924316)
(-0.141723633, -0.377502441, 0.90838623, 0.1104126)
(-0.141723633, -0.377502441, 0.90838623, 0.1104126)
(-0.141357422, -0.375427246, 0.9092407, 0.110900879)
(-0.141357422, -0.375427246, 0.9092407, 0.110900879)
(-0.141418457, -0.370605469, 0.9112549, 0.110656738)
(-0.141418457, -0.370605469, 0.9112549, 0.110656738)
(-0.140625, -0.368164063, 0.912414551, 0.109924316)
(-0.140625, -0.368164063, 0.912414551, 0.109924316)
(-0.140380859, -0.367980957, 0.9127197, 0.108581543)
(-0.140197754, -0.3682251, 0.9128418, 0.106567383)
(-0.140197754, -0.3682251, 0.9128418, 0.106567383)
(-0.139953613, -0.370178223, 0.9123535, 0.104431152)
(-0.139953613, -0.370178223, 0.9123535, 0.104431152)
(-0.140258789, -0.369689941, 0.9126587, 0.103393555)
(-0.140258789, -0.369689941, 0.9126587, 0.103393555)
(-0.140563965, -0.365844727, 0.914306641, 0.101806641)
(-0.140563965, -0.365844727, 0.914306641, 0.101806641)
(-0.1404419, -0.3602295, 0.916748047, 0.0999755859)
(-0.139465332, -0.35534668, 0.919006348, 0.09838867)
(-0.139465332, -0.35534668, 0.919006348, 0.09838867)
(-0.137084961, -0.3496704, 0.9216919, 0.09686279)
(-0.137084961, -0.3496704, 0.9216919, 0.09686279)
(-0.13458252, -0.343139648, 0.9246216, 0.0958251953)
(-0.13458252, -0.343139648, 0.9246216, 0.0958251953)
(-0.131530762, -0.3392334, 0.9265747, 0.09509277)
(-0.12890625, -0.338989258, 0.927124, 0.09442139)
(-0.125793457, -0.340759277, 0.9269409, 0.0939331055)
(-0.125793457, -0.340759277, 0.9269409, 0.0939331055)
(-0.121643066, -0.3416748, 0.927124, 0.09411621)
(-0.121643066, -0.3416748, 0.927124, 0.09411621)
(-0.116027832, -0.341003418, 0.928039551, 0.09448242)
(-0.116027832, -0.341003418, 0.928039551, 0.09448242)
(-0.109985352, -0.338989258, 0.9293823, 0.09613037)
(-0.105957031, -0.335388184, 0.930786133, 0.0992431641)
(-0.1026001, -0.330444336, 0.932739258, 0.101196289)
(-0.1026001, -0.330444336, 0.932739258, 0.101196289)
(-0.101074219, -0.329040527, 0.9333496, 0.10168457)
(-0.101074219, -0.329040527, 0.9333496, 0.10168457)
(-0.100219727, -0.33026123, 0.933105469, 0.100646973)
(-0.09991455, -0.331359863, 0.932922363, 0.0993652344)
(-0.09979248, -0.330505371, 0.9332886, 0.09869385)
(-0.09979248, -0.330505371, 0.9332886, 0.09869385)
(-0.0994873047, -0.32800293, 0.934265137, 0.09832764)
(-0.0993652344, -0.326599121, 0.9347534, 0.0980834961)
(-0.0993652344, -0.326599121, 0.9347534, 0.0980834961)
(-0.09906006, -0.326843262, 0.934814453, 0.09741211)
(-0.09887695, -0.327697754, 0.9345703, 0.09698486)
(-0.0982666, -0.3284912, 0.9343262, 0.09692383)
(-0.0982666, -0.3284912, 0.9343262, 0.09692383)
(-0.09765625, -0.3291626, 0.934082031, 0.0974731445)
(-0.09765625, -0.3291626, 0.934082031, 0.0974731445)
(-0.09710693, -0.329406738, 0.934021, 0.0979614258)
(-0.09710693, -0.329406738, 0.934021, 0.0979614258)
(-0.09649658, -0.33013916, 0.933776855, 0.09838867)
(-0.09649658, -0.33013916, 0.933776855, 0.09838867)
(-0.0960693359, -0.331481934, 0.9333496, 0.09851074)
(-0.0960693359, -0.331481934, 0.9333496, 0.09851074)
(-0.09576416, -0.332580566, 0.9329834, 0.09851074)
(-0.09576416, -0.333435059, 0.9326782, 0.09844971)
(-0.09576416, -0.333435059, 0.9326782, 0.09844971)
(-0.095703125, -0.333740234, 0.932556152, 0.09838867)
(-0.095703125, -0.333740234, 0.932556152, 0.09838867)
(-0.09576416, -0.33380127, 0.932556152, 0.09838867)
(-0.0958251953, -0.334106445, 0.9324951, 0.0982666)
(-0.0960693359, -0.3345337, 0.932312, 0.0980834961)
(-0.0960693359, -0.3345337, 0.932312, 0.0980834961)
(-0.09637451, -0.334838867, 0.932189941, 0.0978393555)
(-0.09637451, -0.334838867, 0.932189941, 0.0978393555)
(-0.09661865, -0.335327148, 0.932006836, 0.0977172852)
(-0.09661865, -0.335327148, 0.932006836, 0.0977172852)
(-0.09716797, -0.3355713, 0.931884766, 0.0975952148)
(-0.09716797, -0.3355713, 0.931884766, 0.0975952148)
(-0.0974731445, -0.3355713, 0.93182373, 0.0977172852)
(-0.09765625, -0.335510254, 0.93182373, 0.0978393555)
(-0.09765625, -0.335510254, 0.93182373, 0.0978393555)
(-0.09777832, -0.335144043, 0.931884766, 0.0980834961)
(-0.09777832, -0.335144043, 0.931884766, 0.0980834961)
(-0.0980834961, -0.335388184, 0.9317627, 0.0982666)
(-0.09844971, -0.335998535, 0.9314575, 0.09851074)
(-0.09844971, -0.335998535, 0.9314575, 0.09851074)
(-0.09851074, -0.3361206, 0.9313965, 0.09875488)
(-0.09851074, -0.3361206, 0.9313965, 0.09875488)
(-0.09851074, -0.3361206, 0.9313965, 0.09875488)
(-0.09844971, -0.3363037, 0.931335449, 0.09893799)
(-0.09838867, -0.336486816, 0.9312134, 0.0991210938)
(-0.09838867, -0.336486816, 0.9312134, 0.0991210938)
(-0.09844971, -0.336486816, 0.9312134, 0.0993652344)
(-0.09844971, -0.336486816, 0.9312134, 0.0993652344)
(-0.09844971, -0.3369751, 0.9310303, 0.0994873047)
(-0.09838867, -0.336914063, 0.9310303, 0.099609375)
(-0.09838867, -0.336914063, 0.9310303, 0.099609375)
(-0.09838867, -0.337219238, 0.9309082, 0.0997314453)
(-0.09838867, -0.337219238, 0.9309082, 0.0997314453)
(-0.09844971, -0.337219238, 0.9309082, 0.0997314453)
(-0.09844971, -0.337219238, 0.9309082, 0.0997314453)
(-0.09851074, -0.337768555, 0.9307251, 0.09967041)
(-0.09851074, -0.337768555, 0.9307251, 0.09967041)
(-0.09844971, -0.338134766, 0.930603, 0.099609375)
(-0.09844971, -0.338134766, 0.930603, 0.099609375)
(-0.09838867, -0.338439941, 0.930480957, 0.0997314453)
(-0.09844971, -0.338745117, 0.9303589, 0.09979248)
(-0.09844971, -0.338745117, 0.9303589, 0.09979248)
(-0.09851074, -0.3392334, 0.9301758, 0.0997314453)
(-0.09851074, -0.3392334, 0.9301758, 0.0997314453)
(-0.09832764, -0.339660645, 0.9300537, 0.0994873047)
(-0.09832764, -0.339660645, 0.9300537, 0.0994873047)
(-0.0982666, -0.340026855, 0.9299927, 0.0993042)
(-0.09832764, -0.3400879, 0.929931641, 0.09918213)
(-0.09832764, -0.3400879, 0.929931641, 0.09918213)
(-0.09832764, -0.340515137, 0.9298096, 0.09887695)
(-0.09832764, -0.340515137, 0.9298096, 0.09887695)
(-0.09820557, -0.340942383, 0.9296875, 0.09863281)
(-0.09820557, -0.340942383, 0.9296875, 0.09863281)
(-0.09814453, -0.341247559, 0.929626465, 0.09844971)
(-0.0980834961, -0.341247559, 0.929626465, 0.09844971)
(-0.0980834961, -0.341247559, 0.929626465, 0.09844971)
(-0.09814453, -0.341247559, 0.929626465, 0.09844971)
(-0.09814453, -0.341247559, 0.929626465, 0.09844971)
(-0.0980834961, -0.3414917, 0.9295654, 0.0982666)
(-0.09802246, -0.3418579, 0.929443359, 0.09814453)
(-0.09802246, -0.3418579, 0.929443359, 0.09814453)
(-0.09790039, -0.341918945, 0.929443359, 0.09790039)
(-0.09790039, -0.341918945, 0.929443359, 0.09790039)
(-0.09790039, -0.341918945, 0.929443359, 0.09790039)
(-0.09765625, -0.342041016, 0.929443359, 0.0978393555)
(-0.09741211, -0.3421631, 0.929443359, 0.09790039)
(-0.09716797, -0.342834473, 0.9291992, 0.09777832)
(-0.09698486, -0.34362793, 0.9289551, 0.0977172852)
(-0.09698486, -0.34362793, 0.9289551, 0.0977172852)
(-0.09698486, -0.34362793, 0.9289551, 0.0977172852)
(-0.09674072, -0.344055176, 0.928772, 0.0978393555)
(-0.09674072, -0.344055176, 0.928772, 0.0978393555)
(-0.09674072, -0.3447876, 0.928527832, 0.0980834961)
(-0.0960083, -0.345458984, 0.9282837, 0.09851074)
(-0.0958251953, -0.345397949, 0.9283447, 0.09851074)
(-0.0954589844, -0.345947266, 0.9281616, 0.09838867)
(-0.0954589844, -0.345947266, 0.9281616, 0.09838867)
(-0.09527588, -0.345703125, 0.9282837, 0.09851074)
(-0.09509277, -0.3458252, 0.928222656, 0.09851074)
(-0.09509277, -0.3458252, 0.928222656, 0.09851074)
(-0.09466553, -0.346252441, 0.9281616, 0.09832764)
(-0.0938110352, -0.347229, 0.927856445, 0.0982666)
(-0.0938110352, -0.347229, 0.927856445, 0.0982666)
(-0.09338379, -0.3475952, 0.9277954, 0.09820557)
(-0.09326172, -0.348815918, 0.927368164, 0.09790039)
(-0.09326172, -0.348815918, 0.927368164, 0.09790039)
(-0.09289551, -0.350219727, 0.9268799, 0.0978393555)
(-0.09289551, -0.350219727, 0.9268799, 0.0978393555)
(-0.09240723, -0.3515625, 0.926452637, 0.09765625)
(-0.09240723, -0.3515625, 0.926452637, 0.09765625)
(-0.0916748047, -0.3513794, 0.9265747, 0.0975952148)
(-0.0916748047, -0.3513794, 0.9265747, 0.0975952148)
(-0.09106445, -0.351013184, 0.926818848, 0.09765625)
(-0.09100342, -0.351013184, 0.926818848, 0.0972290039)
(-0.09100342, -0.351013184, 0.926818848, 0.0972290039)
(-0.09118652, -0.350769043, 0.9269409, 0.09716797)
(-0.09185791, -0.3505249, 0.9269409, 0.09692383)
(-0.09185791, -0.3505249, 0.9269409, 0.09692383)
(-0.0922851563, -0.350402832, 0.927001953, 0.09692383)
(-0.09246826, -0.350036621, 0.927063, 0.09698486)
(-0.09246826, -0.350036621, 0.927063, 0.09698486)
(-0.09259033, -0.349731445, 0.927185059, 0.09692383)
(-0.0925293, -0.349731445, 0.927185059, 0.09692383)
(-0.0925293, -0.349731445, 0.927185059, 0.09692383)
(-0.0925293, -0.349731445, 0.927185059, 0.09692383)
(-0.0925293, -0.349731445, 0.927185059, 0.09692383)
(-0.09259033, -0.34954834, 0.9272461, 0.09698486)
(-0.09259033, -0.34954834, 0.9272461, 0.09698486)
(-0.09259033, -0.349182129, 0.927368164, 0.09710693)
(-0.0925293, -0.3493042, 0.9273071, 0.09716797)
(-0.0925293, -0.3493042, 0.9273071, 0.09716797)
(-0.09240723, -0.34979248, 0.927124, 0.09716797)
(-0.09240723, -0.34979248, 0.927124, 0.09716797)
(-0.09222412, -0.3501587, 0.927063, 0.09716797)
(-0.09185791, -0.3501587, 0.927063, 0.09729004)
(-0.09185791, -0.3501587, 0.927063, 0.09729004)
(-0.0916748047, -0.3503418, 0.927063, 0.09716797)
(-0.0914917, -0.350585938, 0.9269409, 0.0970459)
(-0.0913085938, -0.350830078, 0.9268799, 0.09710693)
(-0.0913085938, -0.350830078, 0.9268799, 0.09710693)
(-0.09118652, -0.351013184, 0.926818848, 0.09710693)
(-0.09118652, -0.351013184, 0.926818848, 0.09710693)
(-0.09118652, -0.351013184, 0.926818848, 0.09710693)
(-0.09112549, -0.351257324, 0.9266968, 0.09729004)
(-0.09112549, -0.351257324, 0.9266968, 0.09729004)
(-0.09100342, -0.3515625, 0.926635742, 0.09741211)
(-0.09088135, -0.351623535, 0.9265747, 0.09753418)
(-0.09088135, -0.351623535, 0.9265747, 0.09753418)
(-0.09069824, -0.351867676, 0.9265137, 0.0977172852)
(-0.09057617, -0.352050781, 0.9263916, 0.0978393555)
(-0.09039307, -0.352172852, 0.926330566, 0.09814453)
(-0.09039307, -0.352172852, 0.926330566, 0.09814453)
(-0.09033203, -0.352417, 0.926269531, 0.09832764)
(-0.0902709961, -0.353210449, 0.9259033, 0.09863281)
(-0.0902709961, -0.353210449, 0.9259033, 0.09863281)
(-0.0901489258, -0.3534546, 0.9258423, 0.09881592)
(-0.09008789, -0.3536377, 0.92578125, 0.09869385)
(-0.09008789, -0.3536377, 0.92578125, 0.09869385)
(-0.08996582, -0.353881836, 0.9257202, 0.09857178)
(-0.08996582, -0.354125977, 0.925598145, 0.09844971)
(-0.08996582, -0.354125977, 0.925598145, 0.09844971)
(-0.08996582, -0.354125977, 0.925598145, 0.09844971)
(-0.08996582, -0.354125977, 0.925598145, 0.09844971)
(-0.08996582, -0.354125977, 0.925598145, 0.09844971)
(-0.08996582, -0.354064941, 0.9256592, 0.09844971)
(-0.08996582, -0.354064941, 0.9256592, 0.09844971)
(-0.0900268555, -0.354125977, 0.925598145, 0.09838867)
(-0.0900268555, -0.354125977, 0.925598145, 0.09838867)
(-0.0900268555, -0.354125977, 0.925598145, 0.09838867)
(-0.0900268555, -0.354125977, 0.925598145, 0.09838867)
(-0.09008789, -0.353881836, 0.9257202, 0.09838867)
(-0.09008789, -0.3534546, 0.9259033, 0.09832764)
(-0.0895385742, -0.353088379, 0.9260864, 0.09802246)
(-0.0895385742, -0.353088379, 0.9260864, 0.09802246)
(-0.08898926, -0.35357666, 0.9260254, 0.09765625)
(-0.08862305, -0.353942871, 0.9259033, 0.09741211)
(-0.08862305, -0.353942871, 0.9259033, 0.09741211)
(-0.08843994, -0.353759766, 0.9260254, 0.09741211)
(-0.08843994, -0.353759766, 0.9260254, 0.09741211)
(-0.08843994, -0.353759766, 0.9260254, 0.09741211)
(-0.08843994, -0.353759766, 0.9260254, 0.09741211)
(-0.0883789063, -0.354064941, 0.9259033, 0.0972290039)
(-0.0883789063, -0.354064941, 0.9259033, 0.0972290039)
(-0.0883789063, -0.354064941, 0.9259033, 0.0972290039)
(-0.0883789063, -0.354064941, 0.9259033, 0.0972290039)
(-0.08843994, -0.3540039, 0.925964355, 0.09729004)
(-0.08856201, -0.353881836, 0.925964355, 0.0972290039)
(-0.08856201, -0.353881836, 0.925964355, 0.0972290039)
(-0.08856201, -0.353881836, 0.925964355, 0.0972290039)
(-0.08874512, -0.354309082, 0.92578125, 0.09729004)
(-0.08874512, -0.354309082, 0.92578125, 0.09729004)
(-0.08886719, -0.354553223, 0.9257202, 0.0972290039)
(-0.08905029, -0.354797363, 0.925598145, 0.09710693)
(-0.08905029, -0.354797363, 0.925598145, 0.09710693)
(-0.08905029, -0.354797363, 0.925598145, 0.09710693)
(-0.08905029, -0.354797363, 0.925598145, 0.09710693)
(-0.08898926, -0.3548584, 0.925598145, 0.0970459)
(-0.08898926, -0.3548584, 0.925598145, 0.0970459)
(-0.08898926, -0.3548584, 0.925598145, 0.0970459)
(-0.08898926, -0.3548584, 0.925598145, 0.0970459)
(-0.08911133, -0.355285645, 0.925415039, 0.09692383)
(-0.08905029, -0.3552246, 0.925415039, 0.09692383)
(-0.08905029, -0.3552246, 0.925415039, 0.09692383)
(-0.08905029, -0.355285645, 0.925415039, 0.09698486)
(-0.08905029, -0.355285645, 0.925415039, 0.09698486)
(-0.08905029, -0.355651855, 0.925292969, 0.09680176)
(-0.08905029, -0.355651855, 0.925292969, 0.09680176)
(-0.08874512, -0.35559082, 0.925354, 0.09674072)
(-0.08874512, -0.35559082, 0.925354, 0.09674072)
(-0.08868408, -0.355834961, 0.925292969, 0.09643555)
(-0.08856201, -0.3564453, 0.925109863, 0.0961914063)
(-0.08856201, -0.3564453, 0.925109863, 0.0961914063)
(-0.08856201, -0.356872559, 0.924926758, 0.09613037)
(-0.08856201, -0.356872559, 0.924926758, 0.09613037)
(-0.08868408, -0.357177734, 0.9248047, 0.0960083)
(-0.08868408, -0.357177734, 0.9248047, 0.0960083)
(-0.08868408, -0.357177734, 0.9248047, 0.0960083)
(-0.08868408, -0.357177734, 0.9248047, 0.0960083)
(-0.08898926, -0.357177734, 0.9248047, 0.0960083)
(-0.08898926, -0.357177734, 0.9248047, 0.0960083)
(-0.0892334, -0.35736084, 0.9246826, 0.0960083)
(-0.0892334, -0.35736084, 0.9246826, 0.0960083)
(-0.08947754, -0.35760498, 0.924560547, 0.0960083)
(-0.0895385742, -0.35760498, 0.924560547, 0.0960083)
(-0.0895385742, -0.35760498, 0.924560547, 0.0960083)
(-0.08972168, -0.3574829, 0.9246216, 0.0958251953)
(-0.08972168, -0.3574829, 0.9246216, 0.0958251953)
(-0.08972168, -0.3574829, 0.9246216, 0.0958251953)
(-0.08996582, -0.357421875, 0.9246826, 0.095703125)
(-0.0900268555, -0.357666016, 0.924560547, 0.0954589844)
(-0.0900268555, -0.357666016, 0.924560547, 0.0954589844)
(-0.0900268555, -0.357666016, 0.924560547, 0.0954589844)
(-0.0900268555, -0.357666016, 0.924560547, 0.0954589844)
(-0.09020996, -0.357849121, 0.9244995, 0.09539795)
(-0.09033203, -0.3581543, 0.924377441, 0.09527588)
(-0.09033203, -0.3581543, 0.924377441, 0.09527588)
(-0.09069824, -0.358032227, 0.924377441, 0.0953369141)
(-0.09069824, -0.358032227, 0.924377441, 0.0953369141)
(-0.09100342, -0.358093262, 0.9243164, 0.0952148438)
(-0.09100342, -0.358093262, 0.9243164, 0.0952148438)
(-0.09106445, -0.3581543, 0.9243164, 0.0952148438)
(-0.09106445, -0.3581543, 0.9243164, 0.0952148438)
(-0.09118652, -0.358459473, 0.924194336, 0.09509277)
(-0.09118652, -0.358459473, 0.924194336, 0.09509277)
(-0.09118652, -0.358459473, 0.924194336, 0.09509277)
(-0.09118652, -0.358459473, 0.924194336, 0.09509277)
(-0.0913085938, -0.358581543, 0.9241333, 0.09509277)
(-0.0913085938, -0.358581543, 0.9241333, 0.09509277)
(-0.09136963, -0.358825684, 0.92401123, 0.0949707)
(-0.0914306641, -0.359130859, 0.92388916, 0.09490967)
(-0.0914306641, -0.359130859, 0.92388916, 0.09490967)
(-0.0915527344, -0.358947754, 0.9239502, 0.0949707)
(-0.0915527344, -0.358947754, 0.9239502, 0.0949707)
(-0.0915527344, -0.358947754, 0.9239502, 0.0949707)
(-0.0915527344, -0.358947754, 0.9239502, 0.0949707)
(-0.0916748047, -0.359313965, 0.9238281, 0.09490967)
(-0.0916748047, -0.359313965, 0.9238281, 0.09490967)
(-0.09185791, -0.35949707, 0.923706055, 0.09490967)
(-0.09185791, -0.35949707, 0.923706055, 0.09490967)
(-0.0920410156, -0.35925293, 0.9237671, 0.0949707)
(-0.0920410156, -0.35925293, 0.9237671, 0.0949707)
(-0.09222412, -0.358886719, 0.9239502, 0.0949707)
(-0.09277344, -0.3583374, 0.924072266, 0.09503174)
(-0.09277344, -0.3583374, 0.924072266, 0.09503174)
(-0.09313965, -0.358398438, 0.92401123, 0.09490967)
(-0.09350586, -0.3583374, 0.92401123, 0.09490967)
(-0.09350586, -0.3583374, 0.92401123, 0.09490967)
(-0.09387207, -0.358032227, 0.924072266, 0.09484863)
(-0.09387207, -0.358032227, 0.924072266, 0.09484863)
(-0.0941772461, -0.357910156, 0.9241333, 0.09472656)
(-0.0941772461, -0.357910156, 0.9241333, 0.09472656)
(-0.09448242, -0.3579712, 0.924072266, 0.09460449)
(-0.09448242, -0.3579712, 0.924072266, 0.09460449)
(-0.0947876, -0.3579712, 0.924072266, 0.09460449)
(-0.0947876, -0.3579712, 0.924072266, 0.09460449)
(-0.09509277, -0.357727051, 0.9241333, 0.09460449)
(-0.0954589844, -0.3574829, 0.924194336, 0.09460449)
(-0.0954589844, -0.3574829, 0.924194336, 0.09460449)
(-0.0954589844, -0.3574829, 0.924194336, 0.09460449)
(-0.0954589844, -0.3574829, 0.924194336, 0.09460449)
(-0.095703125, -0.357543945, 0.9241333, 0.09442139)
(-0.09576416, -0.3574829, 0.924194336, 0.09423828)
(-0.09576416, -0.3574829, 0.924194336, 0.09423828)
(-0.09576416, -0.3574829, 0.924194336, 0.09423828)
(-0.09576416, -0.3574829, 0.924194336, 0.09423828)
(-0.09576416, -0.3574829, 0.924194336, 0.09423828)
(-0.09576416, -0.3574829, 0.924194336, 0.09423828)
(-0.09576416, -0.3574829, 0.924194336, 0.09423828)
(-0.09576416, -0.3574829, 0.924194336, 0.09423828)
(-0.09576416, -0.3574829, 0.924194336, 0.09423828)
(-0.09576416, -0.3574829, 0.924194336, 0.09423828)
(-0.0958251953, -0.3574829, 0.924194336, 0.09423828)
(-0.0958251953, -0.3574829, 0.924194336, 0.09423828)
(-0.0958251953, -0.3574829, 0.924194336, 0.09423828)
(-0.0958251953, -0.3574829, 0.924194336, 0.09423828)
(-0.09588623, -0.3572998, 0.9242554, 0.09411621)
(-0.09588623, -0.3572998, 0.9242554, 0.09411621)
(-0.0960693359, -0.3569336, 0.924377441, 0.0940551758)
(-0.0960693359, -0.3569336, 0.924377441, 0.0940551758)
(-0.0960693359, -0.3569336, 0.924377441, 0.0940551758)
(-0.0960693359, -0.3569336, 0.924377441, 0.0940551758)
(-0.0960693359, -0.3569336, 0.924377441, 0.0940551758)
(-0.09613037, -0.356872559, 0.9244385, 0.0939331055)
(-0.09625244, -0.356506348, 0.924560547, 0.09375)
(-0.09637451, -0.356506348, 0.924560547, 0.09350586)
(-0.09637451, -0.356506348, 0.924560547, 0.09350586)
(-0.09637451, -0.356506348, 0.924560547, 0.09350586)
(-0.09637451, -0.356506348, 0.924560547, 0.09350586)
(-0.09637451, -0.356506348, 0.924560547, 0.09350586)
(-0.09637451, -0.356506348, 0.924560547, 0.09350586)
(-0.09637451, -0.356506348, 0.924560547, 0.09350586)
(-0.09637451, -0.356506348, 0.924560547, 0.09350586)
(-0.09631348, -0.356628418, 0.924560547, 0.0933227539)
(-0.09631348, -0.356628418, 0.924560547, 0.0933227539)
(-0.09613037, -0.3569336, 0.9244385, 0.09338379)
(-0.09613037, -0.3569336, 0.9244385, 0.09338379)
(-0.09613037, -0.3569336, 0.9244385, 0.09338379)
(-0.0958251953, -0.3571167, 0.924377441, 0.0933227539)
(-0.0958251953, -0.3571167, 0.924377441, 0.0933227539)
(-0.09539795, -0.35723877, 0.9244385, 0.09320068)
(-0.09442139, -0.35760498, 0.9244385, 0.09277344)
(-0.09442139, -0.35760498, 0.9244385, 0.09277344)
(-0.09362793, -0.357910156, 0.9244385, 0.0922851563)
(-0.09362793, -0.357910156, 0.9244385, 0.0922851563)
(-0.0933227539, -0.358276367, 0.924377441, 0.0920410156)
(-0.09265137, -0.3583374, 0.9244385, 0.0915527344)
(-0.09234619, -0.3585205, 0.9244385, 0.0914306641)
