(-0.07965088, -0.3826294, 0.918518066, 0.0599365234)
(-0.07965088, -0.3826294, 0.918518066, 0.0599365234)
(-0.08441162, -0.39050293, 0.9147949, 0.05883789)
(-0.09008789, -0.397521973, 0.9112549, 0.0584106445)
(-0.09008789, -0.397521973, 0.9112549, 0.0584106445)
(-0.09008789, -0.397521973, 0.9112549, 0.0584106445)
(-0.0949707, -0.4102173, 0.905090332, 0.0588989258)
(-0.09729004, -0.425415039, 0.897827148, 0.05895996)
(-0.09741211, -0.4329834, 0.894165039, 0.0593261719)
(-0.09790039, -0.4393921, 0.8909912, 0.0584106445)
(-0.09753418, -0.442749023, 0.8894043, 0.057800293)
(-0.09753418, -0.442749023, 0.8894043, 0.057800293)
(-0.0974731445, -0.443664551, 0.8890381, 0.05731201)
(-0.09741211, -0.44354248, 0.8890991, 0.0568847656)
(-0.09741211, -0.44354248, 0.8890991, 0.0568847656)
(-0.09686279, -0.4418335, 0.890014648, 0.0572509766)
(-0.09625244, -0.4413452, 0.8902588, 0.05810547)
(-0.09625244, -0.4413452, 0.8902588, 0.05810547)
(-0.0953369141, -0.442138672, 0.8898926, 0.0592041)
(-0.0953369141, -0.442138672, 0.8898926, 0.0592041)
(-0.09387207, -0.4472046, 0.887390137, 0.0611572266)
(-0.0927124, -0.44921875, 0.8864136, 0.0619506836)
(-0.0927124, -0.44921875, 0.8864136, 0.0619506836)
(-0.09136963, -0.450073242, 0.8861084, 0.0625)
(-0.0895385742, -0.44934082, 0.8865967, 0.06304932)
(-0.0895385742, -0.44934082, 0.8865967, 0.06304932)
(-0.08911133, -0.449401855, 0.8865967, 0.0629272461)
(-0.08892822, -0.4506836, 0.886047363, 0.0624389648)
(-0.08905029, -0.451599121, 0.8855591, 0.06201172)
(-0.08905029, -0.451599121, 0.8855591, 0.06201172)
(-0.08911133, -0.451416016, 0.885681152, 0.061706543)
(-0.08911133, -0.451416016, 0.885681152, 0.061706543)
(-0.0892334, -0.4506836, 0.886047363, 0.061706543)
(-0.0892334, -0.4506836, 0.886047363, 0.061706543)
(-0.0892334, -0.450622559, 0.886047363, 0.061706543)
(-0.0892334, -0.450622559, 0.886047363, 0.061706543)
(-0.08917236, -0.4512329, 0.8858032, 0.0617675781)
(-0.08868408, -0.45135498, 0.8857422, 0.06188965)
(-0.08868408, -0.45135498, 0.8857422, 0.06188965)
(-0.0881958, -0.450561523, 0.886230469, 0.0618286133)
(-0.08734131, -0.449523926, 0.8867798, 0.0625)
(-0.08734131, -0.449523926, 0.8867798, 0.0625)
(-0.08721924, -0.449707031, 0.8866577, 0.06274414)
(-0.08721924, -0.449707031, 0.8866577, 0.06274414)
(-0.08709717, -0.450134277, 0.8864746, 0.0628051758)
(-0.08691406, -0.4500122, 0.886535645, 0.06274414)
(-0.08691406, -0.4500122, 0.886535645, 0.06274414)
(-0.08660889, -0.449584961, 0.8868408, 0.0626831055)
(-0.08642578, -0.448547363, 0.8873291, 0.0625)
(-0.08642578, -0.448547363, 0.8873291, 0.0625)
(-0.08642578, -0.448059082, 0.8876343, 0.0624389648)
(-0.08642578, -0.448059082, 0.887573242, 0.0624389648)
(-0.08642578, -0.448059082, 0.887573242, 0.0624389648)
(-0.0862426758, -0.448059082, 0.8876343, 0.0623168945)
(-0.0862426758, -0.448059082, 0.8876343, 0.0623168945)
(-0.0861206055, -0.4477539, 0.8878174, 0.0623168945)
(-0.0861206055, -0.447692871, 0.8878174, 0.0623168945)
(-0.0861206055, -0.447692871, 0.8878174, 0.0623168945)
(-0.08618164, -0.447937, 0.8876953, 0.06213379)
(-0.0862426758, -0.447937, 0.8876953, 0.06213379)
(-0.0862426758, -0.447937, 0.8876953, 0.06213379)
(-0.08630371, -0.447937, 0.8876953, 0.06213379)
(-0.08630371, -0.447937, 0.8876953, 0.06213379)
(-0.08630371, -0.447937, 0.8876953, 0.0620727539)
(-0.08630371, -0.447937, 0.8876953, 0.0620727539)
(-0.08630371, -0.447875977, 0.887756348, 0.0620727539)
(-0.0863647461, -0.447631836, 0.8878174, 0.06213379)
(-0.0863647461, -0.447631836, 0.8878174, 0.06213379)
(-0.0863647461, -0.4473877, 0.887939453, 0.0620727539)
(-0.0862426758, -0.447265625, 0.8880615, 0.06188965)
(-0.0862426758, -0.447265625, 0.8880615, 0.06188965)
(-0.08618164, -0.44708252, 0.8881836, 0.0616455078)
(-0.08618164, -0.44708252, 0.8881836, 0.0616455078)
(-0.0861206055, -0.4465332, 0.88848877, 0.0615844727)
(-0.0862426758, -0.4463501, 0.8885498, 0.0615234375)
(-0.0862426758, -0.4465332, 0.88848877, 0.0612792969)
(-0.0862426758, -0.4465332, 0.88848877, 0.0612792969)
(-0.0862426758, -0.446777344, 0.8883667, 0.06085205)
(-0.0862426758, -0.446777344, 0.8883667, 0.06085205)
(-0.0859985352, -0.446777344, 0.888427734, 0.06072998)
(-0.0859985352, -0.446777344, 0.888427734, 0.06072998)
(-0.0857543945, -0.44708252, 0.888305664, 0.060546875)
(-0.0856323242, -0.447692871, 0.8880005, 0.0603027344)
(-0.0856323242, -0.447692871, 0.8880005, 0.0603027344)
(-0.08538818, -0.447937, 0.8878784, 0.0602417)
(-0.08538818, -0.447937, 0.8878784, 0.0602417)
(-0.08508301, -0.447692871, 0.8880615, 0.0603027344)
(-0.0848999, -0.447692871, 0.888122559, 0.0602417)
(-0.08441162, -0.4486084, 0.8876343, 0.0604248047)
(-0.08441162, -0.4486084, 0.8876343, 0.0604248047)
(-0.0843505859, -0.4486084, 0.8876343, 0.0604248047)
(-0.0843505859, -0.4486084, 0.8876343, 0.0604248047)
(-0.0842285156, -0.448852539, 0.887573242, 0.0603027344)
(-0.0841064453, -0.4487915, 0.8876343, 0.0601806641)
(-0.08404541, -0.448669434, 0.8876953, 0.0600585938)
(-0.08404541, -0.448669434, 0.8876953, 0.0600585938)
(-0.08416748, -0.448669434, 0.8876953, 0.05987549)
(-0.08416748, -0.448669434, 0.8876953, 0.05987549)
(-0.0843505859, -0.448730469, 0.8876343, 0.0596313477)
(-0.0843505859, -0.448730469, 0.8876343, 0.0596313477)
(-0.0844726563, -0.4486084, 0.887756348, 0.059387207)
(-0.08538818, -0.448059082, 0.887939453, 0.05883789)
(-0.08538818, -0.448059082, 0.887939453, 0.05883789)
(-0.08538818, -0.448059082, 0.887939453, 0.05883789)
(-0.08538818, -0.448059082, 0.887939453, 0.05883789)
(-0.08538818, -0.448059082, 0.887939453, 0.05883789)
(-0.08538818, -0.448059082, 0.887939453, 0.05883789)
(-0.08538818, -0.448059082, 0.887939453, 0.05883789)
(-0.08538818, -0.448059082, 0.887939453, 0.05883789)
(-0.08538818, -0.448059082, 0.887939453, 0.05883789)
(-0.08538818, -0.448059082, 0.887939453, 0.05883789)
(-0.08538818, -0.448059082, 0.887939453, 0.05883789)
(-0.08538818, -0.448059082, 0.887939453, 0.05883789)
(-0.08538818, -0.448059082, 0.887939453, 0.05883789)
(-0.08538818, -0.448059082, 0.887939453, 0.05883789)
(-0.08538818, -0.448059082, 0.887939453, 0.05883789)
(-0.08544922, -0.448059082, 0.887939453, 0.05883789)
(-0.08569336, -0.448120117, 0.8878784, 0.05859375)
(-0.08569336, -0.448120117, 0.8878784, 0.05859375)
(-0.08569336, -0.448181152, 0.8878784, 0.05859375)
(-0.08569336, -0.448181152, 0.8878784, 0.05859375)
(-0.0857543945, -0.448181152, 0.8878784, 0.05859375)
(-0.0857543945, -0.448181152, 0.8878784, 0.05859375)
(-0.0857543945, -0.448181152, 0.8878784, 0.0585327148)
(-0.0857543945, -0.448181152, 0.8878784, 0.0585327148)
(-0.0857543945, -0.448181152, 0.8878784, 0.0585327148)
(-0.0857543945, -0.448181152, 0.8878784, 0.0585327148)
(-0.0858764648, -0.4484253, 0.887756348, 0.0584106445)
(-0.0858764648, -0.4484253, 0.887756348, 0.0584106445)
(-0.08581543, -0.4482422, 0.8878784, 0.0582885742)
(-0.08581543, -0.4484253, 0.887756348, 0.0580444336)
(-0.08581543, -0.4484253, 0.887756348, 0.0580444336)
(-0.0858764648, -0.4484253, 0.887756348, 0.0580444336)
(-0.0858764648, -0.4484253, 0.8878174, 0.0580444336)
(-0.0859985352, -0.447692871, 0.888122559, 0.0579223633)
(-0.0859985352, -0.4477539, 0.888122559, 0.0579223633)
(-0.0859985352, -0.4477539, 0.888122559, 0.0579223633)
(-0.0861206055, -0.44744873, 0.8882446, 0.0578613281)
(-0.0861206055, -0.44744873, 0.8882446, 0.0578613281)
(-0.08630371, -0.447265625, 0.8883667, 0.0577392578)
(-0.08648682, -0.447021484, 0.888427734, 0.0576782227)
(-0.08648682, -0.447021484, 0.888427734, 0.0576782227)
(-0.08648682, -0.447021484, 0.888427734, 0.0576782227)
(-0.08648682, -0.447021484, 0.888427734, 0.0576782227)
(-0.08654785, -0.447021484, 0.888427734, 0.0576782227)
(-0.08654785, -0.447021484, 0.888427734, 0.0576782227)
(-0.08654785, -0.447021484, 0.888427734, 0.0576782227)
(-0.08654785, -0.447021484, 0.888427734, 0.0576782227)
(-0.08654785, -0.447021484, 0.888427734, 0.0576782227)
(-0.08654785, -0.447021484, 0.888427734, 0.0576782227)
(-0.08654785, -0.4467163, 0.88861084, 0.0577392578)
(-0.08660889, -0.446777344, 0.8885498, 0.0577392578)
(-0.08660889, -0.446777344, 0.8885498, 0.0577392578)
(-0.08660889, -0.446777344, 0.8885498, 0.0577392578)
(-0.08654785, -0.446594238, 0.8886719, 0.0578613281)
(-0.08605957, -0.4467163, 0.88861084, 0.057800293)
(-0.08605957, -0.4467163, 0.88861084, 0.057800293)
(-0.08605957, -0.446777344, 0.88861084, 0.0577392578)
(-0.08605957, -0.446777344, 0.88861084, 0.0577392578)
(-0.08618164, -0.446472168, 0.8887329, 0.0577392578)
(-0.08618164, -0.446472168, 0.8887329, 0.0577392578)
(-0.0862426758, -0.446472168, 0.8887329, 0.0576782227)
(-0.0862426758, -0.446472168, 0.8887329, 0.0576782227)
(-0.0862426758, -0.446472168, 0.8887329, 0.0576782227)
(-0.0862426758, -0.446472168, 0.8887329, 0.0576782227)
(-0.08648682, -0.446472168, 0.8887329, 0.0574951172)
(-0.08666992, -0.446472168, 0.8887329, 0.0573730469)
(-0.08666992, -0.446472168, 0.8887329, 0.0573730469)
(-0.08691406, -0.4463501, 0.888793945, 0.05718994)
(-0.087890625, -0.445617676, 0.8890991, 0.0565185547)
(-0.087890625, -0.445617676, 0.8890991, 0.0565185547)
(-0.0880126953, -0.445800781, 0.888977051, 0.0562744141)
(-0.0880126953, -0.445800781, 0.888977051, 0.0562744141)
(-0.0880126953, -0.445800781, 0.888977051, 0.0562744141)
(-0.08807373, -0.4456787, 0.8890381, 0.0562744141)
(-0.08807373, -0.4456787, 0.8890381, 0.0562744141)
(-0.08807373, -0.445739746, 0.8890381, 0.0562744141)
(-0.08807373, -0.445739746, 0.8890381, 0.0562744141)
(-0.08807373, -0.445739746, 0.8890381, 0.0562744141)
(-0.08807373, -0.445739746, 0.8890381, 0.0562744141)
(-0.08807373, -0.445739746, 0.8890381, 0.0562744141)
(-0.08807373, -0.445739746, 0.8890381, 0.0562744141)
(-0.08807373, -0.445739746, 0.8890381, 0.0562744141)
(-0.08807373, -0.445739746, 0.8890381, 0.0562744141)
(-0.08807373, -0.445739746, 0.8890381, 0.0562744141)
(-0.08807373, -0.445739746, 0.8890381, 0.0562744141)
(-0.08807373, -0.445739746, 0.8890381, 0.0562744141)
(-0.08807373, -0.445739746, 0.8890381, 0.0562744141)
(-0.08807373, -0.445739746, 0.8890381, 0.0562744141)
(-0.08807373, -0.445739746, 0.8890381, 0.0562744141)
(-0.08807373, -0.445739746, 0.8890381, 0.0562744141)
(-0.08807373, -0.4456787, 0.8890381, 0.0562744141)
(-0.08807373, -0.4456787, 0.8890381, 0.0562744141)
(-0.08807373, -0.4456787, 0.8890381, 0.0562744141)
(-0.08807373, -0.4456787, 0.8890381, 0.0562744141)
(-0.08807373, -0.4456787, 0.8890381, 0.0562744141)
(-0.08807373, -0.4456787, 0.8890381, 0.0562744141)
(-0.08807373, -0.4456787, 0.8890381, 0.0562744141)
(-0.08807373, -0.4456787, 0.8890381, 0.0562744141)
(-0.08807373, -0.4456787, 0.8890381, 0.0562744141)
(-0.08807373, -0.4456787, 0.8890381, 0.0562744141)
(-0.08807373, -0.4456787, 0.8890381, 0.0562744141)
(-0.08807373, -0.4456787, 0.8890381, 0.0562744141)
(-0.0881347656, -0.4456787, 0.8890381, 0.05621338)
(-0.0881347656, -0.4456787, 0.8890381, 0.05621338)
(-0.0881347656, -0.4456787, 0.8890381, 0.05621338)
(-0.0881347656, -0.4456787, 0.8890381, 0.05621338)
(-0.0881347656, -0.4456787, 0.8890381, 0.05621338)
(-0.0881347656, -0.4456787, 0.8890381, 0.05621338)
(-0.0881347656, -0.4456787, 0.8890381, 0.05621338)
(-0.0881347656, -0.4456787, 0.8890381, 0.05621338)
(-0.0881347656, -0.4456787, 0.8890381, 0.05621338)
(-0.0881958, -0.445739746, 0.8890381, 0.05621338)
(-0.0883789063, -0.4459839, 0.888855, 0.0561523438)
(-0.0883789063, -0.4459839, 0.888855, 0.0561523438)
(-0.08850098, -0.445922852, 0.888916, 0.05609131)
(-0.08850098, -0.445922852, 0.888916, 0.05609131)
(-0.08850098, -0.445922852, 0.888916, 0.05609131)
(-0.08850098, -0.445922852, 0.888916, 0.05609131)
(-0.08850098, -0.445922852, 0.888916, 0.05609131)
(-0.08856201, -0.445922852, 0.888855, 0.05609131)
(-0.08856201, -0.4459839, 0.888855, 0.05609131)
(-0.08856201, -0.4459839, 0.888855, 0.05609131)
(-0.08856201, -0.4459839, 0.888855, 0.05609131)
(-0.08856201, -0.4459839, 0.888855, 0.05609131)
(-0.08856201, -0.4459839, 0.888855, 0.05609131)
(-0.08856201, -0.445800781, 0.888977051, 0.05596924)
(-0.08862305, -0.4459839, 0.888855, 0.055847168)
(-0.08862305, -0.4459839, 0.888855, 0.055847168)
(-0.08868408, -0.446167, 0.888793945, 0.0556030273)
(-0.08868408, -0.446167, 0.888793945, 0.0556030273)
(-0.08880615, -0.446044922, 0.888855, 0.0553588867)
(-0.08880615, -0.446044922, 0.888855, 0.0553588867)
(-0.08886719, -0.4459839, 0.888916, 0.05517578)
(-0.08892822, -0.445922852, 0.888916, 0.05480957)
(-0.08892822, -0.4459839, 0.888916, 0.0545043945)
(-0.08892822, -0.4459839, 0.888916, 0.0545043945)
(-0.08880615, -0.446044922, 0.888916, 0.05432129)
(-0.08880615, -0.446044922, 0.888916, 0.05432129)
(-0.08874512, -0.446044922, 0.888916, 0.05407715)
(-0.08868408, -0.446228027, 0.888855, 0.053894043)
(-0.08868408, -0.446228027, 0.888855, 0.053894043)
(-0.08868408, -0.446228027, 0.888855, 0.053894043)
(-0.08868408, -0.446228027, 0.888855, 0.053894043)
(-0.08868408, -0.446228027, 0.888855, 0.053894043)
(-0.08868408, -0.446228027, 0.888855, 0.053894043)
(-0.08868408, -0.446228027, 0.888855, 0.0538330078)
(-0.08868408, -0.446228027, 0.888855, 0.0538330078)
(-0.08868408, -0.446228027, 0.888855, 0.053894043)
(-0.08868408, -0.446228027, 0.888855, 0.053894043)
(-0.08862305, -0.4465332, 0.8887329, 0.0539550781)
(-0.08874512, -0.446655273, 0.88861084, 0.05407715)
(-0.08874512, -0.446655273, 0.88861084, 0.05407715)
(-0.08886719, -0.4467163, 0.8885498, 0.05432129)
(-0.08886719, -0.4467163, 0.8885498, 0.05432129)
(-0.08886719, -0.4467163, 0.88861084, 0.05432129)
(-0.08868408, -0.446044922, 0.888916, 0.05432129)
(-0.08868408, -0.446044922, 0.888916, 0.05432129)
(-0.08868408, -0.446044922, 0.888916, 0.05432129)
(-0.08868408, -0.446044922, 0.888916, 0.05432129)
(-0.08868408, -0.446044922, 0.888916, 0.05432129)
(-0.08868408, -0.446105957, 0.888916, 0.05432129)
(-0.08868408, -0.446105957, 0.888916, 0.05432129)
(-0.08892822, -0.445922852, 0.888977051, 0.05432129)
(-0.08892822, -0.445922852, 0.888977051, 0.05432129)
(-0.08917236, -0.445068359, 0.889343262, 0.05444336)
(-0.08917236, -0.445068359, 0.889343262, 0.05444336)
(-0.08917236, -0.445068359, 0.889343262, 0.05444336)
(-0.08917236, -0.445068359, 0.889343262, 0.05444336)
(-0.08917236, -0.4451294, 0.889343262, 0.05444336)
(-0.08917236, -0.4451294, 0.889343262, 0.05444336)
(-0.08917236, -0.444824219, 0.889465332, 0.0543823242)
(-0.08917236, -0.444824219, 0.889465332, 0.0543823242)
(-0.08911133, -0.4446411, 0.8895874, 0.05432129)
(-0.08911133, -0.4446411, 0.8895874, 0.05432129)
(-0.08911133, -0.4446411, 0.8895874, 0.05432129)
(-0.08911133, -0.4446411, 0.8895874, 0.05432129)
(-0.08911133, -0.4446411, 0.8895874, 0.05432129)
(-0.08905029, -0.4442749, 0.8897705, 0.0542602539)
(-0.08905029, -0.4442749, 0.8897705, 0.0542602539)
(-0.08905029, -0.4442749, 0.8897705, 0.0542602539)
(-0.08898926, -0.4442749, 0.8897705, 0.0540161133)
(-0.08898926, -0.4442749, 0.8897705, 0.0540161133)
(-0.08880615, -0.4442749, 0.889831543, 0.0538330078)
(-0.08880615, -0.4442749, 0.889831543, 0.0538330078)
(-0.08880615, -0.4442749, 0.889831543, 0.0538330078)
(-0.08880615, -0.4442749, 0.889831543, 0.0538330078)
(-0.08868408, -0.443969727, 0.890014648, 0.0537109375)
(-0.08868408, -0.443969727, 0.890014648, 0.0537109375)
(-0.08856201, -0.443847656, 0.8900757, 0.0535888672)
(-0.08856201, -0.443847656, 0.8900757, 0.0535888672)
(-0.0883789063, -0.444030762, 0.890014648, 0.0534667969)
(-0.08843994, -0.444030762, 0.890014648, 0.05340576)
(-0.08843994, -0.444030762, 0.890014648, 0.05340576)
(-0.0881958, -0.444213867, 0.8899536, 0.0533447266)
(-0.0881958, -0.444213867, 0.8899536, 0.0533447266)
(-0.08795166, -0.4440918, 0.8900757, 0.0532226563)
(-0.08679199, -0.444335938, 0.8900757, 0.0521240234)
(-0.08679199, -0.444335938, 0.8900757, 0.0521240234)
(-0.08666992, -0.444458, 0.8900757, 0.05206299)
(-0.08660889, -0.444335938, 0.8901367, 0.0516967773)
(-0.08660889, -0.444335938, 0.8901367, 0.0516967773)
(-0.08660889, -0.444335938, 0.8901367, 0.0516967773)
(-0.08673096, -0.444213867, 0.890197754, 0.051574707)
(-0.08673096, -0.444213867, 0.890197754, 0.051574707)
(-0.08673096, -0.444213867, 0.890197754, 0.051574707)
(-0.08673096, -0.444213867, 0.890197754, 0.051574707)
(-0.08685303, -0.444030762, 0.8903198, 0.0514526367)
(-0.08685303, -0.443969727, 0.8903198, 0.0514526367)
(-0.08685303, -0.443969727, 0.8903198, 0.0514526367)
(-0.08685303, -0.443969727, 0.8903198, 0.0514526367)
(-0.08685303, -0.443969727, 0.8903198, 0.0514526367)
(-0.08685303, -0.443969727, 0.8903198, 0.0514526367)
(-0.08685303, -0.443969727, 0.8903198, 0.0514526367)
(-0.08691406, -0.443969727, 0.8903198, 0.0514526367)
