(-0.106872559, -0.376708984, 0.9187622, 0.0499267578)
(-0.106872559, -0.376708984, 0.9187622, 0.0499267578)
(-0.106933594, -0.376708984, 0.9187622, 0.0499267578)
(-0.106933594, -0.376708984, 0.9187622, 0.0499267578)
(-0.106933594, -0.376708984, 0.9187622, 0.0499267578)
(-0.106933594, -0.376708984, 0.9187622, 0.0499267578)
(-0.106933594, -0.376708984, 0.9187622, 0.0499267578)
(-0.106933594, -0.376708984, 0.9187622, 0.0499267578)
(-0.106933594, -0.376708984, 0.9187622, 0.0499267578)
(-0.106933594, -0.376708984, 0.9187622, 0.0496826172)
(-0.106933594, -0.376708984, 0.9187622, 0.0496826172)
(-0.106933594, -0.376647949, 0.918823242, 0.0496826172)
(-0.106872559, -0.376647949, 0.918823242, 0.0496826172)
(-0.106872559, -0.376647949, 0.918823242, 0.0496826172)
(-0.106872559, -0.376647949, 0.918823242, 0.0496826172)
(-0.106872559, -0.376647949, 0.918823242, 0.0496826172)
(-0.106872559, -0.376647949, 0.918823242, 0.0496826172)
(-0.106872559, -0.376647949, 0.918823242, 0.0496826172)
(-0.106872559, -0.376647949, 0.918823242, 0.0496826172)
(-0.106872559, -0.376647949, 0.918823242, 0.0496826172)
(-0.106872559, -0.376647949, 0.918823242, 0.0496826172)
(-0.106872559, -0.3765869, 0.918823242, 0.0496826172)
(-0.106872559, -0.3765869, 0.918823242, 0.0496826172)
(-0.106872559, -0.3765869, 0.918823242, 0.0496826172)
(-0.106933594, -0.3765869, 0.918823242, 0.0496826172)
(-0.106933594, -0.3765869, 0.918823242, 0.0496826172)
(-0.106872559, -0.3765869, 0.918823242, 0.0496826172)
(-0.106872559, -0.3765869, 0.918823242, 0.0496826172)
(-0.106872559, -0.3765869, 0.918823242, 0.0496826172)
(-0.106872559, -0.3765869, 0.918823242, 0.0496826172)
(-0.106872559, -0.3765869, 0.918823242, 0.0496826172)
(-0.106872559, -0.3765869, 0.918823242, 0.0496826172)
(-0.106872559, -0.3765869, 0.918823242, 0.0496826172)
(-0.106872559, -0.3765869, 0.918823242, 0.0496826172)
(-0.106933594, -0.376525879, 0.918823242, 0.0496826172)
(-0.106933594, -0.376525879, 0.9188843, 0.0496826172)
(-0.106872559, -0.3758545, 0.9191284, 0.0495605469)
(-0.106872559, -0.3758545, 0.9191284, 0.0495605469)
(-0.106872559, -0.3758545, 0.9191284, 0.0495605469)
(-0.106872559, -0.3758545, 0.9191284, 0.0495605469)
(-0.106872559, -0.3758545, 0.9191284, 0.0495605469)
(-0.106933594, -0.3758545, 0.9191284, 0.0495605469)
(-0.106933594, -0.3758545, 0.9191284, 0.0495605469)
(-0.106811523, -0.3756714, 0.9192505, 0.04949951)
(-0.106872559, -0.375610352, 0.9192505, 0.04949951)
(-0.106872559, -0.375610352, 0.9192505, 0.04949951)
(-0.106872559, -0.375610352, 0.9192505, 0.04949951)
(-0.106872559, -0.375610352, 0.9192505, 0.04949951)
(-0.106872559, -0.375610352, 0.9192505, 0.04949951)
(-0.106872559, -0.375610352, 0.9192505, 0.04949951)
(-0.106872559, -0.375610352, 0.9192505, 0.04949951)
(-0.106872559, -0.375610352, 0.9192505, 0.04949951)
(-0.106872559, -0.375610352, 0.9192505, 0.04949951)
(-0.106872559, -0.375610352, 0.9192505, 0.04949951)
(-0.106872559, -0.375610352, 0.9192505, 0.04949951)
(-0.106872559, -0.375610352, 0.9192505, 0.04949951)
(-0.106872559, -0.375610352, 0.9192505, 0.04949951)
(-0.106872559, -0.375610352, 0.9192505, 0.04949951)
(-0.106872559, -0.375610352, 0.9192505, 0.04949951)
(-0.106872559, -0.375610352, 0.9192505, 0.04949951)
(-0.106872559, -0.375610352, 0.9192505, 0.04949951)
(-0.106872559, -0.375610352, 0.9192505, 0.04949951)
(-0.106872559, -0.375610352, 0.9192505, 0.04949951)
(-0.106872559, -0.375610352, 0.9192505, 0.04949951)
(-0.106872559, -0.375610352, 0.9192505, 0.04949951)
(-0.106872559, -0.375610352, 0.9192505, 0.04949951)
(-0.106872559, -0.375610352, 0.9192505, 0.04949951)
(-0.106872559, -0.375610352, 0.9192505, 0.04949951)
(-0.106872559, -0.375610352, 0.9192505, 0.04949951)
(-0.106872559, -0.375610352, 0.9192505, 0.04949951)
(-0.106872559, -0.375610352, 0.9192505, 0.04949951)
(-0.106872559, -0.375610352, 0.9192505, 0.04949951)
(-0.106872559, -0.375610352, 0.9192505, 0.04949951)
(-0.106872559, -0.375610352, 0.9192505, 0.04949951)
(-0.106872559, -0.375610352, 0.9192505, 0.04949951)
(-0.106872559, -0.375549316, 0.9192505, 0.04949951)
(-0.106872559, -0.375549316, 0.9192505, 0.04949951)
(-0.106872559, -0.375610352, 0.9192505, 0.04949951)
(-0.106872559, -0.375610352, 0.9192505, 0.04949951)
(-0.106872559, -0.375610352, 0.9192505, 0.04949951)
(-0.106872559, -0.375610352, 0.9192505, 0.04949951)
(-0.106872559, -0.375610352, 0.9192505, 0.04949951)
(-0.106567383, -0.375549316, 0.9193115, 0.04949951)
(-0.106567383, -0.375549316, 0.9193115, 0.04949951)
(-0.106567383, -0.375549316, 0.9193115, 0.04949951)
(-0.106567383, -0.375549316, 0.9193115, 0.04949951)
(-0.106567383, -0.375549316, 0.9193115, 0.04949951)
(-0.106567383, -0.375549316, 0.9193115, 0.04949951)
(-0.106567383, -0.375549316, 0.9193115, 0.04949951)
(-0.106567383, -0.375549316, 0.9193115, 0.04949951)
(-0.106567383, -0.375549316, 0.9193115, 0.04949951)
(-0.106567383, -0.375549316, 0.9193115, 0.04949951)
(-0.106567383, -0.375549316, 0.9193115, 0.04949951)
(-0.106567383, -0.375549316, 0.9193115, 0.04949951)
(-0.106567383, -0.375549316, 0.9193115, 0.04949951)
(-0.106567383, -0.375549316, 0.9193115, 0.04949951)
(-0.106506348, -0.375549316, 0.9193115, 0.0495605469)
(-0.106506348, -0.375549316, 0.9193115, 0.0495605469)
(-0.106384277, -0.3756714, 0.9192505, 0.04949951)
(-0.106384277, -0.3756714, 0.9192505, 0.04949951)
(-0.106384277, -0.3756714, 0.9192505, 0.04949951)
(-0.106384277, -0.375732422, 0.9192505, 0.04949951)
(-0.106384277, -0.375732422, 0.9192505, 0.04949951)
(-0.106323242, -0.375732422, 0.9192505, 0.04949951)
(-0.106323242, -0.375732422, 0.9192505, 0.04949951)
(-0.106323242, -0.375732422, 0.9192505, 0.04949951)
(-0.106323242, -0.375732422, 0.9192505, 0.04949951)
(-0.106323242, -0.375732422, 0.9192505, 0.04949951)
(-0.106323242, -0.375732422, 0.9192505, 0.04949951)
(-0.106323242, -0.375732422, 0.9192505, 0.04949951)
(-0.106323242, -0.375732422, 0.9192505, 0.0495605469)
(-0.106323242, -0.375732422, 0.9192505, 0.0495605469)
(-0.106262207, -0.375732422, 0.9192505, 0.0495605469)
(-0.106262207, -0.375732422, 0.9192505, 0.0495605469)
(-0.106262207, -0.375732422, 0.9192505, 0.0495605469)
(-0.106262207, -0.375732422, 0.9192505, 0.0495605469)
(-0.106262207, -0.375732422, 0.9192505, 0.0495605469)
(-0.106262207, -0.375732422, 0.9192505, 0.0495605469)
(-0.106262207, -0.375732422, 0.9192505, 0.0495605469)
(-0.106262207, -0.375732422, 0.9192505, 0.0495605469)
(-0.106262207, -0.375732422, 0.9192505, 0.0495605469)
(-0.106201172, -0.3756714, 0.9193115, 0.0495605469)
(-0.106201172, -0.3756714, 0.9193115, 0.0495605469)
(-0.106201172, -0.3756714, 0.9193115, 0.0495605469)
(-0.106201172, -0.3756714, 0.9193115, 0.0495605469)
(-0.106262207, -0.3756714, 0.9192505, 0.0495605469)
(-0.106262207, -0.3756714, 0.9192505, 0.0495605469)
(-0.106201172, -0.3756714, 0.9193115, 0.0495605469)
(-0.106201172, -0.3756714, 0.9193115, 0.0495605469)
(-0.106201172, -0.375732422, 0.9192505, 0.0495605469)
(-0.106201172, -0.375732422, 0.9192505, 0.0495605469)
(-0.106201172, -0.375732422, 0.9192505, 0.0495605469)
(-0.106262207, -0.375732422, 0.9192505, 0.0495605469)
(-0.106262207, -0.375732422, 0.9192505, 0.0495605469)
(-0.106262207, -0.375732422, 0.9192505, 0.0495605469)
(-0.106262207, -0.375732422, 0.9192505, 0.0495605469)
(-0.106201172, -0.375732422, 0.9192505, 0.0495605469)
(-0.106201172, -0.375732422, 0.9192505, 0.0495605469)
(-0.106201172, -0.3758545, 0.9192505, 0.0494384766)
(-0.106201172, -0.3758545, 0.919189453, 0.0494384766)
(-0.106201172, -0.3758545, 0.919189453, 0.0494384766)
(-0.106201172, -0.3758545, 0.9192505, 0.0494384766)
(-0.106201172, -0.375793457, 0.9192505, 0.0494384766)
(-0.106201172, -0.375793457, 0.9192505, 0.0494384766)
(-0.106201172, -0.3758545, 0.9192505, 0.0494384766)
(-0.106262207, -0.3758545, 0.919189453, 0.04937744)
(-0.106262207, -0.3758545, 0.919189453, 0.04937744)
(-0.106262207, -0.375915527, 0.919189453, 0.04937744)
(-0.106262207, -0.375915527, 0.919189453, 0.04937744)
(-0.106262207, -0.375915527, 0.919189453, 0.04937744)
(-0.106262207, -0.375915527, 0.919189453, 0.04937744)
(-0.106262207, -0.375915527, 0.919189453, 0.04937744)
(-0.106262207, -0.375915527, 0.919189453, 0.0494384766)
(-0.106262207, -0.375915527, 0.919189453, 0.0494384766)
(-0.106201172, -0.375915527, 0.919189453, 0.0494384766)
(-0.106201172, -0.375915527, 0.919189453, 0.0494384766)
(-0.106201172, -0.375915527, 0.919189453, 0.0494384766)
(-0.106201172, -0.3758545, 0.9192505, 0.0494384766)
(-0.106201172, -0.375793457, 0.9192505, 0.0494384766)
(-0.106201172, -0.375793457, 0.9192505, 0.0494384766)
(-0.106201172, -0.375793457, 0.9192505, 0.0494384766)
(-0.106201172, -0.375793457, 0.9192505, 0.0494384766)
(-0.106201172, -0.375793457, 0.9192505, 0.0494384766)
(-0.106201172, -0.375793457, 0.9192505, 0.0494384766)
(-0.106201172, -0.375793457, 0.9192505, 0.0494384766)
(-0.106201172, -0.375793457, 0.9192505, 0.0494384766)
(-0.106201172, -0.375793457, 0.9192505, 0.0494384766)
(-0.106201172, -0.3758545, 0.9192505, 0.0494384766)
(-0.106201172, -0.3758545, 0.919189453, 0.04937744)
(-0.106201172, -0.3758545, 0.919189453, 0.04937744)
(-0.106262207, -0.375915527, 0.919189453, 0.04937744)
(-0.106262207, -0.3758545, 0.919189453, 0.04937744)
(-0.106262207, -0.3758545, 0.919189453, 0.04937744)
(-0.106262207, -0.3758545, 0.919189453, 0.04937744)
(-0.106262207, -0.3758545, 0.919189453, 0.04937744)
(-0.106262207, -0.3758545, 0.9192505, 0.04937744)
(-0.106140137, -0.3756714, 0.9193115, 0.04925537)
(-0.106140137, -0.3756714, 0.9193115, 0.04925537)
(-0.106140137, -0.3756714, 0.9193115, 0.04925537)
(-0.106140137, -0.3756714, 0.9193115, 0.04925537)
(-0.106140137, -0.3756714, 0.9193115, 0.04925537)
(-0.106140137, -0.3756714, 0.9193115, 0.04925537)
(-0.106140137, -0.375732422, 0.9193115, 0.04925537)
(-0.1060791, -0.3756714, 0.9193115, 0.0493164063)
(-0.1060791, -0.3756714, 0.9193115, 0.0493164063)
(-0.1060791, -0.3756714, 0.9193115, 0.0493164063)
(-0.1060791, -0.3756714, 0.9193115, 0.0493164063)
(-0.1060791, -0.3756714, 0.9193115, 0.0493164063)
(-0.1060791, -0.375732422, 0.9193115, 0.0493164063)
(-0.1060791, -0.375732422, 0.9193115, 0.0493164063)
(-0.1060791, -0.375732422, 0.9193115, 0.0493164063)
(-0.1060791, -0.375732422, 0.9193115, 0.0493164063)
(-0.1060791, -0.375732422, 0.9193115, 0.0493164063)
(-0.1060791, -0.375732422, 0.9193115, 0.0493164063)
(-0.1060791, -0.375732422, 0.9193115, 0.0493164063)
(-0.105834961, -0.375732422, 0.9193115, 0.0493164063)
(-0.105834961, -0.375732422, 0.9193115, 0.0493164063)
(-0.10559082, -0.3758545, 0.9193115, 0.0491943359)
(-0.10559082, -0.3758545, 0.9193115, 0.0491943359)
(-0.10534668, -0.375915527, 0.9193115, 0.0490722656)
(-0.10534668, -0.375976563, 0.9193115, 0.0490722656)
(-0.10534668, -0.375976563, 0.9193115, 0.0490722656)
(-0.10534668, -0.375976563, 0.9193115, 0.0490722656)
(-0.10534668, -0.375976563, 0.9193115, 0.0490722656)
(-0.105163574, -0.3760376, 0.9193115, 0.04901123)
(-0.104736328, -0.3758545, 0.9194336, 0.04888916)
(-0.104736328, -0.3758545, 0.9194336, 0.04888916)
(-0.104492188, -0.375915527, 0.9194336, 0.04888916)
(-0.104492188, -0.375915527, 0.9194336, 0.04888916)
(-0.104492188, -0.375915527, 0.9194336, 0.04888916)
(-0.104492188, -0.375915527, 0.9194336, 0.04888916)
(-0.104492188, -0.375915527, 0.9194336, 0.04888916)
(-0.104492188, -0.375915527, 0.9194336, 0.04888916)
(-0.104431152, -0.375915527, 0.9194336, 0.04888916)
(-0.104431152, -0.375915527, 0.9194336, 0.04888916)
(-0.104431152, -0.375915527, 0.9194336, 0.04888916)
(-0.104431152, -0.375915527, 0.9194336, 0.04888916)
(-0.104431152, -0.375915527, 0.9194336, 0.04888916)
(-0.104431152, -0.375915527, 0.9194336, 0.04888916)
(-0.104431152, -0.375915527, 0.9194336, 0.04888916)
(-0.104431152, -0.375915527, 0.9194336, 0.04888916)
(-0.104431152, -0.375915527, 0.9194336, 0.04888916)
(-0.104431152, -0.375915527, 0.9194336, 0.04888916)
(-0.104431152, -0.375915527, 0.9194336, 0.04888916)
(-0.104431152, -0.375915527, 0.9194336, 0.04888916)
(-0.104431152, -0.375915527, 0.9194336, 0.04888916)
(-0.104431152, -0.375915527, 0.9194336, 0.04888916)
(-0.104431152, -0.375915527, 0.9194336, 0.04888916)
(-0.104431152, -0.375915527, 0.9194336, 0.04888916)
(-0.104431152, -0.375915527, 0.9194336, 0.04888916)
(-0.104431152, -0.375915527, 0.9194336, 0.04888916)
(-0.104431152, -0.375915527, 0.9194336, 0.04888916)
(-0.104431152, -0.375915527, 0.9194336, 0.04888916)
(-0.104431152, -0.375915527, 0.9194336, 0.04888916)
(-0.104370117, -0.375915527, 0.9194336, 0.04888916)
(-0.104370117, -0.375915527, 0.9194336, 0.04888916)
(-0.104370117, -0.375915527, 0.9194336, 0.04888916)
(-0.104370117, -0.375915527, 0.9194336, 0.04888916)
(-0.104370117, -0.375915527, 0.9194336, 0.04888916)
(-0.104370117, -0.375915527, 0.9194336, 0.04888916)
(-0.104187012, -0.3758545, 0.9194946, 0.04888916)
(-0.104187012, -0.3758545, 0.9194946, 0.04888916)
(-0.104125977, -0.3758545, 0.9194946, 0.04888916)
(-0.104125977, -0.375793457, 0.9194946, 0.04888916)
(-0.104125977, -0.375793457, 0.9194946, 0.04888916)
(-0.104125977, -0.3758545, 0.9194946, 0.04888916)
(-0.104125977, -0.3758545, 0.9194946, 0.04888916)
(-0.104125977, -0.3758545, 0.9194946, 0.04888916)
(-0.104125977, -0.3758545, 0.9194946, 0.04888916)
(-0.104125977, -0.3758545, 0.9194946, 0.04888916)
(-0.104003906, -0.375915527, 0.9194946, 0.04876709)
(-0.104003906, -0.375915527, 0.9194946, 0.04876709)
(-0.1038208, -0.3760376, 0.9194336, 0.0487060547)
(-0.1038208, -0.3760376, 0.9194336, 0.0487060547)
(-0.10357666, -0.376159668, 0.9194336, 0.04864502)
(-0.10357666, -0.376159668, 0.9194336, 0.04864502)
(-0.10333252, -0.376281738, 0.9194336, 0.04852295)
(-0.10333252, -0.376281738, 0.9194336, 0.04852295)
(-0.103088379, -0.3764038, 0.9194336, 0.04840088)
(-0.102539063, -0.376525879, 0.9194336, 0.04840088)
(-0.102539063, -0.376525879, 0.9194336, 0.04840088)
(-0.102233887, -0.3765869, 0.9194336, 0.0483398438)
(-0.102233887, -0.3765869, 0.9194336, 0.0483398438)
(-0.101989746, -0.3765869, 0.9194336, 0.0482177734)
(-0.101745605, -0.3765869, 0.9194946, 0.0480957031)
(-0.101745605, -0.3765869, 0.9194946, 0.0480957031)
(-0.101745605, -0.3765869, 0.9194946, 0.0480957031)
(-0.101501465, -0.376647949, 0.9194946, 0.048034668)
(-0.101501465, -0.376708984, 0.9194946, 0.048034668)
(-0.101501465, -0.376708984, 0.9194946, 0.048034668)
(-0.101501465, -0.376647949, 0.9194946, 0.048034668)
(-0.101501465, -0.376647949, 0.9194946, 0.048034668)
(-0.10144043, -0.376708984, 0.9194946, 0.048034668)
(-0.10144043, -0.376708984, 0.9194946, 0.048034668)
(-0.10144043, -0.376708984, 0.9194946, 0.048034668)
(-0.10144043, -0.376708984, 0.9194946, 0.048034668)
(-0.10144043, -0.376708984, 0.9194946, 0.048034668)
(-0.10144043, -0.376708984, 0.9194946, 0.048034668)
(-0.10144043, -0.376708984, 0.9194946, 0.048034668)
(-0.10144043, -0.376708984, 0.9194946, 0.048034668)
(-0.10144043, -0.376708984, 0.9194946, 0.048034668)
(-0.101379395, -0.37677002, 0.9194946, 0.0480957031)
(-0.101318359, -0.376831055, 0.9194336, 0.0480957031)
(-0.101318359, -0.376831055, 0.9194336, 0.0480957031)
(-0.101318359, -0.376831055, 0.9194336, 0.0480957031)
(-0.101318359, -0.376831055, 0.9194336, 0.0480957031)
(-0.101318359, -0.376831055, 0.9194336, 0.0480957031)
(-0.101318359, -0.376831055, 0.9194336, 0.0480957031)
(-0.101257324, -0.376831055, 0.9194336, 0.0480957031)
(-0.101257324, -0.376831055, 0.9194336, 0.0480957031)
(-0.101257324, -0.376831055, 0.9194336, 0.04815674)
(-0.101257324, -0.376831055, 0.9194336, 0.04815674)
(-0.101257324, -0.376831055, 0.9194946, 0.04815674)
(-0.101196289, -0.376831055, 0.9194336, 0.04815674)
(-0.101196289, -0.376831055, 0.9194336, 0.04815674)
(-0.101196289, -0.376831055, 0.9194336, 0.04815674)
(-0.101196289, -0.376831055, 0.9194336, 0.04815674)
(-0.101196289, -0.376831055, 0.9194336, 0.04815674)
(-0.101196289, -0.376831055, 0.9194336, 0.04815674)
(-0.101196289, -0.376831055, 0.9194336, 0.04815674)
(-0.101196289, -0.376831055, 0.9194336, 0.04815674)
(-0.101196289, -0.3768921, 0.9194336, 0.04815674)
(-0.101196289, -0.3768921, 0.9194336, 0.04815674)
(-0.101196289, -0.3768921, 0.9194336, 0.04815674)
(-0.101196289, -0.3768921, 0.9194336, 0.04815674)
(-0.101196289, -0.3768921, 0.9194336, 0.04815674)
(-0.101196289, -0.376953125, 0.9194336, 0.04815674)
(-0.101013184, -0.37701416, 0.919372559, 0.04827881)
(-0.101013184, -0.37701416, 0.919372559, 0.04827881)
(-0.101013184, -0.37701416, 0.919372559, 0.04827881)
(-0.101013184, -0.37701416, 0.919372559, 0.04827881)
(-0.101013184, -0.37701416, 0.919372559, 0.04827881)
(-0.101013184, -0.37701416, 0.919372559, 0.04827881)
(-0.101013184, -0.37701416, 0.919372559, 0.04827881)
(-0.101013184, -0.377502441, 0.919189453, 0.0480957031)
(-0.101013184, -0.377502441, 0.919189453, 0.0480957031)
(-0.101013184, -0.377563477, 0.919189453, 0.0480957031)
(-0.101013184, -0.377563477, 0.919189453, 0.0480957031)
(-0.101013184, -0.377563477, 0.919189453, 0.0480957031)
(-0.100952148, -0.3776245, 0.9191284, 0.04815674)
