73,159,250,199,111,18,-276,-818,-66,33
10,75,173,127,78,46,-147,-422,-131,5
67,94,169,110,69,25,-289,-376,-215,76
86,102,147,50,29,23,-350,-463,-368,75
98,101,104,14,-22,-4,-354,-382,-345,101
70,90,105,62,-29,-23,-365,-407,-417,22
14,55,188,118,4,36,-354,-564,-619,-142
-69,12,180,139,66,106,-268,-404,-665,-266
-83,-35,53,112,83,62,-259,-109,-428,-217
-95,-93,-11,87,50,32,-192,205,-184,-128
-174,-152,-56,73,14,44,-78,440,-237,-182
-334,-280,-194,-28,-53,28,-49,384,-281,-330
-403,-332,-114,-58,-74,4,-60,297,-181,-331
-296,-271,-9,3,-70,-27,-68,280,-100,-217
-150,-189,80,93,-51,-87,-148,237,-67,-81
-23,-36,227,253,30,-154,-322,-136,-271,-30
62,133,410,432,123,-152,-534,-921,-684,-92
34,133,362,418,101,-117,-464,-1118,-898,-217
-14,38,224,313,58,-75,-197,-622,-797,-223
12,38,257,284,113,18,-7,-424,-665,-139
13,99,260,291,207,127,-16,-737,-909,-204
-32,118,153,249,273,223,-9,-945,-1089,-351
-15,139,56,180,268,262,115,-845,-998,-377
7,146,7,119,273,262,176,-758,-874,-349
28,109,-74,-18,244,205,142,-571,-644,-235
42,71,-177,-131,127,141,133,-306,-399,-110
-3,6,-169,-211,-6,96,208,-82,-192,-65
-40,-35,-165,-254,-78,84,268,60,-83,-45
1,37,-130,-223,-106,73,213,57,-75,-28
132,174,-98,-200,-127,45,175,69,-38,-28
271,269,-59,-146,-61,36,183,161,38,5
274,248,-30,-93,20,15,158,241,69,15
204,182,-68,-91,35,22,107,222,44,-1
143,149,-75,-95,73,37,137,140,-4,-3
125,150,-63,-103,85,8,186,103,48,50
100,108,-83,-127,72,-28,149,112,74,28
61,45,-161,-151,59,-19,108,121,105,0
24,28,-145,-159,56,2,150,163,169,-3
9,9,-130,-161,36,29,189,186,245,-6
7,0,-147,-153,-10,2,177,165,292,-12
-12,-6,-202,-152,-40,-26,150,143,295,-32
-33,-21,-165,-155,-63,-62,135,144,316,-30
-37,-10,-129,-149,-66,-61,147,190,366,3
-57,-20,-101,-132,-63,-60,199,217,328,-80
-85,-38,-106,-95,-48,-54,291,219,378,-160
-106,-40,-161,-60,-33,-47,253,218,433,-200
-122,-35,-134,-45,-36,-47,216,226,527,-244
-131,-30,-45,-34,-39,-50,160,211,604,-321
-140,7,-20,-23,-37,-79,90,224,629,-401
-156,2,-9,-23,-30,-75,90,257,639,-434
-176,-30,-5,-25,-24,-47,94,220,612,-486
-173,-61,-19,-33,-26,-48,97,174,633,-442
-151,-83,-49,-44,-52,-53,120,144,636,-312
-118,-98,-51,-45,-49,-48,169,126,557,-130
-23,-105,-98,-52,-36,-16,208,78,399,189
110,-107,-102,-70,-56,-17,150,45,346,596
215,-101,-82,-81,-81,-45,113,64,400,904
258,-73,-62,-60,-76,-82,76,69,353,971
228,-47,-20,-23,-49,-68,75,47,114,762
163,-33,16,0,-26,-28,89,25,-57,531
98,-43,19,9,-24,3,85,15,-125,352
53,-55,14,2,-23,16,43,4,-182,224
33,-44,28,12,-26,0,-33,-18,-192,142
28,-23,41,16,-22,-16,-78,-29,-163,99
16,-13,45,6,-24,-32,-97,-7,-80,109
-1,-28,34,-7,-39,-43,-91,27,-18,82
-24,-38,18,-15,-46,-46,-113,55,-10,-9
-47,-40,5,-21,-43,-28,-113,83,14,-82
-59,-58,-13,-37,-53,-17,-69,110,52,-112
-65,-77,-19,-36,-48,-16,-35,155,108,-116
-62,-99,-28,-36,-45,-10,-16,201,150,-75
-36,-111,-60,-47,-35,13,30,249,164,46
-9,-105,-59,-56,-39,22,49,271,185,165
12,-97,-82,-54,-43,0,28,293,190,219
6,-80,-145,-34,-22,-40,-42,295,151,171
0,-43,-72,-14,-9,-50,-105,251,53,117
20,-22,36,-4,-6,-64,-186,195,-46,88
18,-23,61,-3,1,-88,-239,186,-121,45
-6,-16,40,-11,-17,-91,-235,181,-158,20
-10,-16,-58,-32,-40,-93,-237,184,-102,52
-8,-30,-121,-39,-62,-82,-268,198,-96,60
-26,-44,-71,-43,-44,-43,-283,219,-130,22
-24,-30,26,-15,2,6,-279,217,-122,11
-12,-5,66,8,39,28,-300,173,-88,1
0,19,104,41,66,41,-342,68,-87,-4
-17,30,122,51,90,57,-321,1,-110,-54
-28,20,103,33,65,40,-279,31,-87,-51
-30,-9,64,8,37,-31,-307,81,-26,-31
-66,-54,26,-47,-6,-82,-319,160,9,-82
-125,-120,-56,-128,-68,-94,-254,343,119,-79
-181,-194,-182,-193,-112,-62,-99,563,220,-78
-229,-247,-203,-242,-139,-3,32,745,290,-70
-243,-293,-234,-294,-169,-16,132,855,403,-32
-178,-272,-244,-276,-171,-6,176,770,454,62
-73,-199,-154,-193,-117,17,144,562,539,202
-6,-124,-25,-93,-41,45,132,138,419,180
28,-5,115,48,50,72,68,-258,74,16
24,59,189,119,92,76,-121,-397,-158,-86
13,78,199,142,119,43,-335,-443,-282,-134
84,149,260,168,94,-80,-629,-542,-384,-99
129,190,258,156,15,-184,-668,-410,-452,-42
164,239,294,176,29,-157,-654,-330,-459,19
156,250,297,179,52,-139,-827,-396,-453,28
134,172,239,133,18,-148,-883,-347,-420,-34
99,118,194,96,-7,-103,-742,-238,-328,-55
95,135,220,134,25,-10,-623,-261,-352,-60
90,137,226,151,51,25,-525,-111,-310,-25
55,82,178,94,12,-5,-454,70,-215,-2
33,21,114,25,-40,-31,-392,373,-105,23
-5,-38,19,-43,-98,-46,-341,610,40,51
-10,-36,15,-28,-51,16,-326,223,-3,20
-21,2,59,67,62,145,-260,-598,-363,-101
-60,11,-10,97,88,198,-238,-1108,-684,-207
-23,43,58,116,77,189,-343,-1054,-655,-179
-11,46,103,125,76,156,-445,-877,-466,-154
13,50,102,134,77,130,-531,-928,-307,-110
27,54,131,117,72,145,-353,-774,-223,-74
16,4,65,60,7,146,38,-412,-123,-24
102,50,92,86,24,121,40,-347,-108,56
119,111,182,167,98,139,-61,-562,-293,42
4,46,39,161,122,204,0,-501,-496,-92
-35,-7,-8,131,116,201,-58,-364,-531,-147
48,51,94,176,127,124,-419,-546,-549,-86
122,139,148,224,129,59,-678,-713,-537,-9
131,163,236,217,116,26,-678,-700,-447,23
84,122,201,154,91,23,-515,-587,-416,-41
24,48,127,101,51,30,-356,-406,-391,-103
16,13,58,70,24,30,-275,-224,-282,-89
20,4,43,55,17,13,-219,-107,-151,-68
39,10,6,33,-3,-10,-163,-32,-20,-46
41,10,0,11,-13,-19,-99,44,69,-61
18,11,32,5,-8,-17,-55,102,111,-110
-1,12,21,12,-14,-27,-33,127,135,-146
-11,8,-4,-6,-19,-30,34,149,135,-174
-23,4,-7,-9,-20,-28,89,147,154,-191
-24,-2,-43,-36,-34,-32,109,140,157,-177
-26,-6,-80,-67,-52,-43,140,144,160,-136
-38,-22,-71,-73,-57,-32,221,161,166,-145
-58,-37,-62,-55,-26,0,297,192,181,-145
-83,-34,-71,-42,-6,18,320,221,232,-100
-36,-40,-78,-38,5,3,323,225,230,-11
20,-58,-114,-57,-11,-37,342,240,254,149
11,-60,-168,-69,-30,-38,350,233,287,193
-1,-48,-104,-55,-23,-33,330,223,271,142
12,-43,-90,-52,-37,-49,340,245,337,210
1,-45,-95,-59,-39,-49,374,282,368,215
-20,-32,-86,-38,-20,-22,411,300,325,157
-6,-18,-77,-34,0,-18,400,272,313,175
11,-14,-83,-36,10,-35,392,234,294,180
6,-21,-107,-20,18,-13,420,210,270,144
-6,-4,-76,-1,31,1,415,200,226,83
-13,5,-34,4,20,-1,394,186,188,65
-15,-17,-54,-19,0,-20,384,192,188,72
-54,-10,-66,-32,-19,-23,389,201,155,-5
-119,1,-43,-22,-9,-12,398,223,89,-175
-180,-21,-40,-33,-12,-1,417,230,52,-320
-195,-43,-50,-58,-35,-1,400,228,47,-327
-142,-64,-62,-90,-49,-19,368,220,64,-238
-80,-53,-69,-91,-53,-37,315,208,108,-95
-63,-55,-58,-61,-32,-33,267,226,109,-42
-84,-62,-55,-42,-21,-33,264,228,89,-96
-88,-64,-86,-64,-37,-32,216,234,99,-60
-53,-58,-166,-79,-58,-52,160,234,155,65
2,-57,-139,-74,-67,-89,105,238,154,162
23,-40,-79,-52,-54,-77,85,235,127,150
10,-30,-33,-29,-21,-26,88,236,68,49
-18,-32,-23,-33,-7,-14,77,236,22,-20
-34,-48,-31,-37,-20,-43,32,237,21,-66
-58,-61,-54,-41,-38,-23,23,235,45,-109
-60,-75,-62,-59,-47,14,53,258,83,-60
-43,-92,-82,-76,-61,0,26,261,47,-4
-29,-131,-127,-97,-83,-9,54,227,34,92
-23,-146,-195,-109,-103,-7,98,230,101,188
-19,-150,-197,-122,-118,-13,117,276,208,277
-10,-144,-182,-122,-123,-43,48,260,244,328
17,-129,-203,-119,-98,-54,-4,241,214,358
34,-97,-111,-98,-74,-57,-28,240,176,347
35,-65,-59,-52,-55,-35,-40,176,62,241
30,-21,-29,1,-19,-31,-53,86,-88,98
1,18,32,49,34,8,25,98,-225,-53
-27,19,54,73,78,89,128,146,-303,-129
-20,30,33,65,73,93,93,50,-368,-126
-20,38,46,60,52,40,31,-6,-336,-107
-17,15,37,37,27,14,27,-3,-254,-84
4,0,25,1,4,15,35,0,-147,-9
2,-20,0,-9,-6,0,30,-8,-157,-20
5,-31,-19,-17,-11,-6,37,-15,-179,-57
6,-43,-35,-30,-18,0,67,-5,-145,-74
-18,-36,-33,-45,-23,4,69,30,-109,-98
-22,-33,-63,-44,-36,0,33,35,-90,-89
-16,-30,-57,-33,-49,-12,23,29,-84,-71
-15,-25,-41,-23,-52,-34,42,27,-70,-62
0,-7,25,10,-39,-39,50,-31,-86,-90
5,20,26,46,-24,-14,93,-83,-117,-113
-7,17,-16,22,-21,5,135,-44,-126,-160
-23,3,15,1,-27,9,152,-34,-146,-233
-49,-26,3,-25,-47,-30,145,-64,-163,-288
-92,-40,-30,-53,-81,-71,147,10,-169,-336
-110,-51,-35,-71,-92,-86,115,172,-138,-333
-92,-55,-29,-71,-88,-80,128,307,-25,-247
-87,-61,-35,-58,-74,-67,133,318,35,-232
-98,-50,19,8,-28,-29,126,131,-86,-298
-43,1,78,58,13,1,50,-160,-129,-150
81,67,142,94,52,-1,-50,-434,-30,219
143,71,138,90,52,17,-23,-380,97,502
169,91,148,101,75,62,74,-165,106,513
198,159,207,148,104,105,106,-205,29,411
190,180,207,174,121,103,63,-392,-119,263
167,137,190,157,114,65,73,-459,-185,185
149,107,163,138,100,31,101,-375,-142,165
136,89,138,117,85,0,37,-282,-75,156
114,78,112,90,77,-25,-34,-237,-87,119
78,82,109,91,66,-24,-62,-240,-153,45
63,84,104,84,50,-16,-85,-249,-159,0
51,66,103,69,50,-6,-70,-224,-151,-28
16,58,72,57,53,12,-59,-210,-201,-133
-46,51,61,66,70,36,-20,-193,-240,-242
-74,43,35,70,66,53,37,-181,-231,-278
-60,36,47,57,53,37,46,-165,-192,-267
-52,22,54,42,41,41,34,-173,-175,-276
-52,17,53,42,51,54,19,-203,-194,-294
-18,18,47,38,54,53,17,-207,-137,-180
14,9,25,32,49,54,-3,-217,-84,-65
78,-5,1,13,40,46,-58,-227,-42,96
173,0,-9,-2,9,12,-95,-188,104,411
211,50,7,8,17,7,-82,-152,122,490
171,68,18,22,23,8,-65,-138,44,345
124,58,12,17,25,17,-12,-151,6,194
101,66,14,19,34,35,18,-151,33,114
100,85,23,26,38,43,-12,-125,71,122
106,82,42,38,47,53,-43,-140,30,99
114,77,46,44,67,73,-60,-150,62,159
107,75,36,35,49,49,-74,-148,76,220
108,71,46,26,19,19,-127,-148,3,197
88,55,51,30,15,19,-193,-158,-66,132
61,47,20,27,19,40,-152,-122,-19,94
54,29,32,21,30,46,-42,-64,125,120
9,2,32,21,34,72,46,-44,130,58
-45,5,13,9,34,73,90,-50,57,-66
-88,-1,16,-15,26,67,114,-68,6,-170
-124,5,24,-3,37,60,118,-71,-71,-254
-142,7,7,4,22,33,97,-78,-129,-330
-139,-2,-4,-2,21,10,78,-61,-186,-371
-105,-9,0,-1,14,-13,56,-56,-192,-366
-78,-6,-9,5,0,-29,63,-56,-79,-273
-82,-29,6,23,33,-15,106,-86,-95,-263
-96,-45,-2,25,46,-2,169,-121,-111,-215
-97,-57,-15,37,68,34,193,-130,-90,-140
-55,-83,-40,9,57,31,203,-132,-25,-2
8,-91,-100,-38,14,-9,194,-95,161,266
34,-66,-116,-25,5,-18,187,-80,211,360
-9,-29,-24,12,29,17,199,-76,104,190
-41,-8,13,27,46,46,146,-51,-23,-24
-55,-5,0,33,61,56,70,-11,-100,-144
-60,-30,-29,6,44,46,58,0,-71,-180
-21,-74,-63,-31,-5,35,25,41,52,-39
44,-87,-104,-43,-36,24,-1,46,211,184
91,-77,-99,-42,-43,3,-14,65,284,349
115,-51,-47,-47,-63,-9,-49,120,306,482
109,-18,-33,-69,-94,-26,-66,181,373,564
75,-4,-22,-84,-78,-51,-72,165,285,474
54,15,-29,-74,-65,-70,-90,94,132,316
41,5,-48,-52,-56,-62,-79,68,132,193
31,8,-66,-22,-50,-70,-59,134,149,111
25,29,-90,8,-24,-84,-65,165,117,57
19,43,-35,25,33,-75,-104,184,68,7
-5,52,-12,46,88,-26,-161,181,22,-33
-77,5,19,53,112,0,-118,133,-76,-155
-128,-15,-4,58,123,9,-102,-7,-176,-251
-152,-23,-21,65,123,-1,-174,-155,-254,-309
-188,-34,-3,54,106,-24,-228,-236,-330,-373
-212,-44,7,50,85,-32,-196,-107,-316,-452
-275,-61,10,29,64,-30,-139,7,-337,-604
-328,-99,-12,10,55,0,-98,54,-326,-704
-321,-136,-89,-21,29,14,-79,58,-288,-648
-290,-159,-163,-65,-29,12,-49,58,-241,-552
-256,-142,-91,-56,-45,48,37,84,-188,-485
-217,-92,-28,7,1,69,19,74,-219,-463
-185,-67,-5,27,43,62,9,88,-212,-441
-102,-41,-23,29,64,58,123,183,-32,-145
45,-22,-1,9,65,49,123,272,204,353
143,-12,7,-22,70,20,-21,284,280,611
115,-55,-41,-52,47,-21,-115,236,205,516
26,-111,-77,-39,85,4,-45,197,115,289
0,-131,-91,-19,124,43,67,195,148,208
28,-130,-120,-24,113,17,31,220,197,272
34,-119,-144,-57,89,-6,-34,235,202,347
-12,-117,-58,-53,96,8,-57,246,173,306
-63,-95,-6,-17,106,15,-70,242,160,194
-66,-64,21,8,72,17,-133,225,150,121
-34,-28,41,12,28,-18,-219,218,104,64
-9,0,55,-14,-2,-66,-264,244,36,9
15,-1,12,-67,-72,-44,-142,301,57,12
78,22,22,-88,-122,-18,-7,391,144,76
129,60,63,-73,-136,-50,-25,469,195,134
188,124,127,-41,-159,-112,-112,532,253,202
229,160,169,-14,-187,-149,-125,613,350,263
230,143,131,-66,-216,-163,-171,685,413,262
189,95,75,-80,-211,-171,-244,706,407,244
156,63,65,-61,-194,-179,-266,720,394,206
116,32,54,-80,-179,-170,-221,712,424,168
63,-15,24,-120,-179,-174,-168,739,514,148
22,-56,18,-137,-184,-178,-123,743,514,99
-16,-60,17,-146,-194,-164,-65,717,511,51
-54,-68,12,-145,-196,-146,-21,711,491,33
-68,-105,-12,-155,-196,-147,42,725,459,38
-42,-122,-29,-171,-222,-158,83,783,570,125
12,-95,-80,-187,-229,-179,104,863,668,198
61,-55,-139,-215,-240,-214,75,863,647,222
44,-78,-50,-200,-227,-212,57,841,529,185
-27,-122,24,-137,-177,-180,2,700,287,55
-35,-130,40,-118,-159,-183,-21,542,254,63
21,-104,54,-116,-144,-208,-106,408,306,147
-1,-106,41,-102,-139,-209,-197,337,199,61
-14,-93,16,-133,-158,-209,-186,547,173,8
22,-66,-40,-149,-149,-196,-116,858,277,59
50,-27,-116,-118,-91,-142,-75,973,315,86
38,35,-11,-102,-61,-112,-114,820,222,31
61,174,61,-98,-45,-116,-181,572,141,-7
234,395,132,-61,-18,-96,-205,292,179,71
321,468,195,20,76,-16,-205,21,42,18
153,309,171,62,140,84,-136,-234,-207,-173
-34,139,127,36,140,109,-96,-291,-345,-267
-68,64,73,12,106,83,-156,-87,-290,-214
-51,54,39,0,75,53,-279,62,-181,-171
-27,52,15,-18,51,60,-343,73,-114,-167
-5,64,22,-22,33,39,-408,39,-21,-96
-11,54,23,-11,34,28,-439,-1,-20,-77
-29,31,26,4,54,29,-410,-59,6,-75
-31,18,6,16,48,49,-369,-91,32,-79
-2,28,-2,3,43,66,-319,-144,46,-68
-15,6,-33,9,64,103,-248,-201,17,-73
-18,6,-48,10,69,109,-231,-280,-43,-89
-18,19,32,30,67,111,-269,-354,-91,-82
-18,26,59,46,73,117,-281,-409,-142,-84
-28,22,56,59,70,123,-227,-403,-229,-141
-53,17,39,57,62,119,-139,-359,-289,-167
-82,-15,22,40,31,125,-52,-343,-324,-212
-127,-39,10,19,3,115,-7,-332,-389,-292
-157,-38,0,24,2,121,1,-323,-409,-345
-172,-45,-30,46,10,115,-28,-361,-390,-346
-177,-61,-60,31,-20,82,-26,-327,-305,-256
-172,-92,-65,6,-55,69,-36,-251,-287,-228
-192,-113,-106,10,-37,51,-38,-215,-413,-322
-222,-132,-83,24,-26,58,-17,-162,-504,-395
-220,-160,-94,18,-46,99,87,-89,-514,-382
-198,-158,-111,1,-58,112,197,-74,-442,-280
-202,-135,-136,3,-45,97,183,-70,-407,-256
-239,-115,-85,24,-27,85,173,-105,-500,-385
-260,-91,-52,47,-41,75,116,-142,-555,-530
-196,-73,-40,43,-71,14,-73,-255,-453,-501
-82,-76,-88,2,-145,-88,-253,-365,-209,-123
-34,-99,-99,-20,-165,-128,-299,-401,-137,115
-71,-126,-106,-12,-124,-73,-233,-407,-221,19
-92,-157,-117,-17,-114,-25,-169,-394,-203,53
-19,-194,-182,-74,-172,-26,-139,-346,53,446
60,-231,-262,-158,-230,-71,-32,-230,354,848
22,-249,-275,-174,-220,-26,298,-92,325,740
-61,-261,-269,-150,-198,35,527,10,194,414
-132,-246,-244,-130,-175,84,546,96,151,176
-152,-200,-218,-97,-139,91,546,164,163,71
-97,-121,-131,-42,-95,81,525,178,173,37
0,19,-16,44,-23,57,329,17,127,17
81,140,77,113,7,-7,18,-228,124,-8
80,176,96,106,-11,-103,-209,-288,119,-117
-3,134,-34,49,-56,-199,-273,-213,-23,-395
-73,74,-96,8,-68,-172,-159,-51,-60,-586
-113,65,-4,5,-52,-123,-77,14,-59,-679
-83,83,21,17,-32,-160,-199,-119,7,-637
-91,101,54,37,11,-157,-237,-289,40,-624
-141,69,15,21,20,-89,-37,-246,119,-604
-101,49,-37,1,40,-66,11,-143,287,-332
32,83,-14,16,75,-34,-61,-96,252,-48
180,96,10,38,103,-25,-138,-60,231,195
215,99,49,82,170,12,-203,-85,240,305
248,101,59,83,191,52,-243,-151,322,508
282,61,6,23,131,28,-186,-168,536,746
343,59,-28,2,121,31,-142,-263,643,951
342,83,0,12,150,69,-254,-361,553,944
306,105,27,14,146,95,-423,-367,443,847
240,77,-4,3,134,144,-421,-309,280,697
128,13,-35,-28,114,141,-393,-122,135,483
112,18,-21,-33,109,90,-583,1,55,385
107,46,-47,-16,121,107,-681,30,31,302
72,37,-83,-22,98,115,-543,33,73,252
79,62,-66,-21,77,55,-432,55,129,254
165,129,35,34,114,61,-505,39,243,343
279,207,157,88,122,3,-843,-199,268,485
350,263,205,131,129,-67,-1242,-554,89,563
306,246,204,135,119,-93,-1334,-677,-189,464
158,154,131,81,106,-64,-1092,-493,-245,289
38,69,36,11,75,27,-664,-254,-193,148
8,36,17,-17,64,114,-405,-172,-180,78
-12,33,17,-16,70,144,-377,-124,-182,17
-16,66,37,14,75,161,-445,9,-164,-59
39,161,134,52,78,129,-629,53,-123,-68
200,333,291,139,125,49,-997,-61,8,60
382,518,445,266,154,-109,-1633,-506,2,193
426,590,492,288,109,-268,-1996,-775,-110,196
264,471,365,174,20,-260,-1717,-636,-203,64
165,336,226,93,-14,-176,-1332,-536,-204,-2
79,197,152,67,-11,-74,-1031,-487,-239,-71
-20,70,90,52,-3,-11,-829,-359,-275,-158
-67,15,50,45,-16,9,-599,-119,-194,-169
-92,-53,-5,12,-52,13,-463,50,-113,-134
-117,-117,-10,7,-55,34,-402,165,-83,-139
-147,-155,-68,-7,-38,62,-276,160,-83,-154
-121,-92,-125,-4,-40,52,-202,38,-125,-165
-93,11,-25,12,-31,66,-189,-10,-154,-150
-131,32,21,20,-17,106,-129,5,-196,-127
-134,7,19,10,-16,91,7,23,-291,-169
-110,-1,16,-6,-34,61,32,92,-359,-219
-84,-4,5,-4,-49,25,58,148,-318,-236
-74,-1,-43,0,-50,-11,112,115,-266,-249
-72,-16,-55,-15,-64,-16,218,49,-220,-228
-83,-59,-48,-24,-64,22,322,-58,-174,-212
-124,-144,-76,-40,-57,67,479,173,-117,-212
-166,-276,-168,-77,-58,116,776,627,-49,-212
-168,-365,-247,-90,-60,136,1040,990,72,-139
-91,-369,-244,-93,-60,105,1119,1129,171,49
-48,-341,-211,-44,-31,100,1186,1049,116,115
-102,-309,-190,0,28,159,1297,594,-121,-28
-209,-341,-269,-16,43,223,1434,189,-341,-177
-222,-311,-215,-6,62,235,1453,136,-298,-191
-139,-244,-144,41,105,226,1341,202,-99,-60
-81,-197,-122,68,103,192,1207,83,-46,-33
-35,-146,-137,86,93,142,1101,-137,-83,-55
19,-53,-39,93,87,97,945,-271,-41,8
42,27,25,99,84,72,730,-393,-80,24
19,67,-42,84,56,60,613,-290,-105,-34
29,112,63,105,82,67,523,-126,-114,-24
59,132,135,132,102,64,410,-120,-194,-17
46,101,121,125,92,45,350,-250,-295,-77
-37,17,67,87,57,48,471,-255,-334,-170
-76,-25,24,42,19,32,565,-231,-285,-175
-73,-43,11,21,16,39,566,-102,-180,-116
-72,-61,0,22,30,64,527,1,-83,-106
-75,-72,-25,15,19,35,492,2,-18,-97
-95,-65,-78,4,3,-1,492,-47,58,-95
-97,-47,-38,6,0,-3,495,-46,112,-87
-106,-23,2,3,-4,-17,471,-37,21,-225
-149,30,14,10,1,-11,496,-21,-16,-393
-193,50,42,22,4,-6,553,6,-62,-543
-213,60,88,25,23,-2,593,-13,-89,-588
-180,44,78,29,33,-16,562,-73,-106,-532
-151,29,66,54,64,-10,585,-36,-9,-467
-128,31,62,62,73,14,661,76,139,-429
-63,25,48,65,62,14,646,93,178,-312
85,4,-4,16,-5,-78,530,43,359,198
215,-19,-82,-71,-96,-146,521,27,519,710
200,-24,-64,-90,-103,-97,566,62,440,724
116,-20,-5,-66,-78,-24,620,199,272,478
39,-38,2,-65,-59,12,661,355,230,248
-50,-36,-11,-63,-43,31,622,362,228,41
-69,-13,-26,-55,-30,28,450,240,225,-74
-33,21,-19,-40,-29,-13,244,102,271,-88
31,74,56,-27,-37,-48,80,6,249,-62
91,114,70,-50,-52,-53,121,164,325,56
119,95,-8,-68,-53,9,74,620,440,142
158,66,-60,-89,-28,53,22,671,487,235
223,45,0,-108,-48,10,-69,613,556,458
287,30,-15,-123,-92,-51,-205,334,696,814
273,8,-25,-95,-56,-70,-344,-220,531,926
193,11,-32,-15,9,-23,-351,-626,94,657
106,4,-9,-6,13,27,-219,-591,-180,330
58,-21,-15,-64,-29,-3,-153,-520,-223,137
24,-36,-18,-97,-74,-59,-146,-484,-111,70
-23,-56,-50,-122,-124,-105,-79,-210,26,45
-101,-123,-112,-186,-180,-84,122,424,201,13
-167,-212,-181,-262,-233,-50,376,1137,344,-58
-177,-209,-171,-254,-209,12,543,1442,387,-113
-139,-127,-97,-174,-121,78,599,1191,356,-117
-164,-91,-84,-100,-36,149,598,578,176,-189
-170,-73,-43,-47,6,163,530,-135,-17,-245
-104,-34,3,-23,19,135,400,-313,50,-127
-50,-13,29,7,23,126,300,-317,152,5
-5,2,47,49,33,117,270,-306,137,86
99,63,100,82,30,56,75,108,292,263
203,132,173,115,48,12,-266,104,350,396
126,88,136,90,22,-36,-534,-447,120,246
68,58,107,85,13,-47,-689,-926,-61,115
71,33,108,78,37,31,-603,-561,95,155
132,61,145,110,83,125,-332,-82,232,200
177,157,223,199,163,195,-124,-368,45,168
118,200,272,268,194,215,-242,-1140,-448,-75
25,171,253,239,122,114,-513,-1574,-900,-357
-119,83,75,93,-33,9,-577,-1398,-1010,-552
-288,-60,-104,-103,-171,26,-293,-969,-925,-704
-397,-181,-211,-219,-218,93,69,-387,-651,-658
-322,-154,-162,-166,-152,146,-1,184,-233,-359
-77,7,2,-35,-61,96,-460,444,121,34
160,185,135,66,-12,-60,-998,335,354,397
251,255,217,118,42,-142,-1200,108,466,474
337,348,360,229,168,-111,-1159,-570,337,429
416,465,492,358,282,-32,-934,-1373,-131,303
351,389,426,314,253,0,-835,-1372,-322,191
294,285,312,194,155,-10,-823,-975,-207,168
307,288,275,151,92,-52,-889,-971,-209,160
288,284,260,133,56,-94,-972,-1008,-283,138
234,257,228,121,54,-108,-974,-1148,-342,79
146,195,109,84,49,-73,-911,-1758,-427,-74
77,151,67,60,60,13,-756,-1213,-458,-189
39,132,132,53,74,63,-497,-896,-459,-256
52,140,171,79,107,82,-656,-1200,-411,-223
99,164,230,124,135,73,-798,-1059,-377,-166
91,182,198,110,111,31,-550,-1082,-308,-167
64,172,135,52,65,-22,-172,-649,-142,-152
75,141,89,4,8,-69,244,-421,-62,-99
90,184,62,-39,-37,-112,280,-402,-128,-63
57,191,58,-43,-16,-38,344,-94,-149,-92
14,161,72,9,39,58,570,27,-61,-90
86,244,142,105,103,26,318,-279,-103,-65
170,395,200,150,139,-46,30,-691,-237,-89
190,452,187,128,103,-106,38,-872,-209,-89
195,397,144,113,84,-107,-35,-845,-180,-61
101,240,76,103,80,-103,-34,-494,-172,-125
-11,75,-4,82,72,-91,165,62,-31,-178
-51,-27,-59,38,61,-58,403,409,94,-163
-69,-101,-83,33,62,-51,475,489,138,-140
-70,-140,-65,59,80,-79,439,433,197,-88
-65,-142,-54,78,107,-49,554,346,229,-36
-135,-201,-59,96,145,47,812,55,42,-92
-269,-269,-68,107,170,109,886,-341,-429,-360
-283,-268,-72,68,119,107,863,-326,-505,-416
-185,-211,0,51,106,99,843,-102,-281,-262
-90,-100,39,22,91,84,846,32,-120,-146
-30,-51,9,-26,80,53,922,218,0,-14
10,-65,-28,-56,55,30,960,395,129,90
43,-98,-31,-64,-1,-16,958,509,272,147
94,-83,-58,-94,-78,-12,1061,652,401,168
134,-29,-124,-138,-116,-4,1223,928,518,132
120,-69,-152,-166,-114,12,1336,1298,622,109
73,-114,-174,-171,-135,1,1364,1551,656,103
28,-153,-199,-179,-144,-6,1167,1410,628,59
-38,-231,-244,-185,-139,0,1053,922,447,-107
-169,-333,-293,-199,-132,29,1171,714,232,-303
-225,-391,-291,-195,-124,33,1140,742,189,-290
-198,-404,-293,-178,-114,24,1080,839,260,-135
-179,-362,-270,-136,-97,18,1115,1052,344,-44
-212,-321,-255,-127,-105,39,1170,1360,351,-166
-195,-292,-259,-134,-126,26,1176,1573,386,-201
-152,-299,-262,-152,-170,-39,1082,1561,519,25
-137,-352,-332,-189,-175,-58,1000,1519,591,281
-82,-320,-359,-153,-107,-20,898,1333,533,455
11,-202,-240,-64,-26,30,685,1061,403,459
90,-99,-237,-18,-5,40,523,634,225,405
161,-2,-149,18,19,64,465,141,149,508
228,97,58,94,68,65,326,-278,97,506
207,146,130,122,95,98,301,-455,-67,307
47,90,78,84,61,124,393,-256,-232,-9
-95,20,39,50,19,93,366,-86,-289,-187
-167,-52,-1,22,-25,35,268,-67,-199,-230
-222,-108,-37,-15,-44,4,152,-132,-202,-301
-262,-149,-99,-70,-84,-8,109,-110,-214,-360
-315,-179,-106,-100,-97,-22,91,-28,-241,-474
-300,-172,-57,-52,-68,-55,-97,-111,-318,-492
-232,-181,-56,-47,-71,-125,-317,-180,-310,-350
-223,-186,-74,-87,-106,-175,-425,-245,-313,-251
-251,-138,-139,-107,-139,-145,-339,-134,-308,-286
-240,-88,-172,-74,-91,-80,-270,71,-267,-359
-109,-13,-18,-15,-30,-82,-360,25,-205,-239
64,5,58,-21,-51,-119,-278,-210,-23,170
143,-31,16,-63,-77,-54,-50,-421,16,472
124,-31,-11,-66,-66,52,50,-329,-98,472
43,-66,-126,-90,-80,74,78,-34,-174,247
-58,-103,-188,-107,-77,37,-35,264,-117,67
-68,-86,-178,-87,-83,-17,-254,439,13,76
36,-39,-186,-52,-80,-96,-594,392,159,290
166,68,-3,43,-14,-150,-933,-175,56,410
103,20,75,25,-29,-184,-994,-653,-215,212
-95,-153,-60,-100,-113,-116,-568,-108,-217,-23
-224,-269,-178,-183,-177,-6,-185,615,26,-99
-272,-278,-204,-195,-175,35,-108,801,121,-143
-242,-238,-211,-200,-175,11,-91,1118,335,-64
-69,-107,-100,-124,-148,-48,-275,1236,596,110
218,161,190,73,-26,-165,-870,282,490,280
347,350,400,263,121,-213,-1285,-1206,-23,221
245,320,364,277,148,-153,-1126,-1783,-381,32
238,297,323,229,144,-136,-955,-1387,-365,38
302,314,326,205,135,-120,-942,-828,-233,150
277,283,295,199,127,-88,-884,-438,-171,180
220,246,270,194,135,-47,-841,-427,-234,118
144,195,235,171,139,8,-714,-711,-422,-23
23,103,159,108,116,58,-456,-847,-591,-195
-97,-5,43,7,35,49,-203,-668,-535,-290
-152,-88,-39,-71,-20,43,-24,-362,-360,-285
-145,-102,-78,-106,-76,-11,600,-121,-178,-226
-197,-137,-133,-155,-138,-104,2144,117,-99,-284
-264,-182,-181,-186,-152,-55,2331,424,0,-313
-253,-158,-126,-144,-73,66,1942,585,78,-260
-197,-76,-30,-32,40,194,1534,690,84,-290
-80,19,26,46,107,293,1294,879,182,-165
118,131,101,88,116,203,783,849,265,108
173,168,128,66,57,33,320,666,221,109
22,62,0,-49,-65,-84,172,468,3,-156
-205,-99,-107,-141,-135,-92,173,120,-275,-494
-442,-288,-231,-193,-104,109,568,-263,-537,-737
-493,-403,-326,-216,-61,289,837,-188,-437,-603
-322,-376,-319,-203,-54,318,776,349,89,-131
-38,-247,-220,-143,-36,274,577,721,471,409
201,-99,-35,7,122,395,664,885,568,793
333,91,167,175,212,328,320,663,439,876
366,233,318,272,175,40,-459,598,326,722
320,277,380,324,181,-82,-1047,401,199,487
438,401,501,410,224,-210,-1836,-445,103,507
571,502,528,435,207,-411,-2552,-1510,-12,629
639,542,415,409,182,-440,-2603,-2018,-147,645
585,554,432,362,149,-411,-2337,-2034,-338,478
396,460,374,247,85,-354,-1966,-1707,-516,177
171,286,210,81,-31,-350,-1319,-1354,-542,-55
50,213,92,-25,-100,-301,-487,-983,-520,-183
-24,185,22,-64,-73,-155,-113,-601,-500,-268
-86,110,-50,-110,-48,-18,115,-389,-528,-395
-43,107,-54,-81,16,75,287,-384,-513,-382
0,101,8,32,136,152,678,-517,-461,-299
-67,-1,-82,46,178,206,1322,-449,-415,-300
-85,23,-23,49,184,213,1258,-327,-342,-281
-47,120,78,84,170,151,934,-223,-220,-237
-42,164,105,87,135,68,490,-26,-131,-180
-20,275,163,116,119,-81,-31,-134,-307,-220
-14,342,196,141,121,-215,-276,-435,-577,-338
-60,239,193,114,85,-263,-460,-515,-666,-403
-109,107,162,100,112,-161,-304,-341,-549,-381
-123,9,93,72,130,-61,1467,-141,-358,-332
-137,-124,0,35,98,-62,5343,65,-159,-263
-108,-206,-121,-18,76,-62,5850,266,58,-117
-50,-213,-130,-30,88,31,4167,469,205,-3
-59,-247,-138,-48,68,101,3394,650,244,17
-89,-302,-172,-90,27,163,3043,812,358,52
-58,-292,-166,-137,-29,162,2702,1028,489,140
-17,-236,-157,-121,-39,187,2389,1187,544,178
11,-201,-144,-78,-10,206,1943,1105,523,182
84,-151,-113,-92,-57,91,1283,796,497,234
79,-120,-95,-92,-89,18,772,616,510,228
25,-95,-160,-128,-141,-11,504,628,481,151
6,-94,-220,-217,-221,-24,438,942,518,112
53,-37,-253,-231,-246,-29,326,1219,575,108
76,40,-264,-204,-231,-55,88,1297,559,99
-22,23,-196,-192,-202,-45,-57,1090,408,-31
-103,-2,-135,-153,-126,-9,-214,481,252,-128
-121,-26,-78,-64,-26,73,-364,17,168,-129
-188,-112,-54,-72,-22,117,-357,38,155,-156
-186,-161,-95,-101,-54,72,-391,321,242,-125
-121,-141,-90,-104,-76,65,-397,433,320,-64
-97,-106,-64,-59,-41,105,-342,322,244,-72
-78,-101,-68,-15,-8,112,-427,227,120,-80
-74,-124,-59,4,19,118,-464,258,77,-58
-27,-94,-18,41,52,98,-578,173,112,4
-67,-122,-81,29,21,24,-734,141,113,-23
-182,-199,-131,-31,-47,-74,-783,259,21,-197
-286,-290,-181,-101,-111,-116,-701,350,16,-294
-319,-336,-228,-143,-130,-102,-642,498,130,-262
-298,-327,-227,-161,-137,-61,-667,687,282,-165
-247,-281,-246,-136,-81,21,-662,707,374,-84
-149,-185,-173,-60,-1,94,-729,558,357,-21
-134,-135,-51,-47,3,95,-848,532,300,-33
-104,-65,13,-28,-1,14,-1021,413,246,-34
-7,66,83,22,0,-31,-1091,-102,57,10
22,134,107,28,-7,-33,-1039,-384,-116,-27
16,123,70,-37,-86,-69,-993,-238,-93,-78
125,215,138,-17,-153,-163,-1145,-46,-9,15
261,343,259,73,-106,-181,-1333,-15,-89,78
244,344,275,119,-41,-122,-1415,-397,-262,57
250,285,267,108,-17,-132,-1511,-522,-195,237
289,220,263,106,1,-143,-1478,-462,-94,397
281,157,228,102,19,-129,-1414,-402,-89,363
198,79,133,47,9,-103,-1282,-338,-68,284
115,-3,32,-19,-31,-68,-1042,-147,46,214
47,-66,-12,-52,-31,-39,-882,117,173,169
-21,-121,-51,-63,-13,11,-792,374,263,104
-49,-152,-73,-73,-24,14,-784,433,325,94
-61,-149,-74,-92,-43,0,-682,259,283,50
-134,-174,-88,-92,-24,92,-247,-6,40,-165
-188,-176,-105,-75,4,154,3,-257,-195,-343
-181,-198,-116,-71,-28,110,-144,-399,-250,-319
-149,-247,-169,-133,-94,72,-226,-108,-4,-57
-30,-217,-160,-129,-107,45,-235,238,334,346
137,-62,-22,-18,-42,10,-403,251,388,607
204,56,70,48,-17,-106,-768,149,225,583
144,48,43,6,-81,-243,-1008,45,109,378
100,24,47,-6,-84,-203,-839,-168,86,245
144,114,146,80,8,-84,-668,-476,-31,178
160,182,191,155,81,-27,-657,-894,-196,70
142,172,170,137,69,-22,-646,-1115,-259,33
124,169,163,131,85,43,-491,-1080,-272,22
53,145,56,150,127,184,-178,-834,-326,-50
-124,33,-94,93,129,291,48,-404,-231,-107
-209,-88,-173,-1,65,279,26,-33,-83,-185
-148,-128,-107,-39,30,226,12,78,110,-122
-39,-82,-59,-28,16,151,-109,-58,271,6
-16,-25,-5,0,8,96,-292,-373,206,-63
28,99,122,124,104,72,-552,-794,-35,-168
182,285,303,266,173,-40,-1044,-1201,-258,-149
256,322,329,267,151,-154,-1254,-1425,-441,-74
228,269,284,228,123,-158,-1186,-1397,-603,-83
218,276,285,225,118,-126,-1063,-1331,-666,-108
212,241,221,178,70,-122,-913,-1150,-559,15
217,174,150,123,43,-95,-743,-834,-415,231
225,125,106,89,31,-65,-567,-599,-271,353
189,85,-2,42,12,-38,-452,-457,-149,354
124,33,-119,5,-7,1,-369,-374,-98,294
50,-23,-98,-41,-29,30,-272,-350,-119,204
-20,-83,-197,-71,-47,54,-213,-241,-227,37
-33,-104,-233,-76,-40,93,-136,0,-134,19
-56,-111,-110,-67,-17,118,-55,164,-56,9
-89,-111,-91,-89,-30,131,26,177,-114,-57
-92,-83,-76,-72,-21,125,101,201,-151,-83
-99,-48,-13,5,43,159,176,-15,-320,-160
-200,-100,-24,16,81,269,389,-207,-433,-237
-282,-210,-100,-30,41,222,483,-19,-296,-277
-232,-214,-96,-12,37,176,452,220,-13,-154
-98,-155,-56,31,56,204,331,221,150,45
-2,-117,-47,32,40,136,53,250,273,199
69,-51,5,42,28,-7,-306,215,277,252
24,-35,-8,25,-42,-156,-415,232,92,124
-80,-72,-33,-14,-90,-202,-220,472,-49,-42
-76,-69,-10,-16,-93,-228,-149,594,-65,-64
0,-8,57,48,-6,-161,-162,371,-57,-3
9,63,105,99,72,-79,-259,-63,-171,-48
43,166,67,124,82,-109,-515,-563,-300,-121
134,307,166,203,167,-114,-719,-1021,-375,-119
102,310,215,239,222,-57,-653,-1220,-585,-230
44,251,167,212,213,-15,-534,-1150,-626,-299
37,252,172,201,204,-5,-477,-895,-460,-221
4,232,194,191,184,-32,-513,-699,-411,-243
-79,122,148,129,128,-41,-404,-465,-383,-328
-196,-27,14,23,59,12,-13,-265,-312,-388
-250,-155,-94,-67,21,97,333,-22,-160,-359
-236,-188,-144,-129,-20,126,511,356,19,-258
-165,-144,-134,-149,-39,129,510,705,242,-115
16,-52,-73,-124,-67,90,400,883,543,131
178,49,-15,-99,-123,-24,141,804,751,329
169,30,-78,-160,-224,-113,85,992,857,368
138,4,-139,-173,-210,-60,259,1318,851,351
262,119,36,-31,-97,-99,-63,746,639,387
313,218,173,89,-33,-215,-562,-319,245,301
64,84,91,23,-90,-267,-575,-776,-327,-90
-128,-10,19,-46,-105,-190,-300,-642,-562,-315
-125,3,-4,-67,-83,-109,-115,-275,-307,-181
-86,-12,-39,-103,-87,-79,-10,19,-87,-66
-20,-15,-53,-107,-89,-81,-41,111,73,52
31,15,-20,-71,-64,-81,-112,0,96,79
18,30,3,-67,-63,-75,-81,-65,-15,-2
-13,101,-11,-108,-120,-102,-42,18,-47,-89
-32,180,-27,-150,-176,-143,-34,129,19,-124
-59,199,-26,-161,-151,-161,-3,194,99,-82
-62,165,-47,-142,-83,-161,16,226,111,-80
-64,86,-24,-123,-50,-128,30,245,78,-104
-112,-21,-31,-112,-55,-64,144,288,46,-191
-193,-109,-56,-112,-39,12,283,339,9,-288
-243,-141,-39,-99,-7,53,329,324,-57,-374
-241,-157,-31,-71,28,74,348,242,-133,-418
-191,-171,-71,-51,25,42,262,153,-71,-315
-186,-192,-198,-60,-2,20,229,171,51,-263
-234,-248,-180,-75,2,38,318,295,181,-261
-278,-330,-193,-142,-30,79,463,438,274,-222
-325,-451,-343,-261,-96,166,800,707,401,-64
-339,-548,-441,-316,-128,248,1150,888,539,49
-296,-535,-435,-283,-105,272,1237,1026,632,91
-179,-417,-405,-220,-71,237,1067,1314,742,180
40,-175,-190,-46,45,152,455,1362,874,398
182,5,36,78,91,7,-87,1242,821,431
209,99,142,134,90,-84,-418,757,460,289
203,222,207,168,106,-62,-377,1,152,211
175,259,70,86,36,-87,-172,-426,56,241
160,235,-26,25,-2,-47,82,-473,96,338
127,222,70,15,7,12,111,-364,132,327
34,118,50,-53,-35,47,160,81,294,267
51,75,33,-48,-19,77,129,423,548,341
178,140,128,37,20,-12,-307,132,513,356
210,154,181,74,21,-144,-751,-322,281,317
201,127,189,86,12,-243,-1080,-790,-72,214
169,81,196,107,51,-171,-981,-995,-380,82
-1,-94,40,9,6,-38,-421,-677,-510,-109
-112,-259,-85,-73,-43,43,-45,-141,-359,-151
-250,-378,-164,-126,-29,156,375,461,-116,-189
-249,-298,-84,-11,121,347,590,564,-49,-230
-140,-126,66,150,235,407,367,252,-129,-263
-59,-51,97,182,211,302,94,113,-129,-231
90,54,176,209,184,117,-337,-122,-133,-39
150,114,218,212,148,-35,-584,-206,-222,0
100,65,152,156,70,-133,-621,-23,-221,-76
115,77,129,139,48,-188,-810,-292,-224,-57
177,131,167,147,57,-221,-1008,-770,-195,49
192,144,183,143,65,-165,-899,-781,-110,115
128,120,154,134,63,-52,-583,-372,-45,39
22,57,62,77,24,-30,-332,-89,-16,-67
-3,-1,-3,12,-21,-26,-151,-102,35,33
-3,-42,-59,-53,-48,34,109,-116,41,197
39,12,-33,-14,0,145,265,50,0,261
110,96,41,43,54,142,209,263,126,298
107,145,94,74,66,117,114,354,215,249
145,210,180,151,98,36,-203,160,96,104
147,216,223,179,100,-46,-438,18,-70,-39
41,148,138,127,34,-119,-539,-36,-207,-220
-34,76,102,88,21,-103,-414,-19,-267,-357
-77,34,59,77,35,-19,-232,67,-253,-436
-93,22,36,61,36,23,-160,86,-232,-389
-80,2,4,37,34,50,-87,137,-50,-169
-48,-62,-86,-23,-7,35,-45,189,132,-9
-45,-86,-88,-30,-12,45,7,150,178,-4
-32,-89,-68,-29,-10,67,69,124,221,83
56,-97,-174,-69,-33,68,124,177,302,372
117,-117,-296,-120,-73,74,213,409,354,600
111,-174,-281,-140,-96,73,278,780,367,659
84,-187,-187,-145,-100,40,229,976,335,567
52,-165,-161,-136,-96,-4,190,1091,334,447
9,-136,-167,-102,-78,3,255,1122,351,317
85,-47,-34,0,21,73,200,706,315,322
151,70,115,140,195,209,60,-385,-103,243
68,79,146,190,252,271,42,-1180,-573,3
-36,1,76,121,180,239,96,-975,-577,-82
-11,22,73,89,117,112,-137,-662,-320,34
46,104,125,87,64,0,-426,-571,-140,104
110,164,137,77,36,-63,-465,-552,-114,58
208,260,207,110,65,-102,-475,-683,-97,131
218,324,270,155,79,-112,-492,-856,-174,130
160,331,263,151,65,-72,-373,-935,-354,20
79,262,199,109,60,51,75,-734,-427,-78
-1,146,42,22,34,124,466,-485,-406,-138
-40,58,-164,-53,0,161,651,-263,-274,-133
-40,5,-170,-59,-10,138,651,-68,-161,-147
-66,-49,-61,-26,14,116,542,25,-121,-151
-71,-58,-7,0,16,56,219,101,-56,-119
-44,-33,5,14,-8,-87,-231,55,-30,-97
-37,-32,-3,8,-45,-176,-310,-65,-58,-52
-38,-33,-16,-19,-74,-210,-56,-96,-68,-25
-46,-2,-17,-51,-98,-217,136,-120,-59,-15
-46,14,-24,-87,-118,-173,230,5,8,23
-9,67,-5,-88,-125,-204,182,66,43,26
55,119,35,-33,-104,-218,144,4,7,-1
26,92,46,-41,-88,-181,242,-54,-89,-68
-14,65,32,-30,-39,-151,219,-173,-163,-113
-36,47,27,12,16,-84,197,-221,-187,-142
-40,32,-30,-7,15,-55,244,-165,-170,-164
20,67,-41,-48,-15,-50,252,-133,-139,-144
32,73,-31,-63,-41,-5,329,-108,-145,-184
-19,27,-57,-48,-36,37,453,-26,-130,-194
-37,-5,-81,-40,-39,21,462,29,-108,-185
-40,-18,-86,-48,-39,3,461,26,-93,-180
-58,-36,-121,-55,-35,18,479,19,-43,-165
-96,-72,-164,-68,-44,20,486,71,33,-137
-103,-114,-118,-94,-57,14,531,170,117,-81
-102,-149,-115,-117,-79,-6,524,232,179,-4
-132,-212,-160,-148,-141,-87,450,172,37,-52
-169,-257,-209,-165,-206,-142,483,151,-6,-130
-236,-307,-303,-226,-271,-155,587,357,66,-203
-235,-332,-352,-256,-280,-155,637,850,184,-178
-158,-296,-301,-234,-259,-180,533,1318,334,-80
-57,-223,-239,-202,-234,-210,329,1420,574,58
45,-117,-133,-110,-135,-146,217,981,688,198
36,-52,-56,-32,-26,-24,237,133,308,45
-57,-71,-46,-44,21,75,397,-340,-94,-197
0,12,53,32,127,165,472,-772,-259,-200
40,102,149,123,181,189,423,-1415,-497,-221
-120,-7,48,44,107,213,672,-1375,-696,-407
-189,-93,-59,-62,-8,138,751,-757,-588,-400
-144,-106,-101,-115,-63,61,652,-244,-231,-202
-131,-135,-137,-145,-80,63,652,150,112,-65
-109,-151,-225,-160,-102,7,518,200,180,-35
3,-69,-177,-81,-47,11,382,160,273,91
141,76,73,43,40,-40,15,16,254,184
167,147,184,89,57,-103,-209,-160,14,100
80,115,144,63,46,-78,-179,-440,-307,-96
-10,51,93,17,15,-85,-286,-530,-396,-206
-43,-3,31,-46,-49,-98,-275,-36,-91,-105
5,-7,13,-48,-64,-91,-340,162,148,-3
96,51,56,25,-13,-73,-469,16,188,60
104,96,88,76,32,-81,-468,-11,78,6
99,156,200,131,50,-120,-579,-400,-171,-100
92,194,218,158,54,-151,-673,-961,-442,-191
44,167,140,125,14,-137,-527,-1068,-538,-281
-37,117,44,39,-65,-129,-365,-717,-406,-313
-65,104,-63,-8,-74,-104,-294,-420,-208,-287
-136,69,-94,-70,-96,-76,-173,-258,-144,-362
-225,31,-46,-132,-103,-39,-1,28,-94,-487
-264,-8,-43,-153,-32,47,259,234,-105,-548
-207,29,3,-91,42,159,458,281,-126,-471
-144,72,76,-26,66,217,533,474,-44,-416
-66,110,134,28,64,161,413,438,30,-325
32,166,210,88,74,56,132,-89,-4,-180
-13,52,102,21,-11,-29,86,-328,-163,-192
-163,-194,-94,-128,-105,-1,493,323,-107,-274
-128,-258,-126,-99,-74,75,696,973,194,-82
49,-202,-55,-11,10,97,389,991,456,324
255,-125,14,56,85,92,-12,740,642,830
478,11,134,169,158,23,-462,343,726,1253
604,125,153,244,182,-93,-819,-112,781,1457
522,100,85,193,134,-126,-760,-395,604,1279
359,-9,82,129,96,-88,-539,-425,271,858
189,-64,82,115,105,0,-357,-508,-15,488
54,-74,73,94,117,57,-210,-510,-207,216
-13,-66,25,48,81,64,-108,-246,-179,109
-31,-38,-55,13,43,54,-68,14,-83,84
-27,47,-42,2,25,33,-116,122,-30,76
-11,163,-35,22,31,26,-179,130,-12,52
37,227,84,73,60,28,-293,27,-18,56
54,200,135,65,31,-59,-488,-77,-19,54
3,111,63,8,-7,-90,-454,12,-31,13
-34,29,33,-5,-3,-59,-334,123,19,11
-52,-42,29,-9,4,-23,-239,183,53,-8
-68,-104,4,-31,15,0,-115,233,35,-52
-73,-128,0,-24,32,47,-21,279,38,-51
-77,-115,4,4,65,105,25,311,63,23
-67,-121,12,25,79,125,21,310,34,22
-55,-111,41,76,112,110,-36,257,16,-7
-20,-105,36,78,143,99,-99,189,12,-19
-50,-151,-36,37,141,116,-73,200,49,-27
-63,-189,-79,29,143,113,-50,212,77,-32
-43,-160,-60,58,136,93,-19,238,61,-57
-35,-99,-18,87,131,44,-73,187,78,-47
-59,-83,-9,97,115,-4,-157,80,13,-79
-75,-84,-10,81,101,0,-168,85,-18,-98
-93,-87,-19,73,90,11,-93,105,-38,-140
-97,-101,-30,51,38,13,0,131,-36,-145
-43,-95,-36,-2,-19,-10,18,200,47,-18
28,-48,-34,-41,-70,-23,0,324,190,103
10,-9,-27,-73,-120,-32,53,527,315,108
-16,10,-44,-129,-191,-59,160,685,415,112
32,-9,-97,-217,-266,-71,198,750,429,111
116,-10,-151,-267,-297,-62,177,755,423,161
84,5,-156,-242,-256,-18,261,638,206,90
-27,-8,-123,-209,-196,33,377,438,-76,-62
-65,36,-51,-137,-128,53,289,66,-173,-94
-22,105,24,-46,-63,40,187,-178,-122,-35
29,175,75,11,-21,21,169,-82,-18,37
49,190,68,2,-33,17,173,146,-24,1
63,167,44,-27,-53,-1,189,448,99,8
97,157,41,-5,-46,-4,148,485,246,93
81,122,61,18,-16,21,152,121,165,93
4,57,37,5,-16,29,197,-201,-23,-1
-83,-23,-28,-45,-52,15,287,98,-23,-52
-97,-53,-96,-86,-81,-11,268,521,121,-32
13,15,-145,-71,-69,-56,147,583,185,54
87,61,-47,-21,-23,-58,124,506,150,111
63,54,33,14,28,14,185,258,29,56
36,32,50,59,72,80,206,-370,-136,-20
33,64,114,138,161,136,186,-992,-368,-90
-20,28,82,126,152,135,228,-908,-451,-179
-57,-27,0,61,101,149,328,-401,-292,-173
13,9,35,53,85,87,165,-148,-48,-15
47,36,62,38,58,6,40,-25,84,75
-14,-7,11,-19,-5,-63,89,-20,-24,-47
-88,-51,-42,-69,-67,-74,116,-60,-135,-146
-158,-102,-150,-114,-89,-36,265,165,-126,-177
-197,-175,-240,-143,-99,-4,381,434,-55,-157
-196,-222,-211,-175,-121,-4,403,772,135,-86
-140,-184,-180,-168,-157,-58,297,832,417,75
-23,-63,-68,-70,-89,-84,19,438,501,188
57,22,29,19,-13,-99,-213,42,397,224
161,90,82,62,8,-113,-315,-73,379,316
280,205,171,110,39,-156,-467,-260,320,390
325,323,302,205,121,-192,-601,-596,27,280
139,261,257,211,137,-82,-320,-732,-435,-85
5,176,184,161,114,-12,-111,-511,-546,-259
21,145,184,124,100,-34,-165,-378,-379,-160
33,109,110,72,61,-11,-49,-243,-214,-72
95,191,123,129,97,19,-93,-509,-248,-55
16,229,185,139,84,27,-163,-1124,-608,-341
-78,230,164,87,28,-40,-96,-1246,-816,-625
-121,221,144,46,-24,-75,-13,-902,-705,-702
-183,174,77,-16,-75,-50,173,-497,-560,-771
-233,136,18,-48,-100,-2,360,-263,-449,-837
-245,127,80,-30,-65,8,294,-213,-374,-827
-192,78,44,-53,-72,-43,32,-203,-349,-747
-53,41,36,-52,-76,-115,-315,-223,-139,-313
169,15,18,-63,-86,-220,-641,-220,225,406
300,-61,-39,-92,-105,-230,-538,-60,487,859
267,-113,-28,-30,-17,-102,-228,100,484,822
192,-163,-43,7,53,12,11,201,485,724
142,-223,-84,6,65,81,175,202,530,784
120,-219,-109,-7,37,90,273,160,382,727
82,-194,-118,3,56,116,360,89,240,561
-16,-226,-141,-3,85,167,489,121,132,308
-111,-288,-185,-18,79,241,674,266,107,119
-98,-281,-205,-9,99,265,654,288,181,94
-63,-270,-207,-37,58,175,450,352,260,113
-77,-283,-258,-105,-26,109,427,901,498,178
-61,-248,-246,-133,-65,72,364,1292,713,260
-20,-172,-167,-105,-82,16,180,1265,649,205
62,-62,-135,-65,-65,-39,10,1087,568,209
224,123,53,58,21,-82,-234,548,420,291
326,319,295,242,165,-45,-496,-512,-70,233
187,295,309,257,185,-44,-564,-1215,-667,-84
14,154,174,134,72,-111,-474,-955,-759,-270
-36,88,50,52,-3,-118,-360,-364,-423,-224
-36,52,4,19,-17,-89,-290,-92,-150,-149
-36,14,-7,-5,-17,-54,-205,25,-11,-69
-52,-27,-43,-23,-12,3,-92,73,40,-35
-55,-44,-74,-35,-19,41,-67,35,-35,-98
-47,-27,-112,-27,-25,31,-121,-57,-124,-155
-1,34,-26,-16,-13,20,-163,-127,-194,-116
16,64,33,4,14,34,-173,-130,-172,-70
-16,58,46,16,25,48,-163,-81,-161,-112
-56,32,36,23,28,51,-117,-16,-172,-137
-84,3,31,15,9,51,-53,19,-154,-151
-94,-11,13,1,-9,48,-49,26,-135,-195
-71,-8,-7,-11,-25,46,-49,76,-93,-164
-29,22,17,11,-13,37,-93,58,-54,-70
-1,64,50,42,2,9,-234,-36,-14,-9
-22,41,24,24,-16,1,-192,25,74,15
-52,4,7,0,-34,15,-92,87,28,-66
-70,-6,8,-21,-39,22,-50,108,-35,-136
-87,3,2,-23,-39,30,-26,104,-69,-171
-105,2,0,-30,-31,56,12,103,-75,-187
-104,-2,-43,-20,-48,51,13,120,-46,-187
-85,0,-95,0,-65,11,-10,118,-6,-161
-66,4,-57,13,-62,-15,-28,133,61,-106
-69,-16,-41,-1,-52,-31,-35,140,44,-104
-87,-65,-128,-37,-74,-24,26,178,-20,-140
-116,-81,-102,-72,-87,13,192,269,10,-170
-107,-80,-132,-87,-65,21,218,314,66,-113
-99,-95,-93,-105,-75,21,180,405,90,-94
-42,-30,-17,-68,-44,25,-23,414,86,-50
8,3,-14,-61,-33,-3,-254,441,136,37
-8,-9,-56,-91,-68,12,-243,436,162,32
-107,-68,-80,-100,-58,78,-5,190,-64,-140
-230,-133,-121,-127,-53,121,227,-36,-260,-284
-218,-133,-93,-106,-49,134,318,54,-221,-275
-178,-147,-89,-81,-14,190,560,256,-115,-179
-81,-87,-48,-46,10,163,545,321,32,-37
19,-1,0,-6,46,36,157,297,179,78
118,55,-27,3,53,-131,-318,356,375,248
212,91,-67,16,19,-212,-566,528,501,370
271,157,34,71,25,-221,-791,326,355,336
267,204,178,98,30,-232,-870,-131,101,255
185,179,210,75,38,-168,-693,-759,-181,129
70,118,136,42,48,-82,-484,-1050,-338,-25
40,93,49,30,56,-52,-432,-952,-309,-57
72,80,73,36,61,-27,-443,-580,-98,34
112,89,126,52,48,-34,-471,-309,64,131
107,86,145,90,66,-27,-476,-274,-23,100
22,30,20,60,56,11,-331,-331,-252,-29
-80,-44,-28,-23,-4,26,-125,-384,-384,-147
-103,-75,-19,-59,-43,41,-19,-292,-323,-158
-56,-59,-9,-49,-32,67,76,-55,-143,-67
20,6,69,8,9,57,18,8,-33,14
6,43,69,14,-3,23,-109,49,-6,11
-83,-6,-14,-32,-41,33,19,377,28,-74
-116,-26,-64,-55,-77,-8,7,609,19,-206
-100,-7,-34,-46,-65,-55,-90,364,-48,-299
-130,8,17,23,0,-41,-127,-79,-209,-435
-241,-45,2,21,10,19,-5,-64,-347,-642
-320,-110,-56,-35,-18,50,164,220,-256,-745
-273,-125,-74,-39,-12,109,234,198,-26,-645
-224,-90,-59,-4,37,208,245,-41,128,-520
-131,-39,-6,40,100,265,219,-203,210,-310
55,17,58,78,104,185,-9,-108,475,207
252,113,115,125,104,89,-182,124,644,674
412,207,209,185,120,6,-308,-135,515,922
471,190,177,130,35,-156,-433,-421,407,1120
429,119,82,71,-29,-230,-545,-483,273,1124
291,17,-37,17,-66,-185,-439,-404,200,905
207,-28,-29,9,-54,-68,-248,-405,117,652
144,-36,-66,26,1,37,-67,-451,-70,410
75,-65,-164,19,23,64,54,-257,-127,253
63,-56,-144,-9,33,37,65,-83,-90,214
70,-54,-55,-21,40,58,81,135,-56,195
81,-31,11,-12,43,76,26,84,-52,171
113,10,4,0,27,13,-99,-138,-73,194
128,32,13,12,22,-47,-207,-212,-106,176
82,23,-68,-8,-19,-84,-227,-5,-32,72
82,58,-41,6,-24,-72,-247,24,9,27
40,94,72,7,-20,-50,-194,159,22,-56
-4,113,99,-3,-22,-29,-110,502,150,-89
19,111,109,12,0,-18,-128,538,254,-44
110,187,159,103,56,-22,-303,-38,112,-34
223,353,282,200,123,-49,-518,-982,-155,40
185,336,278,188,122,-25,-396,-1382,-435,47
-81,108,131,60,47,59,2,-1225,-674,-244
-243,-32,37,-28,-3,82,253,-779,-662,-473
-259,-91,0,-44,-12,75,401,-296,-512,-502
-241,-165,-85,-100,-70,21,451,34,-303,-390
-210,-199,-132,-131,-125,-42,378,375,-68,-226
-123,-170,-109,-68,-79,-42,264,530,107,-67
-50,-122,-78,-13,-27,-58,80,546,207,13
-12,-83,-31,3,0,-72,-75,551,284,51
55,4,48,68,27,-71,-220,256,306,129
81,90,161,156,87,-30,-251,-349,88,77
-4,78,141,155,89,50,-60,-656,-286,-166
4,80,83,143,79,55,-9,-491,-380,-217
43,44,60,97,46,19,-73,-334,-263,-127
41,-19,19,29,24,20,-24,-240,-131,-53
9,-102,-26,-29,-1,42,148,-128,-37,-10
-43,-176,-76,-46,-1,67,337,-29,9,-7
-89,-228,-118,-64,12,97,421,52,31,-38
-148,-283,-148,-83,18,140,483,184,57,-64
-122,-263,-109,-39,38,128,369,229,98,-44
-70,-196,-51,12,47,92,251,237,148,-2
-62,-168,-42,3,21,96,301,327,237,70
-31,-126,-43,-1,2,40,222,246,318,154
0,-43,-95,-24,-55,-69,40,81,226,112
40,50,-65,-67,-102,-114,0,135,107,12
88,131,18,-41,-76,-112,-57,175,82,6
74,119,-53,-17,-44,-73,-16,192,68,2
7,53,-172,-18,-33,-27,79,129,7,-53
-20,16,-172,-37,-26,19,221,81,-5,-66
-18,9,-128,-63,-40,33,308,154,103,1
-47,-20,-97,-83,-43,40,323,330,177,-19
-29,-14,-44,-57,-15,39,236,451,171,-52
60,45,47,1,33,-13,8,384,137,25
99,73,3,26,33,-77,-198,269,54,33
29,27,-39,8,0,-94,-142,299,-67,-66
-85,-25,-47,-29,-29,-69,26,108,-219,-200
-168,-93,-47,-73,-41,-12,208,76,-207,-219
-131,-91,-45,-83,-52,-8,270,269,2,-88
-59,-36,-35,-75,-58,-28,219,367,136,-36
14,26,-10,-41,-43,-34,131,265,214,21
73,86,57,13,3,-31,19,139,226,86
63,87,85,29,23,-5,-59,-62,98,56
-71,-39,-17,-38,2,74,150,-213,-123,-102
-256,-240,-212,-189,-98,154,660,9,-231,-287
-370,-379,-356,-310,-187,200,1060,381,-114,-330
-402,-452,-416,-341,-217,235,1074,441,-66,-324
-432,-474,-408,-315,-178,268,1008,560,-42,-312
-308,-364,-288,-189,-63,276,784,832,127,-185
-122,-191,-127,-35,21,215,338,763,241,-18
-76,-91,-21,48,58,114,-31,306,70,-69
-71,8,14,117,84,68,-223,-190,-182,-192
135,254,287,270,160,-13,-491,-711,-171,7
278,446,483,373,208,-107,-767,-1258,-216,164
281,520,450,333,152,-180,-910,-1345,-356,39
350,598,328,275,56,-328,-1171,-863,-197,100
375,563,315,171,-65,-516,-1409,-375,-13,188
310,443,265,86,-140,-585,-1381,-142,40,162
253,353,174,62,-154,-487,-1164,-134,82,123
187,271,150,64,-126,-336,-882,-249,53,77
107,190,108,74,-82,-208,-648,-393,-25,28
30,120,67,56,-60,-145,-519,-403,-137,-94
-12,107,43,19,-56,-125,-439,-302,-147,-160
-54,64,39,19,-22,-84,-335,-212,-163,-200
-75,19,58,62,33,-37,-307,-218,-252,-275
-94,0,59,76,58,13,-241,-165,-282,-329
-134,-63,14,53,48,49,-48,-38,-235,-371
-149,-142,-29,10,9,53,89,48,-143,-329
-134,-206,-55,-19,-18,57,169,151,-44,-146
-80,-225,-71,-37,-21,50,217,326,109,67
-22,-197,-63,-49,-16,35,215,616,347,221
71,-158,-44,-28,-22,-2,160,950,549,391
132,-114,-30,-16,-32,-16,153,1065,603,550
110,-128,-54,-35,-46,-19,216,1006,524,532
72,-165,-97,-75,-72,-31,287,823,394,404
7,-203,-129,-101,-76,20,448,527,259,285
-53,-210,-121,-69,-28,105,537,160,-6,133
-44,-187,-103,-40,15,140,528,-38,-171,120
15,-166,-83,-34,7,124,457,30,-84,239
78,-84,-33,-8,8,65,274,100,13,271
97,-21,14,22,41,39,113,-7,-6,171
86,30,62,73,94,54,3,-481,-239,7
34,22,54,72,109,74,40,-705,-341,-84
-21,-17,1,30,93,85,120,-391,-178,-59
-21,-35,-28,24,117,129,155,-66,-46,-15
-9,-16,-33,49,126,144,143,11,25,28
-2,-18,-45,47,91,107,117,71,81,52
-5,-35,-46,1,30,46,40,125,114,89
-20,-24,-39,-11,2,-7,0,102,87,53
-16,-1,-33,1,9,0,-20,45,95,2
42,50,5,33,22,-6,-74,-40,205,89
71,89,21,59,18,-12,-82,-130,157,68
45,75,0,41,2,-9,-12,-173,-22,-36
15,80,36,20,-6,-18,-1,-169,-114,-137
-18,94,70,47,9,-12,-22,-139,-198,-217
-124,17,27,31,-9,10,93,159,-236,-325
-208,-55,-81,-31,-53,14,194,369,-223,-413
-214,-98,-142,-77,-97,2,177,353,-78,-347
-175,-80,-133,-78,-104,-22,143,239,80,-174
-133,-65,-51,-77,-67,8,201,187,110,-176
-73,-42,-12,-24,4,87,258,89,103,-174
0,-46,-31,-17,49,107,258,-121,183,62
29,-89,-96,-83,41,54,283,-111,266,301
36,-131,-141,-123,2,41,364,248,322,428
34,-154,-139,-139,-41,30,444,812,401,481
9,-137,-128,-155,-78,35,513,1137,400,390
-14,-82,-92,-140,-86,40,524,972,258,227
45,18,-19,-88,-66,-9,417,466,136,191
36,38,2,-54,-54,-22,346,-31,-46,88
-14,42,32,7,2,37,293,-454,-333,-58
8,107,111,64,75,66,104,-738,-461,-87
41,167,166,98,103,56,-104,-938,-451,-89
103,209,209,115,109,36,-196,-864,-298,12
203,274,268,130,112,-30,-369,-877,-136,142
168,202,208,100,55,-90,-374,-804,-170,43
63,74,94,27,-20,-127,-259,-459,-173,-52
-16,-20,20,-9,-40,-118,-109,-204,-149,-81
-75,-118,-64,-47,-46,-83,27,-21,-54,-75
-96,-181,-131,-102,-75,-68,101,66,68,-64
-123,-222,-182,-154,-116,-48,135,247,171,-25
-107,-194,-181,-166,-104,-2,171,547,355,98
-21,-116,-155,-124,-61,24,153,634,449,174
-12,-63,-131,-76,-23,62,215,379,315,111
-46,-25,-54,-50,-17,69,232,-76,47,-71
54,116,17,-1,-5,10,63,-355,-45,-83
127,231,60,45,39,2,-23,-506,-128,-71
116,227,135,67,94,63,74,-517,-288,-137
40,169,100,84,105,118,193,-238,-286,-159
-3,129,21,88,68,70,107,-21,-229,-147
30,116,121,103,71,-9,-108,-162,-234,-101
84,134,170,120,80,-67,-319,-434,-237,-66
58,95,133,57,18,-137,-404,-495,-299,-123
-14,25,65,6,-20,-126,-276,-238,-272,-172
-61,-48,12,-6,-19,-69,-143,-108,-101,-117
-98,-115,-43,-50,-35,-58,-44,-57,89,-38
-133,-164,-140,-89,-80,-45,48,285,333,49
-124,-162,-171,-123,-126,-62,85,553,404,43
-79,-140,-101,-126,-109,-25,174,553,325,13
-90,-142,-86,-82,-52,70,410,444,173,-53
-131,-125,-73,-40,-18,127,421,217,19,-112
-55,-54,13,30,25,133,290,-111,-10,-57
70,79,136,144,109,121,68,-445,-83,-10
89,182,221,224,145,97,-111,-918,-413,-151
23,161,189,205,130,118,75,-938,-597,-295
-68,53,71,115,83,141,302,-608,-468,-301
-109,-3,-82,42,19,99,293,-307,-290,-273
-52,28,-103,45,29,64,155,-206,-173,-189
54,102,95,108,101,28,-90,-312,-139,-51
159,166,159,114,95,-88,-342,-336,-55,112
258,178,127,66,27,-180,-444,-310,101,276
226,134,86,41,2,-132,-226,-150,230,327
91,59,50,23,8,-35,19,40,149,185
28,30,33,21,20,1,91,165,4,33
-1,6,1,-5,2,24,132,284,-37,-45
-32,-6,-23,-43,-31,16,123,167,-76,-104
-64,-14,-58,-66,-70,-10,105,-64,-92,-146
-41,-6,-75,-46,-61,-41,48,-34,-43,-101
-11,-14,-179,-50,-75,-72,19,54,30,-49
-28,-65,-248,-91,-115,-69,69,157,60,-22
-42,-93,-234,-107,-124,-75,88,223,78,12
-34,-107,-164,-106,-102,-59,144,361,142,41
-13,-89,-72,-74,-47,-4,143,391,151,50
43,-5,10,-7,-7,-25,-65,197,134,67
44,24,-45,2,-15,-88,-237,64,90,39
2,9,-59,0,-27,-71,-195,85,44,-9
-49,-11,30,1,-11,-38,-59,116,-17,-69
-86,-29,31,0,3,-25,39,180,-29,-132
-68,-32,16,-5,1,-22,50,242,18,-104
-38,-36,-2,2,7,12,33,270,105,-42
-22,-10,11,7,15,18,-34,253,138,0
-17,3,-20,-7,2,-7,-39,253,113,3
-4,29,-35,0,6,-36,-106,82,48,0
10,32,38,-1,-3,-21,-89,-206,46,39
7,-1,23,-13,-25,2,24,-247,65,96
8,-22,19,-6,-23,-19,11,-126,61,102
4,-26,31,-10,-29,-38,-13,40,100,91
-4,-25,30,-10,-37,-34,20,214,125,67
-15,-20,16,-42,-59,-50,78,469,136,40
9,1,-8,-66,-91,-95,84,565,138,29
18,23,4,-71,-96,-118,29,279,93,9
-26,12,22,-66,-87,-97,14,-1,31,-27
-70,-50,0,-72,-89,-72,81,141,27,-79
-56,-77,-13,-68,-80,-44,112,362,170,-13
-31,-94,-17,-52,-58,-18,66,314,226,47
-63,-164,-58,-71,-45,-27,0,307,244,43
-3,-146,-89,-34,9,-10,-146,344,314,132
72,-77,-16,13,64,-11,-217,228,265,210
74,-54,53,23,101,38,-147,-241,-36,130
21,-33,48,31,122,98,-15,-703,-422,-89
-64,-5,14,36,74,69,45,-747,-567,-234
-79,75,26,20,15,34,18,-425,-428,-187
-17,166,75,11,-4,-4,-93,-229,-270,-103
30,166,91,14,-2,-35,-170,-210,-193,-30
8,102,51,-1,0,-15,-107,-160,-167,1
-93,-9,-118,-71,-57,-2,6,75,-123,-61
-152,-78,-200,-121,-79,9,94,396,-17,-94
-98,-44,-85,-94,-32,57,167,597,113,-24
-37,-40,-51,-64,-1,94,198,683,264,68
0,-67,-35,-21,39,126,107,543,366,164
135,20,80,75,127,122,-132,-28,340,283
112,25,28,101,143,149,-122,-347,154,169
-33,-44,20,86,121,214,98,-148,-78,-39
-34,-35,40,78,101,192,68,210,57,24
0,-15,30,68,51,115,-72,293,257,145
-36,-33,19,41,3,13,-187,147,89,30
-39,-35,5,6,-35,-28,-190,402,58,-19
69,45,44,15,-33,-62,-278,571,249,106
167,133,122,56,-4,-110,-524,6,243,155
172,174,155,84,24,-96,-610,-616,94,86
146,179,194,107,76,-24,-483,-757,55,50
165,222,227,154,141,61,-393,-763,10,60
150,207,189,150,161,109,-271,-786,-190,11
100,118,119,86,90,90,-131,-635,-283,78
81,36,45,17,26,48,-36,-523,-310,162
73,-10,-50,-17,-6,7,-6,-398,-298,157
6,-40,-14,-25,-15,0,31,-251,-285,43
-49,-74,10,-21,12,47,55,-175,-227,-28
-72,-95,-39,-25,21,124,131,-185,-173,-20
-71,-112,-80,-42,-2,117,110,-271,-179,-23
-121,-168,-111,-77,-42,111,154,-82,-152,-41
-155,-203,-139,-107,-48,133,260,239,-75,-16
-142,-179,-107,-96,-18,137,362,490,19,37
-104,-130,-86,-61,13,123,413,607,74,21
-6,-38,-54,6,45,96,287,658,159,47
71,55,56,55,76,54,85,576,221,108
150,137,159,108,91,0,-190,297,211,173
206,211,219,163,120,-45,-342,-76,100,199
160,181,187,142,110,-75,-411,-633,-114,126
34,63,64,58,73,-2,-259,-816,-323,-27
-26,0,-15,13,59,61,-80,-469,-290,-47
-23,-26,-7,0,36,99,-41,-221,-211,-20
-19,-30,-10,-7,8,106,-70,-194,-219,-59
-34,-20,-41,-10,-11,76,-92,-214,-174,-49
-53,-15,-38,-10,-21,-3,-111,-293,-154,-64
-47,32,-21,-15,-66,-109,-146,-122,-155,-142
-26,90,0,-16,-117,-234,-246,-12,-161,-169
9,186,58,5,-133,-322,-453,-173,-235,-185
38,261,120,33,-66,-264,-520,-379,-292,-184
42,248,138,63,0,-215,-545,-479,-299,-168
36,213,158,90,76,-199,-567,-473,-264,-152
19,194,171,84,88,-159,-505,-340,-194,-134
-20,103,108,36,36,-112,-331,-87,-118,-120
-28,-7,16,-25,-11,-86,-191,101,-43,-87
-24,-73,-26,-31,-13,-68,-132,151,32,-55
-28,-125,-12,12,30,-30,-108,156,82,-4
-28,-175,-39,16,57,0,-44,207,144,33
-21,-184,-77,-11,51,43,64,259,175,73
39,-159,-87,-46,8,53,136,298,275,221
109,-133,-97,-73,-19,36,163,303,313,336
80,-147,-109,-68,1,84,222,326,246,288
12,-167,-148,-56,7,121,260,351,192,159
-60,-188,-170,-68,1,109,241,342,182,77
-78,-178,-114,-75,-11,78,170,334,208,76
-42,-130,-84,-51,-18,29,87,364,256,97
1,-69,-59,-33,-18,2,60,406,304,114
-10,-49,-40,-25,-13,-9,95,386,287,99
-50,-78,-68,-34,-32,-33,183,376,136,-33
-80,-91,-84,-44,-51,-30,223,278,-12,-127
-102,-74,-80,-48,-49,3,275,257,-57,-165
-129,-90,-97,-88,-66,6,348,467,-1,-156
-160,-101,-123,-151,-131,-69,330,685,90,-165
-176,-80,-163,-186,-200,-117,293,653,124,-188
-134,-98,-187,-204,-210,-102,304,593,245,-62
-71,-116,-167,-199,-184,-92,300,652,417,81
9,-72,-116,-139,-160,-97,171,687,508,153
34,1,-54,-66,-81,-36,186,653,449,133
-44,0,-34,-63,-35,63,480,640,220,4
-60,15,-23,-35,-14,74,512,549,46,-68
-3,48,28,12,18,40,300,282,-10,-65
35,82,82,78,58,41,27,-344,-196,-105
63,133,132,144,103,40,-229,-840,-297,-125
55,122,113,122,93,36,-190,-987,-281,-107
-13,60,13,82,57,90,12,-784,-282,-154
-60,8,-47,65,47,145,151,-438,-238,-166
-67,-15,9,49,21,113,185,-244,-161,-92
-43,-12,17,26,-17,29,43,-226,-103,-16
-2,19,14,1,-43,-37,-59,-225,-27,43
100,106,49,21,-39,-61,-191,-279,55,133
157,156,76,40,-36,-129,-436,-464,70,175
117,112,39,17,-59,-167,-425,-465,-23,49
86,73,32,6,-62,-144,-301,-278,-73,-26
77,59,21,-1,-52,-118,-209,-31,-30,-37
46,37,3,-16,-35,-71,-164,198,-27,-75
-14,-14,-17,-27,-3,-18,-75,309,-33,-123
-37,-32,-10,-16,37,63,49,209,-27,-126
-33,-18,9,23,70,157,191,164,-47,-130
-31,-7,31,47,65,141,210,293,-88,-169
-11,42,47,74,48,38,4,207,-104,-199
-5,71,32,74,17,-34,-160,74,-86,-201
-29,66,63,63,1,-64,-252,-91,-105,-241
-31,74,92,65,23,-89,-284,-278,-141,-272
-55,59,77,62,35,-71,-227,-378,-161,-289
-126,-8,34,46,35,-46,-134,-442,-207,-341
-152,-90,-26,20,45,3,7,-207,-151,-286
-87,-155,-124,-54,15,27,141,203,43,56
52,-140,-268,-115,-43,-20,130,311,221,475
124,-105,-217,-131,-87,-58,127,401,319,584
114,-96,-120,-136,-99,-37,133,569,406,525
120,-68,-94,-132,-102,-54,123,688,517,518
188,22,23,-47,-41,-32,50,645,570,569
237,131,140,60,47,33,-42,332,496,574
225,186,201,146,139,83,-75,-463,134,392
131,148,187,138,153,106,20,-951,-230,86
95,118,140,119,125,110,69,-719,-243,-11
102,126,149,111,83,46,-33,-526,-168,41
27,79,83,56,42,0,0,-641,-247,-12
-52,30,37,10,22,16,154,-717,-365,-115
-87,14,23,-14,12,40,225,-449,-348,-148
-64,14,36,5,30,42,126,-294,-289,-114
26,78,99,61,66,-8,-162,-329,-187,-40
50,101,101,74,79,17,-193,-261,-116,-48
18,60,70,47,79,93,11,-66,-41,-100
-33,-2,16,25,72,129,162,106,17,-151
-91,-57,-29,19,61,142,312,259,19,-223
-140,-84,-89,11,58,174,410,289,3,-267
-120,-52,-98,18,66,147,324,147,-8,-222
-127,-64,-13,13,56,94,163,57,-101,-288
-118,-126,-43,-35,13,46,69,20,-126,-246
-72,-184,-114,-103,-47,46,83,84,39,44
-32,-151,-113,-110,-50,42,23,78,130,242
-2,-71,-74,-51,-17,33,-45,-5,134,241
25,-9,-7,-4,17,24,-147,-151,143,194
94,62,52,20,25,-12,-281,-195,180,250
127,107,81,6,0,-54,-287,26,130,206
162,134,80,4,-17,-75,-281,206,140,191
158,129,83,17,-33,-140,-380,126,97,177
101,82,32,-31,-98,-233,-434,-92,-44,57
-1,2,-80,-106,-164,-242,-262,205,-77,-67
-47,-55,-194,-158,-212,-223,-38,722,10,-98
-31,-40,-157,-148,-182,-165,72,891,151,-8
-27,-37,-81,-132,-135,-104,207,904,258,27
4,-8,-16,-76,-57,-19,187,670,230,-6
99,103,120,70,93,66,-54,139,119,24
212,231,263,202,171,47,-477,-630,-66,89
183,200,222,144,134,-2,-618,-949,-178,82
66,88,113,61,86,29,-425,-883,-230,14
28,59,85,54,71,41,-282,-758,-217,-6
8,54,64,45,54,42,-168,-483,-96,35
-25,37,41,28,54,44,-73,-153,-50,-2
-45,6,27,28,32,34,-39,137,-45,-79
-41,-20,3,16,10,1,-85,165,13,-77
-47,-50,-22,-13,-11,-60,-105,85,78,-48
-23,-62,-22,-13,-13,-86,-142,33,149,4
-14,-35,-7,-5,-9,-81,-143,55,174,13
4,21,40,28,39,-43,-110,-81,107,13
-31,12,52,51,77,29,16,-254,-91,-82
-99,-26,6,15,57,58,129,-358,-227,-198
-108,-42,-45,0,27,62,185,-268,-207,-200
-92,-49,-111,-14,14,60,180,-97,-118,-111
-72,-40,-89,-31,20,58,186,112,-23,-17
-30,-18,-28,-42,7,27,147,149,39,34
-42,-43,-39,-54,-17,0,90,-15,3,-24
-86,-51,-42,-51,-16,-6,90,-110,7,-49
-109,-22,-86,-28,0,0,138,30,-17,-96
-154,-48,-181,-26,2,31,221,137,-81,-192
-168,-75,-114,-30,8,58,280,142,-92,-206
-147,-73,-51,-12,22,53,250,99,-110,-190
-135,-88,-40,-10,2,24,205,189,-69,-183
-128,-106,-52,-37,-31,-5,146,235,0,-177
-43,-6,22,-2,-24,-40,-41,66,47,-82
48,113,138,67,11,-89,-261,-164,24,-22
91,141,142,92,19,-101,-343,-352,-64,-55
87,141,101,53,-13,-90,-339,-409,-102,-103
53,92,61,1,-46,-72,-257,-306,-133,-154
-34,-16,-17,-56,-86,-48,-93,-63,-141,-189
-99,-104,-106,-105,-118,-55,12,81,-79,-170
-116,-176,-176,-157,-146,-36,90,241,54,-52
-76,-191,-181,-160,-156,-42,132,407,203,94
-5,-152,-125,-111,-122,-72,34,448,268,158
35,-91,-62,-48,-54,-50,-8,356,296,150
27,-90,-42,1,11,-3,30,254,274,120
49,-99,-53,19,27,39,118,274,281,225
68,-110,-83,31,71,103,242,280,244,276
-9,-171,-125,15,90,185,456,398,102,138
-13,-163,-95,-1,69,154,423,450,76,80
95,-61,-20,18,42,45,86,273,180,184
192,45,64,81,78,-21,-197,-176,26,169
215,105,109,101,104,-1,-137,-561,-211,87
85,89,20,31,36,13,155,-578,-350,-85
19,122,-37,11,5,8,227,-424,-359,-166
33,159,30,39,22,10,132,-274,-274,-166
11,133,0,35,32,18,69,-161,-198,-189
-25,97,27,11,15,23,54,-87,-117,-182
-69,72,26,-11,-10,-15,-92,-117,-171,-258
-122,55,12,-10,-24,-38,-153,-58,-178,-334
-181,-7,-29,-37,-37,4,14,126,-131,-394
-192,-55,-138,-51,-31,56,130,285,-49,-384
-169,-52,-189,-38,-10,105,209,389,57,-304
-83,-18,-79,-39,-18,91,204,437,156,-112
64,34,15,-31,-33,-5,29,320,247,241
138,65,30,-12,-42,-114,-264,74,279,413
122,67,25,-18,-58,-159,-385,-9,202,310
43,14,0,-35,-60,-112,-241,132,91,123
7,-32,-2,-31,-43,-72,-146,353,98,41
107,-21,5,-21,-46,-88,-185,424,219,210
227,28,36,-3,-45,-111,-322,-46,229,457
229,76,82,55,9,-46,-340,-640,90,493
121,69,90,77,65,65,-139,-674,42,319
0,-13,24,37,65,113,101,-290,-15,86
-67,-110,-63,-25,30,104,222,50,-19,20
-86,-124,-100,-63,-7,78,265,385,91,36
-51,-71,-43,-29,14,93,235,565,206,49
-26,-56,-23,-9,11,85,166,462,158,12
-40,-31,0,-10,-9,31,94,195,-19,-89
-16,2,26,4,-31,-47,-70,75,20,-39
31,14,26,4,-46,-109,-209,110,172,76
32,27,37,21,-27,-54,-89,20,67,50
46,68,72,54,27,10,28,-241,-142,17
107,115,118,88,65,1,-76,-631,-279,60
101,82,91,85,70,40,-43,-702,-289,76
-7,16,33,44,45,114,188,-487,-280,-69
-61,-25,0,-4,19,112,359,-141,-190,-178
-27,-6,-2,-32,-6,75,240,307,94,-81
-17,9,12,-13,0,47,33,565,173,-77
5,66,77,60,53,35,-192,450,50,-129
13,66,79,71,61,22,-273,79,-99,-117
-78,-19,-7,-4,-14,9,-141,-192,-264,-120
-24,16,-9,-15,-55,-18,-157,-339,-241,18
78,71,20,-1,-64,-50,-214,-666,-198,177
110,69,24,-6,-84,-66,-193,-684,-145,316
109,48,21,-4,-89,-38,-95,-367,-102,325
87,39,27,13,-59,-34,-112,-214,-119,216
47,3,25,9,-65,-76,-146,-169,-104,125
9,-62,-27,-16,-83,-89,-63,18,3,104
28,-91,-31,1,-54,-86,-64,16,71,91
59,-49,29,56,36,-67,-159,-169,7,51
31,-25,49,76,115,-42,-201,-222,-97,-31
0,-12,16,54,103,-55,-170,-85,-72,-68
15,1,12,32,48,-32,-80,93,24,-49
-9,4,25,31,32,32,82,217,67,-59
-52,0,-8,12,24,57,160,259,61,-83
-57,0,-110,-5,27,54,122,215,88,-27
-69,-40,-136,0,69,84,180,135,116,37
-80,-62,-34,27,84,111,215,-30,23,-12
-71,-47,15,31,72,105,159,-121,-41,-75
-71,-32,20,41,67,94,134,-39,-46,-116
-75,-43,-50,35,71,85,127,126,-55,-153
-61,-78,-128,19,67,93,175,139,-64,-111
-97,-124,-83,-14,43,80,250,103,-98,-121
-79,-107,-31,-4,34,61,227,50,-88,-103
-2,-32,21,18,35,6,77,-19,-50,-27
24,0,40,5,0,-44,4,-10,3,11
8,15,37,-20,-39,-65,4,50,52,25
-11,38,27,-57,-88,-110,-24,48,15,-31
-36,14,-17,-119,-125,-133,20,113,48,-43
-49,-29,-81,-156,-153,-115,144,226,77,-45
-20,-30,-111,-162,-131,-83,212,292,115,-24
2,-27,-103,-126,-84,-40,258,351,133,-3
-31,-37,-30,-92,-41,-13,345,371,89,-4
-32,-25,-30,-92,-35,0,383,418,142,50
22,0,-12,-98,-56,-4,330,410,146,70
27,-11,-30,-66,-62,-9,281,310,78,19
12,-64,-52,-50,-37,15,276,281,78,-4
0,-99,-62,-64,-16,41,319,281,167,27
-4,-96,-93,-71,-26,22,325,193,225,94
-23,-113,-159,-88,-57,-11,279,94,247,98
-28,-108,-70,-95,-52,0,228,-10,231,120
-33,-45,2,-41,-6,26,100,-75,154,101
-11,39,63,23,29,-2,-66,-104,-31,0
53,128,111,39,10,-81,-248,-131,-82,-7
71,168,113,34,-19,-130,-336,-208,-107,1
21,138,89,28,-1,-70,-191,-366,-220,-51
-25,39,24,-5,-19,-7,2,-242,-211,-79
-19,0,8,-5,-31,-10,25,95,-100,-50
-14,5,13,-2,-20,-33,-21,341,2,-24
0,20,55,19,-8,-40,-99,386,27,-7
17,38,88,33,-3,-82,-207,152,12,14
10,58,122,67,31,-83,-258,-182,-45,-8
-26,55,121,93,82,-6,-138,-445,-165,-71
-56,34,90,87,108,57,-23,-588,-205,-93
-63,5,-5,50,80,72,56,-476,-141,-74
-27,17,-107,14,35,19,27,-260,-42,-64
3,49,-44,10,19,0,26,-108,0,-84
32,92,55,47,36,-4,14,-106,-16,-93
53,106,94,64,45,-20,-28,-150,-49,-77
43,65,97,47,15,-42,-56,-147,-44,-67
21,75,106,36,-9,-62,-95,-250,-89,-100
0,115,110,27,-49,-90,-172,-354,-176,-138
-34,88,-29,-1,-76,-41,0,-217,-164,-183
-58,33,-64,-43,-94,-1,202,59,14,-109
-35,16,-3,-52,-64,9,265,274,221,54
8,-6,10,-10,-6,24,201,279,269,111
66,-9,22,29,2,0,66,191,262,181
82,-17,3,21,-14,-18,13,219,274,261
102,-25,9,12,1,-10,44,347,208,264
55,-54,-11,15,27,50,142,451,87,168
-16,-104,-152,-24,0,60,224,490,21,93
-108,-173,-307,-107,-100,-4,240,345,-24,-21
-208,-245,-386,-177,-151,25,496,125,-70,-163
-170,-172,-286,-108,-67,113,670,-78,-161,-194
-179,-82,-127,-59,-8,191,730,84,-330,-299
-161,-1,4,5,51,233,598,357,-345,-318
38,168,196,153,120,124,-104,94,-274,-141
239,337,351,262,121,-91,-920,-484,-235,51
274,350,350,236,68,-203,-1175,-678,-186,107
241,273,291,186,38,-186,-1030,-689,-119,125
190,203,226,152,39,-89,-781,-671,-95,85
132,208,212,146,75,7,-597,-570,-116,3
130,200,162,122,83,54,-443,-371,-107,18
119,153,66,79,64,69,-296,-295,-101,38
17,42,-80,21,11,43,-147,-333,-194,-57
-22,-46,-58,-23,-37,-1,-70,-189,-79,32
25,-40,38,6,1,8,-58,-78,164,240
11,-70,50,23,50,71,2,-32,172,224
-2,-136,1,6,51,75,72,166,200,246
24,-145,5,22,75,58,36,381,325,321
57,-142,18,53,79,50,-35,264,263,265
23,-173,-13,41,58,21,-62,-76,111,156
-47,-193,-42,3,42,15,-5,-85,91,75
-57,-172,-43,9,48,44,76,105,151,65
-66,-131,-10,38,56,20,69,46,3,-32
-113,-110,0,31,33,-7,53,-101,-165,-208
-123,-94,-6,7,10,21,107,-91,-177,-278
-96,-87,-26,-17,7,58,151,-67,-52,-155
-64,-108,-63,-52,19,127,261,-48,57,102
-77,-157,-128,-100,-5,178,477,46,106,266
-86,-176,-136,-128,-37,202,632,239,201,327
-72,-139,-117,-123,-40,192,622,483,295,308
-34,-101,-95,-95,-37,142,477,622,308,199
83,63,41,7,-2,17,34,312,233,147
145,178,114,55,-22,-130,-347,37,164,139
99,143,70,7,-53,-162,-287,151,163,122
77,127,59,7,-43,-119,-188,192,112,74
109,162,112,66,0,-101,-287,-26,9,57
68,126,110,68,15,-74,-313,-201,-45,32
-25,27,18,0,-30,-42,-167,-98,-99,-61
-63,-47,-60,-62,-56,-46,-28,231,-98,-134
-96,-106,-128,-102,-105,-69,38,772,28,-134
-119,-138,-177,-135,-137,-30,145,1224,201,-130
-170,-178,-211,-160,-131,43,323,1298,311,-128
-175,-212,-213,-151,-119,100,467,1201,370,-83
-41,-85,-93,-48,-34,106,298,815,416,94
193,187,138,179,129,45,-161,-261,144,229
249,297,178,311,244,57,-347,-1277,-421,68
94,188,86,216,198,48,-319,-1679,-790,-187
-18,68,65,88,90,-50,-358,-1552,-746,-268
-42,13,-50,45,38,-84,-311,-990,-469,-205
-42,-7,-135,14,4,-69,-171,-468,-235,-162
-47,11,-52,-3,-28,-55,-61,-221,-131,-149
-5,76,46,-15,-14,-69,-63,-205,-55,-67
14,105,81,-16,4,-78,-81,-257,-55,-64
23,110,78,12,32,-38,-80,-291,-54,-59
10,95,61,11,37,-6,10,-245,-74,-77
-30,47,29,-20,23,-2,135,-56,-111,-100
-49,29,-6,-62,-22,-33,167,163,-26,-67
-11,47,11,-50,-28,-34,150,218,45,-23
38,67,46,-30,-25,-44,8,24,9,-22
12,27,0,-73,-77,-66,-65,-40,-61,-58
-45,-32,-45,-94,-97,-64,22,143,-62,-86
-70,-69,-54,-68,-53,-22,112,201,0,-79
-86,-78,-36,-60,-29,2,99,174,51,-83
-89,-67,-47,-51,-39,-2,74,172,84,-110
-56,-42,-20,-16,-36,10,68,276,164,-69
-14,22,54,31,23,51,97,215,167,6
31,70,92,41,33,63,105,-33,187,73
22,72,60,19,19,19,56,-368,120,59
-7,30,24,-10,-2,-4,37,-359,54,15
-55,-55,-51,-70,-41,-5,123,-64,89,-16
-118,-113,-85,-98,-64,19,375,227,106,-54
-97,-99,-67,-85,-58,46,509,340,70,-55
-96,-64,-49,-79,-51,52,499,305,-50,-88
-72,14,11,-33,-43,43,288,119,-152,-129
55,154,139,67,11,-21,-83,-89,-94,-15
103,177,147,71,-14,-117,-316,-200,-39,35
21,89,-19,-7,-55,-111,-173,105,64,10
-54,1,-60,-62,-73,-60,-7,519,205,-1
-38,-17,-29,-51,-52,-35,4,630,273,11
-13,0,-8,-17,13,-1,-26,416,148,-4
-99,-81,-60,-44,10,14,39,232,-55,-150
-136,-83,-84,-43,2,-9,23,11,-177,-244
-46,-1,4,40,54,16,-70,-339,-265,-223
5,45,78,87,108,37,-142,-613,-308,-185
-47,18,45,49,77,10,-155,-444,-242,-213
-80,-9,51,53,92,22,-98,-176,-178,-206
-90,-57,44,51,107,39,-51,-33,-198,-224
-71,-74,18,38,97,37,-53,144,-160,-176
-22,-77,10,36,77,20,-121,162,-11,4
2,-83,-4,17,37,20,-92,80,179,215
42,-65,16,0,-3,14,-14,43,262,305
121,-13,29,-3,-39,-13,-55,62,245,306
177,45,74,2,-50,-25,-128,-38,212,295
148,48,81,8,-48,-20,-110,-135,97,174
44,-11,24,-28,-64,-13,-50,-141,-34,7
-36,-68,-35,-56,-86,-23,-47,-223,-151,-141
-98,-110,-44,-66,-89,-5,-18,-250,-212,-234
-133,-126,-77,-90,-91,-1,10,-159,-216,-262
-100,-94,-71,-72,-30,25,50,-63,-145,-225
-44,-74,-73,-59,51,24,52,-60,-45,-71
-2,-79,-85,-95,16,-3,2,-76,111,108
56,-46,-82,-88,-27,-16,-65,-28,280,271
156,59,-6,1,31,-1,-128,-3,310,413
207,130,67,75,87,9,-167,18,231,385
161,137,108,85,106,2,-178,-37,117,271
123,143,124,96,103,-25,-181,-191,-33,98
95,113,100,86,80,-5,-82,-209,-107,-33
48,69,36,48,41,28,92,-95,-123,-131
30,41,19,50,31,27,128,-3,-89,-161
1,4,7,55,41,63,94,25,-28,-168
25,-27,-25,21,14,43,-5,23,110,-20
81,-35,-42,-5,-11,-13,-110,165,263,260
84,-45,-37,0,-8,-11,-103,435,185,309
73,-57,-113,-22,-26,-16,-53,510,45,196
12,-82,-136,-48,-39,-1,52,208,-103,49
-72,-114,-117,-75,-24,27,159,-126,-210,-65
-35,-76,-112,-69,-26,9,117,84,-66,19
13,-57,-66,-52,-34,8,14,257,46,105
-41,-137,-128,-95,-59,69,203,440,90,95
-120,-237,-213,-172,-100,87,445,659,132,14
-101,-189,-176,-156,-98,42,376,556,152,5
25,-39,-53,-82,-68,-42,116,369,249,123
172,98,55,23,-32,-176,-311,112,309,242
208,151,99,81,6,-171,-425,58,233,227
192,208,108,159,104,-28,-272,-21,31,149
187,283,241,260,190,29,-315,-530,-275,44
56,219,211,194,129,-6,-289,-946,-495,-139
-30,121,114,100,58,-44,-252,-827,-464,-213
-35,47,50,35,25,-81,-326,-677,-342,-147
12,23,44,10,14,-49,-185,-478,-156,-3
38,55,55,23,35,17,10,-262,-59,43
18,70,25,42,15,24,4,-121,-37,-9
-14,31,8,35,11,44,0,-135,-71,-62
-21,15,37,36,33,84,-10,-244,-114,-70
-16,48,9,43,37,38,-151,-330,-140,-60
-5,63,40,47,30,-78,-366,-348,-147,-76
-8,34,40,40,-5,-126,-461,-102,-81,-80
-1,8,4,13,-23,-129,-362,78,-10,-45
1,-13,-16,-12,-46,-122,-261,147,49,-23
-11,-48,-34,-20,-45,-50,-99,267,136,1
-31,-62,-33,-5,-23,25,37,296,176,34
-34,-45,-9,12,-14,45,18,139,171,47
-24,-20,-42,35,-2,52,6,-114,45,-14
-27,0,-86,47,22,70,62,-264,-56,-72
10,24,0,66,27,72,38,-288,-65,-60
31,17,79,58,20,48,19,-113,-36,-33
-16,-29,18,15,-13,48,116,107,-37,-89
-60,-51,-14,-22,-35,76,256,181,-44,-150
-91,-65,-59,-61,-68,113,437,76,-53,-158
-169,-119,-119,-97,-70,136,602,-4,-33,-156
-163,-125,-143,-85,-60,124,575,-6,-73,-182
-82,-83,-74,-64,-60,84,345,-47,-86,-147
42,-3,-13,-31,-56,-11,4,-35,0,-17
142,81,56,6,-37,-108,-273,-7,76,112
156,86,64,7,-48,-161,-351,33,103,141
118,74,55,-5,-58,-182,-304,59,82,92
58,67,47,-9,-51,-142,-187,67,62,56
16,41,18,4,-37,-72,-106,15,41,6
-2,24,5,4,-27,-43,-78,-82,4,-27
6,1,-1,1,-10,-6,-9,-19,12,-26
-12,-46,-65,-29,-10,35,44,187,59,-35
-109,-139,-264,-103,-53,39,126,582,124,-63
-159,-205,-309,-174,-120,7,166,849,242,-75
-137,-179,-209,-185,-121,-5,170,784,373,18
-64,-98,-129,-132,-81,-38,119,515,460,131
23,-27,-40,-44,-14,-42,44,335,358,112
66,46,46,33,61,23,31,126,170,55
105,183,169,143,143,80,-57,-384,-148,-46
139,283,245,187,131,21,-250,-835,-401,-122
77,237,200,121,45,-23,-221,-762,-488,-183
16,162,114,54,-10,-30,-116,-434,-363,-170
4,131,98,12,-33,-74,-105,-212,-189,-99
6,110,94,12,-42,-91,-132,-63,-157,-117
-18,31,37,-3,-51,-90,-126,101,-116,-128
-68,-68,-19,-26,-52,-72,-72,143,3,-83
-98,-123,-67,-51,-63,-50,-21,148,111,-58
-106,-132,-89,-54,-51,-2,92,452,209,-35
-94,-109,-69,-28,-20,33,164,760,357,31
-30,-56,-45,7,35,104,166,641,340,133
27,-9,-14,55,90,149,126,-104,69,153
-12,-26,-45,45,95,161,178,-854,-279,58
-75,-82,-129,-18,33,142,324,-790,-381,-24
-55,-45,-73,-40,4,113,353,-306,-222,-45
-25,26,-50,-45,-12,102,223,-73,-93,-44
-43,40,-81,-48,-12,72,148,82,-68,-63
-65,37,-34,-19,25,71,138,124,-80,-114
-44,47,22,36,46,75,126,-84,-104,-124
-25,8,35,55,38,16,33,-292,-166,-168
-37,-62,15,38,48,10,40,-177,-153,-184
-65,-127,-28,12,42,39,-16,-128,-128,-186
-153,-243,-164,-78,-34,53,76,-21,-77,-212
-262,-380,-329,-156,-68,141,498,285,34,-194
-288,-420,-365,-177,-63,192,730,578,197,-125
-171,-332,-246,-173,-57,179,714,1064,587,144
113,-116,-48,-41,8,70,207,1163,929,557
381,115,160,97,26,-167,-615,749,904,755
446,219,233,110,-1,-308,-921,385,685,665
343,194,211,98,10,-231,-670,-4,287,410
131,106,148,111,85,-3,-149,-595,-282,48
103,135,182,160,155,98,-1,-930,-622,-36
131,181,174,161,134,45,-224,-1089,-667,-1
110,141,86,103,80,-58,-358,-869,-465,20
110,99,89,78,57,-112,-400,-507,-238,62
89,60,63,59,35,-102,-322,-273,-100,89
72,36,40,40,22,-89,-265,-172,-40,113
63,46,48,20,-2,-107,-253,-126,-14,104
-37,80,-48,7,-4,-58,-101,-29,-132,-208
-75,34,-2,-6,-13,-20,20,182,-112,-207
-64,10,22,-20,-24,6,61,303,-68,-176
-38,-17,1,-39,-25,19,101,332,2,-78
-14,-24,-31,-57,-36,29,155,335,81,53
49,0,-6,-68,-33,29,178,234,169,208
80,28,23,-57,-8,39,179,104,247,273
54,34,53,-26,36,47,174,14,144,143
19,20,50,9,48,35,137,30,-9,-48
-4,0,43,35,35,36,106,80,-42,-125
-3,-2,18,32,17,10,62,83,-8,-90
-16,-14,-17,-15,-20,-29,25,138,55,-17
-39,-60,-50,-46,-39,-5,150,254,44,12
-80,-98,-77,-64,-34,36,342,281,20,9
-113,-117,-105,-81,-57,23,362,324,24,-1
-141,-143,-125,-109,-85,-4,283,426,-36,-94
-89,-102,-93,-93,-79,-35,52,479,-15,-72
-42,-66,-54,-65,-66,-49,-116,467,59,-9
-36,-70,-51,-76,-78,-67,-107,336,107,7
-24,-65,-91,-78,-79,-51,-62,-44,85,10
-36,-86,-114,-72,-56,17,34,-319,82,-5
-11,-56,-39,-25,12,79,65,-289,132,36
43,8,31,48,69,123,51,-29,155,55
116,86,88,110,109,109,2,98,183,88
203,173,156,173,136,0,-289,-84,126,142
182,158,159,160,88,-100,-436,-127,57,130
100,70,57,148,69,-72,-283,-193,-79,22
111,49,-26,160,115,-27,-247,-436,-153,21
128,32,33,134,106,-18,-232,-507,-140,36
80,-10,49,92,92,10,-125,-496,-160,-33
73,-5,66,75,89,23,-98,-530,-155,-37
50,-12,67,49,40,13,-70,-436,-151,-75
-12,-29,36,6,-7,11,21,-116,-145,-148
-34,-21,38,-10,-44,-25,-6,204,-119,-127
-72,-25,-22,-49,-94,-32,-50,389,-102,-142
-135,-32,-22,-94,-136,-38,-11,240,-105,-177
-171,-4,-75,-146,-189,-67,86,149,-52,-177
-165,5,-152,-168,-208,-69,168,251,-28,-200
-105,41,-54,-143,-164,-55,148,206,-2,-167
-78,89,-28,-54,-88,-28,125,-141,-62,-159
-51,126,16,-21,-49,-10,84,-420,-108,-169
-34,142,105,-15,-42,-17,20,-391,-101,-141
-52,125,98,-29,-53,-25,27,-328,-143,-149
-73,68,37,-65,-54,-46,145,-218,-152,-75
-79,2,-97,-88,-55,-25,212,-143,-118,4
-55,8,-132,-71,-33,41,242,-76,-62,37
16,48,-9,-14,5,42,146,-7,21,107
11,17,-11,-10,12,30,167,140,78,103
-10,-13,-28,-28,24,46,353,259,80,71
0,-42,45,-33,20,19,335,227,60,29
-16,-82,38,-52,13,0,270,313,67,22
-34,-89,22,-55,-3,-40,97,560,133,28
-45,-82,10,-52,-5,-79,-26,661,194,50
-43,-97,-9,-54,10,-46,51,603,243,70
-58,-119,-29,-50,8,-37,72,415,214,38
-64,-138,-7,-14,43,-4,105,232,153,24
-54,-107,26,41,99,60,163,5,82,24
-61,-88,35,49,110,109,229,-153,-42,-11
-36,-89,23,35,78,84,226,-152,-56,21
11,-50,45,41,58,30,140,-105,8,111
2,-40,23,27,27,-10,37,-220,-46,56
-28,-79,-9,3,-2,-4,69,-314,-107,-40
-74,-118,-101,-16,0,27,186,-326,-139,-77
-113,-149,-132,-36,-25,17,204,-244,-85,-78
-100,-138,-78,-44,-32,-2,130,-91,27,-23
-40,-84,-33,-5,-22,-27,44,-19,161,112
6,-45,-17,16,-25,-67,-73,1,247,192
12,-26,-5,17,-31,-63,-155,40,192,118
12,0,24,26,-9,-38,-137,125,131,60
-12,34,45,35,4,-18,-32,171,32,-30
-95,7,-7,-19,-14,57,299,312,-49,-182
-109,-6,-15,-40,4,119,473,344,-38,-212
-2,89,68,31,59,60,200,-108,-31,-148
51,143,131,71,74,9,-98,-576,-61,-124
37,157,162,84,76,2,-259,-593,-91,-156
64,182,156,97,59,-73,-432,-416,-66,-165
108,164,116,52,-22,-157,-470,-157,9,-50
152,138,82,12,-74,-169,-393,104,52,166
128,105,47,-5,-51,-121,-269,344,62,253
99,71,40,-6,-13,-46,-174,246,71,223
39,19,6,-22,-10,16,-85,-209,32,159
-11,-24,-49,-59,-18,62,135,-250,113,197
8,-38,-112,-70,-32,81,282,45,212,289
53,-20,-59,-32,-22,101,290,103,159,317
85,27,56,51,61,140,243,-100,-39,236
12,16,65,54,74,119,146,-306,-325,6
-51,-16,16,21,35,68,73,-214,-384,-132
-12,18,53,43,48,29,-69,-139,-263,-90
57,75,109,92,66,-14,-270,-267,-176,-38
67,91,118,108,83,-11,-331,-312,-167,-65
8,50,38,75,71,-13,-242,-188,-146,-113
-52,-5,1,43,57,25,-58,-6,-111,-131
-67,-51,14,44,67,77,75,98,-52,-136
-29,-40,-7,55,75,62,35,106,20,-90
22,0,31,62,65,17,-63,119,32,-40
59,26,45,49,39,-47,-164,151,23,19
100,77,81,57,31,-133,-336,50,20,67
64,69,78,54,23,-143,-368,-65,-27,35
-79,-37,-1,-2,-4,-82,-142,9,-45,-115
-204,-127,-86,-58,-13,17,199,204,-13,-223
-255,-171,-165,-66,6,138,453,300,28,-254
-245,-203,-224,-72,0,206,524,386,122,-214
-124,-137,-106,-32,17,209,383,457,246,-63
88,74,113,117,136,186,-12,166,329,169
245,216,227,182,151,17,-626,-391,272,373
225,128,133,78,17,-158,-834,-549,88,429
174,68,50,-19,-80,-181,-633,-326,4,398
143,67,33,-40,-106,-138,-448,-110,-6,324
96,61,39,-28,-96,-109,-355,-42,-32,185
59,33,36,-32,-79,-98,-319,-65,-27,93
55,43,44,-19,-47,-66,-278,-55,-3,97
49,50,55,-5,-14,0,-221,17,-10,104
29,43,42,-2,-16,3,-228,36,-18,57
17,41,34,5,-12,24,-160,101,8,33
13,30,25,9,-4,62,-127,158,44,40
7,22,12,5,1,61,-160,165,55,14
-23,-5,-36,-20,-26,58,-137,216,48,-47
-53,-45,-74,-41,-52,41,-71,213,45,-81
-50,-48,-93,-59,-48,33,52,107,76,-21
-74,-65,-105,-64,-33,76,197,34,-12,-32
-128,-123,-117,-56,-35,113,261,19,-169,-144
-120,-111,-103,-16,-17,82,143,18,-155,-142
-51,-55,-88,23,4,12,-64,45,-59,-65
5,-32,-36,29,3,-35,-176,65,-22,-9
25,-5,8,53,12,-37,-184,2,-61,-16
-5,6,17,47,0,-45,-138,-41,-105,-82
-40,-8,-5,13,-12,-51,-65,26,-65,-85
-43,-15,-13,5,-16,-57,-13,96,40,-10
-16,8,1,18,-15,-47,-13,82,131,59
4,-6,-59,17,-17,-31,0,141,116,57
-36,-44,-202,-6,-23,-5,93,372,104,-6
-71,-36,-197,-21,-33,20,161,468,119,-17
-100,-56,-119,-56,-77,-6,156,421,128,-66
-97,-79,-93,-68,-103,-45,72,130,186,-51
-34,-45,-53,-69,-100,-97,-55,6,237,-9
38,19,20,-19,-24,-56,-71,225,252,32
88,81,105,49,60,36,-14,160,132,33
53,65,52,44,70,76,120,-49,-68,-51
-19,15,-94,12,46,60,196,-389,-217,-130
-29,13,-68,16,46,83,232,-603,-211,-132
18,35,46,45,54,79,202,-345,-68,-39
94,86,94,69,41,-12,40,-220,53,47
141,105,99,70,19,-83,-26,-210,92,83
134,89,100,61,27,-50,37,-305,20,83
66,31,7,24,26,-2,174,-300,-113,13
19,-11,-108,3,9,18,254,-155,-163,-48
-10,-21,-40,5,14,25,246,-51,-161,-84
0,-13,-52,4,26,5,183,48,-73,-45
49,6,-74,4,27,-20,102,128,29,34
86,37,43,9,12,-23,48,87,63,79
75,31,74,-4,12,-17,51,24,19,67
15,-7,60,-14,8,7,98,-98,-65,4
-62,-41,29,-48,-33,7,141,-160,-129,-82
-80,-26,8,-87,-76,-9,132,-123,-158,-106
-60,0,-3,-91,-104,-32,120,-17,-155,-98
-52,0,-41,-80,-95,-8,129,111,-74,-67
-55,6,-5,-78,-95,-26,65,199,63,-6
-31,39,-4,-64,-117,-87,-15,102,-2,-43
0,70,9,-57,-123,-111,14,154,-28,-61
15,74,60,-42,-104,-101,42,214,-15,-71
-1,44,61,-11,-30,-30,123,61,-109,-112
-131,-73,-23,-33,66,98,392,-332,-359,-281
-260,-200,-123,-79,63,169,700,-298,-455,-391
-235,-213,-109,-62,44,214,896,79,-270,-303
-151,-150,-41,1,72,246,820,181,-167,-236
1,-24,39,66,123,190,422,27,-44,-49
169,87,121,98,119,55,-139,-219,74,181
261,174,184,129,121,-29,-551,-410,156,312
254,173,180,130,114,-82,-701,-514,110,277
107,55,67,70,53,-76,-490,-313,-19,51
-11,-45,-20,-7,-13,-47,-218,21,-65,-87
-63,-88,-56,-30,-25,-8,-18,212,-14,-101
-69,-86,-45,-23,-8,19,27,265,61,-80
-54,-59,-25,-1,16,15,-26,430,188,-39
26,-19,6,48,59,50,-27,588,301,80
155,55,65,67,58,-10,-269,336,379,282
240,109,106,83,42,-121,-607,-100,299,396
255,166,140,115,53,-181,-782,-564,104,360
153,176,111,107,43,-168,-663,-793,-102,211
33,170,91,93,32,-107,-469,-740,-272,0
3,178,136,101,52,-32,-320,-654,-381,-121
-3,144,103,71,45,-15,-211,-422,-334,-125
0,131,58,46,6,-20,-183,-221,-209,-132
2,124,5,40,-14,-21,-126,-121,-121,-132
39,117,6,32,-16,-6,-11,-64,-81,-93
50,85,18,8,-40,7,89,-5,-34,-63
57,34,-2,-19,-72,-20,49,11,8,-45
34,-26,-59,-56,-66,-31,39,36,43,-33
-19,-82,-157,-64,-47,2,103,76,21,-76
-87,-111,-202,-73,-44,3,123,87,-17,-133
-130,-160,-92,-81,-37,11,139,116,-7,-118
-107,-169,-69,-78,-26,-3,99,126,47,-57
-71,-94,-33,-69,-30,-32,41,146,58,20
-45,-28,-14,-61,-39,-18,83,230,125,127
-57,-27,-32,-58,-24,0,129,256,124,147
-71,-61,-68,-69,-14,15,179,235,66,99
-85,-124,-93,-86,0,58,345,333,63,61
-112,-177,-111,-91,9,108,510,496,105,31
-106,-181,-141,-80,7,132,541,565,143,30
-102,-155,-128,-58,15,144,531,517,153,14
-121,-144,-76,-58,31,143,430,399,125,-18
-122,-158,-70,-76,21,128,370,387,153,20
-117,-168,-107,-82,6,103,325,348,126,72
-105,-146,-117,-72,5,96,255,219,3,25
-52,-93,-60,-61,-15,22,17,12,-61,34
25,19,31,-11,-34,-183,-458,-275,-50,103
38,69,45,-7,-58,-281,-596,-322,-1,76
-15,21,-63,-55,-95,-274,-388,-45,131,42
-50,-8,-113,-57,-98,-206,-167,270,281,73
-61,-48,-105,-59,-94,-140,-113,397,203,26
-65,-72,-113,-89,-78,-120,-88,403,121,-9
1,-2,10,-35,-22,-127,-189,107,14,3
28,25,52,0,3,-102,-310,-245,-130,-39
-6,-16,14,-24,-9,-74,-209,-32,-123,-65
23,18,37,-8,-7,-48,-201,135,-68,-35
50,53,57,-1,4,-10,-194,120,-38,-2
45,48,53,-6,12,27,-50,219,12,63
55,51,69,2,35,53,0,93,18,66
73,72,83,16,36,49,-26,-193,33,41
98,94,96,41,39,68,-39,-280,111,39
135,150,139,69,44,71,-106,-207,218,66
129,175,153,84,53,100,-107,-22,143,34
91,142,119,70,37,90,-73,74,31,-15
45,116,91,29,0,20,-95,81,-35,-57
-43,59,32,-17,-29,0,20,-43,-180,-145
-102,1,7,-12,-29,-11,66,-352,-394,-280
-137,-19,15,7,-11,-25,-6,-523,-498,-346
-113,-8,31,32,11,-2,-53,-361,-340,-264
-77,21,45,38,23,0,-75,-292,-201,-195
-84,14,37,45,20,0,-64,-307,-191,-210
-71,-10,23,38,30,36,-21,-274,-120,-141
-44,-24,-39,44,52,66,8,-189,-85,-71
-47,-43,-36,33,51,66,29,-77,-96,-87
-35,-54,-41,9,28,53,86,16,-63,-68
-4,-54,-74,-24,0,45,87,125,32,39
19,-58,-36,-17,1,61,63,223,114,156
20,-58,-26,3,0,56,52,237,119,151
34,-59,-26,-20,-36,16,63,284,149,183
62,-57,-35,-47,-60,1,95,368,301,299
53,-59,-52,-56,-67,7,111,309,346,301
31,-69,-119,-46,-69,1,129,93,207,191
-26,-96,-105,-49,-88,-42,200,-90,73,77
-48,-101,-100,-58,-87,-52,244,-77,13,35
-14,-56,-142,-58,-85,-42,186,125,21,43
-13,-39,-109,-42,-88,-69,72,98,-49,-39
-33,-13,-13,-19,-67,-77,-49,123,-67,-96
-22,20,29,3,-28,-61,-21,296,32,-51
68,72,66,30,6,-62,-57,178,138,56
155,127,118,81,42,-54,-156,-161,110,123
121,119,124,110,94,-13,-91,-387,-66,58
15,51,76,92,78,24,46,-402,-230,-87
-77,-17,16,32,54,71,176,-277,-280,-181
-106,-58,-21,-27,32,108,258,-75,-174,-163
-120,-73,-50,-55,-4,101,275,124,-19,-109
-140,-112,-97,-79,-23,76,278,225,9,-143
-169,-142,-131,-91,-26,74,339,275,-5,-208
-117,-96,-79,-60,-12,41,269,229,27,-126
-51,-43,-17,-43,-21,-50,80,192,120,-32
-19,4,-25,-63,-50,-103,-40,251,210,44
28,31,-14,-70,-61,-121,-81,412,294,129
87,43,-10,-72,-103,-153,-136,635,421,230
219,141,56,16,-52,-154,-258,382,348,277
283,249,213,167,86,-75,-330,-476,-69,138
138,157,189,153,91,3,-126,-754,-377,-125
-32,16,61,54,31,61,199,-454,-353,-319
-130,-59,-15,-1,4,131,472,-57,-188,-388
-170,-74,-33,-30,-7,148,528,267,-63,-387
-159,-68,-28,-32,-13,156,475,545,86,-303
-87,-17,8,-14,7,123,276,615,157,-137
82,94,72,8,5,-14,-130,265,165,163
204,113,66,-3,-30,-97,-320,-40,233,438
263,117,72,34,8,-91,-392,-240,236,583
264,144,116,96,70,-26,-417,-513,55,513
161,94,77,92,70,23,-272,-781,-210,277
115,77,82,99,79,47,-162,-809,-356,138
106,85,96,89,78,36,-113,-613,-319,117
60,35,45,26,37,10,-28,-521,-242,60
10,4,20,-7,8,-16,97,-495,-210,8
6,14,42,7,26,-29,51,-388,-179,-8
4,17,20,16,26,-12,-13,-257,-121,-16
14,29,27,19,24,0,-91,-188,-72,24
27,28,25,19,20,0,-136,-98,-3,45
20,6,-1,16,-1,-7,-125,-28,59,21
4,-16,-56,0,-24,-45,-123,-24,154,43
-40,-48,-131,-41,-52,-40,-74,53,152,4
-85,-94,-79,-71,-69,-3,27,173,83,-75
-142,-150,-99,-90,-61,36,183,314,87,-98
-197,-188,-159,-128,-60,73,405,419,106,-127
-192,-182,-187,-165,-78,68,506,478,148,-137
-117,-113,-236,-133,-61,39,419,451,165,-106
-19,-21,-124,-54,-18,16,263,284,92,-15
40,26,-14,-5,7,-18,49,120,4,20
70,98,-35,49,29,-57,-154,-101,-91,13
86,144,0,78,42,-78,-215,-362,-199,-26
91,153,44,71,33,-48,-126,-384,-231,-36
71,117,125,52,24,-4,15,-209,-165,-26
17,39,100,40,12,-10,109,18,-35,-34
0,-3,78,53,50,27,151,148,63,-15
12,-20,80,54,80,76,157,211,111,23
-1,-23,61,24,62,80,148,281,134,14
-18,-19,38,-24,22,31,63,328,156,1
-8,-12,-21,-48,8,1,-45,220,135,14
-39,-15,-38,-22,37,49,34,-24,15,-47
-148,-93,-15,-31,34,110,306,-112,-123,-202
-198,-120,-36,-33,35,165,529,-8,-139,-266
-140,-74,-13,-26,38,113,400,132,23,-147
-79,-50,-9,-52,-31,19,192,306,155,-39
-2,1,52,-18,-29,-26,-16,292,149,-16
101,125,99,39,-20,-153,-374,49,81,30
88,102,71,-22,-95,-270,-481,102,85,16
7,29,13,-90,-126,-269,-359,201,192,0
0,-10,-25,-81,-98,-188,-200,248,301,87
25,-44,-62,-68,-85,-118,-66,446,369,215
64,-35,-53,-59,-77,-130,-90,695,416,324
140,29,21,-17,-49,-130,-245,594,294,324
186,150,72,55,7,-100,-425,-294,-73,201
66,116,1,51,39,-55,-350,-940,-456,-40
-53,2,-44,35,60,-1,-174,-655,-472,-171
-77,-80,-40,19,65,42,-97,-273,-293,-144
-102,-153,-22,-16,44,92,7,-90,-154,-106
-136,-190,-50,-26,20,107,50,-111,-112,-93
-200,-236,-102,-80,-38,58,12,-225,-158,-182
-217,-279,-147,-128,-66,53,107,-107,-66,-189
-167,-239,-143,-126,-70,89,239,159,103,-85
-33,-77,-44,-58,-45,82,231,329,228,49
114,114,108,71,32,62,100,282,210,150
197,278,219,173,115,30,-148,30,73,154
269,357,290,207,121,-102,-513,-383,-55,155
178,246,196,118,27,-195,-572,-499,-149,62
55,106,37,34,-15,-125,-303,-294,-159,-36
4,24,32,16,7,-7,-88,-90,-150,-66
-2,10,35,14,8,42,-34,10,-97,-51
0,-9,-8,-1,-13,54,-14,92,-23,-52
-12,-43,-72,-1,2,71,56,157,29,-20
-26,-52,-41,16,22,84,84,185,71,18
-31,-57,12,20,20,74,49,144,134,60
-46,-79,-1,3,7,72,84,227,178,65
-75,-122,-50,-13,0,97,202,344,119,-26
-56,-116,-134,-6,5,116,203,301,76,-48
-14,-58,-176,15,-1,96,129,174,12,-57
2,-11,-135,28,-20,28,31,-28,-48,-86
-2,1,-29,20,-6,-8,-24,-205,-121,-92
-28,-24,15,3,26,-4,80,-150,-119,-109
-65,-54,-18,-34,41,26,197,-2,-86,-124
-73,-52,-24,-51,5,27,231,126,-86,-140
-52,-38,-31,-58,-29,24,215,271,-12,-97
-9,-15,-4,-35,-26,26,126,201,54,-55
15,5,-12,-2,-11,29,91,42,54,-61
-22,-35,-92,-29,-28,63,242,255,95,-92
-75,-68,-111,-65,-43,87,392,484,99,-101
-91,-63,-65,-41,-10,86,360,401,78,-81
-51,-14,15,-3,24,62,171,95,10,-64
40,67,90,53,46,3,-107,-248,-15,19
132,146,193,127,100,-7,-341,-318,14,125
165,179,209,142,95,-53,-498,-269,12,137
113,97,105,56,12,-94,-397,72,30,101
105,74,79,26,-18,-121,-299,260,43,127
100,73,83,47,-10,-96,-241,291,70,158
67,19,-43,51,13,-33,-144,190,108,145
21,-12,-78,47,31,5,-61,15,52,54
27,6,42,71,57,4,-77,-257,-121,-8
59,18,63,89,55,-29,-138,-525,-267,-5
30,-21,2,57,34,-8,-70,-322,-278,17
18,-68,-57,31,25,21,26,-48,-223,59
4,-91,-31,15,3,21,3,-222,-202,37
9,-49,-23,11,-10,-8,-82,-308,-140,38
-11,-36,-16,-35,-34,1,-6,-169,-78,5
-13,-11,-12,-56,-32,53,56,-148,-27,4
-4,18,35,-18,-1,73,59,-223,-58,-14
-52,11,34,-26,-3,62,103,-160,-89,-79
-69,14,22,-30,-32,8,22,-70,-78,-98
-55,10,5,-36,-61,-58,-131,-54,-65,-78
-80,-35,-24,-73,-100,-112,-185,-105,-40,-87
-113,-90,-66,-87,-114,-92,-106,-94,-39,-131
-114,-120,-117,-100,-124,-70,-3,-12,-20,-177
-34,-68,-95,-88,-94,-53,45,85,37,-114
54,7,-22,-40,-49,-49,4,76,121,28
92,34,12,-18,-38,-77,-32,124,146,128
104,74,43,27,4,-22,-12,132,72,103
88,77,23,60,31,19,56,83,7,7
28,49,29,48,4,-5,72,19,5,-25
7,15,12,16,-24,-24,80,8,70,60
-1,-11,0,-5,-18,-17,69,56,81,79
11,10,23,-5,-16,-8,102,109,74,56
-32,-32,-44,-78,-92,27,377,311,78,34
-100,-96,-99,-151,-136,56,675,493,85,30
-102,-94,-93,-135,-107,54,629,564,79,10
-51,-45,-48,-52,-48,84,397,369,60,12
0,7,11,7,14,69,103,-137,21,87
46,37,47,47,22,6,-137,-366,71,141
126,108,115,107,66,-1,-213,-258,109,176
164,180,177,167,122,0,-294,-392,-32,137
147,178,224,196,155,13,-341,-537,-153,57
103,134,180,175,140,34,-250,-429,-137,11
98,101,139,143,133,47,-197,-315,-34,69
98,73,97,118,112,38,-189,-290,107,154
98,60,13,97,104,39,-148,-242,86,167
60,-1,-33,55,88,46,-72,-143,24,144
24,-56,-15,-4,37,39,-37,35,86,158
-23,-79,-25,-18,21,64,-19,85,29,98
-78,-83,-25,-21,7,67,-25,-160,-148,-10
-140,-99,-65,-60,-43,-3,-81,-398,-290,-137
-140,-99,-71,-83,-71,-65,-107,-277,-232,-151
-126,-71,-47,-72,-59,-46,-67,-62,-127,-130
-99,-30,-8,-29,-19,1,-31,55,-89,-86
-27,5,27,26,25,19,-59,54,-87,-59
8,36,25,51,43,16,-19,0,-72,-58
29,35,-51,54,36,25,78,-63,-89,-66
26,24,-63,42,42,32,157,-81,-79,-68
53,37,13,18,27,6,123,-20,-10,-36
103,57,20,-15,-12,-42,-25,3,86,30
68,11,0,-21,-10,-81,-110,20,42,9
16,-28,-4,-13,21,-86,-124,85,21,1
9,-46,-16,-30,29,-44,-78,177,50,10
17,-56,-38,-37,27,-12,-12,205,80,15
10,-59,-7,-47,29,37,77,212,135,26
18,-45,10,-28,41,61,39,142,160,57
55,-9,33,-15,20,14,-112,6,186,77
48,33,49,-28,2,-19,-175,-120,208,109
-18,8,3,-50,-23,-22,-63,-136,134,30
-67,-35,-55,-71,-71,-29,139,-63,-9,-100
-87,-44,-69,-68,-90,-23,244,46,-50,-145
-103,-42,-57,-59,-47,-29,235,160,-66,-145
-50,5,0,-25,-11,-13,142,178,-43,-122
41,112,66,36,31,-14,-65,81,0,-46
90,148,76,48,27,-90,-261,5,23,12
32,70,-1,-10,-17,-98,-189,154,83,-24
-25,1,-68,-32,-17,-71,-7,248,125,-47
-40,-24,-43,-43,-17,-24,87,177,137,-27
-36,-13,-45,-53,-19,17,145,199,193,9
3,35,1,-14,7,31,92,212,244,64
106,137,120,64,69,9,-175,-42,147,123
114,160,140,69,56,-30,-290,-85,-23,98
41,93,80,16,4,-45,-185,30,-172,-31
-94,-12,-6,-55,-49,-51,-52,-66,-388,-273
-195,-117,-89,-99,-80,-47,98,-229,-498,-423
-196,-133,-96,-102,-58,16,230,-24,-340,-349
-143,-116,-65,-85,-32,44,228,222,-131,-207
-99,-93,-59,-72,-13,39,168,310,46,-95
-10,-43,-6,-27,12,3,-18,137,175,73
75,19,25,50,55,-4,-199,-164,225,231
74,22,63,92,88,39,-211,-265,66,167
68,22,37,100,94,51,-220,-244,-115,127
60,32,57,86,75,45,-198,-175,-119,172
23,48,37,53,43,44,-145,-380,-198,81
-50,29,-35,9,24,38,-44,-498,-262,-53
-56,35,-8,3,29,29,-24,-369,-219,-129
-15,70,51,50,70,29,-110,-220,-170,-133
-15,57,5,64,76,12,-205,-199,-215,-180
-49,19,-97,58,45,-9,-258,-241,-251,-267
-75,-5,-36,22,16,-44,-243,-185,-199,-282
-71,-29,4,-17,-2,-43,-142,-78,-127,-240
-61,-37,-6,-7,-28,-9,-33,-59,-69,-226
-43,-37,6,-18,-50,15,60,-71,-34,-141
-7,-67,-15,-50,-79,-5,84,-26,81,90
27,-86,-30,-72,-111,-62,-2,35,280,322
64,-61,-15,-84,-120,-73,-25,74,292,319
87,-38,-10,-69,-101,-44,41,186,255,314
103,-41,-27,-50,-74,-24,81,330,305,379
101,-42,-33,-38,-37,14,69,436,373,383
105,-34,-126,-37,-24,47,99,493,371,375
82,-69,-160,-70,-33,52,180,544,346,343
27,-112,-82,-87,-34,101,363,594,364,281
-15,-132,-66,-73,-2,187,535,495,369,208
-4,-142,-82,-68,21,212,520,417,311,144
7,-100,-110,-48,28,194,423,511,279,87
61,-5,7,25,52,134,160,359,144,44
127,107,147,115,86,27,-180,-171,-109,5
21,65,108,82,42,-34,-277,-709,-413,-223
-132,-46,-11,-19,-42,-28,-108,-569,-523,-420
-191,-107,-61,-75,-64,-12,42,-183,-424,-448
-179,-101,-43,-67,-39,32,112,-11,-280,-442
-121,-41,-3,-16,-2,41,50,4,-215,-365
-5,36,47,34,11,-49,-209,-107,-192,-184
114,93,74,69,16,-108,-390,-214,-119,81
128,70,-7,45,2,-61,-330,-282,-115,138
120,34,24,36,-6,-2,-235,-212,-58,159
125,46,35,34,-15,24,-182,-136,74,256
93,18,-6,21,-7,42,-125,-109,65,263
54,-3,24,29,19,26,-108,-72,-31,214
14,-10,36,24,7,-27,-166,-10,-42,156
-5,-8,25,6,-13,-53,-204,18,-2,94
-13,-12,19,2,-45,-93,-217,75,33,47
-14,-18,12,8,-55,-108,-189,128,29,3
-21,-6,17,3,-37,-49,-142,184,46,0
-9,20,17,19,-13,-23,-114,117,120,57
-5,29,-46,31,-11,-19,-87,23,82,49
5,17,-8,28,-8,-16,-31,-37,0,-22
30,31,21,41,-1,-27,-34,-104,-44,-41
13,16,30,55,24,6,-15,-182,-80,-82
-52,-32,-6,32,29,31,51,-118,-97,-140
-109,-95,-80,-11,15,54,152,118,-35,-140
-132,-138,-121,-46,11,118,344,381,113,-55
-139,-170,-148,-82,-28,139,548,674,261,9
-129,-155,-149,-91,-64,110,519,792,297,-8
-36,-76,-88,-56,-69,49,229,573,284,67
84,37,-6,-1,-66,-85,-230,84,201,180
148,123,82,37,-59,-192,-516,-291,32,178
94,120,87,12,-58,-171,-432,-386,-84,69
14,76,32,-37,-56,-107,-214,-362,-74,-3
-34,33,-7,-60,-69,-79,-47,-278,7,-30
-26,6,-17,-46,-56,-77,-10,7,69,-41
8,36,20,-22,-25,-63,-36,51,97,-7
37,82,69,2,4,-18,-50,-155,76,18
18,94,75,15,37,54,20,-301,3,5
33,102,74,51,68,78,52,-342,-72,-4
84,129,90,84,75,31,-57,-278,-130,27
78,120,82,84,68,-17,-147,-322,-218,26
38,81,90,62,31,-41,-152,-369,-255,-19
-9,28,21,23,-7,-64,-146,-474,-235,-50
-11,5,-41,11,-21,-89,-104,-372,-163,-77
-14,-1,-3,11,-10,-30,6,-112,-104,-90
-8,-9,15,26,6,-2,45,21,-58,-57
20,3,26,39,30,8,38,12,-55,-24
12,-5,3,26,39,15,96,-40,-112,-38
-25,-42,-2,10,26,7,123,-64,-112,-26
-47,-89,-44,-25,3,10,120,7,-101,-66
-62,-106,-54,-28,7,36,132,174,-14,-68
-64,-93,-48,-10,29,48,134,238,74,-50
-74,-83,-51,-19,42,81,170,289,68,-87
-68,-66,-98,-5,43,96,201,336,35,-114
-41,-28,-48,15,34,61,152,320,36,-101
-36,-11,18,16,35,35,125,236,36,-74
-60,-20,13,0,38,42,139,14,-119,-158
-107,-56,1,-13,34,22,198,38,-223,-268
-123,-95,-34,-44,7,2,219,288,-93,-214
-83,-125,-70,-83,-33,-11,176,460,167,-19
-28,-135,-84,-87,-52,-27,164,383,276,110
38,-80,-54,-31,-20,-36,167,151,282,150
60,-4,-56,15,13,-25,108,-76,218,146
35,41,-55,23,34,0,94,-369,64,93
-5,35,5,1,9,-1,131,-537,-122,-35
-75,15,4,-35,-31,9,261,-371,-192,-197
-163,-24,-25,-62,-49,44,449,-12,-189,-357
-210,-33,-22,-67,-46,18,424,195,-205,-424
-157,27,53,-15,9,-2,225,88,-207,-393
-82,78,92,9,32,-25,-9,-100,-162,-346
-33,109,81,14,12,-39,-92,-156,-60,-255
-13,116,-45,-3,0,-76,-62,-39,38,-144
38,72,-143,-74,-61,-145,-121,84,123,45
165,68,-84,-88,-97,-187,-281,-35,277,401
256,88,63,-23,-51,-157,-357,-236,308,591
170,49,100,43,30,-38,-200,-211,170,422
80,5,96,74,94,36,-85,-52,63,225
59,-49,-12,35,60,44,-8,127,71,218
4,-127,-106,-41,9,67,198,260,85,202
-82,-198,-121,-93,5,159,521,207,-50,33
-85,-179,-104,-95,28,230,682,213,-104,-60
-57,-122,-60,-53,54,243,622,414,-73,-67
-20,-50,-34,-27,46,178,360,281,-63,-45
0,35,7,-10,35,122,194,-17,-26,-35
-4,70,18,-3,29,77,152,-73,29,-64
-9,63,15,-35,-16,24,123,194,108,-70
46,100,68,5,22,24,25,361,67,-80
165,227,175,135,100,-13,-443,22,-38,-48
182,271,129,143,63,-176,-876,-381,-175,-92
66,175,97,67,-7,-215,-721,-505,-374,-248
-3,78,89,44,-16,-118,-416,-632,-466,-292
43,54,89,71,11,-23,-138,-620,-328,-151
74,45,46,40,-17,1,79,-383,-40,99
81,46,11,-29,-89,-35,137,-46,265,373
90,46,1,-35,-97,-44,94,171,317,429
102,52,-34,-7,-58,-21,0,324,253,364
128,70,2,28,-16,-84,-353,298,207,317
164,107,88,69,8,-223,-872,56,207,309
144,90,115,68,22,-250,-957,-73,219,308
77,29,56,15,4,-170,-623,-65,176,261
39,-4,-1,-34,-22,-92,-327,-10,160,200
0,-36,-28,-45,-24,0,-99,46,94,101
-31,-81,-39,-30,-15,74,75,166,48,2
-8,-77,-24,-10,16,86,69,164,66,14
13,-45,-9,-2,31,73,5,137,88,54
25,-9,-3,3,26,60,21,114,55,49
18,-15,-6,1,25,77,56,97,-20,7
10,-5,-11,-1,14,63,48,47,-24,3
0,3,-7,-6,-3,22,33,18,9,30
-13,-39,-38,-31,-6,13,58,155,-25,-31
-65,-100,-88,-55,-3,48,161,359,-29,-110
-123,-152,-140,-93,-25,82,311,416,-38,-158
-150,-156,-139,-105,-47,93,399,392,-4,-159
-162,-149,-140,-100,-67,91,446,396,52,-138
-128,-103,-114,-54,-34,82,380,351,114,-97
5,33,27,61,63,85,131,187,175,60
158,175,150,173,113,-7,-326,-134,134,166
194,179,110,172,92,-73,-551,-361,49,160
121,109,104,112,56,-79,-489,-353,-36,68
69,49,36,82,24,-94,-459,-175,-48,10
37,26,-16,69,22,-45,-393,-36,-68,-39
-19,1,-41,37,15,-5,-224,62,-100,-101
-23,-22,-11,13,3,1,-114,71,-84,-103
19,-2,20,1,-7,-18,-96,8,-73,-65
26,16,-9,21,14,-2,-78,-50,-88,-67
-4,15,-8,32,26,14,-69,-29,-38,-73
-22,30,45,26,16,7,-103,7,51,-38
-7,51,68,26,10,4,-146,38,66,-18
1,40,10,14,7,8,-138,53,58,-38
-19,-1,-26,-3,-5,7,-76,100,37,-78
-25,1,19,-18,-7,12,-54,133,81,-42
-8,24,37,-17,-10,10,-68,138,136,27
-8,32,22,-16,-18,9,-50,140,86,4
-34,0,-23,-32,-27,17,0,109,-5,-46
-69,-36,-35,-60,-43,29,40,83,0,-63
-93,-72,-47,-69,-39,75,154,69,-21,-83
-146,-131,-106,-89,-59,112,391,254,-54,-144
-150,-146,-124,-78,-39,126,533,653,60,-108
-55,-83,-40,-17,8,106,357,699,239,33
29,-6,34,28,38,52,116,168,237,104
55,38,81,91,77,23,-67,-358,111,78
102,93,121,122,75,-34,-271,-601,53,102
112,106,70,113,76,-26,-258,-582,-42,89
44,52,37,62,82,57,-8,-485,-260,-67
-11,17,29,18,70,60,99,-495,-359,-156
14,57,72,23,43,-36,-78,-581,-323,-107
39,110,100,53,24,-71,-202,-542,-290,-85
24,87,78,64,27,-29,-104,-394,-239,-97
-20,54,46,39,13,0,32,-243,-181,-102
-48,29,17,13,5,27,137,-102,-108,-83
-39,9,-46,5,-12,6,141,-31,-57,-55
-64,-6,-116,-17,-31,-23,144,9,-42,-87
-103,-6,-156,-35,-48,-32,158,44,-68,-139
-127,6,-75,-48,-71,-36,212,84,-8,-143
-146,-28,-27,-76,-91,-68,238,145,9,-159
-133,-64,-52,-78,-93,-77,218,207,35,-152
-119,-70,-50,-74,-72,-74,176,262,67,-158
-105,-73,-35,-49,-66,-87,149,383,136,-86
-40,-58,-26,-31,-67,-78,160,555,203,87
51,-3,-1,-13,-54,-71,160,506,259,239
79,3,-3,-25,-48,-45,197,227,261,284
40,-40,-43,-42,-48,26,269,106,222,246
59,-52,-33,-39,-35,40,265,235,294,256
102,-36,-33,-24,-29,26,228,385,379,294
97,1,-3,12,-11,16,177,214,249,263
37,25,28,41,6,20,168,-282,-67,126
-51,7,25,27,7,26,247,-725,-371,-29
-109,0,35,26,18,47,286,-940,-550,-143
-112,43,69,44,39,59,268,-848,-536,-170
-62,122,65,53,53,45,209,-658,-478,-202
-11,182,70,48,28,13,167,-491,-366,-185
26,197,80,40,-13,-49,94,-422,-315,-160
4,132,-15,-12,-53,-32,163,-282,-280,-177
-49,34,3,-41,-64,21,278,-83,-181,-172
-134,-60,-37,-41,-41,31,314,69,-84,-208
-192,-126,-116,-59,-43,33,380,244,29,-210
-231,-212,-209,-124,-69,35,581,439,72,-252
-200,-191,-154,-122,-74,28,610,395,108,-197
-112,-119,-76,-64,-44,21,411,216,102,-121
5,-29,16,23,47,88,226,199,139,-41
203,170,122,189,157,104,-182,-52,176,129
323,280,161,251,147,-19,-609,-523,109,250
241,184,128,168,61,-95,-597,-533,19,206
172,84,118,100,22,-90,-401,-251,39,164
140,15,76,36,-10,-58,-250,26,127,231
132,-5,14,-5,-44,-71,-201,217,194,332
118,42,-55,-28,-78,-101,-195,210,180,328
55,83,2,-48,-87,-94,-146,-23,39,182
-17,54,9,-69,-82,-92,-103,-160,-34,83
-40,33,6,-68,-74,-57,-59,-52,-20,56
-51,18,20,-56,-63,-49,-21,-2,10,46
-82,-26,-11,-66,-56,-37,23,11,70,31
-98,-86,-42,-74,-55,-43,0,58,117,-15
-55,-105,-44,-53,-54,-66,-37,145,177,22
-2,-105,-39,-35,-55,-52,-55,302,222,61
-12,-110,-22,-17,-20,-19,-65,488,212,9
5,-93,3,31,42,16,-81,420,157,-13
66,-61,41,80,93,45,-16,157,101,30
54,-85,9,46,90,91,128,137,41,11
28,-120,-22,11,63,99,164,298,64,12
27,-103,-11,22,52,95,114,227,68,5
-45,-135,-49,-1,30,90,153,-53,-59,-121
-151,-179,-112,-64,-21,97,259,59,-66,-185
-113,-125,-115,-85,-58,63,221,268,82,-48
6,-20,-57,-60,-61,0,89,251,222,117
118,134,72,0,-15,-30,27,11,259,210
161,222,165,67,42,-22,-35,-238,121,149
123,226,184,100,63,8,-12,-359,-81,16
34,196,168,122,82,27,42,-529,-391,-164
-52,134,120,93,68,17,42,-651,-573,-281
-50,78,85,33,22,-35,-83,-534,-486,-199
20,77,70,24,14,-89,-287,-272,-250,0
45,31,25,46,22,-90,-300,-39,-41,104
-2,-50,-58,50,52,-47,-156,125,73,115
-36,-110,-34,31,50,-15,-55,242,29,14
-45,-126,-55,16,33,0,-7,323,15,-19
-14,-118,-56,11,15,-3,-25,208,25,20
1,-98,-38,12,30,10,-12,23,-19,27
-12,-99,-46,0,34,38,11,-139,-106,-5
-2,-78,-32,-20,43,55,39,-205,-102,6
3,-52,-50,-42,9,49,73,-181,-69,15
-18,-58,-57,-64,-11,38,90,-121,-93,-42
-20,-65,-87,-76,-12,8,68,11,-37,-46
-13,-32,-127,-76,-35,-28,16,71,11,-51
-2,6,-100,-71,-48,-56,-29,90,28,-58
-2,35,-4,-50,-35,-55,-114,12,-11,-65
21,74,81,0,-2,-24,-170,-89,-27,-33
-17,60,75,39,32,32,-73,-106,-51,-54
-81,12,48,36,51,68,85,-101,-88,-97
-65,1,60,28,43,49,96,-131,-110,-133
-26,46,82,12,6,-15,-49,-199,-75,-111
8,67,93,19,-10,-52,-194,-190,-39,-52
10,29,90,31,1,-46,-204,-73,-66,-41
-7,-1,59,20,29,-14,-119,14,-107,-83
-70,-62,-25,-54,-24,9,62,-22,-125,-143
-178,-169,-139,-153,-100,23,325,-59,-53,-173
-180,-241,-214,-203,-129,36,447,167,41,-149
-138,-239,-240,-220,-130,73,528,427,153,-78
-92,-178,-168,-185,-103,76,428,537,229,-39
-9,-43,-43,-97,-74,-23,35,349,224,4
11,49,51,-33,-47,-89,-199,-14,90,-45
27,111,114,36,3,-88,-250,-348,-87,-98
81,145,116,56,14,-111,-296,-269,-52,0
78,93,7,14,-13,-114,-193,-52,2,40
61,48,0,-3,-16,-46,-47,-2,8,56
31,-4,-12,-11,-2,7,98,112,20,49
41,-9,6,14,12,64,142,196,26,42
92,-11,-3,11,-13,22,-2,100,109,183
115,-49,-34,-31,-39,-53,-69,114,227,317
108,-45,-33,-29,-22,0,27,355,319,345
78,-29,-64,-39,-32,35,90,547,382,323
76,-23,-95,-55,-42,19,42,593,374,250
66,2,-9,-6,-21,-22,-92,407,173,120
-8,-20,7,4,-31,-50,-116,181,-83,-28
-73,-68,-39,-30,-66,-65,-73,53,-229,-151
-64,-44,-12,-17,-50,-82,-98,-73,-283,-174
-58,-16,15,20,-22,-56,-113,-106,-233,-145
-59,-1,14,25,3,-36,-104,-80,-153,-119
-30,41,-35,42,33,6,-115,-61,-87,-85
5,66,-87,63,59,57,-61,-141,-34,-44
6,62,-33,70,96,90,91,-255,-69,-59
-68,-4,-64,22,57,121,278,-71,-89,-128
-102,-66,-48,-33,34,145,404,205,-33,-91
-50,-44,-22,-13,41,118,274,232,10,-5
14,-5,-4,17,36,59,18,123,90,91
88,23,55,22,22,-36,-257,-29,215,239
163,79,108,57,23,-129,-553,-308,140,266
143,71,109,53,16,-135,-592,-190,119,209
79,10,67,31,20,-70,-408,270,229,128
44,-20,43,19,21,-35,-317,466,312,91
37,-4,48,26,12,-7,-316,367,266,59
37,17,27,38,22,-10,-289,146,179,31
25,3,-6,14,15,-32,-219,-98,139,63
15,12,45,12,7,0,-117,-377,46,63
-63,-10,25,-6,7,41,20,-478,-158,-106
-153,-72,-43,-49,-23,70,160,-197,-153,-210
-118,-73,-21,-27,5,72,152,162,-37,-144
-25,17,73,70,80,43,-58,113,11,-41
61,126,161,167,137,7,-341,-311,-75,-49
53,153,170,157,126,0,-384,-594,-285,-160
-13,99,103,61,54,-6,-258,-463,-378,-231
0,78,68,32,36,-5,-196,-342,-349,-149
71,102,78,30,29,-17,-215,-312,-196,26
83,78,46,3,16,4,-154,-229,-56,180
-18,-21,-1,-35,3,45,19,-37,-68,105
-130,-125,-62,-74,-25,78,164,224,-46,7
-92,-124,-102,-85,-50,25,117,315,109,83
26,-36,-107,-51,-55,-36,-56,339,378,251
118,52,18,-14,-35,-51,-212,400,595,367
148,99,48,16,-16,-70,-233,569,558,318
184,121,37,66,32,-17,-153,700,426,276
203,153,116,102,60,-29,-255,522,198,215
173,149,86,113,65,-75,-356,-183,-178,97
91,74,-33,79,45,-58,-226,-577,-477,-30
19,-7,-18,27,26,-19,-50,-502,-512,-99
17,-16,16,10,30,-4,-38,-406,-340,-44
44,-8,18,21,27,11,-56,-304,-189,-10
38,-2,27,37,31,44,-30,-340,-166,-28
-6,-4,25,39,35,53,-21,-404,-231,-81
-21,-9,21,34,12,37,-19,-345,-240,-104
-46,-12,18,26,3,38,-7,-246,-194,-139
-79,-23,3,0,2,48,26,-128,-172,-175
-103,-34,-15,-17,-8,36,24,-31,-116,-205
-121,-40,-26,-27,-17,23,-2,16,-82,-243
-120,-40,-25,-33,-24,22,27,68,-71,-261
-102,-42,-36,-48,-24,20,53,99,0,-219
-76,-49,-57,-35,2,32,61,81,67,-143
-37,-51,-37,-18,28,34,48,9,70,-58
9,-39,-29,-17,24,13,9,-74,72,108
33,-24,-37,-34,-10,-34,-27,-36,137,244
35,9,-22,-37,-21,-62,-21,65,220,298
18,27,-1,-19,-5,-6,67,148,188,225
-1,6,-41,-26,-9,30,149,166,94,87
-30,-10,-99,-43,-28,14,194,110,22,-17
-71,-43,-47,-52,-43,35,349,99,-2,-82
-90,-69,-62,-49,-24,94,517,76,-17,-118
-104,-48,-46,-31,9,132,524,43,-7,-123
-90,-2,-26,0,16,94,372,54,52,-75
-28,38,-27,8,16,15,116,79,71,-45
-4,19,2,-1,-2,-4,85,176,67,-27
-8,-22,-13,-26,-22,-24,109,228,70,-31
7,-52,-21,-35,-26,-43,118,259,99,-24
60,-25,-18,7,-13,-62,86,204,138,41
90,-10,-12,38,0,-43,80,196,149,76
86,12,-1,47,0,-31,0,42,88,77
80,29,38,51,15,-28,-65,-211,36,82
55,14,29,53,12,-51,-117,-321,-59,19
48,-1,6,31,-11,-89,-152,-261,-19,24
56,9,16,34,1,-66,-125,-182,29,40
76,56,66,69,45,-27,-95,-204,23,60
79,73,69,66,36,-36,-98,-151,18,54
28,25,26,1,-14,-68,-27,-35,2,0
-29,-38,-67,-65,-51,-39,98,30,3,-38
-73,-55,-82,-98,-16,-12,123,104,41,-42
-80,-34,-45,-76,21,2,76,54,-23,-109
-75,-7,-13,-63,-1,19,59,-93,-112,-159
-95,-6,-5,-56,-38,12,52,-184,-138,-180
-96,-7,-12,-47,-39,0,48,-206,-131,-170
-77,-7,-6,-50,-35,9,63,-144,-130,-148
-51,-9,-24,-53,-30,14,81,-57,-86,-129
-30,-16,-22,-42,-33,-19,28,-36,-42,-91
5,-16,1,-12,-31,-58,-20,-16,-4,-36
32,6,30,11,-18,-42,-29,40,65,23
72,55,62,22,-30,-42,-76,37,138,47
91,66,64,22,-26,-43,-85,50,170,64
16,4,-3,-14,-24,27,86,235,185,29
-38,-48,-60,-67,-42,62,250,454,208,12
-58,-70,-70,-95,-72,60,351,495,232,48
-81,-68,-50,-94,-70,71,419,349,152,22
-61,-36,-9,-63,-45,51,285,-52,-50,-80
-9,27,45,-9,-14,18,77,-273,-130,-66
46,87,86,40,8,-5,-130,-334,-131,-10
55,101,84,40,13,-11,-235,-239,-70,25
18,75,74,32,8,-15,-211,-44,-64,-10
21,77,81,39,0,-15,-210,-41,-120,-83
12,60,65,44,15,14,-134,-200,-199,-135
-15,18,-1,56,46,54,-13,-287,-282,-186
-42,10,-43,73,67,81,48,-266,-294,-192
-77,24,6,54,65,107,104,-230,-329,-190
-67,45,-1,-12,20,82,152,-192,-247,-76
-70,25,-53,-71,-25,45,215,-103,-149,4
-74,-1,-140,-88,-53,21,204,-13,-106,-38
-37,1,-65,-58,-36,20,111,151,-58,-48
23,39,36,13,16,-12,-179,156,-32,-36
59,82,93,90,64,-53,-423,4,-70,-58
50,63,98,107,85,-44,-426,-78,-86,-72
36,11,2,70,77,-24,-292,-19,-6,-28
38,-59,-42,12,25,-12,-142,35,109,69
36,-94,-44,-62,-26,31,154,150,211,190
13,-136,-131,-107,-41,158,498,499,345,249
-26,-150,-169,-116,-30,208,621,794,475,335
-44,-151,-157,-125,-50,184,607,999,477,368
-16,-107,-175,-91,-32,146,472,850,339,291
73,24,5,5,10,10,-118,46,80,226
152,138,148,94,30,-162,-822,-564,-108,162
105,115,110,81,16,-206,-885,-435,-152,33
50,76,1,45,14,-152,-638,-137,-101,-46
62,92,30,47,0,-137,-548,95,30,2
75,95,107,37,-11,-138,-491,217,116,50
114,128,159,96,35,-100,-429,-106,80,62
78,107,167,155,101,11,-312,-761,-207,-17
12,28,106,129,107,108,-117,-908,-370,-13
23,4,74,99,85,130,-33,-570,-283,54
12,2,56,70,58,83,-47,-217,-136,57
29,9,52,58,36,38,-120,-60,34,99
65,21,41,29,4,-10,-215,-9,140,178
55,18,21,2,-24,-23,-219,4,82,114
-9,-33,-26,-27,-62,-32,-116,98,-31,22
-84,-92,-90,-83,-91,-38,36,348,-35,-24
-99,-105,-112,-87,-90,-38,68,525,21,-38
-65,-85,-83,-59,-68,-41,24,575,97,-32
-34,-47,-48,-36,-42,-37,-4,474,121,-28
0,-14,-18,-14,-11,-26,-29,209,177,26
47,23,21,26,48,15,-51,-291,170,89
68,34,14,62,99,92,67,-594,5,18
36,7,17,51,94,109,211,-373,-47,-33
20,9,35,50,77,107,202,90,22,-12
92,96,118,109,103,66,-94,147,26,89
103,99,133,100,96,7,-241,-18,-45,83
11,36,43,15,24,-24,-111,-199,-184,-43
-48,-4,-14,-28,-26,-37,-26,-237,-239,-120
-107,-49,-62,-57,-61,-49,-7,-94,-252,-181
-171,-87,-86,-76,-76,-30,66,56,-242,-238
-158,-94,-94,-76,-64,-3,140,167,-122,-228
-116,-103,-115,-64,-38,12,149,292,-8,-166
-80,-86,-87,-49,-24,-10,99,443,63,-85
-33,-32,-26,-54,-34,-74,28,475,110,0
46,6,5,-43,-19,-104,-43,370,228,148
107,59,60,11,-1,-108,-105,197,270,236
115,120,96,53,15,-116,-177,-110,98,148
70,113,20,44,17,-66,-111,-165,-12,49
17,58,4,3,9,-27,25,-29,-25,-23
-1,15,20,1,2,-16,109,109,3,-45
-12,-13,14,5,6,-6,135,198,27,-49
33,-10,3,8,12,-19,67,125,129,40
69,28,10,25,19,-34,33,-120,170,124
12,-22,-23,11,15,3,167,-236,24,13
-58,-86,-67,-15,27,69,312,-98,-30,-74
-71,-111,-95,-36,16,98,337,171,-1,-85
-98,-125,-112,-58,-25,89,364,231,-13,-101
-131,-144,-124,-70,-49,62,411,-17,-75,-133
-116,-137,-109,-89,-49,25,356,-139,-89,-141
-73,-71,-50,-71,-37,16,308,-46,-44,-104
-46,-20,-57,-39,-19,16,278,9,-32,-81
-18,2,4,-37,-12,0,193,82,-38,-56
-27,10,38,-40,-7,9,175,186,-24,-53
-41,8,29,-23,-2,19,124,80,-18,-37
-69,-9,10,-37,-30,-35,7,-276,-90,-60
-99,-9,-8,-48,-55,-59,-4,-305,-119,-105
-78,1,7,-26,-45,-45,15,-164,-86,-102
-57,-5,17,-22,-55,-72,-4,-165,-44,-73
-68,-33,18,-18,-60,-65,49,-105,-102,-162
-42,-27,16,-8,-32,0,121,-26,-81,-128
38,24,55,29,-4,13,35,-64,-4,-5
93,68,64,58,12,15,-66,-82,34,62
34,18,-24,45,9,55,20,24,36,10
-6,-37,-18,31,1,60,104,97,44,-28
0,-38,-10,3,-23,26,44,79,137,40
-11,-51,-19,-27,-48,-16,-20,40,145,67
-34,-57,-56,-27,-34,-35,-11,27,88,38
-26,-39,-64,-11,-19,-47,-2,-17,47,18
-13,-36,-16,12,-14,-39,-4,-20,0,0
-27,-8,10,46,10,-25,-12,-69,-66,-59
-46,9,26,63,22,-17,10,-7,-89,-90
-34,5,31,60,19,-18,56,211,0,19
-6,2,20,50,5,-19,47,257,92,93
-30,-28,-72,9,-21,-20,53,110,55,20
-73,-69,-110,-53,-58,-45,103,34,44,-32
-93,-110,-126,-114,-86,-31,230,134,57,-17
-138,-171,-160,-175,-92,51,505,321,76,-40
-138,-190,-184,-199,-96,116,648,383,83,-47
-126,-177,-184,-189,-124,129,580,410,104,-29
-52,-98,-96,-132,-111,80,308,422,270,78
134,77,58,5,-59,-11,-122,281,391,251
245,227,198,125,21,-58,-348,141,283,242
232,290,233,142,68,-59,-338,53,134,105
188,287,219,145,76,-24,-287,-225,-66,-27
151,265,221,176,114,18,-260,-645,-260,-100
107,187,181,135,91,-4,-230,-606,-237,-90
90,115,117,70,37,-60,-206,-370,-167,-12
68,88,119,65,16,-62,-181,-390,-230,-17
4,55,91,33,12,-45,-146,-409,-310,-104
-29,25,43,-5,-16,-40,-58,-246,-250,-103
-4,37,24,-26,-25,-26,5,40,-132,-26
24,70,33,-28,-21,-25,-46,116,-68,33
11,69,15,-25,-33,-33,-43,96,-45,40
13,42,4,-7,-43,-41,-99,-13,-21,78
35,38,18,17,-22,-38,-220,-210,72,198
33,14,16,24,2,-30,-220,-338,58,235
19,-35,-11,25,31,25,-121,-371,-38,165
39,-63,-18,27,47,59,-66,-342,-36,173
32,-70,-33,14,49,54,-18,-164,31,216
33,-74,-20,26,68,45,-9,18,70,211
15,-66,-12,54,82,41,-43,144,65,122
-13,-53,4,54,104,56,-38,145,48,80
-39,-67,-5,26,92,65,-27,-30,-21,15
-52,-73,-29,-4,45,45,-28,-174,-90,-74
-36,-42,-13,2,37,31,-29,-69,-17,-51
-7,-2,7,10,35,5,-49,43,30,-24
-17,-24,-21,-18,16,0,21,186,48,-20
-40,-61,-65,-47,-3,16,122,296,71,8
-38,-65,-49,-36,-6,35,141,277,72,34
-25,-31,-32,-14,-18,16,-16,125,25,70
-11,-12,-46,-33,-47,9,-68,116,61,129
-9,-17,-49,-39,-36,54,37,270,136,120
7,11,-23,-8,18,104,201,258,123,45
14,34,16,34,68,156,300,145,124,-16
-4,25,19,40,73,144,202,0,95,-47
-24,0,-10,23,35,80,19,20,64,-42
0,9,-18,0,-15,-6,-112,236,156,43
30,30,-17,-16,-34,-75,-227,379,236,130
44,43,-2,-4,-28,-158,-455,125,50,56
-2,-5,-32,-21,-50,-156,-331,-281,-140,-69
-104,-121,-137,-93,-92,-75,65,-104,-107,-141
-106,-158,-170,-112,-86,-26,174,264,63,-87
-20,-110,-95,-73,-54,-9,160,524,223,8
100,13,19,46,43,48,50,496,312,111
210,169,163,211,187,95,-176,-169,126,165
223,206,124,235,193,45,-315,-651,-88,98
155,147,31,120,54,-89,-375,-574,-74,45
113,106,93,62,-5,-144,-369,-519,-85,13
61,115,133,83,37,-68,-213,-574,-267,-98
-13,89,107,60,35,-45,-98,-567,-439,-220
-31,73,68,33,-1,-49,-54,-274,-377,-214
-8,63,65,37,-14,-56,-43,39,-236,-145
-14,50,66,37,-22,-65,-58,-2,-183,-115
-61,73,32,-8,-61,-105,-43,-100,-197,-169
-73,113,19,-53,-107,-157,-34,-107,-176,-190
-31,144,47,-63,-118,-173,-35,-173,-169,-177
-32,107,48,-44,-90,-123,11,-156,-184,-178
-29,53,0,-19,-51,-54,2,-74,-162,-131
25,22,0,13,-19,-21,-55,-28,-107,-28
57,-7,35,35,4,-9,-87,-104,-8,83
-10,-85,-12,22,1,9,-11,-166,5,57
-57,-172,-91,-1,-10,30,71,-52,9,6
-30,-184,-104,-15,-9,38,73,16,25,24
-49,-170,-97,-44,-32,29,109,49,37,23
-88,-178,-114,-86,-78,21,180,89,59,-5
-129,-207,-138,-119,-105,18,258,153,64,-55
-182,-211,-154,-124,-94,31,319,222,85,-84
-177,-190,-144,-122,-70,44,357,359,167,-60
-109,-132,-106,-84,-48,63,338,453,257,5
-17,-49,-40,-9,-4,76,203,375,288,82
56,8,17,44,34,37,24,183,208,107
53,38,50,83,60,29,-57,7,58,34
34,48,73,98,77,39,-83,-117,-34,-34
22,33,56,78,123,53,-91,-91,-27,-35
42,33,24,41,129,46,-50,12,83,25
70,73,22,46,86,30,-67,15,24,14
65,94,29,28,46,-7,-88,14,-37,-19
35,82,8,1,32,-34,-76,-11,-4,-10
-1,69,-70,0,29,-10,-72,-112,-72,-84
-63,25,-29,-7,29,24,-21,-201,-169,-193
-80,-5,-12,-13,25,29,0,-170,-163,-196
-74,-6,-7,-3,39,25,30,-72,-53,-122
-89,-22,-18,-15,32,19,82,0,-19,-143
-103,-41,-25,-22,27,20,78,31,-29,-194
-118,-37,-6,-9,35,21,33,33,-12,-208
-120,-56,-62,-20,35,10,9,59,-18,-178
-87,-64,-57,-23,7,-13,16,102,55,1
-7,-29,3,-10,3,-14,26,118,152,211
27,-13,-8,-17,12,-6,56,80,125,236
-13,-13,-9,-20,11,-1,96,11,9,135
-43,-7,5,-3,6,21,184,-6,-44,70
-41,-4,19,-1,-9,38,250,24,-4,54
-61,-11,7,-17,-39,44,265,133,49,39
-36,24,12,-20,-41,11,170,176,89,48
28,87,38,7,-25,-41,-59,27,85,93
67,102,23,27,-6,-43,-160,-120,37,115
91,102,60,30,7,-74,-239,-266,30,163
87,93,66,-1,-17,-128,-352,-288,33,190
52,58,56,-24,-16,-128,-276,-110,-16,88
47,51,36,-48,-37,-102,-130,77,-9,37
45,36,9,-92,-80,-94,-38,107,-8,19
37,2,-2,-105,-93,-66,3,89,27,16
34,-43,-25,-82,-64,-8,74,112,80,15
-54,-99,-37,-72,-28,47,194,179,87,-34
-106,-113,-34,-67,-14,60,210,296,115,-56
-64,-85,-30,-61,-15,22,120,487,154,-51
3,-23,8,-29,19,20,40,596,133,-35
-15,-15,17,0,55,44,17,354,-51,-134
-92,-63,-23,-12,45,55,71,76,-189,-230
-71,-61,-46,3,40,52,83,-80,-127,-168
-32,-64,-28,40,63,61,92,-60,4,-90
27,-4,34,91,105,90,43,-132,95,8
91,61,16,145,158,115,-20,-372,46,79
102,21,15,106,139,138,30,-390,52,128
94,-36,12,60,91,144,103,-274,114,228
81,-49,-1,62,90,130,73,-195,91,261
71,-47,13,48,74,87,19,-92,111,235
51,-54,-6,-5,5,33,58,34,166,205
27,-42,-53,-36,-30,31,134,160,225,152
15,-16,-93,-68,-68,27,163,381,329,168
30,7,-82,-98,-96,-5,89,651,369,148
52,26,-143,-85,-79,-30,-22,639,186,45
12,22,-108,-60,-62,-34,-20,252,-116,-60
-76,-40,-106,-96,-100,-50,129,-34,-281,-173
-101,-43,-139,-118,-105,-74,36,-40,-237,-176
23,35,26,-54,-79,-169,-300,-197,-189,-35
188,137,148,29,-35,-195,-527,-360,-83,189
277,214,230,101,26,-157,-682,-508,12,329
228,197,204,127,71,-83,-589,-577,10,267
185,169,218,142,105,15,-364,-723,-169,128
110,112,163,105,86,82,-144,-610,-243,11
4,15,62,34,31,111,49,-286,-156,-58
-50,-45,13,-14,-11,92,117,22,-46,-85
-1,-24,37,-2,-19,18,-53,158,53,-8
54,17,55,0,-26,-50,-256,208,153,103
44,9,33,-21,-59,-98,-329,282,120,86
27,-14,24,-8,-39,-71,-274,201,4,9
19,-20,15,3,-5,-9,-205,-74,-79,-15
42,8,-18,35,20,29,-146,-410,-114,74
39,71,70,74,45,75,-104,-567,-211,59
61,106,127,72,49,58,-124,-457,-220,24
39,93,124,52,15,16,-129,-295,-119,20
-25,36,74,17,-23,-20,-34,-121,-113,-68
-45,25,5,35,3,23,115,-29,-149,-128
-47,16,6,54,58,91,236,16,-141,-127
-35,10,72,73,88,127,281,49,-91,-101
-1,32,104,97,122,138,184,35,-46,-57
-12,23,72,78,88,122,76,-5,-46,-66
-97,-82,-79,-33,8,101,317,80,-30,-96
-171,-186,-186,-130,-45,134,598,231,7,-104
-169,-192,-150,-126,-52,146,615,296,18,-128
-123,-110,-81,-90,-40,95,402,289,63,-108
-17,24,40,-7,-8,-12,-42,197,133,0
76,131,118,61,-3,-109,-414,112,178,89
103,163,137,66,-28,-192,-615,-33,159,107
122,166,127,64,-32,-197,-612,-93,152,93
102,151,107,49,-9,-143,-473,-92,147,91
35,96,71,32,3,-64,-282,61,91,49
-8,42,47,29,25,-2,-168,180,-34,-51
1,35,53,33,32,16,-150,193,-71,-86
-13,2,38,21,17,-3,-114,32,-126,-120
-102,-97,-39,0,1,14,6,-101,-190,-186
-147,-131,-89,-14,16,57,106,-32,-157,-219
-124,-106,-143,-25,5,55,90,-3,-106,-183
-111,-101,-117,-38,-4,34,53,88,-58,-135
-117,-119,-91,-24,-1,25,25,289,-18,-169
-70,-91,-68,-21,-25,-3,-86,247,75,-56
-5,-66,-59,-44,-61,-59,-203,154,171,154
20,-47,-60,-56,-72,-77,-182,305,234,239
68,-7,-21,-26,-47,-46,-87,439,242,245
129,103,49,24,5,8,-23,125,107,218
78,164,64,49,8,30,14,-440,-212,25
-15,107,9,24,-16,6,31,-639,-412,-136
-23,38,-28,-15,-27,-2,79,-394,-321,-125
3,-7,-42,-32,-29,-4,90,-173,-158,-56
0,-46,-55,-32,-36,5,112,-36,-49,-34
-20,-76,-41,-40,-46,8,114,-40,-26,-57
-67,-111,-52,-55,-58,14,100,-77,-73,-112
-123,-131,-55,-74,-53,42,197,9,-58,-138
-128,-103,-87,-80,-58,64,427,158,52,-85
-93,-79,-59,-70,-56,67,522,236,86,-62
-74,-61,-50,-58,-40,80,471,229,79,-75
-70,-68,-115,-40,-16,82,339,203,105,-58
-42,-36,-56,-16,4,52,158,141,136,-23
-16,-2,-13,-24,-5,-18,-27,123,170,8
-14,-37,-69,-30,-15,-60,-145,181,212,52
0,-52,-65,-9,-8,-65,-178,182,225,115
29,-41,-130,21,8,-28,-66,199,170,118
42,0,-66,63,43,11,8,223,97,72
42,53,57,90,61,0,-54,135,28,34
30,64,81,84,62,-14,-81,-46,-28,-4
-29,25,55,56,35,-16,-29,-248,-111,-86
-58,-48,-1,-1,5,-4,48,-197,-170,-142
-44,-77,-49,-42,-49,-4,85,67,-83,-101
-20,-60,-22,-51,-72,-22,32,265,64,33
13,-39,-21,-49,-64,-37,-22,360,69,57
13,-44,-18,-53,-58,-39,18,352,76,30
34,-28,11,-31,-40,-22,56,171,83,27
81,17,44,22,0,25,87,-91,54,66
71,36,43,31,-5,39,136,-105,30,42
46,27,21,1,-17,53,200,63,78,10
38,21,10,1,6,85,222,51,112,36
-8,5,6,-7,21,108,315,-49,-5,-46
-43,21,-22,7,28,113,388,-63,-144,-166
0,75,26,46,38,44,201,-184,-183,-179
76,129,91,68,20,-63,-118,-364,-167,-89
130,163,105,81,10,-135,-343,-394,-158,-26
169,211,170,108,26,-169,-500,-442,-173,-22
112,175,160,77,13,-170,-416,-384,-171,-93
29,93,101,45,1,-116,-225,-307,-201,-172
-36,19,50,14,0,-65,-81,-220,-153,-158
-51,-28,18,10,1,-39,-43,-110,14,-19
-30,-26,17,11,14,-41,-87,-101,58,56
10,-18,15,-4,29,-55,-109,-27,51,80
31,-20,26,-10,54,-4,-32,108,68,181
36,-48,-16,-20,58,39,50,175,79,291
24,-94,-73,-43,39,50,92,301,144,352
-35,-135,-95,-80,20,59,132,246,157,257
-66,-146,-112,-105,0,36,114,132,114,138
-76,-136,-157,-111,-34,36,144,105,131,86
-85,-149,-268,-121,-57,69,191,79,213,104
-42,-121,-261,-88,-49,75,177,36,340,219
35,-30,-136,-7,16,78,119,23,341,249
59,40,-36,47,48,59,64,-50,224,188
65,66,66,51,28,-6,-51,-39,129,152
60,57,94,33,9,-44,-74,73,35,86
42,56,96,25,22,-36,20,-51,-80,6
34,71,114,46,26,-47,18,-458,-259,-80
-1,49,79,38,35,-22,34,-498,-342,-148
-8,30,22,21,30,-17,-1,-344,-276,-139
15,34,11,17,23,6,0,-227,-165,-76
18,23,-63,16,32,41,72,-109,-75,-19
36,38,4,41,38,21,68,-64,-65,-10
0,24,65,31,33,26,153,19,-110,-73
-24,-21,38,12,16,20,208,105,-110,-105
4,-4,-16,16,7,-14,134,1,-79,-76
32,8,-4,8,-5,-48,56,-160,-61,-63
23,0,9,-21,-9,-41,82,-231,-26,-85
-16,-16,11,-42,-14,-11,169,-118,8,-79
-38,-19,7,-50,-20,14,201,20,26,-83
-47,-2,26,-38,-26,-4,177,49,7,-69
-47,2,48,-27,-14,-35,60,-14,-19,-73
-54,-1,31,-54,-18,-18,47,-19,-7,-106
-47,12,7,-52,-20,-25,-16,21,14,-100
-28,14,6,-31,-3,-30,-53,54,34,-73
-2,2,34,11,32,5,-29,38,27,-49
-18,-30,-4,-9,28,37,57,20,49,-50
-99,-108,-96,-75,-8,84,232,143,-20,-144
-141,-127,-94,-98,-35,87,264,309,-48,-216
-144,-118,-79,-111,-58,39,209,442,-20,-228
-84,-85,-56,-107,-72,-4,140,464,71,-124
-25,-44,-46,-78,-76,-20,122,384,132,-31
-34,-23,-46,-61,-64,5,193,306,90,-46
-22,38,-44,19,0,51,137,115,9,-48
59,104,53,101,88,104,-20,-83,73,77
123,113,95,130,108,95,-198,-87,181,186
158,111,124,142,115,48,-312,8,218,190
189,118,149,129,73,-50,-490,34,161,173
185,119,43,78,0,-148,-550,19,78,228
194,107,33,41,-20,-122,-438,-24,76,318
148,73,102,49,5,-26,-279,-306,-56,222
34,51,101,48,32,48,-97,-556,-245,8
-23,68,91,24,24,32,-57,-502,-261,-87
-63,39,51,-8,0,17,-18,-249,-161,-97
-90,-3,9,-48,-9,30,40,-85,-67,-98
-105,-55,-21,-68,-15,43,93,40,-12,-94
-109,-89,-58,-62,-19,64,131,128,5,-70
-106,-93,-51,-40,-4,53,81,150,39,-54
-56,-63,-29,-16,10,54,51,190,135,0
1,-5,1,23,17,35,-38,159,169,37
38,20,33,58,42,29,-117,21,96,9
66,30,43,83,63,-7,-205,-153,40,14
68,30,38,96,81,14,-181,-170,-2,-4
33,-20,-4,61,60,60,-41,-14,6,-32
39,-29,-18,44,37,62,13,98,68,-1
88,11,12,47,26,-22,-124,89,109,65
101,29,8,31,9,-44,-164,111,199,141
91,33,8,34,5,-28,-135,95,255,183
67,22,5,29,-2,-12,-82,-1,127,127
-5,-27,-20,-7,-20,39,137,-84,-84,-35
-57,-61,-34,-30,-47,67,293,-29,-115,-94
-76,-91,-62,-51,-55,74,280,91,-41,-80
-91,-132,-89,-72,-67,73,250,181,-12,-56
-114,-142,-95,-80,-94,11,168,232,-49,-56
-99,-100,-84,-73,-116,-39,7,222,-28,-67
-64,-57,-77,-44,-78,-63,-168,104,-27,-82
-81,-28,-117,-18,-37,-62,-214,-33,-90,-129
-106,-37,-37,3,41,-43,-164,-86,-38,-132
-73,-44,30,22,94,-47,-173,-75,-68,-92
-21,63,1,44,51,-34,-100,41,-75,-119
-9,130,-42,55,26,-39,-95,76,-161,-176
-33,154,29,38,20,-44,-94,86,-192,-194
-52,116,40,0,-14,-43,-76,38,-228,-206
-67,31,-34,-71,-69,-35,-7,-10,-199,-146
-100,-74,-104,-133,-118,-6,182,31,-170,-90
-108,-126,-119,-128,-108,34,402,116,-126,-10
-82,-130,-104,-120,-104,42,439,277,-41,43
-29,-92,-40,-86,-85,-13,220,258,73,103
65,-36,68,5,-7,-27,-123,68,306,283
148,20,21,58,28,-50,-404,-70,266,359
137,47,-5,55,24,-36,-354,-114,51,262
59,24,59,30,7,-24,-158,-148,-118,117
18,7,67,32,19,-8,-47,-84,-110,86
43,11,64,37,28,4,-17,134,-28,92
71,28,93,51,51,-9,-121,155,8,111
38,-6,83,52,47,-4,-150,154,-12,60
0,-26,51,26,13,1,-106,48,-44,-11
20,-1,68,28,6,-12,-127,-226,-120,-35
11,23,58,15,-18,-30,-71,-404,-209,-105
-10,41,42,-9,-34,-29,3,-399,-267,-167
-30,28,17,-17,-53,-45,14,-329,-235,-187
-78,-19,-21,-49,-72,-21,113,-170,-227,-234
-128,-58,-54,-60,-77,2,199,-2,-219,-269
-122,-51,-88,-59,-83,6,175,79,-73,-158
-79,-26,-85,-39,-65,18,105,94,89,-52
-79,-38,-28,-31,-42,26,102,168,91,-138
-64,-21,-47,-14,-20,8,33,195,89,-152
-24,-10,-89,7,8,26,10,93,142,-64
12,-4,-2,28,38,58,-3,-148,145,21
53,-6,27,-4,25,48,0,-281,147,156
94,5,-13,-25,1,36,29,-245,192,295
85,45,-79,5,16,62,7,-186,217,320
79,92,7,49,43,34,-100,-121,143,217
110,125,131,103,90,18,-143,8,183,143
109,116,145,129,109,40,-117,98,173,88
114,100,130,118,84,18,-125,213,182,109
137,62,85,77,29,-42,-164,269,173,198
119,17,52,32,-8,-45,-122,147,89,207
84,15,37,25,-6,-11,-78,8,46,210
1,-8,-63,13,-5,7,-3,-206,-44,117
-75,-57,-88,-10,-16,24,78,-339,-201,-87
-50,-13,21,-2,-8,45,7,-293,-174,-143
-27,27,74,24,10,39,-100,-264,-142,-160
-17,52,79,20,6,10,-136,-228,-114,-176
-8,80,72,14,5,-18,-131,-196,-34,-171
0,96,24,23,8,-22,-114,-161,-5,-162
14,84,-7,23,-5,-39,-138,-167,-17,-116
18,16,-50,-22,-29,-46,-70,-62,2,18
-22,-54,-48,-70,-45,-18,156,116,-36,53
-126,-164,-136,-149,-98,21,487,428,-66,-50
-225,-294,-253,-248,-175,35,695,916,76,-108
-241,-311,-251,-236,-182,46,733,1288,216,-88
-164,-226,-173,-152,-131,25,510,1323,255,-9
-65,-119,-65,-45,-55,-12,167,991,325,114
72,-5,33,37,9,-44,-166,475,302,218
230,140,189,181,153,-15,-440,-373,54,295
278,233,312,308,292,78,-486,-1368,-334,201
178,171,256,280,294,139,-348,-1596,-512,19
87,89,138,174,209,83,-270,-1062,-365,-23
11,-2,-9,67,110,31,-158,-483,-169,-38
-17,-43,-68,28,61,4,-108,-207,-60,-27
-8,-4,23,23,31,-3,-155,-104,95,51
11,26,81,51,44,0,-210,-139,135,78
22,39,99,66,53,2,-256,-233,47,26
7,25,59,22,19,-24,-228,-196,-61,-16
12,21,44,-3,1,-20,-129,-123,-67,-34
30,19,47,4,14,-12,-57,-89,-66,-48
38,22,42,-1,-2,-37,-78,-72,-69,-47
32,16,10,-26,-28,-52,-113,-51,-24,-14
11,-3,-66,-47,-27,-38,-91,16,45,15
-20,-34,-87,-52,-21,-7,-46,104,28,-35
-58,-93,-63,-59,-30,14,31,186,-34,-75
-67,-117,-82,-69,-35,29,141,237,-2,-79
-30,-82,-52,-46,-13,39,137,174,52,-77
-7,-52,-64,-3,9,53,65,43,49,-74
-27,-46,-161,-9,7,50,124,46,20,-112
-41,-13,-81,-18,-27,7,116,169,60,-109
-36,36,-9,-31,-39,-22,23,263,100,-101
-13,91,12,-49,-52,-39,22,373,112,-100
21,149,70,-26,-45,-39,8,364,78,-77
58,173,77,1,-34,-41,-33,188,11,-29
54,141,46,29,-35,-31,9,-191,-83,-50
-11,54,45,7,-56,-28,132,-357,-192,-118
-32,4,19,-23,-75,-16,183,-128,-147,-100
-18,-16,-9,-27,-42,40,242,201,-26,-51
7,-30,-26,-33,-20,58,228,316,55,-7
37,-5,-7,-16,-9,67,193,255,69,19
52,33,30,2,-1,35,-19,23,5,33
42,16,24,6,-11,-44,-228,-181,-67,35
36,-11,10,9,-2,-33,-207,-147,-67,15
24,-39,-2,13,28,21,-155,-17,-53,16
24,-34,-35,13,39,6,-291,63,16,66
34,-23,-73,-1,19,-48,-401,207,109,124
35,-75,-55,-32,-9,-48,-320,321,138,117
28,-113,-67,-49,-35,-36,-187,385,137,110
29,-115,-74,-55,-62,-43,-155,448,177,128
52,-33,-39,-57,-79,-111,-233,344,162,149
101,111,1,-45,-78,-131,-296,-4,93,120
68,178,50,-24,-55,-89,-186,-297,-62,0
-24,138,60,-19,-41,-50,-38,-401,-214,-123
-52,100,64,-15,-38,-35,3,-302,-248,-164
-59,62,45,-15,-42,-25,26,-176,-241,-210
-69,32,37,-18,-36,-13,75,-74,-209,-225
-66,15,34,-28,-28,2,104,8,-153,-195
-59,-16,9,-27,-15,18,115,82,-119,-171
-56,-58,-7,-24,2,44,139,139,-37,-110
-73,-71,-13,-10,17,65,154,170,39,-71
-95,-86,-32,28,36,66,129,45,5,-100
-75,-70,-15,31,46,71,76,-163,-27,-51
-47,-82,-13,18,43,63,62,-231,-42,-13
-27,-85,-20,0,20,38,98,-36,12,0
-23,-66,-15,16,25,39,149,155,81,0
-14,-48,-42,36,39,42,165,230,100,0
-16,-44,-80,23,36,53,168,190,183,39
-3,-51,-53,-13,22,47,161,155,239,102
36,-30,-59,-34,0,5,125,132,169,120
58,-11,-37,-25,-2,-11,127,155,47,100
57,27,33,19,23,-8,129,77,-28,33
12,26,54,32,39,-2,128,-128,-122,-95
-52,-43,7,-34,10,20,213,-136,-144,-191
-27,-26,21,-24,10,18,210,1,-75,-143
29,37,70,16,34,8,65,-22,-17,-79
49,55,59,20,26,-24,-29,-84,27,-21
78,49,42,1,-3,-57,-89,-170,46,73
70,22,-15,-47,-26,-57,-37,-156,9,126
13,-36,-140,-83,-77,-63,95,-135,-42,114
-4,-80,-193,-104,-69,-19,272,-101,-2,225
3,-96,-244,-92,-48,33,352,-23,59,322
20,-69,-180,-88,-50,49,322,230,165,337
37,-32,-49,-57,-38,-7,136,416,246,283
75,31,22,-3,-10,-64,-68,479,282,265
91,53,45,18,9,-89,-149,520,282,258
50,17,-4,-13,-33,-119,-96,634,250,208
13,-25,-61,-70,-96,-134,-15,637,274,186
-15,-32,-40,-59,-70,-94,39,241,94,107
-88,-68,-45,-53,-38,-29,154,-44,-119,-1
-103,-92,-72,-78,-24,22,229,188,79,37
-18,-44,-29,-55,-10,3,117,456,343,150
95,61,96,57,81,40,-39,143,265,149
46,103,146,151,167,150,-41,-515,-167,-76
-16,93,123,177,174,197,34,-864,-421,-229
28,125,144,195,166,142,-17,-804,-379,-170
57,130,177,180,152,94,-43,-725,-274,-64
71,133,72,158,111,32,-110,-818,-235,53
21,91,-9,98,55,-28,-132,-807,-217,73
-9,44,-18,62,35,-27,-82,-616,-159,-10
11,36,23,69,44,-1,-16,-359,-98,-26
27,19,66,61,40,4,41,-182,-31,-9
19,-9,49,52,12,5,79,-101,-9,29
7,-27,23,26,10,6,112,-81,1,58
-5,-33,-4,-12,-19,-6,159,-29,16,70
-12,-46,15,-38,-55,-39,144,36,10,61
-35,-26,-34,-47,-78,-84,11,48,-46,-19
-33,0,-11,-50,-95,-135,-118,46,-44,-48
-34,-9,22,-53,-112,-154,-133,56,-28,-73
-44,-19,23,-71,-120,-121,-84,53,-48,-110
-63,-22,19,-76,-100,-65,-35,89,-7,-111
-54,-22,8,-69,-83,-36,31,189,111,-80
-19,-8,18,-52,-48,-5,113,343,204,-11
-1,-25,19,-21,-4,29,148,445,151,10
23,-24,38,25,35,51,177,462,105,-3
77,23,94,55,67,31,108,200,48,-10
83,35,93,53,67,3,11,-329,-178,-50
19,-13,33,2,20,8,53,-444,-335,-119
-11,-23,5,-19,-2,30,38,-101,-278,-85
38,10,11,-1,0,33,-27,95,-82,27
51,19,18,0,17,31,-36,124,77,64
43,18,33,6,29,16,-35,82,48,14
99,52,73,37,41,4,-68,-19,53,9
148,96,115,67,30,-57,-223,-127,132,75
88,63,93,27,-9,-104,-222,105,168,65
