-13,-11,11,-12,-1,3,-1,12,-9,37
29,23,12,-7,10,13,11,-1,53,24
21,-3,-11,-22,-3,-7,-21,15,-56,15
-26,2,4,7,2,6,9,-9,65,-8
-32,-22,-8,-10,-22,-19,-44,-23,-56,-40
-23,4,12,17,-7,10,13,-12,25,-33
-8,-9,0,0,-9,-11,-24,-5,-83,-27
-18,7,17,10,11,5,8,-2,42,-11
-26,-13,4,-18,-9,-32,-49,-15,-70,1
-24,-7,12,-1,0,-11,27,16,78,17
-21,-49,-18,-18,-6,-25,18,43,-26,10
-17,-20,5,12,21,18,79,47,69,5
-6,-37,-1,4,23,29,40,9,-72,-22
-11,-2,14,24,40,62,38,-38,32,-19
6,-3,-6,2,16,-2,-78,-40,-64,15
38,36,23,9,0,-13,-99,-19,114,76
26,0,5,-14,-14,-48,-92,-35,1,46
6,-3,10,7,1,-5,-35,-42,42,-5
0,-26,-14,-12,-17,-5,-83,-19,-118,-14
-2,4,-8,-4,-7,23,38,27,3,-6
-5,-11,-19,-18,-13,6,51,40,-81,-9
1,13,-1,-3,7,35,66,71,67,-5
10,-16,-27,-23,-7,6,-25,62,-38,-26
13,16,-5,7,-4,12,24,37,162,-11
30,26,5,9,-1,-16,34,13,55,31
13,37,28,21,12,6,95,-55,-12,33
-35,-23,0,-16,-8,-20,39,-73,-160,3
-66,-37,-16,-26,-15,-9,-13,-68,113,42
-58,-69,-31,-39,-13,-15,-159,-84,87,13
-8,5,28,25,29,21,-65,-54,80,-79
29,11,34,13,15,-27,-44,-17,-136,-72
37,43,38,36,17,-14,14,2,-21,-18
22,9,-3,7,-9,-15,-18,10,-117,-8
-6,5,5,19,-3,14,48,27,38,1
-32,-44,-4,5,8,0,25,28,-79,-11
-31,-16,5,12,8,21,53,27,50,-1
-12,-24,-9,-13,-17,-5,2,9,-55,-6
-3,17,5,0,-6,10,37,10,51,-8
0,1,-11,-42,-12,-23,-20,32,-55,2
1,26,-2,-21,-15,13,22,49,62,17
7,2,-22,-28,-15,-8,-21,19,-77,1
42,26,-9,-10,2,14,34,11,43,0
13,6,-14,-16,-5,-29,-13,4,-29,18
-25,23,23,25,18,9,21,-17,157,24
-11,-7,3,8,11,7,-17,-7,17,19
64,29,22,24,23,25,22,-13,9,3
129,18,2,-7,4,-5,-21,-11,-93,1
58,17,2,0,-8,-10,20,26,41,5
-43,-28,-18,-30,-23,-25,-3,50,-73,-13
-88,-4,4,-2,-5,12,40,36,67,-21
-68,-32,-36,-33,-27,-20,-25,20,0,3
-15,9,-9,19,-6,10,8,-25,68,6
11,6,0,25,10,3,-22,-56,-104,-11
-7,28,23,29,21,27,41,-13,13,-14
-40,-3,-4,-5,-4,-11,1,27,-83,-24
8,10,-11,-13,-15,-11,20,22,36,6
61,-8,-23,-37,-28,-25,-33,21,-89,23
17,24,25,12,-5,-5,-17,-8,8,-23
-9,4,19,-11,-13,-42,-93,-70,-40,-40
2,28,32,10,2,-13,-39,-65,157,4
13,11,24,36,31,-2,-43,-68,-87,44
-6,23,36,48,53,44,53,-39,-17,56
3,-24,-9,5,34,21,34,24,20,46
59,-15,-9,12,19,24,58,38,148,16
-1,-34,-40,-35,-34,-26,-21,25,-121,-52
-37,-5,-22,-31,-33,-13,10,26,-47,-18
-55,-47,-40,-43,-40,-13,-39,21,-27,22
-52,-31,-25,0,-5,44,20,36,216,-6
-10,-29,-12,1,18,33,-2,30,74,-19
35,17,29,20,28,48,60,29,92,-28
27,-2,21,-5,-15,7,46,2,-113,-33
-3,4,13,1,-19,-10,75,-2,159,9
-18,-27,-21,-29,-31,-70,-55,-57,85,16
2,13,0,-15,-20,-57,-124,-74,79,32
13,3,-6,-19,-18,-46,-121,-2,-145,26
20,35,24,18,9,23,8,69,-42,33
17,15,13,9,10,21,-20,30,-122,14
-10,16,34,57,34,36,20,-24,-14,1
-26,-14,7,26,28,9,-5,-58,-134,-21
-24,13,14,19,12,8,23,-39,46,-19
-26,-14,-3,-7,-2,-15,-5,-7,-61,-8
-6,19,10,15,17,13,50,-5,27,1
35,2,-13,1,0,-4,1,-19,-104,-7
77,16,9,10,5,17,29,7,35,-12
101,-2,-11,-26,0,-8,-13,31,-44,17
47,10,-19,-23,-3,-1,17,36,81,52
0,-25,-30,-44,-15,-29,-33,12,-49,38
-20,7,2,7,7,9,15,-5,61,9
-45,0,-1,26,22,13,-15,-25,-76,-70
-26,34,24,63,36,42,43,-4,92,-36
4,4,7,7,10,-1,0,31,-30,-21
5,20,19,-3,6,-2,36,27,46,-25
-6,-18,-3,-16,-9,-28,-21,-9,-78,-16
-14,-2,0,-10,-14,13,25,-2,47,9
-3,-14,-30,-36,-30,-15,-24,-2,-52,32
-4,16,-6,-12,-22,3,21,2,97,51
-18,-8,-4,-15,-17,-24,-20,3,-53,9
-36,-8,-8,-7,1,6,62,35,75,0
-45,-58,-56,-43,-15,-10,61,102,-22,-9
-39,-33,-29,-22,-5,16,94,98,61,-36
-25,-41,-11,-14,-5,-9,-24,28,-86,-36
-1,7,25,34,17,9,-26,-2,46,4
16,5,32,35,2,-20,-50,-35,-65,10
19,26,46,49,29,20,49,-41,51,15
32,7,24,29,47,12,-27,-84,-64,0
45,40,38,49,38,-3,-90,-96,70,16
23,-6,0,0,-13,-21,-65,-6,-36,17
-10,0,0,3,-8,14,45,24,48,-10
-16,-10,0,-3,-17,-22,-18,-14,-102,-24
-1,33,33,28,18,4,-23,-39,20,-16
0,-2,10,-12,-1,-24,-76,-3,-14,22
-19,0,17,7,-11,-15,-8,38,153,44
-37,-16,-21,-12,-6,0,-1,-7,-14,9
-59,14,-11,0,18,62,75,-48,-5,-41
-40,-3,-10,-20,3,12,-4,-58,-155,-40
1,37,21,11,0,-15,-11,-54,-2,-3
-10,17,12,18,3,-32,-53,-18,-72,-5
-18,9,26,35,41,25,39,42,68,-17
51,-37,-15,-19,3,14,10,62,-47,7
137,-29,-51,-66,-38,-6,24,31,41,53
98,-64,-75,-76,-60,-39,-20,10,-60,41
-57,-38,-29,-5,-9,19,62,46,116,25
-55,-48,-7,-4,1,18,36,41,15,6
69,9,21,14,-7,13,34,-5,38,-29
110,24,2,-5,-37,-36,-52,-43,-148,-41
23,73,11,11,-20,-5,-12,-37,-44,-27
-16,80,-7,10,4,-10,-19,-36,-120,-7
-20,68,10,27,10,14,22,-27,135,43
0,1,-3,4,0,-2,-32,-11,198,52
60,10,8,17,23,22,26,-1,192,47
36,-24,-22,-7,4,-5,-3,8,-90,21
-48,12,-2,7,7,19,50,50,42,-3
-76,-7,-14,-9,-4,-6,7,49,-86,-60
-73,4,-7,5,26,23,32,21,-3,-63
-70,-41,-18,-22,16,-3,-10,-9,-114,-42
-63,-36,1,-12,5,16,34,-21,29,-15
-35,-62,-10,-23,-13,-13,-18,-11,-43,12
-42,-25,1,5,-2,2,11,2,77,15
-61,-29,-19,-13,-3,-8,-40,10,-60,4
-23,1,-2,-13,-3,8,-7,7,54,22
98,-38,-21,-25,-27,-33,-48,-4,-46,37
182,3,-5,4,-16,-6,8,-6,69,20
93,23,-12,15,-24,-17,-18,1,-68,-9
19,101,22,29,0,8,23,19,52,-2
-35,86,23,3,-8,-3,-17,20,-55,4
-56,60,38,17,0,28,24,0,53,-5
-55,-35,4,-19,-6,-18,-35,-25,-65,-29
-28,-25,4,2,5,-6,8,-25,46,-35
10,-42,-10,-8,2,-18,-34,0,-77,-8
84,0,-6,-11,-6,6,5,29,69,23
114,-19,-27,-48,-16,-24,-12,19,-12,32
46,1,5,-10,-1,0,35,-3,74,16
-22,-17,3,6,-3,-15,-16,-3,-85,-13
-59,13,30,39,20,13,21,-11,21,-30
-75,-1,12,16,17,5,-14,-55,-131,-33
-63,26,19,22,14,25,19,-68,-35,-11
-32,-6,-17,-18,-6,-10,-10,-15,-115,11
-27,7,-20,0,-4,-3,51,50,16,0
-17,-3,-30,-29,-33,-39,-12,58,-80,-35
-7,22,-6,-10,-30,-29,-7,30,125,-42
14,3,9,-2,-9,-26,-81,20,22,4
28,36,41,35,46,32,-1,28,51,49
-4,-26,-12,-6,17,0,-16,27,-72,56
-66,-48,-12,2,10,30,53,1,189,57
-33,-36,5,14,23,44,41,-104,150,37
20,17,28,32,21,59,27,-114,172,11
34,-9,11,7,9,19,-69,-9,-30,5
18,-34,13,15,28,16,23,16,35,-4
10,-57,-20,-31,-10,-21,65,53,-115,-9
13,13,-9,-20,-26,-25,118,41,-32,-21
14,41,-3,-11,-45,-58,0,-17,-150,-45
23,92,33,13,0,-26,-123,-38,-10,-17
22,16,6,-11,5,-33,-197,3,-74,8
1,-35,3,8,17,6,-14,63,49,9
-10,-56,-23,-8,-21,-21,55,32,-88,-25
-26,-26,-13,-10,-21,4,103,-10,32,-2
-17,-38,-52,-49,-25,-28,-50,-11,-13,27
3,22,-33,-23,-13,0,-90,14,135,8
7,37,-23,-6,-13,12,-72,37,-84,-39
16,67,13,18,4,43,81,51,10,-3
23,11,7,5,-5,14,84,53,-42,43
37,8,40,50,8,12,104,102,185,94
40,-24,25,32,6,-36,0,24,85,63
-3,-41,3,11,-15,-28,-98,-122,80,-28
-23,-84,-38,-18,-15,-30,-214,-163,-145,-59
-24,-37,-14,14,20,13,8,-74,-45,-47
-6,-15,-14,-19,-37,-16,151,0,-136,-36
5,23,23,-21,-23,19,162,-3,0,-10
6,5,26,-16,9,23,35,-2,-116,25
8,30,54,37,46,47,50,-8,-43,12
-36,-12,22,35,44,30,-1,-69,-192,-78
-71,-5,0,39,35,46,45,41,99,-50
-51,-32,-32,-21,-11,4,-5,143,32,-32
-7,10,-21,-21,-35,-26,-54,102,35,-5
53,1,-32,-42,-51,-86,-120,8,-66,59
85,32,0,8,-15,-7,40,36,209,101
62,16,23,42,24,20,48,10,30,48
16,49,48,65,57,25,-27,-164,-53,-21
-12,9,19,15,7,-8,-138,-143,-141,-18
-35,15,36,22,16,39,-9,11,175,20
-68,-19,12,9,21,44,15,43,10,9
-80,-14,-7,0,9,51,69,45,89,-1
-43,-45,-31,-26,-3,-3,11,59,134,20
7,13,-8,-17,-10,-6,20,50,259,6
30,19,-11,-49,-28,-30,-18,43,6,-6
45,43,-8,-32,-20,-17,18,12,-19,0
74,7,-28,-24,-17,-28,-31,-4,-179,0
76,36,2,24,12,23,27,-33,-45,-11
49,4,3,12,12,12,-27,-66,-132,-8
19,23,38,55,36,36,0,-83,-36,-10
5,0,21,29,9,-13,-47,-57,-133,-1
-2,19,7,11,-3,0,15,-7,9,21
-18,-12,-20,-20,-6,-22,3,-6,-83,9
-30,1,4,-12,-10,-10,33,9,64,1
-64,-15,-9,-30,-16,-26,-21,13,-14,-7
-73,9,3,-2,6,13,27,31,56,-57
-63,-22,-25,-35,-18,-16,-22,25,-160,-127
-47,-9,-23,2,-13,-2,13,14,-44,-73
-53,-45,-28,5,3,-12,-1,31,-59,24
-29,0,7,16,14,22,42,32,130,62
105,-22,-5,-15,-21,-11,-4,49,138,111
170,0,15,0,-16,-13,33,57,329,131
50,-10,19,-4,13,-15,-27,9,25,22
-23,0,33,23,49,23,7,-29,-36,-57
-46,-33,-13,-12,15,18,0,-31,-153,-54
-50,-3,-22,3,1,25,40,-9,22,-7
-23,-3,-27,-21,-13,-26,-18,3,-68,9
-43,9,2,0,1,4,21,-1,-7,-24
-79,-40,-18,-22,-16,-20,-46,-25,-123,-51
-87,-32,-1,0,-23,-21,-12,-11,45,-35
33,-26,-9,-12,-27,-22,15,-3,-46,-18
153,8,14,4,1,28,134,-1,88,2
116,-11,16,-5,9,24,46,5,-1,8
63,22,28,30,17,26,-11,6,31,31
43,10,15,33,15,-1,-131,-4,-110,18
78,36,36,44,37,-2,-209,-7,44,24
3,-3,2,6,18,10,-186,-5,-83,-7
-67,-14,-15,0,13,43,53,-7,-8,-34
-89,-39,-40,-33,-21,-14,65,-43,-96,-33
-41,24,-3,-4,-23,-31,-1,-68,67,6
22,11,-9,-16,-5,-44,-57,-64,6,33
30,34,14,7,37,37,-29,-17,166,54
12,18,15,23,48,39,-58,4,-21,3
-4,20,26,30,11,22,25,44,62,-25
-31,-14,-11,-29,-41,-15,48,76,-76,-27
-42,9,-7,-13,-25,26,130,78,14,-29
-52,-44,-58,-56,-56,-22,54,38,-43,-26
-39,-38,-38,-23,-38,1,75,-11,110,-5
-6,-34,-2,-21,-14,-32,-16,-48,45,35
7,9,30,0,6,0,25,-14,171,36
-7,-13,-17,-24,3,-1,18,13,-57,-7
-43,7,-11,-5,28,35,63,-15,-55,-54
-39,-5,-12,3,21,-10,-3,-11,-161,-51
-20,21,8,34,17,0,12,60,74,10
-6,2,-5,6,-5,-8,-16,98,66,48
9,29,12,18,6,12,-16,-20,36,0
57,20,2,-8,12,-34,-126,-113,-195,14
107,36,9,-9,7,-22,-90,15,-57,71
32,-22,-42,-57,-21,-14,-19,126,-169,21
-72,-42,-38,-27,-8,28,117,138,-37,-68
-84,-53,-14,0,10,39,115,91,-19,-86
-37,31,29,39,24,27,226,-31,252,-23
-14,10,8,1,-12,-42,260,-102,0,-68
-6,38,24,23,14,107,322,-161,-95,-59
24,50,46,48,45,95,-66,-315,-387,-58
36,66,68,53,34,-22,-332,-233,-237,-46
6,-16,-7,-16,-28,-64,-302,0,28,39
27,14,-14,-16,-36,-56,-166,119,516,138
89,34,1,6,-10,-86,-218,103,475,185
102,74,60,45,15,-116,-281,73,476,192
102,76,75,58,8,-154,-281,67,50,126
68,84,63,53,7,-56,-134,-35,-169,7
2,-5,-13,-15,-8,-10,-89,-41,-338,-66
-64,-16,-17,-14,-2,59,96,68,-19,-96
-71,-28,-19,-17,-10,71,150,97,25,-96
-43,-24,-16,-4,4,84,207,63,145,-26
-40,-97,-63,-64,-33,12,74,-1,-15,10
-38,-60,-48,-32,-7,23,66,-24,178,44
-6,-9,-15,14,26,26,60,-22,5,17
0,43,62,64,41,57,121,-84,-96,-53
-14,5,40,34,38,31,64,-137,-296,-79
-26,-2,4,10,16,38,79,-66,-166,-62
-24,-45,-53,-37,-42,-16,10,26,-312,-46
-22,-4,-27,-32,-42,-24,10,64,-169,-31
-34,-5,-21,-34,-22,-37,-57,39,-207,-29
-38,29,4,16,41,38,11,16,-50,-15
-42,-22,-26,-9,9,19,25,37,117,16
-27,-13,-14,4,-13,13,73,89,726,93
9,5,20,23,18,13,58,63,488,76
22,34,49,44,26,37,88,4,216,14
15,-23,-18,-14,-17,-12,-17,-28,-160,-46
9,-26,-30,-12,-18,-2,-8,-33,-197,-37
22,-38,-30,-8,-7,-7,-50,-20,-323,-42
29,14,5,11,0,7,10,29,-127,-29
20,-9,3,-19,-21,-22,4,87,-104,-8
20,-11,3,-24,-25,-11,66,114,61,13
21,-47,-22,-41,-43,-28,6,33,-272,-61
-3,-28,-23,-21,-42,-5,13,-22,-386,-134
-41,-67,-58,-67,-75,-57,-59,-37,-277,-70
-29,-22,-13,-20,-36,-32,-35,-79,145,27
-53,-36,-29,-14,12,9,0,-107,-22,24
-183,-163,-157,-112,-56,32,157,115,373,19
-233,-285,-279,-224,-160,-45,107,311,752,10
-136,-170,-170,-150,-120,-63,176,429,1041,11
5,-24,-39,-48,-64,-44,126,497,300,30
91,90,51,59,15,4,-32,460,-182,26
71,43,24,19,2,3,-61,386,-326,-2
114,123,112,85,74,98,166,158,-108,56
302,312,309,280,254,157,109,-614,-278,173
377,419,427,392,330,164,-53,-1338,-324,193
263,271,283,253,192,2,-423,-1137,-433,112
82,94,97,88,46,-96,-625,-587,-231,31
-9,-10,4,15,34,-74,-670,-350,-263,-10
-92,-30,-25,-5,15,-52,-387,-233,-43,-54
-163,-136,-124,-123,-98,-97,-11,67,42,-64
-98,-84,-106,-97,-95,-35,282,430,311,14
25,-66,-67,-60,-66,-19,271,515,-33,-22
3,-31,-14,-11,-10,19,253,295,-232,-79
-42,-59,-16,-25,6,23,187,203,-349,-68
0,15,37,30,37,49,156,130,-16,0
78,51,59,27,20,-2,-3,-4,110,58
41,23,31,27,18,13,-26,11,322,43
-33,-86,-68,-52,-30,-19,-53,181,455,71
-23,-45,-60,-64,-42,-3,57,178,549,132
-22,-35,-55,-59,-43,-9,50,7,80,62
-21,-9,-28,-13,0,28,111,-97,74,-26
0,-29,-23,-1,15,21,79,-194,-188,-139
-33,27,40,74,43,44,53,-340,-327,-187
-44,-19,28,35,27,18,-32,-184,-478,-120
-36,-43,-8,-2,3,20,9,136,-128,-45
-31,-71,-53,-57,-25,-29,-33,233,-71,-14
-32,-21,-27,-43,-28,-26,36,159,30,0
-25,-43,-36,-61,-65,-60,-29,15,92,9
-21,3,-35,-43,-56,-13,6,-1,509,36
-8,19,-45,-55,-47,-17,-6,34,226,49
4,77,-1,-11,-13,0,9,45,57,25
-33,-5,-18,-3,19,-22,-69,54,-190,-70
-111,-115,-62,-36,-15,6,140,197,-67,-112
-126,-175,-112,-93,-60,8,330,378,-139,-108
-90,-105,-81,-62,-46,34,358,333,-54,-94
-73,-101,-88,-85,-72,-21,157,82,-202,-72
-5,1,-23,-12,-18,-10,14,-123,-111,-19
81,55,16,5,0,-52,-339,-232,-208,10
79,90,20,-21,-29,-110,-452,-246,77,68
50,105,11,-7,-6,-62,-382,-180,204,115
86,190,125,139,117,134,-101,120,393,156
93,127,136,153,139,148,170,396,207,149
71,72,93,97,89,57,432,245,108,64
91,44,78,44,15,-54,364,-33,-212,27
87,73,107,60,1,-90,69,-482,-77,58
10,20,67,39,7,-31,-323,-845,-3,11
-70,-34,13,19,31,74,-555,-401,199,-21
-93,-91,-72,-66,-42,-36,-460,399,-62,-70
-101,-91,-114,-127,-125,-102,-61,779,-134,-125
-36,-78,-103,-121,-121,-126,155,577,-270,-105
79,59,34,32,22,-55,106,115,-52,-21
101,87,88,114,114,22,-153,-441,-167,8
101,121,120,159,152,116,-248,-1028,-204,56
68,36,74,96,93,79,-284,-860,-257,117
-6,0,18,46,53,72,-74,-50,204,160
-27,-29,-37,-21,-4,25,91,385,150,104
-27,10,-4,-12,-6,92,452,416,198,34
-11,-17,-16,-9,9,74,381,221,66,-68
63,16,9,-1,-10,-37,58,34,140,-89
76,-7,-3,-30,-54,-129,-139,-161,-85,-29
-20,-36,-42,-50,-68,-94,-111,-180,-87,-25
-90,-104,-93,-105,-92,-95,-144,12,-65,-1
-101,-59,-47,-47,-43,-2,84,115,209,-29
-95,-53,-32,-21,-17,41,248,102,331,12
12,30,48,76,67,159,380,166,682,149
54,46,81,111,112,172,122,106,96,34
2,30,39,62,54,30,-167,-37,-231,-42
-60,-38,-36,-37,-19,-76,-184,-39,-300,-7
-60,-25,-31,-40,-20,-32,39,98,36,11
-50,-64,-64,-62,-43,-43,63,163,-116,-82
-73,-78,-76,-71,-49,-24,185,208,-150,-140
-71,-81,-88,-84,-64,-35,109,218,-268,-112
-41,-29,-40,-58,-60,20,91,180,-106,-78
-47,-66,-42,-65,-38,8,90,126,-168,-85
-29,-9,-15,-13,13,23,157,47,216,-19
53,38,39,38,47,29,-53,-100,179,114
85,76,100,93,86,62,-207,-319,60,165
45,14,30,2,-5,-49,-201,-405,-254,62
36,37,40,3,-46,-130,-188,-238,-95,-17
66,37,52,0,-52,-188,-356,-11,-25,0
82,73,74,25,-25,-121,-349,36,318,55
54,25,37,18,13,-13,-171,-34,138,65
5,14,14,25,40,90,157,-26,91,32
0,-4,-4,8,35,87,192,-62,-147,7
3,22,25,60,83,144,230,-102,-133,-18
-53,-32,-28,8,48,87,112,79,-235,-61
-113,-62,-65,-46,-29,0,69,313,-55,-102
-84,-61,-74,-80,-74,-83,-3,292,-149,-88
-13,4,-23,-39,-48,-36,71,172,-6,-23
-23,-61,-68,-78,-79,-37,110,141,-54,-54
-24,-46,-42,-64,-65,-21,164,31,161,-38
1,-3,-9,-32,-44,-44,-82,-188,-30,21
65,42,39,26,1,0,-233,-255,58,98
56,-8,4,0,-4,-26,-93,-67,65,104
-19,-12,-3,19,11,86,285,189,355,32
-15,-9,3,25,27,107,217,50,132,-42
-76,-56,-52,-34,-34,39,176,-33,-111,-162
-189,-204,-184,-153,-107,0,136,330,-246,-192
-197,-171,-149,-128,-67,28,43,407,-44,-138
-102,-69,-81,-88,-85,-113,-224,185,-110,-89
50,76,23,-1,-58,-139,-176,188,251,90
235,196,184,162,137,51,1,194,232,207
319,321,320,305,274,173,-129,-90,113,198
265,263,266,246,178,75,-316,-423,-366,143
129,153,131,112,27,46,193,-449,-478,15
14,44,41,44,28,100,722,-535,-759,-163
-56,-11,-17,29,53,70,647,-611,-445,-126
-58,-114,-127,-129,-121,-155,-60,-167,-24,-2
-53,-126,-153,-178,-195,-151,-417,119,303,19
-7,-90,-101,-121,-149,-153,-669,34,235,52
149,140,117,115,62,-105,-889,-194,498,272
201,227,247,276,283,49,-868,-498,523,326
31,141,184,233,288,217,-293,-507,502,118
-81,-12,56,73,107,122,227,-198,50,-31
-154,-115,-87,-72,-91,-11,326,88,113,27
-176,-166,-150,-153,-148,-56,362,377,113,-35
-195,-173,-187,-192,-178,-115,470,592,-122,-216
-225,-250,-250,-238,-210,-156,326,1062,-250,-303
-180,-203,-205,-156,-88,25,233,1339,460,-186
-174,-237,-214,-168,-62,15,121,849,329,-135
-147,-188,-182,-136,-50,21,311,250,108,-91
-8,-55,-58,-1,54,119,276,-256,-161,5
136,157,155,177,201,252,11,-957,-364,43
249,242,211,163,90,99,-416,-1627,-582,81
409,409,326,179,-36,-179,-767,-1317,-9,307
446,445,390,255,69,-142,-403,47,132,452
216,245,246,186,86,-20,43,563,198,259
-69,-79,-60,-74,-88,-122,222,387,-67,-105
-168,-154,-150,-133,-113,-54,327,219,-60,-258
-120,-138,-125,-103,-67,-5,170,256,-192,-182
-78,-75,-65,-20,29,76,118,-63,-123,-100
37,1,24,46,49,-15,-263,-9,-341,-35
111,95,90,75,31,-78,-498,597,-179,38
81,67,59,56,58,23,-189,475,-266,31
-33,-8,-8,18,86,219,439,-261,-132,-112
-141,-162,-153,-109,-21,121,273,-781,-138,-201
-45,-71,-82,-51,-26,-28,-68,-809,72,-92
105,59,40,49,36,-91,-234,-575,-129,72
139,137,104,90,62,-52,-146,-144,-250,134
81,40,36,5,-2,-132,-218,215,-557,29
-95,-111,-110,-163,-163,-225,-249,270,-117,29
-121,-157,-156,-189,-187,-165,-77,263,417,192
-74,-23,-19,-33,-21,51,251,447,672,210
-153,-81,-26,-7,50,96,168,358,402,-32
-249,-164,-105,-25,65,149,272,282,995,-60
-210,-138,-89,0,90,233,509,478,1280,69
-40,34,28,107,130,254,521,187,689,62
36,52,32,69,60,78,173,-460,-548,-95
-4,15,13,10,-2,-2,154,-600,-636,-170
21,0,15,0,-7,-2,175,-326,-198,-70
57,48,44,38,9,1,34,-26,101,-19
49,29,9,-16,-61,-132,-321,43,-211,-26
-36,-33,-70,-95,-148,-181,-250,396,22,-40
-163,-171,-200,-218,-218,-146,18,989,13,-171
-240,-208,-258,-293,-282,-171,191,1600,97,-252
-183,-219,-257,-289,-257,-102,422,1543,-50,-178
15,-29,-49,-67,-71,87,444,487,-31,-7
218,180,176,171,175,216,-49,-737,-236,180
373,390,406,401,398,302,-318,-1770,-130,314
297,316,357,350,338,73,-854,-2589,-391,209
171,187,225,225,187,-74,-1396,-2064,-92,139
64,32,50,60,34,-234,-1309,-390,41,76
-135,-127,-119,-80,-102,-299,-391,509,-230,-182
-270,-241,-213,-148,-90,-132,141,633,-575,-352
-155,-120,-146,-115,-61,-56,589,934,-218,-216
57,10,-12,-61,-110,-124,396,693,153,34
24,-16,-36,-67,-127,84,625,145,799,118
-174,-236,-265,-230,-200,193,1248,267,516,-30
-374,-387,-413,-305,-142,667,2771,1046,15,-229
-178,-169,-137,-57,118,848,2689,860,-496,-141
95,178,239,285,359,529,995,-268,-488,-19
154,240,289,297,294,-97,-645,-1033,-383,7
262,322,305,227,84,-691,-2209,-1160,159,209
458,411,384,271,44,-863,-3799,-1123,222,458
522,477,430,326,111,-724,-3774,-688,298,491
220,196,152,80,-4,-287,-1360,605,58,169
-39,-38,-83,-134,-133,181,678,1600,276,-19
-128,-182,-191,-248,-233,87,722,849,223,-59
-336,-352,-333,-351,-345,-60,603,53,191,-223
-327,-365,-345,-317,-300,-75,867,473,41,-216
-121,-86,-99,-35,21,125,741,123,116,-99
79,91,84,139,184,183,141,-893,-187,24
124,124,121,144,186,264,134,-1148,-285,62
162,139,173,198,282,512,775,-704,-579,51
205,214,230,269,294,351,946,-306,-706,6
-60,-65,-61,-28,-4,47,984,497,-623,-154
-190,-182,-205,-190,-191,-60,608,627,-147,-148
-177,-187,-206,-207,-248,-308,-338,593,-12,-96
-63,-18,-44,-82,-158,-398,-813,484,464,47
89,123,154,149,141,-110,-879,-120,652,170
113,161,212,259,341,177,-775,-990,494,88
-65,-92,-61,-21,69,101,-88,-806,90,-145
-150,-209,-233,-226,-209,20,666,-31,71,-231
-139,-190,-229,-202,-203,48,493,425,-498,-201
-63,-40,-70,-52,-98,6,72,641,-671,-187
26,17,-21,-36,-109,-173,-112,768,-389,-28
19,60,51,71,97,139,417,365,98,52
32,83,122,145,218,131,9,-156,329,132
-30,16,43,25,-9,-240,-568,-303,911,242
-19,-34,-21,-44,-84,-269,-346,-305,1045,339
-79,-40,-2,28,79,-20,-458,-838,538,49
-17,0,37,24,41,-104,-823,-165,-155,-120
231,239,217,135,0,-201,-1208,871,-84,118
384,328,261,100,-112,-297,-836,448,-199,295
303,282,241,119,-17,166,916,-598,-249,206
165,174,237,267,360,729,1565,-1003,-599,0
3,15,81,145,262,301,685,-792,-378,-107
-258,-283,-235,-189,-88,-126,-134,-30,-342,-252
-434,-455,-451,-413,-333,-201,77,1748,180,-291
-493,-553,-554,-539,-483,-309,145,1890,433,-300
-285,-325,-342,-337,-327,-204,-71,618,653,-111
-92,-113,-134,-103,-82,-3,-148,-244,180,-65
35,94,84,161,249,414,424,-474,-193,-81
393,408,436,448,497,531,616,-1279,-503,215
581,586,591,478,354,144,214,-1150,-219,489
502,478,455,300,83,-324,-346,-375,-43,460
210,248,263,178,74,-171,-356,-501,70,127
-333,-284,-202,-116,55,239,-26,-949,-375,-393
-458,-438,-388,-314,-183,110,244,-658,-385,-458
-341,-361,-369,-341,-315,22,853,489,-329,-322
-266,-239,-256,-188,-144,266,1683,1300,-79,-288
-97,-127,-133,-47,31,159,630,1313,10,-108
6,-26,-35,24,126,74,-213,1035,334,90
-23,-68,-85,-66,11,-262,-1193,584,264,122
9,20,-41,-56,-93,-496,-2137,233,454,242
200,166,112,-18,-206,-642,-1788,-534,431,405
249,269,205,52,-167,-300,281,-429,188,172
410,436,406,319,149,-109,-272,147,-117,167
404,451,438,397,299,30,-893,-347,17,230
116,79,97,69,60,145,115,-742,-245,-4
-117,-113,-71,-55,47,404,724,-748,-379,-203
-232,-200,-107,-15,220,661,257,-594,-695,-324
-161,-134,-78,11,137,186,13,413,-294,-107
-106,-189,-175,-175,-213,-567,5,2092,401,136
-268,-338,-390,-417,-459,-575,512,2022,823,-79
-277,-362,-485,-528,-579,-559,428,82,480,-271
-198,-243,-362,-362,-429,-298,248,-1414,50,-249
-80,-100,-34,11,37,528,644,-1554,-578,-111
21,104,267,369,489,1251,1225,-1252,-988,0
-133,5,150,360,652,1222,1304,-227,-801,-92
121,201,246,363,550,474,225,0,211,116
506,441,363,205,55,-379,-284,31,350,362
457,420,318,145,-54,-498,-764,354,538,317
222,173,127,61,-41,-642,-2650,188,588,124
-58,-119,-150,-164,-222,-620,-1740,427,162,-103
-5,-48,-90,-89,-123,-258,79,-28,-417,-10
-23,37,33,70,80,168,205,-310,-325,53
-45,3,44,105,180,362,833,340,-130,53
104,86,101,136,198,351,1548,-205,703,213
132,30,0,-39,-54,76,1145,-341,805,242
-114,-170,-231,-273,-368,-239,173,727,270,-54
-388,-427,-462,-458,-562,-582,-719,1139,-87,-301
-295,-293,-333,-310,-412,-627,-1138,533,274,-162
-158,-120,-97,-11,26,-96,-1264,-225,125,-40
146,247,261,332,390,114,-775,-46,-37,105
295,335,346,386,487,539,924,-946,-827,50
95,161,183,221,315,605,1425,-1328,-962,-205
-178,-193,-198,-227,-196,185,652,325,-466,-270
-188,-188,-212,-265,-305,-19,441,507,69,-252
-134,-119,-90,-122,-162,-353,-233,-234,-161,-267
17,34,47,-24,-118,-447,-195,28,-135,-42
193,182,201,154,110,56,-475,-66,92,356
212,200,251,256,306,355,-885,55,788,627
-5,-28,0,24,89,215,407,398,662,273
-260,-256,-231,-169,-81,152,1291,-15,545,-186
-273,-291,-247,-161,-50,-133,-87,68,239,-320
-67,-88,-127,-103,-80,-571,-1609,873,126,-162
270,222,152,78,-46,-621,-1949,920,-346,160
383,421,394,325,161,105,-236,84,-507,267
287,299,284,178,126,744,1875,-923,-497,224
149,190,182,120,76,593,1858,-1162,22,113
-5,46,118,120,174,61,135,-1094,-147,-144
-34,35,47,16,44,-332,-1144,-930,-179,-157
12,-9,-28,-65,-127,-504,-1009,48,-123,3
-145,-157,-147,-92,-66,-224,-241,820,77,-87
-266,-304,-285,-192,-69,12,26,447,86,-157
-225,-269,-266,-200,-121,190,317,-120,234,-126
-229,-303,-293,-287,-261,320,462,-18,-49,-169
-187,-239,-259,-258,-293,445,1018,830,-40,-180
-79,-145,-168,-126,-130,125,1119,1419,-281,-160
108,103,91,98,46,-384,111,716,-179,-18
412,420,354,219,5,-727,-783,-568,6,321
421,456,375,200,-44,-436,-1358,-855,638,522
112,172,202,227,290,164,-1670,-1300,582,357
-180,-74,-34,169,473,598,-666,-1149,217,-103
-5,12,19,117,225,263,162,93,-307,-163
78,73,78,88,30,-202,579,357,-252,-30
-376,-373,-344,-283,-210,-464,834,1301,-90,-236
-579,-503,-447,-324,-132,-195,710,2360,201,-393
-229,-186,-132,-26,124,52,441,411,127,-134
-6,35,8,-7,-14,133,868,-901,-156,-55
30,3,-41,-116,-151,1009,1655,-1065,-706,-85
16,-5,-22,-52,-76,1270,2262,-661,-322,17
57,-2,-51,-101,-216,-361,546,949,114,102
317,329,274,186,16,-660,-2055,1459,447,254
389,443,413,348,266,-129,-2642,-179,203,260
429,412,349,188,14,-453,-2424,-1103,285,344
282,190,159,0,-131,-231,-980,-1758,-74,234
221,219,223,155,97,-128,-237,-1349,-105,159
-36,17,89,138,277,-36,156,-25,-327,-119
-248,-167,-129,-125,7,-3,651,1005,-83,-247
-256,-218,-227,-298,-220,-37,704,168,3,-175
-289,-264,-249,-237,-117,295,983,-760,165,-170
-114,-177,-143,-123,-87,156,457,-492,80,-48
5,-111,-109,-129,-234,-230,-91,566,136,-14
-48,-151,-182,-158,-289,-497,-444,1085,-312,-93
-103,-101,-139,-53,-192,-339,-182,825,-550,-103
-172,-63,-5,243,262,394,273,866,-683,-164
-172,-4,76,249,551,812,998,-9,-212,-223
-115,-90,-86,-62,212,367,780,-728,412,-96
250,179,116,112,162,-3,162,-692,954,318
565,500,499,435,361,-272,-731,-392,526,568
28,84,172,173,213,-149,-486,282,141,88
-268,-221,-176,-183,-152,348,1340,296,104,-175
70,50,-28,-151,-305,522,749,-229,194,112
323,201,60,-124,-414,-476,-1360,-129,12,344
160,114,57,-12,-177,-809,-2100,-201,62,171
-67,-77,-56,-29,-47,-658,-1911,-247,-88,-110
-218,-200,-192,-160,-105,-313,-498,930,-25,-286
-171,-204,-193,-136,-7,2,691,1991,-177,-312
-158,-176,-242,-119,-76,-172,1163,945,-195,-254
-229,-235,-332,-124,-108,-103,1254,-516,-631,-272
10,81,26,188,194,510,784,-1730,-315,89
316,319,298,274,198,544,-389,-1676,453,591
306,286,306,199,99,150,-971,-545,614,446
-18,-58,38,-45,-19,-147,-533,-92,173,-25
-110,-134,-68,-111,-79,-237,247,-80,293,-66
-88,-98,-55,-79,-58,-130,360,825,300,-95
-265,-256,-239,-272,-216,-3,438,1613,396,-296
-427,-473,-501,-458,-373,253,1569,865,-27,-401
-238,-213,-239,-199,-156,435,1719,-355,-665,-331
405,473,518,495,485,571,329,-1075,-1160,161
810,915,1010,974,953,423,-1847,-2059,-700,548
482,474,564,520,455,-356,-2776,-810,-248,365
-140,-201,-167,-188,-310,-656,-637,961,108,-101
-436,-475,-447,-386,-349,-322,840,1113,-68,-378
-301,-310,-329,-280,-136,65,734,679,350,-198
-124,-194,-223,-238,-129,118,246,102,412,23
-115,-83,-60,19,178,433,349,156,-10,-115
-167,-155,-94,35,180,641,1042,444,-108,-174
-117,-153,-200,-187,-291,32,1804,1160,375,13
-76,-107,-193,-291,-509,-566,1013,1243,-258,-106
-40,50,46,-8,-82,205,750,-241,-730,-258
586,617,601,482,409,487,-1944,-2984,-146,391
830,865,802,620,409,-171,-4283,-3050,651,811
319,306,267,130,-74,-864,-3393,-279,1057,650
-70,-95,-112,-149,-255,-654,-455,1025,916,230
-104,-103,-77,-32,-23,-203,984,926,73,-170
-199,-143,-96,3,95,132,1104,450,-315,-346
-185,-186,-129,-35,69,135,1073,106,-449,-275
-210,-202,-166,-63,62,282,1236,216,-273,-211
-244,-246,-193,-87,74,321,852,216,-366,-194
-272,-278,-255,-149,-49,166,600,382,-103,-148
-236,-352,-385,-354,-343,-135,-139,758,54,-134
-214,-354,-482,-566,-648,-101,329,1058,318,-179
43,-63,-218,-390,-606,-135,807,984,139,-16
466,482,391,222,-54,-348,-482,-933,205,337
138,247,276,290,329,-224,-826,-1569,-67,206
14,175,293,413,665,434,-429,-1121,290,152
54,158,259,352,554,512,-202,-625,96,-71
275,286,307,298,308,303,-431,74,-184,91
287,264,276,212,181,187,-455,340,-712,124
61,105,110,79,66,10,36,-168,-552,-69
-226,-250,-203,-151,-91,-98,414,-205,-222,-206
-437,-491,-482,-421,-351,-74,1560,366,140,-297
-555,-627,-618,-509,-420,-69,1678,1616,-94,-387
-406,-446,-460,-383,-343,-139,1214,2375,-81,-254
12,-41,-93,-157,-265,-506,-928,817,-99,85
395,415,351,189,-4,-458,-1929,-1092,480,398
534,542,506,390,278,-7,-1653,-2091,700,527
476,480,429,307,180,-12,-1518,-1542,840,469
184,195,172,94,29,75,-209,-118,341,136
116,181,212,241,282,221,244,385,-126,58
26,79,144,213,325,482,843,-139,-767,-105
-127,-33,18,97,211,432,980,92,-743,-273
-192,-147,-110,-76,-2,104,108,-144,-415,-265
-138,-141,-118,-121,-147,-145,-263,-123,232,-134
-83,-117,-113,-98,-148,-361,-258,79,234,13
-97,-143,-170,-141,-174,-266,97,407,375,100
-71,-163,-166,-154,-170,-179,292,627,285,89
69,54,52,57,54,173,409,158,93,65
9,9,25,40,77,305,319,-89,-453,-93
-53,-48,-32,-24,-30,58,219,586,-369,-106
-151,-156,-144,-143,-131,117,304,-7,-379,-186
-252,-210,-191,-159,-59,-33,145,-1060,-84,-298
-233,-209,-181,-121,48,-37,238,-668,81,-228
-165,-132,-94,-11,144,291,595,1489,344,-123
4,-63,-75,-76,-83,-44,-9,1766,371,160
200,131,66,-41,-171,-268,-549,513,-30,143
211,167,145,24,-113,109,517,-625,-939,-103
291,273,265,150,23,134,1061,-1365,-499,200
465,498,497,368,249,-98,-788,-2066,48,559
117,251,304,333,404,220,-1562,-1109,1087,449
-218,-209,-178,-79,65,-77,-988,965,1430,197
-359,-370,-401,-357,-321,-359,431,2449,705,-324
-315,-326,-351,-337,-356,-22,1541,1497,-351,-496
90,134,107,100,15,73,34,-1296,-438,-112
483,461,430,401,320,-193,-2496,-2382,-213,325
374,332,311,276,203,-295,-1952,-1344,18,318
13,-33,-30,-51,-68,-243,44,377,-355,-29
-178,-147,-145,-136,-100,-52,712,856,-457,-256
-255,-282,-235,-205,-220,-246,309,379,-458,-259
-514,-548,-485,-390,-327,-384,949,1121,16,-338
-657,-645,-581,-435,-239,221,2967,2026,116,-472
-149,-85,-69,6,147,798,2054,633,254,-108
397,464,477,522,643,993,-510,-1560,34,243
772,824,807,773,775,558,-3462,-1808,152,502
791,630,493,234,-121,-654,-3052,-1058,46,553
335,220,133,-33,-281,-766,-422,-715,-271,118
-241,-272,-273,-252,-181,-58,425,176,-554,-281
-429,-383,-393,-363,-296,90,787,924,46,-80
-362,-337,-334,-304,-286,-61,968,1391,864,245
-232,-217,-206,-202,-222,-285,627,1246,961,34
-188,-162,-114,-72,20,-42,586,911,-77,-358
-87,-33,9,78,235,443,1054,-348,-443,-291
217,226,212,201,206,395,251,-1622,-485,89
275,296,249,199,83,-4,-287,-1429,-248,185
32,15,13,2,-29,-61,277,-309,-325,-89
-128,-148,-149,-144,-105,55,832,760,-72,-206
-124,-139,-132,-96,-46,-25,-158,922,-237,-130
-12,44,95,178,254,289,-594,682,-16,70
33,63,129,207,291,244,-723,230,92,179
-24,13,29,60,64,-131,-854,-971,112,13
66,60,34,-5,-93,-546,-1321,-1386,-146,-43
80,45,-32,-144,-325,-731,-841,-207,208,67
7,-38,-112,-248,-434,-564,242,1240,291,105
-26,-51,-84,-167,-234,-12,1203,1067,414,63
20,18,53,60,180,499,1421,-359,-296,-85
-163,-63,27,132,333,687,1167,-285,-749,-329
-193,-141,-95,-57,-29,-189,124,661,-410,-197
92,117,102,80,41,-349,-1239,460,662,213
229,208,215,237,281,203,-1461,-1084,757,335
216,177,167,162,154,60,-684,-1536,332,205
-96,-144,-127,-80,4,248,781,-527,-364,-150
-299,-282,-229,-99,93,482,1564,517,-297,-240
-348,-405,-388,-325,-225,-8,1322,1052,-118,-144
-196,-305,-374,-391,-442,-73,607,1628,342,6
296,156,43,-81,-295,-355,-1337,638,245,349
655,601,455,216,-104,-680,-2614,-1279,-99,468
448,528,508,346,185,-27,-701,-1557,-490,77
100,258,340,318,330,296,266,-720,146,-101
-324,-274,-189,-87,44,266,698,948,343,-214
-310,-286,-256,-178,-95,107,1000,1449,451,-109
-17,13,29,39,95,162,693,-95,-216,-47
-130,-13,21,52,174,236,237,-1327,-486,-296
-11,54,58,66,87,-109,-593,-1149,-376,-142
291,287,269,249,141,-355,-1023,-280,33,265
10,-34,-8,40,43,-444,-567,196,-88,86
-246,-218,-154,-17,109,31,152,345,-218,-166
-42,-91,-44,25,99,387,372,456,-14,70
-13,-81,-85,-63,-16,728,1187,289,323,47
-105,-201,-244,-293,-308,554,1754,91,200,-95
-77,-137,-232,-324,-497,-312,929,389,152,-56
145,93,7,-79,-296,-938,-1535,741,-7,94
159,196,172,148,88,-515,-2951,343,86,80
-138,-65,-29,19,133,-46,-930,261,-451,-267
-341,-287,-258,-170,-62,284,1600,239,-395,-331
-250,-297,-280,-209,-173,168,1303,494,-186,-137
62,90,85,111,62,-80,-229,60,-74,120
257,257,229,184,77,-468,-1366,-1426,3,351
435,437,408,304,203,-59,-593,-1406,436,402
555,516,515,428,361,359,211,-911,27,304
204,182,200,179,159,191,599,-34,37,121
-368,-332,-224,-91,114,330,662,604,260,-151
-540,-441,-326,-129,92,136,283,584,501,-171
-419,-427,-380,-239,-119,-273,-205,326,647,-59
-366,-390,-356,-213,-10,488,784,319,653,-214
-378,-401,-355,-222,8,805,2354,1421,54,-387
-118,-128,-187,-203,-195,458,2281,1627,-358,-251
315,315,173,-72,-397,-110,-304,292,-1066,-72
697,737,590,263,-229,-1121,-3320,-1625,-728,267
539,520,451,228,-164,-1482,-3544,-2075,153,437
-3,-40,-70,-180,-444,-1139,-1682,-115,1084,225
-184,-234,-243,-264,-313,-467,-721,383,593,14
18,43,80,172,402,784,1119,-258,-497,-79
403,454,552,719,1066,1748,2300,-818,-1176,157
218,256,339,460,674,1018,706,-1406,-742,88
-138,-163,-113,-32,83,-35,-281,-49,-176,-52
-258,-238,-215,-160,-87,-250,352,749,429,-106
-119,-123,-124,-129,-140,-455,555,778,691,-81
51,53,-4,-74,-177,-613,-454,293,249,-28
56,15,-53,-173,-281,-90,-624,559,-390,4
12,-4,-73,-115,-176,519,-101,617,87,110
-166,-191,-177,-98,-68,231,127,317,228,-52
-209,-185,-146,-37,-17,-371,-272,121,243,-226
-94,-118,-122,-70,-116,-529,-272,-238,41,-122
-7,-36,-57,-61,-134,-200,289,-485,123,85
59,21,52,72,111,392,1066,-588,-91,103
133,175,211,248,362,611,687,-525,-150,16
16,-1,6,32,160,393,-358,34,-360,-129
-208,-276,-315,-350,-383,-249,-963,1228,82,-208
-259,-357,-431,-515,-664,-750,-708,1232,127,-174
-228,-227,-319,-384,-467,-523,-28,551,4,-114
40,132,113,99,141,156,980,519,-400,85
262,432,506,553,646,651,1631,202,-221,215
76,186,262,271,315,321,1310,-853,-285,-74
128,178,212,188,134,246,779,-1595,-69,-20
439,385,387,314,193,240,-345,-1422,29,341
416,352,328,252,128,-227,-2170,-747,268,384
-151,-220,-162,-107,31,-394,-2659,-706,178,-73
-282,-310,-274,-207,-26,0,-479,-193,255,-231
-136,-133,-128,-110,-67,402,1225,864,-365,-180
-31,-16,-28,-20,-40,346,1200,885,-53,19
-183,-232,-238,-194,-193,-151,-24,210,268,-43
-347,-413,-442,-403,-428,-697,-279,1642,702,-31
-113,-192,-276,-331,-440,-929,-596,1747,545,154
56,141,118,92,83,90,1000,218,-115,-68
134,298,397,466,675,1051,1262,-1581,-672,-209
430,472,458,389,357,174,-1010,-1715,-11,240
384,307,259,128,-32,-575,-2182,-88,165,324
53,31,35,-3,-62,-175,-596,199,28,-1
0,-6,8,22,22,-95,22,-806,-264,-81
-108,-107,-70,-30,22,-59,164,-743,-225,-114
-74,-125,-112,-98,-66,-162,57,186,-75,46
-119,-163,-193,-210,-237,-224,-41,1316,281,53
-74,-98,-130,-175,-231,174,151,952,139,16
-10,30,8,-9,-55,479,480,-353,-13,-7
64,101,153,205,284,390,880,-325,-256,-17
13,83,158,275,455,558,1119,-82,-133,-78
-129,-176,-153,-124,-38,3,717,-95,-123,-106
-273,-330,-334,-335,-259,4,410,270,-269,-304
-179,-249,-261,-279,-256,-229,-601,205,-574,-262
67,80,29,-36,-183,-488,-868,931,-334,-20
183,208,157,116,-62,-149,306,1069,7,304
130,159,112,104,-39,87,430,-125,960,451
-18,2,0,39,71,413,298,-1110,663,62
-139,-28,29,138,340,596,475,-1911,48,-284
24,85,119,164,216,-106,-568,-1022,-116,-147
-55,-1,24,77,110,-120,-404,396,-8,-100
-210,-241,-240,-180,-132,-132,646,937,60,-40
10,-61,-76,-64,-72,-207,12,589,357,103
205,164,152,118,98,-172,-1456,340,262,95
108,84,101,74,81,-127,-1835,748,327,50
-188,-237,-200,-212,-170,0,641,203,-284,-139
-75,-100,-99,-101,-77,471,1672,-669,-367,47
171,152,189,229,203,129,377,-92,-294,218
6,-5,10,0,-114,-819,-966,467,13,12
-173,-279,-376,-519,-640,-581,-258,405,58,-82
43,17,-109,-266,-434,54,642,106,75,73
401,471,418,288,203,480,-395,-466,-110,270
431,557,576,523,476,484,-1051,-793,-173,169
194,230,250,217,88,-621,-582,-570,-388,-34
105,117,140,145,71,-658,-70,-1094,41,62
75,135,242,358,533,503,4,-1449,-333,26
-2,21,82,169,369,606,-378,-477,24,66
-42,-84,-82,-70,-8,166,5,388,399,65
-214,-214,-237,-210,-157,82,775,912,615,-106
-271,-301,-309,-253,-211,9,797,996,236,-125
-281,-260,-238,-171,-151,-57,708,625,74,-172
-306,-340,-324,-268,-229,-254,358,571,61,-188
-287,-353,-350,-325,-298,-317,383,590,253,-150
-244,-324,-349,-369,-325,-151,973,226,-231,-219
-134,-111,-133,-129,-22,683,2110,239,-560,-245
362,397,390,375,397,678,129,35,-438,149
412,462,475,434,409,-66,-2793,-221,214,238
256,231,228,176,127,-646,-3679,-826,383,232
132,70,-8,-154,-371,-903,-1172,-955,151,175
173,158,83,-80,-320,-608,1040,385,-511,132
143,239,253,248,212,170,1255,428,-469,54
-130,-77,-41,-13,37,267,964,100,-432,-219
-200,-185,-175,-158,-136,587,627,177,208,-173
-89,-148,-135,-79,-40,400,-17,40,691,51
-76,-61,-33,68,223,274,-458,-436,378,-25
-109,-53,-4,126,386,407,-470,-820,-571,-261
-98,-73,-18,96,237,229,336,-22,-605,-205
-58,-78,-51,-17,-41,-398,616,1168,-589,-106
-104,-101,-111,-115,-188,-549,-189,928,-295,-129
-85,-104,-123,-187,-289,-522,-603,-122,117,-18
-91,-82,-135,-195,-262,269,322,-550,649,83
-99,-157,-229,-292,-299,714,1366,289,944,287
15,33,-2,-18,9,290,1812,806,1009,312
262,269,251,202,113,-345,33,-301,143,207
500,525,484,362,124,-665,-2448,-1455,-154,223
446,455,459,399,261,-306,-2398,-1015,-226,233
83,107,172,208,265,31,-861,209,-93,35
-243,-258,-185,-101,57,129,582,-70,-380,-289
-165,-215,-218,-193,-144,-26,557,-499,-298,-235
-112,-202,-231,-234,-209,-55,408,485,-276,-101
-287,-299,-277,-191,-123,127,817,1520,-27,-162
-323,-337,-317,-228,-163,301,1196,805,14,-182
-197,-175,-199,-190,-169,271,996,-663,148,-146
38,62,94,138,201,258,-164,-1114,23,-83
229,269,305,309,291,-118,-1534,-61,187,76
58,-13,-78,-237,-434,-957,-1478,803,225,138
-202,-242,-311,-441,-591,-741,-136,176,-50,-41
-109,-50,-20,18,93,195,555,145,-591,-19
53,240,372,560,834,1089,1614,1230,-283,-17
102,169,277,373,566,637,456,108,3,-15
202,176,154,83,-23,-301,-801,-1104,-151,70
477,359,264,90,-156,-579,-1425,-1391,-224,368
395,302,213,69,-140,-102,-648,-823,143,389
-1,-49,-42,-41,-50,190,286,-209,170,44
-178,-151,-126,-59,51,218,574,274,107,-195
-167,-151,-147,-90,-10,61,336,573,156,-106
-261,-217,-184,-136,-99,14,500,788,633,-55
-276,-280,-272,-253,-236,95,870,1446,406,-42
-203,-217,-240,-246,-268,113,878,1024,230,-81
-338,-332,-271,-185,-70,104,834,152,-173,-398
-236,-168,-117,4,197,174,849,-481,-56,-281
46,87,87,157,272,-133,-278,-974,-34,38
223,231,190,189,128,-370,-2150,-832,214,273
408,342,270,186,-51,-691,-3452,-665,384,470
249,237,197,97,-102,-356,-1287,-764,-25,168
109,125,127,68,-22,232,1177,5,-874,-118
322,364,339,271,153,514,2251,-56,-673,97
309,299,303,228,144,205,1539,-587,-348,162
64,76,108,112,171,349,212,20,24,43
49,-6,0,5,88,64,-2000,2,130,118
-44,-115,-163,-194,-191,-338,-2164,139,297,80
-189,-225,-239,-224,-241,-348,-324,220,-8,-166
-207,-139,-114,-63,-40,-18,771,-9,158,-261
-183,-152,-131,-98,-52,6,563,106,-113,-193
-222,-235,-235,-199,-165,-65,342,642,-278,-222
-253,-302,-303,-250,-187,-15,381,568,-337,-162
-183,-206,-194,-161,-96,71,480,508,276,35
-79,-69,-39,31,127,337,842,668,587,165
38,92,86,121,116,227,884,142,473,139
256,238,177,83,-79,-214,408,-296,85,139
195,214,180,105,4,-116,119,-119,-3,99
-232,-185,-121,-71,45,88,-422,768,-170,-239
-406,-341,-305,-261,-128,-79,-471,1017,260,-348
-66,-58,-89,-128,-150,-328,-289,-686,125,-119
358,376,354,300,226,-135,-647,-1732,-268,186
426,466,505,536,573,256,-727,-1428,-735,226
157,211,226,249,285,597,863,-290,-268,92
-70,-110,-138,-172,-199,565,1743,992,252,75
-167,-197,-233,-267,-346,-236,395,1087,301,-60
-194,-218,-225,-238,-294,-668,-940,563,52,-183
33,63,68,99,105,-441,-1789,-121,461,94
152,159,170,200,240,-97,-809,-848,-59,69
176,180,190,222,286,268,-163,-1997,-501,-40
-49,-69,-23,21,113,396,686,-1171,-640,-111
-214,-214,-208,-193,-209,57,1093,613,-223,-113
-192,-200,-201,-213,-242,-115,446,1227,228,22
152,176,102,-27,-198,-353,-1160,643,540,242
307,297,200,23,-137,-150,-1494,-221,145,179
246,266,244,211,213,338,119,435,144,149
109,105,134,165,192,40,220,732,23,89
-208,-206,-206,-189,-172,-304,-43,575,134,-172
-306,-383,-427,-456,-415,-80,738,-56,-295,-373
-71,-125,-145,-150,-107,148,1191,-778,-540,-256
244,273,373,463,640,704,599,-1122,-635,59
277,345,440,480,503,275,-460,-575,-42,269
74,79,133,127,58,-317,-1254,-39,393,370
-114,-114,-78,-32,-5,-38,-221,381,766,166
-131,-184,-154,-104,-32,102,541,462,91,-178
-227,-269,-251,-222,-130,21,410,96,-128,-327
-315,-408,-446,-421,-368,-88,574,675,50,-251
-199,-302,-405,-444,-597,-456,608,1970,649,10
-86,-172,-254,-363,-603,-808,378,2034,631,164
-87,-34,-37,-38,-53,-280,-579,-308,357,117
98,263,337,434,666,607,-1068,-2612,-642,-56
482,691,735,735,806,724,-757,-2232,-887,125
301,395,453,437,439,443,335,-967,-885,11
-39,-51,-28,-13,22,10,908,287,-17,-95
-275,-334,-327,-256,-204,-437,201,969,84,-216
-159,-197,-213,-182,-181,-539,-578,1041,250,-113
149,93,74,51,33,-73,-299,72,251,130
29,15,22,42,105,610,590,-1001,136,59
-111,-165,-168,-127,-53,824,512,-482,87,33
-64,-114,-181,-233,-305,187,-349,699,462,98
49,48,0,-96,-236,-681,-1328,254,6,14
119,167,173,122,8,-361,-180,-653,-303,-25
154,109,100,41,-65,-20,2013,-419,-330,82
-22,-82,-137,-238,-408,-389,1934,459,-188,-50
-31,-5,9,1,-42,-536,-659,606,-486,-176
-49,87,135,245,412,59,-2419,292,-448,-206
-43,-19,0,29,143,356,-1133,275,-81,16
162,115,79,40,28,243,-253,-87,968,347
291,244,218,193,162,-57,-348,-596,735,282
0,10,35,74,165,-39,138,-338,-242,-107
-206,-233,-227,-249,-208,-69,686,557,-584,-186
-281,-303,-350,-377,-402,33,456,723,-85,-101
-184,-183,-200,-135,-74,-26,68,344,-38,-17
209,212,231,305,338,291,113,-224,324,326
98,47,127,230,254,277,789,74,463,207
-484,-535,-471,-327,-233,-6,1879,1383,804,-260
-574,-614,-595,-505,-394,-295,1339,1600,58,-462
-118,16,-2,-1,35,-227,-533,-532,-584,-404
421,581,575,478,444,335,-1348,-2605,-583,-34
671,709,647,471,299,412,-877,-2491,-14,465
642,585,519,337,92,-18,-604,-1585,108,543
370,339,335,247,58,-331,-619,-71,166,336
62,-14,0,-22,-48,-287,-1521,706,98,158
-122,-146,-134,-109,-11,24,-1304,683,104,-45
-260,-261,-234,-175,-66,91,318,537,-216,-263
-56,-62,-77,-79,-93,45,961,491,-2,-59
24,-8,-22,-26,-37,-57,528,427,-96,2
-262,-243,-210,-138,-29,68,955,286,-154,-267
-454,-471,-414,-349,-221,-47,848,854,-221,-389
-425,-449,-456,-405,-375,-218,622,1562,141,-252
-214,-205,-246,-229,-228,-159,102,1108,-240,-133
-135,-88,-81,-80,-67,-62,-129,-167,-391,-101
135,128,191,217,252,267,219,-1522,-103,215
300,317,349,347,257,288,541,-1541,379,273
185,133,122,61,-87,-97,0,-496,735,263
399,328,244,120,-60,-236,-767,178,1104,534
470,479,432,321,255,-273,-2333,88,172,403
9,97,129,154,242,-78,-1333,81,-354,-171
-288,-286,-272,-177,-37,150,519,156,-561,-454
-313,-310,-335,-267,-172,219,1377,-334,-524,-398
-48,-14,-14,22,40,210,1225,-258,-593,-93
127,200,242,289,329,346,455,74,71,238
-10,-21,38,70,93,7,-47,698,414,142
-149,-148,-110,-118,-109,-316,-362,534,355,-161
-84,-101,-115,-170,-192,-380,-1038,-1072,-248,-237
140,120,71,-40,-143,-124,-1144,-1436,-92,73
187,189,203,170,193,483,137,-300,-14,240
-66,-45,-6,84,217,571,1150,906,-139,-41
-164,-227,-242,-191,-153,44,1435,1864,-185,-143
-1,-80,-155,-225,-366,-258,1080,1094,192,104
-21,-53,-86,-155,-217,-175,-317,-332,150,133
-140,-40,-4,41,89,-305,-1649,-312,385,-115
-272,-229,-203,-159,-69,-621,-1713,-7,384,-262
-182,-216,-272,-269,-270,-330,179,-798,283,-147
289,258,227,218,149,610,2008,-290,-616,126
544,621,659,718,709,1096,1982,-266,-687,307
344,393,433,448,480,327,-501,-844,-351,182
18,27,8,-44,-16,-237,-1788,233,176,36
-255,-299,-301,-320,-300,-257,-543,183,-32,-201
-312,-334,-329,-291,-259,-91,672,-70,-86,-248
-118,-184,-178,-158,-150,-81,644,531,13,8
90,65,63,27,-46,-87,-482,559,359,231
88,80,96,56,-11,-365,-725,290,261,167
-36,24,34,45,83,-366,-924,22,398,4
-79,-31,-25,-22,43,-215,-346,-210,-91,-213
-155,-108,-137,-141,-91,302,686,-545,-422,-326
-129,-194,-238,-270,-242,740,803,-7,-366,-109
114,97,69,26,-79,206,-231,984,-44,132
308,302,268,209,28,-501,-809,58,-143,185
270,255,204,145,14,-260,767,-684,400,238
48,77,100,157,169,224,1705,-741,321,126
-2,78,122,167,157,-103,-10,-308,257,93
31,78,128,154,169,-254,-1468,-130,102,25
-153,-137,-97,-18,128,146,-1417,-303,-68,-226
-152,-248,-290,-278,-171,320,-751,-210,-322,-250
78,-33,-178,-285,-423,-206,-3,815,-9,-24
-168,-237,-328,-407,-529,-559,834,1771,-112,-106
-355,-271,-228,-150,-18,405,1617,600,-186,-146
-66,66,182,358,655,988,1503,-798,-481,69
252,329,423,513,646,617,725,-659,-52,256
217,176,222,210,177,-90,-307,42,544,188
-143,-186,-212,-235,-305,-569,-154,1274,653,-101
-365,-383,-393,-395,-416,-500,825,1471,-128,-383
-68,-34,-57,-63,-114,-347,-932,-530,-277,-176
236,184,169,127,45,-211,-2655,-2596,-381,145
146,79,78,111,93,223,-1027,-1919,-92,217
80,29,-6,-22,-113,25,859,381,-17,163
50,61,-23,-165,-420,-977,-539,1855,532,82
-56,-48,-80,-182,-307,-789,-1536,511,608,-88
15,60,108,91,178,356,-358,-1455,-73,-133
374,468,569,588,675,1193,1320,-748,-898,170
426,476,501,509,500,736,1566,-61,-164,415
205,122,117,99,91,-8,904,390,617,360
-64,-78,-66,-23,103,39,-75,42,532,-32
-300,-260,-219,-134,40,8,-228,130,-286,-437
-214,-219,-235,-210,-207,-261,-107,421,-216,-239
-276,-335,-323,-287,-251,-45,776,302,-259,-200
-280,-276,-251,-160,-40,288,926,133,-29,-191
-98,-113,-94,4,125,682,719,446,159,-17
-151,-199,-173,-111,-20,540,229,668,346,-34
-108,-232,-282,-376,-480,-533,-645,291,-68,-111
163,78,-52,-266,-555,-1332,-1868,-300,-111,64
402,366,263,47,-277,-1199,-2062,-404,-108,338
279,392,413,369,273,-194,-1390,-607,131,231
180,288,374,413,493,321,-188,-1009,14,151
127,181,223,297,400,534,789,-48,161,138
54,62,126,199,306,337,840,794,-243,-42
-159,-118,-89,-35,22,11,498,162,-326,-200
-220,-222,-213,-156,-81,90,242,-380,-365,-170
-76,-89,-89,-48,0,246,474,-94,64,0
-123,-202,-188,-173,-116,285,676,608,307,-35
-202,-273,-286,-285,-264,226,848,1691,654,-84
-172,-204,-233,-239,-256,-151,386,628,123,-131
-53,-9,-44,-105,-186,-332,-291,-1088,-221,-110
210,211,177,114,-16,-238,-401,-1674,-289,135
83,106,126,179,217,145,71,-526,-40,86
-188,-144,-28,141,439,476,206,1411,-239,-232
-120,-74,-35,33,151,-108,-689,953,-31,-258
155,97,43,-41,-131,-456,-699,212,-438,-198
156,77,-1,-107,-255,-33,646,-872,-673,-136
-70,-85,-98,-113,-201,-16,376,-1237,-681,15
-474,-379,-313,-205,-132,178,1317,-1008,-265,6
-318,-298,-263,-216,-137,530,2109,295,856,395
478,492,446,385,294,426,-334,610,1804,750
893,884,837,706,563,-97,-3508,210,1384,611
383,426,405,335,278,-519,-2810,-103,256,51
22,-11,-46,-107,-202,-539,-677,-301,-713,-227
4,-6,-54,-98,-206,155,413,-352,-642,-164
-111,-100,-100,-106,-187,-293,752,-153,-459,-132
-279,-258,-224,-187,-163,-306,906,69,-135,-178
-223,-293,-280,-269,-224,-66,696,418,-49,-103
-154,-199,-184,-140,-12,411,615,245,174,-111
-188,-187,-140,-32,215,592,145,160,-100,-253
-169,-200,-192,-139,-66,229,296,874,-20,-149
-145,-217,-212,-201,-246,-456,232,1231,-121,-80
-198,-176,-176,-156,-191,-359,659,1515,140,-166
-151,-80,-68,-39,44,362,602,493,80,-140
207,245,198,140,128,290,-371,-723,286,246
487,451,426,328,224,-202,-1216,-1329,172,487
368,370,354,297,168,-427,-1631,-1424,-75,265
230,241,258,252,204,28,-1095,-1166,-458,100
74,165,225,276,345,542,104,-812,-410,-62
5,54,88,137,213,440,804,-351,-220,-46
-91,-93,-96,-75,-49,40,900,34,37,-2
-134,-183,-189,-164,-154,-266,427,438,-265,-79
-237,-234,-232,-176,-161,-126,417,746,-115,-185
-431,-487,-443,-379,-309,12,1119,1271,195,-245
-421,-482,-484,-476,-446,-120,876,872,483,-303
48,21,-72,-144,-255,-411,-252,-107,169,-38
543,586,480,354,145,-319,-1113,248,317,495
348,426,415,345,237,-137,-1193,226,95,442
-41,77,116,151,197,145,-551,-903,186,27
46,108,131,148,255,243,-504,-1853,-78,-165
17,90,101,138,285,428,597,-1371,-471,-271
-140,-99,-49,5,122,385,1725,234,-777,-282
3,16,31,25,34,157,513,489,-344,-24
195,118,84,20,-38,-77,-1234,418,31,274
29,-48,-88,-115,-145,-3,-747,553,229,176
-351,-449,-450,-422,-346,-224,412,923,81,-183
-490,-526,-514,-457,-455,-705,16,1641,285,-252
-277,-298,-262,-212,-277,-633,-1104,1722,288,-23
147,178,161,158,-1,-67,30,183,547,177
472,471,461,402,312,441,1046,-1304,457,387
465,478,471,389,258,277,221,-2433,262,392
111,117,117,72,11,-145,-903,-1740,-222,19
-211,-159,-138,-115,-15,7,-1038,-821,-331,-266
10,45,76,75,133,141,-103,311,-458,-121
229,302,339,343,385,247,583,476,-376,11
-52,-54,-52,-35,37,297,938,407,-304,-131
-296,-310,-306,-255,-184,441,961,561,1,-218
-186,-228,-219,-233,-211,-105,209,552,197,-32
35,-13,-18,-79,-87,-227,-272,716,584,157
-243,-298,-276,-228,-117,112,989,487,62,-176
-521,-522,-482,-314,-83,450,1988,157,-352,-496
-293,-400,-446,-416,-371,-189,370,437,-409,-263
43,-47,-120,-159,-303,-725,-1542,1477,-115,-8
280,294,265,218,23,-778,-2069,464,-134,67
550,633,596,508,288,-51,-740,-1503,415,391
789,814,754,600,417,257,-1244,-2925,717,832
491,459,427,343,267,45,-1302,-1246,744,656
105,58,56,43,62,-328,-679,1248,17,83
-215,-166,-130,-105,2,-69,510,601,-532,-364
-285,-172,-71,12,258,390,1113,-942,-1222,-538
-176,-29,60,175,418,465,831,-597,-807,-285
-79,-55,-4,70,179,171,472,64,-58,125
-221,-237,-216,-164,-143,107,582,425,723,95
-465,-554,-543,-479,-438,277,1077,1162,986,-193
-334,-400,-450,-408,-410,195,908,1088,578,-221
53,-34,-103,-153,-262,-61,613,245,-58,19
347,282,202,118,-55,-58,498,-175,26,313
193,127,96,55,8,-330,-675,-89,-110,199
54,105,132,144,203,-174,-1403,-458,-441,-113
187,253,311,288,273,-12,-1636,-1203,-512,-34
15,93,137,86,29,-160,-750,-560,-147,-31
-149,-122,-122,-159,-200,45,-58,511,-9,-57
-105,-117,-175,-223,-279,251,593,1311,329,17
74,16,-42,-85,-153,-275,617,1314,306,88
59,89,91,114,156,-271,569,124,209,-12
-150,-118,-51,48,236,288,904,-1027,-462,-229
-6,23,68,118,220,362,230,-1499,-604,-150
81,17,50,70,74,5,-1138,-1284,-467,-1
167,80,52,39,-74,-414,-2044,-201,245,260
94,35,4,-32,-105,-248,-882,784,52,195
-257,-182,-149,-122,-98,105,1252,1235,242,-136
-239,-189,-152,-108,-84,95,1797,813,1024,37
-45,-17,-54,-29,-29,232,1968,619,1051,121
-30,-49,-76,-89,-125,-49,605,632,-113,-81
-13,-29,-47,-31,-88,-323,-968,-16,-471,-134
189,183,197,228,250,53,-1974,-937,-675,-19
302,318,281,224,170,341,-428,-540,-253,161
146,142,92,-2,-107,-194,81,263,162,197
-320,-222,-136,-36,158,62,0,-233,241,-225
-378,-302,-190,-25,246,57,-185,-942,-234,-400
-14,-38,-36,-52,-107,-370,-111,-1055,-305,-79
27,-44,-54,-82,-160,175,1292,-93,-352,36
-28,-70,-101,-103,-114,614,1851,474,72,35
299,215,142,30,-51,214,-266,586,448,377
457,400,297,121,-69,-402,-1526,947,702,528
-181,-206,-207,-201,-160,-298,-399,928,131,-92
-512,-495,-446,-366,-231,-307,142,785,-240,-508
86,91,71,7,-88,-626,-1100,-99,-408,-104
330,428,392,266,37,-549,-1087,-729,-353,59
-60,3,50,62,147,506,284,-1364,-742,-206
-136,-93,-22,82,252,754,575,-591,-242,-45
79,107,177,273,351,348,118,337,111,191
261,298,281,298,271,236,-112,-106,352,243
210,199,157,137,74,-65,164,-439,442,211
81,88,71,103,151,153,165,-468,197,34
-107,-127,-120,-120,-26,50,-68,-193,-270,-145
-228,-266,-296,-379,-415,-466,-372,482,17,-174
-282,-334,-361,-386,-431,-314,314,881,116,-118
-121,-117,-131,-102,-136,206,1025,536,185,89
208,191,163,185,144,352,386,189,57,303
67,143,166,213,233,196,-427,-200,-5,1
-225,-152,-41,80,253,21,-319,97,-81,-292
-168,-158,-120,-53,59,-145,382,431,396,-98
-48,-124,-169,-192,-200,-249,403,206,155,-80
-130,-159,-169,-124,-48,15,271,-411,-571,-389
-61,-79,-48,22,107,-78,-110,-705,-1182,-348
231,322,287,225,114,89,-316,-358,-783,82
231,280,222,69,-163,46,-593,151,499,563
239,177,64,-117,-491,-257,-390,129,2153,928
96,-9,-33,-79,-208,-21,-257,-355,1524,356
-18,-45,-23,43,172,-25,-159,-235,155,-208
-66,-78,-65,-31,60,-43,535,1057,-633,-311
-63,-36,-22,-3,14,166,742,1417,-392,-241
62,50,40,-2,-46,-231,-496,-8,-287,-12
-33,4,14,10,36,-29,-120,-817,-306,-73
-260,-243,-195,-110,48,326,971,-294,-402,-287
-286,-298,-253,-158,-22,276,937,-97,-53,-266
-26,-90,-99,-85,-108,-42,159,-76,-126,-7
359,326,262,165,-34,-321,-794,236,-13,358
238,257,294,280,273,-56,-863,-11,-322,199
-156,-38,81,249,544,424,-414,-382,-349,-245
-55,-2,0,59,193,124,219,-832,-328,-182
-9,51,-24,-71,-119,10,1122,-773,-20,-82
211,213,189,117,5,142,-18,-816,-20,159
554,515,488,377,195,40,-1993,-663,248,547
262,179,202,125,27,-343,-2242,444,83,270
-346,-388,-359,-309,-260,-425,690,1172,-132,-307
-373,-397,-411,-353,-334,-301,1413,687,-119,-370
-236,-219,-251,-241,-259,-29,906,571,200,-190
-118,-146,-180,-204,-221,-2,360,783,263,34
5,-23,-65,-94,-104,-65,-308,566,873,221
-41,-60,-51,-45,21,29,14,97,677,57
-159,-161,-115,-78,-1,118,429,-85,-77,-169
-253,-186,-106,-14,136,282,625,639,-757,-353
114,245,290,370,481,469,393,78,-511,-6
394,397,379,338,274,293,-411,-1383,-302,329
339,254,149,28,-208,-127,-930,-1211,257,336
-60,-179,-252,-349,-538,-566,-50,-387,185,-45
-449,-417,-399,-339,-267,-70,1434,-113,-122,-477
-190,-81,-14,113,334,522,776,366,-400,-236
502,560,576,576,611,250,-1416,174,321,588
486,463,484,449,437,-463,-2696,-444,429,559
-15,-12,-12,-49,-90,-670,-1337,-532,-9,-92
-171,-179,-186,-196,-243,-211,495,-3,-187,-205
-185,-167,-185,-173,-153,562,1661,528,0,-198
-97,-168,-217,-222,-212,618,2042,553,-9,-46
-159,-221,-235,-230,-270,68,1144,510,214,-48
-203,-280,-280,-275,-269,-229,-325,210,308,-141
60,15,-5,-7,73,-13,-1474,-648,222,-11
228,151,121,102,132,75,-1030,-531,-209,106
133,135,124,115,65,24,-221,569,-155,52
25,64,78,50,-67,-576,-624,1411,-251,38
36,124,111,75,-32,-348,218,709,-42,115
-28,58,80,94,81,127,502,-467,-552,-219
-8,51,114,153,178,160,356,-1164,-873,-403
-122,-111,-43,21,104,347,940,-1169,-836,-291
-204,-185,-144,-81,-35,373,1497,-77,10,39
47,-27,-43,-40,-91,-140,-450,900,924,505
189,79,13,-42,-121,-417,-1892,938,1589,447
-62,-165,-201,-254,-281,-403,-781,177,780,-33
-236,-237,-250,-277,-351,-316,312,-41,266,-175
11,56,65,49,35,247,644,207,134,107
347,454,486,512,626,777,422,-159,-84,185
280,348,386,429,552,344,-747,-914,-716,-92
33,108,114,123,110,-296,-726,-1453,-737,-264
18,25,30,12,-69,-376,-139,-925,-485,-88
53,20,0,-27,-110,-207,49,330,157,138
-228,-238,-206,-175,-89,-16,416,840,137,-47
-558,-531,-425,-292,-3,323,1361,659,102,-335
-590,-609,-514,-356,-29,666,2274,478,-30,-405
-162,-245,-258,-221,-164,408,1135,63,354,12
179,13,-67,-172,-328,-131,-1889,-60,408,307
273,213,57,-190,-515,-637,-2410,881,205,218
123,182,68,-139,-416,-1068,-299,1752,-241,-44
294,420,379,286,151,-612,-278,251,-314,62
519,585,668,681,713,433,-199,-2304,-436,339
425,459,545,562,563,554,481,-2053,-350,312
118,83,117,96,85,182,666,100,-165,111
-239,-268,-254,-246,-232,-57,328,475,148,-160
-310,-314,-259,-168,-1,148,-2,-218,125,-210
-68,-37,11,117,307,285,-435,-292,270,-61
66,35,60,114,212,56,-711,4,-13,67
-52,-46,-80,-82,-77,-137,-508,434,41,-9
-188,-201,-238,-260,-232,-4,70,832,-63,-126
-184,-216,-240,-248,-196,251,570,704,151,-88
-230,-274,-264,-231,-123,164,755,-121,-116,-181
-214,-194,-200,-156,-71,40,971,-455,-144,-246
-8,-24,-57,-115,-159,-273,239,433,-164,-100
153,126,59,-107,-280,-599,-454,1012,5,57
195,183,152,18,-207,-470,-460,547,55,164
23,92,159,243,168,194,-508,-891,384,169
-68,-88,-23,166,292,373,-506,-1311,566,219
-98,-128,-133,-73,-8,120,471,-46,748,86
79,112,120,128,158,118,896,781,126,49
173,327,352,320,307,-24,-69,124,-669,-141
267,373,344,283,213,-83,-1011,-757,-775,-69
163,149,110,73,-11,157,-19,-840,114,160
-124,-211,-227,-236,-267,147,964,134,407,68
-506,-505,-474,-395,-312,143,1526,1179,150,-328
-171,-215,-192,-160,-117,-83,100,273,-306,-144
301,281,285,279,290,-8,-1204,-824,-316,178
86,50,95,112,180,-126,-698,-718,-535,-6
-10,-38,-32,-82,-142,-456,-311,-25,-201,24
-2,-24,-23,-49,-84,-26,-752,509,-61,90
-23,-38,-60,-50,-38,519,37,258,223,25
14,-16,-35,-41,-92,-176,-44,-164,60,-77
-143,-142,-151,-168,-243,-689,297,-256,102,-140
-211,-187,-165,-162,-148,186,1217,638,-35,-126
180,283,306,331,419,888,1019,607,296,198
547,556,535,477,438,326,-509,-520,560,500
391,410,409,368,348,-42,-1498,-461,229,181
-72,-66,-32,-2,122,-241,-1343,-325,-434,-247
-245,-231,-235,-258,-224,-292,-264,-332,-446,-301
-157,-195,-200,-223,-224,-112,426,47,-354,-127
-191,-209,-204,-116,-39,144,851,282,-83,-89
-327,-384,-327,-150,43,432,1250,449,25,-117
-346,-393,-367,-201,-31,356,1067,314,599,-76
-274,-333,-384,-387,-399,-283,349,305,492,-106
-53,-74,-206,-364,-562,-563,-98,523,163,-1
197,204,114,-43,-239,-200,493,1051,-413,16
418,442,378,226,-11,-303,371,605,-87,216
695,702,669,511,234,-601,-2171,-1388,-127,535
545,654,678,634,515,-277,-3217,-1768,-98,441
-112,-48,42,137,247,220,-659,-305,401,-19
-398,-371,-304,-179,0,388,536,1423,844,-273
-240,-239,-221,-151,-7,252,164,441,-201,-360
81,99,77,97,138,286,788,-1322,-745,-140
320,277,287,344,348,340,705,-1883,-624,226
160,128,145,191,185,19,224,-726,-84,200
-234,-274,-240,-166,-41,1,605,1284,126,-132
-442,-491,-503,-414,-287,-13,626,1045,288,-323
-477,-551,-590,-531,-457,-287,238,119,-22,-368
-90,-76,-124,-141,-168,-66,-109,-46,-204,-99
379,414,339,208,17,380,369,289,-492,157
419,493,483,413,288,695,546,360,-38,326
299,254,293,226,108,-43,-830,197,434,488
-147,-189,-147,-150,-180,-701,-1471,-212,378,41
-412,-389,-315,-238,-94,-297,-157,-501,-163,-430
-173,-88,-98,-75,-1,24,693,-171,-264,-316
49,81,48,16,23,34,564,-80,-97,-61
222,200,195,190,156,151,-41,-101,392,270
65,40,73,104,109,234,-211,157,28,155
-14,35,36,44,0,-83,-3,315,78,57
150,142,132,108,19,-360,-809,-314,336,256
73,56,69,56,78,-109,-537,-299,493,113
-140,-168,-139,-130,-58,107,1133,491,-46,-149
-355,-320,-301,-262,-150,562,2554,473,-347,-372
-297,-321,-335,-298,-244,322,1643,383,-380,-295
-13,-69,-130,-124,-197,-356,-306,896,92,-4
113,51,11,-14,-88,-579,-1823,545,38,58
2,38,46,53,47,-193,-1763,-610,-79,-124
58,43,53,24,-35,-271,-2000,-1233,-153,53
221,183,147,54,-133,-255,-819,-597,29,288
108,130,137,124,78,96,607,188,-233,81
-138,3,88,253,546,785,883,359,-41,-161
81,127,151,178,318,458,-62,267,128,31
200,187,116,1,-144,-148,95,29,292,190
-79,-121,-117,-112,-106,-133,632,-367,114,8
-100,-115,-110,-54,-2,90,227,-39,201,4
-88,-130,-138,-103,-76,-2,-139,-30,-8,-47
-407,-413,-415,-350,-274,220,1012,277,-98,-370
-309,-358,-377,-353,-322,157,1716,867,-257,-258
203,189,133,103,25,-379,464,688,-273,149
575,579,571,489,367,-438,-1191,-559,-387,401
353,439,480,433,378,-74,-1262,-1757,-67,167
30,62,91,94,179,90,-1019,-1184,87,-60
-133,-167,-237,-339,-355,-97,-480,-36,178,-135
-53,-68,-121,-228,-345,41,682,1532,82,-6
105,212,256,262,212,249,499,1594,211,186
90,111,184,177,174,-3,-360,-62,312,258
1,-41,10,-8,-18,-56,-88,-777,578,105
-139,-160,-102,-20,85,-21,-229,-1015,-70,-235
-224,-174,-127,-3,159,144,-248,-878,-322,-326
-217,-235,-227,-161,-70,138,711,101,-370,-223
-253,-244,-239,-123,-39,331,2045,1084,-143,-190
-231,-235,-209,-77,37,376,1133,840,-296,-148
-59,-99,-141,-28,40,74,-292,442,16,71
-39,-190,-263,-233,-240,-422,-469,717,111,87
-143,-228,-287,-380,-496,-459,558,530,13,-140
340,355,284,26,-323,-209,80,337,-19,207
654,798,766,576,319,328,-874,-578,117,485
583,648,673,585,538,-144,-2299,-1900,303,504
364,393,404,272,164,-874,-3099,-2619,139,211
12,25,54,30,32,-538,-1836,-1582,-196,-87
-159,-128,-123,-73,-43,114,360,532,142,-133
-231,-242,-235,-205,-163,352,1245,1366,-26,-188
-232,-210,-200,-141,-70,282,1073,585,-91,-196
-178,-176,-159,-93,8,153,613,322,-5,-105
-184,-209,-193,-115,-41,113,724,663,327,-43
-228,-284,-261,-201,-131,-37,757,229,-96,-159
-30,-24,25,102,207,320,1001,396,-299,-33
200,215,260,343,435,599,829,158,-361,154
45,54,58,52,7,244,-126,-367,-19,44
-103,-113,-140,-198,-306,-315,-348,-375,-150,-78
-21,0,-71,-156,-321,-567,-176,-135,207,58
24,32,29,8,-13,-247,-163,287,195,11
76,72,115,121,210,176,-344,530,272,37
129,40,42,-22,-31,-72,-1014,-203,388,188
-94,-97,-88,-62,-14,137,-209,-419,160,-97
-169,-157,-135,-55,77,381,625,232,-391,-268
-44,-42,-80,-70,-45,99,831,892,-250,-152
67,54,12,-26,-71,-245,147,559,-503,-92
84,75,69,2,-89,-287,63,-59,-426,-7
-53,-31,34,9,-4,24,648,-357,-511,-58
-254,-182,-131,-65,22,341,948,-127,156,-32
-290,-304,-270,-168,-24,185,-39,70,968,164
-126,-157,-165,-63,5,-35,-711,69,1171,171
-2,-49,-106,-116,-168,-336,-345,94,333,-71
191,180,97,17,-88,-130,160,512,-9,-90
371,344,283,202,98,-5,-595,11,-218,148
305,303,274,219,119,-6,-1127,-1130,-409,190
120,149,172,163,148,77,-31,-1314,-622,85
-116,-51,-25,-2,49,43,1246,103,-201,-34
-130,-78,-27,62,201,-38,122,1343,32,-17
-185,-88,-33,86,248,-104,-1068,514,65,-119
-228,-242,-245,-259,-242,-264,-275,-642,-199,-212
-106,-153,-217,-306,-394,369,1128,-425,-118,-128
95,44,7,-81,-280,46,593,-225,-124,3
41,17,4,-31,-139,-266,-262,-296,171,-21
239,178,158,128,114,-199,-1786,-308,290,190
198,225,217,200,203,-100,-781,245,-38,105
38,63,68,80,79,-85,936,843,-311,5
151,175,193,218,213,58,551,-276,95,197
223,228,267,305,352,183,-956,-842,245,259
177,169,146,131,114,287,-697,174,512,253
-51,-93,-94,-69,-24,305,954,710,315,25
-281,-251,-191,-100,67,238,1013,131,-135,-353
-102,-113,-116,-135,-130,-154,-335,-502,-398,-230
32,23,-40,-135,-283,-134,-98,-396,-168,13
-90,-122,-145,-203,-258,328,595,34,-111,32
-152,-138,-131,-98,-57,143,-113,-70,-64,-85
-157,-98,-90,19,74,-409,-413,167,-451,-248
-3,30,9,43,-40,-526,-97,573,-168,-34
175,99,61,9,-112,-209,-236,543,210,203
40,9,16,36,73,149,-341,212,736,112
-280,-295,-242,-160,10,78,-244,-135,663,-168
-221,-191,-194,-179,-148,102,173,342,312,-122
-37,-13,-55,-48,-80,-14,310,863,-248,-5
100,82,36,13,-33,-63,803,228,-167,54
88,33,38,46,76,177,1115,-850,-604,-45
-112,-114,-78,0,94,363,898,-363,-582,-156
-143,-95,-56,-13,84,218,234,537,-103,-82
42,152,142,93,27,-206,-609,-514,212,40
292,327,282,160,23,-329,-1663,-2003,-18,240
528,569,535,439,318,-65,-1557,-1512,27,412
370,352,364,316,250,36,-118,422,-149,210
-60,-68,-62,-62,-44,24,1226,1106,-150,-162
-323,-347,-335,-302,-184,-40,1206,1031,-84,-290
-149,-171,-176,-161,-96,1,130,482,386,-19
-11,-50,-34,-1,68,71,-463,228,323,115
-163,-164,-117,-20,118,315,448,6,224,-97
-372,-328,-241,-137,63,332,718,45,-136,-410
-311,-269,-239,-150,-37,53,96,141,82,-254
-229,-284,-308,-275,-286,-166,-377,233,209,-55
-24,-70,-127,-181,-335,-330,28,838,397,94
405,297,182,20,-236,-620,-877,502,205,376
453,403,251,40,-249,-339,-757,-250,-63,363
466,511,464,354,162,-170,-1010,-1197,-467,341
339,448,495,512,515,310,-832,-2141,-391,283
-21,71,186,317,477,657,145,-807,-425,-127
-236,-191,-152,-62,-15,-53,424,1036,-129,-372
-458,-473,-495,-452,-419,-621,179,1613,-185,-512
-281,-232,-279,-257,-213,-239,-159,811,-30,-247
60,71,85,80,121,184,-544,-931,-55,88
251,291,336,312,300,495,900,-1733,170,309
61,75,132,106,98,463,2048,-1334,130,174
-174,-209,-186,-168,-165,-180,400,0,426,-45
-136,-249,-289,-288,-315,-702,-1297,857,370,-58
-207,-286,-336,-336,-274,-117,-241,1766,154,-187
33,-25,-70,-105,-118,132,521,1517,-340,-27
405,389,362,287,138,-25,-10,461,-169,344
586,589,626,601,531,-39,-1170,-1494,9,468
334,383,452,466,517,490,-891,-1826,211,230
-171,-173,-97,-34,168,948,579,-335,-82,-175
-400,-387,-348,-248,-58,392,796,508,-66,-312
-235,-258,-277,-230,-209,-442,-74,571,-258,-239
-68,-66,-95,-114,-198,-571,-356,331,-334,-169
-91,-79,-47,-23,-14,-97,-143,81,-690,-188
-148,-95,-59,-13,61,244,121,242,-568,-191
-212,-278,-268,-280,-232,63,480,739,-48,-16
-182,-294,-308,-320,-338,42,456,963,1094,186
-108,-148,-141,-108,-115,89,202,375,1082,34
60,80,38,-19,-121,-149,316,-169,666,18
44,23,-32,-160,-283,-447,296,169,314,40
4,35,-16,-122,-264,-559,-602,392,292,10
85,109,92,32,-61,-347,-569,-1295,-48,52
455,541,565,577,556,407,268,-2305,-276,372
656,731,817,894,969,839,1,-1345,-691,526
134,226,307,384,491,495,-92,-498,-700,-25
-108,-126,-102,-125,-108,-196,-671,418,-388,-211
-146,-180,-179,-209,-237,-291,-562,836,157,-167
-313,-403,-416,-370,-331,-225,57,762,248,-279
-452,-523,-539,-474,-361,-18,1240,598,198,-350
-397,-391,-384,-321,-188,294,2584,275,-229,-272
-80,25,28,100,165,474,1789,-240,-112,23
316,318,287,277,225,-98,-1344,76,318,476
440,405,337,244,87,-501,-3448,581,704,547
136,92,45,-64,-187,-420,-1977,1102,315,92
-9,3,-40,-109,-231,-463,107,656,-162,-131
36,22,-14,-93,-234,-372,664,-380,-737,-110
-55,11,45,29,15,145,1067,-795,-548,-184
-169,-101,-21,61,235,373,603,-721,-155,-183
5,32,75,132,286,234,-514,-730,444,92
196,190,209,242,319,158,-1328,-1002,185,166
46,86,92,134,196,59,-663,-558,-161,-26
-224,-239,-240,-202,-112,92,1280,188,-482,-270
-239,-260,-295,-279,-243,780,2337,923,-132,-259
162,82,3,-65,-169,519,1028,887,60,171
298,241,183,117,-23,-343,-1205,220,312,270
4,-66,-68,-103,-165,-672,-1557,384,389,-17
-250,-312,-323,-308,-311,-612,-304,649,525,-172
-322,-364,-373,-326,-261,-228,-151,71,-61,-259
-289,-212,-164,-66,27,93,189,-141,-424,-219
-26,36,106,168,191,-49,598,-577,-185,196
147,188,219,237,208,112,844,545,550,358
239,209,190,160,117,238,720,718,199,170
220,175,123,47,-43,52,228,403,-247,8
229,258,261,193,149,169,-242,199,-468,-10
217,352,435,421,431,-10,-777,-1600,-292,35
150,184,239,185,161,-230,-1197,-2484,-127,131
171,148,128,45,-27,-75,-918,-1357,226,232
31,-34,-50,-48,-28,128,-34,134,-73,-8
-186,-168,-175,-108,-30,115,638,716,-151,-252
-410,-481,-503,-459,-407,283,1364,658,-238,-372
-74,-43,-86,-124,-214,-70,97,749,228,-55
202,142,113,14,-147,-440,-711,474,374,273
176,168,142,70,-92,-274,721,-823,395,187
217,258,321,400,426,252,230,-1036,-234,138
316,406,469,570,665,-179,-2139,-750,-204,183
-272,-277,-242,-173,0,-764,-1839,74,-147,-225
-516,-549,-573,-581,-549,-139,220,964,24,-386
36,-50,-140,-253,-425,267,173,1496,84,56
444,454,403,364,334,999,-457,719,247,343
236,264,291,275,334,548,-599,-1088,-218,90
10,26,38,-38,-85,-501,-10,-1746,-315,-90
81,75,82,14,-55,-450,614,-811,-332,-7
-14,31,66,61,72,7,840,-205,-147,-67
-162,-86,-31,18,129,237,426,847,-44,-132
-134,-77,-68,-13,61,197,258,1126,493,36
-130,-205,-219,-212,-209,-47,296,339,404,87
-129,-179,-181,-126,-100,25,595,-177,229,4
17,-45,-30,8,57,231,341,-169,-21,46
80,62,61,69,55,132,-217,321,238,85
-67,-81,-93,-93,-128,-293,-110,470,-18,-92
-113,-91,-110,-86,-99,-171,741,305,-159,-190
-201,-214,-203,-117,-42,-91,587,92,-403,-299
-392,-391,-381,-265,-143,113,983,203,-502,-511
-433,-424,-422,-346,-243,538,1613,486,-696,-540
-144,-131,-146,-125,-108,418,634,1012,56,-14
378,327,287,202,137,-210,-2237,314,547,648
469,474,409,288,170,-714,-2607,-988,741,666
297,321,298,174,30,-602,-212,-829,681,334
167,285,347,323,298,331,1347,-681,-17,-96
209,250,299,277,268,248,-26,-524,-584,-15
201,158,160,99,9,-398,-1864,11,112,297
-82,-168,-180,-245,-321,-620,-1315,690,420,125
-296,-319,-318,-285,-193,171,441,605,393,-161
-245,-259,-213,-89,122,578,761,-360,-261,-291
-121,-93,-86,-6,67,228,631,-597,-395,-193
-56,-42,-40,-10,-7,180,482,-189,-367,-59
-111,-115,-104,-50,14,192,341,51,234,-62
-183,-252,-234,-181,-90,110,639,671,440,-154
-384,-455,-465,-377,-268,43,1493,1445,177,-356
-308,-406,-484,-508,-557,-646,786,1896,-315,-340
-69,-27,-73,-107,-200,-441,-439,1744,-270,-187
144,306,397,485,626,449,-1020,-504,-496,-5
444,547,614,658,755,873,-705,-3174,197,537
558,544,547,462,362,281,-566,-3028,445,747
508,544,527,369,124,-310,-291,-1293,46,358
272,284,271,111,-133,-218,-106,34,-411,-46
70,30,-11,-120,-275,-230,-129,613,-100,-39
-133,-224,-245,-257,-232,-160,-11,736,-16,-35
-272,-297,-324,-313,-260,-134,584,844,64,-123
-410,-404,-397,-286,-156,-185,591,1056,-81,-272
-317,-328,-315,-231,-130,-298,38,1046,268,-190
-145,-206,-217,-210,-221,-348,-556,408,249,-49
-59,-102,-130,-109,-111,194,-99,-52,374,13
224,180,175,200,227,350,-434,-409,152,253
356,383,352,289,169,-50,-809,-816,-202,220
49,127,131,53,-2,-108,-172,-650,-625,-214
-222,-87,-36,6,139,428,975,-321,-509,-398
-211,-163,-123,-38,114,429,1966,-210,-508,-204
-78,-63,-50,44,130,316,1735,538,-325,-13
178,206,238,313,385,300,-413,811,24,176
297,313,296,265,244,122,-1906,17,435,227
-12,-109,-159,-254,-328,-382,-1500,-264,519,58
-421,-495,-511,-482,-466,-486,-207,-350,361,-204
-458,-501,-459,-346,-261,-180,863,342,-28,-216
-140,-135,-140,-93,-75,45,1501,818,-45,-35
100,107,83,46,-6,115,972,496,-225,0
170,223,162,54,-50,95,-96,-266,325,108
325,354,325,202,117,181,-258,-663,484,337
597,617,597,504,362,-47,-833,-1199,365,549
442,418,446,392,289,-484,-2132,-824,-121,350
-27,14,59,52,100,-310,-1741,-181,-394,-147
-145,-112,-77,-69,19,-111,-632,63,-501,-274
-51,-42,-22,-33,-38,-216,-16,198,-43,-67
-79,-88,-74,-44,-13,-143,768,112,-132,-59
-106,-78,-70,-35,34,130,1093,215,-51,-94
-175,-210,-200,-188,-122,382,676,284,-106,-136
-213,-240,-267,-225,-125,632,399,327,16,-161
-92,-150,-196,-195,-201,238,214,298,-13,-56
-92,-115,-151,-175,-237,-170,358,481,152,-35
-202,-245,-231,-174,-132,-337,489,1161,156,-64
-60,-90,-93,-36,-56,-248,71,915,541,77
199,153,131,103,21,-159,-864,-249,415,110
170,185,185,145,107,69,-577,-1682,-172,-100
-52,-6,22,36,83,317,403,-1788,-851,-249
-208,-100,-61,-1,91,262,1062,389,-519,-199
-264,-234,-191,-123,-53,-157,177,1719,-35,-43
-58,-89,-136,-174,-271,-534,-4,790,290,131
0,3,-11,-19,-62,9,1506,-6,-411,-3
51,163,221,326,416,738,1592,-635,-414,27
332,369,413,460,543,549,-1556,-1574,336,363
457,423,369,279,255,67,-2911,-415,1159,508
155,57,-10,-135,-204,-405,-950,722,802,192
-67,-90,-138,-227,-344,-354,416,307,214,-99
-128,-86,-120,-152,-216,-105,568,122,-366,-208
-16,31,9,38,41,-10,-66,185,-166,-63
50,29,59,103,120,-192,-880,237,-182,10
-101,-91,-56,-3,8,14,387,432,-224,-154
-132,-163,-120,-89,-35,211,1112,333,-189,-137
42,11,8,18,15,118,473,-128,232,119
27,-9,-12,-14,-66,-113,-352,-871,83,103
-60,-16,-4,-9,-20,-164,-792,-1039,-100,-55
-45,8,15,18,54,20,-215,-294,-580,-160
78,136,124,117,103,126,301,302,-460,-111
20,-20,10,7,-7,-1,128,261,-309,-56
-97,-168,-143,-155,-176,-71,156,669,463,63
-111,-237,-267,-309,-344,-253,203,617,768,153
-169,-204,-213,-217,-194,-76,511,487,282,-17
-161,-119,-47,59,252,427,489,259,-496,-215
-51,20,36,103,198,160,-240,-262,-458,-210
-73,-33,-60,-40,-94,-240,-406,-606,-447,-211
47,57,11,-24,-180,-241,232,-235,458,92
309,243,207,107,-17,-27,517,1040,1058,460
265,302,315,274,263,192,57,383,477,235
132,226,326,402,561,400,-774,-1679,-624,-87
127,167,248,331,469,533,-15,-1759,-491,-11
144,54,75,59,62,117,271,-498,-247,96
4,-77,-107,-164,-234,-259,2,804,-108,-15
-86,-147,-195,-260,-364,-527,-457,838,-379,-145
-73,-91,-165,-229,-326,-453,-596,357,-228,-79
-60,-71,-129,-139,-126,-65,-103,346,-105,4
10,0,-63,-63,-81,49,179,421,12,-57
-15,-90,-113,-117,-194,-169,-41,24,-78,-160
-148,-107,-83,-72,-137,-220,156,-327,-494,-220
-308,-195,-123,-69,7,-50,29,-230,-697,-125
-299,-171,-101,-13,184,253,-121,623,977,237
-135,-62,-22,28,162,241,-107,367,1547,327
-155,-95,-91,-72,-8,45,-79,-781,803,14
181,177,153,127,108,97,294,-558,368,99
518,511,475,440,377,353,590,-148,387,338
419,341,345,279,247,223,450,95,-196,137
87,22,26,5,6,53,356,689,-610,-190
-214,-280,-255,-247,-197,-134,14,695,-1084,-462
-190,-225,-243,-264,-307,-281,-490,-10,-582,-206
-81,-130,-154,-202,-271,-267,-572,-467,164,236
-87,-64,-59,-74,-91,-16,167,-450,620,235
-249,-151,-77,26,169,487,1482,-147,547,-127
-249,-119,-37,106,316,769,1665,89,365,-285
6,-60,-52,-23,68,220,-63,163,-139,-56
345,211,148,39,-87,-660,-2679,245,421,298
388,304,221,32,-265,-1186,-2797,254,167,307
261,290,225,52,-248,-713,-415,-380,-342,136
100,214,233,186,103,105,565,-912,-749,-73
110,212,266,329,421,627,581,-732,-288,-44
66,15,50,112,211,501,850,132,-166,-29
17,-33,-37,-9,34,168,484,382,-193,-57
-171,-177,-170,-134,-46,-193,-287,320,-448,-215
-450,-401,-383,-303,-194,-231,648,656,-253,-369
-429,-463,-465,-380,-287,-158,944,889,-72,-262
-179,-161,-146,-67,-24,320,397,314,186,-112
27,20,45,93,137,762,-661,-206,393,92
107,52,25,23,6,502,-935,-546,747,277
203,104,51,-35,-177,-780,-955,-624,467,293
204,178,126,32,-120,-1222,-128,174,-18,143
173,211,229,238,217,-430,246,-147,-715,-11
227,302,305,297,291,269,145,-811,-914,-79
226,241,258,206,172,635,277,-202,-448,142
-5,-36,-29,-51,-28,797,171,169,833,293
-224,-289,-315,-321,-287,206,-26,967,1113,140
-269,-291,-329,-331,-373,-369,410,1882,664,-54
-413,-409,-415,-345,-271,-97,1239,1294,-345,-396
-360,-290,-263,-177,-43,226,1682,-203,-453,-459
-28,74,111,196,314,507,941,-1728,-434,-248
409,462,434,412,373,285,-1016,-2201,23,211
696,641,572,431,234,-143,-2794,-1368,207,617
656,558,489,307,44,-703,-3048,-403,391,624
66,-11,-10,-81,-199,-677,-974,97,-44,86
-244,-211,-165,-111,-87,-224,645,600,-95,-218
-201,-185,-138,-87,32,-65,460,792,-32,-150
-118,-125,-122,-127,-38,27,-177,584,325,-43
-215,-287,-291,-279,-206,-8,136,-108,-13,-197
-238,-281,-292,-225,-137,59,782,-359,-269,-231
-130,-105,-54,45,163,274,985,395,-657,-184
98,185,209,233,269,342,1074,1190,-335,7
152,128,91,47,1,168,1020,570,109,201
-21,-55,-103,-181,-281,-109,711,294,521,98
-78,-63,-81,-110,-129,-154,-302,137,98,-25
-165,-38,36,130,293,141,-1259,-242,-35,-176
-136,-95,-52,-22,67,-95,-1144,-90,49,-125
-33,-61,-132,-246,-370,-435,-222,-60,218,-31
-76,-86,-106,-182,-270,-287,304,-220,-328,-148
123,185,185,212,141,15,436,-396,-256,48
139,180,239,306,351,420,593,-1170,-236,110
9,97,167,256,382,695,768,-759,-117,-20
137,127,158,158,182,240,-127,-98,-67,145
220,176,132,99,4,-221,-1049,93,158,223
28,-32,-75,-106,-211,-555,-735,559,22,1
-319,-316,-302,-256,-202,-365,248,975,0,-283
-436,-444,-368,-240,-22,-66,587,419,-322,-338
-417,-415,-371,-232,-4,421,1646,137,-195,-233
-214,-324,-372,-370,-344,293,1582,875,424,14
160,7,-146,-334,-583,-214,-389,984,1242,295
388,357,238,59,-173,145,-1634,148,340,236
422,571,553,478,356,-52,-1553,-1133,-408,107
484,590,621,570,534,-402,-1357,-2187,-699,201
364,443,433,402,390,-34,-207,-1788,-859,58
132,127,155,170,194,257,591,-781,-748,-42
-89,-69,5,52,109,116,641,127,-237,-109
-326,-300,-208,-101,9,105,646,776,79,-130
-266,-298,-302,-247,-259,-104,538,826,1129,260
-284,-371,-394,-366,-313,72,76,862,1148,130
-160,-181,-222,-209,-168,336,113,856,296,-269
57,20,-27,-28,-29,74,260,349,-979,-393
110,103,81,145,167,51,159,-1,-916,-169
36,20,19,81,86,-69,-876,-47,-177,99
-89,-72,-75,-40,-71,-39,-496,265,929,341
-225,-239,-200,-186,-192,-147,519,825,962,249
-261,-255,-261,-300,-306,-417,475,466,126,-154
-135,-72,-112,-178,-171,-352,-754,-543,-702,-316
69,193,184,125,106,35,-803,-575,-347,-92
392,435,429,359,282,95,2,-169,536,404
396,413,413,345,298,-31,-272,-1272,1099,400
205,204,231,193,202,108,-165,-1349,-93,-11
235,252,242,209,170,412,609,28,-588,-31
70,66,91,100,120,397,740,986,-569,-83
-166,-156,-116,-60,-6,86,735,832,-84,-166
-176,-189,-171,-144,-98,-347,-180,-354,-13,-81
-146,-143,-137,-126,-70,-222,-568,-589,318,41
-122,-147,-142,-129,-70,-25,-539,-47,-78,-109
-231,-263,-268,-202,-125,39,208,324,-367,-357
-347,-429,-417,-312,-213,-188,246,1153,-405,-376
-427,-469,-462,-358,-281,-105,773,1858,-144,-270
-273,-322,-380,-413,-539,-343,1497,1202,274,88
294,355,253,60,-274,-172,369,-1066,566,431
933,1042,1020,881,656,539,-2449,-3435,331,656
872,927,965,925,887,438,-2673,-2374,454,625
197,143,180,178,223,106,207,125,-155,111
-319,-365,-343,-274,-187,24,1400,1247,-306,-327
-383,-408,-417,-371,-273,-172,1027,1505,-350,-390
-187,-177,-204,-190,-147,-282,127,545,-159,-225
4,-6,-5,19,44,-221,-552,-233,-205,-10
100,116,151,205,233,175,-132,-328,-134,33
-14,9,50,109,200,622,645,-356,-278,-105
-137,-109,-78,-42,42,435,664,133,40,-114
-145,-239,-240,-251,-272,-529,-420,810,398,76
-237,-360,-383,-400,-479,-798,-1014,988,752,40
-352,-438,-461,-478,-516,-193,-25,574,298,-159
-144,-145,-157,-172,-153,483,955,-108,85,46
270,364,418,455,541,833,945,-754,-447,201
382,572,641,699,775,390,16,-1031,-522,0
66,96,120,123,158,-251,-111,-1107,-376,-115
82,35,-5,-100,-254,-443,501,-658,34,61
301,264,249,171,-1,-172,-128,-15,281,269
330,279,243,192,102,9,-1754,347,605,385
-91,-193,-252,-306,-314,-367,-1487,803,86,-14
-343,-324,-329,-324,-216,-393,489,1301,-274,-353
-142,-44,-22,20,125,91,424,667,-496,-267
46,87,89,98,20,261,327,55,-41,-1
73,30,56,66,-21,57,-39,-338,61,112
-79,-79,-53,-6,8,-43,-229,-433,145,-10
-163,-167,-149,-114,-100,-388,-444,-570,-80,-129
-169,-131,-127,-82,-22,-90,81,-752,-73,-169
35,24,34,85,174,390,430,-341,-132,11
79,62,67,119,216,592,794,411,23,78
-259,-341,-302,-218,-99,357,1650,1347,-86,-191
-323,-357,-368,-327,-327,-117,1267,2004,52,-265
61,74,-26,-189,-378,-423,165,528,-299,-102
186,208,122,-72,-269,-287,-409,-1114,-89,107
265,220,199,110,-2,-277,-1874,-729,449,423
167,160,142,58,-78,-559,-2879,-780,728,295
33,57,58,29,19,-152,-1416,-1266,89,30
217,332,381,470,608,722,877,-600,-367,95
353,424,520,582,662,816,1387,-445,-388,220
72,112,193,238,339,530,735,-399,-68,14
-148,-184,-141,-96,15,34,123,596,-39,-126
-95,-132,-123,-120,-118,-292,9,648,160,-83
-70,-115,-123,-128,-143,-351,-6,260,-6,-82
-122,-119,-143,-139,-154,-181,126,268,-166,-141
-169,-188,-201,-173,-174,-58,193,252,-499,-231
-254,-274,-289,-237,-200,-50,462,138,-178,-258
-420,-433,-424,-366,-284,-54,761,281,83,-305
-332,-325,-351,-306,-266,-50,583,571,602,-20
149,105,77,46,-10,-36,-536,633,799,416
576,592,571,488,356,119,-1156,-5,336,484
272,324,336,299,319,83,-773,-705,-733,5
-125,-91,-119,-144,-129,-240,352,-285,-295,-218
12,51,34,0,-36,-48,847,-176,261,-81
326,355,337,291,175,17,316,-732,308,206
205,145,132,90,-19,-382,-1015,-914,-130,204
-3,-28,-59,-92,-165,-382,-1318,-174,86,135
-263,-237,-203,-145,-28,325,-475,271,-236,-172
-298,-272,-236,-131,83,591,-92,966,52,-150
-72,-139,-132,-73,26,280,244,924,398,1
61,3,10,38,30,225,1236,655,443,3
-77,-104,-63,-11,28,235,1315,340,-447,-200
-310,-233,-215,-141,-95,-78,658,579,-672,-437
-356,-321,-318,-285,-288,-283,51,703,-372,-362
-143,-134,-142,-143,-195,-175,153,-339,92,-69
337,316,298,255,186,-116,-335,-1743,-144,199
740,755,743,654,563,-109,-1349,-1660,135,620
576,593,576,473,390,-11,-1485,-1501,48,577
125,152,125,59,32,372,-204,-942,174,277
-23,-57,-80,-125,-158,170,79,-7,167,107
17,36,-1,-33,-141,-245,-44,883,-28,-143
-140,-132,-117,-30,28,-16,573,1521,-250,-243
-222,-269,-269,-225,-201,-159,545,1017,137,-98
-189,-268,-308,-310,-388,-357,223,224,298,-33
-162,-182,-189,-141,-142,-230,49,-122,770,41
-230,-230,-164,-24,138,-28,39,40,366,-99
-281,-230,-151,-1,213,240,600,-144,-411,-336
-253,-232,-189,-74,131,756,1478,31,-936,-404
-123,-73,-71,-25,95,1088,1785,864,-769,-248
203,202,179,72,33,443,173,181,-203,141
344,344,290,98,-101,-466,-2410,-1069,850,390
346,250,153,-74,-432,-1406,-3070,-935,1232,499
177,107,11,-214,-577,-1428,-783,-141,545,187
185,185,180,107,-2,-152,971,777,-360,83
131,235,306,425,599,797,727,453,-604,-68
-121,-23,82,266,543,636,0,-585,-873,-341
-227,-198,-138,-44,98,131,-217,-844,-597,-309
-180,-230,-223,-226,-246,-218,242,321,-282,-85
-123,-148,-150,-133,-148,-201,546,1027,244,86
49,-8,11,23,17,51,418,374,385,147
190,163,165,173,171,310,144,-780,532,188
223,153,141,97,77,214,-684,-765,17,105
33,31,-17,-47,-82,56,-507,270,-149,-110
-377,-381,-378,-334,-256,-230,-91,1424,27,-232
-436,-408,-389,-344,-275,-239,5,1251,549,-62
-77,-67,-79,-61,-91,-146,323,-520,455,133
337,385,394,381,316,226,735,-1316,-62,175
291,331,360,357,345,282,140,-768,-367,66
-23,-27,-30,-48,-63,8,-335,410,-115,-113
-228,-289,-326,-302,-246,222,814,249,-426,-254
-289,-240,-219,-108,63,613,2035,-21,-553,-342
63,126,190,279,397,64,380,-51,-478,-60
226,228,261,244,167,-757,-2246,-104,54,273
63,55,100,53,-34,-395,-2171,311,174,231
-51,4,-2,-61,-120,199,-287,-170,38,-54
94,22,-37,-159,-251,102,238,-502,437,175
208,149,101,-13,-164,-278,326,-442,885,309
87,69,65,0,-75,-286,515,-42,116,46
-65,-73,-92,-109,-144,-469,-99,539,-261,-188
-100,-138,-146,-145,-149,-321,-1065,661,-187,-161
-73,-90,-95,-93,-113,88,-506,70,120,-44
-220,-236,-211,-174,-75,317,798,-245,91,-116
-271,-259,-226,-119,60,531,1221,-4,277,-140
-75,-129,-98,-26,91,193,264,530,19,-11
264,251,227,244,256,-78,-704,562,-245,176
359,387,379,424,474,338,-19,-177,-569,235
219,289,256,268,242,401,583,-707,-186,143
88,106,74,-2,-134,-23,-40,-601,56,10
44,65,75,-21,-203,-363,-195,-509,109,-16
-65,-33,19,-21,-115,-386,-52,-130,-249,-151
-221,-153,-104,-52,7,-25,-45,108,-138,-242
-156,-171,-175,-111,-5,173,-45,308,143,-22
-45,-37,-71,-30,35,160,355,393,441,79
-162,-162,-165,-111,-11,12,877,659,256,-90
-220,-235,-272,-243,-190,-254,642,567,541,-21
-79,-152,-205,-253,-260,-532,-523,-201,133,70
53,53,43,41,40,-161,-755,136,-430,-33
57,75,116,166,250,579,158,529,-853,-173
-2,-43,-46,-9,48,528,821,476,-343,-154
-7,-103,-155,-205,-263,-63,-10,-30,33,25
70,119,47,-48,-195,-31,-872,-1450,144,155
323,398,357,262,153,-4,-1264,-1482,250,484
294,359,375,320,249,-109,-452,-224,651,405
111,152,181,131,28,-303,582,468,70,-96
103,141,163,135,86,-121,621,205,-198,-96
49,63,92,126,193,52,-25,-177,-351,-71
-144,-90,-37,79,262,301,-217,-233,-397,-233
-136,-136,-127,-74,33,30,-134,139,-430,-194
-86,-122,-155,-184,-197,-107,229,298,-63,-55
-164,-219,-225,-223,-220,-42,311,269,116,-64
-150,-153,-146,-88,-54,145,241,230,586,20
-39,-93,-76,-25,3,44,137,194,383,28
-52,-93,-102,-62,-67,42,347,439,159,-51
-165,-236,-248,-201,-198,170,432,952,-30,-70
-228,-271,-322,-291,-295,181,385,1116,226,-77
-117,-85,-129,-139,-192,-373,-4,183,91,-104
96,199,185,127,86,-316,-311,-1351,-292,-122
556,547,517,338,177,-328,-1247,-1763,-684,234
460,469,454,329,192,33,-750,-1290,-626,254
117,126,144,128,135,283,-598,-693,-430,97
17,28,32,45,58,255,-369,164,483,224
-27,-46,-40,-17,-9,-46,68,540,816,203
-189,-168,-136,-70,-31,-124,367,470,632,-128
-341,-362,-328,-273,-223,-303,5,924,486,-217
-301,-321,-323,-291,-251,-198,141,876,514,-109
-1,-40,-60,-51,0,39,323,-528,-362,-72
402,434,458,486,559,675,838,-558,-745,115
379,414,465,484,557,750,816,-346,-949,55
-60,-110,-97,-174,-184,0,182,652,-261,-111
-387,-463,-421,-432,-365,-183,225,1769,275,-175
-514,-471,-439,-357,-237,-250,725,463,465,-252
-142,-112,-106,-59,-39,-423,85,-1202,591,100
486,527,504,485,372,-228,-1440,-1884,758,556
459,487,485,454,355,210,-1811,-1579,-306,217
46,-11,-46,-134,-243,-58,-808,394,-434,-13
-182,-268,-296,-365,-449,-313,540,1376,-576,-157
-120,-44,-37,-35,-48,-66,1022,1002,-540,-227
-124,-22,35,138,287,530,1592,444,66,-153
-60,-1,16,100,234,573,1757,-6,830,0
84,79,75,69,72,-27,-54,-360,169,41
188,205,198,141,60,-481,-2466,-648,-77,94
67,17,-15,-105,-167,-536,-2496,-396,-132,46
-176,-224,-261,-314,-320,-186,-369,379,33,-111
-257,-318,-288,-271,-164,318,980,885,-114,-190
-36,-55,-35,18,85,277,812,572,-69,-21
114,102,99,153,184,95,217,-300,-218,100
-7,13,17,76,99,141,538,-422,-121,-24
-105,-189,-182,-204,-275,-269,186,290,-195,-128
-56,-184,-264,-411,-588,-725,-764,431,48,-105
91,13,-68,-208,-323,-508,-848,-303,25,-36
243,346,365,382,472,627,616,-872,-254,-2
230,366,452,565,773,1082,1662,-976,-357,112
290,314,331,324,334,366,1125,56,270,550
111,123,150,89,47,-149,-176,569,-61,228
-165,-72,-31,-11,46,-238,-1563,49,245,-74
-65,-78,-72,-81,-71,-460,-1953,-593,636,92
92,84,78,62,4,-198,-752,-779,131,-54
-35,-59,-62,-78,-86,135,323,54,-534,-235
-120,-143,-163,-171,-151,205,684,757,-55,-129
-85,-114,-112,-96,-65,-31,530,701,112,70
-88,-111,-114,-65,-67,-154,430,530,445,102
-137,-201,-203,-130,-108,-119,291,624,575,-57
-177,-171,-185,-137,-128,-23,249,1046,573,-149
-191,-170,-179,-164,-163,21,40,326,-83,-198
-16,11,-9,-64,-139,-45,-133,-1250,-398,-46
178,179,217,162,79,-196,-301,-1864,-743,48
157,265,304,335,299,-27,2,-727,-696,-30
9,45,27,7,-33,-261,147,-139,-448,-2
-143,-253,-330,-382,-381,-217,504,508,663,183
-65,-148,-184,-195,-171,439,388,1467,623,92
60,155,220,274,351,1051,-123,1011,268,12
91,154,224,296,418,506,-426,-449,344,72
135,151,162,181,220,-67,121,-1140,153,51
-14,-24,-13,-8,3,-255,272,-850,-639,-129
-139,-125,-138,-133,-163,-283,124,-70,-598,-236
78,53,24,5,-67,-181,-293,577,-612,-86
286,249,210,151,39,-116,-553,604,-250,120
86,29,-1,-52,-89,-157,-223,437,-189,33
-147,-113,-113,-96,-67,24,254,207,-535,-166
-102,-105,-110,-124,-143,-130,60,-163,-345,-129
65,19,-9,-56,-95,-135,37,-297,959,114
-44,-83,-37,-18,46,38,18,-345,914,121
-320,-250,-178,-89,11,48,-114,-30,715,52
-126,-102,-91,-41,17,4,-309,148,693,329
154,173,161,171,185,209,87,189,391,222
202,242,247,247,267,304,433,-82,-316,-93
-33,28,29,31,65,96,352,-146,-478,-210
-82,-81,-88,-94,-128,-197,-33,231,-418,-119
5,-19,-45,-60,-153,-246,-93,214,235,36
78,1,-42,-54,-141,-199,-48,72,131,90
-8,-8,-50,-52,-142,-147,-15,-100,-223,12
-155,-118,-119,-73,-47,-38,-86,-221,-272,-53
-122,-81,-35,37,155,287,97,-334,162,-81
83,75,90,140,192,308,176,9,-113,-61
140,145,128,126,111,139,34,149,-449,-144
77,16,-18,-70,-133,-299,-566,122,-643,-225
-112,-175,-234,-239,-332,-334,-247,69,-126,-173
-181,-200,-217,-209,-225,88,379,-347,166,-10
-65,11,27,42,47,197,-4,-370,526,347
249,292,339,359,376,94,-477,254,1033,690
258,343,384,416,488,152,-25,-90,518,122
-89,-71,-79,-117,-98,-201,763,204,-898,-467
-241,-213,-238,-298,-317,-174,525,424,-870,-366
-135,-105,-118,-148,-136,13,34,479,-557,-84
23,26,10,27,51,132,32,499,507,224
81,48,49,82,117,56,-191,-275,932,222
159,119,96,88,61,-75,-722,-628,674,125
71,9,-3,-15,-13,-62,-768,-818,-79,-51
-240,-256,-236,-171,-116,99,350,-238,-419,-341
-291,-315,-312,-255,-217,-10,727,1059,-363,-246
-56,-49,-68,-82,-108,38,331,1206,165,59
186,187,189,166,108,32,-383,-40,156,244
378,402,376,312,222,-3,-259,-1364,-323,111
374,366,370,303,249,-3,-18,-995,-565,49
157,157,184,135,69,-186,-270,5,2,114
-214,-218,-173,-141,-118,-318,-94,663,136,40
-377,-380,-311,-160,40,42,488,612,510,1
-367,-383,-320,-197,-7,227,1028,21,-33,-331
-284,-300,-320,-294,-323,50,1405,489,-59,-330
-41,-101,-188,-278,-449,-139,97,573,58,32
316,295,207,38,-136,65,-1300,-477,230,307
394,425,444,387,423,393,-2215,-965,-171,217
180,248,305,298,385,29,-1385,-400,-189,-21
111,116,154,98,84,-491,-299,-268,-197,-44
30,40,59,43,-17,-368,182,-252,-370,-116
4,-9,9,57,74,207,820,70,-598,-92
-52,-57,-46,-15,81,666,1545,190,-175,-42
-146,-225,-251,-237,-188,561,1567,357,-26,-3
5,-79,-154,-180,-271,10,251,433,510,203
180,69,6,-122,-388,-1207,-1808,-13,813,359
36,43,17,-58,-196,-1095,-1733,-85,539,137
-204,-147,-95,-31,102,-169,-298,1035,48,-126
-336,-191,-66,135,407,476,544,683,-84,-265
-222,-84,37,175,387,622,854,-781,-589,-227
166,245,277,257,274,730,973,-1318,-177,36
460,388,328,197,40,689,147,-1123,147,183
280,131,45,-80,-279,77,-457,286,-172,41
-33,-153,-201,-259,-359,-500,-287,1080,-604,-168
-261,-221,-185,-152,-108,-328,459,309,-451,-225
-213,-139,-68,30,162,223,605,-742,-166,3
-2,40,77,148,229,77,-314,-466,527,234
141,85,82,65,27,-454,-840,573,372,71
132,103,46,-15,-83,-274,-442,757,-460,-202
-51,-91,-153,-139,-131,45,291,228,-1027,-195
-200,-189,-180,-129,-108,237,431,-850,-78,34
-404,-384,-317,-261,-276,-159,-139,-632,1028,230
-299,-311,-285,-258,-313,-510,-201,772,2567,402
80,46,54,49,26,-220,223,752,1968,214
343,380,362,320,298,326,975,442,-71,0
528,572,558,482,469,619,730,-544,-1275,65
199,292,339,346,446,281,-535,-1181,-1122,-92
-105,-45,11,108,316,46,-1349,-852,-684,-241
-69,-66,-75,-37,56,-78,-982,18,47,-165
-50,-109,-128,-143,-157,-115,242,549,-83,-69
-261,-255,-275,-258,-217,320,1769,511,-306,-169
-228,-272,-325,-355,-367,266,1408,468,-136,13
205,149,60,-37,-233,-196,-968,296,532,388
240,231,238,196,73,-421,-2028,572,372,211
-34,-4,34,32,11,-402,-559,341,374,-49
-95,-119,-91,-124,-117,-287,-53,-822,-103,-110
-55,-80,-47,-45,-50,59,205,-1066,-466,-151
45,-6,31,81,95,384,645,214,-544,-78
44,0,-16,0,-30,-26,335,760,-124,18
-152,-162,-165,-137,-69,-213,72,903,-115,-172
-336,-218,-174,-100,50,49,938,706,-21,-374
-130,-52,-59,-35,32,140,624,-194,24,-57
112,160,113,61,39,423,-205,-985,-109,67
367,324,281,181,47,224,-735,-1107,-350,130
315,225,183,103,-109,-769,-711,-706,-138,185
-144,-174,-153,-160,-207,-789,734,149,-583,-170
-296,-199,-146,-63,37,62,1041,-138,-60,-152
88,95,92,120,172,666,-485,-179,821,265
294,306,267,200,126,357,-1824,627,717,361
-131,-109,-124,-141,-143,-277,-1499,797,210,74
-252,-196,-210,-198,-140,-335,-726,-210,458,5
141,101,68,22,-51,37,208,-941,233,184
319,314,333,351,335,778,1376,100,-29,132
141,108,168,243,328,464,1039,547,-36,39
-134,-158,-150,-84,-12,-27,337,413,-40,-170
-212,-251,-269,-259,-228,-316,-89,317,-629,-335
-120,-120,-146,-160,-195,-315,-92,-28,-684,-224
-78,-75,-61,-56,-82,-153,165,-125,-819,-107
23,9,6,8,-23,-59,134,292,31,116
-46,-96,-106,-100,-116,-196,-178,623,733,88
-126,-132,-113,-85,-9,92,323,391,900,-61
-19,-12,-12,-8,75,319,869,-201,334,-45
198,247,259,254,289,356,821,-773,-54,114
137,171,194,199,209,27,22,-1138,-563,-57
69,93,68,59,12,-130,-293,-508,-361,-148
20,-18,-40,-44,-86,-83,-362,106,-503,-89
-98,-76,-69,-49,-51,-34,-489,434,-440,-58
-9,-24,14,-8,-17,-171,-1115,379,115,228
7,18,15,0,12,-95,-609,3,559,226
-152,-152,-156,-126,-58,-83,282,23,365,-26
-141,-106,-151,-138,-157,-195,380,597,1010,111
43,18,-12,-54,-104,-153,-298,550,1093,225
57,41,26,-43,-134,-183,-193,26,136,-25
171,120,103,54,-19,-81,-111,-489,-564,-2
149,171,196,226,274,424,388,-992,-724,-32
13,63,144,220,372,608,962,-1028,-856,-150
-56,-23,5,-2,36,41,697,-3,-304,-133
-3,-21,-43,-101,-141,-199,30,937,-3,35
17,51,26,35,11,178,-419,945,170,85
-197,-177,-182,-125,-64,174,-536,633,-115,-190
-161,-177,-217,-246,-294,-193,-112,348,-60,-244
43,-11,-38,-125,-229,-295,-308,-715,-273,-107
189,210,187,137,72,-199,-718,-1658,-221,43
58,52,43,59,59,-121,-431,-1077,-35,197
-155,-148,-116,-27,103,225,457,310,614,220
-110,-116,-60,30,193,330,1164,1437,238,-85
-49,-18,16,70,155,209,1717,1768,-238,-310
-13,-30,-51,-98,-148,-301,746,519,-587,-162
-109,-54,-87,-113,-246,-366,-560,-504,-434,-93
-34,6,-1,-51,-200,-119,-1653,-931,144,257
235,234,178,99,-40,166,-1375,-573,1340,674
201,141,127,137,183,200,-421,468,1268,283
-18,-40,-24,48,167,167,508,465,290,-291
26,21,44,52,105,-60,223,-705,-998,-311
183,258,283,269,303,166,438,-1027,-884,6
-52,3,47,78,132,313,886,-534,-223,57
-129,-107,-99,-104,-106,68,471,-119,379,20
29,-6,-12,-39,-74,-180,-916,82,309,77
220,167,143,94,29,-228,-1493,319,331,193
53,-25,-36,-73,-111,-231,-636,510,-164,-29
-104,-149,-169,-218,-259,-371,339,359,-128,-136
-105,-115,-158,-159,-172,-218,307,199,-210,-85
-46,-43,-63,-42,-61,-32,251,306,22,10
-94,-127,-88,-67,-58,160,561,554,-66,-84
-312,-314,-263,-174,-59,433,1406,746,-69,-289
-191,-210,-184,-127,-39,68,452,100,-457,-242
274,232,167,94,-25,-353,-1126,-377,21,208
437,361,299,175,-5,-421,-1162,-579,509,440
171,249,263,209,159,57,-178,-815,351,206
-139,-42,36,88,239,378,-32,-385,58,-65
-189,-101,-37,48,207,330,-188,-507,-159,-208
-145,-125,-61,-17,69,36,100,-552,-760,-263
72,59,79,58,26,-97,783,-67,-179,-19
95,-1,-35,-109,-253,-237,721,234,324,199
-76,-105,-135,-166,-266,-126,497,990,349,84
-95,-49,-20,72,231,686,307,774,83,24
-127,-52,1,139,353,835,-170,-344,-90,-88
-99,-73,-42,30,99,-233,-779,-480,-552,-282
103,121,67,21,-110,-806,-586,-108,-302,-144
225,184,110,-22,-215,-521,117,565,69,95
166,152,81,-8,-119,172,763,1047,706,223
29,26,7,-2,5,123,280,638,512,175
-41,14,43,88,158,-108,-493,-372,64,-18
57,41,69,128,227,-90,-872,-1125,-454,-67
182,102,71,69,75,-42,-523,-1094,-675,-112
177,95,59,-11,-92,104,-199,-369,-897,-174
-35,13,30,-8,-62,232,285,87,-479,-166
-351,-287,-203,-188,-131,470,744,293,192,15
-324,-344,-304,-276,-197,474,1007,532,1352,521
-144,-191,-204,-148,-77,-43,411,626,1160,325
-160,-133,-151,-113,-92,-415,55,605,534,-144
-207,-213,-215,-194,-168,-325,597,222,44,-234
-123,-109,-120,-127,-112,87,1202,-259,8,-266
123,106,109,118,137,414,775,18,-312,-77
285,252,242,269,235,58,-1115,633,-59,234
247,202,218,261,212,-337,-2567,263,-287,176
121,117,112,130,71,-421,-1759,-1100,-458,-14
-40,-9,5,19,97,135,676,-940,-720,-172
-208,-75,-54,-17,135,454,1523,-239,-404,-283
61,107,52,-49,-175,-92,-567,235,449,147
465,391,245,-27,-509,-903,-1651,572,1012,581
364,282,170,-52,-389,-874,-1215,-129,134,262
50,72,90,72,97,77,690,-578,-310,-102
-47,-9,109,227,422,531,980,-1053,-656,-130
-99,-36,63,209,414,577,453,-675,-149,-85
-163,-161,-119,-34,98,247,181,103,-18,-116
-165,-148,-135,-83,2,44,-103,479,-48,-187
1,-42,-67,-61,-33,-114,-744,483,210,28
37,0,-58,-94,-149,-110,-307,346,603,153
-47,-96,-107,-139,-152,45,852,460,286,41
-103,-95,-89,-73,-40,-51,676,419,-41,-123
-130,-131,-132,-111,-84,-210,-166,354,-465,-234
-63,-60,-68,-60,-76,-85,-347,-141,-433,-148
-14,-6,-20,8,29,244,194,-440,-574,-23
20,63,71,118,176,508,927,-334,83,105
3,-11,23,28,87,102,420,140,660,135
-139,-122,-102,-69,-5,-171,-53,611,220,-150
-194,-210,-205,-156,-97,-230,-93,1130,-952,-431
-366,-349,-343,-238,-128,205,1037,1331,-1230,-644
-626,-577,-552,-418,-273,345,2172,99,-913,-547
-460,-371,-402,-379,-387,-283,1055,-1647,574,-1
580,528,413,250,-14,-493,-1683,-1167,2747,1246
1394,1304,1179,918,509,-323,-3504,-459,2893,1617
846,800,765,580,340,52,-2174,-1091,191,434
202,238,270,265,282,495,-880,-219,-1041,-277
-136,-99,-36,31,138,184,-208,842,-965,-363
-295,-204,-158,-121,-56,-217,750,485,-481,-337
-102,-95,-59,-69,-14,-228,499,-784,-441,-83
69,59,58,63,68,-66,343,-501,52,153
-48,-53,-23,23,58,104,552,104,-146,-36
-197,-182,-156,-110,-51,220,470,432,-149,-199
-183,-219,-206,-187,-161,210,240,656,-111,-142
-129,-160,-184,-166,-149,99,304,684,53,-107
-69,-111,-129,-131,-103,-165,119,178,-104,-92
-55,-37,-65,-49,-29,-230,9,-265,0,-68
-69,-55,-92,-43,3,-106,117,-250,-114,-63
-128,-113,-130,-68,-5,178,710,185,-39,-132
-163,-191,-163,-102,-76,286,784,619,-161,-170
-88,-56,-53,-8,-26,164,210,528,72,-55
94,74,48,28,1,-92,-748,-288,107,198
108,96,83,39,18,-89,-779,-1053,66,154
40,77,76,28,18,84,142,-628,-265,-54
54,139,133,77,12,190,398,-24,-115,-34
3,6,4,-33,-82,-167,-258,220,1,-2
58,55,61,39,47,-146,-473,359,263,75
174,119,142,121,117,-85,-594,144,-31,73
148,82,69,40,-14,-174,-471,-86,-95,7
-34,-114,-114,-98,-99,-199,-25,29,-235,-53
-152,-169,-148,-80,-22,42,707,190,-31,-47
-223,-203,-191,-137,-73,225,834,359,177,-17
-117,-32,-39,-38,-102,-71,191,117,365,-31
34,40,8,-18,-202,-467,-299,-56,186,99
108,85,70,59,-60,-162,16,-71,374,216
111,68,90,86,150,168,192,-803,-54,90
50,37,60,79,204,181,-448,-789,-131,-37
-56,-25,28,95,229,325,-219,149,-405,-182
62,101,114,111,119,97,-177,740,-83,7
254,205,186,141,71,-127,-369,111,-49,203
185,171,176,190,189,118,160,-14,-28,120
-52,-46,-23,-2,73,159,370,141,-266,-114
-127,-131,-115,-126,-118,-22,242,160,-204,-197
-81,-117,-131,-150,-152,-98,115,303,-366,-159
-98,-112,-129,-118,-123,-84,108,276,-29,-54
-150,-149,-147,-114,-85,-51,20,-12,194,56
-67,-43,-30,5,34,65,72,-183,550,169
66,40,42,60,63,42,138,-135,710,172
-3,-14,-23,-27,-56,-23,83,-152,388,4
-138,-159,-158,-191,-209,-85,-159,-334,-207,-147
-166,-200,-211,-226,-254,-123,-52,-87,182,-53
-122,-184,-210,-212,-237,-237,10,521,218,17
71,126,116,113,99,50,-80,507,38,9
106,204,240,262,310,344,125,-441,-718,-144
188,279,299,295,320,379,796,-399,-680,-29
87,118,167,163,213,209,882,251,-499,-17
-85,-62,-22,-9,-2,-37,115,351,-81,-82
72,40,35,16,-52,-164,-1196,-467,401,158
270,228,166,119,13,-246,-1747,-851,890,325
177,90,44,-34,-110,-329,-687,-484,319,180
-34,-30,-22,-81,-51,-162,-71,204,-16,-41
-164,-160,-135,-190,-93,-39,201,588,-201,-153
-128,-117,-128,-174,-155,-57,381,244,-75,-106
-104,-155,-170,-187,-202,-117,368,-33,-100,-65
-126,-141,-129,-87,-91,73,570,-133,-67,-130
-115,-96,-49,36,30,191,569,-166,-336,-162
78,136,176,286,194,212,268,87,-96,51
128,137,189,349,245,68,42,210,-34,136
-39,-53,-17,74,118,38,373,689,135,0
-185,-223,-209,-333,17,194,310,910,-162,-202
-102,-80,-91,-227,2,23,-619,309,-315,-241
148,118,82,-87,-138,-511,-1715,-625,-336,1
246,185,109,-92,-224,-298,-1148,-1207,86,287
133,25,-53,-166,-304,259,428,-713,400,396
4,51,75,289,111,255,1119,-344,362,104
169,239,285,593,482,122,458,-533,-82,-10
218,240,195,308,289,41,-234,-107,-159,-64
26,-17,-72,-106,-23,-26,-428,632,-372,-87
-194,-174,-190,-240,-159,-257,-425,233,120,-42
-225,-199,-131,-120,-45,-174,-96,354,503,57
-16,34,73,100,113,183,501,465,417,200
-2,-4,-11,-10,2,238,437,132,-49,13
-63,-82,-108,-119,-102,179,304,250,146,-143
-70,-83,-99,-114,-104,-301,288,423,194,-101
-37,31,-2,-27,-19,-188,77,265,10,-50
9,43,10,-23,9,229,-219,-130,-421,-24
43,45,9,-64,-66,268,-382,-574,-114,38
101,71,58,-27,-81,-174,-463,-807,112,72
79,96,117,72,11,-373,-286,-474,410,101
-123,-135,-46,8,6,-116,125,11,24,-68
-339,-371,-301,-170,-148,448,1272,649,-73,-286
-343,-399,-364,-217,-237,331,1253,921,-554,-404
-96,-57,-53,50,19,-109,-135,208,-813,-266
276,288,259,204,190,-242,-1441,-417,-634,230
518,487,408,226,97,-44,-516,-337,326,692
348,315,297,157,84,-80,-110,-145,1035,449
49,88,113,89,133,-134,20,-176,1073,15
45,41,34,-11,38,-183,-46,-239,89,-44
55,41,20,15,50,27,94,30,-108,-1
-57,-65,-48,39,111,231,-25,91,-262,-128
-147,-103,-93,-14,50,206,-366,424,93,-148
-180,-155,-169,-139,-111,50,-188,193,-62,-167
-110,-104,-152,-179,-248,-192,191,-138,-110,-128
-143,-218,-228,-238,-243,-94,647,541,-376,-142
-262,-298,-295,-252,-193,111,997,1511,-410,-250
-239,-259,-254,-187,-135,-75,662,1108,-432,-190
-24,22,21,4,-95,-229,249,-379,-20,126
142,196,219,165,34,-238,-463,-1852,144,251
123,202,261,277,359,139,-855,-1809,604,253
75,105,171,223,436,380,-89,-716,198,86
123,170,170,191,296,319,230,-16,-508,-153
289,294,296,292,322,657,386,137,-728,-76
256,202,202,177,218,688,735,608,-4,51
213,106,60,-74,-217,-673,-1112,175,44,125
62,62,-11,-175,-413,-1160,-1845,-519,161,150
-140,-137,-146,-210,-332,-471,-1100,-254,622,224
-188,-157,-144,-114,-139,-80,-270,143,838,92
-118,-134,-125,-94,-34,72,288,83,-25,-212
-52,-11,6,44,142,288,769,281,-608,-300
-50,23,57,140,242,310,858,416,-479,-70
-132,-70,-57,15,98,128,509,227,358,123
-93,-111,-117,-75,-26,-15,156,202,340,57
-74,-81,-72,-59,-25,86,240,158,1,-102
-68,-119,-120,-130,-125,227,359,362,-219,-78
-57,-91,-110,-108,-126,337,521,341,-12,-108
12,-2,-35,-60,-84,5,368,-46,-28,-155
-30,-28,-32,-25,-46,-99,131,-330,17,-57
-42,-84,-58,-23,-23,-185,-989,-129,-4,87
35,-20,-55,-57,-176,-472,-1525,-447,465,282
168,91,10,-34,-252,-661,-846,-301,479,314
261,325,275,297,235,-33,519,3,-24,104
-9,99,142,220,343,367,1037,347,-635,-246
-67,11,42,89,169,329,816,772,-293,-181
17,12,14,41,65,186,246,315,-142,-3
55,42,23,-17,-68,257,-115,-190,137,88
52,21,49,-63,-173,-284,-663,-90,158,82
-89,-47,-25,-96,-129,-430,-235,122,133,-102
-80,-92,-83,-94,-43,-151,-428,-362,-127,-77
11,-8,-22,-10,18,-24,-234,-903,-319,-3
53,31,56,100,157,168,523,-442,-807,-119
8,0,-1,19,52,312,919,18,-639,-155
-127,-153,-157,-149,-146,251,647,419,-466,-150
-132,-86,-80,-51,-53,208,-12,475,175,13
-11,-38,-42,4,34,170,-416,213,1117,389
105,56,13,-5,-66,-267,-529,99,1185,317
84,32,10,-50,-109,-370,-120,248,434,54
95,145,128,114,104,-33,-199,-178,333,37
-20,39,72,100,190,58,-568,-421,-348,-96
-29,22,47,76,130,29,-111,-77,-379,-100
21,-1,20,33,32,-25,218,5,-330,0
0,-12,-5,0,4,13,457,-6,1,-6
19,-2,7,2,29,62,261,-62,98,-16
-6,-3,0,-10,43,159,-8,35,11,-67
-93,-120,-100,-91,-13,72,159,171,-406,-153
-211,-182,-137,-118,-53,116,1340,139,-446,-298
-284,-250,-178,-122,11,381,2006,51,-480,-336
-53,-15,-8,21,27,15,189,-77,-113,-52
268,229,169,109,-1,-363,-2133,-325,-2,228
305,242,159,37,-125,-199,-2567,-181,206,326
38,-9,-58,-160,-298,-402,-516,623,263,171
49,54,-3,-56,-216,-630,-93,408,1011,266
81,79,80,70,6,-244,-383,-587,1014,302
-4,73,137,208,292,443,139,-910,307,-28
46,103,156,235,365,530,238,-313,-454,-165
46,69,103,150,198,263,55,295,-342,-108
-44,-57,-59,-79,-100,-138,-126,510,-215,-95
-91,-122,-172,-250,-325,-490,-327,556,114,-58
-133,-186,-219,-288,-335,-484,-212,239,-101,-86
-170,-148,-155,-122,-45,24,542,-143,-254,-142
-43,0,40,154,302,593,983,-263,-555,-99
45,90,149,249,375,693,816,-390,-334,-8
54,35,60,87,139,243,276,-213,-194,34
103,56,18,-14,-74,-76,56,-75,145,110
154,77,34,-52,-124,-145,13,51,105,145
181,157,141,58,52,-39,248,206,139,106
81,69,67,57,89,-327,-27,117,-370,-148
-107,-99,-103,-88,-69,-353,-116,-57,-560,-391
-387,-375,-339,-249,-144,13,-24,327,-491,-417
-418,-419,-434,-336,-340,-14,223,815,252,16
-151,-238,-332,-284,-497,-95,-133,749,710,441
182,229,176,245,-61,313,-609,237,513,376
237,340,368,388,264,114,-757,-511,377,172
161,237,258,117,252,48,666,-511,803,168
123,141,143,33,159,148,909,-766,97,20
133,121,128,104,130,134,-71,-894,138,-21
173,133,196,240,312,221,-804,-567,-114,63
11,18,80,115,172,-21,-540,81,-257,-58
-62,-85,-86,-127,-164,-374,-410,295,-326,-94
-62,-70,-115,-165,-200,-322,-546,413,-4,-41
-104,-144,-164,-177,-142,-111,-21,465,-73,-87
-149,-155,-154,-133,-68,61,565,604,10,-150
-249,-263,-235,-180,-64,14,207,777,-207,-307
-281,-264,-277,-202,-124,-96,2,186,-444,-413
-188,-231,-254,-195,-154,-174,332,-791,-816,-287
73,40,21,22,-50,24,904,-435,-476,132
354,352,349,291,85,13,350,-164,-220,438
317,355,356,279,102,129,-472,-215,533,434
185,208,238,234,271,419,-416,-10,1067,256
121,153,142,136,195,157,-106,-23,784,176
166,119,65,-23,-156,-478,-458,-134,346,255
146,137,81,9,-156,-484,-408,-333,539,223
-106,-65,-18,59,222,442,166,-176,-116,-149
-301,-220,-129,23,321,683,435,235,-540,-443
-186,-189,-177,-127,-46,14,196,417,-413,-255
-30,-29,-81,-112,-162,-181,72,0,-92,-30
10,-3,-37,-68,-104,-140,149,-198,-137,36
-48,-48,-58,-48,-48,92,495,-27,-31,-45
-120,-159,-121,-109,-57,171,389,234,-248,-154
-88,-92,-75,-74,-46,-24,-115,472,-290,-140
76,22,6,-21,-68,-369,-756,534,-404,8
24,-7,-35,-45,-88,-330,-326,513,-154,-37
-142,-146,-143,-112,-68,20,557,302,-15,-141
-70,0,19,59,100,310,683,-463,558,54
106,169,189,175,170,331,349,-1031,564,245
326,394,376,332,253,-21,-521,-654,274,294
223,258,256,213,173,-481,-1434,-308,-140,76
38,31,20,-29,-84,-516,-1064,-164,10,-51
-2,-79,-92,-127,-180,-133,10,0,-225,-51
10,-17,-25,-59,-67,408,462,215,-401,-87
2,-23,-41,-72,-70,420,414,436,-583,-81
-67,-85,-116,-129,-125,85,283,122,-303,-58
-96,-91,-106,-132,-138,-162,42,-117,-107,-52
-110,-32,-8,-16,-51,-128,187,-261,475,51
-155,-132,-89,-42,-54,-83,101,-193,1195,235
-110,-65,-54,8,65,144,-159,376,996,105
-19,-6,-14,1,35,-4,-369,611,-317,-132
-7,3,-6,-1,35,37,137,536,-492,-195
85,50,52,43,91,162,453,-124,-307,29
-7,-8,-1,17,29,153,638,-243,-56,60
-103,-144,-135,-100,-161,-135,217,316,-29,15
-23,-33,-65,-58,-145,-246,-142,634,141,6
102,111,116,130,113,-136,-399,269,-143,-52
132,202,211,248,307,128,-361,-861,-291,-40
73,70,91,121,196,186,-209,-1295,-438,14
-36,-54,-44,-19,25,213,453,-372,-79,-12
-239,-279,-248,-236,-200,68,1195,466,-161,-256
-202,-239,-262,-323,-399,-271,661,441,179,-174
35,-25,-88,-208,-335,-565,-676,950,261,86
159,138,100,71,-6,-529,-1353,990,301,283
77,76,124,206,331,-166,-1863,-1259,-87,99
186,283,359,426,608,565,-155,-1812,-226,21
196,204,232,205,225,726,1085,-668,-24,157
-35,-81,-105,-150,-221,564,1152,816,460,122
-78,-149,-164,-141,-182,136,500,837,166,60
27,13,35,69,41,67,-228,124,19,9
153,144,173,179,119,-257,-1192,-567,-130,55
145,131,131,101,44,-205,-730,-507,119,145
13,-38,-27,-50,-16,80,107,-137,-39,1
-52,-36,-28,-44,-7,-47,343,107,-116,-138
-144,-135,-137,-134,-76,-277,133,198,-484,-271
-271,-252,-228,-199,-106,-173,305,764,-430,-354
-298,-284,-245,-185,-73,84,677,1066,-338,-286
-303,-282,-243,-180,-120,173,945,381,391,-57
-81,-121,-98,-68,-88,156,569,-111,808,251
280,235,185,131,-16,-255,-410,-188,732,467
476,434,357,207,-16,-602,-1131,-185,199,337
290,316,253,113,-51,-309,-958,-269,-43,53
58,77,52,-44,-115,-43,33,-667,-484,-127
59,96,90,54,14,171,255,-816,-285,-55
16,78,145,233,352,315,-326,-158,-260,-56
-112,-26,27,127,231,123,-403,-89,-120,-150
-126,-126,-125,-107,-109,-254,-318,88,-125,-142
-122,-152,-149,-144,-136,-147,229,624,210,-63
-147,-212,-208,-162,-97,235,533,809,251,4
-298,-259,-246,-130,9,739,1113,240,198,-63
-260,-239,-223,-99,52,445,663,-397,-14,-100
-24,-43,-46,-16,-18,-290,-44,474,-75,-53
172,112,81,9,-95,-614,-392,1315,-172,109
177,159,124,16,-132,-403,-288,400,-59,88
136,134,140,54,-49,-157,-319,-839,-183,9
141,197,217,191,191,262,-313,-1256,-117,17
145,140,151,118,130,243,-486,-988,-126,37
101,93,48,-24,-96,-173,-309,-286,75,-10
-36,-38,-71,-145,-168,-268,-167,108,-147,-88
-132,-138,-166,-212,-162,-220,105,423,57,27
-45,-49,-55,-52,124,302,560,696,127,178
214,255,242,265,380,640,611,-333,468,241
179,234,241,305,369,429,514,-987,51,61
-96,-38,-35,0,66,109,458,-41,-254,-119
-152,-169,-182,-177,-197,-178,19,506,-175,-53
-64,-58,-51,8,-149,-241,-351,338,90,-4
-101,-118,-45,144,-97,-179,75,516,-10,-101
-140,-149,-68,115,-42,-41,445,439,175,-122
-174,-174,-153,-138,-45,12,182,-92,-109,-209
-32,0,-50,-97,31,127,-248,-371,29,-71
154,111,66,-1,100,56,-752,-392,-106,137
116,107,36,-10,84,9,-484,-121,79,119
51,26,-54,-90,-47,-110,-117,221,150,91
84,73,55,-1,-64,-148,-71,272,122,93
33,18,63,31,-77,-202,-299,154,-82,5
-75,-68,-12,10,-24,-94,-77,82,81,-26
16,-19,27,8,53,-10,-84,-230,-233,-13
141,127,123,51,45,24,50,-323,-387,-43
-31,-36,-49,-79,-58,-2,123,-116,-315,-136
-261,-221,-249,-192,-107,61,525,315,527,-87
-225,-262,-284,-221,-134,22,588,766,625,53
-98,-119,-139,-138,-115,-103,-3,263,-198,-79
43,56,73,-5,-29,-258,-876,-491,-965,-211
-7,107,161,93,161,129,124,-529,-825,-161
-110,-107,-26,-58,94,444,1010,296,413,120
197,147,180,206,129,290,691,846,1493,334
340,304,315,395,84,-227,-406,167,409,232
105,139,106,130,-14,-412,-875,-770,153,45
-19,-2,-12,44,201,239,-510,-1207,205,85
89,136,134,159,275,341,63,-814,-123,50
41,58,17,-33,0,-61,243,94,-518,-94
-107,-117,-183,-316,-270,126,-53,619,-15,-74
-44,-111,-174,-324,-328,172,-338,409,331,102
50,42,28,-60,-61,-215,-385,62,382,136
0,4,43,5,109,-127,-11,16,-139,-58
-32,-10,17,-21,53,-83,258,160,-200,-149
-82,-144,-118,-124,-154,-288,173,630,-391,-201
-163,-224,-165,37,-242,-325,171,886,-376,-276
-245,-258,-154,276,-131,-97,224,188,-494,-311
-289,-235,-194,48,52,440,684,-590,-268,-216
-118,-116,-143,-129,153,926,1497,-447,153,133
212,207,154,46,157,242,-5,-188,372,397
390,368,330,141,56,-794,-1467,97,-274,297
375,408,392,224,50,-969,-1590,-731,-231,162
254,269,290,215,155,-346,-1050,-819,348,186
92,82,100,80,165,400,112,-33,1005,160
-15,22,43,46,164,515,580,104,229,-38
-89,6,12,37,71,119,451,-97,-275,-176
-49,-51,-92,-131,-196,-91,55,-115,-291,-79
-29,-73,-105,-122,-157,154,6,101,-13,14
-85,-97,-95,-9,103,339,199,304,-258,-60
-35,-17,-4,54,129,171,363,634,-47,-14
-66,-76,-54,-42,-50,-292,-9,344,-38,-33
-143,-146,-142,-176,-283,-517,-38,367,124,-117
-201,-233,-196,-184,-210,-304,367,-23,-53,-172
-210,-176,-132,-54,38,155,621,-638,-191,-216
44,28,40,24,59,162,69,-451,-234,19
281,261,217,162,151,440,-317,77,91,269
220,161,124,93,128,377,-630,352,101,209
-33,-72,-99,-133,-109,-106,-76,179,-51,-109
-80,-110,-118,-143,-189,-340,-79,-88,-390,-191
-63,-23,-13,-30,-88,-80,48,-268,-159,-88
-212,-165,-143,-117,-35,75,738,-396,-192,-141
-189,-151,-136,-63,69,285,526,-207,244,-75
92,69,66,78,61,61,-634,530,548,198
176,123,59,-23,-221,-288,-1162,934,908,398
-83,-192,-237,-336,-538,-603,283,751,376,105
-85,-103,-119,-137,-161,-305,770,491,-193,-197
288,313,324,345,439,337,-187,76,-748,-52
455,495,496,496,505,308,-1137,-840,-516,223
146,127,124,119,104,-50,-352,-1137,-577,28
-42,-34,-53,5,0,28,462,-471,-241,-76
-70,-61,-78,-58,-29,76,339,-174,101,17
-145,-94,-59,-126,-20,86,152,92,605,4
-229,-228,-170,-205,-52,-53,-59,512,958,120
-146,-110,-74,-50,53,20,4,575,780,56
-21,10,23,47,75,82,49,-212,-231,-115
105,140,150,211,163,241,183,-673,-262,-19
210,219,235,318,147,245,177,-638,-240,57
65,77,56,193,-83,-11,528,-4,-34,-21
-160,-230,-228,-145,-182,-117,641,903,-281,-186
-229,-307,-322,-361,-152,138,-99,839,-237,-214
-99,-169,-210,-295,-186,-99,-633,621,-104,-65
56,87,49,-51,-101,-507,-631,135,109,33
72,114,166,97,-57,-603,-680,-933,-19,46
155,209,271,215,20,-294,-246,-1109,501,239
136,110,145,113,45,248,726,-289,433,264
65,81,70,108,184,524,725,29,-7,98
-63,-25,-11,58,278,423,-8,-2,-526,-186
0,17,-8,0,134,125,-139,439,-476,-215
25,-6,-88,-113,-28,-207,-127,75,-537,-128
-127,-99,-167,-166,-68,-149,78,90,-281,-131
-159,-132,-185,-140,-74,-14,89,123,-137,-38
-8,-37,-100,-84,-108,38,-19,25,560,139
160,84,53,2,-70,70,-169,21,670,176
41,49,77,76,36,-17,-38,43,92,-27
-270,-266,-193,-158,-119,-285,295,75,-447,-230
-246,-250,-231,-205,-184,-262,726,249,10,-70
2,13,11,31,44,99,342,297,134,47
113,164,150,150,122,406,-526,39,0,75
186,204,190,133,46,147,-1137,-269,-34,184
220,180,146,59,-54,-204,-599,-303,598,195
224,152,123,50,-30,-299,94,-112,239,97
84,104,118,116,145,110,370,53,-311,-18
-176,-135,-88,-47,75,274,39,-77,-520,-187
-254,-210,-158,-91,8,202,169,214,-33,-112
-71,-91,-98,-91,-96,-162,78,219,-45,-79
37,17,-36,-64,-120,-188,21,95,-173,-175
-16,-55,-77,-60,-70,-68,-54,212,-488,-177
-173,-162,-151,-123,-113,-92,-47,373,-489,-184
-153,-155,-143,-135,-127,-120,-60,444,-339,-63
24,33,31,62,75,186,346,-269,411,108
100,121,165,235,302,571,995,-679,704,222
-7,61,129,198,241,302,401,-867,479,245
-106,-95,-30,-8,-17,-316,-905,-642,897,251
-7,-24,-47,-121,-218,-465,-825,-172,1474,330
125,96,54,-40,-133,-99,193,182,210,90
167,226,200,166,139,203,523,939,-649,-159
241,277,282,271,266,105,-111,687,-768,-60
82,122,113,120,110,26,-183,-344,-485,-67
-118,-148,-129,-118,-74,48,83,-379,-386,-154
-157,-172,-155,-119,-34,215,477,323,-42,-151
-87,-107,-99,-67,-4,86,419,731,-194,-117
3,34,19,44,64,26,78,-115,-273,-69
45,23,2,-12,-43,-96,-216,-588,-386,5
43,24,11,-31,-101,-159,-325,-480,-229,37
118,83,97,51,0,-115,-574,-181,-109,65
114,136,132,87,25,-106,-655,-442,176,51
89,56,35,-20,-95,-284,-597,-606,456,139
98,46,7,-7,-56,-116,8,-53,732,233
-45,-71,-60,-15,57,172,465,369,-144,-84
-133,-37,-15,58,165,206,182,252,-740,-283
-141,-74,-74,-50,-10,-125,-193,460,-721,-127
-166,-114,-107,-133,-173,-282,-61,525,-251,-99
-200,-219,-199,-223,-238,-192,206,78,35,-116
-121,-200,-190,-213,-197,85,371,-289,966,33
163,28,20,-3,-64,213,184,-119,1331,358
259,228,213,180,46,41,-264,574,1015,436
-23,-24,-5,-9,-26,-44,-164,445,2,-7
-94,-56,-71,-54,11,28,97,-28,-311,-209
-20,11,21,75,187,165,195,-151,-842,-237
88,191,211,306,427,459,449,-410,-722,28
67,97,114,154,178,178,159,-217,-73,275
-37,0,8,6,-31,-64,-162,141,253,41
-88,-82,-61,-84,-114,-195,-130,-9,86,-126
-9,-25,-24,-53,-113,-143,450,78,120,-10
34,-17,-27,-45,-75,-49,795,469,37,39
-42,-39,-33,-35,4,94,651,345,-30,-160
-21,-54,-70,-56,-33,-186,-676,-406,-419,-215
31,2,-32,-13,-31,-364,-1314,-580,-364,-155
-103,-104,-79,-37,41,-68,-111,-38,-405,-183
-367,-274,-220,-132,47,156,844,471,-87,-169
-284,-226,-220,-185,-93,-31,139,69,28,60
181,145,51,-56,-217,19,-986,-556,488,370
506,385,285,133,-134,246,-1009,-679,414,400
446,416,345,214,-17,-138,-494,-720,195,248
221,241,251,192,160,103,328,153,21,133
48,141,200,232,331,453,403,490,158,46
-253,-175,-79,37,261,168,-63,185,-279,-260
-252,-203,-150,-66,89,11,102,258,-348,-311
-22,-31,-33,-44,-57,6,279,147,-282,-88
76,64,9,-25,-146,-240,199,88,86,91
68,13,-32,-72,-155,-284,-7,41,107,87
-13,-24,-52,-57,-25,-43,199,68,91,-1
-77,-113,-132,-92,-15,-81,10,172,0,-54
-123,-109,-99,-37,2,75,291,398,217,-127
-153,-145,-109,-77,-44,97,470,402,9,-144
-121,-152,-142,-139,-110,5,174,-282,277,-50
80,13,-18,-54,-90,-84,-553,-846,207,168
152,144,106,96,38,74,-480,-308,32,197
30,27,30,29,6,-1,173,382,-141,41
67,81,64,26,-68,-279,-35,224,-75,-6
113,63,33,-13,-80,-231,-333,-206,-271,18
102,95,93,100,110,150,73,89,-346,-9
-42,-30,41,129,235,264,230,228,-576,-160
-262,-207,-151,-47,63,-31,-96,134,-138,-346
-267,-284,-247,-233,-210,-229,-84,353,9,-219
-246,-261,-236,-238,-179,103,449,468,226,-57
7,20,47,70,127,417,662,-103,105,44
249,306,296,266,198,102,273,-557,108,295
256,262,273,232,143,-194,-563,-768,211,333
67,120,154,178,164,64,-307,-452,125,51
-50,-86,-89,-84,-68,33,276,462,380,13
80,35,-18,-31,-29,120,551,519,740,82
109,67,24,19,21,93,-106,103,187,33
23,12,-15,-45,-135,-370,-1122,-125,-123,-18
-73,-85,-79,-87,-170,-495,-853,-314,-357,-89
-84,-63,-29,-24,-7,-53,-40,-314,-348,-145
-7,-54,-34,-37,-3,134,253,-375,-452,4
-27,-34,-63,-62,-43,355,734,-414,-363,-22
-89,-27,-17,23,88,361,1082,336,-279,-93
-5,62,57,72,70,-35,302,1063,678,156
167,172,153,120,75,-276,-979,858,858,322
86,99,86,56,27,-154,-854,-50,360,72
-17,-49,-49,-91,-119,-147,-178,-672,-166,-138
22,13,7,-24,-80,-74,-25,-644,-320,-121
-7,-19,-26,-68,-95,-108,106,-146,-617,-152
-92,-72,-74,-28,36,108,350,349,-520,-215
-117,-145,-138,-56,54,159,241,48,-382,-203
-1,-6,-28,-6,10,14,-133,-523,-111,-21
-27,16,28,51,56,96,-300,-497,-220,54
-17,55,82,125,134,247,136,57,678,353
25,13,48,87,105,32,365,432,1044,383
-159,-140,-96,-37,-12,-341,501,334,458,-211
-379,-395,-329,-228,-75,-273,1050,271,-187,-477
-348,-315,-262,-149,76,237,577,425,-333,-379
-100,-80,-60,-52,53,113,-530,497,-320,-163
89,57,0,-123,-183,45,-557,163,291,112
353,222,88,-179,-455,0,-235,-481,286,380
723,616,475,199,-184,88,-284,-856,148,639
656,636,620,520,332,108,-1256,-667,-280,476
293,312,309,278,214,126,-1023,148,-144,172
36,0,-6,-13,-13,-189,-289,169,-53,10
-207,-163,-134,-80,9,-183,369,-138,-20,-204
-195,-154,-141,-114,-57,-293,290,76,-46,-141
-166,-149,-127,-95,-35,-115,327,358,115,-103
-114,-135,-95,-52,13,37,207,227,-11,-82
-139,-133,-82,-14,34,59,178,44,-70,-154
-217,-230,-167,-92,-25,-13,262,410,-281,-240
-187,-194,-173,-108,-113,-122,346,652,-135,-227
-160,-206,-206,-107,-74,-51,361,87,-464,-253
-123,-172,-199,-115,-47,186,465,-533,-587,-249
-12,-95,-129,-67,14,332,696,-291,-542,-108
55,66,58,104,135,191,222,-161,-129,45
-99,-12,5,-8,-30,-154,-803,240,140,6
-198,-153,-162,-197,-207,-169,-802,572,1569,383
98,38,14,-42,-136,-65,-643,140,2000,650
513,522,521,450,321,265,21,-199,672,443
586,646,684,619,540,163,247,-939,-680,174
217,309,326,279,235,-61,-92,-1535,-824,-108
-53,-27,-19,-15,36,-11,-193,-731,-668,-202
-187,-170,-166,-101,8,139,142,245,-250,-210
-151,-178,-170,-155,-89,15,101,556,-166,-134
-133,-140,-148,-165,-167,-29,243,558,-4,-117
-206,-252,-234,-223,-193,-86,320,540,-139,-195
-301,-315,-321,-288,-253,-179,508,346,-147,-282
-309,-348,-357,-318,-230,69,622,283,-248,-261
-62,-102,-104,-58,22,355,487,330,-27,-74
140,95,95,107,154,184,226,302,-235,-8
33,80,72,68,107,85,716,-157,-366,-54
101,150,124,62,9,-268,-140,-726,-123,242
441,524,471,323,64,-668,-1770,-444,779,655
495,527,510,403,191,-389,-2298,-116,1218,604
281,295,287,240,174,-65,-1531,-6,858,243
-50,-66,-82,-83,-44,-91,-266,-80,-305,-178
-224,-239,-223,-191,-133,190,803,-160,-461,-272
-158,-192,-165,-136,-107,257,824,79,-336,-136
-82,-89,-101,-79,-66,222,572,352,-66,-83
-79,-103,-92,-48,6,102,279,216,-160,-85
-75,-57,-46,-39,-5,8,164,-10,-40,-54
-65,-64,-24,-57,-34,-44,99,-39,-46,0
-32,16,38,31,38,-45,86,-29,83,26
-31,-16,-6,-44,3,-33,35,14,-60,-55
-151,-208,-206,-266,-200,-96,57,353,127,-196
-223,-366,-394,-461,-474,-257,300,602,-14,-273
-228,-268,-289,-307,-322,-16,770,229,-377,-326
20,87,113,175,214,223,356,96,-844,-56
357,518,610,759,820,482,-321,-193,-154,455
291,305,394,546,519,17,-741,-810,636,452
76,3,21,155,-4,-262,-168,-704,623,25
-17,-103,-146,-163,-170,-70,-182,-258,-273,-188
-7,5,-56,-161,-120,182,-175,190,-374,-73
-47,-14,-32,-68,-99,14,-166,302,-76,21
-70,-48,-62,-97,-107,-104,78,278,621,80
-42,-67,-76,-146,-114,-155,151,-86,595,84
-148,-150,-166,-176,-128,54,470,-95,229,-73
-145,-169,-177,-156,-114,71,644,327,-35,-38
-30,-25,-57,-53,-69,-108,185,523,104,13
46,43,41,52,35,-80,-327,826,-177,-41
44,85,119,162,193,96,69,526,-202,-77
-69,-41,-7,34,116,199,656,301,-427,-158
-25,-6,-34,-51,-33,245,451,-250,-320,-118
87,56,37,-43,-141,-117,-349,-996,-343,-3
168,179,161,102,-20,-233,-1162,-1233,-114,114
219,249,254,257,217,-66,-1657,-1085,-205,203
277,289,265,230,107,64,-652,-615,290,339
95,60,66,82,66,221,565,-185,532,179
-105,-86,-62,26,115,175,653,262,380,-99
-143,-157,-158,-129,-82,-233,430,808,-92,-186
-74,-71,-89,-81,-64,-203,162,605,-158,-127
-8,-33,-27,1,65,168,129,432,-280,-91
10,43,26,29,48,144,121,-83,-35,-29
-100,-96,-88,-100,-100,-28,107,-172,68,36
-88,-90,-114,-143,-209,-64,144,127,481,178
47,12,-5,-29,-90,-92,-200,196,261,158
84,74,72,57,27,56,-297,49,45,-12
8,-19,-14,-10,-13,-15,-214,67,-120,-65
-83,-72,-85,-61,-35,25,61,222,-59,-92
-81,-114,-124,-102,-89,-73,17,111,-323,-133
-15,-4,-14,2,-8,-166,-8,-123,-594,-164
8,14,40,38,49,-124,107,-279,-954,-172
-10,20,60,56,69,36,219,-95,-298,-83
4,15,38,35,56,85,-33,-189,650,167
-52,-52,-41,-19,23,156,197,-130,1209,255
-82,-152,-139,-101,-61,-100,441,346,892,105
-51,-48,-52,17,19,-121,503,369,296,-162
42,57,51,94,57,-120,-209,-239,-709,-132
170,204,180,139,79,138,-406,-508,-483,100
63,94,95,91,120,211,-503,36,10,131
-53,-50,-102,-142,-192,-65,-507,479,698,124
-62,-133,-177,-253,-377,-106,-273,799,449,83
-25,-61,-105,-149,-196,-68,53,289,29,-36
101,109,112,107,124,-73,262,-660,-404,-60
98,195,211,215,248,-66,-8,-1231,-435,-52
60,118,144,142,195,-71,-234,-727,-508,-27
24,63,99,111,166,84,113,52,-221,-31
0,-20,21,6,52,185,442,833,-48,10
-7,-30,-5,-16,28,262,488,391,193,61
-114,-158,-144,-142,-78,-16,395,47,-23,-22
-223,-232,-229,-208,-145,-39,388,373,43,-129
-170,-202,-219,-187,-150,47,-34,427,41,-101
38,13,-51,-103,-174,-163,-279,10,235,64
279,222,168,55,-43,-245,-312,-54,139,243
117,129,140,125,152,156,82,236,98,85
-76,-39,-2,13,54,7,-593,-120,-120,-110
-59,-16,-2,-39,-121,-256,-986,-284,43,-85
25,71,78,49,10,-105,-342,-447,-223,-51
110,195,210,244,262,88,-20,-684,-236,-8
276,307,337,375,362,187,240,-555,-175,193
110,113,96,118,98,210,709,-70,80,113
-137,-164,-193,-207,-161,186,490,610,0,-88
-117,-102,-137,-186,-120,170,132,892,173,-65
-102,-107,-124,-173,-127,-94,-241,-113,-34,-84
-130,-111,-113,-106,-15,-11,-97,-509,-93,-143
-39,-63,-31,-10,129,110,305,-246,-363,-121
30,11,35,44,73,26,541,-55,-323,-107
-3,-43,-2,146,-40,-16,470,253,-343,-96
-6,-14,-17,143,-91,-39,-36,175,39,7
15,-16,-31,-32,-93,-206,-729,84,172,108
45,18,-11,-63,-71,-203,-703,89,259,230
13,-14,-32,-60,-33,-174,-454,131,-22,167
-91,-37,-31,-28,26,-54,90,196,46,6
-107,-59,-11,5,64,-56,144,18,210,7
-69,-54,-35,-10,40,-93,270,-39,722,16
29,-8,-18,-10,18,-171,226,89,383,-57
-23,-27,-19,17,83,-45,135,219,-82,-122
-231,-262,-250,-194,-72,177,337,414,-420,-179
-284,-242,-241,-194,-124,553,712,411,19,-244
-32,4,-39,-59,-101,523,312,-414,282,-4
312,345,294,180,25,186,-614,-1003,363,269
407,404,380,266,101,-185,-1055,-764,142,375
234,241,216,153,59,-247,-60,-260,154,250
-26,-47,-60,-77,-92,-218,299,207,-251,-58
-79,-87,-99,-91,-125,-62,66,480,-100,-98
54,-5,-12,-30,-93,-187,-712,269,152,76
78,16,-1,-9,-35,28,-209,-151,268,89
2,-29,9,81,172,263,602,-160,-289,-56
-199,-139,-89,34,176,181,716,344,-328,-263
-322,-280,-244,-168,-72,-46,335,761,-362,-343
-149,-92,-136,-121,-160,-206,-112,206,-136,-120
72,64,37,15,-65,-259,-101,-137,-77,83
217,203,192,143,57,-107,-12,345,64,197
104,80,90,84,63,108,161,359,-337,35
15,25,32,64,136,305,-22,-347,-138,-70
55,27,46,68,146,145,-351,-854,-30,36
96,117,115,96,65,-142,-239,-977,221,135
127,114,95,36,-28,-295,-657,-889,390,179
5,-2,-18,-70,-91,-97,-400,-243,320,16
-105,-117,-125,-143,-126,44,208,447,-190,-135
-108,-82,-66,-49,-14,180,568,1172,-105,-109
-81,-74,-56,-38,-20,19,168,868,-187,-101
-212,-189,-169,-124,-96,-122,-298,-115,-280,-230
-172,-171,-130,-93,-74,-117,-315,-766,-544,-218
47,68,107,121,149,182,180,-415,-178,-2
210,176,204,189,255,462,824,91,371,246
136,106,120,110,160,341,750,330,775,224
152,98,98,70,43,-265,-210,447,449,214
156,123,76,-4,-153,-834,-900,-284,82,158
-45,-58,-89,-142,-238,-605,-636,-450,-229,-31
-165,-75,-56,-27,-33,36,-217,207,-62,-166
-92,-77,-29,-18,1,343,-41,315,56,-32
23,4,22,30,66,614,431,320,266,121
5,-26,23,58,156,293,282,-97,-71,4
-142,-110,-61,-19,62,-79,100,-111,-205,-197
-20,-8,-1,-28,-39,-181,2,-264,-363,-142
165,186,123,9,-68,-94,-149,-427,-162,32
145,128,83,6,-32,-5,159,84,-133,101
19,32,23,3,4,-29,552,218,68,48
-20,-54,-70,-93,-88,38,209,322,70,31
-14,-36,-69,-105,-152,107,-206,297,178,1
-6,-74,-99,-118,-131,-35,-374,31,-172,-163
-23,-42,-82,-76,-46,-147,-424,-175,-357,-275
-77,-90,-106,-81,-79,-129,-522,-53,-535,-244
-128,-61,-69,-11,-22,-42,-47,9,-155,-15
-89,-19,0,54,94,84,335,-259,105,390
85,156,203,240,264,324,627,-140,446,401
173,200,248,236,239,286,419,-98,568,190
20,36,49,30,49,59,134,62,801,36
-66,-123,-103,-117,-42,-164,3,91,648,-3
-57,-121,-122,-137,-90,-114,157,53,-78,-214
12,-65,-108,-113,-124,-104,127,207,-1034,-375
54,34,-29,-38,-126,-56,-78,395,-960,-183
-15,10,-9,-24,-151,34,-114,505,-516,87
-217,-186,-151,-93,-99,71,221,465,727,299
-210,-225,-174,-62,61,67,-159,73,1472,174
-43,18,58,128,193,-55,-701,-418,862,-155
64,91,123,124,145,-63,-580,-705,-460,-189
218,235,212,170,121,59,-170,-876,-637,-27
251,221,205,156,94,71,78,-638,-502,74
105,72,85,57,19,22,83,-110,-47,100
29,-26,-10,-62,-86,-138,-50,126,51,106
-41,-29,-17,-35,-45,-102,164,130,47,-17
-137,-134,-92,-54,37,40,433,231,-281,-133
-109,-89,-84,-30,54,111,413,217,-51,-84
41,32,25,41,48,-13,-155,168,29,10
160,161,139,113,-7,-176,-558,318,83,97
206,154,129,74,-75,-184,-372,271,-300,72
47,-3,-25,-45,-92,41,160,-27,-382,-52
-157,-165,-173,-178,-163,21,209,-145,-535,-168
-213,-120,-127,-116,-89,96,39,-49,-53,-85
-51,-26,-54,-46,-17,-22,-178,-97,660,193
19,43,37,57,111,105,221,-269,577,35
-85,-50,-41,-2,71,185,566,-205,-53,-151
-141,-105,-83,-59,-39,17,439,154,341,-37
28,-6,-5,5,-14,-83,-25,350,469,161
111,73,78,77,73,-128,-801,268,284,130
99,55,63,41,41,-241,-597,173,-152,65
116,115,99,61,9,-240,-218,-331,-116,92
-79,-102,-102,-83,-81,-49,246,-246,-269,-71
-230,-243,-264,-231,-167,327,490,477,37,-159
-163,-191,-226,-242,-213,409,294,576,-9,-132
33,67,27,-37,-127,-71,-15,500,-41,-39
187,234,236,199,156,-23,177,-113,-410,-9
167,238,271,317,381,337,499,-1108,-372,4
70,72,114,193,296,393,233,-696,-253,50
22,-9,2,25,17,-2,33,107,103,76
-120,-168,-167,-173,-231,-413,133,260,-14,-57
-214,-196,-185,-161,-129,-223,523,207,-21,-180
-110,-91,-30,14,104,-14,-47,173,-72,-107
138,185,194,219,210,55,-820,23,139,91
393,314,232,147,12,-222,-1633,-259,376,393
186,78,-21,-138,-267,-222,-656,-344,544,303
-3,-65,-71,-181,-275,-191,-37,-253,-102,8
-92,-15,80,73,102,16,-237,24,-324,-165
-126,-64,5,64,228,246,-173,218,-368,-197
-52,-11,-4,19,121,171,114,245,-225,-156
49,23,18,-12,-2,-241,0,31,-57,7
15,-4,-24,-15,-39,-46,184,78,357,101
-41,-101,-133,-116,-182,-41,179,-38,57,29
-72,-103,-165,-110,-229,-197,264,-224,-32,-99
0,-15,-51,57,34,109,701,96,-403,-141
-12,29,55,106,201,285,840,322,-535,-99
-119,-92,-35,-15,125,209,283,110,-14,118
-110,-76,-52,-49,30,226,119,329,961,329
31,39,41,-37,-119,-35,-143,227,777,222
88,131,125,33,-100,-150,-292,21,556,7
31,85,62,38,36,-15,-388,-228,-127,-208
15,56,24,17,24,84,-226,-349,-425,-217
-10,-33,-41,-57,-58,-85,-190,-283,-349,-122
59,54,60,68,67,70,134,-88,205,94
99,86,115,140,161,62,245,-507,58,147
12,26,46,73,109,107,375,-596,-68,48
-85,-113,-109,-86,-22,114,292,-83,-230,-80
-11,-52,-73,-70,-62,-53,-268,473,11,-53
66,21,-29,-63,-85,-223,-585,585,-86,24
49,52,4,-38,-93,-229,-56,437,-209,-15
24,22,28,-4,-55,-109,118,25,-519,-104
-100,-67,-42,-36,-54,5,116,28,-237,-134
-130,-139,-89,-58,-7,45,86,37,-90,-40
-66,-44,-57,-57,-12,-80,-33,-175,574,187
80,59,47,37,63,-14,-75,-121,679,279
75,85,122,146,161,219,128,-36,104,-3
-50,-57,-17,-6,2,78,-32,-155,-370,-159
-88,-69,-70,-51,-77,18,7,108,27,-95
-89,-100,-86,-55,-71,-80,65,449,144,-25
-15,-21,-34,-35,-83,-140,66,456,356,105
15,-8,-40,-68,-127,-176,-34,81,143,52
34,48,26,15,-41,-112,-17,-80,-4,-2
83,103,124,142,164,170,78,-58,-479,-22
160,191,198,197,219,258,40,-488,-411,46
54,37,45,40,68,231,-174,-486,-444,-42
-38,-15,-41,-14,7,3,-76,-86,-164,-98
-83,-50,-66,-30,18,-70,-36,-2,-4,-112
11,9,-19,-7,-22,19,169,49,344,24
-18,-93,-114,-110,-124,-65,35,-67,61,28
-156,-171,-160,-145,-127,-109,-236,4,138,-54
-74,-56,-62,-80,-134,-337,-339,120,116,3
83,119,80,7,-160,-372,-135,117,30,110
83,76,82,64,1,165,511,563,-196,79
109,145,172,217,265,385,663,153,-110,-7
-3,17,28,91,147,31,-3,-488,-192,-74
-117,-107,-91,-35,27,-66,-334,-462,508,5
-52,-85,-57,-32,38,136,-147,-155,729,142
35,45,35,17,17,232,-42,112,383,194
-15,-25,-29,-45,-61,103,-160,424,-96,13
-12,-10,-15,-41,-66,-153,-201,502,-163,-130
-8,-40,-48,-103,-163,-309,-118,94,-506,-202
-121,-82,-75,-81,-54,128,442,-365,-543,-249
3,-8,9,19,95,223,425,-261,-342,14
267,227,221,200,200,119,91,-24,238,349
218,164,178,177,208,25,-261,77,-119,164
