-73,-83,-80,-81,-73,-38,16,184,891,348
4,-22,-62,-44,-36,7,166,270,1268,256
35,-15,-31,0,18,23,90,163,465,0
-84,-49,-34,9,49,117,166,203,-72,-102
-104,-108,-83,-42,15,20,61,268,-9,9
-10,7,18,24,38,62,26,-30,-37,-87
20,-2,18,9,-10,24,-96,-306,-98,-97
82,68,73,52,33,18,9,-242,226,-13
88,103,90,77,73,14,-67,-416,-659,-115
-49,-19,-51,-47,-40,-39,-169,-290,-462,-14
-137,-76,-107,-128,-89,-96,-60,162,181,28
-161,-11,-49,-65,-49,-14,180,355,681,-29
-120,-7,-3,14,25,33,224,390,624,-100
-65,81,151,198,188,153,237,116,-133,-155
-57,-7,75,90,88,30,29,-43,-577,43
-76,-125,-135,-130,-124,-113,-86,62,442,269
13,-77,-109,-94,-63,-42,-34,79,1258,269
152,125,84,105,135,165,204,-107,848,97
124,90,67,59,88,143,90,-226,-478,-142
16,-1,-25,-50,-55,19,-27,-6,-446,-135
12,-34,-51,-67,-79,-81,-166,149,-383,-113
10,15,-11,-14,-32,-2,-1,139,-357,-121
-7,-36,-21,-16,-33,-50,193,107,-507,15
-33,-57,-22,-10,-52,-76,301,102,-178,141
-75,-110,-61,-42,-61,-35,163,-55,-124,16
28,-17,8,13,19,71,57,-249,-18,-120
203,123,99,59,53,-12,-415,-224,-372,-96
254,196,147,78,22,-80,-641,-112,-309,6
298,191,166,99,10,-135,-478,-27,-216,168
276,188,146,108,26,-101,-39,-81,-50,125
84,-7,-23,-20,-36,-120,157,-10,48,65
-94,-70,-83,-57,-62,-130,135,127,499,163
-211,-126,-88,-77,-86,-152,-229,-69,259,20
-182,-93,-64,-62,-79,-12,-221,-223,218,-40
-128,-110,-70,-41,-17,102,159,18,-4,-16
-143,-94,-41,27,67,170,324,167,-74,-100
-140,-57,-28,40,84,164,207,142,-270,-92
-107,20,-21,16,58,176,203,90,1,11
-96,3,-39,-37,2,137,18,141,402,44
-66,29,15,16,15,70,-8,249,543,-12
-96,-34,9,16,19,39,19,254,38,-94
-115,26,52,53,35,74,31,91,-206,-157
-111,7,33,27,47,-28,-61,-38,-342,-143
-115,-72,-51,-18,18,-42,217,20,-74,-135
-28,-83,-88,-47,-15,-21,158,-12,-139,-102
42,35,-12,14,11,0,-79,-163,14,-9
44,40,27,35,29,-13,-160,-161,-126,51
45,63,62,50,34,61,54,-175,-76,51
126,62,46,20,21,62,109,-261,-131,64
154,54,26,13,7,-6,-108,-302,35,78
102,-33,-31,-33,-52,-108,-473,-36,-50,60
83,4,4,-4,-39,-66,-237,230,55,44
70,12,45,21,-4,-53,170,256,-77,20
67,18,28,8,3,-41,574,153,65,40
83,-26,-51,-71,-69,-60,433,-76,-149,18
83,-6,-33,-55,-93,-78,-84,-324,-191,-63
115,34,-10,-34,-44,-69,-238,-315,-400,-93
3,-8,-32,-38,-13,60,131,-162,-314,-122
-160,-151,-158,-136,-66,23,120,99,-159,-67
-115,-78,-75,-38,13,49,-132,255,429,134
-31,-13,9,29,60,4,-214,146,253,169
-16,20,22,23,4,-99,-15,183,135,124
-7,20,49,36,26,-86,-158,76,-227,-58
-36,-3,14,18,2,-25,-512,-280,-458,-193
-55,-41,-41,-33,-52,-51,-363,-194,-371,-87
-104,-74,-90,-72,-48,30,568,311,179,-24
-138,-145,-170,-152,-100,10,804,563,131,-117
-66,-58,-68,-66,-49,36,446,567,505,-147
-2,-8,25,25,70,166,7,291,312,-98
-33,4,-4,0,27,79,-373,-295,44,82
127,131,89,60,24,-108,-427,-652,-403,170
305,314,254,196,101,-72,-379,-895,-556,115
254,240,227,200,95,-72,-889,-897,-454,108
137,178,219,234,168,82,-790,-420,274,220
16,49,149,166,156,50,-303,34,130,225
-217,-189,-127,-100,-58,-25,312,470,818,283
-254,-279,-259,-221,-157,-40,423,687,1915,308
-77,-68,-60,4,26,125,533,286,1372,-87
-3,-20,-23,20,30,63,435,-78,-341,-375
41,28,8,9,-16,-51,218,21,-792,-279
36,3,13,-3,-26,-94,133,138,-844,-129
-13,-18,-28,-41,-53,-55,70,95,-389,4
-96,-104,-91,-89,-75,-13,-64,49,-126,0
-36,-29,0,14,27,107,153,164,507,30
39,7,51,79,88,115,95,149,305,-15
45,31,44,73,67,57,31,13,-100,-42
36,7,-4,-1,-9,-13,156,-50,-383,-42
0,9,-43,-46,-58,-71,92,68,-216,-61
6,-13,-72,-87,-68,-140,-308,5,-326,-82
69,42,-36,-43,-36,-31,-113,-106,-339,-83
132,20,-80,-91,-87,-140,-138,-134,-689,-65
197,76,-12,-48,-81,-200,-368,-265,-559,70
159,93,69,34,-1,-120,-584,-430,-461,185
-23,29,62,53,34,94,2,-72,-16,154
-214,-191,-71,-54,-25,176,653,634,862,131
-190,-175,-63,-31,15,231,752,879,1878,190
-40,-39,7,36,90,186,343,276,1091,104
34,18,16,17,35,87,151,-97,199,-44
59,50,38,40,20,-52,-149,-301,-503,-141
55,82,85,57,13,-150,-584,-676,-376,-84
83,60,75,46,9,-148,-579,-524,-151,21
115,159,132,112,79,8,9,-5,-159,15
63,107,111,66,36,-4,57,145,-424,-48
-64,11,51,25,-10,22,163,52,-209,-77
-153,-51,-3,-11,-24,100,263,-21,-316,-136
-122,-39,-34,-49,-31,229,389,23,-172,-109
9,-72,-93,-83,-41,119,198,119,-172,18
34,-22,-27,5,26,63,112,158,-77,24
-5,-37,-18,7,25,13,-50,209,-183,-15
-81,-40,-68,-55,-69,-137,-13,299,158,-2
-79,21,-40,-51,-87,-228,4,103,126,25
-65,63,17,7,-23,-92,-265,-241,-28,-14
-101,-17,-26,-18,-48,-114,-789,-510,-215,-98
34,79,45,40,1,-81,-487,-223,-14,-98
191,104,38,8,2,-4,61,111,-663,-125
204,87,20,-18,-36,19,242,57,-1064,-103
57,17,18,3,0,-11,109,-13,-903,4
-131,-45,9,35,56,75,140,-1,100,149
-146,-225,-157,-117,-50,36,83,132,1392,284
51,-132,-122,-86,-33,68,145,180,1745,218
196,51,57,76,98,93,87,-93,-86,-170
90,-9,-2,4,-5,-43,-101,-102,-574,-99
-59,-169,-154,-152,-152,-171,-179,110,61,206
-1,-35,-52,-56,-56,-67,88,181,849,319
42,102,122,99,117,91,150,-46,152,67
-64,94,98,110,135,155,103,-150,-37,-106
-280,-121,-113,-77,-36,12,145,93,413,-103
-253,-114,-131,-71,-17,67,331,255,1202,82
-43,-34,-81,-40,24,88,132,422,872,87
77,132,67,62,43,-48,-343,304,-251,-146
-8,142,139,94,49,-76,-315,-14,-882,-258
-112,14,62,35,42,191,603,-19,-397,-139
-36,-90,-49,-33,35,214,907,60,-304,-39
22,-114,-108,-53,-5,109,323,-27,-69,30
71,-90,-91,-53,-34,0,-278,-8,76,106
26,45,62,51,0,-92,-269,-105,20,-38
-70,71,205,172,100,-100,-625,-308,-346,-96
63,87,186,154,110,-38,-847,-488,-102,138
314,178,140,68,13,-64,-419,-472,-193,229
367,278,190,95,8,-92,-268,-59,-30,207
160,173,146,61,-2,-195,-511,-7,-71,85
-129,-39,-29,-64,-104,-165,-128,86,122,-88
-254,-170,-139,-146,-155,-81,487,197,-166,-264
-272,-127,-92,-73,-69,59,1004,366,-162,-317
-152,-97,-72,-74,-64,3,505,398,-162,-180
40,3,-41,-44,-45,-37,-344,85,10,-5
115,16,8,40,56,39,-493,-203,-85,90
131,47,68,104,117,78,-240,-417,40,146
123,35,23,39,56,31,-186,-663,-114,119
83,44,33,48,53,92,-28,-449,53,108
-14,-71,-25,2,30,54,88,18,-5,52
-58,-54,-58,-19,-9,-49,-27,269,37,-28
-9,9,-19,-21,-33,-153,-174,223,-155,-77
51,133,96,52,16,-72,-153,24,-337,-159
134,119,62,0,-23,9,-134,-130,-1015,-252
160,45,-42,-53,-66,114,247,-81,-1104,-136
-5,-70,-83,-49,-18,193,640,118,-1042,-52
-276,-258,-203,-150,-60,110,510,388,263,129
-208,-289,-269,-216,-134,-129,-39,619,2484,640
95,0,-19,2,20,-56,-167,367,2935,597
227,175,155,158,155,51,-29,-152,615,-6
146,225,166,151,140,93,66,-427,-673,-319
48,146,84,22,-5,-59,-296,-311,-914,-252
-70,22,5,-41,-83,-56,-74,18,-313,-72
-234,-158,-55,-32,-46,25,117,7,-273,-80
-306,-196,-87,-35,-14,67,273,1,-61,-144
-197,-186,-136,-86,-22,-10,232,227,-112,-147
-153,-174,-162,-92,-46,-28,370,631,-65,-134
-210,-270,-283,-211,-170,-54,697,938,-258,-210
-180,-169,-200,-148,-106,138,1052,840,-85,-218
-66,-43,-56,-31,32,294,716,287,-182,-118
111,137,123,92,108,232,-227,-599,249,117
423,391,391,314,250,39,-1606,-1395,522,467
598,590,556,436,253,-271,-2165,-1615,181,522
418,387,350,244,79,-409,-1160,-815,-424,254
67,49,35,-12,-78,-287,-133,-59,-311,-3
-129,-199,-208,-222,-207,-195,377,329,57,-69
-50,-89,-134,-143,-144,-174,148,382,672,27
53,12,-31,-27,-8,-59,-230,245,317,37
27,16,-23,-3,33,102,-13,179,-89,-50
12,-19,-33,-20,2,84,140,124,-369,-78
-28,-56,-51,-40,-9,188,663,144,-183,-64
-126,-228,-189,-124,-30,360,1246,272,-256,-71
-227,-310,-250,-147,-20,498,1724,317,-137,-126
-170,-243,-194,-133,-17,264,884,229,-221,-102
-35,-28,-46,-42,-13,-69,-365,234,46,58
36,105,77,39,-33,-425,-1422,233,62,98
41,183,166,108,-3,-528,-1677,51,280,0
20,103,127,91,32,-324,-1143,-233,11,-52
-1,31,55,38,12,-12,89,-408,-87,-12
7,-21,7,0,20,68,309,-508,-302,-40
-13,60,71,52,55,44,89,-409,40,-16
-143,-31,8,6,-2,-12,-38,-102,477,7
-188,-18,0,28,19,96,150,21,570,-83
-109,-34,-61,-33,-2,135,399,202,-68,-138
-99,-44,-100,-60,-27,199,802,452,-194,-113
-132,-67,-82,-18,-6,168,650,428,-371,-140
-28,-22,-14,11,-4,53,197,150,-339,-115
73,-16,15,4,-11,-77,-217,-86,-329,5
65,46,75,71,63,15,-78,-121,-108,54
-7,-60,-53,-50,-6,58,238,92,-118,20
-15,-103,-145,-160,-125,-99,190,395,557,60
65,41,12,-4,20,-67,-323,-14,392,89
116,163,199,205,164,59,-762,-532,153,142
99,111,164,152,84,-75,-600,-624,89,161
158,175,170,138,114,34,14,-570,241,127
180,152,156,133,140,31,-162,-333,-211,89
59,35,16,25,5,-82,-51,72,-285,-41
-63,-107,-107,-102,-103,-103,153,373,-290,-100
-100,-114,-109,-115,-112,-10,113,446,19,-10
-38,-94,-96,-112,-92,52,59,376,121,79
17,-16,-46,-54,-10,169,479,285,256,31
26,-14,-23,-46,4,61,317,-152,-488,-234
-73,-117,-123,-121,-79,-68,-136,-392,-890,-367
-166,-210,-219,-183,-138,-122,-278,-245,-1004,-281
-257,-218,-218,-179,-150,2,277,158,-345,-93
-133,-101,-109,-108,-114,31,362,385,699,219
180,161,98,92,62,192,360,353,1650,446
418,355,272,283,216,54,-134,254,421,140
420,338,226,226,110,-297,-1009,-281,-845,-13
204,92,34,35,-5,-316,-1115,-614,-1050,42
3,6,42,71,89,-69,-276,-230,-162,107
-242,-210,-95,-68,30,48,481,125,882,30
-212,-177,-79,-99,-15,90,507,112,1928,197
30,9,87,64,80,74,-41,-137,1391,342
22,131,185,138,142,226,6,-204,286,21
-101,-5,32,-7,44,411,694,47,-524,-260
-96,-50,-78,-31,-10,403,1117,211,-680,-283
-97,-88,-123,-39,-28,145,569,229,-993,-248
-74,-5,-47,-14,-43,-111,134,155,-441,-63
-128,32,42,-3,-71,-395,-783,-36,19,104
-102,55,57,-7,-107,-561,-1537,-184,516,167
32,23,11,-23,-77,-384,-900,-74,531,88
185,117,89,50,30,-89,-177,63,92,-15
140,66,46,30,11,-63,71,65,-707,-126
28,-5,-52,-50,-69,20,651,48,-544,-43
0,-49,-89,-122,-112,11,571,44,-611,-164
-37,-63,-49,-115,-82,61,323,32,-733,-337
-35,-86,-16,-34,-13,96,155,-140,-1142,-196
-253,-212,-88,-23,-1,84,182,-136,-694,-35
-317,-312,-204,-116,-58,34,-87,55,1557,386
35,58,69,128,150,216,-243,-212,3309,569
333,277,253,270,259,267,105,-354,1833,365
197,152,121,138,171,516,1437,279,252,55
40,5,5,51,111,379,659,351,-769,-180
-7,0,-48,-28,-32,-94,-471,-3,-980,-197
40,24,-35,-78,-112,-329,-687,-32,-845,-97
176,146,89,4,-66,-438,-1342,73,-341,64
2,-70,-110,-174,-235,-442,-785,573,-188,-49
-198,-215,-213,-208,-261,-183,659,773,13,-144
-79,-46,-30,4,-41,-5,233,-5,-206,-93
143,145,96,109,105,65,-156,-702,-168,6
121,129,112,116,125,64,-227,-1054,-349,-36
24,103,169,169,141,66,-489,-887,-133,9
40,36,109,96,84,69,16,-176,-30,120
83,80,81,57,28,78,474,316,117,145
-5,25,-12,-27,-26,-15,286,299,-24,45
-51,1,-40,-50,-71,-167,-347,123,74,-6
-72,-42,-66,-60,-51,-150,-622,195,-40,-32
-147,-23,-57,-24,9,45,-29,252,-24,-186
-165,-44,-38,-16,20,77,289,213,-239,-231
-104,-60,-20,8,26,106,458,198,-70,-120
-176,-186,-111,-56,3,97,582,215,-115,-154
-216,-210,-167,-95,-36,139,694,147,177,-95
-90,-130,-139,-95,-29,217,565,-59,-7,-2
48,85,44,7,-8,94,119,-212,-307,-96
131,186,189,126,63,-113,-499,-247,-314,-3
205,200,219,188,111,-272,-1198,-287,553,371
141,34,44,35,-25,-341,-923,-99,686,383
15,-66,-98,-83,-98,-79,296,315,472,80
41,-36,-89,-63,-34,148,698,560,137,24
49,30,9,35,71,275,716,551,40,-17
-29,-46,-18,1,66,200,602,216,-228,-116
-89,-87,-62,-34,29,179,509,-199,-121,-120
-92,-160,-154,-134,-83,-4,-30,-659,-279,-131
-101,-165,-194,-176,-156,-111,-372,-394,-217,-158
17,-40,-73,-64,-72,-165,-461,199,-183,-32
87,114,68,36,-7,-212,-702,180,96,98
17,64,41,-27,-68,-238,-408,106,5,63
-44,86,134,67,25,-37,358,-299,24,-42
-18,103,199,195,219,486,939,-701,-20,12
76,123,171,210,255,631,731,-446,108,60
147,99,112,133,133,141,-523,-207,-229,37
235,219,167,100,-11,-319,-1345,-116,-88,170
223,192,163,58,-61,-551,-1519,127,-12,267
62,19,28,-32,-123,-507,-947,407,239,208
-58,-218,-211,-231,-247,-276,309,373,-173,-67
18,-173,-248,-237,-203,-2,883,217,-556,-168
-30,-210,-242,-192,-73,210,761,420,-755,-187
-63,-218,-238,-188,-91,63,238,305,-77,-145
22,-127,-160,-147,-99,32,401,215,1022,22
190,145,79,74,95,393,1376,97,1210,148
351,315,233,175,162,303,718,-547,-183,105
314,329,224,165,102,53,-422,-826,-578,180
110,163,112,44,-52,-423,-1364,-398,40,260
-185,-22,45,5,-57,-337,-1088,37,563,86
-400,-161,24,79,102,37,-839,81,587,-3
-575,-239,37,183,279,460,123,77,725,-29
-456,-213,20,149,217,312,514,102,-346,-283
-95,5,26,65,52,-53,389,217,-955,-417
17,73,28,-7,-60,-259,19,257,-1134,-311
-153,-15,-25,-49,-95,-99,321,225,-359,-202
-191,-109,-75,-36,-44,56,245,60,761,43
-6,-9,0,45,42,35,-193,-51,1241,333
32,-112,-97,-63,-11,-6,25,366,482,189
-89,-234,-220,-170,-45,270,927,729,-53,-161
-163,-265,-255,-191,-40,455,1342,302,-508,-366
22,-15,-77,-101,-85,133,511,-411,-352,-195
248,187,110,56,-10,-92,-859,-552,-248,81
497,426,342,239,86,-374,-1829,-430,172,409
396,308,241,149,35,-194,-193,-251,29,367
16,25,-8,-10,-8,215,997,-246,-99,15
-91,-53,-49,-38,-18,77,292,-285,-398,-166
-117,-94,-86,-80,-59,-31,582,-130,-342,-210
4,-46,-61,-74,-93,-341,-457,125,-220,-29
29,37,50,89,98,-176,-1289,182,46,24
-2,20,44,87,128,33,-644,187,143,70
95,180,168,142,82,-180,-1007,0,368,185
88,115,114,61,20,-252,-1369,-104,35,124
11,-63,-100,-194,-253,-154,457,175,-191,-40
-43,-174,-213,-294,-359,-71,1472,328,-673,-187
-39,-61,-68,-67,-76,162,923,19,-677,-183
-58,-46,-32,19,68,186,329,-49,-249,-37
13,-63,-45,20,43,-8,-307,104,951,228
189,-20,-16,4,23,-103,-743,-77,1174,278
204,83,57,41,61,66,-107,-169,567,144
4,-45,-48,-60,21,215,762,95,-251,-121
-165,-133,-113,-78,28,328,904,225,-129,-145
-105,-72,-28,31,72,98,-221,-71,83,51
18,96,109,125,88,-78,-643,-74,41,119
-13,65,58,65,93,58,51,145,-256,-72
-176,7,-14,7,80,205,579,3,-346,-315
-126,85,37,20,39,97,516,-243,-381,-206
22,200,152,99,35,-34,-20,-295,-139,11
-3,32,35,-4,-75,-231,-471,50,-114,100
-117,-156,-142,-170,-224,-313,355,246,131,33
-201,-248,-190,-176,-161,-111,662,239,15,-177
-164,-156,-121,-85,-15,144,208,244,209,-131
42,4,3,15,57,251,-9,-11,400,142
344,319,286,265,207,66,-1221,-426,237,312
233,186,215,188,142,-250,-1804,-357,-437,68
9,-1,34,8,-10,-282,-656,-147,-317,-102
-96,-124,-113,-147,-125,-102,607,-18,-379,-183
-212,-218,-209,-212,-177,57,1117,265,498,-35
-117,-147,-122,-103,-45,118,784,644,958,196
26,38,37,41,91,137,81,510,441,152
82,100,99,107,142,57,-119,19,-369,-47
47,71,52,88,96,41,104,-213,-524,-168
79,-24,-49,-51,-57,-38,-112,-317,-402,-56
246,115,50,-10,-78,-59,-317,-822,-84,159
251,79,40,-23,-62,69,0,-482,162,215
191,101,64,25,-25,29,49,0,458,162
277,195,142,98,17,-181,-936,-30,127,211
274,230,180,156,57,-191,-1063,-29,-123,155
89,74,42,85,27,-83,-152,45,-614,-83
-60,-78,-113,-7,4,135,750,165,-421,-205
-164,-225,-244,-163,-65,114,864,390,-205,-238
-363,-277,-211,-209,-90,71,772,386,514,-234
-429,-260,-114,-117,-48,102,564,268,753,-105
-384,-150,47,85,134,390,923,107,446,-67
-320,-156,-14,92,225,555,1457,-181,-68,-75
-269,-121,-64,71,270,551,679,-159,-62,-60
-137,-75,-91,25,189,181,-621,77,-185,14
207,121,-40,-129,-164,-377,-1223,187,24,169
583,433,212,-62,-309,-1008,-2666,55,59,406
412,385,216,-63,-305,-1009,-2182,-134,43,201
-4,-2,-16,-158,-233,-291,431,-297,-308,-173
-103,-96,-16,-8,77,478,1498,-185,-59,-97
-25,-87,-42,17,72,373,962,93,-200,-51
-2,-38,-28,178,11,42,722,296,-343,-203
87,18,11,213,77,-31,427,409,-364,-106
72,72,29,82,74,63,13,202,64,68
21,82,27,-71,-106,-161,-94,-273,173,128
-13,95,139,16,25,40,-535,-233,422,242
-193,-161,28,87,212,349,-542,-130,168,177
-267,-212,-102,11,77,31,-107,-89,98,-35
-149,-51,-53,-5,7,-337,-964,-321,-117,-202
25,146,74,38,49,-311,-1536,-653,72,-142
79,118,99,27,78,38,-246,-427,-32,-15
66,65,81,9,85,460,1305,-34,-128,-58
-122,-201,-126,-160,-25,641,2385,272,-311,-203
-264,-313,-196,-218,-152,299,1978,787,-69,-216
-222,-242,-85,-12,-115,-160,111,702,-77,-132
-40,-29,81,257,-92,-509,-1561,101,70,-4
194,141,193,323,-71,-582,-1792,-40,43,160
276,224,172,105,-37,-242,-693,-63,135,206
234,148,64,23,13,105,68,-332,-61,152
170,138,34,-3,126,251,440,-317,-75,45
139,15,-66,-96,127,175,215,-108,-176,39
262,53,-47,-109,98,140,-111,-280,-17,121
384,25,-93,-212,-120,-233,-702,-331,-107,155
344,-58,-143,-230,-314,-426,-208,-51,28,55
276,-88,-140,-126,-184,-84,537,498,-103,-5
206,36,-87,-85,-125,9,430,660,-149,50
86,71,-55,-98,-131,-5,286,454,-228,148
-113,79,-5,-41,-31,172,133,-3,25,161
-264,73,37,14,39,-34,-763,-259,221,170
-524,-57,-43,-9,69,-61,-307,-85,1047,134
-417,-102,-74,-13,88,-89,-54,-21,964,0
-384,-84,-3,111,179,133,384,36,354,-269
-637,-207,58,240,278,364,939,-8,-308,-591
-484,-143,88,287,312,420,873,-132,-369,-495
-24,42,97,179,163,187,61,-338,-526,-236
141,117,57,88,36,80,-232,-266,-353,-100
-93,-172,-176,-139,-108,-5,-170,400,-352,-146
-315,-282,-200,-187,-96,202,874,906,-33,-163
-47,-32,60,-2,49,204,562,464,-63,35
149,140,207,119,173,382,1147,-93,151,105
112,123,247,161,224,286,389,-613,122,115
310,180,136,-29,-198,-682,-2147,-1067,168,296
496,211,12,-259,-418,-1036,-2553,-612,-39,387
453,233,82,-135,-137,-546,-1864,150,129,327
243,37,-60,-3,-109,-273,-628,582,113,174
0,-70,-104,200,-45,43,913,329,170,-3
-111,-140,-128,73,-12,113,800,-22,-2,-34
-112,-98,-79,-57,5,197,589,-126,63,-9
-81,-9,20,-22,52,157,220,-213,-239,-70
-105,61,114,32,72,100,41,-207,-224,-186
-60,24,94,-9,-21,-29,6,-69,-212,-162
54,15,60,10,-8,34,245,69,41,-56
9,-149,-140,-74,0,136,693,207,-163,-69
-262,-345,-348,-214,-46,349,1583,345,-245,-288
-335,-324,-347,-249,-78,263,1076,369,-344,-330
-74,-9,-60,-74,8,26,-343,137,-100,-74
265,295,235,135,89,-340,-1702,36,-61,237
252,269,243,149,74,-405,-1725,-57,205,241
29,-35,-28,-48,-23,46,428,201,327,83
-33,-98,-119,-77,-75,190,1120,350,595,114
-46,-78,-51,-6,-108,7,470,239,81,13
52,87,187,266,60,68,123,-35,52,50
98,112,202,291,126,51,71,-735,-110,56
-10,18,-6,-57,23,86,365,-793,-248,-55
47,-14,-88,-218,-53,-83,-620,-406,-2,99
443,277,133,4,-24,-345,-1623,-212,646,442
558,388,279,183,86,-330,-1411,-73,88,331
244,220,155,101,47,1,202,-121,-504,-44
-53,-37,-36,-28,-59,133,801,-256,-855,-207
-247,-128,-53,2,-39,164,713,-67,-830,-286
-311,-200,-139,-98,-66,-52,225,290,-615,-232
-321,-242,-212,-171,-83,-130,-435,509,345,-14
-258,-153,-161,-129,-69,-178,-728,670,878,51
-235,-58,-118,-101,-40,-30,-57,537,1208,15
-124,4,-39,-27,57,211,695,126,1090,56
22,114,109,144,164,347,1332,-301,719,90
17,33,88,149,202,413,939,-655,-183,-11
-3,-53,-23,72,149,261,6,-496,-318,-53
125,-102,-70,6,25,-102,-605,0,-470,-11
141,24,35,15,-25,-263,-960,239,-342,19
-74,-87,-63,-112,-118,-183,-159,435,-339,-97
-234,-113,-76,-125,-102,136,888,529,-146,-205
-171,-94,-82,-130,-81,29,495,633,-23,-89
-112,-77,-81,-106,-59,-101,145,164,39,-83
-140,-77,-63,-84,-41,-193,-334,-72,-212,-147
-1,46,-2,-56,7,-25,-319,433,66,-24
181,145,111,2,20,4,-443,185,-34,57
236,253,276,160,68,178,150,-564,-100,73
208,221,321,308,182,331,635,-1009,-270,100
159,143,278,397,79,-122,-732,-1203,-3,195
249,153,183,275,-20,-463,-2077,-779,108,329
312,208,82,94,40,-235,-1511,-252,236,269
129,3,-144,-74,-35,-44,83,330,-52,27
-71,-97,-261,-204,-120,7,817,628,-63,-123
-201,-283,-339,-432,-177,167,1472,610,-237,-202
-167,-299,-226,-353,-164,218,1593,378,-81,-93
-41,-196,-82,-81,-90,127,780,333,215,93
80,-22,26,143,43,43,117,383,541,131
12,26,78,119,95,-54,-63,149,-77,-94
-138,-7,28,-42,2,46,131,194,-277,-189
-116,-4,-14,-50,-48,-46,-342,-21,-457,-121
-28,120,147,157,75,-112,-1023,-457,-247,-20
94,177,226,274,162,-285,-1708,-495,-34,135
-43,96,95,196,138,-236,-1495,-329,408,102
-142,-8,-86,-32,35,-16,-134,-73,701,31
-108,-34,-146,-238,-27,172,1137,70,423,-122
-65,-76,-96,-211,-42,216,1369,99,-191,-144
-95,-48,-23,-65,39,229,741,184,-229,-127
-97,-128,-97,-76,37,70,119,238,-382,-78
-47,-16,-54,22,17,-44,-283,138,-72,7
-104,-32,-55,97,1,144,314,182,-36,37
-181,-86,-82,32,3,405,1591,426,164,-24
-88,-65,-33,-18,5,294,1254,197,163,-81
110,66,78,21,-18,-122,-281,-226,272,6
294,181,182,98,-12,-359,-1566,-371,67,166
259,203,216,124,2,-374,-1872,-341,17,169
-58,-100,-71,-115,-149,-256,-433,130,-217,-97
-205,-210,-220,-197,-178,-43,824,330,-124,-214
-4,-112,-111,-96,-46,51,600,260,-206,-47
252,70,71,57,114,50,-44,5,-107,155
204,85,88,87,174,56,-58,-303,-134,123
-13,-47,-51,-25,77,200,834,-122,184,14
-29,-65,-70,-42,-25,330,1001,-142,47,30
32,72,41,58,16,501,671,-332,-38,14
245,215,164,153,37,-30,-902,-100,-69,161
344,232,203,184,-89,-818,-2675,-9,181,271
73,-96,-91,-84,-394,-1168,-2313,147,-31,21
-140,-216,-261,-286,-241,-248,851,172,-21,-153
-112,-122,-153,-202,35,390,1763,-36,-67,-117
46,110,124,38,156,367,480,-319,-9,-69
123,257,349,220,233,330,-166,-574,-230,16
83,263,394,303,248,166,-925,-423,187,203
19,70,149,55,45,-141,-1189,-126,252,226
-129,-90,-65,-98,-220,-287,-450,253,213,39
-197,-175,-161,-23,-248,-208,523,598,-50,-136
-122,-91,-80,52,43,199,822,472,2,-190
-105,-93,-96,-15,149,323,562,138,-161,-176
-123,-108,-125,-37,141,268,491,-37,-3,-54
-80,-138,-148,-85,30,46,211,33,-6,51
50,15,-47,-35,-1,-30,103,-33,41,74
164,152,90,16,-26,-226,-243,-235,-146,95
-24,85,71,4,-25,-31,67,-414,-109,-55
-253,-184,-106,-110,-28,214,187,-224,-278,-257
-196,-126,-108,-131,-68,180,210,23,1,-203
-72,-59,-74,-121,-73,109,341,419,51,-46
-61,-52,-57,-94,-32,25,651,560,237,12
-12,0,17,42,11,-80,713,81,-30,-34
137,179,126,86,45,-41,58,-139,-40,35
87,65,-4,-95,30,194,39,-162,-191,37
-21,36,-13,98,120,264,-365,-234,36,10
-23,5,-64,147,41,-229,-923,-167,-43,-20
26,44,-20,99,53,-250,-637,12,38,24
46,39,62,24,49,-160,-537,262,-54,60
-145,-175,-105,-182,-138,-90,579,1213,22,-129
-89,-240,-151,-158,-161,-126,626,1182,-26,-105
116,-81,-80,-26,-182,-251,45,24,18,-19
229,36,-4,92,-108,-179,-52,-718,-484,-2
231,135,126,182,203,373,-160,-1027,-667,22
320,219,204,164,241,119,-1729,-1331,40,295
372,274,165,37,-13,-223,-1030,-742,1371,566
373,320,212,68,-19,-90,409,-235,905,319
320,342,308,227,179,188,207,-307,-42,66
163,181,241,182,126,73,-584,-214,-353,111
-171,-101,-7,-39,-113,-204,-649,464,118,54
-405,-393,-291,-257,-259,-355,-2,772,349,-119
-457,-344,-247,-144,-85,41,1010,532,591,-127
-307,-136,-95,-4,67,236,792,206,20,-29
-309,-23,-22,48,113,324,690,181,-413,-107
-372,-80,-66,12,110,338,737,266,-469,-235
-326,-95,-63,25,105,289,625,112,-135,-295
-223,-101,-58,12,70,92,160,62,-226,-358
-83,-71,-25,9,34,-146,-65,223,-82,-287
-42,-135,-121,-105,-58,-138,329,474,-131,-146
-16,-86,-114,-139,-99,-21,204,643,92,-31
76,52,9,-70,-122,-58,61,-134,-12,47
81,88,83,65,39,252,197,-603,113,45
110,30,24,24,3,-45,-577,-591,-91,52
247,149,106,54,-65,-365,-1170,-981,-214,131
350,242,238,190,63,-228,-1158,-529,-268,257
136,89,118,102,74,20,-117,519,112,168
-59,-178,-95,-133,-104,46,1035,700,291,40
44,-30,0,-86,-107,-67,254,286,328,70
88,87,76,-6,-75,-241,-634,-109,-190,-23
78,161,103,107,61,-16,-564,-398,-174,-59
132,145,79,105,149,42,-948,-542,-110,91
49,28,-12,-64,58,79,-200,-261,85,95
19,-55,-92,-199,-84,-6,321,225,-10,21
77,-34,-104,-156,-79,34,441,422,60,-10
202,-33,-114,-159,-87,13,217,81,-205,-8
255,62,-25,-84,-114,-90,167,-133,-148,49
99,12,-42,35,-91,-41,373,-13,-188,51
-104,-2,11,187,41,111,406,86,70,-5
-177,-57,16,263,131,154,289,167,226,11
-214,-124,-75,31,117,103,161,184,220,-26
-238,-218,-143,-184,52,20,-41,170,-58,-33
-211,-157,-53,-26,63,33,-44,102,197,-14
-278,-175,-56,3,19,35,5,45,134,-130
-296,-160,-77,-38,15,194,651,60,65,-254
-394,-252,-182,-157,-23,383,1989,177,-206,-408
-396,-161,-140,-97,-27,383,1753,415,-185,-398
76,102,50,55,13,15,-380,124,-243,-25
468,316,154,53,-26,-390,-1939,359,172,338
232,86,-14,-146,-173,-589,-1871,965,140,198
0,-116,-125,-123,-262,-371,-175,25,90,-33
218,92,118,230,-130,-371,-66,-1271,-179,89
366,392,448,372,132,-131,-714,-1581,-182,197
424,491,573,333,308,238,-958,-1721,-195,280
374,470,632,320,316,283,-703,-993,186,385
-49,6,296,17,80,63,-216,581,125,162
-357,-278,-197,-266,-54,158,245,1269,130,-198
-310,-337,-557,-290,-81,193,769,1146,22,-224
-35,-115,-487,-250,-37,82,756,394,121,-51
180,48,-265,-251,-40,-91,305,-186,-48,55
160,20,-90,-35,-54,-115,524,-83,58,49
105,-91,-34,34,-78,-70,324,-46,-33,36
165,-49,-61,-42,-129,-30,19,-23,83,136
95,3,-85,-71,-198,-191,-307,-60,-123,63
-108,57,11,123,-72,-118,-635,-3,-49,-82
-216,87,69,135,12,-48,-601,-135,-157,-176
-176,127,118,7,90,74,-339,-317,37,-112
-208,-16,118,12,96,115,-107,-227,-25,-90
-297,-178,10,69,34,202,711,130,29,-193
-211,-247,-72,54,48,236,1194,580,-89,-149
-108,-161,-2,23,94,130,939,941,140,-17
-72,-97,46,-33,4,-66,272,572,16,3
-8,8,122,77,13,-126,-116,-89,106,21
-10,-19,21,172,142,85,-457,-685,-77,14
88,65,-9,224,143,53,-818,-991,-10,55
253,176,44,143,78,-39,-588,-658,-189,112
299,235,101,53,50,55,-86,-195,-127,156
295,158,52,-48,2,-106,-405,116,-265,158
155,51,-53,-170,-86,-156,-259,411,-207,17
25,-74,-155,-274,-181,-98,354,497,-217,-100
-26,-49,-106,-181,-146,-98,323,203,9,-71
-179,-161,-124,-119,-59,32,408,-90,37,-140
-234,-268,-202,-116,-11,343,1730,-16,629,-38
-53,-141,-71,-3,74,411,1710,60,687,107
-47,-14,33,52,80,183,564,155,366,11
-73,-1,18,-14,-35,-285,-602,506,6,45
1,95,80,-8,-96,-597,-2342,770,150,108
-62,10,10,-90,-110,-311,-1799,490,-27,-38
37,135,75,-22,-12,-18,-520,-385,-161,-61
233,279,189,94,49,-137,-649,-1129,-356,76
254,295,242,224,158,27,-428,-1341,-234,137
88,185,227,251,158,-10,-522,-1143,-400,59
-175,-66,17,105,52,173,268,-85,-63,-66
-257,-315,-268,-77,-82,209,1111,1064,362,-55
-149,-239,-276,-111,-124,-20,654,1053,555,-25
-28,-72,-158,-248,-141,-198,-40,405,133,-27
63,106,33,-116,-21,49,210,175,43,-16
114,76,76,40,71,179,692,-52,-280,-14
236,79,81,98,71,72,321,-466,-334,32
324,30,68,63,2,-78,-241,-431,-430,36
87,-6,62,16,-60,-35,-164,-234,-223,-49
-224,-150,-34,-83,-86,122,531,27,-273,-176
-340,-196,-126,-126,-37,409,1529,249,-211,-296
-319,-140,-91,-90,18,299,870,328,-329,-339
-125,43,52,35,46,-14,-417,516,178,-33
149,155,137,75,-2,-507,-1987,577,959,457
123,87,93,-9,-81,-544,-1536,396,1262,398
-93,-121,-55,-101,-86,-162,570,173,220,-36
-234,-206,-117,20,140,460,1772,-300,-289,-289
-99,-82,-128,90,303,632,794,-743,-319,-165
108,131,-53,17,179,329,-21,-728,-20,76
294,262,95,4,33,-169,-1053,-477,-179,245
311,317,190,12,-74,-414,-1483,-523,-290,184
191,192,161,27,-58,-331,-743,-401,-318,102
352,326,362,368,96,-474,-1946,-288,157,318
24,-27,52,306,-55,-295,-1383,-32,-44,47
-258,-302,-300,-58,-254,189,1382,505,57,-161
-19,-102,-114,-214,-130,202,1243,521,19,-7
144,75,89,-37,38,102,600,433,87,68
125,25,9,-21,1,-49,488,308,-74,-13
20,-58,-94,-87,-30,62,373,222,-7,-67
-151,-183,-150,-181,-35,169,411,137,-180,-127
-344,-253,-219,-305,-21,557,1618,123,-108,-218
-298,-241,-228,-281,-31,499,1420,146,-144,-151
-45,-11,-1,68,-2,-13,-96,0,135,80
158,229,269,547,142,-452,-1930,-415,122,209
25,171,288,524,139,-519,-2203,-692,205,46
-282,-121,86,23,-65,-305,-577,-173,-5,-270
-262,-54,153,-226,-123,-187,106,246,28,-320
-84,88,201,-158,-65,-99,208,223,-124,-147
-26,128,163,34,58,310,1062,171,-10,-24
15,7,-75,3,77,552,1143,148,-76,52
-49,-138,-317,-117,-28,256,319,356,54,3
-146,-254,-377,13,-108,-213,-449,152,-140,-98
-134,-190,-344,138,-31,-304,-435,98,-60,-119
-40,-157,-328,-179,-1,-100,32,437,-207,-97
136,-22,-90,-321,32,171,482,307,29,77
520,269,338,-214,44,10,-53,16,194,441
602,369,435,0,22,1,32,28,420,496
369,169,150,66,-72,-21,10,-437,188,269
257,141,155,222,-7,61,-162,-1001,87,124
342,224,261,339,57,-111,-694,-1015,-220,145
128,162,138,250,-32,-286,-829,-576,-338,-38
-68,73,37,43,-61,-269,-826,-282,-354,-91
-333,-127,-201,12,51,78,46,172,37,-137
-575,-387,-461,-212,38,141,784,526,161,-219
-482,-392,-493,-323,74,270,1146,565,404,-147
-321,-241,-316,-233,210,400,998,282,-51,-224
-77,60,-52,-4,135,305,660,240,-124,-137
28,63,28,122,62,186,350,481,-13,-28
-82,-39,36,15,-47,14,338,564,244,-44
-158,-133,-45,-145,-190,-243,-123,240,-32,-114
-10,-5,52,-25,-90,-94,-580,-439,-141,-105
156,89,153,133,86,55,-1283,-541,-176,40
193,138,152,128,46,-194,-1313,56,155,184
106,23,28,-33,-88,-290,-336,322,64,119
80,48,46,-31,-51,-151,339,158,78,48
108,78,68,-14,-22,-65,153,-200,-58,52
203,147,131,65,-7,-93,-360,-421,143,156
253,106,160,99,31,-200,-728,-451,9,200
231,68,143,43,22,-33,-58,-393,-4,85
237,63,68,-58,-55,11,348,-196,-211,-51
100,13,4,-101,-127,70,800,100,-70,-128
-22,-68,-54,-75,-107,167,684,151,-188,-85
-129,-56,-93,21,-20,213,495,366,-139,-46
-102,-11,-29,126,109,104,-275,376,-220,25
-91,-30,-73,-6,24,-137,-496,15,3,96
-175,-131,-155,-175,-139,-262,-238,-198,-4,95
-255,-65,-59,-76,-21,87,213,-290,138,-36
-164,-11,-15,-20,56,212,721,-138,246,-82
-134,33,0,35,45,198,970,227,401,-153
-218,20,44,211,39,23,23,103,-101,-252
-190,64,48,192,50,-94,-839,9,-50,-136
-149,-38,-35,-80,46,-64,-1052,166,98,22
-157,-109,-16,-81,84,206,115,283,139,-27
0,-96,60,87,163,231,794,331,-41,16
117,0,90,81,165,160,821,239,84,90
72,-23,0,-82,-1,-143,-162,134,-131,-34
-63,-88,-84,-139,-106,-31,-29,192,-124,-168
89,7,-14,-24,-141,-67,-203,-121,-98,18
243,128,73,156,-80,-119,-294,-219,230,226
206,91,31,112,-26,-213,-607,-334,-46,138
156,61,-26,-57,-146,-323,-526,-353,-209,4
42,-50,-92,-75,-117,-3,-236,-72,-393,-85
-75,-123,-105,-51,-26,181,232,171,-101,-64
-73,-144,-109,-129,-47,104,1067,145,-11,-7
279,200,148,20,51,-15,454,-423,403,237
545,339,264,78,75,-113,-614,-961,287,413
436,276,264,88,49,-153,-1298,-477,208,327
132,44,156,38,40,-32,-869,318,57,139
-55,1,107,33,90,137,32,381,36,35
-130,-21,11,-9,67,16,40,190,-181,1
-221,-72,-111,-86,-35,-110,-18,241,-21,-52
-436,-203,-222,-162,-86,-78,332,371,-123,-307
-530,-173,-185,-87,-51,36,556,333,-15,-467
-342,-89,-100,9,-33,106,635,150,-130,-314
-160,-52,-36,79,89,568,1666,-47,-66,-178
-210,-99,-14,115,139,704,1905,-133,-274,-201
-79,57,130,312,195,251,234,-21,89,4
217,221,261,365,155,-589,-2196,79,185,227
184,92,94,-19,-65,-1033,-2742,115,-154,27
-88,-247,-257,-351,-184,-447,-512,250,-691,-219
-132,-285,-340,-279,-154,168,1255,178,-471,-146
-82,-219,-279,-201,-106,404,1211,-191,-262,-31
15,-78,-156,-115,-101,354,445,-160,772,274
240,164,96,71,-13,42,-828,-78,1402,435
197,239,284,196,74,-51,-878,-263,892,144
55,93,212,87,-71,-169,122,-282,-101,-55
5,53,96,0,-152,-158,723,-148,-267,-83
127,115,112,36,-31,-202,-432,-296,-357,11
182,259,251,155,133,-120,-909,-165,-222,78
35,170,169,67,113,-42,-427,-76,-303,0
-15,73,-24,-55,76,97,377,-137,-31,41
27,-50,-189,-185,64,209,462,-36,-116,97
-43,-94,-174,-218,50,397,966,166,67,92
-121,-133,-88,-116,46,336,872,374,101,33
-154,-127,-44,6,36,22,124,290,174,-102
39,-46,51,215,37,-302,-748,-131,-97,-35
296,125,280,491,122,-334,-1507,-498,-73,107
324,102,269,315,91,-140,-714,-225,-120,51
73,25,149,16,-17,84,464,358,85,-53
-82,-19,163,-144,-121,157,730,328,-153,-144
-61,-4,32,-106,-164,69,490,133,-58,-96
35,-13,-272,-231,-158,-121,-129,94,31,44
36,-18,-471,-379,-92,-164,-439,64,173,63
-190,-226,-586,-256,-112,-90,427,72,-149,-128
-331,-352,-495,-51,-62,313,1982,290,-91,-225
-200,-340,-359,-127,20,508,1944,454,-162,-132
110,-24,-100,-124,117,350,526,124,35,74
418,360,212,64,105,-287,-1986,-554,-21,232
387,474,444,306,108,-612,-2853,-716,91,199
37,171,317,222,22,-437,-1582,-294,5,49
-238,-82,178,27,-103,-239,-479,191,111,-46
-330,-221,98,-79,-90,37,503,581,26,-132
-298,-181,17,-61,-33,143,837,502,215,-120
-297,-202,-125,-43,-65,98,771,106,-9,-76
-321,-224,-257,-15,-24,242,1022,163,-56,-148
-107,-67,-139,63,120,258,298,74,-128,-145
186,171,38,145,170,306,-41,-58,130,84
237,181,48,67,176,367,353,87,-7,119
293,266,204,103,236,184,165,-364,56,168
370,287,289,141,111,-390,-1148,-1198,-42,333
284,217,205,24,-105,-620,-1663,-1006,60,310
86,28,-2,-178,-273,-433,-569,-315,-197,66
-25,-47,-69,-175,-207,-129,124,291,-84,-32
-96,-92,-50,-111,-84,5,98,460,-106,-90
-173,-113,-44,-117,-56,134,424,454,163,-151
-231,-213,-145,-92,-51,296,1025,463,91,-207
-146,-122,-104,198,90,311,978,298,45,-172
-128,-99,-81,262,211,326,381,133,-225,-172
-69,-21,-38,46,78,139,627,358,-7,-80
-13,-34,-90,-95,-71,-1,660,293,-59,-5
-80,-171,-182,-123,-153,-140,318,-68,-60,-97
33,-174,-150,-128,-286,-516,-504,-139,-179,-65
285,138,190,-13,-116,-540,-1913,-552,-3,125
304,231,326,4,49,-128,-1319,-675,-89,166
347,289,318,-23,100,72,-525,-271,161,251
312,223,240,-75,203,408,-159,-215,90,210
294,223,181,122,224,352,449,10,174,234
51,6,-54,398,75,-101,95,385,28,179
-328,-166,-301,152,-120,-37,204,571,167,5
-624,-238,-174,-1,-42,144,689,188,35,-255
-642,-214,17,75,65,31,675,24,305,-274
-318,-150,29,-23,57,-79,86,-150,135,-219
23,5,36,-60,28,12,-112,-328,-28,-145
0,11,-7,-36,27,53,-47,67,-276,-121
-170,-119,-144,-98,1,47,304,549,-168,-217
-309,-402,-410,-317,-80,398,1884,882,-178,-283
-150,-283,-303,-188,3,593,1572,582,-34,-148
393,168,65,39,-14,25,-137,-181,-144,216
843,574,377,252,70,-386,-1763,-578,107,545
625,361,193,25,-138,-690,-2580,-565,8,387
160,20,-67,-231,-373,-601,-957,-273,85,77
40,100,102,21,-77,-263,-623,-457,29,75
-31,206,274,251,209,69,-524,-508,95,85
-107,56,157,168,157,21,-232,-421,-64,72
-282,-133,-36,-17,28,50,324,-190,-15,-61
-322,-158,-86,-78,9,96,519,218,-68,-159
-239,-48,-20,-1,69,154,520,509,250,-184
-113,-71,-63,-43,40,206,707,272,112,-145
-58,-15,-48,-23,64,369,1089,87,-51,-171
-27,-25,-32,-30,26,229,797,140,-146,-113
-84,-117,-87,-97,-38,185,931,386,224,-1
-109,-176,-122,-110,-42,25,318,519,19,-13
-301,-322,-235,-134,-71,116,883,402,4,-201
-305,-339,-255,-78,12,289,1549,364,33,-209
62,25,27,107,120,65,-547,61,298,55
530,442,322,181,56,-355,-2039,-504,-93,303
733,674,487,246,74,-481,-2343,-482,-74,438
461,345,193,-23,-110,-608,-2088,-429,-202,219
139,84,-68,-270,-343,-624,-810,-773,-118,15
114,121,70,-69,-99,-245,-528,-820,-166,90
26,82,187,241,163,172,-241,-265,-74,45
-237,-200,70,534,186,388,934,209,-198,-126
-289,-313,-91,392,140,310,964,207,101,-16
-183,-315,-203,-135,-23,48,420,310,150,129
19,-80,-99,-217,-72,15,627,351,208,79
-3,37,42,-112,-6,114,625,173,-124,-94
-156,66,120,-26,81,245,646,149,-105,-214
-210,-29,-53,-133,49,198,465,177,-147,-226
-163,-117,-253,-241,-60,65,112,155,47,-140
-16,-141,-304,-254,-130,-133,-311,136,-5,-31
148,-15,-191,-165,-106,-128,-292,163,-6,-11
53,-73,-135,-89,-60,-10,172,743,-220,-105
-68,-89,-98,-36,-2,80,343,1023,57,-71
-149,-178,-180,-105,-36,169,444,363,17,-41
-115,-81,-93,-48,-94,43,438,-420,58,-34
-29,50,90,119,41,262,1078,-904,42,-8
208,298,381,368,279,299,179,-1260,391,205
232,253,342,240,118,-200,-1523,-1006,118,171
119,118,177,63,-80,-491,-1268,189,115,120
-78,-122,-59,-3,-125,-432,-592,1257,29,26
-337,-374,-303,-206,-102,293,1953,1121,-84,-253
-170,-213,-192,-246,-35,365,1790,144,-306,-196
144,132,114,2,117,-18,-799,-546,-29,70
302,236,188,65,112,-473,-2812,-1478,-39,176
341,218,90,-39,-92,-313,-1725,-1207,71,194
463,253,189,107,-60,107,-15,-168,-117,295
501,327,310,284,53,197,548,385,55,389
488,468,447,271,68,-381,-1191,431,71,407
121,300,261,82,-168,-753,-1816,-170,52,109
-318,-183,-193,-115,-302,-366,314,-334,-205,-227
-359,-269,-275,-13,-91,8,941,-149,-37,-208
-299,-280,-251,-157,2,69,391,18,-58,-194
-202,-147,-100,-307,87,230,655,303,62,-264
-229,-182,45,-82,239,607,1060,518,-29,-252
-421,-253,119,149,320,844,1332,525,152,-141
-220,-109,0,128,166,364,445,467,138,-4
-30,13,-269,40,27,-117,-535,405,391,75
-53,-50,-447,-118,-40,-109,-103,123,116,-52
-67,70,-131,-101,-71,-86,660,-9,-147,-196
-135,38,165,69,11,2,620,465,-181,-75
-115,-21,96,61,111,179,220,337,73,21
94,0,-44,-176,-3,83,-136,-325,-84,73
286,169,183,-14,-43,-72,-743,-646,5,154
202,63,189,157,-93,-207,-1217,-993,-248,29
110,0,36,151,-112,-209,-587,-669,-72,37
-103,-165,-152,57,-113,-185,269,169,-133,-43
-275,-277,-355,-207,-132,-51,663,710,-35,-197
-156,-201,-293,-173,-86,113,954,639,-36,-115
-71,-60,-136,-119,21,378,1587,252,173,-65
-160,-176,-182,-227,34,436,1531,-49,-62,-177
8,6,78,187,112,26,-360,-403,-36,-46
364,303,351,385,198,-564,-2657,-556,-96,243
367,317,348,214,151,-370,-1759,-365,13,283
252,211,250,185,200,345,-93,-284,-159,193
314,235,146,60,33,196,-283,29,223,287
457,196,35,-159,-234,-389,-1158,542,503,427
450,30,-114,-296,-373,-532,31,834,389,171
2,-323,-347,-440,-507,-279,2583,963,-311,-359
-369,-248,-201,-217,-220,181,2401,413,-417,-513
-153,54,106,-5,1,106,-89,-582,-408,-188
183,344,331,116,86,-105,-1790,-1045,25,252
171,333,175,63,94,-143,-1841,-1114,132,404
-38,110,-42,18,138,239,-691,-806,188,274
-375,-241,-194,-29,102,149,-386,-8,120,-109
-621,-434,-176,74,189,0,-430,755,412,-258
-568,-304,-58,18,215,51,153,791,75,-287
-480,-87,106,-86,185,278,1079,370,-197,-386
-290,9,281,196,132,174,802,20,-431,-328
-222,-39,233,523,42,88,518,0,-105,-257
-225,-186,-105,174,-4,241,871,144,-74,-190
-137,-147,-229,-54,72,384,1001,190,85,-78
32,-19,-166,-149,32,130,255,137,190,205
279,152,-46,-102,15,-11,-50,235,445,362
287,23,-102,-117,-47,-23,-31,448,68,215
114,-79,-143,-138,-295,-294,431,281,-67,4
163,26,-3,49,-223,-284,28,-241,-217,-9
256,172,159,189,51,-87,-1346,-670,48,101
285,168,148,43,-7,-345,-1694,-670,21,157
209,131,106,-5,-59,-342,-981,-526,-244,48
64,16,5,-32,-16,-2,54,-455,-704,-130
64,39,-7,-34,8,161,598,79,-258,-17
165,142,62,-1,0,-39,64,291,83,188
74,105,67,17,23,-122,9,169,664,201
-63,-51,-28,-13,32,-81,-185,29,730,79
0,-15,-10,12,57,181,92,27,341,28
136,4,-1,0,64,302,395,335,-105,87
32,-52,-61,-11,56,238,926,377,-60,-8
-150,-255,-223,-133,-13,271,1942,166,-491,-276
-72,-125,-195,-163,-132,92,1276,-263,-565,-230
52,162,70,4,-81,-171,-1155,-764,-601,4
124,346,323,239,106,-238,-2561,-406,-125,234
-40,121,231,193,125,-262,-2224,103,177,115
-237,-134,-21,-40,-86,-269,-463,215,812,-29
-187,-58,-70,-103,-114,-89,974,15,564,-140
-22,72,39,9,27,39,619,-162,316,-92
-25,-19,2,-53,40,187,551,20,-81,-35
-166,-148,-117,-124,9,370,1207,295,-239,-182
-273,-325,-278,-189,-44,351,1530,374,-426,-276
-129,-163,-173,-63,-10,76,536,164,-161,-128
128,111,121,169,73,-367,-1605,-136,-139,101
351,380,409,401,156,-375,-1908,-185,155,303
363,314,393,440,154,-224,-1336,-70,211,350
23,-63,-11,-57,-60,-3,203,85,199,56
-158,-263,-255,-470,-234,66,1189,107,-141,-166
-53,-62,-67,-186,-160,41,612,-21,-128,-80
-119,-152,-175,-70,-67,302,967,240,-210,-92
-100,-157,-240,-81,29,331,805,586,105,-29
1,-182,-329,-262,-41,130,562,323,-77,-53
356,34,-190,-198,-11,168,1241,-152,-93,40
704,327,185,89,85,-62,-296,-493,-145,224
722,446,366,233,70,-331,-1891,-529,118,345
319,254,282,127,-79,-509,-2201,-71,201,339
-184,-10,48,-11,-149,-376,-1413,278,282,86
-472,-211,-169,-109,-149,2,446,94,-90,-200
-387,-89,-80,-26,-42,118,715,-390,6,-117
-465,-79,-21,29,84,-34,36,-293,-79,-46
-578,-141,-31,44,156,91,477,55,9,-222
-414,-164,-42,54,176,268,472,199,-41,-264
-128,50,98,132,179,263,141,136,50,-161
-60,71,124,94,121,202,48,214,-89,-122
-93,12,124,155,184,374,392,260,90,-75
8,-47,48,158,9,-123,-125,106,-25,0
76,-68,-23,152,-224,-483,-506,-147,0,12
142,-14,-52,-30,-171,-291,-455,-252,-146,27
166,31,-38,-226,-73,41,117,-282,-131,15
125,-26,26,-178,-14,205,438,-160,-247,-11
142,5,86,-80,-27,80,282,41,30,97
58,-43,-19,-146,-92,-54,241,73,18,88
-45,-86,-75,31,-59,99,548,90,317,70
3,-69,-110,189,4,107,289,23,294,74
111,57,-110,61,99,-10,-435,-67,116,33
192,107,-82,-24,91,-150,-709,-50,-178,70
201,171,49,-78,48,-99,-402,-108,-63,101
19,6,6,-129,-13,22,376,-19,-105,-6
-143,-123,-75,-44,0,284,1460,175,95,-133
-209,-163,-111,40,29,347,1089,128,-50,-191
-120,4,16,176,80,215,410,64,-28,-69
69,126,137,231,117,-148,-989,127,-52,91
-5,22,41,2,-14,-396,-1425,338,101,-28
-284,-243,-216,-280,-146,-17,395,542,-73,-275
-151,-102,-126,-141,-90,111,311,262,76,-114
203,175,116,50,-18,-226,-1016,-298,71,205
294,299,263,159,75,-206,-1267,-605,244,308
166,145,140,43,15,-139,-560,-446,114,193
65,66,30,-88,-118,-130,385,-266,91,64
0,21,-11,-121,-91,-24,528,-245,-220,-24
36,58,25,-62,-16,-17,48,-118,-203,-34
11,-22,-1,-35,18,-25,-71,95,-329,-106
-32,-102,-66,-23,34,104,577,409,-76,-140
-142,-270,-207,-89,25,230,1222,495,-27,-160
-246,-328,-236,-17,56,397,1577,443,118,-170
-170,-200,-139,94,37,364,648,-3,-92,-151
108,163,145,251,96,317,-232,-433,-99,66
384,355,305,186,115,-23,-1509,-55,-125,300
412,352,275,50,-31,-533,-2339,-60,0,263
393,305,206,-36,-192,-862,-1686,-370,-167,149
199,179,105,-45,-167,-593,-683,-407,20,59
-190,-200,-198,-195,-173,-167,143,-298,365,47
-291,-192,-155,-84,-68,78,289,-82,742,88
-294,-76,50,101,62,150,352,165,42,-111
-386,-121,99,112,131,276,722,427,-20,-179
-345,-249,77,34,145,321,764,466,8,-136
-173,-78,88,53,145,319,725,226,-55,-139
-100,-7,-86,4,100,257,688,121,-160,-97
-75,9,-254,-49,72,207,452,179,75,-20
12,-80,-366,-162,-32,45,209,150,0,25
-8,-143,-304,-149,-113,-3,637,225,8,-51
-57,-137,-162,-202,-124,6,1098,165,-362,-263
78,-35,-111,-329,-112,51,693,-90,-284,-176
361,154,58,-117,-98,-160,-989,-293,-177,114
529,307,291,204,73,-93,-1800,-355,130,290
503,270,326,268,157,8,-1278,-348,82,361
307,150,165,166,39,-76,-51,-225,71,233
176,27,14,164,-15,-256,-56,-83,-27,168
27,-54,-67,89,-8,-147,-17,-121,119,144
-237,-225,-224,-185,-101,29,631,50,9,37
-420,-274,-224,-105,-11,148,543,121,251,114
-269,-67,-70,42,66,72,314,-42,87,190
-94,232,237,179,140,21,1,73,-26,1
-202,124,245,150,138,-23,-422,-1,-242,-326
-272,-10,119,56,38,26,-341,-151,-44,-490
-57,43,109,47,-2,-47,-490,-194,-227,-308
73,91,98,108,91,4,-569,-167,-162,-85
-74,-90,-108,-87,-107,-212,26,259,-166,-143
-197,-159,-186,-171,-174,-41,771,539,39,-216
-89,-160,-151,-105,-1,190,458,156,239,-47
111,17,12,34,100,114,193,-117,453,159
243,155,115,130,137,-12,-182,-329,46,202
201,164,127,25,113,138,-53,-578,-143,125
194,131,132,-96,-67,-49,-93,-62,-117,166
128,83,177,3,-83,-107,-615,598,273,193
-44,-103,-4,43,-145,-242,-808,637,97,11
-193,-192,-253,28,-186,-150,70,-50,-127,-224
-103,-79,-198,98,-78,31,291,-807,-384,-175
78,88,-11,104,11,62,-278,-723,-142,35
40,-33,-32,-110,-27,-89,-226,203,11,93
-261,-283,-253,-304,-112,232,1779,840,233,-139
-240,-245,-254,-317,-119,280,1737,751,77,-183
164,229,183,1,78,30,-267,-38,95,110
322,327,399,186,266,42,-1250,-513,59,264
106,112,259,42,139,-3,-695,-161,211,127
-108,-92,-17,-185,-107,-208,109,41,-150,-94
-18,60,33,17,30,-85,299,-198,-244,-79
-6,10,18,163,175,223,218,8,-278,-45
-36,-92,-113,71,6,144,-280,196,50,-7
59,-27,-182,-58,-225,-142,-199,-9,35,68
320,305,80,209,-38,-235,-305,-229,260,290
208,213,63,173,39,-484,-1786,-261,89,201
-167,-127,-203,-121,-152,-368,-680,38,13,-129
-209,-271,-230,-324,-225,-14,886,368,-152,-173
-53,-196,-85,-254,-145,164,913,668,-68,-91
-9,-228,-105,-258,-148,152,1198,1156,-96,-122
36,-126,-22,-139,-51,154,1084,994,269,-14
168,105,213,70,121,101,93,-19,185,114
204,319,345,375,386,407,286,-1086,-83,47
103,297,263,438,425,353,-161,-2040,-445,3
80,174,124,251,172,49,-1244,-1743,-192,84
-44,-32,-10,154,-35,-210,-1064,-501,-47,53
-17,-85,-87,150,-112,-255,-539,551,241,72
24,-94,-303,-197,-183,-270,111,970,82,19
-248,-85,-290,-243,-61,-35,590,844,249,-3
-298,-56,-75,-97,82,-26,-145,572,274,99
-157,-5,75,-34,179,322,259,261,376,40
-208,-76,103,97,238,570,787,-127,-27,-197
-197,-44,83,89,101,220,432,-235,-159,-242
-33,28,109,29,-55,-401,-809,-356,-319,-97
153,86,131,-2,-160,-687,-1638,-415,-104,79
251,-8,-3,-124,-225,-372,-849,-116,-109,169
209,-5,-74,-147,-194,89,539,183,69,140
34,-50,-75,-84,-73,280,886,208,-16,1
-5,-22,-39,-34,8,162,587,191,99,-35
-46,-140,-166,-142,1,36,540,333,-60,-69
-155,-174,-205,-165,29,256,806,405,24,-196
-204,-155,-183,-195,-42,224,855,308,-162,-263
-274,-101,-106,-131,-28,261,1537,241,-239,-265
-179,-80,-31,-58,-21,81,746,15,-511,-233
76,72,107,84,-119,-315,-642,-264,-238,-17
322,324,394,546,32,-491,-1862,-396,150,387
253,314,361,567,250,-255,-2373,-537,521,338
-99,-75,-63,-104,93,7,-734,-442,273,-3
-24,-10,29,-138,22,-31,-126,-148,514,171
143,98,153,-53,20,-41,-263,125,460,277
-45,-119,-13,-205,-40,319,1165,849,293,-11
-60,-197,-193,-340,-128,260,1075,1206,188,-16
-45,-78,-174,-171,-108,166,693,379,-13,-77
-72,62,60,334,-7,-25,620,-672,-621,-268
6,159,131,525,177,-32,-249,-1447,-595,-222
138,123,94,479,229,-37,-1038,-1326,-481,0
173,127,74,256,128,-154,-1126,-254,-4,176
29,-52,-127,-322,-69,-236,-723,515,91,102
-263,-310,-349,-513,-192,124,1552,945,297,-131
-381,-359,-316,-291,-76,420,2249,818,75,-255
-191,-67,-63,-41,27,338,1247,172,-94,-194
181,222,156,72,9,-35,-215,54,-209,70
315,252,167,35,-36,-225,-1652,121,49,257
326,191,123,-101,-186,-569,-2187,25,142,315
364,307,273,35,-105,-624,-1625,-340,332,298
140,136,226,124,79,-88,-703,-1073,-169,34
40,56,127,174,144,271,-280,-1155,-187,-5
0,-21,1,109,65,130,129,-500,-142,-7
-77,-44,-84,17,-9,38,658,230,66,-39
-191,-171,-187,-82,-20,148,934,510,-109,-142
-151,-158,-173,-55,9,176,828,571,42,-72
-101,-112,-110,-74,30,55,346,571,-39,-82
-55,-27,-88,-124,-18,33,267,387,59,-158
-22,-56,-65,-190,-109,64,390,267,64,-98
-143,-120,25,-50,-44,222,611,215,260,-129
-332,-286,-202,-98,-48,275,1475,624,52,-284
-305,-260,-318,-65,-22,207,1617,947,-9,-241
-178,-201,-258,-10,-17,-145,351,601,-167,-95
39,83,66,-69,-43,-342,-200,-37,28,74
317,396,462,141,74,-188,-1330,-1042,-151,208
400,417,548,316,198,124,-1662,-1766,-172,242
585,402,548,347,185,-138,-1992,-1774,-97,462
654,392,365,262,57,-732,-3082,-933,343,587
273,8,-190,-131,-178,-558,-921,279,134,234
-71,-182,-424,-268,-171,246,2417,899,42,-132
-193,-218,-366,-233,-53,560,2320,793,-151,-226
-175,-109,-113,14,44,252,780,505,19,-100
28,17,32,219,168,-86,-850,130,-72,39
339,186,68,110,171,-169,-2096,42,178,225
122,50,-15,-143,-51,-85,-999,-59,-4,61
-168,-43,-31,-250,-176,-88,602,-302,-38,-88
-264,-122,-68,-256,-134,-16,941,-300,-205,-127
-387,-151,-61,-40,-9,203,806,-108,-57,-198
-491,-195,-77,118,47,210,344,73,-51,-279
-399,-164,-23,93,80,214,186,306,206,-181
-167,-136,-5,25,17,212,379,630,109,-69
-159,-70,43,159,-112,-44,415,783,67,-178
-263,-111,73,289,-64,-42,656,583,-242,-306
-221,-86,61,97,93,6,190,470,-67,-227
-135,-172,-134,-254,31,-119,50,178,-67,-96
30,-52,-154,-238,-18,-40,318,-557,125,78
215,102,-8,-31,24,89,30,-814,38,218
243,205,105,233,146,203,-241,-674,-19,162
327,223,152,334,166,106,-557,-540,-139,162
492,288,354,242,96,-62,-906,-307,182,293
498,187,291,-33,-74,-250,-625,68,53,328
282,20,-15,-234,-255,-291,408,421,118,231
133,10,-127,-175,-184,-307,-176,97,-111,125
-28,4,-235,18,-46,-151,-713,-266,-52,51
-156,-141,-343,-49,-43,9,-35,23,-103,-40
-185,-187,-255,-231,-42,169,623,390,91,-91
-249,-173,-202,-314,-49,189,697,311,-79,-267
-298,-72,-72,-204,13,241,1116,198,-45,-401
-231,-27,126,-23,78,117,934,-84,-139,-240
-285,-14,165,40,67,-7,90,-219,-12,-186
-235,-72,66,-23,1,-20,-354,204,1,-160
55,86,175,131,72,-103,-1418,679,223,59
283,196,215,244,73,-143,-1541,330,73,207
351,246,190,388,216,230,-24,-312,103,245
412,200,105,212,160,116,132,-1133,-114,243
479,166,47,-68,-144,-206,-280,-1332,-119,236
423,146,36,-87,-223,-330,-421,-600,-162,226
224,163,14,-33,-142,-215,-80,196,74,101
-170,-144,-141,-75,-53,147,736,575,-8,-108
-388,-282,-175,-60,69,302,958,463,82,-218
-336,-175,-121,-60,68,82,528,171,-55,-152
-289,-148,-93,-82,31,35,674,229,155,-58
-409,-305,-99,-46,74,109,427,327,59,-122
-339,-125,18,66,104,138,6,269,124,-188
-62,112,82,75,29,-179,-1087,166,59,6
-49,84,19,32,-5,-81,-691,320,213,140
-329,-176,-153,-160,-61,205,665,715,1,-102
-365,-230,-212,-243,-72,268,1285,551,-50,-319
-167,-192,-200,-172,-52,91,1014,-46,-256,-251
-37,-27,16,33,105,2,-112,-397,-161,-129
140,121,186,116,140,-1,-498,-680,-241,43
369,279,282,185,75,87,-391,-598,0,222
553,330,282,288,40,-31,-574,58,186,384
354,164,55,197,-107,-366,-664,511,394,315
111,-20,-148,-58,-206,-606,-846,54,-68,64
121,100,60,99,-21,-216,-575,-566,-322,-62
170,155,232,212,60,158,-64,-693,-258,0
158,119,287,164,65,224,-422,-799,300,150
173,66,194,-144,-32,-165,-1069,-564,212,209
146,84,46,-173,-66,-303,-809,-55,83,141
15,-56,-195,-103,-33,49,415,271,-213,-28
-7,-119,-345,-68,-56,129,963,509,-46,-61
29,-165,-369,-48,-112,-105,221,344,-121,-65
83,-56,-184,-138,-36,-81,-76,99,66,6
126,53,0,-172,25,-17,59,-34,-12,128
-117,98,132,-26,60,84,326,48,-6,43
-344,-92,26,-21,26,148,449,295,-33,-40
-403,-241,-152,-65,3,286,655,383,268,-67
-418,-286,-195,-59,-12,138,436,335,161,-237
-358,-175,-65,64,83,109,288,149,115,-343
-103,-25,108,193,176,167,216,-100,-223,-245
-21,135,219,220,195,189,302,-162,-246,-154
-221,20,110,74,88,51,273,-39,-362,-195
-240,-129,-61,-108,-82,-79,286,332,90,-106
-21,-92,-68,-151,-145,-141,-21,366,244,75
52,-5,13,-69,-45,182,363,-24,104,49
4,-101,-139,-187,-111,176,673,166,-129,2
-3,-81,-200,-211,-134,-51,246,450,81,-3
199,117,1,-46,-63,-257,-563,-200,-34,132
392,333,240,156,47,-240,-1182,-481,106,285
434,279,240,211,156,-43,-1020,-415,7,303
428,233,193,204,142,-27,-948,-644,178,307
340,139,92,115,-17,-318,-995,-578,47,251
55,15,12,0,-101,-177,-7,-256,-29,-19
-134,-159,-106,-179,-98,127,730,-27,-186,-166
-103,-139,-115,-200,-49,266,905,25,68,-79
40,1,39,-6,40,101,82,122,-31,55
118,90,177,332,77,-171,-645,138,-47,92
129,105,134,282,-10,-229,-436,33,-134,69
-137,-49,-57,73,12,236,903,133,-27,-142
-338,-193,-187,-80,16,223,1140,364,-141,-240
-322,-199,-198,-212,-82,-76,427,560,78,-174
-332,-246,-233,-243,-138,-123,536,712,56,-180
-254,-144,-164,-163,-71,93,739,367,135,-208
-41,7,-28,-53,-10,98,219,29,-54,-117
171,235,181,111,67,74,-478,-125,94,82
242,298,252,176,121,-33,-1068,-619,-74,151
180,233,200,196,177,-72,-1412,-614,34,153
101,140,164,194,150,-290,-1998,-575,-70,122
-115,-33,47,34,9,-170,-689,-601,-58,-60
-40,-51,54,-49,-47,-99,216,-393,-145,7
70,0,86,15,25,236,877,-122,79,83
-43,-169,-81,-124,-16,251,777,435,58,-36
-332,-403,-314,-275,-193,183,2267,1266,16,-297
-336,-382,-288,-166,-115,451,2457,1089,-214,-310
9,31,-25,41,-18,67,-134,107,4,-4
382,354,182,101,-27,-403,-1708,-456,211,357
553,495,396,218,138,-437,-2850,-678,552,552
376,281,204,23,53,-477,-2691,-891,47,275
85,82,-34,-160,-114,-249,-361,-339,-143,-24
-47,-45,-149,-175,-94,59,1049,350,-209,-90
-70,-9,-91,-49,-5,219,908,498,49,-21
-203,-130,-117,-58,-4,242,1012,222,-177,-173
-383,-336,-264,-283,-70,221,1292,-76,-261,-370
-160,-326,-226,-138,-103,-2,622,-114,-238,-143
342,66,59,184,-102,-259,-482,-294,56,268
491,219,128,184,-30,-116,-821,-269,-22,305
399,265,155,77,96,192,-149,345,252,196
196,216,190,41,131,44,-260,470,184,54
-32,109,134,65,116,-82,-57,198,150,-58
-216,-38,-25,-41,39,-84,269,-85,-93,-135
-313,-128,-154,-73,34,81,206,-398,-45,-114
-336,-279,-193,44,51,178,-168,-424,-71,-78
-401,-344,-159,132,22,226,296,246,202,-82
-409,-131,-79,-78,-22,201,446,661,86,-112
-228,44,65,14,45,120,328,389,72,-133
-225,-22,205,328,79,-60,194,52,-207,-294
-101,40,340,331,127,-25,187,-152,-132,-178
22,-25,114,125,67,158,301,-98,-189,-47
37,-131,-235,-76,-41,260,727,399,91,39
6,-213,-415,-345,-95,-35,419,1027,124,75
-61,-203,-354,-182,-70,-65,297,853,205,-2
-43,-129,-201,-25,-55,-2,323,-57,-127,-94
106,102,28,-146,29,141,-118,-1172,-268,-72
407,335,287,27,100,132,-1123,-1949,-202,224
634,518,463,295,91,-361,-2338,-1469,303,547
451,316,287,135,-65,-667,-1620,-330,132,390
179,138,117,-17,-153,-454,-130,494,100,139
27,5,11,-95,-144,-194,263,508,-136,-9
-58,-68,-38,-117,-96,154,971,243,-113,-120
-233,-204,-129,-122,-28,303,1468,293,-219,-245
-315,-205,-165,-73,57,396,1589,156,-52,-228
-148,-122,-161,-35,110,273,383,35,-36,-29
16,43,-22,51,120,-20,-972,159,267,138
30,120,113,115,105,-243,-1656,186,313,147
-33,121,96,38,4,-311,-1349,121,300,70
-124,-54,-81,-90,-58,-3,119,176,11,-41
-181,-123,-124,-58,-52,120,870,229,13,-169
-241,-184,-103,10,-67,181,1317,199,-284,-287
-127,-71,-2,84,-61,129,810,47,-221,-200
-70,-113,-107,-128,-138,-24,519,12,-283,-188
-137,-269,-221,-223,-88,123,876,493,86,-197
-49,-216,-173,-112,23,65,-391,499,147,-50
261,154,75,58,83,-10,-903,4,73,172
692,558,477,350,285,-40,-1392,-478,-114,458
668,549,492,356,241,-112,-1459,-736,110,516
153,105,112,-10,-138,-274,-167,-679,-46,191
-207,-109,-2,-150,-268,-358,-42,-294,-48,-83
-250,-217,-95,-185,-239,-230,107,67,-98,-154
-277,-295,-304,-223,-117,382,1662,497,189,-176
-210,-158,-258,-107,80,539,1253,453,74,-92
102,217,59,56,116,-41,-613,-507,142,122
353,373,351,185,110,-475,-1923,-951,-126,277
195,222,341,163,20,-338,-1149,-590,-118,113
53,-20,59,161,-7,26,399,-150,-185,-70
87,-2,-28,217,105,147,534,281,120,-85
-57,-78,-187,14,92,167,264,518,52,-185
-100,-141,-316,-128,14,145,167,543,180,-94
-163,-190,-236,-149,20,128,197,512,20,-4
-231,-120,-111,-252,27,195,523,295,-21,-80
-167,-72,-28,-126,19,136,367,68,-149,-101
-73,-43,15,36,47,105,188,-118,35,-41
-32,-94,-69,-1,4,71,262,-260,-104,-33
5,-6,-23,14,-14,48,424,-180,-66,-27
-18,-51,-30,-35,-63,45,596,171,-110,-23
-51,-50,-21,-26,-60,111,650,173,78,-24
100,69,91,40,-66,-155,-415,108,2,90
177,149,175,79,-76,-363,-1171,171,99,164
100,41,93,28,-78,-350,-1429,49,33,117
66,13,-4,-26,-76,-264,-1011,-27,254,89
97,-7,-100,-103,-72,-123,-132,-172,91,34
79,-33,-132,-20,30,260,1223,-477,-94,-47
35,-79,-103,-68,53,325,1172,-554,-446,-102
16,26,9,-98,13,137,525,0,-193,-35
-74,76,144,27,25,-103,-230,373,-121,-5
-33,173,236,254,79,-226,-976,174,99,47
125,178,174,217,82,-206,-940,-133,60,127
49,93,135,104,115,3,-537,-236,206,86
-27,38,91,11,35,35,128,-207,5,-41
-108,-8,24,70,-13,97,523,-67,-136,-181
-226,-155,-70,196,-23,88,275,195,-297,-175
-293,-177,-151,-5,-22,115,284,722,-3,-133
-341,-216,-245,-235,-81,44,434,838,144,-77
-254,-148,-238,-168,-32,223,798,438,465,30
-274,-255,-297,-171,-38,236,1150,285,269,-131
-310,-245,-207,-165,-48,138,1006,89,239,-233
-167,-128,20,-54,38,170,180,-319,-188,-234
126,92,232,84,91,73,-310,-662,-147,-7
495,369,400,203,97,-318,-1395,-1059,-118,328
656,560,496,294,89,-484,-1790,-1164,110,468
448,297,205,120,-17,-367,-1045,-504,-6,334
104,-13,-117,-32,-62,-115,-104,325,19,90
-45,-163,-207,-134,-108,-40,188,598,2,-3
-104,-166,-197,-179,-95,164,672,465,238,-31
-8,-88,-125,-106,-37,196,565,114,40,28
193,197,144,120,99,-6,-389,-151,-48,107
144,232,248,143,92,-265,-1126,-196,-341,-27
-47,34,115,-18,-20,-105,-297,13,-168,-125
-68,-113,-77,-165,-113,38,558,197,3,-31
-55,-175,-139,-125,-32,322,985,229,163,-9
-17,-189,-212,-172,-54,159,613,116,-56,-41
-5,-136,-230,-183,-21,146,506,271,32,-34
35,-63,-162,-86,44,85,205,392,-86,-19
68,143,4,166,-12,-73,-10,281,58,-18
121,170,140,313,-4,-211,-200,45,40,82
140,130,155,164,51,-163,-470,-502,19,128
137,21,44,44,26,-151,-903,-709,-165,112
179,61,55,105,35,-29,-564,-493,-21,123
-80,0,31,-7,40,1,-273,3,-82,-30
-468,-163,-89,-140,15,146,640,369,-1,-238
-482,-274,-138,-108,56,322,731,268,-94,-243
-410,-271,-69,14,141,317,401,197,164,-229
-395,-156,-20,-10,64,132,429,200,139,-282
-23,217,138,61,-31,-79,-258,-50,236,-41
91,164,56,41,-120,-57,166,-43,65,64
69,147,97,68,-63,-116,292,9,-5,20
101,165,178,100,55,-341,-1017,-109,-181,40
-23,13,24,-34,39,-207,-334,67,-64,-26
-74,-142,-123,-138,-18,34,507,79,-137,-56
-26,-110,-90,-100,-76,33,249,-29,-7,-35
106,-63,-33,-66,-92,-50,58,71,-54,53
200,36,83,46,-24,70,293,278,184,154
136,31,81,125,-4,74,-175,81,68,138
23,25,42,199,52,153,-107,-157,16,7
44,-13,-66,-36,10,-83,-497,-79,-103,19
22,-43,-114,-190,-69,-152,-462,44,157,65
53,-87,-83,-165,-19,88,339,8,-31,52
53,-59,-97,-99,5,151,695,-29,-20,0
116,32,-121,-52,-39,-84,235,-173,-142,25
218,168,-24,55,55,9,-48,-144,-26,62
139,113,58,49,29,30,-170,28,-143,15
113,165,247,98,-21,-148,-682,48,43,65
14,100,177,0,-88,-177,-546,-5,-44,19
-191,-10,9,-63,-29,219,697,132,53,-124
-239,-140,-76,-75,37,303,938,85,-78,-163
-244,-178,-107,-104,23,199,565,-6,64,-131
-141,-67,-47,-74,-7,-87,-229,-15,103,-16
85,172,138,70,32,-310,-1016,-249,226,102
189,191,181,120,61,-301,-1047,-571,-66,118
122,104,148,158,100,-53,-492,-536,-123,61
10,-38,121,252,70,37,-239,-111,-238,-8
-52,-75,84,369,32,20,-102,278,-31,-47
-68,-166,-210,39,-15,74,293,393,40,-10
-62,-134,-258,-125,1,153,661,315,269,-40
-72,-132,-154,-127,-5,104,656,355,86,-71
-87,-117,-144,-177,-55,99,659,455,185,1
38,-13,-118,-177,-61,32,156,303,-32,66
180,157,24,-60,9,49,-205,-66,-36,94
137,111,24,-35,17,67,-191,-419,-83,74
26,2,-26,-56,-66,-22,-33,-439,79,-35
23,-84,-63,-57,-101,-116,48,-295,-103,-93
62,21,28,12,-43,-104,28,-96,-70,-19
-31,86,120,87,43,-119,-154,87,-282,6
-148,106,143,100,54,-94,-300,216,1,63
-303,-81,-14,-51,-67,-65,-51,496,278,24
-335,-150,-91,-109,-101,61,372,553,468,-97
-173,-172,-130,-117,-70,96,439,311,-29,-199
136,10,-24,20,0,8,126,-1,-85,-75
222,111,53,17,78,16,-120,-443,-324,0
122,189,118,18,112,40,209,-595,-182,29
236,205,172,95,93,-10,-11,-538,-78,214
308,160,183,130,104,89,-183,-140,51,231
194,-31,-5,-20,-21,0,-280,177,-20,114
85,-84,-87,-28,-89,-59,40,151,129,38
28,-98,-89,66,-103,-95,375,-299,-133,-57
-93,-136,-135,55,-27,115,317,-575,-217,-138
-25,-61,-68,24,107,206,-370,-28,-165,21
99,108,61,-17,-1,-272,-1415,377,136,142
-14,33,21,-118,-166,-427,-791,322,-40,-14
-54,58,95,4,-17,-85,37,159,110,-41
-31,46,53,5,57,-21,-406,0,177,103
-170,-63,-86,-101,-9,73,457,94,357,17
-336,-149,-185,-131,-35,269,1655,292,63,-218
-384,-111,-136,-57,52,408,1374,299,-43,-324
-225,-41,13,16,60,146,202,192,-156,-207
100,131,218,139,89,-120,-1072,363,143,55
232,112,178,105,73,-234,-1492,332,126,167
132,76,94,27,-26,-125,-636,-134,191,143
11,21,59,65,-7,-52,-198,-525,-57,43
-38,-19,-12,125,104,133,607,-689,-155,-41
41,-30,-67,71,93,58,250,-566,-257,11
107,54,-45,-4,-5,-60,-249,92,12,94
23,-19,-71,-107,-84,-56,-162,205,-88,7
15,-15,-9,-70,-41,101,342,-128,-21,-51
77,25,75,-20,6,125,542,-339,-120,-33
30,41,91,-31,-33,27,475,-195,-13,-28
-13,-53,-32,-137,-86,76,670,245,-146,-78
-40,-103,-120,-122,-78,73,507,611,68,-36
24,-70,-102,0,-34,-112,-307,403,57,112
149,100,42,104,52,-234,-1078,-182,111,151
158,96,28,-58,31,-198,-1161,-354,67,128
73,48,-6,-4,63,158,-28,-9,280,116
17,13,14,329,17,-48,21,136,133,52
-84,-39,-42,191,-82,-195,319,57,44,-94
-65,-46,-10,-235,-118,-169,375,-165,-288,-110
72,101,146,-77,0,115,74,-164,-156,27
-100,-67,-34,77,61,317,520,167,-172,-77
-256,-226,-229,-80,2,139,770,472,148,-171
-310,-285,-343,-320,-112,71,981,505,144,-178
-233,-131,-172,-194,-65,95,665,455,222,-84
-100,31,65,44,97,159,215,11,-125,-74
165,299,368,358,309,59,-1135,-547,-205,36
330,274,333,283,193,-314,-2263,-783,-192,180
293,143,179,108,9,-240,-1189,-452,234,294
207,56,95,32,-75,-248,-942,-217,3,211
53,-46,-61,-138,-220,-254,-22,-38,34,55
-9,-84,-72,-99,-111,-105,516,163,13,-18
-42,16,75,86,84,139,626,247,73,-130
-68,0,46,-10,46,200,693,198,-143,-139
-118,-31,-3,-76,-20,195,613,112,-86,-115
-157,-96,-71,-75,-59,91,360,-32,-182,-97
-172,-110,-79,96,-13,82,126,-144,-29,-113
-194,-203,-253,-28,-22,124,720,55,-73,-136
-213,-250,-418,-397,-169,201,1708,456,104,-148
-191,-180,-333,-348,-168,165,833,685,-14,-120
61,130,-2,-13,3,-8,-570,368,157,103
359,380,348,317,190,-290,-2314,-111,95,299
270,323,386,369,215,-285,-2070,-592,-13,134
127,133,233,177,109,-67,-751,-978,-253,37
-39,-5,99,56,30,84,141,-509,-89,-5
-135,-172,-76,-96,-95,-61,398,136,-71,1
-64,-156,-144,-180,-187,-160,691,406,160,29
48,-42,-43,-58,-94,-93,523,235,-22,38
41,22,28,51,50,69,47,-1,148,41
-81,-106,-96,-72,-21,-12,-84,132,273,27
-102,-100,-84,-79,-8,79,383,501,518,95
-50,-138,-114,-109,-3,135,566,630,139,21
38,-102,-65,8,75,198,470,520,-57,-135
141,56,60,134,84,38,-50,46,-234,-35
227,296,172,208,-21,-156,-331,-918,-128,82
212,308,110,146,-68,-184,-620,-1328,-249,58
163,228,91,49,-50,-112,-546,-856,-159,15
60,3,64,23,39,59,-9,-299,-295,-92
-189,-147,49,51,128,365,901,329,-32,-188
-218,-177,-5,-5,85,319,914,698,-20,-156
-87,-45,-25,-24,37,51,154,489,193,-31
2,110,41,46,28,-289,-921,160,151,9
-48,85,-8,-1,5,-316,-1016,-32,108,-36
-54,-57,-113,-130,-90,-118,-388,-60,-105,50
61,-17,-21,-39,-40,22,-110,7,121,193
3,-88,-85,-52,2,174,299,-22,-74,77
-35,-73,-134,-55,-23,149,400,-138,102,16
-12,-9,-93,-17,-39,0,343,-148,-34,-72
-8,35,16,-65,12,98,299,-29,-1,-140
19,-7,44,-114,-61,41,381,249,-143,-94
116,74,127,-8,-66,-71,106,304,34,82
52,22,70,3,-25,-170,-522,278,-22,86
-58,-48,-41,-27,-61,-109,-32,356,103,14
3,0,-6,85,39,-88,-148,-54,38,86
-3,19,0,170,146,32,-202,-410,240,146
-104,-63,-36,70,79,65,53,-347,-35,15
-82,-50,-17,-18,15,183,579,-148,-196,-140
38,-11,0,-44,-9,219,598,-50,-376,-95
107,122,106,35,35,28,-197,82,-135,15
57,75,109,19,81,-147,-1047,242,-91,44
-68,-21,-4,-56,19,-246,-690,156,194,19
-171,-210,-201,-212,-169,-109,979,-78,154,-76
-111,-163,-155,-164,-167,127,1270,-61,370,-29
20,-28,-5,19,1,347,820,-90,133,15
211,201,209,299,161,110,-968,-110,141,189
215,204,187,308,53,-437,-2457,-70,-52,212
62,83,34,12,-20,-319,-1163,0,-33,32
-32,-16,-30,-161,-35,-100,2,0,-207,-94
-96,-67,-50,-163,-132,-103,850,-88,-141,-160
-223,-184,-151,-210,-131,92,1371,32,-277,-271
-295,-129,-138,-207,-6,406,1482,312,-90,-270
-110,0,-42,-127,70,201,485,309,-110,-57
273,261,212,145,185,-91,-1015,12,97,260
376,226,185,154,147,-34,-1170,-98,74,315
143,19,-41,-28,-120,-137,-692,-127,190,84
138,34,12,202,-109,-322,-623,-244,190,82
156,54,72,448,130,-60,-202,-90,279,143
32,-90,-7,73,109,105,251,50,-84,37
-101,-132,-42,-130,-5,143,458,-90,-92,-94
-196,-214,-176,-8,-43,15,234,-302,-194,-145
-177,-169,-249,95,-72,-25,141,-141,-3,-85
-63,-107,-184,-152,-84,38,227,258,-15,9
-75,-56,-30,-231,-21,143,464,425,90,-29
-70,45,130,-127,0,2,202,285,-93,-57
13,166,250,19,15,4,173,93,40,-5
41,102,151,118,52,5,128,-138,-52,21
-1,18,-12,141,89,-14,92,-146,57,12
-54,-84,-122,10,31,17,91,-96,-75,-33
-91,-74,-87,-80,-44,93,291,111,-65,-143
-176,-129,-33,-112,-64,176,720,567,-160,-208
-88,-65,9,-83,-18,168,714,427,61,-57
-55,-20,-74,-177,-114,-112,205,53,-90,-35
11,168,63,-2,-10,-145,-412,-657,-90,-29
253,291,180,175,174,-120,-1826,-1060,11,245
254,212,133,189,178,-11,-1522,-677,209,258
179,103,73,90,37,-87,-657,-155,46,146
93,39,19,-56,-147,-226,114,247,118,77
152,-66,-64,-110,-153,-187,441,458,12,73
55,-124,-67,-73,-32,121,821,340,67,-30
-48,-144,-80,-107,-14,288,1049,180,-126,-86
2,-32,-20,-70,-26,96,340,91,46,0
-46,-59,-40,-58,-39,-181,-672,52,-55,14
-177,-74,-92,-67,-69,-227,-813,3,-18,-74
-328,-152,-144,-105,-50,24,-13,53,-74,-211
-404,-151,-95,-36,41,315,640,254,187,-226
-253,66,85,201,157,165,374,245,80,-75
11,304,243,373,258,87,7,-35,154,88
230,175,184,168,177,33,-174,-44,74,245
114,-15,46,-17,47,51,-104,-16,101,121
-103,-107,-46,-66,-59,-18,-168,-227,-147,-191
-46,-86,-46,122,-1,15,-55,-95,-17,-126
-75,-167,-185,51,-24,21,607,83,-104,-82
40,-74,-114,-110,-75,-46,635,-37,-65,-27
267,107,120,-45,-25,-142,-433,-297,-342,83
214,192,242,6,-12,-83,-640,-263,-74,124
55,39,132,-120,-59,-33,-345,-134,-61,28
22,-15,27,-102,-42,-2,-53,57,139,43
89,58,37,4,-12,-155,-460,72,117,170
74,144,59,99,47,-93,-529,113,168,145
-63,39,-63,81,32,158,348,290,-39,-12
-133,-13,-70,140,-39,21,464,229,91,-66
-100,-175,-134,-36,-163,-226,213,92,-1,-70
-49,-211,-167,-240,-128,-112,298,147,41,-132
98,-50,39,-89,31,59,17,-25,-160,-82
95,58,170,22,67,167,-124,-221,-76,-43
-10,32,62,7,-12,126,310,-50,-169,9
57,108,-21,136,67,127,441,-111,-27,107
101,89,-154,118,101,22,-316,-202,-135,136
22,40,-148,-43,35,-13,-52,-165,-43,-13
82,-1,-64,-158,-21,-89,111,-112,66,-35
96,-45,-59,-142,-40,-36,70,50,364,78
106,-116,-117,-121,-73,-56,-88,57,183,120
196,23,-15,-64,-32,-62,-311,-44,109,116
85,40,20,-108,-22,-52,-259,-30,-174,20
-56,73,68,25,-70,-83,-47,36,-106,-46
-136,68,106,192,-45,1,-137,-42,-249,-145
-203,58,142,129,85,176,152,-28,-159,-217
-241,-74,57,7,87,207,651,268,-144,-167
-217,-142,-19,52,20,202,714,394,58,-108
-154,-151,-40,214,-78,-86,166,98,25,-107
-58,-27,-26,164,-48,-33,218,-104,354,11
43,60,3,-60,61,-29,-802,-249,22,42
0,24,-33,-195,-17,-127,-660,-228,-26,-7
98,31,-3,-110,-69,-244,-580,-132,-20,81
78,-34,-38,-75,-57,-83,-221,89,57,37
-43,-191,-170,-177,-112,149,863,277,20,-14
61,-43,-48,-88,-34,221,1016,149,349,150
205,109,97,62,105,272,465,-6,-37,184
261,274,256,223,201,6,-635,-62,-307,93
165,172,180,125,76,-345,-1222,-160,-466,72
-47,-2,19,-7,-49,-428,-1077,9,-199,12
-308,-206,-120,-40,-47,-139,-389,174,-18,-151
-462,-258,-160,25,32,224,262,377,745,-75
-310,-228,-171,40,128,473,826,576,995,82
-108,-9,-48,-19,83,342,978,405,432,-95
50,193,140,-8,-3,41,132,-324,-345,-128
217,304,266,134,50,0,-416,-591,-177,50
190,138,141,92,29,-265,-773,-644,-278,29
83,-7,-49,-88,-138,-341,-366,-562,-270,-52
113,12,-34,-90,-157,-185,-16,-337,-281,10
133,116,120,87,-38,-117,13,-192,-121,63
39,-3,60,68,-10,-77,4,1,-158,50
-50,-91,-55,-19,9,71,231,217,75,16
-78,-194,-192,-146,-32,116,553,322,-18,-15
-91,-199,-216,-212,-108,116,676,378,92,-57
-25,-110,-137,-128,-77,136,305,322,-74,-55
120,131,64,61,51,103,-129,201,15,59
121,164,101,100,118,-20,-342,115,-73,108
72,97,67,87,113,40,80,-174,39,65
8,-52,-13,17,56,163,91,-313,-101,-37
54,0,5,12,36,158,-38,-184,51,-57
142,60,28,-42,-28,-35,-353,-95,112,6
120,137,97,6,-6,-215,-762,53,217,78
4,5,7,-66,-74,-249,-278,176,-83,0
2,-64,-68,-105,-142,-180,437,315,10,-9
-4,-106,-65,-61,-103,-99,281,200,-27,58
-178,-102,-65,-42,-49,105,459,44,123,25
-354,-236,-206,-138,-48,328,1476,109,35,-70
-369,-283,-255,-113,26,522,2072,134,106,-137
-364,-232,-162,-29,73,299,727,10,-143,-260
-234,-21,4,59,82,-5,-425,66,-35,-291
84,208,188,166,99,-485,-2573,57,-21,-67
61,233,153,97,9,-481,-2407,-63,-14,-32
200,283,169,48,-55,-367,-643,-117,-140,87
378,394,365,266,119,-126,-852,-445,124,294
210,178,237,240,184,199,-400,-470,110,208
-54,-124,-34,9,77,232,704,178,159,-20
-129,-246,-176,-174,-55,212,983,666,-106,-123
9,-50,-6,-89,-86,73,539,268,17,11
193,93,129,3,-78,-140,453,-268,-90,130
224,110,68,26,-4,-45,480,-713,-70,111
281,91,23,59,2,-127,-736,-1056,-142,150
336,168,75,168,-2,-227,-1406,-699,64,207
131,5,-64,-18,-54,-89,-522,89,-67,53
-41,-92,-173,-226,-101,50,308,308,-31,-102
-85,-137,-125,-84,-67,44,463,259,-178,-127
-110,-75,-20,-33,13,116,545,287,18,-95
-195,-143,-7,-203,5,108,404,378,47,-47
-311,-180,-52,-66,26,162,457,426,150,-93
-271,-124,-120,138,56,108,328,344,-15,-81
-152,54,-86,91,89,71,231,225,191,25
-94,77,-142,-83,-13,-11,12,101,178,-2
-76,49,-92,40,-49,55,-31,-49,210,-86
-67,-37,15,214,49,62,-40,-168,-120,-98
-90,14,156,137,152,60,108,-223,-229,-129
-179,-33,175,111,147,77,337,-118,-403,-180
-226,-73,113,87,36,39,550,173,-190,-203
-134,-54,51,-47,-60,-62,117,397,-124,-114
104,29,39,-128,-55,-138,-538,266,277,145
309,75,25,-80,-21,-123,-937,-306,145,244
377,65,-49,-41,-8,128,-427,-612,-2,178
306,-102,-163,-215,-208,-52,210,-125,-165,109
67,-168,-195,-265,-251,-153,1048,220,-14,-5
-145,-234,-214,-202,-106,188,1818,142,-196,-163
-192,-122,-98,-32,74,473,1731,-156,-170,-203
89,183,127,241,255,368,-151,-569,-114,94
562,577,371,478,302,-298,-2717,-499,485,608
611,466,321,258,56,-890,-3306,-115,378,596
176,83,80,-81,-158,-678,-2047,277,212,150
-213,-243,-151,-189,-164,-185,-249,338,-110,-159
-315,-166,-119,-77,-36,214,1149,330,-22,-223
-349,-85,-90,2,3,282,1208,336,216,-161
-289,13,-19,80,46,263,884,192,393,-90
-138,47,55,30,71,92,113,96,-202,-175
-36,22,61,-30,48,-21,-344,188,-351,-181
-14,-61,-21,-54,5,31,38,131,-402,-103
-19,-70,-39,-62,-30,71,350,20,-48,-8
-17,-93,-42,-76,-44,52,461,-156,-94,19
-68,-56,5,-11,-41,-1,373,-457,82,-9
-79,-101,-7,18,-38,-98,-157,-514,206,38
-2,-15,22,69,55,41,-34,-143,217,33
28,-8,-34,-8,38,74,181,154,16,-7
14,-21,-99,-81,-19,112,382,352,135,-69
-16,-47,-75,-72,-26,159,292,481,-69,-75
27,32,10,5,-12,79,178,484,52,39
99,57,49,37,-5,-118,-241,24,3,122
90,83,99,118,55,-135,-555,-438,80,90
51,19,31,31,-57,-207,-501,-408,-124,23
1,-7,-13,-27,-83,-68,-95,-184,-102,-64
-154,-190,-150,-135,-76,172,757,289,-241,-173
-235,-200,-196,-168,-96,196,1312,657,-111,-227
-80,-41,-45,-12,32,64,100,172,-191,-95
185,215,173,168,191,103,-779,-382,46,120
322,291,244,209,209,61,-1072,-627,33,211
290,196,155,98,63,-168,-657,-502,397,292
175,43,41,-15,-26,-165,0,-329,286,235
137,121,132,62,2,-143,-326,-375,-41,46
49,19,26,-25,-81,-127,-197,-102,-340,-53
-32,-55,-79,-69,-95,-95,183,271,-22,9
-75,-109,-127,-103,-117,-117,83,379,-41,10
-139,-90,-120,-87,-89,36,335,430,140,-38
-123,-89,-98,-74,-29,167,722,286,88,-71
26,47,32,12,38,151,443,-30,81,-53
62,29,51,33,60,38,-120,-85,-264,-91
15,5,27,39,55,-86,-393,203,-80,-8
-64,-131,-144,-102,-53,-128,-183,477,58,48
-160,-185,-203,-99,-50,276,1676,342,124,-63
-280,-192,-161,-8,31,454,1920,-16,-165,-225
-163,3,17,110,38,165,124,-387,-13,-179
219,349,295,176,130,-225,-2029,-665,1,145
384,455,364,113,123,-520,-3535,-631,167,348
84,60,37,-103,-123,-376,-1693,-128,-183,52
-242,-234,-154,-159,-123,75,1201,325,-260,-238
-355,-337,-271,-244,-90,191,1639,559,-177,-199
-250,-135,-141,-35,-39,138,819,634,357,-42
-61,32,51,359,149,197,338,367,326,26
122,152,174,342,244,66,-219,-38,406,143
109,90,127,117,152,-74,-475,-352,30,53
-9,0,42,-32,-50,-54,-227,-710,-138,-46
-77,-112,-80,-189,-227,-8,316,68,-211,-35
-87,-167,-107,-215,-202,112,640,857,72,-50
-117,-219,-136,-243,-178,-50,353,473,-29,-103
51,-3,2,-55,37,-8,224,-155,-1,-13
274,155,56,58,180,245,720,-596,-104,132
248,160,52,117,203,399,962,-1148,-117,50
125,127,43,144,96,242,664,-971,-428,-76
149,146,96,142,22,-125,-464,-384,-209,54
347,215,214,210,-2,-715,-3048,36,134,378
332,299,266,401,-11,-836,-3684,384,390,404
84,79,-15,17,-160,-452,-1055,766,131,153
-202,-122,-143,-256,-156,72,1205,646,92,-98
-380,-251,-134,-154,-19,336,1685,212,-81,-237
-331,-166,-85,-53,47,303,1365,24,35,-182
-220,-94,-73,-56,17,101,490,-47,-98,-146
-142,-29,-45,-17,14,39,-181,-97,29,-121
-142,-105,-130,-74,-6,88,-17,119,-73,-167
-179,-169,-148,-125,-67,150,621,397,79,-194
-94,-163,-53,-136,-49,174,731,324,-55,-73
92,9,139,-3,3,48,226,-75,0,67
133,11,153,2,20,-59,-647,-430,-190,55
182,68,179,-54,41,-120,-809,-492,-35,124
340,237,232,67,29,-264,-1096,-342,17,282
333,301,117,129,-42,-282,-802,-118,149,216
91,26,-225,-13,-92,22,332,153,81,-7
-101,-93,-326,-67,-40,209,915,300,68,-78
-110,-101,-188,-21,87,220,894,337,-213,-63
-71,-96,-57,72,160,318,674,269,-20,-39
14,-70,-50,73,62,87,98,20,-34,35
-41,-55,-47,-39,-40,-132,-281,-198,62,-32
-146,-64,34,-116,-59,-224,-709,-266,-75,-89
-238,14,138,-42,-19,-77,-189,-171,72,-110
-174,7,101,6,8,45,397,86,90,-79
-21,45,76,169,105,160,435,227,181,-53
83,-33,7,144,123,102,148,127,-117,-42
138,-39,-8,14,48,45,-83,57,51,79
117,-63,-65,-112,-66,-51,-197,81,23,137
30,-26,-100,-160,-124,-9,142,123,15,29
-38,58,-73,-168,-205,-178,365,109,-153,-31
-91,111,21,-47,-61,-52,598,41,-6,-92
-190,-31,15,-47,73,54,199,147,-62,-217
-136,-39,39,-75,54,25,-64,-7,80,-167
62,41,126,48,101,81,-370,-449,-32,47
147,178,216,247,187,142,-264,-362,66,181
112,130,159,312,223,189,55,-278,-143,117
116,54,-23,144,79,79,102,-196,38,88
158,-10,-136,-4,-163,-171,-589,-78,-36,57
136,0,-61,-72,-165,-279,-1082,-18,-9,-14
88,9,47,-116,-40,-307,-1201,2,-80,15
17,-41,8,-55,-34,-182,-8,45,82,63
-73,-110,-98,-49,-49,21,927,0,-75,14
-58,18,12,52,17,114,601,72,79,14
-56,-17,-6,-20,-66,0,186,96,-91,-14
-85,-67,-57,-84,-103,-13,75,29,81,-34
-82,-113,-108,-100,-44,163,84,62,54,-29
-74,-101,-136,-136,-43,361,605,259,101,-51
-45,-87,-138,-174,-42,311,1221,726,-154,-108
136,97,22,-42,18,70,584,770,-33,3
290,246,172,80,-6,-364,-760,159,-115,107
160,216,223,218,120,-243,-938,-434,28,76
42,65,121,174,137,-244,-1246,-880,-13,89
19,34,53,73,41,-163,-885,-1145,120,144
-38,-35,6,-7,-24,-105,-22,-658,82,117
-188,-162,-83,-70,-39,163,844,119,277,-7
-281,-256,-180,-146,-65,215,971,528,29,-94
-291,-109,-115,-100,-57,117,648,631,31,-130
-113,20,-1,-11,-17,-114,-596,406,-53,-82
-35,39,68,63,61,-8,-427,102,-12,-74
-31,7,97,67,99,77,-247,-75,-136,-64
39,51,133,209,66,-24,-403,-214,29,-50
91,18,54,214,54,36,-43,-67,-26,-46
83,35,-31,-22,76,76,367,387,249,36
123,70,-58,-176,53,57,256,296,41,101
210,169,68,-116,36,103,0,-110,-49,145
120,77,52,-94,-28,88,1,-278,-198,101
-49,-52,-20,-36,-43,108,145,-444,-11,24
-151,-210,-203,27,-70,36,-82,-252,15,-34
-243,-337,-334,86,-197,-192,117,236,111,-178
-220,-345,-282,38,-266,-422,489,358,-282,-299
-15,-28,-16,-34,-29,-21,376,144,-331,-188
154,173,198,5,141,141,-645,-124,-297,37
214,327,323,94,111,34,-329,-377,176,247
287,368,312,122,79,-37,-332,-447,284,359
85,192,111,16,3,-121,45,39,247,120
-314,-251,-266,-244,-122,109,1805,683,-17,-216
-497,-481,-480,-383,-173,392,2075,989,89,-317
-314,-298,-280,-261,-122,183,714,671,35,-194
93,160,219,130,120,-5,-983,-193,196,73
370,381,497,436,345,-16,-1945,-1000,9,265
479,494,579,631,366,-326,-2614,-1214,-15,306
241,228,214,291,84,-299,-1405,-739,-271,64
239,179,4,-11,-100,-199,-284,-164,22,107
209,122,-30,-96,-118,-317,-916,32,-103,105
-161,-122,-81,-129,-83,-35,189,295,-121,-122
-345,-323,-183,-160,-18,257,1179,458,-113,-169
-207,-207,-183,-167,-22,292,1219,314,123,-99
-68,-119,-158,-178,-100,17,642,194,-84,-98
-38,-104,-144,-96,-89,-111,680,138,-69,-64
10,-68,-96,-1,55,9,81,-33,-36,28
122,64,22,8,86,100,-291,-212,179,100
243,153,103,67,20,76,-176,-224,104,229
164,128,91,24,14,163,-242,67,247,195
2,68,6,-182,-138,-66,-15,208,33,-14
-88,68,22,-113,-111,-140,260,98,25,-112
-181,-70,11,8,8,-62,103,27,-182,-184
-267,-191,-83,25,9,59,368,85,-79,-194
-265,-284,-195,-20,-40,97,545,214,-46,-138
-207,-209,-142,89,19,142,613,325,206,-32
-87,-146,-77,112,72,159,566,312,71,-4
29,-8,-14,-51,56,137,367,140,73,-3
146,87,74,38,13,-138,-587,-162,-133,54
183,95,34,144,52,-212,-1044,-284,-15,93
153,9,-19,29,-7,-298,-1106,-182,-64,91
77,24,75,-55,-113,-295,-687,-140,45,41
22,28,100,-116,-127,-80,-26,-113,-80,-20
108,176,153,-46,-3,65,289,-191,8,32
157,182,73,-51,63,218,816,-398,-259,-15
97,105,-72,-94,70,449,1154,-324,-181,-51
8,-38,-194,-167,-83,115,306,-28,-167,-32
4,-47,-132,-115,-198,-184,421,161,55,10
25,10,33,39,24,-146,-711,207,97,154
-154,-42,40,93,136,142,-628,334,298,117
-191,-83,-10,101,125,137,-125,598,248,44
-199,-17,-25,120,123,-49,-338,451,237,-144
-316,-136,-147,17,-17,-50,471,151,-105,-324
-149,-57,-51,71,-3,-13,432,-148,-100,-204
-2,20,131,20,20,-149,-447,-581,-267,-97
-61,79,348,111,43,-258,-1090,-500,-49,-14
-150,-73,136,-1,-59,19,-294,105,-6,-9
-42,-60,-66,-77,-110,38,226,314,182,31
52,17,-149,-191,-37,39,-10,247,-30,21
14,63,-135,-81,88,254,694,81,-14,-37
8,49,-54,137,170,260,658,-288,1,27
94,99,-20,-62,29,83,237,-260,260,158
248,139,84,-136,-62,-110,-17,-28,-5,194
238,98,173,132,39,2,20,13,-103,70
147,13,142,420,12,-114,-350,-109,-321,-14
78,35,97,365,2,-108,-759,-262,-171,-1
158,14,30,-61,-6,-50,-604,-215,-72,85
132,-6,-18,-137,-12,-65,-388,92,222,132
-83,-135,-188,-102,-57,-69,-184,356,129,34
-232,-167,-232,-120,-69,18,281,240,142,-94
-188,-164,-181,-252,-130,-24,571,202,-116,-93
-47,-66,-65,-195,-91,67,659,245,-38,-63
95,25,36,-42,-9,44,345,-63,-122,-56
227,104,128,95,42,29,209,-225,51,49
327,109,105,129,11,-8,29,-198,11,181
256,135,111,156,-12,-37,0,-297,96,156
104,129,119,90,-12,-184,-482,-160,-26,128
-101,42,59,-58,41,-72,-486,81,-16,-27
-278,-176,-95,-80,59,152,135,221,-140,-175
-307,-227,-158,-67,59,310,967,235,14,-216
-376,-305,-274,-183,8,415,1545,250,-93,-312
-241,-144,-182,-129,0,288,617,19,130,-207
-84,85,45,21,4,-131,-851,-376,-56,-71
59,244,232,153,18,-512,-1428,-461,-16,38
90,93,164,130,24,-418,-748,-70,-54,113
45,-94,-29,-33,-146,-291,-35,489,191,159
104,-101,-84,-49,-167,36,587,507,-2,84
343,222,182,222,91,224,-451,168,134,219
282,168,122,74,88,255,-39,-92,0,142
81,67,23,-36,23,201,496,-430,-53,-32
36,77,50,10,-6,-110,-559,-467,-237,14
20,148,123,114,24,-202,-1117,-97,51,178
-204,-85,-69,-34,-13,-100,-491,270,110,2
-250,-153,-161,-152,-110,-76,553,404,363,-121
-123,-60,-77,-45,-41,-32,436,-119,-166,-206
123,214,211,193,129,-107,-250,-453,-156,-28
49,52,151,178,189,139,-179,-391,59,54
-18,-126,15,102,105,254,-70,-184,252,56
56,-95,-31,-12,-78,-112,-139,100,101,113
73,29,-54,-16,-106,-8,731,218,71,28
-39,-60,-198,-135,-29,280,1349,190,-207,-139
-157,-150,-272,-268,-71,153,919,317,-142,-167
37,-56,-175,-213,-98,-104,-155,401,-162,29
203,135,79,-53,-35,-298,-1517,165,15,136
82,64,126,-76,-103,-378,-1177,-43,-151,28
94,97,155,13,-51,-168,-199,-101,51,72
185,112,147,113,33,-153,-628,-284,216,257
41,62,99,170,127,43,-273,-385,248,98
-200,-96,-19,127,192,216,342,-134,-150,-175
-368,-211,-189,22,131,265,879,104,-31,-267
-359,-241,-240,-114,9,391,1617,134,90,-211
-186,-56,-72,-86,-18,656,1942,166,174,-128
-44,54,25,-5,23,501,1298,476,-63,-37
17,162,125,95,-2,-207,-503,495,114,70
-80,31,48,53,-94,-573,-1502,177,22,-14
-48,-63,-17,35,-59,-185,-1059,-153,142,-32
170,62,84,92,46,-43,-1242,-391,29,102
222,197,198,127,151,-133,-1340,-489,-132,107
163,128,122,0,-31,-427,-904,-388,-394,41
56,30,19,-77,-152,-303,384,-155,-209,-20
-59,-93,-79,-90,-61,106,994,98,-196,-66
-88,-118,-101,-81,-35,186,858,320,23,-66
-5,-210,-122,-102,-59,167,758,402,-91,-57
215,-162,-32,-47,-47,106,461,353,78,74
434,-48,5,-71,-92,-18,7,209,51,165
460,164,100,26,-44,7,-369,-228,146,198
211,160,78,60,23,-16,-396,-591,-117,118
-241,-6,-104,-37,78,131,391,-299,-151,-92
-390,-130,-267,-240,-17,52,259,162,-64,-69
-301,-11,-176,-217,-93,-174,-416,226,402,27
-351,-29,-106,-112,-41,-186,-482,181,290,-147
-409,-58,-33,-65,34,19,49,200,181,-296
-47,59,71,-36,116,193,395,0,-127,-88
236,231,256,180,171,201,295,-246,-74,99
79,169,334,569,156,106,104,-314,-192,-11
-112,70,237,458,208,276,425,-343,-94,-119
-206,-52,86,53,164,192,169,-188,-114,-69
-114,-63,64,15,35,-46,-277,234,186,72
27,-82,0,122,-103,-315,-657,230,75,145
-41,-138,-187,58,-210,-319,-533,84,70,34
-128,-223,-343,-240,-230,-194,-206,49,-143,-67
-142,-210,-302,-409,-244,-72,356,-124,-126,-149
-23,-148,-72,-255,-158,-25,292,-20,-192,-154
297,99,278,-16,27,18,-110,166,3,19
420,223,386,69,42,-24,-348,205,-97,103
277,208,235,170,39,-39,-136,302,99,151
300,142,60,155,112,54,152,19,25,164
391,194,45,83,132,105,36,-379,180,196
205,95,-60,25,71,9,-177,-512,36,155
-19,35,-110,85,135,42,57,-397,2,57
-59,-121,-210,-10,83,59,303,-109,-187,4
-24,-171,-240,-177,-39,63,239,77,47,22
-40,-162,-201,-172,-87,20,63,162,10,-17
-96,-140,-232,-86,-78,29,174,285,158,-34
-147,-84,-181,-72,-67,-22,108,183,-42,-95
-164,30,51,-27,-47,-48,79,104,0,-101
-118,41,98,6,-15,-66,-46,218,-15,-14
-45,93,71,4,76,80,11,169,150,27
-6,20,-4,-78,74,51,15,33,27,32
-29,-28,-21,-17,9,-24,-21,-183,102,10
-156,-126,-45,-8,-59,-38,-71,-183,-109,-121
-427,-272,-162,-105,-118,143,778,655,-60,-324
-403,-264,-183,-155,-119,175,916,1219,-5,-257
-73,0,26,0,-32,45,-32,565,220,-8
247,236,238,178,107,-16,-705,-347,-2,162
385,403,375,307,232,5,-427,-1152,6,227
262,248,241,184,148,-75,-662,-1600,-201,158
207,156,165,103,41,-165,-963,-796,34,199
61,-21,27,7,-35,-153,34,339,-19,79
-205,-230,-167,-94,-79,69,1061,840,82,-163
-306,-327,-285,-207,-141,58,1040,449,-141,-286
-201,-147,-84,-68,-48,92,567,-271,-122,-220
45,47,158,115,145,163,-452,-453,-141,-11
289,207,251,83,75,55,-513,-252,38,177
382,273,201,5,-82,-155,-971,-36,-7,279
448,321,126,-44,-126,-338,-1300,-181,144,324
465,234,19,-102,-49,-242,-1154,-139,149,334
164,56,-55,-131,0,87,-130,120,152,101
-137,-172,-137,11,-51,203,923,300,-124,-99
-171,-123,-76,225,-9,-58,463,281,49,-52
-140,-67,-69,240,88,-320,-398,193,82,15
-166,-54,-85,75,53,-301,-483,178,145,-27
-264,-194,-173,-225,-125,-49,464,193,18,-135
-320,-162,-118,-185,-40,398,1364,157,92,-225
-194,-114,-87,-93,84,469,840,38,-198,-200
-46,7,-38,-64,39,89,0,-69,-68,-72
-114,86,90,27,43,-108,-572,-122,-192,-107
-176,144,212,106,85,-111,-718,-116,-64,-151
-153,-1,144,41,48,-12,-74,25,-40,-112
-33,-56,159,66,26,80,374,99,164,9
62,-98,121,86,-34,-7,203,33,27,80
-33,-117,46,206,-79,-30,270,69,33,-47
-59,-117,-92,55,-75,10,264,140,-145,-84
6,7,-145,-96,-32,59,281,66,19,-27
65,40,-186,-63,-1,39,90,-5,-78,27
99,44,-141,-58,37,32,-95,33,116,103
133,11,-93,-191,0,-73,-260,44,28,138
159,74,-13,-151,-24,-55,100,29,183,150
123,37,-19,-71,-39,13,330,-130,33,74
123,54,19,36,-4,73,265,-217,6,11
112,61,52,85,49,-11,-418,-346,-228,-24
-11,8,23,24,50,134,-519,-219,4,15
-68,-89,-57,-75,-39,76,-206,117,-27,44
-87,-64,-78,-76,-79,-63,114,464,125,2
-139,-86,-57,-65,-51,-116,110,534,58,-65
-100,17,57,-20,11,-153,82,291,161,-43
-102,-18,17,-62,56,34,775,-150,-150,-144
-49,-12,-6,-28,97,314,961,-417,-262,-154
122,51,30,10,32,131,72,-293,-298,16
282,233,179,139,13,-25,-727,-291,74,207
351,264,217,262,40,-129,-1300,-213,67,240
218,104,117,317,-53,-357,-1016,-118,72,74
57,-46,-54,130,-91,-360,-529,-185,-114,-31
-34,-44,-143,-240,-88,-125,152,70,87,0
-191,-112,-130,-272,-124,-14,808,194,-44,-31
-249,-72,76,45,49,136,628,-85,-80,-124
-212,-82,138,187,164,232,242,-342,-195,-143
-25,-57,100,128,147,211,-367,-257,203,71
33,-41,-8,-19,3,-51,-576,153,123,130
-89,0,-39,-32,-50,-83,80,456,79,11
-136,-19,-61,-20,10,-97,-371,363,103,31
-101,-1,-51,-72,16,-27,-363,167,236,4
73,52,43,-24,22,3,-193,60,-82,-35
127,8,-7,-4,57,220,529,-77,-50,-96
70,-56,-115,-74,26,234,994,-194,-144,-118
18,-7,-65,-27,-22,76,623,-40,-17,-51
-89,-75,-59,-79,-108,-56,188,173,-110,-121
-128,-18,12,-31,-77,-62,-45,284,86,-80
-97,-33,-24,-30,-83,-154,-294,282,102,31
-22,-28,-95,-68,-69,-70,-84,85,179,46
28,-26,-85,-71,-6,177,489,-218,-120,-17
98,36,-7,-7,62,314,766,-278,-104,-13
241,137,120,120,122,92,-125,-174,-207,79
277,238,203,212,120,-258,-997,-76,63,193
103,97,72,126,7,-443,-1234,17,35,143
-82,-83,-107,-85,-123,-149,-221,61,97,-4
-108,-116,-114,-220,-165,30,356,70,-40,-52
-36,60,123,-8,-28,26,-46,-97,46,32
-33,45,216,108,33,-75,-257,-71,-121,15
50,78,245,169,77,-61,-144,48,33,11
53,7,97,87,86,120,331,-35,-108,-39
-70,-51,-74,-41,25,175,591,139,-67,-141
-193,-152,-243,-200,-30,159,653,351,-254,-213
-261,-186,-280,-192,-36,195,732,200,23,-122
-199,-177,-266,-42,9,189,682,-96,205,34
-60,-66,-168,-109,70,194,694,85,376,52
69,-34,-125,-186,4,36,424,319,105,32
103,47,14,91,39,60,-454,-6,-133,6
152,170,206,421,79,-149,-1565,-202,-250,73
260,321,350,418,169,-315,-2254,-551,147,229
225,195,191,73,27,-511,-2101,-793,186,207
17,-34,-73,-222,-184,-319,339,-461,225,-31
-21,-60,-72,-167,-99,-65,1006,-88,-155,-66
33,13,17,-6,38,200,775,247,-201,-5
99,26,61,-29,35,279,342,308,-208,35
130,103,120,-29,-16,202,-92,192,136,143
52,30,95,15,-88,-37,-51,111,99,80
-112,-38,132,291,5,-129,18,-45,114,-113
-172,-135,4,196,23,-107,-48,-48,93,-107
-64,-99,-149,-157,-47,-4,196,86,160,10
-35,-92,-167,-227,-74,30,155,112,-234,-43
-37,-18,-62,-97,-12,25,132,121,-192,-60
-73,-44,-52,-12,42,18,226,72,-287,-37
-152,-71,-65,-10,48,203,829,53,-110,-84
-173,-153,-96,-111,-29,206,749,75,177,-64
-97,-92,-87,-107,-59,86,489,138,554,-36
-34,-52,-80,-37,-11,17,-259,57,-29,-137
24,30,-38,13,0,-123,-912,112,-121,-61
64,23,22,24,27,0,-240,299,-164,37
96,95,183,96,91,122,112,359,76,108
131,53,146,-24,-61,-163,-75,60,39,105
131,70,103,-74,-153,-283,-1,-296,60,67
211,171,173,10,-83,-303,-599,-576,-90,135
161,187,143,68,24,-148,-764,-508,-16,89
17,23,-64,32,63,52,-263,-161,-86,16
-65,-35,-94,96,125,238,275,46,63,-35
-168,-197,-195,-57,15,221,758,392,-88,-157
-245,-284,-287,-149,-113,127,947,805,66,-193
-163,-186,-171,-33,-97,-32,420,501,-30,-84
-50,28,22,0,1,-50,-98,-359,-92,-45
44,103,122,27,97,-10,-610,-752,-210,36
224,295,317,286,222,26,-796,-867,102,233
172,193,213,199,119,-18,-514,-402,78,168
-46,44,37,-47,-40,-41,-24,523,142,-45
-193,-40,-57,-244,-133,-38,311,703,-84,-173
-205,-56,-73,-182,-99,28,711,365,-60,-183
-19,-73,-50,-64,-60,-35,515,-214,-116,0
88,-31,12,99,-11,-54,-234,-723,28,80
90,-50,60,249,68,2,-697,-655,-126,51
150,-10,56,229,112,153,19,-34,131,149
210,4,43,87,74,45,228,346,88,170
47,-46,-25,-30,21,-28,461,466,131,27
-192,-275,-343,-210,-56,58,524,464,-63,-163
-108,-229,-467,-295,-155,28,-103,217,42,-102
186,31,-218,-242,-210,-76,-371,-168,-67,121
330,268,173,4,-43,141,108,-35,47,218
212,281,425,187,96,36,-131,38,-68,86
-164,114,461,199,48,-180,-706,-251,-7,-143
-210,38,330,200,16,-311,-907,-259,-21,-40
-116,94,109,184,112,-98,-444,-129,89,28
-175,3,-192,-60,63,163,562,78,-101,-102
-222,-26,-328,-203,-3,264,905,119,36,-113
-253,-157,-325,-291,-103,11,492,192,-14,-138
-170,-174,-185,-174,-111,-169,34,388,207,-96
104,-157,-117,-22,14,-135,-427,316,93,59
186,-26,-78,47,78,92,-148,41,87,48
100,120,32,124,167,333,219,-227,-98,-92
101,180,171,199,223,390,460,-270,36,-49
-3,50,99,41,104,233,503,30,-171,-32
-47,29,116,-25,29,37,227,183,-144,4
55,32,121,86,-47,-250,-266,-5,-170,78
139,96,145,216,-10,-298,-588,-88,145,95
211,129,104,6,-27,-282,-977,-250,71,145
143,69,-13,-151,-112,-212,-526,-432,99,143
26,-46,-115,-205,-138,-115,9,-167,18,93
-54,-59,-66,-52,-91,-5,242,-32,53,-3
-70,-135,-66,28,-65,-32,-23,-154,-201,-126
-87,-139,-20,162,-13,-24,92,4,-40,-131
-140,-138,-33,159,14,58,503,166,-62,-60
-105,-10,28,-44,26,126,463,67,30,8
-167,-39,-25,-144,-4,143,484,-48,-166,-81
-253,-119,-124,-91,59,377,1005,126,-42,-195
-150,-158,-257,-189,-43,269,507,461,-79,-171
-3,-39,-279,-265,-181,65,557,783,168,-54
251,218,-1,-69,-76,-241,-579,553,256,205
309,368,270,154,72,-469,-2032,71,283,218
66,132,198,175,139,-220,-1247,-210,-40,34
-36,42,151,203,222,107,177,-591,-52,-2
78,46,145,137,188,214,551,-877,-294,-14
153,112,153,36,-7,16,273,-431,-148,32
141,92,110,-38,-146,-222,-211,-193,-122,100
125,35,51,33,-109,-249,-781,-110,254,179
23,-118,-126,-8,-79,-126,-561,131,207,87
4,-88,-96,-87,-51,49,147,126,115,-10
-54,-82,-42,-65,-11,35,557,145,-130,-40
-176,-140,-55,14,32,125,626,221,-37,-73
-170,-134,-84,51,18,97,226,209,-87,-80
-52,-2,-45,52,18,76,-153,190,182,-5
-7,-8,-100,-214,-57,-24,-224,126,20,-36
-77,-12,-92,-273,-94,50,406,151,-112,-143
-196,-167,-150,-260,-143,58,1087,490,-325,-263
-227,-200,-130,-133,-72,161,1316,440,-163,-219
-74,-117,-25,125,81,271,318,-123,-163,-63
126,119,101,346,159,144,-511,-510,114,130
369,418,272,397,203,-264,-1852,-852,172,342
322,401,276,254,105,-436,-2101,-751,412,333
-62,-19,-4,0,-49,-140,-278,-127,144,40
-330,-263,-171,-208,-146,100,834,318,13,-186
-290,-288,-171,-325,-183,179,1172,516,-197,-248
-83,-96,-10,-165,-67,159,831,691,96,-79
104,117,188,69,72,-86,-198,594,67,84
209,254,287,225,201,-184,-797,105,123,139
137,51,0,55,74,0,25,-464,-164,14
163,9,-128,-52,-40,78,452,-327,-148,23
225,43,1,4,41,136,43,-100,-242,114
196,90,93,84,55,51,-286,-85,-112,134
-9,-49,-46,57,-54,-60,-285,-181,-202,40
-154,-114,-136,-24,-144,-76,118,-421,81,-2
-101,-19,-18,-68,-100,-111,149,-318,-9,-45
-39,82,107,27,21,0,325,105,180,42
-22,-26,43,-14,-9,-137,-198,346,363,167
-75,-77,0,-33,-30,-137,-443,201,464,23
-93,-73,-14,-18,20,-18,-443,-30,-97,-148
-97,-52,-31,-5,42,105,63,-114,-116,-178
-149,-120,-105,-19,53,260,1072,69,-110,-194
-171,-74,-75,14,80,326,964,227,-15,-183
-87,-71,-43,-10,-8,52,28,289,-106,-105
130,104,98,50,-8,-175,-834,211,53,67
152,111,112,50,-4,-312,-1287,57,-63,134
-50,-11,27,14,-13,-57,300,-90,23,13
-62,-39,13,49,-18,-30,690,-198,-51,40
-60,-28,-16,60,-4,54,314,-371,-38,-2
1,-4,-4,-43,44,128,-370,-426,-188,-39
212,173,148,1,104,36,-755,-184,43,119
215,109,54,-11,22,-54,-344,120,47,173
68,-5,-121,-69,-33,11,240,262,185,89
-27,-109,-239,-155,-74,56,379,154,21,-15
-68,-131,-214,-186,-97,53,524,71,127,-11
44,-61,-100,-119,-64,21,267,16,-62,31
121,77,51,-20,-8,28,87,2,-67,9
144,69,53,-29,-69,-115,15,57,-210,-20
134,61,21,-35,-84,-122,272,148,-6,-10
-86,-86,-69,-161,-84,-25,485,161,-105,-126
-186,-98,-82,-129,-54,144,551,80,58,-134
-151,-101,21,201,60,203,-412,-156,-17,-86
-96,33,142,417,123,4,-1229,-246,29,-42
-6,45,68,54,32,-159,-906,426,54,75
64,36,67,-91,54,-95,-843,691,381,186
-98,-12,52,-53,51,-89,-119,141,170,67
-215,11,81,262,109,26,795,-291,-9,-132
-81,47,139,442,210,79,540,-537,-242,-111
-17,84,135,133,127,94,18,-746,-46,-16
33,-41,-22,-217,-138,-46,-97,-361,-126,13
170,-19,-13,-209,-190,-92,80,64,55,92
165,-22,-25,-99,-100,21,484,243,-57,61
67,-26,-103,14,-35,193,923,420,-27,-49
63,-55,-183,-27,11,78,543,189,-219,-54
43,27,-78,61,86,15,246,-366,-200,-37
43,77,87,210,124,-108,-418,-548,-187,58
104,118,111,18,98,-106,-959,-604,165,173
158,228,186,-91,22,-98,-1405,-382,270,207
28,208,173,-97,-117,-241,-1249,189,289,71
-139,-49,-28,-126,-158,-155,-308,420,-52,-108
-179,-116,-94,-46,-48,52,515,378,-13,-161
-209,-155,-124,-43,-9,97,573,287,-91,-196
-148,-104,-49,-10,19,157,571,249,70,-135
-50,-131,-42,26,51,149,427,260,33,11
-59,-104,-21,79,93,116,341,184,142,9
-22,-61,-65,18,35,2,155,127,-57,-13
-32,-11,-168,0,-7,7,181,-20,-48,-41
-152,-41,-203,-69,-72,-7,183,-191,-201,-142
-250,-87,-113,-168,-127,41,612,-146,-74,-191
-230,-171,-76,-216,-127,83,1031,29,-79,-139
-89,-40,56,-78,15,196,744,151,100,-30
124,169,255,113,126,65,-360,-32,-124,67
382,444,491,312,206,-157,-1675,-122,91,273
495,364,381,299,172,-347,-2299,-49,140,403
399,28,-83,67,-76,-356,-792,99,255,313
235,-179,-342,-2,-71,-136,280,-57,2,166
106,-117,-249,0,16,123,570,-191,28,28
0,-48,-142,-127,-10,161,514,-43,-96,-86
-101,-10,-28,-42,9,132,327,9,-15,-162
-174,-93,59,58,9,36,162,-36,-198,-201
-218,-131,95,0,-19,132,723,69,-56,-158
-136,-84,74,-79,-36,251,799,48,-198,-114
-17,4,15,-63,-32,260,753,-57,-140,-79
15,-25,-116,-64,11,113,427,62,-168,-2
110,79,-134,-148,-41,-342,-761,255,201,163
45,5,-196,-342,-167,-345,-707,174,100,90
124,141,43,-40,-19,-275,-1078,-63,218,147
60,77,91,143,19,-331,-1395,-22,184,160
-101,-26,-23,158,-11,-9,-362,-44,329,54
-54,2,29,135,14,156,438,-205,58,-59
-153,-33,56,31,56,214,1223,74,-22,-220
-252,-105,-22,-43,71,204,963,427,-301,-291
-184,-5,39,8,39,49,-78,434,-198,-165
-25,-6,95,48,48,35,-415,-77,-169,-4
68,0,90,64,74,61,-38,-334,59,63
-42,-152,-104,-98,-42,-23,510,-231,-119,-15
-76,-204,-190,-176,-104,40,275,-222,277,92
29,-72,-73,-70,-49,-108,-368,-163,294,114
104,80,44,29,-6,-182,-149,42,175,45
126,113,75,57,66,80,277,-101,-183,-3
231,267,162,97,119,267,139,-325,-116,89
308,307,168,42,58,221,122,-250,-201,157
407,355,230,117,66,-116,-1130,-173,80,304
368,252,202,108,-2,-582,-2389,-268,26,282
73,1,57,-27,-82,-265,-670,-95,-8,7
-191,-186,-19,-18,-29,91,716,193,-190,-155
-370,-218,-14,155,9,91,749,319,-118,-196
-412,-269,-143,159,-41,76,858,328,-221,-191
-336,-228,-239,-126,-83,239,1268,279,117,-149
-237,-185,-225,-262,-77,132,657,163,235,-189
-57,-16,-61,-94,-8,-128,-261,90,613,-17
116,116,78,42,35,-302,-851,19,373,136
-25,61,59,66,107,157,189,57,-14,-87
-108,-33,-9,21,96,345,822,129,-334,-158
-21,20,0,6,68,296,652,300,-81,-12
79,37,17,-17,5,22,-367,297,-33,106
-3,-64,-71,-156,-165,-298,-1092,70,57,10
-104,-170,-174,-242,-262,-385,-476,-93,-266,-135
4,-5,9,6,-34,-60,-155,-396,-257,-66
207,142,158,167,94,30,-299,-592,-316,123
187,157,172,198,122,128,257,-294,-63,162
34,42,74,163,98,161,572,79,-36,69
-80,-10,5,133,37,146,572,257,193,-16
-74,-38,-70,-105,-80,-100,10,262,201,-46
65,69,-44,-191,-65,-153,-428,-55,342,63
121,80,26,-9,48,-20,-314,-243,22,96
23,29,4,8,37,49,47,-283,-29,20
-29,-40,-75,-102,-63,-47,-22,-303,-136,-7
-57,-47,-77,-157,-71,-20,48,-133,0,-22
-90,-108,-56,-29,-89,50,100,95,-188,-97
-109,-92,-20,237,-29,135,410,320,-55,-103
-137,-182,-134,-37,21,295,1626,450,-108,-81
-118,-146,-118,-135,74,468,1776,511,69,-68
150,62,61,69,97,104,-3,290,129,132
482,388,325,273,118,-465,-1982,-343,244,382
464,352,285,183,11,-876,-3647,-694,33,327
65,57,31,-29,-93,-482,-1980,-616,-19,38
-133,-85,-83,-70,-24,107,263,-338,-149,-98
-118,-26,-11,26,61,235,787,40,-32,-129
-150,-103,-53,-27,-19,97,683,295,-102,-159
-189,-104,-49,-57,-55,87,587,308,53,-166
-141,-70,-14,-72,-40,60,429,168,-103,-131
-45,-18,-2,-47,-6,95,409,86,22,-32
-29,-76,-65,-102,-18,108,394,76,-30,3
-16,-16,-2,-88,-19,105,386,187,103,-29
-71,-75,-30,-82,-61,58,594,281,-101,-129
-135,-140,-124,2,-76,59,1179,322,-88,-169
-10,-139,-218,67,-8,53,596,292,-196,-41
101,-64,-206,-49,7,50,-216,124,21,97
320,162,33,-56,39,-102,-1024,-84,57,245
447,380,370,229,195,-166,-1631,-446,223,316
233,233,355,211,176,-90,-897,-679,59,235
74,118,222,34,-4,-172,-175,-472,227,205
-109,-57,-21,-104,-113,-35,155,-157,-4,-32
-178,-43,-21,-7,-13,117,388,16,101,-96
-260,-129,-38,65,79,187,483,336,14,-100
-251,-83,-102,14,60,166,511,528,36,-133
-258,-78,-138,-145,-44,69,447,445,-118,-173
-305,-72,-63,-101,-49,125,493,278,65,-215
-298,-143,-132,-12,-33,40,233,60,-53,-244
-194,-194,-258,-99,-118,-158,78,-197,-63,-220
-49,-208,-326,-314,-210,-254,461,40,-294,-176
71,-124,-189,-244,-95,203,1349,210,-227,-108
197,4,-22,-21,22,304,842,149,-202,66
566,400,384,341,207,-44,-1189,-150,148,372
766,659,716,592,384,-312,-3303,-896,197,602
520,494,512,405,179,-385,-2783,-1209,257,436
59,43,38,-42,-135,-298,-562,-499,-42,43
-115,-112,-136,-231,-198,-128,243,142,41,-84
-139,-154,-186,-232,-134,113,1000,303,-74,-85
-136,-67,-70,-95,-26,107,928,303,148,22
-214,-82,-8,-54,-8,26,490,302,150,24
-180,-76,15,45,28,55,321,135,125,-46
-280,-163,-15,242,77,84,112,-105,-242,-161
-163,-111,-68,247,74,109,192,-54,7,-117
120,-79,-172,-69,11,155,537,97,26,-68
26,-111,-170,-161,18,339,869,130,1,-191
-155,-151,-115,-167,23,262,877,175,-204,-236
-122,41,54,-133,-19,47,329,229,-89,-148
28,162,179,-57,-71,-272,-865,215,-167,-11
173,135,145,3,-80,-365,-1227,182,55,112
217,20,12,21,-44,-200,-755,45,-4,151
78,-35,-66,64,-26,51,256,-51,135,146
-61,-109,-100,67,-21,78,538,-119,41,55
-68,-44,-41,1,57,57,341,-170,-30,-57
-46,-22,-14,-103,54,14,67,-235,-294,-71
40,38,11,107,91,53,-250,-100,-22,36
34,-43,-153,23,46,49,-109,35,48,22
8,-46,-160,-156,-47,60,239,91,234,26
-69,-55,-61,-149,-61,196,777,37,-156,-48
-107,34,108,168,-2,111,502,-89,-239,-50
-53,53,146,247,36,-158,-498,-107,-79,62
125,194,227,150,63,-428,-1710,-93,387,171
77,74,80,-23,-33,-408,-1479,27,470,106
-103,-99,-112,-139,-48,62,386,166,428,-62
-84,-122,-130,-123,-16,220,1134,52,-68,-82
-19,15,-17,-25,7,187,708,-41,-172,-45
4,17,10,4,30,234,299,72,-312,-50
65,50,87,77,55,71,-28,255,-111,-10
6,-76,-61,-96,-109,-269,-208,138,-326,-129
-68,-119,-153,-174,-180,-27,447,152,-318,-202
-76,-79,-123,-120,-117,47,174,221,-308,-104
-143,-107,-134,-121,-125,-170,53,219,-89,-48
-171,-175,-151,-125,-82,-54,313,435,192,115
126,92,119,131,135,205,-111,95,796,370
338,281,305,284,261,400,-340,-549,481,263
280,280,274,260,224,198,-286,-749,186,90
193,151,112,72,-9,-309,-856,-966,52,90
151,136,60,10,-100,-376,-640,-543,195,114
88,72,36,-27,-101,-388,-396,-158,-224,36
-114,-95,-111,-123,-89,29,743,210,-261,-168
-234,-198,-179,-138,-39,298,1067,441,-365,-264
-172,-66,-28,-30,15,135,253,259,-139,-179
-13,25,83,67,101,0,-794,158,49,17
-14,23,76,88,91,-90,-1066,163,285,101
-102,-66,-8,-17,-55,-246,-564,83,-8,0
-106,-36,16,27,4,13,348,86,72,-27
-97,-73,-30,5,31,176,651,198,-77,-44
-122,-79,-91,-15,62,283,828,252,-65,-92
-170,-169,-217,-108,23,401,1636,132,-230,-144
-123,-110,-163,-79,15,368,1644,13,-66,-110
53,43,30,22,21,78,98,-167,-166,-15
258,294,304,178,46,-286,-1247,-357,35,155
298,297,341,212,68,-570,-2666,-399,131,227
102,50,40,54,-45,-433,-1860,-163,176,69
5,-104,-129,-121,-96,-202,-376,-7,-100,-6
-7,-46,-97,-108,-52,54,698,55,-30,-16
0,-44,-82,-9,-46,189,1046,213,-101,-16
-18,-16,-21,42,-17,139,653,189,24,-33
-33,-33,32,3,-30,-58,-152,24,-109,-51
-74,-37,65,11,-2,-23,-433,49,53,-38
-151,-152,-55,-114,-51,92,189,183,-67,-98
-135,-151,-125,-216,-123,106,716,375,63,-74
-75,-122,-181,-232,-131,29,664,371,6,-14
-25,21,-133,-45,8,122,603,79,94,-17
77,116,-82,99,110,58,113,-186,-41,35
261,308,136,212,240,-95,-811,-479,188,256
325,293,303,181,245,-143,-1313,-629,95,329
152,129,272,43,77,-7,-341,-244,40,145
-90,-60,101,-42,-5,171,552,135,-169,-68
-139,-88,-47,15,-32,139,488,254,17,-99
-157,-208,-250,77,-98,-42,198,173,-15,-92
-234,-274,-356,199,-112,-96,185,-3,59,-169
-178,-249,-288,-31,-118,-69,219,-13,-33,-160
-35,-85,-63,-150,-46,76,283,45,-1,-100
129,55,119,-7,84,118,-117,-8,-266,-30
221,170,205,34,135,204,-29,-128,-172,22
198,135,129,-82,33,116,-94,8,-116,55
257,185,58,-167,-165,-345,-541,87,212,199
290,133,-16,-241,-332,-559,-453,-153,16,210
131,142,91,-30,-140,-220,-263,60,-2,49
-173,-45,-28,18,-31,56,307,494,-78,-112
-270,-111,-87,59,-15,61,515,215,145,-43
-90,2,44,218,87,25,243,-241,12,77
-36,33,117,314,231,166,13,-619,-7,30
-23,-23,70,60,209,52,-955,-829,3,65
7,81,109,-31,106,10,-617,-196,258,50
-30,3,-12,-75,10,101,232,396,28,-80
-131,-101,-68,-16,71,264,564,477,54,-157
-289,-128,-15,29,68,108,328,314,-70,-194
-211,-92,4,3,7,-28,144,180,31,-111
-14,-65,-60,-119,-82,-33,49,43,-98,22
74,38,-5,-113,-91,-40,98,-69,-5,26
21,28,24,78,-40,-83,24,-13,-142,-25
0,38,28,230,14,-30,77,139,-6,-31
83,8,-68,-10,-18,-13,88,151,-88,-5
193,26,-113,-167,-49,-42,55,44,86,57
161,-5,-105,-174,-92,-101,-194,-52,28,86
-38,-28,-55,-96,-56,-30,-147,-117,112,19
-165,-107,-57,-71,-21,45,302,-90,-159,-153
-297,-211,-131,-86,-12,310,1491,10,-128,-273
-346,-333,-220,-140,-39,495,1946,323,-33,-194
-86,-123,-61,5,46,349,639,566,261,64
335,291,280,235,144,-181,-1576,187,74,269
404,461,440,319,141,-666,-2630,-284,209,281
15,109,120,43,-28,-380,-1263,-484,-16,-9
-81,13,-6,-72,-117,-125,-75,-580,23,-69
178,121,103,63,-4,-199,-780,-567,-54,148
234,169,156,168,129,-46,-776,-168,2,196
90,-12,10,44,98,81,-96,137,-146,56
-11,-105,-90,-65,0,185,684,142,-52,-67
-59,-170,-161,-160,-116,184,1186,62,-181,-93
-93,-147,-169,-176,-138,292,1909,50,-59,-78
-80,-72,-84,-114,-108,53,717,27,-139,-33
-33,30,12,-52,-117,-319,-848,6,78,-28
27,60,95,50,-10,-347,-1565,86,41,26
54,74,87,76,69,-163,-1193,216,158,66
47,19,12,6,42,52,-5,86,59,37
81,120,126,94,96,155,474,-104,148,24
54,46,70,63,64,138,480,-62,-11,29
-80,-54,-34,64,40,158,383,59,18,13
-191,-144,-108,10,18,68,272,177,-176,-77
-154,-75,-85,-38,-14,20,261,246,96,-25
-72,-45,-91,-90,-59,-65,164,171,155,38
-40,20,-44,-54,-29,-25,320,83,200,2
-113,-94,-88,-68,-16,111,527,3,-63,-138
-144,-155,-134,-65,-4,187,713,-76,-59,-227
14,-50,-40,4,45,96,273,6,-224,-90
141,131,133,161,137,8,-584,180,-7,107
92,92,126,138,90,-152,-682,137,-65,90
7,8,11,35,39,107,312,-102,13,-8
54,-16,-28,-59,-4,86,-500,-540,-143,-15
192,133,66,-29,-77,-175,-1151,-911,-50,101
283,211,150,59,-67,-296,-939,-577,-15,241
23,44,66,21,-60,-198,-648,79,147,79
-185,-177,-118,-182,-259,-185,709,522,88,-63
-110,-109,-118,-156,-227,-101,1209,815,272,-23
-16,-53,-55,-39,-6,69,251,674,68,-19
-21,-24,-18,6,74,66,-67,241,23,-87
-16,-3,2,31,94,19,-92,-159,-201,-114
38,108,89,105,119,53,-219,-652,-169,-18
37,96,53,76,65,65,-195,-845,-324,-5
12,61,24,69,66,189,137,-338,-114,-8
-22,-25,-18,6,43,222,378,190,-76,-41
-21,11,25,42,73,104,399,480,230,-2
-16,9,43,75,135,-1,245,413,0,-2
-62,-8,32,58,114,-49,156,261,-14,-43
-28,-61,-41,-62,-25,-56,410,263,38,30
-2,-62,-65,-88,-71,87,393,206,312,56
-70,-127,-142,-155,-155,-27,112,-82,107,-16
45,2,-62,-74,-129,-49,-204,-324,180,91
234,80,3,23,-21,-5,-1015,-445,76,178
347,194,101,93,4,-155,-1327,-357,233,236
371,240,169,96,3,-398,-1457,-183,-8,208
186,146,91,19,-43,-240,-348,-51,-208,-24
41,15,36,3,12,149,660,28,-391,-112
-22,17,37,3,17,73,75,19,-197,-49
-183,-150,-79,-113,-100,-95,260,96,-135,-82
-296,-189,-90,-69,-34,49,635,167,214,-97
-279,-189,-120,-38,39,177,598,221,289,-56
-195,-71,-66,5,59,186,484,229,329,-61
-152,28,25,41,55,88,232,103,-77,-120
-157,71,99,103,76,98,113,-6,-144,-147
-117,-29,64,96,76,83,74,35,-209,-113
-101,-71,35,84,69,168,302,96,-42,-55
-60,-131,-28,15,41,94,28,-2,-104,-4
0,-96,-74,-52,-27,-70,-270,-59,15,-29
-65,-148,-182,-184,-154,-274,-324,-39,-133,-53
-117,-116,-185,-200,-158,-178,266,-75,-56,-45
-43,-42,-133,-168,-51,115,1075,204,-37,0
152,151,66,-11,96,152,607,385,283,108
271,237,210,103,133,-52,-423,152,55,124
217,238,245,137,80,-96,-842,-213,31,114
108,74,105,33,-23,-30,-846,-410,-111,54
51,9,11,47,1,223,-24,-215,70,46
34,-49,-53,50,-9,-18,-156,87,76,79
-74,-117,-123,24,-72,-174,-19,411,149,-13
-112,-149,-205,-30,-86,-18,301,366,-9,-66
-29,-31,-116,-22,-17,173,156,-96,83,-18
64,77,34,16,1,8,-121,-466,-132,20
-55,96,152,0,20,-33,274,-722,-200,-100
-102,33,208,-24,78,120,424,-582,-232,-96
51,97,253,42,75,24,-171,64,159,120
52,85,188,168,-4,-198,-543,359,89,88
47,141,131,301,9,-368,-1311,388,250,76
-17,26,-97,-7,-35,-311,-1352,12,-83,-54
-72,-36,-207,-175,-104,37,229,-299,-223,-166
26,-45,-97,-174,-104,84,823,-228,-296,-98
208,-40,-26,16,-58,60,657,-92,-89,-9
197,-83,-53,96,28,52,286,-55,-120,24
75,-60,-96,22,109,128,140,57,138,93
83,-42,-61,-56,104,111,-1,147,97,159
53,2,16,-7,99,116,141,157,246,160
-33,-55,-53,-15,45,79,275,170,111,61
-77,-4,-86,-81,-25,60,156,124,102,-3
-3,91,-41,-134,-82,-23,-197,-23,-49,22
-37,41,-2,-85,-51,42,-299,-16,71,13
-166,-102,-28,-134,-97,-40,-158,118,-93,-115
-213,-109,5,-175,-142,-104,411,252,-14,-210
-56,-40,64,-99,-51,-90,462,226,-82,-79
28,-2,117,144,107,85,561,93,48,20
-26,-73,101,363,116,68,251,-21,-122,-31
-107,-76,-14,252,57,7,-163,35,-41,-88
-163,-155,-253,15,38,27,-271,470,13,-51
-111,-97,-354,-126,-26,-57,-410,689,218,-51
-6,1,-152,-137,-69,-157,-53,103,15,-46
106,172,150,-13,50,173,616,-490,-29,22
132,156,177,-23,37,294,644,-669,-324,1
146,164,159,1,-8,85,100,-652,-136,33
337,263,274,197,131,-106,-904,-453,82,266
332,226,195,149,88,-228,-836,-123,325,342
98,16,-19,-95,-88,-193,36,-8,144,187
-101,-64,-90,-154,-89,64,-81,-176,114,-2
-124,0,-1,-113,-110,-190,-660,-195,-81,-72
-123,104,138,94,-9,-203,-529,-46,-29,-135
-149,-64,1,101,96,13,-374,46,-125,-121
-200,-221,-177,-40,66,258,725,274,44,-114
-207,-200,-152,-55,32,276,953,384,-128,-144
-74,-17,22,71,110,193,45,263,-24,-54
14,13,39,69,103,83,-155,172,-104,0
60,84,70,70,55,-74,-292,123,40,6
118,71,47,-6,-63,-287,-578,-23,-15,46
136,5,-46,-117,-177,-222,206,-7,180,99
56,-121,-150,-225,-236,-131,742,102,84,60
-54,-140,-152,-185,-170,-6,626,170,92,-71
-206,-212,-125,-118,-62,91,389,144,-132,-199
-247,-74,41,44,59,141,187,42,-64,-186
-57,58,103,85,52,-11,-293,-163,-235,-68
156,130,45,35,7,-94,-210,-260,-50,101
198,81,2,2,18,-1,293,-88,-47,149
220,88,95,108,151,159,67,-149,100,107
287,138,193,208,221,138,-329,-419,20,174
260,265,308,265,221,26,-813,-305,102,213
94,144,158,48,29,-44,-910,-240,-113,89
-71,-12,-15,-109,-114,-24,-325,23,133,27
-79,-90,-98,-135,-184,-275,-925,138,97,81
-102,-79,-91,-93,-174,-228,-32,269,114,36
-51,1,-45,-16,-106,-146,627,293,-73,-39
-180,-7,-40,137,14,174,916,239,97,-180
-395,-259,-197,163,43,332,1020,287,31,-273
-376,-297,-267,-130,-21,237,774,379,81,-223
-240,-215,-172,-309,-35,156,591,185,-111,-197
-69,-34,21,-124,32,120,323,-68,-68,-159
131,94,148,-6,24,-34,-241,-19,-163,8
315,275,255,151,73,-97,-572,5,175,261
368,301,208,194,75,-265,-970,-187,158,313
151,135,6,149,-67,-342,-912,-387,20,77
-114,-114,-196,-9,-124,-171,-182,-741,-266,-198
-147,-87,-102,-26,127,258,65,-486,20,-131
-49,-58,-66,-114,78,136,40,259,58,99
-35,-100,-161,-223,-115,-47,469,684,251,90
-4,-82,-148,-160,-104,0,754,703,9,-8
51,54,22,84,0,96,472,258,-20,-12
54,47,48,159,28,64,-76,-154,-175,3
100,85,95,47,37,42,-144,-332,-9,48
11,-18,17,-50,-4,-27,-300,-570,-201,-51
-58,-55,-43,-25,39,-6,-287,-422,-106,-96
28,8,0,-123,31,-149,-627,-67,-117,3
73,84,101,-35,-52,-118,-420,16,83,76
90,70,182,253,-95,-43,-149,-16,12,91
72,35,202,203,-38,51,96,256,208,105
4,-67,123,-48,18,78,229,371,98,54
-69,-63,30,-124,31,115,458,279,63,-50
7,-3,-65,-56,30,18,221,89,-139,-26
162,81,-132,15,56,-11,10,-118,21,97
166,52,-133,95,100,79,262,-202,-66,114
95,17,-43,166,83,120,322,-213,-13,45
49,-65,-46,94,18,-12,-11,-197,-160,-1
64,11,10,-6,-18,-139,-645,-108,-110,-5
-32,-24,-43,-101,-78,-178,-721,12,-330,-106
-153,-62,-75,-93,-55,15,204,129,-218,-184
-217,-129,-113,-120,-54,78,494,168,-244,-207
-309,-203,-164,-185,-122,32,514,333,187,-147
-309,-194,-126,-148,-108,2,259,467,592,-25
-177,-13,63,26,46,57,14,478,844,39
-1,100,184,120,118,5,-197,216,300,84
45,174,231,190,177,131,230,-186,-2,35
31,98,168,198,136,94,230,-406,-261,-38
37,84,46,74,-9,-90,-123,-248,-11,34
68,21,-44,-59,-82,-153,-275,-165,-89,58
90,29,0,-64,-51,-70,-104,-84,-46,61
23,-32,-27,-113,-31,12,-32,-57,-180,-2
-65,-94,-49,-145,2,135,129,-158,-119,-103
-126,-187,-119,-195,-69,147,336,94,-219,-139
-87,-125,-126,-112,-93,83,313,400,-32,-113
83,0,-40,53,-12,-3,144,53,-84,-7
122,60,-27,140,68,134,549,-170,-25,25
2,-12,-32,162,95,77,594,-286,-216,-55
6,48,-11,34,21,-244,-394,-391,45,47
235,223,69,-124,-48,-512,-1656,-346,131,286
347,363,277,95,58,-275,-1382,-234,238,311
179,180,260,124,103,14,-884,-131,-16,137
-30,0,141,-13,-9,24,-415,70,105,57
-114,-99,22,-120,-113,-16,283,218,40,18
1,-10,11,-48,-78,46,589,268,146,39
139,-1,-63,64,-78,-51,334,191,-63,7
201,72,-109,110,-42,10,429,2,-85,-70
177,64,-109,-33,30,97,491,-50,-201,-68
-49,-75,-75,29,145,146,601,-47,-145,-140
-190,-215,-122,-17,92,64,232,24,-209,-114
-253,-289,-228,-182,-70,229,1164,179,-43,-90
-276,-247,-169,-157,-63,435,1323,150,-94,-100
-120,19,104,96,62,274,-412,-68,193,19
37,134,197,169,26,-229,-1504,-6,302,163
215,304,293,192,-16,-824,-3106,145,583,267
-26,33,29,-108,-148,-610,-1787,127,20,-93
-242,-159,-208,-269,-150,76,1263,334,-139,-254
-149,-120,-116,-129,-5,248,1214,360,-205,-118
-87,-76,-59,22,59,276,789,229,-16,-52
-89,-134,-106,152,61,206,727,190,-16,-74
-145,-100,-106,212,103,184,856,0,72,-161
-187,-110,-174,-57,71,199,641,-396,-234,-230
-111,-44,-157,-249,-57,48,399,-125,-156,-113
42,-9,-73,-211,-126,-85,280,147,-137,68
163,86,114,19,52,220,409,-183,24,129
258,215,267,99,84,268,-484,-467,-100,173
368,476,488,382,147,-157,-1687,-567,70,265
469,572,603,672,204,-772,-3077,-864,57,393
296,336,338,321,18,-814,-2780,-671,253,333
-110,-139,-124,-231,-245,-258,55,56,48,-7
-272,-231,-161,-257,-109,305,1682,525,116,-163
-186,-209,-161,-209,-19,332,1379,549,22,-117
-141,-127,-141,-158,0,226,909,388,88,-107
-117,-129,-137,-131,1,196,726,247,-122,-115
-92,-83,-121,-83,4,270,589,138,-89,-95
-50,-90,-148,-107,-52,124,233,104,-111,-15
7,-40,-94,-62,-42,-47,1,136,129,46
32,-66,-57,93,-20,-197,-363,87,40,0
126,-84,-83,110,12,-59,-86,60,142,7
319,-27,-49,-93,8,49,36,193,-118,119
284,110,84,-20,37,55,-53,56,-70,134
112,121,89,13,-15,-61,-96,-205,-119,62
-47,87,61,-7,-38,-57,333,-350,-3,-60
-237,-71,-27,-40,-35,-5,415,-479,-171,-220
-249,-76,-30,-12,16,18,-25,-408,-84,-190
-105,-25,-6,0,19,-5,-181,-48,-101,-41
-10,88,52,88,59,29,-340,176,111,46
-121,18,6,114,101,39,-411,175,-23,-51
-166,-66,-49,76,90,110,43,136,104,-63
-44,-102,-94,-2,24,145,169,69,4,7
-19,-14,-5,-6,16,158,291,6,111,24
1,111,158,-27,-47,-117,29,-31,-46,7
-12,146,228,-16,-60,-197,-29,33,33,-31
-86,-50,71,-47,-47,-65,152,122,-97,-66
-74,-120,-40,-59,-35,51,152,142,41,-28
2,-114,-117,-58,-32,16,-58,223,-10,18
50,-67,-164,-40,-10,3,-58,302,175,73
62,-92,-171,-78,-3,55,157,133,26,63
111,57,2,22,63,116,193,-156,0,40
124,161,111,109,130,151,121,-352,-313,-49
116,159,62,158,131,105,-34,-295,-158,-54
155,90,-13,95,36,-147,-578,-193,43,127
113,55,30,20,-71,-284,-721,-35,372,227
-47,-85,-3,-101,-158,-243,-339,81,162,135
-97,-82,-15,-141,-116,-25,343,203,237,47
-80,-100,-9,-98,-16,-15,453,225,74,-33
-65,-48,-29,-31,5,-40,311,252,32,-93
-39,-34,-101,-82,-68,-34,-86,84,-149,-89
-24,-24,-106,-61,-64,84,-103,-99,-47,-52
-43,-39,-68,58,12,126,241,76,-132,-42
-106,-28,-15,192,137,283,624,47,-32,-97
-25,-11,-4,5,84,67,134,-119,-67,-42
106,84,100,-18,61,-103,-253,-336,33,41
234,137,143,58,72,-106,-845,-606,-78,154
274,237,159,110,50,-169,-1282,-534,86,216
148,145,82,23,-8,-85,-442,-48,-110,66
-10,17,-30,-108,-64,129,744,443,5,-37
-130,-156,-125,-168,-71,279,1293,771,23,-82
-135,-149,-89,-48,1,232,909,587,224,-30
-81,-62,-36,56,27,-104,-145,153,0,3
-57,65,154,134,57,-306,-779,-265,-58,-40
-120,-23,185,49,-31,-315,-849,-515,-267,-133
-227,-122,150,156,-74,-162,-210,-388,-133,-235
-232,-228,-70,178,-23,177,1085,-158,-156,-277
-84,-104,-232,-89,-11,369,1126,59,55,-86
26,7,-208,-211,-37,265,420,287,-27,71
214,211,39,-51,-24,-131,-920,204,167,183
380,272,147,-2,-52,-506,-1895,-57,112,237
229,111,21,-114,-37,-264,-693,-85,159,117
-139,-256,-264,-370,-132,48,537,64,-109,-154
-285,-305,-317,-384,-171,175,1012,464,-29,-193
-147,-151,-154,-120,-59,107,954,776,-49,-78
49,49,96,419,149,108,693,503,89,16
142,153,227,600,235,155,667,-254,-85,66
172,203,234,352,207,308,262,-1077,-1,131
150,144,154,88,172,327,-822,-1090,-81,179
235,241,194,61,69,-82,-1568,-558,92,267
282,241,206,31,-31,-440,-1839,-111,-84,184
196,139,113,-33,-89,-433,-1289,178,-24,21
64,-66,-85,-186,-191,-312,-289,89,-30,-41
45,-53,-70,-136,-129,-56,503,35,266,44
31,-63,-27,-71,-64,39,710,157,90,108
-45,-80,-30,-38,-11,134,740,247,231,129
-151,-148,-99,-77,-12,81,395,127,-12,-15
-173,-95,-73,-35,12,59,187,52,-37,-88
-265,-99,-95,-87,-34,-1,177,139,-64,-110
-287,-83,-69,-40,-6,72,509,189,71,-181
-282,-115,-56,0,69,160,400,126,-139,-302
-250,-66,-36,20,76,181,341,114,-74,-247
-98,14,30,62,44,21,-65,84,-154,-86
-12,111,134,151,53,-24,-284,123,60,-1
-33,16,72,91,21,2,9,210,29,-5
9,-1,77,8,-22,29,261,127,213,10
37,-45,6,-92,-24,-36,-27,-30,-21,8
-30,-34,-96,-68,24,-2,-184,-152,-95,-44
21,-29,-231,-115,-3,-55,-293,-230,-264,-5
117,24,-227,-157,-33,-25,-113,-215,-115,81
156,9,-89,-83,-22,15,98,-77,-80,128
215,77,62,34,10,-6,177,59,202,190
190,67,77,51,33,53,318,172,166,150
69,21,48,44,28,167,536,184,302,49
-7,-93,-39,-37,-10,216,564,94,57,-21
-16,-45,-51,-66,-68,-7,-95,31,73,46
39,32,8,-43,-92,-336,-1000,-212,-109,86
99,177,167,132,30,-383,-1416,-431,-85,39
-45,22,121,134,76,-124,-554,-185,-207,-61
-124,-91,13,91,25,65,442,61,1,-66
-86,-80,-124,-5,-74,51,602,-31,-153,-120
48,42,-48,-75,-63,9,199,-129,-23,-43
42,20,53,-88,-14,4,-107,2,-43,0
-55,26,164,17,34,50,18,189,59,-56
23,-14,138,36,56,90,217,209,10,2
31,27,80,25,25,88,289,80,253,35
-15,-25,-72,-62,-70,-27,138,-74,-39,-17
-104,-134,-235,-136,-138,-37,250,38,-75,-79
-229,-258,-341,-150,-118,-1,301,269,-155,-157
-251,-172,-219,-36,-6,29,176,201,48,-128
-68,12,34,91,99,0,2,6,-28,1
138,260,281,235,210,62,-310,-280,75,117
225,321,339,282,237,64,-660,-619,-62,187
225,257,287,224,166,15,-868,-410,124,228
70,60,105,35,45,-49,-577,129,-10,74
-11,-55,21,-41,-58,-68,151,320,-18,-59
49,-106,-36,-60,-131,-94,200,207,-183,-67
100,-36,-56,-51,-85,8,358,61,-37,-32
119,-27,-85,-91,-40,50,500,-34,-102,-7
47,-69,-139,-174,-54,66,393,-44,65,-5
-87,-163,-236,-266,-89,113,683,213,44,-22
-107,-69,-151,-183,18,236,403,185,78,-41
-35,-24,-85,-172,-9,54,-229,-120,-164,11
55,155,53,12,-25,-159,-339,-91,147,189
24,141,75,145,-10,-264,-529,228,230,177
-81,11,-34,96,-94,-180,12,312,246,-31
-262,-161,-99,36,-45,48,356,44,-74,-278
-353,-117,41,248,51,123,-145,-230,-135,-366
-182,-16,123,140,55,70,-154,-404,-248,-191
101,152,262,48,100,90,-506,-441,61,114
187,168,318,77,81,-142,-1577,-228,75,214
46,59,192,40,-10,-219,-760,62,50,29
-27,-26,28,-34,34,-11,426,275,-95,-43
7,-44,-131,-184,86,146,711,292,67,0
45,-117,-223,-148,18,68,569,117,-60,17
31,-97,-152,221,10,45,477,36,32,0
-10,-132,-176,172,10,163,406,189,-44,-20
-2,-75,-123,-32,38,256,213,162,131,18
-35,-15,-21,-88,3,41,-80,-40,-13,6
17,87,89,-23,-27,-130,-69,-190,53,8
87,57,56,-33,-31,-210,-208,-388,-93,36
16,-5,-14,-46,-26,-37,21,-380,-38,-5
-6,-15,-17,-50,-21,84,182,-40,-123,-13
33,84,55,27,-18,-51,-113,224,58,20
37,24,18,11,-23,-112,-293,279,-13,23
3,-10,2,-18,-36,-52,-113,105,56,-4
8,-47,-32,-81,-93,-187,-199,37,-111,-14
2,-56,-65,-91,-71,-105,-135,50,-51,-49
23,-77,-67,-66,-10,-13,-69,113,-110,6
72,20,8,1,51,185,419,112,53,101
94,95,76,66,115,305,816,27,-9,114
139,201,154,136,89,158,277,-250,233,157
71,47,-3,-9,-15,127,19,-130,281,101
-9,-12,-77,-71,-96,-119,-331,7,194,-21
-76,-102,-184,-215,-235,-278,-19,278,-191,-157
-28,-57,-107,-156,-152,-42,611,345,-134,-208
-49,-53,-8,-6,8,94,457,198,-301,-215
29,41,120,133,81,34,104,50,-119,-67
156,153,194,174,104,-160,-805,-259,-154,109
87,137,144,136,85,-141,-1075,-498,-20,147
-46,34,62,97,95,-28,-629,-412,26,127
-234,-69,-2,60,84,-18,-493,-264,237,67
-371,-220,-137,-58,-7,3,-281,-91,174,9
-103,-44,-44,-18,-3,108,88,-6,380,47
71,51,32,3,6,152,565,105,126,-34
-12,23,28,19,43,276,838,340,38,-108
-12,-29,-44,-83,-63,55,486,561,-110,-84
46,-14,-27,-104,-119,-140,210,436,-36,-25
39,-52,-18,-72,-66,-175,-73,171,-269,-34
4,24,54,30,46,-36,-282,-335,-178,-11
54,76,115,131,110,-2,-511,-743,-106,99
1,19,76,190,100,37,8,-476,52,7
-89,-94,-33,96,32,5,92,83,86,-84
-50,-23,-14,-70,-6,83,184,295,378,39
-78,-64,-59,-167,-35,217,631,212,147,-3
-165,-116,-136,-150,-27,382,1180,126,18,-162
-74,-55,-104,-62,0,138,477,76,-193,-76
119,141,97,107,39,-271,-859,17,-47,97
230,190,154,160,10,-567,-1964,18,-51,184
175,78,-28,84,-53,-318,-1050,109,216,194
19,-81,-223,-160,-101,-44,188,-29,98,65
-116,-64,-138,-147,-35,28,296,-326,-9,-76
-76,-41,45,10,5,-37,87,-385,-300,-93
66,67,228,153,56,33,109,-241,-214,-47
202,37,190,94,36,99,265,32,-211,1
161,1,98,11,-7,135,492,204,60,16
-21,-42,22,-59,-9,105,380,183,39,-11
5,53,11,-100,-20,26,127,111,181,11
126,86,-86,-70,-26,-88,-188,49,24,117
136,74,-127,17,20,-51,-295,-17,57,122
37,-16,-88,-7,-21,-29,-111,26,-161,-10
-10,-32,1,19,-58,-7,122,167,-26,-63
-67,-130,43,111,-74,-8,91,230,-77,-75
-124,-193,-39,129,-85,16,337,201,31,-120
-232,-163,-194,-154,-119,-93,486,150,-91,-186
-341,55,-118,-257,-49,-23,405,271,94,-204
-260,77,-69,-150,51,78,155,101,-52,-112
-63,115,79,26,144,155,46,-191,2,47
-14,182,181,138,204,157,-272,-374,-79,65
-6,189,188,160,144,13,-897,-686,80,35
146,71,96,77,62,-81,-885,-366,88,105
158,-5,53,46,63,32,-173,22,149,81
33,-147,-85,-53,-7,-2,350,155,-31,-8
-125,-379,-384,-108,-90,125,1408,473,66,-139
-129,-359,-435,-24,-96,187,1205,667,-38,-136
77,46,-41,-31,-38,164,36,108,53,61
304,287,343,74,90,162,-920,-490,-117,226
318,319,447,187,92,-228,-1667,-516,19,234
216,169,262,110,-110,-679,-1484,-742,-141,136
159,147,180,115,-110,-516,-626,-726,-90,73
83,88,34,-26,-22,-125,46,-90,-160,18
-47,14,-116,-194,-28,156,659,484,99,3
-116,-147,-227,-66,-19,286,763,546,42,-22
-158,-160,-151,219,59,285,538,276,56,-104
-154,-133,-117,108,43,87,311,115,-112,-133
-118,-80,-76,-73,50,87,342,98,17,-95
-32,-56,-90,-154,18,81,285,147,-13,-9
-15,-27,-77,-82,25,55,456,154,109,1
-55,-76,-44,-61,13,1,346,126,-69,-21
-77,-67,-3,-56,-13,-18,183,43,-29,-54
-64,-59,-13,-95,-64,10,304,-47,-164,-86
92,89,76,-41,-56,36,47,-110,-54,-12
190,162,101,9,-32,74,-34,-83,-66,83
180,190,83,58,16,-72,-547,122,350,184
125,126,16,4,-29,-255,-1027,162,221,102
80,142,76,54,-19,-209,-983,12,245,91
5,65,79,70,22,-163,-832,-101,141,77
-87,-11,65,71,38,-9,47,-72,36,-48
-121,-99,33,53,37,23,350,-75,-208,-105
-196,-178,-39,3,11,126,530,86,23,-92
-222,-205,-155,-123,-80,127,765,230,-57,-143
-215,-151,-171,-125,-43,280,1123,190,-34,-201
-187,-87,-64,-41,39,262,596,45,-269,-194
-67,70,91,67,76,82,0,29,-94,-75
183,165,177,128,73,-216,-760,-84,-53,122
309,249,204,152,80,-256,-1011,-384,86,210
216,162,112,55,21,-102,-409,-307,-58,113
143,27,25,-12,0,16,47,-108,18,31
156,-68,-58,-86,-95,-73,-39,-197,-68,85
95,-84,-114,-153,-201,-174,-65,-148,114,161
42,-99,-92,-129,-164,-153,92,91,-2,120
-1,-28,-1,24,22,44,43,130,115,47
-133,-137,-77,3,53,104,58,84,-58,-78
-189,-163,-141,-39,25,180,548,141,50,-128
-205,-134,-148,-42,13,110,444,149,-62,-183
-265,-62,-122,-17,-1,0,142,212,31,-227
-131,34,-19,18,24,-53,-393,133,-95,-143
60,191,137,96,70,-11,-448,41,87,53
27,129,122,75,64,84,45,123,87,128
-93,35,109,75,76,103,262,138,101,1
-150,-109,40,4,24,27,126,-24,-153,-70
-8,-32,14,-14,11,52,92,-16,133,70
154,30,17,-23,-19,15,494,18,98,113
89,7,-23,-61,-75,61,881,-252,-114,-80
-49,-120,-123,-129,-69,262,874,-373,-434,-210
28,-20,-10,-1,24,109,-44,-401,-218,-81
190,133,143,153,118,-223,-1784,-383,-151,91
286,259,249,238,177,-347,-2267,-149,145,247
148,100,100,82,47,-219,-967,59,243,210
-61,-70,-91,-87,-104,41,774,305,496,140
-143,-170,-181,-171,-176,3,815,379,215,65
-138,-110,-141,-140,-169,-43,358,268,144,-74
-105,-65,-68,-69,-106,-95,20,166,-189,-179
-47,32,18,22,-9,-2,128,159,-268,-152
64,56,40,41,21,-75,-141,243,-237,-36
175,155,121,110,103,6,-231,8,96,100
206,101,79,62,73,58,-66,-313,113,186
170,94,60,6,-17,-39,-100,-435,535,258
81,57,68,36,11,4,16,-504,136,85
-107,-39,15,52,46,169,235,-199,-177,-129
-283,-212,-142,-80,-26,122,393,265,-308,-205
-307,-206,-200,-123,-49,154,968,503,-1,-175
-260,-181,-184,-123,-31,212,1134,403,-38,-177
-77,-11,-15,3,45,159,408,20,-5,-84
182,111,124,130,153,98,-396,-223,-152,75
315,261,246,198,130,-247,-1698,-263,59,193
153,130,113,28,-79,-394,-1288,-89,-37,79
-23,0,5,-10,-50,-3,174,96,62,-32
-11,-8,5,16,20,20,28,-82,-97,-14
78,67,74,73,46,-55,-236,-239,32,76
76,12,20,34,17,-54,-104,-129,-31,82
-32,-70,-76,-82,-76,-38,350,-49,30,-12
-108,-139,-125,-138,-117,-86,518,70,-121,-80
-124,-97,-87,-73,-51,-24,448,316,41,-70
-79,-79,-73,-70,-14,-2,62,298,-30,-24
-45,-13,-20,-36,6,43,-107,93,72,-24
8,14,-6,-2,11,81,-174,-120,-88,-14
74,13,-19,1,29,286,261,-139,28,5
93,-49,-72,-19,26,241,519,204,-42,-4
12,-46,-64,-34,-28,34,549,537,82,-47
-73,-78,-52,-60,-72,-62,371,370,-89,-94
-93,1,53,23,-13,-97,-112,44,16,-53
36,111,130,52,47,-83,-617,-585,-121,33
201,283,276,187,169,39,-1064,-931,91,185
152,156,187,115,76,-156,-1089,-493,53,184
-29,-50,-34,-43,-144,-223,31,-39,72,17
-57,-64,-79,-1,-106,-111,219,51,-109,-32
-39,12,-45,15,30,98,132,106,7,-42
0,5,-56,-60,48,35,-27,179,-63,-20
55,0,-72,-40,45,54,176,203,80,23
122,-20,-111,-108,-29,3,257,164,-63,52
100,48,-24,-86,-65,-54,210,80,6,25
2,-9,-31,-56,-61,-17,105,38,-77,-11
-99,-105,-50,8,-39,104,273,86,74,-32
-223,-228,-119,-122,-91,34,825,168,-57,-150
-264,-130,-18,-65,-19,97,1132,95,-26,-232
-164,-65,71,219,69,122,448,56,-92,-126
-72,-17,86,264,70,23,-315,87,155,-37
132,133,139,247,83,-244,-1801,119,197,133
255,203,71,65,61,-234,-1773,-50,256,221
59,13,-165,-75,45,124,27,-42,-56,23
-177,-90,-121,-105,58,254,913,44,-84,-165
-192,-201,-113,-152,-47,34,587,58,-216,-150
-144,-172,-112,-180,-171,-100,335,91,-6,-67
-43,-50,-12,-99,-106,57,611,-47,-71,-6
64,92,131,66,55,147,291,-253,-3,55
198,187,223,171,165,-5,-600,-386,-37,187
298,296,305,223,189,-173,-1376,-432,200,301
146,65,56,2,-15,-199,-934,-67,107,156
-102,-66,-96,-164,-133,-43,295,179,76,-97
-105,-48,-80,-125,-67,35,413,134,-68,-135
-46,-13,-34,-42,-15,105,455,140,38,-89
20,-34,-20,-40,-36,14,387,168,-115,-39
95,5,15,-55,-53,-25,359,128,9,36
60,-66,-54,-93,-87,-36,318,58,-91,25
-49,-89,-120,13,-60,52,437,7,16,-39
-52,-51,-85,120,30,89,49,10,-154,-34
-31,45,35,150,188,137,-189,86,-33,8
-44,44,98,91,212,100,-202,203,-37,44
-21,66,113,67,142,34,-371,-123,99,41
-7,0,-14,-23,-14,-58,-149,-469,-72,-23
-10,63,-15,-15,-59,-97,-102,-303,28,-13
1,54,1,-21,-76,-236,-680,-83,-13,43
26,42,35,-20,-97,-194,-510,-48,146,66
17,21,38,-20,-56,-147,-410,66,-13,15
11,19,5,-11,-6,53,170,109,58,-26
102,0,-45,-53,-41,44,322,12,-16,36
63,27,-28,-48,-54,3,301,13,65,10
-53,-22,-30,-39,-36,2,134,177,-58,-52
-209,-102,-62,-22,18,166,379,282,71,-116
-261,-156,-88,-40,-8,138,429,93,-116,-141
-122,-36,-6,38,0,35,189,-169,-18,-35
71,59,61,79,28,-89,-254,-329,-81,86
149,142,144,126,81,-73,-446,-225,135,137
84,69,113,68,55,-40,-210,32,54,82
-14,-5,20,12,29,68,177,290,79,-9
-34,-89,-80,-57,11,67,211,525,-66,-34
19,-49,-73,-62,-14,-15,120,354,66,-10
107,-41,-90,-102,-72,-38,357,51,-23,25
217,29,-28,-64,-61,40,381,-268,-15,24
138,14,-9,-78,-82,12,-25,-579,-307,-58
77,19,0,-30,-31,32,-80,-263,-47,-9
129,-10,-32,-52,-70,-132,-313,377,108,70
20,-74,-113,-125,-179,-195,-17,642,333,41
-169,-136,-125,-90,-93,12,130,336,95,-51
-210,-25,25,71,109,272,-66,-237,-55,-132
-83,112,143,137,149,87,-594,-639,-254,-72
-7,173,225,207,205,74,-195,-478,-11,-4
-58,56,138,160,176,111,450,-189,-61,-30
-112,-22,33,47,52,77,852,51,-26,-89
-175,-139,-103,-79,-36,208,1753,57,-221,-154
-221,-152,-132,-80,-29,313,1311,-257,-139,-165
-145,-128,-116,-66,-53,-4,-334,-148,-111,-46
172,153,105,146,48,-361,-1868,280,285,232
385,279,219,178,81,-622,-3052,383,277,354
210,99,63,-12,-28,-245,-1205,242,185,129
53,-73,-88,-87,-52,116,303,-2,-56,-1
-88,-133,-162,-119,-99,66,153,-148,-28,-75
-60,-102,-174,-146,-154,-154,-130,-71,-197,-82
22,9,-65,-66,-78,-64,387,207,81,-19
94,48,34,-62,-44,-70,451,451,198,61
81,101,160,40,48,44,239,127,118,51
39,104,219,164,182,268,450,-192,-99,44
56,132,210,184,161,204,383,-169,35,32
131,94,92,99,21,-100,-386,-473,-78,80
116,94,15,118,1,-64,-471,-490,84,114
-45,-43,-73,69,-44,1,118,-97,-92,1
-219,-188,-184,-197,-136,-20,665,97,-71,-132
-222,-222,-193,-238,-87,40,537,120,-183,-125
-100,-67,-75,-18,32,105,140,156,19,-35
0,10,2,88,69,-24,-367,183,19,40
-11,33,-13,85,49,-120,-270,287,235,47
-142,-94,-161,-94,-22,30,853,193,-34,-135
-145,-95,-176,-207,-52,179,1148,52,-94,-208
-89,-89,-99,-154,-50,259,676,54,-159,-134
30,66,166,82,92,199,-566,-74,45,-6
146,164,317,137,108,-104,-1943,-342,-59,87
166,162,303,105,40,-28,-1093,-233,95,137
245,211,303,121,-66,-395,-843,-168,34,204
127,115,95,98,-90,-355,-38,32,89,91
18,-29,-189,-7,-56,-100,581,200,-32,36
-10,-88,-355,-187,-42,2,500,245,123,80
-47,-151,-232,-110,-61,-1,275,78,-110,-27
-108,-131,-3,209,21,116,365,-29,0,-117
-117,-167,-17,76,6,97,407,88,52,-92
-79,-103,-44,-64,-14,53,254,29,150,-61
-63,-51,-54,-103,-27,-10,-60,-66,-62,-24
-57,14,-44,-83,-5,50,35,-10,25,22
-30,36,-41,-76,23,105,16,-73,-162,28
-4,120,26,-46,59,107,18,-152,-75,-29
113,161,42,-41,35,-26,-212,-248,-126,22
253,212,79,13,19,-94,-371,-186,92,114
293,108,72,21,18,5,46,74,25,118
109,-56,45,21,13,163,535,248,133,53
-116,-203,0,72,44,96,198,179,-66,-80
-273,-133,46,285,84,-53,-284,20,-15,-169
-177,7,18,128,39,-163,-493,-27,-65,-57
-56,86,-2,-108,-5,-25,8,23,71,0
-83,-24,-70,-153,-45,56,418,53,-94,-62
-67,-38,-60,-73,-52,26,293,-49,24,-51
29,-14,-18,-18,-36,-93,-228,-91,-27,39
34,-4,3,21,9,32,-95,-43,62,47
123,54,65,36,32,36,-211,-41,-30,102
213,156,140,83,72,18,-347,46,195,218
98,22,24,-27,-3,-15,-63,69,20,81
-49,-46,-43,-47,-40,-5,222,26,-14,-118
-129,-133,-78,-9,-72,-69,272,36,-228,-225
-145,-154,-118,-60,-71,9,607,239,-79,-196
-143,-106,-46,-91,-3,52,339,191,-70,-80
-86,22,64,15,37,85,210,-71,66,-15
82,90,70,80,56,97,181,-215,-77,47
131,191,133,160,114,98,-357,-228,82,126
21,56,3,26,62,31,-618,-272,-66,50
45,61,3,-20,-1,-171,-1038,-126,106,65
14,-29,-18,-74,-83,-275,-931,161,98,61
-30,-108,-86,-96,-74,-32,336,315,186,-18
13,-94,-75,-50,-33,43,555,214,-22,-58
18,-25,-24,6,-14,72,466,63,11,-14
-27,-10,-24,-31,-28,83,388,39,-101,59
-167,-63,-66,-40,3,156,446,74,28,-2
-183,-147,-120,-81,-37,51,294,142,-26,-81
-19,-16,-35,-27,-29,-12,157,267,144,-24
120,54,42,25,14,-31,-104,123,-86,-34
192,144,133,100,93,25,-154,-216,-46,21
