-26,-63,-39,-21,-24,19,101,29,-128,-5
-26,-53,-43,-30,-2,37,4,50,-154,0
38,19,13,7,-9,-23,-92,68,10,57
86,64,59,44,0,-54,-58,60,87,107
91,70,82,82,51,17,39,-30,35,80
43,42,41,46,37,0,6,-153,-72,49
-50,-55,-26,-33,-1,-60,-146,-207,-347,-37
-67,-72,-22,-41,-25,-63,-244,-193,-473,-61
14,-7,11,-31,-8,-18,-81,-73,-69,-8
-2,-19,3,-28,10,1,31,21,-109,-5
-31,-27,1,9,17,8,38,70,-124,0
4,2,16,42,31,28,29,52,1,-3
31,20,5,11,15,23,40,40,26,-19
24,14,4,-7,4,-2,22,16,-146,-44
-16,-11,-3,0,-7,-26,-46,-37,-334,-77
-22,-3,-5,-11,-20,-35,-51,-61,-214,-82
-41,0,-18,-20,-18,-4,-15,-33,-12,-27
-76,-97,-113,-74,-46,17,94,133,316,137
-38,-73,-109,-75,-55,-5,150,135,437,126
4,0,-39,-17,-28,0,154,81,330,11
9,6,-11,9,-7,19,119,113,134,-3
20,12,17,22,0,1,-3,61,-55,-24
29,31,38,33,7,-9,-92,-32,-163,-23
25,40,54,42,29,40,-32,-31,-102,-15
36,40,39,37,31,-25,-55,-5,234,28
54,48,40,30,13,-64,-146,8,351,78
40,36,36,25,-10,-35,-210,-18,18,50
-2,5,6,-1,-25,-42,-130,-17,-292,-1
2,-11,-15,-19,-3,-2,133,-1,-43,-24
-2,-28,-37,-39,-8,18,231,-34,11,-31
-18,-35,-33,-38,-11,34,139,-91,-43,-37
-25,-17,-10,0,11,42,-13,-92,-122,-53
-20,6,17,24,1,-24,-139,-40,-117,-47
-9,17,8,19,-17,-56,-149,9,-110,-24
6,10,-1,1,17,4,-53,57,-85,10
26,12,-4,-1,46,30,23,95,-14,47
-20,-28,-42,-19,11,-1,11,57,-51,28
-69,-70,-40,-54,-35,-42,-41,2,-139,5
-23,-24,-6,-16,-27,-21,1,-8,-35,11
14,0,11,7,-9,12,51,11,-45,23
28,30,19,-3,-9,12,100,28,-34,25
10,16,21,-4,-2,6,92,3,-34,1
-13,3,2,8,26,31,-8,-55,97,-38
21,20,17,17,43,27,-91,-91,314,-28
38,35,19,11,30,33,-18,-59,252,-19
13,21,1,11,22,30,75,-24,67,-37
0,11,0,18,23,34,75,-31,-128,-65
25,21,28,19,22,20,36,-61,-223,-91
62,37,15,14,4,-11,1,-62,-161,-105
28,1,-29,-31,-66,-19,18,6,-88,-48
-36,-53,-84,-110,-143,-49,29,121,27,92
-100,-100,-128,-164,-160,-81,33,142,-96,71
-119,-144,-149,-133,-107,-19,161,145,162,59
-155,-151,-78,1,48,77,253,203,420,41
-98,-4,73,133,171,104,188,134,101,-96
42,106,146,131,126,35,18,66,44,-37
113,129,133,82,55,-11,-324,-58,-44,66
163,128,89,35,-2,-127,-417,-147,159,126
102,66,55,19,-24,-121,-201,-165,51,67
21,21,33,29,5,12,-190,-236,-143,-5
-32,-29,-19,6,-5,79,-177,-181,-35,-1
-28,-36,-48,19,15,114,65,56,219,55
-2,4,5,41,30,20,90,102,119,-13
46,74,71,58,41,-19,19,17,28,-11
96,93,82,69,58,55,9,-45,48,58
53,29,14,7,7,29,19,-55,-62,56
-36,-56,-44,-52,-58,-21,69,17,-250,6
-68,-66,-46,-63,-67,-41,153,100,-204,-61
-50,-37,-41,-41,-39,-27,149,165,210,-60
-30,-9,-22,-7,10,35,45,159,260,-47
-46,-6,-2,16,27,84,68,87,-183,-84
-63,-26,11,11,22,66,164,-1,-636,-70
22,39,27,18,7,29,251,-52,-507,11
43,54,32,38,42,31,189,-137,-216,-2
-28,3,-12,14,21,-85,-200,-236,132,-72
-53,-30,-34,-14,-11,-114,-284,-87,482,-27
45,17,15,29,42,-30,-106,58,361,-5
106,44,23,39,71,-5,3,-7,112,-73
39,33,21,12,29,82,149,-160,-223,-211
-36,3,-17,-57,-60,138,228,-180,-258,-180
-44,-68,-112,-126,-142,65,220,46,93,107
15,-56,-93,-114,-149,-123,1,129,394,292
27,-28,-44,-56,-68,-113,-175,47,397,278
-17,-66,-56,-75,-58,88,0,118,297,218
-84,-49,-12,-34,-25,-46,-55,181,-93,47
-69,-82,-39,-41,-32,-123,-204,252,-110,100
29,-32,-38,-33,-46,-46,-94,214,46,57
49,97,105,125,91,22,-261,98,80,-122
27,153,220,252,218,33,-375,12,-129,-196
60,142,209,233,192,-101,-358,-13,-198,-110
117,124,148,114,70,-94,-304,-50,-250,52
20,-4,-11,-47,-2,307,185,37,-130,66
-69,-102,-115,-120,-32,290,530,58,-47,-45
-63,-91,-103,-56,-1,40,498,28,95,-18
-45,-63,-66,-2,9,-91,396,31,272,84
-23,-12,-35,-2,-9,-25,155,58,343,43
38,22,4,-5,-26,-79,-298,-78,120,5
108,46,42,20,-27,-96,-332,-98,-259,-34
78,46,45,1,-53,-99,-212,-179,-692,-128
60,56,39,-34,-113,-66,-204,-200,-572,-141
62,89,56,9,-58,-96,-311,-48,-157,-42
16,33,20,36,70,-27,-349,101,157,127
-90,-150,-134,-65,51,54,77,226,368,177
-211,-218,-210,-144,-56,-83,364,249,-6,-19
-157,-136,-177,-146,-109,-86,201,151,-19,-58
-31,-71,-116,-100,-64,127,244,56,201,-49
38,-20,-27,19,84,264,399,24,27,-109
78,112,101,132,143,111,333,117,-125,-132
216,247,203,120,63,-190,-239,-37,-339,-157
264,237,206,90,28,-142,-875,-258,-370,-64
70,108,137,94,61,103,-579,-335,-232,7
-68,26,48,60,79,114,271,-260,-168,-17
-106,-180,-205,-188,-113,8,733,179,291,229
-118,-286,-339,-320,-290,-45,611,439,801,435
-93,-107,-128,-106,-87,2,208,268,713,245
-61,96,132,203,236,28,-231,12,112,-105
-81,49,173,262,308,115,-584,-15,-322,-238
45,58,130,120,102,128,-599,13,-481,-282
68,80,91,20,-27,-47,180,-5,-797,-365
-69,8,2,-9,5,-222,510,-13,-716,-230
-86,-183,-214,-218,-144,-246,387,156,286,335
22,-222,-301,-352,-332,-196,223,156,590,605
40,-111,-160,-152,-204,-6,-150,-78,276,413
15,91,93,169,89,205,-382,-410,4,23
204,331,273,212,15,86,-266,-575,-197,-153
214,303,238,138,-45,-310,-170,-400,-68,-149
-93,-18,68,140,256,200,313,-135,127,-260
-219,-119,42,201,420,363,504,41,260,-253
-107,-24,110,229,401,243,46,37,368,-74
-7,-39,6,71,168,69,-401,75,106,67
84,-49,-88,-135,-191,-202,-669,157,-273,7
206,137,-20,-236,-547,-85,-497,98,-467,-101
145,173,27,-179,-486,-29,93,31,-473,-153
-84,14,-13,-44,-119,-510,186,-6,-105,-49
-109,-192,-210,-102,20,-156,226,302,567,561
-10,-200,-231,-104,26,266,463,408,769,707
11,-106,-129,-47,23,85,381,180,110,119
-47,-20,-30,41,118,-30,116,-88,-403,-338
-24,27,33,35,104,-6,-29,-188,-532,-430
49,113,65,-6,0,45,159,-162,-223,-326
62,66,-27,-131,-139,-23,99,-109,164,28
35,-130,-230,-275,-237,-92,-293,-16,563,518
-92,-176,-163,-79,-45,-13,-244,138,388,358
-188,-148,-38,68,103,116,337,109,-10,-18
-127,-54,33,87,93,57,742,-48,149,-69
-90,98,213,290,255,64,402,-232,145,-170
-93,119,262,371,381,227,2,-276,-307,-344
-117,20,94,150,207,152,-132,-246,-420,-355
-127,-10,60,107,154,104,-209,-300,-319,-257
-58,34,78,74,82,-62,-681,-304,-367,-185
42,-47,-110,-193,-203,-213,-420,45,-187,-36
204,-66,-194,-292,-352,-343,25,186,38,149
219,49,-53,-171,-284,-400,-50,-52,43,115
-19,91,58,6,-45,-117,1,-214,-409,-341
-231,-53,-45,-15,27,3,78,110,-366,-400
-52,-135,-229,-180,-94,-124,15,384,381,306
280,39,-100,-158,-131,-10,-4,122,865,833
312,220,206,177,118,486,129,-265,475,489
-3,133,327,430,391,-24,420,-436,-195,-182
-150,-103,40,149,183,-197,197,-262,75,-116
2,-91,-98,-98,-135,27,-645,-394,141,50
76,38,-70,-128,-229,95,-834,-420,-109,-80
13,46,-86,-205,-267,147,20,100,-188,-117
-88,-64,-143,-275,-252,83,485,319,-195,-100
-117,-123,-143,-197,-128,-72,735,255,101,-38
-139,-39,21,95,148,-46,668,123,73,-212
-63,-36,38,157,262,334,653,57,-85,-226
66,21,47,78,146,265,228,4,-124,-34
123,116,90,25,30,403,-253,52,8,120
160,111,27,-31,-50,-17,-838,10,324,370
55,-63,-112,-116,-135,-462,-816,-174,299,333
-48,-30,-15,10,9,-399,-116,-400,-50,-30
-43,44,48,90,116,-288,-49,-286,-315,-295
-62,-7,-17,12,84,0,78,-47,-172,-133
-66,-97,-60,-57,16,191,-43,51,68,155
-80,-72,-24,9,29,80,-326,12,-159,45
-56,35,98,133,114,188,-542,15,-254,-135
23,127,195,149,109,98,-246,82,29,-223
50,150,177,71,-25,-397,11,102,-19,-184
44,28,-16,-81,-88,-130,238,261,43,46
94,-76,-138,-134,-71,170,153,357,317,369
85,-159,-200,-149,-66,138,199,421,439,522
124,-100,-203,-188,-172,-161,287,158,182,316
75,35,-46,-74,-130,-381,14,-245,-151,-163
-171,23,79,138,150,-186,-136,-283,-270,-479
-285,-77,21,177,271,89,36,-180,-215,-397
-204,-72,-3,124,197,126,177,-1,-342,-226
-119,-56,-22,18,20,48,208,104,-484,-72
-9,-66,-60,-64,-59,43,-8,8,-235,112
63,1,-16,-56,-22,85,-195,-223,-21,-32
124,155,111,0,14,81,-8,-346,98,-69
135,183,164,49,44,103,84,-115,315,18
29,12,18,-27,2,190,170,306,693,213
85,-13,-16,-83,-94,140,230,366,680,425
70,-81,-15,-68,-74,117,185,241,314,559
-200,-137,96,115,160,246,7,26,-157,107
-176,-56,160,151,174,242,-176,99,-313,-341
-41,1,93,-1,-28,83,-116,298,-286,-471
65,-9,-12,-124,-179,-67,-130,206,-135,-200
62,36,31,-15,-77,-168,-526,-287,23,26
-27,66,46,52,1,-205,-418,-688,6,-169
-11,81,-24,-33,-66,-172,167,-68,58,-118
3,20,-106,-127,-135,-132,662,136,92,108
-179,-180,-166,-72,-20,83,714,19,222,219
-172,-212,-143,-8,60,362,64,126,222,120
183,-15,-48,-27,10,186,-737,287,610,484
240,220,180,181,209,243,-757,141,462,295
159,255,206,224,231,27,-97,-31,151,86
13,118,112,120,67,-405,-56,0,-170,-91
32,18,77,29,-58,-322,-238,120,-105,-103
138,60,119,12,-89,-175,-84,-88,-9,-2
152,146,165,76,18,-273,-396,-469,-69,-18
48,104,135,117,128,-136,-1116,-485,-158,-83
-66,17,18,-7,38,255,124,-279,-264,-230
-63,21,-22,-103,-41,664,1573,-16,4,-291
-13,-54,-43,-86,-67,430,686,370,330,87
-4,-76,0,4,-13,203,-602,329,240,174
89,-25,-16,-78,-158,-28,-1056,253,164,193
155,6,-37,-135,-275,-489,-1064,320,214,242
-98,-25,21,58,-12,-334,-448,130,-106,-143
-356,-129,-25,81,120,-60,629,307,-170,-246
-238,-89,-70,7,74,82,894,614,59,31
15,108,1,15,23,104,347,188,-16,56
206,242,118,77,19,-65,-103,-279,-268,-5
202,151,149,92,13,-133,-145,53,-334,-90
104,-30,10,-25,-81,-190,-24,313,-180,-121
33,-32,-16,-14,-95,-216,25,-254,-208,-190
0,48,50,70,40,-41,-30,-281,-122,-177
-116,18,31,40,82,112,-60,555,302,-164
-157,-202,-167,-120,-10,260,186,847,697,277
-27,-275,-290,-257,-165,151,342,485,594,842
123,-101,-148,-161,-165,59,256,89,242,625
176,47,22,-50,-95,-96,164,-656,144,52
34,76,114,101,74,-180,153,-1181,11,-253
-156,87,248,355,345,91,-164,-908,-473,-474
-173,-39,110,208,268,175,-98,-128,-540,-349
-43,-75,-28,-11,68,90,72,439,-137,-110
92,72,-4,-78,-106,74,-204,616,95,58
96,147,47,-58,-189,-234,-272,371,-80,6
-108,-70,-83,-106,-214,-255,363,220,-310,-37
-94,-166,-138,-107,-133,-83,446,92,-159,116
70,-1,-2,9,-6,73,-64,-255,38,81
56,63,129,207,207,201,-391,-629,-87,-42
-5,34,88,157,153,45,-188,-459,-345,-189
-13,117,60,25,-57,-241,-120,-123,-575,-428
-60,-34,-134,-166,-189,-322,35,523,62,32
-44,-254,-323,-286,-197,19,1017,906,955,733
40,-105,-142,-82,16,292,963,266,619,331
8,74,74,118,209,350,727,-583,-48,-319
17,171,176,218,266,229,20,-637,-370,-413
58,105,-68,107,77,-560,-1187,-149,-384,-160
22,34,-390,-117,-259,-1468,-1316,124,-55,-20
83,63,-326,-82,-182,-1006,-768,-222,76,107
129,-31,-75,0,-20,100,-695,-355,44,138
80,20,129,-11,-119,265,-59,-261,-388,-311
50,146,241,11,-104,100,229,-365,-511,-509
-24,9,179,35,112,367,297,72,264,40
-99,-247,-2,-39,123,521,430,566,797,531
44,-134,4,-35,62,209,569,185,502,515
30,-49,1,-12,25,24,394,-540,-82,431
-83,-55,28,18,-9,7,-4,-715,-126,370
5,23,70,-1,-59,-15,-313,-110,75,65
-98,1,52,47,52,108,-331,180,-33,-280
-220,-26,8,64,91,240,45,14,-232,-451
-150,70,7,-3,50,195,612,137,-285,-374
-30,32,-51,-88,42,272,856,476,-142,-222
59,20,-36,-74,5,66,177,490,-29,-116
105,39,6,-66,-65,-66,-232,235,-27,-6
94,0,-32,-88,-109,273,366,119,-39,11
53,-3,-24,-35,-33,240,484,-87,-50,-112
21,8,-7,-5,-73,-207,56,-88,-161,-125
-60,-35,-31,-77,-268,-404,-330,195,-125,90
-153,-79,-34,-59,-249,-509,-872,136,-148,115
-310,-228,-101,-6,-24,-270,-543,190,35,61
-201,-173,-119,-35,45,183,84,151,294,41
85,56,-25,-96,-106,236,-82,27,674,67
207,153,112,62,-25,144,-85,-223,404,66
108,209,307,366,275,-6,77,-625,-420,-212
39,211,266,262,219,-171,68,-395,-403,-239
-8,-86,-68,-52,21,144,490,529,274,141
25,-113,-114,-105,-64,200,325,627,310,365
149,37,-40,-60,-74,147,433,-157,41,163
113,45,-9,-34,-24,272,786,-522,-56,70
97,-31,-82,-133,-107,202,356,-240,122,175
-42,-71,-71,-107,-73,-24,-242,-152,-1,-82
-247,-66,17,42,72,-110,-685,334,-194,-470
-228,-123,-27,21,56,-104,-749,425,-256,-267
-15,-65,-97,-133,-125,-4,-278,-95,-104,105
86,57,-18,-69,-66,167,594,-96,-156,123
60,136,116,108,122,259,953,0,-266,-192
17,122,66,56,44,99,337,-161,-137,-328
76,42,-40,-69,-92,-220,-268,107,118,-127
186,55,17,3,-56,-476,-912,49,462,353
103,134,202,180,120,-455,-1548,-481,279,328
-103,-36,65,36,19,-197,-451,-502,-22,18
-58,-142,-100,-127,-121,-5,499,11,337,247
36,-7,24,52,75,161,169,251,444,361
-43,-37,-17,38,87,279,186,355,113,72
-182,-153,-123,-85,-54,319,316,316,-313,-259
-223,-188,-194,-218,-228,67,353,135,-381,-398
-195,-171,-266,-310,-325,-112,859,401,-165,-309
-172,-123,-231,-183,-141,82,1698,905,-13,-80
-94,75,56,176,260,352,1357,810,-146,-62
148,281,352,443,517,324,-355,0,-234,-101
436,501,612,549,529,180,-1078,-1115,-244,-108
640,576,624,509,418,1,-1460,-1203,168,322
465,263,229,111,-18,-560,-2066,-431,228,381
-138,-98,-113,-213,-329,-634,-735,-289,-226,-90
-291,-253,-293,-312,-319,-206,222,-416,-61,84
-255,-408,-392,-307,-187,74,668,-276,392,591
-105,-322,-299,-228,-85,130,1299,154,509,446
-72,-94,-101,-69,1,118,250,284,27,-367
-292,-140,-40,38,121,309,-491,299,-323,-730
-199,-130,40,83,100,98,-478,255,-123,-387
119,67,133,91,18,-196,-1079,92,260,268
166,34,-8,-55,-104,-26,146,498,328,457
194,77,23,-25,-93,-71,782,863,104,320
77,85,71,28,-27,-101,459,331,-98,-78
-68,-150,-112,-84,-46,162,1175,-219,101,-163
-9,-104,-137,-79,3,234,849,-542,44,-101
28,119,47,118,142,93,-118,-820,-365,-207
51,373,236,278,225,-140,-1086,-650,-643,-240
60,493,190,129,3,-471,-1603,-327,-587,-305
-5,412,185,68,-39,-361,-858,-321,-127,-393
95,43,125,97,120,108,-461,-106,684,164
31,-327,-92,-70,4,256,243,516,787,487
51,-259,-220,-242,-231,-30,551,663,324,414
-98,-265,-270,-247,-245,-125,677,463,109,534
-274,-290,-250,-169,-115,-6,1610,520,-69,68
-297,-297,-249,-143,1,150,1555,979,-133,-319
-153,-70,-26,55,157,186,212,347,-478,-610
63,253,285,297,265,3,-1078,-1015,-859,-636
77,214,288,311,272,61,-1549,-1005,-524,-137
49,-11,18,33,-5,182,-990,-236,98,461
86,-205,-260,-290,-324,-138,-192,-82,362,585
124,-3,-93,-187,-264,-260,-277,-314,-142,36
10,55,52,6,-39,-4,-296,69,-267,-294
-28,-131,-86,-30,4,-50,217,643,425,26
63,-17,-54,-76,-72,-100,813,439,356,-86
-166,37,70,83,145,350,1749,107,-199,-508
-353,-290,-214,-68,129,487,1274,69,4,-13
10,-87,-113,-63,-24,14,-511,-141,301,614
533,509,426,347,198,-288,-1575,-270,390,672
420,451,421,314,192,-276,-1547,-294,-97,206
14,5,-26,-122,-220,-220,-410,81,-210,-140
80,40,-10,-72,-188,-139,178,-183,-196,-135
244,224,215,194,181,6,-282,-969,-478,-453
77,187,226,230,284,180,14,-1029,-541,-741
-321,-74,-11,1,53,78,562,-229,-227,-409
-263,-359,-341,-344,-246,-125,363,550,762,812
45,-337,-383,-394,-305,-149,159,636,977,1137
-44,-175,-178,-103,-55,33,135,602,260,438
-210,-76,-10,110,134,276,148,477,-390,-202
-179,-18,43,126,132,261,229,212,-361,-422
-88,-22,24,92,98,-19,225,125,200,-286
-31,21,90,128,95,-131,82,-26,186,-201
46,101,112,102,55,-62,-144,-210,-189,-70
70,69,18,21,18,-1,-84,-227,-233,17
1,-15,-112,-6,40,-206,-84,-74,-84,-119
-45,-77,-153,0,220,-208,49,-53,-102,-296
-95,-82,-95,8,385,115,668,-266,-542,-520
-20,31,31,45,254,270,549,-296,-708,-559
64,-31,-30,-72,-158,101,-190,20,-391,-191
-112,-69,-43,-129,-390,-181,-732,71,-90,-91
-183,-153,-147,-255,-471,-213,-608,433,679,313
252,-87,-194,-346,-515,-46,-48,665,1291,1076
401,286,203,21,-192,77,-54,243,496,678
163,316,371,300,149,266,-23,171,-30,104
-26,-11,129,123,97,217,334,229,481,463
28,24,106,59,-5,12,285,-220,227,146
-26,36,43,2,-64,-127,60,-256,-246,-276
-89,-31,-51,-94,-108,-116,8,-59,-162,-245
-29,-16,-61,-108,-98,-119,-141,-92,4,-56
-27,-69,-59,-48,3,-13,68,126,78,-48
-91,-108,-87,-42,45,34,284,414,71,-86
-47,-82,-77,-44,26,-21,106,220,-3,-62
61,78,58,56,41,-42,-34,-235,-451,-260
116,335,263,224,117,38,-243,-386,-838,-577
101,273,164,102,0,63,-408,-566,-397,-465
-40,-31,-103,-83,-3,173,-13,-660,201,133
-66,-286,-274,-140,152,262,615,-89,731,783
-4,-202,-163,-46,192,73,542,45,596,762
2,63,112,155,224,-165,-45,82,-47,56
-44,166,249,279,258,-243,-429,132,-350,-364
-82,-21,87,153,185,-218,-1098,161,-231,-356
-225,-188,-153,-144,-49,-99,-751,31,-582,-721
-261,-198,-188,-163,-118,239,644,-5,-740,-717
-85,-153,-181,-147,-164,440,1101,237,-165,-146
47,50,21,17,-74,278,633,361,95,146
365,379,318,248,115,-282,-598,-291,476,439
353,299,234,162,107,-296,-1302,-948,1016,688
93,3,-55,-102,-135,-210,-149,-280,946,775
14,-156,-239,-321,-402,-80,768,787,-81,410
-108,-313,-308,-322,-359,195,1272,1220,-510,88
-242,-206,-146,-78,-90,269,1006,1072,-341,-257
-108,-39,18,49,11,243,300,467,6,13
55,96,167,173,107,-146,-1221,-290,-45,45
-34,127,239,252,255,-284,-1376,-1043,-464,-395
10,164,221,185,223,-67,-836,-1354,-482,-363
75,126,156,92,163,257,-308,-1110,-59,-43
60,0,5,-48,7,222,-56,-67,357,72
27,-26,-73,-106,-74,60,382,426,341,-36
-66,-6,-19,-3,-6,-155,281,242,-323,-185
-15,-44,-71,-37,-59,-437,-320,129,-514,-59
-3,-115,-140,-67,-108,-486,-461,155,-94,14
74,-9,-44,-39,-89,-324,-188,31,301,151
185,92,53,9,48,106,619,-32,500,162
66,22,12,-16,51,601,577,125,449,-40
13,-19,-49,-91,-95,215,205,378,117,-81
-78,76,77,66,4,-53,229,419,-756,-644
-306,6,102,161,146,100,475,326,-1217,-920
-49,-248,-253,-202,-99,82,288,58,-172,226
96,-232,-306,-317,-220,-45,103,179,729,933
-115,-39,7,38,116,170,375,613,855,466
-257,-60,40,130,196,170,400,506,857,275
-78,-128,-134,-76,-76,-47,-130,291,610,544
93,-12,-99,-126,-171,-188,-726,-942,-111,247
237,227,175,106,27,-232,-1003,-1743,-542,-314
151,246,287,262,205,-17,-648,-578,-672,-683
-95,60,114,121,80,78,483,744,-565,-771
26,22,35,63,37,171,1474,424,-99,-213
206,144,146,123,85,26,206,-319,87,230
124,118,37,-46,-122,-254,-999,-557,32,278
172,-31,-102,-106,-142,-264,-1663,-541,445,725
64,-20,44,124,174,183,-883,-695,185,358
30,-21,-3,48,103,303,422,23,-63,36
112,26,-88,-170,-212,-213,647,533,-118,-1
-149,-134,-177,-223,-248,-346,1126,690,-169,-289
-363,-272,-216,-104,-12,19,814,799,90,-542
-242,-107,-6,121,193,192,286,784,310,-302
37,88,165,190,158,66,-1109,709,22,79
61,56,106,88,66,170,-1101,-306,-338,123
-56,-66,9,31,4,-24,-418,-1009,-100,377
-72,-96,-44,-50,-109,-135,303,-648,81,264
-57,-45,-41,-45,-35,141,680,-754,-171,-203
52,-26,-50,-50,14,139,464,-600,118,-123
124,49,13,8,33,-31,227,118,303,100
129,136,70,48,75,-202,-29,447,-321,40
65,180,34,28,59,-218,-106,442,-534,-120
21,213,1,34,11,5,202,517,-124,-255
-43,261,152,128,74,193,393,133,-168,-860
-47,108,200,103,26,21,-162,-189,-318,-951
-156,-370,-195,-197,-163,-74,308,107,83,-57
-284,-359,-238,-211,-149,60,309,231,-127,256
-219,-249,-233,-229,-201,61,-309,607,279,607
122,-178,-254,-251,-236,100,196,756,1295,1340
355,90,2,-30,-54,62,-194,144,695,896
228,200,146,100,19,-319,-1180,-974,-125,124
52,199,249,269,269,-243,-1554,-1659,189,-172
-13,167,301,421,571,397,-469,-1063,176,-384
-11,30,84,159,244,411,774,172,-483,-375
-60,-145,-159,-95,-44,10,951,878,-357,-142
-134,-216,-257,-248,-118,-218,1440,813,51,-129
-18,24,-17,-81,-56,-137,761,371,-43,-226
110,334,363,302,154,-87,-740,-119,-649,-405
134,276,310,241,108,-6,-1402,-164,-558,-194
5,-9,-72,-193,-274,-119,-795,66,-154,-52
-184,-323,-405,-498,-571,-230,441,594,342,250
-202,-349,-403,-461,-574,-279,648,530,633,482
-117,-226,-212,-161,-234,-1,381,290,430,220
-94,-43,6,109,171,347,156,-288,-161,-116
78,213,236,273,316,277,-33,-984,-417,-146
126,234,239,237,196,78,-22,-509,207,-5
3,38,87,125,118,102,774,668,1175,398
73,58,102,144,226,311,748,363,915,479
-10,-20,-23,-37,56,168,761,-200,-561,-54
-251,-201,-186,-159,-80,-66,-102,119,-1377,-424
59,0,-18,-16,-60,-135,-1017,-277,-668,-191
183,89,34,10,-43,-60,164,41,-113,-110
7,-18,-24,0,185,-25,122,413,207,5
57,31,38,64,341,188,-640,-676,545,315
359,337,359,357,411,74,-1435,-1810,580,504
457,507,490,355,236,-153,-2285,-1115,21,190
117,148,70,-140,-339,-243,-1160,342,-45,-122
-127,-140,-157,-185,-364,-254,332,721,-5,-216
-94,-154,-182,-66,-256,-195,1000,529,-207,-288
-69,-40,-125,-38,-231,-308,1067,534,-345,-415
-202,-61,-78,-5,-122,-276,733,702,-40,-164
-243,-238,-153,-81,-39,170,659,917,412,383
-67,-202,-113,-151,-8,626,957,269,268,246
-89,-61,-28,-68,52,430,303,-361,-107,-179
-47,-33,-74,-77,-38,-214,-560,-537,-98,-14
71,53,-12,-7,-33,-407,-899,-785,-274,28
97,85,42,6,-6,-125,-297,-239,-230,-254
77,111,41,-42,-106,-10,174,499,-201,-443
-45,96,66,6,-70,-22,170,640,-281,-396
-300,-175,-154,-40,45,147,863,738,153,132
-174,-194,-199,-91,56,138,507,-102,272,515
44,-97,-137,-123,-27,-121,-419,-621,58,360
45,60,32,13,43,-180,-476,-326,-289,-195
1,153,192,176,233,52,-339,-315,-192,-175
72,68,119,105,183,184,-249,-137,290,327
-17,-13,66,98,133,179,-159,56,168,83
-62,-51,41,102,97,34,-13,-171,-133,-147
80,52,93,119,85,15,331,-295,-129,4
100,125,167,181,138,162,685,187,-159,-103
155,176,216,190,123,73,431,103,-302,-356
212,142,125,60,5,-167,-42,62,-83,-424
18,-50,-104,-201,-250,-151,-381,89,235,-215
-55,-167,-291,-402,-454,-144,446,73,294,185
-235,-442,-477,-441,-367,-162,1198,438,213,357
-458,-432,-428,-334,-229,40,997,159,29,-171
-154,-139,-177,-71,17,165,-682,-216,319,243
90,132,101,204,199,198,-1197,448,308,757
292,363,262,192,80,-17,-1487,867,131,681
11,140,168,66,-38,-182,-641,646,67,-11
-187,-47,122,66,18,-20,686,359,-76,-463
83,136,246,222,179,108,184,-303,141,-176
365,355,361,357,318,238,-147,-962,242,126
313,257,255,237,183,-21,-400,-650,122,119
109,15,19,0,-24,-199,-306,-828,-186,-206
109,83,64,28,78,-76,-370,-1422,-728,-569
92,194,153,72,189,28,-460,-1074,-1103,-675
-140,-38,-81,-168,-50,37,286,-69,-738,-286
-279,-359,-354,-338,-249,70,666,970,123,327
-240,-463,-468,-409,-387,116,715,1481,825,646
-135,-289,-304,-235,-289,-293,453,807,1354,649
-184,-94,35,209,170,-340,253,-17,1383,369
3,131,250,393,368,140,-169,-310,278,0
232,273,254,214,111,303,-260,-593,-847,-235
58,86,83,52,58,357,662,-284,-1054,-458
-85,-54,-55,-10,184,175,683,298,-622,-455
-154,-104,-132,-107,68,17,1176,528,-279,-379
-22,7,-29,-49,-9,-147,633,246,58,-132
112,73,46,20,-10,-171,-648,-145,289,107
262,279,234,147,9,-87,-1025,-521,15,-11
268,273,238,139,-14,-22,-1530,-391,-164,124
84,32,-36,-173,-302,-32,-1381,72,143,444
185,-124,-280,-443,-606,-203,-1333,627,835,937
-9,-180,-210,-269,-318,-61,128,1073,659,576
-376,-219,-94,28,103,166,1336,840,67,-377
-384,-250,-121,2,104,-23,605,119,-62,-525
-150,-147,-126,-87,-51,-165,93,-347,-426,-388
-23,-44,-74,-60,-100,-221,-30,-669,-848,-444
9,54,45,109,112,-31,288,-252,-606,-480
-35,203,276,336,448,307,492,238,-204,-305
5,141,230,302,494,310,325,100,466,475
168,58,104,155,315,224,-346,-481,881,1060
180,153,87,9,-81,-67,-467,-931,371,263
73,92,35,-75,-252,-311,46,-1124,-220,-203
104,-26,-70,-94,-189,-83,177,-587,-84,86
9,-88,-63,-23,-25,148,181,321,72,9
-241,-126,-67,-21,4,203,497,672,-153,-379
-148,-138,-137,-152,-127,204,1662,544,48,-113
135,-69,-91,-126,-77,289,1367,558,460,361
179,58,64,26,36,-37,-1111,199,81,152
177,216,254,192,94,-474,-2433,-23,-257,-113
74,165,209,164,83,-437,-1973,2,-149,-78
-190,-103,-87,-72,-40,-126,-277,334,-152,-197
-236,-141,-181,-104,9,269,952,269,-392,-421
-3,193,101,133,174,226,530,-420,-766,-643
136,214,133,90,108,146,517,-356,-668,-557
-156,-224,-208,-175,-70,199,1117,298,-61,5
-230,-351,-394,-336,-175,16,448,772,674,769
-86,-240,-367,-334,-234,-226,-186,443,809,772
45,-56,-64,-1,-81,-302,-852,-390,400,325
135,158,249,250,-39,-605,-1353,-588,-160,28
19,163,264,266,-37,-358,-334,-618,-405,-189
-19,90,166,189,96,185,950,-578,-9,-46
46,35,92,131,375,383,755,-157,589,75
83,24,86,164,376,304,-120,-67,363,-116
81,51,72,70,-6,60,-437,-19,-497,-291
-21,-21,-40,-109,-223,70,143,389,-494,-388
-80,-44,-77,-125,-137,62,455,692,-235,-238
35,-8,-39,-63,-25,-192,-52,609,11,298
135,-41,-137,-161,-87,-420,-466,135,362,631
102,-89,-194,-264,-162,-16,99,-207,283,402
-143,-56,34,63,124,558,230,-474,-485,-362
-356,-117,102,220,184,516,184,-160,-671,-605
-128,-167,-119,-132,-255,-164,-220,798,397,88
-9,-133,-198,-270,-399,-348,103,1268,740,277
37,103,81,-11,-152,-16,475,654,125,-57
-15,43,55,5,-70,352,588,-221,-43,24
118,80,38,-13,-22,203,756,-1017,99,325
319,267,130,46,61,-59,-613,-1846,-243,156
252,302,219,166,215,123,-409,-1331,-585,-235
128,317,255,173,126,-117,-433,-97,-565,-439
-104,57,36,-30,-142,-414,-1203,300,-197,-135
-93,-241,-203,-171,-225,-458,-1269,39,352,641
92,-71,-72,-53,-61,-230,-152,29,209,392
-13,0,25,48,111,141,460,418,9,-195
-54,-120,-85,-51,20,156,389,551,419,-12
76,-96,-93,-67,-28,36,164,290,476,98
95,0,23,108,156,-20,60,28,22,-101
-90,104,152,213,206,-50,362,-114,-417,-437
-253,-107,-39,44,74,93,580,147,-180,-139
-127,-250,-219,-137,-40,134,149,205,83,246
16,-80,-105,-94,-35,-35,-240,64,-142,-21
-77,-75,-81,-63,-7,-41,67,329,-209,-244
-135,-176,-174,-146,-37,10,419,469,-147,-209
-39,-57,-63,-44,58,160,530,210,-262,-239
29,79,93,117,166,116,-381,-129,-209,-240
19,37,30,30,62,-121,-624,-414,43,-157
64,135,133,72,26,-82,202,-301,238,158
102,110,123,90,-15,96,574,92,288,471
95,65,34,22,-82,55,-64,-271,218,382
81,104,-12,-38,-122,-96,-851,-538,454,506
70,33,-73,-110,-158,-224,-532,-116,429,535
-260,-197,-146,-111,-56,127,1426,524,-195,-256
-291,-295,-142,-74,10,339,1522,1179,-180,-488
18,-65,57,65,70,173,-40,905,12,-118
21,120,161,161,133,-46,-1075,381,-148,-106
-17,185,193,207,163,-210,-1505,-450,-259,-209
-25,25,7,-36,-102,-399,-962,-1267,-214,-146
45,-13,-87,-157,-205,-186,508,-1252,-183,-62
187,175,148,128,94,203,523,-982,-140,91
269,297,296,312,239,308,-154,-420,-30,130
340,214,174,184,91,72,-386,18,251,235
143,19,-19,-43,-75,-258,-148,65,-11,-119
-28,-31,-85,-142,-85,-285,29,426,-307,-316
-56,-173,-230,-252,-73,-95,0,862,-56,258
11,-171,-227,-203,-78,-51,-207,716,118,437
-269,-201,-99,41,112,93,31,-24,-57,-138
-362,-193,-39,108,276,188,288,-451,119,-312
-237,-135,-25,87,452,200,356,-173,474,-63
-138,-101,-58,8,188,81,151,127,313,-39
57,-6,-55,-124,-277,-35,321,392,-96,-126
118,115,65,7,-210,285,888,504,-300,-197
162,192,129,87,-115,333,722,277,-223,-111
304,209,104,9,-213,-21,213,30,245,174
99,119,62,-50,-118,-161,-1028,117,343,142
-117,-129,-175,-237,-132,-177,-814,363,153,234
-130,-249,-249,-240,-217,-241,661,480,-6,312
-313,-329,-273,-258,-272,93,2939,727,-248,-192
-228,-116,-95,-82,-63,262,2007,-399,-335,-401
203,292,270,224,165,-98,-1803,-1469,266,195
554,511,452,343,200,-336,-4350,-1405,720,755
329,196,160,67,-63,-579,-3625,-926,350,563
9,-22,9,13,27,-196,-661,-570,-439,-168
9,99,151,209,356,326,1201,-70,-456,-388
98,258,274,295,336,243,810,69,-152,-250
-9,102,114,100,64,193,612,374,-100,-118
-145,-171,-150,-132,-185,-99,745,752,71,85
-114,-214,-245,-229,-272,-293,481,544,148,86
-79,-188,-240,-275,-298,-139,334,44,146,32
-61,-124,-122,-119,-110,18,345,7,203,-30
-141,-62,42,144,188,237,246,296,59,-162
-155,-65,66,191,268,226,163,640,-291,-240
-34,-14,1,51,103,17,-269,308,-460,-297
31,2,-66,-91,-51,11,-137,-153,-387,-396
-56,37,-45,-88,-54,28,285,-428,-204,-463
-27,77,-12,-59,-112,-46,486,-490,319,-12
186,72,-34,-54,-136,-1,230,-275,566,638
134,135,54,62,23,180,-255,-64,4,331
-2,21,-19,19,60,97,-97,273,36,177
-138,-164,-35,74,183,-19,-177,172,416,281
-241,-191,43,224,314,19,-106,-65,199,-113
-67,34,129,178,190,17,337,-147,-240,-275
40,72,21,-66,-89,-45,782,359,-189,-156
42,-56,-111,-167,-137,136,1370,829,36,89
86,-18,-52,-83,-71,44,-148,421,45,189
-60,-44,-84,-137,-172,-86,-672,-62,-230,-129
9,101,82,0,-92,-137,-1117,-670,-224,-61
-46,23,78,93,140,47,-461,-640,167,276
-92,-72,-29,29,211,249,824,54,470,202
168,117,81,44,132,70,-22,184,359,32
192,251,211,134,100,10,-756,23,-138,-258
-34,-16,-17,-64,-144,-176,-580,-14,-612,-481
-27,-334,-330,-302,-358,-274,218,150,-402,-42
186,-143,-160,-154,-217,-87,295,-28,-61,177
275,223,181,89,-78,-9,-65,-69,36,-152
144,183,233,192,68,21,-1053,214,387,223
-306,-248,-83,22,42,50,-640,379,371,529
-315,-261,-176,-103,-63,-110,194,100,366,399
20,105,-6,-25,-12,-186,254,-658,222,78
86,288,118,117,125,-34,186,-769,105,-133
-40,240,125,168,172,131,301,-108,-28,-303
-79,87,51,88,81,217,585,242,-389,-256
-64,-180,-98,-40,21,187,447,80,-544,-168
22,-182,-36,7,48,-60,-122,-474,-436,-312
144,84,146,104,101,-62,-352,-471,-476,-458
65,157,148,91,148,92,-388,14,-625,-473
-275,-116,-50,-27,62,58,-45,350,-306,-134
-133,-362,-377,-336,-253,-75,848,625,566,781
241,-286,-447,-477,-402,-217,773,507,923,1129
217,14,-141,-196,-219,-208,131,165,851,394
29,249,216,220,151,105,-185,91,690,-72
-144,111,194,256,189,331,650,29,-259,-317
-292,-188,-134,-97,-141,165,887,282,-872,-530
-186,-134,-119,-97,-162,-92,-736,249,-516,-356
86,131,176,183,41,-359,-2146,-383,-256,-119
181,194,279,216,61,-427,-1503,-367,-131,-92
94,59,95,19,16,-141,-15,-98,-147,-145
163,34,-13,-53,58,227,1423,-203,95,166
152,113,75,34,124,189,737,-443,173,444
66,56,40,37,94,48,-139,-3,91,251
3,-68,-81,-59,-6,-91,-785,762,314,149
66,-18,-96,-153,-176,-74,-545,1013,674,68
50,103,48,-22,-117,23,50,342,223,-166
-144,40,123,168,112,178,-227,-316,-397,-158
-132,-29,58,143,140,249,-129,-874,-151,139
43,-49,-36,3,9,133,1251,-1234,142,448
-5,-40,-67,-71,-57,39,1486,-861,-261,-39
-59,0,-19,-23,-53,-55,-102,-346,-388,-230
31,50,76,121,152,-126,-1419,162,-6,116
-51,-74,-35,44,288,53,-1285,409,-108,-124
-110,-94,-62,-26,151,206,-263,478,-332,-401
3,29,53,11,-69,94,165,428,-383,-368
25,15,44,-15,-124,12,726,393,-296,-381
-126,-196,-183,-205,-255,-137,1669,445,269,-152
-146,-254,-301,-350,-400,-396,1510,253,657,261
-170,-139,-164,-186,-163,-157,363,-37,270,314
88,139,135,119,64,-126,-1273,-98,414,731
365,340,316,284,119,-114,-2141,-149,763,750
291,210,169,85,-93,-247,-1091,-118,-59,-168
37,125,50,-20,-109,-227,-74,-385,-721,-747
-161,69,11,4,48,163,461,-897,-628,-599
-95,-149,-169,-127,66,366,819,-199,64,154
-48,-208,-237,-184,-32,140,842,977,231,189
-175,-40,16,89,45,8,715,1240,-97,-357
-94,-32,38,120,44,-149,-53,699,12,-71
23,-62,-42,-5,-7,-148,-182,449,333,623
47,12,-1,-15,72,329,477,-394,408,530
9,23,39,52,161,406,72,-929,575,128
-24,50,114,179,293,170,-673,181,385,-59
37,111,110,125,205,-75,-1219,591,-321,-159
-56,-28,-49,-61,53,67,118,-303,-690,-322
-39,-90,-98,-93,-2,205,1067,-1515,-413,-318
135,27,64,19,-41,-96,-29,-1686,-350,-211
88,135,176,97,-87,-186,-841,-723,-512,-221
37,68,120,131,43,109,-582,316,-230,144
173,33,23,23,24,39,131,1032,177,344
152,24,-55,-117,-126,-157,227,1100,-22,-36
29,-59,-156,-194,-231,-243,282,694,156,-123
-43,-122,-227,-241,-265,-185,488,-109,524,47
81,210,79,25,-64,-74,759,-811,9,-296
-258,242,274,341,305,238,357,-739,-486,-778
-394,-140,-83,77,219,192,-745,108,42,-24
11,-238,-237,-148,-3,-210,-1490,657,461,995
91,-148,-104,-85,-7,-175,-817,351,292,823
-14,-138,-76,-61,31,276,790,423,429,428
-104,-52,23,50,112,197,839,380,54,-137
-100,1,83,88,63,93,72,-192,-498,-367
31,33,51,-17,-111,-124,-103,-475,-242,-86
141,58,42,-16,-130,-227,506,25,394,117
105,44,55,10,-69,-114,194,210,243,-141
-87,-80,-34,-1,-19,2,64,33,-157,-483
-158,-121,-76,-4,-41,-57,-288,-11,-256,-466
-167,12,35,69,112,31,-349,334,-449,-466
-94,-71,-55,-22,91,-80,-160,784,-199,27
62,-164,-200,-195,-160,-150,104,574,407,617
311,84,-102,-175,-222,54,-102,-528,479,648
411,388,108,-36,-168,229,-192,-854,163,476
241,510,319,212,70,206,-493,-559,-262,96
-2,194,231,212,155,108,-110,-359,-35,41
-135,-161,49,44,2,41,281,-218,83,-75
-138,-173,23,11,-64,7,433,-95,-157,-245
-10,-28,21,-14,-72,67,641,-90,-33,-130
8,10,7,21,93,-3,261,145,-97,-123
-78,-88,-85,-25,232,-1,174,575,-372,-244
-62,-107,-98,-76,138,-118,-144,288,-541,-347
-16,61,43,32,28,-137,-202,24,-319,-423
-61,3,-30,-42,-106,-107,-273,38,146,-125
-186,-273,-317,-288,-298,-165,-349,-37,393,282
-105,-204,-248,-217,-255,-174,-339,5,12,84
-20,-11,15,35,-48,-97,-99,131,-269,-244
-77,-9,27,34,-41,-11,862,-102,40,-102
138,115,113,120,64,184,934,-291,763,621
302,209,213,190,173,298,-87,-455,584,748
337,304,303,259,214,123,-608,-505,268,495
353,278,275,259,254,-89,-1071,-318,131,173
-123,10,37,43,105,-121,-131,171,-604,-759
-385,-121,-103,-97,-34,-16,289,407,-669,-814
-281,-313,-329,-281,-164,162,240,491,117,99
-168,-299,-330,-303,-282,-9,336,350,499,257
20,-69,-113,-125,-167,81,185,360,202,31
187,84,39,-35,-127,-93,-226,233,-362,46
152,93,112,34,-82,-399,-530,-402,-574,2
14,101,205,234,216,-203,-558,-603,-663,-257
-282,-100,18,122,256,84,99,0,-326,-439
-396,-296,-273,-138,70,326,1911,836,997,82
-75,-89,-165,-101,27,444,2586,868,1716,510
232,192,60,-10,-17,533,1279,349,583,160
403,309,217,53,-121,-26,-2329,-399,-503,200
192,101,127,41,-118,-670,-3562,-1011,-589,244
175,120,171,176,113,-434,-1720,-886,-333,110
186,177,149,129,119,-145,-234,-313,-217,-30
-63,34,44,33,42,3,737,46,-254,-249
-212,-96,-14,23,61,164,659,-3,-201,-241
-54,-190,-201,-201,-131,46,394,262,122,213
185,-98,-215,-255,-184,133,396,382,186,192
79,57,32,24,98,61,311,243,-144,-355
-320,67,191,264,306,-100,142,-185,-636,-948
-459,-235,-94,67,104,2,222,-288,-173,-269
-300,-390,-334,-234,-257,93,512,-122,573,796
55,-67,-126,-139,-256,119,198,125,478,567
195,138,91,108,70,243,-231,154,-8,85
97,129,176,271,435,156,-207,106,-252,-211
-46,22,93,202,540,54,689,227,-88,-319
-199,-164,-113,-36,172,-48,657,108,49,-272
-100,-133,-143,-131,-159,-192,-398,217,-37,-61
18,-7,-55,-109,-258,-99,-999,541,-290,-121
-114,5,-20,-110,-309,306,1350,445,-399,-292
131,176,159,83,-138,205,1056,99,143,242
354,237,159,57,-154,-424,-1173,-258,560,530
462,325,254,133,-41,-538,-2324,-726,730,573
255,194,196,120,38,-435,-2116,-1327,286,232
134,26,0,-40,-23,-25,-106,-801,-40,120
269,111,16,-45,-34,358,858,-180,-293,-114
-39,164,200,147,102,480,797,12,-852,-995
-380,-83,-8,-42,-70,255,606,611,-428,-845
-307,-508,-506,-462,-382,-200,509,1218,758,655
-190,-460,-417,-303,-144,-240,412,601,818,1049
0,-94,-109,-61,41,-68,335,119,136,306
-85,-68,-24,47,110,127,600,546,-76,-134
-138,-29,68,176,232,138,425,157,-41,-272
1,81,108,107,135,-30,71,-291,-240,-255
5,82,32,-24,-8,-48,-170,-341,-542,-315
-7,102,50,13,63,13,-671,-914,-656,-466
90,100,112,91,143,46,-610,-885,-330,-250
-23,-49,3,13,35,-4,159,58,164,-22
-202,-163,-137,-87,0,85,1088,620,332,-49
102,119,58,61,60,-7,32,268,-64,38
576,529,352,247,45,-246,-1898,-463,84,423
354,347,182,87,-86,-143,-1224,16,658,473
-347,-267,-231,-219,-268,-21,774,792,466,16
-385,-463,-331,-240,-159,120,746,818,320,213
-223,-226,-118,18,160,215,-19,249,146,244
-99,84,135,275,431,133,155,436,223,34
141,293,281,293,343,38,744,211,264,100
-22,61,139,124,77,41,884,-889,-322,-186
-155,-136,-37,-68,-169,-63,399,-1567,-554,-367
93,85,98,7,-151,-155,-1101,-1515,-404,-88
299,320,268,162,-47,-184,-1984,-706,-88,204
218,169,94,6,-144,-218,-1050,221,3,161
63,-48,-93,-138,-179,32,256,473,-148,-100
-81,-138,-146,-146,-117,190,1170,439,-371,-508
26,-124,-171,-106,13,242,1061,517,-275,-451
186,-21,-124,-64,22,318,228,402,21,-20
223,63,-54,-81,-93,-115,-616,251,527,555
122,-38,-91,-173,-176,-535,-705,333,826,868
-76,-60,-43,-105,-110,-379,72,372,322,280
-199,-30,59,89,67,45,334,60,-267,-366
-202,6,127,205,205,108,196,-197,-348,-426
-190,-69,39,124,262,187,167,-189,-348,-368
-102,-127,-100,-65,104,196,240,-152,-339,-218
6,-64,-77,-112,-88,204,288,52,-209,-203
39,-45,-58,-89,-154,118,152,312,-17,-132
-56,-95,-70,-72,-127,-58,42,312,76,32
-184,-134,-91,-82,-64,-93,94,250,186,189
-186,-247,-222,-181,-144,-50,351,429,178,320
-89,-125,-151,-156,-196,-54,760,757,-142,-23
187,95,21,15,-74,-83,59,588,-79,-66
187,228,178,167,53,-173,-807,-391,-157,-172
203,274,195,194,191,49,-381,-907,63,-28
83,183,127,151,361,181,-23,-1072,373,327
90,104,56,61,150,-18,-238,-1093,135,456
90,34,51,28,-85,2,-827,-524,-69,280
-12,-80,-29,-29,-141,-97,-751,575,164,87
-236,-224,-152,-112,-163,-219,399,891,-29,-232
-245,-295,-263,-218,-230,-126,1475,203,-127,-206
55,14,-21,-51,-96,-118,602,-253,100,-38
258,390,441,414,351,213,-703,-941,-341,-232
298,507,590,555,481,247,-1886,-1088,-851,-441
32,185,201,84,62,-132,-1180,100,-383,-412
-141,-179,-199,-263,-237,-105,161,796,819,374
-96,-299,-383,-395,-389,-44,604,703,914,771
-67,-264,-318,-276,-228,-36,574,403,369,603
-11,-43,-66,-6,46,229,456,94,-17,181
8,81,94,149,156,83,200,0,-502,-320
-155,-1,78,186,215,-30,92,5,-613,-589
-178,-50,47,143,128,-28,59,-83,-364,-477
-90,-39,3,14,25,62,108,115,64,-203
-70,-87,-104,-103,76,421,345,225,310,44
-69,-121,-144,-129,148,519,610,249,95,118
-90,-134,-121,-117,80,224,1160,170,-58,43
-2,-33,14,-19,13,4,885,-458,-244,-148
231,136,118,41,-72,-227,-578,-763,-220,-34
333,154,127,27,-146,-479,-1431,-320,26,328
201,120,119,30,-120,-382,-1630,-89,121,337
-75,-17,-9,-74,-213,-230,-840,243,204,94
-117,-88,-139,-184,-284,-169,-31,1013,313,-76
-9,57,-83,-74,-106,-38,529,724,64,-138
35,170,3,45,66,51,749,-13,-107,-155
-71,77,2,38,85,66,684,-293,-66,-165
-271,-186,-94,-20,100,250,967,-566,27,-52
-222,-225,-64,27,176,286,325,-359,58,-14
13,-25,88,115,149,-5,-753,251,-66,-29
129,163,192,147,68,-139,-998,189,-74,41
147,111,101,42,-2,53,-342,-311,136,343
171,30,-21,-67,-77,97,455,-565,296,489
153,9,-68,-79,-109,-213,170,-24,153,107
-30,-33,-61,-49,-91,-388,-512,751,-420,-624
-122,-30,6,12,-16,-74,743,635,-656,-907
-136,100,123,85,42,137,1127,242,-355,-740
-97,-16,-56,-118,-116,-17,49,344,475,316
140,-253,-316,-288,-224,-216,-1220,26,1351,1810
234,40,12,52,42,-139,-1709,-881,576,937
-17,192,265,339,361,442,32,-1037,-610,-409
-83,139,247,308,356,750,817,-723,-609,-433
-48,12,65,97,105,281,188,-286,241,-35
-66,-26,-23,-4,-12,-235,-337,-62,534,25
-96,-41,-34,-20,67,-293,-161,-123,-82,-147
-81,-44,-32,-24,134,-92,105,11,-400,-254
-100,-57,-41,-36,88,39,331,329,-410,-324
-102,-48,-39,-8,87,103,373,455,-351,-248
-59,-8,-17,3,16,-15,391,389,-129,-103
-50,-12,-20,0,-4,-43,622,284,74,-37
116,66,35,-32,-182,-217,148,196,497,206
444,133,31,-98,-344,-286,-492,43,674,458
369,115,90,49,-95,-97,-804,-92,3,230
74,15,42,22,-58,17,-262,59,-594,-174
-35,-103,-112,-160,-207,200,521,296,-386,-218
-102,-113,-114,-138,-76,363,631,126,-230,-352
-134,-26,32,60,292,228,204,-231,-198,-575
-152,55,100,96,204,-21,-395,-273,117,-331
-115,-126,-155,-147,-160,-84,-533,84,960,659
-9,-219,-244,-199,-260,124,-179,396,864,1023
1,-118,-152,-152,-305,135,590,472,-102,369
19,-49,-123,-169,-333,-183,1150,179,-513,-240
-70,-30,-39,-31,-133,-202,527,414,-303,-456
-142,-5,74,127,71,-208,-123,488,66,-282
81,140,174,177,81,-321,-1048,315,280,100
302,292,296,252,120,-288,-1536,-433,-95,75
220,222,256,260,245,68,-898,-1459,-30,209
-47,-27,33,87,264,490,639,-1527,175,389
-221,-271,-254,-201,-10,480,2012,-504,-94,178
-146,-185,-185,-136,-54,355,1294,343,-469,-188
27,30,27,63,64,-137,-312,514,-500,-432
186,200,153,122,109,-738,-1909,211,-278,-335
7,117,27,-37,3,-488,-1735,-324,-272,-286
-191,72,-38,-99,-119,-8,-109,-266,-111,-169
-65,17,-71,-67,-111,97,369,265,689,475
214,-21,-57,-73,-77,357,341,538,931,820
381,75,44,-55,-99,251,-8,455,386,493
51,-41,73,117,220,-38,157,212,-201,-92
-307,-170,55,231,371,96,844,-10,-505,-541
-389,-225,-68,90,161,119,1202,169,-449,-538
-370,-136,-63,51,140,128,629,432,-271,-353
-145,140,74,56,101,2,-494,6,-126,-164
39,202,58,-93,-141,-86,-390,-331,-50,0
200,117,24,-145,-301,-125,-22,-585,26,162
107,-3,19,-70,-210,-139,307,-490,-5,14
-46,-38,15,0,-53,-137,-203,218,-15,-61
52,115,130,134,170,-230,-1598,244,67,107
254,131,92,64,167,-256,-1423,-96,131,170
235,-111,-215,-246,-123,-63,113,156,285,340
139,-179,-289,-294,-216,337,373,108,128,189
196,62,-11,-12,-25,386,59,-192,-171,-30
154,82,68,52,-14,20,-101,0,-408,-276
37,31,37,10,-84,-197,134,-197,-577,-415
-202,-40,20,34,-48,-197,184,-411,-452,-320
-362,-223,-79,47,106,129,488,-75,155,99
-179,-194,-96,10,145,356,944,280,957,486
120,47,38,80,167,303,618,256,919,378
86,67,-8,12,81,51,433,143,193,89
-132,7,-43,-25,-2,-159,531,49,-326,-77
-166,-78,-77,-43,16,-279,-152,39,-193,-102
68,-69,-39,-89,-68,-345,-513,387,250,81
206,125,161,37,-91,-116,-1336,97,-13,12
-18,58,73,22,-80,272,-707,-203,-461,-308
-126,2,-6,17,-47,88,59,-95,-282,-184
40,133,71,83,-59,-137,-79,-191,-59,66
140,104,65,46,-118,-12,180,106,-50,-8
9,0,33,67,-15,-47,264,864,-97,-184
-128,-93,-73,-29,149,-241,54,491,-37,-173
-245,-212,-215,-153,241,-27,501,17,4,-106
-252,-154,-125,-59,104,175,224,-547,53,-64
-90,-60,-18,-12,-141,268,655,-975,148,171
152,92,125,97,-78,330,784,-459,-89,318
198,172,170,111,-13,48,228,14,-293,98
266,171,127,65,47,-123,-427,-179,288,230
186,185,155,100,129,-38,-1089,-632,503,33
8,-47,-106,-200,-164,-91,-404,432,396,96
56,-30,-108,-209,-231,2,-125,1352,264,247
166,190,153,73,-13,263,-383,389,-153,11
46,92,122,134,126,143,-335,-321,-392,-119
-112,-96,-84,-45,130,-249,-312,4,-39,-7
-104,-124,-132,-126,-49,-327,-53,-754,220,-38
8,74,126,186,111,51,35,-1321,-117,-131
-74,-12,30,111,31,73,292,-65,-231,-32
-154,-156,-138,-85,-158,-36,501,699,41,-2
-155,-116,-76,-9,-98,0,219,490,187,-35
-41,-5,6,39,-70,-144,-71,279,174,46
104,65,13,7,-46,-100,-72,80,-91,-110
91,120,72,62,70,101,-72,-277,-343,-325
-38,39,28,16,60,233,730,-204,-257,-443
-141,-133,-123,-90,-10,162,1089,430,181,-150
-158,-224,-191,-132,-68,-2,277,1106,579,643
-53,-180,-158,-141,-89,-223,-672,1106,449,728
-17,-121,-107,-60,104,37,-284,303,152,222
-37,-67,-51,0,220,383,739,-510,-50,-231
-91,39,27,85,-52,-86,210,286,-517,-518
-111,-55,-74,-15,-40,-126,249,243,-4,-296
-95,-70,-84,-29,111,-59,183,112,748,177
-25,-29,-45,-14,256,55,549,110,773,509
40,77,46,45,199,241,655,8,19,186
-29,103,102,88,39,318,349,-48,-391,-192
108,157,86,16,-184,-4,-302,-5,-111,43
184,75,-21,-113,-353,-317,-1150,141,452,170
79,-61,-101,-203,-449,-459,-954,173,603,152
194,9,-31,-142,-329,-401,-408,161,163,198
-4,-10,85,147,196,251,39,-239,-431,-30
-74,19,111,182,244,333,199,-712,-570,-237
-86,0,-4,-44,-62,102,640,-510,-516,-399
-225,-117,-113,-165,-126,221,1354,56,-521,-572
-129,-133,-121,-107,-26,119,436,398,-335,-263
59,-59,-18,10,76,-74,-891,475,18,335
160,44,88,108,102,-110,-1401,-89,166,419
112,53,82,88,117,43,-345,-557,244,171
53,26,68,88,208,51,-21,-255,524,112
-50,-23,45,67,185,-141,162,-38,386,-77
96,143,157,96,20,-280,-178,-445,-92,46
82,138,115,32,-146,-327,-303,-406,-559,-60
-80,69,51,13,-133,-73,59,-86,-535,-403
-136,210,152,139,91,88,-62,-489,-444,-525
1,288,112,104,204,5,-162,-566,-155,-169
-38,66,-27,-15,177,70,17,-3,256,250
-207,-251,-86,-43,183,425,-28,150,235,117
-269,-413,-149,-55,233,270,-417,109,92,71
89,-343,-218,-94,131,57,155,281,413,653
702,46,-83,-101,-92,-198,268,210,305,604
635,242,73,36,-3,-129,45,65,-112,28
56,134,105,143,28,87,-94,-70,-333,-315
-303,93,57,86,-195,21,23,-133,-331,-357
-245,87,33,9,-342,-25,570,5,-255,-317
-131,50,49,31,-256,165,798,259,-179,-281
-20,15,39,1,-168,115,-2,353,-115,-169
74,15,58,4,-60,-184,-772,210,-130,-151
23,-4,72,17,-11,-273,-1046,-122,-312,-363
-88,-148,-121,-188,-170,-147,-240,-146,-280,-257
42,-95,-158,-250,-254,-120,253,217,171,316
174,32,-74,-155,-206,-158,263,145,482,647
113,72,40,-18,-67,-56,1022,-195,266,292
-180,-67,-2,5,53,38,612,99,-127,-187
-243,-337,-298,-191,-65,-47,-296,385,139,281
81,-45,-95,-53,4,-104,-1059,-144,280,466
313,316,247,187,193,-65,-1545,-826,217,179
22,111,155,198,277,228,-85,-892,452,78
-81,32,114,197,292,317,889,-431,-81,-74
-143,-64,-10,32,102,156,620,-33,-793,-329
-149,-90,-43,-21,45,37,91,284,-552,-305
-62,-2,32,41,72,6,-461,106,-169,-140
52,91,117,109,95,-235,-606,-292,157,-10
163,166,176,165,105,-615,-388,-200,680,195
185,133,143,142,103,-365,-87,160,248,175
35,31,47,50,29,107,62,170,-414,-172
-82,-80,-90,-110,-91,362,296,116,-446,-343
-110,-131,-166,-184,-95,393,359,87,-283,-272
-134,-167,-191,-195,-106,150,286,230,-128,-102
-40,-92,-188,-243,-239,-140,116,475,149,139
31,-59,-102,-110,-154,32,309,524,286,275
-158,-46,94,219,218,322,105,190,-63,-140
-159,-48,105,207,273,177,-20,-117,-57,-32
115,29,61,43,79,-164,-24,-549,191,390
202,56,10,-31,-79,-363,176,-539,40,270
119,110,82,20,-76,-196,-39,-377,-431,-191
-27,56,83,38,-34,89,-246,23,-493,-354
-39,8,20,8,-62,175,-570,291,-118,-184
-74,-55,-83,-130,-179,67,-75,379,246,-24
-53,-27,-67,-111,-88,-8,744,645,482,162
-6,10,-43,-27,82,56,544,471,736,372
58,41,-43,-46,67,-47,-290,236,556,197
145,105,17,-46,-52,-282,-796,-77,-72,8
181,130,106,55,-64,-250,-750,-742,-396,34
96,57,95,114,9,-15,-204,-430,-276,-22
-50,-13,20,58,-10,4,96,38,-265,-202
-42,-15,14,34,26,38,121,-322,-208,-113
123,20,14,-10,-12,41,136,-335,-46,28
135,44,1,-68,-87,16,198,-270,-283,-281
-46,26,-2,-63,-88,0,-4,-620,-570,-593
-263,-62,-36,-30,-3,124,-8,-319,-215,-337
-300,-265,-131,18,159,250,278,442,359,347
-182,-270,-190,-22,108,239,1050,654,209,289
-165,-257,-255,-159,-72,229,2145,596,110,-17
-146,-125,-154,-127,-120,16,746,371,162,-35
76,163,166,176,116,-130,-1393,132,450,402
321,308,331,333,245,-338,-2696,-120,588,498
296,188,155,107,-4,-512,-1441,-297,270,244
105,101,77,9,16,-168,342,-172,-100,16
-137,51,116,134,226,204,583,-232,-329,-389
-158,-81,-18,57,120,181,119,-321,-326,-348
-147,-147,-146,-114,-104,196,215,59,-296,-311
-157,-117,-156,-204,-193,201,627,489,-131,-237
11,-100,-98,-126,-101,176,812,481,224,326
243,143,170,124,46,87,459,273,156,363
302,284,302,194,13,-209,-765,-34,-102,154
174,160,146,53,-80,-410,-1415,-471,-439,-90
1,0,-28,-62,-98,-184,-683,-667,-578,-227
-164,-107,-97,-78,-62,74,193,-233,-68,-191
-247,-178,-155,-89,-67,95,394,161,802,-52
-27,8,-89,-42,-41,80,335,113,1202,269
143,243,13,-1,0,223,232,108,615,440
69,155,8,-7,69,163,305,388,89,265
-32,-187,-104,-102,21,39,381,454,-44,185
-67,-249,-145,-192,-121,-120,49,445,-275,-48
-60,-108,-46,-48,31,-128,-284,528,-346,-231
-20,7,58,97,258,-150,-234,-214,-211,-192
-38,96,128,170,351,-23,-14,-951,-205,-201
-144,4,55,159,215,143,154,-982,-270,-253
-71,-20,36,105,77,102,135,-725,-187,-104
24,29,68,57,44,128,423,-247,-139,-21
-3,75,75,56,-6,-1,147,154,-80,-61
-13,165,101,94,-62,-161,-220,463,51,-59
-18,165,70,68,-106,-211,-553,394,119,-48
-115,-79,-180,-224,-377,-118,-183,770,46,-92
-94,-155,-170,-258,-372,293,1052,1174,-45,-139
46,-81,-87,-199,-214,134,904,528,-28,-86
139,-87,-180,-279,-264,-315,-18,-83,193,196
349,38,-80,-155,-204,-482,-1557,-740,489,698
386,173,70,52,88,124,-1020,-1186,286,364
115,61,51,147,273,684,962,-558,-62,-70
-80,30,94,153,154,379,881,3,-209,-92
84,123,194,180,47,44,-55,203,-43,18
119,232,305,316,250,-80,-1233,-171,-114,-75
-32,59,134,155,187,-294,-1079,-145,-94,-125
-170,-166,-134,-138,-84,-382,593,255,5,-187
-117,-123,-135,-168,-117,-186,558,166,121,-127
-64,-54,-91,-121,-95,75,213,174,142,-67
-2,-1,-24,6,36,188,-120,-33,-86,112
-157,-159,-100,1,91,80,-112,-270,-373,-89
-216,-162,-90,1,107,35,108,23,-406,-541
-40,3,23,50,183,257,147,117,-92,-453
198,162,90,19,138,18,-27,24,381,211
155,87,-4,-56,-128,-374,-122,206,630,905
-37,-231,-288,-275,-457,-250,-17,586,786,1029
19,-69,-104,-80,-278,-84,234,174,234,182
-50,134,239,383,319,215,115,-192,-319,-256
-102,104,266,396,429,280,149,58,-510,-236
-109,-36,53,93,157,249,1336,357,-401,-271
-95,-45,20,43,101,347,1114,-82,-265,-348
60,80,109,87,63,162,-643,-590,-205,-272
256,209,168,74,0,-258,-2428,-923,0,-34
159,70,-10,-126,-210,-369,-1634,-735,165,53
-56,-120,-170,-225,-267,-258,-162,-58,34,-12
-125,-142,-146,-114,-56,-142,104,271,12,-24
-88,-32,-32,4,201,-49,295,349,135,-89
-92,-43,-32,-45,88,56,589,607,132,-64
-98,-144,-138,-168,-66,15,511,634,276,349
4,-106,-82,-108,-55,21,160,316,219,372
126,28,30,33,-49,113,89,51,-119,42
113,71,25,31,-152,-100,201,-50,-110,-48
0,29,-70,-95,-228,-166,336,145,176,-98
-97,6,-77,-80,-67,102,388,401,85,-141
-65,129,36,29,115,300,224,-19,-490,-274
-50,81,17,36,94,207,82,-245,-711,-319
-59,-136,-14,78,142,9,99,-409,-618,-311
31,-29,199,267,527,-77,-262,-842,-246,-179
55,123,239,209,394,-205,-323,-773,306,69
-34,-26,15,10,-87,-90,30,52,1087,648
19,-146,-86,-16,-237,347,183,401,908,902
197,-52,-105,-115,-298,385,178,220,-32,433
222,85,-26,-121,-307,-156,-356,432,-494,-134
-25,74,23,-37,-177,-426,-245,1027,-213,-378
-40,22,-30,-129,-198,-474,166,915,196,-169
-47,-5,-26,-109,-134,-158,40,269,230,-18
-79,-23,27,-11,43,155,-331,-788,15,-166
-1,6,44,50,189,344,-554,-1672,-308,-135
34,11,29,71,197,420,-62,-1039,-352,-38
13,-5,0,22,11,195,372,315,-52,14
1,13,-1,-31,-98,-203,-67,666,145,-2
16,56,42,48,28,-242,-215,178,170,71
39,82,38,62,115,-65,107,-116,115,266
-93,-26,-133,-114,9,20,441,55,-53,120
-200,-140,-213,-128,6,134,1134,101,-343,-376
37,21,-5,71,99,233,1083,-81,-633,-671
172,260,258,202,130,42,-353,-205,-822,-804
177,278,297,164,42,-323,-1841,-250,-475,-553
-112,-231,-167,-190,-235,-363,-1519,224,543,347
-362,-688,-642,-574,-587,-392,279,704,1150,1135
-230,-568,-633,-585,-614,-414,640,807,780,1161
35,-107,-191,-158,-143,160,1034,502,233,600
10,259,350,421,499,582,1250,-61,-162,-290
48,406,615,689,744,582,229,-346,-143,-511
331,473,546,522,503,238,-1031,-842,-38,-158
322,297,261,182,128,-254,-1929,-1736,-341,57
108,63,12,-47,-148,-522,-1423,-1339,-440,67
-69,-110,-137,-157,-220,-286,-210,69,-93,119
-177,-184,-230,-183,-145,161,904,866,336,12
-201,-189,-239,-173,-79,305,1401,907,155,-281
-113,-157,-146,-103,-48,241,1506,551,-254,-294
13,-90,-7,-1,-5,119,612,226,-168,-101
82,53,137,110,20,-146,-817,-56,30,-87
97,91,145,98,49,-497,-1897,-242,208,-40
-44,-115,-69,-30,171,-330,-1270,18,434,149
-112,-197,-162,-80,166,75,213,398,34,160
46,-44,-49,-35,-83,122,701,209,-324,-27
125,111,56,30,-185,139,728,-25,-286,-156
30,185,60,50,-77,155,513,189,-221,-199
-90,249,-12,-57,-140,-229,391,249,-208,-155
-178,162,-76,-85,-107,-209,677,125,-35,56
-33,2,-18,32,95,-24,116,30,189,351
104,-45,127,167,292,163,-621,-331,286,264
135,37,183,182,274,320,-1238,-463,304,69
36,-54,-10,-57,50,110,-601,52,151,-59
-57,-151,-153,-183,-35,24,364,162,-24,-115
-103,-85,-71,-48,-39,254,695,36,-254,-209
-91,-61,-21,-48,-198,-56,436,67,-228,-173
-62,-50,-5,-40,-144,-176,-248,-135,-5,2
-57,-84,-16,-16,-3,-10,-383,-386,92,99
-102,-140,-93,-54,65,159,393,-153,-123,-64
-114,-88,-81,-62,41,-55,303,-155,-464,-389
-32,2,-13,-57,-145,-341,-374,-529,-484,-373
82,156,85,16,-67,-83,-530,143,-81,17
55,142,60,37,54,46,229,889,329,259
32,42,-28,-23,44,109,469,804,749,492
108,8,-73,-99,-123,153,275,171,940,715
236,-26,-74,-172,-298,74,-269,228,396,485
190,-50,-45,-54,-165,-67,-288,215,-396,-1
-72,-24,78,169,124,4,-306,-435,-735,-483
-68,46,127,164,180,161,5,-848,-543,-449
152,190,192,177,156,179,466,-1141,-151,-220
177,207,220,198,88,35,234,-771,262,-69
188,173,152,81,-91,-484,-475,187,317,154
96,89,-7,-59,-100,-536,-302,677,-112,107
-66,127,17,-23,3,-287,84,542,-146,-267
-168,30,22,-12,38,-21,118,211,177,-81
-189,-370,-242,-175,-21,343,291,121,374,543
-105,-337,-231,-133,-4,413,174,73,303,513
127,-16,-46,-43,1,175,-33,-121,-80,-32
24,-11,-41,-53,44,-26,338,-3,-294,-293
-245,-118,-28,39,188,-32,295,115,-376,-377
-204,-103,-16,85,101,32,66,95,-154,-121
-26,-5,10,103,25,124,-45,-35,61,66
49,58,49,151,198,134,-531,-102,-31,-45
84,55,28,43,178,-27,-561,32,-185,-234
91,152,93,40,33,-142,-429,-66,-274,-336
-47,66,33,-28,-171,-139,-106,-166,-158,-251
-166,-202,-199,-239,-372,-159,811,232,561,341
-71,-211,-196,-226,-313,14,1125,347,931,596
-31,-133,-95,-101,-98,331,1327,312,429,255
62,64,89,81,98,364,702,526,-120,19
132,238,249,214,184,167,-677,310,-442,-246
141,180,150,118,65,-143,-1707,-502,-506,-159
-24,-114,-226,-243,-284,-621,-1051,-564,-215,47
-171,-201,-279,-302,-312,-577,94,-244,-39,-35
-199,-19,93,130,120,-81,223,-228,-52,-323
84,151,236,265,248,45,-75,405,191,86
372,249,221,220,307,-8,-808,573,545,693
382,303,244,212,268,69,-1164,-375,433,446
85,112,129,115,126,261,-272,-1052,38,-45
-137,-99,-70,-70,-47,397,503,-628,-310,-322
-143,-154,-165,-194,-176,272,536,269,-389,-300
-137,-107,-126,-142,-65,78,448,402,-367,-231
-94,-75,-82,-45,66,151,381,138,-366,-194
-1,-63,-58,2,9,168,288,-185,-106,-46
112,34,21,24,-127,-109,206,-309,204,185
134,80,60,12,-212,-322,67,292,192,164
6,21,12,-20,-208,-304,-122,614,42,-99
-131,-6,17,-1,-79,-134,43,382,-124,-403
-101,-52,-11,-14,55,0,160,161,-123,-260
-43,-48,-48,-78,61,-95,-69,-236,-36,-9
-31,-76,-106,-120,170,-72,-131,-245,416,432
-58,-180,-165,-63,355,159,207,315,840,691
-17,-95,-100,-31,64,191,809,149,359,367
-18,22,48,109,-55,250,813,-429,-313,-113
-108,74,186,285,144,205,-234,-660,-516,-402
-35,129,206,260,146,-86,-1291,-584,-442,-351
63,77,76,50,-112,-297,-1182,-396,-90,-109
57,-24,-64,-142,-337,-173,144,40,180,26
4,-54,-90,-173,-294,153,661,365,23,-22
-20,-12,-44,-83,-141,381,279,346,-144,-54
-26,-18,-5,-23,-74,201,-351,464,8,-20
64,98,93,34,17,-73,-73,411,65,-112
136,209,147,56,108,-344,154,7,42,-111
49,48,-31,-78,23,-530,85,-161,350,181
38,-47,-106,-74,53,-274,-150,-208,364,422
59,-30,-78,-48,6,-11,-36,17,-207,175
121,-23,-25,-39,-42,117,373,262,-571,-180
21,-64,50,64,47,237,331,170,-477,-301
-242,-138,-8,45,32,204,181,306,-245,-298
-300,-216,-189,-109,-89,31,48,376,561,164
-143,-111,-205,-193,-185,-126,525,31,1219,419
70,127,-33,-60,-78,103,1454,-114,788,332
138,208,148,151,182,424,407,-194,32,200
147,183,233,244,283,-10,-1539,-152,-413,76
104,171,235,242,186,-331,-2255,-113,-400,-112
28,117,130,144,97,-167,-1556,-33,-138,-120
-79,-85,-39,1,123,71,9,168,-86,-167
-21,-131,-90,-44,109,-2,739,217,-234,-211
-32,18,41,41,-14,-162,586,-238,-432,-335
-163,40,61,27,-182,-155,391,-334,-250,-231
-94,-72,-95,-119,-329,-85,233,43,279,215
87,-20,-59,-48,-163,-23,138,-124,592,365
161,155,128,149,123,190,184,-674,341,130
137,240,121,116,139,179,97,-517,-178,-167
93,183,-6,2,289,60,51,-252,-364,-120
31,32,-110,-34,523,233,-157,-113,-163,41
36,-156,-162,-101,398,328,-419,266,13,67
26,-233,-112,-119,39,254,-426,397,22,24
-80,-175,-78,-122,-276,240,534,324,-60,-127
-55,-136,-83,-106,-360,185,987,363,11,-166
8,-97,-75,-126,-375,-180,324,50,106,-40
66,12,-7,-113,-388,-473,-325,-67,146,129
53,82,99,36,-234,-357,-495,54,119,50
4,96,194,195,-25,-196,-566,35,-82,-113
3,111,183,183,41,-108,-215,5,-426,-233
4,20,36,28,-30,-116,259,-261,-331,-126
-85,-123,-127,-109,-15,52,748,-205,-116,-51
-115,-57,-94,-107,9,82,521,-73,-116,-211
124,62,-129,-287,-240,-128,-49,180,368,127
73,-22,-160,-272,-243,-150,-289,490,792,731
-161,-218,-139,-47,49,50,-637,696,613,800
-204,-257,-119,49,187,356,-104,550,183,301
-83,19,67,174,257,454,121,66,-303,-372
-86,90,123,216,296,214,-138,-292,-377,-495
-117,33,50,112,256,-137,207,-522,-291,-330
15,88,80,86,103,-254,262,-488,-224,-93
72,127,106,122,83,-125,216,-472,-230,-18
129,154,139,128,99,-81,-80,-617,-142,17
78,38,47,18,-85,-66,-51,-257,109,28
-15,-84,-75,-112,-242,-40,-69,290,265,-6
29,26,30,3,-31,-38,-389,373,-168,-40
107,127,126,104,73,-80,-938,162,-458,-62
68,28,37,5,3,-56,-618,238,-264,-176
12,-100,-61,-52,27,63,244,237,-194,-162
-23,-160,-116,-115,84,123,879,60,-197,-188
-64,-106,-62,-63,176,123,1353,-54,-121,46
-112,-112,-73,-48,-21,86,632,-94,388,561
-94,-170,-162,-154,-290,42,-51,78,823,441
15,-35,-62,-108,-338,-189,-590,237,462,17
137,120,61,-36,-289,-278,-778,405,79,-126
25,54,20,-48,-213,-298,-373,712,41,-38
-47,7,34,43,43,-197,-271,340,156,290
35,127,178,229,296,76,-397,-539,136,328
-12,112,145,171,158,193,134,-1045,-33,-39
-121,-18,-30,-1,12,188,1018,-1337,-107,-190
-57,-1,-28,19,133,94,322,-704,-137,-109
-64,-17,-6,40,222,184,-529,384,-348,-217
-40,9,28,8,68,127,-842,875,-409,-266
21,-25,-2,-70,-140,-75,-505,580,-417,-205
-57,-240,-183,-201,-192,-15,333,344,-522,-278
-66,-248,-244,-276,-266,-15,687,103,-287,-218
7,-102,-137,-166,-170,224,295,-330,137,58
275,84,31,41,41,297,85,-313,607,508
428,234,209,214,185,19,151,74,896,586
277,242,240,207,128,-419,-156,253,421,202
1,169,148,138,68,-501,-355,-70,-443,-171
-189,155,51,69,108,-156,-297,-176,-427,-254
-138,164,-8,-7,129,149,-118,-191,-211,-154
-27,82,39,38,108,236,88,-320,-101,15
-1,-106,64,74,68,137,61,-55,124,85
-34,-187,-7,-11,-32,-9,83,451,381,-5
-41,-107,-97,-107,-91,-76,394,480,189,-121
-172,-152,-190,-175,-75,21,1146,340,-356,-360
-294,-186,-217,-182,-99,79,628,325,-402,-361
-175,-84,-153,-133,-134,-112,-744,-86,-174,-57
-41,-64,-61,-40,-50,-110,-955,-163,-18,89
-17,-123,-39,-24,-8,55,281,235,327,194
272,91,119,81,29,116,865,237,370,409
580,426,382,290,174,90,151,-177,-141,298
470,442,412,338,206,-71,-1182,-531,-589,-133
37,120,155,127,33,-183,-1440,-744,-809,-521
-233,-140,-72,-60,-76,-189,-670,-524,-352,-363
-339,-264,-234,-170,-34,-51,41,-398,315,19
-368,-343,-355,-226,-22,43,505,71,1383,877
-125,-131,-204,-115,94,-14,717,455,1575,1141
37,53,23,68,106,92,812,66,370,334
19,18,74,82,-5,235,392,-97,-649,-412
-7,-21,38,28,-60,181,2,349,-652,-505
72,37,23,-21,-122,21,-34,803,-264,-216
83,87,93,83,3,77,-130,591,-185,-199
37,115,143,133,34,-14,117,181,-205,-314
-41,98,114,40,-94,-183,121,-37,-122,-320
-101,-1,22,-56,-139,-215,-196,-240,115,-28
-13,-116,-135,-165,-133,-60,-210,-545,269,404
188,-22,-96,-143,-159,-127,-373,-719,109,336
154,-66,-134,-165,-181,-238,-413,-226,231,413
-10,-28,-54,-79,-62,59,-41,194,9,20
-111,-28,14,66,121,331,204,242,-156,-193
-108,-44,-1,104,171,158,689,222,-202,-291
-171,-46,-2,122,240,270,1249,288,-263,-388
-99,5,20,85,174,334,412,350,-93,-156
165,174,131,126,94,-19,-848,-175,134,189
252,270,280,246,171,-202,-1607,-543,54,145
-11,64,116,82,23,-351,-1082,-277,-126,-137
-210,-235,-219,-209,-216,-275,391,-51,-168,-189
-155,-127,-137,-126,-81,0,723,-65,-345,-192
-128,3,-16,-25,34,-6,219,163,-304,-210
-140,-117,-128,-111,13,-42,184,494,165,72
-155,-129,-173,-184,-45,37,1062,584,447,111
-241,-105,-216,-240,-237,15,1156,167,879,226
-102,15,-122,-147,-316,-112,-89,-559,681,474
-5,104,129,179,84,116,-957,-344,-331,141
184,144,276,326,377,190,-1381,-20,-386,66
243,108,162,117,122,-81,-1160,72,-153,-30
236,204,209,142,62,-84,-361,-197,-93,-101
278,222,239,204,197,98,149,-483,183,39
26,-35,22,15,93,180,727,36,169,22
-353,-213,-160,-160,-122,143,694,584,-108,-93
-262,-154,-112,-92,-185,98,304,442,-221,-175
7,-101,-61,-43,-54,-44,62,47,-217,-171
295,-105,-132,-112,22,-79,-41,-562,-285,-193
554,-110,-141,-105,94,60,89,-563,-169,-2
386,8,-9,11,138,136,193,-177,-130,59
251,159,64,42,74,-65,-60,133,-109,-40
172,264,109,44,-116,-331,-334,360,-3,-123
-196,230,124,90,-200,-332,-604,-28,38,-116
-364,33,-7,31,-129,-49,-4,-305,384,284
-129,31,12,-14,-59,5,246,-239,317,278
1,-21,-13,-49,29,98,435,-120,-44,-146
101,-70,3,25,224,394,529,154,-66,-229
223,-42,35,58,256,359,370,298,2,-52
57,-62,-56,-63,139,102,111,221,56,169
-88,-33,-70,-83,97,125,-286,-30,194,101
-182,-155,-151,-91,204,337,-282,60,209,105
-125,-176,-170,-128,-108,-6,-336,558,-35,196
-112,-81,-57,-34,-436,-544,-278,583,-73,13
-132,11,121,150,-308,-375,559,320,88,-46
-85,47,116,71,-311,-150,2042,265,39,37
-106,-29,1,-24,-193,-26,1357,92,-139,-17
27,97,123,117,93,-99,-1170,-711,-246,-143
362,392,374,256,71,-524,-3062,-1513,-89,99
307,287,242,91,-87,-372,-2393,-873,224,259
19,-18,-99,-170,-191,302,149,248,403,136
-34,20,-76,-120,-94,662,844,569,188,-83
-71,-15,-102,-95,-11,326,476,451,-203,-220
-43,-93,-134,-106,33,-48,24,126,-58,-88
12,9,60,94,196,-138,-196,-145,-47,-80
-189,-137,5,97,213,-43,416,-122,-134,-144
-195,-227,-138,-55,30,24,720,53,73,292
0,-123,-148,-114,-74,42,641,215,186,409
8,56,-19,-22,77,100,430,214,-116,-261
-61,2,-100,-131,-9,-94,4,619,-160,-459
-39,-138,-215,-236,-165,-430,-395,442,158,-96
-136,-63,-15,87,110,-209,-423,-94,112,77
-115,121,194,336,348,146,-23,-295,-215,26
133,263,172,175,157,177,347,-581,-90,149
45,22,9,10,70,306,226,-713,-137,65
-172,-176,-87,-51,-47,354,-92,-313,-336,-329
-209,-161,-131,-112,-184,305,374,268,116,-376
10,-64,-54,-29,14,301,727,226,524,8
356,147,119,83,32,-161,-243,-274,344,422
412,324,321,240,72,-386,-1301,-310,-49,311
113,184,220,165,61,-306,-1300,-55,-451,-72
-121,-122,-93,-102,-81,-86,65,413,-147,-151
-134,-224,-209,-220,-166,-24,617,447,408,54
-92,-142,-157,-154,-107,-32,429,265,556,101
49,13,-48,-69,-64,-97,217,290,173,-73
-19,-37,-76,-100,-77,-97,36,628,-106,-46
-156,-186,-188,-168,-106,-49,469,814,-12,125
-198,-96,-34,45,76,252,953,224,-88,0
-21,88,150,186,113,310,525,-368,149,22
226,255,260,263,149,49,-253,-777,124,135
196,180,160,150,145,-198,-1432,-1089,-314,-14
24,-6,12,-10,111,-300,-1369,-875,-620,-269
-52,-111,-58,-58,63,-38,591,-165,-767,-583
40,95,125,102,122,116,1219,64,-698,-590
146,232,228,150,80,39,-153,-351,-77,129
114,41,22,0,-77,3,-789,-390,828,1107
56,-96,-106,-116,-190,-22,-1219,149,1000,1189
-20,-172,-184,-197,-265,-87,-204,685,563,403
-232,-143,-81,-19,-32,103,810,1078,-34,-429
-263,-5,28,84,89,185,634,766,-391,-701
-90,140,9,-54,-69,-63,318,-103,-253,-307
-57,94,-5,-64,-78,-106,193,-516,-180,-62
-241,-162,-5,51,97,145,166,-467,-310,-221
-195,-242,-34,46,117,151,-73,-181,-183,-141
-25,-101,-57,-24,19,0,-230,215,49,-38
40,7,-49,-76,-63,-56,85,129,181,-73
157,179,32,-21,47,-113,234,-195,220,62
320,227,78,57,280,-43,-135,-230,81,285
345,140,35,70,220,-9,-338,36,-118,167
118,5,-61,-41,-5,-117,-561,204,-219,-105
-59,-110,-99,-110,-137,-80,-348,219,-357,-295
-2,-87,-32,-36,-124,-83,-46,53,-392,-293
-108,-9,27,60,-82,-75,258,-127,-280,-241
-147,39,71,120,-42,-4,217,-246,55,-44
-38,-15,34,67,-12,101,214,-13,698,327
150,-12,11,22,-15,74,176,208,603,406
111,21,19,51,24,-66,-56,96,-224,-80
-73,-58,-61,-25,-23,-129,-129,114,-299,-212
-120,-153,-171,-200,-116,59,332,192,114,245
37,-48,-84,-185,-135,389,730,101,305,366
173,105,51,-68,-172,281,620,52,210,110
67,32,57,0,-133,-200,-46,-49,-90,-112
-65,-52,33,39,-21,-399,-258,8,-233,-143
-71,-85,-15,-19,3,-390,141,193,-149,5
-158,-122,-60,-19,80,13,1376,248,-205,-35
-141,-118,-82,-41,82,374,851,190,-161,-114
-107,-26,-67,-104,-160,313,-1171,-110,-192,-241
-16,179,119,35,-107,37,-2316,-574,-137,-131
-35,55,76,30,115,-327,-2168,-461,223,179
-129,-168,-140,-124,146,-309,-71,299,467,265
-7,59,23,19,55,-17,833,848,321,66
-2,283,262,278,111,291,726,541,266,-139
-72,99,104,169,81,511,832,-490,180,-56
-51,-47,-82,-93,-63,52,82,-1032,-205,65
-31,-102,-129,-192,-23,-308,-534,-764,-340,45
39,-143,-116,-106,74,-102,100,-123,-52,274
275,19,31,48,73,115,122,335,36,306
670,122,69,22,-129,-74,-135,377,-94,29
486,118,46,11,-140,-98,-222,145,-117,-107
76,150,97,77,-4,13,-497,-238,-295,-247
-261,106,109,137,132,120,-179,-373,-619,-543
-311,35,58,112,140,119,150,-214,-470,-437
-150,-90,-49,-31,-34,-51,161,184,-82,-87
-105,-245,-190,-189,-240,-389,8,358,168,158
-7,-168,-152,-114,-117,-218,318,243,647,439
133,51,74,127,129,99,390,183,1051,456
-2,55,92,148,129,119,294,486,901,358
-93,-42,-26,20,46,120,493,570,218,279
-187,-163,-128,-89,-34,203,1777,327,-479,-274
-112,-62,-21,-10,3,122,1314,-88,-616,-451
65,112,105,73,137,-13,-483,-489,-417,-177
134,149,136,91,147,-234,-2064,-736,-122,181
112,64,60,10,87,-498,-2757,-843,-61,196
-20,-29,-56,-83,145,-166,-1005,-799,-347,-219
20,71,40,58,164,315,169,-376,-182,-198
99,155,129,134,-27,347,211,279,193,38
74,111,100,58,-189,35,280,515,88,-17
-46,8,47,-24,-269,-224,345,390,-41,-171
-37,-12,-28,-122,-296,-62,480,252,174,-76
-108,-122,-121,-132,-139,316,644,289,182,64
-215,-294,-272,-200,-90,316,631,319,175,273
-285,-280,-267,-212,-90,126,742,428,168,95
-208,-174,-140,-98,-19,-83,642,510,-11,-53
69,38,2,-22,-34,-248,183,202,-61,-39
316,151,41,-21,-22,-251,-548,100,277,54
68,69,88,140,254,70,-494,-138,222,-138
-90,3,160,305,419,296,-504,-552,-198,-154
11,31,163,229,269,74,-784,-866,-282,53
171,210,137,75,35,-153,-127,-981,-227,179
271,385,170,28,-109,9,185,-543,-36,233
33,180,26,-49,-199,-25,-32,149,2,-12
-172,-45,-108,-69,-139,-205,-242,584,-11,-173
-61,-41,-11,50,63,62,-107,412,71,-97
2,-52,29,46,50,159,313,257,51,-95
-62,-71,-27,-27,-2,-11,495,61,-62,-176
-129,-178,-135,-140,-39,9,517,32,-4,-31
-91,-204,-221,-261,-154,-112,223,235,122,181
-7,-44,-103,-157,-184,-150,-188,287,41,74
-9,114,130,107,9,255,-54,296,-118,-138
89,109,106,98,21,92,126,102,170,98
215,21,40,64,59,87,476,-223,464,277
308,100,111,98,101,168,483,-78,194,198
50,49,115,166,187,11,-163,77,-46,-33
-171,-34,50,138,205,16,-837,-6,105,-52
-131,-36,-64,-75,-41,-162,-1233,110,85,62
-189,-73,-113,-182,-207,-257,-20,-318,-216,-95
-169,-24,-18,-65,-58,57,1295,-913,-386,-282
-111,-2,22,27,136,168,804,-499,-424,-327
-29,12,40,51,65,-82,-437,216,-358,-358
40,209,259,212,63,-270,-1610,412,-310,-447
-9,132,134,89,-46,-234,-1085,244,-36,-143
144,-188,-241,-201,-193,-40,179,264,672,736
407,-251,-293,-232,-219,-6,519,169,749,839
277,-185,-198,-154,-189,-3,503,99,381,388
51,-64,-49,-28,-52,65,425,287,99,125
-209,-76,-14,-8,76,78,470,547,13,-33
-250,-126,-34,12,224,115,240,161,14,-14
-30,22,117,143,208,107,-206,-685,-277,-171
143,196,272,243,104,31,-137,-964,-430,-214
97,99,175,150,70,33,-101,-280,-83,-26
-56,-98,-101,-155,-112,-160,41,450,141,50
-65,-80,-130,-214,-254,-343,70,377,113,25
-95,-37,34,96,3,66,169,129,-141,-159
-149,-99,-18,105,40,295,287,255,-415,-352
-153,-61,-194,-175,-207,51,185,128,-230,-346
-123,82,-258,-313,-205,-2,609,-139,-150,-307
-109,206,-224,-226,131,105,710,-248,-293,-224
-11,285,-42,-22,272,-2,-219,-158,218,69
227,342,282,255,244,-104,-1301,-187,749,350
320,129,376,336,252,-157,-1749,-181,421,404
208,-45,274,253,128,-84,-945,-76,-59,193
120,-5,179,171,-12,110,72,-569,-317,-12
-13,-96,41,52,-134,166,622,-409,-435,125
-165,-187,-98,-76,-220,0,658,364,-446,-71
-165,-130,-122,-150,-268,-208,250,483,-44,-218
-62,10,-32,-99,-176,-228,65,299,586,96
-28,87,-4,-58,8,33,136,76,705,253
-82,53,-103,-150,-22,244,468,-6,260,170
-67,51,-127,-190,-179,121,373,29,-91,146
-49,10,-25,-42,-135,-43,-107,8,-405,-146
-59,-33,60,150,164,-42,-303,12,-830,-563
81,-91,-1,105,251,58,-357,249,-785,-469
73,-270,-199,-124,62,135,832,425,-197,-101
-30,-320,-287,-214,-140,50,1877,326,706,218
27,-52,-25,6,-11,-47,858,229,1183,435
229,200,242,259,395,102,-883,115,822,733
300,311,350,344,439,18,-2820,-238,-133,323
132,236,253,215,165,-221,-2210,-356,-514,-223
-25,72,23,-30,-181,-288,-111,-298,-449,-361
-189,-184,-216,-218,-321,-1,802,-322,-184,-116
-190,-208,-230,-225,-234,164,661,-487,-58,99
-71,14,-23,-8,30,36,360,-624,-108,167
29,118,75,63,115,-31,347,47,20,145
14,83,83,54,111,109,477,337,-113,-187
17,-7,5,-1,14,204,7,155,-138,-245
78,7,7,-46,-179,162,-276,199,-176,-352
155,196,186,77,-182,-166,-300,60,-353,-486
-78,-37,-38,-93,-241,-159,20,288,-77,-193
-241,-415,-421,-377,-277,153,783,874,701,668
-102,-280,-291,-266,-176,-41,199,566,513,624
-12,-11,-15,-34,-71,-192,-291,-510,-157,-47
14,128,142,157,143,-20,167,-896,-255,-213
-56,51,108,186,234,138,333,-621,-121,-49
-70,0,30,95,150,46,279,-346,-140,7
31,85,64,85,89,-69,175,-81,-136,-49
76,98,89,126,107,-105,-221,147,-149,-76
-27,-60,-50,11,34,160,459,484,-28,-80
63,36,20,12,1,90,-207,415,126,-35
109,115,119,114,137,-107,-1284,-5,63,-46
127,86,111,107,149,-96,-1059,-229,80,56
80,80,83,63,31,-149,-818,-408,-14,-8
-56,1,11,-9,-83,-143,77,-255,-137,-138
-15,-62,-62,-61,-61,-2,253,158,29,-45
-6,-117,-164,-144,-67,74,353,425,155,146
-34,-66,-138,-131,-104,-85,665,314,32,218
-76,62,-45,-97,-125,-141,521,122,-117,-68
-16,57,4,-42,-62,76,79,-19,-105,-122
25,0,72,133,227,178,-161,-134,8,-115
-85,-102,8,135,431,180,517,-26,31,-232
-126,-169,-112,-45,86,201,637,240,231,-19
-86,-105,-90,-68,-164,104,216,216,274,171
7,25,25,68,-81,-125,-610,-54,-62,113
9,34,59,94,18,-126,-713,-30,-103,52
-25,-43,6,26,109,46,-248,77,191,-44
46,10,49,41,214,143,-360,-341,202,-14
85,80,84,39,50,-19,231,-144,-76,-23
82,21,-20,-93,-325,-266,172,340,-86,66
136,-20,-45,-106,-368,-332,-105,-181,111,362
57,17,60,31,-114,-100,70,-683,-95,247
-13,47,20,-49,-99,124,99,-412,-115,-1
107,137,-63,-233,-270,-89,-371,94,285,81
18,135,-51,-125,-81,0,-341,460,136,-61
-189,18,53,106,130,205,148,440,-331,-298
-134,-69,49,74,-18,-73,200,226,-243,-316
-4,-48,73,98,115,-51,297,-117,0,-211
75,71,149,191,369,217,188,-566,147,38
56,95,137,177,295,133,-137,-476,57,211
-151,-45,-15,7,27,49,-22,78,-85,84
-215,-104,-186,-182,-204,23,159,374,339,139
-31,10,-199,-224,-183,-80,228,262,358,136
108,3,-135,-128,52,226,586,231,-84,-125
-16,-179,-117,-88,85,359,1581,457,-300,-286
-125,-217,-51,-37,-56,180,1808,503,-256,-261
-2,-2,71,97,-38,-70,-229,84,-54,-76
325,265,194,170,15,-319,-2332,-350,275,319
520,280,164,86,-81,-487,-3231,-632,418,472
154,35,19,12,-122,-246,-1008,-605,67,214
-138,-35,41,86,0,29,832,-119,-189,-125
-119,-33,16,46,-14,-1,720,239,-131,-189
63,7,15,-4,31,-70,331,203,-97,-134
0,-18,9,0,127,92,182,1,-169,-180
-74,-33,2,27,153,245,132,-87,-144,-153
-87,-57,-37,-10,103,250,290,45,-11,-44
-54,9,-16,-27,-44,187,422,167,106,93
-120,-6,-7,-37,-143,-28,480,147,-47,-97
-176,-150,-113,-125,-175,-148,353,38,-62,-203
-52,-135,-117,-114,-97,-200,-133,295,133,27
38,-30,8,-1,10,-207,-459,448,190,245
157,116,139,110,126,13,-32,347,168,198
150,110,93,72,105,167,521,-54,237,247
80,-1,-4,-17,30,85,555,-560,152,147
-57,-40,-14,-25,17,62,-605,-758,46,-38
-103,-23,2,4,38,131,-1116,-605,-7,62
-90,59,65,111,92,171,-440,-276,-235,-27
-4,95,73,95,85,95,128,-162,-373,-173
77,71,23,41,252,59,435,130,-186,-90
-40,-72,-38,26,242,-150,386,291,35,-108
-238,-213,-140,-63,38,-256,597,151,-112,-280
-94,-106,-104,-105,-132,-150,444,26,-249,-273
81,85,21,-11,-203,-30,-129,173,-185,-151
126,190,154,107,-133,17,-809,191,-1,75
59,126,94,41,-187,-131,-961,121,216,250
-46,-105,-131,-157,-354,-258,-412,87,457,424
-24,-195,-182,-153,-278,-139,147,179,572,489
23,-97,-56,-17,2,102,421,237,117,71
2,-6,10,26,157,196,279,254,-279,-195
-62,7,20,40,266,283,132,84,-471,-286
-185,-51,-43,-23,227,270,144,-138,-540,-305
-223,-94,-143,-163,-77,111,446,-167,-283,-225
-86,-8,-83,-143,-275,-121,382,-150,80,-83
36,65,35,36,-125,-206,-53,296,265,35
161,145,162,214,101,-99,-182,377,245,197
189,132,194,238,274,29,-9,-305,49,201
138,122,136,111,267,6,-19,-408,376,296
295,98,51,-20,142,4,-231,-381,439,362
279,22,-9,-63,-58,-94,-651,-801,87,102
128,59,33,-5,-161,-156,-605,-587,-267,-160
0,28,19,7,-132,25,-118,106,-438,-214
-276,-138,-150,-122,-166,169,846,624,-313,-62
-352,-166,-185,-155,-135,45,1151,559,-301,-11
-142,-76,-24,-10,14,-18,74,121,-252,-134
48,10,94,93,96,55,-601,-74,-70,-154
42,-19,-2,-27,-53,-61,-905,-25,197,-132
-32,-125,-160,-183,-192,-208,-247,315,596,-113
67,49,7,0,-2,-88,145,623,653,-120
52,182,208,201,194,170,469,349,-56,-73
-60,-60,47,72,115,302,863,-176,-399,213
19,-310,-227,-158,-72,124,548,-323,64,649
32,-148,-127,-120,-93,-54,-153,-624,-71,284
138,108,105,39,-27,-240,-1159,-897,-136,53
149,132,146,147,80,-265,-1241,-358,-211,-119
-11,80,116,186,189,-73,-315,64,-307,-356
-96,128,18,59,93,-14,352,112,-167,-257
-47,212,-79,-106,-34,65,982,242,-59,-113
-52,232,-28,-42,75,290,777,238,-45,-107
-59,-25,9,8,103,239,56,125,50,11
-26,-248,13,11,11,37,-32,68,178,150
-49,-207,-43,-50,-72,-144,-275,188,97,29
-55,-96,-86,-81,-82,-224,-253,299,-43,-79
-36,-10,-30,-19,-49,-203,-399,81,67,-8
-85,-75,-49,-27,-41,-40,-212,131,300,107
-121,-97,-87,-43,-11,147,489,313,132,-8
9,-13,-61,-63,-60,153,643,325,-146,-95
128,90,29,-13,-112,103,177,104,-216,-61
48,81,110,88,-35,-17,-164,-306,-261,-46
68,81,109,95,-12,-286,-733,-319,-138,50
100,63,65,47,-11,-326,-663,-55,74,169
-16,-28,-4,3,4,-177,-77,0,294,124
-117,-91,-79,-41,21,90,223,-245,470,-68
-38,-29,-51,-10,69,380,227,-608,383,-10
101,63,20,21,28,320,107,-313,30,96
46,53,17,5,-16,33,112,209,-199,55
-23,77,17,31,11,6,124,328,-244,-64
-4,132,21,30,26,1,1,171,-278,-113
-12,102,52,45,93,-168,18,-107,-399,-234
-2,13,67,50,172,-139,110,-235,-303,-250
22,-72,-4,-5,93,25,69,-39,15,-7
-41,-65,-13,-21,0,193,7,154,93,143
-92,-55,-10,-14,46,211,67,141,47,85
-103,-126,-106,-70,90,34,128,152,153,72
-77,-142,-156,-98,-33,-78,70,189,205,77
-53,-109,-92,-58,-134,-105,371,76,38,-35
60,-59,-77,-112,-174,-173,577,-15,-63,-59
1,-72,-83,-100,-109,1,491,141,-187,-142
-46,-24,71,79,24,167,-25,170,-337,-200
5,21,164,173,98,50,-858,90,-43,-39
15,8,113,118,35,-43,-973,317,654,220
158,34,68,22,-99,56,-651,338,1168,598
176,-3,0,-53,-138,82,-286,-203,554,286
4,-75,-30,-31,66,2,90,-821,-461,-320
-30,12,40,82,301,33,256,-1059,-571,-199
52,140,47,74,190,79,300,-536,-294,205
140,317,6,-36,-23,-71,93,61,-243,94
64,437,78,-9,-31,-162,18,129,-168,-204
-142,208,10,-7,31,-26,767,443,68,-93
-171,-32,-89,-50,-62,31,769,553,294,40
-65,-69,13,5,-176,20,-279,292,578,109
67,-118,120,80,-208,-127,-1264,-233,604,263
115,-141,87,2,-262,-265,-1024,-530,157,278
43,-124,1,-83,-217,-88,-16,23,-307,-37
-51,-102,-42,-19,41,99,468,693,-378,-343
-79,-49,-100,-34,90,278,646,566,-105,-214
27,64,-208,-184,-128,-47,617,157,8,-39
76,216,-167,-207,-198,-225,60,-202,-78,2
84,176,18,4,16,-144,-153,-409,89,203
136,-3,151,168,188,-21,21,-206,231,202
-41,-118,134,195,236,86,-43,77,85,-76
-160,-42,111,212,270,164,-38,-120,-54,-231
-19,27,92,104,54,45,-197,-245,71,18
49,-37,-14,-52,-96,57,85,-42,-106,33
-27,-81,-68,-65,30,158,450,-10,-449,-154
-216,-118,-60,5,120,301,326,9,-466,-319
-255,-91,-96,-45,-9,178,750,117,-257,-315
-146,-33,-84,-93,-74,30,835,220,-78,-116
-34,-44,-84,-83,-44,-53,-247,212,85,154
155,51,14,8,-7,-187,-1074,37,66,178
378,236,197,131,24,-366,-2003,-149,103,137
197,173,158,91,-10,-134,-780,-54,-4,-223
95,-17,-34,-43,-49,97,334,181,26,-128
-2,-223,-226,-214,-169,-81,399,183,54,203
-112,-252,-222,-213,-193,-291,298,-24,320,419
-94,-135,-79,-27,14,-92,-31,-39,368,407
-4,30,90,145,188,213,170,-28,41,41
118,125,157,177,192,227,-47,-152,188,18
123,160,203,188,140,91,-468,-198,95,-15
-24,51,84,77,66,-52,-159,-251,-341,-163
-20,12,29,61,378,-33,282,-106,-401,-142
-4,1,5,74,547,26,226,153,-338,-184
-69,-46,-27,-6,-4,123,572,224,-208,-322
-119,-53,-16,-48,-319,59,827,-197,-31,-316
-141,-130,-99,-102,-316,-39,361,-113,68,-27
-74,-141,-134,-132,-234,59,0,302,157,268
-93,-44,-35,-71,-111,19,-449,18,159,187
-71,-83,-78,-139,-148,-209,-615,-258,225,296
101,-84,-162,-266,-392,-286,-399,157,204,459
107,50,-41,-116,-170,-40,-381,253,-136,98
-61,84,114,164,237,281,-286,86,-517,-457
26,91,124,188,203,217,-83,-4,-464,-522
210,175,164,176,140,172,475,126,81,-155
123,146,115,98,249,187,558,122,473,174
-35,26,6,-3,184,33,240,-361,269,226
7,31,17,-5,-72,-137,-4,-888,223,261
18,14,18,-21,-191,-75,144,-515,-43,17
-105,-123,-96,-87,-92,-9,226,277,-518,-236
-85,-78,-59,-31,56,7,29,395,-275,-164
56,123,106,92,86,-14,-457,106,403,-45
199,232,188,149,89,-89,-689,-86,343,-89
53,57,75,88,47,-57,-555,-156,-308,-205
-127,-237,-186,-121,-197,-4,220,85,-127,94
-133,-307,-293,-247,-315,-199,560,361,437,538
-53,-163,-169,-134,-66,-22,650,592,771,643
63,-37,-112,-139,-1,83,703,638,617,453
-35,53,-6,-43,14,2,599,271,-254,-249
-222,-9,-7,29,-24,123,218,51,-652,-630
-152,35,18,32,-20,206,75,68,-514,-414
54,71,65,43,76,178,416,57,-173,-86
33,-13,67,84,167,302,85,-358,-50,-40
137,63,134,140,93,134,-1192,-864,16,107
382,290,288,199,-21,-350,-1696,-720,8,225
250,244,245,138,10,-475,-1642,-516,-164,-76
-128,-49,-20,-118,-118,-496,-591,102,-139,-292
-156,-241,-212,-224,-213,-322,807,622,94,34
-154,-308,-296,-220,-185,-100,729,533,310,225
-40,-174,-228,-188,-188,-38,-145,78,531,345
192,155,75,37,21,271,-163,-71,378,306
90,238,234,214,224,448,118,-43,-137,40
-116,91,111,149,177,116,275,-383,-180,-40
-10,143,93,91,52,-274,134,-635,31,-42
113,166,170,142,40,-173,-162,-550,-272,-150
-66,-82,30,41,43,179,488,28,-519,-224
-214,-207,-135,-101,14,283,1028,525,-274,-224
-254,-214,-204,-190,-54,274,1061,629,-62,-226
-129,-47,-106,-113,-105,66,715,262,80,-110
-17,65,7,66,9,-94,-290,-13,230,70
17,43,60,150,158,-49,-1031,14,120,50
70,78,134,204,341,-67,-1241,106,-111,-142
91,111,178,202,375,-125,-1056,4,-228,-270
59,-44,-27,6,172,-183,-49,293,19,18
41,-178,-194,-138,-46,-195,414,384,392,481
173,-51,-127,-145,-223,-124,208,-377,295,466
213,17,-85,-155,-309,127,199,-702,-69,138
85,16,-124,-221,-370,312,288,-170,-176,33
-73,-33,-66,-98,-196,360,402,224,-253,-146
-128,-104,70,119,63,258,270,204,-327,-402
20,-35,111,155,157,3,104,48,34,-177
63,-38,0,31,118,-190,80,124,266,63
-66,-139,-83,-53,-21,-280,-15,7,-5,41
-122,-92,-21,21,69,-124,157,-397,-249,-107
-127,40,43,98,317,108,61,-301,-219,-190
-39,106,-5,31,60,53,200,199,60,48
77,313,75,38,-136,-165,-867,299,110,66
70,252,89,-1,-147,-237,-1305,160,-87,-77
67,6,38,-51,-136,-216,-730,112,-144,-60
8,-76,26,-38,-86,-65,-131,-66,-39,-87
-136,-72,-7,10,16,121,291,-83,315,221
-166,-80,-70,-1,198,214,676,178,523,464
25,2,-44,-67,212,104,786,222,297,229
215,74,18,-62,-30,86,422,-63,-290,-80
162,-70,-77,-115,-220,224,264,-228,-670,-305
-137,-281,-238,-218,-291,207,263,11,-467,-302
-221,-198,-171,-124,-201,60,129,322,-7,-176
-99,3,-1,28,-19,-26,-64,194,428,28
34,113,118,141,110,-123,-98,-330,564,224
157,160,169,184,95,-77,96,-860,209,310
289,232,235,174,41,132,-239,-678,-36,251
216,134,165,69,-90,-37,-400,403,-75,-13
108,43,51,-65,-196,-255,-243,916,39,-192
-78,-75,-103,-178,-265,-364,-54,551,71,-159
-248,-257,-281,-203,-220,-191,207,119,-3,151
-316,-274,-273,-128,-51,-100,194,-289,-124,112
-156,-14,-21,89,307,11,83,-597,-50,-91
51,262,238,272,515,-4,-39,-363,-7,-34
114,234,284,295,485,39,-207,59,-74,-82
197,149,245,260,346,309,-148,-159,-40,88
230,155,204,172,97,403,-309,-339,81,234
20,10,3,-52,-87,366,-86,322,162,74
-53,-83,-120,-125,101,-26,350,759,-91,-144
-63,-107,-154,-144,32,-294,203,328,-393,-288
-72,-96,-142,-170,-319,-346,-84,-47,-384,-333
-69,-58,-48,-63,-224,-281,-258,-316,-30,-185
-21,-19,33,36,-64,-91,-260,-427,600,217
46,15,39,15,-113,32,-49,-36,624,453
-13,1,15,25,-48,118,133,-115,-155,88
-41,2,4,44,-38,68,196,-297,-356,-211
81,115,78,82,1,-111,112,-59,-498,-317
54,104,63,12,36,-56,-16,123,-461,-277
-170,-95,-67,-111,61,372,-14,157,31,-110
-219,-255,-244,-248,-14,674,179,196,344,185
-87,-259,-307,-288,-246,391,215,212,525,312
77,-42,-124,-142,-328,-252,196,185,610,248
94,76,-1,-66,-288,-427,410,212,229,245
-35,-93,-135,-186,-292,-325,810,223,-30,267
-63,-84,-70,-50,-34,19,774,203,-86,41
-12,70,132,205,263,245,-298,92,-243,-226
119,197,260,309,302,-67,-1647,-209,-143,-176
62,149,201,216,195,-294,-1497,-80,10,-84
-79,-1,25,15,16,-246,-101,392,60,-28
-9,32,14,3,12,-59,544,362,123,62
79,126,90,86,89,86,191,-268,-186,-52
-9,19,26,24,53,103,-146,-499,-571,-176
-45,-57,-5,1,32,103,-65,-117,-172,-23
-60,-51,-10,10,54,-18,284,-226,287,93
-93,-93,-72,-27,48,87,934,-474,324,-13
12,-43,-51,-37,23,91,521,-419,260,-38
49,18,-8,-31,-12,1,-369,-490,120,-59
170,188,139,110,81,-3,-961,-352,-36,118
171,173,157,146,114,105,-467,261,-143,259
39,37,17,-10,-16,79,447,921,-144,17
-13,-70,-78,-98,-78,2,896,1013,-38,-6
-19,-28,0,29,97,71,352,148,-91,-103
-81,-8,48,113,171,12,63,-540,-119,-251
-134,-91,-29,21,3,-156,-607,-783,207,-70
-107,-110,-83,-48,-105,-84,-818,-607,500,230
5,28,16,18,-27,1,-483,-92,252,255
52,38,3,-25,-35,-45,-378,258,-64,84
56,45,-27,-77,-92,-94,-57,333,-129,-71
119,99,18,-36,-95,-162,370,370,-165,-166
202,-18,-62,-72,-68,55,921,606,-4,-49
147,-83,-60,-42,-53,52,399,362,177,141
-84,-3,75,152,126,37,-58,-105,-134,-117
-200,42,121,197,244,70,-36,-455,-379,-353
-42,46,-49,-94,-38,-191,-317,-661,-105,-2
45,133,-66,-147,-112,-137,-302,-246,42,208
-130,92,-2,24,101,296,61,191,-141,-73
-132,-100,27,108,121,399,-23,288,-138,-130
-22,-160,35,89,15,127,205,350,-88,-95
-60,-111,3,16,-2,-17,490,347,-137,-156
-141,-144,-107,-137,-34,-111,585,-17,-23,-128
-77,-97,-100,-113,36,-26,374,-341,189,31
66,31,61,71,115,-48,-295,-269,137,82
126,121,142,131,11,-233,-797,-140,35,29
94,110,82,56,-135,-361,-1099,-7,191,183
-12,9,-107,-118,-225,-185,-243,30,114,240
64,131,-73,-124,-185,25,205,-18,-123,144
197,136,-1,-37,-56,169,368,115,-64,73
138,-34,-33,-51,-41,218,878,320,120,137
-76,-105,3,-12,37,171,754,275,-46,-178
-184,-191,-78,-70,38,70,-159,293,94,-131
-155,-210,-175,-173,-69,-100,-624,386,124,118
-71,-95,-108,-124,-126,-92,-322,74,-102,60
-72,-52,-54,-56,-89,159,843,-109,-198,-224
24,22,53,75,117,224,572,-109,-177,-219
157,147,220,272,308,-132,-810,-290,-129,-103
137,106,195,236,319,-359,-1119,-398,-132,-38
51,-24,43,53,181,-154,-412,-435,-152,11
-1,-111,-96,-105,-31,-5,140,-614,-104,129
-3,-79,-108,-132,-216,15,220,-369,47,218
14,-6,-18,-20,-205,135,101,320,431,221
49,129,115,116,-72,65,50,466,481,129
99,246,153,117,-72,-59,-151,298,133,133
85,271,75,-19,-150,-79,3,241,-156,-52
-3,121,-32,-131,-145,80,277,399,-129,-151
-152,-104,-138,-150,-93,189,441,281,-148,-64
-114,-142,-69,-42,1,223,268,46,-208,-136
10,-27,39,16,-6,178,-84,-285,-341,-306
7,-58,-19,-24,-21,-98,-292,-306,-247,-155
-131,-177,-139,-90,-53,-300,-241,44,288,215
-212,-198,-197,-160,-126,-183,536,100,354,153
-55,-86,-112,-73,6,161,812,327,161,55
141,70,94,124,182,214,82,90,206,123
293,235,269,242,202,-92,-632,-657,-47,57
335,253,243,197,128,-220,-1038,-663,-248,90
66,89,98,71,61,-204,-546,-572,-132,-119
-215,-101,-64,-46,66,30,221,-499,73,-144
-140,-168,-146,-124,25,193,394,170,239,238
50,-59,-101,-146,-116,56,207,514,87,255
-29,7,18,17,10,79,0,273,-207,-144
-135,23,114,179,172,34,-179,141,-203,-291
-130,-11,59,122,92,-168,-119,198,-54,-96
-72,-28,-17,6,-14,-71,195,173,-91,-98
-6,-22,-51,-35,-89,-25,196,200,-189,-222
23,16,-11,-20,-41,-29,-13,224,-207,-259
-38,20,8,-4,21,-5,-15,177,29,-19
-45,-65,-85,-62,-31,-34,116,263,368,314
-10,-105,-133,-103,-101,-102,16,86,169,256
94,-25,-19,-2,-37,-62,-166,-476,-206,65
162,87,102,129,121,177,-251,-611,-366,-148
20,43,88,125,160,304,-141,-376,-377,-302
-70,18,25,14,7,47,146,-15,-265,-291
-37,-37,-84,-135,-203,-288,117,466,312,26
26,-200,-255,-256,-256,-267,101,508,1143,657
32,-149,-184,-167,-77,36,130,207,776,501
-68,66,20,47,196,405,112,-206,-132,-10
-113,154,120,176,311,547,497,-729,-329,-100
-30,117,102,125,148,349,573,-415,-308,-151
108,93,65,31,-90,-52,167,416,-179,-30
159,122,97,45,-119,-376,-358,821,66,64
29,45,69,59,-50,-399,-747,639,66,-27
11,12,55,58,6,-94,-219,-255,-75,-88
215,173,195,181,119,75,-376,-1314,-85,71
170,143,157,149,97,-192,-932,-1082,-95,29
-24,-7,-5,8,-10,-171,-216,-137,-185,-179
-77,-90,-98,-106,-135,-42,229,393,-101,-155
-68,-110,-117,-133,-77,-27,195,433,29,4
-69,-73,-60,-53,111,118,234,289,29,48
-19,-46,-75,-53,142,181,376,302,216,183
-52,-71,-63,-45,46,165,392,258,305,181
-122,-91,14,79,104,95,329,63,-27,-168
-80,-10,58,68,19,-38,145,-56,-324,-377
-48,29,8,-58,-204,-59,-40,-50,-239,-257
-47,-66,-78,-115,-231,-130,-219,63,2,17
-52,-105,-79,-70,-61,-157,-134,150,-22,21
-22,-69,-101,-72,65,31,526,249,-15,-1
-30,-26,-120,-126,15,30,402,291,174,83
-13,54,-60,-128,-184,-41,-333,136,405,236
55,165,114,63,-112,-162,-1057,-160,574,332
74,92,176,165,27,-95,-680,-509,318,206
75,14,94,85,10,87,444,-516,-298,-78
14,-2,34,31,100,-44,738,-7,-502,-308
-119,-133,-82,-25,134,212,978,369,-378,-247
-55,-108,-73,20,74,339,576,221,-225,0
-21,-76,-63,21,97,240,300,48,-175,-126
-11,-37,-47,-7,107,124,-377,-89,-132,-217
-8,65,50,26,31,-139,-800,-267,-36,-194
164,240,157,16,-124,-403,-1109,-37,548,201
238,173,46,-92,-242,-366,-544,445,849,630
140,71,-20,-68,-153,-210,296,796,452,585
153,182,134,57,-62,-145,-192,354,-11,305
89,118,140,50,-93,301,-224,-597,-202,-50
-114,-61,23,2,-66,382,155,-963,-366,-315
-213,-167,-112,-91,-36,388,487,-608,-190,-309
-174,-138,-104,-56,51,273,518,-183,35,-156
-48,-16,0,32,103,-37,375,116,-63,-51
-24,-18,-11,11,35,-267,-180,210,-254,3
-29,-61,-48,-17,19,-243,-464,165,-79,16
-86,-92,-73,-36,16,-108,-104,341,599,88
-42,-55,-46,-45,30,-52,-121,292,764,90
-1,-111,-128,-138,-93,-160,178,126,-155,-82
11,-77,-105,-73,-57,-110,362,-78,-746,-298
6,41,59,139,188,243,465,-375,-470,-291
22,167,179,250,269,267,286,-338,-29,-60
131,258,216,232,178,50,-77,264,370,266
224,225,210,185,131,6,-394,455,420,384
74,7,91,47,23,42,-307,-46,-20,132
-68,-92,-16,-66,-61,-186,-234,-225,-228,-131
-139,-119,-110,-143,-84,-132,-171,-231,-129,-144
-27,-117,-146,-148,-118,27,-106,-206,102,193
39,-78,-117,-105,-170,166,78,274,97,171
18,-24,-134,-168,-273,-47,48,610,-2,-114
-101,31,-79,-108,-149,-235,78,479,-93,-266
-201,24,-3,60,140,59,529,101,-121,-309
-56,26,61,132,243,209,276,-524,59,-44
133,58,114,135,178,181,-140,-534,165,202
226,94,161,129,72,74,-396,-512,-168,33
113,65,137,118,56,-22,-488,-737,-585,-319
-38,-12,27,68,65,0,195,-336,-416,-296
-142,-4,-9,-29,-72,-95,660,466,40,-132
-174,-43,-89,-139,-194,-125,680,1136,714,282
-39,-188,-237,-200,-166,56,712,1223,1076,885
99,-104,-103,-79,-67,50,-33,30,372,566
172,133,121,81,16,-96,-1251,-801,-302,-53
92,100,102,80,27,-124,-1309,-785,-550,-372
38,28,-13,-22,-67,-127,-546,-651,-492,-337
-139,-83,-136,-77,-47,-10,370,62,-351,-345
-315,-166,-179,-101,40,179,1325,578,-144,-345
-108,-28,-56,-11,142,140,775,274,180,-161
105,157,150,161,186,-1,-243,-144,252,1
262,287,327,325,421,-53,-745,-248,156,265
185,183,260,256,402,-178,-1251,-205,146,323
-59,-133,-52,-32,-18,-167,-494,15,7,101
-194,-306,-253,-212,-310,16,539,290,67,183
-60,-160,-154,-168,-327,0,353,237,-27,64
-47,-104,-60,-20,126,97,233,367,-10,-3
-17,-32,55,117,225,220,212,180,153,28
-17,51,127,161,-16,189,178,-106,184,-69
27,105,57,-12,-91,49,105,-183,-98,-178
96,182,-18,-157,-60,4,30,-375,-300,-242
-83,316,111,-13,75,-5,23,-597,-304,-367
-273,176,81,22,9,93,76,-131,-116,-166
-251,-319,-235,-224,-321,-9,220,530,238,331
-216,-616,-498,-504,-738,-239,546,865,332,388
0,-382,-402,-416,-656,-197,793,924,114,-14
174,39,-14,14,-64,120,367,452,13,-6
274,339,284,247,223,92,-573,152,121,311
263,454,498,480,497,-24,-1264,-270,106,238
431,332,392,384,386,-148,-1013,-1317,27,74
562,165,115,44,55,-81,-459,-1290,-163,48
239,64,-15,-77,-25,58,424,-511,-443,-100
-284,-142,-144,-99,4,277,973,-124,-383,-293
-413,-222,-171,-144,-149,47,357,159,-128,-257
-303,-114,-62,-66,-133,-145,-521,334,-102,-207
-323,-161,-92,-70,-63,-190,-281,561,-29,-273
-211,-177,-138,-69,-4,-77,79,735,290,-92
110,-30,-41,16,60,3,312,332,207,170
626,145,71,54,57,-97,169,-127,-68,97
697,180,111,50,24,-183,-660,-498,-11,128
176,34,37,19,49,11,-939,-600,33,292
-208,-92,-24,49,156,253,-223,-182,67,209
-189,-65,-40,-12,52,145,371,149,504,118
-65,58,34,5,-2,20,754,202,462,131
-158,47,101,117,122,27,548,120,-179,-71
-182,-50,39,70,69,-65,158,189,-193,-134
3,-13,-11,-26,-52,-201,-402,422,-136,-18
5,13,-1,-27,-55,-127,-462,382,-227,-164
-149,-14,-18,-33,-53,29,184,38,-133,-283
-231,-197,-140,-36,48,307,813,-277,120,-128
-125,-90,-27,79,137,264,360,-626,-227,-245
57,166,155,123,76,-65,-504,-432,-445,-282
208,105,3,-104,-193,-335,-686,332,181,385
120,-128,-196,-280,-348,-351,-240,537,645,877
-69,-114,-122,-123,-113,-33,398,474,178,220
-170,-9,46,88,144,163,248,244,-307,-359
-57,100,173,181,225,280,-112,-583,-284,-324
155,178,218,208,207,260,-174,-1031,-58,-14
24,30,78,132,163,211,445,-402,-102,-60
-204,-166,-99,-17,63,135,585,263,-101,-111
-229,-239,-208,-171,-99,-84,127,424,-131,-36
-84,-129,-185,-192,-180,-216,-391,363,-293,-135
126,115,12,-73,-152,-313,-881,51,-316,-287
94,168,43,-36,-114,-270,-261,20,109,-209
-40,33,-54,-41,-5,-27,922,271,651,148
-121,-149,-133,-90,-9,203,1805,288,482,260
-17,-218,-169,-100,-20,394,1232,237,-50,266
173,34,39,35,47,67,-982,105,-234,165
380,358,281,149,107,-236,-2550,181,-88,66
363,327,250,158,71,-156,-1996,36,308,295
-64,11,112,175,104,-51,-427,-378,293,171
-252,-122,24,125,155,-36,465,-710,-173,-48
-100,-15,56,119,205,7,576,-1298,-542,-172
-1,28,32,47,87,111,573,-926,-349,-102
-58,-67,-82,-47,-100,59,263,167,-12,6
-65,-82,-84,-32,-168,-147,200,649,155,11
24,-16,-38,-38,-114,-43,448,730,14,-87
101,62,30,-39,-80,55,147,516,-163,-237
98,105,75,-20,-73,-96,-279,172,-399,-424
14,25,-4,-68,55,-67,-501,-56,-318,-472
-161,-129,-156,-149,10,32,-412,-245,-176,-338
-358,-297,-285,-244,-123,217,421,-214,43,178
-195,-235,-225,-182,-87,241,846,202,882,991
150,24,-16,-42,-93,-28,264,504,1187,994
243,143,82,11,-89,-175,-70,384,543,403
58,76,74,61,46,-93,161,20,-170,-274
-220,-169,-77,33,93,221,55,226,-442,-440
-187,-179,-109,-32,-119,145,-298,248,-278,-261
6,1,31,-4,-172,-94,-342,-266,25,-59
149,114,138,28,-162,-314,-483,-321,-159,-53
170,93,123,14,-161,-260,120,-78,-204,-37
242,196,218,176,89,-10,70,-503,-92,68
185,150,195,214,259,155,-96,-639,-115,41
53,57,90,96,171,71,48,-408,-256,-172
-95,-92,-125,-143,-45,43,527,229,-177,-73
-91,-122,-247,-268,-178,17,853,571,-81,55
-94,19,-114,-103,-25,91,514,301,-182,-122
-146,174,103,196,220,58,-398,-139,-58,-166
2,207,192,293,209,-180,-1319,-241,476,140
63,-9,58,80,61,-238,-1113,-16,668,297
25,-137,-76,-96,90,-26,-129,104,142,179
78,-2,-41,-21,225,136,313,-40,-287,6
-82,110,57,106,211,225,366,-171,-509,-373
-269,-74,-59,-16,-3,241,1031,19,-320,-398
-275,-299,-200,-158,-82,221,1974,348,71,-97
-127,-226,-136,-91,59,-3,890,518,143,73
63,-69,-42,-53,-138,-359,-903,700,77,141
282,147,122,33,-217,-549,-2544,313,36,254
186,89,55,-39,-146,-287,-2007,64,-234,9
-49,-99,-100,-157,-154,166,249,-84,-398,-257
-17,57,78,54,-34,307,551,-956,-241,-247
68,184,235,208,24,211,409,-1230,368,97
83,39,98,92,-20,54,794,-468,1011,505
91,-50,-64,-52,-93,-43,804,486,759,469
62,-1,-67,-39,-82,-37,308,1040,-265,66
-9,37,1,16,-24,-45,-612,464,-539,-199
-32,48,23,-45,-125,-325,-761,20,-192,-288
173,-24,-91,-179,-221,-336,-205,-78,151,61
322,-13,-65,-82,-53,-32,23,-971,106,287
167,125,214,327,559,432,46,-1224,-191,72
-40,84,237,418,734,391,34,-145,-274,-192
-145,-55,11,94,323,8,-70,505,-112,-199
-145,-69,-95,-145,9,-287,108,394,66,-34
-151,-42,-77,-132,-46,70,1317,269,-36,-203
-240,-1,18,19,-81,556,1532,111,-563,-631
-252,-5,21,3,-291,177,-60,-115,-876,-755
-138,54,56,37,-170,-436,-1293,-135,-214,-107
-150,-84,-61,-80,-163,-311,-1469,154,742,814
-177,-285,-250,-267,-260,-29,-589,277,1036,1057
-175,-181,-182,-148,-94,-55,-277,149,1147,534
-143,-29,-32,36,99,169,55,233,794,62
204,98,-14,-51,-116,352,456,271,-479,-334
637,90,-125,-197,-282,321,624,516,-703,-301
234,51,-76,-118,-158,60,582,679,-290,-238
-280,-4,45,47,43,-41,387,383,-137,-193
-146,12,75,64,70,-92,467,-559,-145,-46
286,212,105,48,33,-112,-9,-1409,-216,83
434,272,140,99,81,-119,-445,-991,-392,-93
357,209,149,101,63,-305,-716,-169,-380,-244
415,58,9,-24,-21,-372,-783,274,-72,-143
60,-162,-141,-116,-67,-146,184,556,280,50
-192,-175,-92,-54,-34,20,614,522,727,407
-103,72,172,201,165,129,168,82,750,491
-154,36,150,265,295,275,85,-169,61,170
-298,-219,-178,-96,-19,81,403,334,-451,-61
-301,-305,-334,-322,-241,-139,176,220,-152,-79
-138,-114,-142,-135,-60,-151,-460,-567,71,-118
108,155,129,127,171,37,-1021,-428,167,-47
70,161,179,186,194,110,-589,-203,215,-17
-48,75,138,140,144,199,342,-248,79,16
112,98,96,75,50,249,464,-26,-56,162
197,148,91,40,-36,108,573,264,-19,200
30,53,67,72,38,-41,201,-26,-201,21
-129,-39,42,109,160,23,-187,-509,-375,-231
-98,24,103,131,159,84,-372,-324,-362,-375
-61,41,80,56,17,-73,-409,154,-177,-411
-173,-145,-134,-151,-159,-186,167,711,305,-102
-126,-268,-295,-300,-313,-257,326,754,548,393
-9,-92,-127,-141,-193,-66,443,284,61,240
-126,-26,23,70,82,221,674,39,-150,-158
-148,-85,-35,65,69,234,1028,-73,127,-63
-78,-27,-37,9,19,103,523,-286,-4,-6
142,162,116,117,311,-38,-644,-335,-148,53
332,304,217,177,447,-94,-1363,-218,-42,22
210,262,177,63,96,-138,-1312,-54,-4,-135
83,130,72,-58,-338,-91,-447,56,-53,-202
59,-28,9,-20,-328,-81,124,-31,38,128
-24,-235,-129,-62,-141,-42,508,84,166,395
-41,-210,-167,-109,94,61,524,135,97,87
-175,-137,-164,-168,82,133,935,120,-31,-340
-300,-240,-317,-281,-248,190,1204,609,97,-190
-156,-182,-300,-210,-181,126,317,981,126,130
85,155,60,109,6,-147,-573,291,-213,-13
217,345,327,301,144,-413,-1131,-300,-435,-212
60,209,181,101,161,-289,-835,-528,-242,-100
-151,-90,-25,-40,115,111,-740,-1078,107,177
-99,-195,-59,-54,-82,441,-59,-767,475,237
85,-34,57,-9,-201,421,748,-116,374,87
97,123,179,156,-27,315,651,-198,-361,-82
55,150,198,230,182,103,755,-98,-497,-97
106,171,150,133,128,-454,-596,167,309,219
-21,86,11,-40,-101,-657,-1596,23,783,341
-147,-45,-143,-161,-257,-345,-507,64,559,206
-96,-79,-165,-123,-90,89,461,280,-101,-35
-9,30,-1,-11,33,108,566,378,-624,-579
81,139,109,40,55,68,332,534,-462,-591
194,110,63,-21,-72,-18,302,723,144,105
236,64,104,60,-112,-146,-85,420,575,734
187,-58,-12,4,-101,-30,-168,-265,404,602
98,-95,-163,-197,-217,2,-77,-740,-236,-46
-137,-180,-167,-126,-92,161,-102,-931,-597,-330
-331,-216,-75,49,175,439,318,-428,-546,-325
-308,-146,-49,17,235,180,542,171,-345,-198
-194,-123,-103,-95,38,-57,297,214,128,-21
-90,-93,-109,-85,31,-67,267,412,673,-27
42,13,0,37,276,88,-55,491,673,-88
232,119,104,97,308,288,284,110,-302,-190
247,97,72,33,7,308,256,-177,-877,-251
119,154,133,72,-148,-169,-648,-369,-469,-46
35,43,51,-12,-226,-499,-1331,-207,505,667
88,-57,-109,-198,-346,-464,-731,273,817,693
-18,-80,-83,-75,-132,-102,628,330,507,199
-195,-129,-74,31,61,113,831,232,309,-59
-142,-77,-36,52,126,207,543,414,380,-26
19,78,71,94,107,158,-11,558,-61,-87
31,147,163,195,196,185,116,504,-493,-187
-75,40,92,166,207,291,610,-141,-402,-298
-37,-18,2,0,-48,-130,-474,-1470,-417,-280
141,72,44,-26,-119,-310,-945,-1758,-451,-228
194,183,158,86,18,-165,-552,-852,-221,-105
10,128,117,81,33,-221,-386,-2,-133,-170
-309,-163,-176,-149,-108,-159,800,509,-32,-290
-357,-428,-393,-268,-42,243,1628,829,539,252
-105,-219,-163,-69,103,421,373,552,384,593
240,270,247,167,94,225,-97,204,-248,204
334,269,287,214,143,299,97,408,197,294
160,15,35,-20,-75,-249,-1304,420,456,445
-98,-163,-221,-297,-395,-729,-1282,674,-68,-129
-211,-101,-145,-138,-239,-462,-912,353,-384,-475
-165,7,60,106,53,-187,-561,-492,-272,-306
-82,96,249,284,285,35,-520,-919,-171,-88
-58,97,225,259,389,215,-86,-837,-124,-57
-5,136,151,188,534,486,825,-777,-57,-3
22,140,34,67,341,382,720,-373,84,180
10,-13,-116,-73,-34,129,321,240,82,161
221,-162,-197,-153,-286,19,299,501,-52,-84
476,-199,-189,-192,-171,-127,569,408,-206,-263
104,-204,-139,-145,167,-39,828,324,-324,-316
-207,-145,-72,-118,143,-17,440,216,-259,-175
-81,-63,-20,-64,-217,-26,-158,-18,-127,57
46,64,64,22,-465,-69,-940,-272,99,186
169,159,41,-50,-509,-125,-741,-105,411,201
177,187,13,-63,-365,-143,-21,163,114,-10
-96,168,38,-66,-254,-103,181,423,-260,-282
-270,-48,-61,-90,-90,-22,92,587,41,-197
-207,-348,-245,-211,-105,-32,130,928,731,424
-19,-256,-215,-226,-157,96,277,591,780,656
130,165,60,23,54,93,127,-478,42,328
106,422,294,286,380,165,-110,-997,-498,-115
121,310,238,245,365,117,-253,-833,-380,-156
67,41,51,35,56,-217,-216,-620,-282,-228
-165,-131,-19,-29,-78,-364,-47,-378,-318,-337
-169,-198,-67,3,12,-100,70,-438,-259,-216
137,-73,-34,-17,-15,-65,45,-32,-49,115
207,-9,-51,-104,-90,-134,102,540,102,312
-84,-174,-111,-26,100,130,260,698,60,97
-227,-189,-78,56,203,198,201,559,14,-249
-11,40,21,65,97,6,-312,49,125,-224
11,126,44,60,96,-23,-214,-233,90,13
-110,74,35,107,334,29,46,-18,144,179
-104,98,103,180,347,142,613,53,194,214
-79,-9,23,65,38,203,704,-40,-133,-34
-127,-151,-75,-33,-36,199,65,-261,-328,-287
43,-29,8,45,53,108,-280,-443,-412,-331
123,125,133,78,-44,4,267,-245,-582,-534
-28,12,-22,-124,-296,-43,671,350,-110,-326
-102,-150,-197,-266,-398,-259,-306,570,564,472
-56,-61,-42,-73,-185,-281,-906,194,486,716
238,88,76,17,-135,-335,-1668,-111,956,812
387,60,32,7,-78,-131,-734,-77,1136,780
354,160,182,168,174,85,-488,-260,-86,113
-137,31,132,156,215,218,-44,-167,-992,-586
-478,-134,-41,-24,34,304,697,187,-754,-663
-292,-110,-110,-146,-115,318,445,113,-264,-306
-58,-39,-111,-189,-201,210,284,29,-63,-46
-80,11,-49,-75,-104,-263,245,44,198,-25
-194,9,-1,66,248,-274,187,27,589,37
-71,14,16,152,564,99,258,176,250,89
349,63,-11,105,289,163,345,226,-320,22
779,82,-33,0,-12,-9,329,243,-264,-65
594,39,-21,-17,65,32,147,181,-232,-197
-139,-5,-7,-59,34,201,10,-126,-310,-434
-514,-191,-152,-182,-136,198,-298,-426,-283,-397
-361,-187,-181,-218,-392,-180,-586,-156,-108,-155
-5,-66,-153,-260,-694,-587,-137,595,439,352
71,2,-75,-170,-574,-372,1011,751,491,577
-154,4,71,96,-100,-78,1425,33,99,430
-113,101,191,268,267,78,336,-850,69,451
238,405,392,396,425,246,-723,-1227,270,414
296,381,313,266,203,364,-1683,-940,180,102
57,-39,-8,-25,-89,117,-1118,408,122,-134
-111,-237,-84,-61,-68,-37,-180,741,110,-182
-104,-145,-37,-43,-34,45,184,-178,-145,-234
-47,11,12,-24,-32,-48,476,-208,-347,-274
-60,46,2,7,12,-58,1134,204,-191,-191
137,163,93,119,129,-184,150,31,-17,112
177,166,152,196,248,-176,-1137,-207,-130,-40
-8,85,86,103,62,-238,-703,-281,-179,-352
-140,-110,-154,-125,-8,-123,-1,-62,194,29
-316,-314,-312,-203,275,254,890,316,182,330
-347,-217,-211,-95,440,567,1616,577,-380,-165
-165,-73,-64,-34,135,415,460,477,-477,-523
32,-24,3,-4,-213,56,-749,133,188,98
375,255,264,212,-168,-211,-1807,-300,621,578
367,178,139,60,-118,-271,-1273,-285,678,491
79,-66,-89,-156,-31,-141,604,197,286,-52
-164,-112,-83,-111,29,38,1498,141,-336,-356
-396,-142,-34,-14,1,197,781,-275,-647,-487
-324,-163,-59,-3,-214,78,-306,-134,-326,-114
118,66,30,13,-289,-396,-1035,-41,16,280
342,155,50,-31,-136,-470,-1357,-182,82,194
280,24,-97,-197,-105,-66,-72,-22,224,50
226,63,38,17,44,109,520,121,340,100
22,39,110,181,97,70,603,196,5,-25
-136,39,120,180,103,105,492,195,-157,-211
-31,94,89,84,49,36,63,-12,21,-245
-2,74,-5,-60,-112,9,68,-61,51,-181
-72,-90,-85,-90,-115,40,408,210,-117,-76
-80,-186,-128,-79,0,200,488,372,-15,-14
-159,-243,-224,-207,-108,323,561,266,268,29
-143,-237,-238,-255,-184,133,385,269,320,389
7,-79,-152,-219,-212,-332,-89,-65,-128,201
114,165,81,45,53,-189,175,-705,-426,-174
105,316,307,353,449,483,539,-659,-242,-104
26,237,277,317,435,442,109,0,-67,-220
70,298,273,206,178,-358,-1696,241,-19,-440
2,143,91,41,-31,-585,-2114,50,-26,-261
25,-194,-242,-248,-252,-253,-298,37,60,418
70,-261,-274,-265,-254,-28,366,27,304,877
88,-62,-5,-2,-2,60,173,-489,361,678
92,32,113,137,172,268,-181,-625,413,256
-151,-120,-36,3,55,100,114,187,287,-215
-189,-134,-44,-3,52,52,1156,802,-4,-327
-10,12,74,118,183,306,1249,221,-539,-360
158,59,75,56,112,245,436,-179,-467,-222
115,55,76,51,142,21,-412,-140,70,63
-5,16,84,105,95,-206,-1247,-155,284,179
-85,-45,2,25,-41,-237,-1024,-153,265,79
-72,-35,0,25,-58,-31,97,0,9,-91
-36,15,24,37,-79,24,537,78,-303,-182
19,75,-28,-53,-197,-159,150,35,-259,-167
96,192,-16,-82,-200,-200,13,-29,-214,-176
44,140,-29,-54,-115,-6,107,-4,-124,-98
17,49,-66,-65,-62,-13,119,171,164,248
-42,-14,-26,10,104,31,112,148,177,205
-59,-149,-56,-8,99,128,168,101,128,91
-77,-143,-65,-68,-34,208,193,40,-45,-22
-169,-49,-3,10,40,313,43,-33,-294,-315
-163,-44,0,28,85,30,-149,66,-359,-380
-177,-134,-97,-87,51,-197,-4,154,-124,-166
-295,-349,-347,-290,-26,-119,1476,755,303,170
-282,-418,-386,-301,-35,165,1871,1349,356,225
35,-160,-208,-233,-277,-34,66,895,98,36
446,265,133,9,-326,-214,-502,-102,-12,156
515,499,500,497,204,-130,-1849,-913,-408,-43
203,293,383,460,308,-128,-1910,-1766,-784,-351
301,359,324,288,134,-112,-1044,-2133,-498,-38
473,495,422,301,164,-127,-1099,-1343,-131,124
115,95,109,-20,-79,-298,-480,-287,150,18
-190,-248,-184,-218,-116,-106,380,448,645,322
-267,-267,-234,-195,-36,151,882,722,788,407
-210,-249,-233,-175,-71,216,651,781,747,386
-135,-140,-178,-122,-130,183,194,567,184,117
-110,-85,-113,-85,-132,117,204,343,-225,4
-67,-14,-23,-23,-42,72,319,153,-392,-99
12,67,42,6,-12,50,413,229,-399,-249
38,72,48,13,-19,-45,102,366,-148,-244
-122,-61,-6,69,112,-31,-11,179,80,-190
-119,-113,-49,41,82,-59,254,69,24,-130
95,-16,-16,-20,15,-107,311,-253,-432,-175
133,108,104,25,68,-51,-21,-566,-717,-360
-30,31,53,-24,14,72,-138,-135,-107,-185
-146,-112,-75,-78,-70,82,-303,398,680,403
-184,-153,-148,-102,-71,81,-167,457,594,572
-76,-108,-170,-167,-153,-30,-126,411,155,329
91,-60,-183,-247,-283,-176,-85,245,-76,118
88,-22,-77,-109,-157,-139,159,283,120,-52
-20,0,100,155,170,108,413,461,155,-362
-71,-13,106,204,264,260,536,521,-93,-394
-95,-52,-9,37,100,237,799,184,-127,-187
-167,-113,-104,-91,-41,7,638,-930,-272,-101
-27,38,55,64,90,-96,-420,-1628,-290,-6
268,319,344,361,412,59,-1263,-1432,-124,220
299,240,260,251,321,-49,-1540,-278,215,436
248,131,129,74,45,-258,-695,865,246,267
79,75,68,16,-60,-63,1090,461,-343,-497
-139,-18,16,0,-22,129,1237,-152,-614,-808
-95,-35,15,22,-5,-52,-507,-245,44,36
19,-145,-158,-145,-213,-92,-939,-5,652,844
-83,-255,-286,-288,-352,86,581,660,599,594
40,-103,-236,-316,-377,125,2105,879,374,241
88,106,0,-62,-74,180,1038,491,-21,27
-66,126,153,154,200,-14,-1329,145,-328,-153
-128,85,135,129,205,-159,-2292,-865,-389,-332
-18,90,150,121,100,-114,-1712,-1555,-285,-280
-34,58,107,71,-46,-90,-218,-785,-85,-155
-92,24,73,82,-2,-156,859,137,165,22
-68,52,94,157,105,-109,745,345,180,86
-137,-62,-34,28,47,73,482,501,13,-52
-165,-124,-105,-76,-28,119,181,457,-157,-151
-154,-89,-65,-67,93,87,-30,129,-186,-187
-74,-69,-52,-38,327,229,-70,-110,82,5
233,-36,-47,-10,195,124,-59,-142,320,230
468,10,-43,-3,-76,-115,176,-150,280,115
468,109,34,50,-111,-109,-41,-86,-137,-207
252,80,18,40,-49,-21,188,87,-568,-407
-114,-69,-71,39,66,179,430,490,-79,-137
-230,-9,-44,9,-68,-60,-13,487,395,303
-30,92,42,-28,-190,-379,-68,375,452,450
53,17,40,-54,-38,-485,204,451,429,563
-40,-34,-30,-61,39,94,-22,-102,112,388
-20,42,3,7,-51,451,-252,-648,-141,12
8,101,33,22,-156,56,-262,-478,-223,-219
-84,63,-4,-23,-187,71,-255,-20,-259,-364
-70,67,84,85,63,0,115,40,-256,-319
-89,-65,37,65,278,35,346,-6,-182,-191
-161,-177,-100,-46,266,219,466,33,-72,-123
-96,-126,-83,-68,200,262,410,111,-11,-175
60,20,30,-13,-39,233,-80,133,-302,-298
47,100,60,-53,-399,-7,-304,106,-563,-456
-34,106,65,-109,-541,-342,-467,140,-42,-307
-29,-138,-109,-182,-363,-299,-353,-25,888,586
35,-230,-210,-174,-101,-129,41,-245,760,810
77,-51,-126,-124,-27,-108,324,-32,127,155
-57,-3,-34,-29,60,84,363,-145,-204,-107
-255,-152,-91,-70,-31,524,1706,-325,-134,-53
-256,-319,-279,-252,-244,606,3006,774,558,338
108,-20,-54,-41,-24,-42,15,1488,824,622
218,264,247,245,350,-534,-2509,621,288,104
173,443,454,444,439,-623,-3590,-473,-183,-174
-163,295,328,296,236,-263,-2166,-1166,-532,-266
-489,-71,10,-2,3,-2,149,-1053,-441,-372
-332,-10,52,42,18,61,475,-1015,-272,-239
-118,163,138,145,147,143,487,-947,-187,-96
-35,89,20,117,206,256,985,244,-50,-55
114,-65,-56,76,54,226,876,771,-1,88
82,-131,-91,0,87,49,100,267,-141,56
205,-36,-66,-36,191,-67,-194,8,-44,-45
708,90,-68,-132,-41,-59,-466,7,-51,-101
970,10,-132,-142,-269,-89,-270,26,-229,-62
629,-57,-115,-96,-167,-135,284,137,137,228
99,-22,-52,-91,85,-160,473,197,634,448
-319,-47,50,63,336,66,500,207,310,241
-370,-75,74,155,159,136,312,186,-363,-182
-145,-60,13,34,-219,-43,-20,152,-284,-204
-46,-94,-17,7,-304,-143,-335,25,-40,-99
-120,-104,-19,-35,-290,-10,263,48,-39,-170
-172,-88,-57,-151,-344,-20,297,248,-31,-93
-182,-53,-34,-101,-51,51,-106,116,-8,-15
-115,-18,-4,-11,207,328,-404,-26,46,-4
-95,-115,-145,-171,-48,335,-692,277,-105,-134
9,-67,-139,-209,-301,-66,122,78,-99,-67
149,168,50,-4,-128,-282,504,-343,197,118
163,302,197,174,104,-254,98,-477,261,160
40,311,260,264,193,-65,404,-569,-191,84
57,193,150,173,100,-14,235,-222,-327,31
253,-17,-61,-58,-96,-128,-76,223,2,174
278,59,80,67,46,-87,-906,-136,-46,-111
-205,-33,70,83,65,65,-772,-308,-322,-597
-442,-364,-323,-296,-256,168,883,204,6,-209
-264,-349,-328,-240,-103,327,1043,258,424,661
-65,-70,-69,2,141,376,260,15,140,552
72,154,149,152,204,-39,-472,107,-110,-5
-184,-84,-87,-95,-50,-466,-595,596,42,-112
-305,-299,-329,-357,-290,-497,571,970,98,-112
-19,29,33,30,50,-71,249,649,-59,-123
290,357,396,423,339,211,-1219,66,-109,-1
330,334,356,369,369,310,-1503,-603,-198,20
166,109,118,116,247,6,-595,-789,-277,-34
-130,-132,-122,-132,-17,-227,46,-251,-214,-157
-219,-77,-87,-116,-153,-82,351,-356,-43,-245
-59,-22,-37,-12,-106,91,434,-530,357,90
-101,-123,-119,-38,-80,-20,443,228,535,197
-10,-23,-53,-117,-138,-195,100,244,100,102
125,127,94,-1,38,70,-139,-548,-142,160
112,88,124,151,252,406,13,-619,262,195
102,21,40,65,58,231,81,68,118,12
-48,-91,-110,-95,-184,10,243,230,-396,-181
-299,-260,-220,-133,-134,89,814,132,-256,-250
-218,-157,-109,-10,12,54,471,84,-47,-183
-10,45,77,139,155,-64,-323,-180,-1,-84
148,158,173,208,339,-62,-410,-87,252,217
261,132,115,117,357,-30,-155,224,160,232
229,16,-65,-111,116,-114,218,479,-224,-168
18,9,-72,-137,13,-188,-16,179,-669,-489
-91,3,-31,-64,-147,-174,-210,-133,-788,-576
-123,-40,-60,-63,-287,-62,-68,14,-283,-396
-141,-67,-78,-76,-274,8,311,186,425,183
-98,-70,-8,-52,-246,103,583,155,742,557
55,3,24,-17,-197,333,259,321,713,390
44,72,7,-54,-239,144,-349,276,335,219
78,-84,-178,-281,-461,-255,-549,427,546,698
-61,-245,-283,-349,-441,-280,534,890,586,796
-204,-216,-171,-134,-48,113,1710,1459,-48,58
-198,-20,79,172,335,350,1458,451,-656,-668
1,209,299,337,414,193,3,-1430,-711,-571
201,317,372,344,348,-109,-1606,-2139,-433,-176
338,391,414,362,329,-258,-2356,-2188,-178,130
340,330,295,225,161,-349,-2277,-1528,-8,263
98,51,45,0,-10,-182,-261,-15,-7,77
-28,-60,-38,-30,-4,11,26,728,2,-55
-124,-139,-109,-76,-51,10,-190,684,-25,-162
-197,-170,-153,-105,-83,138,408,590,-30,-220
-209,-83,-52,-9,51,210,595,372,-72,-254
-214,-121,-90,-43,140,197,563,266,-13,-175
-145,-181,-205,-149,50,127,859,352,153,17
-200,-151,-161,-114,25,10,1576,345,-90,-285
-132,-13,-64,-77,-102,-62,701,233,-331,-449
110,-10,-143,-147,-172,-292,-765,334,129,340
455,155,50,51,75,-270,-1586,211,516,879
509,261,245,186,166,1,-1032,-225,420,596
18,45,203,232,288,302,169,-297,62,-31
-308,-121,102,222,319,368,650,-247,-237,-428
-163,-91,29,79,-19,172,526,-310,-235,-300
112,2,24,-22,-338,-170,267,-88,-218,-115
11,-85,-66,-114,-346,-225,433,327,-310,-195
-193,-187,-131,-139,-97,-20,134,441,-301,-287
-76,-119,-109,-117,-41,1,-308,376,-65,-136
180,72,-1,-79,-128,-26,-297,-75,306,76
162,101,-17,-73,-89,-84,345,-138,861,332
292,131,-35,-46,49,-300,392,-134,654,520
257,182,-49,-103,52,-381,-155,-464,-240,220
82,226,63,-21,171,28,-469,-442,-532,-211
-130,51,99,85,232,502,-250,44,-405,-517
-161,-117,-14,24,115,644,-98,195,-124,-343
-96,-225,-224,-198,-140,216,204,140,280,223
-195,-233,-218,-178,-296,-1,1057,143,325,420
-219,-149,-107,-39,-206,115,860,276,329,396
-9,139,50,13,-245,-107,-98,577,76,-19
58,346,330,300,40,-249,-1114,504,-141,-264
74,272,380,369,288,-193,-1631,-299,-101,-90
-34,-22,96,73,147,38,-58,-797,45,48
-55,-97,-68,-136,-178,39,573,-1026,224,93
22,-20,-29,-93,-263,53,425,-569,307,96
106,-3,-44,-77,-240,-94,-52,394,67,33
18,-101,-144,-135,-209,-145,122,1222,-78,-91
-166,-139,-136,-84,-81,21,402,997,-17,-127
-161,-65,-36,17,91,81,345,110,-228,-152
7,92,63,93,215,17,-90,-419,-366,-162
136,116,66,71,237,-151,-398,-966,-209,-127
115,24,-18,16,301,-46,234,-1212,72,39
54,-28,-51,-11,232,103,630,-332,123,148
68,-160,-171,-136,-34,19,-35,723,200,143
5,-189,-192,-139,-159,-127,-287,1572,441,206
-35,-36,-14,14,-69,-99,-254,1255,224,118
-14,71,107,102,63,171,36,287,-322,-217
-21,71,63,9,-6,216,73,-280,-380,-228
99,99,74,5,-93,-95,-726,-1573,-93,111
222,264,303,290,144,76,-851,-2312,105,302
130,209,271,300,191,192,4,-763,7,157
-56,-4,17,34,-37,34,397,659,261,64
-108,-81,-74,-41,-46,-50,255,791,558,56
-140,-128,-113,-119,-76,-84,160,468,31,-149
-157,-162,-177,-216,-188,-104,369,253,-445,-284
-76,-79,-113,-144,-131,-249,57,147,-333,-226
-106,-57,-24,30,93,-64,119,277,-209,-201
-94,-54,-26,37,85,13,610,477,-97,-164
-3,49,37,28,30,17,718,154,-34,-97
84,147,122,78,23,-24,-58,-310,3,-7
207,145,160,132,8,-89,-737,-411,81,236
265,142,170,161,41,-136,-1698,-56,126,302
-23,-102,-90,-112,-148,-214,-975,442,253,114
-89,-148,-150,-150,-150,-16,220,329,506,207
5,4,-7,39,75,181,456,-94,315,161
-2,-8,3,83,198,252,512,-370,-141,7
3,15,23,88,184,172,292,-276,-331,-66
-19,34,21,28,58,31,216,229,-282,-240
-33,-19,-38,-73,-8,-101,56,425,-72,-150
-155,-147,-99,-115,73,55,34,178,-67,-44
-184,-216,-148,-146,30,171,84,-386,-259,-146
-7,-95,-60,-70,-49,40,179,-625,-153,-170
85,-14,-1,-17,-70,-10,89,-176,43,-34
41,-19,8,10,-65,-41,2,465,-100,88
18,-37,-12,0,-75,-56,40,743,-86,248
-51,-66,-83,-48,-132,-60,-75,334,244,144
-118,-29,-83,-62,-116,-19,-39,64,548,41
14,197,27,18,-5,84,61,-233,312,-86
229,445,188,123,69,-6,-405,-1278,-315,-15
264,402,281,193,96,-99,-296,-1335,-446,112
156,125,227,173,138,18,-32,26,-13,163
-72,-190,-13,-23,-2,-9,57,711,182,52
-200,-231,-125,-112,-117,-38,72,607,125,-56
-184,-132,-73,-70,-82,6,37,315,16,-77
-164,-118,-57,-31,-26,-45,163,127,-111,-90
-143,-123,-121,-72,-54,-97,328,207,1,-101
-86,-64,-105,-83,7,-45,483,263,37,-212
-142,-70,-120,-67,158,102,565,216,-176,-330
-311,-285,-294,-171,229,185,1154,497,-291,-263
-12,-187,-177,-73,220,281,604,610,-226,43
518,149,128,130,158,140,-663,404,-71,198
592,467,441,347,148,-133,-2051,-331,117,369
382,361,383,263,-100,-432,-2572,-1358,467,457
92,62,91,-10,-376,-488,-1082,-1278,406,266
-152,-90,-50,-90,-279,-51,653,-612,-312,-173
-183,-80,-64,-72,-124,285,981,-39,-677,-369
-86,-82,-84,-135,-204,233,582,554,-314,-43
-46,-54,-56,-97,-149,75,364,429,-96,-53
-73,-12,-18,4,6,55,254,82,175,-20
-42,45,-3,3,-29,-8,70,-248,704,217
64,168,75,30,14,-23,29,-490,757,105
120,153,109,69,136,8,27,-96,2,35
59,-55,-3,48,142,-52,-130,396,-495,84
-45,-149,-87,-4,64,-80,-148,450,-219,-42
-92,-71,-56,-5,32,-55,61,334,-10,-123
-57,-22,1,44,102,1,311,132,120,55
29,36,75,90,154,-7,347,22,169,145
27,19,45,32,91,22,110,120,-16,-48
23,-6,-23,-40,-24,90,54,-199,-188,-166
60,40,-1,-39,-98,-14,-107,-451,-201,-213
-86,-7,0,-17,-77,42,-112,-154,-138,-220
-190,-128,-98,-51,2,202,48,193,98,35
-95,-141,-120,-58,80,39,106,313,124,207
-110,-111,-94,-51,87,-9,230,349,-142,-66
-146,-144,-101,-74,32,130,328,156,-262,-273
-101,-111,-74,-84,-51,117,466,41,-171,-183
9,44,54,1,-95,-86,32,-51,114,97
84,140,138,78,-17,-35,-372,-184,460,233
114,162,149,129,90,60,-224,-217,307,133
116,122,82,62,88,-141,-227,-172,-228,-48
131,39,-42,-90,-61,-62,11,16,-417,-169
76,95,-26,-92,-169,-109,-275,67,-46,-12
-44,136,46,29,-47,-130,-542,311,521,181
8,-3,25,74,108,95,-144,416,683,312
129,-42,42,71,105,61,225,67,-26,85
91,-35,33,28,3,-108,246,-126,-423,-184
17,-68,-9,-11,-44,-135,92,-370,-360,-170
-59,-105,-68,-25,61,-11,-33,-578,-234,19
-89,-162,-159,-151,-70,17,-6,-160,-220,41
-109,-160,-187,-188,-188,39,188,667,-220,-127
-113,-115,-146,-172,-215,163,530,733,4,-176
-128,-89,-129,-149,-171,163,669,543,476,-68
-18,58,49,80,86,87,62,171,454,98
233,334,327,314,249,-101,-841,-561,277,373
329,352,346,301,156,-276,-1112,-761,100,342
131,88,138,102,-9,-92,-408,-332,-238,77
-102,-124,-32,-16,-88,37,327,127,-321,-179
-164,-157,-78,7,21,5,418,168,-180,-258
22,-22,-6,58,91,-47,30,-228,-120,-132
25,9,5,13,143,17,-31,-193,-326,-188
-49,-115,-146,-188,14,-180,-115,-694,-372,-135
-8,-45,-119,-164,-18,-168,185,-1135,-250,38
-57,17,-45,-50,60,471,1601,-258,18,-99
-130,73,-8,-13,-43,442,743,747,386,-146
-14,197,88,43,-179,-130,-774,664,471,97
134,132,134,110,-95,-369,-1903,306,508,677
48,-166,17,48,-11,-361,-1889,113,387,864
21,-176,-106,-90,-69,-122,106,250,57,190
-60,-65,-95,-54,27,293,862,168,-226,-350
-179,-43,5,104,216,593,635,-32,-450,-491
-46,9,36,75,76,324,230,-23,-250,-169
204,151,113,14,-132,-182,100,150,24,147
252,195,129,-7,-177,-395,-105,14,145,65
0,-50,-92,-180,-276,-347,-105,-60,239,-112
-125,-105,-90,-102,-108,-190,14,49,-85,-180
-108,-95,-44,3,91,66,17,66,-415,-118
-212,-233,-167,-102,203,127,665,105,-398,-159
-274,-241,-149,-28,285,263,1166,135,-163,-183
-91,-30,19,115,193,293,351,16,105,-101
152,193,185,226,137,209,-557,-267,372,107
288,302,283,288,128,-84,-1771,-423,332,334
39,88,88,68,-118,-419,-1379,-212,-144,149
-223,-94,-152,-154,-260,-347,202,161,-225,-147
-242,-131,-235,-257,-262,-90,599,434,-67,-203
-117,-122,-216,-282,-274,-70,614,746,-10,-140
130,64,38,-16,38,153,850,466,-142,16
271,144,165,137,218,439,1627,-226,-107,59
226,101,141,131,113,319,277,-574,116,-1
44,0,8,4,-93,-154,-1518,-865,299,62
237,31,-39,-27,-55,-392,-1958,-1011,471,407
172,-28,-41,27,135,-106,-668,18,207,379
-143,-66,-57,0,131,139,792,811,-317,-26
-229,16,22,42,25,103,1167,724,-441,-393
-220,12,18,37,-31,39,544,616,-29,-189
-68,51,0,-5,-5,91,-126,295,182,127
78,155,99,90,89,-13,-944,-557,67,130
-20,8,22,5,-10,-92,-924,-1144,-53,-72
-53,-87,-45,-52,-102,-98,-143,-763,-97,-60
45,-54,-16,17,-23,-33,415,-107,-154,-60
97,-28,-4,59,52,14,533,339,-24,-38
69,-11,6,50,54,-11,459,422,188,79
-15,0,39,78,163,194,732,374,272,21
-58,35,91,120,257,374,331,141,-16,-49
-155,16,77,66,126,183,-195,4,-252,-39
-174,-9,10,1,80,-185,-822,0,-132,0
-72,-9,-41,-65,107,-263,-726,-40,-211,-116
95,-25,-99,-130,-242,-272,72,66,-261,-111
314,-3,-83,-160,-476,-268,532,105,-127,-6
349,19,-59,-101,-251,-1,584,92,11,-59
139,35,-14,-53,-90,134,269,124,310,21
106,10,-41,-134,-199,4,-81,436,655,214
56,6,-18,-64,-134,-51,-253,379,451,267
-75,-22,13,30,-41,-166,-194,-28,-154,58
-174,-82,-29,-20,-2,-86,-107,-130,-590,-444
-232,-163,-115,-147,-13,208,6,-454,-670,-544
-164,-191,-172,-200,-43,208,-30,-606,-427,-80
-209,-153,-76,-46,75,20,333,-42,-49,174
-189,-100,27,165,300,68,445,324,716,457
35,63,106,207,431,156,-157,11,934,495
208,216,148,135,176,50,-429,-348,385,276
202,273,179,134,-22,-194,-878,-256,51,136
51,187,65,16,-189,-320,-283,84,176,-71
49,142,27,18,-227,-300,330,169,250,-172
106,173,137,165,-80,-151,142,32,-336,-182
21,118,141,184,66,-7,501,481,-289,-104
-54,-122,-51,-9,82,207,914,627,208,49
-167,-364,-266,-256,-32,477,723,492,42,-3
-317,-403,-324,-324,-73,621,918,424,-222,-323
-348,-291,-240,-219,14,259,468,-98,-296,-395
-121,-71,-30,-1,237,-175,-957,-341,-177,-116
287,249,246,233,427,-197,-1748,-408,-126,101
456,345,222,132,182,-224,-1514,-1126,-117,201
287,303,86,51,68,-73,-804,-1416,-20,271
81,308,70,86,-39,251,108,-357,4,147
65,255,133,122,-136,76,238,307,114,69
55,45,151,137,-142,-347,-90,336,188,-54
-167,-244,-13,14,-158,-308,318,454,79,-145
-194,-298,-159,-148,-287,29,655,157,-116,1
5,-38,-54,-144,-409,-91,723,-5,-228,-142
-15,86,54,-51,-261,-63,807,165,-50,-306
-104,0,0,-40,-114,-23,83,154,591,177
23,18,-5,-39,-50,-117,-344,101,647,623
127,67,52,48,117,138,-623,-63,-35,391
69,8,-9,-21,93,418,-461,-146,-224,-23
-142,-185,-198,-191,-78,264,299,159,-159,-236
-326,-316,-317,-279,-221,-95,1154,465,-280,-383
-262,-176,-142,-81,-40,-82,1148,360,-274,-313
25,41,98,159,187,30,600,277,-14,-51
281,211,228,261,248,-105,-881,210,412,186
391,318,268,234,174,-252,-1860,-164,448,246
242,292,265,238,236,21,-1018,-450,-225,-100
-37,93,117,144,237,149,-249,-286,-478,-318
-27,-66,-54,-32,56,-58,381,-205,-111,-82
56,27,38,-5,58,-49,158,-606,99,-17
-72,-45,-76,-144,-73,-85,-37,-142,276,118
-214,-293,-324,-306,-227,20,351,706,512,555
-133,-301,-301,-229,-199,109,338,697,385,699
17,-44,-9,98,132,150,144,199,-296,-32
-9,36,93,183,242,162,27,-344,-562,-445
-91,-50,-14,-6,28,54,586,-889,-460,-391
-96,-67,-65,-122,-107,54,1258,-467,-264,-232
-95,-70,-44,-65,-44,46,503,553,-90,-131
9,39,68,60,77,-56,-755,810,122,33
146,141,155,160,200,-77,-1428,490,364,158
157,138,145,141,167,-124,-1338,93,329,49
69,98,72,48,40,-131,-422,-468,-153,-143
0,58,43,47,159,-84,127,-992,-501,-251
-69,-55,-59,-57,75,-30,422,-949,-507,-308
-158,-176,-229,-222,-254,144,1119,-203,-325,-180
-105,-167,-196,-208,-300,94,612,594,29,231
-82,-84,-53,-61,-155,3,-373,606,36,221
-82,-104,-31,-21,-122,31,-574,373,405,277
111,49,56,-1,-111,-215,-643,103,1124,577
152,120,129,74,26,-164,170,-108,726,293
65,149,196,174,133,41,793,-327,-488,-206
-25,85,129,137,96,178,393,-208,-632,-223
-116,-42,-16,1,-16,120,-14,75,-193,-75
-83,-22,-21,-17,17,187,-102,172,134,31
-85,-31,-25,-35,58,123,-112,222,112,-76
-170,-74,-57,-57,169,37,261,223,-119,-192
-78,-25,-26,-21,85,-176,-222,84,-175,-89
168,46,11,3,-105,-394,-551,35,-122,38
388,65,50,33,-138,-368,-575,-127,-136,32
320,-19,20,21,-119,-157,15,-222,-164,-61
98,-61,-19,6,-13,225,835,-32,-64,-121
-30,20,26,27,32,239,593,100,33,-192
75,124,85,24,-51,-78,-149,-32,2,-76
219,212,146,71,37,-132,-881,-206,-177,16
-23,70,55,4,80,-130,-702,-85,-394,-244
-396,-297,-258,-241,-174,-5,356,357,0,-42
-446,-533,-533,-448,-377,175,979,813,788,737
-182,-283,-365,-348,-290,163,861,550,734,725
-94,40,-7,60,113,281,376,289,338,80
137,296,269,345,345,211,-359,330,356,-78
255,321,363,402,363,15,-746,-260,-120,-134
165,176,235,206,110,-265,-919,-718,-629,-200
107,128,89,4,-117,-273,-279,-828,-553,-225
-22,117,64,18,-31,-87,126,-898,-383,-219
-126,39,14,11,46,97,-77,-677,-354,-169
-131,-73,-33,-5,86,142,32,-317,-177,-105
-157,-191,-32,21,136,117,109,-193,60,-7
-201,-251,-97,-24,52,43,486,168,342,96
-181,-174,-119,-98,-101,-3,951,378,307,-8
-71,-50,-133,-114,-148,32,597,473,-7,27
260,86,-53,-42,-22,-32,-324,404,78,255
610,119,80,74,134,-136,-1025,212,125,187
376,66,104,108,103,-164,-819,2,-67,-80
-32,86,8,-10,-30,-134,-147,99,45,-160
-73,266,62,-2,-67,-93,105,188,119,-154
-30,255,64,17,-62,-75,321,72,-109,-89
-14,-10,-47,-60,-116,-86,401,100,-122,37
-7,-221,-112,-165,-254,0,189,-24,-100,183
-130,-277,-149,-187,-227,251,94,-108,-10,415
-213,-178,-89,-59,18,396,89,-17,51,233
-138,-15,55,107,182,354,281,85,250,-127
41,115,150,188,277,105,773,243,599,-44
125,146,172,185,391,57,189,210,561,69
38,69,95,88,246,9,-538,-41,-98,-49
-26,-2,0,-34,-53,-192,-817,-225,-490,-154
-74,-29,-20,-5,-122,-237,-620,-400,-434,-222
-141,-85,-104,-91,-269,-141,163,-336,-382,-222
-111,-97,-117,-139,-243,-52,683,46,-250,-153
-28,-44,-57,-67,-97,-26,225,207,-40,-8
4,-17,-48,-31,-12,261,-315,140,213,95
-21,-6,-16,-3,-20,156,-421,34,462,221
18,60,32,21,-11,-192,-293,9,398,255
127,64,38,52,148,-208,45,114,0,67
241,39,5,20,139,-169,83,86,-202,-89
201,-10,-61,-92,-69,-104,-43,-119,-173,-93
17,-87,-111,-140,-157,6,139,-105,-123,-112
-189,-128,-98,-79,-76,208,769,213,-197,-293
-260,-102,-72,-42,-2,152,822,527,-208,-284
-122,-6,-15,0,11,-98,166,618,-149,-81
106,194,188,191,116,-118,-594,148,-149,34
200,321,342,325,145,-63,-812,-796,-44,42
179,299,308,238,73,-61,-666,-955,172,57
-64,-45,-36,-65,69,-34,-336,-139,439,235
-199,-326,-298,-245,116,132,242,351,475,472
-163,-179,-153,-113,54,113,478,230,104,154
-280,-146,-134,-119,-202,-89,491,310,-27,-184
-278,-185,-199,-186,-337,8,779,567,77,-69
144,-41,-125,-159,-375,21,532,441,46,177
397,124,107,123,-51,149,-62,-250,-98,2
35,143,277,346,335,462,200,-873,-365,-364
141,149,209,223,244,181,-106,-1204,-414,-180
377,233,208,159,112,-260,-920,-471,-30,167
195,168,109,36,-76,-376,-1244,404,196,205
-18,2,-30,-74,-166,-157,-274,354,45,-34
-86,-50,-64,-76,-77,-80,299,49,15,-142
-51,-16,-8,-5,27,0,11,-464,2,-94
9,30,61,63,71,-114,-740,-440,-34,151
36,0,21,16,15,-246,-965,144,0,300
-13,-58,-51,-41,6,-35,-22,439,77,70
-94,-96,-86,-70,12,92,606,338,192,-127
-108,-80,-56,-61,11,202,687,269,230,-187
-86,-57,-38,-26,19,170,892,305,73,-81
-130,-126,-86,-34,75,173,985,204,-96,-19
-93,-53,-18,14,121,137,94,-43,-73,-22
23,98,89,78,80,-48,-717,-251,-152,-45
61,160,121,96,32,-119,-858,-355,-193,-43
41,-2,-63,-59,-97,-125,-531,-54,-62,32
77,-32,-119,-128,-173,-187,122,288,24,39
109,131,45,12,-45,-125,277,143,74,7
26,98,69,49,28,-30,172,57,166,17
-99,-104,-23,-25,12,80,353,180,196,-31
-131,-220,-133,-93,0,197,659,11,84,-45
-55,-104,-88,-44,36,313,530,-121,0,89
-55,0,4,58,138,511,44,223,-16,136
-108,-18,-6,40,68,149,-342,366,78,162
-58,-36,-30,0,4,-172,-346,-228,70,63
-3,33,0,-7,-5,-286,-104,-504,-218,-268
63,74,40,-5,-122,-429,380,-149,-260,-247
38,54,47,34,-75,-157,1077,75,-148,-135
-89,-79,-80,-62,-58,74,719,38,35,-55
-50,-105,-134,-152,-107,79,-368,98,426,248
195,144,133,77,73,25,-1307,-117,432,448
280,284,309,290,186,-86,-2166,-375,-1,233
80,87,110,129,90,12,-953,-56,-212,-73
-72,-78,-52,-29,95,19,416,373,-169,-209
-87,-118,-61,-49,123,64,604,292,-154,-193
-51,-94,-53,-57,114,120,508,108,-149,-160
-101,-99,-89,-87,71,136,366,-18,-110,-158
-95,-105,-147,-122,-27,-27,135,-167,37,-44
-2,25,-59,-25,-103,-62,-16,-450,26,65
-1,141,21,21,-95,100,385,-354,-72,86
-49,46,-29,-72,-78,297,1419,249,60,-45
-111,-66,-42,-55,-77,303,1493,787,89,-131
-94,-111,-55,-78,-149,-17,17,1102,-46,-78
0,-56,-29,-56,-172,-289,-1473,820,12,7
143,105,95,29,-191,-564,-2447,-269,220,131
144,74,34,-62,-306,-495,-515,-973,167,33
175,93,77,42,-123,12,1194,-1061,125,58
158,167,187,170,58,302,487,-1056,60,50
101,161,185,136,32,237,-270,-745,-168,90
42,79,121,101,76,13,-774,-45,-4,255
-48,-50,22,45,132,-65,-337,476,317,253
-103,-132,-63,-5,141,-42,269,542,296,147
-109,-101,-78,-30,112,-33,352,341,-34,-72
-114,-101,-69,-44,62,17,340,169,-253,-178
-106,-92,-54,-24,15,62,296,134,-217,-213
-44,-69,-51,-22,-30,12,246,189,-289,-184
63,-43,-102,-79,-40,-36,352,297,-191,-105
23,-13,-117,-112,-60,18,726,434,130,-80
-4,86,-59,-76,-95,90,476,332,170,-77
55,210,78,69,-4,112,-265,60,-3,-2
134,159,192,218,220,20,-829,153,154,109
-4,-81,68,103,243,-33,-158,-164,-28,5
-149,-172,-104,-108,92,-4,422,-769,-264,-113
-22,-23,-67,-99,-57,-109,-287,-420,187,16
153,180,121,86,-66,-215,-1116,-372,229,119
201,206,193,190,21,-172,-1554,-716,64,192
37,-6,39,90,27,98,-24,-63,91,156
-28,-37,-9,-3,-32,202,813,396,167,238
17,45,33,-28,-72,128,849,369,-4,196
8,-8,-18,-67,-95,-106,564,388,-222,-118
-6,-47,-69,-133,-179,-319,-441,293,-184,-215
-53,-105,-124,-170,-159,-74,-425,181,-3,-170
-39,-94,-83,-86,6,178,141,163,154,-101
-115,-145,-79,-55,52,268,487,108,57,-129
-302,-278,-201,-142,-16,345,991,8,-199,-195
-345,-296,-251,-198,-87,347,1598,187,-290,-210
-147,-89,-68,-46,-67,80,1060,445,-164,-91
211,264,281,238,71,-157,-617,136,-58,137
493,521,503,437,299,-210,-1963,-266,121,262
289,341,275,246,322,-303,-1323,-664,131,165
-7,14,-53,-47,131,-346,-470,-801,-66,-50
-93,-123,-186,-129,38,-203,-517,-768,-258,-150
-103,-150,-160,-114,57,-92,-602,-245,-68,-51
-77,-109,-63,-16,43,218,-495,493,12,138
-172,-189,-105,-26,-168,253,437,1007,27,193
-171,-135,-79,8,-185,-1,1210,463,-19,-56
-96,-35,2,71,47,263,987,-358,39,-164
89,79,87,125,285,490,332,-549,476,82
357,292,266,212,329,268,-422,-451,647,316
281,236,220,147,104,-16,-507,-126,-15,210
21,0,-28,-100,-218,-375,-423,52,-604,-39
-78,-98,-164,-276,-443,-546,-558,116,-437,-206
-103,-69,-98,-162,-266,-346,-278,215,-235,-272
-126,-40,-41,-34,-213,-165,81,229,29,-249
-121,-84,-77,-96,-300,85,649,327,441,20
-32,-52,-65,-126,-275,98,837,250,342,391
34,36,0,-56,-164,17,727,73,20,226
-10,-4,42,62,79,98,223,-153,-60,-68
-66,-11,109,193,281,92,-583,-76,-102,-177
-39,-37,23,41,127,71,-390,321,-31,-82
55,-83,-114,-132,-84,62,-38,450,64,46
120,-54,-50,-80,-74,-72,-12,-75,-9,44
89,-31,5,18,53,-116,95,-783,-156,-16
113,46,25,67,68,-165,-11,-792,-127,15
104,141,58,74,30,-146,224,-342,-111,-30
62,129,3,-3,34,3,313,163,-73,-66
6,16,-88,-80,36,111,193,377,-5,33
-8,-89,-62,-40,59,120,282,378,33,93
-120,-181,-48,4,124,152,754,616,31,-48
-249,-218,-121,-80,59,31,359,612,12,-218
-167,-30,-15,-11,62,-49,-693,119,-98,-312
-15,138,169,197,274,217,-1554,-418,-16,-38
18,45,112,174,253,418,-927,-787,178,411
127,123,135,137,61,171,-15,-623,58,341
95,109,65,22,-143,-149,333,204,-88,40
