8,-14,12,-2,28,18,81,50,-89,0
-24,-3,-6,-2,14,53,117,-86,9,-23
-55,-44,-56,-47,-26,-66,-136,-241,-160,-67
-44,-12,-26,-39,-18,0,-133,-135,8,-20
-13,-15,-43,-66,-57,85,2,118,-3,35
12,34,-28,-28,-62,53,152,143,148,58
-11,8,-38,-28,-41,-107,37,49,-26,-8
-36,0,-21,4,15,-49,49,14,33,-64
-31,-34,-6,-5,25,9,10,51,-70,-41
3,6,37,21,22,12,11,56,78,1
16,-21,11,-14,-15,-4,-15,48,-36,0
-14,-28,3,-2,0,14,70,16,66,-18
-39,-45,-14,-10,38,82,47,-10,-59,-22
-26,16,14,13,48,102,76,-5,70,5
-13,-15,0,-2,9,-57,-18,7,-63,-6
0,8,7,25,-8,-121,-8,55,49,-1
30,-4,-31,-37,-70,-94,-87,61,-55,21
55,29,-18,-67,-138,-5,-80,20,84,56
37,4,-16,-57,-127,-39,-43,0,-26,38
13,23,19,28,-5,37,156,21,108,31
-9,11,24,53,88,112,77,-19,-40,2
-15,36,35,85,127,98,32,-30,46,-16
-25,0,-2,39,73,9,-18,27,-55,-18
-81,3,-8,9,40,-16,26,83,74,-40
-121,-46,-53,-23,10,-28,-3,52,-78,-79
-119,-39,-24,-10,18,31,138,-18,-3,-83
-97,-51,-11,-29,-11,-9,84,-48,-100,-61
-39,5,22,-3,-11,-25,-94,-7,66,-12
87,12,0,-32,-34,-75,-291,-11,-25,51
265,49,33,-11,-25,-39,-180,-63,90,121
296,46,50,12,-4,-40,-139,-166,-48,112
90,35,54,38,17,1,-15,-161,37,45
-66,-35,1,-19,-15,-13,-20,-163,-108,-51
-72,-18,-1,-45,-3,75,47,-206,-38,-78
-62,-34,-37,-77,-16,19,25,-126,-157,-60
-38,-10,-28,-41,-15,-55,9,95,28,-8
4,-1,-18,-20,-14,-68,-84,217,-23,37
66,60,61,70,10,8,66,315,127,94
89,62,106,155,62,97,163,294,-8,100
34,62,92,220,119,210,135,-91,46,39
-10,-11,0,112,64,73,-17,-270,-87,0
-1,26,-12,-20,-45,-123,42,92,97,-23
-36,-32,-33,-43,-42,-104,-56,19,-158,-35
-36,21,4,10,-2,5,38,-5,108,-21
-43,-33,-33,-36,-11,19,-55,-17,-176,-24
-42,28,16,11,42,138,55,-11,93,-11
-17,21,-3,6,34,70,0,5,-7,7
6,32,9,15,23,-29,21,-3,118,21
0,-23,-2,-21,0,-90,-41,-32,-40,0
-3,0,8,-22,-12,-52,-9,-6,53,-9
2,-15,-17,-52,-35,-92,-79,12,-73,-11
-1,1,-15,-31,-11,-29,30,25,64,-6
-29,-53,-59,-50,-25,14,113,40,-63,-21
-41,-66,-69,-37,-49,78,237,84,81,-21
-47,-68,-71,-33,-34,44,97,56,-23,-24
-54,-9,-15,-23,0,96,35,-13,37,-32
-7,20,14,-32,-8,50,-126,-2,-70,-9
39,74,61,11,-11,-9,-159,58,113,57
63,78,56,25,5,-142,-230,-31,-11,64
52,94,48,36,26,-75,-123,-152,68,37
31,9,1,-14,-21,-23,-28,-54,-32,36
44,2,0,12,-28,-48,70,-24,84,44
-13,-57,-46,-9,-33,-139,-100,-174,-122,-29
-61,-43,-24,-18,-4,-51,-108,-92,-14,-40
-29,-21,-31,-3,3,71,-18,81,-69,-15
15,7,6,72,31,173,111,136,69,-5
55,-35,13,76,11,149,98,134,-26,-5
70,-27,4,41,-13,17,150,108,84,-8
54,-51,-52,-86,-12,-95,52,41,-70,-30
7,6,-17,-57,26,-81,2,15,64,-14
-15,4,8,-21,19,-68,-106,-24,-41,-8
5,54,43,-1,0,-16,-2,-80,80,3
-13,20,6,-32,-25,20,50,-134,-79,-26
-13,43,10,18,-2,59,-35,-166,-10,-34
6,3,11,24,-1,1,-118,-65,-76,6
14,-12,14,23,-8,16,9,35,84,42
-21,-50,-16,-7,5,73,57,53,-54,7
-57,-14,1,18,53,70,106,51,27,-20
-50,-14,-12,-1,50,-32,13,35,-101,-25
-23,22,12,7,23,-14,-1,18,49,3
13,7,3,-21,-29,-62,-61,19,-47,28
19,22,15,-7,-30,30,4,11,83,20
7,-16,-18,-42,-57,107,26,5,-14,8
0,18,-6,-40,-65,-22,73,21,158,43
-18,-5,-44,-65,-55,-104,-5,-9,1,19
-50,-29,-43,-33,-25,-4,13,-27,-16,-64
-39,-70,-42,-36,-21,90,20,87,-141,-92
3,10,21,5,-17,76,87,174,64,-21
31,15,48,23,22,-4,-13,162,-60,7
42,35,76,61,61,-29,-35,72,29,26
32,-25,39,43,49,-35,-93,-48,-70,39
20,-9,23,22,30,-5,-42,-61,99,51
6,-31,-1,-5,14,-19,-104,-92,-8,34
-1,1,23,50,55,36,-38,-178,72,21
-30,-36,-8,29,39,26,-44,-137,-114,-14
-13,-25,-42,13,22,18,53,-35,-2,-29
18,12,-66,-35,-31,-39,8,-20,-104,-38
9,97,-15,-41,-53,-43,36,27,35,-27
50,71,-5,-42,-43,-53,4,43,-48,7
72,61,25,12,4,25,107,11,70,12
9,-55,-14,-2,-11,12,58,-35,-82,-19
-16,-52,-13,18,-7,22,47,-39,32,-25
-52,-41,-41,0,-1,-2,-2,39,-38,-15
-43,9,-12,30,30,11,3,103,97,-1
-28,-31,-6,9,34,0,-44,94,-67,-38
-13,16,18,15,27,29,59,170,76,-14
16,45,12,-10,-18,-40,60,232,39,56
7,41,17,-20,-49,-30,72,128,175,69
-15,-29,-23,-56,-73,-1,-59,-141,-36,18
-25,-13,2,-8,-18,-36,-74,-226,5,-23
-45,-41,-13,-11,-25,-161,-224,-106,-101,-29
-49,-31,-23,-22,-54,-136,-268,-53,45,-11
-12,-42,-42,-32,-52,-39,-169,26,-60,-16
58,4,0,11,2,22,60,58,82,-5
42,-15,-10,-11,19,55,115,-15,-22,2
-25,14,0,29,62,159,181,-109,27,7
-19,20,9,45,83,87,155,-214,-185,4
34,76,70,81,95,108,142,-284,-74,23
39,22,42,28,48,179,42,-119,-107,21
15,-1,8,-4,-9,77,110,145,104,10
7,-44,-33,-36,-43,-181,2,200,8,-4
11,-9,-16,0,-9,-109,-36,130,132,-4
15,-16,-12,-7,2,-36,-139,18,-14,-3
-8,32,27,12,38,64,-62,-31,80,-12
-39,-3,-1,-14,-1,31,-28,-45,-71,-33
-45,1,-24,-24,-38,1,54,-61,35,-30
-30,-35,-41,-19,-61,-81,1,-51,-84,-17
-5,1,-5,9,-43,-78,-31,-31,55,-2
7,-4,-12,-15,-74,-115,-94,36,6,33
-3,13,-2,-6,-50,-102,-4,51,100,22
-22,-49,-35,-32,-42,-60,-56,7,-99,-35
-14,-14,-8,-3,-6,32,24,72,31,-21
15,3,13,15,26,63,0,90,-77,18
51,38,50,44,51,118,119,160,84,65
49,11,26,1,17,22,181,275,-20,47
8,10,37,-7,13,-37,184,47,45,-6
-42,-45,-23,-62,-37,-70,26,-142,-113,-54
-72,-58,-33,-54,-16,69,30,-47,-8,-59
-80,-93,-44,-11,41,156,8,120,-68,-37
-59,-24,4,92,114,166,-25,55,82,-18
-40,-34,-6,107,70,131,-84,-106,-40,-16
-27,-3,2,86,17,23,-14,-138,105,-10
7,23,2,-40,-9,-140,-72,-244,-31,1
36,90,26,-41,30,-62,-50,-312,55,26
116,108,43,-11,33,81,-164,-159,-10,94
134,70,54,-10,-59,12,-106,192,150,88
-13,-65,-25,-82,-163,-217,72,482,18,-33
-85,-57,-14,-28,-99,-33,271,598,118,-58
-97,-96,-32,-35,-17,104,124,451,13,-47
-108,-89,-42,-83,-4,-21,-103,229,124,-65
-45,-51,-35,-138,-82,-188,-116,221,26,-14
71,59,-1,-112,-108,-222,76,18,53,13
20,43,-32,-90,-50,-190,-93,-353,-185,-27
-17,48,0,-5,60,-17,-258,-569,-127,12
41,44,98,252,200,135,-426,-691,-307,41
70,39,135,416,257,274,-245,-594,-137,58
115,21,65,138,141,269,13,-281,-65,155
190,119,108,56,95,190,177,-328,96,165
221,155,74,47,62,-48,-47,-493,-88,30
217,152,-9,-12,-35,-116,-57,-104,0,-57
32,87,-36,-53,-76,-75,62,260,-117,-65
-121,30,4,-21,-28,43,296,407,33,-36
-111,-75,-28,-37,-23,48,303,383,-10,-13
-163,-156,-93,-85,-57,9,296,381,153,-49
-197,-188,-149,-121,-63,-45,146,365,37,-90
-151,-84,-61,-42,18,24,-21,119,140,-48
-57,-31,-17,-35,11,16,-142,-78,58,15
98,19,17,-12,-33,-48,-146,-191,167,62
172,27,52,24,-30,-96,-157,-278,-136,44
66,64,112,122,29,-32,-48,-182,-92,29
-12,28,86,100,8,-75,-183,-114,-144,19
-12,14,70,67,20,-27,-198,-121,-17,-43
38,-57,1,-15,23,-29,-146,-51,-91,-50
110,-28,-53,-37,-10,38,115,125,123,20
47,-13,-70,-48,-16,81,259,245,-16,2
0,44,3,2,-13,27,304,244,110,2
-81,-36,-38,-50,-55,-19,334,217,-2,-28
-184,-97,-82,-93,-96,10,368,210,84,-79
-222,-141,-124,-115,-107,36,314,142,-74,-94
-206,-96,-94,-61,-45,12,214,68,16,-87
-86,-32,-41,-9,0,-127,-175,-72,-60,-14
-3,60,85,115,106,-69,-174,-62,81,56
22,96,173,169,178,-16,-242,-83,-23,76
44,157,174,141,173,-20,-437,-130,108,85
123,59,37,-41,16,-50,-588,-82,-30,50
354,77,-33,-119,-86,4,-465,-131,75,85
310,46,-115,-152,-97,174,-184,-153,-96,56
100,67,-87,-113,-92,287,257,-21,51,14
-1,46,17,12,-99,54,144,11,-2,55
-91,6,79,167,-34,1,5,-38,69,-9
-169,-99,-38,-104,-47,-14,45,54,-115,-106
-110,-123,-28,-83,-71,-245,155,238,20,-80
-145,-197,38,187,-37,-352,32,268,-123,-132
-122,-104,67,112,-35,-177,101,306,81,-58
-3,-69,-27,-159,-28,97,131,176,50,47
28,-41,-111,-111,51,278,243,37,203,100
23,-35,-167,-49,71,200,246,-27,49,97
26,41,-59,6,100,183,254,-36,90,53
26,81,86,102,126,104,-110,-112,-71,50
24,85,137,261,205,28,-348,-400,-21,18
-44,-8,-4,122,147,-93,-440,-544,-193,-95
1,41,-45,-93,-77,-224,-198,-169,28,-30
38,64,-68,-170,-189,-207,-6,253,8,32
21,114,-11,-86,-107,2,253,466,82,27
-15,-3,0,-65,-2,56,400,468,-95,-29
-57,-117,-39,-58,14,111,422,212,-41,-147
-128,-162,-83,132,-17,70,170,-134,-151,-180
-123,-55,-14,211,3,71,-39,-229,42,-85
-109,-4,13,-17,-22,-9,-217,-60,-126,-71
-22,66,112,-51,2,-129,-367,83,12,10
104,80,148,-22,20,-177,-534,8,47,159
119,72,84,22,75,14,-147,-43,285,208
32,-38,-58,-33,109,111,314,0,106,92
61,27,-47,0,136,146,334,-251,-2,6
218,142,19,39,49,2,-142,-704,-344,-5
193,250,89,102,18,-80,-308,-725,-276,-10
131,188,44,76,29,-60,-94,-134,-148,59
48,48,-29,-45,5,36,245,419,185,99
-91,-134,-93,-152,-109,-104,190,351,56,33
-94,-88,-21,-110,-169,-254,105,149,126,-20
-53,7,38,-101,-178,-140,181,146,-16,-36
2,34,78,-25,-92,-68,241,122,96,-2
-9,-21,70,48,40,-126,-311,-101,-88,-13
-53,-51,37,71,120,-98,-603,-236,-18,-60
-104,-183,-81,-18,98,238,-139,53,-49,-90
-180,-256,-184,-62,100,765,542,457,86,-145
-171,-269,-201,-69,43,571,604,503,-25,-135
-105,-159,-76,-39,-35,13,425,513,212,-50
-2,-69,-62,-54,-100,-99,-137,370,145,41
75,1,-138,-63,-145,120,-495,91,234,101
115,44,-68,-166,-314,-173,-365,106,166,155
57,156,140,-104,-206,-575,-104,-89,79,34
65,172,205,-52,3,-335,65,-251,-238,-11
149,205,227,120,133,-10,168,-125,-11,136
87,101,122,254,228,243,129,-309,-51,96
20,4,-44,249,216,181,-12,-477,78,64
21,8,-69,135,82,-114,-477,-625,-200,-21
7,120,33,309,36,-228,-671,-691,-320,-120
-70,31,-33,245,-56,-224,-480,-311,-442,-189
-145,-91,-85,-257,-141,-52,96,363,-30,-184
-102,-143,60,-326,-81,63,426,445,78,-90
-86,-132,153,-122,0,111,487,291,238,-27
-31,-71,100,21,28,0,98,204,70,22
100,90,76,201,142,-38,76,157,155,148
93,40,12,137,163,-56,156,109,-37,123
35,14,50,117,63,-117,33,-190,-91,6
11,18,-5,14,-44,-162,-222,-316,-371,-95
11,105,-107,-68,-73,-81,-207,-196,-170,-99
-16,49,-259,-196,-105,107,31,241,102,52
-59,-62,-232,-149,9,464,530,637,410,61
-75,-170,-177,-122,89,205,494,470,177,-41
-77,-162,-68,-201,-14,-123,300,-116,193,-48
30,-56,126,-194,-90,-234,-15,-204,-5,46
180,123,372,17,-13,304,-180,-56,202,234
179,138,401,280,50,330,-310,-9,115,226
38,125,237,386,156,28,-358,71,105,35
-45,48,-91,157,147,-87,-300,209,-54,-88
-23,20,-329,-50,5,68,-31,251,124,-41
-61,-87,-436,-267,-149,181,380,233,53,-13
-146,-214,-359,-291,-162,2,771,53,39,-77
-229,-318,-224,-83,-62,63,466,-83,-227,-210
-267,-233,-81,81,-42,-21,-25,-111,-289,-341
-81,2,20,-33,-101,-229,-266,-64,-438,-202
158,296,148,-57,-106,-325,-264,111,13,97
174,371,246,-31,-15,-373,-247,-122,-18,84
80,308,313,55,110,-201,-228,-501,86,45
63,170,344,121,199,34,-596,-708,52,147
167,202,348,179,172,33,-741,-791,102,250
214,119,112,137,32,-21,-355,-304,-94,205
86,-55,-70,140,-5,100,328,219,-75,-15
-45,-196,-84,229,-84,97,391,350,-170,-179
-107,-178,-39,157,-31,349,186,-73,-19,-190
10,-78,-58,-92,-33,-4,-198,-287,67,61
141,85,40,-50,-32,-316,-393,22,391,246
34,28,49,-44,-43,-250,-230,254,129,91
-103,-91,10,-191,-83,-249,103,403,152,-55
-95,-87,51,-190,-43,-82,255,386,-275,-128
-56,-29,-19,-69,30,164,455,477,-76,-76
1,-91,-322,-141,-3,452,431,302,251,94
28,-42,-342,-75,85,431,207,-416,282,88
70,71,-28,96,153,-104,-147,-789,-173,14
146,193,195,215,154,-155,-130,-737,-311,48
47,56,93,101,74,180,110,-195,-475,-48
-66,-133,-5,9,-4,128,237,412,-60,-50
-147,-239,-47,-43,-38,-177,-11,705,109,-26
-68,-61,61,74,67,-140,-116,484,240,43
47,55,133,101,69,-303,-409,-210,-1,64
-14,-8,73,27,-42,-370,-190,0,175,2
-163,-209,-152,-149,-180,-93,367,735,134,-89
-249,-148,-285,-293,-293,141,529,758,229,-216
-215,28,-327,-394,-324,159,264,193,-12,-286
-65,145,-196,-223,-47,523,376,-331,-147,-205
81,167,-32,-29,191,417,70,-978,-433,-44
123,135,138,116,227,237,-314,-1064,-220,65
102,104,215,173,157,8,-328,-330,-172,82
109,199,292,235,108,-168,-167,459,73,71
114,135,233,204,-12,-178,-141,732,199,131
67,32,90,272,-52,-16,11,640,441,147
-33,-192,-211,153,-10,-206,25,495,226,29
-132,-276,-271,-212,-48,-27,131,270,344,-42
-139,-296,-213,-396,-238,257,574,231,276,-13
-92,-137,-83,-244,-262,-113,450,32,121,-11
35,86,51,24,-13,-457,-391,-667,-609,-43
133,248,154,195,240,53,-537,-1199,-821,-69
144,211,133,69,118,116,-258,-636,-379,63
32,62,44,-41,-21,-50,84,-54,338,161
48,3,49,-28,-61,-205,-94,-351,126,164
142,108,165,131,-60,-393,-394,-445,-18,105
213,103,150,117,8,-423,-721,-30,-283,26
41,7,54,-71,91,-45,-400,325,-185,-109
-249,-265,-105,-50,-14,-73,316,618,-71,-234
-399,-407,-163,223,-47,141,953,462,107,-270
-202,-200,-152,118,85,471,1073,-81,-90,-153
161,196,10,80,195,179,164,-618,78,132
418,387,181,137,165,-76,-1234,-1013,-48,317
376,308,148,52,6,502,-852,-563,123,350
59,-23,17,-77,-69,860,310,837,187,145
-215,-241,-80,-127,-50,477,495,1594,369,-121
-316,-424,-338,-368,-225,-83,129,1375,330,-131
-269,-317,-319,-395,-285,-348,49,789,556,-19
-133,-82,-67,-171,-129,-362,-166,-353,223,-47
34,158,145,80,-9,-385,-5,-906,-200,-71
216,301,164,199,138,-349,22,-759,-644,-28
126,221,17,145,110,-329,-157,-393,-371,-66
17,32,-41,201,60,-361,-409,-296,-162,-13
19,-90,7,345,207,27,-405,-146,235,134
129,3,218,157,246,106,-747,-286,50,177
-26,93,362,-27,115,-30,-318,-93,-31,-66
-175,-41,115,-69,37,154,731,348,-88,-228
-145,-94,-218,-62,-12,593,1242,194,48,-148
-143,-198,-416,-212,-209,107,959,456,4,-40
-114,-221,-425,-296,-335,-214,772,714,271,44
78,-67,-199,-115,-135,74,263,135,88,118
133,48,97,125,157,417,-454,-495,-130,61
83,13,165,153,277,151,-913,-369,-330,9
-41,-109,8,-53,-6,-247,-197,797,67,-49
-130,-142,-161,-248,-235,-296,221,1099,172,-180
26,192,55,-70,-122,-180,-375,2,406,-48
333,544,413,178,29,-231,-949,-1036,168,330
577,782,708,400,197,-107,-751,-2020,-402,476
311,486,494,348,277,180,-62,-1636,-769,166
-101,31,78,116,146,226,286,-534,-380,-135
-289,-345,-224,-116,-42,96,452,487,-74,-150
-355,-424,-285,-126,0,203,527,857,234,-156
-235,-269,-223,-121,-25,183,532,888,234,-123
-114,-71,-151,-132,-80,62,468,718,326,-127
-92,-53,-137,-137,-69,-7,320,466,52,-168
-29,12,-49,-46,-53,-57,191,223,115,-103
73,86,-47,-53,-162,-69,-89,-125,41,7
155,149,73,47,-198,-167,-689,-604,169,109
140,64,214,77,-85,-348,-976,-906,-408,7
20,-10,186,-11,-1,-148,-224,-150,-353,-52
-131,-211,-53,-114,33,75,74,754,-151,-68
-190,-328,-228,-158,52,180,216,832,186,-95
-43,-232,-233,-131,-63,-35,209,545,295,53
-4,-175,-290,-122,-120,18,296,267,525,140
-86,-210,-408,-117,-23,230,414,162,256,36
-42,25,-136,48,113,275,434,8,-8,10
140,252,224,226,151,15,242,-144,-363,75
285,363,392,256,101,-219,-167,-712,-247,179
176,207,232,108,-14,-240,-349,-617,-164,109
68,67,68,-35,-152,-6,-52,203,235,128
-82,-103,-56,-73,-58,290,349,435,94,24
-102,-70,-6,68,158,71,24,-70,73,-93
33,25,46,110,198,-286,-505,-387,-171,-71
49,88,56,33,116,-246,-379,-190,-43,-41
-29,-29,-64,-122,-13,-282,-361,-77,-207,-127
53,51,1,-110,-105,-187,-294,-69,-111,-32
246,183,146,-72,-120,310,-476,-117,-68,178
70,66,98,16,32,725,80,226,182,100
-225,-235,-97,189,72,266,257,632,218,-87
-292,-281,-196,124,-25,127,252,316,270,-137
-134,-137,-188,-169,-181,-108,345,264,48,-55
-175,-108,-142,-168,-197,-325,313,541,266,-152
-259,-200,-184,-160,-178,-308,-81,158,222,-255
9,16,25,-42,-12,-296,-793,-990,36,-60
399,362,377,253,301,-96,-925,-1666,-742,213
451,440,460,376,372,206,23,-680,-697,326
105,73,68,45,95,299,1015,384,-260,138
-154,-143,-201,-153,-84,163,1177,460,152,-74
-61,-18,-75,-58,-78,-122,204,-31,48,-62
-25,118,114,55,-16,-170,-557,-61,156,-93
-73,-41,-30,-112,-129,-87,-487,366,263,-26
-110,-148,-153,-209,-182,24,20,713,499,63
-224,-265,-253,-233,-150,146,383,894,148,-102
-258,-267,-231,-155,-70,241,625,791,88,-180
-144,-184,-115,-7,37,69,326,-50,-46,-53
-87,-93,-41,34,91,23,138,-743,167,97
-56,-57,-55,28,93,156,228,-862,-215,54
70,98,95,160,130,169,83,-616,-511,-78
63,75,23,56,-53,-142,-150,572,-363,-152
-73,79,-6,69,-44,-160,-173,1208,386,-49
6,199,209,303,160,-231,-676,152,226,64
304,340,383,142,81,-366,-819,-852,198,217
388,238,347,-189,-102,-263,-596,-893,-175,173
263,116,235,-207,-114,-56,-141,-334,-317,30
128,-28,-30,-162,-40,167,314,99,-386,-92
-91,-159,-277,-174,63,432,940,444,-69,-178
-162,-176,-345,-40,159,365,1149,-8,-118,-45
-59,-89,-245,444,203,298,716,-295,311,233
-2,-60,-79,620,234,484,68,-181,73,103
-110,-73,57,299,106,366,-173,83,142,-92
-87,-82,112,-202,-170,-358,-1273,-155,84,-5
23,107,292,-316,-302,-696,-1920,-268,40,21
6,139,309,-322,-356,-777,-778,137,-1,-61
62,179,335,-40,-89,-465,365,64,89,1
230,134,77,201,141,56,493,-217,-176,181
192,-27,-169,133,81,240,261,-284,-80,136
-82,-220,-259,-49,-57,366,151,372,-23,-88
-63,-54,-211,-41,-7,124,183,976,383,-16
107,168,-110,-76,82,-331,-192,795,409,128
270,427,117,75,146,-246,-357,-366,-63,203
240,355,241,223,217,121,-61,-1071,-790,80
-70,5,38,96,173,528,698,-501,-472,-183
-371,-410,-350,-300,-159,197,647,450,16,-258
-406,-462,-427,-363,-288,-124,92,1090,561,-148
-282,-285,-221,-201,-192,-162,-152,972,468,-80
-283,-167,-77,-110,-156,-243,61,580,364,-150
-169,-95,-43,-26,-48,-98,200,-119,-17,-105
12,73,89,145,158,229,110,-1192,-379,-51
230,308,357,363,375,196,-317,-1354,-652,71
417,450,492,427,377,71,-226,-661,-127,305
168,105,113,93,94,4,-153,520,231,164
-80,-213,-206,-198,-141,-11,-54,912,462,-58
-55,-224,-158,-185,-133,77,74,125,-47,-138
65,-19,-52,-150,-210,154,-132,-423,-78,-13
177,74,-62,-206,-313,-196,-687,-293,-50,93
64,65,54,-99,-114,-87,-89,-16,-8,-10
-144,-23,163,-43,-10,-46,687,135,-93,-79
-171,-31,172,-8,14,-117,717,192,206,-1
-69,-32,94,139,145,-84,677,-13,-63,-13
124,116,71,261,218,7,213,-226,-27,42
263,152,-135,57,59,-123,-437,99,123,212
204,38,-431,-253,-92,-348,-613,343,221,142
-50,-231,-452,-554,-249,-119,-458,498,-114,-147
-182,-273,-253,-588,-351,330,204,845,214,-139
-275,-258,-87,-320,-303,169,507,824,172,-163
-361,-172,128,506,10,158,41,-183,-43,-349
-112,-30,134,717,72,61,-143,-765,-311,-122
297,293,237,456,305,197,91,-940,-175,295
468,461,408,347,497,311,-159,-766,-76,435
255,278,304,242,402,124,-64,-303,41,229
58,63,110,38,127,-82,-331,-83,-219,42
4,80,102,24,34,-79,-421,-27,-104,-27
58,86,107,39,30,-85,-140,-60,-85,62
-61,-53,-28,-58,-27,-8,19,-276,177,31
-195,-241,-206,-202,-166,-70,228,46,292,-21
-195,-234,-218,-191,-179,-59,658,140,156,-128
-178,-207,-167,-156,-123,-126,57,-389,-223,-150
-156,-118,-72,-74,-15,-91,-462,-118,49,-39
-52,-94,-104,-145,-109,-87,-117,838,129,31
-80,-72,-112,-93,-81,147,606,1370,345,-78
-187,-146,-147,-59,8,169,259,1123,271,-192
-220,-78,-84,11,88,113,155,343,72,-209
81,87,68,72,45,-221,-529,-1011,-377,44
450,281,203,73,-17,-538,-1067,-1603,-227,348
354,243,161,-81,-97,-474,-755,-867,-358,125
58,174,120,-113,-87,-92,-10,3,-241,-159
-81,4,43,-96,-30,40,396,636,-66,-154
-8,43,85,29,72,204,1005,1100,170,-40
117,111,103,54,5,422,916,576,-72,93
33,-47,18,262,93,797,526,-598,-131,69
9,-151,-14,457,245,338,-94,-918,-327,16
51,-4,-5,229,292,25,-595,-301,11,72
-44,-67,-102,-157,-24,-233,-947,485,219,59
-335,-329,-326,-461,-383,-214,386,1051,465,-130
-579,-550,-491,-524,-382,-157,1113,1688,433,-350
-348,-262,-247,-272,-220,-241,469,1169,487,-219
180,243,157,64,-20,-184,-381,-649,44,145
598,704,583,492,388,124,-705,-2420,-393,456
648,755,669,577,529,268,-719,-2504,-694,456
170,324,317,257,256,78,-595,-918,-339,44
-210,-186,-91,-94,-14,-19,-321,563,-49,-237
-113,-262,-161,-156,-145,-56,-97,736,262,-195
121,-122,-59,-98,-151,-152,-41,146,72,45
91,-20,-23,-19,-101,-192,83,-22,68,136
-136,-189,-220,-42,-52,-135,475,224,-99,-31
-308,-275,-329,-190,4,24,749,380,89,-185
-170,-83,-148,-187,2,-2,194,16,-312,-216
-113,3,-81,-126,-61,107,393,127,-264,-166
-227,-215,-198,-162,-153,213,615,830,86,-107
-96,-161,-98,6,-140,450,251,1021,505,24
-70,-103,-21,117,-126,292,468,982,277,-42
-154,-133,-96,-15,-223,-202,402,563,367,-33
-63,17,-72,-161,-199,-698,-906,-627,47,19
74,305,183,10,133,-495,-1595,-1532,-278,6
158,341,313,-49,60,-330,-1395,-1024,-184,193
207,392,541,17,-36,3,-898,-180,199,316
-33,196,414,72,38,366,249,855,246,126
-226,-31,69,130,121,281,981,1302,648,31
140,-22,-57,205,148,-47,143,-200,216,210
319,197,-25,374,269,56,-54,-1518,-628,194
105,133,-96,229,268,154,251,-996,-1160,-167
-139,-126,-121,-118,5,141,740,128,-455,-286
-151,-349,-258,-279,-90,198,658,712,171,-133
50,-403,-445,-389,-157,21,127,376,466,-162
103,-206,-91,-244,-181,-247,-603,-426,32,-233
200,118,362,24,-14,-113,-630,-805,-243,4
318,222,254,152,162,-26,-213,-618,-458,238
95,21,-110,40,133,270,935,548,-33,88
108,-178,-216,73,15,283,1257,1233,171,37
129,-82,-64,326,13,117,657,901,342,59
32,67,168,487,95,-151,-103,536,187,35
19,199,141,113,160,70,-63,93,411,128
-41,58,-152,-298,-63,95,-354,-644,352,136
-125,-53,-233,-302,-119,147,-914,-705,-18,-86
141,147,8,-6,37,20,-1364,-685,-569,-51
209,260,198,113,49,-68,-855,-550,-175,100
47,182,227,46,-29,-178,140,-41,87,77
-111,40,139,-37,-118,-383,287,163,182,-55
-204,-175,-67,-132,-163,-394,389,606,105,-97
-136,-142,-67,22,-22,-149,512,548,88,-80
-36,-103,-113,-4,38,139,523,-2,-193,18
-64,-73,-121,-49,92,356,672,-42,-42,19
-112,-74,-13,53,190,337,330,-99,-170,-103
-189,-95,-63,-29,0,-231,-771,-177,72,-141
-269,-190,-218,-190,-230,-482,-664,556,121,-183
-209,-56,-141,-180,-245,-315,4,850,279,-130
-127,1,-29,-112,-70,16,-115,154,-51,-153
89,88,75,-2,59,350,-52,-559,-5,91
225,48,55,-9,-28,142,482,-908,-92,335
63,-21,59,53,-16,101,554,-487,-144,136
-165,-140,-6,43,-48,248,242,-208,-434,-267
-76,-18,8,72,-68,170,-114,-326,-218,-204
217,238,148,69,142,186,-1002,-130,-52,140
320,389,262,109,158,-166,-693,519,389,340
30,82,90,75,129,128,975,901,192,92
-122,-122,-89,-23,24,146,1071,1119,562,-12
-14,-93,-171,-142,-180,-459,-743,532,727,169
101,74,1,14,-111,-540,-1444,-479,220,157
168,139,175,251,162,-96,-522,-1135,-782,-21
220,195,251,308,258,216,129,-1262,-691,42
-1,-18,45,41,80,116,117,-718,-363,-17
-71,-97,-46,-66,-53,-128,121,-14,30,12
11,-56,52,24,18,-146,241,86,-247,-7
-162,-113,20,18,20,-29,446,379,-48,-179
-273,-184,-137,-126,-102,-100,225,560,82,-250
-189,-126,-186,-145,-78,186,435,549,249,-159
-16,-49,-147,-129,-69,433,193,557,81,-46
87,70,-67,-110,-139,110,-27,329,275,89
34,28,-44,-100,-134,-301,95,88,201,65
-39,0,-1,25,87,11,601,-55,161,-15
-164,-166,-113,21,175,229,393,-99,-198,-115
-216,-282,-229,-140,-75,73,112,-128,-124,-75
-258,-338,-332,-306,-308,277,379,126,-214,-160
-79,-78,-177,-216,-338,97,203,623,162,-66
220,249,166,11,-108,-574,-1229,442,197,130
374,440,385,205,206,-68,-1525,-535,124,224
444,445,447,233,261,90,-949,-1060,112,393
209,210,339,60,62,55,103,-442,296,262
-146,-126,93,-67,-160,-21,898,331,-52,-118
-298,-249,-138,96,10,98,972,256,-251,-308
-80,-72,-197,272,277,213,730,-359,-502,-168
124,154,7,352,353,212,418,-773,-336,-7
128,30,37,227,223,-96,-421,-301,39,181
-161,-282,-267,-188,-124,-408,-466,559,445,35
-399,-448,-428,-450,-329,-395,-1,444,8,-321
-221,-170,-178,-294,-260,-276,-672,277,75,-178
-58,34,51,-43,-9,320,-105,513,-57,-77
57,233,292,318,410,943,532,403,382,120
479,526,531,489,462,217,-1359,-663,409,587
381,390,364,231,130,-468,-1151,-707,-48,418
-95,-49,-16,-127,-155,-498,688,40,-432,-42
-354,-310,-203,-271,-300,-376,1102,287,17,-226
-184,-223,48,-53,-200,-227,263,-324,-333,-260
177,178,412,266,-3,-131,-413,-835,-705,-93
296,263,147,181,39,161,-315,-254,-567,37
126,77,-265,-107,-3,441,319,620,101,-98
98,0,-239,-279,-24,294,272,295,188,-118
271,153,-64,-286,-124,23,-125,-13,473,131
223,98,-98,-232,-136,-45,-402,351,267,173
-52,-150,-189,-208,0,35,-2,477,145,-84
-380,-415,-208,-23,-54,-140,-57,431,142,-203
-477,-520,-203,113,-67,-17,250,447,400,-192
-344,-359,-105,11,-41,158,935,205,-103,-270
38,109,202,171,5,-79,622,-53,-125,-25
281,328,281,167,14,-266,-127,-283,123,328
197,316,322,204,251,332,-361,-830,51,249
268,261,208,123,185,96,-748,-963,-307,263
95,99,-163,-128,13,-153,-135,-308,-226,122
-163,-51,-214,-289,-137,-206,195,298,-412,-189
-182,-102,-42,-104,-172,-205,160,639,-11,-269
-162,-262,-221,-79,-81,-80,-130,356,53,-235
-66,-178,-161,140,96,279,89,-135,118,-84
59,-3,-20,322,245,494,351,-174,204,224
188,91,-23,40,125,48,-6,-58,564,395
57,25,38,-61,-2,-440,-450,-66,324,131
11,98,176,73,72,-366,-460,-254,-68,-156
90,138,193,102,65,-272,-200,-407,-469,-102
38,63,87,11,-4,202,643,-149,-189,51
-105,-76,-38,-39,49,928,1395,507,-149,-3
-16,3,32,67,65,558,600,432,140,101
-14,-54,-62,-66,-147,-382,-883,-87,-79,2
-188,-174,-231,-242,-317,-406,-1250,256,-27,-218
-193,-212,-217,-243,-329,-395,-764,611,120,-173
-145,-138,-83,-72,-87,-158,678,416,216,-111
60,52,65,78,124,235,966,151,78,108
392,364,333,269,251,29,-276,-679,92,379
79,78,103,104,205,118,-75,-957,-334,30
-361,-278,-293,-159,94,404,729,136,-67,-337
-419,-329,-299,-148,56,513,727,804,-36,-373
-217,-209,-93,-100,-152,44,-39,228,247,-143
235,154,113,-84,-350,-596,-1366,-511,390,309
345,427,220,-21,-326,-958,-1848,-363,304,341
5,242,22,-128,-160,157,-90,498,-261,-78
50,312,147,134,136,462,1196,450,-261,-19
158,238,228,270,231,-53,454,-74,-311,136
15,32,272,315,187,40,243,-206,99,96
-5,-35,252,282,234,135,181,-843,-14,102
236,21,78,170,229,-81,-775,-1007,-203,138
306,-238,-349,-244,-154,-403,-862,30,-329,-8
-201,-477,-527,-578,-358,-107,608,1070,66,-357
-522,-484,-419,-513,-238,214,981,1523,278,-347
-272,-145,-170,-263,-77,213,47,1156,411,-53
32,96,-36,-225,-81,11,10,56,125,91
251,263,151,-34,36,16,130,-1340,70,146
349,375,418,572,264,0,-432,-1886,-443,117
258,308,438,851,328,140,-436,-1134,-368,151
127,49,119,140,124,129,-151,50,-108,144
-80,-13,29,-121,91,-12,40,755,204,-120
-245,-36,-49,-61,55,-29,-391,612,187,-265
-244,-60,-113,88,-141,-198,-508,138,197,-153
-90,-18,12,-81,-369,-755,-198,-277,-280,-32
-45,3,187,-162,-278,-467,385,-329,-342,-25
44,49,301,-82,-91,-106,655,39,-223,80
-56,-133,66,-152,-131,69,609,474,375,50
-333,-615,-541,-368,-222,431,864,1065,307,-208
-225,-524,-615,-248,73,1129,874,1223,281,-197
-31,-210,-312,266,337,771,11,910,-98,-105
185,148,-45,527,439,74,-405,573,120,146
281,329,202,290,475,27,-243,-266,318,337
294,338,301,65,188,-332,-774,-1398,545,431
297,265,135,-107,-272,-1053,-1782,-2054,-139,347
-60,134,-37,-225,-339,-641,-632,-1383,-1029,-302
-127,207,88,-34,-30,76,281,-71,-971,-492
75,253,154,28,74,325,106,406,8,8
203,181,140,76,116,303,-80,-96,-40,266
332,208,185,218,165,238,693,-70,164,333
342,157,167,265,253,273,964,-117,140,239
-93,-85,-69,-1,81,150,537,-23,154,-116
-297,-215,-125,-211,-183,-290,-196,110,67,-210
-171,-100,52,-116,-221,-437,-300,180,110,-143
-179,-177,-9,-115,-164,-175,286,201,-77,-137
-187,-214,-96,-49,25,228,1033,17,19,-117
-13,-147,-78,4,96,180,304,-186,23,88
118,-27,-49,31,25,-48,-365,-63,352,268
122,-17,-138,30,3,-124,-818,85,143,169
34,81,26,114,83,-25,-1617,433,15,-34
-159,-19,36,-6,-14,-202,-1284,771,-162,-170
-300,-132,-111,-141,-93,4,428,738,-48,-244
-363,-255,-264,-266,-206,181,1654,703,-1,-220
-363,-299,-337,-322,-258,221,1499,741,386,-175
-219,-252,-274,-262,-200,101,969,840,473,-106
151,72,105,151,188,146,162,-205,155,-19
465,250,338,308,349,-270,-1316,-1463,-489,166
403,156,205,77,87,-642,-1185,-1250,-591,166
81,28,30,-105,-123,-590,-453,-61,-590,-146
-95,52,-34,-131,-128,-167,-423,637,260,-116
-47,42,-204,-239,-214,1011,77,480,891,240
-46,113,-132,95,-152,1403,426,235,729,229
-225,-107,-96,238,-71,105,201,157,-317,-178
-333,-243,-162,-212,-154,-625,746,542,-408,-325
-386,-292,-55,-325,-128,-434,762,288,-152,-266
-177,-85,156,-26,104,-53,310,-830,-18,-46
340,287,377,310,343,-22,-610,-1065,-403,224
862,596,509,469,387,-172,-1069,-950,-428,421
832,495,414,470,352,14,56,-524,-308,435
236,228,265,455,455,480,1374,-56,99,156
-120,-42,-117,-116,36,-31,500,-177,160,-48
-30,105,-89,-325,-363,-430,-377,-872,177,24
115,217,157,-12,-206,-117,-1113,-944,-22,127
-107,-68,-28,31,-105,-226,-1862,-261,-31,-98
-460,-588,-504,-239,-367,-603,-1270,879,-1,-346
-401,-537,-384,-91,-218,209,661,1853,484,-192
-80,-175,41,27,107,530,844,1995,521,57
153,66,184,28,108,332,356,1185,754,288
283,200,19,4,31,107,65,-921,117,314
-15,130,-26,-4,78,5,34,-2014,-1091,-271
-253,-119,-125,-94,10,-190,48,-853,-1056,-487
-205,-177,-224,-197,-171,-263,361,871,285,-116
-303,-334,-410,-306,-276,-113,746,1976,793,-27
-205,-176,-294,-171,-124,76,786,1215,539,-100
157,187,140,113,204,173,169,-502,-167,37
389,413,400,318,332,223,-78,-1164,-435,235
427,565,473,387,304,131,-413,-1293,-713,341
139,413,390,371,304,99,-708,-944,-354,145
-236,-93,-16,22,70,16,-219,1,85,-108
-390,-331,-265,-219,-170,-101,173,246,404,-241
-243,-393,-334,-315,-276,-229,-23,-6,8,-239
32,-184,-181,-235,-181,-210,194,-227,-76,-45
149,31,69,-65,1,-83,296,26,-219,79
139,99,111,-23,-22,-3,475,518,83,58
83,-27,-33,-176,-185,-87,256,615,245,37
-10,-85,-57,-140,-120,-5,-343,250,251,-53
-92,-81,14,12,15,255,84,148,-288,-187
-49,64,196,352,156,322,614,225,136,15
-9,7,80,402,160,166,-66,226,676,294
107,103,74,334,308,246,-382,161,565,320
53,55,51,268,343,-20,-1241,-713,-299,-32
-409,-422,-456,-455,-340,-653,-1461,-750,-184,-425
-537,-579,-663,-756,-661,-633,-32,144,-275,-458
174,176,57,-70,-186,-105,360,280,-133,62
526,565,571,198,90,44,14,260,-200,288
292,353,402,89,64,171,460,219,-35,187
262,246,167,68,120,535,819,-706,-249,246
-95,-64,51,-44,0,1,830,-765,-260,-74
-517,-438,-165,-189,-123,26,778,410,-297,-495
-307,-236,-229,-37,0,-112,-38,730,87,-276
156,78,-177,137,138,-452,-373,95,104,214
365,263,106,162,170,-190,-550,-321,376,472
395,381,313,175,194,52,-1527,5,87,297
356,452,379,278,267,672,-387,244,116,142
253,327,267,254,256,1047,466,-188,224,215
4,-5,-120,44,76,595,398,-734,293,150
-199,-278,-309,-218,-206,-361,107,-430,-187,-71
-334,-318,-196,-212,-234,-598,-75,345,-46,-237
-436,-392,-178,-173,-186,-586,-411,683,85,-366
-516,-522,-310,-257,-294,-464,-167,876,340,-414
-518,-548,-457,-395,-413,-320,30,1052,445,-209
-310,-150,-204,-178,-152,136,375,693,311,-65
309,514,349,272,286,341,186,-554,-394,113
612,718,596,357,409,366,301,-1330,-540,250
728,638,559,165,266,181,219,-1431,-593,414
733,420,410,128,221,136,-45,-897,-292,435
412,36,31,-8,124,75,-244,-336,-241,199
4,-159,-128,-8,35,10,-144,-101,43,0
-388,-395,-221,148,-126,-265,-141,505,4,-277
-571,-486,-460,72,-138,-165,149,715,284,-349
-429,-411,-523,-490,-212,-11,379,184,310,-182
-545,-552,-479,-687,-349,-63,393,363,482,-239
-775,-815,-471,-175,-484,-337,83,1025,52,-507
-522,-471,-199,218,-486,-310,-387,1360,-119,-477
211,300,317,111,-37,90,-331,1359,-15,91
851,913,869,514,684,512,176,-39,243,633
844,788,736,530,738,476,220,-1765,-202,677
560,471,381,234,334,29,1,-2294,-456,457
279,313,196,269,253,-48,-56,-1750,-847,-7
-94,58,-110,41,60,10,177,-4,-216,-310
-262,-228,-499,-522,-365,-3,545,1656,426,-303
-284,-314,-578,-603,-543,-77,946,2081,843,-205
-305,-361,-399,-333,-348,47,557,1134,529,-105
-59,-26,69,181,60,34,-394,-820,15,5
155,207,356,596,301,-190,-1108,-1960,-748,58
379,357,398,457,287,-186,-1336,-1417,-394,392
344,371,359,179,283,7,-1015,-696,-354,273
21,67,143,13,70,33,273,495,156,-1
-223,-273,-156,-211,-130,-11,834,1043,417,-157
-370,-351,-303,-317,-217,-20,447,245,448,-276
-405,-422,-388,-452,-408,-259,-41,152,122,-270
-237,-268,-313,-363,-386,-393,-160,726,71,-96
-206,-238,-244,-279,-271,-342,-26,928,61,-131
-167,-138,-50,25,81,149,409,582,22,-165
131,151,223,319,436,346,449,-176,-683,15
371,381,386,389,466,212,318,-1197,-523,282
256,200,175,145,154,118,46,-1113,-78,324
14,4,-8,-15,-49,162,-89,-43,320,117
-16,8,32,5,-124,-184,-384,648,174,7
208,265,201,105,-67,-351,-577,532,343,162
213,319,198,137,127,-132,-118,-149,50,79
20,149,63,44,135,171,274,-311,3,-41
-36,24,-64,-133,-68,371,-423,-428,-223,-75
-56,46,-113,-234,-206,608,-668,-332,1,-59
-301,-280,-251,-276,-235,161,463,-120,-90,-189
-275,-309,-156,-80,-133,-457,747,70,149,-97
-83,-138,-26,138,-19,-474,16,243,119,56
36,26,75,260,208,-7,17,262,142,84
96,-64,-36,2,124,238,318,755,150,53
115,-152,-121,-121,-28,30,-472,630,136,-46
10,-156,-119,-103,-58,-130,-1206,41,-36,-62
-384,-295,-272,-326,-276,-52,-205,574,254,-243
-414,-268,-206,-363,-321,-237,3,1042,173,-313
81,213,214,29,-4,-222,-469,-237,181,41
334,357,243,129,85,-8,157,-1062,-231,253
371,425,242,293,211,-5,435,-492,-297,327
444,467,345,531,467,221,334,-865,-390,410
265,288,310,635,646,670,575,-1209,-489,45
9,-73,39,308,319,339,17,-577,-388,-181
-166,-232,-180,-329,-291,-340,-522,280,212,-120
-332,-346,-179,-599,-502,-429,-88,202,155,-140
-404,-351,-110,-425,-387,-43,764,427,238,-241
-95,-158,-266,-311,-241,-156,701,749,66,-153
271,213,-85,30,56,154,513,506,-80,108
502,493,446,537,500,607,77,440,-111,360
359,325,380,534,500,356,-465,-121,484,444
-48,-153,-169,15,45,-77,-489,-1075,212,121
-310,-245,-232,-135,-73,-30,-54,-617,-165,-266
-330,-251,-196,-191,-164,-27,-116,252,-285,-388
-119,-159,-202,-295,-377,-320,-414,247,76,-132
-15,-103,-152,-287,-389,-398,-428,137,-32,-29
-42,60,79,22,-15,-188,142,633,-165,-146
-81,29,103,56,123,-146,644,919,-70,-108
-32,-75,-45,-143,-58,-96,859,98,245,64
169,-30,-15,-49,-37,106,722,-433,-115,175
31,41,146,325,322,825,505,-550,-454,-70
29,56,177,347,275,499,-374,-628,-147,77
103,45,120,305,25,-269,-1123,-382,574,338
-70,-59,-33,92,-52,-288,-1469,-9,175,29
-272,-168,-265,-355,-295,-420,-1220,712,268,-223
-300,-257,-404,-589,-456,-486,15,1137,126,-316
-38,43,-144,-345,-208,-165,745,625,-159,-283
220,282,116,35,194,188,612,122,-350,-9
416,432,291,261,395,323,510,-359,26,355
191,171,201,239,351,340,257,-896,-63,272
-60,-114,100,282,230,415,177,-1160,-159,31
-97,-113,76,317,-13,270,100,-668,-393,-124
79,95,77,8,-210,-88,-205,15,24,13
220,166,61,-144,-231,-481,-842,135,147,162
72,30,-61,-108,-143,-377,-451,249,401,123
-141,-166,-222,-107,-109,-286,267,340,267,-6
-283,-224,-242,-78,-15,74,904,324,57,-205
-275,-182,-163,-186,10,33,788,70,-413,-299
-35,27,90,-25,185,326,544,-151,-286,-64
147,125,202,130,195,371,-28,25,-89,153
100,70,48,56,-23,-106,-530,195,333,162
-94,-143,-214,-95,-226,-250,-705,148,241,-25
-271,-254,-279,-114,-200,-219,-1128,136,174,-182
-157,-113,-86,-112,9,-392,-996,95,-93,-103
171,204,255,176,215,-85,-18,112,117,203
252,229,289,229,182,63,665,120,-76,213
193,220,240,144,76,318,803,10,-62,80
192,146,152,88,71,621,601,-125,-99,81
67,16,-10,29,58,500,683,-180,90,-36
-139,-175,-195,-153,-135,16,441,69,9,-160
-255,-271,-243,-259,-226,-199,81,540,271,-94
-253,-254,-222,-224,-141,-54,334,671,161,-92
-216,-161,-143,-157,-150,-174,37,365,365,-80
-17,-12,-9,-18,-24,-181,-1034,-618,-105,48
199,276,203,213,173,20,-837,-1122,-580,42
259,275,199,240,171,-188,-238,-841,-469,46
145,69,38,116,101,-49,208,-694,28,110
-66,-153,-106,-31,42,202,386,-107,-201,-136
-177,-131,-61,-106,-82,116,322,906,104,-118
-153,-166,2,-198,-210,-210,-65,768,340,83
-85,-101,133,-92,-129,-300,-400,562,392,29
61,12,115,33,11,-180,-146,481,-74,-33
83,70,-26,121,157,83,108,-263,-180,-63
-102,-110,-233,-12,89,98,-389,-454,-107,-178
32,-42,-199,-153,-108,-78,-841,-353,460,40
275,155,-12,-93,-149,-231,-695,-672,113,217
459,464,382,292,177,143,73,-1097,-566,227
418,466,512,383,326,420,560,-799,-795,254
36,163,258,170,108,116,659,211,-275,66
-339,-216,-8,118,-32,0,500,580,-155,-243
-362,-313,-107,62,-60,113,334,633,324,-209
-234,-253,-227,-398,-293,-30,335,907,396,-135
-4,11,-123,-309,-232,-109,197,620,454,28
107,109,12,61,96,-119,-231,141,108,139
53,46,52,187,172,-145,-282,-346,-36,107
49,-11,-134,104,88,-111,-434,-443,-131,93
-88,-3,-249,-28,64,168,-68,-30,90,-71
-193,-75,-259,-238,-100,143,173,333,93,-175
83,67,5,-81,-132,-144,-110,268,149,71
139,21,180,167,142,112,251,-33,-310,72
-27,-11,117,130,239,292,720,-141,-133,-45
-153,-124,-40,-203,-15,-13,47,-50,74,-60
-313,-204,-134,-381,-210,-199,-620,-260,261,-152
-122,-111,-126,-346,-221,-336,-953,-477,130,-32
87,29,72,79,-39,-200,-378,-7,-96,47
17,33,228,267,166,202,735,773,-415,-47
136,132,303,714,388,469,1262,666,-114,-16
243,9,-215,343,62,-25,914,-76,-53,38
61,-134,-415,-357,-280,-262,298,-12,83,-25
-101,-248,-279,-347,-284,150,-479,626,208,-41
-360,-294,-316,-367,-356,291,-254,1000,628,-95
-180,66,69,-147,-180,146,-298,-74,148,-12
373,633,703,358,155,-457,-657,-1084,-289,242
654,730,820,564,409,-774,-977,-1827,-557,371
328,321,384,365,424,-177,-801,-1680,-413,102
-79,-146,-164,-57,142,256,-149,-30,-180,-43
-430,-409,-504,-328,-89,443,895,833,145,-192
-459,-455,-439,-215,-102,409,660,330,65,-249
-209,-201,-158,-5,68,311,287,102,217,-88
-109,-63,-26,-91,-6,-10,388,160,35,-58
153,101,102,-117,-67,-257,-223,454,238,105
270,173,43,-163,-94,-530,-1184,570,123,107
-62,-80,-191,-170,-231,-130,106,328,186,-163
10,-8,-43,120,-199,-44,253,137,173,68
126,177,49,4,-102,-250,-151,65,109,240
180,6,-92,-121,-70,-102,-40,48,-109,184
195,-51,74,-13,42,225,170,-40,103,46
98,-12,258,160,219,-9,-30,-200,-68,-136
66,54,105,337,287,123,33,-334,81,-2
168,186,161,296,185,547,210,-443,-183,172
67,188,298,296,89,438,414,-197,-192,98
-51,8,74,43,38,24,304,78,-108,35
-10,56,59,63,114,-7,-316,-554,-68,-14
-46,-27,-32,-56,37,-185,-743,-716,-249,-80
-151,-143,-132,-201,-157,-421,-560,-209,145,-83
-293,-346,-354,-407,-355,-395,-77,49,191,-129
-410,-360,-398,-404,-320,-79,848,452,-18,-290
-360,-216,-235,-193,-55,436,1546,1616,-198,-343
-60,81,111,161,238,576,823,1347,162,-86
255,177,231,259,232,81,-205,-150,15,229
445,320,272,266,132,-369,-850,-624,-3,367
385,300,318,264,138,-408,-1460,-441,-267,186
-75,-124,-31,-37,-64,-153,-840,-153,116,-61
-390,-388,-344,-333,-292,-50,511,-70,84,-213
-361,-228,-267,-249,-229,68,1076,-246,-125,-328
-192,-184,-242,-220,-240,22,640,-144,-238,-256
-74,-103,-187,-172,-100,208,374,317,61,-111
48,54,-30,-72,42,244,-194,810,127,76
237,312,177,94,89,104,-486,532,331,237
246,339,232,88,57,-98,-700,-384,176,238
206,238,212,83,82,-51,-497,-831,-37,234
265,214,288,303,275,141,-196,-685,-292,278
129,122,209,375,215,-5,-175,-172,-4,145
-176,-169,-34,103,-22,-183,289,522,-79,-157
-255,-166,9,34,-13,-5,922,275,-63,-235
-122,-153,-87,118,80,153,708,-367,-277,-127
-67,-127,-182,-15,136,261,245,-511,-84,-79
126,60,-37,-83,54,106,-62,85,111,96
285,269,102,9,-40,-207,-1104,674,491,249
76,52,-82,-141,-203,-435,-1336,1192,396,91
-214,-213,-250,-306,-355,-505,-213,487,269,-136
-191,-191,-157,-239,-260,-311,364,-944,-216,-198
0,24,45,-15,-31,-100,76,-1502,-273,-79
176,146,183,160,204,84,-41,-1101,-366,141
126,118,166,206,289,354,458,275,-153,100
22,-14,16,47,112,345,411,1066,158,92
-29,-55,-70,-57,-104,81,350,459,411,81
-94,-83,-44,-57,-145,-26,519,-286,-146,-167
-76,-52,-5,-44,-148,-61,381,-425,-170,-138
-207,-212,-158,-103,-76,-5,-189,-437,-326,-197
-233,-192,-139,-55,107,336,119,83,-96,-209
-9,17,57,29,184,407,164,714,106,16
138,191,161,13,59,-37,-418,673,391,179
98,199,128,-90,-61,-235,-830,336,67,63
86,189,110,-83,-49,-202,-807,-44,13,21
-97,-65,-56,14,-149,-497,-266,-842,-144,-56
-167,-179,-86,142,-174,-344,427,-166,161,5
-200,-308,-208,-103,-139,-19,804,880,25,-103
-183,-316,-252,-34,-82,303,965,1349,231,-171
70,-112,-90,187,81,507,795,571,-82,-59
350,217,100,118,186,387,668,-585,-54,218
435,313,143,129,193,36,-435,-1170,-82,377
87,129,51,65,172,5,-1357,-879,-182,48
-174,-57,-58,-171,-7,-2,-875,-273,-202,-163
-28,105,142,-45,6,-307,-867,-376,103,41
121,234,366,152,78,-394,-1012,-637,-84,160
94,279,376,203,133,-129,-110,-527,-184,22
-21,125,30,26,168,260,339,-138,-295,-140
-87,-70,-303,-122,107,305,840,679,123,-105
-78,-203,-343,-278,-122,212,1106,1362,305,-13
105,-77,-63,-246,-259,22,891,1316,557,95
155,-72,-1,-163,-253,-482,133,388,426,186
12,-60,1,43,-194,-599,-597,81,339,58
-175,-110,29,414,60,94,-460,-497,-349,-227
-60,7,60,298,335,760,535,-1128,-519,-139
-47,13,69,-94,175,644,554,-529,-106,25
-189,-149,-167,-337,-236,32,9,355,404,25
-210,-225,-328,-332,-375,-653,-656,628,147,-64
-40,-4,-71,-60,-159,-696,-1335,59,8,-25
23,29,-28,-70,-132,-368,-632,-400,-441,-78
95,172,108,74,18,-16,176,-577,-569,-102
394,395,388,382,370,388,408,-485,-652,81
334,390,424,438,481,609,658,-171,-53,216
63,24,56,48,100,185,434,711,474,171
-90,-137,-138,-152,-142,-184,-54,529,615,57
-87,-14,-30,-71,-74,-243,-530,-581,-83,-29
51,138,97,91,96,57,-188,-720,-261,56
119,12,-38,-2,14,74,100,-194,-206,70
-63,-85,-68,-74,-53,25,307,714,-38,-196
-99,-176,-93,-125,-102,9,363,1250,153,-139
-123,-174,-88,-26,-16,156,368,398,374,-35
-141,-121,-45,43,90,213,226,-682,-18,-48
-145,-99,-70,-36,17,154,433,-694,21,-59
-186,-175,-187,-134,-98,-98,71,-304,-130,-100
-53,8,-24,-10,-58,-330,-241,13,-40,0
61,80,71,34,-27,-407,-503,283,-84,75
94,97,144,114,67,-233,-878,279,23,159
91,28,99,41,2,-96,-578,279,-8,131
-30,-62,-65,-118,-74,299,316,-116,105,-37
-51,-191,-170,-239,-115,545,250,0,71,-82
108,-59,-51,-150,-67,374,123,341,232,-52
-130,-92,-188,-136,-136,-191,222,773,129,-142
-430,-173,-308,-74,-206,-501,434,592,40,-298
-316,-69,-119,-76,-154,-207,641,-278,-361,-266
18,265,343,79,189,372,488,-687,-303,-14
510,585,506,280,376,317,-650,-718,152,515
488,536,246,303,157,-210,-1171,-269,598,523
105,4,-114,137,-14,-264,-1052,-165,-27,41
-111,-177,-211,-99,99,-66,-418,-638,-461,-278
32,-70,69,-87,116,-84,212,-818,-613,-210
167,70,443,41,-84,-203,399,-328,-167,-3
-52,-153,311,439,-153,-91,388,385,14,-15
-132,-227,-87,327,-149,-19,169,848,326,-12
-72,-177,-387,-257,-70,39,161,927,166,-18
-12,-81,-371,-211,28,123,485,1076,216,-4
6,1,-164,-20,163,198,361,785,143,64
41,48,-8,-75,238,434,522,38,394,190
-50,-131,-176,-286,-59,266,588,-82,474,159
-176,-195,-230,-219,-199,64,453,-167,256,-76
-108,-20,54,149,62,2,-462,-1091,-634,-316
81,164,216,273,100,-299,-1375,-1292,-450,-139
181,132,129,49,-4,-389,-1033,-511,-228,185
66,103,128,57,116,133,542,53,-181,84
32,101,182,129,121,268,1042,158,-220,9
71,104,215,150,101,115,47,-98,30,87
220,171,250,151,91,-108,-845,-385,-14,253
225,169,189,126,73,-235,-1086,-110,181,221
10,-98,-139,-141,-104,-400,-990,190,79,-6
-269,-236,-283,-265,-215,-220,-84,144,-17,-287
-273,-192,-224,-217,-159,100,559,184,-146,-257
-125,-22,-90,-74,18,307,751,528,71,-106
51,139,2,40,76,91,561,690,54,34
105,178,-5,-5,-90,-315,162,510,234,87
-48,-59,-141,-252,-218,-271,-96,323,110,25
-290,-276,-242,-311,-242,344,236,195,197,-111
-274,-337,-230,-253,-227,490,365,312,41,-111
-10,-69,49,41,21,-26,71,38,72,8
252,150,263,266,264,-199,-186,-414,-73,119
270,191,289,323,289,-92,72,-742,0,98
15,-83,-79,60,79,-58,100,-699,-45,28
-107,-118,-174,-116,-108,-79,-32,-392,70,-82
-36,22,-43,-104,-143,-74,-172,-25,-181,-101
84,216,133,93,56,49,-244,102,-165,17
86,238,159,128,104,-233,-792,-38,-253,29
-88,33,13,20,41,-88,-365,463,-9,-88
-251,-322,-278,-221,-176,129,172,1125,196,-142
-214,-282,-295,-207,-181,37,494,870,518,-73
-63,-135,-163,-117,-78,-42,539,0,263,33
17,19,10,25,53,232,746,-482,-6,96
117,157,164,156,158,372,939,-705,-466,113
173,368,496,395,307,587,601,-1142,-549,75
126,389,800,413,293,268,-751,-924,-521,30
186,312,668,186,-27,-479,-1350,255,257,178
177,-13,-5,-119,-173,-373,-495,563,455,222
-17,-271,-422,-326,-138,52,162,198,371,4
-170,-382,-479,-279,-154,-66,178,45,-196,-221
-168,-376,-544,124,-28,70,534,267,-38,-194
-56,-221,-498,-7,-10,62,156,582,64,-50
50,-38,-136,-194,-62,16,-145,435,292,148
173,115,205,-33,76,6,38,-229,-160,175
112,244,400,363,416,55,141,-892,-536,-59
-166,-15,93,160,208,-118,274,-343,-252,-184
-181,-10,-104,-132,-94,-175,129,64,184,-136
-69,86,-96,-169,-138,-155,-153,-179,-5,-86
31,100,-81,-123,-77,-56,-207,110,188,89
64,76,-10,-96,-14,353,-572,480,96,134
46,55,14,-154,-94,368,-449,618,250,76
184,148,127,-57,-151,-106,-382,144,195,141
139,140,223,351,-4,-104,-470,-470,-23,35
54,-3,84,273,10,-188,-257,-556,-212,11
-39,-47,35,80,-18,-304,-47,-302,21,-13
-77,-59,35,-115,-83,-139,290,67,89,36
31,30,33,12,-66,-78,449,399,488,231
-10,25,33,237,116,-257,-105,308,2,-11
-163,-36,-4,39,165,-27,-174,-86,-353,-273
-104,-61,-84,-200,-26,62,4,-333,-448,-133
-54,3,-60,-165,-76,-3,-74,206,99,-19
-76,-66,-79,-98,-42,36,-237,499,152,-87
-4,-57,-83,51,-2,158,158,-9,163,-43
-116,-281,-283,-120,-159,91,566,-184,10,-88
-208,-240,-196,-161,-90,155,760,-180,61,-119
-63,-9,106,125,156,162,264,-71,-186,-59
142,129,140,118,24,-236,-277,458,223,211
248,120,81,-75,-80,-385,-421,352,141,355
222,206,232,64,142,91,-205,-516,-222,165
158,157,197,114,122,282,-118,-923,-362,6
17,64,92,122,96,361,368,-145,-16,-113
-81,-42,-54,28,-7,96,391,60,-128,-181
-101,-78,-211,-99,-223,-187,234,220,-88,-143
56,-1,-185,-12,-81,-69,245,528,-200,-1
40,79,-89,-16,204,172,163,409,-4,73
-63,-20,54,35,260,98,-181,-74,-6,52
-78,-5,221,164,146,21,-207,-476,88,-58
-167,-197,153,21,-23,79,251,-296,-115,-188
-211,-229,47,-144,-108,69,665,364,154,-91
-112,-150,-112,-253,-123,-143,165,699,151,-12
78,-28,-195,-245,-132,-173,-439,844,262,-19
98,38,-111,-100,-40,49,-322,586,184,-63
214,297,58,241,123,133,-299,-561,256,62
345,472,123,383,109,-237,-1088,-1367,-100,284
271,260,91,186,56,-345,-930,-857,-94,305
-20,-119,-45,-113,-5,20,141,-24,-328,-33
-196,-213,-124,-195,-145,238,724,446,26,-144
-266,-207,-110,-147,-177,-96,512,233,80,-146
-176,-104,3,25,26,21,239,-357,53,-87
20,-76,-55,14,36,346,180,-344,-111,-26
-9,-40,-49,-56,-124,-47,-22,155,114,-27
-22,-34,-25,-109,-176,-453,-356,312,105,69
-230,-210,-163,-202,-122,17,598,814,185,-101
-387,-430,-356,-325,-104,175,1429,1053,2,-297
10,-126,-112,-145,1,57,327,-170,87,-96
438,236,170,9,4,-130,-952,-1309,-15,234
374,355,250,292,64,-58,-1282,-709,-315,202
231,403,371,663,302,-12,-1639,362,-564,129
289,359,361,444,339,31,-668,236,-74,275
172,134,179,98,171,68,948,137,-3,154
71,146,173,112,128,81,1055,-276,98,74
30,118,109,68,60,-47,122,-875,-150,32
-164,-52,-31,-6,33,80,-73,-304,-98,-135
-249,-230,-215,-138,-60,219,-72,405,114,-115
-208,-235,-363,-251,-301,12,17,809,582,62
-310,-341,-397,-376,-378,-243,519,640,184,-157
-558,-423,-339,-513,-326,-198,1235,339,-110,-548
-430,-346,-256,-498,-278,-200,583,-243,-288,-426
53,5,-6,-231,-50,90,-179,-285,-257,-106
426,310,364,129,318,525,-267,423,-146,201
609,502,679,654,599,341,-1129,47,328,511
449,272,315,992,412,-257,-1796,-540,272,411
103,56,-147,255,-155,-566,-635,90,280,155
-70,-30,-207,-365,-237,-193,811,359,-108,-46
-105,-49,-52,-215,53,448,1389,399,126,-6
-170,-163,-34,-132,117,552,859,175,166,-31
-181,-133,-33,-20,1,344,177,-381,204,-75
-206,-137,-41,256,-113,-263,-432,-965,-323,-211
-75,-48,-40,177,-134,-662,-1192,-1055,-307,-145
230,152,-12,-172,-219,-730,-1362,-760,-439,29
420,367,165,-71,-100,-449,-819,-507,-199,199
326,364,310,117,170,178,33,-63,-68,201
193,246,337,125,176,370,645,485,366,248
8,-48,37,-6,36,321,653,773,255,151
-169,-171,-187,-27,69,339,420,688,81,-103
-168,-155,-156,-40,33,186,375,565,-170,-172
-149,-126,-108,-49,2,174,459,481,82,-124
-225,-226,-183,-162,-109,-4,197,243,43,-168
-246,-220,-196,-208,-184,-157,29,-399,80,-176
-260,-279,-295,-280,-227,-99,274,-293,42,-126
-271,-260,-270,-229,-122,87,463,207,145,-153
-241,-209,-195,-174,-97,-68,-119,50,-180,-238
60,58,33,-8,-62,-199,-463,180,69,42
468,336,305,218,113,-102,-262,564,171,403
539,469,462,406,354,105,-32,117,-91,339
344,362,393,363,385,142,-81,-1265,-686,139
-53,34,109,133,213,206,389,-618,-536,-170
-330,-320,-225,-152,-8,206,420,310,-104,-253
-419,-432,-396,-343,-276,11,204,316,335,-231
-221,-192,-216,-237,-290,-189,-167,311,278,-109
31,121,68,17,-69,-182,-404,227,444,71
-1,-24,-58,-86,-21,-26,-157,352,422,51
-86,-121,-214,-268,-160,-51,363,618,567,9
-150,-87,-166,-230,-116,96,498,196,-228,-222
81,233,121,45,10,43,101,-476,-422,-92
349,334,278,236,9,-224,-509,-596,-214,293
234,151,173,223,-74,-394,-1028,-290,105,224
-7,-40,-32,95,-44,-204,-818,43,123,7
107,119,77,284,231,151,-210,-162,129,75
299,249,292,295,369,138,-295,-869,-331,206
161,132,280,110,267,224,101,-815,-385,129
125,113,278,118,233,236,149,-308,-282,104
-42,-28,35,26,29,174,403,413,237,-16
-284,-338,-300,-161,-221,-10,401,542,163,-216
-124,-146,-132,82,20,123,451,87,-50,-143
121,8,-138,83,97,53,233,26,-11,173
11,29,-112,-116,-79,-233,-152,269,14,46
-78,-6,5,-107,-83,-135,34,380,-299,-138
22,32,85,-12,-9,24,403,560,141,75
-48,-135,-83,-140,-141,-86,207,485,316,95
-124,-146,-120,-110,-115,-48,-140,25,227,-83
-34,22,29,32,-11,-213,-722,-465,-62,-101
-24,142,116,31,-18,-158,-550,-499,20,-59
-82,86,115,-48,-21,13,14,-609,-278,-112
-188,-29,12,-53,15,122,1127,-464,-324,-235
-347,-250,-210,-138,-31,296,1830,319,-275,-338
-253,-211,-228,-73,7,543,797,758,129,-168
65,-32,-144,0,-32,220,-453,492,175,137
386,255,168,263,50,-245,-1692,22,374,419
379,237,208,110,108,-475,-2633,-115,289,405
-69,-109,-65,-257,-103,-616,-1160,-170,139,-60
-311,-289,-191,-348,-283,-303,726,-21,-45,-289
-324,-157,-139,-159,-189,291,1197,228,182,-180
-116,4,-62,126,-88,230,571,214,-46,-49
233,229,151,319,176,63,146,-310,-164,127
427,218,152,180,280,32,-58,-562,-259,213
241,24,-29,-25,77,48,11,338,173,104
-52,-161,-180,-146,-83,-45,208,1238,259,-24
-134,-187,-157,-137,-98,243,404,707,248,-71
-105,-268,-203,-260,-133,457,369,-211,-105,-47
-18,-105,9,0,0,271,94,-546,-185,7
25,42,226,267,148,-50,-357,-567,-314,66
-152,-71,107,159,73,-207,-110,-230,-74,-59
-183,-104,-54,-13,-31,-293,-8,-273,-73,-103
174,265,38,-48,-16,-273,78,-969,-155,50
384,484,110,-198,-21,-110,353,-536,-171,151
172,396,80,-259,-55,268,535,559,388,78
-67,124,-47,-282,-215,-145,-154,897,455,0
-259,-211,-122,-54,-96,-367,-960,557,309,-113
-242,-291,38,479,182,-11,-919,518,-102,-168
191,105,277,611,251,82,-403,224,137,227
411,243,244,226,264,146,-48,-621,-348,323
436,385,402,360,453,359,463,-1531,-785,206
193,225,285,277,301,240,176,-1633,-598,76
-124,-99,-28,-24,44,160,-69,-677,-23,-104
-238,-306,-227,-323,-210,-138,-292,291,122,-190
-299,-341,-265,-484,-387,-386,28,1277,415,-272
-241,-321,-222,-487,-345,-335,375,1612,324,-220
-40,-67,-18,-302,-233,-26,724,922,277,54
101,128,100,-19,-103,141,805,-131,-221,103
90,173,124,364,90,340,696,-449,-289,-10
-119,-81,-148,369,202,703,265,-199,-205,-164
-2,-44,-193,134,143,225,-666,-534,145,6
178,177,58,93,75,-522,-1285,-879,77,191
159,263,219,132,-45,-771,-1219,-329,132,163
-9,21,96,-43,-115,-339,-247,425,-81,-48
-120,-102,-128,-189,32,276,623,646,172,-104
0,-46,-125,-199,-38,-28,137,384,261,74
-75,-58,-66,-90,-62,-59,-49,119,103,-39
-41,-24,6,80,45,77,-185,-329,-192,-34
12,-7,29,187,88,108,38,-120,133,70
-92,-117,-93,110,7,-60,309,235,94,-63
-209,-226,-272,-294,-166,-386,52,175,1,-220
-142,-219,-232,-387,-225,-419,-253,-71,-267,-156
-29,-47,24,-84,-45,254,95,-131,-252,-65
124,100,95,73,78,701,767,633,-92,124
165,206,145,157,144,276,557,98,126,198
-132,-60,-21,21,33,-169,171,-606,-66,-61
-343,-285,-189,-99,-48,-21,237,14,204,-208
-401,-407,-319,-228,-252,102,12,1114,296,-188
-358,-324,-297,-271,-312,-30,-33,1567,492,-191
-6,-45,-34,-131,-69,-162,47,497,-9,-85
390,345,358,184,271,16,296,-598,-442,64
520,369,354,125,190,-14,294,-689,-476,232
456,338,286,141,232,531,265,-1221,-220,304
545,484,417,403,424,398,-756,-2068,-267,454
485,530,495,711,394,-237,-1249,-1423,-47,399
112,164,206,476,143,-362,-555,-342,-47,88
-104,-8,2,30,8,-258,-65,-22,10,-110
-82,0,-25,-136,-132,-487,-447,417,-130,-114
-180,-116,-143,-235,-273,-361,-563,731,187,-133
-289,-318,-300,-347,-339,-2,-203,689,201,-163
-293,-370,-341,-355,-256,357,634,869,436,-138
-204,-300,-296,-282,-157,519,727,909,482,-42
-133,-189,-231,-229,-146,120,422,690,792,89
-215,-164,-229,-224,-121,-218,117,507,76,-133
-104,90,114,82,153,-101,307,-14,-663,-249
163,229,372,272,261,219,-23,-589,-614,24
196,142,248,144,104,378,-204,-566,51,200
123,9,-4,31,34,-35,-264,-663,-69,87
95,12,7,161,132,90,0,-919,-203,-5
-20,-71,43,224,159,335,137,-370,-252,-54
-138,-162,-55,86,63,249,354,705,124,-68
-200,-173,36,-84,-133,-247,123,595,19,-150
-116,-91,67,-181,-245,-566,-245,-181,235,5
59,0,-163,-178,-83,-282,-377,76,192,188
97,120,-271,-64,67,123,-101,458,42,34
74,62,-253,-175,-76,-194,97,229,-213,-35
93,73,-81,-43,0,-92,453,310,-31,83
46,51,32,127,186,385,375,85,-169,39
-67,21,93,181,203,391,48,-584,-13,-71
-18,55,138,128,107,115,44,-288,129,-29
46,108,106,24,-67,-205,269,287,309,27
85,77,43,-72,-222,-505,-405,90,46,82
-6,45,52,-15,-138,-227,-104,-72,-154,-1
-75,-59,101,123,42,-60,179,-97,-323,-35
-28,-87,144,151,129,-36,-742,-312,23,63
-89,-223,-57,-153,-51,103,-296,181,124,63
-264,-360,-292,-400,-246,14,451,1010,501,-37
-301,-300,-424,-571,-408,-89,264,876,410,-198
-143,31,-290,-367,-263,259,484,178,220,-272
128,417,113,303,89,349,195,-570,-575,-215
426,655,365,510,199,-85,-297,-545,-254,216
490,343,299,236,136,-217,-441,-678,-8,533
140,-12,282,335,259,-33,-217,-887,-125,198
-166,-177,172,247,336,72,-248,-662,-457,-148
-229,-198,-10,55,245,93,-122,-232,-7,-83
-244,-246,-229,-156,-33,-72,-134,94,300,-98
-146,-198,-317,-298,-248,-21,141,553,427,-270
153,-126,-323,-374,-374,-85,171,766,69,-201
146,-41,-156,-295,-275,-86,208,590,-73,-40
159,140,178,-67,-14,125,157,32,-478,19
309,438,489,278,206,135,278,20,-253,259
238,259,284,222,196,58,362,-129,32,371
-22,-29,48,140,123,19,-12,-624,211,120
-184,-226,-126,168,90,-17,-353,-515,64,-30
-192,-199,-211,160,44,-4,-355,-92,106,-83
-141,-10,3,58,85,86,-520,-165,-454,-224
-153,-42,-41,-128,-112,-198,-615,50,-85,-150
-233,-242,-262,-232,-287,-344,-270,496,190,-113
-148,-114,-115,25,-68,46,391,634,194,-51
108,123,56,46,118,66,436,139,-125,142
356,376,204,103,190,36,541,-509,-88,327
244,230,84,50,132,111,483,-470,-269,140
-35,-63,-149,-213,-52,-25,297,14,-33,-119
-181,-299,-296,-407,-188,-22,140,239,-73,-260
53,-132,-17,-347,-225,-189,-452,344,228,-6
128,76,418,-159,-125,-319,-970,558,383,183
-142,74,582,508,256,259,-190,239,230,-47
-203,-38,228,1090,341,289,263,-181,-105,-120
-9,0,-303,266,85,-58,109,-217,251,130
78,25,-316,-327,4,-179,-148,-298,-6,102
-27,46,-82,-246,28,-120,-183,58,-53,-96
7,61,-1,-172,-94,-212,-552,-124,-25,-28
90,18,-78,-195,-252,-103,-185,15,350,129
57,-108,-137,-181,-227,296,577,162,-34,56
66,45,48,57,-27,382,979,-75,-269,-5
5,88,154,244,154,49,355,-308,-265,-34
-75,49,92,129,105,-82,-345,-530,-113,-111
-7,-9,28,19,84,147,38,-284,-309,-78
160,96,110,92,173,210,147,5,43,60
3,-22,-30,-113,-65,-342,-279,114,162,20
-264,-192,-223,-291,-232,-275,-6,56,68,-194
-214,-175,-194,-203,-122,93,505,341,-318,-226
-85,-65,-101,-57,-4,232,432,760,0,-110
-128,-145,-151,-80,-30,196,304,1122,194,-75
-7,11,-16,15,-8,27,67,688,459,125
285,232,221,207,178,330,-833,-803,196,331
356,331,335,313,270,190,-929,-1548,109,326
239,193,219,167,88,-369,-317,-873,-93,222
14,10,48,-20,-90,-252,143,139,-95,31
-230,-239,-139,-152,-122,-103,238,395,-287,-194
-181,-159,-53,-28,-19,-145,-298,12,-15,-135
-153,-133,15,2,-32,-29,-297,289,101,-55
-252,-152,42,-57,-79,180,580,645,212,-138
-308,-212,-60,-120,2,461,896,43,-186,-293
-95,-91,-157,-188,-69,292,255,104,-113,-171
203,87,-291,-379,-444,-372,-562,483,28,77
242,261,-197,-180,-366,-581,-591,251,145,103
192,262,64,131,33,-429,-442,-420,-189,92
168,258,309,356,346,97,61,-703,-328,18
233,144,287,243,408,351,79,-518,-248,104
233,30,67,46,224,99,-113,-134,524,384
206,99,99,44,143,-194,-346,-562,215,305
62,93,42,157,211,63,104,-278,-278,-44
-149,-129,-160,-66,31,342,562,471,-455,-220
-233,-225,-85,-167,-168,326,686,461,-71,-195
-226,-251,-7,112,-145,95,351,96,-51,-157
-191,-221,-112,246,-8,218,393,383,209,-91
-176,-213,-249,-148,30,272,410,516,169,-64
-96,-104,-150,-178,26,86,150,206,271,-29
31,7,-40,-35,-3,-80,241,-146,75,24
115,126,115,43,-97,-449,132,-231,100,61
186,169,143,-23,-146,-567,-988,-286,8,164
161,209,214,57,70,1,-1203,-208,-153,110
143,200,294,172,180,336,-649,-155,-155,94
-9,62,157,58,21,183,-199,-286,203,44
-108,-124,-119,-199,-299,-421,134,33,230,12
-145,-143,-232,-131,-315,-570,439,599,317,-59
-196,-130,-272,-67,-115,-421,4,587,-28,-227
-178,-4,-192,-161,123,-232,-338,119,-88,-218
6,60,-20,40,209,294,-135,-259,-249,-17
238,206,215,386,206,506,104,-649,-131,192
182,123,172,395,142,134,100,-629,-254,192
-5,-7,5,115,106,139,378,-288,-39,68
-114,-191,-135,-189,-89,52,672,211,-43,-46
-203,-394,-279,-461,-376,-143,707,896,175,-240
-172,-388,-256,-435,-365,-24,747,1135,178,-293
-183,-198,-131,-132,-85,206,609,724,320,-218
-95,-19,-43,54,122,120,-345,35,39,-82
349,390,311,297,248,-116,-1454,-1042,96,384
665,619,469,367,279,-98,-1489,-1642,-95,678
279,360,280,240,269,153,-336,-1196,-467,193
-108,-66,84,68,152,56,311,-219,-665,-228
-134,-191,19,-27,14,-39,252,264,-156,-169
-162,-176,-18,-162,-166,-106,-124,530,142,-89
-104,77,49,-128,-211,-144,-280,570,366,-68
-17,145,12,-52,-131,-75,158,765,167,-41
-53,-58,-128,-62,-53,127,637,561,172,-44
-120,-187,-261,-100,-2,148,430,21,-101,-104
-104,-44,-201,-80,-8,-21,52,181,53,-71
-35,56,-60,-77,-51,-109,-81,136,23,23
-54,17,-54,24,0,110,316,90,192,57
-55,-115,-119,-27,-6,160,442,382,119,48
-53,-98,-68,-17,19,81,279,351,201,-45
-77,8,11,81,101,-4,-153,-275,68,-27
248,239,190,150,50,-330,-844,-1197,-125,114
589,281,228,65,-45,-514,-1172,-1279,-370,183
452,105,84,-51,-64,-122,-342,-194,233,237
-115,-120,-10,-156,-28,184,299,545,-6,-82
-297,-67,184,-64,-8,103,359,344,-319,-269
-138,-22,204,88,80,147,375,-94,-443,-124
33,33,-12,324,242,333,389,-307,-73,83
-70,-158,-250,223,127,80,-78,5,12,52
-170,-237,-254,-132,-92,-126,-108,658,332,-27
-124,-141,-176,-243,-157,-213,-84,465,15,-130
-43,46,-41,-108,-104,-209,10,-121,-46,-104
113,191,97,0,-45,-151,-28,-686,-209,94
117,200,170,100,86,151,219,-373,-70,106
20,38,119,153,125,318,160,86,-27,-8
1,-22,117,108,-16,319,24,316,327,60
-69,-144,33,-56,-92,107,-174,656,201,5
-46,-101,35,-33,-98,-153,18,445,196,-39
52,-1,55,115,-8,-287,-74,-293,-100,-11
-26,-5,-37,45,91,18,25,-687,-89,-40
-36,-95,-280,-250,17,234,150,-487,-66,76
25,12,-279,-132,-23,216,84,-285,-5,88
-17,49,-164,-52,10,-16,-85,-81,-321,-108
70,198,105,-16,68,-149,-191,246,-107,-56
194,221,297,56,106,-23,-120,402,4,96
141,59,289,64,77,91,-15,44,239,137
-45,-151,84,-67,-89,-28,-35,-120,117,37
-307,-320,-195,-112,-231,-95,158,239,199,-193
-397,-402,-328,123,-265,-170,105,449,60,-281
-319,-344,-391,-12,-248,-198,102,870,376,-137
-62,-104,-341,-467,-195,-128,270,1097,285,39
277,371,102,-146,50,25,236,176,63,191
452,604,457,271,373,158,-124,-987,-535,198
351,523,528,475,539,287,-314,-1218,-511,91
49,51,182,389,381,196,-198,-782,-258,-33
-193,-243,-141,0,34,11,-8,-434,101,-123
-136,-195,-142,-224,-211,-207,-361,-280,18,-63
14,-43,-54,-190,-255,-172,-237,202,226,90
-30,-130,-153,-313,-270,-70,228,909,181,63
-104,-122,-28,-273,-165,81,561,920,225,-37
-98,-66,102,-75,-64,71,316,148,-93,-98
-75,-13,32,247,0,-21,169,-57,-2,-77
-122,-114,-142,497,121,-109,126,160,-140,-125
-28,19,-24,232,205,98,72,-63,-38,-64
137,147,113,-7,183,258,-273,-388,-46,109
169,164,142,-14,92,77,-508,-480,163,193
81,46,29,-93,-77,-156,-478,1,72,115
25,6,-21,-110,-183,-151,-121,650,249,85
-23,-44,-27,-57,-104,-103,235,330,37,-35
-20,5,-5,12,-5,-180,-29,-496,0,-45
40,94,-3,-13,-63,-350,-348,-1064,-384,19
-1,143,103,45,24,-20,233,-333,-292,-73
-89,-32,65,-39,-20,75,444,544,-174,-121
-136,-132,-25,-88,-65,-52,-28,196,58,-117
-38,-101,-95,-47,-33,56,-426,-68,38,4
7,-87,-70,64,87,441,68,106,164,46
-53,-176,-89,43,106,113,157,-253,-22,-11
-64,-150,-232,-78,-9,-185,132,-258,82,-3
-139,-139,-216,-252,-164,-16,381,419,-155,-136
-70,22,120,-43,4,564,644,862,11,-89
222,262,358,228,198,548,336,549,74,185
322,304,281,273,207,265,67,-181,310,356
174,140,91,153,117,-133,-534,-970,-162,151
113,169,122,124,7,-566,-726,-752,-176,16
26,32,-51,-86,-130,-655,-649,-103,-71,16
-137,-122,-203,-201,-137,132,374,85,146,-75
-128,-145,-172,-183,-127,138,630,245,61,-116
-83,-60,-104,-76,-61,-163,234,672,179,-88
-62,-46,-56,27,25,-129,-81,661,67,-67
84,110,114,156,120,-85,-774,46,169,52
253,158,133,85,46,-233,-1151,-493,101,292
98,-35,-36,-101,-120,-190,-104,-289,225,251
-125,-193,-149,-211,-225,-34,579,185,-86,-76
-283,-200,-146,-162,-146,72,275,447,-39,-320
-340,-262,-185,-124,5,114,-25,145,-332,-398
-125,-75,-31,51,149,406,448,-33,-298,-203
4,-5,-36,12,59,165,838,113,-168,-2
30,35,-53,-30,-45,-42,559,-453,-56,21
32,27,-20,-11,-1,160,358,-655,-79,22
-66,-44,-2,-52,-13,335,-257,-220,193,-96
-10,-18,33,-163,-179,125,-1107,401,282,-10
214,191,140,-160,-331,-502,-847,807,580,324
113,131,88,-7,-69,-632,162,548,-112,72
105,273,279,473,436,15,1015,25,-596,-103
313,385,398,713,542,343,721,-876,-650,198
309,361,256,447,373,245,186,-1309,-339,335
147,129,87,128,233,61,-732,-607,-148,220
17,1,33,32,70,-195,-1778,274,431,134
-234,-268,-252,-195,-152,-23,-860,550,349,-162
-167,-270,-304,-363,-379,260,921,344,246,-252
-65,-200,-219,-353,-335,121,1062,68,60,-143
-78,-173,-83,-253,-125,-169,227,271,375,63
-74,-76,199,-167,-10,-264,-365,-11,-95,-57
-55,75,479,233,90,-165,-317,-593,-720,-351
120,174,363,467,120,-158,-635,-404,-533,-57
215,286,0,150,143,104,-414,65,261,235
-104,4,-313,-67,88,413,405,445,308,-52
-339,-321,-511,-203,-80,424,637,928,583,-161
-255,-325,-493,-179,-136,342,552,774,477,-73
31,29,-161,-240,-145,-241,-114,-187,414,135
133,136,23,-464,-306,-838,-431,-654,-178,205
163,116,318,-214,-109,-264,291,-639,-628,51
250,134,482,231,216,37,-457,-978,-679,54
89,-3,164,220,232,278,-564,-568,-12,91
-51,-190,-181,32,21,503,246,408,175,54
-18,-70,-191,563,-28,225,380,657,88,-23
190,179,-28,498,37,-530,-46,352,-133,67
146,190,75,66,139,-488,-110,76,117,40
-15,14,39,-51,140,-81,-49,-169,-24,-60
-17,55,125,-26,144,171,-85,-27,73,-23
-9,14,-22,-179,0,98,2,218,61,71
-262,-313,-279,-302,-176,-44,284,141,258,-80
-434,-479,-369,-309,-212,-104,624,78,-90,-316
-241,-103,-131,-87,-56,46,555,-166,-353,-334
37,197,62,28,21,143,-72,-107,-372,-131
246,348,229,79,24,59,-432,419,142,172
173,145,143,-35,-40,87,-353,915,313,214
-25,-77,-52,-173,-136,20,-47,353,472,84
-132,-174,-160,-216,-104,-10,67,-444,68,-80
-1,-4,-26,-86,-22,162,-52,-446,-43,-28
248,231,260,372,175,188,-172,-537,-265,185
323,342,471,823,528,193,117,-608,-109,299
133,92,183,317,348,40,206,-262,-18,178
-190,-179,-222,-243,-124,-191,320,123,65,-144
-361,-311,-344,-420,-334,-308,255,468,-140,-313
-360,-296,-254,-368,-352,-306,89,1000,57,-302
-272,-226,-150,-314,-347,-378,-41,1092,13,-286
-141,-122,-81,-179,-145,63,69,181,194,-165
52,-39,-21,-7,77,660,86,-766,113,75
349,264,261,262,215,329,-333,-1166,72,347
438,317,200,368,314,23,-500,-1070,-217,358
79,26,8,145,156,-32,-153,-274,-87,35
-178,-182,-82,-13,40,-90,11,523,-152,-183
-69,-45,-9,4,8,-2,-80,528,153,-31
97,40,41,-63,-119,-49,28,250,220,179
63,62,46,-40,-47,-81,489,70,151,120
112,170,129,58,117,-52,32,-97,-97,104
112,194,153,42,43,-182,-497,-735,-100,14
-218,-193,-127,-180,-155,-139,-147,-321,-294,-294
-420,-379,-229,-135,-74,105,158,340,-157,-400
-283,-311,-173,-20,-40,209,123,481,11,-189
37,-51,10,137,-95,90,-36,283,373,154
162,93,97,108,-41,-77,-34,530,159,222
123,140,59,-24,33,-105,198,608,112,136
204,182,30,-67,101,-57,101,32,-79,182
239,257,110,97,191,77,30,-638,-167,127
84,98,35,72,65,-60,-242,-745,-325,-52
-61,-64,-67,-70,-70,-8,139,-90,37,-104
-160,-170,-75,-162,-104,117,332,528,80,-146
-166,-71,10,-147,-122,24,185,704,374,-105
-216,-171,-178,-211,-236,-302,26,891,316,-130
-180,-175,-254,-140,-192,-310,-176,715,191,-123
108,104,70,164,140,-38,-616,-372,-225,33
288,312,334,366,342,325,-175,-1198,-197,181
286,263,312,312,309,383,435,-1109,-291,253
181,143,199,144,122,111,206,-786,-60,217
16,-61,45,-22,-13,23,74,-259,3,98
-197,-193,-60,-109,-91,22,107,609,192,-114
-237,-197,-126,-157,-163,-102,-15,641,-119,-221
-36,-15,-66,-77,-98,-82,86,370,32,21
221,162,34,51,38,-55,-135,-193,-101,231
14,85,-28,77,153,109,-255,-892,-293,-147
-238,-171,-242,-150,-39,-34,-259,-460,-414,-373
-157,-90,-133,-135,-122,38,371,443,-4,-177
-42,2,-19,-47,-18,171,371,299,-57,-64
89,63,49,37,32,38,-398,-158,241,119
269,130,129,100,-30,-348,-942,-432,148,360
173,149,204,177,57,-174,-319,-213,13,181
54,92,196,185,193,80,211,217,-189,18
114,130,154,156,187,141,467,293,190,183
-16,-57,-59,-65,-18,-23,347,-1,84,35
-301,-284,-274,-305,-264,-97,328,125,138,-263
-423,-396,-375,-350,-278,30,208,826,140,-382
-249,-240,-251,-166,-145,84,-42,974,394,-169
-17,-132,-166,-81,-192,-102,-119,408,339,164
128,23,0,87,-140,-118,217,-385,122,205
102,59,153,106,39,-79,71,-696,-458,-15
50,159,259,-5,237,47,-59,-305,-476,-149
234,396,394,139,336,197,-265,-669,-429,30
363,475,409,308,305,95,-927,-703,27,350
179,200,122,218,122,-104,-848,-411,-38,246
41,157,33,466,139,47,144,-432,-9,11
-8,47,-134,95,14,38,317,72,-10,-81
-67,-64,-215,-469,-193,-92,108,662,354,-57
-191,-241,-214,-375,-104,153,474,860,112,-103
-195,-309,-189,-74,-10,275,814,700,-46,-204
-184,-314,-197,168,-168,-250,391,632,-16,-243
-88,-169,-233,70,-190,-350,-98,616,356,-110
-1,-79,-260,-222,-91,-161,-365,-52,162,1
145,41,-117,-238,-63,-69,-618,-690,346,327
220,60,7,-170,-103,-53,-644,-735,97,403
-4,76,197,71,113,38,-152,-852,-429,-99
-200,-20,269,55,126,86,100,-602,-819,-430
-72,-15,228,-53,-75,-22,244,267,59,-10
-32,-42,-3,-17,-31,8,287,856,363,137
-43,66,0,171,130,77,203,546,17,-96
112,156,168,286,216,8,-243,-545,-417,-81
159,106,137,199,166,58,-123,-889,-203,52
-98,-248,-254,-214,-135,187,712,430,-51,-75
-311,-368,-420,-373,-230,408,1758,1252,253,-179
-175,-147,-189,-193,-47,368,1529,796,158,-87
-59,3,6,42,165,305,677,213,176,-26
23,85,79,95,156,-183,-465,-303,-65,1
327,437,320,152,-44,-886,-2239,-904,10,224
457,461,378,142,-120,-776,-3095,-772,72,373
225,141,176,51,-108,-151,-1254,-72,279,236
-54,-142,-37,26,-66,250,626,392,9,21
-116,-137,-52,157,34,82,584,302,62,-42
-154,-172,-145,-15,60,-232,-113,15,-139,-155
-155,-183,-274,-244,-93,342,113,481,243,-102
-31,-46,-198,-194,-127,479,465,154,130,5
-25,51,-71,-59,-54,-54,744,-574,-62,-25
-23,-8,27,79,61,394,941,-835,-423,-19
83,103,331,202,185,489,439,-882,-298,64
218,215,466,231,164,-285,-255,-154,-59,221
193,215,242,236,202,-238,-426,806,292,157
27,33,-108,-27,17,12,-606,846,188,-19
-29,7,-200,-253,-203,139,-267,172,168,-26
-50,24,-180,-174,-127,-47,-32,-581,-255,-77
-34,86,0,43,44,-133,44,-466,-86,-29
17,53,117,66,7,-267,4,100,-31,48
-59,-20,86,35,-35,-257,121,469,165,0
-130,-125,-52,-19,-39,-220,53,322,-69,-101
-103,-161,-128,-36,-46,-100,48,89,6,-105
14,-215,-165,-17,50,226,278,-89,-102,-32
67,-174,-181,22,147,571,702,-146,-98,-88
-86,-121,-38,-24,42,473,501,94,-179,-160
-188,-60,77,-39,16,290,328,73,57,-107
-151,-102,-18,-142,19,231,245,-188,18,-10
-64,-50,-89,-237,-198,-301,-283,-182,286,79
-13,-31,-77,-230,-365,-732,-647,313,298,121
-104,-57,-21,-14,-160,-340,-215,908,298,8
-85,-13,23,357,26,30,68,611,-121,-94
-100,51,46,506,147,117,86,-285,-206,-177
3,168,72,80,214,-1,-259,-681,-431,-122
203,324,170,28,243,64,-292,-482,-195,44
276,171,55,-94,98,-55,-342,-267,-12,201
202,-54,-87,-246,-88,-276,-81,280,188,124
-37,-276,-280,-362,-191,-115,694,733,-68,-173
-193,-265,-284,-318,-197,150,555,179,93,-177
-70,-36,1,-123,-223,86,41,-358,22,55
-51,97,280,246,15,19,304,-512,-178,-24
-60,-19,162,276,162,58,198,-25,-283,-88
2,3,1,-21,73,6,-71,33,-4,-27
107,112,-18,-180,-33,-8,-710,-747,-98,41
290,276,125,160,21,-71,-971,-451,288,317
375,315,300,644,319,-54,-976,99,245,386
353,303,206,281,333,-150,-1085,-87,273,343
145,122,8,-199,140,-55,-152,-298,-287,90
101,207,179,100,122,299,731,-435,-277,33
-33,-15,218,645,121,444,598,-322,-216,-41
-261,-336,-156,49,-134,201,442,408,178,-157
-310,-352,-358,-464,-283,-378,258,918,249,-171
-340,-235,-354,-482,-326,-404,247,893,402,-200
-190,-10,-77,-306,-182,100,193,379,67,-156
91,294,356,53,83,352,39,-373,-169,33
87,153,277,142,134,75,-131,-587,-260,69
8,-57,-5,58,39,-185,-141,-465,31,36
-64,-234,-232,-72,-12,-102,-144,-548,-135,-106
38,-197,-202,-47,-22,37,50,-52,43,-87
69,-214,-266,-105,-94,-38,282,771,129,-16
-191,-176,-158,-107,-48,144,717,1030,142,-179
-222,-125,-77,-121,-121,53,500,1049,3,-142
-45,23,-46,-68,-139,-80,354,1036,210,48
-26,94,-50,-6,30,-89,154,687,47,-23
51,249,150,118,161,63,-374,-544,128,17
206,283,315,146,134,-70,-1014,-1995,-404,104
315,299,383,155,94,-115,-777,-1775,-444,206
221,94,182,21,22,-19,-107,-266,-224,214
-56,-187,-170,-82,18,261,501,779,190,31
-258,-388,-371,-164,-66,112,433,670,260,-76
-323,-374,-326,-129,-128,-110,143,293,324,-141
-321,-397,-403,-107,-105,67,300,161,134,-163
-329,-263,-232,-71,-104,256,533,144,119,-230
-151,26,89,-99,-185,-62,399,509,-100,-174
266,452,515,108,3,-161,175,509,-128,48
634,730,609,453,359,-215,-888,-677,-367,285
638,562,305,339,296,-541,-1309,-1166,-106,421
381,102,58,67,30,-492,-480,-693,-109,382
51,-24,60,117,56,-44,63,-335,-35,91
-205,-167,-20,91,74,255,-60,-171,-216,-274
-289,-269,-191,-148,-118,546,80,284,85,-279
-157,-279,-339,-384,-347,235,170,624,254,-45
-153,-227,-342,-367,-249,65,333,529,317,-30
-272,-216,-307,-281,-82,169,621,690,30,-215
-196,-68,-150,-120,-58,-115,720,537,175,-182
-72,-22,-72,-68,-80,-292,60,-9,69,-56
161,213,216,189,137,-104,-534,-906,-247,49
323,319,381,341,294,43,-690,-765,-487,169
123,118,166,160,160,147,-81,400,148,138
-61,-79,-32,-43,17,43,145,470,229,6
26,36,86,32,117,49,-115,-159,217,66
108,76,101,-45,14,-65,-330,-399,67,171
60,47,41,-110,-98,-67,-83,-467,80,135
-27,8,39,-30,-33,70,502,-415,-261,-32
-14,40,118,340,137,450,765,-360,-327,-108
91,85,138,503,197,520,347,63,-316,2
18,-13,-41,10,-4,0,-135,742,267,69
-171,-248,-286,-486,-152,-218,-742,995,341,-72
-269,-285,-297,-443,-221,-393,-525,867,387,-214
-249,-258,-192,-251,-277,-389,182,327,55,-249
-34,-18,87,190,-87,-306,27,-409,67,-8
270,173,263,573,160,-367,-747,-1306,-186,342
282,287,334,519,479,144,-324,-1221,-430,232
131,260,173,90,271,326,153,-409,-460,-54
-24,137,-83,-142,-58,63,216,244,-63,-156
-136,-77,-368,-367,-286,-197,68,599,73,-158
-193,-105,-403,-393,-324,-148,-6,283,251,-135
-107,-125,-141,-223,-191,218,129,88,199,23
-52,-113,97,-22,0,308,468,595,198,47
-84,-146,85,51,138,304,699,719,-161,-75
-38,-90,2,95,148,312,840,288,-18,-16
20,-56,-12,77,100,169,557,196,18,71
116,67,0,96,142,-42,-237,-8,242,151
46,64,-42,12,136,-55,-578,-742,-33,33
-62,39,-3,-127,-61,-132,-651,-786,-123,-97
90,92,98,-128,-195,-329,-642,-198,-89,44
181,137,175,67,-155,-410,-568,212,245,160
65,14,102,331,-47,-287,-517,180,57,92
-38,-6,-48,144,105,90,49,-29,-48,26
-113,7,11,12,257,349,331,-371,-383,-137
-27,62,167,118,158,274,537,-482,-167,-104
178,17,23,22,-104,15,471,-174,-37,82
160,-7,-107,7,-42,98,406,185,115,91
-13,-130,-146,-126,-32,-17,26,404,87,48
-134,-182,-74,-199,-125,-227,-144,523,389,47
-182,-147,63,-123,-99,-228,-159,227,94,-112
-149,-4,159,103,74,45,-95,-302,-216,-233
18,74,37,-11,67,16,-226,-407,-250,21
59,127,-29,-68,-34,-61,-131,-240,42,79
-52,64,-97,-87,-102,-6,1,219,-7,-34
-100,9,-156,-92,-94,138,205,615,194,-19
-66,1,-165,-119,-91,65,328,335,18,-40
-167,-105,-109,-109,-69,79,499,-249,-32,-127
-280,-355,-198,-209,-166,-56,466,-1,-101,-220
-156,-341,-213,-243,-222,-52,476,477,191,-176
51,-125,5,-61,-101,-28,-4,293,47,-61
454,326,524,352,168,-224,-896,277,58,210
721,622,719,589,449,-171,-1001,691,-99,483
314,421,323,486,513,428,-110,-337,-45,331
-157,-2,-135,144,170,150,-87,-1274,-326,-109
-210,-79,-285,-112,-130,111,252,-994,-303,-240
-105,-41,-265,-353,-204,242,413,-124,-116,-79
-144,-139,-145,-314,-188,82,686,843,511,71
-249,-311,-133,-117,-167,143,853,828,350,-20
-156,-183,-88,-68,-100,24,-113,357,177,-72
-40,-7,-91,-74,-35,-356,-897,-373,-183,-13
87,210,36,62,43,-358,-615,-572,113,209
267,328,273,220,143,-152,-903,-104,114,333
234,204,222,106,-1,-264,-954,47,143,96
121,-43,-11,-79,-64,50,-331,-439,-242,-159
-115,-127,-102,2,113,550,512,-433,-448,-338
-158,-166,-159,-17,0,255,329,126,-151,-141
43,-81,-116,39,-131,-199,111,249,348,192
250,85,96,247,-10,-423,-109,-133,-43,200
345,197,225,123,108,-241,15,-493,-242,124
173,147,224,-25,123,-29,100,-631,-475,-33
-94,99,168,84,182,211,185,-276,-217,-157
-134,-30,-40,20,100,165,46,208,95,-8
-88,-49,-98,-44,15,53,9,402,285,51
-111,-139,-110,-88,-40,54,227,386,37,-24
-161,-211,-130,-107,-100,122,656,271,155,-55
-198,-303,-214,-212,-228,2,665,427,102,-78
-317,-386,-277,-214,-195,75,706,614,169,-178
-305,-356,-310,-246,-178,-27,176,491,-89,-262
-90,-36,-57,-101,-67,-96,-317,501,53,-122
209,401,311,183,142,-52,-814,49,59,115
299,526,377,175,61,-271,-1150,-945,281,278
32,49,33,-175,-204,-332,-608,-676,247,209
-215,-159,-134,-263,-156,28,257,197,196,-135
-219,-88,-173,-237,-88,33,340,680,-164,-386
19,75,-73,-283,-70,-27,429,625,-104,-166
379,343,198,-87,168,243,798,-83,-406,196
489,443,373,408,466,458,557,-1116,-203,402
175,86,211,1158,440,124,-362,-953,-164,205
-5,-56,145,1043,193,-251,-827,-342,31,47
-56,-90,-38,-147,-68,-220,-388,307,131,11
-18,-73,-94,-336,-101,-139,-130,258,251,64
-102,-174,-163,-139,-36,177,232,-24,-363,-98
-123,-128,-67,-35,24,202,528,-284,-439,-195
-120,-108,-4,-118,-7,57,151,-161,-279,-193
-101,-14,-58,-121,46,393,-143,-15,102,-84
-5,57,-21,-79,40,261,-290,-85,58,41
141,182,197,17,-52,-43,-10,-102,258,179
132,74,166,11,-85,-190,139,380,345,211
52,-43,-6,7,-32,-439,-59,725,458,137
-27,-103,-89,-39,-90,-336,46,88,-71,-52
-78,-86,-136,-14,-34,60,376,-197,-105,-106
-117,-102,-205,-64,26,250,266,-27,-163,-76
-136,-70,-59,-66,36,251,51,169,5,-79
67,23,73,-30,-46,-15,-627,47,-9,43
199,130,128,19,-83,-218,-897,-153,187,142
38,-54,-36,-80,-129,-265,-334,69,150,37
-136,-170,-177,-124,-136,-59,392,206,195,-98
-122,-122,-123,-97,-95,-54,513,89,-157,-127
-60,1,18,30,50,32,768,239,-175,-82
-58,0,37,67,165,-5,625,390,-199,-49
6,94,137,173,271,-153,-194,-69,-49,-40
86,143,191,216,255,-131,-464,-289,-98,-4
154,134,142,125,75,-6,-252,-353,181,131
27,-75,-63,-120,-145,71,-388,-352,99,79
-314,-363,-319,-353,-277,239,-287,32,77,-223
-282,-333,-309,-392,-230,32,327,753,-55,-209
-89,-139,-168,-295,-156,171,375,596,80,-21
-59,-104,-74,-109,-115,120,190,-10,1,63
0,89,165,197,131,174,786,-586,-150,-3
178,338,381,377,348,533,331,-947,-537,-32
252,384,301,379,197,487,-146,-652,-140,80
264,244,-48,-173,-285,-9,-435,64,240,239
93,52,-131,-181,-241,-286,-673,864,580,168
-153,-248,-168,30,-86,-603,-751,1713,526,-82
-416,-477,-474,-345,-134,-117,698,2153,798,-287
-294,-325,-404,-295,-75,229,864,1110,559,-146
169,192,119,82,86,-183,-392,-970,-215,126
653,572,526,260,120,-749,-1253,-2353,-793,576
745,702,717,461,246,-690,-1205,-2329,-521,642
272,381,524,467,360,-119,-637,-1775,-645,57
-131,19,119,234,220,507,88,-1011,-576,-320
-254,-187,-174,44,-10,482,304,-28,-502,-355
-285,-249,-265,-111,-67,105,553,710,-14,-278
-208,-267,-281,-318,-131,100,710,1230,249,-86
-52,-116,-134,-189,-116,115,323,857,520,107
-71,-128,-129,-154,-110,-117,-538,-145,215,33
-210,-212,-146,-144,-63,22,108,-30,226,-141
-295,-343,-204,-218,-126,47,494,770,155,-181
-231,-284,-167,-212,-183,-45,367,812,249,-58
-97,-167,-135,-153,-147,16,544,576,12,75
110,204,270,229,159,268,654,-215,-221,102
185,502,647,608,475,208,-158,-1036,-608,-20
217,508,425,441,418,36,-518,-667,-101,32
194,207,-124,-59,30,-217,-462,-214,258,187
4,-133,-371,-316,-253,-394,-575,147,490,122
21,-236,-285,-310,-252,-279,-580,537,123,-68
2,-149,-153,-208,-217,-156,-61,857,86,-137
-101,-146,-191,-124,-255,-70,428,832,46,-68
-181,-4,-93,172,10,288,1137,593,-171,-189
-102,104,104,215,247,340,658,-253,-430,-188
244,286,353,236,301,188,-188,-1292,-190,170
301,175,252,92,89,-51,-489,-743,-41,311
43,-9,146,59,10,-15,-187,143,176,66
-68,-217,7,-38,-86,-98,129,400,200,-39
-110,-333,-180,-213,-156,-96,533,-145,248,-145
57,-68,-41,-157,-33,-112,66,-725,-172,-45
255,254,124,16,112,71,-542,-458,-73,188
154,177,98,-6,33,6,-642,154,87,220
-69,-12,-98,-112,-165,-255,-364,776,534,128
-104,-31,-166,137,-117,10,-520,806,76,-43
-58,55,-59,505,72,115,-638,-243,-191,-171
-25,20,-79,53,37,-60,-158,-889,-598,-144
78,91,104,-105,84,190,585,-778,-622,-69
125,111,189,7,54,-91,572,-58,-300,42
8,16,60,14,46,-122,246,198,119,21
-125,-118,-41,-48,9,-64,43,93,120,-89
-227,-162,-5,-109,-62,4,75,152,297,-105
-232,-222,-16,-168,-81,259,125,165,143,-95
-97,-162,-48,-99,-23,186,106,124,186,8
-11,-37,-102,-37,45,-91,-211,-141,-166,3
34,154,33,85,113,13,-99,-265,-124,-31
61,142,3,59,130,216,322,-114,-65,8
58,99,25,-48,26,200,407,-66,136,21
-4,-124,-70,-107,-115,-83,110,155,0,-13
-70,-234,-149,-51,-131,-75,-99,544,150,-21
59,-128,-58,40,-91,122,-269,1017,239,143
169,24,-43,153,-18,-130,-197,702,494,233
-103,-132,-200,-127,-167,-313,-68,310,278,-45
-262,-191,-211,-303,-228,-153,283,255,182,-222
-127,-68,-97,-236,-152,-48,378,-40,-135,-101
109,221,173,120,155,242,373,-545,-311,36
364,497,421,429,400,262,-85,-1033,-611,150
268,375,377,400,367,149,109,-635,-305,147
-86,-81,24,26,103,-15,267,397,-63,-44
-222,-219,-177,-205,-115,-194,-13,476,250,-134
-187,-204,-214,-264,-149,-91,-317,2,67,-134
-44,-20,-88,-90,-67,187,167,-201,132,-11
38,29,-38,-12,26,469,766,-269,-73,58
75,30,30,77,24,316,330,-181,7,125
5,-58,31,171,42,-30,-279,-180,-137,31
-56,-56,91,293,43,-362,-664,197,130,-60
87,33,118,93,-160,-900,-1508,497,409,84
67,44,-27,-334,-350,-1016,-1405,104,435,95
-11,-7,-119,-281,-198,-515,-414,-360,-177,-39
-8,25,-41,17,110,155,239,-373,-344,-52
-169,-91,-206,-89,50,290,668,157,-377,-212
-154,-71,-243,-104,-110,326,1128,442,116,-145
1,20,-40,1,31,716,825,292,29,-21
77,105,187,-80,35,388,29,206,53,71
200,163,255,42,-23,-192,-384,55,121,236
184,213,188,282,181,242,-266,-520,86,144
116,73,61,180,177,243,-368,-545,-45,95
42,-33,33,97,65,-96,93,-521,83,74
-148,-140,-50,-12,39,69,451,-648,-419,-213
-183,-130,-66,-46,9,-105,-79,18,-236,-251
-138,-163,-95,-117,-2,-208,-485,655,32,-109
-80,-118,-91,-82,19,-34,-258,460,272,-22
90,25,14,-25,-26,-192,-519,-132,197,173
254,197,139,51,-62,-237,108,474,438,384
74,127,123,124,115,233,1319,429,-134,36
-224,-108,-57,-35,73,291,1328,2,-186,-312
-168,-135,-128,-194,-106,102,524,-495,-555,-263
68,74,35,-79,-87,-63,-223,-606,-445,-51
241,221,227,111,-41,-386,-1256,-144,-124,156
132,196,267,349,82,-33,-1373,492,315,108
-46,-114,-14,185,43,63,-754,1081,524,68
-83,-204,-300,-172,-138,105,177,866,683,99
25,-83,-292,-327,-276,169,453,210,188,101
129,101,-28,-212,-121,-199,-128,-302,7,113
78,153,225,-179,72,-304,-185,-722,-235,15
-58,139,263,22,190,-29,315,-833,-117,-69
-163,-55,-4,251,307,211,435,-309,-184,-113
-229,-167,-145,187,287,412,625,-110,-164,-145
-241,-194,-190,258,114,363,631,202,-200,-87
-102,-31,-165,241,-117,-56,65,472,198,56
129,111,-69,-257,-315,-483,-649,91,319,162
194,99,67,-313,-278,-346,-503,-465,219,27
291,73,227,-117,-94,-5,-270,-965,-614,-129
309,139,329,109,87,135,-234,-589,-694,-97
57,-69,15,18,93,45,-83,264,-268,54
-281,-356,-331,-157,77,253,457,1103,387,-39
-267,-285,-328,-25,0,157,604,1043,231,-103
-29,53,-53,375,76,30,484,58,46,-51
60,233,145,203,123,102,250,-664,-245,-36
39,195,168,-18,10,-100,-464,-741,-15,14
183,164,158,-47,-59,-312,-721,-269,276,286
225,178,155,25,17,60,-11,-42,401,326
68,61,51,22,39,245,294,90,39,92
-236,-176,-143,-86,-23,173,565,653,342,-143
-363,-372,-327,-270,-202,-50,229,1024,416,-225
-128,-112,-108,-137,-144,-238,-584,206,91,-84
137,120,98,5,-99,-586,-1075,-687,-346,142
144,101,48,-23,-90,-346,-227,-678,-444,124
108,21,27,41,96,196,441,-389,-706,-112
137,99,135,208,257,466,545,-163,-300,-113
16,142,118,169,229,249,-51,-499,-255,-101
-138,80,31,-63,11,14,-271,-131,55,-109
-312,-171,6,-287,-235,-143,-42,382,205,-149
-403,-336,38,-375,-233,-114,211,407,320,-279
-141,-268,-78,-233,-135,83,449,948,313,-36
219,-37,-97,211,-38,179,419,1389,632,370
223,47,-133,350,15,-100,17,837,342,316
109,160,-144,372,211,-173,-105,-193,0,121
2,153,30,228,332,15,66,-979,-416,-4
-44,107,185,37,237,164,57,-1598,-603,-130
22,120,215,33,94,165,-176,-1214,-759,-159
264,171,103,14,51,227,-158,-480,-236,61
454,125,3,-93,-98,-113,-691,-111,2,223
109,-32,-88,-136,-195,-233,-221,435,402,167
-306,-242,-170,-150,-145,-90,512,795,306,-42
-336,-223,-86,-38,-10,-35,520,701,230,-156
-175,-167,-106,-58,-10,-87,268,431,-18,-156
-9,-121,-120,-105,-17,-114,136,63,23,-136
100,-23,-2,-96,69,2,-133,-179,-37,2
98,102,62,-114,43,-135,-291,31,132,68
64,153,-20,-230,-102,-92,-274,144,-46,-31
127,287,40,-102,-76,169,-391,60,172,28
62,266,122,116,5,218,-746,28,138,53
-196,-87,6,343,-8,-46,-54,-236,130,-90
-263,-310,-37,661,38,82,255,-629,-247,-176
132,44,138,214,2,47,57,-703,-114,133
324,231,219,-127,-1,46,-131,-403,-129,274
161,150,150,-97,56,209,-18,130,59,121
-36,-76,-69,-191,-84,-123,250,390,6,-20
-152,-146,-162,-167,-51,-100,581,546,139,-93
-127,-95,-130,-83,52,212,497,505,48,-52
-116,-93,-109,-64,-30,170,449,290,113,-51
-78,-99,-89,-51,-27,-120,-221,20,-164,-56
-33,-33,-9,30,94,-72,-538,-39,13,-10
-18,-27,31,62,105,-55,-73,43,-4,11
-30,-22,61,85,62,-42,332,275,158,10
-30,-50,8,16,5,-2,65,193,-12,6
44,54,49,21,-26,-169,-172,20,41,57
141,144,97,16,-109,-535,-611,-189,-89,117
-30,3,-33,-58,-104,-122,-36,-235,29,0
-247,-231,-246,-249,-166,161,355,-309,-120,-195
-300,-219,-279,-282,-113,153,380,-189,-24,-269
-174,-87,-184,-190,-63,409,460,562,32,-172
-248,-131,-203,-270,-215,73,239,1194,393,-176
-324,-340,-268,-416,-433,-386,-382,1025,328,-188
67,-90,36,26,-248,-139,-454,141,258,123
279,83,332,499,31,-453,-207,-298,27,226
206,180,587,530,320,-316,-155,-1012,-166,172
509,505,767,647,642,641,77,-1572,-716,383
641,709,507,631,800,901,245,-1883,-772,364
247,267,-236,43,286,426,-250,-1010,-437,51
2,16,-419,-446,-265,201,-466,788,480,38
105,34,-190,-385,-409,-268,-54,1436,753,224
163,52,-14,11,-170,-398,579,564,414,165
17,-12,54,227,102,-238,406,-514,-439,-110
-179,-83,7,3,120,-36,117,-473,-436,-277
-340,-317,-162,-204,58,126,-144,163,-134,-283
-331,-305,-203,-79,120,101,-388,212,239,-214
-173,-168,-107,-39,-57,-219,-481,22,-90,-139
14,23,40,-26,-183,-285,-146,-71,-176,-32
116,113,121,0,-147,-193,-224,175,17,89
58,100,109,11,-66,-51,-124,520,359,68
-7,-13,-37,-112,-42,105,247,285,167,4
-62,-99,-177,-215,-106,-5,133,283,276,15
-7,-45,-145,-100,-45,-153,-283,33,-51,25
59,123,102,181,215,253,262,-353,-294,-31
-63,-48,41,129,253,621,1133,295,-273,-74
-265,-302,-218,-138,-10,636,1213,610,180,-141
-238,-251,-157,-107,11,225,356,-66,-24,-204
51,151,230,184,151,-189,-577,-815,-116,-71
302,306,333,164,-22,-587,-1020,-795,-257,179
407,267,204,-8,-251,-744,-908,-303,270,502
189,79,48,-52,-218,-500,-385,-44,147,346
-196,-92,-53,1,-22,5,588,221,-26,-155
-357,-174,-152,-85,-16,117,777,471,-153,-379
-262,-98,-101,-152,-114,34,198,475,116,-241
-82,-91,-6,-92,-43,179,-166,317,105,13
33,-61,28,-19,56,367,-170,366,337,126
189,-54,-36,17,79,175,-764,217,291,222
199,3,30,192,243,98,-868,-360,166,186
97,-37,-52,212,325,278,201,-756,-187,37
159,35,-150,-36,-71,-109,444,-621,19,58
12,33,-174,-272,-411,-408,224,-197,-227,-112
-135,163,-38,-143,-240,-61,323,309,-62,-242
-110,138,65,-33,-14,3,86,713,-61,-180
-78,-8,110,24,61,-2,-197,81,-142,-78
-78,-32,140,127,128,-9,-118,-225,-323,-10
15,82,216,224,166,-67,-70,-15,-47,90
199,162,158,65,8,-223,-475,-286,-31,221
155,141,126,147,114,31,-189,-568,-184,112
148,104,101,349,295,309,241,-478,-349,94
160,29,13,134,168,267,305,-329,-21,53
67,-47,-57,-170,-69,-58,-5,-32,9,-66
2,-21,-21,-216,-179,-220,-60,268,195,-58
-53,-83,-54,-220,-205,-179,-34,572,177,-19
-110,-126,-128,-194,-132,-12,134,564,334,-19
-161,-160,-155,-91,-76,55,132,277,143,-40
-169,-145,-88,179,89,197,244,101,64,-103
-101,-123,-81,168,125,172,268,197,-135,-66
-112,-82,-69,-69,24,113,476,126,87,-32
-160,-153,-106,-191,-88,70,637,-39,-203,-117
-95,-86,-49,-101,-39,122,519,202,-160,-116
-42,-28,-54,-130,-84,-62,49,324,-26,-59
51,162,84,2,-13,-117,-596,-259,176,17
141,225,163,32,52,-273,-1672,-1029,52,98
39,78,101,-100,-21,-309,-1288,-781,99,50
-166,-151,-42,7,-82,-33,-74,197,-149,-153
-136,-49,28,90,-14,105,178,570,-5,-106
31,40,70,-105,42,43,549,655,-55,55
125,120,157,11,85,172,1267,837,138,126
104,55,153,82,44,5,857,-43,-2,101
123,29,22,153,-64,-414,142,-617,84,131
184,39,-136,441,69,210,-3,-418,-102,142
201,114,-153,422,249,720,-401,-126,58,165
201,60,-103,31,43,-298,-1513,-394,72,220
13,10,-30,-278,-146,-275,-693,-451,19,25
-135,-36,-12,-305,-146,223,473,-20,-237,-174
-154,-26,36,-96,-48,286,871,499,-36,-185
-294,-260,-163,-155,-112,193,591,1022,68,-223
-318,-347,-306,-194,-219,-50,285,1076,322,-194
-165,-176,-126,-90,-130,-581,-215,365,133,-116
121,159,192,116,60,-527,-437,-183,222,128
253,250,254,183,118,-251,-435,-430,-17,226
244,274,190,73,157,68,45,-1102,-73,199
186,168,43,-72,167,349,95,-1342,-289,143
111,130,12,5,84,311,-355,-520,-162,90
-8,33,-17,-10,-24,91,-514,226,-248,-56
-136,-44,-1,29,13,144,172,383,-134,-190
-191,-175,-94,-30,-18,67,196,467,-59,-192
-110,-178,-164,-96,-116,-114,-5,494,386,0
-28,-156,-197,-160,-187,-214,-64,321,385,136
-8,-51,-45,-2,-51,-40,94,-65,59,16
35,80,205,210,162,163,266,-239,-379,-102
39,168,422,242,231,247,366,-472,-79,-45
54,120,317,150,138,12,-335,-843,-115,37
81,95,-66,-15,-20,-189,-593,-326,23,79
-91,-115,-393,-230,-145,-136,18,647,-113,-119
-251,-200,-256,-159,-85,114,910,1012,-20,-268
-139,-119,-83,-46,28,318,1308,683,-104,-163
94,33,60,63,105,327,793,336,273,142
189,5,63,3,-43,-139,-49,135,448,320
-56,-144,-72,-109,-114,-309,-402,225,387,57
-215,-179,-108,-179,-127,-322,-1048,-42,-82,-166
-142,-29,44,-106,-132,-379,-1444,-549,-82,-70
15,52,44,1,-44,-189,-487,-615,-346,-21
107,232,98,257,256,295,241,-558,-420,-86
241,354,137,242,246,284,325,-548,-441,-1
422,402,142,103,49,4,426,-140,-11,224
302,108,8,-66,-72,220,248,451,148,217
-121,-204,-134,-225,-187,183,17,333,300,-19
-261,-282,-181,-226,-101,-44,19,84,109,-126
-218,-181,-120,-98,1,-29,304,-39,106,-104
-140,-77,-60,-4,-67,-222,115,-262,-104,-54
24,80,167,143,-117,-314,-219,-62,123,61
-32,4,207,178,-35,-171,-792,344,121,-35
-233,-215,-38,-47,-12,67,-514,517,222,-158
-98,-198,-154,-176,-40,131,37,96,-46,-51
241,153,87,60,-18,35,132,-119,118,238
440,337,119,519,138,-143,185,299,-100,311
410,416,112,395,311,-52,163,67,-82,270
157,198,90,-75,263,161,30,-559,-122,120
-81,-35,10,-217,91,224,146,-474,45,-76
-231,-184,-47,-328,-75,289,292,-26,-67,-197
-352,-295,32,-92,-103,262,583,230,-81,-307
-388,-411,-73,342,-133,5,563,555,-101,-337
-189,-233,-281,14,-232,36,340,647,270,-131
-6,-12,-232,-302,-171,-34,-101,397,133,12
141,211,-38,-146,55,-199,-523,-7,197,174
207,211,26,-83,214,-232,-693,-614,-46,237
352,337,218,74,209,-259,-290,-737,-15,346
378,368,374,288,158,-296,-88,-1012,-527,180
-11,97,319,586,133,-194,-156,-1025,-745,-303
-209,-167,77,381,-76,-243,-454,-446,-433,-304
-102,-166,-102,-101,-220,133,-168,224,207,-16
-24,-175,-168,-281,-123,708,254,566,194,81
11,-68,-133,-326,-20,339,511,643,377,123
-24,-14,-41,-348,-85,-2,531,608,236,69
-91,-32,-29,-200,-49,48,465,530,254,-24
-153,-119,-142,56,28,-131,271,442,107,-108
-202,-144,-215,87,65,-154,159,229,182,-148
-116,-150,-237,-141,-52,-58,-379,150,192,7
-43,-69,-149,-137,-109,66,-202,261,216,111
-52,-27,-55,-41,-21,146,285,-160,-317,-63
-70,0,29,38,43,160,144,-610,-281,-188
10,-13,49,83,79,45,-191,-247,-219,-89
159,90,142,73,78,-111,-625,99,134,116
207,131,191,88,23,-245,-652,-96,47,172
175,134,187,131,57,-143,-140,-87,84,124
219,109,125,87,76,-122,-105,-186,-92,156
158,83,25,-2,9,-89,-122,-523,29,67
-76,-16,-129,-125,-125,-78,-218,-319,-20,-109
-123,30,-113,-115,-172,-65,-117,162,131,-106
-98,-6,-123,-119,-160,-63,38,422,30,-44
-100,26,-15,68,77,170,480,337,24,-26
-24,56,133,237,294,403,763,208,-245,28
6,138,228,287,369,585,832,-221,-175,46
-75,11,40,37,79,169,178,-541,-222,-65
-59,-49,-80,-124,-152,-260,-151,-126,60,-64
94,-34,32,-85,-143,-447,-631,137,57,29
75,-27,98,-44,-146,-440,-792,122,227,49
-25,-120,22,-100,-169,-433,-311,27,-3,-85
-23,-176,-95,-154,-156,-356,-10,47,-4,-152
-65,-239,-221,-165,-69,-153,-78,277,-167,-119
-118,-92,-226,-46,85,63,-18,468,-24,-74
-66,53,-39,-40,108,385,246,232,-113,-71
130,329,368,233,198,959,321,-426,77,97
391,447,325,399,156,617,-243,-826,81,398
374,353,80,46,16,82,224,-543,139,403
12,-5,-17,-259,-120,-249,716,29,-139,11
-207,-169,-22,-267,-201,-537,224,394,9,-188
-229,-247,-79,-86,-158,-281,-92,643,45,-152
-207,-268,-150,281,15,33,-67,554,171,-147
-217,-327,-211,278,97,-63,-386,113,-33,-175
-198,-230,-167,-15,-3,14,-45,-163,52,-156
30,-7,-103,0,1,401,455,-67,-77,11
171,175,-18,-7,107,525,727,-1,100,129
190,132,21,-74,78,188,79,-99,221,223
96,48,34,-69,7,-251,-558,-156,251,135
37,6,19,-11,4,-439,-729,-9,-128,18
-23,-3,79,89,46,-435,-521,66,-134,-30
-189,-173,-60,-72,-66,-439,-275,228,-58,-67
-236,-186,-191,-226,-173,-120,77,266,221,-97
-111,-49,-144,-168,-60,281,458,167,2,-103
105,180,12,-20,-13,297,436,-226,-44,4
284,286,169,103,3,186,-236,-846,-292,176
189,170,199,161,85,148,-424,-549,-165,107
17,-18,60,4,4,-61,-33,290,-75,-1
-84,-30,0,-56,-13,11,616,700,147,-88
-123,-96,-7,-107,-47,-41,465,695,57,-118
-98,-62,117,27,21,-13,11,116,93,-63
83,82,267,300,183,10,-444,-677,-170,67
253,221,332,610,243,-101,-699,-1082,-260,157
136,55,80,186,69,-206,-358,-815,-297,46
-68,-50,-137,-346,-171,-168,110,-276,71,-73
-52,33,-208,-388,-285,-164,171,220,29,-41
2,145,-170,-131,-84,38,115,392,113,-8
4,108,10,48,126,309,-83,337,-112,-40
-20,20,174,5,125,367,255,275,47,13
-26,-157,66,-91,41,165,985,167,59,47
-114,-215,-63,-18,69,188,994,237,161,-66
-115,-245,-206,46,48,55,360,463,123,-45
-3,-145,-303,86,-67,-289,-231,510,324,80
78,-38,-141,-44,-97,-408,-1206,372,158,111
78,71,112,8,62,-158,-1468,151,36,37
-53,-27,97,26,53,-84,-272,50,-268,-113
-123,-98,6,7,35,353,1082,-349,-124,-110
-91,-110,-65,-83,-20,557,884,-775,-180,-39
-41,17,-38,-89,-79,395,-50,-794,-64,-17
106,176,44,-49,-134,-119,-875,-498,-111,71
181,328,143,81,-28,-231,-657,-70,139,149
-2,206,58,81,97,-51,226,541,96,12
-245,-153,-93,-27,61,-150,636,766,155,-192
-276,-371,-218,-142,-42,-97,411,443,-6,-208
-171,-317,-265,-235,-221,-191,-38,8,233,-102
-64,-261,-247,-292,-387,-482,-552,89,103,-119
22,-90,-105,-192,-327,-510,-453,755,435,-5
104,42,-2,-130,-226,-403,-230,621,403,154
214,299,224,134,129,151,71,-319,-68,127
435,579,500,465,524,579,354,-664,-627,231
540,673,627,739,739,714,356,-1132,-623,364
298,277,329,426,472,315,-26,-1433,-552,223
-75,-120,-64,-71,-21,0,223,-444,1,5
-256,-280,-243,-287,-247,-133,113,380,148,-151
-204,-138,-119,-200,-142,-73,-153,341,155,-182
-70,-18,6,-153,-66,-109,-156,-93,-201,-147
13,24,18,-92,-83,-147,45,-1,-18,4
-47,-76,-30,-55,-58,-42,151,400,133,79
-181,-138,-85,10,-23,58,189,614,368,-21
-181,-202,-112,383,61,52,-17,327,50,-138
-109,-158,-117,298,82,1,-271,-31,-87,-164
-69,-123,-238,-420,-150,-230,-224,-65,-283,-141
-38,-27,-196,-426,-242,-337,-43,-95,17,-66
-28,-29,-156,-242,-159,67,-41,-139,41,-56
-10,21,-35,-16,-15,536,108,115,213,24
186,164,183,202,132,482,234,335,149,243
332,386,496,326,205,108,355,-13,124,293
292,290,365,175,170,-415,-233,-379,-106,221
123,67,-86,-81,38,-406,-712,-400,-5,112
-118,-183,-301,-224,-113,-144,-531,-178,-107,-116
-181,-136,-24,-2,-69,-14,-190,-153,-121,-226
-74,-104,44,122,-61,97,223,181,-129,-123
-29,-118,5,159,-21,200,572,531,192,28
-95,-177,17,-11,-16,32,526,681,164,15
-157,-195,-130,-149,-31,0,396,612,351,-41
-186,-204,-327,-228,-94,-183,-61,392,111,-122
-144,-111,-205,-189,-124,-279,-259,343,174,-82
-69,1,-37,-94,-47,29,-85,224,-32,-51
80,225,178,152,155,388,200,-117,-211,-38
226,341,225,193,201,335,475,-530,-356,36
235,338,181,142,118,232,486,-805,37,151
157,151,137,113,43,-156,-396,-677,71,162
62,4,140,130,72,-347,-871,-537,84,92
-131,-162,-7,14,47,-197,-447,-515,-368,-155
-253,-231,-150,-121,-91,-193,-89,-342,-190,-274
-237,-247,-140,-149,-87,-155,-144,54,-89,-227
-31,-34,59,-150,-68,182,-191,273,7,-20
150,100,191,-215,-183,387,-107,448,-76,167
222,183,198,153,-108,39,225,691,137,296
246,217,105,185,118,61,485,296,-60,304
166,224,-9,-82,184,293,621,-610,-14,151
18,60,-142,-47,105,25,293,-215,-10,10
-121,-109,-134,613,152,-114,210,468,229,-93
-44,-164,-192,456,99,-10,105,279,71,-98
129,-64,-151,-113,-25,63,-151,-91,79,4
40,-63,-65,-298,-77,-3,-310,-240,-79,30
-127,-93,-11,-252,-76,-26,99,-108,37,-48
-172,-97,-10,-165,-94,-127,-34,162,-27,-111
-111,-16,31,-66,-89,-275,-549,130,107,-74
-63,-29,2,-89,-133,-396,-558,92,-21,-39
-75,-34,-20,-54,-61,-26,143,77,6,-59
-57,-71,-92,-72,-12,314,344,-29,-38,20
-68,-77,-88,8,47,345,215,-32,223,68
-111,-99,-48,41,44,173,65,488,97,-71
-45,31,72,48,-6,-228,-124,356,40,-139
16,15,14,-89,-143,-478,-492,-346,-102,-63
-94,-46,-96,-183,-131,-64,-254,-521,-77,-103
-70,-33,-47,-220,-166,139,-66,-305,-345,-113
115,143,214,-5,23,95,226,160,-183,29
225,200,358,238,341,386,689,378,-18,203
214,148,221,229,242,284,704,355,436,311
167,12,32,216,17,-159,247,-2,221,208
31,-87,-56,200,12,-259,-78,-313,83,6
-78,-159,-304,114,39,-91,-695,-700,-270,-134
-53,57,-205,-16,5,20,-878,-676,-263,-146
-44,86,101,-136,-72,107,-358,-20,-193,-119
-102,-51,221,-221,-216,90,119,354,200,-80
-54,-81,116,-232,-239,-112,340,769,279,24
103,112,24,-38,-64,-284,530,1224,421,131
129,138,-74,70,61,-278,254,845,59,53
114,132,-9,191,205,-89,-107,-530,-90,86
130,36,-11,188,221,154,-197,-1185,-268,153
122,68,82,181,201,347,77,-781,-254,82
61,54,137,103,131,227,72,-432,-391,-6
-13,6,67,6,55,46,-48,-444,-119,-33
-117,-134,-49,-84,-31,-124,-158,-59,22,-67
-266,-233,-157,-115,-62,-105,64,317,236,-166
-254,-204,-192,-161,-103,-182,-103,155,87,-166
-37,92,-6,-34,-21,8,-241,-171,-25,-65
136,223,92,49,60,349,-267,99,-196,84
164,181,86,4,-51,63,-21,579,195,166
-1,-74,-49,-107,-130,22,472,324,149,11
-92,-136,-47,-26,-4,354,647,38,101,-83
-38,-91,-30,-26,-41,-40,190,-176,-218,-36
-122,-161,-151,-261,-216,-377,-84,-182,6,-37
-144,-219,-184,-375,-273,-427,-693,53,50,-45
-100,-70,-42,-119,-40,53,-419,668,164,-45
-66,-56,-25,-15,19,339,553,981,118,-36
33,39,89,246,71,194,649,345,248,38
142,117,134,546,174,-140,-24,-397,91,169
106,122,26,430,227,-228,-166,-835,70,131
105,120,-20,-44,103,-161,-238,-905,-229,59
150,236,150,-37,129,71,-200,-708,-378,1
86,144,225,70,139,116,-207,-235,-374,-34
2,24,149,36,41,27,-263,340,58,-5
-33,-112,-56,-91,-91,-89,-297,662,161,-6
-100,-222,-215,-212,-173,-55,209,572,247,-129
-189,-231,-259,-238,-195,-37,452,240,29,-189
-214,-112,-141,-149,-129,94,455,-78,16,-154
-121,-31,-32,-35,-40,255,459,-284,-257,-103
-11,113,108,94,20,157,472,-454,-213,-51
-35,21,31,20,-68,-184,-307,-381,-52,9
-134,-156,-153,-103,-142,-260,-627,152,298,7
21,-90,-146,-120,-66,-291,-908,318,38,30
396,283,91,-5,-9,-353,-1409,303,201,306
491,400,224,67,68,-100,-734,525,215,379
377,462,389,226,248,250,764,236,194,316
225,264,405,307,361,489,1029,-688,-306,193
28,70,349,246,261,343,701,-1087,-498,-67
-202,-226,-3,99,8,-110,349,-374,-435,-305
-417,-468,-403,52,-150,-22,128,423,81,-371
-325,-368,-436,-189,-379,-240,-181,645,224,-182
-66,-70,-243,-390,-231,-227,-225,434,318,20
74,62,-8,-211,18,121,-308,6,-24,70
188,144,91,-10,25,211,-168,-152,134,242
119,74,76,342,151,160,50,-2,74,211
-64,12,18,467,296,240,36,-376,-104,-89
-169,-91,-177,-114,77,14,-91,-385,-290,-226
-75,-66,-171,-265,-95,-138,105,105,33,-57
-74,-119,-73,-211,-90,17,351,392,-37,-52
-87,-85,59,-133,-75,-51,429,84,80,-102
-69,-118,39,-49,-104,-166,286,-83,-12,-85
-95,-76,-44,101,21,237,430,392,61,-63
-20,38,-20,53,24,298,109,351,-113,2
93,203,54,-23,-64,-139,-758,-194,80,95
191,229,54,-50,-82,-567,-1179,-355,4,124
64,76,66,-27,31,-365,-356,-106,104,9
-119,-152,40,-80,23,-217,261,-23,-67,-95
-33,-101,65,-51,-49,-165,411,188,47,-2
101,-53,-22,-11,0,202,339,301,-102,23
145,54,77,173,200,547,285,25,41,73
181,115,84,230,186,458,108,-552,-1,152
111,113,12,139,31,-2,38,-778,77,106
-6,-72,-109,-89,-69,-333,-57,-223,-23,29
-109,-152,-146,-112,-67,157,137,351,70,-49
-70,-75,-72,-117,-110,173,-119,501,-36,-35
-94,-36,-39,-105,-129,56,-9,523,80,-88
-220,-136,-191,-202,-158,152,404,476,-55,-226
-205,-5,-180,-197,-121,-264,-146,-56,66,-209
-63,91,-21,-129,-70,-553,-564,-96,30,-61
-11,-8,58,-108,-142,-467,-81,275,210,31
-91,-190,-92,-150,-189,-135,329,577,101,-4
-22,-89,-30,200,100,348,852,667,187,69
143,122,243,525,503,485,707,-242,-233,88
211,249,340,425,449,209,-82,-746,-237,94
158,180,179,113,82,17,-588,-869,-215,109
203,238,194,71,2,-182,-1000,-1108,-33,186
294,257,195,128,97,-95,-1485,-1090,-165,240
155,93,73,-21,-41,417,-461,30,49,116
94,58,84,-111,-199,198,230,507,-11,90
40,74,112,52,-17,-260,-17,100,28,27
-47,-38,6,137,175,-139,-9,57,-50,-31
-124,-100,-95,-10,103,110,418,262,130,-45
-210,-196,-247,-281,-126,-20,514,496,-24,-177
-144,-168,-246,-359,-226,-157,313,367,92,-187
-60,-175,-208,-331,-236,-167,38,213,51,-125
-31,-74,-41,-204,-114,135,45,231,179,-29
-50,-62,21,-52,-22,55,113,300,34,33
-174,-131,104,549,170,24,225,82,14,-114
-115,-126,89,698,144,-80,77,-300,-88,-106
-1,-63,-69,22,9,-147,-169,-553,175,48
21,-43,-81,-203,31,-50,-280,-525,-88,99
-21,-16,-68,-211,23,132,27,-70,-183,-6
-96,-86,-195,-258,-131,55,250,532,-195,-128
3,69,-114,-140,-164,-25,325,593,127,-25
169,246,100,51,-8,159,394,457,68,77
235,388,271,97,110,205,413,318,74,96
202,326,228,-52,131,18,-419,-425,-222,73
45,213,102,-154,129,3,-759,-817,-205,-9
-44,-17,6,-187,-9,-183,-504,-475,-119,25
-70,-152,32,14,-127,-190,-174,-184,248,113
-135,-191,130,505,-134,-188,-66,-71,48,-14
-201,-215,-89,422,-138,-144,121,2,108,-171
-350,-437,-599,-166,-203,-106,219,401,183,-244
-436,-478,-630,-233,-4,85,298,866,303,-270
-238,-250,-315,-266,85,242,246,555,0,-173
130,56,-59,-241,-41,54,185,249,39,103
450,240,129,-39,34,-2,142,72,-313,241
553,469,429,339,277,10,-16,-647,-271,232
277,376,378,254,93,-357,-400,-831,-123,123
-106,11,72,-133,-141,-186,-45,587,404,-20
-242,-121,103,-175,-61,356,455,922,251,-137
-136,29,343,104,114,460,447,69,16,-94
103,88,165,190,182,172,-35,-817,-388,89
166,13,-135,78,69,-47,131,-861,-122,190
73,-100,-186,-55,-39,-84,132,-398,-155,50
62,-41,-80,32,42,33,-219,215,88,-3
65,-29,-4,95,88,-2,-551,296,123,98
25,8,-8,-60,61,53,-322,-306,41,94
157,125,82,-171,-134,-249,-531,-304,78,287
180,249,207,-32,-99,-228,-503,-107,227,270
-47,132,119,24,3,-44,-127,-87,-209,-172
-140,4,8,5,-81,-124,203,-102,-192,-293
-160,-83,-83,40,-120,-71,253,-64,-271,-225
-86,0,-14,147,-5,129,257,22,-125,-141
42,43,65,78,65,142,67,80,-122,19
30,1,77,151,152,128,-71,76,156,85
-19,-58,-34,53,140,66,57,185,41,4
-91,-111,-192,-153,-8,-101,150,358,238,-16
-157,-149,-242,-200,-103,-194,-77,328,151,-9
-109,-44,-53,-62,-65,-155,-139,159,141,-4
-83,-116,-62,-85,-66,-108,66,-78,-176,-92
-39,-130,-74,-79,-76,18,327,-115,-128,-136
44,-114,-56,-65,-40,159,347,112,-54,-27
-10,-78,-67,-62,43,390,435,312,234,42
-69,-63,-89,-127,-8,265,79,266,127,-2
-20,69,19,-68,-70,-185,-131,131,66,-39
119,186,130,-2,-83,-453,-220,-5,-163,-13
232,268,201,82,-34,-158,-725,-244,-23,88
276,250,254,219,5,301,-437,-326,-29,234
136,110,175,375,170,449,285,-161,137,162
-70,-109,-50,91,139,205,73,-96,11,-2
-154,-147,-126,-157,-29,-59,67,-167,38,-106
-119,-99,-82,-119,-20,-163,117,-96,-149,-123
-68,18,-3,-24,26,-196,-158,-129,-51,-91
-35,7,-17,-71,-61,-250,-245,-134,-143,-53
-11,8,-16,4,-73,-173,59,111,83,10
4,-81,-100,-56,-101,-142,206,383,45,13
-82,-96,-97,-66,-45,90,420,598,115,-66
-113,-105,-46,-12,67,260,375,467,-111,-109
-93,-70,-30,1,55,167,272,480,174,-7
-138,-149,-143,-128,-72,49,143,549,320,49
-89,-77,-93,-106,-71,125,-20,92,256,-10
41,54,38,16,19,-122,-363,-387,-142,-20
195,210,179,147,123,-150,-522,-559,53,142
171,141,115,100,99,-118,-313,-470,53,162
-24,13,39,132,301,195,191,-625,-75,-21
-40,21,64,136,297,226,297,-801,-494,-98
159,189,153,117,43,-141,107,-533,-450,38
94,65,25,-20,-168,-392,-435,-132,-341,26
-81,-10,31,-133,-285,-20,-490,132,0,-50
28,75,217,-138,-350,36,-438,268,82,64
-6,24,177,-84,-153,-69,36,448,258,28
-60,-101,-25,-125,95,314,533,329,-92,-91
59,-3,-90,-76,62,150,735,147,-42,14
58,-62,-170,37,-17,-191,416,237,85,96
30,-68,-232,33,127,239,191,232,362,123
43,32,-30,143,163,378,-313,-220,60,67
51,133,231,405,109,-174,-713,-374,-51,-5
53,70,186,152,17,-347,-733,-194,-214,-25
-62,-66,-3,-45,-112,-54,-155,-60,81,-32
-249,-301,-265,-118,-214,-25,212,431,113,-165
-370,-372,-452,-349,-178,-31,435,823,222,-295
-403,-358,-425,-480,-39,161,399,752,95,-328
-149,-151,-173,-157,65,152,165,494,385,-5
276,176,147,66,38,-221,-170,72,214,355
522,540,587,366,211,-157,-257,-1167,-313,344
492,522,572,614,252,-56,-366,-1932,-737,220
174,211,140,482,68,-53,-198,-1168,-466,-12
-90,-143,-343,-217,-135,-84,-5,-152,-257,-108
-198,-221,-375,-435,-119,34,365,636,159,-91
-117,-142,-194,-248,-74,84,447,1202,193,-32
-2,10,53,-20,16,160,438,1224,276,18
35,25,149,41,39,140,204,349,63,12
68,105,190,113,62,99,108,-167,209,67
-31,16,50,38,54,107,93,-74,82,-2
-217,-185,-145,-110,-48,-17,85,52,121,-175
-188,-200,-195,-216,-205,-336,-199,-56,-108,-166
9,12,-40,-118,-183,-280,-155,-66,23,30
48,29,20,3,-5,41,-74,-101,-125,52
22,32,96,165,207,312,136,-350,-151,-38
55,3,116,204,231,286,33,-295,-220,8
121,61,166,229,196,115,-435,-227,41,109
57,-44,25,-35,14,-102,-353,101,106,100
-172,-191,-109,-172,-78,-50,324,318,186,-61
-175,-125,-150,-205,-158,-194,122,-20,-45,-134
27,199,-55,-103,-152,-140,-313,-301,15,-40
122,262,-32,93,-78,71,-178,66,-55,29
127,238,-15,188,78,186,64,203,128,95
-28,-27,-38,-28,54,91,139,183,122,78
-44,-108,45,-80,-56,-31,421,205,318,56
75,22,213,7,-73,-256,39,-308,79,83
159,202,369,174,56,-230,-317,-590,-187,86
110,186,173,228,183,-36,-287,-448,-625,-40
-37,26,-54,83,170,156,-398,-287,-448,-153
-91,-130,-87,-87,-48,-28,-377,-24,-207,-73
-85,-119,-82,-86,-91,18,195,198,175,11
-59,-33,-52,-29,6,136,230,174,21,-46
-5,-15,-35,-16,1,72,51,231,110,-52
28,-103,-117,-121,-154,-185,35,442,68,-1
-7,-126,-137,-138,-167,-26,368,588,316,51
-66,-130,-124,-118,-89,-62,411,411,264,71
-190,-118,-92,-50,1,18,193,3,224,-101
-170,-66,24,29,49,48,-149,-276,-38,-193
-45,7,101,98,21,129,-331,-490,102,-85
76,-16,29,29,-76,124,-357,-389,-51,66
226,147,79,-10,-55,-145,50,71,-84,207
179,171,114,-67,65,-63,220,161,-310,170
54,139,152,-59,157,118,-21,-279,-192,2
108,127,126,10,119,56,-79,-442,-263,-54
32,59,-73,290,127,94,5,153,76,5
-78,-136,-235,408,100,105,13,767,154,15
-72,-183,-233,-118,-40,1,163,556,281,-20
-42,-193,-175,-326,-145,-106,217,244,76,-72
-49,-65,-28,-117,-114,-48,212,-35,67,-74
45,54,81,-40,-65,-64,51,-442,-156,38
93,177,186,111,49,-94,-178,-556,-48,84
-23,61,99,70,36,-210,-505,15,-156,-52
-121,-36,-19,-83,-80,-237,-203,526,0,-129
-90,-39,-67,-208,-167,-251,41,201,17,-58
-82,3,-36,-171,-98,-204,45,-431,174,-28
-110,-64,-31,-108,-22,66,95,-675,-52,-80
-1,-21,36,79,92,481,195,-389,-33,-10
23,-93,-47,290,118,352,242,340,-112,30
-100,-181,-159,137,54,266,612,760,165,-35
-98,-221,-205,-237,-65,19,477,446,106,-60
15,-132,-138,-63,-25,-11,93,-10,199,32
209,128,-13,86,-65,-230,-1044,-182,131,254
209,332,245,97,-37,-218,-1665,-322,7,212
-9,75,344,-113,-7,134,-204,72,-176,47
-80,-35,366,-178,-101,-225,517,173,26,-14
-5,14,262,-146,-75,-109,249,-368,-162,-63
108,200,56,-39,-8,270,228,-508,-73,-54
59,305,-210,287,171,339,287,-154,-306,-166
41,229,-338,648,429,269,329,27,-176,-111
96,73,-125,393,365,-71,-49,-18,-114,49
149,22,158,-18,132,-134,-254,-82,294,222
214,13,163,-139,-24,-184,-309,-21,250,264
130,21,127,3,-7,-249,-188,31,180,170
-112,-149,-55,-57,-3,-66,49,19,-216,-131
-196,-242,-267,-271,-120,72,247,231,-72,-233
-137,-239,-260,-446,-338,-131,102,144,-10,-145
-119,-124,-158,-369,-240,227,226,246,183,-84
-56,-6,-33,-173,-48,552,303,438,11,-43
-20,67,196,461,75,-65,115,414,162,6
31,28,223,768,154,-308,-55,88,7,85
201,171,167,199,147,-227,-63,-212,102,217
147,149,97,-57,88,-196,-390,-870,-251,72
11,44,-18,-95,58,228,-467,-1046,-187,-33
-2,-25,-74,-194,-48,186,-354,-440,-66,6
-100,-86,-103,-195,-160,-125,93,284,180,-46
-209,-161,-195,-213,-184,-96,526,599,-17,-157
-187,-133,-182,-167,-145,157,703,650,81,-127
-95,-75,-114,-118,-97,0,192,391,-64,-54
-23,11,20,-31,80,-59,45,266,-63,-37
55,22,96,36,212,141,114,-198,-203,19
60,10,162,56,89,209,163,-231,71,64
-84,-100,54,34,-87,5,-2,310,118,-39
-176,-49,17,185,-63,-211,-195,498,236,-156
-149,-98,-58,134,-60,-301,-61,515,79,-147
-50,-74,-134,-157,-96,-217,108,412,250,52
74,-9,-78,-104,-36,-57,87,14,181,216
132,106,70,103,70,130,-53,-503,148,175
179,147,72,42,35,261,-481,-999,-322,97
218,173,97,-11,6,190,-702,-1040,-344,107
234,150,94,-52,29,8,-293,-627,-448,58
53,95,21,-104,3,-79,116,-33,-225,-90
-152,-71,-55,64,-40,-301,-35,379,-148,-181
-180,-115,25,85,-109,-180,247,870,370,-59
-158,-161,-29,-125,-98,70,409,996,437,-42
-87,-76,-98,-3,34,149,314,548,488,-19
60,65,64,200,226,179,15,-351,33,45
258,219,247,228,154,-194,-552,-688,34,257
276,151,87,74,10,-466,-642,-343,-73,312
184,152,68,61,23,-211,-321,-336,-173,131
9,32,35,0,39,280,169,-434,-524,-128
-82,-53,-31,-58,15,459,530,-35,-242,-134
-23,-30,-15,-65,-20,141,222,39,-190,-52
-176,-114,-91,-133,53,68,62,-168,-76,-190
-298,-239,-195,-188,109,157,121,90,-124,-256
-153,-116,-81,-86,15,370,490,543,225,-59
-33,-37,29,20,-106,343,631,270,238,44
-16,-23,18,116,-194,-94,192,-308,302,53
-29,-70,-97,0,-222,-390,-252,-287,76,47
-27,-24,-44,-87,-81,-568,-751,-60,0,-45
150,76,59,1,39,-575,-1367,147,-125,54
158,57,38,118,109,-158,-978,281,75,118
27,-28,37,55,150,182,143,452,-76,23
126,150,201,57,184,390,838,-86,-45,90
108,99,172,-39,112,555,894,-645,-168,99
-38,-16,-36,-186,-30,380,561,-147,57,0
-75,-19,-168,-103,-142,-130,-125,395,27,-90
-115,6,-119,169,-133,-395,-331,453,202,-112
-111,-18,-244,-187,-83,-225,-1,483,241,-39
-78,-40,-188,-301,-67,-82,106,136,368,39
-151,-195,-111,8,-47,-79,-73,-623,-127,-66
-118,-95,5,313,89,129,-46,-927,-435,-138
50,8,106,230,193,264,142,-290,-419,32
92,43,218,38,172,297,540,467,28,93
123,33,195,-36,48,27,231,623,-13,-27
154,104,35,-20,-78,-269,-159,392,228,51
35,78,-93,-54,-120,-295,-170,127,95,35
-26,102,-94,88,112,17,76,-9,127,-31
-25,-28,-81,56,89,-22,39,-180,52,16
-58,-165,-18,-51,-62,-266,-64,-258,119,7
-42,-124,21,-53,-68,-317,-382,-236,-237,-45
-72,-10,47,-42,-98,24,-229,-69,-171,-100
-11,43,-56,-166,-245,219,-37,115,-69,-32
114,160,-54,-123,-147,102,242,61,104,63
120,116,-59,-138,-4,348,195,-193,-111,26
69,144,67,-56,127,375,-47,-178,-9,19
91,140,174,30,188,69,-99,124,25,103
57,38,200,25,49,-145,0,330,356,152
-36,-50,235,250,51,103,-213,0,88,21
29,61,190,647,165,-45,-351,-295,-55,-16
-64,-120,-201,224,-3,-390,-84,-233,-248,-71
-291,-341,-444,-388,-164,-188,431,10,-42,-200
-214,-221,-261,-376,-97,262,517,201,-72,-165
-10,25,18,-85,-6,432,348,346,125,-6
127,77,59,-34,-61,127,-143,380,206,148
68,100,15,-8,-53,-228,-507,133,201,96
-108,-13,-34,-20,-26,-389,-379,-29,-209,-116
-117,7,49,65,8,-346,-254,-399,-240,-151
-48,63,118,120,44,-111,-359,-708,-354,-63
115,171,246,133,46,57,-36,-434,17,130
140,43,232,20,-35,72,159,182,121,180
88,-79,66,-92,-62,64,301,764,369,114
175,-41,-148,-114,19,76,182,731,155,75
85,-13,-190,-34,63,49,-154,295,129,-9
-70,-152,-300,-47,-54,-91,-231,-165,-7,-57
-48,-75,-170,18,-38,-41,152,-538,37,-15
34,19,85,51,49,120,358,-377,-251,13
91,132,241,163,221,271,156,-575,-210,45
22,106,184,126,223,153,52,-803,-380,-24
-55,68,58,69,119,86,536,-346,-153,-65
-91,-2,-31,38,37,80,465,77,-107,-84
-33,23,27,53,15,-16,-87,210,122,-31
-26,-53,-16,-90,-118,-230,-526,370,133,40
-76,-125,-66,-181,-213,-206,-537,600,336,22
-147,-189,-133,-229,-214,-153,-595,542,187,-57
-165,-121,-123,-144,-67,227,223,519,75,-137
72,65,-31,-31,-13,56,393,83,-157,17
289,275,153,136,57,0,-110,-491,-10,206
214,240,199,252,164,8,-382,-226,-23,145
48,42,59,166,68,-10,-37,67,282,86
-112,-183,-180,-80,-129,-167,114,-145,65,-34
-201,-215,-233,-243,-197,-287,28,-343,-122,-190
-112,-116,-146,-198,-143,-51,24,-11,-273,-126
-7,26,-19,-22,-7,97,139,554,65,21
0,20,-8,0,44,2,-122,592,61,28
64,103,77,64,90,176,-127,224,237,85
98,110,123,106,116,235,83,-229,-24,104
64,118,154,137,157,287,463,-654,-130,30
22,0,42,6,25,40,346,-584,-200,-6
-30,-52,-31,-54,-50,-126,97,84,84,-21
-47,-54,6,44,60,-69,-223,270,-11,-50
-8,20,39,134,116,-32,-365,157,138,-26
7,-45,-55,38,-36,-127,-345,-51,6,-45
-87,-101,-103,56,-98,-79,-29,-159,-58,-122
-31,-64,-72,7,-15,57,245,7,-230,-92
36,43,44,-39,42,225,469,395,43,8
-19,-37,-1,-121,-50,178,453,596,75,23
-5,-16,1,-117,-108,-65,230,330,279,60
-7,-21,-8,-61,-57,-225,27,84,124,49
-82,-56,-84,-84,-59,-226,64,-228,109,-35
-152,-143,-163,-113,-67,-235,-225,-621,-221,-146
-50,-2,1,61,72,-23,-205,-728,-342,-113
115,129,131,154,141,100,118,98,-325,52
181,212,188,169,100,30,7,436,57,127
234,230,168,121,53,-63,-397,113,154,217
131,179,131,115,115,246,-573,-266,298,162
-81,-85,-32,-54,-41,62,-832,-548,31,-32
-275,-296,-211,-280,-266,-101,-187,-381,-11,-199
-284,-320,-274,-341,-254,-112,604,343,-134,-229
-148,-123,-73,-124,11,179,862,854,3,-161
48,28,110,8,192,249,411,491,-69,3
204,145,143,41,99,-44,-246,-294,114,172
179,73,24,115,-116,-214,-627,-542,76,201
34,-27,0,325,-123,91,-422,-138,127,61
-78,-78,-12,232,-4,198,51,435,-133,-126
-124,-14,38,189,135,-65,322,125,-158,-174
-12,100,68,57,202,-126,320,-509,-331,-81
211,358,208,12,201,73,210,-514,-75,104
197,278,109,-182,10,126,-60,64,12,129
152,105,24,-162,-101,66,-164,41,281,177
130,-63,-85,-129,-198,-289,-224,-31,232,201
84,-33,-80,-139,-246,-246,47,136,263,123
-31,-83,-119,19,-132,-206,190,199,-46,-21
-154,-147,-283,-83,97,34,-67,240,-129,-157
-62,-53,-162,-135,140,61,-310,449,-88,-66
-84,-10,-62,106,45,12,0,356,237,-21
-220,-154,-153,117,-15,84,318,-111,84,-136
-180,-158,-64,-91,-83,-2,297,-332,136,-103
-38,-63,105,-62,-61,-144,-168,-607,-265,-37
48,72,230,28,22,-62,-320,-553,-358,-23
139,136,321,74,-15,-80,-392,29,-213,104
185,156,257,264,151,153,66,526,201,201
217,210,0,303,333,315,312,291,-24,145
73,155,30,109,233,237,234,-363,-174,-39
-113,-186,-36,-184,-30,-2,67,-105,-132,-84
-112,-221,-160,-319,-204,-126,98,527,321,33
-72,-111,-132,-238,-222,-150,35,597,294,24
-79,-54,-96,-23,-116,-59,181,451,406,30
-134,-136,-187,95,-13,-87,119,260,67,-78
-168,-113,-129,87,67,-105,43,-209,-232,-227
-20,13,47,84,135,106,10,-794,-525,-168
88,148,184,92,135,348,-41,-884,-286,-78
74,113,168,-28,-3,190,71,-243,-72,63
-5,13,45,-95,-94,-13,112,314,274,155
-81,-60,-92,-334,-189,68,27,551,67,29
-83,-88,-85,-363,-125,1,2,448,162,-21
78,-79,-77,-232,-36,-92,83,214,210,106
231,23,-25,63,43,-49,223,-93,387,183
28,-26,36,359,109,-144,-116,-567,-37,-48
-180,-85,116,697,136,-122,-399,-677,-135,-181
48,73,104,360,14,-137,-846,-321,-420,-3
137,193,94,-153,-68,48,-654,481,-215,41
51,106,9,-169,-84,0,-48,555,-50,0
60,107,-56,75,-18,-35,-75,33,117,-5
-18,22,-217,-33,-26,-128,-83,-131,-131,-115
-149,-79,-325,-438,-134,-355,194,479,185,-107
-88,-95,-90,-330,-80,-244,206,640,252,11
72,33,245,-120,-32,-2,301,153,447,187
-3,-100,200,-102,-76,45,305,-394,180,106
-293,-279,102,179,101,410,521,-457,-229,-236
-126,-118,95,249,327,771,483,-608,-679,-158
374,321,171,390,344,428,-34,-1034,-398,278
516,439,258,615,89,-326,-643,-975,-252,373
260,303,161,344,-34,-283,-577,-189,77,116
-79,-4,-80,59,-28,-74,-506,350,14,-124
-189,-113,-105,-149,-58,-181,-299,604,222,-145
-157,-188,-112,-326,-116,0,75,726,153,-124
-61,-126,-66,-251,-86,115,327,523,224,-76
-22,-68,-98,-175,-47,-103,228,146,-10,-5
-36,-2,-81,-61,-2,-192,297,-14,-12,22
-53,-12,4,113,73,-174,193,-255,-259,-42
-34,33,82,172,119,94,106,-293,-62,-29
-52,-42,37,16,7,164,59,58,28,-16
-89,-80,20,-112,-101,41,196,279,222,-30
-36,-82,-81,-273,-123,-42,157,293,110,25
87,43,-88,-186,-43,-22,56,231,236,154
148,139,-57,40,77,203,71,35,23,142
90,132,-54,54,154,456,90,-237,59,47
-2,-20,-49,23,67,62,-199,-168,-49,-8
-145,-182,-129,-83,-75,-364,-43,222,104,-92
-221,-262,-171,-171,-156,-167,130,457,-13,-141
-205,-124,-38,-48,-42,81,79,271,-11,-190
-140,-21,44,35,37,32,-97,85,-221,-187
16,123,61,19,-76,-136,21,-90,9,-43
143,96,62,-76,-191,-370,-147,-446,-69,75
207,125,195,-24,-134,-338,-583,-643,-21,121
216,156,282,85,28,-49,-480,-493,-104,194
113,34,120,102,88,117,289,297,150,177
-34,-164,-195,-2,48,186,511,802,59,47
-150,-211,-268,-57,34,329,375,513,140,-58
-182,-200,-262,-95,8,178,91,61,31,-97
-120,-48,-54,-62,57,414,23,-41,97,-93
27,88,113,57,58,147,-172,-330,-71,3
156,221,236,201,99,-253,-145,-763,-163,61
139,165,180,164,98,-210,-113,-574,-354,11
33,81,67,57,1,-19,185,-3,-9,0
-81,-44,-49,-43,-55,63,337,508,10,-56
-98,-41,-44,-24,-5,52,151,575,234,-78
-54,-76,-79,-95,-70,-20,-193,194,245,12
40,-1,-41,-54,-96,-44,-125,-227,368,134
174,119,105,90,12,-197,-523,-570,-198,126
121,144,127,163,100,-123,-589,-632,-528,-18
7,3,-24,96,38,-35,-38,-207,-427,-89
-156,-160,-146,-21,-24,10,401,407,169,-102
-259,-294,-210,-164,-68,57,456,451,132,-174
-198,-191,-161,-197,-78,115,329,-27,47,-169
-39,-9,15,-171,-71,-42,-200,-144,-155,-60
193,267,313,-12,-17,-138,-450,67,83,169
321,368,285,139,145,53,-298,272,-8,225
212,202,0,185,210,202,209,469,146,166
-16,-84,-129,109,41,-49,27,46,2,0
-196,-153,-87,82,-64,-184,-176,-425,6,-148
-137,-100,-20,-67,-154,-159,-157,-278,-64,-84
-48,-71,92,-122,-116,-44,84,-60,102,3
6,-39,207,-7,71,128,215,-159,-120,4
177,159,192,188,240,330,415,-215,-21,119
203,103,-30,118,125,131,96,172,-18,167
7,-108,-298,-20,-54,-27,-205,467,270,98
-106,-199,-351,-132,-70,-47,-132,437,159,-5
-147,-97,-87,-192,-63,-92,283,143,42,-159
-145,-48,85,-142,-57,-186,249,-106,-196,-173
-78,40,80,0,-34,-145,82,45,43,-51
-19,62,-1,73,-79,-192,-250,172,58,-17
-3,73,-21,88,-161,-114,-502,-108,240,5
-116,-116,-243,-130,-180,369,-371,-173,-150,-138
-130,-62,-181,-154,-23,365,35,-168,-264,-184
128,147,178,-39,127,-12,321,-12,-250,126
294,338,464,176,316,192,566,-114,10,320
296,202,348,137,236,82,313,-43,5,244
235,78,164,43,78,-159,-105,-192,63,131
31,-107,-13,169,-44,-151,-418,-423,-149,-84
-149,-217,-128,483,-105,-15,-47,-125,-3,-211
-204,-246,-354,-143,-229,-77,406,406,-41,-168
-134,-121,-237,-431,-188,4,339,701,212,-58
-51,-91,-48,-259,-88,206,42,681,222,46
-96,-70,71,60,80,282,-238,232,319,36
-119,-107,30,249,169,-246,-651,-403,35,-30
77,65,79,122,102,-665,-626,-961,-164,50
139,100,97,-12,66,-366,-373,-852,-474,66
64,114,88,29,83,-124,-169,-277,-236,37
99,194,126,42,69,105,24,-126,-296,-1
153,320,187,131,95,546,290,23,-2,23
92,256,52,166,84,331,398,349,75,19
-84,9,-212,-45,-25,57,610,523,306,-32
-236,-296,-404,-438,-228,252,658,546,151,-121
-213,-278,-335,-482,-326,51,466,256,143,-128
-45,-132,-223,-326,-251,-249,88,329,206,35
94,31,-15,-155,-88,-273,-420,230,389,164
91,76,186,-20,29,-251,-890,-521,-99,46
67,132,286,48,131,-59,-573,-710,-76,50
33,68,185,71,78,-133,-507,-490,-308,-8
-119,-13,67,356,57,-220,-454,-259,-286,-180
-171,-87,124,662,89,44,-36,21,-248,-159
-36,-103,62,234,81,310,711,828,208,43
120,-105,-70,-186,56,360,798,828,220,118
159,8,-74,-165,42,394,639,-97,150,51
115,71,-84,-1,60,130,303,-605,-132,26
141,185,-25,83,59,52,9,-606,-131,102
16,37,-93,25,33,98,-126,-146,-180,44
22,-5,29,82,111,-41,-244,463,130,13
72,71,166,45,26,-441,-824,448,156,53
-65,-15,36,-124,-189,-382,-536,231,382,7
-182,-143,-97,-168,-181,-170,-155,85,113,-114
-190,-102,-84,-61,1,140,250,-137,-121,-203
-78,-88,-79,-56,-8,216,388,-197,-268,-73
63,-8,0,-28,-88,1,211,41,148,169
37,-34,-18,-18,-34,37,338,352,67,124
-106,-81,-40,31,86,299,635,193,36,-84
-133,-104,-30,6,77,160,208,-72,-182,-164
10,65,66,8,20,-92,-232,-177,-125,-73
146,166,112,-11,-9,-214,-291,-316,-170,68
168,225,141,64,100,-18,-89,-273,78,138
69,94,25,1,-1,-58,-23,93,95,115
14,-14,-31,13,-89,-165,-78,3,142,59
21,-88,-110,-16,-126,-146,-155,-225,-30,35
-122,-125,-176,-42,-91,61,-13,-111,13,-92
-187,-85,-101,-73,16,115,11,360,-157,-219
-124,36,46,-22,52,-85,-93,548,41,-178
-112,-54,25,-97,-20,-179,-178,429,117,-53
-1,-61,-45,-201,-115,-103,-200,84,334,112
60,-80,-211,-272,-234,-170,-157,-108,55,114
-29,-75,-158,-182,-134,-35,253,-269,-190,-110
99,13,90,0,51,54,220,-314,-424,-86
161,180,479,601,342,226,51,-292,-279,-2
59,152,558,814,402,188,-268,-507,-326,4
-7,27,70,184,274,270,-12,-488,-66,21
-9,-35,-288,-238,124,457,496,-193,-16,38
-27,-2,-170,-223,-77,309,695,14,139,41
55,14,-29,-117,-196,-190,435,202,109,114
155,112,63,-32,-167,-402,-280,299,340,189
17,6,-12,-79,-140,-401,-703,200,243,81
-72,-34,-23,-40,-23,-90,-479,123,308,-4
-26,17,7,-16,-6,-92,-653,56,9,-32
36,105,93,51,-50,-248,-679,-153,-25,-7
53,46,76,44,-19,-417,-271,-194,-121,47
-60,-89,-119,-101,-58,-261,171,73,37,10
-193,-196,-248,-213,-109,76,364,189,-187,-159
-79,18,-17,5,36,607,436,131,-113,-130
80,176,82,67,31,580,532,297,-116,-4
124,182,138,27,-20,374,245,272,130,93
93,66,274,79,52,36,-88,-22,21,89
55,5,290,149,116,-199,14,-189,163,71
-10,-109,23,35,99,-117,-112,-266,-101,-17
-21,-105,-152,10,62,7,-176,82,-7,-26
-43,-170,-313,8,67,40,-90,318,51,2
-34,-100,-334,39,112,147,217,36,135,0
0,0,-93,-22,40,56,272,-26,-86,-10
31,81,80,-60,14,-37,295,121,-45,0
-56,-11,27,-126,-2,-102,80,153,-170,-95
-120,-99,-42,-151,-28,-131,36,56,78,-105
-129,-136,-110,-164,-139,-268,-128,-208,-44,-97
-137,-92,-80,-10,-237,-277,-271,-323,9,-130
-117,-99,-75,184,-157,131,-189,-16,-25,-82
-40,-40,-34,143,-45,376,185,457,251,13
45,87,125,3,17,143,184,228,-61,13
132,210,252,11,64,-37,-32,-400,-31,77
160,121,171,-56,6,-287,-246,-534,-29,171
30,-37,-3,-90,58,-35,32,92,52,93
32,-74,-18,-90,65,246,302,440,-223,55
57,-26,-30,14,-41,48,204,210,-16,48
-56,-145,-246,-27,-270,-149,-11,163,250,25
-301,-245,-344,97,-156,17,-163,-209,213,-227
-167,-82,-241,-11,146,217,-242,-374,-217,-263
276,326,123,74,276,135,-325,-313,-84,64
423,372,286,121,148,-106,-288,-256,-2,308
313,307,354,127,48,-193,-248,-375,16,279
159,191,284,62,-46,-268,-360,-297,-95,126
-30,28,105,17,-32,-109,-86,-334,-18,-56
-110,-104,-94,-94,-43,52,197,-299,-181,-106
-120,-143,-136,-104,-28,219,450,307,65,-25
-167,-186,-125,-99,-26,165,488,1042,85,-73
-153,-74,3,68,69,89,265,776,205,-129
0,45,58,108,90,-58,-179,-46,90,-8
102,114,66,64,30,-151,-299,-339,49,72
20,-4,-33,-9,-21,-85,-109,28,-157,17
-109,-93,-79,-73,-53,-90,117,124,-46,-71
-127,-122,-100,-120,-50,-87,206,0,-80,-55
-115,-61,-34,-32,66,102,375,83,119,-11
-76,-54,-12,6,106,164,292,360,-55,-29
32,-1,9,19,91,307,120,23,45,29
124,18,11,0,17,106,-149,-434,-92,64
116,42,56,32,-43,-174,-251,-534,-62,-65
17,-56,-33,-82,-151,-74,-289,-381,-95,-109
-148,-132,-111,-161,-183,144,-202,34,88,-103
-45,-46,-74,-128,-163,115,-166,317,50,41
113,77,-7,-41,-123,-163,49,442,299,180
170,108,46,-2,-31,-459,-254,301,153,182
157,140,102,37,75,-375,-397,79,108,122
91,66,115,-19,72,-39,-43,-444,-246,13
-33,67,191,-17,32,25,253,-504,-184,-68
-85,38,119,173,-15,-41,240,22,-159,-109
-120,-31,-76,239,-41,1,318,500,95,-93
-107,-148,-185,4,-58,-51,209,517,87,-41
-61,-67,-84,59,106,49,45,258,47,-63
48,33,47,193,288,250,178,127,-172,-18
80,85,122,176,277,189,167,50,48,83
-8,-66,-43,-185,59,81,-93,-28,34,51
-57,-92,-67,-153,-63,238,-73,-202,175,-6
-96,-96,-76,-8,-72,118,42,-775,-199,-95
-61,-27,-80,-65,-78,82,-17,-786,-188,-83
81,61,-18,-110,-138,135,-574,-69,-44,49
81,108,58,2,-59,-112,-569,466,261,79
16,26,41,5,-17,-313,-128,427,189,95
0,-1,39,2,-14,-113,221,47,91,41
44,-37,-12,-10,4,99,207,0,-288,-50
86,37,7,67,97,180,292,-31,-101,15
64,68,32,59,76,-52,-29,-508,-133,72
77,170,48,0,-45,-227,-280,-640,-40,59
43,122,9,-90,-102,-177,-115,-202,-200,-38
-70,28,57,-80,-58,-25,290,391,28,-125
-146,-85,163,20,25,-34,190,534,-33,-144
-97,-70,98,63,23,-18,82,486,171,-31
-65,-116,-123,12,42,69,-31,320,92,-2
-16,-60,-96,13,37,115,102,93,171,25
58,-31,-37,5,70,210,198,-102,54,82
62,1,-26,-8,79,285,83,-166,151,82
-34,-112,-91,-34,-19,71,-246,110,22,-11
-109,-144,-150,-20,-96,-78,-331,138,136,-84
-149,-181,-154,85,-126,-217,-187,-114,-85,-164
-148,-151,-125,63,-87,-136,239,-182,-46,-156
22,19,-15,-160,-120,-264,306,26,-133,14
194,247,167,-77,-49,-226,168,-72,-38,154
205,282,241,121,152,-11,-74,-359,-213,126
99,184,163,133,188,154,75,-163,-62,31
-10,-8,-39,55,151,323,354,216,-67,0
-55,-76,-108,-72,84,232,190,438,154,18
-85,-69,2,-66,-13,43,-106,333,53,-16
8,79,182,85,-52,-8,-311,-44,190,46
162,121,204,119,-79,-428,-970,-415,-9,124
88,10,24,-11,-67,-259,-774,-592,-27,-13
-110,-178,-266,-258,-152,135,-59,-529,-131,-174
-146,-139,-246,-302,-161,186,270,-138,140,-64
-93,-100,-128,-185,-93,21,432,466,48,49
-49,-51,-43,148,-55,-18,458,409,2,-8
85,84,10,313,58,48,326,267,-193,14
248,340,192,188,239,188,272,153,-6,118
111,209,165,111,212,68,-121,-80,-65,25
-156,-39,-74,-70,-23,-142,-300,-292,-28,-158
-175,-127,-113,-234,-168,-224,-274,-78,-149,-157
-4,-16,42,-173,-44,-2,224,363,136,53
67,-13,65,-77,35,66,485,255,121,135
85,-11,33,182,122,-29,170,-40,296,147
17,-107,-47,204,82,56,16,-97,88,66
-60,-115,14,241,50,171,105,50,31,-68
-115,-166,-167,7,17,158,116,306,-70,-99
-50,-64,-183,-202,-45,363,-36,238,149,33
35,44,33,-86,-37,12,-471,-160,-52,63
125,149,214,34,-40,-456,-582,-554,-83,110
81,86,156,47,-30,-266,-278,-437,-127,78
-46,21,53,32,66,49,114,-192,-30,-92
-114,-50,-72,-112,30,52,219,20,-289,-213
-32,-63,-115,-239,-136,-53,178,380,25,-106
40,-49,-136,-304,-225,-135,45,513,89,11
-58,-22,-64,-208,-107,117,98,313,233,-17
-119,-62,28,118,-26,121,-108,-8,109,-47
-94,-47,39,293,-44,-4,-156,-224,159,-39
2,-45,-76,193,-43,-289,-87,-148,42,77
-26,-16,-112,199,32,-221,76,271,81,52
-10,77,-45,108,32,-17,212,685,-275,-58
84,170,106,38,137,182,439,415,-290,-37
59,63,123,-51,134,120,121,-641,-267,14
-14,76,168,-46,39,57,-256,-1140,-174,-59
84,94,243,-21,80,192,-239,-711,-219,10
282,154,297,42,117,249,94,-141,217,187
223,-48,68,-16,29,115,289,241,356,187
-10,-195,-229,-136,-99,-73,243,383,306,53
-109,-120,-219,-163,-179,-256,-118,101,-250,-69
-77,43,-49,58,28,-156,-351,-31,-244,-61
-32,72,34,194,180,7,-201,330,-126,-36
20,185,81,41,176,289,183,287,237,-17
71,137,-76,-132,98,433,164,-230,107,17
69,35,-90,-63,25,152,-178,-697,134,60
74,-37,1,-157,-73,-284,-521,-792,8,112
-92,-118,-14,-93,-160,-569,-398,-90,56,-18
-292,-257,30,599,-122,-651,-370,507,-257,-274
-256,-219,-1,680,0,-194,352,835,-127,-274
23,-29,-94,-258,6,209,755,744,-88,-15
196,175,65,-242,143,468,606,396,130,185
188,156,91,-54,151,269,232,-440,13,202
75,57,23,0,73,88,-265,-961,-41,38
-18,-79,-76,-102,-75,89,-476,-339,-67,-22
-42,-31,-21,-78,-121,-36,-225,48,121,-28
-42,-8,-1,-60,-98,-229,-304,0,-20,-42
19,41,33,-39,-45,-201,-391,62,95,26
-16,-15,-19,-60,-35,-126,-68,304,-58,-6
-76,-35,-44,-26,12,212,516,417,93,-63
-77,-58,-93,-40,-7,289,441,217,-20,-77
-45,-69,-91,-72,-47,-12,34,-90,30,-45
-46,-90,-93,-158,-86,-146,-216,-127,-70,-17
-37,-25,-45,-5,-29,-102,-179,180,134,26
-10,-29,-35,-12,-39,-158,-209,207,26,44
18,45,79,5,-96,-247,-218,37,163,73
5,-1,48,21,-161,-320,-39,-173,-10,51
-61,-52,-7,94,31,-95,229,-306,-119,-63
-106,-35,95,-35,175,148,116,-220,-357,-147
-14,87,235,73,182,465,198,226,-70,-32
116,96,35,136,101,303,299,279,-22,122
49,60,-55,98,76,243,435,104,142,99
-34,-70,-110,-34,-17,281,290,355,219,88
92,42,19,30,47,16,-46,255,270,100
