23,5,-65,-26,-36,-36,3,-55,-37,-13
1,-18,-71,-35,-29,-44,5,-62,-39,-42
-15,-25,-51,-29,-20,-22,0,-57,-43,-60
-19,1,-19,-17,-24,-2,3,-40,-29,-29
0,85,15,-2,-13,31,14,6,37,17
34,109,-54,9,17,57,38,50,101,55
32,31,-57,10,36,39,32,42,60,41
2,-11,2,2,7,18,32,18,16,34
-27,9,9,-7,-7,9,31,15,22,34
-60,37,17,-3,-9,8,-18,21,8,18
-61,31,18,5,7,12,-18,14,4,8
10,34,-6,10,-1,-13,-28,-7,-9,21
25,49,9,10,-1,-16,7,15,-4,29
2,45,-2,5,-11,-10,-38,18,-12,36
0,28,-88,-12,-19,1,-25,20,10,31
14,66,-20,-16,-16,21,1,59,55,33
0,23,14,-10,-4,20,19,19,-2,6
-6,16,14,5,10,25,25,8,-4,9
10,-5,43,19,17,14,31,13,7,-1
1,2,42,15,15,4,20,1,8,0
-6,28,49,17,13,-4,26,19,16,7
-14,20,47,16,16,-11,37,33,26,0
-24,-30,14,-16,4,-28,17,-6,-24,-14
-17,-29,-3,-26,8,-35,8,-21,-26,-13
-29,-43,-10,-26,0,-31,7,-22,-36,-20
-32,-55,-23,-14,6,-28,-7,-23,-42,-26
-8,-44,-65,-17,-11,-30,-14,-25,-37,-3
16,-31,-16,-29,-11,-35,18,-20,-22,14
11,-9,-33,-15,10,-22,34,-15,3,24
-2,-11,-138,-5,20,-18,27,-22,0,6
-10,-12,-157,-9,21,-14,22,-11,-8,-2
-18,-15,-51,-4,24,-26,16,-12,-12,-4
-12,-11,40,-2,24,-33,-6,-15,-14,-5
-9,-13,53,-2,18,-21,-4,-6,-18,-13
-14,-9,40,-3,10,-13,-1,4,-16,-10
-3,42,39,-8,8,2,-3,39,30,21
11,87,60,-1,8,18,8,78,72,47
-10,-8,15,-17,21,-20,-33,24,-21,5
-36,-23,-23,3,9,-32,-19,0,-22,-5
-8,0,-47,17,4,-19,-14,12,22,-3
-23,-32,-127,1,-10,-34,-21,-19,-41,-31
-28,-49,-122,-4,-10,-32,-32,-39,-63,-40
-23,-44,-122,-4,0,-22,-85,-23,-55,-40
-4,-25,-42,11,23,-13,-62,-6,-33,-31
0,-6,49,22,28,-14,-37,-7,-29,-22
-1,-5,-23,32,16,-4,-46,-10,-22,-13
14,19,30,54,23,17,-35,9,-1,7
41,62,226,79,59,-4,-22,-2,11,13
50,65,195,81,53,-5,-11,0,3,27
65,53,76,44,34,13,27,37,38,75
20,-3,11,-43,-25,-14,22,51,16,45
28,48,55,3,-1,-1,93,89,58,49
17,22,49,-14,-10,2,70,61,20,23
1,-14,31,-22,-13,-3,59,28,-6,8
18,-7,60,-30,4,-3,49,11,0,-5
20,3,42,-51,0,6,61,13,2,-4
31,-1,21,-58,0,13,59,28,27,-8
21,-14,13,-49,1,15,58,20,25,-12
5,-27,8,-31,-1,-2,47,12,41,-4
17,-26,19,-19,-14,-16,32,12,28,5
12,-12,-14,-3,-9,-3,27,22,6,7
8,2,-39,9,-8,5,2,24,-5,17
17,-8,14,-14,-18,-17,-21,27,-7,21
57,68,44,3,-21,-2,30,81,85,41
49,70,41,-3,-25,-1,5,44,51,41
17,5,18,-8,-19,-12,-13,-3,-10,7
0,-8,7,0,-24,-10,-26,-6,-25,-1
0,-12,1,0,-36,-4,-13,-8,-31,5
-8,-20,4,-5,-28,3,7,-10,-27,7
-26,-22,1,-4,-16,9,15,0,-21,2
-22,20,10,-1,-18,7,25,17,18,15
-16,25,21,-8,-19,-12,0,8,15,24
-19,-16,20,-9,-21,-17,-18,-25,-17,0
7,9,34,1,-22,-10,-8,-27,-9,14
20,36,50,0,-7,-34,-21,-27,-6,4
5,45,49,-6,-4,-29,-13,-23,-7,-7
-7,36,36,-7,-6,-42,-3,-22,1,-10
1,41,16,-23,-12,-35,-1,-10,24,-1
-16,11,-7,-41,-32,-34,-1,-20,0,-2
-36,-21,-30,-20,-21,-41,-9,-18,-2,-21
27,-33,-49,-1,2,-22,-31,-19,0,-18
99,-28,-18,14,3,-23,-13,-11,-24,-6
42,-28,-29,4,-2,-2,-23,-11,-24,-30
34,8,-48,11,-3,4,-13,-2,18,-19
40,37,1,12,1,9,-3,17,59,-15
25,-13,-12,-16,9,0,-20,-9,-1,-37
-3,-20,-39,9,15,0,-19,-5,6,-37
1,-6,-102,23,22,-20,-18,-9,12,-38
16,-4,-80,25,15,-16,-19,-13,1,-41
12,12,0,21,10,-25,0,-9,3,-42
13,40,13,24,4,-16,27,7,35,-20
1,13,10,6,-5,-5,16,-3,9,-12
0,10,30,2,-14,-16,6,-8,2,-14
-10,-1,20,-1,-27,-19,19,-30,-5,-21
-9,-4,7,-7,-35,-32,38,-36,-6,-25
-9,-11,0,-5,-32,-12,59,-27,-10,-30
-10,1,0,-9,-17,12,65,-11,1,-31
-22,-13,-3,-18,-6,17,38,3,3,-44
-39,-46,-10,-12,1,19,25,8,3,-65
-31,-43,-17,-10,-1,34,21,4,-12,-57
-22,-25,-20,-14,-19,39,24,-1,-16,-30
-2,-5,-7,-6,-26,30,62,4,3,-12
-14,0,-8,6,-22,20,63,9,1,-10
-2,14,-9,8,-8,11,63,14,2,-8
36,95,39,33,21,22,57,51,89,27
10,13,14,20,10,1,6,13,38,8
-5,-34,10,9,4,-17,20,-1,1,1
-39,-52,11,9,13,18,60,12,67,-5
-39,-51,0,18,12,20,64,14,55,-3
7,17,6,-2,-5,-7,29,12,-6,6
-1,-29,-18,-13,-21,-21,-18,-27,-34,-10
-21,-30,-17,-17,-7,-14,-11,-16,-1,-2
-25,-27,-8,-27,-1,-22,-7,-19,-20,-6
-32,-18,16,-21,0,-4,-12,-12,-1,-2
-54,3,35,6,0,24,-7,12,17,16
112,19,3,-5,4,1,-49,-13,-14,43
70,4,-49,3,-7,-20,-75,-18,-5,25
61,24,-61,17,8,8,-62,19,14,26
41,17,-15,1,6,26,-44,21,1,19
25,-11,-5,-10,-9,1,-39,18,-10,6
14,-6,2,3,-9,0,-4,-5,-25,-13
-3,-15,-2,12,0,-3,-8,-8,-40,-16
-8,-7,-2,19,23,-11,-36,-10,-2,-31
-10,4,1,4,20,-7,-33,3,-14,-38
-5,-1,-33,-14,7,-10,-46,9,-27,-28
11,-4,-52,-6,-3,-15,-42,8,-23,-23
18,3,-47,16,22,-1,-37,6,-24,-26
13,0,-31,15,38,-6,-28,0,-32,-27
5,2,30,8,34,-10,-23,-2,-34,-30
8,12,38,7,18,0,1,4,-28,-27
39,68,22,11,11,0,40,37,21,-5
45,74,-3,5,10,-17,41,31,27,-14
19,0,-2,-38,0,-21,8,-1,-22,-33
14,-20,-78,-51,8,-28,-8,-5,-35,-29
8,-21,11,-30,0,-18,-14,-5,-31,-25
8,-30,7,-14,-4,-18,-6,-3,-17,-22
23,0,5,0,-5,-3,-13,1,3,-5
21,22,11,3,0,25,-6,24,24,11
5,-25,9,-10,-6,10,-4,-1,-10,-6
-4,-34,20,-7,5,-3,10,-7,-19,-17
3,-35,17,-6,3,8,5,-1,-27,-12
13,-24,0,-9,16,-18,-15,-3,-9,2
9,-9,4,-8,3,-7,-23,-6,-15,-1
8,4,0,-23,-18,-8,-38,-16,-15,1
-12,-21,-17,-44,-23,-42,-54,-37,12,-22
-24,-23,0,-38,-28,-43,-60,-33,16,-26
-22,-14,23,-23,-30,-36,-79,-42,-24,-27
-22,5,31,-17,-13,-15,-59,-27,-13,-14
15,8,-4,2,21,5,-10,10,11,32
32,20,51,32,31,34,47,36,34,62
12,70,49,47,44,65,107,66,65,48
-15,-7,17,27,58,45,78,21,-19,26
-25,-1,-17,35,29,-35,22,-32,-36,10
-19,25,31,16,-9,-41,-4,-27,-26,21
-20,4,15,-9,-38,-48,1,-23,-24,40
17,7,3,-28,-32,-37,3,-4,-10,52
10,-16,-41,-22,-9,-7,6,-2,-2,47
-8,-33,-35,-19,-3,-12,-5,-13,-15,32
-16,-28,-11,-3,-3,-1,20,-7,-6,33
-2,-1,24,8,-4,2,23,-3,13,37
16,6,42,24,-3,14,33,9,21,50
-6,12,5,29,-12,33,18,0,-3,42
-8,0,10,25,-19,18,9,3,-2,27
-5,-5,7,32,-21,3,-2,5,-3,20
67,115,67,92,11,24,82,54,86,71
27,49,58,87,-5,1,60,27,25,39
3,-4,39,66,-16,3,38,3,-4,17
6,-16,4,33,-24,0,11,17,-8,14
26,-12,-15,-65,-43,-23,-9,14,11,38
25,-12,2,-35,-27,-17,1,11,7,35
-17,-37,-4,-9,0,-3,-1,5,-10,-2
-25,-40,17,-6,-11,1,4,-11,-34,4
-51,-36,-6,-4,-13,-15,-6,-18,-20,7
-49,-15,-96,19,-10,-13,-31,-17,-12,7
-27,42,51,34,-23,-27,-14,22,33,44
-55,-33,48,-1,-30,-58,-63,-30,-50,-3
-43,-30,34,-4,-26,-48,-41,-28,-38,5
-15,-27,-9,-14,-7,-21,-27,10,-6,53
-3,-12,-38,-4,-5,-7,16,35,28,75
-1,-23,-77,-11,-3,-2,49,46,37,61
-27,-55,-27,-32,13,0,43,1,-23,13
-35,-60,-19,-20,11,-2,21,-1,-24,0
-36,-53,-80,11,13,-1,-14,-6,-30,-7
-19,-48,-128,31,27,1,-24,-3,-27,1
1,-34,-22,16,28,9,-33,15,-9,13
11,-11,-23,13,25,20,-22,28,7,21
-4,-29,-79,21,31,20,-7,23,-11,5
4,-44,-9,-39,16,16,-24,47,24,15
9,-49,2,-89,-26,-3,-37,32,16,15
-7,-40,48,-77,-31,-36,-58,5,-7,-4
-5,-29,48,-30,-9,-21,-31,12,-1,-13
-4,11,64,-5,1,-8,11,31,32,-2
1,43,60,-16,-16,27,-4,38,40,13
-13,-12,42,-24,-14,-12,-39,0,-11,-12
-35,2,21,20,2,-16,-47,-20,-23,4
-34,8,31,27,11,0,-33,-18,-16,6
-31,-5,28,3,13,38,6,-12,14,25
-23,-12,15,-7,8,34,2,-13,-2,22
-19,0,-5,-2,0,17,-32,-21,-13,20
-20,28,8,-19,0,-12,-65,-28,8,24
1,62,39,-9,-2,0,-50,5,47,30
29,109,47,-7,-3,18,-19,40,72,48
5,36,-7,-22,-15,-15,-37,-1,3,22
-8,12,-25,-21,-23,-10,-16,-21,-10,19
0,16,-25,-22,-32,0,8,-24,-12,15
-20,-9,-25,-7,7,22,-4,-22,-2,-7
-2,39,25,-1,11,31,22,-5,28,1
-14,9,20,-19,-3,11,0,-25,5,-18
-14,5,17,-16,-9,6,-14,-33,-2,-10
-15,-7,26,6,6,6,-10,-40,3,-5
-19,-27,12,8,11,16,-7,-38,-5,-19
-17,-17,6,-8,5,18,-9,-41,-11,-26
-14,-1,14,-10,-13,-2,-5,-35,-9,-14
-3,9,8,1,-14,-4,26,-16,12,6
-18,5,-65,-4,-11,8,39,-7,14,3
-14,-11,-67,-11,-13,-16,28,-12,-9,0
1,-5,7,-18,-20,-18,26,-1,-10,4
-8,-3,18,-11,-16,-8,32,6,-6,8
-11,-1,-65,-18,-24,-22,27,3,3,-3
0,16,-126,-26,-25,-31,20,-3,0,-14
7,101,53,19,-26,-22,59,18,56,18
-4,81,59,17,-35,-31,42,0,75,0
-16,29,45,3,-29,-38,11,-32,0,-31
-7,25,25,-3,-13,-33,20,-30,-15,-28
4,34,-10,-14,-3,-19,24,-13,-7,0
10,26,-4,-18,-10,-31,-4,-7,16,13
-17,-6,48,-4,-15,-22,-24,2,15,7
-26,2,68,16,0,-9,-18,15,10,-3
-23,13,46,16,10,11,-40,-16,-34,-18
48,38,23,37,31,5,-22,-30,-12,2
50,43,41,35,27,1,-17,-13,-22,8
61,35,60,42,10,7,-9,-15,-22,18
59,42,98,88,14,0,15,-15,-21,6
54,74,143,115,19,-7,5,-5,-1,10
37,117,179,123,27,-19,-36,-40,-35,-22
41,144,183,126,52,-9,-53,-61,-63,-42
60,151,112,77,51,-21,-44,-76,-82,-36
21,99,-18,23,51,-8,-27,-76,-97,-64
-40,-27,-110,-41,53,27,11,-31,-54,-48
-50,-83,-159,-109,22,3,54,-2,1,-4
-8,39,-11,-116,1,31,108,72,107,26
16,30,-54,-134,-22,-1,79,61,80,24
58,-50,-213,-169,-68,-43,25,38,49,49
72,-90,-203,-169,-86,-53,32,48,54,95
99,-65,-129,-123,-70,-49,17,31,58,117
100,40,25,-38,-29,-53,48,53,61,70
-94,60,161,121,93,32,16,-42,-119,-153
-83,127,217,138,91,37,14,-51,-124,-171
-68,125,177,121,59,18,-3,-42,-105,-147
83,90,57,2,-5,-16,-22,-35,-33,-9
152,36,21,-88,-54,-47,-45,-45,-8,64
81,83,117,-29,-52,-33,-58,-69,-39,1
34,56,87,-5,-18,-6,-28,-39,-16,7
27,-28,-6,-36,-1,-18,-72,-31,2,27
59,33,-5,-37,7,-15,-96,-33,-2,12
12,11,13,-10,9,-18,-66,-50,-44,-43
37,-155,-97,-56,-79,-70,-31,15,89,94
-154,-172,19,87,33,1,0,-8,-25,-89
-198,-126,53,125,68,40,5,-20,-43,-160
-119,-44,61,32,0,-14,-85,-90,-90,-176
-120,11,98,30,-2,-37,-130,-125,-157,-235
-128,-31,57,23,16,-25,-112,-100,-151,-227
18,-59,-76,-79,-23,-36,-73,-6,0,-64
184,68,-77,-76,-26,-40,-57,20,77,49
171,224,119,33,36,-14,-38,-13,2,-47
-20,167,285,165,120,44,-43,-40,-60,-199
-75,-25,182,97,99,65,-11,15,35,-117
97,-23,16,-87,-14,35,22,114,197,83
140,93,8,-154,-64,14,0,110,204,71
80,23,-67,-192,-82,10,8,104,202,21
-82,-183,-111,-164,-51,23,-2,79,119,-82
-115,-272,-249,-180,-60,10,-32,45,63,-118
-48,-221,-361,-178,-62,8,-4,40,74,-93
38,-71,-274,-87,9,71,23,93,123,-49
51,-42,-152,12,62,106,28,110,120,-31
29,-55,-100,69,69,107,23,108,97,-34
-29,-102,-35,85,16,61,-11,68,72,-79
-31,-62,49,93,-2,29,-67,15,3,-120
-55,76,141,27,-2,34,-61,14,9,-190
-82,75,61,-62,-10,42,-43,23,21,-201
13,-74,-159,-266,-96,0,10,67,123,-50
81,-73,-279,-271,-98,24,36,147,249,46
21,-51,-244,-131,-10,63,38,124,180,-35
-54,-61,-126,-1,77,77,13,45,53,-142
-83,-16,-103,44,103,79,17,6,-11,-187
-65,60,51,40,49,47,0,13,-3,-171
-52,71,169,5,-17,-37,-53,-23,-79,-190
52,142,164,-19,-6,-49,-131,-78,-111,-149
-83,83,168,13,22,-8,-81,-44,-96,-206
-24,206,177,48,59,20,-33,-95,-155,-271
-11,156,89,29,55,66,73,4,-59,-206
36,109,25,-25,-24,40,83,83,88,-65
62,46,-61,-100,-74,7,20,97,124,13
-39,17,30,-52,0,57,39,104,38,-81
-147,-8,93,32,107,106,85,86,-12,-180
-249,-83,99,123,195,107,60,6,-113,-292
-130,-70,3,74,141,52,0,-29,-105,-221
141,19,-100,-78,-17,-3,1,24,44,12
101,15,-61,-73,-38,-2,9,14,47,-3
-18,-45,-12,-20,-12,-20,12,-42,-35,-93
14,13,-82,-42,-83,-47,-3,-22,-14,-75
-108,-76,-29,-67,27,59,89,63,23,-117
-80,-32,20,-77,30,76,110,87,60,-76
-15,71,62,-68,47,97,119,89,86,-41
-22,55,10,-162,26,86,84,83,78,-59
-55,1,-64,-262,-25,47,41,64,54,-74
-98,-6,-69,-241,-33,-6,-19,5,-12,-130
-73,62,31,-132,-31,-57,-58,-66,-81,-176
-95,62,113,-26,29,-19,-61,-95,-127,-211
-85,136,227,63,105,40,-1,-70,-86,-220
15,-114,-238,-303,-78,-23,4,9,68,-5
-9,-105,-299,-341,-126,-71,-11,-3,57,-57
-48,4,-25,-168,-46,-44,-32,-84,-44,-171
25,182,173,-27,-19,-73,-77,-170,-107,-183
3,228,158,-22,19,-54,-66,-163,-127,-203
-60,82,52,-52,101,41,7,-73,-82,-195
57,44,-35,-103,129,82,54,19,59,-28
56,128,130,4,114,34,11,-27,6,-56
-147,64,-34,26,78,11,-39,-144,-164,-265
-304,-194,-279,-42,47,33,7,-105,-140,-294
-137,-240,-346,-175,21,66,98,42,88,-49
1,-43,-138,-154,67,133,183,155,228,63
43,-15,156,50,214,240,240,215,199,51
82,93,55,156,234,142,155,93,90,2
92,-14,-197,-46,130,49,32,31,82,0
-156,-341,-293,-187,248,131,56,43,93,-217
-45,-198,87,109,337,112,-26,49,122,-165
39,-164,-75,-64,285,49,-50,30,139,-113
23,-122,-68,-85,284,27,-76,-16,82,-175
-270,-84,44,160,395,5,-151,-247,-212,-580
93,-47,33,79,309,49,-14,3,174,-102
-20,-201,23,68,286,16,38,70,249,-145
-46,-194,14,109,328,39,0,-13,123,-214
112,-6,218,320,453,84,2,40,193,-147
120,-14,210,444,451,39,-35,-33,93,-164
-7,-181,177,498,454,23,-38,-63,20,-243
-234,-355,158,531,460,27,-56,-125,-81,-405
119,313,349,326,172,-184,-232,-314,-192,-342
-5,-173,-36,299,247,77,183,74,108,-185
102,-43,-13,241,147,12,86,45,109,-104
119,-7,172,341,137,-45,-11,-2,88,-83
158,57,364,560,206,-66,-63,-64,48,-61
164,214,565,710,255,-68,-97,-140,-38,-121
5,246,721,780,334,-47,-116,-260,-224,-319
-100,-98,320,323,186,75,104,8,-65,-239
-11,-179,-450,-212,-164,-21,146,102,74,-30
-124,-322,-543,-350,-117,54,257,150,64,-29
79,-233,-492,-293,-238,-8,219,204,160,176
-7,-191,-327,-86,-171,-27,128,78,9,73
-78,-156,-131,-2,-123,58,236,105,-18,43
-12,-147,-177,-46,-166,30,252,142,56,118
103,-29,-237,-55,-230,-35,184,83,28,168
-41,-68,-265,49,-189,-38,113,-25,-102,24
-53,-47,-60,67,-191,-75,28,-104,-144,-2
-32,-40,125,110,-151,-68,4,-108,-145,13
9,-45,-167,257,56,208,325,243,176,193
105,81,-31,123,-93,100,191,56,3,187
127,35,-82,-27,-185,102,222,153,101,270
77,-41,-157,-132,-211,93,225,175,116,240
83,-1,-188,-180,-249,21,156,114,45,197
76,95,-65,-131,-277,6,175,147,90,238
74,170,86,-5,-260,-23,120,80,9,186
-83,135,173,181,-133,13,73,-5,-143,14
-82,105,154,258,-126,3,67,-16,-127,10
85,121,21,232,-177,18,113,76,42,193
131,121,83,276,-110,73,126,80,72,245
64,183,272,338,-97,19,32,-74,-104,106
-30,149,153,280,-146,-34,-14,-145,-182,-12
-165,-59,-157,104,-243,-130,-83,-219,-258,-121
-286,-256,-287,-28,-365,-273,-217,-298,-321,-199
-208,-203,-235,-91,-425,-327,-244,-261,-258,-96
-164,-161,-138,-115,-285,-158,-67,-111,-147,-27
-78,-110,15,-173,-191,-9,99,39,0,65
307,328,119,-189,-112,83,231,217,249,370
139,250,198,100,31,141,215,181,181,256
-30,-6,147,207,67,107,144,79,69,127
1,5,93,64,-62,25,82,35,43,147
181,123,-1,-175,-248,-71,39,111,161,313
164,36,-158,-207,-243,-29,93,176,253,344
61,-45,-83,-102,-165,11,84,107,134,245
67,-1,-54,-76,-161,-26,23,3,37,185
96,76,-162,-109,-214,-84,-45,-45,-24,167
11,19,-156,-16,-151,-54,-48,-61,-63,98
71,93,33,34,-113,-60,-86,-97,-75,92
71,220,283,106,-147,-140,-181,-165,-133,56
-181,86,415,290,-36,-113,-243,-266,-299,-170
-145,104,439,273,35,-74,-215,-281,-311,-163
237,330,384,-26,-75,-59,-96,-70,2,225
295,341,287,-171,-96,5,0,73,150,327
108,147,146,-92,-87,11,-11,49,57,192
12,-105,-133,-70,-144,-66,-27,42,62,176
-20,-207,-356,-31,-105,-41,9,88,124,201
-47,-121,-334,42,-46,-22,-28,20,22,128
-81,-77,-190,44,-63,-44,-62,-12,-31,77
-181,-234,-185,-1,-64,-20,-11,17,-9,54
-126,-187,-111,-2,-106,-41,-15,15,12,76
-36,-22,66,61,-112,-58,-5,-15,-15,84
116,100,47,-45,-147,-91,-22,-29,0,173
161,94,-129,-108,-106,-55,-2,52,72,259
10,-67,-224,-12,-5,8,21,79,48,179
-68,-90,-152,48,31,4,-21,-8,-45,92
23,18,-59,29,-31,-30,-54,-28,-5,131
39,12,-39,-10,-89,-39,-23,15,72,173
-70,-90,12,0,-61,-60,-23,-20,27,88
-22,-16,58,-38,-141,-160,-102,-133,-50,36
114,153,58,-97,-188,-160,-64,-47,-21,134
50,46,12,-12,-37,-33,29,64,48,168
29,42,136,218,120,12,-18,-18,-24,111
28,7,173,326,168,-8,-74,-99,-77,91
44,79,236,292,106,-56,-102,-119,-77,100
-50,-3,160,136,3,-43,-36,-52,-55,59
-14,-45,-13,-100,-102,-23,67,77,67,152
26,-59,-127,-201,-156,-32,95,112,119,208
-10,-93,-164,-108,-107,-17,79,66,106,162
-23,-29,-18,36,-33,-4,39,8,34,121
-41,33,183,166,48,-5,-17,-67,-98,49
-45,78,266,222,119,28,-33,-109,-152,20
-103,38,287,265,175,57,-53,-133,-186,-34
-74,41,264,262,120,2,-85,-133,-167,-24
-27,-10,102,11,-99,-141,-140,-125,-118,18
0,-78,-55,-289,-360,-276,-203,-113,-88,51
-46,-83,-46,-346,-392,-270,-189,-104,-109,4
-337,-282,19,-70,-72,-79,-118,-109,-200,-198
-188,-205,2,27,57,-20,-92,-106,-167,-79
284,191,-50,-97,-28,-65,-73,-51,-33,235
171,105,-114,-22,4,-62,-58,-68,-76,119
-84,-119,-222,16,2,-26,-23,-38,-65,-5
-20,-81,-164,-51,-74,-34,13,31,24,88
7,-47,106,104,-30,-40,16,38,38,110
6,-22,300,302,89,-14,15,10,12,119
-70,7,328,428,263,51,18,-90,-131,-12
-89,-13,32,235,252,102,66,-50,-131,-20
74,112,-176,-57,70,74,106,75,25,173
130,146,-165,-239,-73,53,151,152,145,251
70,17,-191,-365,-185,31,156,201,214,240
47,-79,-202,-366,-201,10,120,171,170,210
116,-67,-185,-361,-223,-18,100,157,142,246
136,-17,-171,-312,-233,-66,24,82,88,240
96,29,-46,-202,-208,-109,-54,-37,-12,152
-26,-56,-6,-135,-147,-74,-36,-29,-66,61
-55,-103,-118,-145,-72,0,27,16,-38,53
40,-24,-131,-85,-20,4,19,5,-25,101
18,-10,-86,1,15,0,-5,-29,-26,76
-19,3,92,48,19,-11,-33,-51,-39,22
-32,57,229,58,2,-30,-48,-20,-43,4
-137,-37,199,27,-55,-39,-39,18,-70,-47
-191,-82,121,36,-34,-17,-75,-28,-144,-120
36,196,174,-59,-76,-82,-158,-110,-166,-25
59,188,88,-120,-130,-103,-100,-75,-69,26
-6,114,5,-53,-86,-98,-75,-79,-57,0
3,48,-185,-136,-65,-65,-70,-85,-76,38
-148,-157,-283,-36,49,17,-23,-76,-106,-69
-110,-145,-112,136,56,18,9,-60,-86,-66
40,26,78,168,-28,-7,0,-13,-16,49
130,83,88,28,-75,21,60,99,88,170
179,69,-16,-129,-15,89,144,185,202,234
96,104,-39,-81,39,69,52,43,42,99
42,51,2,-59,32,27,-13,-29,-63,22
85,26,33,-62,57,79,11,48,8,85
62,-1,105,-18,78,90,10,76,30,74
-1,-61,121,49,78,65,-1,68,19,33
-19,-68,37,119,64,18,-42,10,-6,5
-15,-42,-49,91,31,-15,-69,-23,-26,-10
57,53,-45,-51,-36,-26,-82,-9,-13,40
158,150,-16,-153,-108,-81,-115,-24,-23,96
135,117,8,-101,-67,-58,-49,22,32,119
-99,-134,-47,83,132,68,27,31,-18,-46
-203,-201,-64,197,204,114,41,-18,-112,-149
-15,88,-49,46,39,51,7,-15,-44,-37
-43,-41,-132,-159,-64,10,21,43,21,0
34,15,-76,-156,-50,22,18,72,75,65
45,21,-38,-32,19,13,-38,9,36,59
-34,-45,-4,88,96,25,-92,-53,-35,-14
-48,-19,74,169,128,20,-122,-82,-42,-48
-4,43,138,205,128,0,-139,-109,-49,-34
53,132,201,237,62,-70,-186,-164,-93,-18
70,172,198,206,18,-142,-257,-213,-132,-44
-190,-97,145,346,208,-23,-165,-138,-128,-183
-195,-70,165,420,351,96,-111,-123,-144,-180
91,203,139,183,152,21,-108,-89,-38,10
-141,-86,-129,-212,-177,-130,-132,-126,-117,-141
-187,-137,-113,-200,-232,-226,-259,-228,-186,-186
-185,-135,-188,-349,-388,-328,-313,-259,-177,-199
-232,-184,-53,-365,-445,-348,-294,-198,-117,-191
-274,-297,10,-298,-336,-242,-161,-56,-28,-143
30,44,130,-256,-216,-122,-39,45,81,54
230,230,66,-261,-68,60,122,209,226,237
248,111,-170,-238,68,166,240,314,308,299
222,68,-171,-107,67,79,165,225,232,231
120,97,-118,40,60,-20,64,75,74,69
37,86,-194,9,40,27,82,49,50,13
8,39,-196,-31,58,132,76,64,71,36
-1,46,-40,-45,90,91,-22,-15,-28,-26
73,78,10,-156,23,19,-7,61,40,70
159,106,11,-155,-12,33,77,143,168,175
64,83,41,22,113,113,93,105,108,54
-110,-116,-48,130,202,184,104,93,50,-61
11,28,-19,62,134,141,73,69,58,7
109,167,24,-5,67,72,14,43,64,76
-27,-6,-18,43,90,80,1,8,4,-16
55,33,-21,8,36,81,0,32,53,59
92,21,-52,-50,-22,98,43,108,126,130
9,-16,-12,-13,0,110,73,107,99,73
-13,25,66,53,65,94,62,26,7,-9
24,142,107,83,65,44,-1,-50,-74,-48
-31,54,94,52,54,47,38,10,-15,-47
-18,37,124,72,52,37,54,44,54,5
43,63,88,93,27,2,-29,-14,-17,7
13,-4,-85,109,24,13,-23,-1,-17,-3
-29,-90,-89,129,42,41,14,51,52,18
-74,-87,0,224,111,59,2,18,0,-37
-98,-79,6,234,134,61,-19,-49,-79,-83
66,111,40,34,50,41,0,-19,-23,3
33,86,45,-10,42,64,37,49,43,20
-8,-13,1,34,67,35,5,-15,-1,-28
1,81,76,128,103,-10,-75,-144,-128,-98
-11,160,221,269,146,-30,-141,-216,-194,-143
-92,103,275,385,252,16,-159,-293,-298,-238
-104,-13,198,303,211,32,-73,-194,-221,-188
76,102,147,34,-48,-38,-23,2,42,46
-24,-5,-10,-203,-182,-73,2,58,68,0
-48,-149,-242,-387,-176,-9,68,94,71,-23
81,-96,-249,-385,-144,11,79,121,116,102
-8,-110,-162,-232,-73,-9,17,45,48,33
7,-23,-38,-128,-61,-39,-28,9,22,14
54,91,15,-115,-62,-56,-21,-12,-2,15
21,64,20,-107,-49,-30,-10,-26,-35,-25
50,46,-11,-156,-48,-8,30,2,8,0
126,111,-17,-195,-113,-62,2,13,76,56
-60,-126,-81,-105,-87,-48,-33,-28,-28,-72
-130,-313,-215,-90,-14,37,31,23,1,-66
52,-65,-176,-109,-12,34,44,60,89,57
50,-7,-99,-43,-16,19,10,44,64,37
78,44,-22,-69,-70,-35,-46,4,19,27
93,23,8,-87,-127,-68,-17,20,67,61
75,7,21,-47,-95,-36,54,105,172,107
-89,-61,120,126,50,10,20,-2,8,-77
-160,-93,103,191,126,23,-62,-150,-188,-211
-79,-18,117,137,73,-21,-134,-174,-209,-172
-165,-134,61,102,60,-18,-132,-158,-197,-202
-79,-113,-102,-71,-24,-30,-67,-86,-113,-104
44,-25,-155,-118,-29,-4,16,12,14,37
40,-13,-97,-28,56,44,74,68,81,52
-1,-5,34,114,85,44,44,39,49,0
-84,-42,139,311,102,16,-20,-75,-77,-121
13,112,213,333,78,-18,-58,-110,-80,-84
53,76,157,177,20,-49,-76,-78,-25,-20
59,56,131,-60,-49,-55,-54,-52,4,4
18,10,46,-223,-58,0,-2,-11,4,-4
60,73,82,-127,-67,-17,-50,-15,16,21
33,116,190,97,12,1,-47,23,67,16
-92,-47,66,205,173,102,-1,11,7,-73
-18,37,-56,134,183,110,-7,-37,-53,-67
37,80,6,168,118,28,-57,-52,-25,-37
-73,-144,-125,133,98,15,-47,-34,-19,-97
-37,-101,-197,-52,49,30,11,23,25,-54
22,23,-90,-132,2,-28,-19,2,33,-25
-34,-63,-69,-173,-20,-72,-71,-24,9,-32
-51,-102,-145,-348,-94,-116,-77,-35,-5,-30
-29,-85,-226,-491,-136,-149,-83,-67,-25,-37
-82,-122,-240,-359,-133,-177,-117,-129,-82,-108
-130,-186,-229,-156,-71,-112,-99,-128,-112,-148
-74,-153,-87,17,-19,-44,-29,-38,-15,-64
-80,-168,87,152,2,0,13,23,56,-9
10,-46,133,51,19,61,73,73,105,62
222,224,122,-96,33,103,110,128,189,193
94,162,-23,155,40,-16,-43,-41,-13,12
4,36,-51,189,15,-32,-19,-1,22,9
9,0,-18,122,-13,-40,0,34,72,57
-127,-153,2,125,80,41,70,82,67,-34
-64,-62,6,36,112,98,115,75,38,-22
75,90,-66,-111,87,90,144,98,94,64
88,45,-176,-271,40,70,158,123,133,80
183,136,-112,-257,-44,8,85,86,126,135
161,114,-37,-142,-66,-34,41,95,133,144
70,14,-40,-95,-41,-6,47,118,139,115
6,-4,-34,-44,44,38,40,76,59,50
-33,25,52,43,121,47,11,-21,-55,-42
-101,-26,74,124,151,55,11,-49,-74,-85
-92,-38,54,107,165,69,40,-1,-39,-60
-106,-69,27,90,144,73,21,0,-62,-71
-86,-59,7,59,61,38,-4,-18,-47,-58
14,74,90,64,26,13,-17,-45,-43,-12
-104,-14,118,202,130,15,-30,-133,-159,-128
-106,6,95,138,35,-77,-84,-187,-192,-151
-57,20,-9,-62,-112,-124,-54,-129,-101,-96
-61,-85,-114,-199,-181,-79,59,24,45,-2
-29,-94,-52,-190,-165,-52,70,50,56,39
77,25,79,-124,-84,-14,52,51,57,97
77,25,80,-48,6,18,73,68,62,101
68,79,52,-35,17,9,66,39,37,71
97,176,51,-95,-49,-45,8,-21,0,42
33,134,112,-35,-17,-9,42,17,12,10
21,63,151,98,75,60,98,50,52,42
49,6,93,44,16,30,46,-3,-21,29
59,3,7,-74,-66,-6,35,37,21,48
-6,-52,-59,-81,-51,25,7,49,35,29
-93,-150,-180,-88,0,51,13,58,35,-17
-61,-106,-205,-77,-1,45,12,78,42,6
-60,-33,-179,-28,12,20,-61,-26,-75,-70
-50,-4,-111,-2,-2,-19,-128,-131,-158,-134
-11,41,-57,-20,-119,-79,-138,-117,-113,-90
-93,35,98,72,-105,-90,-123,-150,-168,-157
-56,47,137,40,13,-3,-67,-123,-133,-131
94,82,89,-78,78,101,49,52,62,47
115,109,78,-114,65,148,124,168,168,112
111,126,46,-72,67,132,81,109,94,66
44,14,-25,-35,87,113,52,73,48,28
11,-17,-71,-5,72,115,79,123,131,49
-3,-32,-70,28,48,77,59,67,87,18
30,-53,-54,30,32,37,46,22,44,22
73,73,20,67,62,17,12,-32,-28,-5
-7,55,93,144,148,36,-18,-78,-89,-83
-46,-27,120,230,233,94,-5,-48,-59,-61
-46,-11,125,264,239,99,-6,-52,-72,-58
-71,0,127,210,166,68,6,-26,-39,-80
-67,-12,38,81,52,36,24,2,28,-51
5,7,-97,-161,-132,-52,-5,3,59,21
19,8,-59,-114,-118,-55,-20,-31,-1,5
32,54,18,-35,-61,-25,-19,-76,-60,-31
39,38,-6,-102,-71,-36,13,-33,-9,3
28,-79,-113,-184,-94,-7,64,72,102,71
41,-32,-40,-94,-59,-11,40,41,65,54
12,63,64,-19,-40,-31,-19,-25,-18,-35
45,58,13,-65,-75,-20,14,20,11,43
-69,-91,-46,5,1,40,46,39,-7,-30
-48,-108,-133,-36,-34,3,36,41,-5,-12
-3,-46,-38,-53,-68,-23,0,31,5,7
23,20,26,-17,-45,-15,-37,24,10,29
55,48,20,-19,-26,8,-5,68,89,80
52,18,-4,-11,-9,-5,-22,23,43,43
15,4,19,1,-30,-41,-79,-65,-57,-45
-113,-103,-6,40,-14,-33,-63,-55,-54,-109
27,50,15,2,-52,-35,-63,-24,10,2
58,122,105,74,-9,-27,-99,-62,-48,-2
0,48,99,170,103,33,-88,-55,-73,-52
-34,54,102,221,200,70,-72,-125,-161,-127
-23,59,114,170,128,1,-40,-131,-157,-130
-14,38,68,74,14,-23,22,-24,-38,-47
-28,-70,-73,-51,1,43,122,88,65,17
-2,-102,-182,-166,-60,31,130,103,86,23
57,-56,-173,-189,-160,-28,86,96,92,61
50,-75,-142,-171,-138,-8,77,111,85,59
7,-91,-91,-59,-66,-4,56,92,41,20
18,0,36,106,-1,7,28,29,1,-19
38,50,52,134,37,43,63,45,30,-3
7,-26,27,96,33,54,66,37,-14,-16
17,0,55,43,0,20,27,15,-43,-28
70,69,46,-12,-19,-12,7,-3,-31,2
27,38,61,38,-14,-69,-62,-79,-88,-37
69,124,88,-10,-45,-83,-84,-83,-68,-21
83,119,39,-64,-80,-81,-75,-9,-2,47
9,-28,-36,-67,-74,-51,-30,76,58,60
-87,-127,-9,56,54,35,7,79,23,-28
-48,-50,91,122,64,49,-11,57,15,-21
-11,-8,-43,-34,-85,-34,-41,-7,-41,-41
-37,-46,-103,-66,-54,-20,-48,-28,-48,-54
-74,-42,-36,-10,-15,-59,-111,-99,-106,-106
-102,-64,18,116,65,-47,-137,-129,-144,-139
-95,-76,20,167,120,12,-105,-82,-99,-106
9,-16,0,96,91,65,-29,42,32,42
27,10,-97,-23,3,27,-14,58,46,65
-63,-67,-213,-140,-80,-39,-49,17,4,-7
-11,-7,-195,-174,-116,-77,-30,5,28,18
25,36,-115,-139,-50,-20,23,50,75,56
20,20,37,-32,21,69,98,136,164,97
-10,-11,39,26,50,81,88,112,122,52
144,138,19,-15,9,31,34,62,89,116
162,149,-32,-24,22,7,12,54,62,131
48,38,-42,-3,49,17,-1,38,39,64
122,64,-25,-76,-52,-49,-20,57,103,138
141,203,103,-4,-62,-66,-79,-30,19,91
13,118,105,85,48,1,-54,-64,-65,-30
-118,-134,-119,97,126,94,56,26,-18,-52
-68,-54,-138,126,134,106,53,19,-7,-29
-25,-4,-43,64,76,55,35,11,-9,-10
-30,-40,20,25,37,25,19,6,-13,-1
-30,-20,35,49,40,28,-26,-19,-42,-17
-19,16,42,36,10,0,-56,-24,-49,-25
-7,24,37,84,4,-7,-23,16,22,19
-4,55,-3,121,44,13,-2,26,53,23
-20,46,32,12,-17,-40,-56,-45,-35,-32
-28,75,193,-28,-81,-74,-49,-57,-54,-58
-54,55,247,13,-75,-79,-32,-50,-51,-76
-82,10,171,95,18,-20,-27,-72,-69,-83
-20,27,107,205,107,11,1,-92,-86,-81
0,21,137,233,118,15,17,-61,-63,-70
13,-3,78,101,63,44,86,71,101,29
-33,-88,-50,-96,-5,37,86,64,80,5
-13,-100,-132,-192,-50,-16,18,22,24,-15
9,-117,-186,-230,-43,-12,29,55,57,28
8,-54,-113,-175,-9,-8,0,0,-8,-11
77,24,-51,-135,-50,-23,-2,6,-6,24
67,-72,-175,-175,-92,13,53,86,77,82
30,-132,-176,-152,-66,27,55,73,76,54
22,-86,-112,-112,-20,14,30,36,28,24
28,-83,-100,-103,-19,8,16,31,12,25
32,-74,-78,-93,-15,26,8,28,12,30
62,-36,-42,-113,-50,-14,-6,20,29,47
63,-31,-29,-114,-78,-37,-26,4,20,30
-18,-34,24,-7,-9,-18,-40,-47,-60,-60
-2,-9,28,20,27,9,-6,-12,-17,-10
31,55,49,51,28,41,22,29,35,37
-29,45,87,93,46,51,27,33,32,-5
2,36,75,41,6,14,14,11,7,-1
54,22,37,-26,-40,-17,-5,14,24,44
9,-47,9,2,-28,4,3,32,37,37
38,-5,23,11,-42,-11,-2,26,48,59
-5,16,24,55,16,-11,-2,-32,-24,-15
-64,-2,48,98,78,30,-17,-67,-73,-87
-38,-14,56,61,63,30,-1,-44,-37,-67
48,23,-12,-59,-27,-28,5,-13,2,12
55,24,-33,-104,-65,-54,11,1,8,36
-7,18,11,-54,-53,-79,-55,-84,-87,-59
-29,-11,-2,-21,-14,-79,-89,-115,-129,-100
-45,-104,-65,-34,0,-33,-23,-12,-23,-30
-19,-23,-35,-46,-65,-76,-60,-15,-22,-24
-14,-31,-48,-48,-122,-145,-122,-57,-35,-18
23,-43,-47,-134,-157,-164,-115,-48,10,39
-76,-66,120,-32,-57,-87,-66,-48,-46,-51
-180,-118,313,238,140,46,-14,-72,-110,-159
-121,-75,283,333,220,119,32,-51,-94,-130
76,139,243,337,165,93,31,-19,-29,-14
101,213,242,402,154,77,7,-42,-32,-21
4,70,98,286,125,82,34,12,36,-22
-41,10,-18,62,46,30,15,-18,32,-33
-61,-17,-131,-102,-35,-39,-54,-84,-50,-64
-59,-80,-266,-231,-53,-36,-24,-63,-69,-39
9,-63,-205,-348,-117,-13,65,46,42,55
78,-33,-145,-331,-120,22,145,128,128,137
61,-17,-119,-192,1,44,112,77,63,100
62,-6,-95,-146,8,18,55,57,52,67
98,24,-77,-115,-30,10,52,70,88,91
86,29,-42,-87,-20,6,28,51,27,60
32,8,-39,-36,-5,4,17,49,4,30
-21,-137,-155,5,32,66,104,145,113,70
65,62,82,116,104,36,6,-32,-55,11
105,200,208,113,77,-40,-102,-166,-189,-60
74,163,151,85,50,-28,-41,-106,-130,-40
40,103,66,-12,-31,-25,-6,-29,-69,-33
-21,3,-54,-97,-82,-8,39,57,0,-26
-10,-57,-111,-144,-93,12,65,65,25,1
48,31,-46,-133,-103,12,95,92,90,69
-45,-47,-32,-73,-48,33,95,108,93,21
-52,-61,-54,-50,-24,43,75,57,33,-17
7,47,29,9,-40,6,-2,-7,-14,-23
-66,35,132,199,22,5,-64,-48,-70,-67
-72,52,196,286,94,29,-58,-64,-95,-99
-65,42,190,203,85,12,-67,-80,-98,-100
-47,-10,114,58,24,4,-24,-20,-47,-47
-3,-54,-54,-162,-32,22,79,79,71,31
38,-70,-148,-206,-47,25,89,134,134,80
-18,-111,-127,-40,14,9,23,56,31,0
-109,-111,-99,39,18,-62,-60,-102,-122,-137
-92,-40,-78,21,-46,-136,-134,-126,-112,-103
-194,-130,120,132,12,-94,-134,-136,-144,-162
-201,-128,177,103,18,-34,-44,-65,-111,-160
31,116,151,-8,-7,16,43,48,27,28
77,150,97,30,67,90,123,88,66,60
38,86,1,41,97,97,113,70,22,21
17,26,-57,1,78,68,57,83,41,35
37,76,-29,-16,49,68,65,119,143,73
-3,43,-21,10,65,81,66,88,92,26
-27,-6,-59,-29,78,66,31,21,-7,-19
4,-20,-92,-94,61,56,43,54,15,4
40,6,-85,-143,-27,4,49,66,45,33
30,-4,-60,-121,-44,-14,18,36,15,11
10,-4,-46,-83,-10,-1,5,30,-8,-2
20,52,-1,-24,-13,-15,1,43,41,12
32,91,35,-8,-37,-27,-2,43,56,38
-25,18,19,-4,-43,-40,-19,27,9,6
-68,-66,-99,-1,3,-21,-4,14,-28,-58
0,29,-23,-17,19,-8,-38,-42,-72,-61
42,112,63,-34,-31,-40,-73,-86,-66,-41
23,56,63,-21,-40,-7,-45,-38,-28,-23
14,37,90,13,-19,0,-18,-1,16,-5
-19,51,144,71,22,5,-11,-10,-15,-65
-98,-46,88,108,79,44,23,-7,-40,-108
-29,-10,20,67,32,19,0,-14,-33,-44
34,34,-58,0,-32,-23,-39,-9,-2,4
-3,-16,-64,-79,-63,-50,-40,-30,-13,-23
-37,-66,-78,-84,-46,-55,-57,-57,-41,-67
-54,-97,-49,-17,2,-16,-37,-34,-27,-48
0,-40,-62,7,7,4,0,32,57,20
19,20,2,26,6,0,22,56,100,25
-6,13,36,69,16,-19,-40,-9,0,-37
-20,-5,46,99,29,-18,-63,-57,-49,-64
-52,-56,69,187,109,37,-33,-43,-35,-58
-174,-146,112,298,228,83,-28,-72,-86,-138
-194,-124,143,332,286,101,-26,-115,-158,-187
129,198,168,132,101,0,-53,-104,-72,-4
163,136,-7,-88,-87,-53,-26,-5,48,73
84,-13,-250,-302,-212,-64,20,65,105,61
4,-81,-385,-333,-215,-98,-46,3,24,-11
-70,-149,-358,-237,-145,-111,-116,-85,-82,-88
6,-34,-89,-135,-78,-69,-104,-84,-66,-35
7,13,115,-28,-2,2,-27,-44,-34,-34
33,-24,91,-44,3,37,57,34,57,42
43,-36,11,-40,47,89,120,91,97,72
66,23,-19,-2,81,102,165,131,125,86
78,62,-21,-10,27,31,112,81,76,75
57,20,22,13,-6,4,57,49,31,74
73,42,43,57,25,41,58,64,44,97
-33,-36,-13,78,87,81,69,41,-11,16
-3,-22,23,17,58,76,61,52,6,33
67,70,60,-25,34,55,19,44,38,76
94,76,53,-22,28,19,1,49,82,110
86,26,15,-40,-13,-19,-16,20,46,90
-56,-81,0,20,22,21,-6,-7,-33,-31
-135,-120,33,90,55,40,-5,-25,-70,-86
-14,49,-25,57,-36,-35,-68,-62,-68,-20
35,78,-94,-5,-71,-66,-65,-57,-43,13
-96,-55,-38,35,11,-12,-37,-81,-88,-68
-81,-24,75,62,26,-39,-74,-112,-108,-70
-32,29,176,114,48,-7,-43,-58,-51,-18
-63,-15,183,171,91,56,33,5,-15,-15
-46,-15,188,161,25,30,17,13,0,-5
44,67,180,78,-39,28,7,36,36,43
30,53,138,34,-11,42,42,61,34,41
31,32,48,-35,-7,10,23,45,32,53
-7,-14,-52,-61,0,10,24,33,19,30
-5,-4,-114,-134,-24,1,31,68,68,32
45,71,-132,-205,-115,-77,-57,-11,-9,31
-63,2,-126,-136,-133,-118,-115,-132,-147,-84
-116,-94,-120,-78,-117,-120,-99,-144,-157,-119
-79,-127,-103,-56,-83,-81,-40,-100,-93,-75
-11,-35,3,-32,-22,-38,-16,-85,-60,-44
82,102,100,21,47,5,20,-50,-5,17
83,138,71,76,114,89,116,83,103,79
28,75,-49,78,147,145,146,126,122,74
77,47,-58,-15,75,111,98,127,130,122
87,28,-77,-56,19,61,73,119,137,113
-5,-49,-78,-5,53,75,75,102,82,29
-90,-105,48,105,122,81,50,30,-21,-65
-12,-62,44,83,68,33,4,-5,-22,-40
145,94,9,-52,-48,6,27,43,61,86
71,9,-66,-72,-28,30,75,65,86,74
-43,-90,-68,-37,25,32,27,26,13,-10
-77,-52,67,0,34,15,-16,-25,-48,-72
-153,-107,98,83,52,6,-16,-65,-97,-150
12,49,127,90,30,-10,5,-33,-18,-24
112,82,79,33,-14,12,61,40,69,77
81,4,-33,-19,-44,24,110,89,134,105
44,-2,-61,-34,-19,12,91,62,99,58
41,19,-110,-80,10,5,87,67,105,46
-21,-14,-100,-18,70,32,49,12,55,-3
-90,-84,-40,74,140,68,39,-20,-36,-69
-17,-13,33,56,65,28,22,0,-40,-26
2,65,62,-12,-58,-59,-50,-49,-64,-32
-63,-12,-22,-10,-92,-106,-87,-84,-97,-79
-48,-57,-80,63,-64,-97,-79,-72,-99,-67
-76,-93,-52,135,-26,-68,-65,-42,-67,-74
-107,-98,35,156,-15,-56,-69,-48,-76,-90
-45,-19,86,122,-11,-40,-67,-49,-91,-60
-39,-44,-31,4,-3,19,0,-7,-69,-43
9,-37,-79,-112,-38,16,30,8,-25,-5
42,-7,-45,-124,-79,-45,-8,-16,-14,10
-1,-2,-13,-23,-37,-61,-48,-70,-57,-37
-16,36,21,79,67,0,-8,-35,-14,-26
24,74,44,76,128,75,58,29,50,19
9,-11,7,13,71,86,55,44,47,16
-46,-87,-8,-21,26,57,26,24,13,1
6,-52,-67,-159,-46,32,34,36,55,50
58,-25,-84,-183,-60,14,53,62,88,73
32,-24,-34,-78,-11,4,44,31,52,43
53,29,27,-17,-4,-4,26,14,44,49
73,58,58,-1,-15,5,27,33,81,83
22,-8,15,-30,-34,-3,5,-3,28,46
0,14,66,-32,-44,-39,-31,-32,-18,14
-26,39,100,-35,-24,-41,-33,-49,-35,-1
-25,17,65,-56,-24,-27,-48,-66,-41,-11
-27,11,53,-49,-65,-56,-53,-62,-32,-4
43,96,31,-53,-74,-45,-41,-24,8,71
76,94,-40,-92,-59,-23,-31,-3,61,105
11,-29,-136,-127,-24,-10,2,12,80,72
2,-46,-178,-125,-9,8,-10,16,69,43
-74,-48,-159,-38,21,9,-110,-93,-71,-84
-110,-69,-106,9,8,-53,-162,-149,-119,-129
-67,-15,43,63,-3,-65,-151,-130,-41,-90
-70,20,241,139,43,-28,-80,-81,-22,-65
-54,34,326,184,102,13,-21,-40,-12,-45
4,94,261,171,83,29,10,-2,24,8
36,54,24,106,18,13,-14,2,23,48
-5,-79,-179,88,11,3,-16,5,20,52
-5,-71,-198,-4,-29,-68,-65,-54,-27,22
108,76,-197,-180,-98,-95,-72,-23,8,87
43,-21,-196,-130,28,24,49,97,91,83
-23,-67,-116,43,185,114,108,107,79,42
80,91,-6,-6,104,67,65,66,82,81
57,64,-23,-100,3,23,44,40,61,70
39,14,-85,-137,-54,15,44,62,69,75
41,8,-75,-114,-63,23,43,61,59,60
18,2,-90,-68,-48,16,18,8,1,19
-32,-24,-147,-70,-84,-49,-19,-57,-59,-37
-40,-15,-52,-74,-119,-84,-45,-79,-95,-52
-36,-11,39,-27,-71,-43,3,-23,-44,-19
-13,20,154,56,11,-3,5,-10,-41,-12
26,25,114,43,57,33,24,1,-31,12
54,23,55,41,71,54,56,23,-4,32
28,6,-17,56,63,73,67,38,3,19
45,21,-57,35,31,57,43,43,24,41
69,51,14,22,-9,24,-3,41,43,61
61,89,101,59,-9,-20,-46,-3,-15,22
43,98,126,134,38,3,-8,3,8,23
36,105,124,167,76,31,30,41,65,45
-6,12,64,96,42,24,5,14,38,23
0,-24,-4,-4,-34,0,-34,-12,-7,21
-13,-37,-38,-75,-55,-5,-32,-1,-5,-3
-24,-37,-61,-54,-18,14,-16,8,-15,-31
-7,12,-61,-18,-14,-1,-19,0,-10,-12
-20,-17,27,35,-3,-3,-30,4,11,-18
10,1,71,127,72,35,-2,6,3,-4
-13,-29,79,165,135,33,-14,-70,-94,-51
-14,-33,75,95,73,15,-15,-71,-99,-51
19,-46,14,-47,-26,-31,11,2,-20,-2
-8,-115,-11,-103,-57,-29,44,47,35,-9
-38,-107,11,-31,-14,5,16,13,-37,-62
77,55,54,-11,-8,0,6,15,-22,6
77,54,54,5,-7,-9,30,59,45,39
33,7,26,36,33,-7,18,35,38,0
-3,-51,-6,70,57,-13,-47,-39,-55,-63
-30,-82,-41,59,31,-22,-102,-56,-81,-74
-48,-100,-52,17,-10,-33,-59,-34,-62,-70
-22,-67,-59,-23,-39,-18,-24,-20,-43,-50
3,-21,-83,-79,-55,-8,-53,-20,-42,-33
-10,-17,-61,-74,-56,-24,-46,-12,-12,-50
14,24,9,-26,-45,-21,-68,-16,-19,-49
14,21,41,-16,-39,2,-75,-38,-50,-48
-11,-12,58,25,0,27,-31,-29,-33,-39
18,16,69,51,4,8,16,-5,-4,-16
37,14,9,4,-24,-23,20,19,23,11
-35,-64,-14,-10,-35,-29,-9,-9,-15,-33
-96,-110,2,12,1,-33,-22,-48,-60,-87
-51,-38,23,-4,-11,-52,-47,-48,-57,-65
-38,-13,-13,-49,-23,-24,-1,3,-9,-11
-63,-45,-15,20,33,13,14,14,-5,-4
-3,-16,-11,64,18,10,9,26,27,29
67,48,0,29,-33,-2,-7,34,69,65
67,97,70,47,-20,3,-24,8,33,37
0,22,31,40,41,15,2,1,5,-16
0,-8,-1,30,75,43,24,25,40,0
41,70,46,59,95,46,51,40,73,29
39,20,22,4,24,23,34,34,44,37
46,-3,9,-66,-44,-18,-40,15,24,27
21,70,89,-55,-34,-59,-89,-58,-53,-29
16,86,138,-41,-36,-68,-94,-76,-60,-31
18,9,86,-36,-23,-41,-32,-7,22,15
10,-1,69,-26,3,0,12,41,57,29
48,39,20,-57,21,37,40,89,99,62
41,5,-96,-86,11,41,19,64,52,42
8,-46,-218,-26,16,35,-3,40,26,16
-22,-87,-265,34,25,1,-6,32,15,10
-31,-74,-138,46,22,-4,0,26,14,9
-4,20,-35,17,11,-4,-32,-5,-8,0
-29,-2,-22,-2,7,-17,-57,-40,-39,-54
-11,-14,17,12,-13,-36,-38,-16,-14,-38
-38,-47,64,113,-11,-12,-11,-4,5,-58
-95,-86,47,163,25,18,-23,-12,-21,-84
15,26,44,113,-28,-23,-38,-4,0,-10
5,-5,24,141,-16,-29,-49,-10,6,0
-29,-47,15,129,-7,-18,-31,10,24,-8
-21,-40,-20,21,-46,-45,-24,6,3,0
-22,-6,-40,-24,-64,-41,-10,6,16,16
-63,59,-28,73,47,28,53,2,39,-40
19,170,66,34,40,27,57,10,89,0
47,89,31,-107,-26,2,43,28,127,47
21,4,0,-130,-51,0,-1,11,84,33
-14,-40,-33,-85,-33,0,0,-17,33,-14
2,0,-76,-65,-23,5,18,-8,52,-5
25,17,-78,-40,-20,30,38,18,86,41
1,-7,0,18,40,44,16,16,37,21
-24,0,65,82,70,39,-16,-23,-45,-20
-62,-54,-19,31,17,-6,-52,-83,-127,-73
4,-30,-134,-113,-95,-66,-57,-80,-70,-33
78,18,-116,-184,-184,-86,-26,-23,45,55
-23,-65,-52,-123,-143,-72,-50,-73,-23,-24
-100,-136,-55,-103,-77,-34,-27,-69,-33,-74
-12,-60,-48,-102,-61,2,17,23,63,29
50,79,33,-50,-14,53,55,68,117,73
78,154,112,-18,9,46,44,58,97,68
40,93,38,13,32,30,11,11,2,6
27,17,-54,-5,4,20,32,41,23,37
30,-20,-69,-61,-28,14,59,82,87,72
8,-43,-120,-61,-8,30,80,101,95,74
12,-41,-55,-38,27,52,87,97,80,66
23,1,-2,-2,49,43,54,67,36,50
9,33,58,54,61,30,27,28,-4,18
16,46,86,59,45,8,35,7,-12,19
10,41,99,38,12,-15,34,2,-33,18
1,8,50,27,25,3,35,13,-7,19
0,0,18,18,32,39,40,3,6,5
-10,7,47,15,13,24,16,-27,-19,-8
-52,9,87,42,15,-13,-21,-54,-55,-32
-42,38,82,56,32,-3,6,-31,-2,-25
44,118,86,32,-9,-24,-27,-56,-10,10
3,51,47,73,-33,-64,-69,-67,-55,3
-38,-42,-81,91,-41,-66,-48,-32,-17,-3
-17,-59,-83,44,-30,-47,-19,-14,2,8
-56,-76,-24,25,-1,-18,9,0,-15,-20
-44,-58,6,41,15,18,39,-8,-30,-27
64,63,10,-39,-1,0,71,15,32,30
63,100,25,-29,18,8,74,59,75,54
-36,-9,28,36,45,11,-15,-26,-62,-32
-90,-107,-29,27,11,-14,-46,-40,-95,-57
-95,-121,-36,-29,-40,-38,-43,-17,-42,-38
31,32,30,-56,-83,-50,-56,-32,-29,3
78,79,70,-67,-69,-48,-38,-25,-18,15
35,55,75,-23,2,11,24,38,55,32
12,56,59,44,62,61,63,72,88,19
-20,-8,-38,-7,19,65,63,80,79,15
-8,-31,-67,-63,-41,52,20,49,39,23
45,32,-11,-37,-54,30,-10,0,11,21
85,134,58,10,-65,-21,-69,-48,-18,23
12,57,-42,57,-45,-26,-78,-72,-69,-28
-58,-53,-100,106,1,-18,-62,-75,-77,-67
-186,-129,56,188,90,-6,-63,-103,-146,-171
-75,12,115,145,133,36,-18,-35,-77,-75
-12,8,43,30,82,39,30,26,-32,-3
-1,-67,-54,-81,7,40,76,59,12,34
40,-34,-40,-122,-66,23,86,60,38,62
16,-42,-6,-73,-70,-11,48,29,-5,40
-9,-35,41,11,-45,-32,23,11,-27,25
-7,-16,73,79,-24,-39,12,-9,-31,20
-11,18,53,114,2,-34,-5,-18,-39,9
-25,2,0,113,40,9,-11,15,-25,6
-35,-32,3,37,30,25,-3,10,-18,9
-23,-32,-27,-38,15,19,-7,11,-18,19
10,-23,-50,-102,-8,20,21,48,23,65
17,-13,-15,-73,-34,-19,-8,1,-56,38
-68,-35,41,51,5,-34,-55,-75,-138,-73
-134,-133,-47,84,40,13,4,-22,-62,-92
84,63,14,-4,-13,4,20,27,24,54
146,102,-25,-22,19,25,44,52,57,116
56,22,-125,-37,51,42,71,35,32,61
34,34,-36,-64,33,25,62,-4,10,14
10,4,89,-41,37,39,3,12,-16,20
102,79,37,-80,-10,6,32,51,77,109
111,125,32,-6,25,9,43,55,108,106
68,90,85,59,58,24,2,-11,5,36
-39,-53,-25,93,80,28,-18,-65,-95,-53
-76,-111,-157,44,37,1,-4,-61,-77,-82
-53,-120,-137,-40,-14,14,10,-1,5,-35
-26,-88,-95,-95,-79,-2,19,50,47,30
-15,-49,-79,-87,-75,-30,-9,25,-22,38
29,46,2,-77,-61,-28,-29,5,-12,30
-1,43,41,-3,-6,7,12,21,20,0
37,89,64,19,-9,-13,1,-4,-11,1
5,35,94,56,-27,-60,-56,-68,-128,-22
10,-9,82,88,-16,-54,-67,-66,-92,-10
39,-2,50,64,6,-22,-30,-16,-7,22
45,-8,2,-17,1,8,12,50,50,64
-1,-55,-45,-78,-62,-56,-21,2,7,17
-66,-137,-127,-75,-79,-105,-47,-56,-76,-60
-59,-117,-122,-87,-33,-57,-4,-48,-34,-40
-27,-50,-44,-94,-4,-6,26,-36,-12,-15
-28,12,88,-12,1,-14,6,-67,-57,-36
17,45,50,-44,-37,-22,-1,-44,-14,16
60,38,-57,-55,-29,0,19,-12,10,54
75,79,-57,-46,-31,-4,39,14,32,67
15,53,-44,-25,27,40,88,82,74,73
-84,-29,-32,42,105,80,89,89,-2,-9
-77,-53,-28,32,65,40,1,12,-108,-55
11,29,4,24,28,17,-23,0,-75,8
9,50,11,1,-33,-52,-77,-84,-78,-3
-80,-42,-15,-15,-45,-75,-100,-142,-105,-89
-74,-90,-85,-25,-36,-52,-20,-69,-51,-46
-13,-67,-75,26,-21,-36,21,21,30,40
42,46,85,169,81,27,48,54,70,66
38,95,235,309,187,74,37,-7,-11,25
37,97,199,238,158,72,65,27,43,57
37,24,86,-8,-1,31,97,113,158,117
70,47,6,-197,-112,-2,57,131,166,142
6,63,-15,-166,-53,-17,-38,12,-6,25
-102,-15,3,-10,40,-29,-107,-127,-145,-108
-90,37,25,29,18,-19,-126,-177,-162,-128
-54,25,-14,-2,22,45,-55,-67,-57,-31
-3,-29,-77,-45,20,85,30,53,39,67
47,34,-66,-37,-5,85,64,105,107,108
90,121,-66,-32,-39,60,62,94,110,140
55,36,-81,-41,-39,66,69,122,123,146
6,-64,-103,-44,30,91,85,143,130,120
-18,-58,-88,-26,64,86,71,85,84,55
25,17,-161,-69,0,35,66,92,107,84
52,67,-102,-34,-11,-12,8,23,38,71
34,91,56,15,9,-31,-40,-44,-49,25
2,29,115,44,28,2,20,1,16,37
-65,-56,59,30,46,36,36,19,0,-3
-6,-14,-36,-92,-22,0,33,17,-16,8
26,-12,-68,-108,-65,-30,26,20,1,29
15,45,90,-11,-7,6,27,4,23,4
58,148,181,38,17,26,31,30,81,46
32,57,110,0,-9,3,4,40,40,26
-11,-26,45,-18,-3,-15,5,22,0,-1
-8,-13,9,-7,28,7,0,7,-5,-9
-98,-87,-10,37,66,6,-24,-28,-68,-75
-104,-83,-14,36,54,-17,-47,-68,-122,-90
62,107,10,4,16,-16,-32,-34,-22,33
107,148,52,53,39,5,6,23,81,102
23,42,46,50,23,-43,-70,-41,-25,-9
-47,-72,-16,-6,-36,-85,-87,-54,-56,-62
27,5,-1,-43,-84,-106,-64,-53,-26,-15
46,-2,-57,-95,-122,-113,-72,-12,14,31
-11,-107,-98,-48,-83,-53,-23,55,60,47
-53,-72,48,131,81,42,17,0,-3,-29
6,35,53,145,95,74,78,25,59,21
13,50,-33,92,74,53,25,-13,-3,5
-57,-28,-24,38,115,29,-19,-62,-92,-66
-100,-98,11,48,130,39,-7,-60,-72,-75
-41,-23,17,23,58,5,-28,-68,-59,-30
-23,-20,-3,-26,0,-17,-33,-53,-42,-25
-2,-18,0,-60,-60,-8,5,-25,-9,1
13,-18,0,-73,-54,5,24,0,30,25
40,-5,11,-33,-17,17,23,29,59,59
55,-19,3,0,6,17,18,26,24,63
61,1,4,6,11,8,26,17,34,51
59,25,70,20,9,7,5,-5,19,27
61,60,91,31,-20,-20,-30,-39,-19,2
48,37,42,8,-41,-31,-21,-31,-9,0
58,-11,-34,-56,-39,-9,27,28,70,72
14,-25,-24,-39,-28,1,13,34,63,47
-50,-62,7,17,-2,-20,-44,-17,-46,-38
-47,-60,18,30,2,-45,-81,-77,-118,-94
80,71,55,-17,-46,-28,-45,-38,-23,-6
25,45,59,16,-7,31,-11,5,8,-5
-53,-36,54,58,3,63,6,35,2,-27
-60,-59,51,75,-21,12,-38,-2,-47,-45
-31,-1,47,58,-80,-75,-103,-72,-83,-70
-38,9,-6,50,-47,-81,-114,-112,-111,-109
-53,-25,-51,13,11,-31,-55,-60,-83,-92
-37,-21,-17,-57,10,3,-38,-33,-75,-69
-20,-55,-51,-134,-2,35,13,23,19,-26
-23,-69,-47,-36,53,55,35,36,44,-22
-55,-35,-70,51,83,29,0,7,-50,-62
-19,2,-98,36,68,21,-15,2,-69,-71
144,174,7,17,30,15,22,35,83,52
108,123,37,44,68,44,68,83,141,71
-10,-13,23,83,90,47,46,27,49,-17
-73,-107,-14,56,67,5,-6,-31,-76,-75
51,19,1,-13,-26,-52,-59,-33,-87,-3
64,37,5,-52,-47,-54,-46,-16,-49,-2
-19,-36,-28,-42,10,8,8,-6,2,-33
-16,-12,-24,-25,28,42,28,5,49,-27
80,106,36,-50,-5,21,65,43,134,66
65,58,7,-69,-24,8,80,74,119,96
38,-20,-25,-71,-53,4,34,54,88,70
44,34,28,-44,-43,10,29,47,100,52
11,35,-32,-32,9,23,33,29,57,10
-23,32,31,62,69,35,-4,-44,-37,-51
-36,65,178,129,80,16,-49,-101,-91,-77
-61,38,60,112,30,-19,-57,-125,-105,-95
-94,-55,-62,22,-40,-66,-77,-111,-98,-101
-120,-72,43,9,-93,-102,-103,-122,-134,-100
-108,-19,150,58,-105,-102,-113,-129,-141,-96
-91,-72,51,42,-89,-68,-63,-68,-60,-41
-41,-69,-70,10,-28,-9,28,22,31,33
-38,-44,-119,-3,26,32,50,51,21,32
-8,0,-108,-30,52,67,94,78,92,64
33,55,-89,-64,69,83,122,104,143,113
47,7,-147,-148,23,55,104,81,116,116
39,-8,-135,-151,-25,9,48,55,53,86
-56,-41,-92,-66,-23,-1,10,-3,-1,2
-52,-31,-33,-58,-47,-42,-34,-29,2,1
-1,11,27,-53,-73,-53,-26,6,31,55
25,-4,3,-74,-89,-64,-32,55,5,108
55,1,-25,-87,-60,-24,28,111,54,147
-30,-49,10,7,49,31,43,33,-65,19
-32,-37,-6,15,99,53,11,-2,-102,-28
49,56,18,-13,64,38,-7,15,-66,22
-34,-20,27,47,65,8,-28,0,-80,-26
-70,-49,20,76,40,-21,-30,-11,-79,-45
-2,8,23,55,-10,-33,-31,-17,-79,4
-22,-18,64,96,17,-26,-16,-38,-88,-7
23,43,73,46,-13,-40,-14,-22,-53,21
-17,-44,18,15,22,5,24,0,-35,-4
-45,-108,-3,-15,70,36,43,0,-48,-30
-34,-62,71,31,117,40,6,-45,-75,-50
-16,4,146,113,133,38,-27,-68,-103,-46
-11,8,111,92,74,4,-11,-63,-92,-48
-15,-40,-55,-61,-88,-56,5,6,-1,11
34,40,-117,-164,-178,-100,3,77,111,94
0,-2,-102,-119,-110,-81,-40,16,36,19
12,16,-88,-148,-116,-123,-135,-77,-81,-33
84,118,-30,-194,-168,-158,-170,-84,-91,-16
47,46,54,-105,-100,-103,-94,-26,-40,-10
-2,-51,55,-7,18,26,30,37,19,9
21,-54,26,-14,36,60,83,94,91,67
104,12,30,-4,-10,34,92,124,143,139
85,51,59,48,14,29,66,74,88,83
9,-9,7,25,17,26,29,21,-8,-4
-17,-70,-131,-4,-8,12,19,12,-14,-22
-51,-122,-245,-28,-61,-21,-26,-31,-33,-55
-45,-81,-160,-60,-114,-77,-84,-82,-64,-71
-56,-9,-24,-50,-100,-98,-128,-134,-115,-102
-137,-91,24,-31,-44,-66,-106,-124,-116,-153
-120,-151,-30,3,6,2,-39,-27,-19,-99
-25,-60,-122,70,41,51,16,19,29,-14
65,43,-70,142,63,83,57,59,55,50
45,10,1,176,60,75,62,56,49,24
2,-21,6,129,23,18,30,8,9,-19
-8,-15,31,96,3,4,9,0,22,-21
-3,-19,49,76,29,37,26,23,54,-14
-10,-30,64,119,111,94,57,48,41,-16
34,5,47,139,138,106,107,111,105,61
117,110,60,91,56,56,73,102,132,115
16,93,110,84,48,24,10,-5,-1,-15
-8,47,40,-53,-30,8,4,-16,0,-44
103,65,-96,-213,-134,-34,15,19,66,65
76,-9,-108,-194,-112,-22,12,13,58,64
36,-36,-85,-132,-99,-19,-21,23,60,56
-8,-24,-44,-79,-63,10,11,47,76,14
-34,31,2,-61,-26,24,39,-2,7,-64
-20,15,-4,-111,-33,13,20,-21,-27,-59
-16,-57,-43,-95,-10,34,33,12,0,-9
44,13,-1,-52,-8,30,21,35,35,38
61,46,20,-20,1,10,7,39,39,51
10,19,60,53,41,7,-16,-8,-19,-8
13,72,87,71,52,-7,-37,-33,-13,-14
16,76,91,104,55,-4,-36,-37,-5,-8
10,58,68,173,75,3,-2,-57,-46,-24
48,131,84,180,57,-6,-32,-56,-49,-21
0,102,111,80,1,-10,-38,-54,-62,-74
-98,-78,-23,-44,-57,5,0,-18,-50,-77
-42,-93,-93,-135,-96,-3,21,15,27,-1
-43,-61,-100,-111,-83,-27,-29,-32,-5,-24
-40,17,-63,-64,-90,-60,-52,-55,-10,-47
-24,27,-22,-81,-118,-75,-47,-61,-5,-34
-31,-21,65,-71,-94,-54,-68,-65,-36,-39
1,33,198,-16,-25,-34,-45,-58,-44,-16
38,90,221,25,45,20,-21,-49,-51,5
64,100,144,32,92,40,15,-25,-18,43
72,93,85,4,102,39,49,-8,-4,43
12,33,49,-28,58,37,82,36,28,34
-39,-124,-87,-52,33,28,100,65,62,39
-27,-142,-153,-13,18,0,66,26,38,39
-1,-69,-165,12,28,-6,13,-22,-14,12
-19,-56,-134,11,26,-9,15,-29,-27,-13
-30,-62,-80,29,29,-11,29,-15,-18,-24
39,-6,-97,-45,-2,2,58,27,42,30
64,-5,-115,-102,-30,-17,42,54,91,74
54,64,-37,-45,-19,-12,16,62,95,82
7,58,20,12,-17,2,-26,22,33,11
-71,-31,16,64,5,3,-50,-54,-79,-107
-16,-1,-11,-1,0,-9,-45,-46,-37,-58
-39,-88,-46,-14,3,3,-27,-14,0,-47
11,-15,-1,-1,-17,7,-29,-19,-11,-32
36,19,29,21,-22,-4,-37,-16,-27,-21
-6,-22,56,66,-11,3,-1,13,7,-21
29,23,91,43,-43,-13,-3,11,11,5
34,1,72,-13,-55,-26,16,31,59,9
-43,-51,49,63,63,20,60,29,78,-41
-32,-5,50,113,103,33,44,-32,39,-64
-29,-17,-6,45,47,35,44,-2,48,-30
-3,-27,-90,-52,-18,27,51,56,70,15
40,16,-95,-80,-85,22,70,98,132,69
75,125,-9,-25,-103,-11,51,46,108,54
8,47,-2,15,-68,-21,31,-6,36,-13
-48,-77,-46,32,-19,15,52,11,37,-5
-95,-131,-68,44,35,45,47,-16,20,-60
-101,-96,-50,38,54,19,-7,-95,-78,-144
-22,22,-17,1,-13,-62,-75,-129,-140,-113
-42,26,56,22,-27,-94,-145,-151,-203,-141
-51,11,86,0,-28,-52,-98,-59,-106,-87
79,73,123,71,0,32,-29,51,28,57
113,144,113,77,13,25,-13,50,53,76
6,45,33,118,66,71,36,61,48,1
-1,32,-81,225,168,144,119,109,105,23
138,161,20,182,175,128,134,133,153,136
99,94,88,111,167,114,97,76,89,77
46,57,77,46,139,121,74,38,39,25
0,4,-8,-72,9,50,41,25,5,1
-10,-34,-89,-193,-134,-25,23,52,33,29
-3,-7,-40,-166,-158,-34,33,76,62,31
-19,11,29,-85,-106,-21,20,67,42,10
42,79,19,-77,-70,0,26,52,44,32
79,66,-5,-19,18,36,32,17,-5,19
50,52,8,8,54,32,50,36,27,30
-16,-6,1,10,40,6,17,24,-32,-2
-38,-48,44,42,25,-22,-10,6,-35,-7
-32,8,122,103,29,-46,-79,-32,-58,-11
-53,35,136,107,29,-30,-87,-44,-76,-38
-35,62,116,11,-27,-36,-25,52,57,25
-62,-28,-8,-51,-45,-47,-16,67,66,24
-39,-41,-118,-142,-30,-19,-27,10,-3,19
29,20,-101,-193,-50,-18,-26,9,-4,41
1,2,-57,-73,-33,-22,-21,18,8,24
-41,-24,-37,17,-33,-32,-38,-15,-32,-18
-78,-63,-76,40,-33,-44,-53,-33,-57,-48
-67,-43,-26,28,-2,-29,-32,-34,-33,-28
5,27,79,-16,-13,-36,-26,-47,-30,18
31,15,95,-32,-18,-36,-22,10,-18,59
24,-46,13,-29,20,4,7,74,74,85
-28,-72,-44,-1,74,45,25,51,79,42
-74,-96,-128,33,81,49,11,8,20,-26
-66,-58,-156,35,58,18,-19,-27,-27,-49
29,72,-26,-7,-9,-19,-55,-34,-20,-5
36,137,21,-22,-72,-56,-94,-39,9,16
-41,35,0,-47,-87,-85,-105,-56,-9,-33
-148,-103,37,5,-31,-66,-76,-78,-107,-126
-26,0,105,-16,-40,-42,-52,-27,-34,-8
109,91,107,-46,-47,-4,-9,51,101,103
47,34,20,5,20,53,29,47,60,45
-72,-83,-56,53,65,70,13,6,-36,-58
-49,-77,-31,36,33,33,17,17,5,-31
48,53,22,30,12,-2,7,-4,43,19
27,29,-53,119,56,10,0,-30,27,-18
11,7,-56,176,63,28,10,-14,4,-25
-7,9,93,214,68,26,11,-15,-1,-25
-24,7,131,185,49,29,-9,-29,-34,-29
-39,-10,76,80,37,27,-8,-25,-60,-34
-71,-65,30,9,14,-11,-9,-5,-73,-46
-70,-63,22,-15,-9,-12,11,17,-10,-49
39,47,-31,-131,-101,-40,-15,-11,5,13
27,17,-62,-166,-131,-82,-29,-33,-16,27
-35,-41,-56,-121,-108,-89,-56,-48,-72,-13
-4,-42,-62,-95,-55,-26,-9,2,-16,7
12,-18,-25,-34,-14,9,16,3,18,9
-81,-59,-15,55,15,9,-21,-66,-77,-72
-106,-42,-28,52,-20,-28,-43,-82,-75,-87
-11,111,40,13,-83,-83,-46,-66,-18,-21
37,114,99,14,-73,-59,30,-33,55,13
91,73,99,-13,-62,-26,78,22,71,72
103,38,52,-14,0,46,130,90,105,105
41,-41,-4,41,117,117,167,100,116,82
40,-41,-37,43,119,90,114,60,58,64
43,-24,-75,36,97,50,49,35,40,36
52,-19,-39,54,73,34,40,29,0,24
53,-35,22,-11,-4,10,29,21,11,41
23,-82,-4,-54,-54,-10,26,32,19,55
28,-102,-22,-76,-59,-8,22,41,61,61
49,-56,-3,-70,-43,-7,-18,13,48,50
56,-3,-2,-90,-51,-28,-63,-13,-42,28
17,-24,-27,-99,-53,-35,-34,6,-20,30
19,3,2,-43,-30,-8,42,56,87,62
-35,-18,27,13,17,21,35,31,63,21
-53,-52,8,25,34,13,-14,-14,-13,-23
-26,-21,-29,58,34,-18,-57,-52,-98,-50
-17,9,-7,84,31,-4,-12,-55,-55,-36
-29,2,-8,73,28,24,8,-54,-23,-26
-37,-34,-43,6,-20,-7,-28,-46,-29,-22
-76,-78,-40,-25,-84,-77,-71,-40,-57,-50
-85,-56,-3,21,-52,-74,-74,-49,-53,-80
-90,-39,98,69,-14,-96,-102,-98,-97,-103
-81,-58,132,67,7,-80,-98,-78,-95,-85
21,48,158,46,24,-43,-55,-32,-62,-13
80,72,47,6,49,-7,-14,3,-31,31
110,81,-133,-59,2,0,5,38,57,73
81,23,-78,-64,-35,-9,11,45,84,82
3,-69,4,-21,0,-17,2,4,7,20
-14,-75,2,-11,14,-4,-15,-21,-44,6
-24,-42,17,42,95,29,-20,-63,-67,-39
-24,-4,11,42,90,9,-24,-89,-80,-84
-75,-46,70,105,49,7,17,-83,-67,-123
-27,6,59,45,-25,-22,15,-63,-33,-87
1,16,-13,-92,-78,-41,-15,-22,-8,-41
24,9,-27,-115,-55,-21,-9,35,3,11
21,-2,-65,-56,-12,8,0,18,-16,-7
77,97,-143,-56,-35,21,4,7,39,17
67,112,-68,-43,-14,17,17,-15,21,-9
-9,-12,-13,-13,27,30,52,11,12,-52
-49,-122,-23,18,51,66,96,72,54,-20
17,-51,4,1,37,58,97,70,86,32
66,58,28,-11,55,73,116,106,138,60
90,140,74,-23,31,48,66,85,103,55
50,62,48,-22,-1,12,4,16,-13,20
-4,-16,-2,56,31,19,0,-9,-17,-3
-22,-15,5,122,66,47,4,5,29,-6
-21,-17,51,96,65,54,-13,0,9,-23
-1,20,81,61,58,35,-36,-28,-36,-39
-2,7,3,-42,20,9,-50,-21,-56,-25
5,-12,-67,-132,-47,-26,-42,-11,14,4
29,-9,-58,-139,-87,-55,-43,15,81,55
11,-28,-22,-77,-19,6,11,54,95,47
-19,-9,101,45,81,48,-2,0,-14,-13
37,100,182,38,55,16,-32,-31,-36,7
43,92,160,-22,-10,14,-23,6,39,46
3,26,70,2,-6,14,-18,-1,-1,20
33,68,-2,-4,-13,-16,-24,13,0,36
5,43,-81,1,-36,-18,5,51,75,37
-28,-32,-196,15,-21,-4,-2,12,22,-10
-23,-55,-151,-14,-14,-18,-20,-17,-50,-9
-43,-56,-65,-20,-20,-20,-10,-10,-61,-18
-60,-8,-15,11,-4,-11,-5,-43,-54,-36
-10,33,-29,12,-36,-37,-28,-31,-12,6
-39,-38,-50,-4,-74,-60,-32,-8,13,1
-116,-93,-83,-18,-71,-73,-91,-80,-64,-85
-137,-94,-50,-27,-66,-59,-113,-123,-129,-119
-108,-28,119,-1,-61,-51,-116,-108,-136,-105
-90,20,293,51,-51,-36,-88,-77,-131,-95
-98,27,264,104,27,20,-23,-56,-101,-103
59,148,135,66,20,32,34,-14,18,34
64,31,-55,12,32,68,73,51,99,104
25,-48,-118,-13,44,55,59,67,58,70
13,-43,-164,-4,36,24,18,23,29,33
-10,-28,-144,59,44,16,12,-25,-18,-12
-31,-14,-6,67,44,-2,-18,-34,-71,-37
-12,-4,14,-14,7,-21,-21,-15,-32,-10
34,28,3,-95,-66,-27,-30,9,28,50
44,78,21,-73,-77,-38,-33,7,50,64
20,46,-8,-3,-25,-7,24,24,46,57
11,-8,-45,21,38,41,73,46,9,68
6,-52,-72,-46,23,47,70,52,13,71
87,10,-45,-138,-49,5,30,56,28,120
24,-58,-34,-132,-45,-10,1,39,4,61
-72,-101,-27,-70,-45,-29,-51,-45,-99,-54
-99,-75,-6,-52,-78,-91,-125,-132,-189,-124
-89,-80,40,-17,-54,-103,-118,-111,-173,-108
-45,-61,96,29,16,-45,-48,-2,-35,-27
-5,-28,100,63,100,40,31,53,39,39
39,19,79,104,169,88,40,45,-1,48
46,10,2,99,149,66,32,36,-10,51
37,-47,-96,-20,63,42,38,45,21,63
35,-36,-157,-120,11,22,49,60,53,64
47,-31,-117,-76,15,18,54,60,46,74
44,-54,-55,1,36,33,67,75,87,80
56,-9,-50,3,-5,3,61,68,112,88
-3,-51,-84,-59,-102,-105,-64,-63,-39,-8
-89,-113,-69,-52,-108,-131,-105,-142,-137,-106
-61,-76,-2,-51,-69,-67,-42,-93,-92,-74
-16,-24,65,-18,-40,-6,-9,-6,-23,-10
41,33,85,25,6,33,44,43,34,42
119,114,54,24,26,58,83,55,50,86
149,143,-29,-23,25,64,109,93,121,134
41,11,-101,-45,67,87,100,83,92,75
-8,-13,-42,0,86,68,72,27,4,15
-3,-8,-20,56,99,46,77,-6,-32,-13
-3,-8,-59,72,71,39,68,11,-4,-1
-4,-15,42,84,58,38,57,35,23,14
52,59,93,50,23,23,34,15,26,37
23,34,49,36,40,25,30,9,0,6
19,32,44,38,46,28,36,36,11,28
-9,4,77,77,83,42,-6,-11,-32,0
8,43,119,109,50,17,-52,-39,-29,-7
-12,25,115,117,42,9,-44,-32,-19,-14
-86,-90,1,49,56,26,-13,-12,-26,-63
-17,-24,-53,-71,12,19,-1,11,9,-12
95,82,-57,-169,-53,-30,-14,34,56,65
13,25,-39,-83,-18,-51,-25,2,38,-2
-24,28,-22,-33,-18,-58,-55,-49,-4,-62
-26,6,-37,-89,-84,-97,-58,-53,-24,-61
-61,-61,-52,-56,-70,-72,-28,-16,-11,-56
-90,-97,-59,12,-4,-32,6,-17,-27,-77
-44,-97,-36,-25,-19,-4,39,41,30,-16
64,16,-33,-64,-39,3,29,75,95,59
102,112,0,-31,-7,-24,-4,14,42,29
36,92,28,30,0,-38,-36,-41,-40,-43
-23,9,42,87,6,-14,-16,-33,-41,-52
7,2,18,56,-32,-37,-21,-8,0,15
6,14,2,-9,-47,-44,-27,-25,-31,-10
-8,7,-26,-75,-53,-53,-54,-50,-66,-54
-18,12,-21,-59,-51,-31,-47,-42,-49,-46
9,18,1,-48,-30,-14,-4,15,-1,0
30,41,11,-30,-16,10,30,47,36,0
13,-22,-29,-21,-6,35,31,43,22,-3
-5,-36,-24,25,66,63,19,2,3,-14
-13,8,48,87,96,32,-21,-68,-8,-69
22,45,65,54,29,-36,-39,-73,8,-48
45,17,-4,-40,-54,-62,-38,-32,31,10
-9,-81,-68,-66,-83,-52,-15,5,52,0
34,19,7,35,-62,-30,10,25,91,25
100,157,149,161,-23,-29,2,20,107,55
54,54,109,151,-8,4,18,29,78,29
-20,-8,81,126,71,38,17,-16,-7,-61
-30,0,70,34,57,22,-9,-45,-68,-92
-14,-8,28,-70,-13,-18,-29,-37,-92,-68
42,39,8,-115,-35,-27,-40,-20,-60,-18
48,25,-47,-168,-43,3,11,26,-8,2
42,4,-111,-194,-58,24,69,59,69,27
5,-34,-87,-95,-23,10,57,18,8,-10
26,59,10,-39,-10,-22,10,-41,-47,-40
27,69,60,-21,0,-1,25,-18,-12,-29
25,41,89,-17,0,5,60,35,65,12
12,17,118,-15,-7,10,65,51,83,32
22,8,58,-9,15,43,58,56,63,48
42,21,16,63,34,74,63,75,63,62
57,64,1,56,-19,38,40,59,94,63
-4,-18,-186,-27,-65,-11,-8,20,46,28
-60,-70,-209,12,-18,7,-12,-2,0,-35
67,75,-52,-12,-51,-22,-55,-41,-56,3
141,116,-72,-79,-70,-39,-31,1,13,97
14,-31,-146,0,25,10,-8,18,14,40
-64,-59,-30,125,57,28,-13,-8,-55,-23
-57,-4,41,185,66,40,-27,-26,-30,-30
44,70,60,47,-30,-23,-61,-48,-19,17
42,1,-11,-68,-65,-28,-46,-27,-8,38
-11,-43,-52,-66,-14,0,-29,-47,-67,-18
-6,26,-68,-89,-17,-9,-41,-73,-52,-48
-60,-25,-102,-67,-33,-22,-62,-70,-56,-49
-108,-115,-67,-28,-35,-31,-47,-57,-22,-37
-103,-107,0,-19,-59,-74,-73,-80,-48,-51
-108,-112,13,-4,-48,-86,-91,-108,-94,-88
-90,-108,-27,-36,-64,-93,-90,-81,-94,-74
-111,-119,-70,-17,-59,-81,-91,-56,-110,-76
-56,-14,123,22,-44,-49,-65,-39,-65,-36
-9,35,244,15,-29,-23,-8,-15,-4,3
-21,-19,184,76,30,15,65,37,23,10
76,17,38,95,74,82,145,143,133,109
183,175,25,76,116,145,200,214,254,213
157,191,29,106,125,137,169,184,217,180
78,75,6,99,80,84,85,123,83,107
21,-4,-17,31,38,65,38,97,27,74
1,-20,-23,-4,20,54,25,57,17,47
35,69,29,44,16,20,-10,9,22,43
37,77,81,54,16,33,-9,22,40,57
51,21,-1,-50,-35,25,11,74,79,107
37,27,-17,-80,-45,2,0,45,51,88
1,50,4,-42,-19,-21,-29,-19,-29,22
7,23,3,4,10,16,-7,16,-30,46
-31,32,77,138,105,75,11,0,-44,15
-49,36,134,223,148,71,-12,-41,-62,-35
-50,6,131,267,154,55,-39,-71,-94,-50
-16,43,65,171,72,6,-54,-83,-126,-38
0,14,-52,-31,4,11,-1,0,-22,8
-6,-78,-117,-238,-84,6,48,64,95,53
-18,-93,-125,-239,-125,-30,49,54,76,40
-28,-84,-84,-158,-80,-24,32,20,20,9
-18,-68,-54,-96,-51,1,40,19,10,14
10,-40,-21,-66,-38,-1,17,-1,-31,18
-8,-37,-13,-17,1,21,-14,-1,-18,14
-1,38,21,10,19,29,-3,34,37,28
-14,3,34,40,41,-1,-41,-23,-42,-5
-43,-16,31,51,29,-19,-66,-51,-73,-29
-114,-79,14,54,6,-31,-54,-52,-97,-66
-117,-116,10,21,-19,-21,-44,-46,-69,-73
46,35,-13,-79,-70,-28,-29,-2,42,59
59,9,-27,-112,-82,-42,-19,11,28,91
53,1,-42,-104,-83,-37,2,1,-5,59
39,14,-11,-61,-70,-31,-12,-12,27,39
-30,-24,31,15,-36,-29,-23,-28,-15,-11
-69,-90,-12,-22,-38,-18,-18,-5,-31,-12
15,25,-2,-71,-60,-28,-34,2,28,48
-9,44,-6,-36,-38,-34,-26,-62,-23,-9
-47,44,12,-25,-46,-59,-57,-133,-92,-74
-52,52,44,-5,-44,-66,-91,-125,-112,-85
-49,-3,21,23,-11,-21,-49,-65,-49,-35
-13,7,31,14,6,2,-20,-59,13,0
14,35,21,8,9,20,-23,-42,44,11
-3,-12,11,36,57,76,21,21,55,23
3,-9,32,47,56,90,47,64,80,45
-6,-24,24,29,22,66,29,51,100,36
8,-19,11,-1,-22,42,20,43,108,42
1,-6,17,40,20,50,95,84,127,59
-15,-23,22,71,49,34,73,39,61,29
0,18,23,52,29,3,25,-6,6,9
27,34,44,18,8,-5,9,22,45,36
-22,-27,20,20,46,8,13,6,-2,-17
-41,-53,-19,-12,11,-17,-21,-20,-72,-58
-30,-47,-29,-29,-39,-46,-32,-42,-49,-45
-8,5,15,1,-52,-60,-79,-82,-62,-47
-58,-34,-24,62,-16,-74,-123,-122,-136,-97
-65,-45,-60,94,13,-41,-86,-86,-64,-78
-29,8,5,114,19,-15,-39,-55,-27,-45
-16,14,55,127,34,18,8,-22,-4,-46
-4,36,-1,117,-5,20,19,-13,25,-34
-36,15,-50,142,-12,16,-9,-48,1,-70
-40,23,-19,107,-11,8,-33,-69,-29,-79
31,94,13,-18,-33,-1,35,7,49,21
63,35,-70,-166,-46,17,115,104,157,104
18,-53,-76,-196,-28,19,73,87,82,55
-7,-71,-26,-90,43,35,13,21,-17,-16
-16,-29,23,-24,47,-18,-64,-49,-53,-55
-41,-30,65,33,13,-64,-90,-61,-70,-69
-70,-82,96,90,35,-14,-13,-3,-35,-46
-1,-32,123,52,21,0,4,35,10,-1
87,59,26,-50,-22,-9,3,59,31,47
8,-58,-205,-29,48,54,65,106,79,35
25,-53,-275,-14,70,69,73,88,63,37
106,60,-143,-71,-4,35,41,62,56,68
60,70,-1,-45,-13,2,3,23,23,15
-58,-80,-41,-6,-6,-32,-17,-14,-56,-67
-68,-124,-98,-53,-85,-90,-74,-69,-124,-92
-74,-66,-37,-20,-92,-103,-114,-116,-168,-117
-45,0,51,23,-76,-105,-127,-135,-188,-120
-60,-38,108,73,-45,-66,-76,-66,-124,-80
-1,-30,186,116,-3,-17,-3,23,-27,-6
62,34,149,152,16,21,48,95,63,63
55,7,46,119,57,67,83,125,90,63
33,-23,-21,32,62,62,65,93,13,19
23,-16,-37,-10,60,63,74,102,22,12
70,59,2,-38,29,44,81,122,73,54
84,46,-9,-76,15,26,87,112,71,58
36,-38,-115,-110,48,64,118,116,54,50
54,-8,-99,-56,79,86,111,86,91,55
60,7,-42,-12,76,71,96,63,114,56
46,37,3,0,69,43,53,19,52,28
10,41,27,28,62,27,20,-15,0,-18
-3,13,20,23,12,-3,25,3,-22,-7
18,12,24,9,-26,9,70,43,41,26
-33,-54,0,24,29,27,71,30,42,-9
-5,-13,-18,-3,-4,2,44,-6,8,-5
51,108,44,-49,-37,-43,-18,-55,5,4
53,102,33,-50,-51,-31,-23,-16,45,21
72,126,52,-3,-37,-17,6,44,99,58
45,71,15,-12,-28,-14,12,50,96,50
-27,-47,-33,-36,-23,-1,-5,11,20,-26
-21,-4,-13,-39,-8,16,-4,-7,-11,-39
-36,-10,-11,-47,7,-4,-25,-25,-12,-39
-22,-16,-20,-42,-15,-58,-63,-37,-71,-39
8,15,-1,-42,-41,-72,-40,-39,-81,-27
-23,39,21,4,14,-33,3,-40,-52,-71
-39,25,25,59,73,31,40,-27,-16,-87
-23,-11,2,43,51,49,77,-3,37,-35
-19,0,-2,32,37,44,65,-3,27,-25
-29,10,17,37,14,27,41,-22,0,-40
-51,-16,7,4,-12,14,37,-11,-14,-40
-66,-48,-17,-56,-33,-23,12,-21,-41,-59
-2,37,23,-51,-45,-50,-16,-46,-78,-36
25,86,82,58,5,-11,7,-32,-19,8
-7,56,91,114,42,5,20,-24,-31,-10
-52,44,101,95,16,-29,-20,-55,-88,-75
-100,-13,74,52,-16,-56,-46,-80,-96,-119
83,185,15,-77,-88,-87,-67,-59,-3,10
101,103,-155,-156,-76,-59,-55,-16,21,50
20,-13,-120,-127,-32,-20,-41,-24,-38,-10
-62,-38,-57,-72,13,12,-27,-20,-51,-53
-34,17,-8,-58,18,44,18,37,73,4
-16,13,46,5,17,32,8,36,55,0
-57,-63,32,89,37,5,-12,-11,-23,-48
-15,11,114,150,25,-3,-35,-35,-37,-31
3,26,144,139,16,16,-5,0,13,11
-51,-78,62,86,48,64,65,58,44,10
-30,-32,11,21,34,41,54,21,-34,-22
8,58,34,-40,-22,-31,-25,-71,-96,-64
-34,26,-8,-39,-39,-48,-58,-95,-81,-94
-56,-62,-97,-80,-75,-44,-51,-37,-33,-77
-38,-116,-126,-83,-75,-32,-33,23,-5,-36
2,-52,-75,-44,-6,4,-28,0,-40,-29
37,33,-52,-80,1,5,-17,-17,-31,-23
-30,-71,-127,-54,37,16,7,28,-11,-25
6,-63,-126,8,68,24,28,49,26,11
31,-29,-66,50,60,34,46,45,47,29
7,-31,1,111,71,41,36,20,26,7
-2,-15,19,119,85,28,11,-17,-54,-22
-13,-34,-72,81,93,13,-23,-42,-71,-22
6,-1,-122,33,80,10,-27,-51,-30,-15
13,54,-17,16,53,1,-53,-44,-23,-9
-1,23,10,-29,39,21,-13,-5,-2,5
-11,4,-15,-40,12,4,15,42,35,20
7,48,-1,-64,-79,-79,-39,7,60,23
-29,-11,-39,-139,-153,-114,-80,-52,-26,-32
8,-40,-33,-176,-158,-82,-41,-1,-6,-9
40,-4,60,-116,-81,-22,-8,40,28,24
54,26,100,-58,14,34,43,85,101,67
42,37,66,30,71,49,57,67,73,51
3,22,-45,43,66,14,-1,15,-22,-4
-69,-65,-90,2,8,-76,-88,-68,-113,-75
-113,-99,-55,-44,-54,-141,-108,-113,-109,-97
-113,-65,15,-80,-69,-124,-73,-97,-110,-103
-83,-14,72,-76,-42,-54,-29,-70,-94,-101
120,209,105,-85,1,28,50,5,16,41
211,202,14,-84,34,98,148,111,142,179
89,-2,-67,-51,33,90,144,126,120,137
32,-3,-24,-1,25,74,139,131,137,109
15,15,16,26,26,63,86,87,95,69
26,3,43,12,-1,16,4,27,39,39
37,-33,10,4,-5,15,7,37,29,60
16,-40,15,19,0,18,-6,19,8,48
24,-7,46,15,-8,18,-11,-8,4,32
27,-6,26,19,7,47,46,23,17,42
19,-25,-48,1,19,53,78,65,53,59
-22,-64,-35,9,16,43,62,68,59,51
-52,-72,6,57,30,12,-9,-21,-25,-11
-18,-15,43,41,12,-21,-45,-41,-39,-5
-11,3,37,12,-19,-35,-51,-36,-60,-6
-10,10,17,4,-20,-37,-36,-27,-36,-6
-27,-46,-66,28,25,-9,-36,-2,15,17
-48,-68,9,48,34,27,-35,0,3,2
29,63,86,124,14,-25,-65,-81,-50,-11
-17,-21,28,55,-23,-32,-45,-3,53,19
-51,-100,-59,-20,10,7,-1,22,-2,-31
-58,-106,-71,-48,9,8,-15,3,-52,-58
-11,-22,-132,-127,-43,-38,-43,-35,-29,-36
-3,-8,-237,-141,-77,-85,-60,-54,-41,-40
-12,-47,-150,-58,-88,-90,-59,-32,-57,-22
-8,-89,-7,-25,-73,-52,-51,7,-53,7
22,-55,68,5,-26,-24,-16,30,-34,34
59,8,60,38,21,8,22,35,-19,59
55,53,33,59,30,19,30,13,1,68
17,55,91,89,31,-1,11,-47,-30,27
22,52,78,44,50,-4,13,-43,-61,18
12,26,48,49,74,34,57,31,24,42
64,94,68,41,33,41,79,65,125,101
55,51,21,12,0,15,56,31,61,85
-53,-103,-115,32,40,23,49,4,16,20
-43,-81,-92,45,41,25,23,-4,0,11
76,93,60,17,-14,-9,-37,-34,-8,51
29,56,81,23,1,-28,-72,-54,-44,-5
-64,-73,47,54,8,-10,-45,-40,-34,-42
4,-11,23,30,-17,-5,-29,-31,8,26
78,59,-33,-22,-40,-18,-21,-31,0,69
15,-26,-56,-41,22,-1,7,-27,0,42
-16,-35,-34,-48,26,-6,15,-28,9,17
-34,-40,-27,-37,18,-19,26,-14,15,-5
-23,-51,-18,21,39,8,36,13,-10,23
-28,-10,69,93,64,11,-4,-27,-70,1
2,44,78,87,56,20,13,16,23,49
28,38,29,37,11,14,33,59,91,81
14,-17,-58,-49,-20,-9,0,35,54,58
-6,-24,-115,-75,-36,-39,-3,-13,25,36
-70,-72,-151,-1,4,-20,-2,-42,-35,-43
-77,-46,-54,30,41,-4,-1,-60,-59,-65
-96,-59,65,37,22,-36,-21,-60,-92,-82
-75,-60,120,19,-14,-39,-12,-37,-115,-69
18,24,87,29,-34,-39,1,-22,-89,-15
41,48,88,87,3,-8,20,-23,-50,4
65,30,8,20,0,-21,34,-5,33,37
44,-20,-74,-64,-26,-48,18,-14,29,38
-8,-33,-95,-100,-45,-61,-53,-64,-89,-30
-25,-58,-117,-147,-31,-9,-26,1,-7,-9
-23,-44,-111,-109,-29,-4,16,27,34,12
-19,-15,-62,-48,-17,-3,0,-5,0,0
2,0,23,-28,-25,-9,-55,-17,-28,7
32,19,49,-3,-13,-1,-45,-2,-1,25
-4,-15,47,32,55,50,-11,17,32,2
-37,-18,25,13,50,44,-19,4,-20,-30
-87,-47,-20,18,-12,-32,-82,-50,-75,-56
-119,-91,-31,59,-12,-55,-113,-69,-87,-70
-107,-45,90,139,41,-30,-95,-87,-90,-94
-55,9,195,131,38,-23,-48,-77,-78,-74
-14,4,135,41,-5,-11,11,2,-6,-2
42,4,6,-32,13,60,95,101,81,78
70,45,-50,-55,23,70,113,113,87,87
56,79,47,14,-1,15,56,49,16,44
27,108,182,19,-37,-34,-9,-23,-43,-20
-17,69,151,-5,-26,-11,7,-18,-10,-34
78,114,69,-60,-19,34,72,82,132,87
138,93,-28,-164,-53,36,84,165,209,184
52,-55,-122,-170,-5,44,72,143,140,120
6,-18,-72,-74,44,37,-15,20,28,10
-34,0,-62,-11,34,0,-47,-40,-36,-63
-67,-81,-96,-19,8,17,-22,3,4,-47
-14,-20,-92,-77,-29,-5,-59,-10,-6,-23
-30,76,-6,-46,-15,-23,-87,-87,-68,-89
20,130,33,-31,-2,7,-50,-12,53,-22
77,66,11,-60,-18,19,-12,52,118,65
58,10,36,-36,-18,-5,-27,26,34,53
67,43,76,22,42,33,-6,35,34,44
48,16,30,18,64,74,42,79,93,53
-41,-59,2,32,78,83,36,57,44,3
29,21,7,12,20,33,10,53,53,47
121,146,65,53,-3,-20,-29,3,34,69
51,90,87,80,2,-38,-76,-66,-40,-19
18,12,48,22,-21,-23,-8,-8,8,13
-3,-19,19,-6,-14,-20,-3,24,-1,13
-28,16,33,-11,11,14,-10,4,-15,-20
-25,18,10,-16,39,61,35,-4,8,-23
11,47,-19,-18,40,33,29,-6,38,4
-5,36,-17,43,36,-2,-3,-32,5,-25
-79,-61,-86,97,85,28,-1,-58,-34,-81
-38,-5,-72,73,54,45,-11,-30,17,-30
-13,49,22,34,32,47,-14,-14,20,-8
-7,34,0,-46,-20,23,-18,1,28,14
-7,-6,-84,-104,-93,-38,-42,-8,0,6
-54,-30,-115,-89,-117,-71,-105,-102,-96,-88
-78,-13,-9,-35,-79,-73,-108,-114,-100,-116
-44,81,193,39,-43,-57,-94,-72,-87,-84
-10,109,305,62,-17,-32,-33,-10,-62,-39
44,118,261,63,18,20,17,50,28,31
109,163,163,77,45,61,30,59,89,62
128,131,24,33,-6,48,8,54,101,79
60,2,-82,-1,-10,43,8,49,43,53
34,-19,-102,-3,24,61,5,40,16,31
8,31,-22,59,57,59,-20,-7,-18,-32
-41,8,12,108,85,68,4,-22,-40,-63
-19,29,37,115,36,41,-3,-24,-53,-38
-15,67,45,77,-29,-20,-14,-34,-81,-35
26,61,-15,-14,-6,-8,31,3,-58,34
23,-10,-117,-73,36,24,46,40,-43,52
-37,-90,-207,-122,33,11,36,51,-34,24
2,-43,-268,-194,-33,-29,46,75,31,60
-21,-48,-291,-125,-12,-14,86,94,104,54
-14,-74,-234,-78,-3,15,87,84,45,62
20,-53,-60,9,4,21,62,43,-11,71
-1,-36,0,76,18,1,41,11,-53,35
-15,-21,4,78,9,-9,35,9,-46,14
-29,-31,27,83,12,-4,5,-18,-58,-12
-20,-33,27,41,1,3,-24,-21,-63,-3
26,9,27,-50,-53,-4,0,42,27,58
34,20,-8,-132,-86,-40,-27,26,3,58
27,-16,-57,-153,-76,-32,-16,18,-22,37
20,-41,-49,-91,-45,-3,-8,39,6,45
-16,-37,-17,-28,9,15,-15,3,-28,0
-54,-47,-24,-12,-5,-16,-78,-69,-99,-59
-65,-52,-27,-32,-64,-60,-109,-94,-115,-70
-54,-41,27,-35,-74,-56,-60,-43,-53,-42
-54,-37,84,-21,-49,-17,-46,-32,-47,-49
-50,-44,105,-1,-2,14,-18,-12,-41,-55
0,-29,49,4,29,41,46,51,21,27
74,57,12,15,23,42,53,57,41,77
62,55,-9,62,52,31,38,47,33,42
19,4,-32,98,89,38,41,35,24,11
-13,-6,52,143,91,46,39,15,-13,-31
-1,52,115,146,54,32,54,12,11,-32
3,90,66,59,-14,20,61,40,48,0
9,24,-11,-28,-72,-11,45,23,29,9
0,-5,23,-16,-73,-35,15,-10,-15,0
-60,-48,48,69,7,-7,11,-21,-58,-48
-62,-54,16,89,49,25,17,-19,-54,-44
16,14,10,28,-3,10,0,-5,-19,6
8,26,5,10,-20,-38,-21,-42,-24,-4
-52,-26,-97,29,-8,-40,-42,-75,-57,-56
-60,-40,-144,18,-20,-23,-73,-55,-54,-57
-42,-59,-147,-22,-63,-35,-53,0,-19,-14
-18,-59,-147,-67,-98,-27,-27,48,54,27
-9,-42,-17,-28,-52,10,1,49,47,20
13,20,14,14,-9,10,-3,13,10,8
35,80,52,6,-8,-17,-31,-26,-38,2
20,60,107,-3,-2,-23,-25,-16,-33,3
-6,20,93,16,4,-19,-31,-9,-5,7
-16,-2,79,49,12,-16,-22,-10,-8,-9
-37,-32,60,84,31,7,-33,-30,-33,-45
-23,-27,54,61,-2,0,-55,-32,-15,-29
-12,-14,60,16,-14,-21,-52,-47,-14,-25
-42,-26,43,-21,55,-8,-33,-73,-50,-75
-104,-96,13,15,137,47,1,-32,-20,-96
-26,-4,40,53,141,74,57,44,99,12
130,222,135,48,61,16,28,-3,71,63
-2,94,96,47,48,-14,-11,-91,-58,-62
-112,-129,-32,6,15,-27,-16,-40,-41,-63
-11,-34,56,6,-55,-47,-21,-5,9,28
51,58,129,27,-74,-24,-21,-4,14,51
40,28,76,-23,-79,-8,-3,13,37,57
25,5,-48,-57,-37,6,-10,20,33,37
-16,-58,-190,-114,-20,-11,-16,3,-5,15
-48,-137,-234,-172,-45,-45,5,6,-10,7
-79,-141,-175,-99,-13,-72,-45,-47,-54,-45
-47,-35,-10,13,-4,-63,-96,-104,-94,-64
-31,2,96,80,-16,-34,-87,-67,-45,-22
-34,-7,157,118,9,-12,-70,-50,-30,-20
-15,20,145,83,45,36,-16,-6,0,1
14,60,114,55,49,39,0,30,46,25
59,35,37,-26,21,14,-7,29,19,38
47,-47,-71,-78,22,52,55,65,48,59
-32,-156,-139,-104,29,68,78,91,74,44
9,-79,-85,-104,-4,31,45,57,59,52
25,-33,-40,-96,-44,11,50,37,48,45
14,-35,-99,-103,-64,-23,50,34,32,27
40,42,-119,-44,-44,-18,54,25,22,26
24,17,-13,34,27,35,73,19,-11,9
56,15,47,53,8,29,68,42,26,55
10,-32,47,94,19,30,46,33,2,31
53,-12,50,73,12,24,48,42,25,55
73,-14,19,5,-3,15,49,44,32,77
51,-9,6,-50,-4,-5,14,0,-15,38
34,9,20,-77,-21,-1,-6,-19,-33,21
0,-34,4,-62,2,36,21,0,-15,21
5,-37,11,-16,22,31,23,-15,-38,0
25,-17,4,-34,-2,-7,33,-7,-23,8
17,-32,4,-40,-4,-10,56,24,18,17
-36,-42,91,84,45,17,18,0,-20,-24
-40,-22,144,152,63,34,-8,-7,-37,-33
-19,-8,127,116,53,28,-20,-19,-42,-26
-27,-16,79,91,51,37,-8,-26,-3,-26
-21,-26,21,83,55,41,19,-7,23,-7
7,-12,-82,-33,0,12,22,6,55,7
15,-1,-199,-118,-45,-32,-24,-2,68,6
-5,-10,-106,-98,-45,-29,-25,10,69,21
5,0,7,-28,-11,2,-20,1,73,16
18,8,36,-8,2,22,-11,-2,81,28
19,29,24,-48,-4,7,19,41,105,61
26,78,60,1,29,-1,22,54,86,47
34,110,53,1,19,9,11,53,95,42
38,82,22,-24,-15,-3,-19,17,82,37
-2,72,38,-13,-21,-22,-65,-58,-17,-26
-82,-61,-5,18,6,-15,-11,-66,-47,-74
-37,-92,-81,-15,-10,0,26,4,50,12
61,61,-24,-35,-35,-1,10,11,75,69
-24,51,5,23,6,14,13,-1,27,9
-162,-121,-72,43,-13,-51,-64,-65,-101,-109
-118,-119,-121,1,-55,-95,-125,-128,-150,-118
-17,1,-109,-12,-64,-75,-94,-104,-89,-48
-30,-20,13,15,-28,-35,-64,-74,-70,-55
-28,-26,105,11,10,-7,-27,-46,-58,-39
-43,-48,64,30,45,23,4,0,-5,-25
-1,11,-53,13,34,30,36,48,53,22
92,150,-133,2,-51,-21,0,45,49,76
33,81,-6,18,-98,-72,-47,0,17,19
-33,-10,99,61,-75,-56,-50,-40,-50,-47
-21,28,197,129,-17,-7,-32,-52,-55,-39
18,39,146,128,42,44,22,10,31,13
44,26,14,102,65,74,69,63,67,48
79,52,-26,30,63,65,72,75,49,68
72,80,18,-55,48,69,79,78,79,69
11,26,64,-73,29,49,52,46,36,21
16,-1,33,-19,26,21,26,17,0,19
89,72,83,4,13,18,25,14,16,56
66,53,85,13,37,48,23,15,-2,37
28,-12,15,-44,10,39,29,33,-1,44
1,-69,-78,-84,-48,-12,16,34,-6,60
-8,-64,-88,-54,-69,-42,-7,37,-17,42
19,-19,-84,-52,-63,-28,15,62,21,52
-23,-83,-90,-2,-3,-2,13,20,-45,0
9,-26,0,23,6,-8,-2,1,-65,-14
26,26,47,-12,-21,-49,-13,-11,-64,-11
-26,-37,2,-45,-35,-35,7,-18,-70,-42
-26,-36,-3,-57,-45,-19,-7,-6,-84,-30
16,-12,17,-64,-42,-19,-14,1,-42,10
28,-3,11,-82,-39,-16,-9,11,-15,18
5,-26,51,-33,-14,-5,6,-2,-32,-9
26,31,196,61,24,29,65,25,18,21
39,25,194,109,31,58,97,54,94,50
55,20,131,94,26,44,76,32,59,34
59,9,18,64,88,67,81,32,10,21
24,-42,-75,71,114,83,79,29,-31,9
8,-55,-95,39,55,51,61,26,22,12
17,-39,-117,-39,-34,-24,12,16,47,17
-5,-70,-136,-90,-56,-45,-8,17,44,-6
-7,-77,-103,-57,-27,-34,-22,4,14,-21
-11,-53,-42,26,-6,-26,-31,0,-20,-45
-61,-97,-20,88,2,-14,-32,-26,-36,-92
-10,-34,-55,33,-61,-39,-40,-51,-33,-51
91,89,-41,-21,-101,-69,0,-17,18,30
81,124,45,11,-37,-34,37,32,55,32
90,176,141,5,-7,8,53,37,66,16
44,54,131,18,34,50,46,10,9,-12
21,-26,77,46,60,82,43,25,6,6
3,-61,3,36,46,77,44,46,20,9
46,-6,-20,-18,-8,42,17,24,42,25
79,42,-31,-44,-44,9,-11,19,17,31
89,48,-38,-17,-39,4,-14,33,-11,23
24,-6,-68,4,0,-6,-31,2,-81,-35
-37,-94,-106,9,32,-10,-35,-9,-95,-58
78,73,-47,35,14,-16,2,3,-3,17
53,89,-2,110,27,6,0,-17,14,3
-33,15,85,193,89,61,3,-10,-16,-56
-13,-49,0,87,58,51,17,17,-21,-22
3,-10,-18,-43,-6,10,0,1,-42,-22
64,104,-21,-84,-65,2,12,5,12,3
44,11,-154,-74,-65,19,33,24,57,17
30,-31,-99,-50,-58,2,-2,8,32,2
0,-6,40,23,-34,-20,-47,-46,-50,-57
-74,-68,52,95,13,-16,-58,-65,-99,-109
-29,-25,42,93,-6,0,-26,-7,-30,-19
8,53,92,136,19,20,-7,1,47,29
-6,59,70,165,78,44,-3,-10,59,16
4,86,9,87,50,34,0,-4,80,20
-56,12,-60,-10,-4,-7,-47,-70,-32,-64
-107,-60,-203,-62,-67,-62,-87,-127,-123,-129
-92,-72,-153,-24,-66,-59,-67,-89,-80,-93
-65,-70,42,40,-19,-23,-38,-55,-41,-47
3,-19,65,-26,17,19,5,-14,-11,4
50,0,-14,-125,2,42,55,48,67,58
-5,-23,-54,-70,-27,19,53,31,61,19
-47,-41,-72,24,-41,-37,0,-6,-8,-33
34,47,-74,53,-21,-42,-11,3,-2,19
12,19,-32,90,11,7,4,9,44,17
21,16,130,83,-10,10,3,-2,47,31
60,39,103,-1,-20,21,9,23,70,74
81,-29,-85,-181,-33,52,76,119,132,140
90,3,-112,-241,-29,69,114,149,154,149
37,4,-75,-172,4,55,91,94,95,80
3,-31,-45,-97,20,34,70,59,90,51
10,-6,-4,-41,12,21,49,40,64,43
11,15,14,-39,21,21,34,35,54,30
-14,5,44,-24,32,14,16,-5,27,-12
-34,19,51,0,19,-7,-11,-24,-2,-25
19,84,46,2,2,-15,-12,5,10,27
22,75,57,34,45,31,55,73,104,69
-4,67,80,50,78,44,74,51,100,35
-65,-21,48,15,46,9,38,-7,-29,-42
-64,-23,23,-4,28,-13,17,-37,-79,-59
33,83,-7,-41,-13,-24,14,-29,-14,18
-9,-3,-5,-19,-6,-26,27,-23,-10,14
-23,-28,21,-9,-3,-32,50,-10,7,15
5,24,28,-2,6,-12,59,7,52,42
-46,-40,27,43,25,2,43,-12,-8,5
-103,-74,77,105,44,11,19,-52,-66,-62
-57,44,138,76,10,-7,-11,-103,-78,-74
8,95,127,19,-10,-24,-6,-78,-31,-16
-19,25,83,18,14,-28,-11,-46,-21,-11
-20,2,54,13,19,-41,-44,-39,-55,-22
-18,-19,-4,-7,27,-8,-25,9,32,31
10,3,-31,-11,51,25,19,78,106,75
30,10,-60,5,31,10,21,69,63,56
12,-45,-69,10,13,-27,-8,1,-49,13
-5,-70,-76,-4,12,-20,-2,1,-44,12
-3,-65,-42,15,11,-12,1,12,4,30
15,-12,3,27,-11,-24,-45,-20,-28,21
16,0,-6,-2,-48,-22,-65,-25,-52,10
11,4,-19,-21,-46,-23,-45,3,14,28
1,-13,-31,-6,-46,-40,-24,6,39,30
-30,-36,-74,39,4,-24,-45,-44,-40,-31
-44,-39,-26,31,8,-18,-46,-67,-92,-48
-1,-50,7,5,-24,-24,-11,-21,-21,4
-43,-83,38,79,32,5,21,-20,-20,-28
-39,-47,67,95,28,-3,3,-31,-41,-44
12,13,74,58,-15,-25,-21,-32,-28,-7
-12,-10,35,19,-37,-50,-29,-51,-34,-27
-36,-46,9,12,-43,-72,-46,-93,-73,-72
-74,-79,-12,36,-22,-84,-84,-106,-112,-102
-104,-71,2,44,15,-62,-81,-90,-107,-127
-86,-25,6,-20,29,-18,-60,-22,-67,-98
52,78,22,-96,-15,-23,-20,61,31,25
117,96,0,-118,-11,-6,21,113,62,102
102,122,-83,-110,12,4,9,83,9,63
22,134,-9,-95,-27,-74,-87,-44,-107,-52
-65,-41,-56,-100,-83,-99,-131,-86,-140,-83
-112,-160,-26,-23,-16,-48,-82,-64,-124,-86
-142,-157,71,75,83,13,-20,-72,-132,-114
50,39,23,24,30,28,16,-8,-23,39
93,60,-93,15,0,7,9,8,6,77
51,99,-50,86,17,-27,-59,-77,-85,-5
44,222,82,172,22,-47,-93,-112,-102,-42
-136,11,95,245,5,-67,-137,-141,-171,-149
-90,-48,49,168,-51,-53,-89,-49,-80,-38
-38,-62,-69,104,-3,9,-18,15,-19,23
-35,-46,-199,-34,-13,3,-12,-22,-31,-9
1,-37,-295,-236,-82,-30,-13,0,54,35
15,-62,-297,-277,-67,-6,18,59,88,66
59,3,-167,-192,-11,55,75,110,133,102
95,81,5,-31,64,104,127,136,199,140
94,68,5,24,82,113,125,139,177,144
102,86,-34,-23,17,65,125,115,165,158
97,59,-141,-138,-48,19,103,93,140,153
57,16,-146,-162,-28,50,101,85,118,117
19,10,-28,-96,10,52,87,41,70,72
19,23,43,-48,0,43,93,65,100,85
15,57,99,-2,19,57,97,66,114,69
58,84,82,-38,-6,27,53,21,84,79
51,36,39,-55,-35,-15,46,28,73,78
18,14,27,-36,-20,0,60,20,28,32
14,54,68,-20,-46,4,38,16,23,25
-58,-27,66,43,-30,3,-17,-19,-22,-37
73,116,106,13,-35,-28,-63,-30,-4,3
52,84,91,7,-10,-26,-58,-34,-32,-15
17,68,109,25,-6,-44,-62,-55,-51,-46
-5,112,133,23,-17,-52,-52,-87,-68,-67
-80,-48,48,17,-18,-37,-19,-38,-47,-64
-94,-137,-6,16,-2,-46,-27,-15,-69,-64
-35,-20,34,-1,-7,-29,-25,-38,-109,-49
-7,15,36,-10,5,4,17,18,-41,-5
-2,27,34,32,40,37,59,77,39,11
-33,2,59,83,58,9,18,27,-21,-40
-75,-52,42,67,39,-13,-30,-35,-96,-88
-11,44,59,24,2,-37,-60,-49,-53,-47
-12,30,10,-55,-35,-39,-88,-26,-37,-37
-26,-8,-19,-85,-78,-56,-76,-13,9,-36
-69,-21,8,-38,-42,-55,-80,-46,-28,-92
-125,-96,-17,-11,-23,-66,-116,-66,-120,-156
-63,-67,-49,-54,-51,-46,-85,-40,-72,-101
101,111,-18,-112,-63,-13,-20,6,81,25
74,107,0,-56,-30,-15,-30,0,64,0
-33,14,-17,-1,8,8,-29,9,36,-52
-79,-45,-74,60,24,1,-58,-35,-19,-77
-62,-3,-62,122,-7,-41,-103,-98,-71,-82
-22,22,-65,98,-19,-25,-60,-71,-2,-67
7,41,-13,65,12,-8,-20,-42,19,-57
44,30,-28,-6,16,25,31,-1,29,-12
35,-9,-147,-82,34,62,71,37,40,14
0,-35,-47,-61,42,54,63,27,66,-6
19,17,69,-27,5,8,16,-3,61,-3
26,56,99,-32,-7,5,8,-22,30,-29
36,43,69,-79,-28,14,17,-11,20,-29
51,82,90,-27,-14,18,58,26,92,2
72,110,93,32,14,24,81,58,129,26
52,25,-25,12,33,19,34,47,74,29
-14,-62,-124,28,50,31,-12,10,-28,-25
-18,-58,-32,66,34,38,-19,20,-30,-33
16,-19,0,62,30,36,-1,30,-26,-18
13,-17,-19,42,37,10,0,12,-49,-31
14,-19,-11,-25,-8,-11,-15,5,-33,-19
-6,-37,-3,-54,-42,-11,-61,2,-39,-16
-7,-42,-15,-70,-75,-31,-66,6,-53,-25
-9,-26,15,-43,-68,-34,-36,-4,-61,-35
-54,-99,-11,-22,-43,-7,1,4,-46,-37
-131,-156,-131,-19,1,-15,8,-28,-72,-92
-84,-84,-171,-25,-3,-2,-11,-38,-57,-45
-44,-23,-62,-9,-12,0,7,-19,0,-2
-26,34,-64,16,-6,-13,23,-4,10,-6
-65,-8,-101,19,6,-10,24,-14,-34,-46
-53,-74,-67,-8,-3,-22,18,-35,-66,-66
87,51,-11,-66,-66,-54,-15,1,4,39
77,23,2,-74,-71,-39,-13,48,47,71
-5,-46,52,3,1,-13,-30,2,-13,-14
-27,-61,24,14,-3,-2,-30,-4,-35,-26
-56,-64,51,61,43,13,-6,-1,-36,-43
-75,-13,132,161,135,20,-19,-53,-97,-107
-75,-17,124,136,126,11,-28,-65,-94,-105
-3,13,111,44,39,-30,-21,-33,-20,-16
-70,-52,58,-4,20,-52,-26,-57,-57,-74
-56,-32,4,-42,-9,-64,-40,-47,-75,-86
4,-9,-11,-53,-27,-63,-26,-2,-19,-24
-31,-80,-45,-32,-27,-57,-26,-4,-7,-33
-27,-59,-5,-37,-48,-71,-37,-15,-4,-20
-16,-51,24,-18,-50,-62,-25,-19,-16,-25
-30,-51,9,3,-57,-66,-39,-49,-45,-41
-41,-64,-39,-14,-97,-84,-72,-74,-79,-57
8,-3,-7,-52,-111,-83,-69,-51,-60,-29
48,26,82,-10,-34,-25,-23,-5,3,16
68,58,116,58,58,17,2,13,3,32
77,80,80,71,90,52,44,62,52,41
110,69,-24,13,88,90,130,178,204,135
67,24,-88,2,104,110,130,168,175,121
23,-20,-56,1,102,66,38,66,37,37
28,14,-51,0,73,11,-8,19,7,20
6,23,16,38,74,3,-19,-17,-34,-23
-62,-54,-12,49,74,33,-11,-16,-40,-52
1,5,8,8,15,19,-8,17,3,20
11,66,79,22,-11,-13,-52,-39,-37,0
-10,20,79,43,-37,-32,-86,-77,-56,-39
5,-6,37,25,-40,-20,-33,-27,-2,-3
-6,-52,-10,8,-25,19,15,-2,6,12
-10,-41,20,33,-27,2,13,-24,-17,-4
-12,-17,-5,-3,-36,-10,-13,-29,-16,-7
-36,-27,-99,-77,-53,-40,-85,-54,-64,-42
-33,-21,-63,-55,-45,-39,-96,-59,-54,-52
13,-4,10,-41,-46,-18,-45,-21,15,4
22,40,105,-9,-34,-9,-27,-21,9,13
3,53,129,17,-14,6,-20,-12,-8,-5
-21,8,69,11,31,64,60,27,55,-12
67,47,14,-47,20,94,125,93,160,87
71,73,4,-2,16,74,87,64,136,84
-4,42,32,40,5,29,24,-25,32,-11
-42,50,113,95,1,31,18,-23,46,-18
-89,23,82,149,31,41,12,-11,61,-29
-50,9,6,78,29,22,8,5,50,0
-5,32,33,27,16,23,19,20,61,28
-38,43,149,44,15,17,-7,-20,29,-12
-52,4,85,-59,-46,-13,-5,-44,5,-25
-18,24,47,-83,-56,17,46,23,50,12
-6,26,75,-24,-5,84,111,103,109,58
3,-35,-76,-64,7,104,152,149,166,111
72,-2,-219,-142,-53,41,85,106,138,136
-77,-158,-364,-101,-55,5,-5,9,15,-13
-144,-173,-333,-30,-16,0,-43,-48,-60,-101
-79,-95,-121,4,-6,-3,-25,-33,-25,-63
73,62,-2,-28,-12,3,0,-14,16,32
80,55,-31,-50,-25,20,35,32,31,84
15,19,-7,5,-14,15,18,31,43,58
-9,33,25,12,-2,10,-24,-6,5,14
-7,47,59,15,-26,-4,-52,-21,-15,9
-29,41,76,102,12,8,-55,-57,-44,-15
8,84,105,82,15,34,-26,-34,-19,18
46,33,44,-12,14,73,48,63,66,96
32,4,-6,-89,3,33,23,49,42,78
33,36,-27,-87,16,16,29,56,82,76
16,32,-27,-88,42,39,66,85,93,68
8,12,-5,-76,-9,-2,37,39,-10,25
20,9,-10,-4,-14,2,10,19,-21,19
48,10,-19,11,0,20,4,20,-10,38
29,-30,10,16,18,28,-3,31,-25,27
9,-9,56,77,50,34,-28,-7,-58,-2
-8,70,147,170,111,37,-61,-68,-85,-62
-13,86,126,179,122,52,-14,-3,-14,-51
4,62,-5,57,43,42,17,70,33,-1
-35,-2,-75,-21,-17,41,13,62,-8,-27
-68,-40,-41,-34,-50,25,7,35,-39,-30
-75,-85,-37,-76,-68,0,26,22,-29,-18
31,10,-21,-82,-53,-2,45,14,33,47
88,75,19,-49,-35,-15,23,-10,36,74
14,40,40,33,-2,-8,40,4,-11,30
2,41,25,2,-12,1,54,27,38,26
-3,17,-2,-46,-25,1,25,-10,36,32
-25,-47,-19,-41,4,-11,-6,-45,-27,7
-32,-70,-25,-28,11,-14,7,-35,-15,4
-5,-87,-35,-21,-17,-10,0,1,23,30
-15,-105,-134,-4,-10,-11,-26,14,0,22
-61,-109,-157,56,36,4,-52,-40,-51,-32
-14,2,6,86,23,-28,-60,-76,-83,-29
42,54,49,44,-27,-69,-62,-73,-114,-8
12,-21,13,-23,-81,-65,-77,-34,-100,-6
-104,-143,-3,-38,-71,-44,-54,-34,-66,-73
-127,-143,-6,-17,-32,-20,-47,-48,-70,-92
34,45,51,-53,-61,-44,-81,-55,-71,0
9,3,-6,-22,-18,-25,-62,-64,-43,-25
-11,-7,-25,12,26,12,-11,-36,0,-35
6,14,21,11,15,5,-28,-40,-16,-21
-14,-8,11,23,11,-5,-46,-56,-42,-45
-15,-41,-41,10,8,-20,-26,-33,-24,-43
12,-27,-42,-1,-10,-29,-18,-6,-10,-7
56,35,-7,-19,-49,-60,-34,-6,6,27
40,18,12,-30,-82,-71,-16,14,72,44
-45,-70,-13,16,-61,-57,-16,17,17,-1
-44,-37,-9,30,-17,-36,3,17,-38,-32
0,11,-1,8,10,-10,12,34,-39,-21
4,10,18,23,34,-27,-31,-1,-80,-52
-11,-34,-1,5,40,-14,15,-20,-92,-41
9,-66,8,36,53,4,77,-2,-67,-28
16,-45,-3,49,49,-4,65,1,-71,-29
11,-23,-68,29,6,-39,45,18,-54,-33
42,42,-1,23,-49,-87,28,49,3,11
16,15,59,49,-50,-90,-8,46,8,4
-38,-74,22,52,-2,-84,-41,18,-46,-31
-46,-55,32,36,5,-90,-37,-46,-105,-70
-27,-30,53,2,16,15,-2,-43,-59,-60
9,-26,42,-11,38,134,19,24,78,7
5,-40,46,3,7,98,-2,50,144,27
-7,-22,66,36,-6,22,-37,-3,72,-8
91,80,66,3,-32,0,-31,-12,37,45
94,93,53,-12,-11,26,-21,-16,26,60
50,82,53,-3,15,14,-48,-41,-9,13
10,20,9,2,14,-14,-39,-36,6,-13
0,-48,-58,-21,1,0,4,-6,41,15
-31,-26,-109,-12,-9,-8,23,-31,8,-19
-45,-4,-142,-7,-23,-16,23,-34,13,-22
-54,-1,-117,22,13,20,53,19,70,0
-48,9,-51,76,66,27,54,15,71,-18
-93,-65,-14,62,41,-49,-39,-75,-28,-99
-120,-89,-3,46,-5,-93,-111,-134,-125,-154
-81,-47,48,-3,-43,-101,-144,-157,-152,-165
-32,-51,83,-61,-70,-69,-91,-82,-81,-102
37,-43,83,-70,-50,1,34,43,54,6
75,-45,25,-43,39,68,132,119,119,76
143,46,15,-12,53,47,110,98,76,109
129,101,57,-14,23,15,23,39,39,81
1,-37,5,36,53,61,25,51,43,28
17,-12,20,69,47,86,45,58,56,52
111,81,27,30,30,60,33,51,44,88
85,61,25,-1,27,40,48,48,64,68
40,33,-40,-61,-3,10,33,31,44,34
-5,12,-18,-36,-19,-14,0,14,1,-7
78,166,126,37,-25,-13,-51,10,40,40
83,120,104,38,-25,-21,-83,-25,10,27
25,-13,-1,-12,-8,19,-32,6,18,19
34,-37,-58,-62,-3,64,31,43,67,37
15,-81,-154,-82,-10,66,41,49,40,23
0,-98,-142,-52,-11,31,1,22,4,4
43,-54,-45,-51,-63,-24,-9,25,39,39
26,-48,-18,-27,-59,-30,-5,27,28,35
-41,-78,-10,-3,7,12,7,-8,-33,-32
-40,-49,14,-3,7,10,8,-31,-60,-26
-9,-11,25,30,-26,-14,0,-36,-34,6
-33,-39,-6,44,-82,-50,-40,-63,-57,-22
-48,-51,-16,40,-89,-82,-89,-107,-154,-69
-20,-2,61,8,-87,-83,-90,-96,-113,-60
-61,-39,118,19,-39,-51,-65,-75,-73,-73
-16,16,73,-36,-21,-40,-50,-58,-62,-34
43,45,-30,-104,-17,21,39,30,73,76
12,29,-63,-90,0,35,61,33,55,64
-105,-61,-22,29,42,23,67,-27,7,-34
5,47,-19,26,25,30,71,-2,28,41
7,41,7,17,28,25,82,31,35,41
30,116,101,12,21,24,104,73,111,78
37,112,139,-18,30,45,118,79,113,80
11,4,50,-84,6,37,70,56,51,53
2,-24,-13,-60,4,32,31,36,34,39
-29,-50,-73,0,30,22,8,11,5,22
-30,-39,-76,28,32,4,2,0,-9,9
4,-15,-85,-15,45,-1,8,21,-27,34
22,-28,-111,-47,52,17,21,57,14,67
-3,-69,-89,-45,44,18,8,44,-11,45
9,20,-12,-47,12,-18,33,-9,-54,6
1,-24,-41,-44,11,3,25,9,-36,10
-36,-57,-46,0,25,0,-21,-28,-59,-16
-49,-48,-54,20,38,-1,-56,-54,-85,-43
-49,-23,-87,31,68,8,-37,-33,-83,-38
-36,-15,-48,23,63,34,-5,15,-20,-6
-51,-42,-29,2,32,34,-11,0,-49,-19
5,48,31,-9,-21,-24,-26,-24,-56,3
-7,52,66,34,-4,-29,-44,-37,-63,-21
-102,-55,50,66,36,0,-36,-44,-79,-64
-111,-126,-22,11,5,-28,-18,4,-25,-47
-4,-48,-51,-58,-23,-48,-10,18,1,31
71,106,-36,-61,-12,-49,-13,-14,9,58
63,125,-100,-12,-21,-45,-17,-24,5,44
-6,-22,-92,10,3,-43,1,-35,-58,-6
0,-38,-35,0,26,-22,32,-32,-52,-4
34,23,-37,-50,7,-17,40,-23,-14,34
-13,-23,-46,-42,22,3,61,1,3,0
-25,-38,-32,-60,3,9,60,11,14,5
-19,-14,-7,-45,-2,2,31,11,1,8
-10,28,0,-26,-10,-16,14,11,0,-4
-13,-5,-12,-6,-8,8,0,-2,-12,-21
-72,-49,-2,78,45,30,-4,-25,-47,-74
-34,20,49,80,35,6,-20,-57,-62,-74
32,90,21,5,18,8,-38,-36,-14,-15
27,61,-62,-24,10,5,-71,-16,-9,-4
45,73,0,-35,-6,-30,-78,-28,-6,0
75,150,106,33,7,-22,-43,-12,17,-5
19,126,151,108,35,2,-9,31,45,-27
-40,0,121,164,30,-2,-1,26,35,-20
50,61,140,136,-47,-16,-28,19,15,39
40,56,128,107,-58,-28,-51,1,-26,5
-9,62,98,65,-21,-41,-94,-87,-122,-102
-53,51,67,19,-6,-37,-91,-87,-113,-127
-23,-24,-70,-101,2,43,20,40,35,-17
6,-48,-166,-199,-29,62,51,73,87,31
-4,-18,-128,-168,-37,36,6,20,28,-10
-25,-43,-84,-94,2,45,17,46,38,-16
-38,-59,-82,-45,12,32,3,37,39,-24
-58,-92,-87,-70,-32,2,-20,22,22,-28
-52,-64,-23,-72,-58,-14,-11,17,5,-16
-26,10,52,-12,-46,-36,-3,10,-17,-25
-49,-5,70,64,-8,-24,10,21,-9,-40
-47,-58,26,58,13,-12,-3,34,19,-17
6,-4,2,48,29,-4,5,27,30,16
22,19,-21,17,8,-17,-20,3,35,21
-25,-42,-66,-62,-36,-48,-54,-36,-17,-29
-119,-141,-123,-125,-99,-79,-73,-66,-74,-97
-85,-108,-67,-76,-75,-61,-38,-73,-46,-67
2,55,92,7,-22,-35,3,-64,0,-16
26,79,124,-2,-18,-2,26,29,96,37
11,16,13,-48,-28,-9,24,67,115,57
-17,-20,-11,22,18,-8,-13,-6,2,-22
-58,-35,45,100,69,40,7,-48,-69,-78
82,104,115,97,39,44,22,-14,-15,36
125,64,91,94,42,51,46,53,73,108
76,2,0,90,98,105,105,112,110,115
47,-5,-50,86,116,115,115,91,87,79
19,1,7,66,66,40,70,38,10,24
0,-44,-8,46,26,4,66,64,34,23
68,40,7,41,37,1,63,38,38,50
91,96,-6,30,21,-11,16,-9,-8,35
29,31,-33,25,1,-32,-4,-36,-44,-5
-3,13,0,30,-26,-53,-74,-86,-111,-63
2,13,-57,-10,-52,-51,-45,-55,-61,-42
37,68,25,-10,-24,-15,30,5,19,15
69,76,72,-6,34,33,83,30,22,40
53,-7,6,3,55,47,90,35,26,45
56,-25,-29,17,49,51,91,41,40,57
53,1,-8,-2,30,54,75,36,36,55
2,-61,26,19,16,49,32,42,50,37
31,6,83,44,-9,29,4,31,41,42
105,137,56,27,-29,26,16,47,91,65
61,108,25,55,1,23,-8,-11,25,7
44,65,71,24,5,11,-32,-40,-32,-15
70,75,44,16,3,6,-32,-18,-29,-6
38,12,6,32,5,24,-12,16,-16,-16
7,-52,-41,2,1,34,31,32,2,-12
7,-38,-22,3,7,38,43,0,3,-18
-6,-7,35,37,37,63,32,9,0,-29
-1,9,21,61,47,58,17,14,4,-8
-17,-13,-108,69,62,30,-4,-5,-14,-25
-16,18,-93,37,32,0,-12,-17,-19,-32
13,66,25,-24,-28,-22,-13,-22,-15,-24
1,-13,-32,-122,-52,-15,3,8,3,-11
11,-37,-73,-174,-63,-7,16,27,25,-1
3,4,-21,-128,-32,-2,-2,5,-4,-17
-2,24,28,-34,29,16,44,40,47,2
-43,-10,43,15,38,7,71,38,78,-11
-130,-93,16,55,11,-21,-8,-72,-43,-103
-160,-130,-114,85,-3,-41,-27,-95,-111,-135
43,92,-108,-9,-64,-81,-54,-95,-92,-27
59,49,-10,-27,-72,-62,-10,-45,-31,-4
7,-19,32,49,-28,0,31,-5,42,-5
26,35,108,101,12,47,61,18,103,19
45,48,112,43,20,51,63,16,107,25
-5,7,78,31,20,9,-9,-55,0,-39
-19,5,39,-52,-45,-63,-83,-93,-72,-68
-38,-9,43,-62,-47,-33,-59,-62,-24,-67
-16,19,97,0,-18,21,-24,-27,29,-36
25,53,64,-39,-16,45,17,5,42,-3
33,43,-52,-100,-19,53,55,55,54,19
16,59,-36,-85,-20,36,42,45,74,12
-38,7,-30,-52,2,33,19,18,74,-7
-28,-39,-24,-31,20,44,8,32,77,6
4,13,-2,-41,32,42,2,28,42,16
-17,14,32,-33,39,46,16,22,27,-7
-57,-23,31,15,39,36,9,10,12,-28
14,26,-4,-8,-36,-10,10,30,68,33
75,57,-18,-9,-109,-25,22,78,138,97
26,14,82,57,-80,8,26,80,141,52
13,51,149,69,-24,7,-14,4,48,13
-54,-17,141,100,12,-22,-72,-65,-61,-43
-73,-38,112,143,37,-27,-59,-58,-44,-59
-5,66,96,108,54,-8,-31,-67,-49,-67
-5,100,131,102,82,8,-3,-80,-89,-72
11,16,72,27,62,21,-5,-20,-87,-16
47,24,7,-101,18,11,24,32,-10,46
3,-6,-44,-171,-1,10,30,19,42,18
-40,-55,-84,-164,-22,-10,22,12,29,-6
-65,-73,-47,-106,-64,-33,-13,-5,14,-20
-88,-82,5,-29,-65,-68,-55,-58,-22,-54
-85,-98,-23,1,-60,-72,-60,-74,-43,-46
-58,-102,-129,-35,-24,-37,-22,-24,-26,-13
34,3,-146,-63,29,25,76,74,95,68
92,90,-65,-32,42,17,47,56,65,74
-15,-43,-163,-41,-6,-40,-38,-44,-80,-33
-97,-149,-271,-95,-40,-77,-42,-61,-141,-90
-54,-75,-174,-87,-37,-63,-1,-36,-81,-53
0,-24,-44,-31,-8,-29,51,-1,0,10
7,-9,100,20,19,-6,74,24,-3,28
74,76,75,15,17,19,75,60,4,72
124,123,-40,-7,16,51,116,124,127,144
36,18,-24,13,28,46,77,57,74,78
-25,-52,18,61,50,25,7,-33,-25,-12
11,-33,-7,10,14,-16,-26,-36,-61,0
-9,-8,25,35,-10,-28,-60,-50,-104,-26
-43,19,58,60,-48,-27,-59,-55,-71,-35
-101,-40,18,94,-37,-31,-41,-55,-68,-74
-115,-60,-2,102,10,-16,-45,-39,-50,-90
19,110,57,49,5,5,-6,-1,34,4
100,154,97,23,17,32,27,20,60,81
27,30,24,6,23,-11,-3,-32,-34,13
-4,-6,-17,-20,-25,-55,-63,-50,-75,-11
14,29,102,25,13,-27,-54,-17,-9,25
17,29,152,70,96,11,-30,19,17,25
23,-6,24,64,122,42,2,72,42,47
77,49,-62,47,97,69,59,130,141,119
66,39,-133,8,45,53,38,105,120,106
66,68,-61,-43,-35,7,-10,64,34,70
46,83,32,-42,-51,10,-20,47,22,43
-7,-31,9,16,38,76,38,80,60,62
-13,-63,-70,66,56,82,44,77,46,73
-27,-45,-90,96,54,40,5,30,-18,24
-42,-39,25,84,35,34,-1,8,14,-1
-50,-45,17,26,32,16,-4,-18,-5,-23
8,9,-104,-78,-20,-19,-19,-9,-14,18
8,-26,-104,-131,-81,-21,35,67,51,67
8,-39,-55,-110,-60,7,72,90,84,81
15,-19,-28,-82,-25,3,38,37,30,48
-4,-33,-6,-58,-35,-19,22,36,20,40
-43,-94,-29,-46,-18,-5,56,64,52,35
-35,-37,7,-20,1,-19,36,23,9,10
-39,16,65,76,43,-27,-76,-71,-110,-64
-64,-2,44,110,61,3,-72,-69,-90,-71
-63,7,62,122,60,29,-49,-54,-50,-63
7,65,78,45,12,-2,-51,-24,-43,-14
48,55,64,-20,-9,-11,-40,-13,-49,10
12,12,29,-48,-21,5,-23,-23,-51,-14
-88,-48,35,68,34,33,8,29,1,-49
-85,-17,79,187,90,47,27,65,45,-11
100,185,99,171,49,26,14,36,88,100
30,87,9,152,13,2,-28,-54,-31,-2
-64,-25,16,51,-43,-28,-35,-62,-83,-75
-22,-32,-24,-107,-99,-46,-6,3,-17,-32
79,49,-44,-205,-139,-48,6,16,36,29
45,26,-22,-160,-102,-42,20,41,48,19
6,-25,-5,-68,-11,2,50,93,21,0
22,3,23,-60,-39,-3,6,20,-2,-17
-2,-16,4,-16,-19,17,-4,-1,-21,-25
-26,-49,-8,25,19,23,-11,-26,-46,-38
-27,-21,14,28,7,8,-10,-42,-31,-37
-31,-15,1,20,-28,-8,-4,-34,-19,-26
-5,0,8,-24,-44,3,11,-1,17,16
6,25,28,-45,-40,7,-6,-22,9,24
3,22,30,-61,-46,-18,-47,-55,-19,0
-19,-5,8,-47,-40,-46,-65,-60,-62,-32
-59,-95,-84,20,-36,-50,-112,-69,-118,-65
-99,-110,-27,87,-6,-54,-145,-111,-179,-122
-141,-114,52,148,25,-62,-153,-127,-221,-167
-128,-118,45,167,-1,-73,-136,-108,-188,-141
-68,-85,49,164,-9,-33,-54,-11,-82,-65
-41,-117,12,149,12,18,14,44,-47,-26
101,10,-6,0,-41,0,12,79,21,85
91,6,-58,-166,-107,-43,-2,70,20,93
39,-27,-186,-263,-110,-51,0,26,-26,49
30,-5,-143,-255,-71,-42,-23,-8,-63,15
3,4,28,-149,-38,-7,-25,-7,-74,9
3,4,119,-29,-2,8,3,37,-22,32
2,6,128,55,22,0,37,43,-10,37
24,54,104,53,12,3,3,21,-26,34
99,97,57,-22,-27,9,36,40,17,74
134,105,-12,-70,-15,31,90,84,76,130
88,26,-119,-114,4,46,101,90,101,117
3,-73,-174,-96,25,35,92,75,84,67
-13,-41,-110,-45,42,27,62,45,37,34
29,65,23,-8,35,23,53,51,51,47
75,126,169,31,16,-16,-11,-13,-14,25
62,101,210,30,-17,-56,-54,-42,-53,-2
-19,-3,137,56,32,-7,-28,-39,-71,-46
-50,-4,137,115,81,20,-59,-59,-110,-78
21,80,182,84,42,0,-75,-59,-53,-35
43,56,113,59,14,-4,-41,-23,36,1
0,-78,-88,79,54,34,14,34,78,11
16,-40,-234,22,42,35,13,11,32,0
2,-8,-164,7,40,38,-4,-19,-3,-33
19,-21,-158,6,18,37,39,23,82,30
51,-52,-201,-78,-12,12,93,74,153,89
8,-87,-184,-129,-8,1,80,76,122,74
-9,-73,-145,-111,9,9,65,42,86,37
46,46,-57,-70,4,11,50,1,88,46
34,61,3,-23,8,1,38,2,93,41
1,-2,1,-30,-20,-34,-22,-27,6,4
-4,12,21,-35,-45,-33,-53,-39,-4,-9
-23,-13,47,-2,-38,-38,-59,-48,-34,-35
-19,-60,29,29,-12,-31,-15,9,-1,-6
14,-42,9,25,13,-2,0,47,17,29
19,-15,-26,29,58,5,-23,28,-22,16
55,54,7,53,81,16,-5,34,8,35
39,74,51,75,69,12,27,49,21,18
-8,61,92,68,5,-67,-53,-52,-86,-63
-74,-2,83,58,-18,-107,-115,-148,-180,-154
-147,-118,15,50,2,-83,-108,-143,-167,-170
-151,-144,-11,26,-7,-77,-103,-117,-141,-145
-33,-38,-37,-70,-23,-45,-44,-25,-44,-32
32,-3,-50,-127,-27,7,25,66,38,46
52,21,-74,-125,-27,38,64,121,86,98
29,-9,-73,-61,16,41,61,107,66,67
5,-19,-20,24,40,33,33,71,19,34
-6,3,36,93,45,30,17,42,4,24
-3,7,35,102,40,24,-3,25,-15,14
-1,-21,0,50,24,20,-15,16,-4,12
1,-47,-38,4,25,8,0,26,23,27
-18,-59,-78,-32,-5,-6,16,28,10,17
-67,-58,-31,-37,-29,-34,-28,-34,-57,-34
-67,-6,16,-36,-42,-63,-106,-86,-120,-76
-26,1,-10,-57,-29,-33,-95,-42,-64,-24
38,34,64,-64,-23,-20,-38,3,7,50
78,46,34,-63,-14,-10,-8,11,27,67
70,11,-76,-73,-16,1,5,47,54,81
-3,-43,-65,-18,32,24,30,72,74,49
-7,13,-7,-3,55,44,60,95,85,45
-18,35,23,20,56,44,47,51,32,10
-46,-4,73,64,47,8,-6,-32,-47,-36
8,9,38,15,22,-14,-19,-22,-23,4
1,5,22,-4,27,14,22,20,11,10
-72,-42,0,1,17,16,4,-11,-21,-29
-91,-62,-126,-1,11,-4,0,-23,-44,-48
31,75,-101,-17,-6,-19,-6,8,-5,27
17,11,1,10,0,-18,-12,-3,0,11
-36,-42,45,77,31,-7,10,-32,-41,-54
-25,-10,22,77,20,1,27,-27,-59,-50
-29,-20,18,65,16,13,29,-24,-43,-37
-42,-54,14,70,29,5,10,-54,-63,-50
6,10,8,20,-12,-25,-29,-48,-38,6
7,10,0,35,0,-7,17,4,47,31
5,38,38,78,53,28,61,39,73,12
-39,-15,66,93,26,13,19,-42,-44,-72
13,32,125,90,-10,-9,-9,-81,-62,-53
-36,-13,17,45,-61,-67,-48,-93,-59,-65
-98,-115,-98,-19,-91,-85,-45,-117,-98,-108
-73,-109,-41,-37,-42,-52,-17,-106,-95,-80
-38,-24,56,-15,16,-13,44,-75,-58,-61
-26,-1,70,-53,43,0,40,-90,-63,-55
-15,-26,21,-59,60,14,46,-59,-45,-26
84,84,17,-69,7,-14,25,-18,6,42
64,100,85,7,-44,-33,8,4,20,29
-49,4,170,105,-15,-14,21,-1,8,-39
-54,-80,46,19,-3,29,47,34,61,-11
107,60,-22,-87,-34,65,83,101,174,140
134,163,32,-22,-16,72,36,73,152,129
57,69,-8,43,17,57,-16,-5,57,27
3,-7,-39,71,62,46,-40,-42,8,-30
-6,-47,-47,54,84,46,-8,-15,31,-17
2,-46,-36,5,91,69,25,26,88,10
-5,-33,-24,-84,8,20,-14,21,63,-2
-11,-50,-64,-162,-61,-6,-24,32,69,-5
-24,-31,-42,-66,-25,33,-9,38,78,-14
-11,4,-4,49,28,58,-10,14,59,-33
44,17,-62,89,2,41,14,27,83,22
12,-37,-126,132,-28,10,16,59,91,41
18,52,-8,32,-34,-12,2,55,87,55
74,122,10,-161,-70,-1,17,77,139,94
43,92,4,-122,-29,16,4,34,87,23
42,89,0,-78,-22,-9,-24,-18,28,-16
-14,-50,-36,-56,-21,-27,-16,16,2,-28
-28,-39,0,5,19,5,-13,0,-16,-39
53,93,6,26,34,25,-10,1,51,21
43,73,-5,95,60,27,1,6,56,24
-27,42,50,167,51,13,-32,-43,-35,-54
-25,74,132,131,-13,-13,-55,-95,-54,-72
0,48,33,0,-60,-8,-33,-63,-9,-21
-47,-42,-26,-72,-38,-8,11,-38,-36,-15
-84,-129,-100,-89,-46,-51,-3,-31,-81,-23
-37,-127,-206,-59,-29,-20,32,14,-18,33
28,-50,-103,-30,18,10,61,32,-4,61
29,-47,-54,-46,5,8,75,44,2,68
22,-61,-30,-50,-41,-2,32,63,33,84
22,-60,-12,-34,-49,-2,-1,39,15,62
41,50,52,11,-28,-16,-4,2,2,43
53,135,112,55,8,-11,27,29,40,37
27,82,75,67,22,12,66,42,52,21
29,27,59,75,28,12,64,43,35,33
6,-24,71,54,30,-20,2,-30,-73,-40
-11,-41,33,19,0,-39,-17,-46,-112,-68
-8,-42,21,7,-19,-30,-5,-33,-71,-50
-46,-106,0,-21,-17,-29,27,16,-18,-43
-30,-62,18,-5,4,6,46,57,7,-11
-22,-15,37,9,0,5,3,-15,-71,-32
0,-4,-37,-14,-5,6,-15,-16,-50,-11
-16,-34,-52,-16,2,12,-16,-2,-43,-5
-17,-32,-62,-19,-29,-15,-23,1,-42,2
-12,-23,-101,14,-36,-39,-56,-31,-81,-33
-9,-15,-26,27,-20,-17,-20,-15,-60,-12
15,23,64,21,-19,-12,5,13,4,18
27,15,59,-9,-2,-9,-2,-9,-27,-3
28,-10,1,-46,4,0,-5,10,-4,19
0,-60,-33,-54,-1,-15,-38,15,4,12
-15,-29,13,-3,24,-6,-80,-30,-45,-37
-6,4,43,3,-16,-16,-69,-16,-26,-11
-16,-27,43,11,-33,-19,-47,2,-2,-5
7,15,74,50,-16,15,-19,9,2,-12
32,34,74,50,3,38,-20,-7,-19,-16
66,67,58,23,23,31,-61,-32,-36,1
38,27,21,-1,24,-6,-83,-58,-55,-28
26,-3,-27,-37,-28,-34,-91,-48,-33,-33
5,-39,6,29,-20,-17,-49,-30,-19,-26
1,-25,37,70,3,3,-11,-4,25,-8
-69,-60,-52,88,24,21,-1,-13,1,-47
-91,-46,-117,48,10,-9,-16,-41,-35,-74
-76,-11,-54,27,12,-61,-79,-102,-111,-114
-44,37,62,-26,-78,-73,-68,-12,-55,-73
-111,-52,73,-2,-114,-91,-69,-35,-62,-93
-92,-34,69,5,-111,-97,-78,-59,-49,-61
-41,78,101,56,-54,-60,-47,-82,-71,-71
-31,77,73,75,69,16,31,-65,-30,-94
29,68,39,-50,31,-7,30,-73,-6,-41
9,-6,64,-150,-81,-67,11,-82,-26,-39
19,-24,76,-121,-53,-13,50,-16,2,-13
68,-40,-42,-163,-12,51,145,87,101,63
84,-56,-130,-130,51,88,179,132,134,96
64,-32,-137,-52,89,97,145,118,117,78
55,-14,-153,-22,92,90,136,124,131,87
3,-72,-71,41,117,79,86,92,78,28
46,3,45,39,70,27,7,15,15,10
111,112,93,11,26,3,-18,-11,10,46
38,40,69,24,29,32,-15,10,6,33
-4,-6,54,27,46,50,-9,7,-12,5
56,29,30,-14,23,34,24,22,8,48
70,14,12,-12,7,10,36,20,45,71
72,53,7,21,6,8,20,-21,17,52
50,71,59,37,10,9,-4,-70,-44,0
19,76,117,29,-13,-14,-5,-77,-45,-23
-16,58,140,25,-38,-41,-18,-59,-31,-15
0,30,124,10,-53,-37,-12,-30,0,20
-14,6,158,35,-35,-38,-32,-42,-19,-24
-65,0,270,104,0,-35,-44,-61,-45,-73
-76,31,321,156,28,-30,-53,-44,-41,-74
-25,99,212,99,-12,-44,-56,-18,7,-29
-10,43,-21,-13,-15,-16,-13,3,24,-6
-3,-65,-295,-114,1,23,3,18,20,15
-8,-124,-467,-118,20,40,13,43,44,44
-4,-144,-587,-238,27,53,46,90,97,70
52,-34,-472,-289,-24,6,16,68,95,91
35,-1,-225,-136,-33,-6,-21,16,42,46
47,11,-74,-27,-18,25,6,44,58,57
60,-3,-32,15,14,52,46,84,78,71
58,0,-12,25,40,56,48,65,68,50
45,-4,-3,3,42,37,44,24,48,39
-2,-52,5,17,67,36,52,4,16,0
-68,-122,-23,31,72,28,64,6,-8,-42
-14,-42,7,-1,45,39,58,12,-7,-12
83,97,57,-59,8,29,31,21,51,48
68,67,27,-99,-21,34,42,60,89,91
22,-11,16,-70,-27,4,-3,43,30,30
-19,-19,51,-19,-40,-39,-84,-20,-29,-31
-62,-76,7,-11,-34,-61,-101,-57,-76,-66
24,27,22,-51,-59,-54,-85,-58,-55,-20
-1,9,24,-63,-54,-48,-75,-35,-39,-20
-20,-2,27,-28,-26,-4,-45,-4,-9,-17
64,97,36,-6,-11,-2,-30,2,30,35
67,108,16,34,37,16,-34,4,-7,26
23,26,54,45,69,15,-29,3,-26,-3
36,38,46,7,16,-11,-38,-14,-7,13
17,43,49,-9,0,-15,-43,-19,-10,-5
-36,15,63,-2,31,1,-19,-18,-34,-50
-101,-21,64,28,35,5,-16,-18,-45,-73
-127,-33,35,93,71,33,-4,12,-21,-54
-6,86,39,91,47,20,18,13,-8,36
-18,48,76,90,13,-17,19,-47,-61,-1
-39,26,90,51,-21,-42,-20,-99,-103,-60
-32,1,41,25,-13,-54,-25,-80,-81,-43
-51,-35,-29,14,38,-20,24,-40,-33,-32
-27,-42,-41,-11,17,23,67,9,18,8
31,4,-11,-36,-33,22,66,62,90,81
58,79,23,-26,-6,37,66,88,101,90
25,58,17,-37,24,30,45,74,72,52
-10,-5,2,-23,26,8,1,24,14,13
-24,-10,12,12,62,15,-26,-19,-36,-19
-13,0,-11,11,48,-7,-56,-27,-39,-7
-39,-16,-76,53,57,-21,-56,-41,-74,-38
-58,-56,-31,57,41,-10,-31,-39,-76,-54
-50,-91,-26,-18,-8,-10,0,34,7,-3
-34,-67,-64,-83,-64,-38,-7,19,24,13
-88,-88,-162,-91,-85,-61,-63,-71,-80,-73
-63,-46,-82,-57,-108,-74,-91,-94,-112,-71
-33,-23,69,1,-107,-64,-84,-74,-94,-54
11,34,143,25,-65,-57,-57,-54,-62,-35
30,50,101,31,0,-18,-4,-7,3,4
15,2,-23,15,34,0,23,42,62,45
23,19,-31,41,70,27,38,36,58,35
12,39,50,61,53,-5,30,-32,-26,-23
-46,-8,85,28,2,-53,2,-71,-93,-86
-87,-62,59,-21,-46,-101,-43,-92,-127,-127
-86,-55,-12,-60,-109,-146,-68,-110,-117,-121
43,87,11,-37,-120,-146,-77,-105,-93,-27
23,77,76,39,-75,-110,-49,-90,-96,-27
-47,51,124,129,-8,-49,-11,-71,-67,-66
22,82,27,98,38,14,65,41,28,32
15,-18,-44,0,43,64,123,139,121,86
81,0,-59,-98,27,73,100,139,131,122
150,78,-52,-126,29,101,88,120,119,140
110,33,-89,-71,58,117,81,108,109,112
82,51,-49,-22,47,88,63,91,109,99
38,60,-22,19,35,49,30,38,61,49
0,13,-31,-30,7,19,15,16,23,17
-33,-92,-86,-81,-11,23,36,63,43,33
3,-57,-54,-60,10,67,69,84,66,51
43,58,27,-18,41,76,58,48,44,43
14,42,0,-9,9,26,17,21,21,29
-31,-1,-38,27,4,-2,4,1,0,2
-44,13,57,50,9,-7,-8,-26,-45,-31
-4,52,85,75,12,-4,-2,11,14,5
38,98,70,60,-22,-25,-14,17,37,31
-4,13,3,14,-27,6,-16,7,-7,6
-21,-85,-68,-46,-19,48,47,49,44,42
-18,-77,-40,-15,-18,55,40,47,55,53
-36,-35,34,54,-3,14,9,5,1,0
-48,-27,45,44,-10,-5,20,-16,-22,-22
-80,-27,46,46,0,12,42,-15,-16,-27
-88,-25,46,65,-4,8,39,-12,-8,-33
-55,-29,21,44,-23,-7,14,-26,-28,-29
31,25,29,50,-20,6,25,-1,-4,12
55,59,61,79,-14,22,30,7,13,28
57,68,95,70,-26,21,35,12,17,28
52,63,85,-1,-78,-51,5,14,12,33
-5,-37,27,-31,-61,-75,-26,14,8,3
-71,-75,34,72,32,-24,-38,-16,-41,-65
-88,-41,27,87,25,-23,-54,-69,-96,-102
-51,-11,-83,22,-46,-51,-60,-51,-74,-74
10,29,-139,-49,-75,-44,-24,18,-14,-4
12,5,-211,-94,-73,-30,4,48,25,19
-64,-80,-178,-116,-14,2,-9,5,-42,-61
27,45,-70,-106,-11,-6,-45,-41,-71,-34
107,138,-3,-88,-23,0,5,-1,18,56
50,49,-7,-25,-4,29,71,77,103,87
17,63,52,49,8,12,41,35,56,46
18,107,55,75,-2,-26,-20,-43,-35,-22
-34,6,31,84,2,-2,0,-19,-26,-43
-75,-98,17,94,24,-6,11,-11,-21,-43
-47,-54,21,62,24,-21,8,-33,-27,-33
-9,28,32,32,-9,-35,-15,-46,-40,-13
22,65,26,1,-42,-32,-17,-17,-4,23
-32,-20,0,20,-31,-18,0,0,3,-18
-137,-164,-7,63,25,7,12,-1,-29,-102
-29,-93,-24,12,-2,10,-1,18,18,-18
148,84,0,-94,-88,-16,-19,50,91,118
63,13,3,-63,-32,19,6,52,80,72
-3,-27,4,-8,14,60,13,34,34,11
0,-26,-2,4,7,57,6,51,50,17
-5,8,6,21,-2,4,-48,-27,-16,-29
-22,-18,-49,-62,-53,-43,-95,-79,-71,-62
-49,-40,-93,-112,-98,-66,-103,-78,-79,-62
-91,-45,-90,-73,-51,-42,-99,-93,-104,-109
-96,-29,18,-12,16,2,-65,-85,-86,-111
-46,-17,55,17,55,38,2,-19,-19,-60
6,-10,36,63,66,65,55,59,44,-4
47,44,26,88,56,61,75,90,92,37
48,26,8,75,64,63,49,71,78,25
9,2,25,75,92,64,23,33,24,-3
1,24,52,89,101,65,-13,1,-19,-10
31,49,55,36,52,64,4,11,5,15
9,6,-9,-33,-5,23,-9,-4,-17,-9
-47,-33,-91,-95,-83,-58,-23,-54,-51,-44
-42,-25,-108,-120,-110,-86,-32,-33,-18,-23
-17,20,-19,-60,-74,-49,-1,18,27,-1
-26,2,54,14,-49,-30,12,-8,-24,-28
-13,7,73,74,-14,-6,2,-2,-10,-8
1,-19,17,52,8,49,47,55,59,41
30,19,-14,3,-2,49,43,37,38,32
33,85,65,54,8,24,16,-5,-12,15
47,71,87,51,28,36,33,23,26,41
64,116,95,51,29,49,47,67,86,64
62,133,65,53,-12,28,37,75,89,71
27,48,1,61,2,29,28,34,35,31
-19,11,-36,50,63,44,7,-5,-19,-17
-70,-30,-54,33,103,56,-1,-25,-57,-57
-79,-29,-57,38,97,42,-7,-42,-81,-68
16,77,-14,49,55,-15,-40,-63,-69,-16
62,100,40,0,-45,-64,-46,-34,-6,38
24,49,11,-17,-82,-56,-26,-12,0,15
18,56,-53,-23,-58,-49,-35,-37,-52,-32
-21,-3,-23,-35,-49,-25,1,-21,-55,-49
-16,-87,-80,-49,-27,6,46,17,8,-7
87,-23,-176,-128,-32,8,67,45,80,75
51,-31,-216,-115,0,11,39,18,40,30
19,-37,-82,-33,5,-6,-2,-32,-21,-15
-5,-61,-47,-1,-23,-37,-7,-24,-20,-15
-18,-86,-35,-6,-31,-32,17,-13,-20,-22
-45,-66,1,-7,-29,-23,15,-15,-15,-17
-33,-19,-40,23,-23,-35,-10,-17,-2,2
-7,33,-123,47,-13,-29,-31,-37,-12,4
-17,-11,-159,18,-62,-65,-64,-45,-10,7
-48,-73,-141,-2,-76,-72,-86,-48,-35,-8
-86,-76,-38,0,9,-38,-89,-83,-72,-70
-54,-46,-22,-31,20,-27,-19,-6,31,-15
24,9,13,-8,-1,0,24,43,75,68
80,35,20,-7,-20,30,43,51,89,114
55,5,44,1,2,50,44,63,82,97
-21,-51,112,54,-32,-7,-37,-35,-10,-11
-61,-47,21,0,-105,-58,-101,-110,-76,-76
-56,-28,-56,-50,-136,-70,-113,-107,-76,-85
-40,-37,25,-34,-81,-15,-84,-69,-44,-43
-55,-23,161,31,-24,2,-46,-68,-59,-56
-43,-49,139,20,1,52,31,13,11,-7
13,-46,36,23,23,79,57,56,47,53
-7,3,26,77,73,61,91,15,6,14
2,3,-1,39,29,20,91,14,14,8
45,39,-4,-10,-9,-8,70,8,22,31
43,24,-3,-3,18,23,65,9,1,26
31,-20,-12,-3,33,52,76,24,11,22
-7,-38,-15,5,44,34,31,11,2,1
-9,-4,-19,13,40,-3,-8,-20,3,-17
16,10,20,-10,-10,-21,-17,-18,33,4
34,13,33,-24,-30,-15,-7,21,53,38
31,34,62,23,16,41,49,81,111,56
15,38,73,52,56,81,94,91,147,50
23,-1,32,1,28,56,57,51,85,25
36,-5,39,-19,-12,19,20,13,32,11
32,9,63,32,-11,9,0,-11,14,-11
21,11,62,79,4,-9,-10,-27,-35,-27
12,38,94,137,4,-50,-32,-53,-58,-40
-19,57,145,189,0,-57,-43,-68,-89,-66
-68,-29,101,158,13,-46,-39,-74,-118,-105
6,-19,10,18,-24,-37,-31,-43,-75,-26
54,1,-16,-73,-82,-54,-19,-8,-26,20
25,-55,-5,-77,-66,-41,-8,19,10,25
41,8,-3,-52,-21,-35,-26,5,19,53
-26,-31,-28,5,53,16,-32,-30,-30,-7
69,51,-71,-55,30,43,7,34,37,67
133,123,-107,-203,-24,50,58,148,156,158
79,80,-66,-166,-30,4,28,87,101,97
-13,-79,-70,-72,2,19,31,36,50,26
-30,-105,-123,-41,15,40,37,51,53,25
-3,11,-147,-17,46,39,-4,6,10,4
-85,-56,-72,44,84,57,-29,-33,-35,-67
-44,-14,18,43,44,17,-47,-44,-23,-47
-1,53,37,-8,-39,-70,-94,-81,-33,-17
-11,44,68,-7,-79,-115,-118,-91,-58,-26
-38,5,108,-7,-59,-76,-88,-62,-56,-26
-46,-27,108,-19,-20,-24,-28,5,-29,-19
-39,-41,105,34,31,9,-20,1,-48,-23
12,10,12,9,34,15,-17,13,-36,19
24,10,-95,-23,9,-17,-8,30,29,46
-26,26,-53,74,48,-9,-48,-26,-32,-2
-45,49,-13,126,84,7,-30,-43,-69,-35
21,39,9,45,59,23,39,41,25,59
51,26,-21,-33,9,37,73,102,90,114
26,-25,-86,-116,-23,27,63,78,75,85
41,-32,-94,-151,-56,-22,34,58,75,58
-40,-12,27,10,23,24,32,-18,-16,-19
-17,18,37,30,58,28,22,11,15,4
11,74,35,37,58,11,30,65,89,44
-9,17,-42,35,30,-3,6,47,53,16
-48,-67,-89,-1,13,-17,-23,-15,-35,-37
-38,-45,-39,-31,-28,-57,-38,-42,-53,-47
14,3,2,-48,-3,-20,-12,15,1,8
27,27,41,-22,1,-19,-10,14,11,28
0,46,86,18,7,-27,-4,6,5,25
-25,28,96,68,20,-16,2,-16,-12,-25
-5,24,56,85,26,-6,-13,1,-8,-25
-21,24,50,145,59,17,-15,6,-25,-30
14,87,80,119,33,23,-31,-6,-25,-6
-34,51,53,64,37,44,-18,-9,-38,-36
-30,-15,-112,-51,37,54,22,50,24,4
82,39,-94,-157,-37,2,27,86,103,119
23,16,-45,-140,-44,-18,13,37,50,48
-41,-30,-99,-52,6,4,24,0,6,-8
-8,-37,-124,-14,30,32,51,6,22,23
27,-2,-6,3,30,13,44,-2,6,10
36,45,44,-5,-10,-8,0,-15,-12,18
27,14,23,-21,-30,-3,4,-1,1,17
17,0,19,-10,-7,-2,15,4,-4,-2
-7,-20,16,-5,-7,1,29,21,9,6
4,-12,21,-13,-8,7,36,32,38,56
12,4,33,11,24,3,30,6,-1,36
-6,-8,17,41,39,12,18,-25,-55,-24
-28,-24,-33,55,50,32,4,-29,-63,-46
-37,-48,-33,36,26,15,-20,-6,-37,-21
-43,-78,-95,38,1,-11,-29,0,-14,-12
37,34,-24,42,-6,-6,-47,-4,4,20
42,86,4,60,20,18,-39,-9,6,16
-9,2,77,56,9,3,-35,-31,-18,-30
-28,-66,80,14,-21,-17,-45,-35,-40,-32
28,-9,68,-31,-42,-31,-31,-17,-13,19
20,-30,-14,-23,-39,-50,-68,-50,-32,5
-9,-53,-101,-25,-29,-52,-55,-34,-7,7
-28,-19,-20,20,18,-15,-40,-24,-3,-10
-12,-9,-2,-27,-13,-27,-42,-12,-15,5
3,-45,-30,-69,-43,-9,9,31,48,69
16,-58,-23,-53,-31,7,2,36,56,80
59,-15,-8,-46,-36,0,8,37,44,90
37,0,13,-12,-10,19,0,27,21,50
60,19,12,-48,-19,29,15,60,81,77
69,39,26,-38,-2,33,26,79,106,88
20,1,-23,-29,23,24,14,14,27,29
35,-19,-68,-34,-13,6,-19,-7,6,40
72,26,28,-17,-49,4,-32,-10,20,70
37,21,54,31,-1,32,-32,-38,-17,14
-26,-47,14,37,50,51,16,-12,-1,-15
-31,-8,52,58,68,45,1,-34,-46,-40
-6,67,125,66,34,8,-40,-71,-79,-59
-11,3,67,46,29,28,-6,-23,-20,-34
-5,-52,0,17,7,33,1,24,-12,1
-82,-99,-38,-3,-40,-10,-28,-9,-71,-57
-137,-124,-64,-19,-58,-49,-66,-83,-129,-113
-2,-3,-19,-63,-100,-65,-48,-86,-70,-34
15,1,39,-33,-91,-68,-10,-78,-52,-17
-14,9,207,24,-22,-30,-1,-56,-49,-33
-7,73,312,110,47,15,11,-29,-8,-24
80,214,369,176,70,25,10,-39,20,19
98,183,285,110,7,11,-15,-69,-13,17
14,3,-8,-8,-78,-28,-33,-81,-32,-5
0,-61,-102,-49,-103,-34,-31,-55,-14,-10
-88,-174,-142,-11,7,13,18,-12,-2,-27
-79,-184,-241,45,59,42,18,-9,-27,-48
50,-33,-193,40,24,29,23,5,24,23
23,-34,-112,84,36,33,21,-20,-5,0
-44,-101,-75,95,46,27,19,-35,-27,-51
-14,-72,-48,52,31,16,46,15,25,2
41,8,-33,69,42,6,45,36,32,41
56,22,-37,81,44,9,66,27,45,50
34,-19,-53,45,36,36,103,61,80,89
73,64,-30,-103,33,65,91,59,60,80
58,2,-91,-174,-21,55,104,79,78,86
12,-52,-132,-111,1,50,68,62,59,43
17,-29,-87,-95,18,47,49,40,38,24
22,-2,-44,-79,9,39,40,31,36,24
-44,-46,-34,-33,44,31,26,18,13,-34
-46,-19,-51,-21,52,1,34,17,19,-41
62,149,-60,0,45,-6,46,39,67,33
54,118,24,66,87,25,36,42,50,34
-17,-14,-1,81,78,31,47,38,11,-1
-37,-9,-48,97,50,14,41,1,-29,-33
-33,27,54,93,18,-17,5,-40,-62,-58
-19,32,67,6,-16,-43,-26,-55,-58,-57
-7,13,13,-69,-59,-49,-33,-35,-42,-51
-23,-17,-105,-104,-83,-48,-3,13,-10,-28
-41,-45,-81,-104,-95,-63,-11,-12,-47,-41
-35,-43,-18,-98,-99,-95,-34,-27,-48,-38
0,-38,1,-66,-75,-81,-15,-10,-27,-15
10,-24,27,-15,-16,-28,27,2,-16,-19
-23,-22,36,29,-1,-11,22,-2,-13,-48
13,9,4,-7,-21,-7,17,19,17,-18
77,70,19,-42,22,29,65,70,67,38
97,130,73,-22,26,52,103,138,137,96
106,110,107,-45,-31,8,70,108,123,99
39,51,65,-61,-11,23,28,54,39,6
-8,-29,-14,-65,0,21,19,21,-3,-33
8,-21,-28,-65,-26,-23,20,12,-4,-11
29,66,24,-65,-38,-61,-5,-36,-57,-31
-7,8,-8,-45,-4,-45,-9,-26,-47,-49
15,-19,-24,-13,12,-5,37,94,82,35
5,-1,44,73,48,14,6,53,33,-3
-60,-20,87,117,54,-1,-43,-65,-93,-96
-80,-24,87,86,46,-6,-34,-59,-93,-92
73,73,49,-47,-26,-1,-18,1,10,56
90,33,-2,-98,-58,-21,-66,11,34,86
-14,-26,-37,-40,-15,-31,-74,-45,-41,-33
-132,-97,-48,96,58,13,-46,-78,-96,-127
-105,-39,-46,83,18,-16,-67,-101,-67,-122
-33,25,-4,-10,-46,-79,-96,-120,-57,-92
-106,-21,129,70,-3,-65,-93,-132,-98,-132
-127,-58,231,150,74,4,-21,-87,-54,-121
87,147,268,93,75,69,68,20,76,45
170,188,234,27,45,81,90,92,173,154
129,129,178,-1,32,70,63,92,174,136
72,96,103,-49,23,77,78,106,178,91
59,23,-68,-180,-37,56,101,159,248,156
38,1,-88,-124,-11,11,21,56,138,95
-58,-63,-90,22,71,-7,-45,-63,-66,-56
-45,-31,-82,53,71,-16,-50,-75,-69,-51
-17,7,-10,33,10,-33,-58,-74,-30,-19
-8,-11,-38,-58,-77,-53,-33,-40,-7,13
18,-30,-123,-127,-101,-30,11,25,49,61
27,-38,-123,-103,-23,50,61,71,93,83
-64,-91,-211,-55,33,29,-20,-37,6,-27
-117,-143,-213,-85,-31,-55,-96,-104,-79,-100
-92,-101,-87,-70,-56,-62,-55,-74,-28,-61
-31,-29,2,-37,-44,-34,13,-17,20,5
-2,10,54,34,7,-1,8,-20,-4,9
31,48,11,34,37,14,-8,-12,-30,8
64,80,-128,-49,-11,-12,6,13,4,33
57,37,-105,-87,-37,-22,14,52,45,50
-29,-127,-104,-56,1,12,32,90,31,32
-44,-119,-77,-50,16,-8,6,33,-26,-14
21,19,8,-80,-31,-45,-28,-15,-11,-4
-13,-6,40,-39,-22,-50,-46,-26,-33,-46
-34,-40,28,0,14,-1,16,47,-9,-28
82,113,81,4,12,41,79,126,141,81
55,101,93,38,37,46,60,63,85,24
12,47,13,42,40,20,2,-10,-24,-38
-54,-45,6,46,41,-20,-36,-34,-91,-94
-63,-55,41,31,3,-37,-75,-56,-116,-114
17,3,4,-10,-33,-39,-35,-39,-48,-50
-17,-81,-52,-19,-37,-29,11,-6,-11,-32
-36,-60,-1,5,-22,-30,24,-10,-18,-50
-23,-5,63,45,11,-3,25,-11,-15,-52
-44,-29,75,104,80,52,5,-11,-44,-71
-35,-22,88,134,73,21,-8,-19,-70,-68
-17,-9,105,142,35,-21,3,-20,-54,-44
1,-15,87,84,-19,-13,31,31,48,4
13,-34,43,10,-50,-14,56,72,109,41
-12,-7,41,46,29,18,47,31,37,1
-3,22,11,31,86,57,14,22,-17,-15
7,-25,-87,-66,48,46,-15,17,-20,-18
18,-14,-98,-108,-14,26,-27,7,-5,-3
-2,-38,-28,-105,-28,17,-18,14,-46,-10
-82,-130,-38,-55,7,27,-9,22,-31,-55
-83,-117,-20,-34,-11,7,-31,4,-24,-78
48,39,-4,-113,-101,-38,-71,-1,-7,4
57,40,1,-99,-93,-34,-35,29,46,37
-8,-13,4,-27,-41,-21,-63,-24,-41,-38
-48,-11,40,2,-34,-52,-99,-76,-128,-76
-67,-66,-17,-33,-44,-33,-61,-39,-61,-46
-41,-67,-69,-36,-31,-20,-6,-5,-16,-3
21,37,50,-13,0,-14,3,-20,-8,19
40,72,82,-30,18,14,28,-6,-8,31
-3,17,49,6,58,1,30,-21,-53,-10
-1,15,6,28,61,-6,-7,-43,-68,-28
-3,64,-3,33,37,-22,-71,-91,-82,-70
-70,-27,-8,46,30,-30,-78,-60,-87,-84
-31,-74,-1,-4,23,20,2,24,34,9
69,76,90,-68,-25,18,5,28,82,73
48,69,19,-76,-56,-3,9,43,73,65
5,13,-113,-47,-48,-3,-5,26,46,32
-32,-10,-112,-31,-33,-32,-40,-27,-4,-19
-73,-70,-101,-22,-15,-23,-56,-56,-44,-59
-65,-94,-89,-6,9,15,-23,-38,-50,-57
-10,-11,-29,11,47,35,17,-4,1,-11
46,24,-3,0,47,42,57,49,66,65
86,52,29,17,34,38,59,62,78,91
70,63,70,38,33,36,42,33,27,48
56,100,80,42,53,51,64,56,57,40
54,79,24,23,74,66,88,113,106,69
50,25,-7,-12,30,25,45,91,52,58
23,3,-33,-6,-9,-3,10,52,16,11
-35,-26,-31,68,24,-4,-24,-13,-51,-54
4,22,3,48,12,-31,-60,-62,-106,-61
42,52,-21,-41,-59,-68,-61,-81,-51,-25
18,20,-126,-98,-110,-106,-89,-93,-37,-30
-13,-3,-72,-56,-85,-79,-68,-59,-41,-31
-62,-81,64,-6,-20,-42,-27,-27,-47,-23
-47,-54,173,67,35,28,18,-6,0,-1
31,63,212,80,36,39,26,5,44,38
-24,8,195,134,54,50,24,4,33,2
24,59,221,152,39,35,7,-10,-22,0
28,107,212,92,-2,-2,-28,-57,-48,-20
4,69,125,66,-2,-13,-59,-58,-31,-29
0,26,-11,15,1,-20,-64,-24,-16,-29
-7,-48,-114,-42,9,-5,-51,-22,-26,-40
8,-75,-116,-54,23,5,-19,-3,-7,-9
2,-116,-157,-14,25,17,29,27,26,16
6,-120,-216,-34,-29,-11,26,18,16,23
9,-100,-158,-35,-18,4,37,27,25,3
-7,-84,-141,-1,53,54,89,53,45,4
42,3,-56,19,52,37,103,33,42,26
-15,-10,55,66,58,18,64,-5,-12,-20
-45,-28,113,98,42,28,36,-16,-16,-50
51,51,125,36,-18,14,49,29,51,35
65,22,81,-7,-23,6,77,51,52,51
0,-55,-22,-30,-34,-26,39,4,-75,-32
-1,-68,-115,-51,-124,-93,-40,0,-101,-31
13,-95,-119,-28,-140,-94,-47,48,-33,7
-50,-178,-168,25,-27,-15,16,71,-18,-22
-22,-129,-104,84,17,31,-19,28,-56,-30
-7,-74,-9,133,41,33,-70,-7,-70,-26
0,-50,-9,61,60,20,-53,0,-74,-7
17,-23,-1,-42,40,-1,-32,-8,-67,0
10,-13,22,-38,9,-14,-34,-36,-52,3
18,-7,-57,-54,-18,-31,-19,-29,-4,21
24,37,-89,-68,-18,-17,-15,10,29,40
-87,-60,-74,36,40,5,-39,-23,-48,-51
-102,-110,0,116,85,18,-54,-58,-56,-84
23,9,93,92,42,18,-37,-59,9,-34
27,-8,49,-9,-29,10,-17,-40,28,-28
18,-48,-5,-104,-78,1,9,0,43,-25
20,-24,-42,-168,-126,-18,0,23,13,4
1,-8,-34,-138,-106,-27,-5,29,62,22
-47,-43,-19,-52,-35,-27,-16,-16,26,-20
-47,-30,-40,5,-30,-44,-39,-50,-19,-30
10,24,-63,46,-50,-48,6,-17,3,18
-11,6,-54,94,-21,-4,39,-3,30,12
-50,-35,-40,78,-37,-31,18,-36,-2,-20
-68,-40,50,45,-21,-74,-61,-92,-106,-63
-47,7,111,47,-6,-100,-97,-141,-189,-95
-5,63,99,6,-53,-76,-27,-37,-54,-8
-58,-49,-61,4,13,40,70,90,56,33
19,-1,-58,-70,17,59,102,85,28,64
80,25,-33,-143,-23,24,107,83,38,101
52,-13,-55,-130,10,36,73,82,36,87
-24,-50,-43,-20,74,62,29,26,-32,-1
-38,-47,16,-12,63,50,10,0,-48,-30
-33,-45,38,-66,8,0,2,8,0,0
-14,-54,34,-27,-7,-18,-10,-3,-8,-8
-4,-3,20,-1,-20,-23,0,-19,-31,-3
-52,-21,58,3,-21,-15,6,-24,-51,-31
-52,8,79,14,-17,-30,-9,-25,-54,-46
1,27,65,-4,-38,-26,3,11,-7,12
-12,-7,84,32,-42,-28,-4,-4,-12,12
-104,-62,117,150,17,-3,-28,-64,-112,-98
-59,3,130,146,16,-1,-35,-62,-102,-71
19,80,130,93,1,-28,-34,-53,-56,0
12,38,-19,13,9,-31,-45,-41,-23,-1
32,46,-127,-33,-16,-41,-41,-26,1,18
18,-13,-91,-51,-28,-25,-18,20,43,44
-33,-77,-70,-31,3,19,-21,24,17,2
18,-19,-1,-30,-15,7,-10,4,3,-14
82,61,50,-22,-15,34,43,65,77,41
62,58,42,6,43,75,73,96,120,43
57,64,10,-26,12,62,37,68,96,45
42,40,-55,-29,-45,21,11,37,63,40
-59,-53,33,84,-9,9,-1,-13,-3,-60
-40,5,137,139,28,32,-10,-34,-55,-77
113,163,119,37,1,36,3,6,-7,38
85,91,65,47,18,28,22,29,7,37
-15,-10,33,111,56,34,23,13,-23,-26
11,-3,1,70,45,32,0,2,-21,-4
64,42,-51,-57,-27,4,-28,-1,-1,29
17,-31,-126,-87,-54,-18,-27,3,6,9
-5,-8,-103,-30,-39,-23,-33,-27,-28,-22
64,103,16,-43,-67,-17,-19,-12,4,20
91,111,34,-65,-68,11,-3,29,48,64
78,90,-7,-112,-67,15,20,62,89,65
6,-8,-118,-169,-119,-49,-28,7,44,16
-77,-52,-102,-105,-115,-70,-70,-66,-49,-66
-127,-67,-12,-16,-46,-27,-53,-75,-85,-107
-6,44,95,-39,-51,-12,-31,-18,-5,8
64,70,35,-59,-48,-10,-12,18,46,68
-13,-18,-68,-3,27,40,14,18,16,7
-86,-57,-95,48,91,85,35,8,-2,-38
-67,40,32,88,87,73,36,11,11,-29
-8,99,103,97,37,3,-17,-32,-27,-17
15,108,51,56,-28,-71,-84,-71,-80,-27
-34,20,-32,13,-26,-68,-49,-31,-57,-26
-16,22,39,-2,-3,-36,-14,-20,-20,8
-14,65,159,12,30,-16,-40,-33,-39,-12
14,21,93,-53,12,5,6,38,32,41
59,0,2,-43,5,30,48,75,74,99
2,-33,-21,75,47,41,32,25,1,36
2,3,3,92,40,22,25,15,-15,17
43,31,4,3,24,36,65,70,45,65
45,2,-80,-81,43,71,104,116,87,104
22,-9,-84,-66,54,65,84,89,73,75
21,25,10,18,70,45,47,18,7,14
72,84,29,-4,8,3,69,34,50,44
88,76,9,-41,-44,2,129,133,176,123
2,-31,1,-16,-19,33,127,105,135,47
-50,-70,9,20,13,32,59,-7,-8,-48
81,94,16,-4,-21,2,29,-20,-10,35
111,105,-51,-40,-35,-9,34,19,31,76
38,6,-146,3,21,32,38,34,40,22
16,32,-65,52,58,53,39,-2,-4,-18
34,96,75,83,59,55,30,-22,-21,-17
-4,67,69,61,39,27,7,-49,-44,-35
-50,0,-27,-33,-15,-38,-35,-67,-50,-55
-62,-32,65,-30,-13,-33,-32,-60,-49,-73
-58,0,130,25,-4,16,-11,-54,-53,-60
-62,-28,20,84,29,50,-24,-58,-80,-67
-39,-22,-4,132,71,57,-53,-61,-64,-66
-25,9,109,100,-3,-24,-108,-79,-67,-63
-70,-31,118,35,-60,-56,-100,-71,-69,-76
29,60,102,-99,-128,-84,-99,-52,-20,-11
69,81,136,-126,-134,-82,-94,-27,-9,17
110,85,70,-153,-90,-37,-20,54,60,101
72,48,-3,-111,-42,3,38,88,69,99
-1,47,-10,-20,-1,0,0,0,-35,-3
-5,-3,-220,-85,19,3,-10,-5,-54,-21
49,31,-281,-133,18,24,14,58,71,62
66,78,-131,-22,42,38,33,78,145,95
47,29,-54,76,33,5,-10,22,92,66
-46,-23,6,138,61,15,-30,-31,3,-6
-107,-54,48,123,96,56,15,-3,33,-31
-47,13,36,-27,54,29,37,15,71,12
35,57,-7,-142,-40,-8,36,23,63,72
30,31,-28,-88,-54,-5,56,55,120,99
10,27,-13,-20,-1,21,75,50,108,77
-54,-1,-59,27,47,44,54,-5,38,6
-81,-31,-6,93,46,25,25,-24,-5,-11
-55,-32,33,93,29,13,5,-16,-8,13
-31,-6,24,76,36,18,-18,-5,27,26
-41,-36,-4,63,36,0,-37,-16,-3,-2
-58,-38,-53,51,22,-37,-80,-58,-59,-44
-18,36,-31,-14,19,-28,-74,-40,-3,-12
-21,9,-37,-81,-15,-29,-17,12,74,13
-37,-66,-30,-95,-43,-22,18,47,83,17
-38,-53,3,-45,-5,18,39,19,13,0
23,21,10,-25,29,55,44,32,50,37
52,17,5,12,39,79,62,78,100,87
12,1,41,76,50,55,26,35,35,31
4,51,54,54,24,36,16,18,-20,-14
-30,52,49,65,27,54,32,49,21,-25
-104,-61,-3,61,38,30,-6,4,-36,-68
-18,18,-41,34,8,-10,-38,-37,-75,-33
30,41,-107,21,-5,-37,-54,-38,-56,-5
40,35,-42,-24,-3,-27,-48,-27,-19,2
25,-2,-7,-49,6,-31,-44,5,-9,-2
22,-17,4,-14,24,-23,-30,24,-18,-1
42,28,0,12,5,-12,-39,14,-3,0
37,12,11,-6,-39,-39,-45,-3,-1,-1
1,-13,31,4,-48,-53,-29,43,17,10
-38,-52,40,60,-3,-27,-18,75,-13,-15
-64,-53,87,122,21,-35,-40,19,-61,-68
-54,-16,101,107,-24,-70,-83,-48,-84,-77
-118,-106,31,70,-76,-87,-108,-77,-125,-125
-142,-129,0,34,-76,-100,-152,-118,-168,-155
-36,-7,20,-23,-57,-71,-88,-51,-93,-74
-35,-6,-3,-101,-63,-56,-62,-52,-94,-64
-73,-61,-99,-161,-84,-62,-86,-107,-140,-105
-44,-46,-86,-139,-53,-28,-33,-72,-64,-72
-24,-38,-40,-80,-12,25,20,-20,-27,-39
-2,-38,-104,-25,22,65,70,27,31,-19
73,95,37,37,42,67,89,42,70,20
138,214,68,66,40,49,70,51,73,54
135,136,32,-5,4,22,71,69,67,83
66,0,-40,-43,-24,2,49,98,53,80
19,-49,-52,1,0,0,-20,53,14,46
32,55,43,45,28,-9,-51,-20,4,7
26,57,65,-2,32,-6,-24,-14,25,-8
11,-34,9,-33,44,38,7,38,42,-4
37,-26,-14,-36,41,52,35,88,55,38
39,-6,-54,-15,59,56,50,89,51,43
5,-11,-16,30,63,29,32,24,32,-1
34,32,53,27,22,-20,-13,-38,15,-26
71,48,26,10,-8,-26,-51,-54,-19,-30
37,26,56,19,12,-16,-62,-49,-72,-50
13,-7,47,19,40,11,-17,-15,-17,-34
36,-19,-5,-26,46,41,23,52,68,23
59,11,-46,-77,37,51,70,121,162,57
10,-12,-5,-23,63,41,51,86,112,6
-59,-49,26,24,58,-14,-46,-55,-76,-114
-66,-69,-9,0,16,-49,-67,-80,-114,-131
17,16,-4,6,4,-26,-12,-13,0,-44
92,89,22,57,28,-18,4,2,33,22
66,43,27,91,56,9,8,2,6,19
32,45,51,49,25,12,-5,7,8,7
2,20,46,-7,-24,-36,-31,-6,18,4
-10,-11,16,-44,-35,-28,-15,-20,-4,-18
10,10,-1,-69,-30,-11,-7,-15,-19,-19
10,0,-31,-35,-12,-18,-2,-27,-29,-22
-30,-59,-57,-13,-10,-21,3,-46,-49,-51
-55,-107,-83,-19,-21,-43,-31,-70,-115,-72
-15,-44,-59,-68,-50,-67,-37,-77,-77,-45
53,43,8,-61,-44,-25,0,-4,12,23
23,-4,38,-43,-4,11,20,35,-8,45
-31,-50,78,59,42,37,23,17,-64,9
-67,-56,90,185,103,20,24,-52,-144,-65
-83,-67,44,176,62,-22,12,-83,-120,-76
-69,-55,5,126,30,-11,16,-57,-38,-49
-76,-39,8,107,23,-18,-8,-76,-59,-69
15,32,-22,-38,-19,-17,-1,-36,-21,-14
75,42,-130,-160,-50,0,12,12,12,91
26,-49,-245,-166,-37,36,70,67,94,99
130,46,-228,-189,-77,14,70,91,152,164
141,74,-112,-122,-64,0,51,54,77,129
49,42,-128,-77,-21,18,64,34,36,50
15,25,-29,-51,-23,20,61,34,73,27
46,55,-29,-32,-2,48,97,86,161,94
15,29,-28,28,53,61,65,45,76,49
-24,9,-71,46,44,31,10,-20,-24,-13
-36,-16,-73,28,17,-9,21,-17,-4,-6
-34,-41,10,15,-17,-29,12,-17,3,8
-15,-11,9,-24,-42,-53,-19,-54,-41,6
-33,-2,3,-25,-44,-57,-30,-84,-64,-26
4,34,23,-13,-73,-72,-18,-31,7,26
-9,21,28,-12,-99,-98,-7,11,60,40
-146,-102,-5,107,1,-39,-54,-45,-84,-104
-98,-47,72,172,54,17,-13,-16,-86,-65
-44,-2,190,215,46,-5,-66,-52,-94,-49
-68,-24,219,187,42,8,-84,-67,-81,-79
42,102,263,52,27,17,-33,-14,-15,5
90,161,272,-32,38,59,43,41,53,70
10,135,217,-57,-3,26,19,-5,-8,-5
-77,43,125,-54,-78,-48,-114,-110,-146,-102
-92,-45,56,41,-44,-17,-75,-68,-71,-70
-95,-50,110,201,28,23,-41,-55,-32,-56
-45,-31,61,226,38,24,4,-15,-17,-2
35,-42,-102,90,49,56,84,110,47,99
90,24,-155,-34,51,93,119,155,130,138
87,17,-227,-186,4,65,105,138,150,129
54,-19,-247,-255,-42,23,90,132,141,121
15,-43,-229,-224,-20,13,60,83,56,71
-14,-52,-223,-152,19,31,51,49,29,28
-7,-32,-118,-92,9,26,37,33,40,32
-29,-19,-51,-65,-12,-10,-7,2,-1,8
-49,-50,-34,-65,-17,-14,-10,10,-28,-2
-11,-42,4,-36,-15,32,28,58,66,37
53,73,48,37,7,63,17,77,116,71
97,151,66,32,-14,46,0,67,100,88
15,20,20,5,14,47,-11,12,7,10
-16,-40,-24,-26,33,67,21,1,26,-19
64,99,75,8,1,23,-3,-29,19,11
-11,77,89,69,6,-16,-32,-84,-65,-50
-22,-28,-105,49,-2,-8,-3,-49,-59,-25
-19,-53,-79,59,14,31,28,-23,12,0
-33,-28,16,54,9,29,22,-33,-3,-16
-30,-49,6,4,-32,8,5,-16,-4,0
-52,-65,5,-24,-32,15,11,-8,-23,-11
22,-11,18,-83,-50,8,49,39,38,33
-9,-19,51,-16,-18,8,28,7,-5,0
-30,-7,103,27,-38,-42,-32,-66,-79,-53
-11,57,162,17,-59,-61,-87,-95,-75,-64
-60,49,187,40,-56,-76,-148,-138,-126,-110
-83,14,153,35,-74,-87,-151,-137,-120,-96
-56,-19,103,27,-95,-91,-131,-86,-89,-52
-50,-64,90,91,-20,-13,-45,-10,-1,-12
3,-29,78,114,70,70,45,49,71,34
56,3,-44,-15,46,67,65,95,118,97
-2,-48,-81,-75,20,18,24,57,89,52
-90,-91,-37,12,68,33,20,26,54,-27
33,87,24,16,84,47,35,53,94,34
97,113,0,-44,40,25,3,8,37,48
93,68,-2,-59,-17,-15,-22,-59,-64,19
82,85,46,-24,-24,-33,0,-55,-37,31
40,1,-29,-54,8,10,62,40,44,58
24,-69,-130,-103,9,36,74,96,94,62
22,-78,-130,-71,27,40,54,90,100,48
29,-73,-40,-22,5,21,33,71,89,30
7,-67,-14,-11,-2,4,20,20,13,-21
17,-45,-14,-40,-17,-26,5,1,-44,-28
9,-40,0,-16,-20,-31,13,1,-54,-19
-5,-49,-28,6,-10,0,27,29,-6,-23
-15,-33,-54,30,19,7,-2,9,-62,-52
1,27,23,50,20,-9,-46,-54,-92,-71
40,61,4,31,-2,-14,-50,-41,-33,-30
63,87,-84,-12,-21,-4,-25,-7,31,4
1,-17,-70,-21,-16,7,-6,0,34,-20
-30,-102,-47,0,32,23,44,20,-21,-23
90,-10,-24,-30,5,14,27,11,-36,40
107,-4,-4,-47,-5,12,0,-10,-44,41
44,-28,49,8,-2,-4,-28,-37,-75,-21
39,-32,60,31,-8,0,-55,-31,-88,-21
71,2,35,7,-21,-21,-38,-3,-30,15
85,-15,-11,-75,-83,-64,-33,38,28,45
3,-70,-5,-54,-26,-10,-16,16,-6,-11
-50,-82,24,25,41,32,-21,-56,-89,-89
25,3,27,-6,2,11,-38,-44,-69,-32
23,-39,9,-4,-17,-10,-44,0,-45,13
-12,-57,23,21,6,-17,-51,2,-56,6
-14,0,62,40,26,-2,-39,-56,-68,-31
7,28,71,30,-11,0,3,-55,-7,-16
-21,-12,38,5,-26,10,32,-45,-6,-22
-120,-94,-52,-52,-37,-18,-22,-73,-62,-92
-144,-81,-67,-66,-62,-50,-87,-90,-73,-112
-107,-53,2,-17,-38,-44,-52,-76,-51,-82
-69,-62,82,20,7,-3,-6,-38,-8,-28
-34,-41,89,74,73,38,13,10,1,27
17,32,10,184,153,93,79,57,15,72
43,61,-26,193,141,83,106,64,30,65
46,55,16,89,6,17,45,22,39,45
-4,50,51,29,-56,-12,5,-25,24,-16
-75,-64,-10,-9,-42,-11,19,-14,22,-47
15,-7,-7,-62,-91,-34,14,8,60,29
-8,-7,11,-51,-78,-35,-5,-18,24,-8
-54,11,-3,-19,-29,-4,19,3,49,-37
-14,40,-13,-73,-71,-14,16,48,80,2
-13,18,-17,-72,-99,-42,-37,-3,0,-14
-59,-12,-8,-21,-35,-27,-47,-37,-33,-59
-54,-39,4,16,58,38,6,7,-2,-56
-44,-32,27,55,116,80,40,25,-1,-43
5,27,21,36,105,74,21,26,-17,-17
10,46,16,39,69,38,12,26,-2,-11
-1,67,30,39,27,7,35,14,49,-20
-53,2,-64,-7,-49,-57,-42,-85,-46,-83
-104,-88,-204,-25,-75,-100,-87,-150,-147,-149
-129,-127,-88,24,-78,-112,-106,-149,-183,-164
-68,-57,80,8,-80,-77,-55,-69,-61,-86
54,61,174,-24,-34,-8,22,33,54,39
25,28,89,45,63,78,98,101,103,60
70,71,-82,48,101,119,115,143,114,95
135,108,-79,-67,51,80,94,149,99,121
23,-58,-63,-95,38,45,41,94,32,39
67,-15,-39,-76,39,57,64,77,136,89
25,-9,0,-21,77,50,54,40,47,46
0,-16,31,24,72,36,16,7,11,2
44,58,65,33,28,8,-23,-3,41,14
21,43,69,59,18,-2,-44,4,8,18
-19,-44,37,69,20,-8,-45,-13,-9,-3
1,10,116,93,-24,-54,-61,-45,10,4
-19,39,207,149,-27,-53,-64,-54,-14,-37
-63,36,242,196,34,4,-39,-48,-51,-70
-26,63,232,173,32,-7,-31,-30,-44,-32
-30,41,184,150,52,-4,-28,-37,-58,-41
-8,33,61,49,77,27,23,-6,-30,-6
12,0,-73,-75,24,0,29,24,9,31
-15,-56,-229,-200,-76,-65,-29,13,36,25
-45,-68,-259,-244,-105,-94,-73,-36,11,-7
-87,-69,-123,-84,-6,-41,-77,-109,-87,-81
-27,-55,-143,-42,60,-8,-29,-64,-86,-34
54,22,-98,-74,34,12,25,15,-25,58
42,3,-112,-72,17,53,69,57,62,100
37,-36,-175,-165,-3,54,84,96,125,132
37,-47,-233,-196,-37,21,68,107,102,133
34,-35,-185,-161,-46,18,75,108,124,130
-91,-107,-120,-7,20,38,55,33,40,8
-22,-4,-22,27,4,-17,-17,-45,-37,2
134,123,47,-25,-52,-68,-50,-43,21,95
92,96,61,22,-19,-46,-56,-61,-4,42
35,111,59,54,-2,-35,-26,-26,24,14
14,63,31,33,-1,1,33,70,82,57
41,5,-41,-18,-39,5,38,82,50,99
54,-4,-18,-57,-62,-4,23,43,53,90
0,-50,-4,-10,-28,-15,0,2,13,30
-24,-38,24,29,2,-26,-31,-44,-53,-11
-5,21,57,46,8,-18,-40,-92,-69,-31
19,85,88,28,-11,-4,-19,-47,-21,0
2,86,71,53,30,34,30,38,68,22
-46,-19,8,51,56,33,27,27,49,-8
-38,-48,-19,7,10,-14,-9,-40,-4,-17
-73,-71,-112,-25,-36,-60,-79,-110,-68,-62
-124,-144,-90,-15,-20,-77,-116,-128,-135,-113
-140,-153,75,71,33,-34,-92,-115,-125,-136
-32,-26,148,53,20,-26,-46,-67,-44,-57
123,97,99,-51,-26,-16,15,32,65,80
94,-2,-17,-90,-44,17,56,93,94,82
88,-19,-82,-91,-53,7,76,87,94,72
133,66,-19,-64,-80,-45,34,45,94,96
108,104,32,5,-62,-67,1,-7,36,71
-27,-22,0,84,44,-22,-4,-56,-71,-42
-68,-82,-25,109,89,12,8,-41,-75,-66
-51,-42,-22,99,85,4,-19,-39,-68,-77
-57,-64,-11,38,56,22,25,1,-1,-44
-58,-112,-39,-61,-11,6,23,11,-26,-26
-12,2,29,-59,-27,2,23,-16,-40,-31
-16,54,168,14,-6,-21,-1,-67,-81,-77
-19,58,257,38,-13,-29,13,-56,-55,-55
-26,12,195,51,-11,-29,38,-7,6,-13
-3,1,35,21,8,1,47,44,33,29
31,29,-16,-40,6,36,65,82,83,58
9,5,-12,-60,-38,-5,15,32,34,30
-27,-46,-58,-53,-61,-55,-38,-19,-29,-11
-49,-87,-111,-87,-76,-82,-70,-43,-81,-32
-19,-67,-103,-103,-83,-72,-42,-12,-5,-1
-13,-51,-52,-73,-27,-25,12,25,56,19
-18,-38,4,-58,1,-13,11,6,23,0
-48,-87,-40,-20,7,-21,16,6,-10,-39
0,-49,-155,-11,59,29,64,79,13,22
37,-13,-121,-18,70,50,82,104,40,63
-63,-68,-61,58,89,35,48,47,-32,-29
-54,-40,19,47,51,11,12,8,-49,-34
65,34,-21,-49,-12,-15,33,45,11,61
58,0,-17,-56,-6,5,49,56,8,48
-36,-78,-12,-18,39,31,40,31,-42,-31
2,7,25,4,57,38,86,58,18,-8
64,82,69,30,62,18,80,94,75,43
93,97,98,51,27,3,72,91,93,65
-4,-51,11,-5,2,-22,49,29,3,-2
-32,-57,33,44,40,1,38,-25,-54,-60
-18,-19,84,77,37,-24,6,-64,-115,-83
5,-3,23,54,-3,-37,7,-3,-55,-22
-32,-70,-104,6,-57,-58,5,24,-33,-20
-96,-115,-121,1,-32,-58,-24,-45,-106,-100
-59,-35,19,3,-37,-59,-60,-107,-133,-108
8,49,155,-25,-76,-78,-79,-112,-110,-63
-52,-50,168,4,-18,-30,-38,-66,-72,-68
-60,-138,100,58,57,32,7,6,13,-20
122,93,92,21,43,23,12,1,37,80
129,126,42,-16,15,29,11,4,38,73
63,77,23,29,-1,10,-15,-22,4,34
16,16,7,49,-4,2,-12,-21,0,10
31,8,-76,34,-17,15,11,7,28,35
49,8,-93,-13,5,9,19,8,33,61
-31,-81,-55,-10,63,22,42,16,21,11
-61,-81,12,36,73,36,42,23,19,-8
2,2,32,18,46,55,42,52,56,38
43,96,28,-5,45,72,77,89,94,69
6,45,-3,-19,38,27,31,40,54,13
-41,-46,-91,-47,-13,-46,-23,-45,-27,-41
-77,-77,-101,-43,-41,-75,-59,-82,-78,-84
-125,-83,-36,2,-25,-53,-62,-108,-130,-137
-116,-95,-24,7,-29,-49,-58,-102,-119,-126
-3,-4,-10,-25,-72,-60,-14,-33,-10,0
34,53,36,76,-23,-21,21,15,51,53
13,91,72,174,35,-6,-13,-46,-37,-15
20,108,116,168,51,1,8,-35,-33,-21
-14,43,63,57,50,48,58,52,58,15
-8,-6,-28,-127,16,63,64,95,98,49
-45,-28,0,-81,19,47,25,52,34,8
-12,14,-20,-68,13,18,0,34,8,1
161,192,-33,-167,-31,-2,-4,42,67,97
104,121,-4,-78,-1,14,-10,41,42,67
23,44,26,75,26,0,-24,61,56,49
-69,-30,30,188,116,33,-18,12,-6,-21
-97,-53,16,191,167,63,-30,-36,-84,-83
-33,-30,-29,37,90,60,0,23,-29,-26
23,-13,-57,-100,-8,50,25,79,51,41
40,41,-12,-122,-71,7,14,51,37,44
41,104,88,-5,-43,-8,13,37,52,39
50,126,99,44,-24,-17,4,13,44,22
-7,70,18,-19,-85,-89,-86,-98,-68,-72
-65,-5,-58,-78,-109,-125,-101,-118,-103,-107
-96,-113,-87,-80,-55,-47,-44,-25,-21,-66
-120,-191,-68,-57,-4,5,8,31,34,-48
-17,-50,7,6,32,9,41,30,45,-3
26,48,45,99,138,76,58,0,10,-9
42,107,50,120,144,81,45,-37,-55,-36
56,79,0,76,82,54,41,-11,-36,8
55,20,-43,-9,2,9,50,28,22,46
51,-19,-99,-94,-85,-46,33,58,52,63
68,-24,-92,-131,-115,-46,19,69,67,88
71,6,-43,-92,-103,-54,-5,36,22,70
-27,-9,18,61,21,26,9,11,-22,-1
-83,8,51,173,122,89,57,20,-17,-33
-46,50,77,145,58,21,13,-12,-25,-34
-55,0,59,100,-7,-57,-66,-84,-84,-75
-67,-27,31,88,-6,-66,-112,-107,-112,-92
-37,4,96,77,0,-31,-112,-100,-107,-70
-17,-17,3,14,11,13,-53,-47,-38,-23
69,23,-101,-89,-10,28,34,75,88,95
124,69,-112,-138,-5,45,86,116,137,138
73,44,-96,-112,0,31,53,61,44,73
57,28,-64,-80,-25,-16,-14,1,-10,45
