-28,-19,-153,1,19,18,1,-12,-7,-31
-34,-5,-128,-1,18,6,10,1,9,-30
-50,-27,-120,-10,19,-1,9,8,2,-23
-33,-18,-10,-3,12,0,22,6,13,-5
2,2,38,-1,5,-10,29,12,30,-5
21,11,29,0,9,-16,59,19,25,2
22,28,28,10,3,-14,67,16,17,5
37,43,48,11,5,-19,53,5,36,22
37,42,65,14,8,-23,36,-14,35,24
33,39,58,16,14,-23,31,-32,23,17
14,20,21,4,10,-5,28,-25,1,5
8,0,-50,-7,5,8,11,-13,-6,-6
5,-11,-8,-5,5,0,0,-13,-5,-9
-9,-17,10,-4,7,0,9,-12,0,-4
-15,-33,6,-19,-4,6,24,1,18,-13
-28,-40,15,-22,-2,0,27,9,41,-18
-35,-29,11,-31,-8,-15,23,16,42,-28
-37,-9,19,-35,-7,-12,18,16,34,-23
-31,-2,32,-30,-9,-7,9,10,43,-20
-22,-5,-13,-20,-19,-5,2,3,26,-21
-14,7,-73,-9,-20,-10,-5,-21,30,-3
-5,11,16,12,-9,-4,1,-16,28,23
2,3,40,6,-8,2,33,1,5,21
-6,-4,34,-15,-15,6,33,-8,-17,3
-5,-12,31,-12,-14,9,30,-16,-13,-7
4,-8,41,-3,-14,7,5,-18,-20,5
14,0,47,-1,-11,1,0,-5,-18,5
19,8,-19,-5,-8,-9,16,1,-8,16
27,23,-69,-11,-15,-13,5,-3,-11,14
29,10,0,-11,-15,-10,-16,-9,-26,8
22,0,-21,-8,-24,-7,-23,2,-37,3
11,-8,17,-15,-29,2,-25,19,-46,15
-2,-18,28,-25,-18,2,0,27,-37,0
-12,-11,8,-40,2,-2,16,34,-46,-12
8,-8,-3,-39,6,-3,34,29,-47,-9
8,-6,0,-25,-1,-15,14,11,-32,-9
15,8,16,-11,-3,-18,11,-5,-14,-8
21,6,-85,-7,-7,-10,16,-10,-2,-4
21,-13,-143,-12,-7,-4,14,-8,-9,-9
17,-4,-33,2,-4,1,0,-18,-20,-11
15,-1,36,3,0,4,-20,-33,-15,-10
11,6,40,3,-6,8,-43,-45,-13,-2
6,26,-5,2,-4,-4,-30,-61,1,4
10,24,-42,-25,-10,-2,-30,-31,16,-4
4,15,-3,-46,-9,-4,-8,37,17,-18
5,16,17,-34,-1,-3,-8,47,7,-15
7,19,4,-12,3,2,0,47,3,-9
-5,6,-21,-14,7,-4,16,90,0,-20
1,6,-4,-16,1,-11,20,80,2,-27
-4,14,25,-2,-8,-16,1,47,-2,-30
-6,14,33,-2,-15,-20,5,30,4,-30
-4,15,39,-3,-7,-39,-4,29,6,-28
-6,10,38,-3,-6,-43,-12,12,3,-20
-2,28,45,-7,-3,-46,-8,-8,21,0
2,38,39,-5,-5,-29,21,-19,52,15
7,40,45,2,-5,-14,16,-24,64,21
7,39,27,9,0,-15,-6,-36,58,27
4,41,-17,13,8,-24,-42,-69,42,30
5,46,31,9,18,-35,-51,-91,40,37
-5,43,40,6,11,-28,-6,-14,52,38
-15,12,34,3,-1,0,42,77,43,17
-11,-1,26,5,-9,14,48,74,4,-20
-14,-8,16,-4,-6,15,9,12,-23,-45
-18,-10,18,-5,-9,3,-14,-30,-22,-52
-24,-16,9,-20,-18,-7,-13,-27,-20,-43
-26,-24,4,-31,-25,-20,16,-30,-13,-35
-36,-25,-11,-25,-25,-29,38,-35,-9,-29
-39,-33,-13,-11,-19,-34,25,-31,-11,-24
-32,-35,-45,-22,-5,-24,-15,-32,-28,-22
-12,-39,-59,-14,1,-10,-24,-9,-42,-22
0,-32,-6,0,13,15,15,94,-58,-15
-1,-22,9,9,32,37,55,159,-57,4
25,-17,7,9,28,35,11,83,-73,-1
28,4,-4,12,27,19,-11,22,-69,10
23,15,-13,19,27,18,-15,-2,-48,9
26,12,-26,9,26,12,-31,-11,-46,13
21,2,2,9,19,8,-38,-27,-45,10
13,7,-33,10,2,7,-6,-26,-24,6
10,10,-102,19,-15,2,24,7,4,8
2,7,-12,9,-12,-16,14,37,14,11
6,11,19,-10,-14,-16,2,42,8,10
15,14,-22,-10,0,-17,23,31,27,20
11,6,-110,-4,3,-16,49,41,31,20
-4,-10,-82,-3,-4,-10,54,47,11,4
-16,-24,1,-3,-1,-7,42,40,0,-7
-24,-26,2,-10,-10,2,50,35,2,-20
-10,-20,16,5,-19,13,56,17,8,-16
-4,-6,1,13,-14,18,43,9,8,0
1,1,-80,16,-4,28,33,0,19,3
17,3,-45,13,5,24,55,1,50,19
23,0,33,23,5,7,52,7,45,31
20,-4,18,29,-8,9,36,7,23,18
11,-9,18,23,2,12,25,-8,8,0
2,2,16,21,4,-2,3,-15,11,12
-1,4,-13,0,-5,-22,-16,-5,46,52
4,-12,13,-18,-9,-18,-14,4,92,90
0,-19,12,-17,-19,-24,27,12,135,102
-9,-21,17,-16,-19,-6,40,15,153,101
-13,-24,3,-19,-22,11,34,14,149,113
-21,-21,-15,-6,-22,10,33,15,148,108
-21,-8,-2,14,-23,14,45,26,152,79
-13,3,20,36,2,35,58,29,85,0
-15,9,53,55,36,43,65,16,-22,-88
-9,28,42,48,41,22,39,-11,-78,-129
-11,27,-19,33,36,7,-9,-43,-102,-130
0,12,16,35,27,-4,-65,-99,-150,-142
9,11,76,39,22,-8,-83,-137,-142,-111
14,5,82,30,25,0,-106,-161,-100,-74
4,-1,70,18,20,8,-115,-159,-74,-60
-5,-9,55,5,6,8,-83,-107,-29,-52
-5,-5,58,-6,2,3,-71,-115,-13,-27
8,-6,48,-5,-7,-3,-78,-135,-23,-7
10,-3,33,0,-28,-2,-61,-75,-34,-9
-2,-23,9,-7,-32,-6,-23,43,-27,-29
-4,-36,4,-10,-22,0,-11,124,-41,-41
4,-33,13,-4,-11,19,23,212,-40,-20
9,-46,-11,-13,-3,15,38,210,-22,3
0,-60,-65,-22,-10,7,40,155,-20,-4
-7,-48,-15,-21,-7,10,67,128,-6,17
13,-31,11,-10,9,19,71,96,6,34
25,-22,3,6,12,16,39,59,-6,24
32,-14,29,7,19,19,-2,43,-6,-3
31,-12,41,14,24,20,-13,43,-6,-14
31,-17,-9,20,26,18,-18,34,-15,2
30,-8,-68,18,23,10,-32,12,-38,0
25,-13,1,15,27,10,-40,0,-52,-2
24,-18,-56,21,14,11,-33,-7,-48,-1
15,-3,-130,11,0,3,-37,-21,-56,25
14,-4,-32,7,-10,-2,-24,-21,-10,72
21,-9,7,-3,-10,-10,-25,-11,22,88
25,-18,0,-3,-14,-20,-29,-13,42,104
23,-24,-20,-3,-17,-25,-42,-8,87,148
24,-23,-71,-4,-18,-18,-27,16,169,150
27,-6,-28,-7,-18,-3,-22,49,236,151
16,9,11,2,2,11,-9,48,242,123
8,23,42,21,25,26,2,26,169,58
-1,20,55,20,32,32,11,15,101,0
-13,29,65,46,38,47,26,18,5,-88
-10,44,88,71,61,58,24,-15,-146,-214
-4,38,84,61,48,60,1,-67,-239,-218
-6,16,55,16,15,30,-24,-104,-249,-162
3,5,41,-12,-10,-2,-23,-103,-203,-91
-1,1,29,-18,-13,-13,-21,-80,-114,-53
-9,11,19,-9,-5,-1,-11,-64,-28,-50
-11,0,23,-1,0,-4,0,-53,8,-65
-15,8,32,8,-3,-5,37,-30,9,-46
-13,11,32,6,2,-3,49,2,-11,-11
-8,-3,19,-2,-5,-14,12,2,-12,21
-26,-1,10,-26,-23,-12,-10,4,2,35
-34,-7,-29,-38,-31,-4,4,31,41,40
-32,0,-80,-17,-32,-3,6,45,23,53
-44,-1,-13,-18,-27,-11,-15,19,-36,58
-46,-16,-2,-27,-32,-23,-34,-27,-133,12
-29,-12,2,-7,-32,-14,-46,-36,-142,-12
-26,7,-2,6,-28,-4,-39,-18,-102,-2
-24,7,16,1,-20,-5,-9,2,-65,20
-20,1,29,-5,-9,-7,13,0,-37,22
-24,1,33,-5,8,-5,16,0,-54,4
-20,8,25,9,1,0,10,7,-47,4
-16,8,17,15,8,0,5,11,-47,-3
-16,11,18,23,21,7,16,0,-44,-29
-13,12,13,27,9,6,8,-4,-47,-39
-2,9,-9,15,-11,-7,-7,-7,-25,7
6,6,-57,0,-21,-18,-12,0,1,59
-3,6,-67,-15,-26,-26,-12,-7,-2,41
-6,-5,-28,-35,-29,-46,-35,-29,-29,-8
-3,10,-6,-36,-47,-83,-68,-56,-38,-38
5,44,3,-38,-58,-86,-104,-77,-70,-50
2,71,22,-37,-63,-88,-121,-93,-79,-60
-13,84,30,-29,-56,-81,-133,-107,-71,-73
-15,98,2,-52,-58,-67,-148,-115,-42,-70
-1,95,-71,-48,-51,-76,-151,-127,-2,-54
-8,75,-40,-32,-22,-53,-144,-131,40,-34
-10,43,-22,-10,14,-15,-99,-121,116,-3
10,22,-27,10,50,27,-37,-111,165,2
24,11,-84,0,50,60,21,-93,181,23
22,-18,-71,-32,-4,8,55,-89,172,91
37,-42,14,-21,-23,-41,22,-118,141,123
40,-40,34,-2,7,-28,2,-188,73,68
18,-10,60,21,32,-14,13,-203,24,-16
-35,-19,27,23,20,-1,67,-42,27,-77
-69,-82,-102,10,22,39,192,247,69,-58
-36,-88,-60,43,62,87,257,346,63,-8
-2,-64,25,54,63,87,229,335,0,67
20,-68,10,19,13,40,140,220,-25,169
46,-55,9,-14,-16,8,58,60,-16,219
66,-27,-3,-21,-17,0,14,-27,-3,217
61,-17,17,-3,-13,7,4,-14,77,228
53,-10,23,17,2,23,-12,74,179,247
61,7,15,25,19,31,-10,168,250,233
38,14,49,43,51,55,23,142,235,131
1,20,9,63,85,97,69,94,122,11
0,41,-5,76,81,104,84,52,-8,-53
6,59,77,79,71,61,32,-44,-192,-122
-8,47,55,46,25,6,-43,-147,-362,-194
-11,18,-10,10,-2,-8,-68,-140,-336,-179
-17,3,-25,15,9,27,-42,-98,-189,-120
-29,-9,59,13,17,38,-60,-99,-103,-125
-27,3,54,3,16,22,-113,-109,-138,-112
-14,1,47,2,1,7,-115,-87,-164,-68
5,17,21,-22,-31,-14,-105,5,-214,-131
18,67,-33,-41,-57,-33,-100,73,-220,-221
6,95,-95,-63,-62,-23,-72,80,-174,-261
-5,76,-79,-85,-79,-19,-61,103,-143,-258
17,70,-35,-94,-96,-52,-115,-5,-133,-260
20,61,-71,-81,-95,-74,-205,-180,-156,-298
-5,36,-47,-84,-80,-69,-257,-290,-160,-259
-13,1,-22,-86,-61,-70,-268,-364,-154,-132
0,-29,-25,-77,-50,-84,-273,-412,-166,-24
-1,-61,-46,-70,-57,-88,-297,-433,-164,33
-42,-101,0,-30,-29,-63,-238,-276,-122,6
-103,-147,13,48,54,67,-43,60,-42,-16
-108,-136,37,111,129,180,182,227,0,22
-64,-70,73,109,116,175,274,287,115,181
-27,-51,88,92,107,179,301,404,250,302
12,-35,105,109,128,211,316,422,290,295
29,-14,87,114,126,187,247,361,273,291
39,2,59,92,107,160,128,262,279,289
39,24,52,81,94,147,101,213,296,243
28,34,22,85,81,142,127,191,283,170
44,42,22,78,80,117,117,180,266,141
52,54,67,82,69,99,92,149,230,98
50,67,78,89,64,121,101,122,144,-48
38,75,84,90,68,136,101,86,34,-167
42,65,44,66,47,85,61,30,-58,-160
49,45,-37,43,6,43,-1,-21,-109,-86
50,23,21,23,3,36,-24,-36,-110,10
32,19,52,35,19,56,-54,-43,-145,11
23,11,44,44,28,69,-48,-59,-195,-53
7,-6,24,19,9,37,-54,-68,-220,-62
6,-27,-4,-10,-25,0,-95,-72,-211,41
3,-42,-25,-33,-55,-53,-136,-89,-201,82
-9,-35,-21,-42,-48,-56,-151,-90,-192,61
-22,-22,-16,-35,-37,-35,-143,-86,-176,46
-23,-17,-13,-25,-38,-22,-136,-101,-150,44
-27,-11,-27,-18,-28,-29,-110,-99,-123,60
-15,-34,-82,-22,-25,-22,-133,-85,-84,74
13,-38,-55,-36,-21,-16,-132,-89,-62,84
13,-16,-25,-37,-18,-21,-120,-105,-49,91
7,0,-6,-9,-17,-16,-88,-120,-11,86
29,0,13,-1,-6,2,-75,-65,12,45
28,14,30,13,15,20,22,108,11,-18
24,23,39,22,19,37,99,177,-24,-63
9,12,41,13,11,28,51,85,-71,-84
-3,7,25,-15,4,17,19,9,-83,-68
-15,-14,10,-43,-5,-15,-25,-18,-57,1
-33,-20,-7,-38,-1,-3,-68,-13,-34,60
-41,-33,-9,-18,18,-10,-74,-17,9,48
-47,-17,0,15,25,-7,-43,2,70,49
-35,-12,0,19,27,17,-7,28,123,47
-23,-7,-17,-17,21,-7,0,31,141,15
11,11,4,-5,12,-14,-14,16,125,-16
36,38,15,17,21,-7,-16,-13,119,5
29,39,12,5,31,-15,-8,-10,119,26
18,36,0,-2,25,-5,-12,-19,90,29
39,27,0,0,27,-8,-1,-49,34,43
44,22,-42,-11,6,-39,-1,-61,-15,34
48,25,-28,-10,-13,-51,-2,-75,-45,9
36,29,12,22,-11,-10,2,-83,-27,0
17,24,-27,21,-13,-5,-1,-67,-16,-31
5,5,-36,-2,-13,-13,22,-45,0,-52
-1,8,-3,0,-11,-7,42,-26,13,-35
-2,-8,-7,-9,-24,-14,37,-47,-16,27
-17,-28,-10,-22,-33,-46,5,-85,-61,71
-47,-30,-25,-31,-50,-64,-28,-97,-124,20
-63,-29,-33,-47,-53,-70,-65,-90,-147,-57
-59,-30,-22,-44,-36,-47,-62,-64,-69,-65
-40,-20,-23,-32,-19,-1,-42,-45,-15,-50
-36,-16,-33,-18,-17,2,-37,-33,-10,-35
-41,-22,-115,-12,-15,-19,-25,-34,-17,-14
-28,-10,-71,-14,-15,-23,-4,-38,-15,-3
-9,9,-74,-7,-9,-11,-6,-54,-12,-2
6,9,-140,-3,-9,-8,-9,-46,-14,-6
-3,0,-46,-10,-16,-24,-17,-33,3,2
-5,6,20,5,-10,-27,-26,-34,46,11
1,17,5,0,-8,-23,-32,-49,57,19
11,22,-28,-2,-12,-13,-35,-61,66,18
5,13,25,-11,-13,3,-22,-26,68,8
11,12,30,-17,-19,8,17,18,71,8
12,10,31,-6,-10,12,17,-6,63,-16
-5,5,26,1,-10,23,3,-61,34,-43
-29,-6,21,-7,-15,11,12,-24,60,-72
-42,-7,9,-18,-24,10,48,81,92,-86
-35,0,0,-9,-23,9,77,92,92,-54
-26,4,3,-5,-17,-7,53,40,93,-24
-19,6,0,2,-4,-12,16,5,67,-26
-15,7,1,15,10,0,7,-15,54,-30
-4,20,-8,30,12,8,0,-39,62,-17
17,30,-71,35,0,-9,-23,-65,71,-7
13,35,-59,23,-6,-34,-12,-71,73,11
9,34,23,13,-12,-52,25,-53,68,26
6,35,28,-3,-10,-50,31,-17,69,48
0,27,19,-5,-2,-40,12,0,51,0
2,17,27,-3,-6,-27,15,-39,23,-20
-8,-3,-12,-5,-21,-31,24,-45,-10,-29
-6,-13,-30,-28,-65,-69,15,-32,-20,-27
11,5,24,-63,-88,-106,-3,-68,-54,-27
4,10,32,-62,-84,-106,-19,-106,-85,-48
-7,-3,13,-59,-90,-78,1,-67,-93,-79
-9,-13,7,-77,-81,-49,14,-44,-94,-110
-24,-7,-54,-99,-91,-56,-5,-75,-132,-131
-39,15,-91,-108,-109,-99,-48,-161,-169,-147
-47,0,-16,-121,-121,-117,-103,-237,-148,-111
-46,-21,-32,-131,-105,-93,-108,-263,-110,-76
-2,-18,-75,-119,-73,-95,-131,-311,-72,-29
50,-28,-103,-90,-44,-73,-152,-340,-15,20
75,-40,-110,-88,-31,-54,-148,-335,4,45
96,-13,-105,-89,-48,-58,-88,-282,-24,29
75,-7,-151,-85,-73,-53,45,-32,-17,-3
8,16,-167,-56,-94,-62,147,260,8,-52
-27,37,-40,18,-57,-58,193,401,11,-81
-41,40,138,91,15,-25,132,252,-37,-109
-80,12,168,118,44,-18,19,24,-91,-128
-97,-69,122,103,81,27,-35,-110,-90,-103
-77,-144,41,42,105,75,-63,-253,-51,-60
-85,-179,-42,-3,127,103,-97,-429,-21,-37
-97,-173,-55,-15,121,112,-76,-451,18,0
-81,-107,28,37,102,107,-62,-307,136,72
-34,-29,70,151,138,135,-82,-357,259,136
21,35,15,210,166,134,-108,-547,325,185
115,119,10,197,115,42,-205,-723,299,217
132,142,67,122,27,-58,-183,-623,257,202
81,89,81,34,-61,-81,60,-52,214,87
30,17,15,-42,-149,-41,408,785,182,-7
42,11,3,-77,-137,47,588,1432,141,-25
82,60,48,-62,-51,141,516,1439,6,11
117,97,78,-53,-12,155,362,925,-99,33
102,81,50,-57,-7,132,210,487,-91,22
75,41,-91,-70,4,130,129,324,-24,35
62,-7,-148,-61,9,157,132,292,46,55
12,-21,-125,-75,-20,116,91,218,3,-14
-43,7,-122,-134,-65,12,-21,74,-134,-142
-65,56,-46,-218,-86,-75,-125,-86,-249,-260
-23,78,5,-274,-114,-182,-267,-248,-345,-331
95,99,11,-345,-188,-338,-445,-383,-373,-276
128,144,38,-338,-240,-432,-527,-477,-360,-224
62,147,88,-213,-179,-354,-478,-497,-322,-199
-89,-9,17,-71,-68,-189,-328,-414,-195,-114
-201,-174,-57,38,17,-66,-177,-297,-4,10
-188,-156,-35,119,32,-43,-143,-279,127,133
-130,-10,116,180,23,-84,-200,-366,86,133
-136,87,252,239,17,-114,-300,-442,-26,62
-180,0,183,297,28,-97,-331,-395,-10,55
-160,-88,83,348,74,-34,-242,-288,51,24
15,-60,36,306,105,36,-159,-215,105,-65
130,-109,-64,74,62,43,-154,-408,62,-122
0,-194,-203,-315,-87,-83,-252,-600,-114,-92
-222,-194,-271,-572,-180,-162,-273,-455,-333,-188
-340,-84,-247,-600,-136,-136,-222,-47,-407,-319
-325,113,-54,-469,-53,-135,-337,-46,-417,-288
-190,336,134,-256,45,-146,-551,-663,-460,-196
-52,353,172,-15,155,-102,-611,-1162,-460,-116
-75,75,-5,74,239,74,-226,-855,-227,-62
-177,-187,-268,85,242,235,331,232,114,-21
-148,12,-141,88,158,176,420,831,125,-2
-29,123,111,119,164,284,390,523,48,24
41,-213,101,181,230,411,417,162,30,17
172,-375,-56,177,46,228,309,196,-16,1
312,-229,-73,213,-227,0,238,468,-34,-27
332,-115,41,354,-132,123,209,473,12,16
312,23,33,414,30,251,46,62,51,49
255,252,171,357,28,169,-124,-346,-13,-91
166,294,239,133,-68,37,-223,-486,-85,-155
106,208,119,-222,-270,-131,-339,-605,-156,-5
67,141,6,-300,-187,-75,-271,-707,-180,12
77,214,122,-115,86,114,-16,-460,-79,-125
55,191,113,63,312,209,117,-171,-50,-245
33,13,-101,26,385,144,-1,-174,-190,-251
-36,-54,-160,-88,348,-5,-271,-489,-429,-231
-208,-90,-142,-196,232,-153,-437,-452,-621,-338
-388,-34,-231,-394,33,-226,-441,-196,-699,-492
-433,-5,-264,-586,-167,-264,-482,-232,-842,-571
-334,-6,-162,-578,-310,-427,-675,-492,-891,-529
-280,-117,-165,-535,-353,-588,-839,-656,-735,-441
-290,-234,-132,-440,-279,-524,-802,-769,-521,-382
-307,-429,-124,-135,-159,-316,-587,-560,-82,-204
-192,-457,-92,248,-47,-122,-271,-92,283,0
-59,-211,1,694,66,84,-46,19,376,33
-19,87,144,903,17,226,217,241,305,-68
311,510,357,573,-216,137,247,440,144,-23
677,679,413,69,-502,-302,-178,73,-94,72
439,495,363,-171,-604,-677,-527,-173,-247,12
5,315,338,-140,-358,-518,-513,-311,-250,24
-134,256,292,-18,92,-232,-550,-738,-248,36
-242,277,300,113,411,-171,-718,-1095,-305,-192
-440,140,272,135,397,-245,-808,-1065,-321,-452
-419,-144,23,25,363,-100,-617,-720,-154,-322
-146,-361,-436,-424,445,77,-467,-504,91,9
-282,-292,-647,-735,511,-184,-682,-369,-79,-135
-588,-32,-440,-635,583,-541,-955,-346,-569,-671
-577,73,-201,-507,540,-671,-1217,-889,-1030,-1163
-269,-319,-335,-774,518,-509,-1249,-1225,-1009,-1150
-220,-684,-530,-824,383,-345,-1130,-998,-768,-813
-494,-826,-625,-373,-32,-275,-978,-846,-703,-592
-560,-939,-598,611,-89,-26,-443,-386,-282,-290
-439,-905,-495,1258,-61,516,417,171,229,-26
38,-309,-143,1043,-587,638,610,22,390,274
459,329,705,981,-1161,31,59,-728,219,403
647,628,1389,1325,-1088,-296,-90,-892,383,497
875,820,1429,1290,-796,-439,-106,-328,1039,961
722,700,738,631,79,-46,56,-85,1387,1296
528,397,0,-107,918,156,-79,-468,996,1111
235,-27,-325,-524,1244,-143,-357,-304,438,414
-373,-200,-521,-1080,948,-424,-463,-82,-234,-356
-1002,-169,-801,-1589,551,-396,-427,69,-629,-847
-946,-7,-1010,-1613,-166,-425,-432,540,-585,-877
-738,153,-875,-814,-396,-268,-134,793,-442,-667
-1042,84,-427,640,194,380,574,726,-334,-737
-1176,208,362,1887,533,716,784,409,-234,-863
-932,434,1156,2243,272,331,352,-206,-10,-656
-296,397,1598,2122,-112,-262,-158,-763,132,-413
581,23,1349,1430,-330,-662,-581,-1112,257,110
1093,-534,554,301,-535,-740,-910,-1419,320,658
980,-533,79,-65,-373,-381,-696,-721,529,1024
891,510,94,-45,24,3,-110,494,722,1042
884,1671,114,-501,-36,69,323,1176,593,579
723,1737,-81,-1140,-145,432,1089,1949,645,274
727,1683,210,-933,30,723,1449,1502,477,229
604,1723,810,57,142,505,881,89,-45,-163
144,1667,1240,983,130,146,-64,-829,-436,-747
-714,1183,1033,1387,473,230,-225,-1089,-393,-996
-880,481,543,1025,1041,548,48,-986,-322,-831
-479,-514,-20,40,1185,247,-64,-699,-338,-400
-348,-1233,-483,-959,890,-372,-155,-111,-314,-137
-691,-1056,-534,-1204,570,-275,83,693,-564,-102
-1333,-788,-206,-731,377,416,608,800,-654,-13
-1206,-1429,-101,382,204,686,844,898,-85,274
240,-2353,-355,1610,-121,268,469,910,187,475
1072,-2643,-538,1687,-229,-120,16,381,458,949
858,-2088,-596,622,-453,-195,-168,-126,864,1253
462,-1238,-578,-1023,-1086,-12,254,-100,1048,1156
652,-549,-483,-1837,-1566,75,943,141,1064,919
842,-300,-694,-1632,-1533,-66,1085,462,1368,931
771,-414,-740,-1091,-1208,-141,890,936,1474,1012
768,-328,-393,-389,-729,-177,788,1930,1276,1036
405,-223,69,357,-442,-347,684,2733,897,844
-217,-251,353,1076,56,0,584,2053,552,638
-487,-114,500,1193,539,638,607,1088,565,509
-482,61,640,1336,1027,1137,775,395,551,302
-309,-154,106,1148,973,1328,1272,280,695,143
-1,-82,-398,132,301,917,1480,494,734,31
252,142,-459,-1320,-345,311,1317,444,658,295
303,311,-26,-1448,-818,-322,848,487,420,361
486,296,142,-848,-690,-400,671,781,63,147
527,117,-132,-422,-154,161,637,69,-112,65
30,55,-279,228,76,647,619,-545,-186,-112
45,-166,-530,417,47,745,634,-655,-232,-16
580,-371,-559,451,269,707,630,-599,-63,376
933,-358,-409,-2,396,581,463,-997,153,565
490,-178,-17,-498,82,412,347,-1611,238,342
-72,62,492,-382,-261,239,406,-1351,250,32
-214,448,461,-730,-516,173,953,726,641,11
-267,816,124,-1239,-576,190,1578,2530,916,244
-218,910,-257,-1344,-373,62,1232,2281,685,286
-97,1190,-170,-803,-220,-206,379,982,228,31
-231,1045,120,96,-74,-350,-67,-80,-130,-346
-319,387,319,1050,396,-204,-49,-359,-121,-449
-157,-56,338,1480,818,0,21,-270,-63,-290
59,-496,-83,738,1185,182,-91,-330,-252,-148
56,-644,-496,-690,1289,206,-376,-645,-447,-98
-538,0,-431,-1432,961,158,-615,-1061,-635,-161
-1481,469,-402,-1280,619,148,-452,-1174,-753,-308
-1490,715,-416,-852,541,271,300,-806,-483,-306
-823,960,-351,-785,501,362,847,-662,-317,-372
-33,828,8,322,328,185,599,-382,-127,-292
699,563,601,2234,-143,-423,-30,-225,-24,-150
1120,-497,417,2057,-523,-287,211,699,185,-104
1321,-1841,-489,-172,-531,417,771,1282,551,198
363,-1955,-1181,-1988,-381,696,626,654,491,307
-810,-1003,-899,-1557,-220,366,182,-117,264,96
-1287,-233,-58,54,160,-140,-238,-642,2,-311
-1184,-127,52,245,464,59,122,-762,-141,-591
-921,-384,-279,-7,287,197,293,-1198,-88,-456
-142,-358,202,791,129,-435,-458,-1744,-129,-109
735,-172,1105,1952,-51,-1294,-1107,-1776,-144,242
1192,316,1192,2297,-436,-1556,-964,-1349,275,664
1096,771,433,1677,-707,-957,154,-466,794,665
1374,685,-245,857,-814,-240,1583,2277,1479,608
1705,515,-313,-160,-1226,-416,1448,3943,1580,595
1416,1259,482,-417,-1316,-819,308,2269,830,348
1069,1868,1316,-347,-1132,-844,-261,626,263,101
508,1423,1118,-892,-722,-372,-1,217,215,-109
-149,964,373,-1082,-177,192,454,312,333,-264
-665,1066,-144,-803,264,328,305,21,296,-317
-502,1145,-212,-778,584,191,-273,-625,21,-338
437,241,-512,-1034,460,-49,-705,-979,46,64
423,-1460,-1272,-836,499,-77,-650,-1056,260,320
-49,-2347,-1600,69,968,397,-35,-953,577,503
-531,-2154,-1312,388,534,586,428,-835,1031,795
-639,-1355,-666,295,-460,250,772,-324,1249,755
-785,-759,-18,510,-573,281,1564,1389,1399,426
-652,-202,563,438,-61,568,2006,2985,1396,436
92,481,927,-102,58,444,1491,2230,729,805
375,628,676,-571,-171,-42,383,141,113,888
-102,390,129,-728,-110,-98,-166,-954,178,651
-174,-204,-318,-649,359,367,-43,-1268,439,343
-160,-773,-449,-325,461,616,175,-1400,540,94
-916,-882,-367,108,395,645,522,-802,567,-152
-1198,-538,-241,216,243,545,995,907,489,-299
-661,-151,-165,-58,131,427,1413,2748,552,-124
-129,-100,-199,-321,472,544,1343,2757,505,93
593,-221,-187,-579,409,221,505,1162,176,283
845,-421,-262,-664,-26,-183,-229,-9,-87,327
727,46,-49,-415,-1,-172,-397,-469,-81,257
856,842,131,-553,-144,-192,-374,-585,25,218
511,826,141,-616,-288,-153,-264,-378,88,5
-67,376,123,-437,-14,223,71,-392,-116,-423
-350,25,-134,-460,160,234,-17,-987,-531,-615
-368,-191,-273,-155,246,-208,-636,-1277,-685,-387
-635,-415,-487,133,551,-35,-538,-966,-500,-100
-994,-325,-538,560,799,337,58,371,-228,-127
-307,342,-21,1030,838,554,382,902,-354,-256
301,553,76,374,470,393,151,-16,-689,-382
564,599,61,49,71,24,-47,-85,-507,-278
681,890,161,142,30,-210,-307,416,-211,-96
693,1316,204,-29,410,-29,-280,519,-199,-149
312,595,-54,-366,531,296,167,353,-275,-407
-478,-1268,-257,-49,53,169,422,192,-332,-649
-620,-2416,-328,228,-417,-29,502,244,-147,-241
-468,-1964,48,573,-620,-308,265,564,206,456
292,-741,606,916,-656,-528,67,769,233,742
706,137,674,417,-527,-410,27,595,196,822
530,123,168,-63,-65,-41,92,363,189,770
200,-243,-281,-279,248,181,143,216,132,617
-81,-370,-318,-187,409,139,91,185,222,486
-205,-204,-232,315,502,-66,-200,-42,88,106
-143,-23,-274,24,-62,-152,-202,-36,-132,-339
-94,177,-258,-930,-796,-173,-103,6,-376,-583
23,791,214,-961,-623,-86,-88,-98,-587,-600
-241,1219,626,-787,-346,-197,-227,-299,-718,-573
-1036,752,468,-440,-41,-156,-184,0,-486,-551
-1570,152,364,934,379,6,-250,-66,-387,-586
-1275,-232,356,2071,734,175,-318,-289,-215,-344
-642,-967,-210,1435,665,449,-32,-173,20,-158
-155,-1720,-629,463,94,479,250,136,93,-158
431,-1456,-394,-201,-523,44,97,340,-72,6
1003,-697,-9,-690,-646,-204,47,203,-176,430
781,-237,235,-589,-296,69,280,108,63,640
530,30,401,174,-30,113,94,-235,5,421
361,18,259,718,98,61,44,244,0,173
435,176,-10,167,47,97,256,1347,185,122
344,44,-179,-366,10,114,359,1399,-83,87
195,-94,-188,-266,61,55,333,875,-195,85
-141,-2,-30,41,303,158,196,531,-75,34
-258,440,244,422,428,18,-173,176,-219,-194
-133,938,515,722,407,-271,-477,-72,-323,-348
75,1196,581,890,546,-221,-362,47,-179,-286
40,999,505,593,384,-166,-382,-234,-508,-583
240,479,400,49,-309,-366,-628,-820,-881,-732
503,-222,324,-305,-912,-480,-627,-995,-629,-307
48,-1185,86,-262,-763,-146,-268,-668,138,426
-51,-1210,-104,-382,-347,178,155,-152,737,864
130,-745,-299,-528,-113,322,521,702,818,770
-45,-695,-428,-181,226,479,710,1393,527,443
-81,-484,-290,238,541,524,473,1276,336,267
-41,-217,-80,509,575,423,220,664,73,120
0,105,132,545,403,267,-19,11,-278,-28
90,577,453,654,464,184,-479,-812,-545,-150
19,530,463,528,612,199,-580,-1279,-630,-288
-282,-93,120,345,614,411,-27,-725,-493,-413
-458,-249,127,59,78,259,276,512,-326,-484
147,-81,35,-544,-474,-145,155,1092,-54,-163
791,55,-119,-930,-833,-541,-216,645,-48,136
483,135,-159,-1190,-988,-697,-331,461,-270,-78
199,235,-177,-1148,-896,-705,-455,476,-405,-364
107,428,17,-58,-249,-485,-682,-34,-587,-371
195,449,-124,542,58,-198,-591,-223,-551,-251
221,312,-75,758,215,114,-380,-5,-396,-245
240,296,447,1078,554,488,-35,239,-142,65
-514,-571,-77,224,381,732,651,660,124,100
-848,-1103,-426,-281,64,484,817,767,452,118
-340,-555,-189,-428,-322,-145,228,326,563,443
-169,229,329,-286,-619,-568,-310,-77,270,368
-338,680,739,80,-791,-723,-438,172,14,48
-60,919,712,80,-871,-783,-508,-64,-169,8
169,824,541,69,-689,-672,-511,-345,-115,-7
-154,648,437,36,-448,-471,-308,242,-49,-266
228,666,116,-100,-96,-216,-317,318,-381,-313
722,128,-553,-151,566,115,-537,-316,-662,-59
639,-87,-879,-215,1326,345,-696,-555,-546,0
-4,138,-707,91,2008,437,-687,-458,-363,-268
-428,-335,-929,-107,1461,96,-610,-315,-258,-605
-671,-952,-1212,-604,291,43,146,48,-233,-823
-698,-956,-583,-794,-794,96,612,-101,-490,-793
-322,-540,485,-705,-1577,-461,55,-247,-346,-293
163,-80,1415,-134,-1965,-1287,-638,-408,-66,357
400,113,1588,631,-1852,-1563,-959,-608,136,767
-59,306,965,786,-1074,-825,-359,-168,355,781
-78,667,214,224,-381,-74,239,523,504,639
268,323,-456,-689,-320,95,296,755,347,339
1032,-431,-768,-1432,-541,-73,47,582,63,206
1211,-474,-593,-1147,-418,-83,-8,765,64,292
473,-512,-632,-907,-246,98,168,774,152,251
-145,-678,-566,-176,-79,318,619,766,200,43
-177,-534,52,1061,254,487,742,592,253,153
436,64,527,1509,264,73,-18,-85,80,367
897,894,818,1449,161,-436,-781,-906,-350,217
971,1546,865,854,65,-468,-837,-1201,-502,30
934,1857,630,-5,6,-273,-547,-1261,-642,-158
856,1730,375,-438,-156,-344,-422,-1062,-721,-310
586,873,189,-304,-265,-228,-125,-341,-312,-161
-186,-469,91,322,-43,65,206,356,175,105
-1152,-1587,-299,380,175,293,544,1228,453,97
-959,-1255,-560,-41,312,524,786,1597,516,32
-291,-571,-683,-653,411,639,789,1216,380,17
-301,-202,-737,-912,536,513,319,298,3,-200
-559,-232,-883,-1311,389,221,-284,-570,-353,-470
-851,-693,-1068,-1890,156,45,-569,-1237,-751,-735
-869,-1105,-1026,-1692,285,201,-309,-1372,-651,-561
-719,-1011,-582,-257,479,306,117,-922,-192,-101
-489,-558,90,1616,428,35,292,-232,55,135
-250,-115,811,3272,350,-522,-118,-261,-147,61
-209,122,940,3187,215,-749,-403,-685,-351,-80
-210,477,941,1641,-144,-427,-98,-666,-298,-131
-238,795,991,623,-157,-103,126,-588,-311,-336
-66,1075,837,-193,-146,-1,249,75,0,-377
296,1465,724,-760,-135,137,419,708,303,-137
216,941,435,167,440,382,437,409,182,-42
300,86,18,551,327,335,415,-90,-6,204
-266,-363,-217,-138,-344,61,534,16,0,81
-209,-195,90,-200,-667,-200,616,549,252,94
376,-122,167,-220,-754,-357,444,768,654,500
1049,-50,-127,-575,-672,-295,264,588,798,752
1074,-40,-384,-809,-319,20,341,383,607,650
643,15,-336,-558,-16,104,248,360,317,354
551,170,-99,-119,-61,-100,-96,55,-17,150
531,63,8,110,-98,-118,-239,-175,-138,165
-57,-336,-85,191,-12,34,-163,-204,-207,142
-595,-494,-192,101,99,241,-27,-289,-276,-37
-593,-152,-51,-57,164,296,138,-27,-155,-210
-428,53,-23,-271,113,197,167,270,23,-193
-390,206,-79,-312,126,118,0,211,30,-173
-514,339,-32,-305,18,-21,-204,148,-99,-281
-266,389,-36,-515,-162,-165,-366,7,-240,-90
61,216,-34,-382,-172,-233,-388,-164,-173,233
36,-55,-65,-3,-57,-181,-327,-275,-10,320
42,-134,-121,255,13,-114,-351,-321,89,291
355,-224,-222,206,-22,-109,-449,-480,-25,229
468,-95,-296,-174,-221,-204,-569,-680,-222,127
237,165,-244,-476,-313,-224,-425,-527,-238,-43
128,520,-96,-604,-301,-171,-94,46,-102,-215
31,815,66,-362,-52,-287,-280,113,-335,-492
-45,712,123,-8,256,-231,-436,-237,-528,-576
-262,348,302,713,465,-127,-382,-341,-660,-731
-601,-192,267,1486,925,185,-220,-407,-695,-934
-666,-799,-301,1347,1229,399,-187,-348,-316,-592
-449,-946,-563,544,1178,515,-234,-289,61,-18
-272,-682,-426,424,1150,460,-417,-306,-65,43
-330,-403,-189,214,464,350,-437,-215,-302,-178
-322,-45,248,-243,-517,93,-501,-441,-512,-346
-106,464,552,-702,-1071,-79,-153,-232,-260,-128
196,931,726,-728,-1362,-403,89,241,194,258
581,1206,704,-372,-1137,-522,234,1026,573,502
837,1170,603,51,-551,-300,131,967,424,401
324,398,116,-46,-30,39,97,764,251,207
-377,-591,-421,-387,151,123,42,671,239,119
-360,-507,-545,-746,-74,64,-73,395,231,223
208,-37,-279,-630,-185,-29,-313,-18,72,303
663,-229,-315,-778,-321,-177,-497,-283,-83,291
-109,-534,-463,-933,-370,-89,-287,54,34,115
-595,-371,-188,-464,-147,125,37,277,3,-95
-586,-81,149,132,-135,89,277,418,-94,-321
-572,-10,286,539,-152,35,312,566,-150,-410
-115,25,380,807,8,62,19,420,-184,-162
630,-39,330,823,231,36,-247,47,-169,106
811,37,214,456,270,54,-217,-43,-94,227
488,287,126,-157,79,79,-150,-33,-69,131
-91,229,-148,-716,31,42,-263,-252,-287,-239
-642,37,-387,-713,318,26,-430,-588,-511,-480
-677,-92,-426,-207,507,-61,-526,-813,-411,-226
-501,-49,-245,735,520,-139,-525,-796,-311,-170
-270,3,-32,1105,149,-103,-396,-820,-302,-193
568,-126,-141,189,-341,-78,-216,-684,11,300
733,18,10,-97,-401,-74,118,294,369,539
152,441,549,566,-164,97,421,1236,615,360
-91,356,414,257,47,334,671,1729,792,397
22,75,-69,-175,123,333,593,1354,524,381
232,13,-227,-219,142,277,389,819,301,291
465,123,-81,-118,182,217,202,466,106,100
707,160,-1,-97,112,-41,-152,84,-109,31
407,300,-14,-287,-123,-261,-404,-135,-208,10
25,340,-131,-610,-271,-129,-266,-100,-201,-154
-57,315,-97,-654,-269,-22,-159,-127,-210,-343
7,159,45,-371,-394,-153,-284,-196,-182,-314
-188,-422,-183,-143,-525,-384,-511,-313,-192,-199
-379,-620,-232,182,-331,-304,-364,-259,-73,-30
-208,-321,118,658,180,81,45,-136,11,12
-10,-115,181,504,306,144,-16,-217,-22,-34
-1,181,145,362,149,17,-140,-71,9,-35
153,552,258,465,120,1,-191,-26,-38,-40
354,565,306,629,348,217,-179,-244,-106,-56
233,78,138,531,573,320,-177,-330,-77,-57
-291,-589,-173,139,546,174,-252,-442,-85,52
-735,-767,-412,-280,390,134,-210,-453,-18,129
-717,-412,-372,-497,246,156,-148,-308,-74,-82
-366,-85,-258,-501,-122,-47,-186,-233,-185,-234
169,84,-54,-197,-374,-337,-271,-161,-151,-34
485,98,1,-102,-523,-471,-320,-17,42,177
178,201,-26,-115,-381,-332,-225,-61,126,62
-74,232,-40,-65,-98,-115,-200,-209,113,-190
60,332,81,11,101,-29,-143,336,189,-257
163,287,221,188,332,97,66,965,105,-236
71,-172,-43,256,464,276,220,888,46,-106
-177,-701,-412,26,286,434,384,815,181,57
-323,-656,-310,130,231,408,304,498,113,48
-224,-359,-104,267,245,225,7,-61,-50,61
-126,-134,56,222,141,50,-200,-468,-137,67
-108,-1,124,285,157,31,-131,-237,-126,-37
-99,44,137,419,99,56,43,416,-47,-113
-130,69,158,355,-65,140,56,417,-93,-145
-1,175,154,192,-52,228,112,262,-49,-52
232,213,130,-40,-30,243,199,339,116,140
289,289,161,-224,-104,173,236,398,216,288
169,373,145,-382,-235,-36,137,362,225,243
206,558,84,-300,-194,-243,-158,18,67,91
303,676,29,-86,-57,-340,-444,-401,-147,-43
-75,324,28,-194,-34,-351,-559,-655,-312,-164
-474,-165,-153,-336,51,-183,-581,-823,-454,-254
-645,-320,-471,-596,81,-6,-429,-750,-470,-311
-449,-8,-477,-976,-173,7,-336,-522,-371,-374
-98,181,-247,-569,-1,126,-248,-364,-238,-358
241,95,-12,425,429,200,-219,-323,-104,-269
375,-124,-12,1016,728,277,-208,-336,57,-61
110,-607,-157,1093,747,244,-10,81,222,42
-381,-879,-29,879,322,-31,60,302,158,-78
-397,-489,263,521,-165,-221,102,-4,-65,-134
-104,-175,211,-171,-518,-73,359,-135,92,35
163,104,266,-457,-640,-93,258,252,387,194
440,458,420,-201,-612,-225,87,756,483,258
594,645,390,-2,-454,-217,-13,591,263,313
667,732,216,-67,-309,-64,79,630,201,330
633,722,141,-174,-258,19,173,626,137,233
486,673,112,-192,-94,98,97,155,-70,60
149,334,47,-128,39,197,1,-103,-158,21
-380,-235,-187,-84,167,328,27,-125,-91,12
-744,-526,-304,59,349,454,144,-1,23,11
-634,-390,-94,351,388,197,48,-94,-12,31
-257,-211,-52,256,308,-111,-108,-242,-99,84
117,-84,-23,28,179,-168,-231,-221,-101,121
270,12,28,-57,75,-62,-149,-145,-70,122
563,-11,33,-144,-88,50,26,-229,-111,148
711,-164,-153,-374,-402,-41,154,170,49,243
417,-105,-159,-356,-483,-141,126,758,305,321
76,106,-1,-188,-310,-107,-9,515,202,199
-189,83,39,-120,-135,-58,-87,72,47,59
-269,-18,-51,-161,-36,63,92,147,64,3
-290,-16,-66,-180,-18,124,234,219,110,-86
-428,26,-48,-265,-105,13,81,-53,44,-203
-577,140,-33,-393,-218,-107,-86,-126,-144,-361
-651,213,48,-223,-57,-176,-262,-155,-387,-505
-741,267,158,30,233,-151,-360,-284,-462,-578
-674,386,136,185,382,30,-177,-176,-212,-447
-302,237,-85,484,406,236,141,271,200,-174
-195,-102,-153,829,495,557,494,462,261,-118
-184,-228,-7,750,506,635,504,233,27,-223
621,-337,-55,206,199,282,271,73,32,122
1191,-677,-225,-322,-189,-76,99,50,213,543
711,-431,-142,-636,-388,-134,115,237,424,600
398,-38,2,-266,-292,-40,124,186,460,554
288,45,140,235,-160,-53,57,169,413,461
257,112,178,132,-190,-99,10,159,331,326
213,177,51,-441,-229,-118,-96,-222,118,166
83,196,-92,-647,-275,-207,-249,-587,-140,-52
24,303,-33,-514,-171,-197,-275,-316,-285,-284
8,315,149,-208,26,-20,-140,7,-339,-391
22,243,277,62,100,100,-222,-464,-478,-448
20,278,460,438,104,8,-362,-751,-566,-506
71,555,498,648,47,-162,-378,-553,-557,-553
125,484,191,553,13,-181,-219,-5,-275,-334
-273,-406,-365,219,54,-42,175,677,255,196
-357,-758,-546,71,191,33,240,540,399,512
-245,-571,-350,-49,263,-93,-49,125,227,410
-344,-422,-187,-95,502,-112,-223,-138,-61,21
-98,-373,-142,201,773,175,-122,-388,-237,-140
142,-470,-258,604,945,439,-12,-399,-157,-43
18,-313,-360,477,454,309,-116,-266,79,125
-144,-75,-275,-304,-279,79,-169,-185,75,101
-101,82,-68,-625,-504,11,43,191,57,27
37,236,300,-195,-549,10,361,804,209,68
198,241,441,-8,-415,52,409,759,189,102
295,13,289,32,-194,-6,178,305,8,83
211,5,227,148,-130,-70,28,157,-39,11
53,127,182,79,-164,30,35,55,34,-9
96,120,5,37,-116,139,116,23,51,77
187,136,-113,-16,-92,125,124,139,47,157
181,88,-72,-159,-46,122,19,-49,6,153
19,-137,-133,-167,45,129,-86,-370,14,113
-146,-398,-272,-172,42,141,38,-43,261,131
-114,-293,-143,-121,29,133,183,422,410,150
-108,-51,4,-9,39,81,279,572,201,94
-169,86,98,79,25,-46,177,354,-62,-8
-160,150,112,-27,-7,-214,-63,36,-136,-59
-120,255,77,-110,137,-214,-229,-227,-169,-83
-49,428,112,195,298,-123,-282,-325,-212,-159
214,495,141,574,264,-68,-301,-345,-192,-122
477,210,-114,421,84,-12,-180,-169,36,104
335,-1,-208,-45,-165,71,50,-120,114,192
81,-55,-17,-424,-282,98,118,-402,-1,142
-60,-95,67,-653,-386,-106,-157,-745,-16,141
-116,-86,277,-311,-363,-299,-483,-1018,-86,86
-88,34,291,171,-141,-176,-360,-626,5,25
-75,74,4,141,66,126,113,200,158,-77
-118,-179,-225,-118,124,244,442,867,180,-191
47,-352,-348,-302,122,178,418,1147,148,-90
49,-195,-295,-359,98,61,234,843,-21,-80
-228,-75,-81,-93,127,31,52,392,-145,-278
-219,88,172,232,84,56,-67,35,-241,-399
-72,202,98,71,-119,16,-81,-123,-286,-379
-136,41,-132,-139,-63,135,146,54,-134,-257
-177,-175,-130,-157,75,167,240,181,-21,-105
-72,-45,-7,-143,52,31,95,85,-1,-19
71,108,28,-40,45,-86,-69,-33,43,34
18,138,9,63,80,-146,-179,-142,53,86
-204,76,122,167,45,-174,-199,-120,41,79
-269,-11,273,202,10,-119,-137,-90,-10,39
-190,-75,295,240,-8,-98,-201,-308,-164,-102
147,-270,-18,-55,-142,-104,-197,-436,-117,-27
197,-351,-200,-184,-297,-119,-154,-486,0,118
-54,-125,16,197,-224,-80,-99,-392,57,91
-101,204,287,479,-96,-11,-33,-171,13,50
-43,397,317,425,-83,-12,-66,-217,-69,17
69,340,43,123,-83,-56,9,-165,0,0
188,279,-2,92,-28,-176,86,-77,104,31
147,267,85,259,148,-112,148,-179,150,35
55,23,-46,159,279,26,277,220,197,-10
86,-278,-248,-141,219,-55,291,1247,300,119
21,-59,-141,-232,38,-79,98,927,110,179
44,144,29,-207,-99,132,27,211,-93,19
-134,-165,-190,-526,-129,264,132,56,-104,-84
-274,-457,-298,-539,-162,60,-14,-110,-185,-101
-260,-318,-149,-245,-80,-121,-142,-191,-162,-10
-288,-131,-23,309,145,-125,-220,-161,-56,70
-248,-101,-76,765,394,57,-141,-138,5,110
-113,-31,-22,844,367,235,65,-118,95,151
194,111,229,734,126,96,59,-295,39,101
498,130,354,322,-168,-169,-97,-462,21,90
421,126,249,-213,-295,-372,-256,-541,88,95
50,136,43,-229,22,-208,-181,-466,49,-63
-171,109,-8,147,384,68,-33,-107,-188,-301
-191,20,29,358,592,79,-60,79,-291,-385
-118,56,32,425,467,73,-70,212,-156,-283
11,217,-61,184,119,99,-2,166,-144,-161
110,156,-196,-377,-102,182,241,124,-15,-23
184,82,-154,-732,-304,184,341,237,150,187
72,181,99,-593,-492,-53,102,135,173,245
127,188,350,-266,-559,-305,-199,-172,106,161
184,-57,316,-19,-417,-309,-330,-344,-39,112
23,-131,151,76,-191,-79,-201,-271,-162,89
114,-83,-49,-57,-120,47,-12,-176,-171,124
103,-82,-102,-129,-168,-22,8,-129,-151,105
-2,-96,-79,-111,-161,-24,80,-56,-38,128
-62,-92,-59,-90,-94,-10,207,24,80,135
-93,-22,-84,-57,-34,-57,184,110,147,37
-93,25,-150,-63,-32,-56,172,350,250,-54
-31,75,-106,-77,14,10,212,402,152,-75
134,238,7,-129,15,-3,113,88,-17,-60
147,328,-2,-210,-14,-3,41,-71,4,-60
67,305,-54,-233,-31,5,23,-57,4,-80
84,295,-27,-190,-62,-31,-8,-31,-30,-98
54,210,-11,-91,-58,-64,-25,-53,-31,-113
-134,-108,-145,-1,97,1,21,142,0,-104
-435,-504,-326,-76,260,-4,-23,248,-35,-162
-509,-539,-215,-114,243,-46,-31,229,-10,-188
-433,-392,33,171,258,93,90,78,-46,-182
-322,-262,112,377,209,200,145,-114,-50,-114
-125,-92,19,364,90,177,117,-184,46,43
145,129,11,205,13,18,-91,-389,47,182
320,280,79,98,-9,-160,-286,-594,-22,211
205,241,58,-38,-69,-227,-225,-389,6,92
-19,181,112,-51,-172,-186,-91,-82,55,-53
-174,159,238,53,-142,-45,-18,21,-120,-211
-82,283,194,-226,-181,-54,-64,-231,-323,-230
-117,379,91,-498,-292,-170,-92,-111,-221,-201
71,333,-83,-517,-268,-160,0,315,-21,-116
239,-36,-248,-377,-106,-66,15,179,-16,-15
-31,-418,-263,-57,62,75,80,106,42,118
-388,-386,-174,189,64,141,108,220,84,143
-374,-153,-70,510,177,160,-54,36,-56,49
-118,-59,-136,371,327,290,-83,-145,-66,58
382,-80,-172,6,289,258,-122,-232,54,202
619,-274,-217,-124,212,190,-49,-272,204,368
351,-303,-197,-180,116,175,-24,-371,285,399
85,-94,104,-46,-39,48,-123,-574,34,97
4,48,191,-8,99,102,-53,-539,-210,-96
6,33,0,-282,26,-46,-42,-359,-214,-99
0,38,-125,-387,-292,-348,-119,-138,-140,-125
-78,81,-67,-204,-451,-428,-107,375,-84,-232
-18,240,46,38,-364,-245,127,744,9,-161
23,409,285,368,-215,-165,150,605,84,32
-14,319,417,346,-112,-96,110,452,168,113
-65,121,342,91,-8,-2,94,360,250,45
-110,64,274,135,123,66,79,178,308,14
107,71,165,343,264,174,184,228,397,99
423,-143,-35,416,352,249,378,585,374,142
548,-384,-139,386,218,122,246,460,123,160
157,-244,-71,288,48,29,95,142,7,135
-48,-43,-19,81,3,52,97,31,36,78
-38,29,7,-87,-35,29,63,-35,77,66
-117,48,11,-139,27,83,46,-98,103,-5
-194,85,6,-123,121,151,70,-149,65,-58
-113,108,-19,-38,161,90,-59,-311,2,-52
132,121,-68,-69,100,0,-247,-593,-103,-11
294,176,-147,-182,29,-1,-299,-583,-189,-34
31,200,-114,-210,40,74,-168,-427,-258,-190
-77,187,-28,-214,-26,59,-6,-491,-336,-328
85,270,4,-118,-22,23,77,-272,-234,-352
264,442,154,75,-49,-72,77,323,-55,-257
209,243,170,47,-142,-129,-4,390,-114,-77
111,-239,-101,-39,-148,-69,29,423,-38,193
115,-370,-181,-92,-169,-47,56,260,136,434
-44,-289,-107,-79,-113,-42,-3,35,236,378
-77,-187,-85,-132,13,-67,-172,-155,151,176
-55,-220,-133,-214,45,-80,-263,-191,7,80
-91,-272,-93,-34,124,-17,-233,-263,-211,24
-172,-266,-68,362,276,27,-168,-425,-342,-66
-236,-93,-1,562,316,35,-35,-351,-334,-228
-194,213,185,466,407,67,70,-51,-251,-356
-114,332,148,211,419,91,49,125,-112,-313
-140,259,61,32,128,-19,-86,16,-127,-302
-27,393,46,-247,-116,-206,-252,-119,-305,-319
-57,376,-80,-515,-133,-161,-243,57,-247,-328
-398,-164,-302,-687,-133,129,-66,338,-95,-319
-565,-551,-438,-653,-3,362,144,364,5,-184
-411,-555,-566,-807,0,426,168,150,121,49
-178,-435,-457,-782,-145,255,74,-168,58,40
-292,-544,-16,23,-4,145,104,-369,-139,-196
-286,-385,386,653,51,154,153,-257,-34,-89
77,-17,405,499,-233,-82,134,-1,279,278
401,253,362,351,-394,-320,58,91,389,490
329,325,285,390,-242,-303,161,410,336,445
220,361,246,382,-167,-278,126,594,212,325
243,491,392,590,-32,-179,-27,179,51,220
276,436,340,454,93,2,35,66,80,144
240,-46,41,62,128,69,65,10,154,136
17,-296,-112,-83,52,-14,-72,-210,81,73
-142,-55,-91,-91,-43,-79,-188,-282,-62,-82
1,88,-92,-112,54,33,-127,-293,-160,-91
148,16,-158,-193,10,59,-82,-308,-80,64
112,-128,-353,-422,-177,40,13,-122,74,135
-95,-206,-330,-402,-183,28,184,355,230,51
-237,-63,-68,0,-45,-24,149,417,104,-90
-208,16,56,214,99,-31,-19,-26,-151,-224
-43,-83,8,167,105,20,28,-125,-192,-232
186,-201,-105,90,-27,14,81,152,-17,-59
178,-124,-87,30,10,-67,-53,192,36,42
157,-12,22,143,281,-35,-133,-19,-6,29
140,-18,93,509,494,52,-38,-90,-26,23
18,-139,56,790,575,80,68,-41,-28,6
-49,-133,21,751,348,20,79,88,-10,-3
27,48,168,457,6,-39,52,93,-19,40
-20,22,105,-119,-235,-2,70,48,11,82
-81,24,-11,-533,-343,50,123,38,35,116
27,158,16,-575,-363,19,129,47,137,183
28,229,111,-461,-334,-23,66,-134,184,157
22,212,93,-251,-133,20,-68,-497,80,62
195,125,-81,-157,-38,31,-177,-537,-55,54
328,114,-66,-203,-208,-175,-249,-372,-136,107
201,169,-60,-182,-181,-187,-217,-450,-152,77
174,239,-38,-197,-122,-115,-161,-566,-112,-7
235,266,-94,-298,-32,13,38,-244,-27,-91
73,253,-120,-306,165,164,189,556,105,-244
-28,212,-81,-166,362,196,122,950,-23,-360
-65,154,-113,-140,440,139,-77,334,-317,-346
-308,-6,-123,0,394,67,-135,-119,-360,-350
-652,-409,-163,154,189,149,205,-29,-150,-298
-803,-528,-48,1,-260,81,351,-10,-99,-282
-458,-112,333,133,-444,-246,41,-135,-135,-145
71,149,512,222,-411,-400,-173,35,19,168
584,144,363,94,-389,-329,-242,132,137,417
358,-218,43,170,-34,71,-78,11,161,349
-104,-265,-144,373,228,262,6,-141,87,83
116,35,-114,192,204,273,-49,-258,-10,12
326,45,-152,-198,140,318,-1,-339,-30,117
182,-143,-164,-344,129,326,93,-377,6,165
88,-210,-158,-385,-28,133,211,-69,124,194
-34,-263,-187,-383,-154,0,325,416,376,282
-162,-263,-84,41,-34,10,182,463,425,197
-183,-216,-26,262,127,22,82,459,340,44
-35,21,185,353,180,-54,-7,492,194,19
83,250,277,278,80,-40,51,426,54,58
-18,231,145,80,-107,-1,156,340,66,9
-179,172,80,22,-153,-20,62,114,0,-112
-185,208,129,-7,-87,-81,-116,-49,-35,-65
-109,219,175,53,-76,-117,-178,-75,-35,-25
-26,156,174,88,-38,-54,-83,-70,-31,-45
28,51,94,28,19,2,40,-107,-103,-111
206,15,4,4,119,53,100,87,-122,-80
365,-49,-106,-74,152,53,0,77,-89,37
258,-73,-149,-119,106,118,-98,-307,-105,137
171,-73,-81,47,104,173,-167,-584,-127,118
-66,-211,2,291,204,98,-288,-734,-168,-22
-403,-254,70,266,255,19,-331,-866,-198,-150
-388,-123,31,-35,248,-8,-238,-837,-202,-132
-343,-53,-173,-433,41,-40,30,-123,-154,-59
-377,-23,-317,-565,-258,-51,237,679,-10,-39
-265,107,0,-130,-255,-42,136,474,-26,-88
-56,150,172,78,-233,-110,-67,-64,-98,-121
178,136,158,97,-183,-173,-219,-380,-136,-130
290,-28,130,56,8,-124,-189,-389,-37,-112
115,-105,62,-37,28,-98,-203,-463,59,-60
-188,-48,-29,181,86,-47,-181,-525,118,-42
-341,-71,-78,584,198,114,47,59,228,-15
-282,-70,-97,460,220,384,442,955,199,-5
175,-90,-120,-34,114,419,471,1066,52,78
562,-168,-140,-316,-19,274,239,582,41,256
302,-157,-186,-362,49,247,238,327,47,195
47,-15,-233,-423,40,166,285,292,29,28
22,42,-135,-282,41,77,141,147,52,-22
-3,17,-18,-71,121,51,91,123,67,-70
39,48,-37,-114,34,35,150,301,80,-48
86,126,168,171,-102,-94,29,205,-29,-57
240,448,494,544,-181,-275,-170,-45,-75,0
367,729,563,401,-249,-342,-241,-159,-73,14
207,633,387,174,-132,-167,-91,-171,-118,-138
84,497,287,177,-22,-43,-42,-342,-282,-327
137,223,111,142,-32,-142,-206,-531,-306,-228
-25,-356,-157,14,10,-104,-165,-423,-78,42
-447,-765,-359,-164,37,-109,-151,-468,47,139
-648,-741,-337,-152,150,-60,-116,-470,66,111
-418,-584,-210,104,376,166,68,-258,138,164
-45,-291,56,401,379,220,194,17,193,209
275,-83,191,596,235,90,121,409,205,193
319,-105,22,477,151,-17,8,298,28,149
103,-70,-156,-114,-100,-107,-102,-1,-44,74
-7,-54,-174,-564,-352,-108,-107,14,91,41
-9,-58,-53,-570,-380,-74,-51,-89,108,32
-62,-1,89,-464,-361,-72,-52,-152,15,-37
-86,47,93,-346,-346,-104,-90,-121,-77,-131
-38,95,34,-191,-260,-89,-4,352,30,-159
73,99,0,-13,-70,78,229,892,132,-18
138,81,-1,335,241,272,349,649,88,91
96,24,7,537,489,373,287,387,48,109
5,77,16,333,584,372,242,336,-4,57
-74,197,67,201,638,309,126,116,-90,-51
-55,231,-17,50,376,208,-49,-207,-178,-185
31,180,-167,-174,-101,46,-160,-406,-226,-245
212,81,-41,-185,-203,-92,-181,-436,-196,-134
337,-102,31,-95,-238,-236,-211,-241,-39,97
99,-73,45,-229,-439,-420,-225,183,121,199
-139,96,150,-219,-415,-342,-68,438,139,132
-132,210,225,21,-279,-171,-10,285,82,111
-155,119,93,106,-97,14,53,145,31,78
-16,35,14,-56,-35,57,64,81,109,118
272,-52,-56,-234,-125,-1,-21,-22,132,211
200,-170,-147,-394,-139,-33,-139,-223,21,153
-120,-122,-146,-459,-79,6,-179,-309,-78,8
-263,-66,-135,-355,-27,35,-139,-269,-105,-66
-315,-64,-148,-121,-21,45,37,-194,-70,-139
-189,64,65,435,81,27,126,-118,-42,-186
37,160,235,704,161,27,130,63,7,-96
137,111,138,363,-4,-176,-17,242,70,-9
131,176,50,19,-125,-341,-246,116,22,0
107,249,-27,-273,-80,-196,-213,-50,4,21
30,195,-79,-287,62,55,-46,-132,-10,-44
108,-66,-71,-2,210,200,1,-334,-117,-176
124,-178,-84,84,184,139,-106,-598,-280,-230
114,-75,-90,79,83,12,-143,-670,-249,-100
46,-104,-102,28,-70,-147,-123,-663,-44,32
-14,-171,27,247,-68,-228,-80,-586,133,40
18,-167,142,420,-1,-111,90,-240,219,0
40,-80,91,188,-7,-25,182,303,223,0
-40,-165,-58,-136,84,108,343,945,214,27
-131,-231,-233,-355,119,175,346,976,156,43
-171,-205,-336,-419,11,144,197,563,136,37
-194,-145,-206,-344,-9,98,76,218,18,-46
-125,-33,-23,-134,19,47,-44,-51,-130,-82
-51,163,210,165,111,15,-69,-166,-180,-36
-51,195,144,260,177,5,-51,-89,-94,-21
66,129,19,246,17,-115,-170,-215,-65,29
172,69,-2,77,-101,-202,-380,-579,-182,35
92,-20,-22,-129,-106,-111,-351,-558,-161,3
39,-36,-88,-290,-211,-79,-171,-170,-47,36
-7,-22,-57,-153,-185,-65,-12,-15,-171,-43
-35,53,-53,47,-92,-34,76,-17,-241,-113
-86,91,-6,69,42,-23,126,234,-141,-126
-136,87,0,166,323,63,132,375,-87,-50
-135,65,-47,217,554,87,-50,-81,-39,27
-74,37,-62,216,602,68,-190,-401,2,-18
-50,-159,-60,215,468,8,-246,-419,-28,-201
-102,-350,-60,61,22,-83,-195,-514,-243,-423
-166,-247,3,-75,-404,-140,-27,-233,-108,-295
-87,63,164,33,-519,-106,188,494,154,-7
175,444,193,-41,-496,-104,190,862,153,148
310,626,236,-98,-344,-61,136,615,97,159
333,544,109,-120,-156,53,154,216,73,170
455,394,41,-152,-162,56,154,55,159,232
483,114,34,-149,-173,16,131,-7,207,224
128,-380,2,-60,-84,12,145,-21,260,235
-262,-573,-63,42,48,45,104,-189,246,235
-254,-261,-35,55,91,57,12,-371,132,159
-178,-116,8,-24,73,42,-74,-590,-46,58
-61,-82,-3,-190,-42,-51,-129,-365,-119,-34
72,-40,-71,-236,-64,-26,24,409,75,-3
31,59,-89,-11,71,78,96,428,111,67
-26,104,-131,114,29,82,178,203,84,119
-56,70,-144,29,-92,20,194,187,49,131
-108,153,78,122,5,-59,-54,-32,-81,34
-16,237,189,84,152,-142,-291,-436,-101,-32
223,188,5,-226,82,-180,-346,-609,-43,-105
366,124,-95,-382,-190,-214,-247,-466,-67,-203
305,149,-50,-392,-333,-154,21,176,43,-215
365,143,-50,-291,-238,-21,183,831,29,-147
361,40,10,73,-34,79,146,716,-144,-108
87,-268,-91,141,159,190,170,368,-52,29
-389,-496,-232,-4,321,331,291,288,116,98
-724,-481,-60,195,377,276,242,183,82,-45
-856,-199,233,495,356,188,125,60,-38,-191
-742,134,415,646,247,43,-42,-58,-102,-187
-558,301,335,327,-58,-95,-102,-95,-96,-115
-384,418,250,111,-248,-216,-150,-159,-86,-98
87,319,94,7,-307,-273,-201,-146,-43,38
739,-146,-171,-244,-283,-217,-143,-23,35,304
862,-558,-318,-289,-167,-138,-161,-204,-5,343
244,-447,-256,-198,-52,27,43,-140,68,117
-34,-209,-124,-76,26,56,136,20,183,-2
30,-50,-33,-18,14,3,46,23,231,82
-15,-46,-57,-24,-62,16,96,152,179,67
-88,-41,34,72,-51,-16,74,145,43,-94
-30,-37,22,83,5,-5,41,88,-1,-117
117,0,-97,-145,-50,0,43,218,24,4
209,90,-83,-217,-77,20,27,177,-51,70
150,105,-26,-109,-34,63,-18,-53,-103,64
25,132,65,28,-30,10,-86,-186,-107,29
-14,202,155,164,7,9,-83,-258,-134,-35
-98,153,93,100,133,205,174,-185,-146,-139
-33,158,43,-14,96,130,127,-191,-173,-143
174,131,-59,-173,-19,-37,-57,-216,-104,1
177,20,-157,-269,-39,-11,-79,-92,67,142
-45,-40,-141,-166,6,80,-50,-112,68,94
-126,-86,-78,46,57,97,-7,-154,18,10
-66,-194,-38,238,199,17,10,-120,40,75
-84,-265,-1,445,373,14,119,111,144,178
-90,-23,198,608,512,-60,128,121,136,182
21,233,269,566,590,-130,-83,-167,-32,85
55,251,138,250,262,-184,-273,-386,-197,-55
-50,175,-55,-399,-130,-156,-301,-438,-220,-176
-95,227,-104,-770,-299,-84,-175,-280,-92,-208
-137,305,-4,-758,-645,-154,-204,-200,-10,-162
-250,138,-2,-454,-745,-255,-173,-67,3,-92
-166,25,40,58,-265,-70,-87,-5,59,87
48,-28,68,299,175,94,-55,-184,68,104
174,-49,60,176,87,-16,-119,-365,67,1
203,-13,0,-30,-112,-12,17,-190,68,-52
77,97,20,-11,-152,35,177,-10,-43,-99
-34,181,164,80,-111,-16,157,75,-73,-79
-23,-19,81,12,-116,-36,131,258,17,83
139,-79,-13,-45,-135,-57,-12,135,36,231
121,-21,52,-8,-4,1,-119,-70,-9,196
-14,-119,-74,-160,13,-20,-204,-238,-39,62
20,-237,-210,-263,45,-72,-301,-418,-143,-73
43,-272,-271,-229,200,0,-229,-555,-78,-95
-181,-305,-289,-308,191,86,61,-334,33,-184
-312,-229,-206,-107,274,383,486,364,99,-238
-248,-159,-237,25,242,617,732,1268,180,-99
-161,-150,-203,-145,124,453,558,1191,66,33
-249,-268,-12,5,154,200,168,247,-188,-52
-314,-354,90,381,255,36,24,86,-116,-66
-116,-145,183,597,137,-47,129,425,172,117
191,161,365,715,-68,-135,114,291,233,280
269,244,320,448,-160,-164,46,75,213,300
121,127,201,215,-151,-169,-40,27,199,218
23,143,199,117,-181,-200,-116,55,78,109
58,219,161,-63,-185,-161,-35,151,33,97
61,202,51,-159,-112,-63,121,471,126,99
56,140,-42,-155,3,7,130,528,145,23
50,-38,-173,-227,-10,32,59,253,86,-20
-48,-150,-260,-194,64,93,12,59,10,-35
-137,-57,-195,-207,106,61,-34,14,-12,-31
-97,73,-46,-231,136,10,-103,-59,-56,-27
28,137,128,33,157,-49,-194,-227,-133,-39
80,56,135,169,-59,-76,-225,-349,-219,-93
38,10,24,-1,-121,57,-114,-274,-107,-89
-59,11,78,136,-8,139,38,-126,31,-71
-100,-30,57,114,-15,202,230,82,145,-13
121,-10,-12,-67,-118,52,211,147,151,128
138,8,-47,-82,-75,-23,166,52,20,148
-33,61,23,27,83,67,19,-199,-114,-3
-80,93,44,51,155,74,-108,-318,-105,-95
40,108,-43,-130,78,-39,-139,-317,-64,-66
253,-52,-227,-395,-6,-51,-78,-177,-32,22
264,-267,-382,-598,-156,-120,13,277,98,48
-69,-246,-180,-290,-146,-228,-134,283,-28,-115
-135,-44,160,315,-36,-211,-269,-66,-236,-204
27,117,225,522,-20,-137,-201,-149,-191,-130
102,139,164,518,41,-64,-116,-151,-123,-49
124,68,129,349,-24,-58,-78,-140,-137,13
234,80,117,35,-86,-52,-20,-56,-102,149
278,82,63,-189,-49,-12,22,-61,13,186
31,-86,-18,-255,-33,55,60,-90,163,79
-108,-198,-84,-259,-11,63,47,-75,237,76
-82,-158,-81,11,145,88,69,85,194,85
-66,-110,-32,201,325,155,101,245,67,30
-103,-97,-59,1,401,142,3,141,-47,-21
-156,-147,-113,-213,346,67,-167,-147,-156,-72
-264,-112,-142,-324,116,-11,-341,-479,-246,-113
-534,29,26,-186,-66,-55,-470,-836,-303,-174
-594,202,246,118,-159,19,-316,-1019,-334,-214
-385,457,315,195,-235,-37,-257,-1043,-351,-155
-119,657,343,181,-285,-180,-279,-754,-76,-45
180,364,60,17,-254,-139,-36,-265,355,39
507,-181,-276,-105,-197,-100,224,507,434,70
405,-366,-285,-125,-124,24,540,1601,447,89
133,-128,-109,-97,-26,153,600,1571,356,124
245,-53,-84,-75,59,151,387,657,40,92
247,-94,-93,-127,131,143,199,134,-52,17
36,10,21,73,109,61,49,80,-142,-166
-111,54,117,704,104,-45,-29,166,-275,-275
-28,-25,9,766,27,-30,-2,206,-184,-109
108,5,-6,380,-38,33,65,217,-42,78
68,52,48,45,68,153,159,219,61,147
127,153,13,-142,88,176,93,34,35,91
344,171,-68,-289,48,129,-36,-77,58,152
196,-56,-57,-203,67,143,-71,-118,67,177
-241,-303,-94,-53,114,152,-54,-146,23,90
-429,-262,-174,-77,67,116,82,-37,71,27
-363,-68,-96,-9,-29,24,73,-22,55,-55
-107,191,165,165,-7,-86,-96,-163,-62,-88
181,311,259,142,14,-32,54,-6,-12,-17
440,117,110,-117,-52,41,184,246,113,78
373,-185,-78,-188,-16,117,176,223,144,133
-39,-369,-191,-38,96,91,89,139,138,135
-117,-212,-2,151,184,31,-30,-59,14,91
-21,-23,128,173,325,58,-53,-142,-103,5
31,6,48,12,335,43,-104,-148,-126,-1
-17,-70,-154,-321,80,-7,-148,-112,-129,30
-130,-147,-296,-632,-138,42,-109,-92,-180,-43
-220,-125,-210,-587,-240,84,-77,-208,-221,-151
-85,19,35,-328,-419,-76,-63,-320,-187,-180
79,197,291,49,-467,-273,-130,-432,-156,-148
19,140,264,250,-235,-239,-179,-462,-159,-165
-43,71,105,154,-47,-163,-62,-247,-116,-178
-3,149,-20,2,-113,-207,-47,-143,-90,-81
15,258,-14,-25,-201,-228,-87,-160,-113,-49
-31,93,6,112,-177,-185,0,182,45,-4
-12,-81,-27,141,-122,-111,100,468,202,146
-35,-14,107,177,78,46,168,427,214,181
-161,68,157,126,220,148,160,292,189,63
-182,52,83,-70,103,50,61,204,178,-3
-143,-14,-24,-198,46,55,93,142,132,-14
-140,-75,-112,-191,79,148,207,114,68,-14
-28,-80,-153,-179,78,73,108,49,35,39
208,-36,-142,-192,-18,-93,-79,-69,-21,71
253,-20,-155,-238,-135,-238,-190,-126,-38,84
115,-94,-192,-193,-65,-148,-174,-159,-77,20
-10,-52,38,112,59,26,-137,-257,-216,-135
7,8,61,285,98,52,-51,-215,-184,-141
-49,-61,-13,243,194,71,74,-72,-26,-90
-129,-64,-90,20,240,137,109,18,86,-38
-143,93,-59,10,193,194,26,-151,-41,-90
-153,154,149,114,55,170,3,-351,-181,-162
-95,120,208,160,28,159,60,-361,-65,-79
65,185,221,143,-137,-31,26,-272,126,42
158,179,200,129,-204,-200,-59,-134,221,83
181,3,103,140,-78,-157,-21,139,265,131
108,-88,75,185,4,-53,71,361,217,130
-46,-187,-66,86,22,-28,117,393,115,36
-78,-154,-157,-24,43,-41,93,340,71,-3
-46,20,-32,3,28,-89,17,231,46,26
-29,128,50,163,22,-87,-64,43,-22,30
-129,157,42,221,20,-31,-77,-30,-82,-38
-155,150,-15,24,-4,-4,-49,61,-92,-90
-169,73,29,-153,3,-22,-87,124,-157,-176
-243,-211,46,-155,25,-52,-167,14,-215,-261
-331,-241,47,-40,82,8,-186,-51,-192,-236
-300,-47,61,277,187,107,-96,-17,-104,-160
-98,78,42,556,227,132,14,-33,-118,-147
289,143,11,272,169,83,104,-84,-167,-101
415,-37,-44,-59,247,50,85,-57,-58,68
340,-107,-110,-255,216,5,-5,-33,65,251
287,-75,-113,-397,-40,-117,-178,-251,-74,208
94,-116,-97,-200,-133,-125,-154,-376,-193,58
-73,-171,-92,-55,-232,-74,-47,-316,-79,-31
-74,-99,19,-152,-298,-101,-112,-369,102,5
-83,75,126,-145,-234,-117,-173,-524,150,70
-149,171,126,-52,-190,-123,-197,-590,86,0
-164,227,39,113,-94,-13,-91,-416,10,-46
-170,194,-16,198,-9,154,253,401,116,-28
9,56,5,99,44,282,572,1234,237,-2
336,-186,-85,-68,48,234,547,1052,226,99
429,-320,-208,-248,-42,59,395,678,328,263
238,-139,-144,-282,-80,-19,205,237,259,251
116,12,-21,-114,-51,-46,25,-102,69,99
39,47,57,-14,-41,8,-17,-122,-17,-15
32,29,55,-45,-45,-7,-74,-246,-13,-26
30,-15,-24,-130,-13,-15,-133,-430,49,13
4,-46,-105,-235,-3,21,-111,-304,81,-2
-36,-115,-242,-377,23,132,75,370,168,-24
24,-109,-251,-314,122,245,130,451,-16,-47
34,-111,-235,-255,177,281,87,175,-182,-104
-48,-200,-350,-420,203,276,303,587,-23,-131
-70,-124,-195,-236,152,127,209,560,-78,-161
53,226,323,361,-29,-150,-172,-65,-332,-179
120,448,301,165,-223,-250,-221,-73,-212,-70
10,369,207,-38,-344,-344,-261,-95,-188,-84
-10,274,333,250,-221,-302,-240,-279,-243,-105
31,201,431,612,-97,-264,-242,-316,-223,-102
75,135,345,636,-17,-158,-187,-189,-110,-51
72,-27,77,316,-6,-78,-75,8,40,91
-3,-217,-135,23,-27,-48,19,136,163,182
-121,-249,-191,6,28,37,115,212,203,142
-107,-167,-144,45,61,30,69,161,123,87
-121,-117,-62,4,103,-20,-54,2,31,23
-186,-178,-120,-25,164,-18,-107,-70,-22,-83
-161,-126,-168,-65,239,56,-64,-112,-80,-188
-118,8,-198,-21,426,219,102,-123,-162,-275
49,154,-204,46,487,249,99,-81,-141,-165
221,295,-88,151,376,133,-82,-200,-161,-26
239,412,95,323,318,-25,-243,-391,-212,-20
38,205,273,527,294,-107,-336,-564,-262,-78
-133,-223,85,65,79,26,-193,-474,-84,85
-120,-383,-192,-573,-330,-6,-63,-215,206,349
-126,-352,-193,-634,-619,-96,40,-54,225,313
-65,-275,29,-330,-618,-63,155,15,65,129
5,-162,166,-70,-468,-104,70,27,96,140
2,-45,155,116,-331,-168,23,67,207,176
47,56,71,83,-316,-233,56,221,276,155
-8,67,37,16,-198,-120,155,409,243,67
-73,55,52,8,-100,-67,165,369,123,14
-66,71,42,-21,-97,-73,186,304,87,5
18,111,9,-52,-79,-7,149,260,121,57
64,150,42,-44,-48,36,20,112,50,72
-36,138,44,-134,-3,58,-151,-163,-123,-49
-52,96,-22,-256,12,2,-278,-340,-234,-122
65,-32,-165,-166,88,72,-176,-71,-185,-37
85,-343,-277,124,130,101,33,235,-58,30
-126,-412,-223,421,64,47,223,266,42,-11
-173,-197,-46,518,110,81,176,143,37,-60
-80,-27,126,466,247,116,36,-64,-4,-37
11,136,283,347,244,50,-133,-356,-149,-35
86,183,258,-71,110,61,-135,-434,-158,-29
54,54,46,-436,-71,12,-96,-373,-63,-44
-74,-22,-35,-430,-148,-93,-144,-397,-48,-119
-119,6,-13,-255,-113,-87,-141,-446,-76,-112
-47,82,-5,-118,-135,-145,-121,-48,-43,-51
52,169,104,12,-169,-182,-32,471,50,31
14,134,72,-50,-154,-76,27,260,94,46
26,94,-15,-121,-124,-60,-64,-170,142,12
137,89,-44,-190,-129,-114,-83,-171,196,-23
143,162,-64,-232,-120,-70,90,500,205,-20
51,299,110,-10,-33,12,201,749,26,-16
-10,281,156,186,119,69,140,313,-96,-31
32,172,56,146,119,87,111,122,-13,-9
119,97,-9,90,35,40,88,68,40,29
145,-138,-70,142,30,24,7,-53,41,29
66,-355,-204,42,0,20,-58,-171,62,14
-32,-214,-188,-217,-65,8,-87,-287,61,26
-114,-64,-189,-399,-81,-22,-161,-535,-71,-19
-141,-105,-234,-431,-20,-25,-225,-627,-121,-46
-109,-151,-259,-367,81,9,-143,-266,0,27
-85,-159,-92,68,102,-77,-71,-1,23,22
-70,-123,129,398,23,-229,-132,9,-119,-88
10,-74,118,415,9,-162,-17,220,-97,-106
57,0,63,327,11,13,207,719,133,-20
211,168,31,293,105,164,337,742,166,70
383,333,121,212,164,247,405,427,71,133
313,285,124,37,70,102,187,170,-54,90
195,233,110,66,85,-26,-34,36,-126,40
58,205,128,151,117,-69,-158,-122,-166,-3
-61,173,148,114,159,4,-100,-123,-89,9
-116,49,110,96,245,148,67,22,39,13
-116,-161,-18,-3,112,120,87,93,87,7
-141,-290,-90,-80,-73,29,112,128,86,-7
-193,-229,-191,-24,49,134,255,251,121,27
-107,-61,-145,12,138,140,223,209,145,102
1,23,47,32,137,-6,54,-29,32,55
-8,5,40,-44,150,-53,7,-122,-62,-14
-75,-80,-89,-302,-4,-81,12,-109,-56,-41
-88,-113,-127,-493,-195,-156,-69,-125,-57,-73
-52,-45,-78,-488,-137,-147,-99,-128,-51,-54
-32,25,5,-439,-155,-161,-129,-164,-63,-60
-35,-3,-18,-354,-106,-43,-142,-182,-88,-86
-127,-59,-96,-112,122,68,-161,-277,-215,-230
-97,-8,41,325,146,-14,-186,-324,-239,-237
27,128,289,788,122,-58,-170,-334,-156,-75
-3,208,395,1058,139,-45,-105,-338,-89,-4
-56,170,291,863,17,5,-51,-296,4,40
-45,180,213,406,-103,-2,-45,-275,63,57
59,281,206,-48,-168,-35,-2,-229,117,101
131,232,95,-252,-193,-38,33,-138,161,126
95,-110,-119,-337,-171,7,119,136,261,71
107,-288,-227,-367,-169,33,185,397,211,50
109,-143,-160,-282,-133,44,150,487,117,110
140,10,-102,-237,-98,50,80,311,91,160
103,-15,-131,-270,-92,58,102,204,105,168
93,-29,-108,-199,-47,72,85,89,49,126
65,2,-19,-105,-75,9,22,-48,-29,90
-25,-86,-63,-139,-62,2,52,-26,-47,86
-63,-75,-33,-75,27,36,-29,-41,-92,17
0,54,113,57,40,-66,-225,-150,-118,-3
-33,57,106,-32,-6,-114,-278,-266,-158,-32
-221,-54,-23,-231,-13,-55,-245,-403,-263,-161
-281,-135,-103,-298,-38,-51,-259,-439,-272,-187
-231,-119,-217,-147,6,-38,-202,-318,-205,-182
-148,-121,-248,167,119,54,-79,-255,-57,-78
-40,-98,-129,338,50,57,-11,-331,47,21
42,-122,-51,280,21,58,123,-288,134,85
20,-119,19,234,169,131,222,1,178,70
21,38,161,103,73,117,277,376,101,-45
25,168,258,-83,-115,22,343,779,138,-61
40,164,199,-79,-133,-44,221,756,107,19
37,96,57,-37,-77,-63,34,277,50,79
-38,2,-42,-53,-26,-23,-22,-82,49,15
-40,-58,-23,7,-24,-33,-39,-109,144,-48
40,60,125,100,-113,-111,-72,-70,169,-30
95,195,203,111,-167,-166,-100,-71,112,-33
51,168,112,97,-75,-104,-58,50,74,-81
9,85,-29,16,-56,-78,-6,231,18,-87
5,56,20,-5,-97,-82,66,529,25,-16
3,57,78,25,-77,-41,156,615,35,36
88,-10,37,45,0,35,130,263,-5,91
127,-84,-21,31,55,73,28,-54,-48,124
33,-93,-19,-23,37,75,-60,-225,-83,91
20,-30,18,-50,-3,18,-183,-429,-181,5
-10,-25,-8,-81,-60,-67,-198,-476,-170,-44
-91,-69,-105,-102,-70,-76,-24,-281,-3,-76
-101,-65,-76,-25,4,-55,2,-169,68,-92
-93,-65,-22,73,105,-4,-17,-102,54,-76
-27,-7,-20,160,159,6,84,226,14,-29
4,47,-28,253,242,52,90,373,-103,-35
-19,55,-92,6,227,94,-33,124,-144,-60
-35,-37,-249,-426,180,142,-28,-77,-117,-49
-58,-87,-309,-504,207,213,15,-185,-133,-60
-47,-19,-296,-617,29,184,8,-136,-113,-76
-128,-4,-169,-487,-9,100,-44,-9,-118,-209
-186,-57,29,-92,96,41,-141,-119,-251,-334
-57,-22,220,175,-81,-138,-301,-307,-336,-349
41,82,339,499,-158,-265,-300,-395,-356,-292
119,-70,128,207,-80,-69,53,-193,-181,-70
186,-236,3,8,-176,-111,101,0,27,135
145,-225,23,199,-217,-213,-36,73,208,268
133,-39,121,361,-184,-189,-97,-27,269,330
93,-2,130,395,-100,-92,-38,-23,238,279
95,-46,-25,325,6,2,35,25,197,191
89,-16,-17,246,115,15,39,-51,166,143
80,35,38,70,135,27,35,-139,135,132
4,34,-8,-174,84,80,80,24,50,18
-59,23,-13,-162,189,139,84,108,-24,-72
8,13,-62,-140,217,152,-1,-130,-54,-11
54,5,-56,-238,47,44,-67,-214,-81,11
-73,-35,-38,-191,-23,-7,-16,-12,-54,-68
-131,-18,0,32,-25,-85,-22,58,-39,-113
-63,-33,-28,9,-157,-123,78,229,53,-47
-54,-126,-40,-88,-193,-37,225,414,222,17
-92,-54,73,-27,-158,-51,130,195,185,50
-137,4,89,-92,-165,-58,8,39,134,74
-142,7,-7,-188,-169,-34,26,109,154,93
-120,53,-27,-119,-89,-14,69,128,153,81
-81,53,-81,-69,-13,-63,-33,9,44,-55
7,-76,-114,7,38,-87,-101,-84,-66,-164
131,-208,-182,73,85,-64,-124,-168,-118,-136
131,-139,-135,122,157,54,-70,-288,-74,-17
186,9,70,286,180,85,-55,-316,-64,36
156,42,149,308,76,18,-49,-114,-48,18
133,28,69,82,-44,12,14,-58,19,47
60,2,79,-75,-107,21,22,-58,8,61
1,50,131,-54,-125,4,-73,-129,-28,54
-52,72,138,31,-34,6,-125,-65,-26,8
-68,34,75,80,60,54,-23,207,-1,-57
-30,15,15,54,93,119,162,290,-2,-73
55,79,-6,7,93,119,148,274,7,-12
106,154,29,-39,45,4,-15,182,-111,-14
41,141,54,-14,57,-13,-21,58,-159,-26
-102,56,25,27,32,-2,53,80,-74,-6
-158,50,5,138,-31,-59,47,101,-48,-51
-88,68,21,196,-49,-42,0,30,-73,-93
-41,47,17,55,-11,105,23,-93,-89,-74
-85,-80,-69,-141,30,192,57,-166,-105,-35
-103,-198,-151,-332,1,191,86,-181,-125,-58
-106,-205,-172,-423,-4,131,89,-183,-153,-151
-117,-111,-76,-286,-6,-28,28,-162,-101,-200
-15,-8,21,11,15,-168,-93,-213,-4,-93
23,7,10,327,172,-88,-59,-117,91,47
-76,-28,-5,429,211,35,70,222,229,93
-80,11,-27,107,38,96,131,273,176,105
-28,15,-66,-150,0,112,113,125,72,119
-76,-31,-7,41,94,56,44,74,11,-8
-59,5,88,100,92,-27,-50,-27,-5,-79
-47,26,123,22,82,-70,-80,-140,29,-56
-41,31,141,112,105,-47,-20,-116,92,-8
9,61,71,-62,-118,-99,-37,-114,118,33
0,22,-36,-351,-204,-123,-98,-192,65,13
-59,-42,-127,-440,100,150,-81,-276,-21,27
-140,-100,-214,-534,152,282,-114,-244,-77,30
-139,-184,-332,-413,89,225,-139,-93,-94,6
-228,-207,-232,75,272,227,-109,-105,-144,-129
-264,-121,-179,181,365,239,-30,-119,-85,-195
-192,102,113,513,417,108,-26,-263,-121,-203
-15,297,346,699,353,18,-38,-245,-197,-206
123,269,284,505,82,4,2,-38,-238,-192
231,203,223,294,-171,-46,32,-88,-202,-121
346,328,363,115,-303,-220,-98,-288,-59,18
351,255,311,-226,-494,-375,-200,-163,115,130
284,88,155,-270,-557,-357,-137,280,203,165
70,-71,-27,-194,-387,-208,19,513,238,212
-263,-198,-158,-131,-150,-52,144,405,105,126
-358,-148,-104,-165,-104,-9,160,279,-65,-52
-261,-107,-149,-303,-139,68,223,487,-5,-44
-205,-165,-215,-327,-153,75,194,560,106,71
-13,-182,-157,-202,-142,17,102,309,102,163
60,-84,17,51,-15,34,83,177,97,215
-3,55,120,178,71,111,115,176,125,198
107,88,115,213,118,173,114,112,90,121
335,0,96,251,129,130,50,-17,35,103
282,-86,14,98,92,71,-3,-61,41,92
60,-40,-12,6,94,97,-2,-88,38,52
9,-10,-62,-93,94,112,-41,-153,22,26
-68,-83,-152,-134,146,94,-81,-153,-14,-49
-134,-123,-217,-121,170,89,-45,-83,-46,-89
-108,-103,-214,-68,119,99,78,-7,-9,-27
-17,-44,-73,101,6,106,136,-85,-9,1
136,90,107,244,-65,-8,-70,-360,-62,-1
144,132,99,163,-73,-81,-157,-388,-32,-16
128,148,45,-36,-111,-59,-55,-163,86,14
186,143,8,-122,-77,55,108,218,175,37
235,130,108,-30,-9,148,240,464,170,50
253,144,147,66,-30,16,166,311,37,77
284,118,163,165,-49,-143,-39,-18,-67,130
246,49,130,144,-31,-147,-151,-213,-65,142
87,-53,27,12,-42,-99,-129,-162,55,97
-109,-208,-130,-139,-97,-79,-27,-32,145,34
-173,-210,-253,-263,-58,-21,37,81,110,-14
-149,-129,-176,-201,94,-5,17,201,29,-81
-140,-106,-87,-17,203,-66,-62,275,-79,-126
-114,-117,-105,-56,249,-104,-141,47,-170,-112
-72,-82,-91,62,319,-98,-214,-311,-176,-89
-50,-66,-41,306,228,-54,-185,-281,-146,-63
-58,-62,-6,340,-67,-22,-35,79,-82,-42
8,-8,5,-28,-355,-37,11,5,-48,8
36,25,38,-285,-396,-2,74,44,30,61
-2,53,76,-219,-371,-57,119,243,34,4
59,134,73,-45,-267,-102,74,222,3,0
136,201,119,241,-75,-54,49,201,26,19
166,202,136,218,-23,-57,5,127,36,19
236,271,157,88,-54,-126,-109,-53,-28,-19
331,418,165,53,-32,-105,-164,-160,-54,18
229,439,150,59,-1,-15,-120,-152,-29,72
7,402,147,65,15,14,-13,-49,-27,5
67,241,62,-29,-68,-37,74,89,-18,-52
165,-62,-81,-86,-81,8,154,231,86,20
-33,-437,-196,-84,-14,125,237,304,171,138
-184,-560,-245,-117,27,142,187,179,186,197
-256,-403,-160,-125,48,97,105,79,172,164
-228,-200,-79,-81,63,19,13,23,98,71
-137,-106,-170,-61,131,17,-40,-73,-6,-33
-120,-132,-266,-145,142,154,96,-13,5,-91
-154,-115,-253,-207,131,296,298,216,93,-119
-118,3,-32,-165,57,204,171,146,47,-118
-77,52,141,106,-2,0,-65,-102,-98,-107
-76,1,133,190,-27,-100,-73,-96,-97,-68
-137,-97,4,-4,-96,-185,-99,-1,-73,-71
-179,-114,-23,-123,-125,-183,-125,-40,-99,-84
-146,-69,14,-35,-33,-81,-86,-45,-107,-99
-53,-14,84,232,206,82,-55,-112,-85,-58
48,57,78,432,460,174,-33,-155,3,25
45,52,-38,259,541,148,-89,-228,31,32
-26,-8,-108,-10,568,178,-124,-363,-39,-49
-141,-102,-184,-297,371,154,-74,-211,-110,-150
-261,-184,-261,-584,-82,71,159,356,-133,-208
-278,-103,-99,-440,-259,92,352,512,-105,-155
-171,84,164,-239,-348,-53,148,204,-55,-15
-50,243,405,-61,-425,-281,-120,-59,-54,32
37,324,467,270,-355,-379,-258,-189,-78,4
92,263,277,447,-166,-249,-141,-99,43,75
209,78,91,455,-19,-127,-5,78,147,114
303,-103,-28,416,-3,-99,22,161,115,91
145,-52,-3,381,26,-70,-16,43,1,20
60,60,33,203,59,11,-50,-91,-85,-19
15,84,50,28,36,37,-54,-165,-97,-15
-6,93,43,-74,-31,16,-36,-190,-49,3
32,120,20,-192,-73,59,50,-101,82,51
61,123,-27,-181,-145,16,96,-2,153,57
66,54,-116,-117,-85,-21,86,138,182,47
125,-67,-149,-232,-74,-30,33,226,142,89
17,-155,-192,-399,-103,-92,-95,83,-3,-5
-148,-145,-135,-295,-13,-88,-182,-93,-99,-135
-170,-88,-21,201,174,-28,-181,-78,-106,-168
-122,-59,11,608,274,49,-31,78,-33,-101
-34,-47,-20,544,332,162,174,163,12,-19
39,-30,18,272,243,140,197,170,18,41
20,-3,120,77,-26,-11,60,77,-52,26
83,141,111,-301,-262,-130,-62,-37,-104,19
231,291,-23,-600,-320,-119,-67,-66,-58,97
131,147,-137,-628,-342,-126,-104,-181,-104,52
13,50,-39,-372,-261,-164,-212,-376,-225,-61
14,137,132,-48,-117,-191,-327,-569,-338,-136
35,223,213,314,63,-205,-425,-733,-450,-180
24,150,107,384,95,-121,-358,-678,-421,-184
4,-56,-115,133,11,-67,-205,-327,-126,-74
27,-150,-258,-34,10,15,18,72,213,74
-2,-168,-124,-29,81,213,266,144,305,105
-76,-191,-21,13,58,144,135,29,204,101
-167,-121,44,109,-24,12,38,343,193,90
-145,-36,40,124,-44,57,212,869,245,69
-86,-60,3,24,45,233,373,867,182,63
75,-66,9,-15,111,270,290,509,93,102
194,-18,45,34,90,182,151,244,34,141
55,4,66,-19,20,84,109,133,-7,84
-88,0,40,-67,-34,24,46,56,26,-9
-81,29,16,-51,-51,-14,-1,-22,70,-40
-12,108,56,-30,-86,-48,-35,-92,53,-42
81,132,0,0,-48,-27,7,-1,109,31
292,135,-61,-22,-39,-46,10,56,133,184
446,103,-20,-33,-11,-29,12,145,41,272
342,45,17,2,91,87,19,71,-6,199
130,-9,50,-10,62,60,-51,-129,-50,79
-41,-58,-22,-24,72,57,-9,-18,24,10
-77,-23,-140,31,178,171,102,28,94,-25
-100,18,-86,30,217,194,103,-124,84,-52
-201,2,-45,-81,223,121,13,-259,8,-127
-247,-71,-43,-149,148,44,-61,-73,-85,-216
-211,-175,-64,-225,13,33,-25,143,-133,-209
-168,-237,-154,-186,-15,56,40,220,-75,-114
-193,-224,-252,-98,-39,75,-4,111,0,-21
-175,-150,-325,-117,-30,70,-106,-128,-44,-34
-104,-62,-226,-231,-67,-93,-203,-294,-86,-80
-97,-57,-113,-244,-89,-168,-201,-372,-33,-100
-74,11,101,132,-48,-129,-254,-542,-26,-81
12,136,216,528,35,-108,-242,-554,-7,-14
66,110,218,501,52,-21,0,-175,39,19
125,157,209,294,46,94,202,145,20,80
149,241,181,58,12,77,176,179,-40,112
102,183,208,-6,-162,-66,82,220,2,66
168,-22,113,4,-243,-136,102,329,53,62
222,-139,-105,19,-150,-73,142,304,64,133
143,-70,-57,57,-61,-39,68,151,71,173
45,-43,61,137,-44,-22,-21,96,13,118
4,7,125,186,-25,9,-29,52,-64,33
-4,77,164,153,19,36,-49,-66,-106,-24
44,92,146,19,20,27,-76,-220,-65,-3
2,30,69,-30,30,6,-102,-284,-38,-24
-66,-30,49,0,-24,-49,-109,-172,-14,-37
-77,-56,0,-97,-97,-90,-92,7,29,-38
-110,-94,-47,-214,-100,-104,-31,5,-44,-126
-144,-101,-85,-233,-51,-50,160,192,-63,-186
-134,-48,-101,22,117,32,285,498,31,-166
-36,96,-68,232,235,46,211,411,42,-110
19,223,58,315,323,31,84,116,-30,-95
-28,236,132,252,312,8,-10,-37,-85,-131
-53,163,-58,-193,94,-1,-78,-75,-76,-137
-26,-45,-178,-540,-91,-34,-135,-109,-79,-125
49,-208,-71,-477,-92,-16,-143,-122,-29,-39
-29,-230,-132,-591,-279,-22,-118,-78,41,35
-68,-191,-232,-546,-399,-90,77,82,132,39
17,-191,-110,21,-163,41,274,109,134,27
55,-139,88,317,-23,78,197,-37,79,73
103,18,269,417,-111,-155,-66,-276,20,145
249,140,277,381,-200,-345,-286,-467,-22,234
202,80,138,142,-94,-231,-305,-538,-56,197
-4,-34,61,32,199,77,-215,-527,-90,58
-143,-82,0,84,368,239,-35,-271,-37,-51
-123,-119,-125,-61,253,268,267,144,144,-55
-26,-198,-234,-132,127,195,363,348,226,15
45,-129,-168,-84,165,130,270,421,169,94
105,-24,-96,-37,213,148,136,417,67,124
136,23,-56,131,215,126,35,252,-16,109
134,49,21,281,137,17,63,156,-15,87
78,91,199,276,-54,-101,51,100,-29,0
-34,100,279,195,-102,-258,-131,-22,-78,-105
-104,63,178,75,28,-222,-183,-98,-77,-162
-97,51,37,-81,35,-93,-138,-120,-70,-116
-72,18,6,-98,-89,-80,-140,-223,-89,-77
-69,-22,26,110,-72,-47,-108,-299,-4,-52
-41,-51,4,224,-18,-14,-80,-380,99,11
33,-52,-113,-28,-29,15,-16,-261,195,112
4,-97,-259,-401,-44,17,33,285,154,84
-101,-90,-258,-656,-3,84,19,477,-44,-56
-180,-54,-212,-695,145,185,-39,112,-332,-188
-210,-97,-186,-497,208,178,-201,-396,-511,-255
-180,-97,-141,-207,127,178,-220,-590,-466,-193
-160,14,-170,-122,-68,63,-109,-455,-243,-86
-88,120,146,324,-139,-76,-51,-222,8,6
23,165,400,498,-295,-201,7,154,194,127
50,171,503,530,-289,-275,-20,356,235,126
149,150,449,536,-146,-179,45,514,285,146
517,70,186,228,-41,11,192,577,339,285
618,-52,-30,-75,-11,54,175,446,321,315
238,-64,-11,13,60,55,130,303,245,195
-61,-47,25,212,221,161,167,231,170,94
-160,-56,-4,214,219,165,128,133,129,21
-104,-55,-128,63,148,92,59,58,107,13
-36,-12,-150,-88,120,37,-17,-24,43,17
1,-1,-80,-184,20,-13,-92,-177,-19,-7
3,-37,-111,-128,3,-28,-106,-273,-32,-18
52,-5,-131,-86,84,-1,-26,-181,60,21
103,74,-127,-59,177,13,5,-198,86,41
14,82,19,127,298,47,-81,-387,-88,-81
-86,43,101,14,126,8,-96,-366,-230,-166
-93,100,136,-80,-106,-51,-47,-214,-212,-184
-60,124,47,-128,-177,-14,96,-32,-103,-164
3,33,-119,-258,-301,-48,175,245,-65,-125
19,-43,-213,-331,-353,-141,70,395,-26,-59
-131,-69,-167,-245,-273,-176,-37,253,-81,-75
-158,-111,-24,-23,-135,-86,7,137,-76,-72
11,-189,37,111,-34,15,75,112,20,47
113,-169,-2,9,-49,8,0,-60,19,143
67,-94,-27,-97,-55,-44,-154,-371,-59,148
13,-66,-117,-22,-15,-54,-238,-553,-65,96
-39,-110,-216,32,55,82,-142,-547,53,74
-71,-151,-244,26,89,176,10,-460,199,59
-23,-79,-54,169,62,24,21,-218,145,0
26,-13,74,94,-42,-84,163,591,130,-6
44,35,154,24,-60,-74,217,1015,82,22
69,101,196,66,153,99,160,527,5,31
42,95,161,97,275,212,68,14,-14,7
37,81,126,63,199,129,12,-71,57,-9
82,91,105,13,129,22,4,56,61,31
39,-21,14,-134,53,65,155,287,-21,29
-75,-151,-62,-265,-15,146,313,314,-88,-22
-21,-91,3,-169,-82,-28,71,6,-116,-1
43,15,84,51,-98,-237,-222,-232,-152,-33
36,104,126,187,-35,-254,-287,-253,-147,-109
20,208,118,383,148,-32,-103,-73,-23,-125
23,273,89,500,250,68,14,21,42,-85
-19,201,33,498,204,53,-3,-24,25,-83
-39,97,94,316,22,-1,-53,-112,-37,-73
-131,-28,111,15,-129,-74,-9,10,-4,-74
-93,-105,59,-202,-130,-40,37,153,93,-12
94,-111,-16,-332,-138,22,96,156,134,97
77,-152,-76,-271,-48,56,122,141,128,121
-32,-171,-57,-75,61,87,97,116,101,75
-29,-122,-83,33,114,88,78,46,77,72
73,-20,-2,135,121,34,26,-65,10,135
67,-38,-50,61,45,42,-34,-182,-40,134
0,-61,-117,-128,-33,68,-72,-262,-63,74
-9,-25,-8,-159,-20,74,-71,-298,-31,44
41,23,-7,-184,-28,53,-96,-357,2,43
95,37,-61,-264,-81,45,-84,-366,35,56
13,-48,-54,-224,-98,29,-18,-15,106,-2
-34,-78,-84,-273,-123,6,95,483,120,-60
2,17,-56,-354,-196,-108,-2,304,0,-75
15,121,22,-153,-155,-206,-136,27,-130,-82
-74,141,11,159,32,-194,-106,203,-131,-106
-203,116,-60,183,189,-163,-158,69,-152,-179
-295,25,-86,85,421,-29,-144,-90,-191,-237
-304,38,96,260,596,183,-8,-88,-195,-266
-254,78,249,367,274,225,22,-151,-239,-245
-20,-58,152,102,-283,74,-15,-182,-176,-146
364,-98,89,-176,-412,-9,74,-124,22,43
314,-18,116,-177,-415,-184,18,-93,178,178
119,-4,131,-109,-372,-196,63,78,281,235
73,7,142,-30,-244,-129,110,187,234,245
100,73,131,179,-80,-80,62,133,127,227
93,8,113,371,35,-19,68,97,76,163
159,-13,72,236,8,-12,114,178,111,180
147,10,70,118,48,-5,115,223,91,159
103,8,60,50,46,10,71,128,25,88
-14,-30,-26,-83,-30,55,77,85,16,-6
-56,-34,-80,-162,-31,112,110,92,45,-56
-8,-8,-70,-195,-10,140,121,89,63,-35
6,13,-68,-195,-12,98,109,54,26,-26
-43,-8,-77,-250,-93,-23,36,-21,-37,-16
-135,-101,-114,-297,-100,-86,-45,-103,-85,-20
-113,-109,-100,-276,-109,-83,-63,-149,-63,8
-74,-39,-55,-194,-119,-39,-59,-162,-75,-10
-68,29,29,-21,-29,-2,-91,-226,-106,-38
-66,99,145,114,-10,-85,-181,-253,-141,-44
-50,114,90,150,-17,-146,-171,-77,-119,-66
4,115,5,184,36,-78,-97,9,-116,-90
18,36,-55,228,131,12,-61,-4,-71,-81
18,19,-36,245,60,-28,-61,0,-2,-19
25,67,-4,158,-63,-25,27,39,72,28
-5,44,10,50,-51,49,100,55,73,-17
-23,61,75,67,15,25,12,-57,1,-35
80,135,101,76,73,48,-66,-166,-30,0
120,145,64,40,77,50,-60,-185,18,1
103,47,-58,-35,58,48,-23,-124,94,35
100,-43,-172,-87,51,58,14,-28,103,63
21,-85,-144,-116,41,46,23,60,81,27
-155,-160,-138,-82,53,37,65,82,58,-16
-266,-200,-141,-37,6,16,109,48,54,-17
-223,-139,-113,-44,-41,-28,33,51,39,6
-169,-68,-113,-99,-30,-6,-8,-23,-10,15
-163,-59,-102,-150,-26,-8,-59,-180,-107,-23
-159,-54,-79,-83,-39,-36,-50,-143,-78,-36
-111,-11,-11,96,14,-4,-6,-90,32,23
-21,128,211,404,110,52,-20,-234,65,54
22,158,270,490,146,57,-12,-302,66,42
-33,48,129,306,91,13,-7,-138,35,19
-110,-38,11,151,22,4,18,134,-37,-20
-99,0,-18,-42,-31,45,42,263,-30,-39
9,106,16,-152,-27,41,43,216,15,0
56,134,-44,-289,-52,-17,3,91,-33,26
86,59,-211,-401,-105,-43,-14,96,-5,72
136,33,-152,-255,-106,-35,-28,59,25,87
70,-9,-118,39,-82,-19,52,101,90,84
-1,-28,-49,349,-34,-39,106,123,67,25
-25,-60,62,429,58,-17,118,164,37,-8
-53,-58,77,288,140,4,89,249,40,-32
-23,0,93,143,180,13,70,232,16,6
29,8,49,-17,192,57,77,59,-40,83
-14,-51,-95,-148,67,95,115,7,-74,53
-68,-75,-178,-183,-25,82,161,40,-90,-23
-17,-26,-67,-173,-72,62,117,8,-58,-30
39,20,0,-213,-137,67,18,-43,-35,-48
70,47,29,-193,-117,56,-27,33,16,-31
29,31,107,143,81,40,-64,15,-61,-86
42,29,86,324,225,57,-97,-68,-120,-68
42,88,80,207,158,-30,-153,-151,-173,-66
33,138,23,-51,70,-112,-169,-233,-167,-73
3,104,-60,-228,-9,-82,-130,-306,-121,-62
-140,-8,-35,-131,-154,-105,-153,-376,-152,-153
-187,-71,-35,-141,-156,-84,-87,-115,-91,-194
-72,-54,-66,-214,-80,-30,-4,54,-50,-100
24,70,28,-141,-73,-41,-43,-220,-83,-35
-37,167,-6,-191,-117,-62,-104,-474,-142,-92
-99,187,-39,-151,-156,-95,-85,-242,-157,-176
-71,198,56,-175,-251,-156,-29,235,-123,-178
19,212,106,-103,-284,-213,-38,208,-110,-95
107,89,56,-69,-239,-138,-9,85,14,71
176,-138,-24,-68,-122,-56,39,156,162,170
185,-285,-140,-110,39,35,138,308,211,170
-78,-323,-225,-120,125,147,191,259,143,52
-204,-307,-161,-175,102,93,118,131,54,-41
-168,-258,-121,-124,198,101,45,105,70,-29
-87,-163,-125,12,155,83,8,28,68,34
-170,-226,-205,17,107,10,-43,-68,0,-8
-206,-254,-247,25,144,25,-25,-54,19,-9
-121,-131,-112,255,64,-28,-5,-54,81,54
-12,38,72,510,73,-57,-65,-168,75,72
15,177,238,459,-1,-137,-213,-296,-44,-55
-14,297,377,257,-177,-191,-235,-320,-164,-145
-31,434,436,260,-86,-136,-219,-280,-227,-133
26,534,424,280,-36,-107,-178,-332,-240,-107
6,357,249,74,44,88,20,-328,-110,-62
105,136,56,-131,73,141,32,-376,12,45
168,10,-72,-164,18,24,-42,-314,122,125
71,-153,-150,-41,-67,-50,-8,-43,194,130
23,-341,-227,133,-48,-12,38,216,146,100
110,-351,-207,-95,-83,123,246,784,181,167
59,-334,-320,-562,-40,234,358,973,135,187
-39,-277,-309,-634,88,256,191,512,4,71
-11,-182,-222,-513,105,201,-35,110,-86,12
73,-155,-200,-265,67,160,-22,89,-3,27
66,-62,46,374,150,109,92,200,75,15
-28,26,206,615,203,120,257,260,81,-27
-99,79,256,414,18,-17,231,218,72,-42
61,179,312,219,-216,-255,-32,27,44,47
298,288,268,69,-220,-284,-211,-95,36,153
323,291,198,285,52,-198,-199,-107,21,139
256,247,112,454,215,-127,-121,-97,4,72
225,183,25,339,278,-22,12,-40,43,91
81,87,102,186,333,65,56,-83,25,63
-163,-61,5,-73,93,36,-18,-134,-34,-86
-199,-115,-127,-414,-295,-86,-115,-251,-119,-153
-65,-53,-112,-456,-341,-144,-106,-238,-65,-44
26,11,-94,-406,-350,-157,-87,-134,84,88
66,16,-123,-383,-294,-109,-66,-111,145,166
108,43,-117,-331,-151,-49,-33,-30,102,134
-28,-34,-84,-188,-19,8,32,144,30,-25
-123,-62,-34,1,31,62,50,108,-13,-131
-106,-70,-104,-45,102,157,76,24,3,-113
-87,-75,-184,-261,85,121,97,268,89,-81
-95,-82,-115,-320,6,-22,21,287,19,-114
-153,-104,-30,-191,-68,-139,-159,7,-120,-206
-186,-149,-109,-30,-50,-109,-147,-73,-153,-198
-171,-87,7,452,4,-36,-53,-91,-149,-133
-79,2,64,549,-95,-69,30,-65,-70,-51
78,110,137,375,-176,-136,7,-72,12,61
203,179,180,208,-137,-156,-77,-99,113,156
201,150,123,0,-23,-59,10,-37,145,148
119,51,69,-104,7,20,113,122,120,81
85,31,74,-7,-2,24,52,74,-11,15
165,82,63,14,22,0,-44,-96,-116,26
223,138,-10,-103,39,37,-16,-138,-142,42
170,161,-50,-199,70,77,8,-98,-123,28
6,143,-51,-272,94,64,-53,-249,-133,-18
-173,49,-150,-389,80,20,-106,-364,-125,-99
-281,-73,-195,-289,109,-42,-136,-257,-84,-166
-381,-180,-130,-132,84,-46,-78,66,-62,-198
-301,-212,-28,10,79,-12,3,170,-14,-145
7,-274,64,280,79,74,101,34,68,-9
180,-295,170,579,60,94,89,-37,43,15
84,-142,258,635,61,130,69,92,-13,-7
109,37,261,465,40,113,63,130,0,90
226,132,132,142,-91,-4,26,82,87,255
219,157,39,-55,-181,-70,24,120,134,277
151,82,-69,-185,-118,3,108,375,230,193
40,-7,-110,-131,-16,52,134,380,190,106
-97,-107,-142,-52,87,99,139,255,86,13
-73,-112,-171,-72,29,66,101,183,68,-64
33,9,-3,39,-44,-20,5,39,28,-100
78,89,76,155,-44,-44,-28,-29,22,-77
20,17,-14,-54,-81,-71,-38,-47,-31,-112
-13,-9,-82,-260,-72,-127,-129,-71,-110,-138
-8,3,-159,-174,116,-8,-145,-112,-132,-67
-46,-94,-108,112,250,121,-121,-121,-97,0
-122,-140,-20,368,145,40,-195,-202,-98,-21
-199,-114,48,355,138,168,-37,-189,-68,-62
-170,-34,131,125,70,229,121,-27,11,-22
-62,41,172,17,16,187,185,181,97,87
63,173,79,-249,-150,59,185,273,138,218
62,221,6,-304,-193,-23,102,145,79,176
15,182,60,33,41,16,-7,-101,-30,25
60,64,63,211,200,5,-108,-277,-90,0
134,-84,36,321,294,10,-81,-262,-100,4
102,-149,-19,265,246,-15,-64,-261,-114,-21
13,-188,-122,22,149,-110,-93,-239,-73,-32
-47,-183,-193,-213,57,-151,-39,-40,93,-32
-87,-136,-96,-388,-224,-174,-24,-24,120,-59
-82,-82,-43,-504,-381,-103,80,83,116,-59
43,33,-17,-441,-306,-27,217,444,153,15
66,127,88,-234,-282,-79,134,395,-4,19
26,95,-2,-357,-286,-42,91,264,76,31
0,60,-149,-430,-176,59,152,327,179,19
-34,40,-20,-205,-28,47,107,157,46,-53
-30,75,165,54,15,-44,-17,-63,-74,-88
31,-1,88,29,13,-6,13,-55,9,-22
108,-91,57,61,-6,9,-9,-75,3,3
114,-103,100,226,42,21,-28,-77,-20,2
68,-85,72,270,105,64,15,-31,23,26
65,-56,17,177,66,50,5,-50,66,69
66,-32,-20,0,21,14,-35,-126,66,107
4,-34,-25,-59,18,-6,-103,-234,28,86
-79,7,-34,-95,-13,9,-141,-297,29,35
-109,0,-95,-241,-45,94,-51,-293,38,-7
-20,44,-30,-221,0,127,-16,-296,31,11
2,25,-14,-11,57,101,-36,-255,-47,-18
-35,-82,-61,99,24,74,53,83,-114,-78
34,-71,-41,180,46,39,27,160,-146,-32
86,-47,-63,71,-19,-27,23,-26,-100,70
75,21,33,172,-70,-133,-73,-202,-73,101
60,125,214,396,-29,-186,-199,-284,-92,64
-72,195,276,327,-91,-204,-205,-205,-46,0
-249,155,150,122,-85,-163,-119,-106,40,-93
-340,156,77,72,-5,-41,-47,-125,-32,-192
-242,336,194,87,-136,-127,-52,-2,-104,-234
-22,436,183,89,-223,-170,-76,66,-119,-170
224,245,64,45,-26,7,15,187,-50,-36
380,-132,-109,-21,226,128,136,312,-5,38
205,-306,-131,30,211,103,107,216,7,39
-26,-308,-141,68,224,93,81,178,98,49
-18,-254,-144,31,212,60,55,148,130,59
17,-166,-90,23,208,55,39,9,105,18
-92,-148,-78,-28,175,73,73,87,65,-61
-86,-72,-75,-22,48,32,44,285,-2,-117
21,-6,-128,-47,-69,-5,-31,114,-17,-84
65,55,-58,4,-99,3,-56,-73,-7,-37
122,131,96,210,-5,42,-8,-118,25,5
242,161,142,178,6,46,48,-98,71,112
227,88,42,-119,18,44,74,43,86,125
33,-70,-57,-347,59,103,136,194,55,70
-172,-184,-126,-247,94,179,142,107,-43,-8
-190,-153,-60,175,179,159,108,-39,-53,-15
-97,-104,-12,216,199,111,133,22,73,39
-11,-34,1,-14,197,10,78,35,113,71
-63,8,33,-135,171,-22,-10,-71,27,-5
-136,-50,-61,-346,13,80,31,-111,-84,-127
-104,-94,-95,-496,-204,128,117,-99,-168,-161
8,60,121,-161,-351,-82,-53,-175,-130,-82
141,185,261,196,-397,-242,-201,-203,30,77
219,121,165,282,-255,-180,-173,-109,201,249
169,13,-6,167,-27,-25,-16,59,239,277
142,-4,-97,-31,38,42,118,263,198,252
131,3,-110,-55,31,62,182,292,108,130
69,-36,-88,50,44,82,162,152,16,-24
-47,-20,-34,22,79,3,1,-56,-60,-67
-167,6,87,24,103,-92,-75,-97,-41,-86
-146,4,57,79,63,-117,-100,-58,-40,-101
-99,-33,2,161,15,-72,-81,-56,-90,-110
-59,-62,-41,190,-13,-29,-19,16,-60,-52
-51,-51,-55,47,-77,-11,30,32,13,5
-28,1,-78,-218,-97,18,34,-41,15,33
25,77,-16,-317,-90,14,-20,-87,-33,5
30,64,-51,-506,-126,14,-30,-3,0,-42
-15,-11,-144,-615,-150,7,19,200,80,-54
-54,-67,-108,-349,-143,-73,-6,222,73,-54
-132,-131,2,64,-108,-57,23,109,-2,-104
-118,-93,94,321,-15,17,41,-22,-67,-80
-54,-2,79,264,-13,0,-22,-120,-87,-17
-16,70,132,287,-6,-103,-164,-265,-127,-8
59,106,170,207,23,-108,-203,-264,-49,10
90,83,27,-36,4,-87,-160,-200,78,21
-32,-2,-62,-92,-37,-99,-170,-318,65,-1
-198,5,2,10,-41,-109,-214,-456,-63,-103
-182,62,46,16,-32,-92,-147,-205,-81,-128
-46,95,2,-48,-22,-53,-7,160,-91,-26
31,87,-43,11,127,83,68,130,-83,61
102,120,29,195,278,203,86,-11,59,119
239,188,145,275,211,177,3,-267,95,137
239,49,-1,73,45,116,-29,-233,118,98
52,-9,-14,78,44,82,18,139,77,25
-32,93,93,147,33,21,-5,227,-64,-44
71,89,43,31,-18,20,23,179,-97,5
198,-30,-45,59,25,70,111,251,-34,127
206,-72,-20,221,65,15,39,111,-57,93
29,-50,-24,86,-10,-91,-136,-147,-92,-102
-117,-3,-49,-196,-26,-61,-167,-224,-98,-211
-216,27,-106,-244,17,21,-143,-182,-85,-221
-223,52,-75,-103,74,63,-157,-256,-37,-144
-50,169,24,66,126,66,-109,-143,29,29
-88,17,-32,-63,1,7,99,257,56,31
-183,-322,-186,-283,-77,47,352,575,82,-31
-147,-326,-148,-234,-75,4,269,613,108,8
-93,-118,29,-77,-135,-85,59,305,138,93
-87,-75,31,34,-113,-73,45,203,107,65
-96,-2,92,261,-46,-45,58,344,25,-21
-40,93,222,463,3,-61,19,258,-85,-59
11,163,242,571,140,-26,59,195,-65,-28
34,232,190,566,340,50,129,176,-49,-16
8,244,182,419,467,51,31,15,-140,-85
-74,139,148,250,524,46,-36,-105,-203,-131
-113,-30,-24,-46,310,36,-50,-103,-170,-111
-115,-101,-182,-345,39,92,-29,-72,-108,-106
28,-16,-177,-494,-89,113,-16,-12,-14,-10
204,25,-126,-571,-212,17,-25,3,55,111
252,-56,-122,-610,-311,-74,-27,2,106,208
33,-211,-147,-521,-375,-114,-40,-11,97,172
-276,-280,-113,-230,-457,-212,-106,-144,-47,-5
-266,-166,14,82,-337,-188,-59,-133,-57,-9
-104,-96,85,332,-181,-85,-32,-102,51,126
82,-27,-15,283,-137,-23,-34,-117,142,235
215,37,-6,202,-72,15,-11,-111,183,281
177,23,-40,50,-56,21,46,-64,148,247
76,0,-95,-140,-115,40,160,62,96,144
22,51,-11,-62,-79,-8,91,69,21,25
-40,76,67,39,-6,-46,-68,-59,-14,-50
-79,36,8,-80,29,5,-97,-165,-7,-71
-76,-36,-97,-226,45,73,-50,-190,-18,-85
-113,-38,-111,-230,56,49,-77,-202,-80,-168
-166,-21,-80,-201,39,-36,-122,-279,-184,-252
-163,-55,-73,-153,-14,-73,-84,-312,-178,-215
-115,-75,-37,34,2,-80,-46,-256,-94,-126
-107,-116,-48,144,17,9,139,3,11,-108
-56,-59,36,308,-21,46,196,212,91,-96
43,48,129,355,-14,41,99,217,129,8
146,121,171,177,11,19,79,219,183,111
246,142,120,-57,-17,-31,95,260,266,197
313,153,29,-225,-74,7,105,271,276,237
251,116,70,-64,-62,-32,7,62,103,174
46,47,163,294,-2,-102,-133,-90,-56,37
-92,18,53,191,66,-2,-24,83,14,-1
-145,42,62,161,181,88,15,78,-68,-124
-121,96,102,173,167,36,-31,12,-156,-186
-75,146,25,71,102,25,-34,-22,-132,-99
-90,107,-66,11,110,64,-44,-145,-91,-55
0,-87,-119,-100,58,22,-91,-249,-75,-53
124,-228,-252,-283,-23,-42,-118,-257,-59,-55
150,-132,-228,-402,-53,-86,-84,-233,-9,-94
58,-52,-192,-267,106,7,-64,-363,-39,-126
-82,-90,-173,77,226,49,-191,-475,-160,-158
-114,-25,42,380,219,45,-185,-143,-235,-162
-65,125,113,220,95,39,-143,-60,-301,-113
-62,186,129,174,-8,-52,-176,-335,-295,-49
-97,144,80,208,-37,-78,-96,-402,-175,2
-46,121,105,-26,-61,39,101,-114,39,80
210,28,127,-183,-94,58,106,125,190,158
387,-179,4,-184,-146,-48,19,177,214,171
209,-252,-116,-181,-153,-38,162,550,309,174
48,-164,-65,-82,-134,-5,243,654,280,131
-9,-104,-29,-35,-118,-27,219,603,260,79
-11,-65,-127,43,-38,-6,233,608,224,65
2,-40,-72,211,98,-5,203,439,131,67
34,0,64,186,175,-56,99,242,126,79
-8,14,82,67,266,-37,1,37,89,46
-108,19,32,-37,275,34,-96,-200,-30,-66
-123,30,-53,-112,242,120,-185,-418,-145,-150
-129,22,-78,-165,223,284,-165,-462,-205,-180
-174,-3,-61,-190,210,326,-90,-356,-233,-191
-230,-94,-103,-183,229,260,32,-127,-179,-178
-165,-200,-68,-76,-84,40,197,191,-64,-121
14,-204,124,320,-212,-79,258,252,7,25
264,-10,257,484,-132,-111,151,334,185,250
397,128,251,267,-180,-149,55,306,240,337
285,102,84,-137,-247,-166,1,141,194,318
166,50,-23,-190,-224,-140,4,74,180,254
76,82,48,-19,-139,-123,-40,-23,110,122
24,67,55,-56,-57,-110,-83,-119,16,-2
20,39,38,-65,45,-81,-89,-184,-42,-37
-3,-7,-32,-101,73,-74,-91,-210,-93,-42
-19,-86,-166,-255,74,-26,35,-46,-53,-19
-32,-112,-213,-332,59,32,189,167,3,19
-57,-75,-120,-205,-50,18,57,-65,-91,-37
-85,-76,-26,-24,-31,66,-38,-288,-131,-95
-46,-24,93,251,129,88,-46,-218,-26,-28
43,109,221,347,142,54,-61,-116,-16,9
105,190,248,229,-84,-138,-137,-51,-102,4
87,162,165,122,-155,-153,-142,-29,-156,-2
100,178,70,-5,-126,-72,-147,-145,-143,12
76,127,4,-86,-50,31,-90,-190,-80,30
96,142,-2,-120,-36,-7,-148,-262,-41,34
116,211,83,-130,-138,-141,-256,-399,-107,-23
109,158,-9,-339,-194,-177,-111,-106,-71,-67
56,77,-117,-410,-126,-142,36,241,-16,-88
-98,9,-52,-196,-26,-124,-32,40,-120,-107
-190,-66,7,78,4,-138,-54,-10,-63,-108
-179,-132,-4,278,6,-103,-34,52,65,-102
-144,-258,-20,289,65,34,0,-67,-17,-202
-78,-291,-107,90,115,103,71,-137,1,-112
-89,-300,-201,-18,-23,-37,23,-79,164,64
-74,-236,-225,78,-104,-40,92,263,312,145
92,-90,-128,229,20,77,176,446,208,112
211,14,-34,227,103,132,238,345,111,71
227,129,96,312,178,140,211,284,42,67
230,235,236,258,255,168,150,178,-39,95
118,152,83,-78,189,202,118,82,28,145
-148,14,21,-59,98,186,111,-8,115,94
-282,-85,-21,70,-1,69,41,-79,95,-35
-227,-85,-148,17,-125,-61,-5,28,96,-59
-150,-42,-117,-91,-225,-166,-30,190,98,-54
-122,-39,0,-10,-90,-115,-40,106,35,-25
-109,-62,8,0,145,52,-37,-72,-31,-32
-15,27,72,-19,320,139,-67,-166,-71,-8
24,80,92,-72,257,99,-134,-299,-143,2
-41,-11,20,-143,56,74,-147,-457,-242,-41
-24,12,35,-147,-117,58,-124,-452,-215,-62
68,165,75,-50,-189,-7,-99,-365,-100,-19
16,127,-141,-132,-209,-15,45,-64,37,-20
-21,20,-312,-322,-237,-30,162,460,207,-13
20,-13,-226,-263,-181,-106,83,588,152,-22
65,2,-58,-145,-87,-85,38,438,28,-2
29,-23,-89,-143,-60,-32,25,227,-81,-11
18,-28,-34,98,14,-23,-17,53,-108,-57
-4,-41,-10,109,92,14,-24,-15,-88,-55
-64,-83,-134,-131,160,125,4,-36,-41,-49
-73,3,-75,-52,209,117,-103,-166,-67,-72
-152,74,54,-53,133,36,-166,-277,-92,-73
-270,-10,-11,-213,57,18,-87,-195,-64,-53
-334,-94,-77,-82,24,47,59,-98,-105,-138
-178,-5,18,247,-69,-6,33,-205,-182,-141
63,159,219,425,-128,-124,-131,-316,-134,26
338,103,218,440,-55,-117,-142,-150,49,176
446,-50,82,297,32,1,-29,201,228,221
220,-95,-67,112,236,230,169,404,246,167
36,-196,-236,15,402,358,285,398,166,100
-99,-242,-154,14,266,316,299,184,64,38
-86,-105,-38,-12,-125,76,144,-64,34,-24
24,34,51,156,-144,-45,30,-114,48,-48
172,128,183,189,-63,-86,9,107,26,0
219,116,133,16,-120,-180,-4,134,20,80
113,80,16,-158,-219,-194,-3,81,30,130
-65,29,-109,-236,-191,-118,3,-8,15,60
-51,1,-86,-149,0,20,82,-1,80,73
-11,-40,-61,-158,33,138,180,148,174,117
-28,-78,-48,-152,-92,43,104,209,156,93
9,-8,18,-78,-118,-45,21,96,68,101
18,10,30,-44,18,0,-14,-45,-30,48
-41,28,66,-17,129,44,-70,-182,-181,-112
-111,61,117,-34,121,-38,-145,-245,-256,-266
-139,49,57,-39,159,-65,-197,-286,-265,-293
-120,2,-22,39,128,-26,-165,-257,-208,-195
-69,-20,-19,142,11,-23,-108,-192,-137,-94
56,61,10,331,-4,-52,-145,-204,-132,-51
191,142,87,355,-107,-92,-188,-212,-72,13
144,83,157,191,-171,-93,-117,-136,-4,31
26,3,110,-2,-95,-52,-40,-54,5,3
-129,-47,46,-164,-39,-32,8,-86,-9,-16
-177,-19,-11,-237,10,-20,34,-123,-15,-20
-78,30,-61,-142,4,-45,-7,-136,-59,-12
95,38,-112,-111,-32,13,76,85,-17,118
125,-49,-185,-211,76,171,152,221,44,218
62,-183,-325,-518,246,331,72,-111,-16,95
2,-210,-324,-701,298,267,-76,-484,-131,-46
-188,-285,-302,-599,160,90,-128,-497,-139,-182
-307,-331,-212,-279,-98,-45,-125,-318,-12,-290
-196,-144,147,300,-61,-24,-104,-395,70,-233
-9,150,492,694,-42,-30,-17,-368,168,-92
14,188,484,762,-158,-111,163,475,244,-2
61,206,395,586,-127,-71,218,1005,185,135
123,227,324,336,-54,-66,69,548,17,178
131,133,127,159,-62,-96,-42,81,-15,136
133,16,25,50,-100,-82,67,109,57,90
193,-65,-72,-34,-126,-58,214,416,158,135
225,-59,-179,-38,-115,-83,180,481,170,183
172,-15,-74,-6,-71,-64,94,355,76,119
130,23,14,13,10,5,71,167,-19,21
72,40,21,-40,-5,24,55,25,-71,-22
45,54,3,-112,-49,1,52,11,-44,-36
66,97,-3,-88,56,9,26,18,3,-53
45,176,103,16,99,-52,-80,-70,-32,-93
-37,104,113,41,8,-132,-207,-210,-76,-75
-94,-54,42,16,-60,-97,-193,-239,-42,29
-129,-121,9,-9,-38,-34,-132,-259,-38,60
-101,-93,-17,-57,41,-23,-153,-297,-98,21
-122,-47,-58,-125,127,-44,-163,-241,-137,-48
-227,-87,-112,-146,225,-10,-102,34,-130,-127
-410,-136,-228,-183,282,27,-24,180,-95,-228
-490,-123,-250,-94,353,45,-67,52,-116,-296
-504,-141,-261,3,331,168,26,53,-121,-283
-358,-159,-149,104,110,248,178,181,-86,-203
-67,-167,57,233,-209,125,127,160,-45,-68
232,-179,169,338,-314,-26,32,53,56,104
371,-32,186,182,-246,-104,-24,-26,175,249
337,128,104,-171,-205,-132,-85,-116,188,240
298,76,31,-192,-154,-125,-98,-117,109,100
239,58,14,0,-11,-38,-19,61,66,44
196,106,49,243,71,31,73,275,64,71
198,93,59,300,12,23,87,273,42,110
169,91,152,285,-25,-11,40,113,-65,91
185,138,188,157,-73,-85,-40,-26,-90,119
114,91,97,-82,-75,-79,-9,43,30,102
32,-6,-106,-347,-59,48,62,221,166,31
36,-22,-186,-345,-15,127,21,198,179,-8
130,28,-249,-273,20,39,-76,58,108,9
139,42,-254,-325,3,-11,-91,5,77,32
67,1,-180,-301,-49,-34,-58,-134,-8,18
-49,-16,-171,-158,-113,-97,-117,-356,-153,-32
-147,-7,-68,-37,-129,-116,-162,-275,-218,-104
-129,-15,107,50,-124,-95,-114,-158,-168,-70
-33,19,224,236,-35,-69,-115,-358,-137,-26
-4,61,218,322,52,2,-32,-305,-85,0
38,66,23,148,48,50,110,24,53,21
46,39,-38,22,-2,48,186,371,138,27
53,106,64,12,-102,3,189,422,136,23
73,135,126,39,-149,-64,99,251,92,42
-51,-11,41,105,27,23,75,155,75,66
-26,-111,-22,191,202,92,57,109,60,68
-7,-130,-42,138,295,127,41,63,26,40
-12,-50,-13,96,342,158,41,24,29,60
13,-34,-80,-58,260,209,45,-25,38,92
-98,-162,-181,-346,41,302,68,-108,-24,-1
-143,-170,-174,-342,-66,301,80,-151,-39,-61
-60,-87,-60,-151,-92,135,-9,-179,9,-1
14,-44,41,-56,-191,-93,-55,-95,77,38
13,-66,-12,-95,-167,-80,110,100,132,61
11,-46,-14,-85,-115,-39,84,70,36,43
50,1,0,-96,-72,-25,-54,6,-81,28
81,36,8,-151,-6,-5,-80,-43,-127,11
41,17,-63,-199,126,23,16,14,-196,-81
-35,28,-86,-194,137,-101,2,156,-244,-193
-25,111,-28,-113,148,-144,-93,68,-185,-175
-42,144,13,149,143,-132,-179,-114,-121,-114
-101,123,131,601,122,-158,-250,-252,-115,-117
-83,86,184,694,221,83,-35,-184,-39,-91
-71,-34,223,545,176,203,110,-96,-20,-72
5,16,363,387,-167,-116,-96,-109,-21,-5
148,160,323,49,-338,-264,-181,0,37,90
209,192,177,-231,-331,-247,-136,34,34,96
29,20,-2,-294,-174,-129,-64,5,-8,-12
-64,-75,-63,-274,-75,-87,-77,-78,-32,-50
-74,-69,-104,-301,-123,-50,-19,-83,-5,-24
-134,-154,-149,-309,-116,46,136,27,13,-34
-156,-168,-46,-103,-65,62,258,82,32,-39
-12,19,161,224,-8,-46,128,44,52,75
166,173,144,295,1,-161,-79,-21,30,156
231,218,-11,243,24,-139,-131,-81,31,171
191,168,-97,119,80,-24,22,51,83,140
111,46,-123,-85,100,89,188,214,112,80
-16,-8,-77,-162,31,104,108,29,-11,-31
-176,-75,14,-63,58,69,10,-156,-60,-103
-262,-115,60,297,229,64,22,-177,-20,-134
-318,-109,-6,537,285,85,11,-158,-12,-152
-335,-66,-47,369,274,100,71,38,72,-108
-240,19,-65,83,331,153,164,164,158,-28
-180,79,-82,-58,299,169,92,-3,59,-14
-96,150,-68,-281,-4,46,-4,7,38,5
215,207,39,-351,-347,-72,2,71,48,86
478,-7,75,-221,-452,-138,15,-53,39,141
315,-140,37,-179,-373,-114,22,-150,64,121
66,-137,20,-190,-175,18,44,-82,104,66
-4,-93,53,-170,-69,45,-10,-7,27,-21
7,-63,34,-65,-23,75,-62,-15,-81,-91
66,-42,-50,-67,34,193,24,205,-56,-94
131,21,-63,-170,0,181,52,267,-33,-31
131,25,-22,-66,111,162,-40,-14,-84,59
59,53,15,149,225,181,-56,-132,-92,80
-11,127,159,291,187,123,-63,-150,-97,58
-38,112,166,261,74,11,-71,-213,-75,57
-32,39,100,322,77,-26,-36,-221,-51,38
-21,47,74,256,88,-54,-54,-130,-41,17
9,81,61,139,117,-84,-69,-30,-61,-14
12,62,11,-31,13,-97,-37,79,-30,-29
-89,-37,-95,-324,-217,-28,76,246,68,-60
-155,-54,-153,-442,-257,85,211,443,157,-47
-78,66,-107,-336,-176,88,193,434,161,-21
0,91,-134,-366,-209,-30,77,249,56,-60
15,40,-74,-333,-225,-151,-36,84,-10,-128
-12,-21,-35,-136,-122,-154,-94,-20,-31,-93
25,-24,-84,-91,-65,-107,-97,-101,-20,14
104,-47,-153,-79,-35,-27,-36,-67,62,82
112,-65,-189,-72,-3,53,47,-31,129,138
-111,-32,-131,-111,50,124,92,-77,91,78
-178,51,-107,-189,61,94,77,-16,36,4
4,176,25,40,169,39,25,68,19,7
164,237,206,308,260,74,-16,-32,48,47
111,34,213,190,110,-18,-143,-321,2,5
-202,-298,85,15,-50,-139,-305,-540,-113,-135
-362,-353,129,170,-112,-204,-381,-461,-72,-168
-271,-163,251,481,60,-150,-366,-454,-13,-112
-97,-7,184,383,85,-90,-312,-565,74,-28
25,7,-2,-31,-61,-86,-162,-498,72,-20
25,-62,-84,-191,-112,7,258,259,65,-51
114,-68,-74,-48,-66,169,646,1228,96,49
188,-7,9,264,60,188,544,1129,18,153
140,28,24,317,114,95,221,437,-86,113
77,1,-10,99,99,65,51,123,-78,106
45,-58,-31,20,189,85,-3,44,-63,89
48,-52,-100,-68,145,40,-5,21,-57,77
95,-9,-33,-25,128,1,-23,24,-43,95
154,87,116,429,194,-71,-134,-30,-31,139
152,154,139,587,159,-113,-210,-105,-72,80
32,92,25,198,144,3,-133,-179,-169,-71
-48,75,32,-32,127,87,-33,-214,-195,-154
-36,121,57,-111,-147,-52,-4,-205,-158,-168
26,168,77,-109,-287,-90,6,-217,-83,-121
95,109,104,0,-160,-45,-71,-314,-49,40
28,-51,61,-54,-131,-54,-105,-365,-61,110
-65,-93,-22,-188,-161,-90,-110,-291,-3,91
-28,-18,-109,-312,-156,-38,-57,-208,152,96
-61,4,-117,-334,-117,37,0,-210,213,81
-165,-90,-158,-282,-81,114,214,207,267,-11
-160,-130,-85,-95,-55,112,349,689,198,-126
-5,-68,-55,2,10,63,233,603,67,-100
83,-7,-112,-51,67,72,180,441,60,-23
95,-24,-90,-137,54,75,182,332,87,23
-44,-57,-77,-146,59,61,108,163,34,-15
-204,-53,-40,-128,30,23,3,94,13,-78
-169,-31,-30,-61,34,13,-58,73,61,-41
-99,37,35,198,197,79,-57,10,49,7
-47,97,119,327,253,195,33,-21,35,-8
92,100,189,361,233,179,19,-58,1,-23
295,-79,-8,145,133,35,-35,-47,-1,27
173,-174,-226,-208,-143,-124,-112,-137,-41,21
-9,-126,-163,-305,-270,-141,-97,-240,-104,-49
11,-51,-91,-268,-214,-42,0,-216,-27,-17
141,97,-5,-211,-229,-137,-116,-244,39,35
211,213,23,-143,-159,-186,-244,-302,18,26
155,178,-6,-140,-50,-151,-228,-196,-49,-59
78,74,-72,-205,-38,-124,-95,40,-98,-124
84,61,-17,-117,-52,-136,-62,-16,-152,-141
100,51,42,-88,-35,-100,-94,-250,-195,-72
-66,-136,-55,-65,-1,-77,-157,-490,-210,-11
-195,-196,0,169,62,21,-124,-471,-138,58
-104,-63,93,160,127,137,17,-176,-33,105
48,123,100,9,-5,50,44,12,-13,58
121,185,34,-110,-140,17,46,245,-7,-11
99,111,-41,-85,-128,9,127,552,45,-110
-21,75,28,120,-105,-48,173,764,122,-174
-154,105,128,278,10,7,157,608,115,-161
-218,49,104,109,44,-20,-21,159,-52,-100
-209,-82,-20,-63,24,-50,-103,-49,-72,-11
-173,-218,-133,46,23,4,-38,6,-3,4
-56,-220,-97,191,81,34,-39,-19,-31,-25
-76,-193,-1,186,105,98,45,20,-54,-60
32,-69,161,180,-60,41,82,84,-6,18
203,3,179,154,-88,-8,87,93,107,165
197,50,64,-95,-45,17,168,161,218,240
65,65,-25,-333,-8,-3,95,114,200,186
-26,33,-30,-267,8,-37,-30,-43,93,79
-12,-19,-71,-292,-53,-69,-77,-104,90,67
-21,-98,-110,-197,1,-59,-82,-154,73,44
-103,-51,-4,92,51,-56,-98,-271,-34,-53
-168,-21,27,251,75,-35,-13,-199,-53,-115
-135,-1,-13,437,143,18,102,-82,-18,-96
-78,52,39,545,179,6,112,-115,-2,-73
-32,121,209,426,175,-68,-4,-54,-52,-42
59,119,72,9,158,-46,65,107,-17,35
115,-30,-70,-116,42,-72,43,-81,16,48
72,-49,4,17,-152,-191,-133,-289,-15,4
70,0,28,159,-178,-139,-207,-378,-61,21
192,18,57,84,-143,-34,-160,-345,-10,113
244,59,135,-4,-105,43,-43,-157,67,145
197,80,90,-124,-111,63,63,37,45,117
140,44,-3,-208,-124,17,134,521,80,87
17,-9,-8,-53,21,69,139,555,29,37
-182,-46,-2,0,203,174,76,239,-97,-101
-214,-37,-43,-106,287,190,-6,33,-165,-188
-128,-6,-36,-181,230,202,-18,-38,-170,-164
-156,-12,-66,-273,38,205,84,26,-153,-154
-171,-11,-74,-211,-72,149,185,117,-115,-167
-130,0,30,29,-18,45,62,70,-80,-105
-112,-43,63,157,76,-10,-85,-2,-39,-27
-42,-45,16,82,138,-21,-74,-4,8,66
-47,-77,-74,-97,204,26,94,26,26,80
-132,-148,-74,-43,196,59,147,-40,-22,-7
-197,-153,-53,27,37,-66,-8,-159,5,-24
-116,-43,0,18,-81,-90,-50,-165,120,94
71,130,123,28,-233,-129,-45,-119,155,220
122,206,135,36,-284,-113,-34,-63,71,240
172,246,132,-20,-325,-119,-33,-29,70,250
168,234,113,-44,-162,-26,-24,-58,113,210
105,141,63,-36,27,65,33,23,118,133
75,117,82,-41,-105,-47,81,217,86,47
113,37,45,-108,-157,-55,125,343,67,-22
165,-139,-35,-122,-99,-45,36,212,14,-65
30,-134,-21,-94,-60,-43,-52,29,-23,-79
-27,-42,-23,-124,-31,-34,-92,-56,-27,-69
-32,-52,-98,-195,-6,-35,-99,-98,-49,-87
-84,-101,-228,-260,-18,-30,-111,-135,-83,-117
-149,-129,-145,-249,-78,-31,-150,-246,-149,-180
-192,-102,9,-149,-112,-57,-229,-408,-256,-269
-174,-53,79,-17,-76,-18,-209,-392,-247,-281
-168,-87,-61,0,-1,104,-71,-259,-120,-201
-92,-50,-181,55,-3,64,31,-142,-21,-88
137,195,-22,364,-56,-95,67,67,88,62
276,309,120,449,-14,-175,10,200,77,127
263,295,228,410,64,-134,-84,37,-23,69
269,299,314,352,137,-33,-67,-85,1,59
290,168,168,28,184,84,45,-11,129,143
105,-114,-56,-207,103,146,130,57,203,205
-16,-182,-62,-199,-38,126,130,178,190,192
24,-94,4,-61,-42,107,127,339,159,170
90,-103,-77,-30,-48,87,93,311,78,218
24,-170,-236,-139,-46,82,76,232,45,211
-122,-223,-207,-123,3,67,100,285,49,59
-77,-178,-91,-66,51,27,87,190,-1,5
59,-141,-62,63,124,-5,-40,-5,-79,3
54,-82,-1,273,185,-72,-168,-125,-132,-80
38,8,89,334,162,-105,-195,-152,-136,-157
36,56,90,267,82,-55,-77,-89,-73,-109
-81,4,37,203,68,76,97,2,29,0
-226,-29,18,34,21,139,129,38,57,-10
-197,21,-40,-54,24,96,55,5,-6,-77
-57,92,-38,-102,85,105,5,-84,-44,-40
41,121,-18,-179,158,182,0,-164,-30,48
26,60,-90,-11,326,211,-7,-223,-54,30
-120,-27,-164,96,461,104,-132,-308,-177,-150
-139,-45,-236,-187,447,-75,-331,-418,-234,-217
-177,-101,-230,-345,423,-171,-408,-494,-213,-194
-368,-272,-261,-259,125,-52,-171,-360,-234,-256
-464,-314,-162,-99,-288,149,215,-130,-248,-350
-277,-102,247,404,-331,61,121,-140,-190,-282
33,117,441,475,-359,-175,-90,-180,66,-6
270,258,417,168,-476,-299,-109,-116,338,243
297,240,195,-201,-390,-167,67,-88,413,284
126,46,6,-207,-253,-63,181,111,328,116
102,-9,-64,-153,-214,-45,272,902,299,58
140,-31,-98,-137,-104,21,357,1161,218,101
212,29,7,-16,6,42,304,666,102,131
272,117,87,29,-29,0,183,252,4,171
154,45,13,-46,-65,-11,132,185,53,218
-10,-26,-56,-126,-70,-24,82,189,68,134
-103,-38,-154,-127,-31,-9,31,88,-2,41
-128,-36,-165,-125,-37,12,11,36,-19,45
-60,-20,-36,-97,-90,-42,-1,7,-28,22
-23,13,71,26,-50,-79,-28,-27,-62,-30
-9,35,109,161,52,-40,-51,-73,-90,-27
-13,-16,56,138,70,-32,-75,-127,-99,-38
-44,-82,-67,-81,45,-13,-88,-142,-65,-42
-33,-70,-99,-179,61,8,-104,-177,-42,-60
-21,-32,-145,-23,48,-41,-121,-159,-111,-122
-33,-48,-224,107,24,-12,-14,101,-86,-114
-21,-89,-180,61,27,43,89,226,-4,-25
-8,-56,5,124,80,69,45,69,-12,21
-30,-5,105,240,179,117,25,-54,-49,0
33,33,28,8,151,166,51,-73,-14,46
29,-8,-144,-242,200,251,41,-120,-5,37
-52,-62,-238,-315,291,264,-29,-256,-79,-53
-225,-177,-295,-381,320,282,-118,-408,-209,-192
-335,-186,-244,-257,347,230,-166,-489,-296,-301
-329,89,156,152,141,-88,-315,-613,-351,-309
-312,228,245,248,-107,-276,-306,-548,-258,-248
-185,326,212,324,-165,-254,-121,-412,-160,-210
68,451,329,304,-241,-235,-113,-438,-126,-189
271,421,432,209,-366,-315,-167,-247,-44,-77
440,89,346,245,-304,-270,-93,68,103,110
649,-319,-14,48,-230,-101,158,594,398,353
379,-369,-171,-167,-185,31,412,854,502,437
159,-211,-92,-114,-114,15,300,547,385,348
88,-92,-40,-39,-77,-9,190,394,290,225
49,-19,-5,-18,-77,-17,139,277,228,118
30,-3,8,38,-3,12,62,3,123,44
29,4,17,60,110,80,49,-137,60,23
82,25,18,53,126,158,98,184,113,49
98,22,48,60,113,227,149,434,107,33
74,36,71,79,136,194,107,182,-34,-23
6,2,29,30,87,100,72,28,-72,-45
-60,-41,-58,-66,-46,-23,160,133,28,-40
-100,-49,-74,-70,-49,-28,283,263,82,-31
-81,7,-5,10,32,-38,205,260,14,-48
-25,87,39,51,32,-114,13,83,-66,-70
6,116,-30,14,-7,-158,-102,-31,-77,-74
24,93,-13,-14,9,-55,-80,-38,-55,-65
107,75,-46,9,147,141,-19,30,-20,2
160,4,-170,-106,269,176,-11,91,11,38
47,-15,-171,-151,339,88,-123,-31,-69,-49
-124,-49,-161,-214,229,-39,-165,-151,-171,-162
-258,-152,-183,-329,-50,-97,-152,-201,-228,-220
-253,-62,-48,-188,-95,-14,-114,-239,-215,-210
-52,113,10,-122,-65,10,-132,-277,-150,-153
152,167,132,72,-223,-103,-214,-331,-139,-76
320,157,232,166,-327,-145,-161,-237,-25,116
201,80,130,-51,-289,-97,-38,-150,98,191
-13,-43,80,-227,-277,-155,-57,-135,119,179
-112,-161,40,-204,-216,-117,-68,-56,37,121
-150,-259,-9,-25,-64,-39,-55,-5,-29,60
-98,-225,13,231,108,15,0,-4,34,80
-1,-78,68,429,192,72,36,-53,111,104
37,0,26,453,150,98,30,-126,120,62
7,3,20,270,134,112,21,-151,125,3
-38,8,24,105,194,123,8,-146,150,-48
-87,2,17,24,147,91,-24,-122,111,-75
-135,-35,-29,-121,-12,53,1,166,104,-67
-136,-27,-45,-180,-64,38,55,267,71,-73
-109,-5,-77,-134,-54,53,107,321,58,-48
-82,23,-49,-76,-26,86,168,392,41,-19
-55,39,15,-103,-48,37,97,183,-67,-46
-53,5,-114,-175,-59,-2,13,110,-111,-82
-13,6,-101,-120,-43,-11,-11,163,-61,-72
61,57,-62,-24,-90,-23,-23,115,-15,-23
133,130,-20,124,-94,-28,-32,48,0,18
131,198,81,156,-59,-2,-44,-19,-31,-3
106,175,155,174,0,23,-60,-67,-74,-22
101,107,162,188,63,61,-28,-47,-43,5
76,4,27,-63,82,82,38,64,27,63
-7,-150,-143,-244,133,80,54,91,18,45
-138,-169,-117,-111,169,9,-57,-60,-94,-31
-155,-102,-62,-12,122,-99,-181,-205,-176,-79
-147,-70,-58,128,71,-132,-244,-309,-202,-99
-161,-68,-2,353,-66,-208,-265,-344,-183,-112
-127,-61,22,429,-94,-177,-166,-328,-160,-82
-68,-28,25,226,29,15,-31,-301,-118,-18
-5,14,72,-55,30,88,-10,-259,-13,27
105,38,87,-189,-45,92,4,-191,54,18
219,72,42,-227,-9,192,87,67,90,66
195,75,-85,-330,29,321,223,373,152,114
-77,8,37,-33,-16,35,132,99,-88,-114
-31,37,-13,-115,-133,21,184,215,-62,-111
63,103,-81,-89,-71,-37,114,225,15,-55
162,119,-43,-29,-45,-155,-49,148,66,51
83,10,8,-53,-113,-161,-89,68,108,147
-104,-102,-71,-139,-116,-64,-18,15,96,143
-156,-117,-24,87,105,32,-2,-47,43,96
-149,-106,53,382,306,25,-42,-79,33,93
-127,-44,124,539,319,-31,-122,-126,-4,72
-94,35,142,389,321,27,-42,-107,34,43
-87,-32,9,4,304,69,60,-32,67,0
-38,-143,-152,-381,3,4,-5,-62,7,-29
25,-124,-113,-405,-201,40,-10,-256,-129,-54
82,6,68,-86,-157,43,-37,-407,-124,-15
157,150,220,205,-202,-90,-106,-358,49,92
83,204,159,72,-257,-151,-14,-72,251,157
-72,159,45,-116,-197,-104,59,55,292,134
-233,78,14,-100,-98,-42,86,173,207,16
-253,83,48,9,-6,40,228,606,124,-35
-109,117,129,207,17,38,250,754,3,-45
93,18,15,278,59,36,119,350,-70,9
222,-205,-192,127,96,64,30,105,-32,78
104,-183,-116,22,68,43,-34,-5,-64,60
34,-61,-25,-18,38,21,-20,-21,-96,27
-45,-54,-32,-92,-5,-2,20,43,-68,-13
-119,-76,-66,-151,-38,-24,-5,35,-90,-64
-93,-24,-88,-135,18,14,-19,-18,-104,-80
-103,-12,-117,-122,-28,-1,-45,-21,-69,-75
-103,-23,-20,-127,-65,9,-3,-3,-50,-65
-7,64,35,-128,-93,-26,-26,-41,-44,-15
132,135,5,-220,-139,-106,-120,-143,-73,38
98,26,-98,-324,-66,-36,-181,-270,-148,22
-57,-115,-158,-207,111,105,-136,-308,-153,-26
-103,-147,-261,-17,188,144,-69,-286,-85,-34
-35,-95,-315,202,218,90,4,-226,35,6
-56,-102,-185,274,141,-7,71,-95,119,7
-111,-141,-100,91,-65,-67,74,66,63,-61
-57,-85,-37,19,-69,-38,-2,105,-36,-61
45,43,-2,147,96,61,-68,-11,-36,30
137,150,45,21,-22,21,-109,-127,75,123
101,167,146,-193,-244,-87,-87,-127,60,77
39,124,150,-220,-180,-6,45,183,22,13
-10,129,195,-85,-31,83,97,290,9,-34
-72,59,101,-33,-55,56,30,158,18,-46
-51,38,78,133,-49,21,0,61,34,8
85,93,160,233,-9,22,-11,31,110,116
126,89,83,192,31,65,34,34,153,129
19,36,35,126,22,62,131,34,106,9
0,-4,-12,42,-13,59,184,67,79,-48
39,-24,13,50,-6,13,96,84,52,-43
27,-29,35,103,22,-33,15,18,20,-20
25,-33,-8,75,33,-29,-39,-41,17,6
1,-56,-60,10,70,45,-4,-58,25,2
-23,-44,-69,12,156,125,33,-41,63,5
-48,-5,-38,-1,176,166,32,-22,71,17
-75,-58,-94,-109,212,222,43,-3,60,-2
-125,-119,-166,-305,161,158,-14,-60,-62,-94
-132,-143,-209,-433,90,60,-58,-12,-161,-122
-87,-105,-187,-335,76,4,-66,20,-186,-97
-1,-4,-19,107,-10,-91,-140,-187,-301,-104
101,34,108,453,-75,-135,-248,-376,-340,-60
138,87,196,486,-68,-56,-227,-419,-238,-3
248,226,265,314,-105,0,-116,-344,-53,27
387,309,184,-3,-134,-33,-45,-215,120,91
337,299,51,-228,-115,-42,29,-5,164,98
133,158,0,-320,-156,-74,77,290,73,15
-122,-27,-47,-208,-154,-113,59,431,-15,-82
-267,-151,-14,-10,-50,-75,38,319,32,-54
-289,-202,9,63,-16,-18,29,157,44,-26
-224,-171,43,161,61,63,100,122,54,8
-68,-139,100,423,201,75,67,56,25,38
2,-82,79,415,213,78,43,46,36,78
-79,-103,-21,243,264,136,198,226,152,82
-121,-159,-56,97,256,157,202,266,162,17
-138,-182,-52,-44,59,80,71,127,62,-59
-108,-122,-43,-146,-61,54,28,61,44,-32
0,-33,-23,-254,-166,42,98,81,100,66
79,38,-20,-371,-283,-39,125,117,151,128
93,87,-16,-314,-240,-110,-10,16,96,101
44,58,41,-138,-143,-181,-169,-137,-43,11
37,51,46,-117,-101,-181,-196,-137,-63,7
14,19,-23,-114,-85,-174,-200,-198,-83,-12
-83,-60,-200,-130,-44,-98,-143,-246,-106,-108
-114,-64,-179,12,15,-47,-93,-246,-66,-130
-13,59,139,431,85,-84,-118,-233,-34,-97
64,123,248,583,93,-79,-91,-139,-35,-62
54,69,107,317,60,23,27,11,64,7
-93,-19,0,-4,3,67,114,71,102,-14
-123,-45,27,-86,-19,70,170,60,31,-87
21,-2,38,-185,-83,56,205,154,45,-12
102,30,2,-278,-124,36,177,185,47,68
69,92,-2,-203,-75,37,66,9,-4,81
-17,119,-46,-114,12,45,-21,-157,-49,98
-42,87,-137,-145,1,-10,-100,-263,-63,155
-41,66,-115,-248,-99,-70,-114,-187,4,167
-58,42,-70,-219,-81,-27,-71,-115,7,89
-12,-42,26,-3,-24,-69,-75,-265,-58,-26
145,-184,9,217,31,-113,-98,-179,-56,-110
92,-150,41,269,65,-76,-22,224,-5,-132
-8,-29,72,237,141,-30,44,390,-29,-114
16,47,41,189,168,22,50,346,-49,-67
77,106,53,184,17,-34,-16,226,-45,-46
57,64,16,85,-61,-60,-18,82,-69,-19
37,11,-56,-121,-27,-32,5,51,-61,-13
45,-13,-112,-275,-9,30,23,83,-5,-1
30,-44,-152,-339,54,159,29,29,35,26
-24,-87,-136,-235,131,170,20,-16,57,19
-50,-39,-22,34,81,78,-34,-16,18,-33
-12,21,-54,61,-10,36,26,80,28,-10
71,55,-54,-61,-3,70,59,38,47,42
150,50,25,-200,-70,8,-41,-71,36,56
88,20,66,-268,-169,-44,-59,-145,-26,-19
-40,-7,148,-38,-139,-32,-41,-253,-98,-96
-53,32,153,222,-108,-73,-47,-273,-59,-63
-32,77,211,341,-106,-106,-13,19,24,-1
-64,105,191,336,-54,-93,36,403,89,42
-127,44,66,143,15,-20,72,342,96,50
-47,-23,-51,-4,43,27,45,149,87,81
57,-78,-139,-14,75,68,22,16,40,53
48,-97,-116,-53,79,187,113,-1,11,-13
18,-72,-94,-73,79,215,145,42,23,-12
64,-15,-6,-71,-5,96,58,-7,0,16
190,131,143,-5,-142,-137,-165,-184,-79,22
196,188,124,81,-104,-138,-181,-236,-99,38
156,130,-42,87,24,6,-31,-119,-30,96
58,94,-83,76,78,56,29,-83,-13,97
-32,69,27,113,20,8,-29,-190,-116,-11
-44,9,80,43,-29,-30,-63,-197,-132,-76
-76,-77,-4,1,6,-34,-63,-131,-83,-69
-109,-104,-59,24,14,-58,-36,26,32,-48
-135,-75,36,54,93,-27,-1,113,60,-52
-81,-41,40,46,156,49,35,142,72,-40
-3,-17,15,-57,60,22,-4,130,19,11
-23,22,34,3,66,2,-70,-10,-84,32
-52,49,112,246,227,58,-69,-111,-112,-15
-105,-12,33,95,232,49,-21,-139,-118,-76
-124,-107,-107,-132,205,-13,37,-64,-112,-122
-56,-210,-202,-201,38,-62,7,29,-63,-135
27,-287,-230,-163,-217,-87,-77,41,-33,-131
0,-199,-42,92,-220,-63,-95,-31,-53,-95
29,-28,95,126,-262,-104,-36,-24,46,59
105,69,112,51,-281,-87,84,132,190,187
113,111,139,107,-110,57,276,400,273,209
56,82,95,-59,-39,130,345,409,203,157
1,44,30,-144,-103,36,208,172,89,124
-18,34,18,-85,-44,-21,61,-7,28,88
-25,14,-20,-122,56,-23,-38,-132,-23,33
-68,-24,-65,-206,86,-31,-77,-187,-24,-43
-104,-55,-93,-154,88,-21,-54,-177,27,-76
-59,-12,-16,140,85,6,-11,-129,42,-34
11,68,52,474,126,49,14,-21,41,14
50,95,29,520,132,91,71,89,30,54
88,75,15,294,107,69,45,26,7,63
125,65,0,-39,118,61,-29,-76,58,112
55,37,9,-195,96,27,-152,-270,13,84
-29,-3,45,-134,58,31,-221,-335,-84,-39
6,27,53,-37,119,110,-79,-35,-11,-24
-26,-26,-27,-2,33,65,93,255,42,-9
-47,-75,-85,33,-122,11,311,411,72,40
75,18,7,73,-154,0,245,314,29,104
208,167,153,33,-117,-84,-15,33,-60,137
186,174,156,-55,-58,-132,-110,-81,-75,136
91,80,11,-247,-71,-114,-18,50,9,102
110,44,-164,-352,-44,-76,40,156,58,69
88,66,-131,-224,40,-57,27,146,60,17
-104,-28,-85,-119,132,16,-32,94,15,-110
-196,-63,-59,-95,173,57,-85,-63,-98,-183
-141,-61,-83,-170,51,-4,-118,-180,-117,-152
-179,-150,-162,-257,-36,12,-158,-270,-137,-185
-262,-142,-114,-229,19,89,-125,-219,-149,-218
-290,-49,-28,-201,17,103,-40,-65,-68,-153
-189,46,-84,-249,10,130,15,-47,-54,-27
-140,45,-217,-380,47,195,72,-126,-93,20
-133,63,-109,-230,9,185,109,-143,-117,-69
-77,61,211,341,11,56,-59,-376,-239,-193
171,6,354,536,-135,-198,-299,-603,-284,-177
309,84,393,472,-319,-438,-393,-569,-160,-79
181,134,289,389,-206,-346,-172,-24,143,36
132,80,41,387,0,-98,158,757,434,194
85,88,7,335,119,8,239,964,400,192
9,166,128,257,189,-45,115,672,129,16
15,137,156,148,214,-32,7,250,-81,-85
4,-27,19,-74,48,73,81,75,-83,-83
-79,-160,-84,-187,-106,159,186,103,22,-42
-98,-107,-71,-83,-76,121,135,137,105,6
-86,-80,-71,-134,-87,2,-5,54,81,24
-56,-130,-119,-317,-95,-87,-131,-91,0,7
-40,-195,-240,-344,10,-28,-93,-120,-18,25
-66,-202,-313,-167,9,0,-9,-43,25,18
-52,-109,-171,91,-101,-10,27,14,36,-1
13,39,37,282,-36,90,109,52,36,9
59,100,192,330,55,131,120,44,42,51
154,154,257,250,36,24,4,-104,-34,70
254,202,199,15,-33,-47,-46,-205,-65,114
253,152,73,-181,-51,-19,-92,-261,-38,155
130,8,-2,-116,-16,-44,-180,-347,-58,127
57,-129,-50,-38,0,-110,-210,-393,-83,91
-44,-139,-41,-1,7,-136,-151,-295,-92,-3
-177,-114,-52,-35,-13,-126,2,58,-7,-98
-119,-79,-88,-108,-56,-94,197,504,64,-106
7,6,-96,-195,-30,-18,228,473,1,-31
82,115,-69,-302,-38,-35,102,155,-51,27
32,152,-13,-179,-24,-24,32,-12,-55,58
6,56,-40,-122,-24,21,25,-30,-14,83
-50,-53,-73,-119,-47,-14,0,-58,65,88
-156,-141,8,156,107,-36,-63,-182,54,-18
-187,-146,-6,206,207,3,-29,-217,76,-138
-97,-81,-26,292,287,55,12,-186,94,-117
-28,-42,0,465,303,102,-22,-24,39,-48
-34,-49,-83,294,180,177,-15,140,-34,-23
-14,-41,-96,19,75,160,-23,53,-68,3
27,-31,-113,-308,-31,147,77,25,20,43
46,19,-42,-287,-104,86,131,26,65,20
73,80,98,-109,-212,-37,92,-58,48,30
108,109,169,18,-192,-104,-13,-158,46,59
64,125,222,286,-50,-140,-156,-306,-5,27
69,127,217,315,-43,-140,-161,-301,-1,51
114,116,118,81,-119,-105,-57,-148,73,110
93,45,28,-104,-186,-64,75,190,125,110
58,1,-7,-99,-143,-14,169,428,103,79
31,13,5,-37,-26,41,172,258,-1,42
19,3,2,-18,-11,40,147,150,-62,-6
-2,-10,-70,-41,-29,49,158,207,-43,-47
5,0,-42,-15,6,74,121,176,-47,-102
22,38,3,-23,10,44,40,-1,-76,-112
-7,41,-30,-69,15,-1,-35,-129,-65,-80
-37,22,-122,-146,50,-12,-83,-183,-87,-92
-47,6,-160,-305,86,27,-75,-96,-82,-118
-22,-25,-203,-352,68,51,-46,5,-63,-127
-22,-41,-151,-110,79,3,-75,2,-91,-128
19,-87,-123,32,72,-33,-49,19,-26,-47
170,-24,-10,79,-72,-61,-31,-34,-4,38
132,51,149,217,31,28,44,-83,-22,80
-39,66,186,168,122,126,134,-34,14,72
-196,102,241,322,40,-26,-1,-111,-41,-19
-257,121,195,485,36,-92,-36,-111,50,-9
-134,150,117,346,157,44,13,-72,145,74
126,170,111,140,151,109,0,-39,138,124
371,15,43,-66,-93,17,-60,-103,109,139
330,-96,-13,-157,-257,-71,-117,-297,23,92
88,-79,1,-101,-222,-92,-47,-95,45,74
-111,-90,-32,-104,-175,-61,84,415,110,39
-193,-98,-42,-113,-98,9,145,481,84,-71
-156,-85,-23,-47,17,62,99,177,7,-144
-66,-18,-28,3,59,36,30,-32,-27,-114
25,75,14,20,35,18,14,-70,-23,-68
80,51,-7,-45,20,43,20,-31,43,0
80,-76,-77,-163,-29,31,1,-21,79,14
-89,-180,-114,-256,-61,-29,-23,20,34,-46
-251,-222,-112,-200,-62,-78,-40,131,5,-72
-223,-147,-89,-26,-51,-95,-78,97,-1,-39
-154,-55,-39,204,10,-59,-73,20,14,9
-106,0,11,306,72,29,-16,-34,-2,17
-54,33,-15,117,110,105,2,-103,-44,21
-23,69,5,-28,74,33,-94,-239,-121,-20
20,11,-48,-245,-21,-41,-159,-372,-192,-63
-3,-129,-169,-427,-27,18,-125,-345,-149,-47
-52,-155,-183,-332,14,35,-129,-299,-49,-21
-92,-158,-177,-264,21,66,-138,-288,21,-26
-50,-113,-68,-90,82,100,-137,-169,65,-22
94,0,1,59,50,56,-80,61,54,61
123,6,-126,18,-141,-58,34,165,-21,59
67,-81,-223,-86,-285,-71,224,359,61,-10
99,-24,11,25,-214,-64,267,463,182,6
149,101,312,238,-167,-150,81,182,97,44
248,194,391,271,-128,-160,-68,97,51,129
262,177,236,174,3,-36,21,349,98,193
151,106,41,103,160,85,81,355,11,114
10,30,-32,28,154,49,33,141,-74,-26
-59,-15,-61,-54,110,-17,6,26,-94,-65
-100,-95,-139,-187,10,-70,18,5,-63,-57
-135,-169,-140,-167,-16,-89,-4,-38,-42,-47
-154,-166,-93,-55,48,-26,-75,-134,-82,-80
-91,-82,-15,62,0,31,-34,-128,-40,-65
41,91,159,383,5,21,8,-64,-16,-30
109,193,217,489,15,-14,-21,-87,-12,-1
126,202,202,404,20,-7,-62,-131,38,74
70,165,115,262,62,18,-77,-146,50,107
0,132,3,-34,63,49,-72,-86,28,60
88,83,-117,-415,35,108,-21,-111,-37,30
251,82,-192,-570,81,169,12,-289,-99,14
198,48,-215,-341,168,162,3,-298,-47,-8
89,4,-132,174,285,136,23,-121,27,-31
41,-50,-82,358,302,131,87,170,86,-45
-112,-155,-88,206,242,118,169,377,75,-82
-331,-181,-34,195,127,67,164,353,-2,-167
-365,-155,-52,9,-170,-56,74,268,-20,-156
-172,-31,-31,-176,-275,-75,70,195,34,-3
2,83,46,-223,-265,-40,63,158,56,89
10,74,87,-221,-250,-13,43,109,67,113
-16,35,87,-41,-88,38,12,2,31,77
-33,49,110,148,63,70,-4,-86,-70,-36
-47,83,106,154,109,5,6,-12,-89,-103
-107,96,121,35,44,-133,-41,26,-107,-118
-145,123,134,-15,-76,-201,-148,-94,-165,-109
-103,146,98,-44,-103,-140,-169,-176,-174,-65
-57,174,-9,15,-50,-28,-95,-157,-128,-49
-16,121,-81,48,-62,76,18,-56,-31,24
82,-60,-32,-40,-78,108,106,80,69,86
203,-269,-116,-131,-38,73,128,97,93,120
111,-289,-204,-199,37,83,97,9,78,177
-25,-173,-149,-296,83,94,105,23,153,190
-28,-95,-71,-155,74,5,47,-23,184,131
16,-55,-30,13,117,2,14,-124,143,53
99,-89,-82,-20,119,59,33,-149,120,74
124,-94,27,21,-15,-8,-31,-3,42,117
54,-36,24,8,-78,-86,-138,-10,-78,78
-32,-31,-17,-54,-26,-104,-178,-161,-121,-28
-99,-20,49,57,127,-50,-237,-223,-98,-100
-106,55,155,304,307,-4,-361,-393,-100,-111
-43,100,138,328,398,99,-318,-299,-34,-62
-5,97,55,212,365,159,-122,110,157,9
-71,26,-41,115,239,221,295,452,157,-49
-231,-133,-227,-115,11,341,782,644,102,-150
-174,-142,-208,-360,-212,146,534,487,133,-93
6,-26,-16,-319,-271,-179,-9,111,92,-9
54,60,144,-231,-306,-358,-278,-81,13,39
38,33,205,-221,-340,-275,-175,29,-2,43
-11,-32,156,20,-190,-84,-33,5,-67,10
1,-31,54,182,-54,-52,9,-10,-51,39
28,5,-50,-3,-115,-134,-28,-16,60,73
14,14,-62,-164,-119,-138,-128,-104,89,24
-23,-2,-41,-98,-39,-84,-147,-194,66,-20
-26,28,0,34,22,-34,-81,-195,23,-22
36,89,47,208,192,73,17,-90,-21,14
-41,1,-56,33,251,105,-4,-46,-166,-45
-114,-65,-73,-114,235,19,-123,-49,-346,-98
-61,-64,-74,-168,195,-21,-204,-185,-394,-57
-15,-139,-170,-354,-21,-8,-221,-402,-349,-46
40,-115,-41,-74,-140,-38,-191,-447,-276,-59
62,7,249,457,-200,-96,-37,-126,-112,-98
35,50,308,517,-179,-32,222,431,135,-96
88,107,194,223,-174,-10,366,763,272,32
160,171,121,-13,-215,-77,313,669,287,141
168,149,92,7,-171,-134,139,358,147,166
136,93,22,-17,-50,0,106,212,34,144
110,69,9,-70,5,71,35,23,-61,123
36,4,-17,-63,44,103,17,-79,-87,78
-48,-43,-24,44,157,146,51,-70,-81,-22
-124,-73,-8,239,207,87,20,-79,-71,-123
-151,-103,39,248,182,23,-26,-81,-48,-130
-110,-95,-10,116,216,22,7,28,43,-61
-52,-68,-27,53,156,45,45,189,87,-28
13,-31,-17,-41,-59,25,36,161,40,-39
52,6,-43,-143,-80,84,69,75,17,-19
48,-3,-65,-307,-19,140,52,-21,-7,2
65,6,-67,-457,-73,111,31,-68,-36,-8
49,-40,-141,-348,-89,70,41,-79,-37,3
-27,-116,-176,24,-77,-40,-7,-142,-65,-31
-123,-108,-6,433,-22,-113,-83,-221,-109,-87
-84,-2,239,597,40,-77,-123,-309,-85,-70
15,167,416,649,111,-93,-207,-378,-33,-57
81,252,308,381,83,-58,-153,-306,38,-5
68,219,89,-221,-130,-33,-40,-79,100,11
68,156,-21,-542,-275,-84,-26,57,60,-26
93,161,33,-332,-219,-137,-132,-105,-96,-58
111,219,95,-194,-192,-130,-85,-62,-62,-18
198,219,46,-220,-148,-63,82,181,58,15
303,97,-73,-276,-81,5,167,196,99,85
258,-31,-70,-215,-69,2,190,142,119,156
-1,-47,11,-97,-66,-9,130,41,100,135
-186,-29,27,-42,-30,-6,64,-14,45,74
-243,-3,36,32,25,10,57,72,82,57
-344,-45,42,119,52,23,-2,3,103,30
-333,-157,20,142,79,52,-60,-105,64,15
-64,-228,-20,107,113,66,-36,-73,48,34
64,-289,-84,113,195,75,0,8,7,14
18,-273,-130,83,248,118,91,87,-31,35
-40,-219,-137,54,209,109,44,-133,-95,51
-115,-136,-91,70,180,67,-112,-172,-151,-52
-105,-59,-50,22,92,-31,-196,-163,-160,-142
-69,-57,-99,-149,-90,-118,-195,-276,-46,-95
-42,-102,-108,-110,-95,-88,-98,-351,31,-12
-58,-90,-6,64,-45,-7,10,-245,32,9
-30,24,107,49,-175,-39,53,366,87,25
33,131,136,74,-70,45,165,816,114,60
0,118,93,10,82,131,174,397,-11,37
-18,77,10,-193,38,69,55,20,-16,19
-27,2,-144,-375,-20,78,115,124,104,59
-97,-57,6,-147,-38,31,141,249,49,-32
-111,-41,207,244,-9,-40,35,170,-124,-151
53,19,239,377,42,-39,5,40,-110,-43
208,39,148,320,56,-24,3,-37,-15,102
162,72,94,210,59,-38,-45,-115,-5,124
57,91,84,114,37,-57,-107,-173,-22,60
-39,16,6,42,73,22,-33,-136,5,-12
-86,-48,-71,-4,147,75,54,-73,-20,-75
-77,-39,-80,-50,56,-7,8,-62,-75,-132
-59,10,-47,-88,-68,-104,-64,11,-48,-146
56,104,15,-1,-55,-121,-98,63,42,-40
83,110,-3,-37,-111,-60,-29,108,68,32
-34,6,-65,-186,-139,33,75,171,88,26
-143,-92,-32,-120,-57,112,148,123,69,-13
-133,-76,37,-8,-48,83,151,55,60,-20
-10,20,-54,-75,-38,0,132,31,110,74
24,71,-198,-158,19,-80,27,-90,65,74
57,84,-140,-144,200,-91,-145,-240,-18,34
39,24,-48,-115,225,-126,-277,-309,-86,-44
-84,-123,-255,-110,-7,-125,-143,-163,-59,-128
-162,-142,-166,88,-186,-94,-34,-84,-74,-170
-105,-38,173,353,-215,-93,-116,-151,-96,-115
5,69,334,300,-262,-89,-130,-211,-101,22
92,129,332,193,-235,-92,-62,6,-29,112
157,155,209,159,-98,35,108,240,89,165
189,173,53,-27,-38,97,158,126,177,180
157,141,-54,-117,-29,88,89,-53,184,123
103,68,-62,-114,67,105,43,-99,80,1
64,35,-39,-145,103,80,0,47,-58,-110
50,16,-35,-188,62,66,0,328,-112,-189
-9,-21,-11,-130,65,84,2,230,-218,-171
-206,-150,-14,-106,45,47,-41,15,-245,-151
-257,-205,-10,-36,4,18,-58,-21,-163,-112
-170,-107,51,192,63,31,-4,35,-49,-23
-70,-1,47,321,148,61,47,85,40,56
70,45,-23,243,224,113,13,3,36,84
104,27,-66,20,234,121,-71,-163,-39,69
53,-5,-115,-141,204,57,-181,-312,-107,4
19,4,-74,-192,50,-43,-281,-401,-140,-41
38,26,-63,-138,-143,-164,-300,-411,-115,-11
58,35,-5,32,-203,-149,-108,-259,-30,32
53,7,29,173,10,29,159,-32,114,61
-5,-89,-16,167,167,117,246,304,272,60
-54,-104,2,98,50,3,127,420,255,38
-6,-6,25,67,-44,-44,36,289,159,67
32,57,121,49,-78,14,113,239,90,74
7,53,118,27,-91,-5,145,104,-16,9
5,93,95,8,-43,-94,-6,-35,-89,-19
-11,115,100,32,42,-83,-84,-104,-115,-46
-15,101,38,81,93,-48,-103,-226,-121,-29
-1,128,-77,63,-35,-81,-100,-238,-79,53
-31,162,-43,-26,-161,-90,-107,-259,-47,61
-55,166,83,-115,-92,-14,-80,-201,20,39
-74,116,119,-126,-18,59,29,27,112,17
7,97,81,-153,-33,58,93,125,119,33
131,-7,-22,-254,-63,37,95,289,99,55
252,-198,-140,-297,-4,42,58,321,29,34
236,-258,-197,-322,84,55,13,60,-38,38
139,-286,-230,-351,95,109,50,-59,17,123
19,-350,-245,-369,118,217,134,-51,94,151
-93,-299,-99,-112,108,239,138,-109,62,49
-74,-129,196,415,20,22,-76,-262,-30,-85
8,20,237,492,-8,-61,-132,-243,-60,-122
-12,20,53,102,-18,-22,71,99,-22,-125
-27,-30,-50,-141,17,12,214,339,3,-86
-11,-13,-9,6,103,-12,86,142,-45,-35
-39,-5,122,458,172,-57,-108,-171,-119,-63
2,23,130,598,97,-94,-152,-216,-86,-17
51,86,116,466,64,-69,-103,-42,5,44
50,76,133,258,-7,-41,-31,154,44,42
93,104,120,47,-109,-6,88,186,81,66
150,183,128,-57,-100,4,102,131,92,107
119,174,85,-66,-154,-58,71,107,69,16
75,116,52,-59,-163,-59,67,134,79,-38
42,70,8,-28,-86,-45,38,75,45,-26
42,75,-9,90,44,8,63,76,41,0
102,155,40,126,186,56,50,20,10,26
102,154,49,62,244,0,-47,-154,-42,0
72,59,17,-63,175,-24,-88,-213,-34,-3
7,-62,-96,-253,-110,-17,-46,-136,13,-13
-30,-82,-164,-346,-249,6,33,51,60,-7
26,-35,-131,-359,-248,9,131,263,113,46
68,21,-106,-350,-261,-30,91,191,69,107
-11,15,-112,-246,-181,-42,-7,-2,10,102
-170,-25,1,-61,-88,-23,-42,-84,-38,6
-192,-34,1,-13,2,35,10,-48,-14,14
-208,-47,27,74,113,115,41,-25,-10,-9
-132,-9,81,141,129,98,-22,-96,-72,-38
-60,38,98,131,73,17,-92,-121,-93,-41
-56,20,19,31,65,16,-72,-62,-51,1
-4,8,-66,-56,70,58,-23,-49,-23,54
86,76,28,51,58,34,-62,-102,-31,43
65,98,68,56,85,28,-62,-67,6,3
6,-3,19,-37,72,15,-62,-37,6,-65
-61,-128,-46,-145,-26,1,-18,50,8,-120
-103,-187,-99,-156,-26,36,54,182,-13,-92
-135,-149,-106,-128,-24,12,0,93,-81,-68
-150,-76,-107,-151,-57,-69,-83,-104,-125,-107
-75,-31,-46,-100,-45,-141,-141,-213,-109,-102
32,-42,-31,76,9,-118,-108,-190,7,13
130,6,-42,206,149,20,-32,-119,110,131
77,-29,-121,63,181,115,-6,-16,146,116
6,-32,-92,88,112,135,39,122,117,69
-4,57,93,267,97,97,59,117,5,-31
13,119,153,194,41,118,136,5,-66,-101
140,199,157,26,-109,109,113,25,9,-40
239,199,109,3,-148,63,6,4,49,8
197,97,29,39,-56,-13,-93,-167,-42,-19
19,-111,-122,-151,-28,-157,-151,-281,-107,-61
-166,-228,-222,-256,31,-148,-150,-326,-89,-42
-207,-147,-133,54,214,-51,-156,-320,-26,-16
-198,-100,-42,426,287,-10,-151,-339,-4,-84
-198,-131,-96,441,170,39,-10,-135,32,-118
-191,-60,-115,188,-1,55,108,102,66,-106
-99,51,8,-16,-137,-71,-11,109,-16,-123
142,167,71,-203,-324,-227,-126,18,-90,-62
327,237,65,-416,-387,-211,-16,225,44,116
288,201,29,-391,-293,-145,86,254,51,173
228,140,56,-144,-223,-123,1,62,-30,144
103,-13,4,-57,-90,19,57,270,56,150
-159,-148,-72,-84,62,155,121,262,87,79
-285,-138,-199,-228,69,146,104,181,33,4
-262,-103,-163,-302,48,7,2,238,-36,-15
-154,-98,-65,-116,5,-124,-126,207,-110,-27
11,-74,-13,124,-55,-179,-168,80,-145,-35
190,-179,-78,305,-23,-18,66,132,-41,-11
261,-212,-20,511,43,91,188,152,51,60
230,-10,123,462,110,59,94,93,127,174
244,107,78,180,145,81,44,26,153,240
218,110,-4,-124,68,107,42,-51,92,203
153,74,37,-255,-35,108,114,-37,56,143
118,61,54,-137,-43,102,83,-17,38,89
74,32,32,-9,19,51,-19,-121,15,34
40,21,46,74,10,-69,-105,-216,-25,-1
37,23,44,139,-11,-144,-112,-164,-31,-4
66,57,70,213,68,-129,-86,-77,-15,24
101,121,78,337,314,-21,-87,-78,-19,28
52,114,51,262,421,70,-100,-211,-98,-63
-105,-60,-132,-175,261,20,-123,-250,-148,-220
-264,-209,-341,-450,143,1,-44,-32,-3,-249
-308,-193,-258,-451,-129,-52,-5,68,82,-213
-246,-107,-56,-205,-410,-172,-14,156,63,-204
-117,28,122,36,-414,-176,68,283,137,-44
-6,148,239,132,-363,-152,65,240,180,53
82,188,220,38,-278,-60,89,159,149,104
130,177,136,-64,-89,29,123,82,114,154
119,102,50,-7,30,52,91,174,119,156
59,-13,-7,36,44,61,89,341,56,104
29,-55,-23,63,45,47,31,121,-75,73
18,21,0,23,-32,-9,-52,-95,-133,9
10,91,59,64,4,-8,-56,-114,-100,-73
-12,34,48,87,119,97,33,-68,-55,-89
-32,-43,-49,-70,51,102,36,-105,-58,-71
7,-39,-96,-155,37,108,19,-125,-97,-45
40,3,-29,-110,71,95,2,-140,-121,-10
4,3,25,-76,58,36,-65,-237,-125,-18
-57,-29,-15,-74,57,7,-112,-250,-44,-23
-73,-36,-55,-73,116,19,-107,-224,44,-17
-82,-36,-96,-192,110,50,-77,-127,37,-33
-129,-105,-160,-270,96,122,-24,-17,-62,-134
-116,-94,-106,-178,69,121,54,147,-99,-209
-54,18,102,61,-77,-36,33,213,-93,-177
-154,-21,95,154,-135,-101,31,68,-129,-154
-166,-34,70,235,-13,-30,51,-2,-89,-90
10,46,94,233,81,10,44,82,31,8
155,139,114,84,47,-9,-25,67,75,67
173,157,49,48,46,18,-74,-35,-50,-11
45,73,-97,-61,27,60,-22,-36,-142,-140
-103,-67,-239,-312,-65,27,25,-31,-138,-196
-183,-152,-257,-457,-154,-77,26,-9,-14,-106
-226,-90,-168,-450,-154,-157,-23,-33,90,-17
-207,-93,-77,-356,-130,-155,-85,-116,44,-48
-112,-107,-73,29,51,-44,-22,-14,59,36
-165,-103,-57,510,290,92,19,127,81,80
-133,-93,-13,712,271,63,-43,42,31,35
-21,-146,19,636,229,28,-1,-32,24,29
-2,-194,81,332,162,166,236,43,100,96
50,-103,83,68,48,213,223,-5,118,196
263,63,26,-21,-4,60,-35,-171,62,278
485,218,40,-82,-74,-61,-150,-151,77,330
515,269,78,-103,-133,-80,-148,-66,96,327
340,134,14,-99,-140,-25,-13,-17,115,296
78,-11,22,15,-87,18,191,119,85,142
-46,10,115,138,-39,8,143,36,-36,-44
