-206,-119,-138,-1,45,79,27,130,342,421
-56,-27,-29,35,91,111,80,178,363,136
40,53,31,93,156,160,105,150,151,-443
32,76,-11,63,119,106,68,104,40,-571
9,46,5,26,36,-11,42,118,207,-149
44,29,174,59,-5,-55,76,99,205,-22
163,75,214,53,-98,-169,42,4,43,-35
212,80,150,6,-207,-312,-63,-86,-108,61
173,33,48,-32,-307,-429,-108,-120,-198,-7
66,2,-100,-51,-262,-226,-52,-69,-180,-143
-7,1,-200,-25,48,250,39,-33,-135,-150
20,34,-160,17,180,265,84,10,-21,-89
33,30,-156,-7,184,157,115,6,103,0
86,53,-208,-40,169,101,107,-13,199,150
188,48,-191,-69,101,44,49,-51,155,265
202,53,-45,-54,85,28,19,-92,92,327
103,44,142,-19,20,43,35,-69,88,314
-5,30,129,1,-3,61,98,-14,112,221
-32,35,64,-22,-10,32,69,-44,101,178
-34,-7,-13,-54,-36,1,48,-49,146,201
17,-14,-35,-20,-12,22,98,-15,170,185
42,34,0,40,64,66,135,-42,-9,-109
32,82,20,69,81,84,137,-86,-194,-382
56,94,-52,32,50,34,95,-132,-283,-396
85,86,-169,-14,40,-1,84,-141,-224,-155
62,73,-115,-18,54,16,137,-86,-129,42
47,54,-54,3,56,71,178,-15,-35,80
44,56,22,23,58,107,213,12,4,-2
52,64,57,35,58,117,226,2,-25,-148
33,68,15,46,68,105,225,16,-63,-227
11,65,34,34,61,82,202,16,-49,-92
-8,61,60,25,55,47,121,-10,-9,129
-74,38,49,43,89,74,96,0,19,74
-129,-10,25,38,83,85,83,-25,-20,-177
-88,-34,4,13,31,24,38,-95,-34,-119
19,-46,-21,-23,-23,-44,-10,-192,-33,127
135,-35,-98,-52,-31,-75,-80,-254,-51,158
128,-6,-177,-52,-17,-79,-133,-272,-68,69
51,33,-82,-38,-11,-69,-98,-267,-10,28
21,-7,-8,-59,-42,-83,-71,-278,-1,16
24,-22,-27,-69,-51,-97,-25,-256,37,81
45,-7,-2,-47,-29,-74,0,-240,66,178
52,-6,16,-14,-5,-48,36,-160,66,235
76,8,27,-18,11,-7,170,35,109,289
82,54,44,-16,29,14,234,136,162,228
31,28,64,16,38,44,278,174,155,14
-4,-29,50,23,20,40,288,200,121,-62
-26,-63,22,7,6,39,223,151,124,-19
-8,-73,-3,-9,-19,24,161,99,149,36
16,-43,-8,-34,-23,7,152,79,145,-1
4,-18,27,-5,7,39,181,81,151,-132
-27,-17,56,49,59,66,164,58,70,-289
-60,-16,59,59,90,47,109,-40,-66,-381
-76,-25,6,31,86,22,23,-210,-96,-205
-75,-30,-31,10,81,-6,-68,-417,-74,-37
-69,-54,-31,10,64,-23,-133,-568,-54,-16
-57,-64,-17,49,85,8,-117,-609,-4,3
-37,-42,-10,67,126,66,-54,-600,60,-1
-25,-24,-24,60,204,120,21,-596,119,8
-9,-16,-78,2,227,148,57,-602,154,21
1,-24,-47,-36,169,119,31,-627,85,3
-21,-49,-61,-59,78,85,133,-354,41,-38
-98,-105,-107,-71,20,83,382,455,71,-46
-80,-80,-50,-10,-12,52,459,973,37,11
2,24,0,38,-95,-68,311,666,-40,41
40,77,-69,39,-124,-130,163,361,-9,59
20,3,-61,-21,-132,-98,151,304,76,125
0,-43,-36,-90,-146,-71,109,222,132,177
31,-16,-42,-93,-149,-81,-4,100,171,175
35,-32,-20,-79,-131,-101,-94,-18,163,139
12,-26,25,-8,-65,-73,-103,-78,194,6
-13,6,87,70,22,16,-14,13,147,-168
-34,53,114,87,79,53,55,170,-36,-277
-6,67,73,58,80,70,50,132,-189,-279
36,27,-99,-30,39,52,59,123,-191,-94
41,12,-87,-42,42,37,100,136,-156,117
35,13,-25,-11,101,61,162,109,-96,77
49,-21,-46,-44,90,86,214,176,41,-2
35,-93,-109,-76,72,102,222,244,124,88
21,-98,-98,-44,109,125,107,69,116,170
-5,-72,-52,-25,77,39,-118,-258,51,20
4,-12,11,-26,-50,-109,-330,-482,-15,-128
29,17,82,-19,-162,-210,-410,-530,-100,-19
25,0,73,-43,-156,-174,-274,-535,-85,397
13,-48,-13,-85,-89,-52,-80,-363,60,789
16,-67,-29,-63,29,124,130,38,212,866
-25,-56,-40,2,205,319,384,394,250,497
-69,0,40,97,266,311,373,284,131,-45
-111,-12,73,104,182,180,200,3,17,-322
-116,-73,-2,33,117,125,161,63,55,-256
-107,-73,-6,47,129,141,185,258,94,-341
-90,15,78,110,103,108,126,313,50,-407
-41,100,170,110,-58,-69,-46,100,-53,-302
-3,124,226,102,-201,-226,-111,-15,-90,-202
20,122,165,65,-150,-136,43,228,-8,-122
39,93,105,61,-44,26,186,441,24,-70
46,106,106,74,6,73,195,324,-7,-54
41,91,107,73,14,44,99,180,-82,-74
23,35,66,56,-1,28,31,87,-135,-23
6,5,-18,23,29,42,18,21,-132,0
3,13,-145,-28,13,22,19,-26,-78,26
-16,-16,-121,-46,-45,-17,5,-43,-48,61
-33,-44,2,-2,-69,-43,-12,-62,-49,35
-17,-23,50,8,-97,-104,-81,-139,-54,19
18,-19,43,-23,-104,-133,-160,-223,-15,87
34,-47,-24,-85,-127,-145,-197,-217,91,219
68,-68,-105,-120,-140,-142,-211,-229,177,429
148,-46,-65,-138,-172,-191,-262,-297,190,712
214,-5,-92,-170,-196,-200,-236,-186,297,882
234,13,-188,-157,-172,-148,-126,152,434,882
230,22,-120,-92,-121,-92,-17,445,479,717
177,51,21,22,14,50,92,432,341,200
57,85,64,150,143,178,153,224,89,-639
-35,78,116,154,137,143,65,-61,-142,-910
-68,51,85,107,64,15,-77,-273,-327,-567
-89,42,-65,48,4,-65,-150,-309,-467,-148
-84,9,-97,6,-15,-73,-125,-233,-479,-45
-93,-9,-13,-5,-1,-46,-81,-233,-426,-220
-137,-17,63,13,30,-7,-61,-294,-360,-531
-136,-24,38,-17,32,9,-64,-273,-330,-588
-107,-83,6,-41,13,24,-27,-76,-299,-433
-81,-90,13,-41,-22,5,-51,-26,-294,-266
-76,-75,24,-37,-58,-7,-75,-74,-306,-175
-87,-47,42,-13,-34,4,-45,-5,-234,-110
-63,-7,22,23,12,23,-7,43,-103,-67
-48,-28,-50,63,81,96,52,-58,-69,-114
-14,-35,8,69,113,113,52,-150,-77,-74
26,-20,42,69,89,62,-1,-184,-35,74
37,18,44,86,99,32,-97,-262,-15,101
13,20,55,87,75,10,-171,-323,-27,-40
-12,-7,36,55,47,18,-180,-278,-5,-98
-28,-15,48,41,34,36,-134,-188,25,-123
-5,56,116,55,-47,-32,-214,-321,-32,-169
22,79,121,-12,-193,-171,-251,-467,-59,-110
25,35,18,-115,-295,-210,-77,-330,42,46
-31,-112,-155,-233,-306,-178,79,-68,114,150
-50,-196,-229,-289,-267,-174,118,195,186,292
-19,-142,-153,-202,-204,-194,90,280,251,388
39,-53,-110,-113,-99,-124,79,222,333,690
81,-21,-53,-33,0,-3,145,290,356,929
104,63,97,90,88,90,214,319,346,652
68,216,250,218,172,168,223,221,174,-131
7,230,250,214,168,153,135,43,-146,-662
-5,138,136,100,83,55,18,-109,-359,-461
-10,73,49,31,56,39,-42,-154,-355,-80
23,48,-5,9,39,12,-53,-132,-121,126
36,16,-20,10,36,24,-30,-125,25,87
13,-2,9,45,24,28,-10,-174,18,3
-25,-21,-15,75,-12,-29,-20,-159,-9,34
-73,-49,-62,34,-78,-89,-42,-90,-83,-79
-110,-82,-84,-24,-121,-136,-113,-187,-277,-319
-122,-118,-49,-100,-112,-170,-195,-377,-360,-406
-124,-153,-66,-104,-71,-148,-202,-474,-255,-290
-135,-164,-60,-56,-39,-107,-155,-449,-155,-235
-161,-155,-71,-1,32,15,-71,-364,-124,-239
-140,-113,-107,58,94,112,1,-296,-117,-239
-36,-23,14,105,61,33,15,-239,-106,-128
11,-5,83,96,26,-24,5,-139,-157,-64
22,-11,60,42,-24,-73,36,44,-119,-23
71,0,25,-22,-76,-82,128,299,-22,-8
124,50,35,-21,-69,-44,177,325,43,-23
139,94,60,1,-44,-30,149,125,72,-83
140,60,52,-19,-78,-65,54,0,62,-159
162,40,20,-70,-125,-103,4,14,37,-131
135,42,-53,-101,-101,-81,-3,28,39,-4
63,71,-72,-78,-80,-67,-7,-28,69,105
27,82,3,0,-60,-74,-13,-119,37,48
-1,39,-50,-12,-92,-101,-32,-221,-10,-25
19,-40,-107,-81,-173,-193,-82,-218,27,116
82,-76,-130,-72,-178,-168,18,-17,240,514
122,-6,-82,-6,-81,-48,142,127,331,804
78,57,-16,68,69,82,232,59,234,623
-21,70,99,105,158,151,278,-34,88,-13
-81,67,138,110,153,135,230,-112,-60,-588
-83,50,80,46,84,58,133,-10,-87,-448
-39,53,69,19,17,-11,42,67,-124,-117
49,126,122,16,-24,-33,-59,-221,-167,40
67,137,97,1,-3,3,-114,-436,-160,88
9,68,39,7,77,70,-93,-499,-77,74
-16,24,24,25,144,128,-69,-565,42,75
-11,11,21,29,204,178,-107,-692,69,27
-38,-29,17,41,230,181,-193,-862,-115,-52
-111,-113,-38,3,185,174,-130,-678,-188,-110
-191,-187,-115,-35,177,194,94,159,-117,-179
-159,-118,-50,6,148,159,133,658,-92,-169
-122,-110,-35,-6,67,83,25,624,-36,-120
-87,-95,-41,-66,-53,-37,-77,504,133,-16
-32,-78,2,-23,-98,-162,-242,214,259,72
58,0,32,28,-83,-265,-412,-95,270,197
124,79,69,46,-111,-284,-382,-159,298,415
132,95,111,77,-113,-242,-223,-23,253,326
45,76,61,21,-71,-82,184,555,154,-120
-51,-2,-23,-51,-85,18,368,966,4,-336
7,-42,-79,-113,-162,-95,54,661,-146,-89
49,-51,-61,-110,-161,-145,-165,343,-73,97
38,0,7,-54,-92,-80,-192,226,130,63
26,17,49,-1,-5,14,-165,154,116,-33
43,25,16,-37,25,38,-173,43,-24,47
15,-19,-31,-67,56,66,-143,-3,-191,69
-55,-81,-98,-122,57,97,11,213,-161,2
-119,-99,-129,-134,4,89,90,325,-101,-97
-140,-89,-106,-76,-27,16,-31,116,-130,-134
-85,-83,-114,-38,28,-15,-132,24,-86,69
0,-98,-115,-35,61,7,-102,96,50,294
67,-15,-28,28,107,43,-70,126,148,323
108,74,9,85,183,115,-34,95,121,214
89,80,-47,80,185,165,0,69,90,61
40,100,18,53,80,114,14,62,56,-94
30,111,154,70,11,55,-4,11,-88,-262
16,64,145,97,25,42,-60,-65,-152,-287
-16,23,95,114,34,16,-95,-112,-160,-182
17,68,84,121,21,-21,-63,-114,-148,-41
63,68,42,47,-30,-58,-36,-75,-84,94
101,32,-18,-24,-95,-106,-57,-5,28,251
68,9,-32,-55,-119,-123,-10,78,83,203
-11,-1,-19,-44,-66,-39,91,129,112,21
-53,33,16,-13,-58,-32,60,132,133,-223
-50,15,49,-31,-118,-110,-56,114,113,-68
-40,0,0,-41,-97,-95,-81,21,116,237
-48,-5,-108,-53,-71,-49,-69,83,118,203
-62,-7,-63,-51,-46,-31,-11,259,86,-138
-40,3,-16,-14,0,-16,17,210,21,-314
17,37,9,12,34,13,11,152,148,-130
49,71,-22,9,53,48,21,80,259,-26
33,26,-17,-10,34,52,49,0,165,-117
43,2,-104,-48,-27,-31,-13,-45,156,-39
32,8,-113,-38,-57,-87,-100,-38,145,52
0,25,9,15,-20,-40,-93,-51,14,33
-20,3,45,36,26,4,-65,-111,-130,-39
-40,-54,7,9,0,-11,-45,-82,-122,-46
-44,-87,-42,-49,-21,-24,43,181,144,97
-15,-41,-67,-67,10,12,62,281,389,224
-3,-15,-52,-25,23,11,-12,98,415,238
-18,-33,-89,-7,-2,-40,-69,-68,258,178
-33,-11,-26,-12,14,7,-31,-151,95,-58
-60,17,34,0,67,44,22,-170,6,-356
-81,29,16,11,63,-15,-33,-227,32,-299
-90,-24,-53,-37,27,-45,-84,-210,131,66
-60,-62,-114,-93,14,-42,-77,-214,279,367
-44,-73,-124,-78,49,-23,-88,-325,264,366
-48,-36,-64,-45,26,-2,-36,-101,194,104
-17,52,51,1,-6,23,52,339,49,-167
24,91,112,42,23,31,33,300,-267,-275
23,73,101,49,68,55,38,177,-413,-294
14,60,84,45,82,80,84,278,-448,-272
7,28,42,22,65,69,53,116,-431,-197
-49,-49,-46,1,30,56,68,-14,-328,-140
-92,-114,-52,-33,13,96,265,129,-247,-128
-63,-94,-35,-33,34,117,250,193,-145,-72
-34,-93,-25,-19,76,97,130,157,8,-46
-27,-105,-39,-20,28,56,109,213,199,-73
-53,-82,-11,-4,-68,-19,155,380,359,-91
-81,-37,7,60,-47,4,274,441,368,-215
-53,17,-66,107,52,74,281,282,208,-292
-36,-20,-117,19,31,10,133,98,-6,-114
19,-38,-63,-95,-87,-110,-6,80,-127,123
94,29,23,-66,-101,-153,-136,-78,-142,139
103,108,104,41,27,-49,-147,-331,-45,70
81,123,100,101,97,17,-165,-511,59,173
47,93,91,139,127,30,-207,-660,152,152
-27,132,183,141,125,18,-256,-843,100,-267
-105,56,95,78,45,-14,-267,-667,-78,-340
-86,-57,-22,-67,-95,-42,-113,-30,-154,68
-60,-70,-60,-137,-152,5,172,471,-126,266
-55,-76,-108,-149,-107,54,408,687,-59,324
-32,-72,-114,-135,-32,69,368,656,36,390
-30,-51,-60,-73,33,105,255,581,107,273
-33,-44,-13,-18,63,118,244,476,153,118
-34,0,-7,-4,32,86,180,329,175,84
-23,21,33,22,-15,21,72,189,95,-12
-11,44,75,43,-30,-9,52,119,51,-179
5,62,97,60,-2,-27,25,56,16,-260
30,65,90,50,7,-33,-29,-67,74,-154
17,34,59,29,-24,-51,-109,-257,35,-39
-2,-14,-86,-31,-103,-107,-173,-323,44,250
15,-72,-196,-105,-172,-186,-222,-350,99,593
17,-67,-86,-75,-101,-145,-224,-419,92,436
29,4,51,-10,-15,-66,-171,-564,109,198
9,-7,49,-5,5,8,30,-272,175,-36
-24,-6,-6,-44,2,82,334,757,116,-276
11,8,10,-43,-21,101,432,1121,83,-149
78,46,31,-39,-22,71,337,618,90,91
84,50,26,-57,-46,20,219,312,86,258
71,16,14,-69,-62,-6,94,141,47,278
19,-15,-9,-60,-29,13,55,156,90,105
-29,-45,-8,-7,11,48,61,212,165,-18
-36,24,61,86,93,90,48,141,90,-164
-81,56,91,175,166,119,13,3,-156,-321
-92,4,49,159,152,114,23,-29,-248,-324
-57,-7,6,86,96,80,15,11,-114,-219
-35,1,-5,45,47,29,-46,-22,-56,-119
-8,0,13,57,29,-17,-126,-111,-132,-46
21,1,3,82,51,1,-119,-135,-155,16
38,8,3,72,54,8,-103,-110,-70,97
40,-4,28,53,-34,-45,-143,-116,-55,28
-9,-44,-25,-13,-101,-40,-79,-59,-29,-90
-59,-101,-125,-53,-75,-7,1,23,54,-121
-33,-80,-87,-73,-77,-8,27,62,140,-26
9,-39,-7,-39,-78,-17,21,31,110,38
59,26,34,29,-13,10,26,-3,62,45
114,49,14,52,25,33,18,-21,83,188
122,41,8,27,26,39,9,-20,190,372
124,36,43,-25,-63,-19,-42,-57,254,381
116,14,19,-57,-133,-83,-75,-108,257,335
42,-48,-58,-55,-142,-117,-86,-87,202,290
-44,-52,-18,-16,-63,-34,5,52,86,99
-33,12,32,31,14,32,43,76,-111,-201
-6,20,36,37,20,31,-12,-33,-203,-373
16,49,13,0,12,28,-35,-57,-91,-337
48,79,-25,-16,-15,14,-32,-92,-52,-303
50,103,9,12,10,12,-74,-234,-83,-242
26,112,48,52,10,-29,-158,-390,-177,-129
1,51,52,17,-49,-91,-159,-461,-245,-13
5,31,16,-53,-77,-56,-47,-423,-173,20
-6,26,-14,-55,-77,-54,-35,-403,-119,-2
-7,54,5,-70,-51,-75,-68,-350,-94,-7
-21,25,-69,-92,-44,-54,-6,-38,-24,-38
-33,11,-186,-121,-38,-13,42,104,56,-95
-54,5,-178,-119,-14,11,38,12,53,-85
-87,-23,-115,-73,23,66,53,9,12,13
-127,-36,-32,-34,51,147,174,292,96,75
-149,-53,-2,-3,69,170,235,459,86,-19
-161,-115,17,16,59,107,148,294,-56,-147
-157,-88,34,57,34,-9,5,68,-105,-137
-80,-27,55,90,-14,-90,-51,40,-44,-15
35,4,48,63,-88,-119,-49,126,-28,71
74,-16,20,30,-86,-46,-11,213,-16,66
72,-22,15,36,14,55,70,222,-5,-29
75,13,39,87,120,123,112,160,17,-198
39,-11,22,96,200,151,94,118,34,-267
-43,-42,11,64,217,172,44,85,83,-161
-66,-77,11,45,172,158,3,65,123,44
-52,-66,3,22,125,110,-17,35,146,232
-56,-15,3,32,115,86,-22,-31,95,333
-61,0,52,62,71,39,25,-98,-67,227
-16,23,57,34,-73,-87,21,-217,-226,91
11,16,32,0,-152,-160,-18,-133,-220,-26
18,28,17,-8,-117,-117,68,179,-46,-18
62,34,16,-21,-112,-89,86,276,58,62
110,71,29,-25,-97,-88,1,151,113,94
92,54,54,11,-63,-58,-34,54,128,67
71,19,72,32,-37,-40,-50,-9,86,15
83,36,61,34,-28,-31,-51,-67,65,19
112,61,-19,34,-9,-17,-80,-136,25,9
160,80,-14,-12,-22,-52,-136,-244,46,189
186,101,17,-41,-42,-92,-175,-335,139,510
135,69,5,-44,-43,-83,-127,-310,188,515
42,22,-40,-56,-59,-77,-30,-175,162,184
-21,-21,-6,-26,-24,-72,-45,-66,60,-176
-33,-8,15,8,33,-33,-78,-41,69,-284
-42,-56,-34,-6,41,20,-12,25,50,-373
-84,-120,-62,-33,41,58,63,47,-65,-419
-108,-133,-57,-56,10,20,4,-177,-225,-289
-111,-79,-10,-60,-77,-79,-142,-406,-274,-189
-58,-21,72,5,-77,-130,-230,-565,-273,-188
-12,43,75,65,-22,-72,-96,-358,-189,-108
-23,0,-95,7,-51,2,224,617,0,70
14,20,-92,-18,-44,56,397,1095,166,205
39,33,6,-17,-32,11,224,568,96,85
44,-5,-39,-55,-69,-53,47,177,48,-43
73,-24,-32,-61,-67,-47,46,177,191,-79
105,41,11,4,23,62,146,277,329,-82
88,134,66,132,165,187,234,259,54,-281
32,168,92,207,245,243,222,83,-399,-419
-20,88,13,146,174,146,111,-81,-596,-82
-70,20,-65,62,64,35,-3,-116,-482,148
-41,0,-4,-4,-3,-12,-64,-100,-288,120
-33,-55,16,-28,-30,-22,-51,-65,-181,-9
-67,-90,23,-9,-26,-4,-26,-49,-148,-208
-67,-83,28,-11,15,12,-9,-41,-83,-120
-26,-61,-31,-31,55,14,-2,-33,53,241
-21,-53,-54,-13,68,17,-6,-49,121,362
-65,-84,-10,0,78,55,39,-12,127,105
-74,-101,-54,-27,25,49,90,33,86,-119
-32,-16,-14,-43,-57,-48,25,-3,27,-76
6,0,78,-34,-76,-79,-42,-49,-21,-15
8,-23,60,-23,-41,-63,-84,-97,-23,23
-13,-35,34,-15,-18,-74,-119,-184,-21,82
-37,-68,41,8,5,-82,-153,-288,-34,132
-40,-59,37,41,30,-75,-153,-388,10,139
-28,-21,31,40,40,-56,-131,-454,124,115
-44,-21,28,30,49,-35,-135,-511,171,55
-63,-27,37,36,66,-10,-117,-537,155,-22
-68,14,22,2,48,18,-33,-320,163,-53
-51,-27,-13,-70,-25,25,135,247,153,-7
32,0,-8,-104,-95,-2,210,589,125,102
105,46,0,-102,-137,-26,246,588,82,130
132,47,-44,-109,-162,-20,256,385,47,85
81,22,-6,-115,-150,0,189,251,67,62
17,27,11,-92,-89,7,132,309,41,46
16,27,23,-30,-34,1,54,319,-42,119
39,-19,15,-17,-40,-29,-18,171,-132,223
106,3,-21,-38,-27,-39,-33,88,-70,365
110,18,-13,0,7,-19,-33,53,-6,366
65,9,26,51,36,1,-47,10,-46,99
33,45,46,21,25,-6,-47,-33,-59,-163
19,58,-19,4,10,-11,-51,-62,-78,-293
14,45,-59,0,5,-11,-58,-76,-36,-219
20,52,-9,15,13,-10,-61,-74,16,-92
2,15,-20,27,30,0,-43,-25,34,-65
4,40,-29,4,50,19,-11,18,73,-42
4,31,-20,-28,30,27,-6,-3,24,-6
-13,-38,-30,-48,42,58,34,-18,-31,32
-14,-81,-57,-38,65,109,70,-9,-52,0
19,-30,-5,-12,54,84,23,-47,-52,-33
65,63,42,-1,9,6,-57,-130,-50,-37
61,57,69,36,-3,-21,-75,-212,-106,-99
45,71,87,79,16,-32,-69,-196,-49,-97
29,84,25,74,46,-4,-42,-55,98,-6
23,50,20,71,51,6,-34,12,88,53
17,28,-72,49,46,-19,-47,-59,-3,95
14,-6,-151,-2,37,-24,-2,-63,25,153
-4,-44,-88,-38,26,19,135,81,19,112
-37,-35,-15,-27,0,59,202,175,-72,-25
-56,2,-82,-30,-62,29,170,167,-107,-64
-52,13,-51,-42,-79,0,153,160,-60,-11
-44,0,36,-42,-61,-7,125,110,-27,-26
-41,-11,29,-19,-22,-2,110,60,-19,-57
-36,-15,43,-10,-10,-7,89,6,-65,-91
-11,9,38,-15,-17,-31,27,-41,-80,-98
-24,-23,38,-6,-19,-35,-14,-31,-49,-95
-27,-10,32,20,1,-16,16,-12,0,-77
-16,0,-20,-7,13,-10,30,-27,28,-93
-60,-54,-109,-39,11,-15,2,-53,2,-145
-77,-72,-74,-19,35,-9,2,-85,-25,-165
-72,-76,-99,47,65,0,-11,-103,-63,-61
-65,-81,-7,75,76,8,-14,-86,-90,112
-50,-70,24,90,115,27,7,-51,-28,176
-27,-36,23,65,111,44,18,-33,20,193
1,-36,11,19,68,53,19,3,55,224
21,-82,-3,0,24,35,-4,36,77,307
39,-79,-29,-26,-47,-26,-52,65,181,377
82,-47,-13,-67,-160,-123,-95,81,329,410
154,-6,-30,-99,-233,-201,-134,104,439,451
203,-1,-19,-101,-243,-171,-106,166,543,518
220,46,5,-101,-185,-107,-39,239,654,648
190,83,-14,-124,-143,-69,-13,243,581,557
115,31,-74,-124,-112,-26,2,237,366,169
52,-5,-44,-48,-30,47,57,211,59,-348
64,31,-49,21,16,41,44,55,-218,-345
113,94,-48,31,18,-16,-63,-121,-320,123
61,87,137,119,73,24,-34,-196,-496,-106
-50,51,210,195,140,91,42,-213,-636,-699
-157,-4,160,167,138,86,37,-233,-580,-810
-158,25,122,107,119,65,0,-198,-446,-691
-107,44,53,63,75,30,-45,-143,-300,-503
-90,-1,5,56,30,5,-48,-86,-200,-382
-97,1,72,71,34,15,10,-56,-170,-401
-129,-4,51,37,12,-5,10,-75,-187,-416
-164,-22,0,-35,-29,-37,-81,-116,-171,-310
-137,-41,-39,-77,-54,-51,-116,-155,-165,-75
-58,-66,-66,-92,-84,-84,-121,-187,-133,253
-32,-100,-40,-102,-104,-70,-113,-176,-68,469
-26,-79,-34,-86,-89,-30,-77,-139,-7,445
-20,-14,30,-6,-34,14,-5,-142,-21,122
-7,31,57,37,0,15,-14,-218,-46,-61
-8,37,13,44,9,4,-43,-252,-5,24
-7,32,31,22,16,35,18,-81,126,45
-27,39,46,29,59,92,92,213,222,-60
-29,51,71,76,91,138,107,331,122,-259
-17,74,15,88,94,115,64,258,-59,-411
-1,100,49,89,117,103,32,128,-104,-436
-42,27,50,78,96,68,16,59,-49,-261
-29,9,-4,30,51,9,-13,91,46,90
8,30,-41,-16,17,-13,-12,134,100,239
12,19,-20,-35,0,-16,-23,106,105,157
-28,-41,-5,-28,-12,-21,-16,76,89,110
-31,-56,-28,-24,-8,-13,-15,63,96,92
11,-29,-63,-17,3,-6,-22,47,82,147
17,-12,-68,-21,4,8,-10,29,68,355
-17,-1,-43,-31,-19,-9,-32,-9,30,412
-31,-49,-58,-54,-48,-72,-67,-67,-75,90
-35,-65,-63,-50,-32,-64,-70,-76,-87,-332
16,-36,-53,-16,-6,-37,-27,-51,-50,-438
91,-17,-47,-21,-4,-36,-6,-42,-36,-256
83,29,-22,0,19,8,28,-1,53,-61
47,36,-20,10,17,38,53,24,117,-25
49,48,-109,11,24,29,38,17,130,-29
43,52,-92,0,21,19,17,5,141,-64
19,39,-56,-13,31,38,14,-21,140,-155
7,20,-128,-64,26,61,-16,-94,110,-139
-6,6,-68,-90,-19,21,-90,-193,63,17
-36,-59,-48,-105,-24,8,-54,-212,21,130
-35,-96,-77,-129,-18,23,57,-155,37,201
-18,-15,-101,-90,29,33,24,-188,77,201
25,46,-7,-6,83,46,-26,-193,70,136
21,50,51,77,72,49,77,164,26,47
17,60,75,92,-28,-7,159,385,3,15
20,61,54,88,-83,-89,84,217,0,30
21,55,38,84,-25,-114,11,39,26,67
33,29,45,56,33,-71,-32,-76,83,113
36,10,26,13,44,-23,-70,-118,141,148
35,5,17,10,66,4,-72,-127,236,145
34,-7,24,5,9,-60,-103,-131,335,161
46,4,44,-20,-97,-145,-132,-95,429,257
59,34,68,3,-78,-91,-117,-27,371,331
73,43,72,7,-29,0,-28,46,176,262
74,33,41,-29,-61,9,83,226,-42,201
32,-20,-30,-64,-65,7,122,290,-273,58
-2,-40,-38,-103,-60,-5,105,172,-395,-357
-31,-47,-52,-97,-71,-36,95,62,-397,-546
-19,-55,-106,-76,-88,-58,119,43,-300,-220
52,-50,-52,-54,-177,-107,110,86,-204,441
87,-16,-37,25,-189,-121,116,171,-168,632
51,62,66,119,33,27,172,212,-143,21
-21,65,109,128,184,97,106,131,-92,-583
-20,55,25,39,104,40,-6,1,-12,-400
27,35,86,27,67,-28,-61,-57,50,56
24,10,60,43,144,3,-62,-52,81,214
34,12,10,17,172,84,-26,-45,-4,172
41,65,79,-4,39,63,-9,-84,-148,14
22,76,99,13,25,57,-18,-122,-193,-163
0,18,51,-24,0,51,-2,-134,-188,-187
-20,-89,16,-76,-66,25,43,-105,-239,-227
-36,-117,-8,-86,-80,16,99,-39,-188,-255
-50,-74,23,-39,-35,46,115,40,-79,-262
-76,-39,56,15,10,88,98,80,-52,-271
-60,12,21,42,55,92,65,64,46,-177
-48,14,-40,52,75,71,60,81,81,-80
-27,28,27,42,28,22,10,34,44,26
6,42,32,10,-9,-28,-54,-52,0,204
-4,14,8,-14,-22,-41,-42,-27,30,313
-31,17,-3,-12,-26,-40,7,54,86,235
7,41,-15,-14,-41,-53,9,104,146,96
31,48,1,0,-22,-30,6,131,270,-75
20,37,32,49,19,0,18,106,317,-102
0,29,40,69,34,15,14,52,257,-94
-20,13,67,80,36,9,2,5,109,-88
-9,-24,48,48,-14,-24,-60,-75,-72,34
18,13,4,-4,-28,-38,-106,-69,-50,57
25,40,9,-21,-7,-9,-85,-17,45,-27
19,37,20,-10,9,15,-67,-22,32,-60
41,54,47,2,10,6,-82,-82,-81,-67
38,63,33,-4,-15,0,-78,-105,-146,-101
0,20,-1,-28,-31,0,-55,-74,-100,-38
-11,-13,-27,-49,-28,0,-72,-94,-38,88
5,-40,-95,-103,-52,-14,-101,-151,56,319
17,-79,-100,-131,-68,-34,-110,-194,147,480
21,-53,-67,-115,-38,-11,-101,-163,211,399
-28,-87,-58,-74,-22,10,-74,-69,78,129
-47,-98,-46,-28,7,18,-65,-39,-113,-45
-32,-89,-5,35,67,18,-65,-113,-160,-22
-54,-77,29,98,94,18,-77,-173,-171,-127
-57,-24,28,108,72,-6,-109,-163,-119,-361
-72,-12,5,109,47,-22,-91,-149,-148,-455
-92,-104,-24,73,11,-24,-13,85,-299,-305
-54,-85,-29,23,-9,-17,14,341,-262,-13
22,-3,-49,-16,-30,-25,-75,129,-160,243
53,-21,-25,-41,-57,-51,-126,-73,-103,306
42,-19,-37,-44,-57,-55,-77,-31,-21,204
3,37,-38,-24,-15,-16,-52,-58,0,11
-28,59,12,34,37,23,-46,-97,17,-227
-51,67,29,90,62,73,-7,5,32,-405
-60,70,29,60,41,76,-18,34,5,-316
-38,35,16,-8,-22,20,-76,-52,40,-103
-27,1,-21,-38,-49,0,-71,-23,83,-114
-1,-19,-35,-36,-37,23,19,206,177,-16
53,-26,-58,-59,-37,42,127,537,438,284
115,14,-54,-83,-48,37,142,480,688,641
139,42,-2,-37,-5,72,130,333,807,760
84,58,88,73,105,179,192,304,596,576
20,57,151,141,199,243,204,175,20,176
-50,-6,91,79,148,153,55,-94,-583,-176
-130,-3,31,3,84,99,5,-163,-696,-773
-164,9,22,-12,71,96,45,-54,-411,-969
-116,-2,-18,-43,14,47,-25,-56,-227,-398
-71,3,-35,-51,7,39,-51,-74,-182,-72
-43,21,-37,-57,23,67,-12,-10,-136,-43
-35,-15,-65,-57,9,49,7,10,-95,-64
-43,-45,-70,-54,-46,-17,-68,-81,-155,-133
-45,-73,-39,-58,-124,-123,-147,-148,-167,-64
-17,-64,-19,-44,-137,-151,-161,-164,-135,135
15,13,4,2,-70,-126,-183,-187,-70,271
44,26,-3,27,-56,-131,-199,-205,-64,245
54,5,32,48,-43,-126,-196,-203,-146,-14
54,-23,47,56,-43,-93,-160,-208,-133,-134
49,-44,29,48,-59,-98,-114,-157,-26,148
34,-12,10,28,-45,-86,-43,-31,178,365
-15,-8,0,19,-25,-45,7,38,357,229
-50,-40,-32,-12,-36,-47,-11,22,420,88
-38,-55,-27,-10,-38,-53,-52,51,474,232
-29,-57,-16,19,-5,-10,-44,110,451,342
-24,-66,-12,5,13,22,3,26,364,320
0,-65,-2,14,41,38,1,0,306,187
-1,-43,12,20,48,74,91,217,189,-130
0,-45,0,6,43,107,196,368,-40,-423
-3,-50,19,-21,-4,62,204,310,-214,-415
-41,-68,0,-15,-7,55,139,224,-341,-417
-65,-61,26,19,27,67,87,119,-468,-577
-59,-62,29,26,40,39,46,-55,-565,-582
-41,-89,-22,-5,7,-17,-32,-143,-480,-332
-28,-116,-45,-38,-17,-15,-53,-97,-241,-93
-31,-89,-16,9,8,60,53,0,-1,-28
-39,-48,0,72,66,136,122,91,95,-65
-30,-40,-15,49,86,126,84,71,24,-55
10,-24,-1,-51,-43,-28,-51,-82,-133,279
27,-26,-2,-75,-127,-138,-93,-178,-199,562
28,-2,33,-44,-129,-152,-51,-140,-141,373
45,18,40,-49,-170,-169,-34,-125,-111,38
50,13,31,-32,-124,-156,-51,-130,-188,-178
47,15,0,-53,-112,-123,-21,-57,-170,-150
42,66,-23,-72,-131,-121,4,48,-9,-117
39,86,-9,-46,-113,-88,3,49,129,-48
70,66,-38,-67,-88,-66,-15,-8,263,282
50,43,-26,-43,-26,-26,-8,-31,273,435
-14,36,20,83,118,83,23,-21,117,239
-9,3,-9,98,123,84,17,31,85,190
3,-10,-42,42,88,42,1,88,179,86
-22,11,-10,15,73,57,13,109,256,-218
-37,32,40,26,42,39,-15,70,185,-305
-20,65,84,19,-61,-68,-76,-24,-9,-185
21,64,48,-61,-154,-115,-24,-16,-71,3
36,47,2,-71,-59,-15,47,14,11,174
22,29,0,-25,58,52,42,-5,27,204
5,39,50,54,154,114,36,-30,-87,-20
-20,15,71,74,180,134,40,-39,-157,-186
-38,1,64,41,121,85,14,-57,-131,-201
-44,-33,18,-11,49,56,-8,-56,-86,-73
-15,-12,10,-21,-13,5,-31,-66,-47,47
29,91,44,-26,-98,-86,-66,-42,32,96
70,118,56,-32,-151,-163,-98,6,86,167
106,121,74,-11,-133,-170,-108,37,118,175
96,83,55,-18,-90,-109,-74,67,111,122
83,53,28,-64,-62,-35,-8,110,112,50
78,35,6,-85,-56,-29,-8,97,170,85
100,39,-2,-71,-58,-56,-71,25,268,250
134,22,3,-62,-62,-63,-99,-35,407,425
153,33,6,-36,-27,-52,-101,-59,482,483
109,42,31,4,25,-17,-61,-36,485,452
33,47,32,25,37,-2,-19,-41,357,424
-13,69,34,44,63,49,90,0,88,47
-61,4,30,17,47,78,175,94,-204,-456
-100,-46,6,-4,19,61,114,93,-330,-627
-45,0,-5,-2,26,60,55,63,-155,-340
35,13,-29,-25,24,44,19,33,26,8
31,-14,-37,-42,19,39,1,-8,75,23
-61,-48,9,20,54,67,3,-41,-9,-253
-106,-39,7,55,104,91,-11,-126,-224,-432
-81,-16,-19,46,69,45,-105,-295,-395,-339
-73,4,7,50,43,-12,-190,-466,-392,-140
-82,14,-13,60,61,-16,-202,-590,-199,-81
-90,-1,-67,50,52,-35,-200,-584,-59,-70
-99,-11,-22,46,41,-28,-86,-392,70,-64
-90,-17,-21,59,56,-46,-17,-271,93,-59
-34,2,-11,93,80,-49,-56,-357,56,-3
-4,4,-18,78,62,-32,-20,-174,10,-20
-39,-19,-31,30,25,11,179,593,-52,-144
-46,-63,-92,-13,11,43,248,854,-137,-168
7,-73,-171,-14,9,36,158,488,-185,-1
71,-37,-178,-40,-30,-3,100,290,-63,334
99,-70,-118,-43,-38,4,112,248,82,602
100,37,56,31,58,103,164,262,207,488
64,86,103,79,109,133,149,194,82,49
34,26,-62,31,38,15,21,15,-96,-148
7,-49,-92,-30,-41,-66,-65,-82,-193,-83
10,-44,8,-15,-47,-34,-48,-53,-113,35
37,-23,22,-10,-31,0,10,55,-24,124
65,-13,23,-20,-33,19,42,145,39,164
75,66,66,-4,0,38,69,124,148,94
53,105,95,37,54,65,67,71,109,-74
31,65,55,12,27,63,-12,15,36,-100
-2,33,63,3,-12,39,-50,-66,-68,-87
-28,63,109,44,7,17,-75,-135,-182,-117
-66,56,88,39,8,-18,-120,-193,-318,-145
-62,25,49,12,0,-59,-182,-232,-284,-125
-13,10,26,1,12,-45,-163,-178,-100,-46
17,26,9,22,25,-6,-122,-130,15,-120
4,20,-17,-4,-6,-1,-103,-106,122,-49
-9,-43,1,-75,-58,-30,-107,-92,139,92
-15,-91,14,-87,-43,3,-20,-47,-87,-66
-61,-113,-16,-73,-25,43,102,71,-282,-296
-8,-112,-150,-81,-26,26,151,168,-236,-176
102,-31,-183,-74,-35,13,104,108,-32,121
104,0,-92,-68,-57,-6,28,81,158,101
56,0,-13,-27,-9,36,58,172,321,-123
20,17,50,64,67,88,77,179,319,-281
-15,41,43,134,122,91,55,53,113,-274
-50,33,79,157,160,107,63,-77,-77,-172
-30,20,94,116,135,79,37,-170,-113,175
-2,-5,75,52,74,39,15,-195,-116,270
10,-20,28,-11,22,21,42,-101,-59,219
18,-32,-13,-60,-17,17,70,-5,15,220
3,-30,-22,-63,-21,36,43,26,38,188
0,17,3,-41,6,37,7,21,56,105
-6,18,28,-30,-25,-11,-24,3,73,45
-45,-25,-23,9,-14,-7,21,11,87,-37
-53,-25,-61,50,31,12,47,30,46,-84
-19,39,26,36,46,10,20,19,45,-47
-6,45,39,12,24,-9,-2,20,89,-38
-18,17,40,24,41,-5,3,35,149,-24
-40,25,72,67,105,29,10,-10,95,-87
-42,35,64,76,116,59,-22,-62,-92,-132
-6,7,-6,20,65,10,-83,-110,-211,40
48,-39,-51,-13,18,-46,-137,-165,-269,221
77,-16,-27,28,22,-23,-105,-165,-229,323
86,17,8,26,-6,-42,-76,-154,-101,406
94,7,-24,11,-9,-71,-51,-121,49,302
50,-23,-60,-13,-36,-31,36,-1,279,127
9,-55,-47,-34,-68,12,132,148,489,59
7,-72,-73,-42,-52,37,133,253,626,87
-3,-68,-76,-27,-4,65,138,320,681,-20
-17,-22,-58,25,87,146,200,328,472,-263
-18,34,14,39,138,186,211,206,-52,-417
-23,2,-11,-11,82,109,88,-13,-473,-242
-44,-53,-66,-47,8,26,-19,-140,-569,19
-52,-50,-110,-11,34,78,8,-85,-352,-57
-41,-29,-78,7,30,78,-1,-49,-237,-208
-27,-10,28,35,28,63,-17,-51,-204,-324
-4,-11,52,48,-22,-15,-93,-77,-200,-250
30,-1,45,14,-112,-139,-166,-98,-94,64
57,7,30,15,-115,-126,-99,-26,85,176
38,24,16,30,-27,-30,-15,-11,97,119
44,41,60,14,-23,-20,-35,-114,-55,91
43,66,74,17,-33,-16,-80,-195,-126,49
50,74,28,26,-11,13,-82,-200,-85,-18
43,59,42,25,10,42,-28,-161,-45,-106
3,4,46,2,1,40,-18,-160,-101,-86
11,-21,50,4,-19,-20,-83,-228,-181,119
30,-31,19,-25,-63,-71,-150,-259,-154,312
-8,-109,-54,-78,-122,-92,-138,-130,-109,201
-2,-97,-73,-99,-117,-75,-108,-48,-23,94
43,-40,-47,-54,-95,-70,-136,-162,65,173
38,-55,-31,-50,-100,-84,-144,-203,176,155
59,-55,-69,-53,-93,-91,-129,-147,342,141
86,-1,-100,-9,-42,-61,-91,-195,534,93
65,47,-46,7,7,-3,-48,-236,509,-102
11,17,49,0,10,27,9,-77,245,-374
-58,-28,63,-13,-19,51,161,374,-2,-561
-91,-16,59,10,5,134,354,861,-116,-516
-107,-5,56,59,68,190,388,839,-261,-307
-129,-49,27,61,91,169,282,463,-490,-146
-115,-39,-10,18,71,128,140,149,-486,18
-72,-72,-44,-41,17,66,45,15,-331,222
-33,-94,-65,-64,-28,-16,-30,-30,-59,529
-56,-64,-37,9,1,-33,-45,19,127,361
-92,-66,0,97,133,39,-1,65,113,-5
-50,-59,-41,58,153,66,13,54,92,81
22,-1,-40,-11,77,54,10,39,-14,124
72,9,-31,-58,24,34,-8,-16,-218,59
106,27,-121,-75,-44,-41,-38,-83,-219,150
123,56,-142,-55,-111,-89,-67,-82,-59,302
159,94,-84,10,-88,-83,-59,-2,143,458
166,126,24,54,-68,-88,-54,33,214,453
101,79,144,84,-86,-128,-59,-24,65,27
7,0,130,58,-128,-144,-83,-86,-55,-513
-29,15,74,26,-105,-116,-68,-72,-56,-612
-26,4,68,44,-16,-29,-10,-3,-69,-460
-35,-25,43,14,29,23,7,2,-82,-142
-33,-11,33,-31,-26,-27,-51,-94,-76,106
17,47,30,-29,-41,-75,-101,-137,66,200
28,89,-45,4,4,-28,-53,-52,262,-21
6,69,1,25,35,14,-12,40,347,-220
-8,57,61,4,46,30,10,64,327,-177
-51,29,46,-18,32,25,16,105,280,-60
-76,20,58,1,22,0,4,116,192,28
-89,1,49,27,30,-4,8,81,-41,-155
-95,-77,8,1,22,-28,-42,-23,-324,-233
-88,-131,-6,-16,-3,-67,-88,-142,-492,-156
-51,-80,27,-2,5,-45,-55,-155,-420,-93
-53,-23,65,41,77,33,2,-91,-306,-135
-64,8,60,46,87,46,10,-74,-188,-90
-46,-2,-56,32,52,-2,-33,-124,-86,1
-5,-42,-205,-15,31,-34,-26,-122,43,41
47,-63,-199,-114,-59,-87,-42,-61,298,319
82,-83,-191,-174,-122,-119,-67,14,638,787
92,-104,-242,-166,-85,-72,12,137,896,1046
33,-73,-116,-98,12,35,112,228,880,709
-13,-75,-24,-59,41,33,79,151,614,422
5,-78,17,-36,24,-13,28,50,238,449
-39,-30,79,40,74,43,44,-33,-266,49
-144,56,132,156,222,199,120,-37,-427,-493
-201,93,160,219,322,278,138,-78,-532,-929
-171,86,145,175,285,232,65,-231,-689,-1147
-72,71,92,68,102,63,-71,-374,-641,-753
1,80,64,36,-61,-83,-211,-434,-443,-243
32,102,73,86,-85,-122,-212,-373,-329,-99
23,76,54,80,-48,-72,-54,-153,-183,-13
22,51,38,67,0,-21,-19,-67,-67,-22
25,42,-34,49,-24,-25,-102,-157,0,-113
12,38,-36,5,-85,-62,-131,-162,78,-128
11,2,3,-23,-109,-57,-38,-20,162,-109
40,14,9,-13,-78,-18,32,44,123,-86
5,23,38,13,-36,18,99,63,-11,-47
-27,7,0,-12,-16,13,178,140,-72,116
-14,-16,-21,-69,-42,0,226,294,-2,224
7,-31,-44,-111,-101,-43,154,343,105,306
5,-84,-97,-102,-101,-37,81,227,130,258
21,-71,-33,-85,-70,-34,34,134,115,175
56,-12,-21,-83,-46,-17,58,111,198,240
48,-8,-11,-65,-24,30,105,142,314,317
28,14,39,-1,36,69,153,201,405,251
31,41,80,38,58,61,95,136,371,229
48,55,72,17,30,8,10,58,244,253
39,50,31,-18,-18,-42,-44,-12,77,221
7,36,-42,-21,-27,-49,-59,-42,9,107
1,6,-48,-39,-29,-48,-8,67,61,40
-14,-12,-72,-72,-47,-39,37,170,123,102
-11,5,-23,-42,-11,0,51,116,66,134
-22,1,-50,-23,18,33,37,29,-28,-18
-76,-24,-48,0,27,49,65,43,51,-264
-92,22,48,80,98,109,104,25,-37,-556
-77,30,45,107,111,79,24,-114,-392,-546
-58,-2,48,40,13,-13,-12,-165,-523,-346
-18,-22,3,-19,-41,-21,5,-130,-338,-217
-23,-54,-1,-35,-33,0,31,-49,-81,-188
-22,-50,-20,-40,-30,-15,44,40,70,-157
21,-50,-26,-48,-61,-37,37,50,44,-123
85,6,-5,-4,-36,-29,49,47,83,13
121,64,5,52,37,23,60,61,199,121
104,60,80,62,33,28,8,-17,190,184
73,65,81,37,5,-17,-30,-63,246,288
5,50,77,99,87,55,28,-21,143,22
-82,-17,13,123,129,84,20,-114,-290,-223
-125,-171,-98,-58,29,31,-25,30,-271,-31
-98,-148,-47,-45,4,4,-3,47,-159,22
-34,-92,-49,-70,-32,-46,-44,-21,-36,253
5,-24,-5,-22,10,2,-39,-20,112,275
46,55,65,52,46,56,18,30,156,118
98,127,122,65,-25,-8,33,72,129,124
136,132,124,40,-91,-92,-6,62,41,117
112,66,62,-23,-145,-158,-85,-22,-27,113
39,-28,-27,-79,-185,-181,-128,-53,-29,-40
19,-70,-79,-111,-194,-166,-129,-31,41,53
35,-87,-62,-91,-179,-174,-121,-24,112,420
51,-22,-8,-16,-80,-77,-35,66,253,525
11,31,104,132,66,47,51,79,126,124
-18,44,160,193,122,75,49,-62,-273,-354
-13,34,108,132,57,33,-4,-145,-419,-500
-22,19,53,61,17,25,-6,-103,-325,-437
-52,25,44,32,43,38,14,-77,-188,-303
-54,48,20,9,51,51,24,-64,-93,-167
-40,64,4,8,48,66,31,-11,1,-111
-30,-4,27,40,30,45,43,32,37,-97
-16,-29,9,10,-7,18,12,28,106,50
11,-6,-16,-28,3,36,0,24,204,123
3,-12,-4,2,69,89,23,49,112,-23
-45,-45,0,11,99,84,45,19,-173,-176
-40,3,-31,-31,22,24,39,-24,-299,-213
-27,-6,3,36,19,37,50,-30,-284,-257
0,0,13,48,12,19,21,-41,-230,-152
54,41,-2,-11,-29,-37,-29,-28,-56,44
98,32,0,-38,-65,-47,-27,22,146,181
84,57,13,-28,-18,-13,7,17,215,325
40,50,-7,-35,-9,-28,2,-61,129,473
47,6,-59,-109,-107,-114,-93,-196,56,608
31,-57,-100,-141,-175,-183,-202,-291,-36,462
17,-45,-86,-118,-142,-148,-217,-256,55,221
4,2,-31,-60,-69,-54,-139,-217,180,88
-9,26,-8,-36,-64,-24,-90,-164,163,-64
-10,18,-11,-48,-78,-18,-45,28,196,-111
-27,36,-4,-18,-14,32,52,313,127,-205
-56,41,-14,23,30,61,143,483,-77,-314
-87,4,-46,39,37,26,89,276,-274,-425
-74,1,-20,54,37,-1,9,77,-252,-425
-37,26,-6,100,85,41,24,57,-131,-354
2,35,-33,78,79,44,33,42,-55,-193
-5,51,-10,4,32,54,83,42,50,-10
-61,34,40,10,47,117,157,115,142,-23
-15,33,23,-26,-16,72,95,79,164,150
41,18,-20,-86,-101,-29,11,15,174,407
15,-34,-35,-63,-67,-29,6,47,131,286
-21,-78,-91,-32,-14,6,-11,54,93,96
-15,-73,-98,-48,4,-5,-13,53,129,129
13,-72,-89,-73,9,-11,-1,72,185,234
43,-62,-134,-74,34,-24,-29,66,249,320
57,-67,-70,-51,40,-23,-60,39,259,314
69,-24,21,0,29,-39,-70,-29,219,224
45,11,48,51,64,-3,-36,-36,196,24
-3,3,14,101,145,67,12,-66,19,-171
-30,1,29,70,122,44,14,-88,-108,-156
-44,12,48,21,18,-14,34,-97,-170,-123
-9,38,48,18,-29,-58,23,-177,-288,-235
17,43,31,34,-16,-59,-28,-279,-278,-246
-7,35,81,50,34,-11,-48,-312,-307,-250
-25,12,69,39,82,6,-48,-195,-362,-192
-28,-41,36,-9,49,-31,-35,-3,-420,-93
-4,-64,-2,-44,-2,-66,-54,66,-388,-55
42,-9,8,-65,-35,-77,-73,79,-173,-30
72,24,18,-69,-69,-82,-19,184,25,54
67,30,-9,-67,-70,-49,74,227,98,199
40,-1,-14,-43,-58,-24,122,152,-7,103
15,-14,-28,-37,-95,-77,39,-30,-136,-75
-4,-27,-74,-51,-106,-86,-24,-32,-52,12
-16,-31,-34,-19,-31,6,-4,64,89,194
-31,-6,0,37,71,84,22,50,217,234
-14,36,0,20,55,87,33,48,434,276
-20,23,9,29,45,91,49,116,570,162
-20,16,71,110,85,99,76,149,391,-144
7,53,63,140,67,65,44,56,92,-297
17,46,-44,161,42,23,-3,-65,-76,-186
-1,-11,-63,146,24,-5,-5,-114,-222,-142
0,-25,-93,80,-19,-40,-18,-125,-346,-237
-22,-15,-52,39,-30,-59,-33,-150,-337,-500
-68,-27,-94,1,-21,-46,-52,-133,-184,-691
-98,-50,-91,-25,-14,-11,1,5,-87,-726
-49,-69,-8,-41,-22,13,45,222,5,-343
5,-60,31,-47,-33,50,77,281,130,271
25,-6,62,-44,-18,80,101,228,178,525
33,18,71,-35,-27,42,68,120,104,381
37,-8,41,-53,-49,-21,-51,-49,-57,162
30,-31,7,-93,-101,-60,-105,-108,-117,142
21,-10,24,-87,-114,-41,-85,-52,-132,73
2,-43,7,-67,-80,-21,-83,-52,-162,81
-4,-79,-31,-61,6,19,-60,-66,-113,168
12,-63,-53,-51,53,60,3,-60,-94,188
0,-71,-40,-24,24,13,-17,-78,-138,210
3,-37,-73,18,19,-5,-30,-54,-164,83
39,-16,-24,-11,-41,-46,-38,-18,-23,164
84,-39,2,-39,-76,-78,-56,33,248,482
80,-65,-9,-25,-52,-52,-49,79,414,566
50,-37,6,-13,-42,-11,-19,90,527,435
28,35,49,41,27,78,46,73,355,131
-25,90,114,101,124,156,80,-52,-260,-322
-79,64,94,60,108,114,38,-173,-656,-497
-95,35,63,9,54,74,35,-138,-526,-457
-57,31,66,-8,34,70,47,-75,-275,-381
-25,26,51,2,22,30,14,-64,-130,-315
-5,33,-24,48,60,24,-11,-86,-44,-255
0,49,-68,60,79,-2,-15,-74,-2,-238
-41,7,-23,50,74,7,25,106,116,-277
-31,-6,-42,56,100,49,44,199,160,-227
-8,11,11,60,81,60,36,68,31,-108
-15,32,31,33,58,51,50,-25,-85,-161
-7,45,5,-3,5,20,0,-78,-99,-198
2,-11,-17,-33,-63,-71,-94,-114,-90,-77
36,-123,-45,-73,-125,-176,-154,-74,-28,211
52,-153,-63,-103,-113,-137,-109,2,104,374
34,-61,-88,-126,-73,-54,-83,-2,155,350
-3,-53,-89,-119,-105,-75,-128,-81,136,449
2,-60,-26,-53,-77,-75,-115,-64,215,495
22,13,40,11,-14,-3,-10,10,248,204
13,41,22,64,69,79,65,42,172,-186
15,66,-3,106,118,130,120,66,161,-328
32,73,7,111,128,114,88,-32,121,-99
45,23,25,37,77,49,-15,-169,111,273
33,-12,-7,-34,-3,-15,-101,-180,177,483
0,-21,-10,-63,-18,0,-20,51,318,387
-9,-15,39,-59,-21,45,78,161,308,168
15,38,74,-39,-52,13,37,120,85,212
14,66,84,-16,-80,-6,30,185,-226,226
25,71,97,0,-66,-8,34,237,-400,-127
4,79,102,10,-46,-28,-23,96,-475,-564
-25,26,64,0,-58,-54,-54,-28,-437,-651
-7,24,34,2,-54,-29,-48,-73,-327,-356
28,23,39,10,-25,-31,-76,-125,-163,40
68,40,27,-9,-29,-40,-114,-138,-10,331
67,-13,-13,-47,-82,-77,-193,-170,-57,422
47,-76,-83,-74,-109,-152,-257,-204,77,504
15,-83,-104,-55,-71,-137,-248,-224,124,315
-22,-38,-59,-18,-31,-68,-180,-242,-14,-35
-22,-13,-47,-12,11,5,13,-47,194,-121
-10,38,-3,34,101,130,256,280,417,-261
-51,75,69,119,185,260,436,491,315,-559
-61,52,-13,125,169,231,358,357,22,-645
-20,44,-114,54,79,85,133,114,-56,-389
5,-17,-56,9,12,-23,27,1,-16,-118
8,-28,6,-11,-4,-40,24,27,92,46
-18,-15,17,10,29,12,51,71,180,98
-51,-55,-8,-4,48,51,77,64,204,139
-86,-101,-58,-20,105,93,74,44,130,211
-109,-92,-81,9,218,176,68,16,1,101
-108,-40,-59,7,207,192,51,-45,-201,-172
-105,-55,-69,19,179,166,45,-136,-352,-274
-94,-81,-92,23,148,135,40,-141,-329,-127
-55,-45,-47,16,84,104,33,-64,-163,-81
0,3,-22,-22,-4,33,9,-16,-42,-84
106,60,5,-78,-222,-155,-50,-9,52,73
184,128,55,-63,-332,-278,-83,14,194,199
150,108,81,2,-236,-208,-69,-17,230,269
67,35,68,65,-101,-135,-25,-57,185,348
-1,22,70,73,-32,-89,17,2,144,174
-5,44,69,88,11,-27,54,69,189,124
11,34,79,118,42,24,25,37,98,124
-6,38,81,109,9,15,-35,-36,-60,-66
-47,29,43,83,7,6,-59,-102,-201,-370
-36,23,-71,35,18,20,-80,-176,-288,-426
-22,-18,-155,-91,-83,-86,-160,-201,-298,-103
-32,-64,-120,-152,-147,-170,-189,-151,-258,201
-48,-73,-68,-92,-110,-100,-108,-40,-129,245
-45,-36,-24,-22,-39,-24,-5,19,70,230
-42,2,-3,1,9,19,58,97,321,248
-58,-17,22,7,7,37,113,226,394,125
-59,-41,2,-8,-16,5,104,253,160,98
-26,-34,-27,-20,-25,-33,52,190,-26,63
20,12,-15,20,-6,-42,-9,73,-86,-84
62,48,50,57,16,-15,-30,-4,-56,-168
65,51,60,48,21,10,-24,-75,-70,-81
21,29,19,11,24,29,-10,-106,-124,62
-11,22,21,9,46,48,1,-113,-190,-3
-42,5,-21,39,65,53,-36,-116,-275,-236
-81,5,-41,79,89,57,-30,-90,-329,-508
-69,-22,31,74,60,62,-6,-15,-210,-328
-36,0,62,81,49,45,16,-7,-113,-16
-32,39,95,114,76,63,32,-31,-75,-133
-50,19,24,84,49,31,-22,-69,28,-286
-25,-14,-98,32,2,-23,-60,-54,181,-215
13,-2,-72,-12,-14,-23,-10,-48,211,-47
49,41,-77,-39,-38,-32,-7,-84,178,313
51,27,-73,-68,-90,-109,-102,-192,69,632
30,-7,-19,-97,-137,-156,-155,-240,-137,468
7,-12,-4,-82,-121,-108,-77,-136,-69,92
-38,-29,0,-67,-65,-30,17,29,65,-243
-62,-75,-26,-101,-83,-46,38,143,72,-362
-22,-77,-33,-86,-77,-47,29,190,58,-316
46,14,30,-38,-23,14,90,248,139,-266
111,65,45,-36,0,53,136,231,247,141
115,79,68,9,34,71,95,40,237,539
50,58,68,69,97,102,47,-98,154,428
0,40,-59,35,80,70,-19,-203,-25,268
-22,-22,-59,-18,12,3,-56,-214,-137,177
2,-54,-10,-36,-30,-17,-52,-125,-4,187
52,-34,-21,-79,-72,-41,-39,-14,384,449
77,-49,-55,-133,-128,-60,20,138,715,581
63,-19,-47,-139,-115,-45,63,233,828,459
19,0,14,-73,-35,24,79,278,695,205
4,118,54,51,85,122,116,280,385,-160
-15,184,15,144,172,166,110,152,-224,-630
-68,81,-13,120,163,133,16,-86,-851,-775
-123,28,29,81,148,83,-100,-285,-1170,-769
-132,-22,28,64,146,61,-136,-353,-1003,-591
-129,-47,-22,94,188,112,-65,-217,-628,-489
-106,-21,-64,78,208,166,0,-116,-360,-416
-82,-19,-4,46,205,172,12,-136,-305,-264
-49,-4,-2,-10,108,113,13,-79,-203,-150
-10,29,-14,-38,-24,11,-30,-49,-50,-38
36,56,-37,-28,-129,-89,-101,-83,26,129
97,84,54,-30,-168,-150,-160,-146,100,317
99,113,40,-3,-135,-148,-169,-141,81,360
60,117,74,34,-88,-114,-110,0,82,282
50,78,103,30,-69,-76,-58,120,138,166
26,33,35,3,-73,-74,-44,53,133,-52
-16,-26,-46,-13,-19,-44,23,24,106,-225
5,-3,-11,-56,-22,-27,119,137,209,-72
38,46,32,-44,-38,-2,118,302,346,104
46,65,67,-16,-10,11,70,310,416,287
43,33,43,-38,-29,16,53,194,500,472
57,32,10,-59,-40,9,35,38,430,372
33,0,-32,-87,-69,-49,-30,-101,173,290
-31,-47,-72,-118,-103,-73,-25,-31,-40,234
-21,-49,-76,-130,-108,-73,-21,0,-151,150
3,-45,-85,-93,-91,-85,-28,-44,-208,96
-19,-22,-22,-34,-45,-37,32,-42,-322,-49
-60,0,-32,13,0,22,136,55,-295,-306
-56,10,10,27,25,46,136,137,-74,-417
-27,35,69,42,47,75,119,115,147,-259
-25,38,72,47,41,61,79,20,59,-118
-45,30,67,42,37,44,55,-12,-80,-207
-70,-6,34,27,30,50,18,-63,-258,-329
-58,-19,-2,10,21,25,-21,-100,-300,-310
-57,-23,15,16,15,17,-23,-111,-318,-343
-47,-46,12,19,38,15,-15,-88,-237,-277
-31,-74,-7,1,53,25,-33,-57,-130,-102
-40,-66,-7,13,97,78,10,-20,-69,-9
-51,-64,2,40,156,112,20,-22,-42,20
-19,-63,-20,22,157,93,-34,-65,36,160
32,-48,-19,-32,67,30,-100,-118,107,219
47,-25,-1,-61,-6,-12,-114,-146,124,-2
57,8,12,-51,-17,-11,-70,-80,268,-190
75,21,24,-16,-63,-93,-75,-87,328,-145
82,50,26,7,-124,-176,-94,-135,316,129
51,36,35,-39,-138,-136,4,5,299,165
-5,-34,-46,-121,-168,-131,84,244,265,107
-18,-79,-76,-141,-174,-146,61,307,273,269
35,-76,-77,-140,-171,-164,-43,183,324,642
79,-83,-94,-140,-160,-168,-60,122,498,997
77,-54,-92,-78,-92,-77,41,223,558,819
65,6,-50,-28,-25,14,100,168,249,345
56,60,18,6,-2,28,113,13,-241,-48
42,69,54,6,-38,-34,57,-73,-455,-80
0,73,103,57,-8,-7,34,-72,-462,-236
4,110,160,108,56,44,48,-78,-470,-440
47,120,72,67,28,42,47,-91,-406,-383
70,91,-29,-4,-24,29,51,-55,-205,-98
76,57,-42,-12,-30,11,25,-70,-136,176
47,18,39,10,-11,-2,-16,-107,-176,281
11,-6,34,-15,-5,-17,-25,-75,-128,294
16,-30,3,-41,-24,-31,-11,-6,-20,291
18,-26,46,-6,-4,-5,41,112,78,85
13,-28,71,19,18,20,71,168,83,-225
-22,-24,71,65,66,77,68,117,-7,-508
-55,9,77,130,138,153,115,113,14,-713
-31,24,67,100,95,127,101,17,-54,-619
15,40,30,27,17,41,19,-120,-227,-333
41,20,-15,5,-16,-5,-70,-186,-292,28
8,-8,11,55,35,38,-54,-113,-126,267
-24,-13,52,96,89,67,24,27,123,249
-23,-2,28,73,99,66,52,87,296,69
-60,-96,49,81,101,49,43,72,311,-62
-68,-115,29,73,97,36,22,87,364,6
-42,-43,27,63,60,21,23,67,210,-73
-41,-19,16,84,110,51,21,-11,-116,-274
-46,-68,-9,48,74,53,-4,-60,-247,-251
-32,-91,-42,56,21,24,8,-48,-172,-118
-15,-56,-87,67,-17,12,39,-22,-178,-182
-43,-28,-12,59,-10,15,73,-20,-230,-350
-70,-38,28,0,-66,-52,47,-55,-164,-224
-62,-80,-11,-84,-117,-99,-88,-127,-82,30
-4,-71,-62,-156,-145,-123,-182,-222,-12,180
7,-69,-33,-140,-147,-162,-234,-298,-84,124
-34,-62,9,-50,-43,-87,-167,-233,-124,-9
-50,-31,-1,-4,82,26,-65,-133,-50,42
-63,-55,-43,-40,139,77,-24,-85,-14,125
-66,-78,-76,-82,115,77,2,-6,60,100
-45,-103,-58,-75,53,52,-37,1,111,54
10,-70,-32,-25,8,-1,-73,-89,105,41
74,35,46,69,0,-56,-138,-174,129,19
112,119,82,126,-17,-86,-163,-120,160,-22
118,128,38,69,-87,-85,0,175,114,-33
114,101,51,-10,-167,-75,203,477,2,79
100,53,18,-57,-168,-82,232,435,-32,356
53,22,-2,-49,-106,-67,146,171,43,604
20,11,-14,-63,-92,-66,76,121,204,682
19,-16,-20,-81,-110,-67,65,190,317,396
-35,-69,12,-38,-69,-14,98,213,213,-275
-77,-47,54,26,13,34,129,180,34,-729
-63,-26,64,20,24,47,140,122,-43,-518
-35,-16,6,3,-18,8,75,35,-186,-235
-13,-17,-63,-33,-64,-67,6,-104,-445,-135
3,-21,-2,-64,-70,-96,-38,-170,-466,-84
13,-44,-5,-58,-51,-78,-33,-112,-227,0
-2,-69,-57,-33,-22,-44,-16,-43,-51,49
-5,-69,-40,-10,16,-14,3,7,55,49
13,-35,-8,-8,24,-1,38,47,117,8
14,-5,1,-14,18,7,44,23,93,-60
26,22,24,5,27,-1,1,-80,-4,-76
56,63,7,-10,0,-18,-68,-126,6,73
36,41,-43,-79,-65,-56,-119,-116,123,142
-4,-1,-70,-117,-86,-83,-121,-68,269,122
27,24,-65,-91,-58,-60,-75,6,432,289
16,54,-15,-31,20,8,29,83,479,314
-17,83,29,50,97,66,74,62,299,225
41,120,55,103,117,78,40,-15,13,429
103,136,73,88,87,69,12,-51,-127,522
108,98,17,13,22,17,-16,-69,-100,540
116,70,-15,-20,7,8,-13,-38,34,842
100,66,16,7,33,54,34,14,78,663
-17,74,60,73,111,132,67,28,16,-271
-167,4,36,73,132,104,11,-126,-266,-1065
-144,-63,-63,-9,39,-17,-104,-297,-371,-550
-42,-92,-102,-82,-34,-69,-79,-247,-148,133
-4,-49,-45,-44,0,11,69,-11,179,134
13,48,78,78,113,133,161,118,226,-256
25,78,113,135,138,133,121,67,6,-430
12,36,53,82,66,35,18,61,-154,-350
-16,29,7,11,-1,-19,-48,160,-245,-386
-14,37,15,13,-22,-22,-51,169,-259,-448
-11,17,26,-1,-43,-31,-10,84,-306,-407
-21,-3,22,-23,-48,-42,26,55,-344,-351
-26,-33,28,5,-39,-37,21,45,-296,-291
-13,-2,16,16,-14,-28,2,18,-223,-251
8,6,4,32,22,8,7,32,-123,-209
40,-24,-20,20,30,2,-11,74,47,-97
46,-72,-80,-13,-3,-21,-28,127,288,-13
63,-47,-50,-18,0,13,7,169,484,-58
63,0,-20,-9,5,45,33,136,405,-35
72,41,-12,-11,10,39,20,33,142,246
25,46,8,31,67,78,-18,-72,-257,229
-32,43,15,68,116,92,-51,-154,-458,39
-54,31,-4,10,40,19,-92,-179,-391,-119
-75,16,-26,-41,-39,-32,-96,-114,-170,-129
-63,-1,-49,-60,-49,-25,-89,-35,25,-11
-36,-30,-45,-61,-57,-25,-61,4,56,8
-22,-89,-48,-74,-77,-43,-33,6,5,81
-13,-138,-55,-85,-80,-55,-37,-6,60,243
8,-144,-50,-99,-93,-92,-60,-1,217,455
25,-138,-61,-106,-94,-99,-83,18,343,576
35,-81,-5,-29,-9,-23,-19,68,368,301
37,36,-15,56,79,59,35,50,208,-44
16,53,41,78,109,93,33,-17,-3,-108
15,19,69,61,88,62,21,-46,-46,-45
40,-8,24,-2,8,8,-33,-87,-65,32
31,-48,-17,-70,-67,-55,-89,-134,-177,-11
-32,-98,-79,-111,-125,-127,-162,-236,-335,-107
-62,-122,-68,-87,-127,-128,-157,-250,-235,-79
-53,-97,-35,-42,-109,-102,-109,-124,21,-1
-37,-81,-28,5,-55,-71,-68,-48,175,97
-51,-68,-22,41,16,-25,-8,-32,199,-28
-11,37,20,91,82,27,9,-65,115,-296
-9,99,43,112,119,65,4,-67,-66,-428
-51,14,18,94,58,39,-34,44,-158,-278
-51,-38,-3,45,17,13,-84,158,-95,-51
-35,-12,-18,16,58,31,-111,123,-30,57
-73,-20,13,70,158,87,-72,76,-70,-154
-51,-16,-8,16,150,81,-29,71,-5,-190
-12,34,-42,-102,11,20,23,81,130,-77
0,47,-42,-117,-38,5,55,95,235,-128
20,25,-2,-58,-45,-4,90,35,191,18
77,30,-2,-47,-82,-86,22,-102,146,614
114,33,15,-52,-119,-154,-44,-148,188,971
129,106,54,-24,-75,-130,-31,-79,280,715
94,132,48,-24,-50,-86,11,89,268,262
48,89,-44,-38,-60,-66,98,291,235,0
6,55,-47,-13,-18,12,214,410,190,-184
-20,59,19,8,39,88,222,272,-12,-392
11,72,18,-21,25,60,122,20,-211,-271
45,83,33,-30,-2,23,71,-87,-262,64
70,83,47,-39,-30,19,76,-49,-200,226
75,55,27,-57,-53,9,94,11,-98,112
42,-10,12,-71,-56,-7,80,23,20,-108
-12,-14,-1,-34,-1,3,58,-1,61,-251
-30,1,0,6,56,21,52,-4,20,-267
-32,9,-2,75,133,42,38,-40,-75,-178
-54,-8,0,118,209,90,64,-57,-132,-54
-67,15,33,125,198,123,117,17,-22,-2
-37,44,51,94,95,83,115,36,8,-58
-18,-10,10,29,-12,-15,-1,-96,-92,35
-41,-24,-8,17,-22,-24,-31,-104,-66,18
-87,-13,11,76,52,32,45,-8,39,-159
-72,-2,1,69,58,9,10,-54,-64,-113
-11,5,-25,43,25,-60,-88,-166,-172,72
49,36,-31,-24,1,-75,-111,-207,-164,149
58,40,-47,-66,-36,-58,-96,-162,-66,232
39,8,-53,-50,-69,-64,-81,-74,-6,179
36,20,3,-17,-86,-85,-53,3,109,90
23,18,25,4,-67,-65,1,122,221,56
12,14,19,15,-46,-33,38,213,242,185
8,26,4,16,-34,-31,7,142,205,426
16,1,-23,43,15,4,14,57,204,378
57,17,44,66,56,31,22,-2,259,156
58,26,60,49,61,35,30,-24,264,7
14,29,39,36,28,39,55,-34,220,11
-6,31,35,22,-3,24,0,-128,-36,31
0,-13,12,-18,-73,-73,-127,-313,-478,-76
18,-31,-18,-77,-141,-159,-199,-330,-419,27
11,-55,-53,-91,-152,-141,-107,-68,-158,113
20,-69,-36,-76,-106,-48,57,228,4,32
3,2,-54,-32,-42,29,117,234,93,-434
-41,45,-7,59,38,84,102,104,-94,-867
-57,20,81,56,39,27,9,-62,-357,-563
-35,-20,16,10,-25,-39,-81,-145,-398,-82
-20,-33,-26,-15,-49,-45,-98,-107,-185,109
-23,-15,-14,13,-2,18,-20,-1,14,-74
-9,8,16,32,18,35,4,-7,-12,-192
-14,35,12,31,24,28,-21,-84,-100,-46
-52,0,-22,11,15,36,5,-5,-19,117
-43,-16,-34,-16,-13,17,41,44,118,282
6,12,-39,-25,-25,-8,52,-9,137,336
37,7,-38,-37,-41,-41,23,-29,120,371
5,12,-30,2,-20,-19,25,22,153,233
-30,20,-98,42,23,33,66,59,90,-74
-20,-12,-64,15,11,15,30,-20,27,-122
-2,-33,-26,-45,-24,-19,-12,-42,84,40
51,6,-5,-30,-21,6,-15,28,-20,9
89,33,9,-1,1,37,-26,41,-161,-71
118,40,1,13,43,70,-12,77,-5,48
109,92,69,69,121,165,92,203,275,75
34,129,143,136,162,240,196,281,336,-200
-43,72,101,93,87,177,118,186,270,-326
-48,-11,14,-9,-41,27,-35,57,207,-234
-68,-20,-8,-25,-70,-7,-51,42,73,-194
-94,-21,-12,-22,-59,-15,-25,12,-230,-112
-81,-54,-46,-54,-90,-74,-41,-28,-350,89
-54,-24,-11,-52,-68,-44,-34,12,-81,72
-17,17,-4,-39,-46,-6,-21,76,176,17
3,20,-38,-19,-8,18,-19,72,217,66
12,0,-40,-16,-17,-3,-93,-75,51,151
19,-29,-67,-53,-61,-57,-161,-244,-140,166
-22,-82,-49,-96,-98,-78,-163,-222,-113,231
-82,-129,-82,-109,-86,-39,-19,-54,-10,142
-63,-93,-56,-79,-37,8,109,87,52,-35
-18,-53,-20,-38,-17,-3,65,28,102,-79
14,-10,17,9,0,1,16,-3,97,-174
6,60,112,98,51,70,87,141,-34,-470
-8,69,136,119,84,83,106,177,-352,-430
29,11,-8,15,-12,-30,-17,0,-413,231
90,3,-41,-65,-90,-64,-84,-76,-248,521
76,23,-10,-7,-33,-7,-55,-49,-156,218
37,32,26,77,54,61,-2,8,-112,-131
3,0,24,62,53,80,21,33,-137,-268
-11,-56,-25,23,9,11,-38,-53,-163,-153
7,-39,-77,18,-15,-37,-98,-87,-65,68
58,-51,-27,-18,-71,-66,-97,-43,64,435
69,-74,10,-66,-105,-72,-41,102,253,725
-19,-70,42,-22,-39,0,50,183,269,376
-78,-41,29,-2,3,35,86,148,286,-6
-92,-82,8,0,7,28,82,99,296,-48
-84,-93,14,33,39,21,48,61,128,-52
-39,-67,16,18,16,-40,-77,-73,8,87
-6,22,4,19,26,-41,-106,-92,206,83
-14,157,22,96,119,52,-24,-62,144,-434
-44,143,67,107,160,90,-8,-148,-171,-728
-51,59,22,7,59,8,-85,-254,-302,-446
-72,-29,-101,-67,-37,-47,-70,-301,-303,-201
-11,64,-93,-96,-35,-34,-37,-301,-180,-31
8,98,-50,-98,-29,-34,-91,-271,-144,29
-3,56,-50,-97,-44,-43,-119,-142,-109,105
-42,-7,-85,-93,-52,-37,-55,68,-38,121
-43,-37,-114,-79,13,-5,-9,179,85,203
11,-12,-100,-77,73,33,15,230,245,469
70,38,-35,-80,-14,-22,7,271,420,587
126,49,0,-82,-115,-130,-61,244,585,820
188,127,42,-31,-58,-105,-23,251,892,902
168,174,108,50,43,2,127,322,1058,561
83,158,132,101,87,82,227,303,885,177
0,168,178,171,192,211,304,266,351,-342
-38,191,182,214,256,244,257,91,-516,-919
-57,122,98,117,140,71,41,-198,-1171,-1000
-55,28,31,27,12,-40,-25,-237,-995,-649
-69,-95,14,-8,-25,-42,2,-119,-627,-430
-14,-24,3,-36,0,-6,18,-26,-247,-293
37,49,0,-50,-4,2,9,-15,-42,-167
4,35,0,-24,30,30,33,-31,-53,-182
-59,-10,9,22,73,58,54,-45,-189,-269
-76,-41,-55,-10,30,-8,0,-32,-141,-9
-34,-4,-63,-9,-8,-38,-28,0,32,145
26,22,-7,-2,-47,-72,-83,-35,96,215
37,-79,-16,-50,-106,-123,-122,-41,171,474
0,-200,6,-50,-107,-124,-99,11,118,460
-34,-206,11,-49,-96,-105,-77,-3,-49,275
-51,-177,18,-20,-93,-78,-27,-5,-156,-24
-30,-172,-70,-14,-80,-67,-12,0,-102,-167
22,-162,-127,-67,-51,-51,-18,-43,-79,23
51,4,-59,-111,-35,1,23,35,113,133
16,103,8,-27,40,57,56,65,133,-155
-33,94,21,61,114,66,6,-64,-91,-318
-66,48,3,72,106,46,-26,-92,-124,-230
-37,36,-13,79,115,54,-16,-63,-42,-84
-12,48,-7,97,118,53,12,-20,-13,91
-21,-63,21,54,19,8,31,43,-142,250
2,-13,-83,-13,-18,-18,20,-24,-174,248
18,69,-64,-3,0,-28,-4,-120,-142,44
18,90,29,27,29,-26,-11,-124,-50,-112
-12,54,34,35,80,34,19,-82,-67,-262
-24,41,20,12,95,74,31,-18,-51,-301
-18,45,13,8,72,42,-2,-12,15,-147
-20,21,-26,-8,32,0,-33,-9,35,-27
-16,-22,-30,-36,-3,-3,-20,21,75,59
-10,-34,-43,-30,32,45,29,36,178,137
12,16,-39,-44,14,36,14,41,253,136
33,58,-32,-53,-76,-30,-2,60,398,173
67,66,35,-16,-152,-142,-78,50,555,283
93,79,74,31,-134,-147,-103,44,589,312
69,63,47,18,-116,-133,-88,23,372,136
11,26,-3,0,-105,-119,-97,-93,-66,-187
-43,-124,-20,-15,-127,-148,-110,-214,-350,-99
-52,-227,-62,-37,-142,-152,-50,-123,-316,171
2,-110,-128,-51,-105,-99,1,38,-146,316
50,20,-139,-43,-39,-39,18,118,47,475
41,43,-148,-19,8,18,51,139,130,401
41,48,-62,2,24,38,54,87,85,126
60,60,53,-5,-6,15,49,55,49,-158
60,101,70,-3,-23,10,73,59,37,-374
18,71,55,-15,-33,6,49,27,-62,-399
-43,-36,32,-43,-61,-20,-5,-20,-196,-159
-102,-137,-8,-81,-78,-22,0,-25,-89,16
-97,-37,-63,-98,-59,3,23,27,133,-66
-71,-11,-78,-72,-67,-31,9,25,93,-128
23,-24,-38,-85,-125,-120,-65,-54,25,318
86,-29,10,-11,-72,-107,-58,-45,79,508
93,64,59,134,92,-5,34,8,187,121
25,95,101,223,210,103,86,-12,-117,-445
-47,61,120,247,272,174,83,-81,-612,-754
-80,6,102,177,206,135,39,-123,-691,-639
-76,4,55,83,85,51,-46,-155,-445,-297
-56,-23,28,32,22,-12,-83,-192,-293,-142
-13,-64,8,13,-5,-35,-60,-174,-177,-11
5,-98,-16,-16,-48,-48,-55,-131,-88,180
6,-58,-46,-47,-74,-59,-51,-57,56,259
-1,-41,-55,-43,-57,-50,-38,3,163,158
12,-22,-9,-8,-28,-11,-20,19,324,54
15,3,-67,9,-10,16,-2,58,538,66
0,-5,-85,13,-12,46,59,205,613,214
-35,-97,36,13,-52,44,137,276,360,233
-41,-19,52,11,-51,20,87,112,-58,-38
-53,-4,14,-4,-37,-32,-21,-72,-373,-229
-54,-16,13,29,1,-51,-60,-161,-495,-222
-58,-7,21,40,41,-19,-31,-125,-397,-154
-39,-12,-4,24,47,36,-3,-30,-166,-56
-6,-22,-19,21,61,83,39,37,-22,-39
-8,-23,-10,16,59,104,61,101,44,-78
-1,-7,7,-26,33,73,54,144,158,10
28,-4,-12,-52,14,35,15,111,232,175
32,-26,-21,-65,-26,-12,-70,-12,199,324
35,-41,-18,-79,-62,-51,-118,-105,235,433
37,-18,-11,-55,-25,-31,-81,-106,351,310
16,-20,20,-11,46,29,-27,-75,395,51
-8,-5,68,57,115,105,38,-78,298,-206
-3,24,128,110,135,151,65,-95,1,-531
-32,-131,115,65,56,72,0,-102,-366,-561
-62,-196,39,0,-2,0,-36,-3,-479,-289
-32,-36,5,-23,0,-2,-25,96,-231,-155
10,45,5,-33,-20,-14,18,93,1,-118
30,27,-39,-64,-57,-10,119,92,98,-7
37,-21,-83,-94,-72,-4,140,162,148,173
9,17,-11,-33,11,60,155,214,207,63
10,54,52,24,79,106,137,165,216,-80
30,-23,36,-8,13,34,38,49,87,20
68,18,-14,-22,-9,-8,-20,-60,86,180
103,74,-61,5,17,2,-56,-119,86,185
92,70,-59,20,32,6,-40,-175,9,181
30,-20,-135,-10,-2,-7,-60,-122,-148,166
-13,-68,-146,-73,-52,-22,-33,39,-255,147
6,-42,-111,-110,-89,-43,-60,58,-270,225
55,-8,-148,-112,-91,-35,-75,27,-148,344
14,-7,-106,-53,-1,54,6,32,-22,241
-46,15,36,2,74,121,71,-4,-97,-22
-62,-5,75,0,52,92,48,-43,-160,-70
-92,-48,31,-10,26,45,14,-46,-179,-150
-100,-91,-3,-54,-4,2,-66,-94,-137,-139
-55,-74,-19,-61,18,14,-72,-118,-39,-24
-28,-39,-2,-16,54,45,-28,-66,71,88
-13,6,77,46,86,73,38,66,117,-32
-19,-19,121,95,84,112,145,259,101,-280
-54,-153,55,87,49,90,206,372,76,-234
-25,-154,-9,51,28,71,199,302,116,-99
46,33,62,27,30,66,159,186,204,-198
50,114,106,32,4,36,95,63,99,-486
70,126,118,39,-34,-37,4,-62,-34,-412
83,68,67,12,-79,-112,-104,-122,-19,61
57,22,22,-14,-70,-98,-107,-63,36,284
28,7,4,-10,-26,-47,-28,7,89,274
21,-16,-3,2,-18,-62,-22,4,145,366
29,-41,9,21,-18,-59,-24,-12,198,360
37,-15,-2,54,39,8,18,-34,147,148
4,-120,-81,74,40,26,-30,-148,-185,-112
-45,-215,-92,35,-10,-25,-63,-271,-565,-329
-104,-245,-11,-5,-29,-47,-40,-277,-713,-407
-112,-218,26,6,-38,-54,-15,-195,-592,-340
-57,-56,38,31,-11,-46,22,-78,-259,-185
4,72,33,29,8,-35,25,-35,11,-32
23,80,43,32,5,-56,5,-60,32,24
29,80,44,37,-15,-74,3,-17,36,88
33,55,37,43,7,-33,24,36,118,142
18,45,20,60,53,0,-5,49,212,144
8,36,-3,60,87,28,-16,40,293,112
14,17,-12,29,69,48,-4,49,338,-28
23,18,-20,5,52,77,38,120,352,-174
48,53,-80,-2,46,88,78,183,290,-217
20,63,-14,38,74,112,100,149,36,-306
-42,26,62,45,38,88,58,54,-262,-412
-24,32,38,-29,-68,-8,-34,-52,-286,-150
40,75,7,-75,-155,-121,-113,-143,-167,202
55,51,-58,-61,-137,-147,-142,-188,-105,357
29,-41,-36,-49,-114,-145,-140,-172,-31,414
-21,-52,5,-27,-80,-90,-86,-45,137,317
-29,8,12,-19,-21,-13,-6,127,302,164
-24,-10,-11,-33,-17,1,5,147,293,110
1,-50,-37,-62,-29,-25,-32,66,215,233
71,4,-7,-90,-78,-45,-66,29,291,466
83,92,-19,-29,-38,-11,-53,-48,212,455
21,108,11,20,-7,4,-69,-181,-159,45
-29,44,61,-7,-46,-15,-76,-215,-305,-269
-12,26,24,-4,-38,-6,-21,-167,-194,-270
19,60,8,12,0,8,-3,-140,-116,-162
-13,31,-49,3,0,-12,-11,-89,-190,-111
-56,-3,-38,34,30,26,65,106,-154,-173
-62,7,42,54,50,56,143,145,-141,-311
-37,23,33,31,37,55,130,71,-113,-292
-26,-10,-4,-2,14,58,96,109,-61,-117
-37,-126,-15,-21,-33,9,44,81,-95,24
-25,-46,-35,-25,-34,-20,-20,-45,-55,90
-9,2,-2,-11,-26,-47,-40,-116,-59,82
22,-34,18,-11,-48,-76,-65,-114,-66,87
79,30,17,-24,-32,-48,-59,-34,92,180
82,59,14,-15,-2,16,63,82,218,221
54,58,-10,10,25,80,169,170,256,158
33,40,-4,37,41,70,140,144,274,128
26,59,0,51,59,48,122,128,337,21
13,61,54,46,77,78,109,146,229,-287
-8,24,71,49,90,93,61,69,-76,-486
-8,33,0,44,72,46,-3,-62,-246,-268
-11,17,-117,10,39,14,-61,-141,-209,9
-45,-47,-65,1,26,-4,-121,-203,-84,155
-98,-113,-18,19,54,-1,-147,-236,-68,36
-70,-64,7,4,41,6,-143,-227,-14,53
-31,-24,3,-21,-6,-34,-172,-207,34,153
-23,-56,-53,-107,-149,-146,-245,-177,103,223
-37,-139,-138,-222,-307,-244,-205,-44,128,358
3,-124,-158,-221,-272,-176,22,232,87,605
72,-48,-91,-125,-132,-58,181,420,68,763
137,31,10,-30,-22,41,156,259,11,680
122,87,111,95,83,115,143,183,-9,168
70,138,146,204,158,130,145,194,-53,-561
48,121,59,183,113,81,110,146,-68,-770
61,75,-14,112,36,23,81,106,-21,-510
66,60,24,80,19,0,54,89,17,-336
35,66,85,86,35,-9,26,48,-17,-281
-19,15,13,70,9,-49,-71,-64,-136,-141
-34,-41,35,40,-13,-65,-114,-104,-122,-9
-5,-50,70,18,-34,-43,-112,-104,-57,91
2,-5,68,9,-23,-24,-130,-153,-103,83
-22,-18,62,-5,-29,-37,-151,-201,-160,95
-22,-50,47,-32,-43,-47,-133,-176,-111,99
-34,-91,-9,-68,-71,-44,-70,-51,5,110
-10,-37,-73,-60,-67,-18,-11,62,175,168
16,-3,7,-15,-23,12,2,57,236,229
21,-8,22,20,29,46,-4,-42,175,192
8,-8,48,28,43,61,44,-28,102,139
29,42,69,40,58,97,126,91,137,20
22,54,93,71,100,134,171,103,101,-194
-14,-14,79,48,48,95,103,-9,-93,-305
-20,-22,49,2,-17,28,30,-30,-96,-189
-36,11,34,-4,2,29,54,60,-18,-38
-71,-13,8,3,7,33,70,93,-161,18
-81,-46,14,11,-8,10,15,17,-307,38
-64,-45,52,3,-22,-11,-29,-63,-287,-70
-13,23,46,-21,-29,14,-33,-44,-184,-258
13,29,13,-53,-46,16,-29,-7,-66,-359
27,2,17,-67,-55,22,58,49,72,-251
30,-25,21,-48,-54,23,152,167,238,-4
30,43,42,-11,-4,56,180,278,488,294
1,42,15,31,34,64,155,280,513,339
-10,13,-117,-17,-16,19,79,177,290,177
-42,-45,-94,-52,-71,-40,-15,4,-85,-126
-24,8,-15,-41,-52,-40,-52,-74,-189,-194
6,34,-51,-18,-26,-36,-43,-62,-171,-170
16,2,-2,-2,-7,-45,-30,-52,-178,-159
-54,-159,26,8,-24,-60,-43,-47,-257,-155
-94,-190,31,26,-27,-36,-37,-21,-233,-142
-48,-37,47,42,22,12,-11,-45,-165,-145
-8,54,51,43,51,35,13,-73,-168,-216
-1,58,41,31,49,46,29,-68,-141,-206
-13,-14,26,20,25,28,25,-43,-176,-202
-14,-26,8,14,34,9,7,-24,-128,-62
-11,6,-6,16,59,0,4,-7,8,146
-19,-21,-27,-19,16,-42,-52,-39,44,297
-61,-55,-50,-59,-40,-87,-99,-71,10,337
-82,-50,-38,-51,-45,-65,-82,-76,6,323
-22,3,-27,-32,-2,-34,-49,-88,26,379
4,-76,-1,-18,-9,-63,-42,-111,-16,383
-12,-181,19,15,-11,-65,-28,-102,-30,152
-45,-189,0,19,-14,-53,1,-77,-43,-207
-78,-231,-22,-21,-67,-86,-37,-94,-25,-229
-63,-179,-32,-43,-74,-99,-56,-95,23,-134
-6,8,-34,-49,-31,-77,-69,-96,109,-75
41,85,-40,-48,0,-46,-82,-96,143,30
56,88,-60,-47,0,-11,-1,79,256,257
44,14,-15,-41,-21,29,156,301,368,353
52,-51,56,-14,-5,59,222,333,366,163
111,109,75,11,52,79,186,250,354,29
127,102,69,3,20,39,68,102,165,85
95,-59,47,-26,-50,-28,0,12,-21,185
25,-120,16,-47,-65,-57,-29,-21,-130,144
-76,-138,9,-16,-31,-23,-17,-70,-300,-172
-112,-117,27,52,38,12,10,-64,-280,-331
-108,-84,-36,116,89,26,19,-45,-250,-462
-106,-58,-22,136,95,36,55,-19,-256,-578
-86,-37,82,129,82,50,72,0,-221,-470
-65,6,71,78,64,27,13,-135,-276,-173
-20,105,9,23,57,-9,-74,-237,-256,108
-51,22,19,19,46,-11,-75,-210,-248,50
-66,-67,15,26,40,-4,-75,-163,-192,-64
-32,-3,-36,-16,21,-45,-111,-160,-32,13
-2,84,-68,-46,16,-41,-109,-131,81,135
31,83,-163,-92,-32,-49,-89,-56,129,297
71,63,-172,-110,-51,-71,-78,-32,171,503
100,95,-104,-72,-2,-23,-21,4,159,397
98,162,5,-25,0,3,79,107,123,-69
71,164,79,-6,-31,-40,89,124,65,-352
38,144,109,39,26,-14,87,122,32,-290
-11,153,131,86,101,49,119,117,46,-358
-21,129,102,58,91,40,88,71,43,-284
-13,70,75,20,45,6,22,15,14,-178
-26,-81,64,-2,-25,-32,-33,-33,-78,-180
0,-162,35,-18,-46,-63,-83,-47,-88,-151
16,-128,21,-8,-41,-68,-96,-32,29,-53
-7,-112,9,14,-17,-46,-88,-42,49,-8
-2,-87,13,11,-20,-16,-59,9,62,69
7,-63,37,0,-51,-9,1,121,64,271
-1,-76,3,-18,-86,-40,8,96,-108,293
2,-81,-29,-53,-117,-54,18,21,-227,292
45,19,-54,-87,-112,-29,44,-1,-110,367
49,-3,-81,-114,-133,-71,-42,-65,-109,334
31,-100,-111,-145,-161,-136,-130,-106,-90,206
72,18,-135,-127,-115,-116,-130,-76,167,221
118,92,-90,-70,-57,-48,-85,16,417,331
161,176,-5,6,39,56,30,144,557,367
144,234,74,101,144,145,119,205,491,248
19,213,86,179,212,184,128,146,114,-239
-25,134,-50,143,161,120,53,77,0,-459
26,115,-88,43,71,26,0,25,111,-219
10,105,5,7,55,18,22,97,164,-111
-64,75,33,24,75,36,45,101,78,-224
-104,34,43,51,81,75,72,10,-133,-400
-60,127,86,48,74,83,46,-74,-207,-299
-49,55,81,25,19,34,-38,-118,-309,-218
-69,-121,25,10,-48,-14,-48,-75,-295,-204
-71,-155,-81,-1,-51,1,-5,-43,-134,-126
-70,-149,-32,28,-23,36,27,-19,16,-59
-81,-166,-10,14,-19,40,44,12,116,12
-99,-165,-12,12,0,35,60,33,119,70
-69,-72,-22,49,31,11,31,-8,15,136
-26,1,-32,51,42,-26,-47,-91,-176,132
-33,-74,-6,34,24,-24,-61,-126,-336,-5
19,46,-6,3,20,27,-24,-42,-134,-100
28,164,-37,14,25,47,12,60,20,-176
-8,137,2,55,25,11,-25,34,-17,-191
-39,88,6,22,-47,-66,-127,-77,-82,-116
-21,72,-51,-15,-120,-134,-147,-105,-68,-1
33,79,-51,12,-100,-106,-81,-42,58,152
35,4,24,27,-57,-47,-57,-1,83,245
53,66,28,39,3,-12,-55,14,103,235
41,123,17,44,1,-4,-38,53,122,93
2,62,-9,-2,-34,-29,-52,52,35,26
-63,-88,-24,-15,-31,-22,-67,18,-109,-7
-109,-169,-8,33,44,34,-48,4,-160,-188
-64,-99,17,44,87,74,-36,12,-82,-281
5,-11,-30,-15,31,43,-41,28,62,-95
20,-126,-67,-37,-54,-44,-67,10,50,126
47,-129,-80,-58,-82,-58,-62,-11,26,166
79,24,-84,-72,-65,-10,34,14,65,142
66,21,8,-37,-46,8,88,13,5,181
60,21,26,-27,-31,-16,28,-39,10,310
32,45,31,-33,-24,-42,-18,-77,22,144
-2,47,10,-66,-45,-38,-14,-81,15,-313
27,95,-35,-99,-57,7,-4,-37,56,-524
42,-13,-124,-91,-72,15,18,8,15,-274
33,-69,-115,-60,-68,21,20,-10,-84,-36
0,-79,-14,-39,-65,-9,-39,-77,-202,90
-54,-122,33,-33,-64,-47,-78,-94,-263,158
-74,-129,4,-30,-60,-39,-35,11,-130,219
-56,-133,-1,-33,-61,-39,-32,65,75,444
-42,-125,-32,-39,-57,-62,-63,57,276,656
-36,-89,-35,-17,-4,-23,-20,98,463,587
-36,-65,-23,-10,10,18,32,141,540,409
-22,-34,14,21,13,19,42,161,490,259
-9,-7,24,70,36,44,68,142,179,-106
38,47,46,59,25,37,62,80,-138,-354
100,166,121,43,9,31,58,37,-170,-281
140,261,113,15,19,20,21,-44,-136,-206
108,210,78,-13,13,16,12,-52,-101,-152
76,185,47,-2,33,65,83,47,-7,-158
31,79,47,13,51,105,115,59,-205,-269
-37,-55,-15,0,12,75,54,9,-353,-201
-17,45,-90,-36,1,42,-2,30,-47,40
-11,89,-35,-53,5,20,6,122,231,59
-50,80,-29,-12,40,33,45,160,276,-31
-73,81,19,23,96,81,68,145,123,-141
-69,100,48,60,112,96,26,37,-169,-320
-54,18,43,70,63,1,-94,-138,-401,-195
-35,-140,20,55,13,-75,-164,-202,-423,64
-24,-143,11,35,2,-60,-156,-177,-349,20
-11,-130,-2,7,-29,-61,-124,-157,-275,41
14,-129,-19,-3,-48,-67,-85,-105,-201,123
53,-67,-31,-18,-35,-58,-60,-41,-51,269
89,41,-30,-42,-22,-38,-32,0,150,447
110,43,-19,-53,-36,-24,11,41,249,504
116,123,-26,-53,-5,4,48,43,300,402
49,123,-15,-18,33,29,60,48,166,36
-15,87,12,16,66,50,72,54,-38,-393
-37,-34,-8,31,48,32,43,20,-196,-493
9,2,-14,-1,25,-4,-36,-15,-81,-282
46,82,-14,-12,39,-15,-70,-19,78,-89
30,81,-24,-20,40,-9,-53,-5,162,92
4,35,-2,-5,52,16,-35,38,209,215
-47,-35,12,40,62,29,-31,31,150,67
-45,46,3,40,75,25,-40,-16,238,-92
-43,64,-2,11,54,19,-54,-51,283,-129
-34,7,9,-3,30,14,-58,-76,162,-87
-73,-122,14,-7,3,21,-12,1,-98,-129
-85,-136,1,-15,14,70,88,156,-166,-110
-76,-38,1,-6,77,108,113,157,-83,-26
-68,-36,0,11,114,118,133,149,-58,-110
-19,34,-26,10,123,115,167,99,-15,-193
45,105,-89,16,113,65,90,12,0,-154
86,111,-58,28,99,41,4,-21,22,-38
79,85,14,31,74,37,9,18,81,105
79,101,31,16,41,33,15,65,125,267
92,125,0,-10,-10,20,25,86,161,337
118,135,24,-60,-115,-73,13,69,139,207
87,87,22,-90,-195,-142,-45,20,61,-132
27,48,-38,-99,-176,-148,-116,-49,63,-190
-7,31,-63,-92,-100,-97,-120,-103,95,76
29,33,-19,-34,-42,-43,-88,-109,115,284
55,-56,45,46,-9,-25,-52,-86,16,230
38,-20,-19,70,44,26,-20,-6,84,-11
59,65,-94,15,34,38,-25,75,263,-151
78,2,-16,-31,-37,-1,-7,163,297,-101
38,-135,13,-29,-101,-21,93,263,231,42
-36,-146,78,53,-63,16,138,266,176,187
-51,-122,93,79,-18,35,107,153,22,219
-30,-44,21,-3,-42,-12,29,31,-90,180
-13,-88,-33,-61,-106,-87,-70,-64,-262,29
-11,-190,-14,-56,-127,-125,-80,-114,-369,-81
-2,-210,-27,-41,-108,-121,-63,-125,-241,31
17,-119,0,26,-32,-68,-43,-82,-57,156
49,111,63,97,81,27,4,-57,-130,-45
19,144,51,71,69,14,-12,-184,-485,-199
-31,81,-31,0,18,-30,-68,-226,-558,-167
-67,-28,-73,-30,-11,-21,-59,-139,-394,-179
-112,-159,-82,-52,-45,-26,-50,-89,-335,-201
-108,-172,-33,-61,-60,-49,-28,-98,-280,-211
-56,-129,-32,-57,-62,-68,-2,-70,-211,-178
-7,27,-35,-33,-5,11,44,19,-40,-95
1,129,4,5,67,89,73,89,95,-67
13,154,40,45,111,138,87,93,105,-58
15,136,47,54,118,116,55,-3,45,-12
49,96,22,52,123,65,10,-51,108,129
108,108,3,60,116,50,-2,31,281,224
63,89,-81,78,149,72,18,113,418,-11
-34,52,-147,115,220,137,89,110,423,-587
-64,96,-53,82,178,163,176,86,369,-912
-42,100,38,27,74,63,84,-82,221,-456
-23,66,7,-40,-66,-99,-88,-276,-28,233
-25,28,2,-57,-142,-142,-123,-325,-225,310
0,60,-53,-53,-112,-117,-74,-265,-145,199
0,49,-42,-74,-102,-77,-32,-176,0,345
6,44,29,-82,-97,-32,24,-68,131,511
-4,-18,7,-60,-87,-30,63,73,178,387
-21,-105,39,-30,-84,-48,97,301,147,151
-14,-32,9,-18,-46,-27,83,378,179,68
17,36,11,-8,-12,3,44,288,191,125
33,39,45,5,-12,-9,0,116,30,104
31,0,40,-7,-47,-46,-35,-6,-150,87
64,0,32,-41,-59,-64,-83,-84,-168,185
96,39,18,-83,-64,-81,-101,-118,-60,312
84,27,27,-93,-59,-68,-55,-42,26,277
30,21,46,-60,-36,-28,-16,-1,-38,88
-32,40,48,-47,-5,-7,17,60,-17,-48
-34,33,18,-31,0,-13,43,138,109,-46
-16,27,21,3,16,-29,9,113,155,-40
-14,12,24,37,41,-23,-9,8,52,-94
-17,2,7,37,36,-19,-53,-43,-56,-76
-21,8,-37,48,48,-6,-32,-24,-104,-82
-11,16,-15,27,48,1,2,-12,-117,-156
-21,-6,23,1,21,2,18,-47,-169,-253
9,38,38,-5,23,-6,12,-64,-59,-206
60,51,43,-9,25,-10,-12,-62,68,22
29,8,28,-8,31,9,-11,-66,-12,34
-45,-98,2,-25,15,7,-47,-82,-180,-115
-67,-40,2,-5,22,22,-66,-28,-149,-215
-24,-23,-27,-31,-34,-48,-138,-17,-120,16
35,-37,-44,-61,-99,-134,-216,-82,-48,742
77,-41,-36,-43,-76,-140,-223,-134,-31,1070
59,-1,-14,-16,-23,-65,-162,-148,-26,532
85,0,-34,-39,-25,-58,-110,-118,94,211
79,14,-16,3,24,29,73,0,210,0
-47,27,108,129,157,189,287,80,34,-780
-148,-3,78,103,145,164,233,52,-118,-996
-146,-200,-21,-30,-36,-25,51,62,-231,-436
-76,-216,-3,-26,-95,-58,34,145,-136,-160
-23,-142,50,22,-48,0,70,132,-98,-157
37,-122,33,-40,-65,-1,53,57,-102,125
50,-53,-60,-154,-116,-53,5,12,-48,409
19,21,-176,-194,-121,-91,-10,21,110,419
-50,14,-111,-185,-104,-104,-40,-9,118,105
-109,-16,-107,-177,-118,-119,-81,-84,20,-84
-96,-36,-151,-123,-103,-104,-97,-93,97,342
-50,-12,-70,-24,-58,-74,-85,-47,103,616
-20,-1,34,110,-9,-38,-62,-48,-33,347
-47,-19,81,242,54,28,10,-42,-174,-275
-24,5,137,314,104,85,83,17,-174,-635
28,50,-3,234,50,47,40,17,-55,-497
54,32,-125,64,-28,-25,4,22,54,-141
74,42,-41,-9,-9,-6,25,77,105,-23
83,64,64,14,41,63,99,111,119,-70
70,92,56,49,118,131,150,152,162,-99
48,77,35,63,164,171,159,160,162,-155
-3,-3,37,53,153,144,142,106,108,-213
-43,-84,21,49,123,117,106,70,94,-134
-10,19,-60,54,142,113,85,47,145,-73
3,38,-52,61,133,107,68,29,92,-73
-1,41,48,48,122,123,54,19,-18,-160
-19,41,18,44,126,112,63,-23,-129,-295
-8,45,33,21,100,70,48,-55,-62,-209
-14,-50,84,-4,24,9,-5,-49,-27,-57
0,-40,77,-16,1,-14,-52,-17,53,74
14,0,35,-50,5,-7,-53,30,131,156
28,-9,29,-64,-10,-28,-74,8,112,220
38,-26,27,-65,-47,-59,-55,3,126,214
23,-37,-12,-85,-88,-76,-28,73,240,57
14,-30,-33,-107,-109,-104,-17,107,326,-9
7,-14,17,-37,-67,-51,18,117,290,-16
-14,-50,26,24,-22,-8,33,111,219,133
-9,-44,28,46,16,15,53,119,217,278
19,45,72,101,103,87,89,75,35,159
44,60,60,169,144,101,29,-83,-271,109
0,-69,39,153,92,35,-45,-213,-368,211
-105,-169,88,181,113,38,-37,-206,-332,-175
-105,-44,69,132,132,34,-30,-168,-357,-412
-90,-19,26,57,101,-5,-11,-83,-485,-250
-83,-46,-22,-17,49,-54,-29,-63,-403,-41
-52,-66,-21,-74,-20,-103,-91,-83,-196,166
-17,0,34,-69,-48,-102,-94,-60,-15,182
-11,84,90,-25,-18,-78,-61,-41,26,-30
-63,51,66,-8,-14,-50,-70,-99,-41,-187
-138,-67,0,-38,-107,-62,-96,-150,-74,-238
-130,-76,-31,-73,-145,-62,-80,-100,-6,-150
-89,-22,-26,-80,-110,-12,-31,-70,56,-44
-36,13,16,-21,-47,31,8,-37,83,10
0,31,61,28,1,26,-4,-66,9,-45
15,74,79,35,21,17,-21,-77,-80,-183
8,93,65,-4,17,24,23,74,-78,-296
34,69,43,-62,-19,2,46,219,-62,-187
23,-86,3,-105,-88,-61,-28,141,-85,39
-9,-220,-64,-112,-147,-95,-63,58,-105,106
-27,-198,-62,-73,-155,-71,-52,15,-145,49
-39,-150,50,-20,-110,-49,-35,-54,-232,-69
-11,-61,60,17,-45,-33,15,-82,-138,-72
22,53,23,59,17,12,103,-3,104,16
23,84,-3,68,51,41,129,100,283,162
0,76,10,40,49,59,128,141,330,272
-65,-17,22,29,39,62,94,141,249,69
-81,26,1,21,55,73,53,84,151,-263
-62,29,-35,-17,36,52,23,-27,-53,-257
-1,8,-70,-85,-48,-28,-50,-141,-168,77
16,-83,-109,-129,-110,-42,-120,-177,-185,293
1,-98,-101,-122,-47,34,-71,-77,-42,288
35,17,-72,-91,44,79,0,50,222,187
79,59,-51,-70,32,41,-2,84,327,66
155,89,-11,-53,-13,-3,-42,59,332,8
216,93,-84,-109,-85,-14,-20,110,458,257
211,82,-195,-124,-118,9,22,176,519,510
85,-14,-159,-62,-62,68,119,231,232,276
16,-22,-168,-38,-57,13,57,169,-48,219
-43,-15,-170,2,-32,-46,-75,2,-196,123
-72,-109,-59,42,-22,-45,-85,-63,-350,-181
-72,-160,60,65,-25,-46,-73,-96,-530,-301
-79,-161,28,83,5,-17,-5,-68,-548,-289
-98,-151,45,82,60,28,26,-53,-476,-324
-79,-106,76,62,89,35,-14,-128,-415,-226
-12,29,33,28,87,26,-38,-165,-257,24
13,68,-17,1,79,25,-29,-83,-141,251
7,70,21,11,78,43,28,34,-26,313
31,83,11,28,84,72,60,76,48,125
65,106,-5,54,110,103,75,81,69,-188
65,142,101,89,118,80,71,67,76,-389
71,152,126,63,18,-13,21,63,123,-266
50,38,97,17,-51,-49,-5,56,122,-92
53,22,50,-42,-63,-71,-30,47,238,96
70,55,-2,-85,-77,-101,-34,59,417,325
73,72,24,-37,-18,-42,22,72,426,268
46,42,70,10,43,22,29,4,237,-24
3,14,65,20,44,27,17,-114,-5,-195
14,64,60,41,58,41,0,-195,-153,-220
37,-56,90,75,29,3,-62,-285,-365,-221
91,-110,53,27,-66,-98,-166,-358,-367,56
90,-147,2,-49,-135,-174,-158,-256,-238,257
28,-212,-44,-110,-177,-154,-24,-32,-90,279
-59,-196,-43,-93,-144,-65,65,88,13,133
-116,-127,-1,-62,-78,1,84,136,36,-138
-87,0,-8,-64,-24,16,65,171,66,-117
-62,-23,7,-30,-16,6,51,176,-8,4
-22,-46,29,3,-24,-5,46,153,-47,-17
53,87,9,2,3,-28,2,80,80,-45
84,78,-72,-54,-49,-102,-68,19,284,139
37,-88,-75,-47,-80,-99,-51,33,347,302
-22,-153,-19,51,19,-8,34,94,299,283
-29,-46,-47,128,111,116,101,170,187,262
-16,115,7,113,165,182,121,185,0,-22
-26,157,56,76,148,151,88,100,-195,-336
-26,115,8,34,117,101,46,15,-251,-316
-8,79,-6,-10,50,35,9,-16,-193,-214
23,94,-9,-24,6,-5,-23,-17,-54,-90
10,86,-32,0,15,-36,-76,-62,0,20
-47,41,-44,4,31,-61,-126,-139,-20,64
-93,-63,-105,-49,-27,-96,-188,-192,-20,25
-66,-121,-119,-86,-77,-110,-188,-174,48,137
-25,-168,-72,-66,-90,-89,-138,-100,135,388
0,-150,-5,-6,-33,-43,-31,-22,205,425
-1,-53,102,133,100,110,147,34,81,-109
-26,57,167,185,178,201,239,46,-113,-582
-22,131,99,109,114,163,222,33,-279,-528
5,123,48,39,41,80,135,-19,-392,-286
59,148,27,-16,12,21,11,-99,-301,-109
71,142,14,-19,-1,4,-47,-107,-146,-35
27,99,24,15,15,24,-29,-52,-11,-21
-29,16,10,45,36,35,4,-25,103,25
-33,68,-14,61,94,64,35,-31,237,44
-32,76,-2,66,107,83,19,-50,217,-8
-33,43,-23,42,87,68,3,-81,180,-51
-34,7,-54,18,43,25,-16,-124,79,-40
-30,17,-42,-21,5,-26,-72,-155,5,-33
-36,-11,-112,-65,-6,-51,-128,-152,-4,-54
-3,-9,-232,-97,-26,-52,-78,-43,51,84
44,-16,-227,-100,-73,-42,45,190,154,286
85,58,-64,-53,-69,-15,122,259,277,496
124,118,87,9,-69,-19,92,154,348,589
117,74,108,33,-67,-59,43,88,435,549
98,94,77,27,-48,-37,-1,56,419,366
70,98,85,18,-41,-35,-28,-12,231,-102
0,-49,56,17,-45,-71,-58,-88,-94,-571
-67,-197,-70,2,-48,-85,-38,-57,-342,-726
-104,-196,-115,15,-36,-57,-2,66,-353,-427
-129,-159,7,65,32,4,59,88,-389,-238
-131,-146,124,84,48,31,60,0,-361,-172
-98,-114,68,31,20,-12,-23,-86,-285,-190
-38,-10,3,-18,29,-32,-101,-152,-141,-162
-22,-17,-44,-57,4,-33,-127,-163,-3,67
-60,-128,-34,-54,-26,-20,-85,-63,13,100
-82,-190,-10,-30,-30,-16,-46,-37,-47,50
-22,-55,2,-24,-5,-21,-74,-115,17,122
45,71,-81,-45,11,-26,-132,-191,135,202
84,98,-69,-68,-26,-32,-114,-173,206,235
92,77,1,-97,-97,-49,-6,28,246,231
54,0,-15,-118,-126,-53,137,337,174,131
79,81,10,-79,-62,-4,157,369,92,-12
73,118,0,-38,-8,40,109,168,-58,-117
35,104,-25,-16,16,36,50,1,-203,-126
-12,40,7,6,11,26,0,-49,-262,-74
-17,74,35,19,-4,37,-3,-37,-137,-23
-21,73,17,-1,-29,21,-14,-38,-37,58
-40,20,-59,-38,-23,-5,-46,-57,-3,161
-31,-26,-104,-104,-76,-86,-77,-84,19,339
12,-50,-138,-164,-146,-153,-134,-70,137,458
30,-68,-166,-183,-170,-158,-91,75,337,410
39,-88,-127,-142,-173,-104,17,210,387,294
44,-143,-7,-39,-119,-20,109,243,253,94
60,-36,52,129,32,119,224,200,104,-216
41,33,183,267,142,183,241,89,-158,-521
-20,-18,191,236,104,109,90,-42,-352,-487
-66,32,106,155,71,53,18,-36,-204,-290
-42,112,84,123,64,58,8,-40,-91,-239
-14,148,91,99,56,54,-16,-138,-227,-257
-13,118,72,53,35,7,-75,-230,-329,-248
-4,95,51,31,35,-25,-100,-249,-264,-191
-9,70,48,32,52,-12,-91,-196,-83,-37
-42,-22,38,25,37,0,-78,-125,-5,101
-60,-73,44,12,14,9,-51,-55,40,204
-28,27,18,-25,3,11,-17,-8,172,144
-22,34,-15,-78,-48,-15,-13,16,170,-42
-16,7,-28,-118,-84,-60,-11,78,98,-115
-18,-59,-2,-85,-91,-81,-53,99,-6,-87
-15,-28,-2,-44,-48,-50,-30,122,88,-45
-2,1,-18,-20,-6,-18,17,140,171,-19
17,-6,-43,-18,14,11,16,102,149,-16
11,-128,-37,-34,7,18,-3,63,87,74
-45,-237,-24,2,24,38,-8,26,12,211
-103,-225,55,83,109,82,18,-20,-168,-5
-75,-191,72,85,125,73,-31,-121,-310,-91
-26,-153,41,32,59,0,-110,-184,-336,-5
25,-132,33,-13,-17,-35,-76,-88,-259,22
48,-62,26,-44,-47,-20,4,33,-278,-8
38,28,12,-27,-19,-4,1,-4,-279,-81
15,-35,-66,-27,-44,-67,-57,-60,-285,-65
62,66,-173,-29,-42,-65,-41,-36,-79,125
57,119,-124,-3,-1,-20,0,-7,12,164
23,92,-8,-1,44,28,26,12,60,103
-35,-35,15,-13,34,20,40,52,52,-35
-34,-26,0,-14,14,3,48,68,98,-118
38,67,-117,-54,-40,-42,-9,28,247,175
84,85,-68,-73,-99,-106,-49,33,371,402
116,70,-20,-98,-151,-148,-39,42,467,434
102,22,-73,-88,-149,-122,-10,20,487,330
107,90,-41,-45,-64,-52,38,-6,444,159
41,117,87,39,53,32,69,-37,275,27
-36,48,151,125,126,72,62,-75,-34,-91
-86,-74,177,153,127,88,63,-32,-279,-344
-97,-105,142,112,97,81,54,-28,-312,-532
-111,-160,66,44,16,-3,-11,-99,-349,-383
-83,-170,-1,-22,-21,-39,-32,-37,-352,-147
-33,-42,-23,-41,22,-4,-29,81,-181,-43
-20,-50,-16,-17,39,19,-10,60,-125,-48
-26,-64,-73,41,69,4,-33,12,-97,-21
-46,-146,-101,41,22,-24,-65,8,-136,97
-19,-170,-46,-53,-71,-66,-80,40,-138,249
9,-165,-37,-123,-115,-112,-108,77,-86,301
-2,-169,-38,-132,-124,-154,-154,51,43,244
-4,-132,-16,-84,-98,-123,-141,50,152,126
38,37,46,-24,-7,-38,-47,102,280,10
63,216,97,33,109,87,86,207,313,-237
38,259,135,113,228,226,197,209,77,-586
-8,218,28,125,231,214,146,51,-180,-647
-59,132,-33,59,84,120,65,-40,-223,-579
-41,118,19,21,27,66,42,-15,-25,-279
-4,93,-13,-13,23,38,21,5,214,84
-27,67,-97,2,37,46,26,5,261,112
-29,51,-147,-36,-5,19,13,-6,186,50
42,80,-148,-105,-119,-62,-28,-11,148,338
100,94,-61,-120,-175,-113,-32,-2,165,609
107,88,-1,-112,-151,-92,-37,-29,120,419
77,96,44,-81,-93,-42,-39,-69,-33,-96
81,99,60,-83,-78,-26,-62,-153,-141,-240
98,67,33,-96,-104,-64,-82,-183,-139,177
64,43,81,-29,-52,-14,-21,-82,-115,328
18,84,120,47,40,68,63,20,-12,205
-2,105,94,35,57,79,82,77,150,186
-15,68,61,12,41,61,73,52,122,137
-42,-5,63,12,37,59,74,0,-11,-81
-44,-12,76,-3,19,60,68,-23,-40,-275
-14,90,69,-28,-16,35,45,-39,57,-210
-6,80,48,-56,-60,-13,0,-47,126,-46
-8,39,33,-64,-85,-34,-1,0,146,43
-17,-1,3,-49,-84,-72,-40,24,166,78
-17,10,-21,-9,-25,-49,-69,14,244,79
-13,7,-38,9,16,-45,-83,-40,248,75
-33,-31,-75,27,12,-40,-87,-70,165,55
-82,-110,-113,35,-11,-3,-4,79,40,-71
-71,-20,-69,11,8,36,98,195,-56,-154
-78,15,40,-4,23,2,14,13,-310,-258
-39,18,49,-27,-10,-68,-93,-119,-292,-49
16,-62,27,-63,-89,-136,-169,-171,-103,423
43,-101,-16,-71,-115,-150,-148,-126,87,631
55,-30,-35,-62,-77,-80,8,23,324,561
45,-5,-31,-38,-48,-25,134,142,450,402
38,33,32,21,8,28,150,165,463,193
10,8,114,103,42,78,151,183,241,-54
32,113,138,113,69,80,128,181,-28,-181
13,141,90,84,67,64,77,70,-433,-396
-9,117,52,87,100,71,34,-62,-629,-618
-45,-2,41,66,75,41,-19,-174,-658,-538
-51,-92,23,26,19,4,-81,-225,-581,-297
-15,17,-9,-20,13,-13,-84,-207,-329,-102
-12,33,-36,-54,-8,-30,-64,-178,-153,-45
8,22,-51,-76,-30,-36,-76,-180,-77,-51
37,-65,-44,-93,-68,-65,-77,-163,-79,-2
47,-87,-31,-71,-62,-35,-70,-66,71,198
46,12,-18,-9,35,43,-9,48,293,277
24,50,12,43,104,106,58,131,332,-16
0,30,11,57,133,146,124,253,298,-310
-67,20,36,98,195,211,201,350,71,-545
-62,69,56,91,132,151,121,158,-189,-389
-33,56,27,29,18,13,-47,-101,-298,-8
-2,-16,0,0,-38,-65,-136,-187,-248,91
-19,-121,-24,-30,-75,-68,-124,-106,-152,-13
-2,-47,-54,-68,-68,-50,-22,37,75,4
9,-47,-100,-82,-79,-55,-10,92,185,240
26,-57,-183,-107,-139,-117,-57,73,225,503
68,-22,-121,-121,-164,-151,-73,56,234,423
76,-1,-66,-93,-111,-136,-73,2,167,219
39,-54,-77,-71,-69,-96,-24,-4,102,76
4,-170,-57,-17,-51,-38,76,68,95,52
27,-114,30,54,14,28,152,145,179,81
77,59,43,92,89,66,122,86,149,131
74,80,39,60,75,39,76,64,153,151
20,42,50,34,63,50,103,137,156,-31
-12,-11,50,17,31,63,95,160,121,-163
-47,-159,-43,3,-40,44,74,56,-53,-194
-45,-116,-17,26,13,71,70,-97,-201,-144
0,30,57,19,83,79,35,-194,-218,-1
0,45,33,17,97,69,12,-134,-129,28
-25,40,28,34,83,78,45,12,-91,-113
-17,55,54,28,22,28,19,9,-198,-225
11,71,49,24,-20,-35,-24,-79,-211,-139
32,64,45,66,29,-2,-31,-82,-113,-77
41,68,52,106,60,30,-44,-59,-80,-81
19,39,55,104,57,36,-41,-29,-136,-116
14,36,-15,56,28,22,-26,-9,-60,-4
29,26,-33,7,-16,-18,-37,10,87,224
1,-16,-25,-30,-65,-59,-27,34,210,301
-57,-69,-40,-3,-36,-18,12,46,166,10
-52,22,16,45,50,44,58,25,-21,-340
-34,47,43,46,52,31,21,-58,-247,-393
-32,17,11,14,13,3,-27,-87,-292,-250
-25,-7,-48,32,17,5,-48,-50,-145,-186
-19,13,-31,2,3,-34,-93,-68,-66,-163
-27,1,-95,-29,-29,-77,-133,-144,-87,-59
-19,-48,-157,-43,-61,-89,-126,-177,-107,47
-48,-136,-68,-41,-53,-64,-67,-73,-132,147
-34,-18,-61,2,30,48,76,89,-15,97
-30,44,-18,49,89,129,195,157,59,-75
-50,-34,53,45,66,119,152,114,57,-78
-58,-186,42,17,8,59,54,49,54,34
-47,-135,34,-11,-13,20,13,38,197,34
-9,-3,-15,-75,-90,-53,-37,39,404,241
34,30,-89,-100,-158,-91,-29,110,506,530
49,59,-109,-57,-146,-95,-4,126,399,425
28,49,21,-15,-104,-91,-27,31,181,219
-2,49,63,-1,-43,-59,-36,-54,98,186
-45,-92,63,12,-25,-31,-13,-62,2,94
-53,-187,47,-3,-59,-23,0,-58,-33,95
-4,-53,47,6,-31,-10,27,-33,131,58
26,78,87,66,38,35,64,12,79,-135
4,-9,120,104,58,54,57,6,-352,-384
-61,-139,83,72,14,6,27,-63,-667,-464
-95,-196,30,24,-25,-32,11,-46,-603,-334
-121,-186,28,21,-14,-42,34,-24,-430,-187
-146,-178,31,55,26,-23,54,-27,-297,-148
-143,-181,3,51,33,-12,67,-3,-180,-109
-130,-167,0,21,2,-27,65,0,-163,-118
-124,-172,-14,5,7,-20,40,-11,-152,-100
-82,-168,-48,-9,11,-5,4,0,-102,-4
-42,-126,-27,-22,-36,-16,-23,9,-60,75
0,-67,11,-16,-82,-53,-37,8,3,131
51,57,1,-35,-54,-39,-28,11,110,205
60,97,-1,-43,-49,-34,-17,41,168,258
27,-18,19,-10,-76,-46,13,89,239,266
6,-26,46,13,-63,-24,41,126,388,174
30,62,64,18,-31,-13,42,140,555,108
82,219,69,31,33,16,57,145,662,90
72,245,96,70,84,60,80,83,290,-54
54,204,67,48,66,32,19,-53,-159,18
37,155,28,-3,7,-32,-37,-113,-407,9
38,149,2,-44,-29,-41,-61,-77,-305,-15
50,115,-5,-49,-40,-33,-88,-26,-73,17
14,-16,5,-23,-59,-62,-59,-12,-1,-48
-28,-106,1,-2,-59,-90,-58,-59,-48,-130
-37,-124,-14,7,-45,-91,-97,-149,-126,-122
-23,-135,-28,12,-36,-92,-116,-225,-168,-35
-20,-105,-5,15,-23,-71,-98,-244,-128,63
-24,-85,6,13,-14,-42,-51,-186,-34,172
-39,-85,-8,15,-11,2,26,-34,60,152
-11,-55,-9,21,20,50,35,12,74,51
10,-41,35,24,38,66,33,16,-67,3
41,-37,26,-20,-1,32,19,113,-111,-4
49,-44,1,-45,-53,-26,-27,97,-154,-162
24,-63,-23,-37,-94,-74,-93,-22,-161,-258
-29,-60,-12,-2,-55,-64,-86,-28,-106,-232
-60,-32,19,36,0,-20,-4,25,-35,-107
-70,-4,38,68,74,69,111,79,9,-36
-39,24,53,81,109,110,119,58,-5,-102
-14,-2,9,17,78,66,34,-9,-37,-19
-16,-25,-30,-11,71,77,100,113,-42,-60
-16,-10,-32,-22,59,86,175,178,-13,-135
-25,-17,-23,-17,32,62,163,132,28,-142
-49,-27,-22,18,49,75,96,92,58,-178
-45,-26,-25,32,50,50,11,32,27,-124
11,0,-15,29,-25,-56,-87,-70,13,83
67,21,2,43,-50,-104,-135,-115,76,236
64,19,-61,47,10,-51,-121,-94,175,282
55,12,-128,17,10,11,-62,-42,251,325
61,14,-39,-14,-15,35,22,50,302,321
70,42,17,-20,-19,17,72,99,302,254
76,56,31,-31,-53,-29,40,106,303,240
99,60,27,-44,-91,-71,-5,119,268,249
111,71,2,-28,-104,-98,-33,41,88,158
107,54,-15,-42,-102,-95,-51,-25,-42,138
98,42,4,-61,-83,-66,-29,38,-20,68
102,66,20,-35,-22,10,37,126,75,-42
60,33,35,9,26,51,52,131,106,-115
-2,-3,15,36,71,46,32,55,-27,-314
-41,-43,-36,-24,41,-13,-47,-90,-197,-298
-32,-64,-82,-94,-40,-90,-118,-153,-96,130
-8,-32,-53,-55,-16,-50,-58,-79,85,321
-17,-16,-11,3,22,-15,2,-30,58,288
-95,-31,-16,38,47,18,57,0,-105,-104
-140,-40,-9,22,26,10,52,27,-238,-498
-112,-41,-2,17,-6,-37,-27,-83,-367,-474
-67,-8,0,25,-7,-53,-59,-178,-478,-335
-30,45,36,54,47,20,-38,-161,-455,-406
-4,58,53,65,83,81,8,-109,-314,-432
-12,52,33,45,74,91,21,-85,-150,-334
-10,32,-7,17,54,56,-8,-106,-41,-147
6,-25,-73,-46,8,-21,-74,-148,24,255
5,-75,-126,-130,-65,-87,-91,-140,108,597
14,-66,-109,-128,-49,-49,-39,-61,166,466
1,-26,-60,-80,-2,32,28,-5,106,144
-17,3,-26,-39,37,96,69,27,-37,-107
-33,0,-5,0,95,124,71,32,-157,-160
-30,-5,-8,23,133,129,77,27,-98,4
21,34,2,0,74,101,100,89,35,86
47,67,-19,31,65,118,152,238,171,-71
49,57,36,66,77,105,121,253,214,-154
48,30,32,67,52,39,31,126,176,-92
54,36,-59,73,9,-25,-16,-18,27,-205
76,52,-12,58,-25,-55,-42,-109,-73,-171
79,44,24,11,-72,-108,-103,-148,-81,78
100,49,29,-2,-132,-163,-173,-210,-105,350
81,82,54,43,-88,-116,-157,-196,-98,402
3,55,49,63,-9,-28,-92,-142,-76,257
-27,35,32,37,9,16,-32,-57,38,81
1,66,0,45,26,64,41,48,253,80
9,56,35,37,34,105,126,152,351,127
-11,33,13,34,51,126,195,195,318,118
-36,11,-45,30,29,94,137,182,253,54
-61,7,0,-1,6,61,59,120,75,-181
-60,-1,4,-26,-8,43,19,22,-121,-282
-53,-25,-9,-33,-27,-2,-48,-46,-131,-167
-39,-9,12,6,-17,-21,-69,-37,-84,-198
-32,13,31,26,3,-14,-38,-51,-95,-163
-21,0,-30,33,19,-4,-60,-110,-142,-52
-4,-13,-127,0,15,-4,-59,-90,-106,-49
10,-2,-139,-23,8,-12,-45,-44,3,-25
13,-5,-87,-8,14,1,-29,-11,24,81
-9,-20,-115,10,29,11,-58,-39,-19,229
-11,0,-21,41,73,54,-68,-41,-43,294
13,29,17,31,49,69,-35,-11,-35,187
21,13,40,-28,-37,31,-41,-6,-14,-24
-12,-2,46,-38,-45,35,-20,37,-33,-232
-36,-4,64,44,58,88,25,95,-56,-283
29,29,26,44,50,33,-40,27,6,104
88,53,-61,-8,-66,-69,-111,-14,124,489
106,60,11,-7,-81,-70,-80,36,310,510
67,79,119,24,-21,11,13,117,394,69
-17,55,105,19,19,46,35,114,262,-381
-51,21,60,-8,21,35,-9,50,18,-486
-46,28,54,-16,4,44,13,19,-178,-632
-23,23,52,-16,9,46,28,-8,-242,-590
10,4,6,-58,-21,8,-17,-41,-175,-185
26,-3,-6,-65,-26,12,-29,-54,-133,-52
19,-18,-29,-74,-31,-5,-37,-75,-188,10
13,-38,-51,-87,-33,-49,-63,-82,-150,364
44,-16,-13,-67,-31,-64,-69,-38,12,579
82,47,45,-11,-40,-78,-58,12,161,454
50,66,82,72,14,-30,-8,43,179,99
-23,23,58,77,65,37,44,66,177,-138
-43,-13,-3,-10,25,23,26,35,178,-80
-45,-20,-24,-69,-26,-12,-20,2,190,59
-46,-22,-50,-60,-11,-30,-53,-28,227,98
-33,-11,-58,-36,18,-27,-56,-49,304,71
0,27,9,8,46,-1,-34,-19,451,21
45,50,43,45,65,24,-5,104,555,117
42,45,37,31,71,44,53,274,448,134
46,48,29,24,78,52,105,307,140,-43
59,24,0,-6,45,39,104,158,-64,-34
52,13,-28,-35,19,29,83,59,-21,96
67,18,-70,-20,27,34,36,-78,-66,210
71,30,-63,-11,29,14,-54,-278,-276,182
31,26,0,-24,-29,-36,-97,-345,-345,-9
-7,4,-5,-28,-79,-53,-58,-169,-220,-177
-13,-14,-11,-51,-80,-45,32,183,-61,-199
-11,-28,-8,-55,-57,-17,96,363,-14,-242
23,15,37,-31,-11,34,90,251,-117,-297
62,36,33,-53,-13,17,29,33,-240,-28
38,15,1,-75,-23,-11,-10,-76,-295,202
-4,12,4,-61,-3,16,24,-86,-342,72
-48,-2,11,-34,0,15,31,-60,-406,-216
-79,-39,4,-36,-30,-51,-53,-91,-399,-212
-101,-69,-85,-4,27,-65,-97,-105,-258,-48
-80,-40,-166,65,116,1,-63,-95,-153,-57
-20,4,-63,73,118,29,-10,-99,-61,-4
-2,17,48,51,73,19,0,-115,9,131
8,22,49,32,51,10,-16,-128,64,187
3,0,18,6,38,-34,-42,-123,168,21
-20,-4,32,6,27,-54,-58,-114,209,-194
-19,5,40,16,5,-57,-51,-117,118,-157
-13,9,27,-4,-48,-92,-73,-96,-11,-33
-26,2,4,-15,-59,-71,-31,54,-78,21
-27,8,17,-14,-35,-21,43,222,-28,54
-4,-11,-5,-45,-57,-54,-6,148,26,190
10,-5,-24,-55,-57,-66,-23,69,67,204
3,-1,-10,-38,-38,-9,20,40,15,43
-8,-27,-38,-37,-29,10,45,118,56,20
-13,-59,-93,-58,-14,26,68,243,244,102
-37,-54,-93,-60,26,69,109,238,322,32
-38,-10,-74,-54,12,48,94,150,293,-126
32,38,-11,-13,12,17,69,90,283,-69
92,76,46,51,62,45,87,72,283,92
67,64,58,66,65,40,63,30,228,490
57,28,30,39,25,-13,-15,-72,-19,827
59,49,30,54,19,-24,-4,-60,-93,610
-6,46,-15,71,31,-3,15,-11,-44,58
-30,33,-30,64,39,26,45,29,26,-250
0,59,49,54,29,42,66,24,72,-246
24,73,90,47,16,38,73,25,86,-203
19,83,89,44,-4,42,67,21,14,-124
-9,45,-22,-8,-32,20,24,-35,-153,-7
-12,-6,-77,-70,-54,-11,-19,-94,-286,-8
-19,-34,-26,-77,-56,-58,-58,-150,-354,-115
-10,-42,-19,-31,-10,-41,-91,-146,-327,-174
-15,-31,16,20,35,14,-44,-71,-175,-186
-37,-5,24,44,63,42,21,-27,-102,-181
-17,-24,-28,-23,0,-22,-18,-56,-83,-70
37,-13,-26,-61,-67,-48,-33,-46,-33,79
70,10,12,-28,-53,-23,-47,-47,-7,204
55,32,59,23,-14,-31,-70,-11,97,350
15,72,117,103,47,13,-18,62,202,237
3,67,98,103,57,14,-21,73,157,-125
7,13,2,9,-14,-39,-115,-22,70,-204
-6,6,4,-8,-28,-37,-113,-71,121,-144
-9,18,56,27,42,67,18,-34,129,-290
-27,10,60,43,107,146,128,-18,15,-486
-41,-9,34,38,119,142,89,-66,-94,-399
-65,-69,-46,28,131,106,9,-81,-136,-142
-43,-71,-127,-36,79,101,16,13,-79,57
-14,-32,-35,-42,67,140,81,108,47,38
-12,-10,12,-1,79,146,118,114,52,-204
14,36,62,47,27,71,56,23,-48,-363
99,75,87,72,-83,-108,-86,-124,-9,-95
147,72,78,54,-130,-187,-150,-109,116,186
130,38,26,2,-117,-107,-29,103,219,303
138,22,-25,-61,-115,-41,43,280,428,699
115,26,-54,-57,-74,-12,71,227,385,693
-8,22,39,8,27,64,116,115,92,53
-64,5,30,11,42,54,95,15,-164,-307
-32,24,32,18,21,25,36,-50,-289,-327
-41,22,29,25,10,17,-11,-68,-400,-346
-85,-38,-25,-4,-16,-30,-58,-50,-423,-246
-99,-85,-68,-54,-40,-78,-87,-15,-314,-71
-75,-68,-64,-39,-26,-58,-96,-32,-200,-52
-50,-44,-25,-35,-2,-43,-95,-58,-126,-83
-40,-30,-16,-13,24,-24,-76,-76,-45,-25
-21,3,3,13,39,8,-49,-76,-14,-3
29,15,9,-6,4,0,-61,-83,-34,-6
53,9,-8,-66,-46,-15,-49,-48,-15,-26
48,5,-38,-106,-68,-25,15,9,38,4
54,18,-9,-66,-77,-24,49,15,116,111
31,22,17,-14,-53,-2,44,0,138,232
-13,9,50,22,-27,6,47,3,84,139
-47,-12,19,46,-19,9,15,11,137,54
-39,-29,-5,50,18,14,-14,12,198,78
8,-27,-17,-2,-26,-31,-44,0,251,142
-2,-33,-30,-32,-39,-35,-32,8,341,80
-21,-12,1,13,28,31,16,49,349,-110
3,29,37,83,84,84,60,48,181,-96
-3,21,32,64,58,67,9,-24,-36,196
-66,-34,-11,25,46,56,-52,-65,-170,266
-97,-46,-12,15,93,63,-70,-100,-208,-84
-98,-39,0,45,172,113,-54,-155,-268,-401
-80,-59,-55,8,182,104,-55,-216,-324,-132
-77,-70,-99,-93,71,82,-11,-110,-301,50
-107,-84,-90,-124,-4,75,41,63,-218,-125
-72,-54,-70,-90,-14,43,-2,83,-69,-227
-11,-3,-11,-12,15,-12,-57,62,90,-266
30,23,28,65,22,-66,-24,95,213,-247
79,45,-24,64,-12,-99,2,86,307,-18
110,56,12,29,-26,-65,-1,53,346,175
58,71,67,49,-3,5,27,38,131,74
29,59,75,25,-64,-48,-69,-104,-314,57
39,12,21,-73,-189,-198,-196,-221,-557,144
50,-1,-9,-116,-216,-202,-135,-19,-387,103
17,-3,-14,-80,-124,-92,0,170,-165,66
-44,-24,-30,-39,-48,-30,39,117,-6,40
-104,-58,-50,-17,-16,-7,23,98,153,2
-102,-79,-44,2,11,-2,11,90,196,-2
-39,-70,-63,-10,2,-24,-37,-9,170,149
8,-62,-64,-48,-11,-25,-41,-46,151,275
0,-56,-40,-84,-35,-2,-3,-14,117,230
-2,-28,-29,-95,-67,-9,17,19,49,155
26,10,-29,-77,-91,-33,31,35,3,88
28,39,-102,-35,-49,7,58,22,2,16
26,47,-39,-10,-10,55,70,18,51,-15
41,62,-24,-4,-11,59,59,10,92,-2
50,55,-97,13,13,53,32,-8,88,15
31,29,-57,59,40,26,-3,28,-15,25
33,17,21,79,-19,-64,-70,20,-119,175
53,21,-54,79,-63,-137,-105,-48,14,461
54,4,-8,73,-36,-97,-64,1,311,482
39,-1,40,69,16,-11,22,108,541,143
20,31,70,72,63,51,75,169,514,-201
-1,51,106,101,102,104,109,198,331,-459
-20,66,91,123,112,100,75,100,-7,-626
-50,43,87,110,82,49,-21,-91,-319,-625
-19,19,63,66,33,-17,-86,-201,-307,-298
36,10,31,38,-8,-21,-95,-222,-109,128
32,19,49,44,0,19,6,-144,-4,130
-19,18,70,69,40,70,116,-25,-16,-113
-91,-8,53,65,71,96,161,108,25,-283
-112,-33,34,7,37,57,135,146,-13,-275
-84,-55,-44,-63,-28,-16,29,23,-127,19
-63,-64,-110,-75,-36,-25,-26,-42,-183,140
-22,-29,-86,-46,-17,-1,-35,-36,-193,70
34,-7,22,-29,-7,-15,-37,-62,-221,41
35,-18,19,-46,0,-21,-39,-79,-261,-43
-1,-21,4,-41,29,0,-43,-105,-262,-131
-19,-10,13,-54,30,25,-16,-54,-183,-181
-29,-20,12,-60,18,32,59,51,-45,-172
-49,-19,21,-10,50,44,98,95,63,-179
-30,4,40,43,85,58,89,110,142,-170
-16,9,58,51,78,38,80,84,149,-105
8,0,25,-6,-11,-50,2,-2,130,206
38,-14,-12,-62,-62,-99,-64,-58,80,356
42,-26,-12,-63,-47,-80,-44,-41,35,314
34,-39,-20,-68,-48,-54,-31,-20,-1,265
24,-26,-35,-63,-35,-50,-27,-5,-44,96
45,8,7,-16,-5,-4,3,20,-10,-75
79,26,41,0,10,12,22,25,26,-18
39,48,67,44,62,54,64,4,-38,58
0,61,68,71,87,73,90,-25,-116,-74
-26,16,56,20,48,34,41,-58,-139,-213
-35,-34,-35,-44,2,-3,-3,-54,-109,-199
7,-48,-79,-84,-62,-38,-29,-30,39,77
5,-49,-44,-74,-77,-59,-59,-15,127,197
-13,-40,-28,-41,-56,-68,-70,2,173,169
3,-42,-16,-20,-33,-44,-35,79,266,175
29,-24,-6,4,22,-9,23,120,233,123
50,13,19,1,27,0,24,68,49,12
72,47,57,8,0,-6,-6,-10,-128,-83
65,35,57,3,-7,-14,-25,-41,-166,-72
51,35,37,15,5,-4,-5,-34,-140,-133
51,46,42,12,9,5,8,-44,-75,-182
71,36,39,-5,-20,-13,-37,-88,31,2
65,27,30,6,2,2,-34,-89,104,185
30,30,38,22,51,47,8,-71,22,94
17,35,44,9,42,52,4,-74,-141,-8
-2,13,30,5,32,30,-22,-112,-260,-67
-19,-7,9,-15,12,27,-41,-89,-203,-55
-12,-8,-10,-33,-9,26,-25,-24,-29,-67
-3,-31,-34,-67,-40,0,-14,-7,53,-183
-5,-64,-55,-85,-58,-40,-44,-2,171,-116
21,-47,-45,-52,-15,-2,0,109,373,53
47,-21,-29,-16,-8,21,37,183,542,340
-41,-44,-47,-4,-10,27,66,182,523,292
-138,-39,-22,32,35,94,154,209,223,-384
-145,-25,-5,46,50,103,136,104,-183,-648
-36,-27,-25,-12,-11,12,45,-2,-221,208
53,18,-4,-2,-33,-37,-2,-81,-171,926
44,122,135,151,90,76,73,-106,-325,400
0,115,110,194,142,125,70,-135,-409,-263
-8,49,44,123,85,62,-25,-196,-346,-231
2,17,59,76,53,28,-50,-188,-217,8
15,8,14,29,45,14,-23,-91,-108,95
29,9,4,8,42,18,5,16,23,177
51,27,15,16,47,23,11,65,183,265
61,23,-14,6,-3,-19,-10,78,302,210
74,16,-53,-33,-92,-81,-35,56,260,48
65,9,-38,-66,-166,-135,-79,19,165,-7
-6,7,0,-28,-93,-47,-59,1,56,-91
-33,29,49,15,5,48,28,24,-38,-225
-11,30,40,11,9,49,61,13,-131,-275
-2,0,-11,-24,-29,22,31,-17,-154,-133
-18,0,-97,-50,-53,12,54,-6,-119,-83
-26,2,-61,-70,-91,-9,65,-8,-150,-67
-45,-15,-1,-57,-91,-27,21,-51,-182,-52
-41,-27,-9,-23,-69,-52,-36,-94,-126,-5
-4,-45,-38,-14,-55,-103,-79,-74,18,169
5,-43,-58,-23,-14,-61,-57,42,194,274
14,-24,-64,-56,-32,-25,-10,157,356,314
0,-4,-34,-20,1,55,79,232,394,13
-21,34,15,51,62,104,88,160,148,-397
-35,48,65,84,85,77,22,27,-194,-487
-50,45,75,89,92,60,-10,7,-264,-306
-36,43,65,93,100,63,-28,-24,-199,-70
-1,1,-13,12,40,5,-97,-121,-89,243
23,-36,-84,-97,-68,-72,-147,-212,-93,305
39,-36,-100,-80,-75,-51,-113,-228,-174,277
43,-17,-107,-20,-64,-21,-37,-128,-146,335
75,67,-41,51,-31,25,48,18,-91,144
55,132,104,90,4,50,95,77,-95,-206
29,120,130,79,17,56,101,84,-50,-444
27,84,101,33,8,22,58,65,-7,-331
9,36,57,1,8,8,0,25,-23,-75
5,0,34,-2,16,-12,-37,-38,-32,52
-7,-11,28,19,47,1,-37,-59,-2,-72
-29,-34,7,12,46,8,-42,-48,-2,-225
-39,-49,-10,-7,23,-4,-62,-67,-101,-182
-35,-47,-12,0,10,-12,-35,-65,-104,-70
-14,-44,-28,-11,31,-9,3,-27,-10,-10
-5,-34,-31,-47,12,0,41,32,98,28
0,-25,-25,-48,-21,-13,68,114,229,65
-16,-21,-28,-8,-35,-38,85,175,328,18
-25,2,-15,24,-29,-15,100,171,293,-112
-19,10,-61,41,-24,-8,101,120,237,-164
-6,-14,-127,23,-22,-18,64,56,164,-115
-8,4,-41,8,-47,-28,-21,-44,11,-38
14,2,-46,-34,-101,-85,-114,-157,-165,179
16,-6,-116,-24,-82,-81,-111,-170,-240,278
18,12,-91,-5,-25,-23,-59,-122,-207,223
13,2,-47,-10,-19,-6,-28,-85,-151,139
13,-29,-23,-39,-56,-43,-55,-72,-95,3
16,-42,-34,-53,-85,-81,-76,-59,13,-2
6,-7,5,-26,-49,-35,-50,-6,100,102
-37,-13,9,9,15,26,-5,36,140,227
-51,-28,19,17,50,45,13,67,185,315
-29,-12,40,23,68,47,17,63,59,176
-56,-30,36,3,53,33,-6,-5,-151,-109
-77,-47,17,-21,34,30,-1,28,-157,-230
-76,-65,3,-23,27,29,13,72,-97,-222
-57,-62,-7,-13,17,1,-52,-27,-76,-64
-11,-52,-28,-37,-28,-67,-136,-141,5,205
49,-48,-59,-95,-74,-102,-159,-156,138,443
67,-50,-54,-96,-64,-83,-107,-89,258,524
84,-38,-30,-72,-21,-47,-63,-61,306,515
101,12,-3,-20,18,-6,-14,-97,262,337
84,31,43,5,15,4,-8,-142,196,-21
57,43,64,13,30,28,2,-77,91,-337
33,37,57,8,55,99,85,147,6,-473
20,28,39,17,72,139,181,254,-96,-405
19,41,34,54,88,183,243,239,-271,-129
-29,31,53,57,134,216,235,158,-283,190
-60,-4,35,40,138,159,129,46,-173,189
-58,-31,15,6,39,34,35,47,-23,45
-59,-33,3,4,-7,-33,-14,92,36,-84
-49,-5,12,26,33,6,-9,104,113,-144
-16,19,26,47,38,37,4,102,146,-174
2,27,37,78,72,81,36,76,120,-308
-19,33,24,76,67,102,73,65,115,-430
-19,47,-21,72,19,67,86,62,4,-475
29,63,49,73,17,14,35,-14,-138,-308
53,16,10,25,-14,-40,-46,-91,-153,46
30,-38,-15,-9,-27,-51,-70,-34,-46,184
16,-41,-34,9,-2,-33,-47,47,-5,49
23,-7,-47,44,32,-14,-59,41,-37,-101
60,26,33,70,40,-22,-99,-62,-151,-161
98,50,57,35,-11,-71,-138,-148,-243,-112
83,32,39,-11,-42,-96,-115,-82,-122,7
62,14,10,-8,-36,-69,-69,-6,22,123
60,27,7,-1,-36,-50,-35,68,256,218
43,20,12,-14,-42,-67,-11,109,484,159
33,2,-50,-35,-46,-55,-1,138,465,77
14,0,-38,-47,-44,-24,5,98,207,103
-42,-6,31,-39,-26,-18,-40,-47,-240,1
-64,-21,22,-27,-13,0,-73,-137,-400,-26
-24,-28,9,-32,-11,6,-65,-109,-175,158
-14,-40,6,-27,7,1,-54,-66,-50,239
-36,-25,13,6,20,8,-52,-33,-69,161
-71,-35,-28,24,17,3,-9,16,-94,-58
-82,-50,-61,15,23,0,17,-17,-146,-219
-51,-40,-47,0,37,11,4,-73,-195,-123
-38,-22,-24,13,48,9,8,-79,-184,-13
-62,-47,-62,0,18,-44,-11,-91,-105,-20
-72,-80,-178,-39,-15,-75,-39,-96,-31,-27
-57,-67,-124,-32,2,-34,-4,-59,-7,21
-16,-41,-8,-1,40,5,0,-21,37,34
17,7,43,20,65,42,-26,-11,142,54
9,43,92,69,119,83,-2,-34,128,-43
-11,26,84,58,117,78,0,-68,-44,-184
-21,-18,38,-9,44,4,-16,-3,-176,-68
-23,-19,16,-47,0,-27,5,40,-205,-85
-50,-52,-33,-111,-55,-63,22,-26,-217,-217
-46,-59,-78,-125,-73,-63,-20,-66,-165,-110
13,-22,-72,-102,-53,-50,-46,-20,-11,120
64,14,-21,-55,-11,-8,48,90,135,211
60,71,80,47,68,71,134,155,174,61
24,119,127,130,121,125,194,152,98,-213
-11,89,73,118,83,71,201,77,-45,-236
-31,14,46,68,27,2,123,-17,-112,-38
-12,10,21,37,-24,-39,29,-61,-87,139
29,40,28,53,-24,-29,0,-56,-7,248
34,20,7,39,-11,-19,5,-60,44,307
36,-1,1,0,-20,-25,-28,-74,92,334
37,1,-31,-30,-26,-25,-59,-61,122,228
-7,-33,-46,-52,-32,-39,-45,-20,137,46
-80,-64,-77,-71,-14,-13,15,111,163,-117
-90,-64,-74,-64,0,29,61,233,194,-172
-61,-39,-37,-66,-41,-15,20,203,189,-83
-26,-18,-25,-45,-60,-58,-56,77,139,-33
20,4,5,-13,-42,-24,-87,-36,57,-96
46,29,10,-23,-61,-32,-98,-122,3,43
51,9,-20,-54,-94,-49,-70,-49,93,287
59,-22,-49,-95,-101,-36,-24,141,280,565
20,-32,-11,-35,-25,14,26,210,338,529
-34,3,55,73,79,80,70,174,181,-64
-28,14,50,77,73,56,13,56,-36,-386
-19,4,47,63,67,40,-18,-59,-241,-364
-31,-9,34,48,52,29,-43,-154,-402,-269
-38,-51,-24,-6,6,-19,-98,-229,-404,-62
-19,-42,-96,-43,-25,-43,-69,-185,-195,104
4,-17,-61,-21,5,3,8,-99,-35,135
7,-19,-74,-8,11,26,45,-33,110,99
-32,-46,-71,-29,6,13,50,55,209,127
-74,-57,-47,0,29,28,87,114,153,196
-76,-43,3,54,62,36,93,94,60,189
-40,-9,21,66,69,21,48,46,-57,43
-44,0,42,96,119,67,45,18,-125,-281
-54,9,36,120,156,103,86,18,-94,-624
-14,13,-64,80,113,46,54,-17,-67,-552
43,27,-37,10,50,12,-1,-55,-23,-176
53,39,28,-5,11,24,3,-58,-42,81
41,61,41,1,-31,6,7,-70,-158,166
33,62,-42,7,-84,-59,-10,-107,-216,88
7,29,-48,0,-97,-87,-36,-129,-191,-98
-1,21,38,5,-88,-88,-34,-121,-120,-95
11,20,33,2,-62,-73,1,-45,5,113
25,10,6,-30,-40,-21,76,133,150,367
37,27,22,-31,-42,11,80,207,232,328
17,43,47,-26,-71,-1,37,135,208,-99
-8,17,50,-16,-82,-22,-10,40,134,-363
-28,-10,11,-15,-54,-22,-47,-46,78,-242
-46,-32,-13,-27,-12,6,-38,-57,96,-90
-28,-38,-15,-44,-29,1,-39,-41,96,-4
0,-13,5,-51,-74,-56,-76,-73,48,68
14,16,29,-32,-72,-69,-92,-115,32,112
17,27,43,1,-41,-35,-100,-178,-54,66
13,8,1,-14,-40,-45,-106,-193,-121,40
20,-16,-54,-46,-72,-82,-86,-90,-36,74
19,-9,-35,-63,-63,-46,-39,50,97,27
24,-20,-35,-64,-62,-14,14,132,152,-97
34,-7,-12,-56,-63,-21,19,78,155,-137
36,12,-2,-37,-57,-13,35,43,129,-132
29,25,-13,-26,-45,22,64,137,128,-84
58,-12,-95,-77,-89,-12,62,271,276,229
58,-58,-91,-120,-127,-70,11,281,480,419
42,-55,-43,-67,-75,-18,65,251,516,302
65,-30,-9,-32,-25,6,57,152,345,552
58,-14,16,0,5,13,18,8,61,677
-4,38,95,90,87,106,94,7,-138,125
-5,72,142,153,134,160,115,1,-322,-327
-27,39,97,129,78,95,10,-101,-538,-388
-28,0,-48,67,31,14,-61,-147,-552,-227
-19,11,-104,64,66,28,-58,-165,-554,-214
-31,16,-17,58,96,48,-32,-145,-525,-288
-36,-4,44,34,82,41,-24,-64,-377,-281
-41,-28,26,12,48,32,-27,-32,-254,-178
-21,-50,-15,-16,-1,-31,-56,-84,-190,-83
-18,-61,1,-3,2,-36,-81,-123,-190,-109
51,-30,14,4,-19,-25,-70,-99,-142,142
120,5,24,-9,-60,-31,-54,-23,-6,627
116,19,44,-1,-57,-7,23,93,198,699
36,37,92,70,45,93,127,164,278,29
-55,41,98,128,125,155,164,109,72,-800
-100,-3,65,111,100,114,94,-46,-208,-911
-115,-63,-16,34,-7,-20,-44,-196,-329,-336
-78,-103,-60,-24,-50,-85,-105,-182,-204,76
-30,-81,-46,-6,-8,-60,-92,-110,5,151
-21,-33,1,36,45,-1,-66,-90,52,18
-12,12,42,75,82,42,-50,-146,-38,-101
-7,19,44,93,105,85,-47,-159,-53,-120
-26,2,11,27,63,74,8,-91,41,-96
-22,-15,-32,-22,23,43,128,33,174,1
9,-35,-50,-55,-28,-14,111,81,347,205
53,-16,-88,-65,-80,-86,-40,70,415,305
69,40,-47,-42,-102,-99,-38,146,366,234
48,46,-68,-2,-57,-29,116,311,217,64
18,-13,-166,-29,-29,15,131,287,55,42
10,-36,-203,-67,-37,-21,24,51,-34,178
23,-51,-197,-107,-69,-66,-62,-80,7,346
38,-48,-112,-121,-75,-37,-1,27,175,376
71,-11,-16,-65,-26,36,130,171,363,298
83,32,74,-26,-2,56,181,218,379,249
68,87,158,39,25,90,174,183,59,-78
45,103,154,77,92,141,166,88,-339,-464
42,88,75,59,88,100,53,-76,-549,-454
22,77,85,76,112,101,36,-92,-364,-137
-43,41,84,87,135,115,82,-55,-157,-14
-71,0,31,43,66,70,48,-55,-107,-103
-43,-14,-8,7,-3,0,9,-26,-70,-210
-3,-8,-88,-4,-46,-58,-23,-16,-30,-127
29,-4,-20,-23,-70,-83,-50,-18,-8,71
33,5,19,-17,-54,-54,-18,26,30,59
30,12,33,-31,-60,-57,-24,34,41,-53
28,18,42,-42,-51,-72,-76,7,187,-19
24,26,50,-31,-31,-54,-82,45,318,25
5,35,58,-4,14,-3,-13,102,265,-114
-24,20,39,-35,-7,-7,-3,74,74,-230
-33,-20,2,-82,-63,-51,-68,3,-82,-121
-5,-45,-49,-97,-88,-97,-129,-52,-169,27
-24,-37,-135,-65,-48,-70,-83,-54,-257,21
-49,-28,-67,-19,0,-27,-28,-75,-278,113
-44,-30,-8,6,31,-13,-23,-82,-131,319
-12,-10,-12,12,59,16,21,21,164,305
3,-2,20,20,76,53,70,126,436,135
12,15,71,77,128,115,92,177,478,-135
-8,51,100,154,202,205,111,157,273,-495
-53,45,11,189,232,210,86,47,-83,-614
-67,-12,-60,116,143,87,-32,-150,-419,-315
-33,-46,-32,-12,-21,-69,-134,-264,-464,166
1,-30,-31,-42,-69,-98,-133,-220,-316,356
16,-11,-5,-30,-41,-73,-80,-171,-181,233
16,1,-14,-37,-37,-69,-37,-103,-50,106
27,12,-2,-43,-53,-59,-36,-13,16,64
30,31,4,-26,-55,-46,-38,64,110,43
31,50,0,-3,-41,-23,-43,69,130,-40
31,54,-23,2,-39,-28,-71,-46,-56,-139
75,26,-14,-52,-91,-115,-149,-185,-143,20
115,18,-75,-79,-122,-135,-180,-184,60,337
94,38,-64,-36,-73,-64,-131,-129,132,409
86,48,4,-39,-74,-45,-87,-138,102,653
63,24,-67,-59,-74,-14,27,-52,175,768
-20,26,-33,-13,-27,50,159,116,179,258
-103,20,61,19,6,90,190,273,61,-452
-144,2,46,30,28,90,173,252,-115,-749
-108,1,24,48,46,59,123,78,-122,-511
-59,-11,41,44,41,22,64,-34,-85,-182
-54,-15,23,20,10,11,35,-69,-93,50
-47,-18,-16,20,18,28,46,-39,-78,44
-66,-35,-58,22,41,36,65,67,45,-12
-70,-31,-27,-25,-11,8,66,186,190,-52
-50,-17,-27,-24,-27,-12,48,200,233,-109
-55,-31,-11,17,32,31,10,107,146,-150
-47,-29,-6,10,58,48,-19,49,111,-114
-3,-5,-16,-18,21,30,-5,43,136,5
25,20,17,-5,18,40,12,32,112,-14
10,19,29,7,41,58,7,-11,23,-140
-5,-18,-21,-54,22,47,6,-22,-45,-194
-6,-38,-61,-76,-4,21,24,24,-67,-133
18,-35,-41,-57,-34,-13,53,62,-12,-20
63,-22,-30,-68,-127,-107,-7,63,125,194
112,14,19,-26,-165,-167,-66,80,245,238
152,41,53,-6,-148,-158,-108,25,273,188
162,48,46,4,-100,-142,-114,-54,253,543
117,74,74,61,-2,-26,-41,-63,18,609
22,84,32,107,77,52,27,-82,-441,1
-52,29,-1,47,46,21,-8,-133,-624,-366
-62,-8,10,-11,-11,-22,-84,-136,-433,-261
-62,-45,-13,-35,-15,-35,-120,-142,-250,-119
-47,-55,-28,-20,4,-47,-101,-138,-104,43
-21,-32,-23,-2,23,-6,-13,-88,-62,29
-9,-2,26,25,52,52,32,-69,-133,-89
-4,6,35,24,40,49,25,-55,-155,-13
-25,-11,-36,-2,15,24,17,0,-81,83
-30,-22,-138,-15,-4,23,22,83,43,54
0,6,-75,-26,-6,36,23,114,163,-4
14,23,43,-13,-11,24,0,92,236,-18
12,-2,-45,-2,-5,2,-14,96,341,77
23,-27,-129,-35,-16,-9,-17,119,529,270
57,-7,-47,-60,-37,-15,-5,133,658,439
62,12,25,-45,-33,-8,-15,118,651,511
40,11,38,-14,1,5,-33,43,456,343
34,28,54,33,38,22,-3,-7,179,71
16,40,77,58,64,38,29,-7,-108,-268
-33,41,98,106,101,75,60,-23,-405,-540
-75,31,76,115,111,108,75,-35,-607,-502
-72,-4,36,47,67,40,20,-114,-663,-311
-35,-8,25,7,23,-15,-43,-159,-521,-157
-16,0,31,10,17,-28,-32,-92,-273,-80
-8,19,44,38,36,-20,-36,-55,-116,-74
3,39,70,62,64,0,-45,-37,-19,-108
-11,60,86,69,80,42,2,-15,10,-231
-28,51,91,100,109,90,28,-15,-44,-331
-15,40,76,82,91,63,-19,-84,-131,-264
7,34,33,29,30,-9,-63,-168,-190,-143
6,10,-99,-21,-43,-46,5,-164,-181,-81
19,3,-186,-50,-63,-43,73,-83,-85,-25
35,24,-157,-44,-42,-22,74,-5,77,193
0,18,-38,-21,-14,-5,52,-3,130,261
-53,-2,36,8,25,21,34,-41,77,-31
-93,-20,24,0,13,14,41,-1,83,-228
-78,-28,4,-5,6,0,67,93,97,-137
-45,-10,21,-1,-3,-12,53,84,122,17
-28,-14,13,0,-11,-13,17,-15,143,133
-53,-45,0,-11,16,2,11,-8,77,171
-111,-69,-43,-32,19,6,49,98,-61,124
-113,-71,-35,-21,27,-5,34,104,-152,65
-66,-36,-5,-9,67,22,14,66,-96,27
-14,-11,0,-33,51,35,30,50,-7,45
17,-10,-21,-52,-8,13,-6,58,95,156
38,-36,-76,-66,-53,-36,-39,145,300,234
72,-16,-42,-70,-111,-93,-53,218,524,196
103,38,31,-21,-124,-114,-40,246,683,108
77,98,119,78,-9,-12,34,253,610,-179
37,127,161,140,87,76,116,193,258,-322
0,76,98,85,39,16,33,34,-162,24
-74,-18,27,8,-28,-70,-66,-191,-560,206
-87,-48,-14,-61,-70,-113,-119,-301,-592,158
-27,-14,-9,-75,-95,-112,-105,-254,-415,69
-1,3,-68,-42,-58,-56,-69,-138,-170,51
8,-25,-151,-72,-64,-54,-81,-35,62,272
3,-43,-96,-103,-72,-80,-118,-27,192,347
5,-30,-44,-63,-28,-36,-113,-69,178,116
14,-11,18,8,37,36,-62,-32,11,-191
13,11,38,59,90,91,14,88,-171,-256
4,-5,25,94,120,102,40,139,-191,-27
14,-32,14,53,86,84,30,75,-78,113
4,-22,-44,17,57,58,11,3,-44,-82
-10,2,17,15,48,53,3,-27,-62,-321
-8,22,50,-7,-10,14,-8,-30,-49,-253
10,21,3,-33,-68,-39,-49,-42,15,-45
15,5,-75,-58,-78,-42,-35,-12,174,138
-6,-4,-17,-52,-72,-20,7,23,240,193
0,-6,-1,-45,-61,-13,0,5,107,118
14,-30,-27,-82,-94,-50,-44,-48,-40,-4
34,-17,-19,-81,-109,-57,-46,-1,22,-139
33,11,-41,-79,-70,2,78,205,143,-211
5,3,-68,-14,19,78,198,322,207,-173
-54,26,39,97,121,154,230,258,163,-207
-82,37,52,141,141,146,172,128,-66,-275
-66,12,-51,125,79,34,38,-21,-221,-163
-16,22,-83,89,23,-39,-67,-101,-80,112
22,31,20,46,-3,-39,-71,-75,131,270
37,8,17,0,-29,-22,-54,-53,219,346
33,-33,-73,-46,-74,-37,-74,-23,302,493
34,-53,-12,-63,-79,-50,-70,72,400,526
54,-45,17,-71,-58,-62,-62,58,338,460
76,-28,23,-58,-31,-50,-78,-6,203,277
69,25,76,-22,20,18,-20,-3,141,-52
50,92,156,42,72,103,88,-10,0,-305
-29,50,148,52,76,96,48,-144,-435,-377
-111,-34,66,32,66,45,-22,-178,-593,-369
-130,-29,31,59,90,73,2,-72,-420,-270
-119,0,29,67,65,67,40,10,-219,-168
-91,-10,41,51,47,34,52,32,-82,-253
-55,-7,60,30,20,16,11,-58,-177,-417
13,-17,28,-23,-57,-68,-103,-199,-275,-164
40,-38,-102,-76,-110,-121,-160,-225,-251,52
43,-40,-73,-63,-88,-97,-160,-172,-188,88
38,-18,11,-30,-14,-36,-108,-106,-139,-37
14,-12,20,-21,20,35,-50,-60,-53,-232
9,-15,36,-16,16,72,-6,-49,-6,-329
10,1,53,20,28,56,-10,-73,-123,-395
-13,-12,16,22,48,11,-57,-114,-204,-236
-71,-32,-4,63,140,74,-14,-83,-151,-38
-107,-24,12,46,151,127,53,10,-57,47
-132,-37,22,26,123,137,89,95,46,52
-110,-32,20,9,61,80,48,135,200,158
-23,-2,38,4,9,0,-21,129,246,237
24,18,25,23,10,-36,-72,97,203,222
35,26,-15,-4,-29,-69,-98,15,102,115
34,32,42,-31,-76,-107,-112,-100,-68,-4
49,38,56,-41,-95,-103,-111,-169,-164,16
64,32,25,-52,-90,-105,-109,-114,-128,148
41,29,-71,-43,-79,-73,-54,51,-8,134
22,17,-108,-37,-70,-41,-50,53,4,43
48,19,-7,-43,-61,-22,-58,-9,105,80
59,25,14,-44,-44,13,44,76,286,239
42,21,15,-15,0,58,173,187,325,438
-14,0,13,0,32,77,159,179,269,375
-72,-9,-22,34,73,98,137,138,270,-94
-43,-16,-116,7,29,60,89,66,231,-93
27,-19,-66,-33,-40,-27,4,-59,96,456
34,-32,-36,-42,-42,-55,-27,-146,-181,638
23,-18,-46,-83,-59,-49,18,-39,-215,340
21,31,14,-42,-31,-1,87,101,-39,-216
-20,31,69,34,1,6,81,121,79,-669
-63,6,58,39,-4,-11,22,97,149,-571
-90,-4,55,67,44,44,36,65,39,-451
-82,27,86,77,67,79,43,-43,-259,-506
-25,31,60,10,19,47,0,-139,-377,-300
4,3,42,-20,-5,5,-35,-147,-316,-69
12,4,30,-44,-66,-48,-69,-119,-269,-2
8,7,3,-34,-53,-32,-10,-37,-208,-134
13,8,4,16,0,1,38,-25,-148,-150
14,-8,30,37,20,-3,-3,-69,-55,173
15,5,35,56,40,20,-24,-39,87,351
2,19,48,35,52,46,-3,13,170,63
-41,-7,16,-20,9,12,-18,-13,97,-139
-2,-26,-102,-63,-29,-31,-76,-83,11,110
23,-19,-47,-50,-5,-42,-104,-120,-46,380
37,2,18,-32,10,-42,-109,-150,-63,448
15,-8,7,-10,39,-19,-104,-152,-22,262
-47,-40,-10,14,72,-7,-96,-179,-22,-96
-60,-72,-41,-5,24,-41,-63,-148,71,-221
-15,-52,-44,-74,-123,-112,28,42,239,-168
44,-5,-27,-57,-149,-132,107,212,386,-33
56,37,33,39,-32,-28,142,240,399,26
27,79,115,107,74,60,139,172,245,25
25,86,137,126,98,64,55,21,85,282
17,49,107,119,90,48,-9,-36,-41,280
-21,-30,18,46,23,3,-8,71,-28,182
-45,-74,-23,-14,-2,-4,44,222,65,115
-34,-51,-20,-13,23,9,49,193,35,42
-17,-33,-22,-11,19,-8,0,54,-51,6
-45,-45,-27,-22,-6,-7,-12,17,-75,-107
-78,-50,-26,1,7,28,24,54,42,-157
-63,-54,-22,20,44,68,61,111,189,-92
-7,-14,14,20,44,101,78,109,157,-99
24,33,50,19,20,79,43,9,96,-78
47,41,48,27,43,78,4,-64,169,138
61,62,65,54,90,98,2,-122,36,90
56,55,52,40,70,65,-50,-230,-273,-50
18,24,45,17,32,27,-60,-277,-510,-153
0,0,27,14,29,6,10,-134,-548,-264
7,-17,12,-3,11,-5,54,91,-524,-307
27,-9,-12,-38,-28,-19,32,141,-395,-131
65,6,-10,-63,-64,-44,-2,59,-227,33
61,8,4,-71,-78,-56,-24,9,-100,56
44,-4,-28,-89,-88,-70,-29,2,24,131
7,-17,-60,-57,-40,-29,-2,33,117,84
-25,-16,-16,-6,10,19,22,53,76,-124
-14,-37,-33,-26,3,11,2,13,29,-44
11,-51,-52,-60,-28,-19,-17,-11,144,367
22,-42,-86,-57,-3,0,5,10,260,526
-39,-33,-80,-6,93,103,88,126,317,134
-87,-24,11,8,129,170,170,207,267,-271
-40,-4,26,0,64,107,117,127,85,-194
8,18,32,23,46,41,65,50,8,-70
44,36,18,17,-19,-41,26,-12,67,53
106,51,18,-3,-109,-113,-33,-59,161,211
109,75,71,37,-56,-75,-39,-107,47,81
66,79,66,55,-10,-20,-35,-162,-236,-80
22,35,-17,4,-35,-26,-46,-184,-386,-97
20,27,-143,-39,-57,-29,-51,-132,-260,-116
21,17,-137,-47,-52,-28,-7,-38,2,-113
0,-27,-90,-45,-40,-32,27,6,182,-72
-9,-57,-133,-38,-13,-29,16,-5,286,80
-20,-95,-177,-64,-39,-63,-43,-57,253,206
-39,-115,-144,-84,-71,-79,-58,-47,164,217
-10,-83,-100,-70,-89,-87,0,-5,55,300
64,-25,-49,-63,-95,-100,36,-20,-133,410
106,6,-6,-59,-99,-77,17,-45,-138,651
110,55,56,33,-38,-9,53,-9,15,595
50,110,128,136,48,56,110,43,141,-31
-3,100,76,110,37,32,66,44,203,-547
-9,89,-43,65,14,14,36,14,121,-681
0,124,-50,75,45,58,90,44,54,-563
-11,106,28,57,49,91,125,100,22,-419
-23,41,66,-4,6,64,109,124,17,-231
-53,8,28,-16,-15,43,71,73,52,-171
-72,-18,5,-9,-5,5,11,-57,5,-102
-55,-37,-15,6,10,-22,-61,-222,-181,-3
-36,-37,25,30,8,-43,-137,-302,-362,-9
-62,-56,-54,28,14,-35,-111,-196,-415,-101
-80,-87,-22,9,15,-24,-50,-28,-291,-156
-65,-82,-15,-14,12,-21,-17,-16,-245,-203
-41,-77,-24,-59,-51,-40,-9,0,-173,-212
6,-57,-23,-69,-98,-78,-7,68,73,-44
56,-37,-18,-61,-95,-77,0,121,380,284
20,-38,0,-5,-22,8,65,202,584,488
-24,5,62,90,79,107,135,216,519,302
2,39,97,83,46,74,78,106,271,150
-15,-15,45,41,13,16,0,-6,14,-18
-42,-44,23,63,60,42,-7,-50,-147,-156
-55,-19,42,98,109,98,21,-40,-241,-259
-63,-30,26,51,64,76,13,-4,-292,-234
-34,-49,-15,2,5,27,-48,3,-227,-123
-19,-59,-41,6,19,12,-109,-60,-183,-21
-25,-42,-68,18,53,19,-108,-87,-178,-28
-29,-25,-129,20,52,11,-69,-39,-132,-77
-37,-35,-135,10,71,50,2,10,-76,-7
-4,-23,-123,-9,65,83,31,45,11,112
20,-3,-16,-29,18,73,35,79,142,150
50,18,36,-8,-35,20,30,63,204,128
77,45,47,1,-127,-82,-16,19,119,62
95,56,64,-23,-174,-150,-72,-11,-28,15
96,36,18,-75,-185,-155,-106,19,-31,159
90,34,17,-61,-129,-134,-105,58,104,380
74,48,45,-13,-57,-79,-52,87,213,265
46,71,68,28,3,1,31,138,260,-183
4,71,77,61,53,52,43,99,161,-390
-5,77,97,86,82,62,7,-12,-60,-300
-29,61,91,93,84,45,-17,-107,-264,-263
-48,5,5,52,52,22,-37,-120,-258,-156
-43,-38,-153,-28,-5,-25,-64,-52,-91,61
-1,-42,-117,-85,-64,-87,-89,22,56,128
32,-24,-27,-74,-68,-73,-51,79,216,33
54,24,-13,-37,-41,-2,21,111,275,-31
75,59,34,-29,-39,30,71,112,260,34
51,49,62,-34,-30,52,64,86,229,184
-1,22,62,7,19,65,15,2,44,115
7,-34,11,-19,-10,-16,-101,-119,-138,141
-6,-58,-24,-27,-12,-46,-122,-164,-246,19
-18,-46,-10,0,25,-13,-102,-140,-232,-114
-12,-29,7,34,88,25,-66,-107,-195,-123
-2,-3,32,28,87,11,-38,-98,-203,-81
24,17,35,3,15,-35,-21,-74,-103,10
42,31,17,-25,-61,-69,6,-11,71,113
47,32,9,-54,-80,-36,62,119,200,138
54,24,-3,-64,-64,-7,81,174,230,108
51,-12,-28,-79,-63,-40,20,77,116,29
4,-55,-86,-114,-96,-101,-62,-17,90,71
-16,-65,-80,-122,-104,-118,-81,-48,149,251
-13,-70,-71,-108,-89,-105,-73,2,230,359
-71,-66,-30,0,44,25,48,143,262,39
-136,-50,37,154,207,179,149,152,22,-383
-137,-35,68,208,260,189,102,1,-365,-473
-100,-61,0,140,203,106,9,-121,-501,-317
-39,-57,-65,46,74,16,-54,-183,-451,-112
-20,-34,-68,10,31,8,-60,-208,-380,-6
-13,-12,-52,-11,30,24,-29,-229,-275,-26
-26,-26,-10,-20,-18,-44,-60,-214,-153,-18
-16,-26,-92,-24,-64,-95,-101,-56,83,221
22,12,-109,-4,-50,-73,-58,40,225,341
61,66,57,28,-10,-14,-15,21,185,170
87,89,117,60,22,22,-11,-27,86,-69
101,92,107,66,19,7,-45,-52,-21,-177
132,62,60,12,-78,-92,-103,46,25,77
154,28,-2,-50,-147,-138,-114,171,213,556
148,24,-20,-51,-130,-93,-56,184,457,715
99,44,25,-4,-54,3,33,182,479,484
8,38,43,39,4,82,160,184,258,54
-58,51,-1,81,57,117,193,149,-44,-471
-73,57,56,107,94,105,126,66,-243,-831
-58,34,67,82,88,79,64,-24,-289,-587
-39,6,22,41,55,37,41,-77,-262,-137
-60,0,-29,37,52,29,54,-88,-215,-86
-43,4,-16,28,37,-2,15,-107,-179,-208
10,4,17,-3,5,-16,-20,-88,-70,-76
39,-6,16,-27,-16,-3,16,3,168,142
57,-2,8,-38,-20,18,55,117,378,128
52,0,13,-33,-6,36,85,209,478,-46
26,0,21,-2,26,65,122,310,499,-201
-1,13,54,31,75,87,78,251,159,-380
-47,20,80,57,94,73,-42,-24,-413,-476
-56,-11,61,43,75,10,-122,-187,-569,-171
-62,-47,20,26,87,17,-128,-219,-507,36
-45,-53,11,12,106,40,-124,-227,-402,71
-7,-47,2,-18,76,24,-110,-208,-210,166
-17,-54,-23,-51,26,11,-73,-131,-43,212
-47,-59,-17,-25,19,24,-20,-52,28,122
-43,-29,-6,-12,-33,-21,-18,-41,55,63
-15,-26,-17,-64,-107,-69,0,-11,74,19
-17,-28,-37,-63,-80,-52,25,65,58,-64
-2,-3,-49,-32,-36,-21,36,114,133,-33
30,6,-63,7,27,16,40,111,209,217
28,41,66,83,135,102,48,85,142,380
6,46,77,105,210,164,83,50,49,296
-2,16,21,10,117,101,43,2,19,177
10,-10,-15,-51,15,23,-20,-62,24,153
16,-4,3,-42,-8,-17,-52,-69,9,183
25,41,42,-13,-47,-50,-36,-38,-17,55
4,78,0,29,-108,-96,-35,-65,-5,-107
0,73,10,39,-118,-92,-42,-97,56,-67
9,50,38,6,-113,-97,-55,-124,104,25
10,12,-17,-22,-118,-135,-95,-137,76,63
9,0,3,-15,-77,-89,-70,-87,51,64
5,29,36,-9,-51,-46,-52,-32,13,80
33,47,42,-21,-73,-34,-50,-31,-54,75
53,67,58,2,-57,-9,10,-6,-85,-63
35,66,60,13,-38,4,56,98,-40,-193
3,39,16,-11,-28,-1,53,122,27,-135
-10,13,-66,-33,-40,-21,35,90,58,12
-3,-30,-39,-64,-72,-41,28,135,70,204
12,-35,-28,-77,-93,-59,51,203,142,381
7,-28,-11,-54,-82,-44,35,139,188,430
-2,-32,4,-24,-29,0,-8,60,142,255
-19,-11,34,20,39,65,29,83,73,-109
-46,14,64,29,49,63,48,60,-82,-347
-56,-4,29,5,20,18,25,17,-199,-274
-36,-27,-8,-19,0,9,-13,33,-149,-14
-2,-25,-10,-24,0,7,-24,70,-6,136
13,-22,-10,-18,0,3,-1,87,213,94
40,-3,2,-10,-3,0,14,109,444,14
53,17,7,8,8,42,36,126,496,-131
29,14,-22,17,24,57,56,110,240,-197
-38,11,29,19,53,94,92,83,-162,-296
-71,16,46,14,46,73,67,34,-354,-376
-57,1,21,-2,3,4,1,-26,-372,-286
-34,-44,-34,-34,-33,-59,-79,-115,-325,47
-12,-75,-51,-14,4,-55,-93,-71,-141,224
15,-58,-46,20,67,-7,-44,42,120,190
37,-35,-15,57,126,38,-7,58,249,133
20,7,44,86,163,113,54,8,145,-66
-30,41,87,127,169,153,91,-56,-61,-313
-44,35,70,89,99,86,18,-188,-374,-296
-35,0,-5,12,5,5,-61,-236,-470,-118
-45,-15,-21,-3,-33,-40,-70,-174,-329,-148
-30,-17,-30,-29,-72,-85,-61,-115,-173,-39
-8,-24,-44,-94,-145,-129,-85,-114,-69,168
-11,-34,-45,-80,-127,-90,-64,-80,-2,129
8,-10,-3,-39,-64,-35,-20,-35,40,-20
39,31,45,-3,-6,9,-7,-20,-9,-104
36,70,87,41,44,40,28,-27,-95,-57
43,67,77,32,25,28,1,-42,-81,97
44,37,22,-18,-20,-12,-44,-81,-2,108
6,0,-74,-41,-43,-37,-7,-111,32,15
-5,-18,-52,-43,-71,-63,24,-120,69,66
3,-25,-17,-31,-72,-87,-11,-146,127,142
16,-15,-14,-15,-51,-79,-77,-217,204,109
7,-18,-19,-14,-35,-78,-76,-212,235,107
-17,-33,-18,-22,-13,-58,1,34,206,9
-13,-19,-42,-40,-14,-42,64,263,13,-181
-3,-38,-188,-100,-72,-68,17,219,-19,-72
-11,-65,-261,-125,-105,-85,18,118,194,251
-30,-66,-175,-95,-83,-73,85,91,270,455
-14,-29,-56,-38,-48,-44,135,120,267,490
-8,26,42,37,18,26,160,168,257,309
-3,93,137,124,128,147,227,203,237,-190
-14,118,160,164,170,171,196,122,-2,-525
-24,91,105,128,115,117,111,12,-247,-560
-33,44,35,71,34,26,15,-72,-399,-449
-35,-9,-66,13,-8,-34,-69,-147,-486,-341
-43,-61,-187,-40,-51,-69,-123,-201,-441,-238
-28,-82,-209,-96,-109,-111,-140,-172,-303,-44
8,-73,-202,-100,-125,-119,-123,-99,-174,196
45,-40,-121,-46,-66,-44,-76,-20,-38,233
62,0,-42,0,13,27,-24,49,120,132
52,10,43,20,79,108,49,121,247,65
-7,27,148,97,214,236,141,183,278,-173
-55,19,135,85,230,247,100,79,164,-454
-113,-38,77,-16,132,141,0,-83,-24,-454
-128,-73,31,-47,93,100,7,-117,-172,-212
-135,-97,-31,-42,65,63,6,-113,-261,32
-75,-81,0,-32,-8,-38,-54,-100,-229,293
-15,-45,75,23,-33,-86,-56,-25,-106,309
4,-8,99,46,-24,-77,-2,24,-13,85
35,11,23,8,-76,-118,-19,15,8,92
60,10,54,5,-72,-118,-25,-9,-19,138
65,15,109,20,-38,-84,-24,-32,-31,125
59,22,95,43,-5,-40,2,0,-5,127
57,25,74,30,30,6,24,28,-24,150
61,20,62,-16,13,13,7,9,-28,237
71,27,59,-71,-57,-29,-26,-2,77,340
77,15,51,-100,-106,-65,-66,-9,149,351
89,-1,1,-131,-154,-104,-90,-9,244,331
55,-44,-33,-123,-139,-110,-84,28,428,350
-2,-78,-68,-103,-82,-77,-68,71,520,267
-14,-72,-85,-89,-30,-54,-20,87,426,91
16,-48,-91,-75,-24,-55,0,124,321,66
27,-11,-40,15,35,-18,9,125,134,5
26,53,91,113,103,39,49,54,-206,-333
11,96,121,110,59,26,72,20,-265,-550
24,106,124,92,36,17,76,-19,-203,-542
39,81,106,90,41,12,32,-147,-246,-353
20,47,68,58,25,0,0,-243,-302,-169
14,33,37,22,12,0,-3,-202,-222,-47
5,29,22,0,4,3,1,-104,-27,-15
2,32,18,6,-5,22,19,-20,184,10
19,59,46,30,1,63,61,43,289,97
12,84,72,67,41,95,73,13,168,214
-42,56,26,52,38,72,85,38,-96,48
-86,7,-131,-20,-30,-6,42,67,-248,-332
-130,-43,-178,-69,-76,-43,8,71,-103,-517
-131,-57,-79,-47,-44,-7,52,129,130,-490
-81,-50,-41,-36,-20,23,76,166,243,-243
-49,-36,-23,-8,-9,30,49,84,134,-38
-36,-3,9,30,23,55,29,2,-142,-23
-25,-9,1,22,12,30,-23,-74,-313,-14
5,-41,-32,-17,-34,-52,-134,-173,-405,144
40,-45,-49,-45,-66,-99,-155,-148,-305,201
30,-31,-16,-17,-38,-61,-137,-86,-220,104
6,-11,19,13,-7,-39,-119,-66,-200,104
15,16,34,14,16,-3,-75,-30,-96,176
35,26,43,10,10,15,-35,18,39,200
17,4,36,11,15,28,6,50,115,154
25,5,22,17,16,25,27,43,118,77
49,3,-3,-5,-12,-3,-18,27,109,96
58,-13,-24,-50,-33,-36,-31,46,184,266
65,-25,-35,-64,-49,-64,-60,-1,219,382
48,-9,-27,-57,-54,-70,-84,-101,119,359
-1,-12,-101,-63,-56,-64,-59,-140,49,237
-48,-37,-105,-79,-68,-47,-44,-77,97,104
-45,-47,-52,-69,-58,-9,-42,21,47,36
-36,-43,-50,-44,-15,25,-32,51,-58,7
-10,-13,-22,-5,19,45,-25,14,-91,12
4,22,19,42,62,96,31,63,-69,-134
-2,37,50,72,105,134,92,150,8,-252
-12,37,62,87,133,134,80,107,45,-220
0,49,78,139,153,146,54,8,-16,-254
20,66,121,133,122,121,23,-51,-48,-264
39,66,100,82,53,78,3,-42,0,-159
27,23,40,51,49,78,84,111,117,-65
16,-19,-2,19,55,84,137,221,205,-14
16,-16,-6,-19,1,13,53,61,124,-31
34,-12,-33,-43,-45,-61,-62,-163,-112,27
74,-6,-56,-61,-63,-77,-100,-204,-137,123
69,7,-31,-39,-34,-42,-41,-94,128,219
29,6,-16,-24,-6,0,21,-39,391,395
-56,9,14,18,70,83,95,28,450,87
-166,24,25,96,174,199,213,116,131,-655
-165,6,-92,84,164,203,190,83,-379,-731
-70,-32,-188,10,92,110,65,12,-544,-243
-34,-22,-176,16,115,96,27,-6,-432,6
-13,4,-23,56,159,130,37,-1,-278,53
-8,-5,38,48,130,124,46,-11,-236,-1
-29,-28,14,40,119,77,8,-66,-251,-103
-31,-42,-74,0,50,25,-15,-50,-148,-99
5,-21,-162,-64,-135,-83,-15,11,11,28
34,10,-101,-46,-196,-166,-39,30,63,88
48,36,44,-8,-150,-170,-72,1,50,132
45,38,92,-1,-122,-141,-85,-58,-12,101
35,8,70,-9,-109,-128,-79,-94,-61,63
22,-16,49,-20,-118,-144,-109,-90,-37,100
13,-36,16,-43,-140,-140,-91,-23,102,148
-20,-45,-9,-58,-114,-92,39,84,296,147
-18,-47,-23,-84,-86,-51,85,186,424,147
2,-27,-15,-95,-103,-40,57,227,391,129
21,4,37,-41,-49,10,39,173,202,115
32,27,52,-24,-31,11,-7,99,65,224
38,8,-35,-49,-70,-34,-58,18,-2,336
46,5,-88,-76,-89,-59,-53,-17,61,362
77,3,-18,-96,-107,-67,-51,-24,115,369
91,0,-11,-107,-125,-73,-36,-30,124,375
60,19,19,-69,-82,-34,6,8,132,168
27,36,46,-12,-32,9,38,40,83,-98
-3,-2,18,18,0,-19,-26,-48,-88,-49
-45,-33,-6,77,63,3,-62,-61,-175,-106
-28,4,-86,111,115,49,-10,29,-72,-257
6,40,-24,114,125,64,7,49,-9,-293
-4,32,19,99,115,64,10,33,19,-172
-12,30,40,93,79,51,13,14,27,-139
-30,23,74,62,38,6,-9,-15,-73,-308
-79,-9,56,31,24,-9,-6,-7,-149,-450
-82,-1,76,60,59,35,41,67,72,-315
-63,44,99,108,124,97,67,66,152,-175
-32,46,60,89,93,59,-2,-44,24,44
-26,31,32,56,41,2,-32,-111,-122,125
-23,32,-43,46,49,17,-4,-137,-276,-39
-16,23,33,11,31,-4,-51,-145,-292,-142
-14,2,42,-24,-24,-39,-48,-78,-116,-22
-8,-6,-3,-56,-42,-31,49,47,66,76
-4,-39,-43,-83,-41,-18,84,132,159,94
-1,-71,-60,-107,-77,-52,-22,58,148,121
32,-51,-50,-130,-113,-109,-117,-41,102,256
92,-15,-37,-81,-81,-127,-130,-113,26,381
103,0,-2,-45,-37,-80,-114,-130,-65,400
40,-8,24,-13,6,-15,-8,-44,-88,206
-42,3,59,41,83,55,115,92,-24,-164
-79,5,76,79,118,76,137,137,-4,-385
-91,-7,69,75,115,76,68,100,-28,-369
-56,-9,35,51,97,50,14,51,-80,-217
5,-3,24,18,48,6,-9,5,-116,-125
41,1,25,3,11,-8,-6,11,-96,-84
48,21,-2,17,0,-5,1,3,-139,-95
51,47,-22,20,-10,-25,-23,-53,-160,-55
42,15,-74,39,28,-25,-57,-85,-92,23
34,-20,-145,19,45,-25,-19,-56,3,80
56,-26,-57,-34,-5,-29,22,0,124,120
49,-13,5,-29,-15,-20,33,17,140,61
29,-14,14,-21,15,1,30,25,122,-31
25,-30,-18,-31,5,-8,11,26,107,12
30,-34,-34,-44,-46,-20,7,75,54,80
30,-8,-12,-35,-74,-14,50,200,64,34
25,7,1,-31,-64,-10,38,173,20,78
7,-13,-17,-66,-74,-35,-47,-10,-34,264
16,-19,-66,-68,-44,-43,-90,-124,-53,166
9,-18,-44,-44,-9,-37,-84,-125,-8,-14
-12,-22,15,6,3,-52,-87,-101,82,19
4,-23,31,33,3,-78,-99,-84,125,96
7,-19,10,1,-10,-81,-99,-86,91,144
-15,-27,5,3,-2,-33,-77,-57,35,107
-23,-29,2,11,13,12,-37,0,63,69
-3,-4,5,22,43,45,4,17,3,-28
14,15,9,25,55,48,2,-31,-71,-77
38,46,13,14,29,9,-25,-78,-71,2
30,30,-58,-15,-22,-13,-24,-61,-35,132
-11,-8,-16,-24,-31,3,43,31,32,139
-11,-9,0,-18,-30,8,82,107,149,49
-8,5,20,9,15,34,115,167,262,-136
-37,17,37,27,59,73,172,185,218,-387
-35,22,-21,23,62,90,168,139,63,-546
-2,0,-83,-5,17,36,104,66,-32,-305
10,-30,-42,-57,-61,-20,34,0,-96,186
-31,-1,24,-15,-55,-5,47,21,-129,-6
-51,35,93,29,-17,7,57,36,-225,-596
-24,-4,22,-61,-96,-77,-49,-57,-212,-462
38,-48,-56,-161,-195,-158,-141,-88,-14,198
82,-21,-26,-131,-153,-110,-81,16,184,500
47,22,32,-24,-22,2,32,70,132,490
-8,16,57,50,47,60,42,-12,-54,416
-45,-11,50,94,108,58,-13,-83,-198,204
-59,-36,28,111,163,55,-9,-92,-213,83
-54,-68,-12,67,144,32,-27,-91,-238,125
-69,-95,-46,2,75,-11,-80,-73,-262,-78
-76,-77,-62,-22,12,-51,-99,-76,-176,-268
-48,-40,-58,-51,-65,-67,-77,-43,-29,-252
-10,0,-78,-50,-87,-77,-35,-28,81,-108
4,27,-22,-13,-28,-44,-12,-59,144,-65
-1,36,10,4,7,-26,-33,-66,208,-24
6,26,-72,-16,-7,-30,-63,-72,264,127
17,3,-102,-30,-42,-13,-44,-41,332,403
32,-6,-60,-42,-39,13,45,104,425,573
43,10,1,-23,4,40,79,236,345,468
39,0,-25,-42,-32,-26,-4,122,185,305
12,6,-16,-41,-70,-85,-34,22,83,-33
0,52,77,41,6,-10,38,72,-151,-490
-24,99,139,145,108,90,100,77,-434,-753
-5,125,160,161,127,97,49,-54,-628,-643
26,115,147,134,82,41,-7,-98,-533,-193
29,116,126,103,54,30,-5,-25,-322,-28
0,104,98,74,40,27,31,10,-182,-191
-41,64,73,41,28,13,17,-40,-207,-454
-30,37,34,-4,-29,-14,-13,-67,-203,-396
4,21,-46,-58,-81,-29,-34,-31,-102,-137
33,55,-141,-75,-78,-30,-39,0,17,15
54,36,-46,-74,-63,-32,-32,22,102,91
67,14,-60,-55,-50,-37,-14,64,262,207
84,9,-120,-34,-40,-22,25,128,451,324
84,14,-24,-14,-3,29,100,151,499,298
32,23,43,28,36,54,89,63,289,119
-36,-24,6,50,29,-14,-33,-97,-57,33
-85,-57,-40,59,29,-36,-92,-159,-294,-36
-65,-36,-24,43,33,-14,-80,-147,-370,5
-37,-35,-97,31,39,6,-44,-95,-305,-11
-28,-28,-67,42,42,27,-4,-13,-123,-168
-40,-35,-18,24,46,27,11,32,-3,-224
-51,-49,-74,1,32,20,7,33,63,-238
-31,-64,-41,-23,12,12,-30,37,84,-346
-10,-35,-67,-25,33,41,-4,61,104,-429
11,16,-132,-26,56,73,-15,49,152,-242
-31,121,16,28,120,146,29,70,183,-105
-95,29,109,107,148,158,77,57,21,-122
-53,-20,17,95,93,81,-20,-67,-81,196
-5,-20,30,48,4,-38,-126,-215,-145,515
33,-35,40,-10,-87,-129,-157,-280,-178,648
40,-73,-23,-77,-151,-169,-107,-239,-39,693
24,-55,-31,-54,-116,-110,-33,-101,136,526
4,-56,26,-30,-74,-71,-11,4,172,421
1,-54,15,-29,-45,-52,9,51,141,341
27,-23,26,-2,1,1,66,101,153,138
34,12,53,20,46,45,117,77,146,66
24,31,86,28,46,53,124,43,69,150
7,15,85,3,9,10,53,-5,-86,-5
-23,5,48,-43,-48,-37,11,-4,-231,-335
-35,26,10,-79,-90,-41,21,72,-113,-351
-53,-25,-31,-88,-94,-33,14,115,100,-47
-76,-98,-55,-78,-86,-52,-36,72,203,122
-72,-98,-27,-57,-74,-62,-68,0,190,137
-46,-60,-17,-25,-25,-17,-21,25,163,69
-1,2,9,-7,22,52,55,103,137,-70
27,35,30,-3,27,75,67,106,89,-172
43,41,72,14,12,71,78,75,27,-213
39,25,57,36,21,72,90,54,10,-203
23,5,54,33,10,67,104,85,52,-119
6,7,42,45,-8,61,98,81,28,-118
-6,-1,30,41,-26,10,25,5,18,-34
4,-17,17,43,-24,-20,-4,-5,66,74
4,-18,1,35,-13,-20,10,67,120,43
29,7,12,19,-13,-13,-17,82,91,-2
66,31,24,-2,-53,-29,-54,20,-15,-26
52,11,12,-12,-62,-33,-61,-48,-97,-95
16,-32,-32,-47,-71,-40,-88,-73,-60,-120
24,-56,-68,-100,-85,-53,-115,-74,-30,-49
29,-62,-84,-101,-47,-43,-76,-85,-92,-20
75,-46,-156,-113,-74,-49,-69,-99,-89,267
103,-13,-115,-78,-49,-20,-29,-69,6,524
80,35,42,54,54,81,80,1,-46,183
2,47,118,154,129,134,122,4,-273,-413
-42,29,106,132,106,66,62,-56,-348,-586
-52,-9,24,34,38,-15,-22,-102,-264,-444
-13,-24,-15,-5,40,-2,-6,-54,-144,-282
19,-12,-7,21,78,30,17,-21,-126,9
-14,-19,10,52,127,82,50,15,-66,240
-35,-28,2,23,97,76,19,88,124,246
-2,-37,-19,-65,-42,-34,-82,76,256,186
17,-56,-73,-118,-94,-106,-138,18,307,273
29,-69,-133,-119,-94,-109,-89,74,356,476
38,-38,-110,-78,-106,-71,62,241,434,565
34,15,19,-26,-82,-77,69,187,314,401
31,51,89,41,-30,-45,43,42,-2,51
43,91,129,91,39,14,56,-7,-244,-261
6,81,109,85,48,34,13,-105,-459,-480
-30,39,36,16,0,11,-13,-138,-404,-416
-11,23,15,-51,-36,2,19,2,-108,-223
16,55,28,-23,-15,33,68,116,30,-253
30,87,64,32,10,40,20,30,-101,-333
35,71,48,14,-6,8,-30,-48,-191,-253
30,45,15,10,-8,1,10,-41,-146,-99
-12,27,22,39,39,0,55,-23,-131,-81
-37,15,29,28,36,-12,25,-73,-137,-44
-8,4,15,-6,-15,-35,-17,-31,-9,159
11,-12,-11,-20,-37,-37,-24,25,215,364
8,0,-19,-6,-14,-10,-19,60,372,316
14,8,0,18,20,25,-2,75,404,68
-6,-5,-10,31,44,39,25,83,318,-145
-59,-39,-41,34,89,73,52,167,153,-258
-75,-21,3,56,137,106,32,90,-117,-354
-54,-16,18,8,41,17,-95,-151,-419,-189
-35,-44,-27,-32,-13,-51,-138,-204,-407,74
-18,-42,-79,-19,-5,-44,-90,-139,-196,220
-19,-42,-50,2,0,-21,-51,-107,-129,223
-33,-67,-31,-27,-34,-43,-16,-29,-32,200
-21,-85,-45,-54,-68,-50,3,20,-3,195
1,-72,-44,-52,-69,-58,-27,-3,-19,165
31,-10,-40,-41,-67,-76,-61,0,38,26
52,38,-10,-2,-24,-21,-7,75,126,-126
64,44,-53,44,30,53,90,219,262,-111
10,54,-4,100,82,137,172,325,354,-188
-74,69,66,150,141,190,211,263,210,-471
-68,51,115,98,99,122,109,46,-115,-385
