274,9,7,-37,-84,-105,-143,-108,-111,169
260,-2,-6,-47,-72,-87,-107,-89,-67,227
139,-24,-32,-54,-46,-50,-73,-33,-1,234
-35,-76,-83,-89,-33,-1,7,66,72,105
-142,-2,16,-75,5,66,94,110,114,-22
-136,163,196,-7,56,108,107,44,86,-76
-9,36,-1,-39,-13,17,22,-40,-55,5
166,-16,-128,-71,-86,-81,-88,-92,-57,205
124,-90,-180,-86,-124,-93,-78,-11,93,338
-98,-165,-154,-78,-88,-23,47,146,207,231
-171,-92,-70,-10,-54,32,68,129,102,-2
-116,42,-5,39,-8,37,45,67,46,-116
-62,280,200,47,104,87,78,38,204,-73
-28,328,334,24,113,105,110,46,285,-20
-85,11,30,29,42,63,76,58,58,-132
-102,-32,-5,40,26,38,53,39,-26,-185
-89,-22,20,50,19,19,34,17,-66,-201
-62,-6,10,70,54,33,24,9,-84,-174
-41,4,-13,80,67,49,15,-3,-97,-133
-1,-6,-10,43,22,27,-42,-35,-93,-75
-1,10,-53,-4,-11,-3,-110,-28,-46,-23
-2,-38,-50,-30,-36,-15,-171,-8,-101,-55
-15,-43,-40,-49,-43,0,-183,-9,-107,-60
-25,-44,-116,-69,-46,80,-142,-10,-78,-64
17,-5,-128,-76,-52,88,-123,-28,-80,-68
51,-3,-39,-54,-17,26,-36,-29,-74,-57
61,33,35,8,33,-7,137,0,-48,-53
78,298,334,111,109,15,229,-11,177,44
79,490,493,138,135,25,197,-5,421,142
29,192,206,74,41,-16,100,15,177,63
-49,-72,-26,21,-19,-16,55,1,-88,-48
-51,-101,-81,-1,-32,0,54,-26,-124,-35
29,-79,-175,-35,-56,-32,2,-53,-106,36
18,-53,-149,-72,-65,-33,-6,-28,-51,9
-7,51,19,-52,-36,-18,23,-46,-59,-101
-42,45,32,-48,-24,-4,30,-19,-18,-71
-22,-53,-72,-37,-14,-15,20,-5,-58,-53
55,-34,-62,-3,-11,-50,-6,-34,-57,-13
24,-55,-42,68,-1,-25,0,2,-4,-16
-34,-66,-3,170,48,30,-23,27,18,-49
-45,-37,1,165,34,56,-58,20,32,-49
28,4,20,124,28,80,-81,-42,-13,4
241,259,206,43,65,79,-100,-124,176,269
385,311,212,-21,26,37,-151,-213,195,457
298,-8,-56,-68,-93,-85,-242,-213,-62,332
110,-55,-91,-91,-86,-128,-91,-59,-53,161
-45,-102,-112,-79,-56,-118,131,87,-27,71
-171,-145,-117,-40,1,-79,135,95,-63,0
-28,12,3,15,55,-80,-61,-38,-166,-99
148,177,120,20,59,-83,-154,-116,-134,6
135,140,113,-30,76,-22,-88,-43,63,183
18,-93,-96,-75,76,98,-35,30,38,90
-160,-137,-121,-66,117,321,47,76,6,-129
-201,-73,-95,-27,142,458,96,30,-91,-305
-103,-31,-7,23,106,324,35,-89,-203,-277
-146,-124,-12,42,50,164,19,-124,-171,-183
-308,-223,-128,-25,43,128,46,-18,-44,-171
-286,-99,-88,-34,114,128,-6,-28,-31,-194
-186,-43,-52,-3,166,38,-124,-89,-100,-197
-74,39,46,49,91,-126,-122,-68,-45,-108
9,121,147,151,13,-209,-21,-91,-43,-45
85,120,100,117,-124,-271,-62,-134,-83,16
210,111,-8,-47,-270,-201,-107,-75,-19,148
143,88,-73,-116,-241,-53,19,33,45,118
-84,115,38,-55,-131,-24,159,88,114,-4
-84,406,302,-5,-25,-75,125,26,304,134
30,311,156,-58,-69,-208,6,-47,273,276
120,-58,-197,-140,-188,-317,-77,20,129,290
113,-94,-192,-104,-148,-217,-52,78,72,165
-51,-33,-63,-23,-66,-90,31,95,3,-38
7,97,44,9,-59,-53,118,33,-56,-73
61,84,21,-2,-61,3,190,-6,-55,56
22,2,-32,-38,-66,39,151,68,117,241
-117,-187,-200,-84,-86,32,152,243,200,142
-102,-126,-163,-44,-65,12,110,234,105,-67
-69,-31,-10,58,-33,-19,-24,60,-35,-153
110,145,206,211,19,-86,-270,-221,-194,-88
562,376,480,369,57,-241,-578,-678,-555,277
614,214,325,239,-27,-342,-658,-700,-359,827
94,-133,-121,-118,-129,-193,-232,-46,394,831
-296,-187,-209,-200,-62,66,179,356,465,154
-259,-89,-152,-107,-16,125,202,277,71,-356
-170,-73,-127,-66,-25,67,91,139,-78,-366
-168,-146,-136,-78,-33,58,25,99,-29,-173
-60,-100,-120,-105,-72,25,-4,142,143,-20
4,-49,-136,-135,-110,59,54,209,230,-45
-100,-38,-106,-89,-52,130,92,162,137,-117
-76,334,217,13,88,138,50,3,250,9
79,584,379,23,114,41,-23,-91,398,219
-103,122,40,-57,49,16,49,147,343,124
-257,-98,-17,56,136,106,97,153,-23,-264
-185,-37,32,128,172,113,19,5,-193,-328
-137,10,56,169,158,87,-35,-71,-246,-310
169,112,148,151,73,15,-103,-191,-304,-121
420,72,25,-29,-39,-32,-103,-109,-121,221
50,-73,-54,-82,-14,47,35,141,152,93
-149,98,151,107,68,98,83,74,-122,-418
46,244,276,172,69,48,-17,-131,-331,-375
-33,38,94,98,63,63,-30,-147,-257,-175
-205,-207,-165,-55,21,102,85,40,-35,-51
-185,-254,-254,-141,-22,107,133,155,25,-45
-270,-218,-217,-137,-24,97,143,196,68,-131
-362,41,85,-59,83,163,207,212,241,-182
-176,147,186,16,90,106,107,70,114,-119
37,4,-15,1,-4,-13,-29,-57,-139,-73
-13,-93,-170,-79,-37,6,27,69,-4,-30
-123,-155,-202,-91,-15,62,64,164,41,-56
-184,-66,-126,25,48,54,-7,55,-100,-255
-92,50,110,146,92,-18,-178,-178,-288,-286
123,300,332,228,142,-98,-336,-415,-302,-8
362,537,480,318,160,-153,-416,-572,-278,221
503,281,212,130,-10,-191,-314,-363,-175,418
149,-106,-169,-209,-118,-16,60,184,284,394
-146,-66,-73,-81,28,143,141,158,21,-189
-86,-13,-12,6,50,45,-26,-45,-122,-151
-76,-80,-37,15,51,-31,-113,-98,-80,87
310,23,-51,-74,-40,-147,-168,-105,7,458
232,-118,-194,-216,-23,-9,-24,44,199,525
-261,-335,-324,-169,73,143,19,75,142,116
-469,-314,-313,-119,129,145,-3,58,78,-178
-289,-150,-120,-72,124,68,-35,18,24,-286
-157,28,110,115,145,-20,-113,-86,-115,-251
-229,62,179,216,113,-55,-151,-105,-60,56
-202,-2,60,73,-37,20,-72,23,204,260
56,116,6,-136,-132,104,154,158,382,232
65,397,282,-53,4,100,357,125,439,141
-58,262,283,87,97,46,245,20,212,33
-86,-70,6,42,32,-17,37,-28,-45,-53
-115,-206,-169,-80,-1,56,124,131,-16,-218
-28,-261,-327,-239,-104,57,183,233,26,-256
-29,-244,-300,-224,-135,26,171,197,8,-250
-106,-196,-130,-71,-49,15,89,82,-44,-256
-2,3,89,91,44,8,-22,-126,-201,-241
214,64,114,123,42,-34,-96,-228,-326,-159
41,-98,0,21,44,83,101,92,7,-138
-257,-220,-49,46,124,224,210,210,95,-259
-85,-76,61,134,135,167,86,6,-148,-203
15,-26,102,148,114,98,21,-67,-229,119
35,-37,61,68,18,19,-18,19,-59,256
187,131,218,100,15,-28,-115,-104,-105,160
191,149,291,213,90,-5,-160,-305,-352,-55
224,-62,63,104,44,-22,-152,-297,-350,40
-58,-361,-221,-77,9,78,63,48,32,61
-375,-483,-302,-108,70,219,264,305,219,-200
-396,-356,-185,1,174,308,221,270,113,-476
-9,-68,11,55,193,264,-25,-35,-155,-401
-38,-31,105,83,195,278,-77,-56,-141,-338
43,231,368,161,236,199,-131,-163,-103,-101
-150,-64,-37,-198,-17,77,37,256,623,450
-252,-433,-402,-354,-196,31,153,443,583,117
16,-337,-352,-254,-194,-33,59,162,6,-184
18,-289,-286,-211,-143,-23,67,136,-7,-112
76,-219,-206,-162,-107,-18,100,184,44,-32
-34,-199,-110,-49,4,74,160,215,10,-204
-95,-80,45,58,109,136,81,108,-120,-310
-43,-14,95,78,107,101,-18,39,-176,-198
-16,-50,54,66,73,51,-73,1,-209,-75
91,-18,101,93,58,-4,-178,-121,-254,75
313,80,164,115,25,-98,-339,-259,-318,286
314,61,124,55,-28,-58,-297,-158,-84,443
215,13,-13,-51,-29,103,-100,55,74,379
-68,-171,-265,-143,25,270,112,298,200,156
-131,99,55,-16,209,369,142,187,86,-251
-136,73,172,68,249,334,79,66,-175,-461
-195,-104,71,151,241,291,53,46,-334,-475
-212,-49,57,194,267,295,57,31,-295,-343
-96,-8,-3,120,195,252,16,39,-195,-267
17,-7,-21,50,123,196,-14,30,-257,-355
53,33,20,74,55,85,-127,-71,-223,-187
174,279,267,67,23,42,-133,-52,33,47
83,222,199,0,34,141,10,49,21,-96
-113,-194,-213,-143,-95,109,83,153,57,-103
-120,-304,-349,-228,-195,-40,-2,82,149,71
-68,-259,-281,-174,-200,-138,-95,-55,82,149
-55,-245,-271,-204,-239,-169,-92,15,228,338
11,-59,-79,-124,-204,-126,-61,67,256,252
350,341,289,117,-71,-130,-170,-201,-172,22
575,526,369,40,-106,-188,-214,-186,48,364
-35,-68,-115,-6,-74,23,119,81,-63,-25
-27,-16,-45,72,-11,38,54,-50,-151,19
-9,131,190,98,16,1,-65,-120,-68,166
73,321,429,146,83,-3,-138,-208,-170,114
145,254,342,230,103,-117,-289,-446,-477,18
182,154,191,166,68,-189,-350,-432,-458,76
59,-64,-117,-51,-8,-98,-109,-33,-124,240
-215,-289,-319,-150,-81,-50,101,282,112,114
-309,-338,-278,-88,-102,-80,61,215,6,-141
-210,-210,-105,-5,-83,-27,49,91,11,-84
98,65,68,-74,-158,-13,115,96,261,499
261,-21,-79,-132,-273,-61,230,104,305,1010
123,-59,-54,-25,-200,-37,285,47,152,755
256,208,191,155,-153,-153,-17,-214,-167,256
445,338,249,190,-185,-212,-294,-438,-336,128
130,-43,-138,-110,-247,-35,-114,-134,106,237
-191,-427,-556,-478,-413,7,123,329,569,45
-131,-261,-367,-434,-360,-96,137,270,360,-258
-66,-36,-80,-180,-208,-241,48,-13,-7,-395
42,43,-9,4,-121,-302,15,-148,-279,-380
-137,-62,-56,35,-28,-169,131,29,-247,-407
-186,-182,-192,-75,-87,-46,258,231,-68,-282
-207,-174,-183,-59,-98,-26,306,274,18,-317
-138,-126,-153,-60,-128,-63,247,217,28,-363
-44,38,-20,-17,-95,-22,214,120,-83,-379
38,335,334,161,68,20,139,-64,-228,-325
108,335,426,349,132,-54,-8,-265,-520,-255
192,371,411,353,133,-61,-29,-295,-502,-70
50,216,233,227,100,-23,56,-127,-322,-82
-165,-49,-18,53,45,48,185,99,-190,-238
-90,-143,-237,-131,-96,4,208,239,42,-8
-34,-192,-305,-184,-159,-54,150,255,153,98
-96,-71,-92,-108,-71,-48,112,137,127,23
-181,-72,-52,-51,-50,-71,54,103,118,-39
-56,-126,-161,-69,-114,-109,7,96,83,66
101,-79,-162,-102,-154,-163,-31,56,132,317
112,57,30,28,-76,-150,-113,-111,-79,251
57,112,124,90,-28,-128,-138,-162,-128,176
35,-17,-64,-68,-78,-67,-5,60,117,253
-35,-32,-62,-51,9,50,125,121,35,6
65,224,203,83,132,87,81,-40,-126,-125
173,192,194,172,96,30,-15,-164,-345,-143
104,295,390,392,195,0,-124,-377,-592,-356
139,305,330,332,163,-55,-191,-413,-516,-174
-178,-182,-201,-44,24,35,110,126,105,133
-130,-302,-411,-258,-116,2,255,349,324,311
4,-161,-282,-181,-75,-6,192,169,104,379
-14,-10,3,-47,15,-1,75,23,57,333
36,-17,7,-49,-27,-45,26,24,155,368
-11,-122,-143,-90,-67,-68,42,73,163,198
20,-78,-119,-75,-59,-123,5,-9,18,-11
23,-80,-119,-72,-27,-106,26,-6,-24,-96
46,76,117,112,121,-29,0,-86,-208,-339
130,241,307,265,187,4,-95,-199,-367,-377
268,182,155,70,16,-80,-89,-107,-105,275
60,-42,-113,-183,-93,-20,144,252,402,733
41,-120,-273,-146,-134,-62,67,137,221,792
38,-31,-51,19,-38,-81,-59,-107,-42,842
77,-61,-130,-23,-48,-78,-70,-48,43,750
233,-62,-210,-145,-174,-169,-133,-57,30,426
147,-82,-119,-129,-128,-130,-65,-15,1,-33
97,-30,-35,-64,-27,-56,3,-8,-98,-492
69,115,146,-34,60,26,90,77,21,-587
0,244,333,49,145,85,127,140,113,-586
-2,69,145,85,94,45,67,77,-103,-501
-116,-12,90,107,93,52,45,49,-116,-497
100,222,302,294,178,12,-195,-320,-519,-578
241,418,462,432,290,-7,-408,-664,-813,-466
-53,-49,-20,0,125,50,-67,4,21,-20
-166,-155,-125,-96,151,149,168,238,94,-210
-23,41,90,36,157,6,5,-102,-309,-481
60,-120,-157,-167,-157,-217,44,105,11,-123
-104,-122,-70,-72,-96,-80,168,133,-29,-56
-55,35,51,57,-24,-39,49,-109,-240,104
45,-39,-115,-136,-191,-171,48,83,95,353
52,-159,-228,-241,-235,-252,90,228,230,273
51,-197,-240,-237,-182,-211,127,211,197,202
57,42,26,-128,-13,-58,163,180,279,233
37,233,234,-4,123,81,181,170,226,108
7,58,95,108,106,77,111,56,-145,-163
160,105,105,125,57,-5,-17,-81,-306,-166
310,197,199,156,25,-56,-155,-251,-401,18
-115,68,225,276,165,96,-115,-263,-370,-141
-408,-60,109,199,136,142,0,-105,-281,-439
101,43,-54,-158,-143,-47,35,124,106,-6
317,160,-33,-253,-163,-115,50,155,276,299
94,-79,-217,-171,-151,-109,13,68,107,248
14,-104,-168,-112,-103,-42,26,65,77,254
-6,-98,-116,-79,-65,-7,50,80,73,233
-5,-74,-100,-49,-46,0,59,92,81,148
26,-13,-23,12,-17,0,39,52,29,70
103,111,65,65,4,-31,-18,-30,-44,0
44,162,182,133,69,-38,-36,-101,-128,-120
-103,75,184,182,112,0,-18,-162,-286,-265
12,100,154,156,58,-59,-64,-198,-299,-110
148,203,242,192,88,-58,-93,-233,-309,23
329,351,315,272,133,-112,-242,-427,-470,158
95,15,-99,31,63,-88,-170,-159,-39,482
-276,-398,-382,-192,37,79,-62,169,299,445
-109,-231,-228,-195,48,147,-170,24,62,154
-31,21,19,-210,104,238,-147,69,174,84
-126,-100,-121,-180,74,201,-150,60,89,-65
-221,-200,-218,-82,23,97,-186,2,-40,-216
-171,-84,-81,83,41,0,-186,-127,-201,-295
58,77,-54,37,-64,-112,-53,-104,-92,-106
104,22,-85,-109,-99,-28,308,47,0,-24
-146,-194,-228,-166,-71,58,491,158,77,-91
-184,-112,-116,-181,-46,36,405,238,296,-13
-73,3,16,-40,63,-20,181,106,133,-10
-2,84,127,171,268,90,54,-54,-187,-117
90,303,400,392,342,168,-72,-257,-448,-231
222,340,330,272,167,85,-176,-287,-315,6
208,115,2,1,6,69,-149,-118,-26,195
-65,-61,-75,13,20,45,-139,-82,-39,-63
-153,-22,-2,29,-56,-64,-131,-14,77,-25
46,71,3,-68,-209,-128,-106,-1,215,248
4,-129,-286,-168,-249,-95,-10,24,209,447
-72,-219,-411,-181,-210,-75,180,160,276,700
152,-20,-196,-117,-217,-191,115,63,138,969
157,40,-4,-51,-185,-272,-10,-35,60,715
160,132,145,58,-87,-221,-95,-176,-147,304
59,85,128,67,0,-34,-58,-140,-98,150
82,263,240,0,94,173,-15,-88,146,208
159,479,451,44,240,259,-27,-154,94,13
-77,109,173,49,231,216,3,-36,41,-327
-244,-16,185,257,253,93,-124,-205,-297,-522
209,175,183,163,-4,-204,-240,-226,-215,-118
-29,-239,-293,-192,-221,-176,47,238,296,-38
-210,-378,-403,-227,-201,-51,152,279,201,-515
17,-72,-132,-89,-125,-67,44,29,-207,-742
-78,-11,-12,-16,-83,-96,33,56,-149,-567
-153,-116,-69,-20,-93,-86,127,129,-52,-404
-98,-55,1,23,-61,-132,97,9,-69,-417
71,54,86,63,-52,-198,-28,-75,-58,-362
170,174,211,112,-45,-198,-70,-35,36,-103
151,169,210,128,13,-138,-55,-50,-13,-43
74,-36,-44,6,-4,-79,-10,-31,-29,-23
-154,-178,-230,-102,9,63,190,187,250,8
-15,-31,-141,10,46,101,170,102,88,-55
183,186,179,207,122,48,7,-221,-277,-121
31,125,171,200,152,66,11,-220,-257,-160
-96,-80,-65,-3,35,71,156,86,101,-71
16,-60,-65,-30,-24,34,119,96,194,-25
205,91,54,15,-56,-52,-41,-84,95,49
-87,-2,36,-6,5,35,53,48,228,29
-34,238,358,79,115,48,-16,-62,202,67
194,258,257,-48,-8,-52,-57,-37,245,256
39,-123,-136,-123,-84,-48,1,61,207,188
-42,-73,-11,89,51,0,-73,-159,-142,-56
41,0,50,100,36,-49,-113,-160,-112,195
-102,-180,-172,-62,-30,20,84,175,276,698
-59,-157,-187,-108,-33,71,135,189,258,753
123,10,-57,-83,-46,-15,33,8,122,508
83,-57,-109,-64,-47,-31,19,13,148,229
85,59,91,75,23,-8,-42,-96,32,-10
43,95,98,88,50,27,-28,-111,-43,-260
-29,-98,-167,-87,-36,6,15,19,130,-247
-66,-134,-169,-89,-21,58,67,55,49,-432
-65,-69,-69,-11,34,95,77,24,-49,-469
-78,45,63,23,98,114,88,36,58,-301
-30,280,302,32,152,122,90,20,234,-113
-11,112,125,22,52,33,18,-36,106,-108
-56,-35,-17,25,15,25,1,-32,-1,-242
-121,-75,-62,34,51,69,32,-35,-49,-398
-45,37,58,155,122,39,-47,-206,-204,-367
-30,77,201,245,159,9,-111,-326,-274,-51
-68,0,64,86,24,-14,-46,-112,64,548
139,314,290,95,64,5,-47,-145,99,523
119,66,36,-56,-48,-37,-36,-66,178,324
-117,-342,-394,-207,-134,12,90,154,290,99
-83,-280,-345,-175,-108,22,61,135,197,-31
-8,-116,-73,-44,-38,6,-34,-29,2,-175
45,-65,-26,-23,-40,-24,-77,-70,-36,-170
27,-53,-29,-7,-31,0,-39,-22,-9,-193
4,-26,-8,-11,9,38,-3,-3,65,-128
-68,-28,7,2,52,44,2,-25,84,-83
-53,-116,-85,-52,-40,-21,-49,-14,91,9
129,22,62,33,-43,-76,-179,-134,4,152
323,302,404,292,67,-124,-314,-394,-288,158
200,194,232,145,14,-68,-161,-150,5,295
-170,-197,-160,-91,0,103,159,281,318,266
-111,-138,-37,22,77,94,61,70,0,252
173,400,431,185,205,66,-91,-211,-77,279
300,603,499,112,187,44,-78,-197,144,208
-87,-12,-82,-119,-22,10,53,89,238,-119
-183,-344,-392,-228,-157,0,97,241,253,-176
-6,-160,-225,-90,-97,-4,2,41,46,-193
-116,-145,-179,-27,-42,23,26,-10,-28,-368
-187,-197,-197,-81,-89,-7,31,36,98,-312
-63,-97,-105,-92,-120,-57,-44,-1,160,-88
42,-3,-59,-48,-81,-61,-49,-10,110,26
88,-37,-130,-32,-87,-73,-41,28,110,118
16,-35,-67,44,-37,-45,-53,16,52,50
-21,67,83,148,53,-4,-73,-87,-111,-112
-18,-54,-3,43,33,55,2,38,-20,-30
-57,-160,-101,-23,33,97,94,132,54,51
0,-59,13,58,61,40,15,15,-11,89
54,238,406,314,187,-10,-158,-293,-324,-99
81,472,717,601,311,-62,-389,-704,-810,-366
64,249,336,249,86,-1,-162,-254,-163,99
-103,-181,-228,-211,-128,189,280,339,361,63
-58,-304,-385,-281,-187,58,172,209,89,-177
-213,-377,-466,-251,-160,-14,102,186,149,-145
-93,-228,-323,-181,-130,-53,57,111,145,-14
73,45,-34,-88,-53,-63,24,25,153,92
96,346,313,-13,104,53,145,64,295,133
24,248,230,-17,118,84,174,97,241,82
-9,-66,-90,-53,1,-3,51,40,37,8
-2,-107,-123,-36,-8,-35,-22,-7,-18,-18
-92,-121,-107,-32,38,23,-31,5,31,-12
-51,-111,-99,-20,87,100,-110,-84,-34,-30
29,-53,-64,8,154,74,-167,-156,-92,-62
-22,-31,-15,-21,221,90,-92,-28,69,-18
-46,-108,-179,-47,184,105,-19,57,145,67
27,-28,-105,64,150,77,117,47,100,31
179,170,188,185,94,28,111,-77,-64,-7
167,203,260,226,66,28,-30,-200,-239,-67
-6,84,197,192,19,-21,-88,-166,-191,-96
22,83,139,51,-121,-84,-80,-32,-18,134
8,72,28,-133,-129,46,112,139,259,534
10,168,104,-175,-6,73,246,150,278,469
-22,-47,-26,-95,-67,-129,107,34,1,360
-104,-201,-104,-70,-111,-172,10,67,98,497
-71,-152,-43,-76,-134,-138,-119,-15,122,703
-37,-213,-154,-186,-164,-34,-144,67,265,1358
-140,-276,-218,-213,-135,14,-89,175,336,1336
-288,-235,-106,-119,-8,86,-19,192,264,655
-445,-36,98,-20,150,195,69,210,273,50
-683,-157,62,107,132,133,43,132,-23,-578
-902,-189,151,261,125,18,6,44,-199,-998
-244,229,477,423,111,-155,-212,-271,-498,-1118
1059,588,426,182,-123,-350,-392,-436,-524,-934
1044,257,-40,-141,-239,-351,-260,-266,-365,-905
395,-96,-337,-253,-205,-176,42,103,-39,-775
118,-112,-337,-151,-65,24,233,241,20,-659
190,-98,-353,-180,-88,19,207,229,30,-421
84,-58,-189,-122,-62,11,162,178,-15,-406
87,42,-82,-46,-49,-19,102,111,-8,-278
195,109,-8,11,-19,1,92,82,-23,-118
121,42,21,40,21,49,156,124,-26,-141
49,9,-19,13,14,32,135,138,32,-116
91,71,9,-22,-11,-9,58,114,82,-15
120,265,250,-32,39,21,59,133,222,64
103,360,361,22,95,45,77,99,206,70
59,130,138,54,48,22,40,15,-1,12
17,-34,-19,27,-10,-8,-6,-13,-90,13
-8,-92,-52,-10,-19,-18,-60,-10,-70,74
-9,-95,-46,8,-14,-19,-109,-51,-100,24
-37,-87,-27,53,18,-8,-152,-121,-184,-81
-109,-2,132,160,110,17,-193,-177,-219,-90
69,161,224,167,71,-20,-219,-204,-260,24
186,96,52,62,-15,-93,-220,-188,-209,206
-34,-201,-318,-136,-86,-58,-34,111,183,263
-66,-223,-298,-127,-67,-35,88,122,72,66
8,-124,-131,-55,-57,-65,74,0,-52,72
62,-65,-38,-28,-61,-71,-27,-52,-34,159
13,-39,8,-26,-45,-42,-11,5,44,159
-86,-53,-23,-70,-2,45,113,155,194,95
-87,-181,-205,-146,-72,27,135,231,309,162
-15,-140,-200,-111,-84,-30,45,88,123,72
-52,-109,-102,-49,-47,7,22,31,58,30
7,-35,-16,-12,-11,60,23,6,56,86
160,78,62,24,24,69,23,8,73,355
160,133,96,87,69,47,16,-4,14,531
58,237,134,73,120,38,63,18,22,493
27,462,406,41,172,42,73,34,218,426
-57,299,344,78,180,41,47,-5,93,124
-123,67,207,213,153,-69,-108,-198,-335,-334
-7,54,96,107,29,-210,-204,-160,-280,-372
-115,-91,-44,29,44,-145,-152,-50,-244,-518
-103,-70,28,126,107,-110,-269,-203,-403,-553
79,107,181,166,76,-98,-379,-261,-343,-320
93,167,195,108,23,-33,-263,-48,-26,-43
-54,-71,-63,0,-45,112,-15,124,111,129
-73,-169,-175,-68,-64,264,209,73,-129,-21
-247,-377,-389,-243,-133,285,334,238,34,-60
-300,-411,-376,-242,-138,171,300,279,66,-187
-155,-238,-194,-137,-109,-8,152,154,-49,-184
-140,-145,-90,-52,-66,-52,71,108,-23,-114
-54,3,59,-62,-57,-31,47,127,137,38
63,177,204,-49,-24,-15,9,75,166,79
104,51,56,0,-55,-62,-78,-67,-10,114
270,198,207,159,15,-127,-250,-345,-257,178
92,28,62,79,-2,-70,-144,-163,-85,146
-178,-251,-177,-68,-14,106,125,133,54,16
-238,-216,-104,-1,83,195,79,0,-78,-75
-114,-3,107,76,127,143,-65,-155,-116,-42
155,194,193,-47,95,43,-92,-109,56,141
-57,-244,-254,-245,-6,10,30,155,284,197
-108,-281,-258,-146,-8,22,97,159,186,60
45,-93,-83,-21,-65,-96,51,73,32,-53
61,-41,-24,15,-104,-112,22,13,-64,-122
-61,-144,-126,-54,-124,-22,53,70,7,-83
-70,-157,-141,-62,-121,-8,54,99,60,27
44,0,27,9,-67,-36,2,33,40,113
130,173,264,200,44,-79,-163,-260,-262,78
36,177,276,273,46,-93,-207,-254,-190,112
66,80,-13,28,-99,-82,-68,43,86,146
48,-195,-339,-295,-277,-135,-33,223,346,301
-17,-321,-417,-328,-233,-71,18,262,346,272
-108,-160,-117,-30,9,87,44,106,32,-31
-70,96,156,178,189,198,64,-2,-181,-198
38,381,382,134,279,255,125,65,35,-103
41,371,337,44,225,203,112,143,193,-43
-6,40,11,-4,79,109,75,72,-27,-47
-149,-109,-91,16,38,47,96,-17,-132,-24
-215,-116,-92,-16,-7,-4,129,10,-4,4
-107,-76,-109,-37,-44,62,106,-26,-38,-22
-118,-90,-120,-33,-8,210,167,-24,-31,-20
-60,5,1,0,39,263,164,-66,-64,-37
45,42,22,44,45,184,49,-133,-85,1
127,73,5,54,19,3,-184,-103,-74,31
62,180,205,209,128,-22,-320,-146,-248,-114
-38,245,303,352,237,12,-247,-268,-400,-210
38,57,-80,74,54,-60,-7,-25,-3,119
-68,-265,-366,-167,-65,-107,262,289,276,208
-40,-166,-286,-115,-80,-194,147,231,201,99
78,115,41,17,-19,-209,-122,18,-3,-74
99,38,46,-15,-58,-100,-215,-12,-61,-44
-19,-77,-39,-58,-51,80,-144,37,-27,-61
-5,-66,-50,-62,-77,43,-138,31,-42,-70
-25,-40,-15,-17,-61,-28,-163,-14,-74,-104
-42,-43,-14,-8,-40,-2,-206,-48,-86,-147
70,23,6,-36,-56,-2,-293,-93,-66,-8
12,101,136,70,31,-8,-246,-215,-187,-13
-81,74,158,91,46,-39,-10,-147,-151,10
-11,78,125,28,2,-79,144,32,14,94
-9,33,48,-12,-6,-117,99,61,13,59
-70,-17,22,18,25,-85,5,2,-5,62
-15,-24,-35,-63,-49,-69,39,125,157,218
-94,-51,-59,-90,-58,-10,133,231,247,327
-11,-27,-49,-62,-57,-30,85,115,151,712
54,-53,-60,-69,-70,-57,52,41,102,788
63,-90,-98,-101,-88,-68,32,49,178,528
61,-101,-129,-96,-79,-54,32,81,198,234
30,-78,-48,-56,-38,-33,59,97,171,106
-51,0,18,-11,0,-10,81,101,176,23
-210,-26,8,13,31,42,138,142,224,-129
-35,2,4,-12,1,20,100,108,168,-248
161,222,168,-28,23,7,33,23,149,-156
206,491,423,12,103,34,-34,-59,152,-6
287,513,410,8,71,-24,-94,-127,48,-107
143,242,187,46,27,-38,-116,-189,-237,-280
3,68,85,101,23,-12,-143,-228,-396,-167
-127,-96,-61,-3,-18,29,-37,-19,-136,78
-88,-100,-107,-68,-55,29,67,115,5,75
25,113,75,20,21,33,46,6,-161,-242
46,434,447,154,173,62,-6,-91,-119,-545
209,365,369,203,131,14,-73,-152,-230,-728
136,3,-32,38,27,38,17,-3,-134,-488
-116,-219,-258,-94,-28,83,128,191,102,-272
-84,-211,-280,-117,-78,29,81,157,61,-214
-38,-157,-202,-83,-75,-12,39,91,54,-117
-39,-138,-141,-55,-63,-34,22,49,64,-28
-47,-46,-5,5,0,-10,13,9,47,38
6,78,175,172,85,-17,-69,-172,-180,46
-11,129,239,255,99,-66,-166,-270,-225,147
-36,48,83,69,-26,-79,-114,-42,105,280
-204,-147,-127,-60,-40,25,72,142,165,62
-181,-194,-207,-87,-45,29,108,95,91,-2
-118,-120,-170,-30,3,67,98,76,87,-75
134,76,-75,-1,29,39,25,-21,51,-112
170,342,144,-45,69,12,12,-1,290,-10
46,309,118,-106,30,-15,44,89,353,0
12,-15,-94,-44,-41,-55,-32,16,71,-56
-21,-105,-108,3,-35,-35,-41,-10,-43,-62
-30,-86,-87,32,5,-11,-23,-42,-91,49
115,-33,-34,44,-19,-85,-110,-140,-126,328
92,-71,-67,22,-13,-43,-25,-59,-103,297
21,-138,-120,-14,3,12,46,-17,-97,190
-80,-162,-114,-16,16,25,42,4,-30,132
-75,-140,-136,-28,1,13,8,47,-19,-32
21,-33,-69,54,30,-1,-74,-55,-181,-132
16,147,189,262,140,-11,-180,-270,-408,-254
130,320,357,331,141,-51,-258,-387,-480,-238
-140,-82,-56,-20,0,32,19,114,56,-115
-179,-369,-393,-259,-92,-4,97,326,289,-10
-145,-321,-300,-162,-20,-67,-31,156,133,-67
-173,-234,-215,-96,15,-63,-97,53,88,-89
-100,-169,-176,-85,-15,-14,-87,22,139,34
-31,-115,-127,-84,-25,67,-27,0,133,77
-48,-110,-94,-58,16,234,93,-12,92,81
11,-58,-61,-41,56,277,220,-37,35,107
-10,-48,-69,-29,100,214,222,2,30,25
0,63,60,-39,168,161,59,54,0,-13
25,306,354,34,190,65,15,64,198,60
101,282,315,118,50,-150,0,-23,86,-61
123,95,123,116,-54,-196,16,-92,-167,-167
-29,16,95,128,-27,-67,47,-73,-157,-173
10,46,90,95,-70,-59,36,-15,-70,-88
21,-53,-51,-38,-154,-79,80,160,224,147
176,15,-34,-27,-111,-104,1,46,121,152
128,37,9,5,-26,-86,-37,27,95,108
-113,-153,-117,-35,-11,17,6,151,152,50
-24,-129,-101,-41,-53,27,-97,41,62,59
131,-65,-101,-67,-96,-11,-227,-99,-34,112
29,-106,-131,-51,-72,-10,-224,-129,-53,83
-22,-75,-131,25,-24,6,-105,-190,-136,0
-12,-45,-115,-5,-68,-25,99,-76,-71,-26
-27,167,177,10,30,36,291,78,67,-83
-91,248,327,100,153,121,370,11,0,-104
-152,-56,101,117,75,37,257,-100,-192,-118
-143,-164,-70,-18,-24,-13,240,91,47,14
-65,-228,-223,-179,-99,-11,256,232,217,107
15,-150,-146,-107,-47,-13,63,165,65,-10
-11,-111,-57,-28,1,-44,-123,111,32,-36
5,36,45,10,44,-38,-97,69,103,13
31,222,191,45,82,-15,-34,40,139,12
42,19,32,46,-17,-39,-87,-13,-32,-35
58,-9,-9,24,-61,-5,-107,-37,-55,7
47,-35,-43,-8,-98,-13,-43,17,46,63
6,-55,-40,-19,-87,-41,-16,34,63,41
1,-51,-7,-8,-52,-17,-12,3,42,42
58,38,60,18,-29,-11,-52,-73,-1,106
70,221,187,21,57,-2,-52,-74,140,173
-4,80,83,46,55,2,-48,-66,56,118
-50,-75,2,54,9,-32,-75,-84,-30,133
-65,3,105,103,39,-11,-54,-72,-31,58
110,180,197,133,37,-55,-88,-159,-160,-29
47,62,-2,34,7,-46,-39,-64,-77,-118
-162,-224,-243,-142,-42,13,86,151,147,-127
-65,-201,-209,-126,-55,2,29,74,52,-132
16,-94,-80,-43,-42,-5,-14,19,2,-89
6,-6,44,36,2,3,-53,-51,-107,-150
86,94,134,111,45,-47,-156,-223,-288,-100
129,28,-35,9,-16,-74,-128,-107,-72,142
-62,-146,-240,-105,-70,-10,8,138,197,136
-45,-92,-125,-64,-55,-3,-6,87,129,59
83,16,-9,-26,-35,-42,-45,-10,32,106
69,233,228,17,78,42,14,-12,93,114
4,379,433,80,166,121,56,-13,159,75
-85,133,197,38,85,79,58,19,63,-33
-58,6,47,47,26,-3,-32,-61,-87,-43
-96,3,45,104,62,8,-72,-126,-118,-26
-93,-68,-71,16,12,33,-1,-7,23,85
50,-100,-123,-104,-64,0,19,66,159,252
224,55,-7,-73,-55,-45,-76,-53,60,224
144,69,18,-45,-18,0,3,-15,75,292
-2,-50,-44,-17,23,66,80,6,24,542
-36,-55,-23,20,32,25,3,-55,-19,515
12,-94,-104,-77,-69,-63,-90,-25,56,440
-52,-153,-187,-164,-118,-70,-42,105,167,311
-53,-130,-168,-140,-91,-45,-42,109,181,162
26,-36,-71,-70,-52,16,-47,75,123,81
41,267,264,13,96,156,39,36,117,-186
40,477,440,48,183,197,124,27,136,-496
17,246,269,117,150,123,177,-41,-118,-680
-17,13,59,99,73,61,209,-10,-217,-687
-158,-99,-21,54,72,102,214,98,-156,-666
-107,-45,27,106,64,50,29,-49,-255,-538
195,78,-44,54,-50,-103,-146,-173,-237,-138
-38,-51,-139,-31,-49,-27,-36,26,47,41
-193,-165,-161,-101,-41,45,75,157,147,-99
-46,-152,-188,-60,-63,-8,-2,33,-108,-218
-117,-141,-94,-6,-27,5,-34,20,-114,-246
-72,-86,-18,-11,-69,-14,-38,39,0,-109
-6,-63,-33,-43,-102,-70,-75,4,73,47
-24,-46,-17,-3,-44,-62,-89,-47,-19,-6
-101,6,71,92,45,-23,-96,-137,-119,-78
-4,154,115,4,50,30,14,-4,112,63
27,73,70,40,41,81,79,22,-62,-40
-40,46,153,192,90,81,20,-85,-300,-219
-15,62,118,135,41,22,-14,-73,-196,-115
-120,-61,-25,40,20,38,14,11,-60,-60
-90,-132,-227,-66,-63,-2,29,102,113,54
-55,-118,-152,-59,-80,-31,19,79,89,68
-131,-179,-144,-75,-61,16,93,144,116,36
9,-164,-162,-93,-60,16,93,125,110,9
118,-95,-127,-78,-64,-6,52,61,51,-24
103,-58,-83,-27,-64,-24,36,43,67,16
114,-22,-52,-22,-86,-73,-4,35,99,103
76,-12,-58,-23,-88,-96,-29,-13,42,71
-14,-84,-104,-50,-64,-71,-22,-36,-2,-39
-83,-84,-42,-1,6,-45,-50,-75,-27,-40
-10,212,297,101,123,-21,-100,-133,19,115
207,406,433,135,129,-48,-128,-131,49,509
258,179,129,42,12,-109,-121,-89,53,675
-15,-102,-112,-87,-44,0,33,130,201,414
16,-134,-152,-111,-85,66,55,124,129,239
36,-60,-88,-46,-65,64,-7,7,67,149
98,-13,-33,-10,-49,-12,-104,-98,-36,1
91,66,39,-25,-14,3,-39,9,63,-43
-74,252,267,-22,107,141,142,206,367,-110
23,291,297,46,93,115,100,84,170,-222
91,37,18,5,-47,-4,30,-7,-66,-221
49,-35,-52,10,-65,-40,4,-3,-95,-175
-21,-79,-49,23,-7,6,-5,-43,-176,-128
-132,-139,-66,25,63,124,2,-66,-186,-74
-159,-132,-65,32,94,102,-35,-90,-174,-104
5,110,136,180,195,8,-174,-280,-282,-107
164,146,154,160,108,-127,-206,-255,-252,-42
80,-14,-26,9,-36,-133,26,20,-98,-140
-76,-171,-169,-104,-136,-139,203,247,114,-162
-115,-215,-206,-119,-149,-63,249,259,167,-115
-144,-144,-112,-38,-101,16,221,162,86,-109
-1,-1,-7,2,-136,-23,126,113,87,61
85,65,17,-21,-123,-5,67,120,153,174
58,24,-28,-38,-81,67,18,93,144,182
38,-64,-86,-31,-88,64,-72,39,59,131
-18,-79,-79,-46,-81,48,-113,27,52,69
-59,-82,-82,-48,-85,22,-142,31,89,45
-75,-69,-64,-22,-67,39,-136,17,74,-12
-37,-21,-20,6,-36,64,-70,-39,6,-70
6,34,22,-8,-6,46,42,-90,-48,-53
26,313,242,-9,105,62,235,-71,85,-66
144,539,446,55,160,37,269,-96,148,33
96,228,212,100,110,10,118,-118,-43,133
-232,-215,-160,0,43,40,72,76,21,50
-94,-145,-130,-27,0,-18,-117,117,-64,-110
111,0,-25,20,-25,-151,-379,16,-151,-80
27,-52,-47,5,-41,-121,-300,0,-99,-44
-12,-57,-15,21,-18,-21,-183,-46,-127,-89
29,-23,-6,29,-38,-6,-116,-35,-85,-20
33,-37,-54,29,-45,-48,36,5,-38,53
46,2,0,62,-26,-39,163,-24,-52,58
67,36,45,63,-16,-22,143,-39,-43,101
19,-76,-97,-22,-39,-4,164,100,102,167
3,-125,-177,-53,-58,-30,136,107,140,232
70,-23,-166,-12,-49,-67,28,4,75,274
66,129,34,1,3,-22,18,21,131,185
24,31,41,0,-10,-23,-2,-5,-35,-53
52,-29,-42,-46,-55,-53,-28,-15,-61,-85
35,6,5,15,0,-12,-36,-96,-192,-184
-124,16,104,118,87,39,10,-110,-215,-266
-51,79,163,160,77,4,-17,-134,-209,-163
196,111,5,10,-46,-58,-38,-90,-46,214
149,80,-23,-106,-32,5,76,41,190,320
22,191,167,-77,77,79,99,41,287,164
-57,-35,-34,-51,-4,17,33,0,128,65
-11,-92,-77,-27,-33,1,-4,-4,48,1
106,-7,-52,-5,-14,0,-43,-23,16,7
49,-13,-50,19,30,12,-48,-46,-41,12
-2,-62,-112,-24,-11,-9,-45,0,38,96
-21,-81,-123,-95,-48,-1,1,102,198,160
-46,-22,-98,-87,-26,16,18,115,219,74
-77,-73,-76,-64,-29,25,18,79,70,-66
-78,-73,-53,-46,-8,11,29,43,-9,-82
-28,-22,-87,-18,2,-16,-4,-14,-13,-87
81,112,51,56,21,-57,-67,-121,-52,-57
9,51,92,51,33,-11,-18,-99,-75,-92
-151,-82,13,-6,27,59,72,38,-17,-105
-136,102,204,56,115,94,66,-6,7,-28
15,455,468,64,165,60,20,-66,143,134
127,328,271,-8,43,-28,-26,-27,63,158
90,46,-22,23,-21,-55,-99,-117,-248,50
62,-49,-50,-14,-52,-48,-121,-78,-161,179
-44,-162,-82,-22,3,20,-31,42,-37,177
-72,-166,-75,12,79,37,-34,13,-87,0
-47,-143,-85,-33,21,24,-13,36,-94,-219
-135,-33,22,27,82,87,15,-18,-179,-511
-227,-98,0,61,90,104,40,18,-158,-506
-200,-166,-158,-44,19,61,80,155,81,-233
-1,-95,-149,-84,-46,-20,6,68,18,-145
41,-49,-39,-56,-40,-41,-39,-19,-100,-151
-32,-62,-2,-4,-6,-39,-45,-24,-77,-124
-24,25,59,95,58,-13,-79,-105,-175,-150
24,70,52,57,49,5,-54,-69,-63,-16
41,-52,-64,-70,-34,-18,9,72,171,134
88,-101,-166,-111,-87,-53,18,59,133,110
75,-43,-50,-40,-39,-37,12,-1,78,67
102,52,71,46,6,-51,-63,-138,-58,19
96,77,72,66,25,-41,-48,-146,-122,-1
-38,-65,-152,-38,-17,-1,74,90,39,-14
-97,-61,-107,-5,27,58,102,128,49,-69
-2,183,149,52,100,61,39,47,118,3
96,400,385,136,160,38,-64,-86,105,5
95,215,120,34,50,9,-31,-10,109,31
-52,-113,-114,-46,-38,11,17,73,70,1
-50,-115,-81,-26,-38,2,-8,34,6,-2
9,-67,-43,-16,-33,-12,-13,1,-2,101
-173,-188,-118,-24,-18,39,65,118,148,146
70,62,86,58,-12,-10,-28,-40,-27,5
364,223,158,57,-67,-112,-185,-194,-183,98
53,-76,-80,-32,-63,-48,-61,0,11,109
-155,-228,-170,-63,-31,21,18,88,8,-48
-91,-182,-117,-53,-41,-2,-14,63,-31,-37
43,-58,-7,7,-23,-36,-43,-6,-96,-15
133,16,25,11,-34,-65,-51,-31,-66,75
53,15,22,-7,-17,-22,-18,16,15,138
9,138,89,-3,63,37,24,39,138,146
11,-16,-108,-16,-5,-23,-9,19,73,125
37,-44,-60,-17,-65,-61,-35,-27,-5,69
11,-37,-32,-7,-40,-13,8,-23,-101,10
-78,-73,-57,-7,5,14,28,-2,-82,-61
-22,-42,-28,-13,-3,-20,-17,7,-24,-67
11,-14,-4,-1,24,0,28,51,44,-36
12,200,184,47,129,50,46,61,144,19
48,414,337,81,197,72,35,34,200,14
-9,82,68,62,91,38,19,7,11,-80
-53,35,61,150,97,24,3,-109,-187,-201
-87,38,112,164,94,-1,12,-139,-210,-211
-83,-30,-5,48,8,-1,97,24,22,-35
44,29,-21,23,-24,14,65,-9,33,85
-10,-25,-19,-35,-50,31,61,4,105,119
-14,-98,-187,-181,-151,-17,86,140,362,242
81,-129,-293,-184,-197,-102,-42,53,194,200
-16,-139,-175,-116,-127,-64,-46,36,96,35
-52,-97,-42,-40,-35,28,2,48,-13,-99
-10,-42,13,6,-5,48,-7,5,-104,-119
-3,-41,-9,9,-12,13,-13,0,-99,-104
49,23,-53,21,-20,-58,-73,-55,-93,-9
138,117,0,83,-1,-107,-130,-146,-113,133
-15,-47,-37,23,-2,-32,-12,-18,-47,86
-128,-145,-52,-6,13,28,46,45,-41,55
-72,-123,-31,-5,16,8,-8,-4,12,193
-54,-86,-13,-4,11,4,-28,-48,40,162
68,58,131,87,22,-27,-119,-206,-151,29
61,38,104,71,-3,-44,-111,-151,-136,-26
25,-83,-60,-83,-88,-52,-5,62,93,3
63,-108,-145,-135,-123,-65,0,110,127,-14
45,-95,-159,-115,-98,-53,-15,83,113,-41
15,-52,-53,-63,-56,-25,22,108,107,-78
7,9,50,21,3,36,32,72,24,-113
-26,1,53,41,33,59,43,12,-59,-163
-87,-47,19,20,26,52,68,-2,-48,-182
25,-10,14,-7,-14,-9,21,-72,-30,-45
137,187,145,-40,13,-10,26,-70,89,151
25,373,375,20,133,105,106,19,272,151
72,244,271,65,112,63,58,-32,122,37
92,62,91,108,61,12,9,-124,-121,-111
-31,-8,36,94,58,38,55,-57,-74,-179
-63,-74,-30,34,16,15,63,68,62,-129
59,44,91,113,28,-36,-78,-66,-54,-132
222,198,151,70,-9,-82,-143,-113,19,105
-57,275,244,-5,115,111,104,112,308,37
-104,238,227,-25,132,138,154,133,251,-123
23,4,-2,-29,2,11,35,30,-14,-35
-17,-133,-177,-34,-32,-32,-1,7,-49,11
25,-109,-172,-33,-37,-59,-41,-18,-4,78
90,-81,-113,-47,-46,-48,-39,-30,41,187
125,-44,-64,-41,-46,-30,-63,-14,70,245
81,15,-8,-45,-19,-10,-36,61,117,215
-8,-94,-86,-78,-25,3,16,96,77,558
-32,-137,-120,-52,-29,18,31,71,-1,856
-39,-129,-99,-12,-23,10,-3,15,-57,629
-71,-137,-73,17,-17,-19,-86,-104,-187,278
-204,-194,-125,0,-10,12,-44,-41,-69,173
-32,-119,-104,-33,-46,-24,-48,-17,-29,113
105,79,82,42,16,-30,-45,-95,-123,-92
10,266,310,135,141,57,5,-121,-124,-505
-66,75,133,100,66,32,-6,-50,-159,-800
-172,-74,-26,19,13,50,51,98,-29,-876
-134,-94,-69,10,29,80,74,84,-86,-820
-30,-52,-89,10,2,54,26,9,-134,-619
-129,-75,-105,44,44,87,36,-16,-149,-553
-224,-96,-102,44,45,67,32,-19,-112,-432
-196,-126,-117,-41,-18,11,51,79,95,-166
21,7,11,0,-36,-41,-51,-51,-71,-167
84,74,75,40,-22,-49,-122,-145,-185,-159
34,35,7,0,-39,-39,-104,-81,-81,-59
-91,-72,-66,-33,-40,-12,-70,10,55,-44
-78,-86,-70,-48,-58,-49,-128,-13,74,-18
-8,-37,-47,-59,-65,5,-77,42,123,36
61,13,-24,-46,-58,55,-13,18,81,67
36,-1,-29,-57,-47,-1,4,-17,107,157
32,-1,0,-21,-15,-25,140,3,138,263
85,-3,-28,-74,-46,-22,234,117,270,635
112,5,-16,-58,-38,-26,139,85,227,636
111,23,17,-21,-26,-52,-8,-20,86,394
154,43,38,-15,-50,-103,-99,-100,-11,274
157,58,39,-38,-67,-120,-151,-105,19,346
115,202,176,-26,31,-35,-49,-8,184,468
-26,310,208,-46,141,123,130,124,259,287
51,379,229,-17,122,70,48,13,88,149
27,298,217,39,108,38,30,-5,3,-156
-202,-98,-69,-3,35,40,92,113,7,-432
-220,-192,-135,-59,-24,12,75,163,79,-472
78,-74,-144,-89,-91,-69,-16,39,25,-210
211,57,-65,4,-12,-31,-60,-101,-113,-136
62,119,69,65,127,113,53,19,40,-147
-19,-57,-31,86,91,127,75,55,-70,-252
-6,-47,-1,74,43,52,20,-14,-126,-214
31,-78,-31,15,-4,14,10,0,-110,-183
73,-34,2,44,7,0,-31,-80,-168,-168
108,39,78,98,18,-34,-107,-181,-189,-112
-15,-53,-12,40,-10,-17,-30,-60,-87,-98
-179,-122,-53,-20,8,66,114,85,61,-128
-190,-107,-8,56,39,63,53,3,-32,-178
-34,36,96,147,32,-12,-69,-142,-159,-151
75,135,197,204,65,-27,-132,-261,-322,-175
63,70,156,174,70,-42,-175,-315,-334,-35
-71,-244,-236,-175,-133,-54,-9,122,294,316
-91,-277,-304,-238,-140,35,136,230,237,5
-3,-16,-33,-81,-28,31,93,48,39,-123
62,341,250,-39,96,95,146,99,290,41
1,301,244,-4,134,125,149,123,289,21
-43,-54,-38,-1,24,59,82,80,45,-39
-24,-152,-106,-13,-16,8,27,38,-35,-34
16,-140,-96,-21,-33,-14,-41,25,-27,7
46,-121,-69,-10,-36,-21,-88,-11,-83,39
22,-109,-80,-14,-41,-17,-95,-30,-70,61
31,-19,-80,-34,-36,1,-49,21,61,110
59,-23,-150,-21,-39,-12,-44,8,15,87
21,-89,-148,-9,-46,-24,-39,0,-38,63
-52,-119,-65,13,-2,-9,-20,4,-64,23
-88,-122,-48,24,3,-17,-29,-12,-15,75
15,-67,-17,15,-17,-53,-86,-89,-43,192
27,-61,-58,-19,-42,-65,-83,-38,-4,221
136,55,-1,-31,-66,-119,-100,-33,-5,138
174,134,134,-1,-12,-74,-84,-79,-35,136
-38,-120,-98,-44,-35,-17,5,42,41,91
-106,-132,-107,-29,-23,14,57,114,24,-145
-109,-54,-73,64,46,33,29,22,-135,-267
-89,-48,-50,60,22,1,-1,-15,-70,-133
26,-10,1,-1,-52,-76,-48,-35,18,33
6,-5,5,-27,-67,-81,-55,-32,55,75
-7,190,216,9,18,-70,-26,-41,162,56
-14,205,217,-25,31,-23,32,40,274,98
54,-24,-29,-38,-24,-18,-24,21,66,85
124,24,9,47,25,-1,-127,-91,-86,93
75,9,3,28,23,8,-150,-58,31,232
-60,-87,-70,-13,16,84,-79,36,48,142
-92,-113,-101,-10,17,129,-38,38,-36,-2
-12,-23,-45,-8,8,75,-94,-71,-107,25
45,67,-14,13,-17,2,-89,-110,-82,45
61,23,27,35,-16,-40,12,-120,-160,-21
-32,5,71,83,37,-31,84,-101,-198,-105
-55,4,31,52,30,-41,120,-20,-80,-111
-49,-87,-103,-86,-69,-46,210,138,73,-64
-148,-156,-103,-64,-32,6,186,170,43,-135
-176,-127,-67,-53,-15,7,99,138,62,-102
-58,173,134,-50,21,-5,49,70,200,78
92,327,244,-9,26,-28,-32,-61,154,212
148,96,48,12,-44,-72,-44,-107,-48,213
38,-8,-11,15,-21,-48,17,-62,-81,120
-67,-63,-30,16,5,-24,45,-37,-61,157
-136,-164,-140,-64,-39,-16,83,92,134,621
-35,-152,-155,-107,-86,0,119,166,175,581
138,107,51,-27,-35,-22,-5,-7,-14,115
132,234,185,8,12,-6,-25,-51,3,-170
54,-2,0,-27,-42,-18,-5,1,-23,-223
91,-2,-22,-48,-53,-47,7,-1,14,-147
42,47,35,20,-9,-38,-1,-87,-74,-333
47,39,27,29,-10,-38,-27,-93,-144,-452
-82,-98,-64,-38,-15,-15,0,36,-9,-382
-70,-98,-79,-55,-14,-12,-9,61,102,-234
-29,1,-17,-45,20,14,-11,68,165,-195
-118,-112,-71,-44,19,66,14,111,169,-152
-6,-72,-43,-14,6,73,-32,13,89,201
115,5,7,25,-9,31,-135,-110,3,504
97,-26,-50,-36,-65,-35,-98,-67,15,394
133,-11,-85,-35,-58,-27,88,-45,-112,110
70,-23,-31,16,5,32,183,-21,-150,85
85,53,103,28,47,54,130,3,-69,281
83,269,360,60,121,72,67,19,27,160
-72,206,314,98,155,74,50,-16,-97,-355
-92,-14,-23,58,62,11,11,-28,-219,-562
-45,-54,-43,35,11,-9,7,-11,-146,-413
-19,-35,19,60,42,3,22,-4,-92,-290
-29,-51,-21,35,36,0,22,17,-19,-174
-49,-47,-66,37,44,0,-21,-40,-48,-154
24,57,36,55,68,-1,-54,-70,-57,-96
-1,6,50,58,60,18,-41,-36,-82,-49
-116,-35,17,77,69,49,-17,-6,-89,51
-100,-8,3,63,62,36,-39,0,-54,180
-18,2,-78,2,3,-4,-71,-6,-18,127
-11,-30,-157,-18,1,0,-44,-13,-49,-27
-16,-78,-96,-50,-33,-15,-40,15,24,32
10,-35,-21,-70,-30,-18,-33,27,97,106
38,0,-5,-58,-22,-28,-55,8,154,94
-35,-70,-94,-6,6,-15,-38,1,125,117
-134,-116,-125,9,29,11,-10,37,186,289
82,-12,-66,-22,-33,-73,-106,-45,124,244
79,24,-7,0,-15,-63,-102,-43,31,67
25,14,23,0,-16,-59,-94,-8,-12,-38
43,46,32,-13,-30,-78,-118,-45,-35,-35
53,284,255,13,68,-12,-46,-11,108,-72
124,557,516,123,194,38,-53,-136,10,-199
-72,126,166,47,89,95,58,14,-134,-364
-124,-202,-158,-106,-70,75,145,229,-37,-276
-59,-123,-110,-55,-59,58,105,137,-132,-300
0,-42,-23,11,-41,27,40,8,-187,-210
-41,-88,-23,-2,-42,32,48,29,-75,-39
-61,-41,25,15,6,56,59,38,-37,24
0,11,43,15,12,36,10,27,-23,35
30,-66,-56,-3,-36,25,-13,20,-59,15
16,-76,-98,-9,-31,37,-9,5,-94,-46
-94,-82,-45,0,-3,60,14,37,-67,-71
-146,-54,-3,52,27,57,-5,-5,-123,-113
-57,-51,1,32,-6,6,-48,-37,-105,0
39,-12,8,-6,-18,-18,-75,-59,-82,51
42,288,215,48,107,16,-82,-110,69,86
129,323,121,15,63,-15,-99,-96,98,173
19,-36,-122,-40,-41,-30,-10,12,-5,115
-6,-74,-82,-19,-45,-35,-4,-10,-63,72
26,-12,25,36,-12,-28,-55,-72,-144,33
-33,-11,3,52,18,0,-38,-43,-92,86
-74,-92,-160,-61,-44,-16,38,93,160,252
13,-24,-82,-116,-58,-32,31,67,207,311
6,-8,-17,-144,-67,-48,8,68,274,356
29,-101,-123,-115,-95,-94,-50,0,181,357
63,-86,-171,-67,-65,-85,-55,-19,171,393
30,-56,-78,-2,0,5,50,38,121,192
47,17,64,46,11,9,55,-18,-18,-31
36,50,59,35,-12,-8,31,-38,-83,-102
-80,-7,26,28,19,36,54,34,-13,-118
-64,18,68,9,23,38,45,65,58,-132
-88,1,46,44,50,52,32,-2,-84,-240
-108,-13,27,61,68,67,34,-13,-118,-244
-41,-17,21,33,43,50,39,2,-107,-201
-19,-11,23,31,25,21,6,-66,-159,-181
-22,-63,-34,-47,-60,-44,-37,-73,-7,-24
-5,-76,-56,-93,-97,-17,-61,-94,53,62
17,47,21,-108,-38,116,14,-75,82,76
7,289,256,-77,71,226,77,-64,164,49
-41,187,188,-44,68,200,92,-47,64,-27
30,-18,-27,-18,-12,84,10,-74,-105,-11
-4,-100,-121,-32,-10,3,23,-33,-78,-2
-89,-117,-79,32,65,-8,69,53,-77,-118
-39,-53,26,74,101,-54,74,111,-22,-138
-14,1,58,86,95,-96,66,103,-18,-120
15,84,111,79,92,-126,-21,63,-7,-62
57,51,73,79,41,-165,-64,8,-62,-32
13,32,54,108,11,-158,-38,-26,-88,-42
-15,20,-53,101,-17,-155,-48,-40,-69,18
2,4,-55,63,-45,-158,-84,-77,-119,8
10,4,63,81,-33,-124,-102,-130,-150,-18
-42,-105,-82,-66,-87,8,50,77,52,18
-71,-88,-117,-152,-90,56,134,170,185,37
-16,-39,-43,-75,-56,-16,40,75,99,62
-2,-66,-49,-38,-51,-45,-13,46,59,69
-37,-64,-57,-20,-18,-33,-24,12,19,37
-17,-40,-31,0,-5,-26,-30,-22,-6,78
72,-37,-67,-59,-60,-51,-25,38,82,138
67,-9,2,-5,-23,-13,-36,17,37,110
57,59,81,46,11,16,-35,12,90,245
85,316,247,-38,59,43,28,113,443,387
166,469,337,-50,87,23,-9,28,415,289
43,108,76,-53,-21,-17,-50,18,220,139
105,-24,-36,-47,-118,-88,-97,-5,95,98
22,-79,-50,-45,-95,-30,-38,29,24,-29
-34,-91,-33,2,-38,56,6,4,-95,-206
39,-27,-24,3,-41,31,-24,-22,-103,-175
-45,-51,-49,18,51,107,34,54,-69,-258
-25,-8,-3,111,171,113,-24,-88,-283,-359
71,-18,-23,63,101,6,-93,-142,-247,-122
89,-37,-26,8,31,-36,-60,-64,-121,39
71,-13,-23,-19,8,-22,-2,-7,-65,34
33,18,30,7,14,-19,50,-32,-115,-18
-96,-92,-37,-13,-2,5,116,76,-32,-37
-129,-53,-48,29,33,33,93,85,-32,-104
-36,266,285,122,135,52,-7,-45,10,-52
-55,95,140,0,32,9,0,55,144,92
-30,-169,-179,-114,-111,-42,-9,96,59,176
-4,-158,-196,-111,-105,-38,-18,82,73,603
3,-120,-156,-79,-85,-36,-11,74,115,847
57,-64,-91,-60,-90,-66,-42,21,113,673
89,-43,-83,-52,-93,-77,-44,-10,145,449
74,103,46,-20,-21,-39,-24,-6,192,299
37,147,106,14,14,-19,-18,-13,119,37
3,-4,15,34,2,-40,-46,-76,-94,-107
-5,-36,-24,41,7,-58,-56,-130,-164,-217
-67,-112,-138,-60,-52,-68,16,26,-24,-284
-156,-121,-99,-32,-20,0,80,80,-55,-427
-152,-90,-18,40,15,20,65,58,-48,-422
-41,10,40,58,1,8,21,8,-44,-356
62,145,118,59,8,5,-13,-66,-118,-420
40,47,33,73,40,51,12,-21,-156,-541
-24,7,39,102,105,108,54,-12,-172,-519
-112,-25,-17,77,95,91,65,-29,-121,-303
-37,-51,-134,-38,-26,47,69,63,62,-61
24,-18,-94,-31,-45,15,-2,1,-26,-97
11,-13,-26,-14,-37,-19,-47,-50,-92,-204
-24,153,165,10,20,-27,-48,-28,62,-207
90,500,438,50,120,21,-51,-38,249,-62
178,402,340,68,79,-16,-136,-138,79,140
-17,-38,-27,-34,-43,-26,-62,-25,5,243
-30,-125,-133,-88,-92,-27,-17,58,99,234
-52,-180,-157,-81,-76,3,-2,75,117,100
-64,-157,-125,-20,-33,24,-6,45,25,-12
-31,-100,-88,-22,-8,20,3,41,9,35
8,-28,-40,-27,-5,16,9,33,11,125
52,-88,-64,-9,-28,13,7,21,-64,78
14,-74,-28,48,19,34,-5,-44,-141,-45
-100,-79,-22,61,35,46,11,-46,-153,-170
-52,-74,-45,17,-19,-4,-8,0,-63,-82
24,-22,-72,54,5,-13,-56,-49,-139,-78
-41,-59,-43,61,18,-39,-65,-60,-62,-26
52,-21,-17,-40,-50,-91,-48,-13,107,172
169,28,-16,-76,-73,-44,-5,-21,13,180
112,-48,-91,-81,-78,-5,37,18,12,127
15,-70,-52,-35,-27,35,76,47,19,-26
-89,-58,-2,37,39,66,94,47,-31,-147
-102,-66,-76,16,10,46,97,59,-2,-96
-88,-64,-55,-7,-15,25,83,53,0,-88
-69,-16,12,-7,0,10,46,18,1,-93
-8,218,267,23,76,36,39,12,140,11
-72,245,291,36,100,78,37,63,253,106
36,155,206,116,63,4,-109,-115,-70,27
47,135,187,192,74,-41,-212,-267,-275,-70
-178,-100,-69,32,12,-4,-87,-17,-15,-100
-116,-197,-198,-124,-88,-32,-15,115,130,-37
22,-109,-128,-106,-102,-52,-78,-18,17,-15
70,-10,-50,-74,-85,5,-73,-26,56,22
-15,-56,-162,-66,-65,56,55,66,92,-16
-44,-77,-132,-20,-32,36,175,53,21,-86
20,-57,-35,0,-25,-20,226,27,76,5
102,-26,5,13,-26,-43,143,-11,58,102
84,-37,5,25,-21,-33,106,41,48,106
59,-38,-16,19,-18,-28,79,80,51,91
96,46,45,19,-1,-22,10,41,78,165
89,288,261,2,78,22,10,48,246,222
-44,122,121,21,74,41,8,23,68,34
-75,-81,-124,24,24,-5,-9,-12,-125,-96
-14,-60,-39,33,3,-50,-44,-31,-141,-94
50,-40,19,37,-22,-42,-52,-36,-134,-60
118,3,49,69,-8,-24,-60,-75,-171,-8
65,-16,31,61,10,-13,-56,-74,-143,16
-113,50,110,52,83,58,15,6,37,-3
-154,14,65,40,66,48,22,25,38,-93
-3,-72,-64,-30,-57,-30,-32,39,-35,6
24,-69,-59,-48,-76,-38,-12,28,-16,87
6,-81,-50,-13,-43,-23,8,-13,-62,62
25,-57,-13,29,-12,-25,-17,-20,-77,2
80,-1,23,54,-13,-39,-69,-72,-98,-6
-3,7,41,49,19,-11,-57,-80,-106,-57
-19,6,44,1,17,-3,-29,-52,-7,-6
-36,-73,-7,16,0,-25,-46,-93,-75,-20
-59,-65,19,43,-14,-50,-78,-116,-59,25
118,34,58,14,-65,-99,-85,-93,-2,142
77,21,49,17,-31,-48,-3,-25,-55,29
-115,-98,-30,8,29,47,94,44,-66,-111
-94,-122,-66,-5,26,32,87,77,25,-33
1,60,98,-42,27,17,116,135,231,153
-32,235,302,-4,90,103,154,120,302,130
52,199,197,81,102,98,37,-81,45,1
0,-22,-141,27,59,111,68,-1,67,35
-77,-149,-285,-62,-8,143,135,113,115,-4
-11,-135,-225,-63,-61,86,51,53,71,12
-16,-122,-128,-63,-67,-15,-33,-6,73,30
-5,-76,-89,-82,-79,-62,-46,26,130,128
32,-19,-35,-85,-69,-63,-41,42,104,148
53,-40,-73,-68,-69,-55,-61,0,-46,87
-1,-52,-32,-20,-21,5,-9,-5,-119,0
-27,-80,-43,-21,-18,-17,10,46,-41,0
-35,-84,-50,-27,-20,-60,-1,69,5,-50
-39,-63,-28,-15,-17,-70,-24,44,-9,-155
-16,-8,13,18,0,-63,-33,0,-59,-192
-36,85,116,89,71,-19,-46,-54,-99,-121
-44,0,22,32,30,-13,-25,-6,-32,57
2,-65,-63,-20,-13,-13,-38,-14,-78,77
-56,-73,-27,-5,5,15,-69,-30,-112,-7
-95,-97,-37,-32,-6,30,-56,11,-25,12
-17,-61,-62,-52,-34,15,-56,35,18,61
-19,-37,-64,-19,-24,40,-29,24,-8,-6
-9,68,-53,-4,0,49,-10,-9,15,-26
38,371,269,1,67,54,-17,-25,197,34
27,401,375,11,81,49,54,-18,171,-25
-45,77,69,15,2,0,135,4,-42,-124
-36,-3,-43,62,19,-22,65,-49,-163,-124
84,55,32,71,20,-71,-73,-101,-135,-33
62,24,33,56,3,-116,-105,-86,-60,-38
-124,-94,-33,24,30,-53,-9,-9,-17,-108
-164,-116,-89,-50,21,11,98,107,187,238
87,-37,-150,-83,-56,-30,50,87,167,776
175,-11,-97,-37,-59,-65,-33,-14,2,750
88,-74,-77,-63,-64,-65,-26,-21,67,631
-8,-122,-77,-73,-61,-37,-8,31,119,423
16,-53,-14,-23,-35,-37,-33,21,103,202
93,23,34,0,-35,-49,-57,-2,50,41
129,123,92,-15,-23,-52,-58,-26,78,-62
45,344,253,-29,53,1,-4,19,238,-260
-110,81,77,-18,48,43,35,18,-82,-755
-119,-67,-58,25,32,65,12,-9,-323,-1114
-101,-70,-109,29,44,101,23,48,-184,-843
-77,-82,-56,13,37,74,-14,50,-46,-247
-39,-64,-58,-4,8,22,-55,24,-8,96
44,-24,-99,-13,-20,24,-70,3,-11,191
105,201,105,2,45,87,-32,9,76,170
82,141,94,16,13,42,6,-8,-14,-1
14,-10,-80,28,-29,7,144,-22,-162,-257
-58,8,-5,80,16,33,257,-30,-211,-456
-83,20,89,110,51,48,207,-13,-154,-369
-99,-18,56,92,33,54,119,42,13,-96
-59,-22,31,59,12,35,37,3,33,88
-3,16,36,15,-18,24,-23,-33,24,133
-30,5,-3,-25,-40,30,13,53,45,58
54,-34,-52,-21,-55,-8,0,7,-17,81
40,-41,-14,15,-15,7,-3,-47,-83,36
-31,-51,-6,35,0,16,12,-21,-55,11
22,8,2,18,-18,5,-9,-22,-58,6
-33,-27,-31,9,-11,36,46,-3,-86,-68
-88,-35,-17,20,3,38,47,22,-28,-115
-7,218,223,44,64,47,-26,-31,100,-39
-63,346,340,19,91,81,8,16,251,6
-138,125,158,41,77,56,-5,-42,39,-86
-135,-66,-38,17,-2,-11,-24,-25,-13,-27
-24,-32,-63,-28,-51,-23,-13,14,25,35
50,14,-5,18,-28,-23,-34,-88,-86,24
54,1,-12,26,-8,-15,-41,-130,-69,107
-37,-26,-87,-29,-16,15,25,-13,23,50
-117,-51,-56,-40,-17,20,47,37,-5,-52
-129,-107,-91,-38,-41,0,-9,25,-7,-11
-48,-29,-38,-18,-48,-30,-61,-13,-44,37
13,-2,-3,26,-17,-35,-95,-58,-114,12
46,-3,21,47,-10,-40,-129,-116,-135,26
-5,-96,-63,-19,-44,-32,-90,-35,1,166
-83,-173,-150,-107,-71,-6,-2,120,160,202
-17,-74,-172,-146,-95,-22,5,132,208,212
108,-36,-118,-108,-117,-91,-82,-16,44,232
114,-55,-51,-75,-118,-92,-101,-76,-40,254
87,-16,6,-30,-94,-79,-87,-77,-33,225
77,15,62,35,-4,-52,-64,-47,-41,162
81,0,25,50,69,-5,-17,-21,-64,100
32,-50,-30,34,72,17,35,-20,-61,0
-19,17,15,9,74,49,95,56,92,-31
-7,341,281,10,175,128,148,137,323,-54
2,317,265,26,161,78,90,88,261,-75
105,55,-48,23,6,-55,-77,-41,-18,-75
90,-19,-37,49,-10,-85,-97,-73,-123,-104
-79,-66,-35,71,53,-3,10,-20,-125,-153
-44,-115,-93,2,0,-5,48,48,-18,-46
-36,-110,-69,-11,5,-5,48,58,19,-45
-27,-7,12,-1,16,-21,7,12,61,-37
-15,-67,-70,-47,-53,-58,-8,28,82,-8
-42,-122,-128,-63,-74,-46,22,71,66,-8
-32,-98,-76,-33,-48,-47,32,58,33,-22
-12,-56,-32,21,-6,-6,39,70,1,-57
-3,-35,-78,26,13,49,17,36,-23,-45
-5,-71,-107,-30,-23,28,-14,-9,10,45
50,5,19,-70,-40,-20,-19,16,149,228
134,218,229,-55,9,-9,9,40,261,366
206,97,98,-24,-27,-44,-40,-31,111,371
325,82,41,36,-49,-114,-141,-157,-45,430
99,9,21,97,40,-41,-102,-156,-88,341
-129,-102,-12,73,91,45,8,-28,-80,63
-14,-82,-53,-19,23,24,30,61,-100,-133
28,-21,-7,4,41,34,21,3,-219,-289
-39,124,131,43,95,58,-2,-30,-116,-291
-108,-14,25,16,37,48,0,10,-67,-233
-102,-106,-68,6,3,52,-20,-1,-131,-161
6,-65,-80,16,-13,5,-50,-49,-144,266
59,-65,-106,-11,-36,-65,-93,-62,-70,530
8,-62,-122,-32,-62,-90,-129,-57,4,288
8,-21,-26,-8,-31,-54,-148,-71,-102,-154
27,54,87,46,12,-26,-183,-114,-150,-306
108,105,111,43,-6,-7,-194,-63,28,49
66,-31,-37,-48,-57,76,-82,81,122,244
-65,-133,-151,-54,-25,130,23,134,72,157
-96,-139,-182,-60,-39,62,118,109,121,190
-33,-108,-108,-60,-64,-8,225,70,149,406
42,-55,-46,-25,-34,-31,170,41,128,438
22,-3,-60,-3,-1,-31,118,68,123,115
47,323,150,64,109,30,100,25,113,-309
41,490,390,82,157,51,88,41,180,-529
-8,176,99,14,28,-8,78,125,132,-601
-13,-39,-39,32,-12,-22,43,84,-27,-648
-76,-31,45,88,13,4,30,46,-110,-703
-86,6,106,119,43,8,15,9,-120,-595
46,135,212,187,72,-17,-54,-112,-173,-346
98,143,211,144,61,8,-17,-99,-164,-208
22,25,62,32,29,34,37,-18,-86,-106
-95,-132,-101,5,30,36,40,-10,-102,-85
-257,-247,-190,-43,23,66,92,106,51,-45
-67,-145,-125,-59,-31,0,42,81,29,-31
51,-77,-97,-55,-61,-57,-35,-4,-44,-11
-8,-100,-110,-49,-33,-47,-42,9,-41,-5
-26,-56,-17,-17,5,-12,-25,36,-9,52
43,89,83,2,41,0,-17,-6,-30,69
11,5,-47,-3,36,0,-25,-21,-103,44
-73,-86,-123,-39,-1,-35,-34,18,0,70
-44,-82,-140,-46,-27,-57,-35,26,39,60
-4,-69,-86,-38,-13,-15,10,69,68,83
85,7,-13,-4,-3,-15,-3,21,32,127
139,39,-44,-7,-3,-33,-46,-62,-62,121
15,71,-7,-29,45,12,0,-16,11,50
-36,275,240,1,118,84,46,36,143,14
30,233,235,20,111,54,9,-23,47,32
83,23,2,-2,13,-18,-28,-66,-33,148
-61,-71,-20,-2,10,12,22,-12,2,102
-53,-51,-40,22,12,-5,-3,-47,-41,71
75,-10,-42,-2,-38,-46,-49,-68,-22,108
40,-30,-24,-30,-19,0,-7,-20,0,53
-74,-24,10,-24,35,60,31,35,74,-2
-53,-50,-18,0,26,33,14,19,37,-15
20,-42,-87,-19,-19,-11,-18,22,68,79
-32,-49,-150,-28,-29,-2,12,56,118,85
7,-18,-19,-1,-20,-34,-8,13,62,84
-9,-35,3,-7,-9,-26,7,46,80,177
-15,-38,18,-1,-7,-27,15,24,33,163
25,78,76,-53,-19,-36,5,2,132,185
31,254,198,-44,31,6,5,15,282,208
12,44,96,-6,-14,-15,-41,-42,74,201
-43,-92,-6,-11,-14,-15,-73,-49,-28,184
-54,-88,-53,-36,-30,-18,-72,-13,-38,4
-8,-61,-102,-36,-36,-28,-69,-25,-103,-208
-23,-68,-95,-15,-7,4,-46,-18,-100,-331
-42,-35,1,16,31,15,-42,-51,-120,-389
-17,153,154,33,73,15,-58,-83,-22,-215
-22,-5,47,10,5,-25,-8,-17,5,-12
-75,-105,-2,38,24,0,118,16,-55,-17
-16,-29,66,71,29,-37,46,-57,-92,33
35,-9,62,39,-6,-93,-57,-61,-37,142
8,-104,-64,-72,-64,-93,-15,35,46,160
-100,-164,-108,-66,-26,-51,38,40,70,65
19,5,15,-15,5,-47,-5,-81,-25,-2
64,40,16,-37,-21,-36,38,-13,34,46
4,-39,-40,-31,-53,-15,48,40,-20,-47
11,0,-52,16,-41,-21,-36,-41,-79,-99
11,36,-18,55,-22,-27,-83,-113,-119,-106
-75,-16,11,45,-28,-5,-37,-49,-96,-125
-107,-91,-53,-22,-61,4,24,60,-13,-77
-115,-12,-1,18,-6,24,31,45,22,-85
-26,308,160,8,74,56,64,97,310,73
66,444,261,11,125,66,71,62,308,79
152,181,126,19,26,-18,-24,-74,-2,86
154,76,89,78,-14,-78,-137,-195,-123,154
164,196,237,200,48,-117,-286,-373,-249,94
87,45,51,46,-17,-71,-157,-126,-109,35
-104,-234,-231,-141,-63,62,78,199,44,-28
-146,-216,-182,-127,-29,131,38,155,49,28
-94,-148,-111,-71,-14,100,-17,48,-5,113
-42,-137,-82,-23,-16,26,42,-4,-69,77
-11,-143,-93,-68,-57,2,198,112,77,130
-47,-146,-102,-53,-40,33,188,152,79,103
63,-69,-46,-26,-38,4,45,49,-22,406
94,-36,-16,-7,-31,-22,-41,-27,-76,581
115,7,23,4,-42,-54,-96,-79,-80,257
199,134,137,35,-32,-86,-143,-122,-67,21
49,-40,-26,-62,-72,-53,-9,39,76,-66
-94,-139,-119,-81,-57,39,112,136,90,-241
-49,-95,-146,-48,-41,61,78,82,6,-354
7,-23,-38,-16,-37,83,43,35,-96,-448
17,64,129,69,8,110,-2,-79,-242,-471
-23,99,176,111,53,107,-15,-112,-243,-362
-54,168,172,32,117,121,79,48,31,-249
45,382,302,10,223,121,81,78,225,-123
31,241,184,8,179,41,-12,23,178,28
-73,-57,-58,15,92,0,-66,23,35,-23
-15,-79,-81,12,41,0,-72,4,-37,-71
-19,-99,-108,-7,25,26,-22,31,-32,-57
-104,-118,-79,18,36,39,4,3,-86,-107
-103,-93,-69,-21,-8,10,9,23,-2,-58
15,10,-37,-75,-57,-35,-2,46,125,72
104,1,-73,-39,-71,-74,-52,-35,32,87
22,-62,-117,-30,-45,-32,23,-5,11,10
11,-66,-74,-40,-36,-26,51,17,8,-53
0,-62,-36,-36,-21,-16,51,23,-9,-65
-22,-65,-20,-22,1,11,57,28,-44,-16
-27,-31,2,0,13,14,26,6,-88,24
-15,143,156,36,72,38,18,-4,-23,111
107,185,160,13,42,-2,-8,-40,35,439
135,4,-8,-6,-35,-55,-66,-34,13,662
137,-35,-136,-30,-62,-55,-86,0,51,613
57,-49,-86,14,-19,-42,-95,-46,-1,539
12,-46,-8,23,-6,-55,-128,-116,-59,366
92,-71,-71,-84,-108,-118,-145,-76,14,191
34,-48,-73,-114,-93,-55,-44,38,64,-128
43,294,211,-69,36,29,20,39,178,-151
27,215,163,-28,27,17,23,22,114,-10
-79,-90,-60,-18,-12,53,84,47,-82,-189
-103,-93,-47,9,0,65,63,0,-151,-316
-62,-58,-12,19,4,42,33,-14,-142,-362
-43,7,52,73,46,60,35,-34,-212,-541
-91,38,103,117,72,81,29,-64,-207,-587
-85,76,147,113,58,45,9,-83,-117,-407
-7,107,150,125,42,13,-44,-186,-244,-376
-150,-47,-5,56,6,25,38,-45,-52,-214
-80,-87,-119,-60,-76,18,133,167,170,-91
75,-13,-69,-42,-103,-20,82,134,99,-71
59,16,-23,1,-46,-5,57,88,23,-57
21,-4,-58,11,-16,5,38,63,30,-25
3,33,-80,11,-1,23,46,83,75,-33
55,263,219,-7,51,59,49,86,192,28
68,299,297,-2,64,41,30,43,217,86
73,70,80,0,-14,-36,-6,-35,75,108
59,-37,-11,30,-5,-28,-7,-79,-62,58
-18,-110,-83,-1,-11,-4,47,33,-49,5
-69,-187,-152,-99,-72,-24,61,124,59,74
25,-118,-106,-78,-73,-45,-3,2,-29,84
63,-26,-29,-46,-41,-45,-34,-39,-35,69
57,-44,-33,-37,-47,-68,-43,-49,-52,61
-5,-100,-66,-4,-32,-47,-37,-32,-71,53
-12,-89,-30,13,0,-18,-14,4,-28,94
43,-36,22,56,31,3,0,-15,-44,88
113,29,73,92,42,-1,-39,-62,-64,93
90,11,36,77,26,-17,-68,-70,-40,120
18,-10,11,6,3,0,-45,0,58,123
-7,25,47,-25,4,9,-59,-12,75,55
63,70,94,72,18,-62,-206,-250,-207,-42
39,-1,-52,18,-33,-85,-149,-154,-150,8
-137,-133,-122,-39,-30,-17,17,83,-15,-71
-161,-99,-71,3,2,6,25,49,-6,-44
-112,-132,-209,-89,-78,-20,51,103,162,124
-28,-119,-150,-111,-106,-29,63,98,140,152
26,173,137,5,18,8,9,-4,122,106
28,437,372,50,129,31,-30,-17,341,218
39,449,375,67,130,30,-28,-21,334,207
118,147,85,-8,-18,-55,-54,-21,111,100
9,-139,-166,-88,-74,-38,37,105,110,28
-2,-129,-153,-35,-12,20,68,86,24,-59
64,-72,-56,7,23,32,48,40,-75,-71
38,-44,-10,21,57,46,62,35,-60,-78
-12,8,43,36,66,45,40,2,-35,-54
-57,-59,-18,34,21,17,-1,-17,-90,-37
-90,-80,-34,37,35,18,8,-30,-139,-77
-105,-122,-68,10,18,13,22,-18,-119,-116
-124,-133,-74,-8,17,19,7,-6,-107,-199
-89,-100,-74,-15,-2,-12,-64,-23,-67,-162
-26,-64,-61,-11,-18,-32,-120,-39,-90,-93
67,65,68,-8,2,-18,-141,-30,-54,2
86,32,40,-3,2,-13,-157,-48,-42,106
58,-71,-41,-1,-14,19,-161,-88,-125,103
-15,-95,-100,-4,-5,53,-97,-46,-98,46
-8,-86,-106,-25,-1,38,38,8,-31,42
59,-48,-87,-15,-7,18,179,30,12,117
46,1,5,54,17,13,150,-4,-17,38
94,170,213,158,69,-23,-19,-148,-166,-142
184,383,389,105,92,-28,-42,-88,35,-15
23,89,65,-51,-4,-15,61,135,246,88
-83,-151,-141,-80,-51,0,74,144,146,39
-59,-140,-132,-59,-48,-10,48,53,57,76
0,-124,-154,-80,-80,-28,60,59,109,223
11,-110,-114,-65,-62,-4,53,68,144,376
-132,-127,-75,9,3,33,39,39,115,491
-31,-14,-21,0,-4,0,-4,-22,63,756
-42,-53,-85,-35,-37,-8,-2,6,85,705
15,-40,-60,-35,-65,-39,-20,-24,-9,179
-17,-30,-33,-4,-39,-20,11,0,-49,-192
-39,-21,4,30,-16,-12,-9,-14,-47,-117
55,75,93,87,2,-43,-87,-127,-137,47
78,94,107,106,15,-66,-118,-160,-195,-167
-14,36,28,-5,12,1,2,32,-26,-356
-106,252,211,-41,112,137,154,151,207,-454
-50,304,258,-10,113,95,108,68,177,-395
-17,12,5,-9,4,-1,39,32,14,-381
-25,-91,-82,9,2,11,43,34,-78,-517
-118,-160,-125,-2,23,44,82,59,-78,-476
-58,-128,-99,13,23,29,24,9,-140,-331
22,-49,-21,36,20,-4,-40,-59,-166,-231
-40,-2,22,20,32,12,-17,-31,-96,-262
-93,-52,-7,12,25,21,2,-22,-106,-301
-44,-50,-71,0,-5,-11,-30,-28,-102,-183
-39,-68,-73,-16,-24,-10,-20,0,-59,-100
-67,-99,-77,-8,-14,5,-3,15,-35,-43
-54,-94,-80,-12,-33,-12,-20,22,13,134
-44,-90,-97,-56,-86,-56,-18,40,97,221
-1,-26,-50,-57,-69,-35,-3,-6,95,259
26,10,-52,-31,-43,20,7,-14,128,360
45,-43,-40,0,-35,25,-55,-29,83,428
66,1,10,36,1,25,-113,-71,36,279
102,63,80,93,56,25,-162,-120,-64,-26
147,116,145,131,72,-10,-196,-150,-149,-257
232,203,201,135,39,-55,-245,-236,-201,-205
114,117,66,18,-45,-65,-126,-34,46,-16
-78,212,115,-43,38,62,159,123,268,-59
-140,335,211,-60,120,147,354,160,291,-198
-87,94,43,-68,7,19,223,138,156,-148
-22,-106,-96,-53,-84,-68,53,83,24,-72
-72,-144,-121,-25,-63,-49,50,53,-9,-55
-241,-174,-105,26,-5,17,71,33,-54,-65
-156,-154,-101,-29,-72,-42,29,66,99,157
94,-46,-73,-68,-153,-127,-56,18,99,292
133,5,-26,-34,-133,-142,-89,-59,-22,176
27,-85,-102,-52,-99,-71,34,80,73,111
5,-107,-95,-32,-44,-7,51,73,4,-22
15,-70,-53,0,-7,9,43,18,-40,-26
27,-53,-26,1,0,27,66,15,-49,92
58,-2,-15,39,16,30,28,-32,-161,180
-3,-12,-29,26,20,9,-15,-24,-110,164
23,155,140,29,67,6,-32,-45,17,88
77,99,85,6,24,-19,-52,-19,16,43
9,-49,-61,1,32,29,14,48,-36,-79
-39,-39,-98,25,61,64,74,89,-74,-177
-40,-46,-44,21,46,57,66,50,-128,-122
-12,-7,-1,35,46,49,35,-12,-160,-62
14,11,17,30,34,36,14,-37,-122,-49
-40,74,66,-8,53,45,22,-14,-1,-31
-50,310,271,-14,116,83,51,9,183,15
-56,120,129,7,70,43,32,8,51,-6
-54,-56,-37,11,7,-2,24,8,-23,-30
-8,-28,-63,25,-8,-14,-3,-44,-52,-19
17,2,-32,48,0,-14,-36,-125,-119,2
-72,-86,-43,5,6,4,1,-55,-16,15
-41,-76,-15,-19,4,12,23,-11,40,10
-7,37,74,-7,20,-9,-9,-36,42,22
-10,-12,-15,-34,-25,-47,-10,8,79,61
0,-29,-32,-4,-4,-15,1,-5,11,44
-39,-56,-38,-2,10,-3,-5,0,-19,-38
-31,-108,-103,-66,-45,-31,-8,60,70,5
52,-79,-104,-67,-60,-42,-40,12,37,36
52,-48,-61,-39,-50,-44,-58,-26,-13,43
53,116,84,8,32,-18,-40,-21,48,50
52,442,340,26,159,91,43,50,246,18
-38,340,237,38,144,132,86,71,162,-48
-71,8,36,81,45,48,11,-36,-119,-44
-40,-61,14,92,16,1,-17,-68,-169,-34
119,29,8,98,-3,-52,-87,-172,-280,-71
129,-30,-95,-18,-68,-54,-59,-54,-80,86
65,-94,-125,-96,-97,-31,-27,6,8,77
96,-20,-56,-100,-75,-38,-38,19,43,92
108,-36,-26,-26,-20,-59,-90,-30,-7,118
53,-52,-6,40,65,-14,-94,-94,-88,13
-12,-106,-41,24,44,19,-24,-44,-85,-50
-13,-116,-62,-17,-16,0,37,44,-15,-25
69,-7,28,31,-18,-44,-24,-29,-35,30
-4,-38,-43,20,-8,2,-6,-16,-73,-13
-43,-75,-121,-12,2,39,0,32,-48,57
-57,-79,-69,-29,-5,4,-2,49,69,238
16,-91,-92,-48,-47,-60,-59,14,40,181
35,-59,-101,-28,-55,-42,-113,-12,-4,65
-46,-102,-175,-42,-54,37,-58,41,59,-26
-94,-135,-173,-38,-37,73,9,73,83,-104
-3,-72,-58,-31,-34,29,75,74,71,-101
98,56,45,0,-19,7,228,61,53,-128
103,269,268,28,51,67,299,109,246,24
145,403,382,40,90,66,150,71,385,257
136,160,151,17,-12,-20,6,17,274,328
90,-61,-50,-27,-92,-84,-17,55,211,345
57,-57,-49,14,-62,-48,-35,44,148,319
4,-52,-53,31,-39,-5,-40,44,79,242
16,-11,-16,32,-29,37,21,74,-22,121
53,92,94,59,5,43,12,35,-130,185
67,110,112,49,-23,-20,-72,-85,-209,155
-9,0,19,21,-78,-64,-120,-98,-197,54
-5,-46,-19,-20,-100,-87,-113,-79,-86,439
4,-96,-59,-60,-100,-63,-58,-77,-97,567
-7,-53,-20,-37,-55,-55,-53,-85,-165,-67
-28,24,83,91,99,-8,-61,-143,-312,-729
-90,7,86,98,135,37,27,-42,-165,-794
-13,196,185,44,123,42,53,14,14,-537
27,73,8,-25,32,0,7,36,-13,-474
-64,-129,-157,-58,-4,6,11,95,-5,-612
-51,-108,-78,-1,30,13,-41,11,-50,-588
19,1,7,68,60,-1,-115,-136,-186,-437
-134,-102,-128,14,29,45,13,38,-110,-311
-146,-129,-114,-53,-26,43,99,191,54,-79
7,115,91,-36,2,20,70,110,143,165
14,382,315,21,109,63,38,6,237,194
-33,60,45,-44,-14,47,34,66,229,164
16,-90,-120,-79,-97,17,22,71,143,114
-22,-92,-115,-37,-81,43,-12,-5,-5,-87
-46,-50,-34,13,-39,51,-53,-69,-102,-265
32,22,32,49,-9,2,-97,-123,-121,-170
-27,-29,-12,6,-4,18,-31,-55,-61,-138
-84,15,15,0,41,52,52,-11,-8,-228
-102,-4,17,50,61,22,9,-71,-63,-219
-54,-11,5,39,28,-40,-51,-103,-85,-132
39,24,21,14,-21,-92,-99,-106,-50,6
-31,-64,-65,-11,-23,-5,13,-14,-59,-25
-109,-157,-166,-67,-47,33,92,69,-8,-51
-60,-145,-154,-109,-93,-27,71,108,99,54
-1,11,30,-54,-44,-22,35,77,116,112
56,244,266,16,49,11,-21,-8,75,83
25,30,31,-12,-22,-42,-64,-42,-55,-1
-128,-159,-148,-43,-44,-15,-10,36,-34,-39
-30,-134,-111,-59,-56,-8,-1,47,-14,103
54,-98,-115,-49,-38,-17,-46,-10,-61,237
16,-85,-136,-21,-17,-13,-63,-38,-59,197
45,-34,-65,-9,-22,-22,-60,-43,-18,129
38,92,133,8,41,37,-25,-35,53,99
8,-42,13,-29,9,19,-16,-9,51,64
178,13,25,-4,-27,-39,-83,-75,-72,48
147,34,4,-16,-46,-76,-83,0,-2,80
-63,-62,-40,-13,-17,-9,1,61,-46,-102
-92,-86,-36,3,13,17,28,32,-55,-45
78,-11,-22,-29,-20,-14,25,34,1,138
144,70,47,-23,-5,8,49,52,9,145
86,54,54,-19,7,20,59,41,19,136
-46,-77,-61,-31,0,5,45,29,12,114
-109,-109,-103,0,25,1,19,-14,-10,50
0,-58,-112,-1,-5,-30,-21,-36,-18,80
125,18,1,-8,-13,-24,-37,-26,-21,127
78,28,24,24,12,14,-19,-12,5,127
-77,-18,-82,-1,27,57,73,106,135,32
-96,214,77,-8,103,122,111,144,289,43
19,406,321,6,136,98,70,65,272,78
83,181,123,28,46,9,-13,-24,37,53
56,-41,-34,-8,-21,-11,-10,-1,-31,43
-27,-98,-43,-23,-19,8,38,36,7,12
-71,-105,-29,-13,-22,17,51,52,20,58
-22,-49,24,-2,-20,33,67,56,26,112
64,91,130,23,-1,45,65,9,15,142
-30,63,131,70,51,44,44,-47,-24,79
-66,-51,9,43,29,-11,-38,-65,-10,52
11,-39,-10,-6,-13,-15,-43,-55,-33,-44
17,-1,34,0,-20,-31,-82,-106,-93,-244
15,-24,7,-7,0,-20,-67,-55,-96,-242
-94,-140,-75,-22,47,51,53,78,-44,-143
-103,-127,-91,-9,111,46,86,80,28,-11
-68,90,73,-11,153,30,70,78,218,67
59,24,11,-9,38,-56,-60,-69,-64,-78
49,-34,-39,17,6,-62,-114,-137,-215,-163
44,3,72,71,10,-75,-135,-147,-176,-100
125,70,132,81,2,-65,-93,-162,-219,-37
46,-39,2,-1,-28,-44,-26,-67,-88,-4
-95,-191,-142,-84,-46,0,54,72,62,-11
-46,-75,-51,-92,-20,26,71,87,106,6
12,144,174,-29,57,62,60,40,115,12
0,20,73,49,65,32,8,-44,-63,-33
132,22,11,34,0,-64,-73,-86,-17,138
143,-51,-102,-70,-69,-69,-34,39,99,176
-81,-221,-232,-128,-55,19,123,207,147,129
-101,-176,-153,-72,-31,-1,68,119,143,160
-8,-69,-83,-25,-30,-65,-60,-17,97,176
20,3,-90,-35,-26,-84,-114,-15,151,231
-48,-114,-140,-80,-46,-44,-83,32,139,208
-70,-132,-163,-73,-45,-38,-95,14,79,172
-55,-72,-100,-20,-26,-18,-143,-64,-35,0
-28,-8,-42,35,5,42,-151,-186,-251,-268
64,23,-21,20,-9,-13,-163,-230,-217,-24
206,114,117,73,19,-65,-90,-254,-136,695
210,279,285,99,93,-2,64,-140,28,848
-58,294,279,-21,129,145,312,250,295,362
-200,104,138,-20,106,159,279,277,200,-76
-110,-83,-68,-5,4,34,115,136,34,-285
-70,-62,-57,32,17,24,78,80,-61,-364
-80,-50,-4,68,44,66,107,99,-73,-236
-63,-64,-27,26,3,49,103,116,4,-221
-15,-13,19,43,16,34,58,34,-14,-280
8,69,89,56,41,34,23,1,-23,-322
72,-5,0,18,-8,-12,-1,0,-99,-338
45,-37,-53,17,-22,-11,26,0,-105,-433
-8,-28,-22,51,0,10,-7,-54,-216,-566
-83,9,87,140,58,-2,-74,-162,-314,-573
72,101,132,118,2,-67,-147,-174,-218,-299
37,38,53,35,0,-3,-40,-39,-61,-164
-66,-45,-44,-43,-14,35,64,117,97,-122
-118,-114,-104,-51,-27,27,77,154,58,-150
-104,-75,-21,39,7,14,15,13,-86,-111
-42,-30,6,61,13,0,-47,-60,-113,-13
4,-94,-107,-23,-54,-39,-50,-3,30,101
-20,-152,-204,-103,-106,-41,13,96,146,127
-28,-131,-169,-71,-69,-21,36,62,100,71
56,20,24,2,-13,-21,-24,-57,11,58
92,378,285,2,90,35,37,-10,272,37
78,448,327,-7,129,62,76,37,332,-26
12,71,54,-7,23,-2,34,26,84,-16
6,-80,-63,1,-37,-40,-12,14,-3,58
84,-20,14,45,-48,-77,-92,-51,-11,150
239,153,173,119,-46,-156,-241,-217,-106,174
115,50,77,67,-49,-110,-163,-158,-123,68
-126,-142,-103,-64,-38,36,70,72,-11,32
-94,-34,37,43,39,34,-2,-73,-137,197
-77,-54,21,55,55,36,-18,-111,-129,291
-111,-202,-220,-124,-55,27,86,139,198,342
-57,-165,-257,-116,-50,33,109,174,98,45
-4,-99,-100,-55,-12,16,66,64,1,-59
-50,-108,-66,-43,-24,-17,1,26,39,-28
-120,-67,-16,-46,-20,-9,9,51,96,-115
-62,54,77,-60,-14,2,16,61,167,-168
65,-25,-78,-92,-72,-41,1,26,25,-156
48,-63,-75,-54,-45,-15,30,56,7,28
22,-60,-32,-14,-26,-17,-11,12,-37,261
18,-54,-29,-10,-44,-21,-46,11,-23,291
48,-63,-57,-31,-72,-11,-50,29,39,192
90,-21,-17,-3,-46,14,-56,-23,-40,28
19,154,152,9,54,64,-8,-37,-49,-139
-84,247,267,6,121,113,50,2,34,-228
-41,5,45,7,40,41,14,-17,-103,-202
71,-16,0,12,3,0,-2,-23,-131,-84
39,5,38,65,36,16,-14,-71,-170,-62
-44,-28,4,48,32,21,13,-31,-107,-57
-20,-60,-56,-10,-21,-6,27,7,-39,-49
-11,-21,-45,2,-31,-26,-5,-15,2,-9
6,42,18,-20,-24,-10,-9,-18,43,53
-51,-77,-60,-42,-32,10,36,36,29,48
4,-27,-23,3,-15,-16,10,-16,-7,80
68,-2,-66,-23,-23,-34,38,16,23,78
1,-35,-66,0,21,35,109,76,25,-151
-4,-18,-41,50,38,53,60,35,12,-217
13,8,0,51,23,60,-24,-25,4,-119
-23,163,126,25,84,178,34,6,86,-108
3,398,295,-14,134,213,58,48,282,-15
38,207,118,-41,15,79,-48,24,205,91
-35,-56,-60,-9,-73,-15,-135,-48,-43,81
-91,-84,-60,8,-95,-59,-137,-63,-49,108
27,-11,-14,2,-99,-99,-120,-100,-112,87
57,-8,-19,16,-50,-79,-13,-117,-177,268
-78,-67,-46,24,-7,-42,147,-13,-17,628
-89,-20,-25,18,2,-34,138,24,84,473
-24,-127,-186,-114,-135,-106,60,122,206,291
66,-104,-188,-138,-148,-101,7,100,170,171
6,-91,-122,-44,-64,-58,3,32,84,27
-6,-71,-65,-6,-28,-53,17,43,53,-151
58,7,30,64,21,-48,-5,-27,-79,-311
66,67,80,108,56,-14,-20,-81,-136,-341
-7,79,103,79,67,14,10,-33,-149,-436
-54,-5,7,21,14,-3,14,65,-105,-354
-29,-63,-44,1,-18,-19,-3,50,-93,-163
39,-53,-40,-3,-31,-42,-23,8,-37,0
45,40,54,85,37,-46,-90,-120,-136,-116
25,44,65,77,29,-44,-86,-104,-195,-202
-124,-84,-16,13,16,0,17,15,-144,-196
-132,-69,-12,5,42,9,20,16,-55,-116
17,202,230,6,79,18,-12,0,197,122
129,278,277,-2,42,-16,-71,-16,187,122
81,23,-54,-12,-22,-47,-63,27,5,10
50,-75,-135,-18,-23,-38,-39,21,-42,42
32,-114,-115,-45,-28,-25,25,75,51,186
11,-96,-74,-19,-18,-23,35,61,40,168
45,-37,-17,6,-11,-17,-1,24,0,82
78,49,28,2,5,0,5,18,32,82
77,13,3,-28,-17,-24,1,6,13,106
6,-51,-47,-15,-22,-13,27,-2,-54,9
-65,-61,-27,34,13,26,40,-26,-137,-129
-64,-60,-35,35,21,21,39,-12,-110,50
-62,-58,-75,15,5,5,34,4,-50,259
-40,-38,-65,-2,-30,-27,-52,-21,-8,232
23,83,56,14,-29,-78,-195,-140,10,187
49,239,216,45,23,-88,-263,-226,42,171
-73,10,55,59,27,-23,-149,-130,-58,-17
-184,-77,13,57,47,55,-40,-3,-78,-185
-152,-32,45,61,33,111,-34,4,-88,-306
74,24,-21,-26,-78,20,-110,-17,-87,-303
189,2,-65,-84,-135,-58,-55,-14,-44,-136
77,-92,-118,-94,-90,13,171,63,63,-29
36,128,67,-62,15,71,237,83,214,15
42,300,240,12,96,80,124,64,234,19
31,25,21,45,9,0,-8,15,28,-23
75,-12,10,56,-7,-22,-60,-36,-76,37
-23,-62,-81,42,5,42,11,48,-53,147
-103,-122,-121,-13,-14,69,85,161,42,66
-68,-85,-64,-11,-2,71,78,127,-6,-185
-13,16,22,25,31,80,36,48,-35,-271
-3,77,71,36,46,55,-2,-7,-36,-199
43,4,-9,9,-8,-20,-67,-60,-62,-83
67,5,-5,0,-28,-39,-77,-78,-43,-19
51,16,28,7,-12,-30,-35,-75,-76,-18
31,9,43,29,8,-13,-9,-77,-120,-54
8,43,88,106,54,3,-45,-162,-198,-57
-4,88,35,129,70,10,-38,-150,-145,15
110,290,69,6,68,42,44,36,270,244
57,393,190,-85,111,106,131,182,522,267
-67,68,38,-85,31,48,94,155,287,109
-69,-162,-109,-73,-52,-19,22,74,80,79
-5,-118,-65,-43,-62,-28,-12,3,30,100
-11,-76,-9,8,-4,3,-4,-30,-29,31
-32,-67,-7,18,1,16,7,-10,-18,3
31,-6,16,-7,-25,2,19,35,55,51
88,48,11,0,2,-7,11,-13,20,43
-31,-81,-201,-20,2,1,-1,11,-9,-33
-149,-95,-106,38,50,20,-17,-59,-121,-156
-206,-86,-5,93,69,31,-16,-98,-135,-155
-178,-153,-193,-11,-7,12,30,65,129,68
11,-61,-81,-7,-14,-45,-42,-17,3,78
105,-3,18,12,-10,-85,-76,-72,-88,40
76,26,66,21,15,-6,-36,-78,-133,-14
-87,-29,60,70,71,58,-28,-97,-114,-39
20,-39,-2,-5,-18,21,-19,-4,-34,15
64,-47,-42,-55,-55,10,18,58,-19,30
92,21,28,25,-4,-36,-70,-52,-87,75
26,6,23,49,-4,-44,-71,-8,11,74
36,-3,5,51,-10,-2,-44,-5,-17,10
123,109,90,45,1,34,-78,-84,-11,161
235,457,368,26,50,52,-106,-136,174,425
235,375,254,-79,-34,-53,-63,-2,307,577
128,1,-59,-115,-156,-142,-37,98,240,531
33,-67,-62,-46,-106,-85,-8,71,97,263
-50,-126,-120,-48,-75,2,53,104,54,111
-10,-71,-81,-15,-42,26,33,23,-39,18
-194,-127,-74,0,20,103,121,41,-116,-320
-209,-25,-16,17,20,78,89,22,-59,-396
-50,16,-113,-7,-27,14,49,-7,-15,-276
-44,-75,-141,-12,-27,25,81,30,27,-127
-100,-114,-80,26,36,30,79,17,23,-94
-63,-31,35,95,86,-2,-5,-91,-144,-278
3,9,49,77,41,-58,-77,-78,-120,-232
10,-52,-39,-27,-26,-76,-64,14,15,-37
-85,-2,-11,-21,27,-4,-9,36,62,-3
-149,104,80,5,106,63,47,25,82,-15
-110,-70,-64,-54,-21,-27,13,23,43,94
94,-14,-45,-70,-109,-110,-11,-7,-80,235
162,-31,-92,-84,-111,-60,30,21,-85,595
74,-89,-134,-73,-78,11,48,50,-50,467
-8,-81,-83,-48,-46,16,5,-8,-116,14
-83,-69,-31,-34,-7,-5,-10,-15,-109,-296
-67,180,137,-6,137,28,4,-4,95,-340
-10,269,222,19,166,33,-4,-8,137,-272
-83,-36,12,28,60,16,3,0,-100,-291
-90,-90,-31,18,19,8,1,15,-107,-163
43,19,41,51,-2,-47,-85,-91,-87,-73
95,30,20,20,-19,-56,-48,-87,-87,-105
-74,-124,-109,-39,-5,57,89,112,15,-185
-117,-120,-76,-26,19,84,71,140,41,-220
-42,-25,-19,19,28,23,-40,13,7,-211
18,-15,-111,41,14,-18,-84,-56,-27,-161
24,-53,-140,-10,-24,-20,-64,16,0,-71
-37,-100,-112,-57,-43,1,-38,69,61,-12
-13,-53,-79,-33,-41,27,-33,-17,38,30
-45,-58,-35,-22,-30,38,11,-16,8,-3
-133,-109,-60,-40,-32,25,152,88,58,-34
-79,126,167,-9,27,37,276,89,141,-22
-15,228,261,28,67,37,221,42,106,-24
-8,-6,25,53,10,-24,52,-12,-53,-35
13,-18,17,108,26,-33,-23,-39,-110,-31
97,50,2,130,29,-27,-31,-70,-154,-25
88,33,9,82,20,-33,-31,-78,-124,23
-41,-84,-16,29,32,4,21,-8,-46,9
54,-10,-4,-53,-5,-11,44,67,107,113
117,104,99,-38,8,-1,52,74,159,148
19,-80,-34,5,1,22,63,37,-7,29
-39,-81,11,84,60,34,46,-25,-121,-50
-105,-76,8,98,71,33,34,-31,-92,-28
-91,-150,-187,-51,-61,-28,33,106,177,171
64,-106,-138,-111,-115,-57,-15,74,143,133
126,-19,-37,-55,-69,-44,-70,-55,-54,-2
66,48,18,-40,-19,2,-20,-17,35,18
-14,-24,-30,-31,-18,20,26,21,58,22
-17,-58,-55,-32,-28,16,49,29,75,74
48,-21,-23,-17,-28,-22,2,-22,64,271
127,2,3,-28,-61,-87,-87,-73,82,561
173,9,-10,-46,-74,-95,-101,-84,123,648
128,1,-14,-26,-42,-89,-99,-83,134,532
125,97,28,-52,-12,-53,-51,-5,282,513
207,463,322,-34,104,8,10,17,462,444
180,442,324,21,102,-3,-38,-52,280,175
122,111,78,40,24,-30,-74,-75,-83,-361
108,60,70,112,64,19,-80,-120,-310,-657
25,29,83,134,89,64,-44,-100,-296,-380
-181,-154,-102,17,37,94,110,95,-150,-351
-223,-183,-234,-35,1,88,153,129,-134,-465
-214,-52,-153,9,44,83,126,52,-127,-530
-179,-95,-120,4,5,27,55,19,-150,-448
-73,-97,-37,3,-13,-17,9,-24,-161,-261
7,-46,5,26,-3,-46,-87,-112,-178,-123
-6,-45,-7,3,-16,-65,-99,-76,-105,-82
-113,-61,-18,31,22,-23,-75,-98,-144,-99
-158,-161,-168,-48,-26,-33,-34,20,72,86
-68,-147,-174,-106,-66,-22,55,136,159,125
94,-6,8,-28,-33,-36,-3,13,-1,51
78,-12,17,9,-9,-34,-11,7,-12,19
-52,-25,45,49,28,8,15,14,-31,-109
-149,-58,48,46,41,31,40,29,0,-120
-6,1,88,47,35,31,28,5,-21,-20
-2,7,62,36,37,61,22,-1,-31,18
31,64,91,34,9,-6,-57,-60,-22,23
86,241,262,0,21,-3,-46,-25,83,11
-21,278,305,-21,76,84,33,23,173,-14
62,163,129,34,29,-32,-88,-173,-17,23
23,29,-3,49,25,-29,-96,-219,-157,-28
-57,-66,-45,-5,1,32,2,-71,-99,-79
-114,-177,-154,-98,-47,49,110,194,79,-50
-83,-161,-151,-93,-59,50,128,207,169,52
21,-52,-37,-91,-72,3,122,130,209,228
115,4,0,-97,-94,-36,91,73,209,350
95,-50,-54,-84,-108,-44,-9,6,111,320
-43,-143,-101,-105,-112,-17,3,105,100,213
-58,-107,-78,-87,-108,-32,-18,87,-4,12
27,-2,28,6,-47,-45,-79,-63,-227,-152
62,22,50,62,39,-38,-106,-110,-289,-154
47,37,58,70,79,-5,-45,-37,-184,-194
110,356,314,92,162,44,2,-31,32,-67
176,549,487,152,200,32,-71,-158,74,102
51,157,170,73,49,-22,-52,-88,5,74
-80,-152,-124,-57,-75,0,98,155,90,23
-120,-151,-91,-13,-33,49,149,131,5,-54
-107,-117,-70,-2,-24,31,108,61,-46,-31
-108,-104,-69,0,-21,10,61,11,-91,-106
-59,-45,-21,1,-23,-12,5,-44,-97,-135
13,-2,6,-19,-41,-39,-49,-52,-51,-52
-8,-60,-50,-17,-55,-37,-74,-43,-41,59
14,-49,-51,-17,-66,-51,-99,-34,-20,206
51,-19,-60,-18,-69,-65,-132,-34,-20,238
8,-31,-133,-25,-49,0,-96,7,30,224
-54,-68,-68,-16,-13,87,1,74,84,151
63,44,42,23,-11,42,-7,-28,-3,55
92,113,40,-13,0,6,114,4,114,60
50,1,-23,-19,22,-8,225,46,93,19
78,-28,-21,-1,27,-34,143,4,13,19
13,-59,-50,3,41,-20,77,20,-2,-68
-61,-95,-57,12,69,22,61,44,-31,-215
-57,-85,-6,22,55,28,35,34,-66,-185
-30,-65,-10,5,2,0,-25,15,-52,-135
13,59,104,-3,8,-13,-75,-12,-29,-126
35,279,315,14,72,20,-76,-25,67,-55
-78,198,252,73,97,35,-77,-53,18,-80
-98,17,83,80,42,20,-68,-44,-86,-120
25,6,-43,23,-5,19,-43,-2,-98,-70
-47,-73,-120,-29,-22,20,-3,60,9,22
20,-36,-34,-19,-18,-24,-48,-32,-64,47
169,33,-34,-7,-2,-89,-123,-101,-44,151
210,52,-15,0,30,-66,-95,-85,-42,139
50,-87,-92,-37,-1,-24,-2,2,-44,48
-120,-153,-145,-68,-4,37,121,127,35,-35
-98,-102,-103,-41,-7,28,90,79,14,-71
-64,-43,-48,-6,0,2,34,8,-20,-83
-23,-16,-104,-3,-4,-9,-15,-17,-24,-51
6,-15,-78,-28,-34,-5,-23,11,36,-9
1,108,89,-28,10,38,16,42,119,18
1,130,111,-28,12,20,4,36,141,40
-18,-46,-47,-42,-47,-40,-46,26,102,32
33,-47,-59,-58,-83,-76,-74,-12,85,76
50,-3,-15,3,-51,-69,-100,-100,-11,43
89,75,83,95,-2,-83,-145,-209,-135,25
-34,-24,9,46,-11,-47,-38,-23,16,60
-38,-48,-29,-25,-29,-3,50,160,266,208
232,419,322,48,86,19,-2,-6,281,289
292,451,361,125,86,-25,-98,-172,129,343
200,128,106,80,-18,-78,-113,-146,6,315
48,-72,-101,-56,-63,5,59,53,0,217
-166,-205,-163,-78,-19,124,167,163,0,52
-117,-111,-46,2,17,77,83,42,-88,-24
-26,-72,-47,-16,-14,-10,5,0,-128,-42
-58,-63,-75,-76,-21,-20,31,62,22,-42
-40,-63,-68,-68,-15,3,44,62,56,-68
-17,-55,-41,28,21,17,-6,-58,-167,-315
-43,-50,-29,33,26,29,22,-61,-280,-503
-151,-123,-67,-15,21,56,75,75,-210,-479
-127,-119,-79,-27,5,34,33,87,-101,-210
-15,-74,-69,-57,-32,-27,14,49,-41,53
-10,-20,-73,-67,-15,-16,46,38,5,114
-1,279,58,-45,90,51,49,39,274,279
40,416,169,-13,132,72,32,5,332,366
-15,76,37,7,44,39,41,-22,39,175
-18,-63,21,50,11,-14,-15,-124,-190,-21
7,-40,66,93,18,-55,-93,-213,-270,-169
-102,-99,13,65,4,-56,-89,-160,-150,-183
-194,-260,-195,-124,-110,-59,11,99,178,-20
-48,-150,-140,-139,-106,-42,36,104,145,-102
28,-59,-46,-35,-23,-13,42,14,-25,-99
20,-72,-29,7,25,35,86,50,14,406
31,-69,-13,16,4,34,75,65,79,509
98,-34,-11,-6,-38,-4,13,34,64,279
116,-30,-24,-21,-66,-38,-25,-7,58,178
64,-75,-67,-41,-76,-41,-29,10,77,193
82,-81,-83,-71,-103,-88,-78,-47,32,264
112,-16,-41,-76,-113,-108,-102,-69,78,438
46,-40,-26,0,-58,-75,-106,-127,-18,379
-20,-48,-28,31,-18,-49,-108,-149,-55,406
-17,-59,-173,-37,-66,-57,-44,15,26,255
41,17,-55,15,-40,-32,12,38,-55,-186
-4,92,133,134,73,53,31,-65,-296,-630
-114,46,101,125,108,139,143,61,-244,-1015
-40,220,215,92,137,195,250,217,-25,-1180
5,456,457,96,197,199,185,174,154,-827
-104,225,288,101,143,142,95,81,24,-597
-184,-100,-17,34,19,62,44,78,-89,-470
-131,-118,-64,-22,-28,5,0,89,-14,-250
-25,-42,-17,9,-19,-28,-38,22,-45,-142
-64,-66,-63,10,-8,-23,-21,2,-50,-132
-30,-8,-30,11,-12,-21,-24,-43,-77,-150
49,85,82,26,9,-28,-58,-125,-105,-114
146,53,58,43,-1,-75,-134,-210,-204,-5
31,-15,18,35,1,-52,-91,-133,-138,30
-60,-87,-50,-22,-25,-25,-34,3,12,28
-85,-117,-73,-52,-31,5,27,92,106,68
-53,-86,-58,-49,-27,0,24,77,73,53
4,-52,-30,-29,-35,-37,-15,46,80,102
106,121,108,20,-14,-48,-69,-21,131,195
91,38,24,-16,-36,-36,-31,20,170,192
16,-99,-112,-65,-52,-16,27,72,159,140
-59,-110,-79,-43,-16,33,83,43,66,22
-72,-88,-28,-7,8,37,80,3,22,-12
-86,-68,-39,26,23,26,50,7,0,-25
-54,-46,-51,29,22,21,12,-6,-35,16
-4,-11,-9,-41,-14,-12,-16,10,107,198
-15,298,192,-39,87,44,8,3,307,172
96,479,264,45,102,5,-94,-117,218,101
240,272,99,94,-30,-107,-265,-214,-86,110
351,130,0,29,-115,-167,-327,-230,-168,194
159,2,10,14,-84,-114,-285,-160,-151,93
-216,-228,-133,-39,-14,76,-62,47,-78,-120
-226,-262,-261,-64,17,155,32,113,-12,-65
-153,-216,-269,-104,0,107,64,157,90,33
-37,-154,-165,-84,-27,51,166,98,0,24
69,-92,-144,-16,-19,31,231,6,-69,96
50,-38,-21,38,21,47,209,2,-79,85
-1,-60,-11,15,17,52,136,49,-11,61
-34,-99,-56,-19,-2,34,78,68,38,69
-22,-105,-129,-32,-26,1,63,111,35,68
127,52,18,19,-10,-45,-43,-34,-29,136
238,347,276,23,14,-45,-94,-78,113,307
64,319,253,14,36,35,32,54,206,197
-21,33,76,21,-7,20,36,41,54,28
-83,-111,-26,3,-26,8,15,30,-9,-55
-90,-113,-6,30,7,16,-6,-29,-129,-132
-36,-101,-9,32,1,7,8,-42,-119,-81
55,-32,31,43,-28,-45,-17,-100,-45,81
70,61,97,36,-13,-6,24,-106,32,220
26,-6,19,-5,-32,22,72,-2,65,204
6,-81,-63,-37,-53,28,67,112,113,136
56,-14,-102,10,-23,46,26,55,61,115
-10,-41,-61,37,22,46,27,39,-3,16
-87,-91,-10,21,59,29,21,51,-7,-62
-61,-61,10,14,47,0,-31,19,-41,-84
-55,-23,59,36,66,47,-50,-13,-92,-130
-141,-13,54,39,79,81,-46,-35,-64,-115
-70,-83,-28,-12,-26,-39,-95,-53,-43,-33
59,-38,-33,-38,-72,-120,-133,-101,-146,-102
15,-49,-32,-34,-50,-109,-107,-97,-193,-116
-78,-59,-20,-5,-6,-73,-37,-48,-128,-10
-19,-5,28,30,16,-51,-33,-25,-104,32
69,51,60,57,40,-14,-21,-32,-148,-26
97,283,215,83,115,37,-8,-36,-7,18
160,527,359,77,159,34,-37,-70,146,132
16,169,142,-7,67,15,-14,-7,100,200
-130,-141,-65,-37,-4,30,40,76,53,44
86,-41,-6,-20,-54,-55,-40,7,-29,-2
222,31,5,-3,-68,-60,-50,-31,-119,-61
98,-49,-71,-19,-50,-10,12,27,-47,-120
-20,-103,-167,-70,-52,0,36,116,141,-42
-14,-38,-149,-38,-16,13,35,119,135,-33
0,-71,-62,4,-10,2,18,72,17,0
65,-27,0,8,-15,-11,4,20,-40,113
83,-21,-15,-7,-31,-34,-18,-13,-44,341
50,-34,-42,-29,-42,-46,-45,-55,-40,365
61,-3,-6,-17,-37,-53,-82,-148,-106,127
95,29,43,19,-18,-68,-117,-176,-109,-14
-15,3,-11,-58,-36,-18,30,55,96,-64
-54,-47,-73,-64,-54,7,73,86,74,-146
13,-35,-40,-11,-47,-6,15,20,-18,-107
21,-40,-32,-11,-32,3,54,54,6,86
-46,-52,-36,4,0,54,114,84,9,436
-94,-28,-13,73,36,71,83,25,-62,579
-54,5,30,67,14,42,42,-17,-82,250
83,98,96,32,-11,6,9,-21,29,117
-23,294,363,100,127,62,-7,-44,133,3
-115,231,318,84,132,81,26,-17,121,-191
-80,-53,-41,-30,-7,28,70,76,67,-408
-52,-108,-108,-14,-4,56,95,95,-68,-626
-23,-54,-40,50,28,58,69,49,-179,-686
-39,-26,-20,74,37,30,30,25,-124,-497
-66,-68,-47,25,-4,-9,20,68,17,-279
-75,-60,-41,-20,-29,-8,29,93,85,-181
-11,-32,-40,-2,-33,-32,-35,5,12,-134
67,55,39,65,-8,-72,-122,-128,-101,-109
-25,-3,14,55,17,-8,-36,-83,-125,-190
-102,-131,-110,-37,-9,70,91,75,-37,-180
-86,-125,-174,-61,-26,57,64,77,36,-79
-29,-66,-92,-27,-16,24,-31,0,3,-12
-3,66,55,12,22,1,-123,-57,2,70
-107,298,262,27,134,53,-110,-11,238,177
-92,277,223,1,114,50,-101,17,256,205
-45,-14,-50,-34,-31,-20,-139,-20,48,73
-1,-83,-125,-37,-70,1,-133,-70,-32,15
-34,-106,-97,-25,-53,43,-1,-26,17,44
-53,-101,-54,14,-31,23,188,5,-8,2
2,-43,21,62,5,4,285,-5,-46,-31
7,27,44,44,24,-1,226,53,116,74
40,-10,-11,20,-11,-32,107,49,96,90
60,-14,-10,62,9,-22,20,-44,-48,15
132,52,54,91,1,-64,-88,-158,-104,52
168,62,32,54,-37,-105,-128,-158,-18,217
-27,-72,-161,-47,-70,-41,16,73,35,68
-162,-188,-226,-105,-82,8,119,215,21,-134
-92,-72,-124,-35,-28,6,40,134,22,-67
-36,22,6,9,22,5,-5,36,4,-10
-42,-35,-8,26,1,-1,-27,13,-47,2
-7,-33,-19,15,-31,-33,-69,-4,-16,44
117,31,35,32,-43,-95,-152,-73,-20,135
169,75,88,73,-4,-92,-143,-142,-114,72
-46,-85,-45,2,13,1,32,6,-67,-46
-146,-155,-160,-98,-34,12,110,139,141,57
26,188,70,-106,23,11,78,94,332,145
161,503,320,-40,111,16,30,-12,313,130
98,199,135,-5,48,-1,21,-21,98,152
73,-69,-83,-42,-48,-9,59,56,45,241
49,-89,-105,-53,-63,10,83,54,45,195
63,-84,-127,-49,-63,-8,40,0,0,139
25,-91,-149,-41,-57,-21,23,14,31,144
2,-43,-59,-24,-40,-27,13,10,44,127
15,-10,-32,-16,-36,-38,-22,-13,5,-10
-23,-50,-42,3,-46,-29,-57,-52,-110,-204
-70,-20,36,38,-36,-4,-75,-82,-181,-262
23,8,21,14,-62,-39,-89,-45,-99,-129
72,14,34,56,36,-30,-105,-87,-165,-97
-61,-51,36,104,119,55,-66,-99,-235,-159
12,-35,-49,18,18,29,-42,-29,-120,-18
19,-35,-85,-51,-18,31,0,66,56,118
-82,-152,-151,-63,-14,22,1,73,61,12
-64,-132,-108,-31,-5,-18,-33,7,10,-43
7,-66,-41,-33,-31,-31,-14,47,51,-7
79,-12,7,-11,-41,-28,-9,45,12,-39
27,0,52,48,5,-5,-16,-9,-91,-183
62,0,1,11,-37,-27,-26,-18,-63,-97
106,118,-21,-61,-70,-33,18,34,70,17
56,394,304,-23,74,52,56,34,194,42
41,341,321,-15,142,48,52,58,265,152
-58,35,93,36,149,34,76,60,114,126
-99,-129,-35,75,108,21,36,1,-43,13
-91,-139,-99,37,57,32,26,1,-70,-10
-57,-134,-111,-3,16,33,15,-24,-54,66
-18,-78,-138,29,33,55,10,-30,-76,9
-75,23,-35,85,111,80,33,4,-44,-107
-139,-48,27,74,82,36,23,20,-32,-165
-76,-46,40,50,58,10,5,14,-53,-172
-69,-49,23,51,59,30,-19,-33,-118,-145
-81,-71,-13,17,35,-15,-58,-67,-99,-43
-14,-56,-35,-24,-7,-63,-32,-24,-30,-32
50,-18,-27,-24,-22,-85,-18,-18,-38,-49
2,76,-18,-16,31,-62,-8,-12,72,0
40,343,189,-23,113,0,-4,-23,262,89
18,74,77,-16,23,-33,-45,-42,81,64
4,-79,-15,4,-15,-41,-67,-69,-125,-16
-30,-134,-30,1,11,-17,-41,-34,-64,52
45,-147,-103,-59,-40,-59,-22,-7,32,171
162,-91,-94,-68,-62,-94,-24,-18,24,243
89,-34,14,-22,3,-36,8,10,40,173
179,237,222,31,70,-12,-44,-72,9,202
89,98,143,64,30,-25,-49,-108,-102,310
28,-29,27,36,-31,-53,-30,-85,-150,219
41,-56,-80,-11,-66,-41,-11,-62,-152,61
-101,-116,-90,-16,-39,-5,49,-13,-139,-193
-96,-58,47,63,30,35,37,-79,-247,-476
-21,-55,14,25,10,47,46,-8,-120,-412
-101,-135,-100,-97,-57,63,136,190,163,-237
-40,-95,-115,-121,-80,31,99,164,144,-206
-6,-90,-83,-64,-68,-1,36,70,41,-152
44,-18,-11,7,-39,-15,-7,-5,-21,-62
120,45,28,37,-18,-2,-24,-67,-90,-10
60,-18,-54,-28,-57,8,43,43,75,78
-77,-74,-62,-20,-34,18,44,74,94,43
-176,-50,-36,29,24,57,41,67,57,10
-102,152,125,-14,50,69,47,90,205,11
37,301,257,-47,28,35,31,60,248,-22
5,93,104,-32,-55,-45,-1,42,123,-67
-62,-58,-17,-18,-88,-46,3,63,49,-98
-61,-74,-43,-20,-50,12,22,68,45,-79
-2,-70,-33,-10,-40,23,-8,11,-17,-71
-13,-40,16,44,-1,12,-99,-94,-110,-104
12,36,103,109,84,7,-202,-184,-105,-75
59,76,96,75,78,33,-220,-185,-63,6
-38,-32,9,44,43,62,-131,-104,-85,-17
-96,-135,-90,-18,-3,60,52,37,10,46
-69,-151,-141,-70,-33,91,271,163,19,9
-4,-81,-115,-34,-1,80,244,110,-72,-78
117,-31,-29,-19,-16,5,106,40,-81,22
116,3,24,12,3,-12,24,1,-39,67
48,60,75,10,20,0,14,15,28,49
-10,-59,-61,-40,-45,-12,36,98,33,61
19,-68,-97,-53,-72,-35,31,91,35,159
20,-34,-126,-17,-50,-29,42,59,13,165
10,-2,-28,30,2,-12,31,-1,-84,30
68,14,1,26,-7,-53,-51,-87,-121,13
114,4,-53,-21,-53,-76,-42,-71,-44,82
45,107,34,-64,-29,-18,28,40,152,129
2,396,286,-72,71,89,144,126,358,44
24,304,223,-40,62,90,127,61,164,-55
15,-27,-29,-11,2,7,26,-22,-71,-43
-54,-103,-37,33,37,-7,-61,-87,-107,7
-166,-182,-155,-5,1,-16,-67,-25,6,9
-38,-170,-205,-96,-99,-79,-61,41,119,140
116,-41,-56,-63,-78,-32,-26,69,119,181
144,138,130,37,-4,20,-17,-10,70,99
60,62,110,83,22,31,-5,-68,-59,-1
-32,-63,2,-2,-3,27,41,33,43,35
91,59,62,36,-7,-34,-47,-61,-17,48
39,44,48,59,25,-3,-55,-110,-62,54
-92,-72,-33,9,45,74,23,-43,-38,48
-41,-43,-6,16,22,34,-25,-39,-58,23
-27,47,93,-3,9,-2,-21,39,92,37
83,240,257,-7,26,-20,-58,21,211,103
78,57,58,-7,-8,-28,-68,-13,46,20
-80,-107,-68,-10,7,41,3,29,-52,-125
-205,-195,-151,-46,4,66,48,76,-87,-209
-126,-147,-114,-53,-34,6,12,42,-69,-50
-49,-101,-65,-41,-46,-17,-11,3,-52,109
-54,-80,-38,-35,-33,-3,-4,-2,-5,133
-51,69,107,11,44,33,-30,-39,11,62
-28,-6,13,30,19,2,-94,-100,-75,68
-6,-22,2,61,42,20,-102,-119,-156,74
-54,-44,-10,60,46,31,-86,-69,-161,22
26,-46,-134,-14,-38,-19,-78,7,-51,89
89,-1,-90,-7,-27,-26,-86,-41,-61,62
-5,35,58,85,54,0,-114,-144,-194,-123
-103,52,83,62,81,62,-10,-37,-119,-216
-69,-17,-19,-36,37,82,97,112,37,-205
-34,-91,-112,-70,5,61,101,117,17,-242
-38,-60,-97,-45,13,45,65,47,7,-146
54,12,-46,-8,14,1,-4,-69,-35,206
27,-42,-178,-36,-8,4,13,-31,-12,600
-70,-147,-273,-101,-64,-4,48,83,121,475
2,-59,-104,-92,-71,-38,-41,7,116,149
82,278,207,-42,35,0,-55,-50,220,-24
83,408,314,-12,98,35,-23,-19,260,-168
9,98,89,8,37,21,-14,17,38,-322
-28,-64,-78,14,-16,-12,-32,31,-10,-172
80,23,-3,57,-18,-52,-97,-72,-54,26
154,110,127,113,5,-47,-115,-176,-152,-2
105,65,87,88,35,7,-11,-116,-173,-65
24,-31,-38,10,32,52,94,36,-92,-96
-124,-128,-107,32,41,78,95,103,-36,-180
-142,-153,-50,17,11,34,22,81,-9,-236
-78,-123,-25,1,-10,3,-6,40,-71,-409
-86,-85,28,34,20,12,-7,-21,-151,-429
16,-45,22,10,-19,-23,-21,-49,-116,-271
25,-52,-21,-51,-60,-49,-26,3,30,-97
-39,-77,-39,-66,-44,-15,27,56,86,-41
-77,-79,-80,-102,-36,5,97,132,163,7
-10,-98,-66,-65,-34,-37,35,68,34,11
-23,-62,-13,1,10,-26,1,1,-86,-65
-11,-20,26,49,21,-29,-34,-42,-103,-119
11,26,92,86,4,-73,-94,-112,-123,-77
-72,62,176,153,25,-122,-172,-233,-163,-43
8,30,52,12,-62,-153,-144,-137,29,168
83,15,-66,-162,-88,-52,25,122,233,285
69,165,85,-112,50,116,124,192,261,229
6,91,110,-22,89,121,108,110,78,97
44,-21,-26,16,40,41,30,20,-102,42
86,-20,-124,16,17,14,16,-13,-124,-1
11,-81,-108,-24,-25,-6,20,31,-24,-13
19,-31,-9,-6,-20,-8,-1,38,-35,-12
35,33,79,47,14,10,-27,-5,-60,-2
-32,78,186,99,64,9,-93,-103,-117,-14
-43,23,103,78,-1,-63,-169,-171,-155,-26
-20,-56,-47,-47,-97,-105,-106,-59,25,70
-101,-165,-144,-133,-126,-81,-15,84,195,114
-91,-153,-127,-129,-106,-47,-48,16,128,87
46,-66,-85,-80,-89,-1,-81,-64,42,151
136,42,-9,9,-31,26,-65,-84,29,194
173,295,252,60,42,85,91,-30,124,193
190,442,385,38,78,137,258,53,251,260
42,26,30,-58,-33,120,290,187,238,143
-52,-99,-88,-60,-51,88,182,153,83,-88
-133,-87,-59,-3,23,34,95,67,-92,-199
-211,-115,-73,19,30,7,107,91,-39,-120
-91,-61,-97,15,-23,-55,61,54,-14,32
0,27,-6,25,21,-73,0,-14,-44,104
-26,157,111,29,103,-46,5,1,71,114
2,-8,-18,-11,-7,-90,-56,-15,-18,105
34,-64,-58,-35,-60,-103,-90,-17,-30,112
-15,-70,-44,-11,-2,-66,-80,-38,-91,-17
-79,-63,-32,36,61,-36,-74,-59,-174,-215
-104,-61,-30,49,73,-22,-67,-63,-192,-329
-118,-72,-35,21,56,-12,-34,-47,-118,-293
-78,16,35,18,51,-19,-26,-30,-50,-161
1,79,73,51,44,-45,-91,-83,-90,-31
-33,16,56,93,60,-23,-120,-121,-158,-25
-108,-40,13,72,59,20,-58,-79,-127,-102
-47,-43,-48,11,8,19,17,13,-56,-116
110,-13,-135,-61,-64,-53,60,22,32,35
145,46,-189,-38,-55,-72,70,-27,7,63
24,64,-87,-17,-3,-15,21,7,72,21
11,378,256,21,126,46,9,39,327,54
-4,444,327,34,144,51,14,24,333,36
-21,109,111,32,18,-9,-46,-24,43,-13
34,-6,19,17,-31,-33,-85,-21,-62,-12
44,-27,-11,-3,-44,-55,-88,-6,3,23
74,-22,-2,-3,-52,-68,-96,-11,21,76
38,14,58,66,9,-13,-73,-66,-105,-5
-25,0,59,46,30,24,10,-59,-94,-8
-36,-105,-92,-52,-40,40,153,95,47,17
-19,-98,-92,-35,-51,12,102,84,4,58
-74,-121,-146,-64,-57,28,83,147,41,80
21,-90,-167,-50,-56,13,33,111,-8,136
-3,-110,-109,-42,-40,24,43,105,-1,99
16,-92,-65,-40,-50,7,22,65,11,91
43,-15,-1,-21,-44,-28,-22,-22,62,140
166,168,151,56,-2,-69,-123,-189,9,231
329,275,240,152,22,-101,-239,-356,-160,245
59,42,47,44,4,31,26,-48,-111,-26
-174,-152,-121,-74,-40,88,197,206,21,-166
-121,-136,-127,-74,-55,53,160,144,66,-89
-51,-99,-104,-49,-51,24,91,66,36,-27
-52,-66,-64,-25,-20,34,61,83,35,35
-58,143,106,26,81,96,73,75,72,0
-76,357,338,83,173,127,86,27,108,-59
-131,116,136,43,72,30,26,35,132,46
97,-30,-51,-19,-81,-76,-53,-12,5,94
213,-8,-83,-74,-134,-91,-57,-12,3,133
18,-77,-86,-27,-55,7,27,60,11,30
-55,-66,-22,50,5,56,37,22,-93,280
74,28,39,33,-27,-14,-59,-84,-121,476
95,29,12,-22,-48,-32,-107,-105,-66,153
1,-105,-102,-49,-60,5,-20,-15,-102,-262
-33,-116,-133,-38,-35,58,50,60,-52,-240
11,-61,-162,2,-6,33,-13,-27,-44,2
-24,-71,-141,-12,-14,29,-13,4,-4,-26
-80,-136,-92,-44,-20,39,56,135,7,-284
-15,-58,-24,-9,6,27,37,89,-36,-324
42,206,185,17,96,67,32,70,54,-297
50,341,258,17,119,91,19,44,133,-221
-14,4,-10,11,14,27,-38,-14,-50,-115
8,-72,-28,8,-18,-24,-62,-40,-63,59
86,-45,-26,8,-36,-47,-75,-51,-28,225
163,7,-37,40,-31,-84,-127,-125,-61,369
151,-14,-32,22,-27,-66,-92,-88,-49,387
-12,10,54,30,62,51,21,-14,-59,-12
42,159,141,-17,65,48,22,15,122,-94
60,-43,-41,-97,-48,-26,2,25,67,-104
-59,-114,-57,-65,-30,-17,24,-4,-17,-179
-77,-93,-32,-52,-26,-24,-12,-19,-3,-193
-35,-35,-10,17,0,-13,-47,-61,-73,-311
-43,15,-5,80,22,0,-58,-103,-113,-345
-83,-28,-15,0,-8,10,-4,0,38,-241
-28,1,-64,-70,-20,2,7,56,185,-47
2,-56,-50,-60,-30,-28,-46,22,154,65
0,-83,-27,-15,-9,-28,-98,-6,29,54
-36,-93,-33,-13,-18,-25,-104,14,4,39
6,-97,-51,-42,-41,-29,-83,29,2,33
142,-20,-38,-40,-61,-70,-99,3,-73,-11
36,-9,-92,5,-23,-7,-89,-37,-147,-113
-97,15,8,29,46,111,-33,-45,-148,-226
-51,257,294,42,97,100,5,-55,-40,-245
-70,218,277,22,69,49,143,24,87,-166
-92,-38,28,0,-18,-9,238,75,78,-73
-42,-71,0,42,-10,-18,173,32,-14,-76
-12,-12,74,100,20,-47,37,-94,-124,-45
-44,-46,24,69,16,-27,29,-44,-52,13
-19,-79,-47,0,2,6,93,85,38,9
60,25,3,-7,4,3,42,82,109,71
42,27,18,29,4,-6,-23,14,76,47
-33,-6,-18,40,0,2,5,-35,25,23
-23,-38,-75,-9,-34,2,26,-5,66,69
-5,-41,-76,-11,-44,6,49,31,56,29
-37,-27,-25,23,-16,-5,94,36,44,31
76,44,27,43,-21,-56,3,-51,14,115
170,134,87,63,-20,-87,-83,-144,0,180
107,120,81,28,-23,-17,-40,-94,109,213
13,-19,-35,-15,-69,24,27,-5,37,70
-8,-83,-113,-54,-93,36,67,111,103,140
-26,-69,-81,-46,-84,57,111,167,171,151
91,32,24,6,-74,11,24,41,5,71
121,80,81,29,-73,-39,-68,-48,-48,124
12,2,-21,-17,-62,11,-23,13,-22,56
-88,113,21,-42,66,86,64,72,150,8
-34,376,288,50,238,55,14,-24,225,35
-1,165,159,72,146,-54,-58,-52,63,70
-31,-64,-14,57,42,-88,-54,-32,-80,24
24,-11,19,57,12,-79,-61,-61,-111,-25
72,22,23,61,9,-63,-70,-89,-146,3
-39,-88,-80,2,1,-53,-16,-20,-133,-49
-99,-120,-110,-51,-8,-39,19,39,-39,-31
1,6,-7,16,38,4,7,-27,-104,-25
-74,-67,-80,37,30,10,16,8,-123,-13
-59,-87,-114,-2,-11,-14,-3,47,-13,72
58,-21,-61,1,-36,-28,-43,-15,-44,71
3,-86,-62,-18,-34,-13,-28,6,5,62
-28,-114,-76,-31,-44,-22,-23,7,21,4
63,29,57,48,-3,-60,-128,-153,-111,-47
101,347,277,80,88,-27,-139,-185,98,42
-63,272,173,-18,74,42,-8,36,343,61
-81,-72,-60,-33,-23,36,9,68,93,-17
-29,-106,-65,-35,-32,31,8,52,39,54
24,-92,-63,-40,-25,22,-12,33,9,89
58,-92,-68,-56,-32,0,-18,12,9,111
43,-89,-67,-33,-15,-13,-9,-40,7,126
50,27,72,23,41,15,2,-95,-33,96
-19,92,164,47,70,46,137,-33,-29,-3
-54,-78,-56,-32,-16,0,220,69,-11,-29
-22,-114,-143,-71,-44,-25,119,93,26,-123
17,-73,-100,-18,-30,-46,-4,26,-48,-189
88,5,-48,27,-26,-73,-101,-37,-89,-97
144,55,-112,32,-6,-53,-85,-63,-160,-127
-68,-86,-158,3,35,66,61,63,-134,-224
-95,-54,-11,-13,30,60,26,82,-4,-76
-55,-62,8,-12,-1,21,-22,45,-9,-6
-87,-100,-24,-1,-5,22,-33,23,-1,15
-20,-83,-69,-14,-28,8,-41,12,16,53
-22,-66,-56,-3,-17,7,-37,14,6,23
-6,-72,-107,-30,-33,-8,-19,44,7,30
136,24,-70,-9,-27,-20,-20,-32,-130,10
59,116,57,7,41,39,46,10,-31,32
1,359,336,-7,116,90,63,74,219,90
31,298,294,-2,90,33,-4,0,99,-16
-23,-38,-4,-19,-4,-16,-38,-29,-53,-91
-67,-114,-59,-12,-15,-10,-28,-9,-17,-102
12,-53,-12,-9,-17,4,-14,-13,-53,-136
-18,-29,1,-20,-20,10,8,18,-45,-183
-32,0,-7,-31,-32,-6,5,41,38,-117
25,32,9,-32,-23,-20,-23,11,68,-15
31,-52,-35,-39,-29,-21,-19,-17,30,37
84,-35,-32,-20,-34,-49,-20,-24,17,118
100,-18,-39,-1,-14,-30,13,-34,-37,37
-23,-83,-45,0,4,24,57,27,-40,-83
-86,-91,-21,9,13,29,23,29,-27,-98
-93,-61,-11,16,18,18,17,24,-3,-46
-79,0,30,27,35,16,12,-7,25,-3
72,69,66,13,8,-32,-59,-95,-10,72
51,-16,8,1,-12,-41,-65,-77,-81,40
-161,-122,-32,7,34,24,20,17,-57,-89
-84,-94,-61,16,15,-2,-20,-31,-65,-34
19,-58,-54,4,-14,-27,-41,3,-21,49
0,-81,-41,-35,-17,9,16,112,47,33
-26,-57,-25,-40,17,34,22,104,30,0
-27,237,179,-11,124,80,29,65,168,70
-6,425,287,-17,150,74,54,73,341,182
21,133,98,0,41,-32,-50,-46,33,118
-19,-105,-77,-12,-39,-86,-130,-83,-119,79
-5,-107,-158,-15,-30,-94,-154,-87,-155,-23
-64,-154,-142,-42,-33,-65,-134,-21,-71,-12
-45,-152,-136,-87,-64,-63,-112,43,42,51
0,-68,-31,-53,-33,-34,-128,-8,-10,28
57,20,39,-16,-3,12,-108,-48,-37,68
26,-33,-37,2,15,30,-10,-36,-71,11
-76,-100,-128,30,63,86,242,21,-110,-90
-11,-29,-2,46,69,69,292,-1,-140,-65
49,-9,33,20,20,7,206,14,-49,18
48,-63,-8,-14,-11,-23,129,69,62,67
60,3,56,23,0,-53,4,-19,25,35
69,239,246,23,31,-23,-4,-16,216,130
120,211,158,-41,-1,-15,58,64,314,245
107,0,-11,0,-17,-17,44,18,51,160
76,-18,21,35,15,0,30,26,-11,270
15,-51,-20,0,22,17,47,48,3,304
-75,-75,-40,-3,20,24,36,1,-38,126
-96,-79,-27,-9,-4,22,26,18,2,55
63,91,94,1,-19,-7,-9,4,147,446
265,210,129,-19,-64,-55,-68,-55,157,1095
137,-60,-82,-80,-137,-83,-70,-27,137,957
-30,-150,-140,-93,-122,-56,-20,14,130,340
12,-77,-72,-68,-101,-36,-16,-39,24,23
10,-38,-39,-49,-98,-46,-52,-32,-5,-87
-45,-45,-27,0,-6,-26,-46,-5,-81,-403
-152,-39,-8,72,96,6,6,-6,-184,-909
-157,88,93,169,207,34,-2,-108,-292,-1113
-131,73,137,234,227,47,-27,-153,-369,-1058
-23,121,173,242,207,66,-72,-182,-331,-747
143,153,29,102,75,6,-136,-187,-155,-331
44,-12,-207,-38,-28,28,-30,17,-34,-261
-247,-216,-329,-99,-35,109,152,259,129,-237
-100,-101,-107,-28,-18,70,83,132,60,-183
-48,134,154,43,69,65,21,-10,-21,-256
-75,388,311,-12,139,100,65,54,246,-120
66,300,138,-63,54,37,10,64,238,55
89,-34,-111,-54,-55,-58,-58,-4,-18,76
62,-103,-87,-35,-54,-84,-78,-42,-33,162
91,-84,-107,-56,-76,-111,-45,-5,34,174
153,-58,-82,-59,-93,-135,-49,-22,9,151
-59,-60,-20,10,-15,-52,6,7,8,25
-64,14,35,16,-1,-40,36,20,10,-20
-18,-30,-8,-8,-46,-38,38,13,-98,-111
-59,-87,-49,-34,-55,-15,52,10,-101,-161
-61,-98,-46,-32,-63,-40,-6,-34,-87,-86
-2,-62,-31,-23,-84,-64,-58,-68,-92,12
-121,-126,-144,-40,-49,22,41,24,-23,19
-159,-147,-124,-18,-2,90,132,87,3,-2
-52,-32,30,23,33,72,93,46,25,83
-5,4,63,43,40,41,26,20,39,145
21,16,82,81,34,0,-46,-39,-50,118
36,28,75,62,25,15,-41,-43,-83,111
98,23,40,23,-11,13,-34,-46,-86,77
6,-50,-10,1,-16,10,-22,3,-20,10
-49,-72,-43,-10,-20,21,14,65,29,-14
-53,4,-20,17,16,50,29,36,0,-46
-63,185,120,-5,70,70,69,68,154,28
-66,277,290,4,83,63,72,51,199,40
-39,62,111,39,15,-3,5,-15,27,31
61,-42,15,54,-21,-37,-51,-58,-97,63
-30,-98,-37,59,13,20,-4,-51,-209,-47
-172,-174,-122,-1,-11,35,51,88,-25,-17
64,-62,-80,-65,-94,-39,-3,54,-10,44
54,-7,-17,-33,-58,-32,-18,15,-41,-25
3,8,35,38,-8,-25,-32,-25,-58,-43
32,-38,-37,6,-26,-23,0,4,-40,31
-75,-104,-89,-33,-28,24,71,69,7,17
-93,-102,-77,-24,-34,4,61,34,11,37
-36,-101,-107,-51,-58,-18,51,46,47,41
48,-79,-153,-47,-61,-13,33,28,25,61
95,8,-83,-8,-33,-4,-18,-34,-16,84
60,187,139,19,41,27,-40,-23,85,77
59,46,44,10,-19,-11,-100,-38,5,44
0,-45,-14,4,-32,-20,-132,-36,-43,-36
0,-34,-14,10,-25,7,-121,-23,-64,-115
23,-22,-24,-9,-35,45,-88,-22,-30,-65
38,-32,-57,-41,-64,19,-46,-1,40,33
24,-30,-29,-29,-43,4,89,42,58,40
0,179,153,18,69,61,221,48,135,9
-30,362,232,20,136,92,169,66,299,39
59,83,5,4,8,-7,0,-15,38,10
95,5,16,34,-1,-24,-77,-116,-125,0
48,-2,-3,47,14,-19,-103,-129,-96,56
-19,-38,-133,2,-20,2,-27,16,48,76
-26,-22,-114,27,-11,26,10,-9,-31,-33
8,-14,-70,-5,-26,11,16,-45,-33,-7
20,32,-34,-17,0,11,87,-11,77,47
48,-13,4,5,-23,-33,157,-5,21,59
6,-98,-60,-58,-69,-58,159,98,62,33
-35,-111,-59,-59,-51,-41,109,97,36,12
-39,-97,-35,-27,-35,-44,64,60,29,65
-6,-65,-20,-11,-46,-74,14,37,47,184
48,-54,-53,-47,-87,-101,-19,31,110,290
90,62,60,-57,-46,-56,-23,24,152,271
165,307,325,1,35,-43,-31,-7,184,268
86,189,252,40,51,-37,-58,-27,81,210
-19,-26,23,30,39,8,-43,-33,-88,55
-162,-121,-53,14,47,34,2,4,-78,-106
-123,-144,-86,-3,18,12,-18,-1,-64,-147
-41,-109,-81,-10,-6,6,-15,8,-9,-41
-24,-40,-52,43,24,44,6,-21,-65,-57
-4,12,45,47,31,42,-6,-42,-62,0
0,-54,-13,11,-11,1,-32,-38,-99,-47
-96,-91,-27,18,5,42,12,23,-59,-117
-6,-2,52,52,-11,18,-57,-39,-138,-188
34,40,73,72,-27,-20,-115,-107,-201,-168
3,0,8,21,-12,-38,-79,-58,-93,-138
31,5,-31,9,30,-38,-65,-46,-50,-171
-74,3,-71,60,140,39,-9,-9,-14,-206
-131,-76,-108,11,89,24,27,48,92,-138
31,-37,-79,-32,-2,-17,0,-4,33,-74
127,38,-32,-14,-26,-44,-29,-45,-15,-11
164,87,48,30,-28,-79,-87,-81,-31,62
42,54,75,78,17,-28,-76,-58,-29,51
-89,-7,7,50,38,27,3,54,26,2
-61,32,0,25,60,37,20,73,82,173
25,343,285,63,190,61,-21,-8,204,264
111,419,313,74,185,27,-97,-116,169,215
61,31,-104,-7,12,-66,-93,-38,86,167
-65,-160,-201,-39,-8,-66,-43,61,63,62
13,-101,-65,0,17,-44,-58,5,-54,-15
81,-49,-12,24,-7,-80,-102,-70,-98,8
95,20,41,60,-12,-110,-131,-108,-88,-59
62,59,36,7,-32,-55,-48,-9,44,-62
-49,-76,-52,-63,-52,51,73,114,77,-83
-149,-205,-141,-88,-38,150,130,154,27,-128
-148,-164,-141,-44,5,164,107,162,0,-160
-150,-101,-111,44,52,134,65,95,-76,-206
-130,-65,4,92,57,84,-15,-41,-220,-231
-175,-80,1,62,22,48,-46,-63,-208,-203
-175,-29,2,3,12,34,-24,11,-6,-72
13,219,174,13,36,-8,-72,-24,63,-28
49,24,36,6,-44,-68,-86,-15,-32,29
59,0,20,21,-47,-80,-39,-37,-60,29
17,-2,26,33,-14,-43,15,-7,-47,-8
-35,-19,16,48,11,18,61,14,-27,-51
19,26,14,38,1,22,15,-23,-5,20
30,49,1,60,30,25,-11,-87,-74,-1
77,148,70,25,37,7,1,-39,-25,35
-28,61,66,-11,16,25,50,85,104,35
-154,-95,-30,-2,23,57,75,86,72,-33
-16,-21,9,7,6,24,12,-34,1,-9
67,-15,-26,-63,-66,-34,-6,18,92,82
56,-55,-81,-101,-99,-54,5,86,121,74
-89,-136,-133,-106,-62,-6,32,121,91,-10
-95,-75,-50,-62,-22,-11,-25,66,79,19
59,227,253,-10,45,-29,-109,-16,148,133
114,192,239,39,49,-33,-192,-103,16,183
-29,-84,-9,-18,20,57,-103,-3,-96,122
-83,-156,-131,-54,4,100,-21,56,-91,78
-26,-109,-203,-44,-14,36,6,25,-55,101
8,-79,-182,-17,-9,5,160,20,-44,108
21,-52,-94,4,11,0,208,34,-15,46
86,162,172,9,55,12,155,30,79,-2
127,397,381,9,106,43,67,9,179,6
94,236,250,22,45,-7,-6,-27,61,-18
-22,-11,22,42,-6,-50,-34,-58,-102,-94
-99,-68,-93,20,-25,-34,-11,-19,-30,-91
-24,-79,-46,-21,-62,-58,-22,-3,44,-51
121,-5,-3,-3,-63,-115,-97,-105,-56,-8
167,84,25,50,-32,-115,-140,-178,-107,96
100,75,89,40,-10,-64,-45,-75,16,161
-44,-103,-33,-9,-17,9,61,74,87,88
-77,-136,-63,-16,-21,3,20,50,40,33
-86,-160,-84,-27,-24,9,-3,39,20,16
-44,-116,-25,7,-5,33,3,28,2,-12
-22,-86,-11,16,-11,19,10,21,1,-102
41,-36,-8,1,-27,5,21,-24,-61,-208
58,38,37,-15,-15,21,38,-51,0,-139
-24,-67,-72,-45,-39,25,83,16,84,-49
-13,-94,-151,0,-19,39,85,10,-17,-161
81,-14,-9,32,-7,8,-7,-88,-145,-184
54,1,69,27,0,26,-11,-74,-156,-155
12,6,84,36,11,58,20,-20,-117,-130
83,63,150,106,18,16,-49,-116,-171,-84
60,108,157,92,26,3,-55,-132,-107,-49
20,313,180,-52,47,58,55,93,332,84
15,268,117,-96,42,55,67,106,318,97
-24,-78,-170,-94,-59,-7,20,46,49,62
-55,-163,-131,-57,-61,-1,0,30,-45,30
-10,-117,-53,-30,-48,9,25,42,-29,48
58,-96,-52,-29,-45,5,49,45,-41,31
31,-85,-47,-21,-39,3,56,22,-48,9
13,10,25,-5,-14,13,26,14,8,32
45,22,38,23,-25,3,-20,0,-14,58
100,-1,8,18,-47,-23,-83,-24,-45,101
29,-55,-71,-8,-31,-12,-65,-10,-37,67
-17,-96,-91,-19,-21,0,-52,-24,-62,3
41,-46,-29,0,-15,-24,-72,-83,-98,39
39,-36,-13,23,-1,-34,-87,-78,-55,146
-38,-43,-16,-9,0,-4,-22,66,142,165
2,94,100,-15,21,31,47,122,195,155
58,7,23,7,-13,-14,26,51,49,161
72,-5,45,48,-18,-21,-3,0,-23,99
153,47,53,44,-52,-41,-44,-53,-45,50
55,24,20,53,-25,-21,-31,-52,-97,-208
-65,-35,-23,64,14,8,-13,-56,-146,-104
-84,-103,-74,-11,-9,-14,-1,-10,-21,399
-69,75,102,-20,28,-15,-15,-1,166,498
164,318,310,52,41,-103,-200,-249,31,286
88,14,-9,8,-63,-136,-220,-212,-96,80
-67,-147,-241,-22,-38,-22,-69,-49,-133,128
-151,-211,-243,-87,-49,28,45,105,20,301
-38,-106,-158,-30,-30,68,82,152,1,17
-22,-70,-197,24,5,81,63,120,-63,-239
-16,-7,-90,60,57,76,59,100,-12,-349
8,52,66,57,56,61,43,100,64,-345
61,51,97,64,2,-8,-40,26,-14,-345
61,59,82,90,42,7,-56,-48,-118,-488
-138,-111,-51,35,80,103,65,21,-131,-651
-154,-149,-95,-37,22,87,100,65,-69,-508
-12,-59,-44,-35,-31,5,24,0,-26,-285
104,64,9,18,-4,-19,-72,-107,-28,-121
160,370,208,86,124,24,-100,-179,44,-15
-38,399,228,-32,157,108,89,82,341,50
-127,19,1,-156,8,57,151,233,300,1
-41,-128,-78,-108,-63,-25,46,82,38,0
-15,-113,-70,-91,-57,-50,6,1,2,126
-23,-129,-106,-94,-49,-47,9,27,50,174
-46,-115,-88,-51,-25,-47,-15,-15,-21,78
-99,-91,-56,-49,-16,-3,-18,3,32,-6
-73,-37,-32,-58,-35,34,-57,5,32,-100
-52,-95,-63,-44,-54,58,-102,-30,-51,-106
2,-68,-54,-10,-26,71,-66,-22,-43,-89
32,-6,-2,22,16,50,53,-16,-50,-30
52,3,-16,27,14,38,193,19,-12,84
77,36,33,51,34,24,153,-5,-8,98
53,59,63,81,62,25,53,-52,-16,54
-71,18,18,57,89,49,89,26,110,45
-107,-76,-51,0,34,4,107,94,134,-6
29,-41,-58,-20,-43,-88,40,30,15,-11
114,12,16,18,-48,-94,-30,-54,-69,63
113,57,88,79,-19,-100,-78,-122,-123,72
69,29,70,55,-31,-112,-73,-61,-59,58
65,40,75,67,3,-84,-38,-18,-64,1
-59,33,100,118,63,-15,-18,-38,-129,-109
69,9,-3,-4,-34,-51,-4,15,-37,50
53,-63,-131,-80,-51,-2,84,77,4,90
-42,-152,-203,-103,-48,-7,75,105,72,103
-57,-116,-161,-65,-25,-9,32,95,87,178
9,-21,-145,-13,6,-2,-30,22,8,228
-21,-56,-132,-7,4,0,-36,25,-15,173
-51,-69,-57,-46,-16,17,29,97,80,170
34,181,167,-64,15,35,45,99,224,238
108,429,341,0,80,48,12,20,169,79
-27,186,148,35,61,29,-13,2,-20,-181
-47,-30,-21,-11,-28,-26,-46,26,-19,-100
47,6,-33,-4,-19,-37,-43,-2,-40,22
22,-14,-23,14,26,-11,-35,-20,-69,61
-35,-54,-68,-4,15,-18,-35,0,-11,81
-40,70,57,25,22,-17,-43,-10,32,64
-8,158,137,17,25,-21,-64,-41,94,64
3,-43,-43,-36,-58,-78,-81,-16,94,0
41,-36,-35,-14,-49,-52,-48,-4,68,-43
75,26,45,41,-18,-34,-56,-54,19,18
79,27,15,23,-17,-10,-33,-16,7,25
0,-37,-56,5,15,42,11,3,-112,-50
-53,-106,-120,-3,31,48,-17,20,-229,-78
2,284,160,36,119,122,98,30,57,-79
39,374,300,68,137,135,100,0,58,-86
-5,45,63,41,24,51,60,5,-40,-75
-10,-9,6,20,-13,6,46,11,-12,7
-53,-39,-16,2,-16,0,58,22,13,61
-14,-39,-2,10,-23,-23,29,-30,-48,60
43,15,56,59,7,-13,3,-95,-129,120
112,113,113,49,-4,-40,-20,-107,-56,239
47,109,104,33,9,-10,10,-53,-29,91
-75,-77,-39,0,-8,17,63,30,4,-56
-6,-70,-62,-25,-52,-23,55,43,54,-10
-34,-46,-7,25,-8,2,42,-27,-42,-70
-51,-35,1,72,18,-13,-22,-87,-126,-177
6,26,90,95,19,-37,-89,-140,-202,-250
-19,12,12,38,5,-15,-42,-78,-132,-217
-64,185,37,-63,49,47,69,42,145,-80
-125,328,233,-44,125,115,119,84,283,-1
-128,47,52,-25,18,37,3,34,109,15
-24,-108,-85,-30,-89,-63,-88,-20,-61,-28
9,-139,-192,-91,-107,-70,-54,16,-80,-54
-21,-192,-157,-106,-102,-22,-4,72,-33,-24
27,-120,-90,-55,-71,1,-27,21,-66,54
61,-40,-49,7,-25,-4,-80,-99,-132,77
17,-47,15,6,-25,-13,-74,-78,-71,110
-55,-133,-29,-43,-39,27,32,105,30,16
-1,-109,-28,-22,-28,15,19,72,0,-58
20,-45,19,31,-7,-5,-8,-33,-30,-26
35,-3,50,47,8,2,-15,-45,-9,13
-30,-67,-6,24,6,1,25,17,-21,-62
-89,-110,-71,-16,-2,5,74,73,28,-74
-24,-34,-44,-38,0,-5,47,51,89,150
-2,-27,-37,-29,-18,-23,24,28,72,310
24,-23,-14,-30,-46,-60,4,-7,34,205
74,-6,-68,-24,-58,-60,-20,-12,20,143
27,2,-66,27,-5,-11,-43,-50,-55,139
-69,-102,-64,-7,-9,-24,-74,-32,18,300
-28,-114,-73,-31,-32,-61,-108,-25,49,227
65,95,111,0,9,-21,-130,-21,60,86
114,380,326,-3,94,44,-116,51,291,114
99,312,309,40,104,54,-148,-14,169,19
93,117,185,123,66,5,-208,-176,-137,-131
-15,-11,76,107,90,39,-70,-152,-222,-286
-80,-104,-37,20,43,55,178,16,-140,-324
15,-96,-52,-34,-33,26,225,52,-156,-352
10,-87,-52,-28,-13,62,202,14,-223,-382
-29,12,14,-22,23,107,259,57,-61,-223
-94,-82,-125,-25,31,93,331,152,57,-111
16,-55,-80,9,23,38,219,80,14,338
41,-55,-22,0,-13,2,84,28,23,672
46,-70,-47,-40,-55,-40,19,18,74,518
2,-70,-53,-30,-49,-50,9,-1,86,206
-22,-43,-18,9,-7,-21,-7,-42,25,-48
-8,75,76,-36,5,4,5,26,171,-51
-22,109,93,-51,17,14,34,73,239,-117
-16,-72,-38,-19,-25,-19,-15,17,10,-380
54,-27,-11,-11,-30,-21,-23,-41,-88,-427
25,8,15,29,-12,-9,-5,-71,-101,-268
-18,12,29,51,18,-7,-19,-72,-64,-164
31,64,72,82,19,-44,-83,-116,-70,-118
41,62,21,23,-4,-43,-33,-41,31,-33
16,273,147,-32,72,45,92,49,298,35
0,225,118,-12,75,89,118,54,259,41
-71,-82,-89,-17,-27,26,95,56,108,3
-88,-113,-131,-38,-55,-6,71,54,86,-21
-76,-102,-102,-1,-22,2,9,-13,-27,-83
-93,-147,-120,-11,-19,-4,-16,-7,7,-17
-63,-129,-118,-46,-52,-8,8,44,98,132
-47,-105,-81,-36,-42,-7,1,18,54,118
-38,-82,-51,2,-29,-21,-46,-29,-32,47
-21,-113,-106,-50,-76,-77,-92,-24,22,99
56,-86,-141,-114,-130,-108,-81,18,111,221
136,6,-118,-97,-134,-115,-79,-2,37,296
98,38,-64,-4,-58,-61,-63,-46,-111,244
-116,-19,-37,108,81,64,21,-32,-176,8
-49,7,47,83,42,39,-7,-68,-227,-141
32,2,-7,-19,-32,-21,-10,-13,-131,-65
33,-9,-102,-11,11,-23,6,25,-56,-18
8,39,-41,66,88,4,-29,-21,-78,-30
-4,46,39,64,82,10,-57,-17,-53,-83
10,47,64,52,76,22,-56,-38,-137,-152
-49,-5,18,19,53,31,-21,-43,-138,-141
-38,-36,-34,-36,-15,12,-50,16,-32,-61
-26,72,56,-38,7,18,-55,50,85,-22
-4,365,254,-8,69,36,-31,29,228,31
60,293,207,-15,11,-8,-25,12,156,49
31,16,0,14,-23,-6,-23,0,-7,-14
-73,-70,-45,50,27,42,19,39,-41,-124
-71,-79,-37,41,27,19,4,12,-80,-116
-112,-70,-2,50,40,16,5,-24,-79,-75
-141,-72,-9,18,40,18,30,31,8,-34
8,21,23,-27,1,-19,-14,22,46,23
48,-22,-8,-22,-22,-14,-48,-43,-77,-20
39,3,31,13,-3,8,-14,-54,-74,-33
64,13,31,0,-27,11,0,-41,-31,17
32,-15,-11,-25,-40,19,10,18,26,39
10,-70,-86,-57,-51,8,-8,89,83,54
-31,-73,-46,-36,-18,10,-19,76,93,18
-15,174,160,23,79,40,-37,-5,92,-31
-38,467,377,39,188,86,-22,3,238,-3
-35,251,195,-26,86,15,-61,33,231,98
43,-35,-41,-56,-45,-86,-115,-8,6,126
98,-54,-68,-9,-31,-104,-128,-58,-77,121
37,-120,-134,0,2,-112,-118,-35,-17,173
-89,-220,-156,-37,-6,-80,-82,0,25,153
-122,-229,-135,-72,-37,-84,-134,30,-67,70
-67,-77,-43,-70,-40,-79,-108,53,79,33
114,-1,-10,-29,-84,-124,-94,-20,41,20
167,43,33,31,-33,-72,-17,-39,-132,-95
140,30,-24,24,3,4,57,-18,-141,-4
20,-75,-102,4,23,41,84,21,-116,43
-65,-151,-120,-31,12,30,38,60,-63,5
-39,-151,-95,-34,0,5,10,63,-58,-74
-10,-54,9,-21,22,-11,-15,43,-2,-108
0,-16,50,-18,20,-22,-30,28,10,-39
0,-92,-60,-14,-9,-34,-33,27,-23,7
14,-128,-72,-33,-22,-35,-42,20,0,20
27,-74,-18,-4,-6,-35,-69,-48,-80,97
9,-80,-15,17,-5,-70,-102,-74,-111,141
101,-56,-28,-15,-51,-128,-161,-101,-64,366
198,35,21,-27,-61,-136,-177,-136,-33,528
199,263,218,-31,-5,-82,-89,-62,154,361
15,112,101,-37,6,-33,-11,2,76,-123
-174,-184,-189,-48,-8,31,53,53,-96,-433
-178,-181,-122,-28,9,37,26,56,-101,-334
-92,-143,-78,-16,19,35,10,59,-93,-333
-56,-99,-44,21,56,53,-4,18,-176,-558
-87,-99,-40,18,53,40,-56,-16,-136,-543
-124,-47,-27,0,39,76,-51,8,31,-309
-67,15,23,47,34,71,-45,-33,12,-191
-43,-13,-20,37,5,22,29,-16,-60,-117
-56,-46,-37,3,-20,-11,186,28,-10,-103
-17,-58,-105,-23,-41,-41,203,47,61,-90
37,9,17,38,-2,-33,68,-28,0,-120
10,44,101,62,30,21,48,-13,-81,-174
-59,62,73,3,18,66,133,136,76,-99
-20,374,309,18,126,118,152,130,224,-64
-40,446,388,57,193,145,138,109,219,-52
6,171,156,53,49,36,31,47,19,27
68,82,1,43,-25,-24,-14,-22,-134,44
-6,-7,-122,47,-7,5,-14,-34,-164,-10
-78,-93,-139,25,-7,27,1,3,-95,64
-151,-113,-95,-24,-12,39,51,87,18,69
-120,-26,-58,-37,0,26,44,105,98,89
103,38,-49,-57,-48,-80,-65,10,53,149
231,40,-27,-38,-60,-105,-88,-19,-22,157
104,28,41,3,-11,17,20,42,-14,107
8,0,37,48,2,67,57,29,-34,38
14,0,27,40,-21,51,14,-27,-79,0
28,18,29,26,-39,38,-1,-53,-95,21
21,40,44,-1,-38,13,17,0,0,78
35,73,48,-24,-33,5,18,42,127,109
11,-46,-40,-30,-62,-18,7,30,83,69
16,-23,-3,-8,-59,-29,8,10,93,154
83,16,5,-4,-63,-37,-8,-16,102,261
184,13,0,-4,-63,-47,-39,-56,80,256
183,22,21,-1,-45,-36,-15,-41,66,217
66,-16,-4,-9,-17,-26,61,9,78,133
18,-11,13,5,-4,-35,46,-25,46,100
-13,18,54,35,2,-44,-1,-61,56,93
-90,-20,12,22,15,-14,15,-14,76,-13
-89,-55,-51,-7,24,18,38,6,12,-165
-44,-55,-25,9,35,22,34,-29,-66,-201
-45,-17,37,62,60,31,10,-92,-109,-156
-13,-7,26,44,33,0,-33,-118,-100,-70
-12,-62,-41,-24,-5,5,12,-3,10,-16
-14,-59,-49,-40,-13,32,65,33,19,29
29,-58,-64,-48,-38,0,24,-2,17,145
3,-83,-88,-61,-53,-8,19,16,34,142
-36,-70,-51,-37,-29,-13,3,0,-32,23
3,4,37,7,-1,-40,-58,-68,-98,-61
-33,5,46,16,25,-22,-45,-78,-95,-65
-96,-84,-56,-67,-14,16,67,131,159,9
91,192,127,-29,46,69,101,138,226,32
249,525,399,62,155,106,59,-22,126,25
122,413,371,72,157,64,54,-71,49,-37
-13,80,74,9,50,17,81,7,-8,-100
-83,-69,-68,-2,8,9,76,-1,-68,-64
-121,-82,-70,34,54,22,51,-26,-71,4
-149,-110,-98,50,86,19,57,5,-22,-14
-39,8,-13,25,64,-30,55,-20,-21,-43
149,405,292,42,119,5,19,-85,67,70
73,187,124,14,61,42,12,-46,62,106
-5,-94,-99,-13,-25,33,-7,-14,-11,72
-28,-139,-133,-34,-48,48,13,53,56,71
-3,-118,-138,-41,-48,22,23,60,75,106
0,-94,-73,-13,-20,1,-5,-10,-23,64
-52,-80,-43,15,-4,9,-42,-39,-60,-33
-31,21,-21,-3,2,21,-44,-30,-12,-42
-3,2,-127,-20,-11,-3,-61,-62,-53,-71
-23,-58,-106,-10,-21,-58,-67,-69,-112,-143
-70,-70,-49,-5,-4,-48,-1,-2,-79,-145
-108,-73,-52,-4,6,-13,12,20,-22,-75
-5,-40,-50,-15,-32,-34,-44,-37,-24,3
43,-43,-34,-15,-37,-56,-83,-95,-56,124
25,9,8,-24,-10,-69,-72,-56,31,224
61,338,243,-38,54,-25,-51,-14,303,304
114,388,246,-73,9,-38,-42,15,389,335
25,28,17,-27,-48,-28,-22,12,71,88
-6,-86,-44,6,-46,-15,0,-26,-78,-19
28,-100,-67,-18,-61,-18,20,10,-72,-60
0,-144,-98,-38,-64,16,44,73,-55,-120
-66,-123,-61,-18,-35,46,58,72,-60,-136
-54,-2,-5,18,14,40,36,23,-50,-137
-9,-39,-49,43,39,-4,-33,-16,-90,-93
-12,-82,-47,51,16,-39,-59,-31,-110,-61
-85,-137,-104,14,-15,-35,-48,6,-77,-78
-81,-197,-107,-13,-29,-42,-148,-27,-254,-77
17,-109,-77,-38,-65,-61,-128,-42,-91,20
27,-89,-65,-25,-43,-45,-130,-69,-81,-1
-6,-42,-28,30,-4,5,-83,-27,-77,-33
-3,-17,-11,18,-15,16,-53,10,-49,-59
-89,-66,-9,22,-12,55,-39,14,-33,-108
-79,-41,10,40,-11,83,-43,-37,-49,-86
-63,-26,-6,29,-3,65,9,-16,8,-4
-8,0,-8,17,-5,48,169,31,14,-35
46,0,-27,-28,-39,40,258,55,-23,-73
22,3,-15,0,-8,29,164,19,-46,-86
5,246,262,121,156,47,41,-58,-9,-112
-7,425,416,119,205,64,28,4,172,-34
-29,139,136,25,79,34,35,53,131,-12
0,-142,-124,-62,-53,-23,33,83,89,34
25,-77,-81,-11,-40,-10,27,31,39,25
12,-28,-115,21,-14,-5,21,0,38,10
-14,-68,-138,-6,-16,27,81,49,69,65
7,-29,-29,-12,-20,9,63,-6,82,226
66,63,59,10,0,-5,27,-76,108,367
82,-1,10,24,-14,-20,-20,-106,81,383
40,-88,-88,-41,-46,-12,18,20,53,206
-32,-115,-90,-46,-39,21,59,95,2,41
-10,-24,5,16,-3,8,-13,-29,-86,-66
18,15,31,34,-12,-28,-76,-87,-137,-166
-58,-85,-57,-36,-36,-24,-19,31,0,-190
-103,-40,-29,-56,-8,50,61,101,97,-138
-78,-60,-40,-46,-5,55,45,65,21,-139
-46,-77,-79,-24,-22,20,5,18,-59,-131
-20,-57,-84,-5,-29,-16,-41,-24,-80,-161
20,-32,-10,9,-46,-28,-79,-75,-99,-191
71,10,26,16,-60,-55,-122,-101,-106,-127
-15,-40,-18,-4,-39,-20,-63,-40,-84,-124
-74,0,18,-29,-1,25,-5,43,40,-76
39,415,299,-2,98,80,35,78,261,-37
105,438,324,28,93,62,2,14,200,66
-10,56,106,77,25,3,-56,-77,-72,216
-57,-85,-11,46,-39,-38,-72,-70,-75,281
-35,-156,-120,-85,-110,-36,-23,59,70,283
69,-114,-89,-50,-101,-72,-67,-24,-4,166
28,-105,-83,-21,-62,-60,-69,-56,-27,-59
-15,-63,-98,-96,-58,-10,21,85,170,-82
19,-75,-110,-68,-55,5,53,92,120,54
-17,-98,-67,-31,-40,-3,43,34,36,149
-54,-122,-89,-56,-52,-9,45,55,101,263
-6,-104,-107,-45,-63,-14,17,16,34,58
65,-15,-41,-7,-57,-31,-34,-85,-148,-252
18,20,27,47,-4,0,-8,-80,-189,-379
-38,-20,-36,24,9,18,47,-2,-108,-388
-56,-42,-78,-26,-9,19,84,70,-35,-354
-81,-60,-33,-32,-12,27,76,61,-36,-271
-67,-60,-18,-8,2,37,47,13,-92,-176
-12,-15,7,39,42,60,40,-30,-143,-40
29,27,23,62,52,58,25,-79,-113,132
17,-1,56,48,43,48,5,-70,-35,211
-119,-68,35,22,44,61,20,28,86,185
-15,218,260,40,90,64,3,4,132,114
144,414,372,24,100,53,-27,-20,143,79
-13,87,112,-12,45,58,6,70,78,-149
-111,-131,-68,-34,-6,13,-14,56,-54,-270
-38,-80,-48,-43,-46,-44,-35,-8,-44,-70
34,-42,-37,-51,-51,-52,-33,-11,-20,26
4,-63,-48,-13,-20,-30,-11,0,-53,-11
-4,-55,-12,-9,6,-24,-17,-17,-64,-8
-9,8,63,21,17,-16,-71,-99,-128,-19
-72,-40,28,45,15,1,-47,-74,-170,-45
14,0,-66,33,7,16,-37,60,-38,19
44,294,206,24,94,38,-9,55,134,112
31,458,333,20,153,54,14,32,223,80
73,168,120,7,57,-2,-29,-27,4,38
93,-65,-48,-3,-20,-34,-67,-60,-138,27
31,-82,-57,25,0,-12,-56,-52,-143,27
-24,-173,-124,-29,-24,-8,-5,69,7,81
-27,-171,-133,-28,-20,13,31,117,79,114
-8,-61,-37,13,28,28,13,67,53,109
-47,-26,4,16,34,9,13,47,104,151
-29,-91,-79,0,-22,-14,21,32,37,56
24,-115,-117,-50,-78,-50,-28,-8,-24,-72
-24,-174,-171,-82,-78,-43,-28,3,-20,-129
-23,-148,-149,-49,-49,-41,-48,-12,-55,-166
-4,-119,-92,-37,-28,-45,-59,-21,-67,-137
-3,-100,-78,-27,6,-22,-25,38,-1,-92
15,23,11,10,61,0,-12,48,91,-33
-1,-27,4,34,39,-2,-3,25,35,-63
-35,-81,-36,32,23,3,0,21,-22,-95
6,-44,-19,40,19,6,-45,-40,-85,-97
47,7,4,56,16,4,-93,-99,-122,-80
43,25,46,79,0,-20,-135,-136,-130,-71
27,49,91,102,-17,-14,-111,-121,-93,-35
96,149,158,57,-4,75,-35,-72,-24,76
81,283,286,-10,38,133,92,20,171,189
-8,136,128,-81,-24,133,265,149,257,176
35,-67,-105,-107,-128,39,205,120,132,183
168,8,-38,-24,-103,-64,18,-55,-43,168
92,-68,-94,-23,-13,-62,25,9,-5,130
-101,-247,-242,-105,8,6,149,209,149,84
-114,-209,-204,-84,9,-7,66,149,148,97
-75,-104,-123,-60,16,-35,8,94,184,136
-5,-107,-128,-42,-16,-73,-3,49,147,178
86,-65,-72,-9,-29,-86,-51,0,18,189
56,-53,-37,-11,-18,-87,-56,-6,-36,143
0,-63,-30,-11,-12,-66,-50,-26,-77,-14
20,-41,-37,-13,-13,-43,-53,-32,-102,-109
5,-28,-22,30,15,-4,-35,-26,-115,-213
-55,96,86,84,99,65,-3,-51,-120,-238
-132,341,337,57,164,113,50,-6,78,-168
-115,262,215,18,102,96,64,50,67,-211
-69,-9,-78,10,-8,37,23,24,-85,-249
36,-36,-155,1,-51,-13,-14,-13,-84,-168
27,-48,-165,-10,-62,-43,-38,-33,-51,-28
-101,-127,-112,-32,-62,-46,-9,3,51,75
-53,-65,-23,-10,-36,-42,-22,-45,21,26
79,79,79,20,-5,-40,-48,-124,-29,0
92,-1,-25,-19,-49,-47,-22,-39,21,48
0,-2,-8,33,-8,-12,-8,-26,-25,-58
-64,-7,27,64,25,12,0,-27,-66,-184
-43,-36,-5,24,-1,32,38,41,4,-134
14,-29,-7,6,3,33,44,50,23,-52
32,-30,-20,-7,-1,4,19,13,34,-1
-5,12,-20,0,18,14,19,18,100,21
12,56,35,16,20,8,11,-15,69,40
20,-25,-14,5,-15,-36,-30,-51,-3,48
-1,-48,-39,0,-17,-25,-26,-28,-47,-20
22,-16,30,26,-2,-2,-18,-32,-72,-71
-29,-46,13,25,-1,14,32,4,-3,-33
7,-28,18,2,-23,9,57,10,39,44
82,89,103,30,-3,-8,43,-51,-5,71
87,434,368,93,120,19,31,-130,82,70
97,550,448,93,157,27,7,-155,169,91
84,209,184,46,27,-25,-26,-135,0,103
89,14,47,28,-36,-50,-16,-104,-118,120
58,-46,-22,-15,-60,-41,33,-19,-11,218
17,-117,-86,-38,-58,-15,49,20,-31,118
-29,-144,-184,-51,-67,0,62,104,-14,35
-82,-121,-175,-30,-44,16,58,113,-5,0
-136,-151,-105,-24,-32,28,64,127,47,-8
-64,-102,-86,-15,-27,17,52,89,14,-66
29,-51,-90,7,-23,0,32,-2,-76,-79
-82,-108,-76,0,-3,33,85,15,-58,-72
-121,-109,-37,-17,3,28,101,21,-20,-73
-45,-38,2,5,-4,3,65,-11,-31,-50
-41,-12,21,20,6,2,26,2,-48,-54
-48,13,25,16,-6,1,-9,21,-19,-14
-31,23,32,23,0,-6,-39,5,-10,3
-6,-3,5,2,-13,-24,-58,-11,-8,20
-11,-12,16,0,-7,-8,-25,0,6,37
-5,43,75,48,18,9,-30,-20,-34,24
14,66,18,68,3,-1,-26,-14,-41,22
101,98,74,69,-3,-18,-49,-54,-56,48
49,181,152,40,64,48,0,-11,62,103
-23,348,274,-2,129,117,71,114,329,222
-3,198,113,-32,57,53,30,113,253,291
19,-42,-59,-14,-22,-9,-39,0,-18,193
51,-48,-58,-6,-35,-26,-36,-27,-43,201
36,-67,-53,-17,-47,-13,2,9,-4,184
-52,-95,-66,-2,-20,25,36,43,3,33
-5,-34,-86,-1,-12,1,-3,-4,-64,-84
94,98,19,-8,-20,-11,-54,-48,-83,-100
62,21,36,-5,-32,-16,-63,-49,-95,-89
-48,-64,-15,19,21,-1,-64,-35,-78,-82
-28,-53,-11,44,47,-4,-75,-49,-74,-17
107,-20,-43,7,-21,-59,-103,-79,-90,103
-75,-109,-175,-51,-74,-21,16,72,58,206
20,133,11,-34,1,0,-9,37,101,229
78,340,255,-17,109,-2,-179,-4,-82,147
68,20,107,-47,44,-77,-351,-22,-485,38
3,-68,-20,32,-2,-29,-64,-43,-150,-57
-46,-72,-46,31,-18,-20,22,-26,-26,-234
-36,-69,-66,-29,-59,-20,47,16,24,-280
50,-42,-66,-27,-74,-28,-10,-47,-51,-117
23,-82,-84,-21,-55,-22,-18,-59,-52,91
14,-24,-28,3,-23,6,23,-38,-38,167
-1,-4,-5,-5,-14,38,78,8,-2,66
-29,-11,-22,-18,-30,61,124,82,80,-60
-36,-17,2,-4,-21,65,105,56,45,-221
-40,-19,-7,-27,-34,60,109,59,37,-302
-20,-18,-26,-50,-34,63,117,102,76,-169
-41,-38,-8,18,37,74,73,53,46,-95
-125,-79,-7,70,77,52,35,4,34,-118
-70,-26,29,87,90,17,-6,-51,-15,-49
79,37,44,51,53,-12,-36,-67,-38,44
38,-6,-24,14,43,11,-26,-17,-7,-22
19,21,-51,48,66,15,-78,-68,-59,-81
27,18,6,68,56,-6,-136,-103,-106,-86
-43,-101,-51,-37,2,-7,-89,43,7,-19
-40,-117,-104,-76,-6,-19,-101,50,28,30
36,-54,-142,-52,6,-41,-150,-12,-28,36
18,-70,-98,-40,22,8,-113,32,-28,16
-20,-81,-52,-22,37,77,-65,39,-28,40
25,-79,-59,-54,-13,21,-60,14,33,235
46,-77,-69,-95,-54,-53,50,23,112,521
67,-19,-101,-66,-48,-37,160,40,108,540
83,73,-80,21,-9,-13,133,-14,33,322
109,225,137,44,40,9,49,10,132,189
147,473,412,32,97,46,53,70,312,137
101,267,263,13,57,31,73,53,175,-76
-1,-28,11,-2,-24,-3,47,26,17,-244
32,-28,8,7,-36,-7,32,15,-18,-196
-50,-31,51,92,14,34,29,-7,-71,-162
-28,-46,-17,47,-25,-7,-8,-21,-50,-68
99,-18,-14,-8,-56,-62,-86,-93,-100,13
86,6,39,16,-12,-77,-178,-139,-282,-30
-30,-76,-25,-6,-34,-66,-70,-25,-173,-229
-75,-83,-64,-39,-55,-43,-13,33,-53,-259
-22,-64,-79,-48,-51,-22,0,38,9,-148
-5,-53,-45,-8,1,44,57,66,-17,-196
-65,-63,-35,12,40,89,125,80,-11,-197
-99,-89,-76,-24,22,54,124,95,38,-138
-48,60,40,-28,74,28,-16,24,-57,-112
-22,358,263,-16,155,86,13,5,164,-35
-27,228,158,-16,76,55,52,18,236,59
-26,-40,-20,8,-9,14,21,16,59,62
15,-50,-36,0,-28,2,10,15,5,87
-54,-75,-21,29,-11,-6,-6,-15,-47,92
-87,-86,1,51,8,-11,-56,-68,-129,86
-88,-85,-6,49,2,-32,-96,-105,-180,37
-61,-136,-88,-41,-67,-55,-71,-3,-12,103
8,-149,-128,-106,-101,-42,-15,103,105,135
135,-59,-61,-69,-81,-57,-63,13,2,86
119,-18,-19,-7,-51,-61,-84,-46,-35,89
15,-38,-41,26,-13,4,-22,-3,-64,-59
-34,-26,-19,27,-6,21,9,13,-84,-157
-47,-33,-33,2,3,17,16,-21,-103,-135
-40,10,-45,-32,21,13,-11,-22,-14,-63
-35,105,105,-43,8,19,-14,28,133,-34
1,16,29,-5,-40,-46,-47,-49,-19,-138
27,13,13,11,-51,-64,-51,-62,-8,-67
-110,-15,14,29,-27,6,6,12,47,-69
-225,-124,-48,3,-6,81,78,115,96,-132
-71,-73,-53,-10,-39,55,63,113,108,-87
109,40,-5,-25,-103,-33,-10,13,98,48
67,32,-5,-45,-142,-54,0,-6,168,146
70,60,46,15,-88,-40,8,-50,104,72
74,60,35,79,8,-11,1,-92,-33,-50
115,65,47,100,53,3,-15,-97,-97,-17
49,-6,-33,39,33,40,46,-3,-37,-7
-31,-22,-3,67,65,87,44,-28,-97,-119
0,37,43,56,44,63,39,-28,-91,-91
-2,176,146,33,44,51,75,13,42,-20
-40,123,98,20,25,23,73,12,41,-34
-45,-30,0,14,20,-15,39,-10,-21,-31
-27,-49,-29,3,23,-22,35,6,-3,41
-53,-73,-33,20,25,-20,32,16,-17,16
-59,-87,-36,10,4,-25,11,31,-13,26
-83,-108,-57,-18,-23,-12,28,64,2,4
-53,13,38,-9,11,1,26,11,-1,-2
35,357,293,2,96,29,32,-14,165,100
46,399,311,7,103,38,33,-18,188,139
-21,36,10,-5,-2,-21,-4,-33,40,108
6,-88,-117,-26,-64,-58,-34,-41,-1,75
21,-102,-156,-38,-66,-45,-11,-2,10,49
-69,-125,-128,-20,-38,-13,7,18,-7,-29
-44,-67,-54,6,-18,-9,5,-26,-64,-109
-22,15,-2,12,2,-8,-6,-17,-33,-130
-17,11,13,34,9,-1,-34,-21,-61,-101
57,33,27,55,0,-39,-78,-88,-108,-32
77,18,-15,7,-38,-56,-69,-66,-61,29
-8,-97,-119,-46,-31,-28,-17,19,36,10
55,-53,-90,-35,-44,-52,-36,-3,44,43
62,-14,-37,2,-28,-34,-50,-29,4,36
60,-5,-1,53,11,-32,-102,-104,-97,-3
10,-6,17,65,33,-17,-85,-100,-138,4
-137,-74,-25,42,45,26,-5,-33,-101,1
-106,-113,-104,-52,-31,8,11,74,110,69
63,-64,-187,-79,-74,-58,-49,28,37,-13
42,-80,-91,-53,-47,-18,1,83,50,226
62,-56,-46,-49,-47,-24,-1,46,63,402
98,106,123,-48,23,-38,-143,-19,-25,819
180,199,237,-116,53,-120,-423,-59,-275,1000
158,83,34,-133,-56,-139,-191,19,165,784
8,-144,-167,-117,-112,-66,-13,111,293,352
-34,-151,-166,-109,-86,3,56,133,193,34
-29,-62,-46,11,-1,62,46,20,-89,-323
-86,0,64,128,100,131,80,-39,-331,-827
-129,37,104,152,129,180,164,7,-320,-1019
-125,23,84,139,125,185,165,44,-196,-913
-109,0,53,112,101,142,138,32,-124,-711
-87,-3,35,66,47,61,115,9,-63,-452
-39,-14,52,52,23,25,87,-17,-33,-294
-24,-20,54,50,35,27,39,-64,-61,-244
-39,-68,12,15,31,21,27,-51,-41,-198
-57,-89,-67,-55,-9,14,51,48,71,-97
-47,137,141,-10,53,31,19,32,141,-58
4,266,286,39,91,6,-32,-51,114,-20
112,3,-1,-44,-28,-78,-103,-52,25,110
75,-97,-103,-71,-45,-42,-92,8,42,93
6,-76,-37,-16,-8,47,-77,9,22,41
93,-37,-10,-18,-24,18,-90,-41,-6,141
106,-43,-21,-12,-12,-11,18,-58,-22,185
-34,-56,-34,-27,14,23,214,55,116,200
-61,22,-70,-57,4,18,197,103,233,144
94,-15,-67,-9,-49,-59,19,-66,-39,37
96,-42,-30,-28,-91,-96,-44,-72,-48,49
25,-74,-65,-44,-97,-80,-27,-24,-6,19
52,-7,18,19,-36,-45,-46,-96,-79,-63
1,-10,33,29,5,17,19,-11,-55,-113
-81,-86,-31,-24,8,52,119,155,79,-78
-80,-27,4,-12,29,47,93,115,110,-9
-63,-67,-33,11,13,31,22,23,50,12
31,-36,-33,-3,-23,-13,-18,-28,29,89
67,14,-27,-4,-23,-48,-32,-50,-13,80
21,-67,-86,-6,-24,-76,-115,-45,-150,91
0,-43,-77,-9,-30,-55,-64,-1,13,122
-94,-36,5,72,61,16,-26,-54,-46,-71
-149,-43,-3,55,65,43,55,1,4,-96
34,20,-15,-23,-16,0,59,0,16,7
39,-21,-39,-18,-6,-19,17,-49,-20,19
39,-3,-33,-14,-3,-18,20,-35,26,118
28,-13,-17,-22,-18,-20,9,-5,84,98
66,-19,-26,-38,-27,-31,-8,-28,65,71
104,40,15,16,27,-38,-52,-150,-37,61
-27,193,138,-31,92,44,74,55,211,18
-44,357,276,-54,156,95,90,139,223,14
-20,-86,71,-62,68,-38,-284,35,-565,-46
20,-174,-56,-39,-20,-70,-170,47,-304,35
73,-29,-32,-14,-39,-45,-39,31,70,112
61,-49,-126,-34,-56,-45,-43,5,70,104
-14,-115,-191,-41,-39,-21,7,21,27,20
-28,-73,-81,-10,-10,-31,-4,-16,17,62
-21,-56,-37,-9,6,-36,-12,-30,31,102
3,-31,-35,-23,-13,-6,24,19,53,15
15,-25,-35,-14,-16,8,48,31,42,-24
6,-38,-39,5,-4,4,19,-18,14,-22
-16,-5,-8,39,20,7,4,-47,-11,-55
47,45,51,56,12,-20,-7,-76,-14,-10
141,50,31,-4,-29,-36,50,2,61,182
170,241,157,-31,19,12,95,46,206,364
131,387,281,9,75,20,55,50,298,379
30,152,121,33,27,-19,1,10,99,157
-10,-48,-27,8,-33,-21,-37,-2,-31,22
-43,-130,-84,-39,-52,-5,-46,58,-72,-37
-38,-156,-124,-68,-62,-25,-75,55,-161,-185
-10,-81,-103,-38,-30,-25,-17,27,-31,-233
20,29,-36,32,61,-46,-35,-47,-14,-183
132,179,153,96,85,-88,-130,-177,-50,-117
106,70,55,50,18,-74,-121,-135,-87,-98
-92,-139,-165,-63,-22,7,55,102,32,-114
-164,-169,-118,-68,-16,47,108,130,44,-114
-131,-165,-84,-46,-6,31,55,50,-10,-112
-65,-72,-31,8,1,3,-21,-42,-113,-77
-65,-20,-20,29,21,18,-25,-24,-93,-22
-71,183,154,3,81,45,31,56,188,52
105,316,243,-19,47,2,-27,-37,150,84
102,44,29,-29,-36,5,-4,-23,-19,63
17,-6,20,20,-7,46,61,-7,-99,-12
5,2,25,44,20,31,24,-63,-155,-51
79,-8,-73,13,4,-12,-42,-67,-96,19
42,-29,-63,15,20,2,24,16,-21,0
-21,42,34,-5,45,25,91,89,94,-11
-41,103,106,-26,40,3,72,63,176,53
6,2,39,9,-12,-20,28,-7,-9,50
33,2,39,30,-6,-14,16,-50,-69,59
-101,-108,-39,12,0,18,80,25,21,-23
-123,-124,-53,-3,-2,39,142,112,40,-118
-24,-44,-23,-5,-28,8,102,87,18,-57
-5,-16,-11,-18,-37,-4,36,71,27,-31
0,-9,20,-17,-17,-24,-81,23,-95,-40
17,-44,-45,-22,-45,-20,-43,-8,-66,-19
50,-32,-23,-1,-37,-12,-14,-32,-32,45
14,-23,-17,15,-20,-15,-18,-24,-17,60
0,-42,-23,4,-27,-26,-23,-23,-28,10
15,-38,-30,0,-26,-43,-39,-51,-50,38
10,-29,-17,-5,-25,-37,-37,-63,-56,185
-10,-11,20,-26,-6,-20,-18,8,82,494
32,197,219,-8,63,27,4,60,218,548
98,176,193,4,34,0,-23,17,131,403
60,-78,-71,-32,-54,-57,-59,-26,45,304
49,-151,-167,-78,-105,-77,-63,-15,40,191
70,-90,-94,-5,-72,-50,-63,-56,-38,70
-38,-80,-41,63,-7,25,-26,-51,-70,-24
-63,-46,-22,46,-13,37,15,11,-26,-143
-4,55,57,44,0,42,51,24,-67,-335
-2,21,27,43,-2,29,54,18,-93,-404
45,98,96,105,43,30,11,-91,-219,-484
-97,57,83,106,67,64,38,-39,-142,-553
-160,-7,-38,68,76,78,85,60,-34,-572
-40,-20,-88,27,56,9,10,33,-4,-415
33,19,-39,26,30,-29,-96,-50,-56,-280
-13,34,-34,16,15,-7,-114,-44,-21,-196
-30,23,-33,0,1,10,-90,-19,27,-144
-18,-25,-36,-30,-44,19,-86,-14,30,-63
-24,-10,-23,-30,-30,64,-51,-2,28,-39
-2,8,5,-20,-21,36,7,0,40,3
-6,-20,-13,-19,-13,12,165,30,72,56
-11,-39,-18,0,-4,3,237,20,51,15
74,18,24,16,0,-38,128,-46,-36,-28
105,267,199,-10,54,-21,62,-12,156,60
90,424,315,4,123,14,57,9,260,100
64,182,127,14,45,-25,-3,-40,69,112
131,26,-2,-6,-50,-78,-104,-81,-39,206
87,-18,-52,-24,-57,-55,-77,-30,-24,146
-31,-89,-122,-29,-40,-21,-12,45,-9,38
-18,-96,-98,-29,-37,-34,-46,8,-37,38
48,-47,-59,-45,-45,-81,-139,-10,-100,152
101,10,5,-23,-38,-95,-162,-33,-106,170
113,63,63,78,6,-78,-143,-143,-120,56
-71,-50,0,59,36,-1,-25,-63,-131,-73
-159,-141,-94,-21,-12,36,81,82,14,-15
5,-65,-80,-45,-56,-3,34,41,24,49
20,-43,-63,-42,-32,3,29,11,-1,59
-48,-25,-36,-12,14,15,19,-1,-26,9
11,272,191,-7,93,25,-30,16,117,100
-11,228,186,-8,68,27,-62,20,68,118
-45,-18,-1,-8,-7,13,4,25,33,77
27,-42,-30,-23,-25,-15,5,13,46,126
32,-56,-75,-47,-29,-24,14,19,64,120
41,-38,-80,-26,-25,-14,25,-10,53,120
44,-39,-72,1,-17,-19,16,-43,29,106
-42,-87,-127,-15,-10,8,72,56,66,63
-98,-100,-137,-21,-6,38,96,111,66,-11
-69,-29,-2,41,35,38,35,3,-71,-149
-51,-17,22,42,25,12,11,-42,-52,-76
-14,-57,-19,-11,-14,-2,-7,1,-10,9
-30,-127,-51,-26,-28,-10,-81,6,-158,32
15,-26,2,34,-10,-10,-46,-83,-86,12
-39,-43,-81,0,-18,19,40,8,59,18
-75,-81,-166,-48,-30,52,104,99,148,32
17,-57,-188,-54,-51,32,35,31,32,-25
61,-12,-163,-45,-62,3,-9,2,-4,4
47,-3,-78,-24,-50,-3,-11,-7,2,9
37,-18,6,-15,-48,-9,20,18,17,-1
43,-14,28,-19,-35,0,11,6,4,-7
44,-1,49,-21,-31,5,4,-13,-4,13
33,118,140,-50,-9,34,39,40,116,78
35,405,366,-9,113,84,73,35,217,160
67,458,421,70,203,64,20,-50,144,204
64,217,230,96,140,0,-30,-104,-7,132
-3,-73,-47,6,23,1,31,-5,-37,31
-34,-122,-113,-33,-3,26,107,56,27,-3
10,-69,-66,-11,-13,1,58,7,25,86
-71,-78,-87,-3,14,27,93,36,71,63
-53,-12,-9,-14,25,28,74,11,34,-32
4,-95,-78,-37,-31,-23,14,-13,5,-13
48,-61,-35,-18,-21,-51,-20,-32,32,80
5,-66,-27,-6,0,-34,-7,-8,27,40
-11,-56,-12,12,16,-15,14,4,-6,-115
0,-43,-3,12,0,-29,-2,-10,-6,-132
9,-46,-10,12,-4,-35,-45,-27,17,134
88,-5,19,-20,4,-42,-107,-15,-40,633
19,-42,-23,-60,-4,-27,-65,42,-26,562
-93,-134,-199,-100,-49,-21,32,95,139,210
-65,-99,-133,-73,-49,-29,8,34,40,-82
-16,-46,-18,14,2,-5,-2,-42,-91,-264
-37,-30,12,54,32,41,25,-45,-94,-329
-67,-10,34,55,40,56,47,-4,-48,-362
-22,66,92,67,49,69,33,4,-66,-437
-8,261,248,65,113,81,21,3,51,-386
-3,117,160,45,74,3,-90,-42,-127,-252
-49,-43,22,56,27,16,0,-16,-135,-196
-81,-64,-25,12,-13,17,68,47,34,-122
-60,-109,-86,-44,-78,-39,9,56,97,-86
6,-30,-90,-11,-75,-67,-30,-17,12,-44
53,47,12,57,-11,-40,-32,-71,-68,-28
-41,56,102,164,91,20,-32,-155,-233,-124
-171,-43,65,131,77,33,3,-73,-168,-117
-94,-38,-2,7,-17,19,44,70,14,8
82,-25,-36,-53,-70,-15,7,57,-45,45
22,-83,-121,-39,-49,-19,-27,7,-103,7
-34,-186,-198,-125,-113,-70,-44,93,103,79
-21,-179,-201,-166,-136,-83,-40,136,172,231
0,-127,-131,-95,-95,-72,-75,85,111,443
-14,-110,-78,-49,-64,-34,-52,95,132,472
