-3,-1,-3,1,5,5,2,2
0,0,1,-5,-3,1,3,1
-2,-1,-3,-3,-3,-7,-4,-1
2,-2,0,0,-4,-1,1,-1
0,-2,-1,4,-1,-2,-3,-1
-1,-1,-3,-1,2,2,1,0
-1,-1,-1,2,-1,0,0,-2
0,0,-1,0,0,-5,-8,-2
0,-2,-2,-1,0,2,8,0
-2,-1,-1,1,0,-5,-11,-8
-2,-1,-2,-4,-7,-4,-6,-1
-1,-2,-2,-8,0,0,1,0
-1,-1,2,4,-1,-1,-3,1
-2,-1,-3,6,7,4,11,6
-1,1,-1,-2,-4,-1,0,-1
-1,-2,-4,-3,-1,-1,0,-3
-3,-1,-2,-3,-7,-4,-8,-4
-2,-1,0,-3,-1,1,-1,-1
1,0,-1,-1,0,1,1,0
0,0,-1,-5,-4,0,5,4
-1,0,-1,-4,-3,-5,-4,-4
-3,-2,-1,1,-2,-4,-5,-1
-1,-4,-2,3,6,3,2,0
0,0,-1,-1,-1,0,-5,-3
-5,0,2,0,-6,-4,-2,-1
10,1,-2,-5,-1,-3,-5,-1
-1,-2,-1,0,-1,-4,4,0
0,-2,-1,4,1,1,-3,0
-1,-2,-3,0,4,3,7,0
-4,0,1,-3,-4,-5,-15,-6
-3,-1,-2,-1,-6,-7,-5,-4
1,-1,-2,1,-3,-1,3,0
-2,-1,-1,-1,0,-1,-1,-1
-1,-1,-2,1,4,2,9,2
1,-2,1,1,-2,0,-1,-1
-3,-1,-2,-3,-2,-1,-4,-2
2,-2,0,1,1,3,1,1
0,-1,-3,1,-1,2,5,2
0,-4,-2,-3,-3,-3,-6,-4
-1,-1,-2,-3,0,-4,-3,-3
-6,-1,-2,0,1,-5,-5,-13
-5,-2,0,-5,-9,-4,0,2
7,0,-1,1,5,4,7,15
9,1,2,-1,-7,0,-1,13
-3,-2,-4,-5,5,-1,-5,-3
-11,-4,-3,-4,-6,-4,-1,-15
-8,-1,-1,-2,2,0,-3,-18
6,0,1,2,-4,-2,-1,-4
-1,-1,-2,-2,-2,1,-3,-13
-1,-2,-2,-1,2,4,3,1
-8,-3,-2,-3,-6,-1,-1,-14
3,0,0,3,6,-2,3,14
-15,-1,1,-2,-13,-11,-15,-27
-7,-2,-3,1,-1,-6,-11,4
26,6,2,2,4,8,16,58
-32,-10,-7,-7,-10,-4,-12,-87
34,6,7,7,4,9,20,95
-50,-11,-6,-3,-2,-7,-16,-23
80,13,10,10,12,11,26,81
-17,2,-1,3,0,4,7,-2
-26,-9,-7,-9,-11,-9,-16,-23
-7,-7,-6,-3,-1,-9,-13,-49
-55,-9,-3,-7,-8,-11,-29,-99
13,-6,-5,-7,-7,-4,-2,-25
10,-7,-3,-1,-1,-5,5,31
3,1,-7,-3,2,3,2,38
-36,3,7,-5,-8,0,-1,-78
12,6,-4,10,21,8,11,27
-13,-5,4,1,-8,-6,-14,-44
-13,-2,-4,-5,-3,1,-4,-36
-33,-11,-10,-7,-5,-10,-24,-60
-52,-9,-4,-11,-6,-3,-10,-28
69,9,2,1,-1,9,28,102
-10,-5,-5,-7,-10,-5,-10,-32
-30,-17,-11,-6,-7,-14,-44,-47
40,22,19,8,0,6,25,92
6,0,8,2,12,3,10,9
43,27,-2,10,8,17,41,75
-24,-14,-6,3,-2,-8,-26,-36
19,8,-4,4,9,8,23,81
-62,-10,1,-7,-13,-12,-38,-95
47,-3,5,-2,1,1,3,-9
28,19,5,5,11,19,55,105
-46,-19,-11,-6,-8,-9,-24,-64
-2,2,-24,-10,2,-3,-7,-48
-93,-13,25,6,-10,-11,-21,-62
-19,-8,-15,-8,-6,-7,-3,-78
103,20,28,12,1,5,43,110
-45,-20,-18,-10,-5,-8,-36,-128
29,12,7,10,13,12,22,14
22,-1,2,-3,-5,-2,-4,-6
-25,12,3,-1,3,10,23,16
-18,-3,-6,0,5,4,5,-12
19,-15,-10,-5,-6,-3,-10,2
-32,-1,4,-5,-10,-10,-8,-39
-13,-24,-22,-13,-11,-23,-51,-38
-74,-8,-2,-6,-8,-10,-9,-31
68,5,0,-2,1,-1,-5,46
-90,-19,-13,-8,-6,-9,-32,-90
-4,-21,-6,-5,-1,0,-4,-38
39,23,16,11,16,15,35,58
44,25,14,12,6,19,38,41
21,-7,-4,-3,-6,-7,-17,3
-53,-7,-4,-6,-4,-7,-6,0
111,15,5,0,-2,1,0,68
-95,-22,-13,-8,0,-4,-17,-26
-1,31,14,11,21,24,55,74
-83,-14,-9,-9,-13,-8,-26,-99
12,12,7,3,-4,-5,-27,-54
-50,-1,4,1,0,4,43,67
29,-8,-7,-7,-10,-13,-28,38
27,7,3,2,9,13,41,-7
-32,-29,-4,1,4,3,20,0
-85,-46,-27,-22,-26,-38,-119,-118
45,11,9,8,10,15,72,103
81,6,-1,-1,-6,-12,-53,13
6,18,8,9,8,14,51,81
19,3,-5,-7,5,-5,-6,1
66,9,6,1,-5,7,12,58
-4,8,2,-3,-4,-6,-7,-61
-52,-23,-16,-6,-6,-9,-18,-8
77,9,3,-2,4,5,-1,-1
-57,-5,-2,-1,1,-4,-23,-100
23,18,13,18,20,25,68,35
4,0,-5,-7,-10,-15,-29,-23
-69,-23,-14,-10,-12,-20,-37,-16
112,24,16,13,14,21,67,121
-114,-44,-20,-16,-20,-22,-50,-128
-54,-18,-11,-10,-2,-3,-8,-25
49,31,15,11,10,6,-4,-29
-117,-49,-26,-19,-22,-28,-74,-109
81,44,7,4,2,-2,1,4
49,12,7,2,-4,-1,16,32
-94,-26,-16,-10,-9,-14,-28,-56
55,14,4,3,7,0,-16,-91
-30,-15,-2,-4,-14,-15,-50,1
-6,-14,-11,-8,-15,-16,-36,-32
49,16,12,13,12,17,43,54
105,46,24,18,23,34,96,127
-12,-17,-11,-9,-6,-18,-59,-58
10,5,5,2,0,10,28,39
-15,-5,0,1,-2,-1,29,0
-20,-21,-12,-11,-7,-9,-32,26
-74,-35,-17,-13,-10,-17,-37,-43
107,35,25,20,14,23,63,91
36,30,17,10,18,32,70,36
-69,-20,-13,-8,-16,-22,-45,-111
71,32,15,11,17,25,66,101
7,8,3,6,8,7,-3,-47
-61,-43,-29,-18,-26,-43,-82,-51
39,13,6,5,1,5,18,-53
77,64,39,31,36,56,91,108
-91,-27,-16,-9,-10,-16,-52,-83
7,8,4,-2,1,4,-8,-79
17,-9,-4,1,-7,-10,-36,-56
-33,-41,-23,-17,-22,-31,-63,-56
-70,-21,-11,-16,-18,-23,-41,-76
-93,-5,2,-1,0,5,12,-88
12,13,2,2,9,12,32,109
-10,-3,0,1,2,3,23,-46
59,14,5,5,8,13,35,72
50,-4,0,4,1,5,27,-31
-54,-17,-5,-2,-5,-9,-23,-33
50,25,11,6,9,17,43,16
64,24,10,5,10,13,32,57
84,12,6,6,9,10,43,127
-64,-28,-10,-5,-5,-12,-52,-104
51,11,3,5,6,12,29,51
-47,-12,-6,-8,-9,-15,-28,-40
-47,-25,-15,-14,-17,-22,-55,-74
-105,-20,-13,-10,-9,-10,-34,-34
-17,-10,-3,-3,-9,-8,17,37
-92,-46,-18,-12,-6,-9,-39,-111
-10,-1,1,3,-7,-5,0,-39
68,27,13,3,7,20,59,109
-97,-9,-12,-7,-8,-20,-54,-125
29,25,3,5,3,3,-15,-80
102,-79,-18,-11,-16,-24,-35,75
82,73,32,23,30,41,92,86
45,-31,-16,-15,-17,-17,-43,-12
95,34,22,14,10,15,30,-4
93,49,16,7,3,-5,-6,46
-34,-27,-8,2,-10,-20,-53,-86
33,14,5,3,2,4,8,62
-95,-46,-23,-14,-10,-11,-20,-33
-14,11,-1,-1,2,0,-15,-6
50,-31,-19,-21,-24,-27,-62,-71
-122,-19,-5,-1,2,4,18,-11
66,2,-1,-4,-5,-11,-24,-2
-107,-9,-4,-2,2,6,8,11
-46,-6,-6,-4,-6,-10,0,33
-108,-44,-20,-14,-6,-9,-27,-42
-56,-23,-12,-10,-14,-22,-59,-26
-43,28,9,5,17,31,94,108
-20,9,7,6,6,2,3,-69
38,21,12,11,14,16,34,-7
23,-18,-13,-9,-11,-16,-36,-28
-73,5,-2,-6,-7,-21,-67,-124
-57,-12,-14,-11,-17,-19,-50,-77
15,28,16,10,6,15,14,-65
-12,2,-4,-5,-5,-11,-16,-46
-43,-19,-12,-4,-7,-14,-32,-34
44,7,3,3,8,9,36,127
43,22,9,6,11,21,30,68
-57,-5,-2,-2,0,4,13,-88
127,29,6,5,2,6,19,24
-16,-27,-14,-14,-19,-21,-51,-71
46,0,-1,0,-6,-10,-15,16
-67,-5,1,0,1,8,33,34
21,23,13,10,19,28,74,45
2,2,0,3,7,5,20,110
45,-12,-7,-6,-4,-10,-19,-21
99,60,30,21,24,32,79,93
9,-3,-2,-3,-3,-3,-3,-33
-105,-22,-10,-11,-8,-8,-48,-128
50,-10,-6,-6,-7,-17,-15,62
0,-3,2,5,7,2,11,62
-51,9,1,1,4,13,32,-10
6,-7,0,-4,-2,0,-1,-15
-40,7,4,5,0,0,5,12
75,28,4,-1,-2,-1,16,65
2,13,7,3,1,-3,-9,-21
-14,-6,-8,-3,1,-2,1,24
-24,-16,-6,-3,-5,-8,3,34
-100,-35,-19,-8,-9,-8,-26,-30
29,4,0,0,-6,-4,-12,-1
127,43,18,14,19,30,86,127
-63,4,-4,-6,-6,-7,-21,-66
-106,-20,-12,-8,-5,-7,-23,-43
-60,-17,-7,-7,-3,-2,4,-18
-85,-39,-19,-11,-16,-23,-52,-96
16,6,-1,-4,1,5,28,38
87,27,13,7,9,11,23,92
-110,-33,-16,-17,-15,-21,-59,-88
33,3,5,4,3,2,8,48
-77,-27,-13,-9,-11,-17,-31,-24
81,16,5,5,10,13,39,87
25,-6,-2,-2,-4,-3,-25,-55
63,21,7,3,4,0,1,-39
-25,10,3,0,-4,-2,1,-68
-62,-30,-14,-14,-17,-24,-38,-93
41,-15,-8,-2,-2,-2,-15,-57
-35,3,5,7,8,1,1,-53
-43,-13,-6,-6,-5,4,9,21
66,17,12,9,11,15,38,7
-38,1,1,-4,-7,-7,-11,-38
5,-7,-4,-7,-5,0,2,37
38,3,4,6,9,3,-5,39
-28,2,-1,-3,-4,-5,-3,-33
-7,7,2,2,3,4,4,24
14,-9,-12,-12,-11,-19,-52,-105
-117,-45,-13,-8,-20,-27,-68,-128
111,24,9,11,10,19,56,94
-21,-2,-2,1,8,8,19,-44
60,12,6,-2,0,1,0,15
77,12,0,-1,-3,-1,4,-80
-43,1,2,4,5,-2,-39,-118
29,12,7,7,3,4,21,76
-40,1,1,3,2,10,39,44
-14,-5,-5,-6,2,0,-14,-5
-58,-31,-10,-5,-9,-10,-11,-31
-72,2,2,0,0,2,11,-53
-64,10,5,1,-1,-6,-17,-80
-45,-21,-11,-9,-5,-10,-36,-25
-79,-20,-14,-9,-7,-5,-19,32
54,15,6,5,8,9,15,23
39,19,7,5,11,21,76,70
17,6,6,3,-4,-4,-5,-81
-13,12,14,5,17,18,29,68
-62,-35,-19,-16,-28,-32,-63,-73
-7,0,3,5,8,12,24,34
64,26,8,9,11,14,37,38
63,29,17,12,15,19,40,-2
3,-9,-8,-7,-7,-3,-20,-51
35,-6,-4,-4,-7,-5,-42,-108
33,10,9,7,12,17,51,127
57,13,9,5,-4,-8,-42,-74
-30,-20,-14,-8,-6,-9,-21,60
3,13,0,7,8,7,32,64
48,27,15,16,18,25,78,87
-14,-3,-6,-10,-9,-11,-52,-83
-51,-31,-18,-14,-12,-18,-15,-67
-54,6,8,5,12,8,11,-23
32,3,-3,0,0,1,-11,-24
66,23,9,11,17,24,72,127
-40,4,1,3,5,3,-13,-24
14,-28,-10,-7,-11,-5,1,1
17,-4,2,-1,0,-9,-20,-33
-13,-15,-9,-2,-23,-35,-101,-79
51,27,18,15,16,23,71,63
-88,-28,-17,-14,-20,-26,-71,-78
-28,16,6,4,7,15,24,27
-7,-25,-11,-10,-2,4,35,21
95,7,13,8,2,6,-1,37
-63,24,0,5,8,8,27,20
-88,-58,-31,-25,-28,-43,-93,-103
-96,0,-9,-7,-6,0,-2,-54
-14,-41,-6,-3,-3,-1,9,-50
-11,-10,1,0,4,8,12,33
-94,-6,-4,-5,-9,-7,-42,-90
-29,4,2,2,3,4,32,-34
-73,-12,-10,-6,-7,-15,-39,-30
94,36,24,15,17,21,29,62
-57,14,-4,-6,-3,-3,-4,-46
-108,-36,-13,-9,-15,-18,-61,-128
48,35,11,10,9,12,33,28
27,8,9,6,3,5,11,20
48,-16,3,-2,-4,-4,31,29
-25,-30,-11,-13,-18,-25,-46,-5
22,26,5,4,15,14,28,-22
-3,-9,-8,-9,-13,-12,-14,12
1,-4,-6,-4,-1,1,12,13
-20,-33,-19,-18,-22,-29,-84,-106
40,21,13,8,10,14,41,27
-62,-26,-12,-8,-13,-19,-36,-128
-45,-8,-10,-9,-5,0,-13,-66
7,9,3,4,9,16,26,-19
96,37,12,5,0,-4,23,127
-86,-36,-20,-14,-17,-22,-59,-95
17,4,3,4,2,5,15,93
45,30,11,10,11,16,47,68
-66,-74,-40,-28,-28,-39,-74,-64
57,10,7,6,1,4,42,-2
-27,10,2,1,3,-6,-41,-42
17,15,6,4,-1,10,24,85
-51,-8,-5,-5,-5,1,-3,-21
-86,-33,-12,-4,-1,-8,-21,50
125,37,18,11,15,22,72,103
-57,-13,-2,0,6,-2,-4,16
-36,-11,-6,-4,-6,-5,-20,-6
-26,1,-2,-5,-4,-4,-5,-60
61,23,15,10,9,12,9,33
-91,-22,-11,-4,-6,-12,-29,-82
96,5,10,7,3,6,14,11
36,48,7,3,10,20,38,11
-95,-41,-24,-17,-23,-33,-78,-124
60,18,7,3,5,10,51,117
62,5,4,5,7,9,8,-44
-17,-2,2,-1,-1,-4,-14,2
-75,-21,-8,-9,-11,-14,-36,-80
75,18,5,4,9,11,36,29
-30,23,5,2,2,-4,-5,-39
-25,-5,-5,-5,-8,-13,-19,-68
26,9,3,4,6,17,32,47
-68,-19,-11,-11,-10,-21,-66,-112
55,19,10,7,2,3,4,54
19,-25,-14,-12,-20,-25,-41,17
12,7,2,4,4,9,25,35
56,18,6,1,-5,4,23,-43
-101,-19,-15,-11,-10,-14,-35,-20
-5,3,9,9,15,16,40,31
95,10,1,2,-1,-3,0,25
102,5,0,1,3,0,2,90
-8,4,1,1,0,3,10,34
-75,-12,-3,-2,1,8,7,-28
-52,4,3,5,6,9,17,-16
-55,-48,-17,-13,-17,-23,-43,-25
-1,7,7,7,10,17,38,-1
48,12,6,2,6,12,34,85
10,-7,-4,-2,1,-5,-16,-60
-14,8,4,4,-4,-2,-6,-63
17,6,5,2,5,20,61,61
106,21,4,3,5,-2,-7,46
-57,-13,-6,-5,-5,-4,2,-26
56,21,6,0,1,-2,7,82
-2,0,-3,-2,5,7,17,21
-2,7,5,3,-6,-6,-2,-29
63,-7,-4,-4,-8,-8,-23,45
6,6,3,4,8,6,-2,-92
21,12,3,2,8,12,27,53
59,-7,-12,-12,-11,-20,-58,-50
-26,8,5,3,5,7,37,60
-56,-13,-6,-5,-6,-5,-5,24
31,10,3,1,-4,-7,-26,-43
-51,-37,-13,-7,-5,-6,-23,-91
46,6,19,15,14,12,27,5
24,41,3,0,7,11,36,97
-70,-16,-7,-8,-7,-14,-38,-111
-35,-3,4,6,2,8,10,52
12,-21,-15,-11,-14,-16,-44,-83
-6,0,4,5,6,7,33,7
32,8,2,0,-4,-11,-41,-82
-41,-10,-6,-2,-1,3,10,-14
-24,-9,-8,-7,1,1,-15,45
-55,-9,-6,-6,-5,1,17,-42
19,6,4,6,-4,-7,-13,-65
85,23,11,6,3,4,18,9
-8,4,2,1,4,6,12,-40
-45,-27,-9,-5,-6,-7,-24,-76
64,17,8,4,9,13,33,86
-10,-32,-4,-4,-5,-11,-30,-55
-21,89,14,10,7,10,45,90
29,0,4,2,2,-6,-12,-12
2,22,3,0,1,3,11,8
17,2,0,3,-6,3,7,-1
-16,-9,3,-1,0,3,5,7
-83,-18,-4,-1,-3,-5,5,-33
38,21,4,5,5,0,7,67
46,6,1,0,7,7,14,83
-110,-49,-20,-11,-15,-17,-42,-37
43,31,10,4,10,13,16,70
-88,-37,-12,-9,-7,-10,-28,-49
25,12,1,2,3,7,26,-2
-4,-26,-7,-6,-9,-10,-10,-32
15,1,-3,-3,-6,-12,-34,-13
11,0,0,0,-1,4,8,1
-26,4,-1,0,2,-4,-1,7
-17,6,3,3,3,3,13,29
-20,-7,1,-4,-4,-2,5,-18
-22,-9,-6,-9,-12,-19,-32,11
-49,3,0,-2,-3,-5,-24,-48
58,14,8,3,4,6,7,-51
74,18,4,3,0,1,-5,-29
-128,-13,-11,-7,-6,-11,-21,-36
-34,4,3,-2,0,2,6,24
46,-2,-3,-1,0,6,11,35
-63,-26,-11,-7,-12,-13,-29,-60
20,-1,2,3,1,0,-6,-16
48,2,2,4,4,4,10,45
16,-36,-4,2,2,2,7,-84
-14,14,1,0,-7,-7,-2,-10
127,21,10,8,8,24,59,96
-51,-22,-14,-13,-17,-21,-29,-57
-63,-17,-10,-7,-9,-15,-35,-34
11,1,3,2,12,19,30,-5
-82,-33,-18,-11,-13,-20,-36,-48
41,21,11,9,14,20,38,60
29,5,-3,-6,-4,-1,27,72
40,-13,-3,1,-3,0,-1,39
5,26,5,4,1,-3,-15,-57
-22,1,-3,-3,0,2,2,-27
-7,-9,-10,-9,-9,-17,-29,8
7,21,10,13,14,20,38,25
-110,-20,-1,-6,-8,-6,-21,-128
-13,-19,-12,-10,-9,-13,-23,20
119,28,8,3,0,-2,-16,-61
5,1,-4,-4,0,-4,-12,13
-62,-19,-10,-4,-6,-7,-15,-48
3,17,6,5,12,15,21,30
-79,-5,1,0,-1,5,6,-14
35,-19,-11,-8,-5,-9,-19,-80
122,20,8,1,8,7,30,95
41,30,13,8,6,8,17,25
20,5,3,1,-3,-10,-38,-8
4,14,11,12,15,21,63,86
-12,-3,-3,-4,-2,-5,-23,21
-30,-29,-14,-13,-18,-14,-12,-57
19,-10,9,8,5,5,8,-19
-27,8,2,2,6,4,-5,-70
-83,-3,-10,-7,-10,-7,-10,-68
52,16,2,2,-3,-6,0,81
-25,-36,-3,-2,-6,-4,-12,-53
-95,-29,-15,-12,-13,-21,-36,8
97,35,16,12,19,28,84,42
-70,-23,-10,-3,4,-1,-22,-54
68,39,8,4,3,0,9,13
-12,-7,-3,-5,-4,1,-3,61
-24,-22,-10,-5,-11,-12,-9,83
28,3,2,0,-1,-5,-16,-38
-11,-4,-7,-5,-4,-6,-3,-35
-38,-11,-9,-6,-4,-4,-5,-7
-34,-22,-11,-8,-9,-8,-46,-38
72,19,9,4,2,0,33,36
-97,-5,-2,-3,-2,3,-4,-43
3,-1,-2,-6,-11,-12,-25,-82
38,3,5,2,5,6,16,49
-96,-11,-5,-6,-6,-3,-15,-95
-55,0,-7,-1,0,-4,0,4
49,13,6,5,4,0,17,23
-3,-5,0,2,1,4,-10,-23
11,-1,3,3,3,2,-19,16
-41,-10,-13,-9,-7,-11,1,15
16,1,2,2,3,10,25,41
-7,-6,-2,-1,2,0,22,52
-121,-12,-4,-3,-5,-5,-7,-103
83,30,13,12,12,13,28,114
-58,-9,-1,0,-1,-8,-22,38
-35,-18,-12,-11,-9,-11,-14,-73
9,-1,-1,1,2,8,13,15
-97,-23,-10,-5,-3,2,4,-3
85,44,8,0,-4,-9,-13,-5
22,-3,-3,0,0,-5,-34,-30
-10,-9,-6,-11,-16,-11,-1,-16
52,7,2,1,4,7,15,40
11,5,3,4,1,8,20,51
-62,-5,-3,-1,-2,-8,-14,-71
-4,1,5,5,5,2,1,-54
19,11,2,-1,0,0,-4,-10
-25,-18,-7,-7,1,-4,-16,-26
-38,-8,1,-2,-2,0,-11,-19
52,-7,-9,-8,-2,-5,8,66
22,15,6,7,-1,0,3,0
9,-4,4,1,-6,-7,-16,-16
1,-8,-2,-5,-5,-1,-14,3
-76,-21,-11,-6,-6,-14,-24,-63
96,16,6,1,11,13,53,80
35,-6,5,5,6,11,3,66
36,8,-2,-1,1,1,40,40
-2,3,1,-1,-3,-1,-18,-39
39,4,0,0,1,-1,-15,11
-49,4,0,0,1,2,19,-48
26,-11,-1,-2,2,1,-1,-21
25,2,1,-1,-3,-3,-6,-38
-98,-30,-18,-13,-16,-21,-51,-109
-16,-4,-5,-7,0,-2,1,-23
13,19,10,4,5,9,21,61
-12,-7,-8,-6,-10,-9,-17,-35
21,1,5,6,1,7,9,50
-16,-12,-6,-4,-2,-4,-1,-29
-86,-15,-8,-6,-8,-13,5,-46
20,3,1,-1,0,-1,-8,-10
-24,-14,-9,-9,-2,-5,-26,-59
37,0,-2,1,-4,1,-13,-90
1,8,5,6,0,3,-3,30
-19,-28,-8,-2,-3,0,-8,-34
-33,-8,-5,-7,-8,-13,-6,41
45,15,5,3,6,3,1,17
-32,-11,-7,0,-5,-6,-11,-32
5,-2,-1,0,-2,-2,-7,64
-22,-9,-6,-7,-7,-11,-27,-46
17,7,4,1,4,5,21,62
47,23,8,5,10,15,30,40
-4,3,1,2,4,5,14,52
-53,-6,-3,-2,-1,0,-9,-93
1,7,1,0,-4,-5,4,-11
23,-4,-2,-2,-2,0,-11,18
-88,-14,-7,-5,-3,-4,-7,-43
18,3,-1,-2,2,7,18,40
-48,-23,-12,-6,-9,-14,-41,-106
120,29,11,6,10,14,22,40
-38,3,-1,2,5,3,12,-73
-4,9,8,6,-4,-3,-2,4
-107,-11,-11,-8,-10,-13,-11,-25
-101,-50,-20,-14,-11,-15,-54,-90
125,59,26,22,17,20,88,124
-19,-4,-4,-4,-4,-2,-13,-31
-50,5,2,0,1,2,-3,-56
25,4,1,-1,-3,-4,-7,14
-25,-6,-2,-3,-3,-3,-3,24
68,10,4,7,5,7,-1,62
-3,-8,-3,-4,-1,1,22,-8
78,21,6,2,5,7,26,39
-11,-17,-10,-12,-15,-18,-52,-77
-9,2,2,6,5,6,15,-49
-10,-13,-4,-2,0,6,2,52
60,7,2,2,-1,3,3,23
11,4,-3,-2,4,2,21,21
-14,-15,-9,-7,-9,-10,-25,-38
67,6,3,5,8,7,22,92
-40,-12,-7,-6,-9,-8,-15,-46
-22,-9,-1,-2,-2,-2,-22,17
-12,-5,-6,-7,-8,-11,-8,-34
-38,6,2,-1,2,-4,-12,-75
26,2,-5,-6,-8,-7,-2,28
24,15,8,7,2,3,1,-29
17,-12,-8,-8,-4,1,10,70
9,9,5,6,4,7,21,12
-73,-13,-6,-3,-5,-9,-18,-62
61,22,8,7,16,23,50,90
-53,10,5,3,2,-1,-5,-89
-83,-30,-13,-7,-15,-13,-21,-46
30,-9,-6,-1,1,-5,-24,-38
69,19,7,0,1,8,40,71
-13,-17,-7,-7,-7,-15,-36,-38
86,35,19,16,28,41,90,127
-58,-7,-2,-1,-2,-4,-7,-34
-95,-41,-21,-16,-23,-32,-86,-112
86,22,11,8,14,17,55,95
-26,-22,-10,-9,-15,-15,-54,-94
-30,7,3,4,2,3,5,40
74,20,7,7,4,5,55,58
-73,-9,-5,-2,1,3,5,-36
14,-8,-5,-6,-9,-18,-35,24
63,26,13,7,9,19,53,81
-105,-24,-12,-12,-9,-13,-49,-84
-46,9,5,7,9,15,42,-25
96,7,1,2,2,8,21,50
-41,5,6,9,8,7,-6,-89
-26,-24,-14,-14,-15,-18,-36,-57
-2,-9,-3,-2,-5,-5,-9,41
59,21,6,-3,-1,5,25,36
-51,-15,-6,-3,-3,-8,-18,-27
-11,1,-3,2,1,2,-24,-18
-77,-9,-1,-3,-10,-14,-4,-16
-53,-15,-10,-5,-8,-8,-10,-17
28,22,10,6,7,10,26,66
-27,-8,-2,-2,1,2,1,-30
90,9,-2,-3,-3,-6,-27,-45
-90,-22,-9,-7,-8,-14,-36,-82
-5,2,-1,-3,-5,-12,-25,-17
-13,-10,-4,-1,2,6,7,25
17,25,14,13,8,11,26,24
5,-9,-1,-1,-6,-5,-17,-25
15,-17,-10,-11,-8,-13,-22,16
-29,10,8,8,6,8,10,-42
-9,-7,-8,-8,-4,-4,-22,-38
30,16,5,-1,1,-1,-3,9
-36,-13,-5,-6,-6,-5,5,-42
-46,-23,-14,-14,-10,-15,-57,-76
-47,-1,-1,0,-4,-1,24,-40
29,5,4,6,11,17,39,93
34,-3,-3,0,-10,-11,-29,-36
34,8,5,2,4,9,24,27
-9,-10,-2,1,2,-3,-13,-12
-20,-13,-6,-7,-15,-12,-26,-32
18,-5,-4,-4,-1,1,22,97
47,12,1,2,0,7,44,100
-2,-33,-10,-8,-7,-12,-29,26
-60,-4,-1,4,5,1,-4,-55
35,8,3,0,5,9,17,12
0,10,4,7,5,5,14,71
36,4,-4,-6,-5,-1,14,36
-41,-9,-5,-4,-4,-9,-23,-40
-61,-12,-6,-5,-6,-5,-3,-37
-55,-12,-8,-9,-7,-13,-51,-92
79,13,2,8,5,10,49,112
18,18,8,3,6,1,36,3
76,10,5,5,6,17,50,60
119,30,16,9,7,12,13,-24
-41,-1,-4,-5,-2,-2,-30,-98
-6,-4,-4,-3,-2,-1,1,0
-42,-7,-3,-2,-3,-6,-1,-14
-46,-18,-10,-6,-7,-7,-5,-3
-10,-1,1,-2,-2,2,-16,-16
10,-1,-3,-2,0,-2,-7,-13
-59,-10,-6,-5,-2,-5,-26,-65
-62,-29,-14,-9,-19,-27,-50,-75
71,33,15,14,18,19,59,57
122,38,24,23,20,23,24,-32
-9,17,7,4,10,20,45,-42
-63,-5,-4,-3,-6,-9,-16,-64
-75,-29,-17,-15,-20,-25,-50,-62
-70,-26,-16,-15,-18,-23,-44,-37
4,-3,-2,0,3,0,-7,1
33,7,3,6,2,5,21,38
-17,-1,-2,-2,-2,-3,-12,-5
28,4,0,0,2,7,16,45
-10,-4,-4,-5,-8,-10,-32,-69
4,-1,-1,0,3,7,23,78
-31,-9,-5,-5,-5,-12,-41,-97
-26,16,9,8,8,14,29,-26
63,-5,-7,-7,-11,-12,-31,-55
1,2,3,0,10,11,41,70
-33,-2,0,1,-2,-4,-21,-49
32,3,-2,-2,-3,-6,-27,-35
-32,-10,-9,-9,-14,-20,-24,-30
34,3,1,0,0,6,9,33
-21,-8,-5,-7,-8,-7,-15,-52
-7,-9,-6,-3,3,6,24,-5
-10,11,9,7,9,13,41,58
-15,3,1,0,-2,1,-2,-11
38,11,2,0,6,5,9,-6
-42,-13,-7,-4,-2,-7,-21,-17
-27,-8,-3,-3,-5,-6,-23,-41
0,-1,0,-2,-1,1,7,-12
13,6,4,1,3,8,19,26
-17,-8,-4,-2,-4,-8,-15,-4
-71,-25,-16,-12,-10,-18,-38,-66
49,6,14,12,14,14,22,4
6,-1,-7,-9,-15,-11,-4,-15
-53,-15,-9,-6,-4,-5,-21,-74
53,20,15,12,12,12,48,102
-29,-9,-9,-5,-7,-14,-62,-128
-7,-6,-3,-2,1,3,18,58
-41,-24,-9,-13,-14,-19,-38,-8
-10,13,8,12,13,16,8,-22
-5,-1,-4,-3,-4,-8,7,-25
17,9,8,-1,-3,0,7,19
-28,-4,-9,-6,-10,-11,-17,-34
37,5,5,5,8,8,11,-24
60,17,9,8,12,15,32,35
10,-3,-3,1,-2,-2,17,23
-29,4,3,-2,-4,-1,5,11
18,1,-1,-1,-4,-7,-17,-40
11,-16,-8,-9,-4,-7,-15,-15
-72,1,0,4,6,15,14,-65
72,18,8,8,9,13,42,38
-74,-24,-21,-11,-10,-9,-18,-11
-25,12,5,0,4,7,18,50
67,2,5,2,-1,-8,-27,-31
-61,-5,2,2,5,5,-8,-69
79,22,9,3,4,7,17,19
-10,0,-6,-9,-9,-11,-6,-19
-30,-2,-2,-2,1,-3,-8,-15
-19,4,4,5,3,6,1,-38
-69,-18,-10,-7,-10,-18,-25,-79
0,4,-1,1,2,8,22,32
15,4,0,1,0,0,7,26
-5,-6,-4,-5,-2,-3,10,43
2,1,1,-5,-1,3,5,29
13,-5,-6,-6,-8,-10,-22,-34
34,1,0,-1,5,0,-16,6
30,5,4,2,-2,1,13,36
-5,-2,2,0,-3,-1,-8,-28
-5,14,10,10,9,13,43,70
-1,-3,0,3,-3,-2,-1,24
33,-7,-9,-8,-7,-6,-16,-16
-86,-22,-12,-8,-10,-8,-11,27
88,43,22,13,14,11,27,24
-41,-4,-1,-2,-6,-7,-10,-44
-18,-5,-3,-6,-5,-9,-7,40
-53,-9,3,2,1,6,17,-6
16,-13,-10,-6,-9,-11,-27,23
19,-6,-5,-5,-8,-10,-17,0
-4,4,2,3,3,4,16,28
55,3,-3,-4,-8,-12,-18,-14
15,10,7,8,6,14,35,50
6,6,5,2,7,7,11,11
-6,-12,-11,-7,-10,-12,-17,12
91,29,11,6,12,21,48,74
-31,-11,-2,-3,-3,-7,-26,-82
-52,-15,-6,-1,-2,-5,-17,-34
71,5,6,7,0,3,23,90
-83,-14,-6,-3,-8,-12,-43,-86
3,-13,-9,-6,-4,-4,5,3
-34,-3,-5,-4,0,1,4,6
11,0,-1,-1,-1,1,-3,-18
-65,-24,-8,-9,-8,-13,-40,-50
-9,0,-4,3,1,4,3,-50
-26,-13,-7,-6,-5,-9,-13,-55
53,22,9,6,6,10,0,-76
54,2,-3,-4,-1,0,14,36
-3,-1,0,0,0,-6,-22,-54
49,6,2,-3,3,9,10,89
-2,-8,-6,-8,-9,-9,-10,-27
17,-1,-1,-2,-5,-1,6,-28
29,13,4,5,5,4,13,48
-20,-7,-1,-4,-3,1,-7,-47
-7,9,3,2,9,8,13,9
-7,19,2,1,0,-7,-22,-21
-58,-16,-10,-8,-18,-18,-25,20
-30,-5,0,-3,-8,-6,-10,-9
-74,-11,-2,4,3,4,1,-27
71,17,8,10,10,15,52,127
-83,-18,-12,-12,-17,-22,-45,-86
82,26,12,11,15,18,46,54
-28,3,-1,-4,-1,-5,-14,-50
80,3,-2,0,4,8,8,29
-25,-1,4,4,2,1,-20,-61
-1,-5,-5,-2,2,5,32,55
-7,-10,-5,-3,-5,-8,-3,74
-36,5,3,-1,-1,-2,1,-21
-75,-28,-14,-12,-13,-12,-28,-79
-42,-4,-3,-2,-1,-1,3,1
-12,-8,-5,2,1,2,-9,-66
-33,-6,-2,-4,-2,-1,-9,-32
25,-13,-7,-5,-2,-4,14,61
61,41,25,17,15,25,65,24
19,-29,-8,-8,-11,-9,-14,-16
-27,-18,-8,-10,-11,-17,-38,-51
-42,-23,-12,-11,-7,-10,-32,-26
92,26,12,14,11,8,14,77
34,14,4,2,-2,6,6,28
-25,4,5,6,7,7,27,28
23,2,1,3,4,7,22,37
-22,-12,-11,-9,-9,-11,-31,-102
73,17,9,5,2,1,14,28
49,12,7,7,11,11,28,66
52,7,2,0,-7,-7,-14,-59
-61,-12,-6,-3,-2,-7,-26,-4
-34,6,4,1,0,1,15,-36
17,-8,-7,-3,-4,-1,-21,-49
90,7,1,0,0,0,-8,-14
-16,-8,-4,-1,-7,1,6,-48
26,22,15,9,12,14,34,72
-99,-18,-10,-5,-2,-12,-36,-90
39,21,8,2,1,10,28,70
-57,-19,-10,-5,-7,-19,-46,-79
12,-7,-7,-4,-1,-5,-17,54
4,-23,-1,3,-9,-3,22,-1
-62,-8,-5,-4,-1,-2,-21,-14
-29,-15,-12,-13,-7,-9,3,38
52,8,-4,-4,4,0,-6,-69
34,11,3,4,0,2,-1,111
32,3,1,1,-2,-2,14,6
24,-2,-1,-3,-3,-4,7,78
-29,-23,-16,-7,-11,-11,-43,-67
23,2,-3,-2,6,0,14,-1
-24,7,6,1,-4,3,-12,54
36,-4,-4,-6,-11,-17,-28,-57
40,19,13,9,12,17,49,75
0,-3,-3,-4,-5,-2,-17,-23
-59,-30,-4,2,8,7,43,49
50,32,13,15,14,14,28,33
-76,-28,-19,-24,-27,-28,-83,-98
27,13,10,8,12,12,40,36
-31,-11,-7,-6,3,-1,-14,-29
1,3,1,-2,-6,3,-4,-12
-63,-8,-2,-1,5,-1,28,-41
-17,5,1,0,-2,-3,-14,-7
-57,-9,-7,-4,-10,-8,-22,-53
17,-3,-3,-6,-8,-8,-11,-21
1,2,4,1,-4,-5,0,-47
-122,-33,-21,-16,-14,-25,-71,-128
56,35,20,20,14,23,54,23
-57,-30,-13,-8,-4,-6,-26,-89
-77,-8,-5,-1,-3,0,-14,-44
79,9,2,0,-4,-9,-17,-34
-87,-11,-9,-9,-5,-3,-8,-61
13,-20,-2,0,6,-3,-13,2
45,11,8,7,12,19,31,77
127,26,9,3,1,8,55,118
-64,-18,-15,-11,-9,-14,-38,-80
-8,5,1,-1,-2,-2,-10,-25
56,13,9,4,4,10,27,109
-102,-16,-5,-7,-4,2,6,-22
52,11,6,8,12,4,2,41
0,9,3,-1,1,6,43,20
44,-3,-7,-3,-5,-9,-18,-45
-26,3,-1,0,-8,-5,-12,-64
16,-1,-1,5,5,3,5,-4
-28,0,0,-4,4,-3,-20,-24
-23,-3,-4,-4,-12,-9,-6,-54
23,1,0,3,5,13,37,58
6,-1,-2,-8,-8,-16,-41,-95
92,12,6,6,8,13,30,109
-54,-15,-11,-13,-10,-15,-19,-40
-54,-8,-1,0,0,0,-22,-32
102,38,11,7,0,6,22,30
22,15,8,8,5,12,33,41
-85,-26,-10,-17,-23,-32,-66,-58
3,3,0,1,4,3,25,-10
94,30,10,6,10,11,46,113
-65,-19,-8,-5,-11,-11,-36,-77
-53,-7,-5,2,8,8,0,36
45,-2,-3,-2,-5,-12,-29,38
-59,-19,-8,-9,-7,-7,5,-43
-28,-1,-2,3,5,0,-19,25
-54,-11,-2,-2,1,4,14,-11
-50,-15,-8,-6,-15,-23,-41,-81
20,-6,3,4,1,5,22,101
-78,-8,-3,-3,-7,-12,-33,-48
74,27,10,8,10,16,28,42
-77,-4,-3,-3,2,2,15,-45
-77,-16,-9,-6,-4,-8,-29,-63
27,-15,-11,-12,-16,-17,-12,-6
40,3,0,2,-2,-5,-19,-26
118,38,14,9,13,26,49,121
-24,-20,-8,-4,-5,-11,-33,27
-32,-13,-5,-4,-1,1,5,14
59,23,10,11,8,10,29,105
6,4,4,1,3,5,3,11
-102,-35,-21,-19,-11,-18,-40,-128
119,51,20,9,6,11,26,24
-86,-33,-16,-12,-14,-15,-30,-88
43,0,-6,-3,-8,-6,-15,5
1,15,12,8,9,13,20,-39
-90,-25,-10,-4,0,2,1,2
-24,-10,-6,-5,3,-3,-10,-48
19,-12,-8,-7,-6,-5,-10,-58
-18,-4,-3,-4,-8,-7,8,-9
13,4,4,2,1,2,-3,-40
-3,-46,-29,-21,-27,-37,-59,27
13,25,17,16,22,28,69,79
87,24,8,7,6,11,32,51
8,2,1,-2,-5,-1,-2,-84
-46,-20,-8,-6,-4,-10,-40,-97
-2,2,-2,-5,-5,-3,-7,18
1,-26,-9,-5,-1,-2,-3,62
11,-1,-1,2,-4,-4,11,-1
-57,15,10,7,13,18,16,-62
5,-4,-4,3,-1,-8,-25,-22
-5,13,8,3,-1,7,24,45
-119,-30,-20,-13,-9,-9,-21,-6
77,22,14,8,5,11,24,105
25,-10,-2,-3,-3,-8,7,84
16,32,16,14,18,23,42,24
2,-8,-5,-3,-3,-12,-34,-9
70,14,3,7,10,4,26,49
-108,-32,-14,-14,-19,-16,-47,-121
-14,-38,-24,-21,-25,-30,-63,-42
86,28,18,14,22,33,80,76
49,21,9,7,13,18,31,26
-32,-16,-12,-9,-13,-16,-29,-22
67,5,6,5,0,-2,-19,-59
62,17,10,7,8,14,54,88
-53,-1,-5,-6,-7,-14,-13,-59
26,20,19,17,14,22,47,28
-54,-15,-12,-8,-13,-16,-28,-25
-48,-5,-3,-6,-4,-3,-22,-17
17,7,7,0,1,5,8,-40
-23,7,0,0,4,11,49,38
-42,6,3,3,-1,-6,-52,-80
-104,-30,-15,-10,-8,-6,7,-7
54,19,7,8,1,4,14,-12
-81,-26,-13,-9,-5,-19,-50,-93
-81,-12,-8,-6,-2,3,2,-64
37,21,11,4,-2,1,2,18
19,-1,-1,-3,-2,-1,5,-34
8,8,3,0,3,1,5,30
-64,-16,-5,-5,-1,-2,-1,-38
68,1,-3,0,2,1,26,56
30,13,6,4,8,11,35,72
-53,-3,-5,-7,-5,0,-18,-99
21,-13,-9,-4,-8,-19,-39,-40
73,24,14,9,5,15,49,41
-26,-8,-3,-3,-1,-2,1,-41
60,11,6,4,9,13,9,67
127,21,3,-2,0,5,49,127
30,5,3,4,4,4,-3,-37
-54,-31,-18,-13,-13,-15,-34,-75
57,12,4,2,3,1,-7,8
1,9,10,8,6,6,18,21
-52,8,2,5,4,-6,-17,-11
-79,-5,-2,1,-4,1,-21,3
81,5,3,1,-1,4,22,9
-27,-13,-11,-11,-6,-9,-37,-46
12,15,6,7,11,15,39,28
74,17,9,3,-6,-10,5,63
-21,-6,-6,-9,-7,-9,-15,-29
-6,4,1,4,7,8,16,56
-51,-19,-14,-11,-10,-13,-44,-71
27,1,0,-3,-5,-5,1,32
38,-20,-2,-1,-2,-6,-12,2
-16,2,1,-3,6,6,7,-44
-73,-17,-8,-10,-16,-9,-28,-127
124,22,11,6,7,6,29,86
-112,-24,-18,-9,-16,-20,-44,-114
-46,-32,-12,-9,-12,-15,-68,-83
-93,-29,-12,-8,-11,-16,-14,-66
-10,-8,-5,-2,-2,4,22,49
-96,-7,-7,-5,-4,-6,-36,-83
-25,-26,-14,-9,-10,-17,-40,37
-6,-1,0,-3,0,10,25,27
-93,-50,-31,-23,-23,-29,-57,-96
64,10,7,7,3,5,16,49
-73,-9,-7,-5,-10,-9,1,-23
81,2,-2,-3,-2,-9,-31,-19
-72,-2,1,-2,2,5,-8,-51
83,3,3,3,0,-4,-8,11
-5,28,12,10,7,22,77,-18
-33,6,2,4,6,3,-30,-29
-60,5,5,3,-1,-1,-1,-55
-5,-9,-7,-5,-2,-9,-27,34
61,36,19,10,9,12,35,-25
-84,-27,-18,-14,-12,-20,-62,-110
37,8,5,5,-1,7,10,32
-19,5,-2,-3,1,2,26,20
15,4,-2,-4,2,2,16,35
99,4,-1,-1,-3,-7,-13,85
-71,-7,-3,-2,-1,-3,1,-85
-3,-2,-4,-6,-6,-8,-8,-46
38,-2,-3,2,-2,-2,-10,60
20,-5,-3,-5,0,2,12,-47
-25,-6,-4,-1,5,7,15,27
-93,-11,-3,-2,-7,-5,-9,-77
58,5,3,2,2,5,25,16
65,21,14,12,13,18,37,61
-16,-4,-1,1,3,4,1,-68
-24,7,3,2,2,2,3,6
-55,-8,-4,-3,-4,-11,-34,-57
77,17,8,9,3,4,25,116
26,4,0,2,0,-5,-6,-3
-59,-18,-6,-3,-3,-2,-29,-2
127,25,13,5,-1,-1,28,10
-89,-26,-11,-3,-4,-9,-42,-47
67,4,0,-4,-8,-13,0,65
115,35,33,26,28,40,94,58
-63,-15,-12,-12,-7,-5,-7,-12
-20,-9,-10,-7,-7,-13,-18,-53
-2,6,7,6,6,5,-4,65
2,-14,-11,-9,-14,-11,0,-14
65,21,11,8,7,11,11,91
-27,-18,-10,-8,-12,-13,-28,-57
105,42,19,11,11,16,62,83
60,9,1,4,2,-3,1,22
-8,16,9,10,16,18,22,9
-70,-17,-10,-9,-8,-5,-12,-38
-12,-3,-5,-4,-4,-3,-16,-21
18,3,1,3,-1,3,6,87
-36,-22,-11,-9,-15,-23,-40,-56
14,0,-4,-3,-1,-2,21,41
-10,4,3,0,8,12,6,-49
-86,-8,-2,-4,-3,2,7,-33
-33,10,4,4,4,7,14,39
4,-14,-3,-4,-10,-12,-35,-83
-18,-21,-12,-6,-7,-7,-10,5
7,1,-2,0,0,-3,-25,-45
-9,-8,-7,-5,-6,-9,-7,11
2,25,11,8,13,14,37,-59
-43,-6,-1,2,-2,3,-2,9
-62,-11,-5,-5,-5,-13,-24,-47
-20,-10,-3,-1,-6,-6,-20,-104
10,-4,-3,-3,0,-1,6,67
-32,-15,-6,-1,-6,-12,-8,-10
96,31,11,7,12,18,44,87
-18,5,4,2,1,0,-3,-8
23,2,-1,-1,-5,-6,-11,21
80,50,28,17,22,30,65,78
-14,5,1,-2,-1,0,-6,-61
70,-3,-3,2,2,1,14,33
-44,-5,-4,-5,-8,-7,-17,-95
-15,-16,-10,-7,-4,-3,-14,-12
-39,-15,-8,-7,-9,-8,-3,-11
95,20,10,8,8,13,19,2
14,2,-2,-5,-8,-9,-20,-4
