(0.497802734, -0.3725586, 0.5093384, -0.5949707)
(0.497802734, -0.3725586, 0.5093384, -0.5949707)
(0.497253418, -0.37097168, 0.5109253, -0.5949707)
(0.497009277, -0.3690796, 0.512207031, -0.5953369)
(0.4984131, -0.36920166, 0.50982666, -0.596069336)
(0.4984131, -0.36920166, 0.50982666, -0.596069336)
(0.499511719, -0.369384766, 0.5084839, -0.596252441)
(0.500061035, -0.376647949, 0.4991455, -0.5991211)
(0.495605469, -0.379760742, 0.494934082, -0.6043091)
(0.495605469, -0.379760742, 0.494934082, -0.6043091)
(0.494750977, -0.3861084, 0.488769531, -0.6060791)
(0.49230957, -0.3932495, 0.4817505, -0.6090088)
(0.49230957, -0.3932495, 0.4817505, -0.6090088)
(0.492736816, -0.393615723, 0.481872559, -0.6083374)
(0.492736816, -0.393615723, 0.481872559, -0.6083374)
(0.492797852, -0.39276123, 0.482543945, -0.608276367)
(0.492797852, -0.39276123, 0.482543945, -0.608276367)
(0.492797852, -0.39276123, 0.482543945, -0.608276367)
(0.493042, -0.390686035, 0.48449707, -0.607910156)
(0.4915161, -0.386535645, 0.4892578, -0.6079712)
(0.4918213, -0.386047363, 0.4897461, -0.607605)
(0.492675781, -0.386230469, 0.489685059, -0.606872559)
(0.492675781, -0.386230469, 0.489685059, -0.606872559)
(0.493469238, -0.3866577, 0.4897461, -0.605896)
(0.493469238, -0.3866577, 0.4897461, -0.605896)
(0.493164063, -0.3859253, 0.489868164, -0.606506348)
(0.493164063, -0.3859253, 0.489868164, -0.606506348)
(0.493164063, -0.3859253, 0.489868164, -0.606506348)
(0.49395752, -0.387451172, 0.489318848, -0.6053467)
(0.49395752, -0.387451172, 0.489318848, -0.6053467)
(0.493530273, -0.387756348, 0.489379883, -0.6054077)
(0.4925537, -0.387390137, 0.489868164, -0.606140137)
(0.4907837, -0.38885498, 0.489379883, -0.6069336)
(0.4907837, -0.38885498, 0.489379883, -0.6069336)
(0.4909668, -0.389099121, 0.4892578, -0.6067505)
(0.4909668, -0.389099121, 0.4892578, -0.6067505)
(0.490661621, -0.388916016, 0.489379883, -0.607055664)
(0.490234375, -0.38848877, 0.489501953, -0.607543945)
(0.490234375, -0.38848877, 0.489501953, -0.607543945)
(0.490234375, -0.38848877, 0.489501953, -0.607543945)
(0.490661621, -0.388916016, 0.489196777, -0.607177734)
(0.490661621, -0.388916016, 0.489196777, -0.607177734)
(0.4907837, -0.3890381, 0.4890747, -0.6071167)
(0.490722656, -0.388793945, 0.489013672, -0.60736084)
(0.490905762, -0.388671875, 0.488769531, -0.6074829)
(0.490905762, -0.388671875, 0.488769531, -0.6074829)
(0.491210938, -0.388793945, 0.488647461, -0.60723877)
(0.491210938, -0.388793945, 0.488647461, -0.60723877)
(0.491333, -0.38848877, 0.488769531, -0.60723877)
(0.491394043, -0.3883667, 0.4888916, -0.607177734)
(0.491394043, -0.3883667, 0.4888916, -0.607177734)
(0.491699219, -0.388244629, 0.488952637, -0.6069336)
(0.491699219, -0.388244629, 0.488952637, -0.6069336)
(0.491638184, -0.388061523, 0.4892578, -0.606872559)
(0.491638184, -0.388061523, 0.4892578, -0.606872559)
(0.491333, -0.387817383, 0.489685059, -0.6069336)
(0.491333, -0.387817383, 0.489685059, -0.6069336)
(0.490844727, -0.387756348, 0.49005127, -0.607055664)
(0.490844727, -0.387756348, 0.49005127, -0.607055664)
(0.490661621, -0.387939453, 0.49017334, -0.607055664)
(0.489990234, -0.387573242, 0.490722656, -0.6072998)
(0.489990234, -0.387573242, 0.490722656, -0.6072998)
(0.490478516, -0.3883667, 0.490478516, -0.606689453)
(0.488952637, -0.389099121, 0.490356445, -0.6074829)
(0.488952637, -0.389099121, 0.490356445, -0.6074829)
(0.4892578, -0.389526367, 0.490234375, -0.6071167)
(0.4890747, -0.3899536, 0.49017334, -0.6069946)
(0.4890747, -0.3899536, 0.49017334, -0.6069946)
(0.4890747, -0.3897705, 0.490356445, -0.6069946)
(0.4888916, -0.3895874, 0.49041748, -0.607177734)
(0.4888916, -0.3895874, 0.49041748, -0.607177734)
(0.4888916, -0.3895874, 0.49041748, -0.607177734)
(0.4888916, -0.3895874, 0.49041748, -0.607177734)
(0.4888916, -0.3895874, 0.49041748, -0.607177734)
(0.488952637, -0.3895874, 0.490356445, -0.607177734)
(0.489379883, -0.390014648, 0.49005127, -0.6068115)
(0.489379883, -0.390014648, 0.49005127, -0.6068115)
(0.489196777, -0.3899536, 0.4901123, -0.6069336)
(0.4890747, -0.390014648, 0.489990234, -0.6071167)
(0.4890747, -0.390014648, 0.489990234, -0.6071167)
(0.4890747, -0.390014648, 0.489990234, -0.6071167)
(0.4890747, -0.390014648, 0.489990234, -0.6071167)
(0.489196777, -0.390014648, 0.4899292, -0.607055664)
(0.489196777, -0.390014648, 0.4899292, -0.607055664)
(0.489196777, -0.390014648, 0.4899292, -0.607055664)
(0.489563, -0.390563965, 0.4897461, -0.6065674)
(0.489440918, -0.390869141, 0.489868164, -0.6063843)
(0.488769531, -0.3909912, 0.49005127, -0.606689453)
(0.488769531, -0.3909912, 0.49005127, -0.606689453)
(0.488952637, -0.391235352, 0.4899292, -0.6064453)
(0.488769531, -0.3912964, 0.49005127, -0.606506348)
(0.48840332, -0.391113281, 0.4902954, -0.606689453)
(0.48840332, -0.391113281, 0.4902954, -0.606689453)
(0.48840332, -0.391113281, 0.4902954, -0.606689453)
(0.48840332, -0.391113281, 0.4902954, -0.606689453)
(0.48840332, -0.391113281, 0.4902954, -0.606689453)
(0.48840332, -0.391113281, 0.4902954, -0.606689453)
(0.48840332, -0.391113281, 0.4902954, -0.606689453)
(0.48840332, -0.391113281, 0.4902954, -0.606689453)
(0.488586426, -0.3912964, 0.49017334, -0.6065674)
(0.488647461, -0.391723633, 0.49017334, -0.6062012)
(0.488647461, -0.391723633, 0.49017334, -0.6062012)
(0.488647461, -0.391723633, 0.49017334, -0.6062012)
(0.488464355, -0.391784668, 0.4902954, -0.6062012)
(0.488464355, -0.391784668, 0.4902954, -0.6062012)
(0.488464355, -0.391784668, 0.4902954, -0.6062012)
(0.488647461, -0.3922119, 0.4901123, -0.605957031)
(0.488647461, -0.392150879, 0.4901123, -0.605957031)
(0.488647461, -0.392150879, 0.4901123, -0.605957031)
(0.488647461, -0.392150879, 0.4901123, -0.605957031)
(0.4885254, -0.39239502, 0.49017334, -0.605896)
(0.4882202, -0.393005371, 0.49017334, -0.6057129)
(0.4882202, -0.393188477, 0.489990234, -0.6057739)
(0.48828125, -0.393493652, 0.489807129, -0.605651855)
(0.48828125, -0.393493652, 0.489807129, -0.605651855)
(0.48815918, -0.393798828, 0.4897461, -0.6055908)
(0.48815918, -0.393798828, 0.4897461, -0.6055908)
(0.488464355, -0.394165039, 0.489563, -0.605285645)
(0.488464355, -0.39440918, 0.489563, -0.605102539)
(0.488464355, -0.39440918, 0.489563, -0.605102539)
(0.488464355, -0.39440918, 0.489563, -0.605102539)
(0.488464355, -0.39440918, 0.489563, -0.605102539)
(0.488464355, -0.39440918, 0.489563, -0.605102539)
(0.488464355, -0.39440918, 0.489563, -0.605102539)
(0.488464355, -0.39440918, 0.489563, -0.605102539)
(0.488464355, -0.39440918, 0.489563, -0.605102539)
(0.488647461, -0.3944702, 0.489563, -0.604919434)
(0.488647461, -0.3944702, 0.489563, -0.604919434)
(0.488769531, -0.3945923, 0.489501953, -0.604797363)
(0.488769531, -0.3945923, 0.489501953, -0.604797363)
(0.488769531, -0.3945923, 0.489501953, -0.604797363)
(0.488769531, -0.39453125, 0.489501953, -0.604797363)
(0.488769531, -0.39453125, 0.489501953, -0.604797363)
(0.488952637, -0.3945923, 0.489563, -0.604614258)
(0.488952637, -0.39453125, 0.489563, -0.604614258)
(0.488952637, -0.39453125, 0.489563, -0.604614258)
(0.488952637, -0.39453125, 0.489563, -0.604614258)
(0.488952637, -0.39453125, 0.489563, -0.604614258)
(0.488952637, -0.39453125, 0.489563, -0.604614258)
(0.488952637, -0.39453125, 0.489624023, -0.604614258)
(0.489135742, -0.39453125, 0.489624023, -0.604431152)
(0.489135742, -0.39453125, 0.489624023, -0.604431152)
(0.489135742, -0.39453125, 0.489563, -0.604431152)
(0.489196777, -0.3945923, 0.489563, -0.604431152)
(0.489440918, -0.394714355, 0.489379883, -0.604248047)
(0.489440918, -0.394714355, 0.489379883, -0.604248047)
(0.489440918, -0.394714355, 0.489379883, -0.604248047)
(0.489440918, -0.394714355, 0.489379883, -0.604248047)
(0.489501953, -0.3947754, 0.489318848, -0.604248047)
(0.489379883, -0.39465332, 0.489501953, -0.604248047)
(0.489379883, -0.39465332, 0.489501953, -0.604248047)
(0.489685059, -0.395080566, 0.489318848, -0.603881836)
(0.489685059, -0.395080566, 0.489318848, -0.603881836)
(0.489685059, -0.395080566, 0.489318848, -0.603881836)
(0.489685059, -0.395080566, 0.489318848, -0.603881836)
(0.489685059, -0.395080566, 0.489318848, -0.603881836)
(0.489379883, -0.394226074, 0.4899292, -0.604187)
(0.489379883, -0.394226074, 0.4899292, -0.604187)
(0.489379883, -0.394226074, 0.4899292, -0.604187)
(0.489624023, -0.394104, 0.49017334, -0.603881836)
(0.489624023, -0.394104, 0.49017334, -0.603881836)
(0.489624023, -0.394104, 0.49017334, -0.603881836)
(0.4897461, -0.393981934, 0.4902954, -0.603759766)
(0.489807129, -0.393859863, 0.49041748, -0.60369873)
(0.489807129, -0.393859863, 0.49041748, -0.60369873)
(0.4897461, -0.393615723, 0.490661621, -0.60369873)
(0.4897461, -0.393615723, 0.490661621, -0.60369873)
(0.4897461, -0.393615723, 0.490661621, -0.60369873)
(0.4897461, -0.393615723, 0.490661621, -0.60369873)
(0.49005127, -0.393676758, 0.490905762, -0.603210449)
(0.49005127, -0.393676758, 0.490905762, -0.603210449)
(0.4899292, -0.393310547, 0.491455078, -0.6030884)
(0.489990234, -0.393432617, 0.491638184, -0.602844238)
(0.489990234, -0.393432617, 0.4918213, -0.602661133)
(0.489990234, -0.393432617, 0.4918213, -0.602661133)
(0.489990234, -0.393310547, 0.49206543, -0.602539063)
(0.4899292, -0.393188477, 0.49230957, -0.602478)
(0.4899292, -0.393188477, 0.49230957, -0.602478)
(0.489990234, -0.393127441, 0.492675781, -0.602172852)
(0.489990234, -0.393127441, 0.492675781, -0.602172852)
(0.489807129, -0.393005371, 0.493042, -0.6021118)
(0.489807129, -0.393005371, 0.493042, -0.6021118)
(0.489624023, -0.392822266, 0.493286133, -0.602172852)
(0.489624023, -0.392822266, 0.493286133, -0.602172852)
(0.489624023, -0.392822266, 0.493286133, -0.602172852)
(0.489624023, -0.392822266, 0.493286133, -0.602172852)
(0.489685059, -0.392822266, 0.4934082, -0.601989746)
(0.4899292, -0.392944336, 0.493469238, -0.6016846)
(0.4899292, -0.392944336, 0.493469238, -0.6016846)
(0.4897461, -0.39276123, 0.4937744, -0.6017456)
(0.489685059, -0.3925171, 0.493896484, -0.601806641)
(0.489685059, -0.3925171, 0.493896484, -0.601806641)
(0.489685059, -0.3925171, 0.493896484, -0.601806641)
(0.489685059, -0.3925171, 0.493896484, -0.601806641)
(0.489868164, -0.392578125, 0.49395752, -0.6015625)
(0.489868164, -0.392578125, 0.49395752, -0.6015625)
(0.489868164, -0.392578125, 0.49395752, -0.6015625)
(0.489868164, -0.392578125, 0.494018555, -0.6015625)
(0.4885254, -0.393127441, 0.4935913, -0.6026001)
(0.4885254, -0.393127441, 0.4935913, -0.6026001)
(0.4888916, -0.3935547, 0.493286133, -0.6022949)
(0.4888916, -0.3935547, 0.493286133, -0.6022949)
(0.4888916, -0.393493652, 0.493347168, -0.6022949)
(0.4888916, -0.393432617, 0.493347168, -0.6022949)
(0.4888916, -0.393432617, 0.493347168, -0.6022949)
(0.4888916, -0.393493652, 0.493347168, -0.6022949)
(0.489135742, -0.3935547, 0.4934082, -0.601989746)
(0.489135742, -0.3935547, 0.4934082, -0.601989746)
(0.489135742, -0.3935547, 0.4934082, -0.601989746)
(0.489196777, -0.393371582, 0.4935913, -0.6018677)
(0.489196777, -0.393371582, 0.4935913, -0.6018677)
(0.489196777, -0.393188477, 0.4937744, -0.6019287)
(0.489685059, -0.393371582, 0.493347168, -0.6016846)
(0.489685059, -0.393371582, 0.493347168, -0.6016846)
(0.49005127, -0.393676758, 0.4932251, -0.601318359)
(0.49005127, -0.393615723, 0.4932251, -0.601318359)
(0.49005127, -0.393615723, 0.4932251, -0.601318359)
(0.489807129, -0.393676758, 0.4934082, -0.6013794)
(0.489624023, -0.3935547, 0.493530273, -0.601501465)
(0.489624023, -0.3935547, 0.493530273, -0.601501465)
(0.489624023, -0.3935547, 0.493530273, -0.601501465)
