(0.513793945, -0.37322998, 0.457763672, -0.6221924)
(0.513793945, -0.373840332, 0.458190918, -0.621582031)
(0.510681152, -0.3729248, 0.46105957, -0.622497559)
(0.510681152, -0.3729248, 0.46105957, -0.622497559)
(0.511352539, -0.373535156, 0.461364746, -0.6213989)
(0.512573242, -0.376342773, 0.462219238, -0.618042)
(0.512573242, -0.376342773, 0.462219238, -0.618042)
(0.511901855, -0.3739624, 0.4650879, -0.6178589)
(0.511901855, -0.3739624, 0.4650879, -0.6178589)
(0.512390137, -0.3739624, 0.465332031, -0.6173096)
(0.512390137, -0.3739624, 0.465332031, -0.6173096)
(0.5133667, -0.375305176, 0.465332031, -0.6156616)
(0.5133667, -0.375305176, 0.465332031, -0.6156616)
(0.5133667, -0.3756714, 0.466003418, -0.6149292)
(0.5133667, -0.3756714, 0.466003418, -0.6149292)
(0.5126343, -0.374206543, 0.46697998, -0.615722656)
(0.5109863, -0.371826172, 0.46887207, -0.6170654)
(0.5109863, -0.371826172, 0.46887207, -0.6170654)
(0.5112915, -0.372131348, 0.469055176, -0.6165161)
(0.512084961, -0.371643066, 0.469360352, -0.615905762)
(0.512084961, -0.371643066, 0.469360352, -0.615905762)
(0.5114136, -0.371276855, 0.470214844, -0.616027832)
(0.5114136, -0.371276855, 0.470214844, -0.616027832)
(0.509643555, -0.37109375, 0.4711914, -0.6168213)
(0.509643555, -0.37109375, 0.4711914, -0.6168213)
(0.5091553, -0.371276855, 0.4713745, -0.6170654)
(0.5053711, -0.3696289, 0.473815918, -0.61920166)
(0.5053711, -0.3696289, 0.473815918, -0.61920166)
(0.5046387, -0.368835449, 0.4744873, -0.619812)
(0.50390625, -0.367736816, 0.475219727, -0.6204834)
(0.50390625, -0.367736816, 0.475219727, -0.6204834)
(0.5036621, -0.3673706, 0.475463867, -0.620727539)
(0.5039673, -0.366699219, 0.476257324, -0.620239258)
(0.5039673, -0.366699219, 0.476257324, -0.620239258)
(0.503051758, -0.36505127, 0.478210449, -0.6204834)
(0.5038452, -0.364135742, 0.4788208, -0.619873047)
(0.504394531, -0.364013672, 0.478942871, -0.6194458)
(0.504272461, -0.362792969, 0.479980469, -0.619384766)
(0.504089355, -0.362609863, 0.48034668, -0.619384766)
(0.504089355, -0.362609863, 0.48034668, -0.619384766)
(0.504089355, -0.362915039, 0.4804077, -0.61920166)
(0.5043335, -0.36340332, 0.480102539, -0.6188965)
(0.5043335, -0.36340332, 0.480102539, -0.6188965)
(0.504394531, -0.363464355, 0.4800415, -0.6188965)
(0.504394531, -0.363464355, 0.4800415, -0.6188965)
(0.503479, -0.3630371, 0.4805298, -0.619506836)
(0.503479, -0.3630371, 0.4805298, -0.619506836)
(0.5031738, -0.3630371, 0.4805298, -0.619751)
(0.503234863, -0.3633423, 0.4804077, -0.6195679)
(0.503234863, -0.3633423, 0.4804077, -0.6195679)
(0.503479, -0.3637085, 0.480285645, -0.61932373)
(0.5036621, -0.3638916, 0.48034668, -0.6189575)
(0.5036011, -0.3637085, 0.4807129, -0.618835449)
(0.5036011, -0.3637085, 0.4807129, -0.618835449)
(0.503356934, -0.3635254, 0.481140137, -0.6188965)
(0.503723145, -0.363586426, 0.48223877, -0.617614746)
(0.503723145, -0.363586426, 0.48223877, -0.617614746)
(0.5037842, -0.36340332, 0.48236084, -0.617614746)
(0.5037842, -0.36340332, 0.48236084, -0.617614746)
(0.5038452, -0.3633423, 0.48236084, -0.617614746)
(0.5038452, -0.3633423, 0.48236084, -0.617614746)
(0.5040283, -0.3635254, 0.482177734, -0.6174927)
(0.5040283, -0.3635254, 0.482177734, -0.6174927)
(0.5043335, -0.3637085, 0.481872559, -0.6173706)
(0.5046387, -0.363769531, 0.481689453, -0.617248535)
(0.504455566, -0.363647461, 0.481872559, -0.6173096)
(0.504455566, -0.363647461, 0.481872559, -0.6173096)
(0.5040283, -0.363647461, 0.481872559, -0.6176758)
(0.504089355, -0.363464355, 0.4821167, -0.6174927)
(0.504089355, -0.363464355, 0.4821167, -0.6174927)
(0.504089355, -0.363464355, 0.4821167, -0.6174927)
(0.504089355, -0.3635254, 0.4822998, -0.6173096)
(0.504089355, -0.3635254, 0.4822998, -0.6173096)
(0.5039673, -0.363464355, 0.4824829, -0.6173096)
(0.5039673, -0.363464355, 0.482543945, -0.6173096)
(0.5039673, -0.36340332, 0.482543945, -0.6173096)
(0.5039673, -0.36340332, 0.482543945, -0.6173096)
(0.5040283, -0.36340332, 0.482543945, -0.6173096)
(0.503479, -0.36328125, 0.482910156, -0.6174927)
(0.503479, -0.36328125, 0.482910156, -0.6174927)
(0.503479, -0.36328125, 0.482910156, -0.6174927)
(0.503479, -0.36328125, 0.482910156, -0.6174927)
(0.5038452, -0.36340332, 0.482849121, -0.6171875)
(0.5038452, -0.36340332, 0.482849121, -0.6171875)
(0.5042114, -0.36340332, 0.4827881, -0.616943359)
(0.5042114, -0.36340332, 0.4827881, -0.616943359)
(0.504272461, -0.363586426, 0.483032227, -0.616577148)
(0.504272461, -0.363586426, 0.483032227, -0.616577148)
(0.504272461, -0.363586426, 0.483032227, -0.616577148)
(0.504272461, -0.363586426, 0.483032227, -0.616577148)
(0.504272461, -0.3635254, 0.483032227, -0.616577148)
(0.5041504, -0.363769531, 0.483032227, -0.616577148)
(0.5041504, -0.363769531, 0.483032227, -0.616577148)
(0.5041504, -0.363769531, 0.483032227, -0.616577148)
(0.5041504, -0.363769531, 0.483032227, -0.616577148)
(0.5041504, -0.363769531, 0.483032227, -0.616577148)
(0.504272461, -0.363952637, 0.4829712, -0.616394043)
(0.504272461, -0.363952637, 0.4829712, -0.616394043)
(0.504272461, -0.363952637, 0.4829712, -0.616394043)
(0.504272461, -0.363952637, 0.4829712, -0.616394043)
(0.504089355, -0.363952637, 0.4831543, -0.616394043)
(0.504089355, -0.363952637, 0.4831543, -0.616394043)
(0.5038452, -0.3640747, 0.4833374, -0.6164551)
(0.503723145, -0.3651123, 0.4835205, -0.615722656)
(0.503723145, -0.3651123, 0.4835205, -0.615722656)
(0.503723145, -0.3651123, 0.4835205, -0.615722656)
(0.503723145, -0.3651123, 0.4835205, -0.615722656)
(0.503723145, -0.36517334, 0.4835205, -0.615722656)
(0.5036621, -0.3656006, 0.483459473, -0.615539551)
(0.5037842, -0.365661621, 0.4833374, -0.615539551)
(0.503723145, -0.365722656, 0.483215332, -0.6156006)
(0.503723145, -0.365722656, 0.483215332, -0.6156006)
(0.503723145, -0.365722656, 0.483215332, -0.6156006)
(0.503723145, -0.365722656, 0.483215332, -0.6156006)
(0.503723145, -0.365722656, 0.483215332, -0.6156006)
(0.503723145, -0.365722656, 0.483215332, -0.6156006)
(0.503723145, -0.365722656, 0.483215332, -0.6156006)
(0.503723145, -0.365722656, 0.483215332, -0.6156006)
(0.503723145, -0.365722656, 0.483215332, -0.6156006)
(0.503723145, -0.365722656, 0.483215332, -0.6156006)
(0.503723145, -0.365722656, 0.483215332, -0.6156006)
(0.503723145, -0.365722656, 0.483276367, -0.6156006)
(0.503234863, -0.366088867, 0.482910156, -0.616027832)
(0.503234863, -0.366088867, 0.482910156, -0.616027832)
(0.503234863, -0.366088867, 0.482910156, -0.616027832)
(0.503234863, -0.366088867, 0.482910156, -0.616027832)
(0.503234863, -0.366088867, 0.482910156, -0.616027832)
(0.5029907, -0.366210938, 0.483032227, -0.616088867)
(0.5029907, -0.366210938, 0.483032227, -0.616088867)
(0.5029907, -0.366210938, 0.483032227, -0.616088867)
(0.5029907, -0.366210938, 0.483032227, -0.616088867)
(0.5029907, -0.366210938, 0.483032227, -0.616088867)
(0.5029907, -0.366210938, 0.483032227, -0.616088867)
(0.5029907, -0.366210938, 0.483032227, -0.616088867)
(0.5029907, -0.366210938, 0.483032227, -0.616088867)
(0.5029907, -0.366210938, 0.483032227, -0.616088867)
(0.5029907, -0.366210938, 0.483032227, -0.616088867)
(0.5029907, -0.366210938, 0.483032227, -0.616088867)
(0.5029907, -0.366210938, 0.483032227, -0.616088867)
(0.5029907, -0.366210938, 0.483032227, -0.616088867)
(0.5031738, -0.366271973, 0.482910156, -0.6159668)
(0.5031738, -0.366271973, 0.482910156, -0.6159668)
(0.5031738, -0.366271973, 0.482910156, -0.6159668)
(0.5031738, -0.366333, 0.482910156, -0.6159668)
(0.5031128, -0.366210938, 0.4829712, -0.616027832)
(0.5031128, -0.366210938, 0.4829712, -0.616027832)
(0.5031128, -0.366210938, 0.4829712, -0.616027832)
(0.5031128, -0.366210938, 0.4829712, -0.616027832)
(0.5031128, -0.366210938, 0.4829712, -0.616027832)
(0.5031128, -0.366210938, 0.4829712, -0.616027832)
(0.5036011, -0.366577148, 0.48236084, -0.615905762)
(0.503356934, -0.366882324, 0.482177734, -0.616027832)
(0.503356934, -0.366882324, 0.482177734, -0.616027832)
(0.5032959, -0.367492676, 0.481994629, -0.615905762)
(0.503234863, -0.367492676, 0.481994629, -0.615905762)
(0.503234863, -0.367492676, 0.481994629, -0.615905762)
(0.503479, -0.3673706, 0.481994629, -0.6157837)
(0.503479, -0.3673706, 0.481994629, -0.6157837)
(0.503479, -0.3673706, 0.481994629, -0.6157837)
(0.503479, -0.3673706, 0.481994629, -0.6157837)
(0.503540039, -0.3673706, 0.482055664, -0.615722656)
(0.5037842, -0.3671875, 0.4829712, -0.614868164)
(0.5037842, -0.3671875, 0.4829712, -0.614868164)
(0.5037842, -0.367126465, 0.4829712, -0.614868164)
(0.5038452, -0.367126465, 0.4829712, -0.614868164)
(0.5038452, -0.367126465, 0.4829712, -0.614868164)
(0.5038452, -0.367126465, 0.4829712, -0.614868164)
(0.5038452, -0.367126465, 0.483032227, -0.614868164)
(0.5036011, -0.36730957, 0.482910156, -0.614990234)
(0.5036011, -0.36730957, 0.482910156, -0.614990234)
(0.5036011, -0.3673706, 0.482910156, -0.614990234)
(0.5036011, -0.3673706, 0.482910156, -0.614990234)
(0.5036621, -0.3673706, 0.482849121, -0.614990234)
(0.5036621, -0.3673706, 0.482849121, -0.614990234)
(0.503479, -0.3673706, 0.4829712, -0.614990234)
(0.503479, -0.3673706, 0.4829712, -0.61505127)
(0.503540039, -0.36730957, 0.4831543, -0.614868164)
(0.503540039, -0.36730957, 0.4831543, -0.614868164)
(0.5036621, -0.366699219, 0.4837036, -0.614685059)
(0.5036621, -0.366699219, 0.4837036, -0.614685059)
(0.5036621, -0.366699219, 0.4837036, -0.614685059)
(0.5036621, -0.366699219, 0.4837036, -0.614685059)
(0.503723145, -0.366699219, 0.4837036, -0.614685059)
(0.503723145, -0.366638184, 0.483764648, -0.614624)
(0.5038452, -0.366882324, 0.4837036, -0.614501953)
(0.5039673, -0.3670044, 0.4835205, -0.6143799)
(0.5039673, -0.3670044, 0.4835205, -0.6143799)
(0.5042114, -0.3671875, 0.483398438, -0.6142578)
(0.5037842, -0.366088867, 0.4847412, -0.614135742)
(0.5037842, -0.366088867, 0.4847412, -0.614135742)
(0.5037842, -0.366088867, 0.484802246, -0.614135742)
(0.5038452, -0.366027832, 0.484802246, -0.6140747)
(0.5038452, -0.366027832, 0.484802246, -0.6140747)
(0.5040283, -0.366088867, 0.484680176, -0.6140137)
(0.5040283, -0.366088867, 0.484680176, -0.6140137)
(0.5040283, -0.366088867, 0.484680176, -0.6140137)
(0.5036011, -0.366027832, 0.484985352, -0.614135742)
(0.5036011, -0.366027832, 0.484985352, -0.614135742)
(0.5036011, -0.3661499, 0.485107422, -0.6140137)
