14,26,33,13,5,-11,51,-1,1,-13
3,2,19,22,2,-18,35,-3,-1,-11
-12,-43,0,19,20,-6,38,28,-7,9
-11,-53,-12,5,6,0,29,39,-16,-1
-10,-54,2,4,8,-4,36,32,-9,6
-10,-42,0,4,2,-23,30,25,-23,6
1,-9,-3,-1,-3,-14,28,4,-17,4
35,57,13,15,-2,9,43,28,20,40
47,101,10,33,5,30,65,69,61,56
17,43,16,31,0,9,39,37,27,16
-51,-34,20,22,17,4,-6,-1,-46,-32
-32,18,-47,45,11,23,-49,-20,-17,-37
-8,29,45,30,-2,29,-51,-22,20,-18
-19,-15,33,-9,-3,13,-46,-31,31,-24
-24,-25,11,-18,-14,-4,-47,-30,-5,-36
-18,-22,0,-13,-25,-14,-75,-23,-70,-36
-27,-47,-16,-8,-18,-30,-72,-22,-92,-39
-31,-54,-83,-13,-22,-29,-67,-22,-81,-41
-25,-39,-69,-35,-25,-10,-62,-12,-61,-32
0,41,4,-29,-29,-18,-31,10,-10,0
28,50,-63,30,5,8,-24,12,-18,-8
25,-4,-40,-1,-7,-7,-21,-3,-45,-24
17,3,36,3,-8,-15,-26,-6,-48,-25
18,23,-42,10,-25,-22,-46,-31,-26,-22
-7,8,-6,14,-27,-19,-47,-32,-17,-26
-48,-53,42,43,12,-2,-8,-29,-48,-34
-36,-39,35,47,28,31,11,-1,-27,-22
29,26,23,-4,22,42,8,26,-6,35
40,39,-3,-8,6,13,28,26,9,32
26,27,-93,1,17,14,51,40,20,25
-3,13,47,26,15,20,37,11,-7,14
-4,9,52,22,4,2,34,16,0,7
-6,-20,43,51,22,20,0,10,-20,-7
-5,2,56,71,25,27,-12,14,-1,0
-8,-47,-9,9,-37,-10,-49,-19,-25,-8
-30,-89,-79,-25,-62,-49,-58,-28,-43,-35
-40,-111,-95,-44,-56,-42,-58,-14,-42,-57
-41,-72,-35,-17,-27,-14,-49,6,-37,-41
35,32,68,8,41,29,74,82,45,43
40,52,73,11,51,35,82,86,62,45
-6,8,49,35,50,56,83,81,51,23
0,8,66,23,16,37,35,53,22,10
102,51,71,25,-24,4,-35,13,-19,15
137,96,89,35,-27,0,0,6,-18,25
12,48,70,-3,-3,29,56,14,23,-21
20,7,-32,-6,-12,28,38,4,39,13
29,35,-21,0,-20,-18,9,-6,-4,1
28,38,-42,3,-17,-19,0,-9,-1,6
28,59,-54,23,-12,17,27,45,50,40
26,101,-9,45,4,44,47,83,81,68
8,54,5,32,13,11,26,41,36,39
8,-2,-28,23,16,-4,16,15,-1,25
-3,-52,-37,-1,16,13,10,21,-5,15
6,-17,-35,-9,11,12,18,25,-3,37
-3,14,-76,17,2,1,23,18,6,33
-23,-12,36,26,-13,3,-10,-31,-17,9
-16,5,56,16,-15,9,-14,-38,-19,-2
-55,-12,-6,-11,0,-8,-17,-53,-5,-21
-62,7,-8,-12,-8,-7,-17,-44,-14,-13
-13,76,33,0,-4,18,-2,-16,7,13
-14,58,40,30,9,32,22,16,34,25
-32,0,23,33,16,19,4,10,11,4
-41,-30,39,48,26,5,-15,-19,-11,-9
-22,-10,49,69,23,-6,-9,-20,-11,4
-13,-9,36,56,-6,-9,-11,-12,-10,29
-11,-9,-17,11,-32,-22,-20,-7,-10,47
-19,-11,-13,3,-22,-2,-14,-5,-10,38
-15,-15,-9,-3,-12,13,-16,-11,-25,14
-7,-3,-60,13,3,14,-5,-22,-23,12
-12,-17,-47,14,40,15,-5,-10,-4,5
-34,-33,-11,-7,47,11,0,-1,12,11
-69,-15,-33,-16,32,8,-14,-23,-6,1
-75,-6,-29,-9,33,9,-12,-28,-24,-11
-62,-6,-6,12,32,12,-1,-15,-8,0
-31,-28,-28,12,19,2,25,-20,-12,8
-11,-42,-47,14,0,-3,23,-26,-17,9
0,-29,-9,14,-1,-11,22,-22,-2,15
10,-11,-13,4,1,-5,26,-2,21,35
24,-23,-56,-40,0,-3,-29,5,8,26
22,16,2,-16,19,-2,-19,20,47,28
41,105,103,16,30,20,18,61,147,68
18,43,22,-22,1,10,-6,36,56,24
-11,-20,-48,-18,4,-2,-27,-12,6,-6
-10,-37,-27,-13,4,-27,-21,-29,-8,-9
-15,-63,-36,-7,3,-30,-44,-30,-30,-14
-38,-93,-37,-8,-21,-38,-57,-36,-47,-29
-39,-63,-38,-21,-35,-50,-61,-38,-41,-25
-33,-22,18,-8,-32,-44,-73,-55,-61,-21
-24,10,123,15,-29,-56,-102,-87,-93,-48
-23,-17,32,-13,-56,-89,-111,-102,-105,-74
-33,1,118,-40,-63,-59,-9,-33,3,-30
-14,42,90,-22,0,-8,63,18,64,18
40,78,11,2,64,43,110,91,90,74
57,68,-117,32,82,60,103,105,99,95
19,2,-198,7,40,17,57,60,57,61
-11,-7,-79,-3,13,-3,57,41,12,19
11,1,-10,3,2,4,63,33,7,18
45,8,12,5,0,0,56,14,12,21
39,11,36,24,10,0,58,1,21,13
51,54,41,56,23,16,70,27,59,21
30,6,21,18,0,1,33,18,16,-7
12,-30,2,-16,3,-25,5,5,-2,-24
6,-22,-1,-17,18,-7,17,12,-1,-19
11,-21,8,-7,18,-9,28,14,1,-21
33,-18,8,4,9,-7,38,26,36,0
41,-6,18,6,5,1,31,23,34,8
27,-4,32,6,0,1,6,8,7,1
24,-9,-6,-7,-2,-23,-49,-23,-9,-18
5,34,40,-25,-18,11,-15,35,39,-20
-99,-56,64,22,-34,-39,-99,-67,-84,-109
-96,-71,66,25,-32,-51,-89,-86,-98,-111
-53,-30,64,33,-26,-28,-60,-68,-66,-67
-18,4,31,14,-16,-7,-13,-27,-21,-29
80,48,-103,-76,15,56,103,95,98,73
86,44,-129,-96,37,78,117,97,105,81
38,2,-98,-59,30,44,61,40,26,34
53,22,24,-20,3,23,-4,6,15,13
50,29,40,-3,11,6,0,3,23,13
41,42,65,12,13,-2,13,-1,18,11
26,35,55,-2,11,4,21,-15,6,-9
22,21,-38,4,14,6,22,-6,0,-6
32,27,-121,5,18,-8,17,-5,0,-2
-2,33,0,-20,-8,-6,11,-29,-15,-36
30,69,-7,-32,-2,32,14,58,59,50
23,40,-25,-38,-9,15,-26,31,40,25
-14,-32,-33,-20,-3,-20,-69,-30,-5,-22
-34,-43,-21,-16,-18,-40,-72,-41,-44,-38
-30,-39,-3,12,-20,-24,-60,-32,-31,-29
-41,-50,12,42,-15,-23,-69,-29,-19,-32
-34,-24,41,57,3,0,-41,-8,0,-13
27,3,26,34,6,17,-1,15,13,19
-2,1,-23,37,-2,11,25,-20,2,-26
-15,-4,-74,34,5,8,14,-38,-12,-41
0,39,-39,15,11,-4,6,-50,12,-37
3,47,-57,-17,-2,-11,9,-38,37,-17
-29,-8,53,-38,-10,20,15,0,49,-9
-35,-58,65,2,9,24,11,-2,45,-3
-22,-43,57,45,35,18,-38,3,59,15
1,-30,47,35,14,32,-18,12,77,13
49,43,53,31,20,58,21,70,138,63
73,96,51,29,17,62,41,83,141,81
50,49,34,-1,6,44,12,29,77,48
-21,-30,40,-33,-13,26,9,-10,0,2
-51,-21,56,-30,-26,6,-13,-24,-23,-13
-15,28,63,-25,-32,-18,-21,-26,-12,21
-17,29,60,-8,-32,-11,-31,-24,-25,17
-21,14,52,14,-15,0,-18,-36,-9,17
-22,-12,3,0,-13,0,-13,-36,-4,8
12,-44,-54,-40,25,12,-35,3,2,42
19,-3,-31,-14,34,14,-20,23,21,55
-4,-45,-18,-28,15,-24,19,6,36,59
-19,-47,-14,-33,2,-12,32,16,38,55
-52,-71,-19,-25,-18,-31,8,-11,2,19
-56,-52,-13,-9,-6,-14,26,-11,-15,-1
-11,18,9,0,-1,15,37,7,0,4
20,62,27,17,-4,42,58,49,46,32
8,16,-12,-15,-13,33,54,49,-11,19
1,-54,-38,-21,-29,-30,21,-23,-70,0
3,-21,-9,-40,-21,-20,24,-23,-36,32
5,-7,25,-6,-2,-29,-24,-19,-44,22
-2,-9,3,4,0,-23,-26,-17,-62,25
2,-14,16,-4,0,-29,-19,-9,-36,19
-11,-56,-106,-46,-12,-22,3,-16,-45,7
-29,-36,-27,-8,13,-4,-19,-30,-58,-17
-18,-33,12,-21,11,-8,-26,-18,-14,-19
-10,-36,-21,-26,35,23,-5,-4,-8,-2
-21,-29,13,-1,47,13,-14,-10,-12,0
-13,-2,30,4,15,-2,-9,-1,-23,0
16,-1,-3,-43,-34,-12,-39,12,-51,14
9,-11,-30,-44,-25,-27,-40,3,-61,8
-10,-32,-34,-41,-10,-19,-28,5,-26,0
-1,-31,-23,-29,0,-17,-43,3,-45,-9
39,44,13,-1,18,-11,-10,26,-16,18
41,60,25,4,16,6,-6,47,0,22
0,-24,-2,-10,18,7,-18,6,-13,-14
-23,-33,17,1,23,11,-27,3,18,-6
-29,-33,10,17,21,1,-25,7,-5,-16
-31,-37,-71,35,7,0,-30,-3,-25,-36
-24,-26,8,46,25,5,-28,-7,35,-30
7,83,64,43,33,50,51,58,73,22
11,73,-24,27,35,48,71,71,109,41
-15,6,-34,-7,19,4,47,23,60,17
-17,12,14,-24,-16,-22,16,-11,2,3
2,17,19,-25,-31,-26,1,-12,19,12
-8,7,25,-7,-27,-32,-24,-10,21,6
-33,-8,7,10,-11,-1,-37,0,-9,0
-35,-17,-49,6,-1,12,-46,0,-12,5
-9,-16,-110,14,4,-26,-14,-15,-2,5
9,0,70,20,12,-15,9,-37,-10,-7
-9,6,56,34,42,9,26,-28,-25,-11
3,58,49,37,41,34,50,8,47,12
8,21,3,17,31,16,55,-2,39,15
-4,-40,-78,-61,-6,-26,-10,-7,-56,-4
-23,-40,-59,-54,-8,-23,-34,-17,-61,-13
-13,-29,-50,-30,2,-17,-22,-8,-18,3
2,2,-60,-8,-8,-19,-27,-11,9,14
28,38,28,8,-3,0,-29,11,-16,19
28,30,64,20,7,12,4,14,5,19
8,6,67,25,11,2,1,6,36,24
-1,-27,19,-14,-9,5,-3,5,25,19
-32,-49,-12,-12,-19,0,-25,-28,-14,-10
-47,-64,-24,-19,-27,-22,-66,-57,-12,-35
-36,-50,-127,-33,-42,-21,-65,-59,-25,-48
-30,-35,-149,-33,-46,-3,-27,-39,-75,-36
-10,-29,-10,-28,-21,12,-5,-23,-35,-8
20,6,69,-13,19,38,32,19,36,30
25,13,-13,37,31,28,35,15,44,25
17,-9,-32,28,16,21,5,20,-67,-20
46,56,-41,47,21,33,30,49,-26,3
58,125,64,52,19,40,44,80,25,28
19,57,49,21,9,6,6,30,-17,2
-53,-27,8,-28,-20,-20,-29,-34,-95,-59
-39,-20,53,-14,-24,-31,-57,-49,-112,-68
-17,-11,69,-2,-25,-34,-74,-46,-108,-51
4,0,74,8,-20,-16,-55,-31,-78,-27
26,41,65,16,-7,16,-11,-8,-29,-4
30,32,11,-15,-16,16,-15,-8,-20,8
6,8,-1,-38,-24,-7,4,-18,-38,-11
-7,-24,-23,-29,-21,-13,10,-22,-62,-40
-29,-43,-45,-12,-14,0,16,-25,-68,-54
-44,-32,-82,10,-11,10,8,-31,-61,-63
-28,-17,-155,23,7,0,7,-32,-48,-49
-12,-8,-129,32,10,-3,2,-30,-35,-45
-32,-69,-112,20,-14,-33,-51,-77,-86,-96
-77,-99,-41,-9,-85,-102,-119,-129,-110,-126
-25,-36,94,13,-49,-72,-106,-78,-36,-68
25,35,174,20,15,-1,-9,7,74,18
70,101,148,11,50,49,65,68,81,75
101,148,127,33,62,66,67,88,94,92
102,181,140,28,32,43,61,86,91,80
55,87,-2,9,20,10,41,47,27,31
16,11,-118,-7,31,18,41,42,16,2
-5,-13,-43,-20,27,22,9,38,13,-14
-8,26,-71,9,3,3,-18,4,-9,-5
15,40,25,-42,-39,-18,-12,-4,43,32
-2,4,7,-36,-38,-10,-22,-8,14,19
10,-8,12,-19,-25,-24,-15,-7,4,32
24,-13,-10,-20,-25,-28,0,7,-7,32
40,15,4,-21,-31,-18,21,30,-7,21
35,35,29,12,0,29,27,48,32,7
-2,-20,-2,-12,-2,22,-4,15,-14,-9
-28,-52,-71,7,-4,2,-3,-6,-44,-27
-34,-56,-22,12,-5,-2,8,-7,-29,-37
-30,-41,6,37,11,19,16,-10,-34,-37
-10,-25,5,66,36,39,22,0,-18,-28
33,38,-6,54,37,49,32,33,25,19
45,34,-35,-2,18,35,24,33,49,35
36,9,40,-44,-8,10,19,30,88,46
25,10,33,-55,-7,-15,18,34,77,46
11,-6,3,-41,2,-12,-3,-4,16,19
-6,-21,62,-25,1,-30,-11,-25,10,-2
-30,-44,-10,3,-13,-32,-17,-39,6,-17
-58,-71,21,13,-13,-47,-19,-50,-22,-35
-65,-66,51,25,5,-33,-34,-55,-10,-21
-61,-56,47,18,0,-26,-15,-39,-29,-19
-60,-18,93,-17,-36,-35,3,-29,1,-38
-52,-13,145,6,-18,-60,-11,-45,-16,-53
-27,20,106,39,-4,-33,-10,-22,26,-20
-14,47,43,27,-16,-21,10,-1,48,8
-3,10,-6,12,-18,-29,16,-17,22,7
19,-2,-80,-44,-29,1,49,-11,32,38
32,3,-153,-108,-45,-4,43,4,3,42
21,-12,-135,-73,-11,-5,64,26,-6,32
16,-32,-78,12,32,25,84,42,6,18
28,-22,-76,23,40,27,50,24,-27,-3
33,-6,-71,-10,8,-11,4,-24,-75,-43
18,-7,-44,-31,-22,-40,-16,-46,-83,-43
19,8,-1,-8,-31,-38,-1,-29,-58,-28
29,29,13,20,-27,-9,-1,1,-16,-18
47,36,-19,3,-15,22,7,41,7,34
61,31,-18,-12,-10,31,28,72,30,69
47,28,-3,-17,-24,21,22,74,11,46
42,30,2,-7,-18,27,18,56,3,21
29,11,-16,-12,-17,16,-7,15,-14,8
12,10,-52,-2,-22,6,-32,-5,-22,3
6,1,-136,18,-5,-10,-40,-12,-31,2
-22,-55,-24,62,3,4,-70,-10,-55,-30
-23,-31,33,81,-3,9,-65,2,-44,-12
6,38,38,31,-19,9,-36,58,10,15
49,95,40,5,-36,12,-11,93,65,42
37,37,53,72,-55,-15,-16,33,3,43
31,40,66,68,-25,-19,-5,17,6,26
6,31,71,80,2,-16,-30,-7,-14,0
6,13,-2,66,6,-18,-16,-12,-25,-5
-85,-90,-98,-40,14,-31,-14,-35,-63,-84
-135,-60,-16,-26,-41,-90,-58,-106,-121,-135
-154,-9,120,20,-62,-123,-105,-153,-157,-162
-181,-32,152,39,-44,-108,-111,-144,-159,-180
-164,-58,81,20,-50,-101,-105,-130,-134,-160
-24,18,-9,2,-12,11,38,43,68,-8
33,-31,-86,-42,23,58,71,108,105,55
176,122,-8,-23,63,64,100,91,135,129
186,195,58,70,105,91,116,91,122,129
141,173,83,130,100,101,115,72,101,107
90,143,103,98,73,75,110,72,89,88
76,123,108,57,43,41,114,94,114,93
23,10,7,17,7,1,75,62,82,61
-5,-102,-143,-117,-21,-21,38,13,20,1
7,-99,-160,-78,34,-4,11,-2,-2,-17
-1,-103,-159,-32,67,22,2,-3,1,-39
2,-32,-110,-13,44,9,-28,-20,-7,-40
5,81,35,12,17,-14,-25,-25,-10,-38
-59,156,390,149,24,-49,-85,-95,-104,-104
-26,139,399,144,45,-15,-40,-36,-70,-60
3,79,224,89,32,6,-18,-13,-25,-13
-34,-11,-93,-1,-82,-74,-76,-94,-77,-50
-118,-206,-620,-241,-202,-140,-21,-11,2,-33
-79,20,-69,-170,-196,-98,-71,-20,25,-28
-28,35,104,-114,-135,-75,-39,-26,17,3
-36,-51,0,4,-19,-54,-83,-56,-67,-47
-110,-214,-244,22,81,38,4,0,-14,-73
1,-11,54,-2,78,46,37,-7,-16,-45
22,-9,12,-34,99,82,115,71,54,10
62,-3,-51,-58,99,117,157,116,154,82
76,23,-9,-12,58,90,89,75,120,57
59,12,-9,8,-9,7,4,18,34,9
39,7,-26,-14,-76,-55,-35,-26,-15,-11
22,56,-46,-14,-97,-87,-74,-61,-50,-30
1,112,-6,30,-56,-78,-100,-97,-67,-56
-55,70,-9,77,-20,-81,-122,-143,-96,-110
-91,-12,-49,68,-55,-123,-126,-182,-114,-144
-96,-83,18,3,-91,-108,-64,-108,-71,-92
-55,-62,169,-82,-67,-53,-13,-19,10,-36
16,-4,159,-130,27,30,53,39,53,-22
133,90,29,-146,93,132,154,151,131,64
184,102,-97,-84,151,211,244,243,235,136
154,50,-159,-23,141,228,259,233,243,140
106,-9,-171,-37,96,155,163,144,152,85
45,-48,-156,-27,79,74,64,30,46,-5
26,31,-138,49,75,44,-7,-22,-6,-36
43,102,-55,86,63,27,-35,-38,-18,-28
-33,187,295,91,32,-37,-78,-106,-94,-134
-26,129,334,101,-3,-33,-26,-63,-52,-107
24,84,260,12,-67,-39,35,38,40,-28
101,98,132,-100,-72,8,121,130,135,56
33,197,84,147,5,0,-6,-58,-32,-111
-106,-15,98,255,-25,-78,-67,-102,-97,-183
-129,-48,74,211,-61,-99,-135,-139,-151,-207
-89,13,223,145,-41,-43,-79,-105,-126,-164
-65,64,212,29,20,20,-12,-46,-62,-110
-44,132,-49,-72,50,26,-17,-45,-44,-107
5,77,-364,-54,-4,-33,-37,-35,-31,-117
74,-15,-122,-90,-103,-46,-54,-6,35,-62
-141,-414,-266,-154,-14,-33,-42,11,18,-76
-248,-414,-418,-125,81,16,-11,72,45,-133
-303,-300,-161,124,107,-25,-86,-24,-59,-245
-54,-25,458,364,100,-38,-169,-134,-115,-137
55,15,428,80,61,86,39,53,53,-28
88,2,137,-148,6,99,83,133,132,34
60,-78,-225,-288,-66,63,69,138,126,18
4,-123,-320,-205,-64,42,33,90,77,-29
-1,-104,-236,-134,-53,33,34,47,26,-48
2,-86,-135,-107,-32,26,44,35,24,-53
38,4,-81,-65,-22,27,63,67,103,-18
46,2,-80,-75,-20,13,36,82,123,-6
7,-36,-29,-46,3,-3,-2,16,22,-62
41,24,15,31,16,2,10,-6,5,-57
81,33,5,-23,-6,6,19,40,41,-27
66,-8,-102,-69,-11,11,19,56,49,-24
12,61,-127,-70,-54,-16,-49,-2,-18,-89
-39,86,-76,-3,31,14,-53,-35,-53,-116
-80,-45,-48,72,50,-25,-81,-52,-73,-126
-66,-29,33,179,58,-19,-83,-30,-47,-113
-43,25,154,276,73,-4,-42,-14,5,-86
-21,-97,72,-67,-106,-59,-33,2,68,-58
71,28,179,63,-81,-23,0,25,112,-5
137,180,193,73,-50,18,33,70,162,53
44,192,210,177,95,-9,-8,-60,-40,-93
37,156,167,145,151,9,-3,-66,-45,-101
30,237,233,13,-3,-52,-80,-111,-94,-144
22,89,-106,-123,-62,-25,-20,-52,-15,-90
-22,-22,-211,-217,-108,-41,-17,-38,-7,-85
-123,-113,80,-153,-110,-90,-87,-107,-111,-172
-89,-223,243,-4,-42,-65,-67,-72,-100,-120
103,35,43,-82,14,45,40,40,45,49
75,-63,-212,-129,0,31,33,26,59,35
35,-169,-345,-171,-58,-22,3,20,47,24
33,-167,-200,-40,-10,7,8,31,55,29
-70,-84,216,180,62,-17,-59,-56,-36,-91
-11,-4,-349,43,41,-2,25,14,21,-23
-70,155,-350,27,-3,-96,-105,-95,-70,-132
-61,397,27,111,-57,-171,-217,-195,-135,-170
-64,-224,79,98,134,89,113,117,115,93
-23,-103,47,68,76,24,26,-10,6,39
9,-83,5,52,57,17,26,16,27,69
38,-109,-10,90,56,38,41,42,29,74
55,-139,-125,45,55,79,96,103,66,113
-11,-146,26,11,53,66,96,117,55,77
-34,-108,105,43,7,40,9,54,18,59
-56,-76,-51,28,-15,22,4,-18,-40,9
-12,196,-75,-57,-19,35,59,43,-13,32
92,254,-196,-287,-90,18,75,67,54,124
22,-187,-278,60,60,88,76,107,61,110
-49,-171,-300,-29,-38,-21,-15,17,-14,32
34,56,34,-84,-25,19,5,70,78,122
46,729,187,223,-177,-295,-390,-418,-343,-196
93,-132,152,50,228,237,278,279,286,261
14,-345,-138,-3,158,135,123,165,135,154
-31,-249,-74,-96,41,58,46,88,54,78
-97,-130,62,60,-73,-98,-110,-61,-90,-16
-28,-100,39,-79,89,72,104,74,58,53
-141,-235,0,109,100,-3,4,-41,-69,-86
-163,-210,93,284,32,-95,-122,-165,-204,-184
-20,-12,62,133,-130,-205,-229,-266,-252,-166
-67,45,155,-36,-313,-365,-371,-416,-365,-262
-214,17,497,39,-369,-478,-469,-560,-494,-416
-145,106,601,21,-327,-435,-415,-503,-438,-328
62,392,549,-69,-271,-289,-231,-257,-181,-72
206,278,-41,-241,-2,132,251,241,274,282
-42,-231,-409,-352,-32,98,111,65,18,29
-23,-42,-177,-180,-104,42,36,13,-24,-4
55,121,-87,11,-58,50,107,89,74,88
3,-207,-441,128,318,300,334,295,238,138
71,-145,-628,-140,92,181,276,296,262,190
-37,334,807,204,-124,-194,-213,-226,-272,-191
-61,323,924,291,65,-93,-158,-188,-190,-141
103,392,689,321,258,72,-25,-62,-24,31
222,540,506,149,179,55,3,-4,60,114
177,393,424,21,70,14,44,28,111,119
13,-618,-545,-80,242,300,359,359,341,201
81,-199,-510,33,172,158,179,201,204,125
108,200,-85,-222,-161,-112,-98,-73,-23,5
176,426,112,-223,-274,-218,-194,-177,-75,-10
74,551,624,170,-9,-83,-107,-152,-108,-81
-204,217,1095,462,120,-101,-211,-319,-269,-297
-276,-513,-409,-154,-87,-62,-5,-56,-43,-187
-84,-393,-859,-300,-15,71,167,139,160,25
130,-339,-963,-300,64,113,181,230,242,204
-53,-390,-422,139,207,137,89,108,85,42
328,409,533,161,-7,116,202,239,283,298
429,458,321,53,-57,44,126,194,276,319
94,70,-452,-105,-30,-14,14,42,20,15
-22,-132,-948,-383,127,74,97,55,33,-45
-99,-190,-392,-288,110,79,124,83,40,-42
-261,-173,472,103,149,77,71,16,-41,-132
-239,-255,593,206,70,38,43,1,-25,-96
-124,-464,51,23,18,49,87,57,32,10
-80,-382,-203,-51,-23,30,38,55,5,10
31,-29,-163,17,-16,26,24,61,16,37
64,215,85,136,102,78,34,53,-2,26
0,258,1116,585,198,14,-112,-124,-95,-62
-51,95,-240,-20,-205,-279,-331,-324,-262,-226
-6,231,-851,-675,-482,-389,-344,-268,-190,-158
81,189,38,-495,-281,-97,-21,22,69,77
-147,-422,74,9,-52,67,85,74,70,0
-118,-493,-174,68,7,121,145,118,133,48
91,-230,-435,-183,41,159,208,214,261,206
-239,-462,-510,115,261,81,-53,-105,-121,-185
-259,-368,-144,213,138,-18,-107,-201,-181,-228
-157,-278,19,30,-77,-69,-58,-96,-66,-117
147,328,17,481,365,183,64,51,26,42
162,466,352,413,279,48,-73,-103,-87,10
-145,-125,-2,204,-25,-157,-237,-240,-216,-166
-497,73,878,178,-658,-785,-867,-882,-840,-739
-247,700,1319,146,-539,-585,-650,-649,-632,-531
267,1226,1570,-65,-290,-174,-122,-60,5,56
709,1326,1354,-255,18,260,364,447,519,600
-9,21,191,170,170,153,123,105,110,132
-48,-226,-69,185,238,61,37,47,-2,15
299,-71,-964,-739,-130,263,363,501,499,513
456,-38,-434,-179,-368,-212,-251,-164,-68,186
163,270,396,232,-296,-290,-405,-409,-318,-122
-35,635,800,220,126,63,-78,-136,-160,-122
-504,-1005,-444,476,179,112,1,-31,-64,-215
431,924,303,8,-53,129,127,197,272,355
-476,-497,-250,-35,185,-49,-149,-170,-206,-282
-26,122,-235,-70,363,439,518,562,491,310
104,-65,-170,-312,420,446,465,472,403,294
153,271,697,278,733,246,31,-57,-113,-11
331,354,153,-79,325,186,96,90,46,189
254,540,933,-452,-637,-692,-826,-874,-612,-321
165,1189,1600,-178,-284,-463,-614,-683,-535,-371
-593,-1968,-2265,-240,467,773,973,1022,867,385
-231,-1391,-1619,-263,168,508,684,767,722,413
-560,-437,-948,-70,-74,84,70,51,20,-138
694,351,771,134,-380,42,313,468,538,682
-590,-860,-782,-29,559,156,-28,-166,-338,-355
-440,-345,286,515,1009,340,3,-231,-454,-403
332,548,381,200,671,406,206,125,-9,172
775,475,-786,-163,324,374,317,341,310,593
367,-183,-1108,149,-270,-223,-278,-239,-197,137
-120,-348,-388,56,-764,-737,-716,-665,-599,-323
400,812,1149,-977,-589,51,442,654,679,651
-56,-23,24,467,-5,27,93,96,90,83
79,21,-699,178,-119,-54,8,36,42,116
-542,-1367,-1619,341,-34,-128,-209,-206,-289,-282
11,-84,-598,-261,131,161,114,93,61,103
-247,-546,-1112,-912,-125,126,289,338,214,83
-260,-749,-691,-495,-71,159,353,409,294,122
58,394,1505,361,52,-26,-38,-32,-39,39
-985,-638,41,722,-107,-634,-889,-1015,-978,-919
26,-378,76,97,275,298,304,298,244,233
249,614,237,-76,80,46,-1,28,-23,130
444,194,70,-84,-687,-468,-285,-85,128,354
-168,47,-85,-534,120,224,238,184,89,-19
56,-529,-925,-264,288,249,206,190,123,94
-39,-160,-60,25,78,-36,-93,-121,-159,-130
-19,277,633,588,631,302,135,69,-20,-41
350,-44,-586,-13,-132,-167,-130,-31,82,215
263,1033,1636,591,-132,-132,-177,-154,-89,51
1001,1043,-461,-624,-225,199,397,547,657,781
332,-242,-720,-490,-283,102,365,482,485,460
260,-79,-429,-126,233,264,299,324,286,261
-405,-341,404,338,65,4,-91,-161,-268,-349
-623,-58,1095,740,85,-191,-380,-462,-519,-605
-228,832,1695,431,-20,-233,-461,-499,-434,-372
325,1372,1465,-134,-104,12,-42,8,87,200
-74,-775,-1403,-552,-70,-26,74,136,137,76
-55,-1220,-1568,-327,-207,-145,-48,-12,3,-32
37,-461,-1028,-285,-427,-147,-3,24,80,16
283,641,-29,-423,-462,0,185,256,308,271
174,420,214,-482,-108,202,291,303,305,262
-374,-732,-142,-75,-29,10,-20,-95,-127,-233
56,297,397,-49,-502,-335,-244,-178,-101,-78
317,389,551,440,116,169,215,260,258,273
176,-201,-506,-18,444,345,347,314,328,311
-21,-26,-74,55,-107,-143,-67,-85,-1,60
-125,-58,-283,-865,387,128,25,-191,-234,-227
-229,87,312,-956,137,-67,-147,-287,-297,-261
11,334,524,-552,-87,-203,-239,-274,-207,-94
-6,467,1198,791,115,-330,-523,-608,-520,-303
-470,-252,611,1002,452,85,-111,-301,-399,-537
276,445,-26,-211,-85,199,422,505,517,338
567,342,-1084,-902,-426,268,651,870,927,788
271,-299,-1437,-938,-235,354,610,757,793,654
-149,-132,-161,488,128,181,208,213,174,99
115,196,-248,371,56,55,92,92,104,115
-16,-143,-391,105,-76,-109,-83,-116,-93,-56
15,-9,344,88,12,-40,-63,-20,16,82
-330,-309,291,130,-210,-384,-502,-499,-457,-347
-588,-41,717,-299,-443,-565,-663,-680,-613,-562
-676,121,970,2,-163,-354,-516,-584,-567,-585
-741,9,1972,2349,316,-422,-878,-1072,-1115,-995
686,1110,774,339,-244,-138,-94,-9,119,302
1662,1240,-1614,-1515,-268,543,969,1274,1450,1526
820,-599,-2526,-1318,-52,613,991,1219,1224,1105
-175,-1440,-966,-297,-123,173,395,498,438,265
-130,436,1246,60,-89,-33,-20,-34,-26,3
-594,-168,573,312,334,141,24,-93,-215,-319
-948,-893,-384,612,685,302,101,-59,-279,-525
-361,-553,-418,626,572,195,44,-48,-180,-238
-194,-711,-752,-109,17,-153,-235,-289,-376,-220
-429,-518,632,285,-84,-539,-736,-852,-841,-670
96,621,1562,182,-36,-328,-409,-467,-439,-256
783,1354,591,-356,-25,174,354,447,438,588
852,564,-852,-753,-137,345,615,751,724,852
434,-429,-1222,-711,-86,162,268,318,280,424
11,-642,-592,-179,152,-151,-255,-323,-293,-151
124,76,490,-73,4,-248,-315,-364,-303,-134
386,601,419,-40,-74,69,183,209,215,278
265,-22,-538,209,-13,432,677,747,674,494
-293,-617,-212,321,43,239,312,323,234,19
315,24,-849,-247,158,304,389,412,410,446
-218,-210,25,-166,-150,-43,43,1,28,-15
-306,-356,-424,-181,30,31,79,21,-15,-65
-502,-339,-483,124,189,83,77,-37,-125,-234
-515,467,1044,854,358,-120,-303,-491,-558,-531
-266,1060,1922,706,402,-194,-449,-627,-640,-465
-101,671,1388,154,46,-115,-213,-328,-291,-177
18,-62,200,-88,-660,-366,-272,-309,-238,-113
58,214,525,87,-848,-540,-406,-407,-342,-189
62,311,357,403,-213,-80,18,40,15,18
228,143,-553,111,215,328,411,437,372,310
11,-512,-1236,-419,137,288,400,449,398,292
-194,-847,-1072,-547,-5,117,232,262,187,109
-82,-919,-1168,-228,61,128,196,194,136,156
-194,-589,-426,348,116,122,121,102,55,1
33,-66,244,337,-41,-33,-40,-8,0,26
323,106,164,-266,-284,-165,-105,6,71,192
334,52,-249,-576,-217,-34,35,151,187,263
0,-122,-200,-268,8,69,67,109,96,69
-182,-177,164,126,12,12,6,43,26,-50
-320,79,673,427,-60,-193,-287,-304,-362,-326
716,1009,2,157,186,121,101,80,138,341
558,760,341,-486,-115,-9,69,137,199,367
32,-133,-129,41,-22,29,28,91,48,110
310,-332,-1058,-493,-346,-8,148,325,358,364
216,-136,-818,-502,-275,33,188,324,347,302
-986,-477,2059,1189,379,-28,-311,-509,-647,-791
-712,49,1612,873,200,-103,-281,-374,-491,-551
-164,548,277,-225,-160,-35,12,71,-10,8
145,369,-771,-833,-254,33,161,273,228,298
484,158,-631,-599,-194,-95,-42,51,89,304
254,-526,-1045,-255,-121,-192,-225,-181,-121,80
-154,-917,-1293,130,222,103,55,24,-15,-33
-63,-180,-272,612,382,285,203,124,60,15
51,384,708,702,168,110,-21,-93,-99,-66
-83,255,-36,-646,-61,-277,-403,-507,-477,-317
-565,-338,307,-397,-38,-427,-542,-649,-655,-636
252,798,787,144,-35,-88,-46,-29,-45,68
-313,-521,586,1009,-106,-109,-133,-150,-193,-296
51,442,1587,552,214,65,-37,-76,-122,-115
147,549,398,441,507,401,342,311,233,174
-127,-235,-1274,-65,342,447,485,490,434,231
-417,-899,-1526,-651,74,205,277,311,303,69
334,38,-838,-345,70,-111,-258,-245,-208,29
115,-232,-943,-1252,-252,-256,-302,-266,-178,-16
83,501,583,-112,-234,-258,-206,-150,-125,-72
-207,456,889,123,-244,80,261,330,294,88
-414,-718,-986,-158,-30,393,547,608,507,188
-293,-1147,-1380,56,117,390,498,551,487,222
404,119,-165,88,148,90,64,97,34,93
225,252,774,229,86,-55,-130,-98,-114,18
-132,196,677,418,-34,-237,-359,-348,-312,-215
-649,269,776,689,-177,-555,-704,-767,-724,-702
297,217,345,291,-253,-320,-334,-329,-239,-11
-74,-838,-1222,-789,-193,78,259,265,249,173
86,-103,-117,-88,-71,193,335,361,322,216
234,230,766,210,-24,272,408,422,380,334
321,383,1058,339,118,338,423,393,360,355
-311,-237,531,878,394,-111,-340,-403,-394,-326
-378,722,2296,1287,-45,-624,-953,-1036,-954,-726
375,663,-1551,-652,-168,168,309,337,338,377
-625,-1128,-1014,-505,-70,75,141,86,-16,-246
566,734,338,-697,-246,115,322,519,576,603
200,-159,-1057,-606,-7,208,359,490,549,431
-306,-952,-1212,9,205,73,-14,-20,-2,-118
-258,-575,-378,96,93,21,-23,-4,11,-115
-164,-351,-234,29,-82,-3,67,176,194,65
-26,-148,-106,222,17,-18,2,72,76,24
-212,-147,688,713,181,-98,-212,-244,-277,-273
-161,67,1308,810,119,-219,-324,-363,-351,-289
375,734,1140,173,-120,-318,-343,-371,-284,-75
662,1474,645,-437,-345,-217,-128,-82,-53,188
754,799,-158,-631,-342,17,231,381,363,505
-620,-1607,-1595,-184,433,201,19,-123,-330,-423
-583,-1201,-865,-74,382,-4,-234,-384,-520,-538
82,14,-220,-78,375,174,8,-65,-132,-65
129,50,49,141,228,35,-98,-138,-193,-46
470,728,453,-287,-700,-198,4,188,242,397
118,261,232,-116,-246,131,232,235,138,138
-4,-139,54,575,248,188,114,-2,-145,-151
93,140,108,1005,306,-18,-164,-277,-343,-227
-260,232,520,-413,-311,-209,-170,-116,-135,-112
-449,188,572,-483,47,102,46,62,-30,-120
-530,259,1003,-62,412,92,-97,-169,-285,-372
-400,137,810,53,392,23,-159,-251,-366,-398
-233,-317,22,39,234,156,122,107,18,-74
95,-745,-1357,159,59,275,329,420,378,274
213,-734,-1638,310,-78,86,96,191,217,214
66,-237,-312,361,-222,-373,-540,-518,-435,-229
-35,570,985,553,-285,-678,-970,-1005,-897,-559
-88,972,1256,880,-131,-450,-714,-807,-758,-512
128,667,344,427,-97,-87,-172,-175,-171,-41
656,209,-327,-349,-275,117,267,438,513,607
897,399,128,-758,-261,254,486,682,809,894
298,372,522,-668,-74,301,424,524,553,481
-552,131,1454,207,290,308,308,233,113,-157
-574,60,1208,725,645,389,288,133,-38,-270
-363,-551,-734,595,669,359,236,99,-45,-144
-131,-957,-1857,-246,223,172,129,36,-23,-12
52,-675,-957,-894,-161,-27,-21,-73,-111,-5
205,42,587,-814,-217,-15,71,87,56,155
225,827,1595,99,-151,-80,-18,-9,3,94
-44,235,175,490,61,-154,-215,-276,-254,-174
-368,-1099,-1950,-50,53,-299,-385,-457,-420,-368
-545,-1364,-1731,-283,-105,-412,-469,-519,-462,-445
-418,-472,-637,-339,-167,-273,-278,-323,-289,-305
119,430,-124,-94,149,244,262,201,201,194
663,493,-431,-419,368,501,522,496,510,614
699,220,-425,-981,-42,38,149,195,298,454
743,1191,1157,-666,-491,-254,-12,166,346,488
778,1810,1743,-82,-537,-48,267,500,652,714
197,2,77,172,-344,222,493,621,630,510
-277,-1245,-312,218,-63,125,254,279,238,40
-153,-527,700,432,104,20,32,35,53,-54
-123,144,570,556,294,145,49,38,19,-29
-474,55,-296,384,436,223,65,-16,-104,-216
-913,-338,-333,84,212,-44,-207,-338,-403,-565
-834,-377,-149,211,95,-259,-435,-613,-666,-741
-247,-18,193,433,116,-83,-158,-278,-336,-353
91,-227,-331,584,317,324,360,277,183,111
418,-83,-733,-42,243,391,502,498,438,449
223,-169,-411,-365,-34,-151,-202,-211,-162,40
-224,-111,601,307,-107,-702,-1050,-1222,-1098,-733
-54,840,1002,76,-271,-605,-859,-1007,-885,-594
580,1960,1051,-845,-438,-162,-51,56,167,263
482,541,-508,-1009,-98,299,590,810,874,716
-406,-1861,-1678,-48,296,364,525,652,639,284
-428,-1217,-608,406,254,245,289,344,322,86
-192,51,400,549,142,179,120,79,67,6
-11,494,996,489,4,-64,-207,-280,-248,-158
173,331,1470,322,-223,-474,-617,-646,-578,-309
42,160,1482,439,-104,-365,-450,-465,-441,-304
245,139,-225,209,42,132,215,296,291,208
1089,341,-2120,-792,-731,-19,384,679,830,926
1305,591,-1520,-1283,-1258,-369,128,440,675,968
285,744,814,-497,-612,-376,-224,-175,-31,125
-741,704,2610,973,315,-227,-544,-800,-802,-777
-923,306,2174,1548,459,-190,-580,-894,-958,-943
-576,373,938,1365,263,-125,-317,-544,-580,-597
-215,-126,-339,787,255,86,54,-75,-73,-201
141,-738,-1368,-480,130,341,497,486,483,281
319,-892,-2018,-1558,-77,335,593,710,738,560
-176,-1176,-1970,-1316,42,254,397,472,434,200
-286,-611,-446,-462,300,299,310,289,202,-14
-316,-283,291,106,302,179,92,-3,-96,-243
-420,-383,60,452,189,41,-86,-241,-326,-437
-264,-645,-799,231,289,214,150,64,10,-159
84,-221,-382,-214,224,159,182,259,296,179
466,279,-214,-420,183,122,190,361,452,482
357,163,-213,-54,42,30,9,113,216,352
103,78,392,197,-470,-239,-218,-112,9,131
70,268,463,-144,-504,-184,-56,73,155,167
304,558,161,-312,-450,-84,82,165,208,229
547,289,-349,-35,-595,-312,-163,-141,-21,125
307,169,-71,227,-406,-314,-214,-290,-169,-85
-95,164,203,367,67,-88,-93,-219,-187,-225
-461,-148,803,913,470,93,-33,-229,-283,-432
-197,-117,515,697,409,211,158,72,50,-118
337,300,-313,-96,251,380,432,466,490,385
267,-223,-1333,-607,318,531,578,589,562,420
89,-492,-1051,-887,138,402,503,533,499,311
128,-243,-78,-616,-77,204,334,385,400,269
75,67,458,-169,-24,95,132,124,134,92
-75,-9,192,34,122,67,34,-31,-84,-105
-66,-216,-407,-240,191,112,87,17,-26,-77
14,-137,-524,-644,87,85,94,84,34,21
57,34,-224,-663,23,81,94,109,46,61
-3,-28,83,-182,93,81,111,71,33,13
33,235,614,670,-17,-120,-109,-124,-67,-59
124,751,1216,676,-181,-277,-315,-291,-195,-133
137,1192,1595,290,-335,-425,-538,-525,-386,-237
-199,1061,1938,208,-447,-802,-1092,-1160,-1010,-699
-677,625,2339,872,-137,-915,-1407,-1612,-1536,-1170
-130,873,1502,440,-109,-545,-781,-875,-802,-514
433,161,-993,-726,-345,-39,145,246,282,354
-473,-1546,-1971,-283,-297,-21,161,175,70,-153
-673,-1358,-1461,130,-138,-122,-101,-137,-214,-429
-373,-689,-980,16,175,-29,-129,-154,-176,-276
-124,-357,-639,-267,693,398,302,288,227,85
-63,-434,-546,-361,1035,642,594,598,494,284
-46,-563,-764,-250,741,459,446,490,409,258
-124,-729,-1092,-352,277,260,293,353,312,167
-5,-488,-758,-12,-56,267,385,477,434,288
349,19,-468,-55,-342,274,512,621,575,494
498,194,-336,-100,-122,261,436,449,422,411
380,163,-8,386,164,183,184,124,94,137
176,271,464,577,78,-39,-120,-184,-157,-74
96,497,705,182,-183,-186,-217,-262,-145,-27
230,1169,1109,-269,-452,-417,-414,-399,-193,27
587,2066,1952,-23,-524,-523,-544,-515,-286,121
570,1636,1254,226,-674,-518,-467,-413,-211,185
-16,-4,143,259,-580,-290,-172,-49,39,130
-248,-115,932,427,-192,-82,-32,61,47,-10
-417,-217,647,574,299,126,7,-39,-164,-263
-814,-928,-238,424,313,209,126,2,-176,-413
-848,-983,-83,-198,-68,43,98,28,-108,-357
-461,-1145,-760,-432,-45,53,158,152,54,-112
-15,-1076,-2120,-422,160,172,279,283,230,136
-18,-673,-2295,-440,227,199,232,215,145,68
-272,-179,-736,-93,233,155,106,69,-48,-170
-383,-128,441,24,256,155,101,93,-25,-164
-309,-223,866,62,103,-61,-109,-102,-149,-206
-236,147,693,219,28,-145,-241,-227,-186,-253
-119,361,50,486,186,53,-66,-76,-48,-109
-61,265,8,504,133,-30,-165,-214,-211,-170
110,232,661,316,47,-211,-323,-368,-359,-190
648,441,157,-504,113,13,44,98,122,327
582,-141,-1230,-1047,113,157,256,323,337,445
65,-707,-900,-378,48,139,178,117,117,75
137,-265,125,250,89,189,155,44,50,56
433,479,1014,605,120,56,-19,-107,-35,141
546,1005,1842,398,-106,-255,-272,-315,-198,119
651,1441,1841,-26,-586,-480,-345,-310,-176,173
797,1289,482,-228,-755,-284,-39,47,247,468
-373,-1213,-1592,-28,384,411,377,286,248,10
-509,-1079,-1184,-182,427,483,501,418,238,-47
-382,-573,-178,191,239,261,259,221,45,-103
-522,-423,436,669,76,-82,-174,-234,-324,-418
-342,-439,-951,-359,-105,-26,-54,-38,-98,-172
-204,-721,-1165,-447,147,340,331,365,287,114
27,-216,61,-182,171,336,352,413,388,264
75,278,484,96,145,155,127,162,179,137
37,386,31,41,47,-50,-120,-103,-74,-22
-241,-87,-309,-176,-254,-377,-448,-471,-433,-349
-342,-345,-360,-219,-394,-537,-610,-657,-608,-497
125,494,481,-208,-290,-317,-335,-319,-244,-96
337,1354,1692,256,32,15,19,71,153,210
293,1590,1279,481,218,207,177,254,323,312
-89,539,-152,155,97,264,281,387,391,246
-696,-992,-330,129,44,112,67,65,-44,-254
187,-192,8,331,-448,-603,-699,-701,-658,-384
795,241,-48,-191,-369,-285,-266,-195,-127,144
650,608,89,-394,-219,-13,101,241,272,371
403,479,218,-384,-382,-117,83,327,392,416
279,290,754,-219,-448,-184,-26,180,250,299
-13,-168,109,-5,-12,100,130,207,167,120
-427,-767,-943,310,554,219,38,-109,-205,-349
-451,-633,-699,-45,194,87,35,-98,-151,-329
-295,-335,-223,-95,128,116,127,26,28,-177
85,206,683,-216,137,233,278,264,272,148
414,649,368,-485,111,289,350,413,400,371
206,66,-1060,-533,152,228,221,271,222,206
-154,-776,-1428,-172,216,202,133,154,65,-15
-235,-767,-553,315,192,111,17,-10,-89,-159
-100,-96,113,565,-28,-204,-346,-382,-379,-314
154,790,772,422,-383,-437,-503,-487,-383,-200
315,1089,1142,78,-465,-350,-315,-245,-121,43
52,374,802,24,-243,-264,-278,-259,-165,-104
-292,-640,-215,-23,-64,-190,-244,-243,-202,-266
-316,-782,-748,-306,80,-20,-52,-53,-83,-206
-54,-494,-771,-334,164,191,195,205,136,5
329,207,-54,-206,-75,80,175,233,223,192
519,1081,787,0,-371,-167,-40,59,138,228
-8,662,635,433,-29,-7,-26,-48,-84,-96
-704,-723,61,669,309,79,-49,-167,-291,-470
-493,-905,-161,216,207,111,124,94,-10,-207
-125,-51,-208,38,163,71,55,59,42,5
115,39,263,73,-26,-109,-116,-95,-65,-15
323,-2,-311,-558,-127,65,183,245,233,223
-145,-444,-277,-125,77,174,180,179,88,-42
-133,-69,466,189,152,65,3,-27,-61,-125
24,422,648,327,201,32,-49,-85,-119,-94
-252,-129,-544,224,227,63,-10,-99,-197,-229
-541,-637,-1273,-26,151,26,-23,-148,-263,-377
-532,-482,-523,178,27,-134,-193,-328,-404,-472
-88,26,695,623,-37,-207,-254,-354,-384,-296
830,122,-434,-402,-109,224,419,561,652,748
411,-108,-689,-768,-110,81,173,247,344,395
114,-8,-140,-340,166,57,-1,-36,-11,59
135,-10,48,-197,227,124,74,11,-4,43
124,-262,-122,-145,50,118,139,104,100,83
84,695,1160,130,-298,-311,-325,-334,-249,-137
-147,666,587,516,102,-220,-423,-539,-509,-408
-727,-201,-138,1059,640,-204,-641,-897,-969,-959
-707,-402,-207,724,699,-134,-499,-711,-794,-836
182,211,-295,-645,327,234,250,270,284,219
667,419,-134,-626,-154,379,580,757,830,795
360,-55,37,637,-360,159,339,515,587,538
-173,-336,-1,-157,-192,2,47,196,207,130
-704,-737,-188,-325,355,26,-185,-217,-274,-429
-922,-502,588,29,510,-66,-399,-500,-567,-731
516,1030,87,-115,-400,-41,137,346,447,490
451,254,-1122,-420,-706,5,356,628,729,684
144,-305,-949,-723,-685,-55,236,468,532,454
-324,-351,274,-413,-583,-322,-210,-125,-102,-156
-296,-7,906,182,-537,-633,-682,-737,-690,-583
-36,468,1429,545,-418,-625,-736,-818,-749,-575
232,1065,1343,346,-114,-125,-112,-133,-95,-29
645,1056,126,0,436,634,743,774,762,695
672,-190,-1463,-402,511,818,936,964,886,782
129,-1361,-1688,-483,154,373,443,407,314,200
-7,-1014,-878,-226,24,59,61,0,-31,-29
41,-388,-211,-107,74,43,20,0,-21,12
703,361,-158,-147,-117,182,273,406,452,563
129,-600,-618,-501,-118,113,133,200,204,189
-96,-623,-658,-200,8,46,-44,-49,-79,-68
-81,-330,-144,218,74,-25,-144,-216,-246,-192
90,17,41,165,77,32,14,-23,-33,-45
183,178,2,-8,154,139,188,209,191,140
48,66,-45,68,180,118,194,213,179,134
2,-143,-446,-144,81,114,257,282,251,183
34,-49,-594,-202,31,111,237,284,245,188
-82,125,-18,85,-16,64,155,235,179,116
-192,60,275,133,-56,23,138,203,150,68
-53,148,511,89,-109,-43,39,73,58,36
0,200,621,169,-42,-52,-41,-69,-73,-23
-251,100,577,315,102,-58,-143,-231,-290,-243
-519,-33,607,357,93,-143,-292,-414,-474,-486
-576,-73,858,324,-115,-263,-371,-466,-517,-556
-390,-75,431,148,-220,-400,-501,-573,-559,-531
96,81,-903,-496,-353,-449,-519,-514,-407,-229
521,643,-736,-856,-337,-350,-357,-303,-166,84
432,1076,776,-376,-65,-43,-74,-10,48,180
-44,64,552,75,-56,-34,-63,-53,-29,8
-43,-391,119,180,-283,-222,-193,-188,-123,-14
199,235,679,199,-397,-319,-231,-213,-96,49
416,879,932,-144,-468,-374,-205,-140,35,198
173,600,701,105,-131,-174,-174,-198,-94,9
-432,168,1648,1241,375,-25,-316,-536,-569,-578
-712,-263,1262,1919,693,136,-243,-486,-595,-721
-209,-155,-595,655,442,158,-29,-131,-139,-213
107,28,-330,-166,113,4,-11,14,70,76
236,-26,125,-464,172,200,352,425,419,368
265,-516,-1252,-909,399,465,643,693,615,479
75,-757,-1651,-642,190,303,444,480,394,288
158,57,-245,-371,-181,198,346,402,369,306
-306,-226,102,173,104,225,245,234,195,40
-457,-248,-72,191,237,179,129,133,100,-70
-543,-344,-452,-18,280,215,129,139,74,-129
-505,-263,-321,-101,287,196,51,30,-73,-210
89,1086,1696,318,-309,-520,-614,-571,-527,-274
1214,2150,675,-474,-227,-115,-15,143,274,637
1402,1098,-1360,-921,69,248,349,516,646,958
-197,-1079,-745,-191,-275,-146,-100,-51,-78,-64
-600,-676,175,258,-216,-37,26,73,-42,-161
-764,-777,313,516,-290,-203,-187,-178,-238,-361
-646,-941,-175,287,-126,-221,-251,-258,-310,-390
-183,-549,-272,-85,225,215,241,266,176,79
97,-167,-277,-117,279,430,486,514,437,351
200,-98,-475,-186,44,270,306,320,301,282
383,63,-586,-458,-234,31,128,207,259,337
290,201,-90,-214,-266,-35,70,163,218,286
124,125,143,83,-229,-50,16,75,108,143
-59,-51,195,453,-154,-164,-222,-219,-226,-132
-269,-101,441,865,20,-213,-391,-470,-515,-381
-181,208,923,888,159,-138,-346,-457,-489,-324
11,940,1912,769,262,-117,-371,-517,-512,-288
180,1696,2194,464,77,-290,-562,-685,-631,-316
116,716,100,-56,-217,-303,-371,-391,-332,-125
-159,-1098,-1708,-213,-130,27,145,144,103,73
-62,-1081,-1024,-410,166,384,537,529,437,301
137,-482,-678,-643,261,512,671,699,623,470
0,-412,-391,-581,219,219,309,337,314,214
-306,-36,473,-99,404,-57,-211,-279,-264,-291
-544,512,805,183,455,-96,-358,-470,-427,-489
-423,713,307,144,155,30,-83,-107,-79,-146
-334,350,-75,189,-99,135,128,122,132,55
-186,-23,-47,352,-539,-412,-478,-501,-421,-311
446,442,953,194,-985,-886,-759,-704,-526,-172
246,563,407,-221,-528,-284,-52,61,158,212
132,-324,-981,-671,-105,253,518,611,610,459
121,-1002,-1711,-790,123,411,627,655,603,449
299,-420,-647,-458,207,270,385,357,325,312
114,-111,-326,-79,191,116,137,88,107,92
-304,-384,-868,-91,3,92,169,193,157,30
-112,-60,-580,-192,87,145,213,214,184,89
78,-173,-538,-13,159,200,255,218,195,134
371,104,238,46,47,109,179,152,165,215
325,-199,-128,-120,110,227,298,274,255,261
81,-222,46,88,204,150,129,56,42,25
117,244,205,88,70,-7,-19,-49,-12,27
334,733,82,81,50,-11,-6,-15,32,141
325,399,-26,87,91,67,75,82,100,183
-80,-296,139,167,-60,-9,-10,15,-2,-33
-247,-121,710,526,-252,-175,-212,-202,-240,-259
-14,289,1185,617,-355,-238,-266,-289,-275,-187
84,69,524,213,-217,-158,-189,-202,-145,-32
-250,-402,-352,260,355,-16,-183,-277,-263,-246
-652,-449,-27,718,783,58,-319,-515,-549,-631
-565,-172,352,433,580,33,-324,-500,-563,-624
280,142,-177,-330,19,60,38,50,76,73
479,67,-426,-485,-272,-39,60,131,207,220
-286,-152,318,3,-401,-524,-636,-665,-650,-600
38,933,1743,-16,-610,-454,-366,-237,-201,-144
726,162,-1160,-998,-222,297,668,950,960,882
334,-853,-2313,-744,377,561,771,920,862,668
-61,-605,-859,1,641,435,394,381,311,182
-171,-364,-233,29,481,285,184,132,76,-10
-79,-134,-115,-87,216,201,97,52,23,-29
-86,-25,-100,-10,-109,-8,-85,-92,-104,-98
-26,29,-203,-236,-190,-46,-33,7,-9,-6
36,-27,-376,-598,78,109,109,140,123,104
-3,-59,-113,-444,400,199,142,118,88,67
71,205,427,3,219,50,39,50,43,65
264,347,349,381,-404,-241,-93,51,107,206
195,-47,167,385,-542,-193,9,147,181,265
-4,8,533,470,-105,-96,-66,-73,-60,31
-220,211,805,883,161,-217,-396,-554,-555,-429
-17,255,473,570,-155,-492,-605,-735,-686,-496
383,582,67,-275,-383,-541,-559,-588,-488,-212
271,991,344,-652,-217,-436,-571,-654,-565,-293
-606,697,1817,237,3,-537,-897,-1108,-1094,-978
-816,599,2817,1556,401,-267,-720,-999,-1070,-1064
-38,433,408,1318,585,228,97,36,2,-68
159,-709,-1941,-112,282,479,761,923,893,616
239,-833,-1081,-768,-27,416,804,986,970,704
563,-195,-660,-1017,-314,293,640,827,872,741
261,-298,-813,-614,-512,92,391,568,626,488
1,-262,-288,-208,-391,-32,204,341,389,261
-168,-442,-410,-219,-198,9,158,240,223,91
-242,-671,-790,-317,-66,68,182,213,171,7
-193,-615,-895,-246,103,101,178,157,135,13
-251,-359,-561,49,327,73,61,-9,-24,-108
-372,141,412,418,341,-67,-190,-277,-310,-356
-434,796,1617,813,114,-278,-484,-582,-620,-570
-33,1274,2310,895,-360,-521,-681,-720,-647,-430
522,1092,1484,180,-570,-471,-479,-406,-250,19
432,401,309,-308,-314,-229,-205,-138,-16,121
-90,-639,-1204,-379,109,44,-18,-40,6,-37
-696,-1201,-952,17,86,-113,-211,-308,-344,-439
-277,1153,2873,1421,241,-82,-267,-425,-493,-473
814,1149,573,399,440,626,743,747,707,705
338,-1052,-2661,-911,111,532,834,936,878,677
-194,-1756,-2602,-1006,-116,168,409,483,412,172
294,-699,-1547,-1034,-140,199,430,561,535,455
379,-46,-858,-924,-117,183,351,485,444,468
166,-43,-458,-610,27,228,325,410,326,294
163,-142,-270,-276,35,163,195,211,136,174
295,413,648,321,-321,-309,-347,-319,-266,-7
1,991,1882,702,-588,-680,-797,-768,-671,-377
-206,1064,1731,82,-656,-601,-633,-584,-474,-316
-150,556,71,-576,-365,-135,-56,36,94,42
-363,-430,-1038,-68,299,429,462,488,423,165
-565,-1120,-1228,91,650,598,536,484,326,25
-18,-843,-773,-158,406,319,258,199,93,14
274,-470,-664,-290,157,189,167,165,100,112
4,-206,-335,-83,208,170,135,119,58,16
-150,-104,51,22,266,82,46,-15,-61,-108
-45,298,518,40,117,-34,-27,-84,-119,-93
84,711,1017,91,-118,-153,-138,-185,-195,-51
-434,79,742,518,-56,-201,-346,-494,-571,-496
-564,-486,303,1015,358,-194,-509,-698,-803,-724
21,144,700,1022,455,-310,-581,-746,-757,-493
429,1155,1237,162,-218,-611,-610,-637,-519,-166
554,1323,1351,111,-462,-509,-376,-323,-168,142
561,376,77,62,-270,93,204,225,280,426
276,-287,-573,-471,-480,163,361,434,470,451
-4,-251,-345,-238,-288,150,287,317,310,223
-11,-450,-442,-71,28,207,301,266,185,117
203,-222,-489,-462,7,212,420,473,417,343
275,-103,-993,-673,131,355,565,649,568,466
-130,-639,-720,-303,128,241,337,370,278,153
-309,-640,-98,32,170,133,140,123,32,-66
-222,-239,213,95,451,225,130,63,-19,-84
-533,-119,590,541,857,260,-44,-232,-350,-448
-419,473,851,761,582,-76,-429,-602,-663,-629
11,976,983,434,-137,-419,-672,-726,-667,-435
106,966,1150,-269,-703,-598,-743,-726,-592,-289
-239,206,650,-342,-252,-504,-697,-746,-663,-480
-224,-190,-133,318,419,-156,-290,-331,-338,-308
-244,-866,-1543,1163,583,175,178,177,99,-41
-464,-1219,-1294,1574,310,110,81,85,32,-129
-449,-796,16,430,-327,-228,-211,-126,-94,-171
-201,-495,-237,-926,-504,-3,212,371,381,216
606,-43,-1075,-1392,-192,543,923,1128,1110,946
1256,82,-1737,-1529,-185,534,922,1165,1217,1233
764,-237,-1077,-741,-195,214,462,643,684,728
221,-40,159,11,18,189,258,303,248,264
172,126,343,-82,46,176,216,226,187,204
163,83,36,-274,75,160,206,257,270,231
31,-8,134,-83,201,151,126,152,140,98
40,132,679,338,165,93,32,17,-10,17
118,393,783,609,-113,-55,-50,-43,-55,29
-94,397,980,721,-362,-393,-408,-403,-386,-268
-292,329,1441,636,-498,-687,-747,-814,-777,-609
778,1064,279,-512,-427,-385,-349,-381,-136,182
639,349,-1251,-737,-260,-251,-222,-296,-80,164
29,-47,-1022,-209,24,-48,-33,-131,-94,-83
-378,-271,-471,67,291,189,184,87,34,-123
-963,-990,-462,178,561,131,-39,-249,-319,-560
-1039,-1025,-256,-42,619,50,-156,-375,-414,-667
-583,-286,309,-54,698,269,116,0,-58,-269
2,680,969,235,395,209,173,198,215,120
415,693,893,523,-94,36,120,216,306,338
168,-56,479,701,-309,47,151,213,270,252
-210,-267,-206,67,-100,87,127,134,97,29
-350,73,-38,-489,-56,-94,-70,-79,-133,-162
98,182,117,-520,-159,-47,75,127,122,137
497,-68,-516,58,-35,201,311,327,321,389
335,-283,-964,182,-68,272,343,365,335,353
61,-176,-393,0,-172,102,174,218,223,177
-7,-77,157,-38,-122,61,110,138,141,99
-9,-172,-63,-142,-130,30,49,29,10,30
-146,-177,-22,-139,-158,-179,-238,-342,-354,-265
-200,-66,141,-23,-195,-330,-462,-590,-600,-456
65,-81,142,-29,-267,-296,-355,-416,-401,-253
319,199,198,3,-132,-189,-211,-237,-175,-5
229,562,409,-137,-160,-347,-421,-442,-295,-69
-152,891,1136,-5,-358,-657,-796,-844,-728,-510
-15,1246,2039,591,-277,-439,-534,-576,-546,-377
544,861,1151,97,-383,-48,116,237,302,408
589,-514,-1276,-623,-392,152,449,667,730,721
162,-1164,-1944,-583,51,300,442,562,506,404
-97,-788,-1229,-285,248,248,261,301,203,98
-328,-504,-625,-36,353,259,212,190,72,-107
-419,-509,-279,127,496,233,167,124,16,-199
-321,-213,124,138,371,51,12,-5,-63,-191
-375,-43,484,403,166,-84,-141,-137,-175,-243
-397,217,749,583,1,-103,-160,-162,-175,-237
-308,293,429,301,-8,-72,-83,-74,-47,-110
-356,7,288,60,-43,-135,-132,-122,-99,-183
2,-265,-496,-192,7,-3,-21,-18,-33,-45
284,-335,-634,-268,128,191,95,17,-34,14
103,173,351,216,157,3,-217,-383,-451,-329
278,1211,1266,439,-148,-282,-410,-439,-397,-184
369,1114,684,278,-175,-134,-127,-47,43,175
-33,0,-573,-197,-98,66,177,245,284,210
-603,-704,-696,-452,-243,-102,-49,-51,-52,-194
-190,-214,-83,541,10,-90,-183,-209,-207,-201
481,142,505,66,-51,111,233,295,355,423
518,221,107,-528,-291,-19,171,273,341,433
461,-111,-804,-783,-195,130,331,439,464,495
373,-223,-735,-572,46,292,392,490,452,441
165,44,258,-131,84,213,227,279,229,206
-178,42,568,213,439,242,110,43,-67,-91
-195,-165,267,293,674,227,33,-55,-137,-159
78,96,-24,-35,384,165,82,86,77,62
210,204,-50,-101,33,47,61,132,158,177
249,111,-59,55,-263,-64,14,131,184,224
106,-53,-212,-41,-288,-51,31,149,193,176
-227,-179,-333,-254,-73,45,91,121,72,-24
-401,-440,-491,-329,145,133,134,97,29,-138
-319,-426,-460,-274,102,13,-5,-25,-28,-162
-143,-40,-115,20,-58,-91,-96,-87,-82,-107
65,-21,-29,247,-197,-133,-107,-116,-96,-44
262,231,301,229,-288,-198,-171,-135,-58,51
205,398,433,176,-317,-333,-354,-313,-210,-55
23,235,106,-36,-351,-439,-491,-519,-424,-272
-127,38,-45,-176,-220,-373,-444,-484,-446,-349
39,374,337,-161,184,-36,-111,-121,-126,-63
230,490,339,-201,524,296,232,234,216,233
-64,-37,396,322,550,328,188,144,72,27
-353,-587,98,817,276,154,5,-37,-99,-188
-329,-415,-126,598,-169,-121,-189,-188,-180,-224
-446,-105,945,923,-41,-153,-224,-264,-253,-335
-299,348,1212,1089,142,-35,-96,-160,-165,-231
154,437,-310,-231,-292,69,239,267,291,256
56,-421,-1468,-1111,-325,229,428,483,457,335
163,-292,-501,-363,-205,-31,-3,-14,11,48
-115,-371,-471,-377,-312,-255,-251,-254,-210,-169
-168,-220,-317,-306,-174,-187,-202,-204,-176,-162
-131,-101,-212,7,62,-18,-56,-68,-86,-127
-196,-188,108,389,154,-5,-71,-104,-138,-198
54,219,540,117,45,16,27,41,32,30
412,711,369,-376,-18,163,262,328,353,363
671,1075,265,-521,-196,89,208,266,328,444
419,407,-140,30,-173,2,102,171,202,294
-36,-432,-203,616,109,35,36,37,14,11
-200,-429,195,481,275,40,-60,-124,-156,-160
-231,-233,273,209,220,-29,-166,-277,-305,-295
18,58,154,-10,-72,-74,-99,-130,-104,-72
5,-98,-192,-1,-39,19,18,18,46,1
-50,-303,-451,-177,148,196,219,235,238,79
-196,-529,-703,-355,293,287,263,253,221,11
-239,-325,-208,-124,235,128,32,-47,-67,-184
-175,-156,83,186,-115,-160,-230,-246,-237,-247
-262,-169,175,376,-339,-383,-462,-435,-411,-388
-418,-132,258,242,-318,-476,-618,-599,-568,-549
-225,308,652,184,-211,-317,-441,-429,-419,-379
175,737,850,182,5,34,0,35,33,53
509,918,814,-28,-45,155,263,369,433,450
336,644,205,-178,-44,126,152,249,295,338
-86,144,-363,-177,91,180,89,113,89,76
-419,-424,-131,-31,225,210,107,80,1,-101
-100,-329,-236,-167,518,309,136,69,0,-24
25,-9,-42,48,596,135,-170,-294,-310,-189
-303,-279,105,561,319,-121,-407,-508,-543,-463
-92,73,518,469,-173,-98,-117,-78,-90,-123
166,260,231,-321,-478,7,201,375,400,324
-167,-488,-514,-396,-430,-56,154,283,264,157
-374,-726,-667,-60,-304,-213,-142,-75,-127,-178
417,265,-496,-162,-366,-271,-202,-92,-65,85
1144,1220,-53,-204,-196,-30,35,129,209,514
640,549,-550,-290,123,211,217,229,237,392
-284,-979,-877,70,332,235,163,105,17,-76
-74,-862,-829,-191,196,321,369,368,310,153
401,-123,-602,-610,-252,128,302,396,438,426
262,149,-56,-356,-460,-269,-186,-96,8,137
-132,126,229,337,-43,-174,-248,-226,-189,-138
-346,-159,-247,632,533,270,149,126,38,-110
-447,-394,-331,412,664,470,401,381,245,-10
-284,-232,87,-304,426,330,329,337,282,72
76,144,-12,-361,-15,0,24,63,60,65
78,37,138,-31,-130,-65,-111,-97,-89,-50
-107,22,997,282,-168,-316,-484,-519,-460,-345
-171,349,2174,457,-253,-416,-521,-563,-462,-362
41,688,1693,215,-211,-116,-72,-63,-5,-16
266,-299,-1730,-852,-92,184,323,328,367,294
117,-638,-1124,-591,-107,91,236,262,286,221
-6,-420,-776,-304,120,118,198,239,215,152
-288,-274,-448,-174,425,184,117,76,12,-94
-595,-333,-215,-59,451,119,-17,-124,-186,-343
-527,-167,101,269,220,28,-76,-155,-190,-325
7,202,384,567,29,-8,0,-9,-4,14
700,487,283,580,-128,-77,19,65,124,345
653,393,98,43,-89,-121,-26,-2,65,247
295,284,255,-272,-82,-100,13,-13,-2,106
168,210,230,-266,-217,-59,75,80,67,129
-57,74,133,214,-210,-2,48,59,28,3
-407,-99,212,610,30,14,-73,-149,-216,-303
-175,-152,-118,-224,-11,11,7,-18,-18,-106
72,-191,-507,-557,8,149,205,221,216,151
157,-43,-341,-356,58,99,101,74,89,102
-128,-23,-69,21,21,-58,-119,-183,-180,-182
-309,240,339,192,-51,-227,-298,-394,-380,-415
-266,472,575,363,48,-208,-305,-428,-446,-465
61,469,309,387,292,148,106,56,6,-36
252,-163,-659,20,424,424,477,520,484,400
210,-546,-437,-149,208,189,246,309,317,289
132,-275,-51,-23,38,-21,-37,-30,35,28
-368,-434,5,192,-90,-296,-387,-445,-433,-464
-768,-671,557,590,-53,-471,-630,-755,-771,-828
-456,-364,812,867,-23,-347,-482,-597,-583,-567
56,131,106,599,-92,-147,-190,-248,-188,-109
189,826,368,349,-79,-101,-206,-358,-293,-151
322,1581,1229,232,130,48,-107,-293,-259,-94
645,1481,531,-591,-14,144,213,221,307,424
332,8,-432,-855,-70,160,305,392,458,432
-200,-765,-73,-369,-220,-97,-25,28,72,-29
-111,117,941,-163,-619,-483,-401,-354,-238,-185
182,328,323,-94,-362,-159,-79,-42,19,98
70,-682,-1953,-305,292,485,604,613,566,376
-251,-1074,-1797,-371,353,396,484,471,380,141
-142,-640,-159,-271,122,80,131,110,56,-24
200,-245,481,-194,15,50,137,136,125,134
400,-33,76,-286,21,115,242,256,273,321
321,-251,-1096,-373,106,176,311,323,330,350
23,42,-148,-38,-49,81,218,232,214,174
-14,-162,-163,-25,-217,17,162,197,203,165
-134,-131,-204,-261,-305,-83,32,45,71,18
-247,47,1,-338,-110,-84,-22,-32,-2,-127
-90,-18,-198,-253,175,79,75,76,82,-11
137,-248,-453,-127,146,86,55,65,31,76
200,29,89,304,38,101,86,92,51,116
209,421,575,352,-28,99,91,109,100,159
185,717,749,171,-55,-16,-40,-28,8,98
-74,588,1042,451,36,-142,-221,-243,-233,-165
-276,-129,765,646,197,-62,-147,-187,-262,-269
2,-272,62,292,247,123,90,84,1,-12
479,400,-181,-321,-246,11,115,156,188,315
257,310,78,-32,-83,14,81,71,73,153
-14,-20,153,233,54,0,-13,-49,-54,-42
-79,-165,230,161,-39,-32,-85,-124,-129,-111
13,56,377,202,37,16,-103,-164,-152,-101
-39,138,389,495,87,-164,-337,-385,-315,-233
-410,143,675,650,22,-535,-790,-892,-815,-697
-573,432,1777,674,-322,-884,-1162,-1265,-1175,-947
-444,406,1794,328,-765,-969,-1121,-1153,-1047,-792
52,536,28,-541,-673,-305,-186,-100,-54,-3
408,443,-1637,-1140,44,579,806,899,835,650
323,-201,-1735,-841,566,922,1099,1153,1056,755
-358,-1334,-1403,-27,540,660,734,747,618,246
-432,-1203,-872,297,331,379,464,481,428,96
-81,-524,-567,32,128,204,333,372,375,219
82,-191,-560,-195,40,110,224,287,304,241
106,51,-222,-263,27,131,215,243,223,174
198,213,29,-255,36,128,219,209,156,162
57,-108,-255,-22,109,91,127,117,39,73
-37,-221,-246,4,26,10,35,39,-19,23
-14,-87,94,-6,-104,-95,-96,-48,-52,3
-75,139,515,46,-153,-186,-233,-192,-190,-106
-17,509,923,162,-80,-144,-200,-194,-181,-108
102,575,706,341,94,34,-46,-51,-73,-12
18,-311,-638,-80,78,80,80,9,-19,-11
-189,-374,-217,-62,54,-34,-76,-159,-171,-170
-236,-251,-11,227,79,-114,-213,-333,-333,-316
77,-117,-379,240,42,-104,-174,-275,-218,-154
520,168,-360,247,-236,-303,-335,-383,-208,62
686,1022,668,307,-673,-657,-682,-685,-429,30
301,1436,1641,294,-790,-655,-641,-652,-470,-126
2,1037,1727,207,-442,-193,-110,-115,-83,-1
-118,474,999,39,291,282,245,194,111,29
-346,57,-37,-396,749,328,108,-71,-188,-306
-680,-612,-486,-82,648,29,-279,-499,-560,-669
-1079,-1017,-127,794,365,-265,-584,-811,-880,-1011
94,-456,-1980,-1110,176,492,809,957,891,610
-200,-562,-568,-487,67,189,337,408,357,189
-335,-658,-390,62,-128,80,107,152,111,-1
-371,-538,-166,-164,-20,137,119,140,78,-45
-246,19,668,-153,147,138,53,53,-6,-67
190,455,566,33,45,70,47,94,97,150
493,262,-401,65,-111,-13,88,196,256,367
463,-59,-1124,-299,-108,22,145,244,315,393
225,-423,-896,-191,-7,140,237,317,338,326
164,-494,-497,-11,-102,158,300,363,360,306
185,-258,-350,51,-113,49,132,186,168,169
256,27,-317,-142,-135,-97,-69,20,31,101
178,95,-175,-257,-59,-23,-10,55,40,77
165,227,259,0,64,86,48,60,30,76
202,440,735,262,90,81,15,13,-5,81
144,466,823,553,208,162,58,36,10,62
59,434,963,663,334,235,125,99,78,57
-37,325,1243,728,71,58,-30,-49,-22,-19
-485,-128,1332,847,-136,-301,-452,-536,-497,-473
-823,-180,1687,749,-114,-547,-746,-884,-876,-846
-491,60,638,125,80,-216,-264,-307,-332,-394
24,67,-1415,-1040,34,296,524,643,598,371
279,-163,-1946,-1324,-242,359,691,856,812,603
-36,-582,-1114,-662,-292,172,404,496,445,280
-246,-716,-872,-413,-167,83,223,265,230,100
147,-116,-283,-179,-209,-114,-77,-59,-24,38
270,366,380,207,-298,-382,-446,-477,-385,-191
191,358,299,229,-157,-214,-253,-290,-258,-86
245,-110,-758,-428,-119,69,180,221,239,299
-20,-537,-1007,-700,-253,40,215,287,275,226
32,-269,-674,-462,-99,63,183,217,158,143
352,11,-388,-257,32,42,95,74,34,118
529,195,21,-159,2,11,32,8,-13,152
335,332,223,-15,154,23,-34,-89,-110,38
-1,-90,95,422,518,97,-116,-242,-306,-229
-181,-476,-208,505,478,75,-146,-289,-352,-354
-87,-200,-321,398,130,-26,-177,-296,-316,-318
-328,26,709,629,50,-137,-359,-545,-585,-567
-472,279,1907,778,158,-129,-404,-623,-669,-660
23,585,866,325,149,13,-139,-255,-240,-162
583,590,-675,-79,-171,-32,60,116,248,378
1002,782,-254,-151,-640,-286,26,227,466,712
888,674,501,-195,-601,-317,-45,123,364,629
428,580,953,96,-237,-159,-72,-7,136,291
81,172,470,-47,51,10,-9,8,44,82
-246,-519,-478,-505,-140,-75,-55,7,-5,-116
-476,-429,83,-459,-229,-229,-212,-155,-182,-335
-277,648,1308,-228,-217,-305,-337,-280,-278,-326
-343,716,1149,-142,-215,-315,-361,-325,-333,-403
-701,-135,97,55,-1,-96,-153,-173,-233,-506
-696,-755,-685,292,354,258,232,169,60,-273
-199,-668,-1494,-42,424,448,506,495,439,207
-205,-537,-1349,-118,294,224,230,217,192,39
-407,-612,-362,266,177,-24,-87,-156,-203,-336
-228,-667,30,477,234,182,170,132,76,-67
55,-738,-478,41,199,354,472,511,498,335
194,-630,-1170,-480,167,280,389,454,475,355
22,-565,-1175,-390,287,216,228,227,229,130
118,-258,-609,-371,248,182,192,191,193,162
167,-95,-305,-423,234,238,231,192,152,156
157,156,51,-491,148,146,126,87,21,59
150,509,704,-260,23,-112,-168,-172,-196,-86
-9,580,1297,407,-6,-285,-412,-462,-436,-296
110,777,1460,1055,-220,-327,-441,-453,-388,-198
578,906,665,568,-364,-74,-39,31,109,287
608,656,-507,-96,-225,90,159,209,277,392
-196,-442,-1091,116,275,127,38,-53,-83,-142
-560,-789,-619,285,515,106,22,-61,-123,-285
-457,-524,415,352,326,10,-10,-34,-76,-220
78,190,446,72,-132,3,128,184,198,145
503,717,417,-407,-494,29,287,437,503,499
419,457,411,-323,-284,134,341,488,534,480
318,307,-277,-353,-148,162,299,400,429,365
180,-8,-701,-682,-194,58,205,316,322,282
-93,-538,-581,-370,51,175,232,320,270,186
-223,-660,-233,150,206,145,131,150,99,10
23,-230,-20,452,239,38,-34,-46,-48,-2
360,316,283,548,160,-66,-132,-159,-86,114
438,551,398,284,-110,-254,-294,-280,-124,150
-133,130,180,-143,-442,-468,-476,-465,-365,-206
-716,-342,125,-277,-409,-435,-446,-513,-531,-562
-892,-466,276,7,-126,-250,-279,-397,-487,-640
-692,-200,129,58,-27,-93,-40,-107,-186,-371
-310,-151,-399,-37,128,143,215,199,144,6
-102,-340,-720,-120,194,148,119,56,15,-7
-144,-78,110,35,-61,-279,-420,-566,-557,-429
-369,396,1645,366,-307,-661,-890,-1067,-1070,-842
-174,835,2295,340,-294,-507,-624,-703,-680,-529
311,636,458,178,141,230,327,392,407,362
376,-179,-1483,57,361,543,698,817,824,701
25,-349,-1170,-465,-2,175,303,393,416,318
-380,-604,-690,-721,135,116,126,132,121,-52
-215,-716,-850,-689,378,233,280,306,275,102
-77,-466,-654,-302,502,283,359,382,362,190
-91,-200,-253,218,332,203,250,253,245,110
53,-73,-220,193,43,65,105,96,83,71
266,118,-47,207,-63,30,51,45,13,113
272,124,6,345,92,40,9,-14,-68,49
270,44,-39,237,0,10,-18,-49,-97,21
307,-96,-397,-87,-115,43,35,26,-1,96
309,-152,-752,-253,-111,32,8,32,61,117
90,156,55,45,-180,-174,-216,-203,-138,-63
-207,489,1448,606,-69,-222,-302,-353,-333,-274
-212,324,1213,631,209,52,-48,-127,-151,-148
-13,-284,-645,-112,150,129,109,100,101,84
13,-354,-772,-524,-154,-64,-60,2,37,42
-23,-44,107,-106,-172,-119,-146,-95,-67,-44
65,190,405,438,142,40,-81,-71,-66,-2
89,354,436,380,307,98,-64,-68,-60,-10
88,358,444,-3,161,13,-84,-34,15,29
345,419,81,-402,-161,-98,-44,64,184,278
473,272,-384,-494,-361,-40,103,254,362,482
236,-48,-415,-505,-388,-4,125,270,330,367
-24,-78,-161,-363,-149,93,123,191,198,144
-77,225,328,-30,71,91,30,56,16,-34
204,691,1256,143,-112,-70,-33,44,50,87
-182,-87,117,221,-77,-146,-180,-154,-173,-190
-386,-126,-45,210,-235,-441,-514,-552,-561,-516
-443,170,1051,606,-160,-531,-707,-829,-828,-717
-435,321,1367,858,241,-267,-562,-745,-781,-703
-282,428,805,561,303,-62,-304,-435,-471,-466
-406,-281,451,585,102,-210,-424,-541,-551,-549
-629,-914,439,750,36,-304,-490,-583,-595,-623
-57,-344,-237,-258,57,61,130,215,239,152
330,-142,-1624,-1122,148,407,632,793,812,630
439,-568,-2012,-1161,36,323,538,680,668,550
432,-660,-1373,-884,-6,314,452,555,517,473
365,-413,-1036,-784,-95,280,466,598,570,520
126,-307,-636,-255,-118,200,387,474,455,360
-85,-164,-199,217,-40,160,285,316,297,175
-92,75,49,216,34,173,265,301,287,162
-55,211,100,17,-22,113,189,234,221,141
177,92,-145,-87,-41,87,149,173,172,180
398,41,-166,-22,44,116,128,127,127,209
317,186,254,72,-8,3,-10,-16,-13,101
278,438,717,147,-77,-131,-190,-192,-158,-18
241,645,1174,279,-37,-124,-175,-165,-127,0
149,593,916,333,1,-70,-89,-98,-56,25
-221,108,-70,137,-32,-157,-226,-275,-267,-248
-515,148,210,-117,-311,-529,-650,-725,-728,-678
-396,947,1354,257,-256,-598,-809,-957,-984,-814
249,1463,1113,513,40,-134,-238,-331,-305,-124
513,534,-31,36,153,255,329,335,405,489
51,-1018,-1139,-432,16,186,325,361,395,337
-117,-1330,-1206,-357,46,112,199,207,192,116
114,-760,-1031,-507,182,176,209,172,149,139
-14,-673,-968,-503,443,260,206,112,57,31
-99,-423,-248,-55,433,186,135,49,0,-15
-261,-18,981,522,282,-19,-95,-196,-214,-202
-372,59,800,635,284,-71,-229,-359,-373,-340
-595,-392,-261,359,201,-47,-244,-435,-509,-518
-649,-784,-226,394,119,47,-83,-219,-341,-459
-118,-375,-155,180,65,414,422,412,329,133
365,202,-633,-609,-198,426,609,696,701,572
396,324,-237,-120,-249,144,317,412,442,440
367,209,-179,66,-210,58,125,209,250,307
311,178,-576,-428,-242,17,70,171,218,275
295,337,-262,-541,-182,0,77,199,258,298
195,286,220,-286,33,99,132,233,288,285
-49,47,511,-21,184,104,68,83,103,73
-214,80,812,260,9,-174,-242,-247,-207,-188
-326,190,705,396,-148,-334,-432,-445,-408,-379
-39,734,251,85,-347,-271,-261,-248,-208,-160
418,1082,132,-151,-449,-182,-69,-9,72,203
285,83,-501,-130,-208,6,138,168,221,257
-10,-662,-614,-158,110,234,351,329,320,187
10,-251,-119,-134,229,280,356,336,313,178
36,310,341,216,160,115,130,119,122,69
-54,267,237,322,39,0,-54,-78,-64,-78
-430,-501,-95,127,92,-50,-142,-251,-278,-345
-598,-926,-434,34,268,-49,-92,-217,-280,-412
85,-192,-346,267,115,163,269,255,230,177
255,172,161,48,-72,81,158,198,210,225
153,235,291,-170,-49,15,34,63,73,90
101,268,321,-117,-80,-64,-41,-2,-12,31
37,127,113,-36,-79,-122,-151,-133,-159,-66
-563,-437,-164,742,186,-221,-479,-599,-636,-621
-131,-36,177,726,284,80,-114,-201,-218,-198
470,659,875,189,231,241,127,120,157,276
668,744,368,-467,-35,105,114,157,246,401
351,192,-931,-650,-135,-9,62,83,130,192
-374,-281,-654,-431,-43,-180,-192,-237,-249,-311
-888,-182,462,9,221,-238,-411,-546,-593,-705
-723,-224,680,194,410,-30,-204,-375,-444,-560
-21,-293,142,195,55,38,47,10,-23,-51
333,-5,44,42,-593,-155,23,106,155,212
254,66,-141,-79,-620,-217,-40,40,123,173
-10,-13,211,409,-228,-118,-39,-4,40,12
-115,268,1018,1102,-80,-161,-174,-152,-109,-140
-50,410,1086,597,-311,-312,-297,-275,-221,-159
174,341,113,-651,-449,-249,-155,-108,-53,56
9,316,491,-286,-166,-108,-53,14,64,89
-276,53,503,62,171,157,130,119,91,10
-429,-444,-1041,-348,115,229,211,258,205,23
-319,-685,-1709,-748,-3,209,232,363,305,113
282,-62,-851,-734,-46,106,113,213,221,230
464,741,486,-86,173,105,48,79,112,177
670,1348,1050,135,314,291,269,311,337,407
298,252,-203,144,353,231,91,45,44,154
-861,-1300,-143,827,206,-331,-710,-911,-956,-880
-821,-697,453,787,-99,-535,-806,-974,-994,-909
376,618,269,-148,-344,-154,-73,-18,49,203
1062,542,-683,-798,-272,196,488,632,724,915
531,-448,-1294,-570,54,170,350,393,434,549
-77,-718,-1202,-299,415,232,251,206,157,119
-315,-553,-541,-37,445,263,247,176,93,-27
-250,-407,85,348,93,107,132,121,63,-12
36,-173,294,388,-110,46,127,169,131,124
241,-55,184,100,-75,63,176,231,215,220
217,135,-123,-245,-58,40,135,185,192,177
241,258,-336,-348,-10,35,96,143,176,186
258,158,-199,-97,-43,-74,-51,-33,19,131
-14,-55,3,352,-68,-180,-248,-276,-258,-150
-232,-55,114,676,94,-54,-181,-225,-280,-244
-268,33,158,616,284,120,-57,-158,-236,-229
-219,-42,142,-176,149,54,-99,-214,-238,-225
-177,305,481,-648,92,-40,-152,-222,-208,-214
-334,797,1096,-867,125,-80,-120,-164,-148,-235
-493,799,1132,-446,-201,-322,-249,-177,-109,-231
-795,-373,22,463,-392,-285,-167,-45,-2,-228
-940,-1430,-972,478,-259,-49,41,87,44,-237
58,-895,-1187,58,-37,106,151,143,137,141
952,104,-143,-239,-157,102,229,262,329,562
856,463,637,-139,-301,38,243,388,454,632
510,374,202,31,-176,39,197,315,374,409
-146,117,335,492,55,-64,-91,-119,-98,-174
-272,107,634,862,256,-136,-321,-445,-420,-360
-197,-94,-600,106,112,-81,-124,-167,-139,-145
-337,-348,-978,-637,132,-105,-142,-198,-268,-301
-227,-112,-187,-632,414,115,8,-97,-210,-242
-105,160,283,-55,474,220,85,17,-29,-62
44,124,391,915,275,148,44,3,-7,29
230,-31,-145,360,102,224,235,202,172,229
146,-225,-783,-601,-2,191,221,182,151,180
28,-84,-314,-414,317,107,-51,-185,-223,-173
183,766,942,335,489,-184,-513,-707,-692,-432
42,1041,1154,752,-4,-678,-1001,-1124,-1040,-663
-30,590,483,296,-551,-622,-617,-573,-500,-307
441,174,-415,-1277,-712,-20,398,650,700,651
555,-269,-706,-1191,-344,344,744,988,1001,876
130,-969,-939,-60,-125,313,579,732,707,525
-60,-934,-639,208,-141,278,513,608,561,355
36,-524,-505,-97,-129,245,452,519,458,320
149,-219,-496,-460,-139,163,333,386,350,287
-44,-205,-222,-303,-102,43,82,46,10,-6
-332,-52,763,529,-40,-149,-247,-361,-399,-402
-205,279,1152,968,119,-21,-128,-227,-249,-275
152,-57,-1056,-954,42,242,276,295,284,228
-482,-738,-697,-369,223,93,-46,-127,-190,-332
-456,-626,-502,100,328,110,-93,-204,-275,-349
-24,-128,-150,150,98,153,58,54,23,10
247,249,253,93,-220,61,86,167,178,231
268,316,333,72,-422,-119,16,125,199,254
192,101,-1,81,-257,-109,48,133,184,220
119,-86,-361,13,-18,79,168,158,138,150
96,0,-172,7,25,82,82,45,44,72
43,99,297,160,78,-43,-143,-226,-183,-99
-195,66,1174,679,171,-244,-504,-651,-632,-498
-248,252,1300,738,94,-316,-558,-670,-663,-573
61,853,739,122,-163,-196,-232,-233,-191,-152
323,1336,1109,207,-194,-47,14,55,132,188
309,628,634,348,-7,143,174,201,255,284
-53,64,123,-147,-74,0,-45,-117,-89,-85
-76,403,270,-434,-171,-185,-305,-400,-346,-262
-81,-29,27,-407,-207,-110,-123,-115,-79,-73
-444,-1319,-1108,-182,-53,61,137,204,175,-30
-160,-974,-1268,-385,14,181,337,445,452,236
153,-212,-875,-233,174,315,453,557,572,421
17,-107,-570,-35,202,273,352,402,389,236
98,-101,-418,-216,49,133,205,192,175,130
186,-97,-576,-460,54,139,204,179,167,154
265,-122,-838,-498,187,191,221,240,238,231
456,-7,-732,-112,160,95,73,121,139,255
236,163,-28,403,18,-48,-125,-107,-120,2
-166,288,968,699,-79,-209,-335,-382,-386,-334
-198,402,1372,734,-37,-254,-381,-469,-444,-379
-173,278,783,347,-59,-186,-258,-349,-321,-275
-341,-25,-74,-439,105,-38,-164,-277,-272,-299
-754,-277,-401,-407,931,157,-227,-497,-577,-657
-1350,-715,-259,502,1614,107,-511,-926,-1091,-1212
-1119,-845,136,1039,1034,-158,-561,-848,-948,-1034
56,20,979,1164,-204,-342,-302,-239,-176,-92
784,989,1515,944,-1096,-233,59,308,435,559
711,774,543,-57,-1032,-132,149,360,444,529
554,62,-616,-878,-563,7,273,474,509,520
538,-168,-760,-1111,-326,188,481,707,722,666
477,-69,-548,-825,-258,201,446,660,673,630
205,-241,-501,-552,-129,192,323,457,417,368
19,-316,-520,-213,33,164,198,233,149,118
253,72,-122,-160,-44,64,92,138,143,197
201,74,330,-100,-104,-25,-52,-25,-16,92
134,184,254,-123,-111,-39,-66,-52,-36,67
145,397,-47,-473,-206,-24,48,85,100,179
67,500,364,-383,-85,54,111,129,138,174
-4,465,558,-135,64,88,77,36,47,70
-246,-240,201,238,97,37,23,-61,-72,-115
-436,-534,523,612,8,-153,-208,-300,-293,-326
-590,-421,879,650,-164,-439,-577,-666,-653,-620
-478,-123,860,419,-408,-627,-729,-781,-770,-668
-13,395,378,-30,-380,-325,-259,-254,-231,-132
215,439,-174,122,112,168,222,216,205,259
-159,-386,-859,458,474,356,336,289,208,111
-168,-453,-785,200,320,243,273,246,186,77
261,16,-474,-493,37,173,258,282,260,262
518,458,-374,-884,-208,10,113,169,193,282
380,328,-456,-572,-210,-172,-123,-103,-75,76
-103,-417,-721,-99,252,-179,-314,-390,-424,-301
-305,-672,-676,281,734,8,-227,-346,-396,-372
129,32,-69,118,605,225,169,172,163,153
246,283,155,79,35,215,303,384,387,356
-180,-108,337,301,-315,0,60,28,-15,-80
-161,-164,208,360,-419,-212,-145,-183,-222,-204
364,78,-95,-165,-483,-237,-32,62,104,233
409,-46,-317,-356,-262,-49,159,301,348,413
48,-196,-134,-46,70,53,68,82,66,72
11,208,542,216,-71,-166,-206,-238,-207,-106
218,934,1154,275,-289,-315,-376,-392,-334,-100
402,1209,902,89,-233,-154,-133,-150,-124,70
263,504,52,165,122,166,186,169,132,156
-169,-627,-293,405,426,316,298,256,166,11
-301,-525,-174,-44,240,181,202,212,141,-59
-651,-595,-329,-74,74,-9,-40,-29,-92,-339
-712,-740,-374,-119,6,60,70,85,-11,-286
-350,-600,-646,-381,39,283,414,500,429,161
-150,-453,-816,-375,46,220,322,408,380,221
59,-254,-646,-88,-66,-94,-100,-55,-24,39
373,46,-440,45,-210,-278,-319,-270,-186,-9
233,147,-123,-136,-283,-269,-280,-240,-207,-93
-62,377,686,-174,-119,-181,-278,-330,-374,-291
-18,729,1886,65,-26,-239,-413,-549,-576,-388
106,790,1512,45,-165,-313,-398,-504,-466,-257
255,795,37,-280,-315,-182,-23,-26,8,93
187,180,-720,-411,-169,129,371,395,360,298
-23,-508,-647,207,367,364,451,386,296,180
-192,-641,-149,677,546,289,197,84,2,-80
-280,-608,-191,599,349,104,-25,-82,-151,-208
-132,-452,-737,51,100,101,125,161,100,18
40,-212,-725,-181,25,155,278,348,327,236
150,-11,-302,-134,22,174,301,384,410,324
9,12,8,-250,-57,71,182,241,282,193
-231,46,439,-187,-107,-50,-12,17,43,-71
-322,359,825,177,177,87,-2,-48,-60,-203
580,795,-193,-426,192,172,209,276,303,424
219,-485,-917,-327,27,137,215,323,329,300
-230,-756,-520,-4,-133,18,56,129,105,-30
-233,-334,-141,-13,-68,-30,-74,-78,-126,-183
-207,-116,172,39,12,6,-87,-113,-164,-212
-249,-102,370,293,-61,-83,-194,-179,-171,-224
-43,24,234,469,-66,-152,-275,-278,-249,-193
200,-82,-288,243,40,2,-59,-54,-48,34
278,85,-125,-111,33,80,120,178,202,226
348,502,374,-195,-144,-42,43,137,194,241
156,377,380,-125,-194,-133,-120,-53,-19,52
15,508,805,51,-127,-203,-309,-357,-326,-187
390,1170,1160,7,12,-160,-267,-312,-263,-20
690,1075,299,-346,149,87,93,106,155,356
-50,-495,-833,47,192,59,66,69,48,24
-580,-880,-13,938,384,-42,-171,-254,-297,-422
-299,-166,653,712,214,-143,-244,-340,-345,-344
-230,-312,-143,-91,76,-142,-177,-226,-237,-237
-373,-716,-1065,-478,124,71,82,8,-58,-189
-334,-541,-767,-292,-22,189,251,242,154,-18
-53,-222,-440,-102,-234,202,356,485,479,314
125,-27,-532,-385,-22,245,392,517,556,408
235,6,-487,-454,244,271,307,364,381,321
409,39,113,-11,168,195,188,225,242,319
429,168,599,610,-33,84,72,149,150,299
106,138,155,363,-111,32,-1,53,24,105
-252,19,-4,-83,-206,-93,-128,-101,-149,-128
-391,-54,393,103,-273,-210,-206,-168,-197,-215
-362,7,579,480,-179,-253,-278,-243,-243,-243
-336,90,906,788,105,-122,-296,-393,-451,-413
-176,251,1450,1268,335,-81,-413,-614,-666,-556
14,139,678,1022,260,-69,-338,-464,-460,-330
238,36,-530,68,-125,-113,-145,-140,-72,43
336,220,-175,-599,-467,-282,-197,-149,-25,141
223,352,66,-898,-635,-405,-328,-290,-134,49
73,137,-459,-784,-493,-309,-289,-260,-143,-19
89,-232,-930,-703,-294,-93,-25,8,85,122
313,-39,-854,-605,-199,126,279,379,417,402
314,282,-313,-287,-96,219,343,412,415,390
-31,-73,51,-54,182,329,342,314,265,160
-419,-450,534,121,220,96,14,-87,-150,-265
-566,-374,978,358,145,-179,-342,-517,-559,-604
-140,705,1683,217,24,-231,-321,-442,-419,-383
767,2185,1646,-398,-85,63,143,184,297,412
881,1578,517,-299,-77,221,302,417,539,651
191,-482,-1179,84,-134,120,140,208,246,246
-312,-1370,-1569,142,17,98,63,52,11,-101
-377,-999,-885,244,144,110,87,33,-17,-171
-333,-621,-243,234,118,55,68,55,18,-139
-230,-381,-18,154,176,60,74,57,41,-86
-52,13,63,-5,184,91,119,94,105,15
59,48,-297,-324,101,135,215,195,223,160
-78,-442,-814,-357,137,155,256,226,241,125
-309,-535,-705,47,306,61,15,-59,-82,-174
-484,-344,-153,523,294,-167,-329,-460,-492,-498
-518,-299,433,597,135,-198,-271,-380,-437,-489
-215,-114,502,-7,-225,-131,-49,-15,-41,-111
-30,535,1121,105,-456,-421,-409,-376,-319,-225
7,1309,2931,1463,-186,-611,-869,-959,-852,-594
643,1569,2039,981,-152,-439,-614,-581,-428,-83
1026,721,-1436,-1300,-433,-162,3,226,400,641
210,-441,-2011,-1761,-498,-125,76,233,292,290
-426,-577,-402,-521,-95,4,40,3,-56,-209
-342,-511,-339,85,250,200,166,81,-8,-158
-151,-537,-1018,114,388,329,336,285,173,-2
-23,-411,-947,-127,330,409,508,531,434,203
59,-312,-526,-209,153,365,524,601,526,326
43,-324,-339,56,50,286,450,515,472,324
90,90,16,2,14,188,302,340,306,237
77,263,-98,-71,132,202,208,210,167,128
-33,-110,-439,-212,158,152,155,135,62,22
79,-271,-380,-387,70,31,91,70,22,14
97,-134,-464,-171,31,-48,-92,-97,-98,-33
14,-74,-544,87,88,-6,-84,-145,-182,-127
-91,122,253,480,145,51,-58,-129,-193,-170
-289,69,842,570,181,28,-60,-171,-240,-267
-240,152,730,444,-38,-434,-487,-595,-575,-467
203,1079,1008,-116,-214,-390,-415,-393,-334,-148
446,1501,1028,-315,-119,-147,-151,-73,-21,126
41,472,408,29,74,-3,-16,30,27,2
-333,-651,-87,49,116,99,123,143,65,-81
-298,-861,-129,-98,0,155,238,254,184,22
12,-379,-73,-267,-159,114,284,361,355,263
71,-288,-265,-47,-185,13,166,257,273,248
155,-434,-630,101,-75,42,134,211,225,231
247,-388,-892,-92,5,138,223,280,306,299
220,-275,-907,-399,19,158,225,253,269,270
37,-77,-154,-313,216,35,-27,-36,-26,11
-158,255,1115,207,416,-57,-228,-285,-294,-247
-28,631,1798,824,364,17,-103,-175,-180,-134
239,491,544,592,-97,49,120,132,160,228
14,-228,-217,-29,-543,-184,-56,5,32,81
-400,-318,655,190,-451,-457,-488,-527,-510,-447
-338,99,381,232,-257,-369,-495,-584,-605,-521
-133,-56,-820,-28,56,-44,-202,-307,-411,-330
-103,-380,-915,-84,206,26,-93,-193,-284,-210
1,-108,-204,-283,-84,-123,-111,-145,-147,-60
32,54,44,-84,-74,-7,7,6,13,45
-31,-24,27,223,81,181,161,183,155,98
89,-154,-415,-131,62,260,328,411,393,299
196,-254,-733,-485,-100,187,366,501,522,426
229,-6,-532,-585,-211,113,314,462,489,401
154,137,-8,-321,-201,81,214,320,323,276
148,55,99,-199,-85,135,187,208,187,202
71,-74,19,-50,99,162,154,135,112,111
0,-98,-166,56,179,108,84,67,30,39
60,37,-239,-15,51,-2,35,8,-10,40
112,252,65,-16,-90,-119,-79,-110,-89,-20
-13,116,152,191,-135,-227,-267,-330,-295,-198
-232,-187,0,429,-116,-326,-406,-496,-455,-380
-103,-73,-10,355,-123,-236,-239,-285,-235,-200
75,192,280,530,116,5,-7,-56,-62,-27
169,1096,1663,752,118,-114,-204,-287,-269,-133
453,1570,1898,-2,-140,-183,-170,-139,-45,125
262,429,279,-654,-83,14,98,181,251,253
-310,-344,-297,-374,89,35,-20,-56,-76,-192
-511,-164,273,201,124,-90,-240,-328,-347,-456
-318,-442,-437,187,318,224,141,82,13,-147
-17,-729,-1055,-134,488,616,643,692,589,335
-10,-808,-990,-255,277,378,406,482,434,252
36,-381,-35,-80,-117,-10,28,93,108,57
-100,81,560,407,91,6,-70,-84,-118,-143
-37,-555,-1005,78,321,385,423,448,359,230
14,-281,-802,-623,18,182,270,339,291,207
-71,-156,-132,-333,83,133,173,187,133,70
15,-69,-77,-52,172,163,156,152,97,86
209,67,-56,-87,-34,37,42,63,49,107
214,169,125,-160,-171,-95,-94,-117,-127,-43
205,222,216,-143,-131,-119,-123,-129,-124,-36
195,128,98,-11,3,-89,-106,-111,-69,4
226,195,170,162,65,-80,-120,-163,-75,17
168,164,-217,40,-125,-160,-178,-218,-145,-23
-90,57,-201,-50,-231,-195,-205,-259,-239,-192
-282,125,899,241,-187,-208,-235,-303,-310,-333
-304,382,1766,799,-64,-187,-248,-355,-362,-395
-81,347,859,670,-194,-214,-192,-230,-187,-176
114,463,-300,-28,-357,-170,-72,-10,76,81
-42,528,-194,-424,-390,-160,-99,-10,51,19
-435,-288,16,-313,-296,-230,-223,-177,-172,-235
-385,-744,-558,-311,-330,-300,-265,-198,-189,-217
224,79,-327,-514,-410,-287,-179,-55,4,112
43,184,207,-201,-115,-82,-41,-26,-44,-19
-421,-248,242,-85,90,39,19,-33,-125,-252
-207,-92,-84,-302,124,147,128,129,62,-58
99,-313,-943,-492,161,323,410,493,456,322
-204,-896,-1349,-247,190,282,378,414,344,138
-415,-916,-990,282,267,154,147,92,-1,-177
-101,-446,-494,546,346,138,66,-7,-90,-125
345,389,733,156,214,170,129,113,131,208
214,460,825,363,130,18,-15,-3,34,94
243,326,82,92,73,23,49,84,135,190
181,-70,-753,-67,141,77,53,28,49,92
237,-130,-544,22,154,62,0,-39,-47,28
192,-24,-389,-150,0,29,53,69,69,85
104,85,-115,-176,-92,-36,-5,-3,-7,24
181,235,353,-154,-168,-144,-145,-139,-118,2
-40,549,1188,144,-145,-345,-476,-508,-450,-298
-433,701,1848,672,219,-366,-646,-752,-711,-639
-296,468,1199,740,732,117,-143,-275,-314,-343
141,165,-93,211,793,575,466,384,282,237
263,-244,-944,-201,109,369,402,428,366,340
176,-507,-606,129,-251,106,150,169,172,160
-66,-713,-324,478,-16,56,77,19,21,-28
-105,-295,127,339,26,-24,-38,-79,-67,-106
117,-93,-1021,-634,-129,89,177,244,290,221
3,-281,-421,-44,-113,29,95,130,172,109
53,-160,-51,140,-247,-127,-77,-32,7,30
41,223,671,176,-329,-319,-368,-357,-298,-157
212,683,963,-329,-644,-580,-583,-509,-365,-122
266,547,252,-898,-558,-425,-364,-271,-149,44
41,-131,-709,-712,116,160,156,183,193,149
-182,-420,-419,-24,535,399,308,240,175,18
-183,-301,720,635,220,167,107,82,1,-72
474,500,-29,-224,-233,39,177,292,316,329
648,774,-425,-810,-340,-51,103,265,361,426
133,30,-419,-582,-167,-83,-31,60,96,104
-421,-421,-341,-401,88,-54,-125,-137,-167,-248
-597,-425,-436,-65,573,144,-46,-169,-243,-367
-629,-564,-184,631,775,206,-28,-173,-276,-390
-409,-547,139,949,369,20,-129,-176,-225,-266
162,-116,197,352,-219,-12,59,146,191,219
422,213,73,-262,-480,-42,164,295,378,432
216,403,251,-423,-297,30,203,253,283,273
69,554,79,-331,103,195,246,266,261,169
-4,275,-139,-18,335,250,211,251,236,140
-125,-344,-286,245,153,92,95,157,195,86
58,-221,157,91,-291,-164,-84,-5,59,66
307,355,639,-104,-315,-159,-92,-69,-2,109
185,698,1242,94,-234,-201,-241,-244,-202,-56
-102,390,889,389,-155,-262,-389,-434,-434,-311
-331,-266,-74,482,-26,-186,-315,-406,-428,-393
-150,-409,-444,150,-33,-101,-119,-138,-113,-121
-67,-360,-569,-63,42,5,48,30,60,-3
-167,-251,-527,7,126,100,65,-21,-38,-128
-100,-396,-715,-161,3,68,87,68,43,-10
52,-421,-629,-446,-140,79,192,219,210,176
109,-253,-488,-482,-152,70,119,150,157,144
-15,-195,-351,-374,-16,19,-38,-58,-84,-61
-78,110,317,-229,-120,-138,-215,-262,-255,-190
-124,489,1190,302,-35,-89,-177,-215,-209,-187
-266,195,782,703,376,228,124,18,-67,-176
-286,-261,-259,1003,636,353,232,91,-29,-164
17,-84,-366,915,519,227,145,69,33,-12
296,-52,-636,-299,-29,45,158,210,255,261
321,-256,-475,-109,-169,-9,91,231,271,308
138,-151,-485,127,-79,-28,29,117,133,134
19,147,-1,41,-29,47,119,145,127,91
-54,196,447,-192,47,73,72,30,31,18
-74,170,584,-91,183,18,-83,-145,-138,-92
-161,130,686,489,393,56,-98,-163,-191,-192
-180,3,263,618,275,126,41,8,-49,-128
-36,32,-114,-312,-399,-86,9,90,85,16
108,327,524,-959,-814,-383,-182,-43,24,62
-13,218,514,-541,-418,-276,-229,-156,-131,-73
-205,3,-198,-111,56,-24,-133,-106,-153,-181
-126,-44,-324,33,234,95,35,55,1,-58
-261,-569,-633,136,429,171,98,90,7,-114
32,-348,-197,-18,316,165,126,145,101,58
276,78,515,101,87,98,101,158,168,190
194,102,564,372,10,149,146,194,207,190
187,44,-396,-55,-84,162,241,310,351,287
87,-89,-1317,-535,-151,78,179,238,288,216
-31,84,-550,-428,-234,-95,-24,-1,40,17
-44,375,343,-250,-391,-319,-250,-246,-181,-154
33,750,1023,-218,-526,-498,-442,-451,-363,-236
61,882,1185,-29,-303,-273,-308,-339,-307,-176
-91,451,656,225,42,-30,-147,-173,-187,-172
-494,-407,106,876,259,-83,-269,-388,-449,-525
-354,-530,167,1049,276,-123,-356,-465,-529,-533
-135,-516,109,660,269,43,-80,-117,-184,-209
-217,-621,-249,282,202,150,159,199,135,-10
-214,-512,-544,-15,134,154,198,257,219,74
22,-212,-832,-450,185,208,245,297,309,232
182,-35,-638,-604,137,194,211,231,217,192
356,112,-398,-544,-108,77,176,196,162,202
460,333,82,-454,-608,-308,-102,-42,12,165
456,364,283,-334,-832,-635,-481,-454,-324,-23
148,289,389,-66,-288,-449,-529,-621,-544,-288
-262,356,1453,712,626,-4,-348,-588,-646,-530
-164,739,1881,1212,858,251,-47,-251,-332,-318
374,602,102,398,188,309,383,411,431,376
409,-582,-2114,-859,-398,174,494,661,719,633
-243,-1245,-1288,-760,-287,-14,166,229,222,90
-341,-486,-101,-563,-12,-13,-20,-10,-41,-122
22,192,-82,-570,58,71,51,103,122,121
272,313,-267,-266,131,202,202,257,263,324
177,135,9,98,-24,102,93,127,129,189
-14,8,449,292,-79,-89,-189,-209,-212,-120
-40,-18,587,186,-24,-179,-292,-332,-318,-216
163,-25,17,-86,-45,-76,-61,-24,18,78
136,-239,-673,-325,-31,106,182,259,284,223
-92,-634,-835,-163,-13,116,176,236,223,99
-22,-521,-475,13,95,177,241,292,272,165
157,-130,-29,-48,141,208,271,327,325,263
59,-11,178,-37,120,137,130,159,179,131
-111,652,1149,161,78,-80,-167,-224,-176,-170
-194,698,987,201,171,-50,-243,-392,-364,-367
-221,174,95,0,-12,-292,-530,-706,-673,-629
-347,-338,-108,338,-36,-465,-689,-858,-831,-757
-144,-68,71,974,346,-117,-256,-390,-367,-324
135,433,559,761,571,186,99,2,66,86
394,269,84,-150,-118,68,208,259,396,440
214,-400,-614,-42,-341,81,281,385,475,412
-150,-634,-516,183,10,168,275,357,343,161
-104,-405,-541,-91,210,313,386,452,398,216
94,-220,-761,-535,87,371,495,581,534,401
-43,-104,-454,-369,-48,190,288,349,302,194
-277,-11,205,161,-88,-41,-21,-36,-82,-158
-173,71,721,440,-213,-188,-160,-173,-191,-170
121,250,738,104,-411,-238,-79,-5,49,121
371,524,110,-437,-437,-240,-50,89,221,340
328,484,-386,-314,-127,-43,4,72,168,252
430,407,-317,-348,134,187,147,145,165,266
206,-184,-115,-124,134,115,101,68,70,132
-176,-529,-119,204,24,-7,-48,-91,-129,-135
-335,-343,-75,237,-13,-160,-272,-345,-383,-366
-184,-172,-24,288,120,-98,-204,-258,-256,-218
-5,-220,-163,91,116,87,55,54,58,45
124,-53,-44,-195,-57,110,178,224,219,187
127,58,-134,-225,-20,123,174,242,263,194
-16,-159,-410,-59,227,140,66,80,54,31
-65,-248,-435,-22,464,141,2,-17,-82,-67
-63,-50,-207,-73,406,93,-24,-27,-81,-60
-64,254,385,17,161,30,-18,19,-39,-25
150,640,1113,294,-281,-149,-143,-64,-45,56
211,461,629,59,-575,-268,-213,-123,-61,59
146,81,-437,-434,-422,-86,40,136,144,142
9,-96,-500,-441,-75,89,175,205,170,87
-129,-225,-17,-198,74,95,119,63,32,-48
-72,-117,242,31,49,1,22,-42,-32,-38
-143,-184,-264,-119,-23,-171,-219,-261,-222,-174
92,441,59,-270,7,29,41,5,20,55
401,821,409,-189,69,226,321,341,384,377
110,9,32,-5,121,195,266,245,225,193
-194,-522,-257,97,87,62,87,10,-54,-81
-822,-333,1248,1286,22,-502,-795,-985,-1024,-956
-866,121,1643,1487,-61,-614,-926,-1119,-1155,-1061
-49,1264,1485,486,-93,-256,-366,-449,-452,-308
766,1677,1421,-396,-140,102,243,288,332,477
600,117,-358,-539,-326,28,247,362,405,459
221,-884,-1533,-605,-396,-95,94,215,239,239
-63,-770,-1344,-616,-337,-132,-32,31,31,37
-649,-662,-229,-85,-177,-231,-358,-451,-514,-560
-680,-507,486,455,90,-153,-360,-520,-599,-634
16,-258,-425,-29,123,113,144,122,101,75
320,-374,-1402,-589,244,327,438,476,485,442
290,-329,-1050,-851,424,427,446,476,476,435
127,-269,-800,-811,465,313,311,331,311,289
-48,-316,-546,-226,535,169,147,143,99,86
-68,-116,-157,248,393,111,131,138,103,66
-33,37,51,361,284,127,186,203,175,159
100,6,-2,328,-27,57,174,237,250,267
145,4,204,142,-155,-96,-18,40,52,128
190,249,511,132,-248,-247,-197,-171,-160,-31
321,700,840,518,-352,-261,-208,-203,-179,-7
391,767,748,734,-137,-46,-44,-41,-28,126
391,543,360,60,-36,62,91,81,103,239
178,89,-194,-456,-9,11,61,27,69,136
-215,-504,-81,-25,183,44,55,-22,-41,-93
-307,-451,199,317,55,-10,23,-76,-117,-185
-134,-44,427,189,-197,9,95,65,35,-30
-4,157,490,-27,-46,193,286,298,275,180
-27,274,219,54,114,192,241,223,213,158
-318,76,-23,96,5,-74,-107,-158,-153,-181
-468,-335,-120,-13,-282,-341,-376,-412,-401,-405
-206,-690,-904,-119,-428,-359,-323,-330,-325,-247
-40,-583,-1107,147,-232,-246,-241,-224,-192,-89
-290,-66,478,967,76,-316,-488,-555,-529,-392
-83,879,1758,734,65,-240,-384,-488,-485,-352
598,1435,853,-603,-97,129,196,175,171,254
471,287,-892,-985,-6,315,440,474,450,394
-167,-1182,-1321,-303,219,305,361,376,316,113
-221,-1160,-987,-87,143,220,301,346,313,131
85,-457,-800,-271,76,191,287,357,353,284
143,-113,-543,-186,40,120,152,222,229,238
38,84,-78,86,53,73,38,99,119,119
85,365,517,192,25,13,-79,-54,-51,4
90,154,668,219,241,34,-170,-224,-217,-133
-104,-155,172,-8,507,73,-180,-275,-295,-249
-256,-352,-371,-261,410,43,-175,-250,-252,-272
-81,133,319,232,-328,-149,-175,-174,-131,-99
27,212,468,494,-304,-158,-110,-100,-27,32
3,-222,-182,1,-82,89,147,215,263,209
42,-47,-320,-403,-121,80,163,263,314,197
194,115,-324,-422,-67,162,226,303,302,213
269,184,-228,-460,-73,184,286,378,409,318
162,375,361,-332,-60,125,201,271,309,251
76,546,935,90,26,83,69,76,87,113
-46,400,769,683,112,26,-39,-71,-49,-22
-283,46,456,1024,95,-78,-186,-261,-244,-265
-225,382,1097,852,-123,-318,-449,-554,-540,-440
191,1027,1418,282,-260,-355,-458,-518,-501,-290
422,914,296,-490,-261,-146,-107,-71,-67,102
91,-407,-1240,-705,4,147,205,177,122,130
-376,-1458,-1514,-586,10,74,107,48,-28,-158
-175,-823,-531,-240,-95,-87,-134,-141,-165,-154
-59,-250,-252,291,2,-104,-218,-251,-242,-161
-135,-230,-404,328,63,-23,-123,-141,-166,-145
-72,-140,-2,-18,88,95,33,38,4,-32
-90,-59,183,-125,167,148,80,72,27,-33
-90,-108,-4,-142,242,96,44,64,54,12
112,117,-350,-468,50,5,-2,69,113,134
52,349,137,-99,-147,-84,-153,-132,-119,-75
34,752,1605,583,-280,-331,-492,-542,-527,-366
-343,8,1464,1062,-99,-238,-429,-550,-622,-566
-391,-442,-74,429,20,-28,-72,-127,-221,-321
78,13,-1220,-908,-121,70,186,274,269,189
72,-311,-1323,-994,40,239,352,434,426,293
92,-309,-734,-587,-4,218,356,430,453,316
242,53,-58,-29,-111,150,298,421,468,389
70,22,-703,20,-4,137,249,331,319,203
-44,-216,-950,71,159,161,202,231,185,85
94,-71,-627,159,196,150,171,184,172,123
392,602,80,-275,29,149,219,267,281,328
144,569,546,-211,-11,96,167,200,175,181
-66,188,620,142,135,83,63,61,35,-1
247,271,534,-4,265,98,58,71,105,152
214,162,334,-424,132,-37,-92,-62,-59,74
-267,-200,301,-246,-100,-288,-416,-476,-508,-402
-604,-718,-80,630,-285,-453,-591,-707,-753,-704
-298,-286,375,1202,-276,-460,-557,-657,-633,-517
69,612,866,983,-215,-470,-610,-710,-602,-347
211,1258,1361,420,-329,-487,-587,-696,-543,-251
307,1300,571,-528,-408,-199,-50,-64,51,140
187,321,-794,-731,-313,22,305,393,465,337
-292,-1160,-1016,-74,146,270,395,393,318,32
-432,-1572,-1062,-254,479,397,410,353,215,-62
-286,-1010,-799,-781,619,315,263,223,142,-15
-72,-406,-600,-1126,683,334,262,223,175,79
23,-394,-728,-704,570,438,420,407,327,203
212,-248,-417,403,67,395,486,527,471,392
397,49,13,784,-258,282,411,513,495,460
277,106,113,546,-129,130,201,261,262,261
-29,157,632,569,-139,-116,-112,-130,-110,-89
-308,181,916,746,-159,-286,-364,-466,-460,-430
72,307,129,-136,-80,-139,-158,-241,-172,-79
16,46,244,-27,-196,-204,-167,-250,-229,-168
6,538,1549,191,-83,-58,-35,-84,-72,-62
93,847,1712,236,106,94,82,20,37,34
-67,108,-513,-21,112,133,141,121,137,63
-469,-774,-1734,-486,-171,-3,111,152,194,-27
-665,-618,-628,-208,-137,-127,-88,-50,-56,-268
-495,150,375,114,-46,-143,-159,-125,-141,-274
-211,360,213,243,34,-50,-62,-12,-2,-52
123,-351,-701,682,291,44,-1,20,53,87
113,-789,-938,665,186,-13,-24,-6,37,24
343,-110,-190,-256,-266,-127,-21,81,128,182
577,52,-303,-832,-214,80,190,315,324,404
337,-153,-374,-409,-64,82,132,215,188,235
170,115,148,-77,-35,-45,-84,-70,-103,-20
-17,-28,334,214,50,-115,-246,-305,-324,-238
94,89,561,270,32,-122,-210,-265,-242,-128
438,346,152,-49,16,33,69,80,129,247
539,115,-710,-631,-81,152,300,353,374,421
444,-192,-1046,-755,-251,26,164,206,227,289
188,-26,-580,-399,-359,-286,-276,-281,-237,-85
-221,476,621,-59,-237,-378,-466,-522,-468,-397
-240,891,1767,142,-70,-218,-235,-269,-231,-257
186,882,1868,33,-178,-36,67,165,185,192
355,258,505,26,-160,178,322,450,462,436
27,-475,-855,-1,152,357,363,415,340,235
-123,-488,-923,-204,172,246,207,225,171,67
-315,-646,-701,-189,239,163,49,33,-38,-140
-412,-646,-512,-27,321,120,-76,-141,-258,-318
-282,-358,-371,107,245,12,-156,-227,-324,-308
-268,-151,11,625,212,-104,-261,-290,-324,-296
-118,123,486,683,1,-141,-179,-163,-96,-69
116,521,972,-142,-184,-35,23,67,153,197
-177,324,927,-82,-15,-132,-213,-195,-142,-87
-653,-136,399,368,26,-401,-598,-697,-722,-675
-657,-580,-470,-39,-341,-467,-588,-702,-772,-767
-136,-229,-538,-361,-318,-126,-88,-122,-172,-220
284,11,-434,-54,459,368,364,338,308,274
207,-33,-101,-203,365,281,364,368,356,287
293,301,675,-101,105,193,347,380,385,336
272,371,808,341,-37,152,276,298,312,283
15,29,84,426,49,101,158,139,118,76
-9,160,25,139,62,58,98,72,47,36
200,331,331,132,122,138,200,193,185,213
139,42,88,83,-89,-42,27,63,65,150
73,310,1048,23,-463,-338,-237,-157,-143,-5
247,684,1064,134,-430,-250,-137,-62,-30,106
510,515,-628,-408,-301,-22,153,235,301,417
141,-265,-1422,-476,-11,31,109,109,130,168
-600,-680,-730,79,280,-119,-297,-448,-536,-540
-985,-652,-175,175,216,-289,-546,-752,-861,-895
-835,-488,-126,-129,50,-188,-324,-483,-521,-674
-287,-66,-275,-271,5,89,83,12,29,-148
172,0,-964,-172,141,396,501,566,573,426
342,131,-689,-159,195,388,495,587,608,531
232,-120,-235,-168,66,177,233,270,275,268
-29,-349,-36,-156,31,71,115,124,100,56
78,-184,-162,-113,67,6,52,41,46,12
256,-132,-306,86,216,66,65,55,32,48
227,10,-30,269,243,111,134,97,82,78
237,276,484,389,-88,-4,106,116,154,158
330,351,500,192,-382,-38,131,242,260,327
370,287,297,-107,-380,-49,121,244,261,378
126,-121,-403,-249,153,121,110,86,121,125
-92,90,543,408,228,-151,-297,-396,-359,-289
-309,176,966,531,109,-216,-364,-443,-429,-412
-177,25,292,-49,-133,-42,9,46,94,-41
106,-39,-767,-621,-296,79,222,318,380,272
21,46,-436,-438,-66,116,139,155,167,116
-220,218,560,-112,199,195,153,134,107,-39
31,791,1292,173,234,272,265,292,266,137
389,835,739,231,263,328,350,351,333,334
-28,-359,-766,137,222,220,229,177,116,55
-361,-936,-732,189,179,28,-1,-75,-126,-214
-265,-567,-355,170,185,-72,-129,-192,-221,-235
-263,-326,-174,119,117,-143,-247,-309,-345,-309
-343,-361,-224,343,98,-129,-239,-298,-358,-350
-35,168,160,459,-194,-368,-457,-468,-394,-216
-27,359,730,-9,-371,-619,-734,-724,-585,-324
-207,56,742,-155,-344,-429,-497,-467,-435,-338
305,507,887,-180,-402,-68,21,123,98,133
732,1250,1449,257,-296,28,126,228,283,380
486,891,616,344,-225,-42,43,129,191,256
79,210,-607,-13,72,168,170,174,161,84
-146,-245,-1028,-506,310,342,304,238,152,17
-164,-435,-427,-282,164,134,141,110,48,-18
-34,-450,-245,-285,-114,-22,57,94,83,67
179,46,224,-442,-309,-93,53,105,152,179
180,308,336,-425,-353,-126,21,68,101,126
63,-105,-603,-361,-143,46,135,166,136,107
-146,-567,-909,-9,130,155,147,149,67,-4
-195,-395,-314,220,247,143,85,70,-1,-34
-183,-154,-23,198,118,-30,-88,-119,-130,-92
-152,-46,334,92,-54,-161,-200,-220,-217,-144
-207,-95,-124,94,-77,-126,-162,-190,-262,-185
-91,-115,-943,75,27,9,-1,-11,-47,-27
122,-243,-227,-237,26,115,179,185,213,249
146,-122,-34,-243,-54,104,140,147,128,184
177,-61,-332,-396,-130,48,89,128,164,181
37,34,-344,-438,-208,-66,14,70,142,104
-102,302,444,104,-207,-143,-111,-112,-63,-56
-494,-118,658,512,-65,-231,-351,-461,-455,-422
-878,-609,427,604,37,-373,-615,-796,-800,-797
-674,-184,335,131,24,-357,-559,-687,-662,-646
-51,530,430,-285,100,-118,-190,-237,-195,-136
487,798,180,-144,176,171,229,257,277,345
544,376,-93,256,269,439,537,631,585,578
166,-487,-393,240,160,399,488,547,490,387
-137,-596,-483,-28,-89,147,229,266,249,114
-247,-360,-401,77,-63,57,115,89,87,-73
18,-174,-259,118,94,163,198,175,190,83
182,5,-183,41,187,212,235,232,244,216
153,138,13,2,81,82,83,79,69,125
388,384,165,-224,-173,-120,-106,-91,-78,92
558,690,282,-411,-217,-179,-191,-184,-136,92
213,448,164,-131,27,-44,-134,-198,-177,-69
-306,-421,-254,485,284,115,-2,-112,-169,-274
-289,-463,50,767,362,179,115,41,-9,-166
-77,-177,10,571,373,187,149,110,73,8
-142,-244,-346,233,317,107,38,-5,-21,-81
-204,-299,328,-32,65,-27,-58,-77,-93,-135
-63,-266,281,-306,-136,-72,-61,-19,-59,-32
58,-241,-515,-412,-326,-120,-83,18,24,48
55,-117,-673,-400,-278,-82,-18,73,107,72
167,275,93,-145,-72,59,85,167,216,170
507,784,371,-150,-115,82,141,253,316,381
403,240,-146,-182,-112,85,143,264,247,341
62,-361,-387,-82,-130,7,18,109,31,92
33,-177,-178,-75,-123,11,-7,46,-44,24
32,-42,-192,-31,-63,7,-37,-5,-62,1
-77,-54,-60,40,16,-60,-156,-130,-156,-117
-112,-25,235,25,-22,-144,-230,-198,-204,-157
-105,-21,93,-15,-23,-173,-255,-219,-221,-155
-15,268,96,25,130,-117,-212,-210,-184,-123
135,626,604,189,135,-78,-142,-147,-59,-29
112,744,654,323,65,-73,-116,-131,-58,-50
-16,544,672,563,124,-28,-144,-217,-176,-180
-194,107,831,478,115,-102,-240,-313,-264,-287
-341,-76,633,108,-80,-341,-468,-499,-428,-409
-403,-21,481,80,-214,-368,-479,-470,-423,-396
-286,-95,-196,-277,-83,-75,-98,-70,-80,-146
24,-358,-872,-472,-185,96,203,286,255,164
15,-439,-239,-86,-101,255,386,443,403,226
180,-23,144,78,120,351,482,529,520,343
294,-10,-668,-86,186,299,353,359,325,273
141,-359,-1284,-386,47,156,182,153,122,113
93,-226,-792,-298,-96,-3,49,37,59,44
213,17,-557,-32,-105,-117,-74,-71,-23,44
71,-119,-41,177,76,119,118,101,126,81
123,-112,11,21,129,217,234,255,276,228
-5,-178,-113,-24,58,125,127,118,120,72
-133,-181,-216,40,-43,-54,-114,-133,-177,-166
-96,-24,-49,120,26,-82,-178,-210,-240,-197
-68,290,321,161,19,-172,-271,-315,-295,-240
73,853,1026,354,-113,-335,-406,-447,-376,-219
244,767,892,115,-382,-377,-360,-318,-236,-25
217,-110,-449,-410,-339,-127,14,103,153,205
52,-392,-265,-303,-136,17,140,166,193,131
58,66,568,-172,-241,-158,-89,-76,-29,5
-97,137,541,-144,-316,-349,-368,-317,-294,-195
-297,-80,-20,-107,-32,-229,-334,-331,-336,-349
-178,-238,-552,-95,214,144,119,143,95,-53
-152,-367,-704,153,329,365,367,416,293,138
-372,-294,-400,492,401,344,278,253,90,-41
-452,-230,-77,440,517,438,371,291,120,-42
-7,-158,-301,-195,276,367,403,400,293,236
429,-135,-403,-488,-19,141,240,267,253,317
358,-123,-139,-356,-59,88,153,141,125,210
131,-96,-39,-134,-4,69,88,35,-3,75
96,-6,74,173,5,-4,-34,-60,-92,32
149,186,379,150,-114,-138,-171,-161,-155,25
245,523,893,102,-158,-135,-134,-115,-112,96
235,617,993,164,63,71,64,35,-11,133
-16,181,411,253,220,174,178,112,25,12
-134,-196,-229,107,150,192,234,217,133,36
-52,-170,-346,-232,50,121,149,176,111,96
-263,-608,-818,-235,139,52,11,6,-47,-95
-269,-605,-606,-73,145,24,-1,-35,-50,-126
143,-156,-288,62,92,52,64,10,69,78
329,109,-31,281,-25,-76,-80,-75,21,125
140,214,380,243,-225,-315,-355,-340,-232,-105
-178,272,1246,556,-334,-637,-781,-838,-689,-527
-285,251,1474,976,-82,-552,-807,-919,-806,-674
-326,-52,311,778,300,-212,-441,-548,-488,-522
-266,-28,-263,25,321,-51,-102,-123,-93,-218
167,616,181,-635,61,84,193,267,339,244
596,693,-253,-670,-182,204,443,552,643,603
403,-109,-957,-163,-362,106,291,384,416,432
60,-467,-694,-59,-267,-32,20,89,69,77
-48,-318,-309,-433,-305,-140,-58,31,-11,-17
-113,-275,-251,-329,116,232,313,366,243,130
-13,-404,-681,-261,307,353,418,426,350,219
28,-448,-976,-281,324,288,366,314,316,186
-23,-277,-787,-262,119,81,145,121,167,82
-178,42,-91,-31,34,-45,-59,-50,-11,-49
-341,287,809,316,114,-57,-136,-178,-155,-189
-400,485,1795,818,322,-132,-323,-437,-399,-440
-326,546,1929,1190,609,-170,-462,-639,-644,-622
-271,281,667,743,458,-160,-419,-590,-653,-589
-233,-481,-801,0,30,-84,-134,-205,-232,-254
184,-356,-506,-525,-264,148,309,378,452,349
304,-192,-289,-410,-15,363,519,585,645,511
164,-271,-670,-353,-76,199,343,397,428,330
110,-236,-785,-402,-262,6,158,241,277,225
178,13,-320,-329,-318,-84,80,178,274,217
184,147,19,-246,-318,-130,-13,69,185,177
202,243,59,-243,-325,-159,-55,24,108,189
123,284,176,-57,-113,-56,-22,-21,20,102
-107,58,175,0,11,-14,-111,-185,-216,-179
-124,-41,-37,-38,-93,-111,-176,-250,-259,-223
-177,-61,-9,28,-60,-111,-108,-204,-165,-202
-102,25,-21,-56,6,-6,11,-56,-30,-66
-41,-90,-361,-219,-88,9,47,76,119,94
-168,-201,-378,-212,-84,-66,-31,-16,26,-7
-465,-460,-70,270,176,-67,-174,-246,-306,-360
-501,-375,-29,153,365,83,-26,-117,-202,-321
-164,11,-147,-566,244,128,167,188,175,42
212,476,301,-690,-13,34,142,220,235,202
387,934,1057,71,-193,-69,19,62,72,152
39,-138,626,519,-146,-62,-5,-10,-70,0
402,324,361,256,-170,-104,16,21,72,205
402,498,-547,53,78,87,126,127,169,247
53,-226,-911,-157,75,80,110,95,136,100
-143,-534,-222,-70,-109,-52,18,-7,26,-16
-5,-227,40,8,-159,-95,-31,-60,-34,21
-49,-47,81,154,-94,-171,-230,-310,-274,-171
-358,-129,327,295,15,-199,-354,-501,-497,-454
-405,-115,505,129,3,-139,-253,-376,-391,-422
363,30,-424,-261,-63,23,214,225,289,294
268,4,158,178,-88,-50,37,5,54,93
-129,582,2024,814,-121,-455,-608,-736,-744,-600
124,1508,3420,1496,143,-369,-649,-841,-824,-578
999,1840,1277,499,198,139,120,58,188,435
-291,-1348,-1626,-691,-254,-24,249,257,251,70
-207,-1168,-1101,-374,62,255,472,474,411,202
-99,-901,-1651,-545,110,303,487,496,439,244
-24,-539,-1313,-560,121,259,416,456,372,245
8,-262,-795,-457,116,258,440,471,398,270
-72,-211,-498,-269,134,216,345,348,291,170
-188,-276,-427,-149,118,149,212,159,130,37
-336,-209,-73,36,-3,-49,-56,-142,-126,-193
-284,-145,272,115,-163,-264,-300,-370,-304,-314
-26,27,383,8,-218,-276,-278,-309,-241,-178
62,361,273,-111,-157,-196,-206,-212,-172,-73
-34,356,23,-272,-116,-170,-200,-229,-178,-121
60,545,309,-338,-98,-62,-33,-47,-47,-29
416,1067,973,-155,-77,76,187,209,237,246
0,-439,30,512,-220,-218,-134,-101,18,65
-387,-561,302,271,-359,-352,-318,-284,-240,-218
-539,-561,-85,133,92,36,-26,-38,-103,-235
-511,-714,-766,331,558,303,145,67,-44,-265
-19,-331,-858,356,425,186,7,-18,-64,-156
328,84,-400,150,122,99,8,33,2,42
342,174,-210,-145,35,130,110,151,136,198
219,-113,-112,-72,204,294,221,230,187,208
182,54,723,199,196,257,131,139,89,126
292,145,321,1,4,200,154,237,181,234
301,-95,-916,-505,-161,184,228,401,351,358
260,-9,-625,-504,-143,99,146,294,258,274
193,-46,-284,-211,-41,34,53,162,115,163
106,-89,-282,-70,89,66,1,59,-6,59
82,-48,-203,-85,74,82,-4,69,-2,63
196,188,95,-152,-42,28,7,105,70,146
316,611,611,-61,-69,14,28,124,125,224
312,871,768,104,106,96,70,144,127,210
61,405,259,192,308,90,-3,35,-33,3
-266,-398,-428,9,279,-51,-172,-168,-240,-257
-447,-707,-483,16,12,-206,-275,-299,-351,-390
-288,-364,221,405,22,-58,-82,-137,-158,-199
-307,-297,47,599,197,-83,-160,-271,-252,-305
-341,-72,-14,464,-36,-271,-374,-510,-457,-471
-172,60,18,143,-255,-260,-310,-408,-363,-341
154,34,-329,-297,-226,50,119,112,114,95
213,43,-430,-595,3,214,338,377,357,273
9,11,-117,-443,109,142,225,230,220,132
-26,52,314,-139,-29,43,120,156,190,94
24,284,720,-66,-279,-79,11,96,148,102
-51,594,1226,304,-159,-118,-135,-97,-93,-98
-157,581,1440,715,14,-121,-248,-278,-305,-263
-188,36,782,515,-80,-106,-197,-198,-187,-195
-147,-508,-388,-126,-69,58,30,64,76,-17
-3,-326,-753,-520,-105,49,35,77,86,43
-171,-288,12,-38,-85,-162,-248,-281,-261,-246
-53,-109,292,145,-99,-193,-233,-225,-161,-138
199,171,-608,-174,-141,-102,-17,114,200,192
100,104,-867,-313,-134,-48,52,174,215,171
-9,178,347,-30,-74,-33,-14,43,47,15
158,463,835,70,-127,-51,-12,34,78,75
228,581,367,-37,-143,-25,14,10,59,93
-14,-262,-842,-148,-8,58,124,117,106,79
-43,-431,-778,-148,74,125,229,244,238,145
26,-79,-193,-220,83,148,237,231,237,151
99,137,78,-120,177,151,207,174,144,140
100,104,-26,87,132,90,144,119,94,115
-72,-135,-52,205,54,15,45,26,16,2
-54,-44,85,132,28,3,-4,18,40,10
-47,119,458,50,-33,-39,-46,-18,0,-10
149,496,846,56,-200,-177,-147,-103,-41,42
237,496,742,194,-190,-134,-122,-94,-32,68
49,-157,-337,137,28,11,-43,-62,-54,-20
71,-475,-1193,-175,57,9,-35,-41,-30,9
271,-62,-844,-135,71,-20,-65,-66,2,107
203,292,-270,27,45,-117,-210,-263,-185,-25
-137,173,219,115,65,-72,-185,-286,-255,-191
-510,-149,795,166,243,82,-30,-155,-207,-335
-472,-168,740,197,373,151,86,-9,-70,-270
20,79,-401,-232,275,223,269,273,261,126
342,80,-1161,-663,39,165,269,317,353,335
143,-395,-768,-213,64,141,158,135,119,152
-41,-419,-205,19,64,105,116,80,78,50
-78,163,640,241,-149,-52,0,-17,43,10
-97,418,971,489,-219,-169,-125,-145,-54,-31
-259,202,596,391,-96,-171,-201,-231,-177,-159
-466,59,367,356,-55,-253,-340,-411,-398,-402
-114,469,594,281,-132,-244,-294,-344,-335,-282
482,914,453,-53,-36,66,91,86,87,195
252,-133,-570,-21,235,299,304,291,265,236
-360,-1350,-1233,181,267,180,190,157,119,-57
-331,-987,-789,-128,3,0,65,70,48,-66
-182,-380,-331,-334,-58,18,55,70,34,-22
-105,-180,-53,-225,-38,28,66,67,74,15
64,-119,-16,-230,-79,-24,-30,-32,-3,20
127,-24,-125,-459,-153,-149,-196,-231,-174,-81
50,42,-181,-699,-167,-126,-175,-201,-193,-126
-40,74,33,-303,-88,-50,-144,-112,-174,-146
-194,-87,359,612,24,-143,-300,-285,-306,-276
-234,251,1199,831,-42,-341,-520,-534,-461,-390
101,880,1611,195,-167,-244,-274,-211,-141,-54
519,869,571,-226,29,166,216,311,325,380
453,-120,-1107,-472,115,274,346,427,384,379
24,-801,-1124,-259,9,51,108,173,135,78
-101,-665,-724,155,26,-54,-46,-3,-31,-63
25,-187,-406,460,143,66,41,69,48,21
83,130,-169,392,268,238,172,201,172,108
-87,-30,-201,79,592,394,250,223,166,86
-36,41,408,-235,-173,-106,-101,-55,-18,22
124,226,426,158,-445,-220,-131,-77,-8,86
326,391,409,303,-466,-66,29,70,128,230
304,269,46,-124,-372,-26,94,153,186,243
229,115,-324,-431,-355,-65,93,178,186,240
39,-100,-526,-184,84,136,166,159,110,95
-155,-314,-522,97,400,233,118,79,-20,-64
-237,-218,45,194,188,3,-132,-139,-216,-188
-161,69,819,201,-51,-138,-203,-198,-216,-150
68,240,1059,211,-42,29,64,106,100,117
301,234,0,-321,-29,212,331,415,391,380
98,-40,-706,-532,-70,112,164,238,218,211
-303,-345,-322,-84,29,-24,-71,-83,-100,-151
-449,-272,51,68,-64,-218,-295,-316,-318,-329
-297,67,335,-7,-231,-343,-424,-414,-394,-308
-129,447,900,56,-250,-316,-421,-421,-406,-269
-215,622,1646,528,-31,-197,-346,-403,-407,-338
-314,389,1258,835,189,-76,-270,-383,-424,-409
-20,-54,-345,179,114,8,-56,-54,-51,-51
288,-383,-1732,-791,-109,-7,162,293,386,359
395,-364,-1588,-903,-170,-9,188,299,387,406
194,-112,-710,-372,-20,133,229,243,235,244
8,-73,-213,-118,26,167,218,156,119,126
172,-230,-265,-171,8,73,115,40,70,119
286,-78,-341,-160,29,18,62,26,84,157
237,521,531,92,32,13,67,76,83,162
324,937,1298,438,-38,11,59,140,157,254
166,320,878,459,-192,-80,-20,63,99,151
-139,-401,-6,90,-190,-141,-137,-130,-141,-86
-35,-97,-404,-287,91,-34,-89,-138,-162,-44
80,283,-185,-149,415,198,85,34,-36,68
-60,-14,-86,35,352,258,216,131,18,38
-279,-422,-170,42,169,136,124,63,-91,-116
-304,-560,-157,164,11,20,32,10,-138,-149
-81,-268,-170,108,-26,37,50,48,-39,-3
7,-110,-375,-109,32,105,110,90,30,56
-66,-225,-551,-194,113,124,85,57,-31,-29
-98,-178,-442,-172,78,83,61,56,-34,-50
-122,15,-89,52,99,77,73,25,-15,-79
-66,309,545,248,66,-18,-52,-101,-129,-102
35,572,992,103,-40,-138,-176,-192,-244,-111
148,573,428,-367,-109,-32,7,60,20,85
206,330,-272,-451,-131,84,183,298,266,264
2,-415,-621,-103,-77,124,193,306,256,204
-102,-627,-310,117,-2,80,76,158,116,96
-64,-393,-284,169,62,7,-64,-41,-78,-14
-148,-231,-296,118,31,-84,-165,-170,-203,-142
-203,-57,-51,54,-89,-183,-260,-261,-305,-235
-139,-89,-95,21,-110,-162,-202,-201,-260,-177
-133,-245,-323,-114,-42,-28,15,41,-28,-53
115,277,346,-140,-235,-62,-5,46,26,63
215,270,196,80,-96,-41,-38,5,7,98
139,171,28,228,-56,-10,-20,6,5,77
86,88,87,85,-189,-89,-31,-4,12,42
120,139,363,24,-194,-120,-36,-43,-11,29
184,363,560,100,-28,-69,-37,-59,14,43
0,111,67,206,295,29,-29,-115,-110,-123
-25,-175,-529,-11,490,192,107,-16,-82,-97
42,-372,-995,-308,682,354,237,137,34,-13
36,-213,-712,-220,674,286,154,70,-35,-58
-137,68,135,82,365,4,-163,-251,-325,-293
-346,350,1758,707,-87,-345,-543,-602,-615,-549
-307,563,3105,1897,-229,-388,-557,-585,-567,-499
-102,569,1675,1730,-73,-37,-84,-97,-102,-119
-90,-352,-1487,-205,-227,109,249,320,291,167
-78,-655,-1377,-1319,-610,-126,67,197,200,126
-14,-376,-587,-855,-420,-85,7,71,103,77
-188,-468,-820,-527,-23,62,55,52,47,-42
-377,-625,-848,-443,263,157,111,88,43,-131
-284,-415,-484,-511,109,87,112,169,155,-25
-38,-163,-354,-172,-17,127,222,296,281,144
221,-62,-411,142,14,170,311,351,348,289
351,48,-231,-49,-227,82,254,292,310,316
273,157,11,-167,-246,59,194,205,200,232
235,301,226,-147,-115,41,116,108,116,178
268,451,426,-78,-21,-5,26,16,58,162
203,347,369,99,22,-12,-26,-37,5,85
-61,-51,75,247,114,-3,-95,-161,-180,-144
-52,10,100,63,85,41,-20,-98,-125,-114
111,208,166,-100,-54,43,69,25,17,53
2,187,63,163,-95,-19,-3,-28,-33,-41
-51,279,157,58,-155,-79,-94,-108,-105,-112
118,388,260,-311,-120,2,-20,-14,25,37
5,-30,281,-111,28,116,70,32,33,1
-75,-124,528,394,85,58,20,-31,-24,-57
-50,-33,336,428,-25,-51,-51,-82,-30,-53
-162,-154,-116,170,-108,-130,-83,-103,-71,-102
-196,-214,-249,24,25,30,65,37,28,-50
-249,-348,-380,-187,7,34,60,25,4,-75
-262,-219,40,-52,-286,-279,-265,-283,-250,-245
-141,-19,394,67,-565,-533,-511,-491,-403,-320
-38,-84,90,-90,-517,-349,-277,-189,-137,-120
160,63,-134,-238,-193,-15,70,205,240,204
246,429,22,-189,-36,-43,-42,9,83,92
284,593,14,-306,17,-71,-143,-168,-134,-64
438,626,-53,-483,10,76,99,127,143,191
19,-276,-74,67,389,377,338,318,223,126
-164,-697,-95,380,541,407,314,259,116,11
120,-179,-305,102,343,274,280,257,203,163
192,75,-242,-18,160,135,147,149,177,181
-108,-195,-45,117,111,-2,-73,-84,-82,-81
-401,-449,123,146,25,-185,-301,-342,-360,-374
-331,-276,514,261,9,-219,-326,-354,-364,-360
79,175,651,451,168,-32,-99,-86,-78,-38
339,509,439,611,252,75,10,25,62,129
75,167,86,466,233,-22,-129,-161,-131,-73
-85,-71,716,280,79,-174,-269,-285,-242,-189
59,102,891,84,-106,-131,-126,-95,-49,-21
130,232,-218,-301,-280,-78,35,107,109,110
2,-55,-1078,-612,-309,-37,119,193,184,124
87,-18,-558,-548,-121,114,222,289,291,212
129,32,-448,-359,0,116,183,228,229,175
116,-127,-696,-362,-68,22,111,172,184,148
107,-306,-808,-345,-95,3,143,185,222,180
-81,-388,-592,-45,130,71,127,124,135,38
-160,-227,-250,84,324,185,181,175,148,13
-159,-212,-54,113,373,243,194,145,100,23
-48,-180,-78,81,276,171,129,76,63,36
-35,-33,378,173,172,57,54,12,27,-14
13,303,924,331,129,5,-20,-36,-16,-34
179,533,594,105,55,33,30,57,71,106
12,-38,-125,-201,-265,-233,-208,-185,-98,-24
-88,-78,86,-195,-249,-255,-247,-252,-185,-120
-121,-163,-356,-282,4,-19,-38,-53,-36,-66
-199,-273,-426,-41,173,82,59,23,1,-72
-155,-315,-411,87,200,75,25,-31,-63,-83
-349,-100,47,148,369,24,-165,-286,-331,-383
-149,497,731,326,377,-71,-285,-404,-370,-346
92,867,1660,488,137,-242,-365,-397,-306,-199
24,431,1633,611,-125,-276,-282,-277,-209,-138
33,-14,691,645,-83,0,58,69,85,62
-6,-440,-1008,88,-67,221,319,332,298,173
-86,-730,-1507,-493,-247,143,282,348,328,176
123,-281,-947,-846,-412,8,180,309,336,304
57,-189,-574,-397,-303,-82,30,132,153,184
-48,36,360,323,-180,-172,-157,-115,-98,-60
74,340,822,394,-66,-166,-187,-162,-144,-63
106,11,4,-11,255,80,73,82,62,96
95,-252,-731,-469,380,274,245,275,231,192
150,-104,-564,-563,14,107,102,167,140,148
235,156,-131,-250,-372,-132,-100,3,33,109
142,155,-201,-76,-308,-102,-87,-24,-9,56
-52,-44,-246,130,54,35,-4,-12,-14,-29
-188,-133,506,287,-13,-110,-147,-177,-149,-171
-248,-176,620,163,-90,-154,-205,-258,-278,-283
-175,-94,188,321,116,-56,-167,-210,-247,-232
-29,-106,-272,135,128,105,56,43,19,-15
-30,-97,-257,-156,-35,159,181,172,145,52
-129,21,250,-32,-84,46,36,21,-12,-78
-139,34,14,-77,-89,-69,-111,-143,-160,-165
110,157,-186,-81,-168,-146,-173,-176,-129,-67
355,507,385,-19,-199,-127,-121,-132,-71,45
161,194,-258,-320,-62,10,101,81,87,87
109,129,69,-93,-21,-32,38,12,44,45
277,643,442,87,237,153,175,177,201,232
251,218,-520,-76,469,352,296,319,305,271
-219,-804,-1249,-330,545,358,230,188,113,-28
-233,-601,-468,-405,394,230,136,91,42,-79
89,66,-50,-145,118,125,160,195,185,145
372,556,191,-56,-246,79,236,339,333,370
345,447,231,-1,-283,57,230,320,322,363
76,-126,151,228,-74,19,69,104,86,111
5,-170,221,263,51,21,-4,4,-24,11
182,287,197,13,-40,3,23,69,55,142
164,148,-153,-66,-218,-99,-67,-12,18,139
-35,-192,-47,91,-263,-182,-130,-140,-96,-13
-43,-26,325,51,-238,-183,-101,-141,-110,-48
-36,37,134,-140,-119,-61,29,0,-1,12
-292,-295,-298,-177,33,-11,0,-54,-91,-141
-770,-575,-240,20,56,-265,-387,-529,-555,-618
-1206,-483,728,415,-11,-610,-864,-1072,-1091,-1129
-1059,148,1797,772,-46,-626,-817,-994,-985,-1053
-263,1024,2214,747,-45,-425,-532,-642,-572,-490
440,751,1027,467,-67,-84,-81,-91,-7,153
672,-137,-834,116,-68,174,267,337,391,459
602,-334,-2060,-551,-243,118,304,425,493,498
265,-358,-1353,-556,-297,47,220,336,372,312
207,-92,-431,-336,-38,229,306,362,350,302
202,50,-89,-197,93,263,284,313,328,298
308,18,-224,-187,158,263,253,289,301,325
223,-129,-448,-213,196,250,232,251,217,234
-8,-231,-397,-116,255,255,251,202,130,95
-104,-129,-186,32,284,234,193,138,74,15
-28,20,-76,85,273,182,116,94,48,20
153,59,-216,-117,201,45,31,73,82,130
-19,-224,-399,-241,116,-25,-77,-73,-68,-53
-191,-319,-169,-117,-30,-35,-117,-125,-167,-195
-49,115,382,105,-159,-18,-21,1,-36,-43
-11,445,928,237,-68,68,97,124,106,56
31,484,775,251,57,137,187,224,229,166
241,492,66,256,132,121,182,248,280,276
137,127,-445,51,73,32,62,65,86,87
33,142,385,202,23,-129,-198,-305,-290,-212
244,689,1121,280,-213,-331,-441,-532,-447,-201
33,329,303,-106,-94,-108,-66,-68,-10,15
-125,33,47,-21,219,209,221,194,173,50
-386,-835,-639,71,374,266,173,83,1,-174
-243,-989,-1038,-70,271,166,89,23,-31,-127
-67,-296,-527,-48,107,26,-22,-46,-55,-73
-88,-181,-149,60,-55,-53,-77,-98,-121,-116
-104,-207,385,403,45,-12,-61,-118,-149,-133
-55,60,664,543,212,90,-27,-117,-135,-109
152,329,47,-118,13,75,41,8,19,84
388,193,-935,-745,-63,129,227,284,320,359
462,74,-904,-544,64,77,192,294,343,413
321,-74,-590,-323,55,-46,82,166,220,279
2,1,65,-179,-40,-39,62,130,154,95
-242,60,508,250,66,146,174,150,112,-33
-305,-27,679,734,53,171,168,124,89,-59
-353,-34,560,466,-70,34,64,34,21,-115
-286,-144,-6,-63,-173,-123,-46,-73,-72,-148
62,-20,-233,-398,-247,-193,-140,-177,-139,-64
244,194,49,-271,-245,-245,-294,-359,-316,-107
-19,-33,34,-31,-241,-301,-382,-462,-416,-273
-242,-324,-259,-63,-199,-206,-253,-318,-283,-284
-134,-174,-124,-237,-254,-123,-43,-12,30,-28
252,449,318,-388,-273,-46,129,264,309,313
231,407,426,-1,-2,98,175,247,267,290
-1,120,721,383,270,179,85,59,23,12
49,474,1329,264,382,197,-5,-80,-154,-115
243,732,729,-400,354,206,32,-33,-86,6
-35,-28,-785,-712,142,-1,-114,-144,-172,-141
-406,-479,-319,31,-161,-351,-406,-404,-389,-414
-153,-2,470,571,-193,-291,-300,-258,-188,-188
289,370,-95,419,-191,-114,-83,9,112,200
247,322,-504,159,-283,-260,-245,-191,-82,101
-5,-187,-398,-8,-362,-327,-297,-259,-181,-48
-117,-510,-264,-146,-203,-68,9,48,55,27
-118,-394,-326,-62,189,300,369,380,294,135
-45,-153,-243,-42,294,397,467,489,418,216
5,-27,86,-66,152,255,324,360,311,191
5,35,215,0,-47,64,141,183,164,114
-55,-148,-272,-97,-97,27,109,160,134,97
-128,-206,-522,-178,49,131,188,197,169,85
-160,-67,-329,-201,40,115,159,162,140,44
-81,222,20,-280,-141,-5,82,132,120,87
-52,306,273,-218,-156,-52,10,45,43,48
100,164,395,-78,-85,-99,-86,-84,-78,9
166,-30,77,49,-44,-118,-135,-154,-142,-26
-25,-170,-377,290,96,-155,-236,-284,-288,-204
-164,-36,-266,466,383,-118,-338,-449,-456,-367
-59,93,-182,196,434,-80,-352,-480,-466,-317
172,329,-66,-247,-25,-180,-294,-319,-257,-89
125,526,381,-253,-580,-358,-296,-236,-178,-79
-240,151,802,450,-604,-468,-430,-417,-401,-372
-498,-487,242,844,-160,-225,-294,-369,-440,-484
-236,-575,-367,124,43,132,177,142,67,-66
232,-142,-506,-521,-75,215,442,492,498,388
477,116,-425,-618,-63,245,479,569,603,553
313,68,-108,-274,77,241,363,400,410,374
113,240,569,269,280,262,274,257,216,178
260,484,476,244,294,370,371,384,335,301
130,-66,-569,-65,200,329,326,360,302,235
-46,-345,-475,-66,78,85,126,110,81,55
-44,-206,-470,-22,136,87,116,101,66,66
-161,-140,-257,-64,108,95,139,107,66,8
-201,-90,102,-63,67,57,79,29,0,-57
-188,-31,420,44,-5,-88,-118,-161,-157,-179
-210,59,642,200,-56,-227,-321,-415,-389,-324
-136,199,573,184,29,-192,-312,-428,-401,-291
21,318,217,-21,108,-36,-112,-195,-166,-71
57,269,296,124,56,-18,-62,-131,-106,-35
-72,-37,581,775,33,-64,-134,-179,-171,-126
-76,-315,392,778,-57,-80,-130,-113,-101,-50
134,104,-637,-751,-211,-195,-168,-75,10,104
117,276,-193,-567,-180,-175,-175,-149,-89,17
311,301,-55,-303,-199,-21,26,39,89,216
133,-63,-251,-38,-129,22,97,102,125,154
-77,-260,-2,179,52,27,80,68,63,4
-44,-191,832,449,103,30,89,97,93,25
-83,114,1085,484,57,-37,-32,-58,-70,-105
-27,476,121,60,45,-20,-91,-124,-136,-123
53,358,-467,-133,8,74,18,35,36,15
-80,-199,-180,175,-51,81,67,98,49,23
-156,-355,26,0,-166,-83,-89,-65,-81,-67
-89,-289,-377,-350,9,-102,-147,-134,-99,-63
-172,-538,-941,-151,415,77,-31,-46,-50,-86
-93,-418,-785,81,307,122,74,70,44,-20
-31,-18,10,282,-175,-105,-112,-86,-86,-83
-17,366,749,167,-397,-220,-214,-195,-169,-114
-68,367,530,42,-104,-63,-130,-134,-132,-101
-84,142,143,-59,22,-22,-87,-66,-59,-62
-222,-483,-121,-28,-69,-81,-66,-24,-17,-82
-93,-632,-457,70,18,97,197,214,192,110
154,-278,-835,-378,-45,180,354,413,399,333
147,93,-241,-442,-110,91,244,310,317,300
239,576,465,-436,-116,47,159,263,295,322
288,675,361,-327,2,78,141,249,322,338
21,-77,-315,-132,130,4,-39,3,43,71
-220,-693,-561,-118,158,-45,-139,-158,-167,-183
-173,-354,-312,-27,124,0,-56,-99,-106,-131
20,352,291,70,-27,-43,-74,-88,-72,-48
214,897,883,12,-89,-19,-53,-84,-74,-9
248,639,633,-180,-178,-24,-21,-41,-36,33
170,15,-50,-268,-262,-92,-77,-75,-57,-26
36,-427,-565,-255,-132,2,11,11,16,-19
-48,-415,-548,145,132,123,91,86,61,-8
-13,-251,-391,389,149,120,83,96,73,9
108,-154,-480,221,141,175,181,208,203,141
118,-104,-413,65,142,139,174,187,181,154
40,-91,4,172,112,21,12,5,-15,-11
7,-25,588,492,146,5,-74,-96,-141,-108
82,164,598,453,54,11,-17,-30,-39,-2
193,465,39,-87,-255,-104,-28,-3,49,129
89,259,-160,-597,-436,-201,-113,-57,2,86
49,75,34,-550,-361,-178,-144,-79,-34,41
24,-2,-175,-314,-238,-145,-155,-113,-75,-4
-79,-56,-69,70,-89,-60,-80,-96,-59,-42
-124,49,147,372,48,32,-11,-70,-48,-80
-78,89,43,277,36,-2,-32,-47,0,-78
12,177,5,233,84,0,-24,-38,5,-45
-439,-332,190,203,157,24,-135,-194,-239,-320
-338,-153,182,-200,108,1,-87,-53,-95,-175
-165,-2,-395,-422,135,101,68,128,92,-7
168,-58,-747,-290,27,138,142,223,208,165
649,211,-225,-121,-218,91,139,247,303,394
529,134,-101,-52,-229,-22,2,80,135,260
146,-53,-181,16,-51,-41,-79,-50,-33,24
-227,-222,-164,224,174,33,-72,-136,-166,-197
-444,-272,57,401,309,84,-73,-189,-271,-358
-279,64,318,194,160,63,-2,-74,-130,-196
-53,294,362,-55,6,11,36,19,5,-1
13,321,738,147,-71,-56,-27,-58,-76,-32
-230,346,1821,694,-26,-124,-192,-275,-326,-298
-218,812,2352,800,45,-167,-284,-361,-403,-363
296,932,904,122,20,56,85,150,144,181
277,-222,-1217,-391,4,233,387,483,462,418
-239,-1313,-1678,-249,74,167,250,268,214,82
-187,-741,-746,-56,-46,-59,-25,-5,-32,-65
13,-190,-377,49,-105,-130,-124,-108,-110,-46
98,-39,-258,59,-147,-199,-270,-259,-211,-91
60,124,155,202,-133,-320,-449,-456,-387,-221
55,397,503,246,-99,-266,-370,-353,-328,-168
96,348,323,61,-50,-16,-2,40,12,66
52,-55,-328,-255,10,217,327,385,341,254
-215,-499,-769,-248,91,208,303,344,283,108
-190,-238,-388,-32,21,32,47,54,55,-38
256,-14,-351,-321,-12,139,145,161,161,166
208,-30,153,-180,120,187,143,83,52,98
-36,-187,172,28,242,158,93,5,-22,-28
-28,-149,-395,-162,160,124,121,78,63,23
-81,-329,-892,-430,-79,-24,15,53,54,-4
-27,-305,-698,-441,-141,-75,-12,42,56,0
228,25,-402,-190,-23,82,124,165,177,178
377,420,137,-39,-145,20,77,154,214,250
272,425,524,-82,-199,-70,-12,65,117,167
-55,-68,-79,37,80,13,-29,-26,-43,-52
-372,-496,-485,283,312,80,-50,-124,-187,-270
-409,-565,-434,145,216,33,-61,-118,-173,-265
-131,-350,-299,60,258,123,86,59,41,-14
108,72,381,119,405,115,48,15,45,74
71,566,1336,308,390,-38,-159,-251,-200,-97
34,1085,1906,348,14,-264,-369,-476,-398,-250
202,1320,1881,17,-535,-375,-321,-342,-241,-90
227,673,813,-360,-569,-156,-10,11,70,123
-30,-255,-297,-639,-423,-115,-33,-9,-8,-26
-51,-430,-325,-455,-292,-95,-46,-27,-27,-60
-177,-360,70,-46,-60,16,10,-10,-43,-123
-231,-403,-66,185,12,17,0,6,-7,-99
-214,-453,-331,28,131,60,64,100,109,-29
175,157,-303,-346,104,141,238,297,334,239
319,-39,-752,-112,111,208,295,358,370,330
47,-788,-1361,155,151,216,251,263,229,179
-19,-572,-929,110,84,117,138,128,117,80
-20,-203,-461,21,-10,1,5,1,37,10
-9,250,280,51,-85,-109,-145,-140,-90,-75
109,897,1089,150,-199,-286,-368,-377,-296,-167
72,1049,1010,226,-131,-400,-595,-657,-584,-376
-245,6,-424,176,241,-217,-411,-524,-512,-444
-226,-767,-1231,41,473,143,123,84,38,-93
94,-694,-874,-195,229,284,431,463,449,283
256,-340,-202,-148,-250,180,425,475,496,378
323,94,74,-232,-345,91,322,354,389,333
144,-128,-140,-72,-7,157,282,246,225,164
-110,-180,-10,286,217,138,126,34,-14,-79
-252,-32,529,542,191,25,-30,-158,-212,-231
-231,-150,412,500,85,-27,-43,-130,-193,-206
-146,-67,171,71,-99,-96,-83,-108,-158,-164
-98,228,550,45,-179,-190,-173,-188,-189,-170
208,716,1109,191,-194,-199,-163,-116,-66,42
456,572,190,-232,-203,-70,50,164,234,352
50,-257,-588,-122,13,54,101,126,119,117
-215,-431,-597,150,301,147,101,7,-60,-120
-183,-194,-98,435,410,138,44,-96,-157,-166
5,74,109,249,318,112,47,-53,-64,-25
85,143,-93,-165,182,99,109,64,51,79
34,-7,-371,-430,-30,36,116,132,112,109
4,-64,32,-145,-144,-19,42,85,72,88
-120,-159,816,382,-79,-53,-48,-34,-33,-24
-94,93,1045,362,-52,-53,-9,-44,-31,-53
33,540,467,-128,-120,-29,52,28,45,-6
50,479,-277,-348,-53,-14,65,25,9,-20
92,-156,-1093,-320,30,83,172,139,109,60
-91,-944,-1469,-181,52,117,213,182,139,36
28,-520,-805,-186,-96,-1,79,101,100,84
34,8,-61,-128,-134,-93,-52,-30,-23,11
-176,87,294,96,-61,-151,-193,-197,-218,-213
-282,126,640,267,-23,-211,-298,-332,-359,-343
-90,378,853,154,-117,-200,-238,-237,-233,-164
273,820,724,-212,-269,-85,55,133,207,270
360,615,137,-320,-123,100,243,347,389,403
288,-15,-356,-224,42,150,223,288,299,310
25,-461,-490,3,105,68,62,51,70,72
-283,-658,-586,213,121,-56,-134,-212,-189,-235
-214,-346,-463,81,44,-103,-169,-200,-166,-211
-113,-142,-235,-56,26,-63,-136,-140,-123,-125
-34,-82,-113,-8,116,32,-47,-51,-66,-41
117,110,38,94,209,139,77,81,70,98
169,228,236,211,230,178,118,131,139,140
30,108,363,282,158,77,6,14,34,23
-237,-255,168,257,177,26,-76,-93,-99,-163
-254,-373,-130,152,274,113,-5,-22,-54,-138
-195,-345,-485,-5,259,191,119,85,32,-65
-136,-190,-606,-355,-13,23,33,49,27,-39
-110,250,149,-575,-341,-197,-119,-85,-76,-92
-117,538,1158,-218,-299,-228,-170,-155,-122,-108
-127,260,1051,114,-116,-149,-129,-96,-72,-56
83,32,238,-89,-29,-55,-22,28,53,92
48,-377,-828,-236,78,6,40,76,84,99
-71,-134,-134,299,119,-34,-43,-97,-89,-73
-19,167,454,564,-52,-86,-89,-154,-137,-82
239,323,460,115,-318,-83,21,43,86,167
290,281,211,-360,-243,68,180,212,226,272
93,54,-25,-172,18,152,169,150,130,127
142,30,-340,-146,30,102,140,131,126,151
148,-139,-548,-78,40,56,102,127,123,151
173,109,-161,117,11,-42,-1,26,64,126
128,285,277,267,-72,-124,-122,-95,-48,25
-43,-16,-65,157,0,-73,-111,-108,-111,-78
-143,-262,-491,-166,107,61,46,23,-16,-75
-118,-159,-370,-298,143,161,123,126,86,-4
-87,-136,-252,-238,81,129,123,145,118,50
-95,-190,-137,-113,-36,19,21,64,73,7
15,-73,-73,-98,-100,-23,-15,30,74,41
161,177,-45,-144,-13,-4,-12,44,90,100
18,292,114,-74,96,-2,-28,-5,-1,-2
-84,200,257,20,95,56,45,74,56,1
-118,-175,139,88,-3,24,19,50,39,-17
-94,-136,406,181,-97,-138,-170,-174,-164,-132
-106,145,620,232,78,-173,-313,-370,-356,-269
-169,81,5,63,231,-130,-329,-398,-388,-324
-283,-256,-583,-326,96,-46,-143,-169,-184,-253
-333,-185,-85,-316,-95,14,20,46,4,-148
-211,166,375,-37,81,83,47,53,-4,-73
-201,-11,30,27,381,166,56,4,-61,-117
-195,-407,-368,218,348,133,-2,-66,-104,-175
122,-113,-145,372,28,25,-16,-29,-13,-7
458,847,1018,391,-192,25,120,161,229,284
172,27,-399,-389,-70,137,228,276,296,230
-106,-685,-547,-298,-157,-50,-36,-25,-46,-78
-152,-476,-58,33,-213,-136,-134,-147,-192,-166
-304,-326,428,584,-175,-292,-294,-345,-365,-350
-131,-156,759,918,-104,-373,-416,-472,-447,-347
333,204,585,344,-297,-294,-257,-206,-112,57
472,356,214,-151,-261,-147,-103,-21,91,238
350,395,339,-137,-118,-92,-140,-112,-51,95
364,293,-152,-559,-149,-5,31,58,95,173
286,22,-789,-776,-163,69,214,265,289,275
18,-180,-856,-443,2,103,194,211,194,138
-256,-218,-449,-12,164,144,140,97,65,-60
-373,-351,-101,119,102,90,89,64,25,-107
-281,-239,49,73,-7,33,47,61,25,-64
-108,-115,-156,-72,-4,117,168,207,178,101
-95,-111,10,161,54,137,145,179,158,72
-28,-7,578,654,51,-16,-121,-128,-139,-102
-76,126,837,832,51,-98,-249,-278,-303,-221
-40,310,797,583,165,60,-23,-25,-77,-65
219,419,140,-30,251,247,266,292,255,255
589,514,-646,-882,-28,170,301,417,451,539
247,-175,-747,-981,-131,51,127,249,273,302
-39,-507,-495,-594,71,89,94,175,189,137
-41,-469,-729,-348,88,76,93,144,150,117
6,-251,-499,34,14,22,31,51,62,69
102,38,-122,131,-177,-15,9,52,68,105
136,39,-112,53,-224,-53,-2,17,22,87
139,0,-178,241,-37,7,31,3,-6,63
90,99,-12,435,138,73,74,-1,-33,30
30,123,109,334,185,94,75,14,-25,10
-40,7,106,181,101,39,45,-3,-28,-19
-60,-4,39,-33,-12,-18,49,-26,-28,-24
-64,80,129,-155,-26,-18,25,-32,-47,-33
-119,128,372,-26,9,0,-12,-48,-70,-77
-132,131,425,49,19,17,15,-39,-52,-81
-106,-48,103,124,24,23,33,-34,-65,-71
-30,-97,-102,185,48,27,49,-35,-56,-36
114,26,-205,29,2,44,85,43,50,84
172,120,-124,-101,-70,5,48,53,86,107
29,46,12,-16,-40,-65,-62,-84,-77,-30
-23,-22,6,-23,-55,-96,-101,-95,-79,-35
-48,-51,-23,-104,-55,-93,-102,-78,-81,-43
-192,-147,-32,59,111,-26,-85,-137,-176,-178
-320,-235,133,393,258,12,-128,-245,-294,-318
-308,-88,522,507,190,-79,-252,-383,-403,-390
-84,248,723,183,20,-67,-163,-235,-233,-209
96,259,283,-296,-115,-76,-64,-68,-40,-5
87,-114,-333,-278,-204,-113,-45,-3,14,42
170,112,-83,-101,-249,-68,65,116,116,141
384,556,-2,-141,-124,73,253,304,328,354
407,342,-473,-286,-58,113,290,345,388,413
146,-269,-385,-187,-82,7,107,136,153,175
84,-210,-44,-98,-101,-51,-23,-13,2,42
154,227,67,-183,-110,-29,-21,14,44,96
74,364,354,-101,-92,-49,-63,-5,15,78
-220,-22,352,246,72,-17,-98,-103,-126,-106
-462,-542,-115,313,183,25,-65,-104,-146,-226
-387,-457,-438,-23,153,64,43,18,-22,-133
-212,-253,-560,-319,226,168,140,165,139,28
-24,-96,-423,-157,253,156,149,187,191,135
37,60,-77,86,168,100,105,138,181,140
102,3,160,-74,-161,-5,-7,31,27,36
27,16,175,-194,-174,-38,-31,20,17,-5
-55,-3,118,-152,-160,-69,-1,38,37,-12
16,-103,-117,-118,-71,-20,5,32,9,18
41,-121,-145,-120,134,8,-86,-98,-125,-34
-46,-32,30,-151,310,-22,-214,-246,-257,-169
-6,155,483,-13,174,-193,-362,-366,-335,-222
-43,276,1215,584,-90,-368,-520,-527,-447,-300
-59,424,1565,970,-370,-433,-551,-550,-459,-297
42,521,1323,531,-557,-397,-431,-396,-312,-167
191,266,16,-162,-533,-278,-243,-162,-84,28
171,-127,-1049,-472,-423,-96,9,102,120,145
-63,77,-629,-458,-191,-18,52,75,47,-31
-264,414,346,-88,210,80,78,20,-30,-189
-27,670,920,333,395,270,294,268,239,111
338,420,-80,-15,219,344,462,513,522,457
69,-579,-1360,-286,180,369,452,477,417,270
-275,-975,-948,-185,127,311,331,300,196,6
-27,-460,-402,-82,58,184,200,199,156,91
119,-264,-287,-11,55,112,132,157,140,132
79,-213,-252,91,82,104,121,159,145,118
-31,-157,-101,322,84,30,29,54,39,22
-144,-129,228,585,107,-28,-82,-109,-129,-119
-73,28,425,477,77,-12,-98,-108,-128,-90
35,170,423,80,23,21,-26,4,-8,19
86,113,92,-356,-114,-30,-12,6,44,49
187,199,-109,-440,-110,1,66,57,117,119
256,356,-277,-375,-52,57,127,110,138,185
187,185,-518,-235,-8,38,69,49,54,124
-163,-236,-260,239,139,-51,-168,-231,-255,-204
-520,-505,582,731,139,-258,-485,-579,-603,-552
-416,-76,1674,900,-14,-369,-543,-618,-603,-526
68,853,2272,872,25,-205,-347,-388,-350,-209
495,1181,596,161,51,38,-17,-13,29,195
320,31,-1756,-672,11,158,184,232,255,312
-208,-947,-1447,-439,49,62,85,107,91,9
-158,-621,-621,-250,60,53,120,152,137,59
43,-266,-645,-264,157,188,259,316,313,233
40,-271,-656,-331,47,169,285,377,357,271
52,-81,-243,-364,-106,78,233,307,299,247
97,199,98,-321,-79,93,208,244,244,217
227,333,88,-388,-10,114,216,235,251,255
223,188,-175,-236,160,161,216,204,215,227
-75,-325,-356,13,151,78,86,49,34,26
-177,-400,-217,36,-19,-36,-3,-11,-41,-39
-187,-179,46,-29,-73,-64,-15,-49,-76,-72
-150,-32,202,-114,-52,-53,4,-63,-61,-56
-91,48,66,-158,-64,-95,-67,-111,-68,-41
-209,-90,-97,-15,-84,-182,-192,-239,-214,-180
-426,-308,406,282,-43,-136,-141,-229,-214,-321
-270,38,556,182,-47,-117,-125,-207,-198,-264
368,205,113,103,-292,-213,-137,-122,-52,86
153,48,-18,-14,-209,-121,-90,-66,-20,29
-35,-96,-301,56,117,72,45,54,60,0
-57,12,-308,-28,270,164,101,99,107,19
34,142,-68,-239,108,108,52,32,95,34
127,253,130,-107,0,-39,-108,-152,-95,-56
211,274,-48,63,61,31,-39,-68,-60,16
94,-122,-328,245,179,109,67,46,35,25
-39,-261,43,418,196,43,-19,-43,-38,-61
8,-83,149,-69,283,53,-18,-29,-8,-2
21,-137,-169,-559,538,122,31,7,-14,1
76,-41,-180,-582,501,172,110,65,36,26
298,526,720,26,-148,-86,-38,-24,20,86
411,1070,1943,781,-737,-282,-199,-133,-75,101
370,1075,1599,633,-494,-137,-62,-13,13,159
93,530,345,345,-81,33,77,80,53,86
-89,-247,-877,-116,-85,59,110,135,88,62
-150,-830,-1463,-405,-152,54,153,183,150,80
-178,-688,-737,-202,-101,-3,55,46,15,-47
30,-215,-351,-29,-29,10,56,50,55,26
95,-234,-617,111,60,61,102,84,83,88
22,-275,-595,137,80,89,135,106,80,65
3,-75,-202,-117,-63,63,143,122,128,81
-57,-47,-12,-259,-142,-12,58,37,48,42
-95,-138,-51,-178,-122,-57,-2,-40,-25,-19
-189,48,311,211,-6,8,7,-40,-50,-111
-218,208,577,278,-108,-152,-177,-241,-240,-228
-182,52,296,13,-259,-315,-279,-315,-289,-256
47,-151,-352,-384,-115,-157,-92,-66,-59,-22
59,-206,-623,-372,270,112,92,79,54,48
-115,-154,-321,-22,315,91,56,-6,-36,-89
-45,52,210,223,-23,-73,-46,-66,-63,-90
-40,127,746,212,-230,-177,-157,-164,-164,-143
100,481,993,-56,-246,-164,-146,-93,-76,-21
270,603,436,-297,-107,29,79,141,140,182
118,-65,-576,-274,73,157,220,217,177,136
-63,-474,-718,-42,110,92,139,110,82,10
-178,-277,-230,458,253,43,-80,-160,-193,-215
-98,-99,61,307,248,92,-30,-89,-131,-150
136,230,371,29,58,66,63,98,132,107
98,119,405,60,-14,43,66,129,171,134
-262,-189,584,338,82,0,-92,-107,-127,-182
-499,-132,916,647,194,-71,-237,-334,-388,-435
-612,42,1266,908,158,-173,-400,-509,-558,-580
-426,381,1032,753,-21,-214,-369,-417,-420,-436
104,835,1074,338,-125,-180,-270,-257,-158,-108
658,734,42,-1023,-401,-132,-38,76,264,370
470,-311,-1196,-1176,-366,-10,154,268,379,375
91,-297,-493,-258,-100,5,26,70,119,81
-51,54,-16,252,19,-70,-129,-123,-83,-104
-165,-460,-695,42,-25,9,26,59,84,-61
-280,-976,-1363,-205,96,153,167,189,164,-54
-168,-639,-1118,-201,260,284,249,260,191,19
-62,-293,-742,-338,224,320,302,345,255,97
70,-7,-298,-494,94,152,137,239,197,107
194,68,5,-405,15,35,11,105,107,101
227,19,-23,-12,20,40,51,73,77,133
248,196,49,123,-100,-7,93,129,158,204
234,578,422,-46,-187,-87,12,55,101,158
153,658,784,-41,-108,-58,15,28,22,78
63,89,177,-6,-127,-111,-21,-18,-24,10
149,213,816,189,-9,72,122,73,40,70
311,153,-381,-28,104,157,202,189,172,208
149,-412,-1336,-219,82,39,74,65,74,87
47,-288,-729,-198,-92,-116,-61,-68,-15,0
-96,-101,-380,-28,-153,-192,-167,-166,-108,-106
-295,-244,-144,204,-24,-97,-123,-125,-121,-185
-431,-215,147,221,76,-11,-52,-87,-134,-258
-266,192,491,111,78,26,1,-56,-59,-165
135,257,179,-152,46,130,168,173,210,172
212,-41,-247,-246,49,182,260,300,328,296
