28,24,15,-24,-7,-15,24,-14,6,24
3,0,-43,-22,-21,-57,6,-34,2,9
-46,-82,-137,-72,-44,-86,-40,-63,-20,-42
-56,-83,-75,-59,-42,-82,-80,-61,-35,-57
-31,-42,27,-24,-15,-53,-48,-46,-16,-47
12,17,98,-10,6,-33,4,-27,14,-13
81,79,105,9,33,-10,39,5,46,25
87,81,23,17,53,18,25,21,48,35
67,58,-25,14,44,24,6,21,46,31
71,55,-8,20,27,8,4,6,41,18
60,28,25,19,32,-8,-1,-6,9,8
54,44,41,8,34,-11,-16,-8,2,2
47,46,24,12,24,7,0,-11,2,4
0,15,-9,20,21,18,33,-15,-5,-12
-11,2,-28,14,28,20,63,-22,-17,-14
0,13,-27,-4,18,11,63,-18,-16,-18
11,55,7,-1,-4,20,81,54,77,-4
-14,-10,-78,-11,-2,12,57,24,17,-19
0,0,-99,0,-1,4,56,36,10,1
21,18,-35,11,16,-15,39,19,17,16
20,20,-62,15,5,-10,11,-6,8,20
24,38,-35,15,-13,-2,-11,-9,7,22
24,52,24,20,-23,11,4,-1,8,25
10,38,-9,35,-36,-6,1,-12,-7,16
-17,3,-53,16,-69,-41,-31,-43,-43,-10
-57,-44,-86,-38,-120,-73,-73,-81,-68,-51
-72,-50,18,-32,-91,-78,-105,-87,-66,-56
-76,-30,129,8,-29,-58,-112,-91,-77,-46
-58,-16,147,44,25,-27,-97,-73,-64,-36
23,74,133,51,61,27,-23,20,39,42
72,138,94,36,67,47,22,71,86,97
40,47,-8,0,38,14,-3,27,22,59
8,-11,-89,-36,36,0,19,43,27,53
19,0,-77,-35,47,7,41,54,30,59
35,27,-31,-7,38,14,53,31,8,53
18,22,-36,17,32,0,47,11,-16,39
17,20,-85,12,27,-23,9,25,-3,32
40,53,-37,4,13,-2,36,48,32,50
43,24,-17,-22,-1,22,44,37,7,53
34,25,-3,-23,-5,19,22,39,-6,57
18,27,36,-6,-7,-7,-9,20,-15,36
-20,19,96,25,11,-5,-34,-8,-31,-2
-29,-13,7,8,9,11,-41,-4,-25,-13
-23,21,-62,15,11,-9,-31,-5,-15,-4
-12,6,-81,26,5,-12,-20,-17,-20,-7
-11,-23,-58,9,-16,-12,7,-19,-18,-16
-24,-36,-10,-5,-32,-24,25,-10,7,-19
-51,11,20,-11,-31,-43,-9,-22,3,-23
-82,0,9,-25,-17,-38,-3,-17,5,-31
-131,-10,41,9,12,4,28,20,12,-31
-129,13,89,46,40,29,70,72,83,-10
-52,19,54,14,18,0,10,43,60,3
16,-13,19,-25,-16,-37,-50,-15,-14,-10
-27,-33,36,-6,-11,-49,-48,-19,-27,-33
-33,-29,53,4,-10,-37,-46,-18,-44,-19
80,-11,46,-8,-17,-23,-35,-21,-37,3
116,-29,23,-2,-18,-8,-32,-1,-17,16
62,-23,-39,-9,-24,-2,-20,18,0,-3
15,-30,-89,-22,-15,2,-23,5,-10,-17
7,-29,-62,-38,-4,17,0,18,14,9
13,-30,-15,-11,1,7,7,10,-4,2
-5,-38,25,11,-9,-13,-9,1,-26,-22
-26,-31,51,11,-20,-20,-34,-19,-38,-47
-27,-26,31,-6,-32,-48,-37,-33,-44,-56
-58,-49,27,-39,-58,-72,-62,-40,-47,-65
-76,-47,78,-8,-45,-66,-51,-39,-5,-66
-45,-8,103,50,-3,-16,-1,-15,77,-26
-1,9,31,42,-19,-32,9,-7,13,16
50,14,-5,8,-6,-15,32,13,24,42
75,-1,-50,-1,28,8,57,24,53,54
24,-2,-7,-65,-26,-31,-12,9,46,26
1,-24,16,-24,-32,-41,-61,-6,40,4
-5,-46,-2,-7,-30,-46,-75,-7,-6,0
-32,-60,-13,9,-18,-39,-62,-14,-40,-11
-72,-91,-46,9,-15,-48,-52,-46,-74,-58
-103,-127,-99,3,-22,-55,-61,-76,-110,-101
-76,-85,-127,-49,-25,-39,-60,-54,-97,-71
-16,16,45,-43,-10,-11,3,13,-46,-12
43,118,221,17,43,43,120,98,67,49
58,63,198,38,89,92,147,125,93,82
59,18,30,21,92,104,138,128,93,105
46,-10,-81,8,65,88,107,100,66,96
8,-47,-53,16,41,69,75,74,48,67
-19,-85,-33,33,38,36,33,52,21,26
2,-51,-35,46,37,16,5,34,12,17
65,70,15,56,28,8,35,37,45,48
72,85,43,64,17,-4,24,18,23,38
39,18,18,31,5,-25,14,-8,-22,19
35,-7,0,4,0,-23,25,-20,-38,12
24,-1,0,0,9,-19,11,-28,-49,-5
8,11,-1,-8,-4,-3,2,-20,-39,-2
-12,10,-75,-5,-10,7,0,-8,-24,-5
-10,20,-25,0,-3,15,3,3,1,-4
-24,16,16,2,0,19,10,10,6,-5
-30,-17,18,-18,-3,6,7,-10,-13,-18
-6,-16,3,-28,-14,-3,16,-5,1,-17
-1,-18,-18,-42,-21,13,18,-1,-4,-14
9,-9,-25,-47,-10,6,16,9,-2,1
0,-24,-32,-43,1,-6,4,9,-27,8
14,-11,-27,-24,7,2,2,8,-28,13
28,7,-26,-18,6,1,2,17,0,10
15,-28,-32,-26,7,-17,-25,4,-22,2
29,-36,-39,-22,11,-20,-49,0,-31,-7
39,-29,-49,-9,3,-24,-71,-7,-32,-21
28,-19,-19,-10,0,-3,-65,-9,-26,-22
28,0,-3,-11,2,-12,-34,-13,-19,-26
32,16,9,-13,-3,-16,-38,-23,-19,-29
22,26,34,-6,-6,-12,-19,-5,-1,-14
24,70,37,2,-7,18,11,38,25,-6
20,48,16,1,-3,29,7,19,-8,-14
15,0,-20,-20,6,10,-14,-19,-39,-27
15,-2,-30,-11,19,-1,-14,-38,-34,-24
13,-16,3,21,9,5,-37,-37,-39,-27
-10,-20,76,82,13,-4,-54,-55,-48,-37
-27,4,119,134,13,-19,-50,-76,-58,-50
-40,-18,96,109,-21,-38,-76,-94,-83,-75
-56,-60,-12,2,-78,-70,-105,-104,-98,-71
0,-45,-113,-128,-110,-58,-72,-41,-15,-2
28,-26,-118,-177,-115,-41,-32,-7,8,29
4,-9,-71,-121,-52,-10,12,3,6,25
51,25,-19,-48,47,69,101,63,65,75
85,49,-41,11,93,109,127,80,77,88
72,38,-114,45,78,99,112,65,70,59
51,17,-133,54,50,85,80,54,61,41
36,-1,-115,36,26,64,33,37,51,38
22,-3,-16,21,22,51,34,36,43,40
6,7,37,7,20,57,32,30,54,30
-10,26,42,-3,27,51,2,25,31,4
-15,25,41,0,30,31,-12,16,0,-6
-28,26,47,6,34,29,11,25,-8,-15
10,99,64,28,31,37,50,57,52,22
54,137,78,32,22,24,57,49,67,52
28,56,65,29,16,4,33,5,1,12
0,6,33,20,3,-6,12,-8,-22,-11
-5,0,-28,9,-14,-16,-11,-18,-22,-11
-28,-12,-140,-1,-7,-6,-20,-21,-13,-6
-40,-14,-135,-14,-15,-3,-22,-23,-31,-5
-37,8,22,-15,-26,-37,-42,-44,-37,-19
-44,10,103,11,-15,-36,-38,-40,-50,-40
-48,-3,139,40,3,-10,-35,-34,-60,-50
-48,12,193,57,-7,-29,-53,-44,-47,-40
-57,12,171,68,-25,-49,-71,-78,-68,-63
-75,-8,68,51,-46,-78,-95,-125,-108,-105
-77,-19,24,20,-77,-94,-116,-144,-129,-117
-81,-11,128,35,-67,-73,-102,-116,-113,-94
-27,55,164,57,-25,-18,-40,-18,-9,-20
12,23,14,9,0,22,27,55,57,30
40,-28,-197,6,54,65,81,90,68,65
112,48,-293,-42,81,90,132,121,111,119
160,108,-167,-185,43,80,121,146,148,163
106,66,-71,-190,26,45,56,97,122,120
15,-9,-141,-94,58,47,30,30,14,26
-26,-10,-114,-6,43,26,12,17,-9,-3
-25,-23,-90,79,46,-1,-12,-5,-28,-17
-5,-35,-7,150,63,-4,-7,-24,-33,-5
17,-2,44,159,65,25,12,7,9,37
11,16,68,131,57,44,8,6,6,28
-31,-22,13,-45,21,-5,-12,-45,-22,2
-28,-3,70,-70,-2,-32,-62,-62,-26,-16
3,38,103,-45,-26,-46,-89,-68,-17,2
34,41,42,-89,-62,-43,-50,-20,17,64
26,-11,-105,-163,12,52,50,45,60,88
27,-34,-150,-152,64,62,47,38,48,75
41,-22,-84,-125,9,3,-11,13,27,67
-14,-62,-51,-73,35,29,3,13,22,11
-39,-34,-5,12,54,18,11,23,14,-18
-13,57,63,26,-43,-22,3,56,47,10
6,137,134,31,-114,-26,-1,62,53,34
-53,85,164,73,-45,-21,-6,-4,-9,-20
-94,-15,91,117,-3,-37,-42,-96,-99,-75
-104,-102,-118,61,-34,-79,-89,-147,-144,-93
-202,-181,-136,98,52,-83,-155,-236,-221,-193
-326,-211,11,299,229,-54,-222,-347,-336,-326
-326,-182,19,364,315,22,-165,-321,-312,-340
-264,-150,19,253,328,92,-86,-235,-216,-275
-264,-158,119,170,209,24,-132,-246,-244,-288
-168,-46,270,32,-77,-104,-162,-183,-173,-175
-32,62,145,-372,-122,-137,-101,-80,-28,-34
-81,52,241,-164,136,-97,-91,-116,-84,-101
-95,68,386,374,239,-32,-56,-73,-81,-107
102,238,293,255,33,44,33,103,105,99
208,260,29,-191,-306,-12,-6,163,199,217
105,107,-238,-474,-508,-186,-160,100,93,110
-32,20,-408,-585,-312,-170,-133,115,-35,-61
-87,-12,-262,-433,34,-7,34,162,-72,-114
-157,-107,-13,32,124,21,60,100,-96,-150
-87,-202,-220,152,109,43,117,106,36,-17
50,-249,-559,-33,62,66,276,198,197,183
0,-192,-276,306,-89,-72,231,86,55,60
-48,-11,52,644,-158,-190,-2,-109,-112,-88
-13,166,126,270,-149,-122,-161,-197,-162,-92
-28,201,306,-49,-208,-31,-144,-160,-150,-90
-51,183,568,129,-246,-85,37,142,-60,-69
85,199,557,405,-115,-12,329,533,156,101
210,153,298,384,111,114,524,774,345,277
21,-112,127,223,184,77,475,908,212,91
-211,-341,-27,193,353,103,407,876,40,-141
-196,-359,-354,-117,442,194,448,592,54,-111
-90,-235,-534,-433,274,170,464,225,79,-46
-61,-148,-297,-388,403,174,249,-264,-43,-81
-147,-179,-158,-165,747,315,65,-648,-192,-200
-144,-227,-295,0,770,380,33,-645,-175,-187
-76,-257,-543,-228,857,501,59,-483,-56,-72
-67,-164,-282,201,654,457,53,-456,-75,-87
64,101,217,577,-99,183,118,-315,19,2
129,115,215,197,-298,92,208,-174,118,81
43,126,408,-1,-294,-23,-77,-330,-69,-76
-90,0,213,114,-189,-90,-164,-413,-174,-202
-137,-123,-79,80,-37,-93,-51,-328,-176,-223
-194,-191,-251,224,51,0,5,-260,-180,-276
-225,-200,-343,288,228,177,17,-201,-139,-271
-55,-126,-298,-212,430,357,-43,-48,79,-48
86,-30,-228,-259,541,370,-144,46,211,107
261,146,47,276,49,-30,-213,147,329,249
467,334,257,310,-405,-421,-305,216,456,408
528,465,365,175,-363,-521,-415,129,424,426
477,449,257,-255,-514,-549,-341,118,381,389
384,319,78,-558,-657,-540,-65,281,414,353
237,171,-9,-597,-558,-355,118,305,342,232
-17,-18,21,-246,-182,79,-7,26,36,-47
-200,-111,87,161,177,232,-274,-252,-206,-280
-260,-127,150,364,294,78,-424,-383,-330,-374
-226,-159,-13,218,462,124,-334,-321,-284,-323
-38,-69,-141,14,626,346,-83,-73,-36,-103
173,71,-123,-339,375,358,109,163,209,157
283,144,-172,-478,200,280,190,291,359,296
344,286,98,-243,-269,56,102,286,397,338
252,259,215,-271,-578,-187,-79,104,189,190
39,62,96,-265,-97,-133,-155,-74,-51,-41
-204,-164,-79,-33,478,11,-207,-240,-268,-292
-459,-407,-277,240,943,170,-213,-369,-472,-512
-632,-571,-222,879,1250,315,-188,-415,-569,-659
-834,-657,-74,1636,1529,366,-250,-550,-760,-891
-833,-569,9,1706,1367,359,-226,-530,-774,-901
-436,-244,172,1402,576,245,-111,-269,-457,-528
259,281,339,222,-147,84,86,164,135,142
839,789,501,-516,-1198,-239,119,424,549,692
995,883,289,-1169,-1703,-398,131,516,675,860
675,562,49,-1298,-1220,-262,130,429,509,622
243,234,85,-596,-791,-180,65,204,210,249
76,50,36,-230,-478,-133,41,113,121,132
9,-19,-28,-203,-268,-140,-32,45,36,52
-78,-30,7,-271,-216,-122,-71,-14,-56,-57
-45,53,58,-258,-284,-40,20,37,-31,-41
125,195,86,-114,-559,-70,52,119,61,105
263,229,-4,-136,-633,-104,56,155,144,244
149,130,88,86,-370,-92,5,36,49,142
-1,80,265,503,-135,-51,-23,-45,-48,13
-63,74,346,536,-28,-2,28,-5,-29,-32
-200,-36,231,409,-6,-41,-38,-106,-157,-181
-174,-98,-2,32,-86,-47,-22,-109,-196,-173
-14,-73,-281,-611,-209,-43,102,20,-55,-32
-147,-244,-712,-996,125,81,107,-68,-133,-158
-536,-636,-1113,-1017,1212,391,43,-333,-475,-524
-614,-757,-1165,-793,1688,568,124,-278,-458,-569
-345,-501,-808,-419,1124,486,257,-4,-143,-268
125,19,-128,142,126,269,296,211,181,153
496,514,612,483,-843,-5,234,280,358,454
478,486,579,-183,-889,-95,203,282,353,448
374,325,289,-682,-658,-59,194,245,302,363
216,161,106,-665,-447,-113,98,153,185,236
37,105,294,53,-551,-260,-52,-32,9,13
-326,-88,280,562,-52,-267,-290,-423,-421,-423
-1066,-707,23,1696,1256,-97,-617,-973,-1132,-1173
-1566,-1161,-283,2391,2288,177,-728,-1257,-1521,-1657
-1382,-1064,-329,1790,2162,325,-524,-968,-1241,-1429
-758,-457,360,1198,1028,280,-210,-453,-636,-790
270,462,881,-128,-1043,-113,63,168,245,216
672,715,476,-682,-1393,-268,121,383,590,642
675,540,-136,-538,-520,-92,222,480,705,714
815,569,-117,-847,-271,91,450,696,903,879
693,490,26,-946,-793,-76,372,537,701,721
361,242,18,-864,-1189,-389,95,193,337,385
100,90,72,-510,-750,-332,-12,55,141,122
-13,18,121,-139,-99,1,82,87,75,13
-52,-88,-113,-363,386,295,188,145,102,15
-172,-338,-699,-935,452,302,165,122,89,-31
-289,-431,-804,-972,435,167,40,-17,-40,-163
-498,-428,-232,10,798,301,-107,-255,-324,-464
-1001,-703,187,1293,1637,631,-268,-632,-811,-1007
-1204,-853,231,1587,2265,793,-194,-640,-972,-1215
-618,-542,-99,272,1908,612,194,169,-266,-537
279,138,-88,-75,514,164,482,850,551,390
685,692,589,1886,-1241,-447,264,759,692,689
513,614,633,1990,-1756,-769,-56,332,479,501
217,259,188,1092,-900,-376,180,59,299,251
244,214,-67,-55,-656,76,564,23,322,285
310,304,70,-855,-608,353,558,-52,289,307
-184,-94,-215,-1196,-100,382,133,-442,-206,-218
-613,-576,-726,-1369,648,415,-164,-634,-539,-636
-298,-479,-1039,-1945,394,90,-231,-195,-122,-238
515,290,-326,-1024,-477,-390,-208,480,645,574
1080,990,891,826,-1555,-734,-282,771,1059,1083
815,885,1161,1009,-1401,-758,-423,460,715,768
490,673,918,305,-1006,-535,-306,230,414,426
357,472,559,-197,-703,-208,-86,203,335,321
374,314,-3,-510,-543,37,17,262,383,383
337,94,-530,-596,-344,57,-2,245,374,375
36,-135,-458,-61,254,89,-114,27,112,80
-225,-327,-454,108,719,37,-251,-203,-133,-193
-128,-148,-7,399,501,-184,-390,-308,-147,-163
98,264,660,232,-540,-457,-418,-232,-78,8
116,334,724,-70,-1066,-483,-387,-184,-45,40
72,225,348,-363,-348,-132,-201,-86,15,43
-28,108,56,-465,359,64,-127,-105,-55,-48
-281,-184,16,62,374,-23,-234,-290,-278,-289
-521,-467,-98,775,121,-178,-360,-466,-481,-508
-510,-496,-132,1143,-223,-240,-340,-406,-432,-475
340,198,-246,-214,-244,171,296,452,458,445
543,347,-211,-1113,-579,132,363,566,596,646
-102,-216,-411,-650,459,51,2,5,-2,-4
-191,-212,-284,-362,856,204,53,-37,-93,-122
13,94,-53,-344,672,391,238,119,38,44
-72,-63,-392,-330,481,460,274,144,-2,-23
-572,-587,-623,768,531,304,-47,-231,-465,-515
-662,-601,-306,1079,86,108,-201,-394,-598,-640
-111,-91,113,185,-295,-120,-63,-54,-93,-78
506,462,587,-121,-325,-123,212,339,436,550
522,430,274,-158,-107,-74,260,285,449,574
293,128,-316,-480,-47,-2,264,180,313,391
328,139,-200,-360,-365,-52,236,241,358,417
392,291,176,-128,-347,-103,196,246,347,448
479,442,366,-227,-432,-103,248,302,385,509
580,505,258,-513,-881,-191,227,325,456,578
522,472,150,-297,-857,-261,87,207,348,489
263,481,400,-26,-726,-326,-102,-52,15,166
-194,312,465,22,-414,-357,-331,-405,-444,-350
-616,-58,328,357,173,-331,-524,-681,-763,-742
-739,-348,336,922,719,-239,-572,-756,-822,-810
-549,-326,532,1255,705,-56,-365,-541,-608,-580
-20,-85,425,664,-47,81,20,-18,-35,24
233,-14,-23,-677,-451,114,198,242,281,344
120,-71,-287,-766,-201,86,127,142,174,216
-141,-230,-506,-736,-7,87,46,-31,-78,-72
-806,-733,-677,-181,732,152,-174,-461,-651,-756
-864,-860,-791,241,850,123,-126,-345,-583,-760
-527,-445,-160,430,123,-38,-105,-122,-369,-451
-634,-287,394,18,230,2,-338,-489,-706,-701
-583,-445,-104,-729,916,171,-320,-504,-633,-635
80,-229,-688,-1212,733,281,250,310,268,194
602,432,410,563,152,342,632,721,770,713
619,762,1476,2494,-390,48,241,297,529,602
493,497,684,1890,-211,-72,72,115,402,488
423,125,-386,721,-20,11,220,288,462,495
382,39,-558,-355,-270,65,297,455,468,471
320,118,-328,-667,-475,23,275,582,379,378
173,-3,-212,-383,-631,-244,85,517,195,202
359,72,-449,-1197,-921,-470,14,516,336,374
631,295,-573,-1853,-973,-384,109,582,568,639
720,446,-286,-1332,-930,-222,235,622,728,755
600,448,139,-395,-751,-142,149,391,617,633
372,274,196,11,-385,-59,40,117,334,400
166,91,84,140,-43,104,43,-63,124,194
-15,-1,143,249,256,203,-11,-229,-57,-18
-184,-83,37,390,236,-46,-247,-421,-279,-246
-288,-217,-292,-370,433,-181,-342,-459,-354,-333
-416,-329,-306,-876,806,146,-124,-295,-308,-391
-631,-337,192,-35,777,456,6,-332,-501,-636
-1375,-1157,-491,1057,854,-28,-639,-1100,-1285,-1400
403,283,-8,-144,-224,-61,362,646,426,433
916,780,434,-676,-219,201,902,1220,966,1000
720,601,427,-207,-509,-108,622,895,755,784
385,401,537,309,-493,-189,236,367,349,372
83,73,136,-188,-453,-93,59,22,90,100
-71,-236,-279,-278,-294,-40,22,-198,-16,7
16,-211,-292,197,154,153,67,-321,11,91
29,-61,47,886,552,284,179,-312,-75,41
-232,-221,2,1029,521,367,284,-279,-267,-215
-281,-364,-457,-247,135,435,328,-82,-205,-222
19,-98,-442,-1355,-273,265,229,167,61,77
141,177,-112,-1173,-241,-91,-87,52,37,130
125,169,-98,-662,-96,-277,-193,-50,-9,101
-134,-103,-178,-9,404,-139,-46,-164,-192,-131
-246,-204,115,469,722,50,309,-165,-228,-206
-153,-170,106,50,480,310,719,-86,-122,-81
32,-79,-75,61,-122,260,755,-60,9,119
170,22,-152,116,-654,61,512,-5,79,236
-92,-65,-168,-176,-673,-130,-78,-224,-219,-78
-638,-469,-387,-103,144,-162,-668,-553,-690,-635
-684,-611,-471,25,383,-347,-766,-414,-652,-646
-179,-197,-107,268,-113,-594,-635,-40,-183,-144
-328,-156,390,1114,172,-678,-697,-271,-398,-362
-773,-543,386,1916,750,-668,-634,-247,-737,-769
-594,-473,227,2248,841,-470,-138,359,-465,-534
196,196,145,666,303,-36,584,882,244,244
1024,868,39,-1720,-615,342,1262,1264,1020,1062
1041,839,85,-1416,-784,297,1343,1067,1083,1136
487,358,100,-186,-304,108,976,511,605,620
320,197,226,352,-344,-48,661,98,342,417
417,262,162,8,-303,70,208,-187,209,413
447,255,-145,-660,-464,150,-403,-154,195,406
394,271,-91,-672,-591,-119,-740,-42,205,361
327,362,412,-153,-489,-365,-754,-15,181,298
144,245,764,296,-289,-229,-579,-114,58,124
74,116,331,-244,-30,126,-353,-213,-91,48
134,106,-73,-324,-261,-17,-338,-197,-50,98
67,79,-53,-142,-366,-55,-333,-254,-109,29
-78,-1,130,112,-173,38,-256,-283,-217,-116
-216,-135,-245,-340,130,112,-245,-324,-309,-258
-627,-553,-754,-1158,544,89,-441,-617,-646,-671
-1181,-1068,-929,-841,1099,186,-578,-946,-1108,-1190
-1101,-988,-592,662,1004,58,-567,-858,-998,-1061
-400,-340,90,2055,393,-209,-466,-476,-428,-377
264,318,580,1550,-190,-135,-186,-61,72,221
187,332,538,669,449,238,6,-23,13,123
-77,186,317,607,848,357,21,-144,-197,-166
-109,148,113,347,419,225,-43,-182,-206,-207
-33,-92,-574,-1605,385,324,88,-14,-12,-21
-20,-325,-784,-1710,793,441,273,208,193,138
197,-3,27,657,-145,-120,91,319,294,277
435,281,389,1202,-1006,-470,62,554,425,456
355,176,62,96,-862,-362,179,691,414,408
4,-121,-293,-476,-137,-134,213,554,126,61
-24,-114,-267,-354,-58,-169,134,409,9,-10
277,189,-136,-398,-668,-285,181,451,200,248
208,355,271,-306,-827,-272,295,164,21,83
29,386,642,-155,-502,-134,230,-244,-176,-125
-47,257,749,-16,-141,56,7,-467,-205,-153
60,104,390,-316,103,166,-112,-428,-98,3
-55,-94,65,-441,428,251,-68,-391,-142,-72
-202,-185,208,259,662,182,-132,-476,-311,-240
-357,-137,376,566,93,-164,-471,-719,-604,-476
-684,-264,470,122,-204,-406,-742,-989,-919,-837
-935,-587,269,846,186,-444,-782,-1038,-1042,-1030
-423,-248,247,1855,65,-201,-351,-488,-466,-456
237,177,-177,418,-351,110,164,159,236,244
165,-20,-579,-735,73,222,238,204,255,219
-567,-626,-612,-286,547,87,-179,-383,-426,-506
-565,-695,-537,-66,564,172,-91,-286,-345,-467
23,-191,-130,402,421,262,259,255,286,161
562,343,132,958,587,366,439,565,682,651
1024,590,-404,-530,-124,301,640,903,1099,1128
858,484,-90,35,-395,27,493,776,914,951
269,91,207,873,433,-48,289,475,323,298
29,-89,-17,-259,369,-23,339,416,93,44
114,30,44,-1556,-190,-52,453,420,148,112
164,163,284,-1316,65,-43,513,394,225,158
241,322,593,65,-166,-44,355,257,281,215
374,365,411,657,-753,66,133,137,393,372
335,207,-291,-371,-782,-115,-191,-121,254,304
101,-51,-685,-1220,-438,-137,-273,-195,23,63
19,30,-261,-988,134,106,-197,-65,-17,-13
164,398,595,-265,104,102,-177,-27,11,37
274,560,985,55,-424,-131,-201,-33,37,99
122,411,853,390,-441,-270,-267,-148,-54,-24
-148,-113,-14,390,-110,-232,-344,-302,-251,-233
-394,-562,-728,78,5,-149,-356,-374,-372,-406
-534,-799,-973,40,-35,-109,-336,-355,-392,-478
-669,-807,-863,-14,205,32,-329,-462,-563,-644
-929,-824,-588,340,847,208,-369,-698,-864,-972
-1031,-858,-358,1140,1421,323,-338,-736,-928,-1078
-1040,-719,483,2588,1724,316,-414,-777,-922,-1107
-839,-479,841,2236,1486,328,-413,-616,-786,-920
33,115,328,796,769,304,89,213,57,31
1173,791,-453,-1121,-968,98,816,1230,1223,1276
1437,935,-389,-1424,-1703,-160,1005,1372,1495,1569
920,598,-230,-1091,-1329,-238,933,831,909,1002
387,287,-144,-943,-957,-284,1078,420,377,424
109,288,478,-218,-353,-303,890,180,94,100
347,603,910,512,265,-293,621,393,339,332
524,579,521,246,126,-394,465,693,547,538
428,190,-419,-1087,-747,-559,304,596,464,493
-28,-149,-210,-796,-570,-163,-17,63,-1,31
-304,-160,185,319,56,319,-489,-313,-293,-290
-8,182,483,570,196,425,-551,-176,-64,-24
269,277,182,-291,210,229,-280,99,242,306
-57,-274,-791,-897,942,208,-161,0,40,32
-522,-720,-1054,-51,1269,293,-367,-413,-417,-453
-413,-405,-298,1136,4,-96,-550,-547,-475,-430
-369,-131,566,977,-1084,-611,-708,-657,-559,-469
-457,-78,1061,765,-724,-602,-667,-706,-665,-586
-692,-303,730,672,618,-102,-481,-720,-782,-779
-687,-448,-40,732,1936,401,-278,-570,-693,-725
142,26,-447,-247,1372,536,175,219,197,189
649,289,-485,-1018,-209,460,360,715,781,778
635,333,-283,-792,-1132,249,269,669,739,757
580,280,-473,-758,-1052,-49,150,566,664,693
395,108,-510,-432,-560,-76,65,399,481,496
166,-11,-280,-201,-332,-64,8,261,227,206
56,-20,-148,-404,-197,-125,42,523,109,57
36,5,-44,-444,-220,-148,179,803,118,45
-11,19,-21,-165,-213,-114,297,646,114,18
78,83,-102,172,-245,-15,342,322,126,84
54,42,-28,254,-211,166,184,-122,-8,23
-146,-172,-99,-82,64,312,-24,-344,-108,-123
-156,-169,-145,-85,155,326,-156,-412,-126,-120
-91,20,248,546,146,102,-346,-407,-167,-120
77,170,256,28,-198,-162,-308,-188,-30,27
-96,-84,-152,-325,105,-12,-229,-209,-150,-130
-662,-606,-504,550,1579,334,-297,-560,-646,-700
-1123,-814,-70,1609,1652,115,-619,-1022,-1136,-1206
-601,-212,749,1254,-64,-239,-544,-727,-737,-723
604,742,1070,-222,-941,-50,155,287,441,559
1159,1117,600,-1112,-948,96,431,706,934,1109
641,558,-94,-1607,-751,8,184,334,466,585
-41,-106,-485,-474,299,95,-42,-92,-73,-82
-174,-347,-706,879,788,228,64,-2,-70,-134
92,-114,-529,595,83,177,201,252,228,204
361,242,-85,-404,-665,73,201,306,362,430
317,214,-183,-980,-875,-111,82,176,256,364
-20,-64,-396,-923,-464,-145,-102,-99,-60,14
-211,-121,-54,-552,-5,-41,-133,-243,-265,-223
-315,-3,598,192,18,-81,-245,-407,-454,-400
-443,-41,735,363,-30,-189,-366,-510,-533,-529
-329,16,727,706,-65,-228,-297,-345,-338,-374
-170,6,406,880,56,10,-61,-119,-153,-172
-240,-210,-78,446,358,353,145,-63,-191,-231
-886,-819,-605,331,1042,453,-111,-553,-782,-883
-971,-960,-586,1422,1192,158,-267,-614,-774,-909
-157,-240,-64,2045,-119,-279,3,103,2,-77
301,351,483,905,-497,-174,307,622,299,300
645,770,745,-613,-608,-119,474,873,530,584
942,974,700,-1435,-1130,-404,435,902,764,869
820,781,415,-1469,-970,-333,291,647,692,754
398,240,-321,-1114,-427,8,224,286,431,393
196,-39,-498,-686,-50,244,318,23,285,241
-17,-150,-254,-475,-5,242,283,-323,-40,-8
-199,-116,99,-473,-66,77,168,-411,-282,-247
-349,33,742,640,71,-69,55,-462,-446,-432
-427,87,767,423,463,16,-71,-539,-525,-553
-299,-120,-107,-752,856,372,-17,-255,-316,-346
-120,-247,-712,-698,941,457,74,149,-32,-97
-646,-658,-627,-598,4,-209,-409,-48,-525,-667
-544,-367,326,577,16,-316,-362,33,-475,-587
309,263,588,1210,-902,-572,34,608,358,330
851,384,-554,-307,-1260,-597,477,1012,1035,975
510,43,-1087,-690,-749,-487,241,452,697,647
257,126,-480,-272,-52,5,74,-5,306,297
216,381,247,515,489,383,-40,-187,120,184
219,380,196,105,-2,141,-277,-219,90,175
218,114,-255,-663,-195,162,-57,-28,198,231
268,-24,-235,-177,-116,418,552,219,345,340
88,41,151,714,-171,404,649,-79,79,99
-236,2,93,143,-133,178,283,-467,-310,-299
-369,-229,-378,-340,-32,201,190,-342,-328,-381
-161,-288,-495,-155,28,263,63,-88,-76,-121
253,13,-85,354,324,236,-125,87,188,245
46,45,441,923,532,-1,-386,-136,-108,-23
-764,-775,-392,-283,1197,70,-571,-630,-671,-735
146,46,255,1049,292,240,34,117,187,183
923,799,570,512,-745,33,251,537,740,882
416,257,-260,-1202,-924,-349,-113,130,286,381
-351,-407,-336,-227,-101,-392,-430,-376,-341,-355
-502,-523,-175,-57,874,62,-264,-350,-391,-482
-596,-570,-134,-184,1052,442,-92,-287,-441,-561
-398,-411,-49,11,275,285,-25,-113,-242,-347
213,210,380,279,-488,-61,52,231,276,233
177,359,544,934,-224,-107,-37,91,168,144
-384,-60,340,733,82,-116,-171,-398,-430,-460
14,-29,-164,-424,-33,-123,473,140,28,15
58,-152,-349,-72,61,-4,621,279,139,98
-19,-420,-914,-999,699,38,417,291,179,93
276,-139,-844,-1188,367,-282,186,453,421,379
662,658,615,633,-695,-598,94,539,550,607
533,753,832,474,-1044,-639,118,392,394,430
258,360,146,-862,-726,-442,240,296,234,199
86,19,-241,-1382,-413,-230,635,199,135,63
-45,-389,-609,-273,-30,452,908,128,117,56
-98,-278,-308,318,42,479,773,81,16,-48
-606,-481,-112,640,386,185,207,-453,-598,-655
-911,-753,-410,242,861,330,-222,-733,-871,-967
-455,-497,-618,452,1116,339,-214,-323,-362,-433
254,267,165,1092,572,-10,-263,20,164,231
725,757,834,-72,-954,-223,-262,300,509,663
576,584,740,-612,-986,69,-131,406,459,563
278,337,472,-261,-346,220,-160,386,253,277
134,203,319,112,-2,43,-248,523,105,114
36,23,-150,-125,74,-117,-263,498,46,25
62,-76,-542,-607,-344,-166,-209,332,87,80
289,149,-313,-646,-633,-206,-207,224,276,308
351,281,-44,-423,-514,-193,-213,54,313,362
183,217,109,-155,-186,-83,-278,-236,113,170
-29,121,333,125,106,-62,-466,-468,-150,-84
-239,-20,243,-65,-30,-212,-610,-528,-385,-333
-402,-176,63,-211,-188,-139,-559,-489,-466,-477
-623,-336,179,429,224,-60,-538,-554,-591,-676
-796,-538,173,863,540,-157,-615,-683,-768,-830
-640,-559,-167,84,732,103,-338,-490,-576,-619
-387,-458,-374,-88,1784,581,-57,-138,-267,-314
189,94,-42,557,431,189,97,262,234,251
630,613,287,817,-816,-185,60,410,531,637
436,339,-178,-227,-742,-172,46,367,460,497
170,0,-260,-237,-490,-93,105,450,281,284
192,14,-106,448,-216,-10,221,547,317,325
399,194,-123,51,-108,65,323,609,525,535
503,336,-114,-521,75,204,310,522,565,610
379,331,41,-756,-348,-26,27,48,285,420
220,242,160,-476,-494,-159,-74,-270,68,224
145,171,67,-388,-413,-189,-67,-234,-8,126
-67,-38,-63,-286,-312,-233,-85,-192,-139,-74
3,63,48,-8,13,-153,5,-45,-30,0
-135,-73,-113,19,290,250,108,-164,-173,-153
-746,-606,-307,208,898,519,-151,-666,-757,-783
-768,-700,-350,283,811,427,-147,-593,-692,-765
-425,-221,380,1315,736,249,-89,-399,-403,-442
-159,256,996,1314,805,6,-179,-353,-260,-224
-4,297,716,783,364,-98,-110,-209,-118,-54
308,393,512,486,-419,-20,205,118,217,304
-108,-65,-36,-883,-147,-81,51,-271,-217,-175
-179,-375,-964,-2024,540,152,116,-129,-115,-137
202,-107,-918,-1343,432,148,218,273,318,318
539,412,37,511,-664,-250,-34,391,522,582
481,401,189,245,-1127,-347,-110,317,426,502
288,141,-74,-324,-652,-199,15,235,282,336
100,3,-171,-313,-348,-88,45,108,82,127
-88,-88,-162,46,-115,-77,-67,-106,-148,-97
-335,-243,-11,154,305,25,-148,-276,-368,-357
-751,-528,-52,177,713,145,-282,-514,-732,-794
-1325,-1018,-347,878,731,-34,-650,-957,-1263,-1396
-944,-816,-555,567,598,-39,-402,-653,-847,-974
224,235,164,-34,152,152,425,207,221,211
1123,1121,1171,590,-322,250,915,805,951,1056
859,745,702,-175,-588,202,762,653,745,821
-41,-11,359,-169,-16,162,168,-47,-81,-73
-637,-361,319,-484,199,-142,-539,-636,-717,-711
-271,-52,232,-728,-135,-309,-533,-308,-338,-323
488,535,354,-197,-462,-135,-86,390,467,504
734,544,26,-87,-510,-84,90,539,703,770
530,187,-425,-280,-117,-18,144,403,512,588
242,-109,-584,-36,325,58,94,245,258,316
116,-143,-532,26,-199,-12,19,162,158,196
153,34,-176,-80,-560,-75,-5,118,113,179
11,-35,-92,314,-202,-63,-74,-33,-50,-8
-124,-133,49,1194,63,-45,-122,-121,-155,-150
51,-34,-95,374,-10,-4,-2,50,56,36
168,42,-294,-821,-78,100,86,158,181,149
46,98,58,-1030,-36,76,-18,-10,-14,-13
-317,-81,141,-876,55,-49,-248,-353,-421,-437
-46,120,379,354,-255,37,-21,-73,-92,-122
130,200,361,978,-36,-9,90,92,120,102
-403,-296,-91,1194,264,-26,-160,-305,-353,-413
-842,-822,-564,387,804,87,-272,-514,-660,-802
-413,-646,-790,-435,1322,309,25,-31,-180,-314
438,206,-248,-348,233,234,331,547,509,478
702,627,392,-388,-1190,-96,253,591,628,664
420,386,238,-522,-846,-104,106,288,345,376
-240,-196,-286,-613,244,66,-177,-355,-317,-306
-964,-786,-501,-414,1360,213,-419,-902,-976,-1038
-772,-477,435,1215,607,-65,-355,-676,-729,-845
-277,216,1791,3448,-489,-395,-373,-455,-418,-423
11,483,1670,1858,-304,-171,-198,-268,-205,-135
520,439,35,-842,-322,158,380,408,492,539
545,107,-988,-1457,-225,208,442,545,620,653
363,121,-282,-632,-216,40,244,323,404,434
263,110,-139,-328,-347,-108,95,206,285,322
142,99,1,-492,-318,-125,9,99,132,170
26,66,121,-359,-256,-128,-71,-6,15,37
15,104,222,55,-126,-143,-143,-92,-48,-18
119,202,212,-166,-221,-92,-8,43,63,79
192,175,-51,-466,-83,107,190,203,173,157
273,143,-288,-601,-181,32,124,198,205,223
-49,-76,-417,-285,-146,-56,0,27,14,-45
-125,-146,-346,-338,-124,-60,-39,-29,-42,-101
-211,-324,-464,-580,-16,-29,-15,-41,-83,-170
-358,-439,-538,-563,447,160,56,-33,-226,-319
-277,-291,-284,191,891,358,159,38,-197,-270
-389,-238,223,1752,818,326,28,-117,-361,-405
-767,-544,14,1017,750,200,-247,-531,-705,-801
-624,-583,-491,-434,1007,221,-96,-467,-488,-603
-358,-263,144,916,1462,520,244,-367,-317,-363
-23,156,604,569,258,339,493,-121,-89,-81
458,615,648,-633,-1028,-430,673,324,300,373
392,465,185,-152,-956,-798,524,389,285,335
50,165,168,-124,-568,-507,218,248,81,7
-32,239,751,321,-582,282,220,42,-23,-83
178,318,759,54,-698,259,-219,9,142,144
655,395,-50,-953,-571,40,-232,314,625,697
671,172,-560,-833,-424,7,17,412,684,758
408,-27,-438,-306,-264,50,372,513,505,501
236,-42,-393,-311,-180,45,378,522,369,316
50,-89,-463,-286,-41,68,-17,401,204,128
-54,-166,-409,-262,-9,-4,-253,317,52,-22
-6,-149,-344,-316,-92,-86,-187,236,24,0
100,-51,-220,-306,-130,-127,-253,21,51,107
48,-41,-83,-216,-117,-161,-385,-181,1,58
-125,-122,9,-24,-52,-120,-410,-274,-101,-120
-275,-169,71,146,120,31,-298,-347,-212,-271
-738,-450,91,558,777,332,-309,-825,-744,-794
-1345,-1016,-334,934,1263,344,-570,-1289,-1314,-1398
-1015,-886,-383,994,862,32,-510,-866,-850,-996
293,355,586,1014,402,77,155,258,398,322
1012,991,740,-223,354,180,511,822,1006,1026
494,347,-120,-620,-9,-85,139,344,482,512
172,31,-220,226,-437,-336,-64,4,129,152
137,50,174,560,-64,-41,6,-39,64,98
198,142,225,389,-200,88,88,92,153,163
310,338,379,809,-658,-170,13,149,242,268
242,273,111,-315,-619,-131,-89,34,155,205
87,16,-454,-1521,-268,156,7,6,79,78
210,153,-8,-255,-57,130,311,234,217,210
243,215,47,-334,-219,66,274,226,211,207
246,208,-32,-424,-279,-53,75,119,150,179
193,86,-250,-441,-224,-36,-106,43,104,129
46,-72,-338,-325,-96,4,-159,26,47,28
16,-43,-159,-224,-42,16,-45,80,75,31
-16,-57,-84,-179,-57,-13,-36,26,16,-18
-88,-110,-105,-122,-27,-33,-72,-53,-88,-110
-106,-120,-104,-84,-48,-45,-102,-96,-108,-112
-124,-100,-19,34,-102,-84,-90,-139,-140,-112
-183,-90,101,49,-36,-7,125,-223,-242,-210
-215,-76,85,-195,202,224,338,-174,-243,-242
-124,37,216,-146,187,250,334,-91,-187,-168
-299,-56,316,232,128,66,-35,-315,-405,-372
-994,-655,3,712,952,45,-573,-836,-1028,-1066
-1227,-1061,-548,446,2135,350,-546,-775,-1071,-1217
-624,-675,-626,-81,1782,550,-159,-195,-411,-550
304,173,-18,733,85,311,225,421,386,369
643,396,3,227,-1433,-288,184,605,652,712
534,350,110,-269,-1167,-469,87,497,543,594
472,498,456,-366,-601,-334,36,384,440,476
142,279,430,-434,11,-293,-192,41,73,116
-60,16,181,-117,614,-195,-204,-49,-61,-62
146,0,-324,-108,-109,-156,144,325,203,223
288,76,-286,-248,-789,-226,384,720,332,371
188,45,-64,-144,-627,-314,346,683,174,225
23,-4,91,-29,-546,-224,215,305,-34,3
-75,42,286,197,-254,-26,-23,-81,-123,-89
-118,-15,148,114,-164,-95,-195,-394,-176,-128
-101,-26,34,0,-109,-55,-187,-513,-176,-104
-22,22,179,-22,-146,-29,-197,-400,-102,-18
200,172,412,11,-215,-13,10,-20,157,221
346,226,121,-74,-157,99,207,208,320,374
215,38,-412,-369,-101,93,137,128,197,237
-81,-142,-413,-223,66,6,-71,-128,-104,-88
-436,-257,123,831,412,-32,-299,-464,-487,-493
-531,-378,-107,563,262,-7,-312,-501,-558,-592
-224,-208,-234,1,-69,27,-125,-200,-217,-237
-57,-45,167,637,0,49,29,40,7,-20
-183,-130,152,228,455,158,28,-20,-105,-144
-442,-437,-641,-1679,1059,313,-87,-211,-319,-387
-343,-350,-608,-1145,837,48,-180,-218,-241,-290
-73,192,662,1935,-155,-397,-351,-331,-163,-125
100,367,943,1930,-650,-384,-291,-314,-86,26
215,302,463,257,-364,-98,-12,-66,97,188
258,289,370,-416,-292,19,132,74,183,253
384,285,24,-767,-445,33,253,260,365,414
441,232,-229,-977,-390,120,366,395,489,487
237,25,-252,-710,-199,170,279,276,309,288
184,-48,-380,-434,-106,150,196,189,217,201
241,74,-176,-272,-117,118,161,184,214,223
226,127,2,-235,-135,101,167,192,207,231
188,119,-14,-227,-137,83,194,210,219,244
162,53,-95,-261,-126,57,192,197,219,231
76,-39,-252,-203,-42,93,172,139,122,130
-75,-100,-125,137,238,113,38,18,-44,-57
-80,-54,-16,265,268,128,52,18,-27,-52
-25,-55,3,129,160,83,78,50,29,8
20,-75,0,-53,76,63,81,48,48,27
30,-43,32,-73,85,90,59,13,12,0
10,-15,35,-55,75,73,13,-38,-59,-39
-80,-68,24,0,97,30,-54,-127,-141,-114
-101,-79,-64,-53,67,0,-93,-165,-182,-148
-43,20,-97,-114,3,33,-18,-63,-94,-81
-3,92,24,103,48,39,12,-29,-45,-52
-21,123,213,247,35,-33,-56,-110,-115,-118
-33,113,242,127,-66,-68,-78,-92,-129,-117
19,3,51,-151,-118,-96,-78,-20,-32,-4
-22,-174,-137,-124,77,-100,-107,-65,-85,-30
-223,-325,-186,294,98,-121,-125,-139,-192,-189
-121,-211,-138,291,-303,-195,-132,-78,-88,-84
-29,-57,25,-4,-171,-98,-28,-48,-66,-34
-199,-98,129,-287,272,-5,7,-98,-252,-234
-221,-127,159,-438,391,120,128,57,-209,-230
-78,1,260,-110,290,157,173,218,-29,-73
180,204,287,62,-17,-39,94,346,198,196
238,138,-110,-171,-233,-148,-5,315,266,278
60,-58,-155,94,-22,23,63,98,112,98
-3,-12,75,266,199,203,147,-4,33,36
-178,-84,123,296,731,179,14,-153,-122,-141
-439,-275,265,414,788,41,-216,-420,-425,-452
-620,-369,491,1019,461,-35,-298,-547,-674,-668
-722,-380,540,1695,516,-94,-363,-651,-829,-800
-524,-479,-280,309,372,6,-201,-323,-474,-509
99,-280,-866,-1298,-11,194,222,308,316,231
659,231,-512,-700,-674,8,349,511,792,790
649,361,-116,106,-676,97,327,358,725,749
372,191,-161,-61,-319,70,192,121,393,446
264,135,-87,-181,-325,-85,32,59,247,286
180,74,3,-190,-339,-144,-46,31,166,190
100,31,-5,-102,-283,-136,-63,-10,81,102
93,59,30,-67,-109,-52,-32,-18,38,54
29,29,45,-136,-91,-65,-87,-92,-45,-20
-160,-127,-78,52,-174,-205,-225,-290,-242,-215
-251,-278,-324,459,-169,-222,-116,-304,-291,-287
-34,-126,-303,259,-123,-62,274,-6,-12,-33
206,185,84,-261,-17,127,498,172,185,188
122,164,297,-288,1,117,340,91,101,94
83,117,250,-294,-66,0,16,30,68,69
44,53,179,4,-94,-160,-237,18,53,42
-147,-137,94,938,9,-325,-373,-38,-63,-135
-188,-194,84,943,-29,-442,-314,12,-121,-195
-60,-88,57,196,70,-294,-34,188,-42,-85
22,-19,-66,-525,167,-150,171,258,62,0
-39,-71,-110,-561,76,10,424,136,16,-57
-46,-50,63,-159,-8,365,685,2,-19,-26
2,69,197,-45,-3,297,585,-45,10,25
-151,-78,-41,50,137,343,556,-285,-138,-143
-81,-127,-132,-45,41,187,-104,-53,4,-17
-303,-285,-320,-57,549,241,-421,-284,-277,-293
-453,-365,-149,126,689,46,-653,-471,-449,-473
-109,-1,282,286,165,-274,-616,-223,-114,-129
262,386,610,613,-32,-130,-252,148,266,245
82,103,133,-203,241,152,-154,136,143,86
365,290,-44,-505,73,147,33,322,352,369
440,253,-329,-460,-406,-40,65,386,438,492
205,45,-193,-123,-373,-141,-62,182,221,267
106,43,-53,-95,-190,-115,-111,98,106,132
139,139,26,-60,-182,-115,-110,112,119,129
167,189,34,-77,-207,-158,-152,102,148,158
129,131,-61,-212,-233,-201,-206,23,116,137
35,2,-166,-259,-189,-146,-181,-30,18,57
-256,-207,-166,-32,52,22,-146,-194,-256,-228
-590,-457,-152,311,456,132,-198,-435,-544,-565
-564,-481,-345,-245,812,134,-211,-422,-491,-535
-287,-273,-372,-672,936,132,-123,-207,-228,-245
175,172,124,-23,59,-16,35,122,162,185
403,402,476,590,-647,-73,144,299,361,421
221,209,356,259,-419,-42,105,209,220,263
-5,119,399,281,-101,-17,-15,57,-10,9
-59,217,620,322,-20,1,-7,81,-102,-82
8,217,438,31,29,-9,104,230,-14,-12
123,172,58,-12,41,-89,46,292,122,116
90,-18,-424,225,-45,-248,-142,169,147,133
-41,-232,-667,11,-241,-224,-126,1,81,54
-67,-220,-472,-263,-205,53,7,-100,-7,4
-165,-130,-148,-64,-81,121,-19,-287,-215,-148
-237,-159,-54,291,8,9,-34,-312,-279,-217
-22,-25,-73,-56,55,62,97,-60,-29,14
51,79,130,4,10,49,76,32,87,103
-2,111,327,500,-16,2,12,-30,54,29
57,157,250,261,105,132,108,19,88,85
118,131,-40,-330,16,117,90,22,111,129
14,-76,-316,-251,-10,80,4,-66,15,30
-155,-222,-178,549,69,46,-17,-89,-124,-146
-105,-119,98,590,372,68,0,44,-90,-114
-51,-140,-144,-81,777,212,38,158,11,-24
-51,-118,-217,86,388,95,-43,77,38,-24
121,80,10,38,-502,-166,-44,84,138,111
240,190,78,-262,-552,-75,166,185,270,230
43,69,94,-173,-173,40,129,8,81,43
-27,-2,4,-4,-29,14,45,-83,-3,-26
62,94,57,-39,-160,-169,-96,-104,14,46
111,159,60,-302,-273,-195,-108,-42,37,95
75,103,-25,-378,-144,111,61,75,83,85
80,118,63,-142,-40,144,124,137,153,108
-71,21,43,8,28,52,17,-19,-4,-58
-263,-97,56,274,80,-29,-159,-248,-271,-299
-332,-102,296,852,143,-86,-244,-368,-389,-395
-336,-97,456,992,337,-111,-304,-421,-427,-420
-104,59,289,240,391,-61,-178,-230,-212,-180
125,103,-231,-565,258,159,105,83,73,92
120,10,-502,-809,8,85,131,148,158,140
66,-87,-280,-249,155,-2,119,142,150,117
-66,-253,-306,243,611,55,77,47,37,5
4,-88,-132,436,-40,-111,-35,-7,23,35
312,322,194,-233,-776,-237,61,169,208,276
221,311,233,-659,-411,-155,166,198,147,183
55,75,13,-378,-294,-155,161,152,79,77
94,0,-121,35,-303,-179,155,167,153,175
-71,-9,-126,-140,42,189,85,-70,-61,-38
-192,-37,94,171,41,82,-163,-260,-236,-211
-396,-240,15,95,208,3,-277,-418,-446,-415
-314,-304,-155,93,256,96,-81,-216,-287,-270
-28,-43,99,753,84,131,126,59,8,21
230,276,325,486,-78,26,142,159,183,242
253,206,94,-529,-121,27,207,269,256,295
46,-73,-82,-619,-121,-1,245,305,98,114
-31,-183,-205,-325,1,18,256,305,34,26
129,-8,-102,-147,-31,39,201,354,175,160
170,50,-21,-73,-203,-15,33,205,170,179
106,-32,-109,-173,-177,-32,-71,-46,77,103
51,-4,18,-209,-3,47,-124,-253,-26,16
0,54,144,-163,146,117,-79,-269,-96,-58
-66,3,163,-133,274,143,-45,-195,-138,-120
-109,-112,-75,-189,450,107,-100,-179,-160,-119
-55,-184,-214,-143,241,-31,-101,-110,-62,-23
-20,-115,79,654,-158,-111,-31,-61,-31,3
-198,-164,286,1804,-7,-131,-108,-237,-261,-214
-380,-222,216,1420,266,-219,-310,-438,-471,-425
-153,-111,-6,-103,-50,-190,-90,-54,-176,-174
202,171,39,-479,-156,76,360,493,260,218
261,216,-58,-521,-106,116,415,570,329,294
93,-41,-415,-657,-198,-31,149,303,173,154
86,-62,-347,-415,-230,-119,-32,41,133,143
135,36,-151,-403,-71,-3,-55,-153,123,183
155,114,-17,-319,130,184,69,-143,122,207
32,121,122,-173,-301,-197,-136,-172,-51,0
-271,179,494,1,-231,-356,-275,-501,-468,-397
-332,123,483,223,139,-128,-160,-466,-483,-425
-211,-75,-104,-108,616,156,18,-232,-247,-241
-85,-247,-438,466,1112,288,57,0,-3,-28
-82,-204,50,1550,760,170,-92,26,19,-12
140,124,536,922,-307,-25,-35,179,173,164
231,239,384,-113,-577,-84,47,244,249,249
202,119,-248,-532,-293,9,193,268,261,239
154,46,-421,-749,-319,2,311,218,238,212
36,-52,-296,-648,-288,43,336,46,91,86
-89,-112,-223,-293,56,159,304,-83,-86,-68
-47,-66,-162,-119,389,179,72,-118,-72,-41
85,21,-205,-275,166,30,-128,38,81,127
191,169,30,18,-217,-54,-95,237,213,241
69,111,77,430,-246,-27,-28,237,132,106
-305,-256,-213,637,90,110,161,44,-216,-266
-315,-316,-365,-284,81,161,351,-3,-240,-292
-34,-59,-180,-827,212,296,414,115,-8,-9
-24,11,76,-328,181,247,165,-43,-47,-26
-87,0,199,132,-38,-10,-308,-222,-144,-107
42,111,162,20,-233,-242,-384,-62,14,49
206,304,272,37,-182,-223,-256,140,178,210
295,337,349,-89,-93,-35,-175,253,239,291
182,104,28,-37,16,65,-90,331,236,240
61,-37,-100,142,7,-41,32,557,131,113
-42,-70,34,213,68,-194,82,644,-7,-21
-88,-79,16,-98,62,-307,-4,438,-58,-88
57,25,-27,-107,96,-235,11,312,112,88
149,108,-57,-48,-13,-55,66,-2,198,183
73,91,-33,-59,-245,122,-67,-375,55,68
45,153,428,193,-330,-23,-410,-523,-74,-6
-8,158,513,143,-191,-165,-435,-491,-162,-92
28,123,275,-174,-123,-105,-220,-303,-106,-41
104,56,-99,-346,-137,-64,-110,-109,57,96
74,-138,-390,-293,-132,-46,-65,-33,107,113
-71,-204,-248,57,47,41,-60,-113,-29,-42
-207,-166,-132,152,108,78,-70,-230,-169,-211
-358,-257,-191,-51,217,132,-123,-320,-299,-370
-306,-262,-180,-175,378,169,-89,-273,-295,-325
-71,-21,159,560,483,129,-10,-141,-137,-111
96,165,278,604,157,-22,-32,-78,-16,35
137,92,-59,-247,-194,-92,-17,-15,73,110
135,18,-142,-3,25,27,73,30,111,125
40,-21,38,577,142,26,-2,-55,-6,23
-50,-46,100,285,344,4,-75,-162,-139,-90
-302,-217,107,532,859,34,-172,-318,-362,-336
-338,-182,317,745,209,-128,-251,-338,-398,-362
-120,18,226,-579,-511,-125,-94,-150,-203,-159
-573,-473,-425,-717,379,164,-104,-402,-578,-616
-1055,-983,-760,1289,985,230,-293,-721,-972,-1084
-476,-576,-769,509,250,157,165,-180,-322,-440
378,300,-271,-289,-34,156,777,483,459,400
851,791,189,-440,-798,-142,943,696,750,817
730,653,373,-387,-892,-174,812,624,558,675
593,545,373,-414,-632,-203,473,609,444,538
422,530,374,-525,-635,-387,170,567,340,369
139,337,272,-498,-561,-270,1,437,173,99
-75,49,86,-414,-380,49,-227,35,-24,-105
0,29,203,-102,-191,112,-338,-152,45,3
165,93,318,124,25,152,-164,-117,185,202
193,47,142,-6,153,160,-60,-77,147,211
93,-68,-226,-213,106,54,-46,-44,69,118
39,-119,-298,-129,45,-5,-35,45,83,81
37,-7,154,212,14,-61,-202,21,30,33
7,13,398,438,-73,-132,-275,-57,-45,-18
42,-69,30,250,-116,-101,-148,47,67,60
131,0,-170,-86,133,103,20,184,196,152
52,-11,-169,-60,418,151,-53,60,76,29
-47,-88,-200,80,289,111,-99,-33,-47,-77
8,-27,-97,-56,-155,43,-20,5,-4,-19
70,86,71,-127,-130,68,29,11,19,9
27,56,113,-71,15,99,57,10,21,-33
19,-15,33,-138,-12,58,60,42,57,-5
9,-2,25,-80,116,83,49,15,51,-5
-111,22,120,139,247,117,-9,-108,-97,-171
-162,-77,4,-131,84,11,-119,-188,-178,-230
-212,-145,-144,-371,106,-99,-247,-245,-263,-277
-120,-101,-87,-163,141,-115,-149,-89,-169,-187
21,-25,64,328,-149,-199,-63,83,17,-13
94,65,183,404,-242,-231,-88,96,100,69
127,58,5,-44,-125,-139,-38,129,132,124
29,-79,-231,-365,-79,-63,30,119,69,48
-254,-236,-140,-353,378,70,-73,-216,-265,-286
-647,-330,358,456,921,178,-278,-654,-734,-752
-387,-192,390,1314,796,106,-109,-313,-367,-432
-74,-197,-248,445,753,207,86,-1,-16,-68
301,163,-49,-128,-603,-63,103,207,265,283
495,573,501,-337,-1239,-224,61,259,366,447
334,431,356,-596,-943,-218,10,171,273,321
77,72,70,-167,-401,-116,-33,41,88,109
70,-48,-221,12,-73,62,119,145,152,125
147,-39,-397,-347,-74,106,226,263,247,210
83,-94,-477,-368,-12,120,208,206,179,142
25,-122,-338,-143,49,57,108,87,81,60
-20,-90,-233,-143,2,-21,-5,-39,-29,-33
-205,-147,-181,131,-14,-142,-166,-224,-226,-239
-166,-180,-284,206,101,-102,-113,-153,-179,-187
126,15,-214,-121,134,86,137,167,151,148
213,140,95,-124,-40,120,170,217,224,233
50,64,141,-178,-195,-18,-3,-6,16,50
-207,-156,-45,-279,131,50,-45,-168,-216,-200
-378,-306,-112,-13,493,127,-58,-285,-351,-369
-506,-296,313,1432,445,26,-232,-460,-492,-509
-561,-216,719,2382,129,-92,-362,-578,-601,-600
-359,-187,123,285,164,-9,-168,-301,-350,-374
155,52,-293,-624,153,-20,-19,123,180,182
92,31,-117,-220,-101,-83,22,67,114,95
207,130,4,-175,-270,-82,192,201,229,216
272,161,-84,-448,-132,17,308,309,313,294
318,309,142,-281,28,79,278,277,310,304
221,188,28,-256,-202,-27,101,135,176,202
55,30,-101,-102,-314,-89,-115,-12,31,44
243,331,360,-101,-280,-87,-47,130,184,214
218,205,40,-564,6,30,87,150,166,163
69,-50,-312,-393,-20,27,35,110,114,66
-3,-110,-409,-196,-157,-15,18,56,68,17
-46,-87,-234,-238,-145,-16,20,27,6,-41
-142,-107,-122,-30,-1,-85,-69,-64,-99,-149
-222,-123,-37,215,97,-83,-114,-63,-183,-219
-159,-23,163,361,113,30,15,82,-93,-135
4,152,309,374,86,109,150,196,64,25
66,184,311,74,97,154,189,208,128,75
-62,55,128,-64,298,138,51,-25,-3,-78
-114,-129,-207,-263,286,45,-73,-215,-71,-122
-68,-96,-66,-8,189,24,-103,-234,-46,-68
-8,50,211,217,211,113,-23,-117,-15,-18
32,50,73,106,63,51,0,-11,32,25
11,19,25,675,-212,-151,-134,-27,-6,-15
57,69,129,591,-186,-207,-156,35,8,13
105,98,-63,-332,412,61,-4,144,112,87
156,174,-80,-557,223,222,106,180,198,139
61,132,-10,-404,-471,5,0,37,81,34
-158,-65,-45,-187,-244,-108,-127,-217,-172,-202
-285,-42,384,257,428,-41,-255,-374,-414,-382
-132,16,340,309,397,37,3,-12,-183,-170
345,284,-126,-186,-746,-175,539,470,387,366
314,221,-332,-594,-608,-253,364,285,318,325
67,-51,-400,-538,-287,-15,67,-33,85,89
-116,-197,-171,-235,-29,218,-152,-246,-89,-82
-11,-17,178,-62,1,109,-202,-185,-48,-26
46,98,282,-118,-22,8,-155,-34,-27,23
63,72,147,32,-73,-13,-99,52,32,73
10,-63,-150,204,-41,63,-15,124,107,70
-61,-196,-328,235,81,123,7,77,79,5
-100,-190,-260,-28,141,132,-39,-122,-29,-66
-117,-166,-132,-309,178,146,-54,-224,-93,-107
-72,-115,-5,-102,99,70,-102,-190,-108,-94
3,-21,75,150,155,84,-28,-100,-64,-33
-18,-79,-53,357,333,104,20,15,-5,-21
5,-19,-28,298,-12,10,-18,17,-14,-6
23,-27,-75,47,-127,-49,-64,-32,-41,-8
-7,-30,-44,210,17,11,-55,-55,-59,-36
88,88,34,135,-79,-46,-16,10,22,50
91,78,8,-150,70,21,28,43,27,57
25,17,-10,-440,92,51,57,35,-8,-8
-21,-30,45,-126,126,45,32,-7,-54,-70
-60,-18,283,775,119,-51,-63,-107,-145,-129
-73,32,401,981,-269,-289,-222,-230,-221,-178
101,189,214,143,-453,-270,-121,-84,-58,-10
192,227,-37,-742,-216,-27,121,121,97,105
55,92,-13,-466,158,97,126,26,-17,-34
-148,-130,-17,-261,263,115,26,-129,-165,-199
-168,-216,-104,-107,218,62,-16,-126,-143,-173
-86,-114,33,376,174,14,-16,-63,-38,-72
75,97,208,411,35,6,68,63,116,77
182,145,89,-68,-149,-32,100,138,180,177
52,0,-90,-137,-123,-76,-12,7,23,22
-160,-162,-164,318,13,-72,-73,-162,-208,-207
-402,-291,-29,722,243,53,83,-284,-423,-449
-462,-357,3,164,87,-33,329,-80,-407,-484
-486,-333,151,-6,140,-182,254,34,-400,-491
-172,-92,52,185,262,-153,175,240,-67,-143
196,105,-248,-125,-290,-202,18,363,325,289
181,-1,-413,-613,-514,-155,-132,157,333,313
-8,-133,-369,-629,-126,-7,-318,-238,73,82
-27,-94,-264,-441,310,163,-241,-392,-42,4
43,13,-255,-369,658,275,-36,-198,3,46
156,133,-66,20,638,232,82,88,152,183
203,226,182,269,-160,-23,34,208,245,265
118,208,430,663,-493,-231,-93,87,147,175
126,167,234,181,-302,-141,-9,94,142,174
183,108,19,-302,-80,112,105,143,190,235
202,62,80,-331,-163,112,68,130,198,262
153,2,162,-232,-316,-18,-17,125,182,248
88,-30,174,33,-146,16,-25,104,147,204
148,35,87,0,-84,61,2,138,178,241
166,67,-120,-124,-134,63,25,171,226,259
10,-33,-210,-129,-95,49,-10,83,109,108
-30,-45,-111,-183,-83,2,-44,8,24,44
-40,-58,-70,-148,29,17,-56,-18,-13,24
-185,-162,-82,102,223,30,-93,-146,-165,-126
-241,-198,-93,218,255,1,-126,-211,-232,-200
14,114,147,345,323,99,9,61,-2,37
15,149,57,437,125,-53,22,143,18,55
70,155,0,-42,-238,-491,-43,85,30,80
26,90,53,-110,-113,-312,134,77,42,80
-185,-111,-11,-225,53,111,284,-33,-120,-103
-272,-215,-33,-150,73,256,41,-108,-179,-192
-118,-53,17,-106,-72,184,-165,-40,-49,-49
-30,43,-25,18,5,115,-217,36,20,15
-69,-47,-146,74,171,165,-63,21,-22,-27
4,-79,-317,-87,222,238,174,47,43,56
44,-54,-268,-71,-21,53,125,23,65,92
-9,-3,1,201,-126,-116,-18,-90,-38,14
-21,22,121,190,-41,-66,51,-93,-76,-16
159,179,171,-100,-35,53,43,111,161,190
131,187,150,-49,-18,2,0,65,113,134
7,67,98,63,-30,-82,-88,-47,0,10
-537,-378,-96,193,139,-146,-379,-484,-538,-562
-204,-37,305,829,0,-74,-179,-217,-231,-245
-111,-75,209,360,1215,190,-20,-88,-99,-124
20,-40,-172,78,355,-13,18,79,39,26
148,80,-14,480,-798,-221,69,268,153,147
182,99,20,122,-434,-143,128,380,224,195
213,140,41,-326,-172,8,166,463,241,226
244,193,47,-547,-356,81,124,411,238,253
142,93,-17,-490,-367,-76,-98,130,122,144
31,84,152,-260,-287,-172,-184,-96,7,27
72,204,409,-115,-267,-105,-72,-86,98,94
144,256,419,-253,-164,57,52,-112,102,144
81,115,138,-393,197,237,162,-107,0,63
-14,-153,-257,-426,304,271,229,-6,3,0
-151,-336,-469,-64,60,155,104,-29,-49,-98
-106,-85,-200,24,-565,-320,-250,-222,-162,-148
-24,-15,-40,3,-196,-210,-176,-123,-68,-64
-3,-64,-125,136,272,48,26,5,18,0
146,121,-11,-309,84,113,136,185,169,128
93,83,-4,-23,17,140,148,197,105,72
15,-6,-60,48,103,186,153,148,32,-1
-26,-58,-27,83,65,50,116,59,-15,-47
-8,-20,18,128,-82,-119,221,-20,-34,-35
-57,-14,109,162,-119,-174,357,-129,-110,-76
-117,-86,59,48,-106,-193,135,-146,-137,-128
-146,-115,-33,-137,-32,-81,-146,-178,-147,-141
-88,-79,-68,-208,123,154,-281,-124,-92,-89
-109,-106,-120,-71,252,200,-279,-97,-93,-114
-116,-163,-243,-156,434,206,-121,-78,-96,-119
33,-23,-188,-258,492,192,72,110,75,48
77,103,50,-40,234,126,103,179,133,104
-7,52,205,352,-27,65,-2,7,-35,-23
-38,-75,100,118,72,20,34,29,-39,-21
63,108,247,279,-4,-27,125,191,-23,30
138,209,242,229,-178,-117,137,276,27,62
146,162,40,-54,-358,-264,16,322,126,124
141,153,-5,-34,-298,-191,-100,195,169,156
138,134,-101,-200,-256,-119,-179,-63,111,149
93,38,-148,-448,-122,-34,-186,-229,17,94
55,-24,-81,-449,33,17,-132,-197,-41,47
-86,-138,-40,97,282,21,-126,-188,-132,-84
-206,-186,30,585,211,-27,-152,-216,-209,-184
-90,-39,82,436,-95,-47,-92,-105,-77,-51
73,66,49,202,-102,19,54,90,112,148
113,27,10,162,-125,-16,32,66,87,160
-503,-393,-257,-174,38,-99,-323,-490,-525,-495
-667,-560,-236,499,749,-3,-317,-528,-610,-669
-104,-49,232,1158,393,-72,-109,-111,-68,-101
437,390,410,1076,-234,-27,193,387,482,461
548,508,421,318,-498,0,303,496,580,558
328,327,247,-281,-341,-41,148,255,315,316
68,105,59,-660,-239,-147,-107,-52,-4,47
-40,39,-21,-722,-217,-140,-114,-143,-105,-65
-60,52,75,-341,-162,-103,-32,-135,-103,-70
12,93,66,-231,-83,-21,133,94,30,32
10,53,-55,-274,-39,13,267,291,120,77
-20,37,4,-333,31,-47,178,245,100,49
0,3,-9,-428,25,-98,58,174,82,58
39,-29,-99,-190,-104,-110,22,119,94,83
120,10,-112,52,-146,-17,96,70,100,136
56,-36,-241,25,15,185,120,-87,22,83
-95,-143,-237,231,47,155,-21,-214,-95,-65
-173,-156,-133,380,145,26,-91,-241,-149,-152
-133,-119,-274,25,718,144,22,-125,-70,-98
-49,-75,-308,-320,685,296,167,6,30,-13
93,46,-73,-355,-342,90,115,56,99,97
153,142,140,-191,-580,-80,15,65,111,136
11,77,170,30,-187,-78,-87,-65,-41,-5
-78,-8,83,-24,27,19,-75,-125,-124,-100
-159,-143,-53,-9,217,160,9,-110,-129,-154
-206,-238,-201,127,392,276,89,-52,-108,-162
-92,-87,109,226,27,11,-40,-1,-32,-73
-230,-121,213,531,-6,-139,-223,-161,-208,-246
-259,-132,118,185,-12,-195,-295,-248,-269,-303
-121,-44,63,-230,82,-47,-142,-107,-97,-143
-20,29,248,10,306,27,-39,-66,-23,-21
0,89,349,543,164,-127,56,-188,-63,-22
92,145,196,791,3,-147,476,-33,29,74
257,168,-118,-60,-197,-195,736,248,228,262
306,161,-252,-439,-275,-130,697,325,286,303
108,9,-230,-435,-14,282,462,84,92,121
-28,-94,-212,-489,167,409,-116,-76,-26,13
9,-21,-106,-317,-36,89,-436,0,24,51
94,75,8,-156,-320,-164,-491,14,68,114
107,89,16,-144,-252,-150,-307,24,128,139
-7,18,-51,-195,-18,-20,-165,1,63,28
-229,-108,51,-155,156,-58,-282,-253,-274,-250
-359,-152,360,127,271,-95,-346,-392,-457,-442
-227,-24,367,255,9,-157,-216,-167,-297,-300
-96,2,48,563,-214,-205,-101,20,-111,-126
-121,-163,-306,473,-179,-165,-52,70,-29,-84
-148,-306,-517,216,37,-29,10,161,47,-59
-131,-269,-561,2,269,104,49,145,87,-53
-137,-202,-484,-540,101,-18,-113,-115,-21,-109
-319,-213,82,356,850,181,-210,-381,-349,-373
-480,-324,98,1086,1774,530,-66,-385,-450,-516
-239,-100,462,1783,1163,345,-20,-233,-225,-256
306,380,732,1017,-778,-268,-67,60,180,264
593,524,123,-1061,-1174,-227,127,347,466,555
182,29,-450,-1198,-230,173,225,202,220,201
-312,-405,-476,2,91,67,21,-217,-267,-301
-344,-317,-289,283,-57,-78,-44,-340,-378,-384
43,-30,-292,-615,-301,-111,91,-112,-39,1
469,326,-105,-958,-454,0,267,219,354,429
537,508,325,-291,-369,73,222,277,366,450
446,470,460,-223,-359,-24,142,287,340,383
316,358,373,-319,-251,2,215,336,334,316
135,103,232,-154,-106,82,301,278,216,179
126,-36,81,-100,-117,45,331,210,162,173
78,-95,-58,-59,-97,36,290,161,109,134
-66,-175,-103,185,-23,12,47,4,-47,-27
-175,-219,-47,187,33,-72,-203,-37,-183,-180
-181,-227,-162,-239,134,-96,-180,159,-160,-193
-153,-168,-166,-367,357,35,-115,200,-106,-170
-154,-147,-158,-220,350,69,-141,86,-106,-179
-308,-269,-101,24,327,-66,-329,-258,-273,-350
-433,-340,47,565,291,-278,-530,-546,-425,-464
-66,-94,92,207,-101,-225,-284,-262,-87,-59
296,171,65,-51,-270,-21,43,209,317,366
266,159,-12,60,-117,123,96,237,285,335
45,-21,-126,-51,-36,68,-26,-25,59,67
-33,-20,15,312,106,64,-56,-114,-12,-37
-75,-10,96,545,118,20,-130,-162,-97,-104
-174,-140,-70,381,27,-77,-207,-240,-242,-238
-120,-104,48,261,-129,-149,-91,-105,-199,-182
133,68,126,297,-84,-95,191,234,137,127
237,97,4,-316,-165,-162,331,439,299,260
259,99,-28,-321,-355,-265,267,459,366,295
228,107,-6,-177,-283,-206,149,273,340,268
109,70,-63,-310,-61,42,8,-9,147,117
69,27,-43,-382,1,144,-154,-116,37,43
49,35,112,-50,-64,29,-152,-167,-28,-5
-72,-71,12,200,-25,78,9,-172,-115,-92
-90,-126,-102,313,117,80,-27,-150,-124,-97
-35,-70,-143,76,51,34,-51,-97,-66,-57
-38,-39,-158,-226,63,76,2,-46,-51,-61
59,66,-3,-372,-23,77,64,42,44,15
110,79,-19,-292,-62,91,88,75,86,36
57,42,166,-21,-83,94,25,11,3,-28
-110,-69,329,378,-48,-7,-158,-174,-208,-214
-340,-202,485,1144,313,-26,-311,-394,-451,-472
-263,-205,207,572,871,158,-142,-245,-312,-348
14,-94,-162,-520,934,467,263,142,52,-4
110,55,95,-260,1,303,253,178,120,71
179,218,368,-237,-738,-80,51,97,130,111
125,49,-47,-697,-608,-177,-29,35,89,87
76,-65,-313,-471,-213,-77,-3,42,70,58
136,-16,-240,112,-83,-3,41,96,124,118
93,-62,-239,46,-203,-29,28,100,122,112
57,-38,-55,-208,-175,-48,2,65,80,55
81,20,61,-341,-49,-46,11,74,82,66
102,67,54,-208,-27,-33,66,171,104,95
97,48,0,70,-156,-68,96,311,91,64
31,-32,-49,88,-156,-68,66,291,20,-5
49,-38,-128,-31,-125,-67,-34,178,42,24
72,0,-109,-97,-62,-49,-111,58,64,47
14,-27,-28,-140,35,35,-80,-49,-2,-17
-87,-76,30,-94,116,147,-51,-202,-152,-147
-121,-32,115,161,148,180,-25,-286,-209,-181
-35,98,208,335,193,85,-7,-183,-105,-69
-59,58,61,88,281,95,-16,-121,-98,-67
-66,-29,-251,-170,62,159,25,-51,-60,-18
22,-35,-261,-153,-170,71,36,20,48,86
87,99,3,-308,-67,0,51,24,61,74
40,122,166,-9,25,-12,11,1,16,23
-37,90,96,107,32,3,-15,-1,-18,-33
-142,-25,-25,254,-42,-54,-78,-101,-105,-151
-173,-124,-137,-26,-94,-113,-109,-140,-155,-183
-83,-77,-68,-130,16,-114,-70,-62,-80,-92
-129,-29,25,254,406,-79,-145,-145,-171,-167
-224,-81,-222,88,512,106,-124,-201,-236,-240
-183,-16,93,346,294,204,-57,-144,-147,-184
-76,173,699,1114,-33,13,-94,-110,-86,-93
-65,191,650,942,-264,-20,48,-92,-111,-105
-149,-17,242,400,-203,25,243,-117,-160,-190
-162,-132,92,-73,-277,-126,229,-177,-186,-206
30,-106,-330,-598,-234,-59,410,51,40,24
133,-66,-282,-223,90,65,314,135,180,164
151,-16,-117,244,207,121,215,206,266,201
215,52,-188,-163,-156,32,134,384,325,239
228,133,-141,-382,-341,-58,-189,372,297,221
106,84,-48,-343,-232,-97,-376,207,138,92
24,49,93,-160,-22,-97,-295,108,-17,-6
90,103,197,-35,41,-78,-201,63,63,64
116,88,85,191,184,16,-164,-71,72,93
41,-3,-147,383,236,84,-88,-144,-34,9
108,14,-296,-72,-90,-8,-20,-59,0,70
216,144,-120,-354,-188,-26,37,36,108,157
205,168,56,-341,-237,-59,0,46,106,135
142,137,186,-104,-203,-47,-46,14,40,87
52,69,175,32,-77,-10,-84,-33,-22,14
-36,-41,-26,-63,12,-30,-119,-94,-81,-58
-132,-152,-149,32,86,-12,-123,-122,-148,-127
-127,-101,-80,107,156,9,-74,-137,-161,-142
-119,-25,-11,-26,180,41,-41,-154,-179,-154
-145,-49,-152,-373,316,110,-14,-121,-164,-168
-184,-106,-78,-224,591,174,11,-111,-167,-201
-215,-190,-18,-6,668,147,-11,-102,-146,-196
-298,-260,76,643,352,-29,-157,-211,-225,-276
-104,-79,282,1106,-209,-151,-99,-73,-72,-89
114,90,39,-71,-294,-64,63,100,97,99
-220,-214,-483,-753,721,234,54,-108,-204,-235
-668,-612,-563,555,1505,259,-183,-440,-573,-668
-539,-483,-278,1758,588,56,-240,-358,-442,-539
190,140,64,1034,-737,-166,-26,142,174,172
570,541,380,154,-568,-83,134,396,486,538
531,538,295,-496,-489,-44,157,401,483,539
357,352,188,-681,-484,-3,163,340,376,392
198,246,301,-616,-371,-8,83,180,203,214
67,57,123,-645,-217,-43,-1,44,91,99
73,55,78,-529,-221,-38,-7,59,142,130
150,183,170,-164,-355,-84,-10,80,155,194
193,231,115,-84,-280,-47,20,103,120,198
168,120,-95,-165,-104,37,97,171,75,150
39,-69,-212,-129,-5,86,222,322,55,80
-43,-128,-144,-104,-63,-10,193,319,69,41
-80,-103,15,-103,-136,-140,15,178,21,-1
-20,3,44,-144,-126,-147,-99,11,11,27
65,82,23,-206,-58,-20,-80,-99,59,124
98,72,12,-154,22,90,-19,-161,67,151
10,-61,-68,-158,45,70,2,-152,-2,71
-209,-227,-66,19,44,-59,-134,-263,-208,-147
-321,-226,240,633,98,-116,-211,-331,-312,-270
-157,-67,440,815,230,-6,-57,-165,-159,-132
18,32,200,230,343,114,77,28,28,30
101,83,-183,-314,101,156,184,221,176,146
136,103,-211,-491,-231,57,147,238,182,154
61,23,-108,-348,-223,-52,17,130,88,73
15,-12,-144,-257,-130,-42,-7,78,36,44
-80,-70,-101,-57,10,-28,-98,-136,-102,-55
-228,-194,-86,-146,164,10,-172,-339,-258,-222
-334,-291,-239,-374,284,26,-184,-375,-329,-317
-141,-99,-138,-190,121,-50,-92,-163,-122,-114
112,150,168,267,-189,-114,5,39,82,129
127,143,174,101,-220,-63,35,82,111,148
99,39,-85,-97,-49,28,70,94,113,121
72,14,-109,-57,10,39,71,77,108,84
14,-23,-106,-24,56,47,60,41,47,14
-108,-128,-183,91,245,17,-21,-87,-80,-119
-80,-56,-176,288,291,-37,-72,-99,-75,-86
65,165,-64,213,25,17,49,68,90,67
-86,8,69,-158,26,153,75,-32,-79,-79
-290,-273,-267,-85,388,131,-35,-160,-249,-282
-285,-363,-415,-227,364,80,-47,-52,-194,-263
-8,-84,-46,111,-97,-50,6,187,60,18
249,298,398,165,-327,-181,205,168,208,221
194,237,305,260,-336,-69,415,162,212,208
119,88,67,270,-184,16,367,27,146,141
5,-67,-187,-119,17,59,80,-125,5,10
19,48,-97,-543,-57,-50,-260,-84,-30,-22
29,154,-59,-260,-237,-134,-301,-149,-75,-38
-54,81,39,-55,-119,-84,-215,-197,-173,-122
-50,20,91,53,-29,-108,-139,-162,-146,-103
-24,-32,59,405,-25,-105,-77,-61,-44,-44
-138,-228,-85,356,-91,-133,-52,6,-63,-105
-216,-313,-10,305,-17,-68,15,26,-124,-165
-51,-143,216,100,-40,239,366,134,14,-5
101,-17,168,-175,-208,284,586,224,152,132
19,-66,6,-79,-161,97,356,-3,25,2
-42,-42,-5,172,16,-95,-229,-230,-22,-57
104,84,167,144,60,-31,-178,56,122,85
242,196,204,33,72,55,-159,224,211,226
261,168,-50,-221,9,27,-35,181,213,233
113,43,-133,-268,73,31,89,82,92,91
-156,-83,82,225,175,10,-5,-125,-163,-185
-294,-53,468,1373,195,-77,-219,-298,-322,-348
-162,66,456,988,40,-91,-275,-208,-192,-221
8,-26,-137,-771,70,27,-135,72,63,14
168,-67,-526,-1381,134,140,56,315,307,243
171,-6,-275,-317,89,73,63,253,279,236
135,116,32,366,-92,-9,62,126,166,160
11,94,183,322,-91,-29,-3,-13,4,14
-61,30,23,29,-36,-35,4,97,-65,-66
-41,0,-142,-207,-103,-79,90,325,-12,-50
-34,-62,32,-76,-115,-158,72,372,29,-18
36,37,205,-63,-225,-220,-109,114,76,53
75,114,-6,-281,-194,-146,-72,-179,9,61
89,212,-54,-207,-101,-71,40,-329,-43,57
87,229,6,-178,-36,-110,165,-236,-36,45
103,206,126,-238,-107,-211,240,20,80,95
108,195,205,-85,-16,-142,124,157,138,129
44,-17,8,36,82,73,21,71,88,78
-7,-178,-139,89,73,260,41,-50,43,36
-114,-256,-118,122,150,266,-76,-109,-61,-86
-244,-278,11,161,227,190,-134,-199,-206,-244
-265,-256,67,200,214,80,-185,-258,-241,-259
-233,-257,-124,186,350,51,-164,-214,-192,-211
-197,-228,-307,137,561,82,-115,-145,-130,-154
6,-86,-309,174,485,130,1,35,56,46
105,47,-79,613,514,182,45,76,96,106
18,-52,-162,-783,-87,67,-5,-7,10,35
258,186,117,-267,-336,-16,95,167,201,268
129,85,51,-30,-98,42,72,76,74,128
-61,-61,-24,186,29,4,-23,13,-92,-66
-112,-120,-106,30,128,28,121,265,-78,-123
7,41,56,-5,-41,-13,319,470,68,-5
121,214,301,132,-427,-159,378,399,124,76
69,77,48,-176,-355,-86,197,-204,-26,20
17,26,123,-123,55,212,61,-435,-76,10
38,84,174,-60,191,189,-109,-297,-36,23
135,252,317,116,-84,-101,-292,-98,62,83
109,152,203,89,-291,-228,-412,-132,12,68
-100,-178,-211,140,-354,-309,-420,-274,-164,-105
-106,-223,-312,279,-304,-231,-218,-186,-136,-98
178,49,-123,-108,-135,34,97,131,139,175
203,97,66,-234,133,210,220,230,190,227
67,22,94,-7,121,112,90,97,80,116
76,62,27,162,57,17,-25,35,61,125
49,14,-136,-67,-24,-30,-76,0,-3,76
-62,-62,-28,-9,-36,-49,-53,-16,-100,-47
-81,-55,44,118,1,-20,-13,30,-111,-72
-67,-81,-277,-479,-39,-65,-130,-67,-109,-82
-204,-92,-121,-150,-89,-173,-219,-257,-160,-198
-111,56,121,188,-154,-107,-138,-178,-102,-131
-172,-33,163,188,57,-9,-93,-189,-204,-208
17,20,64,-276,134,70,63,14,5,5
151,107,-9,-446,192,119,223,138,150,151
94,103,154,-51,184,112,280,113,88,81
140,169,331,188,-25,-52,224,101,89,110
205,172,125,-6,-30,-176,220,212,210,215
148,4,-204,-130,-96,-242,175,232,221,192
50,-102,-149,-153,-153,-65,-58,94,84,65
37,-53,44,55,-109,134,-190,20,23,33
122,60,114,200,-92,89,-113,6,35,80
163,109,111,122,-105,-7,-111,-43,17,82
81,53,104,187,-108,-59,-141,-88,-47,21
-40,-35,-5,70,-65,-66,-107,-119,-101,-90
-99,-54,-21,-134,-9,-37,-55,-103,-99,-139
-45,-56,-139,-255,-8,10,13,-14,-25,-56
-15,-84,-196,-85,63,71,91,43,17,-23
-30,-67,-61,196,163,109,97,20,-25,-58
-106,-98,89,318,218,104,47,-49,-100,-149
-22,-47,-198,-191,66,63,46,18,-7,-74
64,34,-112,-382,108,76,75,95,88,23
-10,21,-75,112,162,48,-33,21,4,-38
40,24,-90,-19,-183,-45,-39,55,54,34
13,-2,-96,-147,-97,-37,-48,40,50,20
-183,-141,-135,-74,128,63,-110,-111,-155,-178
-270,-201,-152,159,195,86,-133,-179,-245,-270
-83,-72,-68,16,79,28,-41,-17,-48,-76
113,143,156,192,-21,-25,13,86,100,110
148,205,169,211,-89,4,21,83,109,126
84,153,38,-36,-144,-35,42,59,76,52
36,113,-8,-215,-108,-55,44,18,3,-21
-55,32,-105,-467,56,-26,63,-61,-100,-113
-136,-59,-216,-622,210,80,248,-53,-115,-154
-61,-51,-234,-244,117,163,454,63,-4,-40
37,11,-93,192,-7,160,470,175,107,80
-18,-7,31,301,3,122,248,175,105,42
-75,-79,73,169,15,8,-51,117,28,-16
-4,-44,120,179,-4,-205,-223,91,49,48
-87,-23,168,397,-23,-318,-355,-123,-116,-75
-183,-59,117,294,2,-187,-224,-199,-209,-181
-24,31,38,-167,-86,46,-34,-52,-38,-11
55,95,16,-103,-11,168,-97,-6,28,49
6,114,166,151,50,61,-159,-43,-11,-20
-57,12,44,64,37,-18,-134,-89,-63,-77
-157,-141,-99,265,88,-58,-176,-177,-166,-154
-254,-241,-90,592,115,-69,-210,-244,-244,-239
-234,-216,-4,282,-29,-114,-174,-188,-225,-232
-123,-53,209,-236,-5,-79,-127,-135,-155,-161
-105,47,408,-188,174,-43,-140,-176,-144,-148
8,223,696,754,244,-105,-203,-129,-78,-47
199,388,720,1093,122,-45,-69,42,84,144
202,258,332,218,-5,109,81,141,156,169
152,41,-276,-691,-155,149,143,188,195,164
45,-165,-676,-794,-214,57,63,119,110,74
9,-205,-540,-498,-156,17,24,109,82,36
91,-29,-143,-207,-41,50,67,152,136,98
47,72,109,50,76,41,-18,24,13,12
150,122,-458,-457,-236,-59,-42,82,116,109
193,93,-257,-133,-188,-26,44,128,129,157
138,11,-45,-39,4,95,116,136,128,147
6,-123,-163,-118,69,109,154,158,48,34
-72,-173,-210,-75,105,115,186,198,5,-43
-68,-128,-207,86,53,63,157,178,13,-44
-76,-29,-7,335,-39,-24,33,98,-13,-47
-234,-280,-467,-477,586,169,-7,-230,-204,-222
-114,-158,-292,-550,345,193,100,60,-55,-106
100,59,15,-144,-236,50,168,327,152,94
98,104,99,337,-48,-26,94,244,143,87
-29,-6,-8,53,162,-34,-32,-28,16,-19
0,43,66,46,-122,-63,-74,-160,10,-6
-17,40,99,326,-331,-109,-157,-328,-91,-60
-118,-104,17,346,-60,-4,-120,-361,-169,-160
-103,-141,9,224,237,74,-17,-199,-81,-101
-42,-54,121,216,311,116,85,-64,-13,-36
28,33,181,121,-17,69,212,13,22,4
3,-1,-88,-191,-138,89,521,160,24,-15
-7,-34,-156,-36,-24,151,663,305,65,14
131,139,86,85,-183,129,516,369,187,142
179,210,201,-175,-421,-104,-2,227,170,151
1,127,257,-30,-316,-306,-436,-119,-63,-42
-132,37,387,92,-244,-367,-600,-399,-226,-181
-187,-44,393,-6,-90,-306,-610,-519,-279,-236
-140,-150,101,-139,80,-164,-327,-339,-143,-136
175,28,56,-188,94,0,42,25,230,215
298,201,81,-28,268,211,245,176,342,334
156,31,-146,-80,242,336,227,147,218,193
75,-51,-165,126,-16,71,-54,68,125,118
-81,-105,-34,413,-120,-150,-306,-170,-102,-79
-182,-146,71,608,-76,-181,-290,-215,-221,-201
-6,76,353,309,188,72,47,149,-1,-15
-100,19,259,205,113,-44,-123,11,-60,-103
0,37,39,-185,-211,-172,-162,95,95,25
103,73,-140,-203,-354,-188,-102,155,146,119
150,179,-105,-157,-20,42,6,88,134,153
178,180,-221,-649,13,84,-4,55,160,191
134,30,-313,-553,-44,-5,-64,91,164,154
11,-100,-248,162,66,-22,-121,-51,4,9
-102,-166,-295,147,147,97,-36,-193,-125,-96
-268,-334,-317,58,627,194,15,-158,-178,-182
-9,-69,-136,-327,290,206,415,99,35,64
182,183,211,-188,-323,86,628,208,158,223
170,212,355,0,-501,-37,542,146,136,194
32,95,278,-16,-212,-30,272,-19,8,46
-83,45,353,250,-22,-5,-331,-201,-163,-114
44,115,219,122,-88,-106,-370,-49,-5,29
71,48,-52,-191,-86,-92,-263,-7,51,72
-23,-81,-286,-51,59,17,-120,-26,-9,3
-15,-117,-419,-54,62,98,18,49,45,41
-71,-122,-228,-106,-2,102,19,-3,-18,-24
-154,-117,-25,-13,14,93,5,-102,-135,-126
-141,-82,-11,0,-34,14,-42,-141,-152,-124
-95,-8,-16,-90,-29,-36,-107,-126,-113,-112
-194,-102,-64,-161,328,113,-56,-134,-195,-213
-124,-88,-117,-158,636,223,88,51,-79,-98
77,131,56,85,488,100,-34,135,83,102
151,243,201,137,-25,-119,-201,67,125,144
134,166,170,151,-187,-34,-21,101,180,131
148,114,189,88,-223,-40,200,143,190,129
61,82,182,35,-94,-22,191,127,172,55
23,87,207,99,-49,-33,101,34,14,-50
32,111,194,110,-72,-79,6,-5,-57,-68
49,32,60,45,-119,-168,-103,26,-3,-1
78,-4,-22,17,-145,-240,-90,73,50,68
38,12,-21,-60,-161,-227,-41,37,15,39
-25,-11,-46,-180,-123,-39,5,-19,-39,-21
-125,-90,-133,-245,62,262,-15,-63,-93,-112
-174,-145,-154,-124,237,254,-120,-112,-135,-154
-109,-69,-58,14,159,123,-90,-81,-90,-100
-32,18,58,90,103,89,-9,-38,-37,-53
-79,25,190,276,113,82,54,-101,-95,-130
-156,-55,118,209,-17,77,219,-113,-142,-196
-209,-150,-57,5,109,151,322,-120,-183,-243
-109,-41,-30,344,223,176,302,-50,-46,-151
60,186,250,1001,-45,-34,-28,-31,73,10
99,134,36,294,-193,-163,-262,12,67,60
85,36,-208,-516,-29,-42,-225,100,89,69
79,3,-218,-818,-125,1,-147,95,86,81
13,-52,-99,-432,-243,-128,-198,-47,-25,-10
-90,-87,71,279,-321,-275,-322,-223,-179,-140
-219,-153,140,590,-280,-349,-374,-282,-269,-260
-69,-24,94,127,-248,-201,-83,106,-39,-99
95,88,92,-293,-38,73,255,431,175,92
93,48,39,-293,17,88,211,400,173,105
95,4,-128,-318,-23,51,84,265,161,109
101,31,-255,-288,-66,85,54,28,133,111
-31,-5,-63,275,89,144,11,-283,-78,-59
-234,-126,110,742,406,156,-117,-476,-304,-278
-103,-69,-87,278,410,106,-99,-275,-159,-127
-4,9,-235,-127,51,-44,-56,-121,-57,-36
-195,-25,317,533,-327,-369,-316,-313,-339,-293
-293,-28,455,294,-224,-329,-442,-402,-452,-407
116,97,-89,-428,442,297,186,185,168,149
93,-116,-280,226,187,87,172,176,186,183
151,51,-163,-390,35,133,185,245,201,211
224,153,16,-556,-166,108,209,351,256,257
118,-38,-170,-562,91,145,240,373,179,157
-98,-260,-274,-176,492,205,276,377,14,-47
-171,-305,-185,343,373,41,146,237,-65,-132
-29,-94,134,464,0,-169,-42,46,-24,-26
206,161,287,53,-406,-199,-46,-7,135,191
170,82,56,-151,-137,27,30,-98,63,147
114,-1,-98,-170,-71,56,112,76,46,95
153,72,-63,-283,-232,-10,94,177,101,144
186,118,-68,-389,-341,-108,44,151,140,167
140,109,-45,23,-220,-186,-86,-41,63,103
145,171,42,189,-79,-142,-130,-161,32,83
142,233,158,149,-73,-153,-99,-107,52,76
-19,141,263,261,-42,-111,-130,-111,-50,-67
-216,-26,440,429,28,45,-180,-219,-216,-245
-162,-31,488,313,-51,-24,-208,-201,-157,-192
86,36,74,-221,-69,87,116,62,116,102
-22,-59,-87,-255,96,186,155,-35,18,-10
4,-13,-80,25,-42,-17,-11,-55,-10,-4
-109,-160,-183,250,21,-13,-6,-68,-79,-88
-159,-192,-105,379,168,54,-7,-86,-109,-139
-120,-105,-111,13,70,14,-19,-84,-105,-96
-83,-66,-205,460,227,-64,-88,-150,-128,-106
198,97,-195,-222,13,82,170,166,181,199
193,72,-151,-394,-25,195,251,239,215,224
131,47,-107,-345,-159,46,133,166,129,149
114,80,21,-101,-40,-27,49,99,89,130
54,38,112,51,16,-65,-77,-1,19,76
-32,-63,-2,-139,-89,-89,-131,-63,-49,-9
-120,-156,-259,-249,84,2,-84,-105,-140,-107
-90,-122,-336,-205,175,74,-22,-95,-118,-86
-5,-17,-111,-209,94,94,5,-30,-40,-4
81,96,107,-326,116,102,19,-3,15,68
49,80,209,20,100,67,-16,-46,-35,28
-11,27,261,392,-77,15,0,-17,-39,-23
-27,8,147,88,-103,-12,10,27,-10,-24
-7,5,46,55,-6,-60,-36,15,-5,-25
-90,-68,29,283,115,-47,-94,-97,-121,-125
-197,-194,-173,63,16,3,-91,-143,-191,-210
-116,-143,-304,-182,-17,2,-22,-64,-104,-125
46,39,-43,-2,91,36,41,47,26,34
149,168,191,104,165,57,82,109,131,150
115,169,200,15,136,34,109,110,124,115
-11,16,10,-128,21,23,22,35,7,-28
-140,-41,50,111,559,177,180,-66,-73,-151
-109,-14,23,364,371,88,444,-100,-90,-136
62,135,51,22,-154,0,588,85,76,28
211,244,233,41,-552,-9,524,236,227,187
71,66,53,-27,-468,-76,94,113,123,83
-17,-74,-175,-188,-315,-237,-348,81,35,5
-16,-21,-120,-200,-260,-255,-350,256,58,23
-23,38,49,15,-189,-202,-268,250,64,27
28,77,160,73,-135,-188,-240,91,59,58
105,186,210,-25,-102,-135,-191,46,134,108
126,252,257,-80,-62,-72,-115,-14,105,86
83,198,270,-69,-3,7,-46,-117,2,28
-238,-287,-293,-7,89,109,25,-261,-198,-216
-437,-350,-178,-55,294,210,-47,-380,-394,-449
-368,-195,182,49,244,203,-50,-357,-341,-387
-144,-17,489,528,71,35,-60,-220,-141,-158
238,195,-235,-291,-98,-59,70,196,234,283
98,59,-258,-172,-67,-82,-70,57,87,128
22,62,-178,-171,-39,-52,76,35,58,59
-10,-91,-194,47,-65,-2,363,-15,-18,4
120,-95,-210,-154,-143,-5,154,88,147,187
95,0,77,-49,-63,112,-52,126,173,177
15,44,235,266,1,51,-225,62,64,72
10,62,127,129,-31,-35,-280,-34,13,39
13,22,-197,-298,-6,55,-77,-20,37,53
-2,-68,-352,-419,79,135,91,8,30,36
10,-29,-49,94,162,74,43,-28,16,22
-22,0,92,571,271,-27,-25,-68,-38,-24
218,193,149,-206,-273,-55,-59,229,181,181
68,89,118,-184,-176,-75,-118,58,52,29
-147,-38,121,20,-26,-102,-215,-243,-172,-199
-254,-116,3,-168,275,27,-205,-389,-292,-312
-230,-208,-423,-528,460,211,-55,-244,-250,-258
-226,-289,-525,91,573,253,-18,-121,-188,-226
-62,-68,120,383,55,-79,-98,28,-77,-93
100,69,81,371,-198,-45,0,148,96,88
202,110,-149,0,-352,-99,29,236,257,227
156,178,-16,-131,-230,-91,25,170,197,171
65,161,320,99,-338,-287,4,126,55,44
25,79,195,-66,-229,-247,54,166,90,37
-15,-67,-22,-109,-88,-155,81,161,82,30
-221,-186,-139,-154,102,48,15,-155,-204,-235
-25,8,48,-127,39,-53,-65,-56,-37,-42
59,96,267,211,4,-5,-65,-120,39,42
90,124,358,399,59,98,-62,-256,16,72
92,11,232,511,56,122,9,-223,48,108
-37,-182,49,434,63,59,-14,-154,0,-5
-104,-174,-66,76,38,5,-51,-116,-50,-83
-118,-61,-106,-220,113,53,-11,-109,-74,-123
32,11,-286,-535,94,74,81,-3,37,18
289,122,-249,-557,5,109,211,190,252,275
308,166,69,113,-18,149,249,234,274,298
150,39,53,116,-71,95,174,116,134,151
52,-40,52,8,-17,58,111,32,59,48
46,-28,134,114,49,82,103,31,53,49
-29,-38,103,252,188,106,48,-34,-2,-31
-64,-73,-137,42,222,64,7,-39,-41,-76
102,78,-36,-235,-116,25,105,118,102,75
131,127,128,-174,-251,-60,82,115,124,93
3,30,103,-30,-45,-24,-1,-8,-13,-17
-17,6,84,81,37,38,38,-3,-23,-39
-75,-72,-33,204,-21,-30,49,86,-54,-80
-108,-121,-233,-201,-42,-94,26,119,-72,-94
-190,-187,-242,-158,247,-22,-43,40,-119,-153
-189,-128,-107,-32,300,-7,-130,-66,-110,-146
-49,52,125,-79,-11,-47,-152,-133,-40,-24
-75,30,176,-173,-108,-33,-150,-213,-124,-92
-304,-155,69,-197,49,-17,-145,-258,-277,-323
-102,-12,17,-149,-107,-24,-20,23,0,-62
140,182,135,220,-157,-71,-57,89,133,168
119,208,197,261,-113,-60,-69,17,48,111
33,64,23,-180,-118,37,60,24,23,46
113,28,-42,-81,-82,77,115,87,129,149
95,-62,-130,150,-39,29,65,85,112,137
-59,-163,-176,198,23,27,62,42,-14,-25
-12,-30,97,193,123,33,45,9,-25,-19
-185,-123,178,424,108,-17,-82,-155,-203,-210
-450,-344,-81,601,75,-136,-288,-406,-459,-482
-252,-227,-229,-737,176,47,-103,-223,-271,-267
-23,-81,-248,-1189,352,280,141,78,31,30
219,158,-31,-334,36,170,252,278,289,274
127,116,116,490,-134,-126,-63,124,104,138
104,10,-167,-131,-141,-70,-38,134,143,143
122,80,-30,-226,-227,-87,17,113,118,119
-88,-39,-107,92,-234,-230,-145,-144,-137,-114
-35,18,-152,96,-102,-104,-25,-81,-57,-58
2,172,511,559,181,30,46,-30,-44,-45
27,162,416,617,178,48,50,-10,-41,-13
73,135,82,269,33,-6,36,29,0,46
79,85,-71,-190,-174,-91,8,57,44,67
31,-11,-146,-383,-210,-141,44,53,41,35
10,-84,-236,-294,-66,-58,146,110,75,44
-89,-178,-162,3,70,-30,100,23,-22,-65
-183,-260,-42,283,198,31,-3,-58,-109,-151
166,61,-111,-118,2,30,-141,83,121,144
123,37,-252,-187,-12,40,-59,44,63,85
-9,-49,-89,-6,117,56,-51,-34,-54,-45
-68,-146,-66,170,197,87,9,-16,-55,-74
-94,-132,-71,173,327,139,44,-4,-41,-92
-56,-59,-140,-305,316,141,49,-4,-43,-74
37,42,-28,-339,111,24,44,36,39,27
144,156,173,12,19,-59,26,77,96,110
79,107,33,-21,414,89,70,84,37,61
60,19,-231,17,419,176,131,128,79,71
84,94,50,745,-168,-55,5,73,66,60
-1,90,232,148,-232,-155,-63,-6,-10,-25
106,131,160,-307,-210,-70,12,61,94,99
114,103,91,-263,-142,-18,4,90,99,124
59,68,135,16,-169,-50,-36,2,32,52
38,24,-8,74,-99,-2,-30,-52,14,14
2,-35,-134,21,-158,-69,-24,101,47,8
-17,-38,-60,76,-71,-52,-27,118,26,-1
-48,-52,66,194,-20,-74,-48,94,-8,-19
-19,-54,61,159,-79,-93,-41,49,0,2
35,7,-16,-15,-113,-35,3,9,28,52
46,69,-89,-150,-86,19,-16,-100,-11,54
-45,42,42,121,0,11,-28,-247,-109,-85
-107,24,217,342,80,-57,-50,-278,-172,-170
-5,94,207,82,84,-74,-3,-86,-44,-51
78,132,114,-312,-14,-41,21,41,70,34
-82,-225,-588,-718,111,156,-40,-55,-40,-71
8,-59,-285,199,102,23,-32,17,15,6
134,199,0,504,-175,-77,97,270,78,80
101,239,-104,-182,-302,-116,246,419,50,28
-103,132,-104,-255,-255,-144,130,258,-94,-149
-278,41,-28,-26,-185,-154,37,1,-227,-318
-224,16,88,-78,-79,-34,136,-263,-210,-255
18,48,297,4,33,150,223,-432,-38,-3
151,-1,344,162,35,188,51,-402,36,130
97,-120,-13,-96,-110,71,-63,-142,86,120
14,-184,-188,-225,-165,-13,95,47,100,50
-87,-249,-136,-145,-62,143,352,164,5,-56
-63,-204,-92,-102,-2,226,490,292,41,-27
63,-54,8,-59,-24,3,91,204,113,81
105,31,113,-30,-5,-220,-422,-17,57,90
40,2,99,-108,56,-254,-504,-48,-6,4
-34,-36,-1,-168,127,-139,-389,-194,-108,-91
-14,-12,-13,7,128,26,-143,-269,-88,-60
51,41,173,369,43,59,68,-70,40,55
-4,17,180,371,-70,-43,-14,-52,10,12
-128,-49,127,397,2,0,-156,-160,-104,-115
-25,-15,47,319,63,104,-78,-54,2,-11
59,28,17,79,89,125,-12,31,97,89
15,-15,23,-106,140,179,23,-18,21,29
-64,-64,43,-151,44,129,-5,-104,-76,-66
-105,-80,-14,-117,115,106,-11,-157,-143,-121
-9,-29,-151,-193,167,87,-9,-113,-63,-31
39,22,-121,16,73,-4,-69,-77,-22,12
108,116,9,42,-24,-23,-52,51,59,88
178,140,1,-288,-70,16,-14,172,182,199
49,23,-25,-249,196,69,-51,81,97,93
-64,-79,-18,4,469,168,-10,27,-8,-16
-129,-142,-48,300,207,100,-69,-56,-105,-107
-209,-228,-150,166,-244,-90,-174,-141,-184,-189
-181,-229,-314,-160,-122,-115,-145,-79,-132,-152
-67,-91,-183,28,87,-50,-107,-11,-2,-28
49,92,279,469,-157,-145,-194,-37,27,47
-2,133,418,196,-401,-256,-264,-142,-93,-36
-13,100,286,-276,-355,-164,-120,-111,-100,-41
-19,-122,-229,127,63,111,187,85,64,33
119,-1,-427,-149,95,140,224,209,214,180
185,102,-177,-125,149,133,201,233,238,232
196,89,-15,-149,-16,28,229,216,203,244
143,88,0,-116,-6,-44,251,192,154,194
58,28,19,-93,25,-106,194,146,90,106
-64,-50,137,169,64,-159,73,37,-29,-21
-73,-7,158,196,76,-83,12,-48,-90,-52
27,78,68,163,-27,126,-13,-58,-37,9
118,175,81,328,-30,121,-59,6,93,106
55,105,8,60,17,-8,-76,-15,82,81
-114,-100,-262,-520,96,42,-33,-36,-27,-58
-130,-74,-160,-392,146,113,60,85,-74,-87
42,121,151,109,-48,36,160,242,29,66
37,100,230,33,-119,-77,155,187,47,70
-106,-40,22,-343,107,-64,78,4,-91,-71
-75,-79,-203,-331,25,-30,43,-64,-23,-41
33,58,-28,283,-176,5,-55,-162,26,40
14,53,0,324,-139,60,-175,-212,-55,7
11,38,-128,222,27,18,-214,-100,-36,19
-91,-50,-149,394,106,-123,-245,-169,-142,-97
-225,-215,-218,251,47,-158,-250,-240,-235,-221
-110,-49,69,81,65,17,-74,-72,-117,-114
-8,122,325,60,-4,109,68,74,-29,-16
35,43,-126,-215,-153,-24,-9,129,51,67
-43,-116,-349,-663,34,25,-16,13,-4,11
-111,-176,-214,-517,230,91,-21,-82,-77,-65
-51,-92,4,78,-47,-35,-51,-82,-98,-52
115,92,229,464,-336,-118,-8,33,33,103
163,141,189,325,-195,-37,74,118,132,191
72,48,-63,124,-18,52,134,50,101,110
-52,-33,-122,4,24,50,71,-117,-23,-16
-101,-51,-43,117,29,65,10,-154,-77,-65
-2,11,-42,-35,-36,152,120,22,49,64
44,50,-38,-141,-39,107,113,98,102,117
-55,19,59,180,133,11,-29,-26,-24,-22
-147,-27,0,172,324,16,-51,-92,-143,-144
-231,-114,-57,111,241,-5,-69,-125,-211,-230
-83,-67,-133,-305,-121,-39,9,37,-12,-47
143,57,35,-204,-213,-10,99,206,205,202
164,128,321,138,-89,145,56,115,129,180
42,77,278,-325,-15,93,-53,-25,-17,27
10,39,183,-539,-16,45,-26,-2,6,15
103,99,252,172,-71,37,38,83,103,115
137,88,129,374,-105,-41,9,82,121,147
16,-26,-146,17,-55,-82,-68,-20,0,33
-39,-106,-331,-213,-134,-44,-26,5,-21,1
-8,-64,-193,-146,-136,-23,4,43,9,19
83,78,56,-3,-33,0,47,69,78,79
157,177,149,32,60,63,101,96,116,155
41,78,64,-3,23,44,66,33,-12,59
-41,-41,48,150,47,-20,8,-6,-55,-11
26,11,67,133,96,30,47,115,75,94
99,51,46,16,133,68,59,157,114,171
74,37,26,-40,21,-25,-2,85,35,107
-64,-41,-22,-188,-66,-78,-69,-59,-132,-72
-204,-183,-102,-447,4,-85,-132,-207,-274,-232
-234,-204,12,-213,275,-34,-118,-233,-291,-265
-138,-34,275,646,240,-53,-75,-148,-180,-165
30,183,458,1228,2,-95,-64,-44,12,-3
50,144,131,521,-132,-83,-69,-41,30,18
67,78,-320,-556,-196,-71,-29,37,28,64
-74,-149,-193,-700,101,64,153,262,-27,-52
-380,-397,-247,-153,203,2,88,175,-287,-361
-14,-18,169,353,-57,-108,56,184,15,19
172,135,309,420,-77,-63,-50,-18,145,200
176,41,-41,-63,-141,-20,-42,-147,169,211
152,36,-272,-261,-63,76,61,-129,163,166
119,102,93,119,65,56,-62,-38,127,130
59,68,194,165,-58,-59,-81,-32,64,69
5,77,355,168,-155,-105,-103,-69,-4,-4
-7,90,316,42,-167,-53,-62,-39,-40,-53
-320,-169,-50,302,453,105,3,-78,-314,-367
-171,-112,-50,688,487,15,-45,-39,-156,-185
26,40,-2,454,94,-85,-55,43,43,46
286,211,-21,-296,-279,35,141,257,286,313
320,162,-96,-547,-341,58,164,200,267,311
224,110,-59,-377,-77,116,117,28,153,189
137,59,-160,-328,67,108,92,27,116,118
22,-53,-229,-325,117,91,74,20,44,31
33,5,20,-70,-57,15,26,18,14,34
83,76,237,149,-194,-44,-18,-5,16,45
76,74,174,-15,-114,-36,-24,-14,-7,20
40,39,119,19,-16,-26,1,-18,-38,-17
-26,-73,-65,46,13,-18,6,-42,-76,-65
-178,-213,-325,-22,43,-33,-74,-119,-187,-189
-214,-238,-385,-328,62,-71,-125,-135,-213,-241
-187,-237,-349,-277,242,-71,-99,-105,-175,-207
-163,-218,-276,85,356,-46,-80,-98,-148,-179
42,4,-139,18,78,-37,-20,12,33,32
135,195,127,205,-53,-38,-25,4,64,80
51,164,141,44,-6,16,19,-54,-22,-14
-42,54,40,-64,61,90,83,-35,-23,-71
-4,1,70,-222,-130,-5,-31,-36,-50,-45
-108,-88,75,-26,67,6,-67,-84,-104,-133
-27,-42,114,67,10,0,13,48,43,-4
122,129,302,233,-157,-32,34,106,132,109
100,148,267,84,-169,-76,-66,-7,17,55
6,108,124,29,-89,-82,-87,-82,-80,-52
-147,-19,-78,97,-42,-80,-112,-167,-190,-187
-311,-272,-82,167,-4,-176,-264,-323,-339,-361
-151,-94,123,70,-13,-100,-138,-162,-100,-178
14,56,169,99,-80,-7,13,31,109,16
53,51,16,225,24,124,125,156,179,78
60,-55,-283,-67,107,166,171,212,176,103
-121,-221,-329,-258,-23,-10,-17,79,-8,-96
-97,-226,-452,-469,-18,-42,-46,53,-9,-93
12,-114,-288,-326,48,-73,-22,10,53,-2
173,99,161,109,-26,-47,40,2,157,129
203,257,613,410,76,64,132,44,165,161
145,240,617,575,110,70,124,37,87,89
168,285,459,327,-55,46,111,55,97,94
110,149,61,-239,-134,-7,42,8,37,56
-171,-214,-341,-135,52,-82,-95,-173,-179,-208
-116,-117,-219,-193,156,-43,-59,-122,-116,-168
91,116,137,-261,41,74,67,106,96,55
79,88,271,27,-195,39,65,166,98,58
61,-52,-58,-46,-97,19,84,171,94,52
6,-226,-530,-509,153,25,94,160,101,25
0,-166,-554,-274,179,1,187,131,88,7
42,33,-191,253,-165,-155,374,60,0,-10
35,117,46,116,-318,-92,452,-24,-116,-60
-48,58,57,-81,-144,70,436,0,-133,-97
-166,-60,23,315,114,105,111,-93,-180,-187
-162,-108,-177,314,201,88,-325,-148,-98,-168
20,-64,-147,-306,30,-16,-395,-29,87,33
122,-50,-115,-430,92,53,-207,44,145,141
77,-93,-117,-29,230,92,-15,81,130,125
0,-117,-95,241,0,-46,-42,41,65,42
-131,-182,-102,91,-117,-65,-193,-109,-87,-125
-128,-162,60,236,48,28,-203,-121,-104,-136
88,24,265,511,-100,69,-13,96,144,92
96,114,425,476,-110,97,40,3,77,59
-21,31,290,4,-92,1,-97,-191,-95,-78
-8,-2,32,-275,-112,-82,-139,-183,-89,-45
-42,-94,-137,-51,165,39,1,-75,-49,-44
-62,-133,-295,-239,374,171,171,51,15,-26
5,-91,-240,-371,231,173,290,66,45,14
146,49,-83,-72,-79,148,401,150,175,159
186,112,27,-99,-351,43,327,152,247,209
80,0,-80,-117,-195,-9,64,78,129,102
32,-23,-107,-98,-25,-55,-60,217,71,53
48,10,-36,-34,22,-50,43,414,99,76
49,41,73,-46,-21,-71,-58,369,92,81
17,31,128,118,-21,-128,-226,119,19,44
-54,-32,101,338,71,-92,-226,-95,-90,-37
-24,-5,-12,38,200,29,-108,-167,-68,-21
105,117,-82,-314,171,112,19,-2,106,115
113,141,146,48,-47,-3,-28,32,99,119
5,87,275,263,-179,-161,-190,-190,-77,-4
-32,57,239,153,-176,-174,-223,-288,-118,-39
-94,-21,129,-16,13,-128,-228,-262,-168,-110
-210,-164,-76,-219,180,-95,-152,-109,-196,-205
-312,-264,-151,18,103,-226,-221,-129,-263,-313
-344,-265,-36,400,391,-206,-362,-291,-334,-362
-110,-156,-207,-74,598,109,-143,-119,-86,-101
195,52,-178,-41,260,278,162,203,230,244
215,150,50,200,-201,121,135,131,184,236
245,213,70,-209,-453,53,154,19,159,235
234,189,28,-337,-412,7,136,63,189,236
177,132,29,-177,-277,-48,27,59,149,197
152,126,15,-96,-154,-18,24,74,144,179
34,45,-10,-103,14,96,98,64,77,64
-68,-45,-43,-139,70,102,80,-21,-36,-43
-123,-66,-25,49,-19,0,-2,-121,-105,-107
-72,60,195,159,-127,-112,-63,-165,-98,-90
-10,56,41,-147,-62,29,48,2,27,10
-8,23,-149,-128,88,146,140,66,67,22
-179,-164,-423,-180,259,183,72,-86,-118,-157
-291,-224,-402,-208,230,72,-53,-214,-258,-287
-182,-133,-252,-198,-33,-70,-116,-171,-171,-183
-47,-7,38,69,-14,-66,-104,-114,-88,-61
104,182,355,271,23,-40,-25,-17,30,65
178,204,347,290,-255,-90,34,80,128,157
131,79,34,-24,-296,-72,27,76,115,123
55,-5,-28,-88,-139,-74,-6,-34,3,28
-33,-81,54,7,-74,-1,103,-13,-31,-41
-66,-106,158,113,-31,51,161,50,-1,-60
-58,-81,178,288,27,18,71,-28,-41,-66
4,36,155,238,35,-20,19,-47,-37,-21
95,212,263,30,44,24,135,73,37,44
55,254,358,-44,48,26,95,129,31,7
-143,96,394,83,31,20,-76,29,-63,-133
-175,-88,19,-158,-36,-20,-126,-62,-127,-147
-90,-105,-246,-123,9,-27,-24,13,-62,-47
14,-14,-71,228,194,59,93,159,50,43
57,12,22,166,201,93,122,193,100,83
16,-32,-214,-88,-95,-73,-14,104,39,29
-75,-93,-138,105,-125,-159,-121,-85,-64,-83
-11,19,139,583,258,49,-4,-108,13,-23
70,0,45,-132,57,-38,9,-22,67,85
92,45,97,-111,-7,74,87,50,89,80
-46,-83,-131,20,3,51,27,-39,-35,-82
-78,-149,-237,107,-236,-160,-81,-68,-62,-69
22,-8,-199,-292,-156,-78,0,30,60,52
-33,-4,-151,-478,-3,-36,-38,-17,-2,-14
-190,-141,-180,-361,188,17,-92,-139,-160,-182
-380,-344,-353,-254,651,212,-23,-183,-274,-326
-529,-451,-225,606,1146,306,-23,-269,-400,-469
-490,-303,158,1405,960,210,-72,-328,-458,-495
-100,139,631,551,-215,-223,-144,-158,-190,-172
239,349,542,-482,-955,-402,-51,191,154,190
431,336,121,-301,-834,-81,254,506,474,481
390,199,-216,-339,-561,-100,275,459,509,501
260,73,-328,-511,-404,-208,324,307,360,380
242,152,-179,-360,-233,-139,397,202,283,316
113,98,-78,-128,-43,64,289,19,117,142
-33,-43,-198,-45,36,270,101,0,-42,-17
142,64,-216,-116,-132,-91,-218,257,152,175
155,166,29,-130,-150,-126,-117,214,179,194
86,65,9,-105,-95,-94,-128,112,107,146
44,4,66,-16,-3,-14,-83,44,56,91
-29,-64,64,-13,116,211,72,-57,-21,20
-48,-83,-43,-131,129,310,228,-96,-67,-2
17,-11,-39,-141,16,165,332,-39,-29,34
-10,34,72,103,44,92,335,-23,-35,-15
-146,-16,116,140,181,148,167,-86,-120,-158
-227,-225,-255,-118,288,86,-318,-169,-215,-229
71,-44,-197,-223,20,53,-186,87,118,107
113,130,185,246,-76,-56,-231,-54,43,96
-9,-9,94,367,-11,-110,-247,-134,-46,-23
-66,-63,-24,119,-55,-120,-204,-125,-50,-65
-62,52,110,27,59,-70,-160,-107,-64,-82
-8,150,337,19,66,-37,-115,-89,-66,-61
100,228,328,6,-8,39,17,45,52,47
155,81,-222,-229,-47,57,128,163,160,133
34,-150,-399,-202,-143,-103,3,50,61,22
-142,-210,-86,185,-104,-218,-135,-150,-142,-174
-147,-131,86,281,8,-116,-77,-127,-149,-198
-24,-27,74,65,154,176,47,20,-16,-76
0,-11,15,-44,330,318,60,57,-8,-58
-168,-109,28,68,417,107,-95,10,-194,-241
-169,-98,-59,-18,322,-82,-69,58,-194,-228
120,150,7,-146,-269,-211,-17,238,77,73
306,264,154,-94,-460,-86,5,280,248,289
279,140,1,-350,-384,0,-48,63,239,283
107,24,29,73,-151,10,-173,-264,47,109
-35,-28,7,362,40,33,-167,-318,-99,-49
-138,-107,-61,345,55,-14,-144,-261,-211,-180
-162,-148,-79,237,144,1,-121,-201,-216,-209
-155,-142,-23,4,248,-10,-193,-204,-175,-184
-92,-67,47,-110,71,-88,-212,-162,-89,-99
-14,5,200,-95,-219,-68,-23,0,33,20
104,40,56,-259,-247,29,174,119,153,151
182,112,-121,-373,-198,50,193,150,210,220
123,82,-4,-124,-56,88,184,135,144,148
-22,-79,-99,55,132,51,2,-13,-35,-30
-74,-87,-98,-129,135,55,-29,-63,-109,-87
-65,-41,3,-9,44,-81,-10,86,-52,-49
-28,0,40,106,6,-31,62,193,24,1
-83,-48,-80,-230,-74,-39,34,108,-21,-68
-98,-66,-39,-330,-90,-38,-23,-27,-73,-101
38,65,116,-85,-94,-23,-32,-90,-1,9
75,126,118,275,258,176,86,-112,4,46
-27,-6,-72,193,98,-19,-49,-81,-43,-46
-12,19,-90,-4,-188,-145,-120,-117,-79,-78
-172,-63,-53,116,-103,-133,-192,-248,-206,-245
-144,-69,-138,-123,-36,-21,-67,-99,-97,-155
82,66,-129,-209,88,92,135,171,142,101
156,158,97,110,149,70,104,174,162,152
-84,-61,-33,231,-55,-130,-66,-67,-109,-135
-109,-27,19,357,74,-32,-19,-64,-163,-173
250,390,487,93,-150,-35,91,255,214,208
206,176,230,-22,-57,19,154,332,248,222
56,-137,-185,-109,-81,57,382,90,67,74
-3,-106,-188,-213,-107,109,397,31,1,1
-130,-155,-155,-166,-86,125,258,-131,-125,-112
-104,-117,-168,-14,-29,100,70,-278,-126,-102
61,68,-50,-95,-34,-19,-31,-143,40,39
173,178,-5,-166,-56,-132,-76,91,171,157
175,101,-143,-157,0,-148,-108,171,200,196
99,2,-54,-11,20,-118,-89,133,145,118
13,-37,12,89,65,96,-119,42,53,21
-48,-43,21,62,107,159,-109,-2,-16,-41
-46,0,64,-1,130,96,-66,-14,-58,-64
60,105,111,-53,67,57,-37,19,11,13
87,105,73,-32,11,35,-14,42,59,40
50,3,-125,-170,11,5,-29,9,18,17
8,-76,-208,-232,28,-16,-40,-14,-5,-13
-20,-102,-102,31,53,-25,-44,-24,-33,-32
-64,-73,-25,246,80,-32,-76,-37,-75,-61
-141,-66,-2,65,-152,-129,-160,-110,-117,-128
-32,36,52,-14,-81,-52,-67,-13,-7,-27
43,125,40,-58,116,73,30,63,30,37
8,151,102,36,145,60,0,24,-18,-2
-21,59,274,-3,83,11,4,-23,-41,-27
-20,-31,50,85,38,19,36,18,-28,-21
-257,-391,-448,113,399,75,-33,-70,-180,-220
-274,-304,-205,673,344,-39,-131,-178,-235,-259
-93,-40,18,512,-90,-177,-164,-160,-134,-125
158,164,-19,-335,-425,-127,55,83,128,141
195,186,47,-341,-82,72,168,154,170,180
76,126,111,87,116,52,38,28,36,55
17,106,344,156,-72,22,49,195,72,29
47,128,184,-176,-42,30,63,209,117,63
-53,26,63,-14,158,38,-42,19,-47,-54
-201,-217,-172,363,449,29,24,-195,-198,-216
-54,-104,-76,182,-78,-98,76,-141,-101,-77
68,2,46,-273,-432,-193,114,11,3,40
-11,-33,78,-587,-391,-218,-40,-42,-33,-34
-282,-207,78,-83,-92,-108,-350,-334,-336,-324
-190,-204,-137,18,186,104,-126,-235,-225,-201
22,-70,61,280,136,196,151,42,60,49
177,103,232,201,221,180,174,150,157,168
265,166,-19,36,180,209,251,255,262,256
278,159,7,-181,-211,-32,151,233,233,255
210,134,99,-6,-202,-140,136,288,113,173
92,83,53,-10,-85,-101,258,437,49,89
40,34,-95,-212,-166,-136,186,415,48,61
-113,-96,-91,25,-153,-214,-104,147,-60,-99
-142,-75,15,268,-179,-233,-311,-125,-124,-148
73,12,-30,-12,173,286,200,-183,45,92
-30,-89,-6,195,91,199,346,-75,26,18
56,26,126,67,-48,137,381,-26,60,66
119,96,96,-59,-65,120,295,-27,65,102
80,115,125,-16,-49,47,-32,-103,7,52
40,163,142,-146,-90,-88,-307,-90,-9,36
33,238,76,-145,3,-47,-292,-74,-10,27
-21,36,-51,-66,78,9,-172,-117,-39,-16
-37,-107,-277,9,75,-10,-79,-31,-25,-19
-60,-185,-526,-2,33,-30,-16,70,-33,-49
-92,-204,-364,-37,-2,-60,-21,69,-11,-73
-46,-113,-39,-80,-60,-55,-130,9,17,-35
-60,-176,-33,-47,-51,-34,-143,-159,1,-51
-85,-181,-31,17,-13,-6,-135,-267,-31,-75
-25,-67,-3,-68,61,37,-124,-192,-14,-21
15,0,-78,-224,218,146,19,-71,7,30
3,19,17,-151,152,118,118,5,12,10
-4,33,177,128,-3,-35,-49,-27,-24,-24
-45,4,133,276,35,-119,-118,-19,-75,-60
-54,-6,48,163,116,-163,-30,32,-67,-60
-44,-35,1,157,78,-149,-18,25,-31,-48
-16,-29,-76,95,32,28,10,38,17,14
-53,-13,66,44,75,112,-102,-197,-70,-38
-97,-9,95,106,111,190,-60,-165,-101,-92
4,48,158,162,-12,-1,-106,-77,-3,-1
146,99,-119,-204,-132,17,9,83,127,170
85,112,27,-134,-143,-50,-61,-3,56,103
2,74,146,-11,-66,-27,-60,-38,-23,0
-27,0,61,-27,-40,20,13,9,-10,-19
-37,-65,-33,-88,-72,-28,-21,-15,-16,-8
-26,-56,-74,-94,-77,-51,-76,-82,-41,-21
-14,37,22,-24,-52,-45,-85,-86,-56,-44
-32,-4,101,79,8,-17,-42,-70,-69,-47
-68,-73,72,138,79,32,5,-44,-43,-54
-109,-111,-29,-35,149,71,8,-72,-54,-97
-56,-84,-216,-462,87,95,33,-18,3,-36
18,2,-85,-179,262,135,54,39,66,36
42,66,122,170,216,98,18,27,35,32
12,85,234,373,-44,-29,-4,-27,-14,-17
-144,-31,202,360,276,32,-20,-131,-178,-175
-168,-87,12,-87,351,79,8,-88,-167,-161
-4,3,7,27,-116,-26,67,71,30,42
205,164,82,168,-444,-157,93,179,227,253
222,163,-59,-49,-277,-83,146,179,245,285
117,83,-99,-143,-114,48,217,140,195,176
93,168,81,-5,-52,-94,127,159,157,152
72,133,71,-13,-50,-167,88,82,78,93
-129,-80,-86,-191,113,-128,-16,-99,-85,-96
-226,-116,-14,-176,267,136,-98,-175,-131,-186
-80,86,273,330,100,181,-142,-15,23,-43
34,20,21,250,-169,-75,-167,22,78,86
12,20,-16,-60,1,70,-5,-27,95,58
-130,43,270,204,13,23,-62,-148,-110,-93
-23,60,-209,-356,-94,-37,-38,-21,-45,42
-62,-14,-276,-271,64,31,-44,-12,-35,3
-44,-24,-138,74,64,59,-19,-10,-40,0
24,26,-161,15,-89,51,-4,8,-3,34
-20,-26,-107,-43,-53,57,-25,-31,-58,-22
-118,-102,-61,179,210,115,-27,-89,-161,-120
-134,-157,-185,416,546,219,40,-48,-122,-92
-50,-63,-164,169,335,176,75,36,-34,0
78,189,135,-201,-133,-12,-12,26,7,78
160,277,233,-418,-313,-36,19,58,71,134
154,252,211,-280,-227,-32,49,92,113,132
128,179,128,-214,-134,-17,18,83,120,122
44,4,-36,151,-135,-141,172,180,12,48
112,54,-176,101,-178,-225,201,279,94,116
65,2,-248,-64,-298,-312,92,223,62,61
-79,-96,-166,-70,-261,-254,-51,1,-89,-89
-272,-248,-78,108,-71,-99,-291,-336,-294,-300
-307,-272,55,403,61,-7,-400,-432,-323,-339
-150,-128,182,404,88,56,-158,-178,-148,-178
47,117,203,50,212,208,63,74,65,21
82,151,154,-412,163,109,-58,28,52,52
46,74,171,-312,-63,-82,-171,-102,-46,7
105,27,78,-8,-198,-48,-16,-31,22,95
134,-46,-154,50,-32,134,187,101,148,185
114,25,-65,106,66,159,217,145,153,174
72,54,-97,-40,37,76,114,87,105,108
-23,-52,-158,6,106,42,7,-32,-10,-6
-50,-70,-83,202,244,37,-30,-74,-66,-37
33,24,62,102,199,24,-7,-22,-18,41
60,58,141,-105,-35,28,58,86,10,68
14,14,77,-236,-242,-26,155,257,-10,8
-53,-37,3,-401,-120,-80,131,274,-48,-70
-140,-111,-77,-345,-20,-33,80,195,-81,-148
-91,-64,-30,16,-50,68,50,61,-66,-113
-8,1,-18,-11,-155,27,19,-80,-14,-26
26,38,38,21,-181,-98,4,-79,-16,25
-11,-8,126,254,-86,-132,129,9,-52,-34
-67,-99,83,316,-127,-69,453,156,-21,-77
-142,-148,81,433,-56,233,687,121,-77,-152
-152,-136,111,322,35,363,540,-236,-153,-196
-172,-153,125,61,175,265,142,-600,-278,-244
-256,-196,110,-39,360,105,-318,-617,-375,-318
-123,-51,245,-235,382,-17,-472,-248,-173,-154
124,193,464,-61,252,-83,-469,38,61,79
304,306,372,163,-59,-150,-400,107,184,236
276,127,-198,-77,-251,-159,-239,145,244,265
144,-79,-481,7,-152,-60,-89,169,242,182
81,-68,-424,44,50,51,0,151,207,119
8,-42,-233,-153,50,57,-51,38,49,17
-113,-104,-72,-216,-28,-69,-199,-151,-143,-147
-56,-21,43,-129,-159,-173,-233,-153,-110,-106
152,83,21,-209,-172,-62,-30,107,153,153
216,63,-88,-161,-67,51,94,226,256,244
-14,-53,-153,144,11,-77,-15,148,40,22
-113,-127,-187,132,126,-76,-22,112,-67,-94
-113,-159,-203,15,138,-32,-41,62,-103,-120
-39,-107,-197,-304,41,-8,-76,38,-21,-27
-48,-89,-110,-441,-112,-99,-196,-78,-69,-59
-12,13,141,-105,-308,-173,-181,-160,-104,-49
42,134,393,450,-272,-90,-49,-159,-41,15
214,299,403,347,-200,-34,54,31,132,196
304,311,249,-136,-185,-7,136,189,238,298
121,66,21,-89,53,83,139,101,88,121
-34,-92,-99,8,97,61,71,-17,-61,-50
-165,-184,-127,143,47,-43,-65,-141,-190,-179
-173,-193,-134,377,182,-32,-88,-140,-179,-160
-36,-77,-237,254,361,146,56,15,-37,0
-26,-54,-270,-101,304,219,132,53,-3,4
-68,-46,-205,-283,24,90,87,46,23,-19
-138,-79,-123,-22,54,-21,4,-52,-46,-99
-97,-66,73,200,-21,-123,0,-69,-94,-103
30,86,316,387,-139,-135,53,85,-4,12
0,77,321,337,-74,-110,54,103,-35,-22
-127,8,244,395,59,-135,-117,-97,-190,-180
-31,65,70,69,159,16,-114,-102,-119,-91
232,183,-61,-471,13,174,123,136,189,206
294,225,176,-160,-129,137,129,120,234,268
77,-91,-179,-63,-160,-8,41,21,116,101
17,-147,-361,-556,79,77,66,41,87,49
13,2,63,107,58,79,92,7,14,17
64,74,206,223,-110,-8,37,-3,12,39
61,106,194,264,-169,-79,-14,-16,21,48
-28,-56,-285,-267,-141,-9,40,-7,-21,-3
-80,-67,-175,-178,-14,9,4,-51,-71,-67
-80,-39,149,259,143,33,-51,-65,-89,-92
-35,-11,135,135,10,6,-17,-17,-37,-39
-48,-10,34,29,96,66,46,17,4,-30
-68,-49,-69,110,243,161,90,16,-9,-38
-10,-59,-174,-72,96,77,32,16,17,15
32,18,-5,-70,-115,-38,-23,11,14,34
0,52,129,-24,-128,-78,-85,-19,-35,4
69,42,3,-181,39,16,22,105,82,108
168,73,-76,-286,-39,24,113,215,189,217
168,151,26,-129,-170,-42,65,132,109,157
19,66,10,-73,-75,-52,-23,-64,-76,-23
-207,-156,-164,-184,171,12,-39,-174,-220,-207
5,71,123,-39,1,21,73,9,-28,-8
-54,9,155,249,-14,-17,22,-41,-69,-71
7,-15,162,244,-122,-69,6,-22,14,7
23,25,204,229,-178,-81,-5,-24,8,16
-57,-26,-100,-4,-101,-48,-17,-43,-29,-57
-37,-23,-393,-307,-27,33,78,36,30,-20
-66,-83,-268,-144,16,-5,29,-31,-61,-67
-18,-46,-71,121,-11,-55,29,-5,-22,-14
2,-49,-13,124,-99,-71,31,32,33,36
-16,-73,10,19,26,60,50,53,12,22
40,-16,-8,-182,-13,67,68,101,41,69
6,-28,-48,-72,-144,-96,-67,20,15,30
-49,-57,-160,-191,-202,-164,-148,-79,0,-27
-147,-132,-167,-305,-21,-48,-100,-179,-160,-157
-222,-141,80,88,363,159,20,-238,-274,-246
-128,-38,205,2,218,104,5,-224,-194,-172
105,143,210,-260,-171,-57,6,-41,39,68
232,210,38,-81,-205,-99,97,152,204,230
67,55,-171,42,56,14,69,136,144,118
-38,-46,-226,-129,243,115,7,82,81,30
22,1,-45,-62,182,75,-4,74,81,47
90,97,212,262,-10,-31,-25,70,75,99
103,106,234,363,-110,-64,-21,79,81,120
56,28,42,342,-102,-73,62,88,74,91
10,78,-75,-13,306,73,177,8,-16,-12
-69,162,149,-145,26,-40,-12,-139,-156,-130
-93,200,383,-99,-132,-74,-135,-83,-159,-151
-75,45,175,-152,-124,-44,-128,55,-51,-76
41,-45,-9,-128,-105,0,13,221,125,81
4,-190,-48,64,182,17,66,148,120,72
-66,-259,-54,335,414,54,9,-67,19,-9
-67,-197,-87,595,377,271,34,-135,-26,-43
-101,-124,-164,290,92,194,-15,-76,-93,-123
-112,9,49,157,-151,-82,-30,48,-137,-181
74,190,313,247,-244,-111,51,230,26,1
243,265,231,-50,-130,0,94,328,208,187
146,28,-207,-378,5,39,-2,181,169,139
-46,-298,-450,-433,-10,-3,-100,-22,56,6
49,-141,-191,-190,-95,59,-25,-53,79,88
91,1,-31,-39,-81,66,24,10,94,104
129,115,44,-205,-327,-138,-127,-68,108,114
188,167,69,-165,-240,-95,-139,-148,126,159
161,129,30,-86,-106,-40,-86,-104,112,129
-13,5,-41,-139,10,-19,-86,-118,0,-28
-126,-73,-52,-144,108,18,-105,-174,-124,-153
-62,11,140,145,49,-13,-85,-177,-123,-123
58,151,336,247,-141,-74,-94,-145,-40,-9
14,106,316,-4,-8,20,-76,-115,-25,-32
-124,-15,225,73,339,140,-54,-154,-124,-148
-70,7,124,156,340,105,-46,-121,-98,-95
-17,-99,-304,-65,-196,53,240,82,86,41
-107,-203,-319,-98,-172,34,352,20,-2,-62
-183,-171,-113,23,-157,-47,304,-13,-120,-167
-121,-79,-44,-32,-158,-69,195,96,-59,-104
17,19,-9,-42,-129,-88,-76,137,63,37
192,125,-5,-156,-143,-129,-220,238,215,222
200,121,-55,-92,-43,-93,-244,149,224,227
70,16,-102,-12,0,-39,-212,-96,95,90
16,-6,-28,9,11,9,-124,-152,6,16
21,4,11,0,-1,4,-68,-87,-20,-2
43,13,-14,-13,-34,-16,-38,-13,13,19
49,47,12,32,-12,11,-9,26,64,33
48,59,37,54,-50,-22,-37,18,78,46
-24,-29,-28,122,-120,-129,-138,-89,-31,-34
-113,-73,-40,80,-151,-150,-170,-156,-140,-140
-161,-51,-6,-159,-108,-95,-137,-184,-182,-187
-168,-99,-112,-132,14,-17,-50,-158,-165,-179
-160,-144,-86,330,186,36,-23,-135,-136,-164
-135,-126,53,460,407,142,27,-81,-97,-132
-75,-110,-89,-39,495,248,115,74,18,-52
43,-41,-147,-293,327,173,127,218,125,64
137,86,75,92,-4,-56,-6,184,133,121
189,138,143,48,-1,-90,-43,161,154,177
96,27,33,-41,-38,-105,-80,95,105,116
6,-24,-21,-36,-234,-148,-85,-31,1,21
40,55,-32,-85,-215,-106,-13,-101,-11,17
90,139,172,62,-86,13,70,-36,48,62
23,82,322,163,-43,121,125,-35,3,4
-82,-57,157,-23,42,105,110,-64,-59,-79
-86,-136,-229,-141,48,29,6,-40,-48,-75
17,-25,-27,47,-169,-24,15,0,17,20
13,-14,-30,-137,-186,-12,11,-14,16,23
-58,-108,-249,-265,-47,0,12,-50,-15,-35
94,158,184,274,-98,8,145,87,71,74
47,137,291,487,6,-71,13,48,-7,25
-14,18,202,541,164,-20,-16,51,0,7
-37,-134,-101,296,194,62,25,133,72,39
-88,-134,-103,-387,-27,-70,80,77,-85,-90
-187,-195,-4,11,12,-142,-57,-40,-174,-202
-114,-118,156,446,30,-190,-79,-11,-70,-104
9,-34,172,432,62,-195,46,64,50,39
22,-57,-130,182,195,-63,152,10,39,46
-34,-81,-268,-205,84,23,98,-45,-22,-31
320,156,-234,-288,-286,163,424,267,322,310
124,-56,-461,-330,-154,171,236,70,166,146
73,8,-201,-275,-48,67,-112,-132,45,68
5,170,-29,-66,38,-65,-367,-78,-36,-26
20,121,-134,-229,1,-45,-279,-53,-8,-2
83,101,-35,-115,-3,-6,-91,44,58,72
21,-28,29,89,34,-8,-39,50,33,27
-35,-70,121,108,41,-87,-37,14,-9,-20
-102,-116,51,-201,29,184,94,-44,-103,-130
-155,-209,-99,-281,-15,108,-12,-92,-121,-158
-143,-220,-109,-74,4,-36,-173,-135,-118,-142
-64,-113,11,78,33,-42,-188,21,-58,-62
70,51,245,278,44,-6,18,317,85,79
94,80,300,251,-2,-28,108,326,105,103
32,25,159,61,45,-26,1,178,56,49
-52,-22,79,-97,114,-40,-142,-84,-67,-42
-38,38,83,-170,201,5,-155,-261,-94,-46
-60,129,330,208,334,64,-94,-220,-139,-99
-82,147,463,375,226,9,-98,-90,-169,-125
-108,-20,225,462,-77,-182,-221,-104,-189,-131
-52,-58,7,499,-239,-261,-267,-93,-98,-63
-98,-31,67,538,134,-72,-182,-223,-130,-130
-136,-155,-225,-75,294,42,-87,-320,-132,-158
64,-73,-480,-902,193,206,157,-74,89,65
294,168,-348,-886,-10,317,360,250,347,313
298,154,-128,-235,-292,164,267,293,380,327
116,-6,-90,139,-240,0,93,108,158,132
65,74,99,-1,-82,-43,26,15,79,45
43,75,139,-117,-94,-51,-27,-25,41,10
58,111,102,-192,-165,-65,-7,-35,17,-10
40,84,5,-182,-169,-52,36,-33,-15,-22
-5,68,-9,-14,-145,-102,27,-67,-41,-69
32,66,-55,-52,-183,-152,-8,-38,-4,-11
123,55,-147,-192,-156,-52,96,98,128,125
81,-31,-235,-27,-12,61,160,95,113,82
-37,-114,-221,233,134,117,144,23,-11,-51
-49,-25,-68,211,143,87,77,-1,-31,-45
-109,-31,39,102,-33,-17,-4,-66,-57,-120
-171,-11,197,177,-168,-69,52,-119,-94,-190
-161,-34,40,-8,-227,-29,299,-108,-139,-196
-24,-21,-309,-391,-93,132,548,8,-22,-60
13,-29,-198,-230,62,193,590,57,35,-3
-1,-48,-19,-35,115,140,359,102,12,-28
94,40,-65,-93,119,13,-59,168,93,71
158,85,-105,-116,94,-101,-265,235,157,146
87,123,82,-38,75,-101,-288,132,78,46
9,128,351,120,92,-60,-257,-36,-21,-41
-10,75,348,82,137,26,-143,-81,-67,-37
-69,-97,-34,-213,249,96,-111,-82,-119,-95
-27,-178,-269,-8,73,-59,-130,-49,-32,-33
73,14,53,333,54,-43,-40,26,21,47
8,-8,22,266,112,-8,18,130,-12,-16
-35,-27,-108,98,-12,-59,-7,195,-18,-27
171,61,-135,-88,-38,6,37,286,169,195
150,137,96,73,-29,16,-47,95,108,143
93,144,94,-15,-47,20,-109,-90,22,70
17,92,62,-73,-29,41,-72,-132,-61,-1
41,37,-33,-23,-51,-31,22,32,39,60
-43,-47,-29,67,53,-20,-53,-33,-35,-5
-52,-86,-45,-136,72,-4,-88,-56,-70,-17
-114,-170,-178,-540,225,84,-48,-73,-116,-88
-249,-284,-240,-654,444,145,-64,-162,-235,-250
-256,-263,-148,-205,373,123,-41,-147,-227,-256
-86,-76,105,583,30,28,-2,-27,-73,-86
20,58,243,638,-200,-73,-45,-29,-25,-5
67,127,316,385,-166,-88,-98,-58,-22,30
83,101,154,6,-222,-136,-21,10,26,58
116,70,-88,-152,-226,-164,84,189,119,120
99,21,-226,-195,-251,-212,246,479,168,121
55,43,-144,-97,-165,-273,232,576,191,96
-48,-19,-92,-100,103,-212,161,425,113,-19
-173,-135,-92,-29,262,-14,68,30,-70,-170
-176,-65,114,293,15,133,-96,-361,-179,-187
27,67,4,33,-66,2,-94,-200,-61,0
28,30,-20,289,-5,85,-13,-143,-43,-7
65,67,48,-23,-81,110,25,-144,9,37
31,1,39,-333,-113,30,-12,-174,-43,9
-73,-119,-19,-66,-18,-31,-97,-192,-105,-76
-289,-252,26,179,167,-78,-207,-326,-298,-293
-396,-237,318,565,301,-95,-182,-398,-409,-416
176,277,607,569,202,143,249,71,148,180
93,106,-266,-526,-211,105,58,20,77,103
-32,-117,-462,-398,-151,55,-41,61,26,10
62,8,-147,-89,-131,-201,205,399,136,102
80,-19,-212,-125,-163,-253,128,421,175,137
46,-66,-247,-305,-208,-222,23,337,178,137
2,-45,-108,-196,-121,75,-23,180,123,89
22,30,-50,-24,48,316,-23,10,112,94
93,99,-26,-74,49,271,34,-120,139,142
92,96,35,-54,33,180,22,-234,57,94
84,114,141,42,-10,8,-65,-226,-3,49
80,104,141,4,-126,-147,-44,-119,0,50
42,-6,-22,-12,-155,-165,15,-7,17,44
24,-47,-20,-43,-112,-76,-41,4,55,56
-31,7,188,-26,-93,55,-107,-88,-15,-28
-91,28,349,23,-215,41,-145,-173,-108,-110
-152,-19,408,107,-175,-24,-225,-228,-183,-184
-290,-197,85,102,85,-9,-263,-312,-293,-310
-267,-247,-214,-120,301,94,-161,-251,-238,-266
18,-26,126,9,202,163,23,-19,27,21
-76,-103,190,258,271,144,-3,-26,-16,-46
-54,-28,247,532,139,9,-37,2,27,-17
22,-25,-33,353,-20,-39,-12,54,54,57
1,-53,-393,13,66,61,73,117,25,29
35,20,-354,-17,-5,102,122,179,48,45
76,0,-207,-269,-95,68,136,166,113,97
66,-70,-134,-201,-5,64,102,45,71,74
85,-68,-101,-136,39,76,102,-53,75,86
91,0,-101,-222,-12,97,313,-88,106,96
9,-39,-100,-90,116,164,491,-77,10,-2
-65,-36,39,268,119,143,332,-99,-99,-92
-76,26,117,407,14,42,61,-159,-154,-134
12,99,12,75,-18,-72,-179,-116,-60,-30
196,121,-55,-173,17,-155,-263,151,144,163
149,59,-70,-232,33,-66,-195,152,176,179
79,0,-21,-86,-16,38,-56,138,145,129
5,-41,68,112,20,80,2,62,46,25
-97,-69,171,170,80,20,-61,-47,-92,-119
-48,37,454,210,18,-94,-125,-86,-102,-105
71,97,471,125,42,-90,-58,23,43,45
-38,-64,-128,-128,222,13,-106,-39,-49,-39
-119,-187,-383,-176,-152,-81,-130,-60,-95,-99
-52,-84,-116,26,-326,-162,-131,-28,-48,-47
113,90,78,-10,-162,-63,0,133,108,120
138,96,3,-131,-58,12,72,185,156,155
85,51,-84,-141,-40,0,42,116,111,104
14,33,-64,-124,-15,-33,-18,40,41,26
-157,-12,120,168,202,15,-79,-105,-127,-173
-25,-43,-48,142,-232,-111,-60,-12,17,1
-57,-59,-31,-12,-83,-70,-65,-42,-34,-37
-76,-58,-13,-262,172,67,11,-24,-47,-72
-33,-44,-106,-405,182,29,7,-9,-30,-39
32,13,-53,-149,-118,-67,31,15,12,8
99,75,21,91,-171,10,345,53,34,54
93,137,181,-42,-107,17,284,81,13,27
45,141,230,29,-51,-22,56,76,-15,-4
-42,20,98,150,18,-84,-236,38,-47,-57
-4,-29,-126,-18,-28,-124,-264,123,54,34
18,-73,-269,-69,-38,-48,-86,137,106,68
-30,-86,-143,66,4,-15,131,234,82,5
-23,-45,-18,-12,-24,-87,149,300,73,0
-52,-42,71,-86,85,-139,-2,205,4,-39
-206,-107,40,-160,307,14,-171,-107,-161,-216
-255,-105,67,-10,341,178,-304,-411,-265,-303
-194,-33,129,234,87,23,-356,-494,-261,-255
-100,-26,31,92,16,-15,-204,-317,-150,-129
-7,-58,-113,223,243,96,-8,-102,7,22
103,84,-2,586,197,128,116,68,141,122
156,192,186,317,-45,71,129,70,137,139
118,175,236,-107,-65,82,162,68,104,107
53,130,185,-302,-96,34,123,46,55,44
51,109,98,-327,-115,12,100,59,61,43
150,171,65,-147,-175,-45,59,108,132,131
106,109,99,183,-145,-96,-25,28,70,75
25,18,86,442,-14,-28,-12,1,17,-11
-46,-1,111,310,-12,-36,-30,-39,-30,-67
-33,-31,-114,-197,-113,-70,-38,-71,-61,-66
-49,-63,-231,-187,-54,4,9,-60,-77,-79
-144,-89,41,190,133,70,-24,-137,-175,-187
-214,-69,108,-53,-46,-107,-205,-277,-285,-285
-135,0,-61,-370,-196,-273,-281,-291,-257,-222
-111,-55,-171,-401,44,-126,-151,-169,-146,-144
143,39,-222,-405,0,66,136,199,224,173
277,120,-84,-84,-146,53,177,297,342,283
120,7,-134,72,-30,9,79,159,162,100
13,-65,-149,35,71,18,30,59,27,-14
74,64,58,244,33,-5,51,48,53,20
90,124,138,310,123,-11,73,52,59,35
80,109,118,-3,242,78,108,66,75,46
108,92,-48,-131,-105,103,81,61,97,53
56,-23,-104,-120,-152,15,64,66,81,41
46,-22,-3,-140,-126,49,90,55,35,24
-58,-73,61,52,25,92,47,-51,-80,-98
-140,-108,6,210,96,67,-28,-145,-165,-202
-48,-58,-208,161,-80,-53,-32,-67,-74,-97
-4,11,-77,293,-58,-93,-32,-39,-31,-41
11,52,-44,-33,72,4,35,27,39,12
-76,-79,-204,-438,171,84,24,3,-27,-72
-89,-79,79,-132,-238,-141,-153,-115,-112,-145
49,59,255,214,-140,-98,-99,-26,11,6
87,138,274,557,-4,-54,-65,-16,22,53
72,78,55,129,11,28,11,20,31,35
-9,17,56,-104,-55,-1,4,15,0,-22
0,35,4,77,-98,22,15,36,-13,-23
39,19,-196,-122,-105,59,47,75,48,30
-5,-34,-197,77,-83,68,66,29,26,-12
-68,-16,4,268,149,145,102,-47,-75,-97
-20,53,79,70,161,152,134,12,-39,-39
75,62,-20,-99,22,95,150,185,78,76
82,26,25,113,65,96,161,240,105,88
8,-40,149,302,90,44,116,231,81,44
-44,-52,172,175,113,-15,-82,61,-7,-34
-35,-14,85,-96,77,-8,-196,-161,-60,-35
-69,-87,-123,-74,74,-1,-151,-274,-103,-48
-61,-130,-387,-227,10,-26,-117,-210,-93,-43
55,-8,-472,-644,-94,-40,-53,-68,10,62
123,81,-313,-652,-72,-6,14,70,121,147
129,138,-69,-161,32,39,74,231,190,176
145,183,197,291,4,-8,34,212,154,175
56,102,145,41,-139,-72,-64,43,25,74
-99,9,183,116,-46,-76,-109,-118,-119,-85
-168,-23,324,336,67,-19,-91,-199,-227,-191
1,72,265,241,37,45,9,-117,-64,-29
149,118,39,26,-46,38,63,21,112,161
75,-15,-154,-42,58,54,34,21,93,117
-106,-200,-282,-132,152,63,-9,-69,-51,-56
-199,-231,-73,-81,62,-22,-85,-196,-190,-168
-104,-86,205,-103,-77,-40,-102,-164,-125,-91
66,73,211,-3,-69,6,-5,1,42,85
130,58,-154,-59,-45,-6,24,79,123,180
43,-20,-241,-171,-29,48,151,136,124,114
-4,-32,-178,-132,-50,21,109,77,54,45
-47,-75,-130,-61,-69,-41,-25,-37,-61,-33
-12,-37,-27,78,-91,-101,-69,-57,-56,-9
-5,-22,42,91,140,-37,-26,-26,-28,18
-48,-60,-28,-73,287,111,46,25,-4,0
-88,-87,-85,47,15,55,21,-3,-37,-43
-21,15,70,274,-199,-66,44,-2,-15,-3
118,167,151,23,-171,-45,186,98,104,123
81,103,59,-223,-103,-1,196,82,62,87
-89,-75,-89,-342,41,135,-22,-35,-43,-51
2,1,50,-201,60,161,-81,36,31,16
-4,-5,60,-15,231,156,-64,23,0,0
-77,-85,-95,-181,473,186,-15,-29,-75,-84
40,38,101,185,-49,0,27,95,41,48
9,91,374,712,-226,-146,-66,52,-34,5
-58,36,336,379,-193,-189,-149,-6,-106,-67
-142,-121,21,-25,-45,-109,-83,0,-109,-121
-204,-212,-211,52,192,-77,-18,-44,-146,-171
56,129,194,451,-31,-174,-31,-106,-7,37
213,321,352,45,-88,106,145,115,174,202
156,253,369,-85,-30,280,150,76,110,135
88,90,111,-189,-63,141,170,212,83,79
-95,-139,-217,-374,-96,-64,235,420,-1,-69
-128,-153,-152,-448,-227,-249,134,401,-15,-95
13,-6,-3,-76,-346,-292,-84,267,90,48
156,77,35,158,-314,-180,-237,39,208,197
212,78,-171,-199,-125,72,-81,-55,241,268
110,2,-173,-380,28,248,106,-234,84,153
-38,-17,-70,-244,147,233,72,-316,-94,-29
-205,-50,41,243,164,48,-25,-347,-282,-211
-166,-18,199,400,52,-2,120,-281,-262,-193
87,45,-75,53,-5,113,420,-24,6,78
109,-78,-421,-397,113,217,484,63,100,153
-27,-183,-345,-606,228,199,231,1,27,42
-32,-99,-14,9,215,64,-110,-21,39,32
50,6,166,398,58,-71,-297,40,89,83
11,44,175,241,23,-74,-311,-25,20,18
10,95,170,111,24,-21,-199,-71,-24,8
-22,90,118,52,-18,-68,-132,-83,-44,-18
-126,-10,-15,-27,46,-105,-156,-153,-145,-132
-86,-119,-120,-6,317,117,7,34,25,-35
-13,0,21,-7,324,177,7,51,71,1
-243,-170,-53,243,612,99,-166,-183,-197,-253
-353,-289,-55,416,463,41,-191,-245,-296,-364
-256,-173,211,327,-25,4,-115,-139,-196,-254
141,185,378,243,-265,-78,-40,-3,42,77
330,246,-64,-79,-282,-63,51,192,267,315
294,153,-357,-379,-289,-73,34,214,287,319
213,77,-187,-352,-289,-117,43,213,227,239
119,135,167,2,-80,-65,-137,71,50,87
119,171,196,-71,-13,29,-29,52,34,94
25,87,165,-103,-10,82,130,25,-9,10
-104,-38,146,132,-48,91,364,-4,-123,-134
-101,-45,113,233,-107,98,497,127,-74,-113
-54,-42,-15,84,-60,82,386,160,-1,-48
-25,-115,-352,-335,-27,9,72,72,28,3
-89,-126,-128,82,94,-224,-361,-152,-68,-66
-281,-236,-17,455,202,-213,-440,-327,-272,-269
-273,-260,-158,92,334,-109,-285,-240,-235,-246
55,-5,-146,-284,335,30,2,101,118,97
320,336,198,-14,32,178,157,257,314,329
252,255,267,-119,-341,79,64,190,205,251
34,36,105,-6,-283,-139,-126,77,-1,18
34,16,-18,53,-258,-258,-201,34,-43,-6
126,27,-165,-287,-316,-243,-117,190,96,116
70,9,-185,143,1,-42,-64,50,85,70
24,49,33,-13,-30,-82,-170,-214,-22,-15
-47,10,56,-100,-45,-114,-224,-329,-143,-106
-78,40,101,-16,-10,-90,-182,-359,-185,-133
-38,29,35,48,36,-17,-64,-234,-123,-71
90,32,-207,-85,-40,18,89,-33,15,80
-98,-128,-89,226,71,-83,-67,-171,-145,-107
173,162,0,-306,49,137,213,190,221,206
136,106,76,-58,53,81,117,95,113,144
91,43,-116,-101,-46,0,39,32,40,100
32,-19,-192,-116,-77,-36,16,-3,4,46
22,42,9,-55,-41,-8,11,8,1,24
39,132,139,28,25,24,23,31,21,39
8,100,112,82,48,20,-2,4,-9,28
-33,42,148,70,42,6,-22,-13,-17,-1
-95,-27,365,58,29,-28,-42,-52,-68,-50
-119,-52,485,192,63,19,-23,-57,-98,-75
-9,60,230,162,73,71,126,19,-20,22
48,77,-139,-34,49,43,218,55,30,74
-44,-70,-390,-224,57,32,166,-5,-26,-12
-192,-128,-200,-188,104,32,35,-126,-164,-163
-301,-167,3,-88,227,64,-89,-192,-285,-299
-233,-162,-31,58,173,119,-112,-58,-207,-220
-93,-185,-297,48,-56,41,0,95,-30,-38
-44,-235,-344,-188,-165,-145,132,151,46,25
-41,-154,-53,24,-24,-283,181,153,23,5
-22,-49,56,481,172,-270,174,155,-17,-11
76,32,6,407,240,-34,247,242,48,71
64,9,-163,37,339,158,137,268,86,82
90,25,-204,-249,58,282,-63,159,130,112
248,235,18,-150,-483,81,-217,-63,199,248
166,175,52,29,-423,-100,-320,-356,18,151
-48,-18,-17,23,-171,-108,-332,-431,-182,-76
-117,-30,35,-62,-84,-95,-252,-315,-180,-148
0,177,227,-144,-152,-44,-110,-128,-40,-31
89,328,531,92,-121,33,21,0,52,50
53,228,714,318,58,135,107,60,98,33
74,68,459,395,172,139,138,128,120,87
108,-106,-45,133,31,28,87,181,162,183
59,-273,-516,-167,-95,-37,41,186,173,168
8,-221,-492,-294,-107,-40,20,115,116,95
-77,-184,-326,-187,-100,27,-2,-15,-1,-12
-124,-190,-234,-64,-79,61,8,-53,-42,-73
-67,-83,-103,-47,-26,24,36,-3,5,-11
85,108,25,-183,11,41,86,99,147,140
71,62,-39,-170,84,70,106,95,123,101
-53,-75,-57,93,126,85,60,34,-22,-40
-44,-36,48,62,-50,-81,-158,3,-56,-56
-106,-94,-33,-59,-39,-66,47,-2,-121,-143
-251,-216,-174,-110,105,34,240,-63,-221,-282
-264,-247,-401,-320,370,251,316,-61,-122,-274
-97,-70,-275,-133,548,399,275,30,-10,-111
158,211,244,377,133,147,54,202,147,125
322,380,507,290,-424,-181,-108,294,240,262
218,194,200,178,-311,-194,-163,221,167,181
13,-40,-63,243,-101,-123,-226,38,9,-6
4,-11,120,72,-71,-115,-275,-72,-21,-42
51,58,206,15,53,3,-144,-85,-11,-8
76,103,114,16,199,125,-21,-155,-31,15
123,95,-173,-312,127,68,-14,-110,20,70
124,62,-266,-373,-74,-1,9,15,94,93
117,98,50,64,-205,-34,2,68,96,73
47,88,102,100,-117,-28,-16,28,33,5
-35,3,-9,38,-2,23,-32,-15,3,-42
-20,15,17,152,-27,-26,-52,-24,1,-40
-42,36,72,236,-62,-73,-103,-76,-48,-91
-37,24,28,59,-53,-67,-107,-103,-76,-90
28,60,12,-17,14,12,0,-24,0,-19
10,69,81,45,-24,9,0,-25,-10,-23
-80,22,104,-46,-23,-21,-55,-98,-96,-123
-135,-8,47,-109,18,-3,-43,-136,-140,-163
-54,12,-24,11,-3,14,9,-58,-39,-68
17,44,-57,109,23,-20,0,-12,42,9
-59,-55,-260,-256,77,-18,-45,-69,-48,-67
-48,-57,-277,-464,73,48,19,-15,-17,-39
27,42,46,-87,-45,48,46,34,49,27
58,94,249,400,-4,72,61,43,34,45
-19,-7,-42,4,35,76,50,6,-26,-41
-36,-3,-163,-180,-21,22,21,-3,-25,-65
-56,12,-77,-102,-88,-64,-30,-41,-56,-100
-35,57,80,166,-103,-93,-53,-66,-69,-95
0,56,63,239,5,-22,-2,-19,-20,-53
74,57,5,-41,-24,37,52,42,49,24
-2,-16,-15,-182,-74,20,7,-7,-3,-12
-104,-110,-76,-217,37,-31,-57,-80,-103,-106
-96,-72,-17,34,38,-62,-60,-98,-118,-132
-104,19,151,373,-16,-62,-30,-72,-83,-156
-109,15,145,251,38,-21,-37,-46,-62,-155
51,51,23,-96,-9,-20,-2,37,71,23
108,86,-136,-277,-48,-42,-43,20,81,53
-123,-39,-95,-144,112,-44,-135,-172,-176,-190
-134,-8,170,32,92,-61,-83,-172,-195,-183
7,106,379,276,-30,-32,32,-59,-50,-45
-13,59,363,490,139,137,105,5,-18,-47
-106,-105,-47,295,323,178,68,-27,-64,-103
-138,-233,-394,238,305,88,3,-32,-54,-107
47,-79,-379,-117,-159,-32,47,119,138,115
171,140,2,-208,-367,-82,64,155,190,189
150,146,84,-165,-321,-106,22,142,116,126
68,98,31,76,-204,-129,-52,85,29,40
68,152,140,116,-92,-111,-86,36,10,34
108,141,6,-329,33,11,58,130,126,115
46,-45,-208,-466,112,91,198,167,157,121
-39,-202,-182,-155,113,70,193,145,95,58
-31,-104,14,108,22,11,125,118,24,29
30,60,207,315,-80,-28,106,137,22,57
-120,-18,263,407,-83,-85,-2,-51,-124,-110
-260,-87,441,508,-72,-177,-146,-362,-266,-258
-193,-19,545,526,-28,-150,-79,-385,-199,-198
42,116,264,56,-89,-54,112,-97,55,57
220,181,-231,-517,-134,58,252,165,263,273
113,-6,-537,-607,-80,133,145,140,201,200
-17,-91,-321,-278,-6,96,-74,30,70,54
-16,2,0,-33,24,-27,-115,18,39,23
11,72,48,95,68,-80,-31,38,34,42
52,114,-86,-52,73,-57,11,90,75,85
-50,1,-198,-136,198,166,26,61,19,-10
-136,-153,-253,-158,396,312,5,-1,-46,-87
25,-68,-208,-306,192,107,-38,6,22,37
184,100,-38,-46,-110,46,27,88,144,194
143,136,66,37,-107,81,94,81,114,158
79,146,146,-96,-113,13,48,39,18,71
17,105,185,-111,-130,-85,-12,30,-59,-3
0,99,127,-43,22,-55,16,66,-35,-15
82,88,-78,-87,28,5,75,173,98,91
-37,-85,-207,149,18,0,15,34,-18,-16
-239,-205,-174,446,244,47,-102,-290,-242,-239
-210,-131,-89,321,215,35,-122,-381,-258,-240
-63,23,33,-11,108,71,-26,-186,-93,-70
-93,67,139,-234,108,110,10,-71,-83,-106
-257,-38,424,358,-6,-130,23,161,-217,-299
-43,-78,99,500,-39,-189,-82,229,22,-36
72,-109,-188,92,148,-25,-16,229,207,137
2,-148,-176,-243,100,41,22,-8,99,42
-10,-69,-19,-60,-107,-16,-56,-292,-28,-25
67,47,-30,-76,-173,-5,-7,-171,51,65
136,64,-49,-70,-124,-27,75,61,183,138
134,66,18,-139,-99,-20,99,122,189,125
95,3,-60,-259,-106,22,100,112,145,95
46,-61,-83,-100,-49,0,38,64,106,74
46,-55,-31,-3,4,0,18,16,79,68
102,2,-73,-74,7,27,63,25,79,92
109,57,-17,-105,-13,19,50,46,70,100
78,5,-91,-93,6,23,34,64,70,86
4,-60,-153,5,71,29,25,13,17,2
-95,-54,-186,129,134,27,-36,-81,-71,-112
-215,-132,-173,129,184,-3,-124,-194,-205,-236
-183,-109,-43,33,131,-29,-93,-177,-216,-220
-71,-3,143,105,331,89,18,-70,-117,-111
-28,0,49,-134,527,195,45,-12,-51,-46
-48,17,65,44,187,74,-64,-86,-105,-89
24,52,-14,-5,-236,-67,5,96,11,21
26,8,-59,-165,48,49,151,254,68,56
141,98,71,-212,-26,4,131,286,139,171
194,146,201,-101,-225,-136,17,191,137,218
93,74,201,-41,-385,-252,-151,-32,18,83
-43,6,187,47,-296,-178,-210,-226,-90,-59
-59,5,216,209,-96,-19,-114,-202,-101,-68
-23,12,106,237,-12,31,-4,-42,-45,-25
65,37,-68,51,-30,-5,17,76,57,75
71,5,-225,-154,-28,-55,-60,29,34,67
7,-74,-241,-260,-14,-27,-15,-16,-18,2
-58,-115,-107,-221,-20,68,278,-21,-59,-60
-151,-99,108,-79,39,177,432,-130,-186,-179
-291,-162,214,-92,251,252,438,-296,-351,-340
-345,-214,196,273,194,120,303,-347,-406,-381
-150,-60,227,1046,-23,3,124,-152,-188,-165
204,251,120,-267,-124,-60,-291,153,132,174
150,128,-115,-514,-76,-101,-439,120,97,111
51,-54,-322,-400,-78,-133,-404,51,32,32
-45,-128,-266,-43,-220,-203,-348,-62,-24,-48
-42,-61,-143,89,-223,-141,-214,-37,12,-36
78,84,-53,-135,-98,9,-24,109,135,104
178,219,54,-173,-3,62,58,212,228,194
137,172,-6,130,-51,-7,34,190,192,140
47,3,-88,192,-33,-50,-29,126,104,69
66,-5,-61,-12,-12,-27,-6,163,133,113
74,42,36,-92,68,95,71,154,122,108
-64,-29,39,43,184,170,13,-20,-42,-58
-198,-131,-35,218,180,64,-139,-138,-173,-199
-120,-64,-142,46,-37,-52,-121,71,-24,-84
53,70,-100,-296,-162,-61,63,386,159,99
94,120,126,-14,-21,-38,105,404,104,95
121,92,131,5,-106,-155,100,284,98,109
133,35,-29,-116,-215,-295,124,215,117,123
94,8,-15,-59,-120,-235,186,258,84,110
-93,-140,-45,21,45,140,58,-21,-96,-68
-95,-56,94,143,28,351,-141,-177,-124,-83
107,234,384,191,60,-16,-84,-443,-100,48
17,73,177,0,-104,-164,43,-221,-82,-1
-95,-49,33,-36,-215,-222,74,0,-90,-56
-38,31,-55,-190,-163,-29,121,125,-70,-27
38,112,-70,-353,5,194,64,145,-9,38
56,64,-19,-305,161,112,-12,162,67,91
79,-13,-9,-120,101,10,-115,52,105,107
103,-53,64,225,-16,14,-227,-165,82,118
105,-80,37,258,-7,63,-217,-255,30,115
45,-132,-39,299,32,70,-111,-156,-9,53
-8,-119,-1,340,75,63,-74,-108,-45,-16
27,-60,-5,67,132,64,-86,-85,-23,0
0,-58,-54,-84,214,116,-57,-49,-14,-3
-108,-85,-52,32,169,99,-70,-61,-56,-89
-340,-299,-159,82,141,19,-196,-255,-290,-339
-537,-495,-258,48,550,109,-270,-435,-514,-556
-222,-258,-177,-296,822,287,-30,-143,-203,-218
112,90,150,53,702,343,162,135,112,119
192,212,321,197,-146,4,16,85,134,168
250,292,251,86,-700,-281,-108,30,121,191
117,137,102,173,-353,-178,-106,-52,-2,54
-30,-51,-186,169,-30,-98,-114,-88,-56,-39
10,-21,-189,142,47,-41,0,26,50,28
153,147,22,102,-143,-103,26,77,128,141
189,203,194,-146,-386,-160,-11,103,133,177
92,49,88,-184,-311,-87,7,118,90,112
41,-52,-48,-13,-136,-24,29,123,74,64
40,6,-1,100,-66,-28,-17,80,78,55
50,85,57,36,-35,-43,-55,26,66,57
-26,-26,37,-116,-19,-50,-39,-57,-48,-27
-90,-104,89,-73,-46,-56,-26,-148,-143,-88
-43,-68,113,70,-25,-9,32,-81,-83,-29
0,-2,212,127,-26,-15,46,-27,-42,-1
-28,38,242,107,-44,-37,5,-60,-68,-29
-163,-45,121,325,135,24,-31,-138,-190,-156
-428,-248,12,455,542,136,-102,-310,-417,-432
-478,-279,28,-75,612,133,-159,-370,-483,-495
-99,5,221,-210,62,42,0,-54,-105,-94
328,328,390,332,-324,8,213,293,314,357
275,195,39,334,-244,-75,139,202,258,324
95,-48,-401,-187,-233,-121,65,87,151,163
83,-106,-668,-567,-195,-8,167,167,194,162
93,-42,-493,-449,-99,25,173,190,182,142
113,9,-278,-414,-102,-1,110,185,181,164
60,23,-38,-88,-48,-66,-37,36,45,72
38,8,-37,46,-61,-103,-90,-7,20,35
-2,-17,-127,-49,28,24,59,12,-2,5
74,95,-1,-232,33,87,140,81,67,86
94,151,88,-213,3,87,142,114,115,90
-16,22,-16,-184,-38,38,50,32,43,-10
-59,-91,-65,-95,-39,6,24,-15,-36,-54
1,-38,37,-49,-1,33,57,1,-12,-19
16,57,159,102,155,89,56,-23,-22,-39
-21,53,162,127,107,19,0,-73,-84,-99
-112,-41,100,77,28,-71,-72,-150,-158,-176
-130,-86,19,-137,24,-38,-38,-116,-129,-175
-88,-110,-78,-269,43,32,45,-10,-28,-85
2,-90,-175,-209,100,99,111,75,61,23
-14,-62,-87,45,256,104,91,39,19,-16
23,64,222,200,-65,-20,33,26,20,20
78,106,199,-133,-90,-14,31,47,53,64
63,83,136,90,-133,-39,-19,24,25,51
26,35,68,478,-142,-44,-9,2,18,16
16,-20,-63,214,-138,-48,-12,-5,12,0
16,-53,-144,-75,-55,-27,-11,-17,-5,-15
3,-47,-130,-38,46,19,-12,10,-7,-18
-51,-16,-143,-141,-21,38,-23,3,-34,-56
-244,-157,-152,-207,-64,-48,-120,-126,-235,-250
-421,-328,-287,-145,227,-70,-167,-181,-365,-439
-314,-236,-240,15,704,79,17,-19,-219,-326
29,39,-45,6,518,178,239,252,133,39
129,149,132,118,-84,105,104,187,161,112
157,211,191,148,-402,-42,-61,31,116,123
124,130,199,138,-288,-103,-105,-59,89,129
1,43,206,238,-80,-43,-68,-31,28,23
30,53,14,55,-3,60,-16,-42,-21,4
200,158,5,-59,-289,-60,-37,-32,81,178
204,174,103,-67,-290,-86,3,-1,129,208
163,127,6,-274,-257,-62,55,-19,156,195
77,22,-31,-182,-65,23,43,-83,98,116
-69,-31,160,16,53,-18,-9,-41,-29,-29
50,99,41,93,-45,0,-9,35,81,77
-10,-22,-157,-103,-71,-50,-5,-21,1,18
-17,-50,-123,-187,-100,-124,-33,-40,-28,-9
-49,-62,-9,-154,-108,-174,-51,-30,-21,-22
-93,-55,85,138,-48,-221,-132,-68,-30,-65
-143,-94,169,407,47,-191,-177,-132,-102,-124
-270,-214,48,489,228,76,-147,-259,-242,-271
-256,-150,36,459,415,269,-75,-183,-194,-257
-97,9,304,194,412,276,12,-39,-62,-109
31,88,392,-111,318,287,105,58,23,28
58,63,218,-173,156,145,122,167,77,87
209,124,85,-86,-251,-96,106,308,215,233
241,128,-114,-144,-320,-130,101,320,243,242
47,-89,-359,-296,-177,-57,119,337,133,75
-51,-210,-584,-273,-139,-21,231,329,99,8
-12,-68,-150,-122,-69,109,789,10,39,1
-51,-46,-66,-134,-5,202,802,-147,-8,-45
-10,-8,-25,20,-38,229,516,-351,-54,-58
-31,-2,27,146,-90,127,-151,-494,-156,-112
-76,-83,-114,-158,-84,-17,-572,-284,-129,-123
36,6,-111,-271,52,-73,-603,25,62,28
92,151,29,151,267,-2,-533,-5,78,69
73,175,147,349,197,-20,-367,-88,11,23
89,119,1,52,-42,-86,-171,-2,40,67
93,14,-232,-184,-133,-111,-99,72,99,95
0,-41,-209,-247,-13,-58,-82,72,36,-21
-52,-30,-35,-98,47,-56,-100,65,-15,-74
-12,13,173,236,-18,-157,-193,34,1,-53
60,114,314,300,-69,-172,-224,17,53,7
80,238,459,120,-5,-44,-65,66,80,19
-29,154,380,-63,123,78,77,-28,-41,-79
-216,-115,179,121,216,104,8,-236,-264,-268
-157,-148,65,402,118,34,-79,-215,-226,-208
-27,-137,-66,266,-2,-3,-100,-83,-75,-54
-120,-203,-178,27,218,110,-64,-79,-105,-122
-250,-276,-392,-154,507,181,-86,-155,-236,-265
-123,-208,-602,-478,508,240,31,3,-57,-122
244,49,-313,-326,-26,119,158,232,242,238
421,309,183,174,-613,-118,82,235,301,388
259,224,99,122,-474,-128,7,138,175,233
108,75,48,30,-205,-43,5,90,89,109
106,77,228,54,-138,-41,-12,64,49,68
91,64,272,84,-96,-20,-23,39,8,32
24,78,-82,73,4,-8,48,37,22,-4
-97,-30,-29,99,-113,-154,-88,-137,-151,-164
-240,-145,143,418,-78,-199,-198,-289,-328,-313
-180,-154,241,513,0,-102,-117,-179,-242,-225
124,-22,-369,-407,6,109,207,204,153,148
64,24,-345,-535,-15,54,111,110,51,50
7,55,45,-81,49,23,21,34,-28,-28
135,138,150,241,-2,11,42,94,51,99
229,135,-28,-43,-154,-62,42,123,132,202
58,7,-23,-143,-128,-118,-59,-22,0,46
12,-8,-46,-126,-52,-94,-39,-41,-11,28
48,30,-80,-202,8,2,75,61,53,68
74,13,-80,-174,112,88,111,109,83,81
-1,-20,-60,-201,163,52,41,18,7,17
-103,-71,-95,-234,63,-55,-53,-80,-51,-69
22,19,7,116,-93,8,78,15,26,38
44,-3,-7,-34,12,91,136,76,51,71
20,-7,-2,-161,-10,79,81,9,1,18
-109,-7,79,-139,26,3,-81,-208,-186,-163
-83,16,93,-73,93,-3,-107,-178,-127,-129
-171,-86,25,358,153,-16,-67,-168,-165,-201
-266,-338,-68,180,13,-163,-217,-132,-188,-227
-390,-542,-257,355,197,-35,-186,-156,-242,-302
-204,-302,-186,236,222,90,-20,-40,-120,-149
159,64,-23,-58,59,179,196,221,184,196
233,113,-41,-321,115,253,316,387,289,286
204,129,88,137,113,148,224,354,221,234
166,154,316,409,-66,-16,56,211,130,155
78,82,301,202,-145,-87,-8,144,64,71
48,64,213,-135,-151,-121,-54,43,8,21
89,105,60,-258,-139,-97,-26,-15,29,56
53,0,-179,-40,-118,-84,-44,-12,33,49
3,-64,-281,24,-22,35,5,4,32,16
-8,8,-141,-115,119,148,86,-28,39,-4
-9,-4,-71,-246,147,83,29,-120,-20,-8
35,19,-7,-39,9,41,69,-76,-3,34
67,98,206,332,-89,45,119,-22,35,56
70,130,291,241,-190,-53,72,-5,44,59
89,168,283,-31,-177,-80,101,33,39,56
122,216,131,-326,-258,-196,104,40,73,69
78,204,96,-222,-210,-268,60,35,67,42
-93,3,112,190,0,-65,26,-70,-88,-98
-214,-137,102,588,160,76,-41,-164,-221,-217
-278,-175,43,538,206,93,-108,-230,-282,-281
-223,-119,-34,86,272,166,-73,-210,-256,-238
-59,23,-3,-407,189,108,-34,-94,-107,-82
93,101,-16,-397,-71,39,71,86,97,102
162,42,-207,-143,-370,-66,97,161,189,195
119,-52,-315,65,14,31,114,160,160,169
-5,-113,-280,16,359,153,115,113,73,55
-72,-124,-197,-140,28,59,69,59,14,-27
-119,-140,-72,-181,-224,-72,-40,-48,-74,-103
-127,-113,3,-122,-41,-87,-95,-90,-102,-133
-5,24,132,42,-11,-39,32,81,20,-1
37,116,291,228,-76,-15,152,197,55,29
-86,59,266,407,-31,-42,69,145,-67,-107
-122,0,119,311,-40,-62,82,311,-45,-134
-23,-50,-177,-277,-106,-14,137,377,80,-4
0,-70,-253,-362,-15,17,17,162,72,28
32,3,-99,-145,48,-37,-177,-156,19,45
78,21,-64,2,-9,-109,-178,-285,23,83
129,99,83,172,-18,-37,-9,-210,80,119
165,169,160,73,-10,15,58,-59,120,164
99,147,112,-43,-28,11,-55,-21,88,118
-5,18,-11,-252,-164,-2,-128,85,34,21
-63,-74,-104,-158,-134,-17,-105,109,-11,-28
-107,-108,-171,87,29,-13,-63,11,-44,-65
-98,-70,-59,151,44,1,-91,-23,-35,-69
-32,9,73,37,43,39,-144,-113,-21,-34
20,63,115,-63,-60,20,-146,-179,7,17
53,92,146,-52,-122,-1,-67,-129,32,29
19,8,92,-6,-51,7,-27,-107,-16,-2
-38,-99,-25,17,12,6,-45,-131,-54,-48
-77,-98,19,29,15,-19,-49,-139,-97,-92
-57,-40,84,-40,-7,-49,-80,-122,-95,-87
-84,-59,34,-134,78,-47,-117,-146,-112,-98
-92,-116,-172,-343,246,10,-75,-122,-104,-85
-70,-98,-233,-219,312,71,32,-47,-32,-36
-73,-10,-64,577,206,77,74,-14,0,-48
-98,84,263,1016,-43,-6,-51,-143,-151,-137
-97,53,122,160,-302,-163,-154,-193,-180,-137
-67,-22,-143,-443,-372,-224,-120,-130,-102,-73
-104,-122,-274,-353,-185,-67,100,-100,-104,-109
-180,-219,-281,-312,-52,85,320,-93,-139,-169
-262,-286,-306,-192,188,140,298,-181,-216,-249
-147,-139,-200,32,426,144,135,-152,-123,-128
53,116,96,367,389,77,-124,-77,27,50
301,339,281,206,20,35,-98,211,259,295
183,190,284,55,-46,43,-91,239,220,202
-46,-73,155,211,84,-22,-209,-15,1,-25
73,-93,-112,-22,123,7,-87,41,90,86
214,49,-133,-78,126,143,115,220,248,228
120,95,129,-10,-184,33,54,105,134,102
13,133,442,149,-291,-93,-38,-18,1,-43
-5,126,464,227,-164,-77,-49,-72,-81,-70
73,142,246,192,9,7,17,-24,-13,25
195,128,-140,-187,-32,12,105,114,106,161
175,3,-298,-360,-122,-50,78,187,126,157
40,-108,-218,-131,-109,-98,-103,70,11,32
29,-12,-11,0,-126,-87,-106,49,28,42
119,126,136,-50,-119,3,49,174,156,152
138,98,109,-151,36,116,112,193,145,158
54,-25,9,-38,117,128,78,108,58,68
-83,-186,-39,59,153,50,-20,-18,-66,-69
-117,-160,-2,78,329,31,-52,-49,-111,-107
-107,-67,42,114,217,5,-33,18,-94,-101
-153,-54,98,122,-218,-128,-113,-5,-165,-168
-137,-15,103,-14,-237,-117,-128,-17,-163,-166
106,-24,-309,-179,110,93,147,136,156,132
88,36,-75,108,104,84,91,-41,35,64
-19,-14,-73,-4,117,20,3,-124,-67,-36
60,71,-47,-218,-88,-111,8,-30,12,53
81,155,21,52,-140,-86,28,30,32,73
-57,53,-81,100,3,23,47,31,-18,-28
-39,43,-26,-36,-14,-16,90,148,36,-17
32,88,100,-44,-143,-99,116,214,56,29
10,3,46,-30,-163,-80,228,127,-17,-2
-8,-82,-138,-210,-52,37,424,58,-10,0
37,-77,-209,-364,-66,102,403,74,78,80
43,-45,-112,-96,-128,101,293,34,70,68
65,5,-29,84,-85,23,3,-88,1,37
66,41,5,24,-16,-69,-154,17,11,40
121,106,35,-41,-52,-120,-202,171,107,115
120,95,7,-77,-104,-126,-243,109,115,135
59,36,0,-67,-79,-97,-174,-11,41,76
-8,4,54,0,0,-18,-132,-116,-50,-10
