0,13,36,-38,21,9,46,9,117,23
-9,-20,-3,1,29,12,43,11,75,4
13,15,7,23,22,11,31,14,107,15
31,38,16,7,-1,5,-15,16,64,27
6,27,9,8,-16,3,-49,13,-55,14
15,6,-71,-7,-40,-2,-79,-19,-111,-20
-24,-37,-145,-9,-57,-7,-84,-25,-110,-26
-30,-2,-20,-21,-26,-5,-72,-40,-110,-59
-40,13,39,10,-20,-16,-98,-62,-126,-76
-64,0,50,16,-24,-37,-115,-82,-115,-95
-86,3,21,18,-35,-52,-113,-107,-113,-117
-68,33,67,57,-21,-48,-87,-97,-105,-115
-26,60,133,98,-1,-21,-59,-56,-103,-78
5,105,137,103,0,16,-28,-12,-76,-18
56,162,93,62,33,76,42,62,31,46
89,153,25,6,25,101,80,106,96,93
74,49,-90,-9,12,80,58,78,49,74
52,-14,-167,-41,-4,61,34,53,10,53
8,-64,-170,-90,-31,37,13,31,-23,22
-33,-80,-49,-77,-54,7,-13,-4,-51,-15
-44,-78,9,-72,-69,0,14,2,-40,-19
-16,-37,-20,-79,-70,14,51,37,0,-1
-1,-9,-24,-42,-39,27,62,55,1,10
11,-7,-7,-10,-5,44,64,48,-7,8
8,-12,-29,-34,1,38,45,32,-18,-3
7,-25,-24,-62,0,3,2,2,-41,-9
0,-16,-34,-51,-18,-25,-41,-24,-61,-19
-12,-4,-5,-13,-14,-19,-50,-37,-77,-32
-23,-2,-7,-4,8,28,35,40,10,-21
-20,-43,-23,12,22,29,46,40,5,-18
-2,-22,-34,33,44,42,34,34,-11,-5
-4,-32,-57,-4,34,31,18,27,-22,11
-15,-27,15,-31,-4,-8,1,3,-30,-10
-21,-3,33,-15,-17,-22,-6,0,-35,-11
-29,-14,-30,0,-7,-20,-2,8,-36,-9
0,12,16,3,0,0,6,28,1,16
14,25,-17,25,14,21,20,42,31,31
-3,-29,-152,23,23,18,3,20,-7,8
-2,-36,-144,13,33,22,7,12,-10,0
6,-24,-42,-4,27,16,14,4,-13,-6
-8,-21,21,33,32,-7,3,-1,-16,-16
-18,-17,1,21,23,11,-5,16,7,-20
-20,-3,28,15,9,13,-31,17,7,-15
-23,32,89,26,-9,-22,-46,-24,-21,-20
-20,69,146,55,-1,-32,-52,-51,-30,-38
-31,72,162,60,-8,-33,-71,-52,-48,-38
-45,61,185,82,-10,-33,-81,-60,-46,-41
-34,59,195,107,-26,-41,-88,-61,-56,-38
-13,51,141,71,-32,-35,-61,-40,-56,-19
9,51,-124,0,-42,-28,-9,54,64,36
-11,-23,-130,-17,-8,-2,-14,36,33,0
-19,-56,-89,-51,19,11,-19,18,-3,-15
-6,-20,-60,-52,6,7,-11,27,-13,7
-1,-10,-24,-42,-14,-7,-37,10,-36,-2
-23,-34,-16,-67,-28,-25,-42,-12,-57,-29
-62,-59,-32,-35,-5,-18,-45,-13,-61,-59
-73,-73,-12,-2,3,-13,-44,-26,-56,-74
-76,-84,8,13,10,-23,-34,-63,-68,-94
9,-29,-3,-11,28,-3,5,-28,-31,-18
41,4,-4,-47,5,-3,6,-18,0,0
60,36,100,-18,4,-5,-14,-13,55,22
71,25,5,-12,8,7,20,21,62,50
62,8,-128,-47,-3,23,47,63,73,57
32,-33,-95,-6,11,-2,22,20,-3,13
47,-1,-50,9,27,-4,27,-7,-23,-4
44,80,25,1,4,-37,24,-40,-35,-23
34,132,70,-17,-16,-52,16,-60,-30,-18
2,70,43,-35,-6,-34,34,-37,-9,-3
-5,20,-5,-42,10,-9,27,-12,39,9
9,69,8,-5,32,8,16,12,82,22
1,36,2,20,26,10,11,11,52,13
-14,-46,-22,-6,10,2,1,-5,11,6
-8,-52,-19,-27,1,-3,-2,-3,-4,4
7,-40,-20,-26,-11,-6,-18,-11,-2,12
11,-4,2,-2,21,-13,-29,-44,-21,-10
6,-11,28,7,33,-17,-13,-47,-18,-19
10,-4,46,0,8,-25,8,-46,-19,-20
9,-13,40,-20,-13,-38,24,-43,-14,-26
-4,-19,11,-45,-34,-54,17,-52,-22,-37
-9,17,-4,-76,-51,-67,8,-58,-25,-30
1,53,40,-55,-37,-63,11,-59,-31,-20
12,80,78,-23,-9,-44,21,-46,-44,-4
31,124,118,-15,-2,-24,20,-35,-21,-1
49,114,145,4,0,-22,28,-24,10,24
40,31,108,7,18,-6,17,-21,-4,21
0,-39,51,14,28,21,29,-11,-6,-8
-38,-116,-42,-10,20,31,53,0,1,5
-22,-109,-89,-41,-5,17,26,1,10,7
-33,-94,-171,-20,22,28,25,2,7,-7
-11,-22,-164,34,55,48,33,10,50,5
-3,9,-97,32,51,38,31,6,82,5
-25,-35,-184,11,24,2,0,-25,4,-11
-25,-44,-176,27,1,-14,-22,-28,-32,-10
-35,-41,-77,37,-48,-59,-65,-57,-69,-43
-53,-21,3,32,-88,-106,-114,-92,-100,-76
-36,28,71,36,-59,-87,-103,-81,-90,-66
-12,64,149,89,4,-33,-65,-55,-67,-22
8,51,129,100,26,-1,-33,-14,-17,11
-10,-11,-52,10,-11,-17,-17,6,-6,18
-58,-93,-138,-33,-25,-34,-48,-21,-50,-21
-64,-123,-124,-43,-11,-6,-38,-14,-34,-28
-26,-60,17,-62,-22,12,-16,-4,-10,-13
19,48,167,-32,-20,32,-4,5,-4,10
54,83,196,19,2,59,30,39,35,38
68,113,139,55,32,94,75,97,109,90
63,120,-8,20,26,89,92,113,144,96
-7,25,-97,-58,-19,11,18,32,42,24
-48,-38,-64,-68,-48,-28,-29,-5,-11,-19
-34,-62,-147,-80,-49,-20,-13,10,-4,2
-28,-89,-172,-4,-13,-11,-1,7,-3,2
-20,-93,-58,58,4,-7,14,4,-1,-1
18,-30,46,133,15,9,30,4,17,19
39,37,113,172,34,24,6,-11,0,18
44,76,144,82,6,22,-20,-23,-19,0
22,64,50,-7,15,44,9,-3,1,-11
22,25,-105,-53,40,74,50,36,38,21
74,24,-126,-112,12,71,59,71,76,61
79,-8,-100,-143,-35,37,51,70,92,75
31,-85,-163,-93,-18,40,41,60,68,45
22,-92,-77,-2,21,53,63,54,50,39
31,-59,1,17,23,48,80,53,39,33
30,-34,43,19,13,35,63,33,30,9
16,-28,72,8,5,12,33,15,17,1
19,-2,75,-10,-16,-21,-13,9,14,12
8,11,98,-10,-32,-26,-32,-6,3,6
-3,19,127,25,-10,-27,-38,-24,-14,-7
16,35,162,74,20,-10,-10,-18,6,-4
8,60,212,112,33,1,-6,13,57,0
-7,32,173,79,24,-4,2,25,59,7
0,-39,27,-32,17,2,10,16,-4,18
10,-2,31,-49,0,-4,-4,-2,-9,28
-3,11,47,27,43,22,18,27,10,18
-1,-3,36,56,48,28,27,38,18,19
23,-8,6,8,11,11,24,34,30,27
-8,-38,-36,7,22,10,16,12,22,-2
-32,-39,-49,5,35,16,4,-8,-5,-31
-20,8,0,-9,23,7,-13,-26,-12,-41
0,27,-2,-31,12,5,-7,-19,51,-22
-8,30,-50,-80,-22,-15,6,-15,36,-12
-42,0,-120,-126,-63,-56,-12,-32,-35,-30
-33,-47,-55,-91,-69,-61,-32,-48,-50,-36
4,-37,35,-44,-48,-41,-8,-26,-28,-7
-8,-38,59,-26,-22,-28,-3,-15,-7,-4
-10,-36,63,10,14,2,22,10,23,5
4,-41,-11,40,29,35,44,31,17,18
18,-58,-113,29,33,49,39,30,21,26
29,14,-176,13,28,66,56,65,77,44
24,36,-136,0,20,62,37,57,66,49
10,-4,-61,-55,8,42,14,44,35,31
9,2,-34,-31,20,35,-4,27,11,19
1,5,-55,-14,19,27,-7,11,2,25
-8,-6,-101,-5,20,13,-8,8,-3,29
-3,14,-4,-1,22,-2,-13,4,7,11
20,36,14,-5,18,-12,-27,8,7,0
16,41,38,-10,8,-19,-64,1,-21,0
11,52,54,6,-8,-24,-73,-14,-23,-7
10,46,59,16,-13,-35,-67,-16,-31,-20
8,32,43,18,-8,-38,-73,-13,-38,-15
6,7,7,9,-21,-40,-70,-25,-43,-23
-1,-10,-40,28,-12,-41,-28,-21,-40,-34
-2,43,28,43,-3,-14,15,17,2,-13
-8,70,32,32,6,-17,15,18,26,-3
1,22,6,6,4,-34,2,-2,-7,-20
21,1,50,-16,3,-29,0,-1,-11,-9
23,-3,36,-12,0,-21,-5,-3,-1,-2
8,-19,36,0,-14,-25,-20,-15,-2,-13
-3,-38,24,-4,-6,-23,-28,-1,19,-25
-26,-46,-3,0,11,-5,-27,12,6,-38
-14,-29,-13,9,12,-1,-22,-8,-9,-31
9,-12,7,18,6,-9,-32,-24,-3,-20
2,-11,42,65,26,0,-37,-26,-18,-25
-8,-6,72,76,44,0,-42,-25,-22,-33
-3,15,88,69,34,-3,-52,-33,-37,-33
2,31,80,79,22,4,-49,-29,-43,-26
30,31,-18,62,20,16,-22,-3,-1,0
31,14,-89,-10,-25,-1,-31,9,22,14
-1,-28,-15,-28,-48,-15,-49,-19,-25,-18
-16,-30,-16,-44,-30,-9,-34,-11,-23,-17
24,3,-134,-147,-86,-35,-37,-1,9,15
16,9,-156,-106,-79,-38,-16,-22,-15,-3
4,20,-32,-61,-66,-48,-18,-54,-46,-33
-3,24,29,11,-27,-31,-8,-63,-40,-41
-1,37,68,101,24,9,38,-24,10,-23
-19,-45,6,78,27,21,52,8,29,-8
-15,-82,-34,20,0,4,20,-3,-6,-15
-6,-22,28,53,-2,0,15,-25,-30,-19
-2,27,104,70,5,0,14,-33,-35,-17
4,60,100,45,0,-2,10,-36,-36,-15
-6,44,49,54,-7,-16,-8,-32,-48,-18
-1,20,45,47,-9,-8,-12,-6,-17,-9
20,0,-5,-25,-40,-11,-3,14,76,26
25,7,-11,-32,-60,-12,16,23,96,28
7,0,-12,14,-52,12,25,30,37,23
-35,-41,2,58,-3,41,45,30,12,13
-26,-25,90,71,15,40,61,27,3,6
2,35,139,10,-7,21,32,19,-1,7
36,90,119,-35,-30,21,36,27,25,27
-37,-61,-34,-19,-23,10,52,-1,-8,9
-8,-71,-187,-38,-33,6,58,10,14,31
0,-64,-294,-54,-22,12,55,10,8,38
-3,-42,-228,-25,-5,9,42,8,11,31
12,3,-55,-22,-8,-5,11,5,7,33
26,58,-25,-26,-19,-23,-24,0,-3,22
38,113,46,-2,-31,-15,-10,18,36,25
4,18,36,10,-15,-6,28,29,52,39
-18,-84,0,1,0,-3,3,32,32,45
-12,-70,5,-11,0,-5,-15,29,59,42
-27,-30,36,-29,-10,-29,-28,3,8,19
-53,-24,36,-5,2,-37,-47,-18,-46,-20
-44,-17,30,27,33,-25,-45,-24,-58,-24
-44,-3,50,45,52,-5,-22,-17,-34,-5
-33,-6,-10,-2,33,0,-10,-5,4,25
10,5,-30,-48,-18,-3,-2,3,40,62
-17,-19,30,-5,-6,0,-3,-9,11,29
-56,-45,48,28,-4,-10,-4,-20,-18,12
-75,-13,77,27,-21,-41,-39,-41,-50,0
-80,33,117,62,-30,-53,-76,-79,-90,-45
-57,77,121,78,-11,-49,-78,-90,-96,-48
-37,68,96,115,29,-17,-5,-37,-24,-25
2,-23,-77,17,6,0,44,17,11,42
14,-54,-108,-48,-1,9,34,47,39,79
-33,-80,-116,-26,13,-13,-3,11,-4,30
-87,-126,-189,-13,-15,-51,-59,-55,-71,-46
-93,-125,-75,17,-31,-53,-62,-67,-86,-58
-33,-56,-3,22,-2,-15,-15,-18,-36,-5
7,-12,-30,-41,2,24,31,33,20,46
6,16,-61,-66,66,62,82,55,29,37
-6,8,-35,-49,67,46,42,14,0,5
-50,-32,-39,-48,61,42,8,-7,-19,-21
-63,-49,-85,-61,38,43,20,-1,-22,-39
-28,-27,-77,-23,24,39,25,13,-15,-26
37,11,-5,35,52,54,68,67,20,29
75,60,105,80,72,59,91,84,44,61
67,109,254,108,62,40,54,52,23,30
56,97,332,105,52,24,26,17,0,-3
64,79,276,54,41,34,53,30,4,0
75,48,88,-7,32,48,77,54,43,45
61,5,-100,-73,10,50,63,70,60,72
40,2,-169,-74,-2,31,22,63,66,44
42,22,-193,-27,7,34,21,79,94,29
19,-18,-170,20,21,46,40,56,65,14
12,-48,-146,40,25,33,46,21,25,-9
1,-21,-31,36,13,22,10,-15,-13,-17
-10,-43,-161,0,1,21,8,-18,-14,-26
-19,-68,-239,-31,-22,13,21,-8,9,-9
-19,-65,-88,-4,-37,0,22,-15,7,-8
-2,-22,31,55,-24,-1,-7,4,7,17
1,-13,40,40,-21,-6,-35,-5,2,16
0,-10,51,20,-22,-9,-38,-14,-15,16
-25,-25,45,44,-15,-3,0,-16,-18,0
-54,-45,48,77,-9,5,17,-13,-17,-18
-47,-23,68,80,-17,-7,1,-23,-14,-21
-53,-22,71,69,-16,-27,-25,-53,-46,-37
-50,-30,62,50,-14,-29,-28,-71,-75,-39
-13,-8,66,7,-29,-38,-16,-50,-58,-16
-4,-2,70,21,-15,-26,-22,-29,-52,-13
-4,-17,15,23,7,1,-6,-6,-38,2
-10,-44,-38,12,12,8,-20,-9,-29,-9
-52,-66,-25,5,-20,-40,-82,-56,-57,-60
-47,-15,-13,-14,-51,-50,-77,-44,-21,-54
-28,-11,22,-38,-57,-45,-65,-30,-15,-20
-8,-13,72,-42,-63,-32,-56,-3,0,6
15,21,75,-45,-39,-6,-28,25,24,28
40,56,41,-50,-6,22,13,52,47,46
50,54,-21,-27,18,46,35,58,91,87
35,18,-59,-12,21,46,23,53,67,79
21,48,11,0,8,15,-5,36,38,56
27,110,-11,20,-9,-21,-58,-21,-11,18
7,104,59,34,0,-10,-31,-26,-7,5
-15,35,72,25,24,19,7,-15,15,-2
-7,32,35,3,29,18,-8,-18,3,-4
27,79,49,2,13,-10,-43,-43,-22,-13
33,100,42,17,28,-3,-25,-45,-6,-7
42,152,81,53,51,35,19,-3,48,27
33,93,72,74,61,48,4,6,52,34
-18,-52,30,56,45,31,-37,-24,2,-5
-51,-140,-93,-15,-2,6,-33,-11,0,-21
-19,-120,-189,-75,-52,-8,-21,22,24,-5
-6,-62,-147,-80,-69,-11,-25,31,19,8
-21,49,46,-24,-23,-12,-23,11,3,-21
-28,17,59,-6,-20,-7,-17,2,-5,-20
-52,-22,36,-10,-15,5,-13,14,-1,-18
-56,-29,12,-19,-19,0,-12,10,9,-3
-19,-25,6,-18,-12,4,-1,16,20,21
-12,-45,-5,-4,4,9,7,23,10,20
-28,-54,-15,13,10,0,0,11,-15,12
-23,-49,-19,1,-1,-1,-5,9,6,17
-8,-31,0,-3,-7,-9,-20,-5,23,4
-17,-16,-25,24,6,-18,-35,-26,-30,-16
4,0,-104,6,13,-1,0,-7,-8,19
25,6,-145,-23,13,1,30,3,12,41
20,24,-112,-5,6,-6,22,-4,1,14
5,10,-80,-4,6,0,15,-1,-7,-15
-16,-29,-19,14,23,14,7,19,-6,-33
0,14,43,28,28,30,13,53,44,5
32,85,39,-4,18,28,22,73,76,42
11,46,27,-18,10,1,1,30,35,6
-23,0,-6,-20,17,4,-6,14,9,-21
-13,-18,-3,-35,21,10,1,16,2,-20
6,-28,8,-44,11,12,-16,13,-16,-7
-1,-8,28,-9,7,0,-30,2,-25,12
-16,6,-26,22,2,-9,-20,-10,-29,-3
-27,16,-27,30,1,-10,-23,-27,-33,-17
-32,23,-13,31,6,-16,-25,-37,-39,-26
-17,9,36,12,5,-18,-7,-19,-17,-12
-36,-24,35,-1,8,3,-3,-1,-21,-1
-40,-27,21,15,10,26,-5,20,-11,5
-4,-27,5,-9,10,44,11,33,18,24
16,20,48,-14,7,33,6,27,55,31
-3,39,60,-15,2,4,-10,7,26,10
5,34,32,-35,6,0,-17,2,49,18
0,4,-1,-46,19,-2,-31,-11,23,4
-46,-41,-10,-19,32,-18,-35,-45,-44,-6
-48,-40,29,18,28,-21,-21,-66,-68,-17
0,4,71,50,14,-15,-12,-55,-62,-22
42,60,78,74,22,10,-3,-17,0,19
79,124,50,79,39,31,28,45,84,67
78,82,38,-4,6,8,12,39,51,61
59,63,67,-68,-25,-7,9,21,19,52
35,72,69,-79,-33,-6,26,0,-11,31
-26,23,58,-17,-16,-25,-6,-44,-65,-42
-31,-8,-3,-32,-12,-10,0,-6,-36,-30
-16,-12,-94,-47,1,11,14,22,28,6
-4,-29,-208,-61,-3,9,5,11,20,12
0,-33,-218,-77,-15,10,13,16,16,4
17,-7,-70,-41,-16,21,23,35,9,20
74,43,17,10,16,10,52,23,3,33
65,26,60,31,26,3,47,14,-6,22
51,38,96,34,22,3,51,32,23,23
42,94,113,31,1,-4,53,43,61,30
6,45,62,-20,-18,-25,20,2,-3,0
-17,6,10,-52,-27,-43,-6,-17,-24,-20
-33,-17,31,-31,-28,-38,-52,-21,-35,-35
-29,-37,6,-2,-21,-21,-37,-2,-36,-33
5,-42,-31,22,-24,-15,-32,3,-27,-2
28,-7,-1,45,-28,-29,-52,-14,-34,2
4,15,30,48,-19,-9,-31,-8,1,-3
-34,-53,-37,13,19,25,6,19,35,-11
-28,-76,-97,-11,39,40,35,40,44,-5
0,-15,-74,-49,25,21,20,14,46,-1
17,29,-101,-95,8,-4,12,12,31,10
-12,-3,-94,-54,-6,-23,-19,-10,8,-6
-57,-42,-38,-6,-24,-42,-35,-44,-29,-45
-36,-18,0,5,-29,-32,-14,-16,-3,-38
6,26,-13,-9,-17,-8,6,-1,22,-17
1,30,34,-37,-2,5,21,1,15,-9
16,60,60,-28,16,11,37,22,32,10
23,65,23,-7,24,6,33,20,36,13
18,57,0,14,4,-1,28,17,16,15
18,35,24,18,-20,-11,11,3,4,0
18,38,45,-4,-37,-24,2,0,5,0
-2,47,12,-20,-16,12,41,29,46,-4
-20,8,-40,-48,-36,-3,39,-2,5,-16
-15,-12,-29,-45,-39,-15,41,-13,-10,-18
-6,-9,0,-38,-31,-20,17,-11,-19,-26
13,1,24,-26,-26,-21,-2,-9,-12,-19
12,8,63,-10,-17,-12,-3,-18,-10,-26
50,133,117,46,-6,-10,-10,-13,-6,-21
59,109,98,86,11,-18,-16,-34,-42,-19
40,76,109,107,35,-17,-18,-41,-62,-31
10,71,107,109,23,-28,-28,-72,-71,-69
24,117,93,71,-13,-68,-42,-75,-44,-61
27,39,-37,-13,-29,-56,-17,-28,-4,-22
-7,-93,-241,-74,-17,-5,23,39,29,12
6,-65,-184,-94,-11,18,42,63,52,54
1,3,-90,-98,-42,-9,27,22,16,26
-13,24,-77,-93,-50,-19,21,-8,-15,-3
-30,-5,-72,-83,-42,-14,7,-24,-30,-24
-24,-39,-37,17,-11,8,15,-2,-28,-36
-35,-32,41,86,-16,7,24,16,1,-32
-5,27,82,110,-6,8,49,35,49,-12
-4,6,65,63,-7,-10,30,20,27,-22
-8,1,101,22,-16,-31,-11,-19,-34,-42
14,39,108,-25,-16,-41,-21,-16,-33,-29
39,80,34,-86,-13,-26,3,19,1,-3
56,96,-8,-93,-14,-4,10,24,24,18
59,83,-63,-65,-6,7,23,28,27,39
60,57,-109,-43,-9,4,21,31,17,43
-27,-131,-187,-36,-11,-1,-1,-1,-7,-19
-81,-162,-213,-22,-17,-20,-9,-7,-20,-44
-81,-141,-122,16,-1,-9,-4,-12,-23,-42
-37,-111,-61,16,28,18,15,-7,2,-10
-3,-94,-126,4,37,42,18,5,19,7
8,-45,-124,30,47,64,24,23,25,8
19,21,-128,40,40,85,33,40,86,39
27,16,-127,-6,17,58,10,21,60,29
11,-20,-90,-54,-6,26,13,-4,0,6
2,-20,-15,-83,-26,0,11,-11,-3,0
-11,-14,79,-52,-40,-16,-1,-18,-17,-4
-14,-18,105,-9,-21,-12,5,-19,-27,3
-40,-37,90,16,-3,6,10,-13,-20,-16
-25,-46,42,22,6,17,29,12,-10,-4
-4,-59,-3,12,16,17,44,22,-14,24
4,-47,-98,-8,27,26,60,28,-2,30
16,-22,-204,-31,29,19,47,27,20,20
10,10,-161,-8,38,11,4,10,3,8
-6,-17,2,11,35,1,-14,-21,-39,-42
-34,-54,136,12,17,-4,-22,-31,-54,-60
-3,-26,160,7,11,3,-20,-16,-16,-31
-3,3,107,-3,-3,-10,0,-17,-6,-26
1,-11,42,-26,-10,-10,19,-21,-26,-27
28,16,72,-39,-25,-18,19,-24,-38,-3
46,67,86,-26,-26,-21,13,-26,-47,3
25,46,60,-7,-12,-14,7,-19,-32,16
21,-3,-65,-20,0,-11,-2,-12,-17,18
17,-35,-132,9,9,0,-15,9,-9,20
38,16,-33,51,10,18,0,56,45,39
23,47,91,75,5,23,11,60,38,23
-3,-8,57,36,10,9,-1,10,-27,-15
-8,-48,24,-19,-8,0,4,-4,-29,-14
-24,-85,1,-42,-25,-6,16,8,-21,-2
-32,-107,-24,-37,-23,0,16,18,-24,-8
-6,-62,-31,-48,-22,8,-14,21,-5,1
14,-12,5,-26,-12,10,-11,19,11,13
12,-11,22,7,11,12,-21,0,-1,11
0,-6,39,-1,3,1,-24,-18,-11,0
-34,-1,72,-4,-4,-2,12,-15,-7,-15
-70,13,122,14,-25,2,22,-16,-4,-26
-70,23,145,-11,-20,-3,18,-23,-19,-40
-45,11,89,-53,-27,-14,21,-8,-23,-41
4,34,55,-39,-42,-22,-3,12,6,-6
19,44,44,17,-16,0,-3,26,32,26
0,20,3,70,8,14,-12,7,0,8
-9,-16,-83,68,25,15,-1,8,-11,-10
-2,-21,-53,44,29,19,39,23,5,5
21,2,-19,9,14,26,62,26,18,22
9,-9,-16,-31,20,27,65,17,27,8
-6,-13,-52,-65,13,22,54,16,35,16
13,10,-48,-26,0,33,57,40,61,35
37,61,-5,20,3,41,41,57,71,32
21,44,15,19,8,28,0,22,17,1
-6,6,6,-5,-3,14,-21,-25,-25,-29
-3,2,6,-16,-8,9,-34,-39,-30,-35
-2,-4,20,0,-6,9,-46,-47,-39,-42
-3,-4,11,20,2,2,-50,-56,-51,-34
7,18,15,45,8,-4,-44,-46,-42,-22
28,61,37,38,0,2,-38,-29,-6,9
41,92,106,3,-8,4,-41,-13,-1,24
34,92,184,36,7,8,-40,-12,7,9
33,100,236,68,10,12,-36,-27,-11,1
36,101,236,68,3,4,-37,-30,-12,1
42,96,127,26,-29,-4,-39,-28,-9,-1
0,71,-8,0,-54,-32,-46,-41,-26,-18
-35,59,-120,26,-48,-41,-44,-38,-15,-37
-13,73,-198,47,-20,-18,-8,3,44,-20
-18,30,-131,73,0,2,5,5,47,-16
-78,-138,-58,110,19,-7,-52,-59,-37,-66
-133,-248,-85,91,-5,-49,-115,-117,-108,-116
-158,-225,-68,60,-8,-48,-119,-127,-119,-121
-151,-175,-6,73,24,-17,-84,-92,-80,-104
-64,-65,77,80,32,0,-32,-43,-35,-58
50,8,82,38,-4,16,10,13,16,12
69,-6,28,-2,-19,7,11,25,19,31
42,-42,-26,-35,-24,-29,-32,-18,-17,-8
-6,-59,38,-21,-25,-41,-60,-48,-64,-63
-18,-33,141,15,-20,-33,-59,-54,-64,-82
24,4,96,6,-8,-4,-29,-16,-9,-28
77,27,-36,-31,-14,29,19,41,53,36
63,-14,-152,-42,17,59,60,69,85,51
68,-11,-114,-109,13,62,77,94,95,68
56,-18,-83,-118,8,36,55,89,81,72
-11,-42,-66,0,3,-14,-30,-5,-3,-7
-53,-18,-47,46,-19,-46,-93,-79,-58,-76
28,84,-16,-1,-20,-43,-68,-64,-50,-28
92,185,83,1,-7,-25,-17,-38,0,26
98,220,148,70,34,21,26,18,69,62
76,145,92,91,101,86,63,72,103,71
70,12,-19,17,107,109,95,116,115,85
111,-6,-5,-55,32,82,88,114,121,110
93,11,96,-30,17,39,43,76,75,76
23,-25,39,-2,42,16,14,38,29,6
-13,-21,-22,80,49,7,-16,-13,-30,-48
40,14,49,-44,-1,1,39,43,19,-12
45,66,55,-41,10,10,55,48,8,7
1,-17,-62,-67,-10,-9,43,23,-4,6
2,-91,-169,-89,-20,-14,37,29,3,10
29,-54,-122,-69,-16,0,49,47,11,35
39,37,-43,-49,-25,11,37,21,5,23
-6,50,-56,-48,-26,-6,24,-12,-31,-28
-58,11,-38,-55,-26,0,26,-6,-43,-36
-60,-14,45,1,1,21,46,18,-20,-14
-71,-58,55,68,35,39,50,20,-20,-13
9,-22,31,58,20,28,48,20,0,32
51,-60,-49,17,2,18,58,29,25,62
6,-90,-70,16,12,23,37,11,4,12
-8,-38,-24,28,32,32,33,1,38,-6
-49,-46,-64,-9,50,20,-36,-11,-56,-56
1,21,51,-16,38,-20,-55,-31,-34,-34
50,65,121,0,27,-41,-43,-37,-5,17
26,38,83,4,14,-56,22,5,8,17
-11,-7,-2,-12,-15,-65,70,70,27,7
25,64,-57,0,-28,-50,69,78,49,33
64,173,-35,14,-29,18,74,62,104,68
33,130,0,-1,-16,69,54,29,88,46
-47,20,0,-15,-4,58,33,4,6,-16
-62,-6,44,-1,3,27,22,-4,-29,-44
-9,6,1,-10,-13,14,1,-8,-15,-5
-7,3,-23,-19,-39,3,-36,0,0,5
-36,-38,4,25,-18,2,-41,5,1,-4
-59,-73,-27,41,23,26,-36,14,0,-6
-97,-96,-55,3,17,-15,-87,-43,-77,-51
-85,-74,-45,57,4,-42,-101,-81,-82,-59
-45,-18,-79,137,1,-65,-117,-102,-103,-62
-27,66,-50,190,-9,-88,-147,-141,-150,-85
-38,108,89,200,-23,-103,-154,-159,-157,-90
-46,138,251,160,-60,-95,-120,-115,-101,-65
-51,167,263,0,-96,-96,-96,-78,-50,-57
-44,93,148,-167,-92,-81,-31,-13,-44,-46
-48,3,49,-263,-107,-86,59,47,-48,-41
-172,-103,16,-275,-205,-190,-1,-58,-166,-164
-283,-185,53,-180,-242,-257,-88,-191,-277,-303
-261,-163,157,-29,-173,-241,-81,-213,-271,-274
-202,-82,162,37,-89,-203,-23,-191,-198,-191
-95,60,114,46,-2,-137,13,-111,-62,-68
21,134,78,95,97,70,108,113,43,40
66,77,42,157,174,170,256,442,119,92
133,35,-123,105,132,84,334,653,209,168
176,65,-175,-38,50,23,257,648,276,229
243,178,-63,-219,-35,-6,128,443,279,270
203,187,59,-252,-75,59,130,191,175,200
5,19,21,-142,-44,151,239,-21,43,25
-107,-70,-31,-26,9,167,287,-250,-13,-64
-143,-198,-133,85,132,232,292,-309,0,-30
-76,-216,-283,101,169,263,242,-177,30,44
31,-139,-233,53,150,188,20,-42,80,109
101,-13,-79,67,157,111,-156,32,131,148
97,223,494,53,126,83,-179,-50,21,90
30,119,391,38,103,86,-101,-38,10,40
-2,-10,266,18,52,27,-102,-50,-6,26
25,-7,191,-9,8,-39,-154,-69,-8,51
29,-17,-94,-68,0,-70,-188,-89,-11,25
12,25,-218,40,23,-84,-228,-140,-68,-48
-22,121,-84,231,36,-131,-285,-232,-176,-141
18,518,207,304,2,-141,-260,-339,-262,-184
10,749,345,88,-111,-187,-171,-374,-264,-202
-123,583,341,-216,-230,-251,-25,-301,-251,-258
-209,416,479,-267,-267,-261,156,-148,-289,-315
-192,286,546,-16,-182,-236,278,-39,-302,-323
-232,-80,335,235,-140,-400,83,-75,-295,-309
-275,-471,-169,137,-352,-695,-246,-49,-283,-266
-330,-538,-390,116,-385,-780,-371,78,-285,-310
-275,-386,-308,145,-240,-618,-298,245,-228,-310
-155,-91,-78,6,-178,-216,-58,521,-199,-285
-65,170,171,-193,-205,59,67,563,-182,-245
41,474,349,-200,-213,-71,271,415,-18,-121
195,783,268,-326,-180,-193,574,293,179,43
283,732,332,-403,-108,-52,685,123,192,122
268,441,351,-290,-34,49,615,-48,151,161
69,133,395,172,165,79,268,-221,71,57
-131,-160,543,581,335,24,-275,-329,-71,-104
-282,-437,398,588,295,-3,-638,-207,-171,-225
-381,-598,79,485,230,76,-733,-158,-205,-278
-318,-408,-32,270,155,26,-690,-422,-257,-273
-7,203,389,236,128,27,-503,-581,-241,-175
308,610,572,347,165,125,-325,-479,-48,75
526,692,427,283,203,339,-54,0,276,379
505,602,264,171,281,489,134,407,404,444
299,267,-72,82,236,418,84,397,280,272
0,-149,-467,-47,100,274,45,248,131,58
-344,-466,-766,-236,-68,26,91,78,4,-190
-437,-625,-762,-319,-226,-244,177,-66,-12,-239
-159,-375,-396,-474,-319,-313,359,-131,58,-48
178,-127,-120,-498,-321,-303,476,-79,168,172
308,-54,-195,-429,-286,-281,488,85,309,315
242,-253,-632,-293,-128,-186,248,100,348,322
218,-367,-875,-284,-52,-57,-256,23,276,269
85,-147,-417,50,98,192,-592,-181,22,24
72,253,379,546,360,186,-768,-422,-172,-128
42,354,592,636,450,153,-615,-482,-212,-147
-159,101,460,639,587,408,-276,-362,-192,-229
166,173,372,173,255,196,-185,-76,136,142
174,183,79,-65,38,53,-254,-119,88,128
-143,-465,-680,-436,-251,80,-260,-73,102,3
-208,-311,-315,-99,-357,-146,-478,-265,-86,-144
-407,-165,104,273,-291,-264,-600,-476,-370,-442
-373,-131,19,373,-184,-236,-583,-567,-477,-506
-267,16,111,458,-3,-123,-470,-486,-462,-474
14,235,264,257,98,49,-98,18,-96,-156
277,342,-42,-381,-105,18,141,372,226,181
138,515,268,-511,-296,-123,134,278,150,99
-115,833,1046,-41,-259,-213,125,-13,-142,-227
-270,1174,1646,492,-133,-320,15,-370,-493,-566
-413,1076,1587,846,107,-236,-6,-602,-669,-736
-232,461,879,670,258,-6,-48,-543,-434,-426
226,-206,-29,14,265,289,-14,-119,159,243
448,-872,-1186,-659,186,403,211,493,692,707
281,-1127,-1627,-953,129,361,346,729,760,636
30,-1202,-1538,-877,153,350,336,527,578,388
40,-978,-1201,-675,73,215,361,325,438,307
109,-630,-694,-382,-77,8,351,236,377,307
41,-477,-427,-178,-108,-51,345,220,299,241
24,-385,-375,5,-18,191,383,112,161,146
-28,-192,-375,233,63,435,325,-74,-76,-20
-185,61,-89,444,42,179,57,-135,-341,-304
-211,454,566,395,-150,-260,112,83,-429,-419
-142,614,1230,297,-223,-275,427,306,-241,-278
-187,160,1249,360,-62,58,713,455,-43,-166
-35,-314,694,275,-29,134,601,437,169,58
87,-484,-252,-91,-110,106,291,234,275,211
-6,-256,-523,-203,-237,-97,-92,-57,166,66
29,80,-115,34,-159,-106,-312,-133,187,70
3,15,75,270,167,57,-386,-94,211,94
92,-76,76,289,427,272,-195,83,303,217
106,51,356,460,508,441,41,86,199,143
-16,146,346,340,290,406,363,126,18,-77
-65,349,-52,-282,-98,131,566,278,-21,-170
-36,389,-341,-640,-208,-87,637,236,-40,-190
-68,-16,-576,-549,-133,-255,510,79,-54,-174
-78,-661,-923,-463,-21,-228,-304,105,193,94
-62,-605,-430,-115,143,111,-277,326,278,123
52,-428,51,152,382,231,-96,374,396,267
339,-174,40,-99,383,214,250,553,599,528
430,-227,-442,-500,136,183,683,747,702,627
78,-499,-697,-633,-131,-4,1169,766,438,270
-192,-390,-135,-272,-186,-168,1307,592,84,-93
-217,78,605,502,-106,18,412,-40,-215,-307
-9,46,107,292,-338,-291,175,24,-4,-86
266,142,-492,-71,-285,-355,212,118,211,163
524,455,-568,-263,-127,-242,107,-12,284,374
397,230,-574,-325,-52,-53,-14,-88,318,412
108,-313,-637,-292,-99,205,42,45,261,295
143,-464,-614,-260,-107,228,55,242,238,287
-230,244,79,400,-165,-402,-902,-593,-530,-452
-119,961,465,370,-81,-308,-621,-806,-646,-502
-186,542,138,143,-55,-27,-311,-748,-557,-443
-324,-52,218,277,207,267,-87,-607,-516,-487
-523,-434,868,596,405,204,-60,-476,-512,-558
-409,666,2194,423,-385,-679,-1034,-601,-619,-613
-347,690,1315,442,-246,-720,-803,-50,-389,-473
-302,53,12,133,-209,-540,-80,595,-207,-344
169,-325,-1044,-241,-287,-318,474,940,280,207
642,-205,-1043,-166,-164,-303,816,844,728,749
618,110,-415,63,63,-241,808,354,557,654
336,388,96,55,-21,-151,383,-156,61,219
-282,-224,-53,-49,40,410,-1057,-296,-213,-199
-98,-161,-172,-171,-47,148,-1349,-279,-99,-73
-52,-129,-179,-259,-9,117,-1226,-413,-99,-47
-89,-301,-247,-85,27,124,-837,-424,-17,28
185,-292,-169,-66,24,229,-219,-131,310,407
438,-257,-114,-356,57,516,567,444,650,708
475,-184,-214,-485,109,562,914,699,636,673
368,-95,171,-165,235,422,650,462,360,416
148,5,431,240,256,100,143,77,13,53
-110,117,324,583,170,-278,-342,-299,-295,-262
-219,-17,-142,441,45,-707,-316,-263,-202,-260
-109,-255,-699,-138,-156,-1068,56,-26,87,18
-210,-718,-875,-490,-339,-941,422,-20,140,58
-517,-1014,-238,-256,-86,-41,637,-73,-20,-168
-435,-602,489,199,210,314,331,-57,-218,-288
-260,-6,730,539,310,546,0,-136,-394,-353
80,649,181,303,330,744,27,-66,-231,-151
247,959,-883,-433,-7,213,-83,-35,-30,-10
-31,501,-1232,-885,-523,-458,-322,-259,-102,-167
-259,-97,-684,-667,-560,-532,-540,-448,-226,-289
-46,-313,433,29,-279,-203,-748,-466,-175,-53
216,35,1497,631,202,275,-635,-56,91,207
361,516,1905,1013,536,385,-207,356,287,305
489,927,1598,730,536,356,-22,433,348,366
654,1197,674,-137,348,280,-190,311,339,430
490,1095,-201,-754,272,316,-388,-9,106,221
151,547,-487,-605,277,295,-519,-362,-152,-75
29,-5,-469,-70,329,105,-410,-430,-200,-154
55,-407,-586,-26,123,-62,-101,-149,-73,-43
26,-1136,-803,-162,-136,-59,152,232,279,282
29,-1349,-874,-208,-253,-152,205,335,499,521
342,-192,-891,-280,-182,372,200,243,434,496
45,-246,-1036,-202,19,764,275,143,293,225
-66,-403,-858,-62,211,689,52,-77,94,68
-194,-625,-543,182,346,473,-97,-201,-49,-40
-187,-609,92,423,327,274,-130,-130,-48,-37
-74,-452,433,483,334,239,-149,-15,81,77
35,34,716,631,260,123,-263,-115,6,57
226,742,1353,801,101,-30,-341,-287,-153,5
417,1205,1521,678,-62,-89,-330,-288,-126,85
206,32,-444,-446,-199,110,73,102,179,184
59,-576,-993,-339,81,216,129,104,171,156
-152,-644,-763,-155,1,-57,-188,-179,-104,-67
-294,-185,-335,-112,-262,-428,-559,-537,-429,-374
-376,657,299,-186,-354,-590,-663,-722,-713,-681
-423,1560,1327,227,-195,-497,-483,-615,-885,-891
-450,1808,2143,1062,139,-252,-288,-446,-854,-940
-98,925,1186,941,211,-1,93,30,-328,-376
323,-483,-861,-358,-24,78,517,579,311,365
233,-1402,-1672,-899,-175,82,666,639,442,527
-168,-1540,-1064,-548,-71,153,549,487,265,286
-356,-1284,-416,-112,52,59,576,658,139,85
-81,-881,-452,-252,-18,57,769,932,266,226
15,-731,-853,-555,-1,417,820,867,397,329
0,-540,-631,-352,43,238,402,470,380,295
48,-165,-158,-180,-48,-236,-2,29,165,192
239,475,430,-212,-298,-487,-218,-368,-87,106
405,1122,988,53,-337,-371,-497,-658,-300,6
139,965,988,541,9,104,-424,-606,-408,-212
-244,-23,140,752,438,483,-135,-260,-234,-268
-50,-474,-390,551,480,388,58,-63,74,73
204,96,311,476,260,29,-188,-242,-3,148
8,228,656,451,115,-282,-503,-423,-267,-126
-172,138,719,449,-151,-470,-577,-534,-458,-363
-202,172,825,503,-176,-194,-325,-526,-510,-426
-268,-297,94,217,118,376,28,-352,-353,-332
-313,-897,-995,-450,112,326,109,-137,-130,-164
-379,-66,181,-549,-336,-419,-355,-403,-356,-344
-191,712,1471,304,16,-252,-402,-399,-410,-370
203,986,1625,383,301,218,-45,28,7,41
410,412,608,-144,167,468,330,453,431,448
153,-604,-1015,-932,-214,349,420,514,447,409
-71,-664,-1457,-1026,-415,51,322,219,145,119
-9,-122,-774,-419,-287,39,953,104,-23,4
99,305,-166,-22,-99,199,2116,162,-27,9
408,856,-145,-174,-218,352,2736,219,68,158
539,1209,-343,-602,-475,129,2054,115,9,125
158,860,-277,-824,-618,-484,363,-317,-359,-241
-400,145,47,-461,-553,-753,-956,-499,-590,-562
-458,-569,-45,137,-31,-271,-1070,-13,-278,-371
144,-1024,-808,91,296,177,-601,479,403,423
379,-612,-724,-149,138,362,-484,478,499,640
226,110,-263,91,135,216,-710,247,167,273
120,267,-291,222,168,-62,-766,157,10,84
92,435,298,245,144,-87,-712,170,32,95
-49,418,1231,377,232,86,-546,100,56,42
-137,-25,1285,195,220,243,-295,125,198,107
-103,-217,1148,382,262,276,-205,48,86,85
-77,-371,486,496,298,215,-204,41,-20,11
-36,-325,-162,-96,46,68,-161,267,143,76
-41,85,-375,-680,-237,-201,-253,247,102,-8
-464,22,-95,-541,-301,-579,-561,-127,-409,-520
-750,-468,230,206,-128,-734,-781,-560,-752,-795
-343,-234,614,543,-205,-795,-867,-739,-556,-368
-110,326,1236,913,-17,-468,-582,-669,-402,-182
40,434,1033,1278,550,322,-138,-273,-148,-45
213,32,-166,622,573,551,50,105,191,229
-106,-480,-1094,-128,168,140,-175,-139,28,-21
-336,-804,-1288,-481,-8,-47,-232,-258,-99,-187
-262,-970,-1344,-630,80,190,30,21,77,10
27,-542,-1028,-524,154,379,197,229,276,254
414,192,-496,-684,211,438,441,490,516,525
568,652,-583,-913,62,222,483,643,596,610
265,580,-126,-148,-62,-191,28,311,196,184
-82,314,518,668,-78,-435,-388,-79,-277,-292
33,300,658,523,-260,-422,-293,-38,-228,-207
13,226,575,290,-384,-237,195,202,-36,-86
-263,4,287,128,-294,-306,343,71,-179,-303
-362,298,297,189,-313,-594,129,-430,-680,-683
-184,937,1166,882,-189,-605,-83,-668,-985,-802
117,684,728,656,-85,-13,137,-109,-516,-355
256,-176,-576,-315,13,635,497,946,182,226
238,-475,-1055,-1004,-200,284,450,1339,475,410
247,-273,-606,-943,-497,-493,-75,769,432,356
262,156,142,-398,-295,-735,-591,-25,275,273
401,403,349,-207,6,-485,-345,-374,344,439
460,651,558,-114,176,-66,235,-415,377,459
225,384,387,38,491,839,515,-240,352,321
90,-204,-293,-406,422,1298,633,142,494,362
-68,-1030,-962,-996,56,856,610,432,684,492
-289,-1264,-794,-940,-225,335,258,185,418,271
-385,-526,11,-15,-212,-112,-333,-428,-191,-199
-460,212,950,857,-20,-305,-692,-835,-602,-577
-241,597,1384,1075,310,-19,-443,-649,-500,-449
111,293,121,476,567,469,136,-71,-8,26
214,-375,-1423,-442,233,472,369,243,328,332
-62,-949,-1811,-627,-123,210,206,94,200,157
-158,-1031,-1422,-431,-177,-38,48,22,104,56
-148,-767,-712,-138,7,-172,-35,22,47,35
-70,-592,-701,16,150,-203,-55,142,132,128
37,-10,-485,99,178,-115,-87,66,15,61
89,927,554,199,11,163,2,-261,-408,-297
-22,1263,1067,245,-100,184,31,-479,-755,-693
-41,996,759,-60,-218,-44,289,-381,-702,-659
401,428,133,-415,-519,-132,845,120,-144,14
270,-425,-350,-215,-404,23,1233,553,268,224
10,-870,-754,89,-208,106,1265,822,478,211
-96,-843,-700,402,166,183,730,721,602,379
-243,-760,-513,393,355,248,-89,300,390,372
-368,-360,-57,239,-34,-309,-967,-335,-83,0
-538,12,446,159,-252,-638,-1468,-887,-456,-419
-369,-30,454,-172,-179,-282,-896,-710,-321,-313
3,-228,142,-454,-13,142,-34,-144,95,114
315,98,44,-355,347,242,117,22,184,301
291,983,1594,68,676,292,309,-230,-39,81
135,557,1091,-260,320,407,649,234,322,246
-34,89,197,-296,-116,154,270,240,298,189
-370,551,168,690,-138,-391,-1025,-702,-664,-713
-204,1015,1029,1057,159,-309,-976,-694,-697,-660
377,180,-175,32,-280,-177,-266,168,261,379
110,-93,-520,164,-220,-322,-136,115,51,71
75,-461,-1979,-536,212,144,1081,433,257,201
-222,-4,-1198,-285,137,-105,643,-140,-258,-298
-1147,-681,1212,1981,400,59,-835,-980,-1129,-1223
-632,-878,1122,1750,312,-134,-747,-182,-369,-524
201,-800,-164,376,80,42,150,888,622,488
628,-727,-1507,-1176,-51,543,652,1262,1103,1027
652,-638,-1804,-1779,-292,459,538,981,987,1010
255,-248,-843,-1389,-578,-68,-150,213,410,447
-141,270,385,-930,-736,-541,-810,-538,-217,-197
-69,1000,1491,-603,-617,-556,-814,-803,-430,-335
301,1312,1899,-355,-307,-278,-447,-446,-169,9
674,963,1213,-349,-78,3,136,212,348,573
644,310,214,-261,3,139,424,523,561,674
386,-194,-1037,-377,104,356,616,633,509,455
238,-496,-1688,-406,200,614,735,664,521,435
83,-553,-1079,110,292,635,467,380,432,351
-16,-243,178,767,275,348,-104,11,225,165
-52,64,971,1203,278,60,-410,-236,-33,-15
-24,319,1059,1024,300,-13,-392,-345,-264,-181
-25,370,209,-92,-112,-270,-402,-360,-352,-286
-262,223,-246,-598,-441,-532,-482,-502,-557,-551
-181,100,-409,-192,-37,13,84,1,-50,-213
132,5,-647,-153,74,184,359,251,246,144
251,79,-35,11,179,100,257,158,179,245
81,343,494,-166,69,-316,-165,-250,-214,-8
-392,38,654,44,177,-532,-276,-257,-587,-518
-823,-379,173,182,444,-408,-332,-257,-895,-1017
-742,-227,-172,116,240,-363,-624,-585,-1101,-1116
-594,-402,-468,11,-220,-596,-646,-442,-794,-775
-260,-649,-643,-43,-591,-637,-339,-2,-116,-108
327,55,-478,-525,-486,-143,60,405,460,501
955,1515,295,-1015,-505,-64,187,726,822,909
1155,1854,1071,-676,-449,-142,474,946,983,1043
602,524,260,-293,68,234,998,977,804,716
120,-537,-679,-128,361,543,1050,634,469,357
121,-741,-656,-161,117,421,614,337,431,437
-89,-989,-708,31,200,593,372,206,378,350
-346,-1032,-606,71,243,876,575,320,292,116
-75,-558,-456,60,96,652,770,315,293,195
261,42,107,186,-113,185,397,-24,93,240
-27,397,1060,276,-310,-388,-301,-574,-432,-213
-389,650,1685,696,-205,-711,-1035,-1050,-905,-710
-427,538,1060,962,61,-639,-1106,-1016,-937,-787
-95,354,-16,389,10,-237,-551,-541,-523,-406
-41,130,-207,137,-8,250,-51,-144,-136,-141
-89,230,338,420,158,282,6,-13,-29,-59
-188,226,837,1012,540,221,-39,-184,-218,-207
-163,-430,203,929,573,122,-44,-299,-297,-207
-245,-761,-527,551,317,-43,-332,-574,-402,-305
-114,-621,-901,2,182,58,-336,-354,-53,-28
23,-517,-1388,-870,108,95,-180,-30,259,315
-326,426,434,-699,-318,-211,-337,-515,-662,-530
-306,635,932,128,-414,-282,-130,-434,-693,-609
40,-274,96,133,-19,201,688,549,213,43
-39,-691,-497,-506,10,138,470,626,391,234
-308,-790,-689,-628,-15,-142,-17,259,171,119
-154,-109,-143,-199,-93,-269,-500,-188,-109,2
225,950,903,465,164,19,-582,-391,-209,-23
113,856,898,1012,479,230,-280,-243,-144,-79
172,161,88,738,359,209,36,182,242,223
446,-584,-865,-143,-204,145,334,697,767,738
391,-1062,-1443,-593,-562,189,618,952,962,905
161,-788,-1098,-822,-447,284,844,739,680,603
-105,-499,-565,-818,-51,383,945,318,223,124
-139,-93,62,-620,9,303,784,-67,-84,-141
117,711,1066,-171,-70,150,443,-303,-243,-133
392,1256,1645,306,-26,80,-56,-346,-242,-23
169,1043,662,109,23,-69,-532,-260,-437,-315
-211,-312,-943,-470,-171,-284,-480,-192,-423,-373
-275,-1232,-1775,-577,-429,-504,-467,-85,-231,-143
-383,-993,-1298,112,-243,-541,-335,-107,-130,-204
-153,-314,-809,304,-224,-483,-137,-7,146,-8
139,9,-749,-270,-527,-363,-76,-9,135,178
-324,253,683,-40,-38,124,156,-445,-336,-368
-469,-548,725,464,365,425,471,-74,-6,-226
4,-458,327,494,284,274,680,225,293,214
95,18,830,1030,384,-84,117,-62,3,57
-45,362,1016,1116,547,-334,-145,-223,-302,-283
-49,592,729,585,560,-325,109,-10,-345,-364
141,300,-85,-245,368,116,807,667,-33,-91
323,-258,-924,-823,248,566,1062,1149,288,227
426,-461,-981,-1072,-163,109,504,1072,511,450
201,121,-252,-380,-349,-411,-405,-31,274,218
76,1,-342,-329,47,221,-79,-78,366,275
179,-186,-537,-318,58,453,-51,82,527,576
-154,-388,-92,113,-159,103,-492,-356,-53,60
-570,189,1089,773,-259,-510,-968,-1068,-860,-764
-571,1414,2353,1507,-70,-634,-905,-1154,-1193,-1142
-313,2177,2716,1994,402,-488,-533,-704,-1086,-1049
65,1331,1284,1382,644,-473,-295,-12,-387,-349
623,-77,-260,-263,257,-652,122,730,698,756
763,-331,-1122,-1530,-88,-692,546,943,1085,1072
669,255,-2003,-1975,-270,-216,728,620,743,729
200,-177,-2381,-1952,-179,953,1027,389,396,346
-436,-1012,-1185,-1046,-256,952,327,19,57,-18
-974,-964,1543,1402,-810,-653,-1418,-1056,-918,-842
-548,40,2244,1757,-544,-691,-1580,-1361,-1017,-788
423,1289,1832,1000,-116,-167,-860,-641,-249,1
807,891,218,-382,-20,350,-80,390,685,779
272,-945,-1840,-1400,-60,476,502,556,648,659
230,-933,-861,-524,226,390,171,136,230,339
15,-532,-253,-107,177,150,-182,-273,-284,-194
-249,-212,89,-152,-8,-58,-281,-438,-572,-611
-366,-78,424,-50,-88,-161,-117,-245,-278,-436
-137,-155,122,183,91,48,207,188,299,76
32,-501,-543,279,332,280,582,499,542,442
68,96,-187,218,206,136,203,12,175,335
-39,2151,1954,1465,9,-317,-865,-1192,-838,-731
-269,1382,1579,1277,367,-24,-680,-793,-742,-748
67,-86,-495,-386,317,522,91,365,324,277
592,-840,-1950,-1851,-219,455,347,852,1015,1075
289,-1153,-1517,-1268,-223,159,99,481,715,759
32,-800,-709,-614,-65,-41,-102,149,293,342
48,-252,-241,-625,-170,-146,-44,213,210,226
-88,-231,-161,-303,22,48,239,329,162,88
-304,-448,-340,27,310,328,618,277,-37,-168
-323,222,276,257,154,166,633,-49,-449,-495
-231,548,999,665,-35,1,527,-166,-430,-420
-1,110,809,626,-83,50,458,71,26,50
153,-281,-1,268,-149,41,164,284,293,319
86,-410,-542,49,-112,-2,-28,310,337,276
-95,-331,-514,338,213,196,-99,120,224,82
58,56,89,645,361,149,-394,-139,51,27
-217,-237,130,329,285,-126,-426,-393,-364,-324
-486,-480,5,-18,358,-350,-233,-442,-498,-511
286,1131,671,-456,-441,-423,-173,-200,-118,-48
35,502,666,89,-732,-246,-517,-531,-291,-109
-459,-487,292,917,-198,-49,-555,-514,-406,-365
-393,-703,-689,300,144,107,-252,-106,-72,-240
135,220,-669,-741,58,-29,-118,40,166,45
544,1592,408,-1011,13,-162,-215,-348,-197,-24
361,1834,1363,-299,309,9,-212,-610,-649,-428
-46,835,848,100,433,227,306,-193,-565,-604
-103,31,14,169,269,242,625,276,-214,-334
84,-891,-790,-7,52,107,376,493,355,357
-40,-2103,-1857,-57,146,388,511,835,1016,868
166,-1695,-2096,-4,399,722,574,1007,1268,1038
301,-669,-1208,49,287,495,358,729,929,766
176,-286,-320,-43,-55,267,398,504,733,648
57,-365,-801,-797,-283,4,386,403,407,340
-228,155,344,-52,-323,-526,-353,-396,-326,-303
-460,856,1880,794,-279,-984,-721,-1060,-1029,-908
-356,1226,2597,1330,-98,-917,-462,-1026,-1086,-919
151,1347,2354,1209,15,-487,-182,-651,-545,-315
412,648,790,365,65,-65,133,92,212,317
460,-136,-730,-512,-4,345,474,821,834,743
378,-406,-1688,-1041,-194,695,186,712,763,699
-113,-578,-1396,-838,-274,341,-463,24,95,67
-358,-574,-634,-268,-87,-45,-537,-163,-205,-278
-580,-443,260,329,-69,-365,-636,-354,-703,-692
-752,-64,1327,720,-461,-880,-978,-637,-1191,-1051
-660,1094,2479,1048,-543,-1089,-1204,-935,-1374,-1204
-368,1764,2385,1297,90,-568,-851,-749,-1010,-923
163,1266,1185,705,563,253,91,79,10,-23
739,209,-1058,-786,466,613,584,694,884,904
394,-976,-1967,-864,345,471,338,763,873,828
-177,-1655,-2081,-488,587,625,577,915,714,421
178,-1330,-2031,-642,808,776,703,974,919,723
399,-695,-1475,-677,512,498,467,590,828,746
91,-588,-909,-482,300,213,270,115,366,289
132,-439,-631,-511,59,51,157,-10,240,259
150,-576,-755,-196,-486,242,522,138,296,377
122,-485,-1059,-379,-478,362,356,77,194,234
193,-102,-1030,-655,-547,-16,-23,-34,101,178
214,475,125,-481,-568,-329,-251,-292,-134,8
285,1211,1831,193,-334,-347,-356,-499,-363,-137
238,1546,2903,880,-84,-361,-536,-712,-657,-359
52,1748,2968,1247,145,-277,-612,-891,-911,-653
-382,989,1847,1237,226,-162,-312,-667,-789,-727
-397,-342,349,659,194,225,454,231,2,-150
68,-649,-1213,-858,-193,375,928,908,714,463
-213,-304,-1001,-1334,-490,-104,655,469,167,-42
-698,400,405,-549,-520,-660,116,-314,-822,-945
-768,698,1324,479,-142,-774,-376,-707,-1078,-1220
-279,3,165,364,147,-343,-213,-297,-330,-403
889,15,-1571,-897,-340,-30,110,485,577,866
618,-647,-1813,-795,-200,126,274,697,675,861
-150,-911,-1124,241,402,202,161,397,363,311
106,67,-186,776,902,291,141,224,241,266
338,393,-23,560,1170,745,534,353,388,407
116,-490,-824,106,745,697,524,258,436,372
-359,-1500,-1315,-459,-145,31,87,-153,165,56
-706,-1467,-380,-179,-539,-253,-280,-481,-239,-363
-546,-736,801,664,-434,-223,-631,-571,-427,-448
726,782,249,-514,-514,39,-64,233,401,526
508,753,268,-566,-578,-181,-300,-44,97,259
260,872,728,-255,-379,-303,-461,-259,-164,6
-207,480,879,18,-32,-170,-296,-206,-283,-319
-391,173,715,197,291,129,42,0,-248,-420
97,446,151,-329,-60,23,150,182,59,-7
262,169,-130,-589,-381,-104,63,155,231,234
280,-250,-484,-467,-344,94,-45,101,296,344
419,-103,-460,-162,-212,166,-46,183,370,437
281,-241,-530,-19,73,287,188,348,404,391
233,-27,-302,92,391,457,354,422,354,254
-45,10,-224,243,655,488,361,350,182,-22
-323,-167,-9,447,521,157,130,132,19,-185
-224,40,334,444,101,-387,-304,-234,-453,-411
-513,-1,684,533,-39,-418,-221,-420,-905,-853
-120,663,971,439,-50,-159,230,-413,-651,-502
-130,378,287,-518,-477,-393,535,-377,-292,-371
-949,-859,-696,-330,-694,-725,-343,-864,-816,-971
-223,-72,-270,723,-144,-543,-1084,-581,-461,-377
520,643,208,482,107,69,-294,364,500,439
777,758,100,11,337,785,561,868,986,866
254,-182,-552,-90,739,1012,638,691,808,585
168,-1240,-1356,-329,782,802,385,506,818,655
471,-999,-1073,-411,297,359,170,458,779,850
565,-30,213,-19,-1,57,-2,343,528,665
404,443,987,114,-90,17,47,312,364,363
183,106,358,-177,-109,44,90,306,343,215
167,-299,-719,-694,-193,62,139,302,381,296
130,-302,-1057,-918,-270,63,156,236,331,317
-15,-158,-424,-691,-205,129,177,171,170,130
-440,-61,920,383,170,-3,-177,-326,-548,-572
-469,148,1146,407,-108,-337,-498,-581,-798,-772
-541,506,1171,381,-443,-632,-569,-444,-762,-839
-636,765,1267,497,-319,-540,-325,-209,-659,-924
-711,59,319,445,241,-41,51,-76,-506,-801
-239,-407,-478,177,418,65,-106,-270,-315,-230
288,-70,-32,387,243,-168,-362,-572,-317,51
420,379,359,794,286,-91,-304,-522,-387,-58
733,859,62,180,-70,-102,-157,-165,-260,73
386,850,-86,-553,-489,-451,-285,-254,-451,-231
-167,836,402,-399,-312,-599,-562,-544,-513,-458
-594,-805,27,1320,1341,377,556,62,184,-27
-855,-1919,-1746,956,1716,945,882,322,172,-137
-954,-2021,-2125,514,872,565,363,261,-26,-372
-584,-1099,-612,371,-209,-392,-429,-15,-210,-309
10,-67,352,213,-523,-559,-474,39,12,73
540,688,645,-67,-744,57,379,552,550,591
709,1037,737,-476,-760,551,971,676,716,724
564,547,510,-735,-535,468,910,593,714,702
145,-39,-429,-594,-234,347,487,73,396,401
335,307,-686,-801,-342,131,480,282,457,463
606,604,-480,-707,-410,-233,477,566,508,614
643,737,-67,-507,-444,-436,287,426,256,459
234,113,-136,-515,-366,-273,187,238,84,144
48,-410,-385,-717,-270,278,-360,-52,176,213
-217,-465,-15,-263,-126,-10,-741,-462,-133,-6
-319,-170,701,277,-25,-194,-795,-730,-490,-318
-440,114,1350,823,118,-176,-655,-673,-578,-505
-176,422,1299,956,226,-34,-391,-385,-312,-250
-84,372,813,668,253,3,-322,-339,-277,-195
-384,-116,-88,-99,77,-132,-447,-523,-539,-501
-638,-166,-24,-419,-419,-623,-786,-835,-904,-873
-697,78,763,273,-399,-828,-875,-905,-961,-875
-206,317,1021,954,36,-328,-372,-374,-357,-208
624,257,-512,125,10,60,184,408,533,688
624,-244,-1842,-1025,-174,111,345,639,721,744
145,-569,-1118,-827,-15,476,728,605,444,332
-540,-502,380,1203,619,491,1919,479,-81,-372
-213,-581,-271,747,230,-177,1917,688,135,-14
260,-421,-843,-322,-463,-800,1318,770,364,423
278,726,519,-1212,-643,-468,-231,97,-173,-44
617,1478,1154,288,214,135,-1351,-603,38,241
460,955,493,158,76,64,-982,-487,163,348
187,-341,-782,-211,72,374,-181,90,521,532
243,-837,-1359,-520,19,559,344,639,968,831
197,-851,-1344,-511,53,622,482,766,913,743
15,-712,-1103,-359,187,469,234,454,440,343
-167,-485,-634,-269,317,248,-106,75,2,-64
-170,-116,-186,-333,123,70,-283,-104,-151,-181
-197,243,328,-274,-53,-18,-388,-255,-209,-213
-7,541,745,-110,-120,-38,-378,-341,-144,-67
-224,-130,221,234,129,55,-287,-309,-263,-255
-162,-354,428,377,-132,-229,-526,-500,-412,-301
-391,-125,1164,809,-12,-349,-753,-786,-751,-630
-276,1021,1857,1135,537,-140,-749,-883,-916,-764
-826,459,727,1233,1868,169,-754,-1103,-1415,-1337
-876,-303,-6,948,1376,110,-414,-668,-1087,-1148
-595,-644,-171,729,354,77,53,-44,-363,-523
-21,-218,204,45,-1013,-331,39,222,125,85
285,18,225,-544,-1410,-404,-20,216,296,359
354,-281,-504,-579,-517,-17,150,178,463,452
321,-735,-1582,-992,38,339,482,369,702,625
435,-687,-1747,-1417,-125,471,653,693,913,844
636,-250,-1398,-1224,-361,259,486,764,953,938
629,83,-573,-376,-340,97,389,645,790,804
421,250,-96,286,-175,80,332,403,456,484
194,282,270,565,107,162,277,107,87,155
9,359,807,588,171,120,80,-175,-182,-95
-196,91,538,186,-57,-35,-226,-355,-351,-277
-375,-138,-224,-326,-382,-292,-547,-522,-518,-457
-222,34,-178,-485,-592,-456,-565,-475,-442,-344
-49,286,357,59,-360,-345,-382,-281,-364,-238
29,803,742,508,-49,-275,-223,-56,-431,-292
83,1302,1369,810,-188,-587,-566,-428,-740,-483
-21,759,970,221,-327,-573,-590,-511,-656,-434
-143,-92,257,-593,-219,-29,-20,-13,-14,-47
157,-80,128,92,477,631,438,343,586,430
120,597,1040,443,360,306,211,169,249,127
19,467,938,374,258,147,241,218,217,86
-18,-385,-394,-153,233,249,528,548,561,385
216,-296,-788,-406,235,232,732,686,670,565
263,-295,-1188,-718,-1,121,812,583,520,475
136,-86,-861,-828,-325,-129,467,144,69,101
116,378,95,-588,-505,-320,151,-175,-272,-148
-217,238,858,-74,-133,198,272,-166,-422,-426
-174,389,932,88,134,454,21,-45,-358,-394
46,743,945,416,278,191,-429,-76,-446,-365
-296,262,931,974,482,-178,-930,-554,-809,-743
-531,-194,548,887,339,-482,-1188,-875,-884,-927
-504,-301,441,505,138,-548,-1008,-690,-616,-731
-289,-412,367,81,163,-161,-327,-86,130,-42
137,-402,214,-64,90,317,368,494,631,506
297,-654,-154,-99,94,462,660,822,810,769
471,-484,-612,-223,67,311,506,742,872,934
708,48,-1177,-224,17,174,325,492,843,975
741,429,-1117,-211,-125,-49,164,306,614,738
455,633,-518,-15,-159,-226,-42,-5,159,243
138,597,-223,0,-60,7,-82,-188,-169,-129
-166,-272,-698,-228,145,278,203,146,27,-118
-181,-864,-1267,-527,76,295,457,411,266,76
213,-596,-1140,-806,-271,217,407,394,489,439
295,-45,-229,-486,-271,110,94,82,379,404
186,394,208,-364,-404,-286,-289,-278,-90,9
-90,327,379,-111,-347,-386,-430,-502,-468,-381
-639,-339,-92,267,-45,-199,-306,-464,-571,-713
-581,-429,-392,169,46,-60,-155,-264,-343,-485
-458,-806,-333,95,313,131,-2,-71,-118,-189
-512,-1118,-297,247,711,282,98,-89,-144,-214
-295,-768,-201,253,697,314,357,-44,-118,-165
27,-148,-48,153,530,334,537,77,-22,-31
92,84,-331,-297,32,194,468,136,61,13
-67,259,125,-351,-811,-421,-217,-215,-168,-196
-219,836,1944,681,-800,-922,-901,-752,-689,-579
-321,1422,3864,2114,-20,-571,-886,-1009,-1063,-919
-311,1520,4050,2651,560,-3,-323,-749,-1105,-1031
-82,1169,2024,1056,380,293,674,370,-489,-586
-34,-23,-997,-1181,-99,321,1105,1160,270,-53
353,-590,-2066,-2237,-648,-47,638,1329,798,615
363,-506,-1233,-1630,-787,-499,-112,684,626,681
-315,-785,-547,-231,-138,-326,-417,-178,73,14
-504,-901,-528,194,404,428,-174,-395,-105,-254
-285,-878,-1140,-117,427,659,208,-67,140,-64
-48,-881,-1575,-310,339,526,446,226,497,149
431,-534,-1586,-514,-103,188,181,255,614,563
542,-302,-1443,-613,-397,-62,14,267,534,715
326,391,-106,-16,-182,-211,-247,-26,267,452
370,1287,1191,406,-9,-287,-517,-323,82,290
259,1657,1805,750,150,-334,-652,-545,-367,-169
-156,965,1152,907,355,-252,-557,-639,-712,-594
-347,-467,-333,634,268,-3,-180,-334,-400,-375
-295,-1135,-858,783,197,165,11,-83,-23,-26
-58,-505,-361,675,232,225,50,-51,23,60
184,-48,-649,-158,-106,-123,-26,-63,174,266
223,-157,-742,-842,-414,-423,-178,-73,173,344
-64,-20,140,-313,-384,-562,-306,-294,-141,-9
133,689,1297,6,-349,-295,-2,-89,9,112
509,1105,1504,-480,-133,259,386,345,343,419
426,843,921,-778,6,349,339,376,290,296
-66,252,98,-388,135,216,50,126,-43,-114
-302,-570,-527,2,132,192,-55,155,51,-66
-193,-1220,-1246,-21,203,288,211,417,460,328
9,-980,-1146,-299,10,119,267,336,447,412
45,-196,-137,-125,-267,-240,16,-20,10,94
162,771,483,-6,-238,-284,-45,-196,-225,-78
132,590,287,-30,-31,84,0,-58,-65,-30
280,-105,-568,-243,67,303,111,324,377,329
147,-530,-1127,-600,-14,258,314,525,523,397
-114,-539,-888,-484,56,191,312,427,339,205
-121,-412,-450,-28,271,136,159,197,82,28
-26,-46,-179,92,183,32,105,142,-126,-106
-110,97,111,5,-26,-81,129,198,-278,-229
-429,115,1067,163,-119,-199,146,-46,-471,-473
-493,405,2055,363,-15,-203,64,-346,-512,-553
-120,691,1853,477,317,60,263,-338,-333,-286
208,425,922,574,374,344,610,-157,-85,68
46,-59,306,901,183,232,236,-271,-192,-42
-209,24,-4,925,-41,-282,-521,-451,-501,-365
-307,231,634,1268,198,-398,-721,-529,-664,-588
-195,67,646,1364,434,-92,-597,-558,-543,-482
88,-335,-1296,-878,-169,111,250,219,397,239
-97,-335,-1338,-1270,-279,158,862,75,252,42
-346,-723,-1151,-913,-323,73,998,-102,-98,-218
-586,-1089,-616,-228,-249,-163,522,-328,-384,-476
-463,-630,44,215,-140,-327,-256,-386,-378,-479
457,519,60,-878,227,262,-179,467,669,543
380,692,-283,-734,33,-39,-516,-251,64,182
57,-108,-525,-636,-481,-333,-491,-300,-124,-9
202,-233,-312,50,-173,177,112,459,447,389
316,-56,16,314,171,306,187,490,505,486
521,586,316,388,173,228,105,367,417,492
341,915,826,465,8,-13,-121,66,136,197
90,709,823,562,198,5,-163,-56,-44,-27
80,694,775,466,194,-18,-233,-140,-180,-128
-306,102,315,383,211,-16,-264,-213,-348,-442
-477,-688,-631,-44,172,85,-36,-26,-260,-440
-38,-708,-949,-279,91,141,153,185,-47,-59
0,-485,-470,-90,228,125,86,132,-87,-53
64,-78,173,-374,9,-332,-260,71,-57,48
35,204,81,-347,-406,-662,-441,130,-256,-180
91,384,781,227,-553,-523,-90,585,172,145
41,341,1275,592,-37,205,-31,343,-25,-30
5,288,857,379,302,631,198,222,-68,-142
217,234,-70,41,156,414,500,334,287,186
651,232,-824,-277,-261,-32,393,286,513,531
107,717,-163,-233,-495,-496,-387,-652,-351,-208
-456,513,944,1107,575,-232,-821,-1045,-738,-582
-387,-124,388,1307,1419,272,-522,-731,-488,-440
261,-251,-699,350,895,338,-28,-94,110,246
454,-549,-1278,-534,145,290,275,251,424,580
44,-814,-913,-528,-301,211,293,238,337,303
-26,-834,-416,-394,-645,168,596,553,598,414
177,-703,-258,-612,-593,216,1029,872,966,768
183,-112,238,-329,-245,122,816,555,610,518
-406,273,139,-130,0,-114,-241,-522,-625,-617
-472,636,361,105,-112,-418,-912,-994,-947,-874
-408,256,481,659,44,-440,-900,-913,-774,-701
53,-118,156,609,127,-149,-556,-442,-184,-36
184,-242,-205,-10,19,35,-141,27,227,274
118,-297,-333,-681,-127,145,240,363,448,359
67,-177,-42,-504,-198,44,374,433,353,255
-234,-448,-75,-114,-113,-164,205,293,34,-130
-510,-814,-609,282,98,-229,371,364,-139,-371
-152,-317,-733,-120,22,-152,430,469,14,-153
210,97,-478,-714,-187,18,413,512,100,44
-96,-205,-760,-551,-36,70,388,228,-132,-214
-283,-264,-877,-218,312,172,210,-168,-264,-335
45,-62,-545,-194,397,302,82,-125,-40,6
71,-215,-229,129,380,420,82,-156,37,80
-38,-251,302,489,177,200,122,-399,-57,24
-246,-239,899,732,118,20,247,-287,-222,-153
-166,438,1586,747,-167,-237,-79,-282,-472,-355
572,1896,2093,308,-614,-482,-379,-138,-181,8
975,2252,1365,-545,-1023,-524,-494,17,266,406
289,1253,651,-563,-866,-527,-660,-334,60,-29
-631,-378,-37,714,305,-451,-1314,-1176,-710,-648
-407,-559,-117,858,326,-318,-842,-747,-462,-366
-105,-1092,-874,532,412,270,62,243,339,297
292,-906,-1649,-401,418,698,678,942,986,845
573,-407,-1776,-1331,64,582,655,951,1055,958
654,-356,-1558,-1381,-90,528,635,904,1016,977
203,31,74,-168,-63,210,170,332,424,414
31,107,510,157,114,250,160,284,305,246
-124,-256,155,91,112,174,110,227,232,139
-108,-511,-417,-31,127,81,93,208,232,130
93,-165,-739,-320,-64,-198,-86,83,142,130
82,274,-359,-392,-131,-301,-200,-49,-39,-9
36,691,288,-325,-88,-230,-157,-121,-178,-121
82,1203,1119,-214,-234,-121,-121,-252,-297,-197
-264,618,1587,505,31,-26,-283,-310,-418,-411
-673,-626,963,1268,524,-137,-423,-243,-461,-572
-536,-735,232,1115,512,-131,-366,-366,-582,-567
-421,74,946,1080,310,-152,-297,-683,-919,-797
-513,358,1088,663,21,-249,-177,-813,-1028,-1014
-88,595,522,-176,-328,-347,20,-622,-591,-550
192,755,59,-419,-448,-294,298,-377,-194,-147
-5,-49,-351,-70,-476,-94,377,-112,49,-13
-42,-855,-741,125,-80,398,505,421,596,403
446,-689,-1142,-549,223,735,690,1082,1268,1094
609,-527,-1486,-1206,47,552,624,1154,1211,1114
260,-949,-1631,-938,-98,206,371,746,751,660
237,-673,-1251,-429,-187,-25,168,399,463,431
179,-155,-358,94,-113,-31,43,233,209,234
32,255,434,221,-178,-111,-272,-64,-114,-41
-30,882,1169,33,-361,-415,-652,-406,-426,-325
-484,803,979,-63,-225,-492,-699,-581,-747,-812
-512,622,345,-112,-41,-375,-539,-513,-678,-800
-72,164,-405,-178,119,-148,-161,-192,-173,-156
322,-252,-959,-552,70,18,176,204,409,520
214,-390,-335,-567,-228,-241,-23,50,295,381
-318,195,1581,489,-210,-509,-460,-643,-583,-521
-511,1215,3448,1612,249,-192,-527,-937,-1129,-1067
-289,1185,3571,1950,600,256,-282,-449,-757,-717
418,414,1111,876,356,373,233,407,233,337
344,-607,-2152,-601,-138,-20,-42,231,208,350
-605,-1237,-3145,-710,-167,-505,-736,-573,-587,-615
-1029,-1417,-2478,312,323,-358,-720,-889,-828,-974
-730,-1063,-1378,885,913,275,-118,-480,-484,-609
-127,-546,-698,285,762,606,646,635,255,110
190,-150,-167,-440,-42,345,883,1265,687,494
446,-75,-58,-1266,-315,167,508,940,842,725
530,497,558,-883,-378,193,270,409,708,691
565,753,836,-366,-213,304,271,-31,473,556
394,343,242,-22,269,497,412,-1,330,381
284,-110,-345,-12,405,459,322,155,279,302
302,-336,-543,-295,78,284,300,299,290,313
55,-354,-130,-279,-288,52,250,234,93,17
-102,57,591,27,-618,-334,50,-86,-208,-232
36,748,1236,164,-786,-613,14,-263,-247,-110
111,1184,1578,371,-600,-525,32,-283,-349,-221
-38,98,-1087,-149,388,304,931,389,60,-31
-56,-548,-1573,-462,388,461,892,334,128,60
-71,-520,-917,-568,74,270,509,39,224,96
-343,-561,-230,-433,-104,120,-213,-441,-5,-145
-388,-503,139,168,57,-3,-605,-514,-258,-253
-6,-7,463,668,293,10,-684,-359,-229,-76
258,860,644,165,-89,-330,-385,417,-21,14
-284,884,974,507,369,-508,-559,9,-566,-626
-308,770,1119,1115,877,-285,-496,-167,-614,-671
29,421,805,976,748,-50,-230,85,-112,-161
445,-10,-421,-420,-327,-101,-33,330,480,443
319,-307,-662,-1181,-1130,-271,-290,126,515,421
120,-145,132,-512,-601,-86,-362,-130,343,222
-115,-370,265,4,131,288,-53,-155,229,117
15,-632,-405,-188,221,428,322,212,608,518
-44,-611,-1028,-526,-82,-72,-59,23,267,210
-235,-973,-1053,-438,133,294,107,55,138,57
171,-648,-905,-622,-38,409,347,257,345,351
-84,-179,430,29,-173,-123,-202,-149,-49,-8
17,765,1506,554,-52,-322,-367,-463,-404,-239
-196,426,839,598,12,-452,-485,-628,-649,-481
-437,-262,-254,641,129,-461,-409,-619,-748,-645
-294,-242,-524,1005,122,-501,-319,-503,-610,-528
169,287,-475,590,59,-274,-130,-102,-96,-28
482,790,-190,-77,-93,-50,118,264,252,298
743,2332,2670,330,-405,-224,-360,193,0,159
561,2318,2991,665,-186,-508,-572,-7,-228,-36
189,933,1192,245,-29,-329,-314,15,-178,-75
-41,-509,-1287,-784,-304,0,67,-9,2,30
-401,-1428,-2007,-777,-87,229,311,79,145,22
-483,-1771,-1804,-420,456,732,818,361,445,212
90,-1015,-1043,-595,436,631,601,268,410,425
52,-810,-598,-401,168,330,384,256,287,281
5,60,280,-244,-427,-7,225,393,189,124
-84,309,519,-101,-270,-120,45,202,14,-30
-160,195,463,93,-73,-134,-167,-7,-126,-145
-92,195,545,235,-3,-29,-134,-61,-45,-78
-82,180,383,313,103,158,21,-132,7,-48
48,32,-131,-15,181,385,176,-169,-1,33
173,-315,-735,-471,144,393,245,20,132,212
148,-294,-686,-97,109,174,122,64,135,218
-150,-222,-68,267,134,14,-133,-194,-159,-116
-458,-85,980,486,265,-109,-437,-580,-576,-548
-280,350,1344,851,484,-229,-741,-820,-848,-624
99,314,238,331,439,-70,-386,-341,-377,-146
331,117,-876,-346,11,93,104,226,201,301
327,-75,-1124,-607,-602,55,363,507,500,467
283,120,-494,-97,-518,-56,282,393,385,369
480,765,112,-292,-430,-210,106,186,203,295
277,814,344,-363,-216,-197,-64,-141,-193,-80
-255,-301,-95,187,352,279,100,-43,-259,-340
-206,-829,-924,-158,54,231,158,187,158,-1
27,-400,-398,-372,-106,135,278,243,313,293
128,-544,-314,-161,11,400,474,587,685,600
192,-408,-502,-139,-68,335,598,719,708,597
113,591,418,-338,-456,-205,126,273,248,179
-134,554,692,180,-108,-136,-122,-87,-122,-198
-337,-61,0,252,125,9,-115,-204,-290,-390
51,-390,-917,-107,-1,53,96,-105,-53,-1
279,-484,-1090,42,-52,-57,202,16,77,258
538,810,284,48,-390,-435,-29,-15,12,215
295,593,77,-320,-399,-242,3,48,34,72
-226,147,33,-404,-322,-213,-379,-212,-225,-283
-464,76,847,265,117,-185,-693,-525,-419,-431
-470,250,1606,1173,688,20,-477,-683,-580,-573
-549,413,2064,1450,695,35,-186,-744,-769,-818
-753,298,2145,1430,440,-42,-158,-846,-926,-1053
-722,54,1642,1008,200,-54,-60,-708,-826,-940
-377,-458,200,190,59,77,81,-183,-262,-336
78,-1168,-1725,-653,155,288,380,630,595,539
802,-839,-2930,-1840,113,506,654,1228,1287,1314
808,-142,-1869,-1499,-67,454,398,875,956,1025
655,637,-9,-650,-166,151,165,553,640,675
383,761,501,-164,-134,-16,32,292,414,381
78,352,440,290,-54,-50,-81,-11,113,76
-78,-239,-600,-288,-298,-203,-168,-165,-44,-84
-241,-491,-459,150,-61,-16,83,-127,-54,-163
-105,-477,-466,-7,142,383,607,221,112,29
59,-554,-718,-344,249,539,790,404,247,193
141,-352,-755,-329,204,240,244,133,72,130
7,139,-187,32,129,-130,-332,-180,-292,-193
-253,449,657,660,149,-235,-470,-266,-508,-525
-294,493,1115,1029,156,-131,-314,-207,-375,-487
125,606,1084,924,62,-147,-214,-129,-102,-9
395,320,114,430,-29,-239,-63,81,98,333
363,274,-1063,-376,-358,-482,40,183,-20,173
-960,-396,1095,1170,656,225,-344,-519,-649,-861
-282,-1006,301,540,594,575,242,387,303,152
140,-1060,-530,-619,-116,345,506,1014,771,656
80,-476,-202,-854,-502,10,435,996,561,402
-42,-49,365,-576,-403,-180,145,589,232,115
-50,90,386,-336,-372,-243,-26,126,135,95
41,151,165,-352,-244,-145,-33,-369,43,98
-10,77,168,-363,-64,-177,-266,-863,-283,-93
-78,564,899,-270,-273,-480,-631,-1000,-602,-351
-188,1037,1409,120,-277,-497,-764,-855,-835,-617
-438,743,1178,710,106,-92,-481,-528,-779,-789
205,1011,195,101,-121,88,-78,-68,-111,-162
863,640,-929,-709,-304,-8,10,129,512,617
262,-708,-1267,-398,184,165,109,154,510,533
-84,-1141,-1152,-323,428,478,434,449,582,474
72,-238,53,8,99,244,179,199,349,309
89,166,358,124,-8,-16,-119,-120,40,72
-70,312,592,294,86,-148,-294,-321,-222,-167
-143,28,272,187,249,-55,-195,-245,-182,-156
-79,364,561,627,-105,-223,-341,-403,-363,-268
-199,233,416,874,42,-138,-289,-372,-402,-404
-256,-370,-624,238,120,155,175,144,-19,-203
69,-477,-1610,-801,-257,172,594,694,476,304
148,-263,-1162,-661,-339,-144,453,565,396,297
432,-186,-826,-651,-346,-531,119,389,439,485
115,440,313,-702,-478,-403,-45,-177,-40,-2
-452,629,1098,-285,-210,4,-330,-759,-709,-725
-557,129,180,590,276,7,-625,-943,-962,-894
-11,-750,-1044,169,-8,-210,-322,-273,-109,-27
113,-628,-627,105,-174,-46,67,274,397,402
335,74,443,299,-41,74,117,419,544,584
225,137,1094,889,362,245,90,201,264,383
95,-107,775,771,461,494,432,216,148,197
-30,-525,-291,-1010,-304,373,764,578,435,232
67,-361,128,-660,-331,156,466,472,457,299
297,294,629,-180,-223,-133,126,167,193,232
59,398,413,202,99,-148,108,-137,-235,-152
-349,-369,-418,362,535,174,169,-26,-147,-231
-344,-695,-986,-65,411,330,250,140,84,-28
-359,-450,-647,-359,-106,125,266,-27,-152,-232
-640,-132,493,280,-335,-422,-20,-454,-562,-686
-407,459,1739,996,-7,-472,-160,-499,-532,-585
157,848,1638,785,649,-130,-198,-141,-159,-104
600,1049,238,-53,892,115,-6,237,220,306
108,523,-1168,-461,714,349,57,59,-101,-109
-27,64,-978,-133,134,184,-250,-108,-187,-145
313,-30,-64,-49,-610,-18,-123,165,263,351
-39,-292,92,-207,-685,18,69,167,288,178
5,-367,-556,-372,-214,85,213,254,315,222
233,-529,-1095,-568,120,236,512,585,447,432
-93,-738,-711,-222,27,90,312,493,87,101
-69,-178,-310,-70,-292,-252,-114,143,-107,-62
-80,-156,-371,-241,-304,-320,-191,-29,16,-41
315,195,106,-376,-286,-275,-67,-64,198,241
217,741,947,7,-185,-3,-277,-409,-299,-130
63,1079,1278,633,-121,-124,-319,-257,-720,-482
55,884,717,912,-2,-330,-30,203,-584,-415
318,173,-806,215,-46,-167,279,543,40,120
444,-194,-1430,-468,-219,-104,91,428,440,480
-55,-668,-716,-229,106,148,-79,-70,262,244
-140,-491,256,-449,300,307,-274,-380,132,138
-76,-150,320,-487,-4,72,-120,-193,156,91
-115,-139,180,-210,65,112,67,-14,66,-24
-75,-165,70,89,137,83,-30,-118,-150,-148
-218,-181,-47,64,-69,-302,-492,-521,-532,-454
-422,-99,302,319,260,-198,-358,-463,-635,-630
-448,-83,582,550,376,46,-116,-228,-318,-366
-526,-118,626,1044,328,-55,-400,-478,-348,-388
-625,-71,866,1482,259,-289,-785,-853,-759,-774
2,415,922,1125,-70,-183,-515,-525,-304,-239
710,533,-195,-181,-310,164,192,289,659,697
413,-103,-1040,-673,-107,267,420,591,779,658
138,-60,-457,-84,0,103,238,524,416,310
-82,-4,146,556,227,136,217,428,76,-8
-207,-456,-198,319,322,182,158,259,12,-91
-169,-799,-604,-341,-3,111,106,229,195,77
-160,-682,-336,-440,-180,-61,-5,65,151,96
-42,9,360,25,-110,-259,-192,-398,-172,-77
261,1273,1444,257,-393,-465,-430,-815,-489,-221
231,2076,2206,196,-522,-534,-738,-1048,-805,-523
121,1829,1472,-313,-343,-268,-496,-632,-543,-443
58,650,-111,-994,-265,93,117,70,102,42
-10,-813,-1257,-1117,-91,235,368,335,454,402
67,-1012,-696,-437,347,353,410,387,522,516
344,-427,89,33,518,472,526,506,598,646
659,34,174,-195,120,347,510,563,693,837
555,173,-417,-722,-459,59,282,371,486,645
-108,-348,-865,-584,-525,-157,-51,-36,-62,-19
-666,-903,-1310,-239,-292,-224,-257,-376,-518,-556
-655,-794,-1220,-69,-147,-209,-269,-402,-519,-541
-689,-450,-193,553,271,-204,-454,-619,-660,-683
-464,-68,802,1191,904,147,-277,-504,-580,-569
-96,-778,-808,-424,-425,94,209,311,356,230
-97,-1188,-1499,-711,-599,35,282,391,439,347
541,469,-571,-878,69,78,274,423,479,541
340,543,-180,-523,245,74,196,286,220,255
109,250,209,371,383,8,106,177,36,38
209,376,659,846,230,-298,20,45,-43,64
425,788,645,506,-414,-691,98,-29,-107,121
86,1170,660,-86,-465,-53,140,-298,-326,-225
-344,430,489,-156,73,404,74,-432,-425,-472
-249,13,704,-40,204,116,-396,-371,-341,-327
-34,-392,157,-261,61,-156,-319,121,99,91
-302,-863,-422,-307,307,195,245,417,264,91
-712,-1039,-562,292,821,511,384,255,-28,-321
-451,-589,-20,1132,970,403,156,-7,-161,-344
-23,-205,78,1225,826,443,264,60,68,-14
428,-84,-434,152,18,301,244,293,496,507
459,-307,-726,-662,-590,65,54,322,565,621
276,-508,-665,-846,-414,114,178,362,481,500
245,-319,-601,-832,-211,122,343,380,416,425
239,-118,-579,-508,-174,84,381,380,409,378
121,42,-303,-81,-170,40,256,233,244,180
422,1476,1603,144,-228,-164,-337,-238,-178,-56
241,1571,1920,137,-209,-212,-308,-246,-229,-198
-171,64,297,185,-169,-192,-139,-1,-133,-121
-331,-897,-361,325,59,-47,-65,52,-50,-73
-31,-785,-574,307,-51,-219,-259,-146,-96,19
99,-127,-62,413,-162,-359,-407,-331,-345,-157
-202,379,641,481,44,-207,-236,-266,-532,-487
-414,437,527,218,207,-37,64,-66,-457,-570
-220,298,-56,-36,22,-254,3,-10,-306,-345
43,232,-329,113,-66,-342,-28,59,-174,-133
-137,-412,-421,264,-27,-142,462,109,-139,-139
-649,-1248,-626,240,211,138,865,-75,-265,-378
-612,-1008,-518,230,450,160,491,-353,-408,-446
-379,-329,-184,549,491,-287,-303,-814,-616,-482
-355,300,388,506,196,-561,-695,-1103,-846,-665
58,741,903,-263,-353,-347,-555,-658,-416,-248
601,691,960,-186,-262,116,-303,310,504,560
1145,493,-71,-319,198,736,443,1195,1384,1368
872,63,-1130,-505,40,664,478,915,1135,1094
99,-159,-883,-16,-424,-64,-279,-2,166,133
-199,262,706,114,-501,-501,-770,-584,-433,-433
10,736,1580,172,-166,-334,-639,-576,-490,-382
85,524,866,-135,-143,-160,-327,-213,-153,-95
210,8,-301,-996,-284,131,273,503,583,544
214,374,-313,-749,105,278,327,438,357,305
48,91,-160,-29,398,381,310,346,136,73
73,-442,-542,181,289,356,242,283,113,122
71,-721,-868,0,-91,95,18,63,-89,57
-63,-442,-309,-129,-321,-160,-236,-184,-325,-192
-187,-126,69,-421,-260,-296,-340,-183,-275,-222
-346,-302,74,-229,-42,-251,-132,183,-86,-109
-272,-279,116,111,111,-65,195,466,39,-25
12,47,56,138,211,213,499,631,189,121
34,95,-378,-72,257,365,519,455,229,112
-116,133,-557,-262,170,101,83,-89,-54,-143
-358,-150,-394,104,331,38,-235,-367,-295,-374
70,-383,48,924,548,217,49,-27,-175,-55
339,154,381,407,203,-65,-77,69,-115,75
192,491,280,-207,-388,-439,-153,-3,-175,-56
86,391,-409,-280,-659,-362,45,-131,95,4
286,445,13,-159,-434,143,261,-93,475,282
428,550,728,63,-163,330,34,-316,372,404
207,445,1162,463,-40,60,-348,-494,1,146
-333,-31,1207,661,277,11,-454,-445,-323,-292
-428,67,984,654,503,71,-532,-584,-523,-524
23,-338,-702,-152,11,-59,-170,-197,-30,77
81,-846,-1355,-247,331,228,333,413,508,462
118,-867,-1520,-670,550,429,652,744,737,582
101,-608,-962,-850,523,470,628,727,645,481
24,-356,-317,-367,70,182,434,551,432,318
162,-93,-139,-211,-563,-265,207,414,370,344
257,-50,-242,-297,-447,-230,98,335,439,418
244,-35,-483,-427,-355,5,158,247,322,333
83,116,-320,-418,-607,-123,-38,-168,-158,-28
-264,201,253,-125,-493,-351,-616,-458,-621,-539
-380,318,412,119,13,-365,-441,-29,-545,-664
84,854,465,190,232,-194,12,554,-55,-198
208,377,270,19,107,-5,226,793,318,201
-76,-714,-546,-127,-213,2,85,329,282,221
-242,-645,-648,29,-216,-44,-381,-521,-72,-29
26,822,1455,1741,452,88,-387,-904,-520,-347
-112,412,1508,1887,517,199,-44,-644,-433,-354
133,308,702,547,20,40,166,-224,-52,30
153,598,275,-739,-477,-248,48,-157,-7,28
-712,182,972,72,-124,-309,-514,-775,-777,-855
-628,32,888,692,483,18,-495,-674,-620,-694
190,-456,-971,-318,255,490,357,202,243,194
455,-201,-1117,-705,-306,70,258,189,264,319
284,243,-97,-145,-181,-106,239,53,64,114
-20,310,753,738,29,-150,385,76,-68,-116
-43,286,385,807,-29,-349,225,83,-117,-177
-47,94,128,305,88,-28,278,146,-116,-177
149,-297,-505,-999,-249,306,-9,398,463,482
290,-19,-390,-854,-363,-29,-442,246,455,494
-96,-241,-279,-274,59,122,-230,81,211,98
250,-216,-871,-807,-415,-163,-269,-320,-66,115
210,42,-334,-509,-571,-369,-428,-428,-215,-58
172,314,206,-48,-243,-203,-271,-337,-126,-102
192,386,127,-30,-54,75,212,2,194,119
285,166,-363,-470,-77,285,652,383,510,398
34,-799,-715,-285,434,601,839,684,683,382
-96,-591,-891,31,411,371,360,438,373,135
-56,725,964,335,43,-214,-511,-337,-413,-326
-581,513,1452,461,-34,-465,-866,-833,-783,-838
-929,-240,923,625,116,-404,-798,-905,-793,-966
-469,-333,218,491,185,-107,-354,-521,-276,-412
-412,359,-273,-115,1072,46,-71,-161,-476,-582
-331,91,1306,1394,162,-172,-252,-118,-357,-443
268,-593,70,362,-393,362,862,902,392,430
546,-411,-970,-897,-613,22,729,728,512,608
314,-122,-552,-1479,-882,-392,257,227,266,341
-6,98,285,-924,-685,-354,-48,-55,147,146
109,266,470,41,-91,-67,-263,-85,237,243
318,405,186,485,392,72,-310,36,249,284
316,381,-215,472,492,275,-234,9,82,149
274,46,-507,333,441,583,147,71,59,135
481,-240,-733,11,248,493,369,285,314,473
457,-249,-655,-445,-104,193,271,365,397,495
310,181,-388,-583,-271,-52,69,224,172,197
8,127,-197,-262,-35,29,47,96,-47,-72
-387,-350,-192,-36,137,224,352,7,-189,-265
-575,-259,37,28,41,122,374,-319,-483,-515
-719,291,432,385,-165,-387,-338,-1051,-1065,-989
-958,537,983,1026,49,-683,-1073,-1532,-1414,-1347
-1112,-152,919,1594,603,-467,-1126,-1283,-1244,-1333
-317,-381,277,1322,613,-244,-723,-468,-406,-398
645,246,142,370,230,85,-208,367,612,726
905,527,-550,-1001,-373,345,417,908,1116,1114
647,189,-988,-1539,-699,196,456,791,903,865
164,-447,-788,-972,-528,-84,88,292,387,384
-77,-686,-352,-559,-314,-132,-34,76,177,190
-181,-385,843,-95,-14,-8,72,7,73,-14
43,45,1121,-72,128,128,317,136,119,43
186,-173,145,-253,217,257,373,376,322,254
48,-637,-907,-190,278,251,318,459,409,283
-94,-620,-1140,-258,72,39,250,384,280,144
-160,-322,-573,59,99,60,220,224,135,17
117,135,-165,84,-28,54,205,187,167,150
176,211,15,78,-55,123,112,72,78,108
280,222,-385,-289,-242,25,-65,27,85,155
149,531,-217,-439,-551,-569,-483,-314,-241,-111
-357,780,917,198,-430,-780,-712,-726,-832,-771
-790,757,1849,1464,117,-487,-601,-881,-1155,-1226
-525,464,1678,1960,570,216,-107,-530,-754,-812
100,-244,130,369,156,428,300,341,119,131
28,-532,-791,-1093,-377,-84,84,412,115,149
-596,-231,64,-650,-173,-388,-404,-241,-726,-698
-1059,-81,1189,1025,615,-322,-638,-674,-1266,-1340
-388,569,1229,1427,967,-25,-227,-304,-578,-617
765,1024,620,663,466,134,478,418,565,667
538,-410,-1064,-211,142,240,914,879,990,836
146,-1504,-2081,-484,146,296,1077,1003,993,737
248,-1209,-1785,-603,16,393,951,850,817,751
132,-822,-1082,-402,-95,728,541,447,499,484
259,-263,-615,-253,-287,565,41,154,389,446
489,589,-127,-243,-360,-3,-259,-50,169,356
346,662,354,-230,-505,-396,-378,-218,-157,48
69,612,889,-100,-351,-508,-483,-356,-348,-209
298,979,1214,-280,-21,-287,-441,-272,-138,24
543,600,789,-562,275,261,155,270,495,593
582,-19,-37,-557,451,700,714,621,865,912
355,-199,-455,-171,242,524,441,310,509,571
-16,-155,-248,128,-107,60,-30,-92,48,67
-75,47,-199,-277,-400,-232,-198,-189,-70,-59
-3,400,-258,-477,-455,-280,-178,-133,-96,-72
-82,642,-260,-279,-243,-303,-212,-222,-356,-325
-313,355,217,467,221,-272,-455,-482,-722,-697
-285,-135,405,546,-50,-326,-509,-426,-523,-465
-43,-529,-297,-21,-359,-248,-174,-194,-82,9
-163,-23,96,-95,-188,-145,9,-309,-239,-184
-257,476,942,318,241,-85,131,-441,-505,-422
-573,-350,585,594,739,236,492,-171,-400,-474
-721,-1180,-110,668,941,558,563,-26,-229,-400
-710,-1396,-474,471,800,450,68,-198,-268,-397
-739,-886,-453,390,348,-88,-589,-466,-445,-588
28,579,322,-78,-509,-454,-561,-214,-97,-143
227,45,23,-116,-400,-41,183,351,370,300
149,-653,-716,-644,-165,163,22,304,421,316
-99,-311,-273,-189,-192,-153,-381,-299,-141,-146
306,555,408,46,-85,83,62,78,247,343
589,537,208,-286,51,423,479,628,732,706
533,190,-486,-692,-15,345,389,599,654,629
195,-60,-934,-423,28,176,152,308,238,206
199,216,-47,-42,-206,-241,-38,346,-78,-16
177,408,169,66,-184,-326,-177,104,-165,-89
-72,279,178,67,-146,-363,-385,-247,-322,-281
-224,-234,153,294,-46,-220,-370,-397,-256,-229
109,-293,-249,474,119,219,-24,27,185,206
429,294,-238,123,32,230,197,260,372,409
109,811,456,-432,85,-40,-134,-223,-216,-149
-179,530,1012,398,556,-109,-283,-544,-597,-548
-129,249,1031,737,851,39,-155,-437,-429,-410
21,118,719,848,689,7,-75,-168,-104,-109
74,356,605,645,271,68,1,-22,36,2
125,364,-157,-148,-236,230,42,82,92,44
-77,-389,-1074,-770,-462,11,-73,133,58,-33
32,-551,-1178,-1098,-383,-87,30,291,184,136
123,-234,-353,-823,-267,-99,-122,188,138,154
58,3,309,-241,-210,-159,-322,-74,-39,-14
75,219,292,167,-133,-238,-350,-164,-22,-34
-70,37,251,368,-39,10,-9,65,177,68
-251,-401,19,571,116,350,556,398,180,30
-149,-616,-510,457,139,376,672,484,155,82
-47,-619,-925,-7,-47,198,434,377,99,115
-61,-408,-778,-395,-249,-64,92,205,80,68
-128,-78,7,-182,-302,-221,-212,-79,-21,-68
106,339,639,7,-257,-126,-178,-166,59,71
84,149,313,17,-59,104,44,-171,68,76
-68,-327,-380,-89,165,345,267,-24,129,68
152,-467,-715,-261,185,417,378,264,375,343
326,-270,-739,-315,18,228,269,251,324,387
137,-142,-459,-251,-215,-85,24,45,64,105
99,441,644,-40,-292,-230,-211,-110,-83,-35
12,894,1444,244,-146,-233,-367,-314,-251,-214
-241,778,1374,384,51,-240,-441,-536,-497,-488
-382,190,610,432,178,-225,-424,-572,-587,-569
-377,-276,-180,483,194,-315,-380,-490,-600,-559
-314,-394,-621,428,3,-538,-395,-359,-628,-554
-398,-521,-853,418,88,-524,-234,-72,-504,-511
-89,-210,-410,-233,526,478,529,466,219,87
602,67,-543,-881,262,620,563,697,900,824
634,106,-186,-645,-125,341,326,371,774,757
218,-127,65,134,-473,64,-18,-94,293,286
-18,-63,499,470,-371,-169,-361,-361,-136,-44
-14,180,659,551,-267,-315,-491,-460,-365,-161
8,501,705,498,-325,-331,-369,-499,-429,-221
-24,703,710,26,-209,-17,217,-249,-297,-198
69,583,512,-264,23,525,891,182,97,31
160,116,-376,-405,-160,239,654,120,210,183
500,612,-328,-595,-422,-230,258,64,243,387
177,383,-231,-255,-125,-258,178,214,179,165
-142,-339,-607,56,109,-192,-70,307,199,63
-33,-373,-82,413,113,-226,-283,288,224,168
-47,-425,664,648,436,633,55,347,348,282
178,-315,-397,-232,417,719,376,502,569,491
277,-133,-590,-952,46,381,279,432,524,496
-268,104,108,-239,127,-181,-335,-319,-304,-322
-590,130,395,387,313,-318,-580,-668,-709,-764
-634,4,357,630,567,-120,-386,-597,-677,-768
-323,-112,-230,59,243,34,114,-140,-198,-305
233,-49,-420,-484,-310,66,433,249,297,299
178,-492,-631,-478,-472,100,398,315,332,315
-341,-614,-398,396,-218,-247,-477,-236,-288,-324
299,627,365,645,36,-217,-387,-162,-137,3
406,1163,983,324,251,-10,-122,-2,107,166
191,837,1112,-9,286,89,35,126,159,136
-71,-265,181,-179,282,145,155,308,249,150
-69,-755,-593,-378,27,0,118,368,302,229
128,-79,-61,-155,-381,-350,-173,89,36,124
74,328,606,384,-367,-532,-472,-219,-213,-101
-47,250,500,662,-112,-332,-484,-303,-283,-219
301,138,-884,-787,-193,63,21,81,138,224
389,655,-475,-844,-374,-77,157,215,98,191
-109,459,407,32,-85,-258,0,54,-343,-353
-759,-792,294,982,596,-189,12,-35,-544,-713
-631,-1340,-590,1064,687,-189,238,190,-173,-317
-623,-1448,-1170,744,530,-76,409,284,12,-184
-558,-1251,-1449,203,181,343,599,77,91,-104
-147,-521,-740,-286,-375,498,470,-30,153,100
20,307,226,-846,-476,-135,-681,-503,-209,-156
-113,63,424,-480,-278,-180,-591,-544,-212,-208
318,323,540,188,50,136,62,79,312,337
266,195,107,223,324,276,347,410,364,405
424,152,-501,-635,203,199,469,936,565,572
375,250,-743,-992,-106,-47,267,1104,403,377
52,155,-564,-491,-300,-217,1,763,56,-1
-229,258,-133,207,-401,-495,-538,-81,-382,-411
-106,326,642,905,-229,-539,-897,-752,-479,-380
104,160,989,993,50,-49,-276,-750,-228,-30
289,314,502,-1030,199,639,678,319,457,439
310,204,-437,-1160,178,457,594,478,490,434
73,67,-301,-101,160,74,175,88,93,43
-152,-103,185,574,222,-78,-118,-222,-153,-204
-136,-69,-2,76,237,-50,-71,-183,-106,-132
-96,-420,-640,-474,354,295,334,202,118,74
-240,-787,-694,-300,409,696,728,527,160,62
98,358,665,11,-170,272,499,411,65,130
409,1837,2170,183,-578,-249,116,27,-181,-13
28,1271,1950,364,-95,-210,93,-161,-292,-242
-302,-444,-32,115,195,-65,98,-84,31,-67
115,-790,-1176,-667,-341,-423,-217,-66,333,365
299,-115,-331,-681,-635,-486,-395,-220,211,357
26,108,371,117,-145,-11,-300,-423,-142,-19
-194,2,185,831,282,202,-263,-570,-470,-351
140,226,44,941,275,20,-324,-534,-416,-208
269,-50,-248,603,182,96,-129,-226,58,195
-62,-828,-1348,-569,65,455,241,369,609,441
-189,-727,-623,-430,126,286,158,187,273,119
72,0,-188,-26,-95,-121,-200,-217,-79,-1
50,401,274,204,-128,-229,-341,-436,-321,-158
-232,249,927,156,-1,-31,-129,-230,-185,-234
-182,-158,404,-174,92,59,-23,-37,29,-41
-337,-250,239,164,256,-234,-361,-356,-378,-367
-126,107,-182,-61,-54,-423,-287,-216,-308,-275
126,144,-548,-338,-484,-418,109,386,201,138
-122,-328,-908,-601,-414,-413,89,284,47,-17
-420,-589,-934,-506,-190,-191,-21,-209,-379,-398
-593,-288,-230,34,-34,99,-243,-734,-753,-729
-546,427,1054,1111,124,-76,-526,-1110,-1016,-922
-552,842,2026,1836,357,-160,-332,-1166,-1116,-1031
-189,731,1620,1237,46,6,69,-707,-719,-594
306,306,470,-237,-605,25,362,157,50,154
318,179,274,-630,-416,-30,250,455,366,351
80,216,481,-111,44,-20,80,345,487,314
278,-327,-594,-396,145,90,363,569,927,741
653,-864,-1947,-1255,-104,303,523,916,1259,1204
528,-780,-1622,-998,36,616,385,812,1042,1018
148,-253,-388,-294,399,414,-11,284,393,340
270,40,-115,-320,114,167,-52,208,361,372
330,42,-161,-349,-180,75,-2,241,375,414
-16,73,109,391,32,-38,-290,-189,-189,-112
-112,262,732,779,129,-102,-366,-298,-365,-291
11,458,1090,566,125,-59,-252,-159,-205,-154
233,985,755,-84,-225,-291,-488,-236,-125,-28
198,1132,1408,117,-198,-177,-314,-189,-101,-27
-54,930,1600,434,139,121,-60,-125,-140,-154
-5,346,594,156,361,350,332,214,123,63
297,-203,-789,-339,418,395,691,632,431,421
420,-437,-1789,-432,266,185,607,732,373,450
280,-366,-1982,-174,9,-181,205,424,1,122
-22,-377,-1444,-250,-200,-332,-63,126,-249,-200
-160,-134,-670,-648,-350,-318,-350,-25,-187,-250
-105,312,259,-500,-272,-276,-562,-164,-19,-75
-271,122,670,81,103,11,-373,-265,6,-45
-452,-98,827,149,-98,23,-256,-246,-134,-230
-450,-169,874,0,-396,-129,-225,-198,-263,-335
-306,-323,392,-92,-274,-285,-302,-236,-273,-273
92,-199,-59,-138,-164,-304,-303,-155,7,28
192,-40,3,21,-77,-144,45,-42,107,129
-50,-395,2,187,86,103,316,-141,39,57
-332,-839,-382,146,235,437,285,-157,5,-48
-86,-806,-909,-162,80,396,434,215,273,190
220,-118,-748,-162,12,289,216,132,230,265
274,636,-44,-287,-336,-186,-331,-245,-57,71
26,800,617,-74,-350,-406,-488,-461,-295,-242
-439,223,444,226,44,-147,-155,-139,-349,-503
-592,-220,51,550,448,146,132,276,-328,-550
-364,-506,38,990,449,56,55,108,-332,-359
-372,-838,558,1209,279,-55,57,-173,-269,-244
-118,-558,768,950,332,236,465,-99,51,36
456,63,111,70,444,684,916,227,532,555
855,600,-660,-1098,243,682,741,469,760,848
504,391,-861,-1309,-41,173,104,295,359,420
-106,-146,-704,-528,-225,-339,-448,-8,-78,-103
-295,-295,-192,-77,-88,-341,-609,-53,-95,-183
-496,-321,-234,336,185,-146,-440,-527,-451,-506
-2,492,539,712,-97,-463,-633,-792,-694,-467
71,580,711,603,-85,-356,-374,-476,-503,-335
118,-286,-372,-425,-47,38,218,332,180,194
106,-693,-1002,-1350,-248,121,464,841,686,549
71,-274,-569,-1115,-231,68,318,621,486,375
-78,-5,91,-272,121,177,85,121,-9,-28
-4,57,315,148,284,28,-161,-71,-94,-61
36,275,319,304,188,-68,-289,-117,-35,-13
43,378,400,357,85,-21,-318,-176,-78,-39
157,221,361,307,170,210,-41,-128,78,99
-92,503,799,115,-337,-306,-114,-162,-126,-142
318,695,352,-637,-465,-590,-322,-179,-87,78
118,-231,-594,-768,-1,-150,18,90,93,117
-311,-504,21,370,603,552,257,107,75,-67
-193,-353,-71,227,-145,407,442,241,160,13
16,-430,-169,518,-67,305,647,203,217,133
-101,-76,845,947,220,90,66,-394,-322,-235
-313,1,989,849,340,74,-232,-494,-528,-457
101,619,-104,111,301,-188,-557,-339,-292,-148
-357,-167,627,359,-143,-317,-390,-254,-197,-290
33,-274,-255,-345,-441,6,366,580,421,275
256,-56,-1159,-676,-330,142,622,851,601,463
279,-319,-1268,-604,-11,149,346,563,439,376
615,-31,-807,-654,-221,147,231,349,520,617
609,488,336,-121,-396,-71,-174,-202,137,399
156,1058,1236,-29,-479,-456,-569,-605,-531,-389
-249,540,443,-87,20,-76,-178,-300,-410,-554
-56,-15,-401,-265,331,293,351,261,169,-51
216,-575,-966,-552,179,356,571,615,633,531
207,-553,-831,-473,1,96,315,421,477,494
20,-528,-880,-167,-56,193,81,86,57,67
-89,-802,-1106,227,122,201,92,122,0,0
-150,-770,-874,373,154,20,-56,0,-158,-129
-266,-225,-245,338,-38,-307,-420,-333,-416,-391
-676,-119,879,450,169,-237,-364,-509,-557,-710
-328,110,1174,704,467,193,48,-154,-237,-370
370,598,1459,354,351,413,437,396,283,323
153,410,265,-93,-519,-372,-98,-32,3,38
-105,371,331,255,-406,-345,-220,-302,-148,-193
-219,369,567,683,-58,-163,-338,-499,-295,-354
-313,-42,462,816,297,-2,-462,-542,-401,-440
-219,-299,178,495,432,121,-228,-387,-365,-315
109,-62,84,-74,230,147,59,-135,-99,19
59,-204,-713,-353,-97,80,155,238,244,159
120,-174,-709,-254,-147,42,199,371,354,231
41,-81,-24,166,210,87,185,319,247,135
97,-106,-232,-44,210,180,234,368,293,206
-388,-514,-1345,-1164,-166,-32,-110,-304,-313,-395
-373,-479,-640,-700,-128,134,287,-160,-243,-358
-198,-431,-215,-218,-11,182,604,190,80,-81
182,-74,33,61,11,104,653,494,403,304
458,480,359,-23,-277,19,445,552,525,494
309,667,622,-112,-549,-251,-263,6,198,206
-470,703,1539,1146,86,-496,-989,-1053,-978,-943
-212,967,1789,1450,1,-460,-1024,-957,-856,-713
134,921,1303,1201,-122,-344,-722,-499,-376,-225
510,549,233,253,-138,-50,-113,162,128,262
398,-169,-998,-992,-207,131,389,767,347,318
-60,-1219,-2278,-1712,-211,152,564,1062,485,289
-301,-907,-1308,-534,120,-156,-12,84,77,-23
-91,-226,-154,230,192,-81,143,-229,-3,-5
76,48,226,420,-11,236,638,-28,269,221
174,-312,-45,-104,72,225,294,342,303,362
88,-26,528,-71,276,272,-107,55,36,141
226,597,1335,171,176,17,-330,-101,0,121
487,1059,1726,160,30,11,-111,96,251,360
486,949,1132,-173,-28,245,246,302,432,490
359,879,619,-280,-160,218,197,157,262,322
-75,411,405,154,-46,16,-158,-273,-248,-186
-340,-249,-348,253,86,-115,-400,-500,-496,-425
-366,-578,-940,81,94,-140,-382,-385,-391,-363
-174,-654,-855,172,223,103,-96,-94,-99,-57
401,417,17,-425,-300,66,117,231,338,423
-604,-491,-220,293,-28,-104,-138,-218,-293,-404
-768,-515,566,1013,122,-402,-523,-638,-674,-702
-489,-139,1136,1294,57,-504,-579,-690,-686,-608
151,438,1048,682,-78,-159,-88,-57,-74,18
692,554,-427,-937,-87,409,536,691,611,668
559,149,-1721,-1735,-109,365,600,803,584,608
98,47,-928,-663,-76,-114,-70,59,-177,-39
18,-903,-708,-305,161,81,202,187,461,405
-18,-446,-521,-42,-153,-1,167,147,175,118
-204,103,-84,-253,-104,86,-207,-287,-257,-248
-323,685,1110,531,-123,-397,-631,-669,-721,-624
-359,958,1732,1322,15,-536,-691,-794,-939,-807
383,-411,-605,163,201,166,987,730,462,479
45,-579,-203,-853,-121,91,583,461,515,317
36,-426,-455,-1050,-37,431,424,244,418,266
77,-494,-1025,-858,-23,650,467,346,432,355
40,-263,-454,-145,-126,165,259,166,215,208
268,515,188,20,-184,-67,-193,-103,119,202
350,934,763,294,55,-130,-291,-238,-6,87
170,509,472,501,266,-45,-221,-122,-70,-45
77,-32,-441,174,97,-135,-386,-182,-138,-78
-46,-653,-1106,-385,-204,-244,-379,-158,-71,4
-360,-723,-648,-378,-163,-190,-214,-113,-76,-112
-34,594,700,-48,42,-137,-189,-140,-113,-76
197,1299,1471,374,272,9,-99,-109,-106,-39
-168,361,883,739,559,279,113,-3,-92,-223
-292,-667,-236,380,423,299,209,116,16,-136
-169,-972,-650,211,128,67,22,21,-12,24
162,49,224,296,-135,-140,-56,60,75,152
417,413,218,-237,-407,-25,167,334,312,390
-205,-124,252,-31,-243,-253,157,-223,-445,-385
-256,238,682,-96,-561,-503,-147,-406,-506,-463
-353,306,554,-76,-451,-535,-549,-505,-467,-457
-543,-137,359,599,75,-358,-689,-523,-505,-510
-159,-356,-154,662,264,-50,-219,-91,-178,-121
395,-298,-609,142,102,-46,-33,173,199,350
522,-327,-1340,-539,-92,-14,252,440,488,564
-68,-115,281,209,295,381,57,98,40,2
-159,-208,31,238,259,128,-172,8,-34,-71
-339,-434,-143,286,203,-117,-251,-203,-189,-239
-551,-753,-89,487,160,-171,-275,-448,-396,-420
-566,-561,789,794,281,-93,-285,-483,-474,-475
1079,1999,1078,-399,-108,149,328,576,305,559
679,982,-328,-334,-154,105,250,432,260,342
526,-181,-1656,-762,-344,98,351,600,682,616
195,-1030,-2220,-1102,-391,79,370,482,736,622
-116,-1024,-1339,-796,-21,194,363,186,374,290
-296,-632,-601,-695,324,383,446,233,67,-87
-385,-459,-615,-590,381,194,430,370,1,-194
-76,512,624,196,195,-309,-322,-193,-355,-316
-315,120,539,560,285,-196,-562,-654,-660,-590
-263,-419,15,450,54,-48,-389,-504,-374,-322
63,-265,158,421,-292,-57,-18,108,75,150
173,38,321,316,-404,-93,273,465,299,297
49,-44,150,-30,-512,-151,158,293,282,187
-81,-316,-441,-481,-581,-216,-79,-44,104,40
-35,-245,-929,47,239,175,228,38,-39,-37
-17,-222,-738,143,362,-13,63,91,-65,-70
271,1001,1507,514,64,214,84,-562,-299,-155
237,1446,1715,387,139,-374,-494,-740,-547,-408
103,1293,966,-30,-51,-648,-674,-774,-529,-454
149,463,104,-226,-203,-370,-318,-411,-170,-65
-10,-906,-657,-58,-41,463,472,353,473,451
25,-1294,-1104,-126,53,795,757,773,870,754
-53,-710,-254,525,259,452,201,311,407,351
-108,-250,197,422,246,143,-66,27,83,37
475,531,149,-852,-106,167,259,284,343,418
294,828,691,-497,-154,32,58,0,3,86
-531,-505,-69,24,9,-41,-54,-138,-156,-289
-583,-546,338,495,11,-206,-303,-407,-320,-392
-460,-336,838,628,-12,-299,-444,-597,-508,-483
-184,-153,784,258,-64,-168,-236,-362,-320,-250
260,101,83,-359,-56,147,216,193,213,268
468,129,-470,-600,-78,254,449,482,484,517
326,-333,-1100,-506,74,336,778,577,450,399
119,-324,-929,-251,281,318,694,424,288,216
88,-120,-475,-191,335,174,340,222,242,214
-51,-248,-297,-139,318,134,0,120,134,92
-208,-442,-312,-48,298,74,-147,107,26,-62
83,144,-255,12,-203,-220,-301,-114,-42,-11
106,592,-160,65,-366,-378,-378,-360,-287,-198
182,1406,373,531,-388,-290,-38,-568,-526,-431
33,886,324,473,136,-20,25,-497,-515,-475
-195,-263,1043,50,-188,-105,-133,-109,-174,-101
-475,-502,1477,585,51,-182,-78,50,-66,-173
138,600,1137,185,8,-152,-9,94,5,64
184,528,130,-355,-56,152,278,250,110,82
-12,-156,-553,-441,-202,231,113,324,235,70
-85,-423,-751,-481,-297,4,-440,67,112,47
-87,-57,523,142,-109,-419,-533,-209,-241,-150
-73,82,626,179,-7,-372,-361,-84,-223,-171
-37,-129,169,150,-32,-211,-85,129,-3,-19
40,-531,-492,-67,-206,-38,167,372,358,281
174,-375,-537,-191,-2,219,349,437,506,432
27,-334,-635,-154,532,456,415,246,300,233
47,-198,-856,-281,653,585,473,160,213,176
226,323,-342,-289,352,413,308,94,133,165
78,352,89,-165,218,221,198,108,-15,-14
-247,-107,-180,-148,100,151,301,288,-74,-177
7,515,621,292,-170,-185,-333,-146,-251,-212
16,179,257,294,-407,-141,-371,-273,-174,-121
-28,-272,-729,-205,-327,-4,-179,-179,13,25
-202,-629,-1320,-650,-78,28,-53,-55,-46,-71
-302,-731,-1351,-553,163,43,74,-11,-194,-211
-341,-564,-1385,-196,297,38,312,-165,-329,-338
18,287,-966,24,30,-182,267,-254,-269,-224
401,1236,178,105,-557,-600,6,-364,-182,-48
218,1828,2906,728,-542,-753,-400,-587,-397,-227
88,605,2216,677,60,191,193,151,68,119
69,-678,438,-21,226,685,364,875,620,552
-22,-872,-440,-559,101,434,87,889,694,539
-203,-661,-579,-500,117,387,36,450,340,188
-337,-411,-247,-282,-118,-30,-325,-180,-113,-202
-99,431,537,77,-331,-362,-442,-359,-362,-301
-65,85,267,435,42,-1,28,254,-101,-127
296,-150,-303,205,131,141,265,591,398,364
199,-442,-459,204,283,193,99,288,377,349
-15,-265,-306,162,128,-15,198,13,7,-28
-24,244,524,-33,186,-161,-394,-357,-194,-171
-74,604,895,526,520,-72,-436,-671,-486,-369
90,458,-283,349,452,112,-111,-261,-152,-115
6,-360,-994,309,108,134,66,-24,126,74
-54,-110,402,108,-452,-37,406,-80,85,22
-24,-133,431,-542,-550,-59,820,99,211,125
170,55,341,-865,-470,-4,974,294,347,299
50,328,327,-629,-453,-156,411,25,42,13
-879,-2,1169,1087,188,-178,-803,-658,-955,-1087
-885,-312,763,1113,77,-325,-1198,-783,-1023,-1078
-357,-418,-27,815,-148,-499,-1098,-502,-479,-409
136,-361,-501,235,-75,-211,-500,-51,173,264
565,-211,-1310,-1658,-15,404,466,642,869,849
200,-134,-715,-1312,-237,148,313,490,502,417
106,-9,-281,-682,8,50,119,372,380,231
32,-34,-376,-357,240,39,-50,185,201,96
37,-7,-411,-282,214,-34,-100,8,10,15
106,270,285,321,352,10,66,-126,-70,-16
397,624,582,278,129,185,380,1,-61,95
-3,-122,-550,-604,-611,-65,119,131,-18,-29
-89,-106,-168,-204,-524,-350,-329,15,-172,-164
149,1294,1791,734,-106,-608,-654,-437,-324,-215
274,1578,2408,1040,40,-393,-511,-533,-203,-103
300,996,1483,660,63,-96,-133,-252,60,153
293,67,-497,-312,61,183,393,341,451,414
13,-550,-1293,-469,293,446,681,607,255,122
-27,-826,-1177,-258,199,213,682,616,237,145
-234,-1189,-1329,-257,150,191,635,587,236,148
-234,-552,-352,238,428,39,-148,-300,-36,-65
31,78,177,293,302,36,-440,-584,-198,-82
49,383,370,189,-35,50,-532,-664,-323,-201
-111,502,556,205,-264,-152,-592,-710,-466,-382
-134,564,425,32,-343,-274,-445,-471,-379,-330
-81,160,-300,-3,-242,-70,28,88,97,1
33,-354,-874,55,-102,121,394,560,494,352
139,-394,-809,-184,-228,-143,191,573,488,421
332,-254,-410,-149,-115,-296,-177,353,391,454
413,-244,-457,308,233,-158,-328,163,328,448
396,-53,-574,271,220,249,100,88,209,328
138,-14,-685,-255,39,646,535,137,107,118
-230,87,490,-80,-48,96,-1,-80,-143,-200
-91,432,1030,42,116,119,-12,16,-120,-143
18,-85,76,-160,87,153,73,12,-79,16
-67,-444,-272,-25,93,70,171,-114,-133,-20
-212,-565,-100,48,62,-11,133,-208,-61,-53
-396,-633,56,99,-104,61,436,-73,65,-79
-359,-399,22,113,-249,119,598,-26,-33,-168
-280,-111,277,399,-99,141,279,-250,-292,-300
-225,146,554,765,214,41,-185,-393,-439,-356
-21,507,332,626,387,-100,-627,-413,-419,-275
477,745,-77,-304,-93,-182,-447,61,42,177
209,305,-359,-765,-395,-139,-211,255,127,119
-346,-327,-258,-913,-503,-224,-153,237,-51,-187
-469,-423,20,-572,-374,-353,-288,46,-229,-310
-236,-415,-223,-355,-159,-212,-247,16,-62,-87
-63,-398,-113,63,270,190,-5,75,170,125
65,-180,20,254,381,325,221,145,260,200
-36,-84,-228,100,234,211,250,11,80,39
37,313,-196,-93,46,-2,81,-125,-91,-47
165,558,32,-152,-106,-87,93,106,-137,-39
71,135,-70,-115,55,275,352,587,56,37
127,-203,424,135,-31,27,-34,253,254,201
-151,-155,932,548,175,81,-138,-385,-104,-124
-301,-93,1144,789,436,319,-70,-652,-301,-317
-48,39,567,415,353,324,38,-419,-167,-115
-156,-148,-223,138,138,58,218,-186,-178,-193
-369,-152,-445,482,41,-208,182,-96,-347,-425
-222,193,-53,524,-84,-315,-105,-46,-265,-331
56,418,277,154,-219,-284,-353,15,-20,-39
340,206,53,-129,-169,-100,-267,228,276,338
502,-130,-558,-661,-138,109,-19,237,530,637
309,-147,-482,-515,-19,149,47,-10,358,412
93,-9,-352,-208,35,172,47,0,178,158
57,114,-349,-333,-20,169,90,150,170,93
-42,202,25,-108,219,175,48,1,-69,-133
-6,348,187,-102,267,80,-50,-128,-138,-145
-168,449,1109,442,-154,-201,-248,-215,-218,-241
-213,-206,543,345,144,-15,-69,-19,-31,-53
109,-363,-1396,-293,80,156,218,276,352,266
182,-270,-754,-101,-123,198,287,369,398,331
305,93,-208,-229,-310,32,200,357,316,319
149,216,-139,-447,-434,-208,21,239,102,97
-78,92,-105,-275,-363,-341,-133,21,-158,-173
-124,167,673,604,-327,-537,-620,-669,-611,-471
-228,333,1164,874,-231,-514,-805,-1035,-819,-665
-300,149,867,627,-148,-360,-588,-833,-667,-600
-340,-45,159,-119,7,-187,-288,-408,-398,-448
-246,-145,-396,-309,511,48,32,-2,-93,-167
373,255,-213,111,137,147,378,272,299,294
297,62,104,-226,-69,360,478,357,417,366
129,-154,600,-125,138,500,356,320,349,310
181,66,857,-17,189,352,124,294,337,335
266,486,1129,192,74,173,43,245,309,313
155,321,646,53,-36,93,75,139,162,142
-379,-571,-531,-151,-188,-176,-159,-197,-230,-314
-350,-526,-507,313,-6,-165,-205,-216,-236,-314
172,301,-29,119,-80,-65,-17,72,102,82
265,16,-1401,-865,-94,77,195,333,302,250
-34,-556,-1347,-597,-152,23,149,256,200,117
-63,-599,-769,-296,-124,43,148,246,196,123
0,-517,-570,-244,-2,161,243,293,231,185
172,-204,-353,-217,70,204,279,293,242,274
207,-112,-399,-113,117,120,201,212,165,226
221,-32,-604,-176,74,-50,11,84,56,140
353,484,-565,-378,-54,-236,-81,68,40,127
253,750,-379,-376,-100,-200,41,173,-36,-24
-202,170,673,511,99,53,-12,-2,-223,-254
-345,-364,966,557,137,-7,-107,-106,-150,-202
-232,-625,597,204,180,114,31,-129,14,-29
238,63,88,-178,-8,-84,660,187,146,221
175,78,-7,-189,-138,-167,781,226,67,113
58,56,20,-97,-218,-110,750,68,-84,-27
58,283,468,36,-150,201,486,-129,-174,-86
-217,8,422,163,134,257,-182,-262,-268,-286
-157,-161,-92,286,256,56,-618,-308,-209,-218
195,498,417,290,15,-229,-880,-532,-256,-70
47,973,1271,435,-102,-373,-943,-813,-581,-389
-242,678,1203,593,200,-116,-547,-675,-652,-627
-410,-500,-160,416,598,286,94,-48,-121,-350
-53,-973,-1239,-97,456,300,454,493,518,298
68,-334,-756,-574,-477,-283,96,402,321,266
-160,-337,-273,-5,-217,-88,-108,231,-4,-58
-278,-673,-484,136,233,-101,-220,290,1,-115
-87,-581,-517,212,434,-150,-349,38,51,28
-34,-360,-370,369,615,78,-229,-249,-41,2
26,20,-18,568,449,241,18,-412,-220,-82
190,398,266,223,-162,191,338,-238,-109,18
88,599,716,-76,-488,56,396,-74,-21,-37
-127,488,877,-25,-377,-144,81,-125,-94,-217
144,743,1021,729,190,-287,-417,-88,-261,-146
383,1109,530,-91,-627,-297,-433,-136,-131,-37
141,420,-62,-576,-532,32,-120,29,79,42
-128,-536,-306,-431,-84,238,115,204,303,162
-101,-753,-708,-468,137,271,160,355,429,325
48,-491,-844,-525,94,135,20,310,352,310
85,-446,-902,-611,-92,3,-37,260,306,262
122,-224,-842,-725,-212,-6,70,243,280,267
123,82,-563,-542,-38,77,172,203,193,213
-267,-250,-289,77,304,128,235,175,-149,-179
-470,-310,274,587,327,60,367,117,-479,-497
-73,173,880,578,-76,-82,326,24,-364,-261
212,540,1336,455,-377,-183,63,-109,-157,-8
134,283,-93,-535,-176,-144,-130,-67,107,56
317,-198,-938,-830,-61,83,43,355,448,416
362,-486,-1179,-446,129,342,152,517,548,548
151,-688,-1156,-185,97,333,60,302,412,396
71,54,113,177,99,18,-20,-40,102,134
187,739,574,-56,-77,-143,-16,-114,-48,3
-11,908,704,-70,-65,-194,-92,-233,-273,-299
-195,490,486,188,41,-70,-96,-215,-264,-363
-66,-82,-196,123,-138,-97,-205,-148,-98,-85
69,-408,-454,-68,-286,-251,-288,-80,1,135
-83,-345,11,29,-180,-281,-251,-168,-153,-67
-246,80,811,182,-65,-209,-238,-249,-242,-237
-236,-170,249,88,86,-49,-257,-247,-207,-211
-538,-898,-882,-121,44,-76,-380,-366,-425,-488
-868,-1263,-1046,276,-63,-393,-631,-637,-801,-879
-604,-473,-131,1215,277,-334,-631,-604,-737,-768
232,429,-103,881,498,128,-101,65,78,78
791,849,-367,-324,197,404,409,613,711,735
578,874,505,-353,56,390,432,420,519,588
85,728,978,-11,-237,-306,-75,32,72,7
158,715,589,-8,-231,-378,-110,84,138,102
339,793,606,-17,-238,-225,-139,-12,42,173
152,750,873,140,67,105,-108,-226,-218,-111
162,622,486,-360,41,70,-52,-236,-88,-73
-60,87,-119,-572,172,166,167,-24,139,-16
-253,-379,-475,-174,407,277,236,69,124,-65
-209,-752,-544,0,297,230,201,102,101,16
-66,-991,-471,47,178,302,326,272,267,235
-145,-1154,-770,77,231,294,413,332,260,187
-253,-690,-643,297,30,-230,-2,11,-96,-151
-84,-406,-282,230,-86,-193,13,7,-8,-28
54,-217,-161,75,-170,203,334,117,139,127
252,23,-165,-345,-203,528,517,390,343,345
341,322,94,-369,-34,399,320,374,347,403
-403,6,-51,-115,228,-199,-431,-460,-544,-512
-481,70,208,-211,119,-380,-340,-409,-643,-619
-221,59,-90,-443,62,-324,284,71,-208,-270
247,138,-549,-334,-42,-202,709,479,306,226
527,284,-315,119,-252,-59,830,631,546,531
441,247,17,166,-421,103,572,532,534,511
76,-148,-77,74,-142,464,240,214,323,275
-92,-356,-75,-29,141,554,-70,28,155,118
3,4,-28,-233,38,85,-406,-102,34,59
-17,228,-39,-262,-10,-171,-481,-363,-153,-91
-244,81,313,141,47,-186,-493,-617,-352,-321
-243,50,627,346,-181,-332,-603,-669,-428,-340
-30,387,1014,476,-437,-395,-544,-541,-381,-211
-71,81,919,1388,168,26,-129,-111,-69,-40
-95,0,699,943,177,-26,-162,-179,-143,-68
-106,-47,-5,-99,92,-42,-145,-152,-92,-58
-109,59,-344,-826,42,-32,-99,-120,-100,-81
-118,2,-134,-627,182,130,57,0,-27,-78
9,-87,-88,-202,96,183,197,170,168,109
154,176,84,-92,-204,16,104,116,168,177
37,120,-10,-326,-355,-91,17,62,101,81
136,-43,-667,-481,-53,112,223,294,336,299
147,242,-263,-203,-61,93,138,223,267,222
64,296,292,-47,-40,94,77,120,119,69
-130,-15,329,207,147,126,26,-64,-139,-149
-9,-212,-36,95,186,143,69,-51,-140,-48
211,-124,-143,-172,126,134,144,66,-8,170
239,152,243,-252,-48,-48,12,15,3,151
41,204,477,16,-129,-180,-133,-55,-54,-52
-132,46,299,422,105,-25,-86,-24,-83,-184
-239,-175,-302,320,182,31,-30,25,-88,-195
-213,-11,-278,173,147,-80,-101,-74,-197,-213
-370,-178,118,673,142,-87,81,-233,-430,-455
-435,-672,-123,551,47,-45,186,-171,-357,-406
-69,-847,-668,-86,-116,-64,264,86,81,91
195,-275,-454,-456,-298,-215,137,279,296,337
355,285,79,-448,-215,-176,161,476,398,416
365,160,-91,-475,-134,134,202,526,484,473
216,0,-309,-595,-250,227,-10,284,311,331
46,226,598,-217,-75,94,-253,-74,-1,72
28,359,1153,218,232,89,-218,-173,-91,-16
-135,-320,-611,38,225,68,-36,-27,-18,-79
-119,-475,-1167,-325,-92,-38,-18,-47,53,-31
23,-128,-798,-252,-350,-151,-109,-61,55,11
43,132,-572,-24,-265,-165,-235,-145,-116,-95
95,160,-725,76,-63,-31,-191,-157,-182,-109
110,19,-611,176,17,-36,-109,-79,-108,-33
-80,-107,-137,222,-74,-289,-91,-141,-210,-155
-330,4,712,269,12,-417,-173,-355,-502,-449
-480,61,1227,280,321,-290,-86,-402,-560,-571
-472,-274,684,160,607,193,214,-138,-224,-345
-47,-262,-72,-54,509,566,309,80,93,78
187,-23,240,267,95,288,-43,173,252,284
237,158,655,308,-455,-48,-258,173,309,311
325,304,681,338,-495,-103,-253,108,296,365
331,485,913,264,-239,-92,-229,-9,161,293
-279,356,483,-133,84,-97,-15,171,-402,-412
-557,-34,182,116,411,-142,-35,70,-579,-674
-275,22,103,305,453,-87,-71,-17,-370,-425
347,450,17,20,39,-10,-4,67,148,186
554,670,172,-149,-265,136,132,12,422,472
289,79,8,-15,-215,297,116,-109,381,416
112,-208,-311,-208,-52,200,44,-91,214,265
285,291,-151,-474,-179,8,17,-14,157,261
199,287,-151,-398,-283,-17,80,71,191,197
-229,-344,-167,236,-106,-7,33,-2,35,-93
-132,-379,233,375,-84,-69,-27,-62,-7,-53
-11,-154,364,161,-210,-136,-69,-88,-12,9
-105,0,-88,-37,-238,-156,-111,-168,-134,-142
-87,-35,-519,-397,-178,-50,-28,-109,-92,-111
74,-104,-565,-482,-74,111,149,100,115,112
223,115,-295,-287,173,263,286,282,284,290
121,219,105,11,385,322,255,218,199,164
26,-35,403,59,366,315,254,167,147,98
11,-253,113,-149,203,221,326,44,36,41
-48,-329,-208,-192,81,133,379,-117,-156,-82
3,-57,-329,-165,-187,-25,288,-116,-184,-75
14,143,-420,-271,-420,-157,192,92,-133,-62
-288,-151,-415,-212,-249,-226,-1,170,-233,-288
144,531,114,-15,-120,-774,-622,4,-135,-97
-173,189,47,275,94,-698,-730,-420,-356,-350
-277,-186,-187,169,197,-170,-173,-375,-249,-258
51,-260,-528,-284,182,645,393,27,177,219
207,-226,-319,-302,146,579,183,238,353,395
91,-290,-40,201,135,233,37,168,220,227
-50,-312,-91,450,113,215,68,76,77,52
113,220,3,121,-192,-27,-98,-100,-34,61
260,930,491,-158,-496,-389,-364,-360,-217,-8
-211,823,1037,227,-285,-417,-488,-599,-517,-437
-697,270,1676,980,145,-227,-397,-599,-612,-697
-444,17,1799,1290,390,-5,-33,-215,-289,-334
178,148,1495,928,371,191,304,350,225,304
583,265,480,214,335,367,428,676,563,677
345,-639,-1548,-647,293,383,434,745,609,596
-153,-1352,-2388,-789,226,240,271,510,362,188
-70,-953,-1738,-531,103,54,-12,162,214,147
75,-228,-770,-306,-26,-129,-294,-205,-26,68
86,181,189,-21,-224,-229,-333,-286,-231,-83
-18,286,775,242,-194,-105,-24,-208,-302,-195
-216,241,515,163,-119,0,267,-117,-318,-342
-189,257,-100,-239,-535,-282,277,-45,-259,-352
-165,188,-550,-432,-663,-522,46,-152,-208,-316
-367,-128,-280,-193,-343,-575,-279,-351,-321,-422
-286,-133,421,310,78,-243,-129,-237,-247,-276
-65,-220,366,444,566,421,-34,136,112,47
418,-358,-759,-278,467,606,288,507,634,649
300,-66,-408,52,214,216,55,180,258,323
154,156,-207,259,189,117,-56,-24,4,62
53,277,-117,230,105,83,-87,-119,-58,-65
-65,198,88,171,-40,33,-78,-142,-49,-103
-44,238,288,-47,-224,-40,-3,-102,-13,-64
-37,280,356,-350,-230,-88,162,-52,-2,-48
-206,7,478,-272,73,-40,326,4,-5,-111
31,-225,-326,-403,-21,-213,171,241,216,123
-200,-397,-173,125,38,-103,-209,104,41,-70
-318,-619,-131,604,224,174,-316,-48,-112,-172
190,-161,39,603,276,210,-263,-16,91,212
391,307,358,599,260,161,-55,149,173,308
485,484,1,144,44,140,175,394,332,409
487,451,-489,-604,-270,35,207,501,456,475
319,230,-445,-919,-529,-88,157,422,368,346
159,41,-6,-425,-346,-68,91,164,178,194
112,157,493,-12,-80,-19,-53,-175,-27,70
46,309,711,62,-47,-5,-162,-288,-102,-35
-274,-61,515,245,128,56,-160,-223,-194,-241
-517,-515,261,400,282,-18,-277,-304,-328,-410
-391,-302,453,-39,148,-224,-454,-393,-380,-349
-120,235,789,-156,0,-172,-273,-169,-165,-139
304,898,844,-361,-251,-75,-26,108,96,170
492,1222,644,-403,-307,19,164,328,173,278
111,665,323,183,-18,-10,80,222,-71,-29
-185,141,-315,467,-50,-336,-318,-156,-330,-313
-74,124,-467,270,-239,-563,-551,-396,-448,-348
-161,-221,-441,-71,-62,-246,-263,-305,-353,-327
-178,-715,-1124,-731,-68,93,199,28,106,-22
120,-558,-546,-37,-140,42,56,117,351,343
6,-557,-561,119,8,115,102,126,202,184
0,-325,-570,195,126,247,221,69,131,101
314,493,-132,10,78,206,205,33,114,171
385,696,258,-132,0,87,110,29,105,184
185,369,340,-339,-65,13,54,33,70,89
103,463,353,-388,-196,-158,-88,-150,-116,-90
-455,-873,-62,252,146,173,747,167,23,-116
-136,-677,-32,224,56,148,797,286,201,148
54,-320,-141,150,101,185,607,320,234,209
-34,-328,-645,-26,131,299,216,245,93,53
-28,-293,-566,-26,72,202,-150,202,38,35
44,5,-136,19,-20,-52,-382,84,35,55
-110,-54,-120,-171,-109,-194,-466,-171,-105,-90
-343,-422,-152,-267,-29,-142,-409,-358,-228,-261
-455,-494,109,-170,35,-45,-280,-374,-276,-363
-209,202,838,-168,-218,-146,-267,-307,-281,-309
-157,641,1359,234,-49,-126,-289,-289,-343,-391
-343,306,914,675,384,27,-229,-199,-328,-454
-6,3,232,437,237,-6,-102,17,0,8
124,-42,470,533,23,-129,-104,-23,65,162
138,-46,48,359,-10,-89,-41,-1,99,162
6,-263,-708,-31,92,-20,-8,-32,3,10
-254,-560,-858,88,310,60,99,121,-134,-221
-132,-484,-771,257,387,93,275,497,-25,-88
242,-159,-748,-101,120,11,441,626,251,237
373,262,-362,-342,-332,-302,257,346,298,313
211,510,101,-244,-553,-481,40,-43,170,168
0,551,432,-159,-242,-198,-31,-395,-72,-71
-228,360,794,343,386,472,51,-595,-354,-343
-174,-33,392,163,367,491,51,-404,-284,-245
-96,-115,320,-61,-148,-173,-315,-356,-243,-147
-302,-203,668,334,-193,-375,-489,-412,-323,-295
-315,-513,389,489,12,-129,-241,-127,-79,-149
103,-328,169,266,64,196,245,360,416,346
562,144,116,-324,84,455,646,741,846,770
662,149,-393,-941,17,424,698,755,863,828
287,-268,-965,-867,-10,177,445,388,438,411
-4,48,-412,-434,-48,-165,-104,-182,-191,-132
17,736,539,-96,-110,-300,-414,-398,-412,-292
-113,1011,1139,382,-8,-402,-620,-578,-669,-556
-459,367,643,533,344,-153,-342,-428,-582,-640
-194,-91,-348,143,260,47,21,-59,-180,-204
180,-416,-1059,-551,-242,115,254,300,244,302
118,-612,-1105,-750,-342,61,250,388,334,314
83,-284,-515,-415,-205,-29,107,305,204,194
23,48,-101,-135,-45,123,46,183,47,39
-3,412,38,-156,-61,0,-157,2,-131,-128
-138,359,16,18,38,-113,-250,-120,-300,-338
-130,21,-290,87,301,-51,-254,-214,-297,-319
81,-150,-425,123,407,6,-220,-356,-208,-126
252,-52,-352,-21,104,-36,-93,-272,-30,133
194,178,440,36,-323,-206,-229,-222,21,165
-159,99,1462,798,-239,-179,-310,-240,-173,-162
-102,86,1168,810,-243,-98,15,122,-20,-76
153,178,659,642,-243,-199,129,316,87,117
273,298,-20,-117,-416,-338,62,259,-2,70
-75,-104,-564,-887,-429,-121,114,122,11,-53
-165,-300,-215,-447,-85,152,390,15,79,11
-319,-668,-113,144,482,517,591,-153,72,-51
-425,-1065,-572,535,811,604,587,-160,33,-98
-310,-704,-341,655,733,406,268,-16,57,-31
241,25,281,211,228,46,-156,298,300,322
231,-81,-337,-471,-113,-85,-194,224,203,254
175,-74,-604,-705,-344,-210,-214,109,110,150
119,137,-429,-655,-427,-234,-194,51,52,56
55,143,165,-520,-322,-128,-121,63,124,93
116,349,864,-197,108,174,87,30,187,177
-15,-27,55,-59,251,261,172,84,119,51
-170,-295,-787,-127,220,143,45,-16,-20,-104
-101,679,52,252,43,-140,-266,-303,-332,-305
-41,956,670,433,-77,-192,-133,-199,-321,-298
106,893,728,320,-236,-193,164,-87,-248,-173
26,27,-36,263,7,20,419,113,-33,-31
-175,-772,-792,101,165,88,470,210,99,7
-136,-681,-671,-12,6,-138,42,27,109,53
-180,-31,3,-3,35,-317,-374,-276,-153,-180
-314,145,417,269,298,-344,-596,-496,-471,-502
-253,-160,401,489,535,73,-498,-411,-409,-408
282,-784,-1019,-227,39,511,437,698,742,672
265,-571,-801,-135,-309,246,297,526,609,548
138,-360,-367,112,-335,-82,-21,123,250,243
30,-221,-59,312,-188,-182,-191,-97,48,55
121,16,146,350,-40,-61,-171,-138,26,49
269,441,340,-34,-79,-77,-205,-165,30,108
129,587,196,-639,-219,-231,-269,-242,-130,-31
-223,150,25,-655,-57,-172,-194,-205,-225,-230
-330,-267,-71,-268,261,83,-20,-36,-117,-207
96,-121,-173,-108,198,253,207,271,237,208
307,208,0,-53,-50,223,294,394,421,378
223,347,242,-29,-87,112,176,259,283,241
-61,-175,246,114,81,120,93,112,37,7
-200,-387,-72,362,416,23,194,97,-82,-137
-169,-271,8,582,614,73,230,-8,-188,-218
-122,-278,-391,333,485,169,686,55,-155,-183
8,-15,-476,-191,-35,68,773,-15,-175,-133
10,459,679,-46,-366,-158,184,-343,-384,-227
16,847,1724,4,-457,-369,-427,-501,-373,-234
-337,341,931,34,266,90,-485,-210,-285,-401
-161,-152,-446,-60,317,314,-165,127,6,-85
248,-263,-1058,-338,-351,-33,-73,335,342,355
416,-227,-1069,-505,-519,-77,114,565,571,543
354,-233,-1139,-467,-298,241,297,606,537,464
59,-378,-914,-282,-73,256,226,451,359,259
-83,-446,-554,-349,-2,93,53,260,287,206
-163,-405,-57,-127,60,-33,-124,-98,72,37
-225,-79,531,62,-10,-214,-280,-433,-206,-191
-148,538,998,2,-233,-470,-415,-470,-365,-308
-238,783,1322,159,-283,-543,-373,-264,-576,-531
-450,352,1109,273,-41,-330,-84,47,-619,-667
-324,-365,-58,-67,44,24,386,354,-264,-326
-113,-670,-685,192,128,165,317,377,64,51
268,-293,-680,219,56,30,116,329,398,428
582,175,-800,-156,-110,-62,-172,-28,387,551
35,371,-148,535,-186,-189,-625,-762,-498,-316
-45,840,821,424,-180,-283,-550,-549,-431,-369
-212,1016,1465,317,-184,-390,-622,-450,-494,-501
-520,425,1332,159,-200,-299,-542,-461,-534,-644
-467,-448,471,17,-143,-102,-311,-405,-295,-363
78,-688,-436,-220,-219,15,-106,-198,125,261
426,-247,-455,-24,-126,93,7,-110,344,541
450,39,-280,23,171,373,399,164,502,532
180,71,-604,-290,499,409,447,230,347,232
-309,-953,-585,-145,361,423,309,155,164,50
-358,-1151,-814,-32,262,303,175,109,101,-10
-75,-702,-609,-157,7,77,190,160,167,115
144,-139,200,100,69,10,474,283,239,229
246,291,776,360,125,40,566,365,310,283
432,585,863,265,46,133,657,452,469,428
470,446,132,-145,11,276,695,463,478,442
236,107,-527,-333,-49,323,115,119,170,160
3,56,-309,-125,-65,73,-475,-171,-63,-90
-61,223,240,28,-91,-123,-330,-279,-176,-179
-123,454,631,56,-96,-86,45,-271,-335,-259
-87,393,761,-64,-111,11,237,-133,-294,-187
46,31,562,166,-125,-192,-418,-241,-272,-118
-41,9,285,409,-26,-185,-443,-103,-166,-105
-15,-55,-169,364,142,24,-282,69,21,38
-16,-149,-856,-79,159,116,-148,78,108,111
83,-171,-1274,-615,-12,31,-76,85,231,267
-128,-545,-773,167,98,-54,-130,-85,-71,-64
31,-459,-708,251,54,-90,-129,-51,1,42
30,-333,-462,234,0,-164,-208,-106,-82,-21
61,53,201,111,-90,-208,-246,-59,-118,-30
76,495,884,-41,-205,-199,-155,34,-91,-36
13,636,1089,1,-172,-151,-125,2,-129,-127
-156,444,805,186,-3,-172,-299,-211,-288,-307
-83,257,704,210,26,-152,-314,-287,-269,-232
29,30,350,-71,40,14,-68,-73,10,40
-60,-100,-138,-387,42,138,101,7,80,55
-367,-375,-747,-497,39,157,97,-111,-132,-238
-572,-413,-312,-116,119,19,-58,-281,-394,-512
-227,-37,368,186,183,-30,-50,-187,-328,-298
158,367,575,50,64,-9,106,61,-130,-23
288,334,304,-298,-23,72,229,249,120,171
438,-24,-728,-705,-211,127,286,413,493,508
386,-98,-911,-607,-436,21,160,341,472,483
165,-75,-289,-148,-266,72,207,241,266,257
86,0,64,45,-131,62,204,103,108,111
160,139,257,122,-191,-89,22,37,68,113
150,258,353,184,-145,-138,-126,-123,-25,56
-7,-59,-202,81,245,187,11,-270,-147,-112
-410,-902,-891,186,714,232,527,249,78,-105
-338,-736,-900,43,392,50,256,126,5,-118
-9,-199,-659,-244,-257,-110,-46,36,62,38
221,198,-398,-399,-588,-201,-188,-46,134,144
164,415,75,-224,-470,-287,-237,-249,-16,25
-8,510,743,162,-231,-326,-280,-384,-211,-154
-240,-302,558,739,175,131,-108,-224,-178,-181
7,4,225,333,-25,10,-54,-55,10,23
-9,-92,-330,-201,7,80,88,74,74,30
-54,-67,-606,-109,298,119,74,16,-6,-49
-98,-54,-254,297,222,5,42,15,-92,-120
44,96,168,55,-17,-3,166,235,42,47
123,473,783,-161,-234,-82,103,237,45,72
212,1071,1284,-123,-248,-202,-121,30,-88,-38
29,1218,1445,215,11,-170,-308,-352,-352,-342
-345,430,1164,538,372,79,-205,-477,-438,-522
-319,-626,172,126,274,259,136,-63,-34,-117
-88,-853,-375,-292,38,256,330,330,287,266
153,-331,-530,-169,-17,102,191,140,223,235
-12,-350,-803,-165,21,51,104,-70,117,80
-40,-328,-723,-233,134,105,162,-7,134,104
114,-122,-344,-244,70,107,217,120,197,235
0,34,319,-120,-192,-72,51,-28,17,59
-370,164,976,384,-150,-270,-286,-439,-458,-476
-302,146,650,735,158,-112,-228,-338,-287,-372
295,-132,-625,104,-7,67,256,249,288,346
418,199,-612,-120,-169,-40,53,103,196,334
322,224,-449,-28,-111,-72,-85,-27,60,202
236,119,-290,185,50,-15,-7,2,70,182
113,69,-210,35,90,43,53,42,68,133
-131,-380,-462,-282,183,234,328,332,244,97
43,-343,-540,-473,-10,141,324,394,334,249
109,48,-188,-391,-84,75,183,255,180,156
-156,149,150,-70,97,147,31,7,-146,-212
-353,-205,139,167,291,211,19,-33,-188,-334
-137,-535,-407,-31,195,161,86,105,39,-32
110,-417,-657,-111,80,111,127,116,143,193
108,-205,-381,206,178,142,109,55,111,158
-3,26,377,469,299,115,-9,-18,-79,-18
-71,44,510,277,126,41,-40,-6,-50,-40
139,901,660,-61,-268,-330,-332,-297,-357,-228
-43,1027,771,33,-62,-264,-320,-347,-475,-430
-290,659,574,203,138,-170,-290,-376,-560,-572
-327,-924,-311,-36,-35,-9,-54,-54,-165,-121
-429,-1405,-816,-579,-105,20,20,62,77,20
-314,-648,0,-226,151,7,-35,-1,55,-55
-317,-344,638,572,273,-21,-141,-117,-70,-127
95,0,431,555,18,68,63,143,224,198
305,100,-251,120,-306,108,288,378,387,368
186,131,-226,-69,-319,-18,432,323,236,215
241,397,567,-170,-235,-30,889,248,168,183
267,247,-358,-504,-183,109,191,64,112,136
-9,-68,-976,-499,-148,-182,-469,32,-96,-157
-162,-167,-864,-169,121,-67,-398,-73,-162,-246
-236,-261,-636,-1,179,-16,-228,-102,-41,-148
-130,-360,-478,-4,67,16,-22,-62,20,0
38,-107,-29,-4,-24,60,25,37,0,103
179,293,281,-156,-199,-19,2,164,121,183
281,366,-130,-406,-199,-36,24,229,260,263
254,158,-256,-302,-31,16,23,149,242,237
130,-81,-165,-115,-1,-10,-9,-3,84,112
-4,60,292,40,24,-107,-137,-128,-77,-52
108,224,512,14,34,-55,-97,-45,-9,64
156,442,711,161,65,7,-49,-95,-34,89
99,675,874,421,147,16,-81,-277,-230,-105
-71,632,866,560,146,-97,-244,-439,-446,-366
-366,-67,288,520,150,-74,-233,-365,-448,-484
-369,-593,-419,-4,-66,-131,-111,-158,-256,-328
-167,-597,-748,-474,-307,-208,28,99,14,-60
20,-445,-845,-465,-152,-88,307,363,263,165
188,-140,-635,-293,-21,-94,505,447,398,339
175,12,-157,-37,32,93,577,405,357,318
22,-79,105,235,231,304,483,362,238,164
-146,292,722,713,509,237,-348,-350,-280,-251
-44,546,952,593,326,134,-402,-508,-312,-215
134,568,598,82,-15,4,-220,-264,-117,-11
209,412,-92,-377,-357,-102,-73,6,84,131
49,261,-301,-392,-536,-192,-69,32,8,12
-137,276,97,-82,-246,-180,22,231,-169,-188
-113,-158,576,477,185,-12,255,378,65,-13
142,-130,225,-117,-57,-1,190,217,289,290
149,-232,-338,-392,-160,39,232,50,339,338
25,-527,-876,-379,-46,162,170,-77,267,244
-38,-487,-597,-192,8,138,-14,-132,112,114
-229,-190,-109,186,233,2,-23,-165,-151,-191
-210,-203,56,445,394,94,33,-130,-151,-167
-93,-137,281,611,333,96,49,-94,-107,-94
3,102,452,235,-5,-20,-3,-126,-102,-81
-277,650,1519,478,-259,-337,-300,-446,-402,-454
-143,797,1449,541,-203,-281,-268,-380,-363,-372
-20,409,410,280,22,25,26,-84,-113,-162
31,-344,-1224,-634,-25,185,269,200,163,79
221,-622,-1717,-1196,-218,169,346,361,368,373
157,-248,-609,-246,-27,48,69,10,29,116
182,-139,-491,-71,196,108,87,34,37,109
101,-30,-373,5,301,139,107,36,21,56
62,83,-204,-16,298,125,108,55,53,43
27,-18,-44,-74,312,163,170,134,169,77
-49,-242,-220,-194,313,181,212,142,178,50
-165,-395,-591,-417,182,66,134,53,20,-69
-176,-8,402,324,-87,-208,-239,-287,-347,-283
-8,251,756,646,-617,-367,-265,-226,-242,-148
93,558,1128,591,-631,-297,-154,-122,-115,-58
299,911,1350,31,-247,4,88,72,111,135
290,420,490,-214,-178,48,156,220,223,231
-89,-554,-922,-473,-494,-377,-122,89,-108,-63
-101,-301,-456,-247,-431,-365,-180,58,-94,-89
-21,70,140,-45,-207,-192,-96,18,-25,-36
190,348,385,117,177,78,85,-42,81,139
243,229,39,111,366,134,173,-1,144,192
132,-8,-235,29,342,101,246,104,140,138
-63,-185,-293,-75,201,20,234,113,62,17
-203,-364,-172,-180,96,33,174,57,9,-45
-350,-406,117,-45,135,273,124,-15,-73,-122
-393,-372,179,221,241,382,317,-18,-98,-159
-270,-420,-130,278,363,430,657,111,-8,-63
42,-259,-394,37,215,275,558,112,30,109
185,111,-159,-126,52,13,0,-127,-96,73
1,348,446,234,13,-239,-492,-383,-334,-196
-128,389,902,650,39,-429,-603,-459,-364,-311
-45,303,980,476,-9,-366,-482,-231,-94,-115
78,234,580,6,-255,-319,-293,4,112,91
106,268,-320,-300,-334,-182,-45,113,161,132
68,310,-698,-148,204,385,100,57,21,8
352,260,-608,-129,23,52,-97,80,180,298
363,90,-353,-235,-209,-106,-109,74,223,354
31,-324,-224,-140,-39,81,118,204,189,171
-93,-641,-436,-68,45,135,256,395,221,158
67,-318,-527,-104,-141,-42,180,431,222,216
9,-108,-327,-80,-107,-66,312,430,107,60
-261,-342,-194,-50,210,84,516,315,-30,-154
-207,-518,-485,-336,278,31,396,28,33,-23
-137,-411,-556,-497,213,-118,127,-266,24,51
-223,-152,-108,-302,112,-73,-35,-414,-216,-161
-183,141,492,133,4,44,-326,-434,-354,-278
-70,124,583,388,-54,103,-536,-300,-239,-181
155,198,369,282,88,145,-231,-43,13,112
44,148,518,184,64,120,-6,117,33,32
-147,-191,141,-132,102,194,263,350,185,46
-7,-138,-269,-460,81,166,242,383,344,246
56,-3,-227,-221,69,20,-73,123,176,173
-103,-189,-179,76,113,-78,-262,-163,-107,-69
-211,-156,129,261,65,-147,-347,-455,-307,-261
-46,326,841,355,67,-54,-262,-348,-243,-163
262,544,542,46,106,143,37,26,96,160
518,522,76,-308,-96,195,205,252,330,410
449,377,-191,-449,-246,87,130,210,272,351
53,176,-318,-296,-58,13,1,14,19,-4
-161,-110,-418,-75,270,35,-55,-79,-86,-170
-192,-311,-368,108,377,28,-102,-124,-91,-162
-256,-288,-90,575,365,-52,-260,-334,-298,-281
-188,267,578,713,121,-235,-445,-555,-560,-442
-12,863,1160,429,-318,-361,-424,-465,-497,-367
147,758,886,144,-574,-387,-305,-170,-159,-68
312,325,-198,-167,-536,-294,-212,52,108,219
191,283,-271,-235,-584,-390,-314,-65,-38,55
-18,303,317,-97,-647,-472,-321,-95,-91,-106
-35,-137,-327,-510,-220,264,408,200,24,-26
99,-159,-738,-401,3,418,576,381,112,74
-31,-514,-952,-131,302,478,667,758,274,117
-87,-677,-966,-166,264,364,768,1198,418,229
-60,-580,-602,-355,1,160,684,1135,481,344
-115,-326,179,-319,-157,-33,253,559,319,200
-115,-236,300,-213,-132,-64,-144,-121,141,81
-49,-126,140,-92,3,21,-211,-540,-16,1
245,295,167,-45,72,-37,-396,-407,-20,122
102,292,452,312,189,35,-275,-330,-72,3
4,310,367,351,117,29,-144,-332,-107,-113
26,355,129,314,51,89,105,-240,-94,-134
-87,245,218,435,197,280,503,-117,-149,-271
0,-56,-133,175,196,300,576,-46,-64,-146
171,-552,-920,-235,78,218,446,65,212,255
89,-638,-955,-273,39,131,69,44,238,303
19,-264,-287,-36,-1,-78,-327,-95,16,72
106,238,501,242,0,-215,-533,-175,-82,5
-14,427,956,618,168,-147,-568,-306,-201,-147
-166,288,1077,925,389,16,-380,-337,-290,-259
-10,462,1239,992,373,31,-294,-341,-291,-199
46,536,256,-115,-248,-168,-185,-376,-348,-267
41,-106,-1125,-897,-386,-124,159,35,30,-4
-138,-278,-193,-74,-47,-61,152,259,107,8
-311,-631,-114,-179,-71,159,294,628,288,50
-111,-670,-355,-397,-115,52,250,780,486,272
26,-596,-504,-408,24,57,157,610,385,266
-45,-275,-52,-218,54,23,-68,167,99,41
-75,50,501,44,0,-52,-309,-303,-127,-112
-77,154,625,188,81,44,-243,-477,-263,-202
-86,-2,68,90,108,104,-34,-337,-251,-207
55,41,-289,-60,33,86,33,-167,-39,-30
83,137,-30,116,-101,-15,-75,-130,7,7
48,82,211,206,-122,-127,-224,-207,-165,-84
-12,173,163,265,261,-124,-231,-379,-433,-287
57,283,-152,222,471,-22,36,-360,-457,-299
0,239,52,113,368,-55,405,-241,-328,-251
-18,539,908,213,16,-140,905,-25,-181,-178
-42,814,1165,155,-355,-261,882,87,-122,-189
-344,383,804,251,-100,-110,411,-63,-280,-449
-332,-229,82,-141,74,160,85,-177,-316,-374
-139,-420,-529,-535,-79,83,-507,-316,-265,-195
111,106,-189,-240,-171,-56,-589,-162,-81,-15
84,320,-65,257,10,179,-458,38,84,23
45,-398,-795,-248,-104,-79,-487,255,385,244
84,-751,-857,-223,36,-70,-261,293,372,312
-48,-745,-601,37,85,-43,-175,167,235,173
-89,-414,-270,320,-40,-81,-270,-85,107,44
121,138,395,436,-241,-31,-229,-128,154,152
488,477,420,-22,-433,124,44,167,469,504
518,285,-418,-590,-384,147,146,283,490,515
461,449,-669,-508,-188,56,-41,87,207,275
138,545,217,139,132,-7,-274,-113,-66,-61
235,-290,-431,-224,90,110,53,405,384,361
133,-244,-253,-173,-103,-5,93,364,267,267
22,136,468,228,-41,-38,-111,57,1,16
72,106,572,267,-89,82,-9,-14,55,60
101,-44,373,268,63,257,180,-39,116,101
-302,-705,-776,-217,184,265,122,-32,38,-110
-313,-673,-548,-230,185,135,101,24,79,-48
-152,-226,-88,17,238,31,53,-17,14,-42
-98,-43,191,179,217,-6,-19,-49,-83,-104
37,-82,-135,-100,-43,-31,10,112,36,34
299,214,-448,-362,-386,-123,19,193,167,216
334,491,-443,-225,-397,-203,-107,53,72,145
126,490,-236,96,-122,-172,-178,-105,-40,-59
-82,137,19,108,42,-42,-83,-168,-77,-145
-186,-191,320,-60,85,61,-10,-180,-120,-118
-165,-282,317,-162,71,99,61,-71,-49,-39
-162,-187,122,-149,-70,-65,-59,-113,-107,-104
-177,-9,155,66,-118,-95,-37,-81,-120,-167
-354,-63,572,587,35,-48,-42,-151,-258,-343
-325,350,1239,270,-10,-331,-161,-439,-645,-607
-92,428,256,-2,178,-73,232,252,-417,-408
181,227,-108,42,16,-101,-31,243,-146,-65
482,232,-81,-16,-249,-270,-206,343,271,391
330,-178,-458,-114,-216,-186,-94,361,441,482
-16,-618,-1063,-230,-159,-148,-62,194,273,243
-219,-579,-905,-165,-124,-295,-116,52,44,-42
-181,-339,-259,-51,-35,-241,-55,-163,-63,-127
-111,-263,273,64,144,161,9,-256,-38,-70
-25,-298,213,-186,169,505,72,-53,139,86
-84,-218,-16,-465,70,481,140,160,155,46
-19,-185,-147,-361,-81,301,213,162,139,74
58,-179,-614,35,-158,42,84,-56,149,134
202,184,-383,102,-26,42,84,-103,158,189
405,633,92,137,100,50,46,-77,99,218
326,686,764,394,213,49,-86,-108,-42,72
30,269,915,579,319,123,-16,-58,-78,-70
-8,-52,492,268,78,-12,33,13,27,38
80,-69,112,-46,-22,-150,-55,-35,54,114
-174,-358,-201,-135,169,-174,-157,-146,-105,-132
-456,-397,-70,98,484,318,-46,-284,-349,-429
-348,-241,144,181,624,400,11,-155,-228,-310
-22,42,-123,-197,296,175,39,6,8,-25
143,245,-425,-549,-141,-90,-37,11,74,86
65,229,-140,-300,-440,-226,-54,-20,14,26
75,268,137,55,-683,-233,120,109,75,46
125,477,514,205,-489,-146,207,201,87,39
59,452,900,250,-147,44,213,254,128,21
45,114,371,-66,-128,83,143,304,229,138
69,-15,-218,-313,-162,-75,-81,76,118,124
-160,-83,-10,107,139,-33,-76,-201,-143,-149
-113,-22,364,543,329,92,4,-203,-194,-164
162,77,355,454,254,234,104,3,0,95
147,-120,-165,88,93,116,78,130,126,193
-22,-324,-768,-281,-155,-113,-69,-7,0,67
-222,-188,-714,-428,-217,-210,-163,-135,-179,-161
-157,251,-137,-345,-91,-235,-185,-130,-295,-239
-41,424,272,114,117,-204,-195,-98,-303,-235
117,487,293,540,164,-194,-244,-129,-282,-206
196,539,30,475,-2,-158,-214,-123,-217,-150
161,219,-653,-10,-80,-44,-81,-88,-25,12
195,-60,-1016,-388,-1,0,-69,-91,140,239
-40,-217,-653,-390,100,79,-28,-42,78,124
-382,-601,-268,-216,135,97,145,101,38,-65
-338,-813,-10,-59,-88,2,359,268,124,25
-123,-627,313,79,-317,-78,474,345,177,149
89,-137,-76,-113,-383,106,292,62,108,152
73,-194,-454,-344,-268,106,-63,-14,57,106
-218,-162,566,854,151,-170,-524,-297,-247,-200
-151,208,1138,1062,176,-136,-329,-202,-189,-159
-134,354,1250,608,92,-88,-213,-62,-87,-99
23,214,530,-247,-44,37,29,289,195,168
187,134,-141,-701,-170,68,160,385,274,272
167,245,-63,-442,-135,5,67,198,164,155
49,247,258,21,39,6,40,55,30,19
-65,121,302,311,222,107,35,-72,-120,-82
-141,79,-44,333,257,101,-196,-303,-271,-216
-195,431,118,17,-76,-196,-464,-483,-453,-394
-157,724,529,-43,-58,-265,-356,-323,-438,-396
-467,290,776,386,394,-107,-135,-113,-470,-567
-601,-422,434,592,692,22,-49,13,-377,-574
148,-550,-768,-410,304,97,237,538,271,276
376,-460,-1061,-776,-164,213,677,791,557,617
109,-420,-621,-241,-232,278,774,440,332,329
108,-237,-361,78,-71,338,662,233,258,243
261,-103,-436,-137,-67,261,394,224,399,360
259,-280,-921,-545,-231,47,-41,91,384,358
255,-93,-882,-558,-166,26,-114,44,310,299
44,477,789,475,62,-194,-424,-349,-225,-127
-91,475,1131,612,41,-189,-440,-425,-299,-228
-155,217,759,414,0,-101,-287,-275,-212,-212
-88,-141,-10,120,142,57,24,1,19,-31
253,-209,-810,-330,-45,-161,65,95,173,193
133,17,-551,-154,-182,-343,-172,-143,-91,-44
-73,253,-177,-86,-221,-189,-216,-219,-266,-285
-121,228,284,0,-222,45,-205,-100,-152,-225
-61,-69,215,-22,-64,41,-171,65,97,19
-41,-472,-403,-211,213,108,-12,169,229,173
-47,-604,-740,-371,300,170,124,223,260,167
-36,-372,-486,-98,285,201,145,60,159,59
-77,-114,-196,232,35,62,14,-116,-33,-81
-93,-12,76,341,-204,-54,-57,-91,-73,-111
-79,204,1009,423,-2,-138,-103,-152,-230,-187
-227,169,1295,764,170,-198,-200,-278,-393,-350
-405,-127,1120,1029,155,-343,-365,-463,-452,-449
-171,182,842,737,-62,-306,-254,-416,-322,-295
102,500,258,-125,-309,-129,-120,-392,-280,-145
154,137,-372,-595,-213,13,92,-155,-12,44
102,-224,-724,-671,42,254,401,262,287,224
194,-197,-868,-1084,-154,166,436,571,490,426
184,-124,-597,-1004,-279,30,218,545,413,387
-80,-316,-554,-642,-137,52,71,331,100,65
-244,-524,-737,-282,125,136,218,583,2,-96
-162,-497,-883,-131,268,223,372,743,113,-36
624,780,-783,-323,-348,-190,-119,-31,375,462
602,1315,163,102,-251,-208,-304,-450,31,244
367,1260,1002,487,53,-62,-393,-626,-189,31
-2,523,1086,663,171,-34,-385,-484,-188,-92
-127,-247,688,541,147,-6,-112,-111,24,40
-26,-652,188,254,72,92,164,184,275,237
-3,-564,-152,-162,-151,11,184,179,255,199
-77,-392,-183,-326,-138,162,198,66,109,43
-70,-246,-292,-251,51,315,199,4,36,-5
99,80,-324,-172,150,188,95,-11,51,73
112,298,-48,171,357,159,-4,-69,-63,-18
-24,191,-6,352,478,199,73,39,-96,-118
-22,178,95,191,270,122,97,183,62,-29
-9,94,314,26,96,2,-113,84,64,1
-120,-69,201,-159,41,-63,-174,-111,-75,-131
-91,-18,-212,-378,-76,-62,-99,-201,-88,-118
-136,-144,-479,-173,36,72,36,-101,-33,-108
-121,-209,-444,75,149,113,113,27,19,-85
66,-155,-360,127,93,71,81,125,108,75
-8,-389,-4,185,21,-30,18,210,143,126
-77,-338,233,220,113,-28,6,199,68,48
-151,-265,168,14,42,-18,144,214,8,-42
-180,-270,24,-121,-59,5,409,258,-53,-102
-168,-369,-275,-57,-10,90,546,196,-58,-97
-208,-322,-225,270,57,64,347,-72,-187,-210
-129,-2,308,565,147,34,-65,-339,-265,-230
180,337,328,383,320,147,-180,-213,26,64
380,418,262,38,373,102,-211,-91,224,283
337,190,-305,-294,193,-34,-257,-78,148,244
107,-101,-594,-349,-179,-273,-327,-111,-31,27
-78,90,15,-53,-539,-565,-484,-263,-267,-230
-74,661,721,233,-719,-760,-537,-378,-383,-336
-176,526,565,381,-482,-620,-318,-449,-437,-424
-305,-148,195,-215,-331,-83,342,-399,-471,-460
-349,-42,470,-183,-239,134,12,-523,-543,-494
-266,-115,273,114,-78,74,-258,-123,-210,-238
-1,-361,-584,81,159,182,78,500,356,228
204,-565,-1254,-444,313,361,219,678,681,542
183,-230,-500,-310,632,467,226,354,411,366
113,88,179,263,432,348,100,172,240,162
148,455,604,435,71,95,-45,69,147,82
161,440,672,91,-333,-36,-61,68,126,104
228,137,165,-138,-369,-19,14,138,221,241
297,-23,-382,-232,-175,26,110,225,278,353
217,180,-275,-181,-254,-239,2,113,113,151
-135,54,149,141,-120,-250,-85,-49,-148,-185
-270,18,517,262,-110,-252,-133,-148,-278,-320
-68,270,674,51,-179,-164,-285,-263,-278,-215
244,659,576,-118,-208,-224,-450,-229,-142,-11
349,121,-622,-390,-112,-154,9,275,148,226
320,26,-457,-264,-66,214,258,290,267,339
111,64,364,171,77,219,185,159,158,182
-149,158,851,418,125,10,-73,-130,-126,-155
-93,390,676,235,44,-48,-116,-290,-202,-193
-69,76,59,-63,69,185,204,-1,40,-5
-181,-251,-326,-221,223,408,365,180,128,-7
-80,-212,-327,-245,208,308,210,109,100,8
-94,-440,-549,-143,97,173,-124,-71,-33,-52
-197,-348,-317,-70,134,72,-212,-146,-116,-141
-115,-294,-378,-139,43,-10,-107,-80,-10,-18
-171,-380,-437,-192,-56,-71,-101,-107,-79,-60
-208,-200,228,-20,-42,-90,-161,-204,-232,-207
-12,200,929,281,-74,-98,-154,-208,-197,-134
11,319,918,506,-60,-196,-249,-266,-219,-153
-48,249,488,538,82,-195,-135,-96,-196,-169
-239,-275,-571,47,76,-169,36,148,-144,-193
-286,-725,-1000,-198,0,-138,7,238,8,-116
35,-462,-750,-256,-171,-48,17,345,316,198
262,-103,-807,-476,-264,10,119,371,429,374
214,201,-317,-244,-106,85,174,132,231,243
122,223,-61,-92,75,239,228,73,122,168
115,-9,-168,-93,42,188,185,119,156,187
49,-68,-151,157,27,20,2,9,59,81
18,183,297,457,16,-74,-167,-126,-76,-34
127,516,789,531,-71,-124,-215,-174,-156,-36
99,517,854,472,2,-72,-176,-158,-259,-112
53,296,544,260,175,34,-82,-51,-262,-147
4,-2,122,29,184,35,-63,32,-132,-88
-138,-146,-302,-125,200,61,-80,38,-27,-84
-155,-433,-791,-448,152,157,77,112,127,33
-15,-544,-882,-493,41,173,234,145,262,229
20,-186,-367,-293,-60,65,148,56,142,122
-71,48,43,-49,-87,-42,50,10,-49,-74
-231,-214,-48,62,-84,-123,-98,-110,-240,-249
-273,-364,-115,69,-102,-160,-210,-187,-280,-274
-67,-4,339,130,-76,-102,-210,-234,-188,-127
-82,328,1159,422,74,8,-207,-382,-293,-211
107,447,1003,208,104,155,55,-126,-73,-26
549,532,-97,-542,-187,150,379,418,482,509
413,187,-621,-768,-345,94,491,642,578,510
204,-179,-578,-534,-286,48,397,600,473,379
135,-41,7,-42,-109,-62,-59,-3,141,176
164,142,132,-107,-32,26,-68,-182,103,181
205,240,153,61,123,69,-51,-208,39,146
120,172,32,169,184,18,-83,-193,-87,-22
14,110,-169,56,87,-62,-123,-161,-102,-120
-104,-129,-393,56,15,-100,-125,-56,-92,-151
-190,-344,-433,87,-34,-162,-64,221,-126,-168
21,-228,-469,-228,-77,-89,197,587,30,32
100,-162,-392,-227,-34,-56,208,400,21,71
-27,-217,-82,152,33,-155,-137,-181,-138,-79
-228,260,967,723,240,50,-39,-793,-382,-351
-138,177,766,509,271,267,307,-409,-138,-128
15,-297,-221,-166,82,324,647,116,181,171
110,-433,-638,-609,-42,239,470,288,345,298
-12,-379,-740,-497,38,86,-3,165,199,140
-124,-270,-640,-150,103,1,-225,57,24,-21
-164,-86,-68,52,154,5,-337,-57,-54,-99
-92,22,339,244,298,35,-249,-70,-23,-49
104,318,472,266,201,-43,-182,-114,-28,29
141,801,696,0,56,-208,-333,-281,-196,-93
49,1038,790,-145,-24,-253,-412,-387,-328,-221
-25,654,398,-99,-172,-186,-288,-263,-232,-159
-135,-17,-39,126,-126,3,-1,-9,-5,-73
-132,-630,-334,180,-37,130,171,171,180,58
52,-814,-375,180,-49,76,118,184,225,195
91,-488,-104,277,-53,0,-2,92,124,126
221,-42,169,116,-127,42,11,102,176,170
283,50,71,-14,-31,133,70,128,230,241
264,45,-265,64,85,102,55,58,105,180
90,44,-452,40,5,-41,-37,-50,-65,-5
-19,228,106,61,4,-97,-68,-43,-154,-122
0,520,786,162,63,-151,-190,-188,-310,-217
-286,313,870,30,-14,-274,-397,-375,-498,-452
-589,-153,669,-101,-43,-296,-480,-449,-532,-600
-586,-376,572,-30,54,-176,-371,-461,-410,-509
-212,-579,-563,150,219,150,145,13,74,-37
-156,-632,-758,227,46,32,124,107,105,-6
-75,-348,-420,146,-206,-152,-14,37,55,-13
50,22,-296,-253,-355,-96,112,78,99,59
84,61,-528,-408,-217,321,518,237,187,98
214,161,-680,-549,-130,393,663,324,277,214
337,193,-626,-622,-88,263,504,285,320,319
169,5,-440,-194,63,111,47,47,148,167
-27,-128,-238,112,71,-88,-204,-32,5,-28
-74,162,411,430,0,-370,-384,-157,-192,-180
45,587,898,475,-204,-622,-488,-365,-350,-238
198,769,1101,392,-306,-633,-308,-317,-313,-175
