72,-33,35,-34,-59,-62,-82,-76,-75,14
105,-56,13,-24,-50,-41,-48,-34,-44,44
94,-71,10,-17,-33,-22,-13,-13,-18,0
79,114,41,6,-15,-14,-10,-15,-10,-14
66,-21,28,36,0,-21,-34,-45,-33,-27
13,-441,-58,13,7,-6,-32,-43,-44,-49
7,-322,-58,0,2,11,0,-3,-14,-20
43,279,67,33,3,13,21,14,16,50
-21,286,83,12,-21,-26,-21,-10,1,69
-151,-203,-62,-37,-28,-29,-18,-23,-2,21
-174,-80,-59,-26,-12,-9,-6,-13,-13,-56
-72,152,52,0,0,-21,-25,-14,-43,-65
20,477,84,19,17,2,-15,16,0,-20
41,242,-34,2,5,17,19,19,45,-1
84,81,-65,0,17,38,63,46,82,38
69,-63,-34,26,27,38,59,53,73,53
3,-309,-25,2,-2,-10,6,0,22,-11
-15,-259,-16,-14,-24,-23,-12,-12,-6,-59
0,147,-5,-28,0,0,2,13,1,-65
40,428,31,-17,9,18,22,28,3,-78
49,164,29,-14,-1,8,31,6,-7,-118
42,-91,21,2,-3,8,28,6,5,-81
35,-8,107,43,4,-15,-20,-28,-10,-56
4,-47,131,56,-8,-38,-52,-50,-29,18
34,-126,74,48,-10,-61,-79,-74,-15,180
32,47,50,20,-24,-65,-94,-111,-26,186
36,122,21,-18,-57,-83,-108,-128,-3,197
187,-56,-35,-43,-76,-90,-123,-115,14,206
194,-188,-62,-36,-51,-58,-60,-70,-28,10
54,-380,-113,-52,-14,12,12,19,-6,-82
-49,-579,-126,-60,-12,0,28,32,7,-64
-146,-823,-172,-89,-43,-34,-28,-27,-22,-64
-237,-570,-298,-129,-28,1,15,-2,7,-54
-310,445,-164,-28,51,102,133,100,76,-67
-207,1961,320,195,167,193,210,172,129,-22
-20,1823,498,293,219,217,223,194,179,125
-29,-521,136,102,83,73,100,64,108,129
0,-1340,-110,-8,-10,-8,8,-11,26,4
1,-967,-144,-22,-25,-13,-13,-21,-21,-69
-9,-636,-128,-59,-54,-29,-31,-34,-47,-68
-55,-540,-138,-112,-73,-47,-43,-42,-69,-72
-73,109,-81,-110,-69,-28,-13,-16,-56,-41
2,1095,87,-36,-40,-21,-23,-5,-39,-7
90,1410,158,26,0,-8,9,21,-10,-25
153,1094,133,59,48,43,62,68,61,24
153,73,3,44,57,40,63,66,101,56
121,-480,-61,11,8,-13,5,8,59,97
110,-493,-60,-15,-33,-65,-50,-37,5,144
44,-392,-45,-17,-37,-47,-48,-41,-39,50
-92,-250,-4,-5,-9,-34,-45,-70,-89,-180
-150,-131,16,4,12,-13,-34,-45,-95,-242
-53,51,30,8,19,-14,-32,-22,-91,-121
39,200,57,3,0,-44,-45,-24,-79,-53
56,108,28,-18,-39,-57,-52,-17,-48,-18
37,-61,-41,-37,-41,-29,-33,13,-8,20
14,-164,-70,-22,-9,13,1,38,12,34
24,-176,-58,-6,17,25,6,34,10,60
28,-68,-16,-5,17,15,-9,12,-5,42
-47,10,0,15,3,19,10,3,-33,-22
-60,-4,-2,30,5,32,12,23,-47,-25
14,-25,29,38,10,17,-1,21,-38,-8
40,-68,38,15,2,5,-12,8,-23,10
0,-115,8,-21,-11,-20,-27,-9,-19,76
-5,-168,-18,-45,-48,-43,-58,-51,-36,61
12,-141,-22,-55,-55,-51,-76,-67,-51,-13
10,16,-5,-7,-23,-34,-49,-55,-42,0
24,218,19,37,15,5,-6,2,32,92
25,168,-32,9,23,23,31,49,55,83
-31,1,-58,-19,14,19,41,48,8,-3
-85,-172,-14,-38,-23,-36,-20,-12,-47,-20
-117,-388,-6,-24,-19,-23,-22,-37,-61,-45
-87,-82,63,54,51,46,27,1,-56,-92
-14,417,78,48,56,45,29,27,-33,-39
12,320,-63,-52,-3,1,12,25,-4,-17
40,155,-72,-31,3,20,24,34,18,2
47,167,30,48,61,62,55,65,49,66
34,8,53,31,29,16,24,6,11,81
20,-212,4,0,-21,-40,-37,-44,-49,13
7,-248,-28,1,-34,-45,-39,-39,-43,-55
-7,-265,-34,-1,-32,-27,-22,-8,-10,-34
-10,-149,4,17,-2,2,9,14,12,3
14,144,57,25,1,4,0,9,11,24
0,97,54,2,-13,-7,-15,-18,-19,-49
-36,-113,4,-26,-32,-22,-22,-33,-38,-111
-22,-38,-54,-52,-49,-20,-30,-31,-37,-91
13,217,-38,-27,-10,17,-2,0,1,-11
36,327,33,48,43,42,19,22,15,38
41,125,22,31,38,16,20,22,21,47
19,-124,-22,-20,16,-2,-3,19,16,49
-10,-125,-20,-20,-12,-8,-18,3,2,24
-21,-37,0,-14,-19,-14,-34,-18,-12,14
-16,0,10,-9,-12,-2,-24,-9,0,30
-3,10,26,-5,-4,-3,-13,8,5,-11
-3,-29,16,14,1,15,7,5,-12,-57
20,-113,2,21,33,28,16,17,-15,-45
46,-143,10,31,33,26,18,5,-24,-25
35,-156,4,15,-6,14,8,-14,-34,-11
-10,-220,-46,-36,-57,3,12,10,16,-16
-60,-249,-84,-46,-20,21,34,31,67,-6
-3,196,-17,-38,-7,18,16,-5,73,99
91,921,131,-29,-47,-27,-30,-60,-3,135
64,872,202,-9,-51,-65,-71,-70,-64,-17
18,356,183,6,-45,-77,-83,-66,-50,-107
-26,-229,90,9,-49,-86,-68,-58,-41,-87
-30,-467,-46,-16,-53,-73,-52,-24,-35,-29
33,-498,-164,-24,-19,-28,-17,22,11,79
2,-516,-264,-24,56,63,80,109,129,200
-141,-282,-225,26,120,150,154,174,163,92
-81,-53,-107,55,126,165,157,155,80,-122
80,255,22,32,60,72,74,66,-15,-209
72,259,93,22,12,3,14,10,-20,-160
-22,-29,74,20,1,-3,4,-37,-28,-82
-37,10,58,31,8,-6,-23,-69,-25,33
-62,-13,12,2,-10,-28,-56,-92,10,236
-23,-134,-56,-90,-100,-115,-137,-155,30,508
-18,-89,-12,-69,-78,-104,-125,-139,-26,309
-97,39,54,17,14,-5,-10,-20,-33,-33
-51,131,68,54,51,51,59,67,-2,-237
147,102,18,6,16,17,29,44,7,-177
190,-5,-18,-18,-10,-10,-11,9,21,-61
70,-76,2,13,7,0,-7,0,32,-27
-38,-92,0,28,30,19,24,16,42,52
-85,-113,-7,12,13,-5,7,0,35,180
-160,-191,-15,-21,-31,-41,-31,-24,-3,92
-319,-249,-63,-55,-40,-44,-15,-14,-34,-127
-179,124,-16,-35,-21,-4,9,8,-21,-180
164,674,104,29,22,39,47,22,9,-90
209,397,50,37,45,56,81,48,43,-20
140,141,8,35,59,70,91,52,67,9
89,58,64,47,45,37,46,31,47,-3
15,-114,70,33,6,7,-2,2,4,-42
2,-264,21,-3,-7,-9,-16,-19,-10,-40
66,-247,-23,-29,-26,-37,-45,-27,-10,12
92,3,-6,-13,-30,-48,-52,-36,-3,11
88,196,3,-29,-45,-56,-48,-26,-1,-15
15,-58,-58,-46,-39,-40,-32,-15,-1,-36
-109,-252,-66,-6,24,41,41,40,23,-42
-102,89,22,57,92,97,92,79,35,-19
-32,470,91,48,68,59,74,35,21,-7
-28,150,26,-3,3,-5,14,-4,-2,-14
-65,-238,-69,-14,-2,-6,9,10,2,-19
-46,-254,-71,-3,7,21,24,11,11,-14
24,-52,-31,-8,20,17,9,0,24,30
50,165,43,20,30,13,12,12,36,40
64,126,78,53,26,4,33,10,33,31
62,-149,43,67,17,-4,22,-4,10,11
15,-243,9,20,-36,-36,-36,-41,-27,-42
-25,-201,-19,-29,-85,-68,-90,-86,-67,-107
-82,-260,-93,-63,-94,-65,-66,-82,-73,-115
-72,-20,-141,-50,-32,10,15,-1,0,-40
44,710,-3,22,40,78,79,73,75,64
74,750,125,53,39,52,44,36,31,66
59,140,74,14,4,1,14,11,31,119
94,-220,-10,-41,-57,-41,-2,11,46,137
77,-222,-72,-55,-54,-21,11,28,52,56
31,-74,-29,-21,-6,10,9,10,30,7
-45,-125,37,28,26,12,-8,-19,2,-15
-51,-293,51,59,31,0,-8,-27,-1,27
27,-247,16,34,17,-19,-19,-38,12,66
7,-106,6,41,24,-5,2,-14,25,11
13,22,-7,42,35,16,34,17,30,-15
-24,94,9,30,44,32,41,27,42,21
-159,32,10,9,41,35,20,9,30,-25
-270,138,-4,-29,7,10,-7,-5,-15,-132
-242,54,-41,-36,-1,-5,-15,1,-28,-164
-61,64,-32,24,26,20,0,29,-12,-63
48,-3,-17,13,21,23,23,24,10,-20
48,-46,-11,-36,-23,6,-1,5,10,-45
98,-1,8,-63,-62,-13,-18,-19,6,-27
143,68,30,-65,-97,-46,-26,-34,7,59
158,111,60,-55,-113,-52,-26,-11,-13,70
126,72,57,-9,-55,-20,1,6,-18,51
87,-4,28,28,-6,-2,-4,0,3,83
43,-62,15,37,28,14,1,0,-7,89
38,-67,-1,21,29,3,-17,-18,-12,84
9,-108,-10,7,16,-5,-27,-29,-8,65
15,-136,-24,-3,2,-4,-13,-27,8,32
-58,-185,-47,-18,-21,-14,-4,-9,1,-49
-114,-107,-28,-6,0,-2,18,11,-8,-65
-49,69,-16,5,28,27,21,24,27,-10
-65,-65,-54,-20,24,26,11,19,26,-15
-71,136,6,0,44,33,30,29,23,6
-20,649,86,34,52,43,52,51,38,39
-13,296,19,3,11,9,24,28,16,-1
2,-140,-44,-29,-24,-12,-18,-7,-28,-69
14,-224,-40,-26,-35,-16,-41,-32,-67,-106
25,-185,8,22,-12,-8,-35,-29,-63,-54
39,-102,-6,32,17,10,7,10,-19,14
-47,-177,-33,30,57,35,41,47,2,-10
-97,-152,-15,28,48,30,20,31,-26,-78
-60,74,46,12,12,-17,-29,-36,-95,-106
-9,236,84,-5,-16,-47,-64,-89,-133,-93
93,373,90,2,-48,-70,-83,-82,-106,-44
161,392,85,28,-23,-45,-38,-30,-30,47
102,178,17,13,5,-30,-1,8,-1,70
95,-136,-67,-22,-10,-54,-22,10,1,127
58,-389,-101,-12,18,-24,-16,3,-10,18
-23,-556,-98,12,48,18,12,28,9,-15
-59,-517,-90,-11,26,6,0,15,9,15
-176,-432,-56,-10,14,1,-16,0,-19,47
-137,-134,-35,-13,4,-1,-11,0,6,192
-2,231,0,-4,14,10,-1,-6,25,202
-56,309,69,14,19,32,5,-21,-31,10
-77,349,88,0,-63,-14,-6,-24,-17,-6
-84,-83,19,-50,-122,-68,-63,-71,-64,-78
-48,-244,-85,-95,-100,-46,-70,-107,-144,-172
81,174,-113,-88,-48,33,21,-8,-61,-14
143,391,-102,-41,-20,56,106,114,62,84
71,-19,-90,-2,-7,27,101,140,98,65
21,-82,-28,-4,-10,12,84,135,122,52
-23,327,113,18,13,4,38,88,88,-23
33,304,178,72,37,-26,-52,-19,-20,-116
104,-92,105,64,20,-45,-105,-80,-85,-145
80,-313,-18,0,-19,-54,-101,-80,-68,-87
20,-315,-73,-24,-12,-22,-69,-49,-57,-35
-4,-41,-41,31,58,59,1,0,-52,38
6,206,-10,47,80,82,49,27,-12,112
-27,195,-8,-11,7,14,-7,-10,0,120
-7,257,40,-38,-53,-55,-78,-63,-23,41
-65,193,47,-26,-37,-58,-66,-62,-32,-39
-61,-76,-37,-27,-11,-19,-28,-17,-17,-42
10,-285,-101,-26,1,9,10,44,34,18
-62,-329,-33,16,52,50,63,75,40,-28
-203,-547,0,67,113,79,110,72,47,-108
-190,-502,26,89,119,80,114,71,57,-52
-12,7,49,31,42,23,36,20,20,36
111,346,89,-10,-15,-30,-29,-22,-28,46
129,337,68,-19,-33,-46,-43,-44,-57,27
61,238,25,-5,-23,-41,-33,-46,-67,-4
2,125,14,6,1,-8,-10,-19,-38,-25
17,27,-11,-15,-3,-5,-8,-16,-16,0
73,-24,-39,-27,-28,-36,-16,-28,-2,18
72,-42,-38,-7,-43,-30,-16,-21,7,16
38,-170,-21,27,-13,8,2,-3,14,-8
32,-349,-22,50,26,32,12,21,11,-11
47,-379,-32,34,19,24,24,29,23,6
26,-385,-19,14,3,4,3,6,16,-16
-68,-261,-38,-24,-3,10,4,0,2,-48
-129,157,-39,-56,-36,0,4,-8,-22,-93
-57,726,54,-41,-72,-41,-59,-53,-62,-81
48,959,129,-8,-37,-35,-47,-29,-40,-12
83,538,74,0,3,2,2,39,25,34
58,387,19,-6,13,18,31,68,77,95
-55,-23,-52,-1,9,30,28,29,72,79
-170,-459,-73,-3,8,10,24,-29,-19,-53
-132,-288,-11,29,30,28,73,-9,-54,-117
14,-21,32,34,36,35,79,28,-23,-61
143,195,48,5,21,11,5,46,23,42
138,68,25,-14,0,0,-40,21,38,57
31,-130,14,12,14,12,-22,17,27,-11
-42,-183,-34,9,4,18,21,41,49,41
-76,-183,-80,-39,-37,-16,-8,7,49,144
-100,-124,-59,-33,-33,-22,-31,-36,20,23
-93,-55,3,18,29,1,-15,-50,-20,-80
-5,3,32,15,13,-10,-40,-70,-42,32
130,-2,-11,-24,-39,-44,-69,-80,-18,244
113,5,-21,-37,-38,-51,-87,-104,-38,197
-51,31,4,-15,-3,-29,-54,-75,-107,-89
-26,106,37,-4,2,-7,-27,-27,-94,-184
118,218,93,-5,-26,-20,-23,-12,-25,-98
70,82,71,-8,-36,-13,4,20,32,-83
-38,-87,26,18,5,16,59,68,72,-81
-109,-58,13,46,35,58,104,114,112,-36
-92,-112,-90,-16,-16,47,107,131,136,63
-33,-278,-192,-88,-58,2,72,106,153,126
-47,-195,-133,-46,-25,-5,16,44,112,80
-18,-48,-12,17,14,-2,-13,-21,31,11
61,53,66,54,27,-20,-51,-88,-57,-33
73,33,47,35,24,-7,-39,-64,-72,-31
102,11,17,2,18,19,-12,-23,-55,2
96,-16,14,3,27,36,27,-6,-31,13
-11,-84,7,24,45,47,67,26,-16,-21
-69,-66,39,45,50,59,75,40,-10,-28
-67,224,114,65,29,29,25,18,-24,-36
-63,669,204,51,-31,-39,-45,-50,-67,-78
-71,474,146,6,-83,-92,-81,-84,-69,-72
-21,-20,15,-27,-57,-58,-62,-49,-28,-1
64,-192,-56,-34,-14,-16,-11,-18,-17,-23
118,-235,-120,-26,22,13,12,9,-5,-37
193,-302,-186,-4,70,57,50,63,41,-4
186,-312,-179,12,80,84,87,111,109,36
74,-124,-103,-7,21,52,65,86,106,42
-74,101,19,-33,-59,-44,-24,-2,56,47
-194,21,49,-34,-106,-126,-103,-65,22,86
-219,-27,34,-33,-68,-83,-71,-45,8,-11
-151,0,-15,-54,-48,-43,-49,-34,-2,-6
-151,187,24,-30,-23,-20,-35,-35,18,26
-109,267,66,3,-10,-8,-29,-33,8,33
86,67,26,-11,-24,-12,-17,-45,-57,-15
159,-61,9,-20,-12,1,15,-35,-73,-23
147,-170,-26,-4,25,15,36,2,-25,38
56,-247,-41,20,69,41,51,29,-13,2
-3,-104,27,74,107,66,65,38,-6,3
16,199,125,124,108,70,55,32,20,39
19,161,130,103,70,36,30,31,36,1
62,-94,3,6,33,29,45,63,65,-1
61,8,-27,-40,0,22,42,51,56,-58
-23,14,-20,-37,-25,-13,18,15,6,-157
-12,112,-17,-20,-38,-29,0,18,3,-181
-1,215,-10,8,-17,0,27,22,8,-92
12,159,-101,-1,0,24,49,34,70,78
73,57,-42,6,-1,-10,-2,-5,66,173
104,-1,34,38,10,-16,-40,-61,0,169
49,-115,-26,7,22,-6,-27,-57,-20,114
12,-130,-31,-25,-22,-43,-58,-88,-59,5
-100,-151,15,0,0,-34,-48,-67,-67,-94
-227,-160,42,37,45,4,10,-7,-25,-120
-275,-181,-10,11,21,1,18,6,-4,40
-129,-212,-99,-74,-63,-51,-38,-29,22,283
-76,-7,-92,-66,-46,-30,-20,2,48,154
-24,314,25,7,9,40,20,42,28,-77
131,324,93,2,-12,20,8,12,3,-92
182,216,103,-14,-41,-8,11,14,6,-35
153,-54,75,-14,-42,-19,-5,2,-31,-60
167,-66,54,-24,-65,-14,-15,-9,-54,-81
112,44,17,-16,-32,1,-10,-6,-53,-94
4,67,-36,-12,6,0,16,12,-28,-71
3,32,-88,-58,-26,-39,0,7,3,-23
-11,-119,-88,-50,-2,-9,-5,17,19,22
-40,-118,19,48,67,55,40,45,32,37
-81,-174,38,67,78,70,66,48,41,27
-158,-388,50,31,44,48,56,32,-7,-84
-113,-268,86,-13,-14,-25,-2,-1,-55,-119
-50,-21,19,-69,-79,-106,-62,-44,-66,-46
-25,190,25,-67,-96,-110,-124,-87,-79,77
38,586,44,-25,-53,-88,-147,-99,-52,261
-95,440,-10,38,25,6,-77,-52,-50,54
-199,-38,-99,63,91,93,22,59,8,-159
23,-110,-112,63,99,120,115,154,80,-125
153,-192,-155,7,53,82,114,122,80,11
173,-297,-175,-44,6,25,61,72,64,197
175,-58,-75,-77,-45,-34,-12,1,-1,139
139,205,66,-58,-81,-76,-99,-113,-114,50
57,144,115,-23,-66,-66,-134,-178,-204,-29
11,-46,120,36,-18,-34,-73,-113,-190,-103
-47,-301,71,57,31,4,-9,-15,-88,-81
-94,-341,3,35,59,34,49,45,7,-10
-127,-296,-29,23,68,81,96,88,57,58
-125,-385,-85,3,26,41,64,61,56,90
-96,-167,-54,15,4,6,43,54,62,26
-47,530,79,30,11,-3,42,74,76,-32
-20,508,105,-7,-47,-56,-20,19,25,-83
-18,27,3,-40,-72,-65,-50,-24,-21,-99
-15,-34,-32,-10,3,3,5,-14,-26,-102
26,90,-10,18,39,38,24,-18,-48,-92
79,61,20,17,12,0,-18,-33,-82,-70
103,92,41,0,-14,-1,9,-7,-78,-61
117,193,83,-2,-15,0,27,46,-4,-10
175,254,115,-32,-38,-28,-20,35,70,84
259,159,86,-53,-52,-49,-82,-44,46,162
129,17,38,-6,-24,-17,-99,-117,-32,82
-104,-186,-41,42,55,42,-78,-137,-110,-80
-201,-447,-184,5,27,8,-64,-72,-81,-44
-124,-530,-305,-56,-28,-6,24,45,67,157
-132,-266,-235,-21,29,76,122,142,137,183
-241,96,-40,26,74,91,119,121,104,2
-106,294,91,-5,-3,-24,-4,-5,63,48
179,147,86,-40,-80,-124,-109,-113,-8,202
148,21,74,-7,-53,-81,-82,-93,-86,26
71,117,112,66,40,19,20,3,-75,-156
139,133,88,68,52,49,82,62,2,-82
82,-69,-18,7,0,22,60,60,48,-20
-83,-185,-73,-40,-3,36,57,66,36,0
-163,-176,-41,-30,11,29,27,16,-5,-8
-132,60,65,-6,-25,-37,-41,-40,-50,-64
-56,295,96,-26,-84,-85,-66,-34,-42,-31
2,163,11,-81,-98,-98,-48,-10,9,65
19,-30,-69,-103,-86,-92,-47,-4,34,95
28,90,8,-52,-64,-97,-56,-6,-19,-71
-3,421,82,1,31,26,24,47,0,-178
-49,511,36,18,146,189,61,29,3,-265
19,120,39,69,180,181,3,-49,-79,-302
146,-293,80,157,139,66,-14,-40,-81,-176
196,-662,17,208,108,43,33,13,-18,-10
212,-553,-69,166,80,36,50,27,21,185
97,-298,-139,37,7,5,26,0,39,393
8,28,-153,-123,-108,-78,-52,-23,105,601
-88,263,5,-108,-121,-75,-53,-8,57,190
-280,-130,145,-2,-58,-12,21,34,-26,-299
-340,-270,122,18,-40,-12,35,16,-72,-328
-98,-36,26,-45,-43,-58,-51,-61,-134,-183
-21,69,-44,-74,-42,-72,-104,-78,-89,33
-19,228,-26,-43,-7,-21,-80,-41,-6,199
56,472,42,25,50,63,4,-13,32,250
-66,326,153,149,155,151,113,43,15,61
-93,-84,128,131,129,127,141,103,32,-109
128,-369,-86,-46,-30,-25,36,46,45,-112
165,-437,-263,-154,-110,-109,-69,-31,4,-69
117,-167,-241,-129,-79,-73,-93,-35,-4,15
75,323,-121,-53,-11,19,26,57,80,52
86,626,11,46,47,83,102,120,142,139
-55,193,65,45,37,42,52,39,67,62
-208,-190,90,25,13,17,8,-27,-33,-100
-169,-155,111,46,31,14,-2,-38,-60,-39
-42,56,116,26,-16,-48,-46,-63,-64,-24
57,140,96,-9,-61,-96,-66,-62,-65,-115
96,121,71,-18,-47,-69,-53,-44,-53,-123
138,134,23,-14,-47,-48,-44,-54,-44,-90
131,-42,-40,22,12,18,-1,-36,-21,-68
138,-112,-127,20,65,79,52,38,73,64
97,-96,-196,-61,9,42,47,54,136,249
44,-7,-67,-68,-60,-42,-26,-1,65,193
-19,53,93,-15,-75,-46,-31,-1,-6,18
-75,-54,102,17,-27,-3,18,19,1,-94
-79,-220,19,32,32,26,51,18,13,-160
-116,-288,-34,31,58,49,55,35,29,-144
-77,-310,-106,17,52,62,62,51,31,-95
-48,-332,-186,-7,52,75,68,47,45,-7
-44,-126,-140,-46,0,24,24,27,69,82
-121,366,91,-1,-12,-11,-32,-23,30,61
-138,729,374,64,0,-44,-109,-125,-96,-90
-21,836,461,36,-86,-156,-189,-186,-188,-209
105,554,282,-29,-138,-188,-185,-178,-185,-164
168,141,46,-36,-102,-131,-122,-92,-117,-61
99,-397,-235,-39,-24,-37,-21,14,22,98
47,-935,-529,-24,114,125,134,146,212,340
109,-977,-569,27,231,270,283,275,294,349
120,-479,-273,101,231,272,290,277,243,167
-18,-277,41,133,144,145,157,116,113,-36
-133,-152,174,75,17,-13,-5,-65,-39,-152
-55,118,137,-25,-88,-95,-102,-124,-73,-71
13,266,75,-74,-95,-87,-98,-98,-26,25
-67,387,109,-16,-20,-23,-24,-39,-13,-34
-127,277,85,4,4,18,28,20,-1,-114
-86,339,26,-4,8,31,38,49,5,-158
1,232,-14,0,9,22,44,40,1,-134
63,-60,5,13,0,0,18,-15,-29,-54
100,-88,-2,-20,-25,-36,-11,-30,-15,81
95,-216,-73,-58,-50,-47,-31,-12,49,206
109,-28,-25,-64,-83,-88,-54,-53,62,369
42,438,80,-41,-114,-105,-92,-78,-5,283
-153,414,92,-6,-86,-79,-69,-45,-68,-109
-110,99,67,28,-6,-2,3,-5,-52,-222
23,-32,68,47,52,61,38,16,-37,-176
89,-20,34,10,34,51,35,13,-28,-105
61,-77,-21,0,27,41,18,3,6,-55
18,-100,-29,5,30,28,0,9,32,2
-63,-166,-82,-27,8,21,18,45,74,80
-133,-189,-106,-70,-47,-29,23,59,122,61
-75,-26,-26,-89,-102,-102,-44,-14,70,-7
3,31,26,-71,-86,-88,-72,-47,14,-21
89,-21,5,-43,-27,-31,-48,-26,-11,-31
-2,-39,61,71,80,71,19,0,-30,-81
-50,250,166,191,153,117,54,-34,-72,-95
68,363,140,154,112,75,45,-13,-58,9
81,176,-27,3,33,55,67,61,47,70
-6,-79,-67,-43,10,52,84,65,101,27
-52,-242,-12,12,44,57,90,67,81,-8
-52,-204,9,18,23,12,70,52,49,8
-30,-90,14,-9,-42,-40,34,41,42,36
69,-76,-33,-45,-68,-54,-14,10,24,107
67,-93,-104,-90,-54,-33,-48,-51,0,151
-28,-103,-90,-43,35,60,-44,-120,-109,-19
23,15,17,1,36,20,-119,-140,-107,-77
60,12,24,-16,-46,-78,-108,-44,1,-7
-57,-156,-13,-5,-45,-56,-1,72,56,0
-95,-107,26,63,28,20,47,71,40,-2
28,199,47,70,43,38,21,35,7,35
54,105,-4,-6,-10,-2,-24,0,-33,13
-27,37,50,32,9,-6,-17,-27,-70,-47
-41,225,135,137,61,34,-1,-31,-106,-106
-7,117,97,83,17,0,-13,7,-75,-120
13,35,26,-52,-80,-85,-55,2,-57,-86
24,76,-27,-108,-84,-76,-71,-42,-63,-78
1,21,-70,-100,-55,-38,-38,-21,-40,-64
-10,117,-47,-57,-6,6,22,9,12,11
168,244,-15,4,44,46,22,12,22,103
262,-71,-72,46,85,91,80,91,67,178
78,-201,-105,25,66,72,61,78,52,120
-143,-321,-123,-21,-6,-23,-3,-4,-3,58
-120,-335,-76,-28,-42,-52,-39,-31,-39,42
-79,-97,25,-29,-46,-71,-51,-28,-65,-38
-185,133,68,-42,-53,-74,-71,-42,-46,-103
-305,71,72,-5,-30,-41,-76,-57,-22,-140
-141,-74,75,42,12,2,-53,-33,1,-25
48,-135,32,74,53,53,0,7,12,100
126,-154,-42,32,38,45,47,33,20,90
152,-191,-104,-29,2,15,54,44,22,46
180,56,-75,-29,-6,1,25,34,45,144
106,266,-30,-49,-25,-43,-15,-17,23,182
-11,280,7,-57,-57,-73,-70,-73,-77,-22
-140,270,55,-17,-33,-47,-54,-68,-153,-231
-143,232,54,7,7,3,-16,-34,-92,-202
-15,67,39,26,31,20,8,29,3,-105
31,-29,28,12,12,4,16,47,35,-27
18,-197,36,37,22,6,6,24,29,18
-36,-682,-58,25,37,36,37,37,57,92
-98,-664,-92,0,32,50,60,45,54,52
-59,-154,-29,-11,-14,-4,4,0,4,-6
99,411,18,-17,-47,-23,-19,-4,19,70
137,644,40,-4,-26,3,30,45,81,86
90,360,86,37,-16,-8,28,27,76,-37
75,4,58,51,-38,-9,5,10,16,-151
162,-268,-36,-22,-78,-9,10,14,-31,-129
109,-198,-44,-50,-53,7,-3,-21,-50,-53
-39,243,34,-5,8,13,-3,-60,-89,4
-101,413,63,14,29,23,-14,-61,-112,66
-56,129,32,-2,5,-5,-40,-43,-52,226
-111,-194,-61,-27,-21,-46,-36,-3,56,226
-147,-136,-73,-20,-10,-10,43,72,134,21
-99,2,-7,-8,14,17,68,69,79,-144
19,84,89,20,50,18,8,-15,-22,-153
111,147,108,10,12,-2,-36,-56,-54,-45
157,99,80,-4,-27,-36,-50,-71,-57,49
114,-32,12,-11,-18,-30,-27,-41,-48,-22
45,-145,-91,-24,-13,-8,-11,-7,-9,-44
-30,-200,-148,-29,-10,16,28,28,52,31
-123,-112,-109,-6,12,44,44,46,79,35
-134,17,-11,-8,14,21,17,26,88,-20
-15,-24,111,34,14,20,-4,10,64,-9
75,-58,136,70,3,5,-24,3,13,-37
66,3,57,35,1,0,8,37,18,-78
72,-112,-42,15,31,41,45,62,50,21
64,-438,-135,21,70,73,26,7,47,182
9,-402,-186,-26,23,15,-2,-19,52,274
-147,76,-123,-51,-19,-19,-23,-45,-9,67
-179,523,13,-17,20,14,17,-14,-33,-155
-54,627,127,40,47,32,45,31,19,-163
53,129,106,54,43,29,14,18,10,-146
112,-355,25,6,23,29,13,7,-3,-83
108,-368,-20,-50,-33,-5,-9,-13,-3,-15
43,-92,-28,-39,-21,10,-24,-31,-7,54
-8,-104,-90,-26,-31,-5,-14,-46,1,185
-22,68,-50,-25,-79,-56,-26,-48,-21,106
16,247,65,-31,-115,-103,-32,-34,-56,-126
83,337,119,-25,-95,-94,-66,-49,-61,-91
64,330,94,8,-27,-17,-27,19,24,-19
-31,23,-66,-7,46,71,65,109,118,46
-115,-109,-96,7,120,126,84,85,128,104
-83,-52,15,0,65,26,-13,-17,35,103
-122,-24,84,3,-6,-59,-53,-80,-82,-54
-226,-98,89,91,39,4,9,-45,-94,-179
-193,-166,30,92,64,39,17,-5,-39,-119
-67,-131,-33,5,27,24,31,33,40,-15
100,3,-23,-25,-6,-17,4,12,34,8
192,129,22,-9,-20,-40,-37,-30,-24,-8
159,130,41,14,7,-19,-22,-29,-16,-9
71,82,7,19,23,9,7,0,16,-5
-4,35,-2,-7,8,15,26,21,42,-5
-60,-144,-24,-33,-26,2,18,69,70,3
-37,-189,-52,-24,-36,-13,7,80,64,11
-13,-64,-18,20,-1,-7,14,42,17,-22
-2,9,-26,20,20,20,37,44,18,-10
1,29,-62,-39,-7,21,43,58,31,15
1,48,-63,-62,-14,17,41,14,-30,-42
44,88,15,-37,-19,-11,-6,-37,-61,-59
102,120,84,-23,-64,-94,-75,-54,-18,28
45,127,139,37,-30,-70,-71,-57,-16,2
0,88,134,94,59,6,-42,-76,-47,47
14,41,51,33,0,-45,-68,-93,-29,235
-81,-42,-48,-44,-45,-67,-62,-83,-44,145
-156,-201,-146,-57,-7,-9,8,-2,-10,39
-74,-346,-189,-20,50,67,98,98,51,-17
43,-267,-158,13,64,88,126,112,80,-13
104,-124,-51,36,38,46,67,56,60,11
70,-108,-7,14,12,19,6,4,10,-35
23,18,42,-16,-16,-22,-31,-32,-30,-60
6,296,137,-9,-31,-64,-59,-52,-41,-42
16,515,184,-5,-44,-64,-59,-50,-26,-14
4,387,135,-15,-46,-65,-59,-53,-30,-40
-48,136,54,-14,-32,-37,-37,-38,-23,-76
-65,47,3,-2,-19,-8,-10,-6,-17,-78
-10,-133,-79,3,4,37,31,31,16,-35
46,-508,-206,0,53,86,86,92,98,62
106,-312,-191,8,86,102,99,103,95,114
171,105,-39,11,42,39,39,53,72,113
90,43,-5,13,10,0,-15,-13,7,27
32,-184,-78,-19,5,-19,-33,-29,-20,-5
-2,-128,-8,-14,0,-17,-9,-27,-38,-16
-42,167,145,51,9,-7,15,7,-38,-22
-38,665,210,103,40,15,21,33,-3,-9
-115,220,73,63,28,13,13,8,-7,-18
-187,-293,-25,66,70,65,59,37,10,-60
-224,-540,-41,73,110,104,108,76,63,-51
-115,-382,23,38,40,44,29,23,27,-67
62,0,66,-15,-50,-19,-34,-26,-41,-62
167,20,-32,-71,-76,-22,-12,-14,-12,3
137,138,-38,-76,-100,-54,-19,2,26,41
64,452,22,-73,-125,-62,-14,21,42,106
0,334,0,-47,-90,-21,1,23,28,99
-23,-27,-45,-40,-34,-25,-28,-33,-31,73
-38,-81,-36,-34,-17,-55,-64,-80,-68,26
-29,36,-10,-15,-16,-40,-38,-47,-65,67
-10,-46,-5,-19,-22,-27,-27,-29,-70,124
-12,-136,-7,-9,-25,-27,-14,-6,-83,11
-104,-76,34,49,48,9,-47,-41,-117,-216
-159,-60,39,88,119,82,-66,-85,-137,-299
-70,-47,-15,19,68,50,-22,2,-44,-129
-39,-18,-48,-29,7,5,28,63,25,53
-14,-22,-25,-39,-26,-27,0,20,12,152
116,14,-13,-71,-81,-103,-92,-81,-37,228
82,35,-3,-26,-51,-75,-71,-75,-76,46
32,9,13,23,10,-16,-2,-4,-47,-83
45,16,-5,12,17,15,22,43,-3,-74
30,26,-13,-10,5,16,32,67,14,-75
63,60,15,-13,-25,-5,0,54,-1,-74
191,131,46,-11,-37,-31,-26,17,0,-40
191,196,107,9,-25,-36,-40,-14,-26,-53
79,243,143,14,-18,-37,-38,-42,-50,-61
-9,267,149,12,-45,-65,-100,-127,-96,-3
-32,92,64,5,-34,-40,-82,-107,-115,46
-27,-133,-66,4,34,60,58,52,-16,57
-89,-354,-201,-27,41,88,119,145,111,94
-119,-603,-264,-13,53,88,103,127,152,116
-2,-570,-248,36,101,121,128,141,165,169
27,-217,-121,70,103,97,105,101,100,78
-81,136,45,37,37,-10,-9,-25,-8,-67
-197,177,114,1,-26,-94,-89,-110,-72,-147
-146,74,122,11,-36,-73,-82,-109,-68,-52
-84,-119,57,22,-12,-7,-12,-55,-49,2
-109,-314,-35,20,50,70,63,23,-15,-9
-45,-173,-137,-73,5,53,51,25,-25,32
40,125,-161,-123,-36,9,9,15,-14,10
124,328,-55,-60,-29,10,28,33,23,-5
178,449,91,7,-43,-7,17,30,38,41
71,171,93,-14,-80,-45,-3,34,52,33
-57,-71,56,-11,-37,-48,-5,16,36,-41
11,-71,67,56,9,-34,-29,-14,6,-67
136,45,90,78,10,-29,-46,-49,-54,-49
130,70,65,37,3,-13,-37,-50,-55,-23
9,16,35,15,7,11,-11,-43,-51,-31
-21,-27,11,2,2,15,-25,-51,-44,74
-24,-70,11,-6,-9,-12,-29,-39,-24,101
-35,-70,20,2,7,12,12,20,10,0
40,35,23,15,33,43,49,59,61,-32
51,112,40,31,46,41,55,60,75,5
13,103,16,-11,21,8,23,22,58,88
-37,-17,-34,-73,-54,-63,-39,-49,27,100
-95,79,-42,-82,-77,-73,-40,-23,29,-5
-216,-47,-31,-5,0,12,-5,-2,24,-129
-173,-419,-71,59,95,120,30,4,3,-146
-27,-455,-119,45,90,114,71,53,48,-83
45,-188,-82,-2,36,66,77,54,62,-60
70,164,55,-22,-37,-17,23,-13,5,-57
85,270,97,-26,-94,-82,-61,-71,-48,-1
94,597,136,-4,-26,-34,-48,-42,-25,78
73,621,144,48,50,26,9,21,38,100
51,108,64,35,28,1,-5,13,54,87
39,-157,7,-6,-20,-44,-27,-19,35,76
10,-53,35,-18,-23,-37,-21,-33,-8,-17
24,-73,-17,-28,-17,-13,-12,-17,-3,31
52,-90,-74,-36,-28,-25,-9,-6,24,85
13,-99,-35,-2,-17,-33,-19,-34,-23,-48
-21,-212,-65,8,-4,-24,-15,-34,-49,-136
-29,-320,-150,-3,29,15,17,5,6,-32
-19,-33,-107,17,93,111,62,60,69,85
20,318,26,28,65,79,48,71,78,95
59,76,30,-8,-15,-21,-4,24,42,29
67,-137,24,26,10,-19,-17,-6,5,-38
111,-177,54,49,23,4,18,-6,-20,-73
116,-202,27,26,4,7,29,9,-5,-66
-38,-232,-17,8,-23,-6,15,22,8,-79
-213,-89,0,-16,-3,7,-14,-55,-77,-170
-162,260,96,-50,-31,-39,-107,-163,-138,-71
-95,472,88,-64,-81,-70,-77,-72,-49,41
-107,401,-9,-60,-73,-35,-16,15,32,38
-82,280,-103,-43,-52,-16,0,39,58,63
-2,52,-95,28,21,36,69,89,69,25
112,-64,-27,70,30,32,68,79,75,59
42,-312,10,87,38,41,51,49,26,75
23,-439,36,55,62,47,38,38,0,30
108,-182,23,-2,19,5,-1,5,14,74
128,176,11,-19,-21,-19,-21,-25,-19,32
96,238,-18,-23,-22,-21,-31,-18,-30,0
-23,22,-63,-29,-15,-8,-3,14,5,-16
-159,-196,-58,-33,-9,9,11,29,25,-32
-230,-199,-10,-13,0,10,18,9,16,-14
-149,-267,5,16,27,35,51,23,25,1
42,-144,21,0,12,22,21,5,22,76
59,394,131,18,-2,-9,-26,-37,-36,21
-39,469,150,5,-32,-64,-66,-80,-106,-27
6,101,55,-33,-79,-106,-83,-78,-99,-26
51,-46,-2,-16,-47,-50,-28,0,-32,-67
51,-52,-36,13,32,10,15,46,0,-54
89,-200,-104,-12,36,27,4,34,4,-30
126,-26,-78,-13,24,2,0,8,11,-45
94,80,-18,10,37,-9,-11,-8,-3,-40
52,55,-37,-9,34,4,-13,-18,-11,38
20,49,-48,-24,2,12,-2,-11,9,97
-77,-66,-5,14,21,42,30,6,2,55
-254,-243,26,59,52,63,59,12,-19,-56
-230,-8,33,46,38,53,63,46,10,-71
-30,177,6,-7,-15,7,31,40,31,4
3,-149,-52,-50,-64,-18,-6,0,21,-1
-48,-309,-73,-31,-15,33,31,10,28,-18
-17,9,60,9,5,24,17,15,10,-20
109,188,116,-3,-48,-34,-18,6,-32,18
173,299,124,-21,-104,-75,-58,-44,-56,48
107,169,67,-37,-103,-75,-75,-65,-33,-2
13,-211,-42,14,-7,-29,-50,-48,-28,-61
-41,-493,-158,40,77,43,19,-13,0,-11
-28,-475,-229,-8,84,65,66,40,65,103
-31,-166,-114,-23,50,37,38,31,16,50
-45,45,-9,-33,-8,-10,-2,4,-20,-98
2,200,46,-15,4,-5,-24,-23,-18,-91
105,572,123,21,39,10,-44,-31,31,40
115,494,115,14,-11,-40,-65,-15,33,63
65,333,59,2,-26,-39,-4,33,29,18
36,115,22,-15,-31,-26,14,27,-3,17
-35,-153,-5,-4,-31,-32,7,-14,-35,-32
-84,-192,11,8,-31,-29,16,-15,6,-5
-15,-135,53,9,-26,-38,-22,-33,13,68
76,-37,118,33,-55,-83,-87,-78,-49,45
2,46,111,37,-28,-29,-65,-70,-100,-70
-73,-18,-49,-18,38,42,-30,-56,-84,-129
-30,98,-117,-18,88,92,50,27,5,-46
27,-22,-135,12,115,124,134,126,106,48
-1,-336,-154,55,136,142,177,175,130,65
-53,-344,-154,57,123,129,146,146,86,38
-111,-163,-65,18,26,22,47,48,23,-19
-148,39,88,7,-50,-58,-42,-64,-70,-85
-78,136,148,18,-50,-65,-90,-105,-100,-54
42,121,81,-14,-42,-61,-80,-75,-26,92
97,37,0,-66,-54,-56,-41,-3,58,115
109,6,6,-58,-52,-46,-10,21,71,57
101,30,35,-19,-25,-19,16,9,36,23
36,32,34,-3,-16,-28,-9,-28,8,0
-33,-20,21,28,-7,-19,-15,-21,-11,-32
-59,-46,2,33,0,-1,14,3,1,-56
-1,-11,-26,-7,-9,-8,-7,0,21,-11
56,153,-27,-20,-8,2,-2,-12,29,7
73,131,-41,-38,-17,-6,-8,-4,7,-13
20,-174,-52,-34,-12,-6,-2,5,-12,-18
7,-266,-9,2,25,6,-1,-7,-12,27
43,-141,44,39,25,10,2,-3,8,22
128,-135,16,51,32,41,56,46,28,-43
121,-18,-16,13,32,44,58,37,17,-56
-50,214,-15,-42,-32,-27,-23,-46,-35,-65
-133,462,-16,-64,-62,-62,-52,-62,-54,-81
-102,825,86,4,-4,3,17,21,13,1
-78,602,125,32,14,17,16,42,58,165
-99,-38,32,-9,-22,-24,-21,-15,34,207
-135,-406,-54,-9,-1,15,-5,-3,23,42
-70,-364,-28,11,10,18,25,23,49,15
27,-195,-4,16,0,-3,34,28,57,50
-70,-109,6,25,7,10,24,36,32,-21
-125,-154,-10,-13,-7,-19,-6,6,8,-98
-19,-66,24,-5,-7,-23,-37,-32,2,-43
60,106,100,29,11,-18,-35,-41,-33,-39
48,54,51,17,20,11,1,-24,-56,-115
71,-124,-60,12,44,59,38,8,-27,-106
87,-218,-104,40,62,75,53,43,0,-59
77,-116,-94,-3,-8,7,1,7,3,-12
126,-93,-112,-41,-46,-23,-25,-38,-21,46
217,-92,-109,-20,-34,-1,3,-12,11,129
139,94,0,5,-12,-6,7,-3,5,85
-30,56,109,16,-24,-50,-71,-67,-85,-53
-53,-160,119,-6,-54,-81,-83,-55,-45,-26
-20,38,116,23,-15,-30,-14,-3,29,76
-191,115,35,33,30,20,29,28,40,-26
-275,-153,-112,-39,18,35,45,34,16,-156
-24,66,-132,-52,40,83,86,79,68,-21
198,437,-18,43,92,133,126,127,166,285
120,475,70,79,79,96,96,95,150,262
-105,235,76,35,11,12,21,0,23,-35
-201,-234,21,-7,-29,-41,-46,-62,-76,-164
-106,-333,-26,-32,-44,-45,-70,-70,-86,-142
42,-117,-34,-27,-27,-12,-22,-14,-35,-62
91,93,6,-10,-16,-14,-14,0,-1,-36
65,5,24,-6,-21,-20,-24,4,-7,-55
35,-90,42,17,0,4,-12,12,-6,-43
54,-101,38,44,24,18,4,9,-13,-2
53,-126,-18,-5,-1,-15,-14,-17,-17,36
-38,-175,-67,-29,5,6,-7,-7,-31,-32
-75,-35,3,0,4,10,-16,-38,-49,44
12,10,87,53,-4,-24,-56,-41,-24,115
17,46,68,36,-13,-21,-32,4,42,97
-31,52,-6,-38,-29,-28,-40,-29,33,102
-51,-21,-21,-42,0,-15,-18,-25,-16,-18
2,116,-27,-23,20,19,29,32,4,-47
28,5,-66,-41,3,9,28,32,18,-26
-25,17,-37,-11,-1,-2,7,-11,-22,-77
-44,120,-1,-2,-13,-17,-7,-44,-57,-118
54,346,25,-14,-34,-25,-19,-35,-63,-88
114,481,60,-13,-29,-37,-20,-3,-23,8
88,120,18,-10,-19,-28,-1,0,-9,77
34,-190,-28,13,1,10,7,-11,-19,32
-1,-282,-40,5,-31,-8,-19,-21,-33,-52
5,-252,-68,-17,-62,-17,-3,35,20,-24
33,-69,-56,-24,-46,-6,-1,60,63,45
4,-119,-9,1,7,38,21,32,27,35
-16,-26,24,18,50,58,66,58,33,58
-18,48,34,23,50,18,30,31,19,97
-36,-156,26,29,24,-22,-23,-25,-53,29
-22,-214,2,11,-14,-37,-25,-27,-74,-54
-3,-74,4,-20,-39,-40,-31,-29,-66,-63
-61,-22,71,-12,-43,-62,-87,-70,-97,-74
-161,-133,42,-11,-29,-49,-77,-42,-78,-90
-125,2,6,-4,-5,-21,-41,0,-54,-97
-3,231,28,29,15,-17,-26,-4,-57,-42
112,96,-57,58,85,60,40,53,26,51
247,-167,-199,57,141,136,133,149,153,158
287,-114,-158,19,92,112,107,117,126,161
202,122,9,-29,-9,-12,-10,-13,9,75
28,111,55,-42,-43,-60,-63,-42,-33,-36
-124,-11,24,-13,-33,-40,-32,-15,-43,-91
-84,-35,39,-6,-51,-63,-48,-50,-88,-114
-20,127,93,-3,-61,-55,-79,-88,-114,10
-28,433,79,5,-5,14,-36,-42,-38,98
-118,271,-32,-28,5,32,8,-2,23,92
-247,-166,-103,-35,8,36,29,0,-15,46
-249,-266,-55,-31,-11,6,-9,2,-8,35
-233,-197,33,-17,-27,-28,-24,13,28,-43
-74,-37,71,22,7,-10,0,11,10,-91
179,92,48,7,26,16,25,-12,-37,-85
227,100,29,4,23,29,17,-18,-50,-52
144,20,25,0,2,-2,-20,-14,-60,-41
73,17,17,-26,-34,-50,-35,-10,-25,34
-2,93,35,-18,-35,-54,-53,-28,-38,38
-119,42,38,14,33,-18,-41,-52,-90,-93
-143,-61,16,29,53,23,-10,-39,-87,-132
-41,-141,-1,38,59,41,23,28,-28,-82
209,-162,-55,-3,21,29,44,81,58,32
308,13,-47,-36,-36,-4,18,51,63,21
159,33,-38,-39,-81,-46,-46,-23,-19,-44
-33,-217,-106,-65,-71,-56,-65,-50,-29,46
-152,-349,-174,-81,-50,-35,-39,-54,6,177
-156,-107,-95,-9,2,2,9,-34,40,231
-115,108,25,54,34,53,69,35,101,235
-112,149,79,54,38,77,115,87,76,22
-62,67,72,23,22,50,69,30,-4,-124
31,91,20,-15,9,10,9,-12,-31,-95
32,27,-21,-27,-8,-14,-13,11,-13,-102
48,56,16,2,-15,-40,-44,-2,-9,-80
68,202,82,39,-11,-53,-88,-61,-42,-23
59,150,97,59,-8,-59,-76,-77,-63,0
52,90,39,-6,-30,-44,-44,-25,-30,-3
0,10,11,-53,-54,-47,-62,-24,-18,-12
-62,-15,63,-5,-11,-25,-59,-55,-42,-73
-32,-32,58,44,38,25,-10,-25,-15,-67
9,-314,-88,48,81,96,88,65,78,27
22,-496,-202,59,128,166,170,165,159,151
16,-259,-165,31,88,130,144,147,138,153
-39,95,-22,6,7,22,33,24,0,-38
-87,180,54,-29,-61,-66,-51,-48,-91,-126
-38,186,56,-47,-59,-66,-40,-18,-28,-63
76,422,75,-30,-36,-29,-28,-5,20,25
94,273,17,-21,-28,-20,-10,-8,27,74
35,-76,-46,-14,-14,-4,0,12,47,44
10,-228,-57,21,30,33,48,22,58,-12
21,-192,10,39,43,19,36,-14,6,-76
13,-55,73,17,13,-26,-21,-61,-54,-91
7,-12,35,-34,-30,-38,-47,-58,-62,-13
-23,-73,-31,-58,-55,-27,-24,-24,-16,1
-3,-46,-49,-27,-43,-18,12,18,47,39
21,98,-20,8,-22,3,12,35,74,62
-13,227,55,41,1,18,1,14,34,14
-8,303,114,59,-5,-6,-35,-41,-13,34
-14,45,47,25,-9,-12,-29,-57,-45,12
12,52,8,-22,1,-6,4,-28,-29,-22
33,58,0,-15,-1,-9,21,0,18,-10
18,-67,25,30,40,34,40,30,38,-15
23,-92,54,48,60,51,50,32,42,-45
7,-194,-22,-23,-20,-24,3,6,39,-38
-46,-338,-67,-52,-47,-60,-51,-58,-13,-37
-76,-249,-47,-28,2,0,-12,-54,-44,-106
-79,-94,-30,19,55,70,66,47,22,-71
1,216,0,35,43,58,74,99,122,157
59,535,29,-13,-15,-1,20,47,117,280
-76,562,23,-16,-5,0,18,18,41,58
-165,229,-1,24,22,30,10,-1,-2,-94
-136,-333,-46,-20,-4,26,4,-11,-53,-132
-158,-339,-46,-1,11,39,32,22,-42,-175
-126,-114,10,21,20,21,32,14,-21,-75
10,436,69,-10,-29,-43,-17,-31,-1,14
224,810,134,-5,-49,-82,-60,-52,19,64
218,525,138,52,40,0,-20,-19,28,36
43,-82,31,37,43,20,-13,-36,28,44
-96,-380,-35,-11,-6,-34,-54,-58,6,41
-133,-340,0,17,-1,-37,-36,-36,-35,-7
-105,-188,24,29,7,-4,2,0,-24,19
-91,-87,10,-12,-54,-25,1,12,39,83
-69,-9,-2,-29,-71,-6,12,36,87,59
70,109,25,-12,-22,42,68,69,84,8
145,-127,-29,-35,-40,29,76,74,67,-5
69,-396,-137,-67,-82,-20,32,25,28,-49
-8,-441,-155,-38,-51,-31,6,22,4,-43
86,151,-9,43,51,22,33,25,26,59
112,517,87,68,111,53,48,14,13,17
-6,209,58,41,93,52,29,-4,-40,-95
-46,12,33,18,39,3,-30,-7,-32,-53
-29,-42,36,22,20,2,-26,-2,3,28
-20,-84,8,9,-1,-14,-35,-12,12,61
14,-120,-30,-26,-34,-46,-44,-43,-4,23
35,-137,-39,-49,-50,-55,-56,-58,-25,-8
11,-102,20,-26,-27,-34,-47,-50,-50,-95
4,100,104,8,-15,-29,-38,-54,-78,-160
1,317,177,12,-34,-56,-45,-76,-100,-150
17,294,113,15,0,-9,5,-33,-74,-79
115,138,16,43,48,40,59,30,-33,35
177,-164,-67,33,25,12,27,42,14,171
140,-607,-295,-31,23,26,49,99,135,234
111,-721,-445,-45,103,146,157,203,249,212
126,-78,-232,-2,108,143,144,141,190,116
53,228,13,13,21,1,2,-45,12,-14
-129,-117,40,-7,-48,-75,-62,-116,-76,-87
-225,-475,-35,-6,-10,1,-16,-21,-30,-52
-207,-203,-15,2,46,81,28,9,0,45
-195,286,143,32,12,25,-7,-32,-31,32
-164,160,127,23,-40,-51,-47,-49,-73,-59
22,189,85,-22,-56,-63,-45,-20,-39,-36
97,414,84,-35,-60,-44,-45,-9,-4,-28
97,356,30,-33,-37,-19,-26,-4,30,-44
94,182,-3,-13,2,12,0,6,10,-57
69,14,18,17,26,16,16,2,-17,-49
101,-109,38,0,-15,-36,-29,-20,-11,24
43,-137,76,18,-14,-46,-37,-51,-33,55
-27,-46,52,4,-29,-35,-28,-41,-64,66
-50,-21,-24,-44,-51,-31,-24,-10,-29,14
-82,-77,-46,-44,-2,3,-20,-7,-13,-57
-111,-149,-23,10,49,33,13,2,-24,-91
-97,-120,7,64,72,64,65,54,15,-66
-20,-56,23,41,36,27,47,53,30,7
19,-92,15,-4,-29,-60,-29,-6,-2,28
64,-100,-5,-23,-46,-66,-82,-67,-50,3
85,-133,-75,-49,-42,-35,-64,-56,-57,4
78,-106,-121,-47,-31,-14,-15,-4,-12,60
35,-104,-116,-35,12,30,47,43,20,124
5,209,-65,3,62,73,87,89,34,119
6,543,48,36,64,69,58,69,24,-8
80,196,92,10,8,2,6,22,-3,-113
75,-95,120,0,-35,-45,-43,-32,-55,-138
24,155,127,9,-35,-51,-70,-56,-86,-112
0,418,144,41,-13,-35,-54,-39,-65,-3
-92,87,74,41,8,-27,-55,-57,-77,26
-141,-287,-80,-1,11,-22,-46,-36,-24,112
-109,-337,-220,-40,9,18,29,57,57,207
-3,-79,-161,-17,48,70,99,100,69,108
0,-99,-63,0,61,66,103,57,17,-42
-94,-305,-38,-17,9,22,32,-1,-16,-137
-99,-253,-5,18,12,20,21,5,5,-157
17,-24,-24,46,48,48,48,54,58,-42
69,74,-19,14,2,20,27,29,58,55
82,109,39,0,-38,-8,-27,-34,9,83
53,161,104,1,-59,-25,-53,-65,-48,-29
71,258,121,-49,-138,-99,-71,-73,-49,-14
102,243,87,-88,-160,-114,-77,-61,-21,64
103,161,52,-35,-55,-25,-33,-7,-27,7
84,16,17,17,64,43,7,11,-3,-56
20,-154,-32,19,67,29,12,19,17,-50
-51,-298,-73,29,54,19,25,23,33,-17
-32,-262,-66,15,37,23,23,0,17,1
7,18,34,-17,-20,-16,-10,-19,10,-4
-28,173,82,-14,-52,-68,-37,-35,0,-7
-77,107,45,17,-20,-42,-55,-65,-42,-8
-99,-110,-30,25,37,23,-28,-39,-38,2
-4,-266,-128,-16,34,56,26,38,34,70
19,-307,-146,-47,19,52,58,53,56,71
-50,-320,-120,-56,3,1,34,41,38,47
-79,-423,-140,-54,-12,-3,15,33,20,24
-73,-90,-96,-30,7,22,37,39,9,-10
-20,862,127,61,47,52,59,50,19,21
-1,1130,306,146,73,46,28,32,-10,-56
-30,405,226,102,35,6,0,5,-35,-146
3,-131,50,18,8,-8,4,9,9,-109
38,-286,-22,0,-7,-13,-13,-3,17,-56
74,-176,8,19,-12,-20,-25,-16,0,22
81,-99,-20,1,-28,-41,-36,-39,-5,114
81,-84,-54,-15,-44,-54,-44,-54,-23,122
23,-80,-50,-46,-20,-19,-44,-51,-38,7
-38,-28,6,-17,33,54,16,-16,-45,-158
31,-22,70,14,23,39,25,7,-28,-129
54,-148,38,-10,-31,-27,-7,-25,-6,-50
-71,-297,-1,-56,-82,-64,-24,-63,-31,-12
-142,-329,-35,-78,-108,-95,-68,-75,-49,41
-68,-335,-142,-72,-79,-77,-91,-99,-69,89
46,-111,-262,-31,35,62,41,27,29,161
101,932,-75,37,91,148,201,219,180,194
188,1132,200,73,44,67,125,166,142,80
101,376,155,53,19,6,25,43,42,-48
-20,-30,41,25,27,4,-16,-20,4,-68
-81,-199,26,12,25,-3,-49,-68,-25,-96
-65,-308,8,-9,2,-18,-38,-70,-26,-62
-37,-315,-20,-7,-6,-20,-18,-24,11,7
-92,-219,-25,-13,-21,-22,10,2,14,10
-66,-112,-40,-35,-44,-25,-9,2,12,-7
38,-29,-73,-46,-25,-5,-50,-53,-27,51
76,63,-54,-72,-53,-60,-97,-79,-46,76
2,325,128,-6,-49,-76,-70,-31,-12,-39
-30,412,260,71,24,-10,-3,15,19,-45
-65,149,168,82,44,32,20,25,27,-28
-49,-57,-3,9,12,23,13,3,5,-38
61,-182,-146,-42,-9,-6,17,0,10,12
63,-479,-287,-68,9,30,75,76,72,63
76,-503,-302,-39,72,106,148,178,155,137
94,6,-36,58,96,96,107,107,105,84
50,167,125,87,37,3,-19,-37,-14,-34
22,-124,42,14,-42,-48,-60,-57,-30,-77
-87,-403,51,32,-9,2,-15,1,-2,-106
-184,-99,133,56,21,30,11,18,-15,-155
-117,258,95,25,-4,0,1,1,-42,-154
2,356,61,47,26,9,-13,-6,-38,-52
40,98,14,55,62,47,0,-16,1,129
26,-300,-130,-33,-11,-9,-25,-25,17,235
-19,-273,-170,-87,-58,-46,-40,-36,-22,109
2,-4,-82,-86,-64,-39,-47,-52,-56,11
10,284,31,-57,-39,-24,-37,-49,-67,-34
72,355,101,-15,-9,-23,-33,-25,-39,-32
-27,73,43,0,10,9,6,25,13,-37
-115,-164,-25,15,41,45,42,57,45,-21
-68,-61,39,52,49,23,12,15,14,-28
1,121,94,50,10,-19,-35,-27,-15,5
46,71,21,2,-23,-39,-41,-36,-5,75
-44,-100,-47,-12,1,9,21,18,13,-9
-53,-70,-7,11,11,15,25,20,-7,-109
26,65,37,9,-19,-22,-9,-9,-29,-82
64,121,64,5,-33,-26,-12,-34,-72,-40
66,100,56,6,-45,-44,-24,-33,-81,1
54,35,17,-2,-43,-46,-5,11,-16,16
19,-44,-44,-18,-14,-19,-6,34,25,0
15,-146,-100,-13,38,43,23,12,23,-31
54,-165,-106,-11,39,56,45,14,21,-38
81,-73,-71,-30,-25,-21,4,-1,-8,-11
35,25,-47,-50,-52,-40,-17,-49,-42,61
-11,155,30,-17,-10,-4,-14,-28,-37,55
-42,104,69,35,24,26,18,22,-10,13
-53,-49,33,50,13,9,11,20,-2,25
-5,-173,-18,15,-3,-4,-11,24,33,54
-28,-139,-31,-6,10,-2,-1,25,53,97
-131,51,33,4,6,-23,-32,-29,-2,31
-35,48,52,-27,-46,-72,-80,-81,-75,24
14,-45,3,-39,-45,-67,-81,-82,-116,25
8,112,28,21,38,16,0,-14,-110,-72
44,165,27,41,42,41,43,22,-54,-83
22,-264,-100,-9,15,33,29,42,19,-2
38,-461,-204,-11,59,84,66,109,107,98
94,-44,-114,21,68,95,73,107,113,91
24,174,19,1,8,24,24,17,18,-56
32,324,83,-16,-6,-10,-13,-36,-40,-158
89,357,62,-26,-40,-46,-31,-36,-38,-105
-7,151,39,-24,-36,-53,-24,-22,-38,-46
-66,49,48,6,0,-21,-15,-5,-41,19
-72,22,70,17,-13,-16,-13,-29,-54,36
-12,-147,59,-9,-49,-57,-52,-50,-49,89
10,-265,-2,-19,-41,-47,-57,-34,-10,121
-84,-217,-27,-11,-31,-17,-14,-4,16,-5
-41,-68,-5,-9,-34,-31,-20,-11,-24,-98
60,-2,-44,-28,-22,-24,1,9,14,-41
19,142,-53,-24,40,50,63,60,63,1
-86,111,-5,-16,69,76,59,53,34,-38
-89,255,135,40,67,40,13,-10,-32,-67
2,384,133,79,62,41,19,3,-37,-9
78,-42,-23,45,18,1,-27,-35,-72,-14
123,-295,-87,29,18,-21,-33,-59,-55,-4
148,-315,-83,37,6,-27,-30,-22,-1,69
119,-291,-108,14,13,-1,21,47,59,84
11,-135,-83,-18,8,22,40,67,65,50
-104,70,-2,-15,-13,30,30,43,44,27
-191,146,51,-37,-55,-5,11,16,27,-33
-112,48,52,-63,-97,-67,-44,-34,13,-6
-13,-67,-7,-90,-108,-68,-59,-58,-18,50
-15,-97,-44,-91,-74,-29,-37,-39,-25,5
-82,31,-10,-19,9,28,12,8,-3,-37
-33,180,74,58,62,30,6,-4,-5,-30
33,47,35,52,52,13,18,4,7,-6
75,-69,0,21,30,28,40,51,32,-28
148,-12,0,-12,2,-1,27,42,30,-61
81,43,5,-21,7,-12,12,15,-20,-77
-14,46,24,16,46,25,1,-16,-72,-41
-36,48,43,33,54,33,-7,-23,-65,17
-30,86,74,20,38,8,-54,-57,-65,27
-26,51,77,-28,-34,-52,-89,-84,-49,-7
-145,17,69,-14,-49,-45,-59,-62,-50,-162
-107,-37,19,-21,-31,-10,-17,-11,-22,-161
5,-133,-74,-20,-7,20,42,49,48,-10
119,-353,-205,0,38,82,114,106,127,243
202,-408,-260,2,53,106,145,138,198,389
126,-192,-116,-7,-7,14,69,71,136,238
71,29,44,-19,-66,-81,-49,-39,23,77
-19,160,87,-32,-64,-106,-117,-121,-91,-79
-161,93,22,-47,-47,-77,-104,-124,-142,-228
-148,371,11,-10,-19,-22,-36,-30,-49,-155
-31,680,71,76,54,61,63,96,85,2
108,474,67,87,79,83,106,134,140,87
46,-193,6,50,49,66,71,87,95,40
-48,-231,66,68,59,66,50,27,19,-43
-23,51,66,53,16,20,6,-24,-29,-45
0,-110,-36,-29,-57,-50,-42,-46,-43,13
-26,-170,-28,-48,-51,-50,-52,-56,-46,15
-82,-50,54,7,10,12,13,-7,-31,-89
-37,170,67,30,16,31,25,21,16,-69
20,112,12,3,-6,0,13,13,6,-43
25,-21,-7,-13,3,-12,5,-15,-11,-37
29,-81,-21,-15,16,5,2,-9,-21,-47
87,-86,-37,-30,8,28,25,2,-19,-55
103,-74,-26,-16,11,30,40,18,5,-39
84,13,29,28,2,-4,4,4,52,44
40,29,34,21,-27,-30,-27,-25,59,68
-46,-28,-10,-15,-52,-42,-30,-26,32,87
-92,-39,-16,-33,-67,-84,-43,-51,-10,135
-137,-31,-12,-33,-80,-83,-71,-85,-74,22
-213,-37,-11,6,-47,-41,-40,-33,-58,-121
-70,-50,-26,26,-2,21,22,48,11,-89
148,38,-28,12,48,65,72,85,83,34
212,59,21,6,44,39,18,25,70,125
214,-28,40,19,24,9,-36,-40,-2,143
115,-26,-8,-22,11,0,-14,-27,-7,58
-69,20,-31,-48,-12,0,1,-15,-12,-52
-145,6,-25,-45,-21,14,26,24,22,-64
-100,50,-18,-33,-4,21,45,64,43,-31
-52,25,19,-7,12,11,11,32,13,-30
1,-45,15,6,-13,-42,-22,-13,-7,-17
75,-60,38,66,39,3,-6,-27,-30,-57
127,-118,8,70,59,32,0,-24,-28,-60
27,-80,-31,28,34,15,-2,-6,11,2
-55,-183,-40,-19,0,-2,-32,-54,-11,75
-191,-627,-112,-75,-60,-43,-33,-63,-52,-1
-334,-475,-24,-45,-51,-25,-3,-10,-27,-84
-367,347,152,39,9,31,26,31,11,-119
-120,836,118,47,55,55,28,27,28,-103
121,352,-56,38,83,78,84,83,88,26
187,-61,-106,75,101,112,143,139,134,115
229,-29,-71,58,62,82,113,109,106,140
198,138,34,0,-26,-38,-19,-17,-2,39
90,174,74,-27,-76,-102,-85,-77,-54,-91
86,-4,21,-33,-66,-64,-56,-37,-36,-67
117,-173,-59,-53,-36,-26,-16,-6,-4,39
39,-163,-76,-52,-28,-2,-6,-5,3,98
-72,65,7,-33,-24,-11,-10,-29,-45,6
-55,360,83,-13,-25,-29,-44,-53,-45,43
-27,290,78,14,1,-8,-21,-30,7,78
-35,45,14,-1,18,15,-1,-4,11,36
-85,-85,-1,5,39,22,8,3,9,-56
-48,-95,56,60,50,20,41,37,13,-93
29,-244,60,99,59,30,63,68,31,-39
21,-302,4,54,28,0,9,17,3,-31
-7,-154,-9,-10,-18,-46,-37,-21,-11,-42
5,4,-12,-53,-54,-62,-48,-43,-30,-31
29,82,-46,-81,-83,-68,-62,-58,-33,23
40,129,-60,-44,-58,-1,-17,-23,6,103
-5,-20,-63,4,7,63,40,11,3,52
56,-231,-42,9,-13,22,15,15,-2,-6
28,-322,-86,-21,-58,-3,0,27,17,-21
-19,-265,-162,-77,-44,15,37,65,59,46
-40,209,-26,-22,34,36,45,30,18,14
-39,639,211,78,72,21,-8,-34,-51,-43
-18,675,232,62,28,-43,-67,-69,-66,-18
-23,382,110,11,-1,-54,-60,-52,-64,-34
-10,-107,4,17,9,-27,-13,3,-23,-21
31,-339,-53,35,17,5,-6,25,1,-8
35,-394,-110,13,19,27,21,33,24,15
28,-321,-122,-9,18,20,38,44,44,33
25,-214,-93,-41,6,4,9,22,35,38
11,-106,-73,-37,9,19,12,16,44,53
-49,21,17,-17,13,16,-10,-26,-3,-5
-90,177,91,-20,-13,-28,-56,-52,-41,-68
-41,422,151,11,-7,-24,-34,-24,-18,-88
19,491,194,80,26,4,-4,-12,-45,-108
34,47,91,63,32,-4,20,0,-63,-110
50,-265,-47,13,24,23,38,24,6,-44
44,-365,-157,-10,37,73,61,55,58,20
53,-301,-183,2,19,53,53,41,79,137
88,-109,-95,4,-25,2,6,13,90,310
104,-22,-25,-51,-81,-40,-34,-3,49,301
6,44,27,-71,-115,-78,-55,-47,-41,46
-113,176,96,-36,-104,-83,-42,-46,-57,-126
-48,232,71,-42,-78,-66,-32,-21,-29,-111
6,73,-8,-11,-3,-1,15,32,8,-172
35,-123,-40,82,108,103,97,134,78,-194
79,-197,-36,101,132,133,119,137,112,-94
-40,-82,42,64,74,65,16,2,-6,-96
-110,-2,80,1,-30,-66,-90,-111,-93,16
-117,-28,22,-45,-91,-132,-125,-170,-120,307
-91,-37,-79,-102,-107,-108,-117,-142,-113,356
-31,137,-74,-57,-15,-5,-29,-15,-16,65
-71,157,-33,36,83,107,63,79,89,-79
-80,-127,-10,79,111,132,95,68,35,-93
18,-263,40,40,45,37,38,23,2,-19
19,-150,10,-25,-18,-45,-14,14,12,15
-115,-52,-52,-50,-43,-58,-46,-16,-47,-67
-100,93,-18,-38,-41,-39,-45,-38,-70,-88
108,290,71,0,-22,-23,-23,3,-6,-19
150,237,101,27,0,-3,-24,7,8,-11
88,20,73,33,25,6,-10,-6,-7,-40
7,-136,43,43,43,6,-2,-12,-22,-82
82,-169,-19,36,34,16,24,4,-15,-36
182,-54,-48,-10,-9,-2,15,3,-2,7
106,136,-54,-55,-22,-1,0,-4,-13,28
27,203,-53,-63,-42,-26,-29,-25,-9,76
-65,209,-35,-33,-26,-34,-34,-24,-31,3
-155,34,3,-12,2,2,6,2,-49,-37
-166,-306,-34,-19,-17,0,-3,-4,-35,-13
-148,-134,4,5,-9,-21,-4,-4,8,-7
-22,217,86,60,23,-5,-10,6,38,36
105,142,45,30,13,11,-1,-7,-13,39
86,-32,-57,-52,-34,-8,39,35,-29,-8
37,23,-53,-71,-21,-15,35,60,-9,-13
31,183,50,-1,25,9,-18,1,-10,21
5,60,122,88,62,21,-62,-57,-28,-36
9,-189,72,76,42,9,-18,-21,-24,-82
27,-406,-83,4,-8,3,11,7,-5,-34
15,-577,-219,-53,-15,11,42,11,33,71
-18,-482,-228,-76,-10,9,25,-10,3,72
-28,57,-66,-42,-10,7,8,-10,-35,13
76,803,131,-3,-41,-35,-5,6,-6,78
82,897,176,-14,-54,-77,-29,1,28,101
-23,283,115,0,-22,-40,-50,-56,-50,-39
-51,-193,61,32,1,-10,-45,-60,-85,-117
-34,-359,23,55,53,46,16,6,-36,-56
-37,-370,-53,30,83,85,54,50,21,2
-35,-175,-95,-18,32,59,41,72,60,15
-80,-73,-71,-27,13,37,50,60,67,11
-49,-37,9,-6,-10,-9,-5,5,3,-12
-2,30,27,-33,-60,-55,-66,-40,-41,-45
-7,-8,4,-29,-34,-35,-41,-23,-17,-74
-14,-77,-5,26,45,38,44,28,24,-82
56,-110,-44,63,95,96,97,77,79,-23
83,22,-39,48,75,76,100,98,102,11
58,228,61,55,19,14,42,39,46,-12
43,266,131,44,-13,-46,-53,-58,-58,18
14,35,61,-9,-25,-64,-81,-88,-79,114
-84,-223,-63,-58,-27,-64,-80,-90,-81,82
-69,-158,-61,-30,-11,-9,-40,-62,-78,-10
-1,-54,-40,8,13,25,6,-26,-60,9
-10,-33,-91,-21,2,20,23,20,26,146
-21,370,0,-13,-4,26,51,67,92,151
-7,473,95,0,0,2,49,63,55,-6
18,92,84,6,-5,-22,11,12,13,-83
64,-121,51,-2,-46,-42,-21,-4,5,-66
91,-79,11,-35,-94,-71,-44,-9,5,-30
83,10,14,-26,-75,-64,-48,-24,-19,-29
28,73,57,18,-36,-21,-22,-17,-45,-65
1,43,32,9,-20,17,12,1,-16,-34
5,-71,-21,-12,-7,10,19,0,5,12
-18,-186,-33,-3,32,1,0,-16,0,4
47,-159,-39,-14,19,13,-4,-16,14,17
149,-150,-18,-1,17,9,-6,1,18,46
35,-320,-23,25,41,29,4,30,28,29
-137,-387,-39,33,59,51,-1,-4,-17,2
-192,-426,-84,-25,-11,-23,-52,-62,-54,15
-172,-181,-40,-49,-65,-80,-90,-74,-72,-73
-113,645,85,31,24,17,24,34,-22,-181
-14,892,136,95,101,119,127,133,74,-120
57,488,86,85,109,116,144,134,103,-49
36,180,27,28,54,43,56,21,-7,-31
-3,-316,-144,-72,-29,-34,-52,-74,-56,114
-37,-337,-203,-100,-61,-43,-63,-57,-23,252
-69,-10,-110,-81,-60,-53,-63,-44,5,209
52,178,8,11,14,0,-20,-4,31,78
55,-75,0,89,91,84,61,64,35,-80
1,-311,-1,72,85,74,72,68,41,-64
32,-305,40,42,34,19,17,7,6,-35
97,-178,33,-3,-28,-32,-34,-24,-12,-29
127,-41,-11,-71,-76,-75,-70,-73,-14,21
-5,81,-13,-80,-87,-75,-89,-117,-89,-84
-116,215,-6,-79,-95,-43,-53,-59,-74,-124
-27,393,44,-46,-59,-11,6,3,14,33
44,354,109,8,-37,-16,-5,-4,27,159
-70,107,68,-3,-41,-19,18,19,33,90
-194,-31,-3,-27,-27,-18,54,51,58,24
-135,-202,-37,11,31,20,42,35,18,-67
-45,-403,-35,59,68,46,23,21,-9,-105
50,-294,4,61,42,1,-14,10,-1,-35
54,6,26,-2,0,-25,-28,-7,-3,-30
19,168,37,10,16,1,7,4,-1,-48
66,391,57,60,62,53,52,46,48,13
86,281,-6,18,44,45,45,37,51,33
48,-118,-33,0,23,39,37,36,18,-38
51,-338,-7,5,6,11,29,32,0,-83
86,-209,39,-1,-47,-61,-53,-29,-24,-60
91,69,57,2,-52,-55,-85,-73,-38,17
71,291,20,-19,-39,-34,-18,-15,14,68
15,108,-15,-25,-25,-16,8,3,29,118
-3,72,-1,-10,1,-2,-25,-18,15,225
-75,23,-11,7,35,19,-17,-36,-11,87
-128,-173,-52,15,51,47,7,0,3,-64
-124,-175,-34,7,49,47,36,26,19,-88
-80,6,36,12,15,34,24,-15,-34,-129
-30,97,97,30,-28,-13,-18,-54,-84,-150
49,78,80,26,-62,-52,-36,-46,-47,-71
98,87,39,-5,-80,-31,13,29,62,58
120,-40,-52,-78,-113,-33,37,64,110,130
124,-156,-117,-100,-89,-45,15,42,80,100
68,-271,-157,-68,-3,0,-2,17,41,35
-26,-370,-185,-19,55,29,29,23,24,-28
-103,-304,-127,71,118,76,49,11,-15,-58
-64,55,-5,113,122,80,50,49,22,41
-69,423,109,105,83,52,48,70,45,11
-111,277,137,92,71,23,25,24,11,-48
-57,-124,25,12,45,8,-7,-42,6,6
-7,-219,-32,-49,-19,-29,-46,-73,-25,6
20,52,10,-70,-64,-52,-50,-56,-62,-39
33,362,68,-56,-52,-26,-54,-67,-89,-17
-11,382,62,-36,-40,-9,-21,-57,-65,-16
-44,185,47,-31,-89,-70,-25,-16,-28,-60
14,52,42,-29,-116,-94,-30,16,0,-70
118,45,-8,-6,-54,-40,13,38,49,33
156,-181,-154,1,44,66,82,87,107,154
141,-241,-155,-17,62,72,79,70,98,210
15,-94,-23,-18,-10,-5,-1,-9,-4,86
-93,87,97,-5,-45,-57,-88,-68,-79,-81
-138,186,152,13,-47,-81,-104,-78,-81,-174
-116,104,115,65,22,-17,-53,-52,-86,-172
-22,-79,9,66,64,31,-7,-4,-28,-58
40,-176,-61,37,78,45,41,56,23,32
71,-168,-112,-4,68,46,30,43,-7,48
136,-82,-159,-34,21,27,4,16,12,141
144,-33,-101,-41,-23,-13,-28,-12,9,135
11,-111,8,-20,-32,-40,-58,-42,-43,-13
-64,-134,84,29,-19,-45,-53,-51,-50,-87
-54,19,143,63,-6,-24,-41,-40,-45,-60
-66,61,94,32,18,22,-1,-5,-8,-25
-110,-101,-18,-11,25,61,81,70,39,6
-81,-14,-15,-8,25,49,89,73,29,-6
-24,149,25,1,6,6,20,8,-33,-51
-64,-116,-24,9,-3,2,-5,-36,-76,-94
0,-265,-112,-19,-7,21,42,20,-24,-60
239,56,-106,-20,2,50,82,103,79,15
278,311,-20,0,22,32,50,68,76,18
121,139,31,-8,12,-12,-22,-11,10,-29
-60,-13,22,-30,-15,-53,-40,-27,8,2
-238,-82,-10,-38,-17,-40,-20,-7,21,47
-209,-56,1,-12,-12,-32,-22,-16,2,138
-151,-11,35,25,4,-17,-50,-51,-3,144
-101,15,42,33,29,1,-47,-66,-28,5
54,51,15,-9,16,-8,-46,-79,-94,-65
96,32,-10,-25,-2,10,-30,-56,-131,-101
46,-18,-15,-25,-32,15,14,10,-59,-24
-25,-62,-1,-20,-66,-8,3,37,0,52
-1,-58,43,-22,-101,-56,-35,17,33,114
-19,-121,79,-8,-104,-67,-37,22,37,71
-29,-232,39,-14,-58,-26,-14,3,-4,-39
27,-249,-37,-40,0,-7,-38,-41,-90,-122
27,-86,-35,-28,24,-17,-45,-65,-129,-150
8,262,-23,-8,45,0,-5,0,-60,-90
51,604,-57,21,99,110,129,143,94,38
99,802,30,33,71,81,119,144,128,77
99,532,195,55,13,-14,8,7,6,-6
118,-78,146,57,8,-37,-63,-70,-78,22
94,-423,-87,-26,-31,-58,-82,-63,-73,78
11,-495,-220,-58,-5,-4,-28,-7,-19,9
13,-359,-141,-10,49,57,30,30,10,-47
31,-238,26,25,28,17,8,-7,-1,-23
-104,-192,61,-21,-35,-57,-49,-57,-25,14
-243,-64,28,-43,-38,-56,-52,-46,-17,111
-196,-54,7,-24,-1,-15,-10,-26,-20,152
-197,-151,0,22,28,38,47,18,-17,-1
-188,179,20,66,66,74,93,97,57,-85
36,554,35,76,82,77,107,117,119,21
105,326,23,39,43,31,31,17,20,-52
124,41,19,5,-18,-22,-46,-43,-51,-57
132,34,20,-2,-30,-41,-70,-58,-39,26
80,-123,-9,-1,-22,-35,-68,-47,-20,21
108,-206,-12,4,-24,-33,-59,-33,-10,-6
77,-129,23,15,-24,-34,-53,-35,-11,-33
-49,-95,12,15,3,14,-13,-2,1,-57
-121,25,-11,13,38,53,32,19,10,-80
-75,80,-18,-10,30,24,31,5,12,-56
4,-26,-71,-50,-18,-10,0,-1,-1,-36
31,-169,-141,-66,-36,-12,-2,4,1,-32
51,-67,-116,-41,-13,-1,13,10,16,-14
93,253,-5,-8,-5,21,32,14,24,25
79,149,7,-3,-18,20,51,22,32,56
62,-44,11,-11,-47,-20,19,2,32,74
45,11,54,10,-21,-23,-4,-25,-6,42
-28,21,71,18,3,-9,-3,-19,4,-9
-63,-92,55,42,7,-9,-5,-4,31,15
-66,-74,0,19,11,4,28,16,48,-11
-79,108,-6,-18,16,14,16,-1,11,-83
-31,126,65,6,-13,-21,-19,-32,-30,-66
52,123,118,36,-31,-37,-21,-18,-27,22
-6,27,85,34,-1,-3,0,8,-13,35
-95,-252,-38,17,37,41,42,38,37,70
-33,-336,-82,15,46,46,35,33,53,95
22,-232,-60,10,15,8,-10,14,47,86
-20,-95,-67,15,25,18,10,32,57,0
-25,10,-93,26,63,71,72,61,68,-27
-35,26,-47,-3,26,36,37,-1,1,-45
-26,340,109,-7,-24,-49,-49,-79,-68,-121
31,606,159,-13,-45,-64,-64,-73,-51,-86
41,164,17,-31,-45,-30,-35,-30,21,32
18,-266,-78,-21,-8,23,34,17,59,52
-6,-252,-63,-9,9,18,27,-2,7,-33
-33,-257,-61,-27,-7,2,5,-1,-8,-58
8,-338,-100,-45,-25,0,22,33,51,31
66,-220,-46,-39,-26,-10,19,45,54,96
122,250,84,1,-15,-24,-16,3,0,32
115,542,100,22,16,16,8,1,16,33
106,145,38,-22,-13,-17,-20,-13,19,44
87,-113,-20,-61,-58,-45,-32,-25,7,11
-43,392,70,-17,-38,-28,-4,-10,15,-17
-105,791,257,35,-39,-53,-37,-43,-9,-35
-143,362,187,-11,-55,-70,-78,-89,-57,-35
-135,-94,45,-35,-41,-44,-63,-82,-96,-44
-26,-376,-53,-9,-8,-8,-36,-74,-107,-40
-126,-693,-204,34,82,107,96,55,-19,-86
-73,-790,-368,37,168,249,273,276,213,61
149,-109,-187,53,176,215,245,265,271,199
127,269,89,29,56,10,25,27,88,48
9,110,175,21,-5,-89,-100,-95,-77,-129
-21,208,178,33,17,-59,-108,-113,-170,-171
46,373,202,16,4,-49,-75,-60,-116,-56
143,453,192,20,-4,-38,-35,-7,-21,73
90,151,86,40,-32,-48,-43,-49,-29,22
-84,-335,-129,-20,-58,-14,-8,-42,-41,-82
-134,-610,-306,-84,-65,10,17,-25,3,15
-70,-708,-398,-57,-8,79,55,57,83,283
42,-351,-280,-38,-2,64,72,96,133,475
-19,-13,-23,-45,-90,-64,-28,-4,47,278
-124,153,151,10,-76,-85,-73,-70,-63,-113
-121,190,183,71,32,-19,-32,-56,-109,-300
-64,155,126,64,59,8,-31,-29,-80,-245
65,213,64,29,32,13,-31,-13,-37,-132
92,209,12,-6,5,-4,-25,8,-5,-58
50,55,-17,-32,-9,-14,-20,27,15,8
64,-42,-13,0,9,32,19,46,37,22
169,126,0,21,30,54,65,69,83,91
142,63,-17,-30,-23,-11,16,2,32,67
16,-36,-8,-41,-53,-46,-29,-41,-55,-86
-38,-54,43,-12,-52,-51,-8,-16,-60,-124
-21,-27,45,6,-19,-15,13,8,-33,-67
-73,-1,27,24,22,15,1,-6,-16,-42
-195,-77,-3,18,16,0,-16,-29,-13,-52
-138,-170,-36,22,10,-6,-25,-42,-21,52
14,-187,-42,25,-7,-11,-29,-25,17,250
77,-7,9,24,-8,-12,-31,-4,19,168
7,186,27,17,2,12,3,18,-19,-14
2,105,0,-25,-29,-1,9,5,-50,-82
121,-10,-5,-32,-33,-20,-1,-12,-41,-46
72,-76,10,-19,-2,-17,-12,-11,-19,-12
-25,-41,-15,-22,0,-19,-20,-27,-14,-31
-21,23,-5,-17,12,-6,-18,-20,-19,-58
-28,-19,13,-20,11,-8,-2,-5,4,-35
-119,-193,-18,-24,7,2,4,7,4,-49
-93,200,65,26,38,50,46,45,18,-37
28,866,184,93,70,79,75,70,67,40
69,503,117,38,19,22,3,-4,14,26
41,-118,45,-20,-32,-39,-49,-77,-74,-60
1,-239,7,-19,-15,-33,-33,-49,-57,-72
-24,-284,-80,-26,-1,-7,3,9,4,-22
-45,-437,-123,-19,21,26,41,39,26,-2
-56,-554,-136,-18,38,50,72,92,52,-4
-7,-272,-154,-26,33,57,91,127,97,58
68,408,-25,5,23,17,45,66,81,114
61,530,106,48,12,-14,0,6,30,74
-20,102,72,30,-11,-36,-43,-22,10,56
-24,7,36,-23,-40,-54,-78,-65,-31,56
9,-8,-28,-72,-34,-30,-38,-26,-24,-8
0,-185,-81,-58,-15,6,7,15,7,-34
-31,-164,-69,-19,-11,15,8,7,3,-33
2,-54,-43,-22,-29,-12,-4,-2,9,-16
48,137,7,0,-13,-9,-25,-7,20,9
55,193,66,47,14,7,0,-4,24,33
0,-20,53,47,25,17,22,5,35,13
-2,-144,19,18,5,4,-3,-12,23,8
0,-204,-16,-11,-13,-9,-25,-34,-4,4
-18,-232,-44,-17,-3,12,-20,-52,-83,-45
5,-103,-43,-36,-20,-5,-10,-47,-84,-64
11,279,8,-24,-17,3,9,-14,-14,-61
-1,489,77,24,17,25,37,12,30,-29
-35,175,57,44,14,8,9,25,36,10
-21,38,21,22,11,-4,-8,23,24,29
118,-51,5,-3,-9,-13,-5,0,7,34
196,-71,7,-19,-35,-27,-26,-9,-22,-6
76,46,46,-8,-17,-11,-33,-37,-79,-113
1,109,59,-35,-24,-26,-60,-72,-82,-74
2,-24,4,-53,-56,-47,-51,-36,-19,37
-75,-169,-64,-26,-10,8,18,42,61,68
-146,-246,-138,-9,32,52,65,78,101,80
-132,-396,-219,-52,27,39,44,61,96,149
-165,-372,-208,-36,38,67,82,83,77,117
-140,42,-19,67,74,92,90,67,47,16
-8,525,231,111,44,22,-4,-1,-9,-72
17,392,281,100,22,-3,-35,-58,-60,-134
73,17,146,41,-26,-53,-47,-48,-45,-98
91,-153,-7,-27,-52,-58,-29,1,22,32
45,-203,-90,-73,-62,-57,-13,-2,23,58
87,-49,-80,-33,-19,-15,-9,-12,-5,5
118,171,-60,17,36,51,28,15,30,51
40,50,-19,35,47,63,32,23,36,84
-35,-65,19,26,22,16,5,28,5,3
-11,-77,57,44,20,-4,-7,-9,-43,-99
-8,-57,70,55,23,-9,-4,-41,-72,-168
-6,40,51,44,41,6,-2,-37,-58,-92
-7,-42,-26,13,19,-5,-9,-24,-9,23
-113,-322,-120,-24,-8,-14,-23,-18,12,63
-190,-263,-114,-55,0,7,20,31,35,57
-208,279,71,-40,-6,0,20,24,26,15
-118,587,176,-31,-32,-47,-61,-41,-11,-29
159,481,110,-28,-66,-68,-71,-50,-37,-36
263,-5,2,-22,-64,-52,-29,-22,-18,-21
156,-441,-132,-5,8,18,13,12,18,27
60,-434,-262,19,117,138,124,93,80,59
3,-25,-176,62,147,179,180,118,94,81
-67,152,33,50,17,33,58,39,40,92
-94,188,136,13,-109,-79,-49,-27,4,17
-118,96,92,-7,-111,-84,-60,-45,-13,-61
-22,-55,19,8,-51,-39,-50,-36,-23,-79
87,-79,2,-10,-29,2,-36,7,21,-25
90,-8,10,-36,-23,23,6,25,12,-35
60,48,27,-41,-20,0,15,12,-18,-58
2,49,24,-24,-10,-21,11,3,-12,-59
-7,5,14,-32,-4,-24,-17,-32,-6,-29
17,-41,-3,-15,10,-26,-67,-68,-10,7
23,-86,-27,0,14,-29,-51,-56,32,84
28,-67,-28,32,29,2,34,19,81,100
16,-68,-29,41,52,31,81,52,56,52
9,24,-5,4,29,19,43,5,-13,-13
20,49,28,-21,0,-6,-10,-42,-59,-47
-35,13,68,-1,11,1,6,-52,-56,-45
-70,373,218,66,27,4,0,-26,-27,-15
-66,446,258,97,41,12,-4,11,6,-85
-27,60,97,20,0,-2,-17,-1,11,-127
28,-134,-76,-60,-48,-44,-49,-27,-4,-78
105,-185,-210,-79,-49,-45,-40,0,12,15
75,-424,-316,-43,22,35,36,71,56,46
34,-464,-313,-18,59,91,103,106,97,174
65,-43,-118,-19,0,17,12,5,27,253
-12,187,86,12,-6,-24,-49,-57,-73,42
-121,271,159,58,35,11,-12,-21,-86,-151
-96,98,101,54,22,8,9,14,-22,-126
-77,-191,-24,-1,0,-9,-10,26,4,-35
-44,-235,-75,-6,15,21,23,34,25,39
22,26,-39,14,27,28,32,30,35,57
21,150,9,-2,-14,-18,-23,-15,-1,54
-17,77,15,-43,-58,-40,-54,-57,-55,-15
-47,-13,16,-45,-41,-29,-44,-63,-94,-129
-22,84,-5,-54,-16,-19,-25,-37,-66,-119
42,222,0,-24,10,4,-2,0,-10,39
75,109,27,-3,10,15,-2,11,32,177
51,-208,22,-12,-34,-26,-6,6,21,67
117,-148,44,28,-43,-55,-4,-3,-16,-47
119,93,73,67,-3,-22,-3,-1,-27,-26
3,24,30,55,30,15,2,5,-25,-45
-86,-74,29,67,40,22,-2,17,-33,-90
-124,-75,0,31,29,10,-1,14,-33,-83
-90,39,-18,-33,-14,-13,-23,-1,-11,-9
-86,226,53,4,3,13,-15,-3,-4,0
-68,290,139,17,-11,-4,-47,-53,-54,6
18,68,75,-49,-83,-83,-109,-130,-122,69
17,-191,-39,-61,-74,-70,-83,-101,-94,119
-41,-325,-138,-33,-7,6,14,14,-2,59
-25,-337,-187,-31,1,37,76,111,105,7
126,-273,-185,-30,-26,10,84,128,123,45
237,-162,-136,-25,-1,25,83,107,99,100
142,9,-38,-21,28,39,30,39,19,16
11,62,51,-1,26,18,-8,-11,-44,-48
-27,40,79,10,1,-7,-40,-43,-52,-16
-85,-85,29,-2,-2,-10,-40,-32,-31,-6
-162,-86,-10,7,24,27,-3,-13,-23,-26
-187,228,89,70,31,9,-22,-51,-66,-67
-77,259,109,48,-20,-62,-78,-87,-83,-92
59,91,7,-16,-39,-52,-62,-52,-31,-32
63,-76,-55,-26,-2,0,24,36,37,11
-11,-19,-26,-4,15,24,54,50,17,-31
-24,323,57,-11,7,25,14,12,-26,-71
5,499,69,-19,12,35,6,7,-35,-71
59,99,-17,-37,7,13,-24,8,-9,7
83,-183,-46,-44,-13,-24,-43,-3,-3,83
29,-211,-35,-16,-17,-17,-27,-11,-1,85
-9,-167,7,22,9,5,-10,0,7,51
-2,-40,74,33,-7,-23,-30,7,19,83
26,66,66,-11,-66,-72,-55,-32,-3,94
85,134,70,-2,-46,-45,-52,-42,-57,-57
204,192,79,41,12,2,1,-22,-73,-135
124,-8,-6,47,31,41,58,26,-42,-99
-49,-410,-124,9,24,43,58,62,3,0
-153,-549,-219,-22,19,65,61,75,55,41
-133,-328,-175,-28,9,47,54,55,60,86
-115,105,-48,-40,-8,-11,-9,-26,40,126
-169,534,77,-45,-16,-37,-60,-77,17,107
-177,431,156,-10,-30,-47,-69,-97,-71,-7
-109,47,142,25,-9,-44,-69,-111,-168,-149
-55,-157,56,30,24,6,-22,-51,-144,-171
92,-35,3,38,35,34,12,26,-22,-49
167,-60,-74,32,28,25,41,87,72,46
169,-378,-183,14,43,43,92,134,113,88
140,-371,-163,12,38,47,98,111,90,69
2,-68,-6,38,5,8,35,38,19,-28
-54,306,102,52,-21,-4,16,45,19,-47
-68,269,116,-3,-36,-3,32,60,52,-27
-44,-26,40,-71,-70,-10,26,36,53,12
20,-29,-5,-79,-67,-53,-3,-7,22,0
39,9,0,-50,-9,-62,-44,-55,-27,4
63,36,18,-9,53,-10,-46,-81,-64,50
82,136,41,17,53,23,-41,-75,-58,48
-23,121,72,35,2,-33,-33,-51,-23,30
-122,-40,52,27,-3,-28,-10,-29,-37,-38
-53,-94,-8,-11,-12,-14,-5,9,-16,16
-11,-136,-52,-51,-32,-13,-17,-3,0,31
-16,-232,-102,-69,-13,0,-13,-12,19,28
37,-234,-185,-57,17,37,47,42,96,66
65,-140,-161,-10,49,83,108,98,85,50
87,234,48,60,70,59,67,48,9,5
41,394,184,132,99,39,10,-12,-71,-94
80,49,140,103,79,30,20,9,-63,-123
56,-57,102,30,6,-28,-13,-11,-51,-108
-63,146,103,-36,-63,-71,-71,-50,-62,-110
-87,178,79,-57,-62,-72,-76,-59,-34,-57
-99,38,40,-37,-21,-30,-49,-44,-23,14
-108,-50,-29,-37,-22,-15,-35,-54,-30,51
-128,-154,-101,-38,-37,-38,-36,-55,-53,-23
-122,-155,-143,24,33,59,80,67,49,-27
47,114,-133,40,99,143,146,161,150,64
122,220,-40,-6,25,57,47,65,92,42
49,16,15,-36,-55,-29,-41,-33,-13,-12
-4,-17,14,-46,-75,-79,-62,-62,-28,3
61,75,9,-40,-95,-98,-48,-12,46,86
62,38,40,-11,-60,-61,-6,11,28,31
32,39,58,9,10,4,20,8,-17,-9
22,71,91,18,30,15,10,-13,-37,-9
28,122,134,43,17,-10,-30,-53,-60,-16
8,-30,81,52,22,0,-34,-50,-75,-36
42,-208,-17,35,12,-8,-29,-10,-3,40
84,-320,-118,5,16,0,-15,-1,35,47
57,-378,-199,-50,9,1,1,24,63,50
-15,-253,-170,-37,25,32,58,56,91,43
-80,80,-44,4,38,59,79,56,85,27
-82,309,35,-9,-13,12,16,16,30,-15
-75,345,80,1,-19,10,-9,-28,-33,-65
-63,194,80,-16,-15,-5,-11,-35,-39,-33
-30,87,74,-30,-10,-17,4,-24,-33,-16
58,118,148,11,-21,-29,-28,-51,-75,-57
99,51,173,52,-8,-28,-56,-62,-82,-34
111,-103,50,13,-28,-37,-47,-49,-26,28
94,-220,-112,-65,-51,-47,-28,-4,13,61
-64,-315,-193,-32,22,40,65,75,63,39
-155,-484,-209,18,83,117,128,132,114,2
-94,-359,-201,-2,73,106,119,136,121,-10
-90,11,-84,-11,36,36,53,46,44,-83
5,358,74,0,0,-32,-32,-37,-32,-103
65,350,130,18,7,-25,-32,-24,-19,-27
22,49,62,-5,-30,-37,-49,-31,-5,70
4,26,40,-5,-46,-53,-64,-63,-24,131
-42,265,89,32,-19,-26,-33,-33,-38,3
-46,282,133,62,4,-7,-10,-19,-41,-106
-12,116,141,91,3,-25,-26,-37,-54,-124
-4,-112,38,38,-22,-21,-5,-7,-15,-52
43,-230,-85,-36,-47,-15,-14,21,37,36
90,-305,-137,-43,-18,13,-27,-18,26,90
26,-340,-142,-20,38,42,-2,-18,22,95
-25,-252,-168,-58,13,28,39,29,64,166
19,229,-37,-40,12,20,22,19,42,118
62,624,110,-4,-1,3,12,1,-6,-13
35,253,86,-6,-34,-36,-18,-15,-34,-96
-24,-244,41,21,-23,-35,-7,-4,-43,-113
-16,-282,46,54,33,1,19,1,-42,-127
83,-106,62,52,56,29,25,-15,-52,-100
78,76,29,31,10,24,25,-20,-54,-30
20,206,-27,-11,-27,9,16,14,0,30
-52,129,-67,-57,-73,-24,0,11,53,107
-118,7,-101,-86,-81,-25,-5,-8,60,142
-89,-8,-60,-35,-39,16,15,31,43,34
28,23,11,14,11,0,15,25,17,5
89,-106,22,27,25,-27,-32,-18,-4,67
48,-164,-1,37,34,-8,-12,-18,-8,32
-56,-4,37,63,42,10,4,4,-3,-46
-84,163,149,80,52,28,10,-5,-10,-90
-122,169,155,44,42,39,2,-6,-3,-68
-173,47,77,14,20,8,-5,0,14,-52
-90,-252,-33,-25,-26,-37,-23,-23,-11,-61
126,-73,-115,-15,-17,-13,-3,7,0,-17
225,358,-112,39,72,68,89,106,102,90
99,213,-90,57,98,97,103,121,124,120
-30,69,-48,-13,4,20,16,21,34,23
-109,-12,-18,-81,-92,-60,-71,-70,-42,-65
-109,-207,-23,-73,-65,-24,-44,-60,-57,-54
-75,-218,-2,-11,0,8,0,-19,-35,-26
-49,-71,48,22,2,-1,-12,-19,-45,-23
-20,-47,34,-10,-69,-26,-7,-10,-34,-7
1,-78,-8,-27,-62,-14,35,25,33,72
69,-3,11,7,-11,-15,18,22,65,112
86,85,40,17,-13,-28,-15,-13,40,58
40,83,41,11,-26,-55,-58,-71,-50,-34
0,46,28,5,1,-49,-58,-75,-70,-99
-30,34,17,-11,16,-24,-35,-29,-27,-100
-40,11,-14,-17,26,-4,-12,7,0,-61
5,-19,-31,-5,38,12,1,5,-2,-40
23,-44,-37,14,36,29,29,20,3,16
59,-33,-14,17,19,36,23,51,49,136
39,21,36,13,6,25,18,29,18,49
46,1,39,10,4,2,9,28,26,-11
49,-98,-24,27,31,49,26,60,63,-8
38,-193,-64,39,51,72,63,72,78,30
25,-202,-87,-8,16,22,25,11,37,58
14,-132,-79,-68,-52,-31,-16,-17,7,64
19,24,-39,-92,-68,-30,5,0,19,54
86,389,46,-50,-49,-26,-25,-14,7,79
67,396,90,15,-1,1,-26,-22,-2,-4
-60,79,69,27,16,15,-9,-20,11,-65
-103,9,66,15,-2,-16,-15,-53,-18,-87
-96,22,89,52,10,-33,-23,-64,-56,-113
-74,-67,63,79,16,-41,-32,-58,-79,-76
1,-302,-61,18,10,-15,-15,-24,-51,5
41,-489,-158,-17,13,37,37,36,0,17
44,-548,-207,-45,-2,37,63,61,39,-17
24,-193,-147,-70,-37,-11,14,19,28,2
-7,638,53,-3,0,10,13,34,33,-5
-24,829,154,55,50,40,47,34,6,-47
-26,429,110,40,27,14,9,-8,-27,-8
-32,222,94,38,20,19,3,2,14,63
-76,-77,69,25,8,12,16,8,25,64
-89,-292,-19,-37,-33,-20,-13,-2,20,72
-56,-198,-44,-47,-23,-14,-9,2,28,-20
-36,-89,-1,-18,2,12,-4,-5,5,-123
25,-68,6,-21,-19,-8,-16,-3,0,-100
96,63,34,1,-4,-12,-17,11,15,-20
91,164,75,41,14,3,-21,-14,3,87
59,27,17,-15,-38,-51,-50,-55,-40,198
22,-115,-82,-66,-68,-59,-71,-73,-59,128
-4,-88,-87,-19,3,25,12,-3,-33,-25
40,60,11,6,23,25,33,26,-11,-24
80,62,25,5,-2,-12,1,3,3,18
75,-63,0,9,11,0,0,19,22,18
43,-206,-4,24,41,26,45,48,41,15
8,-235,0,36,33,29,37,44,22,0
6,-194,-21,14,2,5,8,26,18,3
-5,-59,-57,-8,16,23,29,17,6,-45
-94,50,-5,7,12,5,9,-15,-58,-182
-91,91,20,-8,-16,-37,-37,-57,-83,-196
12,138,28,-23,3,-7,-10,-47,-73,-148
8,217,46,5,43,37,7,-4,-54,-80
-33,127,4,-4,44,17,16,11,-2,23
-47,-51,-69,-19,16,-3,6,9,47,96
0,-52,-66,1,-4,-7,23,40,78,150
24,-60,19,48,13,-2,10,19,53,97
100,-180,25,27,-6,-47,-60,-32,29,122
155,-208,-30,-10,-15,-44,-44,-8,19,30
58,-115,-12,-9,9,-18,-15,-39,-58,-112
-41,26,33,-5,16,11,-3,-55,-66,-63
-72,378,87,15,0,4,-32,-28,-10,91
-158,355,83,47,19,19,-30,-1,42,123
-252,-126,-10,53,55,61,20,40,78,97
-237,-568,-146,21,47,65,68,64,66,33
-151,-428,-186,-18,42,103,100,83,50,-78
-65,119,-88,-56,-26,59,70,42,8,-133
97,335,31,-98,-169,-87,-45,-36,-37,-35
190,403,127,-69,-182,-137,-90,-63,-45,44
159,589,162,3,-93,-68,-34,-19,-25,2
86,340,122,48,16,16,9,11,-21,-55
39,-38,51,46,64,54,18,-4,-23,-85
17,-92,-22,-14,40,32,18,-11,14,-42
30,18,-5,-25,10,-8,-18,-20,5,11
2,0,48,-14,-22,-42,-53,-34,-21,56
-9,-70,39,-22,-42,-58,-52,-42,-25,76
-14,-162,-31,-51,-69,-67,-31,-1,2,22
-35,-232,-68,-29,-25,-24,-8,29,14,-25
-1,-319,-60,42,66,56,40,35,25,-27
3,-437,-80,68,93,79,91,70,51,-15
19,-164,-46,45,82,78,101,86,58,11
31,295,73,-3,17,11,25,2,1,23
84,396,104,-47,-43,-60,-64,-72,-27,65
82,212,58,-37,-41,-51,-79,-90,-40,-1
24,-68,-18,-8,-30,-39,-48,-51,-31,-35
-79,-335,-107,17,16,12,2,8,17,-27
-72,-411,-181,1,64,68,84,98,98,4
6,-213,-164,16,74,91,124,125,115,18
-25,29,-15,37,47,53,74,61,50,-31
-8,128,79,41,11,-1,3,-6,7,-38
0,183,143,56,-16,-60,-85,-86,-40,-4
-21,173,141,45,-11,-64,-102,-130,-93,8
17,99,50,-14,-12,-34,-46,-85,-80,73
51,47,-9,-49,-22,-22,-20,-25,-19,73
33,36,-14,-22,-17,-11,-15,5,25,-30
-5,74,43,54,18,9,7,19,30,-76
52,69,45,55,27,19,27,26,48,10
56,-1,10,16,11,12,27,13,16,0
-42,-75,2,-16,-10,-9,4,-24,-42,-75
-48,-145,-69,-69,-44,-29,-14,-24,-13,-20
22,-59,-113,-58,-19,10,13,32,44,72
26,-10,-90,-11,26,68,67,76,93,164
-71,-100,-64,-11,30,45,62,50,71,102
-70,-137,-33,-37,-22,-38,-9,-15,-12,-70
-39,-27,-3,-40,-44,-42,-16,-12,-39,-103
-29,313,78,7,4,17,14,12,-21,-69
-15,362,137,62,31,21,-17,-21,-43,-79
2,92,112,81,30,9,-24,-37,-39,-43
-1,-88,36,44,24,16,-12,-6,-14,2
6,-184,-16,3,6,-2,4,3,1,11
34,-160,-34,-8,2,2,19,12,19,8
35,-55,-26,-2,-3,12,4,2,2,-29
36,92,7,6,-9,-3,-1,-15,-30,-50
52,160,-15,11,22,15,26,15,-4,-8
31,-89,-72,-6,29,38,37,37,35,51
-9,-338,-82,-25,-7,17,15,12,50,84
2,-173,-33,-43,-38,-30,-13,-32,10,42
22,153,1,-46,-38,-17,7,1,29,16
-17,179,30,-19,-3,22,38,46,48,-11
-41,102,28,-22,-3,10,16,39,34,-24
-2,269,56,-19,-18,-24,-45,-21,7,-29
25,115,7,-29,-43,-46,-67,-64,-32,-50
22,-92,-37,-20,-42,-37,-45,-38,-18,-103
-15,-46,41,56,32,20,10,4,-17,-176
-58,104,100,95,66,65,39,16,-52,-148
-117,216,71,50,4,18,16,-18,-86,-70
-57,189,49,-9,-45,-36,-21,-34,-56,74
17,-46,43,-24,-55,-47,-34,0,16,246
-21,-172,20,-24,-51,-53,-64,-51,5,228
-4,-65,23,-2,-9,-26,-78,-94,-51,71
59,-133,-27,16,31,26,-2,20,28,64
44,-153,-70,31,62,55,43,75,56,17
40,-140,-76,35,61,41,43,60,35,-26
28,-245,-130,18,63,56,33,47,23,-7
-41,-308,-184,-44,35,57,45,68,47,23
-37,-94,-148,-62,13,31,49,72,69,25
20,339,35,-17,10,4,6,35,30,-33
74,383,140,10,0,-24,-50,-13,-23,-88
130,117,71,-14,-38,-32,-77,-59,-90,-111
156,29,-3,-23,-46,-3,-34,-59,-129,-70
63,45,-1,-6,-24,10,-1,-50,-138,8
-62,-26,1,6,-16,-14,-8,-39,-114,35
-149,-117,22,9,-37,-44,-9,5,-47,44
-135,-89,49,15,-53,-65,-24,13,-12,46
-138,-85,20,26,-10,-29,-14,18,1,0
-90,-88,-25,10,40,18,10,30,15,-6
-12,-77,-32,-10,32,15,22,12,1,32
68,-76,-45,-39,-17,-22,-35,-31,-31,104
98,13,-16,-26,-23,-33,-34,-30,-45,0
151,276,72,6,-8,-12,-20,-12,-9,-85
92,376,70,-8,-24,-11,-11,-7,-11,-95
9,127,-3,-30,-34,-9,-17,0,-71,-114
-20,26,36,-5,-2,0,-12,6,-59,-90
-24,5,102,29,-8,-18,-26,-13,-45,-43
-77,-106,86,37,-34,-35,-37,-37,-34,13
-136,-173,35,38,3,-34,-43,-44,-12,76
-70,-232,-85,-21,3,-45,-54,-51,2,133
13,-288,-188,-56,1,-12,-27,-18,3,184
-11,-275,-215,-24,61,85,72,93,76,128
-25,-55,-130,7,74,111,108,126,110,26
0,229,26,1,28,38,46,52,44,-63
44,431,133,4,-6,-8,-17,-14,-40,-88
75,241,89,-1,-28,-32,-36,-39,-68,-36
9,-99,21,6,-21,1,-11,-22,-40,-44
-14,-47,16,33,30,72,52,23,-8,-81
15,-46,-13,10,12,44,50,37,15,-56
76,-75,6,-26,-65,-32,-25,-6,9,-16
58,-72,-31,-69,-109,-74,-62,-49,-22,-32
11,-141,-102,-68,-62,-48,-32,-26,-14,-34
5,-102,-85,-17,26,-4,6,-1,20,40
62,-76,-24,-3,43,8,8,13,33,129
-3,52,16,-10,26,8,14,25,49,33
-180,79,68,21,32,31,8,15,46,-106
-116,-40,47,10,13,-7,-22,-4,35,-23
41,119,46,12,0,-8,-18,-16,20,89
21,491,97,65,37,33,10,-10,-3,49
16,304,64,78,55,26,-9,-46,-74,4
-9,-196,-50,16,1,-20,-36,-80,-117,57
-139,-354,-78,-26,-29,-31,-21,-26,-55,14
-114,-182,-1,33,5,0,22,12,-22,-100
18,-18,55,47,16,3,17,11,-15,-83
63,-9,42,31,1,0,15,13,13,8
74,-142,-84,-10,6,23,32,43,55,65
90,-211,-120,-26,31,59,59,73,72,52
123,-111,-59,-51,-8,0,18,37,30,-7
119,131,35,-61,-53,-65,-48,-24,-12,-65
-1,237,112,-18,-44,-51,-48,-33,-39,-80
-98,3,48,-7,-32,-30,-37,-36,-28,0
-109,-3,-16,-9,-12,-1,-14,5,46,131
-54,259,6,20,20,33,7,35,95,210
-83,48,5,27,26,35,0,14,43,53
-132,-168,-22,5,14,33,13,29,-9,-145
-32,-95,-33,15,31,54,52,43,-35,-139
35,78,7,26,41,53,44,2,-92,-86
138,103,41,0,-17,-18,-26,-33,-86,69
148,-11,45,-9,-52,-65,-67,-43,-16,107
0,-53,59,33,0,-8,-19,-17,-1,-33
-8,14,55,30,10,-3,-7,2,-13,-86
32,119,45,-6,-17,-16,-12,-4,-23,-47
30,93,34,-26,-35,-43,-49,-43,-36,4
-1,-78,-9,-43,-32,-39,-54,-65,-46,-13
0,-154,-20,-45,-43,-57,-51,-50,-6,7
-1,-162,-59,-45,-56,-67,-46,-29,-3,14
5,-15,-78,-30,-24,-16,-19,-13,-10,-11
-4,296,-78,-19,31,70,62,49,41,7
-82,121,-53,34,85,126,126,91,58,-14
-87,-145,-36,85,99,118,128,100,50,-22
-42,-346,-92,25,28,43,76,63,31,-26
-2,-337,-92,-32,-61,-39,17,23,32,0
23,-129,-23,-9,-51,-40,20,45,49,31
47,159,77,13,-3,-32,3,31,12,50
33,256,127,4,-18,-51,-61,-31,-11,64
-24,244,76,-14,-51,-61,-63,-48,-17,-27
38,195,37,2,-10,-11,-23,-25,-1,-67
127,126,20,23,37,25,-17,-29,-7,17
108,-31,-17,3,8,19,-9,-20,4,63
-10,-106,-29,-10,-17,0,-10,11,26,-4
-94,-81,-18,-17,-6,3,11,30,47,-81
-18,-25,-11,-30,-1,-1,23,18,38,-64
0,4,-15,-37,-20,-31,1,0,25,-18
-36,52,-6,-24,-16,-28,-29,-9,14,13
-28,55,35,2,10,16,-7,-47,-51,47
48,0,55,7,2,17,-12,-67,-79,200
0,-22,57,39,-3,5,12,-33,-35,150
-153,-38,40,50,6,6,42,12,2,-48
-61,-54,-10,24,20,15,44,43,20,-81
30,-127,-30,30,64,41,47,43,31,-36
30,-307,-32,66,103,68,23,-3,31,-4
-34,-231,-42,33,51,38,3,-1,30,-20
-66,-81,-34,-22,-11,0,8,28,34,-51
-58,12,-38,-50,-15,9,22,29,38,-42
2,197,-4,-30,-5,0,14,-1,14,23
68,402,83,1,3,-19,2,0,-3,46
80,233,58,-10,-23,-21,-5,5,15,48
93,7,-19,-24,-29,-17,6,7,44,56
51,-46,-20,-8,-4,-2,9,9,25,-2
-30,-82,0,0,7,7,7,10,-3,-63
-106,-136,-29,-16,-7,-9,-6,-2,-2,-72
-102,-46,3,5,-13,-14,-11,-17,3,-46
-26,148,52,5,-21,-29,-17,-30,3,-7
29,160,55,-18,-42,-62,-45,-45,-14,0
108,42,42,-13,-43,-58,-47,-54,15,65
166,10,38,0,-22,-42,-45,-49,5,42
83,-9,31,27,7,-4,-28,-38,-36,-74
-8,19,25,25,13,0,0,-1,-19,-76
-51,80,0,38,43,31,31,48,25,-17
-100,98,-22,51,64,71,63,68,45,-27
-128,-22,-29,-13,0,15,29,8,23,-108
-108,42,-13,-32,-23,-9,1,-1,17,-103
-35,-11,-9,-23,-18,-10,-5,-7,-11,-45
114,-220,-39,-33,-22,-18,-6,-2,24,65
148,-29,1,40,36,37,27,17,45,193
135,68,41,72,66,60,61,22,23,299
7,-408,-123,-28,-13,6,23,-8,-9,197
-219,-587,-239,-76,-21,22,38,26,13,-102
-176,-14,-161,-51,41,102,118,110,126,-123
10,555,3,-13,65,105,121,99,159,-21
102,546,87,-12,-7,-2,14,16,74,36
108,453,133,15,-36,-52,-57,-46,3,112
59,95,115,48,-25,-46,-77,-75,-35,85
31,-179,40,15,-17,-21,-56,-54,-36,-5
20,-199,1,2,-9,-7,-31,-22,-36,-51
-3,-159,14,24,17,0,-32,0,-20,-94
-25,-103,32,26,39,0,-12,10,-31,-103
-18,-55,79,16,31,-2,9,26,2,-57
-9,-49,50,2,8,-17,-8,29,14,-26
-41,-165,-14,6,5,-32,-14,-6,-26,-38
-38,-165,-33,26,3,-31,-42,-50,-65,-29
20,-37,-30,37,-4,-33,-60,-74,-107,-45
107,77,-18,20,-13,-8,-24,-51,-101,-33
39,279,-1,-7,1,32,25,5,-39,-7
-52,242,31,-19,-25,21,26,21,-32,-42
18,115,31,-30,-59,0,37,51,29,27
42,63,-22,-50,-57,12,72,80,80,66
-12,-101,-52,-42,-15,32,69,65,81,26
-17,-177,0,-23,30,0,13,12,43,-1
-7,-41,59,-24,-10,-63,-56,-58,-29,0
-37,12,23,-24,-37,-70,-92,-81,-52,72
-99,-42,-33,0,-1,-27,-68,-51,-24,4
-113,119,19,30,37,-13,-21,-35,-28,-129
9,254,47,26,16,-32,-7,-4,0,-115
150,21,-47,14,41,26,55,62,67,12
128,-214,-142,-12,76,103,113,121,136,191
36,-196,-84,-21,28,59,68,43,73,251
-24,-99,10,-11,-14,-4,-10,-37,-29,105
-73,-110,-13,-7,-25,-7,-31,-32,-48,-21
-104,-67,11,27,-17,3,-34,-34,-47,-65
-76,117,93,15,-62,-65,-80,-50,-36,-41
0,104,79,-2,-52,-61,-47,-28,-16,-50
25,-68,13,2,-5,-15,-7,4,-22,-75
-7,-142,-29,11,28,33,-10,5,-41,-59
-37,-239,-63,3,67,68,-2,0,-48,-27
-21,-204,-107,-37,46,30,3,-12,-27,27
42,-46,-105,-67,-5,-5,25,-3,6,62
133,338,-28,-61,-26,1,40,8,50,111
143,660,105,6,-7,-12,12,12,24,39
41,340,148,49,-10,-41,-25,-18,-55,-61
-52,4,120,59,5,-21,-30,-31,-90,-96
-65,-103,100,97,35,-2,-12,-18,-82,-65
0,-111,43,56,18,-15,-18,-13,-61,-16
50,-195,-45,-16,-8,-25,-19,17,-3,16
72,-233,-87,-47,-21,-17,-23,11,8,22
34,-192,-39,-44,-31,-44,-49,-41,-40,-9
-60,-279,-46,-23,-19,-30,-37,-12,-36,-27
-68,-339,-132,-20,13,25,21,45,3,-43
39,-64,-114,-12,38,52,53,59,35,19
14,90,-85,-29,24,34,36,17,29,112
-68,-43,-52,-41,0,26,33,10,9,59
-78,144,96,-40,-55,-42,-37,-27,-35,-13
-57,676,214,4,-62,-77,-88,-40,-84,-29
-58,673,134,28,-5,-4,-25,-1,-78,-33
-143,69,-23,17,44,52,22,15,-51,-72
-56,-229,-74,-2,50,59,44,39,9,-31
69,-235,-57,-28,-11,19,8,31,42,10
89,-186,-26,-27,-35,-15,-16,13,22,-26
73,-119,36,13,-18,-25,-14,-12,-49,-110
29,-76,38,28,18,5,2,-1,-88,-143
24,-39,5,23,25,16,39,12,-59,-75
80,45,-22,0,-1,-10,27,23,18,56
76,80,-45,-17,-42,-38,-1,21,100,180
-9,1,-11,10,-13,-20,-29,-16,84,221
-122,-138,19,27,3,-1,-51,-55,-6,176
-132,-101,49,40,23,0,-48,-56,-70,33
-51,103,82,45,12,-10,-40,-51,-102,-62
-79,214,42,10,-20,-29,-37,-45,-82,-82
-108,125,16,-17,-30,-50,-34,-49,-53,-104
18,56,22,-11,-22,-41,-17,-23,-22,-62
106,-62,-7,4,12,-4,25,47,40,-28
157,-229,-69,11,42,46,77,91,91,33
115,-260,-65,14,46,55,97,96,97,54
13,-262,-62,-11,16,43,77,79,67,41
-36,-289,-94,-33,-6,33,40,39,39,-18
33,83,-38,-25,-27,5,-3,4,42,8
52,432,42,-37,-54,-34,-51,-44,4,28
0,250,1,-43,-34,-20,-42,-41,9,51
-65,-114,-57,-6,31,51,16,1,33,56
-119,-174,-11,19,43,58,42,27,-1,-41
-92,61,114,21,18,-3,10,18,-13,-79
-18,64,115,12,-8,-39,-32,-8,8,-27
84,-112,11,-7,-30,-56,-60,-48,8,8
53,-195,-57,10,-7,-35,-46,-49,4,-30
-26,-216,-87,1,2,9,-1,-9,5,-25
-37,-189,-60,-9,5,22,19,16,0,-16
-48,81,-5,-26,7,10,13,22,-4,-55
-55,194,59,-8,17,14,16,7,-36,-114
62,547,134,33,33,22,21,5,-15,-33
99,676,113,13,12,-5,-14,-23,-3,44
59,348,33,-4,-18,-32,-31,-63,-49,122
41,-32,5,-4,-23,-21,-16,-57,-43,96
0,-194,37,-3,-21,4,0,-18,-15,5
-5,-192,-4,-17,-36,-7,-7,6,23,9
-6,-130,-83,-43,-37,-32,-28,-5,46,53
20,-187,-116,-33,-20,-37,-51,-37,16,45
29,-132,-63,-22,-16,-20,-6,20,37,-16
-16,-86,-30,-21,13,32,59,62,86,-48
-56,-160,-23,38,83,101,92,62,24,-88
8,-68,9,70,84,67,53,34,0,-48
41,74,40,61,60,41,24,11,-15,-36
48,170,75,84,40,23,17,0,-12,-24
84,109,85,80,17,14,14,-16,-5,19
89,148,107,23,-59,-36,-27,-28,3,63
19,175,114,-9,-106,-69,-80,-88,-39,63
-56,80,65,-55,-118,-83,-86,-97,-72,-1
-62,-51,-14,-62,-98,-35,-34,-28,-33,1
-57,-211,-122,-56,-27,-2,0,26,-3,-14
-67,-402,-266,-73,30,33,41,48,38,-1
-83,-390,-258,-34,67,90,102,85,94,43
-19,-117,-75,8,53,50,79,77,108,71
-9,1,9,20,18,8,66,63,76,-19
-33,52,67,57,9,-1,28,47,0,-136
8,105,70,37,16,3,-3,30,-2,-113
11,79,37,13,43,23,-25,-24,-13,-69
-1,160,79,40,46,16,-28,-68,-50,-71
43,302,116,36,4,-29,-34,-54,-9,63
101,151,38,-19,-45,-56,-41,-28,49,179
105,-71,-73,-62,-50,-25,-19,9,49,127
53,-110,-50,-16,7,15,9,7,18,26
11,-12,15,14,27,2,-27,-34,-15,-3
-23,52,41,2,7,-6,-37,-57,-65,-74
37,97,23,-17,-17,-15,-33,-23,-39,-40
91,62,3,-20,-28,0,-16,-4,19,45
-12,-25,-6,3,-10,17,9,-25,7,23
-138,-45,-30,2,-14,-4,15,-7,21,-40
-163,21,-7,0,-8,-2,3,20,16,-52
-118,66,37,16,10,0,14,32,11,-18
-180,-4,57,47,32,11,21,2,0,-33
-207,-57,34,69,45,31,33,1,-11,-40
34,-62,8,37,53,43,62,20,16,-18
213,-64,-12,-2,17,18,21,26,53,57
188,-92,-52,-30,-22,0,1,32,73,157
59,-159,-85,-30,-2,19,54,63,84,99
-119,-209,-63,-20,9,15,71,46,50,-55
-140,-107,0,4,19,-6,15,-4,-10,-126
-7,32,15,-8,0,-21,-31,-44,-61,-91
95,131,-19,-39,-15,-20,-44,-50,-54,-20
97,274,-61,-51,-15,0,-16,-9,4,66
150,459,0,-35,4,15,19,38,68,177
-8,149,67,14,11,25,18,37,56,37
-153,-137,127,47,9,0,5,1,7,-114
-108,13,160,66,2,-6,-13,-28,-28,-135
-54,83,82,27,-21,-9,-25,-44,-38,-69
21,-137,-34,-34,-73,-72,-61,-90,-43,86
105,-266,-75,-36,-59,-77,-41,-65,-13,120
64,-215,-83,1,20,40,58,46,55,75
39,-258,-115,5,35,55,77,107,127,91
5,-259,-102,-27,-7,6,33,47,70,11
-6,0,-40,-21,11,0,15,-19,-6,-43
42,242,-1,-8,37,20,23,-13,-11,-26
70,343,30,14,47,39,16,-17,-10,-47
40,4,-28,-3,15,16,-16,-34,-13,-55
-45,-263,-72,-7,-6,13,-22,-9,-14,-58
-90,108,66,67,24,33,22,10,3,-62
-56,540,157,90,44,41,53,37,30,-42
20,493,95,32,21,47,64,54,59,-15
67,229,63,10,15,34,53,55,58,11
37,-99,62,13,-5,-6,13,34,47,9
-39,-445,9,0,-56,-43,-5,9,31,3
-61,-346,-43,-40,-78,-72,-24,-19,13,61
-30,-144,-70,-85,-80,-98,-97,-94,-51,103
-67,-33,-28,-46,-49,-69,-97,-92,-88,-38
-81,-14,4,10,2,-7,-41,-24,-55,-95
54,28,12,20,45,15,11,10,-5,25
165,102,1,-10,36,4,18,18,11,107
162,109,0,-26,6,-13,-20,0,-9,59
85,151,1,-24,-10,-16,-28,-6,-8,-14
-14,161,10,-17,-19,-24,-26,-2,1,-30
-52,25,3,5,-10,-16,-28,-24,12,19
-115,-108,-16,4,-2,-7,-12,-22,16,-39
-179,-187,-3,36,31,26,47,37,24,-116
-145,-269,-24,57,58,48,65,57,36,-71
-80,-290,-22,78,68,66,74,44,21,-46
32,-172,-20,29,36,33,29,20,10,12
51,-39,-20,-13,7,4,-4,-1,18,35
47,84,8,-4,-5,0,4,10,36,19
48,245,28,-22,-26,-18,-11,4,3,32
51,170,0,-42,-17,-11,5,-3,3,104
57,61,-25,-30,-10,-3,3,-7,14,128
20,36,-5,0,-21,-13,-30,-45,-33,27
-17,38,53,54,25,14,-14,-68,-112,-115
-11,60,55,54,27,23,8,-17,-80,-101
3,-3,-25,-31,-28,-12,14,33,20,-11
-6,-23,-64,-60,-66,-56,-10,13,20,-5
28,32,-19,-40,-63,-79,-70,-55,-37,-42
16,91,18,-31,-47,-44,-61,-36,-53,-34
45,244,53,-2,-12,4,-23,7,-18,18
66,122,38,23,26,21,-4,40,5,16
38,-145,-3,11,22,20,9,49,19,18
-16,-178,-32,0,9,3,-6,-1,-4,3
-48,-128,-32,0,-8,-21,-17,-27,-29,10
12,-142,-29,-17,-34,-37,-25,-17,-6,109
38,-53,-27,-36,-49,-47,-30,-31,-6,108
-8,-2,-2,9,-3,-12,-3,-18,-47,-1
-30,-96,6,51,15,23,40,52,-28,-43
-7,-208,-43,55,48,63,73,79,27,16
-23,-189,-57,37,85,59,53,42,27,2
-68,20,-7,-15,21,-11,-19,-18,-29,-86
-34,432,106,-10,0,-28,-27,-27,-52,-91
36,520,106,6,9,0,-13,-7,-49,-9
46,53,-4,-19,8,-4,-18,-29,-38,18
27,-237,-48,-21,8,-16,-39,-64,-91,-80
63,-363,-38,2,-8,-13,-36,-53,-126,-145
54,-469,-88,-7,-26,-18,-31,-35,-74,-71
92,-246,-77,12,13,27,31,38,14,10
274,381,17,39,53,79,71,107,92,115
261,202,-32,-52,-60,-15,-2,48,69,284
2,-248,-102,-121,-144,-71,-39,10,25,218
-348,-118,-66,-112,-105,-47,-22,14,13,15
-509,271,15,-46,-8,-19,-24,3,-21,-75
-399,740,110,18,42,7,-22,-26,-64,-43
-224,628,93,33,36,0,-16,-18,-51,18
19,-22,41,30,-8,-33,-25,-19,-19,66
156,-293,15,24,-22,-42,-18,-14,-38,-22
122,-200,67,59,16,-2,-2,-32,-99,-142
94,-48,139,68,24,4,-20,-40,-111,-113
84,48,145,53,31,20,5,3,-24,8
26,2,59,-3,29,30,24,19,-3,2
-29,-228,-57,-78,-31,-23,-12,-11,-36,-77
-2,-266,-92,-69,-69,-67,-45,-18,-40,-66
82,-203,-106,-31,-17,-12,-20,4,10,39
97,-134,-137,0,58,60,47,58,58,92
91,-67,-133,-15,37,39,43,62,45,63
36,73,-58,-17,24,29,17,35,32,-7
10,247,52,26,54,49,2,12,10,-24
1,58,57,38,26,22,-5,-15,2,-4
-25,-215,2,20,0,-7,0,-12,-11,-4
-83,-139,-15,2,11,2,8,-7,-23,-71
-74,95,13,15,-7,-3,-5,0,-9,-65
-11,46,4,16,-16,-2,-10,2,7,20
53,-11,-11,-22,-18,-4,-4,-3,15,55
62,98,24,-15,-18,-16,-11,-8,26,20
52,27,9,-9,-23,-24,-3,-7,26,62
23,-81,-19,-9,-14,-21,0,-17,5,100
-62,-86,16,22,5,-7,13,-11,-12,15
-60,-57,29,21,0,4,1,6,10,-92
-29,40,17,-15,-16,-13,-17,1,-11,-129
-35,5,7,-30,-23,-33,-50,-44,-62,-118
-30,-53,-3,1,-7,-14,-23,-20,-44,-82
14,175,10,44,42,27,24,28,10,-43
154,272,25,45,37,6,0,16,72,145
185,123,2,12,-4,-38,-43,-10,101,289
10,-95,-46,-19,-23,-22,-26,-24,29,129
-113,-23,-20,-17,15,21,11,-1,-17,8
-93,67,-1,16,37,67,40,7,-29,-5
-71,-236,-68,-4,18,48,48,30,-22,-71
-49,-308,-89,-22,14,37,54,44,5,-91
-39,-60,-14,5,6,13,51,22,19,-40
-48,209,84,49,-1,-15,-1,-43,-31,16
-38,244,149,78,9,-11,-26,-51,-98,-45
-4,153,108,36,-14,-16,-32,-29,-87,-59
28,-4,36,7,-37,-32,-40,-5,-34,-32
65,-87,14,-21,-35,-44,-37,-4,11,11
44,-133,-29,-61,-33,-37,-20,-16,2,24
12,-37,-32,-33,-4,-14,8,18,-3,23
32,76,-35,-6,-2,3,23,38,32,80
1,-42,-69,-21,-23,-12,-7,21,17,66
-64,-178,-93,-22,1,0,3,19,-17,-29
-24,-83,-91,-15,28,53,58,68,41,-16
70,135,-32,-24,4,32,37,54,74,44
66,69,5,-33,-20,-15,-18,-23,21,0
13,-29,8,-13,-11,-22,-23,-40,-24,-49
-11,-73,26,24,3,-1,-19,-35,-25,-34
-56,-52,55,51,22,12,-18,-43,-39,-22
-137,-23,71,55,34,29,5,-21,-65,-105
-80,21,51,19,17,27,-3,4,-27,-124
51,46,10,-36,-21,-6,-25,7,24,-42
67,-17,-24,-28,-16,-4,8,35,39,10
87,30,-22,-23,9,0,30,25,43,142
131,106,-1,-36,-22,-20,-15,-31,13,206
80,-26,-21,-49,-60,-61,-51,-63,-7,95
-85,-149,-41,-38,-28,-27,-26,-25,-7,-57
-99,77,12,21,59,67,20,-4,7,-45
5,278,57,74,91,109,46,50,59,18
36,-55,-31,62,74,85,78,73,72,3
1,-195,-80,8,32,26,68,45,28,-3
0,26,-4,-17,-28,-50,-19,-31,-30,50
-8,25,46,-14,-59,-73,-73,-57,-39,71
-89,-52,50,3,-41,-59,-60,-46,-31,-29
-114,-19,46,24,-5,-5,-21,-14,-31,-107
-63,65,32,25,28,23,31,0,-15,-82
39,109,-10,13,19,8,36,11,12,-5
132,33,-48,0,-10,-8,13,11,27,23
156,-91,-87,-38,-8,-7,13,17,41,45
122,-194,-110,-22,18,22,50,49,67,24
4,-197,-53,9,42,40,44,47,67,-65
-118,-113,31,18,18,25,32,21,35,-126
-96,161,95,-3,-49,-43,0,13,38,-71
-49,311,110,0,-71,-70,-40,-9,34,3
-85,272,85,37,11,-5,-33,-43,-21,-20
-78,101,17,29,16,27,-15,-29,-43,-22
-14,-48,-8,9,1,27,-6,-7,-16,100
121,-71,-15,1,-18,10,-6,-21,-31,193
123,-57,-30,-48,-59,-32,-20,-11,9,190
-35,-69,-31,-66,-105,-80,-63,-31,12,138
-73,-80,-18,-47,-82,-71,-72,-46,-16,-21
-84,-83,23,21,27,8,-3,11,0,-185
-76,-125,25,44,83,61,35,27,1,-188
-78,-137,14,48,79,61,34,9,-5,-123
11,-82,9,40,52,37,19,0,-3,-73
92,15,-27,17,8,-1,0,-44,-6,36
113,257,-58,-16,-11,0,10,-36,21,138
60,385,-26,-22,-12,7,19,-2,36,123
-33,109,24,-6,-18,-10,12,15,44,18
-67,0,58,6,-30,-32,-7,16,1,-85
-18,257,64,21,18,25,36,49,21,-67
24,289,8,-1,31,49,59,60,56,-14
60,-16,-43,-36,-7,-9,5,21,36,6
35,-274,-52,-37,-30,-51,-34,-10,26,17
-35,-365,-20,0,-3,-23,-18,0,25,9
-74,-139,32,69,62,47,58,44,51,6
-84,-86,22,101,83,81,95,52,30,-25
-2,-110,-15,49,58,57,80,46,17,-13
88,173,-5,9,15,9,25,35,24,27
75,166,2,-1,-9,-10,-24,-3,13,10
21,-44,6,-10,-31,-37,-32,-26,19,-28
3,-45,37,-14,-43,-64,-41,-23,43,0
-9,105,73,-18,-33,-61,-49,-48,16,42
-4,231,110,-18,-21,-40,-57,-71,-65,-22
-13,226,72,-38,-32,-18,-33,-61,-109,-67
3,82,-6,-31,-17,9,20,-11,-91,-7
34,-135,-61,18,21,38,48,46,-11,41
60,-353,-141,31,54,67,50,71,52,46
57,-410,-182,15,50,52,35,54,74,20
19,-285,-144,2,50,71,51,52,86,-18
21,-39,-5,25,48,60,46,28,49,-52
33,93,67,29,4,0,16,18,6,-59
20,74,43,-29,-53,-57,-32,0,3,15
-36,-3,12,-48,-56,-67,-60,-25,-2,95
-125,-98,-35,-38,-11,-10,-4,-27,-16,59
-160,-76,-62,-23,22,38,44,-12,-19,37
-96,104,18,3,-9,-8,-11,-23,-7,39
-42,130,71,18,-42,-50,-44,-28,11,-3
13,59,53,20,-14,-14,-33,-8,-14,-59
67,92,54,22,4,5,-2,4,-36,-65
70,194,99,53,8,-19,-27,-10,-49,-48
39,163,83,53,11,-21,-19,-21,-33,5
1,30,3,-5,-10,-19,-10,-20,-33,-8
-15,-35,-24,-30,-25,-8,-11,-25,-36,-67
17,-15,-11,-28,-10,4,-15,-18,-31,-50
44,-1,-2,-11,10,18,7,11,-9,0
36,-26,-6,-6,12,7,4,22,26,55
5,-16,20,3,10,-8,-15,-9,10,32
-16,-45,8,-11,-2,-16,-13,-38,-10,-21
3,-161,-25,-23,-18,-19,7,-8,-3,-70
17,-206,-41,-24,-19,-11,48,37,19,-67
27,-221,-51,-24,-10,-3,10,17,28,20
18,-228,-65,-11,12,16,-9,-23,22,121
5,-121,-39,-19,-1,-4,-10,-10,33,154
-15,162,49,-11,-12,-7,-30,-13,7,86
-23,764,141,-12,-35,-26,-26,-27,-7,74
-74,781,169,11,-16,-16,-6,-30,-21,-42
-145,-160,4,-3,-17,-18,-12,-43,-83,-183
-107,-751,-228,-55,-19,19,13,-19,-87,-160
26,-295,-198,-26,42,102,97,78,36,9
172,478,6,46,68,101,117,121,134,134
294,423,85,51,17,31,73,86,135,138
193,-28,63,37,9,0,21,32,75,84
-3,-215,35,12,-4,-40,-36,-20,18,4
-95,-184,29,6,-37,-64,-63,-60,-12,-51
-129,-190,10,9,-7,-5,-28,-34,4,-45
-140,-133,-2,6,2,21,-3,-21,0,-53
-193,33,-1,-6,8,28,3,-24,-27,-106
-112,124,15,-21,-17,14,-1,-29,-32,-89
86,57,17,-34,-38,-20,-15,-12,-3,-5
76,34,30,-7,-1,-1,5,36,36,38
-32,-19,-12,4,28,38,50,59,66,54
-146,-72,-50,18,42,53,64,49,61,11
-39,-48,-25,12,11,8,9,15,34,19
82,-58,-9,-18,-26,-37,-38,-29,1,22
48,97,21,-14,-12,-26,-26,-7,4,-27
22,169,33,-12,-18,-37,-24,17,28,-60
-10,73,17,-29,-42,-54,-50,-29,-21,-114
-18,72,12,-15,-15,-34,-50,-55,-69,-123
33,235,24,-4,21,-1,-35,-41,-45,14
67,153,29,-4,1,2,-15,-45,-42,87
63,-117,4,25,33,47,23,-39,-93,-18
92,-249,-32,43,49,74,37,1,-62,51
103,-272,-46,49,36,43,11,0,-1,182
23,-141,-23,46,22,2,-15,-17,3,126
-61,23,21,31,9,-3,8,-14,-3,40
7,41,-16,-26,-32,-20,25,18,0,13
141,-50,-89,-71,-81,-27,16,52,43,-10
119,-71,-58,-52,-49,19,48,99,96,-36
-4,-66,-11,-30,-28,50,69,95,77,-36
-114,-73,29,9,-5,3,18,37,17,5
-125,-68,14,13,18,-51,-52,-35,-48,79
-175,-41,-19,-5,20,-37,-42,-41,-60,27
-232,27,-25,-17,9,-11,-22,-18,-30,-5
-45,18,-22,-14,-18,-25,-21,-34,-11,22
63,-61,-19,-8,-17,-27,-29,-36,-27,-42
35,11,-9,-7,-6,-9,-26,-28,-34,-67
41,361,73,25,0,-9,-34,-39,-71,-79
40,385,118,42,-4,-33,-34,-33,-77,-66
0,36,31,18,-4,-30,-22,2,-67,-53
-4,-76,15,17,8,0,16,44,-42,-41
4,26,69,36,24,7,0,41,-24,-64
39,78,102,21,6,-7,-39,-33,-50,-80
102,39,58,-44,-43,-46,-73,-63,-55,-24
115,-86,-26,-42,-35,-43,-46,-39,-47,9
61,-241,-101,-7,10,23,6,0,-37,66
8,-346,-225,-34,20,39,26,35,17,144
-48,-203,-262,-42,21,52,52,62,82,125
-61,-56,-199,-7,51,88,98,97,110,91
-24,56,-63,-9,23,59,70,68,63,87
-16,372,173,35,-14,-20,-21,-15,-32,-12
-80,216,207,62,17,-12,-21,-6,-33,-124
-74,-272,38,6,40,9,1,8,-2,-116
-23,-346,-40,-21,1,-4,-17,-18,-21,-86
-2,-261,-33,-19,-36,-43,-36,-37,-43,-58
16,53,45,28,6,-19,-16,-14,-30,46
64,534,126,73,59,28,12,-6,-12,161
21,421,73,28,35,23,4,-10,-25,69
-48,71,19,13,7,0,-4,-25,-45,-70
4,4,-16,-17,-27,-22,-27,-21,-33,-76
40,-53,-46,-38,-29,-26,-29,-6,-17,-34
-2,-137,-28,-3,-6,0,-14,7,-7,-29
-51,-153,-1,19,2,3,10,6,4,-35
-47,-120,13,17,-18,-21,-8,-1,16,-9
-26,-13,-3,-25,-68,-45,-4,7,23,-10
10,184,35,-26,-70,-34,0,18,3,-67
40,147,80,6,-24,-1,12,19,-18,-99
51,6,40,-14,14,7,-3,18,0,-86
127,-108,-14,-48,-11,-21,-35,7,27,-62
103,-269,-57,-44,-21,-17,-40,-15,38,28
-34,-360,-134,-29,-16,-1,-9,-28,53,193
-48,-47,-101,1,5,12,-13,-33,40,278
-44,148,2,36,34,9,7,-47,-28,175
-95,39,61,67,49,17,22,-29,-87,23
-24,122,59,52,18,10,22,8,-45,31
54,277,47,45,47,44,36,24,24,12
165,259,11,19,30,23,7,20,54,3
74,47,-44,-25,-8,-12,-13,2,28,-26
-71,-74,-51,-12,25,23,6,27,25,-41
-116,-191,-19,-1,44,43,5,26,24,5
-132,-261,15,-7,41,39,-10,-36,-48,-45
-133,-69,47,-17,16,29,11,-47,-88,-131
-106,160,72,-25,-29,2,25,-19,-58,-151
10,205,54,-24,-67,-38,-15,-11,-16,-69
139,124,27,-15,-85,-80,-53,-21,2,-28
147,-46,-41,-28,-70,-62,-29,13,46,28
69,-222,-89,-22,-27,-3,16,50,88,96
4,-309,-101,-9,2,29,42,37,85,127
-83,-183,-59,-8,6,16,46,15,57,74
-146,62,-7,-3,46,39,41,22,25,-65
23,185,20,10,49,30,24,40,33,-46
117,119,23,27,46,22,26,41,34,27
88,75,-3,18,16,8,6,15,0,13
46,40,21,30,-8,-15,-26,-8,-10,-19
-38,-34,16,11,-26,-34,-50,-39,-24,-26
-100,-8,38,28,16,-2,-14,-26,-32,-83
-26,-21,43,42,49,25,44,20,8,23
54,-19,11,-10,-8,-20,6,2,6,138
30,16,32,-21,-29,-35,-10,-15,0,61
-46,24,26,-16,-10,-13,3,-1,-6,-77
-40,44,0,-18,-4,-12,-2,-6,-12,-78
47,3,-20,-6,0,-14,-12,-14,15,2
86,-118,-61,-6,23,22,11,21,54,-8
117,-102,-70,-10,33,49,56,46,83,11
159,-10,-20,-18,-15,0,22,12,42,81
88,81,23,-44,-65,-45,-27,-24,1,81
-95,151,65,-41,-63,-54,-45,-48,-52,-95
-172,305,119,-5,-31,-35,-70,-84,-87,-130
-77,654,177,45,0,4,-87,-110,-82,-9
-55,272,71,48,14,21,-56,-83,-50,79
-123,-372,-53,41,35,13,17,1,15,89
-74,-637,-161,5,46,53,76,92,98,55
44,-495,-160,21,72,106,118,130,116,19
26,33,-12,40,77,79,91,77,52,-48
8,151,44,7,33,8,13,9,-9,-90
78,-150,-37,-26,-9,-14,-11,8,1,-49
119,101,-8,10,13,16,15,42,55,8
4,382,63,41,38,49,34,46,38,-13
-83,156,54,8,-3,5,1,-11,-13,-38
-41,-37,13,-29,-39,-44,-40,-45,-31,54
-50,-221,-33,-47,-60,-68,-63,-72,-27,116
-77,-182,-58,-33,-56,-39,-22,3,30,88
-31,9,-7,9,-24,6,35,56,40,-2
21,21,48,22,-26,-8,20,20,-3,-76
62,10,44,-2,-53,-17,2,-14,-31,-73
37,-31,-3,-22,-35,1,6,-14,-14,-21
8,-82,-52,-16,17,14,-13,-25,-8,38
40,4,-43,-19,36,-4,-14,-37,-20,39
100,215,-12,-27,13,-17,-23,-10,-17,18
125,255,50,-15,11,-8,0,2,2,-43
135,79,68,17,0,4,-2,-1,-8,-51
33,-48,47,42,3,4,-8,-20,-13,-23
-80,-162,1,34,2,5,0,-4,13,43
-141,-206,-31,42,21,20,18,29,56,59
-82,-69,-36,24,24,24,46,39,69,8
6,114,-22,-33,-19,-3,19,14,53,-23
-60,207,41,-48,-38,-21,-20,-9,10,-87
-75,212,119,-17,-40,-41,-49,-40,-32,-111
2,116,105,-14,-30,-41,-46,-37,-19,27
-37,-151,-2,-10,-1,-23,-6,-30,-14,65
-103,-258,-87,20,37,8,35,5,-16,-26
-99,-194,-156,31,94,81,88,48,-6,-47
54,-55,-132,30,121,132,106,73,49,72
129,38,-39,17,81,84,58,52,69,129
31,-62,11,2,31,34,27,35,64,40
2,-54,46,18,11,14,1,24,40,-22
66,85,44,4,-22,-9,-16,-1,0,-35
58,105,12,-15,-34,-23,-17,-27,-40,-66
58,90,5,-45,-65,-59,-43,-35,-52,-33
33,29,24,-57,-109,-80,-36,-22,-11,28
6,-43,33,-30,-72,-67,-19,6,20,32
-7,-72,26,18,5,-15,-1,16,39,19
23,-61,12,36,51,29,3,17,-8,-33
61,-45,-1,16,30,17,5,2,-26,-50
4,-21,-37,-36,-25,-29,-22,-31,-46,-40
18,146,-28,-25,-6,-11,-9,-46,-61,-50
66,363,28,5,37,30,0,-18,-15,48
19,137,25,-7,1,-16,-48,-27,21,178
-58,-95,18,-14,-29,-58,-66,-46,-3,125
-126,-88,13,5,-24,-32,-15,-24,-23,13
-109,-19,-26,-4,-12,-18,17,5,0,-24
-92,53,-39,-8,-11,-11,11,16,19,-86
-55,42,-32,-6,8,20,19,36,31,-67
142,0,-28,-24,-20,3,-16,25,38,77
143,-59,11,-18,-41,-34,-41,-34,-11,45
11,-21,92,13,-32,-36,-53,-54,-39,-48
-55,143,152,30,-2,-17,-57,-67,-79,-118
-104,0,77,23,31,28,-31,-59,-86,-102
-194,-437,-70,35,64,78,60,30,-13,-60
-255,-615,-186,26,73,86,127,113,74,-8
-89,-363,-164,27,69,74,119,113,127,46
148,193,-72,13,34,35,53,61,118,96
132,294,-57,-50,-31,-21,-12,16,57,41
40,114,10,-37,-32,-25,-25,-22,-7,-63
19,216,83,26,7,0,-24,-34,-38,-66
69,277,72,36,17,-1,-8,-5,-19,16
96,83,11,7,15,13,6,15,14,67
41,72,1,54,74,86,51,51,44,76
1,5,-16,47,73,105,76,60,67,50
-4,-156,-16,13,10,28,38,20,28,-17
-1,-108,19,5,-34,-27,-10,6,6,-36
38,-130,-3,-37,-58,-53,-16,7,19,-3
66,-82,-30,-64,-64,-55,-15,-12,11,15
23,71,19,-54,-48,-41,-46,-37,-17,-14
-21,115,53,-31,-27,-49,-62,-45,-20,-6
-38,121,81,5,-13,-34,-56,-37,-44,-5
-64,127,88,21,6,-2,-27,-31,-56,-65
-76,134,76,5,13,6,-17,-43,-59,-103
-38,114,48,-20,-7,-2,-22,-42,-67,-88
6,-11,3,-30,-26,-18,-17,-21,-39,-54
5,-140,-48,-21,-34,-21,-10,7,1,-42
16,-240,-73,25,1,16,26,54,50,-2
26,-217,-63,45,14,34,45,63,77,32
51,-87,-43,13,-2,3,12,22,60,35
41,7,-35,3,-7,4,0,-1,23,13
10,-25,-65,8,15,26,38,9,8,28
66,-67,-140,-20,18,24,24,18,32,131
72,34,-91,-21,0,8,-4,-4,27,113
25,49,15,-31,-16,-17,-2,-31,0,76
-57,67,146,-20,-22,-28,-28,-52,-42,-20
-72,312,293,67,21,0,-32,-70,-96,-111
-23,335,232,87,25,-9,-24,-66,-73,-31
-6,120,96,36,-11,-32,-29,-44,-44,36
-87,-10,38,1,-19,-14,-17,-9,-15,24
-141,-52,-35,-27,-1,18,13,15,-1,-21
-65,144,-2,-27,-24,-7,-19,-26,-43,-72
29,369,81,-3,-34,-28,-45,-45,-56,-81
65,-57,-50,-3,5,7,-15,26,29,-5
53,-734,-326,-31,67,106,104,158,145,91
65,-470,-354,-59,60,119,146,186,183,126
43,-49,-172,-21,8,44,76,96,124,77
-1,-382,-150,13,32,55,73,79,90,73
-16,-475,-84,53,57,64,83,81,68,34
-44,18,104,39,-10,-49,-25,-39,-44,-79
-32,352,160,-21,-75,-111,-118,-121,-115,-88
27,266,114,-45,-59,-88,-104,-115,-115,-24
54,277,91,-10,-21,-39,-41,-42,-46,-28
-39,202,93,38,28,13,14,16,-16,-104
-59,8,46,35,28,16,27,26,-21,-71
-10,-57,-5,-15,-5,-8,6,13,4,6
7,-74,-4,-16,-3,-5,-30,-10,15,52
53,-58,-11,-7,-4,-35,-62,-68,-9,130
106,0,-17,-16,-26,-52,-80,-90,-32,127
54,52,-3,5,-8,-17,-36,-26,-31,-19
0,60,6,13,13,0,8,18,0,-80
-2,36,1,12,10,-1,29,31,11,-39
-10,42,12,10,-5,0,13,24,20,-9
-29,104,34,0,-21,-11,-7,-9,4,-2
-49,62,-2,-24,-26,-41,-21,-42,-16,16
-68,-31,-22,-22,-5,-17,0,-20,-19,-37
-34,-38,16,9,31,30,20,10,-19,-80
10,-21,1,0,18,27,16,16,-9,-41
24,12,2,-12,8,16,9,11,-9,-10
35,56,5,-18,2,8,-20,-16,-27,19
51,101,5,-13,-10,-11,-33,-43,-45,9
197,95,16,1,-16,-9,-18,-21,-25,10
253,22,1,-4,-34,-13,7,18,-9,23
40,-46,-1,-13,-35,-5,0,14,-2,-22
-154,25,21,-6,3,1,-20,-27,-17,-42
-173,190,0,-30,-51,-43,-17,-7,13,54
-108,77,-71,-79,-109,-74,-15,16,37,119
-165,-233,-75,-27,-15,16,15,25,28,11
-236,-371,-5,64,94,101,52,56,57,-49
3,-108,62,55,43,39,27,54,61,37
132,117,68,13,-22,-30,-19,-26,5,77
46,105,44,-17,-51,-68,-55,-100,-71,-4
-96,-3,70,34,-16,-52,-59,-77,-86,-111
-131,-81,22,19,-6,-31,-46,-42,-55,-132
-39,-102,-104,-28,29,24,14,19,-10,-85
108,15,-125,6,100,112,112,104,85,5
120,-97,-124,35,119,143,155,165,158,110
69,-364,-55,32,79,79,96,96,99,116
49,-348,-21,0,0,-12,3,-8,-14,24
8,74,-40,-2,5,0,23,23,1,4
14,411,39,49,34,16,38,58,49,92
52,250,94,63,17,-8,-10,12,2,79
-17,-42,54,12,-22,-45,-61,-66,-52,-5
-125,-158,1,-45,-55,-81,-101,-129,-97,-43
-200,-79,-4,-59,-48,-66,-82,-105,-111,-115
-106,183,78,-19,-18,-35,-33,-40,-77,-142
87,432,105,-3,-24,-9,13,35,17,3
256,206,18,-40,-46,-42,-30,-11,19,180
219,-179,-68,-56,-45,-52,-77,-69,-21,182
21,-250,-46,6,26,24,-4,-9,-30,1
-101,-49,27,66,61,61,26,12,-54,-113
-81,99,28,67,35,17,-4,12,-36,-58
-47,103,-25,29,-5,-15,-14,-3,-43,-34
-41,-90,-77,-26,-30,-10,0,5,-9,-18
21,-229,-122,-45,-7,18,30,40,50,42
74,-145,-44,-33,2,4,20,27,28,14
26,116,149,1,-15,-42,-59,-55,-70,-75
-39,205,213,-4,-44,-68,-112,-96,-133,-135
-71,86,78,-30,-44,-37,-65,-48,-102,-88
-79,59,-21,-17,-25,-1,0,13,-28,-14
-64,145,-40,-3,-13,-9,-3,-5,-37,-20
-40,-36,-85,-6,14,13,25,28,-14,4
5,-312,-158,-5,62,92,121,138,113,88
28,-212,-129,-2,82,93,127,154,159,104
49,162,33,11,49,26,20,24,58,12
40,241,108,3,-3,-31,-51,-57,-49,-71
40,34,61,1,-8,-17,-51,-73,-119,-97
97,-145,22,36,13,-9,-52,-60,-111,-21
143,-122,-22,36,57,43,0,0,-36,102
105,2,-63,-23,53,68,59,45,26,144
-21,-20,-39,-45,9,15,53,38,42,106
-64,-103,-42,-66,-72,-78,-48,-28,2,179
-135,-218,-92,-60,-97,-103,-73,-64,-27,58
-122,-281,-109,-12,-35,-32,-17,2,-11,-94
-54,-205,-51,36,9,-2,4,17,-13,-89
16,71,27,51,16,0,-1,-13,-18,-2
15,236,81,60,2,-17,-16,-55,-49,18
55,213,79,53,19,10,-20,-28,-56,-31
84,180,56,44,38,38,7,24,-10,-45
101,116,46,4,4,1,-2,15,3,-14
64,66,28,-25,-11,-14,4,6,1,-19
-34,31,10,-40,-40,-22,-14,-15,-8,-34
-115,-10,-4,-51,-65,-55,-40,-46,-34,-32
-141,-61,11,-16,-32,-32,-19,-19,-29,-43
-82,-127,-3,33,25,30,26,3,-2,-28
-8,-101,-51,20,44,54,34,24,15,12
50,29,-38,3,42,38,33,47,38,17
88,132,-5,-8,4,8,12,47,47,24
55,129,33,12,-5,0,-9,-11,2,0
20,0,11,-5,-28,-17,-34,-45,-32,-11
-12,-46,-10,-26,-44,-35,-33,-27,-7,-19
-21,-16,-5,-19,-37,-15,-19,-2,0,-5
24,-25,-25,-23,-23,-6,-3,16,11,-15
72,-10,-27,-12,-10,5,-7,15,9,-33
105,68,10,0,6,6,-14,6,-11,-46
80,127,22,4,7,6,-7,11,-3,-10
28,132,0,0,15,7,6,7,14,56
-39,15,-2,27,27,23,18,11,31,110
-102,-205,10,46,33,27,36,20,15,65
-154,-242,45,57,24,-7,12,5,-6,-60
-152,-120,57,56,7,-32,-28,-26,-29,-85
-118,-23,9,19,7,-6,-11,-9,-21,-64
-42,-65,-66,-17,26,28,37,45,14,-33
26,-64,-89,-51,0,6,12,29,4,18
91,140,-65,-69,-35,-27,-23,-9,-17,45
65,193,-4,-24,-3,0,-13,-26,-17,29
2,150,31,8,-11,2,-30,-30,-1,52
55,232,89,-3,-61,-45,-76,-69,-15,90
168,277,118,22,-22,-24,-58,-52,-52,7
87,62,52,18,11,9,-2,8,-43,-48
-49,-231,-33,-12,-1,2,-7,8,-16,-48
-135,-465,-142,-26,-3,1,-2,7,-8,-70
-99,-492,-229,-32,41,54,52,88,78,63
-14,-167,-194,-18,77,116,107,151,140,130
-71,135,-52,-22,26,59,63,72,51,-8
22,284,87,4,-16,-17,1,-9,-25,-52
250,344,183,32,-30,-44,-34,-56,-64,-15
285,253,173,-6,-91,-83,-64,-68,-49,55
114,144,157,-14,-105,-87,-82,-66,-16,80
-121,6,142,43,-19,-48,-58,-66,-35,0
-290,-206,58,77,63,15,5,-26,-77,-157
-302,-326,-87,21,71,60,70,25,-33,-147
-254,-321,-192,-60,26,54,74,54,23,-68
-104,-343,-214,-51,42,83,62,76,63,5
129,-65,-114,-10,42,76,61,81,82,54
226,437,88,-1,-7,12,8,22,61,53
242,454,157,-12,-59,-51,-39,-28,14,-1
150,186,101,-9,-41,-69,-51,-63,-31,-79
-7,-51,-8,-12,-19,-60,-50,-75,-60,-130
-80,-234,-105,-4,13,-19,-22,-46,-15,-35
-108,-266,-95,50,75,60,62,27,50,8
-82,-118,-12,83,97,107,116,89,100,17
-22,-78,33,54,55,58,71,54,100,103
22,-84,23,30,15,5,1,-1,92,280
64,-33,5,-16,-42,-26,-14,-15,57,203
-18,43,16,-46,-81,-51,-5,0,25,-63
-45,95,20,-37,-82,-57,6,8,8,-29
23,213,70,-19,-76,-58,-23,-26,-23,33
-56,312,127,16,-17,9,-8,-30,-45,-74
-91,53,51,-7,3,24,12,-21,-16,-25
28,-61,-14,-68,-42,-63,-54,-70,-30,39
96,14,4,-54,-42,-78,-54,-44,-8,-13
67,52,25,-6,0,-13,9,9,14,-63
19,7,4,11,17,16,8,6,-11,-69
12,6,-9,4,10,-1,-20,-36,-24,-17
33,79,9,-2,2,-15,-30,-30,-3,24
28,79,-12,-13,6,16,17,30,40,8
9,-68,-73,0,46,66,54,53,52,-11
-11,-213,-88,16,54,57,51,41,50,-11
-12,-219,-28,77,59,63,68,67,76,2
-29,17,88,107,64,56,64,56,48,-39
-27,191,112,69,17,9,26,14,11,-84
34,181,61,10,-18,-14,-12,-10,0,-85
67,65,61,2,-24,-21,-45,-63,-33,-44
23,-156,40,-7,-34,-36,-58,-55,-29,12
-26,-191,-18,-47,-18,-30,-31,-21,0,63
-12,-139,-131,-79,-1,2,23,17,22,106
-28,-253,-215,-66,34,52,63,74,44,66
-85,-77,-130,-15,41,58,58,76,58,1
-88,117,-34,-6,17,29,39,61,58,-11
-29,270,41,-2,-5,-5,10,17,18,24
-1,345,143,7,-29,-52,-49,-39,-32,43
-45,284,166,18,-29,-53,-66,-65,-62,18
-59,105,134,32,-10,-44,-52,-71,-59,-6
40,17,89,24,-26,-40,-61,-80,-86,19
101,-137,8,-3,-13,-17,-36,-60,-89,0
84,-357,-152,-30,28,30,26,33,8,4
64,-344,-215,-21,65,80,79,95,94,32
1,-253,-135,-10,51,53,78,80,72,13
-66,-199,-82,-18,0,14,61,47,24,-22
-63,213,32,-1,-8,-8,21,14,-27,-52
-20,607,137,18,-11,-21,-23,-27,-65,-74
-4,333,76,0,-11,-18,-45,-41,-63,-86
18,19,-4,-7,-9,0,-44,-36,-19,-32
50,-84,-29,-13,-25,-7,-27,0,-1,20
31,-101,-2,-21,-26,-24,-17,-6,-17,-1
29,-75,19,-14,-45,-35,-26,-10,-7,19
27,-24,13,-6,-44,-47,-42,-18,-14,46
18,-24,41,26,-6,-28,-44,-14,-10,19
-4,-101,47,47,35,0,-20,1,0,-32
0,-91,8,28,34,8,9,22,-7,-56
3,-87,-36,18,17,21,33,33,-21,-44
6,-67,-47,9,5,13,13,23,-25,-10
4,-29,-57,-11,6,10,8,2,-8,17
2,8,-60,-21,6,4,-4,-2,-22,74
3,56,-12,-13,1,-11,-15,-13,-45,81
-74,64,32,-7,-20,-32,-33,-30,-40,12
-111,42,70,-4,-30,-29,-27,-37,-38,-58
121,24,64,-16,-35,-40,-30,-47,-40,-39
160,-12,7,-31,-38,-33,-55,-57,-35,-18
25,-99,-49,-17,-25,-8,-30,-35,-14,36
-39,-49,-52,3,12,38,22,28,25,44
-35,-16,-52,34,31,67,65,65,41,53
-94,-126,-86,4,-3,19,49,53,51,42
-146,213,2,-1,-24,-12,6,39,39,-30
-145,453,74,4,-14,4,5,52,42,-29
-63,102,4,-4,3,16,25,44,49,-27
33,-141,-15,19,11,20,21,32,42,-36
41,-112,44,30,19,9,39,21,16,-56
34,-69,96,63,35,6,19,1,-30,-66
50,-46,69,54,21,2,-6,-9,-31,-36
64,-63,4,-3,6,2,-15,-38,-31,34
83,-121,-49,-55,-25,-29,-45,-61,-36,94
102,-84,-40,-61,-22,-19,-41,-46,-18,46
48,32,3,-27,-1,-9,-30,-48,-34,-38
-24,143,30,4,11,3,-8,-24,-31,-101
-32,310,34,7,32,30,27,0,-9,-51
-22,304,9,-21,-9,1,2,-10,35,97
-51,-76,-6,-19,-35,-28,-21,-45,22,161
-80,-297,-24,-1,-17,-16,-9,-31,2,24
-34,-197,-34,-3,-6,-4,26,10,31,-62
42,-148,-30,18,0,-8,5,15,38,4
28,-73,12,45,6,-16,-5,12,14,42
29,43,62,16,-22,-29,-17,0,26,119
-90,62,47,-14,-29,-19,-18,-5,17,75
-243,26,4,-14,10,21,16,15,24,-39
-105,24,-2,-6,8,10,10,-6,-12,-101
76,-7,-59,-33,-7,-7,-6,-5,-14,-89
120,-19,-82,-15,32,39,38,44,37,-25
109,58,-55,12,50,68,81,73,60,20
43,-33,-18,27,31,50,67,46,34,-3
5,66,60,11,10,6,-11,-12,-11,-63
17,247,119,-3,-17,-40,-43,-58,-34,-85
45,160,95,13,-20,-52,-33,-45,-29,-54
48,-65,6,6,6,-19,-8,-18,2,12
44,-315,-113,-12,33,33,22,27,58,75
17,-408,-154,7,56,81,62,78,106,77
-21,-184,-56,29,52,74,69,70,104,41
-49,133,78,36,8,9,19,-2,37,-24
-2,394,148,16,-44,-43,-40,-71,-42,-59
47,256,57,-45,-87,-75,-80,-100,-55,29
19,-79,-49,-49,-62,-69,-75,-89,-31,78
-57,-229,-55,30,22,20,15,-12,0,12
-72,-37,-5,54,55,51,89,65,47,-10
-28,230,61,27,29,30,59,51,23,-28
-2,86,53,-12,-19,-26,-11,0,-5,-36
-7,-136,-28,-14,-19,-14,-1,15,22,-19
2,52,-16,18,1,14,18,23,27,-8
60,277,17,14,7,23,15,26,36,26
58,44,-29,10,3,16,31,18,9,-3
38,-150,-60,3,9,11,35,5,4,-13
5,-132,-38,-6,1,11,11,8,0,-20
-50,-75,10,6,2,-3,0,-8,-9,-44
-52,42,55,16,-5,-14,-6,-33,-24,-30
2,131,76,6,-12,-31,-39,-47,-18,33
42,102,32,-26,-33,-48,-38,-36,7,48
10,9,-33,-39,-25,-23,-13,-4,11,1
-28,-78,-51,-3,12,24,1,2,4,-11
-36,-183,-60,21,44,61,26,21,25,17
-19,-176,-102,0,21,47,54,64,69,91
21,78,-39,0,11,27,46,60,72,74
26,148,76,42,26,21,0,-2,6,-33
3,37,93,60,5,-10,-25,-22,-11,-73
-16,5,54,20,1,-32,-29,-10,-24,-67
-6,35,28,-14,-4,-3,-6,10,-20,-30
15,81,22,-21,-2,4,11,16,-17,-31
39,20,4,-11,9,12,9,-3,-41,-81
61,-30,2,1,7,-7,-15,-21,-77,-63
57,-27,17,-12,-25,-41,-55,-43,-97,-5
0,11,45,-43,-47,-59,-60,-51,-73,-2
-58,-21,0,-55,-30,-18,-25,-14,-7,38
-18,7,-57,-43,-6,19,24,40,54,128
26,130,-45,-32,-11,20,16,42,45,61
38,-77,-70,-8,-10,7,20,24,39,20
71,-428,-98,34,9,15,32,22,30,54
99,-339,-101,33,32,38,49,56,42,35
92,94,-33,-3,17,8,9,30,7,22
-81,154,0,-43,-36,-57,-56,-38,-56,19
-229,140,-10,-76,-80,-102,-120,-99,-100,-13
-255,100,29,-39,-51,-78,-71,-88,-86,-23
-154,165,140,48,23,-8,-18,-45,-78,18
-4,-22,116,60,21,-9,-28,-59,-81,-18
-19,-464,-61,39,34,9,-16,-20,-53,-37
32,-101,-35,42,51,26,25,12,-20,-27
166,609,37,34,31,23,64,53,44,29
142,260,-98,16,45,60,78,66,84,51
27,-364,-209,17,86,117,146,135,161,68
-35,-447,-110,18,94,122,163,156,166,59
-74,-256,110,50,54,35,54,23,21,-46
-96,-94,184,45,3,-15,-61,-91,-117,-111
-74,51,112,-19,-75,-90,-132,-133,-153,-103
-73,44,38,-75,-101,-127,-120,-99,-86,-61
-51,29,-2,-50,-49,-62,-41,-22,-9,-36
66,446,14,-12,1,12,16,44,36,14
168,449,17,-16,-5,13,17,52,41,71
120,74,3,-19,-24,-16,-19,-2,-7,38
13,-70,-7,10,-2,-8,-38,-38,-47,-34
0,-185,-70,33,50,39,38,35,25,-27
45,-119,-65,30,73,83,94,102,90,6
52,20,17,-10,13,21,22,45,45,9
90,41,38,-47,-43,-56,-49,-11,2,19
105,38,26,-62,-48,-53,-63,-34,-17,8
37,39,-4,-51,-37,-18,-48,-52,-55,9
-33,19,-5,-29,-24,-16,-57,-96,-107,-5
-128,-85,38,37,2,8,-35,-93,-146,-85
-143,-171,25,53,17,28,17,-14,-86,-33
-80,-132,-30,-5,-28,4,45,55,15,69
-143,-12,-30,-23,-52,-5,52,90,66,11
-45,68,23,-1,-37,-16,30,58,54,-36
42,72,29,14,12,0,3,-4,-12,-62
54,47,8,4,27,21,-2,-15,-35,-35
131,116,23,-7,2,-24,-41,-40,-5,67
128,78,31,-7,-23,-59,-62,-48,26,103
11,-6,32,29,28,-12,-47,-49,0,21
-57,-47,2,28,22,-9,-26,-27,-18,-49
-81,-169,-64,3,-18,-19,-9,10,18,1
-43,-304,-120,13,8,33,42,40,59,19
4,-239,-129,-1,34,63,68,63,52,3
66,72,-60,-16,12,19,28,51,51,36
48,85,-15,-38,-8,-16,1,25,35,2
-3,-44,-21,-42,-7,-7,9,7,15,-38
13,90,8,-15,4,21,20,19,24,0
27,313,94,28,24,28,22,8,17,18
-59,212,114,38,5,8,-16,-35,-35,-26
-102,98,64,7,-11,-14,-24,-49,-45,-18
-38,15,10,-5,-12,-19,-15,-31,-26,5
37,-44,-6,2,3,-6,1,2,15,11
60,-59,1,-6,-14,-26,-10,9,28,15
33,-42,-2,-29,-32,-36,-14,8,18,-6
26,-10,-2,-17,-16,-12,-19,10,16,-11
41,-6,-6,4,9,-1,2,10,4,-4
26,-9,-18,7,-2,4,3,9,16,-4
-7,20,2,1,-11,9,6,13,1,-23
-22,67,56,21,0,11,10,2,-24,-33
-31,77,72,23,16,14,7,1,-29,-22
-54,-20,11,-6,4,1,11,-13,-10,-21
-83,-113,-18,-1,17,-17,-20,-74,-44,-16
-25,-113,-25,6,3,-47,-71,-101,-54,40
30,-182,-94,0,15,-3,-36,-58,-31,79
52,-145,-111,-9,25,42,19,0,8,51
62,97,6,27,35,39,18,7,11,-20
131,271,77,38,30,12,12,-6,6,20
102,154,37,2,8,0,12,24,17,33
-11,-130,-59,-24,26,31,64,82,70,33
-83,-101,-82,-7,40,50,96,115,107,63
-88,66,12,11,26,33,61,68,65,39
-147,185,133,-31,-55,-81,-64,-59,-61,-89
-137,259,163,-70,-135,-183,-154,-143,-136,-103
-11,253,103,-63,-96,-122,-106,-106,-85,-8
50,38,40,21,-7,2,-12,-12,-32,-57
55,-269,-69,42,32,60,45,47,11,-97
69,-525,-226,-10,32,61,70,85,78,15
116,-567,-305,-28,48,98,128,161,176,171
159,-131,-184,-28,59,99,119,139,168,218
104,144,7,0,37,46,45,27,37,93
-11,156,103,45,3,-5,-15,-45,-64,-78
-70,211,95,40,-9,-15,-31,-38,-54,-103
-44,250,82,10,-7,-10,-11,-13,-28,-73
-21,55,106,31,5,-3,-11,-9,-16,-47
-65,-288,89,49,18,5,3,0,-5,-25
-115,-284,19,9,-19,-10,-1,-11,0,-18
-223,-80,-9,-14,-32,-17,-11,-3,0,-121
-93,129,20,-3,-18,-3,1,24,17,-159
207,243,23,-1,4,25,7,22,53,0
232,265,-23,-21,-8,28,20,12,53,135
112,197,-37,-37,-28,0,16,7,33,148
-67,27,-37,-31,-22,-21,-2,-14,5,79
-81,-21,4,-3,-16,-35,-17,-15,13,40
-19,4,44,10,10,-9,-25,-24,5,29
-139,10,51,2,10,-2,-32,-40,-37,-51
-165,-6,5,-40,-26,-21,-21,-16,-34,-92
-20,-40,-54,-63,-46,-31,-16,-28,-37,-53
84,-34,-66,-51,-48,-14,-22,-32,-20,47
98,106,-17,17,0,4,17,17,14,102
7,46,29,82,60,15,51,43,33,18
21,-137,66,111,86,31,35,32,8,-33
24,-177,87,115,62,28,-1,18,-18,-48
-21,-136,68,66,13,-6,-24,-15,-53,-98
-17,51,68,3,-20,-28,-54,-53,-83,-91
-17,124,-18,-58,-44,-23,-40,-39,-68,-16
-6,-194,-200,-124,-63,-15,-8,5,5,93
-14,-501,-233,-68,0,30,56,52,55,103
-52,-138,-107,38,90,107,111,93,49,19
45,557,51,47,69,65,80,82,40,-3
107,495,94,0,-3,-30,-17,16,-9,-37
49,51,37,-27,-24,-42,-34,-6,-24,-57
-26,-173,-12,-20,-31,-32,-28,-22,-14,-17
2,-171,-17,-18,-26,-35,-33,-27,-3,12
77,-19,-8,-44,-34,-37,-50,-12,12,123
49,28,5,-37,-30,-31,-68,-57,-13,173
-83,35,56,17,-2,-20,-83,-118,-136,-58
-122,61,81,54,24,16,-37,-104,-192,-194
-46,19,35,27,19,14,19,-9,-93,-50
-24,0,-12,-13,-40,-30,8,34,0,83
11,20,-33,-36,-87,-62,0,48,42,36
74,34,5,-6,-43,-28,-5,26,12,-28
81,36,66,11,11,-5,-29,-23,-37,-49
92,42,108,6,12,-23,-54,-27,-51,-58
47,-67,86,13,13,-7,-34,-14,-36,-64
-17,-19,40,-7,-6,-26,-46,-31,-49,-42
-64,96,15,-9,-21,-36,-57,-31,-45,-27
-110,-35,-37,29,31,26,0,10,-12,0
-103,-227,-122,29,55,82,67,82,57,87
-67,-306,-144,-3,36,58,66,75,69,109
-79,-257,-126,-34,12,22,51,47,64,46
43,0,-90,-63,0,8,23,15,31,54
106,181,-16,-35,2,9,-3,-12,-37,8
4,189,12,-8,7,2,-7,-21,-48,-96
-87,-23,-4,-7,1,-1,2,0,-8,-125
-16,-177,12,18,10,0,12,16,5,-50
110,41,46,28,22,10,1,29,38,158
170,190,26,4,-21,-33,-12,-8,51,296
90,62,7,-22,-42,-56,-43,-31,15,87
-13,7,15,6,-7,-25,-49,-31,-2,-101
-48,31,4,3,-9,-7,-43,-46,-40,-109
-43,44,15,0,-5,1,-23,-40,-72,-119
-54,6,0,-12,34,33,19,-21,-58,-111
-85,-36,-45,-56,3,24,25,-12,-39,-68
-93,-82,-47,-25,-32,1,10,-4,-29,-5
-36,-89,6,41,-7,7,17,13,-3,27
13,-48,30,62,5,6,24,17,17,19
46,38,33,32,-3,-14,24,17,29,13
87,141,68,12,-23,-28,-30,-5,2,12
78,135,106,13,-22,-27,-66,-10,-19,14
77,121,114,12,-3,-26,-42,-10,-9,-6
39,103,111,28,11,-4,-16,-40,-63,-64
16,0,57,-3,-15,-29,-11,-29,-70,-87
-44,-110,-34,-21,-31,-27,0,3,-13,-69
-117,-250,-103,-16,7,32,40,45,19,-58
-75,-277,-87,28,51,75,47,16,7,-74
48,-222,-112,33,49,59,48,37,67,89
115,-134,-134,-26,-13,-12,23,22,109,311
49,-68,-111,-76,-63,-63,-27,-36,36,274
-37,-67,-113,-84,-42,-23,-4,-27,-2,72
-131,190,15,-33,28,50,40,14,-3,-96
-75,490,102,20,47,55,47,28,7,-80
5,565,159,53,28,31,37,18,22,-47
-45,333,182,96,21,21,22,15,16,-41
-54,33,89,51,7,2,13,-2,0,-30
10,-182,-14,-15,-19,-21,-7,-25,-2,-16
35,-296,-73,-15,-22,-20,-22,-13,4,1
29,-318,-104,-15,-3,-7,-3,15,28,17
19,-235,-80,-2,12,11,6,26,34,-9
33,-49,-26,13,24,15,15,8,24,-15
76,108,34,8,-7,-6,-9,-16,1,6
73,106,16,0,-2,-6,-4,-24,-7,18
27,42,-6,0,6,10,7,-7,0,7
-12,22,21,12,8,7,-2,10,1,-9
-55,52,45,8,-10,-16,-10,7,7,-23
-66,48,40,2,-12,-23,-29,-9,-4,-30
6,5,-2,3,3,-2,-19,-9,-22,-34
-1,-90,-17,18,25,31,3,0,-1,-39
-8,-213,-66,-4,25,32,12,15,18,12
60,-265,-108,-44,-4,13,6,13,5,64
-18,-126,-52,-40,-26,-28,-18,-14,-9,32
-81,124,48,-14,-28,-41,-30,-18,-8,19
-78,218,76,-20,-28,-43,-24,-12,-9,-1
-37,415,97,0,-9,-5,15,7,1,-19
53,476,109,21,15,29,40,35,38,-8
74,57,37,23,8,0,10,20,38,-2
55,-188,2,32,7,1,1,7,45,1
53,-242,-8,31,13,7,2,-14,31,22
12,-188,-24,12,6,8,-16,-30,-9,51
-18,-31,-14,-20,-12,-21,-24,-28,-32,55
-21,11,-15,-50,-15,-24,-15,-16,-9,27
-39,-56,-18,-18,2,15,29,19,11,-80
51,83,21,24,28,31,28,25,-3,-124
106,177,27,5,3,-3,-5,9,-20,-86
63,-39,-11,-19,-21,-36,-30,-21,-30,-62
12,-261,-63,-13,13,-2,13,16,18,23
29,-177,-38,5,26,14,37,24,66,201
21,-31,0,24,9,19,13,4,49,272
-107,32,5,-1,-10,-1,5,-18,19,131
-248,-152,-65,-43,-27,-24,-22,-19,-10,-74
-147,-326,-87,-9,21,11,26,11,-11,-188
26,-132,-53,11,48,44,78,63,54,-74
34,53,-37,-4,6,16,35,39,45,27
-45,185,0,-12,-11,14,-6,-18,-22,5
-9,486,111,-7,-34,-24,-48,-63,-56,-9
63,648,232,24,-45,-66,-84,-79,-60,12
55,517,236,41,-18,-46,-80,-74,-75,-31
22,152,111,26,-17,-26,-47,-28,-46,-65
22,-181,0,18,-4,14,2,22,0,-50
70,-411,-115,-1,10,40,25,50,61,0
108,-505,-210,-13,40,78,62,57,77,21
52,-559,-247,-4,86,145,123,89,84,41
16,-153,-104,36,102,139,143,126,127,85
-45,225,64,43,42,42,59,48,72,28
-125,179,38,-29,-36,-43,-4,-27,10,-12
-91,78,8,-54,-42,-46,-17,-24,10,24
-34,-13,14,-24,-18,-7,-9,-25,-1,-31
8,0,19,-17,-29,-8,-16,-37,-22,-80
39,49,36,-15,-28,-39,-51,-41,-36,-57
84,95,49,-12,-31,-38,-53,-35,-9,26
119,100,27,-36,-60,-27,-39,-33,5,124
72,15,-2,-40,-85,-39,-29,-28,6,83
-38,-114,-57,-18,-37,-24,27,21,40,-7
-22,-223,-95,25,48,27,55,48,74,16
3,-148,-56,44,55,27,24,42,74,60
-46,-14,8,54,52,24,23,33,38,-21
-66,61,34,46,63,35,61,38,25,-90
-82,305,103,76,95,54,64,30,-16,-117
-48,400,163,101,86,56,42,12,-47,-81
-11,-14,72,11,17,2,4,-14,-41,-23
26,-141,-14,-53,-56,-54,-40,-60,-58,6
35,4,3,-26,-42,-51,-65,-69,-67,-13
24,90,18,-23,-52,-66,-52,-25,-25,-9
15,-50,-61,-55,-69,-67,-43,7,24,-5
-11,-182,-128,-71,-48,-31,-29,27,32,-19
-16,-181,-65,-25,-3,0,-33,-15,-28,-38
5,-94,3,7,7,-9,-40,-24,-63,-24
47,70,10,38,43,26,21,34,-27,67
114,200,58,68,66,61,44,26,-46,112
99,221,137,75,17,4,-24,-70,-146,51
-46,39,36,8,-34,-29,-45,-57,-108,-24
-135,-217,-113,-60,-37,-7,0,16,7,2
-25,-123,-124,-66,-18,12,22,43,68,46
94,92,-35,-7,2,26,22,58,48,-24
53,-43,-14,22,11,3,6,28,4,-80
4,-238,-53,-15,8,9,11,3,-24,-52
-26,-142,-47,-16,25,44,24,33,3,28
-54,-35,-22,-9,34,25,34,26,17,77
-92,-132,-52,-30,-3,-16,3,8,20,113
-186,47,12,-19,0,-6,-15,-3,-9,47
-222,308,88,3,-7,-26,-33,-18,-21,-57
-30,207,44,-5,-24,-63,-52,-28,-20,-100
135,7,2,-25,-10,-29,-35,-33,-37,-76
147,72,48,-16,-5,-20,-34,-43,-52,-87
83,164,87,-5,-11,-20,-14,-18,-44,-121
65,47,53,-1,-14,-21,-10,-9,-42,-106
100,-67,30,29,0,-4,-25,-30,-62,-56
47,-117,-11,15,19,11,-18,-23,-30,78
-32,-207,-81,-22,-4,-6,-18,2,43,263
-135,-282,-132,-48,-34,-20,-22,11,60,266
-121,-141,-65,-12,-2,12,7,27,10,49
-44,-68,-7,6,15,29,38,44,-23,-95
-38,9,36,9,6,11,14,1,-43,-113
2,101,63,3,-7,-20,-41,-43,-54,-44
37,159,15,6,-3,-3,-28,-23,-34,18
0,47,-43,-13,-1,7,-7,-8,-18,17
4,-98,-38,-24,-28,-20,-6,0,5,-14
68,-34,9,19,-7,-14,5,8,6,2
99,185,44,26,-3,-15,0,14,15,60
69,276,45,-1,-15,-22,-11,4,10,14
20,137,23,-15,-32,-31,-17,-11,-9,-63
-3,10,20,0,-20,-23,-12,-14,-3,-49
-28,-46,44,19,-12,-17,-24,-28,-8,0
-42,-18,98,17,-15,-27,-43,-56,-61,-70
-29,-73,80,-3,-24,-35,-40,-55,-95,-129
29,-140,-7,-39,-41,-45,-35,-28,-58,-76
46,-157,-102,-36,-19,-9,1,23,16,-11
69,-68,-157,-3,36,65,57,82,68,31
223,99,-167,9,77,97,102,122,138,141
195,113,-96,27,79,100,106,114,134,142
2,82,27,61,50,71,78,69,51,19
-120,-86,88,75,31,13,36,8,2,26
-161,-239,48,34,3,-26,-30,-28,-10,120
-185,-277,-38,-43,-39,-41,-65,-75,-43,53
-232,-149,-15,-41,-47,-41,-38,-60,-71,-129
-111,154,66,-6,-17,-18,-10,-11,-60,-146
52,210,63,8,-17,-18,-10,-5,-23,-58
74,-59,14,34,-14,-15,-15,-24,-13,22
39,-26,-1,28,-3,-10,-3,-14,-2,45
20,175,8,10,26,25,19,8,-2,-7
7,255,81,43,29,17,0,-26,-28,-73
3,204,114,64,19,-3,-10,-37,-30,-71
27,89,58,26,5,2,-15,-20,-11,-6
29,-30,0,-17,-23,-11,3,7,13,26
32,-94,-4,-25,-34,-27,-3,3,14,33
4,-221,-31,-29,-16,-11,0,-8,10,12
-25,-296,-112,-45,11,30,21,15,19,-1
-11,-196,-140,-53,-1,43,47,49,50,16
22,50,-65,-24,-10,26,35,53,63,38
38,216,46,12,2,12,10,37,48,21
31,153,65,7,-4,-13,-2,9,9,-7
14,167,56,-15,-27,-28,-30,-6,-1,-20
-14,188,63,-23,-32,-32,-21,-19,-13,-38
-28,63,29,-7,-10,-10,-14,-47,-47,-40
-22,-58,-27,-13,-18,-5,6,-18,-32,-70
51,-126,-77,-18,-5,12,17,40,21,-22
100,-175,-70,7,39,41,28,33,37,39
103,-151,-65,-13,7,-4,-14,-1,14,48
68,-130,-48,-34,-34,-49,-59,-52,-11,62
52,-64,24,-21,-30,-47,-66,-96,-40,116
-65,10,94,41,-9,-21,-46,-106,-101,-16
-210,-41,37,43,5,11,1,-32,-91,-207
-154,255,41,57,74,95,105,83,21,-172
-33,162,30,96,120,145,161,137,119,5
18,-107,-44,26,61,61,70,64,123,178
19,158,-7,-5,2,-11,-30,-9,61,227
-37,183,1,-38,-39,-59,-64,-45,0,164
-67,-117,-18,-34,-38,-39,-35,-31,-32,46
-33,-228,-32,-22,-9,0,11,8,-2,-38
71,-85,-17,-34,-19,-13,5,4,6,-31
128,22,-12,-22,-10,-3,12,8,3,-22
47,83,22,4,-9,-13,-6,-3,-8,-35
-88,75,71,28,-16,-21,-22,-33,-58,-120
-106,-35,49,22,-33,-27,-18,-41,-50,-136
-14,50,32,-15,-61,-52,-12,-9,5,-6
52,198,39,-28,-43,-41,-3,14,39,56
39,-20,-27,-24,6,-4,0,4,21,15
9,-215,-85,-13,38,42,49,11,16,-1
-25,-181,-86,9,50,68,64,35,22,0
-31,-116,-63,24,62,68,43,14,6,-20
38,24,-55,14,45,36,32,12,32,37
130,119,-47,-3,-5,-5,35,42,81,99
129,89,3,5,-21,-15,27,45,64,83
35,49,40,24,-14,-9,10,12,4,-6
-40,-9,29,11,8,0,0,8,-10,-82
-39,-62,5,-3,2,-7,-8,9,9,-100
41,-30,31,3,0,-3,-6,0,8,-109
158,72,103,38,7,-10,-17,-2,14,-57
83,171,145,46,21,3,-28,-17,-10,-2
-34,184,79,-16,-17,-32,-72,-68,-34,82
-100,130,16,-52,-42,-64,-99,-81,-40,84
-197,-65,-35,-18,-12,-24,-54,-57,-40,29
-243,-435,-184,-43,-4,2,-10,-17,10,98
-251,-538,-281,-59,21,56,75,71,106,53
-152,-175,-194,-5,75,112,122,133,154,-4
61,262,-28,24,70,83,63,59,74,-14
104,325,94,27,16,1,-5,-20,-16,-40
64,241,139,31,-29,-32,-11,-33,-16,-44
74,85,136,45,-34,-31,0,-17,6,-62
123,-7,83,32,-36,-25,6,24,46,-18
186,3,85,24,-37,-36,19,16,43,7
163,56,84,12,-43,-16,9,5,31,47
82,28,17,-34,-42,-17,-18,-12,46,124
33,-21,-38,-52,-19,-33,-40,-34,24,170
-66,-39,-35,-41,0,-15,-22,-12,22,83
-196,-51,-49,-49,-1,-14,-2,1,36,-12
-266,-28,-38,-18,22,-3,-19,-24,2,-70
-162,-8,24,43,34,12,-16,-43,-56,-146
-34,4,76,83,64,55,15,-20,-83,-191
-3,-2,54,68,70,66,50,26,-26,-124
51,5,-15,-13,8,14,33,17,14,16
18,2,-38,-32,2,0,6,-10,-19,1
135,67,10,6,25,0,-22,-28,-26,9
228,90,34,0,7,-8,-27,-29,-31,28
129,6,-1,-26,-21,-29,-20,-18,-71,18
53,-14,-4,-31,-38,-50,-41,-25,-59,2
-34,40,28,-4,0,7,-36,-23,-33,-29
-80,53,7,0,12,25,-1,4,-16,23
-112,28,-9,22,19,32,29,35,-10,56
-198,2,2,31,5,22,37,31,-2,-23
-141,-19,46,26,-27,3,25,36,6,-50
93,-72,18,11,-20,6,19,47,30,35
147,-184,-80,-9,1,17,31,42,61,56
58,-239,-104,-14,8,8,16,21,61,39
24,-207,-63,8,13,0,-12,-15,29,70
45,-88,-47,-7,7,1,-18,-25,8,92
33,-60,-61,-41,-18,2,-7,4,-6,2
-59,-111,-56,-35,-7,10,14,28,-19,-76
-93,-76,-4,4,10,20,10,34,-2,-54
-33,172,74,46,41,21,-3,14,-6,-56
28,438,149,44,32,3,-6,-18,-34,-62
33,395,115,-16,-13,-44,-40,-32,-41,-40
48,132,22,-65,-48,-63,-50,-22,-19,3
16,-75,-19,-45,-13,-33,-20,-12,-29,35
-75,-158,-45,0,4,-2,17,2,-38,24
-93,14,13,41,7,9,-4,-14,-30,0
-28,180,99,42,8,-9,-45,-69,-78,-11
2,2,45,-8,-11,-17,-45,-70,-106,-59
46,-221,-39,-45,-28,-24,-30,-40,-65,-2
76,-270,-86,-60,-46,-46,-33,-37,-42,51
45,-260,-113,-30,-32,-21,4,27,-4,64
73,-115,-92,17,36,43,47,94,60,118
9,13,-27,37,85,85,51,64,25,53
-42,91,32,13,10,7,-17,0,-23,-48
-38,117,50,8,-43,-43,-45,-1,-8,-88
-30,109,31,6,-19,-22,-6,20,2,-89
9,143,-8,-9,28,25,41,37,17,-67
19,67,-13,2,31,25,28,16,2,-51
31,-9,-16,-10,-2,-20,-27,-27,-19,-2
68,66,17,-21,-43,-47,-62,-57,-29,40
59,103,62,-13,-23,-35,-54,-62,-20,53
25,72,64,-10,-15,-29,-31,-26,0,50
-68,-65,33,0,2,-18,-28,-39,-65,-61
-73,-131,-3,-8,10,-6,-18,-20,-70,-41
-32,-265,-106,-26,7,21,39,42,17,97
8,-322,-161,-7,32,57,63,70,81,135
86,-20,-17,52,50,61,43,67,81,118
46,198,106,80,38,21,27,23,38,28
-47,39,39,-14,-27,-38,-25,-25,-15,-75
-60,-75,-38,-63,-52,-53,-50,-43,-30,-116
-80,-123,-62,-15,-3,19,8,15,3,-109
-48,-156,-64,16,48,78,73,74,33,-66
12,-111,-58,0,21,32,56,36,25,-6
7,74,0,-6,-12,-15,-4,-22,-13,-21
-12,56,29,0,-4,-3,5,-9,-16,-41
97,276,71,13,-4,17,37,19,18,36
165,366,70,-4,-24,-11,-3,5,44,89
83,313,42,-6,-46,-49,-45,-40,30,64
-72,366,50,11,-26,-49,-38,-44,-10,-27
-152,101,22,11,-4,-22,-10,-19,-18,49
-115,-224,-33,2,-11,-24,-26,-19,-28,137
-174,-333,-13,15,3,-11,-18,-17,-37,10
-213,-193,29,29,7,11,-5,0,-15,-90
-57,66,73,29,0,-8,-4,17,19,-97
96,171,56,30,15,3,0,10,21,-79
137,85,9,34,36,44,22,-13,-15,-55
91,-94,-49,-3,8,17,26,0,8,3
40,-242,-85,-20,-14,6,30,31,53,61
14,-273,-111,-18,15,42,74,58,58,35
13,-91,-60,-18,17,21,48,30,33,-16
47,90,44,-10,-31,-30,-27,-17,12,-34
34,52,75,-24,-47,-55,-64,-65,-28,-44
63,-34,51,-28,-35,-55,-73,-94,-72,-15
154,-2,40,-15,-33,-43,-78,-108,-100,12
120,35,-23,-8,-1,4,-34,-43,-61,8
-16,102,-109,-5,43,80,70,83,71,65
-72,21,-156,-24,54,100,102,142,163,177
-64,57,-83,-20,28,65,75,96,151,169
-110,190,63,28,19,31,34,21,52,7
-191,84,163,82,17,-2,-8,-16,-19,-129
-132,30,127,50,7,-31,-18,-35,-32,-163
66,59,47,-14,-39,-42,-35,-48,-31,-91
119,17,-29,-64,-63,-38,-27,-27,-1,-18
40,-136,-87,-41,-14,-7,8,-5,50,66
-5,-176,-65,19,40,25,25,13,65,81
0,-120,11,66,75,60,49,23,46,13
4,-214,-2,56,50,40,39,39,62,2
-6,-287,-39,33,17,10,23,37,87,6
113,9,-22,27,-10,-10,27,37,87,36
188,392,44,20,-9,-8,13,15,42,27
41,155,15,-29,-39,-18,-18,-20,-26,-41
-85,-139,-47,-65,-42,-13,-10,-29,-68,-66
-133,10,9,-17,20,34,-2,-37,-100,-44
-103,318,102,40,72,57,2,-4,-41,-4
-42,229,72,26,36,10,-19,2,42,43
-79,-21,-1,-7,-8,-27,-35,-15,44,29
-41,-93,-15,-8,-2,-23,-14,-10,9,9
73,-73,-44,-33,-40,-40,-33,-55,-45,55
77,-35,-27,-28,-28,-24,-17,-49,-46,38
35,-12,1,10,12,20,17,4,-12,-12
-9,-7,19,32,25,27,46,13,-3,-68
-23,-12,16,24,-18,7,26,0,-5,-85
18,-34,-6,0,-54,-17,5,10,26,-31
70,-35,2,-18,-87,-48,3,42,84,58
103,62,-10,-36,-99,-37,7,65,123,114
94,151,-2,-50,-85,-9,21,69,96,43
59,61,4,-23,-38,-9,29,34,29,-16
13,-43,0,17,15,-26,-9,-28,-42,-5
-57,-80,0,26,42,-25,-29,-31,-24,-5
-86,-68,-6,23,69,15,-3,0,-9,-12
-108,-39,-4,19,64,25,6,-1,-8,-32
-120,-26,9,28,35,8,17,-11,-2,-85
-57,-2,15,28,29,32,43,-3,-2,-60
59,28,0,-9,10,9,20,0,-6,97
125,28,-3,-22,-18,-28,-15,-18,-14,163
83,46,12,-22,-20,-25,-16,-6,0,31
5,40,18,-20,-9,-4,-13,-2,-1,-71
-54,38,32,-6,-10,-36,-40,-51,-55,-133
-72,-10,34,-7,-26,-42,-64,-73,-81,-138
-84,-46,31,23,14,6,-28,-34,-70,-91
-65,-104,-28,32,43,63,37,11,-30,17
-4,-78,-76,11,59,82,87,58,30,77
60,258,35,-9,11,16,24,44,50,57
70,389,155,-30,-52,-76,-90,-51,-13,3
96,261,177,4,-70,-95,-122,-104,-73,-43
61,-87,85,57,-48,-77,-96,-83,-103,-38
-59,-544,-120,39,11,1,-3,-4,-71,-23
-152,-780,-286,12,73,89,94,91,25,-5
-116,-672,-343,-11,108,134,159,176,138,49
-38,-144,-205,-13,94,122,144,177,141,68
50,549,43,11,32,47,50,68,27,25
115,924,209,-10,-43,-37,-41,-41,-70,-53
141,375,130,-50,-65,-68,-84,-74,-102,-86
148,-80,42,-41,-38,-48,-60,-39,-40,44
53,-15,48,0,-28,-48,-59,-44,-45,136
-109,-142,1,3,-33,-56,-76,-80,-87,118
-193,-216,-62,-6,-11,-24,-30,-37,-77,53
-143,-114,-49,5,0,2,5,22,-33,-10
-94,-144,-23,25,-2,13,-1,35,3,-35
-46,-170,-30,38,25,33,20,38,25,-44
39,-192,-59,-5,2,9,6,13,19,-19
116,-125,-21,-28,-28,-37,-54,-57,-30,21
129,81,28,-29,-30,-43,-61,-55,-64,11
89,213,19,-26,-8,-21,-5,11,-10,-6
56,317,32,-14,-4,8,16,47,36,8
-1,232,38,2,-5,4,14,33,10,-19
-50,-62,3,0,0,-11,14,16,-33,-56
-85,-226,-13,5,22,-4,-4,6,-31,-25
-115,-182,-32,3,13,17,-7,-4,3,35
-67,-43,-23,-20,-13,13,-29,-18,26,47
-17,82,2,-53,-59,-26,-22,-29,16,-47
-5,229,99,-26,-54,-59,-28,-56,-63,-181
35,210,131,28,-4,-23,-11,-50,-97,-153
79,-37,65,56,39,31,8,-40,-78,-45
58,-214,16,70,52,35,17,-39,-92,-22
69,-209,-39,31,44,32,22,10,-39,40
129,-295,-137,-33,1,19,26,40,53,200
83,-230,-147,-65,-38,-12,-3,21,101,286
-22,65,-47,-34,-9,1,14,37,70,151
-78,202,20,9,14,14,47,45,26,-9
-119,43,29,13,-1,1,31,12,-8,-87
10,128,55,9,0,-6,0,-8,-22,-69
134,399,84,-6,-23,-31,-17,5,-11,-30
17,260,47,1,7,9,-27,-13,-15,-80
-56,22,19,10,36,30,-25,-36,-26,-84
-62,-15,53,-7,28,21,-18,-32,-27,-60
-62,-6,53,-4,6,3,-1,7,-11,-22
-42,-103,-15,11,5,21,26,44,28,38
7,-142,-36,7,15,38,50,48,39,28
36,-121,-43,-7,3,19,36,35,12,-19
42,-126,-107,-24,-24,-24,-28,-21,-3,-4
2,-73,-103,-26,-33,-46,-45,-41,-13,-7
-10,24,0,-2,-3,-19,-16,5,22,20
-33,59,65,48,32,5,-2,17,21,66
-83,42,59,35,22,-5,-28,-13,-18,123
-65,50,45,1,-16,-29,-45,-41,-22,26
23,41,51,13,-6,-17,-21,-18,-9,-72
28,-35,37,23,12,11,-2,-12,0,-46
-40,-69,-8,-13,14,32,13,-37,-34,-57
-122,-76,-45,-25,9,27,0,-63,-76,-102
-85,6,-12,-17,-27,-31,-27,-41,-31,-61
45,80,3,-37,-79,-74,-30,17,38,21
65,81,12,-35,-77,-64,-4,29,34,26
46,35,18,-5,-30,-7,42,44,33,1
67,93,30,16,27,23,43,62,39,-6
98,174,27,3,40,7,30,30,32,-15
81,25,-24,-4,48,22,16,12,11,-20
40,-113,-48,-32,24,24,4,-4,-3,22
-8,-211,-47,-35,1,8,11,-2,15,85
-28,-336,-87,-13,6,20,9,12,43,174
-50,-278,-110,9,34,43,35,36,47,111
-68,65,0,22,14,23,23,23,1,-31
-41,268,52,1,-32,-25,-26,-14,-42,-53
45,277,36,6,-29,-11,-18,-21,-27,-37
68,185,32,31,0,10,12,-6,15,-20
10,-47,-7,12,1,0,14,-7,27,-39
5,-103,-11,-2,-13,-16,-7,-2,30,-34
-3,-41,48,45,15,1,-8,1,23,-29
29,15,53,42,21,8,-17,-2,33,35
43,43,21,7,16,20,-11,-3,42,50
0,-2,9,-12,0,17,28,23,42,4
-23,-50,3,-11,12,35,47,43,27,-2
6,-37,-4,0,18,27,35,16,20,-28
33,-8,-12,-6,-4,4,11,-9,14,-79
28,-17,-18,-19,-12,5,-3,-20,-9,-80
-46,-99,-45,-29,-28,1,-15,-35,-20,-46
-74,-106,-26,-32,-33,-26,-55,-70,-22,27
-85,207,86,18,9,-7,-24,-26,-10,37
-80,428,159,63,35,16,13,13,5,32
101,254,85,7,-9,-19,-1,-6,3,33
194,39,16,-19,-30,-32,-15,-32,4,12
83,-137,-59,-20,-24,-23,-3,-11,35,49
-42,-249,-83,-5,-5,25,20,18,42,35
-138,-292,-89,-2,14,44,30,20,25,48
-156,-194,-90,-16,8,17,19,0,23,70
-123,35,-83,-7,30,37,30,36,20,-13
-96,130,-24,29,59,56,55,82,27,-106
-35,-316,-20,19,39,39,44,69,14,-90
40,-381,-6,-16,-2,-8,15,37,17,-25
82,186,91,-14,-28,-26,-21,11,19,0
75,506,132,-11,-21,-31,-40,-23,-12,-15
33,454,152,-7,-32,-60,-65,-61,-43,-40
0,271,134,11,-29,-60,-55,-51,-47,-41
78,36,64,27,-23,-42,-38,-42,-51,12
153,-115,4,16,-32,-34,-32,-35,-26,70
104,-151,-65,0,-7,-2,18,1,1,36
79,-88,-139,-14,19,32,72,67,59,33
3,-199,-167,-8,30,60,102,100,84,26
-97,-342,-166,-1,38,65,88,93,82,46
-119,-252,-150,-35,18,26,25,33,47,49
-98,155,-38,2,34,37,2,0,12,-14
-105,313,84,53,58,37,0,-7,-19,-80
-10,56,77,23,21,-13,-40,-38,-66,-92
41,-86,47,-9,-19,-30,-32,-43,-82,-63
12,-111,26,-19,-14,-24,-22,-30,-72,-24
63,-26,30,-18,-16,-9,-5,6,-28,107
167,164,69,0,-17,-14,-25,-2,-13,150
123,122,44,3,-33,-42,-46,-34,-51,-13
29,-33,-5,4,-27,-44,-47,-33,-62,-48
-70,-31,6,32,12,-4,-14,-12,-53,-56
-160,57,38,10,12,0,-24,-6,-25,-15
-161,57,16,-28,-36,-32,-40,-15,-7,76
-110,34,-11,-49,-38,-22,-32,0,-13,63
-158,-9,1,-23,13,7,-5,16,-15,-36
-72,-84,12,9,25,11,11,11,-6,-100
196,-63,-11,15,-2,2,22,15,8,-61
285,-112,-48,-8,-16,12,11,28,13,-30
153,-249,-80,-17,16,39,30,29,17,-6
-3,-264,-60,-17,29,31,48,2,-3,21
-70,-50,6,-2,8,-11,-9,-36,-38,98
-110,96,40,-3,-3,-39,-67,-88,-63,92
-203,-24,-16,-42,-30,-39,-74,-94,-68,-14
-175,79,-8,-25,-20,-10,-38,-28,-19,-37
142,371,73,23,13,15,18,24,27,-1
284,265,58,1,7,-9,10,23,36,-14
139,3,1,-8,-9,-17,-14,7,31,9
-21,-105,-29,-14,-19,-28,-14,17,42,48
-94,-76,-13,-3,-19,-38,-17,-4,-4,54
-147,49,58,34,17,-11,-19,-35,-37,10
-150,107,58,66,65,42,1,-22,-42,-81
-96,-89,-3,48,56,44,26,22,-28,-126
6,-252,-39,17,32,35,26,8,-12,-105
77,-194,-44,-15,-15,-8,-12,-33,-27,-39
78,-290,-103,-29,-37,-23,-29,-45,-29,8
34,-180,-130,-25,-6,21,2,-1,-14,0
14,427,-11,12,47,85,72,65,41,46
95,882,92,29,0,47,61,86,84,156
80,345,17,-36,-43,-22,28,52,87,114
7,-267,-22,-44,-35,-35,22,26,46,0
-20,-303,-20,-25,-38,-22,16,32,29,-15
-25,-145,-4,-6,-15,-18,13,29,19,-30
-32,-82,24,13,5,-30,-26,2,-5,-56
-16,-64,51,34,21,-7,-51,-32,-32,-63
3,-35,58,33,34,17,-44,-43,-54,-55
33,9,15,-3,2,-16,-27,-33,-24,-11
75,93,-17,-39,-22,-30,-28,-15,-7,44
50,109,-37,-26,-14,7,-6,5,22,40
26,19,-43,-4,-12,10,24,13,47,27
-32,-36,1,34,8,3,23,4,42,-27
-75,-87,22,69,39,11,11,-5,1,-76
-49,-132,14,40,30,4,19,-3,-2,-55
-31,-191,22,7,1,-17,2,-10,-1,1
-75,-106,37,12,-14,0,-7,-34,-36,20
7,294,68,0,-16,16,-8,-47,-60,-14
83,341,50,-26,-43,-23,-31,-54,-72,-31
11,230,49,17,-18,-19,-15,-33,-52,-33
-36,129,48,42,22,0,25,10,-12,-4
26,-152,-50,19,7,5,53,50,55,115
61,-216,-120,-52,-26,-11,33,49,123,261
-12,-123,-55,-53,-47,-44,-22,-28,83,215
-137,-118,4,-5,8,7,-21,-47,13,-15
-99,-173,-1,15,39,38,18,10,1,-157
24,-142,-31,-8,17,14,19,38,-1,-146
52,-92,-66,-27,2,-4,12,31,8,-83
10,27,-42,16,30,27,41,39,34,-25
49,316,9,45,62,67,54,35,36,66
115,257,48,7,9,11,-1,32,43,126
21,-40,30,-17,-46,-37,-38,-5,2,70
-92,-138,-26,-38,-67,-46,-41,-32,-40,-18
-99,-118,-49,-21,-34,-21,10,-1,-36,-84
-47,-86,-17,13,17,21,32,20,4,-55
4,-29,24,25,29,26,10,9,14,46
34,15,29,27,14,20,17,15,20,65
29,47,49,40,22,18,10,16,21,-28
34,119,78,40,14,2,-19,-11,0,-50
43,176,30,-14,-15,-39,-44,-48,-16,-16
13,169,-6,-31,-30,-58,-36,-48,-14,13
-43,96,-15,-19,-10,-31,-15,-17,11,-6
-68,-29,-29,-6,12,2,33,5,4,-54
-50,-142,-39,16,35,42,73,23,6,-58
-1,-172,-28,27,39,41,40,38,48,-2
27,-152,1,41,24,31,9,28,57,15
3,-97,30,52,11,23,19,17,44,13
-25,-60,11,16,-12,28,6,2,25,17
-15,-59,-18,-52,-38,0,-7,-1,-4,-16
16,21,-9,-52,-56,-38,-37,-36,-38,-77
81,256,60,-6,-39,-30,-27,-34,-49,-68
107,371,30,-8,0,3,17,25,27,6
117,31,-98,-33,17,16,25,46,88,110
106,-56,-71,-28,9,-7,-23,-26,35,155
-37,22,38,12,16,-2,-31,-57,-46,15
-112,-94,52,6,9,-5,-7,-24,-42,-44
-114,-192,24,-5,-5,-34,-29,-29,-21,-101
-142,-84,21,14,-7,-37,-30,-39,-36,-112
-98,43,3,28,-7,-19,-22,-27,-51,-24
139,276,-14,51,28,49,55,49,28,95
167,334,-19,45,55,91,109,96,111,145
8,-53,-18,17,47,55,83,69,87,43
-108,-284,12,7,37,42,42,35,21,-54
-141,-202,52,22,13,22,5,16,-3,-54
-85,-15,82,10,-15,-9,-16,-7,4,-14
-48,6,12,-39,-37,-21,-36,-15,-3,22
-38,7,-28,-83,-47,-27,-37,-41,-30,-17
93,78,-35,-67,-47,-25,-23,-52,-41,-9
119,49,-50,-31,-33,-12,-9,-37,-20,58
51,-144,-90,-16,-2,10,28,29,41,86
22,-67,-55,15,38,39,66,80,89,49
