-32,145,25,22,33,59,82,17,141,-6
-24,6,15,15,14,32,29,20,78,-6
-1,-52,16,10,-5,16,11,8,36,-8
10,-54,11,0,-12,12,11,2,3,-3
14,-51,2,-2,-14,4,-1,-3,-12,8
10,-31,-7,-3,-15,-6,-12,-1,-4,33
10,-45,-25,-17,-10,-19,-34,2,-52,12
15,-106,-48,-42,-11,-72,-147,-13,-287,-11
13,-71,-23,-24,-4,-55,-89,-5,-204,-22
5,4,6,16,16,10,63,15,101,0
-8,28,9,14,11,9,24,-4,54,10
-6,178,39,31,24,42,97,31,186,10
-2,120,48,25,10,22,76,26,156,6
0,15,23,7,-1,-5,39,0,94,10
-7,-37,-2,0,-6,-15,7,-8,39,12
-13,-50,-18,0,-3,2,-6,-4,29,13
-10,-15,-22,-9,10,11,-5,-4,31,5
-8,15,-11,-14,5,0,-3,0,13,-5
0,22,3,-10,2,0,8,2,11,-13
15,11,10,-7,3,5,10,5,9,-21
12,-3,-1,-15,3,1,15,6,8,-23
4,2,0,-6,3,-3,-5,0,7,-4
18,-1,7,9,7,-13,-20,2,6,12
7,-13,1,10,-1,-7,-2,4,0,7
-2,-18,0,-7,3,-8,-4,13,-4,-3
9,-25,7,-9,0,-17,7,12,5,8
8,-33,0,-2,-12,-4,6,4,-18,-3
0,-39,-5,-3,-1,-2,-1,0,-33,-9
-14,-43,-16,-8,-5,3,-16,-6,-45,15
-3,9,-14,-14,-15,-7,-29,-6,-24,26
28,155,-1,-15,-7,-12,-25,-5,-8,16
21,81,-4,-30,0,-25,-79,-19,-124,4
-7,-28,-11,-20,-3,0,-46,-13,-65,0
-1,-8,6,12,-10,37,36,0,94,0
-6,12,15,17,-9,22,10,-13,56,-18
-12,-3,13,19,3,19,21,-22,4,-30
-19,-10,3,14,8,5,7,-15,-13,-22
-22,-20,2,10,4,0,-12,-2,-24,-4
-7,-21,4,28,-3,2,-5,-1,-39,-26
14,-37,11,60,16,18,16,11,-37,-54
7,-91,10,64,39,30,42,17,-33,-54
-11,-170,3,45,26,5,24,16,-7,-20
-25,-215,-3,21,5,0,9,5,-4,12
-16,-222,-52,-55,-23,-33,-27,-8,15,92
-69,-226,-121,-83,-38,-49,-39,13,22,80
-69,-15,-64,-58,-21,-31,-56,28,-106,-50
3,573,101,20,25,42,64,41,39,-66
-2,679,131,18,33,37,76,31,43,19
-32,271,40,-18,4,6,14,-1,-2,76
15,-164,-23,-28,-18,-10,-31,-45,-16,81
96,-128,-20,-32,-21,-26,-47,-66,-26,54
98,-25,-19,-28,-16,-25,-34,-40,-38,17
41,-238,-42,-28,-10,-22,-28,-30,-39,-5
53,-190,-34,-15,-18,-36,-62,-56,-70,-17
31,-199,-5,1,-28,-44,-68,-50,-82,-32
12,-227,17,22,-26,-39,-41,-14,-68,-22
-13,20,40,39,5,-14,-12,22,-44,-9
-71,273,3,38,38,22,35,50,-20,-14
-88,345,-14,38,48,44,48,62,1,2
-14,261,95,68,42,28,21,44,19,28
-14,5,171,88,31,23,17,22,23,34
-41,-211,47,13,6,-3,-2,-9,-12,-3
3,-228,-72,-74,-25,-30,-25,-17,-19,-27
59,94,-77,-70,-15,0,-6,24,17,19
7,169,-93,-60,4,24,27,45,17,15
-101,-137,-118,-46,14,32,34,31,-12,-42
-82,-84,9,4,27,9,5,-18,-46,-78
-9,202,140,45,11,4,-6,-36,-37,-50
23,352,115,30,-15,6,-9,-2,-15,-9
23,16,7,-2,-7,8,-1,11,0,6
30,-242,-34,-18,-2,11,-9,3,18,21
47,-210,0,-2,-12,-2,-15,2,6,19
32,-126,0,-1,-27,-10,-11,6,-13,18
29,-70,-26,-18,-22,-14,-1,0,2,28
32,-64,-53,-26,-28,-11,11,8,17,18
15,-28,-47,-20,-23,-13,7,15,24,12
0,27,-7,-5,1,-7,-4,-7,0,-8
3,62,24,-5,8,-22,-13,-25,-20,-8
11,83,38,1,-11,-26,-27,-24,-28,16
36,-6,17,2,-17,0,-30,-18,-25,42
62,-92,0,-1,5,3,-14,-5,-15,40
37,-65,-1,11,21,5,-5,0,-2,30
30,-30,-17,22,18,26,-9,-5,16,14
23,-84,-37,1,8,19,-18,-16,0,-9
-23,-182,-47,-2,0,11,-13,-14,-16,-39
-63,-118,3,-3,15,13,8,-17,-20,-47
-44,246,102,12,16,8,-13,-28,-32,-21
-32,461,116,18,-3,-9,-40,-34,-47,-26
-63,113,-14,-40,-58,-48,-45,-42,-53,-56
-77,-171,-78,-63,-44,-27,-5,0,-24,-38
-51,-27,-45,-13,20,41,52,54,25,12
-11,104,-20,27,56,66,76,86,54,41
9,-155,-67,0,38,29,44,63,35,16
23,-159,-70,6,20,6,30,28,15,12
33,-124,-14,35,16,9,19,22,4,22
35,-83,15,29,0,-15,-4,-3,-12,18
51,67,43,19,2,-16,-30,-22,-26,24
10,46,27,1,-1,-26,-89,-44,-136,12
-21,-1,1,2,5,-11,-66,-42,-112,-38
-47,-22,-15,0,6,2,-34,-31,-93,-60
-57,-16,-11,18,18,29,61,7,43,-76
5,-44,-14,5,10,26,46,1,27,-78
11,-137,-39,-32,-18,-16,-40,-16,-103,-87
-31,-158,-65,-38,-27,16,52,24,100,-84
-2,-71,-63,-48,-19,4,70,38,138,-36
42,255,39,-11,-3,18,54,29,79,-9
79,428,111,10,0,5,0,10,-19,17
117,307,78,-10,-33,-42,-90,-25,-98,71
136,314,80,2,-40,-17,-16,-33,105,125
67,196,5,0,-34,-20,-5,-39,100,117
-20,-165,-100,-29,-34,-34,-4,-39,85,209
-10,-203,-40,-29,-34,-47,-26,-41,59,289
21,-53,69,24,15,0,-27,-40,18,182
2,-101,44,52,42,49,-12,-25,-20,4
-18,-190,-35,21,26,37,-13,-11,-34,-82
-99,-31,-7,11,17,43,11,35,-7,-150
-100,100,-2,-12,-3,39,38,44,18,-161
-34,126,-48,-45,1,32,38,38,22,-132
13,103,-41,-19,8,24,28,15,29,-81
7,77,-4,24,2,18,14,-1,24,-23
-12,-39,11,18,-4,-20,-22,-37,21,74
-52,-366,-6,49,16,-6,-24,-41,8,93
-78,-511,21,68,45,24,-5,-14,-1,13
-35,-487,17,42,14,-13,-15,-3,-26,-22
-35,-450,-67,-13,-34,-50,-15,-10,-41,-62
-50,-325,-183,-108,-72,-50,-9,4,-25,-73
-39,353,-101,-105,-26,24,56,66,52,-29
-41,1467,242,79,90,108,131,134,118,42
-106,998,276,129,105,103,114,101,69,24
-67,-142,58,9,14,27,31,17,-6,-15
51,-325,-50,-51,-43,-13,-10,-19,-12,-1
90,-225,-51,-21,-37,-21,-13,-28,-16,4
79,-139,-11,0,-10,-16,-23,-28,-19,-20
45,-113,9,14,1,-10,-23,-18,-12,-34
35,-106,1,27,-4,-9,-10,-13,7,-26
21,-113,-11,18,-13,-14,-13,-15,9,-27
-2,-118,-27,8,-3,-8,-19,-11,6,-11
-6,-43,-14,12,10,-10,-2,-1,1,16
14,214,51,37,18,9,28,20,8,17
9,337,69,44,25,16,32,25,14,13
12,122,29,14,4,-11,11,11,14,10
31,-134,1,-6,3,-10,0,2,10,6
25,-107,-1,-1,8,-11,-5,-2,8,16
32,48,12,3,-14,-18,-6,-13,5,5
46,10,-22,-19,-29,-29,0,-23,-1,-2
33,-78,-55,-27,-25,-22,1,-15,8,8
26,-98,-57,-41,-13,-19,-32,-25,-29,3
34,-62,-63,-58,-13,-26,-84,-26,-117,3
34,5,-43,-25,12,9,25,1,80,12
10,-30,-35,-19,-4,-7,22,-12,74,0
14,2,-9,-20,-20,-20,-3,-24,34,4
63,185,23,-15,-21,-12,-20,-8,24,1
51,238,16,-7,-10,0,-18,15,8,-4
-9,63,-4,0,0,1,-12,0,-8,-12
62,242,109,38,4,-31,-23,-29,-44,-4
150,460,178,33,-12,-42,-24,-35,-60,5
102,192,44,-19,-24,-58,-21,-27,-50,9
108,-30,-79,-57,-16,-33,-10,-3,-10,20
53,-339,-156,-68,-17,20,7,26,19,20
-89,-550,-168,-57,-14,33,6,48,24,-2
-187,-508,-93,-37,-6,42,43,29,40,-31
-193,-277,70,52,51,87,66,45,46,-31
-136,-26,161,141,97,116,60,54,62,13
-150,6,57,91,66,80,55,35,81,30
-181,-4,-31,-2,12,16,23,-1,36,-2
-117,154,-66,-44,-33,-38,-25,-38,-42,-53
-38,235,-82,-48,-12,-24,4,0,-9,-42
-89,-161,-118,-46,33,40,70,67,61,-20
-133,-443,-98,-32,27,68,75,50,52,-20
-59,-276,5,14,10,32,19,14,6,-21
19,92,133,102,24,14,-3,-4,-10,-21
-27,244,171,123,34,12,9,-5,-1,-20
-40,287,162,84,27,-9,-6,-5,-18,-10
23,275,90,28,2,-23,-1,2,-31,20
100,-34,-36,-36,-23,-41,-35,8,-110,44
140,-154,-95,-71,-24,-37,-16,6,-31,69
151,-117,-77,-54,-41,-56,-55,-13,-20,66
136,-64,0,-4,-26,-29,-17,-13,89,46
96,-161,-2,1,-29,-18,6,-23,113,21
28,-261,-51,-18,-48,-33,-24,-47,15,-17
34,218,14,-13,-39,-13,-27,-41,-5,-2
85,703,122,17,-20,2,-8,-15,18,27
70,320,94,14,-10,-5,0,-16,22,20
142,302,98,25,2,9,25,5,36,14
258,591,141,34,8,7,23,12,39,6
266,670,147,16,-8,-43,-2,-33,23,-3
193,232,78,-17,-49,-86,-71,-83,-29,-41
137,-182,-17,-43,-71,-68,-98,-81,-39,-25
73,-36,-104,-66,-66,-40,-53,-37,-9,-4
-67,-118,-185,-67,-9,-6,25,18,31,37
-306,-716,-287,-76,24,61,71,56,62,110
-465,-1009,-321,-103,-5,53,62,49,40,45
-444,-706,-248,-83,10,48,90,82,49,-53
-454,-592,-111,0,78,84,148,138,114,-62
-360,-344,131,119,98,78,95,75,52,-62
-192,241,277,173,99,57,42,22,4,-47
-66,346,134,106,71,54,44,26,18,-10
68,323,19,41,27,36,14,-1,-2,11
152,522,41,52,21,26,-1,0,-7,23
85,184,72,64,38,24,-1,0,-14,-15
-7,-422,-5,11,4,-12,-30,-18,-27,-70
22,-351,-58,-49,-35,-43,-45,-37,-24,-35
151,163,-9,-68,-65,-49,-40,-37,-15,22
190,139,-24,-87,-62,-34,-26,-29,0,22
153,66,-36,-66,-36,-24,-22,-18,-13,-8
185,247,39,-17,-18,-28,-12,-19,-31,-12
253,391,58,-8,-23,-16,-3,1,-1,49
221,152,17,9,-22,-5,-4,12,17,63
148,-171,21,42,-12,-2,-13,-9,-11,23
81,-339,22,61,0,9,-13,-11,-13,3
-8,-189,60,65,5,-18,-13,-17,-11,-4
-106,-196,37,31,-9,-26,-15,-17,-20,-5
-134,-30,59,18,7,9,1,-19,-43,-33
-52,829,213,37,16,12,-21,-37,-51,-55
1,1027,192,7,-17,-16,-40,-52,-54,-54
29,276,-12,-48,-25,-2,-17,-18,-29,-19
34,-416,-231,-94,-6,35,30,37,48,45
-2,-478,-320,-105,9,68,79,84,119,96
-35,-305,-211,-60,4,38,44,42,80,75
-188,-479,-74,-8,13,4,6,0,13,8
-346,-340,-40,12,17,-18,15,16,-13,-75
-298,328,39,33,28,6,22,30,-1,-77
-182,269,56,43,44,56,38,42,24,-37
-155,-320,12,27,33,39,41,33,25,-29
-43,-316,61,47,12,-11,-2,2,12,20
96,-28,69,32,-4,-26,-30,-20,-12,40
166,80,2,-4,-36,-22,-54,-32,-42,5
170,81,-11,-5,-54,-36,-67,-34,-55,-7
146,53,-17,-10,-56,-35,-48,-21,-31,7
108,24,2,13,-10,-18,-30,-14,-16,3
66,18,11,17,7,-12,-22,-18,-12,-3
26,22,14,3,5,-5,-23,-8,-22,9
-2,1,0,-12,1,-2,-2,-10,-23,16
-20,-2,-4,-10,11,-8,-5,-20,-19,8
-29,7,12,-8,12,-12,-17,-11,-24,-5
-5,39,18,-20,12,-16,-19,-8,-40,-8
118,244,58,-11,-5,-28,-45,-21,-56,4
234,399,91,-2,-22,-55,-63,-38,-69,13
271,233,61,-7,-29,-52,-61,-44,-61,12
281,-49,41,-2,-28,-56,-83,-41,-78,24
318,21,59,-26,-65,-98,-140,-70,-171,53
311,313,57,-20,-53,-47,-28,-51,17,65
188,102,-39,-19,-28,-8,-6,-11,42,57
-67,-279,-130,-25,7,2,9,25,33,16
-229,-463,-74,-29,4,-11,-13,9,19,8
-344,-983,-141,-84,-28,-19,-37,-18,-3,-29
-507,-1477,-367,-138,-15,20,35,23,8,-96
-541,-522,-267,-60,46,100,124,100,51,-74
-272,2021,199,50,58,81,104,75,12,-50
-34,2550,395,81,13,15,2,-18,-90,-69
-14,770,248,83,31,30,-23,-18,-99,-51
-54,-1220,15,81,63,72,32,37,-32,-26
22,-1736,-166,46,48,55,48,41,-14,-20
194,-712,-105,22,18,21,28,21,-7,28
323,380,76,19,0,-12,-10,-22,-21,55
298,936,64,-18,-12,-48,-40,-48,-40,60
144,490,72,-3,-43,-40,-48,-61,-77,56
88,227,269,81,-102,-71,-104,-110,-122,42
106,-136,226,80,-52,-69,-101,-98,-111,39
329,-618,-14,-52,-66,-83,-83,-69,-88,-7
298,-706,-225,-165,-83,-92,-61,-25,-57,-50
65,-126,-308,-188,-70,-60,-25,5,-32,-64
-162,95,-398,-162,0,66,96,105,53,-15
-269,-24,-345,-61,126,202,232,232,187,131
-150,86,-58,69,142,165,186,186,189,213
-216,-179,45,87,67,28,27,35,70,130
-432,-302,16,59,23,-39,-58,-62,-45,4
-580,-116,-92,-2,16,-1,-11,-18,-69,-131
-381,50,-143,-49,9,41,40,35,-43,-179
-96,157,58,66,69,90,67,63,-25,-142
95,384,329,215,114,106,88,85,21,-42
151,797,427,176,52,17,31,37,14,-20
-153,850,418,175,42,1,11,-11,-44,-76
-591,-390,158,159,67,47,40,20,-24,-92
-592,-1243,-97,81,81,47,52,33,6,-81
-171,-1018,-190,-31,8,3,22,9,13,-25
239,-610,-227,-114,-82,-48,-34,-20,18,70
470,-231,-211,-147,-117,-79,-79,-53,-6,114
435,-16,-167,-158,-159,-118,-111,-83,-28,67
263,3,-100,-130,-157,-90,-93,-72,-10,21
175,391,59,-79,-58,-70,-55,-69,-15,20
270,985,171,-10,23,-14,-8,-49,22,65
393,1098,246,74,54,0,-9,-36,36,90
273,284,180,89,47,-11,-34,-48,7,39
65,-538,2,23,20,-9,-31,-23,1,-26
-31,-466,-42,-22,0,8,-21,2,7,-78
-6,-44,-2,-23,-14,-28,-44,-20,-17,-80
-83,-44,-56,-24,0,-46,-43,-17,-19,-29
-244,-193,-127,-14,50,12,25,45,3,-48
-178,169,-57,9,63,56,73,83,37,-32
11,452,39,-3,25,14,21,21,11,-15
203,155,-8,-57,-41,-40,-46,-42,-18,13
258,29,-46,-74,-62,-48,-40,-24,8,52
170,199,-4,-46,-34,-22,-4,-3,33,43
18,190,14,-15,-8,28,5,0,28,-17
-187,-193,-13,24,31,78,47,35,30,-62
-280,-444,-1,51,60,86,55,41,28,-67
-173,-320,55,78,56,34,8,4,16,-39
28,-53,107,111,26,-10,-36,-50,8,18
204,71,45,38,-10,-36,-56,-59,13,84
334,205,10,-34,-60,-66,-74,-68,-14,80
348,215,41,-47,-70,-67,-91,-83,-63,15
270,434,112,-56,-71,-59,-93,-79,-44,7
316,1032,128,-97,-112,-107,-122,-84,-33,52
321,749,-12,-123,-140,-152,-131,-93,-42,87
47,-24,-43,-49,-74,-88,-70,-39,-32,72
-307,-715,-20,75,31,-6,-6,17,-23,-23
-621,-1576,-203,108,125,110,99,80,-4,-147
-714,-2117,-440,61,179,210,225,180,60,-178
-485,-1174,-119,75,180,201,225,197,128,-37
109,1150,343,23,53,54,75,72,91,90
284,1966,458,-57,-78,-98,-65,-62,-9,23
-74,1587,372,-26,-47,-63,-61,-62,-35,-87
-162,1579,239,66,10,14,0,-19,0,-68
-151,414,-53,75,41,60,42,18,14,-40
-357,-1830,-491,-1,83,99,88,78,69,-27
-345,-2496,-689,-46,109,145,184,186,207,130
-94,-1172,-403,-25,64,116,146,161,201,195
137,-84,21,15,7,-9,2,-6,15,35
252,126,172,9,-7,-81,-79,-103,-104,-103
363,286,228,-10,-39,-78,-94,-107,-139,-97
313,238,228,-6,-61,-56,-82,-96,-120,-24
80,220,226,28,-83,-96,-123,-136,-130,-2
-69,8,90,-7,-104,-138,-130,-164,-192,-109
-114,-358,-241,-114,-90,-59,-6,-27,-115,-113
123,12,-353,-147,-33,26,91,110,69,102
487,1181,-138,-51,22,58,99,156,174,308
688,1730,142,42,30,16,17,69,127,296
768,1424,208,35,-20,-49,-65,-29,28,181
626,355,-51,-71,-87,-77,-81,-64,-17,62
66,-660,-20,-5,-52,-40,-57,-65,-60,-59
-223,-692,130,24,-36,-40,-67,-58,-50,-36
-479,-1125,-60,-86,-49,-36,-44,-22,5,-31
-772,-1008,-129,-84,-2,15,14,38,58,-48
-845,442,245,85,71,71,64,47,59,-70
-730,1514,574,218,76,48,38,-20,-28,-168
-261,1670,629,259,85,38,0,-39,-90,-227
362,-61,387,193,43,-2,-57,-82,-146,-230
702,-1237,66,-1,-64,-82,-130,-155,-177,-201
435,-1071,-258,-199,-112,-37,-12,-27,-44,-115
-134,-695,-496,-195,-33,115,181,165,115,-56
-415,524,-278,-29,99,209,269,253,187,3
-539,933,53,130,163,152,203,164,131,2
-389,-719,-525,-33,59,41,95,72,93,53
-175,-2310,-1303,-243,71,192,270,277,334,314
-205,-1602,-869,-156,118,233,276,307,378,342
91,628,209,30,32,12,11,31,143,191
515,1520,684,89,-72,-167,-202,-204,-52,141
692,1115,666,63,-171,-287,-306,-313,-138,101
1000,768,496,25,-191,-313,-326,-327,-170,57
1042,469,289,44,-155,-217,-250,-267,-168,-7
701,-74,43,107,-62,-69,-107,-119,-82,-36
299,-159,14,190,76,54,27,30,15,-50
-20,-151,304,207,114,30,-6,-14,-56,-147
-185,-470,151,-32,-14,-56,-68,-52,-79,-69
-836,-415,-218,-188,-24,29,61,71,25,-85
-1617,-1068,-276,-91,50,108,143,96,-20,-319
-1206,-1289,-593,-121,131,192,254,219,153,-113
-411,-334,-694,-91,222,330,411,433,404,262
-459,342,-111,79,214,261,313,313,261,113
-708,-130,186,89,122,96,130,108,17,-214
-133,127,189,24,36,9,7,-34,-82,-249
552,1269,295,6,-12,-57,-85,-107,-85,-47
783,2069,440,-2,-103,-158,-186,-173,-112,107
172,1425,425,-16,-125,-149,-186,-158,-112,68
-424,1,220,24,-86,-78,-123,-104,-132,-94
-272,-967,72,98,-9,-54,-79,-82,-95,-71
91,-1704,-21,142,24,-90,-89,-94,-57,26
90,-2077,-255,77,71,-3,-5,-7,-9,13
199,-1647,-583,-131,69,95,150,140,130,72
486,-433,-522,-207,20,100,180,155,171,153
710,584,42,-8,23,-9,17,-3,36,154
759,1232,329,59,-49,-119,-150,-151,-96,129
763,1428,156,-54,-147,-169,-165,-140,-69,187
743,88,-94,-175,-184,-210,-145,-87,-1,209
529,-133,-178,-285,-233,-231,-204,-105,-31,163
-230,-51,-220,-202,-142,-90,-76,-43,-45,-51
-1087,-83,94,114,99,140,115,57,-24,-255
-1232,1593,689,441,277,250,182,104,-34,-293
-908,1170,329,371,271,258,242,207,58,-167
-1040,-897,-382,85,222,298,321,289,148,-132
-1373,-1440,-222,117,253,298,298,190,10,-412
-704,-646,10,81,151,158,147,59,-66,-384
558,285,-73,-111,-35,-24,-17,-32,-12,-24
1268,431,-19,-215,-202,-201,-172,-133,6,274
1485,1279,261,-207,-293,-332,-319,-256,-37,400
1624,1821,450,-174,-350,-419,-441,-367,-138,392
1611,1005,333,-95,-313,-371,-432,-375,-210,328
691,-517,-131,-58,-188,-219,-254,-218,-164,252
-580,-2578,-642,-44,45,103,85,101,28,4
-1211,-3178,-624,124,332,420,438,430,249,-136
-558,-358,58,295,353,352,387,342,212,-133
-272,815,227,142,148,113,147,98,25,-255
-1153,-244,19,-19,31,64,82,64,0,-304
-1129,-5,-28,-25,37,59,74,52,-4,-267
-140,1000,200,9,41,-15,-6,-22,-23,-17
200,916,457,20,25,-162,-160,-117,-58,164
-207,1208,936,119,-123,-239,-300,-274,-215,-44
-236,862,795,3,-236,-237,-336,-342,-292,-248
562,708,328,-159,-272,-223,-309,-306,-232,-128
914,412,-211,-234,-225,-182,-212,-189,-155,-13
652,39,-1005,-205,-24,103,110,151,109,183
202,-284,-1114,-6,195,342,344,376,309,278
-262,-1881,-831,162,303,376,388,358,322,183
-684,-3657,-896,35,252,362,412,361,340,114
-655,-1554,-318,-60,125,253,299,268,257,46
-113,2263,490,-15,-66,-13,6,8,15,1
545,2790,438,-64,-184,-227,-210,-164,-118,15
1013,288,-52,-130,-122,-199,-141,-99,-33,139
1029,58,19,-40,-40,-84,-66,-48,20,213
333,-460,123,74,12,17,-10,-21,4,94
-52,-947,323,176,8,-7,-50,-52,-4,103
841,1192,789,118,-229,-352,-385,-327,-140,254
1282,2476,786,-120,-437,-607,-636,-531,-307,165
717,1765,508,-219,-410,-539,-575,-484,-340,-92
195,399,-52,-277,-295,-283,-360,-330,-336,-334
-1311,-3316,-1071,-299,72,263,235,203,-40,-471
-2922,-4685,-1046,97,584,769,821,701,353,-475
-2762,-395,48,341,523,655,719,609,354,-386
-1600,1771,321,183,217,289,327,235,126,-318
-524,2107,580,306,166,126,62,-49,-91,-226
222,1213,305,294,173,85,37,-40,-50,80
365,-1722,-959,-87,144,183,233,284,287,477
435,-2508,-1128,-255,77,178,273,375,399,519
959,-517,147,-89,-105,-105,-71,-22,82,287
1594,931,1080,129,-237,-400,-455,-419,-285,103
1517,-62,792,84,-301,-510,-580,-544,-435,-22
822,-1098,-86,-158,-297,-361,-394,-340,-284,-18
311,341,-568,-224,-100,6,16,102,95,216
299,3275,-68,-106,6,142,152,203,210,275
-26,2489,81,-28,55,106,83,45,39,-13
-1304,-688,-172,168,232,212,182,111,16,-264
-1739,-1338,86,313,273,249,219,167,22,-327
-847,56,235,189,85,50,49,15,-71,-270
-145,1621,405,35,-100,-127,-149,-143,-123,-86
344,938,292,-15,-135,-182,-220,-189,-86,155
477,-1559,14,53,-45,-106,-137,-107,-40,198
426,-2429,161,24,-111,-161,-196,-160,-103,104
1451,-310,132,-306,-387,-402,-393,-332,-218,128
2229,-82,-341,-472,-372,-328,-287,-207,-135,236
2119,1534,-130,-250,-199,-144,-162,-118,-123,154
1477,1797,-677,-339,-145,19,-25,63,46,206
-315,-169,-1213,-332,116,374,426,559,485,386
-2328,530,254,361,471,508,572,532,362,-55
-3457,1396,1322,841,558,345,343,161,-57,-643
-2949,-1086,354,468,336,189,184,15,-183,-722
-1118,-2708,-962,-179,96,173,211,161,36,-288
148,-2400,-1182,-410,-13,180,255,304,267,129
134,-1864,-187,21,81,79,76,85,86,2
83,489,766,345,85,-126,-161,-194,-185,-163
647,2141,1058,176,-117,-302,-300,-307,-206,21
788,2232,1218,45,-193,-394,-420,-400,-255,61
501,1734,1067,93,-59,-315,-404,-395,-297,-19
463,-368,69,-41,-150,-189,-267,-235,-164,47
722,-1471,-1100,-253,-227,-95,-79,-15,37,268
987,-28,-1072,-200,-82,-26,20,80,112,321
666,714,-477,-81,30,5,35,73,62,130
-457,-535,-257,-106,110,195,219,176,0,-300
-1706,-3150,-642,-129,248,469,547,468,174,-458
-2194,-3281,-624,-25,367,589,693,611,384,-281
-854,460,233,185,253,282,327,273,254,2
1110,3267,769,203,-69,-177,-222,-232,-83,216
1960,2489,685,126,-280,-406,-477,-446,-238,304
2040,543,423,-5,-338,-455,-489,-413,-204,341
2184,-21,178,-184,-391,-476,-472,-369,-154,427
1357,259,-231,-317,-399,-406,-393,-274,-98,389
56,1050,-78,-138,-278,-216,-263,-181,-90,195
-703,1493,735,225,-66,-94,-198,-217,-205,-107
-606,83,666,236,5,-53,-119,-200,-285,-397
-1672,-4416,-1002,-102,209,316,352,274,22,-579
-3180,-5484,-1264,75,655,875,949,852,485,-488
-2097,1572,469,401,608,684,729,636,400,-213
-833,4339,473,191,184,165,210,159,114,-109
-562,1369,-292,-42,-36,-40,-21,-92,-44,-151
-136,-1565,-1245,-343,-71,30,94,101,127,76
595,-1499,-1069,-356,-59,73,168,262,268,282
1052,272,16,-177,-162,-95,-84,-47,41,213
1476,1466,574,-88,-262,-281,-316,-293,-109,278
1280,394,550,68,-194,-237,-292,-238,-107,276
1208,-201,355,172,-66,-120,-169,-135,-42,274
1549,877,237,96,-68,-65,-83,-99,3,236
1092,490,90,9,-37,-32,-59,-64,-14,62
85,-740,57,65,51,6,-28,-13,-6,-38
-1020,-762,193,61,13,7,-28,-27,-10,-165
-2012,-547,213,-22,-24,36,7,12,0,-272
-1857,224,911,186,9,-33,-97,-121,-187,-440
-140,861,1425,247,-88,-225,-293,-343,-346,-336
1065,704,786,93,-165,-294,-331,-397,-357,-157
306,-813,-495,-51,-32,-59,-72,-92,-166,-139
-819,-2441,-1939,-128,314,504,553,596,438,227
-27,1082,-1542,-158,346,604,725,765,769,724
1183,2805,-14,-125,-85,-58,16,24,207,506
383,-515,473,49,-187,-312,-326,-352,-227,-82
-528,-3382,302,119,-102,-218,-263,-307,-287,-398
-714,-2282,-120,-5,-30,-54,-79,-100,-165,-340
-835,316,-80,69,157,207,207,175,28,-248
-992,537,-333,7,258,369,416,348,159,-237
113,811,-676,-202,152,364,409,398,357,175
1394,3152,112,-104,-11,171,91,130,280,396
1852,2027,634,-63,-262,-341,-354,-332,-90,259
1930,-62,130,-233,-362,-424,-431,-406,-184,213
1210,-1882,-465,-180,-102,-59,-46,-9,89,224
-72,-1444,388,124,47,-86,10,-2,34,27
-916,1190,1250,302,-50,-266,-274,-305,-258,-205
-1356,1022,590,211,-38,-116,-176,-181,-211,-256
-2100,-483,-805,13,183,247,298,310,163,-239
-2661,-2285,-1628,-93,415,627,773,736,524,-193
-2175,-2457,-814,201,518,592,646,495,253,-499
-381,945,489,284,187,78,72,-59,-154,-421
928,2068,734,26,-160,-276,-286,-304,-223,0
1124,1690,521,-66,-139,-192,-210,-174,-53,309
1236,2017,304,-66,-113,-153,-165,-102,40,391
1609,1264,-71,-173,-194,-226,-199,-126,41,406
1487,799,102,-168,-212,-240,-241,-163,-11,306
999,621,339,2,-116,-188,-223,-184,-98,139
319,-283,142,91,-50,-127,-165,-133,-95,84
-108,-329,-200,-75,-95,-105,-119,-63,-15,161
-60,-25,-419,-248,-152,-95,-65,-23,37,203
292,81,-286,-300,-196,-151,-131,-95,-6,146
184,-815,-327,-260,-125,-41,-45,-39,-51,-147
-568,-2683,-210,0,66,205,200,170,14,-366
-580,-526,556,319,102,109,92,64,-45,-266
-111,2554,938,377,49,-93,-113,-133,-161,-106
446,4625,1725,486,7,-231,-277,-301,-313,-111
1058,4360,1563,288,-120,-308,-381,-393,-395,-178
-113,-1970,-870,-147,34,54,33,10,-113,-294
-2265,-5231,-2351,-137,401,616,647,617,344,-268
-2502,-3900,-2697,-134,562,907,979,985,767,116
-1794,-2876,-1321,-125,336,566,669,633,573,107
-732,-1820,249,-52,116,90,156,94,124,-96
863,1151,937,-1,-4,-200,-174,-203,-71,90
1332,2300,936,64,-177,-357,-370,-364,-149,273
1018,1642,859,154,-237,-374,-390,-362,-192,182
1039,950,1003,197,-280,-426,-441,-442,-306,-4
1936,798,575,-162,-406,-462,-472,-427,-246,230
2364,-392,-608,-643,-491,-350,-329,-214,-6,549
1387,-545,-719,-506,-274,-60,-83,14,140,495
-374,2115,156,95,128,186,90,59,5,-19
-2765,-343,356,639,581,471,319,145,-113,-684
-3350,-929,943,955,686,396,272,55,-243,-951
-263,1317,239,246,89,-69,-4,-30,-74,-109
1808,921,-404,-396,-368,-387,-233,-135,-24,348
1079,-2154,-1080,-645,-337,-188,-14,72,82,199
-886,-2529,-1101,-391,85,327,445,454,296,-104
-2252,-893,-198,95,342,496,525,453,269,-339
-1504,-203,87,208,294,384,407,366,284,-92
118,1238,-74,72,123,149,219,204,192,99
700,1008,-575,-183,-20,5,72,54,35,13
867,277,-263,-207,-128,-155,-123,-131,-60,100
798,211,380,-88,-217,-295,-301,-289,-137,216
824,580,630,31,-159,-252,-306,-282,-152,171
948,807,535,50,-113,-191,-281,-253,-139,152
1667,-72,7,-239,-359,-304,-359,-259,-48,414
1194,-824,25,-160,-370,-227,-279,-194,-39,304
-684,-326,497,132,-131,-17,-121,-113,-142,-142
-2207,-1511,138,135,138,250,219,195,7,-336
-2656,-1244,357,268,397,322,322,226,-58,-648
-1745,1899,790,376,531,144,82,-50,-347,-871
-297,2350,-69,107,308,75,57,35,-200,-427
884,-181,-1505,-221,-130,206,298,388,329,454
913,-1061,-1039,-22,-73,257,367,445,518,743
-87,-524,218,190,15,108,139,154,215,268
196,525,517,19,-143,-176,-202,-192,-84,16
867,56,135,-122,-71,-372,-402,-330,-144,195
1789,528,399,-4,122,-489,-559,-480,-270,259
2226,135,380,-52,-63,-475,-538,-449,-297,204
1282,-1623,-165,-175,-212,-186,-205,-150,-87,144
-776,-3698,-1052,-268,-54,299,343,375,311,160
-2239,-1572,-529,-13,185,494,538,495,317,-150
-2258,1775,413,241,196,285,297,158,-119,-729
-1003,994,58,67,49,93,100,15,-210,-631
284,-761,-459,-154,-60,-15,5,1,-44,-89
-460,49,226,115,118,113,107,72,30,-39
-619,3009,1306,445,193,71,26,-36,-77,-127
67,2575,1016,222,-96,-243,-299,-329,-319,-187
395,-1276,-466,-212,-223,-189,-193,-141,-109,86
447,-3000,-1055,-243,-128,60,95,171,220,387
837,-190,-34,-29,-163,-46,-33,14,118,384
1573,2685,525,-73,-316,-299,-291,-212,-20,440
1648,2104,665,-166,-342,-398,-406,-308,-113,414
634,-39,946,10,-159,-403,-509,-497,-423,-75
-557,-2076,249,161,165,-197,-347,-399,-467,-394
-796,-3850,-1600,-60,447,364,364,363,198,7
-303,-1618,-1555,-7,547,803,915,928,721,283
354,2580,-101,50,139,396,511,487,384,104
-500,2044,192,81,-11,110,149,73,-57,-377
-2064,338,359,278,194,190,140,-11,-320,-1002
-1994,-1090,303,211,196,157,129,16,-173,-717
127,-586,179,-98,-37,-48,-24,-2,68,156
1470,505,-195,-354,-234,-198,-124,-21,189,585
1026,771,-465,-325,-254,-165,-97,13,214,612
191,427,-117,-131,-184,-202,-204,-100,-27,334
-594,339,352,141,-63,-223,-283,-230,-231,-15
-650,525,536,319,18,-126,-178,-190,-92,-103
320,1135,206,67,-87,-115,-131,-98,-6,126
922,1088,1,-192,-205,-164,-175,-130,-45,181
928,-69,208,-166,-208,-173,-218,-207,-183,-14
860,-1378,253,-41,-96,-90,-160,-176,-200,-47
470,-2469,-91,-23,32,70,18,2,-39,-9
708,-2132,-471,-164,25,107,124,124,103,65
907,836,302,-46,-64,-61,-49,-28,-1,78
277,412,290,-27,-94,-92,-89,-36,-14,78
-1447,-3006,-1210,-134,180,339,396,433,309,-18
-2866,-1149,-1193,201,565,686,701,584,266,-526
-2969,1292,-54,616,705,684,648,421,72,-809
-885,1882,783,436,233,101,89,-33,-130,-405
628,1863,958,85,-227,-404,-396,-390,-268,22
873,121,71,-244,-290,-305,-260,-170,-25,328
435,-595,-281,-324,-221,-146,-91,-1,119,359
400,-27,88,-245,-153,-138,-95,-41,73,277
559,170,298,-66,-89,-123,-144,-129,-40,135
777,-88,59,-2,-136,-170,-234,-209,-109,114
1113,-1230,-294,-92,-170,-182,-208,-170,-89,186
1153,-1430,-276,-139,-148,-108,-126,-95,-27,192
515,-977,-227,-157,-56,32,28,82,144,209
-277,-313,-12,49,134,183,164,157,133,-47
-724,1163,199,329,282,254,189,92,-60,-446
-1159,635,-188,195,266,283,265,175,6,-460
-1184,456,136,38,113,149,178,132,66,-151
-742,-106,345,-58,-75,-67,-22,-30,3,20
-332,-20,281,-43,-124,-143,-154,-155,-125,-70
-171,-93,139,85,9,18,-68,-87,-66,-6
296,-750,291,228,66,-13,-39,-62,-15,112
823,121,179,77,-61,-144,-125,-92,-21,185
975,1113,128,-119,-179,-216,-188,-141,-67,148
788,919,148,-113,-172,-174,-162,-129,-80,93
648,161,393,56,-56,-116,-124,-134,-130,7
1077,-1435,10,-51,-98,-149,-134,-147,-116,86
1912,-2626,-1364,-430,-160,-47,40,115,192,465
1366,-2411,-1911,-511,-59,177,290,405,498,630
-823,-1602,-852,-47,229,343,417,437,461,205
-3050,1752,1082,477,382,282,261,154,87,-452
-2670,4312,1318,313,111,-11,-37,-144,-221,-605
-1858,1703,277,25,-8,-29,-23,-109,-229,-520
-1182,-777,-291,-19,100,175,194,106,-80,-452
-263,-821,-124,34,63,169,174,99,-75,-363
594,-388,134,89,-26,40,24,-9,-66,-98
877,-120,281,129,-48,-63,-86,-69,-18,132
920,-137,175,3,-80,-141,-147,-108,12,231
959,-34,146,-57,-4,-161,-187,-136,-1,248
1148,225,45,-126,43,-194,-191,-129,24,348
1089,299,-124,-243,-167,-205,-166,-118,10,292
828,-31,-77,-155,-193,-126,-95,-71,-16,161
-108,-688,146,142,23,32,29,8,-15,-38
-495,-857,415,235,8,-44,-72,-113,-135,-173
277,-162,250,29,-185,-230,-265,-247,-161,85
606,-763,-372,-163,-160,-142,-151,-117,-47,147
239,304,-213,-67,31,56,67,94,171,270
460,3543,505,36,57,16,17,67,213,407
-495,1872,441,119,169,103,106,86,84,-77
-1936,-457,218,194,216,202,169,60,-110,-635
-1702,-670,-800,-128,100,286,261,171,-62,-634
-1444,-1661,-1912,-316,159,559,577,546,276,-358
-1460,-1555,-1155,-8,253,593,629,608,357,-308
-396,206,512,369,177,146,119,72,31,-188
827,166,819,240,-4,-320,-328,-322,-182,92
1183,-1080,57,-128,-134,-347,-270,-182,-29,327
1030,-769,-316,-223,-133,-126,-68,25,152,438
1064,1407,179,-80,-116,-73,-73,-23,103,381
828,1852,450,23,-87,-99,-137,-122,-22,208
150,302,354,29,-70,-116,-140,-128,-73,45
-215,-194,184,-47,-123,-136,-159,-141,-113,-22
-253,-16,-2,-116,-163,-169,-191,-189,-158,-93
504,852,-229,-242,-238,-211,-223,-195,-110,48
1031,1082,-406,-273,-211,-146,-151,-93,-26,181
-58,-785,-308,-9,101,171,155,178,111,62
-1116,-2420,156,268,312,365,330,285,166,-99
-515,-284,832,413,189,163,107,52,28,-118
196,2269,1078,429,38,-54,-145,-184,-173,-157
-6,1560,317,85,-93,-135,-171,-186,-206,-172
-642,-144,-388,-91,-22,6,13,0,-96,-198
-1294,-1379,-749,-1,271,298,331,254,79,-278
-881,-449,-377,40,316,300,355,291,188,-112
505,1026,-26,-53,73,43,90,103,145,163
1189,815,64,-84,-129,-126,-119,-71,27,220
1342,299,59,-96,-234,-203,-184,-130,-42,203
1031,144,141,-53,-216,-222,-220,-166,-54,252
464,59,342,-70,-201,-216,-242,-163,4,377
-195,-92,257,-160,-197,-189,-188,-137,-15,231
-263,-5,-53,-138,-94,-109,-99,-88,-63,-2
619,311,-444,-86,19,22,16,-16,-47,-30
727,505,-431,-99,39,105,128,76,11,-41
-371,-251,-432,-247,-88,75,163,187,122,-61
-1431,-1322,-291,-178,-93,10,77,87,31,-266
-1450,-908,216,272,133,53,18,-57,-177,-505
-889,-273,649,625,330,165,59,-39,-201,-456
-435,758,1187,645,343,158,75,-51,-189,-367
-380,1475,1473,410,161,-8,-49,-171,-262,-402
-365,673,820,55,-60,-199,-221,-272,-331,-382
134,-907,-1107,-361,-73,8,39,78,29,1
943,-1279,-2432,-646,26,347,504,637,667,726
1929,435,-1183,-461,-91,84,239,386,612,1029
1871,948,-500,-375,-241,-151,-42,91,374,877
675,143,-524,-192,-121,-109,-35,4,127,264
-1471,-738,-46,208,179,170,128,70,-33,-399
-2298,-833,326,406,328,332,225,117,-58,-607
-1771,10,714,353,208,133,25,-79,-150,-510
-779,531,647,152,3,-134,-211,-246,-201,-261
161,-220,529,120,-27,-191,-239,-243,-161,-13
791,-722,179,8,-29,-157,-165,-142,-24,260
974,244,11,-101,-37,-140,-91,-21,98,370
1209,1092,66,-181,-151,-194,-140,-50,52,292
876,809,-25,-108,-136,-80,-54,-14,16,115
-94,883,-52,66,-28,111,118,102,-19,-150
-920,679,-82,58,-9,174,193,174,0,-265
-907,347,27,0,-20,63,68,25,-77,-315
-117,505,353,49,-39,-96,-118,-142,-118,-127
980,390,496,79,-135,-218,-268,-274,-138,118
1506,-472,38,-31,-215,-170,-201,-187,-101,203
1336,-1531,-618,-206,-163,0,16,52,56,186
336,-1708,-937,-285,-47,151,231,299,271,192
-902,658,-444,-219,30,131,203,248,243,37
-1752,2750,166,-43,138,21,1,-17,-24,-262
-1752,824,421,236,436,44,-37,-92,-124,-314
-700,93,624,476,464,30,-40,-101,-97,-162
668,-168,574,313,5,-115,-121,-137,-41,74
1249,-795,10,-117,-371,-266,-230,-170,4,259
1351,-285,-539,-400,-431,-235,-183,-90,34,309
943,-280,-717,-334,-181,46,71,141,173,283
-465,-1347,-53,209,336,439,395,350,205,-29
-1497,-1011,685,480,442,383,268,196,-99,-372
-1097,-235,639,244,130,78,71,-12,-52,-234
-161,-101,-279,-118,-66,-12,56,33,123,57
190,-533,-678,-197,-38,36,116,119,154,47
461,-172,116,-12,-28,-32,1,-20,13,2
495,478,905,135,-94,-188,-217,-249,-198,-87
-52,295,770,59,-145,-218,-241,-269,-286,-256
-321,-729,-323,-127,-100,-92,-112,-129,-210,-254
-106,-1781,-1223,-238,-51,-17,16,36,-14,10
69,-2262,-1359,-292,-53,25,111,181,216,324
-41,-967,-361,-15,73,136,145,177,210,264
4,2244,929,310,136,42,12,-14,-37,-14
361,2428,642,122,26,-26,-85,-96,-130,-65
4,303,-147,-65,62,218,66,67,-1,-33
-401,-92,105,30,116,203,71,73,28,-47
15,395,491,81,70,-70,-80,-69,-52,-8
563,491,305,28,-28,-212,-145,-120,-70,124
399,23,-58,2,-104,-174,-111,-96,-70,78
265,-695,-265,1,-161,-145,-87,-75,-74,43
445,-505,-133,-65,-213,-237,-139,-110,-82,80
552,209,42,-96,-163,-126,-85,-37,-27,88
614,501,102,-104,-105,95,-40,8,28,127
97,232,153,-97,-61,106,-58,-45,-21,40
-506,-982,-269,-27,80,147,64,58,0,8
-771,-1804,-853,37,234,260,209,187,72,-96
-815,-934,-652,-73,130,150,128,113,23,-249
-976,-275,-140,-133,-10,57,90,164,177,43
-675,475,168,-8,-37,79,74,97,129,60
-404,1376,681,326,29,24,-18,-138,-186,-327
-80,1277,684,387,50,-51,-53,-145,-225,-307
210,237,71,74,59,-14,69,80,30,36
316,40,-29,-137,109,-62,38,79,56,58
-101,218,302,-55,228,-78,-76,-64,-123,-239
-457,-12,127,-90,63,-24,-102,-80,-143,-276
-145,-725,-503,-143,-90,-49,0,45,38,55
293,-1740,-624,-44,-59,-56,82,158,204,318
643,-982,-91,27,-81,-71,-28,28,107,313
1037,243,253,-46,-207,-166,-212,-165,-61,242
1211,584,270,-86,-233,-228,-280,-240,-146,172
731,552,177,3,-97,-112,-173,-164,-147,45
-588,-509,-134,118,134,150,105,71,-25,-126
-1218,-903,-85,193,276,302,277,235,121,-94
-811,33,243,79,134,155,173,143,117,10
-94,777,235,-96,-89,-81,-27,-11,44,73
705,1265,150,-99,-183,-195,-178,-160,-94,76
1097,863,322,-11,-193,-248,-257,-261,-222,15
734,-444,42,-41,-124,-159,-190,-202,-212,-87
234,-829,-420,-153,-55,-22,-17,9,9,77
110,-54,-657,-134,63,164,202,261,315,438
-158,973,-3,144,174,171,174,185,201,223
-786,1454,431,234,145,114,96,63,-21,-237
-1415,363,125,134,139,195,175,126,-65,-473
-1302,-321,-2,46,71,134,116,31,-197,-656
-1256,-667,-322,-98,23,115,132,76,-143,-596
-832,-1232,-578,-106,115,213,266,254,146,-108
574,-594,-211,-44,53,49,82,98,202,370
1225,282,253,15,-51,-179,-214,-188,-23,336
1391,145,244,-37,-149,-309,-348,-292,-133,272
1859,-144,-1,-210,-307,-402,-414,-312,-113,398
2052,-154,-82,-307,-418,-411,-406,-296,-98,440
1281,-154,133,-106,-253,-233,-212,-124,13,378
-365,-198,54,62,32,78,99,137,148,152
-2148,-77,-37,349,407,421,396,330,166,-288
-2387,1450,320,354,398,411,398,303,119,-403
-1423,1717,155,74,136,187,184,83,-90,-576
-1093,-292,-347,-42,121,200,216,126,-73,-560
-909,-994,-141,80,149,186,194,108,-40,-367
-302,-876,78,106,53,23,26,-19,-30,-107
471,-326,224,50,-59,-102,-124,-116,-52,105
824,-138,-39,-92,-115,-132,-107,-73,31,264
894,-2,-101,-172,-149,-175,-166,-72,-28,331
762,-164,179,-91,-78,-122,-110,-58,-37,234
462,-186,115,-29,-16,-15,33,2,102,122
163,-226,-67,12,10,19,56,41,103,59
127,-272,-118,-16,-16,4,23,28,57,53
216,-216,-48,-30,-34,-35,-27,-38,-14,45
457,-134,47,-6,-52,-73,-97,-106,-62,56
675,22,94,-12,-62,-96,-125,-121,-71,71
675,135,41,-39,-52,-63,-74,-60,-11,147
133,164,-41,-70,-35,-20,-9,15,57,95
-787,266,56,-41,-2,12,11,-13,-36,-220
-1129,187,38,5,11,16,15,-23,-96,-337
-606,68,-83,-42,-40,-41,-18,-36,-78,-178
474,42,-52,-113,-130,-144,-107,-93,-44,97
1394,28,297,5,-159,-230,-253,-229,-127,192
1105,-1131,-172,2,-44,-84,-101,-81,-42,158
-344,-1949,-730,65,249,299,319,331,261,117
-1328,145,82,320,374,388,381,364,275,45
-1013,1837,632,239,130,82,16,-8,-14,-78
447,1570,428,-121,-223,-256,-316,-309,-201,-31
2198,1354,248,-331,-368,-334,-320,-249,-32,419
1678,670,-45,-227,-185,-99,-79,-17,94,370
-1210,-922,-777,-54,174,320,380,386,226,-128
-3354,-1784,-908,207,495,582,600,491,140,-785
-3253,-871,-42,327,409,338,294,123,-188,-1077
-1275,-336,328,211,158,54,21,-78,-180,-529
680,435,290,2,-58,-87,-114,-106,-35,117
1435,1015,431,-81,-213,-220,-274,-229,-71,339
1598,751,394,-144,-269,-301,-332,-261,-87,419
1687,869,255,-216,-266,-310,-321,-230,-83,411
1187,392,-44,-132,-172,-235,-290,-180,-223,246
-227,-1508,-553,10,75,88,80,86,36,-9
-1633,-2740,-1010,33,312,442,481,442,348,-194
-1146,-539,-168,121,239,283,320,350,246,34
44,2147,595,96,0,-44,-24,-1,14,162
586,1869,428,28,-110,-145,-79,-115,22,83
817,202,63,-76,-127,-181,-87,-101,-30,42
1042,-525,-102,-125,-118,-154,-85,-94,-45,79
603,-861,-112,-43,-21,-10,-11,-17,13,79
369,-379,118,74,2,8,-57,-57,-12,105
536,209,140,-56,-132,-157,-175,-146,-43,236
274,550,-1,-308,-276,-269,-208,-121,3,253
215,942,204,-271,-232,-239,-206,-149,-78,49
-322,796,708,184,27,-57,-190,-248,-368,-497
-1862,127,978,480,239,232,5,-115,-420,-856
-1742,-698,602,451,281,348,168,90,-166,-572
-391,-2182,-1194,-68,156,266,223,279,90,32
-735,-3240,-2708,-495,169,369,528,585,431,166
-1080,-419,-1300,-201,254,380,578,523,524,41
-424,3317,604,209,194,103,170,101,170,-57
257,2451,1126,233,-13,-138,-119,-163,-39,15
1047,758,879,31,-188,-255,-227,-210,-28,244
1409,-528,13,-232,-230,-200,-152,-64,116,439
1247,-458,-493,-245,-149,-90,-64,-1,125,405
628,-138,-382,-61,-24,-19,-32,-18,10,117
-628,-480,67,211,155,150,84,61,-12,-167
-1171,-354,407,300,161,142,104,30,-22,-235
-578,-19,376,124,-14,-49,-56,-113,-73,-156
63,-24,49,-106,-124,-124,-104,-130,-42,-38
468,100,-81,-140,-98,-103,-90,-92,1,41
506,323,-20,-53,-30,-42,-26,-45,17,42
279,238,93,60,43,24,24,-17,13,16
31,-28,101,107,58,51,24,5,-11,8
-52,-316,80,76,-19,-15,-25,-20,-21,11
11,-437,-98,-72,-101,-72,-53,-12,23,70
186,-7,-79,-122,-88,-72,-46,6,70,139
203,744,308,-25,-30,-68,-75,-34,0,38
234,779,528,61,-68,-158,-228,-179,-243,-129
376,-66,216,-1,-214,-272,-343,-300,-362,-134
1005,-728,-523,-235,-287,-211,-149,-140,24,203
1258,-525,-854,-311,-160,-5,54,93,251,419
-74,-856,-391,79,184,324,320,282,261,109
-1534,-635,317,462,484,540,531,433,259,-202
-1633,393,571,340,363,320,298,188,41,-461
-519,807,379,87,-7,-17,-21,-86,-96,-305
221,1099,47,-118,-141,-94,-58,-65,-11,-7
-125,1290,-32,-122,-75,-34,-12,10,49,45
-432,815,66,-61,9,-52,-27,2,19,-3
-344,165,-224,-13,120,-39,-21,-29,-35,-91
-76,-480,-491,55,150,18,9,-37,-47,-62
472,-977,-534,13,32,59,57,59,77,206
627,-240,174,-13,-84,23,-13,65,170,464
262,603,507,-74,-173,-74,-136,-38,82,313
-223,-441,-482,-210,-92,6,4,16,-1,-147
-946,-911,-653,0,168,265,264,173,-8,-460
-114,688,80,194,183,175,181,100,-51,-288
1119,1279,463,121,-15,-194,-121,-121,-150,-6
1100,435,327,-18,-139,-335,-257,-187,-108,215
710,115,197,-85,-222,-346,-306,-211,-44,316
31,49,272,-77,-325,-373,-377,-324,-186,46
-724,-469,426,-18,-217,-217,-257,-252,-233,-237
-1389,-1156,432,111,116,156,48,10,-146,-456
-1625,-306,123,221,335,385,329,267,35,-407
-899,338,-1175,-131,285,458,587,603,435,59
171,866,-1265,-312,160,478,528,540,509,351
706,1068,-123,-100,-11,142,87,63,122,213
921,353,350,6,-157,-271,-268,-244,-163,100
1046,-207,372,80,-210,-424,-387,-323,-203,140
960,-633,68,-29,-209,-310,-298,-211,-53,281
537,-1580,-323,-184,-77,95,0,74,162,334
-204,-1484,87,52,277,340,179,173,165,73
-591,111,519,352,455,147,8,-18,-220,-320
-782,654,357,286,247,-35,-60,-133,-240,-424
-831,60,161,101,20,-44,-12,-84,-91,-291
-381,-226,49,-13,-68,6,9,-28,-54,-146
26,-379,-102,-68,-99,0,10,12,-4,14
177,-143,-216,-28,-145,12,77,85,110,130
568,657,-209,-93,-249,17,114,132,216,268
523,416,-122,-126,-215,-27,37,31,102,180
188,19,-31,-51,-75,-112,-108,-125,-68,14
-56,126,51,-1,58,-131,-140,-138,-89,-22
109,252,71,-10,51,-98,-124,-104,-74,12
222,223,104,119,88,-24,-65,-42,-49,-5
-18,43,176,193,60,11,-14,11,22,55
-44,128,221,97,-44,-60,-60,-31,11,97
421,396,68,-119,-150,-140,-107,-94,-26,89
1088,486,34,-236,-218,-208,-169,-148,-76,134
1316,-38,-170,-233,-180,-135,-107,-83,-47,145
228,-1021,-436,-135,8,106,116,132,74,50
-1107,-1635,-324,55,238,313,334,308,169,-130
-1781,-1600,440,283,241,185,148,54,-59,-438
-1528,-551,639,232,118,22,-15,-108,-169,-429
-752,884,98,94,90,50,28,9,-47,-166
-294,2104,-223,-42,61,110,135,150,115,70
225,2112,-166,-100,-16,53,68,64,57,30
644,400,-311,-59,3,77,103,79,62,12
851,-335,-102,-11,1,39,88,57,102,121
756,-99,321,-15,-100,-123,-114,-103,-4,186
150,188,420,15,-138,-179,-202,-174,-94,117
-554,294,142,-46,-75,-141,-217,-141,-245,-96
-850,-326,-459,-105,130,62,44,61,-79,-237
-569,-1081,-773,-163,162,190,260,225,252,-33
-522,-975,-266,-100,30,72,110,77,118,-80
-47,-13,315,104,4,-12,-28,-69,-68,-130
625,406,443,253,9,-33,-45,-67,-47,79
715,396,322,163,-61,-66,-54,-43,4,206
513,-345,106,-69,-195,-160,-172,-131,-69,118
106,-1251,-506,-257,-166,-75,-62,3,38,133
139,-720,-658,-170,39,153,195,224,259,318
609,1319,253,84,48,51,45,11,56,174
131,747,203,65,36,30,12,-23,-40,-17
-537,-918,55,144,146,169,165,143,121,-1
-263,-422,319,154,82,56,48,21,0,-132
96,-1125,1,-10,-9,-61,-68,-84,-121,-211
118,-3846,-368,-46,-27,15,35,17,-31,-130
112,-1741,-108,-23,-151,17,33,45,33,31
-109,864,145,-22,-104,-127,-130,-110,-86,-6
-267,1008,5,0,-48,-120,-135,-91,-68,33
-137,859,-32,-21,-37,-81,-89,-54,-24,89
-127,482,92,-48,-27,-90,-89,-85,-33,51
-211,605,350,59,44,-73,-40,-92,-78,-68
20,756,528,45,43,-52,-20,-87,-127,-161
0,362,259,-14,58,31,52,3,-52,-117
63,226,-214,-43,78,134,115,106,63,-21
369,732,-179,-9,8,84,32,48,19,-35
-34,-354,-509,-44,30,138,54,66,24,-54
-549,-1329,-547,27,77,114,53,43,8,-78
-211,-511,-162,63,13,-46,-24,30,77,155
433,807,456,133,-10,-125,-110,-40,62,255
951,1342,398,20,-65,-123,-147,-107,-16,196
919,1551,164,-115,-101,-91,-79,-57,-16,129
66,1070,-2,-115,-47,-7,1,1,-52,-69
-950,115,-281,-134,33,104,129,107,-32,-267
-1363,-754,-159,8,131,167,192,148,-2,-309
-215,-1071,276,86,-6,-74,-81,-85,-78,-71
1175,-1254,50,-115,-256,-334,-328,-278,-144,163
1048,-1606,-771,-316,-253,-163,-114,-46,8,220
79,188,-612,-41,64,250,290,293,237,155
-564,3098,442,234,122,226,219,175,120,-33
-568,2398,585,124,12,45,43,16,31,-21
-848,75,125,48,158,88,79,60,61,-55
-1069,-921,-40,170,394,138,97,44,-21,-281
-609,-371,71,193,283,100,53,-8,-65,-245
173,-1,113,-6,13,-22,-41,-85,-117,-149
518,-360,-12,-96,-55,-30,0,6,10,48
922,-435,-232,-137,-116,-64,5,66,191,384
1046,-163,-282,-220,-200,-143,-85,-15,202,504
752,276,12,-168,-179,-187,-203,-173,7,270
279,266,113,-84,-107,-135,-167,-166,-87,58
144,361,242,34,-44,-118,-137,-151,-140,-75
-361,140,209,92,9,-29,-32,-58,-148,-228
-1085,-949,60,188,83,155,171,119,-53,-325
-800,-823,517,283,-60,-11,-10,-45,-130,-251
319,-346,73,-39,-276,-234,-219,-201,-147,10
1246,937,-488,-195,-121,-68,-25,18,94,340
392,1166,-494,-11,184,230,256,261,214,125
-1447,-578,-426,101,426,509,547,472,272,-268
-1480,-686,-43,119,366,440,481,405,200,-324
-11,98,137,45,77,61,65,49,0,-129
1257,589,129,-72,-143,-203,-214,-167,-75,151
1123,276,37,-104,-153,-220,-237,-169,-36,299
130,-570,-20,-35,-50,-94,-111,-43,66,299
-180,-628,154,39,-19,-61,-96,-91,-77,-7
329,-86,84,-39,-75,-96,-127,-158,-192,-142
747,17,-77,-115,-101,-84,-93,-73,-61,92
129,455,32,-79,-132,-121,-146,-96,-47,140
-1309,172,-206,-87,-71,-49,-29,25,15,16
-1668,39,-134,39,49,28,34,27,-60,-238
-1062,-55,176,194,116,39,4,-43,-167,-333
-112,-582,205,161,85,36,-5,-19,-80,-84
691,-393,308,47,-49,-92,-129,-115,-119,74
791,-289,83,-82,-105,-99,-95,-74,-84,47
163,-791,-54,-21,8,30,33,36,-50,-107
-323,-343,72,102,96,110,76,69,-43,-195
-424,421,-224,10,132,194,208,191,111,-47
-366,525,-274,-27,111,156,170,160,133,32
174,826,-158,-81,12,46,41,36,47,80
734,395,-90,-131,-86,-72,-63,-65,-7,135
835,-118,-70,-135,-114,-107,-90,-82,-5,169
550,-53,-61,-140,-100,-72,-56,-3,47,209
121,441,219,10,-49,-64,-102,-69,-58,37
-373,314,284,183,47,-35,-114,-118,-152,-165
-564,-74,110,184,94,40,7,24,-21,-79
-364,-128,99,202,100,53,60,47,24,-4
-165,-243,118,150,43,-12,-9,-34,-49,-20
13,-294,77,16,-37,-65,-55,-42,-52,-9
249,-131,-8,-124,-117,-91,-84,-44,-36,16
409,26,-37,-138,-126,-123,-98,-68,-57,42
462,364,48,-77,-98,-127,-96,-72,-52,92
584,206,217,-10,-89,-139,-143,-111,-43,154
862,131,485,60,-112,-218,-253,-235,-134,131
921,-202,291,47,-88,-162,-243,-233,-173,77
306,-816,-286,45,85,113,45,59,35,65
-615,-533,-857,-74,224,387,418,458,355,113
-1097,-510,-1076,-209,247,444,531,547,437,46
-582,1238,40,-7,126,122,158,91,16,-237
-226,2445,222,-155,-176,-150,-187,-215,-219,-270
47,1548,-106,-276,-269,-76,-166,-100,-52,-11
-83,-130,-344,-193,-117,-5,29,98,98,75
-1399,-1563,-206,261,279,289,262,165,-4,-380
-1930,-1501,403,576,405,322,234,85,-150,-637
-642,-364,513,299,152,60,68,33,-44,-159
598,687,269,-20,-64,-100,-33,0,63,243
1252,577,187,-67,-123,-163,-131,-112,26,331
1620,14,150,-69,-173,-236,-244,-222,-74,282
1299,-420,-37,-98,-140,-160,-158,-126,-54,214
475,-368,-159,-69,-27,-13,19,59,68,156
-419,-5,-84,-36,18,37,53,63,42,-36
-885,175,-37,-72,-33,-7,-18,-17,-42,-176
-608,257,59,-65,-62,-53,-61,-80,-105,-199
-226,129,84,-81,-61,-44,-28,-39,-27,-36
-79,-162,101,-43,-65,-53,-53,-51,-7,53
170,-329,154,-47,-152,-168,-183,-177,-119,-19
953,-235,-6,-190,-292,-304,-300,-255,-171,51
1071,-819,-391,-191,-152,-168,-129,-90,-29,133
-312,-1840,-791,56,353,283,335,303,218,0
-1579,-1619,-608,291,592,539,568,484,324,-163
-1639,524,528,476,427,407,380,270,149,-222
-620,2439,1170,403,75,110,38,-10,-68,-167
295,1627,818,73,-168,-108,-150,-113,-71,24
750,297,238,-129,-201,-197,-218,-141,-51,150
893,-189,-63,-121,-134,-203,-205,-154,-116,73
1487,-481,-260,-125,-145,-212,-205,-182,-146,105
1625,-836,-734,-210,-124,-78,-78,-38,35,298
495,-733,-942,-277,-71,45,103,194,282,449
-1179,-686,-572,-226,-4,124,191,256,300,210
-2125,81,108,33,80,90,69,6,-85,-493
-2032,313,397,233,122,56,1,-107,-264,-731
-620,-226,173,190,65,66,32,-7,-73,-249
463,-289,168,82,-64,-32,-46,-46,-3,85
723,305,106,-77,-127,-120,-123,-113,-26,142
659,525,145,-104,-8,-85,-90,-53,17,178
583,895,650,61,190,-21,-41,-13,45,162
667,859,502,96,168,-32,-40,-63,-29,49
523,-112,-193,-11,-18,-24,1,-37,-27,-2
249,-560,-462,-55,-62,79,126,121,138,125
-123,-512,-490,-50,-32,99,162,187,227,210
-346,-519,-377,-31,-55,-9,28,50,115,132
-561,-96,117,55,-34,-52,-85,-118,-129,-214
-678,-85,363,62,14,-3,-41,-95,-194,-401
77,-226,231,-74,17,65,70,31,-20,-95
705,-220,-21,-133,1,93,97,63,87,201
674,0,-132,-67,-33,30,31,16,94,258
531,304,-18,27,-66,-69,-92,-91,-27,86
199,128,-89,-40,-61,-77,-85,-69,-41,-4
-433,23,-260,-71,49,45,24,30,30,-114
-672,298,-343,-68,99,99,93,130,96,-69
-350,1087,221,-1,-18,-109,-67,-45,-41,-97
-85,1094,633,84,-118,-211,-187,-195,-163,-163
74,114,715,138,-58,-144,-186,-162,-210,-107
139,-1558,326,72,-21,-77,-119,-83,-126,7
391,-2224,-307,-87,-99,-107,-52,-51,90,145
421,-1370,-1109,-269,-94,-4,57,106,223,274
-193,162,-976,-65,159,290,319,364,362,248
-701,1198,198,284,296,282,255,211,118,-102
-492,1269,500,270,241,210,175,109,5,-134
292,1437,404,46,46,50,49,15,-50,-56
657,363,77,-101,-96,-63,-57,-78,-136,-93
834,-753,-124,-73,-78,-58,-64,-70,-109,-37
624,-765,-194,-64,-67,-61,-70,-54,-17,55
-653,-385,-161,-46,24,54,64,104,141,133
-1832,155,174,36,86,98,97,106,83,-95
-1910,296,297,76,64,22,-8,-72,-148,-447
-704,346,167,44,16,-26,-56,-95,-163,-295
690,354,-114,-55,-37,-25,-35,-7,-16,102
1212,75,-185,-76,-80,-77,-56,-17,44,282
991,-122,-11,8,-64,-95,-97,-64,14,260
227,-256,233,120,6,-46,-67,-53,-28,133
-223,-211,310,91,-8,-63,-67,-42,-15,98
-19,20,-30,-60,-50,-78,-38,7,48,144
165,-31,-295,-101,-25,0,30,52,61,67
84,-28,-31,71,35,26,14,-17,-92,-178
-70,-22,231,176,34,-15,-53,-96,-194,-299
-72,-77,109,77,19,-12,-20,-55,-144,-199
453,231,28,-23,2,16,41,26,21,76
784,37,-125,-76,-30,18,42,54,118,240
302,-387,-193,-81,-59,-31,-9,11,117,223
-519,-473,-94,-50,-65,-42,-18,22,129,157
-820,-390,-48,-59,-33,-13,-8,-13,0,-145
-870,356,-102,-56,42,73,47,6,-90,-430
-367,1043,-39,-74,4,63,58,46,5,-179
728,1041,247,-27,-33,-33,-40,-45,6,143
1347,1132,492,65,-66,-121,-177,-187,-102,147
797,332,123,-8,-159,-151,-182,-160,-74,142
-391,-1257,-408,-53,-107,-5,27,94,145,229
-1189,-1442,-103,27,-30,52,97,121,95,-18
-1067,-248,395,93,-2,-61,-61,-124,-203,-406
441,555,74,59,161,-37,-91,-146,-184,-164
1761,412,-847,-195,265,133,170,203,241,491
682,-931,-938,-126,235,327,414,453,504,574
-1044,-1339,170,231,230,275,290,247,249,5
-1423,228,806,258,54,30,-1,-95,-164,-535
-1090,539,195,-19,-73,31,44,-29,-124,-516
-565,308,-176,-72,30,197,207,145,78,-218
-179,497,-15,68,114,211,188,112,103,-21
102,147,76,61,-37,-24,-64,-115,-54,-17
420,-420,-25,-22,-223,-181,-216,-228,-138,-18
583,-389,-131,-77,-262,-172,-117,-93,-24,106
540,-24,-92,-62,-170,-188,-33,16,69,214
369,436,138,4,-70,-151,-17,-2,67,196
263,329,432,43,-36,-184,-89,-84,-9,103
320,-89,674,41,43,-184,-139,-125,-43,86
581,295,591,-27,48,-173,-162,-125,-54,97
570,189,-171,-132,-79,-50,-78,-28,18,115
-70,-699,-1054,-170,39,265,110,159,148,71
-771,-978,-1056,-61,210,337,199,174,74,-221
-1214,-459,-309,137,165,110,83,31,-84,-408
-724,-18,353,336,139,27,-7,-29,-90,-244
383,291,337,197,50,84,21,12,34,85
874,639,131,-88,-66,12,-37,-37,30,162
1060,263,83,-168,-154,-157,-131,-94,6,243
1313,34,212,-166,-272,-316,-241,-171,-4,367
1162,225,14,-263,-333,-320,-289,-211,-18,351
454,736,-292,-316,-270,-219,-215,-163,-32,177
-1113,-809,-599,-189,-36,69,74,83,40,-166
-2820,-2233,-233,317,453,504,477,367,116,-609
-2620,24,939,808,662,600,530,352,62,-672
-342,2479,853,402,233,171,166,95,4,-153
933,1460,-98,-191,-116,-67,3,32,106,289
505,-495,-239,-130,-67,-52,-16,-10,42,165
19,-1248,-162,-2,-30,-55,-70,-71,-69,-35
185,-612,-119,-83,-114,-106,-110,-98,-107,-86
433,267,61,-78,-145,-153,-131,-118,-120,-36
819,987,271,-76,-167,-204,-184,-148,-77,142
1055,1352,454,-49,-180,-244,-239,-207,-91,205
498,638,386,-29,-148,-206,-226,-209,-143,72
-412,-1445,-238,29,86,96,70,61,5,-46
-399,-2059,-531,133,285,320,323,271,191,17
441,-220,-524,33,180,238,266,248,239,167
331,1195,-346,-159,-24,42,95,112,139,97
-641,1231,-248,-213,-75,18,81,113,122,35
-1087,943,6,-35,-17,7,19,10,-1,-93
-610,425,236,96,-5,-61,-98,-165,-204,-261
263,-285,148,68,-29,-61,-111,-138,-184,-130
485,-544,121,36,-26,-13,-45,-29,-57,84
32,-309,96,-26,-27,23,34,84,50,108
-438,133,142,-23,-49,-18,-18,14,-61,-148
-594,-89,162,20,-51,-88,-123,-136,-236,-347
138,-590,59,15,-21,-130,-186,-173,-223,-111
992,-691,-169,-54,-19,-148,-166,-128,-107,181
837,-593,-539,-125,62,57,75,140,152,351
242,667,-165,-44,60,153,172,212,205,222
-492,968,222,58,-3,69,64,48,-14,-147
-1413,-190,249,186,96,100,80,16,-77,-342
-1035,-255,221,155,102,83,53,21,-17,-142
167,192,48,-19,-19,-41,-59,-39,0,92
882,429,0,-132,-118,-144,-162,-130,-41,168
1121,130,-8,-119,-126,-141,-165,-127,-55,184
698,-712,-67,-22,-48,-41,-78,-50,-30,126
464,-585,-11,14,-15,6,-6,30,55,204
373,386,447,118,0,-39,-59,-40,-58,58
128,594,508,149,3,-112,-125,-152,-203,-190
-381,-918,-414,-29,31,-4,44,62,11,-98
-446,-1193,-801,-147,1,66,137,190,181,117
-639,-172,-354,-98,-53,-20,-10,29,27,-22
-970,57,173,57,40,21,-6,-14,-86,-267
-1071,-56,343,152,197,198,164,109,-31,-364
-890,318,452,140,141,129,89,19,-82,-347
-33,-30,36,24,55,54,35,31,14,-9
887,74,-407,-102,5,19,41,92,152,322
1014,900,-295,-124,-14,0,28,77,174,366
499,1052,-132,-92,-11,10,41,56,121,192
-10,316,30,-49,-66,-65,-55,-68,-23,-39
-206,-90,270,13,-126,-144,-164,-191,-168,-180
229,-380,65,0,-104,-74,-93,-97,-94,-53
859,-413,-178,-43,-43,5,18,52,71,205
618,-320,-215,-67,-12,55,88,127,147,248
-252,-432,-94,-65,-41,-2,32,64,81,105
-454,75,-18,-107,-102,-112,-75,-69,-44,-34
-323,-187,-174,-102,-38,-46,-42,-48,-61,-89
259,242,133,46,67,30,11,10,43,63
984,992,449,163,43,-46,-68,-79,2,132
471,313,300,143,-6,-56,-96,-126,-91,-54
-1075,-1069,-88,104,39,37,9,-35,-78,-245
-1347,-1427,-378,38,98,118,124,89,59,-143
-605,260,-3,50,52,48,51,30,24,-59
-23,1529,218,13,25,68,57,71,49,4
487,1029,257,-67,-29,31,17,34,15,21
531,500,401,-62,-93,-72,-118,-161,-233,-272
-19,-612,115,-56,-58,-49,-82,-155,-274,-410
-345,-2185,-619,-48,92,151,159,133,23,-114
-340,-2013,-795,44,244,319,395,396,362,274
-139,133,32,139,93,88,136,155,252,303
453,1609,528,109,-130,-194,-195,-156,2,205
867,1293,347,-61,-216,-248,-232,-193,-41,192
411,33,228,-16,-102,-110,-110,-108,-57,-10
-95,-591,285,136,-6,-28,-60,-99,-125,-164
-107,-973,-349,-10,22,11,3,-32,-55,-54
-439,-1484,-805,-75,188,173,202,199,159,90
-651,365,-156,-5,228,255,307,324,299,143
-528,2097,508,-8,42,98,120,87,70,-126
-705,1459,357,-34,-61,43,-55,-153,-211,-441
-433,107,-57,-103,-144,12,-76,-169,-166,-276
601,-244,-328,-225,-271,-250,-149,-177,-63,99
1063,21,-494,-253,-302,-445,-187,-162,-16,228
497,309,-114,-61,-37,-243,-45,-39,35,158
-9,70,187,38,264,52,34,19,46,91
-232,-303,386,120,172,324,47,60,90,98
-82,-555,206,75,77,448,29,66,157,163
331,-735,-140,97,54,84,8,81,151,111
951,-587,-373,93,-13,-134,93,164,159,74
1070,-286,-228,85,50,-11,187,211,149,46
79,308,-32,77,164,182,291,279,199,52
-746,792,425,195,135,60,79,32,8,-62
-1059,779,491,119,-50,-141,-185,-219,-212,-202
-1173,764,164,-91,-203,-234,-277,-303,-292,-349
-358,640,-131,-174,-192,-180,-210,-205,-165,-123
484,353,-165,-94,-82,-64,-101,-81,-49,83
-38,-896,-275,13,98,135,98,96,40,-28
-693,-1275,-86,124,229,261,243,227,120,-87
-238,842,314,104,108,97,100,86,61,14
406,1920,265,-41,-55,-75,-49,-35,5,125
494,876,127,-77,-90,-111,-101,-79,-48,78
247,-501,-28,-39,-54,-78,-96,-50,-39,-8
271,-968,-205,-25,-37,-46,-50,-27,-7,3
407,-713,-270,-20,-25,-15,-5,-4,30,124
953,128,-75,3,-42,-67,-67,-59,11,283
1766,581,52,-112,-174,-215,-201,-144,-22,396
1244,160,117,-135,-163,-184,-142,-62,62,385
-110,106,258,10,-25,-30,-27,22,54,116
-984,193,276,136,58,82,48,8,-111,-355
-1845,-455,49,155,152,175,184,91,-115,-659
-1840,-662,-101,72,142,225,271,216,44,-454
-1069,43,32,28,40,114,131,86,-7,-264
-830,269,93,37,-2,-38,-66,-133,-172,-305
-711,-235,-52,-52,-2,-50,-86,-135,-174,-270
76,-917,-475,-213,36,44,78,68,45,53
592,-1011,-533,-157,134,75,129,164,197,320
852,3,-132,20,129,7,40,90,168,381
938,812,45,32,-33,-86,-81,-43,39,271
659,45,103,-26,-153,-139,-158,-143,-71,96
255,-900,113,53,-101,-91,-125,-150,-139,-56
298,-337,55,85,-31,-31,-62,-76,-89,1
367,794,-40,-35,-43,-15,-17,18,19,112
-395,380,-103,-5,60,89,82,97,49,-5
-885,-221,-30,105,164,197,182,170,99,-40
-443,318,212,88,89,79,80,86,78,55
466,1335,326,-31,-77,-104,-92,-48,0,167
752,669,118,-130,-156,-157,-157,-118,-89,83
506,-400,-148,-118,-88,-75,-101,-85,-102,-48
-130,-1302,-280,-3,91,110,95,92,8,-111
-496,-1440,-247,71,153,185,191,161,69,-85
-349,-121,215,171,130,120,89,53,-20,-91
-239,769,502,162,10,-41,-72,-84,-109,-83
-12,665,379,2,-137,-177,-189,-167,-151,-73
272,50,-73,-185,-213,-230,-226,-196,-165,-68
465,-554,-525,-243,-168,-148,-144,-100,-72,53
370,-627,-542,-106,-31,-12,-15,18,25,127
-170,-537,-112,141,99,97,78,83,54,55
-389,-24,285,258,147,121,121,90,50,0
-13,656,356,198,94,81,91,67,14,8
511,886,182,57,-10,-15,-24,-26,-68,28
410,552,-122,-153,-70,-23,0,38,16,144
-160,64,-190,-274,-96,10,67,125,125,170
-906,-633,-86,-186,-25,42,51,63,0,-136
-1166,-685,268,68,82,55,15,-49,-169,-417
-222,508,613,175,43,-57,-91,-137,-195,-250
779,220,130,46,-95,-195,-224,-203,-135,67
1101,-705,-178,-14,-157,-251,-276,-235,-100,198
674,-1520,-550,-78,-72,-86,-102,-72,-15,124
-625,-1913,-1003,7,213,308,305,296,183,-48
-778,833,-194,127,270,333,331,276,154,-104
750,3295,667,-45,-1,17,40,27,36,132
1403,2269,653,-186,-154,-132,-93,-66,20,248
292,383,200,-160,-103,-68,-30,7,74,192
-980,-613,-212,-62,-26,-10,-5,70,104,103
-1596,-660,-374,55,4,-35,-60,-46,-93,-314
-1463,-919,-241,127,62,13,-31,-86,-176,-484
-404,-1297,-43,73,94,87,93,74,36,-68
582,-243,270,20,13,9,41,55,75,181
960,750,432,47,-68,-108,-106,-105,-64,104
802,391,248,27,-85,-101,-122,-104,-82,83
832,-33,-212,-121,-102,-83,-57,-7,43,236
1188,-144,-363,-183,-164,-138,-132,-84,9,269
599,-91,-119,-41,-124,-146,-184,-167,-95,64
-207,288,-177,-41,-69,-62,-59,-33,4,19
-245,802,117,129,91,81,66,53,26,-23
-793,181,682,510,312,204,134,31,-95,-321
-756,-276,564,388,186,77,-8,-92,-232,-479
-2,-670,-431,-139,-62,-55,-52,-20,-44,-50
-431,-1556,-885,-333,-59,47,112,170,141,71
-1613,-1721,-487,-222,143,290,337,347,202,-209
-1826,-282,-148,-65,309,422,480,451,328,-133
-723,1172,124,89,142,92,131,67,74,-97
277,903,404,163,-48,-159,-182,-220,-141,-38
862,464,380,64,-119,-147,-177,-149,-66,172
1012,363,303,-51,-133,-116,-101,-61,-16,222
673,-9,140,-64,-88,-61,-28,-25,-14,91
348,-266,-231,-47,-55,-31,3,-25,-15,16
400,-194,-429,-35,-38,-41,-31,-37,9,101
671,70,-185,24,-29,-54,-69,-65,23,176
938,-342,-17,-12,-52,-64,-64,-62,26,232
639,-962,-236,-59,-37,-24,-12,0,45,170
142,-947,-77,-99,-81,-51,-34,-10,34,101
-392,-524,-206,-208,-122,-54,-18,20,78,72
-996,1009,133,0,50,73,55,24,4,-182
-1253,2108,647,270,205,164,109,26,-86,-420
-1026,1159,492,216,160,155,103,37,-97,-423
-153,195,44,6,14,47,32,-2,-62,-141
942,-164,-154,-62,-16,-18,-9,-24,-7,146
1604,-559,-102,-4,-14,-73,-60,-52,15,293
1556,-470,82,2,-85,-149,-149,-97,38,389
818,-223,85,-37,-58,-120,-93,0,157,473
-393,-179,-73,-105,-21,-76,0,106,213,294
-1547,270,-16,-103,-58,-47,-16,-1,-34,-329
-1736,238,105,11,-54,-35,-52,-132,-255,-688
-953,-366,44,115,-7,-19,-45,-134,-251,-545
-126,-1328,-452,29,44,100,95,46,-23,-197
-212,-1075,-393,-10,123,223,231,216,187,60
132,1322,140,-19,77,111,81,120,39,149
280,1414,134,-19,44,70,46,69,42,137
140,627,473,166,82,65,54,-5,85,23
131,44,454,147,31,-19,-41,-71,-19,-38
324,-136,68,19,-21,-47,-58,-43,11,44
428,329,-136,-66,-33,-38,-44,-6,36,84
380,110,-354,-176,-46,-27,-16,31,51,136
344,-445,-554,-209,-86,-67,-43,26,39,175
90,-436,-471,-136,-90,-81,-119,-17,-132,45
-256,182,203,80,-16,30,30,3,4,-76
-443,-230,416,178,61,62,86,8,45,-130
-153,-525,229,127,23,-31,-1,-31,5,-40
234,130,214,93,-11,-89,-105,-97,-16,54
315,310,149,64,4,-60,-86,-72,-4,121
166,255,151,8,9,-80,-36,-31,-12,63
-111,-532,-308,-126,-20,-17,49,71,52,47
-138,-943,-615,-117,42,110,136,138,116,69
518,-478,-275,-34,43,107,62,51,86,126
1082,-106,89,35,-28,29,-65,-55,49,230
793,251,285,67,-68,-27,-155,-126,-29,201
-178,407,104,-74,-73,-46,-92,-30,19,115
-1100,657,-7,-164,-31,-30,5,27,-25,-192
-1403,1003,72,-29,67,82,82,18,-185,-651
-1239,347,43,67,71,149,159,79,-159,-660
-22,-245,86,16,-37,13,60,24,-91,-255
872,-800,333,58,-104,-177,-185,-187,-145,44
700,-1520,-26,0,-115,-180,-174,-122,-38,257
12,-2036,-852,-150,76,90,183,262,309,402
-366,473,-585,-59,241,265,368,379,377,238
-272,2530,98,-4,20,94,166,129,147,17
-222,1950,413,83,-29,-45,-42,-85,-84,-132
-266,1185,473,261,78,-23,-53,-111,-118,-121
-296,128,370,240,130,57,-15,-67,-92,-97
-47,-621,102,53,82,91,-25,-89,-95,-99
157,-963,-103,-55,29,63,-4,-47,-17,7
542,-571,-129,-157,-125,-97,-104,-69,14,164
1271,68,-159,-261,-314,-278,-237,-152,3,307
1605,372,-104,-213,-351,-400,-293,-216,-78,253
394,-447,-47,-29,-103,-201,-81,-52,-32,39
-1496,-1637,229,309,306,231,272,214,111,-168
-1659,-1011,460,381,319,247,269,187,116,-173
-541,201,-72,19,61,61,100,72,81,-32
220,814,-379,-201,-34,38,60,38,65,51
1045,1051,-140,-193,-82,-40,-28,-48,-19,84
1409,642,0,-115,-80,-76,-85,-96,-67,58
461,-201,38,2,27,44,45,51,62,131
-730,-634,14,79,76,112,142,196,202,222
-1301,-187,31,155,67,40,14,14,-51,-285
-1694,-235,-67,189,130,95,27,-77,-265,-784
-1046,103,60,183,164,159,97,-1,-178,-555
239,565,116,6,-26,-23,-50,-77,-80,-30
727,147,-44,-153,-113,-94,-69,-54,51,283
1022,146,-75,-199,-136,-93,-47,-34,84,319
1298,162,-235,-283,-166,-99,-62,-38,74,309
851,207,-202,-179,-115,-47,-44,0,50,275
-72,129,46,-39,-49,0,9,59,69,177
-882,-5,273,107,28,-13,4,31,7,-64
-1320,-96,547,276,101,-38,-51,-76,-153,-345
-729,72,626,313,94,-73,-118,-178,-269,-343
186,112,223,115,4,-69,-151,-185,-233,-149
560,-471,-591,-193,-99,-34,-66,-27,-50,74
822,-865,-875,-370,-179,-51,-19,78,80,271
1252,-612,-160,-251,-189,-159,-142,-71,7,313
1576,-342,400,-145,-203,-227,-236,-184,-39,350
885,-1000,-393,-154,-34,3,18,77,149,373
-591,-199,-487,76,312,382,399,428,387,277
-1240,1448,631,348,358,365,356,328,281,98
-629,2601,1207,263,20,-85,-127,-207,-210,-310
-699,1279,370,-15,-118,-174,-213,-269,-347,-589
-1265,-1179,-876,-117,158,268,249,206,18,-401
-1497,-1664,-1244,-82,322,518,537,463,258,-250
-940,-57,-475,4,181,315,317,239,104,-243
-4,207,120,83,23,6,10,-23,-59,-141
715,-129,281,100,-31,-178,-151,-120,-82,61
873,-95,240,2,-160,-262,-200,-128,-32,212
658,68,247,-44,-244,-295,-257,-195,-75,192
482,-69,69,-67,-204,-229,-243,-189,-76,188
419,-447,-46,-23,-114,-150,-174,-125,-61,156
196,-682,-21,45,8,-63,-98,-91,-76,25
-91,-920,-78,37,71,67,39,31,-11,-59
-405,-148,234,81,118,154,148,120,44,-99
-337,1512,590,74,62,97,80,45,-6,-125
-38,1069,271,-22,12,66,58,39,15,-52
279,136,8,19,18,33,26,25,35,46
650,-76,-149,0,-13,-45,-51,-49,26,115
639,-86,-410,-121,-72,-74,-85,-69,11,101
48,-200,-541,-212,-118,-78,-72,-60,-12,31
-352,-532,-464,-173,-121,-60,-3,-4,10,1
-381,587,-24,-6,2,0,84,76,75,16
-182,1819,512,137,44,-24,37,46,70,27
32,1064,665,147,9,-101,-73,-53,-19,7
-15,67,506,138,19,31,-96,-81,-96,-87
-142,-959,-193,60,85,285,30,57,-3,-44
-41,-1425,-642,-17,91,191,107,136,113,55
206,-649,-118,5,-60,-156,-86,-61,2,42
586,314,294,-40,-218,-339,-261,-250,-130,66
818,295,131,-101,-187,-228,-208,-194,-98,100
678,-537,-165,-25,3,19,28,15,34,107
62,-2207,-598,58,206,265,289,242,192,101
-253,-1163,132,179,131,157,154,98,97,43
-44,911,393,0,-86,3,7,3,62,144
-366,342,-328,-246,-100,58,136,182,214,191
-1128,736,-186,-6,19,61,128,91,20,-305
-1363,1782,164,126,66,63,52,-45,-188,-575
-909,1037,-46,55,140,141,118,59,-30,-307
-367,-338,-206,-44,186,177,109,89,22,-165
31,-554,36,0,142,116,18,5,-12,-36
383,175,266,75,135,-9,-83,-67,-23,72
384,392,128,30,42,-139,-90,-66,-10,75
234,-202,-61,-48,-147,-148,-34,2,58,107
252,-508,3,-30,-131,-77,6,37,102,160
191,-580,60,-4,-51,-13,18,40,64,92
116,-528,-59,-14,6,11,5,11,14,-4
49,-250,-36,21,32,-15,-36,-66,-36,-70
184,176,20,8,-3,-47,-39,-62,1,13
407,365,65,13,-58,-82,-54,-51,29,111
749,369,44,-24,-154,-145,-114,-100,-13,122
789,407,-23,-74,-144,-106,-98,-77,-2,131
542,689,243,-9,-74,-45,-56,-32,42,169
271,932,673,89,-53,-78,-105,-101,-38,37
-97,620,583,56,-91,-158,-204,-245,-235,-251
-481,-846,-338,-44,19,23,-3,-34,-83,-170
-856,-2440,-1289,-117,222,363,441,449,376,208
-1032,-1287,-643,25,200,291,377,372,337,131
-902,-299,120,205,117,83,94,60,72,-45
-333,-34,262,101,-15,-67,-95,-139,-125,-168
190,104,305,8,-70,-122,-140,-200,-242,-317
567,772,433,5,-55,-92,-81,-105,-127,-109
551,1258,405,-37,-74,-75,-43,-38,-34,30
180,642,-16,-99,-83,-55,-26,0,-55,-77
-467,-403,-686,-124,7,64,86,113,32,-128
-806,-725,-971,-111,147,238,272,294,240,52
-512,295,-8,88,155,169,174,164,161,77
-170,575,497,132,53,37,0,-22,5,3
240,163,304,82,-15,-45,-52,-62,-7,82
806,-4,355,72,-71,-113,-127,-131,-38,170
1113,92,407,20,-125,-156,-187,-195,-103,150
592,-57,188,-68,-126,-142,-137,-134,-76,86
-159,-389,-99,-134,-105,-85,-61,-44,-9,42
-401,-307,-344,-65,-1,34,28,26,-15,-66
-361,435,-126,122,106,116,81,42,-79,-198
-497,76,-221,33,78,133,121,129,-2,-125
-279,-368,-299,-128,-6,44,68,111,44,14
-332,-341,-170,-128,-25,-2,19,59,3,2
-130,-371,14,-49,-9,-6,-10,12,-11,11
360,-478,150,24,-12,-31,-45,-34,-32,36
779,-387,134,53,-49,-94,-101,-84,-42,83
844,62,349,64,-108,-196,-218,-187,-124,63
342,365,613,28,-133,-235,-280,-244,-228,-49
-479,708,541,53,5,-42,-84,-100,-157,-160
-742,1131,141,81,135,157,118,88,11,-92
-284,427,-516,-66,129,222,244,235,227,148
318,-302,-430,-74,90,153,177,182,195,181
465,-465,-439,-43,-2,-12,8,22,55,97
258,-49,-910,-122,-37,-31,21,65,120,210
75,302,-615,-34,-7,-7,21,55,118,221
-217,69,53,60,0,-39,-66,-71,-74,-78
-477,-895,645,109,59,22,-17,-20,-89,-215
-11,-346,682,-1,15,14,17,51,49,11
81,274,111,-79,-18,0,31,78,122,139
-76,400,-214,-41,29,62,69,58,59,3
-458,159,-168,-6,133,134,91,16,-57,-252
-626,-404,-199,-33,123,136,90,19,-113,-332
-34,-347,-19,-9,57,58,53,11,-54,-116
612,-137,63,-38,-34,-48,-27,-42,-7,100
624,74,83,-15,-78,-104,-82,-89,-14,99
340,90,13,5,-137,-134,-93,-83,-43,55
-81,-213,29,91,-136,-96,-55,-64,-61,-25
-210,-5,106,99,-145,-21,-11,-10,-4,2
-138,190,94,-9,-89,-31,1,22,45,50
-131,-38,136,-5,-5,-49,-47,-28,-3,-15
-90,-51,54,-30,33,-17,-27,-16,5,-6
-41,148,-27,-53,52,36,24,30,28,-18
155,469,109,46,66,36,36,4,24,-12
198,634,281,188,84,-6,-25,-64,-38,-20
-77,-90,112,129,48,-9,-37,-59,-55,-26
-333,-961,-24,45,22,6,-7,-31,-25,-23
-143,-707,-128,-23,-17,-8,-1,-5,1,-22
201,-2,-267,-74,16,84,110,102,101,48
375,1156,-12,-40,28,69,96,96,103,65
186,1031,30,-35,-21,5,14,56,91,97
-295,58,83,7,-43,-38,-45,-17,36,-1
-489,263,206,52,-67,-122,-143,-150,-118,-127
197,236,166,38,-70,-140,-167,-178,-129,-7
671,-225,348,21,-76,-117,-157,-170,-112,26
258,-1484,8,-96,-49,-9,-12,-8,7,55
610,-633,-24,-101,-56,-15,16,31,64,178
1123,1120,-180,-162,-113,-113,-77,-81,-19,154
490,1169,-650,-179,48,129,187,203,244,320
-599,1001,53,68,182,262,258,254,251,166
-1546,557,716,216,136,111,-26,-140,-218,-515
-2148,-680,268,200,157,113,-26,-153,-379,-845
-1620,-2481,-1001,-23,250,357,357,325,83,-366
222,-1976,-1038,-210,56,182,275,314,267,164
940,-377,-299,-130,-128,-130,-1,65,136,299
713,775,95,-55,-128,-196,-82,-6,53,278
323,936,323,40,-39,-140,-119,-73,-40,104
71,930,270,100,6,-68,-90,-44,-23,69
-79,375,112,106,50,17,-12,5,22,22
-73,129,186,114,53,31,-36,-56,-66,-101
297,-34,163,72,-5,-5,-88,-115,-141,-113
734,-171,154,17,-52,-38,-99,-97,-103,21
861,-151,69,-55,-80,-57,-75,-55,-17,157
478,-95,-73,-96,-69,-44,-36,2,33,179
-392,-47,-80,-74,-46,-18,-7,27,45,106
-886,98,19,-21,-32,-42,-46,-41,-43,-56
-808,10,85,22,3,-40,-45,-83,-117,-187
-589,-405,49,39,37,4,10,-8,-69,-133
-17,-433,-13,-22,4,-11,16,31,-8,-4
371,-331,-49,-55,-41,-41,-9,22,15,58
462,-176,-24,-12,-42,-44,-47,-10,-27,25
412,-251,4,67,37,0,0,4,-21,-2
314,-478,-8,86,61,29,40,43,54,43
585,273,62,23,0,-8,-11,-7,26,57
893,276,-125,-105,-57,-36,-29,-14,24,135
561,-168,-241,-131,-61,-32,-12,7,34,103
-277,489,16,-9,29,37,31,15,13,-76
-1032,1345,274,42,-26,-43,-54,-80,-99,-185
-1250,567,58,-13,-75,-105,-112,-137,-158,-238
-1075,-592,-40,110,56,36,14,-21,-86,-246
-699,-285,363,272,149,119,79,35,-33,-183
-70,410,366,80,54,56,29,7,-13,-62
115,-90,88,-21,77,120,113,109,88,63
319,69,156,-69,12,74,126,113,120,164
592,704,-42,-150,-97,-83,13,8,50,158
479,168,-309,-104,-47,-62,12,7,43,110
168,-425,-585,9,33,44,47,47,53,64
-7,-603,-590,51,38,75,-26,-24,-5,-10
20,-437,-210,27,-26,49,-98,-94,-42,-18
641,-29,24,-63,-126,-39,-126,-101,0,173
1451,179,145,-148,-246,-238,-202,-141,13,356
1340,773,532,-89,-250,-287,-214,-147,-17,293
279,513,599,46,34,-118,-87,-62,-22,110
-879,-355,298,206,354,96,69,32,22,-103
-1809,-1884,-476,146,295,270,228,138,16,-437
-1746,-2333,-747,-20,169,330,373,297,131,-407
2,-402,-414,-74,59,198,296,275,237,-17
612,1985,47,-33,-9,57,126,128,171,125
-145,2563,437,0,-47,-32,-27,-52,-23,-19
-674,1476,425,21,-23,-36,-70,-118,-137,-166
-123,210,337,92,-11,-101,-161,-235,-274,-304
561,-510,339,21,-96,-161,-184,-206,-205,-143
827,-544,346,-113,-217,-225,-211,-159,-89,134
433,-373,54,-168,-177,-156,-121,-65,1,186
-18,-944,-706,-120,17,90,120,155,155,193
-129,-1047,-1055,32,224,316,367,388,341,269
20,376,-201,203,207,221,245,240,231,207
194,671,212,166,63,12,10,9,54,187
300,549,144,-47,-63,-104,-127,-85,-30,119
115,654,178,-111,-92,-124,-186,-183,-174,-137
-153,191,208,-24,-41,-70,-139,-139,-174,-156
-396,-411,137,70,-10,-31,-77,-80,-135,-137
-573,-927,-70,25,-26,-1,0,1,-51,-133
-136,-174,-26,-82,-115,-51,0,-4,0,-65
351,515,90,-104,-166,-110,-82,-71,-43,-33
325,-183,-46,-75,-96,-93,-72,-66,-87,-78
-343,-867,-100,58,110,86,75,60,-27,-154
-797,-195,-37,243,290,270,254,220,101,-90
-213,502,77,139,117,146,147,147,115,120
553,530,-10,-88,-138,-60,-44,3,70,272
180,-45,-112,-88,-89,-13,-1,30,43,87
-327,-655,-145,-62,10,72,91,90,50,-72
-358,-138,119,37,54,44,30,0,-58,-227
-576,713,352,124,115,16,-27,-75,-154,-327
-308,235,194,66,121,-9,-31,-49,-89,-182
296,-179,-7,-42,-11,-60,-35,-29,-8,49
547,45,-74,-98,-116,-103,-89,-66,-15,153
436,83,-9,-90,-134,-145,-158,-119,-55,128
426,35,-99,-102,-135,-139,-149,-100,-39,144
718,-224,-362,-134,-97,-55,-69,-8,46,256
719,-218,-133,13,-6,-19,-66,-39,-15,165
270,-757,-124,55,76,65,31,43,17,64
-445,-1140,-235,4,111,152,163,173,114,10
-689,341,72,17,68,93,114,119,101,-2
-235,1432,292,56,22,-27,-13,-16,-22,-39
-33,1008,212,60,2,-49,-55,-68,-107,-107
-280,81,140,61,-2,-27,-32,-53,-89,-96
-219,-529,99,31,-33,-58,-47,-45,-38,29
-95,-766,-81,-88,-90,-77,-67,-54,-24,58
-26,-492,-152,-104,-71,-45,-52,-45,-45,-33
-27,-134,-106,-14,36,62,54,40,-10,-48
78,233,136,40,24,11,12,-7,-48,-32
281,1004,572,37,-118,-173,-208,-216,-196,-75
642,376,369,-59,-165,-199,-244,-224,-167,62
1193,-885,-230,-136,-49,-39,-64,-38,19,280
1194,-1356,-722,-122,95,133,117,122,115,204
-126,-961,-720,-7,260,323,330,340,255,57
-1314,1354,122,142,270,257,270,251,155,-160
-1579,1605,226,94,149,91,83,43,-55,-332
-1284,202,108,111,52,-49,-87,-144,-233,-442
-616,-600,146,214,-13,-64,-89,-121,-189,-302
436,-129,189,115,-133,-50,-7,16,17,110
725,642,198,-101,-228,-82,-5,59,117,353
355,349,-39,-204,-160,-97,-51,17,81,288
254,122,-8,-124,-70,-121,-123,-67,-19,147
242,170,299,20,-18,-142,-177,-168,-140,-29
178,-137,410,38,-22,-129,-189,-183,-175,-106
184,-811,45,-46,-25,-58,-92,-81,-74,7
285,-1021,-390,-54,42,59,62,72,40,78
90,-608,-467,2,130,193,202,184,76,-39
-406,-107,-136,30,99,182,191,184,108,-68
-361,156,-96,84,57,75,66,81,81,-7
-359,36,-91,201,115,55,-27,6,-96,-72
-314,-124,-67,165,69,19,-42,-14,-102,-104
65,-204,-63,-11,-41,-53,-14,-55,61,-10
15,-665,-189,-146,-48,-28,35,17,89,15
-361,-262,-38,-71,-19,10,41,18,14,-105
-349,1201,451,32,-2,-18,-22,-69,-108,-221
13,1115,369,-23,5,-1,15,-8,-42,-73
369,287,28,-64,13,14,38,59,88,179
687,-254,-192,-62,1,-2,23,68,133,328
1327,-48,-239,-182,-147,-157,-124,-72,38,365
1650,387,16,-104,-231,-271,-273,-211,-69,353
1056,558,219,32,-132,-161,-186,-136,-19,313
-70,-188,207,74,9,48,16,41,47,85
-1501,-1275,-79,40,122,212,181,157,18,-309
-1983,-706,-291,-79,80,174,196,157,-6,-498
-1079,495,44,-27,80,95,114,35,-77,-434
-667,914,244,11,79,31,10,-43,-127,-329
-623,-388,-56,33,99,34,27,8,-60,-185
-404,-886,3,185,170,119,99,49,2,-106
218,796,169,132,0,22,19,-14,0,52
513,661,-179,-4,-92,-43,7,29,73,214
375,-8,-314,-74,-26,-52,47,76,124,206
388,-165,-97,-65,20,-69,-15,-1,54,120
389,-527,61,46,55,-4,-48,-60,-24,64
373,-511,39,-9,0,43,-52,-57,-35,65
357,-122,160,-86,-67,41,-49,-45,-12,57
186,-360,-92,-74,-50,41,-28,-4,10,42
53,373,-57,-23,-72,-82,-47,-18,-12,17
-11,212,-95,-42,-130,-132,-43,-14,17,39
66,-87,-31,-42,-150,-107,-10,0,48,94
415,363,126,-45,-201,-172,-92,-81,-19,95
92,-179,8,5,-117,-122,-64,-60,-50,-38
-558,-117,-59,96,93,86,82,57,-2,-165
-598,616,45,129,344,311,145,100,54,-132
-367,558,124,107,418,325,98,66,15,-114
48,495,79,14,72,38,7,26,-1,-47
412,560,166,36,-96,-147,-73,-33,-15,39
402,452,204,30,-112,-110,-77,-48,-1,83
-12,-99,0,-14,-15,63,40,38,46,69
-428,-917,-225,-47,30,119,110,84,77,30
-354,-893,-162,-37,0,42,40,34,33,1
1,-318,-17,-5,-52,-41,-27,-32,-19,-20
232,-41,16,-7,-85,-122,-39,-31,-35,-10
269,15,-20,-44,-86,-195,-112,-30,-145,29
148,131,-45,-28,-46,-120,-67,-24,-22,43
0,206,-39,3,-13,-43,12,-3,97,50
-67,259,30,32,-8,-27,0,-21,39,22
-78,234,91,28,-7,-1,-40,-50,-37,-44
-68,99,95,7,-12,-4,-46,-61,-33,-45
178,195,79,9,-30,-45,-68,-70,-28,54
843,676,65,-22,-93,-139,-154,-131,-43,206
1065,827,53,-66,-123,-149,-159,-123,-32,245
467,-28,26,-27,-43,-17,-28,15,45,170
-390,-1294,42,44,66,120,125,144,82,-8
-634,-1100,-58,30,61,89,83,32,-112,-369
-1000,-1234,-483,-19,128,179,199,152,-42,-430
-1083,-641,-347,90,240,296,335,314,187,-103
-308,1120,178,46,68,69,81,72,58,-14
39,913,380,-93,-159,-204,-234,-272,-296,-339
-86,-345,217,-95,-167,-175,-214,-233,-241,-296
68,-1267,-196,7,-25,-7,-17,0,56,60
312,-777,-446,95,125,165,181,209,283,388
540,1415,-155,42,117,153,176,196,253,367
550,2558,222,4,50,57,66,46,99,121
199,1172,234,-28,-1,15,12,-25,15,-8
-158,-234,50,-12,-14,-5,-9,-53,-27,-86
-697,-1010,16,109,76,58,6,-33,-59,-205
-657,-754,100,143,78,43,-40,-27,-104,-160
-63,-218,43,1,-38,-69,-109,-52,-89,15
180,-66,6,-79,-106,-75,-25,-25,125,96
188,-126,61,-70,-85,-52,-18,-30,71,13
134,-57,123,-60,-56,-56,-33,-60,-49,-141
-101,-427,-113,-95,-21,0,55,24,-33,-136
166,-541,-361,-82,13,42,118,116,96,160
354,79,-71,55,43,6,45,45,84,253
309,426,152,113,36,-20,-37,-58,-37,150
184,232,-78,47,33,0,-13,-34,-31,93
178,-100,-68,-23,-52,-39,-48,-36,-4,49
516,347,406,-83,-179,-162,-177,-166,-91,21
375,150,415,-90,-111,-76,-96,-84,-81,-32
-717,-1153,-45,107,166,179,153,116,36,-145
-1000,-788,-109,153,162,129,94,53,3,-200
-316,-530,-562,-78,-6,0,-3,21,30,-22
41,-497,-743,-166,-28,17,38,68,93,93
-58,73,-392,-99,49,128,165,177,199,159
223,1242,182,-26,20,67,109,107,153,176
488,1231,340,-22,-118,-133,-112,-119,-46,54
631,-416,142,-8,-142,-175,-184,-183,-121,27
842,-1874,108,41,-45,-85,-97,-103,-82,14
279,-1787,297,76,46,13,24,5,-26,-84
-332,692,300,60,70,73,121,135,164,115
-512,2627,170,46,10,13,53,53,101,40
-999,1640,191,96,-23,-60,-77,-142,-165,-378
-1154,-185,258,133,-32,-95,-138,-206,-263,-485
-270,-740,-224,-62,-54,-44,-53,-66,-77,-118
157,-910,-719,-98,94,194,199,208,202,188
-134,-353,-613,2,220,280,315,287,278,190
34,489,-195,-46,87,117,149,144,148,153
194,172,157,-64,-46,-21,-24,-11,-17,49
303,-179,411,51,-27,-37,-60,-41,-45,17
552,-44,349,160,45,-12,-49,-32,-37,29
525,287,149,120,38,-26,-65,-40,-72,8
227,187,-51,-94,-73,-81,-147,-39,-193,11
-195,15,-59,-156,-78,-42,-63,-2,-70,-33
-737,35,199,-34,7,52,58,31,19,-163
-774,-174,104,69,56,77,88,37,-44,-252
-216,-329,-102,31,25,33,51,24,-27,-104
280,-211,-113,-46,-29,-62,-38,-15,13,101
429,-77,47,13,-38,-92,-112,-80,-28,149
381,-31,71,43,-28,-73,-93,-66,-42,129
409,-25,9,12,-29,-26,-64,-28,-44,95
674,55,11,-6,-51,-41,-61,-42,-44,102
982,278,30,-61,-87,-91,-93,-79,-53,111
729,418,55,-80,-109,-123,-134,-110,-58,118
85,143,-72,-124,-128,-130,-123,-55,61,305
-486,-232,-70,-84,-110,-139,-141,-84,11,160
-1270,-828,-179,-42,-38,-60,-81,-103,-133,-345
-1499,-1195,-227,83,178,226,189,136,-31,-429
-859,-137,-15,201,331,396,387,303,90,-288
-102,1135,196,148,232,276,270,197,30,-210
328,829,83,7,55,92,102,71,-8,-58
453,496,7,-93,-80,-54,-20,-25,-18,71
208,135,-27,-162,-165,-128,-106,-55,-55,113
-178,-342,-87,-82,-75,-98,-131,-37,-127,42
-259,-121,28,128,115,39,15,3,56,-34
119,-12,60,75,107,17,7,7,78,50
496,-157,19,9,22,-75,-87,-74,-20,80
644,185,23,16,-42,-110,-107,-89,-61,53
495,336,-8,3,-100,-78,-48,-24,-16,62
33,1,-27,-60,-166,-47,-17,19,35,79
-267,-338,43,-40,-154,-61,-38,-16,13,61
25,-415,48,2,-78,-46,-50,-55,-8,48
368,-61,0,5,13,15,20,29,72,112
467,484,-5,-25,63,6,18,42,89,166
617,69,-50,-100,19,-104,-116,-62,-53,132
93,-336,-100,-118,-61,-144,-185,-130,-241,-99
-710,-660,-176,5,13,20,50,-22,-23,-214
-862,303,72,133,123,156,209,122,132,-103
-575,1481,238,129,65,72,97,17,16,-169
-662,321,-76,41,44,44,58,8,-19,-212
-575,-515,-90,13,90,89,94,49,35,-139
71,-550,259,135,85,0,-24,-70,-43,-48
575,-455,588,261,33,-126,-184,-205,-150,-13
236,-980,37,26,-6,-86,-101,-73,-41,47
-375,-919,-826,-307,46,169,244,318,313,285
-94,1528,-550,-251,-18,219,338,373,421,382
524,2598,196,-40,-267,-34,34,4,92,123
672,1393,371,64,-294,-157,-142,-176,-119,-67
370,-587,115,88,-50,-58,-104,-66,-160,-78
-130,-1760,149,77,222,81,54,72,22,-18
-428,-1103,337,75,403,125,122,47,109,-79
-620,11,189,38,200,70,53,-12,-2,-198
-486,48,-235,-104,-71,16,27,9,28,-99
-180,-419,-468,-95,-135,-41,-44,-35,0,-30
60,-511,-549,-20,-85,-53,-53,-43,-12,-4
250,-40,-290,35,23,7,0,17,31,56
212,202,236,138,67,31,16,16,23,46
189,694,661,173,3,-49,-68,-67,-55,4
324,1150,592,24,-122,-168,-175,-153,-131,-8
243,-30,-233,-178,-116,-95,-72,-21,-20,71
91,-868,-796,-201,17,107,144,189,194,218
196,-180,-271,-66,12,61,81,86,154,156
322,4,158,18,-68,-92,-114,-121,-51,-11
301,-670,137,35,-67,-84,-128,-118,-75,20
503,-1303,12,28,-18,-28,-71,-52,-5,155
1081,-296,208,9,-46,-60,-88,-70,18,216
1059,1073,312,-32,-63,-62,-59,-49,21,189
9,566,-106,-129,-35,36,43,52,21,-3
-1291,-560,-409,-122,40,128,143,94,-66,-370
-2399,-583,-342,-13,171,237,281,203,-27,-596
-2142,609,111,121,194,209,270,209,67,-454
-622,1801,461,173,84,-21,23,15,-83,-215
462,1240,280,84,-19,-159,-162,-99,-221,8
745,-415,-183,2,7,-40,-94,-4,-135,181
496,-1048,-213,-35,49,160,113,87,161,150
280,-623,89,-46,-12,147,93,25,214,110
422,-90,352,1,-101,-62,-120,-143,55,180
320,22,356,75,-145,-257,-283,-271,-92,119
103,208,212,73,-154,-266,-287,-256,-170,-29
-180,-76,-105,11,-45,-15,-14,26,-22,-11
43,-258,-212,18,80,148,147,220,19,28
322,-16,-305,10,72,131,183,141,103,-47
413,-63,-354,-138,27,29,17,13,-53,-73
432,-171,-434,-247,95,19,-2,64,3,117
-39,11,-89,-103,154,21,73,72,214,179
-517,286,337,121,48,-56,-42,-84,8,-48
-684,367,324,202,-42,-74,-85,-138,-184,-268
-730,-117,-150,10,-40,33,37,42,-75,-194
-319,-473,-307,-73,3,90,107,141,53,33
18,-318,-2,44,29,30,33,31,0,68
147,-184,152,93,17,1,-15,-4,-34,33
176,-212,94,26,-11,-17,-16,-3,-17,45
195,-149,37,-37,-41,-37,-23,0,4,93
155,50,51,-47,-45,-37,-43,-8,6,83
127,260,104,-27,-51,-65,-99,-80,-62,-8
214,-16,50,-57,-67,-67,-100,-97,-96,-45
393,-393,-86,-113,-74,-53,-64,-57,-48,63
416,-524,-136,-109,-70,-43,-56,-53,-14,108
708,-151,105,43,-26,-68,-84,-102,-23,159
1297,546,395,128,-30,-154,-207,-220,-132,158
805,325,115,-95,-131,-191,-202,-168,-114,129
-896,-331,-256,-120,65,179,240,292,234,84
-1847,1537,374,191,248,340,366,338,194,-276
-1496,2067,724,291,123,85,73,-29,-192,-620
-994,-103,245,141,-44,-94,-106,-180,-301,-558
-258,-1326,-408,-121,-153,-153,-109,-123,-153,-160
416,-102,-603,-209,-107,-71,-16,8,31,166
546,616,-712,-166,45,147,203,249,241,332
413,-361,-660,-149,116,253,306,340,334,342
225,-1126,-143,-25,102,168,208,194,219,193
57,-1019,73,59,84,49,39,10,40,24
-135,-726,80,154,95,-4,-79,-99,-89,-112
-113,167,266,230,77,-47,-126,-135,-149,-152
271,749,305,148,26,-88,-143,-130,-128,-65
322,318,104,-47,-57,-42,-116,-95,-76,8
291,-295,-176,-200,-135,-29,-68,-19,24,153
564,-5,-127,-198,-151,-66,-33,25,109,290
873,827,158,-87,-162,-150,-96,-51,45,203
548,294,158,-29,-139,-203,-85,-35,16,69
-189,-45,42,-67,-75,-155,-43,-13,2,-48
-1053,-720,-178,37,94,35,36,22,-15,-164
-1591,-1311,12,312,270,185,130,64,-30,-275
-1038,-226,688,415,187,69,31,-63,-160,-377
-102,907,859,200,27,-25,-77,-149,-203,-284
599,1043,367,-140,-99,-57,-85,-81,-94,-16
537,22,-224,-234,-114,-29,-44,-24,-10,117
393,-1225,-1172,-317,-65,72,117,156,216,345
406,-1272,-1426,-316,4,184,270,336,482,589
123,867,-228,-40,70,149,178,194,312,348
66,2789,732,157,18,-35,-69,-138,-97,-89
20,1272,521,178,14,-65,-119,-209,-264,-336
-485,-1228,159,239,131,105,45,-26,-156,-368
-744,-1892,21,109,99,124,104,73,-28,-263
-131,-496,46,-104,-72,-26,-14,-26,1,-48
746,706,-13,-212,-155,-125,-97,-72,44,243
1142,1353,96,-140,-140,-135,-119,-88,29,304
670,1006,178,78,33,-7,-31,-37,-1,127
-216,-211,30,192,146,105,75,80,29,-47
-698,-1080,-58,94,72,63,80,97,88,-61
-119,-628,147,-45,-74,-125,-108,-78,-6,50
650,-108,610,14,-106,-279,-385,-324,-325,22
598,-390,695,151,-122,-218,-299,-332,-218,-12
309,-596,139,45,-205,-144,-140,-212,-93,18
-57,-257,-524,-150,-157,-78,7,-42,-61,-138
-1004,-1083,-1093,-334,-36,132,209,241,-55,-332
-1232,-533,-1349,-354,168,529,661,692,465,20
-610,1775,-647,-82,358,641,689,629,635,154
-637,2180,98,195,438,532,277,173,128,-295
-307,966,361,182,205,107,-88,-148,-177,-432
481,-99,308,58,-46,-343,-192,-103,-21,43
443,-618,152,55,-89,-365,-112,43,168,395
1,-140,310,65,-83,-169,-80,1,89,259
-357,120,361,57,-74,-83,-135,-138,-108,-41
-252,-113,267,87,-32,-44,-141,-171,-191,-122
145,-229,47,62,-26,-60,-110,-122,-130,-9
232,-219,-87,17,-33,-89,-90,-69,-93,40
149,-234,69,19,-45,-80,-85,-65,-90,14
191,-135,230,-8,-68,-69,-81,-89,-102,2
364,79,65,-68,-79,-43,-44,-48,-43,66
437,527,13,-77,-84,-40,-47,-32,-30,92
529,635,218,17,-32,-37,-43,-46,-55,50
747,175,411,47,-71,-112,-152,-170,-162,-59
647,-294,109,-94,-169,-178,-205,-176,-148,35
426,-859,-657,-320,-178,-96,-56,37,119,349
-66,-1616,-1398,-332,-26,109,168,229,281,306
-1362,-2108,-1150,-58,250,358,384,383,304,-41
-1953,-170,413,425,384,350,315,215,76,-413
-865,2226,1057,471,224,120,73,-9,-121,-363
291,2815,649,107,-23,-67,-74,-81,-112,-50
838,725,-36,-154,-92,-114,-111,-25,-104,146
645,-1008,-323,-171,-41,-7,26,64,77,166
352,-449,-121,-118,-69,-34,30,0,116,100
-23,-147,111,3,-52,-62,-34,-79,-51,-72
-519,-572,248,114,1,-42,-61,-111,-152,-215
-536,-713,283,130,-11,-57,-85,-126,-181,-248
-152,-213,246,142,12,-35,-45,-86,-158,-184
190,475,-47,57,32,29,37,32,-9,32
408,1062,-173,30,33,47,48,72,78,172
317,766,-80,30,18,5,-5,5,43,129
87,181,18,-67,-36,-38,-47,-35,14,76
71,-63,4,-208,-102,-61,-63,-9,31,109
145,-32,-139,-280,-110,-31,-15,67,106,181
134,69,-103,-130,-49,-21,-31,-21,5,28
-288,-511,91,81,53,22,-13,-61,-94,-172
-532,-1066,233,141,77,16,-10,-47,-78,-177
-110,-512,332,107,-15,-98,-121,-134,-132,-117
637,407,13,-28,-101,-135,-138,-119,-84,77
546,-156,-576,-156,-33,46,78,127,133,216
-42,-385,-414,-75,49,135,186,189,180,124
-353,404,-68,46,90,120,158,127,98,4
-615,953,213,136,149,158,155,101,61,-104
-314,634,355,121,86,43,43,-23,-34,-113
613,-313,109,70,21,-44,-28,-66,-34,96
1642,-396,-68,-29,-79,-148,-146,-138,-40,270
2134,-180,-96,-166,-206,-231,-227,-162,-18,347
1545,-85,-243,-246,-214,-178,-135,-34,109,385
-596,-139,-371,-166,-37,67,78,126,116,-1
-2677,57,-160,14,96,190,190,166,42,-437
-2694,889,289,129,46,48,13,-44,-190,-709
-1587,529,291,187,96,60,-14,-113,-295,-748
-752,-302,99,206,193,197,129,40,-101,-388
-23,-845,-167,57,142,187,160,140,90,66
266,-681,-377,-165,9,66,101,131,170,268
272,39,-152,-203,-93,-52,-10,27,77,184
428,622,216,-159,-122,-96,-64,-31,10,130
729,467,546,-23,-56,-62,-50,-20,10,151
688,173,564,204,10,-60,-82,-86,-46,112
326,-135,270,332,70,-68,-98,-109,-74,79
304,-297,-290,102,85,-70,-60,-27,33,237
556,-711,-854,-265,-44,-96,-23,62,149,348
513,-1249,-607,-171,-141,-158,-177,-69,-82,167
0,-1584,-76,114,-51,-65,-119,-115,-154,-105
-923,-1026,149,200,96,158,111,64,-40,-310
-933,1508,535,128,72,129,87,78,-79,-279
103,3466,536,-4,-7,68,102,51,101,-57
919,2222,199,-47,17,62,98,35,85,44
1017,438,127,15,43,36,44,-9,23,50
611,-206,260,4,-50,-60,-54,-49,26,139
-115,-358,227,-70,-130,-145,-135,-86,18,124
-850,-543,-220,-149,-112,-99,-84,-57,-6,-52
-902,-584,-853,-223,-37,38,82,74,56,-89
-304,-508,-785,-115,59,126,173,153,108,-42
-130,-474,-122,176,160,140,147,87,17,-112
-419,-604,309,295,171,114,74,27,-40,-130
-256,-671,225,88,29,12,5,1,6,3
20,-328,47,-73,-80,-76,-55,-56,0,35
153,275,21,-112,-127,-107,-90,-103,-37,29
374,753,94,-73,-109,-59,-80,-76,-38,81
404,643,197,-22,-63,-48,-73,-67,-55,45
55,28,71,-4,23,41,33,45,9,8
-302,-408,41,100,134,98,95,86,51,-38
-192,-406,-58,112,118,12,7,-9,-1,-56
213,-405,-253,15,59,-38,-23,-26,3,52
502,8,-100,8,1,-47,-44,-45,4,117
603,244,-21,-46,-118,-74,-82,-52,-2,163
322,-140,-191,-90,-98,-57,-64,-36,10,159
-137,-307,-218,-61,-7,3,13,38,52,112
-471,-311,55,67,79,70,67,60,30,-94
-670,445,454,189,107,107,57,33,-74,-308
-428,546,482,69,20,45,38,32,-64,-207
44,196,409,-12,-86,-96,-97,-113,-118,-91
529,301,325,-104,-190,-246,-258,-266,-204,-46
1062,147,-96,-243,-211,-229,-234,-211,-126,104
667,-1125,-780,-306,-108,60,24,62,122,258
-110,-771,-700,-107,20,223,221,243,264,256
-457,1534,-25,164,56,114,132,130,125,74
-463,2436,412,226,18,-29,-16,-53,-83,-191
-286,1350,247,52,41,-80,25,10,-31,-195
-240,-613,-32,49,277,76,149,151,90,-73
-557,-2559,-229,118,286,283,243,211,154,-13
168,-2107,-136,27,82,168,127,99,82,44
931,-596,24,-41,-93,-116,-70,-54,8,131
452,427,-52,-40,-66,-74,-26,51,110,228
-709,1073,91,-6,-21,4,15,51,52,19
-1355,998,330,53,-38,-56,-88,-138,-189,-391
-1203,304,173,49,-49,-65,-111,-173,-240,-443
-151,-199,-88,8,-9,-10,-30,-48,-55,-76
764,41,-92,-22,-18,-11,-13,9,74,236
768,-149,30,-12,-36,-45,-38,-10,49,201
502,-431,-23,-59,-63,-45,-41,-22,5,100
199,-483,-190,-94,-42,-3,11,16,5,30
20,143,-217,-115,-6,53,87,59,44,21
28,723,-109,-121,-23,32,50,31,23,10
-16,363,80,54,14,-18,-47,-58,-57,-49
-82,-30,191,225,46,-38,-81,-96,-91,-51
5,-193,59,100,1,-40,-62,-59,-43,11
65,-263,128,122,6,-43,-61,-50,-23,49
72,-343,237,198,40,-6,-37,-21,11,85
243,-72,204,-4,-21,-41,-35,-18,19,107
552,109,103,-199,-108,-102,-65,-49,-13,86
609,-32,173,-98,-66,-44,-44,-49,-84,-16
781,-596,-179,-59,-24,32,42,53,11,71
953,-783,-594,-166,-29,65,134,204,228,336
132,-531,-317,-133,-13,40,98,150,143,68
-1328,-598,184,15,106,146,155,169,92,-183
-1811,1503,809,317,172,64,-20,-33,-248,-429
-1356,2167,436,263,92,-10,-81,-146,-289,-475
-376,624,-470,-44,-2,30,65,-2,41,-102
547,-85,-827,-233,-91,-9,22,21,124,150
757,-126,-618,-232,-123,-73,-51,-24,76,154
638,-97,-41,-107,-125,-102,-101,-81,7,119
211,-523,395,80,-40,-84,-125,-114,-91,-7
-732,-1895,328,244,134,74,7,-33,-96,-174
-1067,-2435,-46,194,202,188,134,85,-8,-166
-449,-599,-100,80,167,190,176,133,62,-67
237,1978,354,-2,4,3,10,17,11,45
580,1884,232,-200,-186,-184,-152,-56,25,255
1088,1247,-273,-279,-209,-172,-116,0,144,437
1090,1272,-342,-161,-80,-51,-16,45,151,333
-61,311,160,196,163,141,106,77,0,-114
-813,-1545,256,311,241,197,131,66,-99,-352
-960,-2090,-322,-2,70,129,111,81,-67,-322
-853,-526,-276,-122,15,105,156,127,17,-248
-230,1388,186,22,33,58,86,58,34,-109
196,902,318,82,21,-66,-83,-102,-54,-23
625,-43,135,5,-34,-129,-134,-130,-68,77
1150,-151,18,-50,-114,-142,-144,-134,-37,185
979,49,21,-34,-103,-115,-134,-106,6,231
418,95,-163,-98,-89,-99,-86,-19,74,282
-289,-296,-379,-174,-78,-35,-2,52,125,215
-1016,-599,-197,-121,-37,6,25,17,-1,-110
-1089,-807,-36,1,55,69,55,-9,-95,-335
-379,-251,230,196,146,119,87,8,-58,-196
39,214,194,180,107,99,56,28,11,-5
281,557,23,1,-18,14,-2,29,35,73
379,460,158,-22,-63,-75,-96,-53,-63,-3
290,127,116,-40,-85,-119,-119,-91,-111,-24
397,178,-2,-81,-98,-111,-88,-80,-100,22
367,340,-6,-24,-58,-58,-47,-47,-48,47
14,-302,-114,2,16,47,56,56,60,89
-273,-311,40,32,66,90,92,98,88,83
-80,345,289,-20,-36,-39,-57,-51,-34,-17
41,463,246,-31,-54,-55,-78,-92,-79,-53
289,-242,-31,29,-10,-26,-42,-73,-61,3
724,-1071,-479,90,44,17,36,2,33,169
517,-896,-226,184,82,39,39,9,34,132
-127,-43,202,66,7,-16,-20,-47,-10,-10
-964,-42,248,-9,8,7,-7,-28,-51,-222
-1467,-160,-239,-100,97,186,215,211,121,-201
-1103,67,-486,-116,98,223,273,288,217,-70
-479,741,-10,56,102,127,149,122,91,-117
191,1580,259,22,-1,-30,13,-5,17,-17
544,1002,246,-40,-122,-155,-136,-116,-68,59
537,-220,27,-58,-67,-157,-183,-161,-130,54
514,-839,-310,-93,34,-78,-89,-59,-30,140
475,-617,-166,-95,-5,-60,-52,-34,10,134
250,-351,68,-74,-70,-45,-41,-26,-4,50
91,-237,-184,-85,-72,29,36,32,57,38
138,421,47,1,-23,77,79,67,98,54
-198,83,288,181,98,131,101,74,79,-37
-373,-318,170,227,127,96,83,61,54,-22
-120,396,137,103,36,-2,14,4,24,46
61,361,32,-12,-51,-75,-70,-83,-56,-19
-6,65,-3,-11,-42,-28,-49,-54,-61,-75
-32,-194,-23,13,51,49,29,13,-8,-60
-18,-259,-15,-3,72,49,40,35,29,-4
11,-41,25,-63,14,-14,-10,12,35,39
75,-139,-74,-94,59,-50,-59,-47,-42,-47
157,-313,-136,-11,123,-17,-25,-42,-47,-94
555,-421,30,85,12,-35,-18,-19,-7,34
681,-393,33,70,-216,-76,7,10,51,122
331,-10,-111,-67,-358,-95,22,34,100,128
-275,421,-108,-132,-269,-86,8,24,92,96
-747,728,-7,-96,-129,-78,-16,-2,54,25
-337,275,144,-23,-71,-68,-110,-148,-125,-163
668,-441,96,15,-79,-24,-135,-174,-187,-125
817,-745,-45,27,28,91,2,15,4,53
-347,-264,-135,109,341,315,261,276,239,138
-1235,713,-89,55,369,215,251,235,194,-3
-1521,947,167,91,281,-13,68,18,-57,-346
-1123,264,311,147,233,-72,-37,-109,-165,-431
-114,-328,133,32,-11,-76,-45,-76,-84,-152
668,-79,-35,-112,-162,43,-30,11,46,160
1014,316,-21,-160,-162,132,-28,26,104,314
1100,364,130,-200,-196,-72,-109,-64,33,240
805,18,-29,-219,-153,-194,-113,-63,5,132
151,-750,-166,44,9,-36,9,44,41,47
-213,-534,-83,325,133,61,61,34,-15,-49
-335,160,-76,300,129,58,65,0,-55,-81
-505,-22,-124,113,53,21,34,-14,-65,-144
-254,-400,-74,-25,-51,-57,-62,-68,-67,-93
-128,-483,-127,-121,-114,-101,-106,-106,-90,-75
-205,-32,-375,-149,-56,-4,7,4,9,-16
-166,613,-176,-35,101,166,179,187,179,127
-89,1288,596,135,101,100,78,68,88,71
194,1111,639,47,-50,-56,-73,-63,10,85
379,269,7,-77,-86,-42,-24,12,79,148
192,-360,-160,-36,-11,15,18,39,44,22
-187,-994,-89,26,42,22,17,-6,-22,-104
-213,-490,12,-9,-26,-32,-47,-59,-71,-135
156,-24,-123,-97,-83,-47,-41,-6,12,41
479,-250,-315,-125,-40,13,35,92,128,226
671,-673,-185,-64,-37,-36,-31,0,49,194
524,-444,-20,-82,-58,-65,-81,-81,-38,81
2,-223,2,-18,31,34,34,23,42,43
-504,6,100,87,85,67,67,68,43,-84
-632,606,70,10,20,17,32,0,-60,-285
-405,94,-32,21,45,46,66,8,-38,-244
48,835,296,242,128,87,79,29,50,-4
108,846,249,178,47,9,10,2,67,140
-365,160,-6,95,37,35,51,34,104,103
-728,406,139,64,21,21,8,-39,-35,-157
-373,196,78,-100,-100,-64,-66,-93,-134,-281
378,-327,-136,-171,-94,-29,-21,0,-14,-80
631,-559,-75,-38,12,47,62,72,72,92
288,-495,-95,11,47,66,84,97,86,126
-116,-196,-106,-54,-1,19,41,58,66,117
-188,112,101,-10,-12,-50,-29,-37,-12,32
59,134,142,32,-24,-79,-84,-94,-80,-37
351,-195,-84,-9,-2,-26,-16,-19,-12,47
360,-543,-191,-47,12,21,48,63,59,87
161,-579,-130,-57,-24,-9,33,71,90,122
-5,-129,21,0,-61,-70,-54,-14,35,94
-106,226,150,19,-91,-125,-143,-128,-47,43
266,418,102,-46,-114,-149,-192,-202,-86,53
868,315,6,-55,-82,-86,-143,-146,-57,140
620,-266,-125,-1,4,26,-3,4,30,128
-378,-511,-182,-31,72,158,171,162,121,-7
-961,411,149,1,12,64,54,11,-70,-318
-1216,383,406,155,16,-24,-76,-173,-324,-635
-1245,-1186,163,188,114,59,29,-63,-209,-527
-407,-1219,-321,-14,101,100,141,124,98,-18
784,75,-470,-202,18,81,143,180,239,338
1091,1691,51,-82,31,95,128,151,202,313
571,1493,138,58,71,100,121,110,116,150
-106,440,-234,19,31,51,69,47,20,-3
-499,400,-150,-24,-6,22,29,27,2,-42
-385,-90,59,-26,-28,11,-25,-28,-23,-32
153,-480,209,30,-30,-12,-92,-114,-92,-39
386,-393,262,71,-30,-59,-113,-120,-108,-9
172,-119,201,17,-31,-97,-105,-80,-32,118
-155,35,30,-41,-42,-134,-71,-22,33,146
-278,17,-145,-57,-94,-173,-29,9,39,66
19,-213,-296,-33,-27,-56,18,17,20,0
336,-642,-202,39,69,12,10,-9,-14,-16
251,-745,133,106,80,-69,-104,-110,-125,-97
-34,-291,274,99,63,-24,-94,-80,-100,-105
-536,-304,143,35,61,72,36,46,-4,-120
-621,318,5,38,39,100,98,75,20,-133
-228,820,-308,-24,26,134,163,130,103,11
101,915,-162,-56,-14,100,121,106,117,105
269,393,114,-18,-5,20,32,13,40,98
249,-99,325,30,34,-42,-68,-84,-42,27
226,-112,456,76,27,-101,-143,-135,-102,-23
282,-75,453,76,-27,-121,-163,-128,-101,-8
420,-44,179,-17,-81,-124,-151,-87,-67,52
386,-356,-231,-115,-122,-118,-109,-73,-48,63
106,-904,-744,-193,-133,-16,32,49,71,115
-139,-1436,-1271,-326,-152,105,248,276,300,261
-125,331,-209,-93,-81,90,165,154,170,104
-8,2288,1061,204,-8,-62,-123,-174,-193,-210
-260,828,737,185,102,75,-64,-94,-148,-241
-726,-890,37,97,182,253,117,101,47,-94
-468,-337,-459,12,149,179,115,122,111,49
5,240,-508,41,131,20,44,43,45,-4
129,111,-437,13,79,-30,49,52,40,12
93,1,-39,-17,0,-45,12,9,-3,-5
138,-200,178,-27,-42,-51,-22,-24,-39,-13
160,-325,96,-24,-33,-37,-17,-14,-29,20
161,-299,67,0,-31,-59,-60,-58,-52,46
147,-200,126,22,-62,-110,-130,-123,-80,29
302,-101,143,-43,-122,-178,-181,-162,-101,56
748,148,165,-63,-126,-168,-163,-156,-89,147
1134,201,262,-25,-75,-97,-97,-81,-36,197
794,-79,177,-31,0,11,-3,26,41,167
-266,-239,-266,-50,79,164,150,177,110,21
-788,68,-458,-75,104,240,233,276,187,-10
-992,708,-35,-55,41,108,100,83,-38,-291
-1248,346,108,-35,38,49,57,-18,-145,-428
-797,-233,77,94,120,113,108,58,-32,-208
-346,-262,234,182,95,60,25,-9,-59,-160
-212,162,267,112,-15,-86,-106,-135,-148,-156
-56,109,47,13,-71,-137,-136,-135,-122,-46
216,-284,-298,-53,-64,-75,-68,-24,-26,95
351,-162,-117,14,-25,-43,-29,13,-2,122
300,41,227,97,18,-29,-42,-25,-30,69
168,149,233,70,8,-46,-46,-33,-46,16
315,-244,-267,-106,-23,-22,42,51,64,132
750,-168,-628,-249,-43,21,103,129,168,307
649,-155,-180,-84,-40,-34,-26,-7,28,188
-75,-155,465,174,21,-63,-137,-139,-132,-63
-651,317,680,192,20,-29,-96,-102,-132,-188
-425,1202,444,21,-48,-55,-73,-80,-124,-197
-34,462,-205,-98,-20,2,-12,0,-61,-113
54,-1427,-906,-167,45,108,122,152,104,55
-161,-2078,-683,-156,25,90,113,123,63,-33
-412,-1030,-182,-116,12,72,95,87,41,-51
-244,945,260,75,67,93,108,94,97,58
68,1885,660,243,43,0,-20,-64,-15,-12
551,1869,654,262,-10,-99,-127,-153,-117,-30
857,335,-68,83,-32,-72,-83,-53,-43,85
553,-924,-626,-119,-31,3,32,95,106,214
-78,-663,-320,-128,-39,36,63,126,155,199
-674,-39,115,-94,-45,8,24,64,70,11
-969,146,301,-5,-19,-37,-88,-49,-139,-181
-605,-10,361,115,-2,-63,-151,-130,-231,-216
132,-58,726,149,-91,-156,-189,-231,-142,-145
594,6,622,14,-227,-297,-368,-358,-261,-122
801,-275,-185,-185,-175,-161,-220,-183,-147,3
1159,145,-1025,-384,-35,117,159,220,241,419
878,357,-940,-265,85,244,331,365,386,490
-172,-228,-385,-52,110,159,230,226,225,198
-1065,-721,-426,118,162,122,145,130,92,-72
-1594,-791,0,346,246,151,112,68,-23,-322
-1067,625,680,334,115,13,-25,-84,-119,-285
239,1169,380,28,-78,-91,-98,-94,-78,-29
883,491,166,-63,-111,-91,-95,-89,-88,43
630,-761,120,-77,-74,-49,-34,-51,-100,-20
41,-1718,-2,-103,30,54,72,71,-58,-52
-232,-1074,-177,0,123,106,91,126,-60,-30
-380,222,-162,59,90,87,141,89,127,-17
-357,1176,76,40,59,68,121,89,147,2
-404,927,267,106,71,31,17,-11,0,-101
-245,588,136,-53,-100,-112,-151,-169,-133,-141
143,-76,-500,-329,-202,-126,-122,-83,-27,52
523,-369,-531,-275,-130,-30,-5,43,104,249
504,-481,-88,2,-31,-22,-58,-43,-14,70
139,-565,208,137,-3,-79,-120,-144,-139,-127
7,-137,72,40,13,-8,-19,5,16,36
68,1056,221,111,105,89,72,114,90,119
-181,1295,557,351,173,48,-69,-40,-228,-149
-248,318,355,244,106,25,-35,-78,-129,-168
-56,-159,186,6,-11,-9,4,-52,23,-49
44,-567,-49,-121,-80,-39,-3,-5,55,64
151,-777,-236,-143,-94,-58,-65,25,-27,166
338,-519,-175,-98,-71,-85,-136,15,-100,236
387,10,-108,-15,-25,5,59,62,223,240
196,-270,-393,-96,-35,-5,84,34,197,87
120,-151,-329,-180,-47,-27,36,5,77,-33
58,455,121,-30,-3,-2,-11,-30,-52,-149
-198,901,250,132,85,69,28,-23,-139,-256
-189,587,5,89,99,123,96,60,-69,-193
10,-173,-83,7,23,73,64,61,16,-59
25,-134,159,-15,-60,-31,-21,-9,25,36
-45,-20,167,-42,-98,-109,-87,-68,5,112
-139,-116,156,8,-97,-159,-161,-155,-96,44
-128,-535,343,29,-92,-171,-211,-216,-182,-68
240,-800,117,-7,-60,-100,-141,-148,-135,-34
427,-97,-172,27,18,19,-9,7,-24,33
82,922,-46,113,111,95,81,85,16,-2
109,641,193,35,108,123,131,105,65,1
306,-377,-113,-152,-3,43,89,98,94,31
-202,-758,-490,-259,-126,-59,15,47,66,30
-704,-3,-536,-228,-80,17,109,138,162,123
-768,1565,22,97,48,63,88,70,45,-57
-914,-380,-31,281,161,97,54,4,-81,-267
-766,-2648,-240,259,258,233,204,166,92,-107
71,-448,305,178,130,125,96,79,96,66
715,1040,416,-13,-50,-48,-60,-44,45,170
503,820,240,-122,-125,-124,-147,-141,-89,5
49,578,61,-108,-39,-62,-81,-74,-100,-106
76,691,-148,-66,25,16,12,21,4,-15
294,431,-395,-156,-8,24,61,93,112,157
315,-183,-380,-207,-66,-9,51,89,138,229
47,-460,-67,-24,-23,-29,-40,-40,-7,61
-300,-616,255,237,25,-51,-98,-114,-143,-137
-220,-538,400,237,1,-70,-121,-135,-193,-209
161,-342,101,-69,-83,-76,-91,-85,-113,-90
207,-413,-207,-210,-33,71,84,115,90,75
25,-112,24,-55,79,166,193,207,175,120
-28,512,475,151,91,55,61,16,9,0
80,317,434,186,23,-66,-107,-137,-120,-38
328,-185,15,23,-93,-149,-193,-159,-98,40
472,-259,-170,-60,-113,-129,-165,-137,-81,69
521,-497,-222,-37,-63,-62,-84,-83,-53,53
245,-1334,-401,19,50,63,67,49,60,42
-591,-1223,-438,52,131,185,201,180,147,-46
-839,-319,-419,-104,50,128,167,165,157,-43
-559,1095,-52,-97,-9,38,62,84,126,51
-146,2483,479,78,29,1,4,2,53,41
196,2476,782,85,-71,-141,-145,-160,-121,-98
361,593,335,-82,-146,-161,-148,-154,-177,-219
354,-965,-242,-34,16,33,27,-11,-128,-240
363,-1021,-613,77,146,157,156,142,28,-2
3,-763,-334,20,67,70,114,157,151,215
-608,-490,57,-109,-60,-67,5,55,121,180
-822,-355,189,-49,-51,-102,-122,-74,-114,-64
-593,-507,228,62,57,12,-48,-72,-189,-275
-9,-447,65,65,102,137,136,43,93,-49
780,332,-25,-79,-45,-9,35,28,175,321
1115,1496,542,32,-165,-232,-237,-229,-33,309
1267,1882,1072,194,-231,-367,-463,-438,-273,163
875,487,529,29,-257,-337,-415,-379,-296,10
-562,-2524,-996,-230,-36,77,91,109,10,-130
-1871,-4329,-1873,-175,355,588,641,617,330,-268
-1921,-1682,-864,165,504,651,671,584,301,-391
-788,1569,129,203,266,301,291,243,130,-199
500,2166,335,11,-27,-50,-41,-29,32,102
863,1422,330,-108,-190,-270,-284,-204,-172,174
487,683,188,-100,-170,-211,-216,-143,-88,184
64,92,111,-18,-81,-60,-33,-59,83,108
51,-512,65,-4,-82,-43,-27,-65,24,-10
249,-431,111,36,-47,-36,-14,-56,-1,-12
114,-143,49,57,0,3,19,-4,34,31
-230,-8,-16,48,52,44,52,53,51,-13
-329,-26,48,170,155,61,47,40,28,-45
49,302,128,170,153,7,-11,-41,-10,-37
300,328,227,62,3,-62,-57,-87,-44,-37
233,115,230,-44,-95,-77,-36,-61,-18,-12
126,-100,73,-187,-152,-51,-4,-3,49,39
127,-395,-90,-249,-144,-31,9,35,92,111
92,-468,-274,-182,-94,-18,3,19,79,94
37,-266,-348,-74,-44,-5,25,18,82,74
229,495,-153,-12,6,6,-1,-6,47,101
121,898,60,63,62,-10,-56,-89,-68,-65
-326,160,-16,82,105,14,-2,-31,-79,-133
-271,-116,-35,42,67,41,40,28,-10,-51
-96,-36,161,85,33,24,-4,-2,-60,-68
-77,71,405,121,-9,-89,-121,-120,-198,-182
-23,-126,497,124,-17,-114,-122,-99,-158,-139
277,1398,990,192,-69,-153,-165,-141,-189,-136
469,1360,927,49,-248,-300,-292,-289,-302,-232
229,-1028,-359,-200,-238,-184,-110,-108,-114,-118
-380,-3093,-2104,-354,115,416,474,524,491,344
-437,-1620,-1814,-192,363,690,695,727,753,615
116,2281,-2,111,204,352,241,201,346,308
282,3014,544,173,96,108,-17,-71,60,80
-2,859,280,104,40,-120,-96,-104,-52,-24
-365,-801,232,106,0,-264,-89,-77,-87,-160
-486,-1093,361,52,33,-151,-42,-48,-72,-201
-257,-1048,232,-22,87,-6,30,5,-1,-106
182,-248,-38,-49,-6,12,11,3,33,42
335,373,-72,-65,-164,-11,-16,-7,14,73
86,228,21,-130,-281,-92,-72,-54,-31,16
133,109,0,-165,-218,-107,-79,-65,-34,41
931,47,-72,-112,-83,-104,-103,-94,-27,173
1254,56,99,50,-6,-114,-120,-121,-57,186
788,282,454,258,61,-52,-80,-111,-91,72
-323,65,690,314,116,62,14,-1,-34,-97
-1788,-279,580,222,159,138,94,25,-97,-542
-2051,-474,115,85,145,109,63,16,-206,-638
-596,-486,-661,-133,32,30,-2,26,-99,-123
678,-466,-1135,-316,-131,-115,-53,-77,76,207
711,-253,-914,-236,-88,-42,-11,-3,114,313
-424,-570,-283,74,167,201,169,151,106,6
-944,1004,974,308,186,138,90,30,-54,-276
-11,2221,1239,154,-69,-157,-179,-200,-193,-162
553,233,502,-130,-187,-220,-207,-176,-98,74
714,-902,-219,-347,-202,-155,-132,-50,32,264
1173,-317,-489,-291,-156,-77,-81,7,69,350
1273,344,-770,-99,6,67,74,133,144,370
625,-326,-978,-62,75,154,192,238,213,333
-258,-878,-663,38,154,208,240,261,206,147
-1042,-102,182,176,155,157,158,122,17,-197
-1318,578,427,74,59,75,65,22,-97,-354
-739,1965,635,111,22,-2,-41,-75,-149,-285
-84,2021,657,177,-8,-98,-148,-156,-181,-112
-171,-138,343,155,42,-34,-92,-93,-152,-121
-657,-1759,122,149,102,88,26,7,-125,-255
-612,-2121,-373,-49,-11,98,82,74,-28,-189
80,-1144,-481,-199,-129,37,74,90,96,74
507,281,-160,-165,-113,4,37,75,139,214
501,1252,90,-20,-38,-47,-74,-57,-2,89
409,724,-24,81,100,-66,-121,-125,-73,27
325,92,61,104,258,-22,-49,-63,-10,93
106,-217,81,23,68,-43,-29,-35,-1,78
-1,-294,-125,-23,-102,-63,-21,7,19,83
-55,-238,-62,-40,-126,-82,-23,44,40,64
6,-107,-140,-138,-120,-67,-14,50,45,55
189,213,-50,-95,-55,-39,-26,-4,-22,-18
142,148,147,79,29,-20,-51,-81,-123,-116
81,-112,245,198,57,-6,-50,-78,-117,-87
78,-220,183,151,32,1,-9,-26,-39,-1
107,-192,106,-2,-35,-23,-21,-18,-21,23
0,-191,56,-66,-74,-38,-65,-31,-34,0
-65,-212,-104,-146,-56,2,4,33,24,39
63,307,-157,-173,-32,50,73,83,115,122
91,71,-92,-96,-41,19,10,18,60,90
-75,-679,-169,-15,-15,6,-22,-13,-8,-18
-151,-372,-91,28,28,20,0,2,-12,-54
-72,387,181,72,27,7,-4,-41,-60,-86
174,650,249,37,-34,-50,-76,-111,-118,-77
327,100,-19,-20,-26,-32,-24,-34,-26,37
110,225,14,26,28,15,46,33,57,89
-150,690,189,78,30,34,57,67,103,99
-180,548,6,14,6,32,40,79,101,111
-138,-8,-110,-41,-34,-25,-12,-17,-12,-12
-27,-460,-7,28,4,-22,-20,-52,-85,-94
431,119,116,94,48,20,17,-33,-80,-54
938,215,-15,-14,-12,-2,21,0,-1,96
602,-154,-211,-146,-66,-16,17,41,78,189
-370,153,-99,-98,-62,-29,-20,3,28,8
-1065,508,182,56,-14,-44,-64,-96,-131,-305
-745,392,301,134,21,-27,-65,-117,-186,-329
240,-255,34,80,44,55,23,-10,-59,-96
506,-1045,-279,7,96,139,157,137,119,91
346,-524,-342,-105,29,82,141,152,214,261
-117,239,-265,-153,-76,-29,22,70,162,230
-845,-212,-106,-6,-12,-30,-16,-20,11,-79
-1175,-1079,417,300,137,7,-52,-137,-203,-434
-703,-865,798,315,81,-52,-127,-185,-242,-366
333,501,665,54,-76,-142,-166,-159,-140,-104
815,2098,295,-65,-49,-40,-26,29,56,175
422,1334,-410,-140,-2,70,97,185,192,285
-123,-1315,-992,-248,-50,59,93,130,136,134
-212,-2091,-1030,-288,-26,95,162,163,208,130
112,-560,-328,-139,16,79,112,97,181,161
389,1046,372,57,-2,-18,-42,-49,17,69
275,900,452,133,-28,-45,-91,-88,-36,22
-3,309,478,88,-72,-93,-115,-118,-104,-78
-355,-216,48,-44,-38,-6,-22,-46,-122,-224
-398,-79,-480,-61,115,215,212,173,50,-167
-2,399,-112,137,224,254,276,212,129,-30
610,309,153,102,184,62,143,104,124,113
973,520,117,-37,42,-180,-84,-100,-9,113
1024,-22,-130,-134,-122,-219,-165,-158,-52,118
65,-868,-211,4,-54,26,-18,3,71,109
-1004,-424,489,214,7,136,23,12,17,-33
-1287,227,1443,317,-18,0,-126,-149,-158,-200
-827,433,1294,176,-158,-300,-372,-372,-380,-401
-212,128,1,-146,-222,-332,-306,-272,-302,-350
280,-613,-1745,-414,-11,82,162,252,182,110
344,-1697,-2414,-441,176,407,554,657,633,560
386,-217,-1197,-144,131,251,360,411,494,481
14,665,118,134,-12,-13,-19,-37,33,8
-572,-842,490,223,-7,-60,-122,-164,-156,-268
-747,-1655,386,202,73,-6,-72,-102,-143,-238
184,559,667,61,-18,-122,-193,-139,-226,-9
923,1348,377,-151,-97,-103,-74,-58,13,167
217,468,117,-26,46,107,147,52,129,-44
-494,1027,445,218,141,145,130,17,11,-295
-519,1505,556,174,32,-8,-31,-121,-133,-335
-30,894,-34,-78,-41,-21,6,-22,-16,-24
635,194,-470,-193,-27,49,132,172,227,375
763,49,-204,-127,-49,-5,59,99,166,330
445,-455,-108,-98,-87,-70,-42,-14,29,144
140,-723,-4,-53,-81,-97,-87,-49,-1,65
-89,-518,329,85,-23,-61,-73,-53,-3,-9
-295,-262,171,119,26,10,1,4,10,-66
-306,-222,-146,72,30,32,18,2,-18,-97
-101,-214,-228,30,4,13,-8,-29,-38,-53
-28,-337,-21,-11,3,10,-11,0,-50,14
64,-183,-234,-143,-30,-26,-43,19,-89,38
154,225,-101,-105,-46,-8,2,-9,55,18
100,195,170,52,9,2,-20,-60,-23,-47
239,33,345,292,105,34,-18,-84,-87,-75
375,-119,229,239,68,22,-1,-32,-36,15
132,-160,-20,-25,-37,-11,-9,0,12,72
-244,-97,-106,-130,-61,-29,-13,6,35,62
-524,-37,-4,-47,-23,-27,-14,-13,-3,-36
-533,-105,25,-9,-4,-21,-8,-14,-30,-100
-163,-94,44,-16,-21,-34,-33,-21,-61,-80
299,-25,-4,-82,-62,-58,-47,-25,-27,37
462,148,-119,-125,-48,-42,-18,5,11,109
359,102,-80,-43,-20,-21,-19,18,21,132
410,-798,-47,-23,-40,-60,-68,-41,-11,149
390,-1283,-159,-73,-61,-87,-109,-90,-89,37
-142,-1000,-246,-10,79,105,97,79,25,-68
-556,1410,298,168,184,180,174,122,36,-135
-440,3197,519,110,49,21,-2,-27,-103,-202
-422,1312,201,25,21,21,-7,-28,-97,-218
-208,-118,-42,-12,31,35,14,32,10,-72
208,-457,-128,-59,-9,-7,-13,10,7,23
350,-463,-172,-84,-43,-25,-48,-15,-20,69
20,-521,-165,-47,-44,-36,-69,-41,-38,61
-330,-577,-145,11,-33,-64,-84,-68,-65,8
-214,-403,-110,14,-4,-37,-47,-32,-42,31
235,180,137,39,6,-37,-29,-19,-13,94
138,576,180,-14,-21,-36,-20,16,46,161
177,459,108,-166,-94,-54,-33,26,39,163
298,742,208,-156,-119,-105,-90,-89,-119,-56
-78,97,174,3,-24,-34,-70,-139,-266,-371
-859,-1962,-86,241,221,225,172,91,-106,-383
-444,-2172,-452,240,302,312,316,290,158,-8
559,345,-335,-27,116,119,160,188,219,332
679,1557,69,-151,-101,-152,-129,-76,55,261
191,874,122,-116,-127,-181,-189,-166,-68,38
-519,-466,-265,-100,-9,-9,-67,-93,-61,-108
-752,-845,-225,70,93,129,42,-21,-48,-231
-534,142,458,250,-11,89,45,-1,-69,-197
-105,118,526,61,-238,-27,-5,0,13,38
337,-1096,-223,-223,-307,-149,-67,32,20,268
423,-238,-427,-156,-68,-76,74,203,142,302
280,1131,-97,-19,201,46,151,157,176,72
16,1132,-132,63,370,90,136,52,115,-112
464,1286,-65,85,139,-2,-4,-41,20,15
904,162,20,30,-87,-74,-100,-96,-3,150
588,-798,125,-30,-141,-90,-112,-79,-15,109
-204,-875,60,-97,-142,-82,-104,-77,-49,-60
-908,-777,-9,-15,-15,45,-4,-8,-41,-193
-901,-130,94,102,89,114,69,34,-23,-203
-495,76,239,186,85,67,26,-32,-82,-197
5,-143,151,173,93,37,-10,-45,-74,-82
47,151,61,66,71,39,35,23,27,33
-141,1339,379,22,-8,-15,-10,-3,9,-16
145,1846,445,-27,-113,-139,-146,-132,-89,-10
533,707,331,-1,-131,-197,-218,-203,-127,98
606,-817,307,123,-66,-167,-204,-189,-107,164
616,-949,332,62,-86,-141,-166,-145,-69,170
578,-797,-458,-283,-164,-103,-71,-8,57,217
347,-520,-1474,-510,-96,155,249,318,332,333
-23,730,-1270,-283,82,306,386,400,334,157
-713,-140,-682,17,217,320,364,320,243,-66
-1055,-908,250,293,217,154,122,35,-21,-332
-964,-489,816,301,92,-38,-112,-178,-248,-414
-310,-758,716,109,77,-51,-112,-133,-198,-245
170,-752,299,105,192,68,35,18,-121,-162
-94,-481,-552,6,171,145,208,238,37,6
-155,799,-435,-82,27,95,201,170,248,82
-81,1165,-20,-103,-126,-67,-68,-127,18,-95
-212,519,70,-109,-179,-81,-136,-157,-26,-48
102,158,284,-23,-131,-43,-123,-95,0,77
551,79,450,50,-120,-47,-133,-102,-5,164
670,-194,80,-54,-127,-153,-175,-59,-57,236
336,-738,-335,-85,-66,-98,-31,34,43,141
-155,-951,-221,171,102,56,104,48,85,-61
-86,135,252,304,117,32,20,-52,-53,-147
315,1256,274,35,-18,-61,-36,-60,-29,20
341,991,113,-95,-59,-64,-32,-26,21,143
-19,277,162,-21,-16,-49,-42,-37,-18,51
-267,-109,123,77,30,-13,-31,-43,-59,-53
-132,-395,-61,47,20,14,5,3,-18,-7
279,-615,-172,-107,-57,-12,2,15,-1,52
548,-676,-287,-287,-155,-57,-23,12,1,62
212,-586,-213,-152,-85,-28,-22,6,12,-8
-273,664,340,110,18,-11,-58,-71,-85,-140
-565,1282,730,230,28,-34,-118,-131,-174,-203
-427,723,433,143,-6,-43,-97,-94,-136,-113
271,-602,-96,-12,-44,-41,-66,-65,-73,7
615,-1503,-683,-145,-33,20,28,46,59,138
88,-1242,-689,-87,113,217,251,259,230,156
-584,664,-196,80,255,300,351,327,271,71
-375,2302,140,45,97,95,150,133,90,32
49,896,76,-98,-69,-69,-25,-17,-30,23
309,-431,-90,-87,-65,-76,-52,-29,-36,32
224,-681,-154,-15,-41,-52,-38,1,-8,68
-224,-497,-12,31,-35,-44,-43,0,-17,21
-494,-162,283,75,-17,-60,-89,-58,-94,-155
-477,-31,238,29,-20,-36,-62,-50,-118,-245
-283,273,383,56,17,15,-33,-61,-126,-218
15,351,417,30,35,59,16,-19,-46,-79
147,-69,29,-98,-21,31,40,48,73,92
-90,-527,-309,-98,-40,-14,10,-6,27,-10
-193,-775,-549,-84,-32,-39,-22,-55,-9,-61
191,-846,-393,3,-50,-103,-106,-146,-74,-33
872,-804,-225,-9,-122,-176,-180,-193,-83,65
1118,-460,-240,-146,-119,-95,-77,-61,19,147
376,126,-74,-83,29,82,69,128,29,107
-317,1834,435,137,144,167,166,204,124,142
-670,2557,494,64,47,72,140,124,213,145
-729,1537,213,-99,-87,-86,-17,-37,24,-30
-204,254,237,-34,-87,-128,-109,-151,-134,-149
328,-1059,88,81,24,4,-16,-47,-36,8
259,-1562,55,282,205,142,95,112,-5,153
208,-563,136,243,127,72,85,98,52,184
112,17,-210,-6,-14,-8,55,28,120,6
-255,-434,-524,-122,5,31,76,40,59,-185
-334,-174,-513,-153,24,51,55,10,3,-253
41,409,-110,-114,-27,-52,-34,-38,-57,-180
38,264,10,-86,-74,-44,11,23,0,-34
-258,210,206,74,-37,-6,13,10,-25,-23
-531,246,340,220,36,39,-10,-7,-47,-30
-402,176,275,142,27,158,-45,-47,-75,-73
-59,138,127,15,80,95,-116,-132,-123,-119
130,-75,-57,-20,206,-86,-91,-81,-49,3
310,-64,-89,-92,40,-112,-17,39,85,173
372,109,154,-66,-97,-85,-8,41,92,212
362,438,207,-24,-123,-118,-88,-53,-8,142
472,536,196,42,-131,-171,-182,-144,-104,93
782,-81,256,40,-153,-188,-223,-172,-121,123
371,-1787,-351,-70,-76,-43,-78,-53,-116,-49
-312,-3318,-1317,-234,49,195,192,200,86,-75
-614,846,4,128,106,124,136,50,146,-129
-562,-233,-181,101,133,134,128,77,88,-69
-506,-692,-72,94,106,69,82,41,52,-61
-277,25,177,39,-50,-44,-34,-78,-47,-105
266,731,146,-100,-210,-144,-102,-117,-44,1
625,678,61,-132,-228,-165,-90,-65,20,136
575,721,269,-30,-194,-150,-103,-59,-1,156
264,292,280,28,-89,-79,-57,-16,12,109
-66,-198,174,67,40,17,9,26,19,66
91,68,-44,29,77,68,49,50,34,105
373,556,-5,14,76,36,24,-11,-28,26
184,-23,-76,-3,69,67,68,36,-5,-43
-161,-784,-430,-113,64,144,201,208,171,82
16,-435,-327,-118,0,67,111,114,108,59
-42,-298,-58,-42,-47,-72,-60,-78,-87,-126
-443,376,176,12,-60,-114,-139,-144,-194,-257
-568,600,225,102,98,57,9,6,-71,-187
-755,-396,269,197,242,133,66,31,-56,-210
-863,-1205,346,185,163,-7,-81,-130,-187,-322
-369,-958,9,13,36,-22,-33,-22,-22,-78
395,364,-225,-125,-68,38,85,149,172,214
789,981,-434,-204,-93,59,110,179,223,336
845,283,-587,-244,-82,29,77,122,191,330
307,-154,-273,-10,44,62,91,79,82,167
-101,1101,402,301,151,80,44,2,-15,0
-3,1509,424,184,75,11,-36,-46,-53,-42
25,285,45,-78,-1,15,23,40,63,65
-73,-246,138,-117,-53,-27,-10,-5,46,26
-141,-102,153,-162,-103,-73,-73,-53,-4,-12
-147,2,115,-95,-75,-57,-81,-68,-34,-49
217,-64,212,63,-13,-38,-83,-103,-68,-55
472,-33,82,55,-11,-31,-67,-75,-68,-53
-16,-238,-179,-5,18,56,35,27,-11,-130
-817,-521,-199,35,102,164,154,137,40,-206
-956,-549,-123,116,152,175,189,151,83,-127
-131,-158,12,137,104,69,75,37,51,39
749,71,99,15,-47,-73,-67,-88,0,124
987,189,120,-72,-130,-137,-130,-121,-43,147
1044,548,202,-82,-141,-154,-147,-104,-28,234
668,652,426,-6,-111,-150,-158,-108,-55,222
-56,89,345,22,-93,-132,-165,-136,-118,77
-461,-829,-262,-49,-96,-116,-123,-83,-108,1
-774,-1866,-776,-63,40,49,50,55,-60,-190
-1188,-1376,-449,68,208,199,187,142,-34,-363
-927,-342,-248,89,270,289,310,262,121,-160
-521,787,-44,48,245,298,345,323,244,46
-180,2668,156,-36,38,57,120,114,88,-4
63,1738,69,-73,-51,-69,8,3,15,-13
0,260,187,-29,-47,-47,-86,-107,-111,-130
-206,78,451,54,-39,-52,-161,-195,-212,-224
98,-100,479,78,-66,-32,-174,-190,-207,-135
498,-1020,0,-31,-127,-19,-138,-92,-85,77
554,-1880,-749,-199,-157,-79,-15,74,122,275
425,-1473,-913,-228,-75,-99,88,167,227,311
160,1099,-14,42,90,-19,94,95,139,134
7,2631,645,203,115,-26,11,0,41,42
154,1180,476,73,-35,-98,-112,-107,-7,79
230,-142,252,18,-72,-98,-146,-136,-50,81
264,-519,107,0,-48,-55,-77,-68,-29,37
430,-94,63,-36,-63,-89,-102,-93,-137,-87
106,-358,-201,-88,-18,-14,-66,-37,-212,-196
-564,-921,-376,-127,92,209,228,153,59,-242
-636,-915,-208,-18,159,253,279,209,143,-121
-220,18,33,90,103,134,141,119,112,23
71,406,144,118,-43,-64,-67,-78,-26,29
188,97,-17,64,-99,-114,-111,-109,-33,101
260,225,176,50,-55,-67,-95,-81,-24,125
220,208,272,24,25,-3,-53,-49,-43,-13
260,-401,-82,-85,10,-10,-25,-28,-63,-94
190,-1285,-508,-173,23,62,101,130,84,74
-1,-656,-298,-58,51,87,144,166,143,157
-65,1316,274,51,-20,-44,-36,-22,-34,44
-6,1303,332,34,-53,-82,-100,-80,-68,35
-57,439,288,62,-32,-68,-85,-73,-67,-17
-620,-127,276,116,-22,-99,-126,-135,-170,-235
-800,-282,171,147,67,20,-3,-21,-63,-190
-92,-76,-381,34,118,146,160,170,128,46
469,78,-535,-122,7,74,133,148,143,130
528,140,-9,-101,-112,-110,-80,-68,-4,93
216,-397,170,-68,-137,-172,-180,-168,-94,7
-591,-909,129,48,-12,-54,-88,-125,-170,-257
-937,-499,77,136,111,100,79,11,-74,-264
-496,633,-82,67,100,158,152,116,81,-19
-94,992,-163,-36,24,94,90,71,86,65
217,474,-192,-78,13,77,89,79,107,98
447,262,-107,-85,33,92,119,102,138,147
432,134,98,-66,14,36,54,47,84,122
249,-328,142,-44,-17,-17,-1,15,54,84
250,-248,385,22,-65,-73,-65,-72,-38,-20
317,302,535,81,-108,-182,-197,-215,-192,-156
140,253,200,38,-125,-205,-220,-219,-189,-124
-234,-113,-225,-9,-53,-98,-93,-79,-85,-80
-393,-231,-459,-23,68,96,108,133,91,7
-293,-561,-664,-31,149,242,267,288,281,171
161,-513,-237,-14,100,169,215,195,258,239
632,-153,147,-62,-50,-42,-8,-43,60,161
912,-80,-15,-148,-152,-141,-141,-129,-26,136
744,-340,-219,-82,-157,-143,-148,-103,18,158
180,-746,-358,-63,-46,-38,-23,39,142,205
-722,-453,-197,-19,140,91,88,101,85,-42
-1276,1310,503,186,156,80,32,-28,-126,-405
-917,1777,586,247,49,7,-41,-94,-167,-378
-226,717,187,61,-44,-39,-46,-49,-67,-154
86,-26,-23,-69,-56,-27,-23,-19,-34,-53
17,-461,-90,-12,27,57,44,41,-20,-28
30,-402,7,120,104,114,97,67,9,9
90,-417,112,130,59,34,39,21,-11,32
139,-465,110,34,-33,-66,-65,-58,-46,30
362,-409,69,-54,-100,-120,-128,-108,-77,44
839,-273,22,-137,-185,-194,-186,-151,-119,108
1080,-31,-10,-166,-179,-199,-179,-129,-93,152
975,46,-31,-73,-67,-70,-71,-14,47,290
631,231,-78,-7,21,14,15,75,174,417
-286,393,-88,91,160,162,118,116,141,155
-790,578,-84,19,64,170,146,139,102,-23
-385,277,-136,-177,-145,21,38,40,-2,-90
-140,236,-232,-235,-174,-36,-31,-70,-145,-293
-656,-167,-16,94,78,98,74,-1,-205,-516
-1320,-1024,194,383,398,245,204,110,-188,-589
-1592,-664,240,283,480,219,142,121,-201,-445
-552,594,339,109,111,42,32,30,14,-55
259,597,239,56,-139,-103,-66,-69,79,139
71,-182,-38,30,-128,-146,-116,-110,-6,55
-28,-793,-192,-68,-117,-121,-104,-85,-16,64
232,-472,-374,-186,-108,-51,-34,28,93,232
397,869,-220,-116,-28,41,39,103,150,271
211,1752,334,106,99,94,89,86,78,128
195,693,414,128,52,26,17,-2,1,70
474,-737,243,45,-64,-130,-115,-114,-49,106
797,-757,24,-52,-103,-148,-138,-116,-45,158
710,-186,-124,-143,-123,-117,-110,-86,-43,123
295,75,-391,-198,-86,-55,-36,3,-4,54
-194,-526,-729,-249,-35,34,56,104,75,4
-601,-1121,-654,-222,-6,74,92,107,99,-83
-559,-466,43,46,30,37,14,-11,-24,-158
-307,133,497,274,95,30,-36,-96,-166,-239
-49,1013,690,402,226,102,30,-59,-163,-222
541,1580,519,229,150,35,-17,-72,-116,-64
701,-33,-356,-167,-26,-23,-2,25,41,148
362,-883,-342,-256,-111,-97,-103,8,-46,211
-51,-299,371,-84,-154,-197,-195,-159,-140,42
-684,-302,430,42,-161,-160,-133,-168,-137,-198
-1099,-357,173,47,-117,7,44,10,-37,-277
-576,29,-51,36,73,205,267,241,196,-26
353,381,-581,-55,184,227,318,345,348,298
486,-54,-991,-287,76,105,189,240,296,316
258,-128,-493,-160,17,28,65,84,155,174
380,657,242,98,-15,-65,-111,-119,-78,45
691,695,208,20,-118,-160,-198,-197,-146,32
618,610,97,-84,-137,-139,-157,-132,-98,44
60,193,183,55,20,8,-21,-36,-71,-81
-962,-1023,188,224,218,213,191,139,41,-162
-1202,-1061,241,218,195,162,143,99,51,-113
-484,-341,156,70,25,-36,-55,-68,-71,-87
67,295,45,-52,-77,-113,-128,-119,-95,-58
261,189,-67,-83,-69,-80,-63,-65,-63,-13
302,-69,-53,-23,-24,-27,-11,-27,-37,16
290,9,71,25,-23,-29,-47,-56,-47,-1
108,71,88,15,-20,-35,-28,-42,-31,-11
109,43,-14,-42,-22,-11,8,17,51,63
237,139,-16,-54,-33,-20,-4,26,72,68
240,216,204,2,-38,-41,-39,-26,0,-10
50,-10,408,71,-19,-49,-69,-69,-30,-53
-137,-439,234,96,-1,-53,-102,-74,-108,-41
-214,-777,-127,64,-21,-47,-117,-52,-126,14
-250,-1453,-666,-78,-37,20,43,35,123,51
-66,-1163,-994,-197,21,129,194,193,279,155
385,1093,-406,-113,81,162,199,181,220,109
624,2589,443,3,22,37,31,-3,-26,-91
381,1911,605,-61,-91,-121,-196,-121,-299,-109
-105,642,437,-53,-78,-81,-75,-23,-46,72
-287,-303,36,31,-12,12,83,35,242,144
108,-690,-227,101,4,-21,2,-66,72,24
254,-907,-226,38,-2,-49,-27,-94,-72,-127
-71,-1042,-149,-34,45,39,102,70,35,-76
-677,-555,167,19,77,108,168,143,114,-23
-750,772,321,59,6,48,18,24,0,-86
-961,508,44,137,74,143,22,25,-32,-201
-741,-334,-163,136,139,214,89,72,22,-128
246,-146,-88,9,18,25,-29,-11,0,37
837,-83,-171,-92,-81,-126,-84,-39,-16,146
727,-9,-270,-150,-103,-137,-85,-58,-39,120
706,135,-300,-209,-123,-85,-74,-41,-33,90
656,842,120,-129,-91,-67,-72,-36,-55,26
466,973,235,9,31,56,31,47,1,41
-304,-831,89,101,172,245,182,175,110,59
-929,-1358,159,176,180,197,132,112,59,-22
-883,-986,92,178,88,26,-27,-45,-76,-84
-862,-577,-27,41,12,-63,-65,-70,-98,-118
-230,454,76,-54,-106,-173,-69,-40,-73,-34
383,740,-57,-128,-146,-182,-49,3,-6,88
454,979,31,-42,-57,-108,-58,-28,-37,62
298,646,79,17,-13,-72,-62,-44,-76,-16
90,-202,-17,9,10,-8,4,0,-69,-66
-85,-799,72,35,61,41,2,-29,-99,-123
83,-619,342,90,59,-10,-53,-88,-131,-89
237,-1010,35,3,-9,-37,-60,-38,-35,60
312,-760,-519,-107,-23,50,42,93,126,194
27,850,-403,-39,58,159,134,157,185,189
-114,2060,77,5,20,60,39,70,112,144
64,945,150,-30,-76,-86,-76,-49,-8,68
345,94,69,-34,-121,-131,-119,-108,-63,16
773,422,77,-65,-165,-163,-156,-163,-92,15
871,-21,5,-98,-148,-134,-128,-138,-109,-49
205,-637,256,30,10,20,15,-15,-77,-193
-554,-411,420,151,115,117,94,54,-46,-239
-1122,45,133,153,182,213,199,166,111,-147
-1296,62,-248,127,221,254,263,236,174,-117
-959,-1029,-729,-60,114,163,228,200,161,-102
-345,-489,-289,-82,-7,24,74,39,59,-66
203,213,117,-33,-48,-53,-15,-49,2,26
443,443,280,40,-43,-113,-109,-116,-32,59
445,53,111,35,-26,-74,-105,-91,3,106
371,-187,-208,-25,5,-6,-3,1,90,178
260,-69,-161,26,36,26,29,13,67,104
265,239,77,86,36,-6,-13,-36,-5,4
561,228,231,50,-36,-69,-81,-82,-48,0
991,121,163,-61,-126,-120,-115,-87,-54,63
821,-18,-36,-139,-134,-113,-95,-56,-41,113
-13,-173,-140,-140,-83,-68,-87,8,-67,127
-774,-57,-86,-66,-22,23,55,57,172,155
-873,210,61,-3,0,5,9,-35,105,53
-568,343,259,182,32,-63,-106,-176,-147,-226
-208,2,155,240,79,17,-11,-39,-98,-190
-158,-518,-102,33,40,78,100,131,73,-4
-478,-549,-49,0,41,60,55,59,-48,-242
-680,-103,161,56,57,52,41,13,-116,-328
-228,336,373,51,-3,-29,-35,-47,-128,-193
348,229,331,-21,-94,-122,-137,-122,-134,-32
390,-39,-50,-149,-63,-24,-21,11,6,115
252,-89,-377,-154,71,162,203,242,224,272
267,837,-247,-55,71,109,135,145,159,186
207,25,-749,-145,-19,29,38,44,73,99
-193,-1686,-806,-112,-40,89,88,84,76,21
-398,-1124,-24,65,-90,32,15,-43,-57,-138
-55,-410,347,53,-165,-125,-174,-217,-211,-157
247,-30,349,36,-97,-120,-169,-180,-176,-36
196,594,-71,-76,151,68,85,94,98,172
387,1545,-191,-131,309,76,125,169,208,284
682,1482,-35,-61,95,-64,-16,41,87,232
485,636,361,130,-37,-173,-242,-118,-262,56
214,305,612,319,-78,-209,-286,-195,-263,5
179,-11,260,170,-118,-158,-181,-152,-69,48
-40,-450,-142,-46,-94,-51,-55,-76,-23,-95
-419,-443,-264,-136,-26,78,84,0,-31,-297
-838,-623,-130,-106,68,238,286,169,167,-335
-892,-1359,1,-114,93,229,305,227,243,-137
-602,-1531,-228,-53,116,210,291,246,290,37
-133,-442,-121,138,102,112,121,76,153,25
362,1446,148,201,21,-19,-52,-87,7,19
664,2221,177,37,-79,-93,-100,-82,22,125
408,770,105,-167,-113,-77,-66,-10,85,179
-204,-243,408,-6,-19,-21,-43,-32,-7,3
-806,-515,477,244,66,1,-41,-87,-131,-247
-648,-347,-1,135,77,45,43,6,-38,-147
92,-83,-445,-36,23,32,59,49,54,70
535,11,-468,-130,-39,-16,25,31,85,185
600,42,-319,-152,-74,-35,21,14,74,197
505,-218,47,-34,-53,-53,-6,-34,31,132
472,-623,185,49,-35,-70,-48,-73,-41,56
363,-605,8,-60,-83,-74,-66,-39,-16,53
188,-31,-152,-169,-109,-63,-14,54,110,152
-159,635,-95,-138,-65,-18,21,65,69,5
-838,737,156,98,78,39,-3,-47,-122,-338
-908,614,257,224,145,69,-6,-66,-166,-368
-223,244,114,143,82,41,3,-26,-91,-129
131,-659,-92,2,24,39,32,31,20,42
57,-1047,-95,-14,25,41,35,40,44,42
151,-403,75,24,-11,-16,-11,-20,-1,32
239,293,136,6,-40,-53,-58,-54,-47,42
229,293,28,-38,-47,-51,-34,-19,-1,85
199,88,-110,-101,-57,-34,-3,9,38,118
147,128,-242,-197,-89,-26,10,41,39,110
-67,-37,-231,-177,-50,-16,33,65,45,74
-166,325,108,30,28,7,9,9,-44,-43
-123,740,563,243,90,-17,-66,-94,-176,-163
43,357,654,279,75,-57,-134,-165,-258,-221
106,-318,89,88,28,-26,-63,-67,-151,-111
12,-1009,-691,-178,14,81,104,165,108,137
-11,-835,-835,-323,-31,88,148,215,249,301
-45,-255,-337,-235,-77,1,19,66,132,189
228,183,129,31,-3,-24,-49,-63,-23,50
478,636,556,344,82,-29,-109,-175,-180,-89
359,192,332,221,23,-49,-94,-114,-127,-19
52,-386,-73,-69,-63,-49,-36,26,39,121
-443,-489,-66,-84,-43,-25,-12,42,46,15
-777,-87,78,-12,-7,-27,-28,-24,-64,-186
-550,-76,14,18,28,15,0,-39,-126,-256
1,120,-55,-3,46,48,55,-4,-75,-140
324,817,72,-27,23,12,45,11,-21,-16
522,-65,-34,-117,-74,-57,0,5,48,183
481,-739,-161,-194,-130,-81,-82,-27,88,295
-37,-802,-419,-256,-23,39,-19,62,152,255
-403,580,-360,-173,93,152,99,132,141,60
-259,2341,219,51,41,55,37,18,-41,-195
-236,1042,398,316,52,9,19,-2,-109,-269
-249,-945,499,515,111,-8,-37,-81,-169,-265
-3,-1313,266,299,10,-84,-108,-138,-155,-138
491,-213,-165,-148,-184,-170,-151,-139,-80,85
435,-195,-553,-311,-110,-13,11,49,69,127
-244,57,-141,26,187,262,265,267,181,14
-315,843,518,260,232,224,236,177,109,-26
-15,95,604,244,131,102,103,52,62,49
297,149,257,14,-52,-69,-52,-50,28,150
80,-217,-312,-220,-126,-136,-117,-86,-32,55
-613,-1213,-594,-176,-45,-39,-42,-22,-47,-126
-772,-314,-369,-28,14,8,-19,-17,-89,-235
-269,671,-180,2,7,5,-10,-7,-75,-173
620,841,-18,14,-33,-4,34,60,52,94
732,77,149,13,-104,-67,-39,-4,25,165
-11,-785,165,-11,-103,-65,-61,-45,-22,10
-559,-305,255,32,-30,-8,-2,-9,-4,-71
-372,439,58,-41,9,29,51,56,71,22
115,753,-165,-67,37,42,75,81,119,125
472,344,-77,-46,-22,-56,-41,-37,51,151
737,-200,86,-41,-59,-92,-101,-84,18,160
768,-698,-138,-57,-29,-47,-36,-27,30,139
383,-367,-154,27,29,8,-2,-21,-16,11
-167,274,0,83,91,89,87,43,-3,-108
-650,226,-98,-3,70,108,118,95,51,-130
-906,116,-43,27,54,73,81,57,11,-186
-982,-90,27,88,67,50,44,-3,-60,-280
-411,-94,81,72,46,16,4,-32,-45,-166
365,-94,200,6,1,-14,11,0,49,108
557,84,280,-78,-60,-26,7,46,123,306
430,412,213,-64,-105,-90,-73,-30,37,219
166,372,267,31,-90,-161,-168,-172,-121,-23
-12,-366,138,47,-39,-98,-116,-138,-125,-99
119,-937,-281,-10,25,46,5,15,-12,-1
182,-779,-605,-133,35,176,99,111,100,118
115,9,-292,-131,28,146,68,45,39,-5
50,-18,8,-54,-2,25,-31,-62,-88,-142
-38,-897,-142,-40,-68,-58,-81,-86,-106,-147
-80,-910,-308,-60,-72,-56,25,58,47,-27
21,1495,87,79,54,18,152,177,184,117
216,3553,624,171,90,-55,-54,-9,-112,47
89,1562,595,117,-6,-199,-329,-162,-489,-21
-108,-552,218,22,-76,-133,-156,-132,-177,-37
-234,-1346,-133,-31,-23,67,134,-12,272,-43
-324,-1727,-460,-85,59,164,194,112,274,10
-265,-904,-405,-81,89,163,203,176,248,60
-70,331,22,25,38,58,97,102,139,67
117,1014,228,28,-60,-65,-43,-24,-2,42
116,690,115,-85,-108,-93,-101,-91,-98,-72
127,-92,-105,-74,-45,-19,-32,-27,-47,-43
311,-397,-242,23,37,35,10,45,0,102
396,-364,-122,106,36,-34,-109,-31,-166,103
221,-308,14,175,43,-12,-56,-97,-55,6
-74,-253,52,106,76,33,-8,-52,11,0
-106,260,99,-10,25,9,-3,-15,63,61
-181,461,218,-70,-24,-37,-33,-49,30,-12
-135,167,300,-150,-67,-95,-88,-86,-35,-72
28,232,478,-71,-112,-119,-92,-87,-38,-54
81,36,454,39,-130,-37,-6,-12,-11,-37
-45,-438,126,129,-92,81,120,98,50,-29
-182,-898,-290,180,10,160,164,146,101,6
-114,-510,-796,-26,55,135,133,135,109,80
-93,233,-883,-161,16,73,61,48,22,-18
-263,-10,-500,-67,47,59,38,0,-58,-162
-9,-415,-30,13,51,-30,-50,-55,-111,-130
115,-1559,-166,-87,151,5,23,42,-9,18
-30,-162,92,-12,296,73,60,90,82,90
-182,1741,180,-11,24,-19,-9,42,79,97
-315,1564,309,75,-202,-48,-6,6,-1,-69
-316,1060,585,243,-104,-35,-36,-77,-123,-216
209,-353,411,147,-6,-70,-100,-130,-158,-129
888,-1607,-133,-59,41,-117,-139,-137,-112,53
795,-1215,-548,-187,98,-13,-5,19,78,238
211,642,-166,-156,49,98,121,186,268,347
-414,1774,289,-54,-48,88,109,150,200,178
-608,1450,137,-37,-63,21,39,12,0,-118
-679,210,-156,-24,-29,-18,-26,-64,-132,-294
-410,-495,73,119,21,-41,-42,-66,-115,-195
-95,-784,171,144,7,-65,-17,-23,-44,-5
66,-739,137,94,-13,-66,-22,-22,-7,59
295,-247,159,74,-32,-56,-90,-105,-82,-4
348,-46,28,24,-9,48,-52,-61,-69,-42
254,-229,-171,-11,58,189,84,78,69,48
243,-105,-180,-61,38,107,61,74,96,111
128,-130,-1,-44,-30,-89,-38,-11,27,46
-83,28,267,29,-62,-140,-113,-103,-99,-81
-329,160,206,13,-82,-110,-132,-135,-168,-167
-345,-24,-46,-84,-69,-55,-68,-49,-115,-90
-259,-76,1,-74,41,71,76,97,27,35
-77,397,-27,8,121,161,175,173,148,152
197,305,-351,-25,84,97,119,107,121,175
434,-135,-381,-139,-37,-13,-4,18,66,154
554,-122,-156,-143,-90,-75,-71,-36,16,107
398,84,33,-51,-57,-59,-61,-42,-25,19
-20,0,62,44,1,3,-5,8,5,-18
-267,-86,121,89,18,-5,-22,-18,-24,-53
-358,-323,179,90,4,-35,-64,-67,-108,-133
-101,-526,134,-15,-48,-89,-80,-87,-92,-98
484,-533,3,-35,-53,-76,-61,-56,-26,29
973,190,-92,-30,-23,-26,2,23,73,193
695,390,-66,-27,-11,-7,20,32,93,197
23,139,83,28,3,5,-1,0,39,74
-287,859,180,113,61,49,29,12,-10,-30
-412,466,57,101,78,68,43,38,-16,-105
-627,-5,186,104,64,41,-1,-52,-147,-351
-583,84,407,57,-6,-33,-53,-105,-183,-360
-724,-367,251,29,-9,-11,-16,-42,-75,-226
-1017,-1353,-222,46,67,80,86,62,26,-139
-481,-1020,-594,4,84,99,137,138,145,67
214,-40,-814,-149,53,132,194,196,257,277
305,1385,-110,-32,38,81,115,91,183,225
231,1931,460,42,-22,-59,-36,-48,35,99
165,451,284,-28,-38,-37,-19,-23,4,30
69,-660,76,-44,7,28,48,26,12,-48
205,-673,-71,-80,-35,0,10,20,8,-12
380,-371,-9,-54,-67,-47,-37,-13,-7,7
350,-242,-2,-21,-33,-47,-23,-16,-21,14
182,-104,-58,-9,-8,-27,-7,-11,2,14
45,194,-47,16,4,-10,-15,-31,-16,-63
-161,82,-142,1,30,27,11,0,6,-35
-140,-224,-186,-30,3,38,20,-2,47,16
36,-41,97,49,-23,-22,-51,-80,-23,-14
283,465,330,147,3,-55,-100,-110,-61,-5
392,478,195,66,-20,-57,-74,-68,-41,52
316,-35,50,-60,-76,-72,-54,-33,-22,64
298,-57,158,-23,-38,-49,-45,-44,-43,11
-81,-159,136,25,20,8,-2,-16,-64,-101
-589,-967,-306,-24,94,143,140,151,64,-49
-677,-278,31,55,111,148,140,157,122,22
-448,542,368,43,-43,-81,-75,-69,-57,-53
-347,31,-21,-66,-104,-132,-127,-124,-116,-135
-215,-327,-357,-89,-22,7,29,11,0,-71
-174,-385,-426,-12,96,126,133,113,75,-27
142,528,-269,80,104,116,77,73,32,31
552,434,-85,-12,-24,-31,-49,-22,-1,139
566,-947,-61,-131,-145,-151,-148,-101,-34,153
410,-1407,-4,-142,-154,-143,-156,-113,-49,113
801,366,607,-1,-109,-133,-171,-154,-92,121
1390,1933,654,72,-58,-118,-150,-141,-78,211
764,558,-120,44,75,69,73,96,98,273
-183,99,-530,-10,146,213,254,306,292,323
-831,1605,-48,-43,50,101,130,156,151,62
-1782,1316,242,11,26,16,14,-29,-168,-542
