5,1,-3,3,2,11,-16,-18,26,-8
12,4,-13,11,-3,8,-4,-14,21,0
10,1,-8,12,1,3,4,-10,8,2
2,7,-1,14,12,4,6,-1,5,-4
-4,9,-7,-12,-9,-6,9,-1,30,-5
-8,0,1,11,-2,15,10,5,24,-32
18,-7,5,20,2,17,17,1,23,-12
52,8,-11,0,-7,11,13,5,28,36
40,8,-20,-32,-25,0,13,11,30,55
15,-16,-19,-37,-13,5,14,-1,5,55
-15,-18,-3,-28,3,-2,-1,-3,-23,47
-84,-34,1,-22,-2,-13,-15,0,-36,14
-67,-26,-15,-27,-16,-14,-25,3,-39,-45
-14,7,-8,-40,-24,-20,-21,5,-30,-57
-6,23,22,-15,-1,2,-2,11,-17,-38
7,9,37,40,26,13,-6,1,-10,-14
25,10,26,63,21,3,-18,0,-25,-8
42,42,17,49,9,-7,-26,-5,-37,-2
47,29,-4,31,-3,-16,-13,-23,-45,1
41,11,-15,0,-23,-30,-17,-35,-38,31
10,4,-23,-33,-21,-12,-5,-19,-26,12
-37,-36,-24,-24,-1,2,20,14,-8,-7
-48,-45,-15,-4,7,9,16,22,-6,6
-35,-29,30,35,13,1,-5,8,-16,11
-27,-61,25,37,18,-2,2,14,-15,2
1,-24,6,14,23,-4,-13,6,-45,-30
12,11,24,25,19,5,-17,-10,-57,-42
7,13,36,32,7,7,-11,-9,-30,-5
5,-5,-9,-18,0,0,-11,3,2,47
15,-20,-59,-74,-21,-19,-29,-4,-2,50
-13,-21,-35,-64,-19,-17,-25,-12,-4,3
-26,-10,3,-33,-7,-8,-1,2,-1,-15
0,6,0,-5,-5,-5,7,15,2,17
31,18,-7,7,-4,-8,0,0,0,11
31,24,23,4,7,-2,7,-3,-9,-19
3,19,24,-1,9,6,9,1,-5,-19
-3,3,-2,-6,4,2,17,-11,-8,1
0,-8,0,-1,-5,-9,7,-8,-4,4
-10,-11,17,9,-4,0,-5,-16,0,-6
-2,8,27,14,-4,-1,-13,-18,1,-9
19,18,12,12,7,-9,-16,-7,5,-12
23,20,-8,5,9,-5,4,7,17,-8
24,39,-8,-10,13,-5,14,6,25,-9
-13,-24,-35,-21,13,10,23,3,21,-22
-45,-94,-35,-15,4,21,18,0,10,-34
-37,-3,-1,0,0,11,4,1,5,-21
-10,201,59,30,4,14,18,9,14,-6
-1,145,53,41,11,12,24,12,20,0
-6,-20,7,30,13,1,30,25,24,1
-23,-67,-20,45,48,1,8,1,27,-7
-24,-56,-23,86,68,0,-14,-28,1,-18
-16,-58,-26,95,57,3,-7,-22,0,-32
-20,-63,-30,59,58,22,0,-29,-2,-37
-18,-33,-9,15,57,33,6,-19,4,-37
-1,-1,26,-7,45,28,13,2,20,-17
22,19,20,-38,10,19,16,14,25,22
33,33,-1,-58,-40,8,16,21,37,40
21,15,-26,-77,-67,-8,10,11,12,15
0,3,-50,-117,-89,-17,17,4,-1,5
27,15,-29,-135,-127,-29,21,27,45,57
80,60,19,-85,-182,-59,18,53,92,93
87,57,23,-27,-111,-30,21,46,77,31
63,4,-3,4,-4,4,25,16,31,-24
44,-24,8,28,58,14,32,10,7,-18
3,-37,26,87,106,32,51,8,5,-1
-78,-36,6,120,111,32,28,-13,-38,-49
-125,-16,-4,85,71,9,8,-31,-71,-116
-164,1,8,72,29,0,0,-21,-35,-90
-124,2,27,25,-12,-12,-33,-15,20,-14
-51,-25,2,-43,-42,-21,-45,-38,26,-15
83,-37,-12,-96,-67,-50,-86,-77,-12,15
84,-29,-12,-70,-30,-54,-97,-81,-23,51
130,-11,-33,-56,-5,-13,-42,-35,5,98
109,-7,-1,35,8,11,10,9,30,74
-22,-2,28,220,22,12,28,35,34,0
-13,-6,23,253,0,-18,2,27,54,34
66,-5,35,57,-33,-14,3,33,83,150
52,40,86,-165,-15,23,44,63,105,214
25,192,79,-262,7,58,82,102,99,135
9,224,-24,-273,4,46,62,60,35,-5
-32,111,-75,-197,-25,8,6,-9,-30,-40
-125,-79,-70,-44,-33,-16,-13,-23,-48,-60
-89,-191,-77,58,-27,-18,-24,-11,-68,-71
25,-127,-62,50,-10,-13,-32,-29,-88,-41
36,-63,-55,13,6,10,-23,-37,-81,16
29,-4,-46,14,21,0,-21,-16,-66,45
-17,16,6,65,28,4,-13,0,-38,16
-62,36,100,116,21,-2,1,14,-11,-33
0,35,116,114,-8,-10,-2,14,-16,-39
66,-20,47,60,3,-4,-2,13,-25,-27
50,-51,13,-16,17,0,-6,0,-33,-20
36,-53,-20,-125,-4,8,4,1,-33,-5
12,-84,-46,-158,-13,14,9,13,-15,7
11,-31,-28,-88,-8,13,6,17,-3,2
4,40,-1,23,9,0,-16,-4,-17,-19
-24,25,22,83,18,-16,-38,-34,-55,-43
-23,-61,25,59,15,-26,-33,-31,-70,-37
0,-95,5,22,6,-22,-9,-13,-51,-23
16,91,-6,7,10,-5,11,1,-15,-7
14,224,15,20,20,0,10,8,-8,2
3,117,26,41,12,-3,-15,1,-31,-5
-4,-13,1,26,-7,-17,-32,-23,-34,-13
-7,-69,-28,-1,-14,-14,-34,-9,-25,-7
-5,-72,-34,0,-10,-12,-28,-7,-27,-4
-1,-53,-28,3,-3,-10,-14,-13,-5,-1
0,-32,-32,12,2,-1,-13,-14,-4,-14
-3,-37,-37,-1,-2,4,-2,-24,-12,-17
-30,-65,-25,-2,-7,0,-12,-16,-14,-23
-41,-57,2,15,-3,-12,-23,-13,-27,-41
-23,79,41,38,9,-6,-15,-5,-17,-17
-22,165,63,36,9,8,-3,9,-3,-12
-13,29,18,3,1,1,-10,15,-4,-24
-12,-56,-25,-7,-7,3,-1,11,7,-38
5,-32,-25,-9,-2,-10,-8,3,4,-26
30,-9,-16,-3,9,-13,-6,2,7,-8
34,-2,-26,0,24,-12,-22,2,-7,-9
36,4,-20,2,31,0,-12,-8,-8,-14
9,-24,-16,-3,16,2,-5,-6,4,2
-12,-52,-35,9,16,-5,-7,-17,0,36
-64,-45,-42,24,40,10,-3,-18,-10,26
-107,0,-15,45,39,14,4,-20,2,-15
-48,42,10,24,5,5,6,-17,8,-41
14,52,4,-14,-14,17,7,-19,-14,-22
13,7,-28,-39,0,4,-2,-13,-34,-22
-1,-73,-53,-8,11,-18,-4,-9,-3,-47
18,-92,7,72,-1,-14,-9,14,13,-34
4,-71,49,109,21,13,0,4,-8,-25
-16,-22,46,97,50,30,14,-16,-20,-34
-39,6,58,40,-6,12,25,-12,4,5
-53,5,59,-40,-62,-7,29,-2,42,100
-4,21,12,-174,-128,-47,-31,-33,48,183
5,81,-40,-236,-152,-81,-93,-73,9,106
0,131,-7,-178,-142,-56,-56,-26,1,5
54,118,50,-101,-171,-42,23,59,55,33
133,97,46,-63,-170,-42,45,104,94,81
136,45,83,-1,-28,23,59,105,84,92
46,-23,98,47,123,88,78,60,42,28
-22,-81,14,73,161,88,85,42,20,-15
-42,-98,-10,150,138,79,55,35,24,-30
-70,-52,-10,245,112,42,16,0,6,-62
-103,-66,-50,192,77,-19,-31,-61,-59,-106
-79,-70,-88,-32,40,-49,-56,-77,-72,-103
-33,-30,-83,-193,24,-34,-38,-37,-27,-44
13,10,-17,-135,26,0,5,4,17,8
42,40,22,49,-7,39,39,34,55,34
53,61,34,212,-7,33,40,43,64,39
38,52,62,198,-2,18,38,32,42,27
38,1,105,-36,-36,18,33,24,23,28
53,-22,96,-257,-69,13,35,27,30,37
70,40,30,-317,-115,-2,20,32,60,62
83,111,-86,-202,-115,-12,12,46,69,91
49,103,-174,-92,-49,-8,11,14,51,68
-54,19,-99,19,24,-16,-8,-50,-22,-27
-92,-26,-50,71,66,3,-6,-52,-57,-73
-47,51,-5,62,56,19,5,-18,-27,-44
-8,1,29,24,38,10,0,-4,-13,-37
15,-32,48,2,5,0,-21,-22,-16,-37
42,49,24,8,-9,-13,-22,-30,-40,-8
66,100,10,17,-15,-28,-26,-23,-33,22
33,87,37,30,-29,-34,-15,-10,3,25
-8,6,57,52,3,-20,-5,-4,27,9
-28,-89,52,87,45,14,10,1,18,-12
-36,-163,25,86,53,27,18,7,17,-22
-43,-198,-30,42,43,12,27,8,19,-17
-62,-302,-89,19,37,22,40,25,28,6
-135,-517,-114,21,42,47,57,50,48,12
-136,-372,-98,0,18,34,35,18,15,-23
-46,-12,-21,-26,-35,-22,-28,-39,-37,-26
30,387,52,-24,-71,-56,-52,-56,-31,-5
75,672,64,10,-34,-9,-16,-15,3,-1
82,640,62,46,55,36,13,10,14,-12
16,217,24,59,93,42,1,12,-7,-37
-23,-168,-10,36,70,5,-2,-6,-29,-44
-13,-192,-12,13,33,0,-4,-12,-21,-30
-16,-134,-20,2,21,7,-2,-8,-27,-44
-27,-93,-12,6,26,0,16,-8,-21,-50
2,-49,6,-14,-7,-10,23,1,-5,-27
18,-36,11,-2,-36,-11,3,2,1,-11
17,-34,3,-13,-54,-7,-6,15,27,2
18,-20,9,-15,-54,-2,25,33,24,8
30,-7,18,19,-73,-5,43,36,40,59
76,9,21,27,-100,-11,46,40,74,147
24,52,39,42,-40,5,10,15,62,95
-72,93,49,21,50,20,-5,-4,9,-55
-43,9,19,-83,47,15,-5,-17,-5,-103
46,-33,-2,-177,-20,-7,-14,0,0,-42
96,59,-21,-196,-54,-6,67,58,65,62
32,176,-35,-141,-55,-5,53,51,94,74
-17,54,-61,-59,-45,-28,-39,-15,36,37
-37,-77,-29,57,28,3,-60,-42,-61,-12
-55,-105,-24,96,57,15,-75,-59,-98,-10
-19,-99,-17,51,33,-1,-97,-44,-70,45
2,-46,31,40,6,-19,-82,-22,-27,22
5,-11,35,40,5,-21,-69,-3,-7,-10
23,2,20,39,7,-22,-36,14,17,46
37,13,22,41,7,-16,-9,11,18,40
-8,-10,-29,5,10,4,18,-8,-29,-30
-14,-3,-41,7,10,15,25,-2,-33,-75
23,37,3,35,10,9,14,9,-8,-28
55,48,23,39,-4,-13,-8,24,-18,52
63,29,33,25,12,-24,-9,8,-17,90
34,-9,26,2,28,-4,1,-23,-26,18
-21,-16,17,-2,31,17,1,-20,-34,-54
-38,-22,-7,-14,18,20,3,-15,-32,-69
-32,-37,-49,-29,-6,9,-1,-5,-23,-64
-22,-30,-46,-18,-8,6,15,14,-8,-37
15,-3,-10,-13,-10,3,9,9,-4,-12
17,19,9,-7,-7,-2,0,6,11,2
-18,-4,22,20,17,4,-7,-5,-1,11
-43,-29,32,37,35,-5,-23,-23,-30,-5
-38,-44,0,40,35,-6,-16,-31,-30,-33
41,-44,-5,49,39,0,-2,-22,-15,-9
84,-23,0,33,19,-3,1,18,16,24
30,-3,-11,37,23,0,-3,13,1,10
-58,-34,-72,-57,-12,-42,-56,-64,-76,-31
-102,-55,-100,-102,-24,-54,-70,-85,-95,-30
-126,-24,-37,-2,-8,-18,-15,-28,-18,-37
-58,9,7,116,-13,40,60,30,38,-26
39,25,21,252,-16,79,128,76,71,6
73,172,76,275,-21,58,117,74,77,30
48,138,65,29,-32,27,63,41,67,33
13,-28,-2,-303,0,17,2,23,66,14
48,-28,-8,-463,-52,-9,-36,23,69,25
97,44,79,-368,-123,-43,-29,58,94,62
79,48,81,-122,-96,-39,-6,64,74,55
23,2,-40,49,0,9,49,36,24,-16
18,-32,-74,113,64,51,73,19,-6,-72
147,-7,-16,87,65,53,54,21,-4,-48
251,13,0,69,57,54,49,-4,-31,-31
122,18,-15,79,41,33,34,-44,-53,5
-3,30,14,79,-29,-18,-27,-54,-35,64
-75,13,24,94,-62,-66,-108,-52,1,84
-233,-28,6,141,63,-46,-129,-88,-52,-37
-306,-57,-22,101,123,-9,-61,-66,-68,-77
-278,-37,4,57,77,11,9,12,-21,-85
-244,-44,12,43,21,21,66,40,19,-139
-196,-86,-39,-1,2,24,87,20,4,-148
21,-53,-53,-36,-10,7,25,1,9,-32
150,26,1,-87,-76,3,-13,0,38,77
115,45,34,-141,-95,-4,-48,-6,66,101
91,25,29,-147,-85,-45,-96,-66,33,213
163,45,14,-162,-132,-102,-104,-91,17,288
98,79,54,-72,-103,-50,-31,-6,38,167
-16,54,57,-29,-32,23,72,55,29,-1
13,23,0,-43,-2,52,101,76,-2,-122
65,23,-31,-47,-27,6,64,83,0,-107
29,-8,-16,21,27,15,72,79,8,-55
-69,-77,-36,89,100,37,181,55,-8,-59
-89,-82,-34,89,114,33,173,19,-23,-79
-57,-50,-11,60,76,29,30,-13,-57,-79
2,-33,-11,10,23,-14,-120,-24,-33,-9
25,-4,-30,-32,-19,-35,-159,-10,4,35
25,-12,-49,-37,-27,-59,-180,-37,-21,15
54,-16,-21,-7,-25,-84,-191,-71,-39,62
50,-34,10,52,-13,-55,-169,-94,-51,102
-3,-75,-11,3,-39,-71,-112,-80,-40,0
-63,-75,-37,-27,-46,-76,-56,-51,-36,-65
-72,73,-24,22,2,-64,-81,-46,-58,-59
-74,236,29,170,109,-13,-66,-13,-34,-37
-77,154,59,417,197,62,-4,-6,-5,-33
-3,32,72,491,161,68,39,5,14,9
40,-85,73,332,85,70,47,9,-14,26
1,-120,39,36,72,107,77,-26,-86,-25
-18,-78,-20,-345,10,112,122,-6,-104,-50
73,10,-27,-537,-122,74,121,48,-39,20
116,52,-22,-466,-223,17,71,77,43,97
77,8,-53,-317,-239,-46,18,63,82,104
24,-61,-69,-188,-172,-56,3,46,68,46
-19,-75,-79,-111,-95,-89,-61,-3,-4,-47
-51,-26,-42,27,40,-88,-106,-47,-73,-121
-10,51,63,245,158,-26,-74,-24,-73,-67
41,72,148,397,156,13,-26,10,-22,36
59,72,144,414,112,30,-7,24,3,96
-32,-6,69,231,62,39,14,23,-15,35
-96,-92,-29,-134,-20,34,38,20,-12,-28
-63,-127,-83,-400,-101,25,58,32,8,-1
28,-121,-52,-415,-188,15,83,69,64,78
47,-102,2,-228,-229,-5,88,111,87,79
22,-27,8,-32,-106,-21,43,68,54,15
24,94,-3,16,25,-12,0,-4,-11,-32
32,108,-24,-21,80,12,-17,-24,-21,-46
30,101,-38,-14,83,1,-24,-26,-6,-29
15,114,-25,69,42,-14,-32,-29,-8,12
-14,46,12,144,37,-25,-63,-75,-51,9
-39,-5,20,180,56,-22,-57,-81,-87,-24
-55,-35,18,201,62,-24,-41,-51,-85,-42
-73,-56,-2,148,70,-29,-29,-16,-61,-90
-67,-61,-26,79,70,-20,41,29,-35,-99
-50,-31,-23,20,80,22,113,26,-25,-71
-38,-17,-11,0,103,68,114,-12,-41,-49
-18,-55,-37,-11,86,84,72,-37,-50,-35
-3,-109,-70,48,70,29,-3,-44,-23,-47
-53,-161,-116,52,16,-74,-161,-108,-94,-139
-6,-77,-53,-68,-89,-137,-255,-83,-80,-19
112,77,89,105,-72,-46,-149,28,56,177
92,152,158,384,-60,13,-13,74,124,191
30,144,105,341,-99,45,61,82,102,109
85,87,44,-129,-139,46,91,93,113,111
110,46,-11,-690,-161,10,88,85,124,148
75,54,-5,-874,-234,-53,37,58,118,132
75,89,45,-619,-235,-98,-52,3,83,70
-30,4,4,-108,17,-39,-63,-43,-6,-66
-59,-90,-66,189,149,18,-4,-24,-29,-86
-24,-85,-121,203,125,36,46,22,-5,-24
-37,33,-112,139,98,26,41,21,-26,-43
-107,70,-71,106,102,-8,-18,-61,-111,-130
-119,-16,46,206,117,0,-33,-86,-133,-143
-48,-46,144,346,146,46,-6,-51,-66,-80
44,55,132,356,118,62,15,-20,-7,-12
31,95,30,194,81,65,27,-22,4,-26
-36,25,-66,-84,72,63,50,-20,-9,-72
-54,-63,-85,-248,67,37,118,4,-4,-61
-18,-124,-62,-238,4,6,164,28,23,-20
-55,-141,-38,5,11,-56,-1,-19,-31,-69
-83,-87,30,236,64,-43,-106,-5,-54,-114
18,37,85,241,18,6,-50,93,24,-57
83,94,54,118,-6,61,43,144,100,-14
20,27,9,5,-28,81,65,98,75,-50
24,-4,-38,-196,-142,59,88,51,55,-48
125,56,-29,-364,-279,-13,126,41,102,62
202,77,38,-353,-324,-91,77,25,129,216
159,35,93,-153,-208,-92,-63,-44,103,332
75,-36,28,7,-61,-104,-183,-120,71,411
-33,-58,-47,91,20,-108,-178,-123,27,291
-117,-33,-54,154,94,-35,-92,-35,-16,37
-55,2,-40,105,72,-23,-41,11,-14,-61
57,48,-19,46,37,-18,-17,16,5,-32
-33,32,-3,14,58,45,22,7,-4,-87
-122,3,-19,31,82,74,44,-23,-52,-173
-105,14,29,110,93,44,20,-44,-72,-175
-78,10,51,143,84,-24,-31,-50,-73,-133
-84,-33,20,80,55,-47,-61,-60,-75,-84
-75,-43,13,158,116,11,-14,-42,-51,-54
-73,-141,-14,236,135,70,24,-20,-17,-25
-75,-289,-69,234,135,126,74,-2,-22,-24
-39,-107,-87,118,96,93,48,-13,-27,-30
-8,219,-34,-155,-16,-1,-5,-35,-17,-57
122,406,63,-454,-230,-69,18,58,77,31
271,332,80,-590,-406,-112,75,185,227,193
216,49,13,-347,-338,-85,102,209,272,208
77,-123,-36,-72,-127,-17,90,134,179,84
-30,-149,-30,50,101,67,52,2,1,-61
-127,-216,-26,142,264,74,-4,-106,-151,-160
-138,-185,-50,127,288,43,-39,-113,-167,-161
-26,72,35,227,239,61,-1,-46,-49,-47
55,107,110,403,168,82,42,-11,-18,-47
83,-29,94,352,60,80,125,-1,-32,-51
21,-159,43,95,-38,42,94,-15,-42,-48
-22,-118,14,-154,-73,-6,-5,-21,-21,15
45,124,5,-229,-92,-24,-44,-2,28,137
29,399,-16,-129,-35,-34,-72,-42,4,124
-181,204,-98,12,87,1,-57,-37,-44,-86
-259,-179,-155,48,162,34,-68,-56,-74,-180
-263,-259,-140,124,173,15,-82,-124,-123,-176
-154,-134,-59,174,77,-5,15,-64,-62,-86
28,32,109,134,-131,23,157,119,89,-1
132,122,219,100,-108,98,186,176,122,3
28,-15,77,-11,122,141,57,35,-7,-98
23,-97,-86,-329,54,43,-72,-80,-89,-151
184,16,-105,-589,-295,-139,-157,-47,17,0
332,120,-27,-539,-525,-248,-184,37,153,289
356,183,66,-281,-538,-249,-107,150,242,457
250,88,12,-37,-306,-249,-109,106,240,531
-35,-119,-63,225,34,-184,-121,-19,69,361
-423,-265,-57,425,358,3,-133,-152,-195,-89
-296,-28,60,532,358,181,3,-65,-130,-213
74,355,108,511,85,146,107,27,25,-75
190,460,82,245,-86,42,102,44,47,-34
113,228,55,-140,78,-5,-12,-55,-65,-76
-292,-305,-28,91,543,-43,-233,-345,-342,-303
-681,-731,-220,520,915,-132,-457,-597,-625,-564
-668,-652,-337,669,868,-73,-377,-484,-602,-603
-484,-373,-225,1035,697,202,-61,-195,-393,-466
-289,-239,-112,835,413,386,198,42,-132,-290
-116,-202,-79,-191,-83,339,300,149,9,-187
240,57,-18,-1395,-877,78,378,283,223,125
933,663,362,-2196,-1873,-200,494,642,713,756
1361,895,909,-1701,-2002,-205,605,878,1045,1180
1148,560,864,-690,-1106,-76,483,707,877,1066
858,340,254,-696,-522,-88,277,560,720,966
489,179,-362,-733,-142,-120,31,322,494,736
-188,-142,-571,-78,410,-49,-289,-170,-93,-27
-599,-276,-325,587,587,-25,-449,-467,-510,-627
-383,-174,-87,752,513,-63,-446,-468,-527,-586
-275,-202,-128,582,475,45,-237,-369,-465,-463
-211,62,-120,377,277,60,-14,-124,-257,-263
-2,892,113,332,179,27,12,-11,-96,-31
-68,704,212,322,212,11,-61,-111,-206,-111
-438,-406,30,241,229,3,-87,-169,-290,-273
-483,-657,-12,214,197,33,-30,-68,-132,-203
-332,-527,-2,291,293,78,5,-13,-36,-113
-303,-608,-109,305,306,87,37,2,-43,-145
-278,-489,-97,345,227,8,0,-17,-67,-161
-90,-17,12,356,145,-52,-27,-45,-72,-122
-20,141,-51,167,131,-55,-103,-145,-180,-180
-98,-109,-191,-77,39,-59,-122,-161,-219,-231
-46,-132,-154,-170,-50,-19,-31,-53,-100,-141
96,-7,-94,-131,-73,54,97,100,71,57
190,90,-71,-103,-121,85,178,163,157,147
89,119,48,-52,-249,9,127,59,71,27
-84,161,237,75,-257,-34,176,-1,23,-52
99,395,466,42,-152,-14,213,178,143,173
462,497,472,-296,-134,-44,26,259,271,474
262,114,8,-552,-12,32,-74,61,116,142
-74,-227,-349,-438,114,83,-71,-124,-137,-317
-32,-196,-257,-64,31,35,-55,-109,-132,-280
203,-17,-52,157,-135,-26,-36,-55,-22,60
447,131,-4,108,-231,-100,-83,-46,104,468
220,101,-34,74,29,-82,-165,-98,17,342
-4,117,-55,34,245,-80,-191,-137,-109,106
104,207,-49,234,272,-82,-216,-152,-132,11
149,175,60,526,225,-28,-139,-85,-68,-62
89,89,185,420,160,-5,-107,-67,-42,-22
-83,-156,-9,-229,102,66,-77,-56,-74,-30
-300,-370,-245,-660,1,58,-25,-25,-72,-96
-384,-345,-173,-381,-101,27,67,44,19,-68
-642,-423,-211,156,257,125,67,-23,-68,-263
-1034,-714,-493,386,652,96,-105,-300,-387,-645
-852,-1154,-701,52,144,-332,-206,-235,-294,-511
-86,-757,-289,239,-537,-481,-40,156,139,40
454,53,306,780,-520,-194,124,323,358,356
613,747,637,377,-380,215,363,421,458,466
484,1208,645,-583,-367,379,472,427,451,417
427,1046,560,-1308,-739,274,511,511,566,464
311,458,468,-1021,-832,27,343,384,506,405
81,-95,300,-266,-163,-78,18,38,190,114
-36,-52,98,238,615,44,-203,-249,-204,-204
-166,97,-206,375,1064,101,-347,-453,-508,-474
-268,-223,-469,463,1069,40,-396,-483,-559,-512
-118,-229,-417,512,450,-76,-209,-255,-335,-255
80,101,-267,450,52,34,66,39,-34,-14
71,63,-242,215,55,175,145,104,18,-45
227,35,-159,-327,-65,126,61,7,-61,-40
327,20,-73,-788,-336,13,3,-40,-63,79
396,64,206,-799,-919,-144,140,164,185,295
309,196,563,120,-823,-203,255,231,309,397
-23,-152,603,885,33,-30,111,1,123,263
-166,-508,422,330,143,146,108,105,208,231
-230,-463,-35,-307,-301,84,160,278,303,106
-161,-47,-192,-101,-448,-127,-40,174,223,-2
-215,167,-140,274,45,-126,-147,-12,20,-118
-347,345,-76,506,808,-20,-147,-269,-313,-334
-407,543,-108,529,1048,11,-237,-483,-586,-470
-428,-78,-263,365,798,2,-252,-439,-609,-463
-292,-488,-265,384,524,94,-2,-261,-441,-382
0,-272,-130,50,27,83,71,-5,-130,-185
384,78,-1,-673,-650,-68,-15,277,261,119
731,389,16,-1348,-1207,-66,140,538,642,520
717,406,-16,-1444,-1252,116,318,554,705,566
283,66,-4,-519,-421,324,262,261,354,248
-65,-167,-76,226,249,234,124,-17,58,85
-120,150,-49,395,430,4,-75,-178,-92,97
40,391,100,454,303,-214,-252,-273,-192,9
171,15,76,300,125,-270,-290,-286,-261,-198
163,-241,-21,-76,-199,-277,-215,-152,-160,-98
135,-128,13,-247,-435,-303,-190,15,50,149
-24,-34,24,-46,-266,-158,-170,75,142,198
-196,-105,-46,272,153,-105,-238,-40,65,212
-401,-258,-47,389,341,-34,-145,-80,-15,121
-577,-378,-31,310,284,81,14,-71,-57,-106
-410,-177,1,222,214,74,30,-106,-83,-179
-41,326,120,176,248,89,33,-97,-120,-122
174,590,155,117,258,78,7,-80,-188,-156
89,240,15,-109,154,41,55,-17,-121,-183
45,-364,-106,-308,-122,-25,127,120,122,1
-54,-573,-137,-248,-123,-1,118,109,144,20
-132,-363,-60,-115,-48,30,95,47,48,-101
-11,-154,8,-68,-127,4,140,132,138,-22
127,-12,88,22,-144,29,164,200,205,76
68,167,50,149,41,62,116,137,148,9
-84,258,-30,269,404,167,72,-28,-41,-149
-48,390,14,140,446,181,37,-101,-105,-161
235,416,81,-4,116,67,-1,-31,1,63
395,294,168,-25,-128,-26,-57,-62,-24,125
200,163,87,-60,-162,-12,-60,-151,-174,-58
93,-25,-66,-38,-294,-170,-120,-168,-172,-91
58,-174,-96,210,-248,-272,-125,-78,-39,-16
-95,-305,-100,418,210,-73,-94,-83,-23,-107
-37,-381,-202,109,299,106,-32,-97,-75,-199
293,-258,-189,-298,63,56,-39,-109,-105,-85
220,-142,-11,-289,-41,4,-65,-109,-160,-84
29,-6,195,105,-173,-41,-6,16,-33,91
86,319,438,545,-137,-38,42,130,162,389
79,547,510,602,137,23,74,178,231,407
-75,535,137,38,428,244,191,185,195,224
-447,129,-303,-499,383,249,80,-38,-75,-159
-491,-244,-283,-602,-325,-37,-52,-71,-110,-221
-144,-254,-76,-319,-741,-170,32,179,170,169
-236,-417,-107,-195,-360,-178,-50,86,132,187
-638,-742,-171,16,452,1,-119,-158,-158,-206
-730,-644,-304,113,761,186,8,-141,-248,-463
-425,-294,-195,165,443,175,95,-5,-145,-345
54,79,9,360,-8,86,60,45,-80,-218
515,523,145,177,-413,-67,-7,64,11,-115
798,657,127,-435,-917,-288,10,195,242,237
740,274,183,-239,-686,-113,196,316,368,436
331,-69,131,305,170,195,197,130,123,183
7,-20,45,202,242,163,5,-83,-84,62
189,37,-26,-476,-338,-61,-105,-86,-15,316
418,176,72,-982,-968,-371,-148,80,189,521
3,219,250,-492,-386,-214,-135,42,88,239
-361,321,269,40,259,104,11,32,30,18
-554,100,-2,189,489,243,128,6,-39,-165
-429,59,-32,397,550,211,39,-134,-231,-280
-145,15,10,234,249,120,99,-75,-134,-74
-113,-364,-182,54,117,33,225,-13,-51,-100
-294,-770,-397,59,308,29,139,-26,-84,-245
-225,-924,-469,111,323,-110,-110,-113,-177,-320
40,-571,-328,235,331,-186,-329,-159,-196,-260
116,-162,-21,341,270,-91,-336,-110,-126,-141
40,11,189,259,98,44,-180,-16,-46,-51
55,59,304,-32,-427,63,30,142,148,114
266,499,359,-379,-882,81,204,318,369,360
435,758,240,-583,-665,122,221,297,373,478
221,521,1,-359,-78,86,54,64,123,225
-151,244,-252,-64,226,-3,-105,-164,-242,-259
-91,276,-188,186,249,-101,-167,-171,-293,-261
136,388,7,260,181,-180,-148,-92,-105,25
172,212,92,234,75,-169,-62,-52,-16,134
-80,-263,28,110,17,-137,-39,-70,-56,-7
-65,-160,77,89,1,-39,-9,-15,18,56
10,369,176,270,128,134,43,-14,4,30
-96,374,85,402,264,166,-32,-147,-185,-261
4,-114,-23,302,231,77,-126,-234,-281,-335
264,-271,62,108,-1,-100,-155,-144,-154,-97
300,-268,98,-242,-198,-233,-116,8,40,101
240,-247,18,-606,-343,-182,44,191,233,207
151,-213,-77,-671,-302,18,178,250,303,243
-46,-381,-204,-378,-31,124,160,143,199,127
-224,-543,-244,-40,105,162,159,124,129,33
-376,-374,-183,131,155,153,166,108,85,-51
-399,78,-52,197,169,78,81,24,18,-143
-213,507,119,217,139,29,15,-13,-16,-105
-72,541,188,188,102,29,-3,-10,-40,-82
-38,220,105,104,54,-3,-43,-39,-76,-98
-15,-81,18,99,81,-11,-68,-106,-127,-116
7,-162,-15,129,161,24,-48,-115,-145,-121
93,14,40,165,195,68,-15,-84,-138,-92
145,94,49,76,120,32,-13,-63,-90,-42
143,24,-75,-148,-102,-46,-15,2,32,34
126,-12,-128,-282,-303,-118,-33,33,110,83
184,-14,-120,-353,-521,-203,-31,89,207,236
155,-26,-87,-192,-290,-90,23,130,253,342
-22,-123,-86,16,69,26,10,18,85,158
-160,-238,-33,164,186,51,1,-61,-61,-83
-167,-177,20,155,133,53,38,-18,-67,-65
-102,-39,81,90,76,24,11,-25,-55,14
-82,58,228,117,19,-41,-62,-105,-104,-93
-19,172,318,177,-19,-37,-55,-71,-82,-132
76,248,236,206,30,10,17,11,19,-25
67,132,7,215,111,28,9,-14,13,-14
41,-54,-148,15,68,-7,18,4,21,7
-38,-191,-173,-249,-58,-22,51,28,32,-34
-40,-94,-100,-328,-133,9,73,37,60,-38
44,238,-4,-213,-66,53,68,52,92,11
7,110,1,-97,-42,92,66,75,96,8
-58,-54,0,18,13,78,64,79,89,3
-4,-23,-27,-2,12,-7,-8,19,52,11
61,-34,-72,-61,-87,-63,-23,-38,-2,11
16,27,-56,164,71,-13,-31,-68,-63,-27
-76,54,14,508,447,91,-57,-68,-89,-82
-145,-179,-5,436,514,141,-4,-30,-59,-134
-204,-373,-84,184,417,183,33,-64,-95,-191
-174,-268,-36,111,220,121,10,-62,-87,-147
-89,-117,-41,44,-43,-20,-22,-43,-27,-36
6,-17,-116,-234,-424,-188,-50,-50,-3,36
111,123,-106,-368,-545,-368,-132,-75,14,104
333,362,0,-424,-636,-404,-114,-3,134,305
445,458,125,-404,-665,-191,21,60,134,310
380,466,233,-154,-468,75,181,167,122,153
236,415,274,28,-144,183,235,265,202,88
-12,240,331,114,272,272,151,161,117,-43
-131,-35,187,-38,537,285,30,-8,-64,-174
16,-300,-88,-141,348,117,6,-10,-71,-126
168,-416,-214,-163,-137,-159,-15,106,121,182
11,-488,-202,-82,-221,-228,-88,56,144,292
-195,-143,-82,67,21,-82,-103,-70,-49,64
-183,234,-58,7,72,-4,-61,-85,-78,72
-147,97,-93,-85,-22,-21,-42,-82,-47,130
-224,-206,-105,8,15,-20,-50,-78,-48,-37
-262,-295,-57,149,119,29,-20,-46,-72,-123
-90,-158,-24,168,126,25,-25,-35,-67,-101
19,57,-20,129,105,26,-8,-9,-43,-126
57,160,4,73,50,3,5,19,-24,-108
103,266,58,79,50,6,-15,-15,-75,-71
40,226,86,98,57,39,-15,-44,-121,-54
-52,94,60,54,5,-12,-13,-58,-123,-64
-21,209,52,36,19,-18,-11,-55,-109,-35
-2,41,-31,-27,-1,-5,-13,-42,-51,-6
35,-273,-127,-91,-71,-13,7,-8,20,44
121,-224,-72,-14,-30,8,35,34,66,72
82,-127,-5,36,25,14,35,43,28,7
-84,-206,30,100,93,54,42,39,-29,-97
-132,-185,56,127,114,57,37,29,-20,-107
-82,-75,27,65,49,14,32,32,19,-30
-91,11,-11,15,17,2,15,20,30,6
-77,58,-26,-38,-41,-45,-32,-13,2,33
-55,97,3,-75,-124,-109,-53,-26,-45,8
-64,140,43,-4,-68,-61,-29,7,-17,-13
0,45,-29,6,50,0,-20,0,-17,-21
41,-61,-128,-33,89,18,-36,-61,-79,-111
24,-37,-102,48,98,22,-32,-77,-124,-153
205,100,12,245,98,6,-3,9,1,2
302,-11,28,586,187,-81,-87,-38,32,61
43,-137,-14,511,155,-64,-70,-93,-44,-20
-159,-88,53,71,59,56,50,-69,-60,-12
-214,8,87,-479,-88,105,145,-44,-83,3
-100,225,94,-787,-236,72,91,-49,-110,-46
177,309,115,-962,-677,-2,68,134,90,156
245,191,80,-535,-606,-13,156,321,326,358
-25,-80,-90,31,40,41,190,251,265,221
-151,-114,-149,187,258,42,59,92,134,48
-73,-10,-27,292,257,-19,-163,-84,-11,2
-120,9,42,312,279,-71,-292,-203,-163,-119
-224,-117,-5,222,247,-21,-212,-174,-224,-285
-11,-96,17,121,118,4,-55,-59,-116,-152
139,-41,-13,135,67,1,27,-3,-47,-24
119,-31,-85,165,3,-38,-4,-24,-55,-10
169,55,-135,-27,-188,-86,-28,14,39,94
82,-12,-130,-128,-139,-42,-49,-10,28,8
17,-86,-127,-297,-233,-36,7,23,55,-13
48,-39,-55,-293,-355,-32,117,72,98,79
86,128,126,-32,-212,21,75,40,70,139
41,288,273,337,85,49,-7,-35,23,148
-46,178,298,215,94,2,-50,-54,-12,41
23,58,165,-200,8,-25,-27,20,50,44
88,-32,-59,-310,14,70,75,129,115,100
9,-34,-105,-114,29,135,91,86,55,-4
-165,-63,1,155,108,55,-35,-48,-67,-157
-183,-190,15,234,128,-9,-102,-60,-100,-188
-115,-239,-76,146,131,-36,-112,-43,-120,-219
-10,-107,-153,50,136,-22,-94,-64,-114,-180
-13,65,-120,125,133,-32,-59,-108,-114,-133
-52,193,-47,142,107,-68,-63,-115,-120,-25
26,217,38,56,-17,-42,-5,-38,-4,174
118,129,186,199,9,-30,4,-4,26,186
122,32,243,216,50,21,37,35,23,118
111,-84,129,-33,-33,29,45,70,55,93
120,-52,-20,-302,-164,-97,-2,77,100,101
95,-21,-79,-401,-139,-64,30,73,83,18
-152,-123,-202,-450,-208,-7,37,5,-21,-180
-159,-229,-226,-206,-128,84,68,15,-36,-96
119,-290,-162,8,-115,36,79,91,107,290
161,-141,-32,0,-255,-63,19,79,138,250
-66,-42,183,192,-1,0,-15,6,18,-53
-138,74,311,263,273,90,-17,-81,-121,-118
-138,211,164,147,291,142,81,-56,-131,-90
-225,121,-12,251,311,150,207,34,-41,-102
-236,33,-50,337,257,69,106,18,-38,-109
-70,59,-103,110,95,50,18,-1,-38,-101
151,-103,-114,-234,-75,23,-54,-19,-15,-34
169,-95,-70,-440,-160,-70,-142,-40,-3,2
147,21,-14,-461,-221,-91,-110,-10,36,38
124,98,15,-315,-221,-84,-21,35,91,107
30,96,-37,-25,-104,-40,-1,21,54,98
-59,30,-57,100,-36,-8,-2,5,8,20
-137,-111,-9,129,-27,11,-4,3,-15,-59
-97,-170,34,229,132,32,-32,-32,-52,-95
-11,-113,-11,145,104,-28,-47,-4,-8,-40
-1,-92,-97,44,19,-73,-35,30,51,11
-1,-15,-31,86,68,-50,-31,-5,9,-18
-34,54,95,217,179,21,-22,-81,-98,-111
-38,22,122,197,260,84,-2,-105,-131,-158
83,59,96,-10,87,43,9,-21,-19,-40
163,170,79,-267,-182,-22,26,37,43,44
197,287,86,-209,-240,-12,54,72,38,77
161,259,105,-8,-178,-2,26,56,33,59
76,-40,36,-30,-203,-10,41,59,38,42
-54,-218,-70,4,52,9,25,19,28,109
-119,-213,-118,81,256,-8,-6,-48,0,119
-94,-103,-75,127,152,-60,-10,-23,18,93
-79,57,-14,123,27,-69,-40,-7,41,50
-32,100,26,82,-36,-32,-63,-23,-6,-16
22,-16,-26,-38,-100,-3,-48,-9,-3,-36
16,-88,-30,-148,-159,7,-2,43,43,-33
-12,-69,-24,-211,-165,27,35,47,18,-57
14,87,-13,-102,-23,18,20,-6,-16,-35
30,253,5,62,80,5,6,-26,-18,60
47,354,11,56,92,6,-13,-37,-39,138
29,189,-31,-18,93,19,-6,-70,-86,8
4,29,-42,-68,-1,-40,-35,-35,-40,-68
28,-20,-34,-19,-44,-96,-60,-31,11,-19
94,-21,-19,77,-14,-47,-5,-1,31,18
119,-119,-20,45,-57,7,66,75,79,17
-9,-416,-2,65,13,70,81,92,69,-47
-144,-506,43,106,122,101,64,47,8,-113
-140,-332,59,84,148,79,46,22,-10,-137
12,8,47,-37,38,47,34,23,14,-123
74,297,16,-83,-49,9,4,11,45,-22
14,445,4,1,14,10,32,27,72,120
-200,40,-74,23,90,64,64,24,29,98
-379,-369,-95,73,147,65,32,-23,-52,-13
-294,-246,-40,105,99,-37,-76,-85,-79,-41
37,143,66,43,-28,-117,-125,-81,-30,-6
286,449,111,-46,-71,-75,-51,-29,5,-10
156,274,-55,-157,-58,32,39,-43,-79,-139
171,99,-123,-114,-179,-59,23,-29,-47,-63
247,69,40,222,-95,-81,23,69,91,97
233,85,162,260,65,38,49,85,133,88
389,93,184,16,-2,43,33,46,119,128
318,-24,70,-128,-35,40,27,-18,40,107
7,-213,-6,-125,-18,7,5,-42,-11,2
-141,-376,-57,-201,-198,-31,24,46,71,126
-174,-442,-28,-71,-186,-46,-2,73,164,302
-444,-382,-24,152,105,-10,-61,-25,50,91
-689,-290,-100,152,176,70,-21,-56,-52,-251
-578,-51,-109,-3,118,62,-7,-51,-54,-246
-296,80,-95,-163,124,20,-38,-76,-87,-166
-12,440,-29,-223,70,2,-18,-8,-21,-32
80,702,72,-166,20,60,62,64,53,43
-15,307,-2,-4,-6,40,59,32,39,-66
55,-100,-35,118,-147,-45,11,20,32,-96
274,-133,106,156,-226,-46,19,64,100,52
326,-18,172,174,50,53,73,88,141,109
205,-19,126,118,128,47,57,20,54,32
167,-4,95,45,15,-10,29,10,23,51
85,-51,52,113,26,-67,-24,-12,-33,15
-9,-119,-61,90,-79,-96,-30,-37,-79,-72
13,-89,-86,-39,-201,-85,2,12,-2,-41
15,-111,-110,-144,-12,21,32,25,31,-13
-13,-108,-111,-251,76,37,21,-8,-1,-37
36,133,-2,-274,33,36,1,-2,-3,-7
98,591,86,-148,25,65,8,-11,3,44
33,561,78,82,76,51,-20,-64,-50,-4
-54,19,-14,106,-18,-9,-49,-72,-70,-17
-68,-252,-49,30,-171,-67,-57,-39,-58,-6
-28,-213,-32,16,-154,-70,-26,13,-5,7
-7,-135,9,71,60,-42,-17,29,5,-9
17,-76,23,75,154,1,-9,4,-30,-24
108,-27,4,10,98,20,3,3,-25,10
126,-27,-45,-34,33,10,11,16,28,60
44,11,-65,-25,5,1,-11,-26,-12,7
30,36,-64,-15,-17,-30,-26,-33,-50,-31
74,26,-29,-3,-54,-104,-29,3,10,48
26,30,31,98,48,-24,-21,-44,-53,0
-47,-31,40,114,155,58,-33,-91,-127,-70
-90,-101,-21,61,81,12,-42,-39,-70,-28
-133,-46,-13,55,13,-49,-64,-17,-50,-14
-143,57,74,35,-18,-3,-58,-1,-39,0
-155,-78,99,-14,1,95,40,61,43,-44
-188,-246,71,-51,49,109,66,71,18,-132
-38,-194,1,-119,-28,21,4,20,-8,-55
145,63,-75,-198,-176,-82,-22,30,52,144
196,239,-52,-223,-278,-141,-33,41,96,370
101,176,27,-125,-195,-82,-4,49,86,258
-101,-93,60,20,31,85,101,88,46,-1
-169,-293,18,115,173,139,105,62,-3,-104
-49,-99,-28,95,131,68,36,0,-53,-96
40,41,-65,79,58,32,0,-20,-64,-58
10,-114,-82,94,44,14,-2,-10,-35,-36
-23,-133,-56,49,38,-1,-34,-19,-41,-46
2,38,6,8,30,-7,-44,-59,-63,-53
38,255,50,17,2,-28,-54,-80,-62,-29
30,286,82,57,0,-33,-50,-86,-68,-13
27,102,70,86,42,12,-1,-5,-26,19
-52,-136,-53,76,103,17,-25,41,-36,-16
-119,-142,-128,36,94,-20,-73,-24,-78,-106
-43,98,5,160,55,-31,-36,-30,-58,-65
-2,88,86,375,163,-38,-49,-63,-77,-43
-81,-125,-48,179,112,-51,-60,-107,-114,-97
-81,-171,-117,-12,38,-38,-54,-61,-58,-69
92,-43,-70,-202,-111,-23,-7,39,48,55
132,7,-68,-415,-286,7,72,62,56,69
143,76,-52,-538,-407,-9,89,112,114,138
188,155,59,-253,-150,-18,52,104,130,205
166,154,125,-136,22,0,6,14,57,139
96,120,75,-112,36,32,18,1,42,44
66,130,50,30,33,56,41,39,59,18
60,103,98,94,-141,43,63,72,85,28
41,4,69,42,-259,0,52,53,37,-50
-19,-39,4,19,-68,-4,12,1,-19,-124
-52,-22,-25,29,113,16,3,-16,-28,-102
101,40,-19,32,117,19,13,-3,-8,-34
243,45,-4,49,94,-6,-10,-13,-5,31
156,-216,-89,55,99,9,-6,-26,-3,45
7,-340,-140,43,90,19,-6,-18,-3,59
-71,-195,-80,27,34,-39,-31,-36,-11,48
-82,-142,-28,16,-9,-70,-46,-63,-39,67
-189,-98,37,29,-41,-63,8,-40,-26,94
-412,-20,41,51,31,42,90,9,-9,12
-469,-27,13,42,62,80,49,20,-10,2
-427,-10,25,78,103,82,-2,-11,-48,-30
-315,153,47,110,159,82,-50,-24,-62,-103
-120,182,64,105,119,25,-69,-17,4,-34
-49,0,94,113,52,13,-38,-20,7,-42
79,6,75,97,11,2,-37,-81,-90,-144
227,112,6,63,-31,-30,-50,-89,-122,-206
254,77,-37,97,-39,-81,-63,-61,-61,-114
141,-80,-72,111,31,-70,-63,-9,5,-24
112,-66,-45,0,-26,-39,-4,58,74,60
122,82,0,-209,-141,-2,54,84,111,122
72,119,-33,-420,-229,-20,87,88,130,109
71,62,-8,-392,-252,-35,102,109,157,123
9,10,32,-187,-146,-12,81,78,102,62
-58,-42,33,57,73,38,70,16,0,-39
6,-41,-13,154,207,82,39,-23,-53,-70
110,63,-55,152,155,61,14,4,-17,-36
111,80,-61,144,76,32,-1,18,22,-35
120,84,-39,113,21,13,-30,21,53,-26
140,129,-22,14,-53,-34,-52,0,41,10
101,110,42,-31,-21,-31,-54,-69,-35,-36
26,-82,104,-53,28,5,-18,-73,-70,-104
6,-250,81,-128,-85,-53,5,-13,-6,49
-85,-304,17,-126,-107,-63,20,43,81,169
-302,-372,-77,-101,-12,23,70,68,98,35
-306,-178,-93,4,66,53,51,24,36,-34
-137,68,-80,126,73,27,6,-31,-2,84
26,391,-13,201,48,-36,-24,-35,21,127
19,424,106,232,75,-19,-21,-25,-8,-1
-14,136,134,177,107,78,42,9,-3,-78
-12,-261,28,-14,61,102,43,28,3,-74
9,-391,-82,-168,-11,58,4,5,-14,-68
30,-188,-73,-119,-94,-21,-28,-23,-25,-52
44,106,-19,123,-22,-84,-86,-65,-57,-40
21,228,23,259,96,-75,-80,-83,-83,-66
17,104,-12,134,63,-11,-7,-21,-25,-37
23,84,-29,-48,34,48,39,7,12,-26
46,165,9,-342,-119,28,48,33,52,16
151,327,107,-496,-346,-36,82,111,170,149
166,256,124,-273,-234,-36,71,110,183,170
99,74,37,-65,5,32,58,71,120,74
11,-70,-47,129,235,76,27,13,43,-17
-76,-136,-48,198,338,74,-15,-35,-35,-87
-99,-160,-68,105,186,28,-11,-27,-32,-63
-71,-74,-78,73,30,9,36,-36,-40,-55
-15,170,-29,91,-80,10,18,-92,-101,-80
49,196,-65,-115,-358,-106,-96,-117,-118,-20
87,83,-43,-204,-502,-214,-153,-56,-59,63
90,-29,95,72,-89,-153,-158,-19,-17,67
83,-198,142,213,162,-5,-81,39,31,106
11,-285,87,210,204,73,32,118,102,140
-63,-175,68,152,209,121,80,150,90,27
-210,-296,29,92,273,180,80,48,-22,-133
-263,-436,-15,87,233,133,56,-16,-46,-148
-58,-128,21,84,42,-11,5,-5,-14,-36
105,211,50,7,-67,-40,-2,-30,-67,6
0,196,-50,-127,-30,17,15,-45,-90,-44
9,122,-99,-296,-158,-49,-23,-20,-20,27
65,31,-127,-349,-317,-123,-27,24,30,84
173,-26,-94,-227,-322,-49,25,75,77,176
250,17,-31,-59,-130,-13,37,58,83,181
196,76,-15,68,69,-36,-20,-16,-1,37
112,75,4,82,125,-42,-78,-81,-69,-7
85,98,22,99,95,-57,-91,-96,-95,29
-29,41,0,143,115,-10,-58,-87,-131,-57
-112,-46,-10,151,99,25,-29,-70,-127,-172
-65,-7,-8,61,-12,5,8,-18,-63,-134
-29,270,82,-13,-75,-23,34,19,8,-21
-133,369,107,-64,-46,25,24,65,60,47
-219,178,36,-107,-27,38,-7,36,61,41
-266,-190,-57,-152,-82,0,-20,29,31,-29
-396,-609,-81,29,41,36,27,53,13,-114
-372,-669,-43,274,207,67,59,47,-9,-104
-76,-406,-32,279,172,23,32,13,-51,-32
157,-130,28,146,45,-14,25,-15,-63,-8
131,23,38,-40,4,32,101,-42,-76,-44
65,100,0,-160,57,70,112,-15,-66,-70
156,203,34,-151,87,53,0,0,-29,-57
260,161,-11,-123,31,25,-101,-50,-49,-47
181,113,-69,-52,-72,-24,-141,-57,-10,51
57,113,-67,16,-64,-68,-132,-17,58,212
-66,211,-61,49,-28,-71,-103,-41,-9,140
-220,152,-62,-39,-132,-118,-72,-58,-90,-49
-232,-40,-65,-10,-62,-125,-73,-64,-88,-148
-136,-72,-48,196,142,-46,-64,-47,-25,-132
106,-16,-12,117,-18,-56,-46,5,48,-15
343,139,134,-74,-284,-32,64,113,114,6
389,237,234,-167,-186,61,155,153,144,63
334,171,185,-353,-99,87,148,136,169,211
178,120,31,-518,-171,87,132,134,166,301
-60,92,-13,-220,-63,25,23,7,43,265
-332,7,5,236,146,-36,-132,-170,-137,70
-402,-162,-42,374,232,-27,-132,-159,-161,-158
-203,-234,-55,283,155,-4,-58,-63,-93,-189
21,-215,-59,79,31,0,13,7,2,-115
138,-95,-58,-88,-28,6,39,34,51,-28
53,48,-25,-108,-35,24,44,23,26,-50
16,69,22,-72,-80,-8,51,23,40,-28
29,-68,7,45,18,-15,14,2,25,-8
-43,-193,-13,105,144,57,16,-11,-14,-57
-67,-177,-15,82,131,70,35,11,0,-46
-7,-85,-3,88,196,62,46,29,27,-20
37,-6,-2,83,159,46,60,50,42,19
24,89,-12,44,17,-10,63,81,103,82
-56,46,-19,47,-61,-44,37,3,60,2
-62,41,11,-13,-178,-20,5,-41,-5,-55
67,394,107,-124,-381,-36,36,11,18,22
65,509,151,-23,-136,0,22,-26,-13,-16
-34,238,0,-44,69,47,0,-83,-57,-112
38,81,-75,-110,-20,-31,-55,-66,-14,-44
90,-79,-83,-70,-51,-105,-80,-9,62,36
56,-155,-75,-8,0,-68,-37,32,95,57
40,-149,-29,77,131,44,25,62,81,24
9,-136,34,177,244,78,19,1,-14,-62
-51,-139,62,186,170,35,-21,-67,-107,-134
-58,-266,6,58,69,15,4,-35,-71,-57
-55,-416,-83,-36,-8,37,38,6,19,131
-44,-251,-100,-37,-92,28,33,7,18,171
4,204,-19,-53,-305,-65,-1,18,19,95
48,327,122,3,-305,-133,-35,16,60,36
0,203,172,112,-19,-29,-9,33,40,-59
-62,30,82,31,122,104,67,76,36,-70
-72,-112,-33,-20,154,139,88,71,22,-13
-6,-112,-35,-15,88,39,7,-15,-36,26
25,-60,15,-37,17,-72,-68,-82,-90,26
-1,-22,20,-16,95,-63,-117,-145,-137,22
46,12,-35,-50,140,-10,-105,-138,-146,-47
153,70,-156,-240,-11,-14,-43,-27,-39,-17
184,258,-128,-326,-226,-62,0,74,45,55
118,355,-22,-172,-260,-64,14,76,42,68
80,297,84,-43,-192,-17,33,70,35,53
50,0,70,32,-25,47,69,89,50,45
23,-299,-53,16,87,55,47,37,23,-56
-92,-339,-67,44,89,15,-8,-6,2,-125
-225,-181,-29,125,110,7,-4,-6,-12,-96
-320,-85,-1,163,125,65,29,6,-24,-27
-292,-141,7,122,72,68,13,-38,-77,69
-147,66,39,55,3,24,17,-56,-125,118
-55,116,-5,48,22,-9,9,-39,-99,40
57,-32,0,126,50,-123,-95,-34,-26,-47
116,-114,-9,175,76,-50,-61,-2,-29,-105
246,-2,46,156,29,11,-42,-13,-45,-47
209,76,69,49,-5,-46,-90,-59,-33,-16
-29,4,0,10,64,-23,-65,-82,-74,-72
-113,46,67,25,42,35,-5,-21,-56,-60
-109,95,81,101,22,31,-14,5,-11,3
-147,43,-8,87,102,0,-68,-62,-56,-10
-118,-47,-51,-186,0,13,-40,-41,-31,-37
-15,-67,-29,-376,-222,32,74,100,86,33
131,-94,-30,-357,-259,5,120,167,145,117
166,-82,-45,-345,-255,-19,93,130,121,115
148,-27,-23,-219,-218,-29,42,65,72,67
80,21,-33,46,54,-3,1,7,35,19
26,130,-54,182,273,22,-14,-28,-6,-5
-2,27,7,170,302,51,15,-5,-5,-14
-28,-55,36,150,203,64,39,24,20,-1
-11,-22,-1,97,42,31,13,10,15,-11
12,-7,0,46,-159,-46,-35,-23,-12,-69
74,151,53,-17,-328,-74,-32,-30,-14,-93
112,360,139,3,-295,-65,-3,6,12,-26
61,412,121,99,52,0,-13,5,15,49
-31,186,-11,94,222,29,-35,-19,-2,99
-143,-163,-92,93,259,45,-50,-55,-45,4
-185,-310,-88,195,315,43,-53,-95,-114,-183
-155,-301,-116,98,227,41,-46,-103,-163,-240
-183,-375,-144,-50,5,28,-20,-99,-175,-240
-64,-392,-22,27,-147,2,21,-31,-106,-108
134,-187,39,-1,-161,-63,21,15,8,64
277,252,96,-207,-344,-111,44,109,186,290
306,424,216,-134,-343,-101,26,129,269,415
215,422,175,-78,-107,-46,-46,27,156,335
175,459,19,-299,-113,3,-37,-6,92,178
60,273,-116,-263,-168,41,39,34,83,-14
-171,-232,-149,-63,-24,59,78,74,65,-127
-208,-588,-129,14,162,82,82,54,24,-134
-88,-355,-7,23,133,-1,-1,-15,-35,-71
-15,19,63,55,97,-102,-81,-94,-104,-77
28,135,1,71,128,-13,-17,-66,-97,-71
85,-217,-103,35,66,81,78,25,13,72
143,-327,-93,50,30,68,87,67,79,120
170,56,52,81,10,18,25,38,59,103
94,225,141,75,0,-30,-42,-13,25,92
-106,92,65,53,13,-30,-39,-32,-38,-34
-269,-135,-25,28,44,-8,-31,-34,-41,-104
-326,-225,-53,9,68,35,1,1,9,-86
-425,-211,-36,36,60,64,46,51,42,-77
-509,-129,30,102,85,70,48,29,8,-159
-397,84,90,138,88,75,47,13,-33,-184
-79,356,159,156,89,72,47,21,-14,-125
204,481,149,92,58,15,-10,0,-7,-42
302,335,58,-20,-28,-58,-62,-47,-23,2
271,109,-29,-65,-93,-78,-42,-49,-9,26
221,1,-61,-53,-97,-89,-18,-24,34,56
159,-43,-66,-100,-123,-91,-22,13,102,130
169,-86,-65,-122,-116,-94,-33,-2,84,130
213,-72,-48,-57,-20,-35,-34,-50,-17,2
56,-35,-55,-23,53,27,11,-61,-66,-47
-4,54,-46,-56,22,36,43,-10,-22,103
-31,9,-9,-33,-11,25,47,24,-1,127
-181,-256,0,134,81,36,30,11,-20,1
-287,-348,-58,274,150,28,-11,-23,-34,-23
-196,-106,-41,253,100,-15,-38,-35,-8,-52
11,145,27,43,-12,-43,-13,22,67,-27
113,161,31,-245,-80,-23,29,48,56,-18
106,69,-3,-371,-92,25,31,23,12,-56
80,-18,-34,-192,-74,7,-9,-17,-14,-51
58,73,50,199,17,-31,-48,-59,-50,-56
25,299,157,436,192,7,-33,-30,-41,-59
-17,193,109,307,239,76,36,4,-39,-57
-21,-48,4,-27,125,51,53,8,-44,-48
58,-124,50,-279,-54,20,58,77,54,62
45,-230,81,-226,-82,72,65,97,77,128
-61,-414,-51,-175,-96,36,6,13,4,112
-58,-237,-115,-119,-113,-33,-61,0,-11,36
9,41,-89,-94,-148,-39,-53,35,16,9
0,92,-86,21,-34,-10,-31,9,1,-20
41,110,-22,98,-6,12,-39,-27,-9,-19
166,194,73,-120,-306,-56,-28,19,39,86
183,220,127,-228,-369,-91,-3,34,24,98
220,211,47,-221,-207,-68,17,22,-19,50
184,157,-50,-143,-73,-76,43,8,-18,52
-22,3,-90,-27,12,0,62,-6,-25,-38
-143,-149,-107,90,183,50,-26,-39,-43,-87
-172,-240,-97,117,209,39,-72,-40,-60,-53
-209,-270,-66,116,124,-18,-90,-54,-73,-69
-171,-201,-47,94,54,-71,-98,-78,-88,-62
-62,23,-5,106,70,-4,-28,-14,-21,61
51,138,36,141,127,64,23,20,17,103
61,-2,1,81,103,45,30,13,-3,27
14,52,-26,7,50,30,1,-31,-71,-66
-5,327,30,21,40,53,4,-42,-102,-100
34,542,104,47,50,77,45,2,-58,-69
-14,222,95,52,81,105,169,47,-17,-94
-67,-237,15,25,65,64,126,41,-40,-134
20,-198,16,27,-23,-65,-49,-10,-44,-71
18,-127,18,12,-62,-98,-105,-30,-26,-5
-42,-103,11,-34,-64,-110,-138,-37,-14,52
-72,-49,30,-28,-41,-138,-187,-43,0,78
-92,-153,-27,-86,-85,-104,-103,-12,0,95
21,-297,-63,-116,-161,-31,36,95,136,246
39,-308,-81,-31,-28,52,69,85,125,100
115,-79,-108,3,102,47,-1,-59,-59,-86
165,227,-54,-21,72,29,-32,-74,-91,-67
147,217,52,26,-2,3,-36,-35,-23,27
135,122,95,63,-39,19,8,17,29,68
74,68,41,7,-53,75,79,69,45,65
26,-15,44,23,-34,62,82,58,60,40
-140,-150,8,4,7,40,49,16,34,-52
-290,-225,-59,9,64,7,72,37,9,-71
-328,-162,-72,24,50,-17,44,29,1,-45
-313,-62,-15,24,24,6,-1,0,-23,-70
-209,-47,5,-4,41,37,-5,-29,-96,-158
-17,3,-27,-105,7,-11,-34,-45,-106,-131
212,256,-10,-183,-90,-69,-47,-10,-37,-26
314,552,89,-51,-79,-47,-24,34,56,97
196,292,82,163,35,-23,-29,14,76,143
58,-93,-14,289,154,-14,-46,-54,11,43
11,-183,-46,225,118,17,-16,-56,-21,15
4,-151,-6,58,16,15,-21,-48,-24,11
64,-98,3,-146,-69,19,-10,-30,-33,-31
148,-1,9,-269,-116,13,42,43,70,28
19,-29,-30,-114,-39,32,58,44,56,2
-186,-163,-72,293,131,-17,-27,-56,-63,-102
-216,-150,-51,378,113,-41,-44,-41,-72,-81
-77,154,56,133,25,18,14,39,9,67
26,366,105,-184,-41,33,26,39,33,99
54,335,42,-454,-56,28,30,46,28,37
133,152,15,-485,-156,11,33,41,30,15
198,-17,21,-129,-87,7,-12,-24,-15,-24
20,-228,-95,68,63,-8,-67,-96,-85,-126
-33,-194,-103,-59,-114,-43,-33,-37,-16,-69
21,-43,-9,-139,-353,-38,69,76,101,39
98,66,70,59,-161,-43,64,95,149,125
107,12,82,140,96,-1,68,112,166,145
-28,-160,29,41,141,53,81,80,86,49
-124,-221,-68,11,168,66,25,-9,-24,-6
-94,-115,-76,59,122,48,-15,-38,-66,22
-113,51,7,122,46,40,0,-26,-92,-51
-93,121,48,66,-69,-27,-16,-36,-54,-41
5,234,50,19,-23,-69,-60,-44,-21,-10
96,239,-3,14,111,-51,-71,-65,-31,-32
110,163,6,38,108,-56,-92,-109,-37,-22
142,19,24,79,105,-16,-55,-69,-37,-22
28,-228,16,141,108,24,-11,-26,-47,-68
-147,-250,35,131,43,25,1,2,-52,-86
-197,-237,-2,11,-103,16,37,50,0,-39
-257,-295,-89,-25,-78,42,59,67,62,-42
-392,-453,-206,19,119,113,78,18,17,-158
-370,-494,-201,-3,-12,49,81,27,-4,-188
-21,109,60,63,-221,-112,10,77,44,11
203,500,165,82,-80,-65,-35,43,24,131
163,513,101,-33,92,20,-59,-56,-79,132
193,332,112,-109,2,-10,-89,-61,-57,208
236,120,119,-192,-144,-55,-43,12,46,193
232,136,107,-152,-80,-15,30,54,103,118
163,125,-19,-87,-8,16,42,28,52,25
81,77,-103,-28,18,19,4,-27,-25,-72
5,-47,-109,-32,-5,-20,-49,-64,-62,-98
-3,-105,-75,-71,-22,-22,-40,-48,-37,-50
104,43,-9,-102,-41,-1,11,12,39,13
191,123,-5,-46,-36,2,28,41,73,46
81,-78,-31,31,-7,-32,7,13,37,-2
-41,-166,-14,66,34,3,0,2,24,-11
-113,-128,13,89,77,44,0,-14,-5,-39
-68,-85,0,80,59,33,4,-4,-16,-38
60,-65,5,117,58,27,6,-1,-10,-19
-39,-82,-11,87,57,16,-6,-29,-10,-13
-206,-77,-25,5,25,-5,-13,-13,-4,-39
-203,-43,-3,1,12,-26,-6,23,-14,-38
-132,24,10,53,24,-37,-6,25,39,30
-110,-19,-25,7,35,34,50,62,103,75
-162,-89,-31,-39,43,109,89,41,49,-18
-164,-42,23,-2,55,81,36,-36,-46,-76
-65,77,101,95,84,17,-48,-116,-148,-105
61,136,132,262,101,-70,-90,-110,-129,7
63,37,49,242,30,-75,-38,-67,-83,21
33,-42,-7,80,-37,-27,2,0,-22,8
56,-13,-19,-186,-92,-6,27,36,38,-21
98,68,-55,-449,-168,-18,18,6,35,-51
197,213,-41,-512,-282,-30,41,54,110,104
233,267,-31,-197,-186,-23,46,83,142,215
94,110,-23,130,64,4,1,18,53,103
1,-137,-3,209,186,58,-6,-6,-8,-3
3,-194,-28,94,119,32,-8,-1,-8,-18
72,-85,-23,-29,14,-15,-10,10,9,-40
82,0,3,-12,-29,-31,-16,3,5,-58
24,2,25,127,3,-48,-41,-17,-17,-74
0,-18,55,104,-67,-34,0,19,21,-40
-53,-61,37,1,-73,-8,36,20,56,30
-133,-212,-51,-28,54,57,41,-11,9,33
-128,-142,-63,-61,63,47,12,-41,-46,-20
-62,72,6,-44,-12,18,69,-6,-5,-40
-65,242,18,78,201,72,136,28,-4,-69
-118,441,40,154,306,78,29,-15,-62,-147
-69,220,35,166,116,-10,-88,-41,-47,-134
78,8,40,131,-131,-71,-119,-11,6,17
185,-48,66,23,-297,-32,-67,48,79,153
153,-142,27,-199,-437,-34,23,82,100,102
20,-202,-17,-258,-192,-33,66,48,79,75
-41,-294,-73,-142,228,0,-4,-76,-38,107
-56,-273,-156,-131,217,39,-4,-59,-48,103
-77,32,-92,-28,74,15,-5,29,39,59
-154,43,-28,74,22,6,-9,22,8,-40
-149,-39,-3,42,-124,-7,34,36,2,-91
17,130,134,11,-221,-49,50,69,34,-32
102,45,259,88,-95,-53,18,61,69,83
27,-99,175,63,70,-3,32,45,59,97
-32,-69,-32,-63,125,58,74,39,33,5
23,148,-80,3,112,6,3,-28,-35,-91
1,128,-45,138,67,-38,-14,-48,-77,-130
-41,7,-41,138,55,-9,14,-30,-55,-103
-1,-29,-40,35,49,26,3,-15,-21,-43
14,-48,-35,-85,17,30,-2,-9,-12,-24
13,-39,-59,-176,-50,20,-10,12,7,-5
84,57,-19,-134,-107,-8,-27,51,102,82
118,50,16,38,-38,-46,-49,44,145,94
132,-32,-28,102,71,-10,-30,-15,39,-12
178,-10,-14,80,104,49,1,-67,-83,-116
81,18,15,64,101,79,-5,-71,-124,-154
-59,-17,11,24,83,73,-35,-58,-157,-153
-39,-17,22,2,9,-14,-59,-31,-69,3
-28,-69,-9,181,23,-99,-88,-40,24,67
-46,-44,0,375,101,-106,-98,-92,-27,-41
-58,97,29,239,82,11,-15,-62,-42,20
-86,204,16,-92,9,65,35,-37,-20,201
-48,137,-33,-463,-147,-34,-11,-40,15,229
83,200,12,-644,-418,-113,51,90,141,149
179,304,88,-374,-426,-66,118,203,254,203
-31,-59,38,102,-38,24,97,147,181,49
-256,-407,-73,211,207,77,80,87,84,-120
-317,-387,-122,121,201,79,55,37,20,-188
-189,-63,-41,52,125,61,26,-15,-35,-172
-54,-62,-11,-44,20,17,13,-19,-23,-100
39,-171,22,5,-57,-12,-6,-20,10,5
165,80,114,87,-82,-20,-10,-48,2,96
138,187,95,60,-15,-3,-8,-61,-49,47
40,81,-3,49,74,14,-21,-61,-72,-35
-22,8,-41,32,57,-15,-34,-56,-58,-98
-8,64,-25,39,19,-38,-28,-32,-29,-77
36,113,-30,74,30,-19,-17,1,22,1
63,34,-4,162,82,13,-24,-13,19,26
125,112,27,72,5,8,17,32,50,70
141,306,19,-95,-48,1,46,56,57,70
120,286,22,-184,-36,-9,-14,-8,-18,1
117,57,-19,-255,-111,-43,-58,-39,-52,-10
135,-52,-20,-177,-164,-39,-31,13,8,61
63,-101,-37,19,-26,10,31,36,41,68
-75,-46,-31,100,86,84,63,32,30,2
-190,-155,2,118,93,69,35,-2,6,-54
-241,-383,45,138,60,12,5,-11,2,-48
-220,-402,97,122,39,-9,23,31,18,-11
-215,-303,83,96,58,28,57,64,32,-6
-163,-172,-8,49,78,54,28,29,-19,-32
-21,-27,-102,24,137,19,-29,-33,-57,-31
78,49,-113,21,144,-29,-72,-58,-48,-24
33,117,-72,82,107,-43,-72,-81,-70,-77
56,168,-18,141,97,3,-39,-68,-81,-73
159,80,22,112,-46,13,-5,1,-19,34
93,-121,4,-84,-284,-17,28,30,10,74
12,-191,29,-238,-292,-18,32,32,28,92
-13,-72,56,-275,-137,0,16,31,28,112
-11,270,69,-231,-170,-8,22,54,43,70
-58,378,97,-43,-100,-11,7,25,-3,-47
-29,240,85,66,89,-17,-28,-7,-67,-113
55,140,-17,17,142,-15,-42,-30,-69,-104
100,176,-72,-7,98,-9,-33,-37,-35,7
69,253,-70,62,55,-13,-27,-13,-2,96
66,183,-56,80,-23,-74,-45,-3,44,121
71,-104,-5,25,-75,-79,-5,40,97,122
-25,-426,9,54,51,36,54,53,55,-25
-62,-509,-15,115,156,76,38,2,-48,-149
-59,-318,-22,31,55,34,21,3,-24,-96
-28,-39,21,-4,-47,4,4,12,0,-40
-49,94,30,70,85,53,-5,-2,-17,-43
-63,212,3,38,191,94,-16,-37,-50,15
-6,145,-22,-103,23,38,-18,-33,-38,101
-26,-11,-37,-139,-108,-39,-29,-33,-41,24
18,-37,-35,-93,-84,-60,-55,-92,-95,-16
48,-12,-46,-138,-152,-85,-49,-77,-109,-39
43,-34,-57,-145,-266,-117,-9,-18,-31,9
150,209,72,-15,-222,-66,36,86,92,136
140,233,44,-15,-63,3,53,141,147,157
77,26,-71,-52,62,57,142,82,65,57
75,-54,-36,98,123,40,147,-9,-32,-40
6,-96,14,189,102,-35,-59,-60,-69,-73
-105,-137,9,106,53,-24,-142,-37,-80,-94
-140,-160,-29,-10,36,7,-125,-13,-52,-72
-89,-82,-33,-55,37,23,-96,25,6,-18
-35,-5,-59,-133,2,55,-23,54,39,24
-115,-127,-60,-71,36,108,60,49,10,-29
-187,-314,25,130,128,176,72,-19,-59,-95
-85,-158,154,327,175,113,-43,-145,-150,-133
185,392,231,366,101,-57,-142,-173,-144,-76
309,728,169,153,-90,-171,-100,-55,-29,25
188,339,30,-93,-187,-214,-29,35,66,82
94,-203,-83,-311,-145,-140,29,91,113,111
-19,-456,-114,-401,-92,-25,68,87,83,87
-120,-271,-90,-311,-99,52,92,57,27,32
-222,18,-31,14,30,108,83,25,-26,-92
-291,88,-20,183,178,112,61,23,-2,-104
-274,-187,-104,186,225,75,-3,-6,14,-62
-266,-365,-162,227,212,47,-31,-27,-3,-93
-140,-112,-64,203,93,19,-18,-36,-43,-108
72,165,18,14,-159,-56,-25,-47,-51,54
256,206,52,-219,-339,-133,-47,-42,-17,257
260,216,139,-255,-263,-126,-21,-18,-12,164
268,306,219,-158,-148,-81,29,38,9,53
383,402,192,-57,-27,-27,-5,27,32,76
277,208,-1,-144,2,-1,-28,0,39,57
122,112,-87,-88,11,29,4,41,52,28
-68,3,-63,138,70,55,4,10,-19,-102
-209,-151,-53,191,82,46,-25,-25,-60,-149
-214,-261,-32,83,69,60,-7,2,-3,-60
-216,-367,-13,12,45,39,14,23,30,2
-290,-508,-7,11,69,36,48,33,33,-15
-145,-322,-24,-13,88,53,74,48,46,-6
94,48,-25,-39,57,20,63,43,35,-11
141,70,29,37,70,-1,27,4,11,7
76,-3,80,120,70,4,-13,-33,-26,-4
-4,15,43,99,50,12,-24,-38,-69,-52
-6,41,-24,31,19,27,-6,-24,-58,3
9,99,-61,-69,-93,-5,10,-7,23,48
-31,106,-59,-158,-249,-80,-13,31,57,-24
33,105,-19,-116,-191,-91,-29,41,72,-22
108,99,-27,-65,-26,-42,-19,11,67,25
134,349,4,-15,62,17,28,15,27,96
34,369,78,126,108,-4,-7,-22,-8,112
-116,22,92,244,128,-34,-78,-100,-101,0
-53,-129,72,215,57,-37,-79,-106,-124,-58
8,-68,51,92,22,7,-34,-55,-91,-125
-70,-6,-5,-45,48,71,35,7,-62,-150
-95,43,1,-122,23,69,50,40,-15,-136
-5,58,46,-45,31,24,40,69,60,-27
20,-35,18,74,187,33,46,54,51,31
58,-215,-77,-8,116,-9,18,27,30,21
-60,-549,-126,48,81,19,16,-19,11,-10
-136,-591,-82,219,99,57,-3,-66,-34,45
-130,-221,-41,245,-28,20,-27,-70,-43,85
-37,292,-4,-31,-331,-20,49,40,37,153
70,326,-6,-301,-318,-32,68,103,123,180
36,173,-55,-441,-120,15,63,88,116,54
155,375,-36,-522,-235,-19,28,42,74,-35
463,468,71,-344,-313,-106,-42,12,59,8
584,351,121,-65,-114,-111,-74,-22,28,38
317,131,46,115,69,-53,-55,-62,-32,-16
-55,-126,-56,163,130,-38,-25,-74,-69,-124
-222,-113,-52,253,189,-18,1,-42,-30,-56
-243,136,-5,316,205,48,54,-10,17,102
-317,-6,-9,190,113,115,111,33,48,119
-531,-566,-31,44,122,182,148,105,102,-12
-448,-825,-15,-123,105,152,117,114,120,-48
-45,-303,48,-292,-127,-8,21,72,100,10
145,186,74,-187,-216,-82,-29,52,88,27
175,135,13,75,-22,-50,-75,-29,-10,-89
145,54,-45,136,102,8,-43,-40,-59,-125
154,96,-44,114,85,10,-32,-36,-42,-26
133,150,3,88,43,-11,-54,-58,-27,56
50,128,18,51,9,-23,-73,-87,-33,98
-60,38,-5,23,10,-19,-67,-94,-43,35
-174,-8,-22,27,18,-1,-19,-46,-40,-72
-173,25,3,26,15,-2,27,9,-7,-95
-86,101,14,-18,-6,-23,53,26,-9,-129
25,251,48,-32,-33,-31,48,20,-5,-87
100,225,80,-9,-13,-11,10,2,-2,13
43,-94,8,-16,24,35,-4,-17,-11,5
12,-309,-54,-30,52,55,10,-23,-4,6
36,-192,-73,-51,20,12,-10,-9,-16,96
55,-35,-84,-38,-6,-14,-16,14,-16,92
26,-6,-56,106,72,-1,-37,-18,-48,-47
48,-26,-42,150,68,-19,-52,-37,-50,-51
145,54,8,34,-55,-60,-50,2,26,77
104,47,45,-69,-36,-33,-41,6,2,16
-4,13,74,-71,5,9,-6,-4,-36,-52
-5,128,176,-13,-37,10,-7,-13,-53,-8
23,179,177,81,-12,9,-14,-9,-49,33
-24,69,51,180,65,-23,-49,-33,-56,23
-119,-10,-3,204,12,-14,-40,-29,-57,-8
-138,-13,-3,138,-58,13,15,29,23,20
-91,-144,-78,-60,-57,20,49,67,51,24
-52,-245,-88,-242,-49,43,28,24,-10,-40
-50,-323,-55,-338,-122,56,19,18,0,-61
-90,-387,-50,-142,-50,57,38,64,46,-55
-20,-70,-54,29,51,24,11,49,61,7
188,390,28,-44,28,4,8,59,100,133
225,341,62,-7,56,8,4,9,43,93
139,23,-28,-7,71,-42,-37,-42,-34,13
45,-203,-101,-169,-127,-71,-13,10,5,35
14,-78,-84,-201,-198,-53,7,44,37,75
-18,202,-21,-34,-33,-33,-47,-41,-36,10
-42,312,37,76,37,-12,-54,-71,-94,-58
-99,49,-7,70,21,23,10,-31,-101,-101
-120,-37,-17,94,40,52,39,13,-70,-82
-22,15,57,176,98,57,24,20,-32,-2
53,-94,48,127,83,42,17,33,17,42
75,-87,15,5,5,-21,-21,19,32,49
124,-24,-25,-54,-61,-93,-63,-31,14,66
84,-74,-58,-46,-31,-83,-42,-45,0,23
47,0,-27,13,39,-1,9,-25,-9,-26
-17,143,50,63,68,45,13,-22,-16,-46
-190,186,101,154,154,56,-1,-42,-43,-86
-297,-20,47,236,289,69,-15,-55,-80,-159
-230,-210,-27,123,233,16,-58,-66,-74,-106
-114,-212,-20,81,44,-60,-68,-17,4,51
-77,-169,-13,157,-17,-19,-21,31,27,39
23,-92,-33,190,-74,7,3,-7,-37,-76
193,88,16,-18,-345,-47,11,-10,-31,-38
233,143,9,-313,-409,-55,32,45,41,64
117,48,-70,-441,-93,21,29,17,4,50
104,91,-114,-547,-129,24,47,49,62,120
96,340,-3,-340,-156,27,69,96,108,149
132,348,157,-51,-88,29,70,56,53,90
137,56,170,187,21,16,121,34,49,53
40,-73,79,144,50,-20,99,54,86,66
-99,-219,-7,62,71,-58,-3,32,78,73
-192,-145,-17,75,81,-30,-114,-24,15,-15
-223,-81,-28,74,77,15,-144,-62,-54,-144
-140,-88,-53,51,54,-12,-148,-67,-64,-132
-24,-59,-35,107,78,25,-57,-45,-26,-80
-37,-108,-11,173,133,90,39,-14,-20,-77
-15,-45,22,254,140,94,71,15,5,-57
105,203,56,196,70,9,21,23,41,20
200,337,66,-13,-27,-56,-28,14,77,93
139,205,21,-188,-89,-65,-28,8,61,71
32,-72,-29,-249,-98,-59,-10,-22,17,23
-6,-298,-36,-247,-129,-34,48,25,48,78
-20,-357,-72,-143,-91,9,91,59,77,47
-63,-281,-124,0,41,70,106,55,61,-87
-81,-44,-95,68,106,98,104,73,62,-141
-59,103,33,176,146,66,46,23,37,-81
-98,119,98,255,158,4,-51,-104,-82,-44
-195,136,75,164,80,-44,-93,-161,-132,51
-187,58,-18,-13,-29,-46,-53,-81,-58,108
-152,-3,-57,-78,-51,-18,6,16,12,26
-49,10,-29,-44,-17,-16,14,-4,-7,-21
99,35,5,-36,-22,13,35,40,39,0
170,38,29,-8,14,35,30,61,69,5
89,-1,34,29,34,37,17,2,10,-41
40,35,30,-3,11,19,1,-36,-31,-40
64,70,3,-99,-111,-15,6,-13,-21,-14
108,105,32,-58,-237,-85,25,24,0,24
90,46,2,17,-117,-103,22,17,-7,30
41,-46,-25,7,-16,-7,43,47,47,43
17,-27,-15,-33,-10,35,49,68,103,53
-15,16,-2,-67,20,32,5,21,57,9
-84,-36,-18,-76,73,25,-49,-61,-44,-90
-104,-81,-98,-60,60,3,-64,-86,-85,-111
-42,-53,-124,14,63,-30,-44,-42,-37,-52
-3,-51,-69,66,21,-18,7,38,32,11
60,-55,56,132,12,9,34,46,33,20
9,-93,114,161,63,41,49,26,11,-8
-48,-87,113,149,56,20,36,13,-12,-14
7,-9,110,84,26,13,11,12,12,68
89,44,39,-24,-1,-9,-24,-8,2,96
65,124,-46,-56,55,9,-32,-36,-45,0
42,217,-36,-23,68,34,-15,-35,-61,-66
112,60,-56,-79,-92,-53,-39,-1,-6,1
208,-15,-55,-151,-184,-84,-43,3,9,48
225,111,-39,-221,-176,-15,17,26,21,43
203,338,-4,-234,-163,-21,20,23,17,23
92,289,38,-78,-106,-70,-5,27,7,57
-147,64,22,58,47,-19,-35,-15,-55,0
-276,-29,8,113,137,17,-46,-43,-77,-20
-287,-190,14,123,139,26,-41,-40,-58,84
-316,-449,-53,149,150,18,-54,-68,-97,30
-278,-547,-78,274,190,14,-37,-55,-127,-112
-142,-441,-5,342,159,53,10,9,-61,-81
-36,-212,11,225,154,91,33,18,-16,-16
136,95,7,-58,143,64,36,19,14,5
208,183,-10,-365,-45,-5,-1,5,12,0
108,61,-44,-508,-238,-55,-47,-39,-21,11
62,190,33,-250,-230,-49,-53,-60,-75,-28
135,314,109,-47,-301,-68,-14,12,-38,-5
170,161,96,-77,-447,-107,48,123,98,106
94,-90,32,69,-94,-14,56,115,102,120
55,-66,-26,92,153,50,26,56,31,71
34,116,-50,-15,145,35,-8,2,-5,41
-71,108,-58,-16,117,27,-17,-23,-20,-3
-174,52,-47,45,129,17,-37,-50,-69,-103
-276,-51,-60,242,242,3,-64,-88,-127,-211
-256,-142,-62,511,361,-29,-84,-113,-146,-207
-223,-185,-4,472,207,-19,-21,-30,-84,-81
-187,-195,39,136,9,48,75,29,-14,-33
21,-103,68,-289,-152,31,69,27,46,32
186,-19,72,-478,-197,5,17,-8,37,54
259,101,62,-577,-390,-19,35,49,75,126
264,158,24,-317,-434,-48,77,154,173,208
153,88,-52,-37,-109,-11,56,131,156,131
49,101,-62,30,150,63,32,45,57,3
33,164,-36,10,182,73,-5,-61,-49,-41
4,78,-56,19,179,22,-75,-149,-131,-95
-61,-62,-56,80,133,-49,-108,-134,-139,-114
-84,-119,7,113,70,-59,-87,-74,-82,-89
-15,16,82,76,-12,-29,-22,20,24,44
86,79,77,18,-112,-47,24,53,82,137
80,-16,18,34,-113,-56,87,45,63,70
54,-153,-22,-23,-160,-37,87,51,34,1
-75,-413,-95,-52,-63,31,69,75,50,-8
-191,-432,-107,16,108,87,32,50,45,-20
-91,25,30,97,128,47,-63,-34,-27,-30
34,496,145,142,125,2,-112,-81,-84,-40
3,610,85,119,88,8,-44,-48,-88,-91
-4,306,22,81,23,23,16,2,-11,-55
18,-71,-42,33,-26,-8,42,31,47,-1
50,-141,-14,34,3,-7,18,15,45,41
34,-9,96,15,16,1,-22,-10,31,29
-10,21,86,-77,-49,-6,-33,-30,13,54
-75,-88,-59,-138,-17,22,-2,-49,-23,-5
-26,-85,-82,-68,30,21,27,-5,5,-62
53,-89,-55,26,28,6,30,43,38,-72
176,-101,-65,76,46,8,28,30,15,-97
257,-17,-53,75,41,22,27,-2,-17,-85
103,9,-53,-28,-56,-45,-33,-39,-13,29
-43,6,-28,-110,-142,-81,-39,4,80,254
-170,39,-15,-126,-121,-57,-18,14,106,296
-248,62,32,-60,-32,-20,-16,-25,3,82
-206,-81,61,-6,11,9,3,-20,-23,-45
-94,-74,37,11,47,41,10,-13,-20,-103
84,46,-7,1,31,-2,-25,-14,-10,-76
152,61,-4,20,-19,-15,-9,-6,1,-42
97,80,24,77,-18,7,13,14,31,-9
28,118,30,99,0,41,39,58,81,27
10,-27,70,48,-6,20,34,51,85,25
-68,-336,20,-51,-1,19,61,52,61,-9
-64,-105,12,-13,31,11,40,28,29,-15
-38,76,27,31,23,4,13,-8,11,-22
-82,-195,-30,14,27,36,43,11,6,-53
-61,-220,-29,40,49,48,47,37,0,-36
-9,-12,10,40,45,34,6,25,-14,-29
8,90,22,21,27,15,-3,-13,-30,-27
8,103,30,-1,17,0,-35,-33,-30,0
-23,75,19,-8,0,-13,-33,-37,-32,-17
-9,29,-8,6,10,-12,-26,-16,4,2
12,50,-26,40,54,4,-21,-7,15,1
54,207,-13,34,65,37,27,29,30,18
67,106,0,45,60,31,18,8,27,31
6,-141,-29,49,43,-3,-12,-41,-15,20
26,-177,-44,-4,-74,-71,-38,-40,2,60
43,-138,-14,120,-38,-94,-52,-39,1,31
-34,-161,-32,312,158,-40,-67,-84,-68,-83
-118,-168,-66,234,161,30,-32,-83,-117,-170
-47,12,-38,-97,-46,36,19,-14,-73,-71
10,286,8,-432,-243,0,34,45,-9,6
71,469,62,-687,-460,-47,44,112,68,79
271,526,117,-630,-475,-28,93,203,189,237
231,156,27,-188,-94,0,69,148,151,167
-25,-263,-63,120,131,-4,-10,16,4,-6
-99,-239,-45,146,90,-10,-59,-39,-65,-41
-52,-15,16,136,57,-6,-88,-71,-76,-3
-127,19,27,172,138,42,-63,-74,-102,-73
-203,-72,0,148,163,62,-7,-53,-127,-146
-87,70,22,99,112,-8,-12,-26,-81,-60
45,165,50,114,67,-50,-22,-16,-34,-22
74,52,47,126,38,-11,-7,-28,-51,-4
30,-138,0,138,62,1,-32,-68,-107,-13
-1,-241,-42,224,78,-32,-69,-75,-117,-42
66,-145,-31,180,18,-42,-44,19,-5,49
41,31,37,55,41,12,-19,63,45,82
-63,-19,35,-135,50,62,-3,33,31,39
-96,-83,-16,-333,-26,68,23,29,20,15
-45,-47,-46,-438,-195,31,51,50,61,17
-41,-38,-31,-220,-215,-26,17,32,66,-14
-4,11,-4,11,-168,-72,-4,17,18,-20
65,54,15,96,-58,-51,11,0,-12,9
66,43,13,167,152,32,13,-42,-52,7
-3,9,-16,160,223,51,-6,-66,-83,-52
-25,-29,-60,46,194,32,-23,-72,-121,-92
62,1,-38,-37,69,-17,-28,-31,-66,-19
78,-7,10,14,14,-10,0,-7,-44,-66
87,64,48,85,-38,9,-1,-19,-79,-186
240,286,55,5,-215,18,51,39,-24,-130
246,79,-29,-105,-257,14,94,117,111,65
69,-177,-97,-13,78,7,37,53,110,174
-127,-202,-84,51,182,-56,-71,-65,31,198
-318,-190,-54,35,70,-102,-121,-126,-52,111
-289,23,60,-41,-150,-132,-77,-34,6,71
-84,242,108,-175,-303,-121,27,97,165,183
4,45,-7,-184,-228,-12,118,141,200,184
112,-334,-86,-20,-39,65,110,76,116,98
62,-202,-30,81,117,107,58,4,2,-16
-101,174,52,75,187,130,38,-15,-78,-130
-148,213,108,43,163,55,3,-34,-87,-128
-92,-5,91,29,85,-7,-31,-44,-27,-47
-72,-225,-7,-10,15,-25,-67,-71,-47,-58
-64,-218,-35,5,-7,-14,-32,-36,-42,-90
-34,84,4,45,21,50,46,40,25,-68
26,326,16,17,23,60,31,24,23,-51
82,197,-8,-25,-19,3,-23,-19,4,-11
119,45,-10,-43,-34,-22,-47,-24,2,-5
96,44,21,27,29,-44,-68,-6,10,-27
31,-38,4,88,73,-39,-39,17,30,-37
91,-83,-20,90,68,2,5,25,59,-37
96,-74,-8,86,25,8,27,19,55,-12
-14,-33,25,92,15,9,16,-18,-2,-4
-56,27,32,76,-13,34,11,-68,-54,-7
5,49,-13,94,-14,-9,0,-51,-17,56
-8,-23,-49,327,267,-9,-42,-89,-71,-5
-30,-31,3,331,277,28,-24,-49,-60,-25
-37,5,46,60,41,6,8,27,64,39
-22,-3,-31,-335,-163,-16,33,53,80,88
-47,-22,-83,-569,-291,-19,40,33,23,-25
-31,-14,-108,-607,-460,-46,65,57,61,-37
67,7,-55,-153,-260,-35,41,63,101,71
133,55,10,181,56,-1,15,27,80,88
99,78,-8,46,86,45,52,60,84,59
21,55,31,-53,83,65,55,44,53,-5
-16,10,104,-46,83,60,31,7,7,-31
-11,32,103,35,58,25,-13,-20,-22,-12
0,88,47,115,51,0,-26,-33,-40,-26
15,185,-20,77,34,-22,-17,-32,-31,-33
20,155,-21,144,66,-45,-46,-37,-29,-37
-32,-65,-18,304,141,-68,-74,-38,-44,-80
-64,-211,-48,267,111,-22,-35,-7,-5,-52
-33,-138,-29,51,29,36,10,19,6,-10
33,69,4,-171,-22,16,-5,2,0,27
70,144,59,-314,-93,3,-4,11,6,53
8,-124,85,-303,-196,5,26,39,-10,34
-26,-267,34,-93,-151,17,60,72,12,48
-17,-110,-64,29,-3,12,34,44,9,30
-27,-8,-111,32,54,-4,0,4,-12,4
-77,-151,-86,41,48,4,-17,-8,-16,-23
-117,-280,-21,85,52,26,19,12,2,-30
-91,-133,0,78,31,23,27,32,7,-10
-18,196,10,23,18,0,-9,20,-29,-24
56,330,55,15,9,-12,-27,7,-44,-30
132,252,100,41,-38,-57,-65,-12,-39,10
113,197,62,66,-32,-35,-54,-33,-38,56
7,156,-7,40,21,-4,-61,-75,-64,64
-86,-13,-41,3,52,2,-89,-144,-157,-31
-70,-117,-9,8,32,15,-33,-81,-136,-46
-2,-94,17,-25,-29,-15,9,18,-9,75
22,-89,16,-5,-22,-24,-2,34,47,36
39,-68,49,58,-4,-18,-1,31,23,-26
19,-102,31,60,-5,-25,-13,11,-1,-71
-15,-137,-58,-26,-10,-29,1,4,5,-71
-31,-159,-120,-4,85,1,10,19,4,-3
-65,-184,-118,-5,129,59,28,28,11,55
-79,-77,-48,-44,36,47,24,5,-18,-2
33,149,64,-45,-58,7,6,8,-1,0
75,192,48,-88,-113,-15,-15,1,6,47
54,90,-50,-160,-194,-79,-45,-26,-14,68
48,61,-50,-121,-176,-88,-55,-28,0,82
19,64,-6,-38,-8,-10,-11,-4,17,0
43,-74,-52,17,124,42,32,27,7,-82
62,-112,-32,123,119,48,47,37,-9,-69
27,44,129,213,25,4,9,15,-9,-47
-22,244,248,215,29,-32,-46,-24,-10,-42
-65,157,164,57,158,41,3,10,18,3
-72,-210,-74,-144,141,93,83,72,81,23
-37,-265,-135,-109,46,37,48,68,104,36
-107,-142,-43,140,59,21,0,-1,16,-11
-134,-48,-3,104,-84,28,35,-28,-13,-27
-29,32,10,-145,-406,-50,91,31,80,57
-3,17,-3,-223,-271,-53,48,31,85,43
-7,48,25,-231,-102,-9,-12,-32,-15,-39
54,281,66,-173,-45,-13,-31,-38,-31,-33
117,494,61,4,74,-11,-57,-64,-47,-14
87,171,-35,81,202,28,-54,-78,-77,-10
67,-72,-57,86,182,-17,-54,-59,-34,29
33,-57,-28,124,139,9,-12,0,10,45
17,-48,-19,118,53,21,7,26,22,34
9,-125,-42,48,-44,-18,-13,3,19,5
-36,-154,-21,52,-113,-16,-16,-13,1,-49
-55,-132,25,128,-123,-10,0,1,20,-76
-76,-186,0,322,101,19,1,7,17,-62
-25,-148,-56,284,169,7,8,21,27,-6
28,-66,-71,102,47,-21,22,34,39,71
56,0,-51,-159,-33,-26,16,-4,-6,45
202,158,14,-419,-129,-64,-49,-55,-29,-13
405,300,79,-492,-221,-62,-32,-23,-4,20
377,240,43,-330,-172,-5,32,36,30,61
168,76,-10,-28,-11,49,42,27,37,33
45,148,-4,88,60,49,32,16,45,68
-57,362,33,58,26,31,20,16,40,123
-199,142,92,68,-41,-8,16,11,23,30
-376,-479,65,133,30,9,37,36,35,-72
-455,-616,-32,141,181,120,100,93,44,-100
-381,-91,-73,30,166,117,62,25,-24,-121
-337,238,-54,-39,49,51,13,-37,-72,-136
-262,49,5,6,-12,-3,19,14,-4,-76
-132,-213,22,92,49,-13,-2,22,-6,-69
31,-255,-22,75,42,-18,-8,16,-13,-34
187,-54,-26,2,-26,-29,-13,3,3,25
303,120,0,-40,-65,-36,-23,-15,6,68
334,130,21,2,-22,-8,-3,-24,-7,43
321,98,55,131,58,14,1,-39,-41,26
174,42,54,274,160,21,-19,-58,-71,-7
0,14,17,384,243,36,-41,-101,-114,-74
-69,49,15,267,137,46,-33,-89,-107,-86
-152,-6,-18,-20,-6,-3,-46,-67,-58,-67
-223,-105,-100,-381,-183,-73,-48,-43,-24,-57
-159,-78,-75,-589,-413,-156,-48,32,71,-6
30,-45,-13,-492,-400,-137,19,153,178,78
229,-24,8,-201,-186,-30,85,165,205,165
242,-76,-28,31,37,53,72,81,129,181
106,-159,-70,17,64,35,26,22,39,115
-43,112,6,0,2,-15,-13,-19,-21,27
-106,650,125,39,47,2,-27,-65,-49,6
-28,664,121,19,46,5,-22,-61,-34,75
30,139,42,42,19,-32,-21,-44,-2,99
-47,-260,-11,122,63,0,-3,-39,-28,-13
-135,-428,-52,112,117,81,64,18,-12,-98
-113,-441,-57,82,103,101,101,50,25,-89
-79,-227,-22,75,59,36,72,41,16,-114
-36,-51,3,98,68,7,33,1,-22,-141
10,47,-6,154,103,36,21,-17,-40,-97
-10,28,-41,116,49,19,-16,-42,-59,-36
38,40,-19,32,-48,-31,-52,-48,-24,83
69,63,56,6,-4,-5,-18,-18,14,67
59,23,54,-97,-18,2,24,30,43,26
129,-10,49,-194,-140,-19,55,84,114,78
169,-21,49,-112,-152,-34,26,87,135,110
69,-49,-21,-59,-58,-10,3,23,47,31
-38,40,-31,4,72,26,-28,-66,-54,-58
-79,123,-41,18,87,33,-47,-89,-74,-54
-58,76,-66,11,-13,-14,-44,-50,-36,-62
-71,27,-55,135,40,-21,-18,-17,-37,-61
-6,-5,-1,255,162,2,-7,-9,-26,-10
54,163,60,134,103,11,-10,-1,0,20
40,336,91,-13,36,9,-32,-18,-29,-14
-11,87,23,-153,21,4,-63,-39,-68,-33
-71,-383,-82,-304,-70,-45,-28,-10,-48,-12
-47,-471,-53,-332,-259,-88,20,62,52,54
-43,-104,36,-69,-159,-22,79,109,85,57
3,335,115,138,20,57,109,91,65,64
42,336,134,127,9,70,55,25,10,41
-29,68,40,20,-119,22,5,0,-33,-42
-82,-146,-60,-29,-92,-32,-54,-30,-49,-86
-7,-209,-85,17,36,-35,-110,-50,-45,9
78,-129,-55,61,98,-22,-143,-74,-69,35
98,-53,-63,21,102,9,-83,-54,-84,20
78,22,-63,0,90,38,-12,-25,-69,-2
52,73,-50,-20,52,-5,-17,-37,-52,-50
76,47,-38,-18,-25,-64,-43,-20,-30,-8
65,73,21,43,-48,-68,-28,-8,-4,15
-47,224,85,151,28,-9,-14,-35,-47,-50
-181,318,67,233,166,47,-5,-37,-59,-118
-154,23,43,161,115,50,33,25,-4,-56
-15,-258,61,32,71,57,67,65,53,4
34,-489,-33,-91,224,74,42,21,16,-41
34,-427,-91,-268,103,13,10,-1,-12,-17
123,-82,-11,-347,-190,-46,32,53,80,200
56,26,-8,-229,-275,-58,15,46,79,231
-44,18,7,-22,-166,-46,-33,-32,-6,54
-1,246,9,-104,-317,-93,-27,0,7,18
30,413,14,-145,-341,-120,0,53,69,99
-92,155,12,89,70,7,-8,-7,-30,-31
-161,-109,26,251,249,95,23,-30,-85,-114
-117,-229,-9,177,127,66,34,22,-25,-44
-44,-293,-49,80,51,19,-3,-11,-19,-27
35,-242,-19,30,86,19,-9,-46,-69,-69
150,175,41,-16,72,38,13,-14,-46,-33
177,502,64,-45,41,45,20,10,-6,13
33,199,-15,-75,-10,19,12,10,8,-9
-34,-77,-69,-100,-74,-46,-15,12,47,9
-33,-128,-51,-34,-32,-62,-35,13,52,20
-30,-126,-28,133,59,-32,-18,1,12,5
-53,-107,12,413,170,-31,-31,-41,-25,-45
-74,-67,96,531,193,-23,-34,-81,-53,-82
58,1,119,249,50,2,11,-38,-21,-26
180,25,23,-225,-112,-5,14,-2,27,32
97,-25,-66,-531,-191,-7,11,15,51,66
21,-39,-85,-599,-242,18,55,59,81,83
-60,101,-64,-362,-107,104,100,57,49,36
-100,282,-31,-41,48,88,32,-4,-28,-41
10,238,12,76,-27,-49,-41,5,11,37
57,131,2,84,-59,-136,-53,26,56,86
-45,-97,-11,79,-8,-91,-23,15,50,48
-214,-411,-41,132,71,6,20,-4,3,-58
-176,-359,-5,213,108,55,26,-5,-10,-37
-55,-89,50,222,84,69,17,-14,-23,-46
11,71,74,142,58,35,-12,-17,-21,-62
15,104,88,112,86,1,-28,-55,-50,-106
47,119,82,56,82,17,-11,-38,-40,-80
94,99,61,-4,50,17,17,11,16,11
122,42,0,-79,-25,-17,19,26,72,98
119,20,-64,-176,-165,-62,0,41,100,141
181,25,-90,-236,-192,-53,40,70,143,129
265,80,-49,-91,-49,6,74,59,102,51
117,157,15,60,47,52,42,11,15,-74
-68,102,11,47,89,71,22,-5,-41,-98
-129,16,-31,26,109,72,0,-2,-34,-34
-173,-22,-44,55,124,71,-11,-13,-17,-16
-118,-54,-18,100,74,39,-44,-32,-29,13
-59,-71,26,84,-52,-35,-73,-52,-31,59
-17,-47,37,25,-147,-97,-69,-52,-25,-52
28,-42,38,-35,-191,-88,-29,-45,-48,-103
1,-109,-1,-65,-118,-57,7,0,8,34
-50,-163,-51,-80,-51,-36,63,45,88,164
-117,-124,-5,74,92,25,111,30,44,47
-203,-24,42,168,149,35,17,-15,-32,-93
-121,231,37,93,105,8,-56,-16,-51,-78
75,287,12,-45,10,-29,-84,16,-2,46
125,-9,-29,-124,-40,-54,-119,11,16,61
75,-224,-36,-91,-50,-3,-58,19,8,-1
-30,-347,-71,-17,-16,64,43,20,-16,-85
-50,-285,-38,62,42,68,34,8,-49,-88
-30,-148,-10,46,48,46,-4,-32,-95,-63
-17,58,-12,-8,21,12,-24,-66,-96,-66
107,345,47,-42,-20,-32,-12,-20,13,94
187,301,109,-91,-142,-64,17,36,102,249
75,181,71,-42,-128,-37,44,48,91,158
-52,260,21,32,-4,39,68,57,70,2
-98,173,-1,10,60,71,37,29,13,-65
-106,-81,-42,-68,36,27,-17,-13,-42,-91
-40,-175,-42,-129,-48,-11,-29,-6,-4,-25
49,-150,-11,-67,-49,5,-15,26,32,44
40,-128,-14,-4,5,4,-23,-7,-17,-15
13,-120,-40,13,9,-18,-29,-47,-63,-73
21,-56,-24,25,-5,-28,-22,-43,-53,-48
28,70,-5,38,13,-21,-2,-14,-36,-18
42,196,10,42,34,-8,4,-8,-51,-10
60,149,25,56,49,8,-8,-14,-55,-6
97,-32,20,57,59,12,3,0,-44,-10
133,-53,28,39,32,5,-2,24,-31,24
51,-204,2,11,14,15,12,28,1,50
-79,-326,-39,-10,24,20,11,-5,-24,-17
-106,-94,-39,-7,0,-25,-17,-23,-48,-54
-131,79,9,58,13,-25,-37,-41,-72,-48
-161,201,41,180,54,-43,-76,-61,-81,-13
-127,281,38,226,68,-25,-48,-32,-32,54
-64,216,-8,95,34,37,16,1,16,38
-59,42,-52,-113,25,56,16,-26,-44,-57
-10,-180,-55,-234,-27,22,8,0,-25,-62
38,-348,-61,-228,-78,29,53,70,30,-5
43,-301,-33,-83,-139,28,63,85,73,19
25,-66,45,124,-58,-30,4,14,29,-17
33,85,92,66,17,-31,0,-1,-11,-24
95,112,41,-87,-10,-14,0,16,13,35
98,112,-12,-116,-15,0,-15,8,2,41
76,160,-16,-4,24,-15,-49,-39,-35,-24
106,175,-15,6,-59,-72,-37,11,39,35
91,114,-23,-61,-105,-71,-23,48,104,98
30,10,-4,-58,-20,-14,-7,9,71,38
-27,-43,8,-38,24,37,14,-33,-11,-20
-41,-23,-1,-37,32,31,17,-64,-77,-5
-21,-50,-27,-7,41,16,-9,-53,-87,128
-40,-337,-57,31,24,34,36,48,54,153
-130,-638,-77,103,81,52,35,35,56,-26
-123,-391,6,158,90,18,1,-27,-48,-171
-50,67,30,48,-18,-34,-15,-6,-64,-149
-34,397,-4,-101,-82,-38,16,32,-44,-99
16,567,8,-93,-19,-3,36,27,-25,-59
70,418,11,26,72,-2,-4,5,8,7
3,256,31,132,154,24,-21,-22,7,15
-8,223,103,141,144,71,7,-23,10,32
-11,-26,58,28,69,73,19,-39,13,33
-14,-275,-17,-23,-33,-8,-23,-68,-11,19
20,-257,-2,0,-91,-46,-35,-26,4,37
81,-202,25,-46,-215,-78,-15,37,63,73
52,-274,-4,-36,-194,-51,40,57,80,51
36,-224,-58,43,-23,-16,4,-15,10,-8
102,19,-52,18,42,10,-30,-57,-74,-72
93,229,14,-68,-46,-14,-21,-19,-42,-83
-18,84,16,-43,-59,-81,-33,2,20,-86
-59,-99,-9,38,37,-33,19,19,13,-47
-26,14,32,-11,26,51,112,78,68,115
-71,299,79,-42,4,71,112,95,93,146
-99,373,35,-67,-7,50,57,46,62,78
-47,116,-58,-174,-51,17,0,17,49,59
-5,-145,-113,-170,-49,9,-32,7,40,-28
-5,-187,-58,15,38,37,-24,-11,6,-43
-7,-130,-10,110,86,43,-3,-42,-28,-22
-33,-95,-19,97,32,12,5,-33,-40,-21
-52,49,43,207,58,-41,-24,-16,-27,-45
-7,194,150,292,93,-83,-80,-40,-7,-43
50,109,116,152,42,-75,-66,-43,1,-43
69,8,32,-24,-2,-37,-25,-28,8,-28
28,-8,-6,-128,-26,27,26,-8,12,-14
11,-21,-27,-194,-78,45,63,28,19,11
-69,-103,-31,0,32,19,46,8,16,-24
-175,-177,-64,289,259,43,10,-49,-34,-105
-62,-70,-61,237,182,71,21,-8,4,-32
14,-70,-13,25,30,65,53,46,74,37
0,-184,2,-217,-47,60,60,70,84,67
58,-150,6,-401,-168,22,52,70,92,72
153,-85,4,-402,-309,-43,58,76,123,84
182,85,-6,-121,-199,-85,2,-2,53,15
153,349,0,83,-19,-73,-12,-26,-16,-28
75,509,40,115,3,-87,-41,-21,11,9
-60,251,16,137,54,-43,-67,-57,-45,-39
-158,-21,-35,113,142,64,-28,-71,-102,-53
-154,-113,-42,25,79,57,1,-25,-72,24
-96,-157,-6,-29,-9,19,9,31,6,75
-78,-162,25,-32,-7,40,39,55,38,38
47,-168,12,-19,0,32,26,51,47,30
153,-186,-36,31,18,6,-21,11,9,9
160,-86,-25,68,29,-11,-39,-23,-31,-7
78,29,0,48,18,-20,-20,-28,-46,-10
-48,51,2,82,38,-33,-16,-26,-54,-34
-142,-35,-27,78,52,-18,-18,4,-14,-44
-188,-52,-15,54,51,27,-9,18,-6,-51
-157,-14,13,-6,14,50,-6,-13,-52,-58
-83,-11,0,-134,-50,37,3,-24,-72,-19
84,77,13,-242,-126,-5,-12,-17,-49,58
222,152,54,-190,-125,-25,-17,-18,-44,73
150,66,52,22,-23,-42,-31,-22,-46,36
69,-50,-6,75,-17,-65,-26,11,-11,47
27,-97,-34,56,-10,-28,-11,29,7,34
-12,-112,-17,73,25,6,-17,-1,-31,-26
11,-15,13,98,44,-3,-24,-9,-61,-49
27,279,61,74,20,-4,-3,1,-30,-30
53,327,39,-18,-26,-24,0,0,-1,-8
61,28,-40,-76,-28,-25,10,7,15,3
46,-142,-70,-80,-6,5,6,5,-9,-15
2,-125,-39,-36,-8,0,-25,-39,-37,-12
-85,-158,-19,4,-16,1,-29,-43,-37,12
-136,-201,-4,44,33,54,40,44,11,-10
-207,-230,-24,66,72,81,87,121,81,-8
-166,-70,-2,107,121,41,0,12,-17,13
6,175,60,106,171,-4,-97,-106,-113,-17
58,242,56,68,152,-24,-91,-94,-104,-63
30,202,19,76,45,-23,-39,-19,-34,-44
-22,16,-38,54,-51,-13,0,36,21,-21
-57,-147,-10,77,-171,-19,36,80,64,-15
-45,-203,10,197,-85,1,42,50,24,-76
54,-108,-41,66,-50,45,32,22,4,-9
113,1,-64,-230,-124,35,28,9,8,73
187,196,14,-387,-143,-10,58,41,58,108
257,364,90,-437,-165,-69,21,51,56,127
175,341,114,-374,-164,-58,-27,13,42,81
-44,86,76,-106,-46,-25,3,8,-10,-30
-201,-208,-5,174,133,22,12,-23,-77,-65
-87,-195,-52,188,151,34,-17,-45,-54,35
56,-100,-70,109,86,19,0,-27,-3,31
14,-109,-60,58,44,6,14,-3,20,30
-63,-205,-46,56,27,26,9,-2,12,-1
-159,-339,-69,23,20,46,16,-22,-30,-102
-128,-123,-24,-16,-40,-22,-2,-14,-13,-96
37,318,52,-12,-95,-63,-9,25,72,41
58,310,37,23,-48,-31,4,46,93,77
-64,3,3,71,44,-5,-16,12,34,7
-198,-139,-34,67,73,0,-33,-23,-40,-114
-178,-57,-48,31,90,26,-15,13,-17,-131
-25,-28,-50,-36,40,26,-2,33,35,-13
41,-47,-37,-68,-31,-17,-4,24,43,17
58,0,15,-21,-20,-20,-7,-15,-39,-46
71,43,20,-38,-6,29,42,-3,-46,-5
88,64,5,-33,-7,12,50,-9,-15,99
99,86,19,28,1,-1,-5,-45,-7,133
32,49,40,83,60,0,-55,-70,-41,28
-15,9,83,96,48,-28,-84,-58,-45,-38
-42,104,117,94,9,-29,-80,-28,-25,-75
-67,114,87,94,32,-2,-51,-24,-52,-80
-17,-9,19,131,111,19,-6,-18,-18,7
29,-65,-31,123,67,-13,7,-25,-15,69
106,-10,-46,12,-60,-35,16,13,26,108
200,59,8,-76,-60,-2,38,62,66,65
162,-26,0,-169,-35,18,34,31,39,-10
13,-136,-71,-285,-124,36,32,14,22,-49
-66,-104,-44,-236,-225,5,62,47,44,-29
-84,-38,10,48,-31,-20,36,37,69,23
-67,-59,-36,128,79,-37,-11,1,62,95
-85,-61,-55,76,83,-26,-31,-16,18,46
-100,-53,-26,-15,40,-17,0,-6,1,-25
-26,40,7,-77,2,-10,10,12,9,-28
25,44,15,-117,-30,0,4,8,19,-36
41,4,35,-9,-19,13,12,3,-8,-48
41,77,50,188,52,26,3,-4,-17,-33
23,147,60,193,90,37,33,4,2,-8
-17,83,71,93,88,47,47,-4,-7,-14
-56,36,42,0,39,24,16,-29,-44,-56
-3,-7,-19,-134,-81,-39,-15,-6,-9,-36
64,-48,-42,-134,-109,-40,-12,30,50,40
63,17,-34,-22,0,19,8,29,44,60
43,45,-43,42,73,40,5,28,42,42
3,6,-36,59,94,11,-8,-29,0,-27
-28,81,0,68,71,-44,30,-66,-50,-61
-61,20,5,52,-8,-52,18,-41,-58,-71
-77,-121,-4,86,-56,-72,-65,-20,-15,-69
-75,35,53,301,77,-36,-107,-37,-17,-88
-41,223,101,380,191,31,-92,-36,-36,-85
14,117,77,129,152,66,-69,-19,-25,-17
-2,-202,-35,-249,-40,26,13,16,36,60
-62,-321,-106,-420,-140,32,84,37,43,37
53,-70,-68,-493,-285,21,99,65,61,82
213,89,9,-384,-446,-39,93,125,174,209
169,-26,26,-134,-290,-81,46,130,230,191
69,-101,-55,-31,17,-16,22,89,173,85
-28,-105,-92,-8,146,45,28,24,75,-6
-84,56,-17,52,155,60,47,1,20,-28
-55,191,28,113,150,87,59,-1,-4,-39
-43,4,-37,103,113,58,34,-35,-17,-72
0,-111,-63,74,91,18,11,-39,-25,-40
17,-8,49,150,92,-19,-26,-59,-61,-57
19,50,102,247,102,-58,-76,-114,-149,-148
50,9,38,245,38,-81,-69,-100,-133,-147
14,-39,-21,181,-66,-40,-1,-20,-41,-51
42,209,15,-20,-173,-27,25,39,52,133
99,495,94,-225,-98,3,8,13,47,89
3,365,79,-308,-32,19,15,-2,18,3
-121,-20,-6,-275,-54,5,16,-6,20,47
-115,-220,-30,-62,-29,-15,0,0,30,126
-184,-223,8,110,21,-10,1,12,45,72
-195,-153,5,131,66,39,19,18,35,-10
-121,-78,3,89,92,73,38,16,29,-36
-21,-55,-10,20,50,51,47,16,54,4
146,-93,-47,-12,-6,15,24,18,64,67
143,-229,-61,23,7,21,29,16,11,10
41,-263,-34,54,22,23,21,11,-12,-86
43,25,-43,0,9,27,35,26,-8,-65
49,261,-23,-31,-8,36,38,9,-12,-47
23,226,8,-11,-20,-18,-1,-53,-66,-56
32,165,62,14,-20,-47,-42,-59,-62,-20
67,108,62,7,-28,-63,-64,-27,-22,62
22,34,30,28,11,-45,-50,-6,2,99
-21,2,21,47,35,-15,-38,21,19,43
-57,43,20,46,36,6,-43,9,-15,-63
-32,-5,16,33,25,24,-30,7,-31,-85
0,-128,-19,29,28,13,-8,0,-13,-21
-17,-170,-52,80,83,7,-26,-43,-63,-41
-21,-137,-56,85,73,16,-36,-57,-98,-62
8,-70,-49,55,5,14,-9,9,-15,11
15,4,-42,54,10,3,24,54,78,18
106,102,-46,-51,-34,-22,0,35,74,3
101,106,-47,-186,-55,30,19,21,44,68
-2,-67,-28,-201,-31,40,8,-8,7,109
-79,-91,25,-141,-51,-40,-48,-66,-86,14
-48,-51,63,-125,-157,-80,-4,-7,-72,14
-59,-143,45,41,-68,-78,20,23,-44,27
-66,-66,25,180,90,-42,-13,0,-20,-26
-15,36,34,157,121,29,7,13,-3,-20
-7,-13,-12,-11,13,39,36,16,0,-4
-49,-120,-31,-97,-78,13,34,37,9,-47
-38,-264,-80,-74,-119,4,7,51,35,-58
-48,-344,-89,6,-37,-16,-24,34,36,-52
-49,-217,-40,67,93,-30,-68,-21,-8,-37
8,149,32,101,142,-10,-68,-66,-81,-23
55,533,99,64,107,25,-5,-28,-70,-21
123,670,112,-72,-44,-2,31,17,-35,29
215,426,158,-114,-188,-27,34,24,-17,90
116,65,108,-65,-198,6,47,4,-58,49
33,-121,-1,-63,-89,55,58,13,-43,31
33,-139,-60,-57,42,58,19,-2,1,64
-61,-134,-63,5,67,15,-42,-51,-23,-13
-87,-91,-12,81,22,-14,-55,-27,-13,-26
-72,-75,-49,10,-23,-19,-41,6,20,1
-52,-62,-98,-70,-29,-40,-35,3,6,9
-44,-59,-84,-91,-36,-70,-64,-34,-33,33
21,-28,-40,-49,-49,-95,-65,-16,-29,22
76,43,19,37,7,-63,-31,12,-2,-20
57,64,61,85,56,-8,-2,-4,-7,-67
13,10,52,95,55,4,-11,-23,-9,-46
1,-30,7,114,55,0,-25,-24,-29,-25
-86,-71,-32,224,146,22,-33,-42,-75,-100
-142,-92,-36,276,190,36,-38,-71,-95,-144
-56,35,-2,164,103,14,-31,-79,-87,-92
49,112,15,-14,-13,-40,-29,-44,-64,6
80,47,10,-256,-81,-19,-19,-21,-19,102
170,53,26,-463,-114,35,33,31,31,174
175,-125,-1,-394,-154,52,81,104,91,144
-39,-478,-86,-53,-95,0,44,95,73,19
-109,-497,-105,65,-51,4,44,107,92,-21
-89,-207,-37,87,19,113,109,118,110,-22
-65,274,127,186,85,90,60,43,38,-66
-14,502,172,128,29,29,15,-31,-51,-40
21,311,34,-58,-31,11,73,-42,-52,17
59,97,-58,-88,-33,-27,63,-60,-35,63
63,108,-49,-48,-52,-70,-50,-56,-2,140
-52,221,-22,-2,-53,-61,-82,-18,26,98
-190,143,-18,134,30,-37,-102,-32,-40,-34
-237,-142,10,243,88,-13,-104,-10,-47,-84
-154,-282,52,183,64,0,-36,41,26,-29
43,-226,47,-15,30,30,25,40,57,11
115,-165,34,-169,5,41,37,21,31,12
51,-50,40,-240,-46,32,23,-4,-3,-11
1,17,-3,-163,-68,-6,10,-6,7,-32
-37,16,-28,97,6,-52,-27,-24,3,-50
-85,64,-49,225,111,-30,-30,-35,-7,-120
-58,87,-40,112,93,51,68,6,18,-109
50,38,-23,-80,-57,40,116,67,82,-6
203,49,-16,-183,-128,-18,50,60,79,108
336,97,-3,-247,-142,-55,-16,19,66,217
229,85,10,-231,-126,-42,-38,-3,45,202
-48,8,17,-6,1,11,-45,-35,-31,-23
-200,-72,38,165,99,49,-38,-38,-69,-147
-152,-76,21,141,95,37,-1,-15,-23,-69
-2,-52,-5,59,41,-5,11,15,39,-29
70,18,28,41,7,-22,-4,33,60,-35
41,125,55,79,59,-24,-32,-5,9,-33
10,148,28,122,130,8,-9,-47,-53,-30
-61,87,-9,94,129,25,-8,-58,-81,-12
-118,-37,-36,58,79,21,-19,-50,-48,31
-123,-231,-45,107,33,17,-2,-23,-1,56
-114,-226,-43,60,-95,-13,33,38,38,0
9,-24,-23,-94,-246,-51,53,95,87,6
96,62,-7,-157,-163,-21,30,53,59,0
65,-28,-15,-179,-39,5,5,-13,16,-40
60,11,20,-198,-46,-5,7,-26,14,-12
84,167,92,-66,-25,-10,11,8,63,82
120,210,109,133,46,5,24,8,54,108
150,166,63,165,84,45,43,11,52,55
57,-59,-11,71,130,68,49,20,36,3
-99,-333,-74,38,147,65,40,-1,-26,-68
-189,-401,-107,41,94,27,22,0,-32,-93
-142,-74,-69,6,7,-9,16,24,16,-38
-37,380,-6,20,-16,-6,4,22,48,-18
-6,249,-14,-14,-50,9,3,-5,25,-12
-3,20,-32,-62,-162,-23,0,-1,13,58
25,-87,-42,-19,-98,-46,-34,-24,-11,56
-45,-69,-33,66,11,-42,-56,-52,-57,-105
15,251,80,103,19,7,-15,6,-18,-76
76,228,106,66,61,47,9,11,-8,2
1,-73,-9,-98,71,15,-16,-40,-71,-29
28,-134,-58,-242,-37,-30,-27,-32,-67,-4
146,19,-29,-235,-119,-34,-11,2,-12,103
106,87,-62,-99,-83,-35,-11,6,-6,108
-20,38,-62,41,-40,-24,-14,6,-30,15
-92,-97,-34,84,8,-8,-4,16,-43,-48
-100,-140,-10,50,45,-4,-8,-3,-51,-57
-61,-71,60,26,36,-5,-11,0,-35,-43
-77,-17,152,128,32,-35,-48,-37,-68,-60
-6,11,155,150,0,-33,-58,-33,-55,0
120,19,87,18,-29,5,-2,41,10,101
99,-2,-23,-82,-10,18,36,58,37,74
49,27,-77,-88,14,-4,12,8,11,12
-2,11,-56,-24,55,18,-1,-12,8,-15
-39,-60,-47,36,85,55,9,-10,-5,-29
-50,-148,-24,65,48,27,-5,-9,-19,-26
-34,-217,-5,57,16,2,-23,-11,-17,0
-4,-278,-35,5,8,16,-1,2,10,11
21,-170,-51,-64,-47,-17,27,16,27,3
12,96,-24,-78,-52,-28,58,17,19,-7
-51,84,8,-15,14,29,61,23,13,-12
-109,-31,45,55,74,81,55,23,28,-40
-61,77,63,35,28,17,28,-10,23,-56
15,309,50,-15,-33,-28,-25,-28,10,-56
134,415,82,-4,-28,-20,-47,-26,5,-8
123,200,45,19,13,3,-43,-43,-32,-20
30,-54,-41,-17,3,-32,-45,-68,-53,-17
40,-115,-43,12,-29,-81,-48,-40,5,105
37,-56,-13,66,-58,-53,-31,11,56,168
-29,30,15,66,-32,0,12,45,77,59
-104,-88,2,34,53,71,57,46,44,-17
-121,-146,-36,-29,53,70,43,15,35,-51
-122,-113,-66,-90,25,61,31,-4,19,-81
-56,-46,-59,-88,24,44,11,-26,-18,-44
33,-16,-21,23,27,-19,-28,-19,-9,43
6,-62,14,133,56,-53,-57,-17,-18,-16
24,-56,45,99,2,-65,-35,4,-22,-66
34,-10,42,47,2,-16,18,28,6,-60
63,224,39,19,41,6,22,18,1,5
113,373,60,-49,21,-4,2,-2,12,112
41,95,-20,-106,-63,-5,-10,-20,0,121
-38,-113,-60,-40,-92,-18,-27,-30,-32,39
-30,-137,-29,-63,-134,-8,3,17,-14,9
44,-60,-50,-212,-184,-38,50,77,64,61
1,-50,-79,-261,-99,-40,46,63,64,18
-38,-48,-41,-124,-3,-1,-18,-10,-34,-48
-4,8,-20,44,62,8,-62,-44,-78,-40
4,112,-10,145,145,23,-49,-27,-73,-18
-3,170,25,194,162,37,-32,-17,-54,-24
-17,-33,43,177,79,24,-39,-19,-46,-39
-25,-271,65,114,24,18,-7,1,-11,-36
-5,-283,60,-55,-79,14,31,66,48,33
27,-105,-4,-191,-217,-27,40,87,104,62
12,106,-52,-142,-145,-62,-38,-4,38,-7
-12,214,-17,-26,9,-54,-62,-41,-32,-47
31,470,92,16,51,-2,-4,0,-24,0
78,528,146,70,58,36,25,-4,-46,34
20,57,42,84,68,42,18,-30,-105,-11
-5,-240,-54,48,55,15,-4,-31,-89,-30
-15,-220,-44,31,56,2,-24,-30,-52,-40
-28,-144,0,27,38,-6,-31,-13,-13,-40
-9,-126,0,18,-3,-27,-23,6,1,-15
4,-214,-4,21,-21,-26,0,15,7,26
-22,-324,-26,42,26,33,36,31,23,46
18,-286,-46,48,52,58,37,19,13,57
14,-201,-102,63,57,33,14,-4,-9,0
-36,-117,-108,80,56,-13,-21,-32,-27,-78
-70,-52,-68,70,-12,-19,-27,-40,-28,-70
-99,30,-40,-45,-85,-2,4,-12,-1,-26
-112,161,-26,-181,-74,10,6,3,-15,-4
-9,489,65,-231,-65,4,12,19,21,66
71,673,132,-163,-45,-17,18,12,52,47
106,383,111,-10,-17,-67,-2,-16,15,8
97,33,39,31,12,-42,-5,-20,-5,3
101,-165,-44,81,48,6,27,-8,4,20
154,-262,-38,214,88,20,40,25,29,32
74,-300,16,214,111,49,48,41,46,15
-122,-291,0,107,163,54,7,-36,-11,-66
-250,-240,-65,-75,88,28,-49,-102,-93,-127
-244,-136,-63,-158,-107,-4,-25,-58,-65,-63
-213,24,-11,-19,-263,-54,0,4,4,-25
-161,334,84,192,-144,-66,7,36,68,-13
63,390,178,78,-109,-40,31,73,120,70
237,248,174,-140,-114,8,52,70,96,105
166,26,15,-234,29,96,95,71,92,63
106,-78,-80,-239,42,108,101,68,108,41
157,16,-71,-159,-21,7,25,42,90,45
152,38,-33,-16,-4,-46,-30,3,47,39
112,-1,-48,42,13,-45,-18,-6,25,26
65,-29,-48,58,21,0,3,-21,28,31
-26,-106,-21,118,83,27,11,-41,10,23
-97,-176,-23,216,150,1,-24,-49,-20,-19
-146,-187,9,246,144,2,-58,-64,-68,-105
-156,-191,25,197,111,58,-16,-36,-52,-129
-144,-172,-6,89,78,76,36,-36,-37,-165
-32,-6,-17,-86,-11,45,27,-58,-48,-127
73,173,-38,-337,-233,-25,10,-1,-16,-16
118,388,5,-294,-295,-98,-11,63,3,22
113,482,65,86,-19,-65,-28,64,13,78
47,236,65,208,112,52,-12,31,25,118
-78,-82,16,154,120,80,-36,-20,-5,28
-153,-237,-50,8,123,35,-60,-66,-58,-85
-106,-253,-109,-209,46,-31,-49,-58,-36,-7
42,-133,-63,-285,-95,-77,5,23,65,109
97,-9,0,-76,-49,-69,26,92,105,82
11,-39,-50,72,44,-55,-14,6,19,-23
-7,-61,-9,25,-54,-30,-17,-43,-41,-47
106,1,80,-48,-252,-17,32,21,38,38
131,32,49,-76,-238,22,96,110,127,109
93,51,14,3,2,44,70,70,77,81
44,44,54,99,124,10,9,0,10,36
8,-42,12,82,110,-19,-35,-13,-43,0
-68,-140,-46,9,62,-26,-27,14,-58,-50
-112,-137,-28,-30,41,0,-19,2,-63,-103
-62,117,30,0,69,-14,-53,-53,-93,-101
-4,498,43,38,51,-35,-74,-63,-83,-47
43,414,37,124,33,-5,-32,-32,-59,3
122,-11,46,220,49,23,5,0,-35,70
91,-332,29,145,32,68,32,21,-17,23
21,-275,23,-2,18,69,44,-5,-29,-32
-34,-107,8,-135,-31,19,36,10,-2,10
-97,-23,-1,-164,-32,-24,1,14,18,43
-132,-1,-46,-120,15,-23,-15,-6,-1,38
-141,-7,-82,-16,62,-28,-44,-36,-68,-41
-166,66,-57,73,84,-32,-60,-33,-86,-127
-58,93,-37,150,69,-63,-79,-27,-39,-102
122,90,-15,108,-113,-107,-58,-1,32,32
152,53,63,64,-215,-48,36,55,71,81
89,-61,41,-3,-76,34,81,33,11,29
25,-319,-34,-220,-46,61,73,21,14,18
-31,-560,-31,-329,-77,71,95,48,49,56
-81,-433,3,-207,-21,62,58,15,11,-10
-81,65,40,107,92,62,21,-18,-44,-46
7,561,56,201,109,88,25,2,-9,15
64,464,4,70,36,60,-5,-7,3,19
43,165,-49,-5,24,-7,-45,-26,-18,-8
-38,-113,-60,-36,49,-54,-78,-51,-35,-67
-16,-15,25,-53,-3,-65,-62,3,3,-71
60,133,70,-84,-97,-97,-31,67,95,9
51,15,29,-8,-57,-71,-14,33,57,46
2,-101,-30,45,9,-19,-8,-37,17,64
-44,-197,-71,42,46,18,16,-41,20,23
-51,-232,-87,22,14,-5,16,-40,1,47
23,-73,-32,32,-2,7,29,-4,-25,23
120,119,14,55,30,59,68,32,-2,8
31,81,31,95,61,58,45,17,26,33
-122,-81,20,104,75,33,0,-24,-11,-27
-183,-213,-8,79,63,0,-29,-45,-52,-118
-153,-119,-25,166,96,-20,-45,-37,-46,-129
-57,132,10,145,27,-36,-37,-15,3,-17
2,294,50,36,-54,-38,-26,-10,42,119
-6,304,84,-108,-50,-16,-23,-24,10,52
-32,110,30,-210,-34,12,-1,-29,-20,-57
22,65,-14,-270,-83,49,43,16,7,-6
110,82,-67,-202,-105,38,71,64,70,79
91,4,-50,-30,-24,-14,39,41,59,55
66,-65,12,-33,-45,-44,11,12,33,27
75,-15,82,-42,-79,10,31,32,34,38
37,81,94,81,-7,53,17,22,27,-2
-61,-1,-32,80,31,52,17,3,-22,-89
-9,56,-69,39,1,-6,-8,-5,-9,-30
80,105,-28,29,-2,-64,-20,9,44,63
88,-25,-6,43,60,-54,-17,17,49,88
59,-192,-14,53,140,-3,-11,3,34,60
22,-152,-51,7,101,16,-14,-21,-1,-22
51,-32,-55,0,41,6,-17,-25,-18,-69
-12,-36,-7,66,-3,6,-16,-53,-67,-90
-136,-79,50,129,-71,-17,-14,-62,-79,-105
-192,-105,47,91,-128,-43,3,-17,-11,-82
-104,-3,59,61,-34,-8,25,8,5,-22
50,266,76,1,44,10,18,22,21,34
102,419,56,-92,15,26,37,39,53,54
51,288,22,-70,46,36,25,13,10,53
-16,-12,-3,-86,43,41,17,-11,-22,0
-8,-176,33,-108,-15,24,13,8,-8,-7
-45,-318,5,-83,-54,11,29,32,4,-24
-61,-383,-73,-66,-58,-5,38,44,32,-19
-87,-524,-146,6,-8,30,52,89,77,56
-132,-491,-154,40,32,48,69,104,107,113
-83,-47,-58,85,71,7,0,14,31,61
14,272,0,188,160,-26,-90,-85,-63,-15
102,306,32,214,144,-40,-88,-81,-60,-23
190,300,103,210,96,-58,-94,-78,-33,3
193,203,101,76,36,-42,-82,-95,-85,-77
66,100,41,-173,-111,-23,-46,-65,-116,-130
28,83,6,-383,-318,-33,-2,26,-25,-16
0,20,8,-390,-363,-55,2,64,28,68
-99,-124,-30,-189,-137,-21,-3,16,-7,61
-89,-87,-12,-78,0,40,58,49,15,85
-73,-101,-40,-58,38,56,83,67,71,108
-4,-167,-71,-98,-8,0,61,61,107,162
69,-82,-25,-12,31,-6,20,32,37,93
8,12,-2,142,124,30,-17,-27,-104,-71
-51,0,10,194,147,36,-40,-81,-161,-143
-55,-27,-12,139,77,-7,-51,-75,-148,-130
-17,34,-35,24,0,-40,-37,-29,-85,-80
54,125,-13,-22,-32,-29,-7,12,14,-13
-1,118,0,-8,-21,11,10,22,8,-44
-25,21,17,14,-19,12,2,6,-19,-33
25,-107,28,21,-7,-8,-10,1,-4,24
0,-153,3,44,50,16,-1,-6,-8,34
-18,-72,0,44,66,32,-6,-30,-46,27
24,85,15,31,34,2,5,10,-11,73
35,72,-8,12,4,-10,14,41,47,56
13,-77,-6,5,1,-10,-27,1,14,-28
13,-78,43,19,0,-32,-58,-37,-49,-83
13,68,120,72,21,-40,-58,-73,-93,-110
-25,295,133,82,29,-2,-23,-50,-93,-87
-68,277,66,54,28,25,0,-19,-67,-50
-82,26,-31,0,-3,9,-7,-3,-22,-68
-41,-29,-19,-2,-7,7,46,35,42,-53
49,-48,0,6,11,4,61,46,95,35
89,-88,-8,7,29,-14,7,23,80,63
63,-96,-50,-24,2,-13,-11,15,31,46
7,-83,-66,-14,10,16,-5,28,60,75
-70,-187,-93,10,20,16,1,39,109,59
-120,-211,-108,16,-9,-11,-32,1,62,-23
-83,63,-44,27,-90,-56,-44,-51,30,-26
65,612,133,92,-109,-53,-28,-52,43,63
139,549,147,78,-5,-5,-21,-57,-12,59
49,-198,-9,-22,71,44,-11,-58,-83,-54
-13,-413,-37,-56,66,91,45,8,-49,-78
-2,-102,12,-86,-55,41,59,105,108,11
9,41,7,-103,-110,-27,43,113,159,102
35,27,2,-86,-47,-33,17,17,35,110
77,7,12,-146,25,25,24,-34,-15,141
35,-77,-19,-151,67,39,20,-11,13,61
-68,-151,-44,22,88,11,0,-30,-38,-89
-65,-138,-62,68,42,-23,-7,-17,-37,-81
17,-13,-49,10,-63,9,17,11,-1,-65
127,130,-2,9,-111,-4,20,44,17,-37
117,68,0,-58,-170,-15,34,67,43,-14
56,-8,-1,-79,-89,15,41,69,37,-14
11,120,39,4,82,28,7,25,-3,0
-42,163,52,107,147,40,-2,-12,-21,49
-132,-4,46,168,129,11,-43,-50,-68,44
-208,-138,39,161,73,-5,-67,-59,-100,-23
-157,-149,34,89,8,-22,-41,-45,-69,-27
-40,-114,7,-14,-67,-43,-35,-20,-47,2
-41,-51,0,-87,-117,-52,-23,21,-11,25
30,80,7,-121,-134,-63,-23,19,-2,5
94,219,-28,-120,-29,-13,-18,1,-34,-72
125,221,-62,-74,15,17,-22,-17,-47,-20
147,127,-40,7,24,2,-47,-53,-37,57
94,68,15,104,35,-33,-77,-77,-58,-8
-5,27,50,199,101,0,-55,-94,-93,-116
-69,-14,23,161,86,31,9,-5,-36,-84
-65,-51,22,72,35,30,59,79,60,9
-38,-268,24,13,29,14,36,66,88,78
-106,-587,-39,-51,60,73,47,49,53,41
-121,-407,-80,-175,-26,49,56,38,39,-13
-21,-5,-20,-148,-118,-25,13,23,54,2
27,71,-5,31,-112,-110,-52,-7,23,10
91,100,-29,68,-124,-123,-56,-16,10,32
86,100,-64,-7,-80,-16,3,14,9,48
-35,-91,-89,-76,31,80,36,-5,-48,-28
-89,-104,-59,-132,90,120,52,-15,-73,-77
16,195,35,-174,35,105,76,37,-7,-44
79,231,89,84,80,12,22,27,28,-13
71,128,101,333,181,-81,-59,-57,-21,-19
113,348,87,156,91,-59,-66,-70,-27,25
180,550,78,-101,-43,0,-13,-11,10,62
218,275,3,-253,-160,10,16,16,34,102
93,-4,-38,-310,-306,-27,23,9,37,32
-66,-107,3,-174,-328,-56,20,44,66,0
-210,-125,-14,66,47,24,13,6,13,-54
-236,-68,-85,50,139,16,-30,-66,-35,37
-173,-84,-132,-29,22,-67,-50,-50,15,117
-122,-173,-48,7,0,-32,1,23,70,17
-77,-276,71,107,47,39,38,55,51,-33
51,-205,85,116,77,41,32,34,18,-21
122,2,13,79,80,29,10,19,6,-22
96,118,-27,72,71,19,12,8,-2,-13
41,78,-9,69,45,10,1,-2,4,4
-6,-112,-2,12,20,4,10,5,18,17
-78,-298,-11,-19,22,24,30,31,45,0
-126,-223,-9,-38,24,35,14,9,-3,-76
-83,-29,19,-53,-16,11,4,-25,-52,-94
-23,177,17,9,4,10,9,-9,-33,-43
19,251,-2,39,24,12,14,-1,11,5
33,67,-16,25,23,0,7,-5,1,7
51,-94,0,37,30,10,2,-6,3,5
95,-46,25,44,7,5,3,-6,11,34
91,-4,33,13,-10,-7,-3,5,29,48
44,-55,-14,-41,-31,-4,-4,15,33,20
18,-77,-17,-22,-16,1,-11,-6,14,-4
-11,35,3,62,33,-5,-17,-35,-38,-45
-45,261,23,139,83,-10,-2,-34,-35,-69
-39,210,16,122,69,-20,4,11,25,-28
-5,42,7,36,9,-12,19,47,71,21
32,-23,20,-40,-37,11,28,41,64,55
29,-12,34,-94,-31,39,42,25,31,22
34,71,40,-166,-52,29,44,10,53,20
15,4,5,-98,-1,12,15,-4,67,22
-50,-99,-58,12,106,38,4,-62,-20,-51
-16,-73,-67,32,77,-20,-15,-70,-38,-30
30,-14,-33,32,16,-67,-7,-18,-13,23
22,5,-9,13,-46,-47,-7,-5,-5,8
-13,8,-11,-26,-107,-8,10,12,-15,-29
-19,3,-27,-47,-171,4,4,30,-28,-37
-44,-39,-3,-4,-86,19,-29,-15,-78,-45
-99,-91,0,-37,10,54,-33,-38,-105,-70
-31,-58,13,-69,-8,10,-24,10,-32,0
45,-13,3,-49,17,-16,7,67,50,53
58,-33,-53,-66,0,-27,27,84,84,107
60,-58,-59,-45,-16,-30,5,66,68,106
78,-50,-2,4,-24,-37,-32,26,47,58
135,31,54,60,-4,-37,-57,-37,-9,53
131,329,129,85,22,-35,-44,-57,-42,41
-44,452,112,77,42,-15,-19,-58,-51,-8
-154,120,28,77,63,13,-29,-71,-102,-67
-183,-160,-25,94,95,36,-29,-59,-151,-130
-187,-151,5,142,116,41,-34,-44,-135,-129
-89,-43,35,137,80,35,-7,-7,-72,-30
1,-29,-35,40,40,21,6,-2,-70,-9
83,-62,-94,-78,-52,-31,-13,16,-24,44
135,-45,-88,-191,-158,-62,5,57,70,112
145,-29,-45,-216,-163,-41,2,43,82,100
86,-68,14,-73,-69,-49,-47,-11,10,16
-46,-279,-43,76,46,-38,-30,-32,-36,-67
-129,-356,-44,132,71,20,31,22,-10,-73
-155,-171,65,180,61,58,70,93,60,-35
-112,189,167,134,84,77,70,88,69,-23
48,367,102,-103,47,45,30,20,12,-5
93,102,-18,-303,-34,14,-4,2,3,22
53,-200,-51,-248,-52,30,5,9,26,82
2,-148,-86,-41,-35,3,-2,-20,-2,43
21,69,-84,60,-11,-27,-26,-45,-21,17
44,146,-27,94,17,-21,-30,-15,-2,36
-52,13,-17,50,0,-6,-8,33,29,-33
-139,-149,-21,3,1,6,7,26,10,-117
-104,-93,-25,-12,40,27,5,-23,-39,-148
1,17,-27,-37,-6,0,-23,-43,-31,-85
144,188,3,-92,-200,-90,-16,9,54,60
123,260,52,1,-148,-80,13,22,61,109
38,74,65,105,40,12,15,-16,-14,66
-10,-25,30,67,79,16,2,-27,-57,18
-10,-125,-28,-3,35,11,-8,-16,-38,-5
21,-153,-50,3,32,37,14,0,-3,-17
71,141,6,44,59,32,16,28,46,9
95,348,45,4,10,12,30,53,85,44
7,117,-4,-37,-16,18,29,20,51,43
-130,-165,-10,-17,19,12,-13,-35,-18,-46
-184,-158,82,38,19,-27,-47,-85,-90,-181
-46,-41,137,33,-52,-65,-53,-60,-51,-22
46,15,71,10,-57,-39,-36,-21,14,125
29,-16,-8,17,24,28,12,14,30,54
29,-98,-67,-13,47,57,49,30,56,25
6,-143,-105,-32,21,47,45,33,65,19
-32,-146,-99,-26,5,33,32,11,51,-51
-20,-113,-60,-12,-14,3,9,6,50,-50
-2,-72,-38,-28,-22,-5,0,17,65,-8
0,28,-22,-6,6,-6,9,-3,29,-15
6,265,39,154,115,10,6,-24,-7,-26
-26,266,57,346,234,2,-31,-74,-51,-85
-64,36,20,249,177,-3,-40,-81,-73,-108
-70,-2,5,29,34,0,-25,-47,-71,-87
-46,83,23,-77,-33,24,-15,-36,-57,-67
-4,137,41,-190,-140,13,13,-8,-12,8
141,87,86,-311,-338,-12,55,51,45,146
276,129,116,-208,-258,3,86,100,128,272
228,124,66,-82,-55,24,62,94,145,201
98,8,5,-97,3,-1,42,79,126,77
-26,-116,-42,-128,11,18,68,67,88,-27
-81,-116,-56,-57,45,34,40,32,19,-103
-17,-37,-39,18,21,-9,-1,10,10,-56
0,-19,-21,80,29,3,-6,-11,2,-33
-12,-55,-25,100,38,9,-25,-54,-20,-41
-19,-57,-21,93,25,-15,-56,-88,-45,-28
-30,-54,-9,77,48,-18,-47,-64,-41,69
30,-3,-26,68,109,6,-15,-10,-2,167
5,40,-17,125,121,0,-17,9,7,89
-130,-84,2,129,85,14,-11,-2,-32,-86
-182,-231,7,65,37,38,0,-6,-38,-146
-130,-170,16,-24,-42,40,3,-1,-23,-82
-85,-52,-6,-131,-164,-8,-22,0,-16,-37
-31,22,-16,-170,-230,-58,-8,36,32,6
-39,70,-23,-99,-95,-67,-19,32,34,3
-50,94,-16,-21,12,-57,-29,-1,-12,-56
86,69,0,10,42,-1,-2,2,-26,-24
144,17,8,21,38,18,17,-33,-73,14
63,-40,1,23,49,19,-2,-66,-123,-41
-2,-94,-30,3,25,20,4,-21,-95,-54
-5,-78,-7,51,4,0,13,4,-46,-12
-60,-88,-1,97,54,-1,1,-44,-96,-57
-31,9,3,34,30,1,-2,-13,-78,-23
77,180,38,-28,-44,-32,3,38,-7,60
108,235,19,-33,-11,-22,0,43,13,64
88,67,-10,-27,-17,-15,-26,30,9,29
88,-66,16,19,-14,-22,-68,0,5,22
66,-133,5,31,14,-5,-43,-24,-19,26
163,-140,-23,27,38,15,-16,-50,-34,6
188,-61,-20,13,28,24,-2,-31,-14,77
-29,87,18,-57,-51,-19,-1,20,15,86
-192,282,59,-115,-117,-49,19,48,28,-8
-237,262,36,-76,-59,-10,59,58,47,-22
-192,83,4,55,72,39,33,23,27,43
-129,-74,-31,95,77,21,-8,-22,-21,63
-132,-127,-43,46,31,-15,-15,-35,-35,-46
-17,-107,-34,60,88,8,-32,-34,-39,-90
123,-65,-13,41,108,31,-31,-28,-29,-25
112,-36,1,-54,-2,-12,-12,-22,-19,10
18,-48,22,-95,-101,-54,-22,-22,-27,-45
-49,-118,6,-18,-131,-50,2,0,-24,-78
-14,-129,-28,-21,-151,-49,52,57,53,70
45,-15,-47,-94,-155,-66,41,66,109,145
43,110,7,-7,2,-5,12,26,54,15
4,144,36,61,133,53,12,-12,-12,-86
-20,-16,45,50,127,81,29,10,-4,-69
-44,-175,13,55,120,68,38,3,-7,-60
-9,-112,-24,16,64,34,12,-28,-24,-43
54,-57,-65,-47,-20,4,-11,-11,40,64
60,-20,-75,-31,-21,14,14,43,100,49
45,29,-3,117,44,7,6,35,74,-12
87,39,22,197,49,-27,-32,0,36,27
47,80,30,95,-5,-39,-33,-9,18,1
-38,140,42,-36,-40,-49,-18,-29,19,-29
-15,278,67,-63,42,15,11,-30,33,2
-10,296,26,-111,59,67,34,-7,27,-14
-51,-18,-28,-110,6,70,56,-1,-15,-65
-48,-221,-1,26,4,15,23,-23,-29,-16
27,85,71,44,-39,-51,-44,-52,-49,26
46,409,83,-43,-124,-6,11,-5,-38,54
36,29,-8,-116,-116,22,51,68,40,91
-54,-455,-131,-138,-23,35,40,61,66,26
-73,-308,-159,-148,-70,25,51,76,59,-23
-23,-108,-85,-55,-74,9,59,114,105,21
-2,-104,19,116,47,6,9,49,66,1
-17,-26,81,179,104,-10,-70,-71,-55,-41
-73,-96,59,146,83,-34,-115,-123,-133,-40
-55,-205,31,38,40,-41,-95,-88,-118,14
30,-50,47,-20,-3,-35,-32,-16,-39,100
34,259,50,-8,15,7,35,32,0,67
-1,390,42,46,77,41,27,1,-56,-60
-6,303,9,6,28,11,-23,-8,-66,-57
30,90,-16,11,15,-18,-35,6,-22,9
39,-75,-23,73,57,-24,-28,-15,-33,-4
9,-144,-34,37,41,-4,-14,-30,-23,-38
4,-158,-28,-22,-31,2,-24,-25,-5,-45
2,-100,26,-48,-73,0,-33,-37,-42,-43
-21,-45,13,-127,-165,-25,-15,-16,-55,-28
-10,-44,-29,-181,-189,-43,9,6,-4,-10
24,-8,-23,-67,-47,-19,24,16,17,14
31,56,-14,27,51,18,23,10,-5,-10
29,28,-11,47,68,14,17,-5,-3,-37
21,-58,-11,58,61,18,13,-9,-11,-44
-12,-75,6,73,57,12,-16,-24,-49,-26
-85,-120,-55,185,118,-11,-64,-64,-94,-36
-70,-118,-86,286,164,-21,-75,-65,-80,-5
-22,54,-41,212,77,-16,-30,-7,-6,39
-15,224,1,19,-40,-11,0,52,63,80
-56,108,8,-253,-127,0,30,78,90,69
-77,-137,40,-379,-178,38,87,92,97,2
74,-47,100,-306,-224,42,110,109,106,81
127,119,62,-108,-107,4,38,50,70,133
12,39,-12,34,57,-21,-33,-39,-16,-12
-14,-25,-23,44,111,0,-40,-77,-53,-110
37,-7,8,42,93,11,-32,-81,-43,-55
78,5,42,25,17,19,13,-18,6,12
75,-11,19,-20,-35,5,17,19,22,24
82,-7,-4,-69,-50,6,23,25,20,49
55,-47,-36,-65,-31,6,66,46,49,77
-14,-113,-66,-5,-16,-25,39,42,52,23
-10,-74,-38,35,-17,-75,-24,-18,-7,-44
5,41,-10,61,11,-52,-40,-44,-13,-44
-21,285,26,90,54,9,-41,-31,10,-38
-87,270,48,90,87,22,-45,-29,-5,-33
-112,-36,63,96,72,-12,-67,-59,-55,-8
-98,-154,70,115,87,5,-31,-51,-69,-35
36,11,38,107,89,45,7,-11,-36,-40
65,-28,-12,76,55,55,20,29,14,-21
-59,-167,-18,32,-2,39,29,56,34,-18
-84,-129,-22,-2,-78,1,39,53,47,10
0,24,-13,-45,-90,-25,49,45,74,61
-19,47,-28,-85,-54,-16,35,22,57,37
-52,12,-45,-151,-104,-7,26,16,59,65
-56,-77,-62,-136,-80,-18,28,0,44,82
21,-14,23,0,39,3,27,-11,7,-4
29,187,92,144,147,32,6,-23,-37,-101
99,402,124,168,155,39,-2,-37,-47,-38
99,241,49,49,60,35,-7,-46,-50,-18
101,-30,-68,-138,-121,0,6,-13,-19,-17
133,-102,-87,-196,-178,-39,18,53,73,21
95,-74,-53,-224,-187,-75,-20,54,95,23
20,-45,-26,-166,-150,-61,-9,42,85,62
-48,-64,-41,-3,-10,-24,12,17,54,83
-71,-34,9,91,53,-10,6,12,19,34
-68,-18,76,164,110,25,-12,-32,-35,-36
23,31,91,174,142,55,-11,-56,-77,-23
21,71,62,129,123,65,8,-26,-70,-73
-21,10,-11,52,37,34,14,-10,-57,-81
-21,-68,-68,9,-36,-19,0,-3,-5,-11
-51,-118,-52,-15,-70,-40,-8,9,19,21
-69,-117,-22,-28,-44,-16,-12,5,18,30
-90,-119,-29,-42,22,2,-8,11,-2,6
-124,-132,-32,-7,117,13,-22,-1,-30,-55
-79,-169,-26,21,119,27,-10,-13,-48,-62
1,-160,-25,41,92,33,0,6,-43,-2
51,-72,-23,10,31,4,-21,-22,-58,7
63,4,-16,-40,-97,-31,-29,-22,-38,-3
112,133,24,-77,-239,-68,-39,14,9,54
113,211,41,-68,-226,-57,-25,21,10,38
77,186,13,-24,-86,-12,4,8,-16,-19
71,160,-7,-39,-9,-16,-9,2,-7,26
38,122,-27,-66,6,-23,-28,-4,-12,90
5,130,-12,-39,12,-26,-28,0,-9,81
-11,119,31,40,43,-16,-23,-27,-29,1
-48,-56,35,75,65,3,-11,-47,-43,-51
-114,-204,0,95,81,2,-11,-50,-68,-97
-106,-163,18,122,79,25,0,-31,-66,-104
-98,-254,9,77,59,45,17,-3,-48,-58
-108,-371,-24,-5,38,40,32,32,-5,-4
-76,-178,-17,-50,23,33,40,40,26,0
27,44,-25,-105,-21,24,15,10,5,-5
85,90,-54,-105,-40,-9,-26,-29,-12,-1
85,91,-62,-56,-5,-37,-37,-37,-14,5
140,324,21,-37,-34,-43,-21,12,20,67
137,429,51,-74,-77,-2,33,45,86,86
112,188,6,-64,-66,8,50,46,91,61
70,6,13,-5,-2,7,33,48,79,44
-57,-190,3,-7,54,36,41,33,25,-31
-133,-329,-2,26,61,25,15,13,-22,-64
-96,-172,28,85,58,15,-2,19,-2,-12
-37,19,71,97,33,-2,-25,13,8,14
-3,32,47,38,-10,-22,-11,0,-4,-26
54,71,2,-13,-28,-22,-7,-17,-26,-66
55,99,-43,-33,-3,-1,5,-24,-43,-89
23,123,-7,9,2,0,4,-26,-45,-67
4,-11,12,22,-26,-24,3,-18,-22,79
-65,-210,-26,-8,-33,-13,-15,-11,10,143
-117,-67,-43,-51,-30,1,-16,2,15,48
-11,240,20,-20,-5,5,-12,11,11,1
63,343,63,43,30,27,9,14,19,1
2,72,0,15,24,18,17,-4,11,8
-23,-160,-68,-36,-29,-10,4,-4,19,37
-10,-194,-48,-13,-10,3,20,21,23,-23
-15,-107,-10,28,27,27,17,10,-16,-62
-8,-29,31,46,38,0,-9,-16,-5,-41
-56,-71,33,56,91,30,2,-19,20,-48
-112,-127,32,82,122,77,28,-18,-4,-91
27,-39,20,83,57,36,11,-1,11,-12
179,92,-22,31,-31,-45,-23,7,37,66
146,172,6,24,-41,-60,-5,24,51,56
56,91,52,27,-30,-43,13,7,7,6
-15,-20,38,-30,-54,-29,4,-12,-6,11
-28,-50,9,-80,-38,7,-21,-39,-22,77
-103,-139,-61,-144,-44,32,-18,-53,-44,57
-72,-76,-56,-183,-151,-5,19,37,47,16
38,41,-29,-154,-97,4,66,112,121,51
64,11,-46,-70,15,34,70,78,84,22
-12,-14,-46,14,63,8,9,3,-13,-77
-55,23,-14,62,78,-11,-23,-47,-64,-118
-22,201,80,109,68,-2,-31,-58,-40,-58
-8,274,106,86,17,-11,-15,-26,5,18
-43,84,55,20,-14,-26,-12,-22,14,-18
-38,-28,14,5,-6,-1,4,-16,9,-52
-24,-113,-30,78,10,5,23,14,28,-32
4,-80,-41,207,52,1,11,15,48,6
84,97,10,189,49,10,15,21,68,77
69,70,55,51,15,22,24,8,43,64
16,-38,59,-88,-21,31,37,-8,-30,-13
9,-66,6,-191,-20,31,47,9,-38,-22
-9,-61,-28,-222,-20,50,49,29,12,0
-13,-40,-37,-154,-10,42,8,4,9,-20
-1,-47,-47,-1,49,-26,-62,-49,-14,-28
3,-116,-61,57,66,-45,-60,-34,0,-9
-38,-170,-90,23,63,-8,-17,-11,0,-34
29,9,-36,35,57,30,10,9,23,20
123,214,69,31,-73,11,32,43,87,111
70,102,103,23,-132,-41,2,15,43,85
-23,-86,69,-27,-204,-72,-9,18,18,28
-64,-152,28,7,-131,-40,5,33,25,40
-105,-23,9,91,46,-17,-26,-28,-32,-28
-121,163,10,56,32,-30,-52,-74,-83,-85
-67,187,8,15,26,1,-31,-37,-73,-62
44,94,10,6,47,48,3,-6,-39,-20
79,-66,-29,-39,29,52,17,8,-17,16
57,-135,-52,-95,-28,29,13,17,-4,5
23,6,-50,-51,-11,13,-8,9,-18,-14
-2,198,-42,27,39,10,-29,-6,-38,-19
-25,151,-17,29,75,29,-5,21,0,1
-57,-119,-16,36,95,43,32,68,45,25
-85,-270,7,71,88,24,26,37,-7,-19
-27,-148,48,55,-6,-34,-6,-10,-41,-26
59,30,57,29,-51,-55,-35,-24,-45,-22
53,69,38,11,-35,-33,-39,-47,-71,-45
13,-9,-12,-58,-60,-1,-21,-32,-71,-29
45,-7,-24,-79,-123,-18,-11,2,-31,26
63,-19,-28,-44,-66,-28,-1,0,-8,102
71,-16,-26,-11,-13,-50,-23,-25,-21,116
67,-10,-20,-25,-18,-47,-13,2,10,71
4,5,-7,-16,11,-14,-4,14,29,41
-68,69,45,132,108,6,-29,-17,-15,-12
-116,-21,12,186,123,7,-38,0,6,-24
-50,-77,0,113,80,12,-23,-6,-13,-10
-1,-80,8,9,46,37,-1,-11,-62,-37
-12,-76,20,-112,-26,33,17,-9,-50,-56
6,8,-4,-229,-130,-23,5,-29,-47,-53
72,123,0,-171,-175,-29,32,24,20,-10
49,234,33,40,-19,34,96,35,18,-12
-43,108,-12,88,70,46,81,10,-15,-47
-18,7,-35,26,43,7,29,25,35,0
-4,-87,-8,47,36,-13,-31,26,38,57
-33,-187,-11,22,25,-18,-70,-11,52,114
-44,-214,-41,-32,23,-5,-58,-10,63,60
-37,-223,-54,-21,75,30,-34,-2,34,-21
-3,-66,-46,-15,69,12,-29,-9,-4,-27
24,195,-39,-28,33,-7,-12,-9,-21,4
77,273,2,-11,-37,-20,-28,-31,-42,40
66,199,17,-17,-105,-54,-60,-54,-71,-21
82,219,95,-8,-164,-66,-14,-3,2,-53
135,241,123,41,-111,-20,26,23,31,-53
126,109,40,47,17,17,38,26,10,-75
53,-58,-10,-19,16,17,26,32,-2,-56
-25,-202,-28,-82,-11,8,18,40,26,36
-113,-289,-74,-97,21,16,43,63,105,180
-166,-423,-83,-87,29,29,45,60,123,255
-241,-379,-15,-6,38,59,53,41,71,102
-257,-142,58,104,102,69,25,-14,-48,-113
-135,-2,83,122,78,45,0,-27,-62,-159
179,88,41,52,-6,-11,-12,-9,31,-61
250,46,-19,9,-19,-17,11,-21,29,4
131,-6,-56,-9,-15,-13,29,-4,11,32
6,-30,-44,0,-7,-33,-6,-8,9,7
-26,-14,-10,21,5,-26,-25,-31,-16,-56
12,60,21,22,6,-16,-38,-48,-45,-101
-81,206,33,20,-11,-12,-27,-43,-76,-128
-143,375,59,57,24,25,30,20,-44,-52
-92,437,78,136,87,18,33,23,9,10
-69,205,46,136,77,-42,-43,-54,-30,5
-91,-78,-41,56,3,-71,-87,-83,-35,15
-96,-203,-97,3,-11,-35,-73,-64,-13,24
6,-79,-71,-95,-59,5,2,26,60,55
119,86,-3,-176,-66,45,60,59,101,56
233,179,102,-242,-94,44,84,75,97,72
244,155,110,-136,-33,17,81,99,114,108
74,-19,22,25,75,27,49,46,57,22
-8,-173,-69,96,64,30,28,20,42,-14
-30,-285,-100,82,-5,22,14,8,53,-14
-68,-203,-70,22,-87,0,3,-11,39,-63
-61,26,17,-19,-117,-24,-4,-12,-1,-84
-52,105,21,-29,8,-5,-3,-32,-70,-84
-33,-34,-41,-83,-9,-28,10,-20,-55,-51
21,-216,-50,-88,-42,2,68,39,19,38
48,-171,-34,-6,18,33,45,17,2,69
85,134,-6,62,62,-1,-18,-6,2,74
73,323,22,83,45,-17,-25,8,44,27
1,176,27,95,58,0,-10,2,49,-14
-87,-45,21,95,83,11,-13,-45,-20,-51
-147,-106,31,49,21,-7,-10,-45,-60,-98
-84,-52,48,-13,-49,-23,16,6,10,-43
33,4,53,2,40,0,4,20,41,50
57,-10,-25,-10,133,45,-7,-9,-11,37
64,-1,-85,-91,46,23,-26,-14,-60,4
51,33,-29,-58,-94,0,-30,9,-39,10
-11,-4,-3,-3,-122,-16,-13,18,-22,-9
-3,-6,-18,-76,-196,-84,-41,27,-5,10
85,40,15,-122,-258,-130,-50,17,36,75
127,56,71,-14,-67,-45,-37,-5,21,86
14,-8,35,85,151,85,-3,-42,-77,-54
-71,-63,-33,72,172,115,21,-52,-114,-145
-13,-66,-43,8,48,32,22,-4,-59,-67
53,-69,-23,-21,-32,-33,16,22,7,25
0,-87,-2,-6,-4,-20,0,11,13,42
-90,-93,2,22,22,-3,-26,-13,-33,55
-68,-73,-23,19,14,-21,-48,-49,-66,117
-47,15,-10,54,22,-20,-45,-39,-63,44
-85,110,34,97,35,3,-25,-9,-43,-61
-85,67,33,48,24,7,-10,15,-33,-106
-49,-52,5,-35,-19,-5,-24,13,-50,-88
37,-78,-12,-66,-46,-35,-38,0,-40,-6
73,73,-10,-57,-21,-19,0,26,-12,40
20,164,27,-7,25,26,30,44,-4,18
-61,0,16,26,65,36,12,-1,-38,-34
-56,-54,-13,-4,69,21,-9,-45,-72,-56
29,38,2,-25,24,4,-16,-29,-21,4
57,65,-11,-24,-4,-9,-14,0,26,90
15,26,-53,-2,4,-12,-4,15,23,50
-16,-78,-67,32,2,-23,11,5,0,-26
-7,45,59,-6,-16,83,161,52,271,-12
-14,31,47,-10,-14,32,86,29,184,-21
-29,108,46,-48,-51,-35,-25,-39,42,-27
-15,452,95,11,1,-6,-18,-25,15,-17
48,612,101,76,67,31,14,-6,22,2
47,177,23,42,46,12,-15,-33,-10,24
38,-173,-58,-24,-1,-18,-28,-32,-23,66
10,-248,-79,-46,-32,-29,10,-22,-18,14
-11,-152,-46,-43,-41,-23,45,16,14,-43
2,0,4,-11,-14,-20,9,19,31,-34
53,81,10,15,-10,-13,-21,13,20,-7
21,-55,-13,1,-30,6,-9,27,24,-17
-59,-343,-40,3,-1,26,-4,19,45,11
-68,-310,-28,45,56,40,9,12,44,57
-36,31,7,78,72,37,30,22,26,24
-98,-3,-28,145,109,4,-9,6,-21,-43
-124,-118,-64,208,130,-24,-42,-23,-46,-68
-52,-107,-32,137,53,-16,-36,-23,-36,-50
43,-36,24,20,-11,14,-4,-38,-21,-21
57,-28,-3,-155,-60,26,40,-29,-9,-20
162,52,36,-288,-116,-7,46,14,50,60
267,133,57,-375,-236,-55,55,68,124,206
125,65,69,-66,-97,-56,9,-1,41,123
-42,-33,13,183,111,-8,-27,-52,-32,-33
-71,-19,-10,120,93,41,0,2,3,-51
-120,-69,-24,99,83,74,6,11,-13,-57
-126,-72,-53,35,-25,31,-15,10,-6,-42
-116,-10,-48,-62,-66,0,1,38,25,-39
-61,13,38,-17,40,41,22,32,-22,-31
-43,-101,32,46,74,41,-3,-24,-106,-71
0,-108,-14,-22,-75,-54,-22,-27,-63,-48
170,102,42,-120,-189,-77,1,50,77,112
179,168,87,-102,-136,-70,-13,33,77,139
45,84,13,-92,-41,0,0,-7,1,12
17,90,-37,-80,40,66,11,0,-20,-24
52,243,-30,-13,46,44,-4,11,-32,-11
28,88,-62,63,45,0,-24,-4,-74,-76
-1,-115,-81,96,-5,-56,-29,-10,-44,-79
-29,-205,-75,63,-69,-100,-40,-22,-4,-30
-112,-264,-46,65,44,-43,-64,-42,-39,-67
-109,-173,7,33,119,27,-19,3,-10,-70
10,129,93,-14,52,58,50,83,95,95
78,169,70,-28,-3,30,49,84,105,197
69,0,37,-29,-19,4,10,33,24,99
-4,-180,0,-56,-69,-12,-4,5,-20,71
-67,-79,-9,-56,-99,-4,7,-24,-38,79
-135,60,-14,20,20,28,16,-48,-68,-27
-98,-17,-20,-13,28,15,-19,-41,-72,-107
-12,0,-2,-38,0,-12,-41,-35,-44,-72
63,96,34,28,26,-27,-44,-39,-34,-25
120,190,64,99,48,-11,-33,-50,-73,-11
79,163,33,84,39,7,2,-27,-69,-8
24,14,3,64,18,15,22,-7,-34,-33
-11,-62,-13,43,15,5,9,7,-18,-76
-27,-118,-51,9,9,-11,12,27,13,-39
-5,-124,-57,0,1,-15,-10,14,7,11
-18,-146,-61,-6,-1,-13,-22,-7,-14,22
-36,-138,-43,0,7,8,-6,0,-29,5
-25,-96,-13,40,41,16,0,-16,-51,-36
9,-78,4,59,56,51,11,-26,-70,-95
82,29,42,23,-18,41,30,11,-42,-49
125,117,71,-30,-70,-29,-15,25,29,40
78,78,22,-76,-78,-43,-23,34,69,64
24,34,-45,-105,-52,-26,11,15,54,109
-26,9,-49,-84,-15,-11,9,-18,-11,142
-70,-18,-37,-37,-9,-11,-11,2,-26,72
-103,-71,-23,-31,-14,-20,-11,30,18,-16
21,-147,-10,-7,21,-1,7,26,30,-61
91,-164,11,11,16,9,1,4,5,-76
-60,-20,31,37,10,-7,-37,-20,-39,-90
-120,235,24,65,42,-11,-41,-28,-56,-7
-87,235,10,123,76,-9,-44,-54,-83,25
-82,4,7,132,62,7,-22,-41,-66,-3
-62,-79,48,94,36,24,26,10,10,10
-66,2,86,4,0,17,25,19,28,0
-57,48,45,-97,-38,14,4,-5,-26,-44
47,137,-3,-162,-84,23,20,25,-12,-10
133,125,8,-121,-107,-7,39,68,63,28
95,-29,-6,2,-39,-22,22,46,58,-1
54,-101,-15,35,16,-24,-10,22,35,4
18,-63,-2,34,37,-32,-28,-2,16,-17
-15,-57,-22,12,56,-23,-10,-15,-19,-95
-10,-69,-44,20,128,33,27,-25,-38,-91
-3,-47,-37,108,138,56,31,-52,-53,-17
-5,50,0,109,17,-10,-12,-51,-53,28
12,105,17,8,-95,-29,-45,0,-25,59
47,45,-44,-150,-163,-30,-39,31,26,143
62,4,-56,-227,-220,-49,-34,48,94,175
67,1,-8,-208,-210,-40,-24,53,87,115
56,-5,63,-18,-31,-2,-13,10,29,34
39,-14,49,93,90,30,14,-12,2,-17
41,-46,12,50,77,35,34,21,49,0
-55,-138,5,101,130,30,8,18,40,-34
-123,-100,6,152,188,31,-12,-18,9,-55
-58,81,-13,95,155,33,-6,-39,-2,-46
39,129,-14,-26,60,3,0,-57,-17,-28
2,-136,-15,-60,-26,-6,-1,-58,-40,-32
-64,-207,-28,-62,-90,-25,14,-40,-35,-43
-104,-106,-21,-25,-113,-32,62,4,6,-47
-96,134,44,166,17,32,77,37,51,-26
-63,413,45,176,78,63,71,57,64,-6
10,188,23,15,13,6,21,32,50,35
29,-39,29,-110,-14,12,-8,-7,9,28
0,-99,-14,-233,-73,-14,-14,-17,-3,5
80,48,5,-287,-169,-32,15,39,63,75
144,110,41,-183,-147,-7,40,64,105,45
73,-6,-12,-23,0,29,46,31,65,-19
-20,-157,-64,99,92,47,34,9,31,-44
-40,-165,-77,97,104,35,16,-21,0,-26
15,-38,-55,41,58,-22,-34,-58,-18,51
81,54,-8,13,-22,-74,-61,-38,12,55
83,65,14,41,-46,-69,-52,-19,36,27
14,-12,-1,57,-22,-17,-15,1,12,10
-58,-51,0,55,26,17,13,-5,-24,-18
-106,-95,-1,54,71,27,18,-33,-54,-68
-111,-46,-9,38,86,35,26,-13,-46,-67
-13,130,21,11,28,3,4,-1,-8,-1
77,94,17,36,21,-19,-26,-13,-6,15
27,2,10,99,63,-6,-28,-22,-38,-25
14,64,29,75,6,-52,-39,-24,-55,-23
29,101,19,35,-7,-40,-30,-19,-39,14
-10,56,38,37,38,7,-8,-14,-42,59
-83,3,-3,-13,47,14,-8,-17,-52,30
-130,-57,-96,-154,-72,7,17,35,8,-19
-83,-86,-103,-213,-192,4,39,57,34,-43
26,-48,-7,-88,-108,37,35,24,-12,-38
94,90,51,-23,9,43,28,35,-2,28
99,197,71,-72,15,42,30,37,17,41
108,48,33,-129,-93,-22,38,63,38,84
99,-126,10,-25,-111,-80,10,62,61,94
-14,-231,-53,58,-15,-60,-31,-9,0,-53
-45,-320,-81,63,44,1,-27,-41,-57,-91
-87,-357,-89,21,6,1,-16,-35,-53,10
-103,-86,-47,23,-4,-26,-19,-42,-43,67
-43,370,98,73,36,-5,-9,-31,-50,8
13,329,105,74,35,-18,-55,-45,-66,-55
28,91,40,26,9,-30,-75,-51,-70,-77
-9,0,-19,13,10,18,-22,-8,-48,-77
-17,56,-67,6,23,56,20,34,-3,-45
37,155,-28,20,5,29,14,18,19,32
65,-76,41,77,6,-21,-34,-16,-24,45
-2,-403,66,90,30,-37,-55,-31,-81,-29
-66,-249,43,47,52,-19,-32,-31,-68,-67
-44,176,39,25,81,28,-3,-29,-47,-79
-39,260,30,14,105,70,24,-28,-50,-99
-58,245,9,0,136,89,28,-34,-71,-85
-44,160,-30,-1,91,22,14,-3,-18,-14
-12,-66,-51,-26,-39,-47,11,68,97,104
67,-121,-50,-47,-113,-87,-4,57,121,195
64,-84,-53,-48,-129,-75,-18,-3,38,80
-5,-171,-32,-63,-172,-18,17,8,14,-48
15,-239,-10,-135,-262,-12,47,72,82,1
59,-98,5,-125,-166,-11,48,83,91,55
56,34,39,-11,41,19,24,34,46,37
34,77,43,59,120,38,-14,-2,20,53
27,66,18,42,112,36,-13,-6,21,72
33,56,-32,-18,64,18,-8,4,-3,25
14,47,-29,-12,40,0,-14,-19,-30,-27
-24,15,-9,66,69,7,-20,-45,-41,-44
-37,-1,18,91,71,9,-15,-39,-29,-36
-36,-6,11,26,13,3,-6,-13,-19,-30
-10,-8,5,-34,-46,-10,12,7,-2,-36
-14,-3,-5,-46,-31,-5,-1,-12,-13,-32
-27,-9,-26,-61,-32,-3,-14,-27,-34,-29
-9,10,-2,-15,-57,-9,10,4,-22,1
-9,22,12,103,28,6,11,13,4,2
-20,28,11,193,86,10,2,4,27,0
-11,-2,30,198,58,17,9,-3,47,17
8,-44,37,105,29,35,32,16,56,34
-2,-37,18,-95,-13,21,26,29,27,0
0,-27,-9,-236,-43,17,40,48,61,5
15,-23,-79,-247,-32,23,48,54,67,29
65,34,-50,-199,-44,15,36,38,38,47
76,77,22,-24,-18,-14,13,-4,5,67
16,42,23,70,26,-11,26,-49,-4,11
-29,5,6,62,59,2,3,-72,-61,-72
4,1,31,59,28,-16,-39,-46,-39,-33
42,32,54,42,-61,-28,-39,12,36,35
-11,48,24,9,-35,12,-7,47,54,-4
-51,50,14,44,71,54,-8,34,22,-54
-66,-24,-15,34,89,59,1,26,1,-88
-34,-138,-39,-11,-13,-16,13,16,18,-90
12,-127,-54,0,-51,-51,5,-6,24,-63
61,63,0,70,11,-8,-4,-16,7,-12
124,195,63,70,-9,-11,-35,-37,-34,83
123,235,82,-10,-75,-27,-40,-30,4,217
3,254,36,-79,-80,-6,4,8,60,219
-114,143,-11,-78,-6,39,36,39,64,78
-123,-93,-29,-17,42,34,33,24,41,-48
-68,-204,-34,87,79,0,12,-12,0,-101
-16,-155,-30,168,96,5,-12,-46,-36,-110
-16,-111,-13,147,76,26,-16,-57,-73,-90
0,-84,-16,44,31,26,-3,-30,-53,-28
7,-55,-29,-89,-10,23,17,10,20,13
-12,55,-38,-186,-66,28,39,29,59,6
44,181,16,-204,-153,0,39,46,96,27
80,115,52,-49,-99,-2,25,59,82,12
36,-9,54,84,31,22,16,21,2,-44
-4,-58,40,59,71,13,14,-13,-19,-64
-40,-85,-26,-9,38,0,20,-13,5,-38
-78,-92,-50,-14,19,18,34,2,14,-21
-23,-1,-19,3,-13,-34,-9,-12,14,1
51,47,-4,-26,-49,-67,-33,1,48,54
63,98,49,-14,-16,-25,-28,-4,43,113
-20,41,0,2,7,-6,-20,-25,-10,42
6,6,-40,1,14,-8,-17,-22,-35,-2
128,-9,-37,3,-8,-22,-15,-6,-26,52
141,-82,-21,11,-13,-22,3,3,7,59
35,-87,3,54,37,21,8,-8,-25,-22
-65,-27,39,74,54,45,8,-22,-48,-93
-86,-70,17,34,17,21,18,3,-9,-39
-110,-186,22,32,45,-2,-8,-7,-13,-7
-147,-275,-17,25,118,10,-59,-53,-54,-41
-175,-160,-81,-29,99,36,-19,-50,-78,-89
12,181,-37,-59,14,8,22,28,-2,0
196,365,3,-68,-54,-1,34,90,77,122
93,269,29,57,-29,-16,12,71,70,60
-55,4,44,126,-29,-15,-17,15,1,-28
-99,-189,49,53,-81,-22,-16,-8,-40,-33
-94,-22,96,24,-8,-9,-36,-43,-88,-55
-116,64,53,-48,27,3,-48,-81,-130,-121
-81,-48,-23,-144,-50,-13,-38,-63,-115,-91
99,-14,-6,-165,-181,-51,-9,18,-22,34
129,-18,-24,22,-46,-48,0,41,20,51
57,-35,-56,136,96,-17,7,7,13,23
72,18,-41,45,0,-30,-3,6,22,44
115,36,-18,-65,-126,-57,2,31,69,119
104,19,-9,-70,-84,-15,23,53,79,176
-17,-58,-53,-109,12,45,27,32,42,62
-50,-59,-48,-152,10,54,47,32,41,-31
-12,-13,16,-33,33,22,32,24,28,-2
-20,-8,50,59,71,13,-15,-22,-58,-15
-42,-3,72,87,81,24,-51,-87,-136,-82
-66,-6,52,64,65,6,-58,-84,-144,-96
-35,11,36,37,19,-26,-53,-37,-87,-45
14,10,22,40,-33,-53,-40,-6,-29,3
8,4,-4,37,-40,-49,-35,0,-13,-9
60,32,-21,-18,-78,-53,-34,13,-21,17
88,10,-33,-68,-73,-5,8,26,-6,42
30,-46,-51,-33,25,41,27,4,-26,22
-33,-59,-55,3,46,40,20,-3,-24,0
-34,-30,-41,6,10,11,18,3,17,-15
-22,-1,-17,2,-6,-4,7,-12,14,-23
-23,28,0,36,26,-23,-13,-38,-8,-22
-78,-4,-36,88,70,-7,-20,-35,-51,-55
-73,-43,-37,156,95,9,-30,-30,-70,-77
40,4,-16,78,25,13,2,11,7,-15
84,59,26,-5,-13,28,26,36,33,15
116,113,79,-93,-44,-1,-4,36,49,70
41,-74,31,-218,-83,0,8,46,53,112
-35,-42,23,-217,-94,3,23,36,16,65
-86,110,32,-106,-84,-21,6,14,12,-8
-83,-5,-13,2,-9,-30,-21,-9,-21,-50
-56,-179,-65,40,29,9,10,24,-15,-31
-39,-137,-45,72,59,66,46,54,39,0
25,34,0,67,71,62,30,15,33,15
88,110,26,28,23,22,-3,-29,5,25
44,-2,-7,14,4,7,0,-15,-2,-8
-65,-234,-73,26,34,12,24,16,0,-57
-79,-149,-15,51,13,-23,32,-6,-40,-83
-14,121,65,64,-37,-68,19,-1,-11,-56
57,272,86,50,-26,-30,7,27,27,-13
91,397,83,0,32,27,-26,-3,2,34
71,236,40,-55,5,5,-101,-94,-64,92
5,-16,-23,-38,2,-16,-109,-112,-113,30
-1,-53,-18,22,16,8,-33,-45,-41,-2
-29,34,-6,97,26,-4,7,-5,9,-3
-21,60,-16,74,-1,-38,-5,0,40,-10
40,-77,-1,8,-13,-25,5,29,64,6
-27,-262,-26,-42,25,24,50,65,50,-37
-95,-151,-24,-63,49,72,86,76,77,-68
-83,86,-16,-130,10,65,85,69,86,-43
-40,46,-19,-118,-68,23,50,35,59,9
-4,-119,-49,8,-57,25,48,13,39,91
51,-168,0,117,-2,-3,6,-2,18,113
91,-41,65,121,-9,-80,-41,-22,5,56
62,54,67,110,34,-44,-28,-39,-22,-62
-32,51,33,100,87,22,1,-65,-44,-115
-109,59,-20,35,84,38,0,-77,-17,-57
-30,122,-14,-126,-44,-13,14,5,67,33
76,178,25,-189,-95,-29,30,56,104,94
93,120,65,-54,-65,-18,17,27,49,66
37,-15,10,85,51,10,13,10,29,47
14,-99,-93,40,63,13,22,15,27,58
0,-82,-111,-69,-60,-9,5,11,27,41
-65,-45,-69,-150,-151,-5,-1,15,26,-24
14,34,-4,-151,-128,4,29,58,52,4
50,5,-50,-133,-34,22,52,49,39,14
10,-71,-55,-42,2,22,40,4,0,-12
-53,-35,101,99,4,-4,-18,-35,-67,-64
-18,165,251,213,30,-54,-84,-69,-80,-51
56,169,178,113,38,-52,-81,-56,-25,-5
30,1,0,-39,16,-12,-25,-21,-28,-22
27,-50,-50,-43,22,16,14,9,-29,-10
45,-57,-47,4,25,30,14,40,11,36
-6,-61,-37,71,59,16,-4,24,5,12
-50,-80,-40,89,78,6,-30,-15,-27,-43
-29,-93,-30,61,60,18,-30,-21,-29,-27
-33,-82,-27,12,-4,4,-11,-14,-28,-2
-61,-21,-24,-19,-21,-11,-17,-12,-44,-33
-41,5,-18,-37,-21,0,-20,-14,-36,-50
33,-27,-14,-63,-101,-11,-1,23,11,16
46,-68,-28,-50,-75,-31,11,36,32,31
45,-2,13,0,-7,-18,-7,-1,-46,-4
8,164,34,11,36,25,-6,-43,-74,-50
69,364,72,47,61,1,-36,-52,-65,-38
37,186,31,40,45,-5,-44,-35,-64,-40
-65,-98,-31,2,7,1,-11,-7,-19,23
-93,-169,-54,-21,-45,-17,27,11,20,83
-67,-122,-35,-18,-37,-24,9,14,40,70
-49,-70,-7,4,-3,18,11,7,-2,61
-65,-55,12,12,2,-1,-2,-20,-48,10
-66,-30,51,37,34,-5,-16,-17,-56,-49
17,-7,40,43,55,18,8,12,-11,-45
55,-18,-8,7,47,36,31,30,-3,-47
8,-25,-30,-5,48,59,27,20,-20,-74
0,-17,-16,-16,17,29,10,11,9,-63
-31,-26,0,48,39,-22,-35,-18,0,-61
-22,-31,3,112,46,-53,-54,-41,-16,-2
11,-23,0,26,-22,-51,-54,-43,1,64
31,-14,-8,-74,-62,-46,-34,0,35,97
36,-48,-57,-169,-90,-38,-18,35,68,100
6,-47,-75,-201,-134,-41,-3,29,71,5
27,60,-18,-142,-172,-37,15,59,67,-42
63,219,76,31,-7,23,33,40,31,-44
135,204,95,124,136,74,39,-34,-38,-65
228,64,99,165,163,69,32,-62,-107,-42
94,-50,57,193,155,47,-2,-67,-99,38
-66,-108,-45,114,88,16,-31,-58,-67,80
-35,-92,-72,-1,-33,-18,-9,39,52,169
-74,-105,-77,-62,-55,-15,30,73,107,84
-170,-119,-71,-89,-65,-25,2,20,58,-30
-109,12,9,-173,-119,-26,0,17,45,-1
-122,97,2,-114,-94,-12,1,8,-2,-76
-101,115,10,67,25,-1,-25,-42,-61,-139
-4,52,64,118,-2,-16,-3,-9,-12,-20
41,-23,51,71,2,-2,24,25,29,35
38,-85,13,-51,-37,-8,40,32,34,-1
86,-94,-39,-172,-49,-16,31,24,32,-25
120,98,-1,-186,-2,15,41,28,47,-15
44,226,49,-130,-31,23,42,34,60,31
-37,-7,8,-30,-28,24,52,54,75,72
-98,-177,-48,63,70,50,54,41,65,41
-71,-38,-35,95,93,51,31,22,65,49
18,63,11,98,34,3,6,-2,51,118
26,38,48,123,15,-51,-36,-44,-6,37
-17,70,41,110,32,-56,-45,-52,-51,-80
6,31,0,38,12,-18,6,-13,-14,-79
-17,-46,-42,8,34,24,10,-25,-42,-110
-52,-74,-64,9,70,37,-9,-50,-65,-125
4,-6,-45,8,45,47,7,-20,-11,-32
84,119,-38,-39,-38,27,42,53,89,100
90,109,5,-31,-79,-35,30,67,110,140
45,4,42,7,-60,-42,3,24,69,103
-43,-84,-16,-3,-25,-13,-6,-1,5,0
-77,-89,-27,0,6,6,-11,-23,-22,-60
-16,-80,-20,17,44,29,1,-17,11,-44
-9,-74,-8,68,125,50,-1,-17,0,-64
-26,-3,52,94,131,36,-24,-33,-36,-96
-36,131,90,83,61,-2,-53,-48,-64,-68
22,244,71,26,-39,-21,-38,-31,-38,-29
43,179,1,-53,-156,-36,0,5,-3,-25
54,-52,-35,-80,-222,-65,15,31,35,50
-2,-340,-66,7,-106,-39,29,39,57,96
-55,-324,-69,74,79,19,35,41,64,47
2,-107,-14,57,111,33,16,33,67,46
46,2,-4,-71,38,12,-16,-8,21,56
50,15,1,-164,-36,21,-5,-34,-40,7
31,-37,28,-154,-86,47,49,7,-6,-78
25,43,46,-19,-52,5,13,-1,2,-120
68,146,51,102,62,-16,-41,-30,-24,-70
51,113,0,105,164,10,-41,-19,-48,-25
-27,63,-40,62,150,-3,-57,-38,-44,9
-38,119,1,-19,7,-27,-31,-4,33,124
-51,83,29,-71,-112,-31,20,63,74,80
-122,-352,-82,-143,-159,-16,51,71,42,-20
-44,-324,-72,-154,-160,31,83,81,47,30
55,174,67,-6,-3,61,65,36,11,43
51,467,132,95,112,40,-1,-36,-48,39
-37,336,78,99,104,11,-48,-53,-76,-15
-59,139,15,70,44,-15,-68,-59,-95,-29
-48,-16,-9,11,-29,-20,-71,-42,-75,-4
-51,-126,-12,0,-16,-8,-48,-22,-34,-3
-65,-207,-53,-26,3,-3,-15,-8,-31,-49
-61,-217,-84,-36,23,-4,-5,2,-56,-117
0,-161,-74,-21,43,-18,-10,14,-62,-69
14,-129,-55,-13,27,-28,-2,8,-32,-17
1,-52,-18,19,-1,-21,-25,-11,-27,-22
-11,11,22,61,5,8,-30,-38,-61,-43
-3,38,41,100,-5,13,-28,-49,-75,-6
73,80,58,100,-54,-22,-36,-37,-70,77
98,50,59,65,-53,-25,-33,-10,-21,101
8,-22,31,63,66,1,-5,5,-10,12
7,-10,32,76,123,-9,-1,18,0,-13
58,30,13,19,57,-18,4,35,18,12
66,35,12,-28,35,39,6,7,-21,-7
91,-14,-23,-103,11,39,-25,-51,-102,-82
113,-8,-118,-279,-171,-60,-46,-46,-93,-80
85,75,-99,-339,-319,-92,-1,48,40,68
32,96,11,-160,-199,-35,76,102,123,155
-84,-5,28,48,31,29,69,71,79,60
-177,-110,-7,144,151,51,22,28,25,-61
-206,-168,-30,154,116,18,10,8,19,-37
-150,-180,-26,93,20,-21,-11,4,50,111
6,-107,7,2,-28,-41,-29,10,54,195
2,-7,-9,-89,-39,-13,-15,16,8,55
-28,59,-17,-152,-25,-2,12,-11,-42,-72
71,151,0,-130,-29,8,34,-14,-22,-50
127,152,4,3,5,10,31,1,15,1
90,48,16,100,117,6,2,-12,1,3
0,-61,12,127,187,7,-16,-34,-39,-41
-35,-82,23,134,144,17,-11,-34,-53,-77
-115,-160,-10,262,180,41,-8,-36,-63,-136
-173,-131,10,512,264,28,-53,-99,-96,-182
-56,87,73,402,85,12,-41,-63,-45,-49
84,296,110,23,-149,-8,1,-4,12,78
58,225,105,-273,-79,-3,-2,-42,-26,-25
-11,6,5,-518,-89,38,34,-29,-34,-94
102,-9,-28,-659,-391,0,90,70,87,59
208,38,-11,-411,-488,-34,111,149,198,201
191,4,-42,-40,-208,-23,83,141,233,216
128,7,-41,105,65,-40,2,67,150,117
75,-12,14,162,237,-16,-32,-1,48,23
-96,-105,-29,134,232,20,-39,-78,-74,-98
-154,-76,-42,89,17,-6,-40,-88,-81,-114
-91,50,24,71,-141,9,10,-14,-8,-37
-65,79,44,12,-187,2,45,12,5,-31
-98,9,41,82,56,22,20,-15,-11,-42
-89,-104,-9,118,188,33,13,-15,15,-34
-61,-187,-4,169,198,42,32,21,45,-11
-19,-211,-39,241,182,-14,-28,-22,-13,-31
14,-169,-70,239,115,-43,-43,-36,-41,-84
86,-71,-53,161,10,-34,-10,5,2,-5
89,-12,-20,-23,-47,-21,-4,-12,4,109
-6,72,-1,-221,-42,3,-8,-56,-18,103
-32,399,78,-356,-146,34,14,-21,0,24
71,647,146,-293,-196,70,88,116,104,102
79,393,83,-159,-74,54,79,152,140,116
35,-77,-75,-177,-31,2,31,85,99,23
22,-315,-186,-323,-204,-59,11,60,98,20
56,-212,-111,-210,-195,-105,-27,16,70,89
48,-55,33,93,26,-49,-50,-62,-37,38
-54,-77,22,156,122,-2,-36,-74,-110,-98
-60,-119,-12,129,103,34,1,-35,-74,-133
36,24,38,139,99,51,12,-32,-71,-102
148,150,65,155,81,21,-2,-19,-41,-4
90,253,77,158,90,5,-17,-8,-14,9
6,252,51,107,71,11,-9,0,2,-16
-96,27,-5,34,43,27,3,-10,-4,27
-201,-121,-24,2,16,37,5,-6,-24,97
-275,-229,-42,-15,-7,32,3,0,-15,9
-221,-265,-34,-33,-62,5,5,20,-13,-92
-24,-144,-12,-21,-68,-16,-3,16,-41,-64
94,-93,13,52,-3,-41,-43,-28,-66,-49
76,-159,48,55,2,-24,-23,-13,-41,-30
4,-113,48,40,49,38,7,3,-28,-29
1,81,37,27,78,46,0,-13,-53,-32
-35,41,-32,-4,56,-2,-30,-24,-93,-39
-10,23,-49,-29,10,-21,-35,-3,-55,-35
116,79,-14,-30,-22,-8,-36,8,-3,-34
286,88,-15,-49,-29,-7,-21,2,9,15
216,73,-36,-50,-17,-32,-30,-52,-17,105
14,-59,-58,-48,-1,-44,-44,-73,-34,137
-136,-208,-35,-29,-23,-26,-18,-18,-13,59
-208,-222,-13,21,-40,-10,10,29,5,3
-240,-210,-76,40,0,0,12,35,-1,-34
-233,37,-22,153,85,31,13,61,32,-62
-123,297,60,150,89,45,19,82,75,-28
23,152,85,46,44,16,-28,2,13,-67
93,11,54,-12,24,1,-49,-69,-95,-113
135,32,20,-101,-77,-22,-9,-55,-110,-69
185,113,16,-204,-206,-82,4,3,-9,46
138,93,29,-87,-133,-50,0,17,30,80
94,25,10,20,-19,-26,-10,15,47,121
42,-39,-41,-18,46,16,4,27,89,136
-61,-81,-69,-74,84,43,10,-1,42,-24
-64,-57,-48,-49,116,34,4,-23,-37,-107
-17,-21,-13,41,122,21,-10,-18,-46,-50
22,-5,0,79,50,-7,-13,-5,-9,28
54,51,60,119,-24,-5,-3,11,-2,53
25,14,42,65,-47,45,25,3,-6,17
29,-43,-24,-85,-123,54,52,31,12,12
57,0,-23,-170,-192,-23,42,60,64,53
27,31,4,-124,-50,-45,4,10,56,3
-33,-28,-20,-38,57,-52,-18,-33,6,-59
-55,-74,-37,2,45,-52,0,-5,18,-69
-54,-83,-45,5,28,-2,26,23,17,-59
-22,-7,15,83,131,37,2,1,-15,-29
-10,106,56,138,183,43,-12,-37,-40,-27
-64,164,37,76,81,25,2,-42,-47,-39
-84,174,47,88,0,-4,7,-19,10,-18
-56,50,48,145,-32,-4,13,-1,48,-18
-6,-61,43,58,-152,-15,23,3,29,-22
78,-44,38,-108,-290,-55,42,53,63,53
43,-4,20,-119,-44,-16,22,13,50,41
37,63,13,-103,68,-7,-22,-25,5,32
89,143,-12,-116,4,-23,-15,11,45,122
94,63,-78,-46,-26,-8,11,32,77,159
26,-54,-72,40,16,40,27,35,50,27
-41,-84,-40,65,56,64,40,12,29,-55
-34,48,3,72,66,26,25,-11,1,-36
7,193,39,39,52,0,45,4,-6,-28
1,94,12,-15,44,13,52,28,9,-23
27,-235,-16,-67,30,38,39,61,64,43
2,-449,-53,-70,34,43,20,66,56,38
-26,-321,-66,-4,45,34,-18,8,-26,-26
-33,-115,-25,113,97,2,-89,-77,-91,-56
-91,-25,4,247,138,-49,-112,-109,-123,-69
-77,-9,18,201,69,-51,-91,-70,-69,4
-83,-104,-8,7,-14,-19,-44,-40,-29,61
-98,-6,-7,-113,-103,-11,-32,-38,-37,-26
-12,388,-1,-278,-240,-30,0,0,-36,-64
130,554,43,-391,-387,-40,54,78,31,30
117,311,35,-175,-180,-37,25,50,21,15
102,219,28,49,79,-44,-23,5,2,8
125,174,39,90,97,-2,11,20,30,46
51,-230,-10,109,107,69,75,55,51,27
0,-482,-45,72,86,69,69,54,56,27
4,-288,-28,32,11,1,28,16,43,33
-41,-133,9,51,-19,-37,-11,-20,18,19
-41,-83,66,95,43,-38,-32,-35,1,6
-86,-118,44,79,76,4,-10,-25,-45,-91
-206,-165,-30,12,28,13,7,-9,-32,-122
-241,-105,-53,15,31,25,-22,-50,-53,-147
-82,4,-47,26,-13,8,-28,-52,-40,-62
41,138,-16,12,-53,-14,13,18,48,79
62,291,26,12,-13,4,32,28,58,85
37,334,74,24,60,29,31,4,-2,11
33,127,68,40,93,46,18,-37,-69,-16
112,46,31,-58,-12,-3,-14,-39,-61,-3
103,46,28,-126,-107,-37,-6,27,26,-2
51,7,20,-61,-54,-40,-2,16,41,-1
13,0,-26,-33,-12,-50,-39,-19,14,-3
-7,12,-51,-50,-42,-40,-20,3,67,48
-9,-34,-72,-39,-24,0,17,36,101,85
-2,-123,-48,10,13,30,18,16,46,46
-3,-172,-21,97,63,22,-5,-24,-33,-32
0,-144,-29,132,68,8,-24,-32,-42,-64
10,-38,-13,59,3,11,-5,1,-1,-42
-17,43,3,0,-25,26,25,17,17,-27
-29,112,49,65,53,20,12,-13,-8,-50
-25,164,92,135,118,14,-8,-32,-49,-83
1,216,117,65,48,34,0,6,-18,-46
-34,29,15,-45,22,25,20,44,7,2
-77,-266,-131,-231,25,18,14,22,7,4
13,-315,-101,-321,-68,11,17,30,44,58
51,-186,-24,-147,-76,17,30,60,73,106
2,-64,-27,152,11,16,15,11,9,63
20,48,-17,228,13,-7,-20,-44,-44,-21
124,88,8,78,-96,-36,-30,-36,-46,-23
145,75,44,-12,-143,-46,-42,-23,-23,34
50,32,47,-86,-73,-56,-54,-26,-21,50
48,88,34,-197,-159,-71,-37,6,11,85
42,85,46,-69,-92,-13,2,31,11,85
-43,-4,19,105,109,35,-3,0,-43,27
-159,-45,-14,79,109,20,-17,-27,-73,-74
-198,-121,-40,23,62,3,-17,-44,-92,-81
-100,-211,-56,23,83,1,-35,-51,-107,-46
59,-78,-14,7,39,-7,-33,-4,-64,20
143,235,21,-46,-50,-33,-14,53,33,163
83,303,26,-46,-58,-24,-2,62,44,95
-42,128,-7,-13,11,35,7,27,4,-30
-118,-96,-51,-5,37,31,-23,-18,-40,-82
-124,-190,-75,-56,-13,0,-12,1,-32,-93
-54,-87,-37,-91,-2,-11,26,34,-3,-58
23,41,19,-11,75,-22,10,0,-47,-27
50,75,35,63,82,-37,-45,-47,-76,-22
61,173,34,72,-13,-27,-34,-39,-32,10
34,198,41,79,-88,24,15,0,5,4
14,13,-3,-13,-231,0,33,45,34,-9
-1,-95,-27,-39,-156,0,40,51,60,-29
-37,-81,-20,64,121,36,8,-13,4,-79
-59,-60,-16,196,199,30,-22,-41,-40,-87
-27,-76,-18,185,136,-4,-27,-47,-41,-65
33,-127,-31,34,-1,-46,-24,-19,21,29
81,-87,-19,-144,-91,-60,-30,12,63,160
34,23,-17,-229,-60,17,18,29,47,128
42,139,53,-197,-62,62,43,48,29,46
78,123,125,-42,-50,2,-12,-2,-22,-42
8,-48,70,69,52,12,-11,-32,-71,-88
41,-82,-11,25,47,5,13,10,-6,9
108,69,-43,-32,-17,-24,15,35,90,125
69,171,-34,-11,-27,-41,-19,-20,77,131
-32,115,-22,4,-15,-23,-25,-43,14,18
-97,53,9,-9,-36,4,-4,13,30,-45
-78,-40,-2,-54,-74,7,41,64,81,-29
-70,-174,1,-9,-55,23,46,52,39,-49
-81,-222,27,90,69,54,19,6,-23,-89
-50,-212,-16,70,99,34,6,-17,-34,-76
12,-150,-14,45,69,16,-2,-17,-13,-28
30,-20,25,36,44,19,-6,-28,-5,8
7,83,38,10,0,4,3,-67,-42,-28
-3,58,24,-11,-21,-20,23,-94,-89,-53
-34,-81,-29,-15,3,-40,5,-73,-88,-21
-93,-5,-97,-29,24,-29,-33,-53,-52,-31
-80,373,-29,156,143,18,-25,-11,-27,-62
-64,254,24,395,301,52,-22,-23,-29,-92
17,39,48,353,214,53,-14,-14,7,-1
137,16,90,61,-75,10,18,69,118,173
102,-28,29,-314,-313,-39,39,95,132,138
102,-13,25,-482,-324,-18,68,109,135,103
140,43,44,-502,-375,-4,90,139,179,131
119,58,66,-196,-183,-37,25,84,123,96
4,-6,12,98,129,-39,-36,-16,2,-29
-113,-122,-86,127,197,3,-35,-73,-88,-116
-109,-155,-78,113,149,23,-22,-58,-81,-93
-21,-93,-22,96,62,0,-17,-6,-6,0
-4,-44,-34,43,16,-15,-26,-4,2,-6
9,-5,-36,20,16,5,-31,-19,-31,-36
4,17,-33,76,53,20,-25,-30,-82,-55
-2,132,-27,125,86,18,-19,-36,-66,-41
-7,206,-25,60,37,28,12,-7,-15,-21
-22,2,-28,19,0,15,35,35,3,-39
65,-179,16,-14,-26,-11,7,33,8,-21
144,-182,78,-102,-65,-41,-11,21,23,-13
69,-128,80,-153,-86,-38,-25,0,-31,16
-1,-4,54,-23,-6,-22,-53,-46,-86,129
-129,1,0,111,106,-20,-66,-61,-76,166
-242,-13,-55,152,147,-6,-46,-55,-71,36
-274,72,-33,180,138,24,-14,-32,-66,-159
-157,77,-13,119,46,35,8,6,-28,-142
16,-16,-28,-64,-70,39,40,35,10,0
161,-34,-50,-271,-225,-21,26,39,33,150
215,12,-46,-353,-290,-59,4,69,80,167
122,-44,-44,-304,-184,-11,27,69,82,77
-28,-53,-22,-89,-19,33,33,13,-1,-39
-94,36,1,108,79,20,23,-11,-47,-81
-2,56,32,168,97,-3,-5,-11,-40,-45
57,12,49,181,78,-35,-62,-36,-37,-28
60,1,41,117,58,-50,-82,-47,-35,-26
24,-33,0,-7,9,-20,-36,-9,-3,-16
10,-11,-4,-29,-16,2,-1,15,26,2
9,104,11,-24,-16,1,8,8,23,-9
27,183,-19,-60,-13,12,10,-4,8,-64
110,171,-30,-30,13,31,26,3,0,-51
122,113,1,23,22,11,-8,-27,-40,-40
6,19,36,53,42,4,-21,-46,-88,-93
-95,138,32,74,68,8,-27,-40,-89,-90
-98,277,61,103,62,15,-7,-8,-21,21
-93,141,57,101,11,14,17,10,49,112
-87,-129,24,21,-37,-10,10,10,77,89
-3,-348,8,-65,-69,-43,-14,14,101,116
71,-445,-10,-64,-37,-23,8,44,97,163
-55,-648,-76,-15,47,51,68,67,94,122
-148,-562,-111,74,97,82,67,53,53,24
-79,-92,-60,137,70,21,5,-1,-18,-100
-54,123,-33,75,10,-22,-22,-20,-66,-179
-62,72,-51,-76,-28,-24,-10,-21,-48,-145
-2,290,13,-160,-47,0,1,-15,-12,-60
109,616,123,-150,-83,-10,-13,-14,-8,6
212,501,127,-59,-77,0,40,42,47,52
169,105,56,70,46,60,85,63,71,-4
32,-244,-20,69,87,37,41,20,43,-55
-9,-262,-48,13,73,5,1,-15,31,-10
-39,-201,-60,-28,3,-7,-28,-33,19,75
-97,-130,-32,-24,-56,-22,-56,-57,-12,104
-151,-34,45,-10,-99,-5,-26,-32,-26,32
-186,-7,18,15,-36,45,40,-1,-27,-71
-85,152,1,-3,-9,12,15,-8,-14,-69
36,286,36,-38,-73,-51,-28,12,32,-28
58,317,48,-36,-60,-44,-2,65,113,1
95,152,-10,-56,-59,-32,23,91,167,70
60,62,-40,33,135,19,28,36,94,32
-13,59,-7,148,300,75,11,-36,-31,-27
39,-13,19,143,216,65,-8,-67,-69,0
71,-125,31,81,62,21,-17,-71,-58,53
27,-176,6,27,-103,5,11,-46,-40,35
10,-145,-5,-72,-306,-11,40,6,-2,15
82,-21,6,-160,-449,-80,51,69,77,89
57,33,-2,-40,-100,-80,-6,35,63,36
