-7,-4,-9,3,-9,-17,-34,-25,-15,-8
-5,-1,-99,19,-13,-23,-31,-24,-30,0
0,-5,-26,34,-11,-18,-14,-24,-64,-7
9,-7,6,27,-12,-20,0,-21,-79,-19
3,-2,-101,23,-11,-20,0,-18,-66,-13
13,1,-144,16,-9,-17,-2,-3,-12,2
30,29,-32,5,-15,-20,-26,8,74,18
51,91,36,12,-27,-1,-70,46,257,46
44,100,38,11,-30,-8,-62,51,294,43
7,34,30,-10,-24,-21,-31,29,161,20
-16,-48,0,-28,-20,-27,-29,-10,-70,-35
-36,-67,-6,-29,-19,-26,-20,-14,-96,-61
-31,-59,-2,-26,-25,-39,-37,-13,-79,-37
-2,-51,-1,-9,-18,-39,-54,-15,-55,-25
14,-50,3,-3,-11,-27,-47,-12,-27,-35
19,-47,12,-1,-8,-7,-30,-17,-16,-14
35,-31,-31,13,-2,-6,-27,-14,-30,4
31,-14,-15,26,11,1,-27,-7,-37,10
7,-22,33,15,17,2,-23,-6,-43,4
-2,-23,37,7,10,1,-11,-8,-36,9
2,-15,40,16,16,5,11,0,-11,2
0,-7,10,26,24,6,37,-1,-3,-17
-5,13,-19,22,23,0,16,-8,3,-29
-3,35,9,7,7,-9,18,-21,11,-21
7,21,37,2,0,0,28,-19,26,-3
10,26,38,-7,-2,-7,30,-16,31,-2
30,74,35,-4,-1,-12,21,15,190,21
40,119,-16,8,-2,4,14,38,383,38
17,109,-38,3,-11,3,20,39,367,27
3,70,12,-7,-12,0,9,20,252,12
30,92,18,7,-11,0,21,27,286,27
54,103,21,21,0,0,40,42,310,53
39,81,19,21,9,21,42,49,245,50
1,41,6,17,14,29,39,31,112,23
30,97,27,36,14,34,35,47,198,22
36,107,42,34,30,32,38,56,224,29
26,76,26,23,31,34,20,50,163,38
12,56,28,24,24,27,16,42,84,31
11,75,47,36,27,31,29,43,128,31
31,78,56,37,30,37,3,34,102,17
11,38,38,17,20,33,-21,14,29,-2
2,22,31,5,6,34,0,11,8,2
9,36,32,10,3,31,-1,24,70,3
-1,27,14,20,7,11,-27,-7,26,-8
-20,-6,-68,4,-5,-4,-56,-15,-56,-22
6,19,-65,-7,-14,15,-54,20,29,-6
14,9,-44,-27,-10,13,-38,18,25,-4
0,-36,-29,-30,-3,-3,-44,11,-79,1
18,-23,2,-13,12,1,-32,19,-30,32
40,0,15,-6,12,19,1,25,21,55
39,-13,20,-13,9,19,14,15,-32,53
-2,-42,27,-10,16,10,13,-19,-171,0
-12,-7,39,9,20,10,11,-6,-97,-9
-2,-8,17,7,23,7,12,-2,-53,6
10,-18,0,13,22,10,49,0,-52,23
30,-65,-10,-2,9,8,58,0,-111,54
7,-117,-9,-1,5,-18,32,-35,-274,8
-71,-149,-23,6,11,-21,41,-42,-362,-36
-97,-151,-38,-11,10,-15,48,-40,-336,-35
-68,-144,-65,-41,9,-32,28,-32,-286,-5
-80,-119,-53,-45,-2,-43,14,-30,-261,-11
-119,-104,-39,-36,-4,-42,12,-31,-266,-82
-103,-87,-58,-45,-5,-41,9,-37,-241,-98
-72,-51,-36,-30,-11,-24,5,-26,-179,-82
-56,-37,-30,-27,-3,-4,12,-11,-150,-70
-32,-20,-71,-20,3,7,16,-4,-101,-34
6,45,-74,1,12,38,29,28,79,7
16,71,-18,25,19,36,61,37,164,19
37,77,0,37,17,26,67,34,150,31
26,36,-7,33,29,17,51,23,14,16
4,30,13,24,30,14,18,31,14,7
19,81,46,29,24,18,-29,60,167,37
24,88,6,25,16,5,-25,59,173,38
12,64,-60,18,3,-13,-25,32,119,24
-26,-5,-15,2,-7,-33,-22,-6,-53,-6
-59,-56,1,-6,-19,-42,-17,-32,-154,-32
-77,-75,12,-16,-19,-43,-21,-48,-172,-44
-89,-102,5,-14,-11,-32,-9,-57,-197,-59
-63,-106,-9,-20,-14,-30,-11,-43,-175,-54
-18,-82,-17,-31,-17,-31,-30,-26,-139,-29
29,-10,-80,-20,-14,-17,-17,12,-8,-16
44,53,-37,-1,-10,2,14,65,176,10
48,33,25,0,-9,14,28,63,177,35
35,-10,18,0,-12,10,15,37,41,34
17,-32,0,-6,-12,-3,7,-11,-169,0
-7,-38,12,-2,-7,-5,3,-32,-256,-26
-35,-47,42,-3,4,-4,-10,-28,-255,-29
-25,-48,-18,-4,2,-3,-12,-15,-179,-5
-21,-43,-110,-8,0,11,-8,8,-98,-6
0,33,-45,3,3,33,-28,53,131,-3
25,69,11,15,2,27,-40,70,189,4
36,57,20,11,-7,8,-3,58,159,17
10,-4,24,-9,-19,6,-3,13,-16,-9
-2,-40,5,-18,-31,-4,-41,-11,-93,-32
-25,-64,-12,-15,-45,-21,-45,-32,-120,-61
-33,-63,-5,-30,-44,-26,-38,-37,-127,-72
-36,-50,10,-35,-35,-24,-27,-36,-119,-67
-35,-44,2,-18,-24,-14,11,-34,-117,-58
-17,-40,27,-13,-14,-7,24,-38,-102,-55
0,-28,34,3,-6,15,29,-13,-41,-33
33,39,37,30,-1,37,25,39,156,5
65,83,39,36,7,37,17,56,291,35
75,80,43,20,7,30,-12,42,274,50
53,55,50,9,11,30,-21,18,184,28
59,77,51,18,7,22,-12,37,230,33
68,75,40,16,-5,18,-25,56,246,61
56,50,-15,3,-10,19,-15,32,172,56
16,-26,-12,-10,-4,12,-2,-20,-47,15
-13,-85,-8,-21,-16,-7,5,-50,-164,-12
-37,-85,-2,-26,-23,-11,-23,-51,-166,-33
-49,-78,-4,-30,-29,-14,-26,-53,-162,-32
-42,-79,-9,-44,-35,-20,-44,-53,-147,-22
-28,-70,1,-38,-31,-13,-59,-61,-146,-22
-23,-68,3,-33,-33,-21,-41,-65,-156,-10
-11,-62,0,-27,-24,-24,-34,-59,-146,5
-4,-56,-2,-19,-7,-3,-8,-49,-153,8
-7,-54,1,-10,12,-1,2,-40,-137,21
2,-44,18,3,30,-7,-31,-53,-141,19
0,-34,37,13,34,-22,-25,-44,-120,17
-16,-19,34,8,37,-15,-20,-8,-66,10
-19,-24,43,9,34,0,-25,-7,-73,-4
-25,-36,37,9,21,8,-13,-15,-76,0
-12,-20,30,2,8,-7,-31,-11,-63,17
15,-30,-15,-8,-3,-9,-35,-10,-59,33
4,-26,-16,-19,6,-12,-28,-10,-43,17
-26,3,18,-18,9,-3,-28,-18,7,-6
-10,51,22,-10,10,20,-21,27,239,40
0,82,8,-16,4,21,16,50,324,63
6,92,6,-15,-9,7,26,39,279,31
-5,47,3,-22,-11,-2,19,18,138,11
-13,54,4,-10,2,11,-6,39,174,32
-7,83,27,6,13,16,2,57,256,51
0,70,36,14,22,17,-4,42,198,49
0,47,-3,22,23,10,-1,24,89,37
-5,-3,-64,20,26,10,12,-10,-45,15
15,10,12,19,24,26,41,-17,-6,17
49,95,50,33,23,46,42,28,201,61
45,106,43,25,22,35,46,29,226,66
20,81,-10,13,17,19,33,29,158,60
3,43,-22,-3,4,12,11,32,111,50
-1,35,-18,-8,2,18,2,36,135,47
-6,43,-15,-16,0,13,-6,25,76,6
-3,40,-10,-11,-1,4,-9,19,58,-14
0,-39,-27,-27,-24,-12,-28,-12,-107,-15
-33,-90,-37,-26,-28,-28,-10,-32,-210,-31
-87,-83,-19,-10,-11,-33,-27,-49,-236,-77
-113,-70,-6,0,4,-32,-7,-59,-246,-96
-76,-59,-56,0,9,-39,4,-50,-214,-60
-10,-17,-88,3,6,-31,6,-44,-182,-26
-14,10,19,43,19,-18,-12,-44,-212,-36
-10,-27,-6,44,25,-6,-11,-30,-207,-14
51,-36,-47,16,12,4,-11,-7,-161,19
44,-49,-138,3,3,10,-15,1,-136,22
0,-44,-89,8,1,2,-5,-13,-137,-6
2,-29,4,6,0,1,-26,-26,-119,-2
23,-2,24,-1,-10,3,-34,-33,-89,25
28,5,25,-12,-26,-4,-31,-32,-63,28
14,-13,21,-14,-41,-32,-65,-42,-89,25
20,-7,24,-9,-35,-42,-55,-18,-49,36
38,14,-8,-6,-23,-18,-13,-4,-31,49
19,12,-112,2,-30,-5,20,-14,-46,56
-3,-3,-135,-15,-38,-3,25,-7,-35,62
-5,-15,-40,-27,-37,5,24,-11,-13,43
-15,-35,17,-36,-33,10,34,-36,-9,12
-13,-27,17,-36,-13,6,31,-51,-13,-34
-12,-4,22,-12,0,11,18,-39,-18,-91
-3,1,-5,2,-8,29,11,-32,-11,-65
5,-2,-97,4,-5,30,2,-14,-1,10
12,1,-9,-3,-13,17,23,11,11,47
-7,-4,33,-18,-19,30,54,63,15,33
-10,-10,47,-3,-8,43,72,86,13,-5
-22,-17,44,16,4,30,63,74,24,-55
-31,-2,35,11,8,14,21,66,27,-66
3,22,54,17,9,15,10,36,34,-27
9,24,62,14,4,3,-12,14,46,-6
9,30,25,8,-4,-9,-4,23,69,10
16,42,-40,5,-16,-13,-15,15,97,-7
-14,4,14,-4,-28,-20,12,-6,43,-72
-36,-29,20,-8,-38,-21,47,-1,3,-93
-29,-19,11,-9,-36,-20,46,-2,-17,-98
-19,-11,11,-3,-22,-9,3,-12,-40,-100
-18,4,22,9,-9,-13,-39,-10,-65,-84
-7,14,28,17,0,-1,-36,-16,-46,-16
3,11,16,21,3,22,-44,0,-4,65
0,10,-24,17,-3,20,-50,4,-30,83
22,22,-49,-5,-19,5,-27,1,-32,65
43,28,1,-13,-14,3,-18,8,-24,68
49,31,18,-4,4,10,-17,27,-16,60
43,37,24,6,12,5,5,41,0,57
38,35,20,26,5,2,4,33,4,54
45,32,22,33,1,0,-11,21,13,73
54,38,23,33,6,-3,-41,13,8,110
62,31,16,30,9,-7,-26,15,1,119
74,12,0,14,-1,-18,8,-5,3,116
76,-10,-18,-8,-9,-28,34,-45,0,96
99,-14,-16,-16,-20,-42,21,-69,0,86
107,0,-9,-15,-35,-42,29,-60,23,97
91,-1,-20,-29,-29,-41,26,-42,44,123
58,-2,-67,-39,-24,-32,33,-41,59,131
72,13,-27,-21,-11,-20,33,-41,50,88
49,33,18,0,6,-6,9,-24,75,30
7,74,5,32,43,28,0,29,208,-8
-10,70,-15,42,75,51,0,90,263,61
0,55,53,23,76,51,-8,176,322,192
0,45,52,13,48,39,-23,153,326,201
-19,4,28,-7,17,22,5,101,249,129
-24,-6,22,-36,-5,-11,16,75,222,116
9,-17,7,-63,-23,-44,-30,46,170,117
45,-32,-6,-85,-39,-54,-57,13,114,142
65,-31,-17,-95,-62,-79,-69,-14,72,168
63,-20,-37,-84,-74,-98,-82,-33,35,107
58,-14,-30,-66,-58,-91,-84,-60,-3,123
99,-3,-23,-37,-40,-62,-83,-104,-25,273
176,3,-38,-31,-45,-50,-94,-145,-36,459
281,16,-96,-42,-51,-42,-145,-160,26,639
319,5,-72,-52,-51,-15,-181,-185,31,691
286,-76,-95,-97,-96,-20,-212,-243,-102,610
257,-89,-113,-106,-98,-15,-226,-246,-93,503
229,-57,-74,-75,-78,-24,-179,-213,-39,381
153,-46,-51,-76,-80,-56,-120,-148,-77,193
32,-43,-26,-72,-55,-50,-30,59,-135,-136
-87,-2,29,-7,18,12,95,132,-211,-538
-191,11,72,48,71,56,220,97,-234,-891
-362,-38,56,42,58,36,289,132,-191,-1094
-466,-58,57,50,68,33,244,172,-104,-1065
-434,-15,85,86,104,53,220,200,-24,-861
-318,31,89,78,104,37,118,179,53,-584
-220,67,52,44,64,4,9,101,130,-386
-157,80,39,30,37,-23,-23,67,218,-337
-96,28,32,18,43,-22,6,43,98,-314
-22,-9,0,15,41,-16,59,76,32,-220
6,-7,-4,9,44,-15,90,105,37,-171
-1,8,8,17,46,-9,70,72,27,-241
6,17,7,15,33,-9,41,28,6,-225
-16,22,22,32,33,5,21,8,-17,-151
-72,51,38,52,40,18,-3,-3,-23,-217
-89,56,45,62,44,33,2,-15,-24,-260
-20,56,33,69,45,52,2,-25,-27,-100
69,66,55,60,24,47,6,-26,-3,150
98,36,55,27,0,19,1,-33,21,293
132,4,13,-15,-38,-36,1,-44,63,371
91,-10,-9,-32,-43,-65,-8,-40,71,343
1,-43,-29,-36,-46,-56,-4,-39,64,244
-46,-42,-24,-39,-45,-51,3,-33,70,61
-162,-49,-18,-21,-23,-32,15,-35,59,-186
-261,-56,-18,8,-5,3,44,-34,62,-407
-292,-49,-8,21,5,33,63,-3,86,-473
-306,-20,26,40,22,41,57,11,97,-456
-235,34,65,71,42,62,48,28,164,-368
-173,36,68,90,51,81,73,30,157,-265
-98,-9,63,71,43,62,64,3,30,-215
-14,-11,36,45,26,29,30,-18,-4,-169
2,-37,11,19,9,3,-6,-26,-3,-105
21,-58,-22,-14,-9,-17,3,-12,35,39
67,-62,-51,-58,-46,-40,-9,-8,77,149
98,-53,-107,-60,-61,-66,-54,-9,74,244
107,-32,-149,-55,-65,-85,-77,-15,81,359
133,-28,-78,-62,-69,-87,-72,-21,65,353
176,-3,-71,-53,-56,-63,-59,-2,86,386
194,34,-22,-43,-50,-36,-65,4,88,370
181,43,7,-42,-43,-26,-57,-9,44,285
183,36,5,-45,-35,-23,-49,-40,50,200
187,23,8,-28,-9,-11,-37,-70,-14,87
132,-2,26,-22,12,4,-26,-94,-104,-19
101,-12,34,-9,37,30,-6,-99,-106,3
98,-12,50,9,65,65,17,-106,-99,96
83,-9,42,17,65,65,13,-109,-92,168
58,-21,22,8,60,47,9,-99,-83,140
-43,-30,5,-10,34,59,43,-67,-61,31
-133,-12,-15,-48,-17,66,107,36,143,64
-131,-15,-91,-85,-60,44,106,95,241,185
13,-28,-109,-99,-69,34,38,55,184,542
108,-92,-123,-113,-70,-5,-26,84,49,980
198,-90,-104,-94,-46,-40,-38,116,28,1125
297,2,-45,-29,-17,-73,-35,85,131,886
320,6,-22,-9,2,-88,-47,21,10,523
340,35,-2,-9,-9,-64,-26,39,58,138
364,51,28,11,0,-67,-33,42,13,-62
364,68,43,30,13,-74,-55,49,29,102
293,88,56,36,4,-57,-26,85,119,99
157,81,73,36,6,-26,8,76,40,-83
5,64,98,66,15,11,39,50,-73,-366
-129,79,113,102,44,45,44,64,11,-589
-106,103,123,115,77,70,53,73,139,-483
55,68,70,78,56,45,46,35,44,-77
96,14,-2,14,8,8,29,44,88,306
199,-45,-91,-56,-60,-34,-16,54,187,796
494,-65,-126,-88,-101,-74,-44,33,169,1196
705,31,-74,-64,-83,-71,-45,20,213,1358
616,39,-24,-23,-36,-36,13,4,63,945
209,26,24,27,15,33,104,35,-37,130
-50,51,59,73,49,82,122,101,102,-195
-4,100,55,67,51,72,112,134,228,203
78,67,31,51,36,45,66,114,149,211
168,69,20,41,14,31,37,104,191,50
330,2,-57,-49,-55,-38,-15,40,89,144
413,-39,-140,-126,-116,-87,-45,-25,9,210
337,16,-93,-101,-114,-89,-61,-69,-86,38
134,39,-13,-30,-39,-52,-47,-81,-250,-406
-252,-30,1,22,31,-20,-11,-74,-386,-790
-569,-76,25,72,81,56,43,-38,-343,-917
-673,-107,24,87,94,96,72,-16,-251,-923
-574,-104,19,77,78,100,61,-29,-187,-957
-290,-39,58,89,79,106,79,-31,-146,-960
-136,72,134,119,98,128,115,-1,-70,-1082
-55,167,145,127,61,102,87,-19,109,-927
9,153,85,68,-8,50,49,-25,201,-503
-25,145,29,24,-64,15,61,23,339,-186
-202,52,4,14,-97,-38,36,-9,159,-131
-444,-75,-23,13,-92,-50,18,4,-106,-394
-769,-67,28,76,-15,12,44,34,-207,-826
-976,-68,48,97,35,68,81,12,-168,-801
-770,-89,-12,61,72,109,110,6,-118,-466
-446,-67,-15,48,129,145,119,64,-46,-218
-252,-17,34,65,157,142,102,105,50,-202
-210,24,25,69,143,112,44,54,109,-83
-66,20,-81,45,87,68,-10,-6,-3,334
162,-5,-118,-3,17,8,-58,-53,-116,791
361,-30,-63,-65,-64,-70,-124,-72,-78,1057
350,-42,-131,-94,-112,-120,-146,-43,-7,1025
138,-27,-148,-104,-131,-123,-58,34,61,736
156,67,-7,-57,-77,-68,14,91,210,760
311,156,36,-15,-33,-24,44,83,375,693
166,97,21,-6,3,12,95,94,351,94
-137,0,7,2,38,68,159,86,211,-397
-380,-70,-12,-35,18,92,93,24,88,-619
-456,-42,-9,-49,26,124,7,-28,91,-735
-468,-55,-6,-60,26,117,54,-36,-78,-969
-402,-46,17,-27,68,124,118,0,-111,-1009
-247,-43,21,39,154,125,93,0,-212,-883
-95,-41,32,79,194,122,-50,-30,-240,-464
-91,13,74,68,203,170,-96,5,-156,-147
-303,5,19,112,227,190,-116,-23,-174,-112
-413,20,57,208,254,175,-204,-46,-125,-103
-299,30,128,231,205,177,-193,-61,-180,53
-178,-1,93,147,93,150,-46,-117,-277,290
-81,-49,28,64,14,72,109,-142,-283,585
94,-34,13,3,-49,7,118,-151,-273,934
278,32,54,-20,-94,-39,10,-133,-262,1123
403,42,27,-63,-151,-63,-25,-123,-284,837
552,8,-33,-146,-213,-95,-4,-14,-275,286
766,-26,-91,-209,-254,-160,-46,97,-211,102
1002,-23,-83,-214,-221,-187,-80,26,-195,30
950,12,-19,-142,-119,-133,-84,-19,-198,-361
780,46,37,-98,-38,-62,-42,2,-196,-560
605,52,51,-105,-25,-26,-11,26,-145,-294
339,31,37,-149,-24,17,14,44,-91,165
-144,15,36,-126,83,94,65,69,-71,116
-644,-4,52,0,242,110,77,39,-115,-147
-984,-30,63,124,288,69,43,10,-140,-297
-1026,-41,62,181,259,26,0,16,-161,-309
-719,-42,-11,94,138,39,18,57,-143,-223
-476,-48,-163,35,14,90,77,110,-110,-251
-362,-54,-176,95,49,104,87,73,-133,-420
-293,-39,-145,124,36,63,71,39,-109,-507
-184,-36,-138,90,-86,-11,27,12,-62,-188
4,-28,-48,-5,-228,-101,-23,-8,-6,387
206,-10,21,-62,-303,-139,-70,-31,21,641
516,8,35,-68,-278,-137,-91,-48,-13,589
686,-2,13,-61,-222,-128,-85,-60,-14,558
691,-8,10,-81,-193,-121,-77,-36,24,587
468,3,24,-75,-121,-76,-45,-14,9,239
180,45,85,-6,-28,-3,3,17,-33,-284
53,100,148,59,33,41,43,46,-30,-544
145,147,166,74,37,58,41,47,-35,-420
267,108,131,51,10,40,36,30,-30,-194
106,6,84,28,-20,17,66,31,-41,-312
-125,-51,60,23,-62,10,73,42,-61,-338
-351,-73,28,-2,-77,0,53,7,-75,-198
-456,-108,-15,-19,-90,-34,-5,-61,-85,-28
-367,-115,-49,-51,-136,-58,-25,-66,-60,354
-191,-73,-40,-72,-189,-81,-43,-62,35,968
-110,-44,-46,-101,-210,-113,-98,-108,73,1254
-18,-34,-64,-101,-194,-99,-151,-172,71,1040
161,-38,-81,-112,-155,-81,-158,-212,27,568
132,-77,-85,-129,-81,-60,-111,-159,-20,-242
-92,-87,-80,-107,5,-37,-32,-99,-74,-1030
-241,-55,-23,-60,60,-22,9,-9,-72,-1173
-363,-17,42,-2,95,39,73,156,30,-807
-370,42,62,25,80,71,119,194,131,-114
-249,101,59,13,61,45,61,131,199,405
-45,116,42,-16,24,6,-18,66,216,529
197,141,35,-53,-29,-54,-69,18,178,499
144,186,59,-4,0,-36,-51,-13,103,161
-49,153,78,45,56,45,46,8,61,-90
-24,48,65,14,41,66,128,27,107,299
-39,7,39,7,18,60,105,4,95,361
-266,20,36,45,61,101,84,2,16,-197
-369,21,-26,77,99,115,37,0,-4,-515
-232,9,-70,74,91,83,18,8,7,-325
85,-18,-100,38,68,40,28,-19,31,-182
402,-34,-47,8,39,0,0,-115,36,-24
486,-59,-90,-17,-6,-50,-15,-147,-15,82
468,-68,-91,-67,-57,-57,-26,-104,0,-13
263,-73,-17,-85,-67,-9,-3,-35,47,-299
71,-20,18,-50,-38,3,53,-6,101,-383
-79,55,63,-3,16,16,134,48,241,-517
-241,-54,-28,-68,-23,-23,157,100,205,-338
-98,-109,-81,-118,-84,-53,132,190,175,86
266,-33,-4,-52,-50,-11,78,203,156,307
363,40,77,31,12,31,29,137,82,332
247,66,111,53,46,34,58,35,-28,324
6,37,80,41,43,37,44,-66,-96,286
-290,8,48,34,33,71,-32,-109,-100,36
-378,51,78,57,45,80,-105,-121,-185,-279
-377,109,123,82,64,61,-153,-126,-276,-585
-372,86,105,79,68,57,-148,-52,-222,-530
51,85,113,61,64,51,-163,-29,-115,-99
565,78,97,35,27,12,-168,-68,-55,305
686,63,34,-9,-20,-29,-141,-48,100,586
592,13,-9,-29,-56,-47,-117,-51,37,466
509,-25,-31,-38,-62,-48,-94,-42,55,104
255,-96,-64,-71,-76,-33,-94,-34,110,-207
-133,-149,-80,-82,-78,-14,-96,-43,108,-436
-452,-167,-81,-63,-57,-3,-82,-47,88,-431
-480,-88,-35,-24,-37,-7,-79,-53,93,-126
-241,-17,0,-15,-34,-30,-72,-75,14,169
-168,27,33,7,-7,-29,-14,-42,-35,89
-104,69,72,50,25,-17,1,67,-16,32
215,57,39,31,1,-42,-43,60,20,343
570,1,-28,-7,-36,-50,-64,11,61,697
287,-55,-45,-2,-18,-21,-14,24,83,681
-284,-43,7,49,33,10,3,14,74,341
-544,1,56,83,54,34,21,-21,46,-109
-535,5,17,47,33,34,27,-34,153,-441
-477,-27,-32,-3,-9,-2,30,15,280,-414
-483,-129,-114,-28,-6,-51,46,20,77,-314
-407,-148,-166,-29,37,-60,-15,-43,-60,-217
-288,-138,-124,-14,106,-33,-48,-79,-105,-240
-204,-103,-102,-41,104,6,-9,-70,-77,-214
-158,-57,-71,-120,1,55,-4,-44,-62,-89
-265,-35,-48,-115,-31,120,28,-2,-64,-373
-275,-39,-18,-36,25,97,64,-23,-136,-668
25,-10,-17,-18,15,26,87,1,-148,-443
260,95,-26,-30,-8,-3,140,40,-114,-121
450,163,-92,-58,-33,-39,116,45,-72,177
734,193,-60,1,68,-1,118,78,-45,536
780,196,62,108,227,105,81,73,-94,490
362,134,132,130,190,186,-22,-30,-136,195
124,88,93,61,-18,213,-96,-166,-141,170
19,49,42,29,-77,177,-54,-219,-125,-40
-99,-52,-24,52,-39,98,-50,-298,-203,-381
-308,-184,-114,90,-2,-16,-90,-401,-337,-447
-730,-202,-110,89,62,23,43,-271,-227,-669
-622,-42,-60,0,72,90,323,42,135,-505
-9,38,-53,-143,-51,31,301,288,316,41
435,28,-30,-173,-151,-55,117,430,392,285
492,-15,-47,-82,-163,-160,-48,320,215,524
624,0,-10,-3,-95,-194,-163,189,27,1131
619,36,38,47,-12,-185,-168,99,11,1322
436,56,68,51,3,-194,-122,54,10,988
114,43,31,21,-36,-185,-68,20,-80,472
-326,-57,-71,-11,-87,-149,6,21,-178,-511
-699,-93,-3,51,-113,-90,81,75,-214,-1547
-748,-74,45,135,-129,-52,89,67,-181,-1365
-704,-52,41,178,-106,-33,52,5,-192,-840
-456,-29,54,203,-37,-29,-12,-40,-206,-554
-144,-18,44,191,42,20,-47,-46,-208,-304
2,-11,1,51,110,79,-38,-19,-143,58
12,9,-35,-33,189,89,-65,-10,27,281
-91,13,-42,-82,225,39,-75,-26,38,190
-293,-11,-12,-75,152,-34,-60,-25,-71,-18
-323,10,-26,-45,-4,-80,-24,12,-18,-86
-98,49,-47,-98,-189,-85,12,57,38,-11
109,62,31,-101,-228,-90,6,31,61,355
310,105,63,-58,-176,-80,-4,4,243,732
360,126,59,-27,-148,-89,-17,10,318,836
295,106,35,10,-140,-148,-49,-17,232,646
234,115,23,17,-116,-137,-8,-4,231,428
208,150,0,37,2,-71,38,29,317,439
323,125,1,41,43,-46,18,10,283,654
570,43,-71,12,54,-63,-43,-53,173,311
794,13,-162,-6,71,-71,-58,-34,240,-178
980,25,-77,-39,-39,-63,-72,-5,244,-313
960,52,-10,-116,-114,-41,-89,-44,-3,-242
611,77,8,-128,-37,-30,-91,-96,-207,-193
64,117,86,26,109,56,-32,-49,-65,-549
-678,37,114,103,220,134,41,47,112,-1041
-1080,-85,76,61,169,113,63,110,247,-707
-1063,-101,91,65,114,95,40,49,69,-290
-933,-46,115,113,122,95,33,5,-16,-266
-635,26,83,90,115,94,27,26,136,-135
-306,21,10,17,61,34,-5,-5,160,46
12,12,-25,-61,-16,-55,-54,-42,93,158
321,19,-18,-88,-84,-103,-72,-70,29,241
341,92,20,-61,-162,-123,-68,-87,76,317
210,161,77,-23,-183,-107,-72,-63,76,332
232,201,134,16,-155,-88,-88,-63,22,315
187,135,104,25,-100,-43,-82,-92,-174,150
-99,66,67,49,-8,43,-44,-71,-255,-54
-258,79,53,54,64,87,1,-28,-175,-123
-138,86,3,-19,116,86,-22,-6,-26,-72
3,53,-55,-66,241,69,-54,-5,104,-32
39,-22,-117,-89,351,54,-11,12,143,-35
-21,-65,-120,-68,353,20,-8,-7,66,-32
-4,-11,-62,17,277,-11,-57,-86,-31,7
175,104,-2,9,103,13,-19,-38,66,20
478,111,26,-6,-34,16,41,59,159,71
433,21,0,-17,-90,-28,49,91,118,132
146,-5,-5,-8,-82,-49,42,70,115,202
-24,9,28,0,-50,-39,31,32,109,257
-20,35,41,-52,-35,-7,50,43,183,355
-96,47,34,-90,44,24,54,38,171,303
-132,-41,15,-103,118,46,41,-12,-31,81
-37,-166,-22,-18,166,33,15,-55,-264,-181
63,-202,-59,-24,51,12,32,-36,-247,-187
43,-188,-78,-82,-181,-47,11,-63,-279,-98
-56,-141,-67,-96,-267,-107,-47,-76,-203,56
-303,-30,-64,-26,-230,-150,-139,-75,46,142
-650,51,0,48,-247,-176,-175,-109,-19,26
-616,68,52,23,-301,-157,-122,-96,-197,-103
55,159,79,-34,-347,-60,-33,11,-39,-67
284,155,45,-38,-262,46,23,73,84,9
136,42,-4,17,-122,92,25,56,24,-81
145,-26,14,66,39,62,-7,15,-55,-137
206,17,50,86,204,31,-17,69,87,79
110,100,77,65,222,28,22,153,208,260
-103,113,96,58,172,41,7,114,90,111
-238,89,95,34,114,37,-27,73,4,-113
-65,97,89,31,94,39,4,76,28,-149
45,54,39,2,56,14,14,82,60,79
301,-16,-83,-42,-51,-93,-59,-5,-117,524
566,-54,-97,-69,-109,-146,-117,-81,-239,756
563,-86,-72,-87,-98,-112,-79,-66,-211,620
176,-60,-40,-54,-89,-24,0,54,-15,108
-243,-20,-15,-31,-93,50,82,142,78,-434
-486,-32,-3,19,-17,70,68,115,-2,-727
-620,-47,-10,78,77,53,-3,-22,-185,-711
-673,-105,-42,77,177,-8,-85,-155,-280,-592
-476,-203,-109,48,216,-100,-181,-300,-405,-386
54,-224,-155,-57,191,-86,-163,-319,-433,-148
547,-160,-123,-129,124,66,1,-144,-222,-126
550,-83,-25,-104,58,214,129,50,41,-168
615,-32,40,-51,70,234,132,77,90,14
901,18,86,25,40,103,35,7,1,192
789,142,143,111,-62,-31,-40,4,80,299
405,186,162,86,-201,-73,-21,68,130,309
-5,71,102,-3,-227,-15,68,125,15,186
-127,0,57,13,-77,68,131,125,-114,-12
74,17,61,64,93,91,131,120,-95,-161
52,117,120,92,186,105,109,117,91,-201
-282,117,130,78,138,79,59,33,-2,-153
-431,-89,38,-24,-8,-27,0,-68,-259,23
-389,-189,0,-54,-98,-106,-49,-124,-330,108
-184,-141,29,-32,-129,-93,-39,-109,-287,120
-163,-86,31,-35,-119,-30,-4,-53,-181,115
-185,-16,32,-18,-8,2,-21,-1,27,80
80,14,31,28,123,-6,-63,20,186,212
692,-18,-10,17,92,-51,-90,-15,114,684
872,-72,-86,-49,-10,-141,-148,-87,-62,1252
593,-113,-145,-77,-28,-198,-205,-135,-153,1431
257,-73,-115,-58,78,-105,-139,-117,-177,882
-198,-60,-152,-16,159,53,23,42,-26,-200
-626,-69,-243,-44,131,104,111,209,265,-731
-716,-2,-160,5,129,94,85,206,369,-554
-74,143,40,98,117,53,12,72,184,-336
372,218,38,107,36,18,-33,20,114,-414
587,193,5,7,-83,-18,-57,3,29,-325
722,63,-158,-115,-177,-77,-82,-46,-55,156
523,20,-105,-72,-126,-42,-46,-66,-51,-156
-391,-74,4,21,0,72,49,0,-63,-964
-1271,-126,34,95,62,127,128,62,-59,-1153
-981,-117,40,97,25,91,132,58,-105,-875
-359,-100,-16,45,-92,28,104,103,105,-237
-281,-71,22,31,-167,-23,115,118,138,-26
-474,-95,16,41,-148,10,166,142,91,-119
-540,-81,12,87,-95,66,173,113,120,40
-451,-48,52,100,-100,67,152,33,31,179
-503,-18,104,120,-201,57,140,97,162,-21
-439,16,123,97,-267,52,94,142,332,-175
-220,35,101,75,-174,42,0,40,209,-183
-162,0,48,66,52,40,-36,-43,-67,-439
47,-16,0,-16,190,83,-11,-27,-191,-501
795,-4,-2,-69,259,112,-8,6,-111,-29
1186,13,12,-12,347,93,-46,-9,-44,507
1188,74,29,36,355,-6,-138,-102,-3,880
1492,169,41,-18,142,-115,-227,-202,-47,1277
2236,154,-7,-145,-92,-219,-306,-279,-92,1689
2090,118,-53,-196,-152,-216,-300,-232,104,1661
1099,102,-50,-179,-111,-152,-232,-146,133,1060
-23,77,-48,-179,-78,-51,-103,-40,224,454
-655,-11,-75,-184,-28,35,-1,63,327,164
-1010,-152,-71,-143,37,48,19,79,128,-90
-1827,-306,-108,-58,117,48,27,25,-76,-753
-2257,-312,-129,-6,200,27,8,-110,-311,-1660
-1565,-252,-112,-50,182,-19,-50,-228,-394,-1655
-816,-188,-85,-72,188,8,-78,-271,-364,-1214
-477,-227,-80,-48,152,-7,-75,-348,-559,-734
-474,-250,-85,38,102,-55,-77,-324,-599,-464
-452,-177,-33,129,134,6,-43,-108,-189,-359
-471,-191,-30,234,125,84,25,40,58,-294
-591,-239,-117,261,-23,83,62,89,88,-120
-475,-183,-130,191,-143,14,48,161,355,19
-432,-67,15,87,-120,-14,41,145,301,-138
-345,32,99,77,-42,15,25,80,169,-241
-230,26,76,45,-1,32,6,46,85,-259
-93,33,64,2,-10,83,44,121,237,-235
10,-3,40,73,-32,105,86,111,168,-263
108,-18,-24,116,-80,82,65,3,-53,-166
399,-26,35,85,-84,37,24,-38,-99,91
800,50,70,58,-140,-7,-5,19,111,402
827,164,87,28,-228,-74,-50,39,297,671
300,111,68,-45,-290,-132,-58,10,180,590
343,131,53,-95,-298,-97,15,92,274,669
1438,236,-10,-124,-264,-47,40,149,472,1308
2555,212,-178,-129,-152,-96,-88,-13,297,2004
2329,146,-230,-121,34,-175,-197,-129,218,1910
1412,57,-260,-113,224,-195,-131,-52,358,1271
528,61,-140,-22,226,-106,-28,1,293,-47
-175,89,64,14,115,18,74,10,111,-1168
-957,18,106,54,135,100,137,21,-48,-1508
-1151,-83,72,50,95,94,149,4,-149,-1040
-701,-185,3,-22,-15,50,61,-76,-232,-499
-690,-239,-30,-68,-65,-4,-41,-206,-379,-504
-1120,-271,-47,-44,-49,-26,-79,-245,-360,-689
-1122,-111,32,-95,-142,13,-40,-228,-332,-509
-414,94,84,-198,-239,10,24,-108,-228,126
42,132,72,-118,-230,-69,-8,-53,-68,430
95,145,75,75,-269,-76,-14,27,241,347
-179,184,81,230,-164,92,136,229,424,70
-505,184,140,259,152,292,215,261,282,-499
-746,55,140,215,525,314,193,164,82,-842
-1080,-135,37,170,516,225,187,197,135,-1002
-1132,-175,59,182,243,171,161,124,-33,-1043
-857,-201,23,123,29,157,160,110,-112,-680
-541,-221,-59,27,-57,142,200,187,-7,-274
-214,-126,-29,18,-111,119,160,177,125,-127
-8,-12,21,28,-178,120,133,149,167,-155
22,-28,11,17,-219,130,122,129,113,-195
89,-56,1,7,-150,171,110,121,143,-55
129,-42,34,43,84,199,99,108,150,21
156,57,86,105,281,191,46,42,94,246
365,184,105,72,188,103,-48,-102,-63,479
756,255,140,54,-19,-22,-216,-330,-222,510
1102,161,55,20,-153,-165,-371,-473,-329,626
1280,5,-131,-120,-160,-235,-361,-306,-126,654
812,-215,-306,-275,-90,-279,-260,-79,2,391
-31,-215,-260,-233,5,-228,-151,-31,-58,181
-44,-17,-95,-113,-3,-51,-8,70,119,108
884,191,-7,-68,-39,33,27,129,401,467
1688,165,-48,-116,-29,-48,-62,-32,143,707
1308,-56,-140,-182,-66,-86,-87,-64,48,478
379,-215,-190,-260,-183,-100,-82,-82,-50,199
-243,-190,-115,-188,-68,-25,-47,-94,-16,-270
68,-43,13,-29,136,-6,-31,-62,177,69
-14,104,139,132,184,-15,-34,-20,268,665
-219,237,173,154,96,-59,-65,-20,222,761
-84,268,35,23,-38,-84,-59,35,364,809
-427,96,-128,-97,-80,-61,-14,50,279,481
-1322,1,-42,-43,7,37,65,79,188,-250
-1429,52,21,11,62,109,106,58,56,-561
-715,-36,-20,-1,45,83,76,-9,-65,-420
-145,-122,-83,-10,8,38,37,-68,-173,-207
218,39,-45,43,16,14,-11,-151,-228,-135
690,247,95,91,47,-18,-36,-153,-245,-52
955,191,109,130,170,43,40,9,96,123
625,-95,-43,160,328,73,76,63,89,78
0,-240,-174,230,520,152,150,195,212,-178
-399,-120,-101,360,627,205,140,177,197,-313
-980,-116,-68,345,440,173,83,102,231,-27
-1023,-109,6,172,190,180,23,-67,109,333
-306,29,124,106,56,76,-124,-339,-239,552
196,122,157,83,-98,-109,-252,-370,-257,556
170,3,-63,-190,-361,-161,-90,188,274,129
233,-129,-218,-396,-506,-238,-49,283,196,-234
415,-267,-332,-425,-469,-301,-132,21,-230,-260
419,-266,-228,-369,-360,-265,-131,-84,-347,-79
270,-162,-89,-291,-234,-163,-29,-94,-456,-58
159,92,62,-179,-88,-51,46,-70,-529,-259
-178,302,120,104,-75,-26,26,32,-45,-59
-186,283,138,144,-164,-153,-50,-5,-96,-163
-209,149,138,122,-97,-77,41,108,-111,-503
164,-45,15,13,18,30,141,172,-68,-591
330,-256,-65,30,200,-9,116,28,-400,-669
-70,-232,-74,73,280,-34,129,8,-470,-749
-210,-66,-117,-128,-81,-11,188,88,-359,-334
-379,66,-13,-244,-328,119,322,271,-79,18
-992,104,170,124,-206,102,279,223,-82,-356
-1454,116,311,489,-117,20,133,-11,-408,-676
-1251,97,261,385,-268,25,110,6,-391,-493
-594,-60,62,105,-318,18,151,150,-246,-208
153,63,61,-1,-85,-12,48,5,-281,204
688,228,134,48,275,-30,-25,-171,-398,503
970,149,78,13,326,-93,-51,-154,-365,557
665,43,25,-11,234,-48,5,-2,-180,289
-163,72,83,87,344,64,66,52,-169,-150
-163,120,13,92,347,111,118,232,23,-405
638,141,-122,-7,175,-19,19,131,-36,-244
1265,69,-213,-189,1,-241,-141,-103,-192,311
1601,-93,-375,-365,-106,-328,-202,-150,-132,793
910,-270,-341,-429,-159,-253,-117,-48,-44,725
-455,-222,-136,-269,-238,-69,50,58,-52,365
-695,24,60,-71,-255,24,116,52,-124,-8
-431,103,109,90,-192,-63,14,-14,-163,-297
-585,22,108,203,-23,-70,-56,-95,-270,-428
-505,3,141,159,165,-80,-84,-166,-292,-147
53,54,98,-8,142,-110,-70,-92,-130,393
207,-171,-100,-167,51,-82,6,106,110,441
127,-338,-132,-91,17,-34,33,117,37,95
-2,-266,-23,-18,-231,26,79,123,0,39
-167,-28,57,75,-383,99,143,222,126,100
-269,96,106,111,-311,164,210,301,195,-28
-834,-167,95,91,-200,290,313,327,59,-468
-962,-231,122,94,-214,320,307,278,-49,-719
-511,-172,123,69,-319,255,230,217,-9,-577
-139,-141,57,16,-137,220,106,109,-25,-269
-169,-124,0,17,310,169,-36,-53,-70,56
323,-210,-146,-92,556,6,-150,-186,-90,1043
1439,-278,-337,-316,325,-255,-288,-285,-49,2117
1738,-15,-290,-401,-71,-388,-347,-264,79,2117
1430,436,-16,-285,-175,-344,-334,-212,160,1336
1109,635,151,-187,-99,-269,-282,-109,239,425
831,439,149,-75,65,-103,-90,25,109,-485
1015,330,173,73,252,70,92,89,8,-997
1034,327,166,71,246,84,78,75,56,-428
1246,435,146,0,99,-14,-54,-50,-15,473
1244,359,144,-55,-59,-167,-196,-254,-204,795
340,105,32,-143,-171,-250,-224,-373,-360,267
-1202,-110,-58,-218,-230,-260,-196,-359,-388,-256
-1680,-134,-45,-231,-257,-220,-155,-280,-330,-536
-1473,16,76,-107,-104,-19,27,-18,-85,-1117
-1532,96,248,192,271,299,283,246,79,-1730
-1698,-100,168,284,572,435,370,369,177,-1505
-1678,-279,-52,177,648,277,165,157,121,-907
-1176,-235,-111,151,573,174,70,63,88,-450
-305,-176,-114,114,434,118,47,67,132,37
179,-181,-231,22,195,97,82,120,174,271
594,-204,-151,98,32,48,63,108,160,316
875,-92,50,249,-104,-105,-74,-68,-22,348
771,107,181,194,-308,-162,-94,-94,-43,499
419,214,150,12,-425,-108,-16,-19,35,616
408,178,-16,-137,-457,-125,-37,-16,29,754
848,209,-104,-116,-391,-133,-142,-141,-88,819
1515,228,-52,-9,-184,-36,-185,-229,-115,607
1142,44,-39,-7,16,38,-135,-180,-5,436
249,-148,-90,-82,116,30,-40,16,167,364
185,-184,-103,-140,88,0,18,103,35,175
490,-141,-88,-139,7,-72,-77,-128,-224,381
-758,-154,-28,-74,51,-56,-142,-297,-367,224
-1408,29,84,-25,146,14,-111,-308,-421,-467
-1568,145,145,-34,149,98,40,-77,-233,-1167
-1040,287,244,-38,120,180,109,-28,-77,-1232
-409,126,80,-135,-114,37,-3,-33,53,-562
-30,-8,-63,-287,-336,-54,-3,67,260,-13
269,7,-56,-312,-396,36,129,138,347,181
-96,89,96,-136,-234,125,198,28,-102,-396
-1049,13,197,212,56,239,329,88,-215,-1138
-1507,-211,114,482,243,244,363,301,28,-1392
-1231,-267,37,496,215,146,270,294,102,-1397
-939,-221,40,343,88,147,293,192,-73,-1249
-798,-242,-10,189,-49,99,237,101,-95,-467
-1040,-364,-81,76,-120,86,216,177,36,-154
-917,-307,-57,70,-177,78,176,228,163,-25
-115,-38,42,89,-289,1,50,93,171,332
297,66,11,22,-364,-21,-24,-33,129,455
307,-36,-19,-94,-218,95,16,-50,3,242
129,-71,-41,-131,87,203,120,32,-38,2
-156,78,50,-88,215,131,156,127,28,-191
-90,221,126,91,80,2,91,148,155,-133
-179,17,50,280,111,12,28,116,157,-156
-243,-174,-109,252,365,51,-45,-24,-82,-34
232,-153,-182,114,628,-1,-128,-104,-147,303
1152,49,-78,17,571,-137,-234,-175,-130,629
1881,111,-49,-54,287,-226,-279,-197,-93,651
2158,105,-46,-39,208,-171,-175,-54,62,295
2476,345,86,41,113,-140,-174,-146,-157,554
2189,359,66,-6,-20,-237,-260,-254,-203,1324
1162,143,-73,-141,-174,-311,-293,-246,-67,1759
429,-7,-160,-277,-349,-304,-252,-169,80,1819
177,31,-133,-411,-504,-321,-217,-79,215,1269
-447,211,79,-312,-441,-238,-118,-23,153,-302
-1174,173,190,-99,-204,-33,36,116,172,-1185
-1381,71,254,79,130,180,178,173,86,-1600
-1402,77,193,40,316,304,323,245,2,-1884
-1473,-29,1,-97,188,345,423,294,-4,-1555
-1659,-244,-48,231,110,235,240,49,-261,-1169
-1709,-321,26,522,-97,120,117,-54,-281,-837
-1306,-253,-20,325,-338,165,190,153,89,-333
-853,-216,-53,166,-364,230,254,339,381,-105
-660,-197,25,240,-110,177,128,168,183,-163
-490,-216,11,228,259,93,-39,-53,-16,-155
-114,-115,-1,35,511,5,-85,-80,38,15
215,-29,-43,-148,451,-65,-103,-43,91,279
182,-58,-102,-188,258,-131,-150,-119,-34,243
43,-103,-166,-129,89,-147,-141,-130,-57,225
50,-16,-96,-74,-80,-206,-179,-179,-100,257
371,215,83,-60,-200,-321,-284,-258,-53,355
592,250,74,-113,-267,-340,-307,-280,-61,595
674,176,10,-149,-254,-254,-200,-113,119,1160
1121,131,-59,-170,-249,-205,-102,97,481,1817
2574,156,-37,-173,-270,-235,-172,-52,346,1868
3822,290,45,-120,-190,-246,-255,-263,40,1312
3271,205,21,-78,44,-97,-90,-76,20,243
1659,-14,-99,-119,159,13,80,173,159,-353
-360,-185,-167,-159,86,14,125,216,244,-249
-2293,-235,-164,-128,65,72,175,198,254,-190
-2296,-128,-22,-59,108,122,163,125,161,85
-1194,-114,-22,-48,52,20,-11,-89,-43,883
-130,-11,-9,17,46,-108,-193,-333,-282,855
314,23,-136,-84,-23,-123,-181,-295,-203,234
400,-75,-265,-177,-48,67,78,58,134,-85
-108,-258,-242,-115,27,263,340,343,187,-606
-311,-132,-57,-8,42,196,277,248,90,-468
154,71,17,-96,-179,-61,7,66,225,630
55,122,24,-124,-294,-243,-201,-210,-122,461
-136,143,83,7,-224,-233,-225,-300,-388,-121
-389,34,36,76,-145,-141,-95,-156,-287,-587
-998,-113,41,66,-75,13,120,142,39,-1323
-1287,115,248,210,39,153,247,266,97,-1580
-989,348,437,358,107,196,260,173,-61,-1455
-1146,129,320,333,64,171,226,65,-225,-1406
-1063,1,183,249,31,221,239,58,-206,-1174
-486,16,104,156,52,209,157,168,104,-729
55,63,119,105,83,131,79,176,52,-413
262,117,162,131,-40,103,70,87,-92,-188
368,41,116,128,-244,105,102,76,-102,60
621,40,90,125,-262,101,26,4,-94,350
1250,23,-26,11,-161,28,-56,82,122,690
1587,-100,-190,-114,156,-31,-89,161,268,747
519,-68,-127,-64,369,-93,-123,24,101,265
-285,28,-10,-23,144,-141,-153,-81,-42,-190
-451,-42,-25,-42,73,-94,-145,-177,-86,102
-830,-224,-54,-15,365,-41,-127,-262,-187,353
-1093,-425,-146,-72,444,-35,-43,-87,-73,295
-586,-500,-250,-181,142,-47,58,234,313,325
462,-196,-129,-163,-45,-81,14,130,182,392
1369,129,46,-94,14,-17,13,-9,14,600
2333,562,169,-110,44,-143,-209,-327,-151,1391
2467,729,152,-129,51,-321,-402,-497,-215,1768
1767,544,70,-115,59,-224,-273,-340,-189,1418
293,165,-164,-245,-154,-105,-34,-11,8,636
-1961,-129,-152,-180,-285,79,225,252,-49,-1376
-3037,-25,154,63,-131,367,425,398,50,-2531
-2001,228,277,102,-136,341,313,288,141,-1097
-783,252,226,73,-237,128,117,168,164,-96
-125,211,143,66,-210,-79,-23,110,236,77
134,113,64,26,-245,-139,22,273,477,100
92,-9,111,137,-300,-62,131,315,342,-133
13,-132,109,263,-303,-40,78,69,-51,-132
68,-268,-44,204,-86,21,-13,-131,-267,-143
-162,-417,-167,132,444,112,-49,-186,-314,-703
-543,-438,-177,137,780,149,-12,-67,-191,-1232
-428,-150,-34,263,688,137,-17,-14,-74,-966
404,226,147,359,693,123,-72,-66,-85,-369
453,63,43,222,669,183,6,13,-2,-199
-40,-252,-181,1,332,215,133,130,73,-190
-493,-324,-155,8,164,187,146,131,79,-210
-989,-250,-55,42,16,58,47,55,39,-259
-818,94,95,-58,-196,-50,-35,-14,-9,34
156,265,82,-241,-316,-96,-53,-5,141,640
895,208,21,-276,-189,-139,-132,-126,110,952
1382,136,-73,-288,-36,-144,-206,-223,-21,1023
2065,144,-113,-384,-34,-172,-228,-197,-14,1049
1838,134,-151,-484,-111,-199,-218,-133,6,775
821,150,-127,-418,-148,-157,-193,-75,45,339
-27,78,-55,-145,-29,-73,-130,-35,128,77
-1153,-319,-168,157,39,1,-33,46,88,-184
-1420,-278,-65,462,-32,-13,-19,45,-10,-286
-283,-12,43,409,-241,-46,-59,-46,-160,24
-51,-29,23,173,-486,-28,29,31,-138,223
-372,25,54,89,-452,48,109,135,-65,-93
-882,5,64,162,-338,60,79,165,43,-461
-1191,-101,-5,181,-97,10,-3,118,141,-328
-1107,-226,-80,37,148,-37,-33,120,262,209
-805,-314,-131,-66,274,-93,-63,39,174,569
-274,-228,-180,-119,168,-171,-180,-137,-31,847
317,1,-220,-141,-60,-215,-253,-269,-189,933
545,84,-173,-143,-230,-188,-200,-186,-72,939
179,-110,-154,-217,-365,-142,-66,0,148,523
-430,-217,-113,-169,-411,-17,135,238,344,-543
-495,54,130,44,-313,130,263,320,312,-1288
-121,312,326,198,-234,208,272,217,73,-1331
346,211,243,213,-215,207,238,141,-77,-899
1176,8,100,199,-120,160,112,28,-122,51
2075,-73,29,178,171,124,-14,-60,-63,1066
1985,-168,-56,111,461,90,-70,-55,75,1487
1450,-211,-114,76,691,38,-81,-10,145,1125
650,-237,-136,58,659,12,-23,38,115,141
-929,-183,-6,49,341,78,99,177,296,-1178
-1454,158,170,76,176,104,115,132,216,-1359
-1020,559,313,29,76,-26,-72,-172,-177,-781
-848,610,275,-29,18,-132,-240,-456,-425,-442
-729,266,143,-36,4,-147,-285,-523,-468,-334
-345,126,128,-19,-5,-144,-305,-558,-509,-321
146,126,57,-78,-71,-183,-280,-464,-470,206
835,224,-53,-228,-232,-289,-262,-264,-101,1153
1051,208,-136,-316,-312,-293,-200,-119,223,1308
581,89,-101,-220,-225,-137,-29,65,370,733
65,92,-5,-111,-158,-7,142,299,381,0
126,62,-44,-32,-40,193,339,472,332,-700
87,69,-20,71,105,328,452,484,244,-1182
-535,-71,100,199,265,362,434,354,-45,-1523
-992,-309,-27,148,320,279,312,220,-132,-1290
-1473,-525,-199,71,403,230,220,139,-137,-973
-1078,-435,-183,62,409,224,174,96,-115,-634
-146,-176,-34,100,280,240,161,111,-57,-337
780,-96,7,199,163,132,38,25,-51,124
1984,-70,-27,157,30,-73,-137,-107,-81,861
2336,34,-10,32,-157,-181,-183,-136,-49,1501
1781,221,44,-67,-362,-241,-208,-133,22,1859
1330,227,-82,-218,-459,-306,-272,-185,32,1611
906,108,-153,-243,-412,-283,-250,-141,82,941
135,-101,-215,-268,-379,-238,-169,-54,155,806
-292,89,-98,-247,-360,-215,-165,-87,35,687
-1140,334,107,-122,-228,-103,-92,-89,-100,-535
-2515,189,222,39,55,97,90,-31,-132,-1730
-2510,-2,258,220,430,215,179,22,-40,-1474
-1434,-207,63,159,500,53,49,39,66,-590
-1121,-338,-111,-1,358,-78,-98,-105,-100,-390
-619,-125,-94,-177,163,-98,-140,-224,-234,-184
254,114,-88,-280,-158,-181,-229,-303,-155,468
755,283,48,-214,-325,-200,-265,-341,-81,755
526,390,210,-120,-389,-123,-130,-133,178,485
114,430,337,-9,-405,139,230,290,431,-109
-654,127,337,287,-113,387,403,390,267,-725
-1229,-201,215,407,36,405,375,320,81,-999
-1077,-305,19,256,-44,289,377,369,83,-996
-700,-276,-59,133,-47,241,364,472,215,-788
-487,-208,-66,34,155,290,349,504,320,-610
-425,-230,-90,94,322,184,196,240,60,-601
-271,-306,-119,225,245,39,25,21,-141,-615
707,-305,-114,259,179,18,-49,-51,-120,-318
1944,-135,-50,193,274,-1,-72,-43,19,202
2271,-50,-62,103,346,-49,-86,-34,106,454
2410,-144,-120,56,219,-74,-86,-45,166,856
2776,-101,-109,40,66,-97,-126,-57,301,1588
3068,77,-107,-57,-99,-214,-241,-162,267,2146
3583,147,-168,-203,-244,-324,-308,-256,122,2646
2122,31,-190,-278,-289,-304,-272,-257,93,2195
-806,17,-100,-238,-196,-167,-130,-131,18,821
-2608,280,120,-103,-72,-65,-31,-73,-182,-714
-3379,538,329,44,37,17,29,-58,-313,-2381
-3523,378,299,96,114,124,147,102,-143,-2906
-2972,-73,139,93,167,215,242,245,48,-1656
-2228,-269,30,47,126,207,218,226,70,-738
-1443,-165,20,2,-10,122,133,85,-67,-410
-699,-39,-39,-50,-165,20,28,-19,-80,55
-149,61,-6,-83,-292,-33,-74,-144,-154,474
119,48,14,-124,-457,-72,-119,-275,-238,587
180,9,9,-141,-571,-106,-153,-349,-301,540
41,-110,-84,-245,-638,-95,-59,-38,46,308
-27,9,6,-122,-389,50,80,275,362,-139
149,230,134,103,61,116,58,234,419,-16
204,86,31,74,362,67,-78,14,228,398
307,-4,-49,-15,359,71,-153,-138,25,427
428,66,1,12,405,15,-168,-190,-184,168
304,154,88,98,420,25,-91,-90,-65,-232
-167,1,-32,78,176,111,127,202,190,-591
-562,-114,-51,137,-97,148,268,369,209,-802
-457,-230,39,248,-168,82,194,285,142,-616
236,-157,16,248,-218,35,82,167,221,-175
1039,66,34,122,-392,-36,29,102,143,199
1690,115,-3,-62,-459,-147,-19,46,81,731
2555,-62,-218,-233,-94,-163,-151,-87,103,1213
3216,-130,-314,-243,506,-202,-355,-256,50,1360
2479,178,-157,-187,695,-381,-529,-427,-9,1277
1091,508,85,-248,358,-348,-448,-469,-289,544
-183,285,70,-386,21,-102,-147,-204,-355,-300
-1861,-183,-111,-376,-4,98,88,-17,-402,-511
-2302,-256,-109,-169,78,96,81,-127,-475,-225
-1392,-218,-159,-303,-120,5,54,-120,-238,394
-672,-90,-98,-263,-145,-38,21,-83,-61,598
-606,40,105,214,-6,20,39,-36,-106,32
-884,-111,96,492,112,172,221,297,293,-543
-1082,-109,144,521,98,259,235,304,393,-657
-1174,-84,213,483,234,323,173,28,-57,-925
-1186,-410,-40,295,332,205,193,147,-104,-1152
-423,-432,-158,68,78,60,184,221,-69,-1039
492,-118,-63,80,-23,64,164,183,-31,-624
268,-202,-63,142,258,88,144,160,23,-355
-245,-571,-214,130,382,52,80,74,-39,-159
-350,-631,-257,58,136,0,0,7,-33,56
-250,-238,-102,4,-64,-68,-66,-93,-106,151
-41,207,119,-66,-219,-186,-190,-214,-185,260
380,427,188,-132,-328,-278,-279,-266,-182,347
965,305,52,-127,-290,-243,-245,-228,-170,295
1242,204,-50,-166,-237,-188,-182,-129,-37,359
1014,203,2,-113,-149,-106,-123,-79,-46,437
520,265,41,-48,-110,-67,-137,-127,-115,725
-86,324,31,-74,-63,10,-92,-35,54,857
-29,387,135,-75,54,61,-10,-7,-31,596
1007,473,100,-174,-39,-98,-113,-169,-204,743
1937,428,61,-310,-190,-278,-206,-118,3,856
2031,350,37,-277,-187,-302,-216,-68,150,528
1219,87,-60,-215,-115,-175,-137,-39,169,388
276,-174,-169,-91,76,45,31,78,288,348
-785,-205,-55,182,294,216,143,176,330,-90
-1837,-355,-15,330,357,215,144,198,356,-758
-1335,-388,-107,178,156,72,87,124,275,-337
-830,-270,-162,20,-81,-43,29,13,123,-246
-790,-84,-59,-1,-157,-58,-10,-101,-18,-790
-652,192,218,156,2,49,-48,-320,-296,-1213
-196,306,259,313,182,138,-74,-520,-563,-913
-43,15,118,224,167,179,39,-289,-402,-338
-265,-214,-28,33,78,228,259,155,-152,-391
-233,-37,-17,-109,-44,155,276,301,-38,-618
-143,146,59,-144,-107,0,32,24,-182,-303
-48,191,120,-162,-119,-120,-193,-326,-389,235
107,131,39,-263,-202,-200,-238,-267,-292,525
-71,166,-9,-246,-243,-183,-133,-6,41,410
58,380,145,-139,-219,-138,-74,75,255,281
271,89,50,-166,-184,-69,2,117,246,16
111,-247,-131,-65,-47,122,189,248,153,-582
449,-207,-5,175,54,230,266,274,97,-901
652,-206,40,295,174,255,265,302,210,-660
295,-220,22,298,345,245,216,195,64,-563
124,-287,-35,222,259,155,166,172,90,-339
25,-333,-122,35,-92,57,132,174,154,16
-182,-406,-198,-108,-180,44,86,74,5,222
-177,-340,-160,-135,-58,-12,0,-14,-50,771
-257,16,66,-83,-122,-69,-40,-25,-15,898
-128,462,260,-10,-242,-66,23,88,167,699
99,734,330,33,-231,-40,49,135,246,753
256,542,199,-26,-133,-27,0,80,129,337
-270,90,65,-38,40,7,17,75,22,-251
-716,-192,-39,-65,59,-14,-19,-13,-113,-308
-766,-134,-114,-129,73,-43,-94,-118,-197,-199
-633,66,-85,-67,307,-95,-171,-195,-165,-206
139,148,-59,-44,354,-170,-259,-270,-178,148
541,45,-131,-181,143,-215,-256,-229,-182,407
-56,-103,-137,-141,54,-98,-106,-86,-102,-205
-590,-142,-56,-12,-38,19,-52,-72,-85,-390
-741,-136,-65,-31,-56,52,-38,-62,-10,-109
-898,-131,-71,-148,2,163,82,42,47,-262
-834,-56,58,-120,75,235,222,210,32,-621
-418,121,209,-16,14,197,251,246,-67,-815
-285,63,202,106,-95,184,234,303,71,-750
-269,-43,88,106,-182,143,188,292,149,-461
-152,0,55,127,-38,134,140,180,88,-121
-34,110,119,242,219,58,23,49,41,45
766,117,18,183,250,-80,-77,-29,71,287
1476,90,-110,19,9,-147,-95,-39,86,379
1616,157,33,-119,-237,-115,-28,-14,71,295
1619,139,79,-75,-353,-103,9,0,107,333
437,-122,-26,-3,-390,-80,59,31,101,122
-937,-287,-106,-4,-386,-25,101,58,49,-199
-1155,-118,-33,-4,-350,3,78,7,39,-96
-876,15,27,-20,-214,-21,-37,-146,-129,188
-451,-93,-96,-117,33,-102,-237,-377,-349,384
8,-209,-198,-197,323,-102,-285,-408,-347,288
473,-211,-207,-234,501,-7,-107,-112,57,277
890,-45,-138,-223,390,112,80,95,313,468
395,193,124,158,469,158,61,-36,67,4
-532,8,81,420,538,34,-11,-15,-15,-383
-546,-127,-35,305,226,-52,-13,72,88,-296
3,5,28,75,-186,-82,-9,54,87,-71
370,42,83,68,-360,-75,7,52,89,337
760,-109,9,141,-384,-51,5,15,61,584
555,-375,-152,5,-440,-42,-40,-23,56,591
-10,-382,-197,-117,-263,29,20,58,181,456
235,-170,-24,48,190,106,53,114,231,119
588,-102,14,198,390,77,-3,113,233,-16
354,-98,-50,202,452,-19,-85,79,230,64
144,-50,-122,54,331,-145,-184,-29,113,166
-392,-69,-170,-199,-69,-263,-257,-161,-162,-98
-1118,-70,-100,-271,-374,-312,-277,-246,-399,-219
-791,186,78,-133,-380,-225,-211,-245,-413,188
-197,439,291,56,-237,-40,-88,-177,-361,249
-149,441,387,210,-126,112,44,-84,-265,-249
-180,316,303,159,-300,76,135,54,-31,-499
-218,151,120,41,-435,20,155,149,38,-502
-351,-20,-79,5,-168,119,154,163,24,-469
75,128,7,25,258,184,42,43,13,-81
257,179,166,160,592,194,-29,-81,-146,-187
-139,-247,-16,134,461,188,-9,-119,-293,-497
-138,-511,-191,-16,232,168,17,-39,-207,-312
254,-396,-156,-49,215,118,68,132,53,-162
538,-174,-42,87,296,67,66,198,215,-174
176,55,115,232,306,-11,-72,-74,-26,-94
53,145,83,142,231,-71,-162,-249,-176,-29
66,-103,-188,-66,44,-61,-69,10,21,-23
333,-243,-233,-210,-145,-49,-16,126,152,449
714,-191,-189,-221,-175,-86,-78,-54,34,1361
716,-11,-97,-223,-237,-161,-149,-134,25,1847
215,6,-105,-284,-334,-178,-67,116,291,1508
-286,-46,-175,-218,-257,-113,-19,123,225,912
-247,156,-6,-78,-138,-108,-115,-108,-13,256
-111,298,190,29,-46,-88,-126,-177,-59,-431
215,244,196,125,100,-15,-75,-147,-8,-626
340,69,25,78,122,10,32,11,126,-452
24,-148,-157,-79,4,32,206,274,195,-588
-208,-61,-81,-54,-94,93,247,225,106,-817
-362,181,110,9,-160,147,192,57,-113,-798
-633,106,46,-40,-177,113,82,-64,-194,-430
-547,14,-1,-72,-189,67,49,-24,-52,-218
-161,184,116,-55,-205,95,132,180,209,-221
-23,196,185,2,-97,232,255,362,396,-212
-74,59,177,69,51,230,202,250,177,-282
72,2,118,27,27,60,95,94,48,-203
408,39,53,9,-26,0,81,101,75,-244
942,141,34,24,-147,29,73,87,44,-194
1340,217,58,4,-271,23,31,39,69,-168
877,271,152,89,-304,-33,-17,-20,59,-298
-37,149,83,134,-280,27,27,69,324,-60
72,4,-57,122,-53,152,61,114,428,321
670,-179,-194,22,415,157,-5,30,331,563
650,-130,-166,-65,618,25,-97,-53,246,734
-268,30,-70,-123,232,-183,-204,-151,15,616
-1076,73,48,-31,-87,-179,-138,-138,-83,336
-749,80,100,42,-241,-102,-60,-105,-45,533
-141,58,-65,-96,-427,-64,7,-22,-10,694
-162,17,-95,-149,-521,-61,55,51,-68,108
-416,55,49,54,-449,-87,-51,-54,-191,-501
-526,169,186,184,-20,-2,-144,-191,-280,-642
-139,241,208,129,652,87,-163,-242,-311,-275
-202,9,104,42,867,104,-133,-245,-395,-221
-466,-342,-90,-20,548,84,-59,-121,-281,-209
-168,-246,-60,20,277,102,56,89,-17,-134
99,29,81,76,143,179,182,281,178,-341
-188,-162,12,132,209,200,187,228,14,-638
-852,-687,-178,231,286,221,158,61,-334,-973
-695,-673,-247,32,60,190,156,89,-253,-582
-27,10,-66,-182,-233,70,100,112,-73,44
621,413,125,-104,-294,-40,-29,-16,-47,356
1031,403,135,-28,-145,-66,-121,-56,69,470
841,326,14,-155,-100,-112,-129,-11,131,493
278,176,-61,-217,-168,-90,-31,100,282,550
67,129,-37,-143,-173,0,40,137,286,803
381,-1,-96,-91,155,93,6,88,206,1132
613,-91,-211,-5,520,-93,-193,-97,46,1470
370,-113,-211,69,507,-349,-414,-351,-235,997
123,-222,-278,-8,308,-405,-435,-422,-327,241
178,-263,-283,-109,173,-292,-320,-273,-119,248
16,-260,-263,-115,60,-150,-156,-102,101,304
96,-44,-80,56,-73,-128,-123,-155,-53,361
-327,-12,42,223,-191,-176,-158,-275,-336,-255
-1076,-188,4,178,-288,-104,-21,-146,-270,-892
-288,127,196,30,-365,-28,32,-189,-337,-979
850,361,306,-52,-342,4,-44,-271,-334,-954
882,184,191,-65,-268,64,37,1,25,-871
411,81,203,74,-66,193,221,250,259,-772
-558,-63,94,138,144,204,283,352,309,-629
-1451,-247,-109,172,277,126,223,341,241,-660
-1065,-178,-53,118,217,75,121,174,164,-320
-56,-76,-11,-57,99,120,139,154,192,293
500,-25,-15,-160,72,219,217,220,342,874
677,31,-61,-104,250,202,171,172,463,881
349,-30,-81,107,287,26,-2,3,326,348
-638,-166,-72,136,-56,-123,-139,-124,94,-119
-1265,-277,-73,76,-223,-117,-129,-132,-119,-608
-696,-231,-89,101,-103,-62,-55,-59,-67,-652
-265,-162,16,129,-8,53,109,72,-36,-944
-128,-22,126,117,11,146,189,139,21,-949
244,-55,30,34,-17,117,102,79,164,-376
288,-215,-96,-14,-41,131,113,112,249,-74
18,91,62,-18,-91,84,112,155,263,-90
-161,669,348,-70,-241,-54,10,82,298,10
-58,670,345,-77,-270,-65,-7,47,318,295
239,504,287,-14,-183,0,-24,-92,89,431
252,271,199,5,-95,52,-34,-170,-118,371
34,118,51,-88,-54,24,-10,67,166,418
-17,158,31,-148,46,-42,-59,159,351,435
-74,91,53,-76,106,-36,-90,-6,118,-16
-21,-81,17,28,60,-18,-69,-100,-115,-290
476,-45,123,261,147,-18,-127,-240,-242,-135
811,-66,48,271,121,-10,-75,-135,44,304
583,-286,-332,-58,-130,-20,130,277,542,854
144,-330,-423,-169,-229,-45,130,251,504,1474
221,-65,-233,-149,-251,-147,-52,-9,313,1864
593,311,-56,-143,-228,-273,-251,-199,136,1477
844,207,-56,-161,-47,-197,-188,-74,201,867
1274,94,11,-49,144,-6,41,112,157,31
1161,336,230,89,136,44,63,-12,-171,-653
260,361,203,104,81,69,0,-198,-389,-938
-689,106,-57,-1,27,99,-29,-267,-441,-851
-1459,-137,-202,-188,-135,44,-31,-196,-330,-565
-1838,-172,-209,-286,-247,35,44,15,-64,-554
-1207,151,-14,-168,-286,133,180,185,176,-436
-140,616,351,29,-340,138,235,231,223,-188
-267,325,278,148,-228,111,212,232,197,-549
-1002,-319,-21,280,-3,122,167,103,-122,-1118
-968,-373,-83,265,108,145,139,33,-211,-1135
-646,-305,-33,85,197,208,231,127,-291,-904
-459,-362,-41,-58,245,285,319,225,-268,-712
-91,-291,0,32,443,173,148,60,-348,-543
315,-128,86,211,670,-62,-91,-125,-438,-309
408,-17,-13,102,446,-184,-164,-111,-379,-65
192,87,-3,-49,59,-225,-196,-163,-323,222
33,71,27,-33,17,-210,-276,-343,-411,560
414,103,73,0,86,-196,-305,-416,-484,822
1053,79,-62,-160,-15,-140,-78,-81,-200,982
1488,-24,-125,-283,-55,-65,101,131,-106,922
1122,-125,-125,-211,-35,-66,88,125,-71,704
-27,-156,-75,-18,-28,-51,37,50,-110,148
-818,-265,-73,50,-108,-99,-65,-102,-304,-213
-742,-426,-175,-50,-145,-229,-251,-269,-421,-64
-140,-216,-84,-86,-98,-245,-335,-361,-466,194
157,66,72,-39,83,-89,-237,-365,-426,323
-198,85,103,28,398,44,-99,-180,-205,131
-711,-47,47,20,464,47,-4,66,40,-553
-516,-98,-74,-104,154,1,45,147,198,-469
-71,-31,-92,-90,-309,-81,19,114,310,342
34,-13,57,172,-405,-56,-74,-103,86,621
120,-91,10,246,-211,-29,-157,-272,-132,487
455,42,-50,36,-114,-30,-44,29,204,243
418,143,23,-149,-152,-44,83,236,261,-80
-8,136,165,-97,-225,2,82,84,-101,-429
-150,-84,78,-33,-147,123,212,236,15,-731
-41,-151,34,-4,-72,173,329,427,275,-850
53,-23,75,55,-129,191,374,483,449,-681
236,20,90,138,-176,131,287,359,351,-252
759,3,0,122,34,85,98,162,305,341
1403,38,-109,1,353,14,-85,4,454,824
1658,24,-183,-164,184,-190,-223,-143,254,914
1770,44,-146,-243,-212,-337,-326,-299,-75,875
1277,25,-72,-147,-219,-260,-268,-297,-117,888
85,53,4,-11,-101,-94,-139,-178,35,739
-725,70,1,-37,-117,-62,-36,6,55,784
-306,43,-51,-112,-173,-65,19,90,77,662
311,94,-13,-60,-119,-14,20,-42,-187,-56
-84,39,40,10,-26,45,51,-83,-291,-686
-1282,-249,28,107,221,218,215,77,-218,-1071
-1803,-288,78,204,385,305,256,114,-230,-924
-1467,-130,108,149,239,271,169,68,-189,-740
-1140,-86,110,92,131,277,188,101,-117,-908
-1129,-116,147,110,106,330,255,127,-14,-989
-1123,-72,159,96,71,301,220,81,-64,-839
-823,-21,62,-80,-111,162,159,149,-39,-660
-476,1,49,0,-247,58,63,115,161,-397
-48,204,137,225,-256,4,4,85,290,-65
180,305,116,193,-252,0,5,113,239,105
-6,-38,-67,140,2,-16,-88,-9,12,38
24,-145,-150,-55,397,-81,-184,-116,-110,85
181,34,-125,-254,313,-142,-190,-155,-179,203
101,85,-116,-196,58,-128,-151,-173,-253,206
390,100,-56,-59,5,-154,-175,-140,-164,427
667,132,-42,-60,-19,-138,-148,-48,23,726
917,162,-99,-55,8,-36,-54,67,263,811
1239,229,-104,-25,138,12,-10,160,529,569
1022,260,49,53,229,3,-60,58,323,-130
748,199,85,72,114,-17,-83,-38,213,-390
388,-12,17,13,-14,0,-13,-15,99,-11
272,-270,-53,-55,-142,1,52,4,76,595
604,-229,-60,-72,-269,-43,27,-79,152,900
663,-71,-75,-142,-387,-67,14,-97,181,915
408,83,-67,-190,-422,-39,26,-78,185,848
-74,204,-32,-140,-354,-51,-26,-62,256,628
-438,247,-31,-14,-85,-92,-81,-111,49,242
-703,103,-55,157,284,-27,-36,-145,-308,-632
-951,-105,-7,180,427,23,52,-43,-314,-1056
-934,-121,61,160,317,105,203,186,65,-962
-386,-79,140,164,105,170,253,241,119,-784
484,-18,111,125,53,181,153,164,195,-357
902,2,81,92,123,100,29,38,146,-176
332,-12,93,146,283,26,-23,-10,102,-235
-246,85,94,88,385,-49,-53,-58,6,-162
-652,40,10,-108,339,-68,-89,-163,-212,-93
-1230,-117,-58,-202,424,47,-36,-163,-388,-295
-1391,-134,-92,-155,554,65,-51,-211,-454,-412
-1009,-135,-99,-196,363,-25,-139,-349,-490,-219
-388,-20,-71,-180,218,-105,-177,-325,-334,-64
66,64,-134,-75,85,-90,-57,-69,-32,-3
413,157,-61,202,-64,31,71,66,185,-45
859,293,214,475,-119,-72,-124,-271,-73,108
1200,285,165,276,-391,-223,-200,-215,16,458
1396,116,-4,-88,-741,-252,-19,175,313,725
1371,184,5,-195,-737,-208,34,289,414,561
343,183,32,-126,-397,-151,-20,142,240,-59
-531,31,22,-68,-120,-119,-105,-86,-62,-254
-661,-176,-78,-117,50,-69,-104,-101,-124,107
-456,-93,-62,-132,16,-36,-54,-12,26,363
-292,22,85,40,-44,138,130,202,308,139
90,-62,62,136,-65,225,201,242,222,97
430,-247,-40,-22,-226,174,168,108,-50,299
318,-236,-34,-115,-323,210,247,149,35,190
-284,-33,96,-47,-309,317,414,370,227,-305
-769,180,289,90,-271,332,472,484,249,-685
-722,107,240,336,-296,217,316,373,247,-426
-176,-93,87,458,-122,15,52,105,-33,145
333,-30,-3,325,151,-118,-128,-52,-57,410
433,-48,-161,125,250,-114,-172,-130,-74,252
135,-280,-223,-55,168,-54,-138,-162,-255,-115
-76,-245,-168,-105,220,-47,-93,-78,-266,-695
218,21,-67,-61,141,-69,-126,-67,-118,-769
344,190,61,-41,64,-109,-214,-157,-135,-355
370,289,136,-42,28,-123,-176,-125,-110,-98
593,224,102,-48,-101,-96,-121,-101,-178,47
234,128,-2,-100,-159,-104,-123,-97,-154,255
223,206,-15,-124,-16,-159,-225,-254,-257,603
763,110,-84,-171,19,-226,-282,-398,-495,760
794,-171,-254,-297,-227,-254,-178,-183,-418,573
12,-267,-238,-294,-330,-114,9,101,-264,-261
-534,-52,-27,-84,-42,158,145,136,-170,-715
-1159,-29,48,84,275,208,141,98,-60,-487
-1459,-100,33,71,268,129,81,67,68,-224
-1054,-58,6,-8,110,128,106,111,172,-129
-472,69,41,1,53,75,71,75,212,-160
-308,-49,6,22,106,2,33,44,96,-217
-279,-107,-3,41,129,12,47,73,52,-308
-157,-119,-62,-70,82,10,9,57,46,-217
-108,-193,-124,-98,46,2,29,51,49,-63
-228,-204,-33,87,58,19,45,43,-21,-167
-341,-146,63,200,140,81,74,-3,-150,-337
-205,-134,1,205,181,88,93,7,-108,-135
325,-69,81,208,25,34,87,12,-29,137
750,-112,-4,81,-262,41,163,137,104,340
788,-204,-59,-32,-369,123,220,203,173,475
648,-137,-52,0,-201,171,136,81,64,382
272,28,6,56,156,68,-5,-70,-9,550
147,181,-16,15,72,-167,-152,-214,-17,1128
513,255,-49,-161,-471,-336,-190,-118,227,1749
881,418,11,-312,-863,-415,-139,70,389,1992
922,770,258,-262,-1088,-395,-127,19,262,1683
361,555,313,-112,-1045,-193,28,49,102,331
-437,5,157,57,-526,83,110,68,-1,-1425
-893,-248,-105,87,366,154,59,31,2,-1871
-789,-126,-178,54,819,19,2,61,80,-1138
-456,-16,-145,-8,557,0,-9,5,82,-219
-415,-138,-107,-25,576,200,60,-87,-93,67
-226,-155,-42,-20,886,331,141,-56,-238,-205
-107,-234,-73,-20,825,311,178,55,-202,-376
-89,-347,-94,91,696,201,102,4,-247,-462
228,-299,-46,239,630,38,-87,-214,-410,-380
504,-202,32,232,539,-66,-259,-432,-577,-235
567,-100,51,166,428,-48,-281,-491,-669,-238
193,-221,-4,8,189,4,-72,-119,-355,-350
-516,-301,-134,-105,0,43,154,337,183,-431
-589,-36,-96,-144,-143,-39,145,336,255,-189
-244,160,43,-175,-323,-88,80,190,119,102
-30,128,99,-154,-445,-68,71,116,17,201
686,234,111,-134,-533,-131,19,37,-9,308
1076,290,27,-198,-622,-219,-94,-24,11,540
902,193,27,-205,-461,-158,-118,-20,70,493
867,230,95,-101,-223,-83,-120,-40,76,439
392,202,79,-51,-189,-92,-129,-96,13,528
-349,-14,-63,-89,-82,-70,-131,-135,-95,547
-586,-129,-138,-122,78,-51,-98,-131,-111,467
-844,-120,-126,-154,-84,-81,-32,-37,43,338
-1109,71,79,-23,-144,28,43,0,54,-259
-907,138,229,159,143,176,64,-71,-105,-677
-253,-93,70,150,484,178,-39,-161,-217,-664
113,-247,-67,92,647,67,-120,-231,-263,-680
98,-263,-132,-103,173,-58,-47,-62,-12,-182
63,-76,-55,-232,-404,-11,123,200,237,167
-13,97,123,-94,-428,87,179,199,195,180
-464,0,135,254,28,159,137,157,102,-297
-754,-105,82,417,499,156,86,129,-64,-926
-722,-40,99,287,387,66,42,90,-160,-871
-572,-12,104,144,179,8,-1,-7,-250,-510
-543,-143,19,66,187,28,-58,-43,-282,-447
-391,-211,-84,-37,271,12,-106,-16,-324,-324
-112,-196,-132,-104,321,-48,-121,27,-333,-114
56,-145,-106,-105,221,-64,-105,-20,-386,32
51,-215,-209,-228,21,-16,64,141,-227,201
482,-117,-250,-309,-115,-12,146,272,167,574
1050,48,-168,-319,-126,-70,55,152,234,788
1035,174,-72,-257,-32,-77,-19,40,277,619
532,139,15,-150,112,-50,-73,-25,175,209
117,-57,-58,-162,123,-1,-14,-20,183,280
-128,-287,-184,-278,-94,102,156,106,354,505
-136,-288,-163,-211,-229,130,206,198,671,388
-37,15,45,101,-148,40,65,94,638,37
67,285,207,389,-84,-97,-116,-41,348,-213
130,332,233,406,-189,-222,-241,-178,289,-223
-5,182,91,102,-331,-204,-221,-177,126,-304
-7,116,11,-121,-241,-84,-127,-84,21,-281
483,405,156,-86,-114,-15,-29,-71,19,-52
854,450,188,-9,-316,-47,18,37,66,230
413,114,65,-31,-504,-18,121,213,237,328
-5,-36,35,60,-425,18,120,122,203,251
-264,-122,-50,206,-237,-32,2,-8,36,-58
-614,-189,-10,285,60,-35,-57,7,109,-285
-742,-195,41,253,502,116,-75,-24,159,-405
-405,-86,49,131,624,92,-112,-97,142,-10
335,34,53,28,167,-82,-195,-206,138,753
1080,91,43,-10,-121,-112,-182,-211,176,1107
778,40,24,-32,3,12,-46,-1,278,591
254,81,57,15,330,70,-18,-41,200,-87
223,79,87,90,536,76,-60,-291,-128,-542
-92,-55,86,259,585,102,-83,-460,-412,-872
-308,-173,-13,197,421,126,0,-322,-345,-505
293,-91,-21,65,258,116,65,-209,-265,-193
757,84,81,-33,15,123,92,-281,-393,-163
733,236,160,4,-245,119,127,-255,-374,-73
-354,67,70,116,-436,64,164,-8,-84,33
-1529,-4,60,132,-627,57,242,161,157,-11
-1014,106,175,122,-762,78,267,120,100,-28
-265,53,161,112,-616,179,264,106,-19,-152
-14,-3,133,119,-279,185,231,108,30,-42
-6,-57,61,124,-4,86,93,29,39,227
-492,-333,-121,119,253,110,28,62,55,116
-584,-306,-122,146,620,123,-58,15,24,102
-45,25,-11,86,780,-31,-203,-85,29,358
169,137,9,22,578,-92,-193,-49,204,270
141,26,-84,-73,246,-88,-108,-9,255,50
-64,18,-75,-114,102,-48,-37,-5,104,-249
-406,25,-81,-110,104,-46,-20,-26,-97,-132
-307,153,41,-47,143,-130,-150,-194,-138,198
58,149,-14,-28,179,-134,-172,-202,108,575
92,-211,-217,-126,78,-102,-68,39,302,782
450,-221,-204,-162,-101,-134,-100,73,105,816
900,27,-42,-14,-70,-163,-223,-172,-223,676
1275,27,-6,83,-6,-144,-262,-323,-379,585
1479,12,5,45,-55,-129,-210,-298,-425,498
1285,104,-93,-238,-265,-212,-133,-88,-278,230
632,323,-136,-460,-341,-271,-97,63,-102,-432
-188,273,-144,-427,-207,-217,-79,114,-81,-852
-606,19,-124,-295,-99,-73,-6,104,-166,-868
-550,87,10,-190,-39,32,50,108,-75,-937
-60,105,93,-138,-59,-13,0,68,71,-43
722,75,70,-44,-117,-91,-108,-41,28,636
845,42,46,-22,-219,-88,-44,8,21,178
76,108,7,46,-85,51,122,117,-14,-645
-384,206,111,269,122,167,181,95,-71,-1075
-968,-77,110,310,60,94,131,71,-17,-877
-1348,-334,-9,123,-224,11,128,120,88,-250
-1181,-396,-68,-4,-341,17,136,149,131,205
-721,-291,-62,-34,-210,40,119,185,147,305
-290,-28,-12,-8,-38,58,138,248,209,55
-408,67,0,55,-58,42,137,256,345,-264
-717,0,21,101,-135,55,178,171,89,-625
-512,-111,-33,36,-73,88,176,121,-37,-529
-76,-189,-189,-27,171,46,46,31,-48,-103
19,-231,-322,-80,321,-69,-118,-167,-225,-1
-321,-229,-231,-108,301,-119,-151,-238,-321,-187
-618,-158,-91,-73,267,-83,-102,-192,-270,-92
-537,11,64,-63,141,107,88,-16,-47,157
-59,191,135,-53,26,252,227,131,124,309
201,202,114,88,-22,92,110,84,115,186
331,91,41,207,-155,-143,-66,-19,44,375
438,132,68,101,-401,-236,-138,-98,-15,617
472,297,172,19,-450,-232,-156,-205,-113,542
318,441,279,141,-248,-107,-118,-239,-106,-71
7,225,169,140,-157,19,13,-40,29,-590
-40,-27,37,61,-80,105,201,243,148,-491
203,-35,62,97,35,210,335,368,181,-411
544,139,168,161,154,232,251,192,-19,-291
313,78,175,229,403,222,124,-22,-194,-176
-145,-197,16,156,484,191,121,4,-130,-164
-806,-376,-165,-38,295,103,162,187,-28,-226
-973,-358,-203,-155,89,44,104,143,-54,236
-321,-248,-172,-289,-94,77,66,128,62,785
388,-102,-149,-427,-336,62,119,180,204,1104
807,95,-57,-425,-809,81,195,225,283,1123
713,133,16,-173,-1068,62,196,251,318,693
404,114,99,162,-976,-40,84,206,334,340
297,119,164,283,-858,-162,-42,105,309,313
-27,21,69,222,-605,-197,-112,49,275,1
-409,-176,-202,98,248,-79,-198,-48,168,-220
-423,-87,-292,8,981,-3,-227,-144,4,-178
-35,191,-203,-76,886,-66,-310,-231,-170,-201
73,252,-53,-66,867,-97,-331,-276,-294,-381
-15,134,93,6,803,-29,-225,-223,-330,-537
295,-46,61,30,618,106,-61,-97,-239,-559
902,-37,76,64,495,130,-54,-178,-340,-548
1094,86,134,150,443,83,-127,-362,-450,-219
877,173,153,297,368,40,-134,-253,-304,84
222,10,-51,151,115,13,-16,246,222,-18
-602,-98,-109,9,-32,-51,-67,139,117,-183
-893,-63,-21,-69,-201,-133,-144,-120,-183,-75
-304,8,-69,-210,-455,-194,-143,-154,-159,378
372,34,-183,-315,-562,-218,-110,-26,139,722
217,-22,-41,-128,-265,-76,9,144,298,353
-134,-90,83,180,170,98,100,170,130,-303
8,-139,36,225,248,203,108,80,-109,-621
351,-316,-129,7,233,212,110,84,-16,-490
240,-374,-212,-106,249,65,46,80,47,-215
-267,-130,-28,-56,72,-34,13,100,133,14
-699,106,54,-122,-193,-102,-11,73,94,143
-1242,73,-54,-277,-343,-116,-5,54,58,121
-1126,56,-84,-359,-357,-74,21,55,104,399
-601,110,3,-110,-196,-50,13,16,101,504
-419,118,125,247,-5,-17,27,-20,15,65
-338,24,97,230,-15,-20,6,-50,-62,-211
-225,-12,48,99,16,17,-15,-97,-98,-342
32,73,122,99,163,0,-78,-267,-163,-217
270,137,112,97,30,-70,-108,-234,14,-10
362,63,8,-32,-202,-120,-75,-45,149,175
454,20,-44,-162,-375,-124,1,102,156,572
663,68,-34,-151,-407,-42,103,247,316,874
944,126,55,101,-161,72,115,259,351,630
1160,119,153,286,253,122,78,181,206,153
1132,-29,77,279,349,101,40,81,27,-255
638,-171,40,217,62,89,44,18,-85,-474
99,-280,-15,50,-161,50,80,95,48,-150
-340,-140,-64,-118,-71,26,60,146,203,301
-753,116,-14,-126,293,21,-25,34,57,167
-994,130,64,-75,474,-56,-126,-86,-79,-122
-589,128,29,-131,164,-142,-169,-82,84,-53
195,152,-45,-197,-138,-136,-125,-78,-7,60
764,174,-44,-85,-75,-19,-51,-82,-182,-213
807,123,-58,-7,101,105,39,1,-159,-424
326,76,54,15,167,170,149,102,-67,-366
-594,-41,33,8,113,224,237,161,-42,-504
-1177,-108,-31,-9,75,189,168,92,-88,-327
-1212,-56,15,36,102,52,-9,-54,-151,-133
-747,10,46,118,205,-54,-119,-142,-189,-14
-298,-9,6,72,168,-80,-131,-148,-243,36
-153,-58,-49,-28,48,26,-51,-38,-159,-76
-331,-118,-25,3,62,140,47,82,-82,-457
-509,-85,64,140,93,170,68,72,-110,-658
-376,-101,42,155,79,89,3,-18,-157,-481
0,-99,-13,53,-30,-85,-89,-78,-135,-169
456,-24,11,-72,-323,-181,-99,-52,-77,118
724,27,12,-127,-498,-179,-72,-38,-59,237
559,-160,-91,-129,-407,-81,4,21,6,318
429,-252,-120,-75,-278,25,69,78,45,309
665,-242,-88,0,-195,48,84,106,137,292
730,-220,-115,24,124,106,87,100,168,77
193,-99,-52,30,526,88,25,3,-7,-303
-96,232,114,-18,369,-13,-24,-37,-62,-280
-219,329,125,-111,-26,-70,-34,-48,-88,34
-750,122,22,-151,-105,-44,-37,-73,-177,130
-872,61,12,-158,-172,0,6,2,-72,198
-461,113,98,-81,-271,-12,46,68,70,412
-60,195,129,-20,-338,1,99,75,101,378
98,207,130,0,-252,111,169,97,180,119
369,115,59,64,57,130,129,75,332,486
675,121,62,150,165,-27,-24,-29,248,723
1121,111,36,105,9,-121,-148,-134,74,615
1117,-124,-106,-36,16,-83,-148,-160,-21,256
472,-298,-163,-53,290,-25,-84,-128,-118,-119
147,-36,-20,76,431,-87,-140,-218,-236,-275
-189,159,40,83,233,-121,-129,-210,-205,-391
-994,-170,-105,-54,12,71,117,49,40,-497
-1020,-113,-46,-139,-195,88,175,69,95,-111
-229,176,90,-119,-296,49,114,-59,38,383
182,241,139,-116,-328,91,115,-69,97,649
-200,122,54,-113,-367,74,159,160,288,341
-419,40,-35,51,-347,41,176,322,347,-231
-153,146,63,159,-189,80,57,135,205,-404
6,170,139,151,376,82,-139,-156,-84,-254
143,104,71,34,673,-86,-257,-194,-112,-19
352,-50,-69,-95,190,-197,-214,15,147,0
759,-79,-78,-49,-161,-221,-241,-101,-58,-33
1119,-109,-109,-14,-205,-232,-301,-212,-107,91
1293,-46,-89,15,-215,-256,-341,-296,-123,492
890,-139,-141,7,-191,-196,-254,-202,-122,725
78,-351,-223,0,-10,-13,5,120,-43,378
-395,-119,3,172,267,184,184,240,-28,-515
-558,-35,104,204,243,270,295,301,68,-795
-635,-70,-88,81,88,266,296,269,47,-366
-384,311,-1,35,74,190,122,16,-223,-257
-264,342,115,-65,196,73,-38,-149,-372,-319
-440,-109,-41,-171,123,-1,12,-44,-190,-14
-580,-145,-5,-71,-58,-113,-31,-42,-45,293
-508,-44,54,-21,-116,-118,-64,-103,-44,110
-423,-116,11,-40,-116,-40,-21,-95,-113,-310
-359,-44,49,17,-63,45,86,-12,-91,-459
-159,51,93,85,90,128,103,-28,-102,-203
-95,32,67,173,265,128,47,-64,-40,396
-154,-10,-43,130,224,-26,-66,-33,246,909
122,162,15,75,-11,-149,-217,-206,205,833
330,120,-99,-130,-338,-126,-79,17,348,452
275,-25,-160,-314,-554,0,224,301,327,-159
106,63,24,-201,-698,130,406,398,237,-641
306,127,184,48,-621,218,359,316,179,-455
431,-58,106,193,-187,245,202,143,65,-173
262,-255,-70,157,68,142,67,92,123,134
532,-53,18,174,-189,-61,-78,6,172,376
808,422,263,216,-364,-179,-156,-5,443,472
281,487,272,233,-178,-188,-184,-19,520,354
-316,123,22,76,40,-190,-222,-82,257,103
-728,-231,-355,-275,117,-119,-167,-78,70,10
-593,-208,-422,-330,441,57,-128,-71,148,-47
-591,-216,-223,-107,879,161,-79,-89,53,-366
-599,-179,-82,45,785,156,10,-55,-79,-625
-138,-22,-45,49,355,48,-10,-87,-69,-286
222,171,38,109,78,-74,-103,-227,-251,-113
-21,164,174,159,-16,-104,-84,-171,-466,-617
-277,46,135,113,34,-61,2,29,-328,-1021
-334,-108,63,116,156,-1,63,40,-355,-899
-489,-99,87,182,181,91,167,117,-249,-887
-371,2,97,201,32,127,182,166,13,-570
-98,-107,38,83,-216,124,185,180,38,-81
378,25,34,-7,-399,44,86,86,-9,163
525,230,113,-17,-459,-67,-14,-9,-44,286
307,75,50,-55,-246,1,-17,22,-14,486
336,-100,-73,-190,67,-18,-66,2,-79,867
366,-104,-161,-344,149,-113,-150,-72,-192,927
226,-85,-143,-317,67,-122,-159,-106,-261,711
395,-30,-86,-257,-180,-175,-181,-174,-312,567
906,-61,-185,-308,-378,-224,-164,-82,-171,376
969,-101,-223,-286,-226,-126,-77,32,-64,270
934,-83,-155,-99,96,-129,-121,-60,-149,354
666,-16,-66,49,204,-145,-137,-110,-206,51
-93,-27,-15,82,75,-41,-3,-25,-160,-333
-896,-115,48,164,56,131,172,68,-192,-564
-1108,-193,113,233,73,204,220,109,-154,-276
-979,-308,89,221,201,190,167,120,-54,-27
-596,-278,43,181,412,184,146,139,50,11
-169,-160,46,121,426,167,149,188,182,-164
-222,-131,-1,16,321,173,180,289,265,-433
-503,261,166,-38,105,101,75,107,27,-630
-633,322,131,-91,-59,16,24,-74,-143,-573
-517,142,-33,-45,6,30,47,-37,-24,-340
-324,174,76,49,87,-21,-9,-31,109,-153
-216,107,59,69,73,-116,-90,-50,161,125
-57,-69,-69,-19,3,-138,-103,-66,171,421
139,-131,-165,-123,13,-113,-68,-38,164,458
183,-58,-119,-60,-27,-26,14,-7,124,84
93,-24,0,59,-207,20,76,-58,-62,-470
217,-15,33,33,-353,51,156,15,-66,-375
834,163,91,49,-383,45,158,28,-53,30
1520,384,194,67,-517,-51,59,-36,-13,444
1834,453,253,35,-635,-146,-35,-106,32,694
2225,367,245,25,-578,-132,-66,-111,96,854
1502,57,41,-100,-346,-12,19,140,376,766
-186,-207,-113,-150,95,110,102,228,423,457
-861,98,53,6,378,116,52,85,176,180
-1211,197,88,56,134,25,-29,34,87,-95
-1908,-130,-98,64,193,20,-73,-39,-53,-653
-1961,-212,-115,154,450,15,-80,-97,-149,-928
-1329,-188,-93,95,336,-4,-95,-90,-68,-627
-729,-183,-89,3,161,-15,-122,-131,-74,-97
-211,-52,11,40,197,-80,-211,-266,-167,283
-90,-137,-96,-43,275,-120,-165,-146,-128,175
-104,-254,-239,-187,257,-92,-44,61,-17,98
78,-74,-159,-192,190,-61,-3,64,-5,99
99,117,-55,-137,47,-24,-2,10,-115,-171
-14,67,-73,-225,-265,33,29,0,-154,-260
-64,-118,-99,-117,-147,51,-39,-58,-207,-138
122,-119,0,172,196,3,-144,-179,-276,-20
397,21,120,188,49,24,-34,-88,-162,-69
540,52,126,-9,-462,-62,41,12,-137,66
578,41,138,-34,-722,-177,0,43,-147,368
648,116,204,158,-662,-173,6,84,-21,403
1168,207,180,135,-588,-165,66,196,227,461
1408,245,83,-54,-624,-140,68,195,274,593
962,334,102,-160,-316,-31,14,35,55,390
654,283,32,-194,452,9,-112,-104,50,458
166,-38,-193,-100,788,-3,-168,-159,99,482
-560,-256,-296,-77,418,-24,-102,-86,168,615
-807,-288,-203,-141,89,-34,40,109,245,781
-175,-94,-106,-121,-236,-91,29,123,273,1117
363,121,35,16,-459,-175,-36,51,247,1056
275,185,147,179,-506,-135,0,-7,90,162
-76,166,224,288,-369,52,89,-21,-107,-849
-585,-24,115,233,-2,305,257,32,-224,-1580
-805,-128,-42,135,346,349,317,7,-261,-1347
-874,-103,0,75,176,219,240,58,-152,-763
-1007,-131,59,77,-182,115,191,179,37,-647
-623,21,173,216,-130,152,131,69,-9,-631
-332,80,172,198,231,145,30,33,-81,-725
-400,-100,-59,15,517,120,-23,144,13,-806
-283,-201,-143,-101,625,94,-77,59,1,-574
-98,-286,-177,-99,764,49,-129,-48,-3,-354
127,-305,-173,-41,911,-37,-138,-74,32,-350
522,-256,-160,-20,626,-57,-102,-93,-56,-285
653,-243,-183,-59,310,-20,-57,-78,-63,-39
925,-56,-150,-106,168,-38,-75,-85,-25,258
1263,437,49,-29,185,-140,-185,-209,-93,347
1216,553,98,-1,193,-249,-281,-257,-98,255
841,274,26,-15,262,-186,-202,-173,-68,141
18,60,-114,-57,239,-59,-44,-30,55,86
-1041,-197,-180,-184,-94,7,24,52,111,104
-1416,-344,-152,-166,-300,52,70,47,-12,-82
-1543,-391,-165,-57,-282,41,73,-1,-138,-208
-1122,-271,-185,-49,-330,55,99,51,-107,9
-548,-87,-8,-118,-397,96,158,158,-36,204
-306,-17,113,-80,-255,162,187,186,-8,179
-408,-87,106,91,59,210,159,178,49,-115
-280,-116,48,157,280,115,48,103,34,-201
-106,-79,49,105,152,-42,-40,12,-6,-233
197,149,146,81,-217,-135,-99,-74,26,-42
505,440,300,132,-515,-184,-159,-191,71,209
603,367,274,145,-533,-82,-93,-159,61,172
460,155,157,118,-286,56,68,12,45,-25
243,-12,40,68,-202,62,166,173,50,-82
189,-122,-80,35,-467,12,181,233,137,214
24,-207,-140,-1,-330,92,91,95,143,457
-17,-107,-127,-33,295,131,-77,-146,33,653
439,139,-15,-122,561,-96,-279,-383,-136,928
681,199,-34,-234,91,-311,-289,-275,-54,901
722,175,-52,-240,-351,-239,-96,55,228,744
817,124,-39,-155,-481,-122,36,176,393,973
539,28,-7,-76,-501,-45,84,177,415,901
71,68,78,0,-440,-37,41,82,270,716
79,77,27,76,-130,-33,-33,-42,89,755
142,-75,-106,63,345,46,-55,-111,-44,492
-21,-258,-159,-43,663,84,-20,-111,-150,-178
-211,-154,-109,-63,532,81,85,-22,-145,-1062
-527,12,39,24,231,174,203,99,-103,-1821
-750,-131,99,84,92,250,248,158,-25,-1601
-672,-72,112,60,-37,148,161,72,-36,-880
-822,101,134,41,-141,82,111,-35,-119,-564
-1112,16,107,154,102,127,100,-123,-281,-722
-829,-80,21,144,478,120,85,-126,-310,-724
-424,-70,3,79,308,132,153,6,-86,-530
-56,126,106,45,-315,79,230,154,128,-269
53,168,118,69,-505,27,150,75,-74,-103
244,124,106,118,-198,68,-100,-199,-268,87
706,149,116,149,337,-25,-354,-453,-396,344
830,98,29,60,491,-264,-466,-538,-441,412
623,-4,-90,-62,370,-289,-360,-335,-277,173
286,-107,-181,-157,244,-193,-131,12,12,14
65,-180,-170,-171,55,-135,-42,96,35,-36
14,-136,-99,-118,-42,-62,-9,90,14,-28
85,-186,-122,-127,-45,-40,-9,59,31,384
825,-271,-195,-210,-105,-92,-89,-5,139,881
1503,-114,-125,-192,-144,-124,-134,-41,230,690
1005,114,0,-96,-167,-88,-105,9,259,138
312,173,-6,-44,-52,77,41,172,419,-229
-379,141,51,49,196,212,157,261,436,-590
-1371,15,79,233,308,134,91,155,205,-825
-1904,-114,98,262,259,64,57,89,111,-485
-1257,-42,71,28,63,125,163,183,261,229
-261,110,54,-125,-8,163,215,214,264,772
255,68,57,-32,32,32,81,69,166,1046
110,-81,-23,2,-182,-45,8,-10,83,863
-135,14,50,133,-321,-70,-75,-165,-49,316
78,506,450,356,-209,-119,-243,-518,-348,-306
197,576,383,280,-84,-79,-273,-508,-370,-626
-192,113,2,28,87,48,-102,-170,-193,-832
-225,-204,-127,-54,297,79,-72,-162,-279,-826
156,-178,-85,-24,348,-28,-185,-362,-444,-624
308,-124,-121,-71,170,-58,-61,-156,-259,-482
143,-193,-170,-143,-88,7,164,184,55,-348
-138,-250,-157,-140,-199,35,172,193,19,-233
-521,-308,-130,-57,-159,65,155,170,-23,-261
-385,-270,-35,85,-130,75,154,192,-33,-263
314,-158,49,162,-156,84,143,245,-83,-150
1115,23,108,147,-266,14,76,258,-16,149
1864,181,123,71,-388,-108,-59,144,60,623
2264,138,22,-4,-432,-144,-94,212,369,1122
1873,247,39,-68,-390,-153,-119,177,423,1242
958,365,34,-147,-198,-170,-207,-35,205,1115
-182,71,-180,-298,-25,-154,-225,-120,152,849
-1200,-137,-289,-427,-208,-63,-40,15,205,144
-1624,4,-11,-315,-488,134,212,223,267,-483
-1485,268,305,14,-510,252,319,240,141,-739
-1381,199,229,209,-473,162,264,219,163,-554
-1141,-7,82,141,-75,188,148,124,90,-178
-744,-63,98,34,679,243,22,-67,-153,-114
-536,-40,108,155,979,106,-129,-232,-328,-419
-599,-157,29,313,696,-43,-180,-159,-276,-742
-520,-182,-33,302,571,-101,-150,-107,-147,-603
-192,-60,-102,137,373,-106,-153,-157,-62,-224
117,63,-11,52,197,-100,-146,-260,-272,-75
175,10,-46,-4,80,-51,-35,-109,-226,-15
51,-226,-152,-87,-10,-22,82,179,54,32
117,-262,-85,-11,44,15,96,112,64,64
277,-210,-24,40,80,36,72,-30,-22,143
497,-111,-1,-6,3,-20,3,-118,-53,374
621,-173,-135,-173,-145,-68,55,132,236,764
817,-73,-175,-210,-220,-70,114,252,334,1094
829,142,-127,-198,-307,-91,56,162,249,1086
427,119,-105,-194,-375,-88,29,121,271,919
101,-28,-96,-125,-345,-37,95,126,247,660
-205,9,17,5,-256,-15,144,111,99,44
-232,20,95,85,-156,-54,72,51,-18,-159
106,15,61,60,-38,-16,22,-1,-49,-255
824,124,81,13,177,15,-44,-98,-233,-383
1011,265,136,16,518,-26,-107,-150,-373,-384
300,166,22,-93,549,6,-144,-189,-436,-201
-513,-65,-138,-244,304,55,-172,-195,-362,-135
-641,-65,-78,-220,77,83,-105,-144,-127,-143
-600,-39,66,-44,-1,94,-47,-110,-104,-273
-628,-72,79,121,13,89,-8,-78,-216,-485
-568,-176,-76,169,-49,91,51,23,-150,-794
-292,-133,-13,88,-196,64,65,67,3,-824
-50,64,116,67,-211,20,19,22,-55,-702
-44,111,122,129,-112,-13,-52,-50,-174,-499
-65,-81,19,67,-136,-45,-87,-71,-144,-131
206,-153,-40,-21,-172,-73,-103,-97,-70,215
663,-16,29,-2,-137,-61,-123,-153,-7,390
645,63,91,23,-78,-41,-107,-116,109,463
107,91,81,-19,-45,-92,-83,-26,281,601
-752,99,110,32,25,-91,-28,62,384,408
-884,105,113,71,-51,-68,-8,62,329,261
-487,107,95,41,-217,-47,45,75,219,225
-27,150,154,78,-134,47,95,-15,-52,163
534,288,254,141,73,67,-3,-240,-268,323
734,189,69,-13,-96,-43,-64,-138,-133,216
694,10,-140,-148,-293,-86,0,142,118,-264
1014,51,-231,-200,-187,66,97,216,232,-168
1164,161,-100,-177,74,189,153,176,227,187
697,191,10,-42,247,96,116,54,24,171
-389,-71,-42,181,148,-28,63,-7,-6,-140
-1138,-260,-62,215,-150,-85,96,53,94,-495
-965,-39,84,35,-534,-110,118,110,128,-340
-731,113,177,-151,-713,-43,172,115,33,-205
-508,44,76,-205,-443,67,173,94,64,38
-374,-203,-162,-163,357,158,110,71,182,311
-193,-295,-294,-68,748,86,28,30,225,468
-153,-205,-223,33,543,-1,-67,-68,-9,208
-309,-92,-21,243,494,32,-86,-135,-260,-429
-235,30,157,373,422,94,-40,-181,-371,-778
-160,-13,159,281,263,152,26,-139,-371,-690
-195,-170,-35,66,138,161,145,131,-111,-463
-175,-265,-174,-51,45,88,164,239,64,-185
-55,-248,-99,-23,20,38,126,166,89,147
179,-32,10,13,53,49,13,53,50,416
279,142,73,6,62,37,-85,-41,39,529
143,-107,-40,-58,112,1,-101,-73,56,495
18,-299,-186,-122,86,-51,-57,-46,6,277
87,-72,-219,-126,-24,-60,-60,-57,-104,-5
186,97,-130,-27,38,-73,-109,-58,-96,1
311,37,-26,88,190,-57,-110,-11,-24,180
515,103,26,106,208,-68,-114,-82,-100,160
832,33,-66,26,127,-62,-91,-27,-49,277
1022,-11,-97,-28,22,-8,-14,52,48,420
781,157,-22,-72,-262,-88,-32,37,48,193
138,128,-47,-154,-413,-185,-115,-26,4,-115
109,-38,-142,-213,-302,-195,-176,-104,-58,14
347,-17,-107,-202,-108,-186,-142,-77,-37,180
396,150,13,-196,-107,-186,-68,-19,15,345
281,258,170,-58,-101,-142,-61,-139,-243,-45
282,327,267,62,-26,-65,-45,-202,-427,-696
297,290,231,2,-68,23,64,-32,-177,-574
101,181,143,-59,-146,105,134,71,49,-51
-488,13,65,-41,-150,101,117,70,95,110
-1244,-144,-15,-43,-127,75,86,131,178,84
-1382,-142,-67,-9,39,119,88,165,199,-235
-973,-162,-39,144,373,109,81,171,248,-513
-470,-156,-92,153,339,26,42,106,196,-427
-29,-177,-103,76,119,-27,0,-6,98,-66
185,-230,-30,134,57,-11,-39,-174,-74,134
549,53,142,141,-110,-17,-94,-369,-233,494
652,208,162,46,-322,-27,-110,-275,-94,897
224,-103,-141,-115,-245,57,62,222,275,371
-61,-13,-128,25,172,68,68,260,277,-251
-253,111,2,71,381,-9,0,73,87,-293
-618,3,-59,-58,36,-65,5,67,54,-512
-357,19,-153,-141,-250,-128,-7,27,-15,-585
370,2,-128,-145,-327,-88,41,70,76,-68
517,103,66,1,-253,49,173,159,191,242
273,113,134,120,-119,130,209,120,117,145
-293,9,23,32,-43,105,168,95,77,-28
-989,-68,-110,-133,-25,55,131,118,135,41
-1108,-43,-104,-154,25,83,100,88,73,9
-619,29,26,-49,218,19,11,-38,-87,-125
-157,61,-10,-65,212,-77,-72,-98,-123,-101
128,-16,-136,-67,123,-93,-67,-87,-141,-257
177,-99,-50,114,181,-18,-17,-84,-163,-549
-25,-139,2,192,254,137,77,7,-83,-546
-64,-88,72,168,277,186,88,-65,-277,-435
-191,-54,114,178,218,113,14,-164,-325,-272
-307,-46,106,141,8,48,-18,-168,-279,-80
-140,42,71,15,-318,50,95,153,153,139
37,66,-45,-47,-432,10,149,351,357,218
32,-46,-66,23,-275,8,57,211,178,150
-20,-70,14,53,-205,-38,-3,122,114,148
84,91,75,-28,-352,-140,-56,78,98,403
378,94,30,-103,-338,-97,-63,47,96,677
903,49,-37,-135,-152,-36,-41,17,154,882
1391,159,-87,-192,-34,-65,-110,-97,50,905
1365,202,-139,-223,-11,-153,-224,-211,-91,635
975,133,-79,-143,-2,-199,-265,-309,-212,546
428,197,128,53,53,-182,-263,-392,-339,234
336,109,76,13,11,-153,-214,-217,-150,245
39,-41,-14,-57,-38,-39,-118,18,57,150
-534,1,134,89,84,101,40,103,38,-397
-845,-10,50,22,28,123,226,282,123,-630
-718,78,-110,-137,-257,145,326,391,223,-496
-528,166,-14,-48,-457,211,341,423,183,-365
-569,5,59,237,-298,184,201,309,41,-341
-592,-178,36,279,219,120,-5,97,-61,-337
-490,-221,-26,208,863,102,-110,-83,-156,-535
-46,-126,-54,168,1095,16,-212,-251,-237,-705
386,-22,17,87,804,-50,-230,-292,-204,-439
419,-67,-14,-45,377,-2,-126,-282,-249,-140
258,-173,-123,-208,-7,31,12,-133,-142,271
127,-147,-156,-240,-172,-43,8,-97,-46,738
-18,-148,-103,10,-136,-133,-64,-88,0,914
383,14,30,201,-78,-191,-131,-142,-116,720
808,-30,11,97,-10,-125,-91,-137,-128,557
944,-224,-145,3,117,-2,-18,-28,109,585
552,-304,-237,-44,117,50,23,38,271,367
-372,-75,-34,-46,-62,44,54,26,245,-58
-1165,63,146,27,-240,25,77,-18,104,-506
-1304,48,88,91,-256,-2,92,-34,-80,-842
-1104,38,142,99,-244,-35,52,-38,-124,-791
-710,48,164,20,-303,-57,0,11,-54,-549
30,175,131,-70,-446,-82,-27,64,-1,-292
774,309,172,-93,-449,-37,-90,-17,0,100
946,437,167,-102,-38,15,-213,-184,29,400
751,399,64,-159,439,-38,-249,-142,179,465
296,156,-56,-156,340,-55,-88,126,306,249
-127,1,-43,-57,145,-41,-46,150,190,-100
-567,-162,-87,-58,95,-48,-40,101,141,-262
-784,-204,-148,-103,-59,-7,51,142,115,-256
-621,-96,-23,-47,-86,49,84,56,-59,-372
-221,70,126,47,-13,69,-33,-114,-205,-410
-2,73,118,44,120,44,-68,-80,-119,-384
170,-57,1,-48,241,76,46,115,11,-495
212,-106,-135,-98,206,81,57,106,-71,-514
261,-28,-133,-60,88,71,41,54,-93,-261
197,-21,-63,59,188,75,42,-35,-148,129
69,-95,24,88,176,34,-27,-141,-226,393
22,-223,-47,21,8,-41,-27,8,-14,580
343,-142,-44,-29,-128,-103,-44,100,169,1064
1107,52,45,-68,-226,-133,-74,37,194,1360
1417,101,20,-59,-315,-174,-90,-11,166,1236
1182,122,-79,-79,-317,-220,-132,-44,192,1186
609,340,-68,-161,-319,-266,-156,-81,140,964
-590,215,7,-154,-268,-212,-65,-31,73,239
-1509,15,50,24,-61,-22,91,54,0,-661
-1332,-224,-28,111,99,229,298,225,65,-1048
-911,-336,0,173,314,299,352,262,29,-1049
-639,-247,21,173,216,197,254,156,-101,-894
-271,-48,123,267,-142,98,116,11,-200,-584
-171,17,187,285,-246,28,52,-11,-155,-368
-238,56,146,98,-277,38,84,109,60,-112
-125,170,127,6,-153,106,96,178,148,28
-69,178,157,30,234,110,34,8,-24,-60
-84,128,163,67,613,25,-76,-203,-169,-84
29,149,183,94,460,-21,-87,-211,-227,-295
111,48,89,32,93,26,69,89,5,-628
147,-15,83,25,-132,123,188,177,107,-520
-8,-54,106,57,-244,114,154,17,-6,-260
-144,-87,59,74,-230,73,102,0,21,-56
-183,-40,-51,-29,-281,17,110,118,73,-41
-1,103,-30,-123,-254,-94,11,83,92,79
143,209,43,-104,267,-70,-103,-56,142,229
172,122,-64,-169,876,-52,-183,-132,99,278
-12,-67,-202,-338,664,-52,-151,-89,-17,184
-186,-74,-178,-352,85,22,-36,11,-8,2
-103,-16,-57,-96,76,36,-10,-54,-112,-6
227,-52,-10,187,187,-112,-180,-267,-270,236
582,-47,-34,194,-60,-259,-313,-336,-269,359
714,52,23,-39,-441,-238,-202,-182,-148,308
556,12,16,-185,-587,-107,-2,23,30,190
444,-101,-17,-91,-491,30,118,139,125,56
476,-42,79,115,-400,68,141,127,29,-47
689,130,136,163,-377,99,150,118,39,336
500,74,117,199,-278,95,97,93,19,435
-113,-104,54,203,4,135,83,103,-7,28
-774,-318,-72,150,422,205,114,146,22,-443
-1008,-493,-155,60,562,142,44,69,-87,-810
-854,-410,-120,32,412,55,-52,-34,-198,-734
-595,-76,-41,29,320,5,-110,-95,-196,-491
-290,174,18,-45,287,-63,-150,-146,-200,-301
-184,222,29,-141,170,-136,-181,-161,-233,-59
-419,134,17,-167,29,-146,-171,-162,-270,8
-413,212,42,-155,23,-149,-151,-112,-166,-7
-196,218,75,-101,94,-156,-161,-140,-127,-80
48,150,94,-17,219,-41,-118,-192,-189,-44
205,134,79,-4,130,41,-55,-127,-67,233
94,20,-38,-6,15,62,10,27,101,364
-98,-105,-94,21,-84,36,60,198,209,160
-43,-51,0,23,-150,34,43,175,198,117
458,83,85,-24,-181,34,31,163,304,564
1149,110,94,24,-161,-11,-8,124,377,952
1513,46,-16,48,-88,-50,-66,53,301,1005
1459,-10,-126,-42,-42,-119,-125,8,256,926
1137,-136,-204,-67,-150,-210,-201,-44,244,655
427,-380,-247,-101,-238,-163,-167,-67,173,138
-608,-612,-224,-26,-107,-2,-14,-11,99,-232
-1340,-598,-125,85,74,156,139,82,94,-519
-1339,-334,-62,84,90,213,196,142,254,-560
-523,241,115,27,-53,92,86,-24,70,-242
5,689,243,16,-194,7,28,-103,-96,-101
-115,499,93,-68,-310,35,164,164,61,-172
-168,278,30,-38,-286,109,269,253,118,-367
-178,268,98,48,-192,192,248,158,175,-365
-291,243,118,18,-131,155,143,33,74,-178
266,283,163,-21,-50,62,-25,-104,-94,93
967,292,127,-111,38,33,-69,-93,-70,401
975,124,-1,-205,112,78,90,70,40,412
804,-45,-87,-147,222,11,46,8,3,292
149,-212,-94,33,268,-88,-124,-170,-202,-92
-756,-135,23,221,294,-67,-196,-286,-370,-577
-851,0,77,189,262,-107,-176,-256,-342,-409
-763,-85,-28,51,285,-63,-52,-226,-338,-221
-774,-233,-102,-8,161,-40,-15,-205,-362,-205
-439,-363,-189,-28,-69,-29,40,44,-97,186
-42,-348,-188,90,-157,-27,58,111,71,380
893,-184,-221,57,-293,-80,25,46,83,457
1826,-9,-240,-131,-457,-143,19,99,237,948
1544,-12,-215,-191,-400,-93,40,181,361,971
807,49,-91,-144,-178,9,58,172,273,506
-203,84,0,-69,183,73,60,140,167,-91
-1055,69,76,17,301,133,102,173,186,-281
-1179,39,128,106,81,158,129,159,125,-163
-796,-74,74,132,-102,101,67,76,-66,-311
-625,-50,76,114,-175,6,-37,14,-54,-518
-775,-6,107,26,-199,-8,-43,22,-25,-686
-711,56,134,-68,-185,-14,-32,-12,-74,-682
-424,107,158,-71,-80,-11,-67,-165,-268,-671
-177,50,65,-41,125,48,-82,-331,-513,-739
-227,-152,-125,-192,128,70,13,-85,-268,-636
-392,-166,-63,-184,-44,87,164,243,115,-516
-330,-20,120,69,-97,68,97,137,84,-389
-57,61,131,111,-175,39,56,71,38,-333
265,222,178,-49,-356,11,110,151,120,-39
446,318,257,-65,-303,31,101,149,99,211
506,89,94,0,75,115,124,179,80,416
498,-164,-137,-17,567,131,110,205,123,748
460,-178,-190,-22,478,-24,-11,107,103,1047
227,-115,-170,-10,16,-213,-194,-79,3,990
-109,-91,-116,28,2,-197,-265,-170,-40,686
-63,-70,-76,-15,209,-94,-214,-106,150,376
295,-92,-66,-45,241,-101,-190,-90,288,155
109,-122,-131,2,104,-92,-157,-142,105,-457
-653,-216,-150,11,84,-4,-70,-137,-99,-1128
-784,-304,-95,24,194,32,-48,-186,-257,-973
-130,-230,-62,24,251,-6,-89,-259,-307,-473
468,-42,-27,-36,143,-33,-77,-219,-225,-52
681,55,-13,-66,105,4,-50,-154,-121,106
568,9,3,85,246,12,-41,-98,-74,108
329,38,22,239,64,-96,-38,-67,-130,312
260,293,124,100,-448,-157,-27,-60,-131,533
-141,238,184,7,-763,-61,101,53,-17,158
-437,-8,116,2,-778,-4,230,288,259,37
-365,-76,91,43,-619,33,233,300,308,302
-330,-99,70,100,-240,141,133,99,89,45
-330,-101,-23,76,256,167,33,-65,-45,-219
-160,64,52,62,729,32,-85,-204,-42,-4
148,350,150,73,735,-160,-269,-424,-71,166
461,335,-5,19,348,-260,-405,-546,-63,260
409,-59,-333,-263,-100,-309,-292,-231,85,388
262,-307,-477,-434,-323,-308,-126,22,52,235
503,-212,-270,-325,-292,-248,-97,33,5,254
492,-57,-31,-105,-117,-77,2,156,76,79
328,96,183,123,123,121,108,219,-39,-301
310,88,205,148,174,198,152,178,-15,-82
291,50,185,99,153,227,179,156,139,110
325,109,220,206,287,243,157,46,25,-49
282,0,96,324,419,151,95,-11,-106,-191
231,-208,-166,243,391,124,133,86,-44,-261
185,-253,-112,146,196,127,157,92,-74,-226
23,-331,-67,54,4,182,221,151,-49,-76
-226,-317,-21,132,76,227,210,161,-65,-285
-379,-131,113,241,86,107,79,22,-182,-620
-541,51,45,135,-107,5,23,-11,-171,-527
-816,296,133,-44,-303,-33,47,22,-109,-430
-1005,275,199,-156,-415,-78,12,8,-146,-473
-767,46,48,-147,-426,-93,16,71,-8,-305
-465,74,103,25,-299,-101,-7,74,94,-157
-245,187,221,141,-234,-106,-29,24,-69,-112
-57,351,240,103,-331,-61,32,112,61,-19
-280,302,72,55,-369,-36,76,176,238,122
-445,80,-5,32,-333,-68,4,62,207,406
38,143,9,-57,-266,-110,-107,-100,46,805
717,259,4,-168,-243,-91,-98,-110,18,1265
975,142,-142,-200,-33,-30,-109,-87,98,1470
841,-51,-262,-242,341,32,-135,-39,289,1208
696,100,-24,-198,786,25,-143,-97,251,680
553,240,131,-163,495,-1,-125,-233,-33,108
68,-33,-34,-168,70,34,-40,-89,141,-310
-125,-362,-254,-202,-7,65,106,207,359,-586
-360,-368,-214,-72,15,39,117,148,181,-1030
-578,-191,-9,137,69,69,53,-30,-79,-1431
-99,-64,96,181,111,108,50,-19,-47,-1058
183,6,129,91,117,100,86,34,-54,-457
153,27,127,22,27,58,147,125,27,-45
0,32,128,77,-3,59,178,109,-33,1
-352,-22,84,142,20,79,69,-13,-142,-14
-602,-184,-23,139,66,31,-37,-62,-170,100
-302,-130,-75,6,-76,-120,-100,-102,-188,280
-30,-15,-19,12,-179,-118,-84,-127,-213,261
-1,18,98,198,-102,-30,-96,-223,-315,180
-111,-74,84,161,-105,18,-65,-156,-312,-32
-273,-188,-30,-41,-176,46,57,174,14,-437
-204,-46,-7,-72,-154,98,145,242,179,-444
31,86,20,-51,24,195,163,136,87,-140
188,97,-54,-85,208,208,164,110,56,17
137,13,-168,-150,322,200,144,111,60,-44
-20,14,-107,-139,451,126,43,51,-8,-84
-142,142,-3,-18,264,19,-64,-45,-1,22
134,184,40,123,99,-37,-132,-103,110,311
423,116,39,114,32,-157,-200,-155,-12,708
643,114,-54,-34,-164,-243,-244,-184,3,846
693,104,-132,-168,-209,-281,-281,-212,32,737
236,-40,-156,-146,-3,-308,-291,-250,-113,281
-365,-194,-143,-23,64,-241,-225,-227,-180,-366
-416,-237,-134,-23,-37,-182,-126,-136,-82,-394
-345,-151,-29,26,-23,-55,3,-50,-64,-352
-479,-130,45,103,52,97,142,-6,-89,-384
-434,-200,-23,99,93,128,177,64,-24,-300
-160,-182,-45,68,104,83,144,151,147,-142
245,-116,32,146,62,56,104,158,187,-49
511,-116,51,159,-75,83,92,158,97,55
643,-137,36,148,-66,159,125,147,99,316
706,-159,18,143,105,152,133,107,71,446
897,26,40,92,67,63,76,67,98,644
1075,167,78,18,-107,-15,-8,29,145,589
875,78,44,-34,-106,-74,-44,31,216,424
395,253,36,-84,-151,-157,-79,17,210,306
-544,376,117,-75,-271,-110,-42,0,57,-300
-1183,196,166,-1,-323,7,28,23,-20,-721
-855,242,165,40,-212,-8,-62,-109,-99,-394
-404,226,87,78,78,-71,-206,-294,-260,-75
-67,140,-4,-14,304,-43,-177,-280,-280,-43
-153,24,-52,-140,374,28,-47,-99,-177,-245
-516,-123,-38,-69,456,95,67,35,-118,-471
-669,-54,69,114,493,180,112,80,-53,-609
-529,28,107,201,297,180,61,-12,-107,-574
-418,-2,15,102,-3,133,70,68,-40,-465
-484,-15,-2,51,-102,82,63,72,32,-340
-702,-63,-24,84,1,-2,-36,-86,-98,-280
-693,-140,-69,23,93,-83,-77,-103,-216,-229
-409,-177,-102,-102,104,-100,-12,22,-132,-163
-131,-135,-97,-175,-76,-57,77,108,-32,-41
-11,-124,-55,-146,-256,24,90,122,23,64
110,-197,-98,-84,-200,80,45,83,74,214
289,-201,-117,-63,-160,73,14,64,74,313
451,-154,-74,-80,-183,53,18,57,0,340
502,-150,-66,-87,-171,7,14,49,19,403
454,-119,-77,-47,-117,-34,-5,45,79,468
412,201,5,-67,-112,-72,-64,3,25,350
249,351,-14,-144,-163,-116,-87,-36,-35,198
586,164,-45,-189,-207,-119,-59,-14,11,480
1327,261,0,-228,-330,-177,-95,-64,28,1092
1443,333,50,-240,-371,-150,-62,-116,-64,1310
1138,205,58,-161,-305,-53,-1,-58,27,1041
560,50,34,-105,-285,34,138,103,111,420
-35,-8,26,-83,-365,136,286,269,186,-331
-429,163,162,97,-306,236,271,236,182,-726
-859,152,141,247,-4,264,126,47,110,-559
-1017,-41,9,251,373,169,-59,-172,-19,-270
-638,-53,35,126,377,1,-125,-128,35,-194
-356,-90,-49,-151,24,0,36,225,265,-440
-377,-293,-229,-101,76,110,136,243,218,-516
-270,-309,-159,202,428,34,-17,-98,-139,-185
-149,-142,16,324,531,-111,-171,-347,-422,22
-154,-132,-57,202,279,-191,-137,-127,-213,1
-161,-159,-181,63,34,-122,0,111,47,-4
-188,45,-12,45,-40,-12,83,110,-8,-145
-284,251,202,61,-47,-26,24,-2,-139,-370
-155,135,151,19,-65,-65,-14,-54,-135,-192
97,-8,46,-42,-81,-53,2,43,14,-84
276,-59,8,-29,-98,-23,50,122,112,-227
477,17,50,6,-65,-10,71,79,30,-149
597,103,49,-25,42,-19,-13,22,-10,136
347,143,6,-8,212,-18,-71,-57,-106,95
-391,13,-124,0,212,-41,-5,-17,-104,-82
-1071,-143,-141,-10,59,-80,21,1,-83,-244
-968,-230,-166,-27,54,-130,-51,-134,-228,-271
-404,-251,-206,-101,6,-211,-111,-186,-250,-19
251,-128,-211,-186,-185,-188,-74,-94,-138,427
947,145,-56,-166,-344,0,67,64,26,894
1507,344,144,17,-141,94,70,61,82,1085
1359,299,137,82,-67,-115,-105,-74,96,743
577,144,117,23,-454,-232,-93,22,311,155
-329,-10,129,157,-476,-16,-4,77,347,-603
-786,-118,120,328,286,253,-7,-72,149,-1012
-889,-214,37,304,950,171,-124,-236,-84,-1117
-952,-194,-9,136,674,-13,-168,-242,-170,-905
-777,-20,45,-48,254,30,-48,-137,-183,-594
-572,-21,16,-179,106,190,83,43,-48,-382
-408,-133,-152,-179,132,162,88,161,71,-173
-208,-219,-243,-120,61,49,21,96,4,-43
197,-76,-33,-46,-93,-40,-95,-71,-135,158
661,107,113,0,-135,-73,-159,-154,-153,509
736,69,26,-9,-50,-68,-90,-46,-48,588
581,-19,-91,-17,76,-48,-45,-12,-32,366
467,-69,-98,-20,161,-6,-30,-72,-77,107
302,-57,-89,-46,156,-20,-73,-194,-96,237
136,38,-35,-119,0,-68,-85,-166,56,786
72,107,11,-229,-174,-107,-23,72,325,1321
23,44,-37,-276,-203,-129,30,213,387,1080
233,42,-3,-178,-123,-101,24,176,331,624
313,162,97,-117,-89,-60,-8,95,257,424
-114,149,117,-138,-38,40,53,50,90,-131
-370,69,84,-136,-58,197,200,177,177,-187
-290,54,141,47,-128,239,255,207,201,-34
-75,-25,125,167,-260,145,211,131,153,-152
185,-198,-10,145,-309,123,181,91,93,-351
342,-254,-36,256,-291,120,166,52,7,-378
184,-264,61,272,-391,100,187,70,20,-336
-88,-152,98,189,-525,68,167,96,77,-377
-315,5,61,134,-426,120,104,44,39,-377
-207,28,92,155,74,147,26,-53,-63,-331
43,47,177,219,519,9,-73,-178,-231,-407
301,191,207,216,277,-90,-175,-280,-236,-337
511,333,111,149,-31,-89,-160,-242,-115,-221
238,232,-54,40,76,8,-46,-73,-38,-257
-209,156,-30,-35,365,58,-8,15,-28,-432
-719,87,57,-19,591,5,-36,-28,-170,-553
-1107,53,76,36,575,-11,-11,-18,-212,-727
-1039,61,60,23,338,12,35,16,-213,-780
-810,4,-79,-38,156,40,64,72,-122,-569
-579,-8,-117,-75,65,57,72,80,-40,-318
-50,105,-17,-124,-70,18,45,64,78,105
340,40,-69,-238,-272,-80,-20,50,114,557
752,-34,-140,-331,-452,-173,-110,33,214,782
1300,-37,-197,-364,-577,-218,-151,6,189,703
1284,-108,-190,-247,-643,-281,-180,-27,138,555
1197,-49,-89,-26,-600,-302,-219,-97,114,596
840,53,44,87,-441,-219,-190,-147,126,608
-377,25,135,152,-136,-25,-51,-96,77,473
-773,52,203,186,88,56,38,-75,-80,493
-314,11,165,142,42,76,115,-22,-229,289
-106,-8,141,159,23,217,160,-4,-352,-192
116,40,164,166,312,295,94,-16,-339,-631
284,49,107,140,742,240,-2,-8,-265,-905
-317,-214,-121,-26,687,102,-28,159,-48,-781
-950,-291,-218,-92,444,58,0,137,-69,-615
-766,-228,-215,-68,327,18,-33,99,-7,-243
-267,-208,-224,-86,146,-42,-61,84,48,324
100,-129,-164,-90,45,-30,-36,72,33,700
589,133,-56,-89,-9,-34,-47,25,43,974
891,304,27,-139,-3,-56,-110,-119,-140,1007
385,150,1,-198,56,-10,-95,-194,-276,338
-459,-105,-129,-182,103,51,9,-107,-260,-596
-742,-121,-155,-92,56,42,60,-25,-145,-851
-675,-65,-23,4,-102,4,39,-47,-115,-691
-274,-73,-30,-39,-151,0,61,-2,1,-462
55,-149,-112,-50,15,-41,25,31,150,-437
-97,-145,-114,130,284,-140,-124,-92,141,-305
-199,-71,-46,41,225,-158,-134,-103,147,340
-282,-72,-60,-214,-18,-2,101,183,407,838
-299,-128,-64,-275,-229,168,339,466,655,832
104,43,40,-74,-318,84,234,371,627,821
563,201,153,292,-316,-140,-59,88,450,525
340,129,206,414,-260,-163,-159,-84,177,-279
-291,52,132,262,-314,-37,-54,-85,-29,-939
-573,97,217,95,-469,-1,21,-90,-154,-936
-392,151,260,65,-412,33,54,-99,-210,-665
-65,73,191,69,-58,246,170,-12,-140,-382
400,-2,113,72,487,323,229,82,-27,114
726,-15,64,84,487,173,100,-8,-81,434
656,-1,59,224,-39,-8,-42,-140,-106,345
279,99,132,303,-496,-77,-14,-29,35,126
-272,260,160,115,-537,68,87,137,31,-274
-594,165,137,52,-32,223,115,118,-185,-503
-356,-7,20,-2,491,121,53,89,-159,-203
-131,-120,-92,-67,354,-84,-48,58,-16,114
271,-12,-57,-56,-11,-116,-138,-20,129,600
670,71,9,-52,-108,-86,-195,-103,156,1068
803,56,-48,-122,-170,-167,-208,-100,149,1187
598,7,-74,-158,-244,-219,-234,-104,91,899
69,-146,-122,-164,-207,-163,-199,-116,33,400
-442,-286,-189,-160,-71,-89,-149,-101,13,39
-406,-211,-187,-138,86,-85,-135,-56,24,-58
-56,-60,-143,-130,261,-123,-176,-86,-75,-186
199,81,-91,-139,405,-167,-264,-205,-222,-405
334,184,-45,-176,355,-141,-215,-209,-230,-375
18,161,-9,-121,232,9,-48,-97,-159,-533
-355,55,-72,-5,160,58,60,-47,-131,-782
-256,-14,-150,-24,-26,37,121,7,-68,-383
-1,-54,-90,-39,-134,141,274,212,43,-89
315,-117,25,33,-74,212,322,286,123,168
296,-270,27,132,141,194,237,172,73,145
110,-236,65,233,354,208,224,152,46,-189
140,-67,102,226,231,180,213,139,-41,-418
103,-53,18,152,72,87,136,65,-154,-197
-185,-43,-12,111,80,19,46,27,-159,211
-323,277,103,64,130,-66,-40,-4,-187,128
-558,275,110,-1,84,-100,-37,64,-103,-65
-927,101,80,-17,-15,-74,-20,108,-51,-311
-979,89,105,13,-29,-41,19,112,-19,-641
-578,101,119,26,-2,9,27,68,4,-394
-76,64,52,-55,-48,-10,-4,57,83,256
236,36,-45,-169,-160,-110,-34,82,182,731
346,-12,-126,-251,-255,-164,-33,57,234,1039
399,-28,-159,-238,-238,-113,18,60,365,1215
410,63,-74,-116,-118,-27,38,-62,269,876
239,74,-15,-69,-50,43,2,-205,-27,197
-62,-124,-117,-95,-18,90,47,-65,-49,-430
-232,-240,-169,-46,92,153,128,85,4,-940
-109,-135,-118,93,219,157,95,-16,-120,-1164
119,-54,-3,268,279,80,-28,-203,-257,-1020
253,-29,89,290,340,39,-72,-248,-173,-441
198,71,175,184,309,29,-66,-140,14,100
0,185,121,34,163,45,-14,101,203,155
-93,202,71,-4,29,76,31,152,137,-200
-68,186,189,14,-64,34,-21,55,-50,-315
-90,-28,115,-17,-137,-28,-42,11,-1,-62
-24,-177,-28,-98,-240,-37,-12,36,147,161
528,-119,-60,-206,-407,-79,-18,32,217,581
1303,231,53,-144,-489,-182,-112,-52,134,957
1400,290,25,-38,-412,-240,-188,-129,-33,845
854,39,-93,-38,-235,-213,-188,-138,-103,555
295,-87,-201,-78,-85,-208,-222,-190,-166,322
-343,-86,-241,-160,-151,-242,-253,-252,-220,-66
-832,20,-132,-185,-247,-189,-240,-272,-229,-334
-672,16,-117,-237,-198,-59,-169,-217,-167,-100
-334,90,2,-319,-60,143,104,8,-11,259
-276,167,168,-302,-13,380,395,303,269,314
-598,-128,64,-3,66,401,378,406,375,50
-829,-320,-5,266,216,259,230,264,220,-527
-658,-179,89,256,84,144,201,166,-46,-802
-426,10,231,336,-138,-27,111,97,-146,-778
-214,135,278,451,-89,16,49,7,-170,-634
-117,100,257,494,270,157,-20,-112,-198,-469
16,88,194,337,581,124,-108,-222,-201,-340
84,96,132,134,345,16,-134,-300,-209,-314
61,-10,14,-47,83,-25,-64,-202,-154,-270
35,-117,-120,-205,-24,-54,66,84,13,-190
107,-104,-133,-260,-240,-90,98,236,144,-17
246,65,5,-150,-378,-64,67,248,177,147
217,121,110,62,-245,26,63,219,121,174
236,140,155,188,-38,57,62,165,78,183
161,0,16,80,85,29,64,195,278,190
120,-77,-71,-6,-61,-9,28,167,348,284
292,-23,-50,-65,-257,-118,-124,-33,37,514
757,-87,-121,-154,-53,-138,-210,-67,97,757
1284,-199,-284,-327,416,22,-83,46,251,1141
1351,-59,-292,-334,774,67,-54,-21,164,1073
760,12,-199,-171,602,-56,-170,-190,-83,518
-382,-190,-129,-62,295,-92,-173,-226,-184,44
-962,-72,-23,26,123,7,-23,-75,-43,-9
-581,112,81,53,8,48,109,84,114,-131
114,178,35,106,11,-23,85,57,120,-346
144,79,-57,174,-28,-93,-17,-15,92,-365
-322,-119,-30,178,-110,-99,-56,-72,-134,-601
-688,-196,-68,83,-152,-40,-31,-70,-176,-810
-603,-196,-82,17,-139,-21,-33,-61,-184,-568
-207,-150,-15,54,-71,3,-43,-22,-103,-82
435,-86,20,67,-62,-31,-90,-65,-111,343
680,-31,81,68,-79,-85,-128,-173,-269,226
479,115,177,101,-58,-93,-182,-327,-410,144
39,105,206,174,26,-7,-185,-398,-375,458
-419,204,219,138,11,-2,-181,-369,-373,386
-880,190,-16,-195,-269,-124,-68,52,-60,-79
-828,-21,-170,-347,-439,-166,49,333,197,-324
-527,-54,-71,-203,-356,-98,89,278,174,-407
-221,-62,-31,-108,-230,9,148,261,116,-441
-116,-28,19,-46,-144,114,236,288,59,-429
-52,52,66,12,-67,167,253,267,-19,-533
-148,-89,-48,26,180,156,150,111,-162,-589
-97,-188,-176,11,475,70,-45,-114,-288,-132
4,-199,-266,-78,558,-69,-174,-219,-78,587
102,-131,-253,-156,288,-96,-155,-172,233,1006
-10,-33,-113,-71,-16,-9,-12,-23,334,462
-128,33,-51,185,24,96,50,59,467,-105
-46,78,71,309,56,120,56,78,485,-137
66,59,120,130,-154,93,91,124,405,2
14,-2,76,-24,-292,67,118,163,380,-121
-254,-140,-5,-34,-240,61,149,137,111,-453
-325,-29,75,9,-89,90,170,71,-164,-569
-183,232,209,59,140,117,159,33,-47,-549
44,426,253,40,186,97,115,63,252,-386
89,252,146,-38,16,71,120,96,202,-269
165,170,108,-113,-80,40,126,106,24,-28
505,359,163,-109,-113,-28,40,-2,-101,202
651,288,106,-65,-147,-87,-21,-119,-229,399
564,177,25,-96,-174,-31,-46,-226,-310,585
580,246,73,-74,-244,57,-22,-321,-326,624
519,197,12,-6,-439,32,68,-15,194,533
293,-77,-207,-50,-491,-99,19,209,494,326
108,-119,-187,87,-267,-99,-158,-63,228,-44
67,-56,-92,157,-53,-87,-235,-159,178,131
61,-121,-101,75,204,-178,-228,-101,254,397
-19,-179,-143,16,261,-155,-150,-84,267,463
-96,-189,-184,9,116,-60,-51,16,440,356
-258,-215,-129,31,70,52,48,92,347,-158
-470,-233,-62,33,186,135,69,104,96,-368
-412,-230,-54,35,360,101,41,103,55,-139
-132,-87,-66,30,307,49,26,41,-143,-59
-68,22,-63,46,163,63,32,-4,-345,-285
-167,55,108,119,158,122,49,3,-440,-416
-145,113,198,123,129,101,65,81,-407,-328
-206,95,168,76,34,51,38,112,-286,-156
-136,-6,57,36,-12,18,-24,1,-301,-35
123,-81,-19,8,-65,-66,-140,-138,-354,22
284,-139,-155,-18,52,-104,-164,-150,-330,-110
282,-104,-100,-17,276,-88,-136,-156,-312,-230
242,-33,5,27,249,-81,-113,-178,-351,-210
20,3,19,34,47,-47,-30,-121,-197,-206
-188,169,121,54,-127,0,5,-25,60,-113
-225,271,183,79,-181,14,19,49,193,69
-177,147,118,65,-178,2,68,89,156,128
131,108,88,55,-155,-18,45,57,72,232
408,62,75,29,-21,-8,7,2,-119,216
289,-3,23,0,150,10,-14,10,-21,-20
-10,-53,-56,-30,83,-9,17,95,173,-100
-155,-88,-147,-30,-62,27,69,165,397,196
-207,-68,-68,1,-57,55,40,98,317,281
-276,-69,-25,-18,45,20,-30,9,177,105
-151,-95,-31,-37,97,-42,-62,-29,39,-155
-35,-97,-8,-9,63,-48,-31,-35,-43,-342
69,-74,25,35,24,0,28,-37,-20,-240
85,-76,54,49,40,37,74,-13,-66,-49
134,-46,48,48,122,45,107,55,-56,158
201,-41,14,34,138,-22,38,12,-188,148
145,-2,53,28,99,-36,-22,-44,-270,-18
119,-20,57,37,88,15,0,-32,-67,-73
141,-146,22,44,106,59,17,29,88,-46
190,-188,-9,-8,96,116,83,112,20,-114
99,-90,-27,-78,29,147,140,158,-37,-99
-1,217,92,-43,77,72,61,57,-23,-104
10,440,144,-36,186,-38,-20,-59,-193,-100
-23,434,117,-90,187,-148,-110,-139,-231,258
232,198,-15,-200,11,-245,-170,-174,-127,976
787,-70,-173,-229,-268,-302,-161,-172,-123,1352
1143,-138,-242,-152,-494,-394,-270,-265,-113,1243
870,-154,-272,-68,-449,-429,-372,-344,-87,588
341,-141,-214,-51,-413,-333,-259,-260,-178,-389
18,71,-48,-87,-589,-171,-31,-51,-64,-592
-266,174,139,-117,-499,-21,101,81,47,-150
-869,1,73,-13,3,153,196,185,186,-173
-1255,-85,130,173,280,224,152,89,221,-524
-1188,2,208,267,126,199,61,-44,100,-511
-835,-33,95,142,-26,139,64,145,204,-463
-596,-213,-75,5,-43,117,140,311,231,-436
-420,-287,-51,4,1,119,179,278,140,-385
-314,-289,-4,57,80,104,131,164,-61,-360
-180,-237,-13,69,196,132,82,84,-32,-281
-34,-161,-38,49,347,160,83,60,22,-255
11,-115,-15,51,395,137,92,46,-23,-440
-14,-31,0,-40,241,47,18,-33,-184,-483
-16,9,-4,-186,124,36,32,-34,-274,-339
-57,74,16,-136,19,81,112,61,-4,-44
-179,129,83,29,-63,38,97,50,-25,165
-123,125,43,51,-179,0,83,57,60,465
156,145,4,-13,-396,-91,46,53,148,795
512,292,26,-41,-551,-232,-88,-4,268,1052
649,247,-21,-55,-428,-275,-200,-61,268,1048
486,91,-94,-73,-121,-259,-298,-225,37,672
248,-59,-142,-201,129,-171,-264,-248,-98,79
262,-86,-177,-313,226,-101,-132,-94,84,74
515,-35,-141,-228,28,-70,-32,12,230,348
302,-83,-60,1,-109,-19,7,45,254,241
-114,-188,-134,-29,-143,-5,25,35,86,402
-203,-207,-124,-146,-127,-23,72,53,-58,459
-26,-17,68,-22,-167,31,125,75,13,104
38,111,187,74,-99,104,132,18,-72,-355
-71,71,173,65,78,157,163,50,-172,-844
-113,-75,100,134,202,145,148,61,-234,-885
-142,-225,75,273,324,42,12,-105,-399,-542
-73,-295,8,207,371,63,33,-145,-437,-439
-58,-336,-139,99,260,126,120,-93,-440,-611
-55,-133,-94,95,58,125,153,-35,-240,-513
75,287,116,18,-136,69,102,-61,-227,-281
121,403,216,158,-84,64,40,-75,-217,-88
32,144,178,300,52,31,-57,0,77,240
262,55,54,147,180,-77,-150,-38,155,676
706,3,-97,18,241,-150,-214,-189,72,1351
1085,25,-202,-168,32,-275,-236,-99,163,1739
910,56,-219,-341,-291,-333,-209,-15,209,1409
229,76,-152,-351,-417,-255,-177,-78,117,534
-328,43,-102,-251,-243,-172,-142,-110,-74,-535
-513,-51,-93,-119,-16,-72,-42,36,31,-1018
-658,-68,-12,-21,105,47,96,185,101,-1215
-695,2,29,89,239,221,232,251,35,-1180
-609,23,74,213,555,409,291,243,90,-1116
-585,-17,51,268,766,340,139,117,109,-1027
-742,-144,-36,171,469,165,2,-9,-15,-836
-651,-137,-85,62,184,122,-12,-2,65,-515
-171,-78,42,67,136,103,-12,24,5,-290
130,-72,55,118,82,86,-5,49,63,-223
306,-57,36,88,-39,65,-3,48,24,-98
438,-3,90,90,-260,27,-19,22,26,83
172,-53,101,134,-382,23,-17,-12,-86,77
44,94,185,161,-345,40,19,-47,-149,-1
231,210,220,150,-243,68,6,-59,-150,171
613,163,86,-39,-169,44,-21,38,-5,610
818,265,-53,-288,-138,-55,-60,98,33,751
659,320,-154,-343,-118,-54,-47,111,142,619
219,119,-182,-273,-122,-78,-26,94,36,165
-150,-186,-124,-103,-170,-146,-51,66,34,-259
-302,-297,-160,-152,-294,-169,-64,63,55,60
30,-165,-204,-257,-427,-209,-89,15,109,843
704,70,-204,-303,-561,-269,-141,-41,339,1393
798,227,-67,-247,-608,-275,-203,-163,134,1144
388,117,-4,-120,-477,-186,-170,-175,11,800
128,0,17,-2,-133,-12,-24,0,120,721
-255,-147,20,49,174,217,160,179,114,713
-1008,-283,27,127,335,352,235,249,113,283
-1328,-250,60,162,367,262,195,208,-55,-290
-1267,-210,48,173,482,173,98,88,-176,-814
-1019,-57,100,191,607,122,18,-4,-16,-1195
-731,109,164,257,631,128,15,-19,197,-1392
-561,124,164,265,591,164,49,-27,85,-1536
-396,88,128,157,449,168,105,2,36,-1319
-330,47,78,161,326,99,59,-122,-122,-1061
-236,-31,12,139,212,-64,-70,-307,-392,-650
-3,-70,-103,74,110,-104,-85,-336,-389,-130
235,-43,-101,-34,-79,-43,26,-213,-155,133
227,20,36,-39,-237,-32,89,-91,-119,36
177,124,168,73,-212,-41,41,-42,-3,-25
231,113,158,122,-110,-9,2,-5,105,-8
195,-72,13,38,9,48,48,42,-9,58
261,-53,-9,9,-12,96,58,48,39,105
284,-1,-30,30,-73,106,47,26,137,90
131,-118,-29,26,-100,82,38,-23,-79,185
-42,-116,-8,-28,-163,26,64,152,146,250
-81,39,18,-47,-179,-18,20,229,457,280
119,-13,-51,-156,-116,-86,-75,132,407,730
495,16,-138,-277,-167,-151,-101,84,317,1024
676,262,-70,-275,-278,-201,-142,0,163,814
533,310,25,-206,-276,-199,-142,-126,-152,433
209,147,78,-151,-136,-125,-76,-153,-426,-17
-104,18,76,-78,96,-16,9,-136,-518,-462
-111,15,61,-46,305,40,49,-115,-492,-402
78,-23,9,14,296,63,78,-44,-408,-429
72,-31,-7,118,158,62,65,-56,-277,-577
-213,-61,-106,24,21,-29,12,-79,-249,-457
-504,-9,-119,9,33,-81,-37,-37,28,-265
-314,144,-7,16,206,-2,-57,5,173,-92
-223,190,74,8,178,140,32,104,251,-94
-468,30,70,82,52,243,108,163,156,-203
-331,-37,24,87,-36,124,19,107,191,71
119,60,7,30,-164,-71,-114,2,264,444
609,129,73,176,-200,-122,-143,-99,124,701
959,43,109,294,-148,-126,-190,-249,-195,798
1029,69,136,226,20,-95,-216,-365,-259,743
849,37,-20,43,-23,-139,-154,-117,145,774
419,-131,-206,-207,-321,-190,-79,238,469,861
-15,-151,-238,-322,-432,-160,-37,260,484,1008
-300,-110,-250,-335,-433,-155,-18,170,267,1090
-423,-80,-173,-178,-312,-118,-39,81,259,700
-523,-251,-183,-82,-112,-39,-4,91,316,120
-188,-297,-201,-50,13,-16,40,64,146,-293
338,-102,-60,-35,-65,-39,68,49,68,-370
739,154,111,-110,-265,-31,53,-27,-122,-281
930,287,115,-151,-312,54,30,-119,-340,-285
662,241,95,-62,-140,89,-11,-158,-515,-413
217,82,151,-18,-128,71,43,-83,-609,-289
-409,-58,193,77,96,283,228,93,-430,-542
-1051,-217,80,229,596,408,280,213,-99,-967
-1197,-121,94,354,810,219,130,133,-65,-862
-821,158,187,303,458,65,14,43,-71,-710
-324,208,176,135,-38,63,47,82,3,-581
-120,107,121,60,-281,90,104,133,109,-399
-328,-15,91,109,-232,158,94,105,145,-289
-406,63,190,236,-47,235,18,-62,34,-142
-228,150,232,202,174,199,-8,-196,-261,-220
-187,9,29,73,329,72,4,-47,-44,-299
-230,-95,-64,17,131,-79,-30,-31,-115,-181
-189,-100,3,14,-204,-123,-19,-76,-283,-119
-182,-146,36,-26,-344,-98,3,-96,-250,-73
-69,-181,-1,-68,-253,-29,-8,-41,44,227
209,0,9,-96,-127,-12,-8,102,328,482
321,179,62,-160,-223,-91,-22,196,393,499
156,104,10,-149,-178,-88,-86,40,101,317
-5,-102,-95,13,357,27,-125,-106,-109,138
-109,-142,-95,96,723,-11,-181,-176,-119,-1
-158,-226,-142,48,615,-95,-168,-164,-132,-64
-41,-290,-188,38,451,-84,-102,-79,-13,-165
-4,-311,-162,73,360,-38,-27,-27,-67,-451
132,-304,-156,51,259,54,86,72,-50,-565
239,-474,-147,18,94,51,104,84,-132,-343
473,-268,-95,-6,8,2,25,52,-94,-67
357,4,-8,-54,-35,-45,2,71,-85,-56
-65,88,-5,-131,-100,-50,17,98,6,-59
-488,28,-25,-104,-60,1,56,101,29,-134
-491,296,147,3,-31,-46,-10,-1,-197,-334
-301,399,193,-1,-83,-79,-19,-23,-102,-375
-70,291,125,-75,-167,-81,10,12,-26,-157
485,189,65,-86,-206,-77,27,28,95,116
663,91,13,-86,-182,-77,24,12,103,291
420,6,-29,-47,-150,-111,-25,-42,5,345
244,-75,-93,-42,-198,-153,-85,-60,-9,503
175,-46,-82,-134,-240,-102,-82,-62,-31,596
77,50,-19,-156,-230,-82,-89,-111,-23,716
153,116,60,-80,-215,-48,-102,-153,-2,1010
198,96,-5,-123,-309,-69,-45,-1,136,1170
332,267,-49,-106,-308,-149,-122,-46,212,1112
299,334,-38,-66,-248,-152,-191,-113,305,839
39,52,-174,-198,-345,-182,-89,107,403,429
-135,-122,-178,-234,-305,-172,-25,155,184,-98
-269,-173,-90,-91,18,-46,0,78,-34,-589
-164,-129,18,149,353,32,-14,-24,-179,-638
-166,-162,20,347,582,-31,-103,-199,-385,-463
-237,-218,-53,292,408,-117,-117,-209,-358,-181
-207,-252,-119,121,168,-35,-13,-95,-213,-34
-236,-203,-148,18,101,33,13,-112,-236,-15
136,89,2,71,86,156,75,-77,-6,361
529,331,147,110,145,180,110,-64,159,718
291,310,228,85,52,95,104,-103,-119,333
103,301,217,85,-280,44,103,-42,-174,-101
-19,254,132,17,-460,27,130,158,69,-496
-393,178,173,84,-212,77,89,48,-80,-1142
-742,-114,6,81,197,131,11,-63,14,-1165
-712,-304,-202,-60,452,104,38,65,226,-642
-451,-153,-204,-158,449,127,146,132,215,-361
-287,15,-58,-165,169,238,280,185,189,-442
-161,115,-17,-76,-42,263,302,158,192,-587
290,226,9,-11,-117,166,228,76,131,-429
705,325,153,21,-191,67,189,92,141,-68
588,137,120,21,-320,-56,117,242,409,241
308,-58,8,48,-346,-107,-17,205,385,409
214,-33,22,20,-344,-106,-84,72,72,690
122,74,85,-72,-318,-91,-80,89,161,946
261,83,83,-148,-237,-35,-17,113,159,933
422,-10,23,-199,-206,51,51,107,75,651
418,-53,-73,-226,-101,101,105,149,158,564
187,-39,-71,-85,120,99,80,104,71,141
-241,-192,-21,185,365,63,-1,-22,-268,-528
-485,-246,14,348,440,52,-92,-99,-238,-859
-461,-188,14,206,256,34,-103,-133,-387,-1150
-173,-123,-2,98,185,1,-65,-194,-549,-1058
-5,-16,40,170,275,31,-42,-214,-384,-850
-180,-237,-46,154,182,95,36,-119,-256,-516
-315,-294,-30,138,66,119,74,-78,-162,-112
-359,107,131,156,11,71,32,-53,-5,108
-575,254,152,66,34,46,38,130,212,-144
-653,119,116,21,215,12,-19,60,-102,-490
-495,-20,4,2,448,23,-89,-66,-273,-385
-160,27,-101,-43,418,-17,-132,-67,-1,25
365,195,-130,-115,231,-103,-176,-103,168,464
653,223,-130,-193,165,-205,-250,-260,-56,508
631,73,-148,-216,117,-206,-230,-323,-101,539
708,-22,-158,-251,-91,-164,-121,-251,-171,833
1035,143,-24,-138,-245,-119,-48,-179,-151,1048
1159,197,32,-8,-196,-62,-10,-147,-120,1097
787,-7,-24,102,-118,-99,-25,-121,-189,706
289,-149,-51,189,-143,-144,-56,-70,-200,245
82,-113,-34,43,-258,-145,-35,52,-36,95
-124,-61,35,-111,-188,-77,41,123,7,-391
-403,-130,45,-68,15,-11,98,107,-18,-431
-219,-154,18,-25,10,-15,74,58,-13,60
-19,-149,2,2,-76,-52,11,-29,-81,198
93,-202,-58,0,-95,-67,-30,-65,-70,279
-50,-391,-195,-80,-93,-10,12,52,129,159
-344,-350,-189,-83,-55,116,135,187,238,-283
-183,123,31,-15,-14,135,137,142,79,-629
-437,312,119,2,-5,74,78,49,-52,-762
-969,153,-14,-23,-31,32,54,38,-6,-601
-1212,-14,-78,-29,9,86,109,66,18,-529
-675,39,67,-4,-11,111,85,34,-51,-243
-118,28,129,35,-77,83,53,8,-67,64
9,-105,28,22,-36,46,36,-1,-111,-14
-8,-176,-53,44,40,0,5,-50,-194,-154
238,-69,-32,-43,-76,-94,-39,-92,-182,74
319,132,45,-137,-321,-83,-16,-39,-85,171
37,142,90,-97,-381,69,67,24,-25,-66
-140,49,53,-53,-208,150,74,-34,-97,-258
11,1,-6,-24,-127,89,25,-67,-107,-262
255,100,99,-61,-334,-27,1,-85,-44,-158
218,87,82,-71,-535,-94,-1,82,290,129
-135,-157,-102,-58,-492,-105,-65,207,430,531
-356,-159,-96,17,3,-25,-116,92,308,774
-35,-49,-70,-26,289,-29,-126,-1,276,894
250,-26,-194,-141,125,-67,-76,-10,297,797
439,89,-131,-202,35,-47,-42,3,216,546
478,141,18,-149,108,-38,-25,63,60,167
218,92,113,65,132,-148,-101,17,-222,-275
-321,-27,94,204,150,-118,-129,-60,-315,-707
-533,-110,-27,149,142,43,-64,-50,-175,-530
-271,-100,7,58,101,74,-3,-4,-73,-169
33,-126,-22,47,278,12,-11,26,-76,-78
399,-26,-8,128,441,-58,-89,-85,-172,18
441,24,64,147,417,-8,-30,-75,-182,-208
195,-146,6,65,245,56,74,24,-39,-339
128,-219,-35,-13,75,68,92,63,59,-64
149,23,103,100,6,22,82,41,73,-79
297,242,207,206,-2,15,59,24,129,-75
455,271,180,135,-18,75,31,27,240,-10
261,256,118,37,-70,62,29,43,238,52
-71,203,58,19,-8,35,53,70,128,14
-442,109,149,91,57,30,52,27,-48,-363
-842,-115,78,91,-52,12,52,52,-105,-714
-813,-232,-10,34,-164,-24,42,127,38,-471
-439,-136,3,37,-1,32,4,91,160,20
10,26,51,130,471,93,-86,-2,197,445
441,14,-75,23,594,-14,-137,-44,49,869
596,-91,-163,-129,160,-120,-121,-50,0,979
470,-127,-139,-178,-125,-180,-135,-63,-47,753
425,16,-141,-206,-150,-147,-78,-2,-43,363
377,81,-136,-218,-112,-85,-26,29,13,146
228,123,-48,-177,-86,-38,8,48,90,-104
153,87,49,-122,-76,0,20,38,24,-351
7,18,17,-173,-117,32,69,66,2,-269
-90,13,-28,-180,-143,9,67,76,94,38
-76,95,55,54,-56,-65,-72,-112,47,137
-324,44,127,284,50,-160,-251,-439,-309,53
-647,-58,73,216,32,-127,-270,-486,-446,-4
-913,-301,-147,-34,-103,-17,-19,-3,-83,-412
-860,-321,-168,-64,-103,95,160,220,12,-813
-509,-135,-11,53,-18,148,143,117,-176,-771
-79,1,58,101,-18,100,76,88,-95,-428
255,148,125,92,-45,52,39,116,10,-193
444,188,124,38,-62,19,23,100,36,-34
314,59,45,-5,14,71,83,116,106,16
-8,-4,23,-6,217,135,130,147,151,-91
-370,-106,-37,-8,304,129,115,128,114,-193
-475,-278,-188,-29,121,36,22,23,75,-2
-25,-217,-192,-39,-44,-53,-30,-47,59,280
600,44,-65,0,-118,-105,-90,-101,-6,439
1008,159,22,-7,-223,-106,-100,-78,16,608
1057,236,33,-142,-496,-127,-80,-43,46,624
473,200,-22,-231,-722,-161,-55,9,100,546
-216,112,-72,-196,-679,-117,14,92,230,476
-343,147,2,-93,-428,15,115,185,358,311
-216,105,48,5,-294,116,179,245,426,37
24,73,135,79,-323,143,214,223,403,-84
13,22,127,100,-194,147,175,133,266,20
-56,-86,38,139,222,158,100,71,217,270
127,70,-41,136,485,57,-7,17,151,413
234,204,-14,36,348,-45,-85,-48,83,453
-43,95,38,53,362,-25,-119,-157,-82,167
-360,-84,-33,148,725,0,-195,-308,-310,-196
-551,-126,-45,205,1126,-44,-274,-394,-452,-628
-588,-104,-17,144,1013,-62,-213,-337,-477,-943
-474,-110,-39,-6,329,6,-46,-148,-261,-657
-366,-102,-46,-73,-34,72,63,4,-84,-327
-172,-76,-22,-32,-103,44,39,-7,-103,-123
176,-24,48,21,-150,-23,-42,-60,-142,13
387,52,24,0,-53,-28,-54,-111,-142,62
317,31,19,9,43,19,14,-58,-44,129
292,-155,12,-4,31,71,122,52,-1,315
125,-283,-111,23,41,142,187,158,26,50
-76,-147,-76,27,24,152,179,186,39,-253
11,126,31,22,7,69,65,61,24,-212
43,166,2,66,57,43,9,-33,41,-212
-20,180,88,89,83,50,30,-86,-135,-399
-83,34,9,-3,0,33,109,61,-54,-350
-58,-78,-85,-71,-115,12,140,163,94,11
43,-25,-98,-106,-225,-21,85,97,132,442
212,126,-59,-160,-387,-138,-36,0,137,774
393,103,-80,-183,-414,-208,-149,-101,70,814
647,23,-141,-218,-320,-189,-206,-185,-39,684
658,3,-100,-184,-178,-170,-150,-138,-55,134
407,-22,-4,-113,58,-57,16,54,31,-487
137,46,112,0,282,75,77,53,-39,-594
72,115,198,47,205,85,9,-160,-247,-468
-260,-16,139,97,122,23,-97,-236,-290,-698
-555,-155,20,139,27,-1,-56,-14,-14,-640
-375,-37,25,211,-59,40,19,36,91,-97
51,36,200,320,-3,94,41,-91,-111,-22
77,-155,158,350,114,156,61,-77,-133,-248
132,-198,-6,226,92,166,64,53,122,-95
410,75,6,86,24,165,53,-31,-19,187
58,64,-14,-7,-41,160,81,-78,-59,191
-635,-30,-115,-95,-70,168,178,58,96,-33
-1058,-142,-322,-260,-145,86,215,254,268,-219
-1048,-75,-239,-265,-109,-11,126,170,120,-440
-515,153,5,-190,-14,-44,20,34,-3,-339
-102,164,11,-151,-45,-41,21,73,136,163
170,87,0,-101,-159,-57,45,114,215,556
354,133,2,-52,-261,-113,28,130,229,735
436,235,91,3,-355,-147,26,167,280,746
412,250,232,70,-409,-107,61,166,179,297
577,174,224,135,-434,-98,101,168,151,-82
623,40,123,102,-434,-68,63,115,147,315
361,-94,-20,-14,-122,-22,-34,21,62,784
-145,-197,-175,-35,77,-69,-143,-47,56,1059
-407,-148,-131,-17,-212,-186,-228,-94,73,1060
-310,-43,-59,-31,-395,-156,-241,-89,62,671
-228,-115,-124,-71,-196,69,-168,-6,143,283
-435,-266,-138,-42,308,308,-78,-14,45,-515
-708,-373,-129,8,674,448,44,-57,-216,-1240
-595,-219,-88,32,552,410,109,-32,-37,-982
-281,-19,-79,23,185,276,85,19,349,-158
102,98,-1,51,18,151,4,-100,250,247
402,260,124,17,-13,-19,-71,-188,-53,127
363,188,59,-101,-162,-181,-105,-125,19,-5
203,43,-31,-129,-305,-194,-101,-143,153,-58
152,11,-19,-44,-207,-146,-66,-224,43,-292
113,119,102,82,93,-67,21,-133,13,-595
101,173,123,168,331,-14,123,156,257,-835
77,56,38,147,435,-33,90,157,268,-728
-103,-14,-75,91,511,-33,52,87,192,-552
-149,-57,-47,113,640,-39,17,74,130,-438
-285,-207,-69,140,644,-17,2,61,113,-383
-129,-147,-59,135,418,-56,-44,37,159,-187
363,286,96,107,126,-175,-140,-75,23,19
427,434,275,55,-82,-189,-122,-122,-149,37
97,295,292,27,-195,-47,43,102,171,49
-258,225,209,29,-160,8,106,207,335,96
-430,91,143,138,-15,-65,-39,51,148,208
-226,-67,93,184,15,-71,-85,3,83,205
98,-126,19,88,-27,-63,-84,-13,108,287
347,-64,11,7,-131,-55,-77,0,103,368
678,120,149,53,-246,-18,-27,69,131,218
726,279,191,88,-258,20,8,90,164,-13
336,118,78,38,-276,40,51,133,133,-61
24,-74,1,-25,-279,67,79,123,41,-15
241,-39,-40,-137,-212,28,31,78,-142,282
592,263,48,-156,-93,-12,19,25,-286,632
508,294,102,-126,-86,-10,4,-27,-340,719
64,-3,31,-97,-24,2,-9,-60,-416,388
-374,-130,-29,-62,113,18,-34,-83,-456,-128
-834,-200,-63,-44,177,-55,-125,-138,-481,-396
-1184,-394,-158,-91,136,-45,-65,-90,-353,-210
-865,-292,-179,-185,18,55,59,40,-3,270
-309,-77,-129,-265,-124,12,51,34,-30,463
83,23,-72,-161,-151,-71,-71,-69,-46,441
184,13,-149,-61,-165,-123,-132,-80,-11,435
38,-53,-178,-46,-259,-86,-28,18,81,198
-69,-81,-39,4,-361,-39,13,79,163,23
70,47,116,87,-382,-12,-3,51,211,84
245,150,216,127,-397,37,37,18,141,-81
325,77,170,138,-269,57,27,-42,25,-96
286,-40,43,46,71,91,-7,-36,-114,-4
293,-7,38,20,303,93,-27,-56,-246,-39
108,-56,-29,48,405,80,-4,-74,-278,-232
-280,-201,-194,46,344,89,31,-94,-364,-582
-333,-224,-228,10,271,96,-1,-238,-552,-623
-191,-248,-204,-64,396,65,-65,-234,-534,-350
73,-203,-70,-74,447,35,-77,-115,-392,-24
471,-45,80,11,326,21,-105,-216,-540,-65
719,-33,61,-42,187,15,-95,-249,-569,-81
673,-129,-75,-235,-52,60,95,137,-16,71
411,-2,-37,-163,-8,133,138,247,241,68
-215,63,-4,47,237,35,0,30,83,-66
-358,157,10,-3,195,-220,-171,-202,-197,39
-318,110,6,-232,-174,-304,-76,-44,-138,97
-448,-18,-85,-324,-481,-172,125,235,239,35
-404,-68,-149,-265,-482,-101,169,275,249,148
-282,-18,1,12,-341,-74,77,141,95,64
-255,-27,49,223,-174,-67,11,69,88,-190
-199,-97,-16,203,-10,-49,-28,41,61,-150
-45,-75,-22,113,90,-37,-89,-35,-80,-39
13,-36,-11,37,134,-29,-123,-69,-151,-2
-277,-37,34,43,410,31,-75,-45,-183,-355
-517,4,130,119,535,114,31,-4,-174,-856
-305,25,142,202,354,137,79,16,-75,-671
130,-55,32,201,168,69,5,-11,-44,-306
189,-224,-103,136,186,-6,-75,-64,-112,-236
249,-248,-107,90,225,-82,-140,-129,-137,-139
351,-227,-121,-19,63,-74,-85,-87,-97,-12
194,-154,-123,-213,-284,-8,75,77,63,113
-34,108,52,-182,-405,57,158,182,202,156
-231,214,213,79,-274,41,76,100,68,-16
-469,111,210,198,-180,27,0,-6,-118,-183
-359,24,157,94,-184,54,30,1,-104,-45
-184,-79,14,-18,-173,85,46,18,-99,63
-14,-48,10,-10,-85,40,-34,-64,-135,32
149,15,5,1,105,30,-57,-74,-116,143
147,-15,-54,-62,193,60,12,24,44,353
182,43,3,-35,133,100,74,54,139,319
604,231,106,16,30,78,50,-50,51,222
800,180,36,-60,-74,52,105,72,136,-98
709,164,-98,-149,-171,-17,123,205,285,-246
648,198,-84,-128,-169,-100,-3,35,188,87
325,157,-28,-74,-121,-163,-172,-182,53,432
-153,89,38,-37,-99,-180,-305,-335,19,633
-377,23,42,-35,-77,-135,-232,-299,18,719
-343,-21,-34,-104,-100,-62,-52,-25,133,474
-478,-133,-104,-139,-70,53,157,299,355,-2
-551,-228,-94,-55,26,126,218,306,366,-151
-422,-76,6,10,12,87,132,137,158,-209
-350,60,77,37,-32,61,65,17,-49,-346
-224,65,27,-12,-70,103,126,48,5,-291
-123,11,-12,-68,-108,141,155,116,98,-23
76,64,11,-116,-212,84,85,82,86,162
308,55,-2,-187,-317,72,73,70,31,159
414,33,9,-183,-348,116,87,49,-62,-17
429,-6,12,-16,-132,81,50,32,-124,-172
363,31,62,256,209,-10,-12,-27,-144,-186
58,196,159,401,244,-81,-67,-55,-80,-309
-348,169,142,323,-6,-95,-100,-41,-20,-270
-508,-29,3,142,-14,15,-82,-44,-27,-15
-262,-38,-58,41,264,-24,-171,-132,-84,158
61,68,-20,5,442,-140,-240,-146,-50,162
142,-11,-106,-54,160,-101,-130,-33,34,5
120,-57,-59,-80,-73,-2,-8,25,53,-27
104,-65,-42,-94,108,22,-4,-33,-33,-121
98,-76,-107,-112,427,-35,-42,-86,-50,-106
77,-87,-170,-89,415,-68,-16,-46,14,220
124,-50,-94,-16,109,-85,15,-6,75,736
241,33,-122,21,-146,-69,33,-10,69,933
371,8,-114,42,-190,-119,-42,-81,-5,682
427,-47,-47,64,-152,-122,-96,-153,-79,160
454,26,47,62,33,-8,-27,-89,-75,-313
335,106,85,105,272,96,55,-4,-59,-758
-218,-103,31,95,334,158,88,61,-81,-1103
-1007,-331,-109,-23,125,131,80,83,-34,-950
-1358,-357,-122,-160,-166,71,99,105,84,-693
-849,-209,-62,-229,-317,76,155,167,194,-217
-144,137,112,-74,-288,53,130,119,168,252
54,271,249,149,-135,-31,30,-20,0,384
49,209,167,245,-40,-86,-44,-95,-79,394
76,179,-8,181,-45,-57,-84,-141,-119,233
214,256,53,102,-77,17,-44,-85,-5,-49
204,200,136,91,108,115,20,18,84,-477
-41,-173,-46,67,395,94,26,40,-93,-618
-341,-580,-286,92,474,78,-4,-8,-253,-500
-559,-784,-438,-51,383,126,0,4,-297,-290
-524,-491,-320,-219,170,120,33,98,-204,-88
-414,-68,-71,-187,-117,55,12,112,-154,-17
-242,144,40,-117,-287,19,-43,42,-198,9
82,198,-43,-110,-356,-12,-61,-37,-264,115
464,203,-99,-309,-542,-153,-68,83,-69,409
763,141,-81,-394,-604,-298,-89,217,152,590
1007,103,-26,-259,-400,-335,-159,48,103,606
928,35,35,-141,-225,-261,-175,-66,73,565
521,31,73,-70,-117,-85,-21,27,126,446
107,159,173,64,50,41,106,151,198,109
-128,211,248,163,151,16,119,171,310,20
48,293,236,197,110,-57,50,49,350,154
422,238,156,155,-46,-64,19,-3,485,521
648,135,117,147,-59,1,2,-37,485,711
561,139,150,143,-10,68,-10,-128,260,460
60,19,73,126,109,34,-14,-78,184,94
-123,-95,-56,86,218,-90,-90,-91,96,192
-159,-13,-21,95,214,-138,-129,-173,-10,444
-454,76,90,130,97,-30,11,-67,-1,49
-735,-92,118,135,24,110,224,136,0,-667
-456,-163,82,150,-33,158,296,186,73,-660
145,-69,61,94,-185,93,225,59,4,-389
456,19,80,63,-314,42,181,-19,-50,-215
474,71,103,4,-401,121,262,106,57,142
323,258,142,-46,-471,156,309,213,126,333
-15,336,124,-114,-361,135,240,165,70,109
-504,129,16,-192,136,121,107,56,-35,-141
-761,-121,-95,-126,767,93,-8,-32,-89,-333
-587,-167,-144,-18,817,4,-118,-148,-189,-373
-358,-148,-113,27,625,-48,-148,-184,-288,-263
-298,-150,-56,12,349,-63,-121,-141,-211,-71
-184,-58,-10,30,67,-106,-112,-140,-149,42
55,38,11,-4,-103,-77,-85,-107,-71,215
17,-39,7,85,-82,-6,-75,-77,5,155
-189,-175,-19,226,36,48,-63,-115,-45,-136
-295,-288,-75,156,11,59,-2,-109,-160,-264
-304,-202,-59,101,34,98,26,-134,-193,-337
-175,-72,-53,75,198,90,-51,-123,-181,-441
-134,-241,-229,-67,267,13,-25,153,61,-370
252,-187,-227,-108,215,-22,-7,178,69,-94
761,94,-60,-57,109,-76,-28,31,-45,88
887,215,40,-23,-9,-146,-71,-45,-32,236
561,177,-15,-26,-62,-105,-98,-43,12,85
-89,143,-93,-17,-54,-17,-40,-7,-38,-342
-485,80,-41,49,25,88,36,30,-31,-428
-524,-82,-39,53,87,90,11,45,1,-217
-564,-239,-84,30,113,70,26,90,-12,-82
-368,-332,-105,22,92,81,96,123,26,338
412,-30,-54,-81,-73,10,46,49,5,841
727,178,-67,-225,-178,-185,-133,-115,-108,900
519,2,-168,-322,-266,-278,-185,-141,-103,770
139,-172,-219,-335,-446,-190,-1,42,68,418
-440,-85,-147,-172,-392,-78,85,89,-29,-549
-726,47,-11,62,-134,-118,-64,-137,-319,-1075
-465,28,92,144,-38,-194,-169,-260,-397,-684
-185,-2,8,33,-103,-136,-67,-115,-233,-125
-176,-29,-24,-141,-207,74,181,232,101,126
-251,-19,71,-84,-126,243,275,320,159,-164
-304,6,177,216,174,246,178,183,45,-526
-84,70,216,241,271,69,34,79,68,-313
189,38,166,79,38,-54,-48,76,203,88
352,-38,98,23,-179,-16,-34,122,352,358
538,-7,130,83,-158,77,-55,-16,295,571
710,9,150,125,-51,115,-136,-232,101,763
734,-199,-37,-24,-99,55,-73,-67,251,785
704,-193,-130,-104,-88,10,14,109,318,558
577,253,87,-12,55,95,67,50,193,154
162,425,177,29,189,221,146,92,117,-400
-472,194,101,7,351,200,160,108,14,-803
-925,98,51,-49,348,73,51,-33,-180,-820
-992,45,98,14,269,8,-15,-122,-288,-680
-444,20,94,93,252,-14,-23,-122,-233,-332
486,78,33,77,122,-54,-34,-80,-116,321
1122,144,53,0,-107,-142,-62,-55,44,1017
1214,175,64,-113,-319,-233,-140,-57,225,1412
995,217,97,-163,-405,-206,-154,-16,305,1373
615,324,171,-91,-382,-181,-141,-42,198,1046
-94,172,137,-82,-328,-167,-89,-4,125,310
-505,-49,9,-70,-225,-147,-4,147,129,-443
-363,-51,23,128,-183,-147,3,146,63,-762
-292,-82,67,297,-202,-108,-30,39,-67,-804
-123,-32,24,201,-248,-44,15,30,-130,-635
-188,68,-43,73,-269,-2,32,28,-153,-435
-687,-77,-173,112,-15,40,0,-14,-230,-457
-752,-312,-177,92,213,64,27,58,-115,-203
-388,-312,-124,52,193,85,57,108,4,121
-339,-317,-84,75,375,135,37,40,-90,-10
-241,-189,-42,53,459,95,13,-36,-156,-69
50,150,99,22,139,-8,-26,-68,-118,-92
202,274,185,39,-38,-48,-94,-135,-145,-160
94,148,118,51,54,-22,-95,-131,-142,-351
18,-15,-80,19,217,18,-23,-24,-57,-569
-130,-134,-167,-48,370,46,27,57,10,-462
-479,-210,-281,-109,350,62,-3,42,0,-254
-599,-146,-296,-138,251,37,-34,-7,-7,89
-407,36,-68,-156,141,5,-21,-34,25,228
-16,136,-13,-172,-30,75,8,-40,55,350
297,76,-54,-179,-197,162,83,-61,22,446
402,96,17,-173,-390,49,61,-148,-103,116
195,94,60,-159,-494,-77,52,-59,-67,-176
-113,-48,25,-79,-353,-65,57,112,150,-75
-308,-58,82,100,1,-17,-26,47,180,165
-138,5,72,87,240,-64,-80,-62,29,382
-7,-111,-85,-46,266,-60,-7,53,54,376
52,-143,-175,-85,269,-68,24,183,185,466
364,138,-60,-30,215,-167,-101,32,191,729
302,116,7,45,14,-197,-112,-52,-81,388
-23,-123,-4,130,-88,-106,6,22,-164,-371
-106,-142,10,170,-91,7,119,94,-175,-832
82,3,68,190,-131,52,130,63,-224,-915
380,139,76,121,-312,49,111,69,-76,-551
649,261,166,81,-375,42,39,17,80,15
475,138,94,69,-137,142,-27,-110,75,191
-168,-147,-46,14,210,261,-20,-134,-5,-92
-700,-332,-125,-98,287,231,46,100,116,-313
-645,-357,-129,-98,326,126,-7,122,110,-259
-358,-223,-104,12,408,13,-124,-64,-84,-143
-145,-21,-19,51,274,-40,-192,-147,-164,45
207,131,-60,-75,45,-17,-142,-60,25,454
463,206,-74,-187,-66,-35,-84,11,175,655
298,34,-41,-176,21,-143,-90,5,195,655
300,-11,-19,-157,-10,-238,-120,-34,187,714
254,47,-12,-92,-183,-179,-72,-23,182,491
60,10,82,-35,-180,-27,36,44,127,10
-68,-48,119,34,38,95,108,77,62,-332
-112,75,212,125,128,139,178,143,25,-502
-44,317,321,137,31,59,153,145,-15,-469
-253,169,217,63,-64,0,87,99,-98,-498
-193,-58,-2,-22,-97,74,129,202,-16,-453
200,8,21,68,-105,119,83,125,27,-402
146,78,124,95,-158,130,52,-3,-150,-454
-24,84,111,80,-150,196,78,-65,-312,-447
-62,154,106,93,-196,157,32,-178,-347,-69
-68,197,133,71,-253,17,-49,-276,-306,491
16,89,-58,-96,-335,-145,-46,-103,0,736
483,7,-209,-196,-243,-189,-25,12,176,665
746,-20,-142,-149,126,-111,-7,-38,136,668
805,-52,-147,-140,371,-128,-57,-93,88,964
658,-14,-114,-148,196,-238,-181,-203,10,937
154,-61,-71,-112,10,-277,-244,-263,-85,693
-231,-39,0,-21,10,-191,-177,-215,-89,638
-131,162,150,65,32,-106,-121,-165,-83,513
122,356,227,51,-32,-62,-53,-42,-38,88
-113,123,41,-26,-109,7,136,223,155,-476
-329,-92,-94,-49,-117,47,172,260,204,-635
-371,-79,-52,-57,-56,111,167,208,141,-758
-440,-97,-35,-107,-15,255,251,245,115,-860
-171,-5,51,-71,-101,314,288,249,149,-643
254,7,80,-48,-188,233,204,158,171,-189
439,-137,-88,-151,-48,88,20,4,110,28
513,-44,-131,-105,338,36,-26,-15,135,25
519,209,127,85,320,25,19,-13,57,-49
114,140,156,156,-73,32,97,30,-14,-233
-394,-155,8,189,-164,37,85,18,-101,-446
-472,-259,-25,284,203,15,1,-61,-119,-239
-429,-167,-25,288,555,-34,-87,-116,-76,-30
-575,-62,20,206,442,-113,-145,-171,-143,-112
-897,-32,51,142,144,-65,-73,-122,-162,-404
-902,-54,26,86,-30,-10,8,-15,-30,-402
-545,12,43,90,-49,19,26,-30,69,-230
-167,66,84,88,-59,-15,-6,-111,-87,-21
-17,28,27,40,-94,-20,13,-46,-18,156
-36,-125,-94,-54,-158,3,73,80,114,270
121,-141,-144,-117,-200,14,23,56,107,386
185,-73,-126,-115,-89,37,-43,-46,14,106
150,4,-46,-82,56,21,-51,-65,-21,-140
129,9,1,-98,60,15,3,-10,14,33
71,-74,-45,-159,6,59,68,77,111,455
138,-100,-117,-172,73,63,27,43,93,734
249,-72,-157,-122,127,13,-37,-11,9,539
259,-55,-63,-3,27,-40,-55,-50,-112,180
83,-131,-30,133,15,-31,-79,-78,-202,-292
-227,-200,-66,217,135,51,-46,-85,-323,-928
-223,-95,3,213,240,142,43,-9,-282,-1061
62,25,90,219,294,119,57,47,-155,-721
249,82,41,104,108,-20,-4,14,-76,-335
250,58,-71,-1,-187,-88,-40,-19,-15,66
