90,313,162,27,-136,-97,-35,65,60,-155
204,397,192,-58,-323,-215,-56,70,151,7
265,327,125,-147,-478,-278,-28,131,244,101
500,272,50,-206,-569,-300,-11,190,362,223
729,167,-85,-269,-614,-312,0,236,514,523
811,134,-125,-285,-566,-260,-50,217,565,835
686,150,-107,-226,-316,-97,-50,180,511,962
358,-5,-144,-194,-21,27,12,170,494,900
85,-95,-116,-151,129,21,55,129,373,768
-44,-41,-7,-64,114,-17,25,29,56,317
-170,123,127,27,38,-23,7,-39,-168,-282
-364,219,200,97,-3,31,48,-16,-197,-587
-531,126,177,134,-8,92,108,43,-125,-544
-454,115,153,131,-19,79,79,17,-84,-334
-119,295,155,95,-20,45,4,-31,-37,-228
91,340,94,12,36,29,-54,-20,35,-199
119,95,3,-57,129,17,-75,-26,107,-190
104,-105,-77,-84,189,-5,-59,-41,180,-180
11,-219,-217,-79,139,-30,-41,-17,293,17
-87,-261,-269,-64,69,-29,-71,-16,316,317
16,-168,-142,-16,62,-5,-88,-43,157,396
257,-90,14,82,131,65,-45,-77,-6,-23
520,-124,68,138,184,115,-17,-98,-75,-321
659,-87,49,67,143,107,-7,-75,-9,-90
613,93,92,46,101,101,-7,-80,9,-12
160,93,52,40,90,122,-5,-78,33,-107
-296,108,57,16,71,111,-20,-64,22,-171
-458,269,112,15,50,89,-33,-85,7,-214
-740,223,104,-27,11,54,-40,-82,-11,-204
-769,210,71,-57,-32,17,-62,-79,-4,-139
-626,102,-2,-77,-48,12,-46,-67,33,-95
-571,-40,-18,-74,-52,4,-28,-84,25,-130
-451,-118,-20,-49,-44,12,-12,-88,20,-207
-265,-84,-44,-12,-29,19,4,-46,76,-115
-5,6,-83,14,-27,-10,-22,-46,175,176
155,50,-18,16,-31,-37,-78,-75,216,350
277,-26,-10,-18,-61,-51,-101,-50,253,400
350,-174,-69,-58,-81,-49,-75,-14,307,448
163,-334,-75,-14,-34,0,-23,-9,213,427
97,-289,4,95,58,60,5,-82,-66,272
363,-20,109,175,119,104,26,-166,-302,79
394,238,110,141,80,68,24,-97,-300,-115
49,219,57,47,-12,11,38,60,-98,-261
-191,172,86,27,-22,12,70,84,-49,-216
-276,242,57,5,-30,-11,20,43,-123,-163
-315,225,61,-49,-86,-71,-21,29,-158,-201
-376,29,39,-64,-96,-70,-15,47,-162,-217
-155,-63,-22,-53,-68,-24,34,62,-139,-119
143,51,-18,-46,-70,-1,56,44,-97,-21
201,123,16,-35,-65,26,47,32,-50,171
155,130,10,-59,-66,36,9,23,29,489
-99,8,-94,-128,-107,21,12,48,123,714
-354,-171,-205,-214,-146,31,37,64,243,785
-386,-144,-157,-205,-122,43,11,56,205,618
-333,105,11,-109,-82,24,-26,18,34,9
-333,145,69,-45,-27,30,-12,-19,-149,-620
-228,-17,27,-25,14,45,3,-31,-207,-787
-207,-99,26,24,66,63,19,-30,-176,-723
-209,-75,44,81,101,-1,-19,-72,-114,-432
-96,-14,51,87,89,-118,-113,-119,-111,-184
-102,-73,13,59,54,-156,-139,-85,65,-46
-142,-124,-17,37,47,-123,-64,-13,155,29
-142,-26,-112,2,15,-58,22,70,109,-29
-223,2,-179,-11,-12,-32,77,132,84,-146
-172,-111,-132,-27,-37,-24,117,161,168,51
-5,-114,-54,-54,-75,-36,95,163,234,320
131,-8,-10,-44,-95,-44,90,105,170,407
136,59,70,25,-59,94,91,-26,-18,269
37,112,160,55,-31,232,86,-115,-158,168
27,164,123,17,-59,238,134,31,-155,-93
-5,132,93,11,-68,181,165,112,-209,-315
-91,28,97,20,-55,152,159,30,-354,-336
24,5,111,62,1,170,164,-30,-485,-476
258,4,109,100,93,126,132,-64,-533,-557
414,-32,40,60,162,77,100,-75,-442,-373
442,-89,-28,30,170,162,143,-31,-327,-205
305,-145,-50,63,112,196,186,47,-199,-105
199,-3,64,87,-3,109,173,69,-142,-57
140,247,132,91,-85,43,125,23,-175,-107
-63,105,21,70,-131,76,160,26,-223,-162
-307,-162,-17,27,-176,106,206,118,-156,-104
-330,-103,25,-8,-201,0,133,139,-80,16
-109,139,86,-54,-168,-145,14,43,-98,104
101,318,130,-64,-73,-239,-107,-71,-107,212
276,320,75,-46,61,-260,-175,-57,75,382
255,198,-24,-66,212,-186,-157,65,280,517
226,100,24,-40,301,-64,-140,69,293,588
276,69,71,16,260,5,-162,19,214,473
293,33,80,32,207,-5,-156,10,120,198
246,-52,55,34,196,-54,-98,41,77,93
227,-71,32,52,196,-74,-35,65,69,35
208,-28,25,47,186,40,44,93,100,61
-5,-65,2,51,194,271,156,96,93,13
-290,-111,-13,54,149,384,214,59,8,-212
-442,-91,-79,46,51,392,230,14,-102,-409
-441,-117,-155,35,-14,330,215,7,-157,-462
-280,-198,-205,7,-25,249,180,0,-185,-362
-241,-272,-152,-6,38,160,153,-32,-206,-310
-171,-268,-114,-54,101,51,109,-38,-193,-212
-152,-303,-208,-124,126,-20,40,-67,-211,-191
-128,-282,-227,-140,59,-138,-35,-82,-217,-190
-125,-132,-126,-85,17,-312,-83,-43,-141,-72
-178,-23,-36,-22,7,-450,-132,4,-55,72
12,40,45,20,-52,-538,-169,23,-13,230
291,137,113,45,-114,-490,-155,47,21,407
372,78,96,-12,-205,-395,-123,76,70,694
377,-7,16,-93,-286,-390,-81,125,214,1143
357,-59,-78,-145,-288,-364,-57,187,368,1554
284,-67,-107,-159,-189,-298,-63,179,414,1600
234,-46,-78,-88,-14,-249,-100,120,311,1281
253,-34,0,0,87,-211,-118,90,232,853
338,19,76,79,26,-181,-84,83,122,265
428,66,101,121,-21,-121,-13,66,-67,-361
408,51,82,126,23,-27,80,73,-150,-647
272,184,117,122,31,54,113,32,-197,-739
289,477,226,115,-20,74,50,-52,-314,-950
77,382,148,110,2,113,70,-32,-300,-882
-118,186,131,87,12,120,100,2,-261,-662
-117,131,138,69,-1,108,131,21,-245,-603
-298,27,101,56,13,110,150,47,-231,-693
-104,146,133,33,-8,31,72,5,-151,-639
-85,128,73,11,-30,-60,-15,-8,-87,-439
-233,-42,-27,0,-40,-90,-67,-7,-28,-309
-407,-151,-64,10,-28,-45,-55,-6,47,-177
-487,-189,-26,18,-14,-26,-40,3,88,-44
-397,-164,-27,9,-38,-18,-8,18,154,69
-210,-71,-60,13,-61,-41,-88,-19,113,200
14,62,15,3,-88,-69,-135,-52,97,239
131,198,55,5,-80,-53,-121,-45,78,54
179,104,25,-18,-66,-6,-63,-14,71,12
260,-137,-44,-68,-79,28,21,32,147,258
257,-258,-77,-34,-41,44,53,37,165,509
260,-282,-118,2,-32,18,3,16,155,605
301,-330,-126,-9,-46,14,-24,-2,90,481
327,-293,-122,-10,-25,51,-6,0,22,97
244,-140,-78,-1,9,78,-5,-3,-34,-297
195,-19,-18,15,50,97,-17,-25,-88,-355
-215,-130,-31,43,95,127,15,-17,-123,-285
-511,-154,-17,80,133,176,41,9,-131,-201
-537,-27,132,120,138,244,34,-50,-125,-90
-375,221,252,176,169,290,0,-176,-220,-162
-197,177,104,81,100,221,-57,-115,-65,-86
-176,-10,-127,-124,-69,173,-13,130,379,199
-119,-71,-242,-229,-158,183,1,134,485,696
-41,-206,-303,-223,-142,226,-10,29,305,1060
-37,-194,-220,-151,-85,209,-37,-58,121,1071
-66,-74,-58,-30,36,182,-29,-164,-163,389
-138,-97,29,103,187,168,29,-203,-457,-564
-120,-134,36,135,193,30,16,-178,-630,-1227
-91,-25,123,148,120,-134,-88,-286,-724,-1352
-231,-30,32,138,79,-181,-106,-278,-631,-1106
-397,-155,-123,51,42,-121,35,-118,-453,-914
-441,-157,-77,-15,20,-67,112,-19,-317,-738
-428,-29,3,-5,6,-147,13,-19,-227,-484
-229,143,128,57,23,-217,-61,7,-116,-279
135,278,203,120,29,-158,-35,72,39,-109
252,221,105,69,0,-43,102,203,193,75
105,93,-70,-31,1,96,204,236,223,164
-101,136,-104,-93,-19,166,185,159,76,65
-427,90,6,-41,18,223,121,111,19,-66
-497,-86,-17,7,114,295,88,99,48,-39
-316,-212,-45,-22,174,269,82,82,85,175
-21,-131,-57,-83,91,66,-8,25,80,351
59,-147,-94,-138,-124,-160,-48,18,159,370
26,-130,-64,-123,-215,-288,-48,62,193,328
101,-3,11,-74,-207,-366,-65,67,115,288
58,35,44,-30,-193,-393,-72,92,119,169
-33,0,43,15,-161,-336,-34,160,157,92
149,77,96,56,-164,-241,24,217,217,184
255,144,137,87,-136,-184,55,210,279,353
398,157,60,111,-38,-190,-12,133,177,462
546,169,7,114,-15,-224,-37,72,116,484
513,96,27,80,-94,-186,-12,74,111,518
363,-48,7,1,-84,-34,41,104,111,609
135,-55,-34,-47,-9,51,25,104,118,655
-46,10,19,-13,62,27,-24,24,78,456
-87,6,57,40,45,-39,-61,-44,32,355
91,41,73,75,2,-115,-144,-85,39,476
270,0,-3,31,-5,-142,-187,-94,39,565
204,-119,-110,-1,87,-32,-136,-93,-97,179
2,-253,-163,-24,182,83,10,-67,-236,-348
-59,-290,-152,-30,281,180,68,-70,-384,-759
-64,-244,-106,-32,303,270,87,-65,-538,-959
-90,-167,-71,-13,172,281,107,17,-432,-912
-34,-125,-1,44,118,275,79,3,-202,-700
-92,-129,61,92,115,273,19,-70,-203,-504
-20,9,74,61,108,260,-3,-86,-209,-352
214,271,59,-5,22,185,4,-64,-59,-78
328,208,34,-23,-65,141,14,-31,18,137
496,159,-12,20,-95,147,11,-43,-17,193
555,108,-8,-18,-140,144,69,10,55,285
337,-89,-55,-91,-149,82,178,154,228,415
-89,-188,-104,-79,-99,-18,154,140,224,350
-215,-20,-36,-23,-44,-74,40,5,27,-15
-378,130,113,62,29,-46,-35,-101,-161,-490
-396,47,90,13,-21,-34,-56,-78,-121,-399
-167,9,-45,-107,-187,-116,-37,30,65,-41
-19,165,-27,-125,-288,-217,-57,34,107,40
-84,97,-31,-134,-326,-321,-91,32,132,207
11,39,-45,-125,-371,-401,-117,38,186,541
260,102,29,-72,-391,-357,-81,10,236,682
737,196,131,70,-335,-219,21,49,186,455
989,128,100,117,-242,-92,126,156,213,298
871,5,46,91,-102,-1,168,220,298,423
564,46,61,65,87,-18,81,132,238,425
219,8,13,17,263,-35,20,70,137,231
-89,-170,-43,33,290,47,36,47,4,-118
-244,-166,-13,68,205,152,-24,-64,-171,-342
-230,82,39,34,165,210,-123,-197,-347,-530
-460,57,-26,-32,231,307,-118,-215,-444,-728
-761,-17,-73,-2,293,379,-50,-172,-350,-711
-800,-47,-63,1,213,372,40,-125,-252,-568
-726,-172,-98,-10,190,364,77,-91,-223,-512
-520,-236,-110,-23,234,312,76,-66,-186,-274
-333,-371,-157,-89,186,163,85,-10,-26,138
-99,-289,-129,-76,101,15,33,-13,79,528
19,28,-1,-32,-26,-135,-66,-107,73,705
81,219,15,-87,-168,-329,-136,-142,67,623
-11,64,-135,-211,-314,-489,-125,92,315,467
-229,-111,-183,-201,-363,-526,-82,241,427,259
-103,97,28,-62,-352,-480,-81,143,254,55
45,381,174,95,-264,-374,-64,26,11,-240
92,324,203,156,-192,-250,-12,44,-20,-29
159,177,239,160,-216,-189,14,103,10,121
331,111,172,90,-286,-202,-27,102,20,304
355,-23,80,83,-159,-91,-53,44,93,309
267,-161,-15,98,144,54,-50,-53,51,236
122,-169,-55,69,425,110,-29,-94,-49,50
-128,-153,-46,68,593,152,44,-63,-153,-419
-108,49,20,91,477,189,109,-40,-130,-907
18,270,53,75,209,184,157,-85,-169,-1060
-21,118,65,57,67,214,192,-63,-211,-916
-4,35,81,96,34,262,215,-28,-227,-756
-59,-42,21,70,14,267,196,7,-158,-543
-185,-136,-110,20,-16,235,143,32,-104,-424
-161,-191,-146,-33,-81,161,74,38,-52,-268
-163,-194,-96,-72,-114,35,-49,-8,-37,-34
-52,9,-51,-81,-68,-38,-112,-66,-69,37
-160,112,-2,-53,55,-57,-124,-93,-86,52
-296,55,0,-64,195,-67,-122,-88,-37,83
-239,20,1,-79,175,-89,-118,-63,44,206
6,15,-25,-65,74,-127,-101,1,140,483
140,39,-45,-62,-25,-168,-65,55,241,587
111,66,0,-62,-82,-202,-80,-5,234,674
185,178,118,-38,-92,-236,-144,-163,57,863
302,199,111,-39,-239,-292,-136,-142,-19,975
169,34,-44,-131,-582,-359,-5,133,200,757
11,-135,-85,-174,-761,-306,99,187,203,495
94,-154,-114,-180,-740,-201,104,163,149,619
274,-79,-96,-159,-845,-222,65,182,193,973
255,-39,-2,-40,-979,-240,15,140,124,888
70,-8,130,101,-923,-96,82,142,-17,294
-18,85,219,223,-581,219,167,118,-62,-140
-70,46,173,318,74,723,212,11,-207,-739
24,-107,78,307,798,1093,166,-174,-410,-1030
147,-194,13,241,1159,1178,155,-224,-458,-1243
48,-263,-76,134,1013,1069,210,-161,-458,-1470
-152,-430,-219,53,938,894,195,-157,-421,-1298
-208,-536,-326,-8,1094,745,143,-197,-380,-986
-310,-462,-356,-51,1143,659,79,-222,-367,-935
-540,-339,-284,-110,1007,486,37,-167,-240,-879
-730,-275,-190,-103,723,247,20,-72,-42,-627
-634,26,21,14,377,-100,-68,-67,-18,-395
-416,296,184,85,109,-250,-105,-58,52,-243
-400,233,110,45,-2,-233,-82,-62,57,-186
-364,140,40,-73,-113,-203,-76,-72,27,-79
-170,100,-40,-130,-327,-243,-41,2,128,152
127,140,38,-118,-500,-434,-23,75,219,348
392,126,12,-122,-669,-648,-18,150,322,540
538,172,73,-79,-784,-716,-24,219,408,653
497,301,257,55,-746,-556,-15,207,374,664
391,279,307,143,-545,-201,-11,131,277,660
236,97,182,117,-194,13,-62,35,149,602
105,-133,-98,-79,152,-103,-137,78,267,794
193,-380,-410,-268,238,-320,-255,25,329,1133
324,-510,-455,-382,40,-502,-341,-120,229,1124
516,-389,-423,-387,-199,-554,-322,-177,159,946
711,-223,-325,-245,-101,-255,-186,-93,129,716
861,-62,-136,-41,166,32,-15,-10,22,325
389,67,37,161,336,128,72,1,-142,-305
-28,289,243,221,380,144,55,-35,-168,-564
-488,187,181,138,422,149,59,0,19,-249
-714,-32,-9,19,371,58,48,38,178,41
-556,112,34,-58,22,-149,-52,19,178,165
-350,392,170,-77,-491,-392,-138,-23,4,83
58,490,271,-24,-763,-513,-112,11,-49,61
285,303,296,61,-712,-436,1,138,0,88
375,299,383,198,-552,-230,192,269,1,-504
333,457,493,298,-496,-211,255,281,65,-637
267,496,446,254,-587,-319,184,239,205,-186
310,304,225,119,-495,-272,131,205,277,234
392,149,115,73,-45,-100,25,78,230,510
354,-7,72,62,277,-15,-15,-70,74,346
153,-8,106,106,21,37,25,-129,-128,-208
59,139,162,141,-268,306,137,-41,-186,-679
-173,48,13,45,-84,779,205,11,-162,-800
-408,-157,-154,-13,387,1148,120,-165,-326,-888
-661,-313,-258,-48,926,1205,-3,-317,-485,-937
-967,-374,-260,-48,982,1032,-98,-405,-507,-907
-998,-387,-301,-126,640,777,-145,-419,-446,-664
-852,-494,-456,-256,267,530,-87,-320,-267,-339
-617,-488,-449,-287,215,235,-65,-281,-184,-273
-404,-313,-270,-195,315,-145,-70,-283,-165,-232
-95,-129,-69,-37,410,-323,22,-171,-79,-184
290,49,103,152,374,-260,68,-54,-7,-36
539,130,141,234,145,-114,89,25,50,106
552,199,215,307,9,144,147,138,181,113
371,83,249,303,-64,262,123,237,327,287
379,13,108,154,-19,98,-2,228,392,461
346,-27,56,9,167,-109,-119,142,318,410
126,-86,-12,-83,469,-253,-212,19,107,210
-31,-68,-19,-104,486,-370,-211,-84,-154,102
148,219,119,-99,109,-503,-261,-216,-374,154
295,267,122,-161,-196,-575,-285,-106,-56,5
314,-8,-40,-190,-239,-627,-218,139,309,-4
389,-7,-55,-95,-208,-609,-214,46,195,226
306,28,-7,-78,-315,-550,-166,-30,172,457
-292,-58,-44,-107,-451,-462,0,236,401,303
-505,158,112,-37,-504,-376,92,366,509,283
-219,367,254,42,-484,-325,76,271,469,744
35,258,177,67,-381,-242,55,217,464,977
181,120,60,51,-237,-102,62,206,454,841
323,142,78,6,-224,38,80,213,433,655
480,279,133,-22,-189,101,31,146,397,648
659,292,111,-15,163,55,-108,6,200,761
494,88,17,10,638,-55,-210,-147,-61,504
79,-113,-60,59,595,-54,-171,-224,-319,-170
-188,-196,-61,44,233,29,-26,-140,-387,-613
-276,-120,-12,55,37,79,66,-42,-316,-676
-454,-129,-8,74,-75,77,132,67,-172,-516
-491,-36,51,107,-160,97,192,62,-194,-730
-355,101,144,147,-205,202,233,-1,-316,-1130
-169,117,133,133,-262,329,247,-26,-341,-1171
0,111,56,80,-292,401,281,10,-214,-878
-11,-51,-77,25,-187,463,274,56,-95,-496
-17,-188,-171,-33,161,614,188,3,-86,-357
-122,-244,-204,-103,386,693,185,-52,-79,-385
-96,-169,-130,-115,39,595,347,20,-18,-229
-114,-48,-71,-99,-650,292,443,155,192,223
-171,-81,-95,-87,-1080,55,440,218,352,611
19,-36,-97,-43,-1235,-202,379,258,481,949
342,158,110,24,-1465,-443,288,308,554,1128
515,189,192,69,-1649,-311,255,306,541,1111
456,134,88,88,-1225,270,172,203,439,1018
280,6,-26,96,-20,960,48,31,194,714
135,-113,-82,93,1183,1054,-90,-140,-215,-177
-122,-251,-135,53,1785,542,-252,-277,-469,-776
-457,-416,-280,-80,1493,70,-314,-344,-541,-759
-442,-412,-388,-200,765,-74,-251,-331,-577,-726
-92,-43,-151,-212,25,-205,-131,-218,-483,-696
42,84,14,-147,-220,-276,-47,-92,-223,-339
184,0,12,-87,-128,-322,-108,-94,-100,135
231,-109,-74,-83,-18,-252,-168,-121,-11,418
91,-150,-58,-24,97,-251,-203,-54,65,449
147,-49,9,43,22,-229,-232,14,109,288
22,-15,17,62,345,-62,-298,-90,-50,0
-80,-104,-41,40,1162,63,-386,-223,-214,-143
-1,-93,-84,-14,1552,7,-445,-244,-169,43
-59,-46,-135,-121,981,-261,-511,-278,-35,499
-133,47,-137,-126,406,-381,-460,-269,67,616
-97,173,-40,-147,139,-475,-421,-237,160,476
-369,-89,-200,-321,-193,-631,-390,-86,416,605
-634,-508,-452,-484,-417,-743,-304,131,680,622
-560,-469,-433,-462,-501,-779,-225,151,679,683
-184,-130,-227,-325,-707,-837,-140,145,679,1294
114,77,3,-119,-970,-885,-93,133,555,1948
113,106,206,154,-1130,-755,58,113,131,1356
56,211,423,475,-1188,-406,342,166,-294,-278
173,396,624,676,-1126,-107,499,239,-449,-1356
293,503,742,711,-1107,76,440,168,-446,-1396
288,501,736,701,-1058,272,403,158,-397,-1295
184,283,578,622,-681,462,401,209,-259,-913
25,-104,275,452,218,829,354,111,-241,-720
-124,-378,7,280,1570,1259,218,-139,-498,-919
-223,-404,-156,187,2642,1309,11,-362,-759,-1389
-303,-564,-363,12,2444,751,-65,-293,-516,-1367
-381,-361,-406,-187,1303,82,-197,-299,-194,-689
-56,238,-141,-310,302,-59,-265,-368,27,204
320,102,-142,-443,21,303,-139,-210,304,975
533,-140,-226,-402,134,663,-24,-179,192,1263
418,-36,-234,-308,15,699,127,-35,-70,550
167,332,-161,-240,-91,654,153,-4,-333,-570
-65,618,97,-98,6,595,58,-312,-622,-1270
-427,296,97,-75,0,445,-3,-379,-586,-1459
-441,-121,-95,-206,-16,52,4,-112,-163,-705
-395,-195,-152,-230,-138,-402,-7,94,120,-160
-340,-34,-30,-171,-384,-758,-35,168,125,-302
-150,126,95,-73,-569,-742,39,258,207,-312
-194,124,179,70,-521,-546,162,361,326,-185
-19,160,228,153,-484,-511,184,427,491,376
294,270,269,189,-544,-649,136,443,579,611
714,303,228,156,-606,-842,3,351,601,620
908,87,-1,-49,-747,-869,-176,224,610,923
634,-201,-242,-227,-525,-691,-256,148,548,1078
161,-459,-358,-289,-154,-595,-266,119,418,1325
-396,-542,-300,-217,-16,-539,-275,73,263,1268
-538,-396,-141,-91,-86,-391,-291,-62,124,1142
-492,-301,-90,85,336,-55,-326,-265,-199,490
-274,-164,-20,296,1285,274,-325,-458,-706,-590
23,-28,73,372,1733,407,-236,-478,-923,-1660
25,-25,25,434,1596,402,-116,-390,-919,-2120
-75,-5,-20,390,1060,378,9,-275,-833,-1962
-589,28,-67,240,625,348,111,-118,-688,-1755
-1036,238,170,218,420,144,-1,-154,-630,-1489
-952,247,301,232,323,-11,-122,-230,-550,-1108
-632,241,324,260,289,24,-70,-152,-371,-762
-408,228,302,189,159,50,22,-23,-147,-362
-194,226,232,25,-32,39,100,97,6,-55
-20,292,214,-89,-244,-3,124,167,123,163
82,231,146,-160,-407,-62,126,218,273,366
146,85,0,-263,-497,-85,140,278,438,691
250,114,-68,-292,-479,-36,118,279,538,920
264,134,-87,-262,-440,8,87,223,527,756
249,74,-139,-241,-430,-34,17,176,512,682
176,-75,-158,-247,-405,-56,-12,169,463,571
118,-186,-157,-176,-267,1,19,108,316,298
160,-213,-153,-79,-149,31,29,51,200,124
182,-223,-132,-25,-93,0,10,-21,214,166
223,-202,-105,18,-50,-27,-29,-93,240,657
448,-148,-162,-144,-230,-170,-138,-125,437,1776
657,-215,-365,-426,-520,-327,-176,99,924,2644
732,-219,-415,-509,-704,-375,-110,304,1228,2858
582,-346,-462,-488,-787,-366,-52,257,1117,2839
357,-374,-427,-438,-813,-308,0,189,830,2297
345,70,-32,-200,-725,-202,44,80,208,718
64,521,433,258,-396,180,306,73,-580,-1991
-60,570,664,587,-76,585,485,62,-1021,-2931
342,663,721,718,62,689,463,55,-1018,-2640
491,623,654,671,214,596,357,41,-784,-2345
179,208,240,498,454,372,161,-72,-649,-1969
-443,-115,23,370,655,324,-14,-215,-674,-1567
-684,-16,53,231,626,310,-236,-343,-550,-1035
-672,-128,-114,50,718,222,-377,-389,-345,-597
-523,-482,-431,-243,719,-36,-410,-319,117,584
-220,-613,-688,-536,323,-336,-473,-227,646,2266
-65,-696,-852,-713,-183,-416,-435,-64,1058,3221
118,-635,-760,-679,-404,-399,-336,60,1208,3288
284,-306,-484,-515,-459,-366,-236,-13,872,2844
130,-18,-196,-219,-360,-266,-150,-240,172,1219
-122,35,-29,-56,-231,-144,0,-132,-208,-83
-143,89,71,68,-66,12,185,120,-260,-1100
186,346,277,214,-49,55,220,133,-217,-934
339,350,299,102,-256,-45,85,104,-36,6
313,182,184,-67,-258,-50,0,87,27,225
222,234,249,17,37,123,29,19,-183,-318
111,421,441,244,299,327,188,63,-379,-1024
-51,385,429,281,272,315,266,168,-314,-1120
-245,149,201,93,83,142,237,210,-138,-1107
-311,-40,37,8,-68,88,244,147,-123,-1207
-222,-84,5,39,-290,39,259,96,-175,-660
-125,-194,-132,-15,-591,-50,259,109,-69,13
-120,-189,-27,22,-708,-11,335,131,-161,-259
-49,6,139,162,-688,92,407,160,-276,-1107
153,306,326,270,-732,184,388,219,-54,-1068
365,431,389,220,-824,190,231,226,406,214
501,539,358,161,-437,330,74,93,363,525
222,251,73,1,473,402,-38,70,293,497
49,41,-101,-54,1192,154,-181,-59,51,284
72,387,197,76,938,-116,-205,-258,-480,-347
-256,421,315,171,470,33,44,-221,-888,-1558
-469,167,167,185,640,276,191,-123,-935,-2056
-243,102,18,67,642,161,119,-67,-568,-1136
111,132,-103,-102,143,-97,-54,-119,-118,285
403,186,-110,-210,-260,-300,-246,-233,212,1270
474,272,-27,-173,-248,-355,-307,-262,299,1220
150,84,-90,-205,-395,-314,-131,41,383,509
-242,-108,-106,-220,-638,-264,73,347,423,-411
-374,-68,56,-54,-616,-138,166,285,153,-862
-561,-43,185,183,-179,123,218,120,-207,-1024
-641,-86,158,322,529,311,182,34,-273,-667
-495,-290,-120,136,938,250,41,-56,-183,-109
-90,-391,-442,-213,677,121,-53,-88,-41,378
314,-352,-655,-372,289,3,-172,-151,141,789
395,-452,-620,-248,409,-12,-260,-306,-23,527
469,-543,-499,-33,559,42,-252,-377,-227,243
446,-484,-311,193,474,120,-147,-286,-272,-85
107,-372,-99,352,383,173,-23,-208,-430,-412
-593,-348,48,485,470,348,146,-164,-708,-1279
-1019,-81,136,500,538,585,285,-79,-827,-2159
-1112,190,193,334,342,573,251,-23,-628,-2087
-712,402,300,147,116,220,42,-35,-275,-875
-218,505,339,2,-4,-233,-173,-60,49,330
199,297,92,-246,-343,-445,-180,60,508,1491
592,30,-257,-510,-780,-441,-118,237,920,2505
841,-14,-385,-603,-984,-431,-157,240,983,2965
871,4,-271,-556,-928,-370,-200,120,828,2853
559,-39,-230,-399,-525,-192,-190,-3,438,2056
283,-22,-183,-265,-85,-94,-116,23,182,895
32,17,-59,-216,-49,-28,57,233,175,-330
-40,206,187,-21,-95,18,127,182,-39,-1148
-68,362,365,267,169,-21,-10,-45,-367,-1295
-306,326,444,478,523,-83,-152,-257,-643,-1653
-390,347,599,683,745,-79,-234,-438,-890,-1777
-369,371,613,691,605,185,-127,-397,-933,-1930
-375,192,331,432,455,613,118,-172,-608,-1841
-352,-95,-25,155,466,826,268,-45,-434,-1385
-348,-296,-175,68,343,659,169,-143,-432,-955
-280,-390,-258,-24,-8,603,173,-145,-358,-624
-276,-557,-394,-127,-136,728,269,-46,-231,-461
-425,-817,-524,-218,2,826,312,44,-109,-315
-283,-712,-406,-222,150,622,227,70,10,-136
-6,-327,-168,-145,131,233,68,6,53,68
97,-205,-78,-100,-91,-76,-12,22,78,414
236,-7,-56,-162,-357,-375,-125,54,220,976
374,149,-98,-297,-639,-708,-263,118,510,1597
579,183,-130,-404,-911,-1011,-330,236,889,2485
770,256,-218,-490,-1124,-1211,-365,405,1337,3668
801,133,-292,-499,-1029,-1168,-331,485,1554,4123
810,137,-173,-351,-624,-962,-233,421,1221,2870
599,150,15,-165,-418,-712,-118,346,748,1263
287,124,145,12,-218,-448,-51,232,264,300
21,132,299,201,114,-219,79,208,-153,-815
32,235,466,364,67,-31,241,152,-484,-1544
155,225,409,312,-253,24,291,101,-440,-1406
238,148,316,226,-356,-3,226,104,-116,-749
552,131,205,197,-323,-114,41,70,266,650
1048,-7,-44,38,-325,-155,-88,99,475,1522
1298,-213,-121,-10,50,79,-117,34,189,951
1050,-352,-160,119,640,357,-30,-81,-348,-429
343,-511,-299,131,973,507,96,-168,-800,-1500
-1272,-512,-167,235,1362,705,152,-327,-1251,-2757
-2338,-38,139,355,1439,902,37,-615,-1576,-3366
-2328,19,152,346,1204,954,-64,-698,-1432,-3169
-1693,-316,-46,157,894,918,4,-530,-1016,-2555
-1061,-431,-204,-13,661,738,33,-418,-638,-2066
-813,-248,-136,-41,493,466,-33,-393,-511,-1633
-624,-134,-85,-57,280,177,-77,-310,-307,-943
-349,-22,-28,-91,25,-148,-141,-190,53,55
-11,138,39,-186,-402,-577,-204,-5,590,1313
543,211,36,-332,-855,-981,-281,170,1260,3083
1119,159,-108,-549,-1113,-1162,-365,309,1744,4864
1265,0,-344,-743,-1203,-1082,-255,591,1956,5141
1113,-9,-328,-680,-1096,-920,-85,716,1739,3961
887,106,-136,-449,-882,-731,40,574,1141,2348
517,308,200,-78,-639,-501,145,312,111,-221
153,519,603,390,-313,-96,293,87,-843,-2848
53,482,747,667,-37,223,380,70,-1020,-3298
69,237,628,755,245,408,316,46,-831,-2446
-154,-147,373,723,799,675,233,-88,-920,-2425
-538,-523,134,677,1394,882,172,-257,-1064,-2490
-439,-525,-8,546,1513,792,-34,-488,-1109,-2093
-245,-316,-42,359,1139,478,-247,-624,-1019,-1699
-556,-486,-133,224,695,339,-216,-522,-839,-1326
-1027,-858,-360,9,346,343,-19,-215,-438,-864
-1028,-396,-86,-31,85,88,-108,-170,-118,-474
-720,321,305,-4,-181,-217,-170,-64,156,-173
-318,481,259,-152,-440,-366,-53,214,519,706
92,374,31,-406,-649,-559,-84,367,971,1983
474,293,-158,-665,-878,-733,-149,451,1405,2955
716,219,-270,-779,-1032,-796,-182,460,1506,3143
670,0,-387,-815,-1144,-805,-181,402,1385,2908
536,-80,-384,-684,-1077,-669,-108,322,941,2189
454,106,-198,-337,-773,-342,85,250,226,844
315,357,225,89,-331,69,376,266,-273,-599
485,431,370,155,-270,134,411,319,-14,225
876,442,236,-29,-579,-108,243,335,516,1525
1033,505,151,-116,-750,-205,156,274,555,1409
738,281,2,-180,-702,-161,114,159,369,1025
259,73,-31,-136,-522,-151,178,100,148,472
-677,-69,258,821,1834,1322,177,-478,-1457,-3319
-911,-515,-51,527,1928,1287,39,-475,-1082,-2599
-912,-559,-153,423,1486,913,-180,-656,-1090,-1811
-852,-574,-202,284,700,645,-128,-536,-886,-1109
-536,-586,-252,16,56,565,164,-152,-439,-435
20,-445,-291,-122,-81,535,273,37,-141,-85
279,-142,-70,-46,-50,334,209,70,-19,-153
495,226,217,18,-416,-40,141,143,167,-32
307,252,185,-72,-622,-371,49,219,389,644
-9,389,120,-243,-445,-583,-124,214,548,1082
-152,403,75,-291,-39,-684,-289,100,499,823
-101,97,-76,-325,46,-639,-325,12,439,1190
408,67,-122,-365,-382,-632,-244,32,531,1794
954,221,-76,-300,-737,-554,74,272,503,1739
1262,475,150,-69,-803,-320,284,255,216,960
1160,576,305,104,-765,-129,354,171,-6,293
345,422,285,167,-754,-32,394,274,-52,-352
-509,263,291,253,-658,86,284,212,-198,-950
-965,60,394,375,-193,382,125,61,-330,-1527
-947,-207,207,376,891,736,-51,-45,-291,-1224
-659,-358,-6,323,2004,840,-267,-304,-436,-903
-405,-541,-158,264,2138,790,-239,-378,-590,-1357
-175,-569,-167,265,1698,984,-102,-372,-717,-1659
193,-479,-164,225,1292,1607,150,-332,-745,-1550
88,-840,-350,147,1151,2153,465,-244,-608,-1254
-304,-1005,-586,-64,896,2228,558,-161,-467,-944
-716,-757,-651,-275,488,1775,396,-233,-472,-806
-1434,-694,-553,-369,153,929,154,-302,-405,-652
-1460,-219,-336,-452,-169,20,-54,-309,-319,-529
-1036,440,-69,-452,-418,-715,-260,-384,-372,-529
-690,345,-4,-351,-511,-1215,-366,-317,-250,-255
-198,163,9,-210,-438,-1584,-385,-110,63,235
294,262,-17,-150,-399,-1844,-361,203,523,1010
744,409,-9,-195,-555,-1991,-449,381,919,2069
1122,562,81,-275,-825,-2008,-640,330,1044,2884
1428,542,75,-316,-987,-1835,-640,339,1239,3452
1550,423,-4,-363,-1156,-1643,-511,400,1443,3619
1454,391,-10,-310,-1189,-1376,-365,329,1069,2635
1057,457,98,-99,-1018,-1052,-284,103,269,573
477,475,344,117,-797,-758,-185,-15,-240,-810
-272,307,420,255,-470,-353,62,170,-400,-1553
-753,161,421,420,89,119,311,279,-488,-2104
-886,94,445,559,644,404,479,256,-551,-2219
-862,88,476,614,711,450,548,221,-520,-2046
-597,97,368,600,304,348,479,171,-371,-1456
-251,23,340,534,-100,254,388,111,-238,-918
130,-74,317,439,-205,276,345,61,-150,-639
427,-235,113,308,18,422,318,55,-86,-437
451,-431,-92,155,134,555,380,217,76,-209
257,-339,-106,133,295,619,235,118,54,-96
-19,-221,-72,143,581,620,-23,-220,-210,-153
-369,-276,-157,66,769,625,-165,-422,-385,-222
-462,-57,-207,-94,733,443,-278,-413,-338,-345
-666,-151,-277,-281,654,100,-339,-307,-163,-325
-346,-84,-205,-297,420,-105,-335,-280,-63,54
99,-16,-151,-249,132,-135,-246,-113,296,1081
193,5,-116,-236,1,-227,-200,12,676,2216
145,119,-55,-243,-141,-377,-225,-23,773,2575
297,0,-261,-386,-442,-545,-237,31,897,2701
462,-91,-472,-510,-870,-664,-150,186,988,2610
424,9,-284,-446,-1342,-699,8,252,690,1950
665,217,-36,-264,-1500,-637,98,241,374,1444
917,322,115,-119,-1152,-429,118,223,342,1367
891,297,111,-93,-767,-316,104,224,349,1142
697,379,237,14,-658,-228,76,133,70,255
172,424,425,246,-459,203,277,79,-473,-2003
-389,310,466,404,108,695,527,122,-721,-3390
-477,228,413,423,712,652,511,151,-565,-2844
-310,200,374,366,708,417,433,234,-261,-1907
-163,234,380,351,-18,186,293,279,-114,-1175
-262,132,277,390,-244,333,130,108,-219,-886
-413,-27,217,440,335,650,8,-68,-296,-928
-495,-233,25,395,1200,707,-83,-199,-368,-1043
-543,-601,-173,325,1951,633,-224,-495,-687,-1238
-201,-954,-387,216,2004,748,-353,-718,-759,-939
346,-1220,-730,-41,1585,899,-328,-661,-450,73
644,-1371,-985,-296,991,647,-448,-701,-152,1079
307,-1466,-1141,-524,465,389,-538,-701,20,1236
-489,-1060,-966,-612,174,162,-494,-574,-4,639
-879,-14,-450,-504,59,-87,-426,-481,-311,-366
-1368,514,150,-118,274,-211,-256,-432,-640,-1377
-1172,596,503,147,344,-417,-152,-367,-651,-1347
-402,629,479,66,-110,-675,-41,-4,-90,-236
188,430,180,-193,-763,-854,27,395,544,674
576,406,101,-275,-1038,-862,-1,412,662,846
962,626,243,-215,-1092,-848,-110,209,585,1337
1173,775,379,-141,-1028,-717,-82,142,565,1965
813,617,326,-126,-876,-435,211,427,635,1812
251,370,205,-60,-574,-156,527,748,692,722
67,360,283,157,-573,-24,624,727,465,-66
-14,461,446,420,-748,-42,481,494,40,-876
-217,489,632,586,-718,-4,312,278,-232,-1454
-476,327,578,613,-368,280,205,107,-329,-1820
-551,165,440,595,330,676,121,-30,-509,-1958
-742,-195,94,400,1219,1084,151,-52,-469,-1701
-838,-664,-395,202,1787,1316,94,-177,-460,-1195
-443,-996,-649,96,1796,1299,-50,-431,-590,-753
168,-1124,-660,43,1307,1089,-150,-573,-612,-553
745,-1108,-633,-12,798,872,-137,-488,-541,-365
606,-1167,-628,-108,503,749,30,-222,-243,-118
84,-637,-366,-170,412,466,58,-82,-96,-214
-305,432,95,-209,115,-181,-139,-116,-76,-243
-782,1030,319,-207,-273,-768,-240,-70,54,3
-870,897,300,-183,-521,-1005,-184,66,225,359
-666,634,288,-176,-843,-1022,-95,241,467,781
-294,603,253,-228,-1080,-1046,-60,372,740,1154
-91,426,171,-234,-931,-892,-16,434,856,1085
105,294,78,-210,-462,-652,7,386,828,1046
263,270,83,-173,-207,-567,-24,249,573,929
262,238,129,-86,-212,-471,-37,116,332,626
346,258,174,-14,-257,-376,-29,26,185,476
463,168,61,-117,-476,-418,-69,88,299,1069
536,14,-130,-258,-686,-513,-95,233,568,1674
678,-33,-184,-279,-777,-497,-149,143,620,2056
814,-33,-162,-257,-1071,-444,-5,123,550,2120
917,124,-13,-144,-1314,-390,170,218,423,1495
934,322,199,31,-1266,-216,235,209,236,869
994,397,254,128,-1031,-105,149,99,122,1052
570,197,181,205,-311,223,94,69,-36,248
-106,97,331,492,624,798,167,-2,-507,-2047
-406,92,419,639,1154,988,168,-195,-922,-3005
-735,-369,-4,331,1594,631,60,-126,-721,-2543
-900,-674,-312,39,1633,245,-48,-72,-410,-1835
-542,-251,-140,20,1011,112,-91,-127,-279,-1114
-91,129,-27,23,464,50,-117,-146,-219,-286
249,189,-21,-64,170,10,-95,-57,-41,599
340,75,-95,-113,-13,-25,-61,47,219,1060
497,-108,-289,-252,-227,-169,-140,130,587,1604
912,-277,-555,-528,-492,-393,-301,130,1093,2866
1194,-363,-706,-771,-656,-603,-491,28,1269,3796
1311,-276,-710,-823,-692,-739,-605,-94,1113,3983
1108,-260,-628,-747,-736,-753,-589,-195,736,3405
456,-127,-333,-441,-590,-544,-377,-282,-42,1240
-430,155,202,120,-253,-59,108,-198,-909,-2102
-1260,328,624,665,-58,453,622,52,-1233,-4610
-1577,321,744,867,-177,610,877,297,-1018,-4618
-1386,279,781,848,-418,607,913,391,-754,-3953
-1080,214,678,756,-316,643,681,243,-695,-2887
-781,113,526,638,22,561,283,-59,-658,-1799
-465,-28,319,547,583,499,-30,-281,-589,-1263
-109,-193,4,431,1245,517,-215,-406,-565,-948
77,-343,-254,262,1492,608,-217,-425,-550,-759
268,-443,-353,57,1428,428,-229,-392,-426,-320
281,-597,-562,-262,912,62,-139,-148,32,626
396,-500,-540,-356,379,-92,-153,-46,566,1819
238,-601,-588,-444,306,-183,-333,-30,987,3085
-114,-967,-748,-580,220,-316,-424,23,1213,3876
-70,-935,-772,-678,-166,-430,-376,73,1132,3456
115,-232,-482,-657,-506,-506,-304,5,664,2292
414,611,-99,-583,-781,-648,-380,-215,220,1811
705,719,-40,-600,-1025,-750,-429,-254,190,2095
936,558,3,-473,-1054,-637,-296,-157,126,1642
963,455,71,-338,-1093,-500,-124,-58,121,1279
821,399,53,-241,-1210,-353,4,-29,115,1817
190,423,238,80,-889,30,291,16,-230,519
-511,536,511,489,-359,358,670,253,-682,-2097
-1049,520,663,715,-406,511,1023,609,-695,-4428
-1434,491,901,981,-452,699,1076,644,-667,-5464
-1478,418,1033,1195,-97,872,756,170,-1036,-5298
-1382,203,854,1107,435,784,282,-336,-1340,-4506
-1208,-11,617,962,1269,596,-254,-698,-1327,-3331
-1043,-246,235,647,1992,600,-354,-485,-922,-2179
-964,-597,-248,179,2243,636,-157,-187,-484,-1381
-693,-860,-627,-228,1993,379,-186,-185,-146,-575
-261,-882,-808,-511,1165,86,-232,-155,200,343
125,-710,-775,-602,312,-6,-153,-4,451,995
429,-498,-605,-508,-32,-110,-148,128,652,1752
415,-387,-455,-404,-82,-188,-249,61,557,2128
294,-87,-112,-141,83,-92,-266,-163,57,1097
143,247,219,66,176,40,-91,-54,-171,-289
-262,262,229,68,207,117,79,161,-121,-1106
-576,123,91,-33,228,111,109,133,-187,-1283
-439,107,48,-125,38,-23,56,118,-142,-768
-159,174,122,-106,-99,-75,81,174,-29,-387
46,254,205,-53,-188,-58,157,252,33,-144
254,282,187,-20,-203,12,196,321,256,352
471,223,89,-81,-267,-45,116,283,542,1028
689,169,-3,-180,-483,-238,-22,132,663,1578
756,125,-107,-254,-712,-385,-112,37,669,1832
617,-58,-296,-397,-892,-477,-80,239,779,1874
412,-84,-259,-316,-877,-394,41,341,603,1215
274,226,176,71,-641,-131,202,250,16,-393
211,405,402,331,-119,279,299,128,-439,-1484
155,271,282,324,358,429,248,11,-489,-1261
225,108,132,226,485,242,49,-130,-412,-591
132,-165,-87,49,208,21,-7,-47,-210,90
-62,-230,-103,14,-110,-83,30,83,-21,447
-87,-261,69,140,-246,-110,-32,0,-18,462
81,-441,-68,147,-42,83,-5,8,62,356
165,-441,-197,108,456,268,46,32,83,-127
12,-421,-156,64,756,255,23,16,24,-399
207,-60,-61,-23,423,80,-63,-55,-42,-247
449,270,25,-61,98,-33,-89,-94,-51,34
505,95,-27,-74,-34,-14,-4,-6,115,426
584,117,-22,-133,-239,-80,-1,10,207,800
687,283,-36,-281,-490,-255,-132,-22,382,1483
744,239,-163,-483,-784,-475,-248,34,774,2331
673,139,-247,-593,-1031,-622,-335,67,1006,2837
518,126,-213,-495,-1044,-557,-338,14,800,2238
263,148,-66,-263,-924,-393,-247,26,489,1249
-37,301,143,-10,-711,-302,-113,43,185,314
-511,198,162,103,-586,-243,45,56,-64,-571
-841,155,210,206,-504,24,206,87,-204,-1300
-852,15,183,207,-148,217,182,30,-227,-923
-506,-119,118,231,405,253,91,-50,-243,-328
-275,-110,167,346,786,311,85,-89,-378,-590
-252,-193,105,342,1199,493,102,-97,-423,-1004
-189,-159,95,292,1324,395,73,-125,-385,-857
-50,25,47,219,825,295,85,-84,-321,-1000
76,70,-34,59,259,436,197,43,-43,-749
134,-68,-142,-96,128,460,120,-5,214,50
209,-173,-274,-200,216,383,4,-71,316,863
-14,-309,-353,-288,145,295,5,-32,277,1094
-280,-163,-184,-240,-41,161,-31,-139,-37,352
-341,11,35,18,137,225,28,-228,-527,-991
-482,-6,151,249,483,361,138,-240,-851,-1867
-381,41,167,270,503,310,164,-231,-868,-2175
-143,-1,76,170,216,200,131,-158,-580,-1728
144,-18,61,74,-100,76,70,-101,-156,-604
346,93,82,76,-324,-61,-28,-42,206,483
222,104,19,-22,-507,-154,-97,63,413,962
136,37,-120,-165,-500,-82,-153,55,455,647
256,55,-164,-189,-154,-72,-240,-54,420,864
188,-104,-232,-232,189,-344,-338,-129,497,1762
77,-120,-289,-368,-93,-724,-380,-130,575,2150
136,62,-188,-329,-444,-579,-216,-13,333,1177
159,106,-67,-189,-422,-208,30,40,-37,-96
227,225,100,-52,-416,-101,106,-69,-274,-601
175,426,324,194,-300,45,116,-267,-701,-1054
-40,414,421,349,-172,244,221,-107,-845,-1695
-337,76,149,165,-289,217,354,470,-202,-1423
-500,-213,-55,-3,-243,233,259,435,13,-639
-564,-368,-193,-80,184,261,23,114,-133,-50
-470,-452,-307,-162,506,57,-245,-110,-93,607
-293,-548,-453,-296,319,-198,-404,-188,69,1075
-65,-545,-468,-298,155,-288,-446,-240,107,1134
-80,-586,-514,-261,368,-122,-383,-290,-36,775
-356,-670,-618,-229,453,189,-231,-287,-218,-147
-591,-659,-535,-155,215,399,-161,-342,-376,-625
-651,-519,-322,-67,-29,431,-144,-395,-344,-371
-416,-289,-109,53,-213,363,-125,-347,-151,359
-277,-281,-118,-2,-370,201,-87,-119,146,1031
-308,-278,-139,-48,-259,103,-54,-15,143,738
-240,-80,-12,1,155,-83,-61,-82,-182,-603
-260,70,98,16,569,-399,-70,-72,-465,-1694
-174,207,181,69,558,-618,-48,9,-547,-1946
15,498,515,265,333,-674,49,165,-386,-1630
163,713,748,401,145,-780,107,275,-187,-1102
267,735,783,450,-168,-715,208,370,-123,-511
185,541,639,428,-158,-417,324,493,58,-343
206,405,555,410,-11,-250,414,554,228,-355
476,384,529,390,-291,-317,378,531,365,-155
802,427,461,349,-640,-419,279,456,478,16
825,465,389,266,-642,-319,179,315,481,109
610,473,211,190,-152,-71,124,217,454,278
340,478,129,68,274,-35,82,193,416,525
78,304,44,-152,125,-25,144,276,411,569
154,-17,-82,-149,176,28,38,140,308,519
481,-176,-113,-64,331,21,-138,-25,240,590
704,-223,-169,-81,232,25,-136,-14,291,786
926,-6,-112,-77,42,136,-91,-19,224,973
890,362,84,-18,-44,226,-74,-46,84,856
246,140,16,3,87,306,-2,-32,170,659
-427,-353,-217,-35,267,264,21,1,320,789
-727,-359,-323,-208,109,11,0,169,370,705
-874,65,-133,-281,-332,-239,-39,114,232,480
-643,182,10,-232,-672,-231,3,-8,59,387
-15,262,71,-152,-833,-228,49,2,62,717
612,406,136,-133,-1152,-395,-1,30,121,1204
1073,405,132,-154,-1441,-453,-107,9,201,1637
1134,318,124,-122,-1349,-280,-169,-43,174,1581
911,239,134,-67,-888,-149,-225,-94,44,1222
458,56,42,-60,-150,-113,-324,-229,-92,865
-302,-148,-53,-15,844,73,-286,-318,-224,-345
-807,-143,3,81,1396,352,-17,-136,-129,-1402
-914,-193,-36,64,1157,466,209,8,6,-1440
-792,-267,-90,40,739,360,323,20,135,-985
-615,-368,-149,33,296,212,281,66,161,-704
-300,-406,-119,54,42,169,206,138,113,-602
305,-282,-8,164,196,259,107,61,-45,-532
771,-257,-4,238,665,416,-18,-132,-285,-456
699,-391,-53,315,993,526,-30,-204,-478,-921
-24,-453,-101,278,1003,422,36,-152,-573,-1734
-395,-215,-137,140,873,210,-70,-203,-668,-1716
-574,75,-44,91,593,181,-139,-283,-664,-1127
-670,139,124,115,401,167,-116,-298,-600,-652
-122,265,158,65,287,45,-148,-317,-470,-88
197,228,33,-77,113,-74,-121,-185,-193,39
124,185,-68,-233,-171,-186,-101,25,111,-388
-29,274,-61,-289,-364,-299,-147,27,306,-100
-7,162,-185,-410,-536,-421,-231,-38,539,1341
126,152,-201,-506,-673,-575,-360,-94,709,2859
97,49,-250,-584,-761,-609,-295,180,1022,3017
41,-81,-280,-505,-639,-468,-136,335,1021,2238
-167,-48,-152,-285,-391,-253,-8,250,562,1097
-505,134,165,67,-55,44,178,132,-115,-829
-704,308,476,438,264,339,356,55,-756,-2567
-552,274,473,473,285,381,380,34,-824,-2403
-361,88,239,241,52,224,318,105,-456,-1305
-185,-43,59,71,-155,55,194,103,-121,-354
56,-16,36,42,-242,-39,43,-50,-48,169
223,87,129,111,-276,-121,-79,-169,-27,170
215,29,82,73,-330,-179,-71,-8,161,99
15,-192,-85,-44,-356,-116,76,162,206,-186
-133,-321,-178,-60,-264,-12,120,94,122,-336
-197,-449,-276,-125,-260,64,90,12,73,-55
-316,-440,-227,-18,-127,271,165,-18,-126,-285
-403,-385,-223,109,196,575,290,33,-288,-712
-371,-325,-182,173,454,692,249,-17,-376,-791
-211,-215,45,268,607,638,128,-113,-515,-1030
92,-102,206,351,789,540,85,-145,-536,-1060
388,-201,76,232,665,384,-17,-190,-334,-358
672,-249,-89,34,245,130,-144,-164,43,816
865,-268,-290,-242,-188,-139,-236,-38,575,2339
853,-305,-497,-525,-639,-395,-305,7,827,3164
765,-34,-444,-603,-937,-568,-349,-37,739,2994
582,221,-253,-567,-1048,-691,-364,-124,552,2453
581,247,-108,-475,-1469,-845,-223,-37,576,2077
659,327,19,-285,-1917,-815,46,161,492,1376
589,326,27,-129,-1754,-476,259,272,389,440
366,348,208,71,-1090,-66,472,368,202,-840
41,472,494,345,-725,201,724,455,9,-1730
-183,461,571,517,-601,660,776,260,-299,-1706
-280,479,634,705,346,1022,523,-132,-683,-1607
-428,502,717,777,1472,656,216,-222,-754,-1792
-765,336,644,683,1349,89,22,10,-473,-1908
-1015,91,489,652,937,172,-172,-49,-355,-1745
-902,-62,340,691,1432,531,-394,-425,-602,-1594
-774,-255,135,593,2204,584,-573,-722,-879,-1800
-953,-720,-362,267,2534,687,-494,-769,-1040,-2108
-1191,-1245,-883,-84,2366,1121,-230,-703,-1093,-2256
-976,-1250,-865,-141,1772,1021,-294,-772,-992,-1701
-698,-1054,-758,-225,979,629,-270,-536,-529,-707
-457,-889,-729,-430,259,247,-173,-168,121,346
-193,-576,-475,-472,-246,-240,-288,2,603,1324
115,-187,-187,-510,-605,-693,-390,105,874,2093
410,107,-201,-663,-755,-963,-424,103,886,2474
302,235,-215,-727,-683,-995,-334,120,654,1695
263,437,-45,-534,-547,-832,-60,263,248,259
393,614,191,-282,-603,-702,110,310,-44,-356
526,624,305,-118,-726,-638,108,299,26,352
716,676,363,-32,-761,-566,74,288,200,912
835,706,390,5,-731,-440,139,348,354,645
913,573,249,-103,-895,-428,142,430,621,905
908,294,44,-257,-1107,-490,112,406,747,775
873,272,102,-171,-1139,-453,129,292,433,-8
759,371,279,33,-1019,-289,166,243,43,-374
519,358,327,176,-788,-64,223,249,30,207
171,185,222,180,-290,216,216,204,64,858
-382,-11,129,192,511,384,210,159,-41,130
-805,-116,80,170,669,310,264,173,-36,-581
-775,-105,64,147,222,158,242,100,-22,-380
-667,-15,114,301,407,295,295,-88,-413,-953
-448,-63,103,363,701,370,352,-25,-497,-1542
215,-176,-49,214,244,204,246,64,-284,-1260
1116,-44,-47,146,-121,186,121,-63,-227,-663
1523,1,-140,247,303,421,14,-178,-143,36
962,-413,-282,246,880,539,-52,-149,37,652
-15,-538,-311,86,719,396,-119,-93,201,837
-744,-362,-249,-18,405,152,-264,-170,262,580
-956,-422,-184,-46,372,28,-341,-252,354,532
-628,-162,-156,-137,418,-123,-381,-224,437,742
-133,326,-79,-283,151,-354,-384,-101,525,1247
-7,485,-74,-365,-277,-495,-372,-36,338,1348
23,369,-38,-288,-371,-418,-317,-99,-15,983
81,359,-19,-181,-301,-309,-263,-179,-285,351
180,301,-32,-279,-404,-374,-289,-157,-129,803
343,30,-297,-467,-643,-519,-339,-44,286,2082
397,-30,-337,-468,-803,-525,-264,29,420,1818
210,161,14,-162,-639,-271,-65,-23,91,45
-43,333,294,164,-398,6,110,-83,-228,-1049
-259,311,381,263,-364,137,222,8,-302,-1195
-567,166,337,279,-286,347,438,240,-348,-1961
-799,148,409,446,162,658,496,134,-656,-2942
-928,21,342,469,563,728,440,-49,-787,-2936
-871,-205,77,254,679,394,402,58,-536,-2137
-491,-153,17,219,409,257,323,236,-288,-1318
-263,-137,117,326,217,354,288,313,-125,-834
-320,-363,80,395,407,451,232,195,-72,-585
-512,-732,-195,408,877,558,46,-121,-255,-519
-452,-827,-301,319,1077,487,-161,-334,-373,-409
-289,-743,-309,193,1054,260,-300,-392,-313,-156
-303,-767,-445,-11,812,112,-236,-302,-135,141
-12,-599,-517,-217,339,119,-161,-189,143,689
454,-228,-452,-354,-77,-102,-342,-225,388,1366
697,136,-352,-383,-349,-441,-573,-301,571,1858
753,245,-351,-439,-557,-626,-587,-225,746,2222
576,219,-318,-527,-746,-660,-397,-29,799,2512
384,544,14,-491,-764,-617,-245,28,438,1682
-37,615,306,-211,-495,-370,8,111,-21,-374
-70,562,452,64,-293,-136,218,195,-240,-1378
117,528,408,79,-446,-73,338,323,-48,-820
230,391,265,-23,-809,-157,386,405,252,204
423,324,189,-56,-973,-250,265,281,405,1006
615,294,140,-84,-1122,-386,69,111,503,1787
602,249,102,-122,-1323,-513,-18,162,578,1666
333,198,117,-59,-1013,-256,119,325,388,366
60,140,112,89,159,237,118,95,-132,-277
-150,122,168,208,1251,350,-40,-225,-544,-393
-380,69,172,188,1138,199,35,-52,-547,-1206
-540,74,248,261,644,271,259,197,-476,-2137
-650,27,272,319,480,425,353,158,-573,-2527
-595,-30,201,297,535,424,280,53,-524,-2137
-490,-72,156,282,617,343,152,-50,-440,-1455
-444,-231,24,231,630,258,80,-105,-386,-1000
-75,-375,-147,119,456,200,78,-57,-255,-635
637,-348,-128,102,273,177,51,-83,-171,-314
1195,-269,-120,125,210,131,11,-97,-101,-7
1213,-328,-211,68,140,97,34,-7,68,307
468,-475,-295,-47,62,120,101,94,259,632
-438,-303,-255,-151,12,73,45,54,355,778
-672,175,-6,-168,-69,-112,-145,-135,320,1206
-158,355,91,-176,-342,-309,-289,-254,262,2235
288,156,-44,-207,-616,-403,-279,-208,417,2900
366,-7,-287,-357,-842,-457,-177,100,849,2856
543,8,-333,-503,-1133,-588,-218,184,1142,2869
589,-29,-318,-597,-1497,-774,-311,61,1163,2447
411,-72,-364,-626,-1632,-726,-232,96,959,1745
180,-39,-298,-486,-1111,-313,-44,71,387,1126
117,100,-75,-227,-357,89,197,121,-141,-134
383,445,302,106,-225,245,317,124,-508,-1495
627,555,465,274,-499,325,255,-21,-539,-1283
493,483,494,397,-315,349,69,-211,-443,-856
99,290,384,447,337,251,-94,-249,-345,-836
-494,63,270,429,670,1,-136,-210,-382,-1005
-874,100,385,557,380,84,-10,-142,-555,-1535
-1136,80,432,685,438,637,253,-64,-679,-2397
-1155,-17,446,708,1113,698,143,-253,-904,-2719
-1167,-395,13,328,1616,536,175,-164,-811,-2486
-1159,-735,-447,-62,1296,589,453,211,-442,-1942
-958,-608,-378,-45,1071,614,402,209,-351,-1412
-627,-216,-73,91,815,473,191,12,-387,-1012
-306,34,96,123,460,263,-61,-178,-328,-495
-70,-60,18,66,567,110,-290,-238,-36,618
79,-321,-333,-215,691,-161,-410,-58,533,1975
235,-403,-534,-541,371,-456,-479,54,934,2498
440,-321,-560,-716,-158,-664,-522,100,1061,2496
384,-251,-475,-723,-567,-690,-409,193,919,1775
221,-130,-304,-529,-639,-525,-187,225,578,636
150,64,-35,-231,-528,-232,115,215,111,-317
138,238,218,48,-355,70,342,214,-290,-830
259,342,365,223,-199,218,337,187,-388,-654
309,276,311,230,81,259,253,125,-343,-459
95,203,214,235,533,347,186,60,-428,-1124
-190,209,226,266,669,345,140,-26,-642,-1907
-256,286,273,321,661,278,129,-93,-754,-2064
-43,305,189,301,538,140,72,-102,-576,-1340
166,225,70,216,306,-39,-43,-112,-373,-594
206,150,176,173,87,-153,-145,-148,-259,-195
149,41,234,137,-53,-184,-184,-165,-82,8
90,-23,143,101,-78,-90,-118,-178,-29,123
9,-38,-15,29,-132,-36,-82,-176,-53,61
-85,-195,-181,-137,-168,-8,-35,-9,84,-22
-8,-410,-324,-218,-52,53,36,148,198,-12
191,-394,-269,-159,83,64,-40,35,93,43
294,-192,-130,-96,82,80,-124,-97,15,108
114,-197,-145,-98,76,181,-55,-127,-69,243
-41,-160,-172,-115,78,256,40,-164,-243,361
-144,-51,-174,-171,-10,174,67,-11,-133,282
-171,-70,-152,-195,-76,82,-8,86,-25,61
-40,-69,-121,-144,-84,42,-47,33,-31,93
141,59,-60,-115,-153,-88,-113,-47,2,476
204,28,-27,-141,-315,-280,-206,-51,197,1142
303,-92,-107,-199,-522,-434,-223,42,512,1815
567,-130,-194,-291,-674,-581,-245,97,634,2143
661,-58,-248,-381,-741,-663,-257,121,637,2156
366,157,-97,-282,-737,-531,-146,166,459,1468
76,303,129,-43,-741,-359,60,204,131,237
10,349,228,213,-627,-153,216,212,-165,-886
124,364,229,237,-503,-51,220,186,-167,-1212
194,178,161,164,-455,-78,196,197,-35,-823
189,109,189,107,-585,-144,178,232,99,-329
133,212,103,56,-438,58,113,125,61,-9
-77,74,-97,78,309,341,9,-50,-81,327
-193,31,-34,135,891,312,-76,-191,-213,42
-351,98,88,123,776,121,-113,-191,-191,-295
-521,-120,-75,22,433,5,-63,75,152,-157
-426,-320,-122,-17,294,9,-67,144,371,223
-54,-272,-140,-54,264,-11,-120,21,373,445
7,-207,-176,-109,173,-113,-162,-53,338,455
45,-244,-294,-177,28,-193,-191,-72,275,253
167,-197,-261,-149,65,-105,-171,-67,222,-44
158,-126,-144,-90,282,31,-112,-77,105,94
-80,-160,-53,-12,408,62,-64,-30,175,785
10,58,88,-12,161,-53,-105,-19,327,1477
223,278,140,-60,-116,-161,-139,-78,346,1371
202,168,103,-71,-179,-174,-101,-82,109,634
173,83,71,-109,-220,-177,-79,-108,-109,-139
88,205,124,-109,-224,-146,-58,-152,-276,-614
-48,358,268,14,-106,-17,16,-133,-456,-1303
-175,305,310,148,44,144,162,-47,-557,-1396
-367,245,347,258,117,259,300,78,-499,-1469
-432,196,288,299,137,295,309,118,-372,-1281
-573,73,128,316,175,314,269,35,-391,-1054
-666,16,215,342,0,257,335,52,-366,-1165
-468,55,355,398,-214,223,351,95,-254,-1138
-83,107,407,441,-251,216,237,0,-221,-734
154,50,271,371,-26,164,73,-55,-179,-387
128,-81,31,190,379,102,-54,51,-17,-276
21,-224,-70,100,460,157,-117,-35,-28,-143
-166,-435,-225,53,478,206,-127,-147,-118,-68
-127,-268,-192,86,709,-1,-275,-330,-255,-33
136,-61,12,88,565,-86,-280,-432,-381,18
666,-83,14,29,194,80,-16,-234,-253,89
1052,-291,-240,-132,-94,201,290,141,63,202
882,-503,-449,-285,-304,254,502,500,490,555
323,-625,-502,-373,-474,193,532,652,949,1218
-49,-246,-394,-490,-688,-35,294,544,1258,1917
-164,376,-185,-514,-788,-292,-118,203,1057,2158
-512,218,-201,-509,-682,-422,-383,-44,823,2080
-479,-51,-222,-508,-374,-555,-511,-201,557,1972
-99,95,-40,-301,-87,-558,-485,-302,40,1503
101,240,143,-68,-25,-320,-269,-234,-286,598
-20,117,78,-47,-209,-191,-100,-83,-189,101
-210,103,123,-8,-379,-101,54,-3,-254,-862
-388,139,268,142,-421,6,226,34,-454,-1563
-514,68,289,265,-107,219,327,38,-610,-1926
-490,99,313,381,432,380,303,43,-681,-2109
-371,146,315,382,474,292,192,0,-553,-1583
-194,169,261,290,265,176,110,26,-275,-931
-115,99,113,208,265,245,104,50,-120,-500
-121,-65,-72,122,302,211,24,-48,-108,21
-115,-246,-253,-11,340,51,-91,-139,4,620
-6,-335,-290,-180,112,-127,-141,-130,135,1296
335,-155,-216,-239,-340,-231,-186,-60,377,2076
526,-30,-186,-259,-491,-216,-218,65,697,2236
442,-98,-235,-262,-192,-113,-175,134,786,1352
355,-176,-338,-341,4,-119,-175,109,718,355
542,-221,-460,-491,-125,-324,-314,19,728,998
705,-150,-391,-455,-156,-444,-367,-155,398,1640
811,199,11,-157,-75,-394,-280,-312,-197,1465
649,232,133,-62,-125,-285,-196,-255,-327,1106
275,81,58,-39,-95,-117,-81,-39,-225,-38
-86,214,247,193,155,116,83,-38,-510,-1698
-462,286,456,449,395,284,212,-63,-707,-2838
-702,208,514,613,392,356,309,-59,-736,-2779
-977,49,406,568,360,541,476,2,-829,-2854
-1092,-119,249,423,282,515,504,140,-758,-2727
-1044,-86,361,551,170,438,372,99,-703,-2511
-908,-99,464,670,250,638,253,-33,-620,-2014
-585,-112,380,583,389,884,141,-146,-552,-1398
-213,-20,219,416,632,803,1,-240,-461,-821
-77,-37,-45,91,846,436,-83,-174,-260,-397
-125,-220,-268,-224,648,106,-71,113,128,-155
91,-81,-234,-329,41,-14,-12,218,307,145
133,68,-169,-334,-261,-17,45,170,324,387
55,-3,-181,-343,-322,-27,77,147,485,764
103,2,-234,-427,-429,-158,4,123,612,1259
175,-75,-342,-504,-572,-372,-129,110,825,1809
284,-270,-475,-556,-661,-569,-260,132,1104,2493
451,-386,-572,-643,-848,-786,-329,170,1314,3128
626,-316,-517,-650,-1092,-868,-325,160,1317,2868
664,-111,-253,-376,-1085,-745,-221,144,797,1984
670,150,96,24,-723,-432,-60,47,50,900
712,460,470,412,-38,-82,112,-89,-644,-484
678,538,665,647,324,65,228,-146,-1019,-1402
674,403,653,696,312,-67,165,-142,-991,-1634
854,330,550,562,115,-144,107,-70,-743,-1440
639,114,318,435,428,273,229,71,-539,-1598
86,-179,78,339,1068,542,223,67,-435,-1457
-192,-7,57,213,1190,310,-6,-63,-409,-1268
-530,373,240,132,740,-48,-213,-253,-501,-1319
-626,540,380,142,244,-281,-368,-395,-470,-1050
-506,110,60,-7,24,-143,-162,-149,-240,-462
-529,-312,-391,-198,-87,94,157,179,89,-49
-203,-50,-286,-176,-180,27,20,4,-22,87
-22,-58,-163,-93,-167,52,-108,-149,-83,119
142,-169,-135,-51,37,83,-119,-106,17,255
189,-54,-115,-80,150,27,-77,-39,74,499
188,291,64,-64,-196,-128,-68,-68,75,621
-144,356,194,-48,-501,-225,-75,-59,179,555
-593,185,65,-174,-527,-168,-31,74,326,541
-612,6,-120,-284,-164,-46,-14,145,338,800
-370,-68,-190,-276,216,-21,18,160,323,950
-67,61,-52,-169,86,-33,85,125,269,607
84,165,-23,-82,-208,34,215,201,293,179
48,146,-88,-31,-307,108,324,374,377,-90
142,68,-45,-34,-337,80,321,390,420,145
96,-50,-122,-35,-367,-29,241,324,439,477
-10,-190,-129,28,-278,6,137,235,393,612
46,-357,-88,74,-71,125,-3,108,347,815
18,-589,-253,27,378,402,-140,-69,208,720
-284,-766,-372,36,995,781,-174,-269,-99,-132
-355,-442,-233,37,1001,813,-222,-463,-326,-495
-301,-10,-163,-101,522,691,-246,-543,-362,-500
-591,-344,-430,-304,159,651,-133,-381,-203,-715
-625,-457,-400,-234,6,572,-36,-364,-301,-840
-501,-277,-217,-136,-90,320,39,-230,-307,-541
-336,-206,-122,-126,-184,27,9,-85,-234,71
-138,2,60,-16,-193,-213,-85,-170,-389,218
11,228,258,87,-129,-281,-35,-136,-502,-399
225,344,328,84,-148,-376,80,64,-313,-771
183,231,235,42,-198,-532,69,155,-130,-631
261,146,165,21,-264,-573,53,241,18,-275
425,215,157,-5,-347,-541,84,331,161,226
427,333,203,20,-351,-538,27,261,206,497
467,352,236,79,-291,-538,-62,80,132,556
434,289,250,141,-191,-419,-92,-88,-14,531
339,150,153,102,-60,-293,-15,-9,80,449
182,78,89,60,-49,-238,50,144,188,104
2,-36,58,42,-320,-266,51,272,317,-86
140,-21,89,57,-507,-272,24,265,378,181
566,3,53,6,-429,-151,37,198,434,663
1086,-46,-73,-75,5,-10,44,97,469,1232
1479,-200,-326,-181,441,103,36,51,536,2101
1454,-392,-559,-256,386,215,46,174,672,2889
712,-418,-415,-65,275,449,109,245,649,2390
-326,-237,-41,248,482,696,125,77,227,216
-689,-164,66,251,520,556,-5,-189,-86,-684
-506,-218,-97,-46,277,57,-247,-396,-161,-561
-225,-95,-210,-301,-118,-291,-277,-375,-276,-1037
-218,116,-75,-228,-364,-254,-158,-255,-399,-1507
-85,375,10,-114,-512,-251,-25,-62,-268,-1025
-66,349,2,-114,-622,-410,-31,171,-2,21
-326,293,178,1,-186,-395,-99,134,-153,-389
-537,113,79,108,565,-229,-84,54,-215,-746
-514,66,93,185,667,-98,-24,101,-105,-499
-418,174,265,271,358,54,65,173,-120,-393
-331,237,383,361,284,227,198,226,-278,-724
-271,296,482,471,291,254,136,36,-536,-1254
-313,195,363,424,227,170,12,-195,-701,-1495
-621,6,214,345,138,131,-5,-290,-730,-1571
-786,-94,191,301,38,125,105,-186,-569,-1475
-750,-217,33,150,-14,279,295,25,-330,-1302
-563,-308,-154,10,139,395,260,51,-139,-790
-222,-271,-181,-23,250,235,62,-19,4,-134
59,-198,-188,-97,-11,88,-16,-11,133,217
61,-236,-228,-187,-285,55,-55,-2,266,337
32,-296,-231,-141,-227,-9,-74,-12,318,449
0,-194,-165,-71,-58,-184,-94,-38,111,300
59,41,-10,-52,-235,-299,-64,22,125,344
100,214,181,-62,-519,-309,-71,75,254,571
244,256,222,-148,-711,-414,-107,136,454,983
336,149,117,-218,-609,-317,-83,192,697,1391
147,-101,-56,-204,0,-48,-20,201,647,1586
-22,-294,-221,-266,351,-75,-26,197,520,1364
113,-60,-133,-254,-10,-279,-57,126,329,361
129,119,47,-112,-383,-351,-34,64,112,-300
107,106,117,-34,-523,-216,45,57,19,-123
171,177,188,56,-567,-26,168,90,-105,-213
226,442,441,262,-360,189,226,98,-248,-776
208,541,525,333,-82,415,278,106,-313,-934
139,195,184,151,310,563,321,128,-298,-547
251,-23,-51,-7,712,288,134,50,-224,138
461,-18,-75,-74,464,-38,42,0,-80,743
593,58,-16,-36,-111,-47,56,29,-16,1068
477,125,34,27,-280,51,43,22,-5,831
428,169,31,69,-229,0,-40,-10,20,502
645,227,-10,61,-124,-204,-204,-101,12,309
682,173,2,27,163,-147,-289,-219,-11,-138
448,-94,-90,17,709,191,-255,-291,24,-268
61,-358,-298,-105,1116,332,-256,-302,96,69
-286,-326,-386,-258,803,150,-226,-148,239,415
-639,-420,-426,-326,235,33,-83,102,336,260
-732,-272,-241,-185,118,64,-41,62,96,-497
-589,26,11,29,218,72,-106,-113,-208,-1074
-361,6,49,108,252,42,-169,-248,-367,-876
-97,-284,-89,41,225,47,-164,-246,-418,-568
-2,-256,-104,27,236,101,-82,-187,-438,-566
-15,-38,-16,80,200,123,-18,-139,-361,-449
-177,-123,-32,77,90,116,19,-93,-208,84
-261,-6,15,61,-89,-27,-19,-140,-150,552
-393,121,150,171,-217,-146,-52,-251,-227,468
-312,402,397,296,-401,-239,-67,-273,-240,169
-236,506,467,260,-626,-337,-28,-34,-2,-174
-144,263,257,157,-616,-261,86,311,407,-53
100,-60,-31,12,-314,-88,107,371,591,485
177,-421,-341,-209,-3,-75,21,238,524,762
294,-499,-454,-403,-175,-225,-121,40,366,745
414,-281,-311,-350,-422,-236,-206,-173,106,485
455,-185,-224,-268,-240,-132,-133,-116,-13,158
350,-38,-116,-222,-168,-28,44,163,-49,-456
381,265,132,-42,63,92,23,54,-320,-902
540,264,102,37,321,128,1,-65,-380,-707
279,150,3,58,390,224,138,-31,-325,-813
-40,150,21,114,421,366,218,-36,-327,-660
-203,-2,-41,90,552,443,122,-115,-311,-145
-567,-250,-135,38,558,425,33,-169,-274,177
-789,-267,-157,39,431,423,39,-182,-264,76
-887,-334,-134,45,327,529,143,-73,-178,-152
-893,-320,-49,55,192,501,206,24,-75,58
-658,67,83,47,-46,310,117,23,37,86
-421,100,18,-34,-126,236,-23,-6,247,313
-281,-84,-121,-166,-111,147,-104,-31,364,632
-109,-29,-114,-244,-9,-31,-163,-108,212,386
-31,53,-57,-223,-26,-195,-78,-18,47,-313
245,188,59,-120,-206,-295,-13,48,-43,-320
638,411,238,44,-249,-306,-35,-42,-139,-156
940,564,342,159,-281,-321,-9,-20,-47,-192
759,480,289,151,-469,-340,75,69,138,72
363,175,54,2,-659,-311,146,238,324,377
321,-49,-85,-107,-750,-407,116,330,584,972
595,-111,-129,-199,-891,-773,-110,168,683,1793
836,-37,-118,-192,-981,-880,-261,-6,584,2020
866,32,-105,-161,-649,-544,-266,-108,504,2121
758,-13,-120,-258,-337,-483,-308,-138,594,2424
441,-34,-117,-292,-387,-575,-297,-88,359,1588
47,16,-36,-193,-497,-482,-161,-99,-71,-258
-81,1,-80,-118,-465,-274,97,57,-6,-1474
13,22,4,-19,-377,-45,323,341,293,-1417
79,-130,-28,82,-98,152,312,387,251,-1017
-342,-433,-189,142,183,327,306,381,123,-939
-725,-261,-33,306,732,599,270,193,-294,-1412
-1183,-81,308,594,1733,872,348,0,-927,-2889
-1302,-32,423,654,1883,814,346,-102,-1150,-3100
-957,194,414,480,1251,523,131,-280,-1126,-2332
-594,67,266,336,854,405,29,-370,-950,-1668
-448,-219,53,271,755,398,12,-344,-705,-1232
-420,-365,-218,142,586,293,4,-215,-467,-893
-259,-478,-371,6,336,161,26,-30,-169,-470
181,-7,-84,-20,92,-19,-52,-17,-35,-80
343,301,131,-34,-154,-139,-28,71,35,140
23,87,141,-3,-315,-109,134,242,164,346
-151,44,97,-58,-480,-92,221,303,314,585
-240,137,0,-200,-604,-113,169,295,426,921
11,452,-10,-289,-737,-277,28,202,479,1395
365,404,-50,-345,-928,-342,-6,196,599,1830
591,158,-108,-349,-852,-212,-27,193,678,2107
644,88,-107,-291,-544,-139,-112,132,625,2300
600,108,-71,-220,-143,-187,-194,92,544,1916
514,212,40,-111,76,-167,-163,55,405,1042
421,374,140,110,173,-17,-87,-117,79,31
242,192,95,156,319,83,-5,-219,-165,-506
-12,-235,-143,-18,407,2,13,-62,-11,-370
-138,-423,-197,-8,347,-26,-27,-11,1,-198
-261,-427,-149,128,291,154,110,76,-129,-689
-123,-190,7,281,469,297,112,-34,-369,-1224
80,39,67,218,571,234,-9,-131,-364,-975
261,258,77,108,451,67,-56,-131,-205,-525
3,213,112,85,334,65,-95,-178,-246,-510
-432,-100,47,106,408,347,-54,-183,-320,-775
-807,-368,-36,108,470,739,42,-106,-301,-993
-869,-214,86,165,356,963,65,-195,-416,-1113
-643,-203,37,89,65,950,95,-304,-454,-840
-311,-357,-158,-35,-221,763,141,-294,-473,-684
34,-343,-207,-91,-427,496,131,-235,-381,-535
195,-327,-310,-190,-381,270,55,-83,-129,-201
15,-348,-328,-167,122,68,-85,-180,-106,158
-139,-101,-108,-80,463,-295,-272,-446,-321,371
-191,160,-41,-127,106,-596,-260,-316,-222,423
-213,143,-55,-158,-556,-741,-34,122,181,520
-70,30,96,-28,-967,-770,148,400,523,858
210,68,104,-46,-1321,-852,130,498,782,1297
648,334,152,-168,-1720,-1063,-47,460,1058,1652
837,464,212,-187,-1712,-1008,-193,305,915,1493
605,181,-47,-256,-1016,-505,-113,179,516,1134
409,30,-288,-261,231,-106,-62,111,266,818
256,144,-159,-102,1131,-119,-64,7,-68,-6
81,245,135,61,644,-133,24,36,-73,-526
216,378,279,122,-81,-143,-25,46,52,-287
373,65,45,10,-386,-266,-130,-13,181,273
339,-464,-235,-31,-197,-95,-99,-21,241,680
549,-607,-227,109,576,92,-160,-144,144,675
1223,-484,-109,209,1207,86,-184,-207,-78,-25
1491,-315,1,275,1042,218,107,9,-409,-1102
913,-76,17,312,688,445,375,223,-405,-1382
-74,416,134,245,571,519,241,119,-361,-1076
-771,799,203,138,580,355,-132,-202,-457,-784
-1340,543,100,36,509,47,-343,-367,-443,-738
-1577,-138,-97,-53,445,-118,-261,-257,-226,-619
-1425,-187,-70,12,285,-103,-191,-184,-87,-337
-1169,20,62,27,86,-159,-273,-252,-70,0
-957,78,148,19,-47,-213,-319,-304,-128,343
-511,92,40,-70,-207,-256,-211,-86,140,1189
68,73,-67,-279,-475,-385,-123,158,507,2267
345,20,-106,-446,-739,-528,-74,235,674,2492
450,65,-86,-450,-878,-500,78,360,755,1966
573,141,0,-340,-940,-425,182,364,719,1495
644,95,18,-242,-933,-338,271,370,645,809
665,-23,-7,-173,-777,-182,316,393,597,-2
625,-192,-88,-127,-471,0,302,366,461,-100
486,-294,-127,-8,57,110,202,338,210,-431
298,-278,-54,153,608,112,0,125,-115,-894
-58,-221,82,269,866,182,3,-58,-402,-1186
-280,-77,174,310,735,255,64,-92,-509,-1349
-244,238,282,267,458,160,-28,-136,-568,-1400
-354,205,199,124,206,34,-124,-179,-413,-885
-630,-159,-24,-19,157,74,-103,-210,-348,-270
-772,-378,-100,50,224,162,-36,-223,-501,-233
-690,-162,39,288,247,249,45,-207,-647,-1014
-487,-5,270,450,221,335,155,-108,-641,-1542
-105,38,433,484,53,313,243,36,-450,-1545
367,134,348,309,-192,187,184,80,-225,-983
246,17,80,35,-274,139,113,2,-122,-300
246,43,-55,-145,-152,69,23,-153,-125,317
306,292,7,-261,-191,-63,-17,-44,76,759
130,634,158,-310,-459,-152,-42,143,261,683
-75,676,237,-176,-325,-142,-139,69,268,340
57,389,149,-59,-10,-96,-147,13,291,291
472,220,14,-57,43,-68,-84,-12,239,570
645,76,-102,-91,-57,-90,-112,-103,196,872
466,-97,-125,-90,-95,-193,-211,-180,153,1037
16,-205,-154,-89,-43,-104,-200,-180,79,770
-439,-292,-99,-18,320,124,-118,-218,-100,-160
-713,-370,-24,141,658,335,74,-151,-274,-1385
-403,-204,24,151,399,369,263,59,-237,-1669
-142,-57,68,126,150,351,356,148,-174,-1345
57,-34,91,178,140,344,270,-33,-233,-842
142,-108,9,155,102,373,204,-107,-225,-349
4,-188,-52,105,-27,427,247,21,-134,-243
-104,-211,-97,22,-149,515,282,118,-53,-303
-139,-223,-138,-35,-37,566,188,56,-65,-220
-331,-387,-216,-8,354,493,88,22,-25,116
-369,-292,-26,37,450,231,4,-9,20,440
-224,18,162,-6,64,-35,-124,-102,-31,475
-98,75,26,-204,-265,-167,-150,-52,60,603
-31,-38,-111,-284,-254,-265,-140,33,210,802
-141,-197,-161,-218,-166,-371,-141,58,285,808
145,204,78,-90,-161,-527,-291,-100,234,932
692,777,280,-50,-247,-635,-442,-205,230,1199
618,462,76,-115,-344,-526,-225,183,643,1248
471,-22,-158,-193,-500,-464,-72,433,959,1952
572,7,-166,-253,-660,-551,-193,189,771,2496
706,113,-149,-324,-806,-637,-323,-69,437,2073
361,70,-119,-271,-845,-565,-258,-119,74,637
-77,143,77,-32,-702,-210,40,-100,-435,-1165
-366,157,210,160,-364,194,379,25,-687,-2540
-501,60,158,210,104,429,505,108,-614,-2453
-485,125,267,345,206,333,428,121,-430,-1736
-527,197,400,434,-35,165,265,130,-175,-1232
-467,167,337,405,54,302,124,106,-25,-888
-528,-71,109,325,572,575,53,-9,-157,-800
-497,-265,-61,227,1040,465,-37,-121,-240,-712
-158,-179,-9,215,893,158,-174,-243,-326,-576
39,-145,32,244,635,270,-222,-399,-362,-512
-37,-256,-117,180,793,391,-235,-521,-386,-399
-407,-452,-368,-21,961,356,-113,-302,-290,-297
-691,-460,-410,-169,740,267,-112,-180,-207,-325
-477,-371,-291,-220,331,283,-142,-190,-187,-202
-7,-250,-263,-259,95,279,-89,-179,-143,110
387,-12,-72,-168,51,69,-212,-353,-196,383
467,167,-60,-179,-29,-140,-214,-225,-133,508
75,-161,-351,-350,-204,-260,38,317,306,623
-4,-224,-284,-294,-324,-321,108,384,382,775
-23,-155,-136,-190,-477,-342,88,310,315,569
-139,-144,-43,-91,-695,-346,74,243,303,-52
68,-77,9,-65,-949,-384,85,202,244,-166
211,-123,-61,-133,-1059,-267,126,231,346,513
192,-244,-152,-191,-946,91,196,256,545,1800
207,-128,-146,-240,-751,233,191,208,603,2575
405,141,-145,-285,-446,140,100,149,561,2660
566,115,-284,-378,-176,47,-76,37,454,2411
570,99,-221,-326,-111,-185,-166,3,268,1480
385,232,74,-20,-61,-198,-81,-5,-172,-386
169,325,267,227,117,-138,-26,-29,-465,-1621
207,438,451,364,388,-250,20,2,-415,-1752
231,438,482,379,491,-269,65,-61,-409,-1199
103,161,239,217,465,-244,115,-77,-296,-588
82,41,115,69,75,-322,177,198,57,-94
261,86,142,89,-72,-230,164,309,137,179
323,225,284,285,312,-27,20,124,-70,-201
413,350,363,386,685,37,-101,-25,-139,-576
146,32,136,177,723,-67,-91,138,270,-408
36,-302,-112,-1,558,-80,-57,214,455,84
425,-134,-141,-41,270,-56,-80,137,376,506
456,305,38,32,154,-106,-215,-83,112,288
-72,206,72,89,159,-77,-222,-186,-238,-393
-769,-134,-1,93,184,93,28,-73,-399,-1083
-1166,-20,106,147,156,168,147,-18,-446,-1541
-1112,-94,173,229,40,166,198,21,-386,-1527
-573,37,297,312,-156,136,257,19,-321,-1373
-83,318,387,283,-425,48,220,-32,-265,-922
66,176,197,82,-616,27,208,-18,-129,-274
216,109,90,-33,-797,-24,177,-14,-13,170
229,26,40,-50,-962,-60,144,115,161,405
158,-142,-59,-80,-841,27,163,432,448,280
284,-194,-124,-82,-341,154,107,421,496,359
345,-187,-108,-93,-127,137,33,245,475,869
139,-42,17,-5,-62,-29,-94,75,340,1048
-66,-79,30,35,123,-249,-268,-50,259,1175
-140,-335,-238,-158,22,-275,-341,-113,371,1525
68,-222,-411,-327,-167,-158,-340,-158,428,1934
407,-106,-295,-383,-75,-326,-393,-142,479,2405
457,-309,-416,-432,147,-144,-259,-51,376,2066
404,11,-206,-190,736,262,-56,-86,-160,31
343,383,183,144,977,417,100,-146,-674,-1542
172,260,276,238,709,365,76,-205,-749,-1409
233,226,298,269,572,180,-123,-341,-672,-969
138,-54,154,292,705,102,-266,-483,-687,-852
-74,-453,-218,113,766,215,-79,-295,-343,-1194
-357,-325,-302,34,665,199,-50,-282,-325,-1334
-830,-40,-121,90,445,267,-46,-344,-492,-1530
-1284,-40,-91,56,314,439,111,-269,-594,-1687
-1320,-93,-129,1,232,472,223,-168,-594,-1467
-1106,-3,-78,112,289,449,124,-208,-594,-1409
-853,123,93,252,297,298,-57,-294,-537,-1406
-543,-7,9,163,137,158,-37,-179,-342,-1080
-172,-169,-187,-78,-8,65,104,40,-120,-507
-150,-448,-376,-242,-14,-35,103,129,-41,-191
-142,-518,-339,-133,49,-36,8,55,-14,-19
469,-211,-115,19,-34,-111,-124,-49,-9,411
938,-38,0,70,-133,-177,-165,-58,101,1059
1165,266,41,-25,-317,-293,-171,-2,312,1801
1181,619,87,-205,-666,-491,-258,-1,504,2741
997,480,-45,-391,-955,-532,-333,-56,539,3207
832,302,-61,-388,-884,-472,-322,-52,546,2697
778,174,2,-298,-447,-486,-216,-6,557,1597
457,47,48,-223,-324,-509,-57,121,550,615
157,368,272,-78,-450,-424,56,137,359,-214
-317,416,356,-35,-671,-444,134,257,408,-773
-806,-27,67,-157,-869,-387,283,662,808,-287
-663,3,65,-36,-782,-234,267,530,634,-121
-557,54,52,108,-596,-124,244,305,270,-790
-664,-163,-65,94,-514,-9,352,374,92,-1336
-632,-285,-70,130,-310,219,402,366,-14,-1238
-267,-73,81,196,164,367,435,323,-52,-732
40,300,245,286,500,377,326,127,-238,-375
-168,192,255,373,671,420,244,0,-355,-562
-329,-85,164,255,422,413,263,-14,-319,-649
-413,-77,141,174,215,346,191,-65,-286,-695
-463,52,273,270,448,455,18,-182,-362,-931
-167,-29,192,233,636,535,-74,-225,-398,-772
-79,-426,-177,-1,859,502,-35,-64,-202,-367
-185,-678,-475,-196,1218,439,-61,-24,-59,-18
-272,-526,-419,-169,1032,373,-133,-152,-36,439
-289,-357,-409,-235,457,174,-193,-82,243,877
89,-99,-338,-254,75,-164,-346,-32,498,1331
531,49,-160,-175,-141,-398,-431,-96,525,1529
977,206,5,-99,-320,-450,-366,-112,391,1210
1117,334,130,-29,-438,-387,-222,-38,247,688
885,539,305,39,-500,-252,55,100,58,-156
36,425,269,28,-560,-172,287,201,-117,-598
-428,479,320,-65,-778,-216,309,231,-39,-479
-168,595,397,-111,-921,-299,167,197,63,-498
119,288,195,-152,-694,-196,-5,129,53,-2
-5,-170,-116,-188,-104,148,-62,21,-35,251
-97,-277,-176,-108,393,194,-129,-125,-230,303
-207,-178,-67,5,597,-71,-269,-282,-478,-185
-444,-103,58,149,587,-170,-201,-222,-484,-998
-384,67,239,284,400,18,37,-39,-318,-1197
-100,235,274,300,173,109,135,63,-117,-794
-61,110,115,151,-6,12,3,-52,-21,-285
-184,-169,-135,-98,-68,4,19,-43,160,-32
-244,-306,-294,-197,84,39,65,-24,218,235
-278,-313,-289,-200,193,53,108,-18,321,452
-265,-271,-235,-216,-1,95,207,84,428,276
-87,-151,-124,-132,-198,75,181,136,423,403
178,-103,1,8,-302,-26,101,166,363,984
623,-18,62,109,-284,-42,115,198,222,920
1103,69,98,108,-305,-87,156,143,86,728
1321,104,81,74,-436,-120,209,115,32,632
1128,30,22,60,-564,-63,216,178,242,902
589,47,104,139,-322,-22,-32,31,288,1134
-19,0,108,197,281,-2,-291,-180,-37,426
-658,-305,-162,116,647,230,-161,-151,-262,-898
-1082,-24,-127,134,445,385,-53,-149,-563,-2074
-1202,343,164,173,300,371,-149,-256,-753,-2310
-1200,272,237,229,523,372,-138,-234,-665,-1779
-1060,-169,22,202,691,481,9,-129,-479,-1113
-618,-267,-30,143,523,475,84,-199,-420,-688
-417,-191,77,181,-1,364,131,-276,-454,-585
-303,-282,19,105,-678,206,248,-39,-175,-394
54,-18,85,-8,-1105,7,287,239,204,78
507,613,301,-30,-989,-81,57,51,105,416
494,553,205,-82,-572,-73,-92,0,96,632
376,107,-67,-227,-333,-68,-40,118,286,1055
402,-142,-215,-334,-86,-126,-42,141,395,1455
434,-178,-208,-282,158,-280,-85,118,288,1490
697,-185,-228,-270,11,-536,-140,137,339,1300
1024,-205,-199,-198,-93,-456,-172,189,404,774
1328,21,-25,-18,-5,-205,-222,55,216,-2
1532,325,164,115,186,-201,-183,-97,-53,-433
1103,245,81,62,284,-329,-95,-85,-106,-332
200,-29,-135,-87,-121,-268,138,230,94,-254
-424,140,44,18,-423,-195,216,239,23,-248
-589,224,203,120,-250,-11,147,76,-89,-127
-704,104,104,104,445,295,34,-64,-168,-92
-678,-108,-112,-3,1267,269,-165,-89,-160,-241
-431,-159,-187,-96,1190,-115,-358,-157,-116,-228
24,-45,-102,-68,503,-259,-308,-208,-97,-378
357,-234,-141,42,179,-45,-152,-213,-62,-416
455,-265,-115,52,104,-2,-144,-196,100,97
173,-59,-65,-10,-13,-174,-215,-132,130,578
-735,-126,-28,3,-187,-228,-247,-127,114,785
-1029,-40,-106,-103,-323,-5,-31,0,101,628
-729,231,-64,-155,-228,157,129,95,-4,11
-590,255,130,53,199,106,22,-76,-294,-867
-532,92,135,139,440,168,92,-60,-294,-766
-537,-132,-9,55,601,381,130,-176,-442,-497
-666,-322,-148,-5,811,483,54,-381,-667,-706
-751,-554,-368,-160,587,448,67,-200,-505,-851
-480,-729,-548,-264,211,413,35,-126,-367,-640
-280,-705,-464,-184,75,408,-125,-392,-504,-475
-325,-730,-398,-71,19,392,-172,-445,-474,-269
-376,-580,-342,-56,-13,275,-159,-229,-190,-143
-174,-166,-114,-12,95,141,-266,-243,-137,-115
262,2,-26,-42,184,-39,-272,-235,-87,98
659,157,-35,-102,186,-217,-174,-120,-5,478
838,137,-32,-97,96,-430,-109,7,104,915
740,113,-36,-105,-24,-477,-32,115,257,1107
646,199,-101,-155,-338,-542,-29,162,518,1532
899,302,-133,-303,-922,-809,-144,218,911,2160
1161,311,-154,-441,-1343,-1062,-307,168,952,2414
811,126,-182,-343,-1154,-994,-373,72,655,2154
350,-45,-53,-129,-786,-700,-230,77,388,1570
154,222,352,219,-470,-334,45,195,86,301
113,576,616,453,-246,138,432,409,-121,-1503
107,508,544,438,-48,370,555,406,-207,-2225
130,260,331,362,150,401,465,299,-288,-2082
294,126,121,252,230,419,405,232,-201,-1568
420,230,120,169,335,370,225,34,-234,-893
254,332,165,114,521,359,79,-149,-362,-553
-370,68,52,93,558,353,146,-102,-287,-552
-815,-224,84,167,265,328,243,18,-168,-683
-558,-307,47,196,39,282,257,80,-44,-607
-264,-128,86,111,-160,151,218,113,51,-622
-632,-142,144,78,-343,42,246,201,268,-529
-681,55,152,21,-357,6,225,224,331,-216
-305,464,172,-80,-254,-40,103,140,118,44
-156,363,103,-120,-106,-38,62,183,83,238
-162,167,97,-47,51,36,88,162,2,117
-289,193,145,12,232,88,26,74,-23,-135
-544,-44,-7,17,405,82,2,116,129,-266
-214,-219,-182,41,308,72,61,114,147,61
448,-54,-105,45,135,42,61,64,118,328
939,284,65,34,-6,-110,-60,-17,102,352
999,294,81,-32,-106,-212,-125,-11,128,228
597,5,-30,-70,-141,-199,-86,82,226,218
459,-6,-14,-42,-163,-182,-31,119,224,244
589,144,40,-40,-193,-185,-30,46,165,574
321,329,137,-10,-185,-298,-134,-13,124,814
-116,247,165,11,-189,-394,-233,-34,198,933
173,258,222,80,-190,-368,-347,-189,155,1164
677,99,0,23,-191,-211,-362,-276,31,1233
718,-363,-379,-157,-124,69,-147,-126,-89,794
71,-693,-468,-169,8,345,17,-35,-181,389
-1009,-749,-323,-26,102,496,-6,-124,-284,83
-1551,-207,-40,114,149,479,-3,-185,-572,-906
-1711,33,103,197,454,459,48,-187,-729,-1702
-1291,-138,66,133,691,344,10,-246,-662,-1515
-572,-18,57,42,495,107,-163,-420,-642,-968
-219,166,113,18,266,52,-150,-410,-556,-579
-155,-34,-84,-97,105,92,63,-13,-142,-316
-13,-263,-299,-211,-100,4,103,180,167,61
161,-362,-305,-245,-233,-126,22,102,212,459
238,-214,-168,-168,-375,-237,7,78,262,597
299,75,54,-69,-571,-388,-71,-20,295,713
184,188,114,-39,-650,-430,-90,-132,164,644
-75,-77,-97,-92,-665,-329,49,25,119,395
-151,-194,-86,-91,-655,-279,198,309,221,234
-19,75,60,-4,-458,-50,309,385,235,52
-3,286,164,102,-125,254,373,276,71,-344
-128,200,142,125,184,334,383,112,-81,-322
192,223,132,105,275,83,198,-173,-209,109
385,262,168,85,-238,-251,68,-109,-61,510
496,224,149,24,-664,-267,121,206,262,935
524,7,-101,-53,-263,137,141,262,345,1119
545,-143,-272,-59,483,476,103,65,159,778
674,-95,-281,-73,687,389,28,-119,-31,0
701,-159,-423,-157,435,216,-77,-244,-95,17
292,-300,-485,-205,46,249,-45,-244,-92,422
-596,-455,-351,-148,-154,419,102,-169,-180,-340
-1025,-535,-237,-37,10,684,168,-175,-453,-1446
-942,-559,-231,64,647,872,129,-264,-653,-2095
-777,-552,-221,131,1184,795,35,-317,-669,-2432
-622,-480,-240,140,1174,537,-143,-386,-663,-2227
-516,-186,-98,164,935,230,-244,-295,-522,-1565
-520,172,298,187,705,-190,-345,-149,-263,-833
-414,329,461,212,419,-482,-395,-56,-49,-255
105,331,439,239,48,-631,-240,96,200,312
773,373,484,249,-410,-752,-72,287,470,897
1304,485,540,204,-700,-806,-49,413,625,1243
1434,493,489,127,-872,-793,0,476,723,1277
1219,395,349,0,-1097,-799,16,469,754,1145
1146,533,273,-127,-1231,-753,-87,306,609,1103
976,544,194,-193,-1050,-532,-95,197,455,1337
1283,565,21,-269,-523,-338,-149,143,516,1837
1254,546,-26,-277,114,-278,-296,28,486,1855
269,55,-172,-331,357,-193,-112,175,440,1070
-475,-171,-297,-310,152,-135,24,202,214,-181
-663,19,-93,-111,27,-43,143,126,-120,-1229
-729,59,57,104,85,136,283,123,-228,-1348
-736,-169,-17,176,48,216,306,112,-187,-890
-976,-602,-116,158,-48,282,372,131,-94,-708
-988,-370,-83,104,-204,268,376,39,-105,-660
-594,66,71,122,-200,298,295,-163,-235,-533
-521,-18,98,229,103,440,152,-277,-355,-476
-562,-124,53,281,547,583,26,-245,-338,-640
-631,-456,-122,245,824,798,53,-147,-257,-782
-379,-562,-204,178,678,889,67,-123,-256,-547
-341,-452,-181,76,327,703,16,-239,-345,-325
-492,-310,-176,-32,1,395,-65,-329,-336,-156
-457,-159,-91,11,-14,187,-211,-409,-301,-28
-275,-200,-73,80,170,3,-300,-395,-259,-43
-45,-20,78,139,-102,-126,-218,-233,-108,-23
142,278,223,52,-494,-285,-128,-65,82,365
243,323,89,-277,-523,-415,-87,94,302,1059
493,262,-20,-463,-431,-607,-186,198,483,1625
903,321,27,-352,-677,-863,-263,301,614,1913
1101,315,92,-178,-1042,-986,-378,220,651,2145
866,-90,-114,-246,-918,-773,-304,113,551,2313
755,-381,-276,-256,-378,-555,-206,-12,407,1886
833,-58,87,64,73,-521,-224,-108,142,280
786,161,304,362,316,5,-18,-24,116,-873
838,459,259,294,901,528,146,58,131,-1033
170,849,324,119,1365,333,43,34,0,-1454
-535,558,262,40,1090,65,-53,-67,-188,-1639
-888,210,164,-3,520,6,-33,-60,-195,-1458
-943,192,62,-78,264,39,64,64,-142,-1327
-786,56,-153,-199,96,86,202,273,50,-891
-796,-76,-162,-227,14,48,219,340,179,-739
-720,-38,16,-110,-23,4,203,291,110,-861
-353,-124,17,-44,-89,31,246,247,21,-758
-75,-279,-39,-17,-153,82,284,228,-3,-613
156,-431,-125,-5,-200,131,262,245,-5,-392
409,-334,-165,-6,-296,112,217,234,4,-176
822,130,22,48,-310,98,88,33,-69,64
1006,189,103,142,-32,288,3,-170,-195,196
772,10,0,141,331,447,-21,-166,-190,205
-62,-488,-197,64,348,489,77,71,-50,132
-560,-763,-273,90,459,573,70,-14,-82,290
-310,-130,-102,176,425,431,-178,-427,-325,593
-481,124,-3,164,113,253,-287,-506,-321,624
-938,-36,-56,-45,-313,75,-182,-17,154,567
-865,-91,-121,-192,-466,-51,-139,158,299,422
-485,-186,-112,-76,9,-4,-137,-45,8,80
-391,-315,-132,10,337,68,15,-101,-185,-288
-557,-187,-40,15,75,-5,52,-106,-246,-434
-505,80,45,-45,-155,-238,-108,-135,-181,-311
-83,305,149,-47,-266,-438,-276,-171,-36,254
526,381,148,-63,-378,-433,-363,-191,103,742
967,395,96,-80,-406,-387,-429,-254,176,837
965,178,-49,-164,-267,-377,-340,-152,276,842
774,-63,-243,-303,-135,-415,-175,70,420,1023
360,-326,-420,-382,-164,-288,-56,136,457,1353
-134,-350,-386,-315,-141,-92,48,130,314,1181
-494,-5,-42,-33,111,84,62,-7,-12,93
-650,408,383,280,496,213,20,-202,-377,-1350
-571,286,350,262,604,191,20,-96,-338,-1726
-399,6,82,116,566,136,124,111,-237,-1655
-286,-111,-29,107,412,199,288,181,-227,-1215
-281,-64,-81,129,136,410,359,151,-238,-899
-469,-197,-105,122,153,829,302,55,-287,-824
-721,-371,-163,41,269,1132,308,-57,-378,-903
-597,-496,-311,-54,201,1034,249,-171,-407,-784
-135,-630,-363,-91,89,740,48,-346,-349,-419
430,-503,-277,-69,174,367,-163,-433,-196,92
1044,-208,-211,-86,296,-121,-292,-330,-84,671
1195,-85,-87,-71,125,-533,-299,-198,122,1107
1263,95,60,-79,-266,-712,-228,-67,326,1379
649,-54,-12,-117,-317,-671,-97,90,409,1073
-102,-268,-147,-99,-206,-726,-41,227,446,908
-408,220,172,38,-336,-939,-115,256,335,397
-697,615,486,75,-668,-962,-95,322,243,-177
-320,677,409,-15,-741,-860,-102,296,222,447
351,653,314,-47,-707,-853,-220,115,194,1487
812,316,126,-92,-878,-870,-277,63,382,2499
1152,114,50,-32,-905,-873,-407,-32,507,2932
1115,107,48,-3,-735,-673,-516,-283,331,2147
735,236,90,-64,-679,-460,-427,-263,294,682
39,155,52,-141,-491,-182,-103,72,471,-699
-680,15,-12,-69,101,258,200,248,197,-1539
-1142,38,112,160,769,574,376,280,-191,-2136
-1251,41,240,273,998,646,506,362,-292,-2218
-1008,24,261,275,815,528,464,304,-303,-1855
-602,-87,113,219,560,428,407,258,-216,-1249
-106,-24,25,171,354,310,302,195,-64,-581
282,-98,-69,98,237,221,189,98,4,-102
420,-104,-67,117,284,247,102,-18,-101,-184
157,84,76,161,333,274,76,-42,-148,-673
-375,50,139,192,334,283,85,-32,-147,-1173
-246,4,188,232,270,287,128,-28,-216,-1473
426,167,252,245,21,261,261,14,-160,-989
535,256,225,210,-276,203,357,128,-59,-430
67,-133,-47,72,-515,141,395,308,169,-39
-198,102,36,-62,-738,26,263,280,285,175
-7,616,258,-34,-688,-25,65,68,39,82
-165,256,159,54,-134,207,83,134,3,-24
-44,113,27,22,395,271,45,83,-36,20
-38,30,-108,-89,606,92,-121,-112,-176,52
-396,-222,-229,-195,513,-28,-169,-126,-201,33
-571,-139,-101,-126,206,-75,-152,-75,-118,166
-501,-2,-24,-66,55,-30,-122,-101,-86,323
-217,-61,-133,-97,83,26,-123,-131,-27,534
24,-126,-225,-104,75,-1,-143,-146,22,717
361,74,-7,-78,-151,-135,-174,-144,102,1041
598,127,30,-139,-372,-162,-85,-58,157,1092
671,-38,-88,-187,-358,-56,-2,-35,75,795
753,-109,-131,-162,-173,-12,15,40,9,525
762,-67,-33,-87,-59,-48,54,173,34,365
561,138,127,75,-113,-76,14,91,-58,-123
172,376,306,223,-61,-71,-107,-171,-320,-548
-267,251,302,233,60,-12,-159,-240,-357,-546
-414,27,57,60,190,92,-82,-123,-222,-321
-207,-1,-37,-17,379,62,-100,-190,-265,-33
-149,-64,27,43,330,-79,-168,-194,-218,58
-238,-267,-108,-52,93,-100,-11,187,78,-135
-113,-415,-217,-95,129,53,172,329,155,-273
93,-562,-256,-95,203,147,203,230,26,-256
184,-536,-230,-92,66,148,187,148,-11,-112
57,-368,-181,-120,-125,61,180,154,31,136
-260,46,-101,-105,-195,31,108,96,64,176
-264,370,-2,-59,-115,84,-4,-63,-84,52
-149,171,2,-25,63,169,-58,-167,-125,91
-163,-121,-107,25,176,124,-62,-173,-29,230
-358,-226,-164,90,210,130,-17,-184,15,342
-585,-29,-90,100,157,84,-76,-356,-152,293
-614,39,1,85,-133,-159,-200,-414,-191,57
-250,-176,-93,-45,-669,-301,13,-27,356,477
419,30,-36,-54,-1034,-242,268,167,737,1472
799,197,61,-37,-995,-127,234,127,512,1952
912,271,136,-149,-873,-120,173,189,466,1867
976,355,244,-127,-789,-151,86,228,500,1714
395,-41,97,-104,-322,243,96,191,249,855
-449,-460,-167,-122,666,799,162,61,-231,-783
-769,-456,-263,-125,1251,830,84,-142,-615,-2048
-585,-91,-193,-206,932,362,-118,-336,-776,-2346
-370,-79,-153,-225,362,19,-77,-275,-638,-1908
-142,-322,-221,-219,-112,-29,74,-82,-321,-1046
-1,-384,-259,-231,-333,-19,90,-16,-189,-433
35,-308,-250,-180,-369,-82,-117,-100,-197,-110
64,-295,-347,-114,-60,74,-289,-249,-333,-45
-285,-227,-283,-9,459,297,-331,-305,-358,-259
-607,12,-76,126,960,218,-309,-243,-276,-523
-551,107,72,194,1102,-77,-314,-204,-248,-658
-163,85,173,241,878,-240,-290,-117,-14,-344
189,20,218,283,611,-161,-137,77,262,206
349,76,214,265,161,-85,76,228,415,319
824,460,265,256,-483,-242,67,212,430,625
1386,471,288,246,-1004,-500,-56,151,511,1457
1643,416,340,250,-1240,-699,-130,164,641,2046
1203,621,433,307,-1166,-565,-85,224,562,1549
721,1069,605,253,-744,-347,-135,107,264,282
-219,811,402,61,38,-249,-229,-155,-99,-445
-1000,229,80,13,633,-271,-206,-341,-462,-1215
-1057,-102,-153,8,476,-155,152,-12,-428,-1706
-574,-44,-48,30,-200,-89,466,344,-197,-1447
-309,20,204,71,-536,-55,494,434,11,-894
-580,-225,80,43,-258,104,435,416,196,-555
-435,-167,-36,-23,106,145,270,334,289,-137
-240,-165,-82,-25,299,127,71,117,167,82
113,-195,-76,7,343,62,-117,-101,68,193
556,-77,-120,-16,500,46,-185,-180,65,220
659,-138,-240,-56,803,126,-231,-274,-8,142
296,-274,-319,-44,872,224,-240,-383,-157,-45
-116,-439,-321,-24,716,374,-130,-433,-323,-164
-124,-615,-397,-82,438,504,18,-354,-239,200
-381,-838,-576,-236,77,509,147,-49,164,586
-615,-655,-470,-292,-227,396,121,126,376,531
-581,-13,-45,-149,-410,299,89,135,14,11
-356,509,276,-28,-643,188,163,160,-179,-466
-263,631,448,107,-605,248,190,63,-221,-599
-245,380,206,32,-230,427,286,126,-168,-529
-69,181,6,-118,128,288,263,199,-104,-338
26,172,41,-158,84,-149,95,203,14,-120
-50,137,44,-139,121,-385,-73,98,55,205
-238,-52,-56,-103,211,-460,-230,-19,49,428
-58,-182,-117,-95,55,-597,-279,-29,102,621
434,-140,17,-21,-128,-600,-241,-29,60,455
857,-79,53,71,-157,-459,-181,-18,-13,93
720,-264,-103,109,-75,-260,-36,55,-39,-214
250,-293,-95,210,32,-139,71,66,-114,-317
23,385,164,281,19,-187,-44,-87,-235,-435
-310,352,267,295,19,-215,-153,-103,-180,-887
-162,158,292,313,21,-215,-200,-181,-188,-798
-21,294,280,262,15,-232,-261,-245,-227,-522
-622,-8,11,87,126,29,-3,-4,-76,-470
-775,-182,-128,-24,271,242,149,35,-72,-300
-238,95,32,-2,99,62,-32,-125,-108,162
295,270,185,29,-231,-112,-150,-184,-1,889
502,267,158,-6,-380,-97,-90,-127,94,1372
480,221,-33,-85,-376,69,-56,-83,201,1421
156,-159,-334,-309,-285,170,-85,4,359,1269
-112,-610,-553,-464,-26,124,-98,116,448,902
28,-591,-538,-426,170,-122,-217,-3,329,779
52,-473,-457,-339,76,-163,-252,-96,300,1205
-305,-476,-345,-200,13,-43,-179,-87,345,1395
-514,-330,-29,111,126,54,-66,-116,59,184
-377,-133,243,308,85,39,56,-59,-156,-731
-175,6,303,195,-371,-135,182,122,17,-661
-84,44,213,0,-1022,-195,512,456,297,-524
22,335,377,45,-1318,-46,804,640,222,-1165
157,636,591,262,-1208,125,836,602,57,-1549
301,680,610,278,-1297,-47,586,544,204,-739
585,681,504,157,-1269,-33,291,440,350,-179
531,292,182,148,-110,508,92,183,136,-283
55,-310,-186,73,1781,854,-83,-138,-252,-547
-390,-700,-467,-62,2619,585,-403,-599,-733,-687
-311,-597,-386,-29,1776,197,-647,-884,-1001,-620
40,-557,-218,85,1105,82,-579,-799,-948,-770
415,-505,-173,119,837,243,-225,-445,-666,-785
513,-287,-188,-9,596,288,-31,-190,-340,-120
100,-51,-152,-125,366,92,1,-32,-21,437
-328,184,-31,-172,260,-142,-65,-19,64,510
-696,95,-36,-192,141,-267,-91,16,146,405
-421,129,63,-132,-137,-331,-104,91,265,459
299,269,77,-166,-435,-390,-133,121,470,1040
773,248,-107,-395,-732,-529,-196,162,797,2009
936,298,-179,-584,-996,-732,-285,186,959,2477
710,184,-239,-631,-1199,-741,-161,370,1098,2354
588,122,-271,-603,-1320,-630,-34,483,1270,2259
296,-23,-349,-622,-1356,-487,43,463,1245,1617
-164,-13,-190,-368,-1081,-251,77,318,672,153
-451,26,-4,-16,-472,27,13,55,11,-532
-567,-35,60,232,286,352,64,-95,-456,-641
-765,-148,151,476,884,619,275,-129,-945,-1391
-868,-37,345,734,1221,669,398,-197,-1340,-3023
-689,30,384,725,1006,550,347,-227,-1203,-2874
-114,31,253,509,458,328,205,-87,-547,-1183
484,26,6,154,-37,24,10,75,204,416
484,-135,-275,-96,-97,-74,-182,24,451,754
181,-217,-372,-258,-52,-264,-330,-53,444,794
-117,-259,-325,-411,-260,-427,-340,-13,547,1295
58,-270,-285,-490,-739,-545,-310,34,744,2488
520,-23,-86,-374,-978,-471,-199,-29,522,2522
690,317,258,17,-417,-33,69,-146,-56,1399
612,435,430,262,364,328,187,-97,-210,455
441,326,337,174,554,353,291,163,-36,-116
55,248,303,209,450,286,198,94,-319,-1584
-343,208,297,319,414,313,55,-59,-641,-3082
-385,172,204,277,212,283,35,-85,-536,-2382
-186,215,201,251,-8,252,-52,-186,-304,-1171
-126,46,30,201,211,556,-10,-258,-227,-789
-13,-277,-183,137,688,631,-80,-406,-295,-469
-408,-677,-366,109,1052,565,39,-269,-403,-1347
-645,-544,-378,46,740,500,229,-33,-427,-1913
-580,-70,-54,119,270,439,172,-32,-398,-1133
-354,-114,-12,142,189,571,128,6,-352,-338
-32,-38,-14,156,315,842,92,-84,-483,-773
-52,-93,-131,74,469,906,24,-220,-524,-1143
-579,-434,-298,10,478,701,48,-209,-371,-746
-1043,-493,-231,87,193,414,162,-96,-233,-302
-909,-135,-55,61,-504,-77,198,56,-47,334
-413,230,129,-89,-1244,-567,194,181,119,630
-115,270,230,-140,-1404,-777,135,239,150,408
333,273,222,-151,-1458,-845,117,324,263,331
938,268,189,-137,-1462,-847,47,404,475,551
1296,284,170,-83,-905,-626,-99,353,661,837
1065,50,-15,-37,225,-143,-213,187,687,1109
883,-54,-90,-96,1146,-174,-484,-54,513,1230
1112,338,14,-151,1264,-725,-837,-365,105,697
702,302,98,35,778,-894,-900,-573,-256,36
-165,107,-60,32,452,-740,-678,-451,-314,-93
-734,421,75,-80,182,-555,-365,-173,-300,-508
-769,705,447,93,157,-352,-197,-110,-432,-1310
-448,508,392,176,263,-160,-27,53,-306,-1345
-20,293,293,241,397,10,0,20,-225,-965
487,353,406,432,467,83,-97,-201,-388,-892
802,358,428,425,285,161,35,-121,-348,-752
491,-77,62,142,-41,336,423,290,49,-313
107,-231,-261,-103,-329,390,645,567,339,58
-359,3,-188,-101,-470,229,472,428,326,245
-971,-69,-72,-34,-544,131,320,278,251,180
-1159,-279,-69,-7,-624,83,247,225,212,-75
-755,-185,-4,25,-551,45,140,166,216,11
-329,-174,-39,28,-87,174,60,46,123,104
-64,-398,-198,-29,473,336,61,-45,54,174
22,-545,-234,-75,443,270,116,-46,-24,220
-128,-632,-255,-109,5,127,175,32,0,269
-274,-368,-84,-41,-250,24,133,38,66,414
-48,187,204,-24,-577,11,46,45,166,692
173,386,205,-133,-644,100,-18,69,265,987
316,499,171,-184,-250,68,-132,-16,236,1130
400,441,108,-212,23,-194,-313,-180,135,1114
347,190,-2,-143,188,-316,-444,-455,-100,902
334,80,-14,-38,224,-232,-434,-699,-414,752
61,-83,-75,-17,125,-158,-303,-476,-351,279
-641,-531,-316,-95,276,-130,-96,163,179,-411
-956,-699,-353,-25,695,-50,-5,227,177,-746
-834,-585,-299,-10,714,109,127,153,-16,-835
-671,-398,-219,-21,512,256,151,42,-201,-910
-364,-183,-110,9,405,304,26,-138,-353,-645
-199,-239,-102,48,427,301,-75,-245,-430,-412
-19,-422,-206,45,442,355,-10,-197,-296,-238
122,-581,-346,-22,400,438,101,-83,-174,-148
250,-486,-336,-92,242,397,69,-132,-152,23
206,-424,-309,-174,-78,278,52,-92,31,458
76,-266,-218,-208,-372,123,75,19,311,864
264,244,5,-227,-533,-121,-27,15,449,1029
224,320,69,-291,-649,-357,-115,52,534,1034
350,130,-46,-398,-734,-500,-129,113,560,1173
774,-101,-210,-416,-572,-477,-111,98,522,1601
1094,-223,-186,-252,-291,-475,-93,79,431,1561
1184,21,40,-33,-215,-628,-127,107,419,1263
640,123,137,57,-353,-646,14,308,573,1341
99,303,153,1,-494,-468,116,357,525,1353
153,840,305,-29,-388,-361,1,157,219,654
310,891,371,24,-146,-299,-57,9,-55,-48
223,627,393,166,11,-250,-97,-84,-248,-250
226,536,419,296,39,-225,-173,-209,-445,-520
45,516,454,409,94,-33,-139,-284,-697,-1634
-393,197,342,418,101,260,77,-272,-836,-2250
-758,-163,133,293,-32,455,352,-103,-710,-2271
-712,-306,-43,170,-174,607,554,139,-359,-1975
-430,-356,-118,118,-112,715,649,278,-257,-1398
-19,-207,-63,138,250,649,448,140,-290,-1000
33,-126,-69,132,640,509,186,-35,-306,-724
-180,-146,-67,146,544,385,53,-126,-276,-553
59,-152,-138,120,364,257,-43,-214,-291,-370
342,-17,-91,93,323,101,-126,-270,-313,-342
348,-37,-65,30,201,-18,-130,-154,-145,-279
-36,-137,-50,-17,5,-133,-50,23,128,103
-312,-22,155,48,-270,-374,-88,46,310,577
51,153,281,62,-475,-488,-83,178,450,1186
806,297,188,-154,-812,-653,-139,309,772,2024
1375,358,-157,-569,-1189,-933,-320,321,1139,3131
1142,205,-462,-939,-1196,-948,-417,339,1403,3789
479,-37,-546,-963,-771,-814,-462,200,1192,3689
188,-232,-520,-757,-374,-727,-495,41,902,3599
69,-100,-232,-335,-360,-542,-349,-61,465,2403
-244,219,284,201,-458,-183,16,-145,-259,-243
-778,444,677,654,-457,328,454,-286,-1210,-3053
-1241,248,677,706,-386,700,819,-31,-1458,-4445
-1215,84,498,573,-293,862,927,274,-1070,-4079
-1079,116,465,538,-111,1011,822,305,-845,-3129
-935,25,363,415,420,1006,648,467,-485,-2345
-710,-195,146,345,1201,911,299,302,-375,-1977
-490,-380,-83,333,1742,797,-68,-66,-440,-1578
-511,-574,-298,302,2265,566,-385,-446,-585,-1360
-551,-725,-415,175,2041,325,-442,-555,-598,-1191
-402,-624,-347,124,1289,289,-311,-421,-410,-822
116,-230,-107,152,792,129,-265,-308,-276,-391
469,22,42,46,383,-109,-180,-184,-69,170
849,205,181,-122,-13,-328,-163,-136,142,1024
790,149,158,-257,-254,-394,-155,26,529,1752
806,339,-13,-429,-493,-453,-104,287,979,2150
711,680,-25,-590,-757,-652,-212,257,983,2419
504,92,-458,-847,-979,-791,-296,354,1222,2934
548,-425,-768,-1018,-1078,-844,-390,322,1274,3207
445,-562,-651,-840,-873,-688,-387,131,802,2732
357,-238,-349,-452,-542,-399,-261,-52,103,1651
98,226,-10,-146,-263,-142,-109,-134,-512,-34
-642,307,358,190,77,223,178,-67,-1013,-2488
-966,337,543,426,298,485,420,20,-1167,-3845
-891,318,505,358,239,467,408,91,-848,-3248
-880,226,408,262,72,355,366,165,-493,-2252
-677,118,269,134,-141,224,327,214,-157,-1407
-428,-23,200,133,-259,98,179,110,-70,-722
-155,-68,201,288,-136,10,-75,-148,-176,-81
-18,-199,63,370,253,99,-165,-293,-265,265
89,-422,-230,185,280,260,70,9,-64,277
447,-157,-220,62,63,217,91,63,-42,330
474,-67,-181,54,139,136,-20,-80,-146,361
93,-207,-131,85,294,118,54,-27,-146,53
-203,-45,56,157,88,56,132,41,-57,-113
-221,121,116,116,-335,-61,112,55,204,256
78,180,78,89,-488,-86,68,64,453,593
371,302,113,-12,-291,-86,-15,48,458,842
550,370,83,-198,-145,-233,-88,54,394,1322
679,297,41,-240,-228,-412,-157,98,496,1796
728,234,-12,-195,-250,-346,-290,76,714,1749
705,-1,-211,-270,-68,-170,-341,31,636,1409
800,-227,-374,-345,80,-69,-256,-59,419,1272
663,-327,-451,-360,-1,-147,-226,-124,394,1008
280,-192,-279,-216,-157,-182,-185,-136,172,-282
-239,-71,-35,43,-108,-34,-70,-129,-276,-1560
-1017,-143,-51,187,270,205,8,-175,-560,-1837
-1512,-327,-61,167,823,476,34,-265,-700,-1856
-1341,-405,-10,211,970,600,28,-338,-782,-1724
-747,-250,64,265,723,613,25,-403,-817,-1502
-403,-217,46,238,583,539,21,-460,-750,-1179
-295,-317,-106,160,559,384,4,-416,-554,-712
-278,-393,-255,59,522,279,40,-271,-298,-290
-263,-284,-277,-90,294,191,48,-173,-159,53
-91,-119,-187,-106,42,121,19,-81,-104,94
43,-124,-51,7,-43,114,91,54,-66,-80
371,2,100,116,-299,-6,194,189,102,283
410,325,323,176,-768,-247,203,298,394,1136
394,435,384,142,-1015,-367,153,367,646,1733
495,488,335,35,-1184,-366,201,484,804,1842
474,568,262,-129,-1351,-328,251,604,855,1466
284,308,40,-220,-904,-47,160,483,755,741
153,57,-68,-101,237,211,-36,201,371,-292
100,67,39,-3,902,3,-125,34,-17,-871
55,90,98,22,554,-262,-82,10,-192,-855
-9,38,119,75,137,-60,73,127,-17,-404
-105,51,149,117,138,290,204,182,92,-392
6,277,166,122,246,580,205,60,-105,-515
22,122,62,144,363,910,159,-82,-335,-804
175,-263,-49,188,455,1035,123,-173,-421,-940
370,-559,-192,157,580,806,16,-284,-447,-845
122,-879,-420,0,458,544,43,-243,-282,-620
-176,-910,-543,-177,195,379,117,-145,47,137
33,-140,-423,-331,-29,42,-20,-245,10,869
-181,481,-185,-388,-190,-377,-182,-332,-91,929
-165,599,-39,-303,-288,-776,-287,-293,-28,924
17,546,84,-131,-245,-994,-359,-248,3,772
283,583,295,73,-263,-1123,-448,-293,-31,402
372,623,383,182,-385,-1119,-439,-171,115,-47
-139,202,185,125,-320,-749,-122,279,386,-619
-576,-159,-67,68,-156,-400,166,534,562,-553
-483,-121,-42,95,-40,-380,46,315,475,112
-300,-36,39,103,-104,-511,-62,124,312,223
-257,-33,59,103,-313,-427,15,124,119,-324
-90,-29,86,146,-484,-270,26,39,-49,-379
185,17,171,242,-398,-23,27,-168,-269,-167
460,58,185,318,14,239,52,-152,-329,-244
718,46,176,332,328,276,80,69,-143,-254
880,136,173,307,407,184,113,133,3,258
708,68,-20,104,222,81,147,144,193,1019
115,-28,-65,-24,-239,-85,112,155,381,1413
-194,-23,-21,-106,-637,-332,0,172,545,1659
8,-39,-105,-290,-910,-453,-17,244,597,1758
517,122,-64,-340,-967,-416,-139,147,473,1967
453,-119,-222,-368,-446,-196,-297,50,360,1725
100,-374,-283,-162,719,13,-483,-335,-160,560
-141,-526,-243,-59,1017,79,-398,-466,-659,-708
-54,-449,-104,38,437,252,-56,-255,-744,-1263
114,-69,189,277,247,354,31,-175,-636,-1124
-81,186,359,443,501,502,133,-54,-522,-1425
-632,155,320,436,857,591,288,85,-468,-1979
-666,299,149,174,742,348,234,98,-371,-1720
-289,437,-41,-121,275,87,146,66,-327,-1403
-198,157,-73,-206,-18,74,190,124,-183,-1008
-429,-88,-84,-130,-99,114,229,208,27,-638
-822,-179,-70,-9,-162,58,190,182,40,-491
-690,-18,57,15,-298,-106,107,123,65,-366
-367,189,149,-21,-366,-192,21,82,97,-54
-17,309,124,-61,-233,-174,-50,10,154,592
345,274,30,-73,67,-152,-145,-78,327,1596
910,238,-79,-186,58,-392,-301,-123,664,2952
1376,130,-271,-445,-425,-703,-409,12,1093,3903
1411,43,-368,-582,-655,-776,-420,209,1367,3890
1235,-42,-413,-598,-448,-626,-377,170,1252,3385
738,-289,-559,-648,-192,-488,-273,138,948,2323
-20,-336,-397,-401,-279,-358,-80,26,223,-99
-540,-113,17,98,-411,-142,134,-163,-612,-2634
-927,37,383,624,-166,214,336,-287,-1193,-3986
-1110,39,494,865,-188,377,440,-294,-1350,-3650
-735,229,619,963,-289,330,234,-372,-1303,-3025
-435,90,429,779,-109,588,16,-429,-1121,-2309
-507,-428,-88,426,479,975,-18,-394,-894,-1779
-694,-797,-391,258,1348,885,-140,-523,-938,-2026
-869,-814,-351,225,1586,639,-147,-515,-973,-2306
-912,-698,-92,313,1494,676,31,-293,-694,-1810
-693,-624,-15,191,1322,414,167,54,-33,-126
109,-33,72,-139,389,-81,143,287,528,1358
1092,435,51,-526,-481,-485,-49,348,953,3064
1983,403,-247,-950,-1005,-801,-219,327,1364,5012
2405,223,-625,-1337,-1592,-1110,-325,256,1581,6241
2171,-22,-805,-1444,-1980,-1207,-314,142,1434,6064
1423,-41,-594,-1089,-1797,-942,-202,59,989,4235
308,283,3,-400,-1283,-495,78,150,288,765
-852,653,707,458,-435,230,507,294,-501,-3080
-1705,768,1116,1128,703,1103,866,394,-1110,-5847
-2020,561,1084,1303,1662,1381,868,326,-1215,-6372
-1714,172,733,1100,1805,1071,576,135,-975,-4648
-1130,-221,314,828,1330,859,335,10,-729,-3208
-771,-632,-8,662,1179,907,138,-164,-702,-2621
-381,-793,-106,620,1425,820,-159,-423,-741,-2065
46,-654,-136,493,1484,625,-316,-499,-574,-1451
226,-341,-160,264,1220,372,-245,-378,-451,-1012
44,39,-24,118,759,51,-216,-287,-254,-396
-274,702,238,-17,122,-146,-213,-237,-57,157
-696,760,236,-193,-360,-372,-193,-19,282,480
-860,248,9,-386,-679,-529,-81,297,744,800
-460,60,-167,-577,-904,-587,-57,337,880,1167
211,126,-327,-742,-1041,-622,-87,347,984,1798
644,166,-350,-770,-1087,-595,-77,402,1103,2414
717,179,-261,-654,-1038,-562,-102,350,986,2494
585,158,-169,-411,-778,-423,-75,272,700,1621
592,220,53,-103,-336,-154,5,223,271,418
738,276,238,130,124,34,21,104,-92,-236
1092,258,256,185,227,43,0,-49,-230,55
1229,265,201,146,-55,-10,10,-57,-195,158
701,188,54,26,-234,-17,126,126,-15,-160
204,179,-89,-70,-364,-79,160,226,97,-99
-220,364,112,73,-376,-150,91,136,-38,-370
-571,193,211,206,-202,-42,121,97,-182,-995
-643,-262,-9,158,213,261,229,60,-274,-1221
-523,-413,-121,94,444,287,150,-20,-307,-913
-541,-251,-84,92,344,191,-19,-135,-307,-455
-776,-136,-2,138,384,102,-153,-256,-307,-125
-941,-103,52,103,394,25,-251,-381,-398,-116
-757,-318,-116,-33,205,-21,-280,-403,-299,104
-179,-310,-249,-168,-56,-154,-340,-363,-10,665
470,-145,-230,-256,-255,-281,-449,-453,140,1585
854,0,-191,-268,-318,-313,-498,-569,110,2388
623,-219,-399,-445,-369,-282,-257,-127,298,2385
108,-360,-416,-421,-275,-127,61,338,338,1072
-56,-2,-8,-95,-128,20,219,254,-25,-503
-284,81,166,64,-318,59,426,289,41,-841
-292,57,116,36,-669,31,571,407,258,-441
103,115,44,-75,-978,40,562,412,386,251
378,182,55,-98,-1427,-42,530,532,631,1067
687,327,192,-35,-1789,-137,483,710,918,1575
857,222,141,152,-1097,283,381,542,715,1341
751,-48,-55,318,108,502,237,289,308,647
512,-239,-140,280,744,84,88,122,184,443
291,-435,-322,-2,272,-406,-8,59,437,1173
-189,-577,-446,-184,-8,-89,-15,-23,373,1267
-581,-396,-364,-207,663,318,-56,-216,-4,239
-514,-250,-185,-152,860,194,-157,-291,-203,-427
-305,-256,-132,-3,830,319,-305,-488,-621,-1147
-551,-173,18,317,1281,653,-445,-836,-1393,-2871
-772,-21,234,590,1758,502,-714,-1122,-1883,-3524
-699,32,326,635,1694,13,-862,-1067,-1603,-2505
-647,-49,238,413,1129,-123,-623,-663,-896,-1070
-605,-256,-34,93,650,152,-180,-142,-245,-314
-479,-402,-241,-113,429,254,124,223,92,-154
-112,-207,-43,-61,120,-20,49,241,290,599
361,-48,-20,-151,-170,-318,-158,195,579,1816
562,7,-184,-369,-305,-426,-150,210,628,1610
703,94,-201,-582,-688,-474,-34,206,504,1191
814,36,-287,-662,-1011,-459,6,176,376,1102
837,123,-212,-556,-1134,-442,5,196,327,1171
626,448,135,-235,-947,-291,151,251,105,319
44,463,338,44,-455,58,366,339,-12,-358
-221,274,285,70,-55,173,399,392,96,-193
-256,295,299,73,-106,110,397,329,84,-570
-223,334,309,133,-368,62,403,153,-200,-1228
-224,287,337,301,-271,116,399,-80,-634,-1768
-352,96,339,414,-295,175,374,-129,-705,-1720
-569,-115,212,459,-291,303,372,108,-348,-1740
-621,-302,66,520,79,357,113,33,-259,-1502
-570,-512,-57,479,609,393,-245,-270,-324,-1078
-395,-636,-264,316,1124,236,-532,-494,-145,-210
-185,-675,-400,77,1209,-172,-680,-525,95,815
-77,-628,-472,-155,727,-314,-557,-296,348,1542
3,-158,-197,-137,248,-230,-308,-80,299,1078
65,279,117,-46,309,72,6,84,102,36
179,484,346,99,532,165,77,48,-119,-543
334,581,470,210,578,80,54,19,-152,-313
476,525,303,31,117,-83,78,134,118,634
622,400,-68,-316,-458,-205,125,327,471,1354
822,353,-250,-621,-841,-398,12,404,769,1786
823,183,-395,-772,-1027,-627,-235,270,815,1875
633,-7,-414,-671,-900,-596,-278,157,586,1099
440,47,-316,-382,-456,-251,-148,78,223,62
474,69,-247,-261,81,-64,-124,18,109,588
358,-2,-139,-193,330,-108,-162,-57,35,919
141,15,5,-37,61,-74,-75,-59,-84,320
194,9,87,33,-187,-22,116,98,-31,115
37,24,226,193,-123,152,312,194,-217,-1247
-326,94,422,428,63,370,452,198,-517,-2814
-295,-24,404,484,127,464,440,128,-540,-2386
284,-50,274,353,105,418,234,-11,-444,-1053
495,-90,86,148,272,322,55,-92,-299,-35
-15,-341,-99,63,628,192,-49,-108,-148,415
-353,-243,-83,42,528,-50,-108,-64,79,638
-310,156,20,-3,86,-155,-120,-35,283,954
-425,116,-43,-70,-80,-76,-45,6,340,576
-380,-69,-104,-75,-67,2,4,32,237,427
-34,93,0,-25,-50,-50,-120,-119,-51,252
208,293,171,119,30,-31,-168,-217,-336,-354
316,474,367,309,208,76,-96,-310,-630,-1021
460,516,422,384,331,114,-45,-419,-728,-862
292,183,139,104,109,35,32,-145,-304,-310
-266,32,-157,-214,-174,-41,159,272,174,-308
-650,49,-125,-223,-201,-25,166,305,296,8
-881,-114,-77,-114,-138,16,139,202,259,166
-982,-153,2,31,-57,52,96,65,137,-338
-851,19,158,203,22,91,52,-108,-52,-986
-438,306,319,358,95,112,-35,-329,-338,-1209
-274,322,292,264,33,126,38,-71,-234,-1360
-459,-116,-52,21,-90,168,261,425,198,-1218
-389,-333,-208,-53,-143,158,294,381,264,-452
-438,-408,-230,-10,-135,118,167,141,100,135
-517,-472,-191,75,2,122,55,-100,-90,147
-522,-527,-193,115,-33,46,2,-126,-82,53
-305,-454,-165,85,-276,-132,-63,57,171,435
120,-327,-90,65,-330,-172,-201,10,219,640
605,-131,-18,43,-118,-111,-280,-91,160,787
1032,70,45,-48,170,-202,-332,-119,160,1143
803,9,-49,-201,60,-249,-210,-50,183,1244
226,20,-27,-215,-224,-136,3,35,93,712
35,180,127,-114,-422,-29,256,98,-40,21
152,268,159,-135,-779,-28,447,219,38,-182
511,478,219,-151,-1153,-89,475,300,169,316
797,524,272,-31,-1290,-110,402,298,238,833
599,179,94,44,-1000,115,251,329,429,942
568,34,-99,-53,-498,167,-89,158,639,1608
609,-2,-220,-263,-183,-268,-506,-101,600,2123
219,-280,-399,-404,213,-547,-665,-244,454,1641
-289,-504,-508,-312,766,-108,-484,-286,159,602
-609,-528,-453,-144,1367,334,-325,-360,-196,55
-730,-442,-309,-23,1492,403,-316,-514,-596,-84
-835,-473,-269,9,1445,437,-257,-541,-766,-209
-907,-569,-293,0,1168,398,-57,-418,-696,-308
-902,-403,-49,249,789,259,111,-317,-689,-1007
-684,55,487,726,670,94,87,-356,-922,-2221
-22,534,905,1014,537,-75,-55,-266,-636,-1657
506,559,709,663,42,-292,-138,19,80,-62
697,177,98,-3,-418,-482,-98,173,545,809
774,-251,-425,-559,-734,-645,-90,194,777,1026
759,-300,-457,-738,-1231,-705,-14,339,969,1199
331,-35,-145,-486,-1253,-416,161,416,621,105
-291,207,261,41,-493,160,276,269,-224,-1801
-709,224,372,285,270,584,364,265,-557,-2159
-620,250,304,195,446,557,327,315,-337,-1393
-449,211,160,66,250,330,135,186,-208,-788
-251,137,93,-42,201,201,9,67,-192,-555
20,162,130,-33,73,73,-34,-5,-223,-340
244,269,187,50,-132,0,30,-14,-239,-324
439,361,201,73,-392,-8,107,-51,-259,-264
700,342,124,-67,-721,-156,77,55,-18,263
792,166,-40,-300,-1132,-418,-10,203,292,941
695,-134,-347,-520,-1322,-431,-31,247,560,1699
581,-268,-484,-562,-1114,-242,-22,127,548,2143
243,-246,-391,-394,-664,-24,69,94,333,1701
-192,-79,-107,-123,-149,5,221,233,169,517
-380,129,232,239,185,81,363,407,121,-823
-357,33,303,581,806,602,311,231,-117,-1613
228,-52,305,768,1583,885,124,-119,-481,-1951
841,-157,196,637,2059,616,-111,-237,-486,-1460
1067,-424,-150,304,1969,250,-241,-252,-184,104
641,-804,-578,-59,1084,128,-211,-189,206,1598
-13,-144,-400,-255,282,-148,-408,-326,201,1824
-627,398,-148,-326,-107,-425,-597,-491,48,1125
-1008,3,-155,-254,-232,-337,-361,-366,-39,313
-904,-3,66,-4,-230,-74,21,-138,-188,-705
-717,302,403,266,-159,93,253,99,-36,-1459
-371,583,486,205,-430,-97,173,177,264,-810
61,530,185,-103,-871,-340,42,178,442,358
353,205,-141,-388,-936,-314,-32,144,539,1203
523,-41,-315,-556,-616,-273,-96,8,379,1701
495,-122,-371,-554,-251,-416,-96,26,322,1285
322,-148,-308,-449,-318,-402,-72,108,257,679
153,-54,-111,-226,-277,-264,-73,10,20,180
-99,-50,49,-13,19,-66,27,22,-33,-413
-201,-262,-12,47,311,77,91,44,61,-363
52,-459,-122,85,463,183,106,18,-25,-202
641,-524,-183,103,416,202,95,12,-144,-156
988,-484,-210,113,338,250,158,35,-274,-167
854,-85,49,253,502,299,185,-38,-498,-403
403,603,408,371,484,189,44,-234,-652,53
-139,843,472,272,253,-18,-184,-308,-506,449
-651,492,243,27,40,-154,-265,-139,-140,-228
-764,155,45,-55,15,-152,-221,-22,222,-326
-385,115,-3,-17,-87,-188,-225,-33,364,523
2,86,-4,-109,-365,-280,-225,-54,391,1082
119,4,-120,-268,-570,-397,-240,-4,504,1110
17,-13,-152,-310,-657,-385,-139,88,416,805
-267,101,43,-75,-466,-173,-44,-16,19,355
-675,175,256,261,17,132,-38,-211,-459,-494
-1447,67,307,470,739,612,283,-34,-801,-3320
-1622,-44,193,479,964,862,665,369,-782,-4498
-1188,-49,110,386,634,745,595,279,-726,-3345
-758,-71,99,329,446,532,298,-64,-698,-2169
-431,-103,31,296,352,363,93,-250,-587,-1334
-383,-233,-103,195,186,209,99,-68,-279,-818
-209,-244,-132,38,-116,-51,40,125,133,37
28,-163,-64,-24,-397,-237,-103,-41,212,681
9,-192,-10,23,-537,-201,-95,-165,266,945
189,-125,88,101,-634,-181,-74,-136,400,1458
480,23,206,103,-930,-145,62,93,546,1542
822,143,243,27,-1222,-61,274,394,614,951
1079,212,216,33,-914,91,259,360,523,404
807,-52,40,89,177,389,69,100,235,190
63,-472,-245,10,1394,441,-94,-87,-68,-11
-376,-339,-296,-156,1354,156,-66,-97,-229,-266
-420,-65,-125,-83,396,29,62,-94,-331,-258
-333,-85,-74,59,-64,136,210,-73,-411,-463
-109,-98,-16,105,-380,101,204,-29,-359,-412
442,-72,-31,-9,-707,-185,9,35,32,786
700,-64,-126,-189,-528,-198,-251,-27,281,1705
808,194,-168,-411,-41,-180,-498,-137,438,2320
974,180,-410,-768,94,-500,-694,-165,710,3095
881,-104,-632,-942,-80,-838,-703,-138,873,3286
618,-89,-522,-767,-554,-769,-410,-37,718,2131
347,161,-233,-430,-812,-481,-118,-25,316,601
67,485,208,-45,-789,-160,160,28,21,-616
-286,715,565,253,-679,154,369,21,-250,-1735
-645,578,600,404,-322,526,455,-87,-692,-2525
-1029,187,408,394,467,806,623,198,-699,-3231
-1054,21,312,433,1260,700,619,273,-650,-3311
-944,-92,194,402,1223,475,454,172,-611,-2706
-757,-264,24,401,1114,381,186,-40,-549,-1845
-530,-457,-143,391,1159,196,-210,-363,-531,-1094
-227,-621,-249,359,876,-115,-668,-608,-477,-12
210,-661,-318,267,408,-484,-985,-792,-356,1314
367,-696,-440,89,130,-472,-884,-757,-236,1941
242,-762,-538,-117,16,-148,-443,-376,-57,1623
-3,-561,-387,-99,-41,31,-197,-125,-9,1128
-120,19,14,27,-44,48,-143,-40,-33,251
95,400,243,-26,-66,-46,-41,164,218,-320
563,490,255,-228,-291,-351,-87,260,625,392
873,243,11,-562,-686,-571,-105,397,1041,1306
1196,40,-259,-755,-962,-552,13,506,1086,1618
1249,108,-259,-634,-980,-329,273,525,683,641
1093,557,88,-276,-837,-15,578,529,208,-260
635,812,401,36,-662,224,743,545,16,43
210,702,415,37,-756,129,668,548,197,910
114,529,326,-26,-961,-73,422,522,545,1378
180,325,247,11,-789,2,223,414,609,770
-192,109,134,84,-20,250,124,180,221,-373
-722,-54,93,161,780,306,114,-47,-224,-1402
-808,-147,124,173,546,159,185,-143,-269,-1262
-481,-164,44,72,-351,102,258,-117,-81,127
-208,-133,-49,-65,-960,-12,283,175,253,1117
89,-155,-107,-99,-1118,-189,208,479,703,1343
528,-114,-105,47,-437,-17,-91,344,680,820
845,-182,-135,189,724,329,-466,-181,64,455
884,-375,-244,213,1810,413,-627,-573,-523,-461
242,-623,-390,180,2290,362,-579,-728,-848,-1784
-677,-593,-358,178,1828,265,-439,-624,-775,-2506
-1166,-510,-286,91,1054,109,-371,-516,-599,-1666
-1123,-227,-58,51,520,-118,-450,-646,-716,-703
-990,122,358,290,406,-50,-180,-436,-931,-1277
-922,180,489,404,303,169,262,79,-623,-1334
-331,465,478,211,-32,79,260,202,-239,-95
226,755,345,-34,-338,-122,99,126,-5,743
413,538,22,-261,-565,-294,29,185,209,1284
491,251,-207,-436,-711,-356,38,359,467,1445
180,166,-183,-398,-706,-323,13,373,549,689
-143,206,-78,-235,-623,-299,-31,237,443,164
-172,196,20,-140,-546,-267,-9,146,313,183
-126,108,57,-85,-627,-185,155,188,163,-245
-32,84,91,19,-715,-13,341,285,111,-453
178,262,282,196,-639,49,292,217,210,312
200,207,233,177,-582,-1,155,146,396,942
-49,-200,-191,-31,-566,-2,51,206,537,534
-270,-492,-355,-103,-292,71,-5,227,538,-459
-224,-462,-198,55,266,30,-141,-51,141,-468
-88,-324,-4,318,901,-60,-312,-417,-580,-522
-366,-428,-64,407,1220,259,-93,-411,-958,-1285
-601,-442,18,439,1320,549,53,-372,-949,-1834
-557,-407,37,460,1300,564,-12,-421,-960,-1719
-588,-255,27,351,1072,437,-46,-390,-846,-1771
-717,-49,54,222,801,380,-14,-308,-726,-1687
-780,-90,66,191,653,356,43,-245,-598,-1374
-496,210,300,216,411,180,-16,-227,-362,-1040
8,515,337,83,7,-21,-6,-14,-43,-359
427,380,18,-197,-311,-109,104,272,230,391
858,212,-145,-420,-491,-258,0,281,551,1377
962,46,-332,-617,-641,-394,-81,337,925,2069
771,25,-464,-764,-782,-461,-122,312,1114,2246
497,-35,-480,-737,-777,-540,-236,135,1024,2903
235,-204,-473,-617,-765,-649,-414,-111,618,2825
-8,-362,-447,-518,-846,-613,-288,-63,184,1290
-132,-307,-274,-275,-629,-249,33,14,-247,125
-113,-298,-206,-124,-470,94,232,35,-362,253
-170,-340,-238,43,-393,172,191,1,-390,40
-601,-360,-160,291,84,419,196,-92,-706,-1816
-824,-487,-90,518,1137,997,291,-252,-914,-3103
-484,-596,-101,556,1783,1079,174,-423,-949,-2200
52,-507,-37,470,1307,579,-84,-527,-842,-899
603,-262,61,388,558,146,-165,-460,-565,15
823,182,331,368,103,-21,-42,-191,-134,492
357,648,663,428,-84,-46,34,16,191,175
-170,1027,778,282,-254,-235,-94,75,434,474
10,1107,466,-226,-627,-598,-226,115,608,1387
428,575,-66,-726,-1025,-848,-317,217,810,2226
754,131,-440,-965,-1307,-844,-286,408,1026,2767
932,74,-363,-830,-1338,-793,-117,470,979,2724
768,222,-69,-444,-1143,-475,177,433,751,1789
345,293,108,-153,-833,-120,313,378,506,350
-223,154,110,-23,-499,145,361,527,485,-991
-644,62,179,163,6,328,435,533,245,-2327
-535,132,271,311,209,368,426,319,-115,-2228
-294,166,176,374,345,439,425,187,-330,-1464
-205,181,233,460,544,529,478,78,-510,-1067
-192,183,340,521,440,509,531,52,-477,-940
-362,78,224,500,106,496,569,215,-203,-1137
-511,-64,235,529,49,461,394,191,-161,-1300
-335,-238,180,529,429,301,103,-104,-330,-1156
43,-351,50,469,580,194,-109,-334,-472,-842
302,-319,93,453,387,274,-148,-383,-464,-771
499,-362,-62,245,410,181,-193,-262,-137,109
754,9,-121,-88,217,-189,-366,-134,307,1608
752,424,-39,-374,23,-583,-669,-204,505,2252
699,389,-126,-603,-263,-825,-874,-323,520,2509
738,-61,-491,-814,-306,-675,-767,-248,468,2830
586,-291,-593,-761,105,-324,-419,-71,293,2662
332,17,-255,-458,313,-211,-240,-49,-36,1460
-145,106,-6,-137,237,-102,-78,-80,-353,-126
-601,283,265,144,258,89,77,-65,-474,-1920
-948,333,430,324,427,305,268,49,-450,-3173
-941,80,227,227,448,366,431,332,-116,-2757
-488,3,51,81,92,184,357,403,283,-814
-129,46,74,-7,-358,-43,193,259,389,946
51,2,-15,-103,-506,-156,132,199,466,1435
131,-49,-101,-128,-271,-155,62,125,476,1180
58,-113,-136,-124,-104,-152,-63,-5,408,650
-63,-159,-105,-39,31,-39,-214,-145,211,-365
-72,-151,-53,66,408,5,-220,-150,136,-739
23,-253,-171,22,482,-79,-159,-89,14,30
133,-237,-31,89,412,-169,-198,-255,-386,249
-76,-92,265,410,568,-34,-146,-430,-876,-1317
-327,-281,211,530,725,168,-36,-430,-1092,-2280
-371,-558,-168,348,739,331,75,-369,-1014,-2128
-321,-827,-567,36,519,465,284,-103,-649,-1438
-248,-790,-502,-19,259,407,352,92,-215,-382
-126,-256,-217,17,-54,108,116,31,66,695
-93,-57,-181,-132,-390,-109,-18,75,333,1400
-176,-156,-190,-201,-378,-108,-52,123,568,1729
59,338,109,-202,-246,-181,-178,13,480,1641
52,652,325,-216,-260,-252,-192,-1,170,843
-370,512,315,-146,-213,-84,7,145,-138,-578
-436,479,330,-6,-108,112,219,305,-176,-1248
-232,461,367,140,40,222,282,352,-122,-1531
-55,387,334,188,97,234,233,278,-88,-1578
5,181,161,102,-3,188,177,214,41,-1008
52,56,67,65,-143,101,92,119,160,-459
396,129,143,148,-160,14,-38,-104,-45,-105
986,100,107,96,-311,-47,-24,-84,-46,435
1328,-109,-188,-17,-532,-59,127,129,184,1077
943,-441,-363,-114,-688,-25,220,268,435,1802
410,-173,-249,-255,-770,-88,111,189,589,2323
11,457,-108,-342,-422,-184,-198,-83,428,2266
-372,477,-46,-287,-84,-198,-394,-319,175,1482
-663,120,-3,-123,-103,-223,-397,-409,-56,157
-664,82,197,162,20,-230,-348,-467,-341,-921
-480,220,313,249,98,-101,-325,-448,-283,-664
-267,176,149,93,128,45,-294,-310,-41,18
-150,-28,-50,-74,278,-29,-300,-200,37,278
20,-183,-208,-185,289,-118,-147,58,178,451
505,-60,-155,-239,59,-206,-57,148,417,1616
727,27,-124,-333,-448,-325,-7,161,537,2415
621,88,-84,-359,-855,-280,75,116,432,1647
521,46,-98,-319,-957,-151,97,15,302,1111
443,-51,-99,-178,-682,-87,128,75,128,974
377,-147,-121,-58,-462,-95,191,299,101,688
314,-177,-128,23,-578,-11,216,428,194,287
245,-305,-220,69,-157,227,56,187,86,-120
-447,-652,-414,176,1334,517,-120,-112,-176,-1531
-1213,-731,-344,358,2399,628,-139,-221,-468,-3024
-1173,-283,133,593,1813,408,-126,-280,-746,-3466
-850,143,647,775,851,182,-56,-243,-891,-3356
-696,410,925,762,249,74,31,-190,-922,-2782
-695,474,885,592,-24,73,52,-169,-818,-2330
-576,197,491,224,-68,145,170,76,-321,-1489
-210,-7,96,-134,-27,196,344,440,389,-228
51,-80,-66,-277,-41,197,343,546,764,490
211,-147,-275,-438,-39,29,146,416,775,917
387,-105,-366,-526,-103,-263,-133,174,654,1120
414,8,-231,-448,-220,-386,-366,-188,296,1165
534,68,-314,-552,-354,-358,-393,-330,124,1940
732,-69,-573,-780,-524,-338,-240,-30,440,3086
1024,-195,-680,-897,-720,-509,-307,111,765,3692
1055,-147,-540,-763,-673,-547,-309,4,612,3193
619,-16,-282,-429,-360,-330,-93,-30,179,1523
107,120,4,-91,-66,-94,147,4,-58,171
-356,322,360,293,243,269,493,137,-285,-1607
-851,456,672,719,610,682,815,287,-673,-3648
-978,396,688,944,727,787,804,229,-768,-3758
-856,281,580,882,625,625,600,44,-798,-3138
-751,88,373,669,447,446,447,-49,-713,-2408
-584,-36,200,461,228,302,293,-37,-540,-1782
-365,-44,140,302,166,280,96,-30,-384,-1303
-144,-48,66,196,323,239,-173,-137,-299,-641
100,-84,-51,49,107,55,-266,-166,-114,55
279,-194,-179,-107,-450,-137,-189,-87,142,386
529,-315,-364,-267,-955,-265,-167,-46,355,886
952,-323,-434,-355,-1236,-401,-236,-11,539,1645
1178,-248,-336,-242,-1242,-415,-269,33,590,2073
1070,-101,-71,22,-759,-84,-304,-105,283,1841
694,38,111,160,59,136,-370,-253,-39,1512
-157,-14,59,126,973,160,-256,-199,-151,683
-816,-21,38,103,1453,189,-71,-87,-221,-480
-923,121,134,146,1245,153,-13,-135,-356,-1106
-1024,38,135,179,791,113,17,-246,-539,-1629
-989,-95,61,193,509,154,62,-252,-384,-1962
-562,-110,-11,130,308,79,-12,-247,-237,-1453
183,-112,-128,-19,-77,-94,-95,-167,28,-238
684,-86,-218,-173,-435,-164,-53,-36,428,643
760,-59,-187,-162,-399,-113,-60,-98,290,968
621,36,-4,-112,-143,-183,-119,-134,237,1462
225,48,-16,-212,-180,-264,-46,91,477,1544
-163,42,-10,-232,-414,-99,120,283,473,743
-240,194,68,-251,-475,24,182,322,259,269
-219,193,52,-312,-362,-48,115,280,89,-36
-233,162,56,-307,-412,-203,40,263,-89,-616
-84,140,57,-207,-649,-186,113,250,-208,-791
-103,-38,16,-96,-613,-53,205,204,-190,-323
-108,-125,23,-22,-236,6,284,172,-60,292
9,-38,102,49,-27,23,346,183,7,642
210,100,238,180,-120,158,277,164,63,236
570,196,238,217,0,172,104,54,-25,19
715,-106,-159,40,623,26,-215,-254,-352,-129
773,-438,-392,-49,1187,-51,-407,-403,-479,-490
892,-410,-355,-43,889,-20,-370,-309,-306,-379
825,-138,-238,-34,406,21,-306,-251,-110,79
519,106,-75,108,367,148,-177,-156,-18,49
-295,212,72,252,462,272,-29,-76,156,-395
-916,-113,-67,110,352,187,-38,-98,248,-320
-927,-227,-178,-69,149,-27,-132,-214,141,206
-382,-16,-137,-137,-41,-229,-213,-301,1,1048
-101,-50,-155,-191,-229,-402,-242,-205,93,1701
-148,-23,-155,-227,-340,-442,-255,-96,109,1400
-339,53,19,-65,-209,-264,-166,-111,-253,482
-505,118,167,61,-69,-101,-78,-93,-429,134
-396,163,221,15,-69,-74,-12,-31,-238,510
-48,94,115,-117,-236,-217,0,67,99,766
172,5,-55,-282,-485,-275,79,213,299,571
130,-8,-105,-343,-618,-228,176,350,235,-331
128,143,25,-221,-522,-117,232,365,105,-1182
154,212,131,-72,-352,-43,226,237,-67,-524
100,181,140,-16,-259,-28,149,152,-19,198
214,190,110,-20,-233,-42,59,125,258,667
675,79,-94,-192,-394,-209,-102,79,688,2156
964,-53,-282,-389,-732,-392,-162,124,1096,3379
862,-92,-293,-444,-1071,-478,-151,32,1135,3168
597,-24,-132,-328,-1344,-524,-149,-169,750,2364
26,-55,-47,-178,-1449,-441,16,34,466,680
-697,-68,94,111,-1110,-10,384,427,7,-2369
-931,126,450,556,-368,441,566,472,-605,-3981
-997,14,410,742,518,833,533,444,-818,-3890
-891,-207,232,738,1508,1057,277,55,-921,-2818
-772,-489,81,664,2383,1028,-65,-390,-980,-2262
-684,-829,-144,564,2801,885,-206,-615,-1058,-2346
-413,-961,-205,526,2383,756,-85,-470,-974,-2091
-49,-783,-110,504,1562,544,-67,-344,-754,-1388
307,-423,-34,370,929,319,-105,-255,-430,-727
616,235,94,96,377,-8,-165,-159,-64,-112
775,881,273,-138,-155,-421,-339,-197,106,474
697,906,295,-288,-562,-677,-422,-204,276,1016
457,517,142,-415,-874,-725,-364,-104,404,1610
213,174,-146,-575,-1139,-515,23,251,601,1866
-208,222,-109,-481,-1179,-290,306,432,535,1100
-594,405,121,-264,-1064,-117,426,466,319,348
-550,379,256,-63,-961,16,540,561,435,154
-283,220,177,-4,-628,223,568,546,653,319
-330,19,-13,-67,81,497,508,351,354,-198
-272,-25,-97,-106,466,371,376,126,170,-166
-80,-53,-140,-166,177,85,278,24,248,785
54,69,-22,-70,-243,215,349,-21,272,1219
120,92,4,9,-262,302,321,-1,437,1456
410,-73,-158,-172,-299,-41,23,-81,545,2053
739,-123,-221,-264,-524,-383,-339,-313,287,1391
422,-153,-182,-36,-121,-71,-509,-534,-297,-372
-101,-295,-174,107,553,250,-600,-622,-653,-1221
-612,-624,-386,65,1315,309,-528,-453,-717,-1741
-960,-670,-379,149,1714,170,-328,-220,-635,-2420
-835,-255,-22,330,1217,153,-187,-94,-476,-2580
-540,-2,257,447,794,261,-93,-11,-461,-2024
-529,14,327,525,739,343,13,57,-460,-1752
-280,-10,229,466,584,285,16,23,-445,-1662
297,21,120,226,103,65,-6,27,-231,-989
880,56,49,-66,-379,-136,41,165,172,187
1135,171,45,-233,-663,-280,27,224,430,1368
843,350,95,-330,-942,-469,-35,249,425,2153
716,588,175,-417,-1265,-675,-128,278,520,2533
698,494,31,-504,-1346,-656,-179,284,797,2314
340,212,-116,-448,-929,-395,-152,274,911,1301
-20,29,-113,-330,-534,-189,-50,344,940,645
50,-109,-176,-298,-567,-215,-73,346,960,1556
111,-126,-211,-177,-338,-106,-149,176,749,1862
-71,-32,-103,76,439,141,-80,2,313,711
-345,-90,-139,181,864,144,3,-122,-70,-333
-562,-247,-234,103,533,-89,19,-221,-377,-691
-577,-179,-70,39,13,-162,121,-140,-508,-882
-570,36,150,147,-191,-25,238,-33,-715,-1908
-560,148,297,250,-183,87,290,24,-832,-2309
-521,142,305,283,-103,219,382,127,-670,-2159
-254,213,388,413,-86,295,390,195,-367,-1692
144,298,431,440,-36,219,253,144,-206,-787
441,231,321,311,-121,193,141,37,-102,-54
485,186,220,189,-196,148,46,-40,-65,300
210,163,186,104,-26,42,-39,-167,-205,178
-181,104,88,56,546,131,-152,-399,-646,-342
-327,51,49,101,1166,259,-212,-472,-642,-534
-218,-156,-152,-73,1109,68,-167,-153,-142,-155
87,-295,-308,-271,493,-229,-102,54,306,741
489,-339,-411,-401,-77,-408,-135,53,513,1644
661,-322,-468,-450,-324,-439,-157,109,731,2374
716,-274,-474,-464,-435,-465,-195,90,808,2902
673,-289,-467,-506,-565,-543,-305,-15,732,2710
668,-171,-322,-443,-748,-520,-247,-15,563,1937
687,123,-9,-193,-927,-339,17,32,141,931
602,385,332,139,-749,-85,178,-34,-380,-341
452,469,505,372,-446,110,192,-47,-578,-1451
106,367,453,443,-471,274,279,101,-349,-1422
107,251,188,241,-601,390,291,236,120,166
172,-4,-101,-50,-40,478,5,64,319,1527
-8,-434,-444,-312,1121,218,-470,-327,242,1434
-373,-842,-798,-496,1558,-186,-670,-501,123,702
-643,-1017,-940,-439,997,-147,-509,-424,35,180
-772,-843,-609,-115,790,168,-225,-289,-189,-856
-956,-578,-242,190,891,440,80,-90,-456,-2033
-996,-186,113,438,916,581,245,-111,-807,-3000
-604,371,613,682,796,482,148,-349,-1130,-3046
-260,616,932,855,609,322,43,-496,-1109,-2299
-163,455,898,848,397,263,172,-188,-698,-1850
-229,126,654,656,297,325,388,228,-308,-2060
24,133,370,332,200,281,457,391,-174,-1978
51,-44,41,79,14,236,531,528,236,-1235
-279,-268,-154,-128,-237,102,463,553,512,-293
-430,399,72,-257,-452,-181,100,268,495,373
-287,753,126,-431,-650,-460,-211,74,650,1094
-196,387,-110,-580,-719,-554,-300,111,891,2062
-189,349,-76,-480,-619,-473,-292,43,685,2009
-108,290,-18,-341,-627,-388,-247,-48,481,1674
254,214,-100,-326,-937,-448,-169,-35,533,1963
388,164,-158,-247,-1122,-383,-32,38,516,1977
300,61,-45,-131,-1172,-265,88,108,332,1576
324,149,109,-55,-1341,-287,180,202,244,1358
-7,190,190,63,-1084,11,328,356,95,-243
-592,199,324,388,144,740,384,161,-495,-2530
-573,189,361,561,1516,926,219,-217,-986,-2894
-285,14,137,357,1910,474,7,-357,-928,-2281
-150,-269,-139,91,1334,194,3,-213,-666,-1626
-83,-411,-284,70,827,304,95,-144,-589,-1397
-68,-542,-427,85,678,372,133,-195,-690,-1147
-74,-540,-375,98,641,369,124,-235,-588,-685
-180,-387,-218,65,518,283,5,-232,-374,-275
-344,-442,-212,6,320,160,-109,-152,-87,268
-183,-334,-171,-48,28,-74,-250,-66,98,951
421,46,-62,-155,-307,-348,-385,-11,358,1656
1000,175,-122,-358,-631,-556,-448,29,748,3116
1206,60,-300,-636,-946,-749,-531,-2,931,4176
1105,-77,-466,-812,-1093,-788,-466,-28,792,3652
687,-118,-381,-683,-952,-605,-251,-33,486,1943
161,-118,-241,-419,-725,-383,-32,71,208,490
-263,45,-14,-69,-388,-82,221,191,-112,-1172
-439,236,298,224,-106,150,328,219,-314,-1999
-516,405,576,449,65,375,483,314,-418,-2512
-446,367,566,471,135,515,578,344,-301,-2101
-333,252,452,389,132,489,458,129,-233,-1571
-36,237,366,267,50,237,147,-141,-322,-555
109,165,207,84,-151,-4,-3,-25,-47,34
105,144,145,1,-455,-169,86,184,258,55
83,162,145,4,-613,-220,135,193,239,141
-72,155,160,133,-227,23,250,202,64,-508
-358,45,131,288,456,345,369,249,-101,-1069
-473,-143,-21,328,1087,508,280,162,-183,-1065
-528,-318,-191,288,1377,513,43,-42,-204,-895
-511,-408,-278,217,1272,280,-208,-243,-242,-594
-383,-447,-306,107,751,-1,-275,-384,-196,-74
-154,-456,-359,42,31,-56,-186,-341,-50,531
117,-405,-269,40,-444,-89,-164,-227,89,869
319,-290,-86,93,-792,-209,-260,-147,168,1143
533,26,170,125,-1128,-342,-404,-71,194,1301
569,339,388,123,-1069,-316,-430,-74,228,1090
463,339,260,22,-200,-123,-410,-203,150,835
309,241,105,-104,613,52,-234,-261,-98,372
268,121,-14,-206,381,8,-64,-138,-115,196
555,80,-100,-233,-207,-201,-25,38,226,872
974,103,-169,-358,-732,-395,-21,125,418,1929
1183,147,-133,-422,-1066,-529,-100,98,399,1995
1130,179,-22,-360,-1054,-470,-147,119,314,1261
840,56,-18,-249,-584,-51,-66,32,0,284
432,-154,-133,-208,387,206,-49,-124,-252,54
-131,-451,-282,-178,1278,132,39,11,-144,-365
53,-558,-243,33,1362,-42,70,168,34,-887
875,-239,-13,303,931,-118,18,114,-74,-1233
1145,15,120,417,740,105,13,37,-220,-1561
109,-477,-165,426,949,450,138,120,-186,-1642
-1434,-749,-312,316,963,576,271,235,-35,-1262
-2276,119,100,180,661,380,137,39,-183,-1386
-2169,679,382,99,376,159,-44,-203,-414,-1798
-1731,538,280,40,145,13,-112,-218,-321,-1469
-1050,354,181,-42,-78,-147,-179,-189,-196,-714
-498,146,96,-154,-314,-285,-225,-185,-126,290
99,62,-80,-321,-592,-399,-224,-206,13,1591
610,33,-302,-493,-848,-491,-247,-261,184,2727
756,-81,-378,-668,-1079,-544,-199,-72,494,3138
551,-181,-421,-726,-1167,-580,-162,192,750,2714
140,-121,-224,-436,-787,-317,-100,182,480,1114
-447,58,118,12,-99,181,172,204,-27,-984
-760,209,322,251,406,429,378,250,-270,-1713
-788,87,245,222,539,335,405,226,-226,-1764
-532,90,200,228,493,171,339,129,-217,-1465
-273,208,236,284,352,113,401,65,-375,-946
-105,298,286,316,213,185,479,65,-351,-1079
33,291,243,293,92,213,437,69,-233,-1007
151,232,143,193,-135,122,260,82,-66,-535
113,166,234,215,-244,33,110,-37,-33,-316
85,22,200,222,-177,42,-54,-216,-161,-126
130,-244,-37,78,107,156,-115,-278,-184,2
352,-496,-277,-93,408,117,-128,-326,-218,217
634,-579,-374,-203,396,-45,-172,-205,-118,683
565,-648,-515,-266,177,-92,-133,173,282,1064
736,-408,-464,-274,-133,-138,-179,284,621,1617
947,-86,-285,-317,-505,-271,-296,144,605,2130
858,215,-197,-370,-780,-375,-348,0,459,1742
499,327,-145,-345,-911,-370,-279,0,346,1541
160,282,0,-230,-927,-289,-143,100,317,1576
19,287,164,-18,-674,56,70,198,215,303
105,394,321,223,-22,439,189,236,150,-1255
57,180,129,169,693,383,-2,172,304,-322
172,-139,-203,-115,876,-6,-245,7,298,1306
240,-235,-312,-224,412,-210,-321,-149,1,2026
-93,95,-69,-116,135,-216,-290,-289,-498,722
-414,256,207,112,160,-48,-125,-339,-988,-1445
-310,331,408,300,153,82,64,-236,-1104,-2593
-193,377,460,375,86,211,267,-38,-866,-2684
-419,271,381,350,54,326,409,89,-581,-2487
-189,194,272,244,-228,207,316,103,-97,-1071
446,272,221,101,-697,-134,68,84,301,1052
601,265,111,-4,-876,-240,-65,-8,476,1854
323,15,-71,-95,-436,-17,-89,-217,453,1822
47,-175,-190,-139,135,91,-101,-408,289,1219
-287,-266,-160,-48,230,115,-30,-357,90,-460
-687,-403,-131,110,178,328,299,33,-13,-2434
-1006,-596,-146,279,482,722,565,361,-169,-3112
-992,-711,-112,461,1074,951,496,228,-657,-2913
-879,-682,-101,497,1459,878,252,-67,-826,-2510
-695,-317,-40,377,1412,399,-133,-288,-767,-1951
-688,-118,-4,230,986,40,-339,-208,-502,-1413
-458,1,178,294,643,49,-302,-121,-260,-800
-103,81,191,220,501,-54,-302,-146,-154,-210
-8,-50,-31,-86,244,-317,-296,-125,-9,175
114,305,61,-210,-288,-529,-243,-145,110,604
104,214,-72,-435,-862,-646,-105,26,373,1268
314,-169,-412,-744,-1290,-683,162,411,865,2244
630,-95,-441,-758,-1431,-598,357,514,1015,2775
602,275,-111,-471,-1331,-360,504,537,970,2842
493,410,113,-244,-1112,-309,432,391,729,2694
234,371,233,-29,-319,-49,240,113,219,1599
-373,147,207,131,847,475,200,41,-211,-501
-543,41,124,136,1235,615,146,11,-363,-1507
-165,-37,-35,-84,627,241,-38,-94,-333,-726
234,-105,-157,-264,104,-186,-296,-201,-202,147
518,-105,-188,-297,-141,-432,-552,-193,3,931
563,-91,-200,-297,-240,-525,-664,-165,152,1222
390,-14,-90,-193,-172,-406,-541,-31,244,389
256,168,98,58,109,-129,-332,90,209,-904
122,230,196,267,366,94,-143,173,86,-1520
-17,84,97,353,443,153,-2,173,-100,-1469
-95,-101,68,366,413,241,111,82,-248,-937
-220,-201,90,377,321,263,98,-95,-350,-157
-226,-224,112,355,184,168,52,-85,-259,231
-79,-348,-21,182,-20,70,85,151,76,509
142,-273,-39,84,-209,5,120,107,81,378
20,-151,4,36,-320,17,170,116,26,-365
-213,-4,34,1,-294,90,182,153,30,-565
-72,181,-12,-94,-148,60,32,33,72,-147
44,204,-95,-149,-100,-80,-150,-66,158,181
158,204,-25,-151,-458,-248,-191,-11,355,563
222,154,-89,-213,-909,-366,-142,31,621,921
96,13,-126,-253,-1273,-409,29,69,657,662
151,152,73,-126,-1464,-361,216,128,558,305
298,349,260,33,-1328,-188,331,255,543,578
332,216,138,28,-510,131,235,191,396,1275
175,-42,-78,-34,482,382,-19,-125,44,1110
99,-181,-165,-79,796,253,-252,-301,-223,570
10,-297,-259,-120,900,20,-280,-272,-376,336
-97,-320,-312,-111,759,-87,-181,-239,-350,268
-248,-175,-46,70,473,96,91,-100,-207,-347
-367,-3,236,310,281,342,489,123,-212,-1085
-293,7,272,430,463,549,439,52,-527,-1525
74,41,256,468,936,659,253,-99,-794,-1921
387,88,238,452,1208,484,199,-34,-545,-1760
143,-84,100,310,1013,150,105,89,-255,-906
-310,-147,37,168,584,-74,-44,65,-121,-323
-207,415,325,166,223,-206,-209,-180,-205,-419
281,900,453,79,-50,-362,-383,-492,-405,-733
357,400,61,-188,-230,-297,-412,-396,-328,-879
435,-79,-268,-303,-230,-132,-321,-84,-63,-392
289,-202,-267,-160,-100,-66,-234,21,130,477
55,-87,-134,-77,-107,-117,-175,8,382,1643
-279,-219,-168,-144,-207,-96,-96,48,613,2119
-344,-441,-305,-224,-292,-114,-98,85,633,1945
-199,-498,-381,-302,-411,-256,-210,50,566,1657
-265,-478,-367,-312,-419,-209,-191,29,351,799
-237,-31,-121,-171,-270,-59,-115,13,63,-294
45,256,101,12,-60,18,-86,6,-114,-687
327,208,79,135,145,60,-6,14,-193,-741
527,70,-123,23,37,-8,26,-26,-51,188
391,-43,-149,-109,-84,-61,15,-63,72,587
-251,141,78,45,-23,19,34,-140,-256,-775
-843,162,191,318,96,228,150,-138,-570,-1728
