-128,-23,13,14,21,-7,9,4,44,-62
-76,13,32,16,28,-13,-10,6,37,18
-65,21,28,18,27,5,21,21,16,-4
-79,44,41,33,46,39,45,42,59,-184
-64,64,51,67,71,68,7,25,-1,-230
-34,50,43,63,66,62,-18,-3,-40,-118
-38,29,32,39,39,63,-5,2,-29,-101
-58,34,34,45,32,69,35,33,-9,-146
-33,21,25,32,14,54,54,52,28,-106
33,12,-3,20,-17,27,27,48,110,-3
94,18,-9,34,-14,18,7,34,77,30
79,31,27,65,11,25,-14,26,-16,-87
-37,10,35,79,43,53,-14,35,-57,-319
-118,-10,47,64,42,49,-21,34,-84,-418
-91,-1,35,41,16,20,-22,25,-64,-274
-56,4,18,24,0,18,-16,31,-49,-90
-44,-10,0,-5,-13,5,-27,23,-22,-35
-59,-23,-8,-18,-18,1,-34,13,-42,-28
-73,-24,0,-1,-6,26,-37,26,-93,29
-81,-28,-17,-17,-29,21,-16,44,-115,80
-68,-13,-35,-36,-53,2,0,42,-84,76
-27,4,-25,-59,-67,-3,-7,25,-72,100
-7,10,-3,-63,-66,-4,-41,4,-80,105
-7,-12,-6,-47,-61,-3,-58,0,-109,62
-32,-50,-74,-31,-51,-3,-38,7,-142,-8
-40,-69,-89,-22,-21,9,-12,1,-162,-73
-41,-34,5,13,12,6,-7,-7,-156,-99
-12,12,37,49,32,-2,-33,-27,-140,-61
23,34,12,33,34,-7,-43,-40,-105,3
17,40,42,6,25,-19,-38,-41,-62,27
7,8,-19,-7,-8,-32,-33,-24,-31,12
31,-15,-42,-11,-28,-43,-26,-28,-31,45
78,5,0,5,-22,-36,4,-21,51,183
101,23,-15,23,-16,-26,14,-8,124,280
88,14,-36,3,-28,-11,16,-7,125,298
85,-10,-16,-23,-56,-22,7,-10,129,252
56,-9,-9,-45,-63,-35,3,-17,161,117
50,12,-1,-33,-40,-28,-6,-2,179,16
91,49,-37,-10,-8,-13,-21,10,132,119
99,60,-66,-4,-7,-8,-22,15,141,252
88,50,-18,-15,-9,0,-18,14,126,269
133,48,-76,3,18,8,-10,5,115,264
213,47,-3,23,15,5,-17,0,117,326
254,40,43,26,-4,-8,-4,-8,119,467
225,21,10,13,-18,-18,4,2,115,600
96,-6,-41,3,-12,-9,-5,5,108,521
-44,-42,-138,-32,-28,-17,-8,6,166,261
-73,-56,-64,-56,-50,-19,-14,15,147,27
-85,-44,-6,-59,-49,-3,-7,25,78,-162
-132,-48,8,-51,-26,11,29,33,66,-260
-114,-79,-24,-49,-8,17,22,25,29,-164
-69,-127,-40,-23,9,6,-10,0,-28,8
-71,-114,-55,12,11,-2,-13,-20,-63,-43
-20,-73,-64,30,17,-3,-23,-38,-142,-130
64,-34,-32,-13,-8,-22,-35,-55,-132,-87
101,-28,-25,-82,-60,-55,-58,-59,-77,51
80,-23,-42,-101,-62,-92,-68,-51,-49,168
18,13,-52,-19,9,-119,-87,-70,15,150
4,10,-24,34,78,-122,-117,-114,-6,85
-4,-36,-23,13,104,-96,-84,-125,-52,34
-30,-79,-19,-8,70,-46,-4,-74,-23,39
-57,-86,-14,-3,55,38,58,-16,-15,39
-99,-76,1,8,47,110,96,22,-42,-104
-126,-77,8,10,37,119,124,32,-25,-180
-164,-44,43,31,35,153,172,68,22,-213
-246,-14,93,71,42,188,221,113,-10,-498
-262,27,93,98,27,158,179,90,-31,-650
-230,37,88,91,7,89,113,22,-59,-583
-177,65,108,105,32,71,72,-13,-74,-505
-125,61,89,93,23,63,49,-27,-63,-366
-90,37,67,57,-10,40,58,-29,5,-194
-31,42,38,34,-16,35,80,-3,18,-71
69,77,30,19,-27,16,87,10,4,66
162,129,29,1,-44,-34,17,-4,15,140
186,133,28,-15,-55,-59,-31,-29,48,100
171,74,16,-47,-60,-44,-60,-33,14,71
202,40,-20,-72,-74,-58,-101,-41,-19,107
205,43,-17,-68,-70,-80,-120,-57,-45,124
130,59,4,-52,-47,-51,-84,-23,-38,56
71,69,-41,-15,-31,-20,-47,6,-26,14
-5,63,-45,24,-22,9,-17,43,-29,5
-106,50,19,52,16,48,20,70,25,0
-114,16,-15,50,21,44,25,70,64,73
0,-7,-15,40,4,17,-37,22,6,34
58,-18,52,15,-23,-19,-67,-7,3,-86
27,-31,34,-27,-36,-45,-54,-9,95,-173
-56,-59,31,-23,-26,-33,-33,6,56,-200
-115,-80,12,13,-1,-1,-14,19,-13,-132
-160,-100,-6,17,16,39,8,44,-11,-16
-165,-86,26,37,36,66,34,59,-10,-32
-84,-36,47,67,47,66,33,46,-6,-111
10,-9,47,30,25,35,29,43,23,-5
91,-10,12,-12,-8,10,12,52,42,246
167,10,-25,-49,-40,-14,1,52,126,429
302,54,-10,-49,-52,-40,-38,11,164,629
380,55,1,-44,-49,-46,-71,-26,78,754
289,15,-3,-54,-35,-31,-56,-28,42,589
123,-3,-4,-28,-11,-15,-24,-17,33,292
-20,-16,-17,-19,0,-19,-13,-18,1,-47
-182,-53,-43,-32,5,-8,38,-16,-41,-369
-278,-65,-33,2,38,25,94,-4,-24,-540
-299,-34,12,54,70,56,105,4,-67,-529
-301,2,-2,59,67,42,62,-20,-81,-500
-277,20,-10,47,44,19,5,-40,-51,-497
-217,-6,35,14,16,22,9,-21,-57,-354
-169,-39,24,5,10,32,21,2,-119,-161
-179,-72,10,9,17,46,39,33,-145,-90
-168,-90,-5,-12,13,50,39,58,-61,-59
-84,-60,23,-15,9,55,35,65,59,-20
-28,-37,18,-14,12,55,28,50,95,46
-31,-22,-36,-35,7,42,35,44,162,229
18,-17,-70,-61,-19,26,27,49,178,430
110,-25,-57,-102,-74,-7,-14,36,115,534
186,-18,-39,-107,-95,-47,-55,6,60,621
247,11,-35,-66,-81,-63,-79,-22,82,717
222,26,-37,-37,-73,-73,-81,-43,31,800
196,54,28,-20,-71,-107,-104,-72,-40,724
226,83,46,-24,-80,-105,-127,-75,-45,410
177,62,29,-59,-76,-89,-111,-62,-67,-35
110,11,-12,-84,-72,-98,-99,-64,-74,-275
141,-49,-46,-116,-103,-134,-113,-81,-46,-31
158,-95,-75,-113,-112,-134,-85,-87,-40,88
141,-91,-100,-109,-108,-121,-65,-105,-55,18
188,-114,-192,-151,-120,-107,-82,-127,-61,130
188,-136,-247,-159,-106,-87,-104,-134,-62,299
83,-97,-85,-103,-44,-52,-90,-107,-53,317
-82,-18,35,-14,43,-1,-27,-80,-99,-21
-114,75,56,82,140,68,25,-46,-172,-398
-71,96,122,122,193,130,74,-6,-176,-422
-70,71,205,113,201,173,107,9,-148,-490
-99,65,205,88,207,203,129,15,-181,-590
-158,56,164,29,153,219,150,52,-160,-565
-205,68,134,36,102,196,175,88,-59,-726
-280,63,122,144,155,136,132,75,2,-965
-299,44,86,211,169,62,66,31,37,-931
-203,-2,51,164,98,8,10,1,-18,-643
-118,-44,20,108,13,-20,-15,-6,-81,-363
-86,-38,10,51,-32,-20,-5,-5,-61,-223
-91,-22,-13,1,-25,-8,2,-4,-52,-255
-144,-29,-36,-1,18,24,7,1,-107,-315
-116,-28,22,20,44,40,9,5,-109,-209
-11,16,43,16,29,22,9,12,-69,-34
21,34,38,27,28,10,14,0,-40,32
38,29,17,11,11,6,18,8,0,99
89,22,18,-5,-10,-2,0,10,38,209
83,17,-42,-17,-14,1,-15,-1,46,233
65,-5,-70,-32,-27,-5,25,-16,55,198
50,23,0,-24,-43,-21,31,-20,51,116
25,56,84,-9,-67,-46,8,-29,38,-20
28,84,84,-6,-94,-57,30,-10,106,-127
17,98,88,16,-116,-58,51,21,187,-103
-8,89,41,43,-124,-81,32,13,110,1
52,52,-30,15,-116,-78,29,20,105,247
99,-10,-11,-16,-91,-35,36,19,78,325
83,-36,-9,-33,-29,-4,10,-7,38,227
57,-45,-19,-49,40,5,0,-10,41,241
45,-73,-51,-60,100,12,-6,-1,40,272
13,-106,-84,-71,74,-13,-41,-3,16,119
25,-105,-90,-70,6,-33,-71,-4,-14,16
30,-67,-85,-52,-2,-23,-55,-17,-48,35
-2,-51,-19,-17,37,-10,-36,-19,-81,19
12,-29,11,43,45,-10,-67,-27,-81,144
42,-31,1,20,15,-23,-80,-30,-45,303
83,-54,-63,-33,-22,-34,-49,7,64,414
225,-27,-76,-36,-38,-59,-68,6,86,750
452,47,-23,-46,-74,-109,-144,-59,91,1256
506,38,-20,-80,-115,-137,-181,-111,99,1354
373,15,-17,-68,-86,-127,-171,-120,37,775
262,27,1,-38,-54,-110,-138,-114,0,195
137,15,-83,-38,-28,-61,-89,-66,18,-137
-130,-3,-22,1,36,3,-26,-21,-3,-707
-268,0,74,47,92,20,31,-14,3,-816
-179,-4,73,31,61,-2,29,-14,53,-362
-62,-30,26,-15,9,4,31,-7,52,-67
-25,-41,-32,-51,-15,24,48,32,85,8
-120,-59,-88,-28,4,30,47,60,122,13
-225,-32,-12,20,27,47,52,73,126,-10
-263,21,57,77,82,69,68,72,86,-119
-340,60,110,130,143,135,109,62,-26,-664
-362,56,108,143,134,177,123,69,-86,-971
-247,60,70,128,101,153,102,59,-73,-635
-104,87,40,130,65,133,82,50,-27,-112
-33,81,6,120,39,117,67,51,8,108
43,100,48,63,7,75,36,45,30,144
150,102,28,-5,-50,-5,-10,38,58,301
190,58,-28,-58,-85,-50,-54,17,72,370
43,27,-31,-68,-91,-51,-64,27,62,131
-133,-3,-21,-70,-108,-50,-46,31,66,-66
-132,-59,-30,-76,-116,-62,-39,19,74,0
-80,-87,-29,-65,-83,-52,-40,20,56,7
-81,-66,-12,-31,-42,-18,-15,22,-1,-124
-31,-34,4,-12,-41,-22,2,12,-43,-249
-46,-5,40,32,2,7,20,-9,-140,-482
-92,-37,20,35,55,37,11,-40,-192,-519
-86,-58,-78,41,89,63,13,-34,-160,-420
-86,-20,-41,73,96,83,0,-25,-133,-310
-34,11,-17,35,63,55,-24,-16,-108,-67
79,52,1,-4,34,26,-19,23,-42,178
170,97,48,17,36,15,-5,36,-14,342
230,103,40,13,1,-13,-26,7,-4,455
256,65,-25,-33,-31,-38,-40,2,36,517
195,46,-110,-43,-30,-20,-15,24,61,267
105,46,-22,-25,-7,-29,-17,11,69,-49
58,40,-1,19,51,-70,-20,-20,41,-192
-20,20,2,50,120,-68,-8,-31,-18,-328
-68,3,11,56,165,-49,-9,-39,-47,-341
-18,3,-8,16,118,-24,4,-29,-14,-116
25,23,-76,-37,-40,-17,50,26,60,152
14,53,6,-6,-151,-42,83,58,95,213
-89,52,130,56,-168,-26,120,75,54,-26
-138,19,143,89,-179,6,146,94,19,-279
-45,39,153,84,-252,-30,131,89,9,-314
10,84,135,61,-316,-67,105,89,36,-266
35,74,126,-2,-284,-22,85,68,75,-126
29,27,55,-63,-155,125,93,24,64,-22
48,-55,-39,-122,80,237,47,-32,33,96
79,-107,-93,-152,342,188,-45,-94,9,251
116,-107,-143,-154,344,52,-69,-114,42,338
134,-93,-113,-153,161,-25,-71,-74,35,291
43,-76,-65,-102,71,-9,-26,-29,24,89
-57,-75,-32,-22,62,-4,-11,-30,5,-87
-106,-74,-24,-10,23,-36,-39,-52,-20,-153
-87,-70,-71,-51,-45,-89,-77,-88,-77,-165
-45,-61,-96,-83,-93,-110,-108,-120,-106,-42
43,-39,-66,-84,-113,-111,-105,-96,-71,315
200,25,-56,-64,-125,-117,-87,-50,-16,697
362,128,17,-18,-122,-84,-49,-16,19,852
288,181,96,53,-56,-18,-19,7,21,342
136,107,75,41,-2,16,-10,24,39,-185
113,1,-18,-35,-5,-11,-43,6,99,-133
29,-55,-50,-43,78,-13,-52,-26,105,-239
-115,-55,-12,0,187,69,25,-5,66,-538
-63,-14,26,49,171,105,87,30,77,-344
114,9,6,109,131,95,95,-21,56,81
213,-17,0,79,88,84,83,-53,52,413
246,-42,-46,2,11,20,42,-76,60,704
389,-1,-50,-55,-75,-116,-60,-151,65,1002
424,15,-73,-122,-209,-222,-122,-137,63,943
327,24,-75,-156,-279,-264,-150,-2,113,724
173,68,-35,-104,-208,-216,-151,49,97,384
-111,75,36,-24,-151,-77,-32,103,32,-210
-532,51,125,100,-68,104,157,209,40,-941
-691,23,161,194,-1,217,238,243,101,-1000
-564,-14,147,208,17,233,213,189,43,-646
-331,-36,108,173,-17,195,181,109,-44,-356
-247,-16,118,148,-32,137,151,77,-98,-368
-336,2,149,166,55,93,84,37,-150,-576
-384,2,125,154,190,127,51,17,-184,-626
-296,-21,-22,94,389,143,30,9,-190,-504
-248,-46,-80,20,533,53,-27,-5,-212,-442
-198,6,-7,-9,383,-71,-98,-42,-213,-388
-129,56,26,-16,143,-128,-134,-69,-157,-258
-24,19,-18,-50,36,-86,-105,-69,-124,-92
36,-9,-45,-30,5,-42,-77,-75,-128,14
113,-24,-62,-11,-12,-10,-57,-64,-97,147
239,-43,-155,-18,-57,-14,-48,-56,-35,405
345,-18,-75,-20,-120,-60,-46,-38,14,629
258,4,8,7,-157,-93,-31,-8,33,534
53,-9,16,14,-178,-79,23,37,68,191
-45,8,18,-4,-176,-37,60,84,132,143
19,71,41,-26,-115,-32,60,98,160,270
151,113,26,-67,-50,-79,70,82,152,341
166,95,-17,-102,-107,-140,84,61,117,403
11,34,-31,-72,-129,-80,141,56,78,310
-62,29,-1,13,-38,25,145,56,48,214
-55,29,-51,60,68,87,95,30,4,46
-163,11,-94,53,91,144,104,15,-21,-295
-288,24,23,38,99,170,143,-7,-116,-784
-273,-3,37,6,108,124,113,-21,-146,-816
-180,-34,-50,-11,129,81,40,-14,-64,-527
-124,-39,-42,-16,193,88,-44,-47,-66,-344
-73,-47,-22,-20,220,54,-123,-101,-87,-223
18,-35,-47,-30,153,-3,-160,-107,-49,-84
153,-14,-138,-50,30,-59,-162,-105,-29,108
284,18,-110,-60,-33,-69,-145,-103,-29,245
267,15,-16,-41,-21,-70,-86,-83,-5,347
230,-4,1,-32,-10,-63,-30,-35,120,380
224,0,7,-38,-46,-59,-31,8,159,234
219,26,27,-33,-52,-54,-47,9,53,142
170,66,45,-13,-17,-39,-46,-18,15,158
170,65,55,-10,5,-30,-40,-38,-51,283
191,59,76,5,20,-18,-10,-29,-88,235
187,44,69,4,-6,-21,-35,-14,-78,217
266,4,14,-19,-55,-49,-85,-16,-46,318
102,-44,-11,-18,-41,-10,-35,-4,-35,100
-120,-125,-39,-40,-40,1,17,8,-10,175
-89,-202,-107,-121,-118,-83,-35,-14,33,643
78,-165,-124,-152,-169,-156,-109,-61,51,959
162,-65,-102,-112,-174,-167,-140,-77,107,866
84,-43,-131,-76,-148,-137,-138,-74,65,532
-147,-20,-104,-13,-65,-46,-59,-27,-53,-158
-395,18,45,83,52,95,66,55,-87,-922
-370,5,50,113,82,143,131,106,-31,-680
-255,13,95,103,95,160,152,129,8,-420
-135,80,151,131,136,152,139,109,-42,-519
-118,105,136,165,158,91,50,16,-87,-519
-145,115,101,167,150,61,10,3,-64,-586
-118,129,150,151,98,26,7,10,-29,-609
-82,117,153,111,26,-6,7,17,39,-540
-148,51,99,64,-21,-10,55,80,108,-455
-37,34,79,10,-69,-37,47,76,104,-215
99,27,65,-12,-107,-68,21,43,60,-39
-4,-50,25,-18,-93,-6,74,49,9,-171
-35,-105,-22,-29,-94,34,107,40,-24,-232
-17,-139,-64,-60,-110,18,71,4,-36,-154
8,-95,-59,-63,-98,37,55,-7,-18,-73
63,-17,-13,-46,-36,36,39,-13,-1,58
28,33,10,-18,20,0,0,-18,5,171
-18,42,7,-28,-63,-42,-14,-11,39,263
11,18,-17,-85,-218,-107,-36,-3,49,326
-25,-42,-58,-98,-250,-114,-46,22,-5,283
-25,-14,-21,-61,-154,-48,-22,39,-62,124
94,83,72,-11,-48,-13,21,58,-50,61
190,83,79,26,1,0,40,51,-40,231
137,24,53,51,6,66,46,12,-102,25
207,54,65,60,44,71,-22,-34,-112,-152
319,121,75,47,122,32,-99,-64,-60,29
351,72,26,24,191,15,-116,-84,-77,268
309,-29,-46,-23,181,-27,-103,-64,-29,528
117,-75,-59,-31,153,-37,-90,-54,-2,396
-134,-95,-33,5,131,12,-27,-20,0,72
-294,-62,4,33,102,43,72,27,60,-84
-428,0,65,65,75,74,176,92,145,-385
-399,9,82,70,46,67,244,119,166,-403
-178,-22,37,65,21,13,191,59,257,-105
19,-23,-71,22,-55,-40,132,22,273,200
135,5,-62,-21,-138,-89,76,-14,252,426
114,-17,-13,-48,-153,-72,8,-35,77,459
44,-56,-73,-76,-105,16,-17,-56,-33,324
9,-25,-92,-85,-64,40,-53,-86,-70,175
6,66,-14,-54,-17,30,-94,-97,-51,147
96,143,6,-53,22,-18,-138,-89,119,402
242,151,-21,-89,42,-108,-181,-101,234,736
269,130,-43,-89,-28,-160,-178,-124,247,704
98,91,-35,-51,-82,-128,-125,-106,136,184
-37,111,-12,-11,-216,-104,-7,-26,208,-349
-64,148,47,32,-345,-104,61,8,198,-713
66,134,93,87,-394,-103,42,38,105,-613
299,28,38,40,-483,-162,-26,99,13,75
387,-51,-23,4,-484,-166,-51,123,107,578
300,-38,-6,38,-305,-74,-16,92,165,718
-41,-62,19,84,4,130,70,58,53,273
-480,-103,35,149,330,313,148,-6,-151,-625
-683,-72,82,202,684,384,231,-28,-188,-1560
-518,-76,22,140,747,295,220,-29,-191,-1503
-404,-102,-33,74,565,212,178,-28,-203,-1037
-389,-118,-25,74,346,170,156,18,-196,-678
-219,-103,-10,71,209,151,125,51,0,-259
-87,-92,-38,59,157,145,103,69,134,36
70,-65,-66,7,95,100,120,123,177,210
340,-52,-52,-65,25,8,63,112,21,394
587,36,-57,-109,-43,-70,-71,38,-35,630
586,131,-23,-102,-88,-112,-131,-20,130,603
519,142,-18,-120,-102,-132,-206,-57,56,636
554,132,-32,-134,-59,-161,-258,-112,-166,920
523,117,-29,-132,-63,-194,-257,-158,-217,906
382,105,-18,-125,-142,-208,-233,-147,-226,485
226,66,1,-63,-187,-177,-175,-71,-239,256
-154,-41,3,19,-132,-54,-24,12,-316,-190
-762,-153,43,111,-7,110,63,48,-439,-1068
-1088,-230,48,130,98,198,108,109,-400,-1417
-782,-243,-23,71,138,143,97,108,-249,-911
-423,-240,-75,0,124,77,93,41,-198,-453
-170,-202,-88,-32,66,46,34,-34,-221,-161
27,-122,-76,-50,27,1,-52,-74,-214,-13
189,-59,-128,-73,27,-63,-45,-60,-157,141
214,-67,-140,-88,28,-75,44,9,-60,248
113,-80,-70,-58,109,-43,95,59,-32,118
45,-50,-20,4,127,-42,40,29,-69,205
47,-30,3,27,75,-67,-40,-66,-148,421
55,-48,-36,-25,3,-73,-58,-111,-108,425
12,-52,-79,-91,-50,-66,-33,-101,-38,236
-12,49,-42,-82,-84,-74,-28,-74,-40,13
-102,153,50,-13,-71,-77,-28,-43,-27,-216
-180,154,105,41,-45,-104,-54,-12,-38,-271
-166,133,111,58,-86,-154,-54,22,-45,-353
-136,139,103,51,-140,-177,-10,52,1,-343
-123,110,73,17,-178,-97,103,92,36,-131
-202,34,28,0,-165,29,171,137,22,-184
-98,-15,13,12,-130,77,130,172,31,131
179,-59,-39,-14,-100,42,68,210,75,739
312,-30,-85,-31,-117,16,30,153,98,881
389,-64,-105,-114,-225,12,20,16,63,777
265,-107,-135,-144,-215,46,46,-56,0,326
-84,-131,-107,-63,-84,121,64,-73,-111,-522
-281,-158,-77,-13,36,182,57,-95,-130,-728
-120,-93,-40,-7,146,160,25,-107,-35,-306
-42,8,18,41,273,84,2,-133,17,-30
-138,45,57,73,362,48,-20,-126,10,97
-227,-3,-10,61,343,45,-13,-90,1,223
-330,10,-16,85,262,59,-23,-51,10,0
-353,63,-6,111,184,48,-44,-32,-15,-600
-285,95,-18,119,105,63,35,46,0,-851
-129,96,-2,100,45,44,38,41,27,-578
68,96,69,76,11,19,-1,6,36,-332
229,118,135,52,-38,-17,-28,6,38,-105
215,107,114,23,-90,-30,-13,51,19,-54
145,61,70,-9,-123,-21,20,59,5,40
29,1,15,-20,-96,18,42,49,24,174
-74,14,50,21,-31,67,71,54,41,191
42,81,99,4,-29,14,55,36,87,433
202,100,62,-37,-110,-83,-1,-6,71,704
273,90,40,-55,-325,-152,-29,-30,33,845
299,99,55,-36,-504,-193,-46,-4,46,815
297,54,-43,-46,-517,-163,-78,2,71,517
202,-20,-54,-46,-285,-53,-109,-36,74,210
200,-62,-66,-53,155,4,-181,-90,97,80
251,-94,-150,-120,458,-33,-252,-145,127,360
299,-99,-152,-143,360,-87,-298,-225,74,846
281,-62,-77,-98,172,-71,-204,-200,15,959
152,-46,-64,-75,91,-62,-76,-108,-22,692
-65,-23,12,-5,89,-3,60,2,-57,-93
-254,-2,116,92,81,85,177,150,-75,-807
-120,-6,107,69,-29,77,213,210,-74,-625
-54,18,105,32,-92,65,210,160,-142,-779
-97,-20,52,40,-35,92,176,90,-204,-877
-207,-100,-66,35,130,88,84,35,-190,-724
-598,-155,-41,59,353,82,43,19,-190,-940
-887,-128,57,163,443,72,29,-16,-191,-1295
-666,-47,86,167,243,-1,-6,-5,-71,-1216
-338,8,25,76,29,-7,22,57,66,-717
-145,-9,25,2,-23,58,56,81,21,-374
-41,-22,12,-5,49,96,53,27,-25,-253
-59,13,44,29,157,115,38,13,-14,-228
-70,37,0,79,222,83,12,10,10,-218
-82,-18,-66,53,148,38,23,20,71,-50
2,-15,-6,-16,-3,-5,16,50,185,275
68,24,14,-51,-102,-45,0,65,217,439
191,86,23,-66,-182,-87,-15,39,223,547
341,133,28,-76,-222,-133,-65,-6,197,634
476,143,14,-87,-219,-148,-124,-58,137,627
576,99,-43,-115,-134,-128,-165,-95,52,590
541,27,-67,-137,-24,-120,-185,-122,-20,480
331,-58,-83,-124,-9,-102,-154,-103,-65,367
45,-131,-76,-66,-14,-57,-120,-69,-39,265
-221,-165,-69,6,3,6,-54,-47,-47,-175
-379,-128,26,76,60,50,-12,-60,-116,-477
-372,-123,44,59,56,58,31,5,-80,-352
-379,-136,-3,26,48,76,92,93,-12,-320
-343,-123,-17,25,43,77,92,80,-33,-364
-243,-72,37,50,51,61,28,-11,-113,-402
-186,-56,49,71,74,57,-39,-87,-147,-310
-79,-46,47,62,77,41,-72,-115,-123,-67
-27,-45,32,47,52,48,-36,-79,-34,119
-40,-44,25,31,10,64,37,-15,51,158
35,-9,25,-12,-76,36,81,39,115,168
145,20,13,-36,-111,3,78,43,135,186
197,35,20,-30,-95,-17,30,4,125,207
167,28,-28,-45,-90,-28,23,1,133,205
101,16,-79,-37,-65,-8,50,55,180,156
78,35,9,-6,-46,-10,50,67,222,110
107,25,0,-27,-64,-33,22,42,167,127
235,14,-47,-72,-96,-48,10,34,159,258
337,12,-73,-104,-122,-51,-26,31,161,442
299,38,-61,-106,-137,-84,-85,4,121,592
319,111,-31,-113,-168,-131,-122,-49,67,703
402,161,-38,-111,-219,-156,-133,-86,18,729
393,117,-36,-113,-246,-135,-76,-66,25,761
259,35,-58,-115,-247,-90,-45,-49,22,681
15,-27,-52,-100,-228,-60,-47,-23,38,388
-122,2,-25,-59,-200,-49,-44,32,103,75
-7,69,-8,-51,-147,-40,-88,17,142,180
69,100,23,-21,-29,-23,-133,-44,104,330
149,92,22,-12,74,-23,-144,-69,27,230
118,12,0,-10,91,-13,-96,-49,-130,-184
-111,-23,29,42,147,19,-29,-28,-279,-646
-36,16,67,88,170,25,13,-5,-267,-568
-27,50,106,110,132,14,56,39,-141,-277
-179,38,84,81,62,-8,37,61,-30,-129
-64,12,-33,11,-12,-40,-9,63,98,68
3,-29,-69,-35,-23,-5,4,62,175,17
-60,-67,-75,-59,-34,18,25,40,247,-2
-106,-55,-61,-29,-7,58,52,19,249,-10
-163,-25,-7,33,65,115,106,42,219,-168
-179,-24,-17,38,65,106,144,70,275,-287
-112,-10,-19,31,34,65,119,49,185,-452
-65,6,-43,30,25,40,74,0,-90,-653
-143,17,26,51,41,42,83,4,-128,-633
-325,9,80,102,82,90,115,22,-126,-745
-382,-4,105,130,113,111,121,16,-159,-672
-330,-73,59,96,105,118,112,35,-154,-343
-247,-96,16,52,57,82,70,26,-94,-46
-91,-104,-4,10,13,6,12,-12,-72,98
39,-66,9,14,12,-35,-82,-93,-130,12
216,-3,-58,-3,-36,-90,-129,-111,-152,72
344,11,-103,-33,-111,-113,-53,-59,-81,269
369,16,-34,-56,-169,-91,46,-23,-44,307
321,29,16,-47,-167,-55,85,-1,-113,166
279,27,4,-40,-205,-41,96,50,-103,-10
79,-46,2,-38,-262,-26,44,128,-254,-262
-116,13,82,55,-224,89,144,154,-141,-553
-120,37,122,114,-116,172,164,78,-111,-428
-136,0,111,113,-57,158,127,32,-110,-123
-56,13,96,89,-89,21,48,5,-63,44
61,0,51,58,-68,-43,-49,-59,-67,12
166,-64,-42,19,13,-1,-116,-101,-60,111
175,-91,-47,8,111,24,-131,-122,-4,196
211,-44,-18,17,207,65,-125,-155,26,134
119,-35,2,44,351,125,-96,-122,112,86
193,17,8,54,461,70,-61,-38,293,499
377,43,0,4,375,-1,-31,16,320,734
291,32,-13,-21,196,-31,-4,57,380,486
158,38,-12,-33,65,-49,-19,64,384,143
64,49,13,-26,8,-60,0,50,300,-217
-83,-8,4,-16,-30,-35,67,63,134,-533
-39,-85,-24,-27,-29,-21,71,66,53,-151
237,-65,-25,-31,-38,-63,6,61,130,473
440,-22,-35,-49,-116,-152,-39,76,295,940
265,-9,-16,-17,-126,-154,-61,58,219,897
58,71,81,37,-93,-94,-115,-10,-79,478
-162,155,153,78,-64,-11,-76,-35,-229,-192
-390,109,146,85,-58,-5,-38,-67,-338,-724
-470,-10,88,34,-127,-27,-19,-75,-402,-1018
-499,-131,23,17,-129,73,51,-36,-373,-922
-335,-147,-16,-1,42,92,35,-22,-249,-447
-144,-58,-6,-9,214,10,-57,-80,-173,-120
-140,-27,5,1,178,-9,-87,-111,-106,-9
-117,-61,-29,-10,68,4,-99,-128,-57,109
-32,-95,-85,-53,70,3,-104,-111,5,382
24,-128,-123,-106,90,-30,-48,-73,25,449
-72,-186,-176,-156,-18,-26,61,-15,-13,193
-233,-190,-171,-141,-42,22,160,49,-50,-85
-388,-122,-84,-60,56,60,117,119,-19,-275
-444,-2,57,52,119,113,82,217,-44,-552
-333,106,157,162,122,173,154,251,9,-718
-219,92,168,175,105,210,143,148,62,-586
-7,101,145,130,66,145,28,27,29,-217
158,79,92,88,83,57,-63,-64,-135,20
182,21,-16,40,164,-35,-122,-102,-162,158
124,1,-125,18,174,-88,-134,-105,-106,233
139,-3,-88,-15,69,-65,-61,-95,-20,262
221,4,-38,-48,-32,-47,-32,-115,32,228
145,34,-11,-37,-50,-16,-42,-77,72,165
-25,22,10,-18,-37,35,-23,12,119,212
47,-6,-3,-42,-93,3,-30,56,49,445
273,16,-4,-55,-160,-55,-43,70,55,586
219,27,-2,-37,-151,-77,-55,37,15,399
169,27,-102,-31,-130,-88,-71,-21,-42,214
122,12,-105,-29,-114,-87,-53,-19,-43,15
-102,22,0,-9,-73,-43,45,44,36,-250
-290,29,52,49,2,55,104,52,63,-346
-247,-5,65,79,78,104,61,-8,-76,-357
-96,-51,28,30,105,57,8,-64,-137,-315
11,-67,8,-4,65,14,-11,-67,-133,-257
9,-4,52,29,43,14,30,-31,-100,-207
34,69,94,47,27,22,15,-51,-92,-8
40,58,60,8,-13,-6,-65,-82,-84,0
-34,77,62,20,-2,0,-81,-69,-50,-168
-14,81,64,42,-1,32,-6,1,80,-45
107,41,1,-17,-26,26,20,50,149,234
145,1,-61,-95,-60,-6,-10,13,145,353
117,-22,-60,-103,-95,-67,-82,-45,10,270
26,-29,-86,-42,-94,-53,-126,-36,-21,103
99,27,-98,8,-78,-29,-103,-16,-2,56
248,80,7,30,-83,-56,-92,-4,37,121
291,89,51,34,-119,-117,-60,80,164,244
326,85,-37,-29,-196,-148,-54,96,149,518
347,112,-112,-70,-217,-143,-60,14,90,661
319,84,-90,-76,-105,-132,-76,9,121,813
185,23,-6,-51,64,-93,-32,58,217,729
144,-18,4,-51,102,-87,-12,79,260,623
233,-84,-105,-111,-40,-152,-78,14,195,722
72,-104,-93,-98,-99,-180,-106,-29,90,455
-52,-118,-39,-67,-96,-180,-56,19,65,267
-198,-150,-56,-45,-57,-140,6,68,60,61
-461,-89,34,85,64,-65,22,57,-82,-414
-656,-13,207,223,174,106,153,50,-283,-1248
-722,-69,167,208,151,243,271,49,-363,-1631
-563,-60,101,120,-4,206,213,50,-249,-1315
-299,16,84,46,-179,82,110,52,-100,-819
5,62,14,-50,-333,-28,47,71,34,-298
354,25,-59,-127,-278,-26,4,35,86,202
320,10,-52,-67,-38,25,-15,-44,22,199
228,53,-31,15,177,5,-33,-64,-31,26
241,42,-40,9,219,-60,-58,-85,-30,-71
121,-48,-41,-23,187,-29,-12,-174,-154,-210
-163,-155,-90,-24,182,70,117,-206,-292,-388
-260,-253,-160,-67,100,70,147,-191,-336,-200
-240,-249,-108,-56,-43,41,175,-34,-189,115
-526,-244,6,65,-26,110,230,242,-27,12
-725,-193,99,161,29,188,241,353,-38,-400
-585,-64,151,175,18,204,228,246,-36,-691
-218,59,183,169,-16,136,93,110,-39,-370
54,109,128,86,-26,92,-30,6,-78,-157
140,75,16,16,7,25,-117,-38,-75,-140
90,39,-30,-12,107,8,-130,1,-1,-205
-157,10,-54,-10,234,68,-43,70,75,-157
-174,24,-53,-33,215,72,-9,28,89,312
29,161,11,-40,64,41,-35,-7,153,593
313,264,37,-50,-70,-9,-75,7,243,754
362,257,44,-20,-49,-56,-147,-10,193,356
289,214,74,41,92,-76,-130,-53,29,-338
365,155,86,57,97,-119,-89,-58,-60,-258
482,99,39,15,-45,-143,-101,-84,-3,361
446,48,-5,-29,-156,-73,-67,-45,139,885
260,-120,-161,-110,-173,2,-82,-45,70,1072
63,-225,-295,-156,-96,24,-123,-92,-50,399
-205,-252,-233,-110,14,30,-2,-92,19,-480
-460,-212,-219,-17,-6,-20,116,-37,177,-901
-523,-185,-140,50,-95,-85,123,70,128,-776
-487,-139,-87,55,-146,-60,180,225,190,-489
-141,57,21,35,-203,-3,129,251,386,-36
296,220,158,19,-230,22,2,151,299,348
581,221,186,41,-187,58,-84,55,231,458
695,213,176,97,-34,67,-125,-61,30,616
754,285,197,73,119,-29,-154,-132,-65,914
521,325,224,50,90,-49,-107,-79,-87,841
133,306,201,54,-57,20,6,51,-52,280
-152,143,137,33,-88,96,47,113,-129,-512
-193,-29,69,27,7,151,14,23,-320,-739
-283,-149,-15,23,168,213,93,-54,-205,-593
-477,-232,-73,30,473,247,146,-120,-262,-567
-554,-232,-84,34,674,172,129,-189,-358,-610
-410,-190,-142,-25,507,77,87,-152,-272,-413
-445,-178,-119,-76,243,48,178,-52,-199,-368
-572,-251,-141,-125,89,-8,218,-20,-210,-479
-518,-269,-174,-148,5,-60,119,-9,-182,-430
-195,-169,-194,-137,-48,-118,16,0,-109,-135
68,-88,-115,-145,-85,-166,-15,13,-58,115
189,-31,-35,-113,-79,-174,24,39,-76,149
199,-47,-42,-121,-101,-189,92,86,-69,166
250,-32,-51,-111,-115,-188,183,100,-14,290
249,58,46,-26,-35,-130,221,45,57,207
256,94,85,26,11,-85,114,16,123,179
244,-11,5,-22,-25,-59,67,41,162,418
253,-83,-86,-80,-88,-100,-1,1,162,483
238,-38,-38,-60,-77,-82,-30,-7,237,322
83,-4,31,-3,-22,-19,-15,5,301,249
38,73,67,19,-6,29,-5,81,348,449
6,123,72,-9,-19,28,-150,54,129,372
-122,103,34,-61,-23,2,-352,-107,-18,110
-174,84,-16,-78,1,7,-327,-144,148,177
-152,108,-26,-81,-7,-25,-211,-99,464,463
-183,77,-36,-96,-88,-95,-76,-77,440,539
-58,38,-82,-118,-171,-159,3,-68,180,382
182,85,-42,-70,-148,-125,74,-30,28,71
385,179,45,37,-87,-66,103,-21,-69,-177
593,200,83,90,-125,0,12,-3,-165,-56
655,50,73,13,-176,92,-103,22,-358,131
437,-52,-5,-36,-136,220,-70,-26,-339,176
49,-117,-47,-31,-56,203,41,20,-146,188
-300,-142,-6,22,-12,115,93,167,-34,-115
-558,-77,85,128,20,155,155,235,-9,-659
-484,-9,143,174,76,226,161,192,-33,-609
-349,21,132,152,224,168,38,73,-137,-368
-221,85,110,94,363,-56,-200,-33,-130,-118
84,156,97,22,236,-258,-384,-74,-24,104
290,184,57,-35,1,-302,-432,-57,56,50
285,187,41,-50,-77,-232,-343,-69,-4,-178
108,62,-2,-17,20,-128,-215,-113,-93,-182
-314,-101,-7,59,208,-7,-89,-89,-96,-239
-568,-143,42,121,204,45,27,-5,-42,-61
-566,-149,94,151,110,62,85,18,-93,-216
-514,-154,83,146,89,121,163,45,-147,-684
-399,-141,36,112,54,180,278,119,-126,-862
-5,-56,47,89,-60,93,236,135,-59,-490
248,25,71,84,-85,42,124,89,-12,-174
176,5,48,75,-28,110,70,43,-6,-37
55,-63,-32,8,46,132,59,8,55,58
-96,-82,-100,-32,203,66,21,-54,115,146
-315,-103,-102,-64,194,-25,-4,-36,71,247
-357,-53,-93,-90,16,-73,12,37,111,274
-231,27,-31,-69,-64,-79,19,75,119,281
-36,46,-70,-95,-141,-81,19,66,137,572
201,51,-123,-136,-194,-101,-14,48,204,907
533,91,-88,-152,-208,-108,-69,9,216,1121
615,155,-25,-120,-225,-132,-107,-32,131,859
450,176,42,-52,-232,-146,-121,-28,66,247
180,112,54,-9,-126,-72,-102,-21,-54,-364
73,22,-98,-50,1,-67,-122,-32,-61,-278
72,-59,-144,-48,116,-61,-90,-9,-17,50
106,-80,-1,3,155,-9,-52,-39,-87,295
-11,-45,95,104,173,62,29,-49,-263,23
-382,-14,196,249,228,199,178,-27,-382,-856
-528,7,206,279,200,241,269,10,-298,-1209
-320,-10,136,205,81,187,310,-2,-173,-865
-176,-14,111,158,-40,139,259,-7,-102,-648
-70,-10,69,100,-127,105,176,14,-41,-312
32,-55,-45,49,-60,194,143,14,0,-41
153,-73,-54,13,149,245,108,0,28,88
255,-63,-113,-76,288,261,48,-22,17,191
223,-68,-160,-164,154,264,16,-55,-31,34
232,-15,-99,-174,-19,130,-66,-88,-57,-152
264,31,-59,-147,-107,13,-98,-88,-16,-41
168,8,-18,-89,-105,-48,-76,-70,-15,44
24,-57,-4,-48,-62,-59,-61,-67,-30,84
-54,-119,-56,-64,-44,-72,-78,-91,8,201
-124,-93,-58,-54,-7,-82,-91,-86,91,299
-135,4,-33,-55,-10,-96,-51,-79,143,440
-204,91,-5,-65,-74,-142,-29,-4,151,346
-259,50,-6,-46,-139,-185,-24,111,121,0
-184,-41,-35,-40,-168,-232,-73,137,94,-208
-86,-48,-34,-38,-162,-209,-88,90,142,-350
22,83,6,-12,-158,-173,-48,63,217,-279
89,186,37,-14,-179,-173,-42,44,236,-141
76,198,26,-16,-182,-122,13,72,287,100
226,231,34,58,-111,-58,43,86,400,556
194,183,96,129,29,-14,41,41,343,703
88,90,22,111,83,28,40,-15,87,667
170,43,24,59,90,35,-13,-58,-100,504
178,54,59,52,153,13,-15,-60,-68,27
30,11,15,36,157,37,20,-49,-65,-298
106,9,0,26,78,35,13,-69,-68,-149
270,39,-15,-3,-41,-26,26,-66,-5,260
206,2,-61,-71,-139,-47,138,23,85,355
141,-7,-73,-149,-207,-65,126,84,133,267
233,14,-118,-164,-149,-80,-28,-5,84,303
344,29,-72,-108,-32,-60,-204,-156,-7,478
278,16,-54,-71,5,-36,-222,-194,-71,575
124,-5,-56,-45,-42,-69,-147,-110,-60,491
183,-53,-38,-62,-128,-84,-33,-3,-16,386
477,33,-13,-84,-219,-118,-1,96,48,195
700,164,64,-35,-260,-119,9,224,55,-322
604,229,150,92,-190,-32,33,194,-117,-1011
403,169,128,154,-47,76,-75,5,-293,-1121
317,78,85,105,119,115,-192,-70,-209,-514
-47,-4,59,42,325,124,-263,-83,-135,-161
-688,-99,5,-2,331,188,-254,-29,-101,-293
-898,-119,22,41,183,232,-51,58,-51,-194
-732,-57,101,140,108,185,70,53,-36,-159
-562,-4,141,148,17,51,119,15,19,-210
-510,-66,58,60,-47,-17,270,16,2,-179
-603,-232,-101,-40,25,23,375,-21,-111,-249
-598,-307,-155,-62,93,88,355,-35,-126,-154
-310,-231,-124,-61,30,74,259,-49,-4,429
175,-105,-124,-142,-109,-30,106,-21,196,1008
573,76,-96,-182,-264,-167,-48,38,346,1049
699,198,-36,-164,-335,-189,-139,88,359,577
677,216,-62,-163,-273,-124,-197,52,334,373
511,132,-66,-119,-141,-56,-142,0,297,218
109,39,11,20,24,28,-9,12,176,-53
-252,7,102,161,176,112,79,41,174,-29
-318,46,155,204,193,141,50,-12,163,-210
-269,54,115,151,146,151,43,-83,89,-428
-265,-37,9,67,125,80,34,-176,36,-392
-201,-149,-61,-6,4,-9,13,-226,-53,-351
-312,-194,-118,-58,-91,-12,91,-187,-49,-621
-338,-149,-148,-86,-45,-26,114,-149,-45,-472
-51,-7,-80,-30,152,-30,76,-133,-65,-26
-68,27,16,54,284,-21,85,-76,-142,-270
-412,-40,77,120,341,18,200,83,-265,-859
-621,-169,8,78,251,25,246,266,-110,-1116
-499,-198,-18,83,174,69,230,293,41,-938
-336,-172,-61,122,165,125,135,136,12,-603
-198,-69,9,137,118,121,35,42,119,-386
-91,-2,106,120,79,133,45,75,0,-303
-50,-14,78,106,81,146,91,171,-127,-186
131,-10,31,44,12,80,30,177,-62,109
355,158,96,20,-86,-50,-155,16,-112,343
405,216,110,-11,-132,-135,-260,-78,-183,332
290,85,-23,-109,-95,-142,-245,19,-101,361
101,-31,-75,-105,85,-109,-205,59,-91,298
-46,-112,-45,-48,138,-84,-150,39,-132,-41
-207,-142,-46,-32,27,-86,-123,-1,-170,-257
-330,-63,-21,-31,-27,-71,-102,-38,-194,-382
-319,5,10,4,-24,-50,-104,-64,-205,-260
-203,-4,-19,13,-33,-33,-78,-67,-200,-28
0,34,-39,-2,-62,-21,-54,-51,-153,160
214,92,21,10,-56,-50,-65,-22,-77,350
290,86,35,5,-45,-75,-20,30,6,553
203,84,26,-3,-62,-98,4,50,57,694
83,84,30,2,-92,-98,0,38,71,668
65,80,7,-9,-103,-40,-11,4,41,472
72,48,-55,-14,-107,-1,-30,-22,82,102
22,0,-45,-22,-134,-3,-30,-28,161,-50
-81,-60,-86,-32,-149,37,23,-45,192,-13
-35,-96,-107,-57,-160,64,-14,-102,6,-79
84,-72,-90,-63,-91,53,-45,-143,-3,-35
128,36,-35,-7,89,60,5,-174,206,20
125,75,23,42,150,24,-36,-180,97,-30
164,55,13,16,53,0,-104,-133,-79,173
208,77,17,-11,-29,123,-70,-42,-75,204
76,77,43,10,-51,320,74,90,4,-7
-83,58,76,87,3,362,148,208,-11,-27
-223,24,77,99,73,372,133,223,-68,49
-265,16,42,55,151,457,80,136,-102,25
28,5,-15,-15,180,449,-24,42,-113,195
216,-36,-69,-68,164,324,-110,-30,-127,304
6,-134,-103,-87,150,253,-80,-63,-174,39
-309,-240,-138,-98,89,185,1,-71,-232,-382
-425,-247,-135,-87,-18,85,58,-54,-231,-635
-392,-192,-103,-68,-96,-67,45,-44,-164,-514
-150,-99,-49,-58,-162,-260,-26,-45,-63,-39
193,-59,-36,-69,-219,-388,-92,-56,1,361
343,-62,-102,-79,-226,-423,-157,-85,9,439
292,-68,-148,-82,-192,-414,-176,-83,14,324
319,-26,-83,-68,-177,-441,-191,-47,19,254
338,-17,-37,-42,-143,-457,-184,55,88,488
375,-5,4,-18,-128,-455,-168,80,174,928
669,71,41,-5,-186,-431,-193,18,111,1124
1053,158,62,-23,-223,-429,-253,-20,137,1173
1197,167,53,-59,-178,-436,-283,-38,165,1028
985,125,48,-65,-147,-296,-93,-7,160,739
377,80,87,21,-59,-39,254,97,137,145
-213,86,157,145,109,130,425,158,144,-379
-457,203,286,270,281,183,363,140,173,-721
-616,272,385,365,318,188,156,91,35,-950
-602,185,292,287,196,194,130,115,34,-942
-514,90,162,190,77,195,150,87,-11,-1044
-311,21,-28,91,-1,137,115,8,-68,-888
-39,-9,-120,-16,-53,34,-19,-13,-41,-544
138,2,-19,-17,-59,-91,-218,-36,-10,-297
137,-68,0,-3,-13,-108,-289,-73,-8,-126
9,-154,-25,-20,5,-58,-215,-63,-23,-36
-262,-194,-31,0,35,-13,-131,-30,-63,2
-485,-229,-60,5,112,-23,-65,-51,-124,25
-564,-240,-52,17,140,-61,-33,-87,-176,-89
-661,-228,-12,35,96,-14,22,-43,-145,-290
-485,-147,12,32,32,21,75,37,-52,5
-98,12,37,1,-77,-36,41,58,57,497
199,140,40,-60,-179,-112,-58,-11,48,634
339,218,50,-102,-200,-153,-146,-90,-34,333
151,150,16,-130,-114,-135,-143,-97,-88,-151
-52,25,-69,-165,-44,-63,-84,-61,-58,-52
-206,-40,-106,-162,16,38,-19,-25,-24,200
-232,-48,-124,-138,98,78,8,-29,1,188
-218,-39,-143,-108,102,36,62,-72,-36,-102
-373,-71,-107,-47,135,91,110,-108,-157,-699
-354,-99,-35,-3,140,126,105,-73,-156,-845
-103,-85,-12,-17,85,95,49,-46,-37,-301
74,-50,14,-4,75,77,44,5,7,198
278,9,39,2,2,18,29,81,70,613
370,45,34,0,-52,-24,-10,94,105,728
387,190,148,94,-26,-27,-22,71,89,375
204,266,221,177,-23,-12,29,57,78,-189
-101,124,142,140,-67,52,113,106,119,-471
-83,43,64,69,-107,102,138,102,112,-319
-11,18,34,41,21,104,67,15,20,-236
-159,-31,12,38,298,131,34,-56,-78,-388
-302,-86,-23,52,361,157,57,-85,-69,-530
-306,-131,-143,17,174,108,19,-98,45,-425
-134,-86,-177,-12,28,57,-1,-38,97,-96
7,-83,-115,-30,-10,67,26,50,59,150
187,-63,-101,-63,-60,18,-23,56,31,382
475,15,-117,-98,-135,-72,-101,-18,11,701
563,57,-24,-107,-139,-86,-141,-75,1,881
391,81,29,-77,-88,-55,-141,-71,-11,640
172,106,77,-23,-12,-6,-90,-49,-50,87
-61,100,106,24,47,59,-42,-34,-87,-315
-108,87,128,84,113,130,35,6,-42,-178
199,89,109,64,73,84,56,42,69,467
437,59,28,-35,-45,-13,-52,15,144,834
502,31,-41,-102,-147,-71,-165,-26,186,890
389,32,-79,-63,-185,-36,-103,-29,213,381
49,-9,-11,-7,-152,33,15,-4,167,-421
-219,-82,1,6,-132,25,128,13,121,-675
-378,-145,-11,6,-83,-88,128,19,-48,-872
-460,-89,41,95,62,-153,61,28,-140,-1006
-553,-64,111,142,164,-21,153,131,-138,-982
-565,-93,74,90,134,171,232,164,-82,-776
-281,-86,18,15,82,221,114,12,-33,-357
80,-53,-19,-44,75,190,-65,-149,-12,39
296,-50,-73,-79,125,177,-77,-197,2,303
277,-51,-46,-48,189,151,-31,-191,-31,292
152,-46,-59,-11,155,130,9,-143,-73,231
78,-38,-40,16,105,114,37,-47,-85,304
-64,-51,48,49,113,99,87,44,-52,412
-206,-100,43,49,92,72,105,63,-31,388
-157,-84,29,17,43,50,87,117,-16,246
-219,-18,58,31,12,18,51,160,-25,-118
-306,10,76,52,-22,-29,-6,146,7,-533
-254,-9,38,6,-82,-82,6,153,60,-567
-180,-45,11,-28,-120,-99,38,137,25,-296
-20,-37,7,-39,-160,-99,14,94,15,-68
72,52,64,0,-178,-61,-11,44,-17,-71
37,98,111,67,-118,19,-23,1,-40,-96
-67,105,171,137,40,90,-77,-64,-110,-245
-52,80,146,120,94,95,-100,-84,-72,-192
-36,36,67,71,9,75,-127,-93,-9,-49
76,16,10,4,-82,64,-130,-79,5,160
284,-59,-100,-113,-93,71,-50,-71,-16,451
378,-149,-221,-193,2,39,33,-93,-46,694
527,-132,-261,-204,-2,-54,31,-84,-62,864
756,-91,-189,-175,-110,-138,-4,-108,-55,894
816,-53,-132,-155,-196,-108,40,-98,-23,677
785,-3,-91,-161,-293,-53,128,-61,-22,499
471,-27,-116,-151,-337,-62,140,-44,-12,212
23,-18,-84,-74,-276,-63,70,-44,3,-312
-550,15,72,67,-184,-36,45,14,26,-808
-569,94,110,121,-127,-25,-22,48,107,-414
-139,200,123,106,-63,-18,-113,28,151,186
55,220,90,62,56,-8,-171,-23,116,474
-204,118,-4,19,318,26,-66,27,85,114
-508,6,-26,-6,541,-17,106,81,51,-463
-468,-69,-53,-18,443,-92,148,67,13,-349
-329,-142,-116,-24,231,-53,107,90,35,55
34,-40,-28,5,122,-24,99,146,172,613
494,52,3,0,-4,-57,37,111,192,985
592,78,22,-12,-93,-59,5,20,22,436
181,36,32,34,-47,35,-20,-69,-173,-798
-262,-32,32,81,-6,57,-50,-72,-214,-1341
-608,-71,43,107,-5,41,-37,7,-182,-1360
-594,-89,-8,99,0,64,32,62,-118,-876
-442,-91,-84,76,51,73,-26,80,-60,-318
-423,-88,-16,102,204,101,5,160,19,-291
-412,-101,-56,92,309,70,-7,113,49,-305
-306,-87,19,79,268,0,-148,-20,20,-174
-165,-60,59,63,142,-28,-174,-78,90,-22
-80,-84,-1,7,29,-12,-86,-23,208,101
-43,-91,-55,-34,-39,-18,-37,6,244,177
29,14,-4,-34,-114,-33,-5,41,349,217
161,105,51,-26,-153,-49,10,46,319,285
404,181,42,-53,-201,-96,4,59,333,423
636,222,23,-45,-234,-112,30,57,351,374
874,202,24,-56,-217,-57,44,19,239,284
1061,170,-4,-74,-117,7,14,-14,186,361
850,43,-109,-56,50,50,6,-15,311,542
529,-90,-128,-76,134,-2,-9,-30,275,616
250,-47,-87,-83,94,-52,-65,-73,57,387
40,127,4,-43,31,-57,-128,-107,-150,431
-159,186,17,-7,13,-17,-115,-57,-164,500
-297,174,63,20,21,20,-87,-5,-127,327
-346,130,127,11,2,8,-91,-19,-119,212
-261,64,90,-22,-35,-15,-102,-27,-168,163
-214,51,36,-47,-55,-40,-111,-47,-200,206
-260,-38,-89,-60,-45,-23,-101,-87,-280,282
-385,-158,-125,-32,9,54,8,-66,-303,6
-490,-121,-68,44,77,105,85,-17,-226,-642
-504,-50,55,67,67,88,38,-56,-236,-929
-574,-98,72,39,-3,33,-2,-84,-240,-914
-500,-114,28,-4,-110,-35,10,-47,-199,-652
-344,-48,21,-15,-139,-24,61,32,-132,-281
-116,37,57,8,-145,-28,70,163,-25,-65
80,40,108,58,-139,-32,35,219,-11,-186
178,26,118,113,-38,82,61,124,-88,-415
241,-17,73,96,123,189,105,29,-116,-417
148,-4,81,103,324,193,82,-30,-134,-471
-57,21,92,91,373,162,72,-23,-102,-485
-108,-34,9,-8,172,60,46,-35,-37,-125
-136,-72,-96,-65,15,-30,-6,-43,61,130
-293,-47,-68,-51,-11,-33,-17,-28,200,219
-224,29,-53,-54,-44,-41,-23,-25,309,465
38,88,-31,-97,-132,-85,-30,15,280,726
259,113,-7,-138,-171,-132,-43,18,245,871
345,106,-21,-164,-183,-141,-57,10,193,755
161,90,15,-72,-113,-91,-34,15,73,145
-110,49,79,54,1,15,12,39,-56,-550
-26,-39,30,9,19,44,-24,11,-131,-493
202,-149,-75,-64,-17,-16,-128,-73,-207,-92
389,-186,-94,-63,-14,-37,-168,-108,-250,69
428,-145,-50,0,57,-25,-116,-108,-291,-64
338,-80,42,67,84,-26,-10,-65,-294,-220
-43,-50,61,102,94,-30,77,-9,-261,-365
-501,-20,104,131,133,22,151,35,-194,-707
-576,22,154,128,130,87,171,101,-64,-584
-519,-17,120,103,126,127,117,97,-26,-263
-447,-30,74,80,116,132,55,35,-34,-17
-259,51,85,52,65,53,-19,10,67,147
-100,60,76,5,-28,-32,-67,21,131,324
43,-5,-16,-79,-137,-61,-12,62,218,517
159,-27,-59,-113,-196,-84,30,74,271,611
262,-18,-72,-114,-212,-119,-23,8,208,555
213,-14,-113,-94,-100,-85,-76,-61,42,258
102,-42,-118,-88,33,-11,-54,-42,-10,116
158,21,-43,-65,29,-7,-46,-48,-9,165
259,129,31,-21,-35,-48,-51,-76,-43,22
241,187,101,33,-56,-61,38,-57,-97,-188
136,196,142,82,-69,-12,221,43,-85,-343
93,147,96,56,-104,30,291,119,-19,-242
92,110,58,23,-150,36,233,100,32,21
25,80,32,9,-158,18,73,10,28,-28
-48,61,40,40,-37,93,20,-48,-11,-24
-78,55,64,83,44,180,106,-62,-26,-14
-112,83,106,129,12,165,63,-132,-34,-156
-144,99,140,148,-2,80,-29,-209,-44,-478
-154,59,111,100,-64,18,-113,-130,-24,-703
-100,-25,22,27,-73,32,-132,-12,-6,-545
-81,-102,-33,32,71,108,-89,-31,40,-324
-198,-160,-82,37,262,157,-15,-48,90,-264
-205,-194,-122,-2,354,82,4,-11,81,-213
-96,-121,-104,-33,209,-69,-52,16,203,13
9,-35,-71,-48,18,-127,-47,44,328,308
133,-10,-78,-81,-42,-77,-82,101,367,526
437,1,-77,-96,-86,-11,-122,174,256,656
811,55,-52,-81,-54,58,-82,116,229,698
1062,106,-2,-39,-27,25,-102,-7,229,806
1134,109,41,-9,-84,-97,-117,-84,130,937
1282,102,20,-24,-194,-168,-144,-89,144,925
1132,41,-28,-32,-226,-170,-143,-62,166,951
625,-2,-13,-26,-187,-140,-89,-33,92,548
-108,-4,38,19,-70,-82,-3,-9,-18,-574
-564,-45,46,51,31,-103,4,37,104,-982
-625,-100,-32,-21,16,-112,-12,49,94,-654
-763,-165,-83,-44,143,-26,-25,6,-174,-631
-859,-175,-70,-21,263,35,-20,-28,-270,-688
-915,-175,-80,-48,241,-3,2,-48,-269,-497
-934,-158,-56,-38,203,-23,18,-52,-303,-256
-757,-108,4,2,145,-26,-23,0,-227,-101
-415,-55,34,29,87,-30,-45,140,-95,78
-113,-9,31,35,56,23,24,178,-31,124
120,41,22,35,35,23,47,106,-36,58
179,47,-37,28,7,-15,10,53,-36,38
-107,11,0,37,14,17,42,53,-37,-195
-161,-12,8,19,-20,11,44,32,-54,-209
-36,-25,-37,-21,-96,-59,7,19,-21,40
67,-7,-29,-39,-98,-78,4,27,28,215
237,57,-7,-32,-96,-77,-27,13,146,472
154,63,11,-23,-110,-84,-88,2,76,538
-49,24,29,-8,-97,-32,-70,12,-52,284
-37,10,38,15,-21,57,-61,4,-92,206
32,17,18,3,49,56,-105,-15,-76,282
63,64,13,-8,65,18,-141,-37,-68,228
93,107,34,12,66,6,-136,-78,-152,11
34,89,0,37,35,0,-83,-104,-229,-218
-117,46,2,36,8,16,-11,-50,-200,-196
-22,70,36,16,-4,35,42,8,-131,27
82,59,0,3,-10,62,103,24,-114,-80
138,-54,-131,-23,-18,79,184,17,-134,-517
342,-118,-238,-49,-33,58,194,24,-117,-721
658,-51,-166,-43,-33,31,113,10,-69,-380
812,56,-34,0,-24,11,54,-16,-59,10
657,64,10,14,1,14,46,-36,-93,77
340,35,21,43,37,46,68,-51,-141,22
-24,-45,-73,38,33,66,86,-39,-119,-7
-421,-77,-87,19,4,43,79,-26,-46,29
-745,-87,11,21,-7,2,23,-46,-14,104
-861,-108,11,1,-19,-17,0,-74,-2,103
-614,-44,8,-53,-71,-78,-33,-86,8,88
-289,34,29,-79,-110,-141,-74,-66,35,37
-203,-22,-15,-100,-91,-100,-49,-29,62,-14
-66,-26,-37,-124,-70,-61,-23,-11,92,234
81,44,-18,-105,-77,-52,-19,8,125,445
94,64,20,-51,-65,-41,-28,10,131,422
166,68,17,-27,-77,-52,-50,12,152,423
247,63,7,-30,-100,-31,-13,42,152,421
355,40,-35,-41,-135,-53,-26,26,99,535
303,28,-52,-15,-109,-48,-52,-11,11,567
-70,31,68,63,12,10,-33,-37,-91,123
-477,-68,57,62,129,29,-14,-15,-93,-48
-625,-158,-19,22,145,79,26,30,-97,-386
-611,-137,-80,32,112,113,27,13,-153,-1030
-500,-116,-52,37,79,93,15,-2,-110,-1205
-196,-39,-4,26,59,66,50,5,56,-685
-60,72,40,46,74,115,181,51,167,-412
28,178,71,48,28,107,215,52,151,-218
394,225,84,25,-68,14,139,-2,156,180
1006,241,80,-11,-162,-89,127,36,218,540
1378,192,35,-56,-206,-121,100,80,285,681
1168,93,29,-10,-118,-29,49,16,20,274
661,-68,-42,2,-19,64,43,4,-175,-150
-828,-3,76,61,35,49,39,111,74,203
-822,-14,112,118,44,106,95,166,112,372
-554,9,158,173,41,155,130,153,58,56
-218,33,159,150,9,152,48,59,18,24
-14,87,122,78,-89,41,-47,-14,1,206
-76,92,86,12,-161,-44,-80,-21,31,-26
-212,29,46,-6,-124,-43,-84,-18,-7,-512
-265,-132,-59,-55,-1,37,-84,-113,-97,-606
-376,-280,-164,-92,110,105,14,-159,-202,-571
-440,-301,-149,-60,140,135,165,-116,-246,-489
-398,-234,-78,10,130,181,223,-66,-234,-366
-165,-129,-44,17,116,193,198,-9,-204,-98
111,43,12,34,170,120,76,24,-139,73
332,206,86,46,223,-31,-72,84,-58,207
517,254,94,3,148,-201,-175,65,10,251
620,190,67,-22,9,-268,-201,8,20,192
641,45,-4,-75,-74,-233,-182,7,60,161
600,-33,-56,-94,-115,-185,-204,0,87,203
384,-78,-74,-65,-102,-127,-182,-6,35,123
23,-135,-81,-19,-51,-45,-29,29,-19,-41
-265,-133,-74,-2,-37,-22,106,33,21,-171
-428,-81,-41,15,-34,-12,141,51,49,-241
-507,-13,31,58,28,-3,105,16,33,-343
-504,66,58,96,92,-12,70,-11,25,-336
-406,-2,-120,-5,-10,-6,61,-99,-56,-189
-283,-85,-193,-77,-79,121,124,-177,-99,-61
-220,-85,-56,-2,-3,254,107,-216,-106,-80
-221,-32,16,56,31,242,85,-152,-46,-128
-175,56,107,95,17,136,5,-79,-5,-41
-30,98,119,46,-62,-14,-120,142,111,146
112,128,92,-15,-149,-78,-96,288,202,269
364,199,100,-38,-221,-100,-18,243,227,362
437,189,78,-22,-178,-63,-15,228,266,380
236,109,83,32,13,-59,-12,201,133,253
55,25,79,60,136,-112,-6,152,38,170
121,-18,59,42,150,-180,-139,30,-5,188
73,-108,-12,3,84,-173,-201,-33,12,82
85,-143,-56,-31,-18,-111,-155,-56,-33,-21
230,-126,-144,-86,-13,-42,-104,-105,-87,24
139,-95,-242,-84,94,7,-48,-109,-96,5
65,-42,-194,-46,113,13,-50,-116,-89,97
139,-17,-150,-24,28,-4,-72,-116,-64,214
196,-22,-67,-11,0,9,-43,-85,-23,18
53,-29,16,8,22,37,-29,-63,-110,-262
-19,-36,16,-4,13,32,-10,-41,-90,-280
-32,3,50,16,31,25,5,-57,-95,-87
-191,15,78,46,47,20,16,-59,-78,152
-376,52,85,37,26,-12,1,-20,40,290
-382,142,107,26,-6,-36,-3,13,101,276
-378,122,90,16,-2,26,70,57,117,30
-150,96,55,7,8,50,101,46,90,33
297,146,70,1,-15,23,52,-20,34,295
620,196,91,-1,-72,-37,-25,-59,24,350
685,225,113,6,-101,-70,-26,-34,71,307
646,159,89,6,-128,-78,25,3,110,493
536,10,-30,-33,-168,-59,69,29,265,674
316,-82,-129,-51,-198,-50,45,23,331,681
53,-95,-105,-65,-185,-57,-23,-34,292,460
-468,-104,-50,-19,-78,-17,-11,-2,252,-245
-738,-126,2,49,16,25,51,67,196,-589
-597,-181,-31,38,32,39,23,38,47,-427
-639,-229,-40,31,157,116,42,-20,-117,-585
-766,-206,-2,77,320,201,116,-2,-186,-709
-701,-155,42,101,353,189,117,17,-160,-559
-480,-69,75,85,243,109,33,-21,-170,-458
-323,-36,28,18,120,63,-24,-43,-181,-467
-107,34,0,-44,18,9,-61,-58,-133,-335
-24,49,-3,-35,-18,-4,-61,-58,-106,-244
-56,46,-58,-57,-37,29,35,-12,-75,-209
-35,37,-57,-108,-53,-2,52,-5,-31,-15
49,33,-39,-99,-51,-69,-31,-29,27,209
163,45,-44,-98,-48,-76,-36,9,91,194
302,95,-28,-82,-17,-19,28,81,177,24
291,80,20,-24,21,37,34,55,-3,-127
87,22,41,38,63,77,23,-3,-94,-285
168,-6,12,12,37,29,-22,-20,-157,-264
578,-3,0,-20,-6,-38,-79,-24,-141,-78
757,15,8,-21,-23,-76,-101,-40,-135,146
635,23,12,4,-13,-85,-97,-83,-144,300
566,7,-8,21,6,-76,-63,-85,-112,470
572,-44,-28,-3,14,-30,-18,-25,-18,537
350,-103,-35,0,39,37,0,1,2,279
13,-87,-28,-1,19,26,-4,11,-10,-16
-243,-104,-54,-33,-36,8,-2,51,17,-143
-346,-113,-59,-55,-71,0,11,75,87,1
-264,-55,-46,-63,-84,-41,0,45,129,292
-243,-50,-53,-73,-97,-81,-45,-3,86,435
-301,-132,-67,-77,-76,-54,-30,-21,51,352
-223,-98,-57,-60,-47,-27,-17,-13,72,441
10,29,-49,-73,-74,-52,-21,-28,205,788
84,116,-33,-57,-80,-69,18,-40,277,740
-166,115,5,26,-10,3,124,-19,277,-65
-285,67,72,88,30,67,152,-14,185,-687
-123,90,109,121,15,15,86,-47,242,-776
54,105,110,125,-40,-53,48,-57,166,-602
123,2,19,44,-106,-72,55,-42,-113,-289
40,-77,-97,-15,-74,-26,33,4,-175,69
-19,-111,-138,-76,8,3,11,107,-102,286
-141,-108,-119,-64,110,31,45,133,-105,98
-112,29,35,60,162,91,77,97,-177,-390
-16,132,167,139,167,129,72,90,-211,-651
7,118,83,118,144,96,55,63,-195,-427
222,108,82,79,97,51,40,47,-166,29
527,105,78,38,45,0,2,12,-129,375
657,89,55,-5,-7,-36,-59,-50,-114,466
603,51,14,-39,-57,-61,-100,-104,-121,419
353,19,-24,-55,-86,-107,-141,-142,-145,194
-21,41,38,-3,-61,-103,-148,-152,-166,-136
-313,95,105,65,-40,-81,-89,-107,-112,-453
-627,66,101,99,-26,-21,5,-28,95,-721
-660,-30,-49,56,-64,-12,41,-3,39,-430
-439,-56,-90,-34,-149,-30,88,44,50,8
-212,-69,-79,-104,-176,-3,133,90,103,224
-48,-75,-111,-87,-112,38,85,67,1,188
-68,-95,-115,-31,0,59,58,72,-24,20
-168,-136,-73,16,127,88,30,64,-49,-200
-144,-88,26,44,179,90,-14,32,-62,-293
-92,23,111,80,190,83,-27,32,-6,-210
41,68,121,62,163,46,-43,-5,36,-46
87,51,57,9,108,-9,-73,-54,15,63
-38,56,45,19,72,-5,5,-32,21,-26
-35,18,22,22,39,19,132,-12,2,-67
155,-78,-77,-46,-35,-15,184,-24,0,68
87,-158,-170,-77,-57,-19,172,16,-15,-252
43,-172,-148,-70,-49,-43,57,12,34,-386
177,-44,-64,-28,-42,-95,-32,-42,160,-190
41,23,25,48,-62,-66,0,-47,160,-207
-7,6,-48,51,-110,-3,80,5,136,-189
88,2,-115,17,-128,35,115,38,154,-248
-11,-14,-6,1,-98,37,46,45,65,-385
-13,-27,27,-5,-66,28,-81,7,-64,-285
150,-49,-13,0,6,43,-163,-75,-93,112
214,-14,18,11,78,83,-148,-88,-68,608
187,53,57,-13,153,68,-86,-64,-51,812
111,63,16,-56,201,-11,-68,-70,-85,756
165,13,-56,-112,56,-12,5,10,-80,717
164,-28,-78,-124,-96,-18,66,30,-29,669
139,-21,-106,-74,-176,-91,65,-4,-8,549
245,16,-51,-45,-231,-125,-22,-54,33,502
100,12,6,-4,-185,-82,-114,-147,6,307
19,20,46,18,-103,-98,-200,-216,5,292
111,32,22,24,-12,-183,-289,-234,41,141
286,-15,-34,-17,39,-178,-260,-186,45,-308
447,-70,-83,-33,84,-68,-178,-139,-1,-630
294,-43,-58,1,112,66,-52,-24,-86,-708
0,10,-25,18,17,138,89,152,-97,-475
-262,43,15,68,-29,190,258,131,-126,-477
-440,-13,91,81,-23,168,340,52,-148,-521
-603,-121,34,35,-17,133,318,108,-106,-439
-731,-116,52,66,109,112,261,289,-16,-429
-781,-42,119,119,182,62,127,364,58,-393
-745,-29,121,135,209,42,14,230,54,-373
-600,-48,41,113,199,43,-9,111,-31,-359
-368,-27,-106,70,109,28,-17,56,-97,-241
-229,-53,-131,12,38,-8,-53,27,-90,-115
-200,-78,-54,-24,-15,-35,-61,53,-35,-45
-210,-40,-17,-21,-41,-45,-19,76,-3,-55
-241,-53,-13,-31,-47,-33,71,60,-27,-145
-256,-97,-92,-71,-60,4,246,56,50,-203
-156,-90,-83,-102,-66,25,322,20,148,-146
-18,-48,-59,-71,-42,52,237,24,181,0
106,7,-6,-12,0,47,135,56,270,182
192,110,76,43,21,0,74,65,352,328
192,110,32,33,-2,-11,25,15,203,333
226,98,-3,0,-39,-8,-48,-2,8,375
263,118,73,7,-28,-26,-127,-7,13,399
313,109,38,0,-23,-46,-221,-29,66,466
437,122,-26,-29,-49,-98,-311,-40,107,674
555,130,41,-43,-75,-140,-347,-49,150,852
559,113,49,-42,-84,-131,-306,-30,159,804
498,23,4,-76,-93,-92,-204,-13,130,744
397,-36,-17,-95,-105,-65,-132,-30,67,626
209,-75,-1,-64,-89,-48,-132,-80,-38,301
26,-26,34,22,-47,-25,-120,-105,-107,-75
-78,72,79,90,-32,-9,-87,-86,-121,-280
-120,91,55,82,-93,-13,-74,-55,-158,-246
-183,52,27,44,-198,-30,-108,-37,-157,-352
-248,13,23,70,-229,-5,-83,12,-126,-640
-253,-53,99,80,-218,42,-35,36,-98,-572
-276,-164,51,62,-174,77,48,45,-86,-397
-152,-181,8,24,-67,38,73,48,-63,-173
252,-97,-15,-33,17,-11,99,34,-14,234
521,0,-56,-118,-86,-92,-6,-44,-5,403
464,49,-74,-159,-146,-128,-132,-112,-41,254
447,67,-71,-178,-73,-109,-147,-172,-94,266
372,84,-43,-128,39,-25,-79,-176,-141,298
40,62,27,-13,225,137,28,-113,-198,-15
-59,-42,11,27,362,189,77,-34,-150,-175
42,-135,-22,22,337,150,110,44,-42,-115
-103,-110,31,74,265,145,156,103,-2,-268
-136,-54,60,104,186,123,146,80,115,-200
55,-5,44,58,125,105,117,45,124,-184
140,36,26,57,129,87,67,17,-48,-251
176,129,84,68,114,51,32,-9,-60,-104
-1,205,157,104,117,54,38,0,-30,-220
-204,227,176,119,107,62,82,42,11,-429
-190,206,137,78,29,46,135,70,98,-228
-253,74,58,14,-57,46,159,90,86,4
-424,-21,3,-31,-148,8,135,111,96,120
-416,-22,3,-41,-218,-35,84,114,88,30
-236,44,64,-7,-229,-28,9,77,81,-24
-19,137,95,2,-226,-34,-34,35,108,258
378,144,-31,-39,-140,-21,-22,-14,69,752
731,87,-127,-86,30,-15,-69,-92,6,1069
748,64,-62,-107,134,-53,-108,-96,22,976
527,29,-66,-128,99,-90,-91,-68,39,750
204,-35,-107,-135,28,-97,-52,-32,5,367
-258,-89,-57,-57,64,-44,32,-2,-67,-444
-751,-159,-5,51,140,34,53,-49,-204,-1145
-826,-212,-12,85,122,44,0,-86,-246,-1080
-705,-243,-36,55,68,3,-50,-73,-149,-685
-605,-187,-7,70,72,8,-51,-43,-80,-470
-462,-102,4,101,99,55,-23,-31,-57,-360
-348,-20,25,108,123,68,12,8,-22,-290
-260,33,67,73,114,87,18,43,0,-191
-133,64,31,16,54,64,-11,31,19,-5
-54,75,-6,-50,-9,20,-35,36,66,126
30,80,-21,-85,-51,-10,-54,70,3,152
125,82,-2,-80,-54,-30,-27,82,-3,134
235,39,-1,-61,-46,-25,-23,38,-14,205
304,32,-13,-17,-17,-16,-24,13,-27,205
203,28,-20,12,-10,-23,-9,0,-25,20
51,-23,-20,5,-19,-24,6,25,3,-153
-17,-79,-61,-14,-23,-2,42,59,68,-68
-53,-94,-58,-10,-22,11,65,51,91,-19
-94,-90,-43,5,-17,23,53,4,90,-52
-29,-87,-35,-4,-32,18,28,-34,102,36
103,-61,-54,-34,-61,-6,12,-60,140,167
155,-24,-28,-39,-63,-5,2,-102,254,209
127,1,-25,-45,-83,-13,-18,-130,236,171
63,33,-22,-53,-100,-36,-15,-106,51,133
-13,49,-15,-25,-82,-26,29,-15,-62,100
105,84,-3,36,-25,3,40,111,-27,140
222,64,-12,47,14,25,38,178,-17,184
170,-45,-2,7,22,13,31,150,5,332
255,-69,-24,-43,0,-57,-28,104,38,526
410,5,-63,-62,-45,-120,-92,31,-9,509
485,38,-123,-69,-73,-115,-112,-40,-82,355
333,71,-80,-31,-58,-85,-94,-52,-138,-35
39,74,-22,8,-14,-33,-59,-40,-169,-490
-127,79,65,25,10,-2,-24,-27,-110,-516
-148,71,83,28,25,14,5,-14,-55,-339
-26,-16,19,12,16,-1,0,-4,-50,-219
206,-67,-12,-22,-13,-34,-3,10,5,-84
348,-29,14,-30,-47,-49,-11,11,62,199
359,-46,-54,-58,-92,-59,-16,17,107,384
133,-107,-105,-63,-96,-43,-2,28,74,226
-226,-114,-6,0,-47,13,36,53,20,-154
-394,-73,52,59,-7,49,52,49,25,-273
-321,-54,56,58,-13,32,17,-7,16,-185
-77,-48,42,36,13,-6,-32,-60,-6,-37
200,4,21,13,71,-28,-40,-45,-20,43
183,38,-59,-1,57,-32,41,39,24,26
-52,11,-67,-24,37,4,79,73,48,-70
-402,-4,19,22,86,60,87,76,61,-203
-555,62,76,84,128,79,63,83,72,-263
-163,127,114,99,93,47,51,69,87,6
277,177,103,76,29,-39,11,20,137,590
612,217,70,1,-70,-184,-104,-50,182,1221
608,141,-9,-98,-154,-207,-140,-64,128,1392
509,5,-127,-180,-219,-189,-182,-92,83,1250
296,-83,-140,-155,-196,-101,-76,-93,91,622
-259,-132,-42,-20,-60,65,87,-50,89,-382
-542,-164,-41,-15,-54,80,81,-28,114,-642
-506,-88,-3,-25,-74,60,-5,-33,53,-568
-237,47,86,68,-56,104,-9,0,46,-610
-54,117,144,117,-74,83,0,22,113,-554
-443,82,174,158,-40,112,50,7,18,-886
-782,29,158,181,17,173,125,83,-60,-1143
-560,-3,91,169,77,184,187,133,54,-684
-251,-50,20,116,110,160,203,147,124,-138
11,-33,0,81,94,131,161,110,89,133
91,-40,-12,78,169,128,58,44,-21,35
-23,-107,-83,38,222,63,-21,-2,-131,-82
-137,-106,-71,12,168,-1,-70,-51,-162,-128
-257,-68,-48,-7,152,-22,-92,-142,-229,-359
-235,-31,-24,-24,151,-47,-100,-189,-263,-555
-74,-25,-47,-33,123,-45,-102,-181,-195,-335
61,-25,-67,-20,88,-58,-117,-172,-157,20
41,-6,-50,18,46,-76,-60,-147,-179,116
-68,19,64,72,5,-31,40,-32,-144,106
-116,-23,58,80,-40,60,117,78,-63,-130
-3,-79,6,30,-127,57,109,145,-20,-139
89,-53,17,10,-227,-5,49,187,-5,-3
97,18,69,24,-230,8,39,105,-25,-17
76,58,99,52,-168,61,17,6,-52,-98
90,58,80,35,-90,61,53,65,-14,-120
241,72,43,0,10,75,50,139,43,73
494,70,-1,-51,48,65,-48,45,37,284
545,40,4,-35,95,56,-152,-106,4,297
532,-5,0,-7,209,51,-161,-146,-1,232
681,-46,-39,-36,226,-15,-154,-170,-70,305
976,-53,-75,-79,95,-107,-226,-226,-116,508
1058,-29,-102,-136,-40,-175,-248,-237,-136,634
825,-87,-162,-193,-119,-200,-267,-239,-201,505
359,-159,-165,-165,-87,-148,-265,-129,-233,315
-18,-102,-93,-69,0,-65,-138,41,-158,226
-343,32,55,49,82,13,72,88,-62,-12
-739,23,66,61,89,106,301,128,-1,-288
-1003,-28,7,38,93,197,422,177,-44,-603
-1064,-2,61,52,125,192,347,170,-57,-732
-948,3,84,46,105,98,131,88,-53,-546
-889,-13,115,79,106,35,-44,2,-45,-329
-728,-20,54,62,66,-1,-69,6,44,-113
-469,10,-38,15,-13,-38,-35,44,149,63
-271,87,62,-8,-52,-47,6,81,232,134
-173,105,104,-2,-50,-41,9,107,257,158
-96,51,30,-29,-52,-86,-4,131,250,239
31,-5,-10,-75,-86,-156,-37,125,223,354
112,-26,-26,-101,-116,-193,-101,106,147,302
70,-41,-8,-70,-94,-144,-100,60,36,33
-29,-104,-45,-49,-83,-49,-1,29,81,-135
-28,-159,-104,-58,-89,-18,53,17,29,-26
-8,-147,-102,-53,-134,-52,27,-19,-99,66
6,-87,-45,-43,-175,-89,11,0,-44,130
129,-16,-4,-34,-173,-75,2,-21,-12,214
261,12,-37,-65,-151,-39,24,-107,-84,153
292,4,-58,-89,-88,4,71,-131,-147,160
255,-54,-98,-94,-40,87,83,-134,-126,312
382,-40,-102,-86,-38,124,20,-114,-54,358
481,-9,-53,-69,-36,86,-32,-21,71,190
320,-31,6,7,35,75,-40,33,-4,-248
143,-50,59,83,73,13,-64,17,-139,-559
152,-12,79,85,23,-89,-103,12,-124,-438
121,67,114,85,-8,-81,-58,9,-76,-516
-48,80,115,82,1,11,14,36,4,-625
-142,44,45,77,52,95,86,86,176,-381
-58,8,13,56,97,110,114,108,285,-68
103,34,47,42,61,72,80,74,373,124
376,62,57,56,27,65,10,24,333,224
420,46,41,46,64,65,-28,-32,223,129
180,10,15,26,158,56,-42,-84,-15,54
-22,-8,9,23,185,29,-32,-80,-85,-2
-131,-27,2,23,137,20,-5,-50,-59,-110
-193,-53,1,17,89,25,12,-43,-53,-31
-261,-40,12,23,52,34,4,-54,-84,39
-335,7,32,15,16,6,-11,-39,-44,61
-249,23,35,-15,-20,-43,-44,-20,0,121
4,60,24,-39,-63,-90,-74,-7,11,198
264,84,-59,-68,-86,-114,-81,-3,46,175
343,85,-80,-70,-90,-102,-77,-12,37,83
198,23,-8,-44,-73,-92,-61,-10,13,116
95,6,9,-21,-47,-92,-57,-14,-12,284
52,22,21,9,-14,-101,-80,-31,-2,418
105,104,60,49,-4,-113,-104,-41,29,376
249,84,52,15,-41,-112,-108,-43,70,396
251,-81,-91,-55,-52,-58,-60,-69,-19,283
5,-83,-69,-21,25,67,25,-60,-172,-127
-86,-23,-29,-4,43,129,52,-59,-210,-101
170,-46,-66,-67,-11,79,13,-77,-176,247
95,-44,-71,-84,-35,49,36,-30,-102,180
-214,20,-30,-53,-19,56,130,62,-5,-68
-436,18,-5,-8,13,83,184,98,36,-327
-550,-10,9,37,43,103,210,98,12,-508
-536,3,-7,60,53,72,161,66,-24,-510
-429,20,38,70,42,37,94,10,-68,-445
-263,12,47,60,50,49,74,-40,-135,-420
-19,-21,-18,13,14,20,51,-73,-147,-329
201,0,-8,-10,-21,3,24,-52,-73,-26
311,63,31,-4,-25,19,-24,-20,16,350
215,121,63,47,13,34,-68,-26,34,422
-77,107,97,122,80,76,-56,-39,-27,149
-335,-12,55,107,85,93,-6,35,6,-143
-279,-19,7,45,30,33,-11,57,67,-110
-164,29,-1,16,-6,-29,-33,14,155,66
-164,3,-32,4,-7,-47,-26,-15,237,239
-108,-4,-37,7,-11,-52,-13,-19,290,320
-2,23,-20,12,-27,-87,-29,-47,223,180
-50,35,-15,-2,-30,-74,-34,-52,168,-228
-32,59,-26,-28,-57,-59,-13,-43,258,-207
39,88,-74,-44,-70,-80,-21,-57,259,28
69,103,-116,-63,-97,-98,-48,-64,54,20
184,157,-14,-62,-110,-131,-78,-60,-39,135
288,156,-3,-55,-97,-131,-71,-19,-5,365
381,86,-29,-61,-107,-119,-39,53,33,587
480,27,-8,-27,-79,-99,-64,60,-9,506
383,-42,15,30,0,-39,-101,82,-78,245
221,-130,4,49,56,17,-77,85,-105,247
93,-134,-24,17,54,33,-31,22,-89,319
-28,-139,-46,-13,20,27,4,-44,-108,140
-243,-168,-41,14,0,75,90,1,-120,-245
-453,-165,-15,37,-29,96,211,149,-108,-611
-367,-99,22,46,-48,81,216,196,-103,-623
-204,-52,79,80,-1,94,186,130,-134,-465
-33,-7,115,96,14,75,152,93,-113,-328
182,28,114,61,-69,60,178,75,-80,-195
419,64,81,12,-145,54,154,81,-17,-160
476,51,32,-25,-138,38,109,101,65,-248
279,3,-10,-46,-131,-27,80,103,114,-231
90,15,-24,-39,-162,-96,-19,65,113,-114
-84,24,-16,8,-149,-47,-114,2,60,-113
-215,12,26,70,-42,24,-147,-43,18,-5
-294,52,9,106,154,87,-106,-45,66,244
-324,94,-52,105,439,137,-1,-26,134,169
-316,61,-14,52,518,118,46,-40,-34,-169
-299,45,28,36,356,85,18,-78,-230,-368
-172,50,37,6,203,31,-55,-101,-225,-352
27,34,3,-38,78,-44,-152,-96,-176,-201
111,2,-32,-80,-15,-83,-163,-89,-126,-90
65,12,-61,-77,-65,-76,-116,-92,-112,-109
-6,4,-22,-68,-86,-64,-91,-100,-91,-14
24,-23,-15,-90,-119,-92,-102,-95,-63,184
71,-5,-31,-110,-158,-96,-77,-52,-26,350
132,47,-17,-88,-147,-74,3,48,35,408
209,31,-45,-83,-110,-50,60,150,101,601
415,23,-87,-105,-43,-35,36,154,183,983
546,81,-30,-81,0,-58,-55,106,184,897
459,127,23,-33,-15,-61,-102,27,141,385
256,30,10,6,-16,-15,-52,24,72,-191
-6,-141,-45,23,-14,-4,-5,72,12,-413
-239,-183,-21,56,-2,-15,-22,42,-77,-376
-419,-137,18,102,16,40,20,19,-145,-454
-549,-161,7,76,2,93,82,34,-159,-535
-394,-112,25,45,20,96,110,71,-92,-406
-368,-43,47,28,122,110,139,89,-26,-309
-456,-41,47,32,174,137,143,59,-23,-265
-370,-53,54,46,172,100,108,36,-64,-214
-285,-52,39,44,175,80,72,41,-88,-289
-197,-31,24,20,123,60,40,61,-29,-282
-88,-7,-6,-7,61,10,0,52,21,-6
-24,20,11,-14,64,-15,-8,14,14,93
14,49,4,-7,51,-43,-21,-21,73,103
-65,85,-18,0,23,-52,4,-15,148,50
-132,80,-55,-27,-27,-67,8,15,127,96
89,81,-6,-56,-70,-113,-38,-14,162,370
423,112,-9,-93,-112,-170,-118,-94,50,573
604,111,-33,-119,-124,-176,-153,-148,15,529
577,150,0,-65,-102,-136,-125,-140,104,346
435,190,57,6,-66,-77,-89,-109,50,64
207,146,54,20,-10,9,-21,-37,-30,-377
109,39,-22,-37,-1,60,103,30,-49,-641
89,-37,-113,-55,-24,54,148,28,-32,-489
-134,-42,-50,-11,-8,54,158,44,30,-291
-242,20,27,27,14,66,183,82,99,-25
-115,44,53,40,18,71,142,66,127,273
134,-19,28,16,-12,15,88,13,30,390
413,-38,-17,-45,-78,-73,20,-36,17,416
503,-50,-66,-96,-127,-106,-46,-62,10,422
374,-71,-67,-86,-122,-84,-69,-79,-53,254
155,-47,-12,-29,-39,-28,-92,-137,-166,-87
-65,13,88,52,58,43,-107,-176,-222,-475
-154,14,81,77,78,92,-69,-96,-103,-337
-47,21,51,51,64,95,-44,-27,20,52
-75,-1,37,42,48,72,-49,-70,-34,-30
-152,-40,17,21,25,41,-69,-113,-195,-259
-142,-55,-17,-15,-13,-10,-81,-101,-230,-204
-218,-8,9,25,-5,-24,-87,-52,-204,-106
-366,21,52,76,15,-25,-99,47,-162,-85
-381,-14,36,46,-5,-62,-113,72,-73,58
-350,-38,-2,17,-23,-59,-95,37,37,105
-314,-31,-6,8,-38,-56,-67,39,63,39
-122,59,33,-6,-67,-122,-87,22,83,115
112,88,47,-2,-75,-98,-4,42,101,192
457,21,4,-19,-81,29,173,110,182,323
753,0,-121,-34,-112,65,139,81,242,548
686,6,-143,-47,-165,-12,-1,-24,173,565
367,-24,-53,-80,-184,-58,-119,-129,27,428
144,-50,-34,-96,-144,-7,-149,-199,-91,253
36,-34,-83,-103,-110,25,-147,-224,-125,14
-306,0,-140,-70,9,57,-71,-152,-47,-415
-487,-11,-79,-53,72,19,30,-63,115,-340
-438,-43,-47,-57,22,-32,102,82,332,121
-251,2,-19,-20,-12,-2,245,243,418,149
-202,51,67,74,31,36,236,298,291,-49
-343,56,126,177,121,88,199,262,118,-274
-200,64,100,222,179,101,151,192,0,-419
135,88,54,184,153,59,10,112,-49,-179
255,21,47,68,76,-9,-78,26,-84,23
102,-56,-19,-2,10,-58,-99,-47,-143,-127
-208,-49,33,43,33,-41,-87,-79,-222,-559
-489,-43,71,95,87,37,2,-51,-244,-810
-643,-54,51,96,94,93,53,-25,-253,-771
-634,-75,35,84,84,92,45,-50,-251,-690
-426,-43,37,60,57,59,24,-60,-140,-386
-247,-17,20,9,6,12,-30,-54,-48,38
-186,-36,2,-10,-31,-13,-46,-38,-56,245
-116,-43,-17,-20,-44,-22,-21,-32,-64,258
32,11,-11,-34,-68,-52,-20,-9,-50,294
118,65,13,-20,-59,-40,-10,18,-1,271
146,58,19,-17,-32,-8,15,6,36,147
299,29,-11,-41,-64,-26,4,-19,39,246
409,-3,-91,-73,-76,-3,-8,-50,3,399
328,-17,-194,-66,-33,56,15,-47,-10,355
233,12,-176,-23,-4,53,-9,-15,75,419
304,63,-94,15,-6,-32,-107,-17,137,509
374,59,5,-3,-67,-113,-120,-32,159,445
260,-17,-12,-60,-170,-163,52,10,124,209
-69,-138,-52,-76,-255,-170,243,72,45,-123
-294,-184,-64,-76,-306,-188,255,105,57,-212
-450,-151,0,-28,-284,-168,164,103,27,-301
-462,-63,70,49,-157,-37,90,79,-34,-424
-325,18,84,98,20,103,58,5,-134,-467
-131,86,96,119,223,197,38,-54,-190,-429
-12,88,111,84,348,238,13,-104,-219,-341
48,-3,8,28,383,223,-31,-100,-182,-211
108,-49,-62,34,352,155,-86,-90,-137,-125
219,-47,-13,47,246,59,-123,-72,-120,-31
251,-14,70,74,100,16,-115,-8,-23,81
238,26,83,69,14,15,-73,36,140,188
251,55,69,16,-57,-9,-29,31,243,238
242,95,62,-20,-152,-82,-64,77,278,214
250,143,51,-54,-187,-64,-88,88,205,230
151,100,9,-72,-87,71,-68,49,55,185
78,55,-92,-71,22,80,-100,-4,-18,218
73,-17,-115,-55,99,5,-147,-79,-113,242
-2,-54,-22,-40,115,-67,-175,-88,-108,152
-5,-20,-3,-49,18,-64,-166,-67,-43,-1
58,-52,-23,-59,-13,12,-144,-114,-63,-59
64,-45,11,-14,34,59,-117,-165,-54,5
-1,-73,21,-3,56,89,-17,-107,-10,-28
195,-76,11,-7,20,24,11,-96,-26,106
589,-21,18,-27,-60,-92,-22,-136,-59,328
756,-33,-87,-97,-122,-124,82,-93,-34,417
869,-6,-189,-176,-229,-180,111,-46,15,482
573,41,-83,-178,-293,-196,123,25,26,213
-1,2,-28,-127,-253,-133,202,137,47,-177
-164,-47,-52,-126,-197,-66,174,120,115,109
-164,-58,-33,-92,-72,32,149,115,163,502
-287,-30,29,-17,76,89,116,157,143,423
-337,-27,40,11,133,97,59,126,91,40
-321,-20,68,56,132,98,-5,126,59,-441
-488,-57,83,99,151,139,18,136,-26,-897
-601,-98,83,108,193,127,-1,64,-188,-1065
-522,-83,68,78,174,60,-12,18,-248,-881
-300,-52,9,41,126,17,-2,55,-180,-491
-194,-22,-13,16,107,10,-9,78,-115,-222
-163,21,43,23,99,-2,-57,10,-89,-175
-120,60,36,45,94,-19,-81,-65,-20,-107
-57,109,56,56,53,-51,-75,-67,118,56
18,173,83,64,9,-114,-88,-31,235,230
72,181,70,60,-14,-109,-61,-11,348,328
89,84,8,4,-12,-28,15,9,298,306
167,6,-75,-29,-4,42,38,18,143,223
329,-16,-25,-30,-14,21,-14,-27,5,240
454,-11,-27,-44,-61,-45,-82,-70,-16,486
374,24,-24,-22,-93,-75,-85,-96,-23,607
221,63,22,-22,-130,-112,-83,-72,8,707
128,109,47,-24,-175,-157,-92,-49,48,794
-130,76,53,-10,-145,-84,-37,-38,41,469
-275,0,-1,-29,-71,40,29,-29,-23,-38
-95,-23,-53,-55,2,50,12,-75,-80,-345
129,-43,-111,-98,33,-11,-10,-70,-91,-448
62,-56,-82,-69,44,13,56,13,-85,-682
19,-1,-4,-22,19,72,109,50,-48,-577
185,13,8,-24,-13,57,58,33,-32,-170
170,-4,21,15,11,64,47,22,-72,-51
-5,-21,8,64,49,99,87,1,-132,-139
-64,-29,34,37,44,105,67,2,-119,-114
-155,-74,16,21,44,91,56,-11,-91,-97
-387,-108,10,35,67,94,47,-27,-109,-247
-478,-68,7,69,104,105,39,-30,-101,-400
-334,-29,51,60,84,64,12,-17,-52,-337
-281,-4,64,52,56,35,26,7,-27,-231
-274,17,57,53,31,39,81,65,97,-88
-143,-1,32,25,-7,17,115,118,171,268
24,-26,-1,7,-26,-29,50,120,148,461
54,-9,6,22,-30,-48,-29,97,48,281
0,1,9,10,-27,-70,-25,80,-9,75
-28,-4,-6,-32,-47,-120,-27,46,-35,-53
-115,36,33,-8,-16,-120,-36,27,-87,-317
-246,42,70,50,39,-66,-15,20,-98,-558
-233,-21,46,53,44,-16,-6,4,-104,-468
-87,-61,-4,28,-6,-3,-19,-24,-107,-223
-30,-56,-47,6,-41,-6,-39,-43,-52,5
24,-44,-70,-34,-86,-13,-9,-16,19,217
104,-10,-29,-58,-119,-30,-16,4,57,442
201,33,-5,-51,-105,-52,-66,-10,83,582
168,27,-15,-39,-80,-72,-84,-24,79,415
89,18,-15,-32,-43,-28,-42,-13,62,-18
141,36,-16,-32,-14,21,-36,-23,46,-170
249,94,5,-33,-9,26,-68,-33,56,-79
352,166,42,-34,25,-15,-113,-40,65,79
518,189,51,-48,82,-75,-163,-84,16,99
636,111,0,-58,12,-133,-185,-118,-37,57
723,22,-58,-102,-112,-197,-195,-132,-48,273
524,-37,-72,-88,-101,-166,-150,-137,-102,306
-138,-141,-64,32,29,2,7,-86,-177,-56
-561,-207,-68,106,117,129,184,4,-92,-178
-317,-215,-59,37,72,123,236,46,117,237
115,-182,-135,-52,0,74,164,22,149,437
256,-100,-80,-67,-38,4,58,-22,105,312
271,-39,-97,-72,-84,-65,-13,-31,117,268
210,-41,-124,-103,-101,-79,-52,-20,142,288
156,-28,-128,-109,-98,-54,-59,1,167,256
52,48,-4,-35,-47,5,0,11,113,147
-125,114,134,84,47,97,50,-4,20,-39
-363,102,183,150,131,167,69,-10,-42,-298
-653,-17,138,135,145,169,99,22,-48,-442
-669,-91,80,78,112,138,118,70,-43,-463
-474,-94,53,33,86,93,129,134,-59,-385
-298,-61,49,25,93,61,137,176,-107,-371
-133,-33,46,36,62,30,108,114,-147,-358
5,35,83,17,7,-18,33,44,-129,-202
108,70,96,36,13,-21,25,26,-68,-121
278,7,49,35,24,17,69,61,-8,-86
398,-40,-25,11,24,42,94,53,3,79
308,-29,-128,23,31,56,59,16,33,182
80,47,-51,57,34,60,5,0,96,9
-98,103,77,57,29,31,-14,0,140,-301
-137,112,61,24,1,-12,-41,-22,190,-223
-218,57,35,0,-14,-38,-54,-34,142,-22
-330,-1,29,-9,-27,-36,-51,-29,12,141
-260,30,12,-13,-27,-56,-49,-26,5,447
-41,77,-15,-14,-23,-69,-60,-57,23,648
159,106,43,-14,-55,-116,-93,-91,-1,518
258,114,34,-32,-116,-154,-91,-73,-3,257
235,70,-93,-86,-177,-143,-65,-8,21,96
-107,24,-109,-71,-137,-46,-3,47,12,-241
-518,-12,48,6,-45,75,148,117,13,-613
-465,-11,75,36,-10,117,241,138,12,-570
-309,6,67,38,24,139,260,120,-24,-383
-235,16,83,57,66,152,218,80,-35,-231
-85,35,89,63,108,94,68,39,-40,-166
-6,9,63,42,131,51,7,3,-66,-134
-3,-43,4,-1,83,57,16,-41,-99,-121
49,-59,-29,-30,15,53,-42,-68,-109,-60
48,-61,-61,-32,-4,18,-127,-91,-106,18
47,-25,-133,-8,-28,-3,-177,-104,-106,61
129,-13,-101,-18,-67,-2,-146,-100,-72,132
212,-29,-47,-70,-144,-9,-42,-38,18,288
326,12,-33,-104,-240,-71,-33,-22,92,553
473,53,-37,-125,-277,-118,-118,-72,92,879
463,34,-36,-104,-197,-65,-176,-105,41,959
372,18,-49,-99,-57,-20,-191,-92,49,872
254,-35,-85,-110,28,9,-153,-14,130,633
84,-59,-54,-78,11,19,-65,67,138,202
38,-76,-58,-59,1,-3,-30,116,88,-127
180,-36,2,-18,73,3,2,68,3,-367
220,58,112,89,107,86,105,44,-57,-524
227,106,173,167,96,145,145,53,-52,-294
387,102,166,172,49,82,73,43,4,46
406,132,177,185,9,14,-14,-1,135,199
110,138,187,188,-58,-40,-34,1,172,38
-224,78,134,115,-91,-9,14,2,46,-195
-336,24,50,50,38,128,35,-52,-49,-337
-459,-62,-41,44,252,172,10,-90,-151,-557
-537,-81,-98,26,321,107,-50,-64,-173,-666
-503,-135,-123,-27,239,3,-38,-16,-161,-635
-317,-232,-164,-64,123,-18,59,23,-157,-485
-15,-263,-172,-110,35,-10,102,49,-95,-226
148,-182,-123,-95,20,-19,76,29,-61,-99
185,-88,-82,-60,-21,-10,61,5,-80,0
210,-15,-62,-50,-48,-24,25,-12,-107,159
252,77,-56,-19,-46,-57,-10,-16,-87,164
129,158,-9,39,22,-21,-16,9,-86,-242
5,147,82,80,109,30,0,21,-104,-438
9,39,-2,53,114,32,-3,27,-58,-224
-33,-58,-94,34,110,40,6,28,-19,-84
-182,-80,11,58,185,47,16,10,-23,-82
-182,-15,56,55,195,11,-4,-18,-14,-6
-14,36,51,29,92,-46,-27,-68,9,136
119,61,24,-5,-2,-98,-59,-108,48,273
292,63,-11,-39,-64,-133,-85,-86,90,340
488,67,-20,-65,-120,-169,-109,-40,150,356
486,75,-19,-61,-126,-143,-103,-39,169,365
295,-13,-69,-83,-111,-111,-64,-48,160,354
73,-60,-97,-96,-86,-77,-11,-1,179,247
-114,-23,-58,-58,-45,-27,14,46,155,82
-401,-57,-5,-1,9,45,53,160,142,-113
-568,-143,-27,10,12,64,71,211,115,-65
-179,-101,-55,-37,-36,10,6,114,76,123
224,-19,-32,-48,-65,-39,-64,-6,-30,65
305,-32,-35,-50,-72,-14,-113,-79,-138,-43
156,-52,-56,-29,-63,32,-120,-121,-169,-103
-43,-28,-36,17,-38,54,-103,-121,-128,-126
-188,6,-18,-10,-38,42,-57,-107,-92,50
-329,3,-25,-40,-9,45,-24,-95,-61,127
-321,1,-31,-5,21,30,20,-54,-17,-3
-338,-4,-47,35,37,24,144,27,74,-16
-390,-14,26,58,71,37,258,130,183,-28
-391,15,56,76,85,43,238,235,226,-361
-362,30,56,81,63,56,202,229,160,-538
-332,44,56,73,25,63,207,171,154,-488
-252,71,83,71,2,47,106,89,149,-411
-103,78,94,73,-25,8,-23,-1,113,-231
14,95,95,57,-30,-5,-51,-11,179,-66
-25,76,99,69,15,35,28,24,104,-105
-2,-5,75,63,23,42,71,67,-78,-48
196,21,73,57,-3,-6,27,81,-59,170
244,88,94,51,-14,-64,-59,9,-53,284
186,123,138,63,-34,-108,-88,-7,-63,316
190,132,169,72,-109,-165,-66,58,-1,358
318,101,122,27,-148,-126,-21,63,17,388
524,14,9,-59,-136,-16,-3,7,-81,514
772,-33,-45,-87,-87,26,-86,-69,-137,726
828,-52,-77,-109,-7,-2,-195,-143,-161,694
594,-21,-80,-119,13,-54,-225,-126,-143,362
539,69,-63,-134,-70,-122,-235,-100,-76,250
560,148,-22,-125,-122,-145,-238,-116,-106,98
361,113,2,-67,-76,-102,-178,-104,-153,-148
33,-33,-62,-45,-25,-36,-42,-32,-114,-141
-450,-199,-117,-21,50,63,129,54,-84,-225
-982,-247,-36,69,167,194,251,108,-88,-649
-1118,-218,0,102,199,201,221,103,-98,-695
-933,-145,34,108,165,144,98,65,-113,-509
-679,-93,34,96,129,95,39,35,-97,-373
-360,-56,1,53,75,71,42,13,-72,-240
-78,24,-75,36,41,59,30,-26,-80,-179
60,55,-162,16,29,25,-38,-46,-26,-120
182,80,-94,5,1,-41,-101,-82,49,-9
230,123,7,23,-28,-82,-117,-101,100,192
68,82,-38,18,-40,-96,-123,-84,57,329
-115,31,-38,0,-56,-113,-132,-62,38,341
-168,-33,-9,-16,-38,-49,-94,-55,-7,296
-185,-75,-8,-25,-29,8,-5,-20,-8,230
-267,-65,35,-7,-47,9,55,48,45,119
-278,-32,41,-40,-85,1,70,96,112,103
-256,-31,-20,-82,-109,19,119,157,185,112
-287,-23,-50,-69,-76,54,180,149,195,8
-41,0,-43,-50,-56,25,69,22,58,-40
383,-18,-60,-89,-96,-44,-69,-80,-86,-59
578,-8,-53,-88,-108,-43,-126,-95,-158,-103
591,7,-12,-59,-67,-8,-146,-94,-183,-123
490,-26,-13,-49,-29,24,-153,-99,-209,-180
208,1,16,-21,8,37,-108,-83,-247,-390
-80,93,101,43,45,61,-17,-15,-214,-491
-356,137,143,107,95,96,59,45,-143,-451
-446,81,134,133,123,135,72,72,-153,-437
-287,-1,120,83,72,84,-47,32,-307,-342
-123,-4,85,27,2,40,-15,-1,-103,-21
-123,-97,1,-10,-25,39,50,7,26,105
-181,-154,-42,-21,-27,31,64,-17,13,17
-167,-114,-36,0,-11,23,62,-26,7,36
-83,-84,-36,1,-23,0,38,-38,18,238
-50,-45,13,12,-48,-15,10,-47,-5,204
-77,-7,25,8,-80,-64,7,27,27,-23
-141,7,22,16,-78,-67,31,66,64,-92
-155,-5,3,8,-105,-36,89,65,107,31
-91,20,17,-3,-162,-37,121,67,147,125
-21,64,19,13,-144,-12,95,42,144,77
53,91,19,11,-104,23,91,62,150,127
226,96,3,-26,-53,6,67,71,153,260
443,78,-35,-57,9,16,23,35,123,336
475,70,-76,-51,31,49,-9,-16,88,263
303,50,-95,5,22,64,6,-21,61,136
201,48,-81,59,10,60,31,-57,38,112
94,57,-25,72,0,72,17,-102,33,81
8,4,-14,27,6,64,-6,-133,-120,53
-20,7,-29,-45,12,-43,80,-100,-39,172
-145,-39,-56,-87,-18,-123,20,-44,-46,201
-272,-96,-55,-42,57,2,-51,37,-85,-14
-165,-73,-25,0,190,115,-66,117,-88,-152
53,-69,-19,0,306,45,-189,51,-221,-96
102,-92,-66,-36,274,-66,-216,4,-181,-44
-38,-78,-83,-54,126,-84,-78,54,49,-111
-107,-60,-92,-20,38,-77,-53,93,124,-34
-27,-7,-145,-6,15,-96,-50,113,190,176
119,52,-43,-14,-39,-117,-28,114,191,268
204,57,17,-29,-71,-121,-22,90,175,301
173,40,-18,-2,-26,-85,0,52,108,179
172,91,54,50,1,-42,19,5,81,60
191,112,132,72,2,-10,11,-27,40,4
111,61,144,91,36,56,26,-21,-49,-216
16,37,128,104,89,89,49,-22,-51,-344
-43,0,72,57,137,61,43,-31,-46,-226
1,7,33,24,111,-10,15,-29,-9,-46
91,33,-31,10,32,-62,-52,-28,34,92
133,53,-24,-6,-25,-90,-73,-33,64,143
313,52,15,-63,-74,-109,-70,-44,98,400
536,-4,-50,-127,-113,-115,-89,-65,108,650
583,-64,-86,-153,-120,-93,-100,-100,65,640
412,-77,-44,-123,-103,-68,-88,-117,51,467
50,-108,-35,-87,-76,-41,-77,-112,2,126
-567,-168,3,2,55,78,11,-58,-80,-529
-565,-104,63,72,133,132,50,-5,-35,-537
-2,61,106,69,71,41,-27,-6,55,57
370,135,29,8,-12,-52,-85,16,142,531
301,15,-39,-70,-83,-80,-103,20,90,525
36,-101,-70,-86,-99,-79,-111,-6,14,138
-7,-83,-69,-71,-75,-79,-85,-2,69,-133
-84,-47,-8,-22,-18,-55,-55,-14,21,-222
-454,-62,47,42,81,32,-38,-26,-169,-625
-780,-65,72,91,167,108,47,23,-245,-1029
-756,15,102,115,173,123,135,89,-173,-1028
-442,99,125,88,137,119,175,140,-80,-722
-20,155,110,77,80,87,127,134,-15,-262
276,171,69,73,22,37,17,88,29,-68
348,126,77,68,-2,-30,-70,-8,12,-155
137,70,77,63,16,-24,-47,-114,-45,-200
-102,45,72,45,18,9,19,-164,-81,-112
-161,45,40,22,11,45,74,-135,-31,83
-169,56,4,-18,-13,53,72,-93,30,230
14,76,7,-31,-66,2,40,-57,73,340
224,108,21,-17,-88,-38,0,-8,107,369
381,81,9,-42,-123,-87,-38,3,94,410
378,-15,-9,-52,-146,-98,-23,88,38,216
123,-116,-19,-20,-119,-41,31,157,50,-124
-155,-170,-54,-34,-48,19,26,110,-7,-265
-380,-183,-57,-21,83,70,8,53,-137,-467
-334,-112,-29,-10,146,46,8,28,-158,-409
-277,0,12,5,130,0,-1,12,-113,-237
-291,52,31,34,119,19,30,3,-104,-235
-222,9,-15,29,98,68,99,17,-72,-117
-60,-10,-8,10,48,37,63,1,-6,145
-36,12,28,29,43,16,10,-28,-7,135
-111,-13,35,27,46,20,7,-19,-8,-3
-178,-31,19,19,28,13,19,-7,1,-102
-231,-17,-2,2,-10,-10,27,-14,-32,-182
-199,1,-38,-10,-28,-4,-33,-67,-99,-226
-72,30,-78,3,-3,-1,-79,-112,-116,-138
35,18,-110,6,4,-2,-52,-113,-86,34
174,-34,-83,-5,-21,-21,7,-87,-18,286
445,-20,-98,-56,-67,-61,27,-65,71,550
589,40,-101,-80,-88,-57,37,5,194,577
568,-1,-55,-84,-104,-63,57,72,122,422
355,-33,-17,-57,-77,-35,56,84,77,42
46,-21,-2,-31,-46,-21,62,93,77,-78
-43,-42,-17,-22,-42,-49,75,97,40,13
97,-10,10,-6,-70,-87,11,75,8,130
128,-5,5,12,-63,-72,-45,2,-19,198
43,-43,-25,-22,-44,-31,-57,-58,-31,248
180,-35,-48,-75,-57,-34,-84,-71,15,477
357,29,-67,-90,-56,-63,-106,-104,9,545
393,53,-36,-86,-51,-58,-69,-100,-42,439
157,22,-14,-55,-18,-5,-1,-77,-105,248
-317,-15,18,15,36,90,97,-32,-111,-200
-579,-34,49,74,68,137,196,30,-68,-459
-411,-7,58,81,28,100,229,100,35,-257
-134,56,74,85,-22,52,164,117,75,-228
99,73,0,90,-55,12,31,70,87,-139
188,20,-97,38,-108,-12,-3,79,174,72
152,9,-39,-12,-84,-4,12,87,192,83
32,-5,22,-4,89,32,18,84,174,70
-91,-29,-23,-17,206,24,-14,112,160,19
-261,-25,-99,-25,207,17,-39,75,111,-286
-393,23,4,2,144,32,-49,38,43,-527
-368,49,58,17,88,15,-62,4,2,-490
-319,39,15,9,66,-18,-100,-53,-58,-444
-282,-17,-88,-10,38,-27,-83,-80,-99,-392
-280,-67,-42,-15,21,-14,-10,-82,-130,-362
-210,-92,-4,0,37,-1,-11,-84,-148,-205
-115,-91,16,30,53,29,-23,-66,-115,38
-80,-92,-2,17,38,42,-13,-21,-69,207
-125,-74,-34,11,20,35,-9,4,-61,137
-180,-78,0,0,12,25,7,64,-55,1
-153,-75,16,-1,5,19,10,73,-32,11
-92,-48,17,4,1,20,14,42,19,131
-52,-20,-35,1,3,0,0,16,41,203
47,21,-10,-18,-22,-18,2,9,109,252
137,56,2,-47,-67,-34,3,7,157,362
199,22,-22,-76,-111,-52,17,12,189,544
241,-21,-46,-85,-139,-78,13,-2,160,614
271,-15,-44,-66,-159,-106,-41,-8,129,546
318,27,-11,-45,-143,-117,-60,-21,71,454
378,35,-10,-52,-114,-112,-46,-54,62,406
334,35,-6,-57,-87,-115,-75,-113,44,287
323,73,17,-34,-60,-116,-99,-132,22,105
460,84,32,-10,-47,-78,-70,-119,-54,-2
461,35,-23,-55,-72,-5,-8,-98,-117,-138
206,13,-13,-39,-79,22,18,-81,-135,-202
6,50,76,40,-36,41,52,-41,-136,-189
-104,77,122,100,-28,79,124,48,-126,-329
-172,59,111,109,-9,145,179,125,-128,-409
-361,10,58,142,94,207,219,130,-138,-563
-439,-27,33,136,176,168,179,74,-141,-679
-250,-20,68,84,126,64,108,32,-125,-415
-108,-12,45,46,30,8,21,-3,-66,-186
-66,-24,25,38,18,12,-18,-60,-64,-145
-133,-37,17,32,78,15,-5,-83,-88,-157
-178,-33,0,4,91,-7,-24,-76,-57,-69
-136,8,15,10,38,-32,-80,-70,-18,41
-119,87,6,42,10,-20,-99,-31,43,14
-83,121,40,53,2,-15,-75,13,92,-128
149,104,66,12,-26,-30,-90,16,108,-10
394,68,7,-13,-30,-39,-89,4,100,194
391,4,-9,5,16,-3,-33,8,92,149
417,-43,-38,4,9,-2,-32,-15,97,129
350,-57,-40,8,25,-8,-26,-27,20,38
160,-24,-13,40,39,-3,-2,-27,4,-86
46,30,-35,31,6,-12,-7,-31,13,-46
-78,16,-102,-7,-14,1,8,-25,-17,33
-287,-54,-27,-9,-19,-1,16,-18,33,71
-376,-115,-8,-11,-23,-9,7,0,100,180
-153,-108,-15,-26,-76,-62,-13,30,153,403
95,-79,-17,-46,-116,-92,-11,48,179,590
261,-52,-23,-52,-137,-102,-6,7,148,663
243,-54,-22,-38,-115,-76,-12,-32,45,463
88,-52,-1,-18,-64,-14,-16,-27,-42,184
-7,-6,15,-11,-27,0,-38,-40,-68,152
-76,38,28,-9,3,-1,-44,-34,-76,50
-119,79,58,13,37,5,-31,-19,-86,-198
-89,85,71,42,49,-5,-30,-10,-104,-427
53,48,7,17,48,15,-21,-17,-115,-347
322,47,-76,-42,-1,-20,-62,-60,-112,185
300,8,-48,-71,-43,-43,-84,-47,-33,467
91,-29,-71,-64,-36,3,-44,3,25,457
-8,-54,-74,-55,-7,74,26,37,44,331
-163,-56,-37,-44,6,81,41,16,-11,-288
-323,8,32,13,26,78,32,0,-71,-960
-199,13,5,25,10,44,24,3,-52,-769
-112,-44,-99,29,9,33,72,10,-40,-491
-147,-96,-82,44,31,46,152,30,-16,-274
-161,-91,31,64,69,67,179,53,2,-164
-168,-12,98,107,118,106,183,79,21,-189
-125,68,127,123,129,97,135,59,23,-169
-64,60,28,93,66,37,70,42,48,-105
-3,-3,11,34,0,-23,11,-2,53,13
185,-42,7,-38,-70,-53,-41,-54,70,176
285,-51,-37,-91,-130,-82,-82,-65,116,377
203,-26,-28,-104,-150,-96,-73,-83,97,485
8,-11,5,-87,-144,-88,-17,-76,48,347
-228,-5,23,-59,-131,-27,102,-10,-5,31
-417,22,47,-5,-20,109,264,110,16,-265
-412,71,100,63,118,188,305,237,66,-132
-249,105,111,65,149,114,176,211,4,36
-85,113,95,25,70,42,35,105,0,1
105,124,75,-9,-8,14,-96,12,40,84
368,128,63,-16,-37,-19,-195,-53,99,212
557,86,44,5,-4,-18,-166,-74,72,232
417,-9,-42,36,71,41,-62,-62,18,13
315,-98,-90,14,75,14,-52,-26,9,16
173,-122,-49,-12,46,-58,-116,-43,-8,121
-167,-30,15,6,71,-55,-125,-82,-87,-30
-497,91,110,77,122,-6,-22,-52,-125,-351
-707,104,160,143,150,56,79,6,-128,-463
-617,60,135,119,116,81,45,92,-117,-379
-370,-31,15,46,49,76,-14,114,-99,-244
-118,-87,-143,-12,-6,30,-87,30,-76,-65
39,-110,-197,-41,-45,13,-126,-41,-80,60
12,-117,-139,-39,-40,9,-141,-94,-94,0
-124,-106,-37,-36,-22,20,-165,-126,-94,-165
-227,-95,-31,-39,-16,25,-146,-85,-46,-223
-275,-123,-72,-74,-41,-23,-108,-41,17,-206
-230,-75,-71,-67,-32,-23,37,-26,144,-181
-81,31,-41,-42,-28,5,183,-6,244,-52
144,90,-15,-45,-50,-1,176,29,164,110
387,78,35,-39,-60,-18,183,124,132,218
527,53,-11,-85,-108,-53,242,209,143,314
459,56,-48,-109,-140,-103,190,250,135,419
258,54,-15,-86,-100,-99,95,208,96,496
118,25,28,-61,-12,-78,34,97,19,472
65,1,25,-55,44,-85,4,28,-5,399
44,20,24,-26,18,-84,-9,-5,5,360
80,56,37,-11,-47,-105,-64,-55,-15,280
76,60,37,-8,-67,-105,-113,-87,-76,-1
21,44,51,10,-30,-72,-125,-75,-103,-280
83,24,31,43,18,-24,-104,-66,-143,-325
99,-42,13,68,50,26,-48,-39,-192,-340
48,-111,-12,58,47,55,-1,46,-117,-242
-62,-156,-46,38,47,76,45,31,-123,-210
-111,-78,1,47,62,83,28,-25,-95,-141
-40,10,47,63,74,58,-38,-60,-68,-127
-33,19,30,47,81,48,-47,-39,85,-204
-62,52,46,54,86,44,-65,-40,160,-191
-169,54,81,59,94,36,-83,-68,-13,-230
-207,74,102,72,83,-7,-93,-87,-28,-158
-188,77,106,86,69,-20,-62,-86,12,-161
-130,43,54,50,12,-17,-13,-59,-38,-168
-25,21,14,-9,-99,-45,20,-18,-46,-77
16,-21,-22,-29,-167,-70,28,-13,-46,-14
-61,-58,-40,-8,-151,-45,39,6,-40,-43
-39,-27,-25,0,-155,-65,31,44,-10,9
83,25,1,-26,-172,-92,20,64,57,141
177,16,-7,-39,-129,-9,25,51,86,148
218,-29,-35,-36,-37,94,51,46,54,123
181,-43,-19,-14,61,66,32,14,28,92
149,0,3,3,107,-29,-30,-37,8,65
185,7,-12,-28,53,-78,-69,-61,-23,126
248,13,-59,-83,-14,-53,-62,-50,-40,184
197,19,-58,-77,-3,5,-29,-36,-60,213
96,20,-39,-53,14,32,-6,-14,-53,256
6,8,-59,-49,39,54,16,2,-40,249
-80,23,-22,-15,105,75,29,7,-59,110
-108,31,-4,-6,141,15,-8,-18,-55,-13
-20,37,-19,-30,100,-55,-60,-70,-33,50
-6,68,-12,-34,34,-60,-66,-88,-32,117
-49,56,-17,-40,-3,-27,-42,-91,-28,61
-88,12,-66,-26,-5,19,-6,-95,-72,-58
0,9,-84,-31,-28,25,39,-59,-73,-83
180,14,-52,-53,-107,-24,88,19,38,67
285,51,-54,-53,-164,-82,75,107,192,226
356,77,-22,-41,-181,-100,55,212,201,256
404,75,-1,-24,-206,-81,42,197,165,290
363,48,-27,-18,-210,-51,27,90,114,263
172,-3,-24,-9,-110,35,18,27,-6,63
-72,-47,-21,-3,90,97,8,-22,-79,-153
-371,-92,-20,23,288,102,20,-36,-139,-464
-552,-124,-11,41,276,96,72,4,-112,-438
-489,-98,32,60,171,110,115,32,-50,-116
-347,-63,4,73,130,115,129,44,-27,85
-337,-71,0,84,113,119,139,40,-10,-69
-292,-62,39,59,86,92,75,21,-19,-278
-161,-52,30,16,50,55,33,-6,-36,-266
-5,-29,8,5,20,38,4,-41,-39,-120
90,37,6,-7,-2,30,-12,-25,-18,58
91,64,10,-4,-11,21,-22,-23,24,164
33,31,-16,2,6,12,-53,-39,77,188
-9,20,-29,-15,6,6,-79,-28,125,305
-14,40,-87,-11,-11,-14,-104,-16,158,416
-11,50,-22,0,-16,-28,-128,-24,159,381
176,54,9,-11,-22,-29,-128,-30,139,440
335,56,38,-16,-24,-23,-111,-45,91,472
325,57,60,-2,-37,-34,-118,-96,7,342
172,22,44,-10,-66,-57,-136,-121,-38,178
-25,-51,8,-22,-75,-51,-69,-96,-51,79
-153,-90,-12,-22,-53,-24,1,-70,-44,30
-260,-73,-8,-2,-22,23,85,-20,-64,-170
-296,-66,-51,0,-12,39,121,5,-45,-276
-188,-61,-51,-25,-23,1,61,6,-47,-138
-146,-32,-10,-6,-20,-18,28,41,-43,-223
-135,-26,7,6,-4,5,11,46,-44,-357
137,94,46,-6,-38,-15,-51,-11,-47,58
329,165,42,-40,-80,-49,-64,-48,-17,400
299,94,-56,-77,-95,-55,-47,-38,14,402
159,-10,-43,-90,-100,-47,-42,-16,68,385
29,-78,-57,-93,-82,-39,-5,21,122,250
-92,-56,-19,-65,-43,-12,70,76,163,-74
-215,-2,57,30,36,49,145,118,108,-583
-259,0,102,95,85,109,202,123,-48,-931
-210,17,118,121,90,133,227,110,-82,-823
-54,58,128,128,53,98,227,72,-93,-591
17,79,127,135,57,93,172,7,-107,-561
14,63,128,138,103,102,65,-42,-114,-504
-11,54,101,126,104,87,-81,-47,-67,-364
-42,44,36,52,71,54,-140,-43,2,-279
-71,30,20,20,70,36,-137,-58,-27,-312
-8,20,8,11,84,-4,-148,-65,-44,-247
32,18,-15,-18,38,-86,-201,-66,-31,-224
83,55,40,-3,-4,-133,-201,-57,-51,-201
171,80,64,29,-21,-116,-95,-58,-94,-55
250,85,69,37,-64,-148,-49,-79,-109,167
286,96,53,17,-142,-179,-104,-86,-87,347
282,-18,-61,-97,-252,-107,-69,-60,-83,369
171,-150,-146,-149,-254,24,11,-11,-74,201
77,-168,-145,-80,-136,117,24,13,-27,24
188,-137,-94,-38,-49,39,-78,-29,-13,179
210,-122,-66,-22,-2,-40,-104,-69,-20,225
1,-112,-39,0,17,-14,-74,-45,-8,186
-51,-117,-35,12,49,93,-12,-41,23,257
38,-94,-26,21,158,156,-4,-103,-3,243
55,-69,1,28,261,139,-20,-167,-38,35
23,-63,-16,17,204,81,-13,-164,-9,-103
-137,-44,-45,-9,76,44,44,-111,43,-41
-260,13,-45,-12,12,19,117,-32,48,5
-247,130,32,21,5,7,110,22,38,-29
-135,153,70,38,22,3,39,154,62,-63
-90,74,37,13,2,-12,10,274,108,-98
4,7,-23,-40,-43,-29,-13,246,99,12
3,-94,-93,-79,-77,-46,13,199,23,51
-158,-180,-149,-99,-76,-38,2,148,-35,-34
-238,-125,-125,-80,-66,-32,-33,103,-29,-46
-461,-38,-43,8,-24,-6,-12,32,-73,-241
-629,-14,25,60,21,13,91,34,-79,-346
-402,-14,25,37,15,-18,149,31,-42,-116
-171,-23,7,19,14,-26,107,3,-63,82
-20,-22,-31,-19,-1,-33,143,127,32,231
36,-15,-26,-25,-24,-32,174,225,118,241
149,-14,-72,5,-35,-34,54,144,139,250
214,-42,-148,21,-49,-43,-32,86,156,323
144,-62,-61,34,-55,-41,-40,69,151,325
73,-23,63,53,-50,-27,-21,40,166,296
2,-32,69,46,-15,3,-21,0,122,106
-70,-4,72,52,34,47,-16,-11,68,-88
-102,88,92,61,109,67,16,15,100,-104
-108,166,99,63,154,40,36,-7,84,-187
-86,175,53,83,138,26,25,-84,-46,-262
52,126,65,38,60,16,31,-102,-40,-75
217,97,70,-19,0,-9,6,-88,1,120
251,96,51,-28,-12,-6,11,-75,-17,51
261,112,58,-30,-22,-5,29,-54,-38,-29
238,83,9,-49,-49,-24,14,-42,-30,-4
188,29,-41,-74,-73,-30,-28,-28,9,62
109,-8,-65,-78,-61,-19,-21,-7,29,65
136,-30,-77,-46,-43,-15,-26,-2,49,207
212,-69,-127,-51,-58,-44,-61,-34,9,359
223,-66,-56,-41,-66,-50,-86,-64,-17,348
99,-75,-38,-33,-37,-22,-105,-71,-32,158
-31,-51,-36,-25,-12,6,-89,-16,-27,-71
0,22,25,10,17,28,-34,20,-29,-210
81,67,20,31,26,20,-11,24,-22,-135
131,81,-50,22,8,-3,-33,19,16,50
22,54,36,33,20,3,-42,14,26,102
-94,0,37,26,32,20,-33,-4,4,91
-8,-14,17,-5,4,11,-42,-34,-41,124
189,1,18,-42,-14,-19,-57,-82,-108,107
266,-2,-10,-82,-52,-70,-64,-107,-106,4
26,-52,-12,-67,-43,-64,-6,-81,-146,-202
-175,-35,19,-24,-25,-66,44,-20,-92,-266
-214,5,46,8,-4,-49,73,41,-3,-266
-185,36,66,39,21,22,130,101,93,-403
-37,42,57,26,20,57,142,104,133,-120
167,53,-12,4,-42,56,101,66,147,320
305,87,-28,-3,-102,19,22,20,140,465
316,93,36,-6,-143,13,-23,-11,84,405
225,56,64,12,-148,63,39,-21,16,437
101,13,60,20,-124,101,81,-24,9,528
-8,-44,25,7,-17,98,36,-38,-13,427
-164,-79,-20,21,79,89,4,-30,-57,-39
-377,-86,-9,66,102,80,2,11,-63,-599
-472,-111,30,44,88,40,-12,43,-27,-586
-530,-156,-16,-5,91,76,23,53,-61,-423
-489,-193,-50,-20,131,103,12,36,-94,-447
-281,-195,-64,-42,186,44,-52,-10,-118,-449
-49,-194,-75,-54,168,-5,-36,-45,-128,-321
-4,-179,-30,-16,123,17,13,-38,-153,-279
-14,-68,51,50,112,41,19,1,-145,-356
32,75,124,97,115,51,32,41,-148,-367
-36,141,143,98,108,53,61,80,-108,-263
-233,169,149,98,113,77,88,105,-61,-242
-384,157,126,94,103,70,45,105,4,-204
-283,126,70,31,50,17,-39,67,-16,-83
-98,112,23,-19,1,-29,-79,-14,-64,47
38,54,-29,-58,-35,-48,-77,-57,-68,173
154,-17,-90,-64,-65,-42,-86,-32,-13,239
236,-2,-50,-43,-59,-33,-64,-28,-4,208
241,28,-22,-15,-35,-19,0,-37,20,186
251,42,-18,-21,-43,-50,18,-48,72,369
271,81,-18,-44,-66,-97,-6,-69,121,402
275,130,18,-18,-71,-125,-74,-89,153,192
57,100,57,36,-42,-113,-70,-75,60,-55
-170,30,40,39,-24,-52,5,-47,-16,-193
-154,17,-27,27,-11,18,55,0,26,-235
-38,34,-6,41,11,62,33,91,39,-115
21,5,16,48,13,44,-31,112,7,68
69,-39,-24,12,3,-9,-75,61,22,180
80,-73,-41,-3,-8,-37,-54,44,28,202
3,-57,-30,33,4,-28,-21,33,5,72
-115,-53,-30,36,22,10,18,31,-27,-123
-92,-37,-36,4,11,18,27,7,-63,-156
-32,-6,-24,-8,-18,-28,-16,-40,-80,-143
-26,-1,-21,-16,-38,-45,-51,-31,-48,-128
13,-9,-24,-32,-47,-30,-63,-15,-12,25
37,15,-22,-35,-63,-28,-51,-5,-5,99
20,41,-19,-41,-79,-41,-23,40,34,41
-32,26,7,-12,-48,-2,46,77,46,-59
0,17,4,15,-12,23,116,88,43,-28
124,-8,-28,-8,-12,5,133,41,4,25
234,-17,-30,-17,-46,-36,75,-3,-37,65
219,-47,-40,-22,-127,-50,23,-6,-42,143
189,-46,-24,-15,-167,-24,-45,-20,-28,410
197,10,15,0,-95,43,-44,-11,31,632
164,77,-15,20,81,78,-20,23,102,533
124,95,-84,22,251,69,35,17,148,344
140,86,24,40,226,55,20,-51,168,452
171,59,56,25,98,47,-50,-120,166,492
258,18,-4,-44,-19,1,-91,-104,183,335
252,-14,-46,-79,-69,-7,-71,-66,160,22
160,-35,-55,-97,-88,-27,-56,-51,103,-377
97,-98,-111,-122,-118,-69,-34,-21,66,-394
-166,-112,-54,-46,-85,-37,34,70,-30,-497
-254,-86,-10,23,-54,-9,98,105,-103,-381
-256,-105,-11,20,-57,-13,85,77,-68,-102
-407,-114,42,59,-21,4,118,89,-15,-231
-400,-101,100,93,0,1,102,70,-96,-406
-261,-58,120,114,28,5,37,28,-122,-300
-164,-46,84,95,58,14,1,1,-128,-231
-95,-21,55,72,85,0,0,0,-107,-145
-2,33,48,59,104,-22,-1,12,34,-33
138,74,35,23,84,-44,-5,15,31,53
322,112,18,-3,11,-74,-15,-12,-31,120
332,97,1,-20,-44,-76,-28,-21,-55,126
207,85,2,-24,-66,-74,-56,-25,-57,138
-9,59,13,-9,-46,-55,-52,-38,-67,-24
-268,1,-3,16,19,7,-26,-15,-53,-342
-309,-14,-71,39,53,29,-2,23,46,-317
-247,-7,-65,39,44,41,11,36,83,-114
-105,1,-13,4,14,38,5,24,54,-89
-29,-6,-4,-4,-3,30,-4,2,31,-88
-52,-36,-3,-13,-13,12,-24,-23,21,-65
-46,-27,-12,-28,-22,-10,-57,-79,-14,-38
-84,-33,3,0,0,2,-66,-124,-54,-29
-39,-34,1,9,4,14,-50,-138,-49,67
235,-12,-16,-19,-46,-39,-66,-128,32,350
499,-12,-18,-46,-74,-66,-66,-108,73,523
615,-16,-39,-70,-92,-66,-38,-93,47,432
639,-13,-79,-102,-106,-57,14,-34,81,347
603,-6,-170,-150,-134,-92,-21,26,135,400
492,23,-222,-152,-176,-138,-90,124,150,527
135,62,-46,-91,-125,-121,-84,105,91,535
-281,49,45,-35,-57,-53,-5,48,34,406
-573,6,54,-3,-3,-8,93,99,-5,122
-832,-43,77,64,81,56,161,167,-28,-320
-718,-99,61,66,86,104,196,186,-6,-460
-535,-102,68,62,71,119,184,145,-41,-471
-383,-27,105,104,98,138,146,84,-96,-544
-233,58,139,132,151,156,114,0,-198,-630
-130,96,111,102,131,115,55,-65,-238,-491
-8,99,108,61,82,47,0,-77,-160,-211
83,75,78,40,82,40,-32,-70,-41,-166
43,66,68,54,100,51,-84,-98,-16,-309
-153,39,88,78,108,26,-128,-114,-117,-450
-299,-60,70,83,109,22,-106,-114,-39,-345
-182,-146,-30,11,58,20,-71,-137,76,-13
-25,-128,-150,-53,16,13,-69,-155,108,184
3,-132,-155,-88,-13,-11,-61,-122,87,241
12,-72,-69,-95,-47,-66,-53,-45,69,207
61,31,-19,-73,-49,-99,-70,87,95,174
60,66,4,-28,-9,-45,-25,153,123,122
29,-8,-26,-18,2,-14,45,103,115,162
-34,-48,-31,-15,-14,-5,52,44,74,151
-52,-11,-16,1,-15,24,68,26,39,36
-45,15,21,4,-6,87,143,64,55,-90
19,38,45,-8,-53,91,83,42,50,-71
113,95,46,28,-82,85,-40,-6,26,62
43,134,103,91,-42,129,5,17,10,88
16,189,176,114,-45,73,39,73,87,155
261,202,145,44,-131,-49,59,79,226,400
684,115,23,-54,-194,-102,-10,-10,211,716
905,61,-39,-69,-138,-72,-40,-56,178,764
851,-9,-73,-70,18,-57,-66,-62,123,523
629,-86,-107,-97,138,-153,-212,-115,15,248
274,-140,-155,-118,102,-248,-269,-162,-76,65
-66,-190,-164,-154,-21,-189,-145,-76,-70,36
-395,-215,-187,-156,-88,-112,-29,59,-3,-69
-512,-185,-195,-84,-76,-57,-17,66,-93,-357
-395,-84,-49,-18,-60,-25,-70,-14,-154,-479
-321,-38,7,-1,-97,-25,-50,-30,-129,-322
-242,-46,7,7,-148,-6,57,24,-66,-174
-107,-26,-69,6,-215,-10,115,92,16,-53
52,-3,-105,-28,-280,-55,140,121,96,193
147,-20,-35,-55,-275,-58,83,67,101,493
91,-17,9,-49,-178,-45,-22,-1,44,531
-70,-6,39,-9,-7,7,-10,6,21,251
-289,-7,66,50,179,132,28,11,-25,-155
-337,26,88,100,329,221,37,-13,-102,-434
-283,45,58,88,343,233,63,14,-88,-425
-199,46,22,43,304,145,37,20,-71,-264
-45,90,60,23,238,3,-24,-38,-86,-164
219,130,75,-23,62,-81,-61,-67,-42,-20
419,129,39,-55,-26,-54,-60,-49,-5,-43
380,100,35,-35,16,-10,-42,-18,-9,-204
353,53,-63,-49,39,-47,-66,-28,-10,-49
307,-23,-87,-83,20,-74,-89,-51,-38,258
177,-53,-4,-61,14,-25,-39,-19,-46,374
-46,-83,16,-27,38,25,18,-6,-54,196
-280,-127,22,-1,73,40,65,-14,-47,46
-417,-97,62,37,96,37,78,-42,-81,-131
-493,-101,56,44,77,30,84,-86,-165,-441
-495,-125,17,41,73,63,78,-94,-211,-732
-553,-117,7,49,94,154,83,-64,-227,-897
-452,-47,22,41,90,173,50,-36,-186,-718
-239,11,24,19,64,112,4,0,-123,-442
-57,56,33,10,15,5,-8,71,-54,-120
104,89,51,11,-19,-57,-51,70,-8,197
48,52,40,1,-17,-60,-42,75,17,279
-154,-12,38,28,19,-30,11,128,45,114
-283,-55,34,51,33,3,63,154,88,-117
-184,-48,13,30,-10,-13,71,161,151,-80
29,-2,0,-18,-69,-63,85,136,162,162
165,46,31,-23,-97,-100,119,92,132,264
312,109,59,10,-103,-110,94,33,99,288
360,123,57,9,-85,-87,64,-14,28,190
267,82,43,10,-40,-34,38,-50,0,13
256,38,18,-9,-14,-24,-7,-92,17,14
318,-7,-34,-51,-14,-48,-77,-146,19,116
321,-45,-69,-89,-16,-54,-146,-210,11,161
188,-65,-61,-69,9,-25,-191,-236,-41,79
188,-50,-40,-39,4,-40,-201,-219,-85,8
276,-28,-85,-43,-33,-103,-205,-163,-72,124
244,-57,-35,-20,-20,-93,-147,-26,-14,313
37,-105,5,16,16,-2,-25,148,72,348
-125,-149,2,42,34,47,69,174,116,330
-210,-147,21,86,82,129,126,179,90,60
-291,-152,9,67,84,199,151,239,40,-303
-244,-107,-9,7,34,184,109,149,3,-323
-143,-24,-6,-25,-14,123,39,6,-28,-187
-129,30,2,-23,-42,54,6,-58,-72,-228
-209,69,19,-11,-64,-3,-12,-82,-101,-313
-360,63,6,-15,-84,-35,8,-76,-79,-303
-415,65,-25,-34,-84,-42,56,-4,-41,-233
-313,34,-59,-28,-41,-15,121,94,19,-204
-51,51,-63,-16,-13,-1,132,129,88,-68
160,55,-8,-10,-12,-37,96,101,114,146
291,92,25,6,-17,-84,44,78,135,266
268,163,81,40,-15,-105,-6,47,110,246
75,170,101,71,2,-81,-7,41,111,105
-64,117,44,53,8,-45,26,41,114,25
-40,78,-47,15,-5,-35,9,34,86,52
10,36,-72,17,-6,-52,0,9,29,-17
38,-2,-77,39,0,-50,17,-6,-27,-231
29,-52,-135,23,-4,6,63,2,-46,-267
-29,-86,-55,2,-39,19,68,11,-39,-86
-37,-49,-25,2,-75,-23,26,2,-9,56
73,23,-7,18,-98,-77,-33,-5,28,226
260,92,-21,29,-109,-121,-80,3,100,454
382,134,74,55,-74,-89,-74,8,85,608
447,141,102,60,-29,-12,-70,-22,36,663
484,143,83,28,23,5,-79,-50,58,735
337,87,36,-31,68,6,-88,-69,37,652
100,-8,5,-32,59,19,-109,-59,-15,359
9,-73,-30,-43,0,5,-121,-58,-44,237
-34,-89,-34,-50,-14,0,-83,-37,-69,32
-171,-68,-3,-5,28,26,-17,7,-108,-472
-321,-19,67,81,86,76,60,45,-101,-912
-256,-2,69,91,87,82,107,38,-111,-782
-187,-17,55,89,58,60,113,8,-111,-502
-96,-23,46,72,28,39,108,-28,-113,-298
94,-20,0,24,-14,14,75,-74,-105,-211
212,3,-7,-9,-48,-3,28,-89,-90,-146
166,63,-22,4,-27,4,9,-106,-90,-126
124,91,10,22,1,-5,11,-78,-59,-79
78,41,29,4,-13,-18,27,-7,34,84
-101,18,20,7,3,5,11,20,62,28
-242,27,-7,23,26,26,12,16,53,-134
-95,7,-58,-11,-32,-1,5,-3,82,-5
178,9,-99,-39,-99,-52,-13,-11,111,236
361,34,-36,-36,-127,-85,-28,-2,144,518
454,42,-8,-51,-142,-98,-97,-8,148,744
423,5,-50,-71,-153,-90,-215,-36,114,669
254,0,-36,-32,-112,-35,-247,-27,89,344
-56,4,-50,25,-69,17,-172,4,51,27
-374,-3,8,74,-38,56,3,24,2,-202
-403,-7,-6,73,24,33,147,13,-56,-348
-334,-24,-109,38,15,54,186,5,-125,-489
-136,-24,-58,21,-7,82,199,24,-138,-504
74,-19,38,12,30,47,69,3,-136,-394
110,-25,60,34,96,65,-92,-56,-149,-383
259,-18,25,17,124,69,-171,-95,-61,-176
319,-18,-40,-20,236,20,-192,-99,25,45
215,-27,-101,-34,282,-43,-150,-82,1,115
3,-7,-39,16,178,-22,-68,-53,-22,10
-206,-21,32,57,119,31,0,-45,-80,-150
-307,-53,74,40,97,55,3,-31,-76,-198
-455,-106,78,33,85,64,18,1,-69,-182
-554,-138,61,32,59,44,33,38,-50,-198
-583,-137,-9,15,48,43,29,72,-50,-294
-416,-75,-64,22,44,35,18,71,-24,-232
-185,-25,1,14,17,-26,-18,41,38,71
-38,-28,27,-24,-2,-74,-57,-17,48,309
103,-39,3,-49,-30,-86,-110,-82,24,363
198,-37,-12,-66,-59,-65,-147,-103,59,443
293,-31,-28,-80,-60,-4,-131,-100,96,560
414,-23,-40,-72,-38,24,-82,-92,113,655
378,-16,-21,-40,-10,25,-12,-89,119,596
148,26,35,37,55,28,94,-64,53,75
-27,119,163,112,81,15,138,-53,6,-293
-91,181,197,141,46,19,149,-53,-44,-330
-190,134,120,111,-2,44,186,-1,-59,-415
-249,18,-12,4,-85,16,168,190,23,-207
-222,-52,-28,-47,-126,-18,100,257,88,70
-65,-30,5,-17,-97,-15,18,163,82,321
99,18,25,-9,-48,-15,-94,75,57,486
184,4,-5,-25,3,-47,-174,49,-4,488
239,-49,-41,-62,28,-92,-182,40,-56,370
293,-91,-47,-60,34,-93,-119,1,-72,248
318,-79,-38,-41,5,-58,-65,1,-60,193
241,-61,-85,-20,-19,-40,-33,-7,-87,-34
112,-103,-83,-21,-10,-29,21,-27,-119,-399
32,-64,-37,0,10,-15,41,-32,-136,-667
-64,-55,17,5,17,2,25,-19,-122,-655
-107,-50,18,-2,10,31,-3,6,-79,-441
-54,-5,19,-3,-9,39,-18,1,-11,-48
-40,35,31,2,-4,28,-1,30,87,108
-86,36,47,7,-2,7,53,38,63,43
-14,78,82,35,0,-10,62,27,44,107
50,124,73,26,-12,-36,38,12,44,125
-152,153,33,31,-39,-29,66,38,42,-233
-354,140,69,55,-24,8,108,102,42,-507
-275,147,79,42,-43,16,120,150,108,-383
-127,130,57,12,-86,-24,73,135,114,-181
-26,82,21,1,-83,-10,44,81,60,-70
38,51,33,6,-22,34,49,39,33,-14
-6,-1,25,23,66,48,38,23,27,-16
-93,-56,-21,34,135,4,21,20,8,-37
36,-50,-56,-7,65,-42,4,25,41,84
163,10,-23,-20,-7,-36,2,7,51,170
295,15,-30,-25,-25,-2,26,-14,6,177
434,5,-12,-14,-8,13,39,-22,-27,170
656,38,4,-14,-32,4,9,-47,-65,263
742,54,14,-39,-96,-68,-46,-70,-102,270
551,66,43,-10,-76,-54,-14,-50,-119,79
296,20,-9,-4,-30,-18,0,-28,-104,48
-124,-58,-8,35,24,8,-34,-51,-76,8
-691,-72,15,62,85,76,-38,-53,-86,-248
-880,-62,-6,29,75,102,-47,-75,-115,-346
-728,-19,5,26,53,94,-52,-74,-60,-246
-488,24,41,51,40,96,-51,-65,-12,-138
-355,-5,24,39,30,132,-54,-81,-27,-120
-331,-103,-68,-25,1,170,-35,-88,-64,-164
-253,-134,-104,-52,-23,158,-2,-69,-67,-171
-59,-96,-79,-57,-39,102,-7,-8,11,44
221,5,-52,-73,-67,-2,-50,26,82,424
423,98,-31,-100,-96,-94,-65,92,116,637
541,79,-34,-140,-88,-131,-41,80,146,752
664,56,-45,-145,-73,-186,-67,-5,142,788
549,72,-28,-88,-60,-196,-107,-41,83,494
55,65,42,20,-11,-122,-36,-4,67,-72
-327,0,61,86,21,-51,46,27,60,-285
-335,-37,38,86,32,0,122,37,53,-254
-202,-38,32,50,10,33,216,73,96,-219
-145,-16,-1,29,-11,12,197,85,116,-230
-151,49,27,35,-18,-7,118,70,68,-355
-246,42,50,39,21,8,103,85,20,-420
-277,37,31,25,64,18,128,113,26,-281
-206,45,22,15,54,-1,57,91,79,7
-129,22,25,-7,14,-27,-21,21,63,90
-48,15,15,-15,-24,-44,-80,-65,-22,-88
-20,-11,-44,7,-5,-34,-122,-115,-97,-249
-57,-48,-27,27,31,-22,-126,-128,-172,-224
-6,-41,0,29,29,-37,-74,-93,-164,-51
12,-38,34,34,29,-8,-24,-23,-90,84
-4,-64,30,26,34,53,5,10,-8,177
96,-97,-16,-21,24,74,4,-16,7,294
322,-98,-53,-66,-12,34,-59,-71,-43,524
465,-38,-72,-113,-70,-35,-116,-114,-50,661
453,-42,-89,-148,-92,-78,-138,-128,-71,470
391,-73,-104,-101,-37,-43,-102,-72,-70,110
243,-47,-60,-21,24,22,-25,-6,-24,-211
248,-8,-24,-7,19,50,11,31,40,-316
252,25,12,7,20,76,36,30,52,-250
141,6,19,4,26,77,51,4,71,13
4,-15,17,6,38,74,68,5,109,112
-197,-10,26,8,26,44,40,-13,130,22
-340,32,30,-5,-25,-18,-28,-58,109,38
-544,18,-13,-21,-75,-48,13,-41,110,31
-629,-37,-30,-27,-118,-57,119,19,113,15
-415,-74,-50,-56,-115,-56,122,94,118,141
-176,-78,-50,-69,-79,-40,28,131,63,190
-89,-38,1,-35,-25,-17,-43,74,-39,-25
-84,-14,58,29,18,14,-50,32,-82,-330
-132,-19,88,65,49,59,-9,42,-90,-588
-149,-3,89,86,81,102,42,41,-117,-653
-94,61,84,77,116,115,67,26,-93,-533
-44,97,71,52,181,92,35,-16,-136,-354
-69,85,43,35,171,68,14,-35,-179,-268
-85,63,12,14,87,49,8,-20,-165,-173
-32,71,14,-23,3,8,-21,-5,-114,-63
3,37,14,-31,-24,-30,-67,-13,-78,-19
44,-4,0,-27,-31,-51,-79,-9,-27,50
109,10,-38,-29,-36,-61,-75,-1,-22,87
126,-10,-114,-12,-15,-54,-29,6,-38,31
171,-57,-115,-24,-18,-38,22,33,-16,36
298,-52,-81,-45,-19,-11,59,37,14,127
464,-12,-59,-47,-37,-18,6,24,40,298
492,13,-40,-54,-65,-61,-71,0,85,472
435,41,-39,-66,-90,-87,-100,8,121,601
540,97,-18,-83,-134,-126,-117,-27,108,793
581,115,-22,-99,-182,-148,-118,-73,69,823
426,90,-38,-101,-201,-154,-73,-68,55,630
345,75,-23,-75,-180,-118,-66,-67,26,374
265,72,6,-55,-170,-114,-73,-44,-12,88
96,67,48,-17,-148,-98,-50,-22,-6,-130
-133,62,-3,13,-80,-24,-13,-3,6,-246
-517,-32,-99,28,24,93,52,28,2,-442
-750,-143,-67,60,185,184,90,48,-38,-480
-828,-155,44,138,311,224,120,58,-55,-429
-763,-110,85,158,280,181,112,33,-49,-448
-567,-80,66,102,162,104,98,10,-15,-415
-414,-107,-11,33,58,52,86,15,15,-344
-287,-116,-78,-5,8,39,68,6,22,-252
-115,-72,-28,1,0,25,61,-3,41,-133
-64,-20,31,28,-3,4,38,23,71,-49
-75,23,66,57,14,3,37,36,90,-10
41,57,83,94,64,44,36,8,27,-47
148,27,46,55,65,68,21,-36,-33,-45
140,-6,2,7,48,45,-24,-51,7,53
68,-12,11,9,65,37,-38,-48,46,151
46,-2,19,38,83,35,-33,-26,-13,113
-2,-5,10,44,66,6,-19,20,-20,-47
-45,-30,-23,0,17,-34,-16,41,8,-77
18,-40,-60,-44,-11,-40,-34,34,22,14
56,-37,-56,-48,-19,-20,-49,13,32,26
89,-15,-36,-34,-29,3,-60,-24,7,20
203,-23,-34,-39,-26,7,-56,-66,-59,113
319,-66,-92,-81,-65,-55,-120,-48,-53,419
472,10,-74,-118,-129,-150,-238,-80,14,901
769,81,-72,-165,-201,-194,-285,-131,50,1394
1007,61,-129,-221,-261,-205,-337,-181,51,1355
800,52,-93,-172,-199,-167,-318,-157,53,643
327,-36,-85,-130,-149,-83,-100,-83,51,-8
-181,-135,-92,-104,-119,-38,122,31,60,-469
-613,-134,-50,-7,-37,20,258,131,39,-762
-755,-78,34,79,8,63,296,166,7,-698
-632,1,93,131,33,85,289,163,9,-491
-386,110,129,192,88,109,228,149,-49,-657
-237,115,179,202,144,120,151,85,-102,-690
-308,38,127,173,179,176,151,48,-111,-612
-348,33,98,139,174,220,240,71,-40,-649
-359,52,86,101,144,191,263,60,-52,-655
-378,39,27,98,159,164,214,28,-60,-530
-338,-26,-65,62,143,124,101,27,-7,-278
-284,-68,-40,11,109,99,56,47,37,-152
-120,-10,20,14,79,59,54,14,25,-101
98,36,23,5,41,2,11,-42,-4,26
224,0,-46,-10,16,-38,-48,-94,-43,123
321,-30,-42,-38,11,-61,-90,-95,-18,213
358,4,-20,-47,-8,-90,-133,-87,11,270
379,57,-6,-51,-39,-68,-122,-93,-1,256
360,69,-2,-47,-59,-39,-81,-59,19,284
331,99,-22,-26,-50,-69,-87,-42,73,368
274,115,-7,-23,-36,-93,-85,-41,112,405
174,91,54,-1,-9,-69,-41,-3,63,293
147,99,62,21,-6,-82,-11,28,36,148
107,78,41,8,-26,-80,11,-3,21,71
67,35,23,-6,-21,-21,33,-24,-26,-40
22,-54,0,11,-15,7,43,-20,-92,-163
-26,-131,-37,-1,-18,-15,16,12,-107,-155
-70,-88,-30,-20,-21,-40,-6,108,-23,-77
-147,-54,-6,-9,-4,-28,-8,144,33,4
-160,-49,-5,-14,10,-43,-41,88,43,130
-170,-7,10,-34,-27,-95,-129,62,43,203
-201,42,29,0,-34,-104,-171,32,48,143
-287,-45,-19,-14,5,-22,-91,30,71,45
-252,-95,-125,-61,18,21,-24,28,46,74
-168,-18,-185,-65,-21,-13,0,13,28,56
-145,24,-123,-50,-47,-17,32,-4,-7,-7
-131,6,-38,-30,-45,0,53,-28,-66,-110
-123,0,-14,-8,-45,17,24,-30,-73,-207
-160,25,-3,15,-45,42,29,-20,-52,-225
-131,73,99,59,-44,62,75,17,36,-81
-9,125,136,103,-15,90,124,66,191,146
100,125,125,107,42,81,127,68,211,189
73,58,77,78,17,36,99,33,112,108
18,11,-27,42,-55,16,71,6,31,53
-6,-17,10,11,-67,31,84,11,-1,-1
-53,-53,21,-6,32,64,88,-16,-49,-139
-109,-73,6,-17,161,61,49,-38,-99,-249
-74,-72,4,-14,194,11,-13,-44,-121,-177
-9,-65,4,-6,118,-18,-53,-34,-82,-54
14,-50,1,-16,21,-34,-55,-11,-18,64
77,5,18,-20,-21,-52,-49,7,34,224
139,43,29,-33,-24,-53,-33,18,46,321
209,68,-6,-46,-42,-67,-23,11,58,414
409,91,-7,-66,-64,-83,-46,-17,61,527
719,68,-37,-89,-94,-91,-31,-17,97,556
782,-7,-60,-84,-78,-41,1,4,100,422
727,-101,-92,-93,-71,-31,-11,-10,19,487
635,-97,-96,-111,-104,-57,-39,-62,41,614
305,-65,-37,-70,-78,-35,-50,-85,20,348
-54,-44,-33,-38,-43,0,-15,-34,8,-189
-376,-30,-9,-19,-23,2,24,10,17,-664
-552,-47,18,6,-6,2,20,4,-33,-895
-424,-100,-27,-9,10,17,17,-22,-55,-669
-251,-125,-34,-6,26,33,-7,-72,-105,-340
-216,-72,34,54,56,39,-18,-81,-141,-139
-181,-18,60,93,77,54,-19,-48,-86,206
-242,-28,-9,113,110,87,-3,-1,-48,346
-365,-36,65,153,160,141,79,56,-40,89
-368,10,138,183,178,167,96,74,-60,-270
-210,78,152,178,163,140,37,64,-62,-450
-107,109,147,155,145,121,4,45,-78,-480
-140,77,111,118,100,85,0,16,-122,-496
-131,63,35,76,69,38,0,0,-136,-471
-54,56,5,37,38,2,-28,-16,-114,-327
-17,22,24,12,7,-1,-40,-43,-70,-148
24,-5,16,-4,-1,-11,-42,-80,-26,-4
145,-14,-10,-39,-29,-19,-53,-98,-10,169
264,-21,-96,-72,-69,-37,-57,-86,27,375
358,-18,-110,-83,-105,-52,-56,-52,83,505
356,2,-31,-87,-111,-58,3,35,110,418
259,39,25,-38,-79,-19,84,154,147,168
168,82,72,22,-36,6,52,221,198,102
104,98,81,22,-46,-31,-40,143,172,232
9,118,82,15,-36,-69,-63,38,90,300
-5,139,103,23,-34,-136,-77,-28,5,255
-44,76,105,32,-50,-155,-72,-55,-29,83
-110,-23,56,38,-47,-62,-16,-31,-44,-157
-112,-86,-1,4,-29,49,70,0,-47,-203
-138,-71,9,11,36,107,91,-4,-65,-237
-140,-25,62,48,84,90,49,-14,-34,-204
-10,-47,5,20,66,50,15,-23,23,13
126,-100,-83,-67,-2,-3,-4,-21,27,163
113,-82,-85,-85,-42,-41,-27,-28,-6,29
-46,-56,-42,-63,-52,-62,-10,1,-45,-219
-115,-35,-30,-28,-37,-34,76,44,-74,-313
-135,-17,-50,25,12,36,97,-48,-126,-452
-146,-24,-78,38,43,65,37,-120,-133,-389
-108,-53,-98,26,23,57,26,-77,-107,-91
-163,-90,-108,10,22,60,111,-32,-108,30
-160,-119,-136,-22,11,49,168,30,-56,70
-56,-95,-91,-61,-28,30,129,102,11,135
29,-23,-46,-76,-63,-7,-19,101,19,219
13,49,38,-26,-37,20,-124,62,26,144
-66,74,76,29,16,62,-127,32,17,-32
-73,61,69,36,25,47,-100,23,-2,-125
-36,61,68,44,26,33,-83,37,-2,-203
-28,69,78,59,23,31,-49,72,4,-285
-28,67,79,60,8,4,-12,89,7,-224
17,58,49,26,-14,-25,-3,70,2,-95
44,16,21,-12,-41,-36,-8,48,17,-17
53,-37,-37,-22,-78,-48,-13,27,22,27
52,-31,-73,-30,-115,-72,-8,-4,49,62
80,8,-14,-21,-130,-72,-6,3,95,81
119,39,3,-17,-148,-73,-3,15,71,120
133,98,61,-6,-163,-67,12,22,97,146
132,146,71,-2,-115,-11,36,22,176,140
95,106,44,-9,-12,51,13,-11,81,121
33,51,12,-24,98,45,4,-28,18,142
48,27,-10,-44,113,-33,-3,-36,27,185
58,1,-30,-47,51,-67,-34,-57,6,151
10,-25,-65,-45,18,-57,-29,-48,-8,109
23,-41,-68,-52,17,-54,-21,-44,1,149
105,-32,-32,-50,20,-39,-62,-65,-32,150
210,-8,-20,-44,24,-31,-61,-55,-66,107
255,13,9,-14,43,-12,-24,-41,-104,-11
298,32,9,-7,38,-17,-41,-34,-71,-12
349,55,-1,-28,0,-46,-98,-59,-61,117
355,24,-10,-72,-46,-67,-119,-83,-68,134
364,6,-40,-112,-84,-65,-111,-59,-42,140
359,43,-43,-125,-83,-60,-108,-31,-14,295
256,59,-37,-101,-65,-58,-71,-14,0,481
129,100,-11,-80,-56,-63,-41,-8,-1,517
-30,99,5,-44,-23,-28,0,3,-8,234
-77,81,-3,-9,17,35,51,48,23,27
-3,93,0,17,18,34,53,47,34,129
-144,30,47,41,26,32,17,43,-10,-97
-269,-92,-24,21,24,41,17,45,-16,-337
-284,-112,-36,16,28,49,37,42,35,-377
-343,-114,-20,7,34,45,66,49,8,-392
-342,-120,-96,-11,5,16,72,54,21,-183
-372,-104,-64,12,2,4,75,36,32,-84
-377,-68,-73,23,-1,5,69,26,30,-150
-379,-47,-14,24,-17,9,71,36,50,-166
-389,-35,40,53,-12,26,52,24,15,-192
-286,1,84,72,26,51,26,0,-53,-269
-64,5,32,57,26,44,13,-21,-70,-294
82,-29,-50,43,4,16,-29,-53,-36,-85
175,-30,23,44,4,35,-62,-63,-25,127
315,17,41,41,7,83,-43,-45,0,238
430,-19,-80,0,-1,83,19,-17,53,281
432,-77,-86,-26,3,61,18,-16,33,111
446,-44,-47,-34,0,39,-17,-28,-8,2
342,-30,-78,-57,-22,21,-15,-27,-14,38
147,-21,-86,-80,-48,-12,-29,-38,-48,8
-32,48,10,-56,-32,-17,-31,-58,-142,-69
-169,103,56,0,-4,15,-13,-29,-147,64
-289,40,61,27,9,18,62,28,-63,178
-356,5,71,55,23,12,80,39,-15,77
-299,24,78,78,35,12,28,7,-10,-20
-278,19,80,80,46,-23,-23,-18,-27,-85
-448,36,104,114,69,-28,2,15,6,-366
-487,71,105,117,52,-19,32,46,32,-508
-348,78,122,65,8,-6,41,46,-4,-403
-212,98,106,56,0,16,49,18,-54,-335
-193,29,58,49,67,69,60,-7,-86,-287
-148,-56,12,22,170,67,64,-33,-92,-100
-95,-76,-21,-5,165,20,48,-42,-57,46
-57,-103,-76,-41,43,-43,16,-18,6,64
83,-63,-121,-64,-57,-99,-55,-9,72,228
219,5,-48,-64,-81,-119,-89,-9,110,432
257,16,-13,-74,-83,-120,-74,1,106,560
168,37,-33,-27,-57,-127,-67,-2,84,401
67,43,25,0,-21,-94,-60,17,66,72
31,9,15,-8,8,-12,6,70,60,-120
26,-11,15,13,35,69,108,88,58,-148
0,-16,15,19,32,115,185,73,47,-222
19,-20,2,-17,-2,83,151,66,50,-229
96,34,20,-14,-13,-5,11,6,67,-50
47,73,-47,3,-14,-41,-49,-65,45,-20
-40,51,-88,-17,-43,-22,-48,-86,3,-76
17,23,-46,-63,-89,16,-53,-31,1,105
134,44,11,-38,-82,32,-72,66,-10,198
178,50,37,0,-64,26,-79,146,-43,40
301,31,15,-31,-99,-10,-80,134,-27,14
249,-6,-25,-38,-97,-10,-86,49,-51,-73
-92,-32,-50,33,45,77,-31,20,-96,-530
-340,-44,25,94,210,146,53,65,-60,-762
-272,-84,33,80,219,113,56,86,-8,-457
-91,-78,28,29,90,47,35,71,-7,-167
20,-66,11,-1,-8,-5,15,35,-15,-38
141,-46,-17,-22,-36,-32,-20,3,-2,86
249,0,-10,-25,-65,-51,-72,-9,36,256
241,40,10,-15,-87,-61,-89,-8,49,321
157,44,29,-4,-53,-18,-27,-20,28,371
90,45,45,6,0,32,27,-30,43,347
-9,-13,5,-20,62,39,47,-48,50,190
-87,-44,-14,-34,123,22,19,-64,50,81
-60,18,16,-4,83,-6,-88,-98,33,30
17,48,25,-19,1,-26,-172,-141,53,181
131,35,-26,-60,-41,-50,-177,-124,80,417
248,31,-65,-85,-78,-55,-104,-41,78,509
268,28,-108,-93,-122,-44,-130,-31,43,385
356,68,-161,-89,-154,-64,-195,-136,9,363
450,100,-73,-71,-139,-45,-119,-183,-20,268
318,50,-2,-12,-55,-1,72,-136,-73,-263
47,-78,-20,17,24,24,182,-34,-83,-614
-68,-142,-44,24,80,42,111,26,-65,-440
-80,-142,-35,18,102,60,99,22,-52,-120
-232,-121,-88,-1,74,15,66,67,-32,-72
-212,-95,-56,-6,32,-37,6,112,17,27
-11,-59,14,-9,8,-73,-22,132,63,210
92,-43,31,14,24,-49,13,174,90,356
147,-52,27,34,61,-12,44,142,92,375
137,-70,-1,31,82,15,64,99,60,353
24,-32,18,50,84,47,66,82,1,182
-162,28,46,92,101,83,72,73,-15,-277
-374,38,95,95,83,71,80,47,-27,-516
-549,-14,69,75,61,63,72,25,-92,-631
-607,-14,99,98,75,77,90,24,-130,-739
-465,13,120,99,76,64,104,21,-110,-588
-226,33,88,63,38,32,76,9,-84,-365
-59,52,77,34,5,3,46,5,-55,-183
7,53,2,24,-7,1,44,-8,-34,-72
27,48,-86,13,-24,-19,27,-33,-29,-39
10,60,-20,15,-27,-30,8,-53,5,-37
-47,71,63,26,-21,-17,0,-54,1,-44
-8,87,82,23,-30,-23,2,-26,60,89
180,79,54,-13,-46,-40,-20,1,132,410
414,82,23,-58,-97,-77,-70,-28,173,720
596,84,15,-68,-118,-100,-89,-91,139,765
750,77,-17,-63,-99,-87,-63,-120,80,706
887,27,-31,-82,-101,-99,-48,-130,59,612
731,-39,-34,-75,-90,-100,-71,-160,7,306
370,-84,-25,-41,-71,-105,-43,-140,-51,143
-70,-111,-42,-22,-53,-105,19,-61,-21,166
-379,-98,-127,-44,-66,-106,62,54,36,130
-540,-60,-158,-62,-69,-73,73,198,59,-148
-710,-34,-98,-4,16,34,82,204,9,-573
-728,-45,4,34,111,160,100,104,-96,-759
-650,-51,-21,51,151,231,112,45,-205,-793
-574,-24,49,95,133,229,107,18,-223,-746
-485,-44,58,82,90,190,102,31,-109,-681
-362,-84,-25,47,82,156,73,36,-75,-548
-176,-44,13,28,67,89,12,0,-77,-347
-14,2,20,0,27,5,-34,-27,-45,-91
51,2,-16,-26,-20,-47,-70,-36,-6,195
-26,-15,-25,-34,-76,-37,-46,-4,32,366
-74,37,59,-6,-78,-21,27,20,25,324
-34,168,143,46,-64,-3,56,37,6,218
-49,207,185,84,-21,37,59,38,18,57
-105,137,163,101,33,86,45,40,78,-150
-34,56,77,76,44,82,26,37,149,-39
87,-13,-6,3,41,50,17,7,78,86
108,-66,-70,-36,113,62,70,-26,-23,27
125,-97,-84,-30,131,80,56,-30,-62,20
144,-112,-87,-31,63,44,-8,-45,-75,43
169,-108,-131,-29,22,15,-54,-51,-45,53
190,-112,-65,-5,31,25,-54,-46,-7,39
183,-139,-38,17,42,47,1,-29,-18,18
103,-178,-70,5,40,35,34,-7,-1,-5
69,-148,-103,-14,12,-10,28,-8,19,45
138,-55,-67,-38,-11,-64,-32,-44,11,143
121,45,-7,-38,-13,-90,-85,-89,-15,132
-8,58,34,-21,1,-81,-88,-86,-16,26
-95,95,60,5,-1,-92,-106,-66,12,-33
-76,107,91,4,-50,-139,-123,-44,58,32
-85,59,62,-30,-104,-178,-127,-10,66,153
-129,47,45,-45,-117,-156,-85,34,84,241
-77,58,30,-40,-124,-110,-31,51,61,335
-61,55,14,-25,-143,-103,-14,43,44,311
-13,47,-14,4,-137,-113,-24,42,47,196
80,51,26,14,-136,-128,-50,44,49,122
89,46,34,8,-111,-73,-53,32,14,85
125,16,-79,-44,-111,-26,-60,-7,-3,161
130,-25,-59,-85,-79,-10,-75,-43,-18,256
65,-76,-68,-103,3,-25,-97,-56,-51,243
-12,-88,-66,-91,32,-56,-74,-41,-55,-5
25,-67,-40,-48,7,-47,-43,-25,-78,-167
104,-34,-22,-20,-3,-14,-13,-20,-86,-167
130,-34,-18,-1,18,10,-5,-20,-92,-231
114,-38,1,15,48,26,14,-17,-98,-283
132,8,35,24,58,39,50,2,-69,-149
181,31,32,-2,42,28,39,11,-2,261
217,8,0,-32,12,-10,40,36,70,582
235,24,23,-18,6,-44,53,61,105,526
166,72,86,34,30,-37,40,62,62,74
-113,109,133,102,110,52,85,30,-13,-554
-410,61,120,150,170,131,184,9,-90,-896
-399,-10,49,108,140,105,205,7,-71,-693
-260,-26,-52,58,89,67,138,11,-29,-427
-151,9,-4,41,56,49,88,30,13,-252
-60,12,5,19,10,5,62,59,97,-10
5,-13,-26,-13,-12,-11,68,79,144,173
23,-15,-34,-48,-18,-22,49,32,106,193
27,24,12,-27,4,-35,-23,-52,43,135
-16,46,58,27,44,-28,-80,-76,5,19
-56,-12,33,28,42,9,-41,-46,-29,-65
-100,-83,-21,18,20,45,53,-16,-88,-153
-41,-89,-19,6,-17,19,44,2,-93,-175
156,-59,11,1,-67,-21,-12,-7,-92,-66
303,-42,13,2,-116,-49,-30,-20,-98,23
446,-34,-28,-40,-196,-90,-34,-47,-69,120
638,-19,-55,-98,-293,-157,-72,-90,-51,223
607,-49,-94,-136,-296,-131,-110,-156,-87,187
336,-66,-119,-126,-200,-22,-135,-200,-94,232
201,12,-59,-56,-89,26,-145,-167,-18,561
137,93,35,16,32,55,-71,-116,113,761
50,97,24,27,74,71,-56,-112,198,664
18,83,-9,-32,46,-36,-138,-172,95,574
-4,77,-30,-95,62,-123,-140,-167,84,429
-61,53,-41,-105,46,-108,-73,-72,44,70
-323,6,-25,-31,8,-43,-9,203,10,-498
-586,-41,12,47,33,28,28,333,-11,-724
-725,-57,40,102,85,120,115,250,-77,-797
-749,-29,73,142,155,215,201,220,-90,-975
-612,-43,48,106,170,199,136,192,-69,-761
-386,-71,-10,57,160,141,35,86,-86,-423
-190,-39,-7,50,172,99,36,14,-56,-297
-149,-36,5,53,136,110,62,-24,-49,-287
-207,-68,15,53,120,180,121,17,-28,-306
-191,-40,8,39,95,196,115,83,81,-253
-81,40,-23,56,73,148,95,117,109,-141
-21,98,27,75,47,72,184,86,94,-86
50,127,112,72,-9,-40,120,18,85,-15
158,115,100,65,-65,-117,-27,-47,87,107
166,61,57,33,-134,-141,-89,-74,52,176
94,-14,30,-26,-222,-189,-126,-66,44,180
81,-24,0,-66,-234,-188,-195,-63,40,171
44,-61,-46,-68,-189,-115,-169,-58,21,169
30,-85,-39,-51,-129,-73,-103,-39,-16,188
20,-61,-18,-36,-7,-40,-83,-1,-22,216
52,-50,-32,-60,60,-5,-77,8,2,306
160,-17,-38,-66,126,10,-93,-26,-23,376
230,6,-52,-74,190,-35,-119,-82,-49,316
260,-17,-120,-103,130,-93,-127,-79,-33,138
153,-53,-154,-107,30,-82,-89,-62,-70,-122
-38,-70,-77,-67,17,-30,-30,-43,-96,-231
-124,-24,-8,-14,23,36,14,7,-38,-33
-110,23,45,33,58,82,59,32,-5,117
-9,49,64,42,58,87,92,37,9,61
106,48,35,3,24,55,87,30,38,24
148,44,30,-8,1,30,62,17,43,-17
162,49,23,1,-15,22,52,-8,-10,-113
138,25,21,14,-10,45,55,-34,-30,-174
69,41,64,27,-2,86,30,-45,16,-86
-43,44,71,39,13,113,11,-25,4,-57
-157,45,75,37,30,107,7,-14,-19,-76
-156,47,68,35,11,74,-6,-47,3,-16
9,62,47,22,-47,12,-34,-64,32,93
247,99,-10,-6,-127,-75,-4,6,112,280
461,87,-66,-92,-256,-185,12,82,222,593
530,76,-80,-137,-331,-246,19,84,255,854
441,91,-60,-131,-328,-259,5,52,246,960
223,61,-54,-122,-304,-222,-57,19,217,824
1,-21,-86,-118,-226,-127,-77,-11,182,609
-75,-86,-123,-112,-87,-11,-65,-57,100,299
-342,-115,-64,-23,107,113,-21,-87,-97,-381
-505,-82,42,105,277,200,56,-44,-253,-887
-377,-50,103,177,291,216,77,-35,-283,-811
-264,-48,81,145,185,183,74,-34,-215,-557
-193,-20,74,98,72,115,45,-24,-138,-432
-106,-12,46,38,20,78,0,-32,-126,-299
46,-11,-5,1,19,69,-24,-39,-151,-209
-35,-12,14,25,58,68,-16,-34,-197,-314
-170,-38,25,33,81,63,20,-31,-179,-305
-77,-60,-20,6,62,18,5,-19,-70,46
-36,-95,-36,-6,44,-5,-35,0,30,361
-141,-85,-12,23,60,23,-24,27,87,267
23,-32,31,36,60,11,-2,28,116,100
439,52,60,40,25,-39,-31,-19,113,200
717,88,76,29,-11,-84,-60,-63,35,227
680,43,42,-9,-54,-105,-45,-56,9,135
513,-31,-33,-58,-89,-106,-11,-22,17,81
274,-44,-64,-67,-83,-103,-19,-37,-18,-43
-147,0,-46,-43,-51,-72,-24,-47,-52,-241
-665,22,-23,3,-3,-32,-18,-3,-36,-516
-930,30,58,58,43,0,-7,11,-33,-776
-741,5,71,58,48,5,-6,38,9,-644
-514,5,68,51,48,38,29,87,120,-279
-457,25,64,64,85,83,93,105,135,-91
-356,59,80,84,91,73,107,72,80,0
-224,67,42,57,54,6,87,21,44,40
-115,41,-105,21,20,-22,105,11,11,36
-32,42,-127,10,11,-13,98,1,-22,0
13,65,-3,12,24,12,36,-39,-46,13
115,45,24,-2,19,54,-19,-45,-33,86
90,-2,3,-13,33,83,-12,-39,-24,71
6,-10,22,-15,31,45,-38,-71,-37,41
-8,-5,35,1,0,-22,-60,-106,-66,47
-13,-64,-69,-17,-10,-18,-5,-85,-100,-5
40,-45,-105,-22,-24,-9,1,-32,-67,42
53,20,28,16,-3,20,-63,58,-24,121
-9,-5,55,28,39,61,-70,123,-19,103
118,19,42,-3,2,17,-76,73,22,215
250,13,12,-29,-44,-41,-90,33,30,321
247,-64,-44,-44,-59,-28,-51,53,55,313
238,-64,-117,-40,-67,-28,-45,62,70,225
236,11,-98,-31,-77,-49,-59,35,77,113
143,70,-13,-20,-48,-22,-10,29,90,-79
123,106,0,-3,-24,-24,-10,8,56,-137
240,161,19,-9,-62,-69,6,-6,19,0
237,128,7,-29,-122,-77,79,-8,-9,33
6,21,6,-1,-105,-9,141,15,-38,-113
-66,-85,-46,-22,-99,20,136,59,-12,-52
28,-106,-85,-41,-117,-1,79,65,31,-2
26,-75,-102,5,-111,-13,53,35,50,70
76,-45,-25,39,-83,1,18,-25,36,410
175,-9,62,41,-21,43,-35,-89,-12,584
196,-3,60,14,72,53,-83,-115,-55,526
218,-22,20,-36,135,-16,-117,-113,-30,447
189,-21,9,-59,87,-77,-122,-102,-14,245
-71,-19,47,-17,43,9,-48,-59,-16,-222
-427,-58,21,59,68,100,27,8,-18,-692
-501,-107,-43,52,52,87,52,33,2,-689
-353,-120,-2,31,29,66,44,-32,-21,-431
-231,-78,10,65,42,73,70,-79,-110,-333
-35,-47,19,41,43,57,84,-55,-147,-194
44,-61,-39,2,56,29,51,-2,-82,17
43,-76,-126,-9,35,-3,-19,36,-12,178
85,-28,-35,-14,7,-38,-64,34,18,217
21,20,21,-10,-13,-66,-79,27,18,25
-33,4,14,-19,-73,-80,-55,84,17,-172
41,10,-9,-31,-130,-92,-48,61,-8,-167
133,20,-16,-19,-128,-85,-57,23,-38,-92
144,46,43,3,-43,-33,-41,20,-14,-6
171,46,50,6,63,-32,-25,26,-26,258
202,78,-3,3,58,-65,5,38,-7,399
105,88,6,24,-28,-52,19,78,46,99
48,67,23,6,-109,-58,11,79,56,-56
96,80,-24,-11,-137,-64,4,62,47,-27
177,52,27,-22,-118,0,21,52,30,25
189,-14,-30,-31,-27,92,71,49,15,19
140,-25,-39,-26,105,132,126,52,29,17
183,0,-28,-36,166,93,89,3,10,92
281,35,-6,-33,139,23,15,-51,-8,155
272,33,47,-21,66,-12,-27,-52,-4,171
131,16,63,-26,2,-42,-65,-61,18,100
-43,-7,48,-21,4,-24,-96,-109,25,-111
-132,-34,34,5,24,35,-97,-142,14,-326
-118,-35,13,5,31,65,-98,-150,24,-177
-224,-45,0,-22,14,34,-78,-195,34,78
-409,-77,-20,-28,7,3,-81,-190,48,257
-360,-105,-93,-16,10,0,-93,-130,59,447
-152,-108,-46,-27,14,9,-72,-45,75,541
-2,-123,-49,-72,-14,46,19,96,71,521
62,-111,-69,-98,-49,58,161,267,1,287
146,-23,-15,-53,-34,27,187,238,-102,-51
29,12,3,30,26,32,115,116,-181,-398
-229,3,-1,121,110,70,120,102,-158,-744
-359,3,111,161,133,80,141,113,-93,-772
-123,5,138,131,77,29,93,83,-93,-465
163,20,98,51,18,-52,7,53,-35,-99
283,82,93,23,-7,-91,-51,14,-28,20
258,120,97,38,-12,-65,-41,-12,-51,16
172,65,51,30,-20,-34,-14,-4,-11,-63
146,51,42,6,-49,-20,12,40,56,-170
80,69,79,23,-45,-25,42,52,32,-279
12,91,117,48,-43,-51,56,22,-11,-312
43,127,129,49,-67,-59,29,14,-18,-290
65,100,121,46,-76,-26,27,16,-28,-270
151,73,77,20,-99,-17,24,24,24,28
183,68,20,-32,-131,-8,2,8,67,320
22,63,21,-30,-129,-6,-9,0,63,205
-263,29,39,27,-40,55,29,7,52,-81
-492,-44,22,44,66,141,65,-19,35,-215
-571,-105,-42,12,113,160,48,-77,-10,-231
-469,-104,-54,12,118,146,-20,-114,-20,-190
-349,-79,-34,37,108,104,-34,-102,-8,-99
-191,-71,-34,25,30,6,7,-74,12,60
-23,-50,-29,11,-20,-18,80,-7,49,215
40,-74,-62,-35,-47,-7,110,126,58,330
120,-89,-106,-84,-59,-29,85,156,51,416
167,-33,-50,-65,-29,-65,-5,100,72,358
155,29,10,-10,69,-55,-101,44,86,135
164,58,55,28,168,-28,-121,8,11,-86
102,57,67,46,187,-37,-92,-11,-38,-106
-8,3,11,1,104,-22,-21,-17,-46,-150
-115,-41,-21,-24,47,27,60,-3,-50,-163
-228,-46,-19,8,58,52,71,9,-56,-93
-194,-66,-128,-14,26,-1,0,1,-37,-103
-29,-69,-115,-69,-23,-54,-58,-12,-10,-72
137,-27,-51,-80,-53,-77,-43,-3,-24,39
276,26,-33,-53,-53,-92,-9,-5,-42,238
345,48,-92,-23,-48,-80,2,-7,-51,317
157,13,-9,9,6,-7,24,1,-53,41
-35,6,53,56,59,59,34,-2,-22,-116
-143,-4,11,55,67,63,42,-23,-9,-64
-204,-24,-52,35,49,61,24,-47,-19,-106
-151,-12,5,10,14,42,-8,-45,-18,-81
-41,11,-1,-18,-37,5,-56,-2,44,46
61,38,-50,-22,-66,-23,-84,30,107,151
187,69,-99,-30,-81,-42,-99,22,111,223
244,70,-28,-34,-78,-42,-88,36,145,261
168,64,-44,-25,-49,-44,-80,29,140,162
136,61,-51,-10,-23,-45,-73,8,133,133
317,34,-6,-42,-41,-61,-61,11,180,285
435,-32,-27,-72,-61,-77,-73,-23,134,389
409,-23,-35,-81,-108,-102,-97,-71,87,502
318,-26,-79,-99,-145,-112,-106,-76,109,712
149,-72,-71,-119,-118,-73,-91,-35,160,839
-128,-77,-68,-83,10,-24,-57,21,132,415
-453,-49,23,10,179,36,-7,50,27,-270
-508,-16,86,92,212,75,30,24,-83,-511
-358,-1,115,120,172,105,61,3,-171,-505
-271,-6,118,116,129,111,84,-1,-211,-519
-323,-12,120,119,118,114,85,-6,-247,-657
-406,-25,118,106,104,113,98,7,-240,-754
-275,8,109,78,55,88,86,15,-185,-648
-83,45,100,43,15,66,56,15,-140,-414
-35,36,74,37,11,91,54,-3,-112,-303
-94,-3,34,32,33,123,95,-24,-108,-287
-81,-29,-43,13,37,107,92,-32,-88,-158
30,-12,-136,-2,2,46,60,-41,-45,2
137,23,-142,-13,-18,1,10,-64,-13,96
214,35,-125,-33,-9,-6,-7,-57,15,136
206,12,-41,-47,-8,-17,27,-5,56,161
271,53,14,-45,-35,-39,48,37,120,253
370,115,-18,-43,-58,-57,47,63,174,347
304,103,-25,-39,-55,-63,41,78,170,290
259,76,12,-52,-28,-78,14,45,162,273
242,72,-4,-40,-15,-97,-9,-26,131,258
184,29,-33,-17,-22,-90,-38,-98,74,203
237,-44,-52,-22,-66,-80,-71,-93,40,260
251,-50,-16,-9,-92,-81,-114,-54,9,307
210,-28,7,6,-68,-77,-107,-34,-15,185
229,-15,13,-3,-28,-47,-75,-27,0,80
293,2,14,-15,-19,-39,-96,-53,4,118
251,0,6,-23,-35,-90,-117,-56,4,189
-25,-36,-15,-39,-54,-117,-109,-19,64,147
-434,-93,-69,-25,-32,-65,-41,43,74,-137
-465,-75,4,14,28,20,13,63,8,-271
-277,-5,22,40,60,50,5,32,-55,-104
-217,61,47,63,47,23,-24,13,-75,27
-229,121,110,66,26,-3,-35,-7,-76,52
-206,170,125,50,9,-15,-29,-18,-37,45
-202,97,79,31,7,30,29,-19,-34,-195
-187,13,-25,20,4,86,67,0,-32,-337
-89,26,-48,47,29,80,42,7,-19,-265
-75,20,11,68,52,70,2,-30,-21,-178
0,10,38,44,5,22,-88,-58,-21,-71
28,29,-14,48,-53,-8,-114,-24,-30,6
-15,-29,2,40,-99,-17,-84,-1,-31,133
-97,-134,-13,-25,-173,-47,-37,0,-8,239
-142,-119,-16,-51,-236,-90,26,62,38,162
-138,-20,40,-15,-245,-108,76,174,81,-172
-130,14,92,21,-189,-13,155,238,46,-340
-16,-7,53,21,-53,91,166,149,-1,-218
49,-38,-2,-25,169,78,76,39,-36,-120
-15,-34,-10,-40,326,0,5,0,-25,-170
-100,-55,-28,-8,300,-27,-13,-1,-29,-154
-30,-44,-35,5,171,-7,-15,-16,-3,87
28,-16,-30,11,112,46,29,-13,21,208
80,-18,-6,7,97,86,47,-10,57,213
198,5,-7,-23,47,61,60,-9,91,157
158,-7,-8,-44,14,5,49,-43,-1,-153
-119,-67,-26,-15,42,32,49,-36,-81,-590
-170,-92,-51,-22,41,41,44,-29,-73,-534
-9,-65,-19,-25,21,28,-17,-53,-91,-235
45,-26,20,18,36,35,-53,-64,-146,-89
41,1,38,32,45,34,-12,-26,-126,-10
35,-9,-20,-3,34,45,76,35,-54,89
-126,-28,-10,-3,57,82,140,75,2,105
-169,15,55,22,61,72,158,75,25,135
83,62,55,1,9,-12,74,12,10,212
310,54,15,-34,-37,-60,2,-26,8,304
376,19,-53,-53,-67,-65,1,-26,28,375
302,2,-53,-42,-62,-57,77,-27,15,335
109,-20,-47,-31,-51,-28,87,-17,-7,218
-111,-24,-56,-6,-13,1,33,18,0,50
-243,14,6,28,24,8,-47,31,13,-27
-346,71,50,61,54,5,-76,25,-7,-131
-241,105,33,69,58,-23,-97,7,-8,-152
-137,98,59,73,43,-34,-113,-45,-16,-143
-99,62,81,81,14,-53,-121,-96,-21,-140
-88,-4,60,67,1,-66,-103,-106,-20,-120
-46,-14,39,43,-4,-66,-100,-101,-23,-63
-42,-7,-44,12,-29,-74,-75,-47,37,74
9,-5,-122,-34,-57,-71,-9,34,141,212
96,51,-18,-38,-52,-57,10,85,155,246
120,108,47,-22,-23,-42,-10,53,114,216
76,87,31,-2,0,-22,-40,-1,94,216
89,15,-34,-21,-10,-31,-64,-22,79,269
187,-7,-17,-19,-19,-31,-73,-23,65,325
189,-6,9,1,7,8,-76,-38,-2,288
132,-22,5,5,18,46,-110,-87,-30,178
181,0,4,-1,2,40,-159,-120,5,289
193,9,19,1,-8,2,-153,-146,-6,336
96,-25,12,0,-7,6,-66,-151,-45,52
27,-44,2,-7,-9,-3,22,-132,-95,-277
17,-41,9,-17,-1,-9,89,-69,-107,-382
-101,-53,0,-34,0,24,178,25,-92,-404
-212,-86,-21,-42,-15,-9,162,108,-49,-335
-241,-132,-48,-55,-40,-46,118,214,-25,-358
-180,-113,-65,-61,-49,-38,147,199,-19,-348
-51,-37,-10,-57,-40,-38,142,119,6,-182
57,43,34,-23,-19,-1,99,76,19,-107
97,97,76,14,-29,16,69,66,62,18
93,98,17,6,-47,13,54,65,104,197
179,42,-31,-12,-31,43,57,61,94,379
473,60,6,0,-17,39,-3,21,88,670
759,155,57,6,-32,-6,-51,-20,40,692
724,196,136,24,-55,-10,-17,-39,-10,487
611,174,85,-9,-133,-37,-4,-56,-18,402
484,156,28,-54,-213,-89,-20,-65,40,432
193,152,55,-26,-243,-93,-17,-71,44,77
-138,107,80,25,-226,-53,27,-72,-9,-462
-278,-13,55,28,-148,60,86,-64,-16,-544
-326,-149,1,21,-2,165,106,-75,-32,-437
-335,-189,-42,5,198,122,26,-163,-117,-461
-458,-176,-54,8,428,69,-52,-173,-187,-724
-512,-166,-54,-2,435,40,-64,-39,-162,-753
-479,-141,-57,-28,290,14,-82,107,-92,-522
-515,-106,-81,-28,168,37,-60,131,-45,-337
-437,-80,-98,-31,61,53,-34,92,15,-149
-258,-70,-73,-56,-19,26,-32,93,94,157
-74,-36,-41,-40,-30,-22,-51,100,120,339
29,21,11,4,13,-10,-22,87,77,314
-20,9,26,30,50,29,38,73,22,178
-90,-42,12,34,46,27,65,81,25,-1
-128,-30,36,56,32,6,79,109,12,-152
-116,45,101,97,37,-3,58,76,-66,-306
-135,65,108,108,70,35,17,33,-111,-354
-195,36,80,90,67,64,13,23,-76,-318
-72,25,52,49,27,29,-29,-20,-40,-95
102,26,19,10,9,4,-103,-84,-48,10
257,26,-13,-24,-12,-7,-113,-118,-43,103
338,30,-22,-44,-67,-61,-137,-147,-59,204
284,-26,-53,-64,-93,-101,-209,-185,-119,213
47,-97,-61,-43,-76,-48,-191,-151,-92,70
-201,-70,-10,2,-21,18,-67,-68,-10,-90
-367,-42,24,49,18,52,83,23,71,-101
-367,-81,-19,20,-14,16,189,106,105,-86
-327,-100,-61,-24,-66,-48,138,84,86,-100
-243,-26,-81,7,-40,-41,139,40,78,-81
-76,35,-76,34,-13,-18,186,16,66,59
170,40,-22,1,-54,-43,176,2,103,357
334,24,-15,-50,-107,-79,130,31,148,525
319,68,-18,-32,-59,-42,117,75,213,453
252,108,41,22,-5,-3,94,74,181,376
78,70,81,53,8,13,74,50,-20,156
-89,7,38,26,-16,26,87,60,-72,12
-160,-53,3,-11,-31,38,108,24,-93,-110
-266,-56,27,21,-4,82,69,-15,-150,-479
-251,-15,61,49,-2,79,39,-8,-147,-439
-74,-19,35,41,-46,2,42,-3,-102,-104
34,-35,-4,32,-45,-7,42,4,-71,-6
130,1,-98,23,-36,2,17,12,-14,26
146,36,-57,19,-35,-16,-42,28,19,66
153,35,21,0,-32,-8,-35,15,8,88
173,56,60,4,-17,11,-21,-22,-6,64
162,80,85,15,6,30,-33,-34,-21,30
75,77,74,25,64,31,-62,-37,-27,-15
53,59,39,5,90,-28,-103,-39,-26,2
136,49,24,-12,62,-56,-122,-63,-35,68
195,27,-2,-18,17,-10,-98,-82,-39,198
211,18,-23,-30,-27,18,-73,-74,-19,343
244,27,-51,-65,-92,-1,-68,-47,23,433
290,36,-88,-93,-123,-18,-47,1,149,561
344,31,-94,-112,-137,-48,-46,6,181,599
323,26,-87,-114,-151,-109,-70,-32,120,408
159,-13,-100,-110,-162,-151,-63,-30,100,-13
-7,-65,-76,-77,-121,-108,-33,1,48,-472
-201,-65,1,11,-45,-41,15,22,-20,-678
-323,-47,34,52,-48,-13,39,44,-2,-494
-300,3,59,81,-32,44,82,68,49,-210
-336,26,94,109,65,127,109,70,-36,-178
-294,-13,75,90,166,126,44,40,-87,-172
-181,-98,2,34,230,87,-20,12,-82,-150
-149,-130,-18,5,198,50,-40,-6,-81,-174
-170,-72,9,22,138,58,7,-22,-65,-315
-194,4,16,35,89,65,26,23,102,-292
-180,-14,-102,-6,26,36,22,55,142,-70
-83,-55,-119,-32,-19,-10,25,43,50,68
22,-45,-47,-47,-42,-26,18,13,8,104
93,7,-25,-48,-36,-62,1,-5,-29,133
57,4,-15,-40,-52,-72,19,-15,-28,127
-48,-8,-33,-34,-66,-46,2,-25,7,141
-57,0,-47,-57,-82,-46,-18,4,92,216
65,89,-45,-68,-113,-89,-53,20,153,291
196,148,-83,-49,-136,-146,-118,-24,87,225
300,132,-11,-21,-138,-141,-145,-34,39,-1
429,114,29,3,-101,-71,-114,-66,3,-175
576,81,-10,-8,-16,-28,-99,-164,-69,-115
619,14,-39,-17,60,-46,-109,-209,-164,48
749,-7,-45,-46,5,-86,-94,-193,-137,362
719,-11,-44,-48,-35,-65,-62,-155,-93,373
401,3,-15,-17,-13,-1,16,-85,-76,230
-128,-60,12,25,48,69,131,18,-96,-11
-448,-119,11,41,91,84,134,75,-107,-269
-530,-128,5,51,127,104,92,133,-69,-417
-584,-159,-18,72,158,135,52,140,-58,-303
-639,-148,-95,83,104,109,17,63,-52,-211
-528,-86,-40,53,26,35,-34,2,-73,-198
-264,-35,7,21,5,18,-52,-25,-68,-86
-98,-46,8,12,1,27,-48,-23,-29,-82
-61,-76,4,-14,4,13,-20,11,-8,-153
81,-46,4,-40,-13,-37,1,42,31,-2
55,-56,-6,-42,-18,-42,57,84,74,-7
-152,-66,-17,-22,-36,-18,48,129,61,-159
-217,29,21,-1,-61,-5,4,100,102,-106
-249,150,44,22,-55,0,9,92,205,-62
-364,159,14,61,-31,15,42,111,264,-227
-290,142,87,89,-15,16,43,88,223,-195
-126,174,136,108,22,54,23,41,184,-153
-38,152,100,96,71,132,7,-16,186,-113
21,120,67,53,93,109,-25,-55,200,-15
21,92,37,38,133,48,-54,-85,176,38
43,40,-69,-13,98,21,-30,-57,209,187
34,5,-75,-57,13,25,22,-4,213,319
5,-10,-35,-54,-5,15,8,-6,45,354
116,-5,-28,-64,-32,-37,-43,-11,-84,352
106,-44,-69,-65,-58,-72,-65,60,-149,170
-33,-131,-56,-38,-35,-46,-31,89,-208,-29
-113,-141,-28,6,6,14,61,64,-228,-215
-94,-109,5,17,14,19,90,69,-189,-285
29,-61,30,15,4,-6,53,51,-158,-140
18,0,75,55,21,-17,2,6,-152,-68
36,45,113,69,31,-24,-22,-13,-134,-8
188,32,85,32,16,-16,-52,-45,-110,282
352,21,45,-9,-18,-39,-109,-85,-96,495
484,33,20,-50,-63,-73,-117,-68,-66,433
