-2,14,11,16,41,20,-18,20,25,37
-8,7,13,17,35,25,-6,13,-25,28
14,1,-12,10,30,32,-8,10,-37,35
42,-1,-59,14,33,29,-15,15,-20,36
64,18,13,19,26,25,-5,13,10,28
81,28,0,3,14,11,-5,3,-5,29
93,32,-101,0,-2,-11,-4,3,-4,26
67,4,-44,-17,-17,-19,20,6,5,7
-16,-25,-8,-34,-18,-20,46,13,18,-20
-76,-12,-103,-23,-31,-21,36,8,25,-37
-53,-17,-76,-26,-37,-17,32,13,28,-33
-9,-19,9,-19,-27,-13,26,8,0,-38
14,-7,30,-9,-24,-11,10,4,-17,-37
17,-12,36,4,-14,-4,-1,5,-25,-43
49,4,44,39,48,13,5,43,-69,0
42,11,25,39,50,22,8,52,-41,7
10,1,-56,31,51,18,2,36,-60,-9
11,-2,-13,13,43,13,-5,28,-67,-29
4,-3,44,11,39,8,7,23,-51,-30
-11,-26,38,10,22,-6,28,11,-31,-34
-9,-24,9,12,3,-18,8,0,3,-35
-4,1,8,3,-17,-31,-15,0,39,-34
-25,-19,-2,-5,-29,-28,-5,-10,22,-44
-46,-9,2,-11,-22,-15,18,-20,15,-48
-41,-7,9,0,-8,-12,37,-18,1,-33
-24,-28,6,3,16,-6,37,-10,-6,-11
17,-6,18,13,26,-2,2,1,-12,22
41,13,36,43,35,12,-9,6,19,40
8,-22,35,42,35,17,-2,5,-32,17
11,-23,30,36,31,21,10,15,-50,-1
17,-15,43,34,38,22,2,12,-61,5
15,-28,24,22,37,26,-12,8,-61,10
20,-41,3,20,32,24,-20,7,-61,4
51,-10,25,23,13,12,-37,-11,-55,-19
74,44,35,12,-7,-3,-43,-20,-43,-29
38,57,22,-4,-9,4,-42,-6,-39,-21
12,50,3,-17,-13,-2,-19,0,-25,-24
0,25,-5,-25,-20,-20,5,-5,-4,-33
-26,2,-6,-50,-20,-22,-25,-6,3,-34
-47,-18,-12,-62,-34,-25,-42,-2,16,-40
-58,-29,-2,-37,-27,-12,-20,-2,26,-47
-66,-21,-6,-7,-14,-10,-7,-5,27,-42
-48,4,-15,0,-6,-33,-4,-5,21,-17
1,21,-50,13,2,-36,17,8,23,18
50,57,8,15,-3,-5,15,29,50,49
45,47,19,7,0,2,33,23,9,41
34,45,24,26,18,5,73,18,-24,25
22,53,31,33,14,19,79,16,-56,0
30,32,16,28,10,26,62,21,-38,11
51,14,-87,13,-12,20,55,17,-19,36
58,7,-100,12,-20,5,52,11,-25,46
38,11,-2,-5,-30,-11,36,2,-26,36
29,2,-19,-16,-33,-16,29,5,-27,11
42,-3,24,-25,-34,-7,24,6,-27,-8
39,5,-41,-37,-47,-13,13,0,-16,-5
7,5,-82,-41,-52,-36,0,-11,-2,-15
-25,-7,9,-41,-50,-45,2,-8,2,-32
-43,-8,27,-41,-39,-40,18,0,5,-28
-9,23,34,-30,-17,-17,14,21,85,6
2,12,19,-11,-4,-6,9,10,15,4
-6,-4,22,-8,7,-3,5,-4,-52,-6
11,-16,28,-14,13,-1,6,-5,-52,13
21,-25,34,-24,24,11,2,-2,-64,31
23,6,35,-14,30,20,-1,5,-61,51
45,42,21,6,36,33,-9,13,1,61
19,-15,8,-11,28,31,-30,5,-53,39
4,-40,-5,-15,21,19,-44,7,-89,38
10,-35,7,-16,8,6,-45,2,-80,31
-16,-34,17,-8,6,1,-57,0,-67,6
-11,-32,11,-7,7,-3,-52,-2,-48,3
-7,-40,-4,-15,-14,-6,-59,-16,-39,-3
-32,-39,-7,-29,-41,-22,-60,-38,-29,-13
-75,-50,-27,-34,-45,-27,-46,-48,-24,-24
-64,-29,-14,-20,-38,-18,-42,-35,-17,-23
-29,-32,-30,-16,-18,-21,-39,-18,-14,-14
-14,-28,-32,-10,-3,-13,-41,-5,-20,-10
8,20,1,4,4,5,-32,0,-44,-2
31,28,-9,18,17,16,-20,0,-52,-3
42,45,1,6,32,19,-25,-2,-46,-2
47,39,0,13,40,22,-38,-3,-57,6
46,26,0,26,44,29,-27,1,-50,19
22,13,-63,17,42,15,4,1,-51,29
23,6,-21,11,37,4,21,-12,-52,16
20,11,20,10,25,6,32,-19,-42,7
-36,23,4,16,15,-5,22,-16,-15,14
-41,5,-3,5,17,-9,17,-17,0,2
-15,-10,-20,-19,24,4,13,-19,31,-5
-44,-24,-25,-40,-19,3,7,-24,12,-8
-71,-37,-26,-61,-40,-9,-1,-30,15,-41
-85,-24,-73,-63,-35,-31,1,-38,17,-57
-41,4,-129,-52,-35,-23,1,-44,-2,-50
7,-13,-103,-43,-26,-23,3,-29,5,-44
23,-8,-43,-37,-8,-16,24,-17,36,-33
16,3,24,-20,4,-12,29,-8,4,-15
12,7,41,2,13,-8,26,-11,-15,19
29,-11,39,10,6,-5,25,-14,-36,31
28,-10,42,15,12,6,31,-4,-33,27
-7,-18,51,23,28,14,26,-1,-27,31
-3,-20,49,33,31,11,20,3,-27,37
3,-9,36,45,19,5,17,7,13,37
-25,-26,-24,40,11,5,27,8,6,5
-32,-18,-45,29,8,3,28,-4,-7,-37
-26,-39,16,17,-2,-9,5,-25,-9,-52
-21,-31,15,10,-6,-4,0,-24,-7,-56
-29,-25,21,-7,-17,-3,-13,-30,11,-54
-32,-22,-1,-25,-37,-21,-33,-28,25,-61
-52,-31,13,-23,-51,-22,-42,-19,29,-67
-58,-22,-26,-16,-38,-16,-39,-14,13,-54
-40,-26,-25,-11,-19,-7,-32,-17,7,-34
7,5,4,-5,-20,-4,-34,-9,15,-3
44,24,26,9,-10,2,-29,-3,10,19
34,28,30,29,-4,24,-31,-1,17,30
31,25,20,35,1,41,-21,1,18,34
58,26,29,32,11,37,-6,12,17,50
91,15,10,30,17,32,-8,17,5,56
107,-10,-2,24,12,24,-2,14,-4,38
84,-11,10,25,7,15,-4,17,-9,37
38,-16,33,23,7,16,-13,20,-5,32
31,-5,32,18,-2,13,-6,20,18,21
26,19,15,16,-22,24,-3,34,80,28
-9,-5,2,-6,-38,8,-14,17,38,0
-17,10,-25,-21,-47,-2,-9,21,67,-10
-4,61,-11,-10,-41,-21,-10,29,144,-1
-46,35,11,-6,-38,-21,-16,10,60,-32
-38,19,-1,0,-40,-8,-12,10,43,-14
-20,8,10,1,-44,5,-3,6,1,6
8,30,6,7,-24,12,-3,5,-24,15
19,34,13,16,-4,1,-6,8,-29,16
22,21,26,25,5,15,5,9,-16,21
12,10,28,35,7,35,12,9,-23,21
6,24,3,30,21,30,32,20,-34,25
1,22,11,35,34,26,64,15,-26,57
21,12,7,35,32,27,69,5,-12,29
28,12,-7,26,20,21,58,14,-3,2
22,21,-8,5,14,10,47,6,-5,3
2,1,6,8,21,2,42,8,-10,-3
-20,-23,-14,10,7,0,39,8,1,-11
-11,-21,-9,1,-3,-8,44,2,33,-10
-3,-13,-25,-7,-15,-17,12,1,42,-9
-32,-16,-17,-9,-21,-22,0,-2,40,-38
-51,-2,-7,-5,-28,-20,-3,-8,24,-51
-40,3,-16,0,-22,0,7,-2,15,-41
-16,2,8,3,-6,16,25,3,20,-37
0,-2,10,14,9,27,42,0,23,-19
6,-2,9,24,15,22,72,4,20,8
16,-17,-9,35,25,29,73,23,24,20
33,-10,8,52,28,43,55,22,15,22
43,1,-1,34,25,38,26,9,21,11
67,-3,-2,5,26,26,1,12,69,16
70,0,-15,-8,23,19,-8,0,48,8
52,-1,-13,-9,12,4,-17,-9,37,11
26,-17,-15,-5,1,-16,-8,-5,50,27
12,-21,-80,-3,0,-36,-4,-5,64,31
-23,-15,-117,-9,-10,-47,-4,-11,72,2
-59,-12,-86,-14,-17,-37,17,-12,54,-12
-57,-20,-29,-27,-31,-29,37,-6,34,-25
-45,-29,-2,-33,-34,-20,25,6,30,-31
-62,-42,0,-27,-25,-24,1,14,13,-29
-55,-57,9,-13,-14,-15,-21,5,-2,-18
-25,-57,23,3,-2,0,0,1,-11,-7
-6,-37,14,18,14,13,39,9,-2,13
14,-23,34,45,23,25,44,16,-17,24
10,-23,23,44,18,25,34,23,-24,32
20,-4,45,51,30,26,33,26,-25,32
28,1,47,51,33,23,26,20,-38,32
23,-5,48,37,32,19,17,15,-46,32
9,-26,38,17,18,11,11,10,-35,15
3,-23,23,10,5,14,-4,11,-10,2
7,-25,15,4,-2,8,-18,6,-17,8
1,-21,1,-10,-13,-10,-43,-6,-34,17
2,-25,1,-26,-16,-25,-84,-8,-24,26
-12,-33,-27,-31,-19,-22,-65,-8,-15,9
-46,-30,-20,-23,-17,-31,-40,-19,-7,-5
-57,-31,-2,-15,-12,-44,-33,-25,-17,-21
-55,-45,-7,5,-22,-39,-33,-19,-29,-24
-58,-30,12,18,-20,-18,-32,-20,-42,-8
-47,-5,4,24,-9,3,-29,-22,-56,-15
-23,15,28,38,4,0,-14,-17,-61,0
23,47,31,40,5,4,-8,-1,-32,41
56,35,-1,42,-2,3,0,4,-48,49
86,12,8,34,12,23,5,10,-75,32
71,1,25,31,20,39,5,9,-74,48
16,-16,12,39,34,33,-2,4,-75,38
-3,-7,13,30,48,28,-23,9,-57,18
-9,-17,-68,16,14,-1,-34,9,-50,0
-12,-19,-173,-12,2,-12,-38,12,-48,-24
-15,-30,-134,-18,-2,-10,-21,12,-42,-31
0,-19,-98,-28,-14,-9,-16,11,21,-33
-1,-45,-35,-42,-31,-21,-17,14,50,-39
-12,-48,-75,-48,-22,-20,-48,6,21,-38
-6,-20,-56,-40,-10,-21,-66,5,6,-25
3,-8,35,-24,-11,-21,-79,-4,-14,-48
17,-3,46,-12,4,-15,-84,0,-22,-44
59,-11,40,-14,21,-10,-73,14,-22,-11
79,-15,-34,-2,25,-3,-79,20,-29,8
73,4,-15,17,24,10,-65,19,-22,21
56,13,67,22,20,5,-56,18,-18,29
18,29,81,28,23,11,-53,13,-24,24
17,38,63,27,24,16,-54,11,-16,10
-31,24,43,11,21,17,-50,-1,-27,4
-60,29,19,-13,19,14,-57,-6,-16,-8
-53,16,29,-22,10,9,-54,-2,16,-7
-66,-4,74,-36,-6,5,-13,6,26,-18
-94,-13,52,-43,-18,-9,12,-8,7,-36
-97,-16,38,-54,-24,-17,0,-12,15,-42
-64,-9,22,-63,-22,-29,-11,4,57,-19
-2,34,29,-37,-24,-37,-8,21,162,15
-5,7,13,-33,-37,-36,0,8,89,-6
-29,-9,18,-22,-31,-13,-2,2,-6,-30
4,-14,27,-8,-14,3,-7,9,-21,-13
25,-16,39,-8,-15,14,-25,17,-21,4
16,-7,31,-5,-8,26,-30,24,-27,14
22,10,24,-4,-5,30,-32,29,-30,8
29,21,-2,8,5,38,-13,33,-41,-8
26,13,-59,13,6,34,1,34,-48,-11
31,7,3,8,13,28,-11,32,-44,-14
8,-20,22,6,18,19,-17,26,-45,-22
11,-29,26,5,6,9,-20,17,-30,-12
22,-35,27,-2,-5,-6,-9,10,-7,-6
22,-38,30,-6,-10,-5,1,8,0,1
40,-24,26,-17,-9,-1,19,-2,12,-12
61,-44,-4,-33,-32,-16,35,2,30,-24
51,-61,-42,-39,-37,-28,52,5,47,-22
12,-36,-113,-26,-32,-10,47,-5,32,-41
0,-18,-126,-8,-27,0,29,-6,24,-36
20,29,-43,9,-16,6,12,10,89,6
22,25,27,7,-1,9,9,-5,64,12
18,-3,45,10,14,20,-6,-11,8,6
12,-6,37,21,23,26,1,-11,-12,10
14,-13,32,21,16,24,7,-17,-14,22
9,-16,36,16,14,17,11,-20,-29,18
-8,-13,-4,19,15,16,8,-10,-44,9
0,-4,-21,12,24,12,0,-8,-45,-6
5,7,-14,0,30,5,-9,-6,-38,-14
9,24,-91,-12,24,-12,-9,-11,-29,-30
0,32,-120,-28,14,-11,-14,-13,-27,-37
-19,19,-28,-45,0,-18,-22,-19,-16,-35
-26,4,25,-61,-19,-36,-18,-29,7,-28
-35,8,0,-47,-21,-41,-15,-22,22,-10
-42,17,-50,-37,-11,-26,-14,-15,37,7
-48,23,-137,-30,-12,-27,-3,-16,12,25
-36,9,-54,-34,-2,-20,38,-14,-12,27
1,34,-22,-22,25,-6,65,-4,3,36
2,45,24,-7,39,-3,70,6,-8,26
21,38,96,7,33,-10,68,11,-26,17
26,18,94,21,34,-5,69,11,-20,19
18,9,84,31,43,12,72,14,-21,4
1,-3,64,17,47,25,62,11,-33,-23
-9,-17,52,19,42,20,64,0,-25,-25
0,-16,50,22,39,22,46,1,-29,-23
6,-5,42,16,33,17,13,7,-16,-30
-21,0,33,1,17,5,-5,10,6,-37
-22,8,18,-12,1,3,-9,9,50,-25
-13,43,-10,-19,-14,-7,-18,8,88,-12
-49,44,-57,-30,-27,-21,-15,-5,91,-39
-73,12,-29,-49,-52,-34,-24,-16,30,-63
-42,26,11,-59,-54,-27,-23,-11,3,-51
-24,19,-13,-49,-35,-15,10,-6,-9,-33
-9,-9,-123,-37,-25,-6,17,6,-5,-16
1,-18,-163,-11,-11,6,20,11,-13,13
-6,0,-132,3,8,7,16,14,-20,24
0,6,-76,20,24,12,-6,14,-17,22
5,13,30,38,25,12,-11,3,-18,44
22,12,66,38,20,16,-2,0,-20,53
38,-8,58,28,16,27,-10,-13,-35,47
28,-14,45,24,19,30,-3,-15,-26,31
9,-13,-11,24,14,31,16,-18,-1,36
15,-16,-102,3,-2,18,36,-17,30,49
6,-20,-34,-10,-12,0,36,-18,60,30
-35,11,45,-10,-20,-14,27,-21,47,-8
-81,0,44,-20,-32,-8,2,-21,28,-19
-74,3,32,-31,-48,-3,-2,-19,48,-8
-62,0,49,-30,-46,0,3,-21,44,-3
-53,10,48,-24,-38,11,5,-23,23,-14
-27,23,28,-21,-34,5,8,-16,22,-11
11,36,37,-7,-20,13,25,-2,64,11
9,36,42,7,10,30,43,-2,50,19
-2,24,42,14,28,41,48,10,26,10
20,23,56,23,31,42,36,15,23,13
32,46,83,29,33,39,10,8,10,40
29,43,99,27,43,28,-14,14,4,44
15,26,96,30,38,19,3,1,9,45
1,14,81,18,20,7,13,-7,9,35
-11,33,59,7,0,3,7,-14,20,36
-3,11,57,10,-8,-1,-22,-14,20,24
-7,-5,43,-6,-15,-11,-41,-26,27,16
23,20,27,-17,-21,-9,-35,-20,86,31
66,22,4,-39,-26,-8,-10,-6,109,17
63,-20,-15,-66,-25,-19,-9,-16,44,-35
70,-9,-24,-55,-29,-18,-11,-14,43,-51
70,-6,-44,-34,-25,-13,-29,-14,20,-31
42,-8,-25,-29,-16,1,-18,-7,25,-22
7,-3,-69,-12,0,11,3,-6,11,-15
-1,-5,-95,-1,19,12,19,-9,-27,-16
3,-3,26,9,41,16,23,-4,-30,-7
1,6,33,24,40,16,6,-2,-36,15
0,22,26,29,39,15,6,-1,-51,30
-1,20,44,31,36,28,14,9,-54,32
-13,20,-36,42,23,24,29,7,-53,22
-23,19,-119,44,16,11,30,7,-52,22
-19,2,-33,26,14,3,25,6,-27,13
-20,-4,39,14,11,-7,17,6,-22,13
-32,10,46,6,14,-20,3,-6,-33,4
-48,8,38,-7,2,-24,-1,-15,-10,-16
-62,0,17,-29,-22,-29,-21,-17,9,-17
-38,6,6,-45,-43,-45,-58,-19,10,-8
-34,5,3,-46,-32,-48,-73,-41,0,0
-43,6,14,-34,-23,-37,-71,-48,-24,-18
-37,4,18,-26,-19,-21,-71,-27,-34,-21
-2,-3,30,-15,-9,-5,-48,-9,-12,1
28,3,59,10,8,-1,-13,-3,0,25
35,-9,72,25,8,3,7,0,-50,24
29,-17,62,36,13,19,1,1,-58,15
15,14,56,48,18,5,-3,4,-66,-5
15,13,37,44,23,-2,3,1,-65,-10
31,-13,19,35,32,2,5,10,-49,-14
28,-5,0,31,17,-8,-6,17,-43,1
3,-14,-5,16,-12,-5,-42,17,-21,3
-8,-24,-13,4,-29,-17,-40,8,-10,-1
8,-25,-27,-4,-34,-19,-12,15,-9,2
2,-25,-47,-31,-31,-22,0,16,-3,-8
-5,15,-26,-46,-34,-38,-16,15,23,-1
33,85,-11,-42,-32,-35,-47,32,131,15
0,44,-22,-58,-20,-27,-63,16,57,-10
-42,-4,-22,-35,-9,-17,-44,4,-22,-32
-16,24,2,-2,4,9,-29,8,-34,-12
2,49,12,9,4,13,-31,8,-51,16
14,53,22,23,10,10,-10,0,-45,36
12,24,32,31,18,10,17,5,-38,38
6,19,26,29,21,20,15,5,-49,26
27,33,23,19,23,25,20,10,-63,13
13,42,17,16,11,20,20,6,-67,22
-4,34,0,14,2,17,14,3,-52,32
0,14,-12,8,-3,14,14,19,-24,42
12,16,-8,-11,-18,-4,15,29,35,44
13,0,-13,-14,-10,-16,0,18,18,35
25,-1,-23,2,-17,-18,-21,8,27,24
9,-14,-29,-6,-23,-28,-33,-3,33,-1
-14,-14,-45,-22,-33,-38,-38,-7,20,-46
-41,0,-38,-7,-24,-40,-41,-25,-3,-91
-42,-12,-31,12,-6,-33,-11,-27,-17,-96
-53,-12,-35,9,-2,-27,-5,-21,-36,-80
-34,-7,-11,14,-5,-12,-37,-22,-48,-49
33,25,10,28,3,-7,-26,-17,-49,-22
60,57,13,15,17,-9,-24,-19,-31,0
49,66,9,4,16,-12,-9,-2,-14,11
60,64,-4,-1,0,-10,2,10,3,31
69,62,-10,12,6,3,-2,9,-3,43
74,85,-10,19,6,7,-6,10,-24,38
88,90,0,0,3,2,-16,11,-23,41
75,82,0,-15,0,-7,-22,6,2,73
53,64,-4,-18,-2,-9,-13,-1,13,61
36,46,-1,-21,-9,-18,0,2,38,8
5,22,-71,-22,-24,-20,-1,0,37,-43
-28,15,-57,-22,-28,-19,-11,-18,40,-82
-31,33,-27,-13,-27,-27,17,-19,87,-69
9,42,-37,-3,-40,-35,42,-8,115,-53
11,23,-16,5,-24,-28,33,-21,64,-40
16,11,-6,20,-13,-18,9,-28,8,-12
36,7,4,28,8,-3,12,-12,-12,1
44,19,5,32,26,7,18,-7,-10,0
39,13,17,20,23,5,13,-14,-21,12
32,-4,19,9,33,15,13,-7,-24,29
12,0,-21,14,37,18,27,-5,-33,31
13,-2,-97,20,45,16,27,-12,-15,29
39,-17,-6,19,39,12,25,-6,16,32
45,-35,27,24,30,-4,10,-17,7,24
11,-41,21,32,16,-17,13,-29,5,5
-4,-37,3,28,-1,-18,28,-36,10,-3
-20,-31,-2,9,-2,-12,19,-29,29,12
-53,-27,-17,-21,-9,-17,0,-26,48,0
-79,-17,-10,-42,-14,-32,-6,-23,53,-20
-54,0,-47,-39,0,-45,-3,-22,53,-6
-37,3,-94,-21,-11,-30,8,-15,43,-2
-30,0,-37,-19,-7,-15,32,-4,39,0
-32,-16,-7,-28,6,-8,62,3,51,0
-33,-16,-40,1,16,-4,76,16,53,11
-21,2,-27,11,30,2,78,24,30,23
0,11,10,22,30,8,44,18,18,38
3,9,23,19,25,20,4,21,25,42
-15,11,18,27,29,14,6,23,31,41
-9,44,-33,41,24,9,13,34,85,43
36,86,-123,46,25,17,20,47,166,45
19,32,-136,22,23,15,19,22,84,11
16,-8,-124,-10,6,4,11,6,6,-22
28,2,-10,-7,8,-8,35,12,10,-24
0,6,3,5,-19,-19,43,0,33,-15
-37,10,-16,-1,-38,-25,33,-4,46,-13
-32,39,8,-3,-32,-27,7,-6,80,-15
-2,72,22,11,-21,-31,-15,2,141,-12
-9,44,18,8,-25,-28,-5,3,100,-15
-17,19,38,5,-13,-14,-10,-11,51,-10
-22,-13,48,-1,6,-5,-5,-15,-9,-11
-13,-4,55,15,15,-7,11,-9,-19,-4
-5,5,61,38,21,16,12,7,-18,4
-6,-1,54,46,33,22,15,12,-26,7
7,1,43,55,35,23,2,8,-32,3
7,-4,43,55,28,16,-7,1,-57,4
4,-20,34,29,26,-1,-24,11,-52,0
7,-30,26,9,17,-2,-25,15,-17,0
-12,-30,13,2,14,4,-30,6,-31,-17
-58,-28,16,-18,-4,-6,-27,5,-43,-22
-44,-45,7,-30,-22,-34,-23,0,-31,-37
0,-78,-2,-45,-28,-41,-31,5,-18,-32
9,-88,-32,-51,-42,-40,-40,7,-22,-22
12,-88,-24,-52,-54,-45,-26,20,-3,-24
-5,-80,-23,-48,-42,-27,8,23,-9,-15
-9,-58,-68,-29,-27,-8,24,12,-24,-22
15,-34,-22,-21,-22,-18,30,10,-27,-8
22,-10,21,-9,-7,-11,27,20,-27,8
27,1,27,4,10,6,28,15,-25,-10
23,-20,35,20,15,15,37,13,-23,-1
51,-15,31,19,20,22,39,22,-9,5
60,9,34,20,19,15,37,9,-36,3
51,19,45,7,16,12,27,-7,-59,16
47,17,36,-14,6,24,12,-20,-45,11
46,4,35,-19,5,29,-21,-17,-27,7
37,-2,33,-26,-4,27,-30,-14,-24,7
13,-2,26,-36,-23,15,-33,-13,-6,-16
8,-7,22,-41,-35,-1,-30,-13,2,-45
-11,-6,13,-55,-42,-1,-30,-14,8,-55
-26,-17,-6,-62,-41,-9,-39,-22,4,-48
-33,-14,-9,-68,-33,-22,-36,-20,11,-44
-50,5,-21,-69,-28,-6,-23,-11,21,-14
-59,9,-101,-49,-33,5,-21,-4,7,-3
-44,13,-56,-17,-32,8,-14,1,-11,6
-30,13,15,-8,-11,7,1,0,-33,22
-21,11,32,10,5,10,23,3,-49,5
-14,29,32,24,17,18,32,8,-56,2
11,47,32,34,32,26,30,32,0,18
16,24,-45,37,36,35,40,35,-6,25
18,-8,-140,13,25,26,19,15,-55,13
40,-11,-78,7,1,13,8,3,-47,32
13,-34,15,-6,-9,-2,16,15,-23,40
-29,-58,5,-10,-4,-6,4,24,-25,9
-50,-53,-3,-16,-2,1,-18,15,-26,-12
-51,-40,11,-19,-19,1,-23,18,-14,-12
-45,-5,7,-22,-34,2,-34,7,19,-4
-54,-8,29,-32,-36,-7,-42,-11,3,-24
-56,-17,28,-25,-40,-1,-28,-6,-11,-14
-45,-17,14,-21,-26,7,9,-12,-13,-17
-38,-1,5,-12,-7,10,11,-18,-17,-21
-41,-1,3,2,11,8,0,0,-17,-16
-31,-14,12,4,20,7,9,-1,-20,0
-2,4,31,10,32,9,2,4,-24,17
21,12,33,22,39,13,-15,21,-36,28
7,11,31,39,38,16,-6,9,-52,13
-7,0,18,35,29,28,7,15,-64,8
-7,-14,5,28,24,34,21,27,-45,15
14,3,30,26,18,29,31,29,-32,25
1,25,42,23,7,5,22,18,-34,15
-2,13,39,16,0,-11,24,0,-22,-1
-21,-5,17,2,-2,-24,15,-6,-11,-27
-52,-27,-3,-21,-14,-41,12,-10,-7,-46
-69,-6,-9,-28,-17,-46,8,-9,17,-51
-58,12,-19,-37,-24,-51,5,-11,14,-38
-11,0,-22,-39,-42,-36,-10,-17,7,-8
1,-29,-48,-32,-29,-26,-36,-18,12,19
-3,-30,-23,-31,-12,-30,-32,-20,13,42
7,-20,-25,-29,13,-9,-33,-17,-11,62
35,-7,-21,-15,29,-3,-36,-18,-4,84
35,11,11,0,28,-24,-21,-16,-17,76
30,11,13,7,22,-14,7,-13,-19,62
34,13,8,18,19,9,24,-6,7,49
23,-23,0,25,12,10,6,-20,-35,0
11,-15,10,25,11,5,-12,-9,-26,-22
4,-19,15,26,6,-1,-11,7,4,-22
-9,-44,-3,3,10,-12,-30,3,-18,-32
-32,-38,-7,6,0,-25,-20,-2,-16,-31
-57,-49,-20,-2,-19,-35,-1,3,-5,-25
-67,-48,-27,-8,-36,-40,-13,-1,13,-30
-72,-51,-24,-4,-35,-50,-8,-7,35,-45
-59,-51,-85,7,-34,-33,-1,-10,38,-42
-42,-45,-91,6,-26,-22,5,-14,33,-21
-16,-27,0,18,-21,-16,17,-11,21,-11
8,-49,22,24,-20,-10,29,-9,10,11
23,-72,24,25,9,14,42,-1,7,27
38,-60,28,31,28,29,41,5,-3,36
57,-25,35,48,30,23,33,5,-16,47
82,1,54,47,27,20,27,1,-16,43
86,29,43,42,24,27,2,4,-17,34
90,24,31,39,16,24,-15,0,5,15
90,17,31,41,12,15,-9,10,9,0
50,26,14,23,-6,-2,1,17,0,-2
3,3,-8,0,-30,-5,0,20,2,-15
-15,-16,-9,-3,-32,-7,-3,24,6,-30
-36,-15,-27,-7,-28,-4,-6,23,16,-55
-60,-35,-40,-16,-33,-5,-1,28,24,-66
-50,-52,-31,-25,-39,-8,-14,9,32,-52
-35,-46,-61,-24,-29,-6,-26,4,44,-31
-33,-33,-56,-14,-23,0,-7,2,33,-15
-36,-14,-7,0,-5,11,-19,-14,25,-13
-8,0,9,13,20,14,-3,-22,26,-13
2,-10,10,0,28,20,30,-7,27,2
-1,-28,7,5,31,24,35,-1,34,31
20,35,23,40,43,27,26,18,121,56
8,24,33,22,29,24,18,4,44,54
40,33,36,15,9,19,12,0,4,65
62,54,28,13,1,11,0,-6,-2,61
53,47,29,-11,6,-4,-25,-10,-20,38
44,49,18,-10,3,-14,-28,-14,-22,9
38,36,11,-3,2,-9,-2,-13,-12,-3
37,16,-28,-2,-8,0,-3,-16,1,-10
23,8,-5,3,-11,-10,1,-21,10,-31
-17,19,3,6,-14,-22,-1,-18,17,-45
-39,14,3,14,-10,-9,-16,-33,26,-32
-45,9,-13,20,-24,-7,-38,-26,28,-22
-38,-9,-19,5,-23,-7,-22,-4,23,-5
-17,-27,-25,9,-17,2,-12,5,20,3
-19,10,2,18,-4,18,-14,-7,-7,5
-40,15,12,29,7,26,1,-13,-26,10
-5,10,21,31,19,34,38,0,-28,28
20,20,22,27,15,37,34,8,-23,29
7,39,7,25,11,40,23,9,-21,22
-4,23,-69,31,17,30,8,6,-17,28
0,9,-20,31,20,22,2,3,4,37
-6,14,17,25,16,5,-5,0,24,28
-26,4,8,29,7,-2,1,0,41,16
-33,-2,-29,29,-2,0,6,0,84,29
-60,-31,-82,14,-8,-1,6,-3,84,4
-74,-68,-51,-19,-17,-8,-1,1,77,-28
-65,-72,-24,-41,-30,-19,-9,-8,66,-46
-62,-47,-9,-45,-38,-33,-17,-9,66,-39
-36,-20,-6,-50,-31,-40,-11,3,77,-14
-4,-11,6,-42,-22,-25,1,16,70,3
12,0,11,-15,-9,-4,10,8,44,12
22,31,37,6,10,17,6,14,10,26
32,28,39,17,14,24,4,13,-8,28
21,9,30,20,0,2,2,8,9,19
11,20,20,19,0,10,11,27,9,11
0,6,18,15,8,27,15,24,0,12
19,-10,13,14,-10,15,46,19,12,20
19,5,4,8,-24,5,55,20,30,19
12,-4,-2,-1,-23,-5,60,12,21,-1
16,-9,-36,0,-21,-17,31,0,7,-11
16,-17,-43,-2,-32,-15,-7,-5,12,-7
-5,-34,-2,-12,-43,-15,-31,0,21,-21
-47,-54,-19,-22,-54,-23,-54,-1,-3,-40
-67,-57,-40,-20,-52,-13,-61,-7,-24,-53
-52,-49,-17,-14,-42,3,-61,-21,-27,-38
-33,-47,-9,-14,-24,-6,-62,-25,-48,-6
-30,-42,-2,-7,-10,-8,-45,-4,-25,16
-15,-43,-34,11,16,7,-42,9,2,18
20,-43,-8,20,27,22,-35,10,-38,10
50,-41,-5,16,26,25,-18,7,-55,0
49,-31,-115,18,36,27,-2,4,-58,-11
28,-26,-150,20,45,24,24,-3,-55,-26
9,-15,-13,25,44,16,21,-8,-58,-30
33,9,43,5,40,12,25,-9,-45,-25
43,19,33,-23,36,12,22,-9,-37,-20
19,14,22,-25,11,-1,2,-24,-32,-26
3,29,15,-26,-9,-10,-30,-23,-28,-35
1,32,18,-31,-8,-17,-19,-24,2,-41
3,31,-29,-40,-23,-30,5,-30,48,-43
24,69,-56,-44,-38,-10,8,-14,138,-11
16,32,6,-43,-40,-12,14,-17,101,8
-7,-13,-8,-42,-35,-31,4,-23,15,4
-14,2,-89,-27,-20,-19,-2,-21,-9,9
17,18,-150,-9,-4,11,4,1,-24,19
45,18,-103,4,9,24,16,8,-62,34
50,0,8,18,28,28,17,10,-69,48
50,-12,27,22,41,24,13,17,-46,50
69,35,7,36,52,29,-15,32,0,47
117,79,57,49,44,24,-24,54,83,59
125,99,53,54,44,16,-18,69,150,54
107,92,35,54,38,25,-23,58,150,35
103,80,78,50,22,29,-19,45,154,36
79,83,82,32,8,11,-27,38,152,23
33,80,29,23,6,-13,-15,16,122,-23
16,51,-1,16,0,-27,2,1,75,-47
-25,-15,-33,-16,-28,-51,-3,-27,-43,-69
-67,-34,3,-36,-38,-41,-34,-32,-108,-67
-74,-53,15,-35,-27,-37,-55,-34,-116,-58
-96,-61,36,-24,-14,-26,-44,-34,-114,-61
-76,-43,29,-15,-3,-10,-28,-22,-82,-52
-43,-10,46,0,7,0,-25,-9,-77,-45
-48,-20,55,-2,13,2,-5,0,-98,-54
-42,-30,65,1,24,12,22,1,-97,-47
-45,-42,66,14,37,9,53,0,-102,-41
-33,-20,59,21,53,33,52,0,-104,-29
-30,-9,46,7,48,34,42,9,-105,-17
-25,-29,52,0,34,32,44,10,-90,-15
-10,-3,52,-7,25,29,43,5,-43,7
10,-5,36,-11,13,26,32,10,4,13
-13,-26,24,-20,3,20,16,0,-18,2
-13,-33,-6,-11,-6,7,5,1,-15,-3
-16,-21,41,-22,-21,-2,-7,-14,14,-18
-39,-7,58,-25,-37,-4,-31,-27,11,-28
-16,29,57,-10,-39,-2,-21,-3,99,-19
8,58,48,4,-30,5,-6,22,157,12
26,74,58,14,-19,18,-16,36,188,38
47,81,54,30,-15,30,-45,36,212,68
34,85,-15,48,0,49,-41,41,218,76
21,83,-11,51,15,60,-32,34,150,56
39,75,-12,42,26,61,-24,40,99,55
55,55,-77,40,14,48,-23,28,54,51
27,-10,-10,11,7,30,-13,16,-90,23
30,-30,40,-4,3,27,-6,7,-115,0
9,-28,14,-11,0,13,-25,-8,-124,-17
-4,-41,28,-22,0,4,-29,-17,-120,-26
-22,-45,37,-24,-12,-2,-32,-25,-110,-30
-46,-49,29,-30,-15,0,-31,-19,-81,-38
-72,-68,17,-48,0,0,-23,-5,-49,-44
-76,-59,3,-66,-18,-18,-32,0,-32,-34
-71,-34,-19,-45,-29,-35,-29,0,18,-11
-91,-60,-30,-44,-28,-29,-29,-20,2,-15
-77,-73,0,-51,-19,-24,-10,-22,-7,3
-52,-56,12,-50,-5,-12,0,-8,-17,30
-9,-40,28,-31,19,10,20,-2,-27,-18
9,-26,45,-6,40,36,19,7,-12,-31
16,-23,31,-5,40,47,9,1,-14,-20
13,0,44,2,33,40,5,-9,-36,-7
0,18,62,9,34,38,0,-16,-29,-4
3,-5,53,5,35,25,7,-17,-13,0
24,-7,38,12,24,9,5,-21,1,6
11,-15,31,4,13,14,2,-15,2,-14
2,-13,32,1,12,2,0,-11,26,-4
39,47,34,11,7,-6,-3,11,146,48
70,109,30,21,8,-9,-12,12,242,77
52,123,8,-4,-8,-30,-27,10,217,58
4,63,-11,-31,-27,-38,-32,-2,120,16
11,26,-90,-36,-37,-27,-21,0,130,1
45,47,-183,-32,-36,-21,-19,3,186,23
32,40,-194,-46,-25,-26,-23,2,151,27
-7,9,-179,-50,-7,-3,-12,-3,67,-15
-54,-45,-92,-33,4,4,-11,-21,-96,-63
-67,-45,19,-16,9,0,-12,-20,-132,-46
-53,-45,32,-15,10,-1,-5,-8,-134,-22
-32,-40,16,-10,21,9,24,-18,-129,-21
-17,-39,-2,7,9,8,31,-24,-114,-1
-6,-31,26,26,9,-4,8,-27,-116,9
-4,-36,35,18,5,-2,-7,-21,-95,1
-19,-31,28,3,-7,-4,-2,-2,-69,-22
-34,-34,25,-1,-26,-7,-5,-1,-57,-31
-42,-45,11,-18,-38,-5,-9,-1,-39,-33
-35,-32,5,-34,-41,-7,-13,-9,-31,-41
-38,-12,5,-39,-45,-18,-17,-13,-21,-38
-52,-5,-3,-45,-41,-25,22,-16,-11,-49
-58,0,-74,-35,-26,-33,45,-11,-13,-40
-25,5,-71,-17,-12,-43,40,4,30,-16
35,68,0,13,0,-22,35,17,158,20
62,92,22,32,6,8,40,38,198,36
72,96,32,51,27,22,32,66,196,62
75,83,39,58,41,28,5,70,147,71
96,66,49,45,40,25,-6,55,105,65
95,48,59,46,32,24,-7,33,50,57
57,4,53,47,34,17,6,1,-60,38
15,-32,43,38,23,10,27,-12,-145,4
2,-30,26,28,5,3,23,-5,-146,8
-10,-34,18,8,-10,-15,12,-18,-129,3
-9,-14,7,0,-11,-28,0,-17,-100,7
22,62,7,4,-6,-18,-32,2,0,1
25,34,-1,-18,-21,-18,-38,-6,-33,-27
-6,-10,-10,-38,-46,-25,-37,-28,-70,-54
-27,-4,-15,-39,-47,-49,-18,-31,-58,-63
-36,-17,-62,-28,-29,-46,0,-14,-56,-57
-36,0,-51,-23,-18,-25,11,-4,-22,-39
-48,14,-61,-10,-10,-18,17,-15,-46,-43
-80,-1,-70,9,5,2,20,-15,-69,-36
-79,3,-15,21,30,7,31,-11,-80,-20
-66,5,-49,37,41,9,39,-15,-81,-1
-54,12,6,47,48,16,38,0,-71,14
-25,14,29,43,46,20,41,16,-50,9
-11,13,32,27,39,29,27,16,-23,14
-17,29,33,14,41,34,57,21,14,17
-9,41,-6,6,32,17,63,5,27,15
1,24,-19,-5,15,8,29,-14,10,1
-4,-11,1,-35,2,3,17,-23,-8,-15
-23,-24,2,-36,6,2,22,-20,-2,-25
-43,-25,-9,-40,5,-10,8,-19,7,-19
-52,-43,-11,-47,-13,-21,-3,-21,11,-17
-66,-40,-23,-47,-24,-9,15,-26,20,-19
-35,-39,-95,-43,-32,-1,39,-31,35,-11
-20,-32,-65,-25,-18,0,45,-37,38,-5
-36,-43,22,-15,-4,9,39,-13,27,3
-25,-34,28,3,23,16,32,9,12,-21
13,-23,40,25,33,19,32,2,-13,-39
35,-1,15,28,26,16,41,0,-14,-13
32,0,4,28,32,11,62,-4,-33,18
56,-8,70,23,35,-5,56,-6,-56,46
73,23,75,25,24,-5,25,-5,-55,57
79,31,57,22,11,5,0,-5,-41,52
65,4,42,17,-2,6,-29,-10,-37,31
37,4,34,16,-8,5,-4,-5,-46,8
30,15,26,5,-12,1,29,4,-45,6
0,5,0,10,-20,-4,-7,-13,-35,-4
-6,15,-50,10,-36,-5,-38,-16,46,-18
30,66,-11,6,-28,-9,-41,19,180,8
54,80,-89,4,-18,-7,-39,25,172,8
59,79,-129,10,-10,-5,-32,26,139,4
61,46,-35,12,-10,-7,-27,12,75,23
80,26,32,11,3,5,-28,4,65,49
93,45,33,36,28,15,-23,22,117,89
61,35,7,60,34,29,-19,31,118,75
46,15,29,62,37,37,6,18,73,59
45,3,60,50,41,29,38,31,14,38
7,-35,59,47,39,31,41,21,-100,0
-14,-65,51,26,27,27,10,1,-170,-32
-30,-57,29,11,20,22,-30,1,-152,-50
-42,-74,-17,-5,14,21,-31,1,-123,-38
-64,-73,-60,-22,6,4,-43,-18,-133,-22
-82,-76,-55,-25,-1,-14,-50,-25,-120,-33
-90,-73,-33,-29,-7,-25,-52,-25,-106,-40
-84,-61,-79,-45,-17,-29,-53,-30,-90,-47
-66,-51,-88,-61,-33,-36,-35,-34,-94,-52
-33,-41,-59,-58,-48,-53,6,-28,-91,-41
-1,-32,-130,-43,-33,-45,1,-19,-75,-22
-1,1,-43,-21,-16,-29,-11,-15,-77,-12
-7,16,28,-10,1,-11,6,-23,-92,-13
-17,11,28,1,26,-2,36,0,-90,-8
-15,14,20,8,27,12,37,13,-88,15
-2,-8,36,0,21,12,30,13,-88,17
10,-27,48,8,20,12,4,4,-75,24
16,-24,42,10,22,8,-15,2,-41,43
29,10,32,19,24,6,-13,19,34,62
-2,-4,17,4,11,2,-14,11,-6,36
-37,-41,14,-2,-4,2,-22,0,-58,16
-39,-41,9,-7,-11,7,-33,8,-46,19
-40,-33,-11,-23,-34,3,-44,0,-19,16
-19,-23,-17,-37,-49,-7,-46,3,4,2
-12,-44,-15,-33,-52,-21,-49,-4,-16,-22
-21,-53,-29,-32,-53,-16,-45,-16,-29,-52
-40,-41,-1,-20,-49,-10,-21,-29,-33,-59
-12,0,26,6,-54,-11,-28,-23,-57,-38
32,25,54,32,-35,1,-34,-8,-41,-7
46,22,50,37,-4,27,-16,20,15,1
29,2,26,23,9,36,-8,5,-29,-21
2,-17,-15,16,0,27,-22,2,-69,-27
17,-2,2,20,1,23,-30,-7,-73,-8
24,8,38,19,13,23,-23,-12,-44,13
57,63,39,22,24,16,-11,-5,60,46
94,100,38,32,25,15,0,16,114,55
116,114,35,26,13,1,-4,26,164,61
112,131,30,24,0,-17,6,27,232,56
58,82,14,15,-21,-27,11,9,157,40
4,-13,-4,-19,-42,-26,-4,-18,14,1
-17,-34,-16,-30,-45,-37,-46,-14,9,0
-39,-3,0,-22,-39,-50,-61,-12,85,12
-19,51,16,18,-25,-43,-34,6,189,34
-2,63,7,27,-29,-29,-16,11,204,34
11,73,9,36,-19,-11,-12,10,209,25
-7,45,1,51,9,-5,5,10,168,36
-12,-12,6,33,11,-4,40,4,70,21
-18,-44,-1,22,19,1,18,4,6,14
-32,-80,-1,16,32,8,-1,-4,-80,13
-16,-91,-18,-1,27,14,-4,-6,-127,4
2,-71,-60,-5,11,10,-7,0,-119,27
21,-47,-34,12,-1,10,-15,-4,-78,39
-1,-47,0,8,0,6,-12,-2,-93,20
-19,-41,-14,-3,1,8,-12,-5,-67,9
-18,-38,-12,-10,-8,0,-35,-19,-74,0
-17,-38,-14,-7,-5,-2,-31,-26,-74,-7
-18,-29,-66,-18,-14,-13,-19,-15,-49,-18
-44,-14,-67,-36,-32,-13,-11,-17,-30,-52
-56,-1,-20,-42,-44,-16,0,-11,-28,-60
-73,-9,-17,-34,-52,-23,-22,-8,-32,-36
-59,-3,-17,-31,-48,-14,-18,-6,-22,-1
-33,-15,-31,-30,-22,-3,-7,-9,-42,-1
-28,-10,-11,-18,0,-5,22,-13,-58,15
-15,-9,-20,-17,20,-7,52,-8,-43,37
5,8,6,0,30,0,50,7,-42,33
6,-4,23,20,34,1,42,11,-52,32
1,-14,25,26,34,5,22,4,-58,55
9,-15,10,28,17,7,1,10,-54,41
2,-19,-14,17,15,3,-7,15,-40,23
-12,-35,-30,12,9,15,-8,34,-17,30
2,22,-71,24,29,29,-10,36,97,39
5,53,-123,29,29,17,-11,29,160,5
-2,53,-54,25,11,10,-9,38,195,-22
-5,51,-48,9,-6,2,-8,27,197,-32
-2,47,14,-10,-33,-15,0,9,147,-39
19,70,23,-17,-36,-12,29,20,159,-20
15,49,22,-11,-32,-4,33,24,100,-29
-5,8,24,-11,-29,-5,23,-4,17,-55
-17,-8,26,-18,-9,-7,32,-6,-46,-39
-2,-10,28,-26,16,-6,34,-10,-91,-24
12,0,32,-22,33,-6,18,-15,-95,-16
19,-7,10,-9,44,-6,10,-15,-103,3
1,-26,16,1,50,0,3,-17,-116,15
-12,-32,11,5,49,13,16,-8,-108,11
-2,-44,11,3,45,15,45,7,-78,6
-7,-42,-22,8,55,8,48,9,-58,5
-25,-62,-119,1,44,-9,40,8,-52,6
-37,-62,-117,-9,23,-12,27,1,-57,6
-45,-52,-31,1,21,-10,30,-3,-42,0
-45,-39,-45,-1,16,-20,21,-6,-31,-21
-45,-22,-15,-2,-3,-45,18,0,-8,-24
-25,24,0,-15,-18,-42,3,15,82,8
-33,-7,3,-24,-17,-22,-2,8,25,9
-3,10,5,-10,-4,-9,24,27,59,25
17,26,24,-1,2,-6,27,32,67,16
10,-14,30,-4,7,-1,9,14,-43,2
14,13,45,8,17,14,-4,19,-23,17
29,10,39,6,18,23,0,11,-41,23
45,24,39,1,25,18,-4,11,-63,33
57,56,49,-11,32,30,-3,4,-58,54
54,66,36,-9,32,32,-4,4,-31,58
53,57,29,-12,14,17,-2,-6,-41,49
67,43,27,-10,4,15,10,-2,-51,41
30,41,31,-8,-3,3,13,0,-32,24
-5,34,4,0,-19,-6,-9,7,6,5
-16,2,-28,3,-28,-8,-10,-2,9,-27
-24,-14,-65,-21,-25,-8,-10,-11,13,-46
-36,-25,-95,-29,-28,-18,5,-13,30,-41
-30,-25,-26,-22,-38,-19,-2,9,84,-46
16,61,0,11,-33,-6,-14,47,243,-4
54,97,9,35,-27,4,-25,46,280,22
52,70,7,39,-26,8,-15,40,212,31
82,41,-15,45,-12,-4,-22,29,150,34
118,48,-58,50,3,7,-18,22,137,50
68,14,3,44,7,-5,-15,10,36,19
44,30,-19,36,8,1,-7,31,30,24
33,-27,-99,13,0,4,19,30,-52,6
11,-60,-1,5,3,10,39,23,-71,-7
-3,-50,3,-1,0,12,54,19,-68,-3
-11,-47,-33,-9,2,10,48,3,-83,4
-2,-33,4,-8,-8,1,19,-2,-15,1
-29,-48,-4,-17,-13,-13,-20,-25,-36,-26
-43,-51,12,-20,-2,-17,-18,-25,-64,-53
-56,-69,-5,-24,-9,-10,-17,-15,-34,-74
-69,-57,-44,-23,-22,-24,-25,-5,38,-73
-62,-63,-41,-36,-28,-35,-21,-15,4,-77
-47,-79,-20,-32,-25,-22,-2,-28,-39,-64
-45,-65,-19,-16,-13,-19,25,-26,-34,-44
-42,-43,-41,-10,-12,-8,31,-23,-41,-31
-5,-13,-100,3,-5,8,23,-9,-51,-2
20,-10,-102,21,19,20,0,-4,-46,15
36,8,0,37,32,21,-6,-8,-55,16
13,19,45,41,35,21,-16,-8,-71,20
6,39,41,49,30,27,-5,-10,-37,40
21,21,44,49,20,19,-13,-8,-4,47
15,-18,41,28,10,6,-11,-5,-34,36
-4,-21,32,8,4,10,24,2,-30,18
-11,-25,30,6,2,-2,49,-3,-16,-1
-16,-37,13,-8,-8,-15,45,-2,6,-2
-38,-39,1,-17,-25,-12,36,0,42,-3
-55,-45,-29,-33,-19,-18,32,0,53,-27
-64,-46,-36,-38,-20,-26,30,-12,23,-38
-50,-19,-37,-41,-32,-20,27,-13,17,-27
-16,2,0,-32,-35,1,9,-11,23,-21
-19,12,-11,-20,-21,20,-10,-16,16,-5
6,4,-97,-3,6,44,-19,-11,9,6
18,-2,-36,11,18,53,-9,-13,-6,23
14,-5,18,14,22,43,2,-4,-4,30
28,-1,18,18,31,31,4,-4,10,35
13,-15,-34,11,32,43,31,-12,1,38
16,-23,-80,10,23,43,39,-15,-10,30
19,-20,-2,4,8,33,39,-17,-2,26
21,-6,35,-2,7,25,43,-4,25,16
27,0,29,-5,-6,11,35,-5,36,7
10,-29,11,-7,-21,0,22,-14,28,0
-1,-34,18,-7,-33,-3,19,-12,29,-8
-17,-16,0,-17,-29,-16,7,-27,26,-30
-47,-11,-9,-26,-43,-31,5,-30,26,-56
-22,8,7,-11,-49,-36,1,-16,81,-47
42,55,14,3,-30,-22,0,7,162,-25
22,45,2,1,-26,-23,-6,0,88,-42
32,77,8,26,-12,-19,1,15,136,-17
27,76,24,33,11,-8,-5,21,122,8
0,20,-6,0,26,-8,-16,-4,-13,-10
27,36,-54,13,34,7,-12,9,33,1
55,22,-116,15,40,14,-9,24,67,9
25,-35,-17,3,30,3,-12,2,-41,-3
8,-37,44,16,29,7,-6,7,-65,-10
-8,-21,-6,29,25,16,-9,11,-48,-3
-17,-20,22,12,13,2,-13,0,-33,-10
-5,-34,50,-6,-7,-17,-23,-9,-27,-15
-21,-31,37,-12,-8,-31,-24,-16,-10,-13
-34,-8,32,-8,-21,-31,-22,-24,32,-8
-9,47,7,-6,-34,-34,-5,1,153,13
13,62,17,0,-37,-22,19,21,226,12
12,60,9,6,-12,-8,-2,21,198,0
-13,33,-1,-10,-2,-4,-27,8,101,-13
6,58,36,-3,2,0,-19,28,153,20
34,53,25,3,6,2,-5,38,117,42
20,-32,3,-5,11,8,6,6,-59,22
-11,-45,-1,6,22,4,40,-9,-106,-1
-7,-19,-47,18,16,0,50,-9,-73,6
12,-27,-22,35,22,3,24,-2,-53,20
-26,-62,25,33,17,23,0,0,-67,-13
-48,-59,28,23,15,20,4,-2,-80,-32
-34,-49,-20,8,12,4,-2,0,-76,-21
-2,-37,-33,-3,1,-3,-4,-6,-40,-18
5,-19,13,-17,-21,-12,-1,-11,-18,-3
-9,-19,20,-28,-21,-18,3,-6,-20,-9
-36,-28,-9,-37,-31,-20,-9,-16,-31,-10
-28,-16,-25,-44,-35,-22,-26,-22,-15,-10
-33,-10,-11,-55,-38,-30,-18,-28,9,-16
-22,4,-21,-57,-45,-28,-28,-27,19,-18
0,38,-85,-46,-33,-23,-42,-27,5,3
7,54,-103,-42,-17,-21,-28,-21,8,36
3,28,1,-31,-7,-8,21,-8,25,57
2,13,48,-9,13,12,46,1,14,50
24,1,30,11,32,36,41,11,42,42
41,45,-65,30,38,34,41,26,131,39
16,26,-76,17,27,21,42,10,15,14
24,29,33,12,26,24,29,1,-23,10
6,4,48,-5,26,32,18,3,-35,-9
-13,-20,25,-19,15,37,-15,6,-45,-53
-32,-23,39,-20,8,34,-28,4,-33,-65
-49,-26,25,-21,0,29,-32,-11,-21,-73
-54,-2,23,-30,0,17,-33,-9,-9,-68
-64,-6,33,-36,-31,-13,-38,-4,5,-55
-53,-6,17,-40,-49,-26,-48,-20,15,-61
-32,-16,10,-39,-34,-28,-50,-12,4,-67
-33,-17,0,-37,-19,-10,-29,-4,-1,-54
-11,-12,-10,-21,-9,-5,-6,7,-10,-48
44,55,0,13,7,12,16,39,103,0
99,129,0,35,17,34,30,71,233,69
115,114,-76,21,12,36,29,65,218,94
82,4,-31,6,2,24,18,23,51,64
32,-50,37,0,8,11,4,-5,-65,10
2,-31,54,4,14,9,-21,2,-91,-8
21,-30,36,2,18,10,-31,-3,-92,-16
60,-23,43,10,14,2,-24,-16,-114,-17
53,-33,21,1,13,-15,-13,-2,-101,-12
38,-8,14,10,11,-13,-11,24,-15,-6
69,52,10,26,4,-2,-9,38,111,37
30,25,-26,8,-10,-9,-24,14,50,17
-13,3,-19,-9,-20,-26,-54,3,33,-48
-46,-13,-11,-13,-43,-36,-66,-5,-27,-79
-47,-26,-17,-15,-47,-33,-57,-17,-76,-69
-35,-23,-35,-10,-43,-30,-67,-16,-76,-48
-28,-18,-28,1,-29,-18,-51,-7,-60,-54
-49,-14,13,3,-17,-5,-29,8,-58,-60
-52,-12,15,1,-9,13,-22,11,-75,-48
-46,-4,14,1,-4,19,-16,18,-82,-33
-14,12,40,5,9,21,-18,15,-100,-20
9,39,25,17,22,18,-19,3,-107,-7
13,19,26,18,22,15,-14,0,-102,-15
-13,0,-4,15,13,23,-13,0,-91,-13
-28,-15,-33,-7,-1,15,-12,0,-77,-17
-20,-15,-35,-25,-6,9,-16,0,-63,-19
-27,-23,-74,-31,-13,-6,-19,-4,-62,-31
-29,-26,-31,-46,-15,-24,-25,-8,-66,-36
-31,-48,-19,-63,-22,-35,-20,-8,-35,-22
-42,-56,-46,-80,-29,-31,-1,-2,0,-15
-58,-54,-51,-69,-21,-36,27,-2,5,-28
-79,-50,-93,-64,-14,-29,37,7,0,-43
-67,-48,-106,-59,-14,-20,42,18,3,-26
-35,-27,-30,-32,-7,-27,28,12,1,2
-8,3,10,-13,6,-17,-6,10,6,29
8,10,8,-12,5,-4,-3,0,-15,56
25,7,-31,-6,8,8,18,-9,-19,63
32,5,-39,0,22,14,39,-5,-18,58
31,36,44,10,41,12,36,2,-45,46
25,37,54,17,47,9,28,6,-52,37
13,39,58,12,36,-1,24,4,-29,28
21,26,60,7,24,-16,16,11,6,9
10,19,23,4,13,-5,-14,12,19,20
-5,0,15,-14,0,-15,-37,16,9,13
-23,0,6,-22,-5,-22,-41,1,9,10
-41,-2,-32,-38,-23,-26,-22,-27,16,-11
-41,-5,-110,-38,-34,-25,1,-28,8,-23
-45,-27,-61,-42,-37,-22,2,-26,-4,-30
-17,-30,9,-25,-25,-26,6,-9,19,-23
35,52,19,17,-9,-10,7,35,157,19
77,119,47,53,8,4,12,52,235,47
75,126,56,64,18,12,19,47,220,62
45,55,59,49,5,9,11,28,79,29
24,-21,52,45,6,1,30,8,-63,7
29,-29,47,45,19,2,31,0,-81,13
59,2,54,64,20,11,-1,4,-1,30
68,69,42,85,9,24,-23,20,104,50
10,31,40,59,-2,4,-27,1,10,23
13,5,25,39,-7,-6,-21,-12,11,17
-13,-31,22,17,-13,-15,-17,-34,-42,-10
-23,-53,3,2,-34,-3,-12,-34,-40,-27
-28,-32,20,1,-33,-3,-10,-19,-9,-39
-28,-17,25,-10,-29,-35,-5,-22,4,-40
-31,-42,-5,-28,-38,-52,-16,-39,-27,-42
-34,-57,-50,-24,-49,-47,-20,-50,-41,-33
-14,-40,-57,-20,-51,-36,-18,-45,-34,-12
5,-31,11,-20,-27,-8,-8,-10,-34,5
17,-12,0,9,-7,0,-6,-11,-68,14
38,-11,-91,31,13,-1,2,-16,-86,4
83,-3,-65,28,24,9,16,1,-62,10
76,1,42,24,29,28,33,9,-53,23
55,6,63,30,32,29,30,13,-48,39
24,11,50,29,28,28,21,11,-51,30
7,14,40,32,28,31,22,7,-37,25
7,1,-52,28,11,23,29,-7,-28,20
5,0,-125,11,0,3,12,-5,-17,13
-3,40,-48,14,6,14,-2,11,44,22
40,120,-28,22,13,20,-14,33,173,49
49,118,10,21,4,-2,-16,37,204,41
14,93,41,9,-5,-17,-19,15,178,26
-33,59,30,-4,-9,-30,-28,-26,94,9
-13,81,34,4,-9,-20,-30,-18,110,27
-28,37,29,0,-9,-24,-19,-26,25,5
-50,2,31,0,6,-18,6,-24,-53,-19
-27,33,48,30,26,4,29,-6,-27,-1
20,86,41,61,35,18,36,16,35,27
1,28,45,44,40,13,35,7,-63,25
-13,-9,21,26,39,13,31,-7,-107,26
-13,-16,39,11,42,18,36,-11,-114,30
-27,-9,50,4,46,17,28,-22,-137,15
-29,-14,57,20,43,3,-1,-27,-135,7
-17,-17,39,20,39,0,-30,-12,-118,18
9,-14,45,3,14,-7,-45,-4,-98,0
1,-12,41,6,0,-23,-37,-2,-77,-22
-29,7,-6,-3,-11,-31,-18,-8,-9,-26
-62,-53,-78,-34,-21,-36,-11,-21,-37,-58
-55,-63,-60,-29,-32,-39,-32,-22,-35,-61
-2,4,20,-14,-28,-27,-43,4,115,-22
1,-10,13,-8,-16,-22,-39,4,70,-23
14,15,19,16,3,-2,-29,9,87,6
53,69,35,60,29,14,-17,28,160,44
78,72,32,64,36,13,4,42,136,59
35,-1,40,45,28,19,13,23,-8,22
-1,-47,33,43,18,21,8,2,-132,-18
13,-22,18,51,25,20,11,5,-138,-5
27,-8,19,43,24,5,11,2,-129,0
20,5,24,29,16,0,4,-7,-100,11
57,60,33,35,18,4,6,15,30,57
42,11,18,14,-2,0,9,4,-8,28
-22,-25,25,-10,-14,-13,3,-26,-98,-33
-48,-24,21,-17,-28,-24,-1,-30,-88,-46
-31,-31,14,-28,-40,-38,-19,-28,-51,-43
-28,-4,-47,-38,-52,-53,-37,-26,-52,-48
-34,-2,-17,-40,-59,-50,-33,-30,-56,-54
-29,19,21,-35,-50,-42,-19,-28,-17,-39
-28,22,8,-24,-54,-26,3,-25,-9,-19
-23,-15,0,-14,-43,-12,8,-9,-47,-12
-9,-24,12,3,-14,0,1,-10,-72,-19
12,-24,33,9,6,13,9,-12,-93,-8
41,-26,28,10,25,0,29,-4,-75,5
42,-33,16,3,29,-2,29,-3,-68,38
38,-21,11,7,24,9,13,-3,-62,54
41,0,-11,2,21,4,-6,-5,-52,46
42,-5,-41,-11,15,-3,-19,-14,-40,25
36,-1,-43,-15,5,-8,-6,-8,-16,17
26,-2,-24,-23,2,-9,19,-4,5,19
15,-7,-83,-40,0,-22,21,-8,-9,8
-2,-3,-119,-50,-5,-21,23,1,-13,-7
-23,0,-117,-53,-17,-5,27,-3,6,-43
-22,0,-70,-46,-34,-14,18,-16,28,-48
-1,8,-24,-45,-36,-7,16,-14,67,-37
4,31,-44,-50,-35,1,31,-16,65,-26
14,16,-132,-54,-32,0,31,-17,50,-7
29,2,-158,-32,-8,5,56,0,61,9
47,19,-133,-4,19,21,70,9,59,39
62,11,-74,0,38,25,52,-1,5,52
48,-5,37,-3,55,24,42,-6,-21,44
33,-10,44,-8,53,20,42,-3,-19,45
27,-26,56,-5,46,19,40,4,-1,28
0,-25,50,-4,38,18,42,2,32,18
-23,-26,63,-6,23,14,44,-8,22,3
-20,-23,54,-3,12,11,29,-7,7,-25
-8,-24,53,-11,-3,6,9,-5,17,-45
-13,-22,43,-22,-19,6,10,-8,44,-61
-17,-17,50,-30,-30,-20,8,-3,58,-63
-22,-20,25,-32,-40,-50,-6,-6,63,-61
-46,-17,28,-33,-44,-52,-17,-4,66,-72
-21,15,53,-26,-34,-35,-22,13,85,-63
2,48,25,-9,-25,-6,-30,10,104,-33
2,36,-32,-5,-24,1,-29,0,37,-26
10,30,20,0,-16,4,-28,2,-12,-16
19,30,56,7,-7,8,-30,8,-15,-9
21,20,54,12,1,18,-29,0,-3,-10
19,21,45,17,15,16,-25,0,3,8
35,26,57,27,20,21,-18,18,19,22
31,6,58,43,24,28,-15,12,14,31
11,-12,46,40,23,30,-17,11,-7,20
-11,-34,23,35,16,28,-11,13,4,15
-48,-13,13,2,9,17,-20,4,13,0
-46,6,6,-9,9,11,-23,0,20,-24
-35,-3,8,-24,-7,12,-22,-4,20,-20
-56,13,-4,-39,-25,7,-31,-6,26,-25
-75,7,0,-38,-27,-9,-39,0,38,-39
-71,3,-18,-39,-32,-17,-50,1,51,-27
-64,-1,-20,-42,-36,-10,-42,9,35,-16
-52,-36,-16,-47,-36,-6,-28,18,22,-1
-33,-66,-29,-44,-29,-4,-26,11,19,28
-20,-44,7,-26,-4,8,0,-6,29,12
-33,-23,24,-2,13,30,22,0,38,7
-15,-44,4,13,16,47,46,23,66,26
6,-41,15,22,17,41,49,39,72,38
0,-33,15,24,18,43,42,22,45,28
1,-30,22,29,19,42,42,14,49,26
2,-18,22,22,27,26,47,15,61,6
3,-4,30,16,33,21,38,10,61,12
-2,0,-3,7,6,7,37,2,67,18
-9,2,-74,-1,-13,-1,33,2,65,18
-5,21,-17,-3,-23,-3,11,2,70,11
-1,35,8,-17,-40,-21,-1,-8,79,-5
-14,40,14,-28,-41,-40,-9,-4,74,-32
-24,48,5,-20,-35,-42,-12,4,86,-16
5,71,10,-10,-26,-41,-9,14,112,7
24,73,16,1,-32,-42,-8,1,66,13
37,49,22,13,-14,-16,28,14,31,21
60,41,34,37,10,-4,53,15,25,31
65,34,38,41,15,5,28,19,20,41
49,13,26,31,16,24,27,13,20,44
26,3,2,41,23,44,24,7,12,44
29,4,11,53,27,52,13,20,3,53
38,0,30,54,25,52,9,17,30,51
36,3,27,46,26,44,8,15,60,44
19,16,18,27,15,35,7,14,57,34
-19,1,-5,10,6,3,-11,6,-5,6
-11,19,-8,6,-2,-17,-30,0,11,7
6,71,-5,2,-17,-14,-27,12,107,27
0,97,-6,22,-39,1,-13,13,162,36
-18,52,-18,19,-35,9,-7,-1,132,11
-38,-15,-17,-8,-38,6,-13,-20,16,-34
-19,-29,-2,-18,-44,0,0,-25,-55,-43
14,0,-3,-6,-29,-3,27,-10,-40,-13
20,3,0,1,-3,-7,26,-12,-87,-3
35,16,0,8,8,9,9,-9,-109,17
27,17,4,6,12,19,-6,-7,-107,25
13,8,-67,25,33,39,0,-3,-90,24
20,-2,-112,37,51,50,0,-11,-90,22
33,-7,-19,21,41,33,-15,-15,-107,27
20,0,20,20,25,18,-19,-11,-78,20
10,-3,0,22,17,12,-17,-12,-31,4
-7,-4,-11,20,5,8,-24,-14,-15,-21
-37,4,-50,21,1,1,-21,-3,-20,-36
-49,6,-51,5,-10,-3,-21,-2,-19,-45
-44,-6,-9,9,-20,4,-41,8,3,-43
-45,1,6,10,-28,11,-30,-6,35,-42
-17,18,10,10,-24,2,-16,-19,34,-40
25,11,23,-4,-21,8,-39,-24,26,-39
23,-6,5,-11,-27,-10,-49,-30,-21,-56
9,-17,10,-16,-8,-15,-49,-20,-93,-64
27,-17,6,9,8,0,-33,-5,-84,-45
28,2,26,29,30,18,-24,-7,-70,-19
50,13,37,40,46,34,-14,-4,-51,15
49,4,-2,27,41,31,-8,-4,-50,41
50,12,18,20,36,37,-6,-10,-53,56
46,13,38,19,26,44,-5,-14,-24,46
28,15,25,0,24,40,1,3,6,27
-8,-41,13,-22,6,29,0,20,-34,-11
-7,-43,12,-22,-5,13,-16,8,-49,0
26,-1,25,-28,-7,8,-23,-1,-20,23
37,-21,7,-45,-18,0,-26,4,-36,-6
47,-25,-5,-47,-37,-13,-27,3,-30,-38
32,2,-4,-43,-52,-20,-45,-3,-11,-52
26,-3,6,-35,-57,-29,-41,-10,-8,-63
54,1,-20,-25,-42,-6,-28,-4,23,-24
81,41,-13,0,-10,13,4,17,132,33
60,56,17,23,14,23,8,12,118,34
18,33,43,31,25,32,-6,6,51,12
24,31,33,39,25,35,5,15,28,18
30,25,37,40,23,33,8,23,15,14
-8,33,26,43,20,24,14,21,12,17
-32,18,21,23,18,5,27,12,-39,5
-52,23,37,13,7,0,32,8,-45,8
-61,11,31,15,2,8,31,8,-10,1
-55,-23,-4,10,2,9,14,20,-22,-6
-54,-39,-73,11,-2,-15,-11,3,-57,-21
-31,-31,-21,18,-12,-7,-22,-10,-14,-28
-51,-27,12,2,-38,-13,-22,-26,-27,-38
-77,-40,4,-23,-54,-31,-31,-39,-60,-48
-93,-27,-5,-40,-53,-39,-46,-35,-52,-49
-79,-19,9,-32,-41,-33,-39,-27,-45,-29
-55,-14,8,-14,-22,-23,-18,-20,-31,2
-48,8,4,-4,-9,-16,-6,0,-22,18
-11,45,2,27,-8,-4,1,12,5,43
27,80,-19,43,0,4,12,18,34,56
15,76,36,52,14,9,25,8,26,51
32,107,60,63,14,22,62,24,116,70
50,83,45,63,3,29,87,30,116,58
52,19,36,74,7,46,76,4,18,29
56,12,34,65,29,53,35,4,38,28
15,16,-8,37,26,29,12,18,50,21
8,-18,13,29,21,32,33,0,32,17
19,-43,21,20,15,37,42,-14,48,20
-5,-48,-11,-12,-3,-2,36,-7,53,15
-54,-70,-33,-61,-14,-33,22,-10,-29,-18
-78,-62,-32,-79,-17,-35,16,-17,-83,-42
-84,-64,-31,-82,-29,-47,-4,-33,-83,-57
-46,-36,-30,-56,-23,-40,-12,-21,-52,-37
-24,-4,-10,-31,-7,-20,-13,10,-18,-11
-9,-13,-36,-20,7,-7,-8,15,-45,0
8,-15,-26,4,11,5,0,3,-85,12
20,-12,-12,20,23,6,14,-7,-88,17
18,2,-12,25,33,13,15,1,-77,24
51,61,-27,27,45,26,18,20,-3,51
29,36,-39,16,40,32,14,13,-53,21
-3,-15,2,0,24,14,9,2,-120,-19
19,-14,16,18,29,37,-1,-8,-63,19
43,0,12,29,18,34,-12,-4,14,55
23,-17,-14,7,4,-3,-23,8,14,46
25,-29,10,10,4,16,-14,13,13,37
11,-3,-16,-3,-1,-1,-10,9,20,30
-27,-15,-64,-22,-12,-26,-25,11,11,6
-55,-66,-80,-42,-13,-33,-58,1,-24,-28
-49,-70,-42,-49,-22,-43,-68,-10,-54,-39
-26,-36,-49,-27,-19,-34,-73,-11,-58,-16
12,-10,-32,12,-1,1,-41,0,8,-6
44,3,-77,16,8,5,-8,14,51,4
33,-20,-49,0,16,3,0,18,-16,22
50,-46,19,20,28,30,7,16,-22,46
41,-49,21,6,28,14,16,19,-31,34
0,-61,1,-12,22,-5,29,15,-70,7
3,-42,-22,-1,20,-7,6,10,-82,12
-4,-47,-77,-12,15,-16,2,10,-84,5
18,-45,-113,-23,8,-18,0,8,-70,-9
18,-38,-101,-38,-6,-24,-35,15,-37,-16
-12,-45,-98,-43,-5,-28,-50,23,-32,-19
-24,-51,-133,-47,-2,-34,-18,18,-25,-37
-22,-31,-40,-51,-14,-32,6,32,48,-22
-11,17,-11,-49,-24,-29,-26,51,156,-4
-42,-12,2,-54,-30,-39,-49,31,92,-22
-55,-9,14,-53,-13,-46,-52,9,49,-26
-35,41,0,-21,1,-23,-61,21,114,-1
-5,76,-76,11,18,0,-37,30,102,9
40,79,-95,60,40,34,-16,22,87,28
7,8,-13,43,41,7,-20,7,-28,17
-23,-18,36,26,43,-10,-17,6,-67,15
-23,-30,40,24,51,-4,-18,6,-69,-1
6,-23,34,29,45,25,-10,7,-40,14
57,6,65,30,42,46,-14,10,8,59
58,34,52,4,26,16,-14,21,32,67
37,65,51,0,17,4,-25,17,60,53
15,45,56,-12,10,-5,-26,-8,22,33
20,39,57,-18,-2,-16,-26,-9,26,34
48,98,34,0,-2,-13,-26,34,171,53
33,68,14,-23,-16,-16,-10,43,182,25
-28,-50,-25,-56,-23,-39,-17,1,26,-54
-54,-95,-48,-54,-26,-37,-15,-16,-50,-90
-36,-71,-47,-45,-28,-26,-7,-3,-21,-76
5,-26,-28,-21,-10,-31,-1,6,38,-46
11,-4,9,8,10,-20,37,4,24,-28
2,-33,18,9,13,0,66,3,-53,-38
13,4,14,13,7,13,83,14,-53,-13
31,22,26,8,6,15,79,15,-64,7
37,53,30,13,14,5,44,9,-70,10
25,59,39,28,14,7,26,20,-58,11
16,51,40,32,8,1,18,5,-48,3
31,59,47,38,4,3,17,8,28,5
24,-2,27,9,-7,-8,13,-6,-4,-8
7,-37,11,0,-13,0,-7,-29,-18,-11
32,-27,29,45,-4,46,-1,-37,68,5
50,-24,27,47,-12,34,35,-46,121,0
24,-3,29,25,-23,3,29,-51,132,-29
-25,7,4,-5,-42,-26,-4,-37,110,-51
-28,7,15,-11,-39,-29,-2,-19,92,-45
-29,35,-31,-23,-39,-38,0,-11,71,-22
-34,35,-22,-26,-37,-23,34,-16,24,-20
-64,17,6,-4,-11,-4,52,-13,-21,-48
-93,6,0,7,7,0,53,-9,-62,-58
-63,17,-3,12,11,7,48,-5,-61,-29
-22,37,21,29,22,10,15,-2,-40,0
1,32,16,42,21,9,-2,6,-40,5
20,16,22,36,27,12,0,-8,-36,0
47,40,14,41,24,22,-4,-2,11,17
55,67,19,31,6,25,1,6,41,31
34,27,5,0,-10,6,-6,-11,-1,-4
15,-7,11,-30,-14,-6,-27,-28,-19,-5
-4,-21,7,-46,-21,-21,-29,-36,-22,-6
-7,-13,-21,-70,-34,-39,-41,-33,1,-7
-49,-31,-19,-76,-37,-41,-29,-17,22,-30
-83,-24,-45,-63,-32,-21,-3,-6,68,-50
-72,-11,-55,-51,-32,-5,-4,1,84,-36
-89,-13,-12,-46,-30,-10,-3,-12,30,-30
-61,2,17,-20,-15,-4,17,1,50,-8
4,32,41,0,9,16,23,21,96,50
22,25,66,22,27,47,30,1,47,52
68,22,94,55,48,78,38,-7,39,45
97,18,93,58,51,84,29,-2,31,43
93,19,80,59,57,80,29,-3,13,58
66,2,66,43,37,33,35,0,-14,66
46,-28,41,13,17,-7,26,-5,-54,22
34,-16,40,2,5,-20,21,9,-36,-9
7,16,33,-2,0,-17,3,50,47,-24
-54,-37,-19,-37,-27,-24,-26,45,-24,-63
-94,-42,-119,-57,-53,-29,-39,26,-59,-80
-108,-38,-148,-58,-59,-39,-45,22,-50,-78
-103,-43,-69,-65,-67,-56,-49,21,-29,-89
-74,-38,-20,-58,-66,-43,-35,19,-28,-61
-45,-40,-14,-57,-71,-42,-36,4,-64,-37
-42,-37,-17,-53,-62,-48,-28,-11,-79,-19
-38,-26,15,-24,-44,-28,-25,-11,-99,-3
-19,-32,18,3,-10,-9,-5,-2,-97,-2
-9,-19,19,34,21,-5,-3,8,-93,13
9,-5,17,62,36,-3,9,7,-51,31
54,30,25,71,45,7,16,24,48,59
46,22,37,53,28,11,28,21,20,52
46,0,20,51,25,42,40,5,19,49
44,1,-64,27,23,32,30,1,30,47
37,-24,-3,29,7,28,31,3,1,26
50,-25,46,36,4,40,30,-7,7,14
46,-22,28,16,-6,20,8,-14,12,10
2,-32,-7,-24,-28,-20,-17,-17,-10,0
-13,-41,-36,-50,-37,-50,-29,-18,-22,-2
-20,-21,-34,-31,-40,-52,-29,-18,16,4
-34,-27,-8,-31,-38,-34,-33,-28,-10,-10
-45,-42,-21,-39,-42,-30,-31,-30,-38,-30
-42,-16,-10,-22,-29,-21,-14,-9,-24,-24
-27,15,14,14,8,20,33,4,-19,-10
24,56,39,58,35,56,56,0,24,8
34,57,-10,58,37,54,51,3,17,18
50,23,-26,54,40,43,36,0,3,5
31,-15,35,39,33,17,1,10,-35,1
-7,-20,30,22,22,-15,-14,13,-76,-14
1,-11,27,12,15,-22,-21,7,-66,-17
-21,0,23,10,27,-7,-19,3,-52,-22
-45,-13,2,7,22,-17,5,-7,-54,-36
-38,8,-79,-3,5,-19,14,0,5,-29
-18,8,-62,2,-4,-13,1,13,48,-15
-38,-16,-84,-27,-18,-38,-2,9,37,-6
-38,-16,-138,-20,-19,-23,-7,0,60,0
-37,-49,-46,-22,-15,-2,3,0,33,-14
-53,-94,-73,-45,-24,-23,7,7,-7,-26
-38,-106,-34,-34,-16,-11,6,1,-18,-36
-27,-100,26,-5,1,-6,15,1,-36,-42
-11,-50,44,6,11,2,10,-10,-51,-20
15,3,72,22,22,19,13,-13,-27,7
7,33,86,41,37,41,28,-8,3,17
30,45,114,57,24,60,30,-3,15,21
36,80,103,50,18,25,10,7,14,29
18,78,109,36,24,10,5,17,31,22
16,82,108,24,18,9,-1,21,79,12
39,54,106,45,15,21,5,-10,51,24
62,36,85,65,11,19,2,-30,48,38
5,12,30,17,-12,-32,0,-12,7,1
-37,-4,-10,-34,-41,-62,0,-2,-34,-30
-53,-3,0,-43,-49,-57,-30,-6,-24,-51
-64,11,16,-46,-41,-61,-22,-10,-3,-50
-81,10,5,-69,-36,-68,-11,-15,-41,-43
-76,-11,9,-58,-28,-72,-2,-15,-70,-22
-65,-54,9,-52,-22,-56,6,-1,-75,-11
-33,-56,-11,-41,-6,-38,11,12,-74,6
21,-17,5,-14,20,-15,14,26,-6,44
70,60,30,29,37,8,14,57,114,97
97,90,31,40,47,19,28,61,137,112
93,67,33,22,56,10,26,41,73,92
72,27,21,0,49,5,11,28,12,73
75,57,10,-2,33,7,17,39,84,77
29,22,-5,-5,13,11,25,25,44,35
12,-9,-28,-24,3,18,24,16,0,-6
5,-54,-17,-50,-3,0,23,-10,-60,-40
51,-34,-39,-45,-16,11,24,-4,-28,-27
66,-49,-131,-30,-27,34,18,-6,-2,-11
51,-56,-174,-31,-27,32,21,-1,31,-4
-15,-58,-130,-77,-51,-21,14,-12,-30,-45
-55,-40,-130,-81,-51,-43,6,-27,-62,-43
-67,-47,-108,-65,-31,-30,14,-31,-66,-32
-78,-57,-41,-43,-10,-15,14,-25,-104,-31
-65,-39,-2,-7,7,-8,-24,-11,-125,-35
-37,-24,30,16,18,-6,-46,-11,-96,-24
5,-14,18,29,25,12,-45,-7,-61,13
62,19,33,44,40,27,-33,20,8,45
45,-8,30,39,46,20,-36,4,-60,31
14,2,32,24,57,3,-33,-10,-75,6
-10,7,26,6,56,5,-36,15,-33,-2
12,58,27,8,41,20,-49,48,104,20
43,105,22,12,32,14,-45,63,174,25
24,84,33,1,26,0,-41,51,116,5
13,35,39,5,24,4,2,5,41,-20
22,60,27,-1,-6,-20,7,-6,84,-40
-2,85,25,-13,-24,-36,-12,-4,109,-36
-28,16,18,0,-26,-2,-27,-33,38,-40
-27,-3,18,21,-25,9,-31,-45,7,-41
-60,-4,1,9,-15,-11,-23,-37,-30,-46
-70,-24,-5,-3,1,-27,-7,-40,-88,-37
-35,-16,-2,6,21,-16,-9,-33,-94,-9
-15,-26,9,12,28,-14,-16,-22,-96,6
4,-13,29,16,23,-13,-27,-24,-121,15
33,-4,26,16,16,-13,-28,-22,-123,32
46,9,18,20,23,-20,-34,-20,-102,48
66,22,15,14,12,-18,-22,-16,-80,54
67,23,0,15,-3,-3,-21,-10,-6,62
66,-4,21,30,-4,25,0,2,45,44
67,-5,41,49,1,52,9,-3,81,23
52,-4,30,55,-6,33,0,-5,73,4
45,-5,15,42,-18,11,-10,-6,77,-9
13,-15,-9,1,-38,-12,-25,-4,54,-20
-47,-42,-17,-49,-62,-48,-30,-4,-23,-56
-53,-49,-32,-46,-63,-42,-13,-11,-65,-61
-43,-29,-10,-30,-37,-26,16,-4,-36,-34
-3,35,17,2,-9,-9,35,14,88,14
-1,18,15,11,7,-7,30,18,43,19
0,-14,-1,2,-7,1,29,8,-30,15
22,11,7,17,-6,11,22,16,-1,41
48,-12,16,33,1,22,15,2,-43,44
113,-11,33,66,17,59,31,-5,10,69
121,0,14,60,24,52,36,10,30,58
79,38,-4,39,26,17,28,36,86,36
52,28,-11,37,27,22,24,28,96,0
44,41,-8,27,28,11,3,28,148,-4
36,37,-23,18,19,7,-26,29,158,8
10,14,-21,1,10,-4,-30,19,108,9
-40,-30,-23,2,4,-20,-14,-3,39,-40
-72,-73,-12,-4,-8,-19,-11,-20,0,-61
-63,-58,-14,-18,-14,-19,-4,-18,14,-48
-29,-21,4,-10,-1,-16,9,-14,36,-36
2,10,11,18,14,4,32,-3,78,-9
29,-6,40,42,19,36,24,-30,23,0
30,-21,43,24,8,21,-2,-27,-17,10
28,-21,11,-8,2,-7,-5,-15,-81,10
48,-20,6,-17,0,-10,-18,-17,-103,15
32,10,20,-25,0,7,-10,-12,-93,0
40,65,42,-14,4,17,-4,-3,-72,9
54,91,51,6,7,18,12,4,-21,22
49,103,39,4,3,15,21,5,10,37
18,32,2,-18,1,13,25,-13,-39,19
29,3,-7,-3,4,38,17,-12,22,22
-3,0,-14,-12,-9,19,-16,-9,44,1
-41,-40,-29,-48,-30,-22,-38,-18,-25,-22
-70,-54,-22,-56,-37,-22,-45,-13,-28,-29
-106,-39,-33,-54,-23,-16,-29,-11,-26,-55
-89,-11,-19,-50,-10,-7,4,-12,-18,-62
-82,0,-14,-47,-15,-9,9,-6,-3,-50
-72,8,11,-52,-8,-4,-16,-8,-34,-42
-18,47,32,-39,7,0,-32,-4,-39,-12
16,64,32,-3,17,0,-23,5,8,20
41,18,24,32,35,28,-9,16,42,30
32,-31,4,52,37,59,12,6,26,9
26,-10,4,41,40,39,23,5,23,0
26,-11,-43,37,42,41,26,9,28,4
45,23,-12,36,39,25,13,9,35,23
53,87,4,21,26,-6,-1,28,96,49
56,99,3,0,19,-2,-5,34,135,62
49,70,-15,-30,-4,-4,-14,35,107,41
36,50,2,-29,-17,-9,0,18,57,26
16,64,1,-23,-7,-12,7,26,101,19
-23,0,-8,-16,-10,-9,-1,-3,53,-35
-55,-74,-13,-15,-17,3,2,-22,-9,-74
-93,-86,-20,-32,-30,-26,-8,-20,-88,-104
-114,-72,-31,-26,-24,-39,4,-24,-97,-86
-98,-72,-43,-27,-7,-27,20,-15,-105,-73
-75,-45,-37,-16,-9,-24,18,-20,-108,-47
-56,-45,-11,-9,-1,-25,12,-18,-99,-27
-36,-34,-13,21,26,7,46,4,-29,-1
-24,-38,-11,40,35,38,72,10,5,23
2,-35,-14,38,42,54,73,14,2,27
-16,-65,-56,-9,14,20,56,0,-74,11
-35,-63,-57,-24,7,13,55,-2,-76,9
-37,-22,-31,-27,12,5,45,0,-52,31
-42,2,-39,-29,-9,-3,41,-4,-29,15
-27,22,-42,-24,-7,-5,33,5,41,4
-27,25,-32,-40,-11,-15,30,-7,32,-18
-37,-6,-23,-47,-24,-18,27,-13,34,-32
-28,-16,-23,-28,-23,-8,18,-16,61,-8
8,-10,2,-2,-18,21,21,-21,82,8
12,19,3,4,-21,3,25,-26,71,-4
-32,63,9,0,-18,-13,27,-17,14,-7
-34,49,14,-1,2,-12,25,-14,-35,1
-28,4,4,4,12,0,14,-5,-76,-3
-56,-7,-6,5,19,14,-12,4,-100,11
-69,-17,-30,-3,27,28,-12,4,-69,12
-16,2,-24,33,32,59,-5,1,5,28
-24,2,-57,15,22,43,-12,-12,-36,8
-17,-27,-23,-5,0,13,-8,-27,-95,-21
-20,-29,-20,-2,0,8,4,-30,-84,-24
-35,-47,-5,12,-5,0,11,-21,-69,-27
-54,-51,-18,7,-20,-8,-2,-11,-66,-24
-39,-3,-41,1,-22,-11,-6,-3,4,2
3,74,-33,19,-18,-21,-14,17,165,33
26,85,-16,24,-35,-28,-15,4,216,22
8,43,-23,4,-53,-24,-1,-5,185,3
-42,-35,-49,-36,-69,-29,7,-23,65,-37
-57,-65,-55,-46,-64,-22,3,-32,-22,-54
-62,-50,-41,-40,-48,-22,-2,-28,-59,-64
-59,-44,-17,-30,-19,-6,-23,-19,-70,-52
-18,-24,9,-25,-9,14,-29,-9,-50,-18
14,4,11,-21,-1,10,-23,-3,-11,1
11,12,5,-24,-3,-2,-14,-10,-51,-5
25,23,20,-13,4,-9,-11,9,-12,10
85,105,33,14,27,11,10,40,135,61
65,93,19,15,23,17,27,28,76,43
18,28,-40,8,0,2,20,0,-46,0
33,58,-53,14,-14,2,15,14,27,15
38,88,-128,11,-8,-10,-17,16,97,28
-2,63,-125,-21,-8,-27,-39,-5,18,7
-11,51,-28,-31,-17,-30,-35,-13,10,-10
-25,24,9,-30,-26,-34,-34,-12,15,-23
12,20,-44,6,-20,-14,-28,-10,56,-15
68,39,26,41,0,13,-20,-28,84,-21
68,16,70,32,5,17,-19,-31,78,-15
61,21,57,5,5,-4,-10,-5,54,19
40,-5,38,-16,6,-31,-16,2,-30,13
47,-16,27,5,16,-13,-12,1,-4,29
89,0,62,61,35,27,1,2,73,74
110,11,82,69,44,45,5,7,70,96
98,12,84,46,42,42,10,27,60,83
25,-12,45,15,36,17,21,31,22,60
-11,-25,-56,17,34,28,20,37,15,35
-8,-40,-82,16,26,37,9,23,11,28
-15,-18,-54,0,14,-2,5,26,47,24
9,66,-91,9,8,-23,1,29,129,10
-3,78,-19,0,2,-24,2,9,161,-31
-30,36,24,-23,-15,-33,1,0,112,-57
-21,48,37,-27,-27,-33,-1,9,137,-50
-13,39,-10,-29,-30,-28,-3,-1,115,-48
-20,15,-64,-33,-28,-13,-6,4,75,-36
-51,-30,11,-41,-19,-19,-1,-7,-4,-36
-70,-79,51,-44,-5,-13,35,-18,-127,-55
-40,-82,39,-32,7,1,58,-9,-137,-39
-16,-80,21,-18,17,13,40,-11,-117,-28
-25,-81,22,4,26,27,28,-18,-107,-23
-25,-73,49,14,29,34,13,-11,-111,-14
-4,-59,52,19,29,30,18,-10,-104,-6
-6,-61,44,16,23,17,46,-3,-102,-3
-27,-66,23,14,16,20,64,1,-113,-12
-47,-57,27,17,2,-1,58,1,-90,-35
-33,-33,-41,0,-14,-16,32,-16,-65,-56
-26,-1,-61,-1,-15,-2,11,0,-21,-43
-23,-9,-93,0,-17,7,-3,-2,-20,-45
-1,-3,-63,2,-30,33,-35,-32,17,-49
25,20,18,1,-31,35,-40,-30,52,-39
62,18,47,8,-32,30,-38,-28,51,-14
60,30,21,-5,-29,17,-41,-12,24,4
31,43,14,-20,-17,2,-37,-4,-10,7
42,17,37,12,1,25,-31,-7,-7,30
81,31,53,46,15,40,-37,-11,-16,27
67,44,62,45,34,33,-26,-12,-73,-11
20,21,47,12,32,13,-18,4,-123,-27
8,-24,24,-9,16,10,-18,0,-174,-35
-12,-35,1,-12,2,11,-19,3,-169,-28
-38,-39,11,-4,-2,-6,-24,8,-149,-21
-63,-26,21,3,-2,-17,-25,13,-128,-33
-76,-33,22,-3,-8,-12,0,10,-105,-35
-92,-45,17,-6,-27,-5,7,10,-87,-36
-92,-51,19,-5,-38,-16,17,7,-81,-24
-96,-53,-22,-25,-49,-17,15,-2,-73,-31
-102,-51,-21,-41,-44,-29,5,-6,-32,-28
-79,-26,7,-46,-18,-33,-24,2,-6,-23
-70,-27,2,-46,-21,-33,-41,-2,-19,-14
-78,-33,18,-40,-21,-29,-37,-5,-52,-6
-52,-12,18,-21,-5,-20,-24,-4,-57,-1
-23,10,33,-6,7,-14,-19,-8,-63,4
-13,14,17,0,24,-6,-20,0,-68,7
14,0,10,6,43,7,-18,15,-51,22
35,-30,5,12,62,28,0,15,-21,43
26,-48,5,15,55,19,30,23,-36,62
30,-61,-8,23,33,19,38,37,-24,70
29,-70,-25,29,27,27,32,35,1,65
15,-53,-4,42,29,24,29,18,13,30
-30,-33,-49,32,18,16,17,8,0,-7
-32,6,0,13,4,9,15,12,9,-20
-67,18,38,2,3,11,18,21,30,-28
-79,10,28,3,-12,7,7,9,25,-49
-90,0,26,1,-23,0,-17,-8,12,-64
-56,-3,-52,1,-25,-11,-45,-6,17,-52
-13,-8,-85,14,-10,-9,-64,12,48,-21
12,16,6,20,-5,2,-32,12,67,2
32,8,22,22,9,21,-38,3,36,10
88,23,44,43,31,45,-30,-3,42,25
150,81,54,68,46,52,-18,7,82,63
159,96,-39,64,49,57,-14,28,79,80
149,67,-87,48,51,52,-14,26,81,69
107,50,-10,32,46,42,-17,17,52,44
46,31,39,5,32,20,-6,10,-18,15
11,3,46,-6,17,7,15,-1,-45,17
17,3,33,-31,0,-4,26,-14,-42,16
-3,19,23,-51,-11,-13,16,-14,-42,8
-8,20,18,-41,-23,-19,-2,-23,-16,19
-1,6,6,-54,-44,-30,-7,-30,7,5
-16,-5,-15,-64,-56,-42,-3,-16,13,-16
-48,-12,-14,-54,-53,-42,-8,-12,26,-34
-68,-12,-41,-32,-47,-35,22,-21,21,-33
-76,-11,-41,-12,-34,-26,19,-24,-3,-32
-59,10,17,8,-17,-16,1,-18,1,-21
-4,14,23,19,0,-4,-18,-3,20,2
17,10,40,34,8,-5,-19,-11,-14,12
25,3,44,41,16,1,-16,-9,-37,27
21,15,55,41,34,15,-12,-2,-10,39
22,34,57,36,40,11,-7,-5,-33,43
43,49,47,48,31,13,-7,10,8,72
69,108,43,67,28,30,-11,45,129,84
82,139,32,71,24,25,-12,64,186,81
58,112,28,51,10,17,-7,48,172,54
19,64,2,24,-5,3,-13,19,106,20
13,67,-30,24,-15,10,-16,27,145,27
4,66,-22,-3,-27,6,-25,26,184,34
-9,45,-28,-41,-51,-6,-39,8,160,10
-14,-32,-38,-32,-57,-10,-30,-30,77,-2
29,-60,-25,-9,-34,-1,-4,-38,52,11
69,-20,-1,8,-19,-6,1,-30,27,32
78,0,-5,13,-21,4,-4,-27,17,36
86,-5,13,17,4,14,0,-16,18,30
83,1,14,36,29,23,10,-14,0,29
74,-13,29,46,46,18,23,-7,-5,36
69,-18,27,51,42,12,19,-9,-25,40
59,16,-16,48,34,0,20,5,-26,41
44,18,-97,33,21,-14,32,21,-6,39
-1,-34,-40,6,11,-23,32,1,-67,11
-3,-24,4,12,6,-26,22,-6,-63,1
-19,-41,-22,17,-1,-36,23,-7,-49,0
-32,-53,-37,-2,-13,-39,13,-17,-29,13
-27,-28,-11,-11,-26,-45,-4,-28,-22,6
-41,-9,-19,1,-37,-65,-23,-30,-12,-26
-68,-24,-39,-24,-50,-61,-29,-29,-19,-38
-79,-46,-35,-52,-57,-57,-27,-13,-10,-39
-69,-43,-28,-46,-40,-50,-17,-1,-17,-50
-16,-16,-36,-28,-15,-30,-8,11,-1,-16
30,30,-15,-4,6,0,-3,25,29,17
47,18,15,34,25,7,7,31,4,20
26,-6,19,48,39,22,9,26,-3,0
-30,-6,2,11,46,15,8,21,-58,-27
-29,14,-98,15,47,9,9,12,-64,-10
-21,6,-63,6,35,6,5,9,-70,2
-15,6,11,-4,23,10,-2,13,-56,-4
25,69,12,9,34,12,0,37,76,21
66,108,12,36,40,11,6,59,191,54
64,94,6,26,16,-7,-4,55,172,48
33,46,-32,-8,2,-21,-2,33,65,4
-5,10,-41,-22,-16,-16,2,-4,-2,-47
-14,12,-3,-15,-26,6,15,-9,34,-46
-8,-2,-14,-16,-23,9,22,-9,73,-32
6,-14,-9,-25,-30,-5,20,-9,58,-29
-22,-21,-14,-41,-32,-22,16,-3,-11,-36
-26,-30,-34,-31,-27,-7,29,-5,-47,-32
-6,-20,7,-7,-5,8,35,5,-65,-12
-11,-13,33,-3,2,2,29,1,-99,0
10,-7,40,-2,4,-2,24,4,-80,1
46,16,42,16,14,9,18,8,-32,28
40,15,24,20,21,11,15,4,-50,15
17,-18,24,2,19,12,0,-4,-89,7
-16,-40,11,-4,25,13,-11,-11,-93,-2
-16,-33,18,-12,24,15,7,-8,-78,2
-3,-46,-4,-33,11,5,31,0,-74,10
5,-63,-34,-49,-8,1,30,-4,-72,8
9,-56,-20,-54,-20,-22,15,-18,-74,6
17,-13,-13,-47,-25,-27,-21,-7,-8,8
56,71,-20,-24,-12,-2,-32,32,150,39
64,95,5,-17,-2,2,-15,32,197,42
31,58,0,-21,0,1,12,34,156,48
-32,-34,-61,-33,-4,-8,29,1,5,10
-55,-26,-28,-18,7,-7,26,-5,-44,-11
-12,82,61,27,37,8,34,33,86,40
23,105,68,47,54,21,32,56,119,62
30,95,65,43,60,34,20,55,77,48
28,56,61,32,55,26,22,28,20,30
55,111,70,36,56,17,14,24,74,33
82,154,73,22,37,4,-5,19,94,53
73,112,63,-10,18,-14,-13,9,38,43
13,4,44,-59,-6,-24,-24,-26,-101,-13
-26,-12,19,-79,-13,-15,-23,-36,-117,-54
-27,-6,1,-70,-12,-19,-32,-22,-74,-46
28,58,25,-51,-4,-22,-47,4,12,-30
2,35,17,-57,-17,-26,-38,-4,22,-42
-67,-10,1,-83,-29,-30,-34,-33,-27,-46
-61,-59,-12,-93,-25,-40,-41,-46,-100,-36
-2,-65,-3,-68,-19,-38,-37,-28,-105,-25
-22,-92,-20,-57,-13,-24,-10,-31,-140,-48
-28,-98,-8,-34,6,-6,28,-33,-130,-45
-5,-90,3,-13,13,10,38,-28,-133,-20
-4,-80,5,-7,16,15,41,-23,-119,2
-2,-55,23,2,24,12,43,-20,-122,12
17,-10,50,21,25,12,45,-9,-79,25
33,32,21,19,23,14,34,-1,-36,26
-2,41,45,9,14,11,36,2,-60,-4
-13,64,83,-2,9,8,49,5,-58,-33
-32,63,71,-6,-1,5,41,0,-61,-41
-35,58,65,-8,-17,-5,20,-4,-43,-18
-45,38,61,-20,-26,-6,19,-21,-20,-7
-33,18,26,-31,-35,-4,12,-6,59,0
-12,40,-1,-24,-30,-14,1,7,131,-10
-11,82,-3,8,-24,-20,-5,12,158,-27
-46,21,-18,0,-26,-29,-7,6,50,-48
-83,-19,-28,-22,-20,-31,-5,-10,-53,-64
-67,21,-24,-12,-4,-15,4,5,-14,-33
-79,-6,-15,-19,9,4,17,0,-56,-10
-77,-50,-28,-18,7,10,22,-9,-100,2
-64,-54,-19,-6,11,25,22,-1,-85,-9
-42,-46,-26,0,19,35,21,7,-72,-11
-37,-22,-10,4,15,31,32,-7,-67,10
-36,-19,-14,-5,16,32,35,-14,-62,6
-9,-7,-4,-3,28,25,36,0,-41,5
-9,1,-21,-1,19,11,31,3,-13,7
-22,-20,-13,-7,13,0,19,-6,-12,8
-19,-32,-16,-7,9,1,-11,-6,-4,11
-35,-37,-32,-26,-19,-6,-32,-19,-8,-3
-67,-67,-43,-41,-36,-34,-38,-30,7,-12
-104,-79,-62,-36,-45,-39,-39,-23,16,-41
-96,-74,-64,-34,-44,-26,-9,-29,11,-37
-58,-45,-39,-27,-38,-32,10,-40,4,-23
-24,-31,-12,-12,-26,-24,25,-39,-5,-16
-9,-39,0,0,-7,-4,21,-35,-16,-28
3,-10,16,14,17,13,2,-15,14,-24
18,-4,11,33,29,30,0,-2,56,0
2,-38,4,19,25,26,9,-11,-12,6
-2,-38,-8,11,20,26,6,-3,-29,7
-22,-48,-13,17,16,25,2,0,-40,7
-3,-25,-18,19,11,23,-1,2,-21,9
27,-1,-29,10,3,24,13,5,-2,-9
17,26,-10,2,-16,36,27,0,3,-5
-16,27,-17,-14,-28,17,1,-5,18,5
-29,0,-11,-17,-32,-7,-27,-15,17,-6
-43,-9,-2,-7,-28,-12,-26,-9,37,-14
-36,0,-18,-12,-36,-23,-18,-10,101,-10
-52,-26,-16,-35,-46,-23,-28,-33,62,-32
-34,-4,-22,-31,-41,-15,-4,-22,78,-13
21,56,-32,-2,-33,-13,9,0,152,33
46,70,23,17,-26,-17,21,10,165,51
26,6,18,16,-17,-17,24,-11,45,29
29,-21,23,17,-9,-2,20,-26,13,32
41,-25,3,31,-4,14,30,-22,9,29
42,-44,5,45,9,17,31,-15,-26,30
58,-31,4,57,20,20,30,-14,-28,36
63,-15,15,55,31,22,31,-9,-5,34
47,-26,15,37,19,13,27,-5,11,33
46,-27,0,20,3,0,15,-7,14,26
27,-36,-5,-5,0,4,7,-5,22,28
14,-28,-21,-18,-6,5,-25,0,61,45
12,8,-9,-1,-8,3,-50,12,132,42
-24,-26,-14,-18,-31,-19,-45,-18,46,-16
-49,-44,-30,-29,-40,-24,-27,-31,11,-40
-46,-66,-8,-33,-30,-10,-14,-20,4,-42
-48,-81,-13,-36,-21,-19,-1,-9,2,-41
-52,-63,-8,-43,-19,-14,1,-16,17,-33
-20,-42,-51,-11,-9,8,-5,-15,-3,-16
18,-12,-116,10,1,19,-11,-5,-27,6
19,4,-28,17,20,18,-32,1,-11,7
26,-8,6,20,33,25,-15,7,0,18
72,19,23,41,43,34,12,18,18,43
97,45,60,51,41,32,20,29,31,66
73,0,56,29,23,27,10,20,-43,33
73,-1,42,18,4,15,-5,12,-24,36
78,36,31,22,-8,2,-24,17,49,56
49,20,-2,1,-27,-13,-28,13,20,37
19,24,-55,-10,-29,-14,-19,17,39,49
24,61,-82,-1,-31,-7,-13,36,135,58
-2,40,-14,-5,-40,-12,-8,26,105,12
-44,16,-91,0,-37,-16,-9,9,57,-26
-14,64,-46,0,-16,-5,-1,30,128,-10
42,98,59,8,-7,1,0,44,143,12
57,79,23,15,-13,1,-4,43,89,12
22,17,17,14,0,0,8,10,-53,-11
38,17,80,26,22,-1,16,-4,-128,-19
57,61,85,47,36,9,14,11,-84,3
58,49,87,49,43,12,9,20,-57,25
35,-9,74,35,33,9,17,0,-138,5
23,-9,71,27,24,7,13,-4,-134,-5
-1,-24,64,36,25,4,3,-7,-114,-18
3,-32,48,44,25,-2,-11,-4,-98,0
39,15,37,45,15,-7,-5,13,0,28
4,-23,5,12,0,-12,0,6,-29,0
4,-52,-13,-5,-3,-13,-3,-3,-58,-32
28,13,-19,-8,-14,-20,-13,-3,-4,-29
38,79,-29,9,-27,-20,-19,22,132,-2
12,45,-113,-9,-44,-22,-19,31,135,-3
-45,-41,-92,-48,-46,-15,-3,1,-4,-32
-75,-61,-68,-63,-34,-13,5,-11,-66,-44
-83,-58,-137,-50,-24,5,7,2,-61,-35
-63,-57,-71,-30,-9,15,14,8,-51,-15
-36,-60,36,4,-1,18,21,-1,-55,-19
-13,-42,43,23,8,18,-6,2,-43,-15
3,-28,51,31,16,22,-21,3,-28,-10
13,-13,51,37,15,26,-16,2,-17,1
9,-20,21,34,16,25,-21,12,-20,11
3,-34,-2,22,16,28,-21,16,-21,12
-10,-38,29,19,26,35,-19,10,-13,8
-27,-10,19,20,23,34,-27,-9,17,5
-18,10,34,3,0,20,-31,-14,41,8
-18,12,39,7,-12,16,-33,-1,38,9
-38,18,39,15,-10,13,-25,2,24,-25
-45,21,27,16,-14,10,-27,0,42,-54
-25,33,-62,4,-17,2,-41,0,50,-57
-26,39,-71,-8,-15,-5,-39,-4,40,-44
-30,16,14,0,-7,-10,-21,-16,41,-40
-7,-27,15,4,6,-1,-8,-8,29,-40
0,-48,-20,16,19,16,13,-1,4,-34
-2,-44,-25,15,23,10,28,-3,-13,-24
11,-29,-2,17,26,21,38,11,-11,-8
36,-16,5,37,29,35,38,10,-16,24
41,0,-58,41,28,31,28,-10,-22,33
30,3,-36,41,23,19,23,-21,-11,31
27,4,34,35,18,14,29,-14,6,33
1,2,29,27,-5,16,28,-2,22,29
8,-23,12,19,-27,15,23,-5,39,26
1,-43,-9,12,-43,7,6,-11,50,20
-12,-29,-64,11,-33,6,-7,-1,72,10
-12,18,-100,11,-23,0,-21,4,137,-16
-17,-10,-27,-1,-35,-10,-22,-29,41,-48
-11,-32,-6,-8,-36,-10,-12,-34,6,-40
-14,-42,-17,-15,-27,-20,-6,-31,7,-39
-12,-36,-14,-10,-6,-13,-5,-12,-8,-38
38,-8,-2,-7,7,8,5,-17,-13,0
83,22,-88,9,12,18,14,-9,0,37
42,24,-89,36,29,24,25,-13,-3,18
8,4,-69,41,38,31,25,-25,-14,-4
13,7,-35,36,43,41,11,-4,-8,15
21,24,5,43,24,41,-15,3,-4,32
18,53,70,37,0,42,-25,0,21,20
54,119,78,40,0,39,-28,30,146,43
75,169,20,34,-14,25,-27,45,218,69
96,186,25,27,-21,12,-13,39,227,67
74,127,39,15,-18,3,14,32,184,48
7,81,19,-4,-23,-6,21,22,123,19
-34,49,28,-29,-30,-17,1,1,65,-6
-65,-3,22,-47,-42,-25,-7,-28,-22,-37
-53,-5,28,-36,-35,-22,-9,-22,-24,-28
-50,-24,18,-26,-3,-29,-33,-14,-28,-21
-28,-35,26,-24,12,-27,-34,-8,-46,-18
-25,-3,53,6,28,-15,-26,2,-48,15
-18,9,69,34,28,0,-21,16,-24,40
-5,-1,56,68,22,21,-8,34,-30,44
-3,-19,40,64,23,28,-1,22,-46,39
-3,-27,37,44,14,19,3,10,-93,27
-14,-18,24,34,1,10,27,6,-90,11
-14,-13,26,31,5,0,33,14,-68,0
-17,-22,28,31,6,-13,36,18,-57,-1
-9,-42,44,21,-2,-12,40,-3,-67,9
-13,-37,32,14,-14,-15,33,-7,-59,9
-35,-49,-12,5,-20,-11,-1,1,-44,3
-69,-42,-95,-8,-38,-23,-37,-7,-22,-5
-47,-33,-25,-18,-44,-35,-53,-18,12,-14
-17,-27,19,-16,-31,-39,-49,-25,23,-26
-1,-22,25,-5,-25,-37,-49,-25,18,7
-4,-19,26,-6,-24,-25,-17,-17,17,35
-6,-18,31,9,-17,-5,10,0,9,28
-11,-29,14,20,8,21,27,11,-2,9
1,-26,-43,32,17,30,34,5,-17,-1
23,-19,-26,30,15,25,41,8,-14,12
20,-12,2,28,22,25,32,21,-5,34
30,23,-1,45,24,25,43,48,50,57
67,33,17,47,21,31,33,36,63,39
54,-7,-24,28,21,23,12,5,-8,21
27,0,-114,14,13,-1,-23,-4,-30,18
16,-12,-55,-1,0,-8,-48,0,-39,-2
20,-21,7,2,-11,-1,-37,13,-42,2
48,35,20,5,-18,3,-11,36,57,30
27,32,11,-3,-26,0,-4,24,89,26
-8,-44,-2,-34,-33,-14,3,-9,-28,-14
-7,-56,-45,-42,-26,-19,0,-8,-59,-17
-3,-52,-119,-28,-18,-18,-19,-1,-48,0
12,-48,-74,-24,1,-3,-23,5,-36,20
17,-42,15,-21,13,11,-4,10,-66,6
-17,-39,42,0,15,20,1,28,-80,7
-44,-31,24,14,26,7,4,34,-96,-20
-22,2,-68,17,26,2,10,34,-108,-24
-15,43,-46,22,34,3,-3,27,-120,0
-26,49,79,22,35,-5,-27,-4,-107,3
-21,30,98,5,20,-27,-44,-25,-81,-13
-17,26,86,-11,14,-25,-45,-10,20,-6
-38,-2,35,-32,4,-28,-52,-16,18,-6
-29,-27,-67,-43,-15,-34,-42,-27,-14,5
3,29,-111,-28,-14,-27,-20,-1,124,33
10,70,-49,-28,-17,-25,-8,22,206,25
-9,79,-113,-29,-25,-33,-11,15,192,-2
-30,45,-123,-39,-14,-34,-46,-17,92,-35
-82,-52,-57,-33,-3,-27,-51,-35,-46,-61
-69,-70,28,-29,1,-15,-30,-29,-58,-39
-36,-61,37,-16,4,-15,-15,-22,-44,-10
-34,-44,37,15,25,-6,-9,-22,-58,-8
-2,17,66,40,35,9,1,-6,4,22
46,91,68,33,35,20,3,27,104,67
58,86,63,30,43,18,-5,32,61,78
56,40,58,22,44,19,-4,15,-49,61
36,3,44,0,44,15,0,3,-85,50
18,-7,27,-6,27,8,0,-16,-81,41
21,0,46,-15,16,5,17,-24,-64,44
26,19,42,-14,0,-2,5,-16,0,32
35,70,30,-12,-19,-11,-19,2,79,13
-14,23,-11,-29,-27,-33,-23,-11,-5,-40
-33,-7,-22,-46,-26,-41,-24,-25,-62,-81
-32,-12,-11,-26,-37,-35,3,-26,-51,-78
-31,-14,0,-8,-40,-37,17,-26,-30,-62
-12,-24,4,-23,-28,-40,-5,-31,-72,-37
4,-35,-2,-21,-15,-20,-2,-24,-64,-18
21,-20,9,0,3,9,9,-6,-9,-6
58,29,7,14,16,31,13,16,39,14
57,35,24,18,27,26,32,27,19,34
26,-4,22,28,42,29,38,6,-61,14
45,7,26,31,46,25,26,-4,-70,5
70,38,-22,36,28,13,18,-4,-68,18
58,26,-77,43,14,11,-6,5,-52,13
35,-6,-46,20,7,11,-6,14,-35,-2
1,-19,-66,-4,0,1,-8,16,-20,-10
-29,-25,-26,-13,4,0,-4,11,-21,-24
-37,-26,50,-22,0,1,12,-2,-25,-24
-12,1,47,-32,-12,8,0,0,16,-23
-1,-12,27,-41,-28,-3,-28,-7,8,-32
-24,-33,2,-41,-37,-11,-29,-9,-1,-52
-47,-32,13,-47,-30,-4,-16,-7,7,-56
-54,-36,-13,-34,-24,11,-1,-5,8,-49
-38,-11,-106,-16,-6,12,8,4,19,-11
20,-8,-92,-15,8,27,17,8,15,15
37,-19,29,-13,14,38,32,3,-14,13
25,-16,63,-5,22,36,31,0,-24,24
34,2,70,15,24,34,29,1,-35,39
38,13,53,16,30,42,39,14,-32,38
35,0,0,11,30,32,27,18,-40,28
38,0,61,5,28,22,21,8,-18,17
41,36,83,17,21,11,30,17,63,22
62,71,72,21,14,6,21,37,159,25
26,10,48,6,14,-4,0,17,76,-11
-3,-1,29,6,10,-9,10,10,58,-16
2,51,13,-12,-9,-21,11,29,142,5
-34,-9,2,-32,-29,-46,0,9,74,-25
-67,-49,-19,-37,-50,-44,-12,0,34,-23
-71,-30,-14,-42,-47,-35,-10,0,26,-17
-57,-27,-10,-28,-30,-20,6,-7,48,-7
-6,46,10,5,-4,-2,16,22,159,41
11,77,17,12,10,10,37,52,199,73
-1,9,15,-10,15,6,66,21,50,41
0,-31,30,-11,15,4,87,4,-11,31
-8,-31,7,-1,15,2,78,2,-8,22
-1,-40,-7,4,15,6,62,-14,-23,23
4,-29,5,1,20,14,35,-25,-45,6
14,-1,6,13,8,25,-3,-24,-34,-10
23,27,24,21,-3,22,-12,-19,1,-12
2,9,12,-4,-15,6,-14,-22,-11,-30
-6,12,3,-10,-19,2,-8,-19,-10,-15
5,-4,-30,-23,-31,-14,-13,-33,-7,-19
-7,-7,-56,-26,-42,-20,-30,-35,0,-29
-28,30,-40,-35,-44,-13,-34,-39,13,-34
-20,45,-37,-49,-42,-21,-23,-39,17,-46
-6,61,-24,-55,-38,-14,-7,-16,23,-29
14,74,-7,-33,-36,-1,-9,-1,24,-5
40,84,13,-8,-28,3,-1,14,16,11
44,63,45,6,-1,10,18,12,2,10
48,43,88,33,13,17,30,-2,-23,-8
51,32,107,57,28,19,11,-9,-24,0
54,21,36,63,23,18,5,-1,-8,19
58,3,-59,58,23,14,-4,-14,0,18
35,0,-49,55,26,17,6,-11,11,6
-1,-10,25,43,10,9,8,-9,0,-14
-9,-28,42,38,4,-2,-16,-11,-20,-21
-12,-45,11,13,-10,-9,-7,-14,-23,-35
-33,-52,-42,-6,-20,-15,1,-12,-9,-67
-73,-56,-64,-17,-32,-27,-3,-25,-3,-108
-92,-64,-24,-40,-39,-37,-8,-23,0,-113
-89,-58,-3,-55,-21,-37,-7,-19,26,-77
-78,-14,12,-46,-16,-25,0,-5,24,-49
-42,3,17,-45,-12,-9,14,12,17,-35
16,36,34,-32,-1,-3,41,21,31,-18
73,83,42,0,14,14,32,36,69,9
38,45,36,0,20,22,8,29,-29,-5
14,36,27,-4,28,19,16,30,-45,1
21,17,19,-4,30,13,34,29,-27,16
26,-8,19,-5,37,18,73,21,-24,20
14,-23,24,-4,29,19,82,4,-31,11
8,-3,-7,-7,13,19,69,9,-1,20
11,15,-115,-20,7,15,32,0,-4,8
-22,21,-105,-18,-6,5,-5,-18,-10,-37
-38,13,4,-33,-19,3,-12,-10,13,-36
-24,10,17,-36,-12,-3,-15,8,48,-27
-34,-1,18,-38,-23,-21,-31,5,22,-36
-46,-20,-3,-45,-39,-35,-20,-11,10,-51
-66,-29,4,-44,-41,-38,-27,-21,4,-41
-68,-11,11,-43,-40,-20,-32,-12,9,-21
-71,3,-8,-36,-36,-1,-12,0,23,0
-45,-6,0,-18,-15,0,-7,4,7,-8
3,-7,46,6,8,0,-8,16,-29,-4
29,2,48,25,19,17,31,21,-35,20
31,-7,12,37,34,27,51,28,-32,32
34,-12,-74,25,31,13,35,26,-48,31
23,-2,-48,19,25,16,17,17,-60,23
17,-4,44,19,29,7,3,7,-64,33
26,-14,39,11,21,-4,9,5,-47,20
29,13,0,7,14,10,-8,23,18,17
29,0,10,4,3,0,-27,22,1,11
-21,-42,-43,-9,-9,-25,-32,8,-57,0
-50,-57,-64,-17,-33,-28,-40,-2,-47,-7
-53,-73,-5,-18,-43,-21,-43,-5,-20,-9
-46,-77,0,-28,-38,-11,-40,6,-15,-20
-37,-78,-9,-43,-34,-17,-17,3,-45,-36
-31,-76,-25,-43,-37,-17,22,4,-64,-25
8,-70,-54,-29,-24,-17,37,8,-71,-7
35,-37,-25,-9,-1,-2,43,14,-74,13
44,12,39,3,22,13,41,28,-51,29
58,91,68,34,31,26,31,43,46,63
68,133,64,43,35,27,2,42,66,75
40,87,50,40,27,22,-5,17,-56,42
13,64,55,27,18,21,-11,13,-108,10
0,52,63,20,16,9,-15,8,-93,17
-35,22,57,14,4,9,-19,7,-87,27
-58,-25,40,-2,0,-1,-30,5,-68,18
-60,-42,31,-6,1,-11,-41,-6,-39,3
-44,-27,20,-13,-16,-14,-37,-16,-17,-1
-30,-10,-11,-40,-35,-25,-24,-7,-12,-9
-40,5,-112,-48,-37,-33,-2,-8,-15,-27
-54,-8,-104,-50,-37,-21,7,-9,18,-71
-67,-27,-1,-37,-29,-9,6,-14,25,-78
-49,-29,6,-16,-11,-6,17,-15,10,-60
-22,-23,16,-10,3,-1,30,3,16,-44
-18,-5,21,3,18,5,29,6,1,-30
-2,2,-19,19,9,19,0,10,6,-14
8,-20,29,29,7,30,5,11,-15,-5
18,-18,27,24,7,38,26,9,-1,10
35,-14,-2,15,6,42,42,35,62,37
13,-19,-16,-3,6,46,32,33,32,40
-20,-46,3,-3,15,52,23,0,-18,14
-21,-41,21,-8,15,35,9,-9,-11,0
4,-31,18,-12,1,22,-9,-5,-3,7
1,-15,11,-11,-6,17,-9,-8,10,5
-40,-20,11,-20,-10,15,0,-9,13,-3
-53,-40,0,-50,-17,10,-3,-12,23,-24
-31,-32,-7,-67,-34,-5,-13,-20,49,-10
-19,-9,12,-41,-31,-4,-13,-32,38,10
-15,12,12,-20,-7,0,-12,-34,10,3
-5,3,21,0,1,2,-2,-27,7,20
14,33,19,23,15,13,9,-12,41,59
78,114,-52,65,38,27,-5,17,158,97
83,142,-20,83,49,19,-25,29,182,92
65,132,70,88,54,21,-30,21,147,72
80,118,65,87,47,20,-25,11,110,57
69,69,52,69,32,8,-24,-12,-1,39
46,26,31,23,24,-3,-31,-14,-74,22
32,12,8,2,13,-12,-29,-10,-56,8
30,-7,0,6,6,-9,-34,-14,-54,-2
20,4,-71,-12,-6,-13,-40,-22,-42,-11
10,-10,-64,-25,-23,-18,-26,-24,-36,-25
8,-32,14,-19,-32,-11,-27,-16,-20,-50
-7,-24,9,-25,-27,-10,-47,-15,-4,-62
-43,-47,14,-30,-24,-12,-35,-21,-23,-77
-61,-43,-1,-34,-27,-18,-22,-27,-35,-65
-60,-22,-12,-27,-29,-29,-7,-14,-34,-43
-33,-26,8,0,-27,-25,27,-9,-43,-36
-18,-25,30,23,-8,0,28,-8,-42,-30
9,-17,39,21,16,10,10,0,-32,3
36,0,20,28,35,17,5,23,19,28
16,7,-16,23,42,30,2,21,-3,5
14,-9,8,26,42,41,5,3,-24,0
53,23,7,25,45,43,8,14,50,28
42,2,-7,5,29,21,1,11,29,22
24,-22,-30,-10,13,1,0,4,-36,20
19,-25,-43,-12,2,-11,-6,0,-16,11
-9,-33,-36,-9,-4,-13,-12,0,5,-1
-24,-52,-62,-6,-8,-5,-16,-1,7,-19
-24,-58,-133,-10,-12,0,-11,-1,24,-24
-20,-51,-89,-17,-20,12,-26,6,70,-26
-26,-56,-28,-26,-8,2,-43,1,78,-26
-38,-76,-17,-30,0,-13,-45,-2,21,-35
-50,-53,-9,-26,11,-16,-42,7,-13,-41
-24,-41,-76,-8,28,-17,-37,9,-46,-25
8,-38,-62,13,44,-7,-21,24,-35,4
39,7,23,42,66,8,-9,35,20,19
88,93,48,71,73,27,-4,43,112,62
88,98,48,78,67,26,10,34,99,66
92,103,41,83,64,24,37,41,129,66
83,87,20,47,56,18,26,41,145,64
33,16,-8,17,42,2,8,25,59,18
-10,-28,-7,2,34,-7,-17,-2,-54,-25
0,-13,-68,-12,31,-9,-17,-14,-62,-34
-12,-29,-140,-24,11,-5,-16,-16,-67,-21
-26,-31,-57,-35,-9,-15,-17,-26,-51,-31
-25,-60,-19,-52,-23,-18,8,-22,-23,-34
-28,-51,-26,-52,-27,-21,0,-13,-17,-38
-37,-23,-84,-31,-23,-15,-27,-11,-13,-51
-40,1,-77,-10,-17,-10,-31,-13,-13,-30
-36,5,22,-5,-6,0,-16,-18,-26,-7
-32,8,54,5,12,2,-12,-24,-49,13
-9,45,74,4,29,12,-7,-20,-60,20
15,73,85,1,35,17,3,-15,-58,25
35,77,87,11,19,20,29,-2,-43,38
38,70,49,21,17,8,52,1,-35,48
23,33,-47,19,27,0,58,-2,-22,51
0,-16,-84,1,31,2,59,-13,-8,45
-18,-38,-74,-12,31,-2,45,-25,-7,30
-27,-67,-20,-47,16,-12,27,-23,14,10
-33,-56,4,-53,3,-13,16,-4,42,1
-17,-11,40,-40,-10,-15,-8,8,116,12
-17,-42,19,-42,-26,-42,-26,-22,51,-6
-30,-60,18,-36,-36,-66,-26,-19,22,-36
-32,-54,28,-41,-34,-58,-28,-11,31,-61
-33,-48,34,-37,-28,-39,-17,-15,46,-62
-3,13,35,-20,-14,-28,-18,-7,111,-27
45,97,61,-3,3,-16,-20,14,181,25
73,129,78,15,18,-6,-4,22,158,39
67,105,59,17,23,8,11,18,93,27
55,63,-37,8,24,11,26,3,20,17
38,16,-29,-6,13,-10,21,-4,-47,-5
33,-2,61,-22,4,-13,18,6,-35,-12
18,-24,42,-40,8,0,30,18,-31,-10
9,-40,18,-30,18,1,20,1,-28,-14
4,-23,35,-21,9,-5,2,-1,15,-7
3,-12,34,-38,-6,-17,-2,4,24,9
10,-26,42,-34,-21,-26,-4,-7,0,0
2,-24,37,-23,-28,-36,-10,-15,20,-7
26,11,26,-13,-25,-32,-15,-8,119,18
19,-18,-3,-27,-24,-37,-16,-23,44,-2
-6,-24,-80,-34,-22,-36,-17,-26,-2,-15
-13,-22,-59,-32,-15,-37,-4,-15,-11,-16
2,5,-7,-39,-17,-29,3,-18,-29,-9
3,9,-79,-26,-17,-12,-10,-26,-32,0
-23,0,2,2,0,-5,-5,-16,-26,7
-10,14,40,7,23,12,5,-18,-7,11
7,19,33,22,27,17,6,-21,-20,14
2,18,43,46,29,15,4,-22,-19,4
7,33,53,43,42,19,4,-17,-31,-23
3,34,41,28,39,19,-11,-1,-50,-22
7,27,34,12,31,23,-20,5,-43,-13
1,19,28,13,20,14,-13,10,0,-32
-20,2,35,7,2,3,-12,0,6,-48
-46,-25,21,-9,-15,-1,-11,-2,-22,-54
-68,-19,-8,-17,-39,-6,-12,-2,-22,-41
-51,-12,-26,-30,-39,-14,-28,0,-9,-37
-38,0,-25,-28,-39,-19,-39,17,13,-28
-51,-15,-30,-35,-47,-19,-38,1,-17,-33
-49,-23,-34,-24,-42,-10,-23,-9,-36,-36
-18,-21,-32,-7,-31,-7,-21,-2,-29,-11
11,-8,-8,19,-8,15,-12,16,13,29
65,57,19,57,10,31,-5,44,104,90
71,54,26,66,13,30,-12,41,102,115
30,2,8,60,9,20,-11,17,-9,88
32,-20,-3,45,15,21,6,16,-48,72
39,-26,-6,29,6,23,13,26,-53,76
30,-6,1,24,-10,29,-10,25,-67,64
0,11,11,24,-13,15,-33,1,-87,41
-14,6,0,17,-20,5,-38,-7,-74,35
-4,21,-15,13,-31,-2,-22,-3,-55,30
-38,8,-21,-6,-29,0,24,5,-26,0
-63,-20,-29,-21,-30,4,40,9,-18,-33
-56,-18,-26,-24,-34,0,28,6,-14,-57
-35,-16,-22,-36,-40,-12,13,-4,-25,-58
-26,-27,-18,-26,-29,-17,13,-12,-26,-55
-16,-28,-32,-9,-16,-3,14,-3,-7,-44
17,0,-6,8,0,19,30,1,0,-38
28,2,7,21,16,23,39,0,-42,-8
24,6,19,31,26,32,51,-7,-54,-10
8,3,18,42,40,29,53,-6,-48,-10
19,-10,1,44,33,17,34,0,-41,20
40,-12,2,39,31,0,18,-3,-33,48
36,-16,15,41,23,0,19,-3,-38,44
14,2,19,51,23,7,26,-6,-40,14
-13,15,13,35,17,6,20,-7,-35,-4
-17,30,15,34,-4,-8,8,-16,-8,0
-38,19,-26,31,-18,-14,-34,-19,-13,-22
-55,13,-104,15,-29,-3,-58,-28,-31,-30
-47,-5,-40,0,-38,-11,-51,-34,-18,-26
-44,-23,-23,-9,-47,-42,-48,-35,-4,-39
-17,-15,-10,-20,-50,-48,-43,-24,-7,-51
9,-21,-15,-14,-41,-30,5,-10,-24,-52
19,-22,-36,-6,-27,-8,31,0,-31,-33
15,-15,-16,10,-13,22,35,18,-30,3
22,-12,-45,36,-13,29,47,14,-43,9
26,-12,-60,57,-2,37,46,8,-60,21
52,28,24,79,21,54,44,21,18,65
65,44,40,92,34,47,47,39,47,71
59,35,-28,97,28,35,30,41,28,57
14,4,-119,64,27,21,17,17,-41,19
0,-8,-117,46,25,18,13,5,-65,12
7,6,-105,35,13,0,0,0,-53,12
3,21,-56,15,2,-13,-21,-4,-73,-12
-3,29,39,-2,-9,-21,-30,-10,-54,-14
-17,-3,22,-43,-35,-32,-40,-28,-73,-17
-20,-35,7,-66,-41,-40,-46,-28,-75,-42
-19,-58,-45,-64,-46,-45,-51,-36,-49,-52
-33,-51,-58,-58,-45,-38,-53,-29,-43,-40
-20,-47,-24,-59,-39,-24,-31,-11,-53,-31
3,-16,-13,-44,-14,-14,-4,4,-9,-16
27,-13,-24,-33,-3,0,12,17,-9,12
31,-40,-27,-16,7,11,29,19,-52,15
46,-28,6,11,16,14,27,8,-43,28
66,-9,5,31,21,24,21,0,-30,31
66,-4,-68,44,22,36,11,1,-44,33
50,-9,2,49,21,50,20,9,-46,28
44,35,76,45,16,41,21,18,-32,21
31,64,83,30,9,18,13,10,-48,14
6,65,89,24,3,1,2,-6,-49,2
-2,79,72,12,-9,-11,-7,-12,-22,-12
-13,52,50,4,-22,-26,-15,-18,6,-18
2,38,16,-15,-31,-29,-19,-11,63,-19
0,27,-54,-31,-23,-29,-23,6,91,-13
-42,-33,-58,-49,-22,-31,-31,-8,10,-27
-39,-40,-34,-46,-19,-26,-1,-1,2,-30
-9,-31,-1,-45,-17,-15,15,6,2,-21
1,-32,0,-44,-10,7,20,0,3,-10
17,-1,-5,-19,6,28,10,1,43,21
40,35,-4,9,31,28,-10,5,82,54
25,-3,38,7,41,26,-19,-8,-9,35
30,-21,41,12,45,28,-24,6,-51,31
34,-43,3,1,37,21,-27,1,-54,35
39,-33,-87,-3,40,26,-29,-4,-42,39
20,-1,-53,-3,49,24,-27,0,-21,26
-15,-7,20,-2,54,15,-6,0,-18,9
-45,4,36,-7,43,7,14,-2,-7,-1
-28,16,29,-11,23,14,10,-2,9,-3
-34,-19,1,-33,13,5,-1,2,15,-12
-62,-52,-25,-54,6,-9,-8,-8,11,-30
-85,-49,-5,-59,1,-13,-11,-21,26,-55
-51,10,-8,-35,1,-7,-4,4,131,-14
15,40,-11,-20,9,0,-2,34,182,39
10,4,4,-18,9,0,-5,14,77,26
-5,-50,-3,-4,13,1,-8,-20,-34,7
33,-47,29,22,23,9,-4,-17,-37,26
57,-14,21,32,38,14,0,2,-15,36
37,-11,26,18,42,4,-24,-3,-42,38
42,-11,9,7,34,-1,-20,-6,-51,32
31,-6,18,0,28,3,9,5,-47,29
19,3,16,3,22,-1,1,10,-34,25
7,29,-46,-2,18,-10,-28,0,-12,19
-26,6,-69,-16,10,-17,-6,-9,-7,8
-41,2,-80,-9,11,-22,4,-25,-14,3
-38,10,-52,-14,10,-7,-3,-32,-18,-6
-53,-6,1,-47,-18,-22,-2,-21,-1,-24
-67,0,4,-54,-41,-30,-5,1,67,-22
-72,-20,-6,-51,-50,-30,-10,7,57,-23
-57,1,-9,-25,-42,-34,-38,0,56,-28
-9,56,23,-3,-30,-30,-51,21,107,34
11,11,38,-4,-28,-22,-51,5,20,25
19,-2,33,9,-5,-3,-48,-9,-10,9
10,-1,17,17,-3,-6,-28,-6,-28,21
5,-17,27,28,-3,-1,-22,-1,-34,20
0,-31,13,22,9,-4,-11,14,-20,7
-13,-38,26,23,21,4,-9,17,-17,4
-20,-36,27,15,20,15,-6,19,-11,-2
-34,-41,-2,12,13,5,6,16,-21,-4
-32,-34,14,0,0,1,-7,11,-7,0
-9,-33,20,-19,-14,0,-14,3,-7,-6
-27,-33,-4,-26,-22,3,-13,-2,1,-22
-14,-5,1,-14,-32,0,-1,-6,72,-27
31,63,-5,-17,-37,2,-9,9,181,3
13,80,-5,-24,-50,0,-16,13,182,2
-40,18,-7,-34,-60,-22,-21,-8,69,-38
-37,-36,-13,-24,-58,-34,-28,-12,-1,-41
-31,-54,1,-18,-35,-19,-13,-4,-21,-27
-21,-47,-14,-4,-17,-2,0,1,-54,-13
-2,-35,-71,9,-3,1,9,4,-55,-4
4,-6,-135,28,5,14,3,6,-37,7
3,4,-92,43,13,20,4,12,-50,25
17,31,49,49,23,19,17,12,-38,28
32,35,94,57,21,24,23,3,-18,24
18,15,84,47,13,18,15,-3,-42,-2
-1,19,71,33,-3,6,24,-1,-45,-16
-12,14,45,10,-9,-9,48,-10,-26,-25
-17,26,20,1,-17,-14,59,-13,4,-16
-15,28,7,-15,-24,-33,54,-7,7,-21
-14,13,6,-32,-41,-50,46,-10,12,-42
-26,-6,-7,-52,-57,-46,30,-20,14,-55
-45,3,-6,-67,-42,-37,28,-19,17,-61
-52,-11,-31,-55,-34,-45,11,-17,33,-54
-46,-15,-35,-36,-40,-43,-5,-28,7,-49
-37,-16,-5,-31,-18,-33,-5,-36,-3,-38
-34,-17,3,-20,7,-11,15,-25,-3,-24
-19,-27,11,-9,36,-1,26,-15,-1,-11
-12,-17,9,0,50,-3,24,0,7,-2
-20,-27,8,6,51,9,31,2,13,10
-23,-10,14,24,60,28,54,3,26,15
10,45,44,59,66,39,68,16,107,45
40,83,31,53,55,31,56,21,125,49
18,68,29,27,40,12,44,21,67,21
-13,21,20,14,15,-9,18,3,-7,-22
-26,16,5,8,0,-13,-9,-6,-9,-34
-28,4,-20,-6,-1,-10,-12,-10,2,-21
-29,-3,-45,-27,-10,-23,-23,-17,20,-35
-48,-8,-142,-45,-20,-32,-17,-21,38,-26
-71,-24,-113,-46,-35,-23,17,-14,45,-23
-63,-14,-78,-29,-26,-7,51,-1,74,-2
-29,-17,-9,-29,-14,0,45,2,62,14
-15,-40,-12,-9,-1,13,40,2,13,25
-18,-42,12,26,32,26,54,3,0,21
-27,-15,27,46,54,16,56,-2,-30,9
2,-2,36,57,67,24,62,10,0,30
72,72,69,78,69,25,56,26,75,67
47,54,69,57,52,10,38,0,-5,49
46,65,69,51,35,5,26,6,-22,36
33,85,89,39,28,-1,7,10,-6,23
3,79,88,19,23,-14,-3,5,-16,2
31,92,96,6,0,-27,-20,0,55,30
43,68,70,-4,-28,-36,-33,-10,67,24
1,-5,27,-29,-40,-31,-35,-11,29,6
-35,-29,-6,-56,-46,-37,-24,0,48,2
-36,-44,-46,-55,-44,-38,-13,1,37,-17
-11,-24,-31,-59,-39,-22,-15,-2,40,-26
10,15,-15,-47,-36,-7,-15,-5,18,-11
23,37,13,-16,-25,6,-6,-5,21,11
29,15,23,-2,-16,12,4,3,8,17
30,3,9,6,-3,15,16,18,10,31
72,41,-29,33,1,19,46,35,83,65
64,41,16,54,8,24,68,37,98,67
42,-6,14,45,13,18,52,22,35,36
65,22,21,49,21,24,35,38,93,51
19,-26,14,24,11,20,26,23,12,30
0,-42,8,13,5,9,24,17,-10,8
3,-55,-56,8,1,7,18,12,-16,-3
11,-48,-56,-8,-4,14,-17,-1,-15,-19
0,-53,10,-16,-28,17,-33,-2,-12,-27
-14,-60,-1,-21,-46,9,3,-2,-15,-53
-24,-66,-34,-39,-62,0,16,-2,1,-77
-48,-75,-35,-49,-62,-6,14,9,29,-77
-61,-77,-32,-43,-52,-6,4,6,29,-59
-46,-40,-34,-34,-35,0,-10,7,34,-40
-29,-27,2,-14,-27,10,-15,5,15,-33
-9,-31,37,10,-14,23,23,6,8,-18
-5,-26,40,25,-10,38,51,18,6,-8
-1,-14,46,43,-1,36,46,21,-3,9
8,0,56,56,12,38,30,23,-2,29
36,44,66,64,31,28,-17,26,10,46
72,78,42,59,30,16,-53,28,12,52
57,31,-12,40,11,5,-59,3,-71,30
39,9,-42,25,9,-4,-39,-7,-97,12
26,0,-39,7,2,-10,-37,2,-96,1
28,6,-75,-1,-7,-6,-55,12,-79,-5
60,7,-26,-9,-10,5,-67,11,-19,-11
93,15,35,1,-7,23,-65,9,46,-8
56,7,11,3,-19,17,-55,-1,45,-18
8,12,34,9,-23,3,-36,-1,20,-32
-23,-10,39,-20,-25,-18,0,1,-12,-25
-54,-40,11,-33,-13,-29,-9,0,-87,-47
-69,-36,16,-17,-2,-19,-39,-3,-107,-61
-55,-24,25,5,14,-13,-27,-10,-85,-46
-38,-17,13,30,30,-2,-6,5,-38,-26
-38,-26,0,36,19,13,-3,17,-49,-12
-40,-43,5,34,11,13,-15,5,-113,10
-23,-52,4,20,14,6,-6,7,-85,13
-40,-58,-13,11,20,-2,3,7,-72,-15
-31,-55,-96,16,13,-3,1,10,-77,-23
-29,-47,-76,17,9,-13,-5,11,-76,-15
-26,-37,-3,8,10,-29,-14,-3,-54,-12
-26,-27,19,5,-1,-35,-21,-7,-42,-24
-38,-12,24,13,-19,-44,-35,-6,-47,-33
-46,-10,0,0,-34,-60,-40,-5,-53,-34
-50,-8,-46,-11,-40,-64,-37,-6,-16,-42
-38,-1,-45,-17,-45,-61,-41,-11,-5,-36
-27,-5,-6,-22,-39,-56,-31,-2,-24,-22
5,16,17,-16,-29,-44,-19,-2,-41,-6
33,25,-24,0,-24,-31,-11,-15,-48,7
27,43,-37,9,-11,-18,-11,-15,-30,16
28,56,-25,24,0,-7,-21,6,18,65
84,65,-3,44,14,16,-18,20,57,95
102,53,67,68,22,37,-13,11,42,82
87,64,73,72,26,28,-14,2,28,67
73,31,53,68,20,16,-7,-3,17,39
72,2,-40,54,18,11,2,6,29,27
40,3,-96,18,9,-19,-1,20,4,10
-1,-29,-18,-8,-12,-38,-21,4,-58,-19
0,-38,-82,-29,-23,-35,-32,3,-49,-34
-1,-46,-127,-38,-21,-45,-45,10,-38,-41
-52,-61,-12,-40,-26,-43,-45,6,-39,-63
-75,-45,18,-41,-17,-39,-53,-16,-53,-69
-57,-21,32,-34,-17,-39,-51,-18,-57,-50
-13,-2,31,-25,-9,-21,-29,-23,-31,-26
34,28,39,-1,8,-1,21,-8,43,18
41,28,49,8,20,5,5,3,39,40
27,9,49,23,22,14,-3,8,-16,40
40,14,38,41,32,19,-3,24,-16,53
42,5,34,40,33,14,-5,28,-36,44
36,-12,25,48,32,24,2,21,-32,24
34,16,26,49,37,33,2,21,15,42
53,42,26,34,21,32,4,14,53,59
65,28,36,14,13,29,0,-6,58,42
61,16,34,13,4,32,-5,-21,64,33
33,10,14,-8,-1,8,-12,-11,48,28
18,0,-12,-19,-17,27,0,-7,62,8
-3,7,-106,-29,-32,22,19,12,92,-17
-34,-14,-132,-39,-46,1,28,-3,30,-41
-1,-16,-82,-12,-38,17,26,-26,68,-9
20,0,6,1,-23,18,23,-31,80,-3
27,34,34,-5,-13,3,23,-3,119,12
20,-6,39,-18,-6,1,23,-3,46,0
-4,-38,31,-26,7,2,28,-11,-60,-11
3,-26,36,-11,4,10,39,-2,-67,6
20,0,36,-10,7,25,47,8,-59,19
25,-10,36,-13,15,34,58,-1,-40,26
10,-27,18,-14,15,35,52,6,-48,7
-1,-30,7,-14,12,23,46,13,-55,4
-1,-28,9,-26,10,25,38,4,-59,4
0,-25,-39,-50,4,28,28,1,-51,0
-10,-17,-88,-43,2,27,4,3,-4,10
-9,3,1,-40,0,25,-11,8,65,24
-9,8,11,-42,-17,6,0,-3,77,28
-39,-21,-2,-48,-29,-3,-4,-1,48,6
-10,1,-5,-39,-24,13,-21,-2,78,6
31,3,20,-1,-8,34,-20,-5,91,20
19,-11,-7,18,12,49,-3,3,67,30
3,9,-105,15,13,36,19,1,9,17
-10,46,-83,9,26,26,15,0,-19,0
-18,47,-40,18,34,36,15,-2,-22,0
-2,37,-42,29,42,53,18,-5,-4,14
9,44,33,40,48,61,25,-5,25,27
13,59,96,15,41,32,21,2,5,32
54,81,89,17,51,15,18,16,70,62
57,52,56,24,66,34,21,26,111,70
9,-4,28,2,43,31,22,33,74,36
-53,-68,1,-28,0,-3,0,14,-52,-9
-65,-45,-14,-44,-6,-21,-6,3,-64,-22
-49,-10,-3,-50,-13,-27,-7,-6,-45,-13
-53,-10,-13,-53,-32,-45,0,-21,-42,-11
-48,6,-27,-51,-33,-48,1,-9,-22,-27
-48,-1,-13,-45,-20,-33,16,-11,-25,-44
-45,-19,-19,-31,-20,-25,19,-27,-40,-63
-31,-14,3,-15,-9,-19,16,-26,-15,-49
0,25,19,9,4,-1,22,-1,45,-10
14,43,24,23,10,2,33,-2,77,18
19,4,45,31,29,25,49,-18,49,33
23,-14,31,26,27,30,53,-12,15,54
39,1,-52,22,28,47,44,-14,17,48
38,48,-101,16,25,35,3,-13,10,42
27,72,-1,15,32,18,-10,5,14,43
16,36,9,11,29,10,-15,-3,-27,7
-34,-30,-30,-6,14,-6,-22,-14,-79,-42
-47,-41,-22,-3,-1,1,-17,-14,-40,-51
-10,-20,18,7,0,32,15,-18,34,-48
-29,4,9,-15,-20,14,24,-15,53,-53
-54,8,0,-32,-34,-8,9,-23,48,-52
-68,-4,-2,-42,-39,-32,8,-36,0,-56
-56,0,0,-37,-38,-36,-16,-36,-27,-75
-14,16,-22,-27,-22,-25,-30,-29,-8,-60
0,16,-88,-12,1,-18,-12,-23,0,-30
28,-10,-95,-10,16,-8,4,-17,-13,-18
50,-4,-5,0,32,-1,16,-2,-17,1
37,24,39,15,43,19,12,0,-12,11
48,55,52,32,53,17,10,-2,28,39
87,89,65,35,55,28,11,1,87,75
67,83,45,25,50,25,22,-5,68,78
57,57,-63,38,39,35,20,-13,44,68
21,45,-91,34,25,36,-8,-7,46,47
0,52,10,-1,9,17,-15,8,53,31
6,72,60,6,11,15,-9,27,122,29
-13,54,49,20,28,28,0,2,114,-10
-55,13,9,3,15,0,16,-13,82,-30
-64,-35,-65,-35,-11,-24,29,-18,35,-37
-75,-35,-95,-41,-26,-36,39,-29,-4,-54
-75,-5,7,-36,-37,-35,36,-25,12,-37
-69,-29,37,-24,-30,-35,16,-25,-13,-24
-39,-29,43,-27,-18,-24,-24,-22,-80,-18
-6,-25,43,-17,-8,-7,-35,-3,-93,1
-3,-39,32,2,22,0,-36,-2,-91,13
0,-44,45,21,47,4,-10,-7,-82,3
-5,-22,48,20,39,22,15,2,-87,-34
4,3,60,29,29,24,12,9,-86,-42
30,17,65,40,28,19,0,29,-56,-16
33,0,-7,50,30,17,-5,17,-71,-18
17,0,-62,42,22,1,-4,-1,-91,-40
5,3,-32,30,16,3,-8,0,-82,-32
4,3,-53,18,-3,1,-14,-5,-75,-33
21,5,4,-4,-15,0,-12,-8,-62,-44
-1,0,12,-20,-28,-10,-16,-7,-42,-51
-25,-15,15,-30,-36,-26,-21,-17,-23,-60
-33,3,4,-19,-31,-19,-9,2,28,-47
-31,0,6,-24,-27,-6,-2,11,10,-49
-33,-17,6,-16,-21,-10,1,0,-41,-56
-10,3,12,-8,-6,4,5,5,-46,-33
47,38,26,15,4,33,10,19,24,15
73,35,42,62,27,53,19,16,55,29
54,23,46,67,40,53,3,6,26,33
76,25,71,72,47,59,-4,7,54,57
99,32,80,85,46,58,-7,-1,58,60
88,41,80,75,43,53,-19,1,38,60
16,29,50,49,26,27,-13,7,-17,32
-39,-13,19,20,10,-5,21,4,-38,-3
-48,-35,3,-4,-7,-7,24,2,-11,0
-30,-4,-18,-3,-12,-13,22,15,58,3
-35,-8,-79,-5,-32,-33,7,3,67,-27
-70,-41,-42,-36,-47,-40,-6,-15,8,-78
-57,-40,-38,-46,-52,-30,0,-5,23,-89
-65,-39,-56,-42,-58,-30,-16,-4,21,-91
-73,-4,-118,-31,-58,-35,-36,-17,10,-64
-50,-10,-78,-13,-47,-23,-31,-3,-5,-35
-36,-3,18,2,-18,-10,-20,8,-9,-10
-27,18,31,8,0,4,-17,15,-18,6
-11,10,36,14,10,19,5,13,-11,22
5,13,45,30,30,40,10,26,38,25
18,29,37,40,39,48,13,32,91,34
18,23,20,36,42,38,45,24,65,19
19,24,-4,29,29,23,53,5,17,2
58,23,-81,55,27,43,31,1,48,6
50,11,-49,51,4,45,12,0,82,19
26,10,-49,32,-21,30,36,1,106,22
-18,-7,-140,-8,-38,-15,29,-10,65,1
-40,-29,-57,-42,-54,-35,11,-10,46,-26
-56,-8,-3,-60,-63,-28,14,-9,37,-38
-82,1,3,-63,-62,-39,2,-8,13,-49
-75,-11,19,-47,-41,-40,-24,-4,7,-32
-42,20,18,-29,-28,-25,-30,18,50,-4
-15,56,23,-15,-21,-19,2,23,71,24
-1,25,-1,-16,-12,-16,34,18,-11,15
20,14,53,-5,3,1,30,24,-21,14
3,-12,54,-13,7,20,22,31,-21,11
11,-7,50,-2,15,28,33,38,-15,28
32,8,36,-4,20,32,26,36,-20,43
10,32,30,-17,32,26,13,31,-10,39
-16,63,46,-5,32,28,-20,23,-13,36
-3,79,81,3,15,19,-32,17,-14,22
11,58,93,0,-7,-1,-29,-3,-18,-11
18,46,72,6,-16,-19,-44,-22,-12,-21
2,13,30,-23,-28,-40,-46,-13,0,-9
-8,-33,-11,-48,-33,-47,-45,-22,31,-9
-27,-30,-15,-51,-41,-44,-51,-35,29,-22
-44,-26,-67,-48,-53,-41,-48,-37,17,-25
-65,-23,-111,-48,-54,-36,-38,-25,26,-13
-37,-2,-9,-40,-42,-32,-28,-14,53,10
9,14,29,-4,-22,-15,-14,-10,75,25
22,12,10,4,-6,8,-12,-10,36,43
24,13,29,1,13,22,-10,-2,20,41
39,24,53,8,20,27,-13,-10,26,38
70,57,59,23,25,34,9,-1,80,68
57,57,54,40,33,26,42,15,101,62
49,8,57,40,41,38,42,9,52,26
70,-11,60,36,26,45,29,-2,33,10
55,-25,50,25,19,35,-10,-10,4,7
18,-35,7,0,13,3,-37,-1,-16,-3
5,-3,-23,-11,2,-15,-55,17,34,2
-12,-31,-24,-32,-13,-19,-54,9,7,-22
-40,-68,-36,-76,-33,-27,-55,-12,-82,-51
-19,-64,-36,-80,-50,-29,-43,-11,-83,-42
-17,-43,-45,-68,-42,-24,-17,-18,-88,-39
12,-19,-36,-57,-21,-27,-13,-23,-95,-26
29,-13,-91,-30,-12,-20,-21,-20,-101,0
35,-14,-66,-22,-1,1,-28,-16,-98,11
23,-29,-9,-18,9,8,-25,-14,-105,25
27,-40,-13,-9,24,13,-4,-5,-108,31
59,-40,0,9,43,14,23,-3,-108,27
55,-26,23,34,45,26,30,0,-74,34
20,-23,18,34,42,18,22,-8,-84,27
-30,-41,-2,4,40,8,18,-18,-122,-10
-45,-33,-12,-13,41,5,15,-8,-67,-31
-31,-23,-2,-28,38,8,13,4,7,-13
-25,-8,-11,-38,23,-1,10,15,43,-4
-10,-15,-2,-21,13,0,0,-12,32,-4
-9,9,-6,-30,2,-16,-27,-13,32,-5
-36,18,-44,-53,-13,-42,-48,-4,32,-10
-33,-21,-105,-41,-25,-34,-42,-1,-2,-8
7,-11,-37,-9,-11,-6,-32,2,16,3
15,3,-14,1,5,-6,-29,4,-2,-11
-2,13,-11,-10,2,-27,-20,2,-60,-13
-4,11,-50,-12,0,-25,-11,1,-107,3
19,2,-16,-2,22,-17,-4,14,-109,35
30,-5,6,16,38,-7,1,22,-87,49
40,-1,10,32,36,1,6,40,-73,45
74,-6,25,43,26,8,8,39,-54,46
70,-12,9,50,13,12,5,26,-52,45
49,-33,-2,42,-1,7,0,25,-39,45
12,-28,0,35,-7,-3,-8,20,-38,5
-35,-20,3,38,-13,0,-8,18,-26,-22
-58,-21,-14,0,-17,1,-17,15,-16,-50
-63,-16,-6,-7,-14,-8,-29,4,-8,-73
-65,-17,-40,-12,-24,-12,-28,3,23,-64
-33,2,-29,-17,-41,-15,-25,6,58,-43
-24,17,0,-7,-37,-17,-37,13,87,-4
-23,-12,-29,-4,-40,-5,-37,-8,54,14
23,-13,-112,23,-30,16,-23,-15,81,31
10,-27,-102,23,-20,18,15,8,63,13
-10,-1,-4,20,2,24,58,38,45,-11
-19,-1,7,25,17,30,70,35,12,-15
20,-1,23,45,22,31,74,30,24,13
56,21,48,61,30,39,55,26,33,39
42,41,-24,56,30,45,49,29,45,34
-1,31,-71,24,15,6,43,25,-11,6
-43,-3,4,9,2,-7,36,8,-61,-9
-32,2,0,-23,-8,-10,27,16,-37,-17
-28,-3,8,-37,-23,-14,22,22,-19,-22
-21,12,1,-24,-27,-28,14,4,1,-19
-20,32,4,-25,-25,-41,-9,-8,14,-36
-31,34,-7,-23,-30,-40,-27,-20,23,-51
-43,24,-30,-27,-41,-36,-48,-23,20,-55
-55,29,-20,-26,-45,-33,-56,-21,14,-42
-25,31,-4,-23,-28,-25,-50,-29,19,-30
-24,7,-31,-12,-15,-30,-28,-25,4,-31
-28,4,-32,0,-11,-24,-9,2,-14,-14
19,3,12,15,4,-6,5,-3,0,14
52,24,-34,46,22,16,23,-3,42,40
54,33,-114,75,27,23,15,3,58,68
71,45,-70,69,28,22,21,0,81,73
96,24,-15,78,35,37,25,-12,83,72
91,13,-15,72,18,38,27,-20,101,70
51,27,64,47,-2,17,20,-3,109,48
37,47,65,32,-9,0,3,7,113,39
12,33,68,20,-5,-5,-16,-17,31,0
-13,41,68,-5,-7,-23,-15,-38,-10,-26
-28,36,59,-29,-17,-47,-17,-43,-9,-30
-41,11,47,-59,-35,-61,-24,-29,14,-40
-66,-36,16,-72,-50,-57,-32,-5,11,-56
-54,-38,3,-75,-52,-46,-19,13,11,-52
-25,-13,-15,-50,-57,-32,-16,8,14,-15
-7,-9,5,-14,-29,-21,-17,-10,9,0
-3,24,41,27,1,-13,-31,-35,-21,0
42,50,77,58,27,17,-32,-49,-8,16
29,26,52,45,28,59,10,18,64,23
7,-10,3,5,7,42,39,54,46,4
16,-24,-5,-15,8,14,38,43,-17,-10
31,-6,-11,-7,12,4,18,33,-57,-12
42,0,-111,-26,2,-6,23,23,-66,3
37,4,-133,-29,-3,-24,17,24,-66,13
33,0,-109,-22,-5,-9,11,28,-30,-2
47,16,-12,-14,-14,-14,11,20,41,-31
8,-13,22,-25,-23,-23,3,3,3,-65
-27,-19,44,-43,-39,-34,-1,-15,-18,-62
-42,-16,36,-45,-54,-43,1,-33,-25,-67
-37,-18,36,-49,-57,-42,-2,-29,-20,-73
-30,0,34,-32,-42,-43,4,-17,-25,-51
-8,-15,37,-21,-32,-32,8,-14,-31,-29
23,-7,39,-23,-20,-12,0,-1,-34,-4
33,8,43,-3,3,1,-8,0,-29,15
42,24,49,19,10,7,-12,4,-34,16
43,12,34,11,13,11,-10,8,-26,21
29,-1,41,9,27,16,17,20,15,45
8,-7,25,17,23,7,42,14,-14,40
-2,4,35,24,18,-4,26,13,-34,24
-12,11,16,20,13,-15,19,7,-23,26
-4,-9,-20,7,6,-22,25,-7,4,36
-33,-13,9,-5,8,-20,29,-4,21,14
-42,0,11,-7,4,-25,7,-3,15,-13
-41,2,-6,-16,-25,-40,-9,1,22,-16
-49,-15,-5,-18,-41,-40,-17,5,34,-15
-60,-27,-31,-18,-43,-25,-17,3,32,-32
-53,-33,-33,-4,-28,-11,-12,-4,10,-16
-21,10,-20,8,-3,-1,-46,22,60,27
39,103,-21,9,0,4,-51,52,170,73
45,94,2,8,3,2,-40,55,117,70
6,8,-45,-12,2,4,-36,21,-45,31
0,-12,-25,-11,1,11,-37,16,-92,15
8,-27,23,2,3,19,-28,28,-85,2
23,-38,9,18,6,19,-29,20,-90,-1
17,-30,14,31,12,28,-29,26,-53,15
-17,-35,-13,14,6,25,-24,15,-56,2
-42,-46,-12,2,-2,10,-18,2,-80,-6
-50,-35,-19,4,1,-1,-20,-11,-70,-36
-58,-19,-49,-7,-10,-1,-21,-18,-54,-52
-48,-20,-38,-22,-30,-1,-29,-17,-45,-54
-53,-23,-30,-35,-40,-22,-32,-19,-42,-52
-70,-21,-30,-42,-34,-25,-43,-13,-22,-39
-49,-25,-51,-42,-39,-20,-37,4,27,-17
-50,-6,-56,-38,-37,-33,4,1,8,-9
-71,0,-77,-34,-26,-34,22,-3,-18,-16
-40,4,-94,-15,-8,-4,34,8,-7,13
6,28,-130,12,3,19,44,22,44,47
-5,5,-52,27,9,18,48,6,-15,27
-6,2,15,49,33,23,20,-4,-55,16
15,-11,40,64,48,45,-5,6,-45,33
78,7,95,102,54,68,14,-7,18,60
101,31,114,110,68,63,33,-14,56,54
84,22,103,108,64,60,43,-15,56,49
47,8,52,82,46,48,37,-25,45,47
12,-6,19,29,28,3,17,-35,-1,18
-38,-34,-21,-1,8,-40,-13,-38,-27,-10
-75,-53,-99,-19,-13,-43,-33,-24,-22,-26
-82,-53,-171,-35,-38,-43,-32,-17,-27,-40
-82,-45,-135,-34,-39,-50,-23,-18,-9,-62
-77,-34,-40,-19,-33,-49,-23,-26,-10,-73
-75,-37,-5,-15,-27,-33,-23,-33,-21,-66
-69,-32,14,-10,-11,-23,-18,-33,-25,-44
-29,-24,70,6,7,-11,-10,-9,-35,-32
-2,-24,20,18,16,-5,0,0,-34,-21
30,-13,-43,21,24,8,24,14,-9,13
26,-16,28,21,18,4,36,-7,-26,30
20,1,28,21,17,8,1,-27,-41,23
47,35,69,21,30,12,-3,-7,-5,36
64,74,78,22,44,12,-1,3,57,48
48,40,45,1,25,4,0,-7,7,38
29,18,-17,-17,23,-11,16,-4,-29,15
5,13,-3,-5,30,-26,-5,-8,-25,0
0,27,43,-4,25,-23,-20,2,17,5
1,39,37,-19,6,-29,-27,6,78,13
20,95,24,-25,-17,-47,-28,18,161,28
31,94,38,-20,-23,-58,-13,16,160,38
16,43,43,-20,-30,-48,0,2,73,43
14,37,41,-29,-12,-40,24,-5,23,41
7,12,37,-25,9,-17,32,-13,-14,36
20,-22,48,-10,16,1,3,-8,-58,46
94,-11,80,29,34,35,-1,-8,-33,73
121,-2,87,41,42,48,9,-9,-10,81
114,-17,74,47,38,39,27,-10,-6,79
82,-18,42,23,30,23,23,1,-40,60
45,-37,15,-2,27,8,8,11,-66,35
14,-54,1,-15,9,-4,-5,6,-57,23
-30,-53,-15,-4,11,0,-12,2,-63,10
-33,-58,-11,0,17,7,-19,-6,-55,-1
-27,-29,-57,0,-1,-3,-23,-8,-40,5
-79,-46,-33,-3,-22,-17,-24,-11,-18,-16
-94,-51,-58,-17,-26,-10,-14,-8,26,-46
-47,-37,-31,-18,-29,11,-13,-9,89,-27
-37,4,22,-12,-26,-2,-18,-4,135,6
-61,-23,34,-12,-12,-14,-6,-21,61,-32
-71,-60,31,-6,-6,-2,-3,-43,-34,-65
-41,-55,20,6,12,18,18,-34,-39,-45
-14,-60,-23,17,24,17,23,-27,-50,-14
-15,-61,-110,26,23,12,17,-9,-48,-3
2,-37,-45,22,34,32,22,22,16,19
27,10,-4,37,42,48,54,45,75,28
3,-12,34,50,31,62,60,32,53,10
10,-26,34,40,15,54,39,29,56,20
31,-10,31,15,11,37,34,34,62,23
58,-28,33,6,3,42,30,8,24,14
45,-20,38,18,5,48,18,-6,46,11
2,14,21,16,0,20,14,0,66,2
-29,40,16,-3,-9,-15,0,5,64,-23
-66,7,12,-29,-30,-50,-31,-19,-17,-53
-70,6,11,-31,-44,-53,-40,-27,-33,-45
-90,43,-11,-10,-22,-28,-35,-7,6,-40
-88,45,-102,-3,-6,-12,-29,10,23,-42
-35,5,-65,9,-13,-8,-30,7,-12,-16
4,-15,-4,37,-3,1,-17,2,-25,10
-14,-52,-56,19,5,-19,-12,6,-74,6
-15,-51,8,12,24,-10,-17,8,-78,8
-17,-45,19,24,38,0,-19,-3,-66,7
0,-46,26,40,43,10,-12,-1,-52,13
-14,-33,17,40,33,15,6,6,-59,15
-19,-30,-87,26,17,7,0,3,-50,8
-6,-16,-154,25,14,6,7,3,-33,0
6,-11,-59,5,-3,2,25,-2,5,6
3,-27,-12,-11,-15,-9,17,-3,-5,-11
-15,-26,-10,-25,-29,-14,15,-3,2,-39
-34,-22,-26,-39,-48,-23,13,0,13,-46
-55,-26,-40,-51,-38,-21,6,0,7,-49
-81,-21,-14,-49,-39,-25,2,-7,1,-53
-74,-9,18,-39,-29,-23,-1,-6,0,-55
-71,-24,1,-36,-16,-13,-16,0,7,-39
-58,-34,-95,-23,4,0,-16,2,21,-27
-23,-6,-140,-8,16,2,-5,3,16,-19
12,4,-88,-5,12,9,0,3,1,18
37,13,22,3,30,22,7,6,27,17
46,48,70,12,41,30,12,11,60,7
26,8,53,7,29,24,18,3,22,-12
45,22,63,16,19,20,31,13,39,-6
56,26,69,26,19,35,52,14,62,13
40,28,76,26,15,41,66,11,86,25
41,40,70,34,13,40,54,8,97,6
31,20,56,10,0,27,37,0,88,0
9,14,45,-18,-20,4,26,-5,85,-10
7,19,44,-15,-34,0,4,-16,102,-32
6,18,24,-23,-49,-10,6,-16,112,-43
-7,60,-3,-27,-49,-31,14,2,135,-31
-33,28,0,-39,-29,-46,-6,0,66,-49
-30,8,-8,-34,-25,-42,-10,-10,14,-39
15,52,-74,-5,-30,-29,20,3,56,15
88,84,-22,16,-17,-20,39,9,88,53
115,75,29,18,-9,-21,39,17,33,45
88,59,-2,24,2,0,40,14,-7,24
40,28,-7,24,3,7,26,0,-51,7
20,9,43,13,0,7,0,-2,-47,13
18,24,42,-2,-7,2,-17,-1,-17,19
5,26,32,2,-6,-6,-11,-2,2,4
-20,-22,-21,-34,-44,-30,-48,-8,57,-51
-40,4,-106,-59,-51,-45,-35,4,87,-41
-13,15,-115,-43,-42,-29,-14,17,107,-2
-10,0,-54,-15,-28,0,0,1,70,-1
-36,8,48,-13,-12,-13,-5,-10,28,-23
-2,24,67,10,8,12,25,-7,7,0
29,39,70,24,13,20,46,5,20,28
11,30,63,22,8,0,43,-10,-13,18
42,31,47,45,15,23,42,-23,-4,31
31,37,94,37,31,12,35,-29,-33,30
-2,7,95,23,24,-5,24,-46,-68,9
-8,-16,62,11,16,-12,22,-40,-69,4
19,-4,56,8,16,-4,31,-24,-6,4
28,29,46,3,3,-4,25,-23,50,7
-7,-16,32,-40,-28,-19,15,-32,-32,-24
0,-37,19,-72,-36,-24,-6,-35,-58,-39
-12,-26,0,-58,-33,-39,-31,-30,-91,-56
-53,-28,-5,-53,-36,-41,-37,-20,-73,-64
-62,-24,-7,-58,-39,-42,-34,-22,-43,-44
-13,-27,-11,-45,-13,-12,-50,-22,-54,-31
32,-14,-30,-30,0,-3,-50,0,-61,-17
36,-12,16,-37,5,-8,-35,16,-78,-8
57,-10,28,-14,21,4,-43,15,-79,12
71,-6,57,16,29,3,-59,8,-84,34
74,15,58,37,39,10,-59,15,-33,53
59,25,28,36,40,18,-53,22,-6,44
63,5,-12,37,41,23,-50,-10,-50,26
80,1,-6,50,48,29,-51,-15,-45,10
62,-7,-2,26,32,18,-41,9,-65,-4
50,-31,8,10,13,24,-34,-1,-85,-13
52,-43,23,10,3,31,-24,-20,-80,0
-9,-56,3,-21,-12,3,-26,-22,-122,-32
-64,-44,-22,-45,-5,-15,-31,-21,-123,-51
-73,-21,-9,-49,-9,-27,-27,-16,-71,-47
-88,-13,5,-53,-14,-27,-30,-24,-71,-62
-105,-29,9,-37,-1,-30,-28,-27,-87,-71
-79,-23,17,-28,-5,-30,-25,-20,-94,-41
-60,-3,-5,-23,-1,-14,1,-9,-85,-32
-21,2,-2,12,20,15,18,9,-36,-1
17,-10,-2,21,28,23,10,26,-27,19
42,-14,18,29,36,39,15,17,-41,29
65,-1,22,51,39,58,25,13,-15,23
51,17,-6,24,38,46,24,30,-11,16
48,3,-14,11,31,37,23,30,-31,21
88,-11,8,18,27,47,18,17,0,31
73,28,3,-10,23,25,3,17,7,24
41,15,-9,-26,11,14,-16,18,-2,17
49,-7,2,-5,21,32,-10,8,12,23
53,1,7,1,8,17,-1,12,30,1
16,-12,-17,-34,-12,-16,-8,23,14,-32
-8,-16,-42,-60,-17,-18,-8,15,18,-33
1,7,-12,-47,-18,-14,0,12,46,-14
14,87,-8,-44,-21,-28,0,33,99,19
12,147,6,-16,-6,-18,0,51,151,52
23,176,30,10,12,0,8,63,145,78
30,155,-3,38,16,10,6,59,113,84
1,110,-28,47,33,16,1,37,46,61
7,75,23,50,46,26,7,23,29,53
21,47,2,35,41,26,-8,16,-15,54
28,79,-66,35,41,14,-21,17,8,80
4,80,-125,27,29,19,-59,15,3,64
-18,41,-106,-2,16,20,-65,0,-64,24
-14,19,-24,-2,8,10,-51,0,-74,12
-35,9,9,-10,1,-8,-46,2,-53,10
-18,-4,-46,-3,2,8,-27,-6,13,18
-27,-32,-22,0,-13,2,-46,-16,-6,10
-53,-33,23,-11,-28,-11,-46,-16,-9,-13
-110,-20,22,-41,-41,-19,-44,-19,-38,-67
-157,-57,9,-48,-49,-28,-57,-22,-88,-97
-147,-63,1,-39,-33,-28,-30,-20,-100,-90
-122,-45,3,-37,-13,-16,28,-12,-100,-64
-78,-41,-5,-16,8,0,53,0,-73,-30
-30,-18,45,22,30,38,55,9,-12,-10
-8,0,61,35,26,42,33,9,0,10
5,-9,57,44,35,50,26,6,-4,43
2,-25,48,37,35,24,26,-7,-54,36
-34,-38,3,26,32,-4,16,-19,-104,8
-57,-50,-94,16,31,-2,0,-26,-95,-7
-30,-32,-77,8,21,-6,-12,-21,-45,4
7,0,19,20,12,0,-10,3,35,28
34,-20,34,17,4,12,-19,-6,38,5
37,11,32,-18,-14,-8,-21,0,57,-13
2,10,2,-48,-37,-27,-30,-2,44,-49
-56,-45,-21,-48,-46,-37,-29,-34,-48,-94
-71,-49,-13,-46,-45,-38,-50,-25,-54,-90
-54,-50,13,-54,-35,-22,-38,-2,-38,-72
-52,-29,1,-53,-19,-17,-21,9,-51,-72
-40,-33,16,-38,-2,-21,-12,10,-51,-43
-27,-40,19,-5,6,-25,10,3,-50,-13
-20,-20,43,21,18,-12,36,-3,-72,-12
-1,-22,54,23,24,1,54,-5,-88,-14
7,0,36,29,20,21,48,0,-77,2
23,-6,-52,49,25,28,57,4,-58,15
23,-18,-45,59,28,30,60,12,-46,17
59,37,29,51,29,37,57,35,37,31
115,108,43,52,21,44,61,58,154,59
123,96,38,29,0,30,56,44,155,48
91,53,16,1,-10,5,33,16,98,36
29,-13,-22,-18,-21,-11,11,-11,-19,4
22,-32,-21,-23,-37,-15,11,-14,0,-17
62,29,-8,-12,-32,0,40,16,133,6
44,33,-2,-4,-24,8,60,22,93,1
19,-8,23,-4,-14,8,61,4,0,-26
48,-41,45,28,-3,29,67,-6,4,-19
71,-34,61,53,11,42,62,-2,33,15
79,-32,73,43,19,41,73,7,17,38
82,-27,77,49,35,47,81,11,15,33
53,-38,44,35,36,42,59,29,-22,10
27,-54,35,14,22,13,51,25,-76,-12
20,-36,18,13,27,8,58,15,-79,-16
21,-30,3,4,25,3,51,8,-68,2
-2,-24,16,-8,16,-23,17,10,-68,-10
-16,-36,11,-14,7,-21,-15,6,-57,-22
-33,-16,1,-26,-3,-17,-25,-4,-34,-20
-38,-32,-14,-31,-11,-26,-35,-5,-39,-5
-49,-40,-33,-33,-13,-34,-45,3,-10,-18
-79,-50,-42,-39,-20,-47,-39,-1,16,-42
-92,-60,-60,-45,-29,-51,-42,-5,15,-58
-78,-61,-57,-45,-22,-37,-48,-3,15,-55
-60,-39,-76,-37,-22,-28,-39,-4,21,-25
-32,-27,-28,-22,-7,-21,-20,2,31,-18
21,6,11,4,23,-7,0,30,87,17
83,89,13,41,39,15,0,50,154,68
102,115,-1,40,51,21,4,56,180,83
91,97,22,21,58,33,14,66,168,66
51,24,20,-7,45,26,34,35,65,44
0,-36,-6,-19,31,8,52,9,-26,24
-16,-43,-25,-10,19,7,36,2,-29,13
7,0,-70,5,29,7,11,19,37,29
37,78,-117,28,17,15,12,54,157,51
18,30,-54,13,-4,19,31,37,125,26
27,-11,38,10,3,46,30,4,92,-3
15,16,27,5,-6,33,16,1,107,-12
8,23,30,-16,-30,-7,-1,8,122,-10
23,-12,23,-5,-31,4,-11,0,122,-5
15,-37,37,-6,-25,14,-18,-16,94,3
-5,-59,12,-14,-18,-6,-5,-9,82,0
-41,-66,-14,-33,-1,-16,2,-4,31,-11
-44,-56,8,-37,16,-8,8,-5,-23,2
-4,-30,25,-24,29,6,19,9,-30,40
15,-36,24,-17,25,7,28,10,-32,46
0,-42,26,-6,21,11,16,21,-22,34
-1,-22,37,3,25,14,6,21,-17,12
-21,-6,45,6,24,12,10,13,-16,14
-37,13,60,-1,12,-1,19,10,-22,21
-16,20,63,-18,10,0,15,8,-27,19
-14,24,47,-22,5,6,15,0,-13,0
-35,45,-65,-18,-3,-10,3,-6,-4,-10
-24,48,-79,-20,-15,-23,-12,-14,6,-8
-15,64,23,-25,-32,-20,-36,-11,67,-18
-31,47,38,-7,-32,-18,-51,15,83,-20
-16,-5,37,12,-19,-3,-30,3,59,-2
5,16,16,14,-14,-14,0,-12,45,24
30,27,4,16,-8,-8,-1,0,75,32
54,-21,9,9,9,27,3,6,51,32
39,-24,27,7,15,56,16,15,37,40
17,-20,31,10,-4,49,23,16,-14,34
41,11,48,18,5,45,22,4,-31,46
69,60,58,20,15,31,-16,9,-15,44
42,39,56,32,16,25,-34,0,-25,29
45,10,57,30,21,43,-33,-26,-22,22
37,6,31,-1,19,25,-43,-28,-61,-2
8,7,10,-8,2,-5,-46,-23,-69,-12
32,67,0,14,3,-6,-42,11,57,16
26,96,-1,8,2,-13,-43,25,132,37
-2,90,-17,0,-10,-20,-44,14,112,18
-26,49,-22,-18,-24,-37,-35,-7,55,-46
-17,43,-32,-25,-36,-40,-36,-2,84,-55
-2,25,-64,-27,-38,-24,-31,4,70,-30
-7,-14,-61,-36,-29,-14,-27,8,-9,-34
-21,-29,-24,-25,-29,-19,-33,9,-49,-47
5,39,-12,18,-10,2,-31,33,42,-17
18,36,-8,35,9,7,-27,39,44,-5
16,-30,-3,25,16,8,-13,14,-60,-16
-2,-62,-2,18,16,13,-14,3,-148,0
23,-54,-21,15,22,17,0,7,-116,20
35,-28,-46,4,35,9,17,9,-74,19
44,-4,-13,8,31,5,10,11,-37,18
54,-17,-7,12,31,2,-26,-11,-63,-2
82,-15,21,21,33,25,-35,-20,-26,2
77,-41,23,14,27,25,-34,-18,-27,10
54,-44,-9,-6,6,3,-21,-27,-47,-10
14,-28,-133,-28,-7,-36,-28,-30,-40,-18
-24,-25,-198,-42,-30,-56,-36,-31,-35,-10
-67,-35,-137,-40,-49,-66,-46,-48,-95,-44
-68,-32,-11,-20,-44,-53,-47,-50,-109,-62
-63,-40,17,-2,-32,-40,-31,-39,-105,-55
-46,-46,30,19,-13,-7,-9,-25,-75,-34
-16,-30,33,35,2,10,-6,-14,-40,8
-26,-20,17,8,10,-21,4,-15,-76,18
-16,1,9,13,16,-24,11,-9,-72,20
-4,-1,11,11,17,1,26,3,-70,22
2,-7,18,6,26,20,25,5,-71,13
-11,-17,-5,1,17,16,15,4,-77,4
-11,-21,10,0,6,8,19,-9,-69,-5
-33,-33,-1,4,-2,12,31,-5,-31,-18
-48,-38,-1,-1,-15,10,22,-15,-5,-24
-62,-24,-45,-17,-16,-2,1,-22,-17,-27
-46,-18,-149,-25,-24,-8,-9,-19,-9,-38
-47,-29,-105,-40,-42,-15,-17,-26,13,-36
-58,-37,-8,-41,-62,-23,-27,-24,19,-35
-51,-25,0,-20,-60,-22,-19,-27,34,-41
-44,-9,18,0,-38,-5,-7,-22,59,-38
-55,-22,18,17,-15,1,9,-21,29,-24
-36,-28,19,36,-7,6,43,-22,0,19
-6,-1,18,41,0,9,53,-10,28,64
48,85,50,56,20,36,74,28,160,130
102,137,57,65,24,45,75,31,209,138
120,118,44,58,17,34,64,20,155,115
89,61,41,37,18,13,53,14,99,104
46,22,12,20,26,5,21,-3,33,55
19,-22,-14,3,25,5,3,0,-56,-16
18,-40,29,-14,5,2,6,-7,-74,-67
-9,-27,14,-24,0,-5,14,-12,-76,-80
-15,-34,17,-31,-1,-2,10,-21,-57,-90
-51,-28,9,-42,-17,-17,4,-29,-32,-89
-71,-47,-18,-50,-37,-31,-1,-42,-32,-87
-42,-36,-26,-46,-45,-24,-19,-32,-36,-72
-40,-22,-29,-30,-42,-13,-17,-22,-37,-62
-20,-32,-39,-17,-41,-6,-13,-7,-51,-52
-3,-10,9,-21,-29,0,-5,5,-47,-15
9,2,25,-16,-11,14,2,6,-42,-4
43,8,25,-8,-4,27,-2,5,-63,5
70,23,28,1,3,33,3,15,-71,34
66,-5,16,8,10,29,34,9,-74,36
39,-10,0,20,13,24,57,8,-61,21
32,-8,-44,24,18,29,36,9,-47,30
27,-9,-8,18,2,17,20,-3,-36,25
31,-22,20,25,-4,7,25,-1,-5,21
20,-28,19,19,0,4,20,4,29,10
-9,-38,7,1,-12,-9,-14,-5,20,0
-52,-29,-6,0,-22,-22,-23,-4,33,-10
-60,-17,-14,-7,-33,-27,-30,-3,47,-16
-54,-8,-10,-19,-42,-26,-37,-11,52,-23
-44,-6,-11,-7,-42,-26,-28,-8,62,-28
-10,30,6,8,-34,-31,-26,-3,110,-13
-14,14,3,11,-20,-33,-20,-18,66,-22
7,9,20,31,7,18,1,-20,97,-11
63,34,47,57,29,56,21,-9,142,25
104,24,54,58,27,66,15,-5,117,56
106,7,49,48,36,63,14,-9,80,41
106,17,41,43,41,49,17,0,59,28
124,73,48,33,49,47,9,27,89,45
126,130,34,26,48,39,-3,44,145,63
120,150,38,30,31,30,-2,46,164,57
98,136,45,25,17,29,-8,36,138,39
45,130,46,7,6,10,-16,35,103,16
5,139,32,-9,-1,-8,-22,23,122,-4
-19,74,35,-22,-1,-11,-20,1,87,-28
-53,-38,11,-35,-9,-14,-30,-27,9,-59
-104,-94,-18,-70,-17,-44,-39,-45,-68,-72
-96,-98,-32,-66,-28,-36,-36,-37,-87,-61
-64,-87,-43,-61,-29,-22,-41,-28,-85,-43
-51,-58,-31,-63,-28,-28,-37,-32,-81,-28
-74,-54,-10,-45,-17,-26,-26,-34,-105,-33
-71,-39,-17,-24,-5,-12,-13,-17,-92,-35
-31,-17,-20,-8,5,-1,-10,8,-68,-25
12,-17,-11,-6,8,4,-3,14,-43,20
38,50,12,31,18,18,-2,10,34,36
51,88,12,55,23,36,-3,11,69,28
43,62,18,51,8,26,-5,2,25,14
40,71,25,43,5,12,-21,0,32,4
57,97,15,19,0,19,-20,17,99,19
28,82,15,0,-9,17,-18,26,103,11
-6,16,6,-26,-30,5,-26,2,34,-18
-19,-37,-25,-34,-34,8,-27,-31,-24,-38
-23,-53,-23,-41,-31,2,-30,-48,-26,-59
-49,-41,0,-46,-44,-20,-25,-48,-28,-57
-44,-29,-5,-59,-53,-38,-27,-23,-57,-53
-18,-23,17,-45,-34,7,-16,-24,-60,-27
16,-28,25,-23,-11,34,-3,-27,-45,-3
0,-42,14,-19,-5,19,0,-27,-94,4
-25,-52,1,-27,-1,-3,-3,-26,-162,18
-17,-42,-64,-26,4,0,23,-23,-158,20
-9,-48,-139,-27,17,4,48,-11,-125,27
-23,-83,-43,-45,22,-2,39,4,-104,25
-19,-68,7,-27,4,-10,31,11,-90,33
-23,-37,6,-10,-3,-2,27,11,-60,12
-23,-27,9,-15,-3,-5,20,6,-52,-28
-30,-29,20,-16,-15,-4,-9,2,-70,-42
-48,-49,-13,-27,-23,-15,-35,0,-66,-36
-46,-42,8,-24,-30,-19,-32,-4,-46,-36
-36,-24,-8,-24,-45,-29,-43,3,-33,-27
-17,12,-30,-34,-51,-40,-33,10,4,-15
-34,19,-25,-49,-58,-50,-44,-12,-3,-12
-30,22,-22,-35,-61,-34,-22,-9,18,8
-16,46,-15,11,-37,-5,10,0,61,23
-14,38,35,33,-17,17,19,4,59,22
-19,4,47,15,-2,18,30,0,25,9
-28,-3,37,-6,11,5,48,4,-17,12
-10,19,43,16,27,17,45,12,7,37
8,12,21,28,19,29,24,8,1,39
33,29,43,40,18,35,10,-1,34,34
23,36,45,32,19,23,0,4,34,7
2,15,25,17,9,-6,0,3,-1,-2
-22,-14,-11,-2,-6,-21,-5,-1,-37,-5
-37,-20,-19,-12,-8,-14,-16,0,-22,-18
-40,-32,-25,-21,-10,-10,-2,-9,2,-38
-41,-17,-53,-31,-18,-22,3,-12,5,-47
-38,-11,-65,-29,-25,-44,-10,-23,0,-52
-59,-22,-14,-34,-23,-48,-14,-9,12,-60
-54,-27,-6,-34,-10,-41,-14,0,26,-52
-31,-5,3,-10,2,-33,-11,-2,44,-36
-29,8,0,18,12,-27,-3,-7,13,-32
-6,30,-4,37,10,-7,1,-5,10,-12
45,78,37,44,11,14,10,7,58,40
62,105,54,52,16,21,11,20,77,75
66,84,55,68,31,36,19,10,68,101
57,93,62,66,46,34,24,24,87,104
12,88,60,63,46,29,44,25,57,85
-23,52,40,59,45,30,44,17,41,63
-12,94,-20,57,51,14,15,43,125,58
6,140,-2,57,45,3,-2,53,178,49
3,101,17,22,15,-21,-2,36,125,21
-22,27,6,-11,-15,-36,0,5,-2,-23
7,5,-38,-20,-26,-14,3,-12,-6,-29
38,14,-67,-4,-30,0,-6,-9,56,-25
-16,0,-11,-9,-27,-14,-10,-9,49,-46
-31,21,0,-24,-16,-24,-8,8,59,-27
-28,34,24,-12,-20,-21,12,27,75,-3
5,75,38,2,-13,-12,12,28,99,27
0,9,33,-6,-1,-14,13,7,-16,17
-21,-47,38,0,6,-14,29,2,-93,-17
-21,-29,54,20,17,-18,22,8,-85,-27
26,41,73,36,26,-6,25,33,12,10
60,63,64,31,18,-10,38,43,55,41
70,72,50,17,3,-4,16,47,72,58
25,36,44,15,4,-9,0,14,5,21
-1,-19,20,0,-10,-16,-11,-9,-57,5
13,-8,1,6,-12,-15,-2,0,20,23
0,-20,-9,-3,-16,-2,7,-9,27,23
-11,-86,-6,-18,-17,22,3,-43,-45,3
-1,-96,-27,-30,-25,10,-5,-52,-49,-3
-30,-97,-42,-36,-32,0,-8,-44,-36,-22
-48,-69,-36,-37,-31,-21,12,-39,-47,-42
-15,-1,-19,-30,-34,-21,28,-32,-47,-16
10,5,14,-5,-18,7,41,-34,-49,3
16,4,17,5,-6,33,52,-18,-40,14
-24,4,27,5,1,18,46,-16,-87,7
-48,-19,11,-2,-2,1,22,-17,-133,0
-11,-58,-16,-2,-3,12,10,-16,-114,20
-3,-70,-28,-2,8,15,8,-7,-110,48
-22,-74,-29,5,19,17,9,-6,-110,41
-55,-68,-32,0,17,11,8,-24,-107,0
-50,-45,-31,-20,11,1,14,-26,-101,-14
-36,-45,-13,-6,8,-7,37,-29,-73,-15
-21,-58,-15,-5,-5,-13,51,-26,-45,-6
-21,-78,-23,-3,-26,-10,32,-19,-33,-11
-48,-85,-28,-19,-38,-18,-12,-24,-13,-33
-56,-55,-31,-27,-33,-28,-29,-23,27,-37
-45,-10,-43,-17,-35,-36,-20,-10,90,-14
-23,-16,-17,-5,-19,-17,-19,-12,78,-14
5,-42,0,0,-7,5,-10,-22,58,-1
5,-39,-14,-6,-5,5,-4,-16,38,0
24,-38,-54,17,16,29,6,-17,12,16
19,-11,-59,20,26,38,5,-13,0,31
41,25,-3,21,30,37,28,24,30,39
74,57,7,44,35,36,44,39,107,62
60,53,12,50,27,21,38,31,113,65
74,91,11,44,29,20,29,45,134,71
66,101,-47,22,35,22,2,32,105,60
41,58,-41,8,19,13,-14,23,45,40
36,26,24,34,16,18,-12,17,14,24
37,1,47,40,22,30,-18,-18,-44,7
32,-7,22,13,5,0,-33,-12,-46,-14
29,27,-5,2,-19,-32,-37,7,20,-16
6,39,-18,20,-20,-51,-34,3,59,-31
-62,-57,-66,-4,-33,-49,-14,-24,-65,-89
-56,-82,-48,-20,-23,-39,-11,-26,-123,-87
-41,-73,-38,-18,-21,-41,-40,-36,-130,-68
7,-32,-12,2,-13,-35,-38,-21,-87,-30
50,-19,9,7,14,-21,-5,-11,-71,-5
81,-30,30,21,23,3,37,-29,-62,6
63,-22,34,29,22,8,56,-25,-40,25
32,-21,29,33,29,10,54,-14,-60,28
47,-25,54,37,33,31,40,-3,-60,29
9,-34,-4,8,17,6,4,8,-78,11
-45,-38,-73,-9,7,-2,-21,8,-103,-16
-114,-47,-22,-10,1,3,-18,15,-102,-43
-147,-47,-14,-16,3,-1,10,13,-84,-49
-102,-18,-14,-19,-12,-16,22,6,-61,-54
-35,32,-30,-29,-35,-24,-4,5,-12,-30
-22,30,-33,-47,-41,-23,-23,10,32,-39
-52,9,-42,-49,-39,-14,-23,10,49,-43
-38,7,-37,-35,-41,-4,-19,9,43,-22
-4,43,-19,-13,-40,-7,-24,27,86,-1
20,34,-74,5,-28,9,-19,18,46,2
17,19,-41,-9,-29,-3,-18,12,-61,6
19,22,27,0,-31,0,-13,21,-92,19
28,-4,23,5,-14,11,-1,37,-65,38
38,-1,7,8,-6,16,0,41,-45,38
21,-16,13,6,6,14,-3,34,-41,31
29,-15,6,0,5,25,0,41,13,47
68,52,29,20,13,42,4,64,108,69
68,103,44,27,9,40,0,53,137,61
29,104,32,17,-1,27,13,21,118,34
15,95,31,10,-1,13,19,10,111,16
22,140,41,18,-1,2,-11,22,155,27
14,131,39,19,-12,-2,-19,25,143,12
-22,19,35,-8,-27,2,-22,-11,84,-35
-61,-52,20,-20,-28,-3,-19,-24,40,-55
-51,-70,0,-21,-21,8,-15,-28,17,-64
-33,-57,-29,-23,-17,13,-5,-24,41,-43
-40,-49,-28,-31,-10,-1,0,-11,15,-16
-39,-68,-57,-24,2,13,20,-11,-40,-11
3,-59,-37,3,13,40,59,-3,-17,15
2,-37,31,12,18,36,61,10,14,11
2,-14,32,6,30,38,60,3,8,-8
36,-8,42,12,31,55,59,-5,17,6
56,-7,52,15,26,53,53,-6,17,6
64,17,22,-10,19,27,42,3,57,-9
36,-27,12,-40,25,10,45,-6,19,-29
-3,-83,-2,-65,16,-20,43,-16,-57,-57
-19,-71,12,-58,-5,-34,30,-27,-76,-77
-30,-58,5,-60,-13,-21,21,-28,-72,-93
-11,-56,-22,-68,-20,-15,15,-4,-44,-94
-1,-40,-15,-72,-10,-22,-15,-8,-21,-84
3,-28,-14,-61,-6,-24,-48,-13,-17,-62
31,-2,-25,-47,5,-15,-44,-14,-20,-49
34,3,-115,-28,18,-22,-33,-9,-23,-48
38,8,-66,-15,21,-14,-28,-1,-28,-25
46,9,19,-12,36,0,-24,2,-24,8
28,5,35,0,44,2,-32,-7,-43,22
15,1,30,18,59,-4,-27,-1,-44,0
33,-12,28,23,50,2,-7,20,-22,-1
42,-7,39,24,36,21,0,23,-24,9
53,17,57,22,36,20,4,4,-13,21
41,35,50,10,28,1,1,-3,-17,3
28,51,26,8,21,5,2,15,11,26
41,92,25,24,23,24,6,41,149,77
38,94,25,22,24,18,0,40,226,101
26,86,-35,4,19,-2,-5,36,216,86
-23,25,-30,-25,0,-31,-29,16,84,35
-55,4,-55,-25,-19,-41,-32,11,41,5
-30,81,-29,-5,-1,-31,-8,33,142,16
9,118,-24,3,12,-16,2,49,174,19
38,100,-17,1,14,-12,1,34,125,26
31,46,3,3,11,-7,5,16,41,18
25,18,9,20,26,6,1,14,-17,15
-1,-10,5,27,32,28,1,8,-57,12
-31,-52,2,20,26,22,-1,-11,-121,0
-33,-62,1,8,13,11,-20,-10,-161,16
-19,-54,7,7,0,11,-19,-2,-138,23
13,11,15,22,1,15,-27,11,-60,30
-1,-3,28,6,-2,0,-51,-21,-147,-1
-16,-39,43,-10,-13,-15,-52,-41,-175,-19
-17,-44,22,-18,-17,-17,-48,-30,-137,-34
-19,-56,-11,6,-27,12,-46,-24,-65,-18
-44,-52,-12,22,-44,17,-54,-33,-36,-4
-56,-47,-44,3,-50,-4,-53,-26,-21,-21
-63,-45,-126,-16,-62,-29,-30,-17,-2,-45
-63,-11,-71,-26,-65,-30,1,-4,20,-31
-83,-37,-16,-42,-46,-27,6,-20,-62,-38
-86,-66,-25,-39,-21,-21,-10,-36,-122,-50
-79,-68,-107,-10,1,-7,-15,-22,-131,-34
-66,-66,-100,8,10,-2,-18,-14,-119,-16
-41,-55,-152,21,15,14,-7,-9,-101,-4
-18,-39,-91,46,39,21,-7,-7,-85,11
3,2,31,65,41,25,-14,10,0,50
27,64,27,57,37,21,-17,37,103,71
6,39,-62,28,27,6,-14,23,61,48
19,55,-3,31,18,-3,-12,16,98,43
45,96,51,24,6,-6,-14,21,137,58
53,94,44,-5,5,-6,-14,22,117,47
50,91,6,-23,-3,-9,-26,10,106,33
41,109,-69,-33,-21,-6,-4,8,146,13
24,98,-23,-47,-27,0,1,20,137,10
-10,2,17,-65,-34,-3,-11,-7,10,-18
-39,-62,-21,-55,-34,1,-17,-18,-93,-27
-32,-60,0,-43,-21,5,-18,-7,-105,-21
3,-36,30,-34,-7,12,-5,9,-93,-19
14,-34,-38,-13,-5,14,1,13,-106,3
23,-24,-64,-4,0,14,28,2,-107,22
43,12,26,-2,13,21,79,13,-91,37
72,66,63,25,9,24,87,39,-24,67
65,59,47,38,10,25,74,31,19,67
58,25,-41,27,7,33,45,16,-3,51
47,-16,-21,25,12,28,21,7,-24,25
51,16,-20,37,1,22,11,16,31,30
52,54,2,34,-12,7,-1,20,67,40
62,24,33,30,-25,14,6,-2,45,40
77,-19,37,23,-36,19,35,-29,46,28
62,-20,24,18,-62,10,34,-42,50,12
24,7,1,4,-71,-3,38,-35,37,7
-24,26,-85,-11,-76,-23,33,-20,11,-12
-53,14,-36,-6,-66,-21,27,-21,-20,-25
-69,5,40,-1,-58,-10,31,-24,-42,-37
-55,3,72,7,-47,4,40,-13,-45,-44
-24,12,65,34,-17,8,18,-14,-40,-36
-25,-32,30,42,2,-1,3,-18,-61,-29
-14,-53,38,34,8,5,12,-12,-61,-30
-12,-47,-16,33,18,11,11,-1,-48,-15
-30,-49,-110,28,9,-4,-6,-7,-76,-30
-34,-45,-25,22,1,-11,-13,-4,-75,-19
-19,-18,19,24,4,4,0,10,29,12
18,35,21,19,8,10,-2,19,140,30
5,54,31,20,5,-6,-9,15,126,-1
-59,13,10,0,-3,-10,-6,3,34,-35
-53,45,-8,-15,2,-6,-1,11,82,-6
-37,60,6,-26,4,0,-8,19,119,-2
-40,49,-2,-35,3,-9,-14,13,83,3
-35,10,-9,-37,4,-22,-3,-1,38,0
0,18,3,-18,11,-12,16,23,78,9
20,38,-1,-5,26,11,19,29,101,28
41,33,-19,3,28,25,10,0,40,57
36,2,46,12,36,18,3,-23,-53,57
16,34,84,32,38,14,-13,-13,-54,39
1,16,67,30,20,26,-28,-7,-69,34
20,-26,47,38,23,36,-23,-12,-89,33
32,-14,50,41,22,44,-21,-15,-50,39
-13,2,46,23,13,22,-15,-9,-48,16
-26,0,56,10,-2,24,5,-21,-34,8
-17,-1,45,-1,1,20,17,-29,-34,20
-26,8,14,-32,4,-15,-3,-28,-53,4
-44,-2,-5,-49,-8,-44,-16,-39,-86,-22
-50,-8,-17,-61,-12,-51,-15,-37,-90,-36
-48,-3,5,-60,-11,-58,-13,-36,-83,-51
-47,-13,16,-50,-14,-61,-21,-29,-73,-30
-54,-53,0,-42,-14,-37,-7,-24,-75,-41
-36,-54,4,-32,-16,-18,6,-28,-68,-36
-11,-39,-40,-19,0,-6,9,-16,-61,-16
-12,-32,-56,5,25,7,-9,-4,-52,-26
-18,-4,5,18,38,14,-22,1,-39,-32
-8,0,26,7,39,16,-11,1,-42,-26
-2,-5,30,-13,42,12,21,-4,-46,-27
5,-4,26,-18,39,29,42,6,-28,-11
43,37,22,-18,37,44,30,19,57,15
58,58,26,-18,37,34,-1,25,97,25
45,39,29,-21,27,25,-3,21,77,12
23,5,25,-23,8,7,5,0,30,-9
45,66,25,-8,2,5,3,12,132,10
52,108,34,0,-2,6,0,24,184,19
35,80,24,-7,-11,-7,-11,20,153,-1
-26,-11,-9,-44,-27,-40,-33,-11,12,-38
-52,-25,-52,-48,-18,-45,-38,-9,2,-39
-23,30,-12,-33,-5,-26,-24,13,90,-25
-3,53,-3,-13,5,-6,-11,36,124,-5
7,36,12,11,23,13,-6,22,98,4
29,-7,29,26,37,28,-5,-7,46,7
35,8,36,28,45,37,-7,0,50,36
20,2,26,44,47,53,2,14,64,38
14,10,-7,43,43,51,0,28,48,28
21,19,-102,43,42,36,-14,37,44,37
45,49,-159,37,40,39,-20,43,117,48
65,41,-59,24,45,27,-15,37,143,41
29,-11,0,-11,14,7,-24,-7,23,-3
-14,-52,-16,-32,-7,-11,-35,-34,-76,-41
-51,-66,-4,-31,-18,-22,-33,-42,-67,-60
-62,-61,-7,-47,-26,-28,-34,-50,-49,-61
-61,-84,0,-71,-37,-24,-26,-47,-18,-59
-50,-81,-8,-71,-35,-19,2,-50,-26,-58
-45,-73,-18,-63,-18,-14,28,-41,-45,-50
-46,-59,-34,-58,-20,-16,37,-39,-66,-35
-12,-52,-14,-28,-19,-22,24,-32,-73,-6
-6,-51,0,-6,1,-9,5,-20,-58,0
6,-46,-12,2,16,4,39,-16,-51,22
40,-39,-95,13,26,14,43,-12,-50,39
60,-10,-128,34,46,24,17,-1,-35,53
86,23,-41,46,54,29,-5,22,11,77
72,-9,39,42,38,18,-14,3,-43,59
71,-29,59,55,33,37,-27,-15,-21,56
67,-26,51,53,31,30,-12,-12,21,55
14,-24,4,23,13,-9,0,4,16,10
-37,-25,-101,6,-5,-25,-2,-5,-8,-17
-60,-48,-158,-29,-15,-29,23,-4,-37,-34
-68,-55,-81,-45,-22,-26,15,1,-44,-46
-79,-46,4,-45,-18,-24,3,5,-24,-38
-15,26,15,-10,-6,-17,20,27,105,10
42,46,12,7,-11,-14,27,37,142,37
61,28,15,7,0,-7,10,33,100,40
51,5,40,17,10,-2,-7,12,30,39
89,55,61,49,21,8,5,20,62,69
117,79,86,51,25,2,6,32,83,80
103,61,91,38,19,-7,-3,40,36,81
95,71,94,42,1,3,3,47,39,85
86,116,119,55,-4,6,6,47,90,71
61,114,126,62,-9,0,-6,33,58,32
45,74,92,45,-3,-3,-24,24,15,11
22,-3,50,12,-16,-13,-24,16,-14,-7
-2,-46,0,-18,-29,-20,-25,7,-28,-20
-28,-93,-97,-50,-42,-44,-36,-17,-111,-51
-42,-98,-144,-68,-56,-72,-42,-30,-144,-67
-76,-107,-154,-68,-60,-70,-26,-31,-138,-70
-57,-97,-63,-54,-56,-50,-27,-24,-72,-50
0,-56,-5,-20,-42,-21,-30,-21,-21,-11
-24,-55,11,-6,-28,-41,-13,-13,-59,-19
-46,-86,11,-12,-11,-55,0,-2,-126,-30
-37,-100,-13,0,14,-24,10,9,-133,-33
-1,-92,8,17,34,7,19,22,-110,-23
30,-83,20,34,49,17,43,16,-104,-20
36,-68,20,18,47,4,51,1,-122,-27
35,-51,-9,10,41,8,55,-1,-99,-29
47,-39,-22,-5,31,16,54,2,-75,-28
25,-31,35,1,26,8,50,0,-72,-21
-4,-21,37,4,22,0,51,-3,-60,-30
-14,-24,28,4,14,-5,42,-12,-38,-25
-55,-30,17,-3,1,0,28,-12,-16,-41
-90,-45,11,-6,-12,-9,26,-27,-12,-56
-94,-52,5,-14,-35,-19,16,-33,-10,-54
-89,-33,0,-40,-55,-22,9,-23,-9,-52
-79,-1,-14,-46,-49,-29,15,-17,-13,-48
-42,15,2,-40,-46,-31,23,-17,-7,-50
-13,11,23,-29,-44,-22,13,-22,-5,-29
12,5,34,-18,-25,-6,-24,-15,-1,7
47,67,43,13,-6,11,-23,12,63,46
48,82,49,29,13,33,-25,17,79,67
16,16,48,19,20,19,-19,-2,-5,36
32,8,-5,13,22,19,-17,-4,-13,38
67,74,-91,23,26,36,-8,13,69,72
85,84,-9,45,29,43,-4,4,66,79
87,64,68,48,32,62,-8,0,63,60
57,48,68,33,21,57,-29,-1,76,42
17,41,16,18,0,29,-26,3,76,31
-2,87,11,-10,-15,6,-20,26,165,49
-28,103,14,-17,-11,-2,-10,40,225,36
-71,72,3,-14,-16,-13,-16,29,224,22
-78,13,-8,-20,-25,-18,0,4,131,-5
-35,-5,3,20,-10,4,9,-11,79,-7
5,56,-28,40,8,7,-11,4,117,11
15,72,-1,38,14,4,-14,21,126,30
29,92,34,62,27,6,1,45,121,23
20,103,19,65,50,17,29,54,109,20
8,90,-29,52,47,19,33,36,75,20
9,83,18,43,38,27,22,30,74,16
37,82,45,37,42,50,18,22,67,25
22,54,35,31,42,56,14,10,16,24
-1,-7,33,29,33,60,16,-13,-53,-2
-34,-33,15,-1,13,22,0,-23,-100,-35
-71,-45,-46,-30,-9,-12,-1,-31,-134,-53
-78,-41,-31,-36,-15,-19,-9,-36,-130,-48
-86,-33,-5,-36,-29,-22,-23,-46,-141,-55
-104,-38,-19,-41,-42,-34,-20,-54,-118,-67
-106,-51,-36,-49,-45,-57,-17,-46,-89,-66
-116,-46,-79,-47,-38,-57,-6,-29,-60,-59
-97,-69,-128,-46,-34,-44,-11,-29,-62,-57
-71,-75,-38,-30,-18,-22,0,-24,-74,-64
-64,-73,9,-10,1,-14,4,-21,-71,-55
-29,-62,26,-6,16,0,9,-17,-62,-17
-1,-64,26,8,14,9,9,-13,-55,9
10,-51,33,19,14,14,5,-11,-62,15
12,-40,55,29,28,14,2,-17,-63,-4
9,-13,41,37,37,19,3,-12,-37,26
26,-6,26,44,27,12,4,5,-2,50
4,-31,26,36,13,2,-13,9,-18,27
6,-41,23,50,6,11,-27,4,3,26
59,-35,13,60,0,19,-21,-7,28,33
74,-50,-7,47,-4,16,-22,-23,35,20
51,-37,-15,40,-12,8,-34,-41,51,7
4,-36,-86,11,-28,1,-34,-38,37,7
-20,-35,-32,2,-41,7,-15,-38,35,13
-48,-25,-12,-5,-65,-20,5,-20,6,10
-61,13,-2,-22,-70,-33,0,-11,-38,2
-25,61,-5,-10,-55,-28,-1,-17,-63,-4
-19,89,-21,-5,-38,-15,11,-16,-57,7
-17,79,-3,4,-28,-1,43,-7,-58,6
-10,63,23,-1,-7,11,65,7,-49,-9
5,25,11,4,0,18,53,21,-45,-26
21,-12,16,6,-3,16,16,21,-63,-44
10,0,13,3,-1,20,-9,14,-54,-45
2,-5,-2,8,-6,7,-17,17,-52,-42
-1,-23,2,-2,-13,2,-4,23,-37,-34
7,-35,-26,0,-27,0,-6,20,-8,-35
9,-28,-32,1,-31,3,2,23,24,-24
10,4,-11,11,-23,15,2,34,113,10
32,20,-3,20,-30,6,5,46,187,7
2,31,6,16,-41,-12,0,41,206,-7
-16,67,6,1,-42,-16,-1,34,250,-14
6,85,9,2,-36,-16,2,29,236,-6
14,44,14,-7,-27,-9,3,18,173,3
-6,7,20,2,-9,6,7,8,95,20
-4,15,19,19,-3,7,21,18,60,37
29,-2,36,41,17,21,32,7,45,41
17,-13,34,40,30,15,25,4,21,36
-9,0,-48,21,19,0,24,12,-38,20
55,73,-73,32,26,10,22,34,34,55
82,124,-35,52,36,13,11,57,123,87
46,110,0,44,35,7,3,55,139,71
10,64,26,19,27,1,0,36,66,41
8,42,13,1,19,3,19,43,37,22
22,81,-7,-17,10,5,48,60,89,20
22,103,-39,-29,-2,-7,43,44,106,21
-7,94,-135,-35,-17,-11,3,22,50,-7
-21,31,-76,-47,-29,-3,-19,-25,-31,-43
-43,6,-2,-59,-29,-21,3,-26,-46,-54
-18,38,0,-40,-18,-23,17,7,57,-29
7,21,10,-19,6,-12,21,4,21,-25
-5,-45,12,-6,29,-4,29,-15,-101,-42
3,-70,12,-12,41,2,-1,-3,-124,-24
26,-23,-10,2,45,10,-25,12,-42,0
36,26,-1,27,51,8,-18,18,20,1
10,-8,-16,15,42,-8,-15,-5,-75,-1
32,-7,-77,11,43,4,-22,-6,-89,5
68,22,-72,34,53,15,-23,17,1,13
89,-11,27,35,53,23,-18,5,-5,9
90,-42,32,25,46,29,2,-26,-40,4
58,-34,-33,19,30,32,16,-31,-20,-15
0,-24,-13,-15,9,9,8,-19,-48,-37
-45,-28,8,-54,5,-27,1,-10,-74,-66
-20,14,-27,-54,3,-41,-20,4,21,-39
-57,-14,-10,-63,-6,-51,-35,-12,-25,-59
-86,-22,-40,-54,-9,-44,-18,-26,-50,-72
-97,-27,-59,-22,-1,-24,-1,-24,-32,-71
-68,-41,-28,0,-2,-4,24,-20,-37,-36
-16,-29,31,20,3,5,39,-16,-37,-5
-9,-38,37,11,1,-11,29,-3,-108,-20
-2,-43,40,4,4,-3,18,-3,-136,-5
11,-23,-2,10,16,-5,9,-2,-132,5
2,-22,-88,15,23,-5,-2,4,-143,-6
-1,-29,-16,0,15,5,-10,-2,-150,-6
-8,-17,38,-18,1,2,-10,-13,-123,2
-13,16,46,-17,-5,-8,-10,-5,-87,-2
-4,48,44,-7,-8,-5,-46,-3,-56,1
25,76,46,-3,-7,-1,-49,0,17,11
33,61,6,0,-4,0,-38,-5,43,9
14,24,-23,-7,-17,2,-19,-9,48,2
-7,27,6,-26,-27,-8,-21,4,65,-10
-2,12,29,-15,-24,-1,-55,-18,39,-7
26,-17,35,-5,-8,-6,-49,-25,24,-4
-14,-40,22,-20,-7,-20,-36,-9,-2,-18
-27,-49,6,-23,-8,-27,-43,2,-38,-13
-24,-48,12,-13,10,-5,-35,-3,-80,2
9,-30,14,7,35,4,-11,2,-57,36
39,-19,39,16,49,13,10,6,-34,50
45,-27,57,37,44,34,4,-9,-43,32
12,-32,41,12,42,14,-13,-7,-94,-3
1,-28,26,-2,37,-2,-17,7,-104,-23
9,-8,41,2,25,2,-12,6,-86,-14
23,5,33,10,22,1,-23,6,-82,15
76,60,22,18,27,-3,-19,31,25,64
40,7,10,-7,9,-7,-4,16,-16,0
-12,-15,6,-21,-2,-11,-9,4,-58,-53
-40,-7,-9,-46,-9,-20,-8,4,-29,-62
-24,0,-17,-71,-29,-30,-8,-3,-9,-61
1,23,-20,-60,-27,-31,-20,0,20,-38
19,53,-4,-35,-21,-29,-4,14,81,-9
22,46,20,3,-10,-1,-5,18,117,12
5,2,19,4,2,5,0,13,55,-2
0,-18,-17,0,10,18,12,13,8,-2
27,-20,-91,32,25,55,32,12,18,28
46,-23,-103,39,34,64,54,20,31,40
16,-20,-95,7,24,35,37,34,-13,27
21,-3,-17,-5,16,20,11,40,-12,29
26,4,22,8,21,17,6,52,47,34
11,-8,0,-3,15,17,-1,55,19,22
36,45,14,14,2,20,-8,63,101,44
49,88,27,11,0,18,-6,67,165,57
29,101,31,-4,-3,2,-7,51,165,29
15,112,32,-20,-12,-16,-1,33,139,12
13,124,17,-34,-38,-32,1,24,157,0
-8,97,14,-28,-55,-34,34,1,104,1
-29,12,-2,-22,-51,-19,46,-23,0,-23
-60,-64,-89,-36,-44,-35,39,-16,-64,-46
-82,-108,-134,-31,-33,-21,0,-24,-92,-39
-44,-88,-84,1,-13,1,-24,-21,-73,-29
-9,-79,-6,17,-7,8,-11,-7,-31,6
-14,-112,6,29,8,18,2,-8,-45,23
17,-93,-28,42,15,28,12,0,-17,40
8,-72,-122,25,19,7,26,-2,-14,35
7,-60,-72,36,16,5,54,-18,0,38
12,-46,40,41,11,13,44,-42,-2,38
4,-42,22,15,-5,-13,23,-35,-39,24
17,-72,16,2,-17,-14,29,-35,-20,20
7,-67,20,-10,-30,-19,26,-23,-20,9
-4,-16,15,-36,-48,-36,6,-24,-19,0
30,57,19,-29,-49,-39,-18,-10,88,28
2,52,-18,-32,-68,-43,-28,-18,72,7
-45,-10,-5,-56,-79,-54,-30,-32,-19,-32
-43,-6,-28,-55,-64,-43,-19,-29,-10,-19
-7,33,-32,-34,-31,-10,-5,-18,49,11
13,27,56,-16,-14,-1,2,-22,39,14
32,-13,48,6,0,20,14,-35,-1,20
26,-24,14,6,4,32,6,-27,-41,27
-24,-37,37,-4,1,11,1,-26,-93,14
-41,-35,51,17,9,22,4,-11,-86,10
-32,-3,67,36,32,29,14,0,-49,21
-22,12,67,29,38,33,18,8,-18,20
-26,-9,70,15,26,29,19,0,-52,-2
7,-6,86,35,29,30,23,-14,-8,6
-24,4,57,8,12,6,0,-13,7,-11
-69,-17,43,-9,-5,-10,-29,-14,-14,-27
-57,-28,39,-14,-8,2,-45,-23,-12,-22
-40,-7,-7,-36,-21,-5,-19,-8,-4,-30
-24,-21,-15,-35,-23,-2,-6,-12,0,-23
-35,-13,-77,-28,-14,1,-24,-28,-3,-47
-45,-25,-61,-37,-20,-19,-4,-20,-55,-58
-45,-43,0,-52,-18,-30,-4,-22,-94,-55
-37,-57,2,-32,-6,-11,-28,-23,-109,-43
-14,-24,2,-9,-4,0,-41,-2,-98,-24
9,23,-7,16,3,20,-21,16,-28,-1
-2,-7,-2,24,13,27,18,16,-39,-8
2,6,4,35,25,25,21,23,-27,1
17,38,23,60,28,28,24,41,21,28
28,26,17,50,16,14,20,29,28,33
23,-14,-27,29,10,-10,-19,7,-42,16
43,-9,-126,41,16,4,-34,2,-17,23
21,-19,-120,19,5,-2,-27,11,0,8
-14,-12,-45,-14,-6,-30,-12,13,6,-4
-34,11,-120,-24,-25,-36,-5,16,45,5
-17,41,-158,-14,-31,-27,0,32,105,-9
-16,59,-47,-11,-29,-40,-21,36,155,-12
-30,62,19,1,-25,-41,-50,30,173,-20
0,21,35,12,-19,-35,-40,19,108,-50
30,-13,43,20,-13,-17,-32,-3,-13,-47
47,-9,-22,23,0,-22,-5,-13,-76,-10
89,49,53,33,18,-23,25,0,-27,33
119,111,99,54,30,-6,32,36,104,72
85,86,82,47,22,6,33,32,124,62
56,52,79,40,23,17,43,2,55,32
14,-1,84,51,25,30,34,-27,-57,-12
-15,-10,63,39,18,15,9,-14,-54,-20
-21,30,-5,23,15,11,-25,1,4,-16
-31,-13,-105,9,6,11,-31,-20,-51,-50
-73,-51,-105,-9,-5,-13,-35,-17,-93,-77
-79,-24,-6,-9,-10,-18,-48,3,-11,-70
-96,-38,17,-26,-31,-27,-32,-14,-28,-88
-83,-61,21,-27,-45,-33,-20,-33,-45,-96
-47,-52,6,-11,-45,-24,-15,-36,-36,-88
-35,-40,9,-26,-38,-42,-32,-24,-54,-73
-31,-2,30,-12,-29,-32,-65,-17,-13,-43
-67,-47,31,-12,-17,-22,-56,-25,-95,-34
-47,-64,38,-8,0,-3,-18,-35,-105,-25
-22,-42,35,-7,4,18,-1,-33,-89,-15
17,-22,3,0,8,17,-3,-19,-45,34
49,-10,-7,23,24,39,9,-8,-6,63
59,-31,22,45,26,55,19,-18,-9,60
44,-2,13,31,20,23,17,1,8,58
48,40,18,6,25,22,10,11,37,67
12,-9,13,-20,24,4,-7,-21,-48,18
-15,-15,0,-25,19,-4,-6,-40,-57,-6
-5,27,24,-13,5,-5,-18,-45,-58,-3
-1,58,-1,-27,-6,-11,-28,-44,-34,-5
-33,53,31,-22,-11,-20,-18,-32,20,-27
-86,9,13,-22,-32,-38,-24,-40,-20,-62
-82,-27,5,-22,-39,-43,-4,-44,-24,-72
-71,-54,-3,-5,-24,-37,20,-38,-12,-50
-43,-26,-7,12,-11,-12,21,-13,17,-24
7,41,-3,28,7,4,33,7,53,8
49,52,13,47,30,29,20,0,48,44
62,73,31,53,32,35,0,-2,65,62
50,107,16,39,27,9,0,14,104,76
55,101,15,25,19,1,0,12,111,74
29,64,12,6,11,9,19,10,72,46
45,47,-47,13,13,22,21,9,84,49
26,18,-128,-2,11,6,2,7,52,34
-13,-2,-51,-19,5,-15,1,10,13,5
-16,-32,-45,-24,7,-19,3,2,4,-13
-17,-31,-116,-29,-1,-23,1,6,40,-17
0,28,-80,-6,-6,-21,-2,31,159,-1
-7,3,24,-1,-2,-15,-5,6,132,-14
-30,-23,45,6,0,-17,-13,-5,95,-38
-40,-28,32,6,2,-17,-9,10,92,-40
-48,-38,39,-2,14,-23,1,7,50,-41
-57,-50,49,-5,23,-25,-4,1,-13,-30
-43,-34,54,7,33,-17,3,12,-46,-10
-25,-15,21,8,40,10,24,21,-36,1
11,-4,40,37,49,39,26,7,36,26
3,-1,74,43,50,32,23,9,54,55
1,27,70,48,50,31,31,26,69,66
-5,51,13,51,41,20,51,25,63,31
-37,15,0,18,19,6,43,1,-7,5
-45,-7,-4,4,8,2,15,-14,-23,0
-49,-20,43,-5,4,-6,8,-15,-17,-19
-6,-8,52,-3,0,6,24,-16,23,-7
12,7,38,-12,-7,15,4,0,59,5
-25,-7,9,-39,-27,-9,-13,13,51,-19
-50,-29,2,-55,-32,-35,-14,-3,13,-43
-57,-24,-14,-56,-40,-55,-14,-10,-16,-42
-29,0,-109,-47,-46,-54,-18,-6,-12,-16
-24,12,-93,-28,-40,-27,-22,2,4,2
-28,-4,3,4,-22,-5,-8,1,-21,10
-13,3,22,15,-5,4,16,-10,-35,16
-2,14,-16,9,0,8,44,-8,-40,22
4,23,-41,12,2,25,53,7,-31,26
21,33,27,26,11,43,49,30,-21,33
18,16,26,9,-2,35,30,28,-79,29
8,6,-4,1,0,15,-11,13,-98,20
0,2,-71,8,14,20,-32,10,-81,15
13,13,-78,5,14,24,-32,22,-15,26
8,-5,-37,-8,-9,24,-38,20,-26,13
-14,-35,31,-16,-22,23,-30,9,-72,-21
-27,-35,19,-23,-28,17,-33,2,-51,-37
-54,-53,-17,-33,-38,-1,-45,0,-48,-46
-62,-57,-8,-45,-44,-12,-42,0,-42,-48
-47,-31,40,-36,-47,-11,-38,-26,-60,-44
-23,-3,46,-25,-46,2,-26,-30,-64,-48
23,32,28,-7,-33,3,-20,-16,-36,-17
81,96,12,38,-12,7,-19,21,45,31
111,121,63,73,8,35,-8,61,143,64
107,120,83,81,17,48,-14,68,145,82
89,114,95,68,21,45,-17,46,81,64
42,67,95,63,27,28,-14,15,-8,29
25,12,87,55,21,18,-1,-6,-65,19
38,-4,83,54,21,31,4,-7,-20,18
43,-12,56,38,16,30,10,0,-2,29
30,-22,29,26,3,24,1,-10,12,47
-4,-8,11,3,-19,-3,1,-2,-5,54
-2,30,-13,-14,-42,-27,13,15,27,52
33,70,-24,-27,-47,-29,12,34,130,63
20,54,-38,-39,-37,-34,15,27,135,36
-19,21,-65,-45,-28,-25,18,15,65,-9
-6,45,-98,-43,-27,-20,6,23,80,7
28,67,-19,-43,-16,-15,-21,43,143,41
30,20,-6,-41,-6,0,-19,49,109,51
-14,-55,0,-38,-5,5,6,14,-65,3
-24,-58,10,-26,-4,8,34,-2,-150,-7
18,-38,31,-15,2,11,37,-2,-155,18
68,5,46,-1,16,22,38,22,-70,55
108,67,54,23,23,44,47,53,55,68
84,84,53,31,15,33,28,54,52,54
39,49,46,5,10,20,21,38,0,36
-9,-24,33,-20,-3,5,11,13,-84,22
10,3,36,-8,-2,-10,12,12,-9,19
-2,14,25,-17,-6,-23,24,-2,-14,5
5,40,4,-30,-17,-21,27,11,4,2
1,32,-13,-40,-23,-28,17,9,0,-7
3,-14,-16,-51,-25,-20,12,-5,-21,2
36,-51,-16,-34,-22,9,15,-12,10,24
9,-57,-5,-18,1,23,9,-12,-1,9
-17,-38,-17,-20,-7,14,-15,-4,-6,6
-14,-28,-8,-15,-3,10,-12,7,-41,14
-15,-26,11,8,23,21,3,15,-45,14
-48,-18,8,-2,26,20,8,-2,-75,-31
-86,0,14,0,20,4,5,-15,-104,-72
-91,0,25,2,20,-2,2,1,-90,-59
-61,-6,24,13,20,26,19,12,-33,-43
-64,-21,18,15,22,33,13,17,-16,-56
-98,-67,-16,-10,8,0,-11,7,-70,-68
-70,-72,-114,-21,-8,-2,-25,-7,-45,-53
-66,-72,-185,-28,-21,-8,-26,-17,-42,-58
-61,-98,-105,-30,-34,-19,-28,-22,-34,-58
-65,-98,-55,-43,-40,-32,-18,-20,-11,-57
-71,-78,-43,-48,-41,-41,8,-19,23,-57
-27,-3,-18,-20,-21,-20,10,-1,129,-42
9,46,-9,-3,-7,-5,3,8,156,-26
47,82,-13,12,2,8,0,12,182,-8
73,93,23,24,6,15,5,21,176,11
87,74,59,45,9,11,14,20,123,23
73,36,74,50,24,4,14,4,31,16
78,67,38,62,35,6,6,7,33,34
99,49,-56,68,42,15,12,4,16,34
105,-9,20,68,47,31,29,-27,-36,38
96,-10,24,49,32,14,41,-42,-49,32
24,-19,-3,27,21,7,44,-29,-62,-16
4,3,2,16,16,10,37,-1,-1,-5
16,-8,-2,25,14,18,32,0,18,18
-19,-23,-19,12,8,14,29,-1,46,-4
-52,-33,-35,-14,-4,-4,30,-8,22,-27
-78,-53,-21,-39,-12,-10,28,-28,-18,-38
-67,-64,-22,-39,-10,-5,17,-41,10,-46
-78,-62,-13,-48,-18,-23,8,-42,16,-52
-58,-53,-10,-41,-20,-8,15,-32,30,-27
-34,-4,-40,-35,-6,-4,15,7,86,3
-26,-5,-73,-41,2,-1,25,4,38,-6
4,-24,-17,-47,17,-5,41,-13,-49,-21
35,-12,10,-41,40,-9,18,-15,-78,-3
49,-4,21,-21,50,-2,-4,-15,-82,0
79,18,18,-22,50,11,-11,-15,-43,24
69,31,19,-26,47,12,-25,-13,-62,28
29,37,24,-25,38,4,-31,-24,-91,-10
15,31,8,-33,25,7,-12,-22,-85,-14
47,43,10,-27,19,-7,4,-10,-34,1
47,46,8,-23,19,-17,-2,4,24,24
-17,-6,-1,-29,12,-23,-44,-9,-39,-18
-41,-29,-18,-45,-10,-34,-48,-16,-42,-44
-49,-30,-69,-58,-32,-39,-52,-8,-14,-35
-25,-21,-119,-42,-26,-11,-58,-8,33,-17
