(-0.0961914063, 0.0132446289, 0.940368652, 0.3258667)
(-0.0961914063, 0.0130004883, 0.9403076, 0.32598877)
(-0.0961914063, 0.0129394531, 0.9403076, 0.32598877)
(-0.0961914063, 0.0129394531, 0.9403076, 0.32598877)
(-0.0961914063, 0.0129394531, 0.9403076, 0.32598877)
(-0.0961914063, 0.0129394531, 0.9403076, 0.32598877)
(-0.0961914063, 0.0130004883, 0.9403076, 0.32598877)
(-0.0961914063, 0.0130004883, 0.9403076, 0.32598877)
(-0.0961914063, 0.0130004883, 0.9403076, 0.32598877)
(-0.0961914063, 0.0130004883, 0.9403076, 0.32598877)
(-0.0961914063, 0.0129394531, 0.9403076, 0.32598877)
(-0.0961914063, 0.0129394531, 0.9403076, 0.32598877)
(-0.0961914063, 0.0129394531, 0.9403076, 0.32598877)
(-0.0961914063, 0.0129394531, 0.9403076, 0.32598877)
(-0.0961914063, 0.0129394531, 0.9403076, 0.32598877)
(-0.0961914063, 0.0129394531, 0.9403076, 0.32598877)
(-0.0961914063, 0.0129394531, 0.9403076, 0.32598877)
(-0.09625244, 0.0129394531, 0.9403076, 0.32598877)
(-0.09625244, 0.0129394531, 0.9403076, 0.32598877)
(-0.09625244, 0.0129394531, 0.9403076, 0.32598877)
(-0.09625244, 0.0129394531, 0.9403076, 0.32598877)
(-0.09625244, 0.0129394531, 0.9403076, 0.32598877)
(-0.09625244, 0.0130004883, 0.9403076, 0.32598877)
(-0.09625244, 0.0130004883, 0.9403076, 0.32598877)
(-0.09625244, 0.0130004883, 0.9403076, 0.32598877)
(-0.09625244, 0.0130004883, 0.9403076, 0.32598877)
(-0.09649658, 0.0130615234, 0.9403076, 0.3260498)
(-0.09667969, 0.0132446289, 0.9402466, 0.3260498)
(-0.09667969, 0.0132446289, 0.9402466, 0.3260498)
(-0.09686279, 0.0135498047, 0.9402466, 0.3260498)
(-0.09686279, 0.0135498047, 0.9402466, 0.3260498)
(-0.0970459, 0.0137939453, 0.9402466, 0.3260498)
(-0.0970459, 0.0137939453, 0.9402466, 0.3260498)
(-0.0970459, 0.0137939453, 0.9402466, 0.3260498)
(-0.0970459, 0.0137939453, 0.9402466, 0.3260498)
(-0.0970459, 0.0137939453, 0.9402466, 0.3260498)
(-0.0970459, 0.0137939453, 0.9402466, 0.3260498)
(-0.0970459, 0.0140380859, 0.940185547, 0.32611084)
(-0.09692383, 0.0142822266, 0.940185547, 0.3262329)
(-0.09692383, 0.0142822266, 0.940185547, 0.3262329)
(-0.09692383, 0.0142822266, 0.940185547, 0.3262329)
(-0.09692383, 0.0142822266, 0.940185547, 0.3262329)
(-0.09680176, 0.0140991211, 0.940185547, 0.326293945)
(-0.09625244, 0.0141601563, 0.940185547, 0.32635498)
(-0.09625244, 0.0141601563, 0.940185547, 0.32635498)
(-0.09625244, 0.0141601563, 0.940185547, 0.32635498)
(-0.09539795, 0.0147094727, 0.9403076, 0.326293945)
(-0.09301758, 0.0161743164, 0.9404297, 0.3265381)
(-0.09301758, 0.0161743164, 0.9404297, 0.3265381)
(-0.08984375, 0.0161743164, 0.940551758, 0.327026367)
(-0.08984375, 0.0161743164, 0.940551758, 0.327026367)
(-0.0862426758, 0.0154418945, 0.940856934, 0.3272705)
(-0.0862426758, 0.0154418945, 0.940856934, 0.3272705)
(-0.08099365, 0.0126953125, 0.94140625, 0.3270874)
(-0.07446289, 0.007080078, 0.942260742, 0.32635498)
(-0.07446289, 0.007080078, 0.942260742, 0.32635498)
(-0.06970215, -0.00250244141, 0.9439087, 0.322692871)
(-0.06970215, -0.00250244141, 0.9439087, 0.322692871)
(-0.0659790039, -0.0139770508, 0.945922852, 0.317260742)
(-0.0659790039, -0.0139770508, 0.945922852, 0.317260742)
(-0.0642089844, -0.0211792, 0.946289063, 0.316101074)
(-0.0642089844, -0.0211792, 0.946289063, 0.316101074)
(-0.06414795, -0.0260009766, 0.9453125, 0.31854248)
(-0.0649414063, -0.0289917, 0.9448242, 0.319580078)
(-0.0649414063, -0.0289917, 0.9448242, 0.319580078)
(-0.06677246, -0.0335693359, 0.9445801, 0.319580078)
(-0.06677246, -0.0335693359, 0.9445801, 0.319580078)
(-0.0687255859, -0.0408935547, 0.944397, 0.318847656)
(-0.0687255859, -0.0408935547, 0.944397, 0.318847656)
(-0.06951904, -0.04626465, 0.9445801, 0.3173828)
(-0.06921387, -0.0474243164, 0.9446411, 0.317138672)
(-0.06921387, -0.0474243164, 0.9446411, 0.317138672)
(-0.0682373047, -0.0445556641, 0.944458, 0.31829834)
(-0.0682373047, -0.0445556641, 0.944458, 0.31829834)
(-0.06689453, -0.0397949219, 0.944213867, 0.319824219)
(-0.06689453, -0.0397949219, 0.944213867, 0.319824219)
(-0.0667114258, -0.0368042, 0.9439697, 0.3209839)
(-0.0667114258, -0.0368042, 0.9439697, 0.3209839)
(-0.06744385, -0.03643799, 0.943664551, 0.3217163)
(-0.06744385, -0.03643799, 0.943664551, 0.3217163)
(-0.06829834, -0.03729248, 0.9434204, 0.322265625)
(-0.06829834, -0.03729248, 0.9434204, 0.322265625)
(-0.06903076, -0.0379638672, 0.943115234, 0.322937)
(-0.06958008, -0.0379638672, 0.942810059, 0.323669434)
(-0.06958008, -0.0379638672, 0.942810059, 0.323669434)
(-0.06976318, -0.0373535156, 0.942688, 0.32409668)
(-0.06976318, -0.0373535156, 0.942688, 0.32409668)
(-0.0701293945, -0.0368652344, 0.9425659, 0.324401855)
(-0.07055664, -0.0368652344, 0.9423218, 0.3250122)
(-0.07055664, -0.0368652344, 0.9423218, 0.3250122)
(-0.0706176758, -0.03668213, 0.9421387, 0.325561523)
(-0.0706176758, -0.03668213, 0.9421387, 0.325561523)
(-0.0707397461, -0.03656006, 0.941955566, 0.3260498)
(-0.0707397461, -0.03656006, 0.941955566, 0.3260498)
(-0.0707397461, -0.0367431641, 0.9418335, 0.326416016)
(-0.0707397461, -0.0367431641, 0.9418335, 0.326416016)
(-0.0707397461, -0.03692627, 0.9417114, 0.326660156)
(-0.07098389, -0.0373535156, 0.9417114, 0.326660156)
(-0.07098389, -0.0373535156, 0.9417114, 0.326660156)
(-0.07128906, -0.0377197266, 0.9416504, 0.326599121)
(-0.07128906, -0.0377197266, 0.9416504, 0.326599121)
(-0.07128906, -0.0377197266, 0.9416504, 0.326599121)
(-0.07128906, -0.03778076, 0.9416504, 0.326599121)
(-0.07141113, -0.0374755859, 0.9417114, 0.326599121)
(-0.07141113, -0.0374755859, 0.9417114, 0.326599121)
(-0.07141113, -0.03704834, 0.9417114, 0.326599121)
(-0.07141113, -0.03704834, 0.9417114, 0.326599121)
(-0.07159424, -0.03717041, 0.9417114, 0.3265381)
(-0.07183838, -0.0374755859, 0.9417114, 0.326416016)
(-0.07183838, -0.0374755859, 0.9417114, 0.326416016)
(-0.0721435547, -0.03765869, 0.9417114, 0.3262329)
(-0.0721435547, -0.03765869, 0.9417114, 0.3262329)
(-0.0721435547, -0.03765869, 0.9417114, 0.3262329)
(-0.0721435547, -0.03741455, 0.941772461, 0.326171875)
(-0.0721435547, -0.03741455, 0.941772461, 0.326171875)
(-0.0721435547, -0.03729248, 0.9418335, 0.32598877)
(-0.0721435547, -0.03729248, 0.9418335, 0.32598877)
(-0.0725097656, -0.0373535156, 0.941894531, 0.325744629)
(-0.0725097656, -0.0373535156, 0.941894531, 0.325744629)
(-0.07269287, -0.0377197266, 0.941955566, 0.3255005)
(-0.07269287, -0.0377197266, 0.941955566, 0.3255005)
(-0.07299805, -0.0380249023, 0.941955566, 0.325317383)
(-0.07299805, -0.0380249023, 0.941955566, 0.325317383)
(-0.07299805, -0.0380249023, 0.941955566, 0.325317383)
(-0.07287598, -0.03753662, 0.9420166, 0.325317383)
(-0.07287598, -0.03753662, 0.9420166, 0.325317383)
(-0.07287598, -0.03753662, 0.9420166, 0.325317383)
(-0.07287598, -0.03753662, 0.9420166, 0.325317383)
(-0.07305908, -0.0377197266, 0.9420166, 0.325256348)
(-0.07330322, -0.037902832, 0.9420166, 0.325073242)
(-0.07330322, -0.037902832, 0.9420166, 0.325073242)
(-0.07336426, -0.0379638672, 0.9420166, 0.325073242)
(-0.07336426, -0.0379638672, 0.9420166, 0.325073242)
(-0.0736084, -0.037902832, 0.9420166, 0.325073242)
(-0.0736084, -0.037902832, 0.9420166, 0.325073242)
(-0.07385254, -0.0377197266, 0.9420166, 0.325134277)
(-0.07385254, -0.0377197266, 0.9420166, 0.325134277)
(-0.0740356445, -0.0375976563, 0.9420166, 0.325073242)
(-0.0740356445, -0.0375976563, 0.9420166, 0.325073242)
(-0.0742797852, -0.03765869, 0.9420166, 0.324951172)
(-0.0742797852, -0.03765869, 0.9420166, 0.324951172)
(-0.0742797852, -0.03765869, 0.9420166, 0.324951172)
(-0.0742797852, -0.03765869, 0.9420166, 0.324951172)
(-0.0742797852, -0.03765869, 0.9420166, 0.324951172)
(-0.0742797852, -0.03765869, 0.9420166, 0.324951172)
(-0.0742797852, -0.03765869, 0.9420166, 0.324951172)
(-0.0744018555, -0.0377197266, 0.942077637, 0.324707031)
(-0.07470703, -0.0381469727, 0.9421387, 0.3244629)
(-0.07470703, -0.0381469727, 0.9421387, 0.3244629)
(-0.07501221, -0.038269043, 0.9421997, 0.32421875)
(-0.07501221, -0.038269043, 0.9421997, 0.32421875)
(-0.07501221, -0.038269043, 0.9421997, 0.32421875)
(-0.07501221, -0.038269043, 0.9421997, 0.32421875)
(-0.07501221, -0.03778076, 0.942260742, 0.3241577)
(-0.07501221, -0.03778076, 0.942260742, 0.3241577)
(-0.07501221, -0.03741455, 0.9421997, 0.32421875)
(-0.07501221, -0.03741455, 0.9421997, 0.32421875)
(-0.07495117, -0.03741455, 0.9421997, 0.32421875)
(-0.07495117, -0.03741455, 0.9421997, 0.32421875)
(-0.07495117, -0.03741455, 0.942260742, 0.32421875)
(-0.07495117, -0.03741455, 0.942260742, 0.32421875)
(-0.07519531, -0.03729248, 0.9421997, 0.3241577)
(-0.07519531, -0.03729248, 0.9421997, 0.3241577)
(-0.0756835938, -0.03717041, 0.9421997, 0.32421875)
(-0.07635498, -0.03729248, 0.9421387, 0.32409668)
(-0.07635498, -0.03729248, 0.9421387, 0.32409668)
(-0.07635498, -0.03729248, 0.9421387, 0.32409668)
(-0.0766601563, -0.0373535156, 0.9421387, 0.3241577)
(-0.07696533, -0.0369873047, 0.942077637, 0.3242798)
(-0.07727051, -0.03692627, 0.9418335, 0.3248291)
(-0.07727051, -0.03692627, 0.9418335, 0.3248291)
(-0.07727051, -0.03692627, 0.9418335, 0.3248291)
(-0.07751465, -0.0374755859, 0.9416504, 0.325256348)
(-0.0780639648, -0.0383911133, 0.94140625, 0.325805664)
(-0.0780639648, -0.0383911133, 0.94140625, 0.325805664)
(-0.0785522461, -0.0394897461, 0.940856934, 0.3270874)
(-0.0785522461, -0.0394897461, 0.940856934, 0.3270874)
(-0.0785522461, -0.0394897461, 0.940368652, 0.328613281)
(-0.0783081055, -0.0388793945, 0.93963623, 0.330688477)
(-0.0783081055, -0.03857422, 0.9389038, 0.332885742)
(-0.0783081055, -0.03857422, 0.9389038, 0.332885742)
(-0.07867432, -0.0386352539, 0.9384155, 0.3340454)
(-0.07867432, -0.0386352539, 0.9384155, 0.3340454)
(-0.07904053, -0.03857422, 0.937927246, 0.335388184)
(-0.07904053, -0.03857422, 0.937927246, 0.335388184)
(-0.07952881, -0.0383911133, 0.937438965, 0.336730957)
(-0.07922363, -0.0367431641, 0.937072754, 0.337890625)
(-0.07922363, -0.0367431641, 0.937072754, 0.337890625)
(-0.07879639, -0.03466797, 0.9367676, 0.3390503)
(-0.07879639, -0.03466797, 0.9367676, 0.3390503)
(-0.07885742, -0.0336914063, 0.936523438, 0.3399048)
(-0.07885742, -0.0336914063, 0.936523438, 0.3399048)
(-0.07928467, -0.0341796875, 0.9362793, 0.340332031)
(-0.07928467, -0.0341796875, 0.9362793, 0.340332031)
(-0.08001709, -0.0354614258, 0.9361572, 0.340332031)
(-0.08081055, -0.0363769531, 0.936035156, 0.340393066)
(-0.08081055, -0.0363769531, 0.936035156, 0.340393066)
(-0.08129883, -0.03643799, 0.9359131, 0.340759277)
(-0.08129883, -0.03643799, 0.9359131, 0.340759277)
(-0.08129883, -0.03552246, 0.935791, 0.341186523)
(-0.08123779, -0.03479004, 0.935668945, 0.341552734)
(-0.08123779, -0.03479004, 0.935668945, 0.341552734)
(-0.08129883, -0.03491211, 0.9355469, 0.34173584)
(-0.08129883, -0.03491211, 0.9355469, 0.34173584)
(-0.08166504, -0.0358276367, 0.93548584, 0.3418579)
(-0.08166504, -0.0358276367, 0.93548584, 0.3418579)
(-0.08203125, -0.03656006, 0.93536377, 0.342041016)
(-0.08203125, -0.03656006, 0.93536377, 0.342041016)
(-0.0822143555, -0.03668213, 0.9352417, 0.3423462)
(-0.0822143555, -0.03668213, 0.9352417, 0.3423462)
(-0.08203125, -0.03643799, 0.935180664, 0.3425293)
(-0.0820922852, -0.03643799, 0.9351196, 0.342590332)
(-0.0820922852, -0.03643799, 0.9351196, 0.342590332)
(-0.0823364258, -0.037109375, 0.9350586, 0.3427124)
(-0.0823364258, -0.037109375, 0.9350586, 0.3427124)
(-0.08276367, -0.038269043, 0.9348755, 0.3428955)
(-0.08319092, -0.0393676758, 0.9346924, 0.343200684)
(-0.08319092, -0.0393676758, 0.9346924, 0.343200684)
(-0.08319092, -0.0397949219, 0.934631348, 0.343322754)
(-0.08319092, -0.0397949219, 0.934631348, 0.343322754)
(-0.08325195, -0.0397949219, 0.934631348, 0.343322754)
(-0.08325195, -0.0397949219, 0.934631348, 0.343322754)
(-0.08331299, -0.0397949219, 0.934631348, 0.343322754)
(-0.08331299, -0.0397949219, 0.934631348, 0.343322754)
(-0.08355713, -0.0399780273, 0.934631348, 0.343200684)
(-0.08355713, -0.0399780273, 0.934631348, 0.343200684)
(-0.08380127, -0.0401000977, 0.9345703, 0.343261719)
(-0.08380127, -0.0401000977, 0.9345703, 0.343261719)
(-0.0837402344, -0.0400390625, 0.9345093, 0.3435669)
(-0.0837402344, -0.0400390625, 0.9345093, 0.3435669)
(-0.0836181641, -0.0397949219, 0.934448242, 0.343688965)
(-0.08355713, -0.0397338867, 0.934448242, 0.343688965)
(-0.08355713, -0.0397338867, 0.934448242, 0.343688965)
(-0.0838623047, -0.0400390625, 0.9343872, 0.34375)
(-0.0838623047, -0.0400390625, 0.9343872, 0.34375)
(-0.0842285156, -0.04046631, 0.9343872, 0.343688965)
(-0.08428955, -0.04046631, 0.9343872, 0.343688965)
(-0.08428955, -0.04046631, 0.9343872, 0.343688965)
(-0.08428955, -0.04046631, 0.9343872, 0.343688965)
(-0.08428955, -0.04046631, 0.9343872, 0.343688965)
(-0.0843505859, -0.04046631, 0.9343872, 0.343688965)
(-0.0843505859, -0.04046631, 0.9343872, 0.343688965)
(-0.08459473, -0.0405273438, 0.9343262, 0.343688965)
(-0.08459473, -0.0405273438, 0.9343262, 0.343688965)
(-0.08459473, -0.0405273438, 0.9343262, 0.343688965)
(-0.08459473, -0.0405273438, 0.9343262, 0.343688965)
(-0.08459473, -0.0405273438, 0.9343262, 0.343688965)
(-0.08459473, -0.0405273438, 0.9343262, 0.343688965)
(-0.08459473, -0.0405273438, 0.9343262, 0.343688965)
(-0.08465576, -0.04046631, 0.9343262, 0.343688965)
(-0.08465576, -0.04046631, 0.9343262, 0.343688965)
(-0.08465576, -0.04046631, 0.9343262, 0.343688965)
(-0.08465576, -0.04046631, 0.9343262, 0.343688965)
(-0.0847168, -0.04046631, 0.9343262, 0.343688965)
(-0.0847168, -0.0404052734, 0.9343262, 0.343688965)
(-0.0847168, -0.0404052734, 0.9343262, 0.343688965)
(-0.08477783, -0.0404052734, 0.9343262, 0.343688965)
(-0.08477783, -0.0404052734, 0.9343262, 0.343688965)
(-0.0847168, -0.0402832031, 0.934265137, 0.3439331)
(-0.0847168, -0.0402832031, 0.934265137, 0.3439331)
(-0.08477783, -0.0402832031, 0.9342041, 0.3441162)
(-0.08477783, -0.0402832031, 0.9342041, 0.3441162)
(-0.08477783, -0.0402832031, 0.9342041, 0.3441162)
(-0.08477783, -0.040222168, 0.9342041, 0.3441162)
(-0.08477783, -0.040222168, 0.9342041, 0.3441162)
(-0.08483887, -0.040222168, 0.9342041, 0.3441162)
(-0.08483887, -0.040222168, 0.9342041, 0.3441162)
(-0.08483887, -0.040222168, 0.9342041, 0.3441162)
(-0.08483887, -0.040222168, 0.9342041, 0.3441162)
(-0.08483887, -0.040222168, 0.9342041, 0.3441162)
(-0.08483887, -0.040222168, 0.9342041, 0.3441162)
(-0.08483887, -0.040222168, 0.9342041, 0.3441162)
(-0.08483887, -0.0401611328, 0.9342041, 0.3441162)
(-0.08483887, -0.0401611328, 0.9342041, 0.3441162)
(-0.08483887, -0.0401611328, 0.9342041, 0.3441162)
(-0.08483887, -0.0401611328, 0.9342041, 0.3441162)
(-0.08483887, -0.0401611328, 0.9342041, 0.3441162)
(-0.0848999, -0.0399169922, 0.934082031, 0.3444214)
(-0.0848999, -0.0399169922, 0.934082031, 0.3444214)
(-0.0848999, -0.0399169922, 0.934082031, 0.3444214)
(-0.0848999, -0.0396118164, 0.934021, 0.3446045)
(-0.08477783, -0.03942871, 0.933959961, 0.3447876)
(-0.08477783, -0.03942871, 0.933959961, 0.3447876)
(-0.08477783, -0.03942871, 0.933959961, 0.3447876)
(-0.08477783, -0.03942871, 0.933959961, 0.3447876)
(-0.08483887, -0.03942871, 0.933959961, 0.3447876)
(-0.08483887, -0.03942871, 0.933959961, 0.3447876)
(-0.08508301, -0.0396118164, 0.9338989, 0.344909668)
(-0.08508301, -0.0396118164, 0.9338989, 0.344909668)
(-0.08508301, -0.0396118164, 0.9338989, 0.344909668)
(-0.08514404, -0.0396118164, 0.9338989, 0.344909668)
(-0.08514404, -0.0396118164, 0.9338989, 0.344909668)
(-0.08526611, -0.0394897461, 0.9338379, 0.345092773)
(-0.08526611, -0.0394897461, 0.9338379, 0.345092773)
(-0.08532715, -0.0394897461, 0.9338379, 0.345092773)
(-0.08532715, -0.0394897461, 0.9338379, 0.345092773)
(-0.08532715, -0.0394897461, 0.9338379, 0.345092773)
(-0.08532715, -0.0394897461, 0.9338379, 0.345092773)
(-0.08538818, -0.0394897461, 0.9338379, 0.345092773)
(-0.08538818, -0.0394897461, 0.9338379, 0.345092773)
(-0.08544922, -0.0391235352, 0.933776855, 0.345214844)
(-0.08544922, -0.0391235352, 0.933776855, 0.345214844)
(-0.08544922, -0.0391235352, 0.933776855, 0.345214844)
(-0.08544922, -0.0390625, 0.933776855, 0.345214844)
(-0.08544922, -0.0390625, 0.933776855, 0.345214844)
(-0.0855102539, -0.0390625, 0.933776855, 0.3451538)
(-0.0855102539, -0.0391235352, 0.933776855, 0.3451538)
(-0.0855102539, -0.0391235352, 0.933776855, 0.3451538)
(-0.0855102539, -0.0391235352, 0.933776855, 0.3451538)
(-0.0855102539, -0.0391235352, 0.933776855, 0.3451538)
(-0.0855102539, -0.0390625, 0.933776855, 0.3451538)
(-0.0855102539, -0.0390625, 0.933776855, 0.3451538)
(-0.0855102539, -0.0390625, 0.9338379, 0.3449707)
(-0.0855102539, -0.0390625, 0.9338379, 0.3449707)
(-0.08544922, -0.03894043, 0.933959961, 0.3447876)
(-0.08544922, -0.03894043, 0.933959961, 0.3447876)
(-0.08514404, -0.0386352539, 0.934021, 0.3446045)
(-0.0847168, -0.0380859375, 0.934143066, 0.3444214)
(-0.0847168, -0.0380859375, 0.934143066, 0.3444214)
(-0.0841064453, -0.03717041, 0.9343872, 0.3441162)
(-0.0841064453, -0.03717041, 0.9343872, 0.3441162)
(-0.0836792, -0.0357055664, 0.934631348, 0.34362793)
(-0.08477783, -0.0362548828, 0.9345703, 0.343444824)
(-0.08477783, -0.0362548828, 0.9345703, 0.343444824)
(-0.0855102539, -0.03692627, 0.9345093, 0.343444824)
(-0.0855102539, -0.03692627, 0.9345093, 0.343444824)
(-0.0858764648, -0.0368042, 0.9343872, 0.343688965)
(-0.0858764648, -0.0368042, 0.9343872, 0.343688965)
(-0.0861206055, -0.0362548828, 0.934143066, 0.344299316)
(-0.0861206055, -0.0362548828, 0.934143066, 0.344299316)
(-0.08618164, -0.0354614258, 0.934021, 0.344665527)
(-0.08618164, -0.0354614258, 0.934021, 0.344665527)
(-0.08642578, -0.0354614258, 0.933959961, 0.3447876)
(-0.08691406, -0.0361328125, 0.9338989, 0.344909668)
(-0.08691406, -0.0361328125, 0.9338989, 0.344909668)
(-0.08721924, -0.03668213, 0.933776855, 0.345031738)
(-0.08721924, -0.03668213, 0.933776855, 0.345031738)
(-0.08721924, -0.0364990234, 0.9336548, 0.345275879)
(-0.08721924, -0.0364990234, 0.9336548, 0.345275879)
(-0.0871582, -0.0361938477, 0.93359375, 0.345581055)
(-0.0871582, -0.0361938477, 0.93359375, 0.345581055)
(-0.0874023438, -0.03656006, 0.9334717, 0.3458252)
(-0.0874023438, -0.03692627, 0.933410645, 0.345947266)
(-0.0874023438, -0.03692627, 0.933410645, 0.345947266)
(-0.0874023438, -0.03692627, 0.933410645, 0.345947266)
(-0.0874023438, -0.0369873047, 0.933410645, 0.345947266)
(-0.0874023438, -0.03692627, 0.933410645, 0.345947266)
(-0.0874023438, -0.03692627, 0.933410645, 0.345947266)
(-0.08728027, -0.03668213, 0.9333496, 0.3461914)
(-0.08728027, -0.03668213, 0.933227539, 0.346435547)
(-0.08728027, -0.03668213, 0.933227539, 0.346435547)
(-0.08734131, -0.03668213, 0.9331665, 0.346618652)
(-0.08734131, -0.03668213, 0.9331665, 0.346618652)
(-0.08728027, -0.03668213, 0.933105469, 0.346801758)
(-0.08728027, -0.03668213, 0.933105469, 0.346801758)
(-0.08709717, -0.03668213, 0.933044434, 0.346984863)
(-0.08709717, -0.03668213, 0.933044434, 0.346984863)
(-0.08709717, -0.03668213, 0.933044434, 0.346984863)
(-0.08709717, -0.03668213, 0.933044434, 0.346984863)
(-0.0871582, -0.03668213, 0.933044434, 0.346984863)
(-0.0871582, -0.03668213, 0.933044434, 0.346984863)
(-0.0871582, -0.03668213, 0.933044434, 0.346984863)
(-0.0871582, -0.03668213, 0.933044434, 0.346984863)
(-0.0871582, -0.03668213, 0.933044434, 0.346984863)
(-0.0871582, -0.03668213, 0.933044434, 0.346984863)
(-0.0871582, -0.03668213, 0.933044434, 0.346984863)
(-0.0871582, -0.03668213, 0.933044434, 0.346984863)
(-0.0871582, -0.03668213, 0.933044434, 0.346984863)
(-0.0871582, -0.03668213, 0.933044434, 0.346984863)
(-0.0871582, -0.0366210938, 0.933044434, 0.346984863)
(-0.0871582, -0.0366210938, 0.933044434, 0.346984863)
(-0.0871582, -0.0366210938, 0.933044434, 0.346984863)
(-0.0871582, -0.0366210938, 0.933044434, 0.346984863)
(-0.0871582, -0.03668213, 0.9329834, 0.347167969)
(-0.0871582, -0.03668213, 0.9329834, 0.347167969)
(-0.0871582, -0.03668213, 0.932922363, 0.3474121)
(-0.0871582, -0.03668213, 0.932922363, 0.3474121)
(-0.0871582, -0.03668213, 0.932922363, 0.3474121)
(-0.0871582, -0.03668213, 0.932922363, 0.3474121)
(-0.0871582, -0.03668213, 0.932922363, 0.3474121)
(-0.0869751, -0.03656006, 0.932922363, 0.3474121)
(-0.0869751, -0.03656006, 0.932922363, 0.347473145)
(-0.0869751, -0.03656006, 0.932922363, 0.347473145)
(-0.0869751, -0.03656006, 0.932922363, 0.347473145)
(-0.08691406, -0.03656006, 0.932922363, 0.347473145)
(-0.08691406, -0.03656006, 0.932922363, 0.347473145)
(-0.08666992, -0.036315918, 0.932922363, 0.347473145)
(-0.08648682, -0.0363769531, 0.9328613, 0.34765625)
(-0.08648682, -0.0363769531, 0.9328613, 0.34765625)
(-0.0863647461, -0.0366210938, 0.9328613, 0.34777832)
(-0.0863647461, -0.0366210938, 0.9328613, 0.34777832)
(-0.0858764648, -0.0364990234, 0.9328613, 0.3479004)
(-0.0858764648, -0.0364990234, 0.9328613, 0.3479004)
(-0.08538818, -0.0361328125, 0.9328613, 0.347961426)
(-0.08502197, -0.0360717773, 0.932922363, 0.347961426)
(-0.08502197, -0.0360717773, 0.932922363, 0.347961426)
(-0.08477783, -0.03643799, 0.932922363, 0.347961426)
(-0.08477783, -0.03643799, 0.932922363, 0.347961426)
(-0.08477783, -0.03643799, 0.932922363, 0.347961426)
(-0.08477783, -0.03643799, 0.932922363, 0.347961426)
(-0.08453369, -0.0362548828, 0.9328613, 0.348144531)
(-0.08453369, -0.0362548828, 0.9328613, 0.348144531)
(-0.08453369, -0.0360107422, 0.9328003, 0.3484497)
(-0.08453369, -0.0360107422, 0.9328003, 0.3484497)
(-0.08477783, -0.0362548828, 0.9326782, 0.3486328)
(-0.08496094, -0.0366210938, 0.9326172, 0.348693848)
(-0.08496094, -0.0366210938, 0.9326172, 0.348693848)
(-0.08496094, -0.0366210938, 0.9326172, 0.348693848)
(-0.08496094, -0.0366210938, 0.9326172, 0.348693848)
(-0.08496094, -0.03668213, 0.9326172, 0.348693848)
(-0.08496094, -0.03668213, 0.9326172, 0.348693848)
(-0.08496094, -0.03668213, 0.9326172, 0.348693848)
(-0.08496094, -0.0366210938, 0.9326172, 0.348693848)
(-0.08496094, -0.0366210938, 0.9326172, 0.348693848)
(-0.08496094, -0.0366210938, 0.9326172, 0.348693848)
(-0.08496094, -0.0366210938, 0.9326172, 0.348693848)
(-0.0848999, -0.03656006, 0.9326172, 0.348693848)
(-0.0848999, -0.03656006, 0.9326172, 0.348693848)
(-0.0848999, -0.03656006, 0.9326172, 0.348693848)
(-0.0848999, -0.03656006, 0.9326172, 0.348693848)
(-0.0848999, -0.03656006, 0.9326172, 0.348693848)
(-0.0848999, -0.03656006, 0.9326172, 0.348693848)
(-0.0848999, -0.03656006, 0.9326172, 0.348693848)
(-0.0848999, -0.03656006, 0.9326172, 0.348693848)
(-0.0848999, -0.0364990234, 0.9326172, 0.348693848)
(-0.0848999, -0.0364990234, 0.9326172, 0.348693848)
(-0.0848999, -0.0364990234, 0.9326172, 0.348693848)
(-0.08483887, -0.0361328125, 0.932556152, 0.348938)
(-0.08483887, -0.0361328125, 0.932556152, 0.348938)
(-0.08465576, -0.035949707, 0.9324341, 0.3493042)
(-0.08465576, -0.035949707, 0.9324341, 0.3493042)
(-0.08459473, -0.035949707, 0.932373047, 0.3494873)
(-0.08459473, -0.035949707, 0.932373047, 0.3494873)
(-0.08459473, -0.035949707, 0.932373047, 0.3494873)
(-0.08459473, -0.0358886719, 0.932373047, 0.3494873)
(-0.08459473, -0.0358886719, 0.932373047, 0.3494873)
(-0.0842285156, -0.03552246, 0.932373047, 0.3496704)
(-0.0838623047, -0.0352172852, 0.932373047, 0.34979248)
(-0.0838623047, -0.0352172852, 0.932373047, 0.34979248)
(-0.08380127, -0.03564453, 0.932312, 0.349853516)
(-0.08380127, -0.03564453, 0.932312, 0.349853516)
(-0.083984375, -0.0364990234, 0.932312, 0.349853516)
(-0.083984375, -0.0364990234, 0.932312, 0.349853516)
(-0.0841064453, -0.0369873047, 0.932251, 0.349914551)
(-0.0841064453, -0.0369873047, 0.932251, 0.349914551)
(-0.08404541, -0.03656006, 0.932189941, 0.350036621)
(-0.08404541, -0.03656006, 0.932189941, 0.350036621)
