11,-39,-74,-16,2,2,-7,4,-12,8
22,-13,-30,-20,-8,14,-11,-2,-2,14
18,27,2,-17,-21,10,-14,-9,3,21
7,39,8,-4,-23,-2,-17,6,9,2
-10,18,13,-5,-18,-19,0,26,1,-16
-9,15,-19,0,-6,-4,40,30,-6,-17
20,31,-27,2,-17,-8,64,-6,0,0
47,11,35,-2,-22,-12,45,-35,7,-7
21,-30,37,-4,-13,16,29,-36,-19,-43
2,-32,44,0,-1,28,5,-38,-37,-66
27,-6,50,-4,-6,12,-10,-32,-9,-37
42,19,50,-6,-7,11,-17,-35,2,4
42,23,34,6,1,18,2,-15,24,5
44,-34,20,4,14,38,29,23,51,15
38,-60,19,-13,6,30,36,16,68,24
21,-54,-1,-26,20,27,54,7,79,27
7,-35,-4,-8,26,38,76,20,72,17
-16,-16,10,-2,26,30,51,33,53,-4
-19,34,14,-4,28,7,8,40,43,1
-10,52,4,-1,27,13,-1,32,41,12
-18,44,-45,11,27,28,35,37,40,2
-18,26,-75,18,13,9,33,34,12,-6
-4,18,-14,18,-3,-4,-16,16,-7,0
6,19,-7,7,-13,-8,-21,4,-12,15
13,23,20,4,-10,-6,-10,-3,-14,5
6,33,40,4,-6,-6,-1,-3,-19,8
-2,6,27,-7,-19,-11,-14,2,-25,6
-7,-42,-13,-25,-20,-7,-48,-4,-22,3
-1,-44,-32,-26,-16,-12,-51,4,-25,-7
11,-26,-28,-18,-12,-12,-8,8,-36,-28
6,-28,-14,-7,-15,-11,13,8,-40,-30
14,-20,8,-6,-18,-18,5,0,-38,-16
25,-13,11,-4,-6,-12,7,1,-10,-4
31,-3,3,-9,-8,-11,9,7,3,1
27,1,6,-19,-4,-12,-5,20,5,7
19,6,8,-20,0,-10,-1,23,5,3
9,5,-87,-17,-4,-13,7,19,7,0
16,-3,-113,-20,-12,-21,-9,10,15,5
43,21,-8,-25,-8,-30,-29,7,33,30
37,38,17,-6,0,-3,-46,11,27,24
-2,13,-48,0,6,10,-35,18,10,-29
-4,14,-45,-8,-2,4,-44,4,13,-26
8,27,19,-17,-7,10,-62,0,11,1
24,41,36,-3,-6,21,-51,0,0,18
27,33,56,8,1,22,-38,-17,-4,10
0,15,17,8,5,18,-18,-26,16,0
-8,21,31,15,1,9,-19,-32,18,3
-3,21,49,6,0,7,4,-26,16,-1
-22,7,24,-10,2,23,37,4,13,-15
-35,-3,-36,5,2,34,36,17,17,-37
-9,-7,-33,17,-5,33,41,11,46,-13
8,-8,27,18,-10,6,25,-11,50,26
6,0,23,17,0,-4,7,-35,54,21
10,10,27,9,0,-2,-4,-55,64,24
8,3,4,-3,-14,0,-2,-50,66,33
2,-4,0,-16,-25,0,-8,-40,51,26
8,5,10,-11,-27,1,-10,-32,37,23
10,18,31,-6,-9,7,-12,-4,6,0
9,39,39,15,11,12,-12,30,-11,-17
17,49,8,25,16,11,-19,39,-19,-19
29,47,-4,4,10,0,-15,36,-22,-15
29,-15,2,0,-1,-22,-24,-11,-38,3
10,-92,-6,-11,-2,-30,-23,-34,-51,-1
-11,-107,-20,-23,0,-31,1,-18,-50,-21
-38,-85,-18,-23,0,-12,34,-1,-52,-30
-47,-55,-4,-21,-11,5,49,14,-37,-13
-38,-55,-35,-17,-8,11,44,19,-36,-18
-29,-44,-33,-11,-13,10,33,6,-31,-14
-32,-32,37,-20,-12,8,-4,-9,-28,-26
-36,0,44,-20,0,7,-16,-13,-39,-41
-61,12,40,-19,-1,6,0,-10,-46,-28
-35,15,24,-6,0,8,-1,-13,-31,6
3,38,-3,-7,0,-6,-38,-1,11,11
9,43,-46,-15,2,-10,-29,-15,23,11
17,33,10,-14,-3,-21,-11,-23,10,17
20,34,26,-11,-13,-40,-5,-26,7,34
22,38,33,-5,-19,-40,-17,-38,19,47
25,34,39,-5,-20,-17,-28,-35,24,40
8,19,9,-2,-5,-8,-17,-14,21,31
-27,-17,-80,16,10,13,4,11,34,38
-51,-25,-36,21,13,30,23,40,42,36
-34,-19,24,12,5,10,17,34,35,8
-18,-20,12,7,-1,0,5,9,31,-4
-8,-8,5,9,-6,9,-7,0,36,1
-7,8,25,10,-14,6,-7,-13,46,23
-4,14,31,4,-17,-16,-15,-22,40,25
19,9,25,-6,-13,-39,-2,-16,29,14
23,10,10,-6,3,-22,-9,-12,33,3
28,19,-13,-3,11,0,-10,-16,32,5
26,26,6,-3,12,-4,-9,-21,26,-5
27,11,7,-10,11,3,-10,-17,19,-4
19,-5,3,5,14,4,0,-20,1,-13
17,-12,-25,0,13,6,-7,-9,-24,0
16,0,-33,5,21,13,20,-8,-13,34
-5,-23,-46,4,31,14,32,5,-5,0
-13,-48,-16,-3,30,21,25,6,-24,-43
-4,-56,20,0,26,23,31,-4,-52,-45
24,-31,14,-7,18,11,19,-15,-58,-7
58,-11,0,-39,-6,0,-4,-12,-37,29
50,-18,-10,-31,-8,-6,-22,-11,-21,28
-8,-31,16,21,28,-7,-50,-20,-35,-30
-6,-15,-52,32,38,-13,-52,2,-27,-35
9,15,0,11,25,-19,-36,35,-15,-19
12,34,33,4,31,7,-28,30,-14,-12
-10,36,21,9,25,14,-21,6,-36,-37
-31,32,9,13,12,0,-10,-4,-51,-48
-24,24,2,12,15,3,11,8,-46,-32
-10,16,7,2,10,6,14,15,-25,-17
-1,23,16,0,12,9,20,19,-3,-13
2,42,33,12,10,15,25,44,0,-14
21,61,50,15,11,20,13,31,2,1
23,28,30,0,6,14,6,-13,-4,4
3,-49,-14,-14,-1,2,12,-32,-1,-1
-4,-72,-18,0,0,4,26,-20,25,18
21,-47,-16,19,-9,-4,40,0,26,51
42,-21,-51,11,-15,5,23,7,19,63
45,16,-1,0,-17,7,17,4,19,55
47,54,14,5,-15,11,26,15,31,54
34,43,0,9,-12,10,37,36,38,54
9,17,-2,6,-30,-21,-2,10,19,47
21,32,4,-14,-46,-54,-41,-24,9,48
30,8,-9,-13,-31,-53,-37,-25,26,49
20,-2,-14,-3,-16,-24,-9,14,39,51
-11,0,-15,-10,-10,-5,19,45,36,40
-36,-16,-15,-5,3,7,24,31,16,13
-49,-14,-22,7,8,22,31,40,-16,-3
-59,-18,-65,-1,-3,16,26,19,-35,-16
-39,-23,-13,0,-15,1,16,5,-13,4
-36,-18,4,-6,-12,9,20,-6,14,-5
-42,-13,-52,-8,-12,27,1,-3,4,-44
-53,-13,-48,-19,-14,27,-21,1,-52,-67
-69,-25,-12,-9,-4,29,-15,26,-48,-71
-68,-23,-5,7,3,24,-14,58,-39,-56
-18,18,2,9,-16,7,-25,25,-44,-8
3,30,13,9,-11,7,-12,-14,-53,6
2,44,19,7,-9,14,-15,-20,-53,0
22,68,32,14,-6,0,-28,-23,-32,18
36,59,19,10,-13,-2,-40,-25,-26,26
18,36,-17,1,-33,4,-57,-9,-31,10
12,37,-72,2,-40,4,-56,-9,-43,18
22,77,-2,16,-23,8,-63,-18,-39,0
26,79,39,20,-10,6,-60,-20,-49,-29
27,69,33,11,1,18,-19,-1,-40,-38
25,80,36,17,12,29,4,-8,-48,-46
64,81,49,24,20,16,-10,-29,-38,-35
75,13,36,30,15,11,-16,-8,12,3
49,-98,22,34,28,14,-5,5,17,0
18,-143,10,37,34,11,6,8,10,-4
11,-95,18,26,11,-1,18,-4,1,7
43,-22,31,30,-5,-21,15,-30,-7,1
147,71,32,26,-29,-29,-19,-34,26,55
213,141,18,21,-35,-29,-44,-13,64,110
221,242,40,14,-35,-52,-37,-2,41,72
243,367,59,-7,-58,-80,-61,-26,-3,17
246,341,62,-13,-55,-50,-46,-8,5,4
156,170,61,17,-10,0,14,35,55,16
-24,-57,13,35,20,31,61,63,75,-5
-157,-160,-29,11,-2,14,32,25,42,-42
-205,-150,-71,-32,-33,-19,-28,-33,-1,-81
-232,-116,-77,-47,-47,-59,-53,-52,-8,-90
-182,-30,-42,-32,-48,-57,-59,-48,-7,-77
-114,-18,-35,-31,-24,-20,-16,-34,-25,-52
-72,-15,-36,-22,-11,1,22,-3,-13,-11
-87,-62,-43,1,14,24,37,33,8,-8
-163,-210,-12,39,62,52,77,69,38,24
-275,-362,-7,64,96,79,109,75,23,8
-266,-313,3,72,103,76,59,30,-12,-40
-191,-247,-10,46,89,52,22,8,-18,-39
-143,-241,-27,25,57,52,-5,23,4,1
-98,-203,-33,-1,36,28,-26,33,16,29
-63,-168,-38,-12,10,0,-15,30,15,42
-37,-136,-41,-22,-3,-7,-4,13,8,46
-32,-112,-32,-23,-3,-5,-4,13,4,27
-22,-95,-21,-24,3,-3,-1,8,-8,31
-15,-77,-12,-8,5,-2,-22,-2,-23,25
1,-47,8,-1,1,2,-31,-19,-19,27
26,-21,12,-5,10,2,-20,-20,-16,30
38,15,16,0,23,18,-13,11,-16,33
38,59,22,-4,24,11,-15,5,-26,11
70,93,23,-6,11,-10,-13,-28,-23,0
135,123,39,4,18,-2,-3,-16,-20,8
159,120,56,23,28,13,23,-13,-17,19
152,92,43,11,7,1,12,-10,-11,33
122,79,33,-2,-19,-17,-25,-8,-6,33
80,92,47,-18,-30,-35,-40,-15,-9,15
52,53,35,-20,-17,-43,-46,-18,1,26
49,-4,8,-22,-2,-47,-29,-1,23,35
29,-7,1,-35,-14,-47,-28,-9,17,4
47,118,25,-30,-29,-65,-50,-32,-7,-20
116,221,50,-34,-54,-94,-84,-48,-25,-38
171,270,77,-32,-56,-85,-84,-65,-40,-70
190,324,117,-17,-57,-87,-72,-85,-66,-77
200,367,142,-1,-52,-60,-41,-84,-52,-22
193,290,90,21,-42,-52,-40,-67,-8,17
120,108,45,35,-9,-28,-17,-21,39,23
-13,8,6,44,19,12,34,33,76,4
-66,90,-48,25,17,20,42,20,78,0
-84,132,-45,16,5,20,41,-4,75,4
-147,11,-30,19,-9,7,41,-26,33,-47
-149,-178,-45,-6,-40,-14,14,-50,-15,-97
-33,-154,-40,-13,-56,-33,-3,-50,-18,-78
120,-38,-29,-15,-54,-41,-15,-46,-14,-21
245,58,-12,-15,-47,-33,6,28,9,43
327,174,-50,-29,-50,-59,23,51,22,104
369,280,-75,-41,-64,-63,20,66,45,133
384,409,-13,-72,-108,-114,-33,10,-18,77
294,518,70,-62,-140,-170,-111,-109,-146,-30
174,611,156,-23,-134,-172,-161,-127,-191,-66
251,590,152,-32,-130,-173,-213,-168,-229,-63
441,656,119,-55,-140,-196,-236,-177,-230,-31
299,291,70,-49,-106,-157,-185,-98,-131,24
-49,-318,-43,-31,-42,-63,-85,-13,-46,-6
-137,-413,-57,-10,4,5,5,58,11,-8
-18,-176,-32,7,32,6,44,79,48,42
-54,-186,-106,1,43,46,72,88,66,42
-283,-411,-148,5,84,173,124,111,77,5
-560,-540,-116,41,112,125,131,114,80,-44
-592,-413,-75,73,112,54,126,111,72,-50
-473,-262,37,140,131,83,132,129,92,27
-377,-336,105,173,130,86,114,139,100,69
-180,-278,110,132,82,88,60,100,49,46
156,13,90,41,2,57,2,17,0,36
436,367,52,-25,-75,17,-37,-18,-14,73
510,523,-8,-53,-99,9,-28,0,9,110
467,469,-30,-45,-91,-52,-43,-30,-2,70
272,148,-142,-40,-51,-30,0,-32,19,26
4,-158,-221,-99,-62,-34,5,-34,20,-24
-71,-217,-181,-83,-33,-6,3,-8,31,-70
85,-174,-34,-14,5,33,31,26,59,-19
358,112,77,-13,-42,-31,-6,-16,21,11
542,498,188,-3,-66,-83,-42,-98,-50,2
592,629,242,9,-75,-125,-96,-179,-86,8
438,592,171,0,-66,-115,-98,-192,-86,9
218,561,25,-9,-47,-74,-44,-119,-52,1
-53,172,-48,-10,-16,-9,25,-16,20,10
-519,-345,-28,-9,18,50,78,38,24,-72
-721,-657,-53,28,75,90,126,105,37,-72
-517,-867,-87,64,142,164,178,204,133,58
-313,-881,-113,56,123,137,155,228,163,120
-25,-346,-111,-37,-8,-27,9,115,71,116
439,500,28,-67,-102,-157,-137,-30,-36,101
859,1109,170,-18,-108,-207,-212,-132,-81,122
958,1097,179,-19,-120,-225,-215,-154,-82,162
504,507,21,-74,-128,-182,-162,-134,-99,103
135,488,-124,-145,-150,-103,-172,-186,-179,-11
-2,658,28,-55,-67,34,-146,-171,-200,-111
-237,399,374,146,62,40,-82,-92,-132,-148
-477,-149,426,229,127,62,2,12,-18,-103
-764,-531,294,163,118,73,34,42,-4,-151
-915,-453,159,139,143,113,61,74,-15,-217
-1036,-1162,-203,117,231,239,200,219,106,-149
-1070,-1563,-568,-23,199,254,271,270,176,-111
-605,-814,-540,-148,95,143,203,200,107,-103
122,-22,-282,-128,40,92,111,126,64,-19
488,276,-70,-59,22,100,41,43,18,25
562,490,42,-69,-44,89,-69,-72,-58,-1
696,840,149,-80,-133,-127,-189,-158,-96,-9
610,589,166,0,-99,-213,-142,-78,-13,70
101,-488,16,27,-20,-96,-6,19,72,77
-364,-1060,-84,-1,7,51,15,18,53,-19
-424,-604,-13,5,14,73,2,35,58,-43
-372,-97,96,50,41,42,9,-15,3,-111
-93,110,146,65,52,49,-9,-83,-48,-145
133,235,61,33,69,86,13,-49,12,-70
39,151,-79,-49,44,83,20,3,24,-77
-2,20,-188,-101,-2,30,-10,23,-22,-110
-154,-152,-225,-83,16,51,0,66,-23,-112
-578,-699,-262,-49,94,142,81,175,65,-73
-810,-888,-294,-81,75,96,77,170,87,-65
-610,-386,-158,-128,-56,-71,-68,2,-35,-95
-82,266,-8,-156,-152,-160,-160,-108,-99,-30
434,943,283,-90,-148,-219,-211,-165,-103,52
597,1104,460,20,-65,-206,-195,-125,-53,109
354,883,463,82,16,-131,-106,-65,-40,51
199,429,299,52,6,-113,-90,-86,-102,-48
225,-84,67,50,58,-51,-24,-9,-39,-2
65,-868,-258,-19,70,-34,50,94,82,82
-62,-1322,-428,-84,54,-12,95,153,140,116
-109,-865,-336,-92,48,27,95,145,82,50
-434,-775,-221,7,177,242,208,193,90,-48
-757,-903,-199,100,313,483,364,275,170,-16
-899,-757,-187,64,226,373,251,191,115,-69
-742,-533,-110,31,122,183,130,122,72,-87
-603,-389,-60,41,92,103,89,101,78,-37
-509,-313,-52,21,52,45,67,72,61,-32
-323,-366,-89,-3,44,32,71,53,31,-43
-296,-423,-123,-6,67,63,119,67,49,-54
-378,-201,-48,6,98,99,158,56,6,-118
-338,-55,34,40,122,109,174,45,-4,-81
-144,25,43,22,76,50,103,14,61,46
117,158,31,1,24,10,9,-31,58,112
231,110,-50,-7,0,-5,-18,-24,71,151
142,79,17,-29,-42,-67,-46,-35,34,136
196,105,150,-24,-67,-93,-84,-99,-50,85
341,169,253,16,-42,-86,-118,-117,-71,60
507,395,264,9,-36,-108,-141,-135,-86,37
611,749,329,36,18,-51,-81,-102,-56,47
255,640,272,88,116,105,63,30,58,52
-67,479,-2,-51,6,5,26,-12,-32,-85
315,840,54,-126,-123,-164,-149,-158,-138,-90
552,531,77,-69,-109,-146,-159,-139,-57,74
443,-261,-73,-52,-75,-108,-82,-91,9,161
566,-130,-19,-59,-103,-158,-119,-177,-92,86
518,451,145,-16,-62,-142,-134,-201,-137,-4
587,906,166,10,-15,-87,-95,-124,-82,48
819,718,32,-7,25,-3,-9,16,64,250
167,-107,-152,-55,27,42,24,21,44,125
-585,-506,-272,-115,13,113,42,-27,-62,-133
-840,-337,-311,-152,0,195,69,-16,-83,-234
-729,-200,-245,-167,-67,12,-39,-104,-150,-260
-376,-161,-160,-115,-72,-98,-109,-168,-207,-289
-65,-95,-15,-15,0,-21,-75,-132,-184,-227
116,-110,49,41,69,58,41,0,-29,-34
143,-440,40,97,157,145,173,134,132,170
-137,-734,-21,121,191,160,209,169,182,226
-208,-650,-104,26,90,36,120,78,133,208
0,161,222,34,20,-56,-16,-82,-4,88
335,1408,543,94,6,-24,-99,-205,-160,-83
337,1630,511,122,11,-4,-95,-220,-203,-152
137,931,416,213,128,75,49,-92,-112,-135
-621,-851,-150,99,155,167,170,14,-52,-190
-953,-1182,-620,-151,-8,62,114,-3,-43,-214
-144,-12,-339,-193,-145,-94,-49,-106,-86,-90
275,-131,-168,-114,-102,-52,-45,-64,-24,9
95,-518,-209,-67,-18,22,57,71,80,46
7,-305,-131,-6,51,61,141,132,89,5
-143,-89,3,80,99,69,163,90,5,-107
-79,230,27,55,84,83,128,93,-2,-80
157,281,0,13,64,123,125,132,37,14
66,1,-31,1,52,207,99,93,21,-8
-244,-384,-2,40,73,229,109,93,14,-54
-10,-197,79,74,53,111,106,80,38,21
831,465,56,-34,-80,-72,-39,-12,52,229
1172,811,28,-147,-198,-173,-119,-74,0,293
955,622,33,-163,-216,-167,-133,-110,-34,270
575,341,46,-106,-169,-114,-126,-94,-10,222
55,254,149,28,-37,3,-29,-40,-40,4
-448,197,251,75,-22,-37,-104,-160,-234,-332
-479,372,360,83,-47,-77,-167,-213,-289,-367
3,645,505,154,26,0,-65,-87,-131,-124
177,569,581,220,122,141,54,58,6,51
-273,85,270,177,195,274,156,141,10,-75
-458,-110,-452,-132,64,254,193,186,29,-102
459,557,-431,-251,-108,61,44,97,70,185
1542,857,-172,-189,-167,-82,-130,-57,32,397
1385,596,29,-63,-78,-63,-107,-60,5,337
850,208,186,78,31,0,8,22,33,219
-453,-757,-94,13,21,-8,48,48,-21,-24
-2051,-709,-57,47,100,79,127,66,-126,-408
-2162,-1025,-118,112,216,211,239,173,-53,-408
-1231,-1203,-445,-23,121,164,200,173,15,-189
-420,-864,-296,-39,49,165,123,112,21,-48
-183,-456,-37,40,27,61,27,45,-30,-39
75,315,41,51,-4,-70,-12,55,16,53
167,663,16,-46,-119,-142,-92,8,30,145
-222,49,-164,-155,-203,-160,-123,-34,7,134
-529,-264,-153,-70,-86,-33,0,65,69,106
-308,217,230,47,-47,-61,-69,-43,-63,-22
446,868,627,173,-5,-83,-108,-98,-90,31
1047,1033,747,306,127,35,10,22,38,168
886,-159,255,301,228,164,170,198,186,227
-83,-1422,-552,15,125,101,194,206,125,-27
-411,-670,-794,-256,-78,-74,101,135,52,-159
-308,386,-366,-181,-128,-183,-48,-10,-70,-205
-98,830,80,52,-2,-75,-29,-63,-134,-241
117,707,303,160,123,173,136,57,-2,-89
-126,-282,190,136,121,160,150,86,104,29
-836,-1118,-91,52,45,44,45,1,20,-107
-1004,-974,-295,-85,-79,-103,-61,-97,-81,-178
-385,-514,-304,-140,-115,-130,2,-23,36,44
-28,-302,-239,-102,-57,-58,85,70,154,185
180,287,-98,-98,-71,-94,48,32,94,138
69,477,25,-62,-73,-105,17,-27,2,-23
348,708,219,41,-32,-94,-9,-82,-43,-59
987,1229,115,-55,-118,-132,-161,-189,-118,1
728,627,-279,-286,-254,-166,-238,-217,-135,-31
629,888,-217,-307,-306,-260,-236,-185,-98,-17
619,748,115,-74,-130,-116,-89,-47,11,66
313,-175,119,30,-12,-25,-42,-20,30,59
1037,-168,-6,50,50,51,75,123,222,375
1337,-156,-30,93,116,111,154,203,294,507
-278,-967,-198,54,90,73,97,96,89,63
-1890,-660,-115,22,40,7,26,-24,-98,-332
-1794,-331,-53,74,133,143,165,95,-26,-313
-913,-357,-132,45,150,249,220,157,47,-147
-374,-211,-17,42,87,157,97,47,-32,-96
-43,-197,181,191,125,102,62,20,-62,-90
413,366,213,233,126,92,65,33,-31,8
926,998,197,83,-17,-8,-9,4,17,171
1019,752,16,-145,-212,-184,-142,-81,-9,190
516,749,35,-139,-248,-220,-216,-153,-100,32
204,397,45,-123,-234,-239,-268,-219,-209,-47
67,-329,-248,-200,-211,-218,-264,-189,-321,5
-322,-701,-532,-189,-76,-21,6,38,28,56
-774,-899,-365,-125,-47,-52,-13,-23,-18,-191
-472,-366,114,-15,-58,-128,-105,-139,-92,-207
-143,-255,230,84,8,-50,-46,-55,-14,-71
-626,-310,204,145,134,114,127,74,42,-187
-929,-222,136,217,248,250,280,201,117,-205
-62,-359,-171,152,249,294,314,283,231,73
521,208,-384,-26,62,140,137,154,151,144
179,-112,-321,-34,24,88,112,137,137,118
-956,-715,-211,-23,13,57,61,96,20,-171
-1055,-104,-84,-14,-1,30,36,49,-38,-277
-168,313,-107,-70,-64,-28,-1,9,45,-36
525,285,-117,-139,-150,-115,-97,-61,50,142
869,460,83,-15,-89,-92,-119,-101,17,152
1343,838,364,46,-111,-173,-209,-195,-20,219
2147,1538,614,32,-218,-298,-338,-286,-64,349
1695,672,444,55,-133,-170,-196,-148,49,399
66,-840,-80,51,41,68,45,40,128,167
-849,-959,-392,27,111,181,171,133,134,-7
-1034,-606,-446,-94,0,59,85,60,68,-60
-934,-385,-325,-65,27,67,108,81,72,-51
-989,-215,-36,69,114,126,144,83,37,-145
-1002,-236,88,87,68,76,88,8,-37,-247
-929,-74,226,144,57,44,39,-62,-110,-248
-372,398,356,133,4,-30,-61,-145,-166,-192
720,916,328,11,-95,-117,-127,-142,-103,10
1385,591,47,-94,-101,-75,-44,-14,46,199
1251,452,-55,-134,-136,-90,-23,4,35,167
770,298,13,-13,-26,-2,58,73,121,237
-364,-672,-30,70,109,131,174,156,168,119
-1297,-1265,-133,107,178,196,226,151,51,-250
-920,-898,81,185,184,173,144,72,-63,-329
496,597,513,201,86,20,-38,-38,-84,-24
1331,1329,474,105,-11,-72,-125,-30,57,298
892,617,113,-28,-81,-91,-110,11,130,373
-372,-661,-215,-63,-54,-115,-72,-32,4,41
-574,-410,-398,-82,-59,-133,-100,-91,-106,-112
-127,146,-600,-219,-91,-97,-77,-8,-42,-35
-569,-242,-545,-210,-40,23,12,78,-1,-101
-1141,-989,-358,-40,63,164,100,137,27,-122
-967,-404,84,84,68,148,5,-15,-111,-242
175,778,333,-21,-132,-58,-194,-189,-183,-92
1023,978,179,-187,-323,-310,-326,-222,-139,108
1660,1198,217,-147,-347,-427,-416,-315,-240,94
1234,482,186,-52,-217,-346,-349,-311,-254,-7
-467,-787,169,190,171,111,107,96,41,-99
-1543,-1410,149,355,417,418,456,416,287,-171
-1674,-1209,-8,186,281,306,347,310,192,-276
-613,601,195,-25,0,79,30,1,-2,-113
509,1380,239,-101,-126,-8,-87,-64,20,180
1189,1066,-56,-151,-160,-64,-65,-5,87,304
1216,515,-327,-189,-217,-171,-133,-83,31,255
485,-484,-235,-62,-111,-91,-65,1,115,265
-542,-1245,-250,82,101,178,205,287,334,310
-1358,-1495,-17,328,350,406,380,372,310,67
-1044,-510,55,208,154,170,122,42,-16,-167
107,901,103,-38,-158,-141,-119,-184,-155,-74
840,1478,183,-94,-271,-285,-246,-271,-204,-44
627,942,73,-54,-177,-190,-175,-209,-187,-95
-709,9,16,34,10,-6,23,-85,-219,-472
-2116,-695,243,219,243,244,264,139,-132,-667
-1952,-736,295,261,285,293,323,247,19,-424
-678,-370,147,160,144,96,125,121,48,-74
39,-258,-88,30,-2,-65,-51,-18,-12,48
0,-856,-483,-116,-45,7,-12,14,-12,42
46,-168,-249,-123,-76,48,-89,-88,-146,-73
545,691,144,-60,-108,-70,-194,-164,-184,-39
1223,1119,211,-174,-225,-216,-262,-188,-139,130
2265,1426,-142,-447,-467,-417,-401,-229,-40,465
2458,761,-386,-398,-418,-370,-349,-139,83,672
740,-841,-377,-142,-144,-120,-111,39,162,420
-1602,-1560,-217,123,109,111,83,131,75,-108
-2059,-695,-150,137,120,111,50,47,-77,-332
-763,643,-80,-45,-36,-56,-70,-113,-163,-235
842,1479,45,-86,-30,-14,35,-13,-4,74
791,804,138,35,69,96,125,86,85,108
-757,-1318,-18,163,210,232,241,194,138,-102
-1161,-1186,14,134,169,180,203,156,105,-214
-268,-82,289,169,139,115,133,119,101,-37
544,-67,265,157,132,93,113,117,116,135
1512,713,159,-30,-24,-38,17,56,121,275
2315,1745,112,-183,-215,-223,-185,-89,38,334
2309,2225,288,-161,-268,-314,-308,-230,-83,302
554,414,41,-78,-151,-193,-229,-204,-116,80
-1695,-1012,-460,-122,-59,-23,-114,-146,-145,-297
-2135,-1178,-471,-118,-29,31,-17,-15,-32,-262
-790,-513,-140,-71,-82,-48,-47,21,43,-24
-724,-172,223,108,37,17,17,12,-39,-251
-1070,-217,212,174,158,160,108,48,-47,-397
-562,290,12,12,54,84,41,23,24,-169
-245,256,-119,-213,-158,-96,-100,-59,26,14
9,-306,-306,-265,-161,-48,-3,93,183,209
494,-517,-270,-194,-86,5,75,181,228,301
475,-727,-247,-57,54,134,206,255,265,293
-9,-1201,-183,105,221,258,281,258,229,151
-551,-666,43,153,166,105,82,13,-47,-228
-591,-107,258,194,147,45,29,-21,-110,-311
-642,-189,83,183,157,83,78,37,-45,-225
-694,-118,-106,108,120,92,100,74,3,-77
152,245,-166,12,60,80,99,104,72,204
1025,406,-100,-74,-64,-78,-105,-5,-142,237
1311,410,-17,-122,-180,-183,-186,-145,-143,105
627,90,153,-6,-107,-133,-164,-193,-144,-72
-366,-339,198,78,-30,-85,-99,-144,-106,-148
-505,-369,242,132,39,-1,13,-8,-5,-72
-205,-441,8,90,84,98,126,100,94,36
117,-119,-394,-138,-81,-56,10,31,44,44
1239,881,-239,-230,-255,-307,-174,-102,-30,166
3465,2545,324,-184,-345,-439,-278,-182,41,569
3748,2615,680,27,-177,-282,-226,-152,92,631
870,502,476,110,13,-18,-66,-74,-11,88
-2698,-1029,118,71,85,83,63,-35,-134,-538
-3095,-1098,82,88,87,48,42,-84,-204,-648
-1897,-90,315,101,4,-93,-137,-269,-331,-581
-1233,-989,-307,-37,23,32,45,-5,-36,-228
-396,-681,-333,-3,102,143,192,196,183,43
-307,-376,-18,110,156,183,209,219,200,53
-491,-827,-68,91,151,188,226,213,194,25
-588,-1040,-327,-12,76,123,159,133,112,-1
-1,-78,-259,-104,-75,-53,-19,-33,-29,-27
1096,685,-188,-143,-181,-171,-116,-62,-27,111
1484,445,-340,-226,-211,-159,-67,41,111,309
830,528,-89,-106,-165,-170,-155,-92,-48,54
677,857,144,18,-102,-177,-216,-217,-190,-132
686,713,224,38,-45,-104,-111,-133,-118,-80
290,-92,-75,-40,24,-8,60,71,77,71
-295,-378,-67,33,116,70,166,168,168,120
-1242,-978,-45,91,103,43,100,49,4,-160
-1838,-946,-114,62,89,37,56,-29,-125,-383
-973,-495,-43,117,159,114,106,46,-38,-140
153,-213,189,201,211,226,163,145,127,203
375,-22,352,256,242,312,148,139,170,269
677,126,281,141,110,84,-42,-54,12,105
2221,1093,-180,-239,-196,-204,-207,-125,7,299
2859,1351,-295,-274,-209,-173,-143,0,182,580
478,-405,-212,-117,-122,-130,-135,-50,33,121
-1875,-467,-112,-121,-138,-171,-204,-162,-184,-410
-1396,-137,41,-35,-43,-55,-66,11,20,-124
-693,-229,185,3,-38,-67,-78,-46,-74,-161
-318,133,282,-51,-158,-255,-293,-315,-334,-381
243,258,24,-82,-176,-282,-312,-332,-261,-215
334,455,-19,-33,-58,-127,-120,-144,-57,-55
-404,248,205,148,163,144,146,61,36,-216
-832,-405,238,194,191,211,228,94,14,-262
-17,165,377,61,41,102,68,-21,14,33
1036,675,389,-7,-51,-13,-2,11,204,494
1152,-417,-211,-24,31,38,172,213,402,622
532,-334,-457,-56,1,-26,87,87,242,317
-946,-335,-248,59,99,32,126,49,97,-83
-2068,-428,85,231,264,226,273,112,-11,-441
-1554,-1217,-76,180,280,369,313,193,73,-280
133,-165,-30,-34,10,141,43,0,-7,-42
1713,1443,275,-123,-217,-189,-260,-201,-135,164
1946,983,-9,-231,-264,-248,-260,-133,-24,382
-140,-1186,-414,-100,-18,17,-21,72,38,96
-1671,-1280,-451,-56,77,102,28,44,-86,-295
-795,177,-175,-112,-31,-23,-75,-3,-15,-19
630,978,-101,-199,-200,-215,-203,-67,41,358
1253,977,130,-53,-139,-214,-211,-121,1,475
1358,659,381,170,12,-100,-136,-115,-27,435
735,-181,394,257,140,45,-11,-43,-27,165
-828,-746,215,204,155,86,62,1,-58,-204
-2039,-735,184,229,223,186,184,74,-55,-455
-1433,-486,85,132,167,141,144,37,-51,-365
116,375,52,-35,9,1,-15,-11,13,-12
356,515,57,-51,-6,-7,-46,9,39,56
-643,-196,239,104,121,106,41,52,-10,-185
-1284,-484,92,40,6,-6,-82,-86,-151,-376
-612,-157,-208,-96,-72,-66,-121,-123,-132,-240
659,223,-248,-134,-50,17,-37,-31,5,94
1298,194,-250,-153,-57,40,8,56,146,341
489,-574,-449,-134,11,110,95,176,200,287
-653,-1151,-475,-53,137,168,166,209,138,27
-71,385,81,79,126,64,53,41,-6,-61
1206,1372,573,153,38,-69,-41,-68,-48,76
1432,948,627,95,-91,-203,-163,-157,-40,168
856,761,519,2,-195,-281,-303,-263,-113,101
186,524,595,93,-84,-169,-222,-216,-160,-90
-552,335,695,246,90,-28,1,-36,-55,-215
-846,347,323,157,34,-68,9,-1,-8,-218
-691,-694,-419,-105,-107,-132,-17,2,33,-113
831,-75,-861,-374,-294,-250,-104,-29,68,251
1880,305,-773,-375,-273,-201,-82,55,190,556
1086,-755,-585,-180,-49,28,113,224,327,500
-428,-1389,-398,-75,47,104,150,188,177,84
-1241,-1120,-92,104,171,160,180,137,37,-139
-1694,-503,282,305,241,120,44,-95,-253,-490
-2243,342,437,279,183,42,-66,-202,-343,-689
-1545,485,302,171,159,95,41,-6,-113,-391
-710,-136,32,57,87,98,88,97,-4,-136
143,-518,-160,-8,40,73,90,124,48,42
773,60,-91,1,9,-2,33,50,11,124
649,640,-113,-20,10,-52,16,3,-22,64
126,129,-350,-111,0,-27,62,79,90,82
80,77,-283,-238,-167,-155,-75,-31,13,39
1262,1156,-1,-270,-247,-170,-188,-146,-53,203
2310,1097,116,-70,-104,-27,-128,-99,7,439
1120,-1112,46,171,166,161,97,119,184,381
-780,-1750,-111,74,111,102,74,93,75,-40
-1447,-281,-212,-81,-60,-68,-77,-60,-129,-355
-1103,624,90,-23,-87,-114,-130,-133,-206,-419
-140,1226,480,65,-103,-190,-188,-189,-185,-178
530,988,182,-17,-70,-127,-71,-19,72,256
305,-156,-161,3,70,44,119,161,231,327
-527,-774,-236,65,168,100,185,148,107,9
-963,-598,-233,12,152,119,212,133,54,-151
-887,-704,-165,-29,128,301,225,127,78,-85
-306,-427,-238,-130,45,367,154,99,88,63
182,115,-217,-92,10,159,117,126,127,116
912,546,-191,-90,-47,-26,20,81,147,220
1076,388,-104,-68,-46,-31,11,83,158,273
472,552,224,43,-52,-86,-75,-93,-109,-60
-280,403,483,130,-52,-127,-143,-255,-322,-328
944,1044,561,75,-94,-139,-138,-172,-103,121
1656,619,398,7,-156,-198,-194,-195,-61,288
-104,-881,145,66,-44,-80,-95,-150,-119,-87
-1786,-1180,-58,103,106,90,75,-51,-128,-437
-1779,-373,31,212,290,286,290,193,55,-361
-227,658,238,189,202,201,202,146,61,-105
991,451,91,-23,15,44,60,118,158,310
836,-109,22,-111,-42,9,15,124,198,407
-249,-392,222,84,57,44,-16,-21,-7,0
-547,-267,203,178,100,40,-61,-117,-159,-259
-180,22,-76,49,1,-57,-141,-144,-183,-223
-240,-419,-357,-19,56,88,39,64,24,-24
-570,-177,-338,-24,118,216,186,180,104,-26
-269,884,-2,-37,-15,28,-10,-13,-58,-49
650,1181,482,96,-59,-87,-183,-196,-145,57
1350,1188,773,217,-58,-152,-295,-315,-253,17
1049,838,336,106,-46,-89,-209,-186,-126,48
13,-96,-354,-28,57,158,148,174,199,148
-762,-1295,-874,-224,-3,184,253,306,297,144
-503,-680,-731,-336,-197,-90,-17,56,44,43
625,732,-21,-174,-276,-329,-276,-203,-170,8
1707,1062,136,-111,-267,-372,-287,-175,-80,270
1101,190,-269,-181,-174,-196,-56,61,128,305
-630,-437,-141,9,53,25,121,162,126,-18
-1117,-186,302,271,244,182,196,163,96,-123
-133,259,401,243,174,159,88,47,47,17
322,-385,-21,54,48,69,-27,-39,5,76
-335,-411,111,107,61,19,-102,-144,-174,-290
-572,-398,83,53,4,2,-153,-209,-265,-402
-195,309,-53,-155,-97,-38,-131,-165,-176,-238
-46,-48,162,-14,54,115,98,72,74,-15
-81,-865,198,114,176,221,246,231,218,95
756,-33,386,87,40,28,61,52,101,149
666,723,379,-95,-268,-321,-244,-254,-136,0
-866,90,-179,-185,-272,-300,-196,-256,-209,-350
-1256,-725,-638,-109,17,59,174,88,42,-265
-457,-123,-577,-135,57,163,263,246,241,50
377,477,-371,-125,-31,32,131,154,208,167
110,-2,-116,-16,-67,-89,-23,-43,18,-3
-923,-475,119,209,124,72,96,24,-43,-228
-1122,-458,282,282,248,219,219,123,-19,-272
-532,-39,213,122,97,106,110,40,-61,-138
-170,351,355,114,47,57,52,41,-20,-18
-177,428,317,150,83,71,15,11,-40,-34
133,-279,-148,-40,-46,-57,-97,-67,-62,60
966,-597,-531,-234,-181,-164,-143,-39,20,278
1454,200,-261,-189,-200,-245,-220,-136,-69,241
732,300,31,-51,-75,-154,-136,-102,-102,-5
-96,340,281,73,29,-46,-36,-6,-62,-129
679,715,393,67,8,-22,-23,71,76,168
1588,947,271,-89,-83,-38,-40,69,166,457
997,744,14,-166,-118,34,-72,-13,57,312
-557,-215,-10,-29,14,80,-23,-45,-109,-169
-1733,-699,48,64,48,-51,-44,-122,-243,-514
-1091,-994,-301,98,114,21,81,33,-11,-200
472,-582,-451,25,85,111,128,94,142,149
1179,109,-377,-133,-83,-17,-14,-32,73,237
1252,1077,-112,-217,-227,-225,-159,-121,35,258
560,986,395,-76,-206,-252,-204,-189,-58,72
25,591,556,91,-37,-91,-85,-120,-95,-68
-1148,-870,85,98,135,109,123,-1,-120,-339
-1448,-982,-575,-114,74,157,209,149,52,-233
-658,24,-684,-229,-34,91,176,175,162,16
9,-693,-710,-165,60,213,322,350,380,328
175,-1472,-617,-118,42,187,251,333,430,507
-25,-641,-174,-23,19,93,135,207,302,354
-686,36,269,93,9,7,28,33,60,-82
-890,459,580,247,51,-51,-70,-151,-214,-493
-779,360,505,283,94,-33,-79,-202,-306,-608
-741,443,273,211,75,-18,-57,-146,-251,-468
-912,-63,300,276,194,160,92,-31,-147,-355
-367,222,420,187,140,227,109,-16,-73,-175
643,685,500,77,-22,22,-35,-69,-32,63
1347,222,83,-133,-174,-161,-135,-111,-53,201
1187,-82,-332,-298,-270,-215,-195,-185,-139,137
253,-149,-294,-206,-141,-42,-43,-70,-44,33
-280,87,-182,-66,-18,32,47,23,22,33
-404,27,-337,-92,-2,29,69,79,68,104
-361,-281,-253,-20,79,128,137,134,118,116
-446,-904,-235,45,127,163,151,141,99,66
-124,-295,-196,-39,25,60,62,126,92,108
691,524,0,-127,-165,-162,-157,-64,-47,157
1070,893,154,-111,-234,-298,-304,-261,-189,99
730,939,206,-80,-200,-283,-299,-308,-220,-10
163,392,1,-114,-119,-141,-108,-112,-56,21
-141,-322,16,-56,-23,-41,47,50,71,80
-312,-746,158,98,100,57,128,90,52,1
-752,-329,254,175,141,86,100,0,-100,-253
-831,421,97,94,135,100,119,17,-67,-248
169,627,207,135,164,117,148,97,114,138
874,646,436,236,190,136,143,136,234,382
507,258,381,200,134,108,86,71,164,237
-651,-1073,-205,-56,13,88,64,56,59,-56
-805,-648,-202,-155,-100,-11,-37,-28,-52,-200
-214,337,282,-16,-96,-94,-139,-144,-158,-172
401,1131,422,50,-35,-61,-118,-124,-123,-32
1135,1471,312,47,11,-23,-67,-30,17,186
1181,109,-305,-69,26,35,60,132,164,356
405,-1506,-616,-111,-1,-5,84,153,154,256
-357,-1249,-323,-52,-61,-141,-89,-77,-88,-94
-268,-723,-314,-83,-91,-143,-120,-130,-120,-112
-195,44,-153,-84,-117,-173,-167,-185,-170,-138
-30,660,122,11,-62,-157,-111,-150,-138,-171
589,815,166,-8,-92,-159,-120,-125,-93,-62
711,628,187,-11,-22,85,-47,-56,-43,16
44,200,59,-33,56,267,95,66,54,35
-625,65,-119,-123,4,248,102,111,93,61
-520,-108,-33,-38,-3,66,-7,17,6,78
-41,-146,404,222,94,-17,-68,-63,-72,44
391,25,202,121,36,-23,-13,36,75,212
311,-148,-311,-134,-100,-101,0,82,123,231
-316,-650,-438,-140,-63,-85,40,81,55,3
-1057,-1014,-161,204,284,218,273,232,87,-258
-1691,-1074,-285,222,337,300,333,266,75,-400
-1213,-208,-127,64,102,68,102,55,-57,-324
-353,21,11,-4,-31,-85,-45,-76,-131,-185
492,223,148,19,-47,-140,-73,-85,-107,-88
877,387,211,74,-2,-125,-39,-35,-19,-12
647,579,10,33,-9,-124,-12,13,36,60
190,628,-275,-114,-62,-86,20,52,68,110
65,379,-187,-139,-59,-31,-20,-33,-27,30
-27,-276,51,-43,-19,62,-84,-115,-89,-6
102,-53,255,80,4,44,-91,-116,-86,11
651,1163,385,16,-127,-154,-199,-200,-115,86
1048,1299,477,-36,-238,-301,-310,-286,-98,214
809,518,269,-98,-248,-279,-269,-208,-33,243
421,85,-75,-200,-202,-152,-119,-22,81,214
361,-369,37,-83,-65,-8,4,74,132,122
74,-901,79,-8,-58,-41,-59,-64,-46,-147
-401,-410,214,106,-32,-88,-132,-194,-227,-414
-705,-517,11,194,108,57,5,-64,-163,-481
-1242,-998,-95,283,312,326,322,205,19,-463
-532,-261,176,277,317,382,412,300,159,-113
315,-144,96,158,203,286,310,254,273,248
242,-511,-209,13,109,183,223,161,229,263
-72,52,-196,-198,-187,-160,-127,-210,-71,11
-135,255,-150,-159,-222,-227,-211,-285,-132,-46
155,465,0,16,-28,-22,-22,-68,46,79
79,1165,281,9,1,27,57,24,112,112
-478,605,262,-33,-12,43,61,-11,2,-91
-614,-213,-44,-143,-95,-38,-74,-137,-111,-167
-131,-12,-104,-76,-64,-76,-108,-169,-113,-77
-73,234,134,137,113,55,39,-23,-46,-85
409,180,-120,10,17,-4,52,87,73,70
815,120,-463,-217,-132,-123,28,167,219,332
678,234,-426,-293,-188,-177,-22,141,209,364
500,93,-291,-268,-156,-107,3,124,174,347
892,-299,-432,-252,-95,24,106,206,251,442
909,211,-9,16,61,61,44,92,101,251
209,377,486,270,131,-24,-139,-154,-160,-28
-855,-873,378,399,311,173,51,-14,-83,-126
-912,-1292,96,369,371,302,184,114,0,-133
-1010,-956,-21,164,225,169,92,8,-128,-315
-1081,-277,-226,-47,83,30,33,-45,-200,-440
-683,254,-306,-122,35,-12,74,48,-39,-224
-413,155,11,8,85,-33,50,16,-51,-133
-107,-194,70,72,138,-13,24,-9,-80,-54
510,62,5,11,109,44,20,-24,-48,75
956,590,26,-117,24,152,8,-29,-12,165
581,770,232,-95,4,242,-4,-25,12,88
8,-103,-285,-210,-113,138,-87,-58,-16,-52
-67,-230,-525,-300,-242,-98,-174,-108,-37,-43
466,184,-101,-81,-135,-189,-133,-88,-23,63
458,194,53,-14,-85,-187,-122,-72,-2,67
422,700,125,-44,-109,-177,-155,-90,-43,8
657,701,148,-35,-150,-211,-181,-148,-82,45
256,-190,-73,-6,-44,-62,-22,23,111,193
-42,-419,-268,-79,0,27,75,162,212,209
-133,-99,-1,25,68,48,53,115,104,18
225,-418,249,165,165,106,87,120,120,65
172,-871,454,306,254,187,129,115,101,38
-569,-912,165,208,163,112,46,-25,-72,-210
-783,473,-173,-94,-74,-83,-92,-124,-153,-279
487,1410,-217,-279,-189,-145,-96,-50,-16,50
908,744,-176,-135,-28,65,90,112,136,212
392,297,-39,13,78,166,134,102,52,7
-464,-812,-174,-24,-4,9,-6,14,-72,-240
-1159,-601,157,103,-20,-154,-205,-166,-252,-434
-883,359,729,292,10,-203,-290,-215,-246,-256
-569,197,665,306,128,-19,-39,47,16,40
-542,-494,47,168,186,127,142,232,171,142
68,-511,-345,-18,98,103,151,260,218,248
730,257,-269,-143,-81,-94,-44,103,139,329
700,428,145,-41,-134,-211,-227,-143,-143,34
418,506,483,13,-180,-295,-344,-310,-336,-195
395,413,272,-27,-138,-192,-217,-173,-173,-46
497,-106,-160,-22,38,79,95,148,123,156
-102,-520,-466,-174,-16,72,105,147,64,-38
-981,-710,-559,-157,30,105,142,148,5,-242
-1102,-452,-569,-76,136,206,254,262,125,-155
-919,-291,-260,-15,140,144,174,194,87,-116
-726,-495,-127,3,91,74,117,142,50,-99
-257,-114,271,156,70,54,44,48,-4,-67
387,628,721,307,72,40,-3,-29,-57,-10
948,839,622,233,23,-20,-30,-45,-48,58
612,173,67,-53,-68,-42,42,36,56,107
-299,-438,-254,-147,-49,45,134,136,137,26
-978,-187,298,107,67,58,60,-2,-80,-305
-787,-268,354,180,92,22,1,-112,-167,-262
-217,-512,-129,18,60,56,59,26,58,80
-194,-668,-315,-19,81,126,182,193,226,183
312,136,-126,-83,-31,17,67,80,168,199
1175,931,-349,-344,-256,-101,-108,-91,68,256
1218,845,-379,-366,-270,-69,-126,-107,2,167
141,-143,-214,-179,-162,-99,-91,-81,-66,-54
-734,-638,-144,-18,-10,10,42,49,44,-27
-263,-393,-8,17,-17,-8,25,73,119,168
39,-186,254,48,-34,-80,-64,-10,25,98
483,560,364,23,-79,-172,-168,-143,-89,-9
400,652,234,80,50,-52,-46,-67,-89,-119
-5,-6,174,236,258,168,164,105,21,-120
412,-497,-24,230,271,186,221,235,215,221
1293,-405,-442,3,64,7,79,153,234,494
764,-706,-754,-292,-175,-141,-71,4,74,355
-274,123,-417,-265,-187,-128,-107,-61,-74,-5
-208,528,-1,-173,-171,-132,-145,-112,-113,-31
355,289,168,-108,-117,-9,-118,-98,-97,69
328,-195,339,117,57,94,-65,-76,-127,-3
-833,-258,500,251,111,44,-64,-119,-254,-323
-1454,-184,377,273,158,167,26,-19,-169,-419
-1166,-712,51,237,181,176,97,56,-71,-322
-236,168,-241,35,65,70,41,36,-28,-116
727,766,-178,-76,-43,-43,-40,-19,17,130
797,351,-90,-43,-37,-21,-43,-31,14,204
166,-381,-134,-42,-32,3,-48,-38,-30,41
-689,-614,-105,-47,-13,69,22,24,-19,-105
-572,154,-93,-119,-73,99,49,98,85,43
762,921,-137,-301,-263,-26,-117,-12,84,359
1417,230,-361,-320,-252,-27,-96,-21,145,513
236,-980,-242,-12,74,234,199,142,197,215
-1082,-600,44,113,141,233,187,91,27,-220
-1123,-191,167,107,89,121,74,34,-51,-301
-622,-101,260,179,132,74,24,20,-37,-157
-129,128,175,133,97,31,2,25,34,46
650,32,-159,-64,-54,-69,-14,81,188,349
963,27,22,-17,-95,-123,-64,43,163,354
12,-241,395,192,0,-92,-69,-42,-50,-100
-680,313,467,185,5,-83,-85,-120,-225,-405
-16,1275,520,139,-27,-130,-98,-130,-196,-194
1002,1568,834,249,6,-117,-85,-116,-110,95
1278,644,548,208,28,-47,-23,-41,32,254
220,-489,-414,-145,-131,-177,-127,-136,-62,30
-938,-680,-898,-346,-202,-204,-185,-217,-201,-284
-351,-8,-338,-153,-54,-61,-56,-83,-86,-175
-45,-204,-112,-99,-3,-13,20,43,47,-35
-482,-377,54,26,134,117,123,147,57,-172
-1016,-896,245,266,333,310,236,177,-21,-372
-1112,-1188,-36,163,239,346,176,126,-75,-280
-819,-635,-211,4,64,230,130,134,3,-123
-322,-229,-173,-60,-80,20,71,119,71,44
291,153,-114,-75,-104,-74,8,39,22,128
383,324,-173,-93,-81,-54,11,39,53,210
387,235,-82,-56,-44,-7,25,43,78,247
533,168,204,56,-42,-56,-55,-52,0,218
715,222,389,62,-129,-200,-187,-167,-52,250
135,408,468,119,-54,-156,-172,-121,-49,128
-237,179,153,132,80,31,-9,36,46,-2
-103,-447,-458,-84,35,65,78,97,107,-46
316,-191,-369,-185,-86,-36,-4,9,52,17
541,-377,-4,-36,-36,-10,34,60,140,176
-117,-670,42,65,41,47,64,65,85,1
-755,-46,62,60,26,0,3,-45,-73,-288
-255,320,-140,-49,-22,-27,5,-40,-56,-174
620,430,-304,-132,-97,-74,-45,-77,-30,48
511,106,-273,-90,-69,-52,-38,-71,-21,46
-311,-546,-331,-80,-1,75,77,54,86,-18
-691,-552,-241,-23,74,170,158,134,163,16
-421,-71,13,-6,20,84,48,9,60,14
18,317,114,-58,-89,-79,-72,-95,9,78
169,295,125,-38,-51,-100,-55,-64,24,93
-115,-122,133,33,28,-48,13,9,56,58
-216,-332,-25,20,16,-37,45,33,70,62
339,145,-182,-134,-72,-76,20,29,93,158
798,365,-143,-146,-72,-70,-36,-28,38,100
549,333,25,28,35,81,3,-27,-39,-38
241,215,46,118,129,195,162,175,154,118
680,436,93,93,76,53,170,210,237,319
821,350,14,-16,-60,-142,-52,-27,28,208
-527,-805,-149,-26,14,-2,-72,-94,-116,-176
-1278,-997,-60,51,102,76,15,-6,-89,-310
-763,-217,328,185,73,-35,-78,-107,-205,-358
-322,141,515,194,21,-59,-126,-175,-255,-329
-272,121,209,71,-2,-4,-46,-39,-119,-162
172,646,365,70,-67,-103,-126,-80,-127,-37
1288,793,422,12,-146,-191,-194,-156,-137,180
1858,80,-3,-93,-161,-158,-161,-128,-71,383
507,-585,-156,-23,-33,-13,-111,-126,-56,162
-1672,-695,-152,84,109,126,32,-52,-101,-294
-1634,-67,-74,102,102,80,93,2,-123,-426
-298,485,73,-1,-38,-90,-3,-49,-106,-241
516,488,10,-31,-29,-71,27,21,16,5
794,428,-31,29,41,-28,57,54,66,81
877,108,-73,27,60,-11,88,81,148,219
659,19,-255,-152,-83,-59,17,53,164,277
497,472,19,-134,-82,46,53,91,214,313
102,283,681,194,112,142,94,81,112,87
272,21,572,258,145,74,47,18,14,26
684,-246,133,35,-11,-45,-21,24,68,220
131,-560,-237,-147,-97,-82,-26,43,80,161
-830,-363,-587,-210,-76,-42,-3,18,-49,-186
-635,291,-518,-246,-142,-104,-60,-45,-88,-212
-230,17,-246,-154,-103,-89,-43,-60,-56,-145
-712,-397,134,43,-24,-64,-66,-154,-207,-400
-893,-581,201,132,83,43,32,-50,-139,-371
-567,-365,435,190,131,73,71,-8,-62,-178
-164,134,655,201,73,12,15,-51,-35,-82
-23,127,314,131,88,75,89,45,77,-16
-155,-613,-480,-43,132,189,212,187,165,77
108,-374,-712,-122,130,212,200,165,131,104
240,329,-394,-118,57,144,105,53,27,62
115,490,-116,-54,15,41,12,-28,-73,9
94,440,252,29,-8,-44,-83,-103,-141,-13
81,319,584,164,85,-11,-67,-66,-115,-7
-513,-184,388,113,95,-5,-9,-15,-140,-199
-742,-418,88,10,24,-54,-29,-58,-178,-270
-86,-363,-164,-20,31,38,61,25,-68,-43
550,-579,-551,-126,1,88,103,92,79,220
514,-329,-352,-96,-40,-14,-23,3,19,192
207,598,225,69,0,-102,-128,-96,-105,22
-15,159,172,86,37,-9,-57,-9,-28,18
-602,-662,-78,-17,17,72,13,48,0,-110
-269,-526,-164,-56,26,134,106,137,90,-9
580,67,111,-41,-19,84,77,124,124,159
1052,-327,-246,-109,-5,117,145,191,249,327
942,116,-481,-197,-75,-17,38,69,160,321
266,648,-237,-245,-197,-235,-173,-101,26,227
-481,356,14,-106,-67,-154,-106,-25,60,117
-118,62,-103,21,50,-81,-39,-9,28,47
29,-212,-71,80,61,-104,-79,-102,-65,-83
-114,-492,-137,61,82,-37,15,-21,-16,-128
-578,-347,-56,44,99,20,85,59,63,-143
-668,-141,312,161,183,69,135,109,101,-107
-519,-227,362,225,173,30,81,69,62,-69
-132,-127,-16,78,42,-98,-26,-20,-49,-62
437,275,-297,-60,-1,-26,-26,-10,-52,-45
1039,493,-268,-92,15,77,-5,19,47,164
1055,630,-373,-177,-87,-11,-93,-27,100,337
292,412,-225,-143,-128,-154,-155,-85,-10,102
-189,115,155,-16,-75,-131,-92,-92,-141,-181
-190,-177,200,36,-1,48,-5,-73,-165,-252
-73,-379,68,67,19,66,66,10,-54,-135
135,-466,-136,-8,-80,-41,40,-19,-20,-9
192,40,-24,-29,-143,-140,-62,-140,-102,-33
-227,298,209,69,-115,-155,-113,-204,-152,-156
-460,-42,254,77,-117,-153,-109,-199,-170,-163
-323,121,285,64,-55,-64,21,-66,-33,-33
-699,232,448,135,44,31,101,-37,-42,-173
-949,-163,332,120,77,98,112,-43,-79,-269
-626,-323,40,73,89,133,186,108,84,-84
174,522,269,153,86,57,146,124,143,88
844,958,416,176,68,-13,87,93,164,228
563,-284,-306,-68,14,53,113,87,120,131
-276,-1309,-950,-308,-60,87,94,36,68,-26
-269,-544,-567,-231,-74,34,41,25,145,109
65,34,-125,-136,-60,2,30,40,214,240
161,61,161,-30,-63,-48,-51,-53,90,110
49,-82,180,18,-21,-12,-29,-40,42,23
-68,-67,263,156,111,104,79,52,61,-19
-48,-133,354,237,211,199,212,160,146,39
-89,-173,293,218,191,171,200,142,154,77
-227,251,243,66,4,-30,0,-44,-22,-27
-67,706,221,-51,-168,-215,-198,-219,-181,-82
902,1251,231,-46,-181,-232,-255,-210,-136,135
1200,709,95,-34,-106,-145,-165,-70,29,327
-34,-1365,-233,-3,52,32,13,79,86,76
-785,-1087,-391,-58,34,45,29,72,-6,-205
104,547,-222,-108,-74,-66,-88,-45,-88,-131
661,823,127,-17,-41,-65,-111,-78,-132,-70
527,169,160,31,21,-4,-28,13,-43,-31
1067,-188,9,0,18,19,3,105,138,213
1366,-16,-189,-84,-66,-10,-76,36,96,284
-137,-459,-260,-165,-168,-119,-205,-131,-150,-67
-1792,-524,100,22,-31,-56,-170,-157,-279,-468
-1373,-435,175,117,126,103,-19,-37,-155,-369
-267,-317,-227,-77,109,184,115,146,122,35
300,336,-434,-291,-65,68,50,162,180,167
276,427,-256,-206,-77,-3,-11,83,91,47
364,-118,-192,-78,18,39,16,78,51,16
391,-180,-53,17,42,-4,-3,0,-30,-16
473,90,198,58,-15,-113,-96,-64,-31,81
273,151,224,80,15,-59,-36,9,84,182
-266,-22,223,60,38,11,-27,-32,11,4
-517,500,554,166,111,50,-38,-92,-147,-279
559,1719,729,13,-52,-122,-168,-161,-131,-63
1012,1738,538,-176,-208,-235,-233,-165,-50,201
-205,-392,-193,-194,-104,-118,-95,-90,-42,-2
-2261,-2578,-654,107,259,228,242,114,-14,-359
-1983,-1410,-5,428,430,431,321,132,-48,-423
-650,-176,370,345,289,349,169,22,-93,-316
132,117,300,163,66,117,-1,-57,-46,-105
197,40,140,55,-42,14,-76,-42,36,94
-104,100,-13,28,-33,-72,-4,80,165,195
97,-30,-342,-10,18,7,139,235,300,284
785,-97,-489,-131,-60,-16,105,207,305,398
938,40,-280,-196,-154,-113,-49,38,144,327
166,263,-152,-162,-105,-72,-41,-12,11,87
-219,275,18,-40,7,28,25,10,-45,-89
428,-132,-10,-38,7,7,17,14,-26,-20
972,98,155,-45,-55,-69,-41,-6,-12,88
749,793,418,37,-87,-119,-127,-61,-50,96
649,1238,683,99,-145,-228,-253,-178,-148,123
1149,1163,464,-30,-273,-379,-402,-287,-177,181
1035,223,-247,-169,-246,-281,-267,-118,-38,215
-264,-564,-476,-4,81,91,101,145,58,-53
-1038,-501,-327,182,308,330,304,235,41,-253
-278,-210,-263,-1,93,153,148,96,54,-22
485,-237,-439,-253,-157,2,-45,-69,20,178
824,-648,-655,-299,-211,-48,-100,-32,88,354
-37,-357,-211,-72,-73,-43,-53,-25,-5,2
-768,401,454,135,12,-34,-111,-187,-298,-469
-588,348,497,83,-65,-127,-180,-217,-266,-197
-491,-444,-5,-14,-11,6,12,35,50,156
-506,-455,-419,-221,-52,92,108,126,123,127
-420,254,-91,-110,3,77,78,17,-57,-227
-235,303,311,169,194,182,159,72,-55,-426
123,131,448,271,245,234,149,113,39,-240
388,145,417,235,207,166,85,102,108,0
-391,14,285,188,180,166,89,121,63,-95
-840,-299,123,134,144,163,123,105,10,-208
-292,-431,-68,30,39,75,103,64,92,24
90,-398,-133,32,15,61,103,61,136,165
526,-490,-366,-36,-43,10,31,-18,51,165
616,-226,-502,-168,-170,-114,-77,-116,-20,148
-235,-73,174,2,-79,-69,-39,-98,-17,18
-1216,575,918,188,-19,-88,-100,-173,-133,-232
-792,788,892,194,-84,-163,-217,-241,-181,-170
-779,-650,161,134,-20,-67,-114,-125,-88,-92
-1040,-1297,-381,108,116,117,104,65,0,-200
-328,-425,-299,42,60,53,77,59,-25,-196
364,169,-318,-100,-65,-92,-50,0,-33,-15
400,275,-340,-26,48,0,32,89,59,95
435,190,-114,68,123,72,108,157,138,230
589,-25,-90,-29,14,36,43,104,119,343
-23,-386,-47,-64,0,166,34,36,6,93
307,268,-154,-221,-108,70,-31,-5,7,139
1555,994,-130,-357,-254,-181,-132,-20,85,400
1341,710,-178,-351,-245,-179,-73,11,73,284
-371,-276,-519,-237,-38,35,117,111,34,-128
-1193,-213,-3,121,179,168,115,23,-102,-364
-638,402,694,414,283,230,66,-35,-156,-271
148,776,1015,442,214,80,-33,-78,-111,-57
20,97,966,390,186,56,-18,-79,-104,-87
-521,-1044,130,121,115,95,58,0,-58,-123
-318,-1251,-406,-115,-11,50,63,71,47,50
165,-144,-297,-166,-154,-120,-84,-52,-56,78
269,434,-216,-119,-184,-222,-184,-189,-206,-83
473,68,-689,-308,-279,-286,-254,-201,-135,110
877,529,-801,-454,-387,-317,-288,-242,-102,247
183,448,-246,-136,-74,33,-31,-51,-23,29
-610,-330,41,123,203,291,216,190,92,-132
-565,-798,-237,140,273,359,371,401,289,4
-43,-420,-490,3,201,285,356,454,423,246
115,124,-139,-47,68,101,157,265,282,218
-26,-166,187,6,3,-57,-49,0,24,29
-62,-13,104,31,0,-97,-145,-128,-137,-65
-59,324,-223,-108,-56,-68,-82,-35,-41,51
30,131,-317,-154,-64,-17,23,69,91,173
-56,-590,-301,-72,17,54,141,152,157,182
-635,-1120,-266,-55,20,30,135,110,58,23
-803,-472,32,52,48,0,82,24,-70,-234
-509,29,16,14,18,-35,54,24,-72,-244
-298,273,3,-2,9,-46,44,8,-43,-123
-276,302,157,109,119,120,117,31,-20,-104
127,523,273,84,93,228,69,-13,-30,-23
962,725,236,13,-34,41,-37,-33,45,226
1132,270,58,-65,-146,-146,-89,-19,124,374
25,-515,66,-59,-204,-268,-188,-135,-25,-1
-883,-301,169,12,-164,-252,-179,-195,-226,-452
167,273,39,-14,-156,-214,-99,-111,-171,-334
1254,408,-142,-191,-227,-187,-37,0,12,62
842,315,72,-182,-198,-71,-9,33,89,173
-282,156,357,38,-53,138,-36,-64,-39,-34
-718,-229,134,20,-11,173,-16,-63,-31,20
-839,-630,-40,45,85,120,25,-16,-18,17
-921,-886,-48,210,288,206,169,88,-12,-184
-933,-485,156,333,331,154,140,35,-79,-283
-512,41,175,201,160,-11,13,-29,-85,-131
-285,-146,124,87,84,-8,22,39,-33,-31
-309,196,579,224,105,30,10,-5,-86,-93
83,718,842,285,60,-40,-81,-94,-98,-23
453,-207,124,16,-52,-98,-77,-59,15,184
383,-733,-322,-175,-133,-124,-83,-63,6,198
633,975,347,-99,-230,-307,-294,-303,-227,-7
1172,1723,587,61,-133,-273,-295,-321,-224,0
1341,999,447,150,25,-113,-116,-129,-37,101
473,-289,40,84,58,-25,9,-13,29,37
-767,-1334,-797,-122,57,96,161,109,92,-119
-923,-187,-571,-151,-24,-12,40,-51,-101,-368
-605,187,-217,74,88,33,69,-24,-96,-361
-277,66,-332,-19,40,159,99,84,66,-86
137,98,-698,-270,-66,145,177,202,246,199
556,161,-470,-286,-71,69,183,241,363,399
281,-353,-157,-61,57,160,192,258,353,342
-344,-542,244,137,93,93,24,15,-7,-124
-440,61,429,88,-2,-80,-155,-193,-241,-335
-232,436,371,45,-2,-54,-101,-115,-139,-173
-507,-23,158,29,9,0,-28,-55,-36,-72
-575,-796,-250,40,92,116,101,88,144,130
-65,-778,-659,-63,98,174,174,239,319,380
341,-188,-798,-246,-39,65,92,177,293,367
308,307,-261,-158,-116,-83,-89,-44,40,87
165,-219,176,52,-18,-64,-89,-86,-58,-3
-266,-353,282,138,59,19,-14,-50,-84,-63
-605,-52,410,200,98,28,5,-59,-174,-213
-106,-1,317,-3,-86,-126,-112,-118,-164,-52
954,546,186,-178,-271,-315,-308,-219,-139,186
949,826,22,-155,-185,-226,-205,-120,-65,177
-43,371,-65,0,62,29,48,53,-11,-85
-459,33,-3,107,144,76,82,11,-99,-241
505,299,-155,-70,-18,-41,0,-6,-17,77
1511,435,-214,-202,-126,-95,-46,12,100,354
1514,-123,-369,-179,-84,-18,-30,-8,89,252
756,-176,-239,-66,-33,-6,-38,-52,-45,-12
-644,-510,209,194,164,137,81,37,-68,-223
-1757,-431,412,318,306,255,170,98,-42,-345
-1495,236,501,274,221,168,36,-12,-117,-344
-663,489,520,262,215,165,14,-33,-84,-192
-39,9,-21,-5,68,106,3,24,44,100
376,-119,-435,-192,-38,20,15,77,131,256
680,815,42,-59,-72,-135,-109,-72,-5,157
1024,1381,708,155,-49,-229,-202,-192,-121,46
1065,398,506,84,-100,-271,-213,-199,-116,14
272,-780,-62,-153,-208,-264,-196,-154,-60,12
-301,-1227,-357,-164,-90,33,43,55,130,134
-684,-810,225,154,168,346,227,127,108,-5
-892,-235,507,192,195,363,177,-5,-93,-296
-706,111,-9,-123,-30,65,-13,-121,-151,-325
-246,198,-596,-212,5,134,116,110,125,10
286,459,-686,-145,45,185,185,252,324,336
403,118,-475,-72,10,86,118,139,235,261
298,-250,-448,-199,-152,-108,-72,-54,2,12
358,62,-303,-159,-175,-189,-110,-49,1,24
410,-153,-118,-25,-57,-139,-28,44,123,136
92,-295,-33,33,-10,-138,-61,-1,82,96
-393,-216,-35,19,51,-40,-14,29,80,36
-699,-128,46,16,39,-20,4,30,43,-19
-789,-324,189,32,11,-19,20,5,14,-83
-170,-8,444,41,-38,-52,-14,-11,-25,-85
644,21,369,48,-72,-85,-31,-3,-2,59
1085,189,464,77,-71,-170,-125,-76,-41,125
674,242,277,47,-123,-231,-226,-181,-158,-63
532,696,-25,-73,-185,-247,-221,-149,-107,0
486,585,-121,-141,-147,-147,-63,1,43,137
-309,486,240,72,89,82,145,111,23,-131
-980,238,711,396,304,247,196,73,-104,-349
-682,-34,643,416,315,266,183,104,-51,-197
673,135,169,135,70,23,36,13,-69,-1
959,-361,-534,-159,-138,-141,-54,-35,-32,70
-214,-880,-1034,-360,-224,-193,-100,-58,-36,-13
-1066,-1056,-967,-311,-89,-49,44,45,10,-52
-653,-280,-606,-238,-22,53,117,103,42,29
315,619,-348,-207,-9,141,112,122,93,126
364,270,-187,-84,43,137,97,133,139,134
-596,-504,-6,111,136,130,93,104,69,-74
-1101,-554,-88,33,40,41,0,23,-34,-198
-662,-192,-189,-105,-72,-62,-90,-34,-51,-83
-94,49,68,42,25,-18,-68,-52,-32,8
604,54,502,286,110,-8,-76,-122,-113,-5
1228,60,442,224,7,-91,-124,-139,-76,117
1007,248,241,103,-42,-98,-113,-92,-62,103
-239,201,101,103,48,9,-13,-33,-95,-187
-814,-508,-6,101,139,147,127,123,81,-113
-443,-60,-14,30,47,71,68,76,89,7
-53,223,-96,-49,-29,23,49,56,92,103
-181,-69,75,-124,-39,37,92,117,152,115
-387,254,531,-47,-55,-48,0,16,46,-33
-221,485,706,6,-89,-126,-134,-129,-124,-171
315,97,258,-7,-75,-91,-131,-115,-97,-71
668,-225,-243,89,67,55,-11,15,35,125
-9,-397,-380,94,68,40,-37,-6,-11,14
-741,-540,-361,70,112,97,57,70,35,-59
-422,-33,-317,-26,66,53,66,86,28,-17
-303,105,-159,-71,-3,-36,-46,2,-66,-80
-344,126,105,-31,28,-20,15,49,-45,-110
24,183,120,-31,29,-10,49,104,22,-32
326,191,122,-50,-27,-31,-21,13,-40,-3
185,-53,-38,-71,-68,-9,-98,-126,-145,-69
41,-24,-299,7,18,56,-13,-85,-97,-12
324,294,-71,51,17,-26,-12,-53,-2,194
925,366,29,-40,-60,-88,-65,-47,74,378
1245,357,-184,-176,-169,-155,-135,-70,47,352
956,338,-287,-245,-179,-124,-65,17,105,289
257,-3,-154,-164,-123,-64,14,80,106,141
-642,-353,349,107,34,1,37,5,-50,-184
-299,944,1335,538,239,53,-68,-217,-328,-449
645,1608,1510,572,211,-2,-153,-298,-354,-282
190,-192,301,95,6,-49,-71,-102,-67,28
-995,-1663,-928,-213,-17,69,147,139,128,0
-833,-1150,-1081,-252,16,131,240,236,180,33
-693,-944,-785,-176,87,216,339,319,266,78
-248,-121,-251,-36,15,61,115,64,34,-36
181,276,2,58,-51,-64,-70,-90,-64,42
739,716,290,42,-80,-120,-134,-86,5,187
1170,827,450,-35,-82,-107,-112,-32,57,253
1416,822,43,-155,-39,44,60,160,248,444
840,184,-146,-134,13,86,119,194,253,329
-837,-1160,-179,-25,13,-13,8,16,-38,-183
-1460,-903,74,141,66,31,-27,-89,-220,-457
-781,-88,155,181,88,97,-15,-77,-176,-269
-157,121,136,81,-1,-23,-30,-12,-6,31
-436,-118,38,28,-7,-20,-7,10,-15,-92
-329,108,-62,-102,-59,9,-48,-65,-123,-270
381,207,-377,-226,-140,-28,-41,-44,-48,-94
786,697,-64,-130,-179,-114,-94,-122,-36,98
-58,-30,110,11,-69,-5,-5,-54,-14,33
-399,-368,-109,7,-17,74,84,72,90,87
-41,-553,-418,-95,-66,39,64,107,140,190
-81,-114,-253,-93,-110,-76,-31,-4,-10,-21
-185,-45,8,24,-24,-65,-3,5,-32,-104
-16,-44,-57,10,40,2,95,127,70,2
654,502,-105,-126,-67,-67,24,71,72,135
1364,804,-200,-307,-270,-215,-170,-90,16,234
935,295,-337,-303,-247,-163,-117,-78,6,160
-485,-650,-216,-32,29,66,94,46,94,20
-1801,-1004,72,169,189,167,150,46,78,-210
-1787,-444,298,264,231,202,201,44,12,-362
-1285,-331,209,236,221,212,214,102,37,-291
-843,-478,62,158,152,159,164,85,32,-205
-292,-57,76,99,99,118,120,71,52,-121
69,268,210,87,82,94,112,82,115,9
147,131,89,48,72,59,82,69,143,147
185,246,123,16,25,-19,-26,-1,86,154
323,517,281,59,10,-59,-77,-70,0,113
571,720,595,157,53,-46,-55,-62,14,163
613,397,427,96,48,-11,-3,10,106,242
434,-623,-127,-152,-89,-51,-22,15,97,251
987,-326,0,-167,-109,-44,-64,-39,20,269
1414,594,515,-42,-135,-149,-212,-224,-162,135
548,686,489,-126,-233,-278,-281,-267,-229,-59
-519,60,59,-147,-194,-238,-185,-175,-229,-245
-906,0,-140,34,-28,-93,-85,-121,-248,-346
-285,195,-176,30,-12,-12,-149,-194,-252,-198
318,88,-301,-53,-33,-17,-96,-71,-95,29
214,-420,-348,-58,-30,-43,-10,30,15,108
-268,-719,-255,-68,23,106,107,128,77,54
-511,-762,38,72,185,358,233,236,101,-82
-662,-951,-123,152,268,407,316,327,171,-89
-622,-295,-252,84,184,258,252,262,122,-120
276,445,40,13,11,13,50,91,42,-36
1292,358,-144,-144,-95,-106,-32,74,110,200
946,206,-152,-185,-103,-123,-44,47,79,158
-478,74,4,-74,-87,-152,-115,-73,-98,-129
-1034,184,90,59,12,-54,-52,-29,-67,-133
-482,209,-23,42,38,23,19,50,20,20
22,89,-203,39,87,97,106,126,96,106
188,-198,-318,36,101,124,149,130,104,120
-183,-608,-207,74,72,69,25,7,-35,-39
-134,-280,48,121,40,24,-40,-52,-103,-110
-80,223,144,112,6,-1,-33,-36,-57,-87
-9,550,-18,-34,-98,-82,-83,-61,-16,-4
218,458,-96,-157,-128,-79,-79,-45,30,125
107,-7,-137,-182,-147,-78,-58,-10,82,173
-271,-309,-32,-10,-32,3,-4,-5,38,11
-225,-26,236,182,90,56,16,-63,-105,-242
64,252,341,209,73,18,-32,-113,-181,-301
74,393,298,145,33,-7,-61,-115,-138,-187
166,275,137,37,-24,-30,-53,-78,-62,-9
577,-121,-210,-139,-114,-76,-38,-39,16,148
974,-67,-175,-115,-110,-69,-12,-21,80,260
869,150,14,-58,-89,-88,-68,-85,39,195
300,-18,91,15,-5,1,-16,-55,5,41
-602,-436,66,86,88,73,75,-18,-66,-228
-587,-341,-21,46,53,32,52,-51,-92,-224
496,-58,-321,-126,-54,-29,52,23,95,201
1307,17,-597,-263,-121,-43,79,162,303,551
1378,290,-351,-259,-216,-181,-125,-30,109,452
118,242,56,-157,-226,-279,-293,-272,-200,-27
-1425,-451,108,34,25,-10,11,-36,-74,-312
-1798,-263,284,248,264,276,262,204,69,-370
-1025,229,463,325,265,270,213,196,80,-212
499,828,397,127,6,9,-10,29,65,195
2270,1477,194,-208,-310,-280,-245,-152,33,574
2101,919,-63,-256,-242,-200,-160,-100,-22,390
-72,-1103,-481,-180,-18,27,44,-1,-108,-171
-1412,-1642,-637,-118,79,158,171,136,-1,-238
-856,-918,-364,55,183,247,258,255,153,5
-574,-284,-114,94,113,121,106,68,-3,-46
-901,116,344,200,124,73,11,-81,-222,-317
-1093,60,726,329,166,76,-19,-128,-306,-483
-686,-303,89,170,174,178,148,103,-38,-235
284,10,-216,-24,66,127,131,147,79,28
567,185,-8,-22,-19,-6,-10,26,43,115
81,-45,52,-56,-86,-88,-89,-37,5,107
-698,-102,175,-41,-85,-99,-102,-69,-39,-16
-661,263,357,36,-18,-51,-88,-89,-103,-136
-125,295,190,6,-19,-21,-45,-54,-67,-55
231,201,7,-12,-4,15,7,17,16,19
337,153,68,-19,-42,-46,-47,-35,-12,26
679,319,-2,-75,-101,-103,-86,-48,2,96
948,249,-172,-168,-156,-130,-80,2,89,224
471,104,-170,-129,-117,-125,-88,-55,15,74
-215,-44,-3,60,55,25,22,-4,16,-67
818,289,-1,7,33,46,63,93,180,305
1694,85,-128,-122,-73,-42,-1,138,345,674
293,-633,-217,-56,5,14,74,146,269,322
-1669,-523,17,125,139,117,133,34,-64,-434
-1213,166,423,275,184,141,85,-58,-222,-543
-364,-253,284,214,154,125,97,-44,-126,-274
-850,-378,157,61,42,12,20,-70,-102,-285
-1059,202,349,46,-62,-149,-166,-204,-213,-369
-220,831,427,-7,-168,-250,-262,-269,-182,-138
79,384,172,-71,-128,-138,-120,-95,29,124
-474,-492,14,47,60,83,79,98,99,16
-248,-262,107,140,115,92,48,8,-27,-69
513,439,169,78,102,72,29,17,26,139
531,472,176,54,112,86,93,67,69,139
28,307,592,160,71,-1,-12,-39,-54,-63
-84,561,892,203,67,-16,-47,-84,-129,-171
-136,288,688,228,121,41,-10,-48,-112,-125
-452,-947,-516,18,78,68,38,20,-41,-110
-286,-1111,-1223,-173,6,55,38,73,46,-16
121,-511,-959,-239,-103,-65,-66,-13,7,72
227,-377,-692,-223,-78,-58,-38,17,33,139
-134,-415,-221,-4,74,56,45,66,17,36
-471,-665,-103,43,116,90,97,79,-21,-68
-367,-455,-173,-38,68,36,51,36,-27,21
-157,-109,-142,-86,23,3,42,53,47,156
95,205,-95,-147,-85,-97,-81,1,12,179
522,536,63,-167,-177,-200,-200,-110,-74,135
885,632,181,-118,-131,-164,-146,-100,-82,59
1124,259,162,-46,11,19,45,119,107,219
869,20,55,-59,-13,0,23,79,79,173
711,153,-366,-231,-161,-152,-115,-76,-57,34
672,467,-509,-128,-96,-108,-68,-40,-16,95
-242,129,-135,122,110,72,110,61,33,-5
-1157,-50,227,237,179,119,104,26,-40,-200
950,597,139,-105,-110,-148,-109,-43,-5,48
1427,590,9,-102,-122,-159,-94,-26,116,235
314,-450,-226,3,40,-10,31,54,122,132
-1205,-1576,-276,152,229,218,212,188,171,-13
-1324,-1137,-207,33,53,54,34,-25,-5,-102
-155,534,127,-57,-161,-224,-203,-258,-170,-44
657,1053,278,-48,-173,-235,-196,-206,-110,10
77,370,347,122,58,18,44,-12,-11,-149
-639,-222,205,235,253,243,278,196,115,-209
-855,-442,-116,207,258,292,345,279,175,-118
-302,312,-98,80,94,142,227,170,123,-48
644,672,65,-105,-93,-38,64,62,168,242
754,-369,-108,-84,-68,-49,38,41,183,319
154,-922,-214,28,4,-10,25,-14,53,91
-1148,-837,-268,-31,-1,-4,26,-52,-83,-252
-1295,19,-39,-32,0,93,38,-41,-109,-317
-473,456,55,-16,4,130,49,26,-24,-161
95,304,74,-14,8,92,65,103,89,63
71,91,40,-29,5,60,39,111,123,160
-225,224,195,47,8,-3,-40,-17,-14,-37
-42,208,268,84,0,-41,-86,-86,-96,-95
442,272,194,75,7,-58,-94,-56,-48,22
230,141,254,123,38,-62,-86,-52,-79,-65
-383,-21,453,140,-11,-97,-131,-135,-201,-264
-314,538,622,170,-20,-116,-139,-155,-218,-237
237,929,675,158,-42,-178,-197,-237,-245,-145
535,310,338,-5,-140,-298,-281,-301,-244,-53
909,112,-195,-166,-198,-315,-226,-170,-47,207
813,37,-786,-282,-148,-208,-42,33,139,364
453,-447,-835,-208,29,10,161,196,217,345
266,-303,-505,-134,77,101,196,204,216,291
236,-124,-268,-98,52,84,137,152,169,172
322,-104,-81,-52,21,93,64,60,45,56
601,52,-188,-158,-93,84,-21,-6,1,108
39,-334,-452,-235,-126,45,-26,5,15,79
-1198,-318,4,20,4,0,-34,-53,-127,-253
-858,267,359,88,-47,-147,-196,-213,-253,-269
107,601,288,12,-86,-161,-209,-182,-158,-55
-101,109,313,102,97,59,35,14,-33,-158
-1044,-295,599,221,220,204,167,103,-19,-385
-1338,-625,684,259,224,198,167,72,-32,-390
-825,-570,703,225,145,82,45,-20,-18,-174
-151,-679,152,81,51,13,-28,-38,17,54
502,-709,-486,-50,32,67,50,64,156,255
1022,-285,-861,-90,62,125,143,158,260,296
1415,505,-755,-156,9,77,129,165,261,328
872,537,-454,-121,-6,60,103,142,208,237
120,528,-200,-14,2,39,47,46,122,103
-354,133,-61,-31,-61,-31,-26,-78,-25,-32
-392,-109,-212,-31,5,70,106,47,58,8
-641,-462,-178,48,105,148,183,118,87,-80
-672,-246,50,83,81,79,67,37,0,-193
-489,-10,272,118,66,21,-26,-61,-118,-268
-275,50,58,-3,-32,-40,-56,-52,-53,-105
6,71,-68,-61,-74,-41,-33,0,13,67
671,360,-11,-91,-120,-110,-91,-55,-34,97
1360,663,-30,-155,-189,-176,-147,-93,-26,213
1097,620,108,-132,-213,-242,-245,-165,-70,182
446,528,150,-77,-113,-135,-158,-62,-15,144
370,-225,102,104,112,125,91,119,121,171
-52,-530,215,280,207,164,48,26,-56,-99
-323,-293,-102,51,17,-19,-110,-117,-208,-171
-219,-30,-292,-148,-59,-36,-56,-45,-98,5
-376,-194,-100,-76,-4,15,2,3,-51,4
-631,-493,40,29,62,82,74,57,-28,-21
-830,-362,156,123,104,100,52,31,-73,-140
-508,91,111,82,51,31,-42,-58,-130,-157
-65,162,116,108,105,81,39,39,-21,-31
180,111,246,73,42,8,-14,-13,-31,14
281,273,273,12,-23,-20,-37,-27,-32,35
219,-203,76,19,14,55,74,90,91,121
-167,237,54,20,-46,-47,-30,-20,-28,-65
-69,752,343,67,-41,-66,-63,-37,-101,-164
8,342,384,184,107,65,49,48,-42,-124
-291,-34,156,42,7,-47,-64,-74,-124,-156
-321,262,73,-225,-246,-241,-296,-286,-289,-258
366,717,129,-218,-265,-256,-343,-323,-270,-100
807,239,-302,-88,-83,-78,-113,-43,58,255
462,-517,-801,-108,67,158,176,275,352,370
62,-618,-806,-27,201,299,340,394,394,251
49,-462,-213,95,218,259,293,281,269,124
-329,-111,280,49,77,81,81,78,120,-7
-520,145,203,-33,-9,-22,-10,-14,39,-63
147,411,170,-21,-21,-51,-38,-16,40,35
772,318,-52,-81,-98,-113,-120,-26,64,176
740,-76,-3,39,-18,-65,-100,-40,9,106
40,-912,-23,167,106,66,-9,-25,-86,-116
-541,-666,-335,15,73,120,31,-10,-117,-233
-687,-268,-304,-107,0,62,47,39,-45,-143
-482,-108,-71,-86,-27,22,30,73,9,-39
14,439,-15,-131,-113,-49,-49,0,-47,-16
272,650,95,-78,-75,-26,-59,-35,-99,-60
26,123,172,26,13,47,-5,9,-81,-65
-216,-337,42,68,47,46,19,32,-56,-63
-33,68,336,119,23,-39,-61,-53,-121,-118
202,263,549,190,37,-84,-84,-107,-129,-94
728,-25,112,70,-50,-130,-112,-45,-5,165
1033,-304,-403,-126,-159,-168,-156,-54,34,292
1113,557,-450,-305,-254,-138,-189,-87,-11,231
483,212,-412,-311,-195,-76,-43,60,100,249
-460,-230,-416,-178,-25,53,97,137,123,75
-1081,-557,-212,43,149,174,139,94,-23,-232
-1360,-914,-67,147,199,194,159,100,-54,-348
-1157,-541,85,137,159,137,154,129,-1,-276
-855,105,371,109,119,92,136,133,-18,-230
-388,274,645,172,99,39,95,87,5,-74
53,343,606,134,3,-98,-29,-28,20,81
349,228,81,-18,-55,-87,-7,20,96,229
526,196,-201,-159,-57,76,81,106,156,273
464,251,197,-47,-61,74,-10,-17,16,105
271,362,363,32,-171,-191,-258,-261,-185,-73
-109,885,319,68,-196,-318,-370,-398,-329,-240
-614,554,105,139,-14,-95,-130,-170,-158,-223
-824,-841,-218,98,142,185,211,193,160,-50
-593,-1171,-269,24,95,162,196,164,116,-87
-247,-553,-296,-40,23,85,117,79,81,0
222,-107,-336,-65,17,69,92,91,160,213
645,-71,-462,-114,34,70,163,156,242,370
375,-343,-346,-67,72,104,217,195,256,307
-35,-363,-154,7,81,123,174,125,130,92
39,-12,-32,-21,-14,18,0,-59,-42,-84
782,693,82,-26,-49,-107,-113,-150,-114,-82
1515,741,133,-55,-65,-135,-82,-46,22,170
915,527,130,-90,-51,-90,22,94,135,227
-224,333,96,-93,-92,-124,-50,9,-5,-2
-265,653,-79,-211,-264,-286,-247,-197,-176,-16
-56,200,-126,-68,-120,-182,-154,-162,-171,3
-13,-576,-124,152,169,99,117,40,-34,19
5,-899,-2,286,346,337,301,195,77,34
136,-315,203,245,289,375,223,104,17,12
372,916,803,246,157,170,9,-88,-120,-46
261,943,611,134,42,3,-25,-82,-94,-45
2,-237,-302,-200,-139,-91,-57,-50,-25,83
15,-180,-555,-258,-187,-196,-125,-86,-28,128
-323,-71,-220,-109,-141,-253,-192,-161,-141,-76
-904,-198,126,77,-35,-163,-121,-149,-180,-282
-870,-411,263,245,102,17,22,-29,-53,-241
-436,-486,89,126,70,55,67,22,28,-130
46,-158,-190,-128,-88,-61,-11,-33,-21,-59
966,508,-205,-210,-172,-153,-99,-80,-4,158
1139,774,-99,-147,-91,-91,-72,-46,32,251
418,530,120,17,38,-19,-25,-48,-15,46
-809,-67,152,75,94,35,30,-40,-85,-295
-746,-40,-45,-16,87,92,122,68,9,-210
18,-443,-125,-23,75,93,133,140,140,60
-133,-682,41,77,35,-14,-34,-24,8,-21
-543,-473,-86,31,-11,-21,-61,-47,-15,-33
-406,-349,-374,-125,-68,25,-20,28,94,108
35,-87,-348,-161,-83,1,-16,78,163,246
593,344,-59,-49,-28,0,14,63,123,221
927,310,1,-29,-46,-34,-42,-26,14,165
308,-381,39,65,68,66,9,11,-11,-33
167,-615,108,125,125,116,46,42,25,-18
205,-98,231,149,100,60,0,-4,28,32
-300,732,214,92,14,-25,-64,-79,-56,-156
-434,649,-13,48,44,68,58,39,-21,-219
-760,123,288,88,68,108,90,54,-30,-258
-727,140,796,126,17,-3,-34,-55,-80,-217
-415,-208,412,-10,-105,-132,-150,-91,-46,-35
-200,-214,-15,-131,-133,-121,-91,-2,24,45
-125,216,180,-6,-46,-45,-36,-1,-43,-71
-76,703,518,219,61,6,-62,-107,-181,-207
349,669,270,180,57,12,-35,-53,-76,-13
876,252,-405,-21,-22,24,36,114,146,305
739,-560,-582,-71,-3,107,75,172,173,338
63,-827,8,1,35,102,46,101,21,44
-650,-659,416,87,52,25,-6,0,-148,-314
-1069,-619,427,56,-33,-114,-136,-134,-283,-465
-754,-273,-79,-29,-39,-95,-59,-45,-152,-297
-112,16,-682,-128,41,45,144,176,113,11
310,92,-618,-139,36,79,167,186,149,135
405,-212,-347,-131,-4,84,130,107,97,97
556,-230,-355,-136,-33,75,87,39,86,184
582,-65,-425,-169,-53,63,54,74,205,393
-74,53,-355,-151,-48,53,22,83,195,243
-562,127,-93,-73,-75,-67,-69,-21,5,-50
-321,277,220,-29,-114,-151,-161,-125,-123,-121
-205,85,361,42,-19,-43,-71,-68,-85,-132
-242,170,359,88,20,-8,-48,-91,-140,-226
41,183,177,85,-11,-57,-79,-132,-165,-170
276,-457,-325,10,7,9,1,-11,13,24
144,-358,-368,8,60,81,109,112,144,91
46,235,30,13,55,71,116,106,157,85
12,521,409,86,73,70,95,84,148,103
159,323,359,66,28,9,30,26,83,128
111,72,22,22,10,-11,12,0,81,113
-428,62,-10,88,28,5,-31,-62,-10,-55
-445,153,-158,-18,-12,12,-10,-28,14,-50
6,-28,-199,-116,-53,2,23,27,98,77
195,-115,23,2,-58,-74,-78,-74,-31,-9
336,-97,113,91,-21,-54,-61,-101,-96,-62
653,100,-163,-17,-25,-2,43,2,43,103
1293,409,-255,-187,-152,-101,-33,-16,127,338
1687,478,-172,-184,-159,-89,-41,-10,145,418
1181,526,-10,-105,-153,-126,-134,-119,3,215
-401,153,140,-41,-162,-211,-268,-298,-267,-223
-1156,-367,68,-11,-36,-71,-112,-128,-140,-249
-1134,-413,36,56,146,160,154,165,98,-135
-667,-159,34,3,90,122,136,165,103,-38
-314,-427,90,27,35,0,12,35,-6,-46
-23,-400,301,247,152,40,17,0,-56,-94
77,-269,464,376,217,74,46,20,-65,-98
-122,-186,167,196,98,4,-5,-11,-69,-86
-339,29,-283,-46,5,0,20,30,-8,-6
-128,169,-336,-112,-17,21,59,56,44,102
130,451,-50,-23,19,46,66,53,48,178
-342,-191,59,76,80,80,90,32,-33,-28
-804,-449,67,93,73,50,63,-30,-133,-252
-368,-176,-89,-67,-72,-67,-28,-86,-120,-146
-36,-249,-190,-61,-66,-65,-7,-59,-71,-121
-42,-240,-177,-3,-13,2,41,-5,-30,-138
-58,122,-109,-64,-77,-83,-21,-46,-51,-80
-58,430,175,-51,-109,-158,-84,-114,-98,-15
-165,208,356,65,-13,-93,-19,-68,-80,-25
-284,-263,16,88,95,55,156,128,85,20
-169,-205,-160,11,83,85,195,204,184,77
259,174,-79,-70,3,52,79,64,87,65
766,420,-43,-96,-16,181,21,-47,0,100
1169,504,16,-83,-61,163,-81,-145,-40,187
1304,852,190,-42,-139,-112,-205,-204,-53,234
654,582,119,0,-118,-159,-177,-158,-56,115
-422,-270,11,79,55,72,53,60,68,-60
-570,-456,-120,42,105,174,133,155,157,-65
-242,-409,-289,-66,1,43,78,125,152,40
-320,-388,-172,-38,-44,-53,1,37,80,7
-502,-406,59,53,-8,-44,12,39,46,-56
-94,201,139,26,-15,-26,11,81,113,51
649,586,433,140,86,63,82,118,143,179
1177,298,696,265,131,59,40,78,141,315
441,-640,325,149,-4,-95,-134,-92,-2,163
-617,-224,-28,-18,-100,-198,-220,-214,-200,-207
-846,-57,161,19,1,-89,-65,-64,-129,-246
-736,21,653,40,43,-9,24,31,-57,-150
-527,27,827,81,18,-14,-23,-11,-65,-131
-466,-98,539,33,-46,-135,-153,-147,-193,-294
-396,-48,-45,-48,-108,-206,-222,-240,-292,-387
372,805,-308,-23,-16,-4,-68,-85,-123,-73
1440,1354,57,17,9,103,-27,-15,-51,174
2090,1537,403,-52,-148,-128,-157,-107,-85,200
1209,126,-75,-272,-287,-281,-165,-144,-125,32
-729,-1415,-977,-216,-36,-5,162,140,44,-148
-1444,-1436,-1050,45,327,397,473,388,207,-134
-901,-617,-700,0,211,342,276,197,86,-86
-103,428,-287,-92,-52,-5,-36,-51,-33,64
549,411,-289,-145,-130,-129,-115,-56,47,316
847,-430,-469,-125,-64,-36,-14,55,149,425
240,-747,-396,23,75,106,128,133,135,230
-483,-136,148,203,146,133,138,79,42,-44
-533,272,211,170,78,47,34,3,-13,-147
-42,47,-104,23,33,64,38,83,90,39
479,-641,-343,-41,90,198,211,291,321,356
65,-1064,-388,-60,89,203,227,287,308,259
-884,-406,175,40,75,106,94,70,23,-183
-928,466,422,82,21,-13,-24,-86,-146,-340
-544,346,230,-3,-34,-76,-59,-109,-125,-232
-170,195,-86,-95,-52,-38,-30,-41,-31,-90
-13,172,-153,-57,-13,24,-3,17,31,22
-89,81,-58,-22,5,38,12,0,0,-2
-69,136,37,-33,-37,-20,-32,-61,-62,-40
80,647,275,13,-69,-101,-116,-159,-159,-93
252,707,373,50,-52,-98,-134,-131,-138,-71
361,202,114,30,0,-15,-55,-10,0,73
348,-175,-52,80,61,29,0,48,46,117
173,-452,3,143,92,15,-33,-3,-50,0
368,-361,-75,33,10,-34,-61,2,-15,75
131,-119,50,19,16,31,28,90,78,75
-261,-40,85,-26,8,48,66,99,84,-4
-212,-80,-86,-134,-22,34,67,87,67,64
-138,-265,-218,-140,-44,9,28,41,18,62
94,71,-114,-74,-29,-13,-33,6,-3,71
294,487,71,-36,-31,-39,-67,-11,-33,13
474,580,129,-22,-48,-33,-56,-43,-46,-6
961,593,-94,-92,-126,-113,-116,-122,-49,147
1600,546,-345,-202,-205,-184,-162,-120,37,387
1573,145,-205,-114,-120,-108,-96,-8,134,429
233,-851,5,191,4,-40,-22,35,76,155
-1399,-931,190,407,120,40,60,22,-33,-199
-1776,-199,179,266,141,101,105,17,-64,-321
-1148,-89,-75,47,25,54,53,3,-29,-230
-605,-244,-151,0,-6,37,46,19,6,-140
-480,-320,40,107,50,60,48,20,-23,-161
46,169,300,216,84,49,-5,-19,-75,-146
659,647,413,206,59,27,-25,-26,-58,-36
775,846,454,150,3,-32,-68,-43,4,94
271,200,298,129,18,-5,-29,-16,32,61
-418,-583,21,98,54,57,41,16,14,-98
-571,-1038,-321,17,55,95,88,70,69,-86
-620,181,-168,-37,-28,-8,-2,-34,-30,-163
-244,861,223,6,-66,-92,-101,-119,-127,-213
-197,649,248,62,-19,-49,-60,-97,-125,-250
-251,17,102,68,-7,-67,-64,-115,-111,-210
94,-64,39,11,-17,-87,-45,-77,7,26
482,67,-172,-132,-49,-66,18,59,172,298
201,-647,-443,-232,-57,15,97,140,198,274
-123,-268,-11,5,38,53,62,18,16,-3
-137,157,287,164,141,145,107,36,20,-20
-261,-59,267,171,155,273,136,54,2,-76
-209,-283,152,77,15,122,-11,-43,-103,-138
37,101,109,35,-69,-112,-113,-80,-137,-97
-150,173,288,140,-5,-133,-97,-58,-110,-105
-126,219,398,131,-41,-188,-153,-90,-119,-110
268,7,-187,-106,-145,-198,-147,-87,-93,6
512,-83,-561,-263,-135,-55,-40,-22,4,141
142,-318,-606,-246,-17,223,86,79,97,158
-168,-389,-493,-138,78,248,158,163,162,149
-286,-402,-246,-39,36,36,53,74,89,71
-174,-133,16,19,-20,-78,-70,-41,-52,-51
309,363,260,-62,-144,-196,-165,-117,-88,32
747,582,289,-150,-181,-172,-131,-77,-3,180
496,211,380,-44,-58,-20,-32,-32,-10,23
-234,-572,167,77,67,65,49,-27,-76,-184
-416,-370,101,87,46,-17,-19,-112,-139,-162
-430,-25,35,129,95,25,31,-68,-90,-146
-251,-270,-271,94,140,119,166,63,27,-88
593,-158,-342,-49,21,36,119,77,124,160
1590,519,1,-56,-62,-32,14,21,165,397
1524,879,238,-25,-40,9,15,27,164,380
-329,482,523,74,1,0,-40,-124,-124,-226
-1145,72,553,116,76,60,20,-68,-124,-372
-576,-96,326,63,98,93,94,37,14,-176
-182,-183,116,13,13,-22,-12,-77,-56,-158
-140,-344,-246,12,1,-49,-18,-63,-15,-46
193,268,-457,-96,-62,-22,-11,-12,66,138
580,554,-498,-223,-175,-127,-73,-28,52,168
680,480,-396,-142,-112,-89,13,112,167,194
309,200,-133,34,41,17,71,170,203,125
-63,-117,61,49,20,-27,4,20,37,-93
460,530,267,-25,-163,-222,-183,-191,-146,-95
1017,766,304,-61,-246,-345,-340,-349,-222,41
771,-343,-263,-232,-159,-162,-115,-83,58,286
-561,-1210,-439,-190,23,91,144,172,208,136
-1688,-1498,-625,-38,248,333,387,403,293,-110
-1353,-773,-371,43,245,288,295,305,159,-226
-708,-455,-69,80,165,151,151,103,-5,-219
-451,-157,79,51,60,30,16,-28,-112,-180
-231,-69,-41,-72,-59,-80,-83,-85,-99,-49
231,-178,-282,-158,-78,-71,-48,0,35,206
1087,207,-237,-131,-46,-25,-32,44,72,299
1692,831,-38,-106,-73,-70,-98,-26,-15,223
1610,1153,200,-107,-119,-134,-155,-72,-43,164
549,751,572,51,-89,-160,-199,-146,-142,-40
-622,40,618,198,30,-54,-119,-103,-160,-175
-1591,-412,357,217,154,131,61,39,-119,-335
-1363,-393,134,160,179,170,120,83,-44,-243
-1060,-521,-103,112,144,130,82,50,-27,-163
-777,-487,-120,30,36,30,-30,-53,-116,-223
-406,224,171,25,-28,-28,-119,-130,-209,-276
-113,466,217,70,34,30,-60,-58,-118,-131
-328,-341,-27,116,175,205,152,151,118,63
-472,-676,-196,49,136,191,171,187,150,92
-271,-249,-71,-35,32,78,83,101,58,67
283,404,64,-154,-124,-88,-78,-39,-13,123
847,991,205,-183,-237,-245,-209,-171,-71,188
1129,790,112,-174,-255,-275,-190,-148,-17,300
1217,261,-149,-166,-202,-207,-75,0,152,411
936,-271,-39,-114,-148,-156,-88,-58,43,198
-112,-837,167,85,35,-18,-50,-104,-139,-233
-936,-1162,129,168,171,146,119,65,0,-299
-996,-264,-88,33,81,79,69,39,21,-254
-597,330,-290,-41,70,111,119,102,101,-82
-162,24,-382,-58,80,152,183,197,198,88
-91,-77,-311,-74,12,62,100,125,125,48
257,312,-113,-88,-84,-60,-25,-21,-1,34
1168,599,-55,-145,-190,-165,-146,-121,-24,207
1749,510,-250,-192,-191,-142,-110,-49,106,417
1218,116,-166,-43,-3,51,78,99,192,379
257,61,265,145,123,109,122,60,75,134
-456,194,297,126,114,90,98,3,-31,-114
-228,317,-66,-94,-27,-8,39,5,-14,-63
-750,-291,-84,-85,-47,-55,-10,-31,-88,-190
-1257,-440,303,94,33,-58,-24,-86,-177,-324
-860,-458,225,114,62,-3,22,-61,-131,-218
-499,-485,-85,56,81,84,75,21,-45,-53
-234,-311,-39,89,100,82,69,49,-7,-3
-102,-79,13,46,29,-17,-4,-14,-66,-55
-227,-104,-87,27,23,36,29,-4,-69,-103
-234,-293,-387,-42,60,219,100,78,38,20
32,-63,-181,-53,51,188,57,83,77,135
191,231,276,-25,-3,32,-23,37,38,107
107,453,538,-52,-82,-80,-118,-67,-76,-8
30,402,492,6,-80,-102,-155,-96,-126,-65
-106,-173,7,-3,-65,-73,-124,-63,-94,-65
-154,-584,-411,23,66,67,44,77,63,40
71,-376,-298,-3,26,9,16,47,30,68
137,-199,-75,-23,-57,-96,-52,-12,-10,45
-210,-377,-170,-33,-1,-18,81,77,92,10
-513,25,201,117,89,39,100,43,-45,-196
-321,429,430,105,66,27,-52,-22,-303,-234
-132,515,412,51,42,152,-25,-61,-232,-206
75,42,148,26,46,203,32,-24,-78,-138
636,-285,10,20,67,190,57,35,75,65
1233,-84,44,-52,-40,1,-11,31,164,251
1457,903,-12,-271,-309,-300,-193,-100,120,364
1028,741,-375,-365,-340,-296,-188,-82,123,407
241,-299,-696,-327,-144,-55,33,91,194,382
-480,-236,-435,-179,-26,43,83,88,71,23
-584,-166,-204,11,51,65,80,51,0,-191
-537,103,192,192,152,113,93,64,-17,-212
-516,389,509,280,218,146,77,78,-15,-179
-479,136,353,137,96,16,-29,-9,-94,-151
-269,-449,-108,14,48,12,4,17,-34,-54
-106,-272,-256,-44,32,22,17,41,0,-62
-217,-253,-326,-124,-7,12,39,60,26,-36
-130,201,-209,-154,-75,-61,-20,-45,-46,-26
222,584,-53,-152,-139,-157,-130,-165,-129,-16
450,447,43,-53,-102,-167,-157,-196,-125,-1
343,-30,129,79,32,-32,-31,-74,-48,23
75,-169,144,139,148,115,144,105,65,21
88,-131,72,35,51,30,79,67,79,53
198,14,-29,-59,-52,-37,-1,13,53,67
172,-42,42,-1,-14,5,46,35,14,27
135,70,194,102,46,0,1,-52,-135,-147
437,494,320,109,17,-75,-89,-162,-207,-197
80,302,306,46,3,-52,-43,-117,-157,-193
-646,-31,145,28,45,39,92,42,6,-150
-606,3,338,56,-14,-46,15,-18,-5,-57
-213,-72,278,-57,-177,-261,-243,-224,-92,30
248,123,83,-73,-177,-251,-268,-199,-50,138
174,-243,16,114,106,67,65,103,158,182
167,-561,-150,191,292,310,317,350,329,237
271,-215,-356,21,188,258,287,315,291,205
302,32,-378,-117,37,128,183,204,189,99
-60,-909,-614,-118,8,86,143,138,128,4
67,-426,-415,-76,-26,5,68,53,99,68
-31,64,-197,-34,7,-3,33,34,108,90
-450,-63,104,21,16,-20,-11,-8,39,-29
-562,211,513,52,-17,-43,-70,-98,-93,-182
-344,617,538,-15,-95,-99,-119,-156,-165,-244
209,539,210,-62,-125,-105,-112,-150,-143,-135
652,553,-39,-17,-105,-109,-113,-135,-116,9
1193,864,-192,-85,-160,-177,-187,-188,-110,140
1390,1124,-321,-197,-243,-263,-251,-237,-163,96
492,538,-300,-149,-197,-218,-198,-213,-222,-121
-484,-316,-127,5,5,14,1,-13,-89,-175
-774,-862,-25,161,244,294,279,278,176,-26
-408,-711,-130,80,125,174,168,167,77,-75
-559,-858,-158,24,108,170,163,167,35,-148
-699,-785,-164,34,169,264,255,252,102,-136
-840,-604,-227,-15,113,217,209,227,91,-98
-620,-268,-42,-45,-3,59,47,70,0,-98
-280,-199,45,-53,-73,-28,-66,-40,-58,-25
-184,-179,211,59,-34,-6,-85,-94,-125,-100
-98,244,325,112,-22,-34,-118,-134,-184,-137
20,461,361,104,-27,-94,-121,-97,-139,-63
144,392,476,123,11,-83,-74,-26,-46,21
330,-288,268,108,66,-29,13,61,70,168
552,-293,14,-36,0,-64,1,41,48,180
818,733,354,-125,-145,-189,-143,-92,-58,120
1008,761,289,-111,-80,3,-22,27,90,249
608,349,346,-26,-37,80,44,60,98,150
-59,51,-31,36,-44,-37,-24,-61,-94,-115
-426,151,-403,74,61,27,16,-54,-133,-230
-407,152,-175,111,39,-15,-73,-117,-152,-247
-487,-223,-137,190,106,56,-14,-38,-46,-141
-299,-506,-492,-18,44,94,70,85,151,121
1,-526,-346,-181,-76,41,18,37,176,265
-218,-910,-181,-94,-13,69,66,74,176,149
-784,-419,52,55,88,121,142,107,158,4
-868,281,284,155,123,132,136,78,94,-45
-457,152,242,119,56,40,18,-13,-3,-92
-38,26,199,25,-28,-45,-58,-70,-76,-110
56,-5,31,-53,-93,-98,-77,-87,-119,-180
266,166,-193,-99,-56,-40,-21,-40,-67,-141
833,520,-252,-97,10,55,74,91,118,169
1006,617,-308,-83,1,65,121,190,268,383
349,70,-7,-6,48,81,144,190,254,270
-362,-124,478,97,33,-30,-29,-54,-34,-74
-277,202,600,106,-27,-155,-199,-267,-266,-200
408,238,421,30,-68,-170,-210,-230,-208,18
494,139,171,-51,-124,-201,-228,-169,-101,210
206,-153,-3,-24,-138,-216,-257,-163,-83,164
154,-172,77,45,-13,-61,-103,-29,0,168
195,191,350,-116,-69,-41,-28,53,88,301
-108,456,259,-212,-143,-101,-82,-11,15,151
-110,17,-410,-236,-154,-113,-81,-45,-7,82
597,175,-902,-169,-64,-31,3,30,106,212
1324,662,-477,35,69,64,69,88,164,375
1087,466,142,161,45,-27,-22,-25,16,174
-603,-468,154,201,64,-15,-48,-82,-143,-307
-2048,-1079,-45,135,79,28,0,-76,-212,-588
-1137,-186,-32,21,13,30,43,-6,-110,-364
526,436,-274,-95,-52,11,71,90,52,-16
937,-49,-620,-164,-5,100,159,207,177,134
-284,-860,-653,-68,142,244,272,237,89,-272
-1274,-450,-236,42,139,149,157,64,-143,-654
-906,-339,-95,10,37,39,39,-28,-132,-367
-455,-228,-66,-13,16,67,70,48,27,-13
-173,83,-25,30,26,80,85,63,76,74
22,408,227,161,37,53,46,7,91,128
249,616,555,215,46,47,17,7,131,270
-14,327,878,284,83,26,-29,-48,37,124
-84,112,508,150,37,-31,-103,-64,-63,95
909,494,376,10,-6,-31,-66,40,85,491
1787,598,334,-105,-160,-139,-82,46,272,712
1291,224,-176,-298,-318,-282,-227,-87,87,421
-304,-171,-163,-131,-153,-178,-213,-146,-136,-170
-1137,-413,-132,103,73,25,-45,-28,-120,-403
-867,-645,-212,59,145,134,119,127,27,-185
-655,-516,-64,0,100,115,160,148,47,-105
-728,-637,-229,-118,4,110,143,149,75,-63
-716,-570,-540,-129,0,174,97,144,88,-32
-370,-116,-463,39,86,129,42,73,12,-36
-150,162,-145,115,34,-31,-127,-131,-160,-128
-244,28,121,199,66,-40,-104,-133,-153,-138
-206,-119,155,179,68,4,3,-12,-1,-3
85,153,10,-13,14,52,114,119,159,190
210,456,161,-101,-12,80,147,158,164,183
142,260,79,-35,-12,50,96,67,26,-3
372,43,-408,-89,-43,22,72,52,29,24
560,149,-594,-173,-107,-56,12,13,37,90
564,240,-73,-67,-63,-59,12,13,56,150
573,298,316,36,-39,-61,-14,-1,98,221
501,262,423,39,-67,-105,-84,-66,62,160
91,-62,112,-9,-62,-86,-53,-45,37,25
84,-265,-484,-123,-86,-56,8,14,46,-6
349,-94,-520,-101,-22,0,68,64,85,5
198,-298,-252,-10,11,-5,53,24,45,-60
-341,-316,224,209,117,39,32,-34,-115,-281
-177,317,444,287,166,50,-9,-98,-249,-395
258,-112,3,113,141,115,65,40,-52,-46
592,119,20,-39,-14,-1,-35,0,4,180
357,312,62,-72,-141,-167,-209,-170,-127,99
51,433,-8,-144,-235,-254,-291,-228,-163,21
402,692,389,-39,-123,-138,-170,-89,-53,84
528,391,684,108,32,0,-55,-11,4,157
-852,-1096,322,70,74,55,0,0,-28,-62
-1456,-468,-7,-64,-7,-55,-100,-138,-214,-356
-654,68,-384,-23,109,95,98,52,2,-72
-94,-159,-548,98,225,234,255,208,151,71
-30,-32,-131,189,217,201,200,140,56,-24
-215,137,305,184,132,71,63,-26,-132,-245
-150,576,479,125,-13,-97,-118,-169,-270,-334
218,761,343,58,-105,-168,-203,-189,-244,-223
308,293,172,62,-101,-155,-232,-197,-195,-163
237,-500,90,103,-13,-65,-137,-121,-64,-19
493,-537,-175,-14,-12,-36,-51,-1,149,253
278,-435,-645,-200,-19,30,57,125,269,312
-203,-291,-665,-261,-68,10,31,92,209,175
-212,-29,20,-20,40,89,69,107,177,134
-49,292,375,76,69,81,81,92,123,83
-4,418,299,-26,-19,-23,40,29,67,50
-71,96,207,-115,-115,-111,-10,-39,5,-20
-176,-587,-323,-199,-106,-70,46,28,67,74
-223,-152,-456,-120,-52,-65,34,-11,26,50
-103,465,-244,-30,9,-6,26,-65,-9,45
170,761,284,31,75,120,83,-10,62,200
394,629,346,-105,-30,87,13,0,100,283
3,-126,136,-125,-57,11,-60,-17,31,37
-538,-491,-32,-43,7,32,0,28,7,-171
-352,-58,251,118,82,66,32,48,5,-114
7,-282,435,230,124,60,2,50,2,2
-129,-591,295,212,105,13,-59,-46,-125,-144
-460,-777,-86,127,76,-13,-69,-73,-158,-223
-266,-229,-381,98,115,62,10,18,-54,-115
102,356,-121,-23,20,-1,-24,-18,-40,-50
413,707,-249,-238,-148,-122,-107,-43,-10,37
295,302,-545,-317,-139,-72,-24,59,84,157
-38,-30,-185,-155,-53,-19,-12,20,-4,28
-263,-102,94,-15,-22,-13,-28,-18,-44,0
-228,-220,5,30,44,61,65,85,56,100
-21,86,47,58,10,-20,-19,24,12,39
177,441,223,110,29,-43,-67,-68,-92,-25
145,135,398,128,44,-2,-43,-59,-65,-3
4,70,342,29,-18,-24,-41,-43,-54,3
37,166,171,-57,-94,-111,-101,-85,-83,3
-126,-168,-42,-38,-54,-49,-69,-57,-56,-55
-306,-566,-328,-19,40,106,71,96,87,39
-434,-753,-606,-75,70,138,150,172,125,21
-484,-543,-317,27,99,123,110,81,0,-153
-239,-198,34,65,39,25,33,-24,-74,-190
-7,4,85,-15,-22,-50,4,-44,-42,-83
178,376,262,37,-33,-91,-73,-136,-116,-120
328,416,528,114,-8,-85,-95,-170,-157,-172
502,13,353,52,-14,-55,-59,-123,-80,-47
892,46,-55,3,32,29,74,78,184,327
929,-92,-476,-67,61,124,230,265,421,545
580,-51,-512,-187,-61,31,155,182,304,380
67,212,-83,-127,-95,-45,32,22,74,65
-86,411,54,-47,-35,-38,15,-16,0,-40
155,523,78,29,13,-30,-9,-9,54,61
520,577,226,48,-43,-134,-93,-60,44,151
413,212,60,22,-40,-143,-81,-74,-29,48
-84,-374,-199,4,5,-76,-22,-46,-57,-99
-579,-200,5,37,25,-14,-4,-60,-166,-327
-502,67,374,106,15,-24,-69,-143,-235,-332
-447,-142,144,79,39,14,-26,-81,-111,-128
-372,-3,-65,-7,70,67,47,70,11,-23
-21,199,32,-28,45,76,74,128,101,109
477,510,1,-131,-57,49,15,71,87,124
314,376,37,-86,-52,47,-28,0,-12,-22
-275,-70,-119,-40,-23,7,-50,-63,-163,-252
-683,-535,-61,3,9,-7,-41,-57,-188,-294
-205,-564,-196,-31,15,17,18,33,-53,-46
273,-621,-66,-50,19,43,105,163,109,186
40,-94,200,0,-22,12,20,31,-2,25
-223,714,249,13,-22,30,-88,-113,-111,-133
15,658,215,41,7,0,-80,-44,-17,14
464,239,-148,-92,-82,-69,-61,38,83,248
852,481,-395,-256,-200,-144,-102,14,94,339
680,164,-548,-267,-162,-90,-50,25,78,243
204,-293,-317,-115,-41,-8,1,45,75,141
-624,-372,428,109,44,-38,-92,-107,-126,-153
-854,275,948,199,17,-118,-206,-235,-304,-414
-259,318,775,131,-21,-105,-172,-184,-255,-320
-63,-680,-209,-44,-44,-44,-46,-48,-74,-117
-467,-920,-645,3,104,126,145,155,105,-35
-432,-438,-474,59,214,262,267,266,177,-26
57,-138,-233,24,214,305,329,350,279,140
448,-334,-144,57,202,270,294,325,244,153
176,-536,40,151,121,78,44,38,-70,-164
-267,37,-89,33,-37,-113,-146,-188,-280,-412
-95,686,-117,15,-24,-80,-85,-140,-178,-291
134,328,-191,-16,-9,-26,11,-43,-20,-56
-103,-181,-329,-134,-55,-36,2,-11,54,84
-444,-8,112,-47,-24,-41,-53,-55,20,47
-285,368,495,58,-2,-78,-90,-98,4,37
-71,468,591,203,50,-57,-76,-108,-12,16
-75,370,618,343,121,-21,-48,-122,-96,-101
-135,127,334,178,48,-46,-65,-110,-104,-81
107,-148,70,-89,-70,-73,-51,-19,11,119
310,-559,-7,-41,63,115,126,198,206,279
527,-152,93,14,149,215,200,264,232,315
269,-26,338,38,46,47,33,33,-7,113
-227,13,339,153,10,-95,-158,-196,-193,-112
-240,-161,-227,-13,-52,-94,-141,-155,-126,-70
202,187,-281,-116,-94,-86,-90,-107,-108,-86
592,312,-307,-122,-83,-64,-5,-39,-19,32
516,-55,-747,-229,-70,-14,105,85,138,180
-122,-66,-626,-214,8,86,193,154,164,147
-426,360,97,-25,71,90,151,92,66,-1
-90,-128,22,-19,64,76,158,161,152,98
-149,-1132,-225,-85,26,51,143,176,160,96
-502,-699,-76,-114,-97,-141,-57,-46,-64,-121
-681,21,-3,-30,-30,-74,-30,-98,-142,-234
-494,303,-49,95,141,179,141,19,-44,-166
-162,166,-126,94,157,259,118,13,-20,-116
268,346,-8,44,23,149,-24,-98,-92,-116
231,131,27,7,-61,20,-32,-96,-63,-111
-46,-239,-376,-138,-133,-67,-24,1,37,-73
-108,-146,-380,-195,-121,-47,13,102,169,114
-26,10,189,13,8,15,60,106,178,155
486,424,642,169,53,10,31,16,71,113
872,524,511,140,-33,-71,-72,-103,-28,74
549,318,178,41,-120,-172,-172,-193,-115,-13
-74,40,-316,-13,-39,-73,-51,-64,-17,9
-361,-27,-471,-82,51,92,84,110,129,83
-358,-311,-166,-58,30,84,43,88,73,48
-256,-324,-182,-80,-33,4,-29,2,-44,-91
-120,-124,-267,-93,-32,-2,-14,-12,-36,-117
195,-23,-180,-45,-15,7,3,5,-8,-15
702,154,-67,-94,-75,-46,-25,21,15,114
719,211,-36,-117,-100,-60,-35,42,61,182
542,798,205,-23,-93,-122,-143,-70,-27,140
353,1194,455,79,-28,-115,-181,-142,-132,73
340,609,321,4,-25,-64,-89,-20,-10,209
-171,-589,-35,-158,-96,-82,-53,23,53,183
-970,-1208,-17,-41,-12,-48,-20,-46,-125,-257
-947,-825,234,229,204,133,123,25,-152,-435
-225,387,556,299,158,65,39,-54,-213,-360
360,967,771,205,-21,-127,-146,-211,-286,-274
541,173,299,77,-82,-172,-193,-237,-267,-191
260,-701,-481,-21,-32,-98,-104,-112,-79,-2
-544,-1000,-555,0,33,8,30,13,71,27
-965,-617,-149,8,52,40,76,38,79,-104
-695,-156,-79,23,103,113,131,96,58,-173
48,-129,-154,29,98,119,119,127,102,33
535,-201,-311,-125,-25,16,29,94,124,203
754,19,-418,-297,-138,-80,-36,71,151,303
596,94,-441,-303,-107,-51,-2,122,220,339
145,135,6,-107,-46,-22,-9,85,148,243
-181,444,476,107,51,9,28,61,73,96
-278,273,344,148,128,91,135,100,72,29
-288,-98,60,53,67,44,133,66,52,-32
-107,150,0,-42,-35,-62,50,-19,1,-83
199,305,-41,-20,-30,-56,35,-25,0,-37
718,273,-28,32,53,108,84,53,91,96
762,93,107,53,62,131,72,125,194,196
275,84,-38,-6,15,49,53,117,170,86
-484,-319,-112,11,23,30,40,40,7,-148
-1080,-503,13,78,47,11,-21,-72,-121,-239
-882,-437,-11,41,59,49,6,-39,-28,-124
-471,0,417,57,11,12,-84,-118,-113,-175
-273,395,935,146,-17,-83,-194,-253,-295,-345
25,678,874,121,-74,-176,-250,-273,-276,-262
170,725,144,-103,-214,-240,-263,-241,-173,-50
9,269,-446,-195,-140,-70,-54,-50,-42,20
-285,-319,-304,81,132,183,155,111,97,45
-170,-583,-196,157,172,198,138,83,90,42
269,-523,-165,24,59,70,43,54,94,170
447,-378,-150,-27,-13,-8,-21,35,113,265
136,138,-203,-117,-118,-138,-151,-107,-63,77
113,614,-31,-166,-198,-256,-244,-224,-205,-26
139,375,64,-77,-137,-196,-158,-144,-130,-29
330,21,180,-24,-25,-51,8,32,58,118
611,159,674,142,119,131,134,116,122,149
262,273,936,323,170,171,64,-4,-47,-108
-339,-410,39,153,55,47,-39,-101,-146,-210
-315,-633,-839,-91,-44,-18,-13,-20,-27,-3
-8,-225,-816,-152,-23,60,119,160,184,212
101,-207,-506,-142,20,130,188,213,232,231
-234,-123,-125,5,111,171,238,182,165,67
-327,-289,7,88,138,164,217,128,51,-137
-132,-166,-101,4,22,38,114,17,-30,-140
287,193,-158,-91,-96,-107,34,-36,17,124
503,84,-227,-172,-146,-146,34,5,123,342
762,47,-15,-121,-120,-131,29,4,120,376
1062,167,252,23,-50,-93,-13,-27,70,325
757,342,443,54,-52,-55,-58,-100,-68,76
-168,154,351,6,-67,1,-107,-196,-243,-285
-592,136,374,183,105,112,-15,-107,-204,-375
-327,-121,183,287,244,201,105,46,-41,-201
-717,-195,-3,205,208,192,116,82,-11,-211
-1102,-473,-204,46,95,124,83,101,0,-248
-232,142,-218,-120,-73,-33,-13,14,-9,-140
807,918,-104,-171,-151,-122,-64,-17,54,71
1037,821,-106,-159,-112,-61,17,95,203,301
92,-46,-215,3,61,100,165,209,266,196
-733,-487,-76,137,124,110,134,133,116,-36
-1055,-621,287,104,1,-51,-51,-71,-149,-270
-735,-178,487,156,-42,-136,-210,-243,-306,-376
9,-209,72,97,-9,-17,-144,-126,-92,-56
379,-359,-326,-62,-8,79,24,94,146,245
99,-519,-372,-138,-22,68,89,136,126,164
-280,-191,-355,-64,-13,21,8,42,19,-30
-472,-48,-82,99,82,26,-17,-1,-70,-195
-456,-50,125,94,83,-2,-30,-22,-118,-170
-9,399,474,54,-39,-153,-166,-117,-123,19
649,601,259,-66,-142,-206,-218,-124,-77,160
789,360,-19,-110,-87,-92,-156,-108,-121,54
472,88,160,35,36,28,-72,-83,-102,-12
12,8,108,98,135,221,78,50,19,4
-529,-345,-125,89,175,245,169,166,110,-32
-595,-1181,-550,7,74,73,114,152,91,-74
-18,-638,-606,-57,-19,-44,-23,13,-16,-101
555,449,-146,-72,-42,-62,-50,11,15,71
612,427,-56,-131,-71,-53,20,125,162,297
151,-326,-30,-96,-18,11,77,154,204,286
-239,-528,63,-29,-2,7,26,25,42,81
-382,244,225,112,107,84,59,-27,-71,-194
-356,382,120,107,118,138,118,18,-48,-214
-439,-322,7,-43,-12,40,56,0,-66,-139
-59,26,298,-58,-94,-56,-33,-52,-67,-77
337,412,343,-42,-110,-112,-69,-60,-36,25
297,310,-4,-150,-182,-118,-136,-123,-82,-20
229,413,-263,-132,-159,-93,-139,-149,-125,-97
478,560,-407,-9,-23,-32,-1,-4,7,45
921,610,-195,6,-59,-107,-55,-41,38,171
1515,789,395,-8,-139,-180,-135,-98,33,271
1114,76,146,-155,-189,-135,-68,-17,104,277
-334,-828,-231,-179,-97,-70,15,13,22,-70
-1387,-746,-120,26,72,-40,0,-49,-123,-389
-959,-353,-291,-28,99,-19,62,47,16,-152
-282,-108,-278,-44,88,10,79,89,99,13
78,123,211,116,90,29,13,-9,-7,-46
38,508,939,309,98,6,-45,-110,-98,-120
-488,560,1139,375,110,-67,-81,-171,-168,-236
-829,-66,623,194,42,-125,-118,-206,-232,-303
-684,-731,-213,27,113,25,100,32,-12,-94
-105,-761,-870,-24,217,205,324,297,268,235
127,-298,-820,-31,174,167,253,263,259,289
-74,264,-157,38,49,27,3,16,-16,53
-194,182,60,54,42,118,-5,-11,-70,-26
-240,-269,-340,-23,105,227,136,175,103,87
-135,-489,-507,-98,26,74,69,159,122,148
250,158,-63,-90,-76,-84,-91,-14,-9,97
818,420,101,-90,-91,-99,-118,-50,-19,141
1434,293,14,-189,-141,-81,-69,36,133,383
1387,-272,-59,-274,-226,-158,-130,-33,83,378
419,-84,-23,-231,-210,-205,-221,-183,-126,1
-298,695,356,-2,-63,-123,-189,-210,-237,-295
-211,415,-141,-62,-6,20,0,23,-3,-60
-554,-756,-490,-61,80,160,205,259,222,32
-1065,-652,-89,115,132,113,119,83,-22,-363
-875,-77,124,204,214,160,103,45,-61,-331
-516,4,286,191,149,84,16,-47,-94,-197
-135,11,159,66,17,-23,-70,-111,-116,-66
487,308,-47,-40,-45,-61,-54,-52,33,202
555,703,116,9,-59,-92,-82,-75,22,137
44,622,264,80,-23,-75,-95,-102,-77,-67
-329,83,425,157,17,-56,-93,-112,-112,-88
-186,-397,-117,-12,-82,-110,-126,-110,-86,8
150,-576,-623,-173,-100,-41,17,41,104,208
192,-449,-493,-92,15,85,175,178,205,187
198,135,55,89,103,119,155,170,136,67
413,278,323,180,140,153,181,199,182,158
436,199,601,235,143,126,154,161,173,187
-181,343,611,131,-23,-62,-87,-75,-112,-169
-679,10,92,-80,-133,-123,-168,-156,-246,-389
-383,-372,-612,-291,-163,-78,-61,-7,-70,-105
-48,-70,-703,-265,-81,25,85,124,119,163
21,-143,-436,-103,36,157,165,158,127,120
59,-38,36,66,93,172,63,54,14,-17
211,373,251,103,48,50,-53,-62,-73,-71
-69,99,133,103,44,30,-30,-43,-65,-78
-462,-228,463,145,51,39,-18,-16,-60,-103
-259,317,1314,253,50,-2,-48,-20,-84,-81
14,515,1395,275,71,14,8,37,2,70
-49,-280,508,56,-54,-72,-64,-57,-65,26
102,-681,-679,-153,-111,-118,-96,-102,-142,-33
946,513,-695,-195,-163,-166,-173,-139,-154,115
1854,1283,-207,-133,-246,-281,-303,-246,-178,265
1930,541,-318,-164,-236,-248,-231,-153,-55,353
682,-499,-650,-130,-79,-49,-21,28,28,132
-1380,-1320,-590,60,170,214,190,188,29,-292
-2132,-740,-327,33,141,190,164,159,-8,-387
-1495,-273,-173,21,139,202,182,191,78,-128
-755,-71,-58,1,98,155,168,181,127,69
-421,-41,-26,37,99,140,126,114,82,67
-327,-243,-121,37,77,114,100,91,71,53
-303,-449,-268,-44,24,102,84,112,113,79
-103,-316,-143,-12,3,56,42,87,88,72
412,-28,40,52,-34,-68,-52,-25,-4,20
692,499,259,140,-44,-146,-137,-115,-100,-97
486,722,266,207,-5,-134,-101,-99,-74,-92
-227,392,499,223,68,-35,11,-6,14,-48
-521,-116,606,115,43,32,16,-19,-26,-76
-285,-551,-121,-158,-40,180,28,2,31,45
7,-455,-448,-221,-62,217,19,16,91,127
-44,-101,-316,-161,-78,37,-24,-18,44,32
-99,101,159,-15,-43,-41,-16,-38,40,-11
351,651,615,137,23,-23,-34,-79,-7,3
840,645,396,60,29,18,7,11,90,144
809,321,-142,-184,-94,-62,-45,-11,87,165
388,-91,-390,-263,-175,-166,-132,-96,17,123
-11,573,216,-105,-186,-303,-285,-279,-218,-131
-9,991,557,54,-115,-292,-314,-345,-353,-302
351,518,287,99,16,-96,-152,-142,-147,-114
426,-462,-240,49,70,40,0,67,68,120
208,-630,-574,-46,30,76,42,95,110,142
138,-414,-594,-135,43,223,142,135,136,123
15,-545,-411,-127,84,290,207,172,92,32
513,-209,-121,-73,4,79,81,124,112,211
569,-40,50,-29,-33,-45,50,81,118,229
-71,-246,-3,30,21,-46,88,83,92,74
-1060,-614,36,133,92,-24,77,62,-2,-123
-1190,-258,127,67,10,-120,-79,-79,-184,-282
-678,424,201,-53,-149,-264,-253,-266,-336,-351
-115,772,399,6,-156,-265,-307,-329,-337,-258
114,715,545,111,-18,-99,-167,-177,-173,-62
118,399,388,173,154,146,83,123,121,146
-271,-593,18,154,180,173,163,196,138,11
-687,-975,-165,71,87,53,72,57,-41,-231
-584,-164,300,218,133,53,58,25,-87,-227
-297,-36,617,310,172,78,77,24,-68,-136
-78,-214,237,158,66,22,28,26,-12,18
101,-212,-461,-104,-18,15,46,106,116,215
117,-415,-740,-209,-84,-23,17,88,105,204
-88,-440,-832,-189,-55,-10,42,77,59,88
-194,-116,-681,-162,-29,15,75,89,35,-19
288,383,-209,-125,-34,-22,26,54,43,15
1115,829,190,-151,-122,-137,-86,-34,25,143
1498,731,339,-81,-91,-83,-53,-12,57,264
1089,231,24,-42,-56,0,-12,31,125,337
133,81,-172,85,55,89,76,81,106,161
-853,-433,-222,149,145,193,181,147,127,-32
-902,-632,-233,135,98,147,119,65,31,-151
223,149,27,13,-52,-57,-70,-108,-97,-58
999,825,529,27,-107,-154,-158,-178,-92,44
599,723,789,120,1,-53,-44,-70,-4,20
-343,314,776,148,39,-1,13,-55,-55,-145
-789,248,214,45,-44,-68,-24,-133,-140,-250
-492,-217,-717,-177,-45,2,129,73,115,70
-209,-338,-804,-226,-26,50,178,176,242,280
-168,-90,-290,-73,-65,-68,3,14,56,98
110,-19,-159,-44,-74,-83,-45,10,23,81
446,-77,-318,-91,-73,-26,24,126,145,268
262,156,113,56,9,32,48,76,67,169
-677,225,825,218,61,-12,-45,-127,-214,-325
-738,344,709,172,-21,-146,-178,-252,-357,-507
-141,-517,-103,5,-40,-106,-93,-118,-177,-232
200,-963,-592,-102,-19,-2,25,36,3,19
45,-820,-570,-47,70,135,115,98,44,-4
-370,-404,-341,-10,120,186,127,97,62,-74
-653,140,-100,-33,59,103,82,77,25,-135
-465,-139,-198,-93,8,52,78,91,42,-33
-345,-293,-44,-4,30,44,74,56,-7,-38
-133,41,155,43,-2,-31,-24,-46,-93,-134
76,198,285,-4,-41,-73,-23,-21,-7,-40
-37,247,476,61,26,11,41,28,14,-64
-311,57,819,291,172,94,43,-10,-86,-201
-102,51,628,183,81,0,-39,-79,-109,-173
285,522,463,43,-69,-129,-156,-167,-164,-179
395,214,46,-4,-135,-204,-221,-222,-186,-186
405,121,-262,4,-86,-138,-156,-166,-115,-97
419,137,-204,59,44,23,0,-16,61,109
552,-102,-460,-80,51,121,123,133,272,350
1089,-26,-701,-292,-64,86,99,159,294,439
1036,481,-500,-305,-138,-25,-17,4,139,267
538,450,-280,-164,-92,-52,-42,-78,65,139
-78,-91,-174,-39,10,38,22,7,117,92
-353,-498,-173,-40,13,47,44,61,158,124
-601,-268,91,38,30,20,-10,-9,40,-47
-597,-244,62,17,-4,-53,-47,-51,-30,-124
-289,-164,-103,-70,-54,-87,-9,13,75,45
-289,-335,-124,-20,32,35,118,146,167,128
-311,-157,71,24,79,97,194,194,146,67
-124,180,400,96,73,33,97,57,-1,-62
-17,340,639,191,-8,-152,-155,-216,-275,-274
74,161,359,188,-28,-111,-201,-252,-311,-276
222,99,22,73,35,89,21,23,-42,-34
386,238,179,48,47,67,48,151,42,188
439,-160,-113,-65,18,46,25,206,73,295
-72,-741,-356,-47,18,31,10,101,64,14
-149,-114,-434,-27,10,-4,-30,5,-89,-168
269,392,-244,-58,-15,-9,-5,35,15,49
286,410,55,-65,-82,-66,-54,12,96,182
117,70,91,-59,-90,-81,-66,-41,26,64
-149,60,226,50,27,26,-4,-30,-22,-155
-226,641,394,78,-21,-59,-103,-140,-141,-279
-245,603,315,43,-79,-131,-159,-230,-227,-319
-252,20,233,54,-63,-121,-127,-221,-211,-255
28,-336,77,103,62,54,75,5,41,37
393,-118,-209,106,164,217,268,212,297,299
666,304,118,24,30,76,153,112,264,396
398,113,172,-85,-88,-60,-20,-17,111,249
-106,8,-45,-92,-68,-65,-69,-51,48,109
-698,67,165,107,29,-13,-61,-68,-40,-102
-796,-212,18,102,44,15,-63,-74,-98,-173
-604,-401,-405,-50,-28,-18,-54,-44,-63,-120
-377,-262,-484,-125,-70,-51,-25,18,6,26
-92,-164,-316,-69,6,18,33,97,93,146
126,-290,-182,-1,33,-19,-9,35,27,87
237,-306,-109,-17,17,-25,6,37,0,42
180,-196,176,44,51,49,68,89,41,30
69,-17,195,45,53,123,64,41,4,-14
287,14,-228,-160,-41,156,38,38,50,79
440,52,-418,-329,-156,22,6,80,124,217
345,228,-158,-172,-109,-45,-5,22,33,144
0,105,109,63,60,27,49,19,-47,-53
14,-59,436,226,148,19,3,-75,-142,-168
89,-365,215,239,157,34,50,-36,-92,-127
-197,-561,-131,119,84,0,73,-2,-51,-166
-182,145,-15,12,-59,-162,-135,-184,-180,-259
-34,58,-95,-43,-35,-35,-54,-94,-75,-84
-93,-190,-360,-135,55,218,149,136,129,114
36,-225,-435,-138,90,230,199,203,174,123
247,193,-192,-83,38,59,79,76,40,1
-28,133,0,-68,-27,-2,-26,-62,-130,-159
-415,-53,-57,-80,-34,-12,-13,-86,-127,-151
-421,-115,-183,-38,31,136,92,14,22,-23
-251,26,-170,-11,57,242,161,88,133,80
-221,167,100,120,112,204,160,56,49,-21
-269,-204,168,159,92,145,94,-5,-49,-160
-203,-185,131,69,-22,52,31,-67,-100,-196
-169,83,88,-28,-98,13,10,-67,-66,-101
-75,97,112,22,-13,80,92,57,103,71
296,46,73,-14,-23,13,89,134,220,316
497,-86,-68,-97,-96,-80,-2,64,188,369
-22,-215,-52,-55,-83,-146,-84,-65,1,76
-372,-6,311,103,8,-139,-105,-143,-112,-177
-19,362,415,138,64,-62,-60,-111,-80,-124
426,597,128,24,21,-61,-43,-75,-13,27
691,484,-157,-33,14,-64,-9,7,84,232
529,78,-108,-9,-19,-105,-28,27,112,285
358,298,41,10,-72,-180,-53,-24,25,147
301,485,146,48,-44,-162,-2,14,4,96
-347,-70,188,72,20,-6,39,7,-71,-144
-660,-277,221,119,64,68,47,-31,-132,-278
-572,-639,83,83,75,119,52,-27,-122,-224
-264,-179,-46,-49,-47,-8,-54,-62,-91,-127
2,172,-317,-147,-123,-123,-92,-23,-11,1
333,391,-162,-92,-72,-108,-44,25,42,85
646,264,60,-9,28,-37,12,96,111,142
499,147,245,99,142,-4,24,68,46,9
44,-174,205,180,190,-11,9,24,-34,-118
-563,-375,123,162,155,-37,4,-21,-94,-192
-777,-290,59,105,92,-85,-52,-92,-166,-191
-708,-403,-216,5,34,-115,-76,-78,-136,-134
-399,-309,-221,-10,31,-12,-26,-13,-47,-46
-198,-147,-190,-26,47,226,31,-15,-42,-36
-90,90,43,-73,-4,408,33,-68,-69,-60
-10,193,181,-98,-104,283,14,-15,3,50
27,119,100,-90,-77,86,-37,14,51,134
-36,61,193,-14,-68,-28,-85,-28,36,80
77,214,647,84,-108,-59,-85,-17,54,52
265,339,692,42,-172,-135,-141,-77,0,30
384,88,350,-70,-240,-234,-209,-186,-102,-39
514,-76,-384,-147,-192,-221,-160,-121,-40,-3
795,212,-719,-136,-91,-133,-32,63,153,236
767,309,-366,-39,-30,-120,-44,24,123,237
536,307,-266,-70,-53,-128,-95,-54,29,160
272,256,-84,-28,-14,-65,-61,-12,67,162
-220,-200,215,38,24,-20,-40,19,95,106
-702,-303,312,130,113,81,32,54,65,-91
-624,-459,52,72,137,138,89,66,67,-99
-315,-236,74,-2,82,120,20,-20,-23,-100
-164,62,235,12,107,202,8,-91,-135,-226
-39,288,378,37,119,190,23,-97,-144,-271
163,304,234,-10,-5,-68,-11,-52,-71,-127
201,195,-30,-36,-75,-255,-86,-43,-55,-55
199,120,-28,16,-54,-243,-90,-37,-52,-96
575,597,329,113,14,-28,11,20,20,27
685,460,543,137,51,21,49,67,71,149
277,-268,332,25,10,-41,11,68,78,123
-305,-712,-417,-16,52,-4,20,71,15,-13
-596,-393,-664,-61,78,73,76,89,5,-50
-462,-298,-645,-108,67,146,154,159,96,40
-418,-347,-489,-74,55,134,162,177,114,60
-251,-368,-371,-81,7,50,96,139,97,135
-219,-377,-304,-144,-55,1,49,93,60,93
-116,59,-126,-173,-123,11,-3,19,-12,5
-241,115,214,74,29,120,33,-1,-76,-190
-465,-67,164,138,154,222,74,25,-89,-302
-507,-347,-3,41,137,239,62,12,-91,-241
-304,-178,-113,-6,129,299,123,45,-57,-147
-131,147,-154,-50,88,370,187,83,-12,-62
30,128,-173,-120,36,297,158,75,55,71
118,56,-122,-139,-25,-44,-2,29,68,110
310,375,82,-20,-74,-374,-174,-82,-19,40
470,518,224,65,-93,-418,-298,-184,-163,11
532,295,46,-16,-211,-425,-390,-183,-239,105
429,41,-11,-39,-211,-345,-275,-98,27,211
125,-386,56,11,-113,-226,-156,-46,62,121
-96,-400,12,-11,-21,-51,38,89,129,34
-190,-339,-33,14,43,49,113,127,143,-10
-152,99,153,131,58,26,44,22,39,-127
-77,207,134,155,42,-12,11,-12,27,-100
-229,-233,-162,65,17,-20,68,40,78,-64
-295,-56,-19,-20,-62,-102,32,0,14,-81
110,492,478,47,-75,-182,-78,-141,-108,-112
608,698,343,-10,-115,-227,-129,-170,-93,-24
838,564,-170,-114,-139,-215,-134,-132,-9,127
594,293,-477,-97,-57,-81,-75,-63,1,131
83,-31,-272,-37,36,128,-11,-53,-42,0
-316,-488,103,27,115,283,65,0,-3,-25
-273,-911,111,62,146,231,173,139,114,61
228,-636,13,-9,38,35,104,121,120,171
375,-485,-202,-89,6,46,123,168,179,261
-227,-97,-98,-49,41,129,124,124,80,90
-469,-81,53,48,73,96,22,1,-77,-66
-173,117,198,47,-2,-6,-85,-101,-155,-69
55,666,552,107,-35,-62,-112,-122,-162,-41
168,751,440,78,-79,-137,-151,-147,-167,-19
338,433,0,-39,-124,-149,-143,-135,-137,15
382,538,134,22,-89,-95,-92,-103,-143,-90
303,255,432,110,-41,-74,-57,-54,-86,-41
20,9,655,129,3,-45,-30,-31,-47,-34
-516,-215,585,-32,-23,78,14,-23,-80,-145
-903,-90,341,-141,-46,166,32,-53,-139,-276
-1023,-229,-96,-17,109,250,174,25,-122,-358
-771,-325,-263,94,186,238,206,85,-23,-245
-181,-409,-705,-32,95,119,142,123,139,75
465,-247,-1105,-245,-7,49,123,206,269,327
888,-13,-592,-169,-25,10,85,187,238,358
766,-216,-259,-62,-27,-21,44,108,127,165
302,-67,-1,-24,-41,-114,-55,-22,4,-14
-228,284,311,103,13,-129,-95,-95,-63,-115
-487,71,293,226,139,7,-40,-46,-50,-138
-340,-261,-7,232,172,55,-17,-26,-45,-112
144,-308,-52,48,9,-67,-103,-66,-2,49
375,-47,-2,-111,-81,-94,-101,-3,74,151
203,158,-61,-72,-38,-29,-19,63,113,125
-201,171,28,-32,-30,-30,10,22,31,-55
-276,-40,-316,-150,-84,-47,29,2,46,-39
-103,-346,-762,-173,-18,44,128,110,240,199
113,-124,-526,-131,-10,35,80,95,264,250
331,3,-253,-95,-34,26,4,40,162,169
532,-90,107,-46,-34,34,-29,-9,60,116
357,-231,419,85,25,23,-18,-7,6,30
435,183,500,193,73,-16,-14,-37,-36,-20
732,395,243,135,31,-67,-41,-53,7,93
409,245,-45,61,-23,-114,-86,-61,11,95
-408,-244,-113,40,51,45,3,-10,-29,-121
-892,-108,281,113,123,180,66,-9,-108,-298
-895,-291,329,132,93,119,94,34,-63,-236
-532,-125,137,20,17,45,26,-31,-91,-192
-170,225,-146,-71,13,67,57,-8,-30,-38
134,65,-228,-99,-4,59,70,25,48,152
340,-111,26,-66,-75,-65,-37,-46,17,185
501,-23,-38,-101,-132,-152,-126,-76,-3,180
702,404,-139,-107,-107,-129,-96,-14,31,146
540,729,46,-11,-83,-143,-171,-116,-103,-73
259,1003,205,49,-47,-129,-151,-159,-157,-144
-284,-94,119,87,85,43,76,49,-7,-66
-795,-941,-90,22,73,79,125,106,20,-82
-833,-601,-204,-16,78,114,134,141,48,-123
-669,-444,-152,1,76,125,126,103,22,-155
-171,115,258,96,25,35,32,-19,-54,-129
187,248,585,145,-9,-41,-20,-39,-39,-46
247,42,316,22,-87,-106,-71,-28,9,41
-7,22,182,-15,-66,-108,-59,-25,-24,-26
-202,-19,55,-31,-3,-81,-53,-52,-69,-92
-143,-257,-220,-64,47,-15,46,65,80,76
-141,-463,-325,-21,66,8,52,88,106,97
0,-325,-228,-28,36,-12,61,52,84,103
227,300,2,-21,-21,-84,-4,-44,15,51
238,833,287,52,-49,-83,-80,-134,-103,-91
81,767,550,31,-53,12,-32,-107,-109,-139
-89,237,665,-29,-68,78,-17,-98,-131,-179
59,-8,234,-46,-12,56,0,-46,-62,-81
331,123,-180,-62,19,40,36,28,29,51
303,-187,-497,-89,-13,14,20,50,82,140
270,-353,-772,-102,-3,38,59,157,205,298
56,-411,-574,-60,1,6,36,124,159,241
70,-190,-261,11,-28,-102,-94,-60,-44,31
693,-69,-271,-30,-104,-208,-185,-124,-81,49
1049,460,-299,-30,-132,-222,-208,-137,-104,63
775,525,-209,43,28,39,-7,8,-5,77
-53,-262,-118,-5,116,255,157,144,96,49
-624,-816,-148,14,158,291,231,186,97,-72
-752,-470,61,55,76,135,94,47,-48,-150
-571,502,543,51,-24,-10,-49,-83,-146,-138
-152,848,861,108,-30,-73,-111,-135,-142,-42
68,313,461,77,-37,-93,-135,-113,-102,19
115,17,-63,0,-23,-82,-64,1,12,104
223,0,-220,-13,14,8,28,85,123,220
-128,-442,-482,-21,91,140,128,156,152,184
-497,-616,-445,-29,88,183,160,174,127,52
-354,-252,-268,-57,16,100,82,93,29,-50
-196,118,71,2,-30,-1,-53,-46,-115,-114
-346,43,370,106,11,-2,-67,-85,-179,-216
-226,-48,274,104,16,-20,-26,-54,-148,-205
19,-353,30,11,-11,-37,35,57,6,9
24,-400,33,-12,-29,-55,13,72,80,81
-220,-99,158,22,-6,-66,-32,34,37,-29
99,483,214,36,-6,-54,-68,3,9,-15
580,377,59,61,37,39,-32,27,67,135
538,-236,-230,-4,-2,1,-43,25,92,175
-47,-523,-341,-70,-67,-67,-83,-26,-21,-63
-255,66,-242,-86,-28,-18,3,13,-41,-196
40,-27,-308,-169,-33,21,58,73,34,-50
287,183,-310,-191,-57,30,26,46,20,-1
305,506,-45,-119,-101,6,-40,-34,-49,-73
511,655,174,-138,-158,-68,-69,-78,-41,-29
380,596,284,-151,-159,-77,-57,-51,12,7
-224,-32,304,-37,-56,-11,-27,-16,-10,-32
-855,-457,221,180,123,111,27,-1,-94,-168
-879,-651,-6,239,210,176,123,76,-31,-109
-466,-231,192,155,116,58,74,55,-14,-27
-84,116,450,158,59,-35,4,17,-30,-7
60,261,365,113,0,-47,-60,-42,-92,-50
84,209,-149,-38,-53,51,-33,-1,-62,-3
209,35,-642,-129,-39,83,72,136,84,162
303,-303,-781,-177,-40,50,137,201,155,276
282,-147,-411,-167,-73,-17,47,111,84,225
-130,33,-96,-107,-118,-141,-160,-114,-131,-26
-338,-113,103,13,-54,-99,-140,-103,-147,-100
-74,-264,196,102,59,5,-10,-2,-45,-31
-17,-295,121,85,58,27,37,5,-38,2
-104,-156,0,0,10,27,35,26,-10,19
-79,143,157,61,31,24,-6,-33,-79,-71
303,261,23,4,-42,-49,-89,-117,-132,-54
597,107,-175,-56,-41,-2,-41,-43,-53,52
357,136,-131,18,83,118,84,69,18,52
-174,220,86,97,168,176,140,106,16,-54
-386,116,123,88,117,93,49,45,0,-58
-280,-47,-84,-56,-35,-81,-75,-49,-29,5
288,285,-181,-199,-161,-222,-182,-90,-42,102
899,373,-81,-108,-92,-178,-171,-80,-15,175
688,-353,-31,7,72,65,48,69,83,150
309,-209,224,-13,64,94,99,106,128,54
759,327,478,-2,13,3,42,83,150,132
703,344,413,-59,-98,-124,-70,0,83,118
-236,87,445,31,-137,-248,-212,-193,-162,-194
-1027,-192,180,193,42,-122,-98,-166,-196,-339
-1015,-493,-299,144,167,111,106,7,-37,-212
-707,-428,-344,100,162,205,93,23,-20,-125
-287,-17,-107,96,70,71,-28,-63,-44,-41
161,141,32,48,-42,-37,-98,-113,-31,86
534,499,34,-85,-133,13,-91,-86,38,215
329,-124,89,-51,-31,136,50,71,148,193
-573,-876,350,119,136,182,151,130,76,-143
-1008,-557,371,197,204,208,164,120,21,-289
-804,51,88,124,102,82,30,-14,-68,-289
-510,108,-209,-9,46,36,-6,-35,-81,-201
-292,54,-118,40,75,63,-4,-65,-126,-214
189,583,109,96,69,-21,-62,-95,-145,-143
372,688,23,-1,-25,-139,-105,-92,-103,-61
223,-8,-73,-63,-41,-83,-43,-12,18,32
374,-391,-359,-150,-29,49,69,153,206,259
585,-80,-423,-165,-58,29,76,186,257,389
358,369,-62,-38,-64,-15,45,116,214,291
-389,-12,546,102,-11,-5,13,17,68,-14
-634,-376,460,28,-113,-135,-138,-154,-152,-215
-440,-202,-147,-114,-176,-170,-170,-175,-171,-196
11,33,-632,-260,-131,-55,-8,3,18,55
407,109,-413,-174,-69,-17,34,13,66,169
604,264,2,-23,-84,-110,-100,-177,-84,62
783,236,262,45,-93,-159,-157,-234,-151,28
336,-785,-100,16,58,73,111,31,60,111
-355,-679,-475,-76,94,194,245,159,163,48
-283,345,-262,-101,28,107,106,46,79,33
287,503,-127,-82,-12,53,28,5,84,179
778,563,-109,-84,-24,42,32,15,95,286
806,226,-240,-106,-9,90,147,146,246,406
13,-384,-245,-28,25,115,178,173,172,133
-666,-415,59,79,44,107,93,18,-38,-198
-782,-1,321,107,36,27,23,-45,-106,-263
-360,130,331,114,24,-24,4,0,-15,-80
108,-489,-176,-35,-4,-20,26,93,86,122
375,-696,-456,-76,37,48,94,152,129,162
280,-199,-220,69,121,97,106,126,74,82
50,402,166,103,79,22,22,30,-13,23
-52,524,275,66,5,-45,-27,0,4,93
-72,126,249,39,-42,-88,-86,-57,-30,80
-336,-305,215,37,-60,-108,-121,-135,-139,-84
-206,-207,76,-30,-84,-114,-117,-115,-126,-43
-22,425,49,-96,-123,-137,-101,-89,-94,13
60,218,-60,-121,-108,-98,-41,-36,-21,91
50,130,-44,-62,-66,-67,-32,-60,-54,48
658,580,-127,-113,-96,-83,-73,-65,-26,181
949,645,-111,-122,-117,-105,-112,-59,18,261
80,-79,-1,-14,-11,-4,-50,-44,-60,-28
-790,-713,183,166,118,96,36,-10,-93,-295
-553,-595,339,270,172,152,88,40,-41,-201
-644,-715,86,178,145,111,126,77,11,-135
-959,-9,-2,85,68,-1,54,-26,-104,-294
-529,525,199,117,64,-41,11,-31,-98,-208
-201,392,217,85,71,14,11,-17,-34,-95
-241,3,109,28,33,60,-29,-68,-53,-115
-30,-167,75,16,37,96,-7,-52,-25,-48
291,-362,41,32,69,161,71,30,84,94
279,-396,-67,35,61,98,115,90,144,121
-83,137,-79,16,30,29,105,59,83,6
-259,80,-18,0,-6,-7,47,-9,25,-64
394,342,27,-71,-111,-65,-98,-135,-43,22
1338,933,76,-101,-167,-112,-163,-174,-6,189
1565,765,-50,-150,-174,-130,-131,-101,97,308
1073,590,-139,-240,-196,-141,-116,-75,112,241
888,606,33,-157,-118,-52,-61,-34,113,193
1174,254,-127,-170,-100,-25,-18,36,191,367
331,-750,-271,-146,-49,13,44,97,209,268
-1516,-1364,-154,14,89,96,80,55,5,-286
-1977,-585,76,133,158,94,62,-19,-146,-543
-1442,-255,76,141,143,81,63,-2,-107,-390
-550,2,15,57,44,8,-2,-19,-73,-134
587,372,-20,-83,-102,-130,-126,-85,-47,165
925,64,-74,-72,-86,-115,-115,-57,-3,249
-401,-714,-12,53,62,33,9,9,-65,-150
-933,-225,192,173,180,144,95,53,-91,-369
-180,106,121,102,135,134,109,110,8,-86
180,334,145,43,32,22,26,52,14,55
-187,566,155,-25,-100,-125,-124,-106,-114,-88
287,1152,211,-93,-218,-271,-287,-262,-218,-73
919,727,115,-122,-225,-294,-307,-266,-170,112
648,-106,-120,-146,-153,-185,-149,-132,-57,119
79,-306,-170,-96,-42,-25,42,16,22,8
473,209,48,-1,-10,-9,46,0,12,-22
549,-6,97,43,-5,-23,10,-13,-4,13
-162,-353,63,49,34,28,29,19,-5,-59
-349,-152,32,58,96,99,109,99,67,-55
-253,73,66,71,75,70,93,53,22,-114
-522,-444,90,126,102,70,78,51,6,-131
-614,-485,72,144,102,59,51,29,-7,-124
-562,-216,-127,84,118,124,120,117,78,-80
-137,104,-120,28,81,116,116,144,102,-28
425,336,121,66,54,75,92,119,114,49
691,672,369,122,55,68,131,134,130,88
118,311,321,103,13,38,120,96,24,-79
-906,-404,220,97,22,29,73,-16,-171,-437
-948,-199,334,74,-49,-77,-76,-152,-259,-468
-390,-55,303,29,-98,-123,-115,-125,-151,-212
75,287,-15,-50,-99,-71,-46,-50,-72,-72
564,641,3,43,24,62,36,-13,-37,22
501,-226,-112,137,134,148,61,-5,-39,56
18,-640,-40,167,89,69,-49,-78,-59,27
-855,-488,149,154,5,-57,-146,-178,-182,-211
-899,-61,104,134,40,-31,-81,-79,-106,-220
-138,-502,-351,-49,22,1,19,88,91,88
312,-761,-680,-205,30,85,139,231,272,370
141,-633,-534,-146,83,165,229,307,322,374
-252,90,-187,-90,15,40,76,122,109,115
-343,263,-20,-43,-14,-10,-8,0,-25,12
-211,-250,-266,-76,21,50,112,85,61,109
-242,-594,-457,-143,-2,50,135,115,112,164
-51,75,-222,-99,-42,-21,-16,19,50,197
712,614,-58,-97,-101,-75,-90,-7,92,379
1103,597,-34,-80,-69,-29,-30,58,159,412
466,87,-48,-42,-45,-20,-31,0,38,102
-494,-63,-4,-21,-27,-37,-59,-63,-100,-218
-575,222,136,53,54,46,12,-11,-71,-202
-367,-203,-36,30,71,74,68,61,12,-13
-216,-415,-164,-6,37,45,78,73,54,44
343,375,10,-61,-94,-99,-75,-87,-65,16
1105,1101,53,-158,-252,-265,-239,-226,-131,107
1078,882,19,-143,-226,-252,-232,-199,-84,129
232,-265,-209,-120,-94,-69,-11,33,103,147
-272,-528,-223,-48,1,30,98,121,157,74
-102,-162,113,103,56,24,21,-2,33,-20
294,-7,267,110,18,-27,-40,-82,-24,12
144,-188,296,108,22,-35,13,-32,42,68
-544,-92,422,181,109,8,103,30,25,-119
-640,267,389,171,61,-103,18,-80,-101,-216
-424,44,54,140,47,-130,0,-50,-65,-90
-355,-157,33,179,156,-30,101,63,-14,-105
-399,65,108,163,158,22,121,53,-52,-174
-339,268,145,135,130,199,72,-31,-107,-189
-279,-143,-94,18,90,338,43,-43,-74,-109
-60,-370,-325,-31,34,181,35,29,20,35
160,-334,-273,-32,1,43,41,75,70,114
188,-177,-161,-32,-18,-30,41,93,73,92
89,-54,-75,-5,-58,-95,-13,36,-9,-41
97,178,11,21,-90,-88,-70,-46,-102,-122
126,139,-20,-3,-84,4,-43,-49,-124,-119
191,58,-145,-60,-70,96,6,-8,-78,-49
839,617,-27,-124,-142,-61,-112,-52,-35,165
1775,978,2,-192,-275,-242,-235,-102,22,477
1517,252,-149,-180,-243,-192,-156,-65,19,331
-38,-653,-56,-15,-34,-22,16,-8,-57,-157
-871,-313,501,149,75,27,15,-66,-151,-369
-386,571,970,153,-49,-142,-191,-252,-226,-209
-35,677,844,19,-168,-245,-269,-298,-220,-68
4,588,422,-117,-215,-238,-222,-263,-197,-68
-287,78,123,-37,-51,-40,0,-77,-40,-70
-229,-493,-319,28,132,203,250,220,265,149
-287,-1181,-897,-34,192,316,375,382,438,315
-475,-684,-976,-115,134,241,306,291,312,130
-145,-257,-452,19,122,135,170,135,153,5
31,-113,13,143,121,66,72,18,59,-35
-116,243,381,241,165,76,66,-5,-5,-134
-223,303,438,275,205,134,135,65,19,-123
2,-273,31,106,135,141,196,143,120,32
179,-975,-640,-137,30,111,204,198,233,180
1,-484,-635,-241,-62,5,78,68,110,65
-289,94,-143,-123,-24,-12,-5,-27,-13,-58
-396,-183,66,-4,34,6,-37,-28,-39,-109
-210,-262,44,-16,10,-27,-88,-37,-23,-19
75,-51,43,-69,-53,-79,-129,-54,5,102
134,284,127,-70,-92,-109,-160,-83,-17,102
-138,415,81,-49,-19,-13,-63,-35,-30,7
-405,197,-63,-88,9,45,-21,-41,-87,-92
-91,206,-93,-127,-52,-10,-99,-121,-162,-78
239,62,30,13,11,23,-80,-112,-111,8
523,170,93,-9,-9,6,-74,-97,-73,54
214,27,32,-78,-54,-19,-88,-107,-109,-67
-286,-163,-103,-31,39,70,47,25,-4,-84
-452,-335,-15,50,119,103,158,160,120,-29
-151,2,251,67,41,-52,25,74,58,17
162,388,306,21,-54,-156,-64,-3,13,54
178,53,-4,-71,-71,-103,7,46,72,110
-9,-129,86,35,12,-17,10,3,1,10
162,184,404,125,18,-80,-101,-137,-116,-27
372,481,351,32,-67,-162,-172,-173,-124,16
113,500,284,-8,-113,-201,-236,-216,-208,-162
-193,106,-11,-40,-86,-108,-144,-91,-136,-184
-275,-506,-310,22,91,136,125,169,104,-36
231,-259,-247,-26,18,78,93,150,133,108
472,78,14,-123,-113,-66,0,54,108,149
137,416,438,8,-20,9,42,74,83,4
-349,36,681,94,16,-24,-22,-13,-32,-155
-604,-691,250,138,85,9,-6,-55,-104,-193
-331,-819,-547,23,116,133,118,73,84,79
-58,-95,-905,-209,-32,67,90,98,151,176
-79,-32,-490,-119,-16,39,66,65,98,27
286,-336,-308,-4,69,82,125,140,185,135
537,-455,-138,63,139,144,188,207,250,256
375,-294,44,144,176,149,153,143,161,161
-10,-5,-89,108,103,64,27,18,27,-37
-233,324,-148,-11,-32,-80,-97,-114,-104,-166
-115,778,34,-90,-111,-152,-140,-144,-145,-186
336,1225,436,-66,-109,-137,-129,-120,-100,-95
607,1309,481,-51,-118,-147,-138,-121,-106,-38
560,916,302,-60,-112,-169,-189,-144,-119,7
223,166,380,-51,-142,-224,-284,-214,-175,26
-171,-469,265,-28,-120,-184,-220,-154,-174,-24
-58,-584,-170,-57,-25,-49,-26,44,-16,48
577,-470,-638,-195,-45,-50,44,129,95,252
988,-231,-769,-251,-90,-92,55,154,179,417
290,-235,-523,-146,-65,-129,13,71,56,172
-537,131,-123,87,51,-60,1,-60,-159,-219
-884,11,27,230,218,188,134,15,-135,-325
-767,-88,96,212,242,266,187,116,-13,-218
-503,-287,71,194,211,199,196,185,114,-45
-513,-735,-96,143,184,238,202,225,177,73
-479,-825,-215,51,162,268,187,219,143,35
-157,-128,174,59,93,171,37,42,-24,-92
163,474,280,26,-60,-40,-152,-111,-90,-79
201,242,-271,-193,-194,-150,-135,-36,16,44
-158,-474,-445,-179,-70,9,68,140,139,91
-466,-584,-88,93,170,218,165,141,116,68
-244,-225,117,105,121,213,53,0,21,53
98,-93,75,-19,-38,19,-64,-106,-55,47
70,-43,103,56,18,-48,-42,-105,-113,-98
33,458,478,180,89,-28,-40,-136,-196,-259
48,742,624,213,95,-9,-22,-96,-129,-194
208,613,431,106,-21,-82,-93,-102,-58,-61
577,641,303,-2,-134,-151,-202,-192,-66,55
704,109,177,-44,-98,-37,-101,-130,24,152
365,-620,-302,-183,-92,24,36,2,128,195
-199,-324,-303,-215,-103,20,52,-13,47,2
-548,-61,-155,-145,-91,52,51,-21,7,-69
-530,-64,-82,-63,-37,125,105,42,80,-29
-171,271,-49,-74,-33,119,96,33,74,30
318,648,69,-64,-38,58,44,13,98,123
938,410,-146,-122,-41,5,8,40,176,330
1087,-210,-344,-114,7,-17,9,59,209,413
331,-808,-368,-116,29,-56,-2,30,127,214
-277,-333,-15,15,74,-69,6,6,54,2
-564,288,384,220,170,-27,40,4,-16,-181
-721,-116,408,261,191,-3,52,9,-42,-217
-507,-528,35,77,81,-42,36,11,-42,-167
-104,173,-97,-100,-74,-156,-71,-68,-123,-167
240,304,-108,-90,-53,-97,-25,-10,-71,-86
430,49,-178,-116,-58,-65,7,43,-11,50
157,-275,80,-5,27,-27,32,41,7,73
-249,-129,445,123,100,15,38,12,-44,-36
-18,846,646,93,-10,-98,-103,-124,-146,-45
566,1194,675,21,-139,-242,-271,-278,-236,25
940,743,322,-89,-204,-291,-288,-281,-173,170
571,78,-121,-169,-143,-151,-88,-79,16,237
-346,-73,-85,-57,8,0,51,20,-10,-68
-789,-107,-167,-83,-9,21,35,26,-62,-196
-474,-316,-197,-36,13,56,49,32,-30,-6
-69,-219,360,173,160,163,111,65,6,68
449,343,864,196,121,87,25,4,-45,64
367,128,407,49,-6,-34,-74,-50,-95,-49
-256,-527,-436,-61,-30,-47,-56,7,-91,-196
-292,-405,-878,-61,43,33,72,151,36,-70
-50,-425,-902,-131,21,43,110,210,150,152
-735,-995,-566,-35,118,185,192,246,151,20
-1209,-442,-51,127,171,263,138,111,-43,-315
-541,367,229,190,127,126,36,19,-77,-231
-29,285,396,255,117,63,10,-1,-50,-118
304,203,436,210,10,-43,-66,-40,-42,-60
558,-164,36,26,-111,-108,-120,-38,29,110
674,-127,-526,-217,-186,-100,-83,22,131,282
318,-425,-726,-278,-135,-14,5,100,152,230
-64,-129,-355,-103,-119,-85,-111,-93,-73,-109
633,849,-49,-124,-272,-307,-309,-307,-233,-111
876,1176,46,-189,-272,-293,-254,-239,-157,15
-80,279,-8,-58,-9,12,34,72,81,8
-1138,-655,-16,71,165,204,218,223,151,-185
-1252,-713,173,115,172,187,241,198,100,-249
-812,-316,222,149,152,110,198,106,21,-157
-464,-319,-82,101,95,56,106,55,35,2
-336,-279,-96,74,27,4,-2,-22,-17,-9
-275,-34,47,92,59,107,51,20,-12,-43
52,522,324,135,70,142,25,27,5,9
770,963,814,223,23,1,-142,-99,-77,96
1532,168,482,115,-44,-84,-196,-102,-14,309
1416,-539,-184,-80,-111,-163,-143,-17,85,368
675,-130,-300,-121,-112,-156,-111,12,56,136
-82,125,-531,-111,2,17,74,173,130,35
-221,22,-609,-138,39,133,200,235,164,120
-283,-55,-205,-86,26,188,164,146,100,122
-69,260,158,-72,-43,138,22,-9,-23,62
216,182,183,-152,-141,-3,-112,-124,-74,111
833,435,330,-125,-163,-168,-193,-156,-59,206
468,259,623,-48,-157,-248,-274,-223,-162,7
-888,-259,958,91,-35,-136,-137,-150,-206,-318
-1270,-263,486,99,47,-31,35,-18,-98,-332
-496,34,81,82,58,-12,13,-24,-43,-144
-97,-460,-497,105,164,182,153,113,64,-17
-558,-740,-633,167,275,342,264,221,116,-88
-990,-694,-587,67,166,237,184,138,-1,-246
-625,-119,-529,-67,-3,83,34,10,-51,-163
-17,127,-652,-202,-71,50,32,44,74,110
392,266,-422,-190,-57,73,75,94,142,221
744,341,-32,-52,-10,104,74,68,106,216
787,158,178,79,39,91,55,8,29,156
315,-382,130,98,28,53,43,-5,19,63
-241,-524,-104,25,-35,-2,-4,-2,18,-27
-475,-324,-167,-4,-42,-24,-4,13,0,-144
-596,-22,-9,8,-36,-56,-23,-21,-49,-263
-297,133,43,-6,-60,-87,-49,-33,-51,-182
6,262,136,-21,-73,-90,-53,-9,-15,-66
119,401,186,13,-15,-35,3,20,33,-22
68,158,89,66,79,91,134,91,103,32
371,440,189,95,70,42,71,32,78,89
512,612,90,28,-18,-44,-8,-17,43,129
189,28,53,-34,-27,-12,10,23,22,67
-135,-476,193,-40,-88,-97,-67,-26,-36,-6
-370,-52,506,155,-43,-137,-142,-139,-215,-241
-450,-265,378,240,93,-12,-39,-82,-210,-301
-235,-187,188,144,47,-30,-34,-42,-130,-209
144,50,127,63,-43,-107,-104,-93,-148,-132
525,448,128,-6,-128,-171,-257,-272,-271,-130
1039,961,-70,-184,-215,-131,-319,-332,-255,27
1034,797,-508,-320,-206,-38,-117,-78,0,269
151,-12,-619,-200,-58,74,126,179,149,222
-442,-601,-396,-82,4,77,144,177,109,83
355,375,188,-42,-94,-108,-76,-23,-19,124
656,225,136,-78,-145,-141,-150,-93,2,200
-289,-518,-182,-66,-26,43,3,4,47,20
-763,-418,-222,1,138,293,225,218,147,-52
-443,-206,-221,-54,84,262,168,175,113,9
-395,-552,-273,-82,46,155,112,138,124,86
-703,-262,9,45,71,32,55,33,-9,-101
-456,403,321,105,15,-123,-86,-120,-170,-219
137,562,375,46,-73,-204,-162,-149,-122,-54
374,309,276,36,-53,-147,-111,-72,-46,15
451,-83,64,34,24,1,75,82,73,27
706,-329,-12,93,95,107,182,176,139,49
501,-361,20,160,141,115,158,153,152,67
-306,29,192,187,125,18,26,33,50,-31
-657,395,417,199,103,-22,-23,-39,-41,-119
-351,305,436,157,64,-49,-28,-47,-27,-55
-146,-328,59,52,49,-24,19,19,70,54
-294,-527,-173,-59,-8,-67,0,12,83,34
-250,-291,-356,-122,-46,-21,-18,-41,3,-66
-23,-204,-455,-91,39,195,100,58,80,44
293,-19,-333,-29,91,161,161,177,184,174
447,-63,-115,0,18,-22,35,103,109,177
163,-413,102,59,-28,-99,-51,-16,-16,72
-199,-304,137,40,-65,-86,-150,-159,-157,-88
8,169,30,-58,-98,-51,-152,-174,-129,-10
266,509,25,-143,-110,64,-53,-88,-28,103
386,899,278,-123,-105,13,-58,-86,-33,133
-63,122,298,-66,-77,-74,-61,-51,-63,39
-262,-553,-1,-46,-39,-55,-42,-29,-35,31
117,-292,-205,-37,-25,-26,-37,-31,3,99
168,182,-65,-2,0,-40,-40,-31,-21,45
-134,185,-11,38,52,-8,34,18,-10,-10
-220,272,46,102,94,35,95,37,-40,-157
-300,-224,-71,108,110,28,99,19,-73,-237
-459,-623,-72,127,136,4,65,27,-23,-212
-571,-260,125,156,125,11,-7,-37,-90,-273
-117,236,92,39,-6,-43,-110,-103,-138,-227
311,203,-162,-83,-93,-109,-124,-79,-52,-64
359,113,-276,-98,-74,-96,-61,-16,25,-9
82,53,-208,-38,-32,-43,10,20,32,-42
-131,-218,-218,18,75,99,171,130,114,-17
-199,-53,41,67,130,150,219,155,109,-50
401,444,-52,-43,41,80,157,108,103,94
1160,343,-423,-193,-47,26,116,139,282,479
1306,-277,-396,-169,-101,-71,14,65,267,584
678,-337,104,39,-16,-45,1,-1,113,278
143,711,899,210,-32,-162,-197,-261,-203,-120
-7,1384,1084,229,-65,-237,-307,-374,-351,-285
-354,447,516,214,81,-22,-61,-82,-132,-230
-729,-1148,-416,-69,11,1,63,100,20,-172
-851,-1246,-724,-116,39,76,185,203,91,-124
-595,-376,-354,-5,91,106,176,160,68,-58
-266,49,-245,-59,28,48,85,92,61,44
-168,-105,-204,-69,28,123,99,124,92,102
126,-247,-104,-55,19,183,85,84,70,172
463,-141,-12,-2,24,114,75,62,56,184
421,19,-32,-18,10,37,47,46,50,175
352,479,208,-1,10,-40,4,12,18,99
-115,266,478,104,57,-61,-41,-21,-87,-100
-315,540,698,102,-16,-140,-126,-110,-166,-172
-326,440,368,-31,-120,-224,-212,-194,-204,-143
-199,639,-74,-190,-239,-273,-300,-236,-229,-117
-203,26,-292,-196,-188,-146,-188,-112,-107,-10
-616,-460,-103,-37,-26,-21,-61,-23,-51,-101
-405,-157,105,18,-18,-24,-38,-15,-89,-171
350,106,10,-41,-95,-101,-77,-30,-66,-41
1056,258,-104,26,-15,-58,-59,-36,-29,62
1138,160,-245,-17,58,35,41,52,65,117
53,-476,-319,-10,124,134,125,115,79,-82
-966,-860,-352,58,151,160,115,93,-12,-320
-1058,-602,-371,25,107,99,77,75,34,-174
-610,-259,-221,-26,25,34,28,66,94,24
-422,-279,14,42,65,79,90,132,112,27
-360,-125,246,101,83,53,50,71,76,-10
-207,122,317,122,106,66,-1,-15,2,-46
-147,176,439,137,118,113,-15,-44,-21,-54
-54,113,341,89,66,72,-44,-65,-28,-16
168,-98,-215,-66,-18,21,-36,-45,16,85
318,-315,-583,-206,-65,1,10,6,89,212
350,-357,-421,-158,-43,-15,81,52,136,231
449,146,-143,-94,-81,-90,61,33,86,146
690,647,126,-64,-66,-32,22,3,55,109
588,885,390,113,85,82,63,32,45,34
-13,688,248,179,123,101,95,72,41,-42
-595,73,-127,12,-8,6,-12,-27,-45,-129
-450,-269,-316,-124,-150,-112,-124,-143,-143,-123
-123,-293,-167,-82,-167,-143,-114,-112,-119,-93
23,-355,-6,-4,-78,-74,-66,-28,-60,-71
314,-209,25,-12,-75,-102,-71,-24,-49,25
442,-49,53,28,-13,-34,22,60,34,167
657,225,96,46,37,23,67,105,133,295
1003,275,84,-13,-10,-20,2,49,133,399
477,-55,65,7,-6,-3,-38,9,75,269
-561,-132,64,31,65,97,17,-7,-29,-106
-978,-73,359,162,207,291,145,5,-85,-342
-897,92,569,207,192,209,74,-41,-174,-415
-287,-79,39,61,100,83,85,59,-9,-118
154,-566,-350,1,121,128,132,172,145,50
520,-179,-215,-35,53,57,35,95,112,76
442,118,-229,-174,-154,-124,-111,-5,72,140
-109,-72,-196,-227,-231,-228,-142,-68,19,133
-500,398,98,-99,-205,-260,-165,-185,-146,-90
-54,533,191,-27,-143,-179,-108,-154,-123,-78
98,-120,78,-4,-26,51,52,-30,-4,12
-72,-333,81,39,68,209,166,40,11,-69
285,91,26,26,53,161,212,93,65,-20
1033,637,-83,-65,-50,48,159,86,116,174
1008,493,-82,-115,-143,-70,20,17,110,252
-528,-601,-275,-127,-155,-94,-35,-36,-7,-91
-1182,-444,-91,-69,-124,-106,-80,-97,-136,-305
-480,523,275,8,-105,-133,-141,-157,-173,-231
-206,391,260,58,-9,-48,-52,-105,-132,-152
-42,141,285,90,56,7,-30,-38,-17,6
156,467,348,76,41,-20,-76,-38,3,57
114,448,239,-55,-80,-132,-164,-122,-93,-22
-69,-59,29,-71,-50,-81,-108,-44,11,27
-230,-454,-52,58,171,185,169,183,174,42
-102,-199,250,85,151,172,176,173,104,-29
17,352,609,99,36,31,-4,15,-47,-88
-277,-75,361,52,-47,-95,-181,-149,-196,-147
-302,-720,-357,-112,-72,-104,-157,-111,-155,-150
218,-614,-895,-184,12,28,17,92,61,15
534,98,-700,-77,76,70,55,128,104,99
179,254,-278,27,91,117,58,90,70,69
-162,151,44,75,69,79,23,14,25,48
-154,-205,77,99,84,63,67,31,40,121
88,-647,-79,69,98,108,177,118,147,250
201,-656,-210,28,75,121,216,167,200,275
31,-244,-139,-59,-105,-87,-2,-43,-17,36
222,378,-149,-154,-259,-281,-243,-239,-246,-169
523,482,15,-100,-184,-219,-230,-186,-210,-179
128,124,464,73,49,19,-24,-6,-91,-197
-207,105,671,167,173,157,130,91,-16,-152
-138,341,468,130,109,97,57,8,-55,-89
121,213,152,91,23,-13,-69,-84,-85,0
331,39,-108,96,29,-15,-40,-25,75,223
-260,-203,-196,62,55,45,58,55,143,163
-609,-249,-218,-62,4,26,64,44,86,5
-274,-459,-328,-181,-76,-9,29,38,105,135
68,-263,-126,-111,-71,-17,-10,17,121,224
573,710,79,38,-7,-6,-39,-15,105,221
787,634,-125,24,16,25,15,33,155,268
-150,-78,-220,-108,-82,-75,-65,-59,4,-13
-917,-194,-34,55,59,30,29,10,-18,-217
-1066,-542,-296,114,183,195,199,161,73,-191
-840,-492,-275,123,194,233,220,163,66,-157
-464,-295,-35,151,170,202,135,97,46,-80
-190,-208,-36,102,81,90,45,43,33,-25
-168,-164,-269,-37,-8,-14,1,35,37,7
-168,-191,-356,-158,-41,-55,-3,37,18,43
-165,-194,-237,-111,-8,-27,19,33,18,53
85,84,-12,-52,-2,87,7,-1,-5,73
410,210,52,-51,-36,73,-5,20,7,138
533,318,1,-47,-59,33,-48,-12,-5,137
335,575,315,23,-90,-110,-176,-149,-154,-33
352,568,368,64,-77,-187,-183,-117,-113,-20
348,253,245,70,-24,-148,-110,-59,-44,16
209,-24,16,42,-14,-75,-30,-24,-18,51
24,12,32,-67,-133,-92,-152,-181,-174,-78
-138,87,107,-157,-238,-217,-280,-295,-285,-143
-77,-140,120,-48,-119,-143,-167,-131,-112,-33
-211,-511,16,53,39,11,-3,34,16,-27
-57,-256,1,27,43,42,57,81,59,41
186,7,49,-24,23,41,87,100,102,119
0,-152,-54,-57,-9,2,56,52,48,37
-82,76,-104,-103,-65,-31,26,27,39,42
-292,-88,-236,-72,-2,35,83,79,62,-3
64,-24,-115,63,89,71,76,48,10,-37
737,257,32,23,23,11,18,40,64,143
961,306,96,-75,-105,-69,-24,41,91,218
394,52,59,1,-103,-89,-78,-29,21,97
-468,-318,-130,102,54,52,55,56,64,28
-729,-250,-85,142,123,85,123,56,-3,-96
-396,240,160,91,15,-50,-34,-72,-114,-120
-34,227,272,22,-36,-94,-82,-85,-63,5
-49,-46,292,48,16,-36,-11,-36,-20,-8
119,188,298,33,6,-14,-19,-52,-24,-40
214,166,85,-80,-60,-8,-68,-96,-43,-28
6,56,-144,-100,-40,55,4,-16,41,35
-278,-4,-168,-26,29,83,70,51,73,-18
-186,119,-31,15,5,7,-2,-44,-33,-90
107,347,82,15,-27,-26,-41,-81,-72,-22
314,415,101,42,8,39,28,-5,-13,41
396,371,79,-1,0,38,37,25,0,29
580,575,282,-11,-42,-17,-9,-3,-22,-14
923,687,393,-13,-103,-78,-46,-10,-12,53
975,-136,201,-42,-70,-11,21,105,117,252
729,-628,-17,-75,-32,22,44,146,231,438
134,-346,-6,-16,-13,1,-4,48,121,263
-554,-264,21,61,-19,-48,-78,-80,-107,-91
-1197,-660,-173,157,86,55,0,-55,-183,-396
-1465,-226,100,282,186,150,83,28,-130,-407
-1007,-65,299,281,126,76,12,-11,-129,-290
-515,-93,-61,53,-64,-70,-98,-85,-140,-151
197,186,-317,-156,-172,-123,-106,-61,-55,27
966,351,-237,-225,-167,-90,-59,19,38,198
1001,41,-342,-244,-109,-48,32,124,129,320
19,-419,-558,-193,28,60,171,238,198,180
-839,-185,-279,24,173,131,187,192,97,-126
-829,-362,-171,49,161,87,149,130,61,-111
-289,-385,-133,-2,66,3,35,38,19,-60
214,-83,128,73,66,52,8,-8,-35,-43
134,-130,48,71,125,212,103,61,2,-59
-174,-130,-41,65,148,172,99,76,3,-141
-261,235,183,17,5,-77,-101,-96,-141,-274
-29,212,271,-7,-78,-157,-140,-99,-104,-155
191,-328,50,-29,-88,-109,-32,42,81,92
260,-111,-146,-14,-25,-57,0,22,58,55
431,298,-270,-46,12,-28,9,-13,29,65
67,192,71,-30,-30,-103,-48,-92,-32,-51
83,653,695,11,-93,-179,-153,-209,-129,-116
877,1827,1154,99,-153,-311,-278,-345,-188,-12
1310,1420,673,-23,-236,-381,-302,-308,-107,175
897,-384,-412,-158,-150,-173,-55,-27,122,296
-721,-1944,-1246,-106,138,273,333,276,227,-12
-1375,-1073,-920,-36,240,429,408,249,71,-337
-962,-155,-119,119,209,217,237,90,-36,-346
-407,-132,45,112,112,31,110,34,24,-128
-274,-502,-142,-10,35,59,75,27,67,-21
-379,-321,-127,-67,17,203,98,48,66,-1
-382,-252,4,2,39,171,101,87,124,118
-387,-263,118,53,32,97,31,44,104,128
-213,91,-2,-31,-73,-23,-110,-98,-46,44
254,559,-24,-53,-114,-91,-195,-202,-145,79
503,338,35,-13,-51,-48,-136,-164,-91,158
393,-359,-168,-31,-1,33,2,8,42,207
296,-258,-59,8,30,31,50,66,68,155
614,428,309,76,-28,-107,-107,-93,-63,91
747,455,513,147,9,-108,-86,-88,-46,92
432,308,332,121,49,-51,13,4,-11,-51
-264,482,110,-35,-60,-71,-33,-23,-46,-207
-406,284,-6,-110,-81,-37,-8,20,47,-81
-450,-573,-220,-66,-13,-35,33,70,110,29
-456,-600,-361,-3,68,31,103,123,147,73
-237,-354,-180,67,118,94,106,126,174,80
-62,-469,-186,33,63,40,31,45,131,74
156,-120,-97,-31,-29,-64,-60,-47,36,76
571,412,0,-71,-103,-149,-102,-108,-13,88
641,690,126,-36,-97,-145,-78,-120,-58,-16
300,493,174,11,-32,-75,10,-70,-35,-82
-101,435,283,94,75,32,115,6,-1,-145
-140,243,189,86,108,107,178,79,67,-47
-8,63,74,1,31,104,122,68,98,59
-79,77,98,-28,-58,-16,-10,-70,-51,-58
-411,43,195,-6,-97,-133,-133,-201,-172,-178
-166,-261,1,38,0,-38,-39,-96,-46,-19
