10,-20,-8,-3,2,16,2,23,100,75
33,-4,-6,-11,14,50,33,56,120,99
18,-41,-12,-16,-8,62,38,37,109,74
59,-29,-4,-15,-12,40,16,13,73,65
101,42,44,-9,-4,29,-17,-16,-12,8
107,74,45,-7,-20,11,-51,-30,-56,-13
71,22,16,-9,-29,9,-45,-4,-26,-25
52,-15,7,-9,-29,10,-39,22,-4,-6
41,-21,-3,-14,-10,7,-42,20,9,16
42,-8,9,-11,42,33,-12,5,-3,3
49,0,24,1,17,23,-24,-14,-33,12
61,5,34,-9,-7,25,-38,-11,-29,54
25,-6,29,13,-12,23,-44,-15,-29,72
6,3,39,35,-4,17,-34,-35,-70,43
-48,-19,31,19,-9,15,20,-9,-50,22
-123,-67,-9,-12,-21,13,55,28,16,8
-104,-69,-29,-33,-25,19,43,47,37,-3
-16,24,14,-6,-24,19,23,5,-4,-44
13,70,43,13,-19,22,-3,-25,-40,-93
18,49,22,-1,-39,5,-14,-20,-2,-83
34,17,-3,-32,-61,-19,-11,-5,68,-4
50,-7,-9,-49,-68,-19,-3,17,120,92
61,1,6,-38,-53,-3,7,12,107,142
54,23,17,-11,7,25,36,4,80,178
57,63,41,17,89,66,69,-12,28,181
36,61,57,33,105,94,80,-12,-24,140
-14,32,52,33,75,109,57,-24,-65,77
-5,47,28,36,38,97,30,-37,-88,-14
14,82,-6,30,15,79,-8,-47,-76,-97
9,78,28,23,-6,43,-17,-44,-47,-126
-11,40,10,13,-2,26,10,-36,-29,-100
31,3,-102,-43,-7,22,42,21,51,22
38,-18,-75,-50,-3,20,34,40,78,64
-16,-25,-38,-9,4,32,30,24,50,-14
-48,3,11,12,8,44,23,10,12,-67
-28,48,45,29,10,21,3,-4,-15,-86
-30,50,67,35,24,32,12,-19,-36,-136
-25,53,69,44,33,33,2,-39,-81,-141
17,47,43,28,13,0,0,-33,-74,-82
-10,27,-22,16,10,0,-6,-14,-50,-67
9,43,-77,14,2,5,-23,-9,-36,-29
-36,-3,-1,17,16,2,-9,-5,-19,-22
-133,-115,-31,-11,18,-5,21,30,24,-4
-47,-88,-40,-42,-6,-22,-1,29,49,76
22,1,5,-27,-1,-20,-29,5,-10,41
53,45,38,-2,8,-7,-54,-38,-50,15
95,33,19,-36,29,-23,-36,-14,11,108
73,-17,-46,-65,24,-32,-1,60,111,173
9,-78,-57,-59,-14,-18,6,76,142,121
-28,-35,-39,0,-6,7,0,35,42,-9
17,34,-45,25,5,9,-26,-42,-46,-61
67,45,27,-4,-13,-6,-22,-54,-27,-17
90,13,13,-51,-33,-16,-10,-8,61,80
46,-20,-2,-61,-17,-13,3,9,105,117
-3,-2,46,-10,10,4,8,-30,45,36
45,46,73,9,3,4,-1,-64,-10,17
35,41,41,-13,-16,-12,-1,-41,14,43
-50,-68,-50,-40,-15,-9,19,19,105,97
22,-50,-65,-57,-26,-11,24,41,149,190
85,61,47,-10,0,23,17,-13,46,77
-47,29,78,37,57,57,55,-36,-36,-67
-87,-52,2,15,73,46,66,-8,29,-16
24,47,51,45,61,18,0,-75,-33,-64
29,102,121,67,62,1,-9,-106,-69,-154
-31,18,39,3,20,-4,8,-30,38,-76
-37,-45,-41,-55,-16,-6,31,39,164,53
22,-27,-32,-50,-22,-10,20,24,145,100
16,41,46,15,15,-9,-3,-42,25,-12
-6,55,66,53,64,12,15,-57,-21,-52
13,56,42,34,86,15,31,-43,6,23
-2,28,57,23,47,6,18,-54,-10,12
-27,24,40,28,23,3,0,-80,-28,-26
-19,-10,18,25,8,-10,-11,-87,-27,-10
1,-37,-19,2,-10,-22,-1,-31,7,51
16,-27,-29,6,-19,-8,3,0,2,60
5,4,12,35,-2,-6,8,-22,-64,-22
-3,-1,14,34,24,11,20,-39,-94,-46
-3,-23,0,30,8,16,34,-56,-91,-9
-74,-80,-17,19,-9,2,45,-28,-20,-7
-122,-78,-16,17,-9,-4,48,-23,-8,-69
-74,-21,-15,14,-21,-16,-3,-56,-24,-48
22,1,-103,-11,-37,-55,-75,-76,34,81
52,9,-193,-45,-63,-78,-75,-40,97,155
-2,38,-63,0,-15,-27,-27,-15,34,55
-40,69,33,42,49,33,17,-5,-43,-47
-96,24,6,33,60,63,37,13,-45,-91
-123,36,63,67,60,62,13,-48,-98,-191
-150,9,47,45,41,38,6,-44,-65,-194
-92,15,26,2,9,22,-7,-37,-16,-100
-35,43,46,0,-4,1,-13,-33,30,-24
-39,40,47,8,12,-11,-15,-43,67,17
-10,16,9,-11,-6,-38,-21,-47,101,68
31,9,-7,-23,-14,-39,-13,-55,70,76
35,-6,-9,-13,-12,-20,1,-58,36,86
-61,-33,13,17,25,26,27,-79,13,9
-39,12,7,6,20,12,0,-82,55,29
44,67,-23,-8,-13,-32,-5,-69,103,77
50,60,25,-9,-11,-19,41,-72,58,7
9,43,18,-4,3,9,60,-54,89,-10
-12,9,-12,-13,-15,9,35,-28,118,28
17,-28,-67,-48,-37,-8,9,-23,153,124
25,-78,-127,-71,-50,-16,9,-14,219,299
20,-24,-13,0,-2,23,-6,-94,129,264
71,72,66,35,0,2,-45,-165,72,243
112,75,50,12,-15,-13,-14,-112,128,243
-92,-49,4,21,44,57,91,-60,93,61
-196,-98,-12,17,75,75,118,-46,82,-4
-86,3,42,12,74,63,88,-99,0,-55
-20,24,50,27,46,35,45,-167,-92,-65
-54,-3,49,49,53,20,-6,-187,-93,-84
-119,0,78,86,104,62,-17,-202,-142,-189
-83,41,64,58,64,27,-53,-221,-152,-167
-55,-17,-86,-19,1,-5,-30,-131,-16,-14
-86,-40,-166,-10,32,19,17,-81,-9,-11
-108,2,-43,54,91,51,4,-154,-155,-138
-41,1,36,22,64,4,-26,-183,-150,-124
16,-11,3,-16,2,-61,-35,-133,-58,-37
34,12,17,-13,1,-51,-21,-103,-43,-28
14,2,34,-8,26,5,0,-99,-52,-53
30,14,30,-16,30,13,3,-100,-42,-29
58,90,61,1,37,-17,-35,-138,-82,-41
67,103,59,17,54,-25,-49,-189,-84,1
32,34,38,21,42,-27,-66,-215,-69,-3
1,6,2,22,44,-8,-36,-184,-56,3
53,37,-78,3,8,-43,-42,-170,-4,31
49,-13,-98,-67,-47,-70,-34,-98,144,78
-101,-61,-22,-9,15,4,16,-119,61,-111
-202,-21,78,98,89,70,8,-242,-192,-321
-121,3,21,15,31,4,-13,-204,-92,-111
71,41,-44,-53,-27,-45,-22,-145,68,128
55,48,-19,-11,-10,-1,-8,-144,24,1
-59,-9,-24,16,-12,32,33,-93,39,-72
9,0,-16,-13,-60,14,49,-32,95,16
21,12,-17,19,-41,26,23,-63,66,-1
9,0,1,49,-17,0,-21,-121,96,39
98,62,38,38,-12,-31,-38,-148,84,85
96,64,15,-3,-44,-53,-4,-130,81,86
38,-9,-33,-35,-76,-28,70,-49,144,123
8,-23,-39,-23,-39,17,97,-60,104,134
-27,-24,2,30,12,33,74,-174,-6,85
-20,57,76,74,30,48,55,-265,-130,-57
10,97,84,57,10,23,29,-318,-148,-101
108,85,17,-12,-44,-53,-14,-300,-52,41
113,46,-52,-55,-38,-51,8,-184,92,157
57,110,2,-25,22,-2,34,-162,80,48
40,101,49,-5,8,9,17,-225,10,-38
-58,-49,-31,-24,-17,23,23,-207,24,-14
-115,-107,-51,-11,4,45,44,-198,30,-41
-41,23,54,51,33,39,37,-284,-84,-85
47,161,139,90,50,16,10,-380,-166,-68
59,167,139,97,42,-5,-27,-388,-151,-13
-41,-52,-34,-2,-2,-3,2,-288,52,162
-63,-216,-208,-138,-64,6,65,-138,258,325
52,-10,-25,-30,-19,15,27,-289,-15,12
65,64,52,0,-19,-17,-16,-372,-84,-102
19,6,-17,-42,-53,-34,9,-304,80,4
-34,35,-65,14,-1,1,10,-326,19,-52
65,117,-65,42,13,-16,-36,-378,-1,43
181,168,-11,14,-25,-47,-75,-376,69,211
-38,-33,-22,-12,-9,25,15,-276,133,139
-304,-197,-78,-12,32,101,124,-249,60,-50
-59,-59,-32,-26,-10,37,62,-351,-36,32
113,91,65,0,-14,-9,-11,-461,-128,19
84,86,88,18,0,-9,-22,-474,-97,39
158,136,137,68,43,26,0,-522,-192,53
60,101,46,120,112,137,96,-483,-325,-95
-69,82,-28,131,164,158,105,-447,-356,-225
-69,65,35,89,108,103,72,-400,-225,-191
-53,7,66,56,25,68,32,-375,-122,-130
4,-48,-2,-7,-31,33,10,-371,12,30
-6,-55,-13,-3,-15,50,37,-386,-4,4
-19,47,87,52,38,70,37,-450,-145,-128
-19,62,89,59,58,81,57,-478,-200,-151
34,42,23,46,18,33,54,-497,-160,-53
169,89,-62,13,-47,-44,0,-527,-114,105
90,-9,-97,-40,-37,-8,71,-388,10,129
-40,-20,-22,49,70,78,94,-407,-77,-67
110,127,120,105,65,42,17,-531,-162,-35
130,133,134,93,35,26,5,-563,-164,13
-1,-3,50,48,26,23,40,-501,-71,55
61,35,36,27,-2,-17,20,-532,-71,83
53,72,86,53,19,-7,30,-541,-100,-3
-67,-47,16,13,-11,15,51,-443,27,-7
-178,-122,-38,4,2,41,82,-362,95,-15
-82,-20,20,26,17,26,66,-419,0,-68
-71,5,65,51,23,28,50,-470,-31,-93
20,45,47,16,-14,12,38,-437,29,4
120,78,32,-18,-32,8,47,-412,66,67
138,116,37,3,5,31,44,-436,48,68
162,138,36,11,6,28,38,-463,8,52
121,48,-13,-16,-32,33,63,-429,20,37
-19,-26,-14,20,12,84,106,-421,-59,-80
21,5,10,26,-8,61,69,-423,-70,-30
127,90,72,27,-26,10,20,-432,-55,31
144,85,61,23,-26,-3,14,-452,-20,88
-36,-71,-27,-13,-16,20,65,-355,63,113
-80,-137,-68,-37,-29,23,74,-313,90,141
50,12,50,12,-19,24,0,-405,-36,85
172,171,160,78,-22,-11,-65,-504,-155,68
225,195,158,73,-35,-34,-52,-490,-149,82
101,54,11,30,0,14,28,-405,-102,30
-1,-38,-48,21,37,55,59,-389,-118,-47
-2,-33,-17,23,24,33,18,-398,-91,-34
115,25,-53,-29,-21,-26,-20,-373,-2,157
206,105,-13,-49,-38,-63,-28,-346,56,261
-26,-8,3,11,22,10,32,-304,29,56
-49,-6,68,90,69,63,32,-427,-189,-127
-9,1,40,70,39,53,45,-410,-189,-53
0,-24,13,34,9,19,72,-357,-72,38
72,19,41,30,-6,6,61,-386,-92,14
35,1,29,24,0,11,57,-366,-74,-6
-4,-35,-11,7,-17,-13,40,-346,40,94
78,50,51,42,-22,-28,-9,-403,-11,68
116,86,82,53,-12,-26,-3,-413,-33,40
17,7,56,51,4,4,29,-392,2,84
69,-13,-7,-10,-32,-26,24,-382,39,186
117,52,1,6,-26,-37,-23,-448,-48,153
63,18,13,29,-10,-12,-19,-464,-35,102
-89,-63,-11,30,10,14,18,-409,6,-19
-157,-107,-13,23,24,45,62,-395,-23,-51
0,14,69,47,21,23,14,-484,-166,-54
40,9,53,0,-15,-11,3,-438,-49,51
110,-35,-40,-79,-62,-31,20,-356,96,210
115,79,-24,-48,-37,-32,9,-352,19,74
129,162,85,19,-6,-22,-36,-428,-104,-57
118,159,126,29,27,6,-27,-441,-150,-67
-14,108,36,19,54,34,15,-319,-92,-50
-216,-63,-20,21,71,79,101,-216,-40,-89
-69,-95,-36,-23,-5,26,84,-201,17,23
-81,-94,-36,-31,-17,20,50,-194,72,12
-121,-60,17,10,34,58,23,-203,30,-53
-119,-46,47,46,46,44,-19,-217,-41,-58
-35,-6,50,49,36,26,-39,-206,-121,-40
-94,-58,0,20,23,28,-10,-130,-100,-31
-83,-78,-51,-4,6,21,-7,-74,-108,-47
99,19,-28,-37,-31,-5,-17,-12,-109,-25
77,-3,-11,-46,-26,3,31,96,-62,-24
-55,-62,-6,-6,4,23,46,113,-73,-48
-113,-83,0,1,-1,-14,25,112,-33,11
-172,-107,-10,0,3,-7,31,160,30,19
-193,-86,9,12,30,10,36,168,-32,-30
-62,3,59,45,21,-11,1,138,-98,10
-11,33,110,68,16,-20,-20,135,-87,11
82,98,116,51,5,-28,-34,148,-71,75
96,65,37,3,-42,-39,-16,201,-28,119
74,30,-7,-14,-52,-32,-10,229,-47,6
196,172,101,51,-14,-57,-71,129,-195,-88
206,178,50,31,-37,-85,-83,183,-113,-3
128,61,-109,-10,-24,-18,-14,283,-16,46
-28,-103,-124,-43,-2,48,62,381,77,1
12,-41,-50,-16,-13,56,35,344,-91,-159
215,79,-13,-21,-59,0,-65,253,-189,-118
228,67,-43,-49,-76,-20,-93,277,-87,-30
114,5,-88,-70,-82,-33,-54,362,38,6
43,-27,-90,-40,-51,-22,-48,351,24,-12
102,13,-54,-42,-51,-36,-24,318,-8,-9
86,43,15,-8,-26,-28,-24,270,-49,-37
68,42,21,2,-17,-14,-45,269,-26,7
176,49,-24,-56,-36,-45,-56,320,97,182
135,9,-53,-44,-21,-11,-49,315,71,137
-66,-44,-24,3,18,42,-4,322,-41,-137
-6,-3,-13,-15,-26,-7,-33,299,11,-35
40,-4,-55,-51,-72,-66,-53,359,158,133
-21,-11,-60,-49,-57,-21,-1,411,194,118
-168,-69,-52,-6,20,69,68,407,125,-24
-99,-42,-71,34,20,54,11,268,3,-32
-29,6,-48,50,-7,13,-16,180,-61,-33
-132,-61,0,16,-1,28,47,221,19,-29
-60,-7,20,4,-7,25,36,190,-4,-26
-47,10,31,17,-1,10,6,155,-28,-72
-90,11,61,21,-3,-2,-19,173,21,-57
-91,11,58,26,-3,-10,-51,153,44,-44
12,36,61,17,-7,-38,-90,78,9,-20
-3,-15,-24,-41,-63,-56,-70,129,107,42
-40,-53,-60,-54,-65,-48,-36,159,128,46
84,56,37,-5,-25,-29,-68,75,-8,23
55,26,11,-13,-4,-6,-51,80,0,39
-75,-34,-5,26,35,20,-39,49,-55,-18
21,13,16,12,7,-9,-67,6,-119,13
35,-10,-17,-33,-31,-55,-96,20,-21,96
33,31,16,-16,-27,-78,-90,4,-21,36
-37,-13,-20,-16,-6,-36,-36,3,-87,-94
-92,-65,-113,-29,-8,-25,-24,-12,-41,-80
-107,-80,-143,-36,-14,-1,-6,-12,-36,-90
-120,-83,-192,-46,-35,-14,-5,18,-10,-91
-35,-5,-154,-41,-37,-36,-31,-8,-22,-75
10,71,-34,-9,3,-30,-45,-95,-111,-105
32,59,18,-19,-13,-44,-35,-98,-89,-58
15,-4,8,-30,-37,-41,-36,-54,-30,-18
-2,-43,-10,-34,-30,-32,-28,-23,-18,-11
24,-14,30,-12,-7,-10,-20,-35,-67,-14
71,59,107,37,21,-17,-36,-102,-150,-43
90,76,97,36,5,-38,-42,-86,-98,-13
91,6,28,-6,-14,-28,-29,-17,14,81
-4,-101,-21,-22,-27,-36,-19,23,107,92
53,-75,-34,-35,-36,-42,-32,31,106,111
-103,-173,-90,-56,-13,1,29,121,174,83
-93,-85,-16,-2,21,0,32,32,37,-38
38,41,70,24,22,-10,24,-34,-78,-72
-70,-96,-33,-27,2,8,43,68,-2,-79
-86,-99,-9,-15,22,12,36,36,-53,-131
17,-16,21,-28,8,-31,-15,11,-32,-40
-25,-34,14,-15,-3,-33,-42,28,0,-80
53,26,23,-15,-26,-47,-57,-7,-16,-43
85,19,-5,-37,-32,-56,-63,5,21,46
46,-26,-34,-48,-32,-45,-39,48,63,42
8,11,11,-27,-17,-24,-25,47,34,-70
-25,30,43,2,28,0,-7,-4,-24,-133
11,122,97,34,49,-23,-11,-65,-75,-96
-45,11,2,-29,30,-16,12,44,120,74
-78,-95,-73,-100,-36,-23,18,164,275,183
15,62,48,28,2,-29,-58,-32,-54,-71
-1,32,35,26,15,-35,-67,-55,-56,-72
30,-62,-76,-88,-55,-56,-36,50,121,100
-161,-151,-107,-72,-12,14,23,107,115,-50
-205,-98,-57,-44,2,9,8,72,53,-140
-121,-78,-77,-85,-41,-21,2,133,204,36
-130,-78,-120,-53,-16,-5,21,129,178,-20
-15,24,-111,7,32,8,-23,-14,-35,-96
17,3,-112,-34,0,-8,-8,60,17,-12
-11,-25,-47,-29,-10,-7,13,106,50,0
-43,-57,-21,-39,-21,-3,25,115,41,21
-41,-38,-1,-35,-12,0,13,68,-16,13
-27,22,53,5,33,-2,1,29,-95,-19
-68,29,74,26,56,20,1,62,-94,-17
-104,-3,65,42,61,25,-2,67,-130,-103
-63,-13,62,57,62,14,-29,53,-146,-71
-15,-70,-1,-25,-29,-40,-50,150,107,181
-136,-113,-10,-9,-17,-13,-4,178,91,57
-92,-43,82,50,18,15,-20,45,-161,-122
35,32,111,30,-15,-32,-63,5,-159,-27
-49,-15,64,14,-20,-34,-40,73,-67,4
-149,-96,3,-3,-6,-1,19,132,6,-5
-293,-210,-82,-1,28,56,86,190,24,-68
-144,-79,4,38,16,19,4,103,-118,-113
-11,-20,8,0,-37,-6,-47,107,-82,-60
41,-51,-54,-53,-53,-14,-16,157,9,-51
151,9,-45,-49,-47,-39,-25,120,-35,-66
182,75,-12,-37,-54,-55,-52,99,-62,-38
152,46,-11,-41,-68,-62,-53,114,-11,37
111,30,3,-22,-40,-24,-31,119,-16,2
128,37,0,-15,-18,-22,-23,107,-23,-26
109,29,-5,-6,-6,-36,-11,116,-13,-13
130,60,-4,-11,-24,-54,0,124,18,35
94,53,-74,1,-6,-28,2,111,3,5
51,60,-106,20,21,6,10,110,-18,-14
-35,5,-130,-15,17,24,48,188,68,-5
-31,-17,-31,-34,0,12,32,186,28,-20
-33,-44,14,-29,-4,17,26,181,-5,-36
-71,-81,6,-22,-6,2,12,174,39,3
19,0,70,10,-3,-38,-41,109,45,38
86,74,98,28,-19,-56,-59,119,49,25
-121,-103,-33,-26,-19,2,25,244,184,64
-113,-134,-75,-34,28,41,69,225,122,27
1,-1,2,14,24,6,28,144,-23,-108
93,90,7,30,10,-5,-5,90,-69,-118
126,56,25,-7,-10,-38,-14,113,-18,-35
72,-6,12,-44,-21,-41,-9,154,40,4
39,-7,6,-49,-10,-34,-4,174,45,-12
9,-12,-3,-18,-1,-32,-21,156,31,-19
-29,-8,-1,-21,0,-17,-17,157,60,4
-90,-67,-20,-47,-4,-17,0,200,106,11
-130,-143,-91,-70,-20,-15,2,275,192,99
-37,-21,-53,-14,-2,-32,-35,182,80,48
94,99,53,-7,-20,-54,-60,117,-25,28
82,54,37,-43,-27,-39,-43,178,1,80
-42,-81,-39,-50,6,1,16,229,-11,-10
-12,-45,-12,3,26,10,8,174,-79,-84
122,91,29,16,19,-42,-36,147,-73,19
96,85,-3,-6,0,-57,-43,167,0,65
59,38,25,2,-2,-44,-60,141,0,63
106,41,24,-14,-20,-52,-89,113,-29,89
86,-43,-69,-70,-51,-52,-61,196,68,190
-65,-106,-81,-40,-9,9,-5,214,57,55
-86,-37,-21,2,18,27,4,142,-61,-113
-126,-66,-116,-13,1,5,8,169,-4,-73
-103,-49,-141,26,33,14,10,143,-64,-119
-30,-7,-94,48,46,28,20,97,-146,-135
-22,-30,-27,19,34,27,43,131,-64,-61
-29,-10,18,1,22,12,29,152,-12,-54
32,49,52,13,3,-21,-6,124,-43,-36
145,107,52,11,-24,-62,-61,110,-39,21
76,35,7,-3,-4,-37,-24,156,16,31
3,14,15,-30,4,-50,-11,204,73,55
34,98,66,-6,6,-69,-37,164,88,89
-39,41,85,48,41,-18,-18,102,3,-8
-154,-103,-1,18,33,-4,24,156,63,-32
-119,-142,-97,-74,-35,-41,52,254,175,61
-64,-84,-98,-44,-27,-29,17,175,75,33
-120,-79,-34,5,-1,-8,3,97,11,-84
-8,21,57,25,0,-27,-27,46,-80,-99
-10,-8,30,26,0,-9,0,77,-62,-63
-84,-56,-7,30,-4,1,18,108,-40,-94
-129,-76,-28,8,-21,13,43,183,35,-81
-55,-33,-14,-10,-36,-7,3,175,49,-6
6,29,34,15,-10,-11,-3,121,-10,-58
-14,12,25,14,4,-9,3,149,21,-32
-91,-70,-20,-5,1,14,17,187,92,17
-51,-23,23,27,27,25,5,141,2,-19
58,43,62,9,-7,-23,-35,101,-6,18
126,65,45,-41,-50,-47,-22,132,82,130
160,38,19,-45,-47,-33,-2,70,48,126
4,-43,6,-4,12,16,15,68,4,8
47,4,34,0,-7,-19,-30,53,-9,31
68,10,20,-18,-7,-15,-17,58,-29,22
-102,-95,-25,-11,44,33,50,136,-13,-84
-58,-36,-3,-13,32,17,50,171,7,-57
-46,1,-49,31,42,23,21,92,-60,-101
-18,-9,-137,25,6,-1,-20,77,-56,-84
2,-25,-89,-20,-26,-35,-26,105,22,4
-19,-60,-16,-27,-31,-47,-23,120,51,51
-6,-36,0,-21,-25,-55,-27,114,45,69
-17,-23,13,-6,-7,-41,-23,92,-4,28
-1,26,73,49,46,-9,-32,29,-87,16
135,89,89,61,48,-5,-57,-28,-123,87
1,5,23,11,34,9,12,95,-58,-46
-93,-49,6,-4,18,4,18,137,12,-88
-118,-62,9,24,26,-3,-13,104,22,-41
20,45,61,56,44,-22,-57,18,-96,-19
36,27,-17,27,14,-25,-36,39,-25,42
-27,6,-14,6,11,-6,-5,98,67,78
-77,-12,32,29,26,10,-5,70,31,41
-202,-99,11,65,58,66,21,77,-36,-116
-161,-103,-31,15,22,55,13,120,14,-68
-54,-52,-24,-10,-17,6,5,95,38,33
-110,-75,-35,-7,-18,0,47,134,93,56
-180,-100,-37,16,-1,12,51,142,101,23
-85,-9,-1,31,5,6,9,116,43,-23
83,117,46,20,-2,-2,-9,107,3,8
271,146,-1,-16,-51,-31,-49,61,-26,60
125,44,-51,1,-18,10,-27,48,-40,-30
-7,-3,0,16,10,32,-19,42,-50,-88
-82,-30,29,11,16,34,-14,54,-53,-135
-1,-2,28,-4,-3,5,-20,57,-42,-70
85,62,38,2,-22,-19,-29,48,-56,-29
36,17,-1,-13,-11,-9,-8,93,35,16
53,-23,-41,-53,-23,-20,0,105,80,49
99,24,11,-23,-2,-18,-8,36,-2,-25
51,-16,-21,-27,-6,2,-1,67,18,-34
-34,-52,-28,-6,7,24,-16,58,6,-41
-87,-50,11,12,20,13,-40,48,-28,-67
-34,-12,10,-8,3,1,-40,77,-31,-55
95,75,6,-3,1,-19,-47,69,-35,-46
174,171,48,7,12,-39,-65,36,-25,12
271,210,76,-9,-9,-61,-120,-17,-5,132
265,122,14,-57,-60,-78,-99,45,62,182
-8,-78,-53,-60,-24,-7,11,140,71,11
-136,-94,-45,-3,7,27,-6,101,2,-88
-37,-32,-131,-27,-29,-24,-35,101,35,25
-59,-126,-203,-96,-53,-9,14,184,166,150
-74,-109,-79,-45,-35,-3,26,147,93,82
-19,59,98,60,14,17,10,-5,-153,-142
-6,35,48,17,-13,-9,7,3,-79,-70
-104,-72,-31,-18,-41,-15,22,94,85,-7
-159,-91,-32,0,-28,13,11,107,122,-4
1,-4,-36,-18,-63,-24,-16,61,76,42
78,28,-29,-31,-68,-60,-43,48,39,42
74,33,20,-25,-47,-56,-6,79,53,31
-31,-4,-9,-6,-11,-23,55,92,40,-16
-51,-34,-25,-14,-25,-18,67,83,36,-1
17,-1,17,-23,-44,-32,21,61,38,31
92,65,65,7,-26,-15,-15,53,-21,43
76,23,17,-7,-22,5,29,114,64,120
-50,-50,-11,-15,0,32,55,141,66,23
-94,-10,42,23,39,47,26,105,-31,-123
-105,3,50,22,66,69,42,109,-65,-160
-86,24,33,19,59,64,44,106,-16,-97
-42,28,68,53,47,59,25,70,-40,-66
18,49,90,56,21,29,-7,41,-50,-34
87,75,89,16,-16,-14,-42,32,16,63
27,-12,11,-17,-18,10,-3,99,116,106
-70,-45,23,35,49,57,41,53,26,-41
79,33,14,16,27,17,3,1,-62,-15
-44,-152,-226,-87,-39,11,57,177,166,106
-270,-270,-181,-61,13,66,109,236,187,-35
-7,-34,30,19,37,12,24,33,-85,-124
44,-11,1,-5,7,-28,14,26,-66,-54
-15,-24,5,11,22,-18,15,55,-48,-43
-41,-27,19,1,22,-7,-2,64,-36,-33
21,12,-30,-2,13,-19,-49,44,-69,-28
74,80,-26,0,6,-26,-46,48,-28,23
60,4,-19,-43,-29,-19,-30,109,82,117
-52,-82,-58,-34,5,17,4,126,33,23
80,14,14,-13,-2,-9,-44,40,-84,25
44,8,18,-7,2,3,-41,55,-50,1
12,19,39,14,20,7,-33,49,-65,-38
34,39,42,10,11,-14,-48,58,-47,-16
22,33,21,-11,25,-14,-30,76,-26,0
-58,13,-59,-16,42,7,21,137,39,2
-61,-24,-58,-17,29,1,12,102,61,37
39,72,74,44,37,-9,-31,5,-58,-26
14,89,94,44,24,-18,-38,1,-70,-48
-153,-53,-20,-3,4,7,11,88,53,-38
-207,-139,-141,-45,-9,39,46,132,105,-14
-34,-12,-46,3,5,37,-20,4,-29,0
8,43,59,35,39,36,-37,-24,-100,-47
-7,21,-12,12,17,7,0,36,-14,-11
46,51,-117,3,-14,-14,23,31,29,26
87,127,-57,30,5,-24,-11,-13,-37,-11
115,114,-68,1,6,-8,-15,5,-18,36
7,0,-89,-43,-3,15,41,85,98,40
9,-1,3,-38,3,10,63,79,79,3
20,38,53,-10,12,0,54,40,14,-55
23,94,79,-14,17,1,63,65,33,-41
46,89,64,-20,-3,-7,70,90,49,-10
93,72,49,-25,-36,-14,45,62,67,17
80,50,46,-28,-39,-14,26,38,86,29
55,23,17,-29,-25,-10,9,57,101,19
34,5,14,-32,-19,-16,-7,58,89,14
25,-5,6,-35,-33,-24,-16,69,115,53
-23,-28,-22,-20,-7,-5,6,74,113,74
13,-16,-7,-18,-18,-2,9,35,65,116
37,51,86,35,18,25,5,-22,-133,-56
-24,30,109,38,45,43,29,6,-136,-64
-119,-19,79,42,57,39,15,31,-73,-52
-119,-14,54,20,33,15,-11,12,-45,-62
-44,-10,35,-7,3,-2,-35,-8,-40,-30
86,40,29,-19,-20,-51,-72,-39,-82,3
90,38,-6,-20,-40,-65,-72,-2,-11,69
33,-26,-99,-17,-29,-34,-45,28,19,91
-67,-105,-96,-9,26,28,-4,57,-8,14
25,25,3,8,25,15,-28,-32,-179,-102
46,55,9,-11,-25,-25,-59,-46,-135,-65
-55,-22,0,-18,-12,-4,-45,-8,-6,-18
-69,-43,-28,-40,-34,-14,-41,49,68,39
0,49,-34,-1,6,-17,-46,5,-41,20
-10,91,46,30,48,-3,-35,-1,-71,-22
70,87,86,12,1,-11,-18,24,-25,57
150,88,70,4,-13,-6,-11,48,-3,113
50,-16,3,-8,0,15,20,97,22,26
-91,-69,-5,-4,1,16,38,92,0,-106
-49,-13,29,-2,-11,-13,2,38,-8,-45
-98,-66,-29,-11,-2,-18,4,67,10,-12
-93,-136,-100,-43,-23,-51,-59,73,-138,12
124,-4,-48,-87,-110,-79,-19,97,86,204
113,10,-52,-53,-67,-27,12,67,126,205
-43,-5,25,29,47,53,49,-1,-35,-51
10,12,52,23,42,33,16,-38,-65,-98
41,44,85,41,37,8,-41,-86,-79,-94
23,30,71,37,38,23,-20,-50,-61,-79
-53,10,48,10,42,39,15,37,1,-76
-80,-2,45,11,21,46,27,65,32,-33
-12,58,68,16,4,17,12,28,0,0
-21,70,78,30,2,2,-7,-11,-24,-22
-9,55,69,31,2,-3,10,-8,12,-19
-38,8,18,32,22,9,33,6,22,10
-9,-4,-114,2,8,-3,36,29,64,74
-11,-15,-111,-40,-17,-4,72,126,161,76
75,107,47,4,4,-5,50,67,49,18
61,59,39,35,20,9,39,5,-84,-71
-47,-149,-70,-23,2,-13,-18,53,-139,-36
-92,-171,-88,-37,0,1,-31,82,-58,-21
-14,-67,-50,-41,-21,0,-6,56,95,47
18,-50,-12,-31,-18,4,-4,39,77,62
-37,-56,6,-8,6,40,4,44,41,4
-66,-38,39,15,25,21,-2,50,14,-49
-33,-61,-51,-36,-16,-3,-6,89,106,62
-9,-53,-71,-45,-18,1,-1,115,98,90
-33,-18,35,-9,17,8,-17,54,-26,-18
24,5,47,-20,-2,-19,-46,12,-42,10
8,4,59,1,23,-13,-46,23,-24,9
74,49,51,28,17,-12,-47,18,-27,28
175,117,53,34,-2,-24,-51,-6,-25,76
16,36,-23,20,21,9,0,67,8,8
-125,-50,-95,4,44,59,56,124,8,-76
-21,-10,-5,15,20,53,9,70,-16,-17
72,45,55,40,6,24,-34,10,-46,-8
90,71,32,45,6,-7,-44,-3,-64,-18
70,-5,-81,-14,-32,-27,-19,58,75,114
-82,-125,-65,-28,-11,14,41,111,82,37
-32,-27,21,13,13,2,18,27,-57,-70
-1,-12,30,4,-20,-17,1,22,21,-9
-62,-12,55,29,-5,1,13,19,44,-37
-81,-39,-1,17,-9,-3,15,44,53,-41
-62,-50,-71,6,-5,1,32,51,78,-20
-58,-20,27,37,9,8,9,2,28,-15
-20,-20,39,18,-29,-27,-20,25,58,12
-46,-19,20,7,-12,-10,0,65,69,-24
-27,-11,-5,-9,-8,16,13,71,73,4
11,-12,-9,-15,-25,24,8,51,47,-2
19,0,14,0,-17,33,-11,10,-26,-58
10,-5,3,-13,-25,12,-23,20,-15,-32
-13,-1,-20,-17,-15,-3,-21,32,-6,-29
9,15,-52,-19,-18,-22,-24,43,-5,0
27,8,-26,-20,-32,-35,-38,64,18,50
-1,52,-56,-14,-11,-24,-29,100,83,85
-31,30,-13,-20,1,-1,14,132,103,110
-38,-17,31,12,18,4,-5,43,-77,-19
-59,-18,19,24,16,-23,-32,-1,-125,-90
-45,-44,-46,-14,-14,-30,-18,49,-26,-16
16,-21,-115,-29,-46,-30,-15,64,8,41
65,10,-164,-9,-38,-16,-15,27,-31,10
78,26,-64,0,-27,-11,-27,5,-46,17
68,28,13,-13,-23,-3,-26,-1,-51,32
-15,-21,17,0,-7,12,17,18,-33,8
-16,-32,16,3,-8,7,28,42,25,45
37,16,18,8,-19,-1,-6,43,31,58
-15,12,41,24,-7,6,-23,15,-3,-16
-65,-37,-15,17,-17,17,4,50,61,-10
-71,-23,-19,12,-14,11,14,50,79,0
-50,31,44,11,2,-18,4,18,80,17
-38,8,8,7,-22,-23,18,33,103,40
58,12,-12,-37,-58,-47,17,76,167,141
245,113,29,-28,-54,-40,-26,9,85,139
188,66,5,-10,-31,-6,-23,-14,17,69
-13,-26,-4,19,18,29,24,7,-9,-28
50,91,78,59,28,11,-10,-68,-109,-76
118,140,58,-3,-9,-7,18,-1,37,76
34,106,50,-8,10,17,52,45,42,-4
-87,23,53,35,28,63,50,43,-20,-138
-85,17,70,64,28,56,23,13,-55,-130
-53,32,72,52,14,20,-14,-31,-87,-82
-6,17,43,20,-18,-13,-26,-15,-9,19
-15,-9,38,20,-26,-13,-41,-7,16,19
-117,-68,11,22,9,28,7,39,-11,-73
-240,-158,-48,5,41,84,66,106,-40,-181
-136,-123,-69,1,25,65,28,74,-40,-116
27,-8,-29,-2,-14,-8,-35,28,-52,-38
32,9,7,-1,-11,-20,-54,16,-71,-46
9,-20,15,1,14,-1,-45,29,-67,-45
0,-71,-29,-13,5,6,-16,66,-36,-13
-25,-92,-103,-11,19,28,-8,59,-31,2
-35,-39,-134,-9,30,28,-11,59,16,37
46,15,-79,-57,-7,-38,-1,95,102,166
30,46,89,27,25,-1,11,5,-106,-34
-70,-24,93,65,33,38,28,-29,-177,-144
-129,-117,21,16,2,7,33,41,-12,-12
-4,15,94,61,20,-20,0,-55,-131,-60
-9,16,54,43,14,-22,-2,-64,-141,-70
-185,-133,-31,-31,-9,8,54,58,28,-42
-190,-120,-9,-14,10,20,56,44,-8,-97
-28,-61,-18,-25,-18,-28,19,11,-24,-52
91,-38,-32,-58,-63,-62,12,24,34,15
133,20,18,-47,-64,-58,11,27,37,29
165,84,51,-22,-41,-44,-12,3,9,28
99,21,2,-39,-33,-34,10,58,107,82
42,-34,3,-29,-22,-22,18,68,129,70
131,48,54,-3,-20,-33,-20,18,86,74
139,30,14,-26,-38,-28,-54,-9,39,59
-31,-95,-55,-28,-18,29,13,19,24,6
-46,-82,-27,-14,-16,18,4,-3,0,-8
-29,-52,-17,-38,-49,-8,-8,30,63,11
23,-34,-2,-42,-63,-16,-21,24,106,100
-171,-154,-57,-37,-28,22,35,103,151,18
-223,-86,23,53,47,49,36,5,-12,-125
-28,107,136,95,67,16,-4,-97,-142,-108
18,121,102,50,52,7,3,-30,-79,-46
95,120,48,12,4,-12,-10,14,-18,-25
84,97,35,-2,-27,-21,-20,22,21,-19
33,52,-12,-8,-24,-19,-12,41,67,0
27,3,-71,-33,-33,-32,-29,52,128,68
66,9,13,-2,-8,-42,-56,-9,49,27
53,31,17,16,39,-25,-40,-34,-42,-26
14,-30,-121,-50,1,-27,-15,39,61,75
-32,-36,-20,-14,21,-7,-11,9,-15,-1
52,30,26,-21,14,-19,-15,9,-74,-50
119,40,11,-46,-22,-28,-19,51,-53,1
83,1,-8,-42,-14,-9,-28,64,-37,37
16,-14,12,-5,15,6,-21,41,-54,17
5,5,43,30,33,14,-13,25,-85,-14
-40,0,41,39,57,26,-15,19,-88,-53
-94,-37,-39,34,52,17,-19,10,-75,-61
-75,-37,-142,20,25,6,-15,14,-52,-42
9,-5,-99,5,6,-3,-21,28,-55,-23
99,32,-13,-4,-13,-15,-37,36,-51,14
82,0,-11,-35,-30,-12,-23,49,1,34
66,-16,-7,-25,-9,-10,-16,34,4,33
62,30,-14,5,18,-9,-15,19,-35,10
33,64,28,0,32,-1,24,44,-1,16
-1,21,39,-6,19,3,30,38,13,2
-29,-34,4,-6,15,15,36,34,4,-23
12,-9,-18,-14,-11,12,50,61,28,16
74,41,3,-11,-20,4,47,47,31,68
43,28,11,7,2,6,41,33,29,58
-75,-65,-48,-6,9,26,76,107,84,1
-35,-28,-15,0,23,35,51,62,15,-14
32,38,56,30,45,41,-11,-24,-72,-32
-14,-5,39,12,21,35,-5,44,7,-9
-105,-96,6,10,28,24,11,70,62,-6
-155,-106,-1,12,30,2,11,69,85,-31
-2,-29,-6,-25,-39,-47,-16,51,117,91
86,-2,-11,-16,-34,-28,-4,33,44,39
5,5,28,4,-4,-13,10,27,20,-33
19,92,97,27,15,-19,-13,-18,-8,-15
-52,8,46,15,11,-3,7,2,21,6
-87,-49,-4,11,9,17,34,10,22,-9
-111,-56,-44,6,5,15,67,33,37,-32
-69,-37,-106,-14,-14,-5,59,32,29,8
91,43,-38,-25,-38,-34,-10,-10,30,115
87,49,-18,-10,-11,-22,-35,-15,56,128
126,93,37,19,4,-14,-37,-43,-8,125
79,77,73,42,15,13,-18,-31,-90,6
-83,-70,-25,-7,7,39,30,95,9,-23
-173,-122,-109,11,37,55,45,87,-33,-102
48,46,-68,32,13,-13,-33,-41,-146,-60
-56,-56,-33,2,25,13,13,22,-57,-58
-51,-95,-40,-22,15,23,42,57,-47,-77
77,30,26,-19,6,-17,-20,-6,-117,-62
131,73,64,5,-5,-33,-74,-42,-120,-33
153,16,-1,-50,-39,-45,-56,14,-13,89
16,-90,-114,-72,-28,-21,-6,69,50,87
-105,-133,-94,-25,9,24,38,68,-4,-32
-106,-116,-52,-40,-15,16,50,96,34,-3
-13,-11,16,-21,-13,2,-4,14,-50,14
30,31,49,-2,-9,-12,-56,-32,-55,32
-3,42,77,2,4,-18,-52,9,3,47
-67,-50,-4,-34,-8,-5,-10,107,102,87
-98,-103,-35,-20,14,36,14,83,70,31
-37,-12,32,29,32,48,-17,-15,-61,-87
18,28,82,60,41,28,-59,-71,-99,-102
29,0,49,35,15,0,-73,-42,-28,-11
157,43,12,-45,-65,-55,-82,1,86,180
114,79,34,-35,-58,-50,-62,44,126,137
-47,-42,-22,-22,-7,4,0,82,113,19
5,-50,-37,-23,0,16,-1,7,-38,-76
-6,-35,-11,-4,-1,19,0,0,-8,-87
-24,-38,-20,6,7,16,40,6,18,-65
-19,-43,-15,-12,-4,-3,52,27,86,-4
67,-26,-26,-40,-47,-32,35,51,177,113
128,30,23,-17,-29,-25,32,9,104,78
110,96,93,35,9,-9,20,-44,5,-14
36,26,52,19,3,-8,24,-15,9,-29
53,21,19,11,4,6,31,-22,-1,-3
62,54,-24,16,13,7,28,-36,-45,-15
-18,-18,-136,19,7,29,54,28,-17,-30
-57,-81,-108,-15,-28,16,40,100,78,15
-35,-40,-43,-2,-20,-4,16,83,60,3
59,63,8,28,-4,-30,-32,12,12,54
103,86,84,35,-8,-35,-57,-20,18,128
-87,-111,-48,-32,-16,4,5,78,131,111
-85,-69,2,27,37,37,10,-4,-85,-69
-11,35,91,75,48,3,-64,-93,-179,-89
-41,4,2,27,-2,-34,-68,-18,2,61
-59,-75,-88,-33,-29,-23,-11,80,88,78
62,-9,-24,-36,-40,-44,-26,45,31,-7
66,22,0,-19,-29,-41,-40,21,9,-19
-19,-16,23,7,-6,-29,-42,-2,-45,-63
-29,-22,59,40,22,-18,-24,-22,-90,-78
-94,-54,42,33,26,7,9,18,-42,-51
-34,-30,28,16,28,19,14,7,-53,-34
17,-29,-8,-17,-3,-2,22,34,-55,-23
-95,-46,-7,-6,9,9,29,73,-8,-56
-47,73,69,39,34,1,2,4,-116,-113
66,155,86,22,34,-29,-24,-24,-119,-40
71,87,31,0,14,-23,-11,-7,-53,-8
4,-1,0,6,24,2,-16,0,-18,-9
-5,16,25,20,33,4,-37,-37,-75,-20
64,74,25,8,-11,-25,-53,-52,-96,-21
13,48,-50,0,-10,-8,-19,-15,-47,-42
30,70,-3,-20,-6,-5,-11,-11,-10,-3
116,153,62,-13,-20,-25,-37,-37,26,110
11,71,33,-9,-23,8,0,43,112,104
-120,-40,-17,-12,-14,39,56,63,80,-16
-99,-61,-50,-37,-23,34,94,16,6,-48
-72,-8,-7,5,8,46,77,-59,-64,-101
66,102,56,14,-6,0,-14,-118,-62,-31
-7,-9,-14,-38,-27,-8,5,-30,94,62
-146,-130,-69,-53,3,40,68,66,143,-40
-32,-78,-22,0,40,49,56,21,27,-105
34,-49,-19,18,37,17,25,4,47,-37
3,-33,-9,1,15,-7,10,4,78,-15
43,-2,4,-9,-17,-24,-22,-18,74,46
61,39,58,31,6,-7,-31,-59,0,24
-3,15,64,51,45,18,0,-60,-60,-30
-104,-60,0,5,48,44,31,12,-11,-19
-136,-37,0,-8,57,52,39,52,10,-21
-92,5,42,19,58,20,6,-6,-59,-44
-73,-30,-6,38,51,-3,-27,-43,-98,-43
-87,-44,-4,20,36,-15,-15,-8,-18,-13
16,5,-1,-4,5,-21,-6,6,-23,-12
73,7,3,-6,4,-12,17,2,-69,-45
119,5,-4,-25,-17,-18,0,11,-54,35
68,24,17,13,6,1,0,-1,-79,-14
50,0,-17,-4,0,-11,-2,-7,-49,0
6,-31,8,-13,2,-13,-11,6,-16,11
-39,-46,11,-7,15,0,-12,19,-16,-5
-45,-57,-89,-14,11,-5,-12,34,-1,2
12,-9,-107,13,7,-18,-11,-20,-55,-10
73,25,-118,4,-18,-42,-5,-31,-42,44
46,11,-137,-9,-34,-51,3,19,51,94
33,23,-114,1,-9,-42,-34,0,5,69
-13,-26,-88,-13,1,-31,-18,11,22,65
-111,-50,34,30,34,20,41,20,-17,-65
-77,-12,94,52,36,13,26,-27,-55,-101
29,-15,32,-15,-44,-47,-20,6,25,13
-8,-15,21,5,-32,-14,-9,23,15,-18
-48,9,58,30,-11,0,-5,10,-6,-34
-7,68,85,18,-8,-8,2,10,28,49
52,90,64,-1,-26,-8,10,43,77,109
46,39,9,-6,-34,12,34,66,51,-2
48,20,-62,2,-37,15,19,44,28,-24
57,17,-15,7,-35,13,-18,23,37,-7
60,3,1,10,-38,13,-10,19,24,1
15,-17,-23,15,-38,14,0,30,37,-31
-19,-23,27,14,-16,13,-25,40,48,-23
-31,-63,13,-9,-8,11,5,70,93,12
-47,-108,-18,-16,-17,12,20,96,145,35
4,-33,34,2,-5,4,2,51,94,19
37,9,73,21,3,0,-10,9,16,-24
9,-24,17,-8,-20,-1,6,54,70,19
88,35,58,9,-26,-16,-12,17,51,39
-2,24,54,27,0,6,4,-2,27,-26
-64,31,21,29,32,24,35,6,54,-9
-3,47,84,23,27,19,20,-7,21,3
59,68,74,1,-15,-25,-10,-5,53,32
41,19,23,-13,-51,-38,-11,29,132,92
-18,-54,-20,-22,-27,-2,26,47,78,18
-7,-41,-28,-47,-30,-26,-1,47,62,18
-9,-30,-13,-51,-46,-57,-8,37,71,32
25,21,27,-30,-34,-46,-19,25,57,53
-60,1,44,18,16,17,7,-1,1,-14
-220,-131,-64,9,13,57,66,51,41,-64
-141,-105,-78,-14,-19,43,62,94,44,-22
185,80,44,-6,-33,-12,-22,-12,-112,12
251,104,59,-4,-17,-33,-46,-25,-124,12
85,-19,0,-28,-26,-25,-23,72,44,53
34,-19,-36,-16,-22,-13,-46,79,18,-19
28,26,-8,15,-4,-2,-74,6,-93,-86
66,25,15,-25,-46,-18,-67,46,-5,12
33,-44,-85,-67,-60,-33,-60,93,91,99
-122,-105,-91,-15,13,42,16,92,-4,-32
-18,-16,29,21,35,49,35,11,-120,-63
78,-9,9,-39,-22,-15,-4,23,-16,70
-28,-26,25,-13,-2,-31,-21,22,37,32
65,90,100,13,12,-61,-46,-29,-28,26
188,208,140,19,18,-60,-66,-57,-54,86
-26,7,-21,-29,12,1,2,34,79,112
-115,-101,-92,-41,-5,21,38,87,53,66
-105,-29,-9,27,13,36,42,28,-87,-47
-147,-48,-23,42,28,40,44,22,-104,-110
-108,-59,-31,12,13,34,34,49,-38,-45
-135,-73,-31,35,44,70,60,25,-76,-93
-36,-12,-8,16,43,57,64,-1,-112,-97
95,57,1,-3,6,30,33,-27,-126,-78
47,45,17,-2,-13,18,15,0,-88,-96
-5,25,29,3,-3,19,22,16,-70,-78
36,38,22,-3,-4,7,10,15,-35,-18
21,38,33,2,13,9,3,1,-14,-28
52,47,34,-2,24,6,0,-7,13,7
66,71,43,-20,18,0,-14,0,47,34
17,10,-22,-57,-6,-11,5,44,128,76
-45,-54,-58,-44,-16,0,19,78,154,70
41,17,4,-28,-29,-15,-31,21,93,67
1,10,17,5,-1,0,-23,-21,18,-3
-6,35,45,39,28,4,-31,-77,-48,-35
-84,-56,-38,-13,-5,2,-3,40,102,65
-68,-84,-75,-26,-1,14,20,71,117,102
20,61,50,30,52,24,-13,-28,-79,-31
-74,74,102,59,78,14,-15,-32,-129,-158
-53,22,44,18,49,-8,-19,-29,-92,-122
-80,-44,-27,-4,19,-15,-35,-17,-38,-68
-72,-76,-107,-29,-15,-16,-35,15,20,-5
-28,-56,-145,-38,-14,-9,-25,9,19,15
-78,-55,-82,-15,2,1,-21,13,-5,-39
-35,-45,-126,-27,-11,-16,-25,33,39,-2
43,-18,-80,-32,-27,-18,-23,26,57,47
108,15,-83,-1,-31,-15,-53,-5,34,84
128,43,-56,5,-27,-38,-69,-5,37,69
195,93,33,-14,-53,-77,-53,22,73,107
40,23,-39,1,-33,-30,14,57,77,63
-31,0,-4,43,23,37,57,-3,-94,-56
-63,-2,32,57,57,63,35,-43,-160,-166
36,91,66,27,28,-4,-11,-43,-79,-48
-1,29,29,0,2,-16,9,-5,-60,-47
-65,-49,0,-11,-2,0,5,19,-41,-64
-88,-32,26,14,22,14,-28,-9,-63,-73
-30,-12,46,22,22,10,-47,-53,-106,-62
-61,-66,4,6,9,23,-19,-13,-41,-31
-68,-128,-20,-6,-6,14,10,23,23,33
-62,-70,12,20,9,22,27,-10,-14,-2
-73,-22,29,33,31,40,-2,-30,-41,-44
-100,-54,20,34,29,33,-25,-25,-17,-34
-129,-54,12,36,22,22,-11,-10,-10,-27
-90,-4,19,28,2,-1,-14,-11,12,20
-31,26,0,9,-3,-3,4,22,63,60
-55,0,-49,-1,15,14,37,46,81,23
-31,16,-31,17,28,20,5,-10,-14,-26
7,33,4,0,12,14,-5,-18,-4,6
71,23,-9,-30,-16,-7,4,18,44,48
63,22,-15,-18,-10,-2,0,9,37,20
86,69,1,-10,-26,-23,-18,-1,23,29
57,76,7,-2,-38,-40,5,-5,22,25
72,55,-50,-16,-53,-48,31,0,46,90
155,36,-64,-57,-79,-65,37,27,98,220
29,35,7,-18,0,-9,106,66,59,49
-93,53,71,46,63,39,108,38,-22,-61
-87,-13,-16,-7,7,0,66,65,83,64
-103,-29,-19,-1,0,11,78,67,32,-24
-114,-26,0,0,-8,6,72,63,-16,-52
-81,-19,-15,-27,-31,-18,49,50,8,1
-123,-36,-19,-29,-21,-8,35,57,32,-1
-104,-31,-30,-31,-8,12,20,79,57,-5
70,32,-31,-37,-22,-7,-29,36,10,36
190,51,-24,-51,-40,-36,-77,-14,-52,64
147,22,-24,-39,-28,-43,-79,-25,-50,49
102,-11,-18,-37,-34,-41,-59,-12,-21,62
74,-1,18,-10,-2,-10,-38,-17,-46,29
49,17,50,20,21,-2,-51,-22,-69,4
104,40,3,-1,-10,-31,-74,0,9,128
123,82,0,-4,7,-1,-57,2,38,139
-91,-39,-35,24,75,71,3,3,-65,-58
-130,-87,-16,21,58,57,23,-1,-129,-99
-83,-46,17,25,45,23,7,-23,-137,-88
-40,-27,11,7,11,-4,18,-1,-39,-25
14,-14,12,10,4,-25,-17,-14,-23,-13
44,-10,5,11,3,-17,-33,-44,-30,-24
24,-34,-9,-8,-14,-6,-25,4,61,19
-31,0,-7,-13,8,2,-6,45,74,-8
9,56,-27,11,28,8,-12,3,-28,-39
40,23,-93,19,15,-13,-27,-19,-30,2
-7,-9,-1,28,26,-2,-25,-26,-24,-5
-70,-40,53,35,33,18,9,3,-6,-9
-98,-40,64,53,43,37,57,5,2,-51
-7,19,83,40,27,19,62,-17,-24,-29
6,17,57,3,10,7,60,9,22,25
-59,-14,31,8,19,31,76,34,45,-3
-63,-42,21,4,14,29,61,32,4,-38
48,3,7,-17,-19,8,19,25,34,17
186,73,29,-19,-40,-8,-19,-21,20,41
189,65,18,-18,-36,-16,-42,-30,15,32
131,14,-51,-40,-44,-34,-39,-10,72,86
63,13,-77,-46,-52,-34,-34,-8,118,84
48,75,-25,-9,-12,-4,-17,-31,44,13
71,76,44,3,-2,1,2,-58,-12,-8
48,38,72,18,-3,4,9,-36,1,-13
63,42,76,11,-20,-13,-4,12,47,22
70,23,16,-37,-52,-14,24,128,183,98
-37,-48,-35,-26,-27,17,59,146,176,47
5,-19,-19,-13,-36,0,27,75,116,64
100,66,6,-17,-52,-31,-14,31,116,134
-23,15,15,5,-12,21,31,37,56,23
-77,-43,-9,-16,-12,38,69,72,10,-65
-85,-34,-8,8,23,49,67,22,-80,-116
-17,-10,-64,15,29,40,38,-37,-130,-93
10,-15,-7,11,31,30,28,-38,-141,-96
-42,-40,14,13,40,55,46,-4,-119,-104
-74,-41,24,20,46,49,48,-7,-114,-110
-84,-32,31,6,45,39,27,-29,-122,-113
-62,-56,-10,-31,9,16,9,-15,-76,-87
-31,-52,-35,-37,0,-3,-13,8,-52,-58
-16,-15,-6,-14,11,-11,-22,-10,-81,-63
30,24,13,24,11,-21,-62,-34,-93,-39
67,53,52,54,21,-24,-91,-53,-72,11
113,78,57,22,-17,-68,-103,-31,2,97
93,63,16,-16,-29,-59,-71,55,87,127
68,65,-1,-3,14,-11,-38,58,44,114
-48,-16,-1,22,46,35,4,40,-45,-61
-10,-27,28,18,17,-12,-26,-5,-39,-56
-40,-71,-7,-13,7,-8,6,42,33,-49
-93,-92,-23,-1,29,24,27,45,19,-106
-79,-116,-73,-47,-5,-5,10,74,91,-19
-48,-72,-31,-42,-5,-20,-21,72,82,22
38,42,18,3,15,-17,-59,-24,-41,-21
48,30,-43,-5,0,-20,-41,-32,-45,-31
-29,-21,-16,-6,5,-2,-9,10,-1,-58
-59,-40,-9,1,11,13,7,29,38,-32
61,21,9,-7,-10,-8,12,1,38,38
60,29,15,0,-9,-10,33,9,44,43
36,24,28,12,2,8,29,-6,18,6
19,29,36,-5,-3,-1,5,-8,57,36
84,64,48,-25,-31,-31,-19,-20,88,104
62,32,-4,-34,-41,-10,0,10,110,99
-67,-16,-13,4,9,26,-15,-9,59,-14
-38,5,3,-3,-18,-10,-40,-6,70,4
28,41,23,-3,-31,-32,-51,-26,76,61
81,80,41,4,-12,-37,-47,-36,87,113
0,4,-11,-31,9,8,53,90,144,74
-113,19,7,-6,45,47,104,115,60,-48
-61,79,70,28,42,27,53,4,-71,-94
-79,13,51,27,11,11,37,-12,-63,-84
-98,-10,41,48,15,25,46,-3,-83,-86
-118,-36,19,37,14,24,46,-4,-43,-52
-94,-24,32,41,5,11,26,-13,-3,-21
-126,-14,54,68,17,26,0,-4,-6,-47
-104,-50,1,18,-17,-2,-17,32,55,58
-82,-64,-23,-9,-54,-20,-30,45,77,100
-141,-57,4,29,-9,33,-23,29,4,-48
-30,-7,16,20,-7,4,-54,-18,-31,-38
194,83,-24,13,-32,-26,-83,-63,-55,20
238,74,-59,2,-37,-46,-61,-82,-54,45
123,-8,-27,-15,-35,-37,-41,-73,-76,31
21,-27,-9,-7,-14,-7,-7,-56,-120,-45
-33,-12,-7,-13,-2,-4,17,-20,-67,-18
-107,-57,-35,-5,0,7,30,-7,-13,-10
30,70,35,34,3,-16,-53,-120,-115,16
133,108,47,7,-29,-37,-107,-112,-84,117
16,-8,-57,-19,-26,2,-46,16,11,53
-107,-88,-63,18,23,57,36,43,-48,-120
-114,-87,-40,22,21,18,42,-3,-71,-116
-49,-48,-104,-14,-14,-29,19,15,8,1
15,-27,-136,-26,-37,-34,-4,16,61,70
-5,-52,-54,-17,-28,-6,-10,8,61,56
-92,-78,-35,-7,-3,21,-15,10,23,-24
-48,-27,-9,-5,-12,17,-18,3,12,-10
12,19,4,5,0,11,0,-5,3,15
68,60,-25,22,16,9,-2,-14,-30,-1
84,46,-140,14,10,7,27,-9,-44,-44
38,-12,-86,0,-2,1,38,-11,-45,-73
-56,-73,-33,-2,-21,0,51,-16,-16,-88
-53,-47,-14,-13,-25,-10,44,-34,-17,-41
-44,-41,1,-11,-20,-6,19,-52,-18,-22
-64,-47,8,-6,-6,9,3,-43,-11,-18
-48,-8,26,15,10,7,-8,-29,2,-20
22,61,49,39,19,-5,-6,-20,10,0
91,114,27,36,14,-17,-15,4,24,40
81,100,67,18,13,-16,-5,17,45,53
89,81,63,13,-5,-19,-29,14,63,74
146,82,-19,-5,-27,-23,-41,25,51,61
158,66,-41,-17,-4,-1,-34,2,3,11
105,27,-23,-30,2,3,-18,-3,14,25
70,7,-67,-40,-12,-1,-12,15,41,67
1,-38,-178,-50,-10,-5,4,40,80,75
-93,-78,-179,-32,9,17,33,71,99,41
-69,-52,-74,-30,0,16,30,60,89,68
36,56,86,16,24,9,-4,-41,-45,15
39,84,107,27,29,-11,-22,-80,-103,-15
-9,26,53,-1,13,-8,-9,-37,-17,30
-48,-16,48,3,18,9,-20,-16,-5,16
-103,-42,42,3,19,14,-8,4,1,3
-57,-19,3,-18,14,5,-3,8,-10,3
53,10,-32,-27,-2,-10,-9,17,-31,31
129,30,13,-24,-19,-10,-30,20,-39,44
108,2,15,-26,-24,-10,-45,28,-16,61
76,-4,14,-15,-22,-14,-49,11,-30,42
39,4,26,-11,-15,-11,-38,8,-19,40
-12,-36,7,-26,-21,-10,-30,34,66,61
34,-26,-10,-34,-43,-40,-37,33,80,106
102,79,53,-1,-10,-52,-48,-25,-20,66
104,74,50,-12,-4,-36,-52,-55,-30,89
67,-29,-15,-38,-47,-26,-43,-33,16,128
11,-23,-24,11,11,16,1,-47,-71,25
2,-33,5,18,29,12,4,-31,-70,45
-24,-85,-35,-34,-11,-8,13,63,3,69
-79,1,70,41,38,16,13,-9,-121,-145
-79,23,82,27,18,-8,31,21,-29,-91
-73,-66,-65,-59,-65,-58,32,112,170,57
11,-71,-162,-101,-108,-84,8,105,235,175
4,-33,-63,-36,-27,-6,53,76,166,77
21,22,-32,-10,5,14,70,48,62,14
18,31,-66,-5,25,35,70,-12,-81,-63
-4,32,-68,18,32,29,55,-52,-136,-98
14,71,35,37,42,30,41,-68,-120,-61
2,87,91,24,61,37,40,-47,-100,-49
-26,36,67,25,59,56,10,-27,-113,-78
-14,38,16,37,34,52,-16,-42,-133,-77
15,50,56,45,35,46,-22,-39,-133,-81
44,57,66,24,23,35,-23,4,-65,-37
-25,-7,9,-10,7,36,-1,54,11,-7
-80,-32,-5,-3,10,21,5,47,20,-7
43,58,29,-18,-17,-27,-13,40,41,57
21,54,54,18,6,4,23,18,-9,-18
-122,-66,5,40,35,36,57,25,6,-85
-73,-106,-53,-10,2,13,26,54,62,-12
19,-10,9,6,6,0,-1,-3,-27,-45
-20,-13,39,27,25,18,-4,-34,-47,-75
-66,-81,21,20,25,37,5,-16,-3,-37
-50,-45,58,29,29,32,19,2,-7,-22
-16,-20,34,-6,-1,4,50,42,60,52
-11,-51,-9,-4,-13,7,48,30,52,60
-53,-73,-40,-30,-31,-10,46,78,111,43
-144,-89,-39,-29,-17,-5,34,97,144,-18
-221,-149,-127,-57,-11,-1,47,131,209,7
-129,-107,-177,-42,-9,-14,30,60,137,50
41,48,17,27,12,-22,-36,-86,-96,-22
21,95,113,43,47,-18,-34,-86,-137,-47
36,103,79,4,14,-45,-21,1,-13,60
-1,11,-32,-14,-20,-45,-22,59,81,94
-68,-15,-2,36,31,-1,-1,13,-47,-54
10,21,51,29,28,-13,-6,-8,-68,-34
-9,-13,15,0,13,-10,-14,38,6,23
27,11,6,-4,-1,-15,-21,34,-14,46
18,-27,-20,-26,-9,-26,-26,49,20,65
-118,-82,7,21,37,10,-2,26,-57,-111
-128,-82,11,15,20,26,-7,7,-66,-112
-80,-45,16,0,-5,4,-32,-3,-28,-41
-13,-8,26,12,-7,-13,-44,-23,-39,-5
40,3,2,3,-15,-28,-30,-14,-17,26
103,-7,-26,-15,-34,-41,-27,0,33,73
47,-41,-50,-2,-23,-21,-31,5,4,2
32,-32,-31,-15,-41,-38,-32,16,13,12
41,-16,-25,-2,-31,-34,-31,-4,26,40
0,2,23,21,-20,-33,-44,-25,-6,1
-7,-10,41,28,-15,-36,-40,-29,-8,-9
-51,-30,22,27,-15,1,-16,-1,16,-16
-27,-21,10,2,-28,-10,-6,30,95,62
-39,-27,3,-2,-13,-1,9,32,128,91
-117,-48,-15,-6,3,34,33,66,107,15
-65,31,15,0,27,23,15,33,65,-37
70,77,12,-25,-17,-18,-41,-23,50,-5
110,26,-36,-53,-63,-21,-43,-27,78,58
52,-17,-41,-33,-46,9,3,-11,91,43
16,-19,-24,-8,-17,35,34,-22,27,-5
55,-1,-29,-21,-26,33,12,-19,-20,-2
54,24,-14,-6,1,42,15,-21,-57,-37
52,67,22,35,38,48,30,-23,-101,-104
43,51,28,26,19,35,14,-9,-57,-85
38,60,41,25,8,6,-17,-28,-10,-54
43,60,33,13,-1,-8,-29,-29,8,-15
23,21,10,-2,-4,-14,-24,-8,46,21
4,-28,-21,-18,-6,-17,-11,10,79,40
53,5,-12,-6,3,-15,-23,-40,5,20
64,47,16,2,22,-9,-24,-53,-37,-8
24,66,35,12,34,0,5,-20,-18,-37
-29,2,1,7,14,1,10,-6,29,-17
-25,-30,-29,4,6,0,-2,-4,39,17
19,2,3,19,17,4,6,-43,-31,-16
42,9,-48,6,12,-1,0,-33,-18,-1
15,-3,-150,11,15,5,7,6,13,-24
13,23,-67,18,19,0,8,1,-10,-33
21,40,29,0,10,-14,5,0,-3,-3
-3,2,28,13,6,-8,4,-9,-3,-10
-15,-14,18,16,11,-6,0,-19,7,-3
26,3,0,-4,-1,-17,-25,-5,21,34
-11,-41,-27,-8,-2,-19,-31,13,45,23
-45,-46,-8,2,4,-21,-30,-10,24,-8
-37,-45,8,-15,-5,-27,-37,-12,39,-6
-46,-25,13,-26,-5,-30,-40,-7,44,-16
-48,-31,-30,-23,-17,-19,-27,13,39,8
-130,-78,-16,0,-5,12,4,23,8,-39
-115,-55,16,9,-2,14,36,0,-24,-45
1,10,22,13,-15,1,19,-25,-46,-3
48,-4,1,2,-11,7,5,-21,-55,-14
23,-28,-5,1,-2,19,21,1,-49,-42
48,34,21,3,-6,13,0,-15,-64,-56
106,82,19,-26,-7,3,3,8,-19,1
119,108,26,-11,-6,-1,15,6,-44,-5
82,55,-14,-21,-27,-23,7,15,6,15
29,-9,-23,-31,-28,-23,9,47,33,28
-87,-109,-63,-53,-6,23,55,83,44,18
-39,-75,-26,-19,-8,0,25,34,8,24
65,33,42,5,-7,-16,-26,-29,-76,-22
26,18,21,-13,0,-9,-20,21,-20,-28
13,-4,-13,-18,39,-34,-12,42,51,25
-48,-20,-96,-5,76,-25,-11,37,27,-20
-116,-60,-149,-6,103,0,2,54,38,-46
-46,-27,-67,-20,111,-4,-1,41,33,5
63,43,25,-7,106,-6,4,11,12,10
13,27,35,4,116,-8,8,31,33,-3
-30,18,41,24,124,13,5,31,34,-15
-12,49,68,19,121,7,27,14,31,-4
64,92,80,29,87,-28,6,-23,12,62
-21,15,2,10,64,-26,20,29,64,61
-116,-20,23,14,76,6,74,51,66,2
-61,45,53,23,77,7,63,20,26,33
-98,41,-2,34,77,12,52,14,45,24
-160,-10,0,30,84,36,52,57,114,28
-179,-22,52,36,105,45,57,81,92,-11
-78,25,76,12,86,15,68,61,63,-29
113,40,29,-33,1,-28,50,47,98,65
174,30,7,-35,-23,-19,26,11,38,53
124,35,19,-1,-4,-2,24,-4,-17,-6
-56,3,66,59,73,38,66,-15,-60,-103
-92,-31,30,31,55,26,69,45,46,-36
44,-43,-71,-56,-26,0,66,128,152,80
169,-5,-71,-65,-34,-7,24,66,31,46
155,14,-31,-44,-32,-20,-25,24,-23,15
135,45,17,-10,-28,-26,-67,-21,-57,-42
80,14,19,0,-34,-41,-88,-56,-60,-48
20,-28,6,0,-31,-35,-85,-67,-42,-16
-7,-24,4,35,12,-1,-63,-103,-105,-60
67,44,-12,47,21,12,-60,-140,-189,-49
61,71,42,47,30,40,-43,-86,-194,-40
0,33,33,25,15,30,-18,-30,-136,-52
-24,-7,4,-7,-13,9,-19,1,-68,-42
36,43,27,-31,-37,-4,-33,-17,-51,24
90,114,81,2,-11,0,-45,-61,-124,-6
23,69,70,17,0,17,-26,-28,-90,-34
-32,0,18,-9,-12,23,-13,-17,-67,-24
-115,-76,-16,-19,-6,28,20,21,-32,-77
-131,-44,15,-19,27,25,25,44,-4,-74
-76,-20,32,-5,27,17,-25,14,-7,-46
66,-28,-15,-27,-15,0,-48,16,48,38
144,-46,-59,-53,-40,-9,-47,39,78,120
82,-33,-37,-25,-27,2,-41,24,41,29
-19,-34,-2,-1,-10,14,-36,12,15,-42
-98,-59,7,8,10,24,-40,3,13,-52
-21,-10,21,22,16,20,-60,-55,-15,-10
-40,-32,0,2,-6,23,-39,-8,34,8
27,26,-16,16,-7,24,-33,-34,-33,-7
-29,18,-93,28,20,53,0,-53,-122,-97
-68,-28,-128,6,11,56,51,-8,-64,-109
-47,-20,-49,-8,-10,33,43,5,-12,-62
-46,0,15,7,5,28,26,-5,5,-58
-85,-4,32,13,16,38,49,19,64,-41
-138,12,27,-10,19,37,79,87,141,-13
17,97,63,-7,-14,-16,24,14,45,0
28,31,30,-8,-43,-27,15,-8,35,6
-53,-40,14,-2,-32,-10,34,8,70,12
-17,-59,4,-12,-21,-10,-5,0,93,90
98,28,39,4,-29,-33,-71,-47,23,107
90,37,0,1,-32,-8,-65,-43,-6,64
-3,9,-52,25,9,43,-19,-50,-92,-70
-12,0,-120,16,-3,37,-14,-37,-73,-49
-22,-24,-75,2,-22,35,-1,-6,-17,-7
-41,-44,11,1,-24,28,17,-2,-7,-28
-38,-38,45,5,-16,18,-1,-17,-11,-64
-48,-63,22,-11,-24,6,-17,1,-12,-75
-13,-56,-6,-27,-31,-11,-26,3,-10,-54
39,0,7,-24,-31,-27,-3,-15,-22,-25
60,16,23,-24,-52,-29,9,-3,14,21
12,-22,16,-21,-42,-12,3,7,30,13
16,-10,33,-11,-23,-5,-16,-17,-17,-10
72,37,54,-15,-27,-17,-36,-25,-26,1
38,22,-3,-13,-9,-5,-24,-7,-6,-7
-36,-83,-128,-33,-15,7,25,33,41,-1
19,-64,-65,-41,-29,-4,49,35,15,14
65,41,36,-14,8,-9,48,2,-51,-2
-17,27,35,-2,22,-8,32,32,0,14
-56,-31,2,-22,-7,-13,7,57,107,67
-15,9,50,21,0,-11,-17,-14,42,22
21,25,64,30,2,-7,-14,-21,0,27
-20,-3,42,9,-3,-6,21,16,35,9
-52,-17,6,8,-5,-5,40,31,84,1
-10,-18,-44,9,1,-10,46,0,32,5
-64,-66,-17,26,12,0,59,4,20,-7
-103,-92,5,11,-11,-7,51,34,48,-34
-72,-63,-8,2,-17,-26,24,26,52,-37
-76,-52,-15,0,-17,-7,16,32,88,-12
-93,-45,31,11,-4,3,28,20,82,-6
21,34,39,9,-25,-28,27,-25,20,7
59,44,15,0,-34,-23,41,-16,18,8
24,44,32,6,-8,-9,38,11,8,0
-12,11,23,5,-7,5,19,38,-6,2
3,7,26,25,-15,9,3,28,-17,-5
77,62,68,33,-21,-5,-36,-26,-55,15
64,62,31,16,-21,-1,-25,-2,-32,20
-1,22,17,8,-11,7,-7,1,-19,5
35,26,2,-18,-31,-11,-43,6,21,64
76,42,-24,-18,-34,-10,-57,12,12,86
56,55,-25,6,-11,-3,-35,20,-16,79
75,63,26,34,-11,-25,-36,6,-48,50
133,69,12,56,-15,-36,-79,-58,-106,22
43,2,14,48,-7,12,-60,-38,-88,-18
0,-72,-71,-31,-61,22,-30,60,0,17
-22,-72,-97,-18,-51,19,-16,41,-76,-53
-62,-76,-20,4,-18,20,-16,13,-86,-60
-44,-55,-7,-5,-1,5,-16,13,-55,-11
-2,1,-64,0,-9,0,-30,1,-59,-11
53,50,3,-1,-13,-11,-28,-16,-42,-9
49,30,41,-4,-12,0,-10,-25,-2,23
33,16,-1,7,-3,3,-11,-25,-20,22
138,63,-72,-4,-16,-8,7,-28,-62,-11
222,78,-1,-23,-41,-20,21,-29,-61,-11
139,57,36,-11,-37,-33,24,-15,-28,-18
72,67,43,-16,-12,-44,33,-4,19,13
32,46,53,-33,-5,-46,31,-21,26,22
-9,-26,28,-22,-15,-30,31,-25,20,-6
-13,-32,20,0,-11,-14,36,2,17,-9
-28,-36,26,18,9,6,26,19,27,-18
-25,-51,0,1,0,8,5,27,49,4
-49,-56,-22,-7,0,4,26,16,57,4
-43,-23,22,20,31,13,41,-21,20,-37
-30,-24,14,5,15,13,39,1,40,-14
-50,-32,2,0,18,14,30,0,27,-20
-23,-7,0,4,16,12,17,-5,24,-8
-1,-5,1,-7,-10,1,12,23,53,39
-41,-15,20,18,2,2,-6,21,15,-5
-58,-39,17,12,-12,-15,-27,26,17,12
0,-5,15,-7,-20,-27,-36,20,32,76
-7,15,-10,-8,-22,-42,-32,23,17,55
-48,-18,-51,-5,-19,-30,-37,17,14,16
-57,-29,-11,5,-15,-17,-50,5,20,16
-81,-53,-15,-7,-16,-19,-47,32,67,48
-61,-23,-47,-3,-14,-14,-52,30,45,50
-48,15,0,23,-3,5,-49,6,-27,12
-52,21,53,38,7,15,-34,14,-21,8
76,111,93,48,22,9,0,-6,-13,39
72,89,54,7,23,14,29,42,50,55
94,32,-17,-30,-7,1,23,51,77,82
130,24,-112,-41,-58,-40,-7,25,75,88
64,-16,-152,-16,-36,-30,-24,7,57,6
21,-45,-70,-8,-24,-12,-29,13,-14,-56
15,-17,6,7,-10,3,-43,-5,-74,-63
-11,-30,3,-2,-6,19,-18,39,-32,-35
-35,-32,9,-1,1,29,11,27,-41,-36
-16,0,46,15,10,33,2,-23,-128,-81
-36,6,34,11,9,29,-16,-19,-104,-99
-14,-8,23,-10,-4,6,-3,-8,-84,-64
23,0,25,-17,-14,-6,8,-8,-61,-18
-19,-23,3,-11,-11,13,16,21,-29,-17
-59,-30,6,-9,2,24,30,22,-17,-51
-70,-34,22,-7,22,22,21,19,-1,-40
-30,-16,36,7,16,12,-6,-25,-38,-41
-22,12,35,10,15,11,-6,-38,-54,-55
-10,-22,-16,-31,-7,7,-3,15,43,23
-2,-61,-74,-52,-24,2,-3,64,90,63
-38,-41,-9,3,5,8,-23,25,11,2
15,-10,34,-4,-6,-17,-53,-1,-33,0
78,33,33,-19,-16,-33,-60,8,-32,48
78,57,37,-25,13,-16,-39,7,-8,53
34,-20,-22,-44,-3,-1,-13,42,76,60
-21,-40,-13,-10,17,31,5,47,65,-9
44,36,25,-5,-4,2,-23,0,49,33
67,31,12,-15,-36,-14,-39,-5,79,103
-12,-40,-30,-29,-36,4,-7,44,133,99
-159,-87,-34,2,11,48,26,56,103,18
-104,-18,20,40,36,49,6,-9,-13,-31
-47,10,34,48,20,29,-7,-32,-42,-20
-30,12,16,39,-9,3,-8,-29,-16,12
-10,20,-32,11,-28,-8,20,-25,21,33
-113,2,15,33,11,31,63,-9,-20,-56
-93,18,23,43,23,45,46,3,-42,-69
-5,17,-13,24,10,57,37,43,-17,-24
-11,4,-74,4,32,63,54,58,24,-15
63,82,-8,-7,24,15,26,31,41,18
107,114,29,1,10,-15,-3,-19,7,12
-11,0,21,19,9,-13,-19,-7,-66,-34
-73,-22,12,14,15,3,29,34,20,-42
-106,-63,-14,2,18,21,51,49,11,-59
-6,-5,-81,-6,-12,0,61,33,36,7
30,18,-34,1,-12,-4,52,19,55,17
36,17,2,-4,-7,4,65,14,61,30
44,29,8,19,6,9,78,-1,48,25
-13,-4,13,25,15,24,53,-11,32,-9
-26,-23,-13,-14,-14,12,61,27,71,-3
16,20,19,3,-3,9,34,-13,25,-20
26,31,34,0,-6,5,5,-30,24,-32
-1,0,-6,16,4,15,-5,-13,35,-25
22,15,-61,22,0,0,-24,-37,1,1
50,7,-22,-15,-22,-34,-30,-12,58,80
-8,-18,14,-4,-5,-30,-35,-7,66,64
-11,23,52,15,4,-21,-11,-12,11,0
-103,-16,22,-13,40,12,66,56,76,-3
-89,-20,-10,-37,49,20,102,55,84,18
10,40,27,-4,32,-6,49,-43,-26,-10
28,75,67,30,32,-25,24,-82,-51,-15
-42,19,35,24,17,-11,30,-31,10,30
-57,-28,-3,-14,0,-1,27,25,67,86
-77,-26,-4,-9,0,0,30,41,81,69
-117,-45,5,16,19,3,31,34,65,30
-179,-57,33,28,38,24,28,18,36,-25
-87,4,54,17,25,-5,-4,-9,10,12
52,67,10,10,13,-33,-41,-41,-64,5
100,38,-145,-30,-13,-42,-35,-4,-23,-20
97,19,-180,-37,-8,-18,-10,4,-21,-37
115,44,-119,-47,-21,-9,-14,6,-31,-3
50,13,-13,-35,-6,2,0,14,-17,0
33,38,31,-29,4,1,-10,-8,-25,33
38,6,-14,-35,-3,-6,-27,-1,-59,19
56,13,37,-9,2,-11,-37,-28,-118,-27
107,33,57,-4,-13,-27,-29,-24,-108,-3
98,43,61,3,-16,-26,0,-4,-117,1
42,5,38,-6,-5,-11,27,48,-73,7
30,0,14,-11,-6,-9,23,50,-45,20
42,34,33,-5,4,5,7,12,-65,-1
31,50,46,7,32,17,-6,-24,-81,-22
-43,-20,38,39,31,22,10,-35,-71,-55
19,-1,31,22,-4,-10,-3,-38,-58,-14
33,25,19,15,-23,-16,-30,-35,-37,-4
0,22,13,18,-19,0,-22,-17,-37,-20
1,14,7,14,-13,14,-22,9,-10,-24
35,38,18,17,-10,10,-38,9,-13,-11
36,67,27,22,-3,-2,-39,5,-11,4
-47,-6,-19,3,-14,9,-4,39,69,15
-15,-38,-30,-11,-28,7,-3,35,69,48
14,-48,-89,0,-34,3,-2,17,8,5
-18,-76,-171,20,-25,16,-8,27,16,-15
-63,-105,-107,20,-11,23,2,39,72,0
-25,-63,5,28,-5,15,-15,-8,38,16
24,8,53,24,1,15,-21,-19,6,27
4,48,58,14,16,16,9,43,60,25
11,21,23,0,5,22,-14,52,74,29
25,0,14,17,-15,15,-29,9,28,9
0,-1,21,21,-10,10,-16,-4,17,15
-34,-26,17,19,-1,19,1,5,20,-11
-39,-21,8,18,-7,13,11,23,33,-29
16,16,17,6,-17,-6,-18,13,29,1
0,11,28,6,0,-14,-23,-3,7,-15
-54,-45,4,20,6,-2,-3,6,14,-54
-28,-45,-21,2,-19,-7,-15,23,40,-25
42,0,-31,-8,-22,-10,-20,36,22,-13
64,4,-64,0,-17,-1,-5,23,1,-24
40,0,-13,10,-11,-7,-15,14,2,-20
25,10,-1,6,-13,-15,-27,19,14,3
34,26,-47,-4,-20,-14,-10,33,28,3
48,8,-8,-8,-12,-10,0,16,9,0
4,-29,-35,4,-7,-10,8,3,-8,-5
-29,-39,-96,10,-9,-10,8,12,-15,-9
-52,-47,-28,-3,-14,-9,0,19,-5,0
-61,-35,37,11,-3,-16,-13,-9,-38,-16
-26,-14,61,11,-7,-28,-10,-32,-79,-10
-17,-4,16,2,-20,-14,18,5,-49,-10
24,31,-3,-13,1,-2,49,46,1,21
49,56,1,-13,6,-6,29,38,-12,24
73,34,17,-3,-10,-11,-11,1,-42,20
67,23,24,-3,-20,-5,-25,3,-25,25
59,18,26,-7,-29,-14,-27,24,-6,45
40,-21,12,-8,-28,-12,-23,46,7,61
-33,-70,-11,-7,-14,19,-6,58,17,31
-23,-31,-4,-12,-19,15,-19,59,24,32
-2,10,31,0,-14,2,-28,33,-12,10
-32,-8,8,7,-2,14,-11,27,-8,11
-52,-25,28,19,17,30,16,29,24,41
-58,-27,22,23,28,15,28,17,13,18
-50,10,0,24,13,-4,2,-13,-34,-8
-39,28,41,22,2,0,16,-10,-17,0
-76,2,-11,4,13,15,90,35,25,-14
-35,9,-35,-17,10,-3,109,61,37,0
19,-6,-94,-11,9,-10,78,7,-20,-40
48,-14,-3,-8,0,-13,48,-3,-13,-29
35,-29,18,-31,-14,-20,26,25,48,20
-19,-33,28,-8,6,-4,21,24,51,16
4,1,37,-1,-6,-15,14,19,56,31
73,54,40,-19,-30,-30,10,1,80,78
92,102,51,-19,-24,-28,1,8,119,101
98,89,33,-63,-19,-25,45,74,161,144
120,76,28,-28,-19,-42,31,20,81,103
68,44,-34,-9,-9,-29,31,-4,70,63
28,-22,-38,-58,-21,-14,74,72,153,97
-52,-86,-41,-35,2,6,96,93,119,1
17,-59,-13,-23,1,-12,26,35,60,-12
104,-5,-8,-36,-12,-15,-5,-3,28,2
-1,-28,-16,-20,18,26,40,26,-15,-46
-44,-52,7,-5,30,54,49,45,-69,-71
-45,-39,54,30,53,72,53,-6,-158,-120
-37,-17,69,41,61,64,30,-41,-197,-127
-29,-11,56,30,64,49,9,-4,-177,-120
-6,16,94,75,93,37,-40,-62,-211,-149
-6,6,82,66,70,4,-66,-61,-156,-108
-7,7,72,45,46,14,-30,-33,-125,-65
-6,31,71,22,36,1,-35,1,-86,-28
-16,12,35,15,24,-5,-57,9,-71,-5
-74,-32,-24,4,23,16,-64,11,-62,-24
-57,-42,-44,0,16,6,-54,0,-71,-40
24,-1,1,8,1,11,-83,-47,-131,-47
32,-12,6,-12,-15,1,-94,-33,-75,-10
-21,-23,-13,-6,4,3,-75,-12,-45,-17
-29,-31,-86,-8,20,3,-71,-6,-54,-23
20,-35,-59,-23,4,-11,-74,-21,-39,26
61,-2,2,-15,-3,-10,-63,-35,-44,44
-2,-47,-34,-31,-19,-18,-37,29,53,88
-90,-84,-52,-30,3,2,-10,47,65,36
60,29,-5,0,-2,-21,-51,-44,-52,11
61,37,-34,6,-8,-18,-57,-35,-35,14
-53,-21,-90,16,19,13,-8,1,1,-28
-21,30,-29,36,22,0,14,-40,-7,-8
56,73,64,41,-2,-16,-30,-91,-46,17
-74,-51,12,17,13,22,10,-40,-7,-30
-135,-116,-52,-28,1,22,19,39,75,-7
-72,-88,-56,-47,-9,12,0,48,78,11
-19,-22,14,-26,-11,0,-25,0,16,-15
-19,4,32,-5,-17,0,-20,15,41,14
-66,4,14,-8,-4,14,2,88,99,36
-22,33,30,-6,11,22,-14,55,46,41
13,9,-20,-13,-6,9,-28,18,26,48
-19,-47,-107,-2,10,42,-11,20,9,17
-1,-35,-31,-2,4,30,-4,-3,-13,-18
0,-8,0,0,-1,8,-1,-21,-30,-9
-4,-3,0,-31,-31,-11,-25,0,22,58
43,48,13,-44,-52,-25,-44,-3,60,87
15,19,-3,-27,-33,-1,-14,11,55,54
-9,0,-8,-13,-19,0,-8,0,38,33
23,35,25,0,-18,-13,-12,-37,0,23
-49,-18,23,-12,-10,12,33,-9,15,-24
-48,-23,37,-11,-5,32,49,-5,12,-21
-4,-1,42,2,-20,16,26,-13,-2,-14
-11,-16,14,-12,-40,9,27,20,43,8
-26,-1,18,-9,-31,10,28,18,55,5
-36,-19,15,13,-25,0,22,6,46,3
-39,-13,13,34,-8,0,14,-1,20,-2
-31,-24,14,16,-12,-7,8,-7,24,25
-93,-60,15,15,9,-2,-2,-1,7,-3
-114,-62,32,29,31,12,-8,-10,-22,-35
-96,-50,-13,14,14,18,-9,3,-2,1
-115,-23,-12,9,40,21,4,33,1,3
-81,3,29,9,48,20,3,36,6,15
10,35,36,26,27,4,-6,-26,-28,1
169,94,-31,9,-5,-18,-19,-52,-41,25
201,76,-100,-5,-20,-7,-13,-23,-41,19
180,33,-39,-1,-24,-14,-25,-12,-48,32
135,18,-20,19,-19,-14,-22,-12,-50,15
77,20,2,10,-9,5,-2,-5,-51,-26
132,59,-7,-4,-14,-2,-11,-15,-61,-17
133,53,-20,-15,-29,-23,-10,-18,-36,29
103,53,-21,-9,-37,-37,4,-20,-29,36
37,43,-17,0,-16,-14,22,-18,-15,0
23,30,-4,-5,-21,-13,-3,-28,-31,-7
12,6,-11,-18,-26,-17,-36,16,-1,23
-62,-21,-19,-5,19,12,3,44,10,-13
-118,-22,-3,12,48,13,13,43,5,-49
-15,57,44,18,46,5,-2,5,-12,-6
-5,39,42,39,34,10,-20,-27,-44,-26
-37,-36,-4,12,3,14,-8,18,36,8
-25,-39,0,3,-1,15,4,44,37,14
-38,-26,12,17,24,17,1,29,5,-37
-7,1,-86,4,2,6,-10,9,13,-12
15,23,-83,2,2,7,12,-1,28,9
-4,8,-29,8,4,28,37,16,48,22
43,7,-17,-8,-11,16,26,15,34,17
44,31,20,-6,-14,8,13,8,42,11
48,39,29,-22,-19,4,13,8,58,46
44,36,5,-33,-28,1,21,20,78,58
-14,2,-38,-28,-14,1,36,24,75,11
-19,-31,-29,-29,0,-3,33,8,59,-32
-24,-30,-23,-53,-5,-7,24,48,85,-25
94,50,13,-38,-26,-34,-49,2,67,28
85,43,11,-24,-26,-32,-38,-1,80,33
-40,-17,-10,-9,-15,-13,-22,17,66,-31
-14,-5,1,-7,-26,-20,-52,-8,-9,-39
32,22,0,-30,-22,-14,-26,-17,-34,-12
23,30,4,-6,-2,6,23,-24,-74,-33
-29,18,45,20,32,38,55,-22,-117,-71
-36,48,50,26,55,52,51,-8,-116,-61
-6,56,43,12,31,33,18,-3,-79,-43
-17,4,17,0,10,14,-12,-14,-59,-38
-30,-26,0,0,11,12,-5,-13,-43,-36
-37,-30,-10,-5,11,16,2,-12,-30,-41
-26,-21,-13,-20,7,-3,3,-19,-17,-21
-3,14,-31,-15,8,-17,-6,-27,-29,-32
-19,27,-53,-7,14,-7,11,-13,-37,-43
-38,8,-39,-5,17,11,24,-2,-28,-34
-48,-5,22,-1,22,14,26,-14,-21,-19
-61,-2,-6,2,16,20,11,-44,-27,-9
-10,35,-5,7,5,2,12,-45,-18,10
-62,-8,20,-11,4,8,34,12,44,14
-61,-9,10,-17,-12,-5,37,25,62,29
29,59,-35,-19,-35,-24,29,19,58,47
-38,48,16,8,6,24,39,10,30,-17
-37,13,57,22,-1,33,1,-17,22,5
24,49,72,36,-9,6,-28,-53,-12,4
-31,21,-15,9,-15,0,-6,-19,18,-21
-43,0,-40,-10,-22,17,17,30,71,5
-76,-24,-81,13,-6,46,7,32,46,-13
-70,-20,-37,8,-12,22,13,38,61,10
-79,18,53,11,7,-2,8,50,61,3
-31,49,44,2,-2,-23,-5,15,19,25
-35,1,8,-5,-26,-16,-9,-1,9,0
16,18,25,-9,-25,-1,0,-5,17,-16
117,51,40,-20,-33,-12,-5,-33,8,-1
75,18,-33,-22,-33,-16,9,-11,29,-11
-10,-16,-116,-19,-21,14,31,19,29,-31
-99,-58,-93,-5,10,33,53,34,9,-41
-75,-17,17,20,23,20,69,19,6,-32
-12,28,94,39,31,20,25,-12,6,-4
88,24,82,7,-8,-14,-13,16,97,113
101,16,67,-7,-13,-11,-15,63,117,99
73,8,69,17,6,10,-8,37,52,36
95,16,50,19,-7,-16,-13,-2,54,52
107,-13,13,-3,-16,-20,-1,12,79,58
70,-2,10,0,15,-4,30,31,49,9
23,3,7,-7,30,-12,54,70,77,40
-3,-19,18,-4,27,-13,23,65,100,57
-33,-16,38,15,36,1,6,39,69,22
35,17,33,0,29,0,-7,21,47,33
104,42,39,-7,16,-12,-22,-3,9,19
10,-13,41,19,48,20,7,1,-10,-29
10,31,77,49,54,13,-38,-54,-96,-77
39,57,69,22,10,-35,-82,-75,-91,-24
6,-34,-41,-48,-24,-37,-51,19,25,27
28,-46,-68,-53,-21,-20,-17,75,38,10
50,-16,-32,-27,-15,-28,-25,44,-2,9
48,0,-13,-9,-23,-34,-35,4,-44,9
30,28,25,-5,-19,-23,-31,0,-78,-9
14,47,42,5,-7,-12,-15,-8,-79,-21
11,46,35,13,-5,-11,4,8,-70,-11
-16,7,19,9,-6,-9,3,24,-52,-9
-16,0,13,32,10,-5,-11,-16,-74,-26
4,9,-26,50,15,-1,-28,-56,-118,-28
37,31,-92,51,18,4,-36,-78,-163,-44
2,-9,-39,35,32,37,0,-38,-159,-79
-111,-95,0,33,55,79,39,5,-135,-129
-56,-45,24,32,65,77,30,-5,-115,-93
86,75,10,1,46,62,10,-12,-88,-44
100,69,9,-14,16,31,4,-13,-75,-47
25,-3,-1,-16,-18,8,2,0,-47,-30
-32,-34,-62,-12,-28,13,5,11,-10,-13
-3,-24,-67,-9,-33,12,-14,-4,14,7
3,-5,11,0,-41,0,-26,-20,-10,-3
-16,-17,-81,-10,-50,-7,-8,-8,5,6
-20,-12,-118,-27,-46,-24,-3,21,51,35
-52,-51,-42,-29,-41,-11,11,60,81,37
-80,-83,-34,-37,-36,12,17,70,88,66
-77,-50,15,-13,-10,20,0,26,76,44
-63,-3,56,23,4,31,5,-7,4,-10
-31,0,47,-5,-7,0,29,-11,-20,-1
-46,-55,8,-20,-9,-11,42,8,25,-4
-37,-29,24,-9,0,-5,42,5,22,-37
-30,-1,28,-19,-6,-16,-4,-4,28,-20
28,13,14,-28,-34,-31,-40,-15,28,12
92,19,8,-40,-39,-43,-50,-11,41,33
10,-25,0,-28,-13,-9,-12,0,43,1
7,-7,35,-3,8,22,7,-28,-34,-34
18,-3,40,-17,5,0,33,-25,-31,-20
-38,-58,21,-11,12,5,55,4,-1,-25
-85,-36,31,8,42,16,56,13,9,-32
-59,0,52,18,26,20,12,-34,-6,-26
9,12,28,17,0,3,-25,-52,-19,-15
-15,0,-19,10,11,10,-13,-20,14,-12
-35,-9,22,12,6,1,-22,-28,3,-13
-85,-57,-6,-4,-11,4,-2,5,61,4
-47,-53,-22,-22,-27,-2,9,25,67,10
26,15,20,-13,-19,0,-15,-1,23,0
71,39,27,-11,-9,-10,-29,-34,14,30
2,0,24,8,6,20,-21,-44,-9,-8
-38,-29,21,14,12,11,-24,-38,-23,-28
-22,-41,-5,-13,-5,-13,-13,-18,5,0
-19,-24,5,-24,-8,-27,-14,-14,-10,-29
3,-14,-27,-21,-13,-37,-30,-17,-1,-12
-11,-30,-97,-23,-22,-18,-28,-6,0,-4
-13,1,-50,-19,-9,-8,-6,26,43,12
-1,31,0,-29,-21,-28,9,44,94,60
-14,-8,-28,-19,-31,-19,14,4,33,-4
5,-22,-110,-4,-29,-11,10,-46,-35,-18
34,-13,-52,-9,-39,-24,-8,-44,-45,8
32,-28,5,-18,-60,-34,3,4,-13,32
-17,-50,9,-12,-27,4,6,-2,-52,-17
-35,-50,4,-15,-23,19,15,-9,-64,-30
-48,-74,-14,-11,-22,11,11,11,-25,-13
-58,-92,-8,-5,-20,2,3,13,-8,-13
-21,-74,3,-9,-30,-23,-30,-9,-12,7
-16,-58,-20,2,-28,-36,-26,-13,-8,24
-15,-43,-67,-2,-32,-23,-5,-13,5,27
3,-43,-6,-14,-36,-14,-6,-4,30,49
9,-18,39,1,4,0,-33,-29,-8,0
37,36,52,7,12,12,-24,-42,-15,-6
21,20,26,-3,3,5,4,-11,17,10
11,20,-3,-3,-7,-5,-23,-5,12,6
36,49,-59,-9,-14,-20,-37,-35,-13,13
46,48,-24,6,0,-4,-10,-52,-54,1
38,33,29,20,16,4,18,-24,-49,4
-14,5,13,24,26,0,44,16,-7,-27
-5,45,49,30,31,-8,39,-3,-13,-30
14,47,35,-16,29,-18,46,27,63,30
-21,12,23,-18,36,-7,56,22,61,-1
-27,17,44,25,29,-1,32,-27,0,-50
-42,-9,5,10,5,-15,26,-22,36,-21
-51,-45,-74,-24,-32,-32,6,13,81,52
-40,-34,-49,-22,-22,-25,13,14,70,50
-75,-30,13,2,-5,-7,10,19,45,-2
-48,3,37,9,3,-6,-15,5,28,-15
-23,1,30,19,7,-9,-15,-25,-11,-25
9,5,36,23,-2,-14,-27,-35,-38,-26
39,31,29,-8,-12,-21,-21,-5,-12,23
24,54,52,6,15,-5,8,-6,-38,0
-39,25,53,7,25,-5,8,0,-31,-17
-70,-4,41,23,42,-5,-5,-3,-27,-38
9,49,54,33,48,-7,-26,-29,-42,-24
67,54,21,19,24,-4,-17,-16,-25,1
41,5,-21,-12,-5,-13,0,4,0,9
-19,-28,-17,-22,-12,-10,17,13,12,13
-31,-19,-12,-14,10,-3,-5,8,-12,-16
84,45,12,-28,-10,-33,-47,-34,-45,7
45,3,-7,-49,-31,-35,-44,10,4,55
-65,-69,-61,-28,-3,5,-13,35,15,27
-114,-34,-42,-11,24,9,16,21,31,32
-97,27,17,1,29,-6,38,14,-4,18
-107,-5,43,38,40,15,32,0,-88,-49
-41,-11,24,27,7,-3,2,-4,-96,-27
10,9,-17,0,-24,-24,-11,24,-38,-12
86,41,-16,-16,-21,-25,15,18,-32,-11
130,44,-23,-11,-24,-31,2,-5,-35,7
70,32,-58,-12,-13,-10,-7,4,-32,-1
15,27,-20,-2,3,-5,-5,-13,-54,-15
21,32,0,5,5,-3,7,-40,-77,-2
-33,5,-4,12,4,17,27,-21,-50,-10
-44,4,5,8,-10,4,28,-13,-16,-5
-45,3,10,3,-11,-4,16,10,12,15
-108,-36,10,12,0,10,18,35,22,-16
-67,-9,22,5,-12,2,-1,27,44,-3
15,42,27,-8,-4,-6,8,37,48,17
61,65,46,-5,8,-12,16,6,23,-1
132,69,52,-2,-21,-25,-13,-42,-15,22
125,47,32,8,-14,0,-29,-61,-61,-1
37,-23,-34,-8,-17,23,1,-15,-21,-54
55,-36,-74,-41,-48,18,21,44,47,-17
54,-47,-100,-49,-63,8,21,69,99,38
69,14,1,15,-12,3,-15,-28,-53,-19
23,26,39,46,9,-6,-24,-63,-82,-73
2,-12,-8,13,-6,2,32,19,7,-26
15,-23,-4,-3,-6,9,67,49,10,-18
40,6,31,26,-8,-7,41,2,-39,-32
41,37,38,33,-13,-24,22,-32,-50,-51
13,48,42,26,-7,-22,-8,-40,-34,-32
44,76,32,7,-22,-30,-37,-30,15,26
75,95,32,0,-38,-53,-36,-3,39,40
64,54,6,9,-25,-36,-18,1,43,44
-6,-8,-28,20,9,9,20,11,38,3
-25,-9,9,34,19,22,27,2,17,-17
-40,-19,6,20,-4,13,-3,16,0,-8
-79,-75,-14,19,2,18,3,31,-5,-7
-69,-69,-9,36,11,27,-4,14,-26,6
-90,-48,16,36,31,43,-5,36,-20,11
-116,-31,26,31,49,36,-1,42,0,0
-136,-69,-47,19,32,23,-11,36,-1,-10
-51,-36,-95,0,-1,-10,-20,10,-12,10
79,38,-48,1,-18,-20,-41,-20,-62,-3
115,15,-52,-34,-52,-38,-66,1,-23,40
87,-8,-41,-43,-62,-35,-60,9,6,69
9,-23,-82,-14,-36,8,-17,1,-8,11
-19,-27,-44,-1,-13,15,-10,5,6,-5
-11,-19,14,8,-2,2,-21,-4,34,-8
-17,-28,3,-10,-17,-5,-23,32,71,14
27,-3,1,0,-15,-30,-44,-1,28,46
31,-23,-62,-12,0,-27,-35,-24,0,72
10,-36,-46,-4,25,8,-5,-26,-38,12
-11,-19,7,8,28,5,1,-18,-32,-3
-45,-5,16,10,41,13,-1,-20,-17,3
-32,1,23,8,29,28,2,-7,-22,5
-30,-7,22,14,4,31,9,13,2,4
-67,-30,14,23,5,35,56,22,27,-9
-13,-2,15,16,0,14,54,12,19,12
-3,28,15,25,6,-2,42,-8,2,-2
11,27,6,14,-24,-27,26,14,53,42
46,20,5,7,-27,-16,32,20,40,65
17,45,36,19,28,11,50,17,7,-6
9,17,22,15,23,15,48,45,37,-9
7,-9,-56,42,15,26,49,34,-1,-45
-20,-18,-32,54,34,31,49,-4,-38,-83
-25,-39,-4,29,11,15,37,8,-1,-30
22,-13,2,13,-25,-23,24,8,21,12
15,0,26,29,-1,-20,-11,-23,0,-8
5,0,34,41,24,-11,-25,-29,3,-17
11,-20,23,24,10,-16,-14,-22,13,4
-16,-32,28,20,18,-9,-3,-1,9,-16
-65,-21,39,40,36,5,9,-5,13,-44
-47,-20,36,31,30,-2,-2,-25,7,-21
-23,-25,19,6,24,9,0,-15,31,-3
6,-6,9,5,27,9,3,-11,28,-3
60,29,18,4,16,-7,-16,-20,4,-1
52,43,27,4,19,-11,-8,3,15,9
6,6,-22,-4,6,-10,4,37,42,25
18,-1,-49,7,2,-8,-12,-11,12,14
22,7,-21,20,2,-9,-27,-27,0,5
19,-4,-72,10,-14,-22,-26,-15,16,33
-19,-42,-3,-2,-15,-16,-25,-9,17,41
-66,-71,-34,-9,-6,-9,-22,-9,19,38
-81,-54,-66,-15,7,-6,-4,0,18,37
25,-1,5,-13,-15,-18,-17,-30,-22,41
110,34,-21,-32,-33,-39,-47,-74,-60,35
36,0,-48,-29,-25,-14,-30,-60,-66,-7
41,-30,-25,-22,-31,-5,-23,-29,-47,-9
51,-6,-10,-17,-23,-14,-7,-8,-37,-19
59,4,0,-20,-15,-28,11,2,-13,2
30,-9,6,1,20,-10,16,-14,-30,-10
-14,-28,-57,8,38,6,21,-23,-28,-34
-13,-36,-56,-8,21,6,13,-8,8,-9
-7,-7,39,0,25,4,-4,-34,-19,-14
32,22,60,4,1,-9,-43,-59,-25,-1
23,14,26,-6,-27,-24,-53,-39,32,-4
42,35,-29,-1,-42,-47,-64,-32,46,27
17,17,10,-5,-29,-44,-27,7,63,43
-74,-46,-13,-41,-4,-4,48,88,105,9
-13,8,0,-36,5,4,29,75,62,19
-10,14,45,18,11,13,17,19,-19,-47
-89,-66,-4,11,4,23,55,55,2,-61
1,-18,0,12,8,14,37,20,-25,-36
9,-18,-20,2,18,12,17,14,0,-14
8,0,3,10,19,4,-11,-12,-17,-6
-60,7,33,14,33,10,-18,-4,-30,-33
-112,3,53,22,36,13,-19,1,-35,-70
-129,-22,10,-1,14,4,-4,24,26,-41
-44,-5,0,-46,-15,-12,-1,37,51,29
-4,28,33,-29,-1,0,4,5,0,13
-51,19,33,-17,11,9,5,18,-10,-10
-16,48,34,-10,3,7,18,31,-1,20
31,61,36,-5,10,18,57,31,6,25
104,57,-6,-21,-5,1,44,14,14,51
153,34,-29,-42,-43,-18,9,-4,21,65
64,-3,-26,-31,-37,-8,11,-9,21,4
58,41,24,-3,-19,-14,-10,-65,-22,-51
54,25,-6,-25,-31,-31,-29,-50,13,-2
2,-1,-21,-26,-18,-27,-21,-7,38,23
38,23,-8,-24,-3,-24,0,2,22,19
26,23,-6,-9,2,-7,25,21,37,-6
-41,48,39,41,52,36,57,10,-27,-78
1,61,-34,31,27,21,36,25,-23,-32
48,43,-72,0,-17,-11,16,23,1,21
-24,-3,3,0,-11,-1,8,18,-9,-22
-122,-92,-17,-7,0,15,0,39,-1,-71
-109,-94,-27,-35,-15,5,-10,60,33,-34
-84,-71,-13,-32,-19,-1,-27,75,39,-13
-1,-16,4,-12,-19,-1,-66,42,-16,13
37,14,3,-17,-13,0,-83,14,-45,23
40,17,26,-13,-11,0,-92,10,-35,40
10,5,-7,16,-6,16,-101,1,-54,36
-5,-7,21,9,-2,15,-82,-6,-55,12
-23,-29,14,-20,-5,25,-40,29,-52,-29
-10,3,53,7,13,28,-24,-2,-93,-52
-21,-17,20,-28,7,22,-31,31,-9,14
-98,-58,-26,-53,13,17,-4,94,87,52
-135,-94,-13,-18,22,13,-3,60,41,-10
-3,-3,42,15,17,-9,-36,-36,-72,-58
84,37,24,-6,-12,-29,-25,-33,-52,0
81,7,4,-25,-11,-14,2,-6,-37,-18
64,-5,20,-11,10,-7,-8,-34,-90,-41
18,-23,30,15,14,-5,-16,-41,-95,-28
-12,-18,39,16,18,-3,-6,-13,-36,-5
-34,-45,5,-22,-12,-12,-10,18,29,28
-83,-62,-3,-8,0,17,15,11,12,0
-80,-41,19,18,20,25,12,0,-7,-29
-94,-35,38,19,31,15,-9,-6,-17,-49
-37,-11,17,-11,11,6,10,0,5,-9
44,14,-8,-31,4,2,27,-5,18,-8
122,56,0,-35,-13,-8,-6,-17,4,4
109,60,8,-18,-7,-10,-41,-30,-27,-34
74,29,5,-9,6,-21,-43,-44,-38,-34
38,-2,-11,-2,10,-6,-30,-29,-17,-2
24,-31,-31,3,29,24,-6,20,3,-19
70,14,-16,0,12,28,15,33,-14,-25
65,18,-18,1,2,32,43,23,-4,-12
14,-4,-24,0,1,24,41,3,-2,-20
21,32,-5,-6,20,7,36,-1,-3,0
-10,41,0,5,39,10,49,3,5,-22
-20,11,-24,10,13,-2,26,1,8,-23
0,-9,-122,-2,-13,-19,-19,8,62,0
-21,-29,-148,-9,-14,-3,2,13,82,-13
-33,-66,-55,-26,-26,-14,-38,22,-40,-6
-27,-81,-25,-39,-22,-21,-71,23,-91,1
9,11,33,-3,2,12,9,-4,31,25
0,11,31,11,7,18,33,-22,11,11
3,10,10,17,-6,8,22,-31,-14,-1
10,36,42,21,0,17,10,-30,-14,-8
4,29,42,7,-5,15,-22,-13,-2,1
-57,-8,17,8,-6,21,-6,14,34,-18
-63,-11,1,1,-9,26,-7,26,60,-5
-13,13,17,13,1,20,-15,4,46,3
37,52,-8,8,0,5,-18,-18,52,20
51,42,-42,-7,-11,0,-27,-3,69,26
22,15,10,-11,-16,4,-13,17,80,20
16,9,20,-11,2,10,-8,1,64,15
24,15,26,-3,14,12,-21,-38,0,10
-16,-14,6,-11,10,18,-8,-16,0,-8
-55,-45,-14,-20,9,37,2,-2,-4,-21
15,-32,-24,-26,8,11,-89,-44,-205,-13
69,51,0,-17,19,-8,-87,-45,-182,28
-8,38,-42,-5,11,12,17,-21,10,23
-52,-18,-7,-13,-5,1,39,-13,5,-9
-46,-29,-5,-11,-4,-10,27,15,28,-6
6,-8,-41,0,-20,-11,-11,37,62,42
43,27,-58,16,-12,-5,-45,2,-2,17
29,33,17,9,10,4,-40,-24,-44,-3
9,4,31,0,-14,-14,-24,-2,19,21
57,21,48,8,-35,-17,-5,-1,43,52
65,25,52,12,-24,-3,30,14,35,53
6,-16,22,12,-8,9,40,14,32,31
-51,-41,2,12,-2,7,42,1,18,6
-68,-71,-26,-9,-17,6,59,34,56,12
-88,-63,-3,4,6,10,46,15,36,-31
-16,19,42,19,7,-8,22,-25,-9,-17
30,55,46,9,23,-8,19,-24,1,26
19,35,33,22,26,13,-8,-32,-31,1
-17,-9,28,16,28,29,-13,-13,-11,-15
-29,-21,6,11,11,14,4,9,27,4
-1,25,25,24,9,-4,-9,-2,20,27
36,24,6,20,0,-13,-13,3,14,50
-33,-7,-33,7,3,27,25,26,13,-10
-59,12,22,11,11,34,36,26,9,-31
-19,21,17,8,-8,5,21,12,4,-20
-18,23,14,11,-16,6,6,-1,0,-22
-32,27,22,31,-4,7,4,-12,-12,-29
-27,36,28,33,8,5,-10,-21,-32,-31
-55,4,16,28,23,2,-3,-27,-45,-56
-82,-38,-11,0,7,-14,20,10,48,-1
-104,-57,-24,-18,-7,-20,43,48,128,46
-47,-35,-27,-12,-20,-27,38,51,114,57
15,15,7,8,-12,-21,37,12,53,30
33,38,27,34,-4,-15,24,-9,2,14
48,37,30,26,-19,-24,0,-11,8,36
11,21,-1,25,-15,-18,0,-1,36,52
-6,15,-115,35,-12,-7,-2,-11,-7,21
17,35,-88,37,2,-8,-8,-31,-66,-11
5,46,-50,6,13,-8,1,22,4,24
-46,17,-14,0,10,0,16,79,71,64
-65,-12,25,22,1,4,0,42,36,41
-61,-42,14,15,-12,1,-12,30,36,15
-40,-47,-21,3,-30,-14,-11,36,52,45
-64,-68,-104,-8,-17,0,0,39,26,33
-153,-95,-63,5,11,27,24,43,-8,-45
-131,-58,-10,9,21,21,9,8,-44,-99
52,23,-64,-15,-9,-26,-26,-34,-37,-17
106,0,-79,-22,-21,-20,-7,-28,-31,15
170,18,8,-31,-25,-22,-10,-31,-59,7
192,79,58,1,-18,-24,-26,-57,-121,-22
107,60,68,26,3,-2,-12,-36,-120,-34
13,4,47,28,13,24,10,0,-91,-41
-25,-9,45,41,35,34,24,1,-106,-60
-3,10,44,30,47,16,27,7,-68,-23
4,-4,32,38,23,-13,22,20,-45,-1
-11,-21,-1,18,18,-9,46,35,-52,-21
-21,-24,-7,16,37,2,55,20,-77,-58
3,-14,-3,12,26,-7,41,9,-70,-54
69,8,6,2,1,-20,4,-13,-53,-43
94,13,-13,-23,-16,-25,-1,-10,-12,0
72,15,-3,-36,-22,-26,12,13,31,42
60,63,26,-18,1,-16,34,46,37,48
-8,18,19,1,13,1,29,37,24,13
5,-18,10,4,-4,-4,0,0,-1,19
7,-18,-36,-2,0,3,-2,14,-5,23
-22,-11,-102,9,7,29,14,31,11,-14
8,28,-15,9,0,19,13,28,24,-1
13,5,-11,-14,-6,12,24,37,62,24
-44,-10,-10,16,22,14,28,3,4,-39
-7,-4,-20,14,16,0,-11,-11,-20,-22
58,35,6,13,12,-11,-18,-6,-9,7
47,36,49,22,21,-1,-2,-13,-11,19
-24,-13,32,14,31,6,6,-7,28,10
-14,18,41,12,21,2,1,-29,29,10
32,41,-22,-3,2,-20,7,-31,41,28
116,114,-115,-18,-17,-35,20,-35,40,58
113,120,-90,-29,-15,-5,54,-5,47,45
-7,0,-5,-6,-1,32,74,12,25,-26
-44,-18,32,15,8,45,68,-11,-11,-67
-21,9,38,14,11,43,23,-30,-32,-53
-10,-11,13,-17,0,39,12,-3,-12,-30
20,6,28,-19,-25,16,-4,-5,-20,-7
19,13,37,-19,-26,4,-22,15,-6,-6
-13,20,14,-5,11,16,-26,-2,-20,-34
43,14,-96,-3,6,-3,-43,-30,-40,-27
0,-12,-60,0,4,-2,0,-11,-18,-36
-2,-32,28,-16,0,-14,4,8,12,-6
-19,-71,-18,-67,-34,-23,7,75,89,46
-53,-67,-1,-41,-23,-4,7,51,59,18
40,16,48,-11,-22,-22,-23,-28,-55,-14
45,53,33,-9,-17,-8,0,-13,-47,-12
-2,7,27,-8,-17,11,4,8,-24,-24
-16,-21,7,-22,-21,0,-23,11,-11,-11
-6,-23,9,-17,-16,-7,-44,1,-1,-10
-3,-2,24,-5,0,-3,-59,-12,-5,-22
13,22,25,-5,-1,-7,-70,-15,-13,-4
9,18,33,-10,0,-9,-57,-17,-9,-4
10,42,46,-12,5,-14,-55,-19,-9,-1
-4,94,43,-9,35,2,-33,19,-1,4
-78,34,13,6,51,19,-4,54,15,-39
-46,-10,-7,-6,28,1,-25,42,43,-19
10,8,19,-13,20,-17,-33,4,9,-4
43,33,43,-8,4,-18,-37,-21,-31,-17
22,-5,20,-16,-7,-5,-14,0,11,10
-34,-48,11,-8,-4,8,18,20,48,-17
-39,-45,4,-11,-17,-9,9,31,62,-3
-10,-39,-9,-27,-45,-26,3,26,43,22
-17,-19,-7,-5,-34,-20,0,18,16,6
-18,-27,-29,-6,-34,-12,13,26,61,39
32,-13,-29,-12,-44,-17,7,16,84,70
18,27,17,32,-11,-2,-9,-35,8,-4
-57,-25,-38,40,0,15,5,-17,19,-31
-122,-75,-47,15,-2,20,38,39,72,-26
-38,-26,-15,-6,-21,1,27,29,96,36
106,76,-36,5,-28,-9,5,-28,31,59
111,75,-106,-2,-25,-15,-28,-31,51,80
73,63,-25,-2,-30,-19,-44,-18,58,71
19,32,-37,-4,-9,-4,-30,2,54,21
-38,-23,-26,0,14,13,-12,20,59,-13
-82,-71,-21,-15,17,6,0,30,72,1
-72,-40,-11,-17,31,8,-13,23,84,37
-25,31,34,0,54,2,-24,-11,57,38
-26,1,10,4,35,5,-35,-18,25,22
-59,-51,-23,5,15,6,-16,-11,12,3
-67,-50,20,3,19,6,15,-10,-8,7
-39,-3,50,20,22,1,-6,-32,-37,0
-26,-10,44,13,23,-6,-29,-40,-46,-30
-1,-28,19,-3,4,-3,-13,-13,-37,-43
16,-7,29,0,10,3,-10,-23,-47,-25
35,2,20,10,10,4,-22,-53,-63,-11
37,-27,-43,-21,-16,-10,-16,-16,-9,50
33,-48,-19,-24,-20,-19,-13,-4,11,58
26,-22,33,-13,-9,-14,-23,-23,-29,26
-56,-32,46,14,23,12,-3,-38,-69,-49
-53,-21,27,10,13,-4,-11,-41,-67,-28
-58,-1,23,-8,17,5,3,8,-21,2
-125,-29,-37,-21,32,18,22,49,17,-19
-37,-20,-123,-16,9,-4,0,11,-2,-19
26,-6,-115,0,4,0,-15,-11,-1,-32
77,16,-27,4,4,-11,-5,-32,-26,-15
99,29,41,3,-12,-20,-17,-54,-57,3
-6,-30,-9,-6,-6,0,-25,-26,-8,19
-26,-26,-8,0,10,12,-15,-27,-16,-14
40,0,1,-29,0,13,0,-3,8,-11
80,-4,-4,-22,-9,13,-15,-21,-32,-41
40,-18,0,-9,4,-1,-26,-48,-35,-47
6,-27,3,-3,7,-14,-30,-38,-5,-34
-5,-26,7,7,13,-9,-20,-10,25,-13
45,8,12,0,-1,-8,-15,11,36,32
72,22,30,11,0,-4,-21,-24,8,53
82,42,48,17,2,-5,-32,-59,-17,59
11,0,28,10,5,0,-8,-21,28,47
6,1,23,5,-3,-4,-5,-5,40,16
6,-12,-57,-7,-7,-1,17,15,59,0
6,-26,-115,-23,-10,-1,34,61,99,38
-66,-28,6,9,12,17,42,63,61,-5
-36,19,65,31,45,18,38,4,-18,-44
32,54,83,15,55,3,20,4,-15,-1
46,79,79,4,72,7,20,22,4,20
85,90,61,7,60,9,31,0,-47,-22
8,-21,-2,-9,19,8,27,25,-39,-63
-82,-75,-33,1,22,24,22,32,-52,-115
-97,-68,-12,10,11,11,31,6,-47,-105
-66,-57,-3,6,-10,-14,32,4,-21,-52
-65,-65,-33,-19,-25,-26,30,20,29,0
-25,0,-28,-9,-28,-32,0,0,4,-15
-49,-14,0,0,-27,-31,-7,-12,-5,-17
-35,-34,9,-11,-32,-38,-4,-28,-38,-14
-59,-73,-6,-19,-35,-43,-20,-12,-17,-12
-33,-62,-28,-34,-51,-44,-24,17,14,25
-14,-33,-87,-18,-48,-33,-35,15,3,22
24,30,-25,10,-34,-20,-54,-20,-25,31
6,51,50,30,13,20,-8,-15,-76,2
9,50,-26,12,23,21,5,-10,-117,-36
56,36,-47,-31,-6,3,-13,3,-64,-11
-24,-32,-22,-38,-3,9,7,62,1,-21
-75,-27,-12,-13,12,10,6,57,-7,-38
-80,-16,10,5,25,16,-2,37,-8,-42
-47,-5,-42,-2,3,1,-23,30,14,12
-71,-20,-84,-5,-5,-10,-25,20,33,27
-62,25,-8,-1,20,-18,-8,8,-8,11
26,93,45,-4,28,-31,2,19,-2,20
73,74,-24,-1,2,-38,4,11,24,38
81,41,-41,1,-3,-14,24,4,0,23
-5,13,10,19,21,13,47,16,-27,-26
-38,-19,10,11,11,3,47,45,45,13
29,19,17,3,-12,-5,16,26,34,36
26,43,5,20,-1,13,-2,-4,-11,-3
-40,1,16,13,11,23,8,16,14,-5
-9,3,24,-6,-16,-1,-2,28,47,34
49,25,16,-11,-44,-18,-15,19,97,93
23,-17,-14,-28,-49,-3,-7,48,154,85
25,-19,-4,-34,-47,-13,-22,46,162,87
22,-2,4,-22,-33,-26,-16,44,158,97
-31,-17,9,-3,-7,-4,9,49,132,45
-25,20,52,20,12,6,39,35,76,31
-56,18,50,38,27,28,68,32,18,-3
-42,0,13,31,8,31,51,14,7,-1
-29,17,36,50,26,57,36,-13,-44,-26
-35,25,60,64,45,57,21,-39,-73,-38
-45,13,55,73,37,37,10,-44,-79,-32
-51,-4,10,64,27,8,-2,-49,-67,-25
-49,2,-29,43,30,3,0,-22,-37,-27
-13,40,14,28,40,15,10,6,-31,-23
70,56,34,14,7,0,8,0,-40,0
73,46,48,6,-7,-1,1,-24,-54,9
15,3,36,16,5,8,4,-38,-46,6
-33,-43,6,18,3,0,1,-1,0,28
-62,-82,-54,-24,-25,1,0,81,84,79
59,11,-5,-7,-13,-1,-23,7,-40,17
188,107,53,16,-8,-24,-63,-84,-143,1
117,33,7,-17,-31,-13,-28,-29,-52,40
-41,-27,7,5,-8,21,18,17,-32,-22
-98,-54,0,13,6,28,-2,40,-40,-43
-69,-35,-7,17,11,15,-20,34,-24,-32
3,4,33,19,15,3,-17,13,-34,-12
21,-4,22,10,3,7,-16,16,-41,-20
-14,-5,0,-15,-9,-3,-14,43,-18,-41
22,73,26,-30,-3,-18,-4,57,0,-35
63,60,-20,-39,-19,-18,-6,49,13,-50
88,33,-69,-69,-71,-37,-39,40,60,9
46,-8,-64,-88,-85,-30,-46,64,147,100
36,20,15,-27,-39,-7,-48,-1,38,42
43,35,46,-7,-31,-7,-63,-40,-21,18
18,24,41,10,-19,-5,-54,-47,-27,8
0,22,41,25,17,21,-25,-14,-25,-15
-31,-53,-6,10,10,38,12,44,22,5
3,-57,-8,-3,-2,15,50,16,26,45
48,-33,-11,-9,-14,10,61,-8,-6,11
91,35,1,7,1,29,57,-22,-47,-17
68,26,-44,8,12,38,44,-8,-39,-5
-30,-24,-20,31,36,55,36,-2,-22,-62
12,7,3,31,33,34,9,-33,-9,-26
30,30,10,30,15,26,2,-29,-7,-24
16,22,-48,15,0,10,14,-12,-6,-22
22,15,-36,18,-12,-1,-8,-2,-21,-5
-21,-30,10,11,-12,0,-16,9,-5,6
-29,-59,-19,-16,-16,1,10,31,47,24
-7,-36,-37,-22,-13,-11,15,27,29,8
-21,-13,-7,-2,-8,-8,13,31,-9,-25
-5,31,42,3,7,-8,24,23,-35,-6
-6,6,-6,-7,-5,-4,24,29,-16,30
-41,-53,-29,-26,-21,-4,18,39,1,16
-23,-25,-12,-8,-9,-10,9,10,-15,-18
-8,-20,6,-16,-14,-6,-8,0,-40,-14
-13,-13,42,-6,-14,-8,-13,-24,-53,-9
20,34,60,-1,-16,-30,-28,-46,-56,15
51,81,65,-13,-15,-46,-35,-35,-22,43
14,81,49,-13,-1,-45,-18,-22,-10,17
-20,3,1,-38,-25,-39,-18,-3,26,11
-57,-33,-3,-29,-17,-36,-9,23,52,0
-18,-6,0,-21,-18,-38,-24,6,34,21
-40,-32,-15,-11,-14,-21,-14,7,-5,-6
-46,-43,-24,-5,-12,-12,3,17,20,11
29,-9,34,19,-1,-11,-23,-23,-30,38
2,-26,31,33,50,31,13,5,-32,22
-79,-89,-5,19,50,37,43,31,-10,-19
-73,-126,-40,-12,3,7,22,35,9,-23
-61,-100,-30,-15,-8,3,8,18,8,-30
-34,-69,-17,2,-13,-6,23,6,13,-17
5,-47,-30,-1,-24,-27,22,13,21,5
-1,-23,-36,-6,-22,-33,36,34,35,11
-41,-19,9,3,9,-8,58,39,21,-14
-35,-6,52,15,28,3,39,12,5,3
42,33,73,20,27,-11,33,-41,-36,15
13,7,38,11,15,-11,42,-34,-34,0
-29,-38,-30,-12,-6,-22,22,0,13,14
-49,-30,-115,8,28,4,-4,-7,-11,-27
-62,-27,-67,28,43,14,-22,-19,-31,-49
-4,2,-3,5,20,3,-21,-19,-28,-9
56,25,-5,-3,19,0,-7,-11,-17,-7
-52,-54,-33,-8,23,18,41,36,29,-49
-100,-60,-79,11,20,12,37,31,39,-31
-83,-20,-73,39,21,9,-2,-9,19,-6
-59,-7,-26,20,-1,1,-8,-2,47,23
-75,-14,-35,13,9,4,0,-3,54,-3
-81,-1,68,22,31,9,-14,-29,6,-28
-102,1,74,26,47,16,0,-6,28,-28
-118,21,38,15,63,24,30,41,66,-26
66,73,20,-4,29,2,11,-2,26,-6
238,95,11,-24,-13,-17,-19,-41,-19,-6
254,81,5,-36,-30,-15,-24,-26,-29,-2
183,55,-5,-39,-37,-16,-2,-17,-13,20
105,37,5,-33,-38,-12,4,-33,-19,4
-6,-19,-3,-40,-26,2,26,2,8,-8
-2,-22,0,-56,-26,5,40,11,22,17
1,-22,-8,-69,-24,1,43,12,35,34
10,-16,-53,-69,-35,-20,33,11,72,71
43,24,-72,-47,-37,-61,10,-24,39,64
17,19,20,-15,-17,-51,-23,-32,-1,28
-31,-15,43,3,-6,-19,-18,-28,-16,-3
-41,-20,22,9,-2,0,4,-24,-34,-11
-44,-16,29,11,-2,8,15,6,-37,-1
-47,-31,21,7,-15,6,7,21,-2,40
-45,-52,10,1,-22,1,-16,24,42,33
-10,-39,8,-6,-33,-17,-28,20,40,30
10,-29,11,-15,-33,-41,-65,2,21,22
-1,-15,41,17,6,-15,-53,-28,-40,-19
-20,-21,23,22,22,5,-4,-20,-29,5
-56,-43,-2,16,13,22,15,1,-6,4
3,44,38,19,23,22,13,1,-17,17
-11,39,34,-1,20,6,30,23,12,36
-41,-26,23,-1,0,2,28,-1,-46,9
-26,-34,26,9,0,10,10,-32,-117,-10
-118,-102,-40,-3,7,19,10,10,-43,-21
-194,-133,-15,5,21,28,21,23,-4,-73
-76,-19,63,40,20,13,-10,-70,-112,-108
-18,22,64,22,-2,-6,-33,-63,-71,-45
28,21,39,-17,-11,3,-39,-15,7,28
124,24,9,-21,-12,3,-37,-9,-23,8
181,51,14,-16,-20,0,-17,-31,-68,-3
77,14,-39,-6,-2,28,25,-16,-56,-18
8,-28,-59,-23,-22,15,26,44,43,29
117,63,8,5,-19,0,-11,-24,-21,32
147,109,58,44,5,7,-59,-81,-83,0
89,79,32,4,-21,-9,-43,-14,49,47
92,49,18,22,-25,-2,-45,-33,42,28
73,21,-7,29,-25,12,-27,0,60,46
14,12,4,36,12,27,-1,9,40,-9
-79,-7,12,55,54,49,21,0,13,-79
-94,-18,-7,21,24,30,32,30,68,-37
-19,-2,-21,-14,-11,7,17,28,82,39
9,23,-10,-13,2,4,8,17,61,44
-30,46,49,33,50,22,28,-5,-4,-41
-27,-1,32,9,9,3,12,-12,-20,-34
-47,-45,-13,-12,-10,-3,0,5,-2,-4
-48,-50,-35,-26,-26,-1,13,28,17,18
-62,-42,-50,-27,-23,0,21,32,24,12
-18,-11,-39,-19,-13,-3,17,20,0,-10
102,27,-18,-29,-19,-20,-10,-3,-8,11
167,61,-35,-24,-24,-23,-34,-24,-20,38
153,45,-141,-43,-41,-21,-40,-26,17,98
56,16,-40,16,5,21,-9,-71,-78,-5
43,16,36,28,13,14,-14,-77,-107,-19
6,-14,16,18,9,6,-25,-43,-85,-17
-65,-57,-6,16,12,19,-3,0,-56,-65
-79,-55,-32,0,8,22,41,18,0,-40
-32,0,11,-1,17,4,54,12,-20,-23
-45,9,22,0,28,4,70,34,1,-22
20,8,-2,-13,2,-15,38,8,0,23
105,39,12,-12,-30,-40,-20,-35,-58,17
54,12,-1,-3,-22,-30,-45,-19,-28,9
-36,-52,-74,-17,-12,-20,-24,12,28,-10
-36,-42,-46,-17,-12,-16,-17,18,38,-5
-6,-27,-22,-21,-9,1,-17,7,22,1
0,-10,-1,-7,0,13,-4,-11,-10,-12
12,30,16,7,-17,2,-6,-23,-17,-14
10,59,4,14,-8,2,-22,-34,-6,-21
8,56,-12,11,-1,3,-29,-35,-16,-44
26,65,-76,17,-9,-1,-12,-37,-19,-36
23,41,-127,24,-8,-7,8,-22,1,-42
8,9,-101,25,6,-5,10,-24,-16,-64
-7,-13,4,15,8,-13,22,-6,-2,-51
-23,-52,51,2,-1,-8,19,-7,14,-51
-42,-102,42,-1,13,4,1,-14,21,-30
-98,-149,34,-2,35,33,9,6,55,1
-92,-115,33,18,32,47,3,-15,17,-18
5,-43,-45,6,0,18,-5,-21,26,34
48,-26,2,-16,-25,9,17,10,64,47
35,-17,46,-10,-15,10,26,33,66,39
-5,12,69,4,26,37,58,39,64,21
-48,-23,50,14,44,45,63,40,56,5
0,-33,21,-5,9,29,34,26,48,-15
101,17,-62,-16,-36,-5,12,32,71,17
112,27,-87,-16,-50,-11,9,36,84,36
82,26,-2,-15,-24,-1,3,0,50,31
41,-25,-16,-23,-34,-10,-8,-5,51,45
12,-31,5,-15,-39,-11,0,22,59,24
-23,-15,21,9,-12,4,29,2,6,-15
-35,-11,28,2,-12,-7,28,4,7,3
-24,-22,31,-2,-25,-19,14,12,31,37
-15,-13,25,-11,-36,-17,7,15,32,32
10,0,28,-18,-36,-12,-27,12,12,31
-37,-26,23,-8,-26,1,-13,56,32,13
-41,-23,19,-6,-25,-4,-24,51,33,16
22,7,4,-5,-19,-13,-35,23,24,51
-1,-16,-23,0,-2,-6,-32,1,-37,23
16,17,34,15,8,-3,-31,-32,-110,3
28,41,61,10,11,-3,-34,-34,-110,11
-8,4,20,-14,9,9,-5,9,-52,8
-10,-5,-12,-19,0,6,15,21,-43,2
13,27,-77,-10,-5,2,11,5,-35,17
-10,47,-59,16,21,5,13,-7,-51,17
-21,37,39,17,24,8,16,3,-28,17
21,7,19,-9,-12,-8,-33,-17,-1,26
75,27,18,-30,-31,-15,-58,-28,8,37
49,7,15,-21,-18,4,-43,-33,2,26
11,5,34,18,19,20,-30,-61,-68,-11
-21,21,41,39,26,13,-17,-73,-129,-58
-49,25,25,20,8,11,1,-45,-136,-75
-56,24,25,18,9,20,42,-16,-123,-86
-9,3,-5,-7,-10,-6,32,-3,-67,-26
13,7,-13,-22,-14,-11,26,3,-11,0
4,1,-2,-6,-12,3,20,-3,18,-5
11,20,17,0,-9,-3,35,-13,23,-4
33,42,27,11,-17,-22,36,-20,10,15
58,58,-2,3,-21,-11,16,-14,5,24
35,89,-64,24,14,0,7,-15,12,7
11,102,-98,25,29,-1,13,-22,35,21
-21,26,-56,17,8,-4,3,-26,43,23
-53,-12,25,19,4,6,2,-25,23,-11
-42,-2,42,16,0,3,3,-14,9,-12
-63,-11,42,17,2,5,19,16,3,-22
-93,-29,22,24,3,5,43,56,3,-42
-83,-23,10,18,7,-2,41,48,1,-36
-18,3,15,12,4,-14,16,23,5,-24
26,2,25,4,-11,-20,-1,2,9,-26
-1,-2,32,6,-8,-5,2,10,16,-36
-7,2,21,11,1,-2,-14,9,23,-23
-8,5,13,12,5,0,-11,20,47,-3
-19,2,17,0,1,-10,8,36,75,5
11,20,18,-13,-2,-30,7,38,93,42
-51,-18,3,-8,18,-20,21,43,63,-3
-89,-53,-50,-9,26,-2,26,46,47,-41
-65,-45,-54,-1,28,2,7,16,35,-30
46,13,1,-37,-21,-49,-29,12,66,58
3,0,-35,-56,-16,-27,-15,40,68,25
-61,-10,-63,-40,14,-1,-15,19,7,-34
0,8,-22,-32,0,-16,-27,8,-10,-10
159,62,-2,-37,0,-14,-35,-8,-34,22
238,136,19,-29,-1,-22,-60,-7,-44,24
116,67,3,-11,4,-21,-50,33,-38,-3
111,44,11,-7,-17,-39,-66,0,-92,-5
100,37,3,-26,-28,-42,-67,23,-44,19
28,-12,-11,-42,-13,-18,-37,50,6,0
-56,-67,-19,-33,3,-1,-11,76,50,-11
-32,-57,-6,-30,0,-15,-13,57,46,22
8,-6,28,-5,16,-12,-22,-9,-8,6
12,-3,7,-7,0,-24,-27,-15,10,40
5,-1,8,1,1,-15,-24,0,-7,36
23,4,39,12,22,11,-10,-18,-72,6
-10,-13,7,3,29,22,10,-19,-83,-39
-17,-11,-36,7,24,25,7,-20,-62,-13
9,20,-41,31,27,19,5,-46,-77,4
-33,2,-9,33,47,39,16,-26,-42,-23
-37,-17,13,-17,35,27,11,16,45,43
-17,-37,11,-11,14,14,-5,-20,23,5
-39,-31,35,8,13,20,27,-36,-13,-49
-51,-42,-4,0,15,15,40,-23,-30,-57
-23,0,2,4,7,-1,38,-22,-15,-41
-38,1,43,3,9,3,41,2,31,-16
-75,-30,21,-2,18,10,59,50,65,4
-82,11,-5,27,60,26,70,17,-17,-61
-101,9,-59,48,91,40,69,-35,-70,-116
0,-3,-5,4,33,1,44,-40,-6,-12
42,5,7,-27,4,-11,38,-17,34,52
22,2,16,-13,13,7,17,-35,10,14
30,-17,3,-27,-6,0,-18,-44,17,12
11,-16,-9,-24,-23,-6,-38,-21,38,24
-63,-31,-58,-6,-17,21,-6,19,63,8
-53,-8,18,7,2,38,15,20,50,4
-59,-15,47,4,31,53,34,19,46,-8
-34,-6,41,4,49,49,22,0,36,2
-27,-12,20,15,47,53,1,-14,16,0
-50,-29,-29,15,45,44,1,-5,9,-25
9,11,-8,21,28,21,-20,-32,-72,-36
-10,12,51,25,39,28,-21,-39,-92,-48
20,66,71,15,37,9,-37,-14,-48,15
-4,54,63,15,43,15,-21,9,-13,16
-24,4,-33,6,13,22,-12,13,0,1
-9,3,-115,0,1,26,-14,1,-1,7
-18,-5,-53,11,7,14,-17,-18,-28,0
-35,-25,-11,18,20,11,-9,-26,-40,-21
-17,-23,46,10,12,0,-9,-27,-35,-13
-3,-33,40,-24,-3,-17,-2,1,-12,16
-26,-48,31,-19,0,-13,9,0,-15,-4
-13,-36,21,-13,1,-28,7,-24,-19,15
-33,-51,14,-21,-6,-24,20,16,35,42
-26,-26,37,-17,-6,-22,13,10,39,45
-8,-25,24,-20,-7,-14,13,10,37,69
-7,-23,11,-18,-2,2,28,28,-8,35
2,15,28,6,11,8,21,29,-38,1
-17,12,17,10,14,12,-2,32,-28,0
45,25,-35,5,-23,-22,-31,2,-1,49
32,13,2,0,-40,-28,-30,33,38,66
-33,-17,-6,16,-12,9,-2,53,21,0
-55,-9,-89,35,7,14,8,12,-20,-23
-19,6,-63,31,12,-5,-3,-30,-20,-7
3,0,35,13,-5,-21,1,-17,0,6
37,47,64,7,3,-20,-1,-1,10,26
66,79,40,2,21,-18,7,20,45,58
15,28,-67,10,14,-10,4,30,70,47
-11,-17,-16,6,-12,-14,-16,1,42,13
0,-15,39,3,-14,-4,-18,9,27,20
6,-2,37,16,-2,0,9,6,2,31
-30,-22,35,32,9,18,81,3,-1,-16
-9,-1,61,47,-12,0,83,-22,-14,-22
11,16,51,13,-31,-2,70,-18,19,8
-19,-22,33,-12,-23,6,48,9,41,22
-28,-17,38,-11,-22,3,1,6,51,20
46,35,83,-14,-29,-10,-28,-14,57,30
18,16,61,-19,-20,-1,-16,0,73,13
-27,-42,-11,-51,-23,16,9,41,79,24
36,-9,-18,-63,-34,-1,-18,20,68,41
-4,-1,-13,-27,-17,0,-14,29,37,3
-52,-1,15,13,-11,1,-15,24,-13,-36
-66,-39,23,7,-15,7,-17,28,-11,-46
-82,-53,21,11,-10,20,-11,29,4,-50
-46,-29,6,4,-27,8,-34,26,22,-6
-17,-16,-4,-4,-40,-9,-38,30,38,15
-72,-58,-5,-9,-20,0,-31,25,55,-19
-41,-44,-33,-22,-20,-2,-41,34,63,-4
39,32,-98,-22,-8,-14,-46,21,50,10
131,71,-109,-19,-8,-25,-59,-10,7,16
187,51,-5,-3,-22,-9,-50,-46,-61,1
116,26,25,19,-16,29,-15,-21,-102,-46
21,-3,22,25,2,48,16,16,-86,-64
72,26,16,3,-14,27,41,37,-34,-20
150,48,-4,-16,-43,-2,33,25,-7,27
101,26,-8,-16,-37,-6,22,21,3,17
55,8,-15,-5,-27,-7,12,16,-7,12
11,-31,-98,5,-14,-1,15,28,4,11
1,-14,-59,38,6,-3,-8,-14,-41,-13
12,9,39,53,6,-4,-27,-68,-103,-42
-24,-31,17,26,5,7,-21,-51,-83,-46
-55,-33,-8,6,2,20,-7,-31,-79,-64
-48,-44,-25,-11,-7,18,-4,-8,-60,-43
-26,-7,-14,-8,7,34,6,13,-57,-32
-10,29,-15,4,20,36,5,18,-48,-14
7,42,11,7,-1,12,-31,0,-57,1
30,49,25,0,-14,7,-15,-17,-66,-18
0,8,8,0,-8,11,9,-10,-45,-44
-44,-20,0,12,7,12,16,-19,-35,-53
-36,-17,-4,4,1,2,-1,-25,-9,-8
-10,7,-14,-12,-17,-4,-2,19,27,-11
19,35,-7,-13,-29,-17,-21,17,29,-11
51,36,-18,-15,-47,-34,-38,0,42,28
27,27,-12,6,-24,-25,-30,-22,12,5
-10,6,-31,8,8,-10,-15,-17,-7,-12
-16,-13,-37,-2,0,-6,-3,16,25,12
-24,-3,-10,8,13,-3,-13,3,17,-13
31,44,23,11,13,-9,-19,-13,-4,-19
35,44,26,10,7,-10,-12,-3,-5,-5
-23,-7,9,13,15,21,-3,3,4,-12
-5,-10,14,9,11,26,-13,-4,3,0
53,18,7,1,-26,-10,-9,0,25,39
37,25,17,4,-21,-17,8,5,47,35
3,22,11,-3,-14,-17,-15,11,72,32
-44,-14,-9,-24,0,-2,15,58,76,25
-54,-17,-3,-22,6,29,50,51,69,8
10,39,17,-21,12,18,62,32,33,53
17,58,7,-1,33,12,59,-6,0,29
30,56,5,0,24,-10,39,-22,6,17
1,24,2,-4,5,-15,21,7,31,4
-33,3,3,-1,17,0,13,13,38,-25
-75,-36,-7,-3,28,12,24,25,68,-32
21,6,-18,-32,-16,-22,-6,19,90,69
44,33,-14,-16,-11,-12,-23,5,20,48
-50,-24,-22,8,19,22,-7,0,-27,-42
-59,-17,-19,6,10,10,-1,11,-5,-29
-54,-19,-22,2,-5,0,0,10,-6,-18
-30,-12,-22,-8,-9,11,-21,2,-13,3
-24,0,-24,-5,-10,5,-12,4,-11,10
-27,7,-13,11,-9,-1,-10,-6,-6,-16
-13,33,-20,12,1,-7,-12,0,0,4
-26,29,-124,24,17,-11,-25,-6,-10,11
-30,0,-144,27,21,1,-28,0,-25,9
-47,-28,-58,-7,15,16,-21,33,-10,25
-25,-12,4,-15,21,4,-5,11,-54,21
13,20,45,13,29,2,-22,-41,-110,-4
-8,0,26,15,33,12,-34,-14,-84,-9
-36,-22,11,5,36,7,-2,13,-50,-9
-57,-18,18,0,52,2,38,27,-24,-17
-60,-23,12,-3,39,-5,47,27,-13,-6
-31,-9,-15,5,20,-14,31,-3,-24,-21
-51,-36,-34,3,10,-14,28,16,4,-40
-22,-43,-15,-11,-19,-25,19,25,31,-2
-5,-33,-17,-23,-31,-25,15,43,49,28
-17,-36,-24,-32,-28,-18,21,48,60,45
20,-5,4,-16,-17,-23,-9,7,23,55
27,1,20,3,-4,-23,-23,-11,-6,43
5,1,28,25,5,-8,-15,-14,-34,25
11,22,26,22,12,4,-12,-9,-45,18
-3,19,7,20,12,9,-14,0,-46,-7
-20,-8,33,20,19,6,-9,-4,-24,-12
-18,-16,37,20,14,4,-13,-28,-19,-3
-2,3,41,27,25,21,-12,-30,-17,6
41,81,59,41,56,24,-9,-33,-16,-2
-17,53,37,25,62,16,-20,-22,-9,-51
-28,-18,-29,-15,25,22,-5,-8,21,-30
6,-24,-111,-40,-5,7,-3,5,47,25
-13,-20,-50,0,16,19,-6,-26,11,-4
-28,-24,-18,9,9,11,-5,-28,22,-20
-28,-26,-17,-14,-12,-9,-7,-2,79,-10
-3,2,-22,-18,-17,-19,-18,15,79,-14
24,19,2,-11,-29,-26,-34,10,45,14
30,9,5,-6,-32,-22,-32,4,21,32
11,-10,-32,-12,-18,-20,-9,42,44,42
29,5,-85,-12,-16,-20,-1,48,28,71
-9,4,3,19,8,9,14,14,-56,-7
9,-23,5,24,7,17,16,7,-61,-20
-1,-48,-24,10,16,11,8,30,-50,-42
71,13,22,13,27,-6,3,12,-111,-33
101,14,41,13,30,0,22,29,-94,16
25,3,53,43,52,26,35,33,-81,0
-9,5,65,50,56,29,23,9,-89,-16
-9,-10,47,30,45,19,-2,5,-88,-18
-53,-37,40,14,40,36,-16,5,-90,-46
-101,-51,44,26,22,18,-27,12,-59,-46
-113,-31,49,22,32,8,18,21,-31,-43
-37,35,51,2,53,-11,48,16,-26,-33
65,47,21,-16,10,-26,16,13,11,16
148,40,11,-29,-30,-37,-47,0,-2,44
172,41,0,-22,-26,-39,-56,6,10,54
74,-1,-11,-6,-14,-18,-29,28,42,27
16,-45,-48,-9,-3,3,5,62,44,4
72,-19,-35,2,17,7,12,51,3,-9
141,35,18,0,18,-13,2,23,-12,15
86,30,37,7,18,-12,-14,22,10,-1
-9,-30,-10,-5,11,0,10,52,56,-26
-14,-33,-5,-2,3,3,5,27,11,-59
67,22,37,4,0,-10,-6,-20,-30,-28
82,13,8,-25,-41,-34,-22,10,20,43
45,-7,9,-11,-32,-20,-17,16,12,22
-40,-10,35,14,-2,-10,3,3,30,-13
-107,-44,14,7,-12,-4,21,30,36,-19
-63,-41,21,14,-20,2,15,-14,-45,-51
-67,-55,2,0,-27,0,5,-12,-42,-33
-79,-51,-2,-13,-24,0,7,2,-6,-23
-12,-16,14,-23,-37,-5,-2,1,18,13
85,45,14,-30,-39,-15,3,-5,41,37
96,34,-13,-46,-50,-15,45,30,73,49
97,62,-2,-44,-32,-8,60,30,74,65
54,42,-14,-13,-29,1,43,-10,48,39
33,0,-45,-3,-33,-11,19,-18,51,39
32,-3,-10,-15,-36,-14,9,4,67,73
1,-12,-7,-5,-15,0,17,3,25,47
-17,-4,-20,8,0,3,17,-37,-30,12
4,5,-16,2,0,0,16,-56,-43,-2
-25,-23,-5,-7,-4,9,7,-34,-28,-12
-54,-54,-8,6,-2,16,-35,-37,-57,-55
-66,-61,-17,3,-7,6,-39,-17,-46,-41
-70,-51,0,24,14,11,-39,-29,-62,-53
-57,-59,2,19,14,-5,-48,-32,-70,-47
-57,-83,-33,-2,2,-14,-32,-15,-31,-24
-6,-49,-63,-10,-7,-14,-19,-11,-13,5
0,0,-63,-6,-2,-17,-19,-9,-1,17
-24,25,14,-3,17,-19,-15,-5,-7,1
21,45,36,-15,18,-27,-27,-25,-23,4
43,1,0,-32,-8,-48,-41,-23,15,25
-28,-36,-6,-19,-3,-42,-27,-8,49,6
-17,-21,16,-9,-6,-46,-18,-38,20,-10
-5,-24,14,4,3,-21,9,-42,-23,-30
-26,-38,2,11,20,-6,31,-15,-30,-40
-36,-40,0,12,15,-2,39,10,-6,-11
-32,-36,-3,8,3,-3,38,17,-9,9
-28,-34,-51,13,12,19,39,13,-28,-7
-23,-29,-76,10,22,33,36,-6,-58,-31
-29,-35,11,15,18,21,3,-18,-47,-33
-46,-54,-7,-10,0,15,-12,-6,9,-4
-53,-50,-45,-13,-19,19,2,-11,21,8
-19,0,20,23,8,14,3,-66,-49,-28
15,22,43,11,5,-1,-3,-62,-39,-19
20,8,17,-9,-9,-5,-21,-19,2,10
25,2,6,-9,8,-1,-25,-3,9,6
43,35,34,4,6,-1,-33,-34,-14,-22
25,44,43,12,7,6,-27,-19,-28,-27
-13,16,30,1,6,4,7,5,3,-11
4,13,0,-12,0,0,16,36,37,33
27,48,20,-2,20,-2,2,27,11,14
11,48,38,17,30,-3,-20,0,-15,-1
-7,-5,0,-11,-12,-16,-25,5,39,40
-26,-32,-11,-23,-25,-18,-22,12,47,32
11,16,22,-11,-22,-26,-29,-22,17,-9
25,29,25,-5,-20,-16,-22,-28,14,5
-39,-32,-13,-8,-9,0,24,-7,33,-3
-41,-23,-18,-15,-1,-4,37,1,39,2
70,73,12,-12,-3,-33,-9,-18,5,29
75,40,-34,-15,-20,-28,-23,-3,40,41
40,24,4,-15,0,1,-1,11,23,10
11,7,17,7,9,12,9,11,11,-2
-40,-29,5,14,11,15,25,30,31,-28
-50,-33,-2,3,16,14,9,37,35,-40
-3,-9,16,6,1,5,-2,14,36,-22
23,31,17,23,9,6,-3,10,33,-5
77,54,19,32,4,-2,-10,-10,18,31
69,34,14,22,-4,0,7,23,60,68
-2,-9,-30,21,13,30,12,66,90,40
-17,1,-61,24,21,35,9,38,37,-5
-32,2,0,30,36,20,45,7,-28,-41
22,20,21,26,23,0,45,-21,-69,-13
7,29,29,25,17,5,42,-12,-70,-30
-4,45,35,15,19,5,58,-3,-38,-40
-17,4,7,17,1,-1,42,-9,-17,-67
-9,-12,-18,7,-21,-7,25,0,3,-40
16,-12,-43,-6,-35,-19,21,21,29,22
24,-28,-82,-19,-46,-13,21,42,47,52
28,6,-36,-19,-36,-6,3,0,-20,11
33,19,-6,-26,-31,-2,-11,-13,-50,7
0,-6,-24,-31,-24,8,-9,21,-20,29
14,-9,-121,-37,-32,14,7,8,-12,52
-2,0,-82,-23,-19,8,11,-12,-36,26
-64,-27,-11,-23,-4,7,31,15,9,5
-29,12,30,3,12,15,11,-15,-47,-21
72,76,55,2,-8,-9,-45,-55,-80,5
58,52,29,-15,-23,-21,-70,-46,-21,26
18,22,9,-14,-24,-31,-63,-21,3,36
-18,57,25,-3,15,-24,-37,-14,-26,1
-30,56,21,5,22,-17,-12,-15,-54,-20
-36,-12,-45,1,1,-9,17,-2,-22,-10
-69,-64,-18,3,9,16,37,6,-38,-31
-67,-43,24,27,12,18,5,-12,-38,-47
-52,-6,44,15,3,10,-42,-37,-43,-43
0,8,32,-14,-11,6,-58,-28,-43,-24
0,-3,11,-36,-20,5,-36,21,5,-17
-96,-56,0,-19,-11,16,1,48,34,-40
-60,-21,28,7,-16,10,1,0,22,-14
-29,-27,20,-2,-20,-1,32,2,39,-12
-18,-32,-6,-24,-35,-1,51,27,52,-44
45,3,2,-25,-51,-14,23,22,59,-20
96,33,-39,-36,-56,-27,-3,19,90,46
94,16,-132,-53,-48,-27,1,58,138,76
117,13,-49,-48,-32,-18,3,35,125,55
182,55,13,-43,-37,-35,-25,-24,70,57
93,22,1,-41,-30,-32,-35,-13,81,49
27,9,-4,-22,-5,-18,-10,-14,56,35
-1,15,-11,3,5,-3,-6,-45,11,-13
-38,-2,12,14,10,13,-26,-48,6,-31
-64,0,6,29,15,24,-13,-23,4,-51
-76,11,-1,23,34,44,18,3,11,-48
-79,32,7,32,65,51,46,3,-30,-65
-36,14,-47,49,56,44,38,-12,-83,-70
48,9,13,31,30,18,15,-10,-86,-65
77,8,28,21,20,6,22,-26,-84,-60
34,-24,-11,8,-8,8,23,-13,-49,-44
6,-40,-13,3,-2,26,11,-4,-38,-54
35,-18,-5,-9,-6,22,-20,-9,-30,-20
65,-8,-6,-15,-20,1,-41,-11,-20,19
70,-22,-8,-23,-31,4,-43,16,3,39
41,-18,9,-33,-26,11,-29,16,18,26
-15,-30,24,0,-4,21,-17,-10,-8,-31
-19,-29,19,22,8,25,-23,-32,-55,-59
11,-16,10,3,-8,0,-31,-26,-55,-26
16,-14,3,-4,-12,-4,-17,0,-26,0
-17,-41,-1,-4,5,4,4,19,15,15
12,-19,11,1,5,-5,-9,5,-16,0
28,4,23,17,4,-6,-8,-12,-42,7
-64,-45,-6,27,16,16,1,2,-27,-29
-50,-53,-3,12,-2,7,-37,-9,-13,-5
10,-22,9,11,-13,-12,-67,-43,-10,16
45,2,-8,-5,-22,-5,-32,-5,10,27
15,0,-115,-21,-16,10,25,63,24,35
-29,32,-65,3,25,10,37,39,3,8
31,72,56,11,22,-11,-24,-35,-58,0
18,18,29,11,-3,-11,-55,-13,-27,6
-20,-20,16,3,-2,3,-26,24,1,9
59,23,37,2,-19,-8,-41,-14,-40,41
59,34,50,27,-22,-4,-34,-25,-39,13
1,0,52,53,3,12,-10,-29,-51,-58
-22,-16,28,38,-2,11,-1,-4,-36,-45
-2,-11,23,26,-23,3,-13,-20,-24,-17
1,-11,11,11,-29,-12,-3,-15,-20,-6
-8,-16,-4,-24,-30,-15,14,-2,6,0
-23,-12,-22,-39,-21,-13,22,-9,9,-3
-21,-3,-35,-24,-33,-22,25,4,39,28
-26,-9,-8,0,-30,-9,1,-4,20,7
-48,-4,-83,13,-5,5,9,6,6,-16
0,49,-20,6,0,-2,25,16,29,22
9,26,32,-6,-16,0,4,12,24,24
-72,-20,35,12,15,19,3,-14,0,-26
-75,-15,36,18,18,5,3,-13,17,-15
-23,4,14,-2,-12,-23,-9,2,46,41
-29,-1,-3,-10,-22,-5,-2,8,52,37
-23,13,10,0,0,6,3,1,36,26
3,47,4,7,21,5,7,0,41,23
26,23,-84,-20,-2,2,6,19,79,69
-30,-12,-21,-5,16,0,0,12,58,20
-75,-40,7,6,13,0,9,22,69,-8
-31,-31,8,6,-2,3,18,26,78,26
9,-13,19,7,-14,-3,0,16,81,41
43,17,44,10,-15,-9,-6,-9,47,43
21,12,50,21,0,-10,24,-13,22,41
10,-2,44,13,4,-5,50,-15,43,26
32,-1,20,-3,0,15,58,-12,52,31
5,-2,-49,-12,18,23,72,2,46,3
-30,-13,-27,-13,23,21,84,6,45,-21
-22,-20,26,-25,7,-1,66,28,59,1
3,-9,37,-32,0,-9,13,18,62,24
33,21,52,-22,-6,-12,-22,6,39,25
-4,36,60,-19,28,4,0,36,40,-5
-83,-2,27,-23,48,17,31,52,57,-23
-52,-5,22,-16,12,-2,0,9,34,-8
0,10,36,-11,-7,-13,-11,-15,4,17
-42,-42,12,-11,-6,0,-7,0,11,16
-49,-44,1,-21,-8,-14,-13,1,1,15
6,14,21,-11,-10,-21,-41,-29,-61,6
-13,-20,-39,-40,-24,-23,-33,27,15,43
78,11,-29,-54,-46,-56,-40,20,75,110
118,41,-11,-42,-56,-63,-30,-6,36,96
32,4,-28,-14,-29,-34,3,0,22,48
-32,-19,-56,-1,-7,2,30,-7,-19,3
28,7,-26,5,0,8,20,-39,-63,15
41,0,-21,10,1,14,16,-16,-49,8
33,3,-1,36,25,33,14,-9,-85,-58
35,7,19,49,19,24,12,-40,-122,-73
11,-7,-45,30,-5,9,4,-42,-134,-50
-18,-34,-80,15,4,16,9,-19,-147,-65
-55,-50,-12,-3,-1,18,12,9,-105,-68
-72,-55,-5,-8,1,22,13,19,-57,-55
-81,-45,-43,3,10,27,8,1,-76,-65
9,5,-36,2,5,11,-4,-29,-100,-51
53,56,23,-2,26,8,24,-24,-71,-48
26,67,50,4,53,11,37,-4,-41,-29
20,20,32,-3,33,0,4,-6,-22,-20
9,0,17,7,9,12,-18,-30,-38,-37
-27,-12,7,8,12,39,-3,-20,-32,-30
-9,-14,-22,-8,0,19,21,1,12,0
18,6,-29,3,0,4,23,-16,5,4
4,20,29,10,-5,-1,-3,-25,14,27
-32,16,21,-6,-5,-1,-14,-2,61,56
-67,-13,10,-6,5,0,-5,2,49,33
-73,-23,5,6,11,8,-4,-5,30,47
-63,-13,10,12,10,6,3,-10,8,10
-44,16,31,16,14,-1,23,-6,21,-21
-12,19,-29,10,0,-4,26,21,68,21
-13,-4,-61,4,-5,1,-1,35,96,45
60,14,0,-17,-7,-14,-3,30,80,57
127,51,21,-34,5,-7,-23,22,10,43
71,26,-15,-26,5,-16,-38,-1,-48,16
-19,-22,-22,-14,-5,-10,-41,-14,-39,-7
-60,-27,17,-4,6,9,-44,-19,-44,-22
-20,6,24,-6,3,5,-27,-26,-33,8
46,42,45,-13,0,-14,-32,-35,-24,32
14,11,13,-28,-2,-10,-27,-10,-12,25
-43,-4,3,-24,10,7,-1,9,-27,-6
-80,-25,17,0,22,14,29,-14,-53,-40
6,9,-9,-2,16,-12,9,-19,-42,13
85,45,-22,-10,4,-20,-5,-19,-51,15
11,-10,-45,-15,17,4,18,10,-19,-26
-5,-49,-62,-46,10,-2,33,35,39,3
78,26,-65,-21,8,-7,-9,-19,-44,-10
62,35,-52,1,14,4,-45,-23,-61,-34
42,18,22,0,6,8,-58,-24,-41,-26
69,32,34,-15,-14,-2,-63,-23,-12,8
46,-1,4,-25,-32,-5,-47,5,48,38
33,-2,-6,-16,-25,-11,-25,9,55,43
61,49,21,-8,-12,-11,-14,-28,32,48
55,39,27,7,-5,-21,-15,-44,11,26
14,8,21,11,7,-13,-11,-24,9,0
-45,6,30,5,21,11,16,11,49,7
-64,-1,24,10,26,19,35,36,56,5
-11,0,-29,21,8,5,26,16,50,34
53,39,-102,22,-3,-4,-7,-37,3,40
15,15,-67,5,-1,-2,-3,-4,26,28
-21,-8,2,4,9,17,52,49,48,22
-36,-18,21,25,23,16,72,60,38,0
-10,-9,40,35,20,2,53,36,17,-10
-21,-7,54,38,16,5,69,31,-2,-21
-14,11,68,32,11,-7,39,-8,-41,-24
0,36,71,37,14,-7,22,-36,-48,-37
0,41,-9,42,19,0,34,-46,-27,-25
-39,-1,-65,8,19,10,69,-1,82,9
-25,-8,7,-11,15,18,99,10,99,29
-2,-7,8,-16,1,9,85,24,95,53
51,21,22,14,14,0,64,-7,38,17
49,21,10,7,-1,-14,43,-11,15,-4
-15,-11,22,-6,7,-3,2,-7,6,-21
-8,-15,35,1,4,-6,-23,-10,-5,-13
-30,-50,19,-9,-10,-4,-20,17,37,2
-71,-83,-4,-22,-12,2,26,55,38,-3
-52,-38,18,-1,-11,-2,25,20,-17,-3
-29,10,7,25,0,5,0,-16,-42,-14
11,46,-11,12,5,8,-16,-7,-31,-7
98,51,-2,4,-12,-3,-14,-3,-40,17
74,2,-52,8,-12,-2,-13,-17,-45,-4
39,-24,-5,-3,-22,-7,-20,3,-6,35
23,-29,26,-5,-17,-16,-31,2,-10,26
36,5,10,11,-9,-27,-52,-26,-64,-12
38,26,-49,13,-1,-7,-39,-34,-88,-21
-3,-19,-5,-6,13,-4,-23,-19,-9,22
-47,-68,-34,-33,-11,-8,-36,21,34,15
-50,-78,-24,-39,-31,-4,-46,40,44,0
-11,-47,-1,-36,-10,3,-29,26,40,16
17,-5,26,-24,2,18,-33,7,-2,11
-29,-26,21,-21,3,36,-36,11,-43,-31
-45,-49,17,-25,0,17,-38,25,-28,-23
-41,-21,25,-36,13,0,-21,33,-4,-16
-73,13,56,-14,39,16,-9,19,-53,-46
-71,-17,61,1,17,11,-8,-3,-59,-30
-46,-44,47,-6,-5,-6,-39,-33,-56,-6
-54,-36,46,-5,-12,-26,-37,-38,-44,-7
-58,-31,35,-9,-15,-21,-27,-20,-11,-10
10,-3,9,-16,-23,-3,-32,-3,0,-12
52,36,12,-9,-17,3,-22,11,0,-1
10,19,-3,-15,-7,7,0,36,36,2
-28,-27,-25,-22,4,30,26,45,54,14
-31,-14,-5,14,24,33,-8,-3,-43,-19
19,30,-1,29,25,6,-33,-43,-115,-27
26,39,32,8,3,-1,-16,-36,-99,-29
-1,20,44,1,9,10,8,-24,-91,-49
-2,10,36,7,10,22,4,-13,-75,-42
-10,-22,10,-7,-2,16,11,23,-4,-1
-19,-69,-41,-9,-7,20,5,33,32,14
5,-36,-99,-9,-3,4,-35,-6,7,22
-22,-32,-82,-11,-7,0,-35,11,29,11
-21,-49,-14,-28,-20,-1,-10,23,54,14
-31,-42,18,-10,-7,3,13,-18,21,-24
0,-15,21,-12,-1,-5,24,-33,10,-30
36,12,11,-16,-18,-16,32,-7,65,36
15,39,15,-11,12,-17,18,-8,96,45
-54,12,-8,-6,48,-1,9,-18,53,-17
-77,-41,-94,-4,24,5,14,15,73,-24
-9,-23,-22,-10,-6,-5,-2,26,79,33
66,29,54,-6,-20,-25,-25,-4,22,64
28,25,73,5,-20,-16,-17,2,15,31
-40,-29,50,7,5,11,5,26,33,-7
-43,-16,34,8,12,17,4,32,32,-1
2,14,43,-2,-1,-3,-3,12,17,7
3,-17,-6,-31,-20,-14,13,35,65,20
18,-14,-41,-13,-12,-11,11,21,39,-1
39,-4,-12,2,-2,-7,10,14,11,9
35,-13,10,-6,-9,-17,19,25,10,23
-5,-31,3,-12,-3,-11,30,34,11,35
4,-10,20,10,12,0,-7,19,-35,1
-17,11,62,41,30,6,-30,-14,-110,-80
-48,-12,49,44,27,-3,-38,-14,-102,-90
-72,-38,10,8,20,-8,-26,11,-60,-64
-94,-54,-7,-5,24,-1,1,-1,-49,-56
-72,-26,0,22,20,-12,-24,-29,-60,-39
-89,-31,26,23,21,-5,-46,-43,-67,-40
-134,-76,-4,4,18,13,-19,13,-12,-22
-102,-14,3,6,47,23,9,23,0,-24
-20,65,34,6,58,6,-4,8,-11,-24
14,-5,-1,-2,17,-14,-21,24,25,-1
34,-49,-46,-22,-34,-25,-27,23,43,33
105,36,-28,-28,-48,-24,-35,-7,20,40
144,78,-40,-29,-55,-34,-33,-14,12,25
116,45,-64,-22,-53,-29,2,-4,14,-1
95,17,-83,-25,-59,-38,18,26,56,5
74,-5,-67,-29,-59,-51,-1,22,80,27
86,-5,-47,-27,-52,-51,-18,10,85,68
66,25,3,2,-21,-11,-29,-10,14,21
2,4,24,29,9,13,-31,-40,-52,-34
-26,-13,5,12,-1,16,-22,0,-28,-11
-56,-18,3,19,6,23,0,25,-11,-18
-91,-11,21,39,24,32,12,0,-34,-44
-109,24,39,42,40,26,13,0,-37,-59
-50,47,24,7,14,8,25,33,35,11
54,20,-9,-25,-31,-16,23,45,99,84
129,59,23,4,-24,-23,-14,-41,7,35
73,51,23,28,-2,-4,-24,-53,-37,-4
-55,-24,-30,6,6,17,12,28,36,-9
-117,-60,-56,1,10,38,39,81,81,-25
15,12,-5,6,15,16,21,17,20,-42
96,65,19,4,18,1,-2,-32,-28,-32
125,62,0,-3,-8,-4,11,-18,7,2
73,24,-12,-20,-18,1,17,-6,40,28
28,-11,-22,-34,-9,4,19,-16,30,27
7,0,8,-7,13,19,28,-49,-7,2
0,-5,-1,0,7,13,4,-31,3,0
-17,-17,-4,-12,3,-2,-7,0,13,-19
-35,-18,-5,-1,8,0,-2,-3,9,-28
-48,-27,-1,14,7,8,19,-18,-16,-26
-67,-47,-2,11,15,7,50,-15,14,-16
-29,-9,-1,0,12,-8,44,-19,25,-4
-9,19,1,10,4,-5,37,-11,18,-16
3,18,5,19,8,-2,8,-21,14,-14
0,0,-14,4,5,-5,-7,-16,13,-4
-40,-23,-30,-15,9,8,2,13,20,-21
14,48,10,-2,35,2,-5,21,-4,-8
44,28,0,-6,26,-23,-83,9,-145,3
40,0,-10,-5,6,-22,-104,-29,-172,-3
4,13,-64,-1,-2,6,-24,0,9,9
-44,-19,-37,4,18,24,-5,29,14,-11
-81,-46,-6,21,38,37,-12,12,-17,-44
-8,-15,9,22,15,16,-42,-31,-59,-35
22,17,15,12,3,9,-50,-39,-72,-47
-13,-6,-3,9,12,4,-31,-27,-67,-51
-26,-28,-21,3,8,-7,4,-6,-26,-27
-17,-28,-28,-10,-3,-20,-15,5,-15,-26
-23,-19,-55,3,-6,-20,-33,-9,-34,-34
6,-6,-11,18,-8,-28,-42,-34,-59,-14
55,-7,0,-1,-19,-36,-36,-7,-7,32
52,11,-6,-1,1,-21,-25,10,17,32
28,-23,-55,-13,3,-6,-18,38,49,53
38,-37,-36,-24,0,-1,-20,31,44,48
13,-1,9,5,28,16,-24,-3,-15,-24
20,5,-1,1,18,11,-28,0,-7,-15
19,2,-19,-2,4,11,-34,0,13,-13
-44,-30,-19,18,19,9,-29,-9,0,-30
-28,-28,-21,6,13,4,-24,-2,1,-5
57,70,50,29,29,4,-16,-35,-42,9
36,95,60,35,58,15,2,-20,-33,7
6,28,24,11,29,16,12,10,-1,7
-44,-32,-4,11,15,14,17,15,15,-21
-4,-17,2,7,10,-8,-9,-14,13,-5
30,2,7,0,4,-19,-26,-28,-1,14
-14,-37,-27,0,0,1,3,12,38,14
13,-3,-13,-1,13,3,22,5,30,15
14,21,0,4,19,-4,49,-6,25,13
32,11,-7,-1,-6,-1,45,7,40,48
37,7,-17,-3,-5,1,46,37,56,64
-18,0,-17,16,10,12,55,38,64,32
-40,-19,-19,28,16,14,71,33,62,14
-60,-40,-3,36,32,12,59,25,35,-18
-25,-14,-4,36,11,9,36,10,47,10
-1,57,19,33,35,10,31,2,26,-24
9,64,-15,17,25,2,20,-7,20,-37
41,24,-3,7,-12,-12,-12,1,19,0
32,29,22,23,5,-1,-9,-4,-17,-5
19,24,4,30,6,-7,5,-13,-29,-13
18,-4,-20,9,-13,-21,0,6,-19,-9
0,-24,-112,7,-18,-22,-23,18,-17,-8
-35,-50,-140,-4,-15,-16,-8,46,19,23
-91,-85,-115,4,-4,-17,13,46,29,45
-57,-62,-4,27,-3,-11,-9,-22,-51,10
29,4,42,10,-26,-31,-3,-32,-82,24
-32,-25,27,-4,-7,-28,28,-1,-72,-10
-71,-46,18,-3,1,-13,18,9,-59,-13
-76,-31,24,2,-12,-20,-12,0,-38,1
-127,-70,-19,-11,-28,-19,-11,26,28,48
-112,-37,-61,-5,-16,-4,-3,22,16,58
-106,-19,1,15,8,15,17,8,-25,0
-109,-44,-9,-1,0,15,35,20,6,-3
-40,-20,5,-19,-15,-7,16,22,15,30
-21,-19,8,-8,-13,-2,23,13,-4,6
36,-14,9,-23,-15,-11,8,5,-15,-3
74,13,29,-30,-22,-49,-17,-25,-18,2
30,41,42,-28,-19,-41,-18,-34,-12,8
-33,43,41,-38,-4,-7,21,16,43,22
50,78,45,-26,-17,-13,1,-6,37,34
172,84,40,-3,-41,-24,-50,-49,-12,44
168,68,50,0,-25,-9,-46,-52,-52,7
13,-5,36,6,-6,34,-9,7,-24,-52
-46,-43,12,-5,-7,51,11,69,28,-39
-48,-13,21,-9,-8,33,17,83,54,-1
-34,0,11,-19,-14,9,-1,71,77,35
109,48,-36,-40,-27,-24,-31,28,46,74
192,85,-85,-45,-35,-49,-31,18,59,86
142,69,-16,-27,-32,-39,-14,15,73,45
130,49,-2,-26,-41,-23,13,19,69,62
32,-22,-34,-35,-22,18,50,59,80,30
-49,-62,-48,-30,2,23,44,48,40,-37
9,3,17,-7,5,-2,8,-12,-7,-48
19,-5,21,-18,-7,-3,17,27,5,-22
9,-9,48,-6,0,13,55,37,-3,-19
29,27,83,23,22,34,68,-20,-78,-49
34,28,80,38,30,34,58,-59,-100,-73
-24,-14,51,13,11,24,30,-28,-28,-60
-45,-40,17,-23,-18,13,28,6,39,-29
-13,-27,-10,-30,-30,10,18,15,45,-13
28,54,-65,-6,0,26,32,-5,-13,-3
26,65,-34,-9,21,25,55,-4,-18,5
3,3,26,-21,-15,4,27,7,3,-5
-6,-17,39,-12,-28,6,-9,-11,-22,-26
-10,-14,57,1,-9,13,-12,-38,-50,-40
-6,-19,52,2,-2,10,10,-16,-28,-27
-8,-3,31,4,-10,1,0,-11,-41,-19
-1,6,36,8,-8,-1,-23,-13,-51,-13
38,-1,43,6,-7,-5,-37,-21,-48,-1
9,-48,12,-11,-26,-3,-24,19,-8,13
-32,-68,1,-15,-16,2,-10,37,-8,-8
0,-46,4,-20,-16,-5,21,34,2,16
20,-9,26,-10,-16,-8,44,19,-9,14
38,11,60,0,-10,-6,15,-5,-33,-5
40,24,63,3,-11,-5,1,-12,-45,-6
-20,20,41,-12,10,5,31,23,-44,-31
-32,-7,-31,-11,-5,-16,17,14,-44,-19
-1,-24,-113,-7,-37,-53,-6,2,-51,4
-5,-13,-46,-5,-36,-58,-31,21,-2,13
-15,-22,-16,-9,-29,-37,-51,33,31,27
-85,-65,-40,10,3,3,-39,25,-4,-22
-60,-44,-2,-3,-11,1,-41,25,7,-1
-69,-33,0,-21,-4,0,-24,58,48,1
-38,-7,21,-22,-7,-28,-14,28,35,-15
-7,-13,0,-33,-18,-44,-27,3,15,0
-9,-5,-65,-29,2,-18,-28,0,-42,-9
-35,-18,-37,-9,28,-1,-26,22,-52,-27
-33,-23,25,7,34,0,-14,43,-2,-1
-16,-27,12,-1,25,-5,27,34,18,32
5,-14,23,-5,11,-11,24,-4,2,64
-16,-13,39,20,27,-10,42,-4,-30,18
-47,-40,8,26,36,-13,52,7,-30,-28
-86,-57,-14,49,43,1,28,-5,-36,-66
-24,-11,20,39,18,-15,-18,-30,-42,-43
-22,-2,-22,33,22,0,-2,-29,-56,-70
-40,-22,-15,5,7,16,20,-1,-26,-49
-39,-32,18,-9,0,33,31,35,23,-15
-32,15,39,13,14,25,9,8,13,-22
-12,71,53,21,21,14,-7,-11,8,-21
-18,30,15,-6,-1,17,4,1,48,0
-35,-9,14,4,-7,26,4,-10,34,-19
-58,4,40,24,12,22,-8,-36,2,-56
-60,-3,23,13,7,25,4,-34,-10,-55
-53,-25,4,24,-2,25,-2,-27,0,-33
-47,-20,-7,13,-12,22,9,0,16,-7
-13,17,21,28,-7,4,40,-26,-20,-3
-62,-2,-17,23,-8,-3,52,-27,14,-4
-46,-2,-26,1,-10,3,52,-13,42,21
47,17,24,0,-17,-4,33,-31,35,54
26,1,16,6,-13,1,31,-34,18,13
-1,-4,14,7,-24,4,32,-13,33,-3
-51,-17,-1,19,-26,17,16,13,53,-12
-29,0,3,21,-8,16,0,1,58,-1
92,24,-68,1,-22,-6,-15,-12,52,43
155,53,-78,-26,-49,-27,-34,-8,56,42
117,28,-35,-6,-41,-43,-24,-6,29,10
72,11,-1,1,-23,-31,8,-4,7,-10
70,20,6,-10,-32,-26,0,-19,-3,10
66,22,7,-14,-30,-16,-3,-26,-17,11
32,5,-51,-21,-16,-2,5,-3,2,12
18,42,3,10,16,14,22,23,43,33
9,39,35,1,4,3,-13,36,67,44
72,34,21,7,-29,-28,-61,-14,22,41
77,33,16,20,-30,-30,-64,-29,-4,28
-7,-22,-8,1,-25,-12,-42,12,40,33
-74,-48,-24,0,-6,11,-11,25,27,10
-32,6,5,23,0,16,0,-16,-46,-10
-22,16,13,39,16,17,-24,-23,-74,-24
-40,-11,2,31,13,11,-35,-19,-50,-7
-33,-24,-2,19,5,2,-51,-24,-48,0
-38,-28,-7,17,9,6,-55,-27,-59,-27
-37,-31,5,26,8,8,-55,-31,-60,-27
-6,-23,1,12,-4,-4,-55,-36,-54,11
-37,-37,-2,6,0,11,-34,-16,-44,-2
-31,-40,-9,17,22,28,-24,-5,-42,-30
48,10,21,8,30,11,-34,-7,-28,8
89,31,27,4,7,-21,-55,-30,-35,28
0,-20,-9,6,-2,-19,-30,-13,-12,-37
-28,-47,-38,4,-7,-23,-15,8,37,-13
11,-44,-116,-16,-19,-27,-23,3,56,32
104,-5,-99,-22,-42,-35,-24,15,46,72
158,20,-36,-39,-60,-35,28,47,90,127
57,38,6,-3,-6,-24,54,29,83,74
56,56,36,24,5,-27,38,-26,19,47
47,36,3,-4,-19,-20,29,-3,38,59
5,2,-15,2,-20,0,30,24,37,21
-26,-14,-15,11,-10,13,29,36,42,-6
-15,-3,-11,1,-2,11,17,40,58,10
-20,-16,-16,-6,8,29,22,49,51,15
-26,-9,-5,-3,18,46,-4,42,46,30
24,17,4,-19,1,29,-33,33,44,56
-8,-19,-9,-31,6,28,-8,36,41,27
-63,-45,-7,-12,38,49,26,31,-12,-37
-86,-39,9,14,51,39,13,-12,-83,-98
-37,-2,27,22,39,14,-20,-37,-75,-74
45,30,31,5,18,0,-29,-29,-23,-8
16,-3,10,-2,15,13,1,-9,22,7
-48,0,13,9,45,25,26,9,34,-35
-39,63,38,8,73,20,20,-25,10,-51
-35,19,9,-16,41,15,9,-15,47,-14
-75,-43,-3,3,19,21,4,-15,53,-24
6,23,27,24,14,-1,-7,-67,3,-13
26,41,17,13,-9,-13,24,-64,16,-12
-4,21,8,15,-7,1,43,-48,46,-22
0,13,0,6,-11,3,23,-26,75,10
-10,11,7,3,0,15,12,-13,73,-13
-28,-5,3,14,-2,23,5,-16,49,-35
-34,-6,16,28,3,20,33,0,11,-42
-44,-12,26,20,-1,14,47,41,-6,-47
-31,-6,14,1,-20,2,34,70,10,-21
-11,-8,-5,-16,-33,-3,16,78,34,11
-12,-8,-11,-19,-38,0,15,46,12,16
-4,-16,-26,-23,-36,-5,-6,30,7,26
78,15,-33,-36,-38,-12,-34,0,-5,51
41,26,-50,0,-8,7,-40,-41,-72,2
4,13,-96,31,11,17,-25,-59,-112,-24
-38,-35,-49,2,-6,5,16,9,-43,-8
-30,-32,-20,-19,-14,-6,0,44,4,37
-5,-9,-6,-20,-4,6,4,55,18,43
-12,22,34,2,12,0,-8,17,1,-6
-30,43,52,12,25,-10,-8,-24,-21,-20
-17,20,26,-2,14,4,0,-26,-11,8
-6,-21,18,2,0,0,9,-33,-32,18
21,-16,29,8,7,4,-6,-41,-87,-11
-26,-39,23,13,26,26,-15,-40,-121,-65
-73,-54,13,26,35,35,-3,-53,-144,-76
-82,-28,22,32,30,42,-17,-70,-155,-83
-71,-5,6,18,6,23,-22,-42,-94,-71
-33,-5,0,6,-19,2,-28,-38,-69,-37
-11,0,-10,-7,-26,-18,-18,-25,-3,-9
53,21,-19,-32,-40,-32,-16,-12,45,24
102,50,11,-32,-33,-29,-23,-31,3,28
97,55,9,-18,-20,-25,-26,-38,-10,32
42,7,-24,-16,-7,-24,-13,-22,14,27
-3,-4,-33,-20,9,-6,2,-9,25,3
-68,13,18,0,48,18,25,2,12,-25
-85,-12,33,2,41,22,16,-12,4,-22
-71,-43,23,9,0,14,4,1,33,23
-127,-72,7,26,3,25,16,13,32,0
-90,-54,2,16,-5,2,3,-10,23,0
-95,-47,-52,3,-8,-1,6,-11,47,-15
-15,9,-78,-1,-8,-10,13,-33,35,-9
152,100,15,-16,-23,-27,-3,-38,14,12
201,74,7,-21,-45,-27,-12,-31,10,25
160,19,-23,-17,-55,-8,1,-23,27,29
81,-15,-15,-21,-34,12,29,-6,30,10
31,-25,-9,-26,-26,6,37,14,25,13
6,-42,-25,-22,-19,1,45,39,32,25
43,-6,-26,-25,-12,1,33,36,30,18
90,44,1,-22,-6,-3,-11,14,-3,22
65,41,-72,-12,-21,-5,-17,17,-2,31
53,8,-129,-11,-26,-12,-11,18,-7,46
47,4,-116,-15,-24,-9,-6,15,-25,43
-12,-13,-40,-4,-23,6,-2,21,-26,20
-51,-14,56,22,-9,16,-14,3,-44,-21
-81,-13,52,27,-9,18,-11,-3,-35,-31
-61,-15,25,13,-11,9,13,-2,-54,-17
53,49,38,1,-2,-4,14,-6,-66,8
137,72,29,-11,-9,-20,22,16,-21,44
175,38,17,-7,-35,-33,3,5,-21,48
152,22,23,-3,-45,-45,-14,-12,-33,33
66,-6,4,-20,-45,-45,-8,22,-13,5
-58,-66,-6,-2,-25,-12,12,55,33,-18
18,-25,14,4,-24,-19,-28,17,7,22
67,1,31,-9,-27,-30,-44,-3,-21,19
15,-29,-3,-18,-8,-15,-8,17,21,8
-34,-60,-27,9,5,23,22,15,23,-22
3,-13,4,26,0,9,-8,-6,6,-16
24,-1,5,18,-13,6,5,4,41,28
1,-23,-1,15,-3,18,27,9,40,0
-44,-25,2,24,28,29,12,-15,7,-48
-65,-43,3,27,18,21,15,5,35,-35
-11,-8,11,7,2,1,0,3,40,-3
7,2,15,-9,-16,-4,-10,-5,36,7
29,12,18,0,-30,-6,-14,-28,20,26
15,8,21,-2,-23,-6,-11,-11,35,24
-38,-9,13,8,-3,16,17,10,33,-5
-22,-2,13,0,-16,18,40,7,25,-1
-11,0,-4,-3,-15,16,48,24,25,0
-3,27,-2,-7,-12,8,53,43,51,-13
10,70,20,-14,11,10,50,51,58,-7
-10,45,9,-16,16,14,41,33,68,0
6,11,4,-10,-16,4,22,1,53,17
45,30,20,-3,-25,0,-2,-30,41,47
24,30,27,5,0,20,-3,-34,84,65
37,22,7,6,8,-1,-4,-37,98,84
62,38,3,0,0,-16,-20,-44,64,72
-7,27,-13,23,25,8,-19,-31,11,-26
-4,1,-4,20,12,11,-22,4,-8,-40
46,27,18,12,12,8,-21,8,-6,9
24,29,37,25,22,7,-27,-7,-10,-5
-61,-38,-14,3,11,0,-17,36,29,-23
-66,-55,-26,-19,10,8,-8,80,53,1
-61,-51,-8,-4,13,22,-5,89,27,-5
-55,-26,6,24,32,21,-5,35,-34,-15
-50,-16,18,21,49,9,3,2,-48,-5
-17,-37,10,3,36,0,7,-19,-46,-5
-14,-45,6,11,38,5,-10,-23,-56,-17
67,-10,-51,5,23,-21,-34,-39,-77,-1
155,37,-83,-21,-1,-30,-37,-24,-75,48
55,-15,-50,-17,11,-5,5,32,-39,16
-49,-67,-52,-5,33,9,32,23,-15,-1
-39,-32,0,0,54,13,26,20,-12,22
47,51,68,38,35,11,-8,-27,-63,-1
86,84,79,49,17,-8,-37,-50,-75,-3
-7,-19,-2,16,13,-5,2,14,-24,0
-102,-85,-19,10,20,8,67,28,-31,-50
-90,-47,21,29,38,26,68,-22,-94,-101
-68,-20,-24,35,35,30,60,-46,-102,-68
-57,-5,-36,27,42,8,27,-31,-111,-47
-35,-47,-3,-10,35,-40,-86,-38,-278,-64
-20,-26,0,-18,1,-45,-62,-18,-122,-19
-47,5,7,11,10,-27,-30,-5,-6,-4
-28,-4,-18,4,8,-21,-39,-5,4,17
-61,-30,-24,6,11,-7,-27,-5,1,-32
3,27,26,24,11,-6,-37,-34,9,10
5,75,34,36,25,0,-39,-24,8,10
-37,-12,-90,-14,2,-40,-142,1,-195,-6
-12,-160,-174,-78,-49,-106,-306,-33,-539,-15
1,-68,-124,-20,-19,-43,-149,-30,-270,1
28,40,-35,21,-7,-5,-48,-32,-31,49
-13,37,22,15,-6,27,7,19,124,65
-73,-5,33,24,7,35,60,43,127,8
-18,34,39,16,-5,10,41,44,120,2
25,31,-45,-2,-9,4,20,50,114,-9
6,9,-82,7,-1,20,46,20,88,-45
-6,23,-63,26,3,21,46,-12,69,-45
10,10,-9,-9,-16,-5,32,13,113,14
9,12,26,0,-10,7,15,-2,118,10
2,17,31,10,-2,17,9,-9,78,-30
-3,17,2,-10,-5,16,8,6,69,-18
49,61,-8,-3,-15,0,-11,-14,48,15
6,38,1,-6,-37,3,9,20,114,44
-13,9,13,-7,-32,5,15,13,125,33
2,37,41,14,-8,-2,-4,-35,60,1
25,-3,3,-13,-31,-42,-56,-30,-58,45
-12,-21,11,-2,-3,-15,-12,-14,-90,-11
-90,-21,18,23,17,35,72,38,22,-70
-48,-26,-7,9,5,25,34,84,37,0
-15,36,50,36,25,20,7,29,2,-4
-73,13,45,37,17,18,6,0,-4,-49
-82,-13,15,25,-11,18,0,-1,-5,-47
-54,7,28,35,-15,13,-21,-38,-37,-52
-75,-14,10,34,-4,21,2,-22,-19,-48
-57,-50,-40,-7,-24,14,30,41,54,23
28,14,-51,-27,-40,2,11,42,45,8
91,66,1,-10,-21,-2,-4,11,27,-27
134,91,27,2,-24,-10,-11,-38,-1,-27
171,126,65,25,-31,-13,-21,-65,-20,-8
80,65,48,4,-22,7,12,-16,34,-4
-5,-25,-19,-33,-29,18,53,60,122,18
-23,-10,2,-4,-1,41,34,35,35,-46
23,18,-46,5,-1,42,18,24,4,-49
45,29,-74,-11,-10,22,24,43,34,-13
26,36,19,-1,1,25,43,28,38,-14
4,14,-45,5,4,9,51,6,37,-10
7,11,-40,12,11,-3,34,-8,39,-18
-2,-13,11,-18,-4,-8,5,18,93,27
-37,-33,24,-23,0,-8,3,38,127,32
-60,-21,58,12,13,-1,2,26,87,2
-60,-18,62,5,8,0,-7,14,58,-4
-68,11,85,6,29,9,-4,19,67,-1
28,71,89,5,4,-20,-29,-29,26,23
40,45,47,-3,-1,-23,-19,-33,-12,-4
19,-1,0,0,27,15,6,-12,-59,-45
26,2,7,-1,20,5,-20,-17,-56,-31
46,-7,9,-17,-3,-18,-39,-14,-33,12
50,-7,0,-36,-24,-39,-42,-9,-13,19
42,2,-3,-48,-22,-28,-38,6,33,48
-38,-33,6,-26,11,-10,-39,-7,27,31
-30,-18,22,1,28,-5,-35,-49,-46,-12
19,3,22,-9,4,-21,-41,-52,-54,23
-19,-22,13,-30,-6,-14,-31,-7,-17,39
-110,-56,16,-23,18,11,0,15,-19,-45
-99,-45,19,-14,22,12,3,0,-23,-35
-64,-21,21,-5,30,6,-21,-27,-36,-20
-44,47,46,0,51,11,-15,-39,-69,-32
-24,71,41,-12,38,-6,-9,-22,-55,-14
21,39,-53,-23,6,-20,-29,-25,-52,-26
44,18,-134,-25,-14,-18,-25,-33,-46,-17
9,-9,-139,-22,-14,-13,-1,-22,-30,-10
-15,-28,-94,-19,-12,-3,16,-21,-21,-13
9,-25,-6,-22,-11,-4,17,-3,11,25
44,-2,23,-15,-2,-10,20,0,31,29
89,42,43,-11,-4,-31,-6,-24,-3,9
40,2,10,-17,-7,-27,-7,-26,12,5
-23,-30,10,-13,0,-24,0,-22,19,0
-23,-23,15,-11,4,-17,8,-11,26,10
12,7,25,-30,-15,-38,-2,6,60,43
26,35,38,-32,-18,-44,-13,7,78,84
-35,-11,7,-39,-11,-33,2,36,109,93
-68,-34,-14,-47,10,-9,19,55,120,71
39,9,-32,-38,7,-28,25,17,60,61
98,41,-97,-16,4,-23,18,0,7,29
77,35,-6,-21,2,-18,0,-6,13,29
18,4,23,-33,5,-18,-3,2,38,14
-1,0,25,-27,0,-20,12,19,24,0
12,20,40,-9,14,2,62,28,11,-5
-13,37,53,9,53,29,84,42,-12,-29
2,86,86,31,80,61,93,31,-37,-14
8,53,66,27,32,57,68,3,-33,11
-7,-22,39,4,-12,32,40,-17,-8,7
-2,-24,33,5,-17,16,23,-20,-5,-2
-47,-50,12,16,-3,23,18,12,13,-31
-52,-61,8,17,-5,27,21,9,46,-9
-12,-33,4,4,-13,14,13,-13,42,11
4,-5,-5,10,-8,12,20,-20,-7,-16
36,12,31,16,-11,12,35,-42,-52,-25
37,16,46,7,-11,10,53,-46,-62,10
26,14,44,14,-5,8,60,-38,-61,30
28,32,42,16,-21,0,26,-33,-68,23
-2,21,30,9,-18,0,-17,-32,-59,-6
-66,-61,-18,-6,-21,15,1,22,11,13
17,-16,-8,-15,-30,-1,-19,4,-21,45
33,22,3,-8,-31,-16,-39,-16,-55,23
-6,-23,-42,-4,-26,-9,-24,8,-52,8
-8,-20,-1,16,-4,-3,-29,0,-64,-2
-20,-14,-42,15,9,10,-33,-20,-57,-8
-13,-7,-116,-5,-6,3,-36,-22,-33,7
1,-14,-26,-21,-20,-8,-36,-9,-12,34
33,3,30,-31,-7,-7,-40,-9,-14,83
46,40,42,-31,14,-1,-25,0,-6,56
-24,9,31,-6,29,17,15,-10,-12,-12
8,8,45,16,27,19,11,-60,-64,-39
43,27,63,26,23,5,-18,-73,-85,-19
18,-3,53,9,1,-4,-30,-59,-45,-5
-4,-42,16,-10,-14,3,0,-4,8,15
-10,-40,-4,-18,-11,6,35,38,12,-5
-56,-62,-28,-22,0,1,46,71,47,-18
17,1,5,-13,-9,-11,2,21,16,2
32,29,27,2,-2,7,-32,11,1,-2
-54,-29,0,-11,13,23,13,48,30,-35
-79,-61,-17,-4,22,17,50,40,39,-18
-19,-22,-3,11,12,14,37,-19,-19,3
-25,-20,-7,3,4,25,43,-11,-16,-19
-51,-27,-5,-9,11,18,50,3,-6,-53
-12,34,39,-13,31,1,42,-15,-19,-31
-34,34,36,-4,39,3,29,-12,-6,-13
-33,-18,9,-3,10,-11,-3,-19,-6,-5
-44,-48,-14,-24,-5,-11,-3,-4,-7,-11
-54,-53,-21,-26,-16,-12,15,13,16,-11
-7,-10,-6,-23,-22,-19,25,30,38,20
53,26,7,-24,-15,-21,6,31,38,48
50,4,-13,-31,-12,-8,0,25,47,54
17,-26,-31,-34,0,5,-7,26,63,42
-9,-31,-20,-21,9,17,-12,12,43,-14
-13,-39,-28,-30,-2,4,-5,43,79,7
66,5,-25,-33,-4,-12,-21,21,56,48
61,14,-81,-27,16,3,-15,3,58,49
29,9,-24,-25,8,10,-13,22,73,20
-11,-13,-9,-19,7,16,5,46,94,4
-21,-36,-16,-25,8,11,13,52,119,35
-34,-49,-21,-15,5,3,24,24,120,62
-56,-42,-84,10,25,10,44,0,73,38
-36,16,-21,38,41,4,42,-35,-23,-7
-21,56,76,39,34,-4,40,-37,-53,14
-80,28,81,40,41,7,59,-7,-58,-13
-95,-4,56,28,27,11,68,30,-45,-62
-62,39,56,17,29,-5,61,27,-26,-31
-23,75,65,14,44,-18,35,16,1,11
-1,49,41,-2,29,-7,15,3,-6,-20
26,-15,-10,-14,-2,-1,2,2,-4,-36
185,33,-35,-34,-40,-19,-51,1,-29,16
255,91,-1,-19,-36,-15,-72,-39,-100,17
144,59,-7,-4,-8,4,-54,-32,-113,5
42,40,-14,8,24,18,-42,-16,-123,-39
27,34,13,16,32,20,-31,7,-97,-31
-15,-26,-13,3,16,25,11,33,-27,-26
16,2,-12,5,16,35,-6,-3,-62,-40
22,14,-59,-3,6,13,-20,-13,-54,-25
27,0,-37,-1,1,5,-16,1,-35,-11
23,9,-25,-1,4,22,-12,11,-29,-8
17,21,-84,5,8,29,-12,18,-23,10
-24,20,-105,6,21,20,-6,37,-12,-7
-89,-17,-95,6,14,10,-2,32,7,-10
-103,-52,-103,10,9,7,27,19,17,-22
14,-21,-58,-19,-21,-17,14,17,30,13
188,73,-119,-33,-52,-47,-38,1,22,63
167,89,-63,-10,-28,-33,-42,-2,9,44
112,40,22,-23,-26,-11,-25,32,49,59
43,11,25,-14,-6,17,12,55,37,60
-4,35,45,15,46,30,35,36,9,42
-32,4,15,11,24,2,27,20,33,61
52,30,17,15,-14,-24,-7,-12,10,117
-6,14,41,38,14,5,24,-37,-72,10
-100,-28,32,39,46,26,60,-36,-129,-88
-77,-25,22,25,20,9,66,-4,-77,-48
-57,-9,33,15,-1,9,57,27,-18,-22
-18,46,20,24,-3,-14,30,-24,-38,-24
-77,3,-3,31,5,6,37,-24,-22,-43
-100,-15,12,34,4,21,48,-24,-21,-47
-46,26,6,30,-11,2,41,-36,-23,-22
-3,51,36,12,-18,-6,32,-28,-5,8
-26,13,13,-3,-24,9,35,27,52,14
-44,-18,13,3,-21,25,7,31,28,5
-3,22,53,31,-13,8,-27,-14,-19,-13
54,96,65,23,-16,-9,-38,-5,2,37
42,75,39,5,-28,-11,-22,24,41,72
-33,-13,14,11,-20,3,0,11,21,3
-38,-45,1,-9,-28,2,-1,19,39,14
-48,-47,-10,-3,-30,6,2,26,33,0
-13,-9,-71,24,-20,2,-30,-23,-31,-24
-16,3,-31,34,4,-2,-55,-56,-79,-39
-33,-17,38,25,8,-9,-52,-52,-66,-14
-9,-32,12,1,1,-22,-60,-34,-59,0
-49,-66,-90,-25,3,-23,-39,-6,-54,-26
-50,-89,-114,-50,-8,-24,-17,33,34,39
23,-24,-2,-14,-2,-16,-11,0,-33,25
69,30,48,13,9,-19,19,-47,-113,-32
27,-30,-16,-5,0,-19,55,6,-32,-9
-13,-35,-99,0,-6,-20,54,42,16,-14
14,5,-47,-4,13,-15,38,8,-3,-12
-7,-10,3,1,19,0,35,-11,0,-11
8,-9,6,-3,9,-2,30,-8,3,9
0,0,25,8,15,6,51,-6,-12,0
-22,-6,45,32,30,23,61,-23,-38,-45
-30,-28,1,20,23,16,61,-5,3,-38
-24,-49,-101,-1,11,7,64,32,58,-9
-2,1,-15,1,29,10,75,28,72,6
0,32,-10,-6,27,6,82,53,90,28
27,14,-83,-13,1,6,48,29,76,18
20,-18,4,-6,-23,12,27,17,78,3
57,2,44,-33,-53,-6,-5,18,93,44
40,-14,14,-43,-69,-25,-23,60,154,74
15,-25,31,-20,-41,-12,-51,26,98,57
36,12,74,22,-11,17,-51,-25,-1,7
-20,-2,62,49,11,60,7,1,-26,-37
-39,-33,41,44,18,61,38,17,-19,-23
3,-4,45,20,0,27,10,20,-9,9
46,10,44,8,-13,4,-36,8,-31,7
10,-9,18,13,6,8,-44,7,-18,-1
-47,-28,31,28,20,22,-32,9,-7,-27
-33,8,48,29,7,13,-48,-8,-27,-19
25,57,44,8,-3,-14,-64,-16,-27,12
46,31,35,11,-14,-21,-69,-39,-21,-4
22,-6,2,11,-11,-2,-52,-17,-13,-5
-1,-52,-17,0,-12,2,-32,28,20,8
-44,-53,7,20,2,26,-41,8,-22,-34
-43,-45,5,12,-8,12,-73,1,-20,-22
20,-23,-11,15,-24,-13,-104,-12,-42,1
34,-13,1,9,-9,-13,-83,5,-29,30
0,-14,14,5,24,1,-46,38,0,33
-35,-60,7,-1,15,6,-58,32,19,20
-17,-49,1,-4,-8,-16,-84,8,7,13
24,-29,1,3,-14,-28,-86,-1,-9,22
40,-22,-1,-8,-23,-27,-72,13,8,38
-13,-35,-3,0,-10,-13,-46,35,9,17
-23,-17,-32,12,12,-8,-34,20,-39,-10
-19,-20,-72,11,9,-5,-36,19,-38,-12
-48,-29,-31,2,8,2,-20,34,-12,-31
-34,-13,33,19,8,13,-12,4,-32,-51
-45,-4,46,36,20,23,-2,-22,-56,-46
-46,-18,35,33,5,22,14,-12,-21,-4
-68,-18,36,29,1,33,49,6,-8,-13
-12,14,33,29,1,22,42,-7,-16,-29
42,20,-17,3,2,8,32,8,2,-25
28,36,-8,-22,5,-4,9,21,42,6
-2,22,0,-21,-1,-25,-17,15,47,2
32,3,-17,-23,-24,-28,-25,4,38,19
53,2,-55,0,-19,-19,-27,4,24,31
45,18,-44,9,-6,-15,-19,-15,16,19
26,16,37,19,5,0,25,-5,12,7
-7,-9,16,-4,-8,11,46,38,49,18
-68,-40,-19,-19,-5,32,83,75,60,-1
-50,-21,-31,-16,11,52,79,31,0,-43
-9,21,-57,-12,9,39,37,0,-11,-28
30,48,-32,0,0,15,13,-13,-8,-2
10,59,59,14,10,15,-2,-19,-23,-30
8,54,82,20,26,-7,-19,-54,-37,-33
-79,-15,47,-4,15,-6,-6,-26,16,-31
-149,-79,17,-6,9,11,18,27,67,-23
-98,-43,36,3,11,19,9,-9,20,-14
4,13,70,11,4,16,-19,-40,-35,-10
15,-15,28,-15,-26,15,-17,-5,20,30
-20,-22,15,0,-13,13,6,-20,0,2
11,13,16,8,-21,-9,12,-33,-40,-8
23,4,3,8,-2,-4,7,-45,-54,-32
80,39,17,8,-1,-13,6,-41,-63,-21
129,123,63,1,0,-28,-14,-23,-47,-3
44,102,63,10,23,-14,-5,7,-35,-23
-8,44,29,5,5,-16,-5,8,-10,-22
-6,28,32,17,16,-8,-17,-1,-23,-28
38,34,0,16,14,-23,-29,-9,-8,-5
57,39,-52,5,4,-43,-31,-29,8,10
65,24,-24,-8,-17,-57,-36,-16,34,19
71,-8,-65,-44,-36,-49,13,26,93,34
103,-18,-70,-60,-33,-31,39,34,106,64
90,-25,-52,-36,-15,-6,37,29,32,30
22,-41,-54,-15,-6,7,20,29,0,-12
23,-32,-44,-11,-5,3,27,6,-16,-3
21,-9,-18,4,20,15,45,-22,-58,-7
-13,10,3,13,37,11,47,-13,-71,-54
-25,10,13,4,30,-1,34,4,-35,-74
-1,28,28,0,16,-13,-10,4,-21,-53
-6,0,5,-13,14,-28,-17,-3,10,-32
-1,-7,3,-4,17,-22,-27,-20,16,-15
-20,-11,-8,1,9,0,-29,-22,9,-19
-14,-8,5,2,-5,0,-19,-15,20,-6
-4,-8,-18,-3,-12,-12,2,0,36,2
-1,7,-22,1,-6,-2,4,13,35,-2
-8,32,19,10,20,16,12,24,27,-12
-31,62,43,15,47,17,14,5,7,-42
-6,50,30,11,5,-14,-2,-11,6,-24
39,43,3,7,-19,-34,-5,-10,36,31
30,5,-6,-5,-18,-28,-14,8,86,71
-76,-38,-27,9,7,6,15,48,110,10
-95,-66,-53,6,6,6,15,44,95,-16
-7,-8,-34,1,-4,-1,7,6,45,3
6,38,-67,-4,-2,-14,28,-14,20,-10
-22,25,-96,22,1,-13,42,-15,20,-20
-2,27,3,28,-3,-16,27,-2,-5,-32
-16,0,15,27,-11,-8,24,27,1,-22
-19,-5,15,44,-2,-1,26,19,-3,-13
-15,15,-2,53,10,-3,17,-19,-44,-52
-10,4,-45,23,-7,-19,16,3,-26,-27
-6,0,-26,-22,-33,-46,11,33,31,36
48,58,-10,-55,-40,-60,7,49,51,80
43,47,6,-25,-17,-28,4,14,-7,45
-4,-6,7,-5,-11,0,11,-2,-31,-10
-32,-22,-1,2,-3,14,8,-11,-60,-39
-44,-45,-17,-2,7,21,16,-21,-48,-37
-55,-55,-11,-9,9,15,27,-8,-29,-26
-12,-29,2,-9,-14,-3,17,2,-15,2
10,-12,-29,-28,-48,-7,24,40,21,27
43,-9,-68,-35,-54,-11,-3,31,40,63
37,-2,9,2,-16,6,-39,-19,-29,20
41,17,29,27,-13,11,-27,-43,-71,-9
25,9,-24,18,-6,10,-6,-14,-61,-18
-4,-15,-86,9,0,10,-12,-3,-16,2
-33,-58,-83,-28,-14,14,-22,21,40,43
-44,-32,-28,-6,-10,3,-39,14,48,38
-33,6,25,5,10,-4,-40,0,8,-6
-34,-16,1,-13,16,-2,-10,33,37,17
-26,-14,-6,-2,18,2,-16,26,36,31
-19,-5,-77,-1,18,-2,-29,3,-3,24
-6,-2,-53,-6,0,-2,-15,0,-10,0
31,10,7,-24,-29,-12,18,33,63,30
26,7,-8,-26,-17,-3,35,52,81,49
23,37,-1,-5,13,19,43,17,16,33
52,62,31,-22,1,13,39,16,25,46
47,32,21,-19,-6,6,23,-8,22,40
-7,-14,5,-9,16,25,30,-9,21,-13
15,3,22,10,16,18,-1,-13,-1,-41
-17,4,5,21,23,16,17,-9,1,-41
-30,-4,15,8,15,11,29,3,22,-4
36,40,37,5,23,0,-14,-46,-35,0
-15,0,22,13,29,26,9,-23,-57,-47
-62,-32,18,18,18,39,15,-2,-69,-59
-10,3,25,16,6,6,-12,-16,-76,-17
-22,-14,22,29,7,25,-25,13,-63,-11
-70,-38,17,38,10,29,-36,13,-51,-5
-80,-71,1,15,10,12,-32,22,-20,19
-49,-64,-9,16,12,17,4,21,-8,-5
35,-11,-60,0,7,2,19,20,9,0
106,11,-81,0,-15,-15,-4,-20,-26,13
120,-3,-18,-3,-22,-27,-26,-46,-40,10
61,-41,-22,-30,-25,-16,-52,-14,20,33
55,-33,-31,-33,-31,-19,-52,-32,16,38
30,3,-20,5,-13,0,-47,-46,-84,-42
16,26,19,25,-1,3,-38,-60,-125,-67
-20,12,-57,-7,-5,-13,2,-15,-27,-30
-69,-9,-157,-19,-3,-13,42,25,63,8
-27,-38,-109,-13,-26,-18,29,15,94,46
-31,-22,5,-2,-5,0,24,-11,68,35
-58,-11,32,5,20,23,46,-2,30,-3
-4,16,43,14,37,33,63,1,-39,-56
93,60,62,15,24,11,46,-23,-63,-29
88,56,67,-6,4,-11,43,-9,0,19
53,35,47,-20,10,-10,43,-17,28,23
21,14,31,-11,-4,2,41,-20,21,3
31,16,12,0,-8,-2,31,-31,12,4
5,-12,-13,6,2,7,33,-13,-17,-18
-55,-36,16,5,24,40,50,15,-5,-42
-46,-29,17,-8,8,37,48,13,22,-28
-3,-16,10,-18,-2,26,32,2,25,9
-35,9,29,1,35,33,35,-7,0,-18
-27,48,32,4,48,11,33,-2,21,0
19,32,8,-20,-3,-25,-14,31,77,86
11,-4,-2,-19,-18,-11,-26,45,96,80
25,-6,27,13,8,7,-18,-12,1,10
7,-4,-33,18,9,11,-5,-23,-28,-13
-32,1,-143,18,10,37,2,17,-30,-27
-40,-2,-119,25,5,41,1,41,2,12
-12,20,18,21,4,13,-23,23,-6,7
10,42,60,10,8,-6,-54,-6,-6,3
-5,28,23,10,7,-11,-36,-13,-13,3
0,13,35,3,-1,-6,3,-4,-31,-3
-50,-39,20,-8,2,-4,-13,17,3,-13
-34,-38,20,-13,5,-27,-61,3,12,11
13,-3,42,-10,9,-28,-75,-19,1,43
22,13,42,-3,25,-6,-65,-24,-25,36
-63,-38,23,1,28,7,-38,3,-26,-4
-82,-74,0,-15,20,7,-44,23,-19,-20
2,-25,-4,-48,4,-4,-50,16,-42,-6
44,7,13,-28,2,-9,-51,17,-33,0
44,19,22,-7,1,-13,-56,1,-18,-1
38,20,9,-14,-3,-22,-36,9,-11,31
59,34,5,-13,-1,-22,0,18,-3,38
44,63,40,-3,26,-11,27,22,-3,22
6,48,55,18,42,-1,31,11,-39,-4
39,23,34,22,8,-14,-21,-32,-55,22
34,-14,-4,-5,-17,-13,-36,-6,-3,27
-39,-56,7,-3,-3,3,0,29,20,-45
-65,-57,20,11,9,-3,0,11,22,-48
-14,-33,-21,2,-11,-26,-17,-7,28,-5
60,-6,-31,-16,-21,-40,-25,3,39,44
11,-23,27,3,-10,-3,-11,20,28,-4
-10,-22,-14,4,-12,8,7,12,43,1
8,-7,-82,-2,-7,-3,16,-6,50,9
29,14,4,15,-2,2,-5,-10,37,3
38,31,71,21,-1,-3,5,-13,27,12
26,17,59,21,7,9,30,-17,20,4
-13,3,44,20,34,46,70,-2,21,-16
-62,0,-32,10,24,45,76,32,54,-36
-31,-8,-45,16,-11,35,54,14,46,-3
-16,1,30,13,-12,14,45,-6,50,28
-55,-7,49,15,-2,14,45,2,49,6
-75,-2,65,38,17,13,46,-8,12,-28
-49,0,62,37,22,0,39,-34,-13,-29
-76,-27,45,13,18,-16,5,-25,2,-29
-92,-26,26,-20,11,-24,0,14,29,1
-15,5,29,-24,4,-29,-16,10,11,28
19,-23,5,-18,-6,-20,-26,-2,-7,27
52,-4,14,-16,-23,-21,-34,-13,-12,8
53,16,25,-15,-17,-18,-44,-9,0,24
0,18,35,3,4,-6,-40,-17,-33,-9
15,15,35,-4,-15,-25,-48,-27,-41,23
11,-21,0,-25,-33,-26,-42,16,21,75
-66,-50,-13,-7,-7,-5,-37,25,26,38
-42,-33,-11,3,-4,0,-49,2,-17,34
49,11,-4,4,-9,-3,-51,-11,-48,37
47,29,10,20,3,2,-36,-35,-77,-7
-35,6,-12,30,21,24,-1,-41,-78,-47
-104,-50,-57,23,23,25,10,9,-36,-68
-138,-75,-121,13,21,18,-1,38,2,-66
-70,-20,-128,-1,5,-3,5,55,37,-8
8,17,-171,-23,3,-6,23,63,61,28
43,-3,-140,-17,0,-12,2,16,18,-4
93,29,-16,3,-15,-13,-25,-43,-65,-36
64,5,-41,0,-30,-24,-42,-29,-35,-16
58,-8,14,-17,-38,-34,-50,-10,-2,24
22,-3,4,-15,-35,-18,-35,-23,2,32
-3,-9,-107,-33,-35,-15,-24,-23,37,30
52,8,-55,-40,-30,-22,-3,-28,31,52
97,18,-35,-35,-27,-6,6,-33,-34,22
61,29,-21,-4,1,31,0,-51,-82,-37
18,23,70,13,24,35,7,-66,-84,-48
28,21,89,17,15,16,-3,-46,-71,-9
-11,-14,48,30,5,7,10,-7,-43,-15
-28,-17,-20,27,0,0,8,-16,-39,-13
-18,-13,22,7,-8,5,4,20,31,33
-38,-38,64,24,7,15,16,4,27,-5
-21,-31,73,30,11,4,10,-23,5,-34
-64,-44,58,10,20,11,33,-4,0,-77
-50,-18,52,7,19,1,21,-31,-35,-73
24,5,27,-11,-9,-28,5,-25,20,-21
101,49,49,-9,-22,-32,-3,-25,16,5
63,54,50,-1,-11,-11,21,-2,1,10
-3,64,64,4,15,5,71,52,21,14
13,77,73,13,13,0,63,67,9,10
11,37,50,15,0,-2,53,40,-1,10
41,34,34,-5,-9,-16,50,26,32,49
27,14,0,-5,-22,-25,31,10,34,27
-10,-14,-63,-10,-26,-11,1,-1,13,-3
0,-34,-95,-15,-21,-4,-6,-11,-10,-8
-21,-36,-37,-9,0,11,20,-5,-23,-23
32,-17,14,-14,-2,0,22,-4,-17,24
43,0,23,7,-12,0,24,15,-12,35
-2,-8,35,20,10,17,26,6,-47,-26
9,3,41,20,25,23,8,-18,-102,-57
2,-6,28,0,15,0,-3,2,-86,-52
11,-9,17,-13,3,-9,0,30,-44,-10
39,2,33,3,7,-13,-12,26,-32,7
43,4,23,2,4,-8,-8,16,-10,9
7,-23,25,1,9,3,0,27,-8,-12
49,12,32,-4,-11,-9,-15,10,0,39
12,-6,-1,-22,-10,1,1,25,5,24
-77,-47,-9,-13,4,19,22,49,0,-26
-64,-54,-5,-19,1,10,-2,52,-3,-28
-29,-58,-30,-43,-10,1,-23,66,23,26
-16,-5,8,-26,8,3,-13,48,-2,-7
14,62,57,8,30,1,-27,14,-28,-18
44,36,20,-8,-6,-11,-29,16,41,56
14,-8,-44,12,-4,8,-7,7,26,-3
-37,-55,-154,8,9,7,-6,14,8,-40
-3,-33,-142,7,-13,-21,-16,-8,1,-14
17,-15,-21,-9,-36,-24,-19,2,25,7
-2,3,35,-1,-25,-10,-9,-1,30,4
-23,7,17,9,-10,3,-2,-9,30,-21
-38,-21,-51,-14,-19,4,12,16,47,-18
-37,-11,2,-9,-12,8,5,-4,20,-32
-47,-3,34,0,-5,7,13,-12,24,-35
-26,-1,36,4,-12,-13,22,-20,34,0
6,-5,16,-10,-22,-19,16,-14,45,17
0,14,11,-10,-16,-6,14,-10,28,-15
-15,43,13,5,10,0,-10,1,28,-12
12,60,8,11,11,-24,-20,0,41,11
14,10,-12,6,0,-46,-45,-23,9,7
-38,-50,-36,-7,0,-31,-39,-27,-2,-3
-41,-48,-80,-5,7,-10,-37,-40,-40,-13
-14,-28,-72,-1,2,-12,-39,-38,-56,-9
-8,-18,-9,11,-5,-4,-29,-19,-30,5
-18,-4,19,18,-17,1,-19,-2,-25,5
-40,-31,5,10,-22,-3,3,24,-17,6
-21,-19,6,0,-14,-12,-5,13,-43,9
5,10,24,-8,-14,-34,-31,0,-62,16
14,6,21,-17,-18,-50,-30,4,-29,16
5,-4,-1,-37,-23,-60,0,16,0,19
-3,-10,-31,-45,-32,-34,22,21,8,25
16,12,-96,-23,-20,-27,13,-10,-7,18
60,32,-162,-20,-15,-37,7,-25,-17,22
48,6,-180,-20,-17,-21,6,-17,-13,26
34,-9,-154,-21,-23,-1,-2,-6,18,47
8,-7,-38,-12,0,13,-2,-11,-13,9
-27,-2,-26,13,19,25,13,-29,-52,-44
-29,9,-35,9,0,20,13,-29,-41,-41
-37,8,46,13,-9,18,-18,-10,-13,-21
-91,-4,73,30,14,32,-21,-1,-31,-47
-118,27,86,45,53,35,0,-6,-46,-80
-38,79,87,38,42,25,-8,-18,-73,-54
26,43,53,7,0,11,0,-1,-24,4
16,13,37,-5,-6,14,13,3,17,-1
79,30,48,-1,-19,4,-36,-40,-4,-11
112,1,6,-25,-37,-4,-31,-14,17,32
72,-13,3,-18,-17,15,-6,-1,32,24
87,49,74,0,-6,12,-28,-46,-26,7
80,33,53,-28,-20,-11,-44,-19,24,59
2,-16,30,-38,-4,0,-28,13,59,32
-6,-17,32,-25,3,13,-26,6,30,-1
15,8,38,-4,-10,17,-11,17,13,-9
-31,-33,25,-2,-14,16,24,56,50,-19
6,-3,33,-6,-18,10,17,33,45,7
31,25,38,-1,3,0,30,14,40,23
8,16,7,-12,0,0,23,14,65,9
11,15,20,-13,-6,-19,17,-15,63,15
-3,2,33,-7,6,-25,25,-30,53,10
-48,-29,18,6,25,-19,10,-17,65,5
-120,-77,-10,0,33,10,31,46,98,9
-67,-34,5,3,22,20,41,8,22,7
-8,10,26,9,23,6,24,-18,-48,-4
-16,64,44,25,47,15,54,16,-69,-13
-55,63,45,22,67,14,67,36,-77,-24
-101,-16,21,19,53,7,48,42,-65,-20
-132,-51,-1,41,53,13,28,19,-106,-97
-5,-18,-29,11,20,0,-5,1,-95,-69
104,7,-22,0,-10,-12,-56,0,-82,-33
149,0,-41,-12,-19,-22,-77,12,-69,4
164,7,-37,-32,-30,-32,-73,10,-32,10
131,18,-24,-22,-26,-32,-69,6,-5,22
79,5,-8,-11,-21,-27,-70,-4,-4,17
0,-34,-19,-12,-19,-27,-42,27,37,8
27,-14,7,1,-7,-24,-20,28,31,23
34,17,54,32,23,17,-29,-5,-39,6
-14,-12,37,28,27,28,-15,-3,-35,0
-16,-2,24,13,22,6,3,0,-26,-3
-5,63,74,25,48,-1,9,-21,-66,-33
44,103,68,25,52,5,-12,-40,-77,0
38,46,31,3,33,11,-34,-41,-56,21
3,-10,-43,-13,10,15,-27,-21,-26,25
-14,-19,-109,-15,-7,12,-25,2,-7,34
-15,-7,-22,-14,-15,12,-23,12,14,48
-66,-37,-8,-4,-20,30,20,26,41,18
-121,-74,-13,5,-5,36,47,33,34,-25
-72,-44,-5,-5,-6,20,43,35,44,2
-18,-21,-3,-15,-6,13,47,35,48,7
-23,-17,0,-4,21,18,55,22,50,-8
-26,6,15,13,19,10,16,1,23,-11
-36,0,0,8,16,7,9,-7,33,7
-11,-20,-121,-22,-3,-5,4,28,91,80
5,1,-178,-9,-27,-7,0,34,88,69
-13,29,-150,16,-14,0,-8,12,30,5
-74,-3,-96,34,3,10,3,-3,17,4
-103,-13,16,43,23,36,29,3,18,-19
-74,-12,36,42,21,48,29,-13,-1,-63
17,-1,26,20,1,34,33,-27,-10,-53
121,24,34,-5,-5,17,37,-35,8,-8
102,19,41,1,9,35,38,-35,24,7
3,-7,16,-7,19,27,57,-6,78,20
-34,18,38,-10,45,20,70,27,75,8
-43,2,9,5,45,10,54,6,37,6
-6,0,-38,11,25,0,15,-43,-6,-5
36,12,16,3,2,-15,-19,-32,6,11
23,0,25,-10,-10,-8,-14,0,36,25
21,-8,32,-9,-3,0,-7,1,20,14
23,1,35,2,-1,-1,-41,-18,-26,8
6,-3,34,2,6,18,-40,-7,-31,12
5,-1,41,15,13,14,-28,1,-56,-7
-17,-9,44,22,23,22,-25,-16,-86,-34
-58,-30,34,14,27,29,-24,-10,-60,-29
-56,-36,15,1,11,28,-30,8,-22,2
1,-7,15,-11,-5,8,-35,-4,-44,6
15,11,20,-13,-2,3,-30,-16,-66,-20
0,-2,14,-14,1,6,-20,-8,-37,-21
4,-12,5,-8,-7,-4,-18,-24,-30,-2
