-24,-31,11,5,-19,4,29,38,3,-22
-18,-38,2,-11,-12,-13,18,26,5,-21
-10,-31,-3,-13,-7,-10,45,34,20,-16
5,-9,17,0,4,2,135,47,26,15
23,4,33,12,9,14,244,47,28,41
17,11,45,13,43,19,265,43,16,29
19,22,69,7,63,42,253,33,17,32
-9,-15,35,1,4,49,187,-1,3,23
-39,-53,-13,-26,-59,51,79,-67,-23,2
-48,-66,-28,-42,-98,16,-3,-100,-18,-13
-72,-73,-56,-68,-95,50,-46,-125,-25,-41
-95,-97,-107,-102,-77,163,2,-174,-63,-87
-114,-89,-183,-72,-8,253,104,-169,-66,-106
-61,-23,-154,-11,49,185,138,-113,-44,-84
37,35,-22,24,34,-2,38,-66,2,-21
123,121,108,51,33,-102,-113,49,76,62
161,168,129,60,38,-136,-267,157,131,102
100,98,68,25,9,-119,-216,137,94,61
21,25,27,0,2,-81,-107,103,61,21
11,22,2,14,21,-42,-85,74,62,17
11,28,-75,22,38,-29,-75,43,62,19
0,5,-47,17,25,-21,-74,23,61,18
4,-4,-85,26,13,-22,-87,17,47,24
2,0,-120,17,17,-26,-76,18,47,24
-8,0,-52,11,10,-25,-77,23,28,31
2,4,-7,11,9,-23,-86,29,12,33
2,-9,-18,4,11,-23,-77,26,-17,27
-1,-18,44,-3,38,-13,-60,23,-26,10
1,12,61,-12,71,-7,-33,24,-30,4
-15,-3,55,-8,59,-19,-22,24,-32,5
-31,-55,21,-18,48,29,16,6,-36,-1
-36,-65,-10,-29,43,117,66,-13,-39,-2
-9,-48,-17,-40,22,156,88,-16,-32,5
25,-6,-4,-44,-16,127,119,-7,-32,16
42,26,45,-43,-74,52,167,1,-21,39
28,7,20,-49,-62,52,202,12,-8,29
3,-32,-30,-56,-53,35,138,-15,-14,0
-1,-36,-34,-60,-72,-65,-78,-24,-41,-9
51,-1,21,-33,-103,-230,-309,45,27,36
69,5,57,0,-84,-214,-406,68,72,52
24,-22,19,13,-23,-80,-361,-4,7,2
-2,-22,-1,-4,-20,-31,-296,-68,-26,-8
-23,-20,-3,-18,-13,-39,-200,-64,-18,-18
-11,20,36,-2,22,-18,-1,-32,0,-20
18,46,78,29,28,5,220,16,25,16
25,46,79,38,25,-8,244,35,41,40
24,24,51,23,-3,-44,120,31,62,74
27,-2,43,14,-21,-75,19,24,81,104
24,-12,47,23,-17,-91,-53,5,77,117
24,10,30,9,3,-57,-69,-20,59,116
3,13,-75,-57,44,29,-31,-31,49,120
13,-29,-174,-133,48,109,5,-69,40,133
-62,-142,-314,-246,-23,276,199,-187,-71,50
-180,-247,-433,-377,-107,423,481,-270,-186,-127
-206,-248,-451,-440,-187,500,713,-204,-170,-174
-121,-158,-369,-420,-262,476,977,-90,-96,-80
-21,-20,-177,-289,-279,432,1076,-56,-32,-49
-54,13,26,-96,-173,521,1067,-62,-15,-126
-136,-51,152,152,-24,434,774,-69,-64,-167
-34,17,253,360,62,73,83,93,14,-42
99,114,296,342,75,-318,-673,198,86,62
72,71,209,212,86,-400,-1079,85,1,22
23,46,155,176,116,-335,-932,-36,-68,-37
-4,51,151,160,94,-316,-620,-60,-107,-72
20,56,86,125,61,-335,-386,-32,-106,-51
30,100,149,142,114,-263,-178,62,-45,-11
8,127,217,161,155,-186,-97,147,-8,-4
-49,68,156,137,99,-157,-202,121,-11,-30
-44,22,108,113,46,-154,-251,60,-41,-28
23,9,72,87,30,-126,-229,40,-29,-2
24,1,65,77,39,-96,-196,46,-20,-10
24,21,65,56,36,-116,-159,46,0,-14
20,27,72,42,28,-98,-127,28,1,-17
12,27,74,40,22,-89,-110,21,-18,-20
14,1,61,39,15,-102,-91,8,-20,-21
42,-33,20,34,35,-89,-44,31,7,25
70,-35,-4,17,39,-64,-7,61,49,79
56,-30,-17,0,8,-61,26,69,85,117
10,-9,-25,-18,-8,-34,53,84,107,97
-1,15,-28,-17,0,10,65,95,103,30
30,47,-61,-37,-13,16,13,78,53,3
66,26,-164,-79,-41,32,-108,32,18,33
74,-9,-154,-97,-13,82,-187,-25,-1,63
54,-21,-132,-65,38,75,-206,-52,-35,47
36,-20,-18,17,81,49,-183,-48,-25,20
0,-21,48,107,123,26,-137,-46,-18,12
-1,-10,-28,116,144,20,0,-19,0,14
14,45,54,129,128,-4,196,53,38,25
-36,57,150,150,127,15,236,39,-7,-27
-67,-17,98,71,30,23,104,-29,-38,-46
-45,-58,2,9,-66,-18,62,-33,3,-32
-28,-46,-49,-3,-49,29,183,10,68,-40
-49,-75,-96,-8,-7,125,230,-4,94,-34
-43,-97,-115,-15,28,146,205,-26,86,-3
-6,-59,-103,4,63,94,129,-14,74,11
32,-13,-61,23,120,46,68,-22,45,21
45,-19,-45,38,137,34,-25,-27,45,53
57,-22,31,70,132,-19,-184,-31,37,75
49,4,178,131,97,-34,-257,-78,-34,32
35,38,105,99,-6,-114,-162,-7,-74,16
65,55,-7,-2,-84,-135,-48,69,-23,58
86,74,-70,-66,-91,53,28,55,0,84
47,64,-107,-119,-103,262,161,25,-7,75
-28,-17,-194,-188,-168,254,284,9,-60,27
-80,-92,-256,-227,-209,139,190,-68,-102,-18
-163,-175,-277,-231,-166,204,-46,-170,-184,-94
-185,-203,-156,-197,-101,194,-95,-194,-210,-137
-182,-210,-41,-176,-47,181,37,-227,-181,-119
-98,-200,-217,-183,25,238,158,-253,-165,-41
56,-93,-336,-170,91,182,247,-186,-61,86
198,95,-146,-74,159,90,485,84,136,234
276,171,35,-6,103,46,586,401,286,354
193,71,-171,-68,16,93,211,323,198,272
-15,-65,-287,-85,75,280,-261,-51,-50,0
-117,-102,-93,-97,37,312,-428,-187,-180,-129
-201,-118,132,-148,-139,20,-270,-134,-204,-241
-189,-91,168,-52,-234,-402,-66,-25,-115,-238
-125,-28,223,87,-189,-455,5,22,-80,-202
-75,25,386,206,-131,-306,113,29,-97,-192
6,85,451,289,-39,-114,292,101,-68,-110
15,79,359,273,19,-14,267,80,-73,-114
13,82,330,270,4,-112,67,19,-75,-128
14,101,318,278,-1,-233,-188,39,-28,-101
29,91,255,218,5,-252,-425,77,32,-39
22,77,159,130,27,-187,-447,26,29,-2
-1,80,114,87,76,-131,-324,0,1,-5
-9,63,78,70,83,-117,-240,25,13,-5
26,31,54,62,35,-139,-208,39,56,25
70,32,49,63,32,-136,-208,33,70,67
112,55,35,67,32,-131,-199,46,78,99
109,84,-34,81,48,-96,-167,42,85,84
110,117,88,96,28,-102,-174,24,71,71
78,88,213,114,-27,-166,-215,-14,27,28
15,26,66,52,-64,-125,-174,-39,0,-22
-26,-29,-78,-43,-52,47,19,-28,-3,-56
-36,-48,-130,-99,-37,134,196,18,25,-46
-1,-12,-64,-61,-4,49,199,15,41,6
60,22,1,-22,7,-30,177,5,47,55
82,23,-60,-60,-28,-41,204,32,69,90
103,7,-120,-112,-63,-1,70,62,90,130
72,-21,-119,-108,-83,124,-70,47,93,125
-6,-64,-63,-41,-118,104,-245,-39,29,48
-67,-68,13,-5,-133,-79,-290,-108,-51,-48
-70,-47,21,8,-63,-74,-186,-90,-44,-60
-41,-42,23,25,24,78,19,-12,3,-18
-16,-14,35,60,59,67,117,46,38,13
20,20,25,64,34,-39,-9,28,25,40
34,62,34,52,55,-34,-79,3,17,71
36,77,49,24,93,30,-81,-2,31,103
28,38,-21,-1,52,36,-76,13,41,95
19,20,-116,-6,4,21,-75,10,15,70
43,57,-33,-12,6,3,-72,-23,-41,58
55,82,33,-11,17,-6,-55,-41,-61,26
34,84,33,-17,50,3,-13,-37,-57,-7
25,75,7,-13,88,45,39,-20,-43,10
15,77,-109,-4,133,96,79,27,-4,45
9,78,-162,15,180,37,90,67,47,53
34,86,-84,24,231,41,67,95,91,95
41,55,-128,3,215,272,121,85,121,121
57,6,-170,-7,143,416,265,85,146,148
99,-16,-34,16,9,297,246,16,105,179
16,-95,-6,-44,-68,319,77,-122,-15,44
-90,-109,8,-145,-138,329,-15,-209,-144,-142
-189,-154,-100,-224,-275,63,-115,-240,-200,-257
-153,-155,-190,-225,-307,-295,-187,-210,-133,-217
-66,-60,7,-58,-133,-262,-165,-149,-70,-137
7,62,347,193,18,-149,-72,77,44,-35
4,66,309,213,-3,-115,229,275,134,-5
-36,-6,27,5,-108,-51,219,56,45,-80
-47,-47,-144,-89,-113,28,126,-87,18,-55
-36,-30,-103,-69,-38,136,200,-109,42,59
38,-20,-34,-55,-56,203,269,-130,42,146
130,27,-121,-49,-84,57,183,-56,72,211
185,122,-5,12,-52,-177,-26,143,144,243
103,125,45,41,-16,-198,-271,190,102,128
-82,12,-121,0,4,-64,-134,127,0,-79
-197,-117,-308,-90,23,81,273,98,-91,-226
-113,-106,-209,-128,-21,168,391,-19,-183,-223
-81,-89,12,-104,-60,172,344,-141,-228,-210
-46,-105,-38,-171,-45,163,390,-68,-153,-114
45,-34,-121,-163,52,109,452,129,9,34
73,35,-67,-44,158,16,193,170,75,84
92,61,-31,11,139,-114,-193,107,113,121
136,41,-90,-34,64,-257,-337,114,169,185
188,19,-182,-64,55,-188,-99,180,186,235
198,64,-55,35,148,-24,56,147,130,261
109,90,135,194,204,-13,-89,25,26,170
12,53,60,183,101,-118,-229,2,-37,5
-101,-15,-37,39,16,-185,-287,60,-24,-122
-177,-11,215,101,5,-151,-376,-6,-85,-229
-224,9,443,158,-79,-61,-377,-142,-173,-309
-246,-63,225,55,-208,-17,-363,-214,-183,-291
-187,-80,16,-20,-181,-36,-270,-193,-113,-198
-94,-45,-19,23,-57,74,30,-132,-67,-123
-33,-47,-21,64,29,227,261,-44,-42,-87
-5,-74,-105,22,62,219,335,67,-17,-51
-32,-104,-174,-35,56,257,425,44,-13,-54
-70,-71,-140,-37,37,274,507,-7,-26,-107
-55,-14,-239,-46,24,114,373,-2,-12,-120
0,22,-249,-21,109,-57,-16,48,35,-54
41,58,-44,80,217,-117,-468,69,56,15
22,63,285,184,171,-241,-673,-50,9,24
-4,18,329,134,81,-358,-548,-126,-26,40
-36,0,268,101,116,-289,-358,-130,-36,-24
-57,-23,177,57,130,-2,-96,-124,-67,-87
25,-32,-170,-139,79,332,225,-79,-67,-40
121,-2,-391,-247,34,343,348,36,49,59
72,-4,-392,-189,157,417,304,59,62,59
-13,-72,-298,-138,210,521,217,-17,-150,-24
53,-30,-110,-130,-32,136,178,-10,-12,9
142,56,228,60,-164,-239,-120,23,118,121
89,96,526,272,-112,-271,-370,-62,28,73
32,82,559,308,-137,-365,-418,-6,-6,3
-57,20,384,230,-205,-430,-326,67,9,-65
-74,-36,173,87,-216,-304,-200,24,31,-51
-44,-40,105,26,-214,-239,-248,-7,25,-8
-57,-58,54,-6,-211,-197,-401,-63,10,-19
-68,-70,19,-12,-158,-166,-417,-119,-22,-29
-83,-101,-20,-29,-128,-137,-323,-122,-30,-46
-63,-109,-52,-35,-108,-89,-180,-88,-21,3
39,-15,28,40,-16,-38,105,14,13,101
120,88,71,118,83,29,575,195,49,140
124,98,-112,61,103,30,582,186,67,148
110,66,-313,-24,62,5,442,122,93,156
119,41,-322,-114,26,20,458,123,143,210
134,26,-337,-203,-4,146,472,116,166,231
8,-36,-269,-204,-3,334,412,41,89,115
-58,-9,110,-60,-10,319,204,-49,-11,27
-69,27,291,-11,-28,392,119,-166,-60,-40
-215,-98,33,-64,31,473,209,-248,-132,-221
-211,-42,-26,58,167,218,315,-152,-155,-273
-54,58,7,138,126,22,327,63,-97,-154
65,88,-21,49,67,-9,26,61,-68,-62
67,85,-1,16,-2,-130,126,74,-23,-30
46,59,187,71,-61,-208,196,161,20,-9
-14,-13,232,99,-62,-191,-170,74,-26,-30
-61,-60,128,92,-3,-229,-499,-45,-83,-51
-13,-13,104,136,51,-262,-511,-75,-75,-22
17,18,53,111,32,-192,-426,-69,-43,-9
-3,-30,27,31,14,-113,-304,-57,-52,-8
-23,-59,-43,-49,-8,-98,-209,-42,-31,-5
-53,-90,-137,-117,-38,-135,-304,-72,-29,-33
-88,-119,-241,-171,-18,-198,-407,-86,-66,-65
-60,-129,-484,-306,60,-182,-353,-12,-4,-32
9,-82,-771,-442,182,73,-158,52,94,57
168,81,-972,-504,274,365,271,193,256,265
408,256,-1009,-564,154,352,807,427,499,527
517,336,-736,-537,18,460,884,478,602,647
318,291,-257,-320,-46,641,719,238,399,450
-45,100,393,187,-37,425,681,-72,71,53
-259,-67,868,577,63,218,416,-155,-83,-123
-205,-57,625,535,8,-126,-21,-30,-48,-52
-87,77,494,362,-102,-345,-97,-79,-43,-54
-82,98,642,339,-148,-342,-119,-91,-36,-97
-119,57,596,342,-162,-315,-378,-60,-54,-164
-134,-14,473,253,-222,-307,-432,-77,-108,-223
-138,-89,293,95,-270,-384,-330,-16,-113,-261
-145,-127,157,47,-170,-282,-372,-76,-188,-291
-42,-117,91,65,-23,-129,-534,-176,-209,-151
19,-102,46,45,29,-97,-599,-263,-203,-44
-23,-117,-52,3,56,-3,-435,-304,-195,-44
-16,-111,11,26,36,-15,-270,-153,-134,-43
16,-78,142,110,29,-85,6,102,-14,0
21,-61,146,105,36,-51,225,198,98,57
-37,-39,93,71,37,-18,144,142,91,13
-32,37,116,103,48,-13,-15,47,20,-38
-42,61,137,112,53,7,-66,-13,-53,-124
-38,56,104,65,66,13,-61,-15,-59,-138
-20,76,57,20,85,14,-31,1,-21,-85
-13,51,26,15,42,10,-28,9,14,-56
1,-16,11,-1,-25,-9,-49,1,45,-14
49,-19,-26,-38,-62,-22,-44,9,94,77
71,-26,-46,-50,-64,-17,-13,23,105,128
54,-49,-57,-56,-54,-1,30,66,126,144
57,-2,-28,-46,-38,1,45,54,140,152
63,59,12,-20,-16,5,39,31,112,125
20,53,17,-14,2,29,47,23,83,54
-61,24,5,-25,20,32,53,-8,38,-41
-46,31,-27,-35,24,26,24,-19,36,-3
15,44,-159,-104,-5,33,24,58,118,61
25,28,-227,-152,-9,57,34,115,173,64
50,50,-218,-141,37,82,48,63,114,46
38,76,-194,-105,64,79,28,17,26,-28
-20,54,-133,-78,50,80,59,48,29,-53
-27,49,166,7,33,24,28,1,14,-46
-74,15,265,51,11,-22,-29,-78,-42,-84
-77,-19,66,-30,-38,-45,-62,-102,-52,-73
25,-12,-110,-169,-74,-24,-4,-13,40,66
91,20,-264,-236,-56,29,78,78,102,189
74,86,-286,-176,-3,56,96,70,73,148
30,99,-220,-88,97,47,97,50,39,87
6,32,-179,23,195,24,62,3,12,51
22,-10,-50,48,190,64,41,-23,-1,33
32,-2,148,32,81,47,28,-2,34,57
73,-43,-32,-149,-83,88,38,20,68,146
102,-35,-238,-257,-191,-7,53,3,19,173
51,-2,-109,-68,-128,-105,59,-11,-12,111
-73,23,235,232,23,-65,25,-78,-54,-31
-136,-9,373,296,0,-62,-38,-123,-78,-91
-113,-78,44,23,-93,-50,-44,-75,-53,-19
-31,-108,-352,-271,-116,3,4,56,59,138
146,-85,-588,-440,-121,41,50,142,176,333
223,-83,-581,-373,-98,53,-56,78,160,349
26,-115,-13,46,-15,-8,-245,-98,-109,92
-200,-164,417,269,-37,-129,-279,-249,-378,-203
-277,-176,162,57,-144,-104,-9,-259,-170,-273
-129,-125,-50,-167,-104,211,418,-163,22,-61
2,-88,-41,-164,42,761,897,1,-19,59
-67,-22,30,30,93,858,555,-54,-17,-75
-223,-48,187,225,27,526,202,-169,-146,-299
-260,-43,323,340,13,-80,57,-106,-215,-426
-129,131,454,434,127,-489,-406,-84,-232,-416
-97,173,311,288,147,-479,-126,1,-206,-399
-114,71,93,120,102,-272,358,56,-166,-344
-149,-55,-37,42,98,-37,353,-10,-144,-281
-207,-121,-47,98,163,79,416,-103,-188,-334
-134,-67,-7,151,145,140,574,-49,-204,-319
-72,20,92,133,-29,9,314,86,-130,-267
-76,33,143,31,-174,23,116,23,-148,-253
-79,-5,18,-85,-169,256,141,-47,-142,-203
23,25,-222,-218,-116,339,-70,-36,-53,-42
140,59,-406,-275,61,108,-429,92,64,137
200,108,-377,-182,311,-232,-434,223,181,222
220,126,-390,-170,468,-238,-233,230,211,237
222,134,-420,-189,423,38,-301,165,177,222
285,202,-259,-179,202,212,-446,98,176,290
235,75,-428,-404,12,425,-445,42,164,292
172,-57,-936,-812,-215,286,-185,113,178,257
345,126,-810,-815,-310,-202,99,345,384,416
394,280,-19,-183,-117,-254,155,318,403,423
172,186,907,610,37,-287,-2,0,87,178
-71,23,1156,941,46,-384,-223,-242,-200,-72
-60,-24,1003,758,-52,-390,-358,-233,-212,-53
53,-76,732,416,-109,-227,-392,-147,-92,94
48,-212,189,10,-163,-88,-149,-24,-5,133
18,-193,-24,-80,-163,-155,-16,38,16,108
97,-5,178,122,-154,-249,-124,-29,11,132
95,105,279,211,-164,-255,-185,-35,64,136
-65,24,188,182,-87,-73,-133,-32,86,29
-159,-61,87,74,-52,25,-182,-60,75,-78
-265,-124,86,-25,-55,-13,-275,-85,0,-256
-273,-121,17,-91,-60,-43,-321,-101,-71,-259
-286,-74,-32,-84,-27,-41,-265,-120,-120,-259
-194,23,7,-11,34,-34,-2,-30,-36,-172
21,122,-115,-65,28,-15,529,192,128,38
152,137,-96,-73,-11,-39,360,131,121,99
132,57,125,148,23,-68,94,-16,-2,84
29,-12,252,294,39,-50,173,-54,-94,45
-139,-37,87,195,100,70,357,-30,-157,-164
-218,-86,-255,-72,107,240,586,-28,-174,-226
-169,-143,-498,-342,-18,489,696,-64,-90,-124
-82,-136,-592,-432,-50,682,443,-247,-99,-59
0,-116,-576,-483,-71,667,105,-414,-175,-14
86,-8,-154,-243,-56,64,-388,-144,0,123
111,69,314,234,92,-382,-742,170,219,240
171,112,403,381,77,-588,-786,102,238,271
278,158,160,50,-47,-454,-233,145,222,271
143,131,-24,-109,-1,-126,344,196,76,66
-41,56,95,75,70,-53,510,195,-13,-116
-182,-60,169,219,97,61,544,162,-58,-207
-238,-126,66,115,10,243,449,-28,-173,-279
-156,-127,-76,-96,-104,314,339,-134,-172,-236
-68,-97,-116,-168,-138,270,335,-152,-119,-168
77,7,-66,-95,-72,34,159,-124,-95,-74
168,87,-2,101,128,-229,-419,42,-141,22
112,114,60,157,174,-380,-528,223,-82,-12
38,82,-37,83,85,-231,-195,155,33,-65
14,42,-6,131,58,-80,-136,35,-17,-38
22,29,205,195,-7,-109,-191,-23,-29,6
51,-34,63,-23,-89,-85,-162,28,46,45
90,-28,-230,-290,-116,-23,-89,91,123,124
178,27,-499,-528,-128,32,-24,139,188,212
277,60,-792,-723,-104,125,98,243,260,331
195,89,-619,-449,27,147,181,207,166,236
28,139,-30,-6,85,161,306,63,-47,2
-101,56,269,145,63,317,478,-37,-175,-173
-109,-72,195,150,-1,378,483,-67,-164,-175
-125,-160,348,317,-5,310,396,-117,-174,-156
-183,-218,533,435,-35,118,79,-284,-282,-234
-213,-195,421,286,-35,-287,-487,-338,-328,-292
-253,-186,158,78,108,-348,-654,-288,-281,-323
-167,-174,-141,-131,192,-66,-486,-279,-182,-191
72,-44,-240,-229,219,260,-168,-215,-24,65
232,107,-100,-66,317,775,297,-156,100,220
194,133,234,278,366,754,503,-132,137,224
-44,11,435,461,218,377,299,-234,-7,-16
-160,-76,216,241,22,84,-44,-204,-70,-146
-191,-126,-66,-68,-124,50,-378,-46,-29,-159
-238,-220,-186,-207,-195,-149,-511,-38,-113,-210
-71,-155,-111,-130,-145,-628,-98,126,-20,-102
29,-78,-77,-13,83,-176,183,93,-43,-36
27,-82,-82,-33,105,313,384,-58,-107,-38
88,-1,50,46,67,447,574,47,0,59
172,83,-33,-80,-151,-109,10,143,183,220
202,158,-185,-170,-166,-547,-670,81,294,236
243,232,-251,-182,83,-320,-669,-38,286,241
236,259,-212,-203,63,-262,-336,-7,217,217
181,226,75,-19,-35,-291,-216,98,187,180
20,51,294,216,-149,-352,-21,26,40,49
-61,-57,396,290,-290,-426,186,-31,-66,-11
-16,-59,243,138,-265,-423,100,153,34,70
60,3,-32,-73,-163,-286,71,178,118,156
147,93,-211,-191,-57,-32,100,87,180,242
50,41,-288,-216,-32,239,203,14,146,145
-42,40,-183,-147,-81,250,299,137,151,60
-98,80,-32,-136,-127,178,479,239,161,60
-57,146,158,-107,-149,-104,321,182,170,112
18,196,304,11,-122,-294,-205,139,153,112
0,116,242,127,-11,-241,-503,34,85,73
-40,-23,185,207,22,-158,-329,26,98,109
-13,-173,6,87,-35,-100,-109,95,170,203
-42,-245,-253,-136,-81,-36,-48,97,145,140
-72,-207,-340,-171,-41,-39,-166,-16,11,-18
16,-137,-394,-184,-45,-91,-299,-110,-41,-8
154,-61,-506,-310,-88,-80,-249,-57,92,264
200,-2,-550,-367,-17,24,-30,59,196,370
244,107,-312,-354,52,148,353,212,173,235
272,134,-283,-474,4,357,766,287,115,74
187,74,-313,-381,-15,719,891,119,-10,17
35,75,1,-161,-50,894,747,-104,-212,-114
-132,-19,45,-160,-117,736,446,-290,-330,-269
-462,-173,263,310,75,44,136,-381,-475,-545
-482,-163,539,669,224,-717,-376,-338,-468,-599
-191,-26,501,528,251,-754,-560,-163,-240,-316
-78,12,287,178,122,-263,-346,-144,-123,-167
-177,-51,-1,-114,73,434,180,-303,-203,-231
-278,-207,-237,-168,121,784,371,-427,-342,-269
-366,-269,-411,-216,67,971,366,-627,-475,-411
-357,-218,-483,-268,124,953,202,-634,-452,-456
-182,12,-215,-47,228,180,-57,-230,-142,-198
-13,246,225,301,325,-311,-91,147,105,-66
87,367,662,492,251,-618,-159,332,224,-7
96,273,724,434,64,-838,-159,88,170,7
27,148,474,319,77,-153,-212,-250,-5,-105
57,93,88,107,45,-7,-261,-108,44,-41
15,-63,-139,-16,-54,-79,-292,168,144,14
-232,-326,-202,-10,-132,123,76,262,91,-143
-279,-359,43,171,-54,170,62,-15,-47,-213
-70,-210,278,271,13,181,249,-178,-79,-75
171,47,376,299,-39,-76,516,164,93,90
357,234,340,241,-82,-394,188,441,290,315
151,123,185,147,-95,-400,-340,252,177,146
34,92,146,117,-235,-758,-414,99,78,-3
73,141,194,151,-147,-545,-344,67,75,13
89,152,215,160,-49,-323,-340,78,41,6
141,149,98,131,-67,-297,-300,82,-12,74
103,115,64,112,-75,-271,-198,47,-39,70
25,75,51,63,-48,-213,-25,69,1,48
9,25,-36,0,-59,-137,11,108,62,81
32,-65,-90,-21,-74,-82,-32,107,54,99
46,-57,-55,0,-72,-54,-158,43,31,91
57,13,-15,-9,-87,-92,-276,32,48,99
45,35,-2,-8,-54,-82,-235,7,5,58
-42,17,21,53,79,-85,-173,-35,-31,-7
-37,19,47,110,218,-77,-154,-27,-1,18
100,53,30,68,176,52,-138,-4,76,140
151,63,20,50,46,127,-151,9,128,214
119,-44,-76,-43,-62,302,-87,0,82,192
140,-80,-179,-162,-234,-37,30,9,59,207
141,-31,-122,-113,-197,-155,71,37,70,211
138,19,-66,-58,-81,-22,22,39,79,183
107,55,-47,-42,-45,-1,22,33,96,138
0,34,-48,-30,-1,27,44,20,73,30
-62,-11,-50,-15,28,61,59,5,36,-15
-86,-29,-62,-24,28,76,51,-25,-11,-42
-33,3,-120,-91,-27,70,72,-28,-11,0
73,20,-265,-214,-90,359,297,-17,47,103
169,10,-462,-336,-113,687,527,0,81,162
198,34,-390,-303,-65,495,508,-50,-14,121
95,69,-78,-58,48,81,266,-96,-175,-42
-16,65,314,259,124,-378,-223,-2,-202,-100
-32,19,382,354,85,-527,-315,-5,-169,-71
-34,-21,193,194,31,-269,-86,-22,-96,-49
-5,-35,-19,-7,-16,-100,-13,49,47,34
28,-28,-144,-102,17,-45,-23,118,180,118
41,-37,-207,-156,36,52,-39,109,185,122
17,-56,-205,-172,1,30,-23,107,138,113
17,-2,-47,-131,-42,-92,-65,67,136,137
-2,-11,-80,-203,-94,-119,-111,44,144,99
25,-15,-270,-277,-24,-36,-89,29,132,89
106,-21,-220,-136,93,49,-30,25,89,119
124,-21,12,57,111,64,6,16,29,166
-68,-63,127,67,18,100,28,-17,-76,13
-242,-31,221,86,-59,65,-16,-140,-265,-327
-238,42,145,32,-33,30,-70,-217,-339,-455
-174,66,-12,-21,58,55,-21,-138,-195,-301
-41,56,-55,34,98,106,84,-35,-27,-38
16,-7,-282,-142,81,141,307,46,95,101
-97,-119,-493,-333,134,412,623,8,30,-36
-258,-180,-287,-373,6,806,868,-136,-116,-273
-184,-180,-148,-473,-327,880,652,-331,-161,-208
-74,-105,-17,-174,-209,619,5,-358,-222,-128
-83,6,462,465,60,-193,-841,-337,-264,-142
-53,48,649,721,335,-642,-862,-227,-169,-68
39,78,421,438,311,-457,380,212,77,73
30,-32,-8,-55,132,-56,781,397,210,117
85,-79,-152,-132,128,118,433,220,165,211
153,53,118,182,-44,-140,-64,-126,44,250
135,111,-72,8,-207,-218,-341,-248,13,186
43,70,-488,-374,-139,183,-255,-127,-33,2
51,55,-556,-429,-25,249,-104,37,-20,-21
-41,-48,-246,-192,85,18,279,77,-38,-72
-217,-89,439,288,77,-616,16,107,-66,-233
-210,-62,686,528,-16,-690,-512,113,-76,-231
-50,-14,102,107,-58,-197,-383,61,-61,-113
74,22,-415,-406,-92,188,84,254,60,-12
113,120,-252,-331,-157,-180,190,373,207,88
-22,148,136,123,46,-112,-145,96,98,8
-44,124,485,418,31,-189,-491,-160,-12,-60
57,102,678,514,-115,-317,-587,-287,-32,-3
23,-3,410,341,-87,-206,-409,-273,-4,48
64,10,167,153,-12,-162,-79,1,125,105
93,3,-6,-50,39,-133,141,231,213,129
82,-17,-62,-123,31,21,143,70,111,104
207,52,-121,-166,-69,455,292,-73,66,185
187,10,-386,-367,-142,1008,539,-106,61,179
88,-21,-467,-411,-247,565,571,-187,-10,116
41,-22,-447,-371,-146,213,367,-106,-48,46
122,79,-182,-199,-80,-407,-271,367,193,172
69,120,402,247,-75,-683,-463,344,184,110
-102,6,634,497,0,-425,-423,12,-48,-82
-184,-85,322,300,-31,-310,-628,-193,-230,-248
-201,-142,-1,6,-104,-248,-744,-212,-263,-302
-193,-206,-36,-18,-147,-178,-564,-147,-191,-218
-115,-176,76,89,-133,-80,-165,-96,-122,-103
13,-58,152,153,0,50,297,25,-23,22
38,15,181,180,118,-8,316,90,92,53
0,7,141,149,106,-69,60,85,126,37
4,-26,35,62,45,-52,-17,74,140,72
54,9,4,2,20,-52,-50,67,155,130
109,81,13,-10,38,-48,-31,58,123,123
105,56,28,20,40,12,15,30,54,67
84,47,59,30,39,46,30,1,34,44
113,52,30,-16,29,22,29,31,86,94
110,7,-20,-48,5,-5,26,71,125,173
129,14,-31,-75,-28,-7,23,82,127,218
166,36,-21,-96,-28,46,42,70,79,177
274,79,-28,-127,-34,61,37,42,53,200
297,60,-78,-160,-15,87,78,90,75,245
235,6,-129,-136,59,152,128,137,72,305
87,47,-29,6,125,167,101,76,-70,81
-217,76,152,161,120,125,86,29,-164,-317
-355,38,189,155,67,45,29,-53,-204,-473
-188,83,151,94,38,-19,-32,-104,-164,-327
-77,118,103,81,143,0,-29,-101,-133,-181
-75,86,27,104,247,34,17,-64,-106,-143
-75,-3,-64,57,188,97,139,-61,-124,-183
-71,-72,-112,-27,69,211,361,-167,-231,-295
-102,-106,-96,-52,-17,275,490,-224,-236,-331
-117,-78,-65,-34,11,294,423,-186,-143,-268
58,66,-16,42,76,37,-122,90,60,-47
126,107,-93,-1,43,-106,-488,172,127,29
143,75,-91,-115,-94,-235,-281,75,82,65
122,79,-76,-141,-153,-296,-93,106,92,104
-4,7,-75,-66,-84,-154,-85,77,44,-21
-86,-88,-130,-48,-54,-48,-70,51,15,-89
-107,-111,-69,-12,-13,-18,-83,18,-1,-96
-93,-97,0,28,15,-13,-93,-25,-17,-78
-91,-94,71,42,9,-9,-93,-45,-28,-57
-89,-90,72,31,2,-13,-69,-26,4,-30
-59,-104,-57,-64,-9,2,6,21,73,33
16,-57,-194,-189,-22,25,39,51,113,130
144,16,-373,-393,-45,52,74,85,150,275
250,49,-693,-689,-136,112,137,216,300,420
182,14,-804,-796,-191,222,-72,159,258,308
-13,-106,-452,-431,-235,385,-525,-160,-23,-12
-250,-241,77,182,-168,430,-625,-478,-339,-345
-278,-170,349,506,150,409,105,-450,-383,-322
-109,60,410,521,450,368,1000,84,-79,-132
-71,22,81,194,342,205,791,279,102,-30
14,-17,-267,-267,-57,-38,777,290,210,145
189,56,-296,-311,-244,-332,633,264,279,336
209,29,-184,-115,-180,-347,375,329,290,349
231,82,-183,-75,-75,-202,245,333,238,248
304,247,-128,-24,117,121,-148,115,50,139
202,165,-182,-131,155,169,-265,41,-23,50
11,86,314,213,175,-91,-288,-93,-116,-64
-213,-1,910,744,104,-239,-504,-334,-324,-283
-311,-99,756,601,-49,-302,-478,-322,-306,-356
-207,-84,326,242,-31,-313,-285,-231,-174,-211
-85,-17,69,57,53,-29,-36,-201,-104,-90
-27,-39,-69,-90,56,479,178,-140,-10,-1
-77,-115,-215,-258,-31,769,315,-90,-1,-38
-46,-82,-272,-324,-247,58,379,170,96,40
138,97,38,-45,-241,-622,-120,247,215,282
212,63,63,24,-155,-627,-566,157,320,453
300,25,-57,-68,-143,-432,-318,234,451,565
309,55,99,81,-96,-229,-169,258,406,514
71,-9,37,99,1,-45,-96,201,189,192
-130,18,-122,50,153,80,10,83,-62,-156
-200,80,-64,-8,207,243,285,53,-211,-370
-222,6,6,-8,149,392,478,23,-225,-329
-301,-50,213,184,88,269,371,-31,-231,-349
-176,0,178,173,-37,83,150,-102,-232,-262
3,38,-54,8,-85,81,-46,-57,-152,-139
-71,-24,-139,-126,-105,181,-157,39,-62,-134
-289,-53,22,-32,-38,25,-213,-142,-309,-413
-357,-29,127,47,45,-139,-367,-235,-412,-553
-364,-75,61,-9,57,-253,-738,-228,-327,-497
-271,-77,38,-35,34,-285,-607,-194,-255,-377
47,-19,-84,-49,142,-181,-222,-42,-59,-64
325,92,-123,-26,234,51,-3,1,22,151
333,199,-3,35,150,69,236,44,57,225
120,103,22,29,127,317,314,27,50,116
33,24,-45,-186,-11,323,317,-34,17,84
167,69,-213,-375,-207,27,317,170,178,274
240,123,-236,-296,-180,-220,47,393,293,287
44,56,20,36,0,-191,-33,241,123,28
-154,-27,478,430,65,-101,-48,20,-102,-206
-141,-75,319,322,-41,-95,-58,-34,-102,-178
-57,-64,14,116,-90,-92,-28,-3,-19,-59
0,-10,56,82,-45,-83,-39,-26,-8,-13
-38,-10,254,166,-4,-43,-88,-144,-39,-42
-114,-116,215,190,2,70,-107,-199,-63,-87
-142,-178,22,56,-16,262,-122,-239,-75,-93
-105,-162,-87,-111,-88,340,-366,-347,-84,-89
-108,-122,-91,-107,-46,310,-514,-296,-122,-122
-91,-57,-62,-93,-33,274,-377,-57,-88,-92
-18,-46,-121,-181,-53,223,445,84,-25,-10
15,-25,-75,-53,13,63,1468,265,56,47
108,54,60,120,-30,-231,1028,274,114,157
249,144,152,247,-22,-523,-147,185,169,297
237,134,60,113,-34,-403,-371,131,147,283
201,86,-320,-161,-38,-160,-60,155,159,258
140,23,-554,-330,22,48,268,204,167,201
98,10,-369,-283,81,245,447,154,118,144
50,-7,-8,-116,38,620,447,36,22,94
-21,-44,152,-17,7,632,181,-57,-30,45
-69,-87,-26,-118,45,190,-135,-167,-65,-9
26,-4,-208,-327,87,-412,-441,-88,38,70
139,58,-379,-518,106,-489,-378,203,293,264
275,94,-390,-517,39,-58,109,370,436,427
225,92,12,-69,-26,217,199,210,284,352
-1,17,451,468,-163,57,151,-94,9,110
-132,-54,536,622,-198,-33,10,-272,-131,-1
-89,-128,197,241,-231,76,106,-242,-57,59
128,-97,-18,-63,-238,-123,48,-69,77,189
391,17,166,89,-183,-520,-588,65,128,419
439,38,151,173,-151,-590,-534,132,75,527
230,-21,57,106,-91,-290,-91,59,27,397
-179,-45,191,201,50,-38,-18,-9,-72,-106
-311,72,341,252,97,51,-61,62,-65,-442
-143,131,226,166,121,94,-197,54,-63,-376
-97,96,125,145,170,-29,-250,-87,-199,-352
-179,73,21,128,159,-99,-107,-76,-240,-386
-239,17,-64,38,109,-16,24,13,-195,-398
-268,-78,103,136,35,-55,9,30,-167,-393
-235,-124,166,222,-5,-104,-67,-50,-190,-360
-116,-90,49,91,10,-56,-71,-103,-194,-304
29,-11,-18,8,37,-33,-52,-74,-96,-159
61,48,-18,-20,32,-36,-35,-29,19,-71
30,26,-44,-54,-17,-32,-51,-18,106,29
22,-25,-78,-61,-62,-30,-70,-15,162,177
-43,-36,-35,-49,-80,-35,-27,-28,141,180
-109,-44,-107,-140,-97,129,181,5,122,154
-229,-113,-192,-169,-53,351,392,38,70,60
-213,-99,-173,-95,42,371,410,-74,-141,-147
67,-7,-133,-50,67,80,25,-98,-178,-25
164,49,-40,-23,45,-215,-417,-3,-37,188
3,21,-27,-10,35,-222,-283,31,-49,13
-110,-1,-44,-8,58,-70,-38,7,-129,-147
-169,12,120,60,19,-9,23,-3,-150,-198
-101,-30,158,80,-46,-18,-2,-24,-135,-93
-55,-34,-29,-8,-55,0,-22,-30,-106,-49
-39,70,-93,-67,-32,1,-21,-16,-55,-54
-24,85,33,16,-30,-40,-46,-25,-57,-39
-5,59,122,102,-58,-88,-79,-68,-41,-20
-52,-24,-29,63,-15,-52,-68,-77,8,-19
-76,-94,-185,-73,24,-10,-31,-76,53,-3
75,-29,-257,-194,43,49,42,-66,101,83
239,13,-304,-225,101,197,146,3,155,205
351,39,-251,-226,26,157,109,272,304,441
260,26,74,-43,-148,-93,15,226,258,410
103,-19,309,181,-161,-107,-77,8,93,179
0,-63,125,85,-69,-25,-8,66,76,22
-73,-72,-60,-37,21,73,96,164,110,13
-139,-84,-230,-84,88,139,91,83,-12,-94
-179,-81,-355,-136,91,141,-195,-18,-126,-210
-201,-161,-488,-340,-12,121,-654,-52,-135,-217
-190,-156,-392,-292,10,73,-871,-186,-186,-254
-137,-47,25,81,105,113,-402,-333,-206,-255
-50,3,422,424,205,278,509,-278,-149,-145
74,-6,400,392,209,209,870,-160,-100,59
17,-115,49,93,108,160,951,42,-42,67
12,-38,11,33,80,101,451,204,100,45
8,45,11,32,-13,-136,-134,216,146,26
24,109,-106,-151,-182,-432,142,270,179,48
81,113,-437,-509,-126,-8,333,324,239,123
130,62,-759,-802,-133,148,21,325,299,166
136,25,-670,-718,-92,150,-224,189,201,130
6,58,13,-129,-18,32,-104,-34,-32,-66
-88,19,605,441,39,205,324,-127,-195,-211
-25,6,426,379,37,423,617,-53,-173,-155
74,57,238,128,-10,425,552,8,-68,-12
14,14,379,218,-20,168,201,-12,-19,18
7,-22,398,229,-76,-385,-233,0,12,42
184,39,74,-86,-175,-494,-280,53,111,224
317,80,-90,-103,-62,-159,-40,10,125,291
350,55,-117,-83,78,241,330,-83,35,283
161,17,-120,-141,110,601,661,-94,-50,135
-109,10,17,72,152,598,685,28,-83,-113
-87,26,28,77,124,88,26,171,-48,-99
-58,-36,-44,-89,-55,-546,-624,44,-114,-68
-75,-66,192,134,-63,-809,-961,-100,-98,-39
-183,-97,444,406,-57,-629,-1063,-143,-85,-109
-201,-161,275,254,-154,-374,-732,-106,-18,-81
-45,-110,26,72,-127,-240,-208,-27,69,79
105,37,31,16,-40,-164,136,113,156,182
142,139,104,71,69,-125,44,87,90,84
157,218,97,95,135,-71,-112,16,6,66
51,217,33,30,128,-49,-135,3,-21,-41
-6,81,-272,-262,-11,-22,-38,100,79,-53
13,-4,-315,-323,-81,-60,46,167,163,-3
-14,-22,21,-68,-48,-81,84,140,140,-12
18,-17,247,231,35,-61,13,-26,-6,10
-34,-16,373,396,32,-39,-114,-193,-103,12
-178,-66,223,276,-1,7,-71,-233,-129,-145
-271,-104,-67,76,44,93,88,-116,-68,-258
-167,-88,-279,-78,87,72,97,208,96,-158
-84,-9,-241,-166,43,21,72,211,84,-133
-39,121,-71,-108,4,11,13,-6,-94,-193
-24,135,112,12,-27,-42,-26,-90,-162,-192
-40,12,280,148,-1,-66,11,-150,-187,-160
133,5,8,-9,42,-7,13,-174,-144,1
283,145,-282,-290,83,145,3,-118,-16,188
62,30,-474,-431,93,377,133,-41,8,53
-176,-98,-157,-124,37,134,137,98,-26,-158
-140,-119,109,148,-49,-76,40,95,-41,-147
-14,-74,70,92,-82,-40,-55,-34,-57,-63
-13,-42,-29,-86,-60,-25,-103,-7,8,-19
-111,-90,-99,-109,-102,-60,-557,-134,-86,-111
-149,-109,-152,-68,-132,-43,-1128,-385,-214,-148
-85,-80,19,68,-118,254,-1002,-558,-265,-103
-18,-54,202,206,-79,510,141,-352,-154,-33
112,41,185,196,-14,228,1253,183,121,105
54,7,165,224,32,-253,946,413,181,59
-22,-32,148,222,29,-397,157,235,35,-39
7,16,114,141,-5,-281,55,116,-16,-26
14,37,52,66,1,-39,111,78,6,-7
27,8,-2,26,8,44,106,62,33,26
109,-4,-3,19,-2,-2,61,54,63,106
146,3,-7,27,35,-28,-9,37,66,178
98,-14,-30,-14,38,-25,-29,44,80,144
50,17,-26,-13,39,-6,-25,35,41,41
12,39,-25,-29,33,0,-35,24,0,-14
19,11,-60,-67,10,12,0,21,1,8
74,48,-25,-63,23,-5,85,17,8,73
47,60,13,-19,92,42,140,34,0,71
20,0,-21,-14,91,63,60,18,-7,54
-32,-93,-109,-87,76,105,-27,37,11,6
-35,-87,-79,-85,11,67,-4,-19,-24,-29
26,7,90,28,-55,-101,26,-104,-79,-22
61,10,80,53,-25,-56,-26,-105,-40,28
86,-13,0,0,6,97,-117,-81,4,90
111,-7,-81,-54,-18,81,-131,-96,28,143
127,-37,-124,-81,-37,12,-42,-75,55,162
156,-6,-40,-64,-11,-50,-51,-35,61,184
222,65,19,-26,71,-70,-143,5,73,229
174,106,18,-4,121,248,-42,15,67,152
115,115,22,14,103,476,68,-27,10,-17
68,71,-72,-57,15,428,160,-44,-48,-111
-58,-22,-246,-173,-76,-42,151,100,-11,-85
-182,-16,-179,-128,-86,-477,-105,185,72,-101
-193,-18,-67,-58,-11,-221,40,123,80,-89
-183,-72,85,-7,-15,120,278,86,84,-78
-102,-103,177,33,-77,162,304,16,48,-15
-62,-111,64,42,43,-18,179,4,25,-11
-43,-33,111,190,243,-211,-244,-21,-7,-77
17,69,207,259,228,-133,-395,-67,-36,-105
60,99,56,60,104,166,-187,23,43,12
17,-23,-326,-358,-158,220,206,162,155,83
69,-26,-465,-499,-343,-212,367,258,259,167
214,127,-230,-296,-215,-146,197,165,210,238
61,107,205,102,-44,22,85,-125,-53,12
-211,-48,352,297,57,84,128,-323,-248,-265
-281,-126,183,270,120,86,169,-281,-217,-259
-196,-114,45,144,113,-4,108,62,-10,-52
-63,9,84,102,77,-215,-228,302,120,15
-53,77,80,60,76,-149,-249,129,22,-85
-56,-10,-124,-107,53,229,42,-3,-41,-71
66,-31,-128,-108,11,381,114,-143,-128,52
125,-64,-135,-83,21,198,198,-151,-130,146
101,-24,-78,-43,37,-124,22,13,-2,143
111,133,120,114,20,-306,-503,43,47,107
51,168,73,88,-15,-260,-342,21,18,37
70,92,-56,-73,-115,-249,-55,11,34,68
169,66,-71,-170,-131,-175,-34,10,67,241
91,82,170,-28,-65,-91,-65,-24,-2,176
-161,17,145,92,39,-3,-38,-76,-153,-201
-318,-74,-69,76,159,37,-7,-53,-157,-387
-240,-72,-311,-188,121,109,106,61,-27,-255
-163,14,-297,-307,49,151,129,61,-38,-209
-170,54,-105,-169,-136,-18,-322,-100,-121,-245
-243,-99,-66,-154,-263,-81,-848,-270,-160,-283
-302,-193,75,40,-251,-94,-1107,-513,-240,-288
-93,-97,226,209,-65,155,-415,-565,-214,-112
70,-45,187,220,71,463,623,-229,-22,67
-1,-101,62,93,-113,245,661,26,90,56
-20,-141,-119,-115,-246,-99,366,72,77,20
94,-67,-218,-205,-135,-254,-17,133,83,98
227,87,-91,-57,79,-298,217,284,206,248
243,151,-20,66,203,-167,563,338,226,231
198,141,-32,78,197,69,566,290,127,134
138,113,213,212,146,166,324,154,-32,37
51,4,307,216,25,267,353,133,-105,-18
18,-66,27,-58,-113,253,496,142,-55,-12
131,52,-117,-226,-153,205,537,197,76,87
154,142,-10,-104,-20,212,283,146,91,132
149,109,74,20,40,-10,-214,12,37,137
275,86,-185,-144,69,-418,-617,24,107,263
424,97,-461,-356,119,-372,-479,115,213,475
394,138,-373,-410,41,-91,-121,216,313,531
158,132,-52,-198,25,-105,-10,186,203,241
-63,75,64,98,212,-116,-29,64,20,-79
-173,6,106,272,346,124,-43,-40,-94,-237
-127,-9,198,240,147,399,51,-70,-66,-161
-108,-56,157,71,-177,574,217,-56,-37,-53
-129,-37,174,32,-390,40,192,-96,-57,-43
-177,-32,148,59,-175,-118,-2,-168,-142,-176
-108,7,181,177,83,-273,-371,-210,-234,-255
-30,-19,257,337,129,-435,-542,-279,-294,-236
20,-31,159,222,97,-230,-233,-274,-218,-54
-75,-62,-157,-133,97,140,124,-169,-58,-57
-165,-103,-333,-288,149,138,61,54,47,-121
-226,-73,-5,74,177,55,-411,-22,-89,-222
-276,-74,268,387,19,68,-718,-292,-278,-316
-277,-137,15,90,-225,129,-342,-182,-231,-319
-184,-71,26,-6,-262,-8,444,32,-102,-248
-115,55,365,213,-174,-7,755,98,-7,-151
-108,69,293,203,-135,158,615,44,-24,-97
-85,35,92,51,-128,-3,467,106,48,-38
-12,49,89,82,-22,-319,-39,140,98,11
50,45,71,76,-13,-462,-414,91,63,36
71,48,0,37,-67,-381,-117,72,52,30
4,8,-129,9,-46,-121,69,31,20,-23
47,52,-54,-30,-84,-123,-100,-10,43,45
83,52,-38,-114,-123,-114,-363,-67,40,118
90,-10,-114,-164,-75,0,-688,-174,-28,105
74,-76,-113,-92,46,-2,-995,-204,-86,74
9,-147,-128,-46,134,113,-785,-269,-154,39
-36,-205,-205,-137,78,304,211,-124,-135,41
-80,-240,-304,-278,-93,260,377,-52,-32,44
32,-111,-240,-256,-124,161,612,170,241,224
144,69,-152,-187,-16,88,632,286,319,282
227,253,-40,-90,144,105,752,261,286,241
163,209,51,82,210,319,830,163,214,136
23,102,253,315,158,655,656,-124,65,1
23,69,296,339,104,544,179,-238,65,53
81,60,93,183,25,-52,-255,-154,90,114
107,26,-30,9,-58,-443,-597,92,124,136
63,-13,-47,-74,-106,-600,-644,301,83,54
-43,6,40,35,8,-585,-129,324,2,-82
-95,-21,35,51,-8,-318,155,292,2,-98
-24,-8,17,1,-63,-231,-27,160,69,35
92,-13,-19,-37,-64,-186,-140,97,137,201
217,-1,-9,-34,-75,-166,-171,81,150,279
296,75,26,-39,-83,-144,-160,22,96,269
195,138,52,-20,-27,-59,-75,25,25,111
-26,170,146,70,53,27,-15,46,-39,-113
-105,155,200,69,24,-15,-47,-14,-108,-171
-135,87,38,-69,-6,-70,-49,-13,-84,-183
-75,12,-208,-148,156,-25,-32,15,-29,-142
137,14,-283,-114,234,152,-35,32,37,33
198,35,-163,-11,147,285,-61,17,44,137
87,-4,97,55,-61,271,8,-10,-22,87
-72,-111,177,97,-193,-96,194,-20,-84,-31
-178,-87,98,146,55,-16,170,-39,-126,-137
-88,2,-18,37,146,173,15,-9,-84,-37
52,51,-303,-257,-36,155,-64,27,14,78
179,95,-577,-557,-199,-60,40,135,173,238
96,0,-547,-572,-73,0,262,169,207,198
-96,-141,-262,-314,137,136,284,57,73,-21
-60,-117,71,51,167,111,24,-119,-54,-73
25,-56,277,340,197,204,-193,-274,-158,-31
-148,-110,300,388,170,330,-63,-100,-77,-109
-269,-97,338,357,-13,250,125,9,-52,-256
-306,-177,75,118,-10,353,382,-80,-127,-327
-182,-174,-341,-196,37,191,392,-40,-106,-237
41,37,-270,-166,127,-221,-215,-1,-56,-71
168,199,-40,10,120,-406,-607,-7,-22,51
87,191,330,263,50,-298,-395,47,-13,28
-154,31,584,429,-81,-239,-129,-23,-103,-100
-260,-129,319,244,-175,-251,-24,-99,-133,-174
-217,-135,81,77,-63,-96,-30,-65,-93,-116
-45,-52,22,10,-4,-42,-82,-51,-47,36
123,27,-36,-71,-27,-43,-6,-44,41,208
120,63,-52,-92,-62,-48,69,-2,91,234
-22,32,-62,-85,-47,17,79,30,45,19
21,77,112,87,55,29,-65,-115,-107,-102
82,131,266,206,88,-43,-205,-136,-160,-48
-45,58,168,106,-21,6,-68,17,-104,-56
-288,-144,-121,-117,-176,428,176,-14,-145,-229
-358,-254,-359,-379,-232,804,185,-156,-220,-323
-162,-185,-467,-537,-241,625,184,-157,-167,-212
86,0,-366,-398,-38,35,-4,22,31,37
64,44,-194,-44,301,-265,-185,146,42,25
-178,-72,167,369,386,-238,-263,-30,-94,-177
-142,-84,272,348,238,-26,-118,-121,-40,-83
15,-33,-76,-46,22,122,-258,-97,83,101
101,-29,-430,-418,-189,200,-96,-37,146,182
79,-55,-512,-460,-228,93,525,84,164,175
56,-40,-345,-315,-110,188,936,189,168,173
248,73,-53,-155,-119,-69,516,222,283,357
240,70,48,-43,-30,-255,-110,52,224,342
244,101,-33,-183,-123,-437,-212,102,176,349
229,96,61,-184,-280,-615,-373,73,153,342
135,20,46,-53,-171,-341,-183,18,123,218
139,101,153,155,65,64,222,74,86,96
101,99,410,433,193,65,117,55,-111,-42
31,32,216,267,89,58,-155,37,-87,-76
97,53,-45,-67,-11,-228,-232,15,-9,12
-7,33,42,117,180,-316,-161,-41,-80,-71
-42,43,145,215,266,-102,-91,-106,-111,-110
52,158,76,87,175,117,-163,-149,-56,27
8,125,178,139,100,331,-191,-221,-113,26
-219,-126,268,251,28,307,-11,-195,-245,-176
-322,-271,266,240,-223,-336,38,26,-170,-237
-304,-241,80,48,-254,-318,-147,42,-27,-204
-147,-109,0,-15,-106,-107,-414,-31,39,-116
-38,-23,106,160,79,46,-371,-175,-48,-139
96,100,159,183,21,-52,58,-146,-34,-71
127,199,101,34,-84,-132,351,-16,47,-9
85,172,-38,-54,-36,-53,245,109,79,1
221,169,-255,-227,-22,-116,51,311,204,210
329,105,-533,-489,-30,-21,55,276,276,386
238,0,-568,-461,104,134,168,220,267,372
-65,-73,28,112,262,95,113,109,-6,42
-229,-87,642,659,171,-99,-132,-88,-289,-214
-117,44,512,566,55,-81,-165,-180,-223,-297
-145,49,183,291,-10,13,-87,-164,-246,-419
-157,2,34,144,-55,-51,17,-115,-196,-346
-55,-6,31,69,-33,-53,25,-71,-67,-95
-6,-13,11,14,-43,-30,19,-27,54,30
-101,-42,-9,-11,6,37,72,5,76,-32
-167,-40,-25,-19,63,121,164,27,50,-85
-133,-32,-46,-41,3,351,286,-40,1,-99
-82,-73,-125,-89,-48,525,350,-69,-1,-122
22,-106,-100,-71,7,353,300,-62,7,-22
64,-44,-15,28,77,15,-17,-90,26,27
33,-33,-55,1,48,-271,-413,-7,84,15
83,-7,-126,-103,-37,-392,-332,65,74,66
102,16,-125,-145,-24,-218,-49,179,112,155
-15,-113,-214,-206,-80,-26,-50,170,95,104
-229,-229,-232,-243,-207,192,-301,-57,-53,-130
-331,-274,-274,-324,-225,480,-429,-358,-292,-310
-237,-234,-315,-335,-65,635,15,-500,-447,-296
93,0,-109,-85,150,426,716,-278,-196,46
193,146,206,219,215,194,432,-183,4,228
65,94,177,154,44,44,340,-1,116,178
-30,60,-5,-59,-17,-158,100,146,111,61
112,100,-65,-66,-16,-558,-153,284,174,106
195,85,27,121,1,-662,-91,227,109,153
159,55,84,82,-68,-477,225,385,162,207
89,46,36,-37,-130,-202,205,351,202,174
107,125,139,10,-138,-140,-93,240,179,126
67,127,137,20,-99,-121,-132,221,170,40
55,120,38,12,16,-85,-117,123,92,-47
66,116,-59,-25,101,-68,-154,36,38,-110
36,49,-143,-84,116,-40,-119,58,70,-49
1,35,123,98,190,-86,-152,-9,40,-16
27,81,461,305,153,-62,-281,-122,-21,6
92,79,323,206,-15,-24,-478,-149,-45,60
-77,-102,-26,-20,-157,167,-414,-126,-120,-60
-172,-233,-243,-240,-304,33,4,-68,-183,-120
-76,-209,-249,-253,-121,383,446,-20,-154,-49
103,-89,-190,-154,101,517,653,130,27,161
233,66,-128,-121,122,259,449,200,199,356
236,125,-124,-103,84,-14,44,133,202,316
110,123,106,206,137,-213,-282,9,73,112
-85,41,344,405,164,-128,-350,-106,-79,-74
-29,43,328,288,77,-145,-262,-76,-70,3
103,42,68,-19,-58,153,-170,10,14,172
39,-53,-206,-254,-203,54,-35,29,-31,46
15,-27,-244,-229,-187,-256,34,53,-25,-21
50,30,-178,-120,-24,-114,13,43,3,59
-2,88,87,57,66,-41,-28,-19,-56,-62
-212,47,303,177,68,-9,-33,-57,-134,-303
-308,-26,182,92,43,13,0,-43,-147,-410
-269,-12,4,-4,73,34,15,-22,-104,-345
-188,-27,-35,38,62,19,-24,-47,-51,-223
-80,-58,-49,75,-43,-65,-75,-77,-12,-86
18,-18,14,55,-115,-111,-85,-97,17,34
105,35,43,-47,-138,-78,-45,-103,32,119
105,14,-134,-222,-110,31,18,-80,67,121
140,57,-352,-382,-59,127,146,-71,92,136
207,93,-600,-546,4,301,445,55,142,235
131,69,-462,-419,26,431,444,284,254,314
-112,-63,36,58,89,706,269,1,69,63
-264,-194,306,242,20,605,166,-266,-121,-187
-113,-138,263,189,-76,-41,182,6,10,-25
11,-8,160,205,36,-424,-24,242,28,-22
-44,142,239,235,91,-562,-264,131,-113,-248
-178,203,518,466,155,-447,-262,-86,-225,-386
-253,99,448,433,150,-146,-204,-145,-179,-353
-250,-53,160,183,41,-101,-117,-49,-95,-247
-90,-81,16,48,-59,-167,-55,20,-44,-112
86,-31,-27,-50,-162,-171,-29,13,14,-6
125,-8,-86,-152,-178,-125,-8,45,110,125
149,-4,-165,-179,-70,-45,-3,61,134,187
100,-22,-198,-159,66,54,21,44,97,130
53,-28,-197,-139,98,98,32,20,40,98
19,-9,-82,-55,7,25,-202,-133,-102,-6
5,-61,-476,-440,-198,-48,-678,-175,-113,-62
19,-73,-978,-966,-348,109,-738,-71,-12,-30
71,10,-919,-941,-215,520,-32,-100,-25,1
-78,65,-28,-20,184,1000,1275,-124,-119,-74
-248,-18,828,777,210,967,1729,-179,-217,-231
-186,-171,515,563,-18,356,1024,-79,-173,-192
120,-71,338,376,-57,-454,358,156,31,143
184,127,420,422,91,-832,-674,80,119,252
60,105,320,309,46,-813,-741,71,148,143
29,29,156,143,4,-466,-345,160,181,91
54,32,-12,-10,29,-170,-199,148,157,75
65,52,-104,-122,31,3,-74,171,177,74
46,36,-114,-82,85,50,-62,86,104,46
-66,21,120,219,148,-56,-193,-61,-28,-74
-56,18,205,229,82,-147,-261,-75,-18,-62
-2,40,62,46,-12,-145,-203,-39,23,-22
26,22,-148,-196,-148,-79,-29,83,104,22
12,-8,-288,-293,-76,65,117,154,137,25
-78,-18,-207,-117,154,92,239,56,9,-95
-50,51,86,112,264,39,163,-57,-86,-125
71,114,217,209,216,132,-107,-103,-64,-8
178,117,108,169,216,309,-453,-89,-27,114
92,-31,-33,53,56,238,-441,-91,-56,58
41,-94,-77,-145,-224,-298,-166,-47,-30,24
115,4,-136,-182,-64,-239,-89,12,-7,28
108,108,79,79,108,-95,-51,9,-90,-35
25,49,249,278,53,43,-33,-46,-120,-66
11,-51,46,43,-125,230,9,-41,-30,3
57,-12,-269,-289,-336,-144,48,27,98,139
41,41,-339,-349,-228,-181,28,76,66,217
-120,-58,-150,-187,27,-102,27,15,-12,125
-150,-86,45,-50,126,-97,34,-44,133,123
81,-135,-207,-207,82,64,79,5,192,269
358,-54,-434,-389,-57,207,83,130,274,419
214,-60,-8,7,-183,60,13,-10,55,153
-112,-168,450,555,-105,-151,0,-264,-344,-285
-107,-107,380,422,-12,-107,-19,-95,-283,-219
175,18,152,89,-83,-199,-113,142,57,174
212,-90,-112,-203,-207,-204,-324,30,91,290
100,-163,-371,-396,-229,-141,-428,-46,169,276
16,-60,-311,-325,-121,-29,-271,-16,212,198
-117,-40,-145,-46,80,163,167,83,175,25
-277,-94,-12,137,134,198,552,231,172,-219
-207,-39,23,152,148,110,439,183,95,-242
-81,90,227,257,187,-3,99,-13,-53,-190
-61,52,363,310,78,-10,-15,-86,-104,-158
-31,-38,169,145,-47,153,147,-4,-1,-94
-2,-47,-48,-43,0,510,400,13,16,-19
38,10,-163,-182,16,567,466,-71,-48,-14
50,64,-150,-233,-60,297,469,-59,22,-2
35,87,-51,-123,5,116,113,-5,90,16
-63,58,167,97,53,-154,-293,5,51,-101
-95,19,230,136,-83,-237,-190,-76,-34,-204
-21,-20,2,-111,-225,2,-574,-275,-121,-196
18,-67,-138,-201,-179,153,-1297,-589,-260,-113
13,50,78,65,23,68,-1414,-825,-415,-94
-19,178,406,407,258,-60,-346,-462,-275,-114
-177,65,199,255,167,-105,1304,441,-1,-180
-211,-47,-272,-145,-161,-61,1511,796,116,-118
-128,-18,-315,-290,-234,83,1133,459,3,-112
26,87,-131,-190,-102,-14,662,180,-103,-167
160,135,125,58,53,-106,63,35,-112,-78
35,39,254,249,93,11,-6,-43,-118,-58
-173,-71,81,149,88,254,166,-43,-98,-153
-236,-91,-15,56,125,280,238,-45,-88,-227
-179,-36,118,119,116,-130,24,22,-27,-152
-16,55,249,206,149,-530,-526,14,31,4
107,100,178,141,172,-547,-531,-20,67,117
144,103,14,35,186,-101,-247,9,92,159
121,89,-118,-93,105,227,-131,30,98,113
96,40,-200,-239,-83,110,-37,45,57,52
38,59,67,-12,-173,-259,-57,-27,-3,12
-24,80,255,216,-51,-194,-51,-88,-37,-13
-49,31,47,76,14,-44,99,-32,-10,17
62,48,-275,-220,24,82,169,107,110,165
171,72,-431,-331,16,161,-13,133,180,271
134,-29,-353,-211,2,43,-222,96,141,229
14,-114,92,96,9,-115,-316,0,17,97
-27,-157,209,163,-31,-193,-237,-82,-54,55
39,-123,-28,-88,-81,-100,-72,-44,-49,124
12,-46,31,-43,-55,-11,-17,-13,-55,55
19,73,240,151,-38,-61,-139,-61,-87,3
33,17,157,154,60,-50,-269,-79,-54,-1
17,-88,54,186,224,-14,-268,-96,-30,0
73,-26,52,199,243,12,-215,-57,46,55
98,36,32,111,108,222,-187,12,108,142
10,-59,-155,-134,-140,306,4,39,37,44
-108,-156,-260,-226,-286,-65,181,29,-12,-115
-189,-155,-209,-126,-106,-68,139,-54,-50,-204
-211,-149,-321,-173,23,163,196,-94,-10,-150
-119,-85,-261,-209,-56,203,184,-59,21,-55
14,20,-75,-148,-194,-53,55,125,95,57
26,-1,-29,-63,-192,-100,48,11,38,61
12,5,119,44,-48,12,111,-89,-15,37
29,55,151,67,86,82,158,-36,0,18
59,123,79,50,106,-59,-12,88,54,-1
137,191,-182,-184,26,-83,-17,207,141,65
205,192,-510,-509,-22,56,109,273,200,152
203,147,-397,-409,9,82,71,202,119,158
125,58,-57,-79,60,27,-36,91,21,98
69,-27,156,96,68,-49,-111,4,2,87
-237,-214,398,503,116,251,292,-133,-149,-171
-284,-170,439,570,122,319,384,-183,-206,-276
-112,-116,194,258,27,151,234,-125,-326,-101
44,-140,23,-23,-138,-257,-251,39,-316,99
12,-43,36,-31,-217,-169,-489,33,127,89
-307,-189,-170,-149,-301,191,-838,-281,-47,-214
-453,-328,-281,-317,-377,323,-1140,-540,-240,-356
-379,-255,-207,-231,-175,373,-821,-686,-380,-427
-94,82,166,153,263,131,180,-225,-173,-231
295,413,445,379,288,-551,802,434,252,199
392,334,246,142,-78,-757,821,553,383,391
257,120,-4,-113,-218,-453,590,412,358,362
288,102,-66,-142,-4,-230,214,185,334,429
429,159,-49,-95,152,-81,-87,70,318,550
483,202,-92,-132,159,231,-139,-3,236,594
166,129,-74,-37,151,443,-51,-28,15,206
-278,-7,7,39,-22,-11,131,283,-65,-276
-401,-42,44,20,-99,-314,206,340,-121,-443
-186,-26,59,67,6,-119,73,70,-246,-403
-91,-13,236,226,53,-65,-79,-105,-247,-342
-154,-59,142,74,3,-42,-72,-63,-35,-257
-216,-99,83,120,67,16,-21,-64,-26,-243
-228,-202,-18,104,107,29,-45,-78,-217,-179
-121,-335,-235,-79,70,-69,-219,-74,-660,-70
15,-133,-174,-124,57,-2,22,-3,-188,66
47,7,-14,-63,6,0,93,57,100,62
14,73,41,-1,-15,63,32,-46,20,-44
-62,9,-113,-126,-42,359,351,-115,-51,-96
-57,-63,-299,-295,-86,582,625,-54,34,-18
204,57,-125,-229,-134,411,513,-23,158,178
401,167,169,-39,-97,-68,-185,67,347,386
291,36,-36,-66,17,-338,-680,126,431,387
97,-24,9,6,41,-440,-294,95,323,156
37,18,184,112,39,-170,9,10,135,4
91,84,77,43,82,13,-28,3,51,66
73,89,34,-10,58,17,-159,62,50,38
-149,-30,145,194,124,14,-227,-23,-136,-241
-221,15,244,353,138,-94,-237,-157,-326,-411
-61,159,142,140,13,-52,-145,-165,-331,-301
22,149,75,-37,-67,-13,-65,-97,-223,-168
-71,3,-14,-132,-71,-2,43,38,-87,-146
-63,-54,-260,-254,-39,-6,95,125,39,-65
57,4,-278,-240,-10,-29,19,102,70,41
126,7,-280,-220,-10,-9,-32,8,52,110
182,7,-153,-128,-43,8,-113,-103,86,221
102,-43,158,115,-66,9,-50,-181,56,215
14,-34,478,446,9,-109,3,-168,5,147
105,-26,513,454,-62,-284,-147,75,107,252
104,-77,191,168,-102,-170,-76,47,86,223
125,6,42,-22,-19,97,23,-23,64,165
71,59,-23,-67,167,337,28,-42,54,23
-85,44,35,88,293,420,-13,-127,-38,-127
-175,20,161,267,210,408,-59,-166,-133,-229
-290,-124,64,130,-51,365,227,-36,-116,-357
-263,-161,-11,-16,-241,-105,522,29,-99,-345
-140,-82,-71,-66,-115,-146,388,5,-87,-215
-16,-5,-95,3,26,-259,-113,31,66,64
110,73,16,26,-32,-392,-332,60,159,222
96,41,-29,-95,-139,-255,-162,67,118,158
-59,-58,-118,-147,-172,-52,-403,-156,-89,-43
-224,-194,-246,-283,-291,158,-642,-265,-229,-224
-272,-189,-205,-266,-226,354,-333,-272,-257,-322
81,80,104,48,100,447,594,-141,-162,-115
389,264,299,277,332,419,628,17,-14,141
129,167,168,182,210,28,342,140,22,27
-154,30,-4,-37,3,-239,441,203,18,-164
-157,10,-9,-27,63,-408,92,177,19,-151
-167,-16,23,67,155,-501,-162,206,84,-121
-91,0,-52,-15,106,-199,-9,160,144,-51
173,92,-133,-140,-3,72,-58,86,92,117
228,33,-240,-288,-127,115,-78,62,-105,164
10,-8,-140,-200,-196,-194,141,137,2,35
-148,13,146,97,-95,-192,96,98,-76,-149
-152,103,276,236,-10,-117,-7,2,-159,-227
-124,107,224,212,42,-56,-58,-53,-170,-210
-104,43,123,125,57,-11,-67,-58,-127,-139
-113,-36,19,86,83,18,-66,-54,-88,-110
-51,-68,-39,4,1,-11,34,-15,-28,-35
-21,-56,-70,-12,-9,-5,159,-2,-9,12
-39,-96,-152,-54,36,49,76,-50,-23,0
-49,-162,-296,-181,27,64,-200,-73,-10,-1
-2,-157,-300,-197,23,105,-419,-90,17,22
136,-3,-166,-107,-16,119,-264,-95,62,122
184,150,-18,10,78,86,191,-49,127,221
175,161,2,42,139,65,360,11,179,269
96,12,-135,-43,79,149,255,-22,136,199
18,-76,24,3,-30,25,108,102,136,107
0,-78,165,120,-98,-144,142,242,142,52
-28,-67,149,136,-18,-45,256,39,-31,-46
-36,-65,-22,-34,0,118,353,10,-57,-58
14,-42,-185,-217,-50,263,426,139,81,44
61,-19,-253,-295,2,606,230,97,107,120
23,-26,-157,-176,29,653,70,-88,15,70
62,-55,-178,-176,-18,304,58,-153,24,100
244,36,-375,-338,18,-118,-245,-14,140,247
265,146,-410,-359,39,-389,-367,116,149,231
228,102,-606,-457,63,-291,23,391,233,228
87,35,-199,-112,126,-169,92,326,143,108
-166,-45,560,472,151,-96,-168,-131,-167,-171
-254,-103,775,692,2,-106,-401,-337,-273,-274
-225,-82,688,603,-156,-26,-377,-332,-227,-233
-151,-108,203,199,-236,-13,-54,-182,-97,-121
65,-7,-86,-56,-136,-106,105,16,90,97
189,94,-153,-95,-43,-121,99,178,190,217
212,140,-53,-18,-45,-66,112,126,141,231
153,102,270,170,-31,8,92,-21,66,258
22,-41,331,187,-93,-116,-11,24,101,305
65,-99,43,-40,-191,-421,-387,162,314,453
97,-42,-176,-239,-218,-438,-451,187,398,457
39,-12,-416,-351,-149,-225,-361,124,268,249
-39,-54,-358,-159,98,-35,-383,-19,47,38
-61,-17,-20,108,325,49,-213,-130,-134,-131
-2,53,159,136,348,138,11,-145,-203,-168
-27,59,304,198,140,208,-451,-254,-260,-239
-162,-43,109,9,-116,589,-459,-263,-222,-361
-263,-132,-65,-112,-208,503,308,-184,-223,-365
-80,43,162,164,-85,-79,1094,182,-9,-116
12,99,186,202,38,-363,498,262,61,-53
19,67,109,113,41,-441,22,113,10,-71
83,57,26,50,4,-270,20,60,46,76
129,99,8,12,11,-82,13,-64,-16,134
89,122,-9,-28,32,-2,108,-142,-73,34
76,65,-89,-149,-20,38,161,-51,0,52
15,-7,-143,-149,39,-48,272,142,125,83
-22,14,-19,7,192,-103,27,165,87,60
99,160,12,27,149,19,-192,123,-11,39
82,182,17,9,65,198,-159,11,-127,-93
-32,59,85,58,-65,65,-57,-114,-250,-212
-161,-14,167,160,-83,-250,29,-94,-187,-249
-178,15,200,128,-20,-137,-12,-9,0,-147
-203,-33,110,69,6,-55,-85,-11,93,-1
-122,-123,-38,21,29,30,-130,-14,173,86
268,-10,-67,-29,-29,-80,-204,-53,210,376
368,4,-85,-92,-101,-116,-153,-37,181,428
134,-9,-39,-52,-117,-62,-28,47,180,228
-80,29,20,-18,-45,94,176,61,49,-69
-125,24,-140,-200,-62,509,418,36,-110,-225
-60,33,-301,-353,-105,579,450,-6,-209,-215
11,13,-276,-198,-33,289,312,-24,-267,-195
98,18,0,144,59,-130,-70,6,-257,-101
30,-62,189,270,78,-379,-370,2,-203,-2
-95,-140,59,139,64,-255,-306,-49,-167,-65
-161,-68,-63,48,100,5,-208,-74,-157,-200
-172,0,-90,58,189,190,-138,-129,-189,-248
-220,-71,-144,54,203,257,136,-109,-164,-240
-297,-142,42,112,47,261,328,-166,-137,-272
-325,-235,-85,-96,-247,730,457,-349,-181,-283
-183,-174,-346,-342,-337,809,524,-467,-146,-117
32,62,-217,-289,-60,454,250,-154,85,145
148,174,-89,-155,59,-125,-193,254,280,300
148,134,-2,7,26,-686,-286,495,340,272
5,32,335,308,-23,-708,-144,434,222,80
-78,-90,357,317,-26,-469,-188,211,42,-84
-17,-84,72,140,88,-164,-155,91,-75,-192
7,-16,-79,-17,176,53,-27,26,-136,-258
-27,-12,-15,6,137,184,107,-29,-135,-245
-11,8,170,93,-67,158,66,-77,-99,-134
3,-28,18,-54,-138,145,-83,-44,-18,-58
9,3,-63,-7,75,-41,-497,-57,21,-43
24,45,121,185,169,-204,-552,-120,8,-21
34,25,128,233,153,-133,46,-34,6,5
100,3,-225,-109,-32,-21,233,103,114,89
92,-45,-450,-350,-170,227,-36,14,84,98
-107,-185,-322,-248,-30,362,-435,-144,-89,-64
-159,-199,-73,-76,80,136,-499,-186,-176,-103
75,33,98,145,195,-79,-221,-5,8,133
179,167,321,306,278,-147,448,249,137,254
158,81,391,263,1,-298,380,156,43,192
230,124,285,174,-145,-248,54,50,48,288
84,22,2,-92,-184,173,98,77,59,175
-74,-82,-111,-176,-256,-115,188,109,63,28
-106,-111,61,33,-144,-283,-56,42,-39,35
-69,-57,110,90,-87,-238,-203,-27,4,70
-33,-14,82,17,-86,-93,-138,-35,159,113
-11,-81,-27,-105,-140,6,-80,-20,187,179
-19,-134,-162,-212,-162,-40,81,79,148,165
-56,-155,-182,-162,-81,-5,110,43,40,51
47,-49,-50,-22,37,80,-19,-70,-87,26
110,79,120,137,88,9,-3,-65,-84,39
98,98,135,104,0,-107,52,56,26,94
98,130,115,56,-19,-112,76,88,72,128
22,153,121,82,105,-26,13,13,-70,35
-107,16,38,77,159,36,-53,-61,-258,-124
-133,-28,-30,10,140,96,32,-28,-70,-131
-61,-46,-181,-181,78,149,99,56,28,-60
47,13,-216,-302,-37,140,127,118,91,-22
158,150,-68,-231,-110,48,75,91,88,81
120,162,32,-62,-15,34,45,26,0,36
-44,88,250,279,54,0,-17,-54,-105,-141
-97,42,277,325,-24,-35,-59,-59,-123,-174
-26,26,24,89,-10,5,-49,-45,-91,-100
38,21,-165,-95,47,50,0,-5,0,-8
7,-11,-161,-70,87,47,29,42,56,13
44,-7,-53,21,79,20,0,34,67,75
110,-24,85,35,46,2,-43,-27,51,125
26,-131,-77,-32,120,59,-37,-49,-24,22
-35,-220,-439,-290,122,119,-15,5,-131,-32
-49,-155,-564,-457,99,357,271,100,73,18
-64,-103,-360,-248,127,604,551,14,0,25
-153,-101,111,155,83,476,604,-185,-136,-90
-193,-115,176,230,26,178,449,-234,-126,-150
-93,-34,156,186,-28,16,-37,-162,-69,-76
3,-16,79,59,-129,-231,-516,-87,-24,40
52,80,238,166,-151,-622,-406,-55,0,101
40,135,127,75,-94,-257,64,-36,13,53
71,150,-186,-261,-155,150,372,163,181,118
5,70,-355,-480,-237,529,488,212,239,88
-86,-80,-339,-498,-174,722,725,65,112,-56
-13,-62,114,-60,-70,71,274,43,108,-7
-29,-72,533,494,-51,-815,-1320,-127,18,-1
-134,-177,281,336,-219,-1064,-1897,-274,-98,-131
-214,-222,-9,7,-242,-561,-1402,-318,-142,-244
-170,-175,-109,-70,-75,50,-383,-315,-110,-185
138,4,-132,-82,-1,354,484,-243,50,106
317,89,-153,-97,58,449,1151,-21,187,264
271,115,-92,-13,156,262,991,146,232,253
348,300,316,243,159,-348,-23,241,224,241
336,279,477,306,13,-687,-206,272,154,173
232,133,37,59,-99,-457,51,232,150,232
1,42,-344,-127,33,-14,84,208,162,109
-172,71,-190,1,324,165,97,101,23,-169
-161,119,161,185,421,226,0,-29,-86,-271
-104,64,311,187,218,186,-146,25,-14,-131
-137,-90,234,91,-106,66,-106,54,2,-74
-64,-77,95,-67,-353,-346,0,48,-29,-19
63,104,4,-138,-245,-298,-46,52,31,127
0,120,109,9,10,-92,-60,25,76,86
-140,-12,169,166,130,1,-71,-25,16,-39
-108,-70,101,138,71,-41,-135,-72,-43,-57
41,-64,14,7,-45,-95,-227,-85,94,107
138,-16,40,-1,-41,-44,-275,-100,142,157
238,21,14,-17,15,4,-201,-48,139,276
268,99,14,-26,111,-82,-12,10,122,319
53,78,24,41,259,102,94,-42,-11,43
-115,47,105,166,242,274,-68,-96,-47,-194
-183,-4,10,13,35,371,-50,-109,-62,-283
-135,-71,-103,-128,-169,-25,44,-126,-148,-245
69,0,-63,-101,-159,-186,47,-10,-90,-48
-44,-1,-25,-31,-40,-35,178,129,-70,-100
-169,55,91,73,17,22,169,48,-165,-215
-120,132,74,1,15,4,79,-32,-236,-194
-111,50,-53,-101,-9,17,26,-34,-335,-185
-133,-16,-52,-13,21,64,131,-31,-178,-182
-45,-70,-56,12,3,58,131,-5,-122,-114
95,-48,-178,-111,-16,48,85,80,-23,13
14,-37,-53,-7,20,46,-4,43,-26,0
-39,-54,109,132,-5,-29,-81,-50,-48,18
-37,-30,117,118,-3,-79,-65,-52,-10,24
-30,76,51,64,40,-45,-22,-40,-28,-29
-59,85,-52,44,47,-11,-1,-37,-64,-99
-152,-16,20,89,39,18,4,-46,-86,-159
-166,-74,-7,45,29,43,22,-19,-51,-140
-66,-76,-153,-67,14,58,43,41,-9,-49
60,-9,-205,-154,-9,48,16,65,0,35
39,-3,-267,-193,9,81,42,90,11,27
11,17,-198,-112,53,105,42,54,-38,-27
48,36,5,-25,0,63,21,23,-68,-26
40,-3,-37,-29,-63,19,22,41,-20,11
-16,-48,40,62,-87,19,33,16,-16,-27
-64,-89,76,69,-34,69,38,-56,-49,-86
-70,-100,-98,-39,142,141,56,-83,-31,-66
15,-62,-281,-150,236,97,92,-29,72,53
77,4,-308,-162,186,33,84,39,174,168
-1,41,179,97,47,28,101,68,141,124
-56,4,369,251,-136,-21,92,15,63,38
-34,-35,224,166,-129,-50,-77,-41,0,5
0,-40,113,40,-80,24,-174,-150,-79,-24
28,-52,19,-89,-127,45,51,-222,-98,-23
-15,-96,-10,-45,-11,286,317,-236,-95,-47
81,-32,37,35,113,272,267,-62,-15,67
150,69,19,-30,111,-94,-148,93,102,177
-12,-2,-250,-269,36,-25,-11,77,94,22
-113,-134,-606,-517,-72,394,329,85,67,-75
-177,-201,-501,-426,-202,416,-257,-95,-77,-151
-278,-233,-48,-85,-375,230,-522,-275,-219,-235
-217,-153,236,240,-93,415,-134,-370,-247,-203
44,29,299,327,263,459,815,-75,-45,34
280,160,253,197,165,-23,771,213,46,291
314,231,236,114,32,-360,-229,264,238,344
70,72,98,2,-107,-645,-520,233,162,111
36,39,15,-102,-290,-947,-190,319,200,78
128,80,24,-26,-109,-406,-32,190,173,141
136,87,75,66,0,-101,-7,32,90,123
119,87,-55,-24,-27,-85,-13,29,86,94
47,62,-26,47,-3,-141,-190,29,55,6
-52,11,75,87,-17,-273,-508,-30,-18,-87
-125,-60,-137,-64,-37,-131,-537,-120,-61,-136
-154,-115,-262,-192,-63,234,-140,-93,-25,-127
-103,-66,-126,-31,67,405,297,-11,12,-68
43,71,64,49,61,143,558,242,131,80
89,146,183,22,-14,-139,353,219,126,137
72,163,254,71,82,-239,-93,18,77,101
3,54,80,72,270,-84,-262,-89,68,65
23,-13,56,173,322,77,-313,-147,87,114
14,-62,30,176,145,276,-234,-117,77,116
44,-96,-172,-52,-207,-117,-18,135,139,189
148,-42,-214,-171,-289,-329,106,242,222,295
184,47,-9,-63,-121,-119,10,80,128,262
118,77,122,20,24,8,-14,-23,4,84
95,68,89,53,137,63,-65,-68,-76,-15
162,114,113,62,150,28,-156,-60,-84,-1
164,110,103,-19,45,-83,-169,55,54,155
73,63,119,-55,-129,-163,-99,85,94,186
30,53,121,-51,-199,-104,-59,59,42,93
53,-84,-120,-162,-170,-12,108,81,124,146
154,-155,-279,-282,-141,-40,222,110,252,265
301,-14,-168,-209,-35,76,98,51,229,294
231,17,-39,-22,58,124,-118,-75,86,166
52,-45,53,132,44,60,-121,-157,-101,-77
-21,-62,-12,32,-32,-40,84,9,-140,-220
58,31,-291,-253,-50,82,226,150,-51,-103
212,178,-532,-490,24,177,85,154,73,167
71,196,-470,-423,171,292,34,101,50,28
-232,147,178,109,205,119,-54,-88,-202,-375
-353,-10,476,363,57,6,16,-184,-360,-558
-374,-142,430,347,-72,146,316,-178,-415,-578
-449,-229,275,382,23,315,430,-291,-481,-608
-397,-145,256,350,161,314,273,-239,-385,-510
-282,-53,331,317,156,-118,-228,11,-161,-333
-266,-106,141,170,93,-288,-370,10,-59,-230
-125,-51,9,20,-34,-199,-177,11,19,-67
-22,-22,-57,-93,-134,-116,-34,52,72,24
3,-5,9,-92,-161,-73,-10,51,84,69
-10,66,204,94,-67,-104,-89,-11,27,9
-13,61,287,206,3,-96,-101,-92,-45,-55
5,1,167,119,-15,-60,-28,-86,-10,3
13,-68,-13,-18,-25,-31,35,-3,78,113
-3,-102,-84,-85,-44,-54,57,54,127,144
-36,-71,-75,-57,5,-46,-20,65,93,48
-15,-72,-130,-92,29,23,-288,2,2,-22
-38,-107,-187,-143,-39,25,-509,-72,-121,-88
-175,-144,-93,-56,-39,78,-456,-178,-253,-213
-160,-80,-16,-23,-54,118,151,-50,-118,-152
-14,31,32,3,-36,87,792,205,86,9
83,95,38,6,-52,21,299,113,38,-10
76,101,-14,-10,-90,-14,-248,-52,-97,-130
0,0,-69,-28,-37,63,-390,-202,-187,-190
57,6,-45,-6,70,97,-96,-227,-147,-84
118,29,-23,32,180,31,42,-161,-35,55
147,37,-54,89,322,239,247,-116,15,116
83,0,-35,90,265,656,764,25,19,55
-20,-43,-35,19,19,656,710,30,22,-15
-66,-86,-179,-116,-218,338,528,31,38,-49
-84,-137,-236,-214,-309,259,290,25,51,-4
-168,-166,-155,-153,-127,424,373,-62,0,-101
-127,-41,-103,-82,2,133,584,-18,-7,-134
127,170,-27,-8,94,-551,-156,108,122,82
279,206,11,-47,24,-918,-851,194,247,241
261,132,-95,-170,-94,-676,-397,237,283,266
220,100,-113,-186,-77,-313,-118,185,232,222
124,128,194,80,-76,-229,-178,28,63,95
91,99,248,155,-135,-245,-179,-16,32,105
101,50,23,12,-118,-177,-102,-17,71,191
61,-9,20,101,29,-94,-164,-99,34,160
40,-100,-22,135,113,23,-148,-119,78,173
109,-101,-39,46,67,81,-37,1,103,216
116,-31,0,-11,2,-26,43,119,18,91
13,-14,-28,-60,19,-35,11,67,-29,-46
-16,-28,-106,-131,34,-31,-69,124,54,-41
82,12,-97,-130,5,-45,-122,141,85,38
151,73,-15,-1,31,-50,-107,27,7,88
122,78,61,116,0,-134,-127,-40,-9,132
74,21,136,139,-45,-132,-166,-68,-17,100
27,0,83,88,-17,-21,-115,-8,35,40
76,65,106,90,42,43,-91,-4,14,38
77,99,122,102,91,51,-122,-84,-56,-27
-58,36,69,80,101,48,-101,-51,-25,-148
-204,-44,-24,26,132,73,-50,-21,-41,-257
-240,-92,-132,-41,157,64,-14,-30,-47,-256
-110,-36,-202,-128,126,47,-24,-18,19,-107
142,65,-202,-205,41,45,-55,15,127,106
203,106,-77,-125,61,71,-42,20,108,209
43,55,98,91,133,49,-29,-5,17,125
-154,-28,317,315,81,157,13,-10,-88,-63
-303,-163,158,200,-74,347,363,-52,-206,-223
-287,-158,-105,-113,-263,72,837,-77,-236,-244
-150,-59,-246,-293,-232,221,800,-108,-136,-139
-90,-69,-436,-434,-81,533,424,-76,-27,-30
60,-55,-565,-519,-18,432,-45,46,13,140
23,-56,-217,-146,-37,-108,-151,94,85,87
18,-96,-538,-466,-91,-68,-746,-75,-7,86
-110,-183,-456,-379,-80,-107,-1492,-411,-309,-179
-236,-178,-25,-110,-121,-37,-1346,-556,-404,-344
-135,-35,512,286,-52,209,195,-345,-260,-238
-10,33,477,438,132,416,1296,-10,-41,-44
125,115,256,208,147,166,1541,338,178,151
155,184,196,162,182,-75,981,385,220,189
126,162,294,285,160,-82,9,170,196,245
56,41,186,148,-35,-155,-204,197,185,210
-56,35,171,152,-170,-506,-193,165,25,-27
-91,37,244,236,-127,-424,-241,-35,-132,-134
-5,12,148,105,-107,-244,-166,-41,-58,17
27,11,91,78,-10,-114,-59,5,-13,109
-8,26,113,119,70,-110,-66,-9,-43,59
-66,29,-10,-12,56,-92,-81,17,-18,-21
-42,22,-141,-168,20,-90,-90,66,-6,-70
70,68,-175,-221,34,-61,-120,97,36,-15
147,120,-19,-64,65,45,-111,9,22,54
31,107,209,190,21,311,41,-50,-26,40
-217,-87,17,139,-34,673,451,-65,-106,-123
-417,-212,-139,-15,-11,767,789,-99,-168,-320
-317,-39,-20,-45,29,267,583,-9,-23,-213
-76,110,102,42,48,-428,-232,184,216,64
-2,115,181,132,33,-681,-816,171,215,101
-54,53,165,134,-18,-620,-609,87,124,24
-27,-36,39,73,2,-274,-267,64,148,79
123,3,-18,3,-9,-107,-175,58,159,205
241,77,20,-17,-71,-183,5,103,146,298
171,17,-18,-43,-115,-226,14,78,95,302
66,-49,-73,-50,-85,-159,-110,93,61,236
-30,-32,-47,12,13,-15,-27,129,208,113
-48,15,19,84,115,64,-62,-22,-45,-63
3,46,15,60,123,60,-142,-119,-185,-126
20,25,-40,0,75,25,-182,-82,-110,-85
-4,-27,-142,-47,77,9,-129,-34,-91,-79
24,-21,-255,-101,140,-12,0,41,-53,-24
76,23,-336,-222,167,59,97,116,8,68
153,53,-344,-307,27,172,57,109,67,164
57,-27,-108,-221,-137,59,60,69,69,74
-69,-123,164,-49,-172,-153,135,33,8,-70
78,-34,196,0,-181,-165,59,-8,6,-28
187,81,-14,-65,-90,-71,4,0,57,86
89,21,-56,53,4,92,56,-52,-32,103
-113,0,249,293,19,117,49,-79,-123,-113
-188,11,228,184,-33,198,125,-63,-142,-282
-148,17,16,-26,-66,202,210,-83,-117,-225
-41,34,-76,-118,-79,-15,-5,-10,28,-37
-14,-8,-102,-61,9,-214,-245,54,112,43
-48,-38,50,68,72,-142,-25,27,42,20
-96,-62,233,159,66,39,157,17,-71,-52
-117,-96,90,141,71,104,41,-27,-296,-136
-73,10,75,164,164,127,-93,-91,-209,-159
-27,59,148,234,237,-1,-188,-135,-186,-150
51,97,181,221,226,85,-262,-139,-123,-41
78,47,121,162,159,194,-383,-156,-187,29
8,-42,-111,1,20,122,-165,-63,-95,0
-41,-79,-232,-149,-124,-232,71,1,6,-55
-39,-78,-212,-216,-111,-127,63,-57,-28,-54
8,-33,-237,-249,-89,3,88,-82,-13,5
20,27,-41,-72,-50,27,158,-55,-24,9
40,32,145,81,-88,-97,42,158,43,49
49,-1,96,35,-117,-142,-60,122,35,91
92,-23,62,28,-78,-107,-106,-7,-4,130
113,-91,2,14,-102,-103,-182,-35,0,170
81,-170,-208,-94,-114,-44,-291,-14,57,187
14,-205,-480,-252,-89,36,-225,86,157,201
13,-92,-471,-312,-57,113,180,156,193,156
200,107,-275,-235,-97,67,460,160,212,192
280,163,57,-46,-83,-1,147,109,212,303
148,130,385,246,-32,4,-156,-48,71,178
-32,16,313,199,-57,61,-393,-159,-54,-87
-161,-126,-95,-141,-115,116,-414,-118,-53,-248
-268,-285,-427,-404,-183,304,58,-104,-134,-351
-301,-281,-581,-521,-64,706,824,-60,-158,-384
-120,-74,-308,-303,93,586,1489,124,-27,-172
-21,138,302,284,249,-115,682,138,0,-99
-141,121,557,564,258,-489,-559,-85,-83,-199
-144,117,522,532,113,-376,-854,-304,-146,-198
-146,32,237,253,9,135,-500,-263,-160,-201
0,-26,47,31,-143,-105,170,140,48,-55
258,129,112,60,-113,-289,337,244,170,156
241,219,203,149,74,-130,64,88,100,165
-21,163,235,202,131,-54,-65,21,27,-47
-164,69,177,140,45,-81,27,18,0,-167
-145,-21,22,2,-33,89,145,-30,-8,-156
-34,-92,-190,-178,-73,454,172,-125,-24,-47
72,-110,-400,-377,-100,700,359,-116,-16,44
118,-60,-597,-569,-38,689,583,147,136,144
100,42,-619,-489,130,146,305,257,148,75
70,129,-308,-154,218,-266,-115,55,16,-39
129,152,-72,-24,196,-338,-290,93,84,28
58,96,472,265,17,-589,-483,29,35,3
40,13,664,439,-194,-682,-406,-88,-6,11
72,-36,123,71,-225,-322,-118,-74,12,65
121,-45,-250,-231,-101,-56,76,-30,77,143
137,-66,-194,-166,51,189,186,-18,125,244
172,6,14,5,149,269,140,-52,134,290
44,-35,205,190,93,125,-8,-33,107,147
-126,-113,396,364,-9,-109,-47,46,6,-60
-143,-116,305,302,-68,-161,36,2,-98,-152
-56,-48,132,86,-155,0,143,-60,-77,-62
47,48,4,-32,-177,87,-29,-29,20,51
114,61,-160,-91,-61,147,-357,2,105,129
163,46,-177,-82,157,31,-462,11,111,185
82,-57,-219,-92,163,-133,-171,118,127,169
-16,-36,-4,92,72,-309,-25,97,60,15
-53,109,322,287,-23,-282,-146,-44,-49,-133
-9,125,280,154,-126,-206,-145,-44,-35,-81
137,63,109,-10,-143,-117,-83,-97,-26,40
269,23,-27,-89,-135,-23,-45,-168,-23,126
207,-45,-92,-63,-47,95,94,-130,19,159
110,-47,-57,22,52,121,116,51,71,128
3,18,19,73,95,-70,-99,243,46,-72
-146,-6,75,115,125,-71,-126,73,-114,-287
-175,8,89,131,113,-7,-93,-56,-192,-302
-137,53,50,86,54,-19,-55,-43,-176,-196
-131,28,-13,3,-26,-8,38,-2,-139,-194
-111,-3,-66,-48,-61,-21,-2,-35,-115,-196
-117,13,-28,-8,64,-46,-249,-139,-188,-189
-80,26,-29,7,224,9,-331,-177,-182,-64
-18,25,-14,37,216,207,-45,-109,-48,48
65,90,38,71,70,244,184,50,101,113
6,37,-10,-65,-173,109,190,88,97,83
-39,-17,-55,-128,-205,-113,191,36,43,15
-16,-16,-45,-58,-23,51,33,22,24,3
19,19,1,29,92,77,-164,-26,-28,6
54,86,69,59,110,-1,-355,-164,-162,-43
-39,0,-46,-131,-69,-91,-317,-185,-215,-157
-185,-59,-117,-230,-196,-74,-242,-139,-142,-229
-145,-3,-21,-106,-113,-6,219,-29,12,-101
-85,-9,18,29,33,14,672,117,137,61
-151,-134,-157,-75,80,20,316,71,146,60
-45,-150,-260,-183,138,-12,115,4,171,181
294,-23,-273,-216,109,91,172,88,295,473
455,72,-88,-52,27,178,104,239,378,637
248,14,86,81,-65,174,-3,200,198,385
236,37,101,-14,-213,-174,109,53,-31,199
209,34,46,-86,-108,178,265,47,-83,102
-123,-93,-106,-133,10,446,448,93,-94,-202
-334,-110,-41,4,89,177,367,51,-193,-461
-327,-38,151,213,152,-165,-152,-14,-214,-437
-208,27,112,156,125,-213,-194,23,-137,-273
-79,152,232,232,73,-172,-156,-18,-126,-182
-41,113,205,187,19,-141,-243,-98,-107,-139
-4,33,100,115,19,-208,-199,-98,-52,-74
30,17,42,58,9,124,-2,-90,-39,-56
-70,-64,-116,-116,-30,825,326,-111,-107,-155
-189,-149,-408,-393,-146,920,575,-167,-170,-260
-168,-130,-536,-515,-171,590,840,-136,-105,-211
-7,1,-268,-292,-5,54,423,-43,64,-14
71,99,136,135,158,-449,-428,-76,104,75
90,100,249,301,72,-573,-323,-67,99,90
47,34,5,83,4,-441,-133,58,92,76
24,7,-138,-50,37,-379,3,272,161,87
18,22,21,57,56,-184,53,173,136,89
-16,-35,121,84,55,9,-197,-7,-3,38
-91,-103,-128,-61,86,45,-288,-120,-130,-61
-78,-62,34,69,52,-245,-343,-155,-130,-79
-46,-23,319,293,1,-232,-302,-163,-93,-47
-22,-33,213,140,-178,-264,-235,104,67,44
-66,-121,-3,-112,-315,-306,-341,173,85,52
-94,-145,-83,-123,-185,-250,-532,-24,-22,8
-70,-97,-85,-69,-43,-86,-325,-76,-60,-8
36,13,-76,-52,-10,38,231,83,32,101
110,71,72,40,-32,-9,439,205,110,167
139,81,183,133,-8,-47,192,131,76,163
130,73,140,125,64,-15,-84,32,33,155
132,82,15,9,83,22,-164,-35,1,162
161,109,-69,-70,41,-4,-163,-68,-22,159
150,52,-111,-109,7,1,-86,-17,11,196
115,-17,21,-62,-7,-1,25,77,94,281
105,-48,113,0,-36,-9,57,68,91,328
18,-62,52,14,48,63,34,2,39,215
-152,-86,49,65,106,133,42,-11,-12,-34
-129,-21,129,87,29,69,24,-49,-82,-185
-3,69,113,18,-94,-27,-36,-65,-104,-183
8,70,58,-43,-149,-100,-233,-64,-68,-134
-48,-11,-81,-104,-48,-53,-506,-144,-119,-116
-126,-78,-127,-87,174,48,-846,-307,-362,-180
-65,40,80,62,331,261,-614,-359,-157,-70
-17,122,162,98,331,423,-180,-219,123,63
22,97,-14,-123,48,421,409,162,355,214
20,-23,-354,-431,-354,55,815,403,373,195
-144,-245,-498,-420,-386,71,1049,292,99,-53
-132,-235,-99,66,-134,251,996,88,-119,-127
42,-49,109,220,14,220,576,41,-90,-23
139,77,19,46,56,-92,238,140,48,105
294,175,-7,-25,32,-367,-429,94,109,238
303,197,25,-26,13,-409,-403,38,65,184
114,155,128,83,74,-187,-122,15,-74,-43
-104,89,278,253,41,22,20,-25,-160,-230
-237,-7,248,190,-79,260,181,-90,-204,-296
-258,-102,11,-61,-171,231,246,-140,-219,-291
-176,-124,-296,-293,-145,130,99,-63,-70,-113
115,25,-621,-522,-126,-56,-226,174,242,189
297,169,-763,-731,-112,212,-32,294,357,305
247,162,-661,-658,-36,358,364,297,303,284
33,47,-136,-204,43,173,426,115,142,128
-145,-56,416,263,109,-97,139,-110,-28,-26
-215,-158,347,274,1,-129,-77,-121,-8,-56
-69,-141,128,92,-119,161,279,28,118,42
147,-5,19,-44,-82,322,607,89,107,204
168,84,210,176,-2,-110,112,65,43,200
31,24,653,624,3,-717,-845,-28,-24,51
53,-68,563,570,-102,-769,-873,-100,5,32
182,-72,177,271,-121,-486,-446,-116,76,182
116,-7,105,195,-7,-146,-218,-197,9,119
-29,43,169,175,83,94,-22,-73,41,29
-143,50,30,45,42,125,106,268,164,-73
-196,-5,-147,-91,10,136,187,256,113,-192
-144,-40,-223,-43,140,150,98,88,-11,-200
-160,-66,-37,114,206,66,-100,-45,-133,-196
-215,-129,146,170,145,-47,-246,-108,-205,-251
-232,-153,88,109,97,-110,-185,-124,-301,-305
-152,-61,115,128,98,-117,-95,-129,-350,-305
-32,45,155,131,42,-92,-122,-124,-288,-214
-26,104,133,74,0,-93,-93,-78,-180,-210
-72,67,87,26,-40,-31,-14,-87,-147,-249
-71,39,97,72,-20,-14,-39,-156,-173,-222
-42,8,71,65,37,63,-99,-213,-177,-163
-16,-20,-6,-16,38,137,-82,-201,-146,-111
64,15,-48,-106,-37,-32,-51,60,14,20
126,59,-87,-150,-74,-147,4,185,148,143
64,22,-142,-168,18,-24,93,122,132,140
-2,-70,-220,-157,98,84,176,88,123,104
-35,-68,-86,29,116,36,58,2,64,47
-32,-48,12,122,81,-1,-95,-45,40,6
15,-41,-8,46,11,3,-129,-46,51,19
132,22,25,-10,-61,-71,-93,-26,73,105
163,53,-21,-95,-185,-122,-42,48,172,208
84,30,-81,-127,-191,-24,15,93,203,157
2,-6,-127,-108,-88,67,3,50,176,81
-3,-56,-177,-94,-41,110,-9,26,159,82
-32,-117,-189,-96,-112,56,-316,-15,112,55
-59,-181,-228,-176,-218,-87,-819,-118,-8,18
-57,-138,-142,-150,-181,-132,-902,-233,-110,-13
31,25,43,66,68,87,-9,-156,-130,-12
195,200,211,246,251,156,819,54,-35,128
195,261,245,249,263,30,348,45,-12,143
-1,122,98,121,211,7,359,94,-49,-39
-167,-82,-86,-34,80,9,464,95,-150,-228
-158,-133,-154,-96,61,50,293,62,-133,-211
-67,-71,-78,-22,197,46,115,18,-61,-100
46,37,106,144,368,60,-59,-67,-65,-5
99,104,209,224,376,346,-206,-205,-120,8
-53,34,105,102,83,668,-394,-317,-232,-122
-349,-264,-302,-336,-429,500,-108,-265,-318,-310
-416,-391,-551,-557,-591,-137,483,-92,-237,-302
-77,-137,-376,-305,-176,29,714,83,0,-19
307,163,-135,-69,24,70,732,261,220,262
264,202,-6,18,6,-68,486,233,240,232
101,140,314,193,-12,-272,-4,170,170,82
63,97,370,246,-64,-428,-371,73,78,17
76,50,139,97,-76,-328,-255,27,47,21
66,20,20,3,-70,-167,-142,49,82,33
86,41,35,17,-36,-97,-101,25,76,47
141,56,36,26,-7,-55,70,31,86,154
94,40,25,11,-12,4,240,56,115,191
-33,12,13,-10,-20,125,372,44,112,97
-122,-7,25,-17,-43,146,366,41,57,-16
-132,36,60,2,-43,98,110,14,13,-83
-12,82,56,27,38,-79,-253,35,73,28
194,110,13,20,74,-126,-453,19,94,200
234,113,-69,-76,13,-49,-241,-12,60,186
58,16,-201,-215,-37,254,185,37,74,72
-212,-145,-441,-322,-53,790,557,-54,-51,-170
-253,-140,-335,-201,-52,984,620,-304,-199,-249
-52,4,-96,-44,40,518,108,-390,-161,-64
100,60,-204,-124,163,-90,-361,-31,41,138
177,63,-151,-150,39,-810,-364,565,308,290
121,-37,-121,-199,-135,-740,-270,450,265,231
64,-46,89,38,-84,-463,-183,148,128,141
39,-75,107,160,25,-231,-109,35,55,99
79,-48,55,74,14,-117,-98,28,81,159
3,37,358,294,31,-105,-157,-37,55,100
-89,62,412,394,104,-104,-279,-64,-19,-36
-41,133,226,224,88,-115,-297,-11,-33,-52
107,116,-39,-9,-69,-118,-138,35,20,74
159,30,-262,-116,-104,-31,67,75,73,100
82,40,15,23,-50,-57,26,20,46,34
-9,61,302,146,-22,-11,-106,-106,-35,-42
-142,-10,189,63,-19,102,-46,-94,-24,-117
-37,18,28,-60,-51,-89,18,142,120,67
110,111,-42,-123,-22,-184,-67,140,22,230
-45,55,-52,-28,158,19,-83,-20,44,116
-228,-131,-117,25,340,153,-200,-54,40,-147
-71,-108,-115,21,264,178,-506,-156,-56,-240
194,44,176,232,88,205,-704,-282,-129,-103
213,52,199,235,-119,205,-442,-329,-142,20
14,-41,-37,70,-187,38,-194,-252,-134,-79
-161,-30,-64,85,3,21,-411,-188,-204,-326
-184,51,58,143,120,-1,-118,-60,-246,-416
-100,84,127,77,80,-26,928,228,-172,-349
-100,-63,-98,-118,-17,-67,948,244,-307,-279
5,-51,-262,-209,18,-6,414,112,-208,-103
99,0,-338,-280,49,115,307,104,5,57
68,0,-218,-204,66,126,230,94,62,86
-25,-25,154,68,105,-18,10,44,63,26
-82,-20,255,237,165,-81,-185,15,39,0
-68,17,224,239,147,15,-144,-6,19,-9
-12,24,145,76,-14,54,6,-1,16,-1
68,11,101,35,-114,-108,25,-26,28,121
46,-43,68,36,-118,-84,40,-45,47,91
-102,-133,-22,-29,-90,146,88,-88,20,-66
-149,-149,-50,-59,19,374,110,-187,-35,-128
-88,-48,15,-29,70,404,188,-183,-30,-99
-18,123,186,119,107,187,-7,-132,-8,8
-88,55,134,71,25,-31,-180,8,-73,-24
-230,-74,17,-15,-183,-357,157,173,6,-122
-180,-68,-14,5,-135,-2,452,118,80,-159
4,-49,-80,-10,-75,191,410,-11,19,-75
46,-17,-37,25,-46,-9,87,-19,49,11
11,-9,10,66,6,-294,-321,95,117,64
-4,-36,-27,34,17,-229,-271,135,135,59
-7,-35,-45,2,-27,-61,4,105,89,15
35,27,30,25,11,45,74,14,9,16
72,77,83,68,96,53,-57,-77,-64,25
53,69,80,64,103,61,-230,-108,-84,8
1,21,11,8,32,-51,-200,-71,-110,-36
-16,-23,-59,-72,-58,-66,-29,43,-63,-27
0,16,-27,-70,-57,-71,-16,47,-45,16
20,70,8,-39,-8,-65,-145,11,-21,60
5,-3,-45,-63,-41,-89,-178,-53,-6,89
16,-50,-70,-77,-88,-159,-135,-136,7,123
27,-61,-95,-102,-89,-30,-37,-150,13,104
-11,-42,-165,-65,-24,97,132,-57,17,21
5,18,-190,-30,24,-1,105,237,123,18
97,70,-207,-78,-2,-88,31,198,103,84
137,71,-204,-85,-8,-22,18,44,26,100
89,36,-37,-42,-28,-8,-10,10,29,85
26,1,175,101,-53,-65,-93,-29,28,29
7,-75,138,118,-78,-93,-118,-47,16,17
26,-95,39,19,-65,-44,-70,-23,44,36
83,-56,-4,-11,-37,4,-15,-41,59,115
47,-41,-44,-10,-15,103,21,-83,29,102
-56,-59,-17,-21,12,410,190,-121,-4,20
-100,-53,-82,-106,16,599,432,-93,-16,-75
-52,-92,-330,-354,-52,435,835,160,112,-46
23,-83,-512,-521,-41,194,690,307,218,77
168,14,-610,-614,-50,175,51,292,251,211
210,142,-209,-206,2,117,-14,108,102,180
75,55,-41,84,75,55,155,-27,-15,67
-76,-108,-200,-59,0,-166,-322,-16,-31,-20
-196,-131,98,119,-38,-509,-1215,-141,-160,-136
-244,-121,411,406,16,-637,-1284,-339,-285,-229
-212,-72,591,546,136,-214,-309,-294,-287,-253
-63,-49,414,347,2,-46,221,-68,-73,-83
90,-37,179,84,-187,-207,-244,-77,-4,76
250,72,158,15,-233,-291,-478,-278,-101,131
271,139,195,101,-1,-59,150,-105,-56,186
300,212,255,178,181,-58,700,243,136,325
223,232,288,214,197,54,310,154,117,195
81,202,257,185,138,181,27,116,97,10
-89,139,202,122,51,207,11,37,-81,-215
-86,137,183,132,-15,-143,-33,30,-168,-273
-89,85,98,112,62,-53,-118,35,-135,-266
-100,15,12,43,50,-3,-5,46,-82,-166
-139,-56,-83,-85,-49,-83,282,135,4,-44
-177,-67,-75,-109,-59,-86,216,111,8,-53
-40,8,-60,-98,-22,-64,34,14,-10,4
143,12,-96,-104,-44,-44,-61,-11,11,134
255,6,-99,-111,-45,-26,-51,38,73,256
237,-3,-68,-73,11,15,-16,44,68,245
31,-59,15,39,76,77,10,9,-25,27
-176,-134,-33,-21,63,171,59,21,-24,-123
-256,-111,-42,-24,66,174,61,-9,-73,-270
-148,-22,59,84,67,41,-34,-59,-128,-341
36,59,74,44,13,-58,-136,-43,-86,-182
38,62,-1,-18,-21,-70,-91,5,-38,-26
-125,10,-50,-77,26,-5,12,42,-22,-113
-184,-13,-140,-111,112,99,37,26,-62,-206
-73,-29,-224,-152,130,119,32,-11,-58,-129
40,-43,-211,-178,46,74,53,61,61,10
47,-31,-68,-129,-81,157,161,68,64,25
-11,-49,-3,-51,-113,374,262,-51,-60,-60
-161,-120,54,80,-66,363,377,-118,-133,-190
-246,-177,110,170,-24,161,218,-126,-104,-248
-165,-114,83,143,105,-96,-298,-235,-126,-189
28,11,83,92,171,-275,-342,-219,-61,-22
194,147,176,150,128,-305,-371,-80,89,177
156,127,95,78,29,-65,3,150,168,204
94,54,-128,-167,-151,-132,280,235,187,185
147,60,-180,-213,-188,-266,202,146,163,200
145,49,-141,-135,-64,-63,27,43,111,182
61,-18,-134,-138,-80,32,186,45,58,108
-67,-79,53,15,-86,-41,326,4,-40,31
-203,-112,114,148,6,37,149,-122,-146,-144
-211,-62,-76,49,26,131,7,-170,-128,-213
-7,0,-165,-61,3,154,-147,-106,-56,-16
224,83,-118,-101,-63,-149,-275,203,137,234
211,67,-248,-297,-84,-226,-141,258,229,281
119,26,-459,-501,-47,25,-14,169,217,199
135,57,-453,-458,9,90,-85,94,189,181
105,77,-10,-73,27,88,-162,-54,47,111
-105,-9,514,459,-9,-10,-135,-89,-88,-107
-250,-104,517,501,-78,-172,58,64,-19,-173
-161,-73,341,256,-57,-176,33,44,66,-61
-129,-76,204,194,71,132,157,-105,-16,-52
-155,-75,103,165,57,500,353,-221,-156,-129
-198,-77,53,68,4,579,487,-229,-209,-217
-159,-15,58,35,-10,52,121,-135,-131,-162
-43,28,26,40,94,-359,-722,-56,1,-28
30,41,-120,-59,87,-415,-722,-30,18,-3
71,100,-205,-157,74,-243,198,105,55,14
73,98,-161,-109,74,-68,317,96,71,19
8,60,140,94,5,-77,31,1,36,-13
1,-6,301,151,-91,-114,-53,-34,27,10
99,37,146,37,-139,-149,-84,-29,59,116
122,69,-22,15,-105,-123,-91,-19,89,172
74,18,-146,-30,-72,-85,-73,28,135,176
12,-17,-192,-117,-54,-21,-22,95,175,154
17,-13,-37,-72,-66,-14,-20,50,118,127
74,-6,84,29,-88,-41,-55,6,75,155
107,-16,66,20,-93,-41,-49,44,101,236
126,-36,18,2,-82,-28,-30,65,102,270
73,-29,40,39,-29,14,-20,49,34,106
-30,-23,64,64,23,87,2,50,-52,-94
-70,7,64,68,53,143,36,7,-149,-133
-137,15,37,61,123,194,70,-25,-196,-213
-167,-40,-15,11,94,135,68,2,-133,-247
-31,-22,-9,-23,9,-11,-8,-30,-109,-156
31,7,-10,-48,-9,-72,-41,-39,-101,-133
7,4,-50,-82,-35,-74,-100,-13,-40,-113
-39,-49,-85,-124,-81,-73,-371,-48,-19,-113
-42,-100,-118,-124,-34,-106,-642,-119,-41,-38
95,-27,-82,-105,71,-15,-542,-170,-40,169
149,132,179,123,185,226,66,-107,8,216
67,190,263,217,167,359,368,9,55,105
-87,90,123,61,-19,139,133,12,5,-79
-187,8,0,-18,-99,157,358,25,-43,-218
-297,-106,-106,-109,-110,481,690,13,-149,-322
-195,-119,-114,-165,-150,321,697,-63,-164,-188
18,-35,-22,-84,-94,-21,554,-61,-76,74
197,54,29,18,2,-392,19,21,61,235
247,45,-88,24,1,-433,-208,65,146,271
137,-4,-51,34,53,-228,-224,61,18,166
-25,12,26,46,74,-159,-307,96,-89,-94
-113,-18,5,40,84,-105,-163,97,-109,-153
-84,-21,39,60,124,-2,-85,-20,-144,-139
-104,-18,9,46,140,105,40,-58,-72,-168
-110,2,-72,-58,99,230,237,-5,9,-120
-40,57,-141,-175,16,293,353,48,89,-7
66,77,-191,-221,-30,208,271,44,141,93
185,120,-135,-170,-39,-92,-191,24,162,152
160,66,-187,-215,-12,-145,-360,15,155,101
7,-84,-157,-174,-4,212,0,9,100,-10
-161,-154,160,103,9,434,368,-91,-90,-191
-101,-82,183,157,24,194,606,24,-115,-191
51,25,56,42,36,-212,103,127,31,20
107,35,88,67,-24,-386,-282,82,61,131
99,-35,74,106,-79,-265,-270,96,44,118
63,-72,-46,-28,-112,-47,-187,9,-12,54
84,2,-65,-103,-133,-207,-103,-10,41,94
33,1,-87,-76,-24,-98,-58,29,101,84
-65,-22,63,132,165,99,11,-63,-27,-64
-156,-36,254,464,437,201,-91,-63,-138,-179
-127,-2,262,429,362,115,-257,16,-106,-143
-89,49,165,229,174,121,-229,-56,-111,-136
-89,30,63,58,-58,-37,-182,1,-44,-115
58,43,-114,-130,-216,-188,-181,40,40,21
271,48,-482,-463,-258,41,-16,78,105,182
416,98,-696,-651,-250,-41,106,171,227,357
336,100,-499,-453,-82,-4,123,232,273,384
145,48,-25,-18,23,-31,60,129,195,294
-100,-108,399,322,-4,-103,-181,-95,30,94
-208,-218,266,178,-97,-127,-474,-230,-8,28
-173,-177,35,40,-57,-92,-586,-269,36,-2
15,-49,38,144,28,-19,-191,-155,15,17
121,38,173,266,73,75,458,-88,-139,-43
60,34,169,179,50,25,417,109,-105,-62
-57,5,66,43,-81,-114,296,250,-22,-154
-60,87,225,190,-58,-119,-8,44,-90,-225
-30,93,209,174,-16,-75,-149,-66,-64,-149
-26,3,57,78,14,-26,-44,-9,23,-23
-114,-41,41,99,79,139,100,25,-16,-123
-161,-44,45,78,43,425,282,-84,-146,-251
-140,-61,-14,-17,-44,580,459,-145,-157,-202
-110,-56,-67,-62,-48,462,530,-97,-95,-65
2,34,15,32,80,119,171,-35,2,108
96,82,81,137,213,-189,-623,-84,14,194
79,8,18,89,213,-467,-951,-94,-106,155
-77,-81,-91,0,190,-341,-810,-52,-194,-42
-158,-123,-162,-114,-14,-135,-583,-33,-162,-228
-155,-110,-154,-160,-138,86,-339,-68,-163,-273
-115,-4,5,-48,-126,-15,457,77,-92,-249
27,150,131,58,-64,-223,640,185,-13,-106
118,161,114,34,-32,-145,186,111,-9,5
42,82,56,7,-33,-88,67,59,-24,-7
-37,-14,-8,-12,-10,-39,72,54,-7,-49
4,-72,-88,-54,-18,-14,85,88,28,18
53,-67,-128,-94,-30,-8,94,66,48,114
97,-39,-144,-127,-52,65,260,38,67,213
94,-40,-142,-136,-64,203,454,38,98,228
39,-48,-92,-77,-49,210,396,74,151,165
59,-55,-30,-19,-2,47,51,100,186,193
146,-50,-31,-12,8,-164,-370,97,192,218
116,3,-29,-13,-10,-175,-276,4,87,106
5,23,-17,-12,-10,219,31,-73,-6,-43
-27,9,-108,-43,-5,352,123,-125,-41,-88
-22,-31,-190,-68,-12,135,119,-152,-40,-72
-9,10,-83,-38,23,-185,-120,-63,18,-6
-55,40,-109,-48,-5,-376,-310,86,103,-49
-50,63,-91,1,-6,-269,-2,137,101,-106
-1,105,11,77,23,-112,175,166,99,-82
82,115,87,59,6,-39,113,66,79,-29
105,57,31,2,-13,186,238,-3,18,51
-1,-70,-44,-102,-49,451,356,-80,-51,46
-88,-97,-61,-123,-64,304,252,-138,-51,-13
-22,-28,30,-40,4,-58,-179,-146,10,31
45,39,8,-44,63,-265,-370,-99,34,37
133,143,18,-37,131,-387,-217,194,156,55
168,167,27,-14,162,-205,-113,178,123,32
124,131,163,93,159,34,-67,0,-21,-8
-8,-21,245,153,69,119,181,-34,-106,-70
-106,-156,5,56,29,112,426,-3,-130,-126
-53,-86,-153,-118,32,229,392,59,-73,-86
18,-18,-132,-152,0,210,10,71,-50,-22
39,0,-43,-74,-10,72,-385,11,-84,-22
-23,-74,41,-6,-53,-168,-262,-8,-103,-39
-68,-149,80,93,10,-116,-20,0,-78,-72
0,-100,-6,27,21,-64,25,-1,-46,-22
75,8,-7,13,57,-93,-190,-16,-9,30
70,49,107,104,80,-189,-606,-126,-14,83
0,18,232,199,108,-125,-761,-246,-40,64
-4,11,255,216,73,55,-596,-247,-23,46
52,20,159,98,-26,260,179,31,70,91
0,-89,-111,-141,-233,6,613,230,177,94
48,-95,-243,-272,-231,-170,377,269,310,244
164,-14,-303,-297,-68,18,170,144,240,305
125,20,-266,-227,69,145,107,3,109,168
-99,-27,37,93,146,127,26,-88,17,-53
-62,-34,290,311,48,-53,-102,-186,-19,-88
161,28,152,66,-80,-79,-124,-168,51,60
288,80,-136,-221,-120,-15,-26,31,188,296
186,102,-354,-392,-22,208,175,183,213,278
-66,38,-430,-402,27,380,301,223,49,-42
-356,-44,76,67,29,138,104,134,-202,-420
-465,-112,528,484,-1,-157,-361,-134,-446,-570
-398,-127,382,449,-21,-241,-504,-253,-451,-454
-303,-94,187,282,-6,-98,-40,-173,-330,-330
-195,-30,200,185,65,81,665,45,-149,-226
-142,-4,126,90,60,19,460,52,-74,-145
-42,-5,41,-28,12,-83,15,4,-29,-30
13,-6,4,-65,-35,-106,-140,14,-28,13
61,52,121,56,21,-7,-134,-54,-66,50
82,66,84,46,152,378,-72,-141,-86,104
-86,-34,8,34,205,718,-19,-178,-97,-44
-144,-71,-42,41,110,647,222,-99,-64,-117
13,-42,-132,-65,-174,21,296,26,-76,-21
64,-16,-67,-86,-319,-679,-112,80,-32,38
40,-4,-58,26,-108,-493,-81,42,6,56
-106,-144,-140,12,51,55,298,-1,3,-11
-158,-182,-160,-65,37,231,416,-56,37,-63
60,0,-14,-62,-4,61,169,-173,5,14
172,127,-4,-94,-7,-131,-228,-124,65,87
97,62,-183,-267,-79,-237,-325,194,258,168
15,-25,-289,-353,-129,-255,-186,307,282,117
-81,-85,-179,-205,-80,-199,-204,63,110,-20
-83,-96,151,79,-17,-109,-199,-163,-143,-32
14,24,259,163,4,120,193,-75,-35,43
53,86,34,-26,-47,140,320,301,151,130
15,32,-158,-164,-110,494,516,284,149,94
-27,-37,-167,-228,-140,726,675,41,18,36
21,-60,-185,-241,-120,385,713,-15,-25,54
133,-4,63,94,43,-223,-15,47,-32,142
203,55,161,260,109,-646,-780,37,-1,172
193,140,271,348,175,-555,-588,-32,-29,120
38,151,328,348,235,-271,-241,-84,-123,-46
-145,30,137,155,206,-44,26,-58,-123,-226
-192,-29,-5,24,111,32,29,-61,-98,-224
-153,-61,-155,-51,-45,-110,-227,-72,-67,-161
-230,-200,-359,-177,-236,-158,-563,-151,-97,-234
-284,-231,-309,-213,-324,-135,-578,-308,-182,-311
-100,-76,-17,-47,-158,-70,-164,-262,-85,-120
277,151,185,90,68,-13,-27,-71,144,299
513,271,135,17,181,-231,-47,204,363,632
421,229,-25,-131,173,-168,201,343,353,524
272,209,-164,-230,89,89,172,283,276,286
77,139,-16,-26,51,364,80,123,81,9
-199,35,157,129,-82,125,176,5,-153,-365
-197,17,81,-12,-103,-83,193,53,-116,-329
-26,46,-67,-182,-32,-4,87,76,-34,-108
-16,28,-104,-117,67,22,88,55,-9,-61
-141,-46,85,178,89,-30,-166,-62,-59,-115
-164,-167,-39,102,-22,-72,-561,-181,-92,-125
-76,-137,-190,-88,19,-20,-656,-215,-62,-60
-28,-80,-103,-73,156,138,95,-75,2,-4
15,6,219,127,119,37,682,119,88,57
82,130,322,338,66,-93,49,-2,35,68
74,103,216,198,1,22,-152,-99,-56,23
97,37,-95,-177,-212,-212,79,13,36,112
188,79,-204,-278,-210,-168,103,66,145,261
174,58,-63,-122,-140,-43,106,67,179,249
55,-24,-44,38,-33,3,93,53,162,156
-33,-21,36,174,9,-12,20,-1,68,34
-116,-37,288,276,-3,-26,-22,-49,3,-84
-126,-70,287,223,-34,-66,-72,-102,-37,-76
-67,-45,111,72,-30,-58,-64,-80,-15,4
22,3,50,5,31,-11,-43,-56,11,67
39,-11,39,29,61,39,-48,-43,26,67
69,-40,18,50,63,47,-75,-35,19,105
102,-6,28,49,79,35,-90,-45,-36,81
-6,9,37,47,25,-12,-35,-42,-108,-92
-154,-43,-27,-29,-95,98,222,18,-86,-186
-207,-80,-71,-95,-136,286,422,53,-23,-169
-159,-91,-95,-94,-91,298,417,12,-9,-114
-97,-110,-123,-87,-35,318,346,-48,-62,-73
-127,-134,-159,-109,-10,343,83,-7,-37,-120
-100,-111,-165,-141,-33,283,214,-29,-23,-126
176,51,-30,-58,-31,-33,250,-87,0,84
379,156,57,8,37,-299,-312,-85,62,280
211,36,-115,-114,97,-239,-396,-97,62,222
-101,-84,-383,-337,60,-26,83,77,110,-9
-148,-92,-535,-474,2,278,484,126,88,-76
-178,-109,-358,-231,42,834,758,-183,-145,-163
-200,-105,63,172,157,952,671,-121,-167,-176
-179,-72,338,438,267,389,-16,62,-64,-142
-98,-29,381,383,-31,-458,-445,26,-30,-126
146,107,222,121,-319,-1157,-602,110,48,-11
199,122,101,13,-220,-843,-641,31,-42,-44
86,6,-17,12,-48,-335,-387,-15,-51,44
65,-48,-100,13,-38,-183,159,104,97,173
117,31,53,57,-30,-175,281,170,164,112
140,69,114,39,-48,-161,-16,146,169,52
209,81,94,23,-20,-123,-285,33,155,154
361,120,66,1,3,-89,-357,-97,68,402
321,159,82,29,44,-72,-239,-71,-10,330
51,106,23,54,87,40,83,50,-27,4
-123,52,-6,-36,72,115,160,46,21,-108
-109,101,-123,-188,48,77,26,32,88,-91
-94,144,-261,-311,64,77,-30,64,105,-88
-100,159,-267,-291,85,69,-28,74,91,-95
-141,114,121,86,51,-49,-164,-85,-129,-205
-306,-74,509,473,-60,-228,-370,-282,-364,-380
-324,-216,178,252,-161,-198,-294,-241,-328,-376
-210,-133,-96,22,-62,84,15,-157,-228,-339
-147,-16,69,96,62,172,262,-42,-98,-259
16,75,124,145,70,27,201,93,33,-92
50,32,69,74,5,-36,-219,-24,-21,-70
-35,-49,-6,13,16,-102,-584,-153,-64,-93
-46,-98,-47,-9,130,29,-425,-179,-60,-42
119,19,47,79,189,223,235,-25,68,149
211,130,106,109,139,311,617,138,178,249
154,24,-51,-68,-26,88,457,122,174,275
199,-46,-250,-218,-71,-186,370,110,234,439
272,22,-390,-276,53,158,270,92,250,530
162,119,-333,-270,90,417,67,100,227,332
-100,35,-324,-247,-7,327,-91,185,207,31
-174,-17,3,30,-89,-134,-235,36,11,-136
-134,-43,272,182,-72,-140,-175,-28,-90,-221
-87,-131,136,51,-153,-216,124,81,-24,-110
92,-119,-71,-109,-171,-190,105,32,-10,120
200,-31,-234,-234,-80,-56,49,-3,-13,200
135,57,-196,-150,-1,41,87,-28,-48,64
97,66,-121,-67,-7,174,256,6,-12,-1
115,61,107,25,-66,188,300,4,31,112
-42,14,407,241,-23,139,191,-111,-47,26
-132,35,322,243,89,-66,-146,-80,-45,-59
-137,101,168,142,178,-188,-282,22,-5,-102
-164,47,56,37,98,-122,-93,55,-2,-215
-133,14,14,-3,20,-22,20,-16,-88,-251
-85,37,193,183,89,7,-55,-186,-200,-263
-169,-33,217,221,42,250,53,-306,-235,-311
-342,-221,-68,-20,-112,657,334,-408,-315,-423
-365,-288,-237,-195,-195,633,606,-416,-313,-391
-138,-102,-117,-120,-124,270,561,-183,-116,-133
160,135,59,-3,-47,-171,-62,334,246,179
270,174,-34,-108,-104,-603,-414,543,372,288
255,124,-229,-255,-74,-381,-123,312,260,255
186,39,-362,-328,-10,105,151,176,181,211
28,-83,-260,-200,-19,321,332,76,54,69
13,-80,43,-22,-112,56,240,64,55,79
26,-12,314,225,-79,-384,-341,29,108,119
-85,-14,389,382,11,-501,-642,-95,0,-17
-91,0,236,255,28,-352,-361,-18,-26,-70
-45,31,124,88,24,-160,-137,31,-45,-73
-83,-7,52,63,38,-7,-61,14,-81,-57
-75,-35,-26,22,-5,275,16,-24,-79,-16
-77,-75,-101,-57,-46,373,107,-46,-85,-50
-147,-142,-88,-43,23,207,204,-47,-107,-125
-75,-34,-30,-14,54,-99,-24,32,-28,-57
30,75,52,-5,-58,-437,-588,43,19,0
-16,0,37,31,-106,-399,-622,-39,-46,-68
-32,-134,-55,41,14,-63,-147,-62,-91,-69
76,-102,-123,-35,41,158,528,-13,-34,48
122,7,-67,-75,-3,157,514,24,74,148
133,112,47,-10,35,97,40,-54,93,181
141,164,-2,-6,192,68,-343,-121,13,145
64,54,-148,-70,226,-33,-290,111,39,76
197,-24,-349,-305,56,3,98,279,202,267
412,23,-458,-503,-138,-24,-12,199,288,491
331,18,-337,-378,-235,-143,-514,66,251,485
126,-109,-300,-197,-192,-155,-624,13,185,390
52,-111,-245,-131,-114,-45,-150,56,184,313
-4,67,177,165,-16,-9,588,176,165,114
-91,107,545,452,15,-99,405,83,3,-86
-45,80,318,281,11,-143,39,-9,-70,-129
-33,75,80,73,161,-51,0,-22,-51,-126
-39,43,148,190,350,110,-19,-103,-95,-175
41,45,392,421,348,283,-154,-218,-131,-136
1,-41,321,324,55,363,-322,-272,-152,-136
-110,-94,61,45,-208,122,-388,-257,-172,-177
-217,-116,-150,-117,-252,42,-29,-114,-98,-186
-141,-70,-134,-175,-256,93,697,36,-24,-111
-2,-40,-92,-118,-123,340,960,68,20,51
52,58,56,107,42,80,367,89,80,92
62,144,62,145,37,-279,-386,77,27,20
-39,98,-237,-94,9,-220,-274,94,-61,-148
-96,49,-355,-253,71,-53,9,89,-91,-203
41,66,-496,-439,107,59,57,88,-4,-13
140,24,-545,-499,144,155,75,120,89,196
76,-63,-154,-133,190,103,40,-16,29,194
-97,-129,23,118,154,32,38,-153,-111,-35
-201,-120,131,142,16,152,101,-214,-228,-229
-211,-92,180,87,-92,348,103,-145,-238,-264
-150,-2,179,137,30,239,-137,57,-147,-217
-150,-9,339,321,122,186,101,67,-170,-279
-277,-174,249,269,60,407,566,10,-177,-268
-432,-269,32,95,-42,546,733,-36,-110,-250
-302,-182,-76,-52,-131,368,220,-221,-132,-199
35,37,-36,-64,-193,-25,-408,-275,-90,9
48,41,117,71,-78,-249,-1094,-302,-78,6
-97,-44,161,167,60,-287,-832,-251,-114,-121
-10,56,228,245,164,-397,-4,115,10,-64
96,123,196,152,6,-776,125,499,151,35
91,119,166,51,-143,-773,116,431,133,25
76,94,53,-43,-102,-385,15,208,63,21
136,117,-51,-129,-55,-183,-66,108,86,91
210,170,-98,-181,-39,-76,-62,94,162,201
162,143,-77,-61,49,-2,-41,19,149,202
-41,6,157,207,108,-38,-359,-180,-34,11
-123,-94,174,197,99,-40,-787,-315,-117,-89
-103,-113,35,70,201,91,-749,-339,-100,-116
112,63,144,157,282,154,-182,-103,12,77
229,180,227,223,228,151,342,179,81,163
36,-10,18,-16,-34,101,330,75,-39,-24
-62,-163,-168,-251,-219,114,99,-50,-101,-110
-18,-114,-115,-174,-127,384,-141,-225,-175,-110
-14,-58,-21,-43,-46,377,-29,-153,-180,-135
42,-41,-67,-107,-170,-143,523,239,15,-2
214,69,-3,-102,-128,-430,667,419,222,261
273,120,49,-29,-41,-333,146,279,201,302
254,128,0,-39,-83,-353,-92,200,180,249
196,139,-113,-136,-46,-160,-89,115,118,174
71,99,-236,-268,13,17,11,98,125,108
-14,21,-283,-282,48,39,139,140,149,99
-10,-14,-253,-266,10,90,248,150,144,83
81,39,103,9,-42,31,160,64,72,38
117,28,351,329,-56,-25,6,-64,-50,-45
135,41,112,166,15,31,-116,-119,-88,-84
181,44,-137,-57,106,25,-250,-25,-2,9
157,7,-109,-62,114,-6,-165,-26,-13,54
0,-12,275,149,54,-79,-2,-65,-92,-30
-137,-66,435,299,13,-142,46,-74,-110,-88
-162,-43,261,247,76,-15,-75,-115,-54,-63
-163,-33,-20,110,80,193,-196,-166,-30,-57
-90,-62,-205,-64,-76,67,-197,-232,-84,-79
15,-35,-268,-207,-148,-111,41,-138,8,70
-9,-48,-262,-250,-79,23,216,169,171,147
-18,-15,-277,-241,-35,-9,40,206,155,63
-30,4,-162,-146,0,21,-76,-67,-27,-36
-154,-87,14,-27,77,126,-31,-139,-84,-127
-127,-39,176,153,157,110,96,-95,-57,-114
97,71,277,194,83,-60,2,2,58,116
300,41,66,-46,-151,-228,-57,125,212,375
202,-118,-162,-230,-264,-24,211,239,272,410
9,-160,-155,-206,-161,358,352,127,140,241
-26,-68,107,31,-89,215,300,-29,-30,36
24,-4,328,246,-3,-161,-63,-55,-55,-1
-45,-103,147,185,137,-142,-291,-84,-90,-55
-201,-218,-132,7,167,312,21,-19,-86,-214
-204,-156,-229,-205,15,605,132,-70,-125,-203
-28,-16,-328,-388,-144,473,98,-78,-89,-67
127,56,-408,-474,-132,116,-19,0,3,-5
121,30,-291,-310,19,-38,398,83,39,37
2,56,247,244,205,-116,313,51,17,5
-214,2,498,494,142,-176,-41,-41,-75,-213
-279,-2,348,406,161,-211,44,106,-33,-236
-43,110,286,336,312,-180,-72,121,-10,7
86,118,279,296,315,-16,-304,-76,-27,133
-94,-30,136,181,142,99,-499,-112,-67,-64
-293,-220,-114,-58,-101,78,-618,-152,-203,-292
-180,-216,-202,-197,-313,-354,-535,-146,-204,-222
-93,-109,-102,-151,-265,-269,-390,-151,-124,-147
-81,-15,-46,-130,-187,-41,36,-19,-57,-130
-105,-12,-161,-161,-122,162,370,83,3,-137
55,82,-373,-245,55,314,572,102,111,39
357,244,-446,-340,176,150,660,247,283,327
483,292,-381,-423,24,-280,212,359,369,448
332,194,-173,-378,-167,-370,334,334,294,322
37,98,489,249,-95,-276,250,87,100,89
-140,-5,690,539,-80,-238,-56,-85,-24,-31
-89,-34,312,262,-51,-164,-312,-122,-162,-9
-60,91,223,196,48,-125,-361,-114,-39,-29
-105,144,183,150,69,-41,-245,-125,-33,-98
-116,136,34,8,-5,-25,-95,-57,14,-104
-34,89,-182,-240,-147,0,36,11,105,-48
8,10,-193,-265,-146,77,69,-2,78,-37
32,-36,68,75,-1,101,20,-129,-60,-70
173,26,11,109,37,-1,-39,88,62,101
156,15,13,166,77,-125,-105,154,123,171
53,-43,271,405,211,-128,-184,-69,-43,37
78,1,300,377,253,25,-234,-147,-108,-5
80,92,222,262,193,172,-230,-95,-88,-43
8,20,41,67,47,264,-79,-24,-76,-53
-5,-43,-103,-91,-94,-114,90,-20,-68,-20
-60,-29,-103,-63,70,-86,-120,-166,-150,-102
-131,-2,-82,-66,179,49,-418,-255,-214,-178
-66,16,-197,-204,72,137,-339,-229,-198,-109
-34,-53,-248,-206,-32,166,147,-150,-180,-82
-72,-97,-30,-9,-85,53,512,47,-103,-82
-61,-97,11,-24,-90,37,507,228,34,0
27,-24,-51,-116,-93,20,216,230,129,78
56,6,-125,-143,-107,-41,-62,107,83,68
51,-7,-94,-71,-91,-159,-71,59,49,53
17,-4,156,99,-100,-176,29,50,43,55
-23,-35,226,176,-64,-109,6,6,30,35
-10,-34,-3,69,8,-29,19,17,60,29
43,8,-79,17,0,-16,10,2,37,38
62,40,-18,-19,-78,-51,1,-6,62,65
27,20,-34,-26,-61,-46,29,1,72,60
-35,12,-2,12,11,-7,38,29,77,15
-71,-17,24,11,12,13,23,25,52,-2
-94,-42,13,-14,-14,11,19,0,60,0
-79,-50,-14,-26,-22,-1,26,9,72,3
30,-69,-73,-48,-33,-3,11,54,100,77
158,-37,-107,-67,-2,19,-39,43,107,186
193,-1,-122,-128,17,25,-131,-13,118,252
259,67,-126,-154,15,-38,-194,-23,156,312
217,79,-183,-185,63,21,-70,22,143,278
16,21,-205,-169,147,155,180,156,124,171
-92,-16,-92,-106,4,123,262,122,85,104
-37,-2,-50,-136,-188,205,288,-13,34,114
-52,-23,66,-19,-138,278,286,-110,-65,0
-140,-140,128,141,37,103,217,-71,-117,-68
-132,-163,32,129,173,-148,-270,-76,-103,-82
73,-69,-92,-59,89,-90,-447,-177,-121,-40
134,-52,-223,-254,1,462,-49,-159,-64,26
-143,-73,-216,-240,150,899,462,-215,-89,-95
-438,-122,-108,-73,235,873,996,-241,-258,-310
-334,-68,52,19,23,112,204,-61,-164,-241
-77,56,-66,-206,-274,-531,-635,304,215,9
136,140,-30,-189,-323,-725,-380,349,290,140
162,190,452,488,97,-245,88,80,127,127
-82,32,466,660,267,31,301,-114,-161,-138
-259,-105,169,288,128,58,240,-71,-244,-355
-93,-75,-1,-42,-224,-390,-167,20,-125,-153
90,-49,-135,-204,-366,-715,-634,84,32,106
77,-33,-247,-131,19,-303,-467,-12,-17,73
122,54,-409,-171,305,127,60,-46,-85,32
101,130,-492,-304,242,172,520,189,33,-15
-15,119,-224,-182,87,139,631,207,36,-135
-163,38,290,169,50,199,434,-25,-101,-255
-195,-3,521,476,93,99,130,-142,-180,-280
15,119,260,331,158,-95,-184,45,-55,-116
140,156,-6,7,206,3,-194,61,10,11
24,78,88,14,88,53,-162,-44,-30,-29
-313,-205,294,177,-385,-137,-183,-146,-246,-327
-239,-135,115,91,-287,-375,-162,-91,-167,-245
-89,10,117,103,-42,-253,-67,-5,-195,-110
-13,-139,49,62,-42,-293,-419,-17,-731,-65
63,-93,0,9,-103,-222,-377,-4,-365,46
143,50,-96,-108,-99,-75,0,101,99,124
131,23,-182,-207,-108,-8,189,111,94,113
81,21,-83,-109,-68,49,159,65,83,72
13,44,110,104,18,86,-58,-1,45,-31
-76,-16,240,256,46,61,-220,-82,-16,-127
-75,-55,154,173,-18,-101,-204,-68,30,-69
-2,-51,29,42,-52,-82,-127,-1,100,22
7,-40,19,28,-30,-25,-94,0,103,35
20,-8,53,34,-25,0,-81,-27,67,17
25,4,48,32,-6,3,-72,-28,45,0
6,7,-6,27,75,22,-89,-68,20,-24
0,-27,-188,-102,131,128,-157,-133,-55,-25
50,-98,-373,-269,57,117,-280,-131,-139,74
103,1,-318,-219,-33,60,-228,-127,89,163
81,77,5,-56,-106,47,-21,-100,130,142
130,83,186,30,-128,-66,165,45,177,182
172,39,49,-77,-162,-82,267,192,220,226
90,49,-7,-55,-54,-24,121,51,102,129
-55,88,24,9,33,6,24,8,51,7
-18,117,-37,-88,56,36,50,111,114,36
121,70,-191,-195,85,78,66,212,85,142
215,20,-119,-122,27,49,0,164,-40,205
148,-5,91,79,-39,14,0,59,42,140
-9,-20,318,287,-85,-48,-58,-25,11,-32
-107,-38,243,231,-52,-49,-62,-30,15,-104
-86,-53,77,161,22,-12,-74,-35,44,-28
32,-22,-26,69,-11,-6,-81,-26,80,118
65,23,-15,-26,-43,6,-45,0,85,87
-76,22,-24,-43,-2,77,61,-4,27,-74
-229,-35,-73,26,61,361,282,5,-42,-219
-254,-107,-168,2,79,615,495,-42,-95,-249
-210,-182,-245,-119,98,425,503,-37,-50,-187
-89,-105,-113,-55,129,19,-181,-23,58,-43
-5,29,29,72,158,-138,-867,-139,61,73
-63,13,8,25,8,-75,-407,-115,97,77
12,-15,-129,-160,-197,23,265,-150,109,73
147,-25,-414,-406,-128,692,173,-323,34,92
182,-2,-664,-612,-82,852,307,-248,77,177
109,76,-163,-84,57,302,1183,429,228,133
20,90,384,347,53,-285,256,83,69,47
30,-23,248,210,-10,-527,-178,58,-190,143
107,-205,-217,-202,-139,-672,-486,333,-597,276
122,-51,80,-14,-234,-828,-341,436,-12,323
42,-8,464,323,-146,-599,-164,143,99,168
65,-11,433,318,6,-270,-214,-46,14,95
82,-12,225,212,61,-183,-258,-33,44,69
187,55,144,110,0,-231,-322,-98,-20,117
61,4,83,24,-48,-68,-185,-68,-78,57
-195,0,123,91,25,40,-46,-25,-77,-161
-260,-14,95,140,142,146,26,16,-68,-348
-95,-46,-29,58,147,129,120,-9,-84,-298
104,6,-179,-95,42,-66,99,-62,-108,-199
173,94,-208,-198,22,12,310,22,-1,-109
222,249,-114,-207,-21,97,468,113,71,8
197,249,10,-85,13,60,189,30,97,134
72,182,196,163,248,117,-165,-97,56,96
-64,194,284,255,366,230,-252,-155,4,-97
-64,197,151,109,270,351,-143,-131,20,-160
-117,42,-14,-6,70,250,63,-77,-32,-189
-201,-108,66,106,-94,-176,165,-77,-128,-226
-240,-177,14,47,-118,-153,207,44,-119,-250
-222,-106,3,17,-67,-65,202,40,-105,-255
-193,8,205,146,-15,-4,43,-57,-139,-234
-139,51,228,126,-30,-75,-159,-13,-65,-166
-157,13,125,81,-25,-56,-143,-43,-39,-198
-155,-7,-1,49,-11,16,-72,-111,-83,-227
-85,-36,-99,-59,-17,84,27,-86,-71,-155
13,-13,-87,-100,-41,21,37,-55,-1,-14
3,32,1,-28,-63,22,14,-5,45,48
-12,76,106,1,-105,97,82,35,74,65
29,73,68,-38,-79,130,115,38,138,158
23,5,-119,-91,-49,60,31,62,174,176
4,-50,-180,-100,-6,-25,-135,64,168,112
54,-72,-150,-88,3,-74,-156,37,132,86
46,-102,-138,-95,-32,-211,-155,6,-78,39
68,-33,-48,-1,16,-125,-95,-40,-15,26
52,-66,-76,16,173,6,-31,-43,64,65
55,-70,-271,-143,260,405,180,14,146,150
97,38,-367,-334,144,749,224,28,165,188
32,9,-345,-364,-89,623,145,19,131,115
-24,6,-120,-120,-276,-136,-100,-13,54,23
-112,2,213,219,-158,-335,-323,-191,-122,-137
-210,-119,198,206,-148,-140,-327,-170,-157,-214
-181,-187,-83,-84,-225,-128,-507,-54,-81,-111
-42,-93,-97,-119,-190,-335,-747,-52,-17,12
72,75,106,89,50,-151,191,3,9,53
165,197,199,163,170,105,957,162,90,120
246,204,210,165,99,-39,329,99,130,179
164,66,116,138,39,-214,279,88,81,139
112,2,61,71,0,-232,100,64,56,118
100,10,60,21,-54,-186,-51,-19,48,95
4,-18,36,2,-41,-55,39,-89,-28,-3
-75,-34,12,9,32,148,210,-109,-69,-77
-32,-12,-12,-12,48,519,438,35,-54,-32
-94,-127,-129,-131,-25,870,603,-20,-89,-65
-199,-241,-204,-181,-26,860,721,-218,-158,-159
-20,-97,-81,-67,44,207,332,-111,-81,-35
280,120,89,61,42,-748,-613,379,151,241
239,78,30,-26,-114,-960,-517,453,185,286
129,9,-138,-208,-153,-557,-74,324,184,207
137,23,-378,-395,-107,-162,16,299,253,238
245,88,-575,-528,-76,-50,-92,273,359,423
226,14,-542,-375,46,0,-148,143,303,509
93,-56,-20,156,133,-40,-237,-84,84,367
7,-20,579,552,30,-141,-307,-209,-65,108
134,-4,505,440,-75,-185,-200,-100,23,99
193,53,274,230,-14,-68,-56,-47,43,141
-97,59,236,218,101,80,28,-79,-154,-266
-351,-33,138,160,134,148,123,25,-244,-574
-268,-53,62,92,115,165,89,36,-256,-465
-52,11,-1,-25,-37,-35,15,8,-179,-185
95,38,-42,-82,-102,-67,-20,10,-80,-31
80,-26,-86,-91,-47,17,-53,-10,-155,-55
43,-23,-150,-72,52,59,-175,-54,-211,-114
-21,-12,-332,-219,38,132,-374,-100,-68,-115
-79,-86,-654,-494,-35,-17,-538,-97,-53,-38
-43,-96,-516,-412,-41,-69,-463,-146,-160,22
-47,14,125,66,-1,26,-15,-104,-13,-48
-93,38,514,385,35,19,264,22,47,-101
-99,48,519,400,74,21,359,86,23,-142
-59,38,209,251,111,-21,147,26,-8,-79
-12,72,49,19,23,-45,4,-10,-34,-44
-49,52,-18,-87,-38,17,72,-6,-43,-95
-117,0,84,57,67,50,58,-63,-109,-129
-67,-7,84,58,113,7,0,-50,-66,-20
19,-13,-43,-19,190,33,-32,-9,-18,32
60,67,35,43,154,105,-117,-38,-36,-17
36,106,106,63,2,247,-90,-51,-34,-57
-47,-52,33,7,-172,185,142,-40,-88,-114
2,-76,-77,-100,-205,-113,245,8,-41,-42
0,-17,-130,-4,38,-20,22,-1,-54,-19
-30,-1,-116,72,101,-40,-90,2,-63,-45
-79,-30,-105,31,53,-7,13,42,-32,-63
-130,-46,119,125,16,18,60,10,-63,-100
-32,36,223,112,-60,-52,-3,-17,-47,-41
78,100,141,-1,-81,-60,-65,-1,48,51
70,74,1,-106,-7,47,-72,5,88,73
-6,-85,-238,-222,129,40,-45,31,-10,50
-47,-157,-421,-256,309,60,38,74,-5,64
41,-18,-332,-174,229,139,95,59,154,130
72,70,76,134,54,150,-79,-70,96,89
-56,-29,194,278,-122,101,71,-110,-21,-39
-135,-163,124,137,-305,45,468,-24,-63,-88
-154,-238,-26,-49,-296,413,469,-26,-49,-82
-128,-179,-98,-116,-182,626,200,-243,-96,-119
-15,-62,-44,-99,-67,169,-524,-329,-134,-23
73,32,-18,-60,17,-456,-1332,-219,-70,129
109,55,-90,-112,-41,-619,-877,31,173,190
-23,-57,-148,-179,-151,-368,409,217,130,31
-29,-47,-121,-181,-189,73,1212,220,119,-15
191,31,-323,-372,-256,367,920,127,259,269
240,55,-458,-461,-223,315,705,182,421,510
312,151,-149,-309,-208,-63,408,363,560,692
293,147,127,0,-77,-130,-70,227,457,656
104,-7,327,352,197,93,-434,-114,111,318
-48,-83,291,382,274,50,22,-201,-186,-17
-44,-96,22,173,194,-232,341,-98,-224,-103
6,-106,-224,-13,170,-90,143,-82,-203,-102
-2,4,-49,-27,37,-86,130,110,-68,-113
-74,112,71,-1,-68,-136,-71,304,87,-81
-189,61,199,107,-8,-273,-380,110,-137,-173
-273,0,428,289,42,-370,-444,-71,-252,-385
-350,-141,417,272,-30,-90,-172,-66,-187,-498
-219,-194,171,136,-91,170,37,-42,-234,-435
98,-24,92,98,19,157,36,-146,-312,-183
84,79,193,218,216,116,13,-119,-223,-85
-159,62,214,268,324,72,-113,27,-89,-229
-265,13,133,175,229,-33,-257,6,-102,-319
-151,29,121,106,31,-291,-250,-46,-76,-206
-65,-10,43,-26,-181,-306,-290,-67,-56,-99
-105,-131,-133,-174,-289,-263,-429,-94,-264,-149
-102,-31,-131,-105,-184,-160,-348,-108,-142,-189
-91,21,-33,-36,-29,126,8,-42,29,-154
17,84,-5,15,10,143,292,54,115,-11
207,175,69,62,-17,-63,190,38,125,191
270,166,17,16,35,-98,62,44,167,357
195,107,-62,-51,68,-20,32,89,193,335
58,61,-92,-79,40,58,20,111,158,124
30,90,-134,-147,22,116,58,104,114,27
70,121,-57,-108,26,92,48,35,17,-6
16,85,6,-61,0,32,0,20,-18,-65
-67,33,91,58,-7,-26,-66,-6,-29,-101
-131,-22,273,274,127,-94,-189,-125,-191,-128
-83,-47,159,212,213,-15,-251,-160,-224,-73
40,53,70,94,91,112,-213,-66,47,77
72,37,63,3,-22,243,-138,-46,48,95
-13,-60,-30,-89,-124,-21,60,-42,-11,-22
21,-80,-41,-62,-19,-229,4,-12,-71,17
71,-3,26,-2,87,40,-104,-6,-64,63
74,95,68,12,19,216,-65,3,99,71
-18,9,-32,-81,-110,198,66,0,60,-15
-69,-26,-47,-104,-209,-149,154,28,49,-54
40,35,9,-64,-163,-152,54,2,109,61
136,57,-37,-121,-160,-28,123,-15,155,158
85,35,-58,-124,-117,225,297,-38,77,87
43,-13,-72,-49,36,299,312,-76,11,33
104,-51,-151,-35,150,193,150,13,109,167
208,13,-67,18,122,-69,-216,125,205,332
125,-25,-144,-115,22,33,-276,92,-27,185
-69,-137,-373,-361,-141,312,-386,-50,-186,-80
-209,-209,-439,-416,-191,388,-440,-234,-167,-204
-168,-142,-176,-178,-101,219,-117,-299,-117,-161
40,81,247,214,57,2,791,-113,52,6
96,119,41,79,123,-49,1046,104,138,43
294,251,-259,-213,87,-226,276,448,326,218
260,256,-343,-197,52,-317,-16,511,295,157
-15,47,-66,27,-2,-108,199,220,70,-74
-142,-25,427,379,6,5,143,-133,-116,-170
-119,-41,659,559,38,91,-45,-332,-169,-124
-39,-114,250,254,34,489,99,-268,-15,47
-34,-273,-265,-260,-165,990,551,-114,151,224
133,-206,-274,-358,-263,640,690,2,270,437
237,36,39,-57,-127,-151,234,125,266,518
197,40,-51,-46,-48,-724,-621,148,235,459
170,21,-101,24,-150,-1077,-526,295,293,301
245,109,59,136,-226,-813,-165,406,298,221
165,139,81,122,-63,-319,-340,113,65,26
-187,0,-66,35,121,47,-359,33,-35,-265
-373,-40,-40,31,193,134,-102,38,-124,-486
-300,50,-22,92,230,150,185,66,-173,-482
-186,135,133,160,195,33,-11,37,-143,-385
-162,104,393,246,100,-83,-397,-152,-200,-349
-175,-21,194,83,0,-89,-399,-222,-218,-291
-174,-75,-82,-103,-11,9,-133,-103,-152,-255
-76,35,45,35,24,-35,70,31,-94,-182
-9,76,218,176,-16,-119,117,67,-63,-113
-65,-10,149,149,-2,-102,-5,-14,-60,-89
-131,-70,-11,47,73,-27,-57,-26,-23,-65
-113,-41,-43,-3,110,2,-34,-2,24,24
-37,-8,21,-11,8,-40,-49,-32,33,53
73,-28,70,48,-49,-71,-104,-46,-40,84
141,-69,39,53,-30,-88,-166,-34,-205,183
106,21,41,14,0,-31,-90,-36,-88,122
59,79,51,13,47,28,-55,-75,-139,-104
71,58,22,14,103,87,-44,-88,-139,-171
43,25,-18,12,144,129,-5,-90,-121,-75
-96,-1,-19,47,150,69,21,-89,-96,-91
-205,-43,-65,25,68,64,57,-28,-64,-200
-169,-68,-19,-17,-25,104,100,27,-17,-201
-26,-84,-1,-22,-23,8,-25,-30,-113,-67
69,-72,17,-30,-53,-54,-126,-57,-102,47
42,-12,11,-68,-70,-8,-50,-3,143,92
26,14,-92,-154,-50,27,19,65,196,74
70,61,-138,-184,-33,25,56,100,196,114
89,33,-94,-117,-43,20,53,40,134,143
39,-37,72,76,-42,-18,14,-33,77,106
94,-19,64,33,0,-63,-44,-59,111,111
50,2,41,100,298,-1,-33,-54,40,-17
26,29,24,118,382,345,-66,-95,-100,-23
53,-78,-177,-86,92,473,-544,-217,-775,-25
-113,-268,-470,-405,-306,493,-392,-217,-878,-205
-203,-156,-411,-385,-418,-107,264,-47,-133,-251
-10,17,-184,-136,-86,-215,236,112,62,-39
110,161,55,47,43,-171,244,177,143,76
9,116,222,209,-25,-161,177,141,129,-4
-67,26,100,140,-29,-61,115,72,101,-70
36,20,-232,-201,-8,-11,98,90,99,45
146,-16,-439,-454,12,31,94,196,106,166
142,51,-54,-112,75,81,6,121,238,145
30,1,315,302,25,111,-379,-156,28,7
-154,-164,358,298,-169,-66,-912,-387,-154,-151
-212,-222,147,102,-242,-202,-1066,-439,-145,-174
-92,-82,-109,-131,-180,-34,64,-177,31,-55
19,79,-94,-114,-36,24,1487,438,293,89
14,109,10,62,145,109,1086,442,278,89
-87,27,281,242,110,323,605,68,62,-36
-120,-69,258,173,-23,254,632,-30,0,-45
18,-45,16,-20,-16,-14,337,59,141,136
355,187,-66,-69,89,-98,166,60,268,421
424,118,-126,-121,114,282,-4,-38,33,513
210,-155,-101,-153,72,739,-157,-62,-532,366
-170,-413,-88,-152,-33,963,123,-177,-722,48
-233,-374,-168,-115,-69,457,443,-295,-567,-85
34,-17,-203,-105,18,-178,209,-87,88,80
118,123,-328,-201,81,-543,-287,181,239,38
248,315,65,4,-52,-911,-522,430,286,45
175,317,320,176,-70,-682,-456,198,142,-93
-8,201,450,274,10,-441,-405,-58,17,-188
-160,52,372,302,50,-301,-317,-113,11,-201
-235,-30,135,207,1,-239,-249,-56,2,-221
-191,0,63,139,-37,-234,-181,60,43,-196
-139,21,129,125,-50,-193,-105,48,45,-190
-140,25,66,106,-39,-165,-131,-8,47,-168
-74,27,30,53,-26,-149,-154,-49,51,-92
21,17,10,22,35,-80,-104,-19,72,-35
60,-29,-55,-25,69,3,-38,11,97,21
58,-10,-23,-14,58,42,-13,11,90,51
36,29,52,39,51,42,-1,8,64,73
3,9,47,35,30,24,-4,0,68,55
18,-44,-74,-61,22,30,-8,17,50,28
39,-4,-101,-32,271,113,-52,-40,22,30
83,91,34,72,270,201,-95,-60,68,87
-1,-88,-186,-142,84,326,-89,3,-237,49
-88,-328,-532,-555,-165,195,58,74,-646,-32
-53,-137,-329,-389,-65,113,241,-23,-87,46
80,59,89,0,72,54,-206,-209,188,231
174,135,361,271,48,-248,-743,-212,273,360
113,42,232,248,30,-203,-551,-169,207,205
229,76,151,168,20,-74,-49,-36,165,139
120,39,82,43,-70,161,415,241,184,47
-193,-55,-21,-101,-265,-89,576,303,114,-255
-238,4,41,-31,-160,-194,355,157,14,-349
-184,46,31,76,21,-30,155,-8,-94,-341
-176,-22,-68,88,53,9,115,-35,-66,-308
-120,-90,-84,29,44,15,147,6,56,-140
-64,-85,-103,-58,37,34,149,32,93,1
-2,-84,-185,-151,24,95,111,61,-19,74
49,-37,-241,-207,-34,161,177,105,102,95
64,3,-213,-191,-63,61,114,78,125,38
42,10,114,49,-68,-85,-1,17,82,-83
82,38,270,192,-60,-135,-79,-65,5,-87
219,93,6,26,-40,-48,-26,-31,9,113
206,65,-147,-139,-1,55,54,42,41,238
48,32,-209,-219,64,89,23,64,-118,61
-69,135,-108,-144,106,86,62,61,-33,-89
-97,72,23,-38,42,48,55,12,-7,-124
-72,-54,-70,-48,-12,56,105,-4,-22,-86
-134,-141,24,89,-38,43,10,-123,-109,-121
-293,-285,48,191,-86,76,-503,-373,-285,-280
-253,-301,-166,-74,-166,188,-859,-464,-267,-236
-71,-240,-359,-305,-116,499,-439,-316,-116,-13
207,-55,-283,-194,95,532,730,167,151,292
352,120,90,31,138,74,1199,383,262,391
253,156,273,169,61,-321,319,174,138,228
95,84,90,4,-166,-387,182,70,87,94
2,24,-170,-183,-250,-34,245,16,87,33
-142,-58,-241,-112,-121,413,-203,-166,15,-59
-183,-59,-157,-22,11,359,-292,-253,-47,-97
-137,73,214,233,251,150,32,-99,-50,-89
-21,158,555,491,217,-357,157,177,71,16
77,86,349,318,-1,-445,273,114,53,82
179,80,141,109,-65,117,255,-89,-11,132
101,-34,-43,2,-11,431,388,-105,-64,65
186,190,70,89,105,-249,-297,324,145,143
213,307,273,192,101,-397,-435,108,41,56
136,287,397,243,165,-340,-434,0,-319,-130
-51,-54,97,58,89,-354,-673,1,-832,-290
-161,-84,-110,-117,-50,-242,-286,91,-251,-283
-69,6,-162,-207,-113,-301,-104,128,75,-134
89,50,-154,-175,23,-261,-129,120,190,57
144,57,55,43,96,-103,-207,31,170,121
138,37,208,175,29,39,-255,-35,89,152
5,-98,17,15,-72,147,-173,-8,-96,86
-164,-145,-96,-142,-209,-144,9,46,-93,-100
-136,-54,4,-49,-144,-184,14,-4,40,-114
-30,22,91,73,-23,-63,-59,-103,61,-44
45,4,29,15,24,-47,-167,-100,-51,59
61,75,41,64,73,24,-150,-75,83,80
28,126,87,101,52,104,-149,-40,115,-4
-67,53,-50,-62,-50,164,145,79,82,-91
-102,-18,-182,-200,-128,253,478,92,38,-115
-55,4,-177,-234,-167,281,473,28,45,-49
-82,108,59,-22,-62,129,253,-49,23,-57
-72,181,307,144,-1,-145,-150,-29,21,-42
-20,74,172,30,-3,-259,-323,-13,-123,-18
29,-29,-82,-52,49,-113,-54,48,28,13
185,-6,-172,-52,103,-22,0,80,143,99
193,41,-132,-12,178,-61,-47,77,96,91
78,34,50,98,276,-71,-33,41,27,29
34,-43,107,90,225,74,-58,-22,4,9
107,-42,-62,-100,39,185,-98,-13,64,104
55,-157,-390,-419,-128,336,106,98,118,145
14,-163,-360,-366,-281,-108,226,138,167,145
55,-15,-67,-37,-171,-222,76,71,155,152
-19,-47,57,111,-17,30,66,12,64,45
-125,-98,265,282,-11,26,45,-37,-32,-69
-155,-101,171,179,-40,0,34,-71,-67,-109
-6,8,86,41,-91,0,24,-117,-85,-67
38,45,125,84,-105,-60,18,-149,-84,-65
-16,-13,88,68,-52,-75,22,-131,-69,-37
-57,-12,-78,-57,-37,-11,59,-108,-35,-43
-33,52,-208,-148,-27,23,99,9,38,-38
105,135,-147,-201,-17,-60,9,231,167,73
174,96,-60,-81,62,23,-74,88,90,120
10,-35,96,245,146,88,-136,-132,-101,21
-146,-182,-56,161,45,10,-363,-245,-177,-107
-76,-265,-325,-196,-179,-17,-343,-180,-150,-93
55,-260,-470,-438,-323,132,-110,-5,-31,91
112,-58,-244,-275,-164,443,644,190,153,220
29,78,126,-17,-47,472,1002,116,10,112
-68,23,203,87,69,204,311,-130,-215,-32
-142,23,93,143,210,8,-57,-135,-87,-144
-75,42,-5,60,195,-184,-121,47,26,-56
-5,48,-16,-17,114,-237,108,228,135,57
23,67,56,12,68,-195,61,208,114,44
-101,-28,105,119,63,-212,71,151,-123,-91
-183,-43,195,291,112,-156,40,18,-95,-165
-136,44,265,336,151,-124,-16,-51,-30,-140
-55,97,213,214,89,-67,30,-21,-13,-97
-32,46,146,130,-29,33,108,-8,6,-76
-20,2,81,62,-72,287,137,-38,20,-36
-19,-29,8,0,-41,414,85,-62,38,-15
-85,-81,-83,-74,-37,213,-49,-117,9,-48
-119,-95,-221,-175,-52,-201,-397,-118,16,-38
10,6,-453,-280,20,-398,-677,-47,89,46
141,129,-427,-274,154,90,-200,-81,72,111
169,181,-243,-148,259,688,465,-33,88,132
106,170,150,82,117,626,615,85,143,101
-115,5,439,238,-89,50,171,88,36,-103
-208,-113,122,161,-179,-665,-318,33,-24,-176
-65,-32,65,177,-35,-571,-306,-34,-20,-30
97,46,153,176,-13,-320,-239,-25,41,147
75,18,90,88,-38,-179,-155,32,73,203
-34,-94,-65,0,-26,-103,-153,45,-111,159
-33,-86,-255,-180,-102,-52,10,143,89,152
158,30,-245,-265,-131,-46,51,149,161,210
267,106,-126,-212,-116,-55,48,64,110,219
177,18,81,65,11,-78,-52,-129,-148,107
74,23,292,318,114,13,-63,-289,-244,-7
50,112,169,179,147,383,158,-274,-109,-28
80,129,-130,-132,96,477,355,-48,47,89
66,62,-307,-306,-24,153,415,262,255,173
-56,40,-200,-210,-46,-175,49,215,231,1
-127,6,64,-20,-50,-246,-146,62,138,-113
-179,-38,387,289,47,-115,-189,-130,2,-192
-89,18,389,355,72,-122,-312,-161,-97,-199
41,66,196,130,-28,-199,-242,-23,-30,-76
46,47,-15,-107,-101,-134,-52,46,23,-23
29,22,-190,-263,-89,-2,29,75,82,10
-27,-39,-237,-265,5,131,92,59,90,0
-48,-123,-193,-165,60,139,32,26,-102,-26
-57,-89,57,87,127,4,-68,-48,-153,-48
-115,4,384,393,257,-29,-202,-131,-115,-117
-55,81,386,377,198,-10,-294,-141,-107,-70
-16,43,170,133,22,161,-229,-77,-31,-24
-150,-184,-103,-117,-183,91,12,8,-19,-127
-171,-189,-103,-146,-235,-169,91,-28,-61,-141
2,-48,-114,-135,-88,36,126,-138,-83,2
174,37,-301,-273,-31,126,243,39,45,155
189,103,-205,-229,11,-42,133,299,157,119
125,100,-129,-114,41,-95,39,221,121,47
94,60,-111,-74,85,-40,7,118,77,57
-24,37,45,127,167,-4,-14,8,-5,14
-69,27,75,137,92,-62,-83,-37,44,98
-93,-47,212,80,-123,-138,-287,-58,92,124
-102,-148,190,74,-181,-99,-647,-188,0,30
19,-233,-77,-37,-124,-54,-897,-277,-8,140
246,-175,-164,-136,-54,32,-418,-192,114,363
292,-67,-94,-108,0,143,549,-35,165,367
282,105,65,27,47,60,887,230,317,317
236,104,21,-62,-29,121,504,326,346,209
265,87,-26,-150,-149,-46,232,147,162,244
177,118,-8,-102,-69,-97,220,-3,-12,183
-23,123,106,80,77,-9,65,-42,-124,-40
-180,89,76,125,174,229,18,-40,-223,-304
-215,15,2,70,109,486,286,19,-252,-366
-317,-106,34,44,11,502,548,35,-290,-417
-417,-47,175,57,86,186,360,-29,-347,-591
-393,41,204,94,201,-203,-303,-152,-332,-620
-355,47,222,210,213,-135,-457,-219,-318,-519
-204,74,250,215,37,80,-79,-88,-197,-295
-132,-112,3,56,-68,-204,111,80,-42,-103
-119,-85,0,70,40,-149,-35,5,-32,-12
-79,-111,-78,-37,8,-42,-69,-14,-133,81
-60,-256,-363,-290,-72,262,-19,7,-499,80
-56,-174,-442,-359,-68,562,330,-16,-128,52
-29,-61,-319,-226,46,602,588,-131,7,14
-18,-33,-175,-115,103,545,534,-206,-61,-49
-125,-48,97,10,4,119,-82,-222,-121,-146
-140,-71,173,77,-175,-623,-763,-189,-74,-126
-15,-30,70,65,-108,-902,-1194,-198,24,-9
10,-14,47,65,23,-583,-746,-151,56,-15
64,8,70,101,74,-322,151,171,172,40
168,80,107,79,18,-244,367,351,230,111
181,136,128,54,-37,-252,117,212,231,120
126,127,71,13,-44,-188,17,145,253,121
127,67,-50,-86,-29,-68,65,145,238,130
131,64,-155,-155,-3,-2,80,79,166,105
79,60,-194,-186,26,33,78,15,-57,17
86,163,-63,-51,129,71,62,-59,-81,-8
69,182,155,137,143,183,93,-160,-14,-28
43,101,333,238,42,242,137,-34,47,27
88,98,190,130,-12,219,156,167,178,122
101,82,30,12,0,118,99,111,148,106
-2,22,52,55,33,-25,-24,86,66,4
-45,7,87,73,4,-91,-126,33,-33,-36
-25,32,49,9,-55,-186,-108,-26,-92,-58
21,51,-57,-90,-92,-194,-57,11,-21,-2
140,69,-256,-258,-96,-65,-55,57,110,138
256,19,-445,-433,-108,17,-23,128,224,297
235,-72,-455,-430,-84,95,58,140,261,355
-5,-107,-33,-54,11,137,15,-41,74,91
-115,-90,145,122,12,91,-12,-178,-59,-105
-95,-56,129,195,-12,41,38,-146,-37,-95
-57,-10,239,327,36,-120,-44,87,31,-67
20,-3,202,202,17,-167,-30,56,2,-22
0,-6,62,78,68,-18,86,-42,-36,-3
-42,6,-24,47,173,35,57,-50,-26,-8
-47,-8,-125,-30,307,167,22,-71,-8,20
-11,36,-124,-59,281,243,-156,3,52,68
7,77,10,34,88,153,-511,26,58,95
-161,-95,-126,-133,-160,78,-563,-59,-66,-52
-198,-202,-344,-329,-294,-201,-465,-77,-68,-79
-194,-189,-158,-60,-124,-85,-175,-92,-174,-73
-114,-17,209,284,-39,-53,499,68,-5,-51
-4,43,68,127,-68,-27,400,123,99,-33
89,25,-111,-17,-24,17,-77,-4,35,14
159,102,69,73,-32,-32,-450,-175,-24,73
53,93,345,278,51,-26,-380,-246,-94,34
-60,-6,201,232,150,125,464,-49,-59,-5
-84,-75,-92,-9,55,143,739,125,-9,-55
58,-37,-254,-174,-60,3,369,155,125,43
141,-6,-283,-243,-51,27,186,123,151,89
201,63,-134,-134,50,-39,76,19,90,101
159,91,262,254,171,124,-155,-201,-5,72
140,87,387,404,85,222,-395,-350,-56,98
236,84,181,136,-138,52,-301,-216,52,222
282,55,-12,-107,-288,-319,47,124,252,317
133,-30,-170,-168,-213,-221,272,173,206,142
-35,-77,-187,-124,-114,44,416,133,78,-58
-187,-123,-114,-97,-100,444,628,22,-61,-148
-225,-120,-112,-124,-147,667,662,-89,-104,-153
-158,-85,-231,-266,-182,558,697,-26,-27,-110
46,88,-207,-197,-76,-80,193,212,171,51
192,159,-116,-93,7,-676,-562,238,241,186
150,119,-209,-64,50,-583,-390,164,102,129
-8,89,-92,79,107,-291,-210,67,-65,-70
-144,24,442,383,128,-124,-191,-94,-331,-364
-115,21,39,88,84,-41,-135,-32,-264,-353
-29,15,-161,-115,84,4,-99,20,-239,-250
-45,-226,-257,-200,132,-56,-346,22,-858,-107
-175,-321,72,29,137,-90,-466,-86,-1090,-164
-259,-75,409,350,64,88,-118,-202,-344,-316
-132,8,137,172,-105,339,45,-180,-79,-174
24,-42,-143,-211,-227,310,312,-12,83,54
81,-50,-145,-253,-138,99,450,38,135,128
100,46,-6,-76,19,-194,92,106,218,142
26,98,92,7,44,-370,-248,158,242,75
-33,50,207,146,21,-244,-245,23,-25,-49
-78,10,139,116,-11,-108,-91,-15,-18,-106
-187,12,100,36,13,34,99,4,100,-193
-290,-32,239,148,67,321,126,-105,40,-262
-181,-53,227,119,9,458,176,-224,-19,-161
-32,-20,128,84,-23,175,298,-164,26,14
89,44,130,131,-15,-259,-42,16,140,143
44,66,114,79,15,-401,-391,82,137,116
15,15,78,34,-31,-369,-224,99,173,134
87,-80,-17,1,-35,-187,-113,83,60,172
113,-102,-68,-13,-8,-60,-124,60,-39,116
154,18,-26,27,23,6,-72,6,65,92
211,48,-22,-6,-10,-2,-61,10,95,159
163,23,-21,-25,-8,-16,-26,40,147,210
43,21,-12,-4,68,13,18,69,147,176
-71,10,-22,1,89,9,-12,76,27,59
-34,19,-5,-17,-15,-78,-98,49,-29,20
49,67,23,-24,-105,-89,-55,36,118,101
68,55,-22,-76,-93,-44,7,50,142,115
-40,30,-41,-84,0,67,86,32,81,-62
-82,21,-108,-133,42,179,121,-75,-40,-148
48,36,-246,-266,-23,116,36,-157,-55,-20
75,31,-263,-309,-32,86,105,-142,-6,70
101,37,-307,-354,7,119,247,123,129,191
142,128,-86,-140,-34,-81,102,292,198,256
78,79,2,15,-32,-111,14,184,163,152
-117,-72,-59,113,105,43,63,133,55,-84
-252,-108,226,358,163,59,30,24,-134,-326
-191,-29,451,467,239,-15,-83,-150,-320,-411
-74,1,264,298,228,74,-215,-173,-272,-240
-21,28,111,102,-15,116,-610,-155,-117,-82
-183,-44,54,-4,-196,133,-775,-208,-151,-222
-252,-80,5,-6,-156,-94,-451,-250,-235,-303
-109,-144,-92,-47,-161,31,285,-55,-126,-100
-96,-132,-13,35,-27,127,140,-148,-442,-126
-47,-170,-111,-39,149,26,59,-111,-815,-61
65,-93,-174,-95,142,-162,-86,128,-611,79
149,60,-89,-85,-10,-24,-56,218,-69,194
61,88,-5,-55,-153,112,168,73,282,122
-20,37,126,100,-187,-169,210,-23,195,34
-30,7,179,177,-93,-12,366,-24,86,17
-83,-96,-10,-11,-140,112,621,38,64,-24
-109,-115,-97,-95,-135,137,347,-47,51,-39
-54,-29,-25,-20,-57,37,-19,-69,66,-33
1,-8,-9,-7,-16,103,11,31,106,52
7,-74,-72,-69,-44,143,502,130,15,111
27,29,-8,-34,-49,-34,432,184,188,132
71,86,8,-10,-6,-273,-178,222,291,162
136,116,54,2,-26,-366,-422,165,295,186
185,150,91,33,-52,-250,-289,94,203,185
130,166,119,78,6,-165,-131,88,153,131
144,154,124,92,37,-37,-103,37,103,144
103,73,-7,60,117,42,-55,8,62,101
90,69,-52,37,170,18,-19,-26,74,95
-51,74,11,98,198,140,-28,-57,60,-79
-150,-149,-74,-72,-63,252,23,37,-356,-125
-177,-344,-341,-321,-213,267,22,3,-773,-192
-136,-307,-383,-395,-147,20,0,31,-721,-148
-48,-21,-175,-209,-26,-189,0,81,52,-4
112,104,-67,-136,-36,-421,-267,106,312,188
304,148,-97,-163,-89,-373,-181,99,389,398
284,107,122,78,-53,-187,-92,64,367,440
124,13,285,298,-36,-118,-81,2,284,323
37,-69,158,165,-32,-35,-38,-14,223,223
-189,-155,64,122,87,213,112,-43,141,53
-330,-153,43,111,111,533,246,-146,15,-177
-238,-109,-23,-1,19,534,320,-245,1,-169
-67,-91,-114,-54,-2,220,306,-202,136,35
-43,-31,-87,0,98,-44,-86,-114,209,85
-98,-3,-21,9,134,-78,-151,-72,95,-53
24,100,92,45,68,-186,85,188,67,-79
181,131,64,-14,-47,-320,-93,180,-77,-24
172,135,-53,-68,-7,-219,-116,55,32,-20
299,52,-392,-387,72,134,180,103,198,103
268,74,-406,-334,145,130,95,187,64,108
94,-166,-558,-418,137,45,-450,191,-551,112
-46,-231,-304,-251,175,-48,-964,-68,-930,-78
-179,-161,307,301,202,32,-1312,-417,-807,-310
-162,-15,490,521,245,301,-685,-318,-18,-244
-115,-35,345,347,82,241,128,-197,4,-295
-78,44,316,252,-209,-30,777,-29,2,-333
-151,54,84,26,-305,0,1150,264,130,-296
-231,-27,140,166,-232,146,845,12,4,-378
-349,-268,-4,88,-149,57,273,-134,-335,-482
-252,-340,-162,-48,-173,-266,-684,-223,-751,-439
-106,-19,72,7,-235,-371,-704,-223,-184,-271
-92,32,176,102,-124,-190,-282,-88,48,-164
-46,37,169,173,123,84,61,-60,138,-32
42,113,183,195,219,109,472,90,220,76
25,90,90,83,102,93,831,349,291,46
43,5,-108,-139,-129,306,814,296,299,66
83,50,-193,-217,-160,413,525,115,266,115
65,97,-135,-156,-88,147,274,75,264,102
96,128,-89,-93,2,-288,-119,82,287,116
121,114,-31,-18,71,-372,-180,2,240,147
150,70,126,87,15,-218,-13,-52,207,222
207,45,92,15,-52,-135,-58,13,238,298
243,114,38,-95,-8,-165,-293,129,157,291
133,148,11,-74,75,-51,-250,93,-30,104
51,184,-149,-104,99,32,-14,88,111,117
17,137,-222,-148,81,64,32,107,147,54
-28,80,-116,-64,91,85,11,75,119,-52
-71,52,182,183,65,20,-66,-19,62,-89
-108,25,421,391,48,-52,-145,-127,-10,-100
-103,5,281,249,14,-44,-122,-115,-16,-73
-102,-16,115,96,5,10,-65,-45,13,-73
-113,-8,39,23,-1,32,-43,0,46,-96
-64,16,-2,-15,-19,15,-40,0,63,-87
-24,22,-10,-23,-19,-1,-33,-9,46,-41
-51,4,23,35,11,14,-17,-20,15,-3
-23,-16,-16,42,31,49,-38,-57,-30,17
95,6,-100,-3,63,56,-79,-75,-56,74
172,48,-59,-43,59,41,-86,-60,-5,145
153,127,-33,-18,55,27,-79,-58,45,169
84,157,-41,-51,23,112,24,-21,72,125
-19,62,101,10,-18,483,164,-118,73,62
-115,-41,71,6,-91,369,165,-99,100,9
-192,-233,-161,-156,-143,104,299,-60,-32,-37
-85,-319,-260,-233,-52,-221,-60,-91,-508,22
161,-57,-87,-135,-49,-485,-299,109,-138,265
222,97,22,-41,-59,-446,-127,283,286,329
120,65,-115,-44,-6,-161,-29,187,223,165
26,71,-149,-83,6,-5,-4,102,176,17
20,74,-102,-105,-2,18,9,37,93,-41
8,30,-8,-49,16,35,49,-9,31,-49
-72,-20,121,18,28,212,184,-79,-46,-95
-193,-112,7,8,29,627,348,-171,-162,-201
-193,-120,-170,-83,62,727,503,-171,-165,-196
53,7,-204,-132,171,258,410,-80,-48,-8
256,117,-117,-49,235,-256,-273,64,99,158
152,33,51,57,93,-432,-512,117,-55,94
4,-12,330,176,-178,-462,-146,26,-159,-70
-79,-1,274,194,-127,-375,-61,-67,-55,-122
-72,5,150,160,141,-118,-241,-117,-27,-101
-65,-42,-25,-3,178,148,-611,-210,-62,-68
-46,-124,-380,-322,9,271,-812,-207,-34,14
-42,-257,-801,-688,-175,300,-56,17,100,127
211,-136,-930,-805,-36,192,955,368,433,455
500,132,-410,-360,310,127,666,343,546,655
528,282,536,478,287,-347,-200,-28,226,464
412,276,688,622,47,-203,-94,-65,26,292
17,31,396,332,-176,276,449,63,-62,23
-236,-127,120,78,-330,47,714,93,-121,-231
-178,-34,78,65,-139,-55,396,41,-127,-268
-55,61,310,265,9,-283,-292,-20,-129,-194
-121,-9,281,266,-43,-381,-432,-127,-133,-213
-237,-80,-29,35,-110,-242,-253,-82,-75,-277
-242,-154,-257,-185,-98,-61,-136,-20,-187,-300
-33,-24,-180,-181,-29,29,79,-63,-98,-132
58,121,123,36,8,-8,209,-16,6,-57
20,137,423,318,64,-106,-33,-89,-80,-36
-72,23,348,295,45,-149,-143,-132,-251,-137
-74,32,177,122,-41,-103,-41,-122,-61,-160
-14,1,3,-16,-48,-42,-93,-130,46,-78
87,7,-89,-110,-24,141,-122,-169,84,39
102,-27,-169,-205,-46,435,158,7,123,86
-24,-136,-178,-182,-92,398,666,360,113,10
-143,-184,-88,-107,-83,192,642,246,-35,-126
-73,-36,58,10,-14,-185,-287,-40,-134,-132
4,54,89,58,2,-421,-833,-158,-126,-109
-25,6,4,10,-10,-185,-650,-132,-47,-37
-6,-30,-41,17,26,12,-259,-71,38,56
42,19,-110,-69,70,12,19,49,123,108
-9,28,-195,-189,90,54,215,177,152,55
-8,29,-151,-152,81,9,321,264,137,19
35,68,-11,-52,70,6,316,188,72,43
-23,15,122,61,-23,22,154,-8,3,2
-85,-57,102,97,-133,6,137,-111,0,-8
-118,-72,135,171,-71,13,201,-102,-22,-88
20,-9,133,135,-5,-152,83,117,18,-13
117,48,33,15,79,-106,115,84,-5,15
105,88,36,60,183,174,144,25,-20,18
133,91,78,127,130,422,3,48,50,115
78,45,-32,38,119,573,31,-36,21,61
-11,36,-112,-34,163,375,72,-86,6,-50
12,78,-6,29,162,-8,-184,-60,61,-7
35,81,150,82,16,-522,-458,-34,116,80
27,11,129,60,-182,-520,-125,1,110,105
0,-23,148,70,-201,-235,149,21,61,39
1,-87,57,46,-104,-49,80,71,-138,-42
-8,-79,-88,16,-39,106,56,98,-102,-82
-27,-52,-63,-67,-42,-2,-57,30,3,-46
-61,3,21,4,87,-235,-164,-11,52,-10
-117,32,69,67,166,-29,-17,-21,23,-89
-143,6,-18,-16,68,529,331,-16,-14,-132
-207,-93,-231,-254,-95,1046,553,-40,-70,-206
-240,-201,-356,-335,-203,640,260,-180,-213,-263
-198,-192,-339,-236,-27,55,-755,-239,-259,-241
-244,-241,-249,-226,-23,-591,-1376,-112,-194,-235
-211,-307,-277,-290,-142,-618,-484,44,-73,-147
226,49,-40,-69,-110,-330,960,254,162,201
483,248,136,94,-81,-256,703,185,216,445
428,184,-182,-137,20,-129,282,227,258,514
266,176,-157,-131,139,-67,143,211,195,349
-19,82,360,302,111,-160,-50,25,-16,-10
-147,-35,506,466,-6,-235,-137,-93,-118,-187
-35,1,419,383,-62,-215,-151,-133,-114,-117
-8,-57,183,185,-60,-114,-122,-145,-203,-45
16,-75,-35,-40,-100,-72,-113,-84,-173,128
156,24,-176,-180,-109,-118,-57,-10,138,385
240,35,-240,-138,52,-179,-303,-70,167,453
182,10,-274,-24,158,35,-410,-71,113,218
254,120,63,142,88,177,-335,-82,-4,39
238,162,356,234,-19,288,-91,-186,-195,-32
