52,-1,-30,11,34,23,21,17,-4,13
0,-15,-7,-7,16,10,2,7,2,-11
-41,42,42,-25,-14,-17,-26,-5,-7,-53
-84,47,83,-6,-3,-14,-4,3,-10,-73
-22,0,55,16,10,0,24,24,0,-51
12,-49,-37,11,13,4,27,28,9,-23
3,-78,-35,0,11,8,21,25,16,-12
0,-54,10,3,20,4,12,16,21,4
2,-3,47,15,18,-3,-1,12,17,8
-4,12,60,30,18,-4,3,13,12,-12
-13,-9,49,6,9,-6,18,0,5,-15
-5,-8,42,-15,-11,-30,37,-9,8,-8
-16,-4,44,-4,-21,-43,40,-13,16,-19
-14,-14,36,-7,-22,-28,30,-16,26,-21
-26,-23,20,-1,-20,-10,1,0,14,-3
-23,-11,17,3,-16,13,-7,7,1,-13
-32,18,33,10,8,24,14,15,1,-22
28,38,23,13,16,29,17,15,12,-14
115,39,7,0,5,20,2,10,24,19
101,30,-13,8,11,17,-3,10,19,19
70,5,-9,14,10,22,0,13,10,12
88,-19,-18,5,2,20,-3,12,-4,11
66,-40,-33,-3,-12,10,-3,0,-18,8
24,-38,-31,1,-12,6,-2,0,-11,2
5,-42,-40,-4,0,-2,-8,1,-16,8
7,-60,-47,-21,-15,-21,-1,0,-31,17
38,-39,-30,-20,-26,-38,5,-7,-43,29
42,-26,-22,-16,-29,-34,-23,-16,-39,24
7,-16,-19,-29,-29,-46,-52,-18,-44,3
-5,-8,-7,-34,-32,-55,-61,-25,-48,-18
7,11,16,-14,-24,-30,-57,-29,-49,-19
30,37,40,3,-26,-24,-47,-37,-46,-17
5,50,41,4,-16,-33,-39,-24,-40,-21
-4,38,9,4,-6,-18,-13,-8,-15,-5
6,33,-33,-4,-8,3,2,14,11,17
15,34,-20,-7,-1,16,14,17,27,19
13,26,-71,-13,9,23,51,7,30,17
23,5,-149,4,26,23,54,18,37,22
43,17,-57,12,29,22,14,18,37,33
20,19,-8,1,-3,28,-2,14,48,31
-34,22,5,-9,-17,27,2,14,40,19
-67,0,12,-9,-20,16,2,17,33,16
-51,-13,0,4,-13,-4,5,11,33,25
8,-26,-23,14,-20,0,-2,-2,34,23
30,-68,-68,-28,-45,-4,-14,-14,20,3
7,-106,-65,-43,-59,-17,-22,-11,10,16
-9,-119,-92,-33,-51,-10,-21,-21,-5,26
-7,-110,-100,-19,-32,6,-13,-15,-23,31
-3,-95,-82,8,-3,34,-9,-2,-38,8
108,34,5,35,23,33,0,1,-50,8
189,165,107,50,30,23,29,12,-59,-19
113,99,34,48,23,19,24,7,-57,-25
87,39,2,44,31,7,-3,-7,-52,11
102,43,149,38,28,-5,-18,-10,-18,33
120,54,122,-10,5,-35,-12,-14,19,46
103,27,43,-52,-13,-47,7,-16,37,48
83,4,28,-42,-9,-28,1,-10,41,49
8,36,24,-44,4,-15,-1,5,39,15
-55,105,44,-41,19,-17,2,15,52,-24
49,108,64,-24,4,-23,-17,-7,28,-52
133,75,56,-23,-17,-23,-29,-5,6,-76
159,37,24,-32,-24,0,-17,-6,2,-36
66,17,2,-27,-23,0,8,-16,-15,-2
-99,11,7,-17,-20,-34,-6,-26,-41,-1
-221,9,7,1,-15,-41,-8,-28,-43,-6
-365,24,24,24,8,-13,5,-12,-27,-4
-389,24,12,41,35,21,29,18,-20,10
-270,1,6,50,47,41,62,42,-5,-3
74,-6,38,60,53,45,71,53,6,-4
280,-2,36,55,45,30,52,53,7,12
268,8,28,48,27,10,40,41,-5,22
92,7,10,29,2,-5,27,8,-16,12
-74,-14,-30,-2,-14,-13,15,-19,-31,8
-124,-47,-48,6,-6,-15,-9,-31,-37,44
102,-53,-41,1,5,0,-33,-19,-25,107
77,-84,-76,-22,-7,13,-23,-2,-4,94
-90,-78,-180,-42,-28,7,-18,7,2,62
-138,-51,-153,-27,-21,18,-35,0,5,15
-152,-36,-38,0,-9,23,-29,-3,3,-67
-150,-2,21,36,8,45,-6,20,1,-147
-127,-3,71,60,25,54,4,13,-3,-207
-146,-19,58,50,17,46,-2,-2,-8,-195
-92,1,33,27,-2,21,-10,-2,0,-119
-4,21,13,19,-12,8,-13,-12,15,-41
80,34,14,5,-14,12,9,-18,23,8
120,54,29,11,-15,25,30,-9,24,23
107,47,23,21,-1,37,38,10,49,30
122,31,11,21,-6,34,14,11,55,54
112,36,0,26,-9,19,19,5,59,68
-12,21,-9,20,-11,10,33,12,68,57
-146,-3,1,14,-5,12,35,23,81,22
-138,-33,4,2,-8,8,18,10,65,10
-7,-74,-24,-23,-38,-23,-13,-13,40,11
28,-45,-6,-30,-45,-29,-9,-20,22,-32
-45,-3,-26,-10,-22,-5,3,-33,2,-72
-74,-17,-82,4,-12,11,0,-31,-12,-76
-75,-28,4,-1,-16,13,-17,-15,-22,-88
-78,-19,30,6,-2,2,-21,-20,-35,-77
-76,-30,-18,10,10,-3,-14,-18,-41,-80
-65,-39,-1,9,15,5,-11,-1,-33,-49
-36,-15,-13,-10,7,0,-11,17,-17,-3
-18,24,-29,-19,4,7,-17,31,-32,9
-16,-14,-54,-29,2,17,-12,34,-41,-19
10,-76,-57,-45,-1,13,-6,37,-25,-6
35,-77,-34,-24,7,6,11,42,7,30
49,-75,-8,-2,0,-14,5,36,21,40
78,-39,7,7,-9,-45,-21,2,-16,20
67,18,39,16,-7,-49,-47,-15,-39,30
35,54,59,12,-3,-36,-46,-13,-42,26
16,134,99,9,-2,-40,-30,-3,-23,22
16,134,108,0,-18,-52,-51,-7,-18,30
8,30,78,-22,-30,-51,-60,-27,-28,49
-16,-32,45,-37,-25,-50,-66,-31,-40,51
-17,-50,33,-29,-21,-46,-62,-21,-11,58
-6,-70,13,-22,-18,-27,-40,-2,16,77
30,-48,8,-7,-3,0,-16,9,24,82
61,-15,29,8,11,15,-6,15,15,70
104,-18,27,35,21,38,7,14,24,53
64,24,31,44,32,45,26,33,35,2
0,140,54,32,32,43,35,28,47,-21
-11,203,46,20,13,41,26,9,36,-6
-19,193,72,19,1,37,28,6,21,6
-45,93,115,15,-1,23,5,-17,3,-4
-32,-61,108,22,-6,11,-9,-21,7,7
20,-73,57,13,-4,17,0,-9,31,40
9,-5,34,19,4,17,1,-2,45,35
-20,16,18,15,10,11,-3,-9,27,-4
-12,-1,-46,22,12,9,-10,-13,1,-44
-2,-46,-55,26,20,10,-8,-6,-14,-51
40,-51,-2,26,23,16,-7,-7,-33,-70
62,-7,-23,12,11,15,2,-6,-43,-71
9,-24,-83,-31,-18,12,6,10,-29,-45
-33,-63,-110,-60,-34,13,14,37,-7,0
-89,-68,-111,-56,-19,31,25,54,5,29
-110,-59,-77,-19,-3,18,21,44,0,34
-77,-8,72,4,-12,-6,-21,12,-29,8
-36,26,107,-4,-42,-31,-53,-14,-60,-12
10,9,51,-20,-59,-37,-54,-24,-60,2
76,-37,6,-39,-40,-24,-29,1,-45,25
212,-48,-11,-31,-21,-11,-23,26,-6,55
234,-35,10,-19,-11,-11,-19,24,2,53
101,8,16,-5,0,-9,-9,13,13,32
-33,58,12,-8,6,-5,17,10,11,14
-113,83,6,-22,1,-14,5,7,-13,-3
-108,41,-23,-29,-1,-11,-8,-1,-18,0
-104,13,-66,-36,-4,-5,-10,-13,-6,-33
-186,5,-11,-29,-10,1,-7,-14,5,-48
-193,-40,19,-12,-11,3,17,3,15,-40
-156,-69,5,-7,12,32,43,29,36,-40
9,-16,-35,-4,19,47,50,53,58,-14
89,-47,-55,-12,6,37,47,35,59,2
18,-42,-25,-5,9,20,39,7,51,20
-13,-30,0,3,35,9,36,-1,62,35
-18,-5,3,7,71,6,42,-3,54,40
17,46,-3,16,61,-2,64,3,55,49
8,12,-10,23,24,-2,59,1,18,23
27,6,10,16,-3,12,49,4,0,-4
172,52,40,17,-16,9,49,3,-14,-8
260,22,25,-5,-57,4,34,-7,-33,0
236,-18,9,-30,-80,9,15,-15,-46,-4
190,-10,-8,-60,-104,0,4,-13,-46,17
102,14,-8,-86,-127,-4,6,1,-39,50
-14,55,-15,-50,-30,-12,-22,14,-26,67
-144,0,-8,-7,95,-28,-46,-24,-43,46
-185,-59,-16,34,132,-25,-61,-56,-74,31
-111,-60,-39,44,113,-21,-41,-48,-81,15
29,-54,-47,22,68,-32,-5,-33,-65,9
127,-34,-37,3,45,-23,21,-13,-26,3
64,-28,-36,19,93,-1,23,-1,-16,-44
-22,0,-80,34,117,13,14,-2,-17,-62
-54,41,-5,54,127,16,7,-3,3,-43
-78,65,53,75,109,21,11,0,18,-28
-196,71,37,57,61,30,22,18,11,-59
-302,48,1,12,-5,21,10,12,-6,-56
-329,12,-18,-3,-45,9,3,-20,-15,-23
-283,7,-4,-14,-62,17,10,-25,-8,-16
-107,21,2,-33,-51,11,24,-14,0,-17
-108,13,-24,-37,7,0,34,-9,8,-18
-124,-22,-42,-38,56,-2,30,-3,0,-18
141,-38,-49,-37,45,-8,0,-12,9,-3
293,8,-57,-40,29,7,-12,2,22,18
128,-73,-77,-57,3,-1,-38,0,-25,10
57,-123,-92,-52,21,-13,-52,-8,-61,20
81,-109,-84,-53,5,-16,-40,10,-46,40
108,-66,-52,-53,-14,-21,-24,23,-5,55
159,0,13,-12,2,-6,1,16,34,46
222,37,72,9,23,7,10,9,44,20
167,121,90,14,26,3,-8,10,39,24
128,145,104,16,20,4,-11,7,36,53
52,37,71,28,24,8,1,12,35,69
16,-10,23,19,18,8,12,12,43,69
57,33,-1,0,0,9,6,10,44,72
19,69,2,-4,-6,-18,-11,-4,19,28
-93,41,12,-6,-7,-34,-29,-22,-11,-49
-255,26,34,9,0,-13,-27,-12,-29,-174
-205,37,52,21,-14,-7,-28,-12,-32,-182
-99,31,43,15,-29,-15,-44,-28,-41,-109
-91,14,30,4,-33,-28,-34,-33,-52,-91
-46,20,6,22,-23,-35,-17,-24,-47,-76
45,30,15,20,-12,-27,-30,-15,-38,-52
53,15,22,28,2,-10,-5,-13,-30,-51
119,0,7,14,1,-11,22,-9,-25,-21
165,5,5,15,-3,0,24,-4,-19,15
98,11,21,32,4,13,8,8,-3,30
39,1,24,41,5,14,5,12,20,46
-37,0,1,34,15,26,9,18,27,46
-111,13,-12,49,25,29,15,37,25,44
-72,3,-51,47,27,29,18,29,14,17
-58,-20,-37,29,31,29,25,23,11,-36
-47,-33,-30,0,20,20,30,17,12,-53
-33,-22,-40,-16,-2,9,20,12,13,-38
-76,-47,-58,-27,-17,-2,12,7,24,-32
-78,-59,-48,-22,-7,0,15,0,31,-37
-45,-21,-25,-7,1,0,26,-12,30,-26
-11,0,4,14,-2,6,29,-11,23,-24
21,13,27,17,-7,7,11,-5,15,-10
88,29,11,23,-9,0,-15,-14,23,34
156,48,-74,3,-16,0,-21,-8,23,64
127,74,-61,-11,-25,2,-18,4,14,71
50,130,-2,-22,-26,0,-9,23,7,79
62,55,-38,-48,-44,-19,-16,0,-8,93
198,19,-59,-57,-57,-37,0,-14,-26,102
155,42,-4,-26,-47,-36,32,7,-41,86
207,41,0,-6,-36,-17,53,16,-36,69
197,13,-41,-6,-58,-5,42,0,-36,48
135,-16,-1,-5,-63,11,36,3,-30,28
149,-80,-43,-38,-89,22,16,3,-33,27
-3,-60,-53,-63,-141,-2,-27,-25,-14,59
-155,18,25,-70,-148,-11,-33,-30,-16,95
-310,0,25,-22,-44,1,0,-16,-27,61
-398,-38,20,21,4,14,34,-7,-24,6
-314,-46,30,36,27,18,29,-3,-20,-49
-120,-25,83,50,56,24,16,-20,-22,-62
141,23,102,41,48,43,21,-13,0,7
159,36,91,38,30,63,47,18,38,52
-6,2,58,31,-3,75,73,41,74,24
-79,-26,20,6,-37,78,100,63,78,-4
-102,-27,5,-20,-16,62,105,70,92,-29
-63,-4,17,-5,13,25,74,47,75,-28
-53,-18,19,72,96,0,9,-7,21,-72
-67,-42,-26,119,212,-8,-65,-57,-23,-110
-51,-20,-29,108,169,-14,-82,-58,-9,-85
-17,12,33,69,51,-17,-65,-46,0,-72
13,20,-2,35,-32,-8,-48,-42,0,-63
45,5,-14,-2,-77,-1,-24,-37,-10,-48
83,2,-2,-54,-122,-16,-15,-21,-24,-50
99,-8,-32,-79,-97,-31,-34,-20,-14,-38
49,-37,-50,-71,12,-37,-55,-7,-26,-38
9,-48,-18,-43,58,-36,-54,4,-55,-39
7,-28,1,-31,14,-39,-21,16,-39,0
6,-6,0,-38,-37,-51,-9,6,-22,18
6,-8,-5,-34,-33,-35,-1,14,-5,35
-87,-53,-12,16,42,-11,0,26,3,6
-167,-51,-9,64,115,3,0,33,14,-40
-122,-46,-21,37,88,10,-15,38,20,-19
-73,-37,-25,-2,39,4,-13,42,29,8
-67,-35,-14,10,15,7,-3,29,27,-5
-51,-24,-16,7,0,-5,-22,19,26,-1
-27,4,-15,5,-5,-11,-36,9,15,18
3,33,0,1,-17,-18,-40,-9,11,31
64,47,-24,-9,-72,-44,-44,-25,15,37
120,76,-70,-31,-134,-50,-36,-22,19,8
141,77,18,-49,-178,-26,-8,-13,20,-19
139,71,64,-67,-232,-6,20,0,32,-13
84,47,45,-102,-256,-4,23,32,30,11
40,30,42,-115,-219,-8,35,53,52,64
45,31,-31,-90,-111,8,28,48,53,115
-26,5,-138,-36,-2,25,9,21,7,99
-87,-50,-75,33,153,-2,-4,-25,-32,66
-26,-38,-12,2,94,-61,-19,-54,-40,71
74,50,10,-55,-36,-67,-5,-33,-40,87
100,92,-9,-51,39,-21,-10,-15,-37,64
79,56,-35,10,175,11,-19,-19,-45,-6
-1,45,33,65,150,26,16,-11,-32,-44
-86,3,54,96,148,36,29,-11,-38,-87
-68,-40,34,89,66,10,0,-27,-65,-113
-29,-35,14,23,-16,-3,12,-8,-45,-95
-65,-26,6,3,67,-9,13,-10,-26,-81
-77,4,-21,72,241,-36,-46,-42,-47,-78
-42,12,1,57,209,-56,-93,-77,-55,-34
-52,-26,7,6,67,-28,-74,-50,-29,9
-84,-36,6,-13,-36,-25,-47,-22,-1,41
-144,17,36,-16,-42,-31,-40,-27,-21,29
-138,27,47,-7,-14,-13,-36,-34,-34,-7
85,47,22,-29,-54,-17,-13,-23,-21,7
243,73,6,-33,-76,-6,35,17,22,26
96,64,16,21,9,43,93,61,80,-7
67,77,57,104,146,71,91,54,78,-26
101,74,35,94,169,34,73,48,61,50
129,78,48,50,77,19,84,49,80,107
0,99,73,76,31,17,51,11,55,64
-88,94,58,40,-13,-1,0,-18,32,49
-29,56,21,-46,-63,-31,-40,-30,5,104
34,-18,-33,-73,-56,-54,-56,-51,-10,89
195,-17,-1,-30,-16,-6,-15,-12,11,11
358,2,22,0,15,24,15,17,20,6
-31,-72,-38,-19,27,9,-4,3,-15,-33
-376,-163,-165,-16,60,4,-16,-5,-44,-115
-373,-198,-151,40,116,5,-7,-5,-61,-171
-123,-166,-45,27,55,-25,10,-13,-64,-108
-47,-109,-21,7,40,-58,69,18,-31,-79
-98,-53,-40,13,72,47,127,60,-9,-94
-110,-42,21,16,57,237,110,53,3,-26
-39,-27,38,5,19,330,65,32,18,48
48,-24,19,-19,-20,288,33,23,20,83
110,-49,-38,-52,-71,107,3,3,-2,84
93,-35,-37,-87,-126,-79,-54,-30,-36,21
-28,-43,-22,-110,-185,-156,-86,-51,-72,-99
-115,-26,9,-88,-232,-129,-61,-43,-77,-182
-99,30,40,-68,-268,-57,-16,2,-42,-162
-77,44,45,-80,-320,-10,21,37,30,-108
-32,30,22,-106,-319,-33,1,42,48,-50
67,44,0,-127,-183,-88,-16,29,54,42
151,66,16,-101,-30,-94,-9,26,78,99
152,67,26,-72,48,-71,32,39,92,81
95,51,17,-3,104,-33,44,17,87,41
64,38,-6,26,31,-22,35,-3,38,-10
-16,12,0,66,37,-3,35,-5,0,-91
-121,25,46,92,-41,10,66,32,15,-137
-120,37,59,-17,-220,15,119,91,59,-70
-68,31,63,-66,-243,49,115,90,35,1
-8,23,48,-22,-138,73,33,33,-15,7
49,43,53,34,-82,71,-9,-3,-70,-10
126,79,78,14,-205,51,100,38,-33,0
198,122,63,-77,-402,10,250,96,28,61
224,74,-5,-65,-264,16,182,51,-8,50
224,5,-85,-91,107,124,63,-5,-35,52
192,-44,-122,-144,180,226,-30,-41,-42,104
63,-40,-86,18,200,230,-129,-120,-112,73
-20,-57,-135,127,206,104,-181,-173,-154,13
-17,-45,-105,145,307,-75,-218,-193,-159,-28
76,-4,-32,87,221,-277,-282,-204,-148,4
231,40,-18,-29,-111,-360,-261,-171,-102,111
356,87,-30,-123,-299,-272,-173,-101,-52,194
372,87,1,-150,-328,-151,-113,-39,-15,175
473,105,6,-109,-265,-125,-84,15,54,231
568,176,32,-73,-342,-103,-3,98,147,292
394,141,17,-77,-341,-60,83,143,159,162
-22,85,-66,-24,129,31,141,144,123,-66
-507,-57,-60,202,807,77,132,92,63,-262
-776,-189,-60,346,1002,30,76,19,15,-310
-809,-225,-60,262,743,33,44,20,30,-251
-644,-257,-55,162,362,33,46,54,71,-109
-405,-193,5,143,208,-15,20,21,53,-80
-144,-20,127,34,-252,-21,4,-5,10,-79
44,118,159,-111,-589,78,64,63,71,20
106,200,150,-197,-731,86,48,67,85,86
78,171,178,-219,-699,27,23,49,65,113
-17,50,21,-272,-327,-7,0,61,37,49
-3,19,-66,-252,352,13,-30,120,44,25
-58,-26,-23,61,843,53,-55,117,-29,-53
-231,-221,-127,445,1256,-29,-172,-64,-219,-192
-292,-289,-311,384,745,-250,-195,-169,-297,-251
-189,-211,-344,211,303,-275,1,-120,-222,-174
23,-87,-166,226,262,-32,312,-98,-229,-179
297,64,-32,205,190,389,404,-102,-207,-126
452,143,5,144,168,667,188,-13,-66,-21
369,101,-42,31,-27,580,13,52,54,11
190,70,-113,-77,-169,304,-97,-55,34,39
-70,-49,-156,-195,-261,-52,-179,-138,-37,60
-359,-202,-179,-206,-231,-210,-195,-125,-55,-2
-421,-329,-216,-188,-90,-188,-160,-45,27,68
-370,-305,-153,-96,79,-194,-157,1,77,91
-427,-175,-8,21,96,-181,-97,-3,41,-86
-458,-44,118,94,150,-175,-50,1,11,-221
-337,-41,127,100,220,-227,-62,71,98,-106
-184,-61,93,68,106,-252,-2,161,214,59
-73,26,98,52,11,-185,124,190,247,105
2,78,-1,25,-10,-75,209,179,188,80
20,76,40,28,5,2,282,136,89,55
-25,34,70,20,19,-4,213,60,27,63
-84,41,78,-5,-29,-32,29,1,-4,78
0,46,62,-2,-55,-45,-150,-28,-13,93
142,32,96,48,-16,-46,-228,-41,-50,17
130,-1,72,56,-36,-45,-199,24,-62,26
259,88,95,11,-144,-87,-191,65,-54,58
225,90,96,19,-135,-89,-170,26,-43,-2
144,-10,37,0,-71,-51,-120,-8,-37,-61
92,-47,12,-101,-143,-2,-54,12,19,3
137,-49,-12,-164,-198,10,0,30,107,118
189,-58,-41,-162,-172,14,114,29,100,194
161,-27,-80,-148,-132,35,144,8,73,220
104,52,-99,-148,-128,167,96,4,48,216
34,61,-25,-132,-96,322,52,19,37,214
142,-11,0,-85,-37,338,21,14,36,167
192,12,42,-48,-101,214,23,39,48,82
55,99,102,-107,-394,47,41,84,79,2
126,83,94,-124,-446,-66,-1,65,49,-33
126,18,52,-95,-208,-104,-45,32,30,-89
30,31,37,-82,-58,-104,-33,16,16,-129
32,55,7,20,147,-94,-59,-13,-1,-77
-53,38,40,164,267,-162,-139,-39,6,-71
-137,41,95,201,297,-199,-178,-67,-6,-167
36,42,95,155,308,-154,-141,-64,-8,-148
161,11,57,21,85,-70,-23,15,54,-51
11,-37,35,-60,-91,-31,55,61,92,18
-121,52,109,-7,-189,-45,25,39,38,-12
-180,57,140,100,-141,16,1,-5,-40,-132
-143,-57,45,128,-129,124,-9,-21,-80,-137
21,-29,-10,-11,-334,199,32,49,-9,-6
134,42,13,-108,-356,217,66,106,48,89
134,42,33,-63,90,189,51,92,26,81
125,16,3,-2,528,83,-12,32,-15,48
80,-26,-41,19,494,-25,-96,-42,-69,-3
43,-41,-65,-45,-13,-98,-105,-29,-48,16
64,0,-57,-119,-327,-103,-37,24,17,82
51,52,36,-55,-256,-51,-7,10,7,88
33,69,97,70,-41,-70,-26,-34,-34,104
96,89,124,99,98,-102,-30,-32,13,203
212,154,175,-17,-116,-85,28,22,64,278
224,200,134,-159,-441,-15,114,89,115,228
151,174,112,-217,-487,51,131,128,142,139
17,67,90,-93,-287,55,90,94,111,72
-223,-121,10,280,362,37,-32,-84,-64,-163
-376,-224,-51,421,891,24,-84,-201,-178,-367
-318,-168,-64,238,719,1,-33,-206,-140,-323
-143,-64,-22,44,114,36,43,-187,-56,-148
-18,6,30,0,-276,179,235,-71,-34,-42
-41,11,55,76,-199,304,467,62,-78,-72
12,54,39,-12,-204,252,555,285,-72,-60
125,80,-7,-172,-231,191,664,601,-1,10
71,-50,-130,-215,82,458,845,741,-7,-16
-31,-170,-214,-71,541,783,787,465,7,-82
-180,-247,-235,39,448,804,311,92,20,-199
-175,-157,-115,53,209,765,-91,-204,-10,-194
-71,-96,-56,20,72,655,-240,-294,-75,-57
-133,-212,-156,-59,0,331,-351,-324,-205,-46
-251,-262,-211,-165,-179,-143,-525,-355,-234,-81
-322,-167,-165,-169,-237,-477,-631,-382,-193,-134
-178,-80,-117,-172,-325,-592,-505,-287,-73,-11
-85,-65,-121,-137,-305,-613,-253,-203,-1,33
-66,-79,-62,37,-51,-684,-236,-231,-44,36
-55,-41,33,220,300,-789,-311,-237,-88,64
-40,8,113,353,575,-815,-402,-220,-139,49
61,97,147,351,325,-645,-465,-214,-188,79
137,150,76,226,64,-493,-521,-199,-152,132
172,158,103,63,-90,-435,-256,-75,-48,184
181,145,140,19,-121,-101,327,47,70,234
180,139,160,49,-41,380,638,173,224,248
208,190,216,115,158,657,430,170,280,244
187,185,201,104,251,583,75,76,152,168
40,68,104,18,87,237,-103,-2,23,23
-95,-14,31,-62,-49,-75,185,-32,-4,-53
-127,-45,-44,-135,-138,16,1218,4,-2,-63
-103,-13,-129,-220,-267,217,1188,-39,-71,-115
-133,-44,-92,-280,-342,336,308,-156,-183,-243
-72,-60,-65,-260,-352,427,-178,-180,-197,-243
172,69,1,-265,-479,369,-264,-58,-62,-58
398,215,76,-251,-612,2,-400,15,55,126
413,252,154,-77,-317,-233,-629,-32,55,163
170,92,127,211,424,-162,-750,-102,-22,42
-188,-218,-93,261,745,-132,-626,-156,-113,-135
-485,-399,-213,94,384,-342,-513,-163,-147,-235
-378,-187,16,120,215,-677,-585,-88,-51,-146
-16,38,173,218,146,-794,-565,42,97,89
150,94,183,251,167,-607,-400,94,109,170
133,18,60,169,137,-400,-267,87,113,180
106,-66,-35,134,150,-376,-212,134,200,272
29,74,40,181,146,-344,-138,147,187,184
-24,223,237,195,92,-219,-72,74,80,14
-12,177,154,106,22,-135,-9,31,52,-17
22,77,33,-33,-98,-111,98,59,132,91
14,42,57,-69,-131,-42,162,56,189,88
57,88,118,-7,-82,33,150,7,141,25
131,75,115,-38,-118,143,199,47,136,128
137,109,106,-76,-194,290,300,78,136,114
144,162,161,-46,-342,286,243,87,132,40
137,111,138,-19,-484,106,113,72,80,58
77,86,113,-3,-439,-92,0,54,71,68
-40,7,8,0,-109,-89,-9,1,15,28
-192,-173,-121,163,323,9,-29,-108,-175,-104
-227,-250,-197,121,365,11,-49,-106,-210,-126
-89,-130,-171,-65,252,17,-38,-7,-87,-34
28,-3,-85,-110,84,56,46,61,-46,-24
37,62,-35,-53,-51,76,124,143,-47,-46
-5,89,-8,-6,-36,36,168,192,-47,-70
-35,116,63,-43,133,2,227,157,-74,-68
-59,73,19,-78,83,31,224,79,-26,38
-2,88,60,-66,-225,364,276,66,64,119
97,135,145,15,-347,923,334,55,56,99
118,133,149,72,-123,1111,295,69,14,82
161,165,83,-127,-273,613,335,170,35,114
109,36,-76,-316,-573,14,429,70,11,102
-160,-198,-274,-130,-89,-185,158,-282,-220,-107
-377,-371,-330,109,800,-156,-168,-460,-418,-310
-254,-295,-248,50,698,-62,-277,-271,-280,-208
-102,-141,-195,-74,49,-5,-171,94,-8,-36
-86,-71,-163,-83,28,-105,99,253,51,-19
-159,-126,-235,-175,146,-359,184,-146,-163,-133
-272,-253,-341,-328,-162,-501,-16,-672,-357,-276
-300,-306,-247,-424,-576,-373,-51,-933,-422,-342
-225,-216,-162,-454,-775,-197,320,-776,-448,-311
-101,-124,-154,-444,-984,-245,830,-197,-329,-208
121,21,-88,-308,-883,-136,1304,506,34,23
333,163,45,69,-125,108,1121,764,361,231
454,213,73,444,739,153,16,633,624,308
385,170,136,493,1111,262,-607,317,487,217
198,-22,-7,223,824,467,-666,111,133,90
70,-121,-124,-9,392,602,-659,149,10,85
-120,-8,3,1,173,528,-609,115,-161,-108
-232,-84,-11,22,153,421,-504,-55,-299,-249
-203,-146,-115,13,202,362,-414,-369,-234,-181
-82,0,-9,109,177,174,-392,-595,-38,-76
-38,110,163,200,103,-210,-349,-456,51,-19
-45,123,162,210,45,-381,-290,-120,34,0
44,163,111,189,-124,-599,-376,157,-17,34
103,172,130,68,-244,-712,-379,303,-24,47
185,168,163,62,53,-567,-219,384,79,132
254,171,156,101,283,-443,-85,370,126,252
241,251,163,109,198,-378,-62,288,37,262
161,262,132,122,118,-325,-140,231,82,265
170,160,66,25,-34,-296,-155,140,162,330
198,185,116,-58,-140,-263,-110,18,204,295
153,222,161,-108,-221,-189,-12,12,199,262
91,170,146,-91,-155,-94,63,67,155,209
-3,95,106,12,88,44,249,-39,85,104
-128,37,39,19,124,243,608,-165,41,-32
-191,24,-35,-17,-44,223,436,-248,4,-163
-220,-32,-99,66,-50,34,100,-344,-136,-307
-229,-83,-119,-7,-103,-45,-49,-330,-219,-363
-144,-31,-67,-86,-174,9,-48,-15,-81,-228
-78,30,-41,-113,-187,24,-80,404,16,-131
-9,27,-63,-156,-187,-71,-219,216,-1,-95
92,28,-64,-63,-69,-126,-237,-120,-9,-33
117,52,-93,131,236,-107,-228,-200,38,-20
192,143,-52,163,308,-60,-230,56,191,49
315,312,210,197,262,-11,-177,5,221,128
292,328,274,201,157,95,-90,-246,124,58
215,161,164,80,-56,216,60,-162,107,-15
130,20,70,-7,-195,245,132,0,84,-44
51,-20,-44,-105,-221,207,110,-76,23,-56
-69,-102,-185,-173,-197,118,178,-592,-136,-44
-240,-111,-111,-62,15,114,474,-1080,-308,-64
-296,15,54,97,255,182,952,-1102,-326,-60
-158,72,85,194,290,172,842,-171,-71,100
-41,4,-112,-24,61,40,351,1144,135,93
-153,-166,-286,-369,-216,15,-60,833,28,-165
-84,-71,-149,-441,-166,224,-298,-63,2,-166
158,125,0,-513,-448,255,-384,-197,-64,17
-26,-101,-312,-902,-1294,31,-26,552,-378,-86
-669,-665,-820,-1215,-1428,-272,328,963,-982,-560
-1009,-938,-964,-727,-530,-418,491,560,-1437,-975
-793,-743,-703,-46,372,-238,637,721,-1162,-816
-354,-336,-314,121,490,232,1293,1489,-524,-363
-126,-71,56,408,692,799,2050,941,-247,-316
109,21,222,615,877,1302,2023,-227,-1,-60
480,230,306,426,399,1279,957,-302,522,493
433,441,378,252,-69,974,627,-377,890,473
350,483,417,239,-31,652,63,-955,752,444
196,366,315,270,229,286,-831,-1531,282,253
74,224,226,314,579,231,-1557,-1701,-106,77
92,50,78,164,214,217,-1645,-949,-198,135
-94,-268,-209,-121,-320,-286,-1316,385,-230,71
-285,-473,-385,-283,-329,-711,-1137,906,-36,-53
-184,-271,-176,-41,124,-441,-936,747,327,34
-103,-25,68,183,434,25,-894,331,477,137
-178,33,66,65,202,109,-1050,-259,480,38
-255,48,50,-33,-12,-196,-536,-510,192,-189
-412,-59,4,-33,-131,-488,63,-76,-173,-410
-412,-80,18,-33,-43,-661,-134,587,-358,-456
-219,-31,17,-124,-80,-595,-112,722,-219,-372
47,71,107,-40,74,-338,244,60,128,-134
96,42,135,118,184,-455,180,-217,316,67
175,32,131,196,186,-651,-159,-185,697,246
326,171,217,155,55,-476,-54,-152,686,353
183,115,159,35,-154,-47,215,-465,198,205
-39,-44,-51,-156,-332,239,-60,-724,-176,-27
-154,-152,-199,-334,-283,320,-178,-633,-218,-159
-330,-327,-428,-608,-453,260,172,365,-44,-252
-537,-517,-644,-801,-779,59,573,1330,-160,-447
-474,-420,-439,-502,-609,-63,750,922,-598,-520
43,138,151,104,-247,-31,655,323,-626,-103
546,608,581,437,-86,-33,334,222,-345,364
526,538,542,493,257,-288,-110,776,-214,314
288,281,312,347,510,-495,-630,912,-135,12
263,168,197,258,465,-426,-715,242,188,36
450,301,229,281,334,-244,-398,-659,546,342
431,271,160,235,134,-284,-9,-1447,285,405
168,121,127,158,-38,-337,264,-973,26,235
-128,-110,-29,-110,-264,-362,158,-274,-260,-56
-136,-112,-62,-242,-359,-211,73,-672,-251,-25
204,290,327,58,-117,181,23,-1288,-70,242
512,521,494,273,78,345,32,-662,446,426
609,414,315,220,85,188,346,687,778,466
512,267,170,89,-24,-14,-71,731,631,400
308,76,43,-92,-83,105,-220,417,724,417
28,-154,-221,-420,-406,277,374,309,557,282
1,-153,-262,-354,-630,508,1462,-73,226,99
102,-97,-175,51,-279,535,2119,-438,-79,-57
68,-154,-241,158,331,349,1440,232,-318,-254
-217,-312,-404,-98,451,549,411,1340,-524,-547
-531,-513,-552,-510,-261,958,-695,997,-574,-683
-500,-267,-227,-436,-686,955,-1465,436,-119,-467
-157,112,143,-164,-517,401,-1551,159,594,-8
-114,23,24,-285,-243,-121,-1130,-101,573,62
-362,-211,-200,-311,26,-366,-469,-838,169,-201
-314,-208,-149,95,678,-674,-69,-1394,-122,-247
99,-51,-65,193,882,-1104,40,-1444,-46,124
329,127,-8,59,259,-1127,342,-975,87,364
281,222,129,35,-100,-859,236,-365,-93,288
264,299,231,134,20,-311,-121,289,-245,138
330,329,300,343,404,170,-76,1014,-216,148
340,330,301,369,548,319,351,1659,-136,174
553,644,632,441,513,399,475,1588,330,544
590,748,772,402,316,575,701,304,639,843
-28,222,228,-37,-231,333,1277,-817,-20,298
-631,-259,-189,-111,-352,-78,480,-975,-884,-439
-784,-403,-294,-62,-209,-334,-583,257,-1080,-749
-643,-395,-332,-316,-471,-315,-826,1653,-590,-542
-358,-249,-261,-355,-421,228,-204,1121,-163,-170
-126,-184,-213,-201,64,224,-267,-301,-121,130
-108,-274,-192,-133,267,-230,-520,-1343,-315,219
45,-86,-8,27,140,-306,-27,-1201,-530,222
272,250,193,190,115,-180,-435,-374,-308,256
445,346,343,240,155,-175,-536,-739,45,343
558,429,528,436,318,-10,-122,-1028,643,472
499,424,505,361,264,137,-307,314,1330,377
279,281,306,73,59,206,-281,845,830,43
157,246,183,-167,-277,244,-14,689,501,-19
123,369,201,-222,-407,122,-232,552,388,1
-305,27,19,-323,-614,-214,-812,95,-182,-335
-740,-417,-267,-328,-610,-336,-601,-25,-579,-669
-811,-573,-346,-31,-20,-114,588,399,-886,-847
-514,-452,-265,0,92,152,1125,1042,-743,-551
-297,-425,-266,-140,-28,165,799,2550,429,-54
-671,-716,-504,-354,-90,-277,229,4001,1180,-287
-830,-666,-405,-223,225,-220,667,1979,1371,-532
-884,-708,-493,-367,87,35,683,-2754,237,-787
-386,-317,-230,-196,131,249,-296,-4236,-318,-383
241,141,101,56,228,169,-873,-2130,261,340
640,384,240,127,214,108,-239,-353,632,728
738,464,278,51,27,-74,193,-761,510,719
657,353,145,-109,-236,-210,292,-1079,33,529
758,381,150,-107,-222,129,635,85,-596,348
794,463,281,21,-54,300,185,1407,-1073,323
933,729,639,475,393,120,-816,964,-891,669
767,623,611,602,555,-27,-300,1430,-514,722
13,8,91,137,136,-52,1062,2346,-1023,-49
-763,-639,-429,-258,-175,98,1242,-254,-1809,-797
-338,-226,-91,62,122,328,-257,-3143,-595,-15
306,245,219,108,12,-4,-1034,-3070,519,556
-159,-36,-137,-330,-534,-330,-601,-1269,372,-219
-451,-273,-254,-512,-726,-116,-330,116,417,-548
-37,-114,-79,-513,-752,304,-155,-182,230,-177
139,123,195,45,-277,542,-116,-597,310,175
103,307,471,835,795,407,-124,-326,414,242
-67,128,338,850,1209,22,-360,395,374,94
-323,-223,-31,323,832,-60,-191,763,271,-74
-655,-601,-499,-302,37,-48,677,551,-116,-484
-831,-729,-696,-423,-358,-163,1181,-665,-548,-831
-612,-448,-373,-115,-173,-63,1394,-1830,-943,-766
-87,43,157,379,447,368,1101,-690,-636,-215
120,47,126,278,354,364,474,3016,769,321
-202,-420,-390,-297,-282,-51,93,1360,294,-186
106,-173,-115,-185,-224,176,203,-2039,-474,-354
389,-8,-76,-359,-503,-87,12,-1995,15,8
142,-117,-319,-784,-1011,-469,-180,636,228,23
-12,48,-96,-453,-579,-130,-141,-289,-937,-84
-91,154,160,186,376,130,-728,-715,-1260,79
-272,28,57,190,463,60,-1299,1041,-760,67
-111,106,89,180,523,179,-704,513,-280,-17
323,283,311,245,451,-75,-1164,95,420,162
778,541,511,358,230,-254,-1321,412,1233,406
956,517,463,376,140,-370,-583,127,1216,529
921,405,405,409,73,-442,-186,121,759,543
817,392,418,454,195,-382,-383,336,691,656
475,244,325,330,243,17,-74,252,812,676
211,289,428,396,276,626,567,349,756,332
212,310,433,381,399,972,516,434,645,225
268,232,279,211,533,1190,309,458,494,194
105,73,103,29,107,989,164,568,364,145
-24,-2,-16,-135,-336,588,148,576,142,74
42,-14,-36,-211,-480,224,170,246,-129,106
-70,-396,-335,-478,-566,202,-120,-201,-335,237
-79,-650,-554,-635,-669,-250,-521,-854,-678,272
316,-244,-124,-280,-450,-1108,-1172,-985,-662,669
269,-92,-13,-165,-143,-1248,-1027,-343,-421,699
-336,-491,-471,-630,-586,-1123,60,-383,-178,219
-404,-374,-313,-457,-559,-579,751,-1517,-219,60
-786,-426,-311,-191,-145,-560,374,-733,-429,-447
-1724,-880,-687,-545,-459,-805,719,936,-742,-1432
-1645,-755,-568,-330,-127,-354,1793,1242,-515,-1544
-197,306,482,648,782,626,979,-746,-504,-601
918,1057,1175,1146,1144,762,-343,-1413,-319,274
850,563,550,382,256,-79,-666,561,763,436
685,198,135,-81,-339,-533,-1384,1305,1304,457
495,141,106,-21,-173,-439,-1224,910,645,202
228,227,179,-42,-233,-118,-678,391,74,-142
-47,143,116,-344,-749,201,-298,-461,32,-293
-176,-85,-58,-501,-1331,253,208,-658,64,-125
-658,-534,-342,-100,-561,223,955,1067,-476,-379
-1528,-1215,-825,169,900,290,1448,2167,-1763,-1285
-1347,-894,-456,283,1090,176,1016,630,-2255,-1416
-362,-35,267,446,601,247,1910,-1307,-585,-524
-395,-336,-280,-350,-275,-197,2658,269,408,-853
-1477,-1640,-1756,-1704,-1323,-1236,2579,1160,-674,-2296
-738,-1094,-1147,-972,-93,-32,1938,-3821,-1295,-1522
1158,782,784,700,1237,1374,-363,-1852,866,1101
1410,1319,1339,1121,768,795,-1776,1962,2403,1957
758,1031,1121,1230,692,-170,-2008,602,1796,1208
77,248,301,456,32,-654,-1321,-395,989,458
-9,-4,56,113,-208,-484,-1353,-1705,261,215
-165,-258,-178,-53,-258,-564,-1117,-306,-44,3
-182,-334,-248,-127,-315,-556,-572,2264,196,-19
327,185,287,337,163,218,-418,-298,324,311
950,722,778,728,501,693,-1204,-1178,662,953
1015,648,605,402,109,272,-1531,524,1041,1264
547,478,369,277,5,-11,-1120,984,733,782
208,327,294,313,295,130,-391,766,433,357
189,250,308,269,345,346,146,372,472,342
51,133,204,243,256,254,220,-334,259,220
-99,-82,-1,128,120,191,368,-605,23,77
-130,-207,-141,-65,-69,206,330,-11,-208,30
-115,-207,-141,-134,-147,268,192,689,-396,82
-163,-261,-154,-111,-78,364,-255,1422,-208,77
-276,-355,-283,-213,-172,352,-448,621,-387,-170
-168,-150,-62,92,10,158,-145,-717,-406,-288
4,110,258,404,287,-15,-138,-662,55,-179
336,360,391,264,1,-144,-375,86,232,133
427,417,302,23,-65,163,-182,226,146,166
142,120,39,-16,-68,539,123,366,257,40
54,21,-21,106,308,336,-13,549,471,91
129,149,59,-20,213,-35,-302,438,676,195
31,101,-15,-467,-736,-323,-392,85,433,60
24,-38,-180,-674,-1171,-490,-335,-571,16,39
-65,-239,-395,-701,-1148,-474,105,809,-198,-38
-625,-786,-925,-820,-904,-480,764,2792,-807,-643
-864,-911,-934,-495,-305,-335,1284,565,-1398,-961
-450,-499,-493,-206,-8,-31,1445,-804,-749,-478
-128,-141,-175,102,429,-79,1553,-829,-110,-144
91,78,82,371,580,-267,74,-1082,131,102
198,181,128,467,716,-388,-1425,-1538,42,192
-198,-165,-278,134,328,-694,-1220,-1041,-472,-188
-872,-828,-872,-554,-454,-836,-663,1381,-70,-623
-1004,-851,-844,-655,-545,-516,43,887,-495,-801
-518,-371,-347,-215,-134,301,1918,-1157,-622,-448
23,-4,53,144,221,876,2993,-1223,-37,231
545,428,458,477,595,930,1907,-1632,679,896
830,676,659,635,990,961,525,-717,1348,1210
858,663,611,525,937,812,-292,1281,1487,1187
807,553,480,246,447,592,-1015,1584,864,947
715,521,387,-83,-498,658,-1181,10,-156,486
290,66,-84,-456,-1063,456,-1154,-1550,-1259,-310
252,-185,-380,-481,-851,-33,-1077,-2495,-1807,-691
578,218,-16,-43,-225,-607,-608,-1647,-1685,-694
-25,-422,-636,-478,-511,-1772,-755,2492,-956,-983
85,-383,-661,-321,-495,-1510,-1160,1473,-438,-692
1376,887,439,838,722,-318,-1559,-1029,636,532
1489,1073,602,829,953,122,-919,386,822,636
590,406,271,246,357,-37,-391,2532,643,138
-479,-406,-234,-286,-288,-225,-62,1240,209,-524
-797,-268,14,3,-176,154,642,-688,200,-289
-859,-10,223,357,182,432,1075,-162,658,162
-1018,-385,-132,380,561,394,1325,93,694,21
-1047,-665,-293,344,677,394,1438,-724,433,-168
-966,-566,-302,75,455,297,581,-1589,-407,-402
-519,-113,-27,5,107,-139,-1486,-410,-447,-135
-490,-245,-259,-329,-344,-509,-1318,905,88,-5
-74,-6,-78,-68,-11,-13,-399,-33,436,170
534,219,69,110,153,60,-257,-326,840,399
908,184,68,-52,18,-366,-894,-211,193,418
1008,106,-47,-257,-284,-477,-483,2503,12,395
920,217,26,-332,-498,-143,608,490,-178,356
731,336,80,-455,-794,-330,904,-2325,-650,391
42,-60,-312,-833,-1124,-848,692,-931,-629,7
-417,-257,-374,-600,-591,-389,574,86,-278,-315
-386,48,98,325,601,506,-347,1397,133,-59
-461,264,370,579,724,512,-1144,1977,238,232
-240,444,494,337,260,354,-763,1184,26,446
-233,373,359,223,-114,493,334,185,-35,179
-571,-51,65,174,-79,436,1419,-688,-254,-570
-706,-475,-230,254,500,144,1075,-1830,-368,-865
-749,-685,-439,167,783,249,-341,-1532,-247,-640
-101,-13,148,564,1009,642,-960,-45,250,72
318,344,373,465,565,419,-564,670,658,336
146,318,310,218,10,92,-194,602,571,-19
-56,81,121,115,-251,-96,92,-45,227,-311
85,-14,-46,-26,-279,-276,216,-928,-25,-67
170,13,-193,-238,-302,-77,219,214,-198,101
-19,-169,-307,-282,-79,359,424,1321,-291,-48
1,-222,-232,-117,94,601,628,-491,-321,100
233,-90,-197,-193,-341,413,1209,-1057,-189,137
471,86,-68,-371,-505,385,1564,-821,-83,76
752,349,246,-194,-420,535,961,-581,157,460
235,23,-33,-10,-120,64,-482,386,58,354
-607,-533,-528,-145,-15,-395,-1658,-260,-356,-401
-888,-635,-647,-331,-350,-557,-1117,610,60,-701
-914,-595,-536,-177,-143,-854,403,1722,-312,-972
-939,-554,-413,-47,197,-1185,1565,1167,-1076,-1063
-1500,-1092,-937,-658,-323,-1309,3198,-1486,-2062,-1580
-1925,-1541,-1367,-1109,-766,-1029,3303,-1344,-2327,-1942
-1570,-1336,-1265,-1185,-960,-377,1903,667,-1016,-1310
139,176,148,-122,-192,886,-909,-2571,155,428
915,769,549,81,-303,769,-2011,-1938,545,1152
456,326,155,-203,-462,358,-785,1293,-278,653
1050,1130,1271,1436,1725,1272,275,-1473,-1939,931
879,975,1169,1555,2036,541,51,-19,-972,922
-657,-804,-769,-554,-271,-1353,-179,3280,1228,-120
570,194,149,181,280,-315,-446,-590,1940,763
1668,1066,931,834,779,176,-2138,-227,1634,1688
1473,953,773,568,370,-175,-2701,1144,1312,1419
956,588,434,83,-235,-366,-1791,934,972,935
708,437,364,-179,-362,-241,-1182,481,1050,802
921,600,429,-314,-391,-8,-780,418,1363,1067
684,431,197,-160,-360,54,-463,355,925,657
-78,82,97,673,616,-68,-316,37,355,-208
-608,-263,-80,521,285,-177,409,748,308,-582
-922,-497,-179,170,131,34,558,366,-117,-1106
-644,-203,81,339,468,492,295,-643,-213,-976
-172,123,276,372,505,678,199,141,234,-345
327,487,442,167,56,598,-103,94,369,-2
369,417,263,-435,-762,455,-616,-1586,-143,-311
272,151,-31,-990,-1407,415,-502,384,-410,-435
239,33,-266,-1157,-1629,421,141,2199,-349,-143
-82,-124,-364,-696,-633,188,1228,-670,-766,-108
-1245,-929,-847,29,606,-567,928,-1447,-1709,-1275
-1370,-915,-595,716,1483,-617,378,-2101,-1250,-1376
-105,137,347,1015,1352,50,-297,-1718,362,-2
571,512,503,658,500,-272,-1349,690,900,868
204,40,-11,50,-78,-640,-1314,2763,406,522
-49,-57,0,125,178,-195,-267,778,88,165
230,237,316,399,416,44,25,-1178,785,406
164,92,107,112,75,-49,628,-397,750,330
-139,-158,-154,-154,-188,190,1426,1220,415,68
147,29,-22,-26,-70,621,1048,726,340,283
432,202,104,131,122,679,-52,-551,303,656
443,216,115,25,112,327,-873,-611,265,727
224,110,18,-137,-77,55,-1213,-440,69,389
-51,-169,-165,-298,-275,-171,-1017,-252,-18,114
-68,-289,-263,-387,-430,-435,-399,-57,83,103
-135,-142,-131,-194,-292,-753,664,123,-58,-212
-431,-83,-29,-187,-356,-642,1426,209,-606,-859
-493,-220,-138,-244,-435,-199,936,-445,-843,-1001
-94,38,159,-9,-431,278,-220,-956,-276,-427
254,340,479,338,-43,595,-283,-1270,-62,20
457,443,528,422,92,374,-115,276,208,291
361,310,254,130,-33,-39,-25,938,355,193
95,171,84,440,701,-68,248,-15,182,-93
-253,-158,-221,163,402,-103,585,1400,62,-400
-586,-490,-498,-361,18,-51,948,864,-559,-679
-281,-169,-261,-172,342,223,646,-1216,-417,-295
-75,-100,-237,-183,147,244,-744,-583,120,72
10,-114,-156,-146,122,35,-1303,730,741,169
367,228,202,69,276,186,-455,678,781,342
358,268,169,116,114,-114,-466,345,400,261
116,98,-28,182,106,-556,-663,386,130,30
133,116,42,32,-200,-425,-452,647,54,54
280,190,95,-114,-355,-78,-160,636,84,248
290,238,107,-94,-245,132,-59,151,121,373
62,151,82,47,12,51,-271,-163,3,275
-47,39,59,82,108,-143,-346,-286,-170,31
188,189,222,45,-33,-134,-135,-396,-171,-90
291,164,235,-128,-451,-7,-8,-239,-49,-37
296,234,252,-315,-834,22,25,-80,19,121
316,354,248,-416,-1043,-94,49,22,53,341
-77,-32,-161,-200,-211,192,507,97,-124,31
-430,-470,-527,160,944,500,1554,-108,-491,-448
-663,-856,-867,-52,922,604,2261,-731,-831,-783
-1167,-1273,-1215,-606,99,448,2199,-1352,-1390,-1164
-1326,-1197,-1061,-793,-433,-41,509,1838,-1167,-1188
-1263,-1117,-902,-796,-737,-537,-942,2759,-414,-1012
-398,-273,-15,211,86,10,-1225,-1071,20,-309
738,760,934,1073,931,371,-1171,-1259,1005,869
661,549,583,604,635,-156,-262,-249,1245,943
353,236,187,179,202,-547,359,510,638,536
306,125,91,70,31,-368,185,-298,-35,340
460,308,310,180,112,155,-36,-1021,-57,426
350,203,79,-204,-239,228,37,-267,231,422
46,-280,-560,-1010,-1162,-83,700,62,303,325
-82,-431,-655,-1088,-1354,-158,1603,-1534,-554,113
427,240,116,-56,-406,214,2293,-1872,-1166,296
212,233,188,252,121,372,3508,-1397,-2144,-230
-1400,-1210,-1122,-735,-198,-376,2856,-2872,-3579,-1826
-2695,-2434,-2284,-1658,-861,-1142,1612,-2274,-3637,-2768
-892,-590,-415,73,510,241,-551,306,-631,-848
1169,1197,1234,1340,1270,281,-2281,1615,2588,1285
877,668,608,578,306,-840,-2729,2793,2639,1137
462,375,354,306,128,-553,-2298,2106,1563,716
565,709,766,731,632,156,-1774,-1289,638,692
499,610,635,580,472,79,-1656,297,391,692
55,160,137,37,-55,-293,-1286,1874,131,252
99,280,285,230,132,-47,-865,293,414,252
279,511,545,572,438,202,-759,-147,1108,452
404,599,579,541,352,142,-701,219,1017,438
419,494,449,300,123,87,-530,381,623,305
416,446,333,128,-41,124,-345,427,479,214
428,466,317,211,55,147,-281,407,350,183
419,327,257,211,187,149,-286,331,278,151
370,241,190,93,92,205,-168,279,222,25
197,66,57,-30,39,220,42,285,179,-85
185,70,-20,-280,-235,149,124,309,218,43
135,207,28,-178,-297,186,172,316,62,32
-277,-86,-114,145,128,91,866,355,-419,-394
-532,-462,-448,-210,-314,-214,1700,-84,-795,-693
-282,-376,-370,-219,-239,-188,1419,-856,-825,-526
196,-14,15,149,127,51,252,197,-454,-96
186,22,28,190,184,63,-1274,1270,24,105
17,-150,-174,112,150,-147,-1578,417,584,96
58,-136,-147,-71,-170,-109,-544,-233,676,67
319,-1,-18,-69,-212,45,6,-168,283,96
731,161,102,-1,-81,123,87,-17,175,201
688,318,164,205,203,265,-26,-241,-58,68
204,299,131,392,510,224,-268,-412,-240,-14
-290,139,131,199,233,175,-145,-133,7,156
-798,-135,42,85,254,232,191,66,98,16
-957,-399,-173,-46,243,280,500,114,73,-149
-839,-581,-337,-175,19,320,763,520,133,-94
-679,-561,-375,-235,-271,280,992,821,156,-89
-475,-447,-368,-335,-414,176,1440,-294,-46,-36
-251,-164,-103,-114,-42,135,2309,-1553,-385,-89
-697,-581,-431,-466,-340,-323,2143,-646,-1062,-741
-776,-592,-471,-706,-889,-250,1037,-1342,-943,-964
96,208,255,-235,-712,581,-1082,-190,321,-10
271,242,196,-311,-823,745,-2023,2445,722,295
226,229,140,-145,-513,648,-827,965,179,163
171,200,99,-34,-291,-190,-414,-886,-167,122
152,214,124,-53,88,-995,8,-778,-65,243
15,10,-82,-101,595,-761,86,297,-70,116
-476,-492,-545,-401,371,-595,-179,1251,-376,-340
-579,-493,-552,-224,44,-561,629,1589,-414,-507
-297,-147,-68,662,790,-109,1882,-312,-1007,-578
-41,0,82,611,655,299,1629,-3375,-663,-240
202,85,17,129,105,69,-868,-954,953,289
-217,-297,-433,-426,-451,-642,-2067,1867,715,-231
-530,-499,-512,-417,-367,-594,-1457,-400,-113,-689
-111,-135,-130,-23,5,-172,-579,-633,132,-170
421,256,222,353,337,174,-483,-578,202,422
686,398,392,456,404,330,-1027,-17,609,582
522,180,214,219,220,151,-1386,269,353,326
351,105,134,74,-1,-160,-1009,181,-56,258
267,326,311,134,-103,-261,-572,274,-227,231
247,454,441,283,218,-94,-279,280,-321,171
409,516,550,532,672,58,-67,9,-241,282
387,412,402,486,403,-45,220,-296,-9,293
206,180,49,76,-228,-261,330,-140,195,252
96,126,19,-79,-290,-100,-83,383,203,229
8,103,42,-45,-130,159,-231,425,90,201
22,14,-56,-199,-186,323,62,301,58,190
-95,-274,-363,-550,-600,207,375,510,-38,46
-182,-336,-399,-668,-781,30,945,-728,-312,-21
-105,-86,-178,-670,-891,-289,1741,-59,-288,39
-319,-354,-415,-787,-923,-489,2025,2830,-567,-310
-773,-881,-886,-575,-41,-73,1930,1339,-1395,-988
-178,-292,-336,224,811,623,1122,-1457,-915,-494
284,241,169,513,633,-7,-588,-4123,-609,-89
256,81,-53,82,39,-663,-1249,-3280,-239,190
338,129,102,150,84,-326,-355,3327,779,674
240,152,221,279,246,29,-166,2816,902,639
207,193,261,338,314,125,-1248,-533,900,522
156,130,50,131,59,-134,-1605,-1093,499,178
382,203,45,13,-113,-294,-1414,-1312,-140,-82
492,128,-71,-36,-172,-183,-744,-1159,-438,-63
598,398,191,290,274,211,111,368,56,406
419,660,462,441,473,398,323,1511,564,664
-155,306,277,99,61,308,105,252,669,339
-281,112,206,-128,-521,229,361,-33,1022,148
-314,19,221,-72,-507,204,1301,19,544,-241
-219,-37,189,92,13,301,1532,-174,-35,-653
-382,-278,-67,-133,-174,438,877,-371,-476,-844
-624,-592,-477,-490,-590,344,-442,-87,-560,-863
-638,-654,-553,-172,153,46,-693,-621,-567,-818
-319,-364,-307,19,232,253,288,-737,-441,-436
156,115,77,-24,-41,297,325,610,244,206
349,447,446,352,375,135,-835,813,606,461
265,388,463,722,891,184,-1201,138,295,397
-30,78,168,547,844,79,-580,-731,-317,2
-27,25,-21,38,47,-347,43,-900,-391,-131
43,10,-43,-192,-187,-387,-33,-243,-118,36
-37,-165,-143,-124,-136,-486,-913,1607,362,105
131,-44,-84,90,71,-512,-648,1512,202,130
646,471,397,476,470,103,192,-678,-214,475
340,179,96,64,80,-9,74,-1790,-491,266
-230,-409,-518,-616,-582,-414,-14,-258,-223,-88
28,-95,-186,-263,-204,-72,188,1219,350,83
-21,-14,-28,12,97,78,180,110,263,-31
-270,-88,-64,50,152,10,710,-869,-71,-228
-461,-189,-124,-86,-11,-128,1002,-278,-337,-454
-302,-36,94,96,152,86,590,-531,-315,-321
-13,182,301,307,345,349,-326,-205,102,77
233,363,387,346,325,210,-1083,268,378,337
131,147,149,101,64,-156,-923,619,501,236
-85,-81,-41,-62,-74,-204,-356,762,472,64
40,33,70,38,34,3,-113,460,243,65
114,52,57,26,16,170,-79,254,173,104
107,114,152,60,-76,314,-48,263,220,111
204,256,289,24,-308,337,26,307,187,143
217,254,219,-259,-669,205,190,145,70,143
146,97,43,-353,-645,110,331,-136,-55,122
133,-95,-124,-58,77,39,501,627,-15,97
-221,-392,-417,-90,138,-97,1480,135,-248,-387
-482,-645,-655,-357,-117,119,2307,-1483,-538,-518
-96,-343,-486,-474,-464,213,1370,238,-580,-24
-187,-339,-501,-610,-801,-267,191,2450,-587,-31
-918,-728,-704,-561,-485,-811,577,103,-1033,-835
-988,-742,-591,-398,-187,-596,1401,-3073,-1147,-1198
-688,-699,-607,-347,20,-205,-345,507,-147,-818
202,133,195,401,535,260,-1465,2569,565,189
1081,1033,1075,1093,937,466,-1241,-669,911,1128
753,654,642,612,451,-43,-1390,-963,876,868
494,402,359,319,200,-141,-695,-168,716,585
542,460,411,364,277,13,-262,54,566,566
513,503,405,339,329,312,-200,299,299,466
466,488,380,321,359,707,-299,300,245,427
256,359,328,294,305,764,-413,94,214,289
-87,86,125,130,153,497,-424,-146,91,38
-459,-213,-90,-36,-35,137,-487,-340,-88,-312
-507,-289,-140,-63,-117,-292,-520,-323,-103,-423
-247,-166,-177,-84,-149,-518,-422,-156,28,-285
-24,-4,-98,-54,-111,-492,-251,-10,78,-292
-19,-134,-209,-285,-316,-476,19,-94,-50,-317
-215,-447,-467,-628,-653,-398,259,-516,-337,-381
-529,-555,-455,-492,-566,122,1018,-795,-572,-492
-435,-128,-59,-5,-159,589,2085,-978,-548,-464
-276,-108,-99,-162,-348,147,1800,728,125,-179
-547,-597,-541,-630,-723,-503,389,1342,140,-371
-356,-433,-335,-242,-171,-399,-1014,1071,307,-141
306,240,349,388,392,-154,-1971,-112,1028,473
390,280,256,77,21,-280,-1117,-1874,678,383
149,-39,-155,-360,-279,-350,-462,670,134,25
154,-56,-123,91,331,-111,-69,2180,-94,-58
481,339,349,464,473,196,204,-631,-501,279
536,437,439,285,314,150,-32,-721,-654,486
317,260,238,167,221,80,-77,339,-702,170
148,27,35,333,322,-14,210,278,-931,-316
155,-81,-58,206,62,-38,270,-261,-654,-287
-19,-268,-272,-252,-280,-159,405,-1310,-164,113
17,155,206,173,178,259,918,-1643,182,394
-65,383,491,495,461,430,828,138,342,290
-56,223,304,212,177,320,262,-153,144,254
16,46,76,-125,-209,52,-436,-119,184,199
168,88,56,-213,-426,-114,-807,437,204,148
509,218,102,-210,-556,-137,-744,442,240,326
474,114,-4,-175,-390,-116,-547,227,131,266
41,48,13,-42,16,41,-371,35,-82,-166
-218,-76,-11,56,93,-65,-265,59,-28,-145
-339,-74,-75,-48,-337,-243,-51,139,15,-180
-331,-96,-131,-169,-354,-100,231,292,54,-237
-174,-122,-80,72,76,413,420,254,-23,-258
-203,-206,-107,223,490,939,1186,-105,-239,-311
-290,-278,-194,93,548,836,1887,-492,-394,-392
-128,-100,-3,120,625,646,1996,-949,-301,-213
7,93,175,178,541,270,186,-490,24,43
-80,-44,15,48,202,-670,-1885,1088,257,155
-202,-145,-84,-32,-89,-1128,-2134,1121,301,116
-81,-34,81,99,31,-591,-886,263,433,124
32,50,141,145,129,-151,-188,-31,286,139
55,72,102,90,99,-60,133,76,125,149
146,101,49,36,40,-43,458,258,169,218
247,133,39,-13,-29,-73,384,156,188,313
83,79,-92,-98,-119,-34,493,190,52,164
-201,-100,-215,-233,-250,71,641,246,-125,-35
-307,-351,-306,-328,-364,123,110,282,73,201
-88,-211,-138,-190,-266,161,-674,-105,143,491
141,79,47,-103,-89,-13,-854,-349,-41,455
230,108,-32,-217,-161,-554,-826,831,81,296
18,-297,-378,-345,-269,-740,-549,576,-113,-217
85,-257,-254,-166,-233,-246,-125,-1356,-576,-621
129,-199,-190,-124,-105,-22,48,-1719,-717,-806
208,-63,-95,0,41,30,165,-1494,-438,-469
259,199,170,189,206,115,280,-2,55,31
-164,136,102,92,40,-25,315,2148,227,10
-478,-61,-72,-39,-131,-96,65,683,111,-117
58,236,319,291,182,228,136,-836,310,259
-19,70,182,142,108,102,709,-414,194,154
-521,-299,-189,-141,-69,-86,1065,-128,-139,-249
-376,-238,-134,-88,-87,87,488,-205,-202,-234
164,163,230,211,138,298,-909,207,153,159
412,393,423,325,193,149,-1368,489,394,395
196,332,280,99,9,37,-562,324,259,231
45,218,49,-47,5,175,-80,289,118,51
-24,82,-21,-57,72,195,-20,101,4,-109
-142,3,14,92,106,5,-59,-2,-44,-277
-483,-215,-263,-66,-21,-87,270,419,-103,-512
-759,-450,-503,-274,-103,62,691,-198,-399,-756
-404,-230,-218,-76,43,297,657,-574,-482,-498
110,193,278,299,386,550,511,72,-158,-20
176,230,295,289,421,514,758,446,103,103
70,145,161,88,108,37,51,503,131,26
57,66,115,-73,-156,-170,-428,-19,119,70
160,50,79,-198,-189,-177,-254,-646,166,231
185,108,83,-188,-79,-154,-55,-370,-32,187
162,70,48,10,-49,-162,-302,-138,-214,58
-31,-197,-237,-214,-581,-399,-571,688,-123,-69
-118,-199,-245,-288,-605,-281,353,781,172,-30
-34,-23,-82,-282,-540,5,1454,44,272,99
105,88,4,-318,-366,113,1331,-561,-310,44
377,243,231,90,398,156,106,-391,-770,-19
354,81,54,246,369,-76,-572,477,-608,-79
161,-269,-368,-186,-316,-482,-122,352,-19,-98
-140,-511,-486,-271,-218,-410,131,720,557,30
69,-92,-11,87,237,40,-81,-417,575,415
217,247,261,58,141,47,-490,-1018,271,383
24,55,127,57,171,102,-660,94,226,149
-80,-103,-19,244,460,112,-635,1069,323,93
-204,-8,30,142,136,210,339,-51,218,-133
-241,53,95,111,40,435,809,-293,58,-371
-44,44,55,34,-104,495,62,-202,73,-210
55,96,65,193,189,258,-1123,-117,60,-166
21,113,87,258,392,-139,-940,28,26,-169
-71,75,72,119,338,-271,-325,12,37,-42
-175,-32,-42,-52,102,-297,-98,151,77,25
-129,-68,-59,-87,-113,-314,-26,210,108,70
40,-1,-11,-56,-195,-197,8,-316,83,196
36,-95,-106,-210,-386,-239,-13,-209,34,239
-67,-268,-266,-378,-469,-361,-39,205,-219,130
94,-42,-104,-329,-362,-44,568,627,-288,282
-191,-204,-275,-588,-600,-49,1489,247,-377,54
-326,-238,-230,-566,-680,-112,1378,-984,-417,-196
235,224,228,-268,-719,281,443,-875,-3,168
895,674,700,637,410,436,-1096,642,552,635
808,487,575,1117,1356,-92,-1178,703,232,385
608,218,273,656,909,-142,-109,-699,-281,115
354,-6,-30,89,238,-12,452,-355,-352,-28
121,-150,-118,-38,60,185,18,318,-86,8
58,-136,-36,70,151,339,-366,-81,-1,89
-15,-130,-83,28,86,137,-532,-146,109,81
-214,-167,-184,-73,-56,-119,-665,281,184,17
-446,-24,-18,89,74,-144,-540,107,44,-171
-381,71,152,162,213,-81,-268,4,2,-337
-291,88,164,82,213,16,-68,100,29,-404
-240,95,143,25,9,-22,-28,142,62,-324
-211,14,75,9,-222,-98,-28,127,65,-241
-107,-52,-17,-32,-236,-73,38,171,66,-180
-152,-193,-158,-84,-34,-16,40,257,-55,-202
-386,-410,-416,-301,-45,-108,-267,245,-338,-360
-344,-287,-314,-348,-224,-157,-348,52,-298,-264
-108,-30,-19,-150,-180,-20,188,-300,13,-82
104,71,127,-8,-87,129,694,-445,109,35
-21,-226,-242,-215,-273,-61,681,-1151,-496,-299
-186,-400,-406,-213,-115,-26,1473,-1933,-1219,-594
49,-18,-4,87,167,473,2165,-171,-908,-303
465,471,405,293,224,598,1291,1279,-47,180
607,463,331,237,163,205,-1237,-163,566,344
561,170,-8,-136,-217,-323,-1613,-129,845,318
267,-179,-314,-557,-668,-482,125,1256,579,105
151,-25,-50,-130,-74,113,877,981,267,156
267,401,452,482,532,590,170,553,339,456
151,380,447,498,450,341,-362,771,307,391
27,193,277,192,70,9,-516,403,196,203
-101,-36,12,-67,-183,-82,-593,-373,190,130
-281,-148,-131,-31,-31,9,-575,-717,88,-141
-373,-124,-63,92,76,-106,-699,-366,-116,-262
-408,-100,49,128,18,95,-674,-167,83,-58
-404,-133,27,44,-91,568,-145,-107,107,-38
-394,-168,-12,23,46,628,593,-150,-44,-183
-369,-132,31,-19,170,83,701,-242,-114,-207
-319,-154,-28,-237,-251,-384,4,-235,-83,-98
-72,-13,4,-363,-595,-629,-852,-248,30,34
79,79,0,-152,-372,-651,-436,-193,125,116
-167,-113,-196,-228,-366,-482,50,262,-2,-63
-382,-314,-382,-447,-201,-225,930,-291,-325,-327
-656,-556,-608,-477,-38,-93,2419,-352,-720,-589
-620,-500,-493,-145,225,-50,1964,-718,-870,-550
251,296,340,514,678,339,-98,-1342,-305,296
863,769,759,714,722,288,-1645,-829,485,794
944,492,424,348,282,-88,-1444,578,681,607
825,-15,-58,-141,-219,-479,-1219,1577,342,146
527,-107,-101,-130,-144,-328,-746,807,163,40
248,93,100,110,127,-27,-435,107,166,177
83,151,81,117,99,48,-335,148,151,193
229,72,53,60,27,88,-181,196,162,156
355,105,113,45,10,65,-135,146,80,29
250,138,130,108,45,-5,-167,74,12,-7
214,109,89,37,-35,-60,-100,84,90,185
46,39,16,-86,-155,-71,-28,164,172,354
-217,-53,-66,-115,-192,-15,-13,117,84,242
-273,-85,-79,-78,-186,4,-27,19,8,187
-281,-11,-31,-14,-149,-101,-127,-81,-72,116
-347,96,144,93,-91,-31,-92,-47,-99,-43
-188,67,243,137,140,148,63,65,-47,-134
23,37,186,18,243,169,199,186,92,15
-75,1,74,-111,33,113,244,235,127,44
-211,-25,73,69,121,92,152,98,-38,-68
-201,-34,75,320,481,40,40,-90,-229,-132
-112,0,49,209,294,104,166,-6,-242,-148
-228,-94,-160,-22,-36,33,224,63,-192,-269
-253,-194,-292,-109,-185,-75,94,318,20,-203
16,-6,7,100,91,108,30,155,-37,-29
49,46,101,137,263,99,30,-554,-174,37
-33,5,-12,-58,44,-32,0,-219,37,146
-264,-211,-222,-260,-247,-181,-84,685,207,-13
-406,-363,-357,-153,-223,-198,26,490,170,-201
-47,-98,-109,100,29,22,137,-268,-4,-13
288,101,63,131,167,77,-12,-387,-94,207
359,1,-69,-25,5,26,-55,-206,-32,250
374,-138,-191,-114,-113,-52,-37,30,58,306
280,-42,-92,-20,-22,-54,-4,77,57,191
90,98,68,106,58,1,112,7,43,9
-1,142,134,113,57,-8,220,30,87,-40
-38,124,131,75,-45,12,344,114,107,-85
-80,69,91,38,-79,292,1114,119,67,-241
-52,-46,8,-5,-54,487,1667,12,-87,-354
265,47,64,126,137,555,1176,-241,-180,-257
447,146,88,269,316,503,-217,-129,-70,-144
252,5,-119,85,124,-41,-1030,502,199,-46
-1,-45,-74,-84,-48,-432,-378,375,327,65
-190,87,65,-59,-18,-226,197,25,112,10
-452,-58,-97,-144,-74,-3,194,-708,-418,-202
-744,-397,-337,-323,-251,160,158,-1028,-909,-544
-863,-633,-520,-474,-471,216,-96,495,-953,-638
-724,-540,-468,-382,-374,251,-232,478,-832,-522
-231,-64,-54,19,71,438,-320,-589,45,-95
335,422,368,382,358,1,-741,0,888,462
350,323,307,230,171,-748,-972,288,647,457
317,177,103,73,-1,-630,-541,-334,272,286
221,146,12,70,-82,-323,-300,-662,38,108
34,17,-50,-62,-233,-333,-346,355,42,-13
-72,-84,-78,-248,-436,-325,-240,514,64,-41
112,94,81,-13,-124,1,-39,-92,87,187
216,61,2,47,-57,60,-42,-139,87,285
276,38,-46,-146,-424,82,168,-746,-17,194
282,141,91,-287,-600,214,714,-1356,-227,100
-34,-191,-186,-416,-369,-25,1580,198,-524,-221
-742,-788,-718,-527,-214,-583,2789,543,-1010,-908
-526,-533,-400,24,330,-301,2276,-1835,-727,-656
216,87,151,352,411,-61,-1127,-1259,229,94
323,224,188,200,207,-123,-2804,1426,728,259
347,274,188,299,296,92,-1520,2299,536,264
326,209,124,226,176,137,-514,348,184,231
454,273,265,177,98,220,-253,-588,391,331
467,243,248,124,56,202,-244,-191,410,334
296,205,233,125,69,131,-217,94,321,346
49,134,219,130,112,205,-130,130,180,211
-62,-18,115,20,127,281,68,156,78,81
-31,-66,36,-78,-128,179,148,170,24,117
-85,-80,-40,-191,-462,108,108,135,-42,49
-165,-100,-5,19,-74,258,-49,3,-183,-60
-93,-21,96,166,299,376,-165,36,-133,-24
-90,-26,25,-86,118,226,-168,242,47,-6
-221,-182,-173,-281,51,-17,-134,394,167,-47
-255,-248,-248,-225,32,-146,3,269,-38,-91
-89,-95,-149,-174,-116,-320,-10,-218,-297,-37
-36,-206,-348,-582,-434,-475,-167,-356,-235,19
-129,-384,-555,-879,-792,-344,-52,395,-238,-88
-287,-384,-457,-252,-220,-54,736,177,-514,-406
331,363,331,764,752,256,1421,-367,-370,3
681,799,711,945,911,220,1821,267,-79,279
235,452,278,375,351,139,1737,-550,-255,-195
147,181,125,97,161,420,484,-720,323,-145
272,126,137,88,337,501,-1004,473,786,313
-23,67,16,29,204,270,-1099,686,245,118
-462,-177,-205,-51,-52,239,-742,159,-147,-286
-587,-346,-334,-116,-263,114,-600,-135,-151,-349
-323,-166,-126,2,-225,-185,-705,-328,143,-107
-134,-2,0,93,-100,-462,-543,-397,96,-43
138,233,96,101,-59,-429,-197,-247,80,74
519,425,306,79,-101,-31,-172,7,181,255
584,384,337,46,-178,295,-263,231,228,246
405,134,128,18,-163,251,-273,214,116,199
48,-157,-100,4,-4,5,-237,-41,-80,46
-259,-217,-178,-257,-60,-359,-83,-97,-97,-67
-285,-102,-90,-243,-171,-548,85,-81,-60,-189
-280,-76,-100,31,-19,-335,7,-147,-53,-259
-232,-39,-122,167,240,200,-209,-209,-26,-98
-215,-86,-117,360,713,378,-203,32,-171,-165
55,-25,-80,195,495,55,-109,560,-222,-355
289,63,41,41,211,-96,96,-496,-156,-200
229,2,50,48,145,-171,334,-771,4,-1
0,-244,-148,-104,-81,-383,84,621,149,-51
-18,-170,-113,-107,-170,-365,-301,697,129,-124
184,129,74,64,-37,-107,-129,-141,32,-4
56,161,151,81,-48,-50,0,-245,-5,38
-50,138,181,56,-78,-96,-92,-25,90,121
-55,169,160,-3,-102,-92,-116,142,134,143
-134,140,143,2,-46,-26,-20,170,121,105
-322,-9,59,77,100,78,87,167,79,52
-464,-101,-7,61,94,121,118,90,20,12
-241,16,73,48,31,70,238,-410,-85,-15
-19,72,38,-43,-67,63,917,-1170,-229,-46
-316,-373,-418,-437,-405,-166,1571,-535,-586,-380
-1101,-1147,-1162,-1141,-1056,-704,1466,810,-1027,-1015
-886,-699,-700,-733,-651,-270,741,-437,-878,-832
26,420,474,428,462,717,215,-1152,-47,41
562,787,825,856,806,750,-1030,964,1077,791
362,359,385,373,319,102,-1522,1453,1031,700
122,42,-21,-21,-26,-71,-678,412,417,357
140,-25,-112,-137,-135,-28,-222,13,214,273
227,-34,-81,-220,-288,-65,-204,155,424,421
321,142,-12,-84,-236,52,-154,-344,238,539
319,166,18,13,-177,77,-173,-659,-68,449
211,-87,-143,-103,-171,-90,-241,482,-126,279
153,-200,-213,-280,-357,-198,-167,805,-155,152
319,49,25,-177,-331,33,55,105,95,235
180,127,100,-56,28,227,321,204,98,40
-282,-26,-73,-35,265,84,537,237,-34,-380
-503,-106,-51,88,341,25,844,-745,-252,-625
-268,26,110,161,234,72,307,-1081,-203,-474
-136,128,161,122,116,-49,-592,165,138,-102
-227,37,51,15,-22,-149,-332,1688,196,-50
-175,71,107,35,54,38,271,934,-1,-49
82,286,311,172,141,319,624,-545,25,140
65,236,260,149,10,519,603,-517,235,147
15,84,170,120,57,585,277,-102,147,50
67,53,130,82,33,474,-152,17,81,88
150,91,110,-39,-248,170,-548,6,70,105
243,167,93,-96,-132,-155,-689,-78,-51,28
469,276,185,-64,270,-223,-475,-236,-52,49
576,283,202,134,319,-1,349,-324,-7,71
171,-140,-216,73,59,-59,1122,34,-240,-203
70,-270,-328,-219,-450,-115,1118,-246,-375,-201
455,102,36,-91,-309,85,287,-1072,-258,70
360,138,28,31,70,-174,-813,-851,-177,-38
54,59,-136,46,171,-486,-906,-423,-112,-148
-309,-118,-184,112,236,-386,-672,-775,-204,-181
-591,-227,-85,88,20,-192,-593,546,-207,-155
-798,-356,-191,-146,-187,-318,-591,2768,-23,-293
-570,-251,-117,-94,87,-38,-95,552,254,-176
-143,68,164,213,413,350,275,-792,705,63
11,127,198,280,347,309,374,-367,442,97
-4,74,114,195,166,91,309,59,373,101
-91,-56,0,-21,-50,-99,191,626,575,92
-203,-202,-172,-237,-192,-86,353,861,545,-2
-384,-395,-369,-416,-356,117,814,166,127,-189
-524,-465,-406,-489,-551,246,1426,-1291,-569,-409
-745,-605,-559,-689,-821,95,965,-266,-970,-675
-1050,-915,-883,-978,-1156,-483,-584,1849,-904,-954
-565,-479,-408,-373,-475,-262,-1542,658,-477,-582
534,563,654,750,768,398,-1174,-336,97,422
850,800,851,899,1080,184,-472,-593,265,698
536,449,428,398,467,-243,-592,-687,126,395
426,296,230,123,117,-291,-550,-475,2,303
455,363,170,103,110,-180,-392,-274,-61,386
406,353,127,108,167,-135,-295,-236,-183,361
272,169,63,21,100,-119,66,-157,-201,309
111,36,20,-2,93,-64,776,35,-94,237
-89,8,-15,-2,4,-11,906,-282,-319,-11
-379,-280,-259,-307,-359,-175,-5,-646,-712,-400
-208,-424,-357,-429,-454,-265,-865,-436,-502,-289
345,-28,17,-32,22,81,-258,-217,141,178
769,355,353,409,532,327,258,568,571,558
746,250,206,301,322,-27,-355,1008,507,578
631,134,118,124,61,-158,-523,220,327,493
495,62,37,19,-19,-58,-182,-104,174,344
424,103,39,17,-11,100,-5,-85,155,229
264,154,38,0,40,333,118,-256,64,85
104,207,75,80,200,368,158,-625,-104,-157
-6,207,156,141,206,284,122,-46,-128,-276
-259,16,39,33,15,206,39,1110,-71,-380
-450,250,86,147,44,259,101,883,278,-296
-462,471,269,349,204,287,204,-95,324,-209
-319,366,225,279,181,90,161,-507,76,-227
-209,127,-34,52,31,-179,101,-134,105,-143
-116,91,-119,32,18,-374,37,56,157,14
-123,-22,-16,5,-11,-316,-17,55,109,24
74,190,46,-44,-65,-196,36,105,168,96
324,397,8,-64,-112,-126,134,117,244,375
520,419,-1,-141,-233,-88,152,-42,184,651
710,505,31,-223,-411,32,176,-394,74,702
722,371,114,-394,-614,178,255,-427,30,597
299,-40,-273,-822,-890,-13,700,747,177,208
-412,-261,-573,-549,-470,-143,1706,85,-83,-378
-711,-168,-383,256,402,-54,1859,-1564,-695,-673
-811,-93,-240,229,584,96,1304,-1078,-1159,-980
-982,-378,-272,-115,337,-133,197,603,-869,-1065
-500,-169,-129,-130,-62,-366,-681,1912,569,-351
101,326,221,230,154,-44,-1389,1982,1029,74
116,333,252,403,408,186,-1070,865,583,-84
149,354,327,413,393,122,-530,-687,284,-65
180,354,324,294,148,8,-290,-814,54,-36
206,85,315,189,29,0,-226,-445,58,222
144,-28,323,157,30,9,-219,-141,93,318
51,-20,303,160,13,17,-156,52,-14,71
163,-98,195,66,-125,43,-81,258,-44,61
184,-166,163,-56,-287,104,-77,168,-47,207
46,-90,195,-83,-351,131,0,94,-3,195
-210,-317,-18,-322,-482,0,321,68,-31,-66
-595,-807,-453,-658,-494,-184,1136,-91,-240,-522
-662,-947,-616,-527,-204,-397,1270,-423,-457,-713
-245,-543,-317,-63,215,-248,733,-1311,-444,-328
236,29,56,387,546,362,-493,-163,-9,255
144,77,-7,211,177,639,-1058,1653,191,228
-45,-176,-26,37,127,720,-610,328,-34,35
157,-55,147,195,375,535,-248,-285,39,169
183,98,21,12,98,77,386,-299,52,95
33,107,-164,-271,-178,-279,443,-899,-98,-52
-4,-59,-59,-45,65,-575,-615,-661,2,51
28,-146,114,245,280,-500,-1444,22,197,140
-91,-203,41,89,59,-294,-992,267,149,66
-255,-327,-51,-49,6,-156,-482,134,47,-65
-233,-267,23,7,51,-35,-270,-33,-51,-155
-214,-173,64,34,27,-5,-187,-60,-67,-105
-248,-150,65,5,21,-13,-150,-37,-58,-7
-290,-163,28,8,65,-32,-105,-32,-91,13
-395,-270,-84,-62,-48,-100,70,-254,-293,-79
-600,-508,-378,-335,-313,-245,212,-717,-670,-245
-323,-154,-272,-244,-211,-123,269,-78,-539,-111
140,454,119,104,151,182,479,394,-71,113
400,445,185,145,160,185,469,299,465,377
515,171,137,124,99,-141,-402,421,617,496
719,146,210,183,115,-183,-634,50,378,396
768,112,183,177,104,-43,-236,-81,137,122
503,-21,112,146,105,116,120,-168,11,-25
239,-130,64,78,75,337,354,-640,-47,-26
212,-62,120,106,124,660,483,-1249,-238,50
47,-143,-36,-49,-78,658,444,-338,-373,-51
-490,-445,-348,-345,-345,263,334,478,-365,-327
-724,-588,-489,-445,-356,-44,830,180,96,-391
-535,-399,-296,-229,-183,18,1024,9,60,-293
-131,21,128,124,156,108,-1,-149,-168,-64
-45,27,80,23,85,-304,-1030,1014,-28,-11
-372,-395,-332,-402,-434,-698,-511,899,-128,-281
-119,-306,-268,-331,-411,-552,-64,-133,-293,-105
29,-269,-336,-430,-543,-669,-201,883,-250,-11
-430,-521,-611,-766,-863,-690,549,271,-901,-403
-607,-481,-554,-721,-773,-183,1526,-1150,-1126,-628
-163,-118,-191,-280,-337,497,1375,242,114,-53
570,576,638,640,572,950,-513,750,842,827
689,770,942,930,928,672,-1773,-837,733,1059
-149,-20,149,168,131,-116,-716,-139,-11,173
-455,-354,-182,-77,-243,-441,-145,807,-296,-466
-45,61,214,365,342,-42,-29,586,283,-217
111,80,211,325,488,-64,257,-354,502,55
14,-73,17,49,196,-188,-8,-872,371,178
155,154,189,137,165,-66,-962,-516,261,225
511,390,364,261,160,-73,-1072,-144,260,309
620,273,234,139,49,-89,-504,384,230,363
277,4,-67,-94,-81,-34,-45,450,53,115
115,72,35,-34,-15,182,205,-323,16,130
180,289,275,140,-54,291,78,-933,-42,301
166,263,236,153,10,183,-88,-791,-186,307
-30,48,2,121,209,25,-119,547,-165,58
-124,-18,-142,41,183,-68,376,931,51,-189
79,116,45,74,94,-34,688,159,170,-82
-48,-110,-109,-129,-285,-15,494,562,361,57
-227,-137,-114,-197,-388,418,458,656,205,-15
-410,-183,-81,-210,-375,807,486,0,-129,-230
-784,-583,-432,-468,-563,482,691,-915,-657,-668
-874,-756,-564,-535,-296,142,1238,-1215,-1097,-959
-367,-410,-249,-300,102,-63,818,562,-599,-491
92,-84,-57,-295,62,-577,-51,1558,125,86
265,58,-24,-264,-350,-692,-489,-1444,215,370
-176,-277,-285,87,-113,-823,-539,-1285,-420,-73
-342,-374,-386,48,-54,-814,-495,1579,-736,-309
88,-13,-25,138,207,-92,-636,236,-177,111
794,666,595,735,831,533,-783,-420,1061,674
659,652,545,598,594,159,-605,-89,607,385
185,347,244,221,115,-150,-224,-337,-18,12
-52,171,67,62,-10,42,267,-401,-110,-40
111,202,158,97,44,151,-326,-38,195,85
519,370,314,272,266,71,-986,124,584,273
561,215,101,146,226,-27,-469,-26,299,162
331,33,-150,-66,0,-85,412,-209,-92,116
104,116,-39,-100,-135,-191,762,-46,13,231
-227,263,197,134,47,-73,319,439,224,-2
-416,204,253,252,184,45,-658,209,210,-198
-384,89,194,187,104,-58,-734,99,269,4
-144,-8,107,102,79,167,-228,83,299,131
149,-12,69,90,98,407,-17,93,252,253
222,-116,-87,2,35,371,72,139,226,260
193,-245,-269,-103,-61,183,51,126,195,299
155,-163,-165,-135,-135,106,45,75,119,297
143,-114,-132,-166,-176,105,116,-209,14,67
178,-85,-118,-148,-150,66,190,-875,-100,-31
117,-25,-79,-93,-138,-77,132,23,-90,-46
-49,-114,-186,-158,-287,-335,83,1520,-34,-217
-157,-48,-60,-74,-244,-125,228,289,-5,-210
-135,65,132,71,-39,166,186,-569,122,-40
-294,-101,-25,-6,-54,270,248,-328,60,7
-224,-99,-15,-68,-226,391,429,-156,-75,-40
131,217,278,109,13,467,216,327,-12,-45
330,358,365,147,204,209,-5,584,5,-95
-73,-14,12,53,276,-150,110,-121,-192,-302
-392,-254,-261,-171,24,-295,314,-736,-118,-219
-203,6,-44,0,23,-301,-394,-464,-131,77
-163,130,127,176,133,-325,-991,283,27,172
-215,95,144,92,95,-105,-507,318,23,81
-262,-82,-43,-37,64,119,-56,252,-13,-158
-225,-137,-53,112,322,159,107,145,-126,-280
-35,-71,0,205,422,55,63,-23,-243,-198
270,75,81,136,138,-137,-3,-67,-234,-111
375,161,143,135,-16,-208,-87,-81,-181,-61
340,183,221,207,1,-94,-176,-89,-129,49
222,102,110,43,-129,-1,-16,-7,-45,46
74,-16,-53,-94,-155,43,341,53,-8,38
0,-40,-35,-64,-81,-11,426,31,-32,9
-37,-47,-80,-197,-214,136,295,129,42,3
-90,-122,-217,-312,-300,413,111,265,36,-22
-129,-161,-222,-146,-49,326,-113,235,-7,-21
-87,-96,-92,0,71,50,-406,-143,10,24
75,73,93,66,53,-186,-523,-631,-32,55
150,125,107,61,178,-412,-360,-583,-98,52
85,25,-5,6,119,-457,-18,-40,21,172
33,-18,-82,-46,-37,-406,-36,401,98,111
-21,-57,-213,-120,-222,-329,-154,369,137,-5
6,-11,-195,-95,-208,-144,-141,63,82,-74
202,82,-23,-29,-149,81,105,-605,-87,-25
351,85,-39,-120,-199,146,1019,-582,-92,131
256,29,-91,-267,-239,-10,1230,566,-156,58
255,286,174,-95,-130,129,672,409,-112,195
266,448,416,206,147,274,-543,-216,20,364
-210,-45,7,-37,-20,-201,-713,95,150,134
-732,-606,-521,-432,-413,-506,624,-248,-243,-233
-1437,-1242,-1133,-881,-711,-780,1309,-625,-1149,-1008
-1244,-987,-955,-692,-427,-499,920,-1026,-996,-1017
-83,242,235,387,552,581,4,-814,-14,-127
848,984,1025,971,942,857,-953,1322,810,549
685,627,602,504,386,251,-994,1020,639,337
357,357,290,219,215,195,-338,-304,344,57
301,285,96,133,277,243,-107,-581,-73,-34
455,233,-26,58,146,69,-186,639,-119,8
685,226,51,22,-80,-78,-246,1180,-132,155
756,226,136,84,-43,-97,-389,-274,133,238
546,73,72,73,-41,-82,-463,-354,549,155
452,-4,-26,-68,-138,-85,-434,51,309,126
485,105,19,-100,-152,-88,-256,205,239,271
48,-1,-12,-3,146,-15,365,91,71,34
-310,-146,-50,-14,264,74,1130,-358,-50,-95
-567,-214,-93,-146,31,143,1175,-1173,-205,-57
-877,-243,-244,-195,-266,19,62,-969,-501,-150
-817,-207,-215,-142,-367,-228,-885,1246,-384,-129
-567,-149,-59,-26,-104,-106,-219,1546,78,42
-376,-195,-129,-66,-5,109,243,-166,362,201
-463,-354,-350,-301,-250,-68,-32,112,77,-26
-368,-293,-248,-265,-274,-135,254,694,-190,-177
183,90,114,6,-64,154,480,487,118,65
190,70,100,-16,-86,283,86,-280,160,5
83,10,70,177,266,151,-619,-391,111,-114
107,194,279,455,635,100,-459,-264,159,-54
46,206,270,354,502,86,119,-131,240,119
-12,167,208,288,325,198,503,-160,116,122
65,162,196,304,299,310,415,-232,-131,66
48,49,53,76,56,141,109,181,-69,34
-41,-101,-98,-123,-201,124,-56,496,-90,-68
-74,-104,-61,-64,-220,485,-114,275,-66,-162
-32,26,89,80,-48,699,-294,79,351,-91
41,46,85,11,85,476,-351,51,331,-23
84,-11,3,-67,-1,-10,-425,-146,-44,-54
54,-141,-177,-106,-161,-512,-442,-498,-301,-161
167,-170,-189,-119,-257,-874,-315,-168,-144,-54
191,-129,-174,-209,-353,-879,-208,918,251,120
162,-29,-89,-222,-335,-405,105,302,292,218
182,115,158,76,39,123,960,-812,92,222
-454,-359,-252,-190,-156,-96,2181,-1174,-348,-391
-1007,-849,-787,-688,-602,-484,2128,-1261,-810,-936
-569,-411,-404,-318,-195,-151,747,-942,-886,-695
426,427,371,377,434,383,-1476,113,-172,141
916,632,497,481,507,137,-1966,800,586,730
634,372,225,201,165,-249,-1307,695,514,566
120,190,84,-60,-112,-318,-805,685,188,283
40,330,246,69,49,-60,-456,293,63,168
-39,241,218,93,45,34,-289,674,-41,-52
-287,-133,-51,-39,-96,-76,-158,174,-112,-307
-201,-59,56,171,194,143,123,-883,-262,-279
17,109,212,300,286,194,78,203,-409,-81
86,82,104,154,76,91,-48,421,-363,4
111,53,40,89,33,150,-141,-602,143,8
157,108,116,115,122,196,-214,-283,540,46
101,97,103,134,153,155,-116,32,217,46
67,68,30,85,28,19,7,126,157,159
147,95,15,-24,-79,-38,89,166,159,162
161,120,30,-27,4,9,101,104,76,10
51,73,25,40,75,43,128,104,57,-32
3,64,32,38,36,111,244,134,77,10
125,57,36,-39,-28,190,418,140,66,86
202,95,64,-96,-184,241,819,96,91,130
45,72,0,-202,-405,169,1063,-213,8,50
-255,-133,-248,-394,-610,-39,737,-880,-396,-261
-563,-306,-333,-354,-515,58,465,-999,-578,-508
-418,-200,-198,-23,-32,595,391,-646,-356,-337
3,47,103,257,500,614,0,786,214,53
42,-12,29,69,357,-63,-140,927,349,47
127,-7,-45,-65,59,-537,-232,-1020,-70,30
90,-83,-116,-121,-115,-614,-775,364,-207,138
-108,-227,-248,-281,-271,-772,-1509,2084,-194,80
-47,-181,-218,-247,-285,-544,-763,-160,89,76
209,54,44,57,-25,-41,-270,-551,538,416
354,188,137,157,57,129,-138,376,445,621
284,239,131,63,-53,-18,-96,487,181,368
102,170,139,230,338,-54,-156,149,217,143
-45,43,35,231,431,-2,29,-183,121,36
-204,-102,-123,-44,66,-25,185,156,-87,-103
-189,-80,-87,-73,19,-39,112,910,-57,-153
-109,46,57,31,101,-10,110,170,-13,-200
-89,37,71,13,17,-53,232,-1566,-234,-329
-93,-230,-189,-303,-273,-368,185,-220,-281,-481
-246,-429,-399,-518,-307,-289,740,446,-359,-578
-22,-49,-29,-93,168,383,1201,-1381,-296,-176
333,261,229,206,161,476,129,-485,257,386
313,245,144,285,54,105,-819,532,322,359
108,130,5,112,-45,-132,-5,127,-78,73
-300,-115,-203,-253,-430,-296,915,-446,-304,-246
-250,-37,-137,-246,-534,-95,862,-550,-254,-310
363,323,167,-11,-173,250,-211,316,153,26
609,348,276,136,280,375,-1119,1278,489,340
368,262,267,377,661,207,-578,346,221,201
238,260,223,570,692,106,-275,-665,-9,71
202,103,-19,225,258,-38,348,-589,75,169
68,-70,-116,-81,-19,-135,951,59,138,185
119,-1,-11,-25,23,44,669,-4,47,111
38,122,118,103,134,170,-506,-5,43,70
-315,-38,-61,-52,-40,-189,-1203,606,226,34
-500,-138,-93,-120,-92,-377,-788,377,216,-85
-295,-64,-1,-1,100,-128,-267,79,84,-52
-115,39,54,5,57,345,152,41,7,-12
-80,64,98,-47,-123,737,317,-233,-30,30
-20,40,154,-70,-109,775,285,-335,-53,106
-167,-238,-134,-292,-159,437,75,339,-149,10
-447,-525,-543,-595,-664,58,-237,367,-294,-213
-597,-552,-492,-323,-403,-166,-396,204,-194,-215
-572,-339,-169,77,170,-229,-380,-22,-34,-250
-321,-80,105,200,419,-265,-262,-865,-217,-193
-27,49,169,124,203,-398,-4,-109,-354,-107
105,80,117,-76,-262,-372,418,859,-348,-75
220,86,77,-97,-259,-194,372,-421,-78,27
316,107,152,162,183,-6,54,-617,525,171
265,107,216,232,264,14,80,-91,385,179
254,219,289,67,-95,65,353,-24,157,282
168,185,196,4,-143,125,449,-59,26,336
-105,-46,8,256,353,117,-42,-32,-140,154
-423,-357,-286,59,357,-185,-637,394,-100,-138
-527,-419,-363,-223,59,-338,-459,376,79,-332
-251,-110,-67,-52,79,-207,-311,16,143,-250
4,158,179,180,222,-127,-274,8,138,-159
60,185,167,180,130,-94,93,47,82,-172
17,63,8,97,100,-93,729,11,5,-112
70,0,-32,34,55,-86,772,-44,-54,-89
158,-2,-14,25,10,-3,-73,-79,-31,-36
317,66,-45,24,27,-7,-897,87,79,117
331,151,-32,18,44,-12,-531,124,75,85
309,207,105,71,91,69,-156,19,-45,36
308,186,68,-2,16,93,-11,-6,-156,165
133,60,-44,-128,-97,87,109,-89,-264,175
-343,-273,-324,-422,-402,-104,97,-375,-563,-332
-592,-489,-487,-597,-591,-132,92,-797,-468,-538
-278,-212,-120,-123,-104,343,488,-1560,-154,-221
216,207,305,286,239,428,701,-989,69,193
276,159,213,40,-57,-190,95,1308,302,281
-153,-283,-227,-272,-332,-723,-645,2910,352,-84
-307,-313,-266,-161,-150,-443,-235,481,157,-204
176,296,317,373,379,255,63,-408,331,160
198,236,275,279,209,127,-46,673,379,148
166,62,89,96,4,-14,-22,-676,59,65
182,117,119,122,11,32,-156,-775,31,57
142,123,137,108,31,224,-140,-259,86,56
229,101,73,35,58,395,-71,-11,116,141
313,117,63,-1,109,318,-19,78,111,194
236,123,93,52,148,119,-37,76,67,145
213,115,94,10,-6,-84,-127,8,42,167
215,90,71,-19,-131,-192,-122,-3,67,193
286,226,152,84,-16,-175,-81,0,87,30
176,265,149,56,0,-3,183,86,163,-142
-35,71,25,-172,-204,196,764,327,276,-99
-162,-167,-116,-354,-269,324,1099,389,310,100
-342,-278,-276,-371,-249,229,1501,-42,-50,-76
-612,-406,-335,-172,-75,-39,1495,-596,-774,-581
-443,-263,-123,113,81,-192,631,-772,-984,-553
-116,-13,57,115,49,-30,-855,-241,-319,-92
-36,-66,-14,34,-14,0,-1783,403,234,173
111,-61,-17,201,166,-201,-1413,124,197,315
285,98,87,225,236,-175,-698,63,147,391
109,23,-40,-47,-47,-214,-420,768,46,127
112,-33,-83,-115,-162,-170,-54,474,-40,-5
238,111,89,89,46,84,964,-257,-81,109
108,64,124,163,163,40,1163,-330,-29,107
-13,83,172,228,258,85,484,-351,86,150
-212,116,207,272,223,411,-688,-7,174,168
-284,0,82,67,-153,474,-1015,203,130,59
-155,35,68,13,-218,451,-465,-420,75,81
-228,-30,-9,-8,-113,231,175,-412,-63,-95
-320,-233,-248,-215,-224,-156,119,-22,-116,-314
-47,-139,-238,-236,-69,-402,-430,590,40,-181
244,-53,-121,-64,208,-403,-417,623,157,76
305,-44,-57,33,181,-206,-208,168,185,234
250,-10,-45,7,61,-170,-84,4,74,278
172,25,-11,-17,-22,-189,-33,-43,-41,285
158,20,0,-38,-117,-18,-67,-63,-79,320
75,39,27,-20,-186,132,-82,-16,-76,280
-59,-22,-5,-63,-217,154,-3,47,-17,198
4,-121,-129,-186,-246,24,56,107,93,165
25,-63,-122,-122,-69,-134,10,73,105,7
-17,-80,-101,41,186,-137,28,-26,46,-210
-30,-49,-11,111,211,-61,256,-154,-26,-311
76,149,137,132,77,15,405,-264,-74,-201
184,241,193,135,90,138,362,-321,-174,-52
118,58,-12,-71,-1,39,194,91,-178,-59
-316,-304,-394,-424,-392,-119,179,388,-214,-368
-493,-352,-351,-366,-319,-48,295,-491,-473,-481
-172,-49,25,68,182,130,318,-489,-824,-224
-223,-28,44,90,237,186,596,63,-801,-203
-138,-170,-174,-126,7,-31,235,468,-49,-181
110,-116,-127,-98,4,-188,-822,949,731,-45
180,142,174,171,214,-89,-1073,-425,336,108
-31,256,241,215,200,0,-494,-720,97,124
-319,182,191,177,136,148,-151,-212,98,-10
-410,64,136,174,113,233,-32,17,7,-129
-251,41,108,140,74,125,-74,-1,2,-33
-3,88,114,91,18,-126,-98,-82,109,101
71,87,87,57,1,-181,48,-589,127,112
80,135,114,80,13,-121,171,-314,123,128
-118,-4,-49,-74,-130,-132,-46,1404,160,-15
-186,-79,-151,-172,-191,104,-81,856,56,-110
136,154,122,98,82,518,97,-579,113,151
221,136,150,133,81,347,-1,-394,151,193
-58,1,22,20,-9,5,-69,-203,78,22
-313,-91,-61,-60,-24,-207,-97,-290,5,-159
-182,-22,22,-16,-64,-298,-78,91,66,-199
-82,30,89,102,29,-218,24,387,101,-134
-60,2,34,48,-37,-118,134,123,47,-36
21,17,-73,-103,-313,-65,167,68,34,30
-58,-84,-276,-382,-673,28,324,-87,-115,-34
-285,-282,-392,-568,-793,151,323,-569,-530,-334
-254,-193,-212,-247,-267,462,724,-1151,-775,-536
-102,-97,-97,9,153,535,1885,-1849,-832,-496
64,-87,-90,121,416,78,2111,-1991,-622,-272
94,-88,-85,174,438,-402,660,-821,-489,-108
235,50,26,164,259,-423,-1267,3412,185,187
293,104,43,53,19,-404,-1679,3165,768,408
273,106,77,9,-10,-161,-888,208,937,471
257,68,59,60,119,120,109,-517,569,410
131,-24,-7,83,125,137,909,-452,87,227
145,-9,9,67,80,93,730,-398,-65,204
344,155,164,196,244,152,-304,-20,-32,461
501,181,167,181,213,-86,-1420,819,162,541
607,32,-54,-44,-59,-309,-1065,404,328,415
582,-15,-127,-154,-172,-175,-91,-370,390,299
304,28,-114,-282,-378,-190,189,475,130,67
71,149,-58,-361,-555,-242,-75,712,-62,-111
255,342,149,-108,-272,54,-131,61,74,119
242,253,197,230,190,135,-324,-349,129,200
-22,10,49,220,296,-40,-417,-457,-8,32
8,-132,-57,111,222,-41,-413,-424,-83,-116
-280,-163,1,164,241,18,-260,-189,-20,-202
-535,-118,39,163,175,52,-38,-69,-19,-309
-489,-48,109,180,115,131,48,-40,-4,-319
-329,-56,63,118,58,156,70,5,40,-288
-221,-84,-19,20,-73,96,70,6,27,-282
-218,-77,-20,7,-161,55,5,-82,-88,-308
-141,-84,1,-28,-189,154,7,-116,-80,-191
-4,-79,10,38,48,381,68,-269,-77,-114
100,29,79,138,166,365,52,-82,-53,-56
17,-1,15,51,233,70,-45,489,-54,-13
-100,-150,-101,-47,198,-185,-60,-100,-204,-61
53,-86,-47,-35,32,-325,-38,-1074,-451,-12
223,107,88,70,13,-364,47,-463,-521,104
149,116,97,37,-4,-136,497,1157,-387,85
-119,-47,-81,-185,-211,-34,597,669,-165,-21
-146,-83,-165,-213,-220,-13,81,-65,562,46
-106,-15,-106,-20,54,20,-297,-293,491,75
-116,56,-11,77,206,-44,-392,-254,230,48
-160,20,-22,13,131,-66,-322,-274,143,86
-190,-76,-43,-10,69,-38,-268,-144,50,81
-32,-85,-46,-24,37,-97,-154,6,53,143
98,-65,-70,-62,-25,-122,327,47,29,133
157,3,12,-40,-70,-123,879,-36,-89,28
182,32,55,-62,-131,-69,765,-91,-100,41
204,104,123,-41,-24,163,-45,-53,-18,124
256,190,239,67,225,373,-611,192,82,90
222,191,247,-27,69,474,-170,325,170,55
48,64,122,-89,-237,422,-27,247,151,-16
-209,-143,-78,43,-140,247,-133,93,11,-234
-289,-208,-136,120,137,184,-152,-450,-90,-295
-225,-130,-87,135,240,188,-56,-657,-159,-217
-244,-139,-125,-35,10,81,29,965,-92,-203
-120,-57,-42,-74,-15,-15,89,1135,27,-112
138,145,127,92,201,3,77,-411,94,38
99,96,67,-38,-75,-270,-22,-421,59,-28
104,99,74,-44,-314,-456,-27,-177,-20,-52
190,123,125,102,-130,-220,182,-279,-147,-41
-36,-127,-99,-23,-69,-236,966,-513,-448,-298
-470,-475,-426,-340,-360,-418,1423,-780,-539,-504
-482,-357,-290,-279,-260,-114,1018,-811,-387,-421
-38,79,100,79,145,326,-297,-152,77,-6
397,352,389,293,342,412,-1266,462,525,453
576,410,414,278,145,211,-670,119,321,415
461,122,65,-112,-403,-116,-110,-390,-126,55
10,-470,-559,-722,-932,-643,-420,-1030,-431,-334
-194,-671,-704,-613,-568,-509,401,-1497,-484,-279
-39,-269,-243,-1,203,78,1662,99,-434,-17
32,118,-16,62,145,142,1417,2068,-118,3
-4,281,136,50,15,178,-140,2423,194,-19
-260,-77,-100,-172,-305,-103,-1389,1064,341,24
-405,-220,-164,-148,-154,-304,-1306,-896,102,-56
-244,-15,69,181,331,-241,-1075,-792,-199,40
-150,-64,-53,203,265,67,-480,171,-100,152
-87,-100,-75,81,203,385,209,218,90,-9
356,315,362,321,538,417,183,257,325,178
477,411,403,284,369,78,-300,487,411,290
462,389,314,163,130,-71,-379,248,297,192
416,330,251,142,67,-120,-215,-290,99,147
132,125,110,84,86,-108,-107,-397,5,115
-133,51,118,116,133,-72,-143,-175,108,74
-298,54,109,118,116,-4,-53,75,109,7
-263,8,36,96,92,54,28,302,36,13
-123,-15,64,128,115,57,61,463,24,78
-82,-8,91,141,109,28,62,334,108,72
-88,-42,-13,72,61,-41,59,-52,230,47
-72,-101,-107,-20,23,-90,77,-135,120,-19
37,-41,8,20,54,11,60,-67,28,13
48,-49,-19,4,-25,209,76,-58,2,44
34,-77,-82,-87,-137,343,95,-7,44,101
41,-49,-88,-147,-201,266,49,40,153,174
3,39,-41,-151,-227,158,154,42,165,146
-19,70,0,-114,-135,50,305,87,70,62
9,8,20,-31,127,-30,351,133,-25,10
-2,-44,-4,-6,106,-132,198,280,-30,-138
-224,-199,-155,-154,-133,-210,-21,289,8,-270
-226,-189,-161,-204,-226,-145,-112,-116,124,-193
-35,-17,-2,-71,-144,23,-21,-256,178,-69
164,107,78,10,-104,0,168,-242,146,94
251,84,30,38,-35,-174,575,-26,207,154
247,28,-20,16,32,-183,595,-75,59,127
315,69,-2,-50,-22,-46,-152,-62,-96,195
446,146,88,-13,-5,29,-958,170,-106,428
414,162,123,0,-18,12,-687,220,-122,459
223,126,91,-39,-90,37,-310,35,-187,321
-81,86,63,-44,-79,47,-137,-594,-336,83
-263,70,-16,-60,-85,49,148,-700,-376,-101
-464,-162,-306,-162,-79,-34,272,620,-210,-322
-608,-249,-266,-19,236,138,97,566,-103,-583
-348,39,121,305,609,475,45,-388,-49,-413
-75,135,190,317,576,415,120,-395,-37,-148
47,129,133,140,224,199,239,-648,-105,38
-130,-125,-123,-159,-122,19,617,-472,-264,-43
-378,-382,-430,-405,-404,-71,1742,-1198,-670,-392
-397,-439,-466,-392,-466,-259,1901,-922,-914,-599
-313,-355,-374,-315,-333,-380,344,952,-449,-403
9,-84,-95,-88,-51,-217,-1082,741,343,21
564,372,422,505,482,76,-2092,720,1187,490
532,332,378,463,445,212,-1384,551,754,367
217,119,198,220,218,177,-550,206,162,82
57,58,153,185,99,-12,-320,32,-62,-33
-11,54,125,131,-17,-219,-244,6,-82,-64
64,98,104,66,-95,-323,-59,86,39,89
219,75,17,12,-86,-198,119,176,129,186
256,10,-34,-66,-81,-61,96,170,101,140
308,17,1,-65,-52,-52,-54,76,4,112
339,92,50,-60,-24,-33,-190,1,-52,92
216,152,66,-164,-129,32,-213,-14,-56,95
140,148,11,-182,-304,93,-199,-57,-94,-43
204,145,49,-109,-421,23,-143,-108,-129,-211
265,75,59,-182,-463,13,134,-104,34,13
106,18,6,-145,-216,81,562,-220,90,178
-340,-196,-201,-65,102,-54,1305,-942,-443,-249
-762,-513,-494,-293,-113,-267,1327,-891,-893,-711
-805,-526,-420,-282,-135,-74,633,180,-771,-653
-444,-200,-61,59,159,251,-373,0,-271,-200
5,122,205,260,276,152,-609,-20,429,292
62,138,149,85,-7,-253,-745,1012,680,450
4,108,80,-2,-146,-304,-718,2032,552,358
-60,90,92,78,-10,-72,-342,457,325,164
37,131,160,243,250,135,-97,-1034,105,205
75,99,117,182,261,85,-132,-618,228,225
146,97,96,94,177,44,-78,-46,356,230
201,117,99,70,111,65,-47,-1,278,240
183,125,113,91,78,75,-144,40,206,116
143,89,114,68,43,111,-163,37,126,-98
218,29,48,-9,-30,74,-157,7,65,-154
287,94,103,7,-67,-62,-150,-15,23,-94
54,88,116,28,1,-39,-46,26,-9,-39
-303,-101,-25,42,141,78,34,40,-20,-89
-350,-110,-41,37,138,58,-26,-11,-44,-98
-296,-32,38,57,63,51,-40,-13,-27,-72
-255,37,111,44,-109,108,126,83,-8,-66
-254,186,170,33,-278,177,333,155,-34,-84
-117,174,62,9,-306,161,386,226,-58,-35
48,17,-22,2,4,153,224,221,-87,13
60,-96,-81,84,332,71,10,141,-149,16
73,-55,-37,85,191,-112,-135,142,-195,50
-23,-58,-10,-19,-11,-159,-178,258,-172,-27
-285,-256,-189,-178,-154,-135,-85,334,-58,-241
-273,-231,-219,-80,-77,-32,-81,-61,100,-288
-101,-110,-145,84,181,2,-21,-307,87,-142
-57,-122,-89,17,137,0,532,-109,91,-40
-95,-101,-82,-60,31,6,1090,-97,-11,-106
-132,-118,-108,-67,35,12,825,-237,-82,-113
-99,-106,-131,-39,87,56,-199,-330,-22,20
136,68,10,53,120,32,-712,-545,-5,222
458,242,241,171,150,10,-135,-1100,-72,340
471,89,77,0,-56,-117,414,-262,-11,331
-154,-463,-454,-511,-550,-408,844,895,-112,-93
-394,-544,-521,-564,-515,-322,889,264,-277,-338
-65,-30,-45,-34,93,312,347,-538,-344,-140
156,428,322,376,399,737,-794,-139,-54,213
136,488,382,353,310,596,-998,257,193,409
16,223,243,139,177,262,-524,-198,21,419
-21,67,117,21,-14,-55,-633,-272,-26,351
-167,-110,-58,-77,-222,-493,-519,-58,-1,18
-160,-170,-137,-96,-242,-492,-222,0,-15,-174
-94,-135,-121,-83,-220,-10,-33,198,-123,-315
-163,-180,-180,-191,-302,347,36,-95,-443,-517
-173,-144,-158,-274,-202,326,27,-560,-503,-488
-62,-61,-50,-209,109,194,396,1026,-17,-284
93,31,69,-9,262,174,810,1254,294,-137
222,93,124,152,338,-1,455,574,646,1
402,280,294,332,281,-111,23,-436,555,153
459,356,287,384,157,-124,-358,-676,145,201
328,220,139,158,-5,-191,-649,-379,38,133
177,44,-36,1,-65,-328,-614,-170,-35,62
204,-14,-128,-72,-67,-447,-469,-49,9,108
293,114,-1,-25,-36,-444,-307,30,166,306
235,109,25,-41,-94,-289,-26,126,264,510
-104,-90,-60,-72,-32,-67,205,348,251,359
-298,-160,-73,-8,44,-24,172,384,102,75
-243,-156,-72,8,13,-16,-13,203,23,-39
-25,-107,-54,-4,20,-8,-59,78,16,3
160,15,26,-3,-44,-44,89,-36,-29,43
60,106,88,3,-100,-30,88,-105,-109,-91
124,80,68,4,-57,5,6,-69,-80,-24
135,52,85,11,-72,-19,-44,15,39,30
47,51,78,-7,-74,-16,-134,18,59,-23
-15,35,58,28,60,-30,-196,7,0,-51
-76,-12,6,-30,92,10,-93,77,-70,-67
-81,-13,-2,-132,-143,63,35,289,-81,-10
-67,43,-3,-84,-317,-14,619,335,-91,15
-195,-3,-5,54,-100,-30,1276,159,-156,-108
-262,-25,-21,27,127,44,1013,-35,-321,-219
-152,25,34,28,112,235,68,-469,-360,-123
-257,-135,-88,37,145,87,-952,-154,-153,-180
-739,-653,-597,-407,-286,-473,-895,-117,-60,-620
-723,-552,-435,-304,-224,-351,-391,-719,-173,-635
-309,-86,42,97,123,209,278,-788,-213,-319
135,235,308,309,304,472,570,-136,106,80
221,168,168,190,126,134,-11,443,362,207
238,181,188,265,154,-53,-395,244,325,206
152,165,179,272,197,-41,-211,531,204,67
-124,-88,-101,-3,-4,-145,-133,511,33,-202
39,73,39,104,171,148,143,-825,-30,-42
383,395,342,348,429,398,286,-1352,-133,316
342,322,222,189,222,215,258,56,-169,336
250,140,14,-17,-6,119,251,125,-127,206
304,98,-29,-39,-49,165,-200,66,168,263
232,28,-103,-155,-189,19,-334,529,179,201
36,-124,-245,-324,-323,-116,871,194,-39,-21
-117,-371,-553,-553,-484,-352,2056,-245,-277,-222
-127,-328,-449,-412,-318,-260,1757,-906,-360,-196
124,55,44,-8,26,110,-62,-1255,-195,148
206,189,187,85,69,68,-1781,711,228,417
-181,-230,-279,-208,-178,-406,-1375,3009,236,72
-381,-363,-386,-205,-156,-432,-393,1076,-123,-327
-56,-63,5,99,153,-36,-32,-1372,-91,-125
291,212,256,326,357,175,-523,-597,183,227
252,231,275,305,277,348,-580,-54,118,194
164,158,212,193,132,634,-320,-23,62,90
109,56,115,119,111,711,-67,248,33,59
181,-31,0,53,65,405,-26,408,-23,37
46,-60,-120,-70,-75,35,-97,254,-67,-50
-193,-105,-102,-142,-138,-256,-157,-143,25,-171
-363,-181,-110,-135,-312,-408,-70,-267,43,-186
-402,-194,-145,-72,-349,-188,109,-201,3,-145
-342,-149,-73,88,-78,78,162,-363,-118,-193
-267,-10,56,152,154,270,348,-459,-285,-282
-226,37,53,120,382,247,560,-216,-232,-304
-305,-188,-255,-140,205,-46,361,568,31,-268
-465,-320,-322,-309,-230,49,47,884,181,-263
-218,-25,49,0,-151,672,-110,93,182,-109
112,216,259,207,23,665,-387,-264,142,168
112,109,158,128,130,70,-552,-293,55,190
73,-12,14,18,121,-508,-526,-245,-13,122
159,122,78,14,95,-811,-429,-128,1,143
292,301,205,82,-29,-815,-245,114,124,254
397,411,265,116,-20,-507,-129,243,158,300
372,243,121,27,-49,-191,18,178,129,268
191,-46,-63,-99,-156,-100,302,-150,-70,222
32,-52,-70,-192,-187,-57,-222,-4,521,-25
224,113,123,38,75,15,-153,46,187,-74
177,142,186,175,266,17,-1,-7,116,-136
82,77,115,112,224,53,493,-164,57,-95
30,4,20,-7,71,44,1449,-219,-49,-65
61,55,29,-31,7,43,1676,-214,-84,-20
159,224,234,129,97,294,827,-321,-97,85
189,248,276,121,53,407,-654,90,62,203
30,29,0,-183,-349,79,-1127,577,143,109
-199,-257,-306,-494,-688,-191,-616,-87,-50,24
-415,-448,-480,-604,-583,-259,-181,-1383,-559,-290
-156,-185,-222,-361,-327,-35,261,-2171,-740,-381
147,37,5,-211,-267,232,840,-265,-252,-160
-254,-265,-203,96,249,94,1078,1728,62,-348
-612,-446,-400,65,247,-375,579,804,-85,-559
-439,-189,-198,-4,194,-375,211,-731,-217,-388
-77,190,247,324,476,94,-430,-235,165,69
100,292,330,329,403,61,-926,1503,509,356
-117,-17,33,22,78,-138,231,724,201,86
-116,-121,-38,12,74,0,418,-203,-61,-6
234,121,130,160,204,134,-832,205,109,226
603,285,248,245,219,47,-1374,443,347,316
662,270,235,187,107,-24,-738,-11,282,208
484,236,135,70,-5,-22,-326,-262,58,102
291,59,-70,-24,-6,-46,-258,-125,115,335
3,42,-38,58,89,-78,-191,10,94,297
-332,7,63,87,67,1,-67,58,40,73
-376,-24,26,35,34,120,33,73,-22,-46
-279,-24,-58,-8,58,170,64,152,-78,-106
-160,-24,-124,6,66,105,22,137,-56,-95
5,24,-8,7,33,29,-50,27,6,8
46,32,21,6,-1,7,-49,19,34,77
-18,-51,-119,-45,-71,-5,11,45,68,108
-18,-59,-155,-58,-80,9,33,-10,47,100
32,-4,0,-10,-29,-6,26,-43,-27,70
73,-9,48,12,-2,-85,-80,-23,-66,74
72,-1,77,23,29,-97,72,81,-85,66
65,35,128,30,115,135,532,126,-92,83
6,-28,35,-76,70,570,715,195,-50,74
-11,-93,-51,-157,-156,837,525,212,-68,-9
-106,-214,-182,-170,-341,660,264,-225,-356,-286
-194,-197,-151,-114,-258,277,-23,-627,-649,-431
-72,-59,35,57,101,-79,-638,728,-540,-318
-155,-198,-91,-24,80,-434,-678,896,-412,-330
-11,-49,14,78,146,-518,-134,-1401,-194,-89
21,-23,5,22,0,-609,-156,-1104,117,81
-66,-164,-157,-221,-373,-697,-292,639,274,43
45,-41,-46,-132,-228,-402,-141,103,155,86
166,107,89,22,24,-117,-123,-294,247,213
230,171,181,80,80,-81,-154,-141,194,236
218,182,161,67,-43,-159,-174,-94,74,175
146,132,153,30,-61,-148,-152,-67,20,98
83,32,104,-1,30,-71,-69,-21,45,48
12,35,104,-34,21,-23,-18,18,71,7
-82,32,108,37,68,-31,-11,22,55,-35
-19,20,47,61,35,-24,11,43,74,-5
49,-3,-61,46,41,17,41,73,92,54
90,-54,-64,0,57,22,43,67,59,95
72,-44,-25,6,68,32,54,61,31,76
36,-77,-56,-12,19,38,102,141,109,73
27,-42,-29,-12,-7,48,101,165,134,121
-25,29,38,26,12,60,75,110,91,92
-55,92,123,55,9,72,57,-33,36,-2
24,177,216,108,40,69,38,-255,-24,-25
31,113,102,78,-2,107,86,-6,-89,-51
-141,-134,-196,-260,-439,-36,100,592,-139,-204
-189,-295,-293,-556,-841,-133,229,762,-13,-190
57,-98,-82,-358,-536,134,702,371,239,122
363,125,152,53,135,285,889,-126,114,357
511,204,186,130,347,245,532,-237,-46,430
470,154,94,14,188,323,27,-490,-110,505
432,175,102,43,70,340,-127,-685,16,553
292,95,-5,-49,-126,69,212,-1043,-37,283
-145,-239,-392,-456,-469,-369,759,-1517,-550,-336
-713,-644,-805,-822,-612,-868,997,-37,-871,-940
-670,-511,-557,-374,-142,-757,1190,1622,-725,-902
79,191,244,480,592,135,236,467,-348,-282
674,557,687,855,907,552,-1150,-554,517,287
275,219,391,557,591,220,-1668,230,962,211
-439,-167,28,191,206,-110,-1217,586,523,-85
-549,-206,-50,79,66,-139,-654,236,256,-86
-378,-126,-23,81,73,-46,-293,122,142,-17
-296,-118,-20,65,79,11,-157,108,165,8
-218,-100,-20,43,41,11,-120,89,167,34
-235,-67,-9,30,11,-24,-123,80,137,35
-280,-41,6,40,7,-35,-102,64,114,-50
-395,-40,23,33,-1,29,-48,74,99,-216
-403,-33,-3,10,-4,73,3,79,65,-291
-240,-52,-46,-41,-42,56,87,-34,-26,-293
-348,-278,-265,-254,-238,-76,185,-420,-389,-500
-462,-385,-340,-325,-302,-110,398,-558,-638,-594
-262,-191,-91,-94,-65,139,1183,-461,-568,-380
132,231,290,247,202,309,1708,-53,-136,11
279,388,345,263,114,107,755,677,289,236
186,224,201,137,33,177,-818,544,362,278
164,78,126,101,25,246,-1162,429,296,318
292,210,252,186,43,136,-627,182,78,282
311,234,241,166,56,-58,-439,-201,-15,199
272,132,115,106,127,-70,-197,-647,-16,140
417,128,83,129,75,36,17,-632,-20,255
302,-27,-134,-165,-281,-150,-72,504,137,194
96,-125,-268,-368,-492,-223,-163,815,153,-23
179,46,-92,-161,-250,173,-172,76,45,43
185,163,52,37,40,292,-204,-256,-27,204
31,130,49,0,137,18,-194,-109,13,172
-113,40,-59,-91,-6,-189,-207,-45,-7,0
-187,-32,-107,-66,-14,-203,-165,-45,-43,-118
-280,-110,-86,-20,33,-174,-33,45,-9,-104
-329,-95,-7,42,94,-26,98,96,7,-93
-223,-24,67,119,220,80,168,75,-10,-76
-93,-3,23,82,226,45,150,77,25,24
-67,-4,-28,6,121,10,113,69,31,55
-111,-34,-60,-77,-7,-46,64,-149,-9,18
-165,-88,-90,-147,-68,-134,-33,-296,35,-19
-147,-83,-81,-145,-51,-106,-69,469,235,6
-136,-109,-131,-100,-78,-41,-67,549,211,-38
-41,-115,-135,-60,-26,-72,-107,-52,88,-85
185,-44,-102,-25,24,-83,-94,-124,132,-18
219,24,-46,-23,-2,22,-23,-104,100,-53
255,83,-10,4,25,240,120,-155,20,-52
294,165,157,130,113,384,193,-119,-22,45
250,155,168,84,28,288,130,429,-52,47
130,-37,-41,-139,-216,99,100,420,-171,-84
162,-71,-82,-116,-233,125,107,-229,-214,-85
245,55,40,-30,-218,70,112,-273,-199,-32
388,163,166,34,-155,-89,205,-123,-158,68
410,170,147,41,-28,-57,412,6,-134,60
143,120,54,-2,-38,3,424,371,-250,-124
24,169,101,58,-67,-49,494,437,-174,17
-372,-11,-50,-52,-103,-28,1286,-516,-221,-123
-747,-352,-354,-423,-416,53,1695,-1399,-536,-458
-598,-412,-353,-403,-379,136,305,-966,-403,-320
-293,-294,-202,-10,201,61,-1570,703,212,-50
23,-22,53,246,394,-35,-1777,610,514,178
178,159,222,280,304,-205,-882,-367,250,224
155,61,83,74,114,-509,-579,562,228,214
-12,-177,-200,-192,17,-539,-326,1052,306,77
93,6,-30,-1,224,-34,143,-86,155,77
45,41,57,213,213,108,94,-510,-39,16
-22,-59,27,236,130,-7,6,-1122,-272,23
121,35,93,200,187,43,239,-949,-522,37
114,-7,-58,-16,-79,-159,194,885,-466,-53
7,-212,-341,-263,-404,-348,-36,503,-252,-167
145,-152,-191,-145,-203,-12,-113,-1013,116,14
336,146,150,176,224,259,-374,-714,369,257
280,183,163,229,324,128,-275,941,369,250
88,61,18,47,108,63,-30,747,99,81
102,95,101,115,182,218,196,-596,-50,116
202,131,207,232,320,254,955,-867,-64,260
80,-22,69,127,158,109,2223,-453,-70,212
-62,-98,-22,-21,-85,-38,2058,-73,-16,143
12,45,88,59,-20,112,-48,78,31,177
33,110,67,69,49,162,-2204,620,230,205
-215,-89,-129,-153,-116,-80,-1780,648,284,29
-425,-158,-157,-183,-204,-277,-828,-17,-4,-235
-744,-371,-387,-345,-356,-463,-391,-414,-379,-623
-668,-313,-357,-256,-237,-256,-145,-531,-471,-681
-53,134,152,123,150,228,230,-476,-247,-316
414,499,465,364,397,461,365,406,341,123
335,377,294,209,233,103,-280,984,629,196
168,198,123,78,49,-131,-445,569,512,132
46,52,32,-42,-160,-98,-122,294,306,56
63,53,-21,-81,-279,-5,34,82,204,67
59,24,-22,-116,-274,296,106,142,195,80
1,-59,-143,-183,-248,409,26,668,112,4
-23,-102,-179,-101,62,213,114,373,-109,-118
223,21,38,115,437,59,364,-196,-187,-6
339,39,5,74,292,-208,291,-403,-267,136
235,-24,-33,-73,-47,-481,84,-731,-448,232
80,-29,14,-110,-214,-427,20,-36,-451,237
61,44,84,-120,-229,15,-35,1353,-320,162
13,-5,8,-27,-49,565,-107,295,-198,138
21,41,20,158,181,762,-239,-830,354,229
79,198,225,195,236,443,-39,-631,491,317
-106,10,71,-36,71,-54,221,358,173,143
-452,-301,-260,-287,-186,-544,192,532,-79,-203
-335,-140,-123,-60,-48,-508,158,-170,77,23
1,189,206,222,206,-155,11,-122,74,218
-30,178,192,154,118,-83,-237,-100,-35,-105
-107,28,47,23,-89,-146,-336,-197,-133,-280
50,7,11,-19,-174,-155,-396,-128,-120,-248
227,102,65,29,-68,-158,-355,-48,-9,-134
292,97,92,58,95,-97,-226,-48,-3,-108
457,33,36,51,198,-85,-162,-74,-33,-97
534,15,19,8,54,-92,-101,-72,4,-26
339,9,9,-35,-29,-52,-38,-15,22,-3
109,21,22,-44,-46,-21,1,112,38,22
-43,77,107,9,-34,-19,-22,-19,4,4
-103,82,101,-3,-43,4,-1,-428,58,5
32,62,64,56,50,88,123,-517,52,52
188,-11,-21,63,90,77,211,551,-62,7
104,-141,-172,-87,-46,41,305,548,-118,-66
-181,-141,-160,-55,-55,83,703,-217,25,-78
-597,-369,-325,-287,-296,-105,1406,-477,-297,-278
-739,-499,-397,-345,-323,-136,1377,-482,-610,-372
-427,-192,-66,3,50,147,385,-178,-428,-136
-16,171,268,346,397,359,-812,838,319,261
-28,132,173,207,237,161,-858,624,501,256
-274,-38,-17,-54,-72,-61,-715,-510,155,-30
-354,-109,-84,-168,-196,-67,-429,-210,-60,-190
-364,-187,-160,-304,-364,-120,-282,978,-35,-302
-299,-164,-148,-338,-489,-74,-170,479,82,-236
-56,89,168,21,-61,181,88,-362,27,0
31,142,256,295,333,184,254,-56,-5,-2
108,117,193,328,341,145,280,-346,-104,-87
184,237,231,254,249,294,21,-578,-97,26
63,182,136,234,293,289,-116,-251,73,57
-25,60,17,128,180,115,-153,209,78,-106
61,23,-43,-40,-122,70,-217,304,-37,-179
80,-12,-38,-73,-210,162,-209,17,-104,-65
-30,-78,-17,-38,68,202,-166,-80,-56,84
-60,-18,32,26,222,15,-205,-131,-55,150
-5,64,40,-37,-54,-294,-190,6,35,215
130,45,-7,-174,-326,-415,-16,162,117,264
168,5,-43,-125,-169,-298,98,-247,-19,189
99,41,-64,-28,88,-279,278,-666,-223,-21
-80,-79,-211,-215,-125,-272,1035,390,-201,-203
-332,-344,-312,-362,-317,-211,1418,1131,-156,-227
-321,-314,-200,-222,-191,-2,454,-22,-200,-150
93,11,7,54,125,192,-894,-959,234,232
197,92,48,154,230,21,-932,-370,502,348
70,74,102,179,212,-54,-342,5,290,175
-207,-110,-128,-56,-49,-126,36,-244,-93,-111
-451,-394,-398,-303,-247,-190,549,-606,-413,-391
-315,-345,-305,-190,-79,87,1572,-743,-395,-301
218,113,148,200,284,449,1632,-527,-56,200
607,472,454,433,420,350,286,465,472,650
518,337,289,272,211,-111,-1606,1003,669,631
191,75,7,14,-30,-368,-1468,705,551,349
-21,81,48,0,-89,-38,-708,182,331,54
-53,162,195,83,46,445,-245,535,174,-22
-6,153,180,43,225,501,-86,422,72,27
48,72,85,-83,-27,198,-101,76,17,58
24,-52,-60,-89,-322,-195,-137,-18,-124,2
-108,-145,-137,-38,-245,-356,-96,-93,-223,-143
-137,-84,-41,25,26,-261,-3,-83,-153,-201
-94,-15,35,116,137,-117,44,-135,-111,-154
-21,85,129,189,128,27,-48,-336,-158,-119
-65,34,77,120,14,37,-85,-225,-45,-169
-8,-62,-38,-21,-93,77,266,-95,73,-131
186,-2,-33,-29,-34,87,457,-87,8,21
268,63,13,39,146,-69,32,262,-43,58
264,68,5,19,37,-314,-391,700,56,54
334,137,46,12,-12,-172,-140,408,92,185
285,75,-39,-71,-39,90,454,-21,-111,211
-139,-267,-373,-368,-268,101,1252,-426,-501,-274
-371,-349,-415,-436,-330,-66,1058,-570,-587,-506
-271,-125,-143,-186,-132,30,17,-416,-335,-315
-9,217,193,198,141,187,-1358,192,154,72
108,293,200,283,113,-80,-1343,398,406,302
3,132,115,166,-19,-204,-571,170,256,168
-36,48,24,126,-15,-119,-282,34,78,61
-1,38,36,130,9,-84,-215,-23,3,49
9,37,70,96,33,-23,-144,41,22,42
22,43,83,-7,-31,22,-33,178,67,43
22,11,21,-65,-99,18,47,249,109,69
-95,-117,-161,-242,-309,-124,30,-136,-10,7
-171,-153,-219,-365,-427,-198,49,-1174,-388,-105
-88,-25,-39,-92,-165,-91,47,343,-347,-7
-278,-230,-195,-99,-72,-202,71,2618,-80,-158
-80,-93,-61,39,87,134,439,-196,153,-28
253,219,223,281,251,392,355,-1466,662,313
222,164,175,215,133,190,87,-813,286,271
60,24,-19,46,-59,9,96,-356,-258,33
-161,-94,-236,-152,-293,61,104,169,-202,-62
-1,79,29,19,-99,287,-255,482,171,117
299,110,141,16,93,242,-269,169,417,354
322,-132,-105,-115,115,-64,-74,257,159,241
211,-208,-311,-239,-106,-414,-266,133,-201,-95
356,151,17,-24,51,-270,-221,-1026,-211,-2
353,362,291,236,274,-22,-29,-1108,-173,106
155,108,113,129,77,-27,-31,419,-131,-24
-9,5,-45,-8,-109,-28,-25,440,-94,-198
-28,108,79,102,-18,156,19,-170,152,-166
-153,-60,34,72,2,230,92,-46,198,-126
-299,-81,82,53,8,187,181,160,136,-252
-296,80,169,104,84,119,164,235,126,-297
-288,2,111,184,231,95,82,142,107,-172
-284,-133,-50,145,206,65,82,112,62,-107
-238,-150,-129,-19,-17,-42,106,129,43,-92
-151,-79,-13,-31,-79,-162,72,112,57,-55
-101,-20,54,84,119,-124,142,115,-3,-75
-74,14,93,132,249,157,259,96,-72,-57
-84,15,72,56,84,403,219,21,-110,-22
-112,-26,-12,-44,-88,592,93,-78,-160,-38
-113,-88,-88,-129,-225,535,-94,-128,-181,-100
-60,-90,-46,-79,-222,166,-266,-149,-167,-87
-40,-60,-56,-11,-6,-132,-296,-129,-144,-79
-80,-110,-167,-128,4,-247,-171,-28,-124,-86
-53,-129,-203,-171,-126,-404,138,43,-88,-36
116,-31,-60,-82,-127,-417,823,55,-31,107
174,25,17,-28,-20,-287,1014,22,-146,45
145,-39,-50,-117,-86,-228,567,-172,-165,-53
162,-99,-112,-141,-141,-208,311,-79,25,-49
277,80,68,49,39,-43,643,-400,9,-10
478,438,426,372,361,326,628,-1286,-119,176
334,398,434,387,344,343,-540,-306,113,323
-87,127,169,81,-24,-109,-1114,829,380,201
-354,-93,-88,-148,-236,-343,-671,880,343,61
-407,-229,-270,-238,-221,-214,211,362,34,-75
-479,-364,-390,-377,-356,-239,450,-439,-351,-304
-315,-240,-266,-239,-235,88,592,-1252,-467,-301
9,-48,-8,28,108,742,1116,-1292,-359,-164
21,-147,-91,-58,45,524,1032,843,3,-64
-135,-257,-239,-250,-256,-317,-325,1392,69,-96
57,80,58,-27,-92,-290,-1157,-96,-20,75
370,443,375,175,112,-70,-1927,-19,291,467
432,393,321,130,210,-241,-1482,235,410,514
78,122,83,55,186,-162,-595,191,243,211
-82,64,-21,226,285,-38,-296,126,113,-27
76,174,136,351,310,-111,-302,-122,99,25
144,131,130,175,88,-101,-127,12,122,67
-62,-35,-68,-37,-79,-101,-58,570,0,-99
-261,-190,-264,-166,-133,-133,-43,52,-193,-305
-149,-198,-233,-151,-92,-52,194,-549,89,-134
-111,-212,-176,-180,-147,-91,244,435,353,-35
-215,-221,-171,-215,-226,-231,155,757,79,-241
16,50,114,45,34,10,277,-542,-78,-116
216,217,274,189,179,172,-111,-319,136,131
121,114,145,80,67,53,-400,351,234,146
12,119,125,69,58,31,-235,314,41,26
-15,125,132,77,83,30,-101,298,-161,-79
66,115,121,60,73,-9,-96,149,-137,-37
145,130,114,52,53,-5,-14,-44,-64,51
99,91,59,19,36,51,156,-157,-72,66
44,3,-41,-27,22,104,191,-160,-74,97
56,8,2,-16,22,103,72,-115,-22,107
44,53,47,14,35,76,11,-38,8,35
22,64,7,20,47,48,-3,-12,17,53
-16,66,38,-4,10,41,10,-2,-11,77
-56,53,59,-16,-42,36,45,-4,-27,50
-116,-11,30,-23,-36,44,67,10,-18,20
-23,-54,7,-2,26,23,17,15,-20,36
148,-76,-12,-1,50,-24,-22,57,-39,62
135,-69,-2,4,14,-13,3,137,-89,89
128,-36,-16,-78,-78,87,91,165,-188,78
43,-38,-44,-162,-102,139,231,52,-342,109
-1,-27,-13,-159,-173,36,358,-785,-480,205
-66,-58,-64,-117,-191,-143,217,-456,-150,132
-291,-351,-479,-325,-337,-463,-66,2243,308,-180
-251,-467,-574,-440,-463,-529,98,1003,-64,-471
332,119,85,81,-63,-51,289,-2827,-552,-207
608,454,419,396,239,340,191,-2309,-601,85
164,192,216,252,162,586,370,712,-546,-125
-270,-75,-43,10,-6,649,276,116,-306,-332
-304,11,5,20,167,412,-283,-396,630,-179
-251,35,43,42,179,72,-143,198,607,-112
-170,-90,12,47,57,-122,668,464,249,-70
-51,-98,0,-1,96,-324,925,288,155,-18
28,8,31,-18,184,-231,248,-41,68,11
49,-32,-61,16,130,27,-912,-32,158,177
89,-72,-130,-37,38,159,-1013,158,238,300
65,-77,-77,-9,159,202,-533,85,131,238
74,-31,0,70,228,40,-310,75,96,132
118,13,61,74,137,-162,52,198,186,86
56,3,47,66,74,-314,400,270,252,55
149,147,104,57,25,-313,428,239,246,23
174,214,116,26,-112,-7,334,175,195,-53
107,84,36,-96,-323,618,261,76,177,34
181,246,-27,-159,-419,971,88,297,294,215
111,485,-54,-65,-252,572,-115,653,229,90
-312,258,-229,-122,-61,-144,380,-181,-258,-393
-491,27,-369,-120,110,-775,821,-842,-492,-544
-319,-117,-279,34,171,-954,421,-667,-471,-335
142,228,118,283,306,-445,-638,-30,-112,36
431,514,469,475,407,-58,-1408,586,321,334
159,168,291,247,188,-123,-874,343,124,211
13,130,97,56,23,-157,-336,150,52,18
140,430,111,91,41,-102,-82,112,200,14
248,462,161,124,46,-83,-64,53,129,83
251,406,140,127,54,-61,-78,-12,28,122
253,412,62,110,61,19,1,-124,-37,142
164,287,-71,-13,-87,-94,-23,18,14,89
71,151,-209,-166,-217,-171,10,424,140,-3
228,194,-100,-64,-46,44,159,408,187,60
443,371,56,98,121,142,97,-12,10,86
494,385,95,108,65,58,10,-75,7,20
365,205,35,24,-34,22,32,169,167,48
68,-130,-10,-2,-13,75,152,-51,35,7
-137,-188,-276,-224,-173,-96,179,-388,-320,-246
-187,-200,-450,-400,-318,-225,135,-532,-510,-378
-101,27,-153,-137,-99,70,349,-448,-318,-211
28,122,279,147,113,356,475,143,104,115
-64,89,451,159,58,231,115,269,307,190
-201,14,359,30,-157,150,-207,-467,186,122
-308,26,92,32,-130,147,107,271,137,-22
-600,-436,-184,94,191,39,548,728,-125,-311
-482,-665,-127,102,247,133,860,-247,-258,-178
-286,-455,-23,111,133,151,109,-29,-68,75
-237,-468,-65,-13,-5,-16,-755,555,293,204
24,-416,-62,-97,-135,33,-550,669,379,279
126,-330,1,14,27,162,-307,190,163,262
-27,-419,-52,23,56,60,-195,-31,50,243
-172,-376,-41,7,7,-85,-60,-140,18,168
-250,-266,-11,-39,-42,-187,-94,-279,-67,21
-83,-215,-16,-122,-95,-155,-182,-278,-121,-29
92,-165,-38,-161,-98,-91,-159,-150,-61,-3
65,-129,-56,-128,-56,-47,-102,-24,18,-2
97,-121,-144,-63,-19,-19,-79,30,24,-43
276,19,-102,-13,-39,-1,-67,60,6,-118
191,89,51,14,-74,19,-57,14,-60,-141
19,-134,64,-28,-77,24,-46,-35,-104,-132
-234,-323,-34,-21,53,73,0,-100,-146,-170
-284,-335,-17,-12,123,72,15,-251,-162,-121
-158,-245,31,-33,60,74,74,-415,-144,-25
-32,-146,106,39,88,118,245,-541,-179,-1
-51,-177,58,9,44,82,350,-361,-150,-12
-53,-194,0,-19,14,5,-71,-1,-101,-48
-73,-218,-70,-136,-124,-183,-574,554,-3,-86
-26,-204,-49,-119,-130,-190,-293,475,28,-4
-52,-115,87,57,95,-56,94,218,2,62
-95,-107,67,42,125,128,424,132,25,84
-59,-121,19,-56,-72,203,1128,78,-22,22
-103,-121,-7,-141,-331,275,2308,441,-249,-188
-295,-276,-244,-364,-644,355,2297,291,-515,-329
-285,-188,-146,-108,-330,998,643,-1115,-504,-205
-49,71,226,260,219,1132,-1947,-1299,-190,60
-196,-181,-29,-17,243,137,-2385,437,-8,12
-337,-340,-266,-238,-38,-657,-1434,458,-75,-193
-132,-119,-181,-81,-51,-771,-761,-124,201,-76
15,76,-7,58,26,-713,-482,-131,240,36
136,178,107,93,77,-568,-428,-59,150,96
223,197,159,147,197,-369,-408,-85,99,86
221,171,166,162,168,-252,-287,-70,57,95
204,121,114,81,21,-224,-127,41,68,127
145,-16,12,-1,-27,-238,-34,110,108,100
70,-123,-40,-19,3,-154,168,22,76,92
-127,-257,-169,-144,-109,-178,951,-194,-124,-56
-307,-372,-372,-350,-315,-290,1461,-360,-348,-279
-172,-199,-227,-208,-193,-144,933,-356,-306,-137
151,164,185,176,158,151,-490,10,18,239
367,364,421,373,305,164,-1333,442,357,504
199,200,255,190,117,-54,-774,212,236,371
-58,-27,29,-4,-2,-112,-381,129,78,107
-245,-118,-60,-56,8,4,-231,211,-1,-133
-204,-83,-34,-30,46,152,-163,175,32,-159
72,52,74,36,80,197,-91,18,63,-38
180,31,41,-18,-12,166,100,-55,-45,-19
129,-103,-100,-155,-203,39,291,-34,-186,-36
80,-116,-149,-224,-310,-117,323,-12,-392,-71
58,-31,-87,-114,-163,-114,281,-80,-432,-71
251,177,117,90,52,23,-79,-72,-93,89
225,167,14,-57,-155,-35,-325,183,406,151
70,59,-83,-95,-147,-42,6,-528,288,20
228,95,22,9,-4,-86,-101,-152,90,150
-66,-186,-228,-212,-207,-314,-276,646,-11,67
-415,-305,-372,-333,-272,-273,8,-919,-452,-232
-458,-184,-239,-192,-83,-86,151,-1276,-564,-288
-657,-371,-349,-205,-159,-57,240,109,-306,-411
-217,-26,3,155,185,265,558,813,392,-96
346,491,480,515,511,424,62,666,585,213
320,497,464,470,424,245,-395,101,344,157
120,303,285,297,233,101,-165,36,243,42
-27,136,185,236,219,137,1,69,161,-95
-15,55,142,189,174,163,63,91,122,-123
-46,79,113,168,91,165,76,125,89,-124
-66,81,90,160,67,183,64,146,80,-99
2,67,35,29,-24,158,91,149,83,-12
66,135,-23,-65,-16,60,120,94,98,51
56,119,-7,15,68,-96,124,-56,83,68
94,64,28,68,22,-48,122,-19,87,95
130,11,-4,48,21,258,71,721,172,163
24,-62,-84,-34,-24,291,-51,761,100,65
46,8,-31,-63,-63,214,-35,-45,113,79
127,65,13,-150,-123,36,12,-333,112,114
171,0,-72,-298,-336,-215,-1,-300,-12,57
222,12,-43,-207,-331,-336,-81,-231,-83,65
400,91,46,26,-91,-279,-125,-203,-133,153
537,110,37,10,-62,-176,-5,-213,-129,200
466,94,48,-2,-26,-64,182,-226,-136,173
287,182,92,22,13,73,122,-375,-143,160
107,265,102,7,-51,76,-123,-456,-12,258
-248,192,141,130,122,68,-63,-384,49,243
-679,-11,19,227,398,27,214,-274,-13,-19
-768,-212,-168,72,273,-31,132,-89,-10,-227
-369,-276,-271,-134,10,-150,-430,399,55,-226
66,-157,-167,-168,-117,-206,-396,556,144,31
377,100,-26,-76,-76,-60,-77,256,138,190
409,437,-80,-88,-75,43,129,270,219,176
261,284,-143,-110,-26,55,194,319,196,58
58,50,-138,-9,126,152,398,279,28,-194
-139,-159,-140,-35,50,164,1254,155,-168,-389
-430,-466,-326,-308,-274,-111,2120,-247,-366,-602
-608,-541,-374,-406,-289,-219,1512,-548,-482,-682
-397,-220,-38,-68,152,-6,-336,-394,-535,-552
54,190,272,175,266,156,-1608,557,-96,-44
181,315,405,351,271,214,-1322,1189,300,194
-84,54,189,333,146,72,-497,564,349,-26
-143,-141,-48,48,-101,13,-35,-613,182,-165
60,-6,51,36,-55,223,92,-1030,-153,-98
160,53,81,35,27,413,-71,17,-178,5
27,-98,-60,-93,31,373,-167,657,-161,-79
54,-45,-28,-60,31,230,-118,-12,64,-10
199,70,40,73,116,-22,-194,-212,110,120
258,48,4,50,69,-328,-281,-200,-113,98
306,77,45,16,-88,-454,-241,-155,-151,202
161,62,4,-21,-250,-316,-75,-216,-224,175
-98,-34,-89,-138,-386,27,102,-77,-136,45
-134,43,39,64,-36,329,-89,75,101,76
-8,225,192,216,156,206,-337,-115,190,152
32,286,180,149,33,-43,-253,-355,74,10
-65,221,237,177,227,-35,-187,-518,-101,-93
-229,47,181,118,182,-52,-4,-380,-30,-6
-210,-145,-45,-187,-291,-255,168,-236,96,75
-99,-259,-218,-284,-319,-315,202,332,137,22
-160,-382,-414,-230,-137,-144,92,1428,156,-150
-249,-318,-414,-159,-115,178,526,676,5,-296
-234,2,16,128,273,422,1554,-1375,-365,-175
-198,164,241,169,257,254,1505,-333,-359,-11
-175,59,124,-73,-57,22,410,1317,-301,17
14,63,58,-136,-55,-189,-1044,-163,-58,123
239,106,31,-47,43,-256,-1318,-1267,632,328
226,101,12,169,241,-86,-781,-745,558,268
2,-98,-176,78,86,7,151,1027,332,-3
-206,-230,-273,-130,-30,200,665,668,109,-236
-87,-2,-10,31,103,113,-90,-436,-179,-231
56,65,14,60,62,-297,-675,-272,-109,-57
28,-54,-127,-97,-122,-515,-432,-368,-130,-98
-185,-300,-360,-345,-341,-582,-311,-632,-424,-414
-221,-214,-241,-269,-258,-303,-131,-666,-513,-413
-40,-43,33,59,125,218,273,-423,-197,6
203,97,219,296,381,387,345,605,313,415
249,136,175,153,170,50,-310,958,410,399
214,154,154,106,55,-89,-431,329,195,300
131,137,132,93,44,-7,-146,-121,25,188
53,136,94,72,36,52,5,149,29,80
-50,-25,-125,-102,-119,-141,-103,847,75,-25
0,20,-146,-117,-106,-41,-5,419,-36,-93
338,305,96,137,133,281,105,-425,-186,133
401,313,162,139,117,272,119,-435,-99,271
134,99,107,124,153,95,24,-223,9,113
-34,-110,-42,30,35,-127,-183,5,148,14
53,-118,-71,-74,-123,-134,-191,217,252,123
205,-2,-10,-65,-135,-12,-96,130,183,129
167,14,-64,-91,-161,15,-45,8,55,61
68,13,-1,-83,-150,8,-50,-28,21,73
2,14,-47,-37,-63,-17,-35,-32,60,104
-33,56,59,63,89,-25,20,-24,34,-10
-73,86,137,104,133,61,220,21,41,-65
-122,95,110,32,-29,170,392,91,48,-31
-127,87,52,-70,-206,227,437,137,70,15
-150,-48,-107,-144,-195,215,778,88,44,-24
-355,-408,-381,-283,-211,-14,1958,-171,-264,-376
-428,-568,-520,-376,-270,-318,2170,-283,-612,-647
-123,-259,-189,-119,10,-219,566,-220,-597,-434
336,240,291,310,423,76,-1896,413,24,169
607,470,358,336,386,-36,-2258,538,607,603
327,234,50,-2,-53,-130,-822,-74,229,303
65,-12,-86,-96,-113,54,-135,-227,-225,-32
43,-11,-3,-11,7,187,-152,-18,-20,42
68,72,155,149,160,245,-381,84,245,211
-186,-31,133,136,200,237,-329,-3,153,80
-476,-133,24,49,169,189,-191,-2,47,-70
-193,-120,-56,22,114,63,-90,38,84,-2
7,-78,-78,31,84,-2,-51,13,116,-11
-48,-51,-15,34,7,-113,-81,-72,59,-61
22,-40,5,11,-67,-161,-100,-108,34,15
149,-3,49,-8,-131,-152,-74,-20,36,95
272,11,11,-47,-138,-146,-26,77,16,123
310,41,24,-15,-53,-150,43,41,-7,98
370,116,77,23,0,-164,85,-24,-27,123
323,138,85,31,0,-32,190,-500,-123,81
261,139,138,100,64,169,360,-859,-109,81
83,59,41,1,-91,94,147,185,-80,-31
-387,-204,-225,-297,-438,-142,-89,649,-243,-364
-382,-96,-109,-198,-302,46,155,48,-217,-276
-288,-23,0,-61,-64,51,118,142,13,-164
-324,-27,50,12,-66,-99,-53,202,338,-113
-263,82,163,61,-132,-120,-95,-86,283,-84
-159,111,169,55,-70,47,-6,-115,195,-17
-184,-12,76,199,247,178,17,-80,39,-14
-169,-60,59,247,334,126,-26,10,-60,-17
-97,-79,22,86,165,-5,-33,92,-77,10
-38,-18,27,-49,43,-100,-34,67,-67,29
21,78,39,-98,-39,-50,19,29,-79,-24
58,115,57,68,117,38,151,-21,-77,-17
147,136,103,128,91,70,333,-9,-38,101
218,218,189,149,15,119,608,-68,-28,182
122,173,122,30,-164,238,1106,91,60,158
-49,6,-5,-79,-283,480,1144,357,116,92
-202,-181,-164,-31,-46,608,303,628,79,-30
-213,-162,-113,79,209,535,-237,391,31,-118
-241,-128,-85,-60,75,136,-506,-20,-65,-254
-252,-136,-102,-173,-39,-339,-773,-220,-91,-312
-134,-153,-109,-217,-99,-422,-834,-379,-192,-258
-26,-240,-220,-259,-104,-329,-655,-217,-123,-184
194,-174,-182,-127,-43,-493,-570,31,79,66
294,9,-22,64,97,-499,-514,43,96,124
110,-6,-11,82,120,-304,-394,8,72,23
-18,-2,-6,47,58,-197,-247,-31,65,-46
-30,61,58,77,74,-180,-121,-82,30,-48
-26,38,7,109,138,-234,-73,-113,40,-37
-17,-11,-150,64,64,-219,-22,-43,117,-35
22,1,-125,69,83,-61,18,-40,59,-30
9,27,8,99,134,147,29,-24,85,-9
92,40,21,106,94,220,112,-40,96,38
-9,-195,-167,-144,-171,-20,171,-304,-147,-168
-255,-386,-351,-367,-357,-250,108,-616,-460,-443
-92,-181,-167,-199,-164,-75,266,-766,-514,-346
379,227,246,172,200,186,459,-359,-148,158
635,285,266,174,162,-26,88,702,376,645
546,150,114,23,-13,-215,-476,602,367,710
392,94,91,3,-21,-115,-302,176,156,560
236,111,127,35,12,-18,-109,46,23,400
126,121,131,75,35,-55,-44,40,-3,263
-18,39,79,66,26,-80,23,74,45,128
-202,-16,46,57,36,14,75,121,69,-74
-262,-10,41,68,71,274,127,163,86,-193
-184,31,-19,55,55,529,147,168,101,-167
-99,58,32,-1,4,552,165,147,83,-141
-93,6,15,-69,-48,299,152,91,53,-87
-198,-47,-24,-82,-67,4,83,-15,-29,-123
-346,-84,-11,-33,-20,-214,335,-201,-141,-210
-437,-236,-171,-198,-197,-445,1076,-373,-322,-287
-383,-261,-231,-277,-302,-369,1153,-443,-434,-347
-191,-54,-43,-99,-87,-12,422,-467,-302,-266
143,208,246,175,203,261,-577,206,106,19
145,96,166,86,130,70,-264,861,202,69
23,-31,19,-66,-48,-74,398,313,13,-74
220,166,158,104,-5,38,148,-321,5,-17
317,88,63,160,86,69,-620,-303,57,139
291,0,-5,45,43,15,-978,57,195,311
196,134,73,4,11,-14,-562,148,129,207
159,254,138,66,24,3,-305,101,18,39
112,156,82,45,-5,48,-174,26,-14,-5
99,17,26,-23,-98,76,-127,21,33,84
70,-33,-12,-122,-216,50,-80,57,29,144
25,-49,-111,-134,-186,49,-26,112,48,154
34,-38,-140,10,-60,34,-23,187,138,165
53,12,16,61,-126,-5,24,111,197,273
12,7,63,20,-67,28,85,-5,112,215
-31,-42,-23,34,76,37,51,5,34,99
-136,-38,-19,167,372,54,0,-58,-136,-92
-192,-13,-27,222,398,166,98,-124,-225,-197
-120,10,86,204,255,287,181,-235,-167,-104
36,63,184,214,248,321,126,-383,-96,14
3,-75,-41,-26,95,216,114,-34,40,-55
-46,-236,-240,-235,-52,10,247,417,168,-56
35,-171,-180,-186,-15,-74,169,446,90,-3
14,-62,-42,-47,82,12,17,180,-15,-70
7,-24,-20,-5,38,26,-36,40,-82,-87
52,20,-29,-47,-77,46,-1,71,-92,-52
-63,64,24,1,-78,78,122,280,-68,-140
-176,38,25,-25,-119,-29,185,279,-117,-230
-74,72,54,11,-89,-179,139,-323,28,-69
46,95,66,21,-60,-364,-318,-314,210,87
35,41,-22,26,-42,-379,-413,265,137,17
94,80,-29,115,62,-85,56,72,12,1
130,121,-46,15,14,125,173,-74,-12,12
69,80,5,-23,-5,149,42,-77,-17,28
-89,-34,-37,-86,-91,0,-122,-90,-28,-5
-153,-64,-11,-25,-54,-207,-242,-84,-32,-40
-142,-128,-38,-2,-48,-243,-271,-98,-69,-93
-145,-181,-121,-96,-209,-186,-253,-71,-56,-49
-80,-65,-73,-33,-172,-212,-294,94,3,73
9,98,50,38,-100,-203,-252,213,4,135
29,86,32,23,-104,-83,-157,59,5,138
3,-10,-33,-5,12,80,82,-56,62,133
-115,-79,-142,-24,185,195,290,-121,54,50
-200,-57,-75,-85,14,262,247,-152,-4,-55
-76,46,53,-119,-156,242,125,-65,66,-41
56,99,57,-69,-167,147,81,1,100,-27
39,29,-82,66,-2,-19,32,-25,58,-29
-6,-48,-86,21,29,-121,82,13,39,24
-37,-105,-94,-88,-21,-65,127,32,76,68
-21,-87,-56,24,106,-47,18,-84,35,14
29,-32,29,124,278,-7,-52,-250,41,25
74,35,71,110,234,63,8,-100,121,115
15,9,18,2,67,1,-33,475,88,104
-159,-72,-60,-97,-64,-184,8,129,-133,-82
-157,-58,-37,-100,-12,-139,722,-969,-316,-168
-220,-340,-427,-434,-351,-218,1375,-583,-484,-319
-242,-382,-501,-476,-583,-367,997,81,-513,-418
54,70,76,22,-93,59,221,-1046,-437,-126
482,458,522,444,453,390,-815,-977,-97,309
556,303,302,212,332,61,-908,617,197,350
484,182,123,5,27,-175,-736,1300,222,129
261,155,128,99,-98,-88,-309,184,159,-105
-115,-155,-142,-101,-422,150,-37,-490,-139,-327
-403,-398,-340,-298,-460,488,86,-521,-506,-454
-316,-242,-138,-33,48,830,283,-396,-406,-157
99,83,195,305,582,842,274,322,173,302
258,103,136,111,200,179,-359,997,605,474
181,34,7,32,129,-303,-471,383,332,295
-16,-54,-87,107,252,-376,0,65,30,-6
-95,-49,-5,61,149,-274,425,-3,-62,-123
-5,61,102,65,74,-262,876,-21,-29,-18
46,114,148,60,17,-239,975,-20,3,57
-101,19,72,-6,-34,-121,251,-113,-39,-82
-199,-87,-51,-78,-91,-137,-846,307,75,-155
-73,-46,-34,-42,-102,-158,-710,604,192,26
183,172,196,114,29,26,-222,18,238,297
300,242,198,144,93,125,-198,-160,181,335
229,142,97,60,29,65,-198,0,211,242
85,28,27,45,65,-35,-136,44,163,113
-9,12,38,89,126,-145,-131,10,104,-9
-108,31,57,49,67,-113,-99,14,75,-157
-248,-28,31,23,56,21,-31,28,49,-199
-310,-83,5,39,82,122,-15,2,6,-184
-319,-134,-107,10,8,88,-56,-9,-12,-152
-258,-147,-97,-60,-77,54,-31,0,-64,-134
-183,-107,23,-62,-74,18,-16,8,-99,-143
-168,-51,73,26,38,-26,-35,-25,-141,-151
-54,-4,78,2,-5,-35,19,-50,-156,-105
94,71,109,25,11,17,-1,-145,-64,99
167,129,87,111,138,119,-115,-394,-52,237
141,36,-50,3,78,109,-17,-263,-50,204
59,-74,-101,-163,-89,-23,91,93,24,139
-7,-29,-80,-189,-168,-106,-2,242,13,35
73,68,60,-44,-53,48,57,-74,-53,30
220,101,173,115,102,184,296,-398,-131,74
205,52,97,109,138,131,424,-342,-166,50
79,-30,-60,24,71,34,37,-111,-115,29
-160,-72,-163,-80,-110,-185,-486,466,16,-62
-190,-59,-81,-149,-227,-203,-289,506,55,-114
-21,-46,5,-142,-228,-85,-17,211,68,6
53,-30,35,-97,-161,-14,122,157,113,112
70,90,128,23,-51,33,255,115,74,74
-16,104,134,78,54,57,324,23,72,42
-9,94,174,97,106,157,264,84,65,68
-95,8,97,32,54,92,99,633,43,2
-322,-181,-145,-206,-143,-77,-15,556,-53,-181
-410,-252,-243,-282,-152,-13,-111,274,-6,-291
-403,-276,-264,-170,56,139,-200,199,2,-342
-71,-91,-84,57,312,256,-182,-156,-4,-122
220,94,112,181,351,227,31,-228,99,90
152,83,103,118,177,171,213,-226,35,28
64,-7,11,2,-34,90,169,-229,-61,26
133,22,-20,5,-44,140,-11,-210,-13,114
129,60,11,59,-36,189,-69,-112,62,74
4,0,-1,-58,-161,52,-116,-106,23,1
-102,-93,-127,-145,-149,-224,-169,-169,-44,-56
12,-30,-49,-41,-29,-488,-226,-164,-18,33
131,80,97,45,-14,-415,-212,-115,34,129
79,55,78,22,-37,-188,-151,-83,-4,70
51,27,32,-9,-59,-99,-119,-76,-39,33
76,14,5,-45,-85,-158,-124,-97,-76,20
59,-21,-7,-61,-87,-251,-70,-73,-108,-2
-60,-46,-24,-19,-84,-297,20,104,-81,-64
-110,-61,-22,-7,-79,-249,48,158,-54,-116
-44,-18,-8,-4,-8,-50,7,-53,-31,-78
3,45,22,-13,-28,373,-1,-100,-17,-62
82,87,63,-28,-44,606,32,44,20,18
87,41,21,-77,76,345,395,-66,-45,14
-234,-273,-306,-379,-201,-195,1254,-775,-388,-281
-456,-496,-581,-577,-610,-520,1399,-1053,-699,-482
-187,-238,-358,-358,-596,-366,263,132,-469,-270
249,242,157,128,-50,74,-964,877,74,120
541,608,517,469,510,328,-1313,237,425,390
345,404,329,254,295,22,-822,-87,351,311
150,202,132,114,142,-215,-488,-175,42,206
205,72,51,88,110,-301,-299,-104,-74,160
397,-21,33,81,105,-220,-135,80,1,78
294,-45,58,60,45,-56,-54,214,161,50
88,-8,116,91,-23,81,34,144,222,34
-175,-52,65,150,154,128,86,22,89,-47
-321,-150,-24,172,313,71,58,101,-10,-163
-282,-130,-57,106,184,40,25,184,15,-125
-85,39,31,150,138,47,-24,243,54,2
50,129,130,152,105,60,-29,641,53,6
-73,-63,-53,-80,-72,72,98,777,-37,-196
-44,-148,-163,-176,-117,114,290,-229,30,-126
83,-102,-222,-149,-60,89,655,-585,126,115
110,-48,-188,-81,-11,-21,947,-311,212,174
147,2,-73,-15,-11,-98,560,-223,224,198
156,4,-18,12,19,-27,-479,-131,161,184
134,-18,30,-16,-18,11,-864,106,158,145
32,-59,10,-96,-144,39,-313,47,37,12
-321,-180,-109,-257,-304,-23,-21,-278,-190,-286
-644,-278,-234,-376,-410,-201,-14,-652,-557,-611
-400,-68,-37,-133,-58,-16,115,-747,-629,-515
44,230,302,342,433,394,423,-681,-394,-156
288,398,420,469,470,453,438,225,174,235
195,320,290,264,197,167,-234,536,388,277
65,235,195,183,119,130,-328,76,256,200
14,62,43,59,38,98,-37,148,199,124
32,-12,-27,-74,-107,-72,-48,435,197,78
-4,-13,-60,-197,-201,-143,-156,494,149,-7
143,95,-11,-189,-115,0,43,312,116,20
242,138,29,-112,-112,176,392,272,113,51
121,11,-21,12,-111,204,460,174,26,49
-26,-54,-48,9,-129,179,299,70,-35,18
-118,-111,-61,62,90,174,156,-14,-43,-11
-53,-56,13,268,413,78,-68,-317,-162,-66
28,-7,-10,260,367,16,-189,-603,-247,-86
-107,-138,-123,58,120,5,-26,-451,-197,-161
-144,-116,-87,-3,46,-31,-180,-148,-108,-98
-122,19,-50,-33,-19,-198,-648,409,10,-23
-12,43,-45,-78,-119,-169,-460,452,46,42
149,106,27,-17,-14,79,-200,121,28,135
100,65,26,-39,-56,159,-88,123,11,120
44,18,-49,-116,-160,0,-51,111,-41,45
-18,37,-27,-89,-128,-376,-32,102,21,-32
62,106,82,43,11,-508,-18,18,141,-3
155,166,160,144,88,-399,-50,9,166,48
27,107,84,123,43,-73,70,99,93,-57
8,74,35,54,-31,324,111,10,17,-90
147,36,7,-25,-97,434,60,-231,25,-95
49,-37,-38,-101,-155,311,15,-516,-62,-97
-182,-109,-107,-172,-185,29,-124,2,-190,-70
-369,-230,-245,-261,-211,-351,-269,1011,-177,-147
-205,-160,-161,-54,33,-486,-249,238,-36,-144
1,-33,-33,65,105,-237,235,-378,149,-33
-288,-235,-216,-226,-245,-215,1184,-519,-244,-203
-586,-448,-449,-418,-453,-283,1492,-456,-450,-359
-530,-400,-389,-309,-299,-212,752,-127,-212,-302
-120,-116,-159,-28,65,-49,-556,301,255,70
444,234,200,196,281,88,-967,161,385,491
552,251,169,249,180,92,-513,-146,235,437
392,170,107,271,214,114,-509,-14,231,270
232,131,128,186,198,57,-327,69,220,185
127,118,130,100,117,67,-117,32,109,71
39,116,142,63,23,132,-95,32,63,-5
-51,58,101,50,-24,214,-80,54,37,-31
-198,-77,-21,-38,-62,228,-2,86,38,-68
-245,-157,-98,-41,100,93,-73,13,16,-78
-93,0,77,70,201,-125,-250,-120,-43,-64
-16,115,189,83,134,-194,-291,-131,-87,-22
-72,1,14,-76,-81,-194,-92,-115,-133,-57
-125,-77,-27,-17,0,-97,213,-574,-232,-160
-6,57,120,151,146,75,408,-378,-69,-75
12,29,-7,63,-42,157,169,865,40,-21
13,-72,-233,-97,-235,165,-133,988,-4,-83
197,75,-43,31,-145,128,-255,-202,-72,-36
214,119,107,62,-170,79,-260,-514,2,65
171,35,-35,-103,-235,15,-59,-268,52,199
139,-6,-54,-156,-52,-43,148,-25,115,276
31,27,0,1,163,-16,163,27,59,81
121,84,77,144,304,-56,24,-39,0,51
224,46,1,52,122,-109,-31,-31,30,222
144,-62,-16,-65,-60,-92,9,14,86,284
6,-149,0,-44,-53,-63,189,52,104,205
-28,-157,22,10,-5,-50,316,44,69,130
-11,-59,52,12,-2,-27,315,25,11,-30
41,-54,24,-33,-53,153,209,52,-11,-103
87,10,104,-3,-77,393,15,17,-61,-136
85,105,133,-4,6,305,-153,-7,-66,-22
-79,17,8,-64,130,56,-74,14,-52,7
-209,-99,-133,-92,46,-128,352,-41,-120,-106
-158,-56,-177,-72,34,-254,733,-95,-139,-86
2,115,-23,4,70,-234,539,-95,-76,20
-27,193,147,70,94,-52,-336,-49,71,59
-125,140,202,77,68,-5,-788,155,366,84
-128,106,188,8,-60,-2,-268,144,443,105
-183,115,142,-102,-236,50,18,89,299,73
-290,74,64,-130,-222,69,-73,108,139,-35
-295,40,64,-45,-79,49,-101,180,38,-119
-136,19,49,185,228,-51,-83,43,-60,-176
22,-37,0,237,325,-157,-121,-31,-113,-199
0,-132,-151,119,257,-5,-25,63,-186,-327
119,-112,-81,89,202,308,166,117,-218,-347
236,-15,29,99,247,575,202,90,-76,-212
241,-8,-7,8,322,657,241,80,-25,-91
207,-18,-19,-32,297,477,340,-36,-90,-7
106,11,45,53,158,168,253,-364,-225,-54
59,29,86,171,39,-86,174,-751,-351,-96
10,-78,-32,37,-117,-127,373,-624,-153,58
46,5,-3,21,-147,-16,36,-410,-62,127
-43,-20,-98,-93,-265,-197,-538,263,-80,-12
-189,-203,-229,-215,-273,-325,-239,695,-195,-172
-367,-441,-447,-323,-342,-505,-129,401,-546,-424
-463,-526,-529,-404,-448,-585,120,-353,-726,-522
-596,-528,-512,-428,-447,-386,1152,-1117,-661,-602
-325,-228,-210,-201,-244,-64,1512,-773,-344,-272
275,284,288,198,81,70,314,149,198,350
635,539,471,316,157,-23,-1432,653,690,733
517,396,286,122,29,-229,-1198,907,644,610
57,-65,-118,-124,-73,-342,-467,561,209,168
50,-45,-12,71,120,-40,-466,116,185,158
181,228,246,245,206,125,-501,326,337,282
113,201,238,181,173,113,-296,369,341,254
-23,108,168,109,75,101,-81,256,256,122
-127,20,65,53,-43,65,127,164,140,14
-81,10,34,56,72,28,64,129,71,16
10,24,52,50,62,-52,-86,235,161,34
83,113,93,42,-125,-35,114,8,121,49
172,249,190,92,-139,86,415,-169,74,105
34,155,123,128,69,224,499,-34,85,68
-162,-25,-27,94,180,444,367,76,56,16
-213,-75,-103,-4,-34,487,110,124,-58,-56
-135,-67,-122,-63,-174,207,-214,25,-169,-115
-40,-112,-165,-90,-230,-138,-470,-143,-171,-113
81,-111,-169,-97,-170,-292,-494,-172,-73,-96
240,-47,-65,-33,148,-193,-266,-193,25,50
329,34,21,52,258,-124,-230,-270,7,166
275,95,74,35,57,-239,-330,-212,26,181
171,99,33,-6,-67,-326,-201,-92,75,138
78,49,-21,-52,-102,-205,-21,14,66,98
-23,-27,-32,-70,-145,-118,-15,-19,23,99
-184,-82,-49,-99,-187,-77,-11,-211,-37,52
-273,-59,-43,-73,-93,-56,104,-580,-124,-28
-223,-23,-28,6,46,-166,107,-155,-115,-36
-258,-178,-256,-87,12,-297,-19,950,-9,-124
-118,-84,-181,-4,85,-32,68,353,13,-109
58,169,177,197,238,486,117,-505,-14,1
125,140,159,142,140,576,16,-525,42,19
216,108,107,73,74,349,-21,-710,-10,72
322,77,51,8,68,84,-30,-226,-118,45
376,-41,-110,-135,-54,-165,-60,711,-217,-76
251,-108,-168,-163,-126,-279,30,161,-93,-20
107,-72,-25,-36,-27,-93,128,-170,177,93
-186,-47,57,56,35,65,121,-151,31,-51
-208,104,114,93,30,7,-66,-119,-29,-111
-177,87,56,47,0,-45,-141,78,59,-93
-121,-32,-9,-47,-140,-44,9,263,111,-97
-84,-147,-43,-60,-151,17,94,315,110,-122
-93,-239,-73,31,26,104,55,212,95,-77
-15,-118,-17,11,16,44,-6,83,130,134
74,-1,38,-38,-45,30,67,45,94,269
126,55,55,-67,-62,34,156,42,83,234
98,18,-47,-86,-86,55,192,-7,90,186
82,50,27,75,116,62,279,-168,-6,91
41,48,74,133,258,93,801,-415,-113,-3
-87,-31,-2,-54,33,87,1400,-424,-146,-67
-289,-97,-59,-49,-33,87,974,-303,-181,-235
-374,-72,-20,111,177,12,-732,52,-169,-345
-275,-64,-37,13,68,-188,-1401,550,13,-224
-105,10,63,29,44,-142,-667,244,-8,-43
-11,25,55,-8,-19,-79,-287,135,-76,8
89,20,-36,-66,-86,-56,-126,157,-95,60
130,44,2,-24,-25,-23,-14,106,-66,54
48,26,52,34,38,-21,36,164,12,-24
-92,-78,-45,-64,-31,-65,-33,207,133,-93
-68,-34,-14,-38,64,92,-36,90,90,-62
18,59,68,88,235,302,-24,-28,-47,-100
64,79,60,78,121,345,-38,-27,-74,-94
42,73,72,46,75,235,-77,-17,-63,-87
-39,4,29,16,-1,21,-81,10,-24,-114
-38,-62,-40,13,-24,-166,-101,25,28,-57
-10,-88,-71,-7,1,-168,-80,-1,28,-27
-9,-66,-38,-19,-19,-126,-16,27,105,2
43,-14,0,-35,-26,-82,35,88,180,53
56,-9,-16,-58,-49,-55,61,107,141,28
25,-71,-129,-67,-61,-39,93,90,87,22
63,-74,-172,-64,-52,-6,75,40,9,118
99,-12,-29,-37,-45,-36,-7,-76,-67,123
6,3,42,11,29,-5,-117,-204,-159,-13
51,52,79,66,124,153,-171,-215,-128,48
110,102,107,78,95,182,-70,-176,-8,196
32,69,77,42,80,153,282,-227,38,185
-204,-78,-32,-62,85,16,1127,-229,-140,-83
-585,-451,-430,-419,-247,-170,1976,-159,-443,-504
-509,-330,-354,-378,-327,166,1805,-819,-564,-553
-17,141,126,100,15,554,392,-616,-170,-101
407,395,421,353,48,384,-1167,590,457,412
313,222,247,156,-239,-163,-1143,790,409,326
147,-4,-25,-13,-231,-201,-891,249,80,69
92,-63,-87,-31,-117,55,-776,-27,-4,-41
139,15,35,43,123,78,-728,31,100,34
67,66,60,48,258,-141,-650,86,132,130
44,112,103,-38,5,-461,-584,2,72,137
62,119,133,-54,-169,-529,-379,25,27,118
-62,-38,35,7,-77,-314,-64,165,-36,-23
-131,-111,-21,98,129,-127,54,195,-109,-155
-24,-17,12,83,124,-100,-35,132,-69,26
19,57,65,36,17,-152,-151,208,-68,205
-72,-21,21,-15,-43,-167,-223,248,-173,157
-42,-21,9,22,8,-73,-112,76,-41,210
178,131,83,115,121,34,-10,-70,204,303
253,188,77,83,129,49,130,-219,175,220
101,89,4,9,64,15,255,-193,63,-49
31,15,-65,-39,38,44,177,-144,11,-254
128,20,-131,-106,0,60,106,-44,57,-150
227,16,-131,-185,-203,82,152,64,105,-45
115,-21,-39,-105,-239,76,106,27,60,-72
1,-78,-4,84,-54,-35,-57,-122,-35,-97
47,-126,-74,77,60,-73,-94,-118,-11,31
49,-107,-72,-14,24,-21,-57,-85,-6,146
-8,-78,-23,-17,11,36,-15,-71,-13,127
-60,-72,-38,0,66,63,36,-42,-8,75
-159,-113,-132,-74,-21,-2,94,-96,-130,-58
-497,-287,-357,-280,-282,-192,102,-272,-495,-468
-656,-296,-247,-264,-321,-211,241,-279,-581,-623
-383,0,98,36,-47,93,556,-383,-219,-367
-10,279,372,364,320,389,673,-21,381,27
-36,160,205,296,296,381,107,735,544,90
-44,75,81,151,89,487,-292,442,350,98
-37,14,5,73,55,536,-157,72,120,60
-5,-78,-184,-54,11,322,-102,-76,-50,-32
156,-71,-228,-154,-151,-55,-162,-129,-148,-3
424,126,43,-42,-48,-394,-200,-102,-101,179
438,252,189,65,174,-359,-72,43,32,239
198,174,103,-24,78,-172,-37,161,79,52
39,70,3,-78,15,-152,-86,206,178,-40
85,118,87,36,193,83,0,115,135,78
83,152,164,130,299,236,15,28,61,190
-29,89,119,62,107,80,11,51,63,255
-196,15,19,-42,-73,-33,6,4,-1,130
-236,-56,-48,-61,-72,6,30,-96,-89,-27
176,-57,-47,-27,-17,53,19,-259,-147,-160
540,47,17,5,-42,-19,-41,-675,-201,-84
294,34,1,-49,-126,-142,-89,-360,-117,32
-177,-160,-131,-183,-283,-435,-191,870,18,-91
-310,-173,-99,-137,-235,-368,59,534,90,-79
37,107,163,93,75,94,243,-407,92,190
21,58,107,0,11,112,97,253,103,130
-255,-148,-75,-97,-140,-41,5,251,1,-158
-260,-130,-47,132,133,-36,-58,-325,-41,-183
-143,-101,-43,75,101,-50,-47,-293,12,-66
-55,-73,-31,13,-6,-28,19,-189,25,14
46,24,44,65,5,71,138,-348,-35,49
150,110,18,39,-5,162,474,-459,-103,66
108,19,-79,-33,38,146,1049,-311,-139,-4
7,-136,-132,-41,117,-18,975,-68,-157,-116
-78,-209,-258,-188,-136,-244,80,398,-33,-137
-39,-33,-179,-110,-112,-162,-669,331,58,-70
18,123,83,76,21,-79,-924,250,145,-35
85,87,109,74,0,-38,-380,197,130,-24
100,60,57,62,16,123,-28,89,65,-29
14,78,37,3,-25,228,158,37,4,-104
-72,136,107,-46,-102,207,187,-17,-17,-174
15,189,196,-31,-39,217,-56,87,127,0
72,108,129,-23,-6,215,-215,249,238,124
-36,-88,-153,-123,-267,102,149,324,198,31
-160,-221,-232,-191,-293,-48,772,45,-9,-89
-412,-410,-315,-224,-203,-220,1436,-391,-483,-339
-399,-379,-288,-244,-236,-298,1112,-470,-601,-405
-134,-98,-49,-67,-53,-91,-64,-600,-462,-263
186,185,225,232,291,133,-1421,-302,-177,49
259,261,218,241,275,-39,-1498,292,-64,173
180,226,7,35,21,-245,-937,787,-81,71
290,282,119,122,75,-67,-435,-79,31,78
410,279,300,311,307,181,-138,-599,134,242
331,210,249,362,436,154,-179,-503,45,324
142,261,108,257,321,51,-173,-286,12,224
-89,145,58,109,140,-31,6,240,123,51
-232,-169,-90,-56,-11,-158,125,868,224,58
-153,-250,-143,-121,-40,-152,121,774,220,101
-30,-132,-87,-62,24,65,201,328,183,115
63,-86,-66,-66,4,350,288,65,132,146
124,-95,-64,-76,-59,459,214,-110,64,197
142,-126,-102,-75,-143,264,-12,-188,8,242
10,-226,-224,-133,-231,3,-63,-130,-154,118
-167,-265,-197,-182,-259,-61,-32,-19,-202,-44
-98,-93,-61,-99,-179,-73,-121,257,31,-8
-76,15,17,-74,-24,-129,-216,208,167,-32
-212,44,83,10,196,-36,-116,-260,88,-229
