24,-38,-22,-12,-29,-2,-32,14,-19,2
74,-43,-48,-25,-26,-5,-31,15,-33,9
18,-30,-20,-14,-11,-8,-24,14,-55,6
-28,25,29,12,-3,4,-27,16,-42,0
-40,43,47,29,-7,24,-33,6,-35,3
-39,44,28,20,-13,28,-28,-1,-22,18
-26,29,2,2,-15,15,-19,5,-31,21
-47,28,14,7,-20,5,-32,-5,-28,43
-123,33,40,11,-17,-16,-35,-13,-34,44
-299,23,52,11,9,-13,-18,0,-39,9
-228,-11,31,8,25,-1,-4,8,-37,-24
-47,-24,5,0,26,12,1,13,-18,-48
10,-35,-63,-29,10,9,0,16,1,-49
125,-65,-51,-50,-3,8,-3,3,-18,-41
62,-69,-37,-46,-4,4,-6,-4,-23,-23
55,-75,-29,-22,2,-3,10,-2,-17,26
88,-57,-19,-2,9,-3,21,-9,-11,55
80,-24,-5,2,14,0,35,0,4,54
58,-10,-5,-5,15,18,76,15,14,47
-7,-3,-20,-6,19,23,85,15,10,18
-77,2,-14,-3,25,33,82,13,11,0
-160,16,-17,-3,18,32,77,14,15,-31
-233,7,-26,-15,12,34,66,19,21,-76
-137,17,-9,0,13,32,37,12,21,-87
79,35,15,12,6,22,1,2,26,-29
223,20,-4,9,7,28,-9,-2,33,13
141,3,-87,9,0,28,-3,-8,32,-5
-11,-16,-33,9,-6,23,-10,-18,26,-44
-76,-36,-3,-1,-8,15,-17,-28,20,-58
-74,-50,0,-14,-21,3,-27,-20,20,-59
-43,-56,-2,-17,-35,0,-32,-19,14,-44
-3,-48,-30,-24,-38,-4,-26,-12,10,-17
31,-34,-19,-28,-36,-20,-18,-11,12,21
-10,5,20,9,-13,-13,-19,-24,-10,-14
-27,3,30,23,0,-8,2,-20,-23,-14
-12,11,15,31,15,0,37,-10,-14,13
-14,28,25,38,27,6,37,-13,-13,7
8,34,36,33,33,8,23,-16,-20,26
34,26,4,13,28,5,7,-5,-25,61
30,-1,-67,-25,2,-2,-6,-8,-33,93
41,-10,-96,-47,-25,-9,-13,-7,-32,110
99,-12,-41,-50,-32,-28,-13,-20,-28,108
164,-18,-35,-47,-33,-35,-22,-33,-36,87
183,-45,-85,-44,-30,-26,-17,-33,-15,43
119,-37,-50,-49,-38,-19,-21,-25,14,-15
-37,8,25,-32,-30,-15,-44,-25,19,-105
-157,-8,25,-47,-22,-49,-153,-45,-151,-133
-143,-1,20,-38,-33,-39,-73,-29,-6,-32
-101,35,48,-15,-22,-14,-48,-25,53,5
-74,67,62,3,-17,-6,-45,-31,55,5
42,49,34,-2,-21,-17,-12,-17,68,64
229,67,27,5,-17,-22,0,-19,59,114
355,98,44,14,-3,-7,2,-12,71,124
356,94,3,34,14,19,39,13,96,112
265,89,-40,49,31,36,56,33,78,105
69,106,15,56,37,40,54,37,81,75
-138,97,82,70,33,32,46,31,57,19
-344,60,72,79,47,34,43,19,32,-67
-444,39,67,72,70,32,33,-1,-17,-123
-310,-25,4,12,36,-12,-71,-22,-179,-116
-309,-36,-3,-5,5,-8,-11,-14,-40,-146
-174,-67,0,-17,5,7,32,-3,19,-163
-126,-83,2,-24,-3,10,29,-6,15,-140
-91,-83,0,-18,-5,14,34,-1,33,-99
-51,-97,-17,-29,-3,34,43,3,30,-106
-52,-76,-16,-26,-2,27,26,5,28,-76
4,-31,16,-3,5,23,22,11,50,-44
24,9,38,20,11,28,4,24,58,-32
13,14,23,15,15,24,-2,23,52,-17
20,0,-32,16,14,30,-7,18,37,1
44,22,-14,31,6,33,-8,19,56,11
70,97,57,30,3,25,13,16,53,14
68,88,33,11,-3,14,20,10,22,14
49,26,-9,-6,-14,17,6,19,40,7
31,9,-22,-18,-30,11,-4,28,64,6
7,14,-5,-23,-41,0,-18,9,48,4
-16,29,33,-15,-40,-4,-44,-4,0,-5
-10,25,0,-15,-61,-10,-55,5,13,4
-4,-9,20,-50,-73,-21,-54,9,6,18
0,-13,19,-49,-69,-34,-51,-4,8,21
5,-20,24,-28,-58,-51,-56,-21,-12,22
4,-32,11,-31,-44,-48,-63,-23,-45,26
14,-32,-10,-34,-26,-17,-62,-10,-57,27
38,-14,-6,-18,-5,-8,-52,4,-29,49
69,-24,-34,-15,6,-9,-29,13,-50,83
71,-58,-32,-20,4,-11,-9,10,-75,109
77,-66,-47,-24,2,0,2,23,-51,132
65,-60,-50,-12,13,12,5,37,-29,125
47,-10,-11,34,40,15,6,25,-22,61
83,-9,-5,42,40,15,11,27,-31,53
81,0,-13,40,24,17,3,34,-29,25
17,24,24,34,9,15,-15,10,-26,-34
-18,30,64,25,-7,-1,-32,-8,-37,-39
-49,-17,22,12,-20,-2,-15,-1,-51,-33
-71,-18,2,7,-20,12,-10,0,-39,-54
-77,-3,20,0,-36,2,-25,-8,-45,-77
-77,-18,4,-10,-51,-21,-29,-21,-55,-64
-60,-40,10,-17,-38,-26,-22,-19,-46,-52
-41,-49,-2,-14,-32,-27,-22,-9,-43,-34
-6,-32,-67,1,-30,-12,-16,-6,-22,-15
39,-12,-147,16,-22,10,-9,0,-18,-7
56,6,-116,30,1,15,5,0,-3,2
48,0,-38,17,12,23,25,23,27,26
60,4,-3,-1,14,27,41,43,55,70
71,23,-6,-19,10,14,36,35,25,52
46,55,12,-20,-3,6,24,6,18,9
25,43,7,-5,-7,7,30,18,66,13
5,11,18,17,-2,12,27,27,49,3
-20,21,37,27,4,8,-3,-18,-4,-34
22,31,29,4,-10,-8,-11,-39,1,-38
111,53,28,-5,-22,-26,-20,-52,18,-21
140,35,15,-16,-44,-41,-40,-55,15,14
139,54,0,-11,-39,-40,-43,-39,35,50
84,48,21,-6,-40,-33,-21,-32,39,65
70,50,17,-5,-53,-41,-5,-22,57,118
-2,55,-47,-9,-35,-32,21,8,101,167
1,-1,-24,13,5,-11,47,33,114,177
119,-54,-12,15,29,13,62,58,104,145
0,-26,44,46,56,35,73,54,49,52
0,-20,46,76,67,45,65,23,-8,-14
-5,-64,-93,51,60,42,31,2,-36,-38
-35,-94,-167,21,48,52,22,12,-62,-34
-48,-100,-89,-19,27,44,38,16,-54,8
-97,-114,-101,-48,-7,1,36,-7,-72,76
-164,-120,-89,-45,-23,-26,8,-35,-112,118
-41,-124,-89,-49,-34,-35,-17,-47,-113,144
203,-115,-44,-51,-46,-34,-41,-41,-90,152
438,-79,2,-58,-44,-52,-37,-37,-55,137
478,-30,47,-35,-32,-43,-40,-24,-50,20
127,4,95,-3,-14,-6,-31,0,-65,-140
-103,25,122,18,17,26,1,28,-63,-218
-214,40,127,31,40,35,14,15,-60,-208
-257,44,129,42,29,25,-18,-10,-54,-141
-230,41,116,43,18,19,-30,-7,-19,-38
-257,44,93,16,-11,-1,-17,-2,-1,59
-282,29,71,0,-29,-3,-6,19,12,111
-183,9,35,12,-26,14,17,20,14,116
-73,10,8,19,-2,30,32,11,2,96
-78,-4,-77,21,13,36,34,2,0,39
-77,9,-73,17,5,29,18,-10,18,0
112,-14,32,19,22,32,32,7,7,-36
456,-65,35,15,8,30,28,5,12,22
300,-54,42,-5,-25,1,-4,-13,16,39
-13,-36,64,0,-34,-21,-30,-35,-6,5
-200,-80,38,-12,-43,-26,-8,-50,-25,-22
-299,-62,36,-20,-46,-52,-8,-60,-37,-32
-157,-19,58,-22,-39,-61,-11,-59,-22,10
11,-7,69,-24,-26,-29,26,-43,36,-24
49,-21,61,2,-1,24,66,4,54,-145
-14,-32,46,35,24,57,74,26,57,-185
-45,-56,32,52,49,76,80,21,59,-140
-102,-40,48,76,55,85,82,19,45,-90
12,-18,-8,72,22,66,76,19,41,23
71,28,-9,74,14,43,48,4,24,68
-7,74,91,64,18,29,38,6,42,79
103,64,45,33,2,13,32,26,47,111
288,32,-49,8,-18,2,30,16,28,138
348,7,1,-14,-42,-8,44,4,39,155
314,-21,-8,-30,-53,-16,61,-6,54,150
201,-22,-2,-23,-38,-5,62,-3,47,89
-87,-27,36,-9,-7,3,65,-6,9,-11
-470,-67,44,1,0,2,31,-14,-49,-181
-670,-67,74,43,3,6,-27,-47,-122,-329
-526,-105,79,34,-8,-7,-55,-63,-127,-241
-325,-128,53,5,-26,-29,-72,-54,-130,-105
-175,-102,46,-5,-34,-26,-59,-52,-122,-53
-98,-87,58,0,-31,0,-41,-31,-78,-20
-37,-82,46,0,-20,21,-12,13,-15,9
-4,-95,15,-4,-10,27,22,23,-9,-10
-88,-69,28,32,6,41,47,8,-88,-126
-136,10,95,90,30,50,59,5,-134,-228
-125,-4,76,81,38,50,38,11,-128,-207
-93,-49,21,39,13,34,-14,8,-104,-133
-50,-54,-77,14,-9,26,-27,41,-52,-72
-21,-66,-190,8,-3,17,1,152,42,-25
40,-62,-167,-6,10,11,56,120,114,4
43,-113,-104,-78,-40,-17,25,-111,33,-2
38,-115,-91,-128,-110,-51,-26,-214,-56,3
46,-28,4,-76,-81,-16,75,-188,-97,-34
47,-60,23,-15,-24,45,324,-112,-97,-49
84,-88,22,2,5,84,369,84,-51,12
46,-37,-3,-37,-72,12,226,163,-112,-38
-49,-51,-37,-75,-131,-62,44,-102,-190,-156
81,-1,0,-21,-55,20,-73,-399,-44,-9
263,97,66,110,75,126,-149,-527,54,180
185,118,123,187,135,102,-183,-193,22,132
79,36,41,77,21,-66,-98,416,156,70
23,-61,-184,-49,-67,-134,-2,625,359,59
22,-86,-152,-33,-11,-51,-22,258,316,115
14,28,23,44,52,-8,-111,28,179,113
63,71,27,46,51,-39,-181,48,172,144
132,72,-50,-11,-6,-90,-175,66,182,195
216,93,-2,-46,-43,-100,-151,50,168,255
268,103,36,-42,-44,-102,-146,19,153,274
259,79,29,-31,-52,-109,-143,-6,118,233
205,23,11,-56,-65,-108,-131,-16,50,158
116,10,12,-49,-33,-85,-86,-10,0,39
20,25,43,5,-1,-24,-39,14,-18,-89
-92,32,81,44,49,24,12,50,-3,-173
-182,20,58,81,107,71,32,71,25,-190
-227,-20,30,86,117,82,41,91,42,-202
-220,-64,45,54,125,90,74,105,5,-189
-152,-72,0,48,111,95,95,185,-10,-138
-132,-80,-112,35,93,79,82,250,1,-85
-58,-28,-100,50,98,68,31,219,-15,-70
67,77,88,98,129,61,-66,58,-59,-67
125,103,111,88,109,36,-84,-63,-31,26
40,-3,31,48,61,12,-41,-62,11,73
-15,-20,40,47,33,-27,-34,-64,25,79
-34,-7,36,5,-9,-56,48,-37,9,21
-50,3,5,-23,-31,-63,59,-53,-7,-23
-30,18,-1,-10,-27,-44,-41,-132,-44,-36
-12,30,54,-28,-26,-46,-93,-161,-45,-22
14,36,69,-4,-11,-41,-82,-160,-51,11
39,45,48,6,-15,-33,-65,-125,-38,24
36,40,45,-11,-34,-42,-56,-88,-27,12
46,74,62,3,-17,-38,-39,-63,-23,-11
87,75,45,1,-28,-23,-21,-29,-50,-1
92,26,9,-28,-60,-16,23,27,-64,27
21,-2,-13,-31,-33,12,82,97,-63,11
-60,-22,-15,0,27,52,257,126,-84,-30
-81,-27,11,60,115,94,521,65,-111,-41
-82,-5,34,109,171,114,482,-70,-128,-28
-130,-85,-57,-2,-1,-24,110,-583,-213,-61
-382,-342,-321,-287,-306,-261,-572,-1018,-434,-278
-537,-494,-495,-418,-415,-328,-1011,-1037,-617,-439
-430,-427,-483,-363,-341,-249,-887,-807,-589,-403
-221,-230,-291,-220,-209,-133,-16,-174,-259,-202
-212,-143,-125,-187,-174,-199,778,552,103,-134
-191,-118,-141,-164,-110,-251,600,976,336,-84
76,44,-26,5,67,38,319,1170,576,160
407,283,277,203,240,399,33,893,631,422
520,435,438,317,339,515,-44,306,467,468
392,318,337,243,251,281,-39,-24,283,353
205,245,255,151,152,55,-58,-224,64,125
100,157,153,70,85,-24,-85,-331,-47,-21
71,75,52,11,36,-56,-96,-227,13,-19
115,51,-60,6,46,-45,-61,-99,61,30
167,78,-100,18,45,-55,-20,-32,40,68
168,102,-38,28,31,-69,-25,-5,10,84
173,118,66,19,12,-89,-23,12,9,98
145,119,114,14,6,-72,-6,32,16,120
102,98,111,8,-7,-57,-9,13,3,107
30,7,63,-8,19,-27,-6,-13,-10,68
-58,-13,61,6,65,11,87,-29,-35,-26
-38,20,47,-24,18,12,330,12,8,5
12,88,112,-3,-3,17,345,-11,-14,12
26,89,80,8,2,7,146,-40,-70,-14
-10,18,22,-36,-27,-15,-40,14,-122,-68
0,23,37,-54,-26,26,-173,92,-151,-52
86,94,79,-11,-3,105,-286,161,-102,35
136,145,100,31,50,102,-326,172,-38,108
84,98,77,29,37,23,-177,182,3,97
-54,-23,-35,8,36,-50,-93,102,-31,37
-127,-89,-195,-11,74,-43,77,19,-92,-19
-105,-133,-244,-54,34,0,320,68,33,-3
-78,-114,-125,-49,11,46,489,40,118,55
-135,-31,-15,28,51,-62,400,-19,63,22
-135,-14,-28,47,-25,-159,185,-1,16,-32
-50,-24,5,-3,-170,43,33,7,-17,-31
-18,-31,19,-39,-229,581,-35,8,-18,-47
-24,-27,12,-79,-268,1033,-76,11,0,-49
-15,-16,-1,-146,-373,856,-137,-3,-4,-26
-44,-10,-13,-211,-425,255,-205,-74,-66,-68
-170,-78,-149,-285,-334,-183,-329,-214,-194,-213
-178,-86,-209,-267,-38,-387,-390,-256,-183,-208
-29,-2,-55,-182,28,-452,-328,-178,-75,-98
71,67,34,-75,31,-490,-255,-60,20,4
99,106,95,74,143,-527,-214,15,59,49
147,162,149,211,246,-504,-184,52,96,100
168,199,164,300,362,-419,-155,64,104,121
139,167,135,238,309,-286,-116,51,91,105
110,119,93,113,212,-141,-65,-5,83,102
-9,68,62,54,150,-96,-41,-209,-4,63
-104,83,39,58,128,-75,-26,-375,-54,-7
39,91,-4,21,85,-61,-5,-371,-9,71
85,71,55,4,39,-44,46,-180,-28,109
48,39,77,-16,-40,-91,27,188,-24,75
9,-105,-61,-169,-230,-195,-37,340,-21,14
70,-169,-126,-235,-298,-139,29,271,62,33
271,-79,-36,-138,-229,29,80,265,150,173
312,25,45,-57,-208,119,58,188,97,195
198,148,53,11,-117,121,105,-4,32,120
62,190,91,91,54,154,237,-29,-10,20
-88,118,160,146,222,149,319,-96,-77,-124
-218,9,74,84,240,41,279,-219,-208,-213
-402,-223,-180,-210,-195,-167,93,-129,-445,-299
-503,-340,-293,-377,-382,-256,-102,-4,-502,-337
-393,-268,-237,-306,-97,-233,-230,383,-267,-281
-304,-248,-205,-165,126,-204,-127,967,-13,-193
-331,-257,-193,57,323,-80,180,893,-78,-225
-168,-19,27,301,492,104,217,100,-80,-164
56,130,189,310,361,193,61,-118,224,79
44,47,82,152,211,126,-76,-211,254,111
-118,-96,-129,-73,7,-13,-391,-484,-16,-140
-191,-169,-291,-247,-164,-127,-513,-816,-355,-283
-138,-145,-242,-243,-166,-67,-119,-982,-396,-220
-101,-156,-198,-230,-139,28,610,-633,-344,-160
5,-49,-78,-109,-15,186,1243,190,-271,-66
172,185,102,64,130,298,1300,757,-116,69
252,276,195,111,144,252,518,552,28,125
237,188,121,19,16,88,-214,-138,73,127
241,184,90,29,8,56,-470,-715,45,65
326,274,144,115,121,132,-555,-700,189,49
471,293,160,139,212,159,-173,-122,351,183
413,150,50,64,197,102,75,552,414,214
282,43,-43,9,171,210,332,718,435,233
133,132,28,31,134,282,446,375,399,193
-127,61,19,31,87,389,355,217,359,68
-191,-22,-68,-24,14,516,81,142,217,-23
-178,58,40,-18,-64,527,-167,35,79,-97
-117,58,46,-22,-107,293,-285,31,57,-79
-25,6,4,-69,-90,-41,-384,44,100,46
-20,-60,-52,-125,-143,-235,-445,0,102,152
-174,-90,-48,-96,-119,-246,-387,-74,17,-15
-135,-109,-46,-56,-47,-241,-334,-69,6,-51
50,-16,4,13,24,-338,-350,-13,91,98
80,157,154,131,106,-371,-303,33,154,213
1,219,224,178,94,-280,-203,68,182,246
-142,233,227,160,64,-172,-125,54,136,155
-135,215,175,89,40,-101,-52,56,115,97
48,159,110,38,23,-46,0,78,115,88
74,121,120,53,49,5,44,86,112,80
248,83,78,53,56,15,41,59,79,76
250,79,81,45,54,-25,18,-5,11,13
176,87,53,-7,6,-109,-2,6,33,78
155,135,-18,-36,-49,-133,-10,22,87,165
69,155,84,-17,-39,13,0,-3,42,64
-46,115,125,-36,-40,224,23,17,41,40
-138,25,72,-39,-38,312,71,62,94,82
-126,-34,35,-10,-12,161,26,56,90,85
-78,-47,-40,-1,-16,-12,-46,-75,-7,-23
-86,-111,-69,-43,-59,-70,6,-226,-110,-113
-27,-72,-50,-41,-78,-78,80,-395,-205,-165
106,67,91,12,-56,-16,152,-413,-228,-145
148,73,88,-22,-120,8,178,52,-195,-123
86,-50,-52,-171,-269,-80,107,294,-285,-209
30,-222,-223,-360,-494,-238,-131,-137,-521,-393
-39,-434,-412,-532,-708,-420,-419,-610,-611,-441
23,-306,-283,-418,-596,-300,-159,-1002,-553,-285
100,-62,-35,-158,-327,-36,436,-339,-731,-136
-173,-154,-60,-70,-187,-13,643,224,-913,-234
-470,-298,-170,-89,-149,-67,459,415,-681,-314
-512,-189,-79,43,92,-11,209,1165,-146,-227
-513,-61,85,275,501,134,243,883,209,-209
-280,-5,169,356,564,213,389,-315,410,-27
128,70,234,334,414,200,279,-629,670,140
94,114,263,262,338,271,-90,-444,819,185
83,154,120,65,182,213,-601,-143,635,320
190,219,-19,-29,22,20,-666,241,510,306
134,155,-92,-54,12,-37,-379,244,317,154
119,146,-16,-21,132,54,-183,123,149,70
97,156,80,-37,177,96,-120,198,70,32
71,142,86,-16,155,63,-113,300,29,77
30,119,136,30,116,9,-39,326,46,138
2,107,116,-4,80,0,143,306,59,122
18,66,24,-119,-67,-8,409,-58,72,49
-171,-252,-299,-403,-439,-104,431,-251,12,-114
-397,-496,-556,-650,-701,-90,206,-246,-105,-279
-426,-283,-287,-478,-547,305,103,-358,-433,-513
-225,-34,22,-156,-97,717,262,-2,-673,-412
-3,142,251,125,286,724,72,301,-360,-63
249,354,429,295,424,524,105,664,290,326
167,297,315,203,343,114,387,1375,563,245
-94,56,86,0,-32,-350,262,1219,463,-50
-218,-169,-79,-138,-227,-543,361,398,19,-177
-87,-106,-39,-109,-180,-260,763,-286,-274,-95
181,147,202,125,107,172,456,-476,-191,157
88,80,129,113,226,272,-30,-252,-88,156
-271,-189,-129,-103,54,120,-44,-318,-287,-140
-405,-354,-311,-294,-86,-155,-115,-548,-308,-222
-201,-176,-123,-143,0,-236,-403,-292,-56,-28
131,167,194,128,180,-161,-639,540,44,153
209,216,193,99,192,-102,-534,526,-65,97
-34,-45,-82,-181,-10,-152,-397,-679,-363,-148
-147,-114,-165,-257,-207,-288,-493,-1461,-348,-219
-85,-28,-25,-104,-136,-279,-345,-826,-60,-105
-129,-24,51,1,2,-52,379,418,50,-107
-337,-157,-73,-17,23,56,826,413,-197,-303
-261,-87,7,88,168,96,91,155,-52,-230
57,103,165,182,245,201,-664,-42,281,66
217,90,117,40,54,420,-61,-375,206,167
404,252,209,93,31,492,611,-516,9,277
337,207,156,67,-22,182,360,-113,-37,215
260,147,146,91,-7,-145,-390,460,111,166
194,75,109,117,17,-304,-506,622,311,115
176,-4,-66,3,24,-317,-302,791,445,42
385,104,-24,-24,-5,-390,-425,733,310,123
442,212,29,-18,-89,-582,-519,381,-160,68
383,145,0,-5,-189,-636,-585,265,-519,39
264,-10,-14,-37,-235,-495,-272,226,-438,159
219,37,71,41,-74,-191,477,16,-232,279
119,98,156,133,126,95,997,-278,60,252
-88,-19,95,123,137,265,831,-256,447,246
-142,28,105,130,140,233,198,-1353,286,213
-349,27,30,-44,5,-64,-114,-3420,-889,-326
-682,-236,-223,-367,-318,-375,-248,-3177,-1521,-809
-748,-555,-510,-623,-521,-394,199,412,-1280,-842
-910,-916,-854,-911,-822,-221,638,3007,-944,-933
-614,-604,-571,-675,-701,258,605,1013,-420,-571
79,180,141,-19,-143,595,113,-48,785,217
454,485,471,407,321,495,54,704,1583,606
402,426,452,581,840,515,522,748,881,452
218,415,439,643,982,704,788,-134,154,175
-75,163,143,268,439,423,457,-438,-62,-20
-7,188,112,34,-6,-18,167,-514,272,126
204,290,167,21,-173,-124,-105,-66,437,167
197,222,172,75,-132,23,-505,40,289,40
134,111,160,123,-25,-60,-989,-228,194,6
-1,-28,65,73,175,-158,-738,-256,276,15
-136,-85,-38,61,332,-70,-38,-114,102,-92
-225,-179,-122,-9,204,-95,274,654,70,-104
-149,-137,7,-1,140,-105,-168,1598,317,76
-50,-27,-80,-198,-24,10,-226,1830,58,40
48,-6,-147,-414,-201,486,654,920,-374,-77
319,172,176,-37,76,765,1702,22,-346,180
455,410,539,478,474,792,3402,260,-377,371
-4,240,326,226,254,632,3566,1529,-349,-156
-884,-558,-510,-593,-482,129,1557,1663,136,-810
-1610,-1428,-1310,-1258,-1057,-32,-211,-1503,-203,-1282
-1341,-1313,-1181,-1059,-884,225,-1406,-4464,-574,-1141
-205,-372,-335,-402,-422,258,-2040,-3395,-196,-297
662,422,390,188,-12,-57,-2260,306,533,436
675,432,425,258,108,-307,-1642,775,461,370
550,279,263,125,137,-384,-1303,-1487,-256,85
714,474,405,235,216,-647,-1749,-1717,-180,262
763,579,536,359,261,-1129,-1740,-509,199,491
575,484,481,302,194,-1139,-1360,-176,350,512
225,311,368,157,94,-802,-1054,250,496,351
-112,158,253,85,94,-515,-620,209,326,49
-250,19,198,139,149,-237,-119,-168,52,-146
-129,46,253,221,145,-27,212,-234,56,31
46,145,321,242,112,137,355,-108,217,271
193,311,457,344,188,249,276,-70,149,318
308,338,439,335,256,237,92,715,150,370
321,215,167,116,277,66,-101,1527,372,453
349,339,74,57,290,-96,-294,869,410,438
274,392,117,128,209,-110,-430,453,400,256
250,258,66,69,116,-25,-257,672,449,270
303,116,-26,-99,-31,3,101,423,259,376
305,24,-68,-142,-74,134,431,130,69,487
53,-25,-82,-177,-164,6,180,306,-153,344
-499,-477,-502,-618,-616,-294,552,434,-962,-167
-544,-503,-494,-651,-644,-206,994,-99,-1405,-318
-316,-175,-138,-348,-375,-88,104,535,-917,-165
-231,-35,-21,-204,-198,7,-640,1514,-440,-142
-42,6,-54,-164,-41,9,-302,-229,-198,-481
105,-124,-158,-176,170,-135,206,-481,373,-690
-39,-256,-328,-361,-29,-244,12,-226,531,-724
26,-78,-173,-244,-213,-142,-28,-402,328,-393
383,225,128,42,-129,87,398,-1139,367,217
649,567,423,386,159,404,1281,-1761,180,539
309,262,152,318,270,348,1749,-1253,184,378
-460,-405,-578,-206,-155,-260,845,1121,142,-218
-910,-585,-836,-475,-447,-398,-400,2168,102,-671
-477,53,-185,30,29,158,-916,-559,-90,-607
363,732,601,680,625,442,-657,-1790,-181,-36
709,859,754,763,670,47,-919,-1274,288,457
397,518,416,439,381,-85,-1061,-955,592,567
42,288,296,370,372,288,-607,-1104,407,377
-162,66,112,188,215,228,31,-313,128,66
-369,-312,-243,-164,-132,-222,-252,148,45,-110
-100,-155,-169,-139,-156,-353,-763,1372,444,157
296,249,107,59,-11,-181,-512,1980,592,255
295,298,272,304,333,192,-138,-150,188,237
241,327,350,360,452,246,-210,-771,102,340
65,295,334,273,287,203,-171,-293,126,220
-59,179,191,94,3,157,29,-57,74,138
-36,42,6,-93,-210,179,280,66,52,127
-64,-95,-122,-100,-115,335,669,-30,-220,-44
-52,-158,-232,-15,19,339,1003,-852,-1047,-265
225,142,59,325,308,356,1397,-1713,-1579,-119
463,380,439,648,692,523,1298,-269,-1160,189
-82,-198,-236,0,159,130,736,1398,-1146,-190
-1214,-1093,-1248,-1018,-876,-505,147,344,-994,-967
-986,-733,-832,-718,-649,-247,-240,-1160,315,-587
-394,-310,-403,-291,-326,-152,-459,-439,716,-33
-346,-409,-452,-438,-431,-270,-405,1165,499,-91
21,71,106,-16,28,104,-574,706,513,73
507,607,630,493,584,261,-707,98,448,403
499,477,411,314,420,-51,-594,1079,588,335
598,360,264,197,231,-94,-469,1585,724,244
905,335,328,214,220,63,-380,597,648,402
670,101,42,-107,-101,66,203,-328,99,75
110,-181,-387,-545,-501,67,1032,-191,-423,-426
-273,-277,-592,-710,-631,182,1318,1116,-339,-399
-573,-420,-587,-682,-565,321,849,1320,-490,-323
-679,-506,-434,-457,-398,306,223,-1190,-1297,-480
-805,-469,-117,25,7,259,1459,-3239,-1779,-529
-1104,-631,-176,68,44,-119,2472,-1647,-1511,-757
-1197,-909,-470,-222,-156,-335,1017,1779,-610,-665
-563,-703,-387,-213,-122,-354,-1487,2019,902,47
474,336,476,494,438,-169,-1596,379,2041,863
814,780,890,862,726,28,-682,-146,1894,1017
649,583,690,670,514,5,-468,49,1256,760
373,327,409,356,99,-32,-376,241,879,483
252,222,295,241,-84,25,-478,-6,452,261
333,189,225,183,-86,158,-637,-221,261,273
417,137,64,0,-236,569,-762,-472,-73,52
292,-103,-200,-221,-393,758,-942,-563,-416,-245
251,-257,-318,-304,-293,556,-985,-956,-595,-267
375,9,-13,-8,223,393,-761,-1665,-619,-5
453,468,358,363,606,269,-16,-335,-250,414
83,246,45,62,180,-401,186,2760,-63,200
-740,-641,-813,-746,-735,-1164,344,1343,-1001,-713
-1026,-1048,-1195,-942,-724,-875,989,-2086,-1425,-1204
-197,-348,-485,-272,-167,-254,1160,-2594,-1262,-667
395,209,214,244,164,83,1167,-1175,-1041,-5
0,-135,21,87,126,173,1377,-175,-906,-30
-1219,-1073,-942,-896,-773,-646,826,1221,-1236,-932
-1603,-1163,-1033,-929,-771,-414,407,1653,-424,-1080
116,391,502,772,872,729,-1286,208,911,564
1168,1146,1305,1459,1337,321,-2771,-1353,1254,1542
778,598,748,728,544,-319,-1103,-376,1643,1237
69,32,117,65,13,-306,394,802,1210,413
-226,-95,-94,-141,-80,-97,416,-20,910,-57
-110,-168,-124,-88,0,-107,-114,-734,600,109
76,-136,-127,-56,-100,-318,-96,367,228,172
-15,-253,-308,-248,-383,-488,113,1931,82,-134
-188,-439,-433,-407,-498,-360,113,1238,237,-331
261,-50,-40,-3,-60,327,86,720,771,195
565,334,371,380,434,789,567,-762,948,599
555,382,417,323,385,597,824,-2130,886,736
353,270,270,78,-156,107,166,224,981,592
30,-52,-65,-228,-606,-352,-714,1843,569,174
39,-171,-154,-79,-228,-186,-800,-514,-372,-46
438,196,182,466,448,-22,-858,644,-55,344
200,136,126,309,224,-367,-1073,1333,-196,67
-287,-284,-232,-150,-116,-175,-165,140,-731,-462
-372,-381,-291,-156,115,492,756,-1492,-1408,-667
28,-61,5,152,354,823,1299,-2893,-1896,-399
519,382,324,465,405,774,2712,-1905,-1087,21
-443,-437,-467,-295,-397,-233,3622,805,-1392,-1003
-1837,-1630,-1558,-1316,-1232,-1039,3526,368,-2323,-2182
-1144,-870,-849,-694,-682,-435,1356,-1467,-805,-1046
177,247,246,375,260,443,-1545,-127,1269,431
729,594,622,746,557,436,-3131,1275,1712,1009
210,67,64,162,-45,-558,-2570,632,933,336
-289,-349,-369,-232,-378,-822,-1414,563,211,-284
-199,-341,-393,-237,-190,-193,-271,-1125,97,-91
-27,-109,-130,2,60,247,375,502,537,250
128,125,150,246,86,36,-136,2305,626,297
800,792,803,867,613,316,-1058,477,527,772
997,956,926,987,804,467,-1447,369,730,1006
448,383,375,431,320,2,-948,461,503,635
305,316,288,284,179,-47,-569,-122,246,442
446,429,340,351,226,-4,-762,57,231,344
305,213,129,221,124,-73,-746,293,256,140
57,-42,-71,82,69,-13,-481,5,235,22
143,86,99,206,160,32,-430,-245,54,171
325,413,357,393,223,-8,-508,1352,294,508
-126,71,-55,71,-87,-52,10,1650,92,230
-604,-378,-489,-339,-384,35,495,75,-544,-290
-841,-561,-610,-557,-542,-12,516,1141,-1035,-599
-314,-111,-183,-121,-68,316,1143,726,-777,-332
161,25,-57,95,112,188,1095,-1609,-303,37
-283,-485,-563,-349,-353,-463,880,-1200,451,-333
-75,-271,-203,43,90,40,1728,-1042,225,-309
674,352,471,667,565,482,640,2116,225,362
186,-69,-41,73,-157,-254,-585,1816,-100,-38
29,-49,-17,105,-45,-91,600,-2738,-632,-57
-48,58,88,138,150,329,1966,-3454,-870,5
-467,-205,-282,-364,-248,393,2560,-1457,-903,-363
-226,-191,-331,-407,-288,236,1128,19,-605,-407
547,72,-71,-122,-122,-28,-1272,849,672,177
1225,473,356,373,267,237,-1496,730,1812,996
1082,590,425,452,385,393,-1293,369,1462,1011
618,504,257,229,231,273,-1018,309,820,514
408,350,152,39,17,135,-360,92,386,263
-267,-426,-602,-649,-538,-128,1653,-791,-622,-449
-1027,-1256,-1378,-1345,-1055,-253,3183,-2496,-2046,-1359
-979,-1223,-1371,-1306,-994,-200,2936,-2693,-2530,-1651
-64,18,-6,92,134,445,-73,773,-1146,-660
170,631,720,801,494,102,-2872,5198,855,447
-827,-317,-276,-91,-463,-1162,-2478,3474,1004,192
-1005,-539,-394,-135,-305,-893,-1440,-242,-483,-283
-832,-472,-276,-37,-17,-545,-1518,-1901,-1564,-417
-713,-446,-264,-100,17,-429,-1164,-1376,-810,-319
-154,107,272,331,300,-167,-596,1728,1060,153
467,620,754,752,645,356,-534,2256,1952,747
569,491,600,584,555,618,-973,-297,1236,757
500,277,303,262,246,388,-1032,-1103,715,540
588,320,261,184,198,125,-682,-577,574,676
474,116,40,22,183,-7,3,-293,423,662
79,-298,-383,-254,-138,-279,425,-649,21,364
-72,-301,-363,-336,-452,-470,969,-1766,-619,39
-66,-79,-147,-174,-286,179,3468,-2772,-698,-174
292,332,181,254,292,724,3963,-841,-636,13
49,127,0,102,21,118,1137,-434,-856,-237
-116,-285,-343,-218,-393,-494,-2039,-1358,-628,-319
-35,-486,-580,-422,-486,-827,-3090,4467,863,-70
-31,-216,-346,-218,-213,-524,-1798,5366,996,-284
0,53,65,213,286,178,-637,-1429,-181,-330
-234,-109,-23,15,37,-114,-1220,-4038,-465,-318
-133,350,410,351,256,121,-758,-2294,27,-88
-215,585,719,689,584,656,772,-8,-178,-224
-114,333,504,581,565,743,1412,1282,854,159
416,546,537,664,602,565,-113,611,1385,667
-14,174,192,355,213,228,-668,-1969,33,12
-455,-281,-272,-124,-315,-131,-262,-3325,-1003,-552
-386,-355,-385,-415,-650,-423,-35,-403,-882,-416
-5,53,-27,-60,-261,-37,525,2081,-307,-122
243,236,201,280,312,168,-42,208,168,178
400,208,189,277,365,-102,-1078,-116,821,473
332,221,195,243,165,-273,-1387,798,1014,454
-75,-106,-92,-34,-104,-316,-579,81,201,27
-200,-209,-123,-99,-112,-133,701,-668,-304,-146
62,53,233,243,182,159,664,-736,-60,80
254,210,362,413,362,271,-562,12,647,345
150,68,110,156,96,199,-45,545,857,227
80,-23,-35,-41,-87,361,1208,406,321,95
157,142,120,34,51,507,1045,-511,-387,-18
285,203,189,42,153,432,92,-1103,-744,-101
352,38,-31,-304,-288,93,-544,326,-209,-12
-198,-700,-840,-1194,-1266,-668,302,1330,143,-405
12,-406,-555,-1154,-1470,-722,1286,100,-48,-178
-463,-594,-786,-1562,-2022,-463,2443,411,-1174,-725
-1031,-1129,-1385,-1929,-2101,39,3106,461,-1837,-1438
-696,-888,-992,-953,-908,480,1904,1842,-1087,-1204
161,584,617,1304,1296,-799,-2790,-1078,-972,-45
-518,-362,-268,206,361,-1144,-1760,-138,-1265,-401
-572,-548,-355,10,310,-404,60,5043,269,132
-1282,-1201,-909,-571,-109,-371,130,2071,-551,-714
477,458,539,722,1000,637,-870,-4111,329,451
1900,1406,1380,1450,1391,806,-2378,-2373,1611,1473
1389,855,789,778,658,389,-1861,1281,1375,1043
467,411,363,290,231,160,-998,801,488,570
-59,266,217,117,255,-50,-748,176,702,342
-229,213,39,-114,-69,-275,31,-86,611,88
-177,74,-102,-352,-560,-368,1869,-1416,119,70
-541,-549,-610,-637,-405,-106,4408,-1076,-446,-306
-1470,-1548,-1501,-1277,-579,168,4647,1707,-1487,-1373
-1392,-1214,-1157,-1098,-586,72,1764,-1134,-2333,-1819
15,256,285,253,333,400,-545,-3463,-780,-466
-266,-235,-160,62,71,-109,340,-1082,31,-265
-1545,-1605,-1463,-1038,-968,-1298,1557,1270,-695,-1094
-555,-588,-463,-160,-230,-614,853,-2187,-1368,-248
1212,1032,1061,1186,1071,678,-102,-2091,-78,1619
515,225,146,152,-33,-518,-732,2681,466,1158
-484,-785,-923,-910,-1061,-1342,-1902,3996,191,74
769,425,345,316,259,-97,-3149,2482,930,1026
1453,1027,946,849,733,112,-3565,-656,2294,1616
1639,1333,1223,1093,917,246,-2868,-1133,2748,1679
1436,1466,1379,1261,1063,430,-2241,-980,1755,1202
729,1099,1080,1017,825,372,-1610,-105,1186,522
473,856,789,741,597,360,-1031,414,818,10
725,725,607,549,428,333,-660,509,617,-8
640,488,485,456,329,366,-146,555,570,81
577,499,497,397,208,365,239,243,449,61
613,718,567,295,57,420,282,227,363,56
236,394,261,-33,-257,399,181,1289,375,10
-330,-219,-220,-370,-528,414,370,832,168,-97
-615,-349,-275,-179,-90,728,786,-751,-353,-250
-609,-277,-70,361,630,696,365,274,-745,-317
-719,-454,-285,239,412,116,-440,1654,-772,-484
-969,-731,-543,-75,67,-361,-604,-266,-906,-802
-367,-254,-29,329,376,-242,-320,-1727,-410,-334
176,203,320,482,470,-115,329,135,79,77
-60,-168,-218,-147,-54,-284,1145,1898,53,-136
-507,-859,-970,-857,-656,-507,635,352,-306,-446
502,424,273,237,310,289,-704,-2491,218,416
1054,1187,1099,923,783,367,-1489,-1397,608,974
235,245,237,199,88,-212,-544,1443,-325,250
-41,-19,-49,1,-41,-86,356,978,-550,77
165,363,287,189,143,160,10,-282,65,314
73,231,134,9,79,127,-398,34,359,301
217,258,60,-125,-52,33,-481,410,359,378
422,331,89,-65,-123,103,-253,133,219,309
120,-148,-267,-215,-310,290,487,-1068,-596,-70
-338,-528,-605,-627,-807,-133,2106,-3349,-1329,-397
-1082,-989,-1128,-1173,-1340,-833,5026,-872,-1472,-1009
-1911,-1598,-1645,-1408,-1213,-701,4907,3316,-1815,-1829
-514,-264,-47,339,710,596,32,1037,-1094,-681
929,813,1027,1256,1296,450,-4371,-160,1386,1056
639,403,567,701,555,-210,-2494,-237,1945,996
331,263,412,473,202,-185,-395,-872,1183,665
34,-20,90,50,-330,-444,-814,1929,577,238
148,95,152,-2,-399,205,-103,2772,629,188
605,368,379,74,-270,1271,276,-189,606,420
615,232,164,-179,-129,1375,-140,10,305,382
238,-159,-233,-402,287,976,-102,352,-309,-60
-42,-336,-365,-352,293,589,-267,245,-751,-515
-271,-381,-394,-250,8,-65,-819,524,-566,-540
-570,-622,-728,-568,-681,-1101,-481,635,-452,-675
-816,-600,-752,-530,-755,-1502,217,1839,-858,-1005
-569,-369,-496,-252,-225,-1158,1839,1088,-1134,-616
-1140,-804,-846,-738,-529,-762,4976,-4720,-2763,-1322
-1713,-1126,-1092,-997,-747,-544,4614,-3864,-2610,-2061
-1296,-833,-686,-590,-380,149,2334,-1174,-713,-1320
113,295,469,489,635,1140,-204,-1804,598,589
499,611,689,624,559,368,-3063,-1360,1153,1316
300,543,518,480,311,-296,-4044,-238,1205,975
-115,28,45,17,-141,-808,-3436,2880,1563,539
-10,157,253,158,42,-602,-2007,3152,1085,342
256,464,606,496,371,-239,-758,14,197,215
409,217,306,134,19,-226,-262,-547,610,276
811,253,160,-109,-220,-182,-315,-333,644,426
985,425,247,-25,-10,191,-590,-448,375,509
846,460,334,-220,59,617,-456,1365,984,669
233,107,50,-747,-337,522,555,2042,716,204
415,291,343,-383,-130,406,1093,-531,-257,285
354,232,214,-517,-718,81,786,925,-596,285
-1218,-1165,-1153,-1401,-1958,-496,-60,2606,-1511,-1394
-1659,-1509,-1200,-178,-328,78,575,478,-889,-1720
-319,-253,138,1564,1517,736,1432,-469,989,-41
1014,1137,1311,2016,1666,670,3133,-1964,885,1021
450,685,834,1176,822,153,3096,-3114,-367,324
-481,-336,-129,262,220,-138,42,-1744,-649,-327
-385,-358,-163,170,350,129,-2423,131,-464,-109
-259,-204,-114,30,212,-236,-2168,-566,-919,-84
-186,-105,-205,-313,-144,-697,-1854,-1219,-1367,-157
-132,-104,-322,-496,-353,-639,-1306,2426,-576,-10
-318,-389,-570,-670,-642,-486,-250,3580,594,-14
-5,-208,-421,-523,-660,-501,-657,1933,1726,236
788,258,36,-37,-52,-67,-856,-1501,1110,518
1602,758,490,349,453,421,-243,-1103,935,1157
1202,802,551,199,60,269,391,873,832,906
572,553,351,-151,-455,-87,216,1334,617,613
-110,-314,-578,-904,-857,-359,732,1273,247,87
-410,-320,-821,-862,-646,194,2228,-1709,-1093,-670
-54,121,-238,-23,66,642,1283,-4066,-2033,-656
-782,-720,-782,-533,-659,-710,248,-1069,-2406,-1158
-2927,-2643,-2538,-2102,-2033,-2109,1804,390,-3368,-3101
-1941,-1639,-1382,-743,-411,-169,3973,-1542,-1700,-2010
772,757,1006,1384,1577,1502,1412,-6,1881,1006
1762,1407,1436,1438,1316,501,-3414,856,2884,2422
881,916,900,735,469,-323,-3443,795,1587,1481
-338,250,329,327,262,-202,-2228,2389,446,-41
-15,337,546,682,724,278,-1432,396,228,-89
703,678,907,971,935,436,-1065,-705,1352,538
950,684,798,809,720,175,-1186,-90,1513,828
707,374,476,497,412,-80,-1049,468,956,681
323,330,410,337,288,40,-483,508,627,347
139,574,429,190,160,217,27,274,347,84
142,520,334,74,166,566,547,158,186,53
251,460,505,405,709,1001,405,-265,-97,-5
463,512,467,538,761,702,-259,96,80,60
235,240,86,252,129,165,-331,724,318,126
-350,-49,-50,175,62,8,-225,388,85,-66
-425,-15,-32,35,-22,-165,-364,81,-103,-223
-249,-72,-20,-47,-83,-232,-369,66,-13,-47
-52,-20,61,-56,-20,-134,-147,106,52,86
45,-24,20,-169,-116,-129,164,85,-16,82
41,-89,-31,-213,-268,-210,223,66,-70,32
19,-81,0,-33,14,-144,29,7,-143,-16
18,-34,-2,-122,-190,146,-130,2,-126,47
-32,0,-68,-215,-386,352,-205,-4,-131,54
-32,9,-122,-17,-96,137,-338,-126,-225,-11
171,64,15,170,288,-104,-230,-20,-202,29
617,237,217,366,530,-19,159,122,-83,217
734,240,198,267,342,-83,307,1079,54,276
54,-462,-513,-521,-512,-740,-59,1530,-423,-384
9,-283,-306,-287,-280,-411,-5,-529,-304,-248
46,-40,-32,32,48,-59,58,-2256,-101,-39
-250,-272,-264,-218,-254,-315,-80,-1185,65,-146
-285,-280,-257,-289,-350,-331,-8,1993,287,-30
-329,-89,-75,-212,-232,3,950,-504,-119,-103
-983,-433,-380,-623,-744,-299,1215,-1603,-628,-709
-1496,-795,-660,-852,-1030,-517,1133,-875,-842,-1015
-699,-147,24,-59,-61,202,866,-142,-434,-278
163,519,710,680,828,808,198,1026,128,391
107,342,501,515,754,664,880,808,189,332
-166,-114,-66,-22,341,447,1848,-982,-420,-76
-377,-386,-400,-239,118,734,1815,614,-161,-516
13,-71,-44,127,416,1019,1399,657,549,-277
44,-115,-136,15,100,333,2204,-1670,129,-126
-586,-643,-588,-406,-271,116,2038,-2398,-825,-604
-601,-497,-369,-172,-86,72,-1231,-1367,-1555,-738
-411,-419,-430,-264,-287,-440,-2368,256,-1374,-584
-312,-600,-640,-627,-734,-999,-969,4147,-404,-469
43,-542,-612,-692,-852,-1328,-937,3179,662,-117
1334,722,601,459,258,-433,-1582,-422,1444,977
1099,858,684,529,313,-261,-1568,-1144,744,820
-25,123,-5,-134,-224,-452,-1156,-1777,-172,67
-502,-116,-137,-296,-304,-245,-785,-1059,-282,-52
-289,161,183,-37,-18,249,-136,287,-58,377
93,563,535,228,140,353,377,1402,515,834
210,507,408,121,-23,-210,-395,567,569,838
-47,72,-17,-191,-352,-625,-493,-59,-66,500
-368,-91,-169,-369,-527,-486,537,16,-903,-134
-509,-508,-511,-539,-535,-402,669,-790,-917,-508
101,-263,-195,23,156,-65,-64,954,183,-72
760,406,513,724,832,470,10,895,812,255
736,277,478,610,720,662,152,40,975,120
618,224,348,340,411,650,-18,58,901,86
451,271,331,216,163,388,-232,-23,400,48
173,65,239,258,231,308,-43,-316,-162,-49
132,136,236,229,122,331,11,-514,-342,16
82,232,133,174,154,239,-98,-449,-203,-169
74,-5,-95,39,114,169,-67,-169,70,-128
362,86,87,150,111,71,-211,-176,159,-85
551,60,71,87,-77,-100,-347,-91,-50,-119
134,-388,-289,-344,-456,25,-131,29,-227,-221
-530,-678,-622,-833,-846,-205,541,-852,-610,-663
-696,-525,-631,-783,-780,-606,2067,-2790,-1207,-958
-381,-104,-189,-106,-37,-238,3169,-1630,-1552,-646
-108,54,100,347,594,405,2748,572,-1402,-413
-207,-31,136,433,791,848,2343,-1281,-846,-314
-1043,-758,-605,-346,-207,-103,1300,-99,-570,-717
-1661,-1400,-1291,-1044,-1012,-997,140,787,-443,-1053
-751,-510,-620,-473,-541,-447,-1744,277,62,-316
337,302,100,149,-89,-509,-3495,1142,1312,832
526,232,202,195,-66,-615,-2726,1619,1769,1011
542,282,399,451,298,85,-1343,1284,529,564
314,170,267,313,234,209,-846,-1498,-282,147
-45,-66,-53,-58,93,66,-603,142,384,95
-252,-158,-237,-484,-264,-45,-217,1833,581,19
-130,54,-80,-510,-503,69,-113,-1526,-72,-34
-355,-299,-326,-344,-349,61,-57,-820,-375,-286
-627,-597,-598,-274,-293,-191,282,-198,-716,-645
-123,-39,-68,143,71,-21,127,-1448,-538,-188
864,868,908,994,831,433,322,12,352,919
1032,947,907,941,810,324,135,1565,751,1103
720,617,618,563,537,164,-311,615,570,790
343,335,315,285,312,49,-477,835,333,481
-178,-240,-280,-205,-180,-463,-436,546,-295,-62
-612,-607,-617,-571,-599,-692,796,463,-210,-554
-495,-367,-340,-375,-428,-462,724,2152,581,-296
-82,138,162,152,178,96,-405,-325,421,22
591,718,722,701,843,611,-648,-1338,682,623
565,614,606,532,669,349,-95,-276,623,574
385,447,456,357,409,218,214,138,391,362
202,269,284,188,256,490,212,19,190,233
6,91,130,6,72,814,223,-57,-62,73
-98,13,44,-135,-268,720,361,-592,-342,-57
-306,-267,-243,-541,-834,104,629,-1058,-507,-216
-869,-849,-825,-950,-905,-544,908,1897,-418,-635
-1092,-1100,-1037,-875,-309,-495,1562,2098,-521,-914
169,61,77,144,593,176,1134,-1400,-47,54
791,616,675,700,599,82,342,-855,325,634
328,157,179,305,220,-16,42,1554,125,226
159,-180,-232,-150,-270,-343,102,1577,-257,-115
340,-237,-312,-375,-561,-424,307,-354,-202,58
545,-112,-284,-489,-678,-278,-879,-962,241,597
816,352,117,-80,-211,-131,-1795,-595,178,732
782,417,257,240,384,-101,-1531,-1095,-549,428
415,124,-55,-46,157,-500,-1168,-2112,-1087,127
400,349,129,26,40,-609,-733,-797,-348,290
68,271,72,16,-91,-389,-434,1681,455,111
-128,266,180,133,0,89,-61,605,727,-136
-107,232,335,317,164,248,-111,-876,736,-102
-19,112,198,330,205,223,-231,-1477,173,45
-281,-178,-112,159,62,51,-463,-1152,-382,-494
-1222,-1070,-992,-460,-445,-757,-892,-340,-1081,-1588
-1453,-1179,-1169,-784,-696,-742,45,-89,-987,-1625
-412,-25,9,91,253,406,2161,-638,-86,-419
350,707,795,752,894,927,2154,212,651,379
320,434,503,461,448,320,113,869,1016,398
63,71,154,215,133,-70,-391,-574,548,19
123,100,195,320,146,95,34,1669,372,47
324,320,360,389,131,229,-409,2078,656,401
199,359,373,374,140,270,-457,-306,418,285
21,23,74,130,-1,243,-543,46,172,49
75,-292,-191,-98,-106,162,-570,284,182,223
86,-251,-269,-205,-198,36,-176,-194,24,280
-226,-165,-268,-350,-258,0,957,-197,-305,-132
-329,-213,-379,-574,-477,-121,2430,-174,-746,-413
-341,-345,-508,-762,-700,239,4611,1161,-927,-496
-1226,-1329,-1280,-1388,-1211,96,5254,2251,-1475,-1357
-1342,-1622,-1507,-1423,-1181,51,3442,-238,-1256,-1622
-211,-685,-688,-758,-718,-69,520,-2157,-1161,-884
153,-313,-326,-381,-446,-301,-207,-3768,-2240,-415
193,115,119,185,170,-63,-1359,-613,-1628,163
-793,-576,-666,-620,-764,-1454,-2882,481,-109,-345
-183,-111,-165,-100,-201,-1024,-2129,-1253,1591,315
1243,975,956,1029,1083,319,-1525,1830,1161,1385
1039,611,601,672,729,126,-1350,2030,-375,761
251,209,248,264,188,-101,-1769,418,-741,83
-133,502,611,609,456,228,-1946,-1578,501,353
-271,694,861,873,712,408,-1473,-1175,1745,589
-211,432,590,539,426,123,-1137,-347,1298,410
-185,289,429,336,234,46,-856,-336,625,247
5,413,584,402,244,318,-248,-284,596,352
432,654,845,609,382,558,349,556,898,645
448,445,541,441,356,386,-125,1162,947,489
109,-47,-50,-37,-48,231,-749,516,411,-67
-68,-283,-326,-239,-264,438,-355,-10,19,-318
-136,-297,-333,-223,-199,625,330,-577,-165,-321
-330,-348,-363,-422,-300,406,1512,-459,-331,-355
-689,-520,-640,-735,-258,-71,3068,1173,-710,-607
-173,82,0,-128,345,-170,2707,-242,-781,-173
476,639,713,682,972,322,552,-855,-28,404
-199,-73,77,331,519,176,-1496,2888,452,-122
-389,-361,-294,-323,-380,-5,-989,52,202,-338
582,453,477,295,459,350,-1247,-1995,616,456
603,341,301,289,476,-476,-2113,-738,605,462
353,-6,-221,-61,-192,-717,-888,11,266,140
407,203,24,330,117,-297,38,2611,365,96
781,663,524,802,630,252,308,526,227,385
566,478,431,589,471,323,431,-1376,166,451
-117,-17,-50,52,-18,264,594,-812,83,21
-118,-88,-116,-197,-276,29,-826,175,192,48
-55,-65,-86,-359,-486,-121,-1595,435,254,226
120,272,47,-369,-639,-34,-775,-210,-67,323
249,349,118,-378,-787,-91,-85,-829,-604,260
-504,-457,-466,-635,-813,-361,218,466,-1015,-504
-763,-841,-732,-646,-684,-388,333,2827,-243,-591
-133,-351,-355,-370,-537,-302,-57,1415,500,51
-50,-164,-165,288,321,-372,753,-285,109,-38
-213,-121,-191,385,574,-42,1909,-1194,-662,-472
-1298,-1354,-1356,-911,-632,-656,3390,-1899,-2385,-1682
-1729,-1641,-1604,-1335,-1155,-994,4071,-2545,-3576,-2262
-1710,-1319,-1110,-927,-752,-696,1340,931,-2389,-1883
-378,43,206,292,462,646,-1528,151,336,-189
1609,1592,1645,1647,1680,1284,-2472,-1259,2765,2117
968,903,831,783,635,-166,-3111,-414,2299,1676
-130,107,-91,-87,-268,-680,-1715,1929,1249,402
44,340,201,300,245,-38,-623,814,286,302
571,866,845,800,729,289,-846,-1071,427,801
795,973,971,788,665,237,-1028,-498,1295,1103
721,715,660,492,417,110,-885,647,1093,783
800,565,485,303,209,57,-628,630,581,547
1029,498,410,9,-135,146,-80,87,380,626
1148,347,241,-559,-440,455,888,-2,215,536
1046,121,-17,-1137,-408,656,1347,547,212,346
476,-149,-180,-900,-220,649,683,728,252,247
-414,-253,-110,455,479,334,-46,451,-87,-239
-732,-446,-198,1110,653,-340,-69,-559,-457,-659
-1021,-910,-668,303,-120,-574,1529,-1481,-966,-1180
-1046,-805,-691,-307,-261,-185,2711,-1647,-1342,-1303
-561,-345,-424,-354,-247,-140,1490,-1647,-726,-618
-666,-564,-654,-636,-556,-689,95,-116,-123,-418
-1132,-972,-960,-877,-776,-955,161,-386,-754,-971
-652,-436,-298,-164,-35,60,-486,-734,-621,-531
459,644,834,901,958,1001,-1351,1184,816,748
780,883,938,877,752,284,-2157,2210,1492,1170
301,423,337,327,141,-344,-1733,241,934,651
-72,50,-29,40,-62,-242,-711,119,486,265
-136,10,1,-32,-81,-57,-130,2654,503,212
136,279,286,224,228,313,26,-16,260,332
301,370,371,314,304,305,-352,-961,216,442
229,257,150,177,125,67,-542,-59,267,425
184,188,77,106,49,6,-571,-82,111,292
221,117,48,40,28,74,-439,-632,-105,128
473,146,80,86,93,95,-323,-965,-338,80
479,93,61,51,32,-104,-253,23,-423,78
232,113,63,-64,-142,-222,22,-336,-516,-90
196,242,196,-51,-157,-80,127,588,-15,-56
-265,-245,-240,-463,-528,-229,47,2920,339,-296
-538,-634,-624,-656,-637,61,483,1288,-164,-608
-186,-386,-354,-230,-81,511,1084,-502,-642,-376
51,-150,-138,-189,-289,267,1478,256,-421,-25
-607,-618,-582,-825,-987,-268,2427,216,-862,-625
-1150,-899,-820,-956,-1062,-118,2948,-2317,-1441,-1271
-432,-154,25,154,235,851,1305,-2359,-1076,-648
-210,-40,122,329,304,470,119,-336,-443,-130
-487,-389,-338,-142,-264,293,-172,-77,150,-65
-209,-137,-92,48,321,544,-6,2021,1020,345
-453,-369,-349,-237,126,-389,-1198,4095,697,-9
1,-31,-62,-4,257,-433,-2026,-212,-40,169
820,633,585,603,688,-319,-1573,-2758,279,731
867,601,547,534,367,-892,-760,-2318,714,748
499,301,213,203,46,-808,-205,-478,506,397
435,282,195,201,132,-356,-812,2603,532,445
657,540,450,463,408,-18,-1219,196,376,650
797,633,437,455,374,0,-847,-1202,182,632
918,605,416,369,244,63,-616,-699,193,663
882,436,319,259,150,95,-430,22,209,716
759,329,229,113,49,89,-250,45,95,627
373,94,17,-138,-193,50,447,-274,-193,317
-172,-310,-269,-384,-421,-102,1014,-873,-944,-4
-254,-214,-228,-320,-337,-128,792,-966,-1244,-118
-87,-258,-285,-295,-207,-143,-155,288,-497,-47
203,48,161,219,236,93,-990,1072,911,250
-31,102,289,401,199,62,-576,684,1039,187
-806,-380,-166,66,-93,-60,323,-1089,-105,-358
-947,-219,22,220,167,290,973,-1156,-810,-518
-453,299,452,410,412,459,386,1661,-526,-273
-218,115,102,-121,-58,165,-20,652,332,-190
-159,-215,-290,-355,-116,95,164,-61,1036,-225
-288,-261,-392,-252,47,36,389,666,534,-440
-273,0,-57,45,241,245,980,-376,112,-248
-155,227,385,491,300,476,1262,-165,103,69
-381,-100,92,236,-72,555,1176,330,-261,-171
-317,-297,-128,-27,-50,661,399,-415,-407,-173
-47,-84,-26,-3,-3,53,-997,-479,-347,-125
-146,-275,-331,-343,-370,-797,-1351,-1365,-175,-140
-663,-708,-745,-764,-684,-910,-556,910,324,-535
-860,-656,-615,-592,-518,-670,492,2982,-6,-717
-308,59,106,19,-59,-314,548,465,-254,-469
301,483,441,302,194,-44,210,-1760,120,76
184,98,43,-20,-53,-25,159,-1455,-30,32
-93,-235,-235,-240,-267,-79,116,-188,-156,-101
-364,-407,-360,-345,-410,-203,-273,233,16,-67
-368,-310,-242,-213,-241,-228,-854,349,-82,-88
-229,-59,-19,60,171,0,-369,-320,-413,-174
74,335,343,249,362,325,1099,-119,91,155
309,435,429,132,115,311,1001,353,165,425
358,367,354,170,27,70,185,357,147,474
89,48,1,161,-26,-145,12,547,104,208
243,137,136,369,428,245,-104,60,-83,191
520,382,388,462,605,543,-971,818,248,399
-43,-220,-228,-141,-1,-61,-1041,1213,-270,-154
95,-196,-176,-92,-146,-470,-1021,-1155,-609,-104
732,344,370,370,173,-201,-769,-801,-108,422
673,194,182,119,-1,-112,-220,772,-60,219
247,-289,-268,-313,-341,-114,134,-186,60,-62
145,-252,-173,-139,-64,195,167,1,452,201
272,156,180,225,334,374,171,642,326,399
281,351,288,197,153,253,120,311,237,248
83,209,164,127,-58,158,243,-144,270,44
-89,-20,8,265,114,129,266,-457,225,-49
-246,-205,-84,162,189,147,75,-410,2,-167
-423,-270,-240,-155,-117,362,197,-317,-178,-468
-330,-360,-422,-473,-462,652,821,-707,-237,-413
94,51,-34,-305,-369,540,1437,-743,-284,12
-4,87,60,-27,140,226,1651,1285,-519,-64
-92,73,82,293,509,390,1562,618,-626,-221
-27,6,34,191,297,-300,-694,-304,-176,-51
-452,-562,-565,-577,-540,-1255,-2094,-20,6,-281
170,-28,-165,-332,-438,-821,-985,-674,399,261
-36,-240,-296,-400,-538,-713,876,-688,-156,-78
-430,-585,-584,-732,-912,-769,1083,1778,-345,-460
-137,-208,-311,-634,-733,-428,-367,979,-129,-149
698,701,626,485,432,341,-1331,-933,590,749
709,680,622,789,972,385,-716,-1452,699,861
359,429,241,269,538,355,607,-1242,-60,467
2,102,-10,-18,166,366,935,172,-563,71
-687,-499,-568,-495,-484,-88,-138,310,-754,-614
-692,-587,-623,-632,-686,-316,-475,-61,-206,-467
-519,-385,-363,-295,-156,106,1562,-776,-207,-360
-450,-274,-178,6,237,297,3205,-710,-274,-310
-182,-156,-45,194,323,54,946,-1043,-217,5
525,524,559,668,638,332,-2511,213,45,472
691,739,719,744,615,374,-2576,1866,562,485
288,238,217,42,-134,-252,-1394,839,1016,219
245,166,51,-184,-380,-433,-1040,-94,946,65
54,-193,-324,-398,-500,-581,-980,-1338,193,-207
-230,-451,-409,-393,-304,-672,-1112,448,-233,-483
-79,-203,-189,-140,83,-281,-355,2398,-85,-284
502,388,404,434,586,479,597,-453,68,243
656,547,550,584,469,379,146,-594,274,504
369,362,293,309,229,112,-107,13,231,327
221,219,231,213,295,136,-10,18,21,174
136,184,236,222,342,175,-145,26,39,197
-147,-23,40,23,126,282,-20,401,266,190
-311,-57,38,31,98,419,126,448,119,19
-207,7,109,69,49,230,151,529,-32,61
-53,61,146,57,0,-2,157,322,-230,31
-174,-82,-33,-124,-135,-170,467,-107,-144,-110
-236,-188,-152,-249,-168,-187,1076,-633,-53,-194
-64,-67,-32,-124,-73,-18,1502,-1134,-364,-165
236,185,234,133,25,65,1103,-483,-183,161
151,104,149,36,-95,-4,322,950,61,137
-272,-364,-379,-483,-541,-376,-760,1602,-45,-274
-159,-263,-359,-371,-387,-352,-1110,861,153,-120
106,108,74,146,113,-21,-1013,-16,194,187
103,67,101,212,255,177,-269,-345,-86,111
-21,-228,-220,-46,97,224,105,-375,-187,-46
-321,-429,-421,-359,-312,-167,199,-213,-389,-398
-338,-276,-343,-411,-502,-392,1080,-116,-259,-393
263,281,240,152,134,312,1963,-679,3,69
731,598,627,504,661,614,610,-414,138,483
750,653,617,398,591,237,-960,150,421,624
486,383,306,4,-14,-129,-790,1130,537,435
16,-191,-167,-325,-380,-246,-315,215,7,-55
-22,-264,-182,-288,-422,139,-505,-1455,-145,-58
-100,-231,-181,-127,-356,275,-579,702,-2,32
-591,-487,-557,-687,-961,-175,-142,1946,-124,-155
-865,-533,-524,-674,-704,-76,786,-1112,-544,-487
-869,-571,-418,-200,-71,-99,1220,-1153,-933,-714
-816,-752,-642,-520,-244,-239,1676,697,-1008,-821
-1006,-911,-836,-744,-155,-179,620,3,-848,-913
-971,-787,-661,-284,156,-14,-915,-1592,-520,-669
147,446,554,753,740,752,397,-2490,-367,196
1241,1496,1511,1455,1272,1216,1868,-846,-263,1135
-225,-70,-144,-106,-225,-513,-387,1814,-520,-94
-1208,-1080,-1048,-957,-974,-1304,-1852,355,-242,-939
4,-45,-49,-33,-65,-451,-1250,592,1692,265
915,696,633,587,555,169,-492,1554,2260,1100
921,725,678,574,481,110,-406,1087,1359,1040
798,713,651,504,343,24,-387,15,849,887
711,553,450,283,120,-58,-384,-190,574,694
434,175,33,-166,-305,-335,-508,328,241,295
606,204,80,-168,-283,-299,-561,85,90,179
961,483,337,60,-30,-48,-416,-26,18,419
625,443,301,102,39,1,-136,-229,-149,332
177,249,181,129,73,-46,662,-445,-296,136
285,151,160,163,102,-52,1030,-511,-367,102
121,86,198,325,342,150,643,3,-282,-14
-221,-15,231,486,559,220,-236,1001,108,-5
-362,-196,6,254,328,14,-174,688,176,5
-461,-343,-291,-3,91,227,595,81,-32,-82
-661,-442,-394,-73,31,829,819,-6,-166,-167
-833,-563,-392,-196,-215,926,248,-506,-432,-325
-599,-311,-144,-195,-483,723,-85,-440,-495,-321
-406,-76,34,-198,-609,726,-201,-145,-255,-190
-295,-23,38,-86,-245,368,-959,8,-88,-186
-162,-44,-6,222,359,-526,-1061,-120,-109,-264
-28,154,135,329,609,-799,-96,-189,-104,-273
47,293,264,242,430,-420,-11,-1052,36,-92
-192,-90,-104,-166,-67,-291,-286,-916,111,-81
-618,-477,-434,-417,-281,-349,-75,601,-208,-466
-577,-363,-283,-304,-186,-398,763,-1083,-945,-591
-523,-325,-317,-456,-406,-628,1299,-172,-1062,-600
-930,-736,-772,-957,-907,-909,1065,2598,-624,-955
-628,-441,-403,-501,-426,-148,432,1626,361,-581
-413,-308,-236,-93,25,22,-577,-349,645,-304
190,201,205,440,476,270,-73,-3851,0,33
606,620,545,560,494,217,44,-315,276,415
404,490,356,279,195,-55,-613,3015,545,269
387,324,226,237,252,127,-844,-211,479,348
367,170,145,157,224,204,-495,-908,180,409
367,168,148,147,204,274,-61,-779,-150,403
342,222,233,177,231,389,352,-350,-94,317
-45,-37,-12,-161,-166,65,227,913,101,-11
-145,-56,-62,-282,-408,-105,202,614,210,-91
214,181,175,-62,-224,7,-36,-17,308,202
-140,-283,-288,-351,-431,-453,-871,390,-14,-101
-516,-617,-554,-435,-303,-426,-396,-556,-530,-543
-112,-262,-200,-166,-37,144,1090,-946,-206,-174
587,377,324,215,222,437,1911,740,598,549
529,420,330,329,324,236,785,-40,212,459
-32,-28,-79,-131,13,172,-610,-1006,-371,-72
-522,-373,-390,-520,-393,-99,-1162,-333,-394,-364
-431,-276,-207,-105,-151,54,-534,506,31,-110
221,197,277,485,279,167,-303,1365,566,581
194,189,145,181,5,-261,-470,731,408,511
-236,-140,-187,-121,-11,-349,266,-274,-240,-120
-231,-111,-92,-87,81,-141,1208,-711,-412,-182
209,293,326,274,256,178,755,94,-88,225
514,536,577,574,419,224,-706,-183,-8,500
443,476,505,517,324,263,-1012,-537,95,435
135,92,105,108,-2,51,-729,284,314,118
282,26,34,65,14,4,-573,324,457,125
483,150,163,96,17,29,-419,69,333,207
510,173,157,7,-63,29,-270,17,73,143
386,-72,-66,-179,-236,58,-176,13,13,173
26,-211,-249,-219,-198,-22,-227,-427,-191,-101
-116,-107,-243,-132,-225,-155,-80,-916,-517,-409
-129,-249,-393,-318,-545,-117,885,-636,-622,-389
-483,-639,-648,-584,-525,-41,1961,-1012,-875,-464
-436,-310,-243,-228,95,29,1391,339,-490,-290
-144,117,150,165,379,119,28,1766,332,16
207,354,324,456,531,374,-307,365,661,369
-22,112,32,287,223,-25,206,-509,329,98
-120,-59,-72,72,-82,-180,60,-683,39,-61
113,58,120,132,-23,-187,-1136,271,249,176
272,144,139,88,-57,-141,-1000,1275,341,272
265,136,101,8,-60,317,-429,733,181,148
379,299,247,80,174,756,-234,-217,178,304
421,270,140,16,368,592,-330,-373,195,460
271,29,-60,-159,209,160,-345,-23,52,225
201,-112,-163,-330,-189,-228,-147,109,9,77
155,-32,-113,-76,-191,-284,261,58,-94,-75
16,38,83,280,177,2,1050,-77,-273,-219
-108,-35,95,207,250,492,2052,-439,-292,-195
-309,-110,-6,-3,105,549,1672,-349,-342,-418
-706,-344,-217,-215,-154,198,411,-11,-604,-588
-619,-164,-56,-102,-258,-182,-1078,592,-297,-295
-219,69,112,-43,-409,-399,-1434,1031,555,119
65,37,8,-152,-485,-301,-1072,1080,740,380
-181,-356,-391,-278,-264,-570,-709,-29,-15,4
-612,-645,-696,-277,-43,-993,-705,-1169,-598,-470
-398,-223,-248,-14,41,-540,-631,-1265,-316,-313
10,101,150,173,172,63,-119,-366,42,125
-33,-35,-7,-52,-59,-45,544,212,-52,147
-453,-479,-441,-475,-474,-495,1657,-151,-555,-248
-818,-813,-715,-754,-721,-716,2466,1036,-842,-742
-578,-567,-433,-522,-485,-401,1098,194,-775,-684
262,228,338,225,240,282,-1843,-1478,285,227
675,651,730,644,597,472,-1877,-1041,1202,764
523,520,560,483,398,179,-504,-218,844,643
233,270,317,258,154,-113,-497,2817,480,355
318,286,345,322,271,99,-448,409,166,253
432,219,219,195,213,84,-179,-1379,54,216
482,108,53,55,79,35,208,53,306,290
395,166,129,13,-20,89,683,675,7,171
372,342,312,10,-76,282,538,-201,-116,146
292,409,402,2,-165,633,73,-930,256,373
142,343,329,164,-55,556,-276,-563,345,405
-133,205,229,496,413,268,-414,-124,73,132
-362,-90,-64,152,201,-48,-500,218,-56,-72
-461,-313,-323,-276,-277,-451,-596,877,56,-168
-302,-231,-282,-301,-477,-448,-412,653,172,13
-139,-79,-84,-151,-332,-110,-119,220,218,211
-82,-97,-74,-146,-111,26,-58,162,342,325
70,-28,-21,-13,33,76,-4,-170,301,360
214,-1,3,15,-24,34,181,-81,158,253
305,128,152,78,148,-15,227,130,87,192
275,177,211,90,109,-21,334,218,97,145
194,160,93,-63,-2,38,991,-2,-20,-106
-20,76,-80,-63,152,192,1214,-519,-333,-484
-217,-137,-250,-40,279,135,149,-466,-227,-534
101,-88,-187,48,309,-11,-911,132,-117,-164
563,61,-84,-27,39,-42,-145,210,-149,137
632,254,71,48,41,52,1022,-464,-298,102
396,328,231,143,104,66,1140,-267,-410,222
240,396,372,267,232,132,273,265,-450,180
8,156,101,35,154,39,-952,414,-80,40
-215,-251,-295,-379,-197,-335,-1344,241,125,-65
-362,-483,-469,-513,-280,-542,-861,63,-285,-241
-212,-210,-192,-164,-88,-177,-8,-187,-391,-119
40,186,204,244,177,330,385,-486,90,278
19,62,91,142,102,159,-40,-123,298,245
0,-47,25,-28,-79,79,53,-174,-71,-16
-373,-321,-219,-324,-335,113,401,-318,-397,-370
-1212,-1080,-1044,-1228,-1078,-168,1265,-946,-1391,-1212
-951,-968,-982,-1346,-1134,-38,3420,-869,-1855,-1071
40,66,115,-312,-52,665,4060,1494,-971,16
161,454,520,308,535,805,1396,1357,402,461
-846,-316,-260,114,56,-59,-2320,567,938,-349
-974,-578,-593,87,-42,-516,-2777,504,157,-664
251,280,148,643,618,3,-1353,1077,220,318
682,485,375,764,715,65,-1033,-62,290,780
338,110,-14,341,320,-26,-10,-1188,377,585
-399,-305,-358,-52,-66,-101,1961,-482,519,-88
-813,-490,-488,-334,-475,-572,2025,1960,680,-450
-809,-560,-537,-431,-479,-479,376,454,12,-492
130,273,311,269,258,160,-2116,-1849,252,383
572,645,663,582,433,0,-2871,-1921,654,671
260,332,381,304,64,-330,-1659,331,393,256
163,196,246,147,-78,-157,-620,2275,301,139
290,229,265,237,166,573,-234,-938,-19,171
300,182,258,296,435,1135,-351,-1045,-43,118
407,247,339,337,676,1307,-159,-19,220,251
570,453,391,233,534,893,263,343,354,289
347,321,199,-34,149,356,476,750,279,107
202,183,14,-124,-7,-76,205,895,176,1
273,233,-23,-84,-172,-315,-54,352,101,107
-77,-88,-188,-107,-267,-322,696,-816,-533,-172
-678,-570,-509,-402,-543,-438,1491,-1628,-1159,-613
-1132,-838,-755,-655,-707,-677,1129,-822,-1545,-1070
-1401,-1036,-925,-843,-852,-913,530,-987,-1739,-1321
-418,-224,-76,-37,-17,-401,-520,-622,-127,-212
689,797,879,879,866,254,-1038,914,1324,1012
721,745,765,689,600,-23,-1262,1697,1544,1154
407,440,454,347,185,-322,-1219,287,830,733
274,375,372,274,105,-298,-966,-530,208,397
251,359,281,251,128,-136,-650,-271,195,287
202,225,204,215,155,-9,-357,59,307,270
299,224,183,176,136,24,-231,151,284,358
426,282,190,144,95,52,-160,153,190,291
300,172,117,83,63,86,-93,151,112,123
300,95,48,36,0,60,-46,117,55,79
441,87,2,2,35,-14,-80,13,-17,86
488,53,-33,-54,-32,-74,-108,-69,-104,18
539,114,-7,-173,-279,-63,-75,-262,-148,4
512,141,14,-268,-383,63,193,-1259,-227,51
229,-61,-48,-185,-220,275,698,-1696,-265,38
-479,-435,-404,-514,-590,-49,1077,1248,-351,-370
-1382,-1099,-1008,-865,-797,-619,554,1883,-836,-1098
-961,-699,-520,-118,113,-135,-52,-1316,-894,-827
-90,75,175,552,727,520,-315,-2366,-409,-73
350,494,514,801,800,710,-41,-472,214,414
385,517,407,424,406,261,-168,1028,552,504
187,226,22,-32,75,-30,-230,1179,416,295
-140,-156,-270,-254,-267,-239,-140,1108,173,2
-160,-208,-166,9,-121,-233,-213,521,250,-4
42,15,12,168,26,39,-120,135,360,160
81,125,126,46,35,217,-60,76,170,161
108,214,216,-96,-45,214,-13,162,159,185
117,219,247,-76,41,128,27,200,184,207
37,80,151,-43,-62,-65,-19,162,105,136
77,9,45,-157,-223,-133,19,158,100,160
107,17,28,-71,113,26,85,132,90,158
16,-28,27,16,272,97,84,48,58,93
27,-56,-23,3,-25,24,64,-9,26,82
13,-38,-18,53,57,-105,156,-43,-71,-11
-92,-136,-119,-206,-150,-111,1053,-98,-189,-95
-121,-260,-240,-397,-351,106,1863,-77,-399,-198
107,-142,-127,-201,-71,256,1528,3,-498,-157
533,92,18,-118,-287,55,-214,-328,-495,-57
279,-197,-315,-423,-907,-675,-1465,469,-266,-290
-205,-585,-568,-785,-1032,-707,-148,419,2,-221
-151,-170,-275,-766,-585,100,1525,-312,98,162
-431,-243,-389,-570,-286,-109,1397,-246,-23,-182
-765,-532,-553,152,603,-231,1071,-429,-408,-521
-268,114,171,672,922,557,87,-114,-99,75
545,808,913,1083,863,883,-1873,265,466,781
251,461,579,727,447,300,-1604,-138,-29,377
-463,-139,1,199,58,-208,-229,851,-313,-194
-623,-238,-134,81,127,-335,393,1437,-10,-252
-258,-22,48,59,170,-86,-155,-899,274,62
205,214,207,155,176,36,-779,-812,770,412
201,156,186,55,-37,-69,-679,501,398,262
12,118,242,124,191,-26,-502,-46,157,3
170,261,349,179,354,172,-402,-202,339,128
285,231,221,-79,-73,230,-314,-90,236,239
235,156,89,-300,-502,65,-242,-480,-29,199
186,214,97,-293,-476,-22,28,-722,-203,224
169,180,-1,-351,-456,-51,261,951,-10,312
-100,-185,-213,150,236,-210,102,1151,-42,18
-150,-355,-219,608,739,-71,31,-730,-78,-129
67,-134,-82,392,462,-54,-82,-447,201,25
126,12,-42,143,183,-126,-231,360,279,45
130,45,-5,26,69,38,-250,326,152,40
108,162,125,67,70,196,-171,84,-74,-12
-55,158,141,65,61,132,-79,-63,-299,-142
-291,-131,-84,-47,-16,36,-68,-119,-179,-163
-113,-197,-231,-42,-19,159,-161,-126,39,86
40,30,-54,50,-2,336,-134,-93,67,101
-88,87,79,27,60,359,28,-24,36,-40
-158,-72,-52,-180,-89,54,1,-76,-83,-79
-152,-182,-179,-395,-444,-447,-83,-224,-208,-37
-86,-67,-48,-298,-449,-629,151,-345,-106,79
-107,77,0,-512,-748,-400,968,-373,-132,-58
-423,-233,-352,-1006,-1132,-186,1837,-783,-632,-424
-445,-249,-234,-275,-161,230,1918,-1775,-892,-372
-127,26,185,901,1335,621,916,-1624,-664,-95
221,163,138,551,995,200,-855,667,178,258
314,18,-147,-132,30,-343,-1267,1004,642,446
434,23,-114,-131,-199,-355,-627,1039,794,599
64,-197,-274,-362,-622,-346,-146,2941,617,221
-342,-427,-427,-386,-480,-213,401,1549,-31,-281
190,189,248,457,267,246,609,-351,-330,-51
18,-56,32,278,184,-4,1555,-665,-569,-223
-686,-848,-712,-538,-468,-629,1824,-784,-659,-573
-1018,-876,-751,-718,-629,-503,1514,-731,-824,-832
-248,-8,52,37,154,311,-454,-866,-188,-90
610,668,687,740,752,482,-2589,306,1016,796
447,462,498,495,393,100,-1870,991,1064,665
77,108,148,102,91,62,-59,633,569,343
-191,-169,-111,-179,-229,79,606,-25,-91,53
-182,-218,-231,-330,-316,193,459,-840,-585,-87
-66,-242,-328,-509,-323,190,-252,-390,-692,-31
-231,-469,-530,-663,-568,-279,-1213,836,-677,-132
-475,-601,-642,-546,-741,-562,-1333,1234,-136,-300
222,140,107,428,144,201,-287,-492,474,257
988,817,752,952,952,367,-345,-1395,689,998
744,671,554,506,509,-146,-763,-2079,416,830
147,278,171,53,-19,-395,-552,-531,84,264
-116,62,14,-86,-135,-325,-242,2825,310,72
25,197,211,234,321,115,58,129,219,60
93,222,260,287,413,216,-87,-1064,73,50
69,139,176,133,213,67,-199,-255,125,101
-15,71,57,68,51,-32,-75,4,150,52
-122,8,6,48,-87,49,314,-248,115,-18
-52,55,34,71,-111,192,565,-340,27,52
11,91,83,56,-90,266,404,651,-147,65
-106,-47,4,18,78,501,383,615,-229,-21
-6,-31,-56,26,238,668,549,12,144,116
-71,-101,-120,-69,129,332,287,-4,146,67
-28,-113,-70,-112,-59,50,38,-126,-98,-103
198,-115,-103,-253,-289,-7,301,-137,-235,-143
473,76,72,-253,-171,146,854,717,-31,83
399,217,77,-438,-420,298,1122,820,227,139
55,88,-24,-447,-899,477,598,-590,247,2
-56,-71,-80,-218,-793,-30,-1102,192,301,3
-187,-175,-135,119,8,-655,-1323,423,72,-32
-342,-333,-252,175,549,-707,-95,-768,-487,-185
-671,-648,-566,-138,257,-788,924,-2944,-1485,-668
-774,-647,-573,-391,-226,-679,1754,-2520,-1939,-823
-888,-689,-531,-518,-453,-419,1878,905,-1611,-863
-813,-502,-364,-428,-408,-331,1375,990,-531,-614
186,490,511,381,293,-18,-164,1232,1166,595
274,176,239,272,351,150,-996,-97,627,519
325,253,282,261,482,78,-583,-249,538,548
254,215,192,154,297,77,-384,108,339,418
305,242,230,280,245,266,-166,150,264,210
323,142,120,265,292,323,-46,-20,188,204
-168,-218,-218,-218,-105,78,73,173,208,82
-369,-275,-219,-373,-253,-40,56,-113,164,28
171,102,181,-35,-179,-48,-375,313,136,396
248,145,209,158,-133,-195,-929,618,82,444
-343,-134,-91,19,-64,-8,-726,305,-18,-123
-722,-404,-343,-261,-169,37,-422,-382,-360,-592
-378,-173,-54,-21,60,142,31,-1065,-463,-268
169,240,337,422,427,313,334,-402,-101,230
631,529,603,635,516,171,208,936,664,749
489,286,327,301,160,-169,86,975,673,671
289,150,158,148,64,-83,-153,-72,266,471
281,141,51,99,41,40,-467,-126,231,537
181,120,21,33,-43,-19,-473,29,153,487
239,167,172,-92,-216,-92,-514,-18,4,429
426,242,221,-370,-451,-42,-358,68,30,552
483,255,153,-614,-671,73,-167,226,118,595
460,146,4,-596,-717,219,140,200,30,380
197,-162,-292,-247,-30,368,1091,-452,-425,-25
12,-287,-372,12,57,261,2568,-541,-751,-106
-430,-407,-297,48,-74,39,2605,-669,-1225,-392
-974,-534,-194,96,252,219,1606,-1908,-1506,-837
-396,112,431,542,739,806,123,-652,-299,-151
-310,-18,120,251,103,55,-1102,-280,400,59
-1261,-1139,-1145,-886,-953,-1153,-1806,655,307,-813
-1277,-1055,-1048,-770,-484,-991,-1621,1706,91,-983
-160,118,134,291,520,59,-570,231,149,-218
843,1005,1001,1028,1075,505,-563,146,900,774
932,979,970,915,813,113,-1077,998,1204,985
598,654,602,524,393,-113,-1027,676,824,694
302,330,263,215,163,-90,-634,359,495,431
121,148,130,153,177,-14,-460,255,319,257
135,83,80,148,222,-33,-398,242,175,206
299,138,120,68,61,-76,-347,227,118,234
339,239,164,-58,-173,-34,-193,218,221,251
263,228,145,-200,-221,0,-47,224,199,287
52,60,5,-171,98,103,52,217,80,209
-190,-166,-131,-10,233,122,364,262,-116,35
-224,-282,-177,-29,-95,31,864,-149,-432,-98
-60,-186,-148,-193,-265,-1,888,-841,-433,-57
57,-71,-70,-193,-23,-31,-109,496,-22,92
84,-12,9,-57,129,-126,-1007,1443,-57,76
141,67,126,142,112,-104,-430,186,-4,126
-3,-60,-40,18,-84,-174,-125,-324,155,153
-7,-4,-7,-83,-145,-100,-6,-220,11,228
-14,172,231,70,47,146,217,-402,-85,253
-140,57,131,-66,18,113,259,-386,-125,214
-31,95,69,-194,-228,-50,-109,-420,-154,98
105,73,79,98,167,180,-224,-331,194,37
240,-17,0,99,251,366,-58,-441,238,6
150,-165,-127,-132,-93,215,-94,-634,-184,-153
-163,-359,-294,-126,-179,-11,-13,195,-327,-286
41,-72,-79,62,-58,-2,360,164,-114,5
477,291,204,224,127,53,-42,88,173,415
410,181,80,102,71,-256,-481,-58,164,370
147,104,36,-31,-116,-443,-182,39,190,303
379,199,140,1,-133,-335,-10,98,185,285
803,211,183,111,15,-160,-80,111,156,262
976,130,89,73,49,13,-25,270,140,335
850,104,26,-97,-187,257,197,314,39,378
530,180,46,-223,-373,303,762,179,13,472
232,129,-1,-234,-433,65,1160,744,66,463
-283,-163,-167,-10,-182,-87,959,179,-385,-28
-892,-333,-160,306,358,87,245,-1311,-723,-428
-1432,-573,-342,137,179,-260,-196,-776,-494,-684
-1583,-813,-694,-416,-453,-425,442,-561,-537,-1051
-1232,-649,-644,-508,-549,122,380,-1158,-783,-1067
-520,-28,60,41,365,664,-679,-1013,-397,-427
-107,164,311,212,914,586,-1025,239,192,-58
83,191,239,176,546,116,-508,981,471,106
237,418,409,396,199,-274,-382,-938,-55,117
81,268,260,246,23,-217,225,-865,-515,89
-912,-559,-514,-544,-408,-229,1296,2124,-861,-659
-1620,-1196,-1114,-1104,-919,-327,2199,450,-892,-1286
-875,-645,-525,-297,-202,176,1594,-1219,244,-598
-80,-19,88,245,158,211,-570,-89,471,204
-50,-17,-2,56,-59,-37,-594,-719,33,168
-341,-231,-221,-104,-51,16,462,-768,-440,-283
62,112,144,132,127,173,112,2666,457,109
553,491,454,373,269,59,-1168,2184,1210,685
629,530,453,394,258,-183,-1338,-310,784,692
483,401,343,357,239,-209,-1027,-169,498,475
398,335,243,276,254,-90,-681,-243,252,300
478,470,236,187,185,-137,-599,-311,104,232
599,470,223,217,246,-127,-452,-60,194,401
547,334,236,106,303,-52,-236,153,266,447
356,297,273,-45,221,73,-105,211,223,271
382,298,218,-207,-338,108,-38,209,182,275
435,258,153,-110,-374,30,79,133,82,252
221,73,81,-95,-260,-42,229,141,87,156
3,-154,-44,-198,-406,89,321,211,186,169
-78,-180,-9,25,-260,304,229,169,48,-3
129,-34,11,-132,-303,426,106,263,55,26
146,4,-142,-657,-799,611,146,490,197,112
-231,-211,-296,-107,23,611,115,233,-45,-190
-443,-289,-277,601,752,109,-159,-88,-296,-430
-289,-133,-128,431,521,-296,-320,-445,-190,-277
-164,-99,-125,91,60,-397,-211,-387,-117,-158
-118,-127,-147,58,-27,-552,-2,841,51,-136
-89,-113,-105,56,69,-502,618,559,51,-190
85,11,98,308,414,-63,1167,-1167,-81,-42
32,-25,46,194,346,150,739,-953,-281,-6
-80,-8,-21,-3,113,81,-744,-167,-393,-83
-84,-69,-104,-144,-73,-182,-999,23,-194,-43
-490,-512,-517,-492,-402,-452,263,-89,-313,-274
-695,-590,-605,-555,-495,-473,950,-500,-447,-487
-239,-49,-113,-46,-76,-108,479,-617,-129,-231
425,450,465,451,394,297,-577,303,527,436
672,495,445,374,359,156,-709,12,630,748
455,354,197,158,267,-52,-292,-674,238,494
238,214,69,-80,85,-67,-433,278,128,291
82,-29,-124,-449,-428,121,-174,741,-45,122
68,-156,-271,-649,-943,454,381,336,-412,-61
51,-155,-297,-640,-1012,536,1090,98,-935,-249
128,-53,-159,-370,-499,292,1465,-772,-783,-199
241,45,25,66,374,137,461,-803,-83,24
-19,-99,30,285,483,-206,-752,386,97,-4
-1193,-1142,-884,-443,-470,-1037,-945,2593,-426,-964
-1639,-1546,-1281,-862,-856,-1284,-1128,-376,-822,-1444
-335,-260,-35,201,219,-11,-194,-2434,-155,-242
795,927,1007,1080,1034,700,619,610,764,864
830,979,926,875,775,191,-505,1029,899,880
512,572,592,588,515,-56,-749,-119,788,562
169,239,323,326,309,3,-285,-427,310,112
220,161,173,158,168,32,-210,-262,98,-11
547,232,143,84,93,33,-221,-20,163,230
506,269,198,125,100,103,-143,82,164,314
336,150,163,137,77,158,-91,132,217,414
203,188,204,30,-112,157,-14,151,178,300
91,128,111,-364,-421,121,241,185,70,167
-87,-219,-328,-1125,-719,-143,668,-236,-307,-96
-229,-451,-607,-1359,-909,-74,1452,-698,-563,-279
-467,-524,-552,-428,-60,396,2696,-198,-572,-535
-400,-325,-252,444,475,308,3315,716,-214,-560
243,119,156,728,368,10,1736,106,-196,-110
664,512,533,842,533,328,49,-821,-195,312
666,690,680,669,390,381,-1706,-204,339,738
81,180,97,23,-140,-343,-2128,321,628,608
-285,-99,-208,-254,-314,-614,-1908,567,417,312
-69,73,13,-49,-115,-394,-1720,593,404,415
55,241,210,168,130,-77,-1053,-74,123,347
-54,241,228,212,171,-29,-803,-231,-134,198
-346,41,119,162,143,-84,-596,135,-26,0
-675,-195,-39,66,71,-46,-323,474,161,-205
-605,-110,62,168,152,69,-159,297,430,-224
-265,-27,105,191,157,93,-107,140,318,-150
124,-91,2,101,71,59,-131,60,61,-79
388,-81,-22,67,63,112,-77,32,-31,-93
391,0,-17,26,60,146,-32,14,-78,-87
277,114,31,-47,-16,72,-43,-28,-61,5
79,112,37,-170,-137,56,-8,-15,-36,9
-200,-3,-3,-219,-273,126,99,10,-88,-184
-234,-123,-87,-96,-258,129,179,-42,-80,-53
-141,-80,-104,158,187,94,220,-675,-407,-143
-207,-75,-52,34,138,-4,643,-1093,-629,-299
-361,-295,-281,-274,-166,-184,914,-670,-780,-346
-650,-588,-594,-399,-250,-339,645,-346,-1035,-542
-684,-691,-685,-517,-437,-421,383,1035,-204,-376
-389,-434,-370,-354,-204,11,195,1493,862,7
226,299,295,246,431,904,-339,125,883,428
395,422,384,418,606,816,-672,-862,343,429
391,287,244,325,491,240,-312,-1055,77,359
269,150,104,113,200,-79,-107,467,113,286
16,-68,-130,-191,-273,-302,-272,1257,-83,92
130,1,-102,-214,-466,-313,-314,306,-234,229
254,111,-19,-94,-400,-285,-274,139,-184,302
167,76,-17,-62,-320,-291,-184,-20,104,192
17,-56,-42,14,-88,-220,157,-292,290,133
165,75,109,118,196,-133,187,-267,119,184
229,183,216,88,232,-121,-188,-475,66,203
258,342,293,-166,-281,-194,-281,-958,27,87
210,378,360,-451,-790,0,270,-691,31,94
70,123,124,-761,-1026,-80,751,1964,170,91
-151,-223,-215,-600,-691,-77,1480,1824,134,-181
-601,-641,-411,519,989,202,1981,-807,-137,-496
-1212,-1167,-997,-56,373,-83,1516,-309,-735,-924
-1282,-1090,-1087,-705,-348,-109,346,-201,-1246,-1149
-612,-302,-336,-187,-77,544,876,-2412,-1215,-722
258,476,496,589,493,1234,1319,-1498,-312,90
552,534,489,658,473,596,-575,408,610,517
309,89,-45,48,-85,-387,-2593,173,696,466
207,-56,-134,-120,-238,-664,-1818,304,91,329
230,-32,-38,20,24,-512,-281,1604,-76,274
245,95,140,210,457,-163,518,1313,-144,199
124,56,154,239,607,174,722,-1633,-286,65
141,23,113,204,390,139,25,-1846,107,170
45,133,155,95,-74,-495,-1471,873,385,57
-95,211,223,50,-177,-650,-1533,1158,592,1
31,115,100,-9,-93,-365,-825,-641,656,221
-57,-34,-28,-47,-30,-197,-402,-892,164,61
51,-34,-27,-20,-24,-163,-252,2498,228,246
349,274,263,171,155,184,332,1062,153,407
230,285,143,-28,89,265,472,-1572,-433,6
-131,-138,-213,-406,-199,52,503,-1127,-527,-320
83,17,-34,-189,16,233,728,-368,58,64
294,250,205,63,53,244,198,807,538,459
263,284,276,128,-257,89,-552,926,477,413
86,103,70,36,-318,-84,-455,170,-12,71
281,208,118,155,-46,-244,-529,243,44,78
189,99,-7,149,171,-397,-426,31,-41,-134
35,-113,-152,-19,69,-199,405,-64,74,-173
44,-76,-34,22,134,61,265,222,134,91
12,21,55,91,163,53,-338,463,192,243
-38,123,69,201,218,64,-359,147,179,132
-51,96,120,199,193,73,-222,-405,72,28
-50,-8,108,108,138,44,-217,-587,26,69
21,8,105,68,88,8,-257,-332,77,116
71,99,115,60,22,7,-101,-89,71,65
6,197,63,52,-102,22,123,3,29,-61
-57,279,96,91,-180,62,194,28,-51,-227
-104,54,50,149,-53,178,278,78,-16,-178
-38,-57,50,38,0,211,377,118,44,-85
-7,-10,41,-183,-116,181,374,149,66,-63
-20,44,65,-322,-248,222,556,205,66,-78
-150,-19,-13,-328,-150,228,1017,126,-30,-143
-233,-86,-28,-417,-340,200,1053,162,-121,-228
-29,43,123,-271,-480,342,492,502,57,-46
74,25,122,108,2,358,387,-183,-66,10
-73,-141,39,427,744,149,1004,-1534,-551,-300
-192,-305,-174,-1,278,-116,1493,-2549,-809,-533
-798,-933,-843,-775,-600,-614,523,-1921,-1145,-1069
-956,-1122,-1061,-924,-780,-937,-1048,190,-1070,-1115
-192,-338,-337,-322,-141,-135,-1349,473,-390,-353
718,594,622,595,715,637,-676,1805,853,590
431,279,305,378,303,-56,-846,2040,945,352
-394,-586,-549,-326,-272,-470,-208,-551,-275,-556
-623,-765,-737,-526,-430,-290,618,-313,-871,-841
-141,-236,-239,-152,-206,116,236,267,-557,-368
880,729,684,666,539,609,-486,-79,802,757
1181,976,904,908,793,322,-956,-216,1212,1144
652,462,345,381,266,-202,-780,-627,339,610
300,76,7,-41,-120,-298,-359,-62,149,249
16,-239,-218,-348,-389,-375,-488,522,-168,3
22,-29,-9,-235,-173,-66,-348,-405,-514,-186
516,536,481,91,360,475,349,-371,14,84
589,620,536,112,266,423,352,430,460,215
117,410,494,271,-62,56,-469,189,336,19
-548,-51,198,166,-238,-213,-328,-273,46,-366
-899,-534,-279,-253,-375,-138,558,732,196,-584
-1103,-845,-619,-255,-106,-124,788,927,23,-742
-905,-689,-615,-333,-168,-264,1353,1031,-21,-569
-682,-371,-361,-333,-281,-211,2284,625,-291,-584
-494,-100,-4,143,181,146,1937,-1142,-814,-668
-3,172,269,494,556,588,269,-1314,-370,-222
473,478,507,605,752,597,-1026,6,445,253
418,402,358,290,547,105,-1019,561,412,189
207,167,71,19,65,-38,-1537,603,202,84
20,-62,-86,254,93,-89,-1357,73,110,-119
78,-14,43,392,123,-85,-820,-171,202,-129
149,62,70,175,55,-59,46,331,157,-45
275,80,52,139,156,30,205,360,-24,20
359,158,121,223,227,136,-247,77,7,102
104,65,88,42,-1,151,-402,-132,257,-2
-15,-48,-71,-159,-135,309,-54,69,265,13
7,50,-31,-34,56,625,282,70,86,-13
-170,-50,-81,-89,-12,697,416,-350,-137,-228
-325,-228,-208,-368,-256,430,366,-1496,-509,-459
-458,-491,-506,-776,-694,-324,-102,-2133,-1068,-724
-698,-725,-822,-1023,-1056,-1053,-636,-302,-1275,-968
-418,-301,-417,-314,-425,-810,-487,262,-967,-683
427,571,451,679,490,-48,-100,209,16,225
180,166,34,226,25,-550,-545,1658,704,153
-292,-350,-374,-311,-445,-757,-42,983,608,-302
56,-35,-46,-8,-45,-82,670,-179,578,20
382,216,132,230,231,230,1,237,646,405
257,80,-9,52,24,-105,-983,213,359,211
100,6,-11,-39,-18,-284,-784,-230,-159,-185
156,-3,19,-79,94,-13,104,-103,-204,-198
277,78,114,15,76,237,334,190,63,-24
207,68,85,74,-16,51,-195,-96,48,-116
93,52,78,75,74,158,420,-499,-148,-193
-19,188,247,190,276,538,1470,-495,-272,-150
201,524,550,459,494,560,488,-533,22,124
274,494,443,276,166,41,-1144,365,454,260
83,118,61,-168,-373,-269,-889,1212,631,255
-1,-15,-121,-354,-547,-348,-366,882,402,56
-60,-31,-125,-196,-99,-254,-171,651,167,-187
-6,-31,-9,55,308,-89,136,186,-43,-254
-3,-29,-6,-3,-9,-20,314,-745,-71,-232
129,98,115,52,-158,24,48,-217,-9,-117
185,0,39,98,41,-65,-243,1300,183,-7
163,-2,48,243,372,-24,-57,48,27,-106
129,157,183,276,358,-79,-36,-1290,-186,-186
-123,-38,-27,-12,21,-212,-99,-2175,-284,-224
-230,-195,-215,-243,-165,-229,133,-148,-234,-287
-252,-277,-329,-384,-280,-59,1780,2263,-232,-374
-385,-408,-361,-422,-359,220,3117,-1000,-741,-466
-317,-269,-175,-307,-460,305,2299,-1829,-781,-388
-270,-11,89,-184,-393,330,-268,16,-48,-183
-138,105,211,-170,-448,412,-2067,1177,745,70
-68,65,169,8,-349,358,-1754,499,739,126
-245,-36,89,373,430,247,-919,465,181,-137
-583,-335,-281,-30,345,-177,-151,155,-460,-573
-459,-300,-345,-211,186,-341,374,-2111,-1072,-561
154,120,34,137,553,94,1091,-2999,-1113,-127
500,277,220,250,507,149,938,1840,-321,237
-103,-297,-313,-364,-392,-616,-99,3598,-234,-211
-402,-385,-314,-266,-347,-494,209,-387,5,-402
-16,-89,-16,84,56,30,429,-1387,827,103
474,160,172,179,127,-53,-907,460,1003,656
877,444,345,294,199,-225,-1661,839,840,847
756,454,322,306,284,-112,-921,-64,314,524
345,194,160,197,231,-16,-562,-102,144,204
87,158,154,164,168,1,-462,-6,217,-24
-104,274,262,203,160,57,-188,46,168,-299
-288,151,216,183,143,116,53,116,120,-386
-133,41,129,138,138,144,388,226,160,-179
86,22,126,169,276,342,888,289,100,-140
114,35,76,175,390,554,822,251,19,-163
128,53,43,103,295,575,280,-97,168,49
184,147,123,19,108,462,-264,-566,71,186
294,150,46,-144,-188,209,-570,221,-223,119
356,38,-104,-183,-380,18,-575,576,-270,10
449,-71,-204,-50,-219,-70,-633,-316,-145,-86
755,136,-47,9,-139,-521,-860,-472,70,88
783,295,73,-53,-273,-798,-590,-212,98,156
402,154,-22,-254,-583,-531,-187,51,-42,-2
253,105,-68,-389,-761,-280,-42,142,-181,-80
23,-88,-233,-510,-764,-156,-101,-93,-325,-237
-546,-546,-538,-815,-809,-338,-395,-441,-423,-623
-892,-708,-591,-812,-507,-453,-291,-260,-284,-691
-973,-415,-195,-11,371,143,478,621,-107,-461
-733,35,299,990,1432,508,763,902,184,-249
-391,153,345,875,760,116,93,-636,218,-213
-279,90,202,345,83,-97,830,-1527,107,-200
-656,-304,-242,-218,-319,-310,2335,-545,-348,-577
-943,-581,-559,-482,-452,-242,2365,55,-764,-935
-377,-136,-34,-122,5,453,854,-628,-439,-428
425,384,486,212,371,837,-1388,474,530,431
530,347,405,112,128,513,-1276,1051,738,641
329,294,336,389,501,188,-474,387,481,433
214,187,190,577,831,-213,-702,404,513,348
-205,-310,-321,-113,90,-445,-78,817,213,-102
-553,-526,-517,-420,-302,-447,687,-696,-354,-603
-365,-108,-51,97,-102,-41,559,-846,-345,-485
-265,30,108,209,-55,72,-272,354,-274,-399
-18,84,140,69,17,300,-29,-1049,-483,-279
189,157,226,-14,43,781,1214,-1750,-701,-77
-44,18,35,-215,-312,814,1057,421,-682,-182
-390,-205,-282,-172,-359,322,-219,56,-298,-450
-308,-244,-274,-12,-52,-223,-1134,-230,556,-204
-72,-114,-94,-47,110,-553,-1268,1165,688,43
55,66,30,-4,-33,-645,-1040,1430,576,26
-14,-34,-154,-215,-411,-591,-319,958,116,-200
-166,-340,-395,-393,-464,-427,480,460,-227,-341
-429,-566,-552,-530,-367,-288,309,-216,-258,-468
-488,-473,-452,-492,-273,-161,-445,-777,-135,-397
204,325,305,187,219,463,217,-613,157,162
741,723,554,683,634,540,663,532,689,650
855,572,354,584,503,64,-583,757,790,657
888,341,207,362,333,-152,-890,257,442,429
822,246,139,188,140,-59,-415,41,171,242
616,279,210,154,83,12,-227,-39,79,161
340,288,291,147,9,-20,-228,-57,55,107
81,179,218,50,-113,-15,-110,62,31,-9
-44,186,188,40,-180,-5,-74,112,24,-80
25,296,222,105,-173,-3,-187,-29,70,51
73,140,116,29,-124,55,-55,-52,65,106
23,-147,-150,25,126,87,120,-36,-47,-64
-8,-173,-138,110,319,48,66,-104,-126,-103
58,-115,-81,3,275,79,65,-84,-94,-116
79,-21,-96,-260,-15,119,267,173,12,-126
-186,-159,-224,-501,-364,49,411,516,161,-185
-327,-77,-29,-340,-454,4,497,533,-53,-251
-300,-20,24,-311,-431,-147,971,-29,-498,-417
-539,-446,-420,-690,-837,-80,1369,-278,-679,-694
-778,-806,-701,-602,-825,313,1469,-458,-704,-855
-288,-283,-222,177,160,599,688,-1655,-367,-301
228,328,454,775,906,658,-125,-235,232,282
-229,24,150,434,856,22,-610,1699,-21,-213
-146,46,111,156,525,-436,-1387,661,165,-214
218,263,336,322,365,-432,-934,-398,449,233
147,232,316,382,189,-289,-402,-503,171,213
11,161,212,242,-34,-188,-148,-61,156,110
-26,27,93,101,-22,-57,-32,139,230,64
9,32,85,153,116,52,-136,-14,189,66
22,76,85,104,98,54,-332,-225,43,72
81,142,60,35,65,81,-360,-542,-55,80
36,115,45,32,90,113,-266,-964,-55,35
-105,-52,-89,-109,-37,71,-52,-1086,-83,-69
-267,-263,-314,-305,-257,-39,230,882,-75,-219
-432,-408,-491,-428,-396,-199,519,1730,-207,-439
-452,-402,-473,-434,-379,-216,747,-838,-497,-589
-142,-87,-89,-172,-135,83,594,-2312,-628,-390
130,142,140,-60,-87,355,-189,-1122,-500,-139
570,413,327,50,-182,208,-248,608,148,386
616,266,110,-65,-206,-102,19,1863,307,519
554,131,95,188,331,-49,-155,327,98,459
437,14,-55,72,150,-101,-312,-284,490,481
234,-92,-220,-194,-233,-45,357,697,438,308
154,113,134,64,-3,-79,737,724,-139,93
-190,-121,-42,-1,65,-402,220,349,-315,-192
-489,-461,-379,-239,-172,-382,496,-1,-107,-311
-498,-250,-228,-116,-49,-142,130,-1,276,-304
-43,282,257,282,301,270,-910,687,667,74
413,527,502,486,451,443,-750,408,381,317
343,400,335,348,311,303,-89,44,39,226
61,170,14,76,44,68,178,104,-43,17
-42,31,-40,-59,-107,-170,-3,116,93,-53
24,138,147,142,60,-134,-137,49,295,-31
-185,-24,34,109,59,-13,-189,-157,-13,-229
-663,-444,-340,-314,-324,-182,-545,-678,-507,-637
-742,-528,-410,-487,-372,-181,-534,-899,-616,-802
-253,-152,-127,-198,19,150,80,-624,-311,-480
545,452,295,292,268,274,434,473,330,202
644,343,183,193,-4,-158,-235,859,530,362
370,61,-43,-119,-251,-253,336,-33,204,139
9,-39,-103,-390,-485,-239,2213,-529,-299,-243
-51,-36,-119,-593,-705,-181,2623,-389,-522,-330
-86,-77,-48,-572,-617,207,1077,-842,-464,-249
355,219,355,107,119,720,-1666,-194,309,454
412,207,240,244,128,283,-2336,1566,579,621
-78,-93,-127,221,59,-314,-1400,1029,-4,-54
-46,-16,43,615,675,-235,-827,24,-80,-127
-169,-34,48,528,771,-162,-474,-539,-241,-80
-146,66,83,249,321,-84,-181,-1240,-359,27
11,200,239,285,307,126,-140,-80,133,180
-155,-82,-31,-2,10,-82,-131,1305,331,-89
-312,-198,-123,-104,-58,-66,140,-459,-35,-212
-166,-8,90,110,151,108,-37,-651,16,62
-232,-86,32,57,62,-55,-564,460,257,105
-170,-17,47,47,41,-82,-361,332,179,75
-20,61,77,37,26,-46,-128,128,112,125
24,36,53,27,17,-13,-58,91,84,111
77,12,26,14,26,43,15,47,29,83
229,2,-109,-46,-11,50,73,31,28,172
270,118,-118,-17,-16,45,47,-4,-52,124
237,124,-47,-14,-9,20,28,-136,-107,62
132,-5,-81,-79,-60,-13,128,-1015,-342,-44
119,-17,-80,-56,-28,45,387,-1556,-639,-139
52,-64,-91,-56,-26,45,637,1384,-408,-127
-287,-292,-322,-286,-289,-89,962,2246,-233,-292
-289,-63,-112,-84,-183,160,1679,-821,235,-243
-2,185,197,164,14,400,1736,-2221,297,-61
277,268,275,188,-28,486,544,-1490,-190,6
320,164,177,-17,-425,242,-1240,713,-101,35
0,-213,-196,-622,-969,-167,-1196,1016,44,-118
-4,-175,-280,-981,-875,-5,-191,422,149,-71
217,223,67,-769,-324,289,42,970,318,90
-132,-106,-226,-774,-360,223,708,1689,304,-40
-853,-799,-682,36,674,129,1657,1085,-274,-649
-913,-676,-558,710,991,125,1267,208,-645,-857
-377,-96,-140,421,260,231,150,-550,-87,-291
-194,60,94,281,83,148,-630,-1360,145,15
-257,-45,69,161,20,-1,-671,-1580,-267,-111
-165,-41,34,82,39,-329,-1025,-501,-172,-72
62,73,131,174,209,-509,-711,375,234,115
332,249,318,319,245,-538,-699,474,642,379
390,320,364,328,196,-496,-854,165,566,438
168,141,155,160,78,-310,109,-5,217,197
-263,-229,-231,-153,-161,-308,1891,-547,-478,-271
-357,-363,-318,-319,-284,-293,2368,-1059,-903,-370
-200,-233,-206,-215,-122,0,964,-1361,-956,-261
-9,-23,-82,-13,53,120,-1882,-897,-516,-32
179,118,12,21,-21,-220,-2595,636,402,255
157,73,45,-57,-115,-288,-1224,1861,772,290
314,236,198,121,134,48,-197,965,637,374
475,443,434,339,305,185,-349,-554,376,448
257,256,249,103,-68,50,-395,128,201,257
32,73,46,-236,-516,-25,-123,151,-53,22
396,442,408,114,-187,275,139,-587,-143,289
293,310,270,175,46,118,26,423,-111,282
62,34,-76,43,197,-151,77,-409,-3,105
242,89,-38,-11,134,-62,-124,-69,358,306
145,-152,-192,-69,11,-132,-486,1251,365,145
11,-290,-213,141,252,-94,-344,-157,-41,-128
166,-72,40,224,233,2,-1,-882,-279,10
276,176,245,271,192,32,195,151,-323,108
171,48,93,77,59,19,307,806,-388,-181
92,-230,-115,-157,-24,0,144,-209,6,-173
233,-53,28,-114,46,100,-228,-62,632,53
413,360,285,26,-21,214,-330,217,509,170
167,291,241,181,31,213,-203,130,168,-28
-99,103,119,216,87,156,-179,-18,0,-174
-152,83,35,31,-16,100,-145,-43,-33,-177
-181,57,-20,-96,-85,37,-62,2,-23,-149
-72,105,8,-97,-7,53,17,71,5,-67
-94,126,-23,-95,-8,75,62,111,52,-1
-140,98,-96,-3,-4,40,92,70,-17,23
2,78,-41,95,56,-1,176,-198,-208,-30
117,-67,-66,17,109,88,517,-454,-239,-53
-81,-272,-203,-106,89,92,863,-267,-258,-276
-46,-169,-104,-112,-50,45,1122,-113,-170,-336
286,51,83,12,73,160,835,-109,47,-26
398,79,106,34,28,121,-439,207,264,162
180,-71,0,38,-59,-135,-1143,650,335,56
-189,-234,-192,-105,-229,-256,-529,600,127,-134
-354,-150,-178,-207,-318,-179,-109,229,18,-181
-325,-98,-68,-62,-93,-29,-53,179,79,-133
-216,-123,-16,194,365,89,-78,100,31,-109
-123,-143,-71,119,397,45,34,70,-172,-185
54,-102,-104,-125,-3,-20,95,242,-188,-85
-32,-104,-113,-115,-75,12,216,-231,-280,-123
-256,-261,-232,-110,-190,-50,511,-1292,-461,-276
-200,-166,-192,-150,-238,-65,896,-1661,-477,-302
-68,23,-22,-61,-88,0,863,320,-105,-175
-12,0,-37,-30,2,96,102,2043,539,206
40,138,107,141,223,211,-506,1179,635,377
-193,128,120,132,176,52,-497,14,173,-46
-370,-56,-63,-77,-69,-109,199,-589,-139,-329
-457,-373,-383,-423,-418,-316,1020,-836,-457,-555
-282,-298,-324,-425,-425,-310,841,-382,-427,-496
110,63,53,-99,-188,124,256,50,-58,-58
513,402,405,181,13,381,-182,-30,183,325
535,414,375,74,-57,264,117,-31,118,275
295,213,199,31,74,425,123,-139,43,148
-17,-114,-114,66,114,242,-427,-228,-55,-54
-546,-569,-454,-31,-76,-393,-452,-1146,-660,-536
-814,-687,-492,-252,-446,-583,-651,-2382,-975,-715
-743,-591,-471,-519,-724,-276,-490,-1021,-516,-553
-195,-171,-140,-406,-366,178,-11,2139,374,90
655,529,434,142,519,517,298,1908,868,800
873,714,601,628,946,370,-138,1093,860,972
373,331,321,683,743,-39,-556,841,439,486
182,111,63,211,91,-114,-272,24,244,300
100,1,-47,17,73,272,28,-1127,-94,69
47,102,82,154,228,521,-174,-68,-237,-207
-47,33,20,21,17,547,-412,1328,-152,-410
-54,-2,59,77,174,592,-253,75,-45,-315
6,89,186,185,284,54,-389,-1060,-171,-202
-116,105,113,-10,-95,-630,-477,-1391,-518,-322
-136,-67,-74,-183,-301,-842,-295,9,-452,-182
-105,-178,-160,-143,-153,-780,-181,793,-410,-126
-141,-276,-271,-256,-122,-574,-118,-665,162,-39
66,-45,-30,-53,184,-148,-54,-583,923,200
49,41,25,41,77,-33,-19,776,601,127
-130,-76,-94,-32,-194,-108,80,963,271,-41
-18,32,17,34,-89,-105,134,442,344,38
63,84,72,81,34,-159,8,-178,164,32
35,10,18,55,66,-95,169,-432,20,-44
66,-4,52,134,190,190,379,-319,58,4
235,258,307,346,394,386,290,-408,58,140
156,215,255,167,197,236,267,161,116,75
202,96,67,-260,-361,20,254,865,274,125
281,60,-50,-595,-847,-73,1011,922,270,81
103,-206,-234,-527,-570,55,2062,358,-60,-81
-149,-255,-359,-345,-133,37,2170,-787,-452,-307
-515,-207,-231,35,159,18,886,-885,-554,-726
-1058,-774,-677,-327,-205,-133,-242,407,-542,-1136
-1079,-903,-775,-500,-383,19,-667,-54,-487,-1054
-17,149,298,499,601,722,-502,-817,14,-56
470,564,532,684,692,464,-550,-598,297,481
368,462,348,462,387,-196,-1398,442,483,464
321,388,327,377,264,-400,-1026,653,352,341
321,307,140,271,208,-194,-396,281,220,330
253,207,4,121,129,-47,-306,143,157,277
277,158,23,0,56,-57,-353,66,75,207
198,56,14,-19,23,-123,-417,5,3,148
53,45,5,-5,10,-122,-361,-120,-89,71
-62,22,-13,-63,-33,-133,297,-475,-164,47
-25,6,-52,-166,-118,-162,1048,-896,-256,34
-15,-20,-37,-208,-194,-70,936,-508,-383,-55
-81,-41,-34,-215,-241,27,-170,434,-191,-34
284,106,90,-150,-215,5,-1082,1061,178,323
584,21,-12,-228,-342,-191,-898,892,146,362
652,158,44,-151,-322,-50,-376,189,165,303
421,224,124,-149,-274,91,-22,-203,126,218
-397,-351,-319,-277,-208,-140,-85,-1354,-695,-354
-972,-659,-496,-209,8,-303,-262,-1583,-1558,-910
-746,-444,-274,-57,139,-12,193,578,-1378,-717
-234,-192,-155,-37,42,334,947,1220,-353,-290
479,132,143,143,96,179,543,665,1201,271
715,370,414,320,322,125,-445,368,1364,535
299,167,233,195,420,52,-500,375,676,214
134,71,130,166,261,31,-285,-104,246,51
138,76,116,241,201,-7,-255,-295,89,52
3,-17,70,141,68,-7,-242,-35,221,78
-133,56,182,261,276,84,-183,-87,158,28
-292,130,220,246,204,18,-67,-72,66,-109
-368,-42,109,91,20,-9,26,-55,51,-116
-267,-94,60,-10,-68,5,49,10,158,55
-257,1,72,-81,-73,28,96,75,177,88
-220,-5,52,-111,-27,15,27,36,103,65
2,50,83,-187,-173,-4,-6,30,116,178
234,193,167,-320,-346,30,85,114,202,290
290,153,41,-309,-107,166,125,87,133,257
160,-32,-65,-39,-9,220,67,-35,-17,131
22,-87,17,608,440,-9,-184,-236,-192,-20
-53,-42,86,501,238,-97,-175,-192,-172,-67
-127,-55,-48,-44,-112,23,236,17,4,-28
-115,-84,-202,-308,-70,190,736,-3,42,22
-361,-255,-248,-181,5,259,994,-162,-463,-313
-1003,-828,-685,-487,-409,-262,1243,-556,-1042,-997
-1283,-1168,-1039,-885,-910,-870,1610,-1639,-1197,-1329
-559,-532,-519,-476,-532,-277,1747,-1406,-610,-730
440,463,426,382,286,402,-413,1316,369,272
761,671,636,604,459,244,-2433,1727,951,723
554,396,410,492,419,249,-1365,427,881,631
275,178,209,296,351,467,-480,31,482,398
16,43,101,166,300,497,-126,51,157,123
-43,19,103,144,358,404,105,-126,24,10
5,-6,50,12,123,175,202,203,136,77
-57,-100,-158,-360,-179,-72,413,587,55,-57
61,25,-105,-375,-115,-85,927,-485,-188,-154
420,384,207,53,-49,80,862,-1782,-230,141
169,246,181,322,-51,-291,323,-739,-381,30
-520,-332,-367,-374,-900,-764,536,1182,-578,-458
-476,-288,-320,-555,-930,-202,1415,71,-507,-359
-97,-48,-55,-123,-259,222,336,-186,-6,187
-51,-72,-50,92,234,-121,-1327,-1007,-221,205
69,44,10,-129,-105,-408,-1435,-1915,-564,87
-60,-95,-213,-550,-640,-438,-565,1999,-555,-153
-591,-446,-451,-343,-154,-207,269,2364,-788,-645
-272,-52,51,604,887,270,348,-318,213,-209
386,438,495,822,882,105,-710,119,1306,488
495,407,418,494,316,-224,-884,736,1309,598
417,248,259,271,97,-137,-477,528,634,305
397,128,123,122,12,144,-333,-104,217,221
239,-16,-41,-27,-88,443,-275,-180,170,225
242,146,84,130,105,644,-364,-120,182,154
286,223,174,187,222,442,-277,-42,136,144
134,102,66,25,213,119,-29,107,62,86
59,91,-4,-48,22,-115,110,9,53,79
97,272,112,44,17,-192,108,-213,39,120
115,279,176,-221,-146,-153,493,-319,-79,125
-276,-211,-358,-928,-496,-215,1304,-236,-257,-200
-469,-474,-666,-1097,-792,-213,1218,157,-237,-368
-549,-561,-571,-280,-289,-78,104,581,-419,-561
0,-102,96,848,823,76,-1012,-406,-408,-220
754,571,732,1001,694,18,-428,-989,-1,455
16,-134,-51,-43,-184,-303,797,-222,-27,-97
-695,-759,-690,-618,-479,-49,1981,-1674,-490,-731
-287,-273,-205,-83,48,278,1277,-936,-478,-380
-218,-169,-129,-92,-22,-120,136,839,-427,-340
-337,-244,-241,-261,-188,-248,-1144,-924,-660,-525
-160,-125,-138,-138,-184,-278,-1703,-508,-106,-249
230,188,172,231,196,-61,-772,629,566,277
626,596,573,642,550,193,-776,1278,1010,712
591,457,366,476,395,34,-1219,848,844,685
431,201,166,208,168,-19,-793,201,344,421
378,133,143,81,57,20,-484,286,185,383
340,199,97,19,90,91,-267,520,258,437
343,403,203,50,111,123,-160,338,230,445
160,304,241,78,57,148,-77,34,71,249
72,106,73,-48,-169,-3,70,-668,-292,-24
214,87,-25,-315,-534,-206,77,-545,-174,25
178,15,-105,-364,-287,-267,-12,1198,224,43
-382,-279,-310,-286,-104,-283,0,531,-283,-545
-528,-299,-253,-94,-86,-242,-57,-1112,-777,-654
-461,-287,-206,-132,-6,-75,326,-1274,-730,-435
-568,-284,-153,-168,56,247,1123,294,-120,-181
-746,-425,-272,-232,-152,122,545,2456,70,-224
-378,-312,-186,-48,-136,-77,-487,1273,58,-203
198,232,300,376,265,322,222,-354,289,137
389,554,614,640,555,547,653,-849,318,339
214,311,356,312,170,93,-87,-430,566,256
203,103,121,63,-39,-18,-210,-670,339,244
96,94,124,60,12,126,855,-1105,-103,22
-139,-80,-54,-143,-189,35,2179,-1394,-500,-311
-168,-203,-214,-335,-377,-93,2042,-1113,-449,-323
-39,-152,-157,-200,-167,0,-160,-63,-222,-206
44,-129,-104,-12,49,-100,-2580,1578,-47,-104
-130,-352,-290,-213,-219,-457,-2017,1821,-83,-177
-217,-401,-295,-336,-331,-262,-110,1066,72,-141
141,111,219,14,-74,447,1090,-34,186,161
823,722,693,211,-143,546,88,-643,401,667
861,696,531,-55,-444,-96,-1029,253,556,839
522,454,245,-220,-370,-364,-805,336,450,684
115,173,112,296,482,13,-127,-374,36,301
-408,-181,-55,629,992,45,-57,-522,-349,-307
-370,-128,-6,340,368,-22,-64,-441,-183,-259
16,148,197,206,107,27,265,306,303,183
0,91,83,-53,-46,41,1315,574,338,188
-193,-92,-91,-101,55,380,2274,132,81,-26
-127,22,35,106,285,1172,2231,-632,-273,-105
-237,-87,-87,-49,40,1310,613,-698,-485,-267
-525,-593,-618,-527,-617,309,-1059,-132,-492,-521
-599,-781,-800,-614,-779,-265,-1344,-438,-523,-649
-350,-465,-508,-397,-421,-74,-1825,-57,-218,-367
-178,-263,-276,-266,-23,-88,-1639,281,71,-132
130,184,195,65,251,7,-237,-1021,14,75
513,621,578,390,335,-240,45,-972,-67,375
77,82,53,23,-86,-1000,-524,2924,-285,73
-515,-453,-471,-426,-292,-932,-4,2470,-799,-548
-384,-232,-218,-276,32,-216,341,-1770,-387,-338
-57,-50,-17,-139,-45,-37,372,-2057,233,128
156,207,215,136,76,-20,1489,-155,-106,185
-47,-5,30,251,239,-281,1705,83,-291,-59
-43,-322,-367,-77,-143,-503,210,-771,298,128
273,-35,-117,157,13,-397,-1966,783,734,413
507,292,194,374,187,-385,-2217,2084,955,502
758,625,541,536,424,-12,-1052,415,764,643
411,456,370,327,246,74,-397,-495,288,382
105,178,103,22,-49,0,5,-488,58,124
-15,48,37,-128,-226,-63,560,82,16,-15
-27,-80,-74,-340,-327,-76,1141,281,-31,-92
338,165,78,-304,-257,124,869,-361,-75,59
551,372,303,197,264,188,-723,460,70,118
198,-43,-16,124,127,-179,-1239,1550,253,-109
-135,-166,-92,-27,-70,42,-438,-292,1,-290
35,303,279,357,424,417,-70,-1415,-193,-180
38,314,280,424,522,348,-96,-1061,-123,-83
-150,-72,23,287,411,142,-222,-826,-26,56
-122,-59,-81,210,154,-176,-396,-288,126,186
-107,170,62,229,90,-164,-292,576,191,90
-196,2,22,67,58,-9,-60,843,-3,-96
-341,-250,-153,-144,-137,-25,-35,216,-257,-256
-256,-246,-134,-118,-110,122,48,-363,-132,-180
-63,-145,-66,16,81,215,126,104,134,0
56,9,63,139,201,91,95,205,133,51
85,49,81,68,48,-98,49,-28,99,108
87,60,59,-3,-65,-108,0,-83,112,147
-47,5,50,-22,-108,-29,-11,-48,100,111
-73,-19,31,-53,-182,-54,-17,3,59,71
-77,-61,-29,-114,-231,-49,36,58,43,71
-122,-11,22,-65,-169,0,66,47,-21,37
-136,54,92,48,38,84,392,-107,-208,-56
-149,21,50,37,66,178,1636,-324,-305,-75
-205,1,16,13,111,249,2238,-466,-262,-118
-250,-46,-8,-39,86,303,1191,-694,-368,-153
-264,-98,-138,-135,-63,87,-541,-897,-435,-101
-416,-264,-369,-422,-503,-556,-985,-698,-726,-272
-331,-282,-367,-434,-566,-675,-283,1503,-574,-201
113,-55,-144,-130,-213,-170,164,2443,-153,155
703,236,204,206,170,215,-176,-100,528,658
975,267,240,274,278,112,-756,-629,1016,798
793,-9,-42,-12,4,-164,-513,232,255,350
529,-118,-170,-203,-192,-251,-489,-363,-128,18
450,72,-4,-41,-53,-29,-367,-470,180,52
369,112,58,52,43,37,-127,-149,167,42
359,105,143,159,188,-16,-129,-40,75,31
160,69,120,105,143,-68,-192,16,49,62
17,25,52,15,34,-41,-113,107,23,27
-345,-86,-34,-10,0,204,390,22,-112,-200
-949,-435,-293,-214,-223,355,1277,-245,-416,-604
-975,-516,-360,-307,-305,318,1342,-305,-484,-715
-576,-307,-205,-166,-37,229,447,-16,-118,-484
-51,112,145,126,249,261,-870,660,480,5
128,308,329,343,321,62,-1121,571,514,185
-64,75,157,346,232,-201,-538,109,180,-11
-52,25,65,193,17,-63,-10,58,63,-53
-58,-4,3,26,-123,103,393,87,-8,-57
-325,-249,-282,-341,-492,-14,319,-168,-279,-305
-438,-350,-393,-546,-725,-64,-279,-498,-439,-401
-87,-18,-25,-227,-245,270,-294,-391,-303,-148
283,332,328,104,294,563,685,222,50,162
636,565,527,356,353,295,431,437,567,549
440,266,251,405,388,-157,-725,167,482,431
139,-7,-7,265,350,-280,-743,-104,-69,82
165,-59,-118,-105,-87,-341,-295,-357,-239,-23
67,-248,-394,-586,-657,-599,-34,-233,-501,-297
-185,-463,-687,-1007,-967,-724,143,490,-857,-569
-317,-372,-437,-470,-151,-180,650,56,-752,-345
-340,-24,42,264,601,487,1454,259,173,53
-710,-264,-252,-199,-113,58,1342,1565,899,-32
-522,-9,50,92,-120,59,398,366,429,11
104,573,666,838,716,482,-724,-926,18,378
60,353,512,714,808,360,-897,-536,73,462
-418,-154,-10,195,272,-129,-632,-153,26,83
-65,-116,-68,39,50,-209,-466,-69,238,118
455,104,155,157,158,38,-96,-207,433,222
376,128,194,165,208,78,95,-402,165,149
156,50,174,84,165,0,51,-547,-70,93
-32,-85,23,-147,-196,-3,522,-112,-33,40
-76,-115,-67,-365,-384,-40,1048,299,3,-84
136,19,14,-417,-345,-42,933,-266,-31,8
185,104,121,-149,-352,-6,-247,-577,-178,26
21,-16,39,276,52,-252,-1255,595,-238,-128
30,-101,-131,76,71,82,-585,379,-343,-147
155,10,-147,-186,-141,829,538,301,35,70
-196,-309,-414,-390,-455,466,891,1509,221,-237
-555,-594,-537,-191,-129,68,935,-250,-274,-585
-330,-257,-208,130,132,156,357,-1065,-221,-352
138,224,80,326,384,66,-773,-465,-41,63
490,579,344,415,398,-285,-865,-421,-29,235
156,159,69,161,86,-494,-46,-880,-221,-95
-614,-678,-620,-438,-415,-739,-167,-986,-419,-538
-451,-506,-405,-280,-206,-465,-469,-748,-229,-272
-26,-14,-27,89,133,-114,453,196,78,71
34,5,58,70,53,-166,1105,444,100,78
29,-114,-37,-81,-145,-413,179,275,4,-26
243,81,120,57,-39,-300,-891,607,215,104
708,491,427,421,337,124,-1832,1003,645,575
823,561,420,396,310,86,-1412,736,638,654
659,386,227,145,84,-15,-479,427,384,439
512,244,26,3,-92,-46,34,298,225,274
195,130,-16,-38,-265,-33,121,-150,-41,75
-147,42,40,-114,-347,78,48,-312,-322,-21
-270,-22,-5,-209,-314,374,45,769,-308,18
-182,-31,5,7,40,588,-96,953,-283,-48
-61,23,125,206,554,575,-273,-532,140,-2
-36,126,212,17,420,382,-62,-792,639,128
-88,127,143,-296,-222,32,208,376,359,88
-129,21,3,-259,-312,-313,112,852,3,-78
-67,-42,87,298,189,-295,-65,-267,73,-53
-397,-394,-223,116,136,-183,181,458,-112,-362
-844,-768,-637,-533,-423,-179,965,658,-607,-689
-356,-113,18,-37,-49,63,1372,-71,-554,-229
-469,-133,-8,-73,-78,-148,825,108,-651,-442
-759,-525,-486,-508,-300,-369,-123,-86,-191,-681
-172,-118,-187,-194,-8,-136,-678,-308,592,-136
-81,-108,-148,-106,-103,-238,-715,165,316,2
-69,-69,-79,-43,-79,-292,-664,-255,-320,-52
236,264,226,206,230,52,222,-1484,-352,109
557,512,453,396,280,342,1385,-737,148,429
585,497,427,406,198,244,1099,-58,394,515
510,386,367,421,294,211,211,-349,128,296
391,318,293,274,235,137,-989,55,81,127
222,170,136,75,66,-200,-1449,620,455,138
132,178,108,107,58,-262,-946,229,561,169
173,235,157,77,-10,-74,-420,44,257,86
219,143,110,-150,-217,16,-119,99,142,61
170,-1,-21,-199,-175,58,73,-277,37,140
45,-75,-49,11,177,144,249,-823,-214,121
-178,-117,-71,-64,22,162,646,257,-367,-148
-829,-563,-472,-443,-364,-129,1409,16,-927,-952
-1005,-839,-760,-676,-644,-294,1906,-1606,-1013,-1213
-450,-499,-442,-402,-410,6,1852,-1278,-374,-605
328,138,178,293,362,450,-11,102,232,55
896,517,442,601,640,298,-2208,1380,894,673
728,380,301,431,403,24,-1902,1098,778,652
434,346,262,423,374,0,-892,434,308,338
173,158,190,262,133,16,-420,339,158,197
-76,-30,68,78,-29,62,-86,321,148,161
-144,-101,-60,-81,-91,110,499,135,81,170
-78,-22,-70,-168,-166,178,628,-412,-193,107
113,214,181,-115,-35,267,441,-1106,-274,257
112,213,129,-457,-68,118,343,919,271,422
-419,-274,-351,-935,-534,-302,201,2846,340,-92
-509,-363,-377,-314,-264,-215,-288,199,-109,-412
-109,2,-7,673,389,-72,-826,-1970,-227,-213
78,97,190,675,285,-63,-673,-1704,-128,40
259,118,156,215,-60,-30,-283,212,-65,8
204,56,60,-14,-154,34,-141,806,-97,-228
109,67,100,-7,-21,374,-43,80,139,-153
15,128,158,64,23,606,26,301,197,-48
-91,180,248,240,209,478,-165,378,24,-74
-32,260,358,407,480,133,-487,-496,-84,-19
-180,-67,-25,7,-5,-174,169,-385,-140,-106
-514,-496,-617,-610,-786,-644,1085,1091,-200,-411
-612,-582,-685,-710,-836,-731,1141,1035,-36,-490
-369,-357,-343,-194,-18,-101,682,90,-275,-285
-234,-300,-257,-100,70,-148,563,-502,-766,-355
-186,-184,-164,-148,-147,-269,648,-1327,-825,-465
12,55,105,35,50,129,196,-1691,-423,-256
289,266,326,209,360,333,-819,-212,232,231
183,114,132,-20,45,-258,-954,1129,651,290
25,-92,-77,-36,-30,-509,305,334,421,124
292,106,149,180,35,-185,1153,-141,175,78
738,509,501,287,-16,241,142,-108,395,319
700,483,440,206,-39,438,-1343,271,603,554
239,151,137,-10,-67,519,-488,86,366,332
-256,-53,-26,-63,37,443,268,-1789,-501,-156
-406,-180,-106,-4,199,440,210,-1763,-975,-356
-454,-263,-201,31,66,219,-60,2087,-553,-405
-777,-708,-659,-485,-579,-569,-351,1702,-479,-717
-936,-917,-878,-735,-740,-984,-542,-1352,-403,-959
-523,-476,-406,-299,-82,-531,-288,-1445,-199,-562
76,45,132,198,446,66,147,94,346,150
682,549,582,554,638,228,-137,913,969,722
858,645,586,496,462,17,-814,623,934,874
690,468,416,367,307,-5,-794,253,518,775
376,263,273,189,112,-11,-461,93,82,510
264,202,120,-37,-148,-8,-236,60,-85,398
128,54,-91,-264,-406,-104,-116,221,-36,292
-35,-86,-85,-86,-107,-123,-168,131,128,140
114,77,61,109,214,-23,-169,11,332,159
368,301,181,-78,-14,-3,-21,127,287,218
429,353,199,48,163,77,81,149,102,47
304,251,165,469,604,79,17,-2,-89,-197
43,27,-13,435,550,-20,41,-106,-154,-312
-109,-119,-204,87,177,161,280,-316,-113,-163
-254,-224,-261,-114,50,406,471,-487,-314,-220
-324,-264,-219,-113,72,369,414,416,-450,-321
-267,-144,-76,-30,116,95,119,692,-452,-263
-137,-24,33,21,149,-135,-48,-478,-53,-131
-115,-103,-58,-76,11,-194,412,-21,440,-115
-117,-81,-44,-126,-111,282,972,-223,153,-153
109,199,274,200,177,791,500,-753,-115,15
-44,15,114,106,-5,373,-405,212,-68,-38
-157,-158,-101,-135,-271,-236,-468,484,111,-72
-278,-276,-245,-293,-421,-679,-278,572,47,-127
-282,-321,-341,-437,-570,-775,-246,434,-40,-115
-74,-51,-154,-235,-412,-432,-40,119,3,31
147,234,101,107,33,-18,149,306,120,152
234,299,216,165,361,154,231,-423,-37,113
198,175,135,11,323,136,-60,-667,41,264
58,12,17,-85,-73,-43,-275,-27,190,289
-70,-89,-46,5,-230,-139,198,56,44,43
-3,-126,-107,132,7,-226,692,-187,-226,-205
155,-137,-288,-85,105,-106,1057,-381,-280,-269
351,28,-127,-142,236,333,790,-377,-32,10
207,67,33,-90,-65,339,-104,843,79,101
-177,40,125,78,-187,160,-256,252,-50,-56
-253,66,184,166,-3,16,-419,165,281,106
-154,-22,70,80,9,-66,-252,731,275,217
-82,-9,41,10,-17,-25,577,287,28,165
-9,92,114,-12,53,205,965,-602,-155,13
36,187,220,-57,-98,325,526,-1027,-237,-46
-13,114,85,-246,-448,27,-863,-246,75,119
3,22,1,-136,-246,-323,-1589,571,337,253
138,-36,-12,68,94,-332,-1119,204,174,174
257,-6,10,308,376,-208,-648,-124,-54,-59
403,-45,-22,263,182,-181,-339,-51,32,-3
464,25,26,107,-14,-66,-142,22,89,117
277,52,47,30,16,50,36,169,28,-33
-26,-87,-87,-137,20,52,190,207,-208,-308
-443,-451,-429,-468,-339,-202,213,-771,-728,-607
-729,-626,-569,-482,-504,-312,995,-2336,-1153,-749
-841,-539,-389,-208,-275,-37,2115,-1426,-985,-701
-539,-226,-99,47,-3,224,1945,1276,-195,-298
-49,164,278,209,101,284,-406,1238,721,299
300,433,523,274,134,186,-1941,885,1073,581
224,204,286,54,0,114,-869,977,679,300
-15,35,45,-130,-210,50,-179,1347,333,-25
-176,-70,-120,-160,-268,-45,134,28,7,-313
-304,-331,-276,-210,-305,-37,505,-1632,-451,-481
-380,-428,-356,-191,-145,-245,504,-734,-711,-526
-302,-212,-211,-49,-67,-200,583,804,-303,-281
158,308,241,334,302,305,120,296,69,146
541,534,471,480,443,410,-441,305,329,420
427,309,260,279,218,316,-266,204,365,306
264,56,50,92,-97,219,-155,-511,257,244
144,-86,-113,-47,-113,123,-229,-194,-6,129
-38,-193,-279,-184,-73,96,-335,976,-78,-81
-67,-107,-249,-145,-28,118,-369,379,-53,-75
-42,-6,-184,-99,106,-42,-576,-675,-140,-18
-151,-132,-231,-291,-157,-478,-983,-1160,-476,-207
-112,-191,-209,-295,-197,-579,-646,-776,-758,-270
-3,-67,-77,-138,-23,-260,334,767,-290,-101
358,360,290,316,403,200,610,729,326,371
545,432,376,394,435,141,63,41,484,452
347,215,206,162,142,-163,-224,300,437,238
337,227,215,157,108,-146,-230,-52,169,202
393,287,218,122,101,10,19,-192,43,314
168,183,137,28,30,171,385,-64,-70,176
-128,-36,-46,-138,-190,96,419,-76,-118,-44
-354,-172,-135,-135,-204,41,265,-187,22,-143
-497,-246,-150,17,118,-9,644,-93,207,-133
-720,-398,-288,-61,168,-316,1340,-56,-176,-309
-797,-444,-351,-278,-136,-308,2297,-150,-542,-470
-621,-283,-285,-300,-149,126,2275,301,-593,-437
-403,-184,-114,-146,0,729,1321,-567,-617,-381
52,79,188,279,363,952,-703,-723,203,-56
389,349,419,514,572,554,-2061,942,812,279
280,225,277,270,280,117,-1827,754,552,318
66,0,63,31,56,-15,-1303,-196,270,191
53,5,36,-3,-49,-271,-991,-359,154,152
-34,23,69,14,-101,-451,-783,107,173,52
-64,-22,73,48,-23,-356,-589,187,90,22
-129,-56,30,51,33,-251,-417,86,25,34
-80,2,31,39,-28,-172,-303,-289,-11,101
43,127,92,69,-34,-90,-189,-714,-120,71
124,151,-17,-11,-106,-135,-80,-226,-219,84
148,123,-72,-62,-152,-250,61,-287,-286,107
201,180,71,72,38,-75,223,-364,-39,202
-35,-15,-100,-109,-49,-128,85,1700,60,-12
-134,-138,-237,-274,-87,-109,66,509,-78,-146
299,219,211,34,130,308,352,-1011,258,317
353,248,282,105,69,323,646,-601,270,226
87,18,93,48,26,208,690,-6,109,-44
-105,-192,-89,-72,21,-3,55,676,167,-31
-209,-259,-153,-298,-478,-160,-41,825,-112,-133
-334,-307,-228,-606,-1059,-261,224,-305,-822,-540
-234,-275,-255,-672,-1030,-212,392,-1328,-914,-546
-173,-372,-383,-380,-312,-26,239,-490,-289,-325
9,-225,-246,193,462,1,-139,1638,521,26
437,193,154,425,639,18,-745,1054,743,448
216,128,20,208,337,-357,-669,-437,220,214
-60,34,-69,28,-28,-404,206,-1150,-221,-74
181,228,185,296,260,12,659,-1431,-135,174
547,476,415,452,451,301,116,493,360,572
421,342,213,230,194,149,-493,1964,523,458
8,33,-124,127,48,32,-336,499,208,-7
-160,5,-83,132,28,78,-241,-315,207,-180
-88,166,175,118,33,94,-157,-265,162,-164
-58,25,13,-174,-269,-83,-93,-366,-95,-211
-213,-318,-422,-532,-558,-351,-351,-592,-405,-366
-123,-181,-345,-243,-198,-240,-379,-781,-517,-333
233,285,202,181,158,202,149,-437,-190,10
504,519,452,261,188,437,451,400,425,516
432,311,308,23,-242,324,-91,627,529,564
138,52,127,157,-21,475,-33,195,118,174
-165,-240,-107,262,196,320,133,500,-108,-152
-304,-404,-331,-135,-255,-70,5,1095,83,-94
-293,-214,-247,-229,-204,-58,-22,521,-62,-245
-337,-228,-260,-229,-80,-77,480,475,-73,-306
-183,-180,-120,-45,214,-27,1350,-343,-2,-62
-111,67,132,71,294,26,1318,-856,-310,-197
-179,-85,-31,-133,-136,-174,-114,-425,-296,-328
-27,-51,-19,-126,-267,-239,-522,-624,-189,-122
-17,-24,-26,-119,-237,-133,1274,-599,-463,-107
-232,-222,-240,-310,-285,33,2378,119,-784,-354
-324,-264,-233,-164,15,261,1592,-891,-696,-370
-256,-83,-10,114,383,384,-732,-1357,45,-149
-85,157,163,127,224,15,-2678,-591,273,38
-208,16,-43,-131,-237,-740,-2432,1274,68,-61
-236,-94,-67,-140,-246,-665,-944,2621,232,-85
99,267,341,356,311,64,105,883,694,288
326,437,458,520,503,278,-139,-269,946,506
185,279,315,373,490,367,-446,-165,658,372
34,7,81,170,383,340,-395,-27,246,140
208,-79,-17,74,229,84,-366,-10,79,7
407,3,19,47,77,-101,-421,-84,33,-2
404,57,61,56,3,-113,-455,-114,65,16
473,137,128,110,2,-83,-387,-41,144,91
394,99,106,109,1,-59,-182,-13,129,102
215,31,44,39,27,-110,-29,1,70,78
210,85,57,-20,-39,-213,29,213,140,187
176,152,95,-20,-126,-160,37,224,117,188
-70,169,139,92,16,1,61,32,-18,52
-215,158,124,47,-12,73,336,-56,-140,-15
-258,77,81,-117,-138,29,441,-692,-135,-7
-197,66,89,-59,29,64,372,-1240,-172,-9
-211,-49,-42,-190,-174,1,160,682,-186,-146
-328,-327,-271,-280,-342,-132,-40,1642,-311,-412
-333,-431,-327,-80,-164,-3,26,-671,-240,-423
-105,-326,-259,-179,-250,75,75,-705,100,-186
128,-91,-91,-104,-104,101,-38,-131,-41,-48
286,194,161,190,179,170,-300,-115,-9,136
300,269,204,72,-116,29,-405,77,194,350
-97,-88,-167,-367,-546,-302,-114,29,14,87
-431,-365,-367,-419,-462,-494,244,-441,-461,-365
-351,-186,-101,-43,32,-232,658,-603,-420,-274
-93,207,333,343,361,203,396,303,128,134
52,406,449,316,297,257,-378,828,447,340
-116,172,207,80,110,92,-420,300,229,189
-115,-42,67,176,273,14,-218,-47,21,37
-42,-6,72,185,172,-20,-128,-54,40,25
-109,32,74,182,190,10,-58,45,10,-90
-49,50,60,76,173,60,-5,174,-68,-198
74,46,24,-97,98,59,26,323,-102,-153
38,-165,-244,-362,-249,51,164,226,-23,-48
-19,-200,-227,-261,-322,69,286,-354,92,-22
18,-131,-127,-111,-194,8,239,-98,144,11
78,-101,-188,-261,-137,-109,191,546,0,-26
192,-37,-97,-14,377,162,756,15,-239,-89
359,50,-7,185,353,334,1610,363,-214,15
-161,-402,-501,-388,-306,-256,2187,-124,-409,-343
-658,-706,-816,-713,-460,-563,2011,-2051,-889,-846
-365,-419,-441,-455,-224,-259,1071,-918,-859,-622
351,220,257,234,237,457,57,631,-343,178
827,671,728,821,628,748,-1450,289,30,706
553,364,309,330,-5,181,-1597,-366,525,515
317,7,-56,-231,-416,-136,-1246,286,950,347
238,59,141,0,-13,9,-860,182,417,281
124,201,305,187,152,40,-699,-548,146,246
-198,94,191,271,227,-108,-634,-571,150,32
-365,-113,-22,116,13,-147,-450,700,-7,-121
-322,-204,-203,-278,-446,-260,-471,1731,-167,-227
34,-45,-97,-258,-366,-110,-280,524,12,84
400,152,154,-43,-81,51,-214,76,326,412
603,224,172,-11,-36,-56,-315,41,468,456
665,219,62,51,97,16,-120,-366,107,214
517,154,44,349,470,99,-197,-627,-317,-40
171,25,17,319,302,34,-160,-357,-233,-36
-298,-116,-138,-69,-96,-39,372,114,-32,-111
-648,-159,-180,-155,-155,-59,997,108,98,-321
-554,-60,-88,-25,-23,21,926,-568,198,-276
-373,-60,-18,-3,-39,-10,-59,-1211,-30,-122
-727,-466,-436,-399,-323,-403,-1003,22,-434,-468
-1001,-657,-684,-556,-470,-530,-770,657,-646,-725
-497,-140,-224,71,123,123,79,-589,-437,-278
119,368,259,449,378,421,526,100,311,298
247,205,175,135,-8,-79,33,894,572,363
266,107,88,5,-101,-172,-193,449,283,263
379,370,292,262,261,210,30,-12,133,196
241,323,296,292,523,567,375,-444,187,160
14,60,150,199,539,1023,546,-161,186,167
-293,-39,61,102,361,901,378,1095,66,-18
-477,-25,12,25,127,243,79,595,5,-234
-209,-64,-60,-33,-25,-163,-197,-203,5,-297
47,-145,-179,-134,-173,-406,-447,-379,-244,-323
147,-46,-125,-191,-250,-327,-406,-396,-299,-201
136,28,-12,-192,-212,-3,-143,-567,-190,-62
115,61,39,-154,-158,-83,-86,407,126,87
-55,-114,-245,-306,-346,-424,68,2131,419,36
-311,-377,-506,-444,-499,-482,356,537,48,-287
-427,-534,-495,-287,-262,-470,149,-1250,-428,-411
-313,-224,-129,-45,-76,-285,-23,-1327,-473,-289
-120,120,201,222,260,106,334,-681,-244,-52
189,412,435,448,623,213,341,500,220,334
207,389,436,313,475,-145,-465,419,401,436
208,301,324,133,-19,-187,-621,-165,335,414
103,160,178,86,-147,-133,-450,-247,98,217
154,155,154,15,-216,-169,-340,-92,72,187
255,169,113,3,-128,-95,-128,170,139,221
172,35,-17,48,6,19,9,203,114,87
126,-74,-102,112,178,119,63,191,34,-79
274,-86,-191,-18,-52,118,433,243,-23,-27
234,-136,-306,-455,-557,-39,1315,-69,-331,-159
161,-41,-173,-628,-422,2,1959,-874,-807,-289
250,78,-43,-481,-15,247,2151,-1751,-1043,-176
92,-100,-108,-39,252,153,909,-115,-704,-103
-150,-267,-156,349,275,-29,-334,1170,-343,-211
-349,-502,-415,-23,-205,-393,-1299,-759,-134,-288
-140,-246,-197,-49,-175,-330,-819,-2164,390,-44
42,-20,86,139,113,45,16,358,634,182
-142,-204,-33,13,29,65,-132,3183,467,88
51,47,202,198,212,137,-465,549,292,179
406,395,448,409,392,168,-930,-976,501,514
283,258,278,170,70,-91,-900,507,603,540
214,384,384,212,49,168,-455,564,472,475
130,370,366,229,126,518,-190,79,184,343
-117,127,128,110,209,384,-150,-56,-116,23
-369,-130,-78,91,277,68,-284,32,-254,-351
-285,-102,-59,58,101,-160,-375,15,18,-293
79,140,101,38,-19,-289,-323,24,473,91
180,113,26,-17,-32,-182,-59,-89,197,76
192,68,-17,-3,-21,-36,103,-198,-109,-40
134,59,44,40,-22,-10,35,339,-147,-135
0,-22,-50,-41,-129,-137,-16,410,-210,-264
111,-4,-65,-109,-224,-126,214,-253,-157,-191
162,4,-50,-124,-220,-38,317,-324,-60,-122
57,-33,3,-45,17,96,97,-16,69,-17
50,23,133,96,376,160,-218,124,171,142
7,73,144,72,203,76,-216,51,63,101
-90,-40,14,-38,-121,86,-96,-18,-53,-51
-291,-316,-230,-89,-202,-41,41,-176,-230,-253
-426,-424,-403,-314,-354,-470,138,-498,-476,-465
-375,-296,-328,-350,-278,-458,339,-535,-458,-440
-119,-52,-45,-80,-7,179,713,107,-50,-44
220,304,319,333,324,749,791,701,466,398
110,212,245,234,288,535,-113,391,515,340
-95,-38,-33,-72,10,201,-591,54,384,164
-84,-90,-78,-109,-54,119,-438,-74,90,24
54,-72,-35,21,208,-52,-385,-506,-94,31
196,-25,40,64,198,-254,-166,-787,-121,146
105,51,98,59,85,-305,-11,-170,-239,43
-22,8,40,-48,-58,-267,-34,427,-281,-10
-15,62,86,-51,-122,-67,-13,290,-28,29
-121,-7,-25,-125,-316,-51,9,784,192,-58
-71,-54,-84,-115,-312,-24,599,337,55,-109
267,113,96,97,47,59,1114,-214,-144,12
400,125,64,126,207,-68,678,-451,-236,20
302,82,-10,51,108,-73,254,-936,-365,-86
34,-125,-184,-126,-51,-140,1117,-1080,-522,-160
-140,-284,-376,-364,-347,-225,1265,-913,-434,-119
-80,-98,-220,-245,-275,-116,-378,-161,-110,37
348,316,220,206,211,121,-1612,911,392,423
453,443,416,410,423,213,-316,415,474,600
122,273,296,285,300,194,724,-280,270,452
-226,-23,42,48,72,139,448,-702,-154,138
-279,-84,-16,-36,-92,11,-661,-876,-541,8
-194,-238,-164,-233,-351,-379,-1282,2108,-434,-76
-590,-913,-817,-1010,-996,-736,-1141,4633,-335,-559
-518,-710,-688,-1070,-1138,-250,-478,150,-15,-496
54,22,-23,-352,-535,178,-122,-2362,272,-282
109,-118,-16,78,126,232,752,-1751,-281,-420
62,-198,2,480,723,420,1629,-414,-156,-30
251,204,319,587,851,615,867,-339,462,539
364,486,533,494,587,639,59,-387,779,651
-180,152,267,359,308,270,-196,750,500,149
-496,-63,45,341,243,132,-411,1269,274,-87
-302,18,74,267,-5,256,-347,958,49,-16
-170,-6,58,177,68,143,-426,303,6,17
25,34,120,209,172,-40,-616,-138,218,174
46,-11,43,101,126,-334,-478,-501,8,93
32,6,-18,1,11,-466,-326,-553,-121,85
53,86,-7,-46,-73,-310,-103,-159,-50,128
127,107,40,-14,-48,-125,-126,502,47,132
338,181,173,96,41,-157,-280,617,82,232
356,138,149,79,57,-165,-211,-400,-40,233
318,206,190,83,56,-104,-164,-635,-114,170
204,181,82,-70,-166,-97,-111,-285,-202,103
179,93,-68,-241,-355,130,224,-458,-121,98
143,-40,-193,-373,-464,348,1603,-1449,-269,-100
-410,-539,-611,-658,-676,-64,2409,-1771,-980,-727
-921,-836,-834,-756,-561,-444,1284,-1050,-1127,-1058
-514,-216,-174,-144,130,248,-422,-628,-291,-419
293,486,538,724,857,613,-1567,942,959,642
386,337,385,687,639,-59,-1272,1814,1166,900
76,142,161,237,145,-327,-262,1623,568,529
-138,212,168,30,91,-195,518,352,134,132
-65,323,247,44,249,90,214,-218,209,193
-48,188,158,0,54,125,-737,10,234,275
-95,3,-5,-60,-255,-21,-572,266,143,174
56,-8,-43,-111,-332,-9,-221,140,0,166
75,-91,-143,-138,-274,-51,-360,325,1,161
-68,-209,-162,8,44,-172,-469,602,38,16
7,-53,23,211,286,-53,-337,437,130,76
78,11,78,127,152,78,-238,-75,125,123
7,-27,-1,-25,20,73,-154,-272,-81,-56
-34,-20,8,-21,138,120,-89,-220,-123,-210
36,52,91,116,336,110,-32,16,19,-199
81,104,104,129,209,158,172,-3,22,-197
0,17,14,41,91,214,491,-42,-99,-362
-28,27,21,38,-163,256,1366,-155,-221,-408
100,122,106,-89,-497,388,1830,-427,-288,-256
213,236,249,90,-137,505,1127,-848,-315,-79
80,92,37,-75,-61,277,-355,-228,-136,-133
-173,-228,-289,-72,202,-317,-1220,-636,-245,-351
-199,-308,-354,22,73,-615,-1089,-856,-627,-322
-332,-388,-434,-297,-355,-582,-950,2566,-440,-277
-360,-367,-380,-372,-452,-318,-526,2064,-187,-299
131,97,157,167,120,133,-347,-1263,257,115
293,239,304,286,172,32,-597,-1117,799,329
70,128,187,122,-88,-82,-432,-599,461,140
-120,0,60,61,-11,-43,9,-128,185,-9
-4,110,62,72,283,-25,254,714,218,24
-12,5,-122,-83,163,-105,193,563,57,-124
32,-54,-135,-105,2,2,268,-86,43,-74
112,68,23,69,109,116,313,-268,62,12
161,139,95,118,126,68,90,-223,61,132
160,192,150,76,50,-10,-105,142,118,175
-64,65,26,-186,-200,-16,12,454,38,-68
-424,-319,-433,-797,-719,-78,540,294,-330,-387
-480,-422,-567,-858,-360,-44,1224,-120,-603,-458
11,47,-35,-220,159,369,1002,-236,-243,-37
342,337,334,306,155,401,114,521,387,258
-64,-177,-177,-56,-425,-385,364,768,101,-287
-504,-738,-816,-858,-1143,-875,1065,497,-180,-646
-316,-583,-577,-418,-175,-360,1035,-888,-323,-477
78,79,215,530,939,341,-182,-566,-380,-127
336,368,459,549,681,425,-934,-322,-141,167
481,362,396,583,514,481,-606,-965,127,416
93,-90,-84,161,104,-78,-1033,-79,6,173
-94,-237,-347,-180,-209,-377,-921,-198,-301,-21
99,77,10,-26,-67,-74,80,-508,-386,56
454,297,275,141,159,235,1123,248,24,262
694,387,340,250,165,117,744,845,665,507
490,399,367,365,269,80,-438,409,655,486
210,275,257,333,308,55,-1104,414,367,299
132,194,235,276,207,64,-653,362,206,152
146,213,287,353,271,148,-12,221,108,31
-93,46,111,102,40,91,121,198,-71,-246
-425,-412,-306,-375,-349,-166,-253,-156,-248,-415
-255,-337,-243,-318,-380,-172,-515,-15,76,-104
47,47,119,107,-5,90,-310,-121,147,-1
257,126,113,140,153,127,-104,-853,29,137
403,98,-14,-123,37,17,-59,-159,73,425
206,24,-93,-345,-4,-92,327,397,3,280
187,24,-19,-183,-3,78,1190,-1323,-188,118
352,131,107,173,29,189,1415,-2725,-398,132
206,63,23,123,-124,56,474,17,-321,50
-638,-589,-628,-535,-589,-622,-1332,3624,-134,-520
-861,-541,-527,-382,-322,-437,-1061,912,131,-475
-422,85,136,227,277,226,-120,-783,377,39
-124,323,382,423,420,311,-47,-268,288,165
-27,301,304,357,332,177,-398,-180,261,198
-210,125,144,174,134,32,-568,87,259,115
-376,-121,-69,-71,-86,-92,-215,-180,-56,-50
-215,-133,-89,-79,-95,-92,-79,-213,-406,-28
-6,-31,4,-14,-25,-68,-74,1324,-377,108
60,9,27,-37,-14,-110,-71,913,-202,193
212,55,61,-26,-4,-116,-139,-430,471,429
252,143,86,-32,-63,-114,1,-377,702,437
227,214,150,51,-1,181,241,22,330,286
61,190,145,154,75,472,324,247,196,98
-254,88,60,135,41,466,308,293,100,-154
-274,-52,-17,35,-37,267,131,109,-51,-239
-150,-37,-39,-59,-115,71,-135,-183,-207,-276
-115,-122,-124,-160,-199,-70,-311,-304,-390,-409
-128,-202,-256,-255,-346,-249,-392,-64,-258,-469
-87,-69,-189,-214,-379,-251,-232,123,100,-329
160,134,2,-71,-171,-99,-104,40,161,-76
268,174,38,-139,10,-57,118,29,96,7
164,31,30,-221,42,0,459,-33,-68,-124
-56,-244,-118,-244,-212,-107,1278,-239,-325,-357
-437,-551,-417,-327,-502,-332,1927,-958,-726,-652
-419,-421,-396,-363,-339,-189,1403,-998,-723,-567
-171,-76,-23,220,697,180,-522,-270,-170,-99
359,468,548,690,1107,485,-1598,-58,494,500
233,321,374,469,468,141,-772,-228,280,298
-276,-266,-299,-18,-224,-383,-220,-250,-184,-145
-402,-321,-381,-200,-250,-413,-9,428,-164,-248
-83,-4,51,56,266,97,101,932,109,-2
256,229,311,261,375,495,-413,1058,381,387
207,145,199,247,149,275,-712,601,250,384
-47,-1,85,167,84,125,-361,-20,-82,63
-254,-121,-28,25,-4,-6,-108,-39,-98,-147
-159,-54,8,-2,14,-99,-86,224,-26,-94
13,44,102,71,96,-87,-106,290,-23,7
137,112,43,42,-20,-108,-141,92,119,86
174,101,-82,-51,-177,-52,-67,-339,52,109
36,-21,-59,-22,-142,-16,-27,-410,-61,-15
-214,-119,105,188,56,65,49,-94,2,-151
-135,-48,152,126,-2,97,171,51,54,-112
41,72,89,-89,-250,-27,200,-35,-23,-89
4,37,-43,-238,-388,-90,248,-17,-57,-133
-14,-126,-153,-298,-410,-5,317,91,-5,-86
-39,-164,-182,-338,-482,71,555,-177,-55,-98
-224,-230,-244,-390,-539,-39,932,-843,-377,-257
-572,-490,-487,-605,-630,-453,543,-510,-809,-685
-539,-412,-479,-600,-544,-337,51,-588,-770,-729
162,165,186,158,508,607,490,-1209,-177,34
508,403,441,501,782,591,1344,382,353,547
313,251,252,345,200,-44,680,911,287,376
214,242,228,257,55,-91,-362,-63,83,171
279,359,288,202,60,-192,-1571,600,342,194
293,317,241,169,61,-392,-1556,1026,372,248
31,23,21,-4,-46,-313,-808,235,201,190
93,-40,-38,-93,-110,-131,-262,-985,-45,226
271,137,135,64,33,59,-14,-596,-262,213
-27,-40,-81,-82,-137,-114,-141,1334,-298,-27
-221,-243,-247,-247,-250,-307,-270,722,-183,-231
54,0,80,147,255,0,-169,-218,357,-5
389,192,192,277,363,102,-117,-30,636,308
509,220,173,161,181,24,-131,-169,272,372
437,168,144,91,96,55,-126,-251,26,260
202,29,39,5,2,71,-33,-70,64,177
-223,-133,-78,-135,-161,9,116,215,177,-51
-406,-110,-44,-213,-243,30,225,299,188,-162
-218,54,66,-186,-175,117,227,115,109,-59
-26,96,64,-44,-74,116,180,-415,-113,-22
-120,-32,-123,228,304,101,171,-468,-469,-252
-345,-271,-352,94,223,-165,47,630,-715,-545
-550,-565,-588,-397,-332,-455,512,284,-863,-752
-910,-881,-882,-799,-779,-681,1551,-58,-619,-1004
-495,-431,-448,-406,-408,134,2156,-565,18,-626
631,527,548,525,482,1302,1239,-1646,376,425
1091,836,880,826,799,1070,-1009,230,709,981
600,394,446,390,493,64,-1710,1501,720,700
-48,-5,96,52,135,-250,-622,590,571,286
-218,-12,82,-18,40,-96,-30,89,287,212
-37,123,163,-43,-57,-4,-90,74,113,289
122,181,149,-126,-218,65,-273,69,91,401
212,107,13,-186,-308,0,-477,85,65,405
302,114,52,107,86,-159,-723,-34,-2,357
444,211,145,290,347,-232,-716,-226,-127,154
589,167,100,104,85,-284,-532,-151,-98,76
609,77,39,-40,35,-325,-340,62,47,88
541,104,30,-63,115,-240,-122,280,147,16
229,62,45,88,257,-1,76,365,51,-160
-314,-134,-29,158,115,57,263,319,13,-364
-492,-237,-115,-45,-122,211,626,255,98,-384
-601,-292,-164,-106,-105,424,667,77,-30,-414
-692,-248,-56,111,-2,483,281,-201,-219,-448
-538,-117,48,121,-41,463,-47,-361,-257,-374
-339,-80,37,-45,-76,246,-234,-382,-232,-255
-245,-89,-1,-144,-160,-118,-365,-300,-115,-156
-103,-72,-67,-127,-192,-374,-346,-124,65,-16
-121,-89,-160,-13,28,-503,-237,-217,8,-36
-499,-402,-413,-212,-104,-587,90,-567,-364,-411
-353,-333,-333,-222,-154,-419,857,-622,-308,-289
179,173,127,195,206,-20,724,19,105,193
333,293,178,266,249,7,-336,965,413,354
159,92,-6,38,41,-76,-386,308,322,262
74,53,-56,-12,55,66,152,-300,189,221
69,99,87,90,162,130,192,-345,67,165
135,144,157,114,77,12,234,-84,89,189
9,30,46,-124,-298,-162,646,281,63,89
-396,-352,-348,-617,-825,-287,1013,-389,-398,-329
-701,-642,-627,-897,-1035,-319,834,-1408,-858,-678
-616,-569,-522,-549,-420,-263,474,-710,-777,-643
-71,41,162,392,662,550,1246,-537,-659,-258
345,449,487,672,844,858,773,1244,-26,264
70,64,95,24,34,126,-741,2080,497,216
291,201,327,276,248,93,-862,228,729,411
401,256,377,349,385,-82,-709,-158,487,472
239,55,2,-84,-29,-182,-368,-506,56,265
237,-57,-187,-230,-282,-111,-737,39,169,298
356,81,-10,118,-11,-128,-1358,666,294,380
420,207,155,300,205,-197,-1010,309,296,488
476,329,191,220,202,-146,-538,110,263,510
337,288,155,149,152,-59,-238,-100,137,280
64,-11,-96,-103,-74,-122,529,-743,15,7
-228,-295,-315,-418,-472,-336,1201,-612,-128,-296
-328,-234,-293,-498,-628,-353,1005,279,-407,-551
-55,181,-2,-217,-220,51,153,-167,-619,-464
325,522,348,489,695,376,-1004,696,-260,21
244,302,297,403,550,184,-1104,1437,118,159
-190,-232,-103,-79,-100,-16,-599,1441,564,-182
-667,-553,-344,-262,-280,45,-48,-17,626,-550
-269,-157,62,133,223,361,126,-1123,138,-268
30,170,300,367,328,317,110,-223,-78,99
-62,82,171,280,153,84,238,485,-357,-1
-23,85,121,217,126,135,257,-222,-293,-37
-71,-18,-1,58,13,75,137,-267,-114,11
-107,-40,-48,-46,-88,-142,-132,-213,137,0
61,158,114,89,5,-155,-288,-224,385,93
127,171,118,35,-71,-125,-272,-156,161,104
133,73,5,-105,-191,-18,-257,-83,34,116
151,38,29,-81,-164,147,-151,-26,23,95
97,-12,21,-100,-285,420,-4,-30,-26,50
109,31,11,-321,-549,617,143,-69,38,144
239,132,82,-268,-79,520,184,-109,19,176
172,-48,-97,19,571,65,6,287,-212,-8
25,-320,-355,-156,195,-443,-97,12,-396,-183
149,-293,-304,-130,-74,-528,52,-586,-197,-85
86,-317,-413,-232,-333,-734,160,166,-119,-269
21,-341,-466,-422,-455,-658,450,-270,-628,-550
305,44,-12,-22,-42,-293,372,-1525,-919,-291
105,36,27,57,50,-148,27,-1089,-509,-78
38,112,136,169,199,131,-313,475,389,277
-77,296,378,404,401,208,-433,1136,794,462
-346,219,346,378,362,121,-314,474,557,284
-484,90,226,225,144,116,-88,194,293,16
-394,73,187,40,-162,161,58,158,142,-124
-12,191,233,-206,-257,194,121,193,135,-18
274,287,213,-423,-139,180,200,276,264,217
402,315,137,-368,-218,222,203,272,334,375
23,-21,-63,294,649,235,-70,-82,-7,14
-251,-99,-41,696,829,81,134,-390,-307,-323
-239,-79,-23,283,198,81,1034,-359,-226,-183
-294,-124,-90,-57,-98,131,1224,-393,-161,-46
-351,-53,35,136,112,249,528,-527,-152,-87
-258,28,127,229,220,83,-879,-21,41,10
-178,32,91,159,80,-242,-1208,83,104,49
-96,44,27,82,-26,-274,-643,-334,68,76
-105,-37,-96,-26,-138,-217,-53,-584,-7,20
-99,-82,-124,-43,-164,-281,2,9,42,37
-153,-216,-242,-155,-281,-407,-251,1754,133,-13
-259,-335,-337,-247,-385,-306,-51,1067,26,-154
39,-18,-11,54,-43,74,408,-537,189,80
129,51,-4,74,-28,75,613,-240,260,161
-260,-319,-367,-280,-450,-88,817,-284,-52,-163
-589,-521,-504,-394,-342,129,1411,-1084,-581,-500
-580,-561,-531,-449,-173,484,1850,-1138,-938,-560
-75,-180,-285,-290,-151,672,1366,-138,-431,-66
477,318,154,86,65,466,-156,704,235,555
639,466,307,184,190,82,-1889,1072,434,721
164,-2,-68,-338,-316,-644,-1617,1304,207,263
-117,-191,-205,-430,-526,-900,-836,-65,-119,-79
128,144,145,130,49,-409,-712,-908,-258,97
297,337,353,408,515,-54,-645,919,63,401
249,280,254,308,420,13,-273,1263,-29,399
223,224,166,239,123,-44,-200,-751,-1,296
14,-27,-70,44,-123,-219,-127,-1055,205,15
-111,-275,-307,-187,-234,-192,464,-474,-160,-184
167,-54,-82,-12,-5,166,809,-23,-223,64
470,301,283,351,330,430,236,558,66,359
251,125,143,301,305,302,-346,948,222,168
-63,-311,-250,-179,-152,-115,-107,-3,427,95
59,-152,-212,-251,-309,-377,-42,-978,376,182
297,163,85,7,-113,-329,-206,-171,88,107
347,244,182,101,-23,-142,-264,826,80,55
277,289,232,156,79,440,-108,424,126,40
167,241,240,166,169,841,58,-478,6,84
-21,64,183,88,193,597,43,-435,0,16
-323,-118,59,49,253,172,-39,-319,-9,-226
-373,-170,-42,-3,51,-187,-228,-87,-17,-243
-128,-90,14,45,94,-407,-244,113,88,-75
80,15,80,25,-9,-311,-69,143,140,39
104,81,56,-74,-305,-110,-2,7,102,50
24,114,12,-24,-237,-53,1,-444,11,-1
14,126,-89,33,128,-8,28,-354,62,72
-129,-37,-249,0,258,-173,-147,803,62,-80
-178,-67,-173,-89,-20,-147,-85,634,45,-106
-33,60,76,168,102,174,145,-275,51,59
-136,-66,26,145,76,148,433,-45,69,14
-222,-212,-84,-30,-57,59,1464,13,-28,-61
-269,-238,-123,-148,-168,-23,2230,-219,-304,-213
-191,-102,5,-61,-78,89,1324,-359,-346,-240
139,221,331,198,130,299,-759,32,3,24
229,325,334,21,-56,175,-1703,956,354,177
131,63,-22,-513,-649,-105,-1094,857,540,293
8,-128,-249,-604,-617,-105,-415,488,414,275
-150,-94,-117,-34,161,160,38,-601,-114,-35
-57,27,36,318,456,85,557,-3058,-848,-177
-96,-65,-95,136,91,-164,1384,-3696,-1414,-273
-519,-561,-646,-583,-610,-470,1636,1031,-1279,-508
-728,-793,-854,-830,-694,-448,614,2599,-743,-584
250,144,154,312,524,302,-1209,81,611,298
970,656,635,814,809,321,-2008,362,1333,892
919,541,506,491,370,117,-1225,920,772,718
392,259,275,156,59,45,-570,703,246,318
-236,-53,-5,-106,-132,-25,-224,144,52,-53
-636,-281,-180,-207,-36,-113,-51,-671,-181,-437
-562,-336,-246,-350,26,-24,39,-721,-371,-567
-322,-203,-149,-245,-31,376,448,339,-341,-497
-295,-350,-227,-43,66,495,494,-46,-372,-570
6,-399,-317,-86,-113,180,-298,9,8,-275
245,-92,-8,82,23,-114,-1023,234,47,-114
378,152,217,286,258,-43,-323,272,261,220
463,492,489,494,484,147,97,170,588,617
89,316,296,278,253,-85,-111,-482,43,218
-138,-101,-77,-56,-143,-392,-51,-328,-284,0
44,-125,-63,-46,-196,-373,70,1228,-5,228
107,37,102,97,-34,-130,172,965,36,204
68,150,162,122,42,-1,144,-530,215,66
2,165,130,100,47,42,50,-536,566,54
-32,141,126,86,41,64,0,-211,344,65
33,128,113,17,-38,8,12,-30,155,46
86,113,90,29,-30,-28,-33,-27,75,64
110,71,52,57,-15,-47,-75,-52,60,110
167,46,32,67,-10,-50,-32,-39,33,89
262,101,144,112,61,-100,23,-59,-20,-9
437,163,158,25,-76,-252,196,-43,-35,-2
475,133,83,-95,-308,-280,409,-9,-1,116
220,52,-6,-134,-386,-45,383,4,17,127
-158,-5,-50,-145,-342,572,317,-108,65,88
-404,90,82,26,-23,1024,202,-445,-104,-102
-428,-6,22,57,260,795,-65,205,-116,-172
-366,-267,-224,-209,192,187,-296,755,-7,-181
-319,-353,-326,-260,85,-163,-208,244,219,-99
-181,-141,-151,-79,113,-466,-257,-231,201,16
-54,44,11,107,164,-660,-261,-299,98,51
-115,-19,-47,4,12,-392,-101,-396,69,-22
-99,13,-8,-21,7,-68,14,-664,28,1
-88,-44,-44,-54,23,-18,3,185,-49,14
-188,-250,-243,-236,-143,-152,-15,1068,-186,-105
-111,-243,-292,-139,-88,-52,189,466,-94,-85
58,-63,-104,18,60,36,818,15,36,46
-37,-79,-12,-5,68,-49,1328,-508,-39,-66
-37,-112,-75,-89,-54,-13,989,-879,-180,-83
105,121,119,57,79,167,-170,-615,-87,39
8,161,169,76,113,63,-627,-248,137,-73
-253,-138,-125,-176,-162,-186,568,-839,-169,-376
-420,-379,-329,-311,-267,-223,1596,-199,-519,-567
-207,-245,-211,-160,-91,47,1276,-10,-511,-424
88,-93,-105,-116,-87,-11,-174,126,-70,-90
280,127,71,-62,-69,-117,-719,506,227,159
498,482,402,135,187,172,-1143,485,304,350
635,598,505,197,151,419,-1473,825,596,631
254,272,237,129,-58,213,-1087,527,410,409
-216,-95,-14,290,210,-26,-796,48,-21,-29
-218,-109,-6,324,341,-198,-626,-77,-152,-111
-8,42,90,191,113,-210,-422,18,-32,34
25,61,93,50,-29,-115,-279,46,17,74
8,-31,16,-17,68,-99,-199,44,-35,17
5,-95,-16,12,19,-86,-119,0,-83,-26
56,18,69,140,39,15,-13,-368,-248,-159
4,-94,-44,83,92,154,242,-667,-275,-194
-74,-329,-285,-233,-111,32,341,-462,-169,-78
-34,-263,-316,-422,-384,-307,189,441,-186,-72
-277,-260,-392,-477,-523,-443,254,1538,-357,-379
-333,-134,-264,-224,-292,-127,382,215,-278,-475
241,381,389,373,304,437,-48,-981,341,210
370,358,347,399,342,335,-497,-294,546,503
168,164,112,297,334,113,-367,50,243,265
153,158,178,252,227,6,-195,54,108,162
179,124,138,113,25,-78,-104,308,147,161
