13,116,-12,15,33,4,9,43,26,-11
-60,-88,11,0,-10,6,-40,-15,-82,-30
-49,-100,-2,-3,-9,7,-12,-13,-78,-19
-39,-95,-3,-13,2,2,-2,-10,-75,-11
-32,-93,-12,-31,6,9,2,3,-72,8
-21,-96,-37,-50,1,21,12,15,-79,13
-24,-104,-45,-50,-3,19,12,24,-78,6
-29,-83,-27,-31,9,14,-1,5,-63,-1
-20,-61,-13,-29,13,-5,-14,-5,-75,-13
-14,-67,-76,-23,-2,-14,-11,-1,-90,-15
-15,-77,-170,-35,-6,-9,-13,0,-78,-15
-24,-75,-96,-36,-3,-16,-4,-1,-53,-21
-38,-70,-7,-27,-10,-20,-9,-6,-31,-20
-35,-76,-6,-36,-16,-18,-25,-14,-16,-7
-40,-91,-15,-55,-17,-13,-36,-14,-16,-12
-47,-91,-10,-52,-19,-11,-46,-6,-16,-1
-30,-83,-8,-26,-8,-10,-60,-2,-18,8
-5,-55,-23,-10,5,-6,-30,-3,-18,25
29,-30,-49,1,14,2,2,3,13,44
44,1,-13,22,30,8,0,13,41,66
60,62,18,27,66,19,5,27,84,71
102,158,35,31,91,33,24,68,131,69
163,386,67,62,129,32,33,118,204,41
14,101,74,38,52,9,-20,23,57,-20
-18,-63,46,12,-1,-2,-45,1,-16,-27
22,-42,28,6,-14,-18,-47,-3,-26,-14
2,-48,13,-13,-9,-11,-28,-16,-12,-16
16,-9,-1,-14,18,5,-9,-7,43,0
123,186,-7,-7,56,9,6,54,135,26
199,349,-12,12,76,2,23,78,197,56
85,92,25,15,19,2,-1,-11,76,-4
12,-23,21,-9,-13,10,7,-12,39,-17
123,181,-20,-1,24,19,48,79,165,73
125,257,25,23,36,8,41,87,172,87
-75,2,100,44,-6,5,-2,-21,-4,-12
-116,-69,95,42,-25,14,-8,-29,-68,-32
-81,-106,73,26,-45,13,-2,-17,-81,-17
-52,-121,52,13,-55,13,16,-14,-81,-12
-53,-95,39,3,-50,7,11,-20,-77,-13
-23,-76,27,2,-47,1,10,-24,-78,-9
16,-95,14,5,-52,1,7,-13,-83,8
4,-111,-3,-9,-52,0,3,-9,-76,12
-61,-127,-46,-24,-41,-1,-3,-7,-81,11
-92,-136,-46,-28,-34,-4,-14,0,-72,8
-93,-127,-3,-12,-37,-14,-43,-11,-72,-6
-80,-75,46,11,-44,-22,-57,-34,-80,-21
-64,-50,86,20,-45,-28,-66,-41,-80,-36
-45,-58,78,19,-44,-24,-78,-42,-73,-28
-19,-34,71,12,-24,-14,-71,-49,-47,-6
23,38,55,21,17,3,-33,-32,15,6
34,59,-5,18,37,7,-17,-12,43,19
57,121,21,12,60,20,-7,20,46,18
128,379,7,41,130,37,48,110,176,46
-3,72,4,9,58,24,31,34,47,24
-76,-66,31,-14,11,16,43,4,-11,-3
-76,-68,1,-36,-14,11,56,12,4,-10
-67,-84,-5,-34,-12,15,55,16,22,-17
-50,-90,9,-6,0,11,43,4,21,-19
-33,-109,8,0,3,0,16,-5,9,-10
-27,-103,-25,-17,-11,-20,-24,-27,-17,-2
-25,-107,-47,-31,-28,-19,-51,-33,-30,0
-25,-96,-34,-34,-24,-5,-43,-22,-35,2
-24,-75,-32,-32,-29,-8,-12,-20,-29,1
-33,-30,-30,-32,-33,-43,-1,-23,-49,-17
-45,-9,-21,-39,-26,-58,-13,-22,-66,-25
-34,-40,-7,-41,-19,-30,-29,-22,-80,-25
-23,-69,-6,-26,-15,-17,-22,-20,-61,-22
-26,-68,-6,-9,-1,-8,-30,-8,-46,-19
-19,-33,-2,11,18,-2,-53,-10,-49,-13
-3,-24,-4,24,33,0,-48,-7,-45,-7
6,-22,42,27,38,4,-43,-11,-40,0
17,19,51,41,44,2,-36,-13,-28,3
45,76,52,49,69,-2,-20,-10,28,0
39,72,33,48,69,9,-13,-11,46,-4
78,160,2,41,70,23,14,39,88,5
74,160,-47,5,44,7,3,39,66,11
-5,-26,-24,-14,-16,-11,-14,-16,-16,3
-16,-47,-14,-15,-22,-13,-8,-11,-12,-2
-18,-50,-22,-22,-30,-12,-3,-8,2,-5
-35,-53,-19,-32,-42,-14,-8,-3,-4,-13
-42,-59,-16,-30,-38,-22,-38,-16,-18,-37
-45,-49,-14,-38,-28,-25,-35,-20,-15,-40
-40,-38,-35,-27,-25,-19,-25,-5,5,-16
-14,-32,-22,0,-13,-6,-26,10,10,-11
9,-16,4,16,12,6,-14,23,12,-8
23,0,-2,7,21,11,14,32,38,-4
88,180,-44,19,46,21,68,84,118,23
82,203,-19,33,40,33,64,87,119,40
4,7,0,15,3,22,9,18,19,34
16,0,-12,5,10,13,36,8,26,36
1,-4,-63,-10,-3,13,42,8,36,32
-1,9,-163,-21,-5,15,48,13,55,23
57,166,-93,-9,24,19,64,64,132,25
203,545,-7,40,107,36,108,167,263,38
166,452,-49,41,81,31,90,119,200,1
9,75,-25,0,-7,0,15,11,14,-23
-62,-83,-46,-23,-50,-17,-23,-43,-55,-22
-59,-93,-20,-23,-60,-28,-51,-47,-62,-25
-59,-79,50,-22,-64,-35,-81,-40,-84,-27
-50,-72,44,-9,-51,-36,-66,-43,-87,-19
-41,-84,18,4,-28,-31,-26,-42,-85,-9
-22,-61,27,7,-16,-14,-2,-37,-66,-3
14,41,56,28,15,1,1,-20,-18,8
57,119,-10,41,43,9,-8,5,23,17
163,357,0,60,114,24,21,94,123,40
74,120,41,27,59,21,4,32,30,21
-7,-88,28,3,5,24,5,-32,-55,8
-10,-90,30,-8,0,25,5,-27,-72,41
7,-117,24,-22,-7,17,-28,-31,-79,74
25,-130,16,-24,-26,10,-53,-33,-75,93
27,-109,10,-22,-37,8,-55,-47,-57,96
3,-93,29,-18,-39,-1,-30,-60,-38,76
-26,-94,33,-12,-32,2,-22,-57,-32,40
-64,-91,11,-10,-17,1,-38,-46,-25,-14
-110,-93,5,-11,-10,8,-13,-31,-29,-51
-107,-58,13,-3,-3,31,16,-22,-23,-102
-89,-5,20,13,-2,30,-1,-15,-21,-106
-73,-22,18,13,9,17,-8,-18,-1,-62
-63,-41,10,-4,8,20,30,0,10,-41
-45,-39,-2,-14,2,20,52,8,14,-19
-21,-19,-5,7,-8,12,32,0,29,6
-3,-13,-2,17,5,5,23,5,23,14
7,-11,9,24,22,5,23,8,12,4
2,0,26,44,31,5,10,-8,21,-22
-10,16,31,61,41,5,9,-3,35,-26
1,42,23,47,49,16,23,15,60,-17
-13,0,0,19,34,17,19,4,53,-10
-42,-45,-13,0,11,11,-13,1,16,-22
-55,-47,-41,1,2,4,-39,-8,-9,-25
-55,-58,-64,1,-3,-3,-53,-21,-15,-24
-48,-70,-32,-24,-18,-13,-53,-17,-29,-27
-43,-77,-45,-48,-18,-20,-45,-1,-27,-32
-46,-89,-65,-45,-5,-20,-48,2,-27,-23
-37,-59,-51,-34,-3,-11,-44,10,-41,-15
-11,-42,-41,-18,0,-4,-32,12,-46,3
13,-26,-31,0,12,0,-16,17,-44,23
28,14,-13,26,32,6,24,22,-7,25
23,60,-55,50,55,19,54,22,34,19
34,142,19,61,74,16,54,45,66,24
146,425,67,79,123,9,39,123,154,46
101,203,32,50,40,0,-39,34,26,23
50,-8,22,14,-18,1,-71,-21,-52,10
17,-28,27,5,-9,12,-57,-12,-24,3
5,35,37,26,26,10,-36,-1,35,6
32,107,46,38,41,6,-19,8,73,15
140,346,33,41,75,-6,9,85,160,27
85,189,12,0,17,-12,-19,41,75,10
55,112,-19,-40,-12,-10,-12,32,68,9
120,262,-30,-23,29,0,23,88,140,29
-1,-50,-56,-43,-41,-7,0,-6,-2,5
-22,-129,-54,-53,-65,-2,15,-26,-45,18
-19,-137,-11,-39,-48,0,29,-15,-48,35
-26,-140,0,-16,-44,-2,8,-7,-33,32
-17,-110,-8,-9,-40,0,-12,-7,-22,27
17,-8,-2,20,10,9,25,6,29,30
38,48,26,25,25,13,36,26,44,20
96,212,31,44,46,15,50,75,85,0
86,230,31,48,47,6,38,71,78,-16
1,16,-20,25,-15,-9,-1,6,-11,-13
-56,-132,-54,1,-41,-8,1,-20,-50,-11
-78,-161,-36,-16,-56,-12,13,-13,-67,-13
-88,-141,-25,-30,-69,-43,-29,-30,-99,-23
-82,-122,4,-31,-71,-68,-54,-51,-104,-54
-86,-118,4,-37,-64,-49,-55,-51,-94,-60
-80,-139,-10,-37,-56,-36,-60,-53,-87,-54
-59,-139,-16,-25,-50,-38,-61,-55,-82,-32
-56,-132,-16,-23,-48,-25,-53,-42,-79,-11
-50,-134,-24,-20,-37,-27,-34,-26,-78,-3
-40,-116,-22,4,-21,-29,-31,-21,-69,3
-18,-75,-7,7,-19,-13,-22,-15,-56,8
-8,-25,-13,11,-19,1,-23,-17,-61,14
8,31,0,10,-6,1,-22,-18,-46,27
22,19,15,16,3,10,-16,-23,-22,19
-1,-14,4,24,-3,4,-24,-17,-10,10
-22,-36,-42,8,-10,-14,-33,-13,-9,18
-11,-50,-107,-9,-15,-35,-29,-15,6,42
1,-37,-84,-18,-22,-34,-14,-20,2,56
-16,-42,-24,-25,-22,-15,9,-27,-3,39
-48,-68,-23,-43,-26,-19,36,-33,-9,17
-42,-74,-30,-50,-28,-25,35,-34,-6,-11
-38,-67,-21,-34,-19,-15,16,-22,-4,-47
-90,-38,-7,-15,-4,-6,22,-12,-10,-71
-105,-22,15,-15,-4,6,29,-11,6,-69
-97,-20,25,-16,-1,13,30,-7,26,-57
-75,-39,23,-7,4,15,32,-6,21,-39
-37,-36,15,2,13,19,43,-13,23,-13
-17,-35,6,1,14,22,45,-4,33,9
-18,-21,0,-6,10,20,39,-5,30,34
5,5,24,9,15,17,41,-4,32,36
48,65,41,46,35,30,56,15,78,47
66,92,26,64,46,30,63,17,107,46
116,251,14,64,71,25,73,63,164,39
135,320,17,47,91,24,63,82,182,21
-16,-9,24,23,14,15,17,-21,30,-29
-72,-70,16,19,3,11,3,-45,-16,-36
-94,-43,-7,13,8,8,1,-42,5,-19
-43,-1,-15,21,9,5,8,-23,47,17
56,232,15,30,27,6,21,46,107,13
82,376,48,54,52,13,24,72,137,7
10,121,-17,25,21,7,3,17,31,-4
99,265,-38,32,56,3,53,79,97,16
40,44,-18,-2,7,-3,44,27,-16,21
-14,-144,-34,-27,-34,-5,25,-25,-101,22
-5,-163,-67,-44,-44,-9,25,-23,-88,37
-12,-140,-11,-36,-35,-23,18,-22,-87,47
-7,-126,-31,-28,-23,-21,1,-27,-81,38
21,-87,-8,-25,-11,-13,-1,-32,-63,33
30,-17,23,-22,0,-18,-10,-26,-12,31
38,64,27,-17,10,-3,-4,14,21,6
116,300,36,16,45,17,38,99,105,6
59,78,36,-6,-42,-2,-10,23,0,1
63,-78,26,-39,-93,-26,-42,-36,-63,12
82,-99,17,-38,-93,-50,-61,-50,-65,28
65,-107,20,-36,-82,-44,-73,-54,-66,33
-1,-126,3,-31,-79,-34,-63,-57,-45,39
-54,-93,3,-24,-65,-35,-47,-42,-32,46
-46,-44,28,-19,-42,-30,-19,-27,-7,53
-58,-67,13,-23,-32,-15,15,-13,-13,26
-64,-81,-51,-14,-24,4,31,-1,-6,-5
-67,-76,-128,-1,-13,10,23,8,1,-12
-55,-71,-48,1,-3,20,26,20,16,-18
-12,-51,24,3,-15,30,29,33,26,-15
5,-58,35,0,-7,25,27,30,27,15
-26,-54,26,0,18,18,26,10,15,26
-40,-43,26,3,15,-11,17,-11,8,7
-93,-39,11,-1,0,-25,8,-23,2,-26
-129,-42,-15,-4,-8,-14,8,-11,8,-82
-97,-30,24,15,7,15,24,-3,5,-132
-21,-16,89,21,8,12,37,-18,-15,-95
7,-40,60,0,1,0,25,-34,-32,-35
-72,-61,20,-18,-7,2,7,-32,-31,-16
-101,-57,-12,-26,-17,-2,-12,-24,-44,-1
-61,-58,20,-33,-22,-18,-38,-24,-52,17
-31,-45,19,-29,-13,-15,-30,-20,-54,38
-14,-41,-39,-22,-10,-7,-10,-16,-58,38
13,-44,-74,-12,-8,3,-6,-15,-56,25
55,-34,-12,-13,-8,8,-3,-11,-38,10
65,-11,26,-2,-9,21,9,-1,-32,-1
1,1,61,27,20,24,14,6,-46,-47
-34,-2,72,37,30,13,12,-3,-46,-63
-4,-3,52,27,33,15,-4,-2,-38,-39
16,20,33,10,34,19,-14,8,-18,-25
19,31,22,-11,23,23,-5,17,12,-33
30,59,20,-5,26,23,-1,18,42,-29
52,101,33,0,24,13,-13,25,50,-19
162,358,40,25,74,8,11,87,167,10
116,264,47,16,49,-7,-7,40,106,-1
12,37,43,-9,-24,-29,-26,-31,-11,-9
125,292,27,23,35,-25,-8,65,124,36
106,183,0,11,33,-14,1,44,120,44
99,126,-21,5,33,0,7,53,88,50
155,260,-17,36,71,13,27,94,146,70
69,30,-34,26,28,11,6,23,69,54
161,219,-47,32,58,15,44,95,156,67
112,46,-43,6,3,13,27,51,81,71
44,-178,-63,-40,-54,5,17,-19,-8,82
40,-160,-55,-42,-62,-3,30,-32,-19,57
26,-147,-96,-44,-77,-10,8,-40,-32,40
16,-83,-40,-26,-69,-38,-11,-51,-42,32
-17,-37,53,3,-50,-45,-7,-67,-68,-13
1,-42,81,10,-28,-17,7,-63,-45,-4
20,-60,28,12,0,6,33,-44,10,21
51,-2,-25,2,5,14,37,16,54,27
138,206,-10,40,39,19,29,92,135,25
3,-80,5,23,-23,9,-28,0,-23,-42
-47,-158,10,14,-36,13,-33,-28,-85,-71
-54,-152,-6,6,-23,29,-14,-20,-89,-74
-49,-151,-7,-5,-19,22,-1,-23,-79,-50
-35,-106,41,6,-24,-16,-6,-32,-95,-30
-34,-21,91,14,-30,-38,6,-35,-103,-29
-58,-31,90,28,-28,-11,13,-14,-92,-41
-85,-30,72,37,-12,16,-4,9,-68,-40
-98,-30,65,36,-7,22,-16,15,-47,-30
-126,-80,49,46,1,28,-11,17,-40,-40
-128,-95,44,56,8,21,-13,17,-48,-48
-112,-77,46,47,4,14,-17,13,-37,-27
-95,-88,20,9,-1,7,-16,9,-32,-18
-67,-91,2,-10,-13,-2,-21,6,-45,-21
-69,-94,0,-2,-14,3,-35,-11,-48,-37
-80,-82,8,-6,-17,-7,-41,-21,-59,-46
-59,-62,11,-16,-30,-26,-37,-16,-54,-29
-36,-38,8,-23,-25,-49,-3,-24,-13,-4
-30,-49,5,-36,-21,-37,4,-26,-12,-5
-18,-42,-30,-31,-28,-12,8,-25,2,1
22,-31,-75,-29,-35,2,27,-7,18,3
36,-26,-37,-28,-22,11,33,8,18,-1
51,-49,-44,-21,-7,16,38,9,38,38
31,-30,-21,-7,3,16,39,7,40,42
-11,-1,3,19,19,19,28,-4,30,22
-5,-19,-70,3,12,30,22,2,40,41
-12,-22,-27,-10,8,28,-3,12,36,41
-11,0,-3,2,7,25,-17,6,23,10
7,18,6,1,7,25,-14,2,22,10
11,9,14,10,4,11,3,0,29,12
9,-6,14,7,0,-3,0,-9,32,9
14,-17,12,3,-10,1,-10,-8,21,1
22,-25,-2,-8,-16,1,-28,-1,15,-5
34,-32,-20,-19,-15,-15,-20,-3,18,20
76,14,-29,-16,-2,-35,-24,-4,55,55
94,80,-49,15,16,-33,-36,-20,47,54
50,53,-11,16,17,-14,-42,-23,5,39
54,84,18,26,42,-2,-7,-4,28,36
36,31,10,23,27,5,-11,3,-19,17
37,39,13,26,51,13,4,24,-10,8
4,36,4,23,66,25,22,51,23,-35
-82,-18,9,23,47,27,11,45,-30,-105
-81,-12,25,29,46,20,-13,18,-73,-121
-36,-27,12,10,19,7,-24,-4,-93,-66
32,-39,-16,-17,1,-7,-39,-14,-71,6
62,-67,-65,-32,2,-7,-49,-10,-57,34
98,-79,-49,-35,-6,-17,-59,-12,-55,76
78,-33,0,-18,0,-17,-74,-39,-88,60
33,-86,-35,-24,2,-7,-44,-27,-76,34
106,-103,-97,-70,-16,-34,1,10,32,126
127,54,-28,-75,-54,-44,19,34,93,173
11,163,101,-22,-65,-53,-3,-14,0,46
-47,103,103,-1,-49,-49,-30,-35,-56,16
-3,111,91,15,-39,-52,-57,-39,-41,71
64,156,80,37,-22,-39,-60,-43,-63,36
132,136,67,34,-11,-40,-41,-23,-54,13
64,135,89,36,9,-18,-19,-10,-16,-4
-77,92,88,67,44,40,26,21,-7,-58
-156,52,80,73,76,76,71,51,3,-53
-191,1,29,59,70,82,79,73,54,-9
-229,-35,-17,55,65,94,76,84,74,-26
-206,-47,-44,52,46,74,70,64,53,-88
-148,-50,-7,31,27,52,68,32,16,-115
-121,-69,-35,7,1,28,43,9,1,-112
-102,-99,-64,10,-12,13,22,0,-9,-143
-77,-90,-107,19,-22,14,12,4,-18,-144
34,-51,-95,8,-22,3,1,1,-11,-88
117,-6,26,1,-29,-11,-15,-13,-16,-39
98,-17,85,7,-14,-10,-31,-22,-15,3
72,-8,96,27,3,12,-26,-19,-13,25
-57,18,100,50,25,20,-8,-12,-12,25
-122,46,106,77,25,19,2,-21,-4,23
-142,100,142,79,27,19,1,-22,-5,-23
-174,124,117,53,16,30,16,-14,-4,-41
-86,108,64,12,-13,19,29,8,25,61
-51,99,45,-11,-25,2,-4,10,28,116
-51,84,20,-33,-26,2,-19,9,-2,114
25,81,-34,-73,-54,-29,-35,-8,-22,136
74,56,-48,-122,-81,-51,-38,-11,-38,152
180,-51,-119,-172,-101,-50,-40,0,-60,160
476,-161,-218,-221,-113,-71,-60,-29,-70,147
676,-123,-250,-242,-114,-112,-84,-69,-75,101
572,-142,-269,-259,-112,-102,-48,-41,-9,139
440,-111,-185,-200,-92,-75,-40,-5,6,107
71,41,48,-20,0,-12,-28,-45,-97,-180
-130,35,88,44,58,44,28,4,-31,-210
-274,-47,42,49,108,96,86,76,40,-195
-405,-54,46,63,126,101,107,95,60,-185
-281,-28,51,60,114,77,89,87,72,-91
-124,-7,39,38,78,55,49,65,59,-19
-22,-15,-15,6,29,23,40,33,72,73
-6,-63,-42,-12,15,20,44,17,99,115
21,-32,-40,18,27,25,35,2,54,61
106,-1,-16,27,28,23,35,-6,29,23
156,-13,17,1,4,1,35,-1,44,59
57,0,38,-6,3,-5,21,-18,52,72
-172,43,87,39,24,21,20,-26,40,-42
-212,51,92,66,61,51,20,-34,17,-144
-77,51,53,39,32,24,0,-35,14,-73
49,55,19,-8,-38,-45,-45,-25,21,39
-44,17,-35,-46,-87,-78,-112,-15,-35,-20
-225,-23,-35,-69,-99,-77,-169,-29,-131,-133
-275,-15,-18,-51,-70,-71,-133,-10,-184,-176
-227,-25,-56,-51,-34,-32,12,48,-163,-153
-202,-60,-134,-66,-20,5,230,147,-46,-79
-160,-86,-97,-48,-6,9,357,162,27,-59
5,-53,-82,-25,20,37,335,41,94,24
177,160,24,73,97,93,191,-14,104,65
318,182,-18,144,180,150,15,-81,73,54
262,-167,-231,27,145,133,-54,-76,93,195
64,-161,-199,-48,17,31,-104,-5,96,205
-55,25,-60,-7,-26,-38,-128,26,42,56
-33,19,-85,-42,-38,-33,-98,17,44,69
-78,-19,-86,-85,-57,-45,-21,5,97,164
-58,-22,-41,-86,-56,-46,230,-20,68,190
4,7,1,-34,-21,-14,426,-45,38,104
2,59,94,34,21,19,302,-103,-5,-26
30,47,134,58,31,36,110,-140,-47,-104
48,17,104,35,14,30,-41,-123,-71,-140
24,12,84,26,20,40,-183,-77,-57,-198
45,133,144,83,47,35,-327,-58,-14,-147
20,143,154,116,70,28,-240,21,45,-35
-176,21,71,61,33,-12,-117,120,25,-70
-321,-28,-7,-9,-31,-32,-89,121,13,-135
-303,-37,-2,-9,-30,-4,-33,112,23,-134
-162,-44,18,15,9,20,-1,78,16,-133
27,-19,10,25,11,33,-16,23,24,-61
331,-13,4,31,15,62,-21,-9,62,81
508,-8,36,58,29,69,-24,-55,40,107
551,8,-12,70,26,41,-42,-97,9,84
598,-15,-49,45,3,6,-39,-109,-19,44
401,-88,-42,33,22,8,-40,-136,-82,-54
211,-29,-19,63,23,-48,-112,-172,-117,-128
104,41,5,-21,-92,-119,-61,-30,-64,-133
4,-23,-79,-112,-163,-120,23,85,42,-22
-179,-55,-44,-73,-98,-65,53,71,18,-54
-322,71,120,44,3,-11,24,-24,-116,-250
-220,89,147,72,34,5,4,-69,-177,-229
-184,-67,-33,8,-14,-9,23,10,-51,52
-171,-31,-22,-9,-45,-34,12,60,31,157
-75,80,83,2,-48,-54,-19,6,-27,80
-23,72,91,13,-42,-68,-42,-25,-78,91
112,64,2,-16,-70,-82,-59,-43,-70,169
192,24,-129,-79,-102,-89,-49,-15,0,273
72,-98,-126,-105,-106,-57,5,24,71,341
-55,-82,-57,-62,-75,-27,29,33,56,222
17,41,12,-34,-55,-23,12,3,1,76
165,95,56,-42,-53,-23,10,-15,-73,-50
71,11,36,-33,-45,-4,24,4,-64,-130
-95,-93,9,-9,-28,5,70,46,19,-109
-175,-69,39,17,-3,14,95,58,29,-128
-275,-46,72,56,31,46,116,50,-8,-213
-377,-86,79,96,55,74,134,58,13,-206
-275,46,156,128,58,51,92,13,-38,-149
74,270,252,107,11,0,25,16,65,15
-147,195,231,140,64,40,27,-20,-14,-103
-166,170,124,121,53,37,13,-50,-44,-126
5,31,0,12,-15,0,8,-31,5,1
138,-87,-86,-109,-126,-46,0,42,164,271
88,-11,37,-30,-80,-13,11,32,103,103
322,-75,84,63,26,58,29,-25,-78,-117
441,-342,-194,-42,-8,38,25,-11,-38,65
411,-300,-171,-150,-130,-67,-28,-46,53,274
171,-130,-7,-105,-167,-114,-39,-279,-18,159
-104,12,92,-17,-110,-77,-11,-504,-175,-155
-132,42,116,6,-63,-26,82,-543,-187,-156
-105,39,89,-6,-64,-12,172,-225,-61,-12
-280,-34,21,-63,-107,-45,164,311,34,-39
-412,-123,-42,-118,-163,-84,77,592,63,-93
-273,-80,10,-47,-107,-47,-43,320,47,-100
108,111,176,112,63,75,-159,-53,-2,-53
-23,102,185,130,75,86,-153,-119,-29,-19
-376,-1,112,64,11,15,8,23,23,35
-457,-32,79,48,11,3,149,117,72,76
-236,-12,123,121,79,83,154,147,105,84
11,18,172,203,149,151,55,158,128,83
-79,6,182,181,138,130,15,131,69,-62
-109,-54,153,144,88,80,16,93,27,-180
-70,-88,51,105,52,47,12,66,11,-165
-82,-88,54,87,44,50,9,62,8,-118
-137,-117,123,86,50,60,17,62,2,-116
-22,-133,83,54,22,31,5,57,-8,-67
79,-153,17,11,-22,-2,-6,55,-1,45
18,-89,30,38,-5,-5,-1,38,6,35
-23,12,-1,80,25,0,-28,15,-6,-16
-13,-33,-75,61,25,15,-45,-3,-27,-27
-14,-95,-70,88,68,68,-27,-6,-79,-155
-4,-240,-125,59,86,108,27,46,-17,-125
-95,-327,-185,-39,4,48,32,102,107,76
-101,2,34,-38,-62,-44,-52,58,108,60
92,158,146,-2,-56,-60,-110,3,91,-25
353,64,69,-10,-40,-31,-133,13,208,37
388,13,70,-15,-34,-33,-136,10,192,38
329,-21,82,-28,-44,-39,-117,-3,154,38
313,-1,79,-49,-49,-49,-101,-12,119,32
321,15,62,-27,-27,-46,-87,-10,80,-2
104,27,68,1,-13,-46,-85,-9,47,12
-98,44,76,0,-8,-58,-83,-20,64,52
-129,41,56,-13,-5,-39,-53,-2,93,52
-83,-32,-17,-35,13,-15,-27,8,92,56
-35,-78,-49,-57,3,-13,-12,18,120,168
10,-6,16,-26,22,-16,-24,8,66,120
63,44,52,1,39,-8,-29,-27,-11,35
107,-7,-47,-48,6,-12,-4,7,72,178
37,25,-39,-75,-30,-46,0,10,98,224
-17,90,5,-36,0,-47,-7,-26,65,140
-81,44,29,-34,11,-28,27,-12,78,82
-180,56,32,-11,24,-6,34,-7,73,19
-199,114,33,7,38,4,24,-29,31,-56
-117,84,12,-10,31,-6,9,-39,13,-29
-53,38,0,-10,31,-1,2,-41,-3,-34
-91,-37,-35,-8,40,18,3,-45,-11,-81
-184,-175,-101,-13,59,47,22,-7,-5,-103
-177,-233,-84,13,78,80,27,23,5,-97
-130,-160,-59,7,71,70,5,17,20,-69
-93,55,58,52,78,55,-36,-18,-35,-150
-101,12,14,22,66,62,-3,19,16,-72
-121,40,4,2,47,50,9,40,31,-58
-44,89,23,-9,20,20,-19,8,-5,-49
49,128,12,-10,0,-10,-53,-35,-38,-16
93,208,-2,-22,0,-34,-92,-81,-100,-28
225,193,-40,-53,-11,-51,-106,-111,-124,43
388,66,-79,-133,-48,-51,-86,-80,-67,231
412,-55,-155,-205,-82,-26,-15,4,53,437
268,85,-38,-127,-42,-25,-27,-33,2,315
259,197,14,-76,-20,-50,-54,-64,-33,218
247,126,-18,-86,-21,-61,-65,-48,-12,172
24,103,19,-32,16,-22,-85,-71,-37,-17
-159,39,3,11,60,41,-35,-27,-36,-165
-157,21,0,-2,73,54,-18,-16,-45,-207
-135,36,22,-9,71,25,-10,-17,-66,-170
-164,45,18,-9,58,-36,22,21,15,-89
-124,82,24,-17,42,-47,21,64,90,34
53,247,79,-4,27,43,-26,11,53,70
132,362,121,20,25,206,-36,-38,31,47
73,248,79,22,32,320,17,13,130,96
10,160,66,68,68,277,48,15,98,35
-122,101,61,116,94,144,49,-11,52,-114
-133,28,-13,52,42,14,-14,-83,-8,-164
-42,-154,-192,-94,-19,-53,-31,-76,34,-57
10,-4,-194,-55,17,-44,-26,-100,-16,-182
-6,142,-76,36,78,-6,3,-83,-28,-244
88,64,-14,-16,44,-22,3,-66,32,-51
136,50,-28,-60,6,-55,101,-100,5,4
98,-11,-80,-99,-1,-37,395,-72,22,62
114,3,-93,-102,-27,-7,430,-11,146,257
85,54,-57,-76,-12,49,217,0,97,162
8,-32,-98,-111,-23,46,-10,-22,-50,2
-55,-45,-106,-108,-27,23,-175,-58,-153,-61
-36,4,-46,-42,41,61,-310,-76,-158,-39
55,159,52,0,41,27,-310,52,-87,35
-35,63,-39,-61,-31,-40,-169,260,9,80
-23,-10,-125,-81,-50,-83,-176,284,23,82
8,47,-68,-76,-48,-53,-37,240,39,29
-1,122,-10,-50,-23,-36,63,102,38,36
-196,109,39,27,49,29,120,-79,-45,-34
-83,45,26,47,87,94,149,-67,19,15
78,99,43,35,64,62,48,16,142,95
46,77,32,0,46,43,-43,-37,159,114
-64,-22,-16,-47,19,13,-110,-85,38,10
-235,-143,-139,-137,-55,-61,-236,-86,-51,-160
-203,-126,-102,-139,-53,-60,-273,-72,-63,-247
-20,8,-11,-63,18,23,-141,-56,-61,-231
74,41,-67,-51,31,47,67,-66,-67,-160
97,-14,-79,-95,-5,28,246,-64,-41,-74
93,4,-29,-73,6,31,280,-68,-37,-41
153,44,11,2,69,95,202,-35,16,87
122,178,33,65,111,123,118,-45,34,88
78,190,32,-12,24,29,48,-208,-71,37
74,59,-111,-189,-140,-138,-203,-366,-209,91
99,52,-116,-201,-145,-142,-242,-337,-187,204
108,140,-19,-79,-47,-65,-73,-255,-134,220
14,121,2,-62,-36,-57,287,-104,-75,158
-158,-48,-79,-107,-81,-72,454,155,-3,59
-258,-28,14,-18,-7,-32,354,188,-32,-223
89,119,192,144,146,90,90,126,33,-228
381,137,232,153,160,66,-136,176,217,49
384,84,152,68,81,4,-38,118,211,64
85,81,89,37,44,-15,-67,82,56,-135
-196,114,77,61,43,-32,-157,38,-96,-344
-151,37,-42,8,16,-44,-189,11,-64,-242
-61,-32,-3,-16,6,-40,-119,-66,-59,-126
96,51,17,-51,-35,-61,-40,-287,-113,-10
241,55,-11,-92,-48,-62,8,-450,-146,68
285,70,-60,-156,-72,-69,182,-461,-168,109
262,96,-62,-161,-79,-59,302,-123,-150,133
75,22,-103,-180,-128,-113,93,356,-169,22
-316,-155,-213,-204,-125,-114,-22,591,-219,-230
-565,-244,-208,-163,-42,19,214,427,-190,-242
-205,53,10,-40,40,121,270,91,-137,96
81,328,215,133,190,199,43,-65,-54,333
132,305,173,139,171,136,149,56,74,368
-29,78,-95,-43,0,-91,-60,177,50,146
-16,-8,-158,-80,-36,-129,-328,205,118,38
184,21,-153,-48,-23,-110,-399,130,172,81
293,30,-132,-41,-17,-113,-262,89,48,-16
139,55,-33,-27,-11,-98,-225,73,15,-105
-73,113,64,37,34,-38,-189,-58,-54,-103
-122,77,59,35,53,-2,-117,-85,-77,-17
-39,-87,21,2,48,19,-22,17,63,194
-36,132,138,46,45,-10,-26,2,30,119
-63,344,252,117,69,-14,-16,-33,-85,-91
11,117,121,80,71,14,38,13,-75,-123
123,-59,2,28,39,11,41,34,-43,-39
170,-36,-2,-9,0,-6,51,32,-14,29
138,-58,-49,-81,-39,-21,64,55,47,133
14,-170,-90,-73,-11,9,84,63,59,127
-156,-31,33,18,33,11,65,14,-18,-53
-292,65,83,54,41,11,56,0,-66,-187
-278,49,-6,-13,-2,-5,70,40,24,-37
-391,100,-50,-10,10,27,70,32,4,-125
-372,9,-68,-17,11,32,31,16,-2,-133
-267,-80,-64,-29,6,17,19,12,24,-66
-78,-73,-108,-48,-19,-28,-25,-5,7,32
235,-14,-84,-82,-61,-78,-55,-20,29,198
321,12,-21,-80,-45,-59,-61,-40,11,286
317,33,10,-76,-36,-35,-57,-63,-17,311
96,-131,-36,-57,-4,9,2,-35,-55,164
103,-71,-48,-117,-59,-19,-16,-8,-45,138
183,148,-58,-150,-106,-49,-33,41,8,175
95,334,-27,-65,-74,-64,-42,8,-7,72
179,379,77,3,-47,-79,-81,-54,-72,-15
671,212,92,-11,-27,-44,-67,-28,-33,107
1173,96,10,-54,-39,-46,-71,-16,-12,199
666,13,-52,-110,-100,-101,-103,-41,-14,234
-468,-12,-34,-101,-115,-112,-128,-83,-71,79
-902,-68,-25,-49,-44,-59,-84,-81,-128,-119
-624,-186,7,35,72,46,7,-14,-102,-179
-592,-173,87,198,230,194,104,10,-162,-437
-638,-446,-14,233,323,321,206,48,-196,-548
-498,-291,-53,154,204,223,124,10,-182,-390
-213,-221,-51,67,88,101,61,7,-104,-149
-5,-198,-19,30,48,93,49,64,2,18
-21,24,-34,20,12,68,45,79,-3,-91
-75,251,27,-11,-44,-8,-24,18,-73,-168
-85,118,29,-21,-33,4,-15,38,-23,-69
-28,54,68,2,17,67,25,68,5,-60
16,38,73,14,30,55,30,65,18,1
90,22,52,-17,-1,26,-4,37,48,142
159,35,6,-62,-59,-7,-46,3,61,247
41,26,-26,-85,-88,-31,-62,13,61,245
-187,-34,-45,-106,-94,-41,-40,45,54,157
-348,-55,-34,-85,-76,-47,-40,11,-25,-35
-307,-131,-41,-53,-37,-5,-28,-20,-105,-203
147,-392,-130,-62,8,68,17,29,-19,-70
444,-274,-82,-69,-19,17,13,48,76,101
154,60,58,7,0,4,-3,-14,-35,-154
-41,20,24,34,40,54,5,-18,-72,-201
-155,-192,-107,-2,20,53,17,34,29,-19
-53,-80,-78,-62,-73,-44,-20,2,75,170
85,59,-37,-34,-69,-41,-14,-36,1,122
248,40,12,10,-9,-1,10,-14,0,124
364,72,67,28,24,22,24,20,24,119
192,64,93,99,92,78,41,-7,-63,-65
87,-60,19,48,58,37,28,0,-16,53
78,-156,-105,-92,-54,-31,56,92,169,269
-49,-109,-56,-51,-17,-6,72,82,156,101
-297,-222,-11,15,59,56,78,63,54,-135
-307,-190,70,53,79,33,13,-13,-58,-163
308,-71,4,-63,-62,-99,-99,-46,46,329
561,6,-36,-78,-92,-115,-144,-85,26,347
275,53,32,-4,-23,-69,-126,-114,-69,130
120,116,82,13,-5,-42,-76,-61,-44,117
-199,118,115,55,22,-4,-10,0,-16,-58
-303,205,159,91,55,33,14,-7,-60,-370
30,178,90,33,27,18,90,36,35,-225
-208,144,53,20,24,15,172,33,57,-75
-735,100,22,2,7,-5,164,0,-12,-83
-522,40,-17,-27,-16,-24,143,40,51,147
245,21,-31,-42,-32,-27,76,107,161,394
382,55,21,44,45,16,-29,30,10,98
195,-1,-12,138,136,44,-137,-129,-209,-217
57,-272,-50,164,185,82,-121,-126,-223,-173
109,-412,-182,91,143,102,-45,-44,-119,-112
356,-352,-269,-87,-16,15,-27,63,90,151
386,-95,-104,-97,-81,-72,-71,75,155,283
114,170,57,-22,-74,-102,-106,-27,-42,-24
-18,19,-59,-144,-190,-189,-212,-65,-65,76
120,-81,-185,-255,-284,-225,-307,-59,67,441
263,48,-102,-174,-208,-175,-229,-103,43,453
210,23,-77,-137,-163,-142,-62,-94,60,428
-124,-81,-43,-76,-88,-95,79,-58,35,239
-195,2,25,3,-24,-43,188,35,11,-56
-53,125,103,99,76,82,226,125,82,-219
-218,263,227,200,186,194,472,168,90,-455
-361,399,320,259,241,221,653,142,-8,-671
-80,238,163,148,164,142,373,51,-49,-383
109,-85,-57,-3,27,20,17,-80,-143,-188
117,-140,-176,-124,-128,-143,-380,-278,-351,-269
-54,-287,-304,-286,-256,-220,-681,-275,-442,-402
-366,-246,-225,-221,-171,-109,-452,-100,-258,-397
-614,-176,-81,-20,10,48,321,13,-148,-417
-450,24,78,104,90,74,814,-83,-209,-412
106,-28,80,82,118,131,791,-37,39,153
511,62,133,161,197,196,293,62,315,684
145,244,399,536,490,337,-258,65,129,65
214,-64,261,462,418,283,-172,222,164,-37
564,-229,-119,-51,-58,-72,-68,275,246,346
648,-191,-312,-311,-296,-255,-144,176,267,453
579,-148,-297,-301,-304,-280,-159,51,228,484
394,-111,-193,-204,-207,-186,54,27,180,374
-279,-24,16,22,28,14,176,102,27,-245
-853,26,93,93,91,57,27,68,-98,-618
-788,-78,-88,-45,-39,-51,-176,-46,-166,-402
-583,-206,-214,-86,-83,-59,-237,-95,-170,-172
-200,-123,-68,-7,0,20,-267,-82,-42,83
36,50,96,117,126,80,3,51,149,273
-199,95,110,159,146,58,245,177,184,144
-509,82,88,161,147,110,-9,196,53,-239
-498,13,100,193,196,301,-74,96,-84,-442
225,-204,-96,30,83,267,-58,-121,-44,1
431,-162,-101,-29,9,142,-48,-380,-104,98
-202,32,69,136,102,31,-79,-613,-367,-246
-256,-63,33,151,107,-81,-135,-502,-487,-357
-62,-365,-205,-130,-126,-241,-188,120,-105,229
13,-283,-309,-327,-332,-363,-178,584,303,752
278,21,-134,-191,-230,-239,7,504,326,546
371,186,-34,-12,-46,-62,131,180,222,241
260,234,139,157,123,55,148,-42,62,-119
-197,157,261,288,253,138,146,-17,-51,-512
-488,38,245,291,238,113,60,39,-22,-500
-307,-58,104,132,64,-26,-77,79,64,-186
198,-72,-112,-56,-109,-158,-151,93,122,280
425,-3,-138,-90,-138,-182,-161,81,91,473
308,86,49,-15,-70,-137,-124,18,35,300
121,161,194,118,50,-42,-38,-10,-86,-197
-131,7,205,213,192,105,46,-1,-183,-522
13,-194,37,176,218,144,49,29,-126,-223
473,-157,-11,84,100,104,50,154,-5,214
401,147,0,-52,-88,-51,-7,146,-5,277
-81,375,-32,-181,-219,-119,167,154,26,161
-580,137,-38,-58,-42,55,451,151,-21,-176
-438,169,103,170,175,203,371,55,-103,-411
-190,103,72,93,108,108,100,-23,-135,-277
-144,-57,-77,-83,-83,-69,-7,-42,-177,-191
78,-43,-136,-167,-178,-139,-17,-63,-136,-108
391,-89,-189,-204,-192,-133,-162,-74,58,346
926,-107,-215,-221,-234,-212,-365,-116,142,928
1276,-92,-260,-305,-346,-373,-499,-145,143,1173
1021,6,-134,-207,-296,-345,-420,-193,70,906
88,166,108,51,-39,-104,-177,-112,16,87
-930,304,318,296,234,139,40,-16,-68,-774
-1244,234,348,391,361,283,147,10,-174,-1017
-937,-260,43,203,245,261,223,136,64,-440
-492,-171,26,134,153,173,149,75,13,-359
-88,-193,5,123,153,163,128,-13,-85,-395
322,-333,-83,68,96,105,72,-94,-91,-227
229,-40,126,214,163,95,-16,-261,-332,-511
-47,-206,-12,194,170,115,67,-167,-246,-325
175,2,-1,58,5,-7,71,-46,10,69
289,156,37,-34,-105,-87,22,-62,81,223
86,-31,-42,-49,-79,-26,76,-10,68,108
-8,-228,-102,-20,-29,30,145,81,156,149
118,221,66,5,-62,-57,27,-10,137,221
294,410,146,-27,-135,-119,-34,-21,195,451
161,427,182,-93,-187,-182,-41,21,259,482
-40,389,234,-26,-112,-170,-38,-7,167,311
-247,108,136,34,-24,-53,8,-13,71,59
-371,-332,-116,-1,13,34,92,46,45,-106
-218,-525,-285,-37,27,25,137,72,32,-149
128,-547,-361,-78,13,50,139,70,46,-8
434,-304,-223,-132,-85,107,32,18,96,324
197,-74,-67,-106,-109,164,-62,-46,69,361
-66,94,66,-11,-55,158,-92,-85,18,219
78,118,84,48,0,80,-83,-80,6,240
-57,21,80,109,56,-5,-67,-111,-87,51
72,3,2,10,-25,-143,-162,-195,-199,-66
719,52,-149,-175,-204,-284,-264,-203,-109,285
608,126,-60,-65,-131,-203,-206,-177,-164,136
189,33,27,57,10,-37,-29,-62,-195,-306
141,-158,-162,-122,-77,-49,81,117,66,-318
133,-52,-122,-120,-88,-95,59,95,97,-312
342,5,-7,-3,-16,-75,47,75,94,-67
592,6,-100,2,-32,-86,41,65,118,181
139,-50,-160,-19,-54,-84,26,61,151,322
-577,-144,-70,-4,-22,-29,35,61,66,82
-1359,-238,29,164,167,135,126,34,-106,-480
-1807,-321,182,426,418,316,180,-39,-310,-856
-942,-279,138,255,232,189,121,17,-107,-359
-89,-439,-214,-177,-116,-8,86,219,357,527
-186,120,-39,-173,-206,-144,-85,30,125,186
-607,264,41,-66,-132,-123,-76,-47,-71,-207
-624,26,-25,-2,-31,0,30,62,29,-176
-71,3,93,87,57,82,87,113,59,-193
294,16,103,91,55,74,70,100,69,-124
203,5,52,21,-12,7,13,64,87,65
305,-19,-12,-28,-63,-61,-36,36,127,306
420,-18,-19,-37,-84,-87,-61,-5,125,382
148,187,124,102,-10,-60,-59,-117,-84,-77
110,33,81,148,60,55,39,-52,-69,-113
382,6,84,160,87,88,69,-24,-33,40
389,122,119,146,75,55,15,-65,-89,141
612,173,-15,-110,-163,-161,-155,-106,3,640
883,144,-199,-316,-342,-345,-301,-162,58,1032
531,157,-131,-207,-253,-265,-247,-116,53,793
180,19,-32,-55,-97,-102,-104,-9,64,399
-159,-184,-57,8,9,19,106,99,126,-44
-126,168,152,134,93,82,227,80,18,-380
103,173,79,8,-4,29,188,99,74,8
-11,204,57,-49,-36,7,116,75,42,33
45,287,50,-69,-79,-44,-14,23,69,226
15,317,70,-40,-99,-103,-180,-62,23,186
-194,152,47,18,-31,-23,-158,-55,-57,-299
-438,-137,-19,63,66,90,5,93,-41,-691
-496,-295,-74,88,108,117,51,141,-70,-713
-341,-314,-22,148,182,124,28,39,-188,-739
90,-265,39,249,273,174,31,-83,-355,-737
-24,-499,5,392,431,328,126,-78,-408,-616
-577,-956,-155,307,404,377,249,123,-105,-241
-185,-555,-258,-93,-27,38,65,156,189,252
-150,225,-39,-196,-225,-160,-115,-2,17,-184
23,48,-180,-261,-254,-138,-97,53,195,121
-3,268,-28,-87,-139,-106,-119,-47,48,-43
-46,164,22,-31,-78,-59,-31,-17,65,93
58,98,31,-30,-62,-42,107,33,93,147
14,74,45,26,11,10,208,24,38,-51
-122,32,51,83,66,63,140,10,29,-161
-179,20,39,66,58,77,46,10,60,-186
-81,38,1,8,-4,35,-19,14,51,-105
17,69,-8,20,-21,21,18,42,-28,-121
65,65,-65,57,4,39,69,17,-101,-222
126,10,-118,54,4,12,90,-51,-68,-107
220,159,0,-27,-113,-123,-60,-209,-124,-1
227,21,-228,-209,-284,-256,-343,-382,-362,-91
445,-201,-457,-395,-421,-285,-191,-192,-151,437
405,-262,-400,-420,-403,-240,262,-36,-17,650
81,-174,-312,-368,-356,-270,532,-65,-154,305
59,-150,-290,-349,-368,-314,514,-99,-246,67
37,-209,-180,-158,-161,-124,288,-128,-275,-233
135,23,137,167,156,156,-127,-111,-114,-294
565,165,231,273,290,260,-406,71,260,190
642,353,319,330,286,180,-304,235,407,275
676,162,124,125,90,-32,-396,390,558,539
290,155,113,119,61,-75,-362,189,333,385
-421,285,244,197,125,7,-164,69,141,-101
-787,159,228,246,229,143,15,89,59,-476
-574,244,257,358,313,195,24,-32,-136,-567
-241,269,314,375,307,191,7,-142,-180,-381
-229,-39,132,263,271,238,110,-133,-99,-230
50,-141,-88,32,96,152,107,-68,60,76
290,-81,-148,-52,4,51,-5,-54,74,269
101,-216,-151,14,78,89,-13,39,118,406
206,-63,-143,-86,-58,-28,-91,173,340,668
17,173,-128,-201,-213,-158,-157,95,246,404
-317,131,-29,-75,-72,-46,-80,-217,38,72
-515,33,6,29,35,44,6,-315,-53,-48
-194,-1,-63,-18,-33,-30,-79,-289,-55,347
353,-275,-402,-242,-235,-208,-301,63,-65,857
713,-228,-502,-466,-502,-459,-543,420,-85,907
626,-112,-355,-448,-442,-412,-444,497,42,665
-34,-158,-150,-206,-182,-152,-8,365,364,346
-373,0,69,6,-2,41,536,118,398,119
-584,270,252,176,140,137,825,-95,135,-257
-529,411,278,186,151,131,575,-147,-14,-491
-163,444,284,177,126,72,-39,-113,-73,-612
-382,221,107,20,-38,-103,-555,-183,-302,-956
-598,-170,-123,-94,-95,-127,-590,-177,-418,-1072
-484,-367,-75,27,80,52,-305,-85,-394,-1079
-4,-403,-52,43,101,53,14,-55,-289,-806
63,-245,-19,42,83,58,536,-27,-120,-336
-4,73,224,310,301,194,832,-103,-160,-246
76,101,336,487,476,305,453,-154,-314,-383
501,-454,-23,215,272,187,-108,73,63,250
455,278,142,29,-64,-195,-500,21,163,409
269,527,210,-32,-160,-260,-365,0,110,182
532,114,37,-60,-89,-125,-168,61,158,255
40,-58,-20,-39,-46,-79,-104,60,187,358
-306,-97,-15,34,31,27,17,111,206,364
-46,-71,-32,12,20,35,17,87,159,347
17,-30,-76,-50,-50,-11,-27,66,149,299
33,81,2,0,-7,3,-9,26,24,-4
68,141,94,62,58,30,-7,-25,-88,-178
17,132,80,54,23,11,-13,33,-68,-132
-178,48,46,13,-18,18,28,106,19,-7
-370,-63,43,37,25,59,38,56,-2,7
-232,2,145,160,124,101,-15,-74,-152,-78
27,54,178,194,140,97,-29,-85,-183,-91
282,-39,49,51,48,41,-38,-38,-57,84
569,-154,-179,-150,-89,-49,-58,24,131,493
614,-133,-185,-119,-69,-58,-49,14,105,413
356,-113,-73,-21,5,30,32,53,35,2
143,-60,-119,-26,20,59,92,105,58,-214
-125,184,95,57,46,36,47,37,-53,-487
-113,198,144,36,9,-1,9,-3,-39,-273
-178,11,38,-19,-14,-10,35,22,39,-24
-109,-55,-16,-72,-56,-45,33,33,57,66
-91,-86,-70,-103,-69,-58,29,32,48,88
-144,-42,-82,-104,-81,-53,16,47,87,210
131,27,17,-5,-2,7,27,17,-3,-88
152,-6,84,63,55,58,48,9,-46,-290
-12,-61,71,71,41,38,-12,-39,-101,-174
-150,-178,24,63,36,3,-67,-89,-127,21
-406,-189,128,178,140,59,-48,-126,-207,-129
-376,-100,169,238,178,91,-17,-125,-189,-15
138,-67,28,16,-29,-57,-11,-97,-12,560
52,-88,-100,-150,-139,-112,136,-131,-87,355
-143,-165,-163,-167,-156,-53,330,13,24,9
-553,-57,-86,-72,-51,49,289,69,19,-425
-614,89,-21,-9,9,46,-9,0,-136,-538
-159,297,54,-31,-11,23,-163,19,-111,-265
372,490,104,-54,-44,0,-202,38,-6,52
789,610,140,-75,-93,-93,-276,-11,48,288
1117,438,33,-146,-179,-210,-181,-22,90,574
1473,116,-233,-269,-291,-308,-204,-41,180,1094
1620,-47,-362,-318,-333,-341,-356,-120,185,1311
681,-199,-237,-168,-188,-198,-239,-112,52,580
-580,-309,33,190,228,161,82,-6,-106,-699
-1287,-515,102,423,523,446,326,123,-205,-1273
-969,-418,183,454,521,425,279,10,-380,-1137
-397,-149,167,200,237,187,98,-49,-211,-322
-512,-94,-62,-110,-63,-16,30,56,125,311
-484,-69,-26,-25,0,17,37,14,51,58
-209,-96,-61,-90,-91,-67,20,18,165,391
-371,-25,-132,-287,-331,-251,-131,-42,209,475
-673,-84,-161,-298,-344,-271,-396,-225,-127,-357
-1018,-249,-107,-108,-110,-35,-260,-92,-186,-832
-551,-168,30,64,92,174,210,101,-67,-768
-160,-63,53,60,80,175,630,81,8,-462
-42,-14,2,23,24,91,821,-10,16,-126
131,57,8,8,0,40,655,-29,63,87
171,92,74,51,25,65,150,98,187,207
165,76,81,72,16,0,-389,248,275,282
222,122,123,93,13,-72,-397,173,138,199
257,112,167,172,108,-12,-242,-3,-78,45
243,-126,-6,82,79,-3,-120,-9,-22,272
290,134,47,115,68,-36,-134,-108,-117,276
55,43,115,224,171,61,-88,-137,-202,40
-148,-55,13,67,62,58,-14,37,14,0
-101,343,-32,-164,-176,-116,-76,97,160,97
-160,279,-89,-230,-232,-177,-97,65,140,137
-60,105,-103,-156,-157,-115,-86,54,97,249
369,196,-15,-71,-97,-92,-91,14,38,199
923,286,50,-59,-108,-113,-96,10,54,329
1086,323,80,-59,-129,-117,-9,48,125,391
1094,374,80,-6,-81,-61,147,63,108,211
745,257,69,35,-8,1,158,49,19,-31
207,40,2,105,110,144,151,46,-45,-222
-442,-125,18,195,218,238,137,17,-106,-459
-615,-127,-25,48,61,72,-19,-3,49,-13
-658,-407,-165,-23,30,55,-88,4,92,162
-726,-458,-187,49,108,71,-142,-35,-68,-136
-743,-510,-169,103,149,87,-93,-6,-146,-296
-316,-207,-75,-60,-84,-125,-211,-74,-72,41
28,-109,-194,-252,-254,-233,-248,-36,123,497
77,-9,-208,-221,-226,-198,-207,-23,154,518
309,66,-212,-192,-203,-188,-195,-40,133,667
606,80,-104,-146,-162,-121,-149,-65,58,583
-205,-53,68,108,131,173,163,8,-104,-570
-1014,-71,233,361,396,421,475,96,-139,-1372
-803,148,325,410,423,401,477,4,-261,-1328
-333,-101,121,252,310,304,353,-28,-221,-775
-134,-29,112,152,174,155,72,-127,-185,-499
-282,41,171,200,201,153,-21,-180,-197,-466
147,-123,-30,-65,-59,-13,92,-108,57,195
608,-105,-214,-341,-319,-219,59,-100,199,693
561,-66,-257,-379,-352,-262,-35,-129,80,600
356,-51,-230,-284,-283,-214,-181,-122,9,335
222,-60,-176,-198,-199,-154,-253,-48,-34,166
136,-71,-148,-209,-199,-138,-244,147,26,259
131,1,-84,-126,-128,-57,-104,89,45,325
-38,-75,-29,30,43,30,68,-42,-139,-166
-263,-267,72,255,288,204,137,-4,-334,-890
104,-113,131,210,225,188,155,132,-191,-649
373,236,70,-72,-93,-80,-27,127,-37,-55
-226,135,-6,-174,-196,-179,50,124,144,434
-598,278,117,-41,-94,-125,246,32,174,478
-401,384,246,119,54,-21,57,34,160,141
147,417,310,187,140,27,-369,153,328,108
449,424,272,165,136,7,-416,177,374,145
343,278,159,147,148,31,-209,40,179,-112
223,126,97,156,159,94,-57,11,90,-283
94,-7,21,101,128,117,-21,30,82,-169
-194,-185,-58,71,125,139,-1,49,42,-166
-317,-256,-147,15,82,126,12,162,71,-99
-442,-316,-152,-1,76,156,66,286,88,-58
-565,-299,-99,20,93,141,37,242,29,-33
-486,-274,-50,68,129,115,-37,104,-21,29
85,18,43,69,72,-6,-199,-132,-117,173
344,-203,-187,-68,-25,-64,-224,-218,-120,205
302,-607,-406,-252,-191,-168,-301,-216,-36,332
188,39,-83,-210,-270,-259,-390,-379,-319,-250
7,184,64,-45,-118,-110,-89,-345,-361,-400
248,-9,-45,-105,-145,-103,313,-298,-217,-36
517,9,-92,-160,-182,-98,751,-398,-94,299
378,21,-78,-92,-104,11,855,-431,123,454
-46,-20,-128,-77,-60,35,209,-531,-26,10
-417,-157,-162,-112,-51,-8,-542,-330,-191,-308
-239,-177,-228,-213,-187,-156,-705,203,-32,22
43,-118,-233,-245,-257,-230,-281,456,45,179
-31,33,-7,-11,-52,-68,409,255,21,-167
-292,99,63,115,94,63,925,121,99,-302
-226,153,167,210,230,241,898,247,291,48
382,320,257,247,231,165,43,236,391,528
616,284,150,132,86,-67,-456,105,261,512
-43,204,200,191,147,27,-236,113,123,-175
-331,220,244,246,209,142,-45,216,87,-446
-99,146,85,91,82,43,-77,219,110,-61
34,248,83,93,50,-17,-143,41,-25,-126
354,63,60,39,16,-27,-93,0,-24,8
484,-70,1,-42,-54,-85,-109,-13,-17,231
203,47,34,-49,-85,-103,-131,-22,-28,141
141,-9,-5,-52,-49,-54,-52,41,25,169
63,-32,-44,-18,-10,-22,-11,46,-5,214
173,-44,-98,-72,-60,-75,-81,8,29,614
633,-67,-174,-183,-185,-199,-151,-80,76,1141
814,-233,-213,-138,-121,-140,1,-123,33,1245
804,-132,-49,34,-1,-84,42,-161,8,1127
102,46,86,150,95,27,87,-88,-47,264
-878,248,383,377,293,247,222,22,-243,-928
-899,27,68,-18,6,70,106,88,-106,-689
-179,211,-97,-258,-228,-174,-194,-81,-137,-493
-48,248,169,79,43,33,-93,-37,-203,-1035
-555,31,161,170,172,193,77,156,-81,-988
-650,-36,63,73,97,134,53,156,-33,-448
-277,-19,-8,-39,-41,3,-24,55,-44,55
168,95,-67,-157,-189,-166,-164,-61,-74,358
-87,69,-78,-149,-173,-166,-161,-87,-92,141
-419,-95,-56,-52,-42,-24,-17,22,12,-79
69,-223,-82,15,67,104,119,125,124,-122
133,-288,-123,30,86,151,174,134,129,-208
93,-219,-93,33,72,137,137,103,78,-259
120,-117,-34,47,82,117,88,44,-17,-142
401,-26,-42,-14,-5,-19,-32,-78,-36,419
768,146,-9,-35,-73,-124,-160,-235,-146,589
377,-89,-26,42,45,38,-20,-153,-188,-103
-283,-342,-176,18,92,176,173,129,143,-305
-760,263,98,176,183,212,157,66,-54,-894
-636,169,156,157,186,207,151,41,-91,-753
-478,-120,35,44,108,156,130,71,8,-310
-437,29,113,86,115,110,49,-28,-99,-399
-236,20,141,84,89,48,5,-46,-116,-364
-75,43,41,20,0,-23,1,29,-67,-206
91,44,-58,-36,-44,-49,-10,45,-45,-17
387,-26,-56,-86,-83,-82,-46,26,19,276
486,-21,-60,-44,-54,-67,-72,-6,-9,283
163,-90,-41,41,39,16,-28,-5,-57,25
-228,-11,94,152,140,94,36,-3,-106,-271
-69,123,203,184,161,89,38,-24,-123,-230
224,161,115,2,-16,-47,-21,-11,-4,91
306,8,-24,-142,-116,-101,-22,8,48,218
457,-6,-84,-170,-139,-142,-65,-55,-7,277
539,191,-19,-142,-149,-180,-154,-168,-119,268
122,-42,-13,-50,-58,-86,-108,-167,-145,220
-151,-168,-132,-124,-121,-121,-113,-113,-45,410
-524,-286,-195,-150,-131,-94,-22,24,143,388
-729,-79,-25,-44,-47,-2,60,104,226,203
-225,-52,31,-35,-19,17,72,80,177,149
312,-50,-51,-121,-110,-99,-23,0,123,245
345,154,59,-39,-68,-96,-41,-44,13,-13
0,135,122,74,49,41,69,10,-11,-268
-299,47,90,135,129,152,150,54,-12,-400
-52,44,48,106,108,139,128,44,2,-229
228,53,41,24,36,59,38,6,22,-23
238,46,5,-32,-19,-5,-15,-11,30,91
335,31,-52,-85,-79,-78,-71,-55,24,267
336,-9,-84,-112,-111,-107,-55,-89,24,347
33,-31,-54,-54,-40,-35,84,-59,11,185
-326,-175,-49,41,96,87,310,19,7,74
-301,-340,-97,84,148,108,364,-33,-50,214
-69,148,136,136,90,0,134,-215,-207,68
-322,-1,143,106,84,69,56,-89,-147,-331
210,-90,-92,-166,-107,1,-20,180,275,213
-242,-86,-86,-109,-53,44,-121,239,181,-49
-526,15,20,15,14,20,-334,134,-93,-528
-213,-136,-84,-48,-55,-51,-323,146,-54,-400
-100,-105,-94,-46,-59,-70,-254,-12,-108,-304
16,24,-99,-76,-113,-127,-193,-172,-138,81
364,129,-115,-143,-197,-193,-101,-190,-41,435
466,228,-59,-83,-134,-146,18,-50,92,344
413,256,-4,7,-34,-69,-27,39,192,174
585,239,55,-31,-81,-138,-146,-41,225,577
677,161,1,-138,-197,-242,-201,-86,278,1062
340,147,66,-64,-110,-162,-146,-84,142,638
-344,138,183,166,143,113,75,-14,-17,-335
-822,167,309,413,420,375,269,-282,-303,-1022
-842,113,374,515,528,467,338,-627,-509,-1145
-409,37,264,301,316,342,489,-595,-305,-654
-89,-210,-101,-63,43,196,622,-267,-68,-178
-37,-461,-240,-157,-53,92,493,249,-16,-23
-332,-477,-273,-230,-174,-115,142,644,-100,-291
-627,-569,-386,-332,-286,-255,-149,752,-57,-360
-242,-397,-299,-274,-249,-207,-283,369,-8,-163
256,-34,-73,-100,-106,-70,-334,35,-56,-89
774,223,100,74,55,64,-223,-56,44,204
1102,383,197,139,104,79,-51,37,165,444
823,363,195,119,59,-41,-130,166,176,360
-414,104,137,128,79,-2,-105,337,152,-25
-1033,-69,88,115,103,51,-17,391,140,-178
-392,-101,77,141,159,90,36,332,83,-175
-543,-369,-5,191,226,164,111,268,35,-253
-423,-276,-16,166,147,93,31,113,82,-48
53,137,-49,45,-24,-64,-86,-43,103,136
76,-61,-203,-77,-86,-79,-64,-59,148,247
54,-357,-218,-90,-51,-19,-45,-129,80,306
-45,-86,-3,17,-7,-12,-75,-239,-147,-41
400,62,-4,-96,-158,-148,-126,-222,-13,371
1089,-25,-228,-354,-400,-335,-251,-202,224,1134
1155,123,-164,-339,-421,-388,-304,-201,266,1100
269,97,31,-77,-131,-113,-59,-82,133,82
-670,0,196,191,203,203,209,20,-110,-866
-623,43,198,205,211,200,210,24,-182,-778
-273,62,103,73,82,105,138,40,-59,-360
-250,120,113,68,63,98,126,47,3,-285
-220,221,178,115,81,110,72,5,-42,-280
-70,152,139,73,50,74,11,-31,-56,-137
15,16,69,34,34,51,-3,-38,-65,-97
110,-70,53,42,56,61,-1,-39,-85,-206
456,-59,27,51,55,53,-46,-93,-146,-174
516,185,165,187,135,84,-96,-258,-370,-286
176,-33,64,166,130,139,63,-234,-352,-200
210,-78,-46,-97,-100,9,175,-55,17,491
371,252,68,-118,-147,-67,111,-76,59,629
313,164,25,-66,-104,-66,-32,-93,64,668
74,-143,-156,-185,-195,-135,-125,-28,113,687
-235,-208,-251,-281,-302,-230,-237,-38,-27,318
-440,-356,-399,-426,-439,-346,-472,21,30,40
-406,-253,-292,-298,-350,-240,-524,110,96,-215
-199,-74,-94,-80,-140,-55,-299,98,108,-200
-135,-28,14,75,31,103,220,36,11,-288
223,17,34,107,63,123,732,-41,-120,-339
798,115,58,94,29,90,737,-96,-130,-47
982,262,95,73,18,71,182,-80,42,356
583,307,124,114,38,48,-366,17,208,395
-49,80,33,144,89,81,-252,66,217,166
-555,144,115,161,99,84,-91,-3,84,-175
-756,234,243,261,157,105,-66,-63,-35,-320
-408,124,198,213,105,53,-47,-10,9,-29
324,-9,-18,-42,-115,-122,-80,65,140,541
610,-60,-155,-192,-236,-202,-93,118,244,700
143,15,-30,-57,-100,-79,-22,100,125,80
-571,22,100,139,106,110,105,102,-35,-695
-666,-4,135,220,200,189,146,81,-111,-761
-382,-47,99,192,172,168,109,35,-123,-521
-239,-161,39,191,187,183,109,21,-103,-364
-444,7,168,347,309,239,127,-44,-246,-613
-551,-23,136,278,260,223,148,-25,-201,-529
-418,-207,-69,105,156,183,167,75,-34,-247
28,-177,-173,-81,-47,16,101,137,202,232
312,139,-165,-238,-254,-180,-56,65,207,388
460,41,-261,-303,-310,-233,-125,32,216,642
861,-32,-325,-385,-396,-338,-237,-56,215,1110
1188,78,-347,-451,-502,-474,-368,-166,133,1281
717,13,-207,-331,-372,-348,-240,-112,113,719
-197,-41,52,6,15,20,74,54,81,-249
-609,6,211,199,238,194,169,88,-69,-731
-311,-25,137,137,174,125,103,37,-133,-453
-12,-23,44,31,66,17,41,7,-69,-144
-122,47,60,62,87,42,51,17,-34,-253
-259,56,111,95,121,79,44,32,-46,-298
-371,-8,79,75,96,76,42,36,-7,-218
-444,25,90,110,123,80,18,-4,-84,-298
-490,56,139,236,258,180,54,-42,-220,-567
-260,-102,151,298,332,278,107,-32,-243,-571
237,-135,-33,-4,54,93,52,59,48,78
560,297,3,-124,-133,-122,-128,-104,-13,269
702,231,-8,-116,-122,-124,-136,-120,-9,517
241,46,-94,-120,-88,-92,-79,-66,16,295
-334,2,-39,-47,25,16,12,-20,-43,-277
-430,-61,-41,-26,60,44,101,16,-50,-260
-94,-26,-61,-67,4,-20,149,-7,-16,51
266,-7,-108,-144,-109,-100,104,-6,76,463
513,-36,-191,-210,-166,-137,-8,1,112,656
439,-92,-188,-246,-200,-170,-126,-40,94,697
495,-100,-196,-297,-280,-232,-180,-200,56,844
642,-80,-179,-273,-273,-234,-119,-314,-29,755
84,-34,-27,-111,-107,-108,75,-204,-111,115
-932,-9,250,278,296,240,411,139,-218,-1012
-949,-88,311,391,429,366,432,349,-187,-1144
-603,40,195,212,217,175,137,322,-160,-901
-558,-143,-32,26,57,58,-210,217,-68,-595
-206,-154,-104,-67,-52,-58,-549,-37,-25,-170
452,-14,-134,-162,-170,-181,-596,-52,174,324
752,196,-50,-118,-138,-150,-453,-72,317,400
696,255,23,-4,4,11,15,-100,288,341
507,246,47,23,41,43,518,-56,211,385
-18,67,11,38,101,110,727,75,180,111
-422,-72,75,168,235,224,429,122,30,-382
-22,44,141,186,198,144,-104,75,25,-217
301,78,113,120,114,47,-251,44,58,68
166,-44,82,128,121,27,-223,-40,-45,65
162,-226,-75,-45,-36,-80,-224,-24,20,399
-284,150,15,-114,-143,-152,-219,-50,-67,51
-599,121,28,-50,-75,-60,-74,3,-94,-335
-544,-41,-18,-3,1,20,21,70,-23,-297
-221,0,37,46,65,76,67,59,-21,-226
-198,-35,72,86,115,131,133,60,-31,-365
-293,-46,80,84,109,112,128,44,-59,-356
-117,-14,55,32,55,33,62,6,-52,-143
20,45,50,11,18,-3,29,-23,-28,-9
308,173,-37,-10,-9,-22,1,-30,0,108
1131,276,-170,-133,-151,-188,-146,-126,19,660
1723,162,-323,-338,-370,-385,-311,-217,39,1220
1046,-135,-315,-286,-281,-209,-181,-119,57,736
-352,-116,15,54,89,135,107,16,3,-411
-1231,-9,203,207,244,312,377,101,-60,-853
-1406,-108,99,164,230,346,527,121,-132,-879
-1264,-128,47,104,158,253,449,59,-156,-719
-762,-113,-20,-21,2,70,231,-106,-195,-491
-202,-158,-105,-139,-131,-83,10,-210,-171,-244
231,-78,-160,-148,-148,-94,-146,-211,-156,-120
385,56,-30,-20,-32,-27,-240,-174,-40,183
-47,26,62,0,-12,-11,-118,-41,161,547
-501,-3,-5,-79,-109,-135,-154,165,267,524
-466,-58,5,-39,-38,-97,-145,342,317,309
254,-65,82,85,93,14,-57,306,261,29
479,-23,70,115,125,31,-47,134,97,-80
357,-77,20,9,35,-21,-66,34,46,119
336,-35,-20,-12,-12,-71,-96,-36,-2,199
178,38,71,46,29,-27,-67,-33,-43,83
-141,-110,67,72,86,66,34,39,6,-54
-234,-2,88,109,118,96,52,34,-67,-284
-47,54,104,114,93,47,-25,-36,-110,-180
159,-42,85,93,58,5,-84,-52,-45,135
461,-35,30,-20,-63,-102,-159,-72,17,399
461,3,1,-83,-122,-148,-191,-92,-6,317
-69,-144,-29,-11,13,34,-4,63,32,32
-485,-234,-17,73,136,179,157,235,19,-200
-188,-31,30,24,55,105,105,236,-28,-3
366,110,-4,-76,-69,-15,10,140,-28,339
393,141,-6,-52,-44,-31,23,94,30,386
79,113,10,-1,17,8,43,63,56,117
-123,-12,0,37,64,120,34,-7,-17,-121
-57,27,27,38,43,202,37,-8,-3,-151
-119,94,95,59,52,214,58,34,109,-230
-219,-152,-36,8,35,144,171,-32,104,-132
109,-201,-185,-140,-98,-57,189,-149,31,142
364,-97,-235,-223,-204,-211,35,-226,-35,193
145,-53,-131,-146,-148,-207,-64,-199,-83,-79
-298,-47,0,-19,-3,-92,-52,-92,-101,-425
-437,29,112,95,103,0,-53,-50,-138,-517
-287,-15,77,85,104,10,-99,-39,-66,-277
-136,0,45,20,41,-46,-133,-8,44,21
-202,112,64,53,39,-56,-105,16,11,-37
-234,90,44,123,111,8,-8,-6,-61,-187
73,139,41,52,29,-38,-20,-25,-1,53
385,173,-59,-18,-75,-107,-93,-40,90,354
353,227,-3,-16,-99,-103,-120,-75,70,341
180,77,64,28,-28,-1,-33,-26,91,275
257,-2,55,-26,-44,6,17,14,135,321
85,148,143,0,-11,12,0,-45,0,57
-129,195,213,96,50,33,-19,-120,-152,-192
-80,7,47,28,13,26,21,-61,-106,-152
20,-233,-141,-61,-19,32,62,37,-7,-5
253,-124,-114,-123,-125,-78,-53,-13,44,363
534,114,-22,-190,-236,-219,-198,-71,104,732
317,90,-46,-176,-189,-174,-194,-62,25,479
-263,-67,-35,-57,-53,-29,-121,-3,-54,-65
-218,-65,-12,6,16,35,-87,-22,-60,-137
-117,3,8,-24,-11,29,-34,-207,-72,-83
-9,-53,-38,-85,-47,6,71,-386,-110,-133
30,-115,-93,-150,-109,-60,56,-560,-258,-404
-42,-171,-159,-177,-140,-103,-144,-492,-425,-677
-105,-67,-112,-53,-29,0,-216,81,-305,-630
-101,15,-66,-72,-24,30,-48,602,-49,-267
34,125,-55,-129,-78,1,540,581,129,226
580,90,-61,-143,-131,-52,1013,223,141,479
640,131,32,-6,6,63,911,-43,53,314
580,170,171,163,170,170,181,-88,140,446
619,209,250,212,172,103,-430,-44,274,724
254,162,255,206,151,65,-417,-83,132,509
-240,32,169,179,156,101,-310,19,54,118
-728,-20,158,196,196,169,-85,281,109,-328
-738,-177,45,136,152,150,-5,453,279,-217
-604,-166,11,68,70,56,-35,432,301,-113
-657,-116,19,59,36,34,-42,243,74,-371
-601,-225,-24,72,69,94,1,83,-43,-462
-212,-190,-77,-1,7,35,-41,-18,-25,-241
83,46,-8,30,3,-26,-136,-175,-114,-267
73,50,42,86,45,5,-116,-185,-167,-366
0,108,-13,-48,-60,-33,-41,-32,65,-72
-555,518,94,-24,2,23,46,88,134,-53
-396,810,204,58,109,114,109,146,114,-25
344,321,130,65,66,74,61,68,52,31
619,-29,-27,-39,-63,-38,-28,-54,-4,258
521,-127,-130,-125,-164,-105,-87,-88,18,464
37,-136,-70,-63,-95,-44,-28,-51,10,85
-532,-120,43,61,50,104,111,24,-17,-418
-510,-88,30,48,50,97,130,35,0,-251
-201,-58,-14,32,16,23,67,-17,-18,-21
62,-89,6,0,-19,-49,-8,-73,-65,86
320,-115,-27,-63,-86,-110,-27,-18,-56,165
242,-50,-21,-52,-77,-96,-11,-10,-53,35
-117,-102,-17,0,-3,-3,56,14,-86,-238
-171,-116,-65,12,24,12,91,32,-98,-204
-63,-21,-92,17,29,-1,71,-1,-83,35
210,9,-122,-30,1,-34,28,-12,-35,325
363,344,71,0,19,-16,25,3,-59,352
525,745,189,-1,39,-11,48,106,8,361
130,188,34,-26,-16,-45,24,155,63,228
-146,-316,-76,-50,-51,-61,1,94,51,144
-263,-154,37,18,13,-13,-2,-70,-62,-218
-552,-133,101,120,132,95,72,-110,-145,-595
-523,-110,119,162,164,138,56,-156,-214,-582
-339,-126,27,77,108,99,11,-128,-122,-253
-255,-141,-15,28,55,43,-32,-100,-18,-10
-66,-33,-9,-11,-11,-33,-76,-86,53,162
268,24,-10,-20,-21,-32,-60,-31,84,152
545,10,8,6,-1,-2,12,24,88,140
261,156,80,43,9,-4,13,-1,42,69
41,184,1,-12,-48,-68,-46,-17,39,184
74,184,-52,-45,-63,-85,-50,-46,0,187
164,112,-59,-74,-33,-15,25,-8,41,157
349,323,-74,-90,8,29,73,35,41,59
357,626,10,-10,115,109,115,49,-26,-177
214,568,63,21,154,145,125,77,-11,-234
177,427,24,-14,107,100,88,90,41,-87
51,235,-21,-75,33,51,78,59,57,64
279,396,-103,-150,-45,-13,155,41,137,391
475,402,-113,-173,-64,-44,160,6,161,552
237,39,-9,-44,16,11,95,-81,-17,220
-324,-339,27,99,113,101,55,-124,-168,-322
-269,-486,-10,49,66,68,-19,-107,-126,-249
-15,-474,-51,-70,-66,-61,-157,-113,-81,-14
11,-200,-31,-105,-64,-60,-196,-16,-30,-51
-23,457,173,29,85,18,-132,127,15,-161
-66,460,167,62,124,70,-31,200,45,-188
12,334,61,-31,39,26,-17,192,71,-1
-53,153,66,-28,-30,-49,-103,36,-39,-42
13,156,46,-20,2,-23,-86,1,-25,15
-35,361,67,13,71,38,4,38,-16,-43
-68,385,71,35,70,37,31,22,-68,-130
-28,254,57,59,76,36,4,-27,-145,-139
-6,88,35,67,63,36,-16,-46,-106,-39
127,300,75,19,49,9,-17,-22,-56,3
322,318,29,-78,-21,-41,-48,-15,18,123
327,259,92,-41,-46,-88,-103,-72,-22,71
131,-57,38,-27,-67,-87,-91,-98,-47,55
137,70,0,-83,-64,-53,-31,-31,38,171
173,31,-72,-118,-76,-48,-10,20,93,214
122,3,-27,-61,-45,-33,-31,1,56,143
130,-326,-50,-26,-76,-45,-48,-56,19,147
116,-663,-145,-55,-140,-103,-73,-88,16,209
45,-661,-143,-68,-150,-127,-87,-109,5,190
80,-267,-54,-33,-73,-53,-24,-87,-36,65
69,165,70,62,65,78,93,13,-9,-38
-285,-91,79,98,49,91,118,37,49,-123
-352,-299,44,39,-68,-23,28,-5,31,-107
-294,-453,-69,-27,-147,-85,-101,-28,28,25
-385,-422,-61,-11,-133,-77,-201,-58,0,-136
-418,-422,-80,36,-77,-39,-186,-44,-28,-326
-350,-542,-127,14,-68,-11,-80,12,51,-171
-344,-542,-104,26,-30,-1,73,-2,15,-221
-204,-501,-91,38,-21,9,197,-38,-25,-233
252,-340,-49,26,-22,7,203,-44,30,24
715,-186,15,43,-12,-13,37,-32,142,316
722,-155,-72,0,-61,-68,-105,-52,117,398
286,-162,-148,-56,-119,-126,-116,-79,-3,314
-103,-153,-95,-84,-140,-142,-72,-75,-35,279
-531,-173,-57,-24,-68,-52,-9,-61,-63,19
-577,-244,-74,62,27,49,71,-24,-92,-292
-423,-451,-91,62,49,79,116,68,-5,-239
-166,-398,-94,9,2,17,62,53,-7,-12
143,-280,-172,-128,-142,-138,-96,-52,-10,434
355,-218,-83,-63,-120,-137,-163,-116,-42,571
519,0,57,25,-62,-84,-143,-49,-81,139
5,-90,50,22,-7,19,0,146,116,-216
-653,-183,52,99,108,127,121,136,121,-373
-1024,-287,19,130,154,171,137,60,-9,-481
-530,-335,-88,63,96,126,95,79,23,-338
-49,-264,-117,34,55,75,72,73,12,-258
-92,-157,-27,14,29,29,14,0,-54,-262
103,-79,-26,-3,11,9,-68,-68,-102,-121
281,-70,12,17,39,21,-93,-114,-144,-47
475,-153,-60,-53,-32,-33,-94,-77,-25,279
371,-38,-43,-95,-96,-93,-94,-69,25,313
213,134,52,-42,-58,-84,-95,-96,-42,35
230,180,101,7,-20,-59,-70,-50,51,147
240,130,37,-41,-81,-103,-91,-28,108,366
-114,-71,-53,-82,-72,-55,46,97,131,156
-574,-112,10,35,58,113,282,168,42,-361
-759,-61,27,71,112,222,472,166,-90,-568
-615,-169,-118,-61,-4,139,489,111,-205,-474
-522,-370,-323,-265,-201,-22,338,22,-351,-492
-349,-391,-327,-287,-206,-34,265,38,-311,-372
-313,-335,-204,-183,-104,37,282,-69,-225,-271
-481,-289,-149,-142,-86,13,366,-151,-190,-174
-506,-56,-9,-25,-7,42,578,-231,-124,-8
-2,169,126,86,53,65,409,-175,44,309
949,326,175,82,20,-43,-406,-24,277,682
1709,450,227,137,60,-104,-1066,-50,357,776
1473,568,331,274,156,-42,-867,-396,142,347
485,365,279,220,115,-41,-503,-454,74,111
-32,91,82,87,11,-91,-347,-424,-18,-15
-440,32,-24,28,-40,-78,-227,-112,8,-68
-782,-78,-113,-79,-116,-106,-151,422,210,-39
-792,-120,-108,-62,-79,-67,-115,712,214,-156
-500,-52,68,67,49,-5,-85,592,176,-179
-126,-38,116,116,117,22,-58,332,160,-4
48,-50,101,101,117,32,-45,180,87,65
235,34,90,74,55,-11,-110,51,24,106
386,-25,-23,-40,-43,-63,-123,-12,87,296
391,-177,-164,-168,-135,-118,-110,-47,192,519
341,68,8,-67,-70,-96,-112,-142,-34,85
88,169,139,39,38,-15,-84,-120,-156,-314
-232,40,121,77,118,89,32,19,-45,-357
-377,-20,90,92,142,121,95,66,-36,-381
-223,5,48,52,83,68,61,39,-35,-250
-22,11,11,25,37,25,34,12,-24,-67
80,-3,-5,23,13,21,18,-15,-34,56
82,3,-29,-2,-30,4,8,-7,2,149
48,74,-102,-34,-42,0,13,10,18,119
101,121,-27,-9,-2,21,60,13,44,131
258,118,-25,-30,-30,-17,50,-5,83,249
434,197,-86,-95,-125,-111,-55,-56,62,465
795,100,-163,-193,-251,-224,-177,-123,50,868
671,55,-93,-157,-242,-215,-154,-107,38,690
-99,62,70,57,15,24,60,14,2,-171
-428,-49,109,147,145,169,155,80,-23,-455
-333,-69,79,110,98,134,113,59,-44,-309
-404,-105,56,92,102,119,113,54,-53,-346
-491,-11,109,126,136,113,90,-9,-117,-457
-422,68,131,130,116,68,61,-22,-117,-369
-277,41,112,110,83,34,33,-32,-103,-211
-60,24,57,40,26,9,26,-2,-6,23
-101,24,8,-16,-18,-22,6,18,43,115
-78,60,-21,-45,-40,-45,-86,-37,-8,122
253,45,-63,-84,-56,-60,-128,-34,22,262
432,-15,-147,-163,-109,-69,-106,27,147,427
431,27,-113,-132,-81,-32,-14,32,128,399
358,33,-95,-105,-66,-30,67,-25,0,219
249,5,-101,-107,-71,-39,32,-139,-183,-112
175,84,-51,-71,-57,-50,-137,-193,-196,-174
118,157,8,-16,-22,-55,-263,-126,-84,-111
-401,116,37,19,18,21,-23,34,-62,-490
-408,39,1,-7,29,76,397,166,-15,-573
5,39,-52,-9,37,64,639,119,-14,-368
249,54,28,45,75,90,524,141,100,-156
310,101,104,102,115,116,125,154,192,-81
113,89,107,92,105,94,-155,70,159,-59
-174,81,144,101,100,92,-58,-20,8,-149
-337,37,123,84,82,80,135,-22,-25,-115
-216,27,94,86,67,64,217,-5,-13,-61
-335,-23,100,101,87,80,192,25,-41,-135
-298,-36,35,3,0,11,73,73,-30,-88
-316,7,9,-48,-58,-49,-64,8,-72,-73
-31,135,29,-43,-90,-105,-214,-79,-103,50
395,142,-75,-85,-121,-142,-302,-79,-18,346
806,-6,-307,-222,-226,-232,-327,-9,126,864
891,26,-195,-206,-218,-239,-315,-53,-7,701
536,-21,-98,-123,-115,-119,-147,-25,-79,213
11,41,31,11,31,28,7,66,36,-78
-531,-10,92,113,151,161,108,135,68,-263
-695,-79,34,108,161,179,117,97,-45,-404
-631,-89,-5,89,143,129,80,43,-71,-436
-528,-53,10,78,130,98,48,6,-77,-400
-353,-6,25,80,97,75,23,7,-61,-272
-231,-4,46,48,62,54,1,6,-38,-135
-255,3,59,71,84,66,10,9,-58,-148
-140,-47,6,45,58,48,26,45,14,-39
-4,-26,-27,13,15,12,-5,21,22,61
138,32,22,15,10,-2,-38,-27,-20,126
284,53,12,-18,-2,-5,-30,-46,-11,207
274,166,52,0,-4,-25,-29,-81,-37,149
208,37,-16,-29,-23,-30,16,-26,32,179
244,-27,-90,-88,-54,-57,23,1,82,271
258,59,-45,-80,-81,-78,2,-34,35,243
198,-6,-39,-53,-37,-54,-12,-71,-49,168
392,-29,-76,-117,-109,-93,-37,-50,77,470
287,101,-49,-154,-152,-112,-33,-10,174,413
-254,76,62,7,22,27,74,18,67,-149
-433,-38,61,73,94,112,93,20,-21,-353
-205,-39,34,50,59,102,77,2,-54,-309
73,0,36,55,34,73,89,1,-68,-249
140,45,73,61,20,34,29,6,-36,-125
95,87,65,49,-6,-21,-33,-50,-43,-44
13,104,36,17,-39,-40,-14,-135,-71,14
12,59,-3,-31,-61,-60,-5,-131,-23,200
-43,44,-4,-47,-59,-50,8,-28,1,206
-74,100,40,14,2,6,9,81,-45,20
26,107,53,65,47,40,-6,122,-78,-67
19,67,-15,0,-17,-16,-43,236,-39,-52
-112,-34,-103,-46,-53,-45,-48,217,18,0
-202,-44,-53,5,17,-5,-22,98,14,-66
-360,-82,19,113,130,67,14,16,-70,-301
-180,-65,3,97,94,31,-8,-39,-24,-160
-55,-109,-35,-6,-1,-12,2,-31,13,31
-39,-63,-71,-55,-45,-25,12,-20,19,54
-74,57,-40,-34,-33,-6,25,-15,4,-22
-95,223,57,26,1,11,18,-53,-68,-133
72,224,-17,-13,-29,-41,-11,-71,-27,36
232,170,-8,-56,-68,-73,-36,-59,12,168
192,98,-18,-56,-75,-54,-30,2,64,162
67,75,15,-10,-20,-10,27,41,95,125
25,76,69,37,36,43,75,30,35,60
157,42,77,51,47,41,71,33,27,87
370,0,35,24,36,30,63,31,17,105
461,-78,-35,-26,3,-1,96,29,24,186
283,-134,-121,-33,0,-6,203,29,0,156
-4,-160,-160,-22,9,14,292,5,-68,-77
-295,-171,-75,-25,21,21,280,-33,-52,-236
-286,-75,-60,5,32,26,108,-60,-53,-230
-246,13,65,62,81,46,-62,-59,-71,-210
-212,32,171,91,106,65,-140,-38,-38,-189
110,157,177,48,54,6,-297,-15,70,26
140,103,118,25,48,-15,-336,30,81,64
253,26,33,-29,-7,-87,-301,143,51,111
316,40,-19,-75,-75,-128,-264,189,29,118
-45,-172,-147,-71,-43,-33,-100,257,37,13
-199,-270,-125,-44,1,13,-24,219,-6,-7
210,-165,-130,-62,-34,-46,-81,73,32,355
435,-45,-136,-106,-90,-117,-155,-84,89,743
461,68,-146,-196,-197,-200,-211,-150,118,881
119,59,-119,-165,-159,-146,-146,-155,65,355
-172,88,94,76,70,67,70,-101,-96,-545
-369,93,182,179,160,162,165,-77,-110,-744
-339,44,129,115,100,96,76,-140,-148,-604
-70,-40,-30,38,31,33,-76,-196,-182,-371
-26,-114,-54,-35,-27,-1,-187,-172,-85,-159
-2,0,32,-8,-3,14,-171,-123,-60,-191
123,-15,24,3,17,31,-60,-65,-6,-124
-310,-7,67,19,22,19,69,-48,19,-68
-425,22,63,-5,15,-3,144,-63,4,-5
56,-8,11,-56,-1,-13,142,-49,69,183
468,-26,-24,-4,42,26,117,-35,81,249
143,-54,-71,23,62,36,185,-21,4,61
-441,-49,-10,-2,38,28,193,24,-8,-59
-238,90,21,-31,-7,10,91,10,50,201
655,135,-1,-82,-62,-44,-26,-14,142,675
899,181,-18,-121,-125,-129,-160,-70,161,874
446,109,-18,-71,-77,-89,-213,-77,87,410
-402,-100,92,137,161,148,-29,49,11,-468
-788,8,223,250,263,206,37,61,-69,-910
-543,57,171,155,160,90,43,38,-107,-645
-209,23,80,47,41,-29,29,3,-82,-246
-45,82,44,-20,-39,-89,-1,6,-52,-69
-230,-91,-24,-13,0,10,79,124,12,-190
-338,-95,14,45,62,78,72,112,-27,-351
-216,-61,33,38,47,59,50,158,93,-200
-254,23,77,63,45,54,32,170,162,-148
-220,33,84,66,63,52,31,59,83,-129
-17,10,41,25,34,23,34,-22,29,3
53,-8,7,-17,-21,4,15,7,37,91
-6,-54,-9,-33,-36,14,-5,42,32,84
22,-55,-16,-36,-45,6,-11,48,31,89
99,21,2,-22,-38,-16,-31,17,-12,59
108,19,-18,-36,-39,-39,-23,19,6,108
54,-41,-47,-39,-32,-62,-12,42,55,182
80,-61,-58,-6,0,-58,-21,26,20,192
80,90,6,45,13,-37,-55,-42,-103,-22
102,6,-21,-18,-15,-19,-51,-33,-61,24
82,24,-4,17,32,12,-37,-60,-102,-52
-199,24,99,161,150,120,38,-91,-232,-352
-112,63,69,56,44,32,32,-66,-124,-89
124,47,-81,-180,-169,-120,-10,-22,94,333
257,102,-59,-176,-189,-166,-59,-33,98,310
218,275,89,-45,-104,-154,-93,-58,-33,10
273,84,23,-57,-92,-113,-11,92,49,91
353,-9,22,-26,-64,-60,1,181,35,28
390,-25,2,-50,-90,-101,-44,136,31,59
563,29,-22,-105,-156,-172,-110,-31,69,368
612,85,-30,-123,-169,-194,-116,-187,40,536
338,94,-1,-76,-96,-123,-65,-190,1,393
-14,34,-14,-35,-27,-28,-10,-111,49,176
-272,-11,-30,10,40,55,51,-8,87,10
-305,98,35,77,111,106,106,0,-10,-230
-185,93,33,121,146,142,127,-4,-99,-402
-146,63,44,113,122,131,111,34,-46,-355
-169,18,48,52,77,87,67,26,0,-250
-139,3,17,-8,17,23,-3,-21,-30,-163
-133,-43,-73,-10,7,8,-23,-24,23,-73
-196,-134,-99,20,45,50,42,20,66,-79
-256,-223,-54,15,50,95,75,44,46,-55
-250,-163,-11,-3,31,81,52,44,14,-47
-242,-148,-1,7,25,67,45,50,5,-16
-124,-94,6,23,43,49,42,23,-11,19
-98,73,129,119,117,62,61,-29,-85,-127
-81,-9,85,107,117,61,80,-38,-14,-79
21,61,55,74,92,42,42,-79,-21,-24
49,34,35,23,37,8,19,-68,-34,51
246,17,-114,-185,-159,-104,-24,12,170,424
287,70,-104,-189,-186,-108,-9,53,206,436
307,29,-89,-199,-204,-129,-41,38,207,570
302,125,-65,-192,-212,-175,-107,-57,81,489
237,101,-12,-105,-125,-112,-67,-67,-10,212
-56,58,8,29,8,34,26,-24,-64,-202
-225,-15,-11,90,83,117,79,29,-32,-273
-211,-124,19,74,90,127,93,49,-38,-272
-312,-210,32,91,107,138,97,37,-86,-436
-316,-211,14,68,68,100,37,24,-74,-360
-44,-131,-1,16,7,46,-17,7,-31,-138
62,-82,-8,-11,-20,10,-39,-2,-26,-28
28,-28,-10,-22,-25,-8,-45,-6,-33,34
41,11,-3,-22,-52,-28,-66,-21,-40,96
119,12,-42,-61,-87,-49,-106,-24,-15,221
246,14,-51,-59,-81,-68,-97,-26,-21,272
290,-26,-51,-44,-61,-47,-9,-23,-17,296
368,-96,-88,-46,-50,-16,144,6,32,386
381,-66,-81,-57,-88,-67,138,0,54,491
272,-65,-80,-45,-100,-59,60,-16,57,485
166,-88,-33,5,-21,21,29,15,31,138
-459,-38,62,110,90,121,34,32,-63,-477
-648,15,136,190,156,151,-11,-61,-135,-701
-394,-39,19,131,117,119,-84,-150,-121,-452
-294,-72,-116,16,17,33,-194,-123,-68,-160
-52,-69,-67,-32,-40,-37,-242,-33,-27,141
214,12,-69,-46,-63,-69,-213,31,7,407
361,41,-56,-61,-91,-95,-166,83,23,431
317,0,-134,-119,-136,-137,-49,190,29,240
136,1,-65,-59,-51,-54,146,137,24,-56
-87,-28,7,28,45,32,199,114,69,-301
-193,80,152,173,173,131,63,50,24,-573
-255,228,289,277,245,162,20,-25,-52,-654
-170,244,261,208,173,86,1,-43,-68,-460
61,69,76,36,61,32,-2,13,30,-140
124,-90,-51,-54,-10,-15,-13,32,136,150
32,2,16,15,1,0,-41,-15,63,128
-176,46,49,33,-7,27,-12,-22,15,8
-448,48,4,42,15,77,58,3,-8,-192
-273,-93,-66,-37,-22,43,30,45,79,97
147,-57,-129,-151,-144,-92,-72,0,125,443
199,86,-42,-130,-135,-109,-75,-17,62,347
257,223,57,-24,-41,-58,-61,-50,-66,113
325,214,-7,-20,-49,-65,-55,-4,-50,83
303,153,10,-11,-36,-31,-9,55,-51,27
38,-28,-11,0,2,29,41,43,-61,-86
-227,-165,-49,-8,10,43,46,-3,-120,-203
-442,-369,-206,-133,-96,-55,-243,-154,-283,-374
-426,-428,-230,-142,-96,-55,-415,-164,-257,-362
-451,-245,-39,33,41,87,-199,-38,-148,-391
-313,-136,4,34,54,116,266,16,-111,-306
-292,-87,8,5,40,122,898,23,-213,-337
-264,-172,-44,-26,13,124,1257,140,-216,-225
-16,-121,-84,-99,-51,59,867,200,-133,9
28,-49,-41,-97,-65,17,109,176,-72,101
29,5,11,-37,-51,-11,-235,65,-12,98
11,87,148,129,81,61,-100,-144,-46,11
83,153,276,269,227,156,126,-173,40,81
196,134,190,185,162,54,40,70,259,158
367,154,85,92,71,-61,-285,196,379,202
730,308,120,-19,-57,-170,-461,48,304,409
741,238,37,-78,-101,-209,-557,-101,235,519
467,88,-49,-116,-105,-186,-480,-124,225,423
28,-31,-103,-124,-104,-134,-333,-68,159,177
-104,-78,-108,-95,-93,-84,-221,-188,124,254
-128,-17,-42,-37,-26,-16,-98,-395,16,187
-261,24,66,74,90,114,42,-452,-101,-147
-247,123,179,172,162,163,85,-459,-156,-278
-64,151,168,156,132,104,141,-271,-164,-140
161,15,0,15,0,-24,129,199,-133,0
306,-66,-120,-135,-141,-135,29,566,-45,14
481,-28,-83,-138,-163,-129,-31,552,81,61
505,77,-41,-109,-165,-130,-113,394,324,284
440,228,-49,-61,-140,-155,-272,-12,220,517
249,166,-92,-10,-66,-93,-311,-310,74,604
-41,30,-46,38,24,10,-173,-275,-3,302
-135,-81,5,31,63,82,-41,-68,-5,121
-244,-122,34,70,119,180,102,126,59,28
-351,-156,2,49,109,171,169,210,96,-64
-280,-160,-124,-73,-34,10,156,268,50,-36
-98,-25,-91,-94,-108,-101,115,128,-52,-50
-215,13,-9,-26,-46,-55,95,49,11,-146
-569,77,161,146,125,90,71,39,37,-433
-419,210,190,218,204,132,-9,22,-26,-486
-176,185,152,148,142,67,-71,16,-45,-330
-163,2,48,39,58,28,-92,43,-1,-170
-255,-138,-53,-38,15,13,-120,49,10,-195
-484,-169,-46,-13,22,28,-154,-21,-74,-438
-548,-278,-128,-84,-43,-17,-276,-142,-173,-498
-290,-349,-190,-148,-106,-60,-301,-193,-206,-331
94,-280,-157,-146,-126,-80,-149,-154,-136,0
185,-132,-36,-65,-56,-12,94,-95,-84,76
37,-27,96,83,85,120,429,-33,-90,-117
-69,13,186,200,190,162,577,30,-42,-230
-103,60,195,222,202,137,508,66,-19,-270
128,101,162,161,141,107,268,98,16,-88
332,101,70,29,22,16,151,115,116,171
205,49,-9,-35,-22,-18,231,10,58,164
189,52,-43,-21,-26,-22,105,-65,18,278
232,122,23,14,-5,-3,-30,-10,-5,312
257,132,24,-14,-36,0,-89,13,-25,305
420,40,-38,-95,-101,-51,-230,30,124,496
564,32,-44,-111,-112,-128,-347,14,184,436
316,-39,-87,-98,-129,-172,-329,38,174,161
-28,20,-74,0,-41,-95,-244,-20,39,-208
-32,119,96,89,47,-6,-137,-75,-96,-351
89,109,122,64,17,-49,-94,-108,-144,-182
-109,49,23,26,-4,-39,-24,-59,-124,-151
-393,4,-74,1,-7,4,57,0,-96,-210
-573,-62,-49,-11,-1,16,91,5,-75,-225
-418,-90,-60,-18,10,35,92,89,61,-103
157,82,44,18,19,44,53,115,161,13
301,232,139,98,78,55,-9,-18,43,-45
143,197,182,156,145,81,-12,-87,-64,-37
188,106,82,67,76,30,-14,-68,-16,160
397,226,35,-58,-73,-72,-66,-46,13,244
186,90,-86,-129,-129,-81,-44,9,61,234
-135,97,-61,-93,-95,-70,-40,-34,-13,22
-223,102,1,-1,-6,6,-17,-77,-128,-234
-119,42,26,27,18,37,12,-28,-45,-141
44,38,44,12,-12,6,24,27,63,184
6,-141,-42,-64,-65,-37,31,27,107,369
-77,-359,-167,-152,-90,-61,19,-5,58,192
-132,-355,-130,-76,-8,35,60,20,21,-72
-151,-91,58,81,94,129,114,39,-11,-287
-164,-63,82,86,95,117,81,6,-24,-258
-81,-100,8,29,23,47,17,-19,-6,-51
-39,-52,-22,-19,-44,-1,-24,-22,24,155
-84,-43,-36,-33,-35,12,-16,-26,1,101
-265,-115,-21,42,64,93,55,-7,-79,-210
-305,-98,15,87,118,141,107,6,-72,-299
-42,32,71,60,66,83,75,-14,-49,-207
329,104,64,-3,-33,-25,-1,-59,-23,102
454,128,-3,-82,-130,-90,-47,-73,12,315
217,85,-10,-64,-110,-79,-34,-46,-3,138
-79,-37,-48,-13,-31,-4,49,36,77,-2
-230,-119,-57,-2,10,65,118,95,153,-40
-341,-61,-33,24,54,71,89,44,46,-236
-291,-94,-58,28,65,59,66,19,-32,-243
-110,-94,-21,-23,25,18,36,13,-11,-122
-102,-107,-25,-44,4,9,19,7,7,-81
-52,-77,1,-9,24,30,14,-29,-26,-94
189,17,71,36,58,37,51,-85,-98,-81
465,70,65,0,26,-6,133,-110,-86,76
562,151,68,-1,10,-11,123,-97,-58,182
226,160,104,58,54,42,62,-103,-205,-75
41,-8,-40,-26,-3,27,3,-30,-142,161
-77,-80,-147,-132,-101,-47,-75,37,69,626
180,171,-45,-149,-158,-111,-179,10,126,701
132,357,121,5,-29,-45,-160,-1,-13,201
-131,208,126,65,73,33,-71,154,4,-126
-205,52,83,51,72,48,-7,294,24,-249
-59,-59,-20,-32,-8,18,-30,294,49,-214
-139,-304,-240,-215,-163,-107,-250,132,-30,-252
-333,-336,-229,-193,-139,-63,-260,-35,-128,-270
-363,-234,-186,-99,-36,45,-27,-83,-52,-132
-488,-219,-234,-80,0,83,308,-136,31,-88
-443,-147,-165,-75,3,68,746,-244,13,-22
-405,31,18,4,68,93,953,-369,-92,-106
-44,83,111,59,96,66,482,-371,-114,1
302,460,143,13,55,-45,-235,-144,-19,127
49,630,165,-6,50,-87,-481,73,-91,-226
-216,126,81,21,39,-18,-343,77,-142,-487
89,48,64,45,42,27,-255,117,-37,-177
744,107,24,96,93,75,-30,157,56,149
936,96,6,70,51,6,-23,146,153,267
489,52,41,30,3,-82,-209,116,201,270
-20,59,73,53,6,-86,-258,35,191,245
-320,18,39,71,31,-50,-163,-63,178,209
-61,-55,45,81,82,20,-21,-244,58,58
95,-207,-21,42,75,31,34,-357,-50,24
-97,-239,-150,6,37,4,17,-406,-125,-67
17,-97,-132,-69,-66,-97,-130,-199,-107,8
56,-211,-183,-156,-148,-180,-252,275,-24,75
59,-185,-122,-187,-192,-207,-249,675,154,177
247,39,9,-124,-144,-153,-124,610,267,257
249,101,60,-46,-40,-53,53,307,227,154
303,15,101,31,25,2,133,-16,159,264
51,103,186,133,100,50,104,-113,76,148
-263,113,225,185,162,99,0,-39,59,-60
-338,-4,148,137,142,113,21,54,100,-95
-239,59,155,150,139,108,46,59,7,-230
70,123,185,168,123,73,25,37,-63,-188
75,56,122,103,75,22,4,24,-81,-100
121,-48,-20,-15,-2,-8,1,39,-26,-46
27,-99,-58,-9,15,29,33,72,5,-107
-107,-119,-28,41,58,61,45,57,-30,-151
-23,-102,-71,-17,-22,-15,-5,54,-40,-7
24,-70,-107,-33,-42,-37,-4,44,-35,80
-24,-12,-5,17,0,0,18,6,-42,46
60,-33,-11,-29,-15,22,123,27,-1,91
-8,-189,-105,-77,-36,46,277,51,10,84
-135,-174,-127,-101,-75,-2,314,-39,-60,-32
32,-93,-131,-128,-118,-68,168,-155,-115,59
270,-44,-60,-54,-77,-73,-88,-188,-129,175
278,-104,-6,28,11,-8,-163,-56,-88,154
76,-41,26,44,37,39,-163,24,-107,-68
75,181,102,66,32,7,-293,-12,-107,-176
165,230,-38,-3,-33,-81,-276,96,54,-17
288,113,-197,-90,-114,-144,-215,192,211,165
496,145,-102,-97,-140,-145,-186,38,165,282
367,156,-8,-82,-133,-127,-135,-63,83,308
0,101,58,7,-20,-40,-32,-67,0,-18
-214,8,100,84,63,50,61,-32,-54,-245
5,-70,14,16,16,18,71,1,40,82
71,-77,-14,-14,-17,-11,34,-16,36,205
-90,-88,-19,-36,-30,-36,-13,-53,-37,6
-359,-165,-19,-32,-2,16,37,8,12,-161
-640,-204,-2,49,81,133,200,98,38,-308
-635,-91,1,127,127,156,329,76,-37,-413
-505,-76,-13,98,92,116,301,53,-18,-212
-315,-157,-15,29,32,63,179,18,29,61
-183,-48,22,44,36,21,35,-95,-77,-12
-116,-98,5,40,38,32,4,-83,-61,-32
143,-14,17,43,46,18,-72,-94,-28,-1
246,65,50,161,145,98,-73,-81,-109,-241
262,197,24,151,98,68,-91,-27,-76,-267
300,160,-49,-2,-32,-13,-128,-3,29,97
402,54,-72,-111,-128,-103,-155,-33,104,599
501,180,-44,-172,-208,-202,-220,-107,74,818
424,333,27,-160,-222,-202,-185,-123,-7,524
-224,228,86,-21,-64,-23,-40,-33,-80,-147
-755,145,159,147,129,149,73,52,-106,-661
-538,70,94,105,94,105,19,33,-122,-506
-295,-100,-92,2,-5,16,-26,27,-95,-248
-155,-227,-107,-50,-37,6,3,90,18,-174
-182,-282,-119,-84,-43,7,9,110,126,-153
-383,-265,-90,-35,8,47,42,64,71,-206
-232,-143,4,21,51,87,69,53,9,-151
245,-80,25,27,56,56,36,56,26,-1
811,-61,-9,-7,22,-24,-56,8,17,206
1010,19,-27,-64,-41,-100,-125,-62,-21,359
624,9,-22,-59,-42,-89,-118,-81,-80,289
0,-64,-17,-25,-19,-18,-45,-62,-87,139
-352,-42,-23,-29,-17,9,32,-77,-9,79
-271,-18,-49,-13,1,18,68,-139,36,31
-409,2,4,28,41,47,112,-80,12,-82
-391,76,137,99,104,77,137,116,-88,-128
38,55,87,50,71,61,141,331,-46,-19
-143,-103,-31,-61,-23,-1,60,421,48,-28
-708,7,36,-37,-44,-83,-111,311,-121,-473
-836,113,88,5,-37,-74,-155,94,-59,-379
-751,149,46,-17,-48,-48,-82,2,101,-126
-311,153,34,-14,-40,-63,33,-68,149,43
415,313,79,-27,-57,-85,113,-141,72,90
564,262,25,-54,-68,-39,174,-105,52,135
415,89,60,34,21,41,87,-60,98,122
55,-186,52,116,107,113,78,-50,90,1
-72,-376,-69,75,92,121,94,-57,49,-41
-130,-373,-115,2,33,94,87,-32,49,14
-202,-269,-84,4,18,74,134,0,39,22
-48,-171,-22,18,36,67,192,-18,17,15
110,-91,10,-5,25,55,204,-39,1,31
99,-52,23,-7,17,29,117,-80,16,75
194,-32,23,3,3,-21,-30,-154,-31,93
242,-79,-20,-50,-69,-90,-157,-175,-52,133
42,-176,-90,-112,-104,-102,-140,-52,39,148
-118,-114,-34,-50,-27,-41,-96,29,10,8
64,73,48,-29,-44,-74,-171,-5,-19,68
91,13,38,-12,-30,-47,-109,-25,-33,-34
60,-3,42,40,19,23,-6,-8,-48,-194
79,164,96,66,27,50,15,2,-43,-201
110,155,16,-4,-25,30,2,45,-56,-92
186,77,-56,-67,-79,-28,-27,48,-44,75
304,52,-57,-106,-129,-92,-51,58,-49,195
284,36,-41,-91,-117,-65,-18,67,-43,186
27,-53,-37,-28,-33,20,127,110,-69,26
-174,-153,-123,-86,-85,-34,106,78,-164,-153
-103,-204,-288,-266,-251,-183,44,34,-92,-7
-25,-94,-245,-260,-256,-195,-34,-127,-129,-77
-205,-163,-171,-179,-166,-73,-32,-264,-285,-347
-427,-245,-138,-100,-70,76,255,-271,-291,-440
-355,-107,-43,-41,-45,73,222,-313,-249,-302
-167,-11,1,-15,-12,74,-51,-191,-69,-85
-115,104,65,80,77,72,-356,50,99,-44
-57,171,185,130,106,28,-200,139,130,-40
4,85,83,48,-4,-39,476,83,114,70
84,94,41,40,-36,-35,833,7,97,161
198,212,107,130,78,72,445,34,150,257
336,238,163,148,126,107,-196,177,291,391
348,213,159,150,123,57,-540,229,329,394
244,318,193,199,189,72,-455,168,210,184
224,666,222,201,247,101,-316,155,118,16
99,531,182,171,213,74,-255,104,78,-66
81,530,77,60,151,60,-135,125,141,122
55,728,27,59,153,65,-65,127,81,82
269,901,139,64,99,14,-64,81,43,158
431,633,106,-20,18,-18,-37,53,25,393
840,605,-8,-185,-118,-154,-100,7,18,619
790,687,-27,-234,-168,-215,-157,-19,7,576
535,660,19,-168,-115,-194,-153,-13,43,328
301,446,77,-66,-50,-124,-136,-47,-82,-128
87,447,182,59,100,15,-41,10,-141,-472
-68,550,232,141,205,126,83,150,12,-465
-22,344,130,118,187,154,157,164,96,-340
-9,91,48,87,184,165,219,59,23,-249
-85,-295,-2,93,129,131,187,-21,-3,-161
-273,-605,-57,69,68,79,110,-65,-56,-172
-250,-587,-94,22,10,2,39,-42,-35,-47
-303,-494,-58,29,-4,-38,-10,-36,7,73
-507,-484,-38,61,21,-17,-14,-38,-16,15
-437,-499,-88,4,-18,-26,-10,-9,27,63
-197,-462,-136,-82,-80,-44,8,34,96,157
-134,-418,-85,-46,-53,-13,26,28,81,101
-91,-305,-21,-4,-18,3,21,-30,-16,-79
-203,-265,-4,24,16,24,26,-73,-68,-144
-285,-361,-120,-27,-41,-31,-35,-87,4,59
24,-368,-126,-100,-156,-163,-139,-122,9,231
-2,-409,-153,-98,-154,-155,-90,-40,26,169
-152,-293,-159,5,-36,-32,-4,-22,-12,-53
-186,-224,-59,50,15,26,31,-33,-43,-234
-293,-243,17,62,51,68,98,27,0,-282
-276,-232,-20,60,30,50,75,12,-16,-240
-262,-123,-109,57,-14,0,16,-51,-57,-201
-147,-57,-116,37,-35,-8,13,-53,-10,-44
39,-85,-89,33,-14,6,46,-41,6,-10
434,-139,-84,-27,-40,-8,32,-33,42,114
591,-156,-53,-57,-36,-6,26,-9,41,137
548,-29,-14,-29,-2,15,22,7,6,60
589,-97,-49,-56,-37,-30,-27,-44,-4,70
722,-220,-141,-146,-130,-126,-73,-85,0,249
547,-257,-269,-215,-197,-178,-129,-108,-11,271
-45,-244,-208,-188,-161,-123,-66,-77,-11,64
-511,-225,-1,-41,-32,-17,17,-179,-166,-336
-924,-196,87,59,66,90,107,-228,-220,-519
-880,-127,97,64,62,107,115,-137,-154,-346
-816,21,175,126,115,156,154,45,-71,-184
-356,-46,146,130,144,182,169,182,64,69
-104,-75,78,85,74,108,89,248,46,11
-12,-61,16,6,-21,8,-25,218,-32,-10
68,59,20,-49,-71,-67,-160,51,-75,-19
101,-40,-59,-102,-97,-73,-211,-4,-39,30
518,-96,-88,-92,-90,-73,-206,-78,-5,261
574,-87,-47,-38,-43,-65,-69,-98,-45,244
279,-111,-56,-81,-89,-91,93,-29,-14,97
-318,-111,9,7,-10,14,228,15,-47,-292
-614,-151,77,122,121,145,226,66,27,-372
-583,-107,104,133,136,150,71,50,86,-240
-469,-54,88,97,88,83,35,14,85,-153
-424,-102,55,92,82,76,49,11,67,-174
-335,-169,13,75,78,78,51,-10,30,-167
-123,-58,1,37,40,30,13,-64,-4,-116
47,72,33,-9,-19,-30,8,-58,14,52
94,169,25,-30,-69,-74,115,-10,59,119
143,104,-49,-78,-74,-54,215,58,163,245
175,211,-6,-79,-79,-49,120,44,154,264
270,333,36,-102,-125,-121,-57,-37,82,271
324,267,4,-121,-147,-148,-142,-80,35,286
317,107,-25,-48,-45,-68,-132,-99,-27,211
476,-24,-45,-51,-31,-66,-187,-116,-25,371
474,-4,-28,-60,-75,-118,-220,-71,-10,461
247,-140,-17,-1,-4,-46,-151,5,-53,191
-143,-223,-28,36,63,49,13,85,-56,-184
-378,-211,-19,66,101,109,121,139,-85,-394
-461,-213,-53,56,88,107,130,99,-90,-464
-422,-257,-93,19,70,95,103,64,-49,-338
-256,-140,-30,2,45,35,18,19,-14,-164
-198,-8,51,17,24,10,-25,64,-29,-81
-89,13,62,37,33,46,-11,105,-103,-77
3,-54,-55,23,35,84,58,107,-123,-63
38,-102,-164,21,55,113,199,80,-111,-66
78,-162,-225,-43,-3,58,192,-75,-148,-74
-65,-183,-244,-122,-114,-42,-90,-297,-301,-236
-160,-157,-147,-107,-120,-75,-274,-267,-200,-112
-75,-154,-192,-201,-212,-157,-168,-121,94,233
-119,-80,-167,-258,-265,-162,413,-14,160,55
-69,-81,-110,-208,-214,-89,996,15,36,-119
-84,25,34,-23,-44,43,852,65,-8,-184
10,226,172,150,116,108,78,115,158,-55
224,307,216,207,151,64,-527,84,262,167
321,199,253,194,152,63,-489,-31,201,231
299,72,179,124,110,50,-387,-62,177,248
325,143,119,18,0,-53,-326,-73,143,292
301,135,65,-51,-72,-111,-280,-210,55,290
186,78,24,-67,-51,-51,-165,-392,-13,208
-20,34,11,-53,-39,-7,-91,-442,-18,105
-35,7,16,-39,-25,8,-72,-439,-78,23
25,72,90,57,64,46,-82,-219,-174,-165
-70,65,98,96,56,-17,-162,193,-204,-297
-59,51,66,30,-22,-116,-146,552,-54,-214
120,110,40,-11,-51,-97,-27,473,32,-63
310,22,-64,-75,-66,-40,189,311,144,191
503,-10,-104,-115,-88,-49,246,173,218,440
552,127,-35,-97,-114,-132,94,-66,79,373
401,68,-106,-120,-161,-177,-101,-206,-103,195
-54,-11,-57,-61,-84,-73,-215,-190,-169,-116
-466,-15,46,55,45,68,-203,-116,-144,-347
-481,84,178,223,192,195,-89,-13,-49,-285
-252,105,257,285,251,224,97,104,46,-104
-10,144,215,175,136,62,-54,174,134,100
230,225,100,82,30,-52,-214,156,146,308
407,216,80,27,-12,-85,-213,75,49,303
375,109,-19,-42,-28,-72,-131,54,27,192
164,154,-6,-17,8,2,-32,49,-10,-100
238,174,0,5,38,50,-4,22,-66,-191
365,61,-95,-20,14,47,1,30,-47,-109
301,-44,-58,-19,12,34,-3,3,-16,36
0,-32,-3,-10,0,-2,-17,-32,2,206
-232,-39,28,34,28,21,40,-87,0,214
-222,-146,13,82,94,85,130,-110,-12,119
-358,-106,19,84,90,87,156,-34,46,64
-586,0,-36,97,95,104,152,76,39,-103
-424,170,2,82,78,87,103,158,53,-124
-273,16,17,31,38,51,68,237,53,-114
167,-67,-96,-85,-81,-66,-3,221,13,-28
478,-4,-77,-89,-101,-118,-58,63,-22,-1
188,16,-85,-7,-32,-73,-72,-47,-85,-219
-140,-73,-90,-19,-48,-48,-64,-81,2,-101
-312,-117,-33,-63,-79,-76,-55,-70,78,111
-255,-75,0,-61,-76,-69,-59,-53,23,94
-410,-58,61,27,22,30,46,14,-27,-120
-37,-100,26,27,33,48,69,45,-30,-140
194,-106,33,35,33,46,60,72,17,-116
-34,-6,87,79,68,47,54,45,-12,-212
-284,-8,48,47,55,40,51,43,-12,-134
-246,-22,0,-5,10,2,6,40,-3,-10
-2,-31,-50,-73,-66,-59,-59,0,8,151
167,-12,-78,-83,-83,-88,-71,-29,-11,190
157,17,-81,4,-5,-28,-3,-35,-82,-97
-29,73,52,135,123,90,170,-40,-171,-454
-227,79,141,131,136,120,279,-7,-124,-427
-242,12,88,67,83,74,189,15,-52,-232
-131,40,75,18,9,0,33,-31,-33,-96
-72,-14,-15,-36,-42,-40,-40,-49,-5,5
-83,-39,-28,-38,-35,-42,-93,-57,-1,12
-167,-106,-29,-31,-19,-39,-212,-60,-29,5
-25,-112,-64,-79,-61,-68,-280,-32,-12,49
117,-6,-122,-95,-74,-103,-243,-28,14,100
-18,71,-52,-17,-2,-39,-68,-44,-31,-16
-101,81,43,18,32,17,105,-55,-72,-93
-12,43,-38,15,22,30,190,-39,-33,33
57,66,19,29,50,48,166,12,29,115
121,144,95,47,59,26,8,17,25,100
312,84,63,49,49,8,-23,8,25,140
382,20,38,43,41,5,-29,11,13,89
161,-29,11,20,43,15,-11,25,18,34
69,257,98,26,33,-1,-38,-12,-27,-99
104,270,59,2,15,-5,0,18,15,-61
89,194,20,-32,4,-7,16,8,-26,-132
62,83,-20,-70,-14,-2,-6,11,-29,-97
58,16,-22,-65,-24,-32,-32,-2,-35,58
214,28,3,-78,-62,-82,-101,-67,-90,175
346,-40,-51,-112,-101,-114,-114,-52,-18,315
232,-111,-82,-127,-118,-94,-79,5,106,384
221,-117,-87,-123,-112,-90,-37,17,142,342
263,-98,-83,-120,-98,-97,-20,18,164,370
47,19,56,36,39,0,11,-13,-31,-31
-316,38,149,193,195,170,114,-17,-206,-550
-183,19,69,121,126,135,114,-4,-114,-313
-147,-41,18,59,74,83,87,33,-4,-81
-215,-24,13,36,45,48,71,16,-12,-72
-127,95,-18,-20,-12,0,33,7,-1,-39
-56,46,-51,-16,-12,4,17,27,30,49
116,-42,-104,-59,-61,-24,-12,20,74,244
229,-38,-111,-103,-99,-68,-47,-10,81,302
106,-1,-47,-38,-35,-25,-27,-71,8,66
-170,-50,2,39,61,75,26,-61,-21,-175
-388,-115,0,53,82,102,38,20,26,-244
-460,-138,5,52,83,92,49,44,23,-211
-383,-90,-2,26,50,51,120,42,-5,-170
-131,-11,-2,16,5,14,228,-4,-28,-47
179,76,-8,-23,-55,-65,257,-91,-57,234
534,179,-56,-106,-151,-188,192,-132,-95,390
590,-50,-180,-77,-84,-96,148,0,-27,349
500,17,-115,20,4,10,69,159,68,226
123,114,47,36,4,25,-1,186,64,-66
-126,-72,10,11,0,28,-118,120,142,-53
-160,-47,14,1,13,0,-215,-21,93,-50
-286,-53,-1,-16,7,-28,-201,-76,-22,-168
-288,-33,-19,-12,-5,-50,-189,-122,-73,-226
-310,-11,45,4,7,-34,-122,-111,-96,-255
-218,23,53,2,-22,-49,-89,-88,-119,-142
75,39,7,-54,-108,-127,-131,-110,-112,111
233,28,-17,-82,-112,-140,-138,-98,-68,193
-29,32,5,-12,-26,-38,-33,30,22,-1
-412,30,89,78,75,76,93,160,139,-187
-452,-15,105,101,126,125,118,96,114,-140
-178,-3,61,108,128,115,76,-46,19,7
131,78,-5,125,109,105,133,-91,-28,74
377,20,-121,49,68,95,263,-7,16,205
656,4,-51,-4,10,31,181,-1,-43,224
556,90,-13,-93,-135,-98,-20,-107,-84,217
260,23,-59,-138,-169,-120,-74,-124,79,193
-106,12,89,55,15,20,-40,-119,80,-157
188,0,159,126,102,70,-93,-82,-12,-154
572,-25,112,70,33,22,-133,30,24,101
466,81,89,3,-46,-49,-131,114,70,161
166,-11,-44,-103,-130,-111,-117,197,75,106
-211,-145,-81,-98,-106,-74,-70,103,99,121
-763,-224,-69,-60,-61,-25,-27,60,165,74
-672,-50,-21,30,9,18,-9,14,100,-177
-172,105,40,88,45,38,-10,-33,38,-209
-123,67,87,57,28,44,7,-10,54,-98
-480,-7,44,16,9,30,0,27,80,-105
-436,23,-1,-9,-29,19,-33,20,56,-82
-339,-108,-162,-136,-146,-90,-198,-59,-25,-25
-411,-266,-203,-227,-220,-180,-427,-97,-158,-139
-448,-244,-78,-88,-60,-26,-288,-49,-246,-453
-329,-218,-35,-4,40,97,31,-68,-220,-506
-81,-93,-43,-3,20,95,429,-195,-251,-387
30,93,8,14,3,53,779,-258,-258,-298
200,176,84,55,32,86,686,-27,-134,-108
137,47,100,121,107,123,289,396,-2,-41
11,19,147,176,143,80,4,503,111,-22
115,124,135,120,89,29,45,213,173,102
174,-50,-20,11,34,23,-37,13,219,320
191,5,11,-36,-15,-39,-253,-123,163,427
267,74,-11,-99,-104,-137,-322,-114,162,563
296,52,-55,-113,-116,-149,-337,-70,129,473
160,89,-18,-9,-10,-65,-263,-44,82,117
-200,74,113,107,106,65,-74,31,44,-251
-171,92,107,99,90,63,-5,60,47,-150
119,67,30,30,39,20,-33,10,32,76
249,-10,-18,-18,11,5,-34,-1,47,218
312,8,-30,-40,-14,0,-9,-2,92,304
291,68,11,-1,-4,-7,14,-11,57,192
177,31,35,52,53,38,60,-9,-21,-68
168,27,71,77,82,48,37,-3,-54,-189
169,60,104,102,81,28,24,-11,-50,-122
189,47,17,31,12,-6,31,26,5,-21
117,80,-95,-52,-53,-49,-1,31,13,-51
23,137,-23,-34,-35,-49,-48,-19,-77,-116
-126,10,25,-11,5,-11,-47,-13,-95,-148
-259,-89,17,-15,21,1,-42,-6,-71,-146
-285,-44,25,-17,13,-15,-56,-18,-92,-132
-251,-125,-17,-23,20,24,8,16,-51,-102
-224,-202,-48,-33,15,40,46,48,11,-17
-181,-120,-44,-46,-24,14,38,53,58,93
-182,-55,-30,-11,-10,20,21,26,3,24
-132,-67,-30,-10,-10,22,19,20,-7,10
-20,-43,-11,-28,-20,17,10,2,-22,66
-9,-19,13,4,-4,37,-2,-27,-66,33
80,12,0,-29,-37,-12,-44,-36,-52,132
128,70,-26,-69,-88,-84,-65,-23,10,275
84,29,-59,-45,-71,-57,-28,12,96,334
55,175,78,73,27,7,-36,-50,-38,14
-12,258,223,207,165,97,-6,-102,-215,-373
82,96,119,136,112,68,28,-62,-114,-186
132,-140,-86,-40,-30,-6,48,25,68,62
2,-144,-80,-27,-21,5,48,16,24,-76
81,-139,-52,-32,-43,-29,-10,-37,-26,-21
202,25,-22,-21,-52,-86,-76,-120,-111,-40
358,10,-30,-82,-80,-105,-77,-71,-7,215
452,38,-43,-132,-120,-121,-69,-29,82,367
273,55,-54,-120,-97,-99,-64,-31,85,263
250,25,-93,-123,-89,-66,-35,-7,116,304
198,1,-140,-98,-63,-14,19,22,113,257
26,-33,-204,-42,0,50,76,63,94,92
-116,11,-113,82,108,136,116,60,6,-187
-134,24,-99,121,130,116,53,20,-38,-259
-182,64,-22,146,147,81,13,-6,-112,-312
3,176,143,128,94,22,-7,-9,-89,-87
156,43,28,19,21,-11,-9,-16,0,222
423,58,-43,-41,-39,-45,-54,-32,54,486
723,22,-171,-264,-255,-209,-118,39,274,835
131,289,51,-154,-181,-160,-13,22,110,46
-804,33,164,78,100,125,301,115,-65,-768
-1087,-133,140,146,200,225,326,119,-129,-876
-768,-123,114,134,166,181,184,70,-138,-709
-314,-156,11,56,83,121,67,63,-66,-361
209,-26,31,48,60,76,-36,44,-12,-80
810,91,43,40,43,18,-172,-21,1,214
981,17,-73,-2,-14,-41,-241,-55,19,464
1042,-125,-122,-85,-104,-111,-212,-43,25,591
719,-221,-101,-140,-141,-141,-144,-62,31,585
75,-226,-72,-115,-109,-103,-96,-65,42,439
-606,-198,-49,-64,-62,-26,-47,-8,65,127
-1096,-78,58,51,18,56,19,40,43,-318
-852,56,146,112,78,95,43,34,-4,-481
-343,73,57,105,76,88,36,9,-46,-434
-643,49,97,102,88,93,33,-6,-48,-417
-991,-11,136,99,109,118,57,13,-60,-515
-458,-38,62,55,69,86,47,9,-19,-356
-26,-13,31,6,-14,1,-22,-11,20,-77
-108,-106,-1,0,-21,31,17,43,64,-18
-88,-56,-1,-19,-31,33,36,78,65,-49
29,-17,-27,-48,-66,-2,42,50,46,-6
132,2,-105,-53,-70,-27,32,-15,-16,47
85,-9,-110,-35,-29,-14,46,-32,-35,3
-8,10,-12,-2,0,31,37,-13,-29,-48
-6,11,14,-25,-5,35,10,14,-14,0
41,17,-31,-68,-38,-2,-5,27,1,104
72,-8,-35,-53,-50,-30,12,26,8,104
66,25,64,40,13,4,56,80,56,-33
97,97,134,98,67,36,59,17,87,-100
245,111,103,56,34,12,23,-204,14,54
365,110,70,11,7,-5,-28,-271,-47,148
209,63,47,-8,29,17,-58,-146,-72,55
18,-37,-8,-26,49,60,-45,28,-85,-39
-5,-103,-63,-66,4,22,-49,101,-34,15
-56,-130,-142,-133,-91,-66,-25,191,-50,-4
-298,-177,-209,-120,-82,-47,114,157,-68,-186
-250,-113,-131,-62,-35,9,177,135,65,-116
124,35,40,28,25,38,40,62,133,45
145,86,113,84,63,56,-21,-35,46,4
87,70,73,68,45,37,-2,-66,13,40
107,64,41,54,24,19,0,-67,11,71
118,111,57,52,3,14,21,-27,22,51
133,182,62,38,0,19,24,10,17,36
189,169,52,41,15,25,-1,-13,-11,44
153,-47,-83,-10,2,48,45,85,94,188
22,11,-1,9,18,28,37,44,74,93
-64,147,81,53,45,33,68,-35,-95,-177
-146,-37,-61,47,41,67,237,32,-73,-135
95,-39,-177,-96,-106,-64,296,87,56,168
192,-49,-182,-208,-191,-148,313,87,84,292
213,-96,-236,-269,-237,-158,281,55,61,350
197,14,-155,-206,-181,-97,194,-54,-11,264
-83,-84,-111,-170,-154,-58,37,-164,-237,-96
-338,-308,-275,-310,-289,-176,-451,-258,-476,-388
-253,-345,-328,-336,-289,-137,-591,-82,-298,-166
-5,-176,-246,-227,-194,-55,-380,83,-62,115
167,169,73,-17,-35,6,142,19,6,160
437,333,242,137,71,69,791,0,133,254
539,451,361,257,160,32,498,-12,283,375
437,445,423,323,224,21,-276,19,320,386
18,254,341,273,205,-6,-673,127,270,42
-118,121,144,198,144,-37,-496,92,148,-154
-156,3,19,133,101,-12,-266,67,55,-184
-81,-92,49,92,87,-1,-194,31,85,-75
82,-110,35,49,53,-19,-168,-47,88,57
84,-66,54,45,46,-8,-132,-86,56,8
-279,-61,103,77,78,36,-68,-71,-17,-207
-633,-124,85,80,94,62,-12,-28,-43,-317
-510,-199,14,44,52,43,1,-4,-18,-121
-346,-196,-55,34,35,29,-11,-23,-40,5
-86,-127,-80,26,28,21,-28,-77,-88,-3
32,-92,-47,-8,-17,1,-10,-79,-22,67
-116,-94,-37,-45,-47,9,40,-200,20,1
-247,-129,-24,-14,0,58,93,-372,-53,-265
-222,-48,59,81,95,111,115,-475,-148,-396
-119,134,197,219,213,156,86,-468,-315,-470
-154,-34,133,192,196,146,76,-39,-293,-454
120,-177,-165,-196,-155,-107,-49,505,89,152
143,142,-50,-200,-208,-181,-113,584,160,97
117,133,42,-77,-79,-85,-47,336,164,89
201,88,-1,-93,-69,-75,-5,105,127,276
319,197,-3,-105,-105,-129,-45,-43,56,354
451,344,-24,-93,-134,-149,-107,-93,-2,333
716,364,-101,-163,-211,-224,-182,-108,-11,540
1067,273,-101,-235,-287,-311,-244,-140,6,710
958,168,-46,-178,-207,-230,-173,-111,2,500
202,-44,38,-9,-9,-29,22,20,27,-29
-434,-252,64,88,122,131,146,104,0,-390
-304,-307,44,75,114,133,117,93,-28,-227
336,-242,-6,17,40,70,56,55,6,108
503,-77,38,38,51,70,47,29,0,118
268,22,70,67,63,73,50,22,-28,-2
33,34,47,37,49,56,56,38,28,90
-212,-5,29,2,29,40,43,48,72,198
-696,62,60,21,39,34,60,40,72,145
-918,96,77,37,50,37,66,26,29,-36
-803,33,56,24,51,42,56,30,8,-138
-393,-42,17,6,50,50,63,45,24,-209
-73,-47,6,-12,36,37,51,-16,11,-296
-45,-124,-19,-2,67,73,103,-112,-60,-449
-3,-212,-62,6,90,86,70,-182,-161,-480
-217,-180,-41,52,126,91,-48,-188,-321,-510
-512,-215,-48,160,217,152,-39,-104,-342,-478
-605,-271,-152,98,151,96,19,50,-141,-233
-534,-70,-178,-108,-103,-129,17,211,-14,-128
-490,81,-96,-145,-163,-173,118,140,-84,-245
-244,1,-65,-113,-102,-89,199,141,44,-114
246,42,-62,-53,-43,-43,52,212,312,210
599,191,-27,5,-27,-63,-115,102,379,453
625,180,-61,-71,-87,-96,-96,-63,258,633
774,175,-23,-102,-108,-117,-76,-152,54,513
556,143,35,-40,-36,-42,-28,-98,-35,142
-37,49,74,54,83,73,73,3,0,-217
-355,48,128,161,168,118,92,34,-40,-392
-299,32,149,166,157,95,67,0,-130,-414
-243,-111,4,95,93,56,54,25,-124,-344
-355,-176,20,75,85,45,55,63,-86,-246
-240,-70,-1,64,65,6,-7,10,-108,-146
157,-57,-5,6,6,-11,-14,12,-70,-49
479,-72,8,-37,-26,-20,-10,9,-30,24
235,-26,2,-58,-51,-44,-20,-7,-13,89
-204,-18,-39,-33,-27,-36,-3,-14,14,74
-433,12,16,21,42,11,17,-14,-1,-23
-17,-15,12,28,60,55,32,25,5,-20
76,-98,-149,7,38,54,33,46,35,43
72,-90,-148,-47,-15,7,10,22,49,133
166,-30,-63,-78,-63,-34,-25,-7,65,210
170,49,-10,-42,-48,0,-25,-25,27,137
59,134,80,42,20,58,-1,-32,-45,-83
49,129,105,53,17,57,-11,-47,-52,-80
12,63,79,52,1,48,2,-71,-68,-38
-57,-48,40,33,6,66,31,-71,-80,-58
-79,-152,-93,-38,-36,52,53,-38,-5,51
-183,-115,-82,-37,-38,33,158,-33,-11,-42
-175,-26,35,-12,-28,18,231,-19,0,-91
-45,16,24,-32,-43,-1,154,-24,22,-29
-10,7,-3,-42,-40,5,46,-57,7,3
-34,0,0,-35,-22,17,-17,-90,-55,-10
-21,18,21,-1,-1,23,-89,-106,-85,11
6,29,55,21,17,32,-163,-87,-76,50
67,22,60,34,18,33,-171,-38,-56,114
168,39,21,38,5,-18,-171,-20,-14,150
95,-14,-69,-23,-55,-83,-145,35,-34,72
49,15,-102,-59,-94,-125,-112,91,-5,0
94,76,30,-16,-48,-85,-91,46,60,-18
166,-95,-39,-52,-44,-47,-57,31,94,161
226,14,1,-52,-70,-73,-77,-14,51,179
122,211,153,61,-8,-50,-106,-107,-100,-74
86,55,84,49,-3,-28,-92,-61,-48,54
174,-69,-47,-94,-95,-89,-83,10,141,408
231,-53,-104,-143,-137,-146,-131,-24,116,469
232,-74,-132,-88,-87,-86,-98,-43,25,313
175,0,-74,-6,-17,-15,-36,-29,-41,32
-165,-86,9,85,91,96,68,42,-30,-217
-339,-99,14,114,118,115,85,71,-28,-262
-221,45,86,60,41,35,29,53,-1,-181
-110,103,86,15,-10,-8,-7,20,-2,-162
-66,78,56,15,0,-3,1,28,14,-106
29,176,81,28,5,9,31,50,37,-11
82,226,75,33,20,18,54,56,73,-14
140,210,63,34,33,17,69,51,96,-28
188,144,25,-8,19,-12,72,35,79,9
55,45,6,-18,6,-20,64,26,67,-2
-146,-23,-52,17,12,-3,43,20,59,24
-194,-117,-91,-7,-15,-13,17,11,79,96
-245,-160,-58,-34,-31,-34,-3,23,79,128
-201,-125,-33,-54,-42,-48,-29,18,58,152
-110,-110,-24,-37,-19,-19,-25,0,41,109
10,-112,-25,-1,28,-4,-15,-21,-11,90
252,36,34,25,33,-30,-56,-65,-85,139
391,192,113,71,32,-50,-103,-99,-175,92
423,122,57,38,9,-70,-112,-91,-134,158
375,25,-49,-73,-71,-97,-76,-6,17,268
120,91,-33,-63,-58,-42,6,80,50,82
-26,149,28,-1,-14,-12,12,63,13,-40
-123,117,79,65,38,34,17,68,-30,-159
-167,26,53,91,59,84,65,101,-17,-256
-142,-34,31,80,52,103,93,122,-37,-271
-81,-6,39,63,45,70,66,39,-108,-215
36,-63,-9,6,0,25,49,-21,-53,5
-53,-137,-53,-34,-36,18,111,37,12,147
-172,-103,-46,-36,-30,29,248,102,11,121
-322,-97,-42,-34,-25,33,362,134,-4,-22
-520,-132,-17,-34,-21,26,373,106,-37,-189
-474,-58,42,11,14,46,222,32,-56,-158
-243,-30,69,69,62,86,68,41,-45,-15
182,-59,29,77,86,109,-6,67,-11,108
473,6,30,106,120,97,-193,-5,9,89
304,-27,-42,73,70,1,-315,80,72,-7
413,34,-118,-17,-42,-131,-290,63,147,24
514,53,-60,-64,-88,-152,-256,-27,137,-21
172,106,-46,-18,-58,-102,-194,-135,71,-74
-251,-29,-189,-75,-111,-113,-229,-226,63,52
-388,-169,-240,-214,-251,-214,-512,-340,-56,24
-105,-213,-209,-204,-204,-174,-527,-277,-109,34
-161,-198,-146,-129,-95,-67,-310,-171,-117,28
-307,-122,-100,-137,-104,-44,99,-115,-106,89
-227,-98,-94,-153,-123,-64,554,-97,-100,246
-88,-42,-50,-98,-87,-33,569,-99,-81,291
154,45,51,0,-2,36,165,-46,7,293
218,179,197,153,122,90,-113,86,71,11
77,216,211,233,206,158,77,239,216,-189
129,133,198,197,198,175,110,241,309,-149
-186,49,187,176,188,169,43,108,152,-195
-136,58,158,174,184,167,145,16,6,-234
48,99,217,239,244,185,254,-37,-85,-345
-68,20,194,252,262,195,265,-29,-151,-406
-85,-123,-49,2,32,76,187,106,74,77
16,33,-120,-162,-148,-71,40,121,183,336
152,119,-71,-143,-144,-84,-71,57,139,297
128,175,35,-30,-64,-64,-189,-20,43,112
-87,79,61,28,17,1,-176,15,21,-141
-214,-41,60,46,76,76,-100,66,-27,-333
-168,-119,14,15,59,58,-66,33,-51,-251
-101,-189,-21,-21,6,21,-53,7,-24,-82
-256,-175,-22,-33,-15,10,-21,17,36,24
-357,-81,12,-17,-7,21,-5,8,55,16
-299,-60,20,0,4,21,-15,-18,6,-85
-228,-65,27,11,40,41,-4,-10,-10,-141
-90,19,74,42,83,68,5,-41,-78,-248
92,66,97,81,115,96,23,-50,-121,-300
207,28,29,41,74,62,27,-26,-41,-151
81,103,67,49,55,19,-14,-58,-46,-108
69,151,68,16,8,-26,-25,-8,0,-27
74,-8,-31,-42,-28,-25,33,117,94,103
251,180,47,-54,-76,-70,-36,32,73,187
192,330,137,-2,-51,-80,-97,-71,-53,25
71,79,44,5,-34,-53,-65,-28,-28,49
133,-69,-44,-36,-43,-49,-44,-4,-22,90
334,-78,-95,-83,-79,-59,-80,-23,-41,180
437,-68,-185,-125,-124,-89,-94,-3,24,380
460,-34,-241,-123,-140,-117,-94,-16,18,424
373,4,-118,-83,-117,-107,-90,-50,-59,267
-14,29,46,24,13,1,-14,-32,-144,-106
-344,17,56,77,83,54,36,35,-74,-238
-408,-20,36,68,68,62,55,59,-5,-229
-295,-56,10,32,40,46,71,64,34,-139
-215,10,33,56,51,68,88,54,-14,-160
-167,-1,-8,50,52,66,105,56,2,-125
-93,-15,-101,0,12,23,50,41,48,-34
-43,-27,-89,-34,-29,-5,17,51,66,66
75,-1,-57,-48,-45,-19,19,53,67,160
93,38,-27,-6,-7,5,23,27,6,93
108,100,11,13,6,19,-3,1,-16,56
88,85,27,18,29,25,-20,-3,22,58
-24,96,83,103,136,69,-6,-64,-75,-173
-27,441,143,142,226,128,69,-22,-106,-243
189,762,119,-7,124,76,84,58,0,-9
238,425,-51,-142,-8,-1,54,51,88,193
200,201,-101,-162,-75,-34,23,15,107,272
146,641,69,-71,6,18,42,-15,24,117
36,644,111,-16,84,65,115,-12,3,20
59,562,111,-19,100,89,249,-12,-35,6
131,452,55,-50,55,87,350,2,-43,62
88,391,-10,-88,8,33,292,19,-97,49
-105,147,-153,-195,-106,-93,48,-40,-178,-120
-76,160,-214,-254,-161,-143,-178,-68,-147,-166
-50,287,-128,-199,-102,-60,-209,-61,-26,-138
182,395,18,-37,62,99,-43,-213,1,-27
505,446,190,153,222,239,488,-389,27,129
554,538,232,164,219,197,701,-431,-60,44
390,314,121,73,123,90,504,-352,-109,146
262,146,59,42,60,-22,262,-221,-144,303
121,-143,-59,-50,-66,-160,-39,242,-68,442
-172,-35,-118,-157,-174,-265,-283,766,22,352
-450,210,-48,-122,-140,-225,-479,805,116,115
-63,304,61,-10,-40,-155,-663,441,249,0
508,276,121,73,32,-76,-552,83,273,57
586,261,110,77,43,-58,-314,35,295,86
300,191,161,124,67,-21,-118,29,211,-151
-78,181,223,195,174,110,12,39,85,-384
-72,149,200,182,180,94,-101,41,107,-180
20,115,146,107,81,-2,-213,15,185,173
-93,-95,75,65,21,-6,-145,8,142,140
-147,2,39,80,81,83,-17,68,39,-161
-159,-8,32,88,130,151,57,52,-16,-323
-224,-127,-6,91,136,168,93,26,-24,-255
-380,-282,-3,92,78,109,33,-54,-60,-205
-258,-104,-9,4,9,25,-28,-92,-56,-81
-120,-337,-119,-38,5,50,35,10,67,111
-152,-393,-58,23,35,46,15,32,114,119
-260,10,107,82,62,-11,-37,12,16,-101
-401,-29,62,25,19,-48,-19,70,13,-113
-325,-85,-1,-22,-13,-55,2,92,-3,-32
-100,-67,-68,-75,-67,-55,18,99,12,175
124,-62,-157,-131,-144,-90,4,58,40,421
200,-260,-132,-134,-187,-132,-23,-36,-16,442
146,-447,-131,-113,-203,-140,-30,-91,-65,316
192,-159,-143,-131,-149,-112,-2,-39,-52,211
112,-95,-225,-119,-119,-69,0,-44,-17,73
-215,-23,-71,10,-13,34,38,-43,-111,-338
-296,-171,21,86,55,100,80,-18,-113,-439
-149,-112,14,79,74,117,100,8,-73,-232
-55,-70,-37,32,27,67,90,15,-61,-56
-55,-40,-70,-12,-30,12,49,3,-31,41
-279,-339,-59,17,-54,6,10,-34,-16,-30
-299,-259,-5,27,-45,-11,-25,-66,-44,-122
-85,92,42,18,25,15,-22,-43,-43,-105
293,109,40,-12,-9,-26,-54,-69,-15,28
329,-4,40,-20,-46,-58,-60,-74,-8,0
38,-208,45,19,-37,-42,-57,-90,-58,-169
-85,-133,36,-1,-14,-12,-40,-80,-65,-176
-238,-165,-11,-4,0,16,7,-50,15,-113
-191,-178,-42,-4,-11,23,19,-34,59,-58
-255,-531,-87,23,-27,44,21,-45,51,-139
-242,-316,-26,42,28,76,57,-10,44,-166
-144,8,20,38,70,73,76,18,25,-122
-98,49,13,37,85,65,63,13,23,-61
-5,43,-30,23,60,52,40,11,27,74
31,112,-124,-3,27,22,26,84,30,164
157,197,-79,-63,-27,-18,37,212,88,293
181,215,55,24,31,9,47,199,-42,70
54,4,79,86,97,51,47,155,-135,-141
-34,-186,-87,-8,29,2,27,110,-60,-134
-60,-92,-150,-63,-49,-82,-56,-37,5,-41
-70,-57,-46,-87,-119,-128,-119,-131,9,105
-68,-409,-183,-145,-217,-181,-216,-223,-35,117
-119,-535,-310,-265,-317,-249,-449,-333,-202,-105
-102,-293,-239,-250,-246,-188,-491,-259,-209,-168
9,-170,-103,-115,-119,-73,-297,-171,-158,-114
-10,-136,-30,-28,-47,14,131,-144,-180,-161
-39,-117,-2,-5,-27,29,665,-119,-129,-89
61,-109,10,10,-15,39,770,-87,-24,98
124,-416,48,98,5,55,301,-78,84,277
262,-248,113,140,56,36,-215,32,167,348
243,176,150,117,105,26,-224,98,129,177
209,174,140,97,104,49,-11,61,67,46
181,140,121,106,90,40,18,8,6,-2
-86,42,149,162,107,54,11,-40,-83,-179
-120,174,149,126,99,49,-8,-20,-72,-191
95,263,132,60,27,-8,-53,-30,-17,-48
-44,157,99,76,45,17,-25,-43,-55,-153
-85,-18,-1,23,20,22,11,-17,-24,-140
-74,11,-51,-15,-4,15,59,29,57,-48
-31,-72,-53,-31,3,31,205,61,122,100
71,-238,-66,-20,0,18,250,14,68,177
-25,-633,-110,-34,-99,-41,133,-47,61,246
-88,-401,-93,-62,-99,-36,57,-2,51,213
-88,-51,-52,-63,-46,-9,3,44,17,137
-189,-190,-37,-20,-27,-41,-112,32,-11,35
-208,-483,-29,37,-62,-105,-231,-41,-42,-47
40,-495,-54,17,-112,-139,-263,-73,-68,0
329,-299,-35,-15,-101,-124,-216,-17,-46,162
407,143,-32,-99,-84,-125,-134,64,85,376
350,354,50,-68,-46,-94,-100,43,60,169
468,320,120,23,35,-29,-48,13,5,7
555,34,94,42,0,-59,-43,-32,4,61
357,-57,82,24,-12,-45,-44,-30,-21,-6
27,123,64,17,49,10,-1,43,17,-24
-145,-116,-99,-30,69,76,61,86,48,-17
-144,-186,-186,-83,10,49,44,1,7,-113
-526,-282,-72,34,13,69,50,-185,-147,-468
-510,-207,-34,58,21,76,87,-178,-116,-430
-222,-338,-90,0,-37,16,-17,-104,-96,-290
89,-506,-126,-34,-82,-54,-136,-28,-78,-151
29,-579,-133,-22,-67,-55,-125,44,-15,-112
-295,-717,-239,-39,-81,-35,-19,198,8,-156
-299,-538,-299,-88,-90,-53,102,163,38,-78
-300,-51,-135,-80,4,2,219,138,108,-34
-189,157,23,-25,76,48,149,98,153,60
116,252,104,36,98,52,-14,29,134,183
373,-18,49,36,39,19,-25,8,111,266
396,123,84,46,51,45,4,33,68,214
294,394,65,28,58,54,0,22,-31,98
208,208,-97,-75,-18,21,0,-1,-33,169
127,-45,-53,-102,-68,-20,-8,-67,-61,131
52,-404,-15,-38,-82,-20,37,-164,-111,28
199,18,97,-8,-19,-11,176,-155,-153,6
379,431,118,-12,10,-11,301,-97,-209,32
212,371,120,-8,20,11,265,-74,-175,78
-91,202,92,-1,7,21,89,71,20,156
-440,-302,-25,0,-38,-18,-60,110,119,66
-446,-134,11,15,20,10,-112,100,112,-41
-33,191,63,18,78,34,-193,128,227,118
239,248,53,3,44,-22,-216,96,190,112
142,217,59,25,27,-27,-196,81,61,-85
-29,124,65,62,58,18,-117,40,7,-167
-313,191,87,69,83,45,-50,29,-51,-295
-484,176,26,9,37,29,-14,65,21,-201
-532,209,73,20,26,13,-5,59,47,-160
-328,326,112,25,-3,-16,-63,-13,-22,-152
-256,233,53,-1,-5,-21,-62,-7,-22,-51
-235,211,48,-9,-12,-41,-59,-17,-25,-64
-214,58,-9,-30,-16,-17,-23,11,55,2
-127,-83,-78,-23,16,6,12,15,43,15
67,-177,-85,-38,-30,-29,-22,-19,41,80
69,-567,-125,-27,-112,-70,-63,-85,24,101
50,-622,-107,-6,-130,-70,-61,-117,-7,92
-28,-509,-28,36,-79,-35,-16,-113,-34,-18
-80,-425,25,91,-8,7,41,-70,-34,-92
-51,-254,-13,65,66,61,108,25,31,-31
70,100,-23,25,94,104,126,99,82,21
-3,174,13,41,109,108,108,79,30,-90
-48,190,50,78,113,91,65,13,-34,-153
-35,-99,15,50,38,39,-20,-40,-86,-133
-28,114,95,70,86,53,-15,-12,-87,-162
-36,317,129,85,138,67,29,-62,-84,-140
106,291,78,18,57,-1,101,-220,-58,53
245,94,-53,-128,-106,-85,225,-298,79,275
123,57,-92,-117,-101,-37,279,-358,-24,117
80,120,-178,-150,-84,-8,286,-126,-99,59
-19,53,-286,-188,-121,-50,217,267,-93,-28
-127,30,-149,-126,-89,-59,126,453,-35,-94
-221,40,-30,-72,-21,-20,27,228,-14,-121
-122,-85,-119,-159,-99,-106,-311,-128,-148,-183
93,-104,-216,-187,-150,-152,-491,-216,-191,-70
96,0,-249,-225,-180,-168,-419,-170,-196,-30
-78,-62,-190,-195,-143,-127,-111,-141,-301,-299
-115,-260,-119,-69,-60,-8,389,-102,-221,-286
319,-166,65,90,16,42,396,-103,35,243
593,575,404,294,239,187,175,88,254,539
560,651,394,289,234,103,-295,316,355,600
281,413,264,222,178,24,-406,448,309,394
23,-124,122,164,105,0,-273,376,140,139
133,-224,12,76,34,-39,-201,288,44,53
319,80,-60,-51,6,-12,-91,319,157,194
163,261,43,2,52,39,-56,191,209,138
-103,512,262,171,155,87,-49,-40,45,-319
-144,349,194,175,158,93,-54,-121,-5,-289
-109,228,70,109,111,66,-67,-169,-34,-189
51,55,-10,80,81,36,-55,-211,-80,-128
255,-12,5,44,47,4,-1,-159,-40,-38
210,-103,-70,-37,0,-7,32,-68,41,36
74,-60,-34,-25,14,23,29,-61,62,47
119,68,48,39,54,58,22,-86,7,-62
277,18,36,21,9,21,-29,-78,17,36
329,109,-61,-65,-62,-55,-130,-78,12,205
264,141,-182,-105,-103,-93,-178,-76,12,280
56,104,-117,-48,-68,-44,-122,-81,-37,102
-450,-329,-128,47,-11,7,30,-99,-113,-174
-728,-374,-104,45,22,47,178,-41,-63,-185
-632,-95,17,0,35,77,240,62,53,-148
-285,-61,45,57,88,104,105,85,77,-66
-18,-222,1,29,31,39,-37,41,81,96
5,-622,-113,-48,-128,-51,-61,-73,84,198
64,-265,-21,-52,-72,-18,-9,-164,-2,67
-41,49,65,-18,38,58,71,-127,-61,-69
-68,59,42,-22,20,77,117,-2,-24,13
-26,-116,-5,-53,-40,30,114,66,13,154
19,-461,-55,-57,-103,-41,80,67,12,151
24,-156,-37,-68,-83,-50,173,211,-60,-7
-125,74,38,9,6,22,312,134,-207,-290
-240,24,33,30,21,39,336,25,-183,-329
-179,-165,-42,-41,-68,-39,124,-29,-18,-31
33,-157,3,-44,-93,-76,-95,4,140,244
185,-211,48,2,-83,-82,-195,-8,168,334
351,-147,102,50,-45,-34,-291,-77,126,383
288,266,174,55,37,10,-280,-3,129,251
-18,169,89,37,59,13,-174,104,132,-51
-6,134,41,12,29,-13,-177,26,-11,-252
213,0,19,14,29,10,-103,-11,-55,-258
241,-17,11,27,70,60,-2,43,-6,-226
52,199,90,34,39,16,-29,-15,-71,-249
-161,247,77,-2,8,-7,-42,-34,-71,-193
-208,106,47,-3,16,14,-20,-32,-59,-135
-79,89,17,-18,5,13,3,-16,-5,51
15,-220,-71,-48,-74,-18,-11,-6,84,264
44,-379,-116,-84,-119,-47,-15,-9,115,284
-83,114,5,-28,-20,6,39,40,105,143
-185,235,53,17,35,47,80,66,69,-13
-207,123,58,24,48,66,79,37,-12,-155
-141,-50,-16,-16,7,42,51,20,-19,-115
-198,25,2,0,15,51,62,39,-21,-140
-269,12,27,49,72,91,84,48,-23,-161
-220,-35,42,43,59,83,46,19,-32,-94
-123,-10,-18,27,2,25,-27,-39,-85,-75
32,47,-91,-42,-31,-14,-38,-44,-67,25
184,58,-17,-69,-52,-36,-32,-52,-58,102
240,65,-1,-51,-57,-40,-18,-37,-16,115
81,-47,-10,4,-23,11,46,6,3,5
-47,53,21,33,28,50,94,44,-18,-122
14,168,21,18,27,11,82,5,-57,-98
125,145,-15,5,-10,-20,46,-27,-50,-8
283,-120,-70,-44,-90,-86,-23,-79,-35,170
460,136,-43,-74,-83,-105,-77,-75,-57,204
262,160,20,-1,20,-14,-16,-73,-127,-10
37,37,50,41,53,24,18,-37,-104,-98
30,-176,-78,-61,-13,9,152,37,21,53
-133,-36,0,9,29,47,270,55,-3,-105
-309,56,51,62,69,93,268,95,0,-172
-325,-75,5,6,30,77,163,101,13,-77
-345,-477,-112,-18,-60,-12,-29,-17,-9,-53
-306,-772,-143,-2,-110,-65,-180,-132,-9,-6
-140,-748,-77,0,-117,-89,-271,-175,-5,93
-81,-595,-63,-4,-97,-74,-248,-109,19,123
39,-9,30,13,-21,-17,-165,-8,28,77
145,203,30,5,15,18,-69,16,33,72
47,286,70,32,36,22,-24,-23,-16,-24
-54,339,91,57,32,-4,-20,-64,-55,-47
-35,313,38,25,3,-42,-35,-24,38,152
103,382,86,47,29,-70,-60,-38,24,174
205,-39,-24,30,-26,-56,-8,12,77,248
149,-250,-131,32,-71,-24,18,44,95,165
152,224,44,96,62,44,35,41,-1,-96
140,232,89,68,81,44,37,39,-1,-72
239,98,-5,-9,10,-9,40,33,44,80
241,-263,-149,-96,-92,-40,34,27,64,118
69,-688,-208,-115,-169,-101,-32,-40,10,85
-154,-546,-127,-74,-121,-83,-51,-58,3,74
-8,-40,-47,-62,-50,-50,-40,-3,42,196
160,159,-1,-55,-49,-65,-53,2,52,225
116,155,-91,-77,-45,-48,-30,41,79,111
61,173,-14,-10,9,11,6,59,49,-147
134,431,179,94,68,50,51,30,-18,-296
139,372,151,58,31,29,60,13,-35,-148
117,389,114,9,15,14,35,19,-19,-12
10,367,133,59,93,85,71,39,-11,-80
-151,126,73,93,121,147,88,47,-7,-168
-200,-300,2,98,39,103,17,-44,-53,-212
-165,-255,-61,37,-8,54,-2,-46,-45,-115
-129,97,-53,-37,7,54,32,42,23,-7
-185,41,-15,-9,45,78,37,51,11,-65
-340,-29,-18,4,29,47,10,60,-66,-220
-413,-406,-152,-86,-76,-9,23,70,-104,-154
-334,-175,-113,-83,-42,6,103,-12,-168,-103
-155,26,-51,-50,9,20,208,-80,-205,-6
34,51,-22,-15,33,15,278,-77,-208,95
-29,-83,15,17,-28,-35,183,-11,-171,64
-83,-497,-120,-112,-262,-199,-36,-1,43,184
72,-602,-230,-193,-316,-251,-271,-107,247,402
129,-537,-93,-54,-163,-139,-409,-186,278,261
-37,-421,44,110,27,-7,-247,-132,74,-167
50,36,98,130,149,78,-80,64,19,-174
221,312,55,92,149,84,-35,124,60,-7
78,205,-55,9,75,41,-30,256,58,-66
-40,-73,-53,-50,-3,2,-34,184,52,-96
-184,-517,-71,-21,-44,-26,-74,31,39,-130
-137,-514,-48,22,-37,-41,-104,-62,52,-120
128,-158,1,69,10,-19,-85,-89,32,-71
142,423,117,77,84,24,0,-16,7,-44
115,514,142,38,69,15,35,21,35,47
104,346,47,-35,18,-13,53,45,97,177
151,287,0,-85,-72,-92,-5,-6,70,291
254,336,22,-89,-83,-93,-14,-31,-8,259
356,306,1,-72,-69,-50,27,-9,-11,207
151,252,84,14,23,52,93,14,-19,-100
-264,-204,53,78,71,135,155,31,2,-271
-269,-77,95,96,98,145,233,164,0,-203
0,279,113,60,96,103,309,288,-25,-46
128,307,74,30,55,39,249,264,-64,-20
-15,58,-86,-83,-61,-43,41,119,-168,-174
-269,-581,-310,-205,-249,-178,-373,-172,-260,-350
-329,-726,-221,-149,-198,-124,-403,-175,-104,-278
-260,-586,-149,-83,-116,-31,-52,-228,41,-151
-197,-430,-155,-75,-102,2,428,-562,-71,-137
-305,-443,-160,-63,-78,46,929,-723,-240,-224
-177,-110,-184,-92,-46,44,841,-701,-244,-74
68,291,-47,-74,0,43,176,-374,-147,113
537,431,33,-44,-9,-46,-522,139,23,373
840,409,186,78,63,-18,-489,482,236,428
716,-104,183,170,108,46,-149,454,351,295
578,-146,218,186,85,-15,-248,222,199,72
451,-128,205,150,49,-78,-387,60,61,117
393,-31,111,78,15,-92,-384,47,97,351
-61,425,178,112,131,29,-219,123,120,344
-405,437,147,100,175,113,-17,193,156,246
-605,301,26,64,148,122,68,208,195,127
-715,101,21,106,114,107,58,147,131,-72
-654,-81,-17,102,85,84,58,102,82,-148
-767,-279,38,102,48,42,10,13,-45,-410
-658,-243,69,60,-13,5,-43,-14,-80,-411
-576,-92,127,86,7,38,-36,10,-44,-286
-231,434,214,70,74,65,-18,41,-7,-131
368,607,192,16,71,36,-32,37,-2,12
379,208,0,-48,43,36,-13,38,27,113
339,189,-51,-87,7,8,-18,31,56,231
320,210,-30,-92,-26,-36,-47,10,36,254
223,92,-24,-75,-38,-68,-84,-1,31,270
231,195,-68,-102,-23,-68,-44,30,43,263
118,119,-80,-88,10,-14,53,56,9,19
13,135,18,-6,64,31,91,42,-69,-279
8,113,45,8,49,16,66,-10,-93,-315
97,334,51,-10,36,3,28,5,-50,-160
208,389,61,-14,19,-22,2,7,-4,5
160,170,5,6,9,-28,14,-3,-32,12
201,203,-5,-15,0,-37,26,2,-25,49
299,244,-33,-104,-44,-49,15,41,85,178
154,198,-51,-70,-29,-17,11,34,79,90
-159,-225,-31,34,33,48,25,-18,-1,-119
-194,-741,-140,29,-29,4,-55,-102,-55,-116
-191,-808,-237,9,-52,-3,-79,-99,-62,-32
-258,-770,-127,6,-22,25,-28,-53,-20,-37
149,97,33,-42,-45,-2,-34,-31,-15,-64
59,428,99,-13,-7,36,31,16,-18,-243
-322,-16,125,65,15,34,68,-27,-81,-408
-344,-371,41,28,-68,-48,25,-14,-56,-271
-130,-44,0,-11,-44,-17,62,77,63,-84
83,314,-49,1,25,44,101,91,97,-2
192,306,-3,7,26,26,77,39,53,2
219,165,15,-58,-41,-34,-61,-7,21,43
-30,-353,-88,-103,-139,-98,-166,-65,-12,49
-223,-588,-206,-101,-151,-118,-188,-96,-13,91
-185,-493,-199,-93,-135,-116,-134,-120,-34,110
-94,-326,-96,-103,-123,-97,0,-98,-37,134
105,214,25,-87,-25,-20,178,2,-24,128
353,493,121,-36,60,33,218,108,49,189
309,468,190,73,154,102,82,117,17,57
155,219,179,124,147,93,14,26,-45,-54
194,-384,19,67,8,-18,-61,-98,-55,29
60,-567,-28,67,-17,-22,-48,-123,-64,13
-121,-448,39,67,-26,-12,-18,-127,-132,-140
-299,-476,-35,-4,-80,-10,11,-88,-113,-153
-424,-470,-50,-24,-105,-21,22,-51,-39,-70
-364,-426,-54,-53,-122,-57,35,-40,-14,0
-185,-183,-17,-47,-91,-45,12,-45,-33,30
-64,295,51,-8,35,45,64,34,4,30
-4,420,41,-15,92,95,137,41,2,-27
30,399,-18,-54,46,86,279,-32,-13,7
-72,63,-116,-10,29,100,413,-117,-101,-48
-81,-313,-175,28,-16,74,443,-174,-170,-38
-19,-254,-121,48,-28,43,385,-156,-234,-27
-61,-305,-105,75,16,45,218,-138,-245,-38
-158,-297,-124,32,-10,-3,-81,41,-151,57
-5,220,-100,-200,-164,-187,-337,163,-38,298
226,499,-42,-254,-191,-254,-435,109,31,282
442,474,34,-152,-102,-189,-458,104,120,128
450,541,148,-37,-36,-128,-360,71,39,-44
401,591,139,-58,-69,-164,-356,115,27,66
79,230,58,-44,-47,-94,-271,130,59,-30
-123,-34,68,63,68,54,-57,208,232,-120
-54,311,159,116,158,132,58,214,355,50
9,395,180,118,152,120,40,56,218,63
185,295,113,79,98,76,-5,-39,125,80
264,87,41,58,43,32,-58,-69,62,82
214,162,45,64,69,38,-57,-52,12,40
21,-151,-11,44,4,3,-61,-40,57,28
-94,163,51,48,81,68,6,32,121,-1
-266,404,165,132,172,134,23,12,57,-151
-183,387,138,106,126,80,-17,-34,0,-147
9,306,61,28,39,17,-54,-39,17,-24
91,272,52,3,20,-3,-47,-8,52,84
36,112,35,-13,-11,-15,-33,-10,29,85
164,95,7,-53,-41,-36,-11,10,18,118
145,285,41,0,-1,-48,-16,15,-60,-18
-55,169,19,-15,5,-28,30,20,-63,-32
-419,-179,-93,-82,-46,-31,55,34,-20,62
-492,-363,-107,-51,-51,-24,39,-22,-16,9
-84,-117,-71,-43,3,20,87,36,59,122
-200,28,-2,15,65,41,84,29,-12,-43
-270,85,61,64,108,50,64,23,-82,-201
-88,89,104,98,109,50,71,20,-85,-227
30,203,108,80,108,41,90,34,-72,-149
25,156,39,35,79,24,74,18,-81,-108
87,91,-61,-14,21,-1,50,12,-58,-44
90,50,-20,-13,0,-14,21,-23,-78,-64
-19,106,-12,0,47,29,50,-6,-35,-89
-101,-205,-88,4,50,47,41,-13,-7,-72
-96,-654,-119,34,-11,-6,-56,-97,-74,-83
-88,-652,-71,23,-60,-42,-103,-154,-150,-149
-1,-768,-185,-97,-147,-100,-120,-93,-28,171
88,-282,-81,-86,-101,-92,-113,-63,-26,164
110,-117,-26,-52,-59,-60,-88,-86,-106,-33
-28,-579,-134,-73,-109,-68,-60,-56,-48,6
-12,-572,-123,-59,-116,-63,-48,-13,39,107
35,-441,-70,-26,-76,-26,-33,-17,32,30
-17,-428,-95,3,-55,5,-5,-5,38,25
-157,-380,7,75,-4,42,-9,-39,9,-97
-187,-325,49,93,43,71,17,-27,-17,-204
-122,-328,4,43,19,33,16,-48,-20,-147
-57,-280,-5,42,-4,-19,-7,-80,-14,-46
-52,-237,-3,24,-27,-51,13,30,-14,-9
-78,-258,-32,-26,-64,-52,57,199,3,-6
-45,-258,-118,-54,-67,-33,67,222,20,42
93,-314,-190,-75,-75,-44,59,192,49,142
313,-225,-68,-68,-85,-57,5,93,29,178
490,-115,12,-33,-60,-55,-34,-62,8,186
549,-104,-48,-49,-68,-69,-57,-172,23,267
326,-10,-23,-14,-39,-53,-61,-235,-31,210
-87,-38,51,27,-19,-51,-66,-275,-98,13
-536,-161,-19,35,28,25,8,-222,-159,-225
-459,-145,-47,11,28,62,29,-140,-73,-180
-264,-40,-32,-32,-28,42,13,-31,103,48
-122,300,-3,-56,-19,26,-1,31,166,252
388,676,46,-111,-65,-51,-70,-5,163,424
586,257,-57,-163,-194,-152,-155,-86,119,494
448,67,-46,-105,-171,-134,-190,-113,4,193
169,-32,0,-22,-60,-34,-32,-35,-6,-124
-45,-135,8,28,33,45,160,1,-65,-393
-198,-139,44,72,86,108,236,7,-134,-526
-279,-121,10,52,55,79,243,-13,-120,-357
-383,-85,-14,34,48,51,221,-39,-79,-155
-315,-102,30,66,83,76,88,-20,-4,-25
-66,-58,-21,-14,28,22,-243,-59,22,14
-139,393,-24,-110,0,-35,-470,-160,-115,-224
-138,795,124,-52,62,19,-393,-149,-144,-245
-194,655,113,-8,62,67,-33,-197,-158,-183
-174,715,27,-23,69,109,618,-256,-149,-49
-47,786,94,22,108,136,1079,-270,-100,31
171,608,143,106,167,153,787,-161,-102,18
422,332,145,155,200,147,26,146,-58,29
636,216,-10,25,93,-3,-480,555,70,60
306,157,-198,-61,12,-42,-275,799,236,53
-56,224,-117,32,97,74,34,662,280,-13
-379,-190,-60,169,159,143,182,327,199,-42
-297,-314,-26,190,136,103,152,0,61,39
-70,-103,86,121,29,-4,-11,-153,-53,27
-95,-293,84,115,22,38,-87,-90,-88,-5
-81,-344,34,45,-24,24,-139,-14,-15,141
120,-8,-28,-122,-116,-71,-281,34,90,383
134,278,61,-83,-45,-67,-316,13,55,282
118,-134,21,-69,-107,-126,-148,29,61,196
210,32,16,-109,-111,-145,7,108,89,119
134,439,-18,-145,-67,-126,80,105,-33,-30
-43,450,-45,-144,-55,-97,-10,-20,-200,-183
-58,422,22,-91,-14,-55,-144,-193,-303,-229
44,183,19,-19,5,2,-153,-238,-279,-149
292,475,103,112,157,139,21,-74,-162,-74
271,591,181,144,201,154,238,114,-51,-89
75,398,74,48,83,-7,74,266,56,-111
60,247,51,-5,0,-73,-93,378,288,32
190,236,99,-8,0,-72,-72,361,453,181
347,325,155,37,51,-21,-5,229,419,272
349,336,131,44,53,-13,-13,32,220,306
183,3,116,44,-35,-71,-86,-146,76,280
-44,-465,18,30,-64,-73,-99,-170,37,223
-112,-472,0,18,-96,-88,-98,-147,71,196
-156,-107,49,-1,-81,-90,-85,-108,28,52
212,274,40,-65,-33,-75,-59,-29,47,106
371,244,47,-28,22,-29,-24,15,65,136
201,223,83,66,109,51,43,28,9,-17
-93,55,57,80,135,94,128,67,-3,-90
-189,182,79,34,66,19,119,51,-29,-152
-349,-145,111,84,38,24,113,-33,-127,-361
-380,-426,2,61,28,51,134,-21,-96,-321
-271,-62,0,30,84,79,154,49,-56,-264
-211,12,8,20,81,101,148,55,-50,-218
-67,-289,-25,-2,-30,25,63,-17,-31,-58
-27,-546,-77,-8,-100,-32,-11,-87,-42,-7
25,-316,-51,-17,-78,-23,-44,-85,-42,17
105,165,6,-51,-28,6,-34,-28,-22,54
100,265,3,-68,-18,8,-36,-15,-14,49
-57,-41,-28,-24,-38,12,-43,-33,-11,19
-158,-370,-63,-22,-78,8,-29,-39,36,63
-70,45,39,14,24,42,-3,-13,-1,22
31,235,102,58,80,39,-7,-2,-52,-29
105,289,108,35,33,7,-3,11,-65,-29
105,117,-18,-32,-37,-25,-11,-27,-48,13
187,84,-204,-100,-77,-32,0,6,46,123
85,204,-123,-86,-36,11,114,45,84,73
-69,146,-132,-49,-12,43,253,71,101,59
-73,-9,-95,-48,-41,16,205,38,71,97
-89,-200,-30,-37,-70,-1,101,1,49,35
-188,-562,-31,0,-84,-17,1,-57,-6,-124
-158,-589,-10,39,-68,-15,-82,-106,-53,-155
-31,-474,-14,41,-59,-30,-178,-125,-40,-32
195,-118,-28,-27,-52,-55,-222,-78,-25,101
337,369,100,-11,24,-30,-186,-19,-71,64
315,333,62,-28,22,-10,-111,4,-35,131
351,172,-28,-112,-59,-44,-100,0,25,296
389,-16,-30,-101,-114,-87,-129,-71,-22,292
376,230,-66,-101,-69,-79,-82,-51,-36,304
84,252,-51,-82,-12,-29,-29,2,-10,254
-90,116,40,-19,53,31,42,42,2,87
117,-188,-35,-38,-34,-17,10,-10,-16,80
185,-198,-84,-81,-108,-85,-38,-42,31,187
168,217,-37,-79,-56,-72,-18,28,49,124
33,228,43,-5,35,13,20,58,0,-143
-354,-31,85,107,117,98,99,67,10,-403
-698,-490,32,149,83,95,86,20,-22,-482
-632,-699,-41,105,32,79,69,14,-33,-414
-464,-705,-72,51,-1,43,46,13,-9,-303
-347,-251,5,42,67,61,67,32,-19,-265
-183,168,-18,46,112,71,103,60,-2,-195
-18,181,-31,25,73,35,69,39,16,-66
-46,42,19,31,45,16,26,4,17,-30
-276,-331,14,94,27,4,-40,-90,-55,-196
-361,-464,-31,68,-11,-15,-127,-133,-104,-258
-304,-378,28,109,20,3,-148,-151,-136,-282
-106,-237,66,100,10,-21,-146,-115,-41,-46
159,2,-51,-77,-96,-116,-66,-5,145,341
243,-226,-144,-169,-203,-185,42,6,168,415
201,-356,-162,-153,-208,-169,138,17,116,300
206,71,-40,-47,-45,-38,162,121,99,161
210,460,113,39,79,54,61,181,73,62
195,463,131,51,85,59,46,129,42,18
332,374,106,41,43,35,19,70,29,46
311,-38,26,37,-52,-11,-31,22,48,125
192,-182,9,35,-85,-55,-49,51,49,158
56,-95,21,-2,-73,-70,-58,99,40,96
-148,306,26,-31,-7,-15,-31,106,58,-6
-447,315,13,6,55,39,8,-30,21,-100
-504,-103,-68,12,13,2,-1,-164,-43,-77
-202,126,-47,0,27,8,-9,-157,-57,-31
245,337,47,-11,38,14,-27,-113,-33,11
578,270,-3,-43,14,-10,-24,-73,-8,148
375,-51,-89,-55,-45,-48,-37,-72,-28,189
99,-370,-102,-2,-38,-20,-34,-82,-87,66
82,44,11,75,106,87,62,16,-82,-95
234,175,-24,24,101,79,71,70,5,67
200,278,29,-11,32,7,-13,1,-17,95
-57,168,50,0,15,7,-8,-16,-7,-10
-107,50,52,43,49,37,14,-20,-23,-192
-13,165,32,40,62,22,14,3,-70,-202
-158,107,31,80,103,65,48,24,-103,-230
-166,-482,-100,66,43,79,77,36,23,48
-202,-531,-24,62,-38,-2,-24,-78,0,35
-213,-401,29,10,-98,-65,-93,-132,-72,-96
-194,-557,-90,-51,-128,-58,-50,-71,0,-40
-76,-447,-105,-92,-145,-54,-26,-16,105,148
-22,136,9,-80,-84,-32,-6,9,56,67
-109,110,75,-12,-34,10,24,-6,-13,-160
-170,143,115,37,36,35,57,55,29,-221
-104,525,241,101,131,35,20,76,16,-201
103,566,217,85,111,12,-19,50,2,-98
205,432,116,25,59,-5,-24,66,5,-12
11,258,82,38,56,18,5,44,12,-14
-187,-205,-21,43,31,32,44,-82,-2,-76
-192,-249,-74,34,33,55,86,-114,-1,-76
-1,149,-26,13,66,68,103,-20,9,4
147,23,-33,4,50,72,107,117,30,86
148,-40,-68,-32,15,63,137,240,18,82
-20,10,-198,-209,-134,-78,-83,266,-171,-117
-159,-27,-250,-248,-185,-93,-255,255,-275,-214
-176,-78,-177,-170,-118,-11,-152,151,-210,-136
-131,-69,-145,-120,-77,5,212,-28,-149,-12
-38,181,-85,-48,-1,5,720,-210,-113,146
154,308,34,26,19,-42,756,-211,-51,211
514,275,-9,60,25,-37,229,21,171,260
533,170,-77,83,74,-3,-353,171,358,283
321,128,-41,73,83,-1,-429,57,275,172
82,-158,1,76,34,-5,-396,-77,168,123
-42,-373,13,120,20,-5,-450,-136,97,174
-149,95,134,136,113,38,-317,-27,79,67
-84,268,132,112,115,36,-234,25,79,-12
-192,-20,70,94,62,29,-171,-18,46,-57
-126,-32,29,52,24,26,-106,-12,56,12
-33,190,38,36,49,47,-49,34,56,25
-12,177,70,73,93,76,-24,17,-3,-40
-79,-27,36,94,93,85,-23,-22,-37,-64
-74,-44,26,26,4,9,-57,-54,-34,-60
97,191,-13,-69,-48,-31,-54,-2,37,74
154,288,-7,-64,-34,-24,-42,7,5,38
81,233,97,-11,-18,-20,-53,-18,-48,-66
5,25,105,16,-26,-11,-40,-28,-39,-32
6,154,102,21,-6,5,-21,-10,-16,57
108,257,108,19,-29,-39,-65,-66,-27,64
57,123,89,61,0,-21,-52,-92,-88,-132
-34,-607,-42,36,-50,-10,-5,-76,3,-8
203,-697,-113,-32,-155,-92,-58,-139,11,243
424,-352,-136,-110,-174,-130,-78,-150,22,465
503,125,-91,-174,-159,-122,-43,-49,119,599
171,297,-4,-77,-41,2,65,47,103,170
-426,255,112,105,166,185,197,120,7,-458
-598,61,114,125,178,195,159,35,-92,-636
-404,0,5,16,88,121,58,-196,-116,-474
-271,-59,-63,-58,20,58,-13,-381,-121,-277
-251,-118,-42,-46,5,26,-35,-445,-132,-125
-263,-534,-82,-9,-64,-9,1,-306,-98,-53
-253,-426,-117,-42,-97,-46,82,123,-74,-100
-251,-357,-157,-48,-91,-66,146,494,-26,-177
-121,-541,-60,15,-49,-11,81,503,127,-33
158,0,63,40,65,71,25,310,189,184
204,401,144,68,118,79,20,64,22,129
-117,376,143,130,162,113,29,-24,-118,-88
-246,160,97,131,144,128,45,7,-133,-118
40,-245,-56,-18,-77,-35,-35,-31,-46,207
522,71,-103,-190,-218,-167,-87,12,93,583
745,464,-13,-167,-188,-182,-117,-18,52,610
918,446,-70,-188,-216,-212,-162,-47,27,712
796,440,-58,-184,-198,-212,-159,-55,8,586
116,517,64,-25,-61,-70,-65,-13,-31,97
-533,498,205,132,117,103,88,87,-23,-375
-962,-104,161,204,154,148,154,82,-51,-649
-893,-713,77,212,99,139,135,14,-91,-683
-554,-829,2,154,63,112,119,10,-20,-475
-345,-354,29,95,89,90,100,47,0,-286
-163,-172,0,34,64,50,56,40,-9,-181
-207,-658,-103,8,-50,-32,-2,-50,-36,-160
-235,-824,-145,-21,-108,-64,-19,-66,-34,-130
-235,-835,-169,-30,-96,-31,6,-33,-26,-106
-144,-792,-192,-33,-95,-9,31,-10,-8,-18
1,-621,-190,-13,-102,-5,21,-22,25,55
59,-316,-144,13,-68,0,32,-16,23,55
172,201,-9,-19,8,26,58,40,29,83
159,175,-8,-23,-9,10,34,40,38,91
138,407,60,-15,35,35,44,60,22,37
151,530,99,-5,63,32,29,34,0,5
157,549,122,28,81,22,13,1,-48,-33
158,421,57,-14,42,0,13,49,-9,60
234,439,72,0,48,13,43,34,18,128
103,169,43,29,68,44,165,-3,-27,50
-196,-516,-175,-16,-47,-5,179,-36,0,-9
-310,-582,-234,-7,-87,-23,97,-46,4,-101
-183,-527,-196,-28,-104,-55,-7,-69,-38,-105
30,-489,-212,-96,-160,-116,-109,-90,-69,5
161,-401,-137,-59,-141,-149,-218,-95,-55,137
216,-343,-54,-39,-121,-159,-270,-97,-37,243
134,-393,-60,-72,-139,-161,-218,-25,0,280
69,-399,-118,-106,-160,-160,-171,18,31,320
47,-271,-174,-108,-150,-158,-140,-31,25,297
55,-112,-102,-52,-105,-117,-75,-94,19,182
243,9,45,25,-33,-37,-3,-191,-62,0
326,9,122,98,47,31,54,-199,-126,-226
170,-136,45,97,62,47,60,-64,-113,-259
-129,-193,-23,59,68,52,61,102,-51,-73
-80,427,55,-43,28,-6,26,213,41,107
276,740,43,-160,-86,-94,-44,282,31,85
382,698,85,-110,-31,-31,0,211,65,11
133,599,165,4,81,82,90,142,103,-152
-56,424,178,87,155,149,134,66,31,-416
-54,475,164,96,189,192,154,33,14,-372
-97,440,98,49,153,139,122,9,26,-178
-293,376,85,61,161,136,103,19,26,-114
-429,-58,-19,62,83,96,98,54,32,-126
-401,69,-27,44,65,80,84,90,48,-114
-283,418,-4,37,101,86,67,63,22,-90
-132,400,59,16,92,89,71,46,24,-77
-61,246,45,15,67,80,90,54,49,-11
-14,-71,3,29,44,61,68,2,31,5
31,261,72,15,63,58,74,-12,13,-4
49,363,48,-42,21,18,56,-23,15,96
96,276,2,-79,-11,0,24,-19,22,190
201,-136,-84,-98,-81,-35,-43,-50,1,222
114,-671,-175,-118,-160,-81,-111,-107,-23,177
-67,-614,-118,-105,-145,-82,-132,-126,-58,80
-48,-109,21,-41,-36,-21,-82,-19,-19,-57
60,352,123,10,74,57,-18,135,96,-157
108,412,123,31,86,59,-21,100,132,-48
294,351,111,9,55,4,-76,-40,21,198
440,-175,-45,-65,-66,-71,-151,-141,-39,375
505,-273,-104,-98,-106,-97,-139,-80,40,534
492,315,15,-70,-36,-68,-109,-9,36,446
164,412,21,-38,2,-34,-76,18,9,153
-137,350,70,-18,51,28,10,60,38,-60
-194,265,98,57,105,92,80,76,-10,-226
-94,277,110,56,94,78,64,65,-60,-223
-239,45,-8,-38,-4,23,-66,-78,-257,-365
-450,-470,-185,-128,-133,-26,-260,-100,-407,-528
-344,-222,-144,-117,-103,5,-161,129,-320,-389
-262,33,-25,-64,-69,7,152,207,-293,-358
-235,167,66,-7,-12,16,641,141,-259,-299
-157,103,94,22,4,7,922,40,-115,-189
56,-119,42,11,-22,9,662,-53,84,-6
140,-516,5,64,-19,69,92,-31,374,183
237,-170,180,217,134,127,-475,-31,470,285
225,175,213,216,212,103,-410,-53,276,204
347,58,49,43,65,-17,-256,-78,178,227
313,-18,-14,2,15,-37,-192,-144,130,181
-115,-439,-57,73,33,37,-79,-141,105,40
-223,-287,4,81,64,78,-26,-92,87,-30
-114,157,51,49,100,83,-9,-48,60,-42
-95,146,29,31,94,81,-8,-40,22,-11
-171,5,-8,20,89,84,45,-8,20,22
-201,-345,-47,4,19,48,158,-4,19,51
-176,-147,-57,-32,0,41,174,0,21,19
-169,119,-42,-26,17,14,87,-233,-75,-60
-104,132,19,-45,-5,-36,-2,-551,-165,-64
-82,37,13,-34,-22,-35,-63,-653,-221,-84
49,12,-26,-11,6,-1,-109,-462,-205,-22
42,89,35,-13,51,16,-140,11,-133,-15
-22,82,-55,-141,-89,-145,-261,546,-41,-35
83,-70,-170,-262,-257,-279,-295,792,99,116
166,-45,-78,-150,-202,-202,-215,440,146,219
278,281,80,-5,-50,-85,-154,99,82,243
225,195,132,113,111,54,-96,-79,-45,116
108,60,82,75,105,87,-69,-41,12,91
37,78,94,42,7,18,-102,-48,16,-28
18,-183,23,27,-15,18,-45,-16,11,-72
104,-125,10,35,19,41,-12,12,6,-65
376,196,53,4,3,5,-17,19,28,84
575,336,80,-42,-50,-62,-48,-21,66,241
463,269,83,-26,-64,-79,-55,-47,78,312
151,162,46,-32,-59,-80,13,32,86,276
-128,136,-11,-53,-44,-51,90,107,97,236
-165,84,-55,-83,-55,-20,95,88,88,252
-160,86,-58,-79,-48,-5,124,30,37,162
-87,117,-46,-66,-21,32,277,24,-16,-54
-48,45,-25,-20,38,97,385,77,-19,-334
-99,-124,-39,0,51,107,293,68,-56,-439
-320,-461,-144,-73,-57,-5,40,-52,-175,-441
-488,-448,-187,-147,-117,-52,-161,-120,-251,-437
-486,-318,-160,-118,-53,30,-152,-91,-194,-352
-322,-156,-25,40,83,154,-53,-44,-83,-200
-125,-147,103,172,177,209,165,13,-13,-119
-20,-93,120,162,161,127,111,47,-29,-134
89,-58,54,109,126,54,19,114,70,92
55,-421,-70,25,-36,-49,41,52,138,271
66,-440,-81,-9,-130,-147,18,-105,52,285
74,-386,-72,-53,-140,-147,9,-140,57,388
19,0,2,-29,-34,-54,50,-93,46,307
-109,151,10,-40,3,-18,120,-75,-21,89
-165,114,-4,-58,-5,-19,196,-59,-94,-215
-19,58,4,-43,-10,-37,129,-9,-135,-331
14,69,32,-10,-11,-75,-94,16,-105,-278
40,174,86,27,27,-61,-218,28,1,-163
-4,240,93,61,74,0,-256,150,198,-44
-49,173,91,99,111,60,-240,186,282,30
-41,24,0,99,67,24,-189,97,164,14
0,49,-32,101,38,-27,-178,19,45,-63
52,-17,-6,84,79,51,-53,41,48,-24
103,-91,-36,28,39,63,12,108,145,142
-61,-88,18,43,-1,23,-5,56,52,-68
-180,-327,20,64,-28,5,-15,-17,-19,-140
33,-3,0,-10,-14,5,-12,14,25,104
151,240,-26,-23,9,-9,-93,-25,7,212
143,306,66,21,38,-13,-175,-117,-54,132
149,146,42,-15,-18,-67,-193,-143,-81,113
141,62,-43,-117,-104,-140,-133,-95,-85,88
8,-37,-58,-127,-123,-126,40,-7,9,-28
-233,-308,-108,-102,-106,-92,211,4,33,-221
-223,-48,-56,-70,-40,-31,238,-8,-30,-218
49,167,49,12,31,3,54,-60,-50,-55
419,229,89,50,50,-13,-68,-119,-76,54
569,-157,27,31,-40,-75,-74,-172,-80,118
400,-353,-11,23,-73,-68,-44,-154,-32,196
446,123,39,-16,-28,-41,-37,-51,11,312
227,154,5,-32,0,-15,13,37,58,198
-352,58,0,25,66,66,83,75,63,-20
-505,-285,-34,43,44,78,121,41,52,-85
-418,-432,-33,63,47,89,250,0,7,-138
-231,-40,-19,39,90,124,291,54,-2,-150
-196,-144,-159,-4,53,103,202,54,-2,-129
-239,-307,-132,-5,2,30,63,-48,-52,-178
-152,30,8,-18,30,11,-14,-33,-59,-167
15,147,33,1,57,-4,-95,22,-27,-100
107,137,-1,0,27,-42,-156,96,17,30
-36,18,-18,-36,-35,-97,-183,172,73,73
-102,88,-5,-44,-40,-87,-159,134,79,64
-67,149,12,-15,-3,-34,-74,0,77,92
-102,61,5,16,33,9,12,-55,104,150
-111,-240,2,26,0,1,18,-103,74,106
92,-123,30,37,1,-7,-17,-109,7,-36
328,166,11,20,36,-1,-32,-48,11,-3
166,155,-80,39,59,25,-14,-5,11,-37
51,123,-53,35,51,25,-14,14,2,-53
95,63,-25,-11,2,-7,-25,11,4,-12
31,115,1,-15,25,14,2,43,-15,-59
-67,-183,10,42,13,38,-44,-50,-108,-110
-70,67,51,72,57,64,20,21,-31,-103
-111,89,43,25,26,29,22,31,3,-73
-126,45,49,45,28,18,15,-23,-51,-143
92,31,10,5,-20,-23,36,-1,27,16
332,196,17,-40,-55,-49,57,49,107,204
391,212,0,-77,-103,-102,-4,9,103,298
302,101,-10,-87,-130,-135,-70,-67,70,319
129,129,53,-33,-79,-117,-93,-102,-2,169
177,251,97,21,14,-26,-35,-41,-37,34
87,150,34,30,46,42,39,-43,-45,-54
54,-148,-133,-3,5,45,88,-145,-30,12
-18,-654,-156,16,-40,38,90,-213,-48,-7
-287,-430,-33,57,47,89,118,-76,-33,-69
-300,-247,-5,44,65,105,124,80,24,-30
-296,-576,-62,12,-38,35,47,99,69,-9
-444,-262,-38,-29,-42,-18,-5,208,35,-134
-380,77,26,-24,2,3,1,173,29,-193
-311,-344,-2,27,-35,-7,-28,19,11,-168
-192,-242,55,66,-21,-20,-67,-92,-4,-137
131,282,108,37,21,-22,-65,-53,-3,-17
266,292,86,38,29,-15,-15,72,-13,20
382,198,84,26,11,0,30,218,37,102
274,-237,-72,-24,-54,2,33,276,81,171
163,-155,-88,-46,-69,-10,5,258,41,159
26,154,20,12,24,37,52,228,9,-23
-99,134,-3,22,58,61,69,124,29,-46
-29,136,-22,-16,18,3,5,-10,6,56
42,147,-31,-52,-14,-22,-37,-71,-7,91
-53,142,-46,-49,-13,-13,-60,-72,-20,3
-147,200,18,-8,10,-13,-60,-102,-121,-176
-50,293,72,4,15,-16,-87,-127,-146,-137
17,172,52,-11,-6,-43,-127,-153,-93,-57
-32,-371,-69,2,-46,-49,-147,-198,-49,-25
-104,-582,-85,39,-27,-27,-125,-200,-56,-70
-136,-112,80,115,105,36,-51,-107,-120,-176
-78,177,123,98,134,61,-6,-11,-72,-55
-4,8,28,-15,-1,-38,-35,-27,-3,152
-102,-92,-20,-49,-79,-94,-43,-77,-11,128
-234,154,-24,-44,-13,-24,-3,-72,-73,22
-199,149,-46,-42,16,11,11,-216,-146,-30
187,124,-22,-32,28,30,31,-388,-159,-30
299,-44,-60,-20,0,31,28,-465,-141,-27
238,117,-152,-56,-12,18,53,-266,18,135
216,252,-77,-80,-50,-40,5,140,138,147
172,202,-73,-90,-76,-90,-63,474,91,-56
0,-275,-158,-11,-41,-27,-16,557,93,-149
56,-275,-21,58,34,48,40,358,125,-133
117,114,44,67,98,78,52,144,86,-93
-21,131,21,67,117,95,148,15,28,-55
-174,41,77,66,106,93,234,18,3,-111
-298,-453,-31,32,4,27,140,18,5,-64
-305,-670,-106,0,-60,-30,-12,-19,4,4
-292,-458,-74,13,-31,-36,-111,-33,-33,-31
-130,26,32,19,22,-16,-129,2,-57,7
192,184,17,-12,10,-37,-207,-7,-66,98
406,101,-88,-79,-58,-78,-305,-3,-67,215
369,-246,-158,-119,-143,-123,-331,-27,-53,280
161,-574,-168,-83,-180,-114,-240,-105,-76,232
-81,-399,-93,-10,-123,-76,-76,-123,-99,98
-235,62,36,38,-20,-10,101,-54,-58,-17
-184,156,104,107,72,38,188,7,-30,-171
-148,303,208,209,174,115,149,93,-15,-240
73,464,200,131,126,87,57,133,9,-43
137,313,71,-25,-6,-15,57,145,116,176
-133,46,71,16,14,-13,22,51,0,-43
-315,-356,16,30,-5,8,2,20,-35,-133
-142,6,17,1,12,31,29,59,-9,-91
20,230,21,5,36,32,28,55,-21,-85
27,242,35,-3,40,20,22,76,24,22
57,95,-15,-41,-12,-14,-1,55,76,167
127,130,-3,-41,-6,-6,2,26,69,139
