131,47,-5,7,14,6,35,29,-15,36
-114,-257,-9,-6,-36,-11,-5,-64,-104,31
-220,-423,0,7,-61,-17,-32,-110,-103,1
-85,-173,-51,-47,-52,-35,-128,-16,-298,-17
10,-92,-93,-98,-63,-61,-196,9,-476,-33
-31,-40,-29,-34,-40,-17,-25,-2,28,-59
-46,-90,-77,-75,-42,-67,-123,-13,-249,-66
-42,-175,-158,-133,-72,-144,-329,-20,-784,-79
4,-156,-133,-119,-71,-115,-304,-22,-703,-40
20,-140,-69,-65,-43,-27,-78,-41,-192,9
21,-10,-36,-16,-3,37,104,-15,156,34
32,80,-106,1,17,48,134,19,182,29
31,72,-61,14,19,53,136,19,184,23
-24,-143,-20,-1,-18,19,48,-35,60,35
-36,-212,-45,-25,-41,-19,-44,-55,-96,44
40,81,-3,18,-3,24,49,30,116,64
31,123,-24,31,12,34,91,28,161,68
-6,9,8,12,0,0,66,-11,139,59
-130,-401,0,-29,-68,-54,-29,-139,11,28
-150,-531,2,-36,-84,-65,-63,-176,-36,4
-13,-174,13,-8,-35,-34,-1,-72,37,7
76,128,41,11,2,-3,22,21,109,0
43,140,69,16,19,19,17,29,117,-45
52,31,65,24,2,13,10,-2,82,-64
7,-341,33,-1,-49,-10,-27,-118,-3,-67
-39,-380,-2,-18,-54,-21,-27,-121,-5,-78
86,238,29,22,46,14,-2,61,-34,-7
49,236,25,16,43,25,27,71,-1,6
-18,143,12,10,41,12,30,60,-55,0
-69,-38,-89,-71,8,-89,-258,12,-673,-47
-61,82,-34,-32,24,-38,-139,37,-357,-45
-42,163,10,13,35,30,21,61,31,-27
-40,156,24,17,33,47,87,45,161,-24
-30,161,51,21,39,46,91,38,162,-22
-80,-20,39,8,4,29,70,-4,122,-26
-110,-138,13,-8,-28,25,74,-39,89,-30
-33,109,25,8,5,40,98,24,121,-16
-13,150,33,29,10,35,97,21,117,-11
4,121,43,40,7,39,84,12,105,-20
47,81,14,36,0,35,80,14,97,-14
56,124,-62,37,8,40,84,34,107,0
47,77,-10,31,11,44,70,21,97,8
46,106,34,12,14,39,69,32,103,12
38,103,24,14,1,27,79,41,96,21
67,103,19,10,-6,20,80,35,95,26
125,130,34,14,-10,20,84,30,110,35
177,118,32,4,-20,13,70,9,106,32
154,56,-16,-7,-30,-7,50,-8,80,31
-96,-218,-15,-43,-108,-55,-12,-85,-6,16
-155,-434,-19,-54,-130,-63,-40,-132,-48,11
47,-80,-7,-23,-66,-38,-54,-29,-113,32
55,-51,-115,-81,-63,-112,-287,-11,-689,-17
-235,56,-3,-14,-6,-35,-127,15,-288,-35
-159,126,100,66,34,48,42,31,105,-21
-90,40,51,74,28,41,57,18,100,-47
-217,-343,24,46,-22,-6,-45,-91,-73,-63
-210,-526,-8,8,-45,-44,-136,-145,-205,-38
-47,-204,-12,2,-26,-17,-26,-59,19,2
46,169,44,17,11,13,37,53,134,8
8,211,63,33,29,22,71,70,146,2
-37,150,50,36,26,9,42,59,6,-8
-12,95,28,21,20,1,4,37,-79,-19
104,151,42,49,52,45,88,62,100,-27
164,101,-36,51,56,44,104,67,126,-32
87,119,-129,37,42,44,102,79,139,-32
22,110,-83,37,32,35,84,58,129,-28
16,22,-75,21,24,25,57,9,96,-27
-16,-148,-108,7,5,4,9,-48,51,-22
-1,112,-7,9,34,20,9,17,109,-16
-44,200,32,11,30,23,6,34,120,-30
-104,168,22,0,13,14,-6,29,97,-35
-144,-35,12,-11,-16,12,-21,-27,52,-28
-185,-418,-58,-31,-66,-14,-47,-125,-51,-23
-77,-244,-54,-37,-47,-15,-64,-61,-182,-2
103,183,5,-1,15,22,46,49,18,45
276,254,39,8,25,28,71,75,102,79
243,219,35,16,28,23,55,76,87,49
103,-103,34,-15,0,4,32,-1,16,1
-57,-495,21,-54,-65,-20,-19,-113,-75,-30
-113,-531,8,-58,-83,-34,-33,-120,-86,-21
-142,-507,-5,-65,-91,-57,-44,-115,-83,-2
-129,-425,-9,-68,-83,-63,-53,-100,-56,-8
-94,-370,-53,-55,-73,-61,-95,-92,-94,-3
-74,-424,-20,-75,-84,-86,-172,-103,-257,-14
-106,-395,29,-58,-74,-50,-92,-99,-93,-42
-159,-356,51,-30,-49,-29,-37,-90,-17,-50
-135,-235,67,13,-22,-32,-7,-61,14,-24
7,177,76,28,26,-7,2,56,68,-20
112,408,93,35,59,21,11,125,110,-17
136,421,89,39,58,30,27,124,114,-1
137,392,87,36,46,41,29,108,132,16
120,341,76,42,47,40,29,98,127,15
121,391,47,53,68,42,41,98,124,21
132,374,68,60,61,40,47,95,129,28
105,270,59,48,47,18,26,73,60,21
-21,-120,19,4,-2,-38,-80,-23,-168,24
1,17,52,26,8,0,-1,3,15,39
80,282,62,26,33,27,42,64,107,44
76,270,56,4,31,14,22,54,74,34
67,205,48,-5,30,1,2,41,41,36
43,84,34,-21,0,-34,-17,-4,-10,30
89,136,9,-38,-9,-60,-79,4,-139,17
102,179,-44,-20,-24,-46,-77,7,-120,4
133,196,0,5,-26,-12,-21,13,22,9
113,-88,46,1,-57,-31,-36,-53,1,22
52,-292,65,15,-55,-28,-39,-96,-15,2
114,94,83,39,27,17,17,17,57,-1
102,213,10,41,43,34,26,51,62,36
38,192,-43,47,43,33,60,52,61,41
-33,56,-46,50,24,28,77,20,53,40
-74,-325,-20,23,-25,0,32,-97,-14,54
-56,-378,31,16,-19,-14,28,-122,-13,44
-10,-266,26,15,-10,-24,42,-92,10,32
71,43,-16,13,18,-1,86,3,70,12
66,255,-14,0,37,10,104,78,104,-15
-47,237,44,11,29,19,93,60,79,-37
-155,144,-15,15,22,14,61,29,24,-55
-183,-180,12,-13,-11,-17,15,-54,-54,-73
115,-20,59,0,24,-1,51,7,-7,-77
99,150,28,-4,51,29,66,72,43,-81
-148,128,-53,-17,35,29,31,71,48,-54
-184,35,-43,-18,7,9,2,36,30,-10
-208,-295,-31,-40,-64,-25,-51,-65,-38,19
-89,-93,-64,-33,-41,-1,-43,-10,-24,47
11,109,-127,-47,-17,-8,-87,54,-154,60
36,142,-18,-27,-6,5,-44,60,-56,60
22,89,-24,-1,8,18,2,44,61,31
-83,-192,-48,1,-13,16,-2,-24,48,-4
-22,2,4,22,17,39,28,30,105,-19
36,161,16,39,26,46,63,73,112,-53
41,151,-48,54,29,40,82,55,82,-79
51,126,1,49,19,33,42,18,48,-54
11,97,59,43,6,19,-14,1,20,-41
21,136,61,33,7,13,-27,14,26,-34
29,110,24,13,3,7,-32,4,8,-42
39,81,-94,-10,-17,-13,-31,-13,-8,-34
58,33,-94,-17,-21,-36,-37,-33,-10,-9
91,19,6,-18,-25,-53,-26,-41,-11,10
132,58,14,-39,-33,-53,-13,-33,-1,89
167,74,-1,-54,-39,-44,-10,4,29,166
154,55,-17,-52,-38,-37,11,22,49,157
22,-169,-17,-58,-63,-29,0,-53,-11,122
-101,-395,-1,-41,-62,-33,-14,-126,-51,96
-53,-36,18,-10,9,-19,15,-26,24,51
-23,98,19,4,31,-7,19,5,56,6
-30,100,-17,20,52,10,9,9,56,-61
107,44,11,16,44,14,3,2,50,-14
214,31,52,10,30,19,5,6,62,68
162,103,51,14,36,27,41,17,60,76
98,83,49,12,28,24,40,19,55,55
23,-4,27,-4,-3,8,0,-1,36,27
-36,-152,-6,-37,-37,-17,-17,-41,21,-11
-67,-10,-11,-24,0,-14,15,4,68,-73
-203,35,0,4,24,15,23,33,82,-160
-248,44,17,26,30,34,25,22,66,-183
-242,-206,45,0,-9,0,10,-62,-9,-131
-207,-412,28,-15,-46,-11,-24,-122,-56,-78
-40,-58,32,8,-5,7,-10,-20,3,-56
7,124,35,23,28,22,-6,37,22,-55
15,123,30,9,21,13,-37,14,-4,-30
-55,-157,-4,3,-32,-36,-93,-99,-80,2
-87,-163,15,1,-44,-70,-101,-115,-112,13
-30,155,48,-1,-13,-63,-76,-24,-53,17
12,180,42,-8,2,-57,-59,-7,-53,33
308,134,43,1,11,-16,-33,11,-43,77
533,-135,25,-8,-17,3,-29,-37,-60,82
298,-467,23,-17,-41,-18,-43,-118,-108,46
118,-312,18,0,-5,-7,9,-57,-59,-5
-91,12,-7,0,36,25,69,55,20,-65
-278,66,-8,-11,35,23,53,72,38,-61
-334,82,0,5,26,20,16,61,34,-47
-244,44,-10,-8,19,12,-6,37,21,-40
-148,66,-17,-27,3,22,14,39,33,-38
-134,-10,-7,-23,4,19,45,28,16,-33
-148,-360,-22,-40,-31,-9,14,-66,-41,-29
27,-189,-55,-37,-11,-1,32,-24,-20,-9
175,101,-47,-14,27,14,70,47,39,51
146,111,-41,2,14,13,68,48,53,133
132,65,-52,1,-1,13,51,38,66,171
42,-156,-61,-27,-29,-1,-8,-22,25,170
14,-79,-65,-33,-24,0,-14,-1,34,133
2,94,-82,-30,-7,0,-9,44,59,58
-116,99,-97,-8,11,-2,18,46,54,-77
-171,76,-14,16,18,4,39,28,34,-182
-47,-256,-4,1,-31,-12,-21,-81,-47,-141
-33,-417,-18,-20,-59,-23,-64,-121,-77,-70
-42,-158,-6,-9,-14,-23,-34,-52,-39,-38
-80,-251,-28,-41,-40,-35,-45,-89,-71,13
-64,-440,-103,-64,-88,-48,-102,-142,-108,102
-9,-452,-61,-71,-114,-80,-128,-157,-123,192
34,-417,-40,-74,-121,-87,-128,-139,-122,255
80,-288,-54,-62,-91,-76,-116,-92,-87,279
217,130,-36,-32,-31,-41,-64,25,6,280
256,322,-1,-9,-3,-47,-36,79,57,228
125,303,23,25,22,-16,-20,93,59,87
-120,208,37,48,45,41,7,98,42,-66
-287,-130,37,48,27,41,7,3,-16,-159
-225,-32,20,21,16,22,0,26,3,-144
-117,240,19,5,41,20,19,101,48,-142
-68,282,14,13,42,21,29,97,32,-182
70,268,-59,28,52,29,17,71,6,-198
56,-3,-8,8,11,3,-45,-29,-51,-163
51,-85,59,-4,-24,-28,-55,-69,-66,-109
172,229,70,24,22,-9,10,24,-4,-93
237,237,82,49,41,14,45,57,24,-108
183,226,85,49,35,29,43,70,41,-65
-14,46,53,43,11,30,3,26,30,3
-37,-74,22,37,-1,32,-2,4,18,16
97,173,15,37,32,38,52,82,69,21
146,198,24,11,23,24,55,85,73,7
107,176,26,17,22,19,37,77,72,-28
-76,-67,31,17,17,18,16,10,28,-60
-274,-381,33,12,-3,8,11,-77,-18,-79
-325,-217,26,20,32,32,54,-16,35,-97
-213,137,44,37,65,50,68,98,99,-84
-137,193,39,28,47,33,51,100,72,-69
-92,160,26,4,37,16,44,79,38,-56
-96,32,18,-5,11,9,11,27,0,-56
-71,39,39,22,21,0,-8,22,-3,-48
-32,138,59,28,34,-21,-13,30,8,-39
-12,152,63,34,34,-33,-18,16,-2,-30
-3,62,37,35,20,-33,-17,-20,-29,-16
-74,-278,43,27,-22,-57,-29,-113,-95,15
-23,-156,44,22,-10,-51,-24,-66,-63,15
96,150,33,21,25,-11,20,36,8,15
160,187,-4,17,11,-3,37,49,14,21
245,184,3,19,-12,0,38,44,14,15
283,136,5,12,-25,1,25,39,17,30
258,126,-6,6,-30,3,19,42,33,43
169,-105,-26,-33,-70,-10,-20,-20,9,86
75,-259,-46,-58,-92,-22,-38,-73,-1,139
-21,57,-38,-19,-33,-8,-5,8,64,115
-130,118,-8,8,0,10,2,30,69,77
-88,100,17,15,13,34,14,36,71,54
-33,55,26,19,16,43,16,18,59,14
-78,23,2,4,23,33,-8,8,32,-7
-94,43,-11,-4,31,29,-15,18,29,-12
-105,72,5,7,42,36,-12,19,8,-31
-132,-9,24,17,38,37,-12,-16,-33,-62
-114,-150,6,-4,4,15,-26,-43,-71,-57
4,-126,-6,-22,-11,-9,-19,-43,-70,-30
83,40,-9,-20,-8,0,-5,7,-45,-19
82,101,-7,-15,4,-3,-10,22,-29,11
71,63,-5,-12,3,3,-13,24,-32,39
81,-5,-42,-17,-4,6,-12,0,-37,64
160,75,-50,-3,27,9,16,8,-12,103
167,96,-69,-3,10,-8,15,5,5,115
151,84,-38,1,-4,-35,8,-11,5,81
98,10,16,12,-12,-36,-5,-35,-12,37
80,46,33,19,0,-3,-11,-14,0,20
69,65,26,11,6,-2,-31,3,9,40
35,52,19,10,2,-15,-42,3,22,56
24,-14,2,-12,-8,-17,-24,0,23,54
38,-3,-15,-26,-6,-9,-6,22,11,52
54,20,-46,-34,0,-8,-5,42,13,79
57,-10,-135,-52,-15,-21,-8,30,31,91
-43,-255,-163,-68,-58,-27,-33,-33,-12,41
-212,-538,-81,-82,-94,-12,-45,-108,-84,-30
-289,-534,-37,-61,-83,0,-30,-113,-85,-71
-202,-269,-10,-27,-24,3,-2,-50,-20,-58
-6,132,22,38,47,29,37,47,47,-63
15,206,0,63,81,17,55,55,49,-76
-19,172,44,65,91,25,78,53,63,-88
-31,97,66,61,75,37,87,39,50,-117
-15,-38,71,50,43,31,48,-19,4,-131
-49,-306,85,18,-23,1,-30,-115,-58,-73
-81,-165,75,2,-35,-8,-44,-78,-45,-38
-106,163,75,23,1,-19,-26,11,11,-33
-138,206,64,24,8,-35,-49,12,6,0
-197,152,37,12,7,-42,-71,-4,-28,5
-228,16,15,1,-8,-63,-80,-40,-85,-7
-72,19,-7,-22,-8,-44,-54,-18,-86,14
120,86,-17,-1,14,0,-12,30,-35,60
389,72,-31,10,15,7,3,35,-18,103
309,-38,-43,5,-9,-2,-12,0,-32,92
72,-344,-37,-2,-52,-19,-38,-93,-84,73
-35,-174,-21,9,-31,9,-9,-41,-60,23
-83,107,-5,44,21,39,45,44,-16,-59
5,131,-3,47,28,45,77,38,-9,-83
85,95,-9,33,11,26,62,24,-22,-45
65,-172,-46,11,-29,0,22,-54,-62,29
168,-344,-33,-6,-57,-17,-8,-119,-68,84
193,-38,-9,-11,-28,-4,19,-39,0,73
136,118,-100,-29,-11,10,38,22,34,76
77,92,-150,-40,-18,-16,36,18,47,63
52,30,-46,-40,-21,-20,30,-3,49,21
-66,-258,14,-46,-49,-3,7,-89,-11,-14
-134,-282,29,-32,-36,19,-5,-93,-30,-35
-78,53,48,10,18,44,22,27,23,-60
7,137,52,34,36,53,21,56,61,-16
84,151,46,32,45,49,14,46,55,-4
77,18,22,0,22,30,-14,2,35,19
-5,-311,10,-18,-29,1,-44,-99,-13,67
13,-266,-13,-14,-23,-1,-31,-83,-14,49
102,-266,-39,-31,-27,-5,-22,-81,-30,34
52,-346,-81,-41,-39,-13,-35,-95,-53,42
-167,-366,-56,-35,-29,-9,-38,-100,-86,50
-237,-320,-3,-19,-13,-4,-21,-99,-77,61
-207,-135,-1,-24,1,-9,-36,-54,-59,30
-187,221,34,17,62,13,6,51,2,-18
-171,291,58,36,75,5,36,77,15,-17
-142,188,7,14,41,-7,3,40,-1,-25
-120,132,-75,0,24,1,-29,26,-6,-47
-77,226,-111,11,39,16,-15,62,25,-61
-63,230,-112,21,45,21,6,65,29,-70
-76,170,21,10,48,24,33,48,18,-69
-76,52,49,0,29,19,7,15,2,-30
57,166,34,20,39,13,24,50,33,-15
134,211,22,34,44,13,53,56,35,-12
152,212,8,42,61,24,61,53,41,29
109,89,19,22,45,24,42,23,27,109
50,87,0,5,38,31,48,33,39,132
23,144,-21,-13,36,6,23,46,54,120
-36,130,-49,-24,13,-26,0,31,58,98
-109,42,-32,-35,-13,-27,-14,-2,48,60
-136,5,-11,-27,-26,-23,-38,-16,20,-35
-76,127,39,4,-1,-3,3,23,40,-124
130,-7,45,-15,-34,-19,2,-34,21,-54
308,-118,-27,-42,-75,-43,-38,-80,-30,44
304,119,-107,-28,-43,-26,-33,-15,38,68
114,140,-19,-15,-13,-28,-19,3,61,53
19,132,36,-2,-7,-25,-9,-3,63,39
-55,-73,46,-13,-35,-16,-23,-70,-3,49
-152,-335,40,-36,-72,-30,-56,-142,-55,80
-37,-172,21,-42,-70,-50,-53,-94,-20,151
164,156,49,-15,-26,-27,-24,5,41,196
194,211,45,3,0,-11,-18,24,55,206
49,170,-1,3,-5,-17,-6,33,50,178
-113,10,14,-21,-19,-16,-20,10,-4,87
-151,30,15,-13,8,19,-9,22,-30,-70
-274,96,70,44,96,75,63,76,-25,-233
-344,37,69,94,141,128,115,117,1,-279
-164,3,-1,68,101,135,122,106,-8,-254
48,23,-134,8,15,79,67,55,-43,-182
98,57,-108,-20,-5,36,23,22,-60,-136
80,42,1,-17,-7,20,15,8,-52,-89
31,-23,-2,-30,-45,20,15,-13,-45,-81
-103,-316,-68,-45,-109,12,-10,-89,-95,-55
-117,-227,-4,-30,-83,10,-7,-53,-53,-37
-61,68,14,-11,-21,19,23,39,-3,-78
-12,111,12,23,31,16,26,42,-10,-78
21,-49,-3,52,112,-18,-38,-34,-59,-25
1,-309,-10,14,20,-74,-87,-131,-115,21
57,-115,-8,-4,-16,-56,-46,-55,-44,18
66,108,-3,20,41,0,24,32,24,-10
43,133,2,31,56,13,31,50,43,25
7,91,2,14,39,27,41,54,63,63
-67,-195,-5,-16,3,23,31,-16,28,92
43,-228,-17,-19,-18,-2,7,-40,14,111
203,69,-12,-22,-36,-36,-14,9,61,123
76,150,15,-29,-36,-59,-19,11,50,94
-102,177,48,-12,7,-54,-16,-7,43,44
-148,114,55,-9,-24,-63,-39,-35,20,55
-95,136,46,-15,-41,-54,-1,-16,30,62
61,110,17,-25,-4,-34,11,6,46,61
250,108,36,-3,43,-12,8,27,63,93
370,-7,77,42,46,24,33,24,66,156
156,-115,52,59,47,39,40,13,27,72
-78,-1,13,63,57,41,55,65,39,-63
-76,-7,-3,38,28,26,48,62,31,-87
-81,-10,-7,26,20,34,50,57,5,-139
-169,-181,0,18,16,45,52,11,-55,-208
-100,-75,-5,20,27,50,51,45,-37,-150
7,69,-45,25,72,39,28,70,-17,-59
113,65,-21,23,48,3,0,49,-22,9
322,25,-9,-10,-2,-19,-16,21,-26,75
527,-42,-24,-53,-40,-39,-57,-34,-37,149
622,57,-40,-79,-58,-39,-63,-16,-16,217
480,-64,-58,-105,-102,-47,-70,-45,-50,224
253,-397,-63,-134,-166,-72,-101,-150,-109,212
158,-355,-29,-111,-169,-89,-101,-167,-98,226
-49,13,-25,-46,-85,-54,-40,-38,-18,50
-532,136,-50,44,46,40,46,58,6,-256
-791,92,41,152,168,101,88,77,-14,-431
-550,56,41,138,147,75,82,66,-19,-336
-228,32,2,55,65,29,57,30,-2,-161
-165,106,-1,31,37,22,33,28,10,-88
-205,74,-2,21,29,37,35,6,2,-95
-194,98,-11,28,43,45,44,11,7,-112
-213,139,37,27,26,49,40,24,28,-93
-138,112,38,17,-3,44,11,18,29,-49
-136,-85,32,-9,-60,26,-11,-44,-11,-19
-142,-147,29,-17,-99,16,-28,-75,-27,1
-78,117,13,-26,-97,10,-3,0,31,18
-98,143,17,-44,-127,14,1,12,46,52
-140,48,24,-52,-154,15,-3,-10,29,47
-69,-42,40,-49,-136,9,-6,-39,-9,27
315,88,34,-53,-126,-14,29,-14,20,56
389,135,29,-101,-134,-66,30,-16,48,65
248,65,17,-118,-40,-42,60,7,63,59
133,-142,-15,-121,-40,-18,53,-19,39,55
114,-102,-37,-19,59,-13,-2,-26,32,9
103,-40,-46,71,113,-37,-32,-35,4,-35
48,34,3,92,95,-35,-6,-30,-15,-105
145,30,37,56,125,-28,-7,-60,-48,-74
186,-215,34,0,64,-43,-51,-143,-121,-30
133,-292,23,-37,-32,-65,-39,-135,-142,-55
177,-234,3,-44,-80,-54,-16,-109,-123,-18
199,-45,-43,-8,-29,-44,-31,-53,-96,33
-10,-224,19,5,-2,-67,-89,-110,-116,71
-62,-68,38,19,70,-62,-94,-68,-72,92
-40,98,25,6,84,-70,-76,1,-6,134
-69,57,0,-28,2,-58,-66,16,-5,156
-17,-2,-90,-40,-55,-52,-63,18,-1,175
80,-116,-145,-56,-91,-42,-61,1,5,194
61,7,-2,-22,-56,-11,-27,54,39,115
-133,60,82,50,21,45,25,94,37,-74
-223,25,104,104,119,107,87,114,30,-231
-159,-116,76,80,96,96,76,54,-14,-208
-8,-118,43,49,84,58,24,17,-43,-103
48,-75,22,46,124,36,7,9,-38,-3
133,-23,-21,26,77,5,-18,-6,-18,61
214,144,-24,1,32,-12,-17,33,19,68
36,138,5,3,19,-6,-13,37,19,56
-315,60,8,12,-2,-11,-4,32,27,60
-539,-240,0,9,-42,-1,-13,-30,-28,35
-382,-139,37,22,-27,26,8,4,4,-35
145,165,43,36,9,29,19,71,47,-59
241,213,122,55,5,27,9,51,21,-88
268,217,172,111,0,30,26,13,9,-106
281,70,147,118,3,24,-3,-33,-21,-107
174,103,114,77,28,29,-10,-1,14,-75
64,119,30,63,79,37,5,28,48,-39
-47,59,-4,100,145,52,11,38,44,-26
-109,-86,-10,77,95,37,17,11,12,-21
-188,-387,-16,-3,-9,21,8,-61,-44,1
-139,-329,-18,-39,-69,13,3,-34,-38,22
-10,-11,-47,-44,-75,21,36,75,43,22
43,93,-83,-77,-107,21,55,123,85,27
1,54,-110,-129,-149,17,61,140,99,71
-26,0,-105,-126,-106,17,45,126,89,126
13,5,-49,-44,-1,-4,1,81,49,112
107,110,-1,6,78,-47,-41,33,8,87
112,86,22,21,126,-67,-73,-24,-45,68
-16,-18,-1,29,156,-77,-93,-54,-85,17
-109,64,-77,-12,75,-78,-62,-14,-70,-70
-24,141,-105,-46,0,-54,-46,-17,-81,-86
453,359,-1,-30,-57,-120,-127,-95,-124,-5
732,316,62,-68,-130,-194,-214,-237,-204,53
884,186,23,-80,-105,-150,-176,-228,-182,111
1019,320,-21,-58,-56,-104,-70,-105,-59,177
1027,311,-51,-61,-71,-120,-48,-87,-34,214
814,211,-63,-73,-102,-122,-46,-47,-10,190
464,26,-33,-54,-89,-64,-30,-23,-19,125
357,25,12,-32,-84,-25,-15,-12,-10,66
264,40,22,-18,-102,-14,-8,1,0,8
-253,-46,-17,-38,-148,-9,0,3,-16,-112
-930,-157,-52,-76,-192,-24,-14,13,9,-141
-1079,-167,-29,-53,-95,-22,35,57,51,-182
-531,-36,15,11,74,11,156,126,119,-163
-39,-27,53,87,165,109,231,174,163,-114
-43,-143,28,132,238,259,187,139,132,-77
-61,-204,6,116,219,377,124,89,100,-36
-221,-136,-23,79,153,393,107,91,80,-62
-399,-315,-79,42,86,239,61,-10,-2,-64
-545,-632,-53,-16,-13,44,5,-81,-12,28
-670,-720,-92,-66,-90,-15,-25,-65,18,10
-640,-323,-33,-22,-62,-12,-4,11,38,-140
-512,-43,20,14,-17,-21,7,56,12,-248
-421,2,1,12,41,-19,21,87,40,-212
-288,55,4,-4,78,-43,-1,106,74,-107
-100,116,33,1,88,-70,-16,89,83,-12
-68,-34,43,28,115,-76,-31,38,54,95
-229,-170,10,0,22,-71,-11,53,71,172
-261,9,-14,-58,-58,-28,51,159,176,207
-149,105,4,-69,-98,-52,28,122,137,181
-210,131,39,-5,-66,-79,-36,28,49,78
-335,118,64,11,-2,-85,-106,-42,-40,-12
-171,267,62,22,61,-98,-153,-85,-104,-72
240,301,-41,-33,-12,-103,-148,-102,-147,-116
570,-16,-209,-115,-110,-54,-111,-101,-144,-114
581,-141,-166,-100,-113,-35,-83,-76,-87,-25
721,-86,-101,-14,-40,-19,-29,-49,-68,-34
718,-319,-60,12,6,22,7,-68,-88,21
93,-181,-75,19,61,49,56,26,38,98
-499,-65,-54,33,162,47,62,52,74,78
-516,-46,-15,47,166,52,68,39,37,45
14,-74,-7,29,72,31,50,15,6,34
340,-132,-47,-39,-28,-19,11,0,13,92
473,11,-51,-60,-86,-48,79,40,79,186
346,72,-9,-51,-129,-42,210,65,98,246
-131,121,88,9,-118,43,250,73,72,108
-584,38,147,41,-164,354,242,78,55,-104
-595,67,139,28,-209,665,216,113,86,-163
-636,21,67,-16,-255,668,164,115,86,-174
-728,-35,23,1,-164,409,91,78,45,-246
-511,-122,29,8,18,112,-25,-20,-74,-301
-451,-214,41,-62,114,-75,-128,-133,-166,-291
-456,-386,42,-146,126,-74,-152,-220,-207,-193
-251,-367,28,-181,57,65,-80,-145,-160,-101
-90,-353,-26,-168,-142,117,-31,-66,-94,-44
2,-207,-74,-114,-102,-14,-49,0,-41,-37
115,121,-29,42,106,-154,-85,43,7,-24
232,212,-26,213,296,-292,-231,-65,-62,-13
436,231,-59,209,454,-342,-292,-115,-97,-27
632,283,-43,94,352,-315,-232,-74,-66,-8
300,321,22,53,201,-258,-176,-51,-51,14
-80,78,40,42,70,-252,-175,-126,-101,34
-26,-121,-16,10,-31,-256,-149,-126,-83,96
299,120,-75,12,27,-189,14,-6,42,186
272,195,-4,13,79,-74,211,47,100,241
-37,-10,4,-7,74,-69,129,-43,29,176
35,-262,-30,-62,-26,-120,-53,-157,-77,112
294,-196,-12,-114,-87,-158,-174,-204,-136,115
421,-53,18,-127,-103,-150,-196,-189,-123,125
391,-4,65,-58,-61,-76,-118,-97,-58,80
355,77,76,0,14,-2,-24,19,33,89
387,272,77,100,169,58,45,181,160,71
402,225,30,120,212,75,96,217,185,39
373,146,-63,39,137,63,100,164,162,73
518,225,-108,-77,-27,-1,17,68,116,129
860,397,-156,-122,-149,-96,-92,-20,42,199
850,451,-153,-119,-161,-138,-133,-43,35,241
346,266,-40,-85,-147,-109,-103,-27,40,190
-248,36,-53,-102,-156,-90,-102,-38,-1,77
-497,23,-96,-131,-92,-79,-73,29,82,111
-476,-94,-74,-32,64,-3,31,108,171,163
-653,-367,-7,99,162,79,64,63,68,-71
-484,-534,46,114,105,113,46,-23,-78,-263
-408,-325,14,33,-33,70,31,28,20,-280
-449,-97,-13,-12,-61,24,-34,95,232,-164
-442,-289,10,-41,-108,84,-89,-6,140,8
-513,-266,44,18,2,239,-104,-71,10,-44
-305,95,43,98,156,306,-89,-39,-40,-181
236,273,-64,53,151,208,-70,39,35,-96
304,94,-127,0,85,48,-10,107,134,-35
58,51,-71,37,56,-14,18,84,83,-212
-60,-69,14,18,-5,-58,-22,-37,-54,-269
55,-13,82,1,-61,-90,-55,-86,-71,-76
95,195,86,37,13,-55,14,40,73,84
-103,243,108,102,81,-9,143,86,92,10
-213,222,135,106,84,24,227,86,89,-2
-202,78,60,34,29,-1,172,115,176,268
-147,-87,-16,-57,-65,-76,61,112,208,525
-196,-9,-40,-54,-82,-72,-5,108,173,453
-200,60,-59,-56,-60,-17,-21,72,137,295
-155,135,-88,-62,-31,58,37,70,92,84
-129,180,-84,-33,-28,131,74,97,47,-177
-105,244,10,1,-73,116,56,99,42,-256
44,310,74,-33,-166,59,-28,28,-1,-165
436,200,43,-127,-315,-37,-125,-110,-104,-24
924,328,28,-198,-492,-77,-116,-99,-94,-20
1247,693,197,-142,-522,-50,-49,-61,-145,-348
1445,1053,348,-33,-272,-46,-63,-126,-281,-631
1450,847,207,22,83,-128,-160,-229,-345,-497
1046,358,51,62,251,-209,-269,-366,-416,-345
606,172,-51,46,246,-199,-214,-231,-220,17
127,-20,-51,42,158,-108,-76,-43,36,390
-379,-249,-42,113,178,9,64,97,132,288
-524,-509,-83,127,182,88,145,153,100,36
-99,-392,-96,61,116,70,120,87,31,-21
-215,-501,-197,50,99,38,54,-21,-77,-12
-628,-754,-266,60,97,11,13,-112,-164,-3
-713,-591,-227,7,50,16,37,-9,-64,4
-537,-330,-129,-8,7,50,117,49,-22,-25
-405,-18,26,34,54,121,279,106,61,-18
-188,-98,38,50,125,201,331,163,172,155
-2,-368,42,22,64,267,233,109,141,228
67,-68,64,42,59,331,160,158,158,169
-472,161,67,142,194,308,103,157,153,122
-735,197,24,146,174,162,13,69,69,34
-914,64,-44,21,79,22,-10,40,54,-25
-927,-66,-57,10,102,-60,-65,12,2,-150
-401,-178,-14,97,188,-112,-111,-22,-17,-177
-350,-398,-30,149,239,-95,-90,-69,-66,-192
-182,-514,-44,52,57,-165,-153,-215,-224,-237
-245,-379,-35,-30,-50,-152,-104,-138,-118,-101
-16,-88,-42,-51,-17,-98,-6,33,112,158
218,-37,-55,-92,-73,-55,13,45,139,216
9,96,51,-94,-140,-10,-2,5,82,83
359,146,193,-106,-274,-40,-59,-93,-11,7
865,325,272,-115,-423,-126,-175,-231,-159,-10
1423,947,352,-78,-456,-185,-270,-265,-228,-39
1574,1167,387,-75,-360,-186,-306,-296,-274,-21
1204,856,150,-162,-153,-132,-202,-169,-160,173
558,36,-100,-208,-80,-8,54,60,48,299
-72,-233,-40,-205,-258,-11,106,61,37,265
-239,-103,74,-64,-138,17,44,-5,-88,-5
-514,-486,71,137,121,90,36,-24,-150,-158
-495,-599,-96,188,250,140,98,95,-32,-172
-142,-459,-276,134,272,151,143,202,109,-129
-215,-323,-239,116,307,149,147,222,169,4
-805,-49,-20,184,411,132,101,168,115,-57
-1078,-291,17,184,370,105,57,68,29,-77
-915,-620,-112,80,258,50,29,53,73,159
-412,-322,-177,-14,91,41,67,169,233,300
226,-252,-182,-94,-49,2,57,123,202,332
1035,-100,-154,-154,-120,-53,-28,35,128,331
1392,332,-57,-123,-111,-87,-99,-17,57,170
1053,503,69,-42,-78,-96,-142,-85,-64,44
266,418,166,13,-68,-34,-96,-79,-81,57
-291,108,133,14,-78,41,5,-17,-28,134
-342,-105,-21,-33,-115,73,61,68,106,272
-665,-76,-15,-30,-143,74,58,81,140,207
-474,154,115,-9,-192,27,-1,-6,27,48
237,317,80,-77,-173,-25,-93,-104,-136,-65
605,348,-6,-70,6,10,-89,-101,-170,-178
687,429,48,10,107,-41,-162,-198,-242,-277
704,696,113,-6,46,-139,-254,-295,-296,-271
120,679,128,27,53,-20,-122,-169,-175,-234
-629,340,176,128,102,181,111,74,47,-233
-1062,-58,122,175,119,316,256,221,121,-409
-1058,-551,-182,37,51,328,306,304,210,-291
-1091,-904,-365,-46,50,288,280,300,227,-215
-1067,-886,-293,10,112,276,245,225,140,-221
-772,-814,-292,4,134,245,224,180,136,-85
-251,-562,-348,-41,103,169,145,89,99,129
372,281,-338,-51,52,124,89,81,108,239
758,932,-259,-70,-36,58,-4,-20,9,182
781,962,37,-122,-196,-93,-171,-244,-186,195
407,868,500,-138,-340,-272,-347,-435,-374,164
-61,357,638,-137,-407,-310,-359,-471,-392,185
-104,-410,354,-130,-288,-159,-189,-302,-213,206
563,-491,92,-122,-156,-27,-52,-72,3,223
820,-354,32,-46,-31,84,68,135,212,280
520,-158,272,152,151,210,182,219,207,68
228,247,489,261,179,161,100,107,30,-256
-121,393,476,213,87,65,5,11,-34,-325
-335,512,415,114,-14,69,25,29,16,-266
256,733,342,-42,-216,-14,-18,-41,-4,-89
1487,1022,340,-189,-494,-167,-233,-275,-256,-18
3187,906,164,-396,-792,-326,-410,-425,-457,81
3872,368,-187,-605,-966,-464,-475,-465,-483,180
3143,585,-134,-538,-871,-559,-515,-444,-316,486
1201,893,181,-201,-419,-488,-400,-342,-18,958
-1843,391,506,369,403,-54,-49,-135,22,297
-3597,-596,247,483,733,289,309,193,89,-390
-2963,-1251,-183,137,403,304,433,318,237,-144
-1741,-1233,-430,-131,88,365,521,482,399,-72
-1200,-920,-382,-224,-104,365,508,502,417,-62
-913,-182,11,-117,-178,390,527,474,381,-153
-685,-119,107,-17,-149,352,478,386,282,-250
-172,-453,-149,-69,-8,155,274,244,188,-91
14,-526,-322,-110,116,21,117,184,217,171
-243,-320,-102,130,296,-18,5,68,157,228
-255,306,234,340,314,-139,-180,-136,-66,90
-143,640,334,344,346,-199,-258,-241,-267,-262
-39,390,176,176,316,-124,-135,-104,-141,-229
-267,52,67,125,374,-12,15,45,88,-116
-771,-290,77,347,493,105,71,-11,7,-256
-930,-406,-70,404,523,163,115,37,11,-196
-911,-51,-174,217,299,96,105,131,103,-147
-1001,-293,-350,42,204,149,206,263,215,-28
-887,-509,-399,-53,138,139,208,239,148,-60
-435,-223,-318,-168,-44,-4,65,96,21,-46
-229,185,-203,-176,-123,-68,-29,3,-107,-105
-40,344,-129,-134,-195,-142,-126,-92,-157,50
330,305,74,-70,-201,-145,-105,-98,-80,295
324,-25,189,-75,-230,-129,-81,-155,-107,279
-44,-354,139,-67,-193,-94,-60,-173,-125,-11
-301,-498,80,56,-13,18,1,-99,-57,-88
-103,-258,64,117,93,99,46,14,-25,-25
1269,-50,-61,1,-9,39,10,26,37,347
1700,161,-25,-20,-100,-53,-65,-38,8,438
1004,318,35,-70,-214,-127,-155,-156,-140,229
513,361,24,-192,-382,-212,-263,-309,-274,73
554,914,145,-193,-358,-243,-322,-322,-261,2
535,985,235,-148,-347,-160,-216,-185,-114,-193
248,344,127,-47,-247,149,127,155,150,-380
893,-146,26,78,-77,354,325,290,210,-263
2053,-266,-112,97,-47,308,282,203,36,-291
2255,-220,-342,-3,18,138,157,101,-74,-270
1675,391,-414,-86,44,-20,11,-18,-116,3
441,882,-340,-8,235,-82,-135,-125,-101,216
-1302,670,-142,184,424,-47,-145,-95,-93,-83
-2586,189,186,337,401,131,85,109,114,-132
-2145,-579,215,200,270,159,172,208,264,160
-1689,-1119,165,80,183,156,188,225,208,23
-481,-1030,31,21,123,100,111,123,40,-115
75,-767,-149,-38,53,30,45,18,-60,-226
328,3,39,33,31,-57,-50,-152,-241,-481
1029,503,49,-50,-100,-252,-225,-276,-295,-159
641,234,-86,-124,-130,-211,-151,-176,-164,110
-337,-396,-198,-166,-107,-19,77,75,125,328
-1138,-581,-167,-60,-16,130,214,246,326,380
-1712,-286,74,142,103,246,300,324,350,119
-1447,119,334,213,101,198,234,206,168,-32
-773,-295,-22,113,155,131,170,151,127,113
-828,-1060,-398,24,257,196,225,225,196,83
-424,-752,-325,-78,105,92,108,141,130,47
-196,-529,-166,-73,-153,-57,-85,-145,-171,-124
16,-614,-210,-126,-378,-157,-186,-278,-285,16
597,-46,-132,-238,-586,-259,-292,-370,-364,91
551,778,81,-311,-706,-174,-249,-314,-307,98
790,1364,130,-229,-480,53,-14,-12,-5,179
1160,1544,96,-240,-406,34,29,47,-7,82
1146,1659,425,-369,-619,-99,9,-5,-206,-337
1018,1234,698,-216,-385,-147,-73,-145,-369,-562
1345,174,509,269,333,-195,-250,-311,-370,-176
1071,-526,266,609,816,-217,-300,-281,-188,366
-134,-1050,-65,433,717,-125,-177,-118,-1,574
-298,-575,123,258,245,-139,-205,-215,-143,341
112,-112,198,130,94,-2,-80,-65,-135,-116
-232,3,-5,-71,4,157,130,174,49,-293
-589,155,-170,-207,-9,126,108,113,4,-105
-771,-25,-123,-166,19,-57,-32,-23,-12,383
-1277,-792,-34,9,94,-79,-33,-36,54,518
-973,-864,21,143,290,97,154,210,283,299
-267,-274,236,231,349,176,263,330,340,-67
-338,24,294,182,125,181,258,306,279,-192
-331,-152,134,39,-102,107,187,168,128,-182
-163,-295,69,-112,-374,-36,26,-83,-52,11
88,-4,19,-283,-726,-72,-60,-127,-62,200
293,462,82,-409,-945,-42,-66,-67,-11,176
749,761,198,-443,-871,-80,-134,-139,-67,82
1168,1108,344,-443,-756,-63,-28,-102,-98,-167
1178,910,468,-446,-772,-93,147,12,24,-20
81,-311,227,12,-22,202,350,116,-16,-449
-784,-1034,-214,669,1216,475,281,147,41,-428
-1134,-762,-342,718,1526,374,74,5,-64,-468
-1213,-707,-408,273,750,274,80,65,-22,-486
-828,-862,-437,-18,231,167,44,24,3,-137
-385,-984,-496,-197,-143,45,53,71,109,199
-66,-251,-310,-219,-362,-82,31,98,126,219
-629,217,-130,-140,-287,-224,-61,12,18,-100
-933,60,-183,-175,-176,-235,-30,76,86,-125
-360,-250,-262,-139,-100,-125,-28,1,32,72
222,-475,-225,192,215,-120,-154,-223,-188,-77
479,-354,-115,429,602,-206,-288,-383,-394,-202
54,-504,-128,281,556,-132,-132,-221,-231,-147
-229,-855,-325,146,538,-1,98,52,49,-29
-299,-389,-206,219,603,-47,53,61,32,-102
-137,372,-22,174,264,-176,-117,-95,-96,17
478,563,-146,9,16,-193,-119,-107,-63,288
815,756,-177,13,9,-141,-87,-134,-87,138
1036,1005,-120,55,40,-73,-40,-131,-110,-73
933,735,-83,-6,14,15,30,5,53,183
1105,380,-125,-115,-89,-9,-63,-15,61,532
1564,256,-232,-224,-196,-137,-262,-231,-194,344
1292,254,-145,-263,-312,-148,-248,-244,-282,9
504,319,104,-160,-303,15,19,81,131,204
-827,-156,266,115,11,106,154,278,409,225
-2131,-444,408,416,457,192,197,281,228,-602
-2003,-588,204,340,430,343,243,286,175,-651
-1021,-280,54,213,286,418,199,236,148,-457
77,174,13,95,107,302,84,145,126,-191
354,284,-28,24,53,177,68,139,175,25
142,-48,-133,37,180,98,47,89,96,30
616,-320,-329,-66,68,-17,-15,51,111,319
967,-143,-279,-122,-155,-149,-98,-52,44,445
668,-349,-336,-65,-184,-200,-146,-191,-126,264
625,-247,-679,-154,-148,-222,-146,-89,48,433
298,35,-891,-195,-61,-105,-22,105,274,469
-1109,355,-649,65,241,204,226,312,325,-35
-1300,533,-244,190,332,284,318,356,241,-264
-625,313,26,171,194,152,207,205,25,-395
270,855,334,112,2,-59,-48,9,-111,-147
1033,1252,638,29,-215,-275,-304,-240,-258,158
769,996,536,-87,-350,-356,-371,-286,-261,173
236,117,37,-279,-422,-349,-292,-152,-65,128
-374,-354,97,-204,-315,-227,-138,-26,8,-181
356,173,763,-88,-347,-307,-259,-233,-252,-187
1230,610,1005,-28,-353,-346,-331,-338,-379,-99
1590,1158,947,120,-195,-228,-224,-268,-407,-390
1730,770,509,0,-214,-195,-176,-174,-307,-310
449,-623,-5,-106,-109,11,56,140,52,-93
-1423,-1294,-213,-97,43,234,327,430,379,236
-2691,-1169,-122,28,167,328,440,546,514,294
-2790,-1085,-74,80,187,250,343,390,301,-129
-1537,-549,72,26,47,27,107,140,79,-57
-796,63,345,47,-81,-91,-46,-24,-45,110
-10,-97,219,37,-24,-6,39,87,108,240
640,-342,-32,-3,23,79,114,170,209,268
363,-390,-86,38,98,161,120,112,54,56
444,-69,-82,67,32,70,-6,-22,-125,-131
1175,315,-164,-113,-216,-200,-266,-262,-313,-61
1481,115,-386,-285,-322,-258,-314,-317,-342,38
1174,37,-272,-217,-204,-106,-124,-106,-82,154
585,543,242,11,-123,-79,-81,-123,-79,36
-975,-35,336,262,152,116,121,7,-28,-135
-1808,-651,109,258,306,246,279,238,141,-182
-1696,-455,-40,-1,44,36,107,127,69,-239
-848,198,-59,-191,-217,-227,-132,-79,-39,-165
-64,421,-14,-149,-227,-256,-150,-141,-90,-141
-362,-124,51,-11,-127,8,100,14,-8,-135
-382,-448,339,63,-207,110,141,-67,-171,-382
564,-248,358,-80,-450,-5,27,-181,-263,-346
612,128,240,-92,-421,7,20,-100,-143,-147
430,45,2,-46,-70,109,49,21,4,80
465,-201,-192,-54,270,96,79,83,98,324
117,-200,-301,-9,364,62,118,104,66,232
-460,-353,-288,-13,140,-31,36,39,25,75
-777,-53,-231,42,217,-76,-43,12,-54,-280
-336,355,-174,73,290,-144,-135,-29,-112,-267
-6,627,12,99,245,-165,-130,-12,9,84
-274,97,102,125,207,-61,-21,54,111,199
-649,-526,42,91,116,-32,2,-8,78,160
-762,-336,49,128,113,28,30,-22,6,-19
-197,311,-40,86,104,33,-28,-35,-62,-38
122,154,-194,7,50,16,-7,-50,-64,25
67,-439,-415,-36,113,85,134,64,37,58
279,-383,-477,-66,127,18,95,37,23,13
511,-148,-309,-3,137,-70,1,-29,-8,56
882,-265,-222,15,70,-85,-33,-77,-14,406
1216,159,-222,-60,-37,-136,-115,-120,-55,817
1790,903,-89,-219,-299,-388,-384,-309,-139,1069
1809,954,144,-241,-402,-464,-431,-335,-165,658
330,241,286,13,-100,-74,-54,-40,-82,-527
-782,-62,74,145,123,219,227,166,-43,-1126
28,459,-80,47,4,129,157,42,-183,-951
977,1364,259,-1,-219,-99,-51,-207,-331,-626
1262,765,47,-160,-312,-140,-88,-185,-177,-99
877,-150,-85,-215,-284,-57,-10,-69,6,221
-34,-92,176,-172,-308,-43,23,0,108,210
-1113,-296,402,44,-140,125,173,123,188,-56
-1067,-331,565,353,123,210,170,39,32,-193
-899,-790,292,354,181,109,81,-94,-65,-40
-1091,-1121,-182,74,159,150,245,148,241,245
-1079,-963,-428,-57,377,212,375,363,426,199
-835,-608,-381,-16,492,106,268,254,295,42
24,-174,-246,-36,131,-90,40,-32,32,15
745,73,-289,-104,-214,-166,-94,-159,-106,8
310,-76,-342,-21,-186,-106,-51,-109,-118,-180
-340,-457,-281,42,-47,-18,6,-86,-118,-107
-657,-460,-137,72,113,45,27,-29,-22,72
-853,-259,-131,179,315,105,41,22,-16,-16
-498,127,-201,213,411,111,53,102,19,-84
855,602,140,43,61,-111,-127,-54,-62,191
1358,-49,211,-120,-232,-259,-270,-233,-153,493
283,-659,142,-104,-179,-204,-252,-226,-177,277
57,-333,159,-34,-51,-83,-143,-155,-213,-237
-125,-358,12,9,30,20,-30,-82,-208,-499
-707,-165,-178,-51,21,38,17,-7,-102,-272
-889,511,-54,-99,-30,-10,-11,71,84,139
-530,725,345,-8,-45,-71,-73,57,115,162
-239,402,421,49,-14,-52,-16,64,95,-49
-334,-163,225,63,110,94,145,156,102,-207
-157,-404,34,0,73,56,107,102,29,-89
476,-250,-114,-136,-91,-98,-59,-7,-11,271
448,-136,-8,-111,-183,-159,-114,-109,-108,249
595,199,118,-85,-221,-186,-140,-174,-116,31
853,641,88,-74,-110,-58,-40,-13,48,-300
665,491,33,-4,-3,78,51,40,5,-449
357,185,-89,-8,33,115,68,68,27,-156
-467,-159,-117,23,110,162,136,159,146,-4
-662,-320,-69,58,209,164,129,181,201,45
-776,-253,34,129,288,73,32,63,125,15
-879,-629,-89,92,177,10,11,-34,17,-43
-424,-386,-170,2,27,72,65,-10,-32,-212
225,464,-24,6,-78,20,17,6,-38,-247
1208,1080,115,-51,-167,-187,-171,-156,-127,32
1923,1141,101,-157,-222,-216,-229,-349,-283,277
2026,1093,141,-147,-219,-48,-179,-408,-308,363
1040,785,123,-19,-84,296,86,-118,32,182
-552,-11,41,240,276,661,441,251,249,-275
-1478,-1141,-336,182,314,576,447,315,211,-324
-1304,-1470,-709,-106,130,260,288,375,378,237
-1268,-1010,-682,-151,55,29,124,324,349,291
-1208,-409,-520,-44,46,-83,54,233,235,71
-746,121,-305,91,87,-94,25,147,117,-118
-419,336,265,161,15,-93,-92,-68,-104,-182
-29,450,464,82,-62,-123,-212,-146,-183,-57
258,403,191,-37,-49,-54,-147,-36,-98,16
292,307,-16,-80,-13,-7,-22,103,76,-21
25,220,66,-80,-38,-35,20,170,145,-163
236,-74,286,-99,-182,-221,-118,-50,-79,-192
1213,39,325,-144,-403,-457,-335,-363,-361,-136
1932,428,132,-159,-437,-560,-497,-513,-482,-103
1512,1070,36,-55,-215,-473,-424,-329,-236,146
490,1973,381,105,-75,-299,-245,-123,-18,244
-79,1167,106,17,-52,-86,34,185,254,350
-827,-191,-257,52,221,71,199,374,384,226
-967,-829,-384,93,506,-9,130,353,402,182
-481,-1139,-275,134,465,-48,98,299,384,271
154,-1130,-31,331,414,66,105,95,38,-118
597,-562,-141,283,371,22,9,-62,-160,-325
410,-139,-555,-6,181,-65,-5,20,33,172
-161,-123,-662,-118,130,25,128,156,193,478
-1176,-120,-347,-17,118,41,113,63,46,144
-1876,-49,374,50,-52,-101,-15,-117,-92,-163
-921,92,739,-23,-236,-120,-40,-68,41,-121
88,-242,432,-140,-316,81,77,136,246,115
163,-349,254,-119,-333,321,227,226,226,-25
504,178,322,-184,-634,254,187,158,101,0
1234,725,350,-329,-962,-3,-7,-36,-75,300
1996,1266,364,-159,-500,-237,-341,-370,-437,262
1868,1000,192,109,432,-259,-395,-370,-380,187
713,-217,-213,220,1021,-57,-62,12,113,281
-774,-689,-96,313,1075,53,30,1,74,-184
-1469,-568,116,454,939,124,53,-89,-157,-775
-1705,-800,-113,258,389,181,198,126,104,-539
-1811,-1137,-342,117,153,288,343,275,227,-432
-1591,-1072,-367,137,200,227,271,169,97,-420
-1028,-651,-354,22,40,96,131,83,85,-185
-608,-460,-256,-73,-27,37,57,57,88,29
-171,-244,-63,-73,-82,-59,-27,-10,33,160
55,-93,32,-15,-70,-34,-15,-17,-21,44
-36,-36,36,75,17,66,58,12,-57,-152
-175,-262,-3,73,-30,99,91,-36,-157,-243
91,-307,-191,-62,-128,57,101,-21,-109,-81
311,-143,-321,-157,-130,47,81,-25,-56,16
156,-75,-183,-120,-56,89,45,-57,-108,-96
233,180,220,-73,-117,-57,-138,-248,-321,-243
914,691,341,-124,-371,-336,-454,-565,-633,-398
1524,1089,317,-136,-344,-331,-441,-468,-504,-152
1620,1419,394,-71,-151,-228,-274,-253,-213,399
905,597,25,-39,100,-72,-64,-9,61,614
-623,-892,-305,-25,165,135,202,230,275,288
-1426,-1192,-175,152,216,276,288,258,209,-175
-1028,-912,7,182,121,106,95,72,39,-149
-649,-658,99,141,55,-27,6,6,22,-59
-562,-509,72,67,9,12,64,38,48,-50
-243,-246,-117,-31,-47,43,92,44,68,68
264,-11,-290,-55,-50,59,100,64,134,237
546,292,-214,-73,-59,-10,56,36,131,255
458,571,32,-38,-36,-57,5,25,86,122
503,547,162,-32,-67,-105,-49,-26,4,78
667,462,189,-38,-135,-163,-103,-35,7,210
351,480,236,-7,-128,-112,-26,40,170,324
-115,719,307,45,-83,-37,34,92,243,213
-605,705,168,77,-11,67,69,128,176,-116
-158,830,-43,60,-8,92,63,118,103,-139
327,1067,11,78,12,80,45,86,65,-70
463,914,111,90,44,49,0,20,-26,-142
108,136,-17,12,-3,-40,-88,-91,-160,-236
-49,-549,-121,-18,-56,-43,-103,-162,-218,-85
92,-640,-198,-4,8,93,31,-30,-46,96
272,-293,-140,-117,-128,-20,-93,-127,-113,158
464,-260,-109,-324,-364,-206,-227,-233,-186,298
406,-267,15,-372,-479,-249,-204,-183,-148,222
157,-441,4,-234,-327,-87,-13,11,-6,-93
328,-333,-69,2,6,-11,8,14,-18,-147
260,-351,-57,44,76,-77,-115,-117,-115,30
-379,-387,44,35,56,15,-40,-36,-48,91
-1002,-289,267,153,88,262,99,25,-55,-179
-1380,-342,298,184,55,426,185,81,-51,-344
-1085,-339,27,78,13,478,312,290,182,-171
-325,-394,-224,-22,-22,388,347,370,298,-26
-190,-20,-103,-46,-120,175,221,241,181,-98
226,428,15,-88,-188,-20,76,36,-16,-127
1213,632,-54,-55,-2,-154,-90,-272,-351,-125
2420,1232,-81,-16,118,-299,-278,-467,-515,121
2394,1498,104,-109,-124,-275,-210,-344,-339,348
946,1032,174,-162,-268,-28,139,124,196,288
-938,326,195,176,109,182,282,309,351,-210
-1964,-253,53,439,593,206,221,283,253,-446
-1498,-456,7,343,577,54,119,235,233,-253
-798,-605,106,115,209,-76,10,159,226,28
-508,-495,157,124,176,-96,8,190,279,117
47,-172,83,90,143,-128,-39,165,255,178
510,258,-37,12,42,-148,-88,71,152,117
570,680,-50,8,-6,-147,-140,-49,-23,-83
760,933,-48,-15,-60,-210,-213,-133,-105,-53
1026,814,-18,15,-11,-151,-98,-61,-6,151
665,435,-36,54,46,-53,17,11,38,158
-316,-262,-113,68,126,89,132,166,154,88
-563,-684,-31,88,160,164,178,231,233,105
-627,-690,30,90,114,158,117,125,100,-66
-375,-206,24,54,61,78,36,27,-34,-360
-254,-136,46,-15,-45,-58,-62,-53,-79,-243
-140,18,177,15,-80,-120,-112,-99,-42,45
284,52,91,-34,-146,-145,-157,-120,7,378
313,-279,-178,-183,-242,-127,-126,-124,-5,571
449,-62,-281,-222,-209,-60,-57,-43,-29,333
764,178,-308,-244,-240,-115,-111,-48,-63,107
768,576,-198,-234,-250,-235,-252,-209,-249,-217
212,816,117,-49,-108,-240,-304,-322,-379,-257
-1151,375,214,122,133,-12,-52,-52,-68,-19
-2396,-526,6,149,216,221,217,195,143,-217
-1862,-973,-179,70,145,254,229,142,27,-455
-755,-849,-153,65,139,262,247,146,69,-188
599,-713,-109,73,113,215,192,100,119,153
1039,-586,-162,38,75,151,114,60,79,143
1058,-187,-199,55,129,130,93,58,2,-184
755,-167,-41,32,39,25,2,-70,-90,-155
132,-203,119,-55,-153,-121,-127,-176,-69,162
-484,-46,35,10,-72,-44,-53,-88,-9,87
-648,-353,-166,39,34,69,69,16,18,-33
-613,-279,-68,12,60,94,94,105,81,-66
-553,198,179,37,77,54,34,121,104,-151
-323,237,219,-3,20,0,-15,82,98,-96
-138,199,170,-53,-45,9,0,59,90,-41
197,493,207,-72,-162,-4,-67,-73,-86,-244
978,965,225,-115,-299,-104,-179,-176,-198,-221
1769,1372,193,-283,-612,-263,-257,-226,-185,48
1966,1470,202,-355,-706,-316,-219,-164,-45,394
884,812,157,-39,-105,-52,-1,9,114,352
-382,142,85,233,468,143,123,110,161,130
-997,-803,-181,150,542,219,193,166,151,-52
-638,-1246,-342,17,250,221,171,144,142,105
-37,-544,-232,-59,-24,130,59,91,156,301
711,-9,-85,-137,-312,-3,-27,47,152,404
719,362,7,-194,-401,-126,-94,11,63,235
559,563,143,-81,-138,-256,-239,-154,-122,0
660,828,280,124,169,-289,-336,-303,-266,-57
451,456,101,164,251,-117,-191,-196,-222,-95
-316,-427,-293,76,252,41,11,31,28,-75
-709,-486,-354,3,231,86,89,135,137,-128
-1363,-455,-147,88,247,184,176,180,110,-345
-1492,-786,-92,214,244,266,240,191,76,-335
-672,-1237,-134,133,79,153,177,58,-4,-57
-314,-1085,-165,43,98,150,206,73,32,33
-363,-860,-175,36,148,246,190,3,-72,-81
-124,-347,-97,29,43,285,139,-71,-114,-4
186,290,43,-4,-156,189,74,-121,-176,-35
407,441,139,33,-206,46,-51,-189,-214,-51
175,-86,29,-6,-170,-70,-114,-175,-186,-111
-468,-784,-74,-72,-118,-51,-14,-28,-38,-148
-511,-382,202,36,-89,-121,-82,-102,-92,-141
-519,14,473,168,-53,-146,-124,-165,-113,-87
-727,-411,306,97,-89,-36,0,-14,10,-102
-765,-698,-7,-92,-239,48,109,129,148,-97
-515,-574,-75,-175,-359,29,80,125,166,18
-173,-273,46,-150,-393,-52,-22,35,93,121
105,-51,86,-87,-147,-97,-106,-59,54,192
222,62,74,15,155,-115,-163,-142,-29,154
425,220,93,132,318,-106,-170,-157,-34,195
599,244,139,138,269,-22,-128,-115,4,242
522,275,168,137,230,150,-55,-67,5,126
408,441,171,137,284,185,-69,-107,-100,-129
326,272,79,76,175,110,-60,-129,-159,-237
549,-5,-132,-111,10,14,4,-117,-99,23
704,-108,-209,-207,-89,-107,3,-226,-130,210
634,-8,-145,-151,-126,-207,-49,-314,-223,206
406,229,-49,-88,-202,-256,-103,-283,-181,223
6,123,-186,-109,-164,-186,-113,-113,-43,306
-13,181,-379,-96,-61,-81,-85,14,-26,184
578,218,-480,-81,47,-13,-32,80,-23,33
404,18,-545,-43,148,59,35,137,13,-223
212,-40,-438,-65,68,-24,-33,104,-37,-373
2,-320,-312,-31,44,-94,-69,137,35,-256
-749,-240,-98,154,178,-22,-6,197,105,-109
-440,-46,12,107,98,-51,-53,107,44,76
63,-193,-56,29,20,-66,-73,65,49,151
179,-551,-114,51,66,11,31,165,217,191
-85,-474,24,164,176,118,116,217,231,-37
-243,-17,339,196,167,106,47,108,55,-146
-509,47,309,99,51,12,-26,42,14,-79
-700,-208,213,56,7,33,43,100,109,33
-273,45,439,-4,-103,-25,12,58,94,98
-197,52,338,-75,-179,-40,-15,7,64,138
-231,110,281,-45,-149,21,5,16,80,162
-255,262,193,-53,-134,90,-2,-24,0,36
-328,305,30,-107,-144,123,-39,-73,-106,-170
-144,352,-128,-145,-180,74,-64,-93,-130,-242
-324,306,-16,-45,-102,51,-27,-105,-153,-324
-477,120,200,30,-42,1,-42,-150,-235,-406
-79,-292,144,-57,-82,-129,-75,-144,-199,-171
136,-203,201,-45,-71,-146,-40,-70,-63,17
150,123,189,45,18,-47,38,3,29,-20
37,44,-10,54,27,-38,27,3,30,-12
127,-16,-173,-43,-63,-48,-24,-9,9,90
227,161,10,-64,-106,-76,-59,-2,32,142
-41,71,324,36,-59,-42,-15,60,89,98
-345,-40,367,113,-13,12,44,101,84,11
-441,-44,177,112,-27,46,86,130,78,-56
-303,-36,83,7,-110,57,93,122,73,-58
75,10,25,-71,-151,15,8,44,26,15
509,55,14,-88,-97,-7,-18,-15,-42,-18
889,177,-35,-141,-111,-41,-59,-77,-121,-81
964,306,-64,-175,-246,-94,-99,-139,-172,-126
886,349,-74,-114,-233,-116,-152,-210,-262,-212
798,435,-89,-66,-156,-193,-215,-246,-276,-130
434,454,4,-78,-130,-203,-161,-184,-148,77
215,343,36,-121,-216,-219,-136,-112,10,274
609,227,91,-37,-76,-145,-110,-112,-24,213
1191,78,42,23,31,-9,14,-4,28,249
661,284,195,154,-17,60,100,79,100,207
-209,164,151,61,-111,73,185,215,271,270
-843,-227,-193,0,135,222,353,393,396,29
-866,-67,-282,207,458,267,260,250,201,-246
-820,1,-329,227,412,181,158,112,67,-213
-915,-26,-317,67,222,124,163,106,59,-185
-115,-159,-263,-53,163,98,115,81,89,52
236,-611,-255,-20,216,125,102,92,171,387
-32,-904,-360,-57,118,193,183,175,225,410
-255,-700,-368,-121,40,279,182,151,133,-41
-396,-147,-92,34,200,366,142,80,36,-403
-108,305,65,107,271,270,-1,-35,-73,-264
180,311,-105,-26,157,145,-42,-46,-64,-43
173,159,-155,-156,12,53,-68,-63,-133,-138
-127,-19,20,-170,-149,-5,-75,-57,-128,-249
-267,-59,263,-143,-397,-23,-74,-33,-74,-243
-84,123,308,-106,-557,-84,-111,-56,-90,-74
388,589,329,-211,-810,-243,-113,-64,-72,151
975,925,348,-322,-772,-336,-103,-102,-100,208
1421,762,267,-140,-24,-243,-74,-192,-235,61
1540,199,55,146,758,-95,-4,-150,-210,14
1473,311,13,196,750,-193,-148,-219,-219,4
682,546,101,130,293,-148,-136,-137,-114,-89
-717,-161,-13,240,326,243,120,133,175,50
-1774,-704,-130,251,318,571,289,274,316,-22
-2107,-714,-99,224,288,596,299,238,213,-342
-1399,-742,-246,115,275,382,244,212,197,-237
-648,-529,-309,-19,139,20,39,92,142,-16
-564,-303,-256,-94,18,-209,-135,-26,24,-35
-397,-308,-233,-90,-20,-248,-133,-24,18,-19
-161,-399,-193,-43,-35,-251,-92,40,66,54
-77,-366,-91,32,-24,-193,-71,80,80,15
62,49,-81,41,-51,-167,-95,94,124,138
37,523,-177,28,-95,-144,-79,75,129,258
-31,768,-84,12,-167,-138,-40,-1,3,84
310,526,7,-103,-341,-185,-25,-75,-73,62
238,-365,-6,-69,-209,-62,96,-8,-4,92
-96,-513,52,99,225,131,214,51,0,-112
-92,-222,-29,103,493,139,162,100,42,-74
280,73,-29,55,283,21,-6,35,2,67
742,582,284,56,-68,-109,-203,-137,-127,68
841,971,414,26,-230,-90,-220,-187,-172,13
371,447,199,-74,-243,39,-81,-9,14,118
-221,-273,-10,-90,-116,113,-13,118,168,179
-219,-412,21,68,146,81,-67,61,103,35
67,-304,10,48,185,-4,-70,-1,29,-3
-180,-262,39,6,74,-50,-60,-34,-1,-18
-428,-341,-12,-12,-12,-122,-94,-46,0,0
-321,-221,32,-65,-88,-162,-95,-25,49,70
-130,88,91,-58,-127,-78,-11,15,54,52
267,282,178,9,-110,3,58,60,97,135
685,361,92,-82,-237,-62,18,73,221,444
877,423,51,-126,-315,-91,10,82,224,463
387,343,5,31,-75,19,57,52,71,107
15,222,-75,123,141,27,-13,-52,-100,-126
-254,214,33,171,183,-35,-122,-143,-214,-299
-501,43,-52,70,82,14,-14,-54,-140,-366
-468,-159,-123,-86,-42,63,124,75,20,-240
495,-2,118,-28,-99,45,79,75,129,142
1855,455,543,145,-16,1,-35,-17,77,301
1378,561,556,103,-14,54,-28,-38,-14,37
538,417,273,-57,-124,150,0,-39,-93,-177
-33,262,6,-170,-220,152,-45,-108,-231,-364
-147,197,-129,-349,-447,28,-79,-128,-289,-432
382,181,-279,-428,-541,-101,-180,-207,-346,-278
18,-80,-321,-197,-168,-90,-151,-122,-184,27
-523,-570,-398,48,356,40,-2,42,42,161
-1100,-795,-463,26,337,246,292,300,276,135
-1076,-836,-620,-20,321,325,424,420,390,161
-1025,-765,-550,283,692,202,257,267,261,-6
-841,-249,-237,445,805,-7,-21,22,41,-125
-442,449,76,95,261,-112,-123,-50,-23,-5
-191,1176,557,-78,-108,-148,-159,-171,-139,51
-253,522,625,0,-142,-81,-89,-188,-139,97
-71,-160,492,-33,-401,73,101,8,82,260
4,-123,312,73,-396,214,172,94,85,45
-52,9,84,171,-181,124,46,22,-7,-168
-63,32,-105,21,-87,2,4,53,53,-102
310,123,-121,-102,82,-110,-36,74,158,178
385,185,64,-31,154,-240,-140,-44,102,249
-64,-146,139,22,98,-203,-137,-97,-3,13
-82,-340,26,22,47,-163,-141,-107,-87,-117
695,-122,65,-12,-11,-251,-222,-203,-197,-107
1236,108,222,-234,-333,-181,-129,-145,-199,-192
920,156,132,-180,-261,79,79,6,-122,-330
401,449,148,84,303,198,133,80,15,-41
-137,361,79,161,697,210,146,104,134,175
-382,-4,-131,-58,311,247,146,138,175,184
-331,104,-9,40,88,411,121,109,77,-13
-376,-261,93,526,422,321,-82,-110,-165,-347
-258,-454,23,495,314,2,-249,-262,-319,-435
361,79,41,-43,-278,-213,-225,-204,-145,12
244,210,48,-179,-383,-246,-142,-95,0,218
-492,-16,-71,-89,-178,-147,1,27,35,59
-226,-108,-219,-44,84,-151,-28,-3,-24,-88
206,-79,-329,-113,136,-206,-98,-57,5,94
449,122,-261,-144,-62,-190,-64,-16,71,263
776,129,-178,-198,-459,-220,-63,10,77,300
473,59,6,-10,-501,-187,-91,-35,-71,-47
161,22,171,87,-296,-86,-33,6,-120,-189
152,-143,122,-146,-292,-78,24,91,43,152
-242,-385,-32,-162,16,12,109,180,254,472
-776,-438,-109,-83,109,49,141,255,369,385
-1171,-178,6,26,9,41,134,233,264,-36
-789,25,52,184,228,11,70,96,46,-312
-294,-52,-32,174,406,11,39,20,-21,-229
-114,-279,-164,102,326,140,101,51,47,-61
-78,-362,-288,71,191,313,189,102,118,-22
-149,-260,-348,34,139,367,213,98,109,-48
37,-155,-391,73,151,314,155,63,49,-60
38,-73,-425,74,137,180,59,13,1,-5
-304,234,-264,40,36,35,-29,-28,24,134
-531,340,-227,13,-28,-48,-83,-37,42,250
65,263,-285,-79,-89,-160,-114,-63,29,270
1259,489,-67,-92,-120,-222,-122,-85,-16,142
1008,801,539,-4,-135,-235,-166,-124,-109,-132
397,735,740,7,-161,-211,-164,-129,-136,-271
-107,117,312,-77,-169,-137,-72,14,40,-89
-634,-659,192,28,-9,33,97,179,185,22
-208,-880,313,84,22,44,80,121,119,-3
379,-643,141,11,-41,-32,13,32,14,15
250,-59,-88,-69,-69,-35,-20,14,-6,109
399,494,-294,-147,-132,-81,-89,-73,-135,64
735,1015,-188,-142,-202,-181,-222,-254,-362,-117
406,1203,319,-49,-245,-261,-267,-306,-336,-84
13,610,668,41,-194,-232,-244,-262,-276,-219
416,0,402,-43,-167,-169,-174,-204,-266,-257
23,-235,53,-62,-33,43,79,32,-34,-62
-905,-372,106,65,142,221,215,173,139,39
-1306,-625,107,138,209,244,190,152,150,-40
-1390,-825,-151,141,260,330,270,243,191,-163
-942,-871,-422,17,214,363,360,369,277,-39
-667,-735,-511,-125,86,276,320,340,276,67
-542,-463,-455,-121,23,168,216,211,165,6
-280,-91,-245,-27,15,96,93,82,71,27
65,315,180,64,-18,-13,-13,-35,-27,32
367,371,341,0,-105,-101,-39,-80,-64,72
517,215,2,-119,-143,-82,1,-28,7,176
504,435,212,-66,-143,-92,-26,-81,-27,126
285,308,431,-16,-152,-98,-78,-151,-105,19
116,37,267,-74,-157,-100,-74,-113,-63,73
66,49,172,-123,-167,-84,-37,-35,15,192
-60,265,172,-96,-166,-75,-55,-23,-8,114
71,292,155,-88,-180,-31,-70,-65,-56,97
155,15,126,-32,-126,86,33,-76,-98,5
513,-99,0,-114,-236,85,124,-102,-163,-95
603,-175,-161,-249,-302,60,154,-112,-155,-61
-53,-289,-119,-83,42,171,182,-53,-128,-266
-220,-315,-120,57,264,243,168,16,-70,-263
-6,-241,-127,60,182,249,101,47,-45,-69
331,-61,-81,36,94,227,-18,-4,-35,146
703,317,-43,21,60,147,-190,-129,-137,273
1078,556,9,-8,-68,-98,-352,-251,-218,266
1162,497,82,-76,-176,-307,-388,-239,-174,213
317,51,3,-70,-77,-243,-215,-30,49,252
-893,-395,-107,-7,99,-71,34,140,167,104
-1665,-239,88,96,115,-29,162,46,-59,-444
-1349,-212,146,169,167,93,343,22,-120,-548
-310,-396,-28,80,134,207,404,46,-32,-286
430,-275,-84,2,39,272,319,89,68,1
440,-185,4,14,57,363,191,154,133,104
-118,-203,-25,22,72,321,63,143,126,61
-400,-184,-53,-8,34,165,-35,86,70,-46
-187,-93,-68,-60,-39,-43,-144,23,15,-132
45,-11,-90,-57,-83,-208,-259,-15,52,-1
114,207,14,-7,-110,-296,-289,-31,57,70
36,397,76,0,-67,-309,-183,-8,17,-39
-86,346,21,29,58,-251,-61,42,5,-128
-84,115,-92,66,192,-203,-25,96,116,69
-291,72,-68,82,167,-130,-23,99,192,235
-239,28,-27,113,134,-37,-11,41,105,102
-29,-82,-25,154,182,46,47,61,62,-31
48,67,80,132,121,9,36,36,22,33
215,32,87,102,66,0,53,12,-8,55
448,69,-188,-2,5,2,65,-6,-66,-58
766,277,-362,-113,-63,-54,8,-32,-97,22
707,235,-207,-146,-80,-115,-49,-53,-65,155
592,150,72,-105,-78,-98,-62,-116,-124,41
980,200,217,-119,-100,171,-27,-117,-136,27
1066,467,239,-126,-184,378,-19,-66,-55,210
369,537,229,7,-144,339,-27,-19,4,250
-819,146,37,72,-104,155,-43,-25,-37,2
-1645,-411,-291,-39,-248,-18,-25,-26,-51,-215
-1223,-813,-380,-130,-408,-110,-18,-30,-97,-246
-518,-1240,-484,-123,-495,-117,43,53,-11,-25
-155,-1338,-578,-48,-236,-46,143,167,111,92
103,-821,-499,87,432,33,179,197,133,119
277,-263,-577,188,911,108,181,185,167,146
540,311,-674,96,688,30,83,97,68,38
1361,1467,-309,-104,138,-349,-253,-180,-184,25
2114,2338,679,-184,-434,-793,-649,-558,-561,-186
1916,1561,1299,-123,-710,-788,-708,-674,-702,-394
644,1129,1210,20,-623,-472,-396,-395,-331,-76
-854,684,871,3,-538,-147,35,96,347,707
-2324,-427,429,93,-209,123,296,309,438,247
-2331,-1530,-85,183,474,288,408,419,402,-127
-1484,-1681,-264,239,853,248,294,371,344,-196
-855,-830,-89,257,692,217,116,178,148,-216
-211,-80,76,156,236,216,21,57,17,-113
-37,102,123,54,4,190,3,49,14,23
-109,-189,10,-30,4,97,-1,60,42,132
141,-482,-92,-47,16,-28,-74,-48,-72,119
614,-507,-216,-125,-137,-144,-137,-133,-137,102
849,-363,-261,-121,-115,-126,-61,-81,-104,108
553,-120,-200,28,191,-55,40,-42,-79,-13
153,48,-239,76,365,10,110,-25,-81,-111
-14,234,-359,38,263,76,184,9,-107,-236
67,271,-535,-13,141,120,217,54,-57,-170
153,-114,-663,-66,96,125,188,80,42,71
61,-235,-313,-47,52,51,83,40,98,253
-140,98,293,91,73,-31,-64,-82,-25,-5
102,702,554,152,62,-157,-213,-236,-195,-233
168,688,498,110,-30,-169,-199,-193,-133,-71
-49,529,642,53,-155,-61,-7,-94,-55,-30
-238,381,655,-85,-326,5,130,-120,-82,-115
-422,-310,203,-300,-501,100,262,-74,-26,-44
-393,-482,-78,-386,-519,231,383,-24,-31,-101
-276,-116,-153,-336,-387,315,396,9,-23,-84
-9,157,-82,-173,-129,365,340,79,56,-33
-127,115,-39,-12,158,384,196,113,105,-49
-365,-136,-47,131,486,344,13,91,59,-121
-457,-577,-156,114,462,247,-71,149,119,-9
-119,-548,-147,23,162,9,-220,117,130,160
75,-268,-139,-54,-62,-195,-313,37,91,211
263,180,-123,-75,-188,-291,-298,-5,86,288
530,495,-96,-13,-114,-383,-323,-54,70,387
545,772,168,91,18,-456,-403,-223,-166,45
714,1118,532,184,117,-461,-477,-374,-369,-206
573,811,275,173,177,-245,-259,-243,-252,-97
97,-113,-183,70,273,98,131,112,100,33
-375,-231,-180,-6,152,201,214,233,182,-155
-546,-126,209,75,37,133,100,160,76,-257
-314,-475,185,51,-39,32,53,153,88,-71
-4,-695,-57,5,-63,-63,-19,125,88,70
105,-568,-65,-10,-48,-77,-37,72,24,52
-164,-391,9,0,-12,-49,33,111,72,97
-330,-257,-19,-40,-48,-15,77,157,165,170
4,148,-28,-36,-72,-13,16,103,113,21
495,374,-111,-67,-204,3,14,70,96,95
197,281,-65,-49,-206,34,53,93,103,158
-92,68,104,172,88,300,61,49,47,56
165,-352,43,241,352,617,21,-40,-61,-112
662,-281,10,45,162,651,4,-71,-104,-104
850,198,106,-62,-137,320,-122,-211,-213,-76
875,581,137,-174,-358,-72,-297,-378,-327,-108
509,397,-73,-290,-457,-285,-301,-418,-370,-209
-486,354,20,-205,-389,-440,-277,-425,-403,-187
-353,443,273,49,-43,-612,-311,-326,-168,296
490,-38,12,120,314,-435,-69,5,208,578
230,-515,-327,47,436,-117,195,246,394,425
-526,-550,-370,137,503,67,269,317,382,139
-917,-379,-173,243,402,-12,220,275,303,65
-1078,-146,94,310,250,-113,165,196,143,-110
-683,81,186,138,-27,-153,106,145,113,13
-462,183,152,-55,-261,-100,65,91,23,-76
-276,-24,81,-105,-256,45,109,72,-74,-341
169,-166,-25,-152,-176,32,115,71,-6,-159
135,-160,-50,-188,-15,-112,15,12,-38,-130
-7,-24,34,-110,117,-87,-25,3,-57,-191
78,163,155,71,3,60,64,36,14,-39
138,167,99,86,-179,111,134,82,44,43
-160,17,18,-67,-449,105,188,124,42,-58
-185,12,-19,-80,-236,91,173,127,49,-44
-99,241,3,27,98,55,62,5,-23,-84
16,110,-164,151,276,15,-43,-115,-144,-109
310,-439,-518,69,81,0,-26,-82,-112,35
482,-336,-523,30,41,-39,-40,-80,-121,0
139,-101,-449,157,338,12,-12,-66,-130,-216
215,4,-414,43,187,28,33,15,-10,17
285,415,96,0,-85,-31,24,32,91,294
-184,11,469,27,-110,-63,32,40,108,213
-691,-497,461,119,177,53,81,61,38,-84
-558,-420,197,81,166,65,58,41,29,-124
-329,-250,-163,27,50,86,32,57,85,2
-232,-120,-348,67,151,158,24,56,76,-8
225,103,-223,-14,97,101,-43,-12,12,54
611,122,-48,-64,65,33,-69,-54,5,150
803,303,-122,-90,39,13,-6,-17,84,262
579,559,-189,-62,25,45,83,72,190,288
-219,708,188,94,58,20,36,-15,62,11
-1052,103,494,184,30,-45,-46,-111,-113,-331
-551,-504,341,52,-83,-140,-130,-132,-125,-177
374,-490,69,-88,-178,-247,-236,-191,-109,262
1559,167,83,-232,-368,-421,-419,-380,-215,657
2305,705,138,-287,-443,-504,-518,-497,-378,641
1585,537,39,-138,-201,-208,-224,-202,-198,192
346,462,85,90,92,151,122,109,100,-174
-609,19,-31,200,268,385,355,215,97,-466
-620,-409,-312,145,258,397,380,180,0,-522
-383,-588,-381,-24,97,324,338,153,-41,-418
-305,-142,-147,-121,-72,278,207,32,-99,-340
-327,145,109,-69,-126,322,170,-26,-112,-213
-491,-142,41,-84,-168,305,194,-9,-55,-75
-858,-574,-304,-137,-190,225,166,42,22,-52
-1269,-606,-468,-112,-134,165,95,99,44,-193
-1227,-300,-313,-44,-51,98,51,123,67,-150
-796,-72,-93,-93,-12,68,32,46,7,-95
-352,-110,-71,-148,42,181,95,28,35,-59
-151,-202,-3,-55,42,248,132,60,74,-115
-178,-262,237,71,66,123,-4,35,36,-167
141,-157,361,67,-39,-166,-207,-16,22,-60
296,113,162,36,-78,-378,-267,-54,30,78
272,250,15,79,22,-402,-248,-51,77,289
-55,71,-50,122,169,-304,-164,41,171,448
-243,39,-93,125,168,-244,-121,111,199,324
-484,-35,-176,84,165,-101,0,205,232,119
-525,-251,-155,164,222,14,63,189,201,-130
-71,-93,182,233,131,-104,-85,56,117,-161
614,22,233,102,-115,-195,-202,-81,19,-26
1355,204,-126,-170,-376,-228,-284,-213,-90,100
1902,852,-346,-381,-645,-249,-296,-232,-56,356
1320,1607,272,-299,-904,-92,-65,-62,52,316
299,1553,1152,-70,-936,37,83,3,0,-100
-13,753,1034,83,-410,-76,-110,-206,-311,-517
782,487,639,10,-10,-336,-304,-332,-390,-316
1409,261,235,-146,209,-359,-242,-167,-79,435
584,-123,65,175,699,-206,-204,-180,-96,285
-738,-625,-54,337,774,32,-8,24,112,241
-1865,-832,-124,225,404,226,208,283,307,31
-2117,-1023,-206,118,241,318,315,392,348,-177
-1817,-1040,-270,107,292,301,276,312,254,-214
-985,-663,-193,108,301,232,165,148,67,-247
-357,-301,-114,77,241,121,61,41,0,-119
174,-146,-77,32,155,14,-18,-21,-16,48
527,-86,-42,6,86,-27,-47,-32,0,214
559,-1,10,27,41,-26,-59,-57,-16,313
515,11,-13,10,-27,-45,-76,-97,-70,243
339,-37,-141,-57,-85,-34,-67,-102,-107,85
-116,-148,-241,-118,-135,24,30,34,44,-24
-147,165,-80,-90,-183,85,117,103,90,-116
0,285,101,-5,-202,112,139,75,13,-160
44,136,92,52,-157,128,138,61,-11,-106
273,286,130,-7,-201,56,46,-13,-45,12
615,441,185,-129,-227,-52,-92,-127,-112,72
759,762,273,-101,8,-131,-218,-273,-305,-184
740,912,258,-29,16,-133,-144,-261,-353,-383
429,472,108,10,-256,29,138,57,43,38
-527,-225,-154,284,171,156,208,214,303,294
-1158,-610,-318,357,601,113,128,120,158,-49
-1033,-472,-313,139,454,154,160,115,107,-144
-779,-235,-214,8,190,224,233,168,167,-33
-640,-111,-105,17,52,191,195,131,131,-45
-138,-80,-151,-66,-51,71,61,31,81,49
224,-70,-124,-106,-83,67,13,36,162,320
535,-249,-59,-16,36,192,38,40,130,201
1219,-367,-60,-3,58,142,-35,-48,-44,-38
965,-146,94,17,21,-8,-113,-141,-197,-184
421,-77,0,-60,-64,-131,-155,-150,-183,-86
-126,-241,-193,-180,-168,-218,-165,-130,-117,77
-693,-114,-150,-153,-175,-220,-102,-89,-84,32
-697,325,-2,-104,-277,-214,-96,-101,-151,-59
565,366,22,-189,-483,-153,-88,-99,-145,32
1565,502,-38,-333,-688,-174,-142,-168,-216,57
1614,755,150,-268,-719,-218,-187,-271,-388,-239
1316,771,337,-173,-564,-182,-72,-159,-303,-292
1127,906,363,52,59,-189,-122,-172,-228,-54
1078,921,310,245,550,-360,-394,-353,-141,526
-93,-44,2,207,481,-135,-157,-77,196,717
-1626,-1139,-336,118,344,261,256,280,331,188
-2018,-1406,-359,42,286,354,387,389,379,-119
-1712,-1092,-229,64,398,303,319,323,360,-137
-1355,-604,-48,223,546,210,155,111,134,-258
-1198,-845,-209,180,453,257,202,145,92,-384
-857,-1065,-440,-28,247,261,250,268,211,-220
-223,-651,-458,-89,127,163,171,209,194,-35
173,63,-416,-73,67,91,108,168,164,97
145,545,-390,-61,33,55,92,180,223,252
36,893,-44,11,9,-1,-20,45,97,106
-20,573,173,31,-50,-75,-139,-114,-88,-68
-5,-46,96,4,-57,-31,-71,-65,-77,-13
165,-38,-86,-7,-7,40,26,30,24,133
303,263,-58,60,43,63,34,10,-37,-26
313,334,162,121,63,78,30,-27,-80,-102
301,93,203,74,11,126,123,35,74,124
342,-64,22,-47,-85,135,166,27,81,130
-277,-27,86,-68,-103,141,125,-19,-58,-217
-695,-182,200,-21,-96,131,43,-37,-157,-410
-604,-176,176,-55,-159,14,-83,-86,-187,-428
-60,118,212,-128,-241,-175,-246,-192,-276,-384
427,446,427,-112,-257,-294,-372,-320,-406,-357
739,337,173,-157,-236,-326,-424,-369,-437,-265
775,-84,-152,-130,-125,-232,-309,-208,-244,-37
269,-114,-119,38,49,-73,-116,3,-16,15
-127,-549,-246,112,178,80,97,210,214,234
-553,-1012,-453,107,241,195,259,363,350,377
-639,-727,-508,41,226,206,269,363,337,304
-158,-170,-473,-70,95,65,94,176,163,205
323,435,-62,-132,-119,-162,-184,-94,-63,158
428,869,564,-64,-264,-334,-351,-243,-170,141
703,965,789,-74,-343,-365,-334,-179,-32,412
440,347,425,-97,-210,-159,-123,28,168,488
-660,-423,76,79,121,176,146,199,180,-17
-924,-345,257,224,246,268,183,130,-29,-496
-695,-284,208,164,157,170,95,62,-84,-500
-186,-459,17,88,99,80,40,33,-49,-269
-61,-748,-200,46,126,129,124,124,74,-43
-137,-382,-292,13,131,137,154,166,156,27
103,369,-418,-113,56,101,145,125,97,-7
252,583,-584,-164,22,132,177,84,49,-20
245,843,-154,-87,-85,186,69,-50,-44,7
479,654,67,-118,-214,290,-34,-154,-97,103
721,61,-42,-110,-155,357,-10,-125,-73,178
104,371,427,82,-99,160,-49,-136,-95,120
-439,450,636,76,-174,-94,-149,-179,-117,107
-274,282,536,-58,-239,-304,-273,-251,-162,160
696,528,683,-87,-259,-460,-339,-312,-218,200
1566,293,592,-73,-242,-419,-216,-182,-143,153
1413,-86,239,-133,-209,-294,-90,-45,-58,-14
1635,7,91,-273,-405,-268,-101,-49,-64,74
1016,228,203,-249,-511,-138,-61,-50,-94,3
-858,-207,102,-66,-324,17,75,72,16,-87
-1569,-593,-187,-100,-267,-26,174,245,246,162
-1416,-537,-183,-152,-205,-86,201,321,299,132
-1114,-441,-99,11,82,17,164,227,141,-192
-621,-447,-194,175,289,29,43,104,13,-257
-238,-248,-189,68,-45,-15,-21,61,5,-122
-251,29,38,119,-23,71,23,35,-86,-334
-173,177,133,223,363,106,21,-29,-171,-452
207,245,125,155,317,62,-71,-115,-184,-255
591,431,50,58,76,24,-187,-237,-253,-113
870,691,-19,-22,-163,-35,-249,-294,-318,-144
855,270,-242,-216,-286,-17,-59,-57,-53,185
284,-363,-302,-174,117,19,108,152,263,599
-862,-351,-11,249,794,-5,6,32,101,223
-818,-175,-12,140,597,-80,-43,-8,19,79
389,124,-186,-218,120,-216,-141,-84,-76,193
574,178,-129,-219,99,-144,-112,-113,-160,-132
97,62,-70,-26,85,56,63,47,44,-113
378,160,1,149,21,116,42,69,197,341
517,343,187,251,71,167,-17,-37,30,181
276,72,97,109,25,167,36,3,-29,-27
-228,-153,-128,-195,-141,90,150,157,149,126
-998,-126,-110,-155,-62,97,206,194,179,-7
-1379,-66,12,121,159,32,78,15,-20,-398
-937,-90,-47,152,237,-54,-20,-38,-73,-434
-16,184,66,87,75,-31,6,-16,-78,-324
822,308,151,-74,-287,-9,51,10,-61,-166
1042,-10,-19,-294,-706,-12,142,112,127,158
-129,-355,-49,-100,-495,66,261,231,252,146
-720,-496,-131,117,324,101,209,212,258,107
-475,-229,-158,209,804,-3,47,16,57,-48
-11,-4,-165,132,508,-143,-30,-61,-57,-63
-23,-140,-125,67,269,-87,-11,-32,-31,-105
-685,-585,-267,152,430,98,38,-15,-3,-170
-849,-859,-381,88,285,220,134,35,48,-94
-346,-618,-260,-53,66,226,160,12,-35,-159
178,-344,-172,-87,-52,204,170,-11,-121,-287
274,-390,-226,-99,-72,207,223,86,10,-52
305,-375,-255,-55,40,161,180,134,121,227
-31,-151,-118,20,99,41,42,69,45,28
-274,180,64,27,-38,-83,-77,-62,-98,-187
-159,387,88,-7,-202,-140,-78,-117,-155,-174
-29,286,28,-35,-238,-141,-48,-85,-45,59
233,-156,-133,-10,-113,-131,-34,-15,91,333
290,-366,-120,97,128,-54,0,37,140,309
579,-265,115,93,158,-56,-2,55,126,220
1167,78,246,25,-3,-140,-95,-10,60,192
1402,206,75,-18,-29,-152,-122,-18,92,267
1076,307,-19,-58,-66,-148,-128,-44,94,324
542,734,286,-26,-162,-172,-157,-156,-19,253
-30,718,482,-10,-175,-115,-117,-187,-64,140
-387,438,310,61,-53,74,42,-49,8,44
-1016,235,0,79,50,207,165,73,43,-154
-1358,-258,-220,12,66,206,179,103,10,-352
-1129,-575,-212,-84,-9,95,119,52,-8,-338
-950,-526,-47,-99,-85,203,74,-17,-33,-321
-536,-291,154,-35,-87,463,47,-58,-55,-245
27,80,-39,-51,-102,435,-20,-53,-57,-32
196,341,-203,-70,-120,183,-36,-7,-17,88
-91,457,86,-61,-153,-55,-57,-18,-30,-31
-482,13,194,-77,-182,-224,-134,-72,-98,-237
-587,-308,111,-84,-137,-323,-136,-45,-48,-242
-352,-138,86,-59,-41,-359,-116,6,0,-155
11,91,82,5,112,-298,-134,-8,-55,-85
160,58,47,44,170,-195,-137,-27,-94,-84
355,-126,-71,-16,38,-181,-162,-29,-69,49
672,-165,-128,-44,-37,-231,-181,-17,7,211
255,-137,-96,32,11,-176,-97,38,67,147
-375,-127,-55,70,49,-101,-35,85,72,79
-455,15,132,69,11,-100,-50,55,55,118
-13,234,253,-5,-85,-159,-76,-2,53,280
279,471,139,-77,-124,-172,-67,-6,96,432
679,653,100,-10,-63,-116,-49,-34,23,309
962,516,152,78,15,-68,-11,-40,-46,154
654,442,215,89,23,-39,5,-15,-6,169
659,355,208,87,19,-25,-49,-45,-92,3
822,242,186,51,-20,38,-54,-61,-117,-85
1091,754,254,13,-75,109,-85,-119,-168,-183
1444,1165,194,-8,-107,107,-162,-204,-207,-151
1095,892,141,36,-27,114,-74,-132,-114,-103
703,412,21,-6,-67,51,3,-49,-3,64
239,-295,-138,-97,-113,3,41,-6,31,140
-553,-931,-142,-79,-64,-38,37,3,23,100
-210,-848,-125,-135,-158,-195,-23,56,182,455
-188,-447,-134,-136,-193,-171,31,83,198,356
-360,-365,-194,18,-38,46,159,90,106,-156
-658,-274,-118,147,26,247,273,155,147,-345
-1071,-175,-80,166,-52,349,352,238,169,-290
-881,-48,70,29,-245,252,290,207,85,-291
-505,-11,-135,-180,-276,47,150,127,23,-198
-268,-98,-283,-22,303,-44,-23,-21,-41,-29
-83,-125,-13,213,571,-92,-122,-137,-96,57
-123,-231,59,180,403,-19,-106,-115,-153,-36
-278,-350,-84,-37,70,54,2,9,-72,23
-310,-187,27,-96,-51,6,-23,-13,-84,-72
309,-102,-108,-157,-7,-106,-101,-49,-63,67
394,-105,-88,-83,89,-72,-18,1,-19,69
55,160,225,-8,-11,25,9,-1,-51,-1
-206,173,244,-33,-167,66,8,22,17,22
-302,9,100,-65,-244,104,58,57,-2,-181
21,11,-75,-262,-490,25,89,116,72,17
-210,-172,-200,-190,-353,22,129,180,174,161
-615,-397,-205,136,137,84,69,88,86,24
-650,-383,-77,356,437,73,-63,-74,-83,-172
-348,-346,-106,218,208,59,-21,-40,-56,-98
-273,-298,-194,0,-109,125,101,54,21,-91
-132,-235,-129,-20,48,171,79,-1,-68,-180
-25,-21,39,56,303,135,34,-53,-126,-176
579,424,155,-22,95,-9,-21,-102,-158,-107
1366,817,144,-149,-156,-201,-187,-235,-243,-76
1235,547,-28,-44,128,-252,-257,-219,-130,196
462,104,-92,107,337,-160,-176,-95,119,561
-606,-214,-145,198,254,98,50,56,175,354
-1127,-116,-167,118,74,219,156,129,131,-7
-859,64,-97,-109,-255,145,107,117,136,16
-469,252,167,-153,-296,80,47,62,108,43
-155,16,247,-27,-40,70,48,43,103,-17
-126,-158,172,70,167,129,109,75,70,-227
433,-81,6,61,124,131,119,64,11,-280
907,-129,-248,122,192,8,25,-37,-34,-63
501,-326,-360,76,214,-63,-11,-34,42,164
-59,-343,-228,-16,68,-41,4,15,68,156
-322,-316,-33,-35,-78,-12,4,20,22,53
-13,-222,-16,-53,-198,18,-1,0,-41,-100
671,331,191,-51,-299,-49,-123,-138,-194,-181
1175,936,315,-108,-387,-175,-282,-280,-309,-3
1220,1089,186,-249,-447,-299,-359,-323,-328,270
273,1059,399,-141,-283,-323,-359,-340,-317,273
-611,315,285,54,91,-115,-84,-74,-59,58
-663,-500,24,114,239,84,185,226,227,30
-654,-938,-248,106,268,120,176,225,256,36
-744,-1126,-441,60,334,134,133,162,167,-67
-619,-775,-284,107,374,176,116,74,24,-262
-323,-197,-51,93,221,91,29,-7,-72,-313
-352,226,149,63,18,-9,20,16,4,-141
-220,340,91,38,-40,-38,-4,21,38,-109
-124,148,-19,-13,5,6,15,50,92,-52
-165,-44,69,7,52,43,18,29,76,-7
-253,-369,80,-14,27,75,102,78,116,118
-309,-569,-56,-55,-33,79,157,164,213,275
-492,-449,8,106,72,107,112,107,103,-22
-301,-157,59,154,144,112,57,26,33,-113
67,56,-64,47,80,80,8,1,53,24
251,230,-85,47,51,91,34,-29,-2,-38
429,208,-68,16,-6,116,92,-100,-97,-83
664,161,-176,-71,-73,97,123,-119,-125,-63
793,298,-366,-144,-109,80,98,-77,-48,71
731,813,-252,-106,-78,94,-4,-57,44,222
493,1199,122,-28,-92,88,-147,-114,-28,113
824,1093,463,-6,-162,-27,-227,-172,-104,82
849,567,416,-18,-199,-178,-230,-168,-117,122
27,307,424,4,-136,-297,-248,-201,-159,23
-571,108,472,-12,-181,-436,-314,-211,-116,120
-839,-623,265,19,-142,-271,-106,0,49,81
-539,-886,32,76,-22,43,120,133,49,-232
-177,-793,-224,3,85,182,140,159,75,-208
174,-565,-299,12,172,187,99,155,126,-50
284,-26,-138,66,92,53,-8,7,-43,-268
338,224,-81,-10,-52,-110,-118,-120,-191,-292
660,-66,-289,-148,-168,-170,-88,-66,-90,-11
342,-346,-319,-80,-75,-52,80,118,106,203
-477,-436,-145,131,110,69,194,225,233,194
-791,-146,-34,205,193,64,140,131,122,29
-713,2,-40,169,250,74,126,86,52,-57
-497,26,-96,37,117,15,73,42,16,-65
-507,-154,-266,-91,-16,-43,40,56,48,-106
171,226,44,-98,-65,-154,-70,-12,18,-23
1047,523,439,-101,-171,-343,-306,-248,-218,-81
1687,685,339,-136,-265,-436,-453,-427,-435,-194
1659,870,291,-120,-248,-365,-370,-338,-304,87
896,109,-95,-111,-73,-87,-47,16,126,473
-44,-242,-309,16,151,150,186,201,240,233
-581,-197,-235,61,187,206,241,215,183,-93
-1016,-412,-17,85,146,150,201,153,118,-232
-1099,-318,294,85,51,7,47,21,68,16
-877,-134,188,28,-8,-38,0,0,120,390
-448,-322,-170,-80,-21,5,59,104,239,622
26,-351,-300,-94,15,109,184,223,321,522
-109,34,-238,-20,85,223,268,239,251,39
-41,540,-63,56,84,207,220,146,118,-207
305,1007,221,52,-16,69,60,13,-12,-281
409,612,211,-94,-168,-38,-38,-93,-88,-251
564,335,301,-38,-116,-57,-109,-229,-305,-502
716,327,480,76,-23,-136,-239,-402,-524,-635
1019,420,510,54,-154,-290,-377,-503,-514,-179
803,431,260,-76,-376,-308,-324,-411,-327,171
425,409,80,-82,-350,-191,-176,-243,-150,285
-176,111,-9,-31,-188,31,116,87,192,437
-1664,-488,-37,140,34,353,447,430,416,-10
-1665,-573,87,189,120,381,366,362,252,-308
-765,-687,92,9,-109,201,193,256,140,-81
-333,-1132,-222,-204,-277,124,181,316,278,295
-774,-1147,-296,-114,110,171,173,295,319,244
-1194,-842,-164,195,642,236,131,158,102,-202
-925,-449,-68,223,505,164,74,49,-42,-318
-69,79,48,3,-72,66,10,-22,-71,-187
800,461,81,-203,-502,-36,-69,-98,-140,-92
1285,605,74,-248,-679,-160,-159,-188,-241,-16
1302,410,-68,-252,-571,-141,-120,-125,-111,229
722,-21,-220,-119,-95,-50,-32,0,78,314
-375,-50,-102,309,665,63,-57,-85,-63,-121
-675,-198,-119,305,805,139,-9,-50,-33,-109
-573,-286,-120,92,376,134,57,64,74,56
-407,-263,-31,74,113,88,67,73,52,30
-583,-329,-49,255,509,16,-44,-32,-67,-152
-578,-259,-50,226,628,-36,-87,-63,-79,-72
-33,-13,-2,41,266,-62,-107,-97,-102,68
1165,171,-111,-119,-170,-116,-150,-137,-102,262
2413,479,-103,-127,-292,-182,-187,-141,-60,377
2013,900,136,-2,-227,-125,-118,-143,-91,62
888,790,45,13,-93,-19,-25,-79,-47,-63
2,414,-311,63,172,19,-22,-48,-6,-85
-795,285,-335,246,419,52,-21,-83,-84,-264
-1192,-146,-160,219,255,103,88,8,19,3
-898,-314,33,33,-2,27,85,32,123,385
-1469,-633,-94,-85,-58,38,97,88,141,129
-1731,-884,-175,-109,-80,35,80,93,111,-156
-1325,-409,271,-92,-191,-43,25,12,-31,-387
-777,-97,315,-126,-241,-62,29,53,-26,-258
549,102,132,-142,-319,-61,-23,33,-47,-82
1062,438,102,-175,-512,-133,-184,-170,-244,-52
1110,575,-21,-337,-730,-112,-191,-176,-186,131
862,412,-250,-442,-780,88,52,79,74,162
395,-28,-386,-453,-725,249,297,320,235,69
50,-243,-97,-199,-228,202,257,297,234,82
-147,-95,372,266,500,-80,-44,9,55,84
-525,-333,264,469,844,-172,-123,-105,-82,-135
-776,-703,-55,483,925,2,22,14,-14,-137
-940,-938,-121,482,859,174,112,60,4,-130
-529,-848,-303,265,559,219,126,68,-28,-192
130,-39,-494,-46,121,187,102,83,8,-115
689,1291,-196,-113,-124,-40,-126,-150,-201,-168
1202,1423,-146,-186,-308,-277,-356,-323,-324,0
858,913,-32,-36,-103,-282,-369,-309,-209,235
-193,198,454,190,127,-192,-238,-183,-49,240
-992,-41,599,191,78,-76,-64,-1,88,103
-1130,-297,223,119,79,46,85,137,150,34
-1179,-657,1,80,107,116,149,176,106,-202
-890,-620,102,57,51,48,103,147,67,-196
51,-589,-75,-1,12,-11,40,82,63,14
1400,-355,-348,-48,16,1,37,71,101,252
2137,244,-428,-29,50,19,21,26,60,248
1569,511,-377,-19,47,17,0,-20,14,138
1096,673,67,23,-49,-71,-122,-158,-143,-58
489,441,226,-27,-162,-140,-173,-195,-177,-146
-506,-72,-156,-178,-183,-67,-26,0,30,-152
-696,-62,-56,-135,-185,-39,9,44,97,-71
-214,516,719,15,-259,-139,-110,-188,-154,-148
0,193,775,-121,-385,-191,-136,-234,-159,0
82,-625,54,-300,-361,-44,59,17,147,397
-629,-429,38,-71,-197,73,91,34,77,78
-1245,-84,224,124,-44,137,55,43,35,-173
-1164,-534,-50,66,12,182,112,174,127,-171
-841,-827,-215,-55,-14,193,177,270,193,-114
-704,-675,-254,-96,10,166,193,296,213,-88
-662,-448,-278,-52,79,68,104,238,165,-47
-513,-143,-103,55,207,4,-20,124,53,-103
-124,135,187,91,140,-59,-106,19,-43,-63
428,329,192,9,-43,-166,-209,-116,-159,69
771,377,109,-27,-110,-213,-233,-154,-167,223
641,260,49,-19,-67,-122,-111,-23,12,347
204,271,34,-27,-21,0,12,101,141,154
-168,253,67,-24,2,47,66,119,104,-181
-172,-3,27,-8,10,44,66,120,92,-105
-238,26,101,48,7,63,76,113,79,5
-380,115,262,42,-63,154,107,67,61,13
-447,124,231,-27,-171,337,148,23,13,-42
-134,145,131,-95,-231,524,207,27,20,57
391,90,23,-183,-223,526,182,11,29,193
771,-10,-62,-200,-238,373,164,29,7,201
743,-5,-37,-135,-223,155,96,-14,-32,182
1237,-16,-59,17,50,-105,-61,-133,-97,163
678,-60,-167,72,264,-296,-163,-204,-201,-105
-72,-11,-177,-17,128,-353,-164,-188,-259,-384
287,217,-117,-112,-120,-457,-197,-170,-215,-202
817,342,-116,-136,-172,-498,-227,-127,-77,239
830,619,197,49,-80,-461,-255,-194,-191,87
491,564,294,249,180,-317,-164,-115,-142,-102
91,32,52,223,231,-174,3,81,67,-111
-375,-220,-127,135,167,-93,83,182,171,-146
-739,-489,-197,38,122,-39,162,285,356,147
-1150,-685,-148,47,112,80,220,314,342,67
-1052,-526,-76,49,115,122,181,272,222,-70
-678,-308,-76,88,201,82,89,138,82,-105
-306,-54,-66,38,76,-12,-33,24,11,-15
162,214,-25,-165,-273,-64,-54,26,53,107
465,262,-16,-205,-366,-51,-42,39,59,162
299,118,-22,-83,-153,-36,-14,21,13,111
167,-55,-45,19,139,-7,16,12,-22,106
338,-112,-31,99,231,27,-32,-63,-89,102
336,-18,16,29,-63,93,28,-20,-51,57
113,92,-24,-113,-347,179,186,184,141,64
-50,234,-63,-45,-206,155,167,184,122,7
98,500,30,83,37,-32,-67,-82,-161,-207
524,683,98,146,331,-189,-237,-287,-383,-339
969,276,-2,149,444,-202,-243,-246,-273,14
724,315,65,59,257,-145,-182,-152,-79,278
162,379,91,45,-2,-33,-126,-158,-169,-84
-214,-126,-98,6,-152,166,28,-84,-167,-317
-223,-869,-418,-190,-260,289,172,51,-4,-127
-253,-888,-505,-281,-224,288,209,91,104,143
-226,-171,-234,-242,-265,269,271,84,103,133
192,145,-50,-46,-99,185,223,29,55,76
583,134,-43,159,409,-100,-67,-140,4,214
494,-110,-253,222,698,-265,-282,-240,-68,261
-56,288,-63,226,511,-247,-325,-275,-192,36
-809,590,237,187,166,-136,-162,-98,-14,35
-873,247,186,173,112,37,53,113,120,-8
-14,279,424,37,-10,-32,11,23,9,-163
-59,-149,548,-131,-290,-88,18,10,28,-125
-230,-287,382,-162,-369,-55,24,53,118,8
-271,-193,98,-97,-157,24,22,65,128,-54
274,181,159,-122,-169,-78,-109,-66,-10,-104
1087,802,385,-285,-728,-246,-215,-177,-88,135
1755,1141,359,-235,-831,-276,-209,-201,-79,380
2051,1045,213,56,-262,-274,-289,-389,-318,231
1433,463,-77,269,358,-155,-300,-501,-559,-162
879,-61,-453,112,427,-59,-166,-328,-378,69
141,-598,-638,-185,191,133,189,42,32,405
-829,-812,-570,-177,162,301,507,355,346,219
-2245,-885,-187,228,539,369,557,440,369,-286
-2997,-925,206,397,750,249,330,314,206,-559
-2313,-1085,214,258,472,175,197,259,141,-531
-1504,-979,22,184,313,160,160,248,114,-451
-923,-849,-225,69,206,139,123,239,150,-238
-560,-703,-328,8,119,59,69,209,192,-3
-417,-300,-193,36,67,-31,-20,141,151,78
-365,241,25,37,15,-91,-86,72,87,104
-248,366,62,-6,-31,-92,-75,42,31,118
-2,439,183,36,-63,-97,-101,-17,-25,113
122,474,319,81,-78,-131,-115,-69,-25,181
90,486,380,90,-34,-101,-75,-80,-81,68
102,293,73,-16,-46,-59,-40,-50,-118,-113
855,233,-106,-111,-102,-50,-60,-35,-79,-145
709,-12,-69,-39,-73,-27,-51,-26,-54,-90
469,-108,-50,0,-71,-2,-31,-34,-29,21
456,74,-142,-38,-107,5,-30,-66,-61,25
233,238,-179,-26,-89,44,12,-51,-83,-92
404,372,69,-4,-121,27,25,-60,-53,1
472,366,344,-27,-190,-47,-28,-97,-41,131
158,-62,141,-83,-175,-33,25,-15,92,267
-171,-478,-142,-37,-43,86,151,103,155,144
366,-131,-28,-8,-6,33,72,10,20,-32
1220,-66,-176,-45,18,7,27,-3,-6,3
1430,-134,-485,-96,37,55,70,93,102,128
922,45,-515,-63,42,45,64,92,95,181
-266,219,-230,19,56,28,17,16,-30,-3
-846,-63,-179,-37,-30,-22,-49,-51,-87,-115
-783,-232,-270,-93,-90,-8,-50,-30,-43,-55
-813,-246,20,-38,-72,56,-28,8,-5,74
-995,-52,578,64,-40,150,-12,-6,-10,12
-935,10,633,55,-52,197,-16,-28,-36,-114
-492,-181,242,-20,-33,192,34,2,-47,-70
-170,-217,-33,-82,-82,74,40,1,-51,26
-78,-121,-66,-115,-149,-28,15,-39,-77,-2
-139,-90,-142,-140,-206,-90,-6,-35,-74,-36
-214,-83,-90,-119,-249,-100,3,19,3,-25
44,-182,49,-69,-174,-88,5,38,40,44
302,-156,105,11,29,-91,-13,-1,35,53
565,21,133,35,54,-120,-35,-40,-21,22
754,159,5,-3,-40,-156,-54,-54,-78,73
438,478,142,34,54,-190,-95,-81,-110,49
335,726,219,25,46,-218,-130,-124,-107,40
169,685,104,6,9,-177,-114,-113,-53,123
133,638,27,6,-4,-106,-66,-103,-111,41
-135,555,35,61,47,-34,-9,-97,-159,-212
-478,107,0,43,42,17,33,-6,-23,-168
-124,-336,-72,-92,-124,-29,-11,24,109,222
493,-488,-202,-239,-371,-67,-31,63,227,556
855,-48,-56,-195,-457,-34,34,125,244,487
633,375,334,75,-163,28,48,48,29,83
560,465,369,144,233,-44,-92,-96,-113,-38
126,384,287,133,456,-24,-89,-69,-52,-190
-197,268,285,64,295,88,43,9,-57,-511
246,222,188,-110,-138,160,156,114,32,-276
-86,39,49,-183,-463,226,222,203,153,-11
-580,-463,-74,-184,-687,300,311,306,243,133
-435,-391,81,-231,-835,243,245,241,129,-5
37,-168,66,-151,-594,183,96,73,-26,-134
561,163,6,71,90,-4,-126,-165,-248,-282
1074,356,-109,-37,702,-248,-307,-339,-414,-308
966,231,-235,159,1306,-283,-421,-483,-576,-488
543,349,-4,380,1031,-255,-400,-464,-489,-334
308,397,201,357,283,-256,-241,-252,-93,226
-546,-461,-120,186,36,-94,20,80,238,342
-1479,-1018,-386,37,53,126,210,291,292,73
-1629,-859,-263,15,63,207,280,347,315,67
-877,-668,-256,-42,83,165,240,292,333,304
-344,-499,-208,30,274,162,181,211,276,341
-172,-290,-66,162,440,174,144,145,162,95
-341,-320,-57,107,256,144,116,140,152,-26
-593,-366,-151,15,96,130,123,172,167,-12
-606,-173,-183,-23,19,96,92,124,113,-38
-256,196,-124,-55,-99,7,-10,-2,9,-80
701,788,86,-190,-380,-201,-188,-153,-52,96
1533,964,197,-217,-468,-285,-254,-218,-73,216
1625,512,146,-149,-414,-162,-155,-140,-26,326
1067,-194,-57,-92,-248,-25,-15,1,107,404
33,-723,-190,23,154,103,92,96,141,135
-920,-704,-172,187,460,201,152,92,56,-334
-1518,-486,-241,124,308,227,183,107,48,-534
-1106,-204,-445,-15,157,148,110,46,-8,-527
-21,179,-564,-35,157,79,54,-10,-27,-237
-76,222,-302,86,226,119,111,43,53,35
-391,-7,-36,57,23,154,140,128,140,157
-377,-224,-30,-82,-236,130,100,100,99,71
-486,45,244,-80,-379,65,23,26,-9,-87
-236,578,858,-94,-626,-118,-89,-67,-101,-90
75,734,732,-73,-470,-211,-158,-137,-142,-26
182,619,203,47,119,-160,-200,-160,-102,71
225,482,137,295,546,-94,-217,-206,-122,4
7,68,210,288,441,33,-51,-76,-105,-112
-218,-458,92,-10,100,88,120,80,-31,-161
31,-658,-197,-108,41,43,99,54,-34,-161
-9,-448,-361,-48,93,-96,-88,-122,-180,-310
286,112,-28,-68,-31,-192,-238,-247,-318,-400
921,484,286,-154,-199,-235,-295,-268,-291,-147
809,377,252,-130,-123,-113,-122,-124,-154,0
145,-167,15,-29,-23,106,135,111,87,158
-557,-642,-99,78,90,187,222,231,255,247
-565,-608,-176,91,127,88,133,151,196,210
-257,-404,-196,-2,34,-29,61,92,142,261
-106,-174,-66,-4,-28,-80,-15,22,45,184
-56,-97,63,7,-28,-66,-57,-29,-48,54
-34,-26,57,3,-20,-40,-39,-12,-40,43
221,59,73,-9,-30,-22,-17,-13,-24,90
702,64,50,-59,-80,-46,-37,-20,19,193
654,6,-57,-48,-43,-25,-10,18,88,204
120,117,-152,17,45,32,54,60,102,73
441,406,-251,-59,-24,10,31,38,101,111
794,665,-313,-152,-83,20,22,-8,84,161
258,563,-182,-62,8,140,109,-8,19,-125
-156,155,-26,-12,-15,106,101,-7,12,-191
-30,-43,135,-64,-160,-17,32,0,67,38
-271,-119,334,-21,-160,-30,5,-3,55,68
-237,-196,401,61,-58,7,-24,-50,-71,-64
-214,-96,340,86,27,4,-59,-91,-139,-158
-360,-48,194,92,136,-1,-32,-70,-82,-157
-250,-39,93,91,144,1,-5,-3,5,-70
-244,10,68,102,91,84,90,94,62,-98
-397,-81,-69,86,96,91,90,109,34,-162
-442,-149,-211,60,73,34,3,61,-24,-123
-101,60,-1,48,-16,-16,-65,-19,-59,-2
-153,85,151,51,-46,-78,-73,-81,-119,-29
-238,-31,12,43,-23,-5,-10,-124,-193,-148
-65,187,-3,-47,-83,220,35,-134,-198,-116
384,473,4,-186,-188,360,26,-122,-125,37
1168,593,-125,-250,-201,295,-25,-124,-120,201
1200,697,24,-108,-104,136,-100,-177,-221,14
159,161,95,-18,-51,-11,-97,-167,-230,-201
-745,-524,-53,-67,-82,-145,-86,-47,-30,-98
-594,-614,-225,-131,-126,-266,-95,43,67,11
-400,-647,-320,-123,-70,-223,-17,163,160,73
-194,-582,-282,-41,70,-147,11,212,230,246
56,-509,-308,56,202,-102,-14,145,183,267
390,-324,-250,154,205,-93,-45,31,20,-21
788,12,-73,165,131,-141,-58,-38,-104,-263
946,138,-129,81,92,-147,-35,-16,-110,-355
870,664,-48,12,-38,-205,-75,-7,9,-34
389,1213,290,50,-166,-254,-139,-23,111,355
-631,555,271,118,-61,-56,46,135,242,436
-1093,-80,144,22,-113,7,99,154,223,208
-990,-289,216,-40,-229,-21,48,70,67,-94
-781,-501,210,-4,-121,39,102,120,123,-77
-702,-374,163,42,45,81,138,143,182,-10
-574,65,140,48,57,37,63,61,76,-39
-340,222,125,56,-9,-16,-2,14,18,74
-117,157,65,34,2,-35,7,10,13,180
-193,82,96,13,-2,-6,-16,-22,-1,150
-428,-61,89,-4,-97,7,-47,-49,-62,50
-380,-205,-56,-135,-280,-12,1,8,10,44
-164,-97,26,-146,-182,6,35,8,19,-30
459,166,245,-45,51,29,-6,-59,-72,-22
1394,169,142,-32,53,83,15,4,-20,169
1500,164,48,-46,-277,124,45,29,-40,73
1591,292,-45,-45,-464,0,-94,-142,-234,-223
1265,196,-278,13,-203,-112,-225,-280,-402,-346
953,246,-290,26,169,-57,-130,-164,-206,37
348,0,-296,19,374,25,-23,-36,-17,272
-70,-252,-288,30,331,44,5,-16,-3,214
177,-414,55,75,187,-32,-36,-41,-58,136
344,-535,236,41,6,-29,-24,31,29,199
-97,-345,218,-25,-127,46,68,124,131,240
-692,-115,187,14,-41,54,63,58,21,-56
-843,63,200,54,120,5,-22,-93,-227,-500
-603,107,115,129,387,-5,-124,-221,-372,-658
-137,97,-5,57,354,-66,-170,-226,-279,-357
-187,-161,-194,-70,17,19,45,84,131,193
-309,-98,-232,-48,-22,62,175,264,325,267
24,357,-7,15,56,-104,0,69,149,212
521,721,217,147,213,-154,-104,-104,-43,71
590,822,303,188,242,-70,-80,-123,-142,-130
106,303,116,48,87,-55,-64,-93,-123,-119
-178,-242,-164,-64,-21,-89,-72,-75,-44,-29
-424,-535,-336,0,90,78,100,83,140,2
-207,-404,-482,0,105,117,141,127,174,58
-550,-328,-398,113,186,203,223,202,241,132
-1046,-437,-492,139,261,306,332,309,320,48
-993,-530,-779,-30,208,312,374,348,315,-115
-762,-449,-523,-98,79,247,321,280,252,-157
-592,114,408,-44,-184,7,25,-17,-7,-235
-565,18,799,-39,-344,-116,-135,-113,-57,-117
-352,-311,577,-86,-358,-93,-128,-66,-47,1
-138,-256,220,-134,-236,-76,-96,-30,-20,144
221,-13,113,-113,-35,-136,-156,-101,-62,322
548,188,111,-62,66,-196,-210,-159,-103,351
380,196,51,-37,-11,-144,-149,-115,-104,91
96,185,46,18,-6,-8,-11,-30,-101,-186
84,24,-24,-31,-26,80,116,17,-71,-98
-327,-265,-205,-105,-34,221,303,38,-50,-155
-451,-200,-241,-92,-28,246,320,1,-66,-143
-390,-68,-51,-7,9,233,221,-34,-74,-211
-112,-414,-189,-9,48,279,155,68,29,-171
53,-654,-410,-49,62,251,72,127,119,-22
8,-550,-347,44,143,196,3,95,90,-19
282,-176,-185,105,138,83,-74,31,17,-1
491,212,-188,28,40,-49,-157,-14,7,43
541,677,-262,26,30,-118,-173,16,85,159
560,846,-296,1,12,-130,-131,64,163,290
396,936,264,-2,-124,-259,-221,-91,22,155
358,1130,939,-4,-271,-455,-430,-339,-204,-45
417,642,709,3,-234,-399,-398,-276,-131,71
662,252,347,87,-52,-163,-155,-56,52,159
41,45,136,110,33,-45,-16,0,45,31
-818,-278,-133,66,55,22,78,40,52,-20
-1039,-627,-237,63,119,173,236,180,152,6
-187,-648,-307,17,73,191,255,220,184,21
81,-606,-342,-91,-56,80,142,133,133,7
-170,-390,-119,-48,-62,89,123,85,86,-62
-37,-26,221,-28,-146,112,58,10,11,-75
159,27,325,-58,-275,210,51,6,-23,-81
318,18,316,-121,-322,220,72,13,-38,-63
381,223,381,-199,-361,53,4,-54,-121,-105
321,387,381,-251,-506,-126,-83,-91,-190,-159
399,322,131,-270,-548,-202,-69,-14,-101,34
150,191,-34,-1,-68,-195,-107,-22,-41,140
-374,123,-21,347,527,-186,-181,-137,-136,-89
-636,-38,-6,344,518,-84,-80,-80,-124,-234
-374,-132,-33,190,313,14,14,0,-63,-196
-229,-271,-78,71,95,37,53,55,22,-57
-172,-467,-90,50,19,28,64,82,85,53
384,-411,-135,-53,-104,-48,16,56,85,196
854,-12,-132,-141,-152,-141,-58,-12,34,280
1249,489,-5,-62,-57,-260,-228,-183,-127,262
1182,649,91,31,39,-299,-300,-293,-238,178
430,433,71,48,86,-181,-159,-189,-151,192
-20,235,-120,12,48,-19,-4,-58,10,324
-278,-56,-285,-32,-49,222,135,44,47,144
-593,-75,-128,-52,-145,366,237,118,37,-293
-516,93,36,-83,-193,284,249,153,80,-349
-187,-114,-170,-215,-214,90,166,124,119,-108
164,-372,-293,-181,-32,-48,23,14,69,7
660,-195,-220,-9,147,-114,-40,-29,71,148
326,-129,-280,79,111,-67,47,48,129,164
-727,-426,-457,77,241,62,169,136,158,-15
-1035,-633,-336,154,454,125,165,97,91,-161
-720,-308,24,206,362,51,71,28,49,-92
-301,190,299,161,129,-36,8,-34,-43,-155
-61,185,318,141,45,-66,-10,-58,-109,-261
-76,31,279,118,84,-34,2,-17,-67,-182
-180,88,273,76,180,-57,-78,-46,-85,-109
-195,161,180,94,128,-60,-120,-81,-125,-206
143,415,270,41,-77,-106,-158,-109,-77,4
108,357,267,-81,-284,-141,-163,-110,-21,208
-354,-10,175,-71,-248,-68,-132,-116,-119,-105
29,103,145,-87,-296,10,-110,-115,-177,-299
414,414,263,-142,-432,106,3,-22,-72,-134
103,142,186,-201,-383,157,121,129,102,157
-213,-209,-25,-359,-373,88,206,265,258,216
-225,-445,-220,-367,-352,106,246,305,260,68
-8,-512,-241,-2,94,152,146,169,148,44
179,-488,-325,303,547,103,-1,-15,-6,-6
440,-22,-319,193,319,-4,-75,-97,-88,30
853,480,-138,93,353,-72,-127,-144,-108,111
853,420,-97,198,610,-130,-184,-161,-68,301
173,232,-206,66,441,-53,-89,-42,26,357
-364,731,-109,-37,79,-58,-79,-80,-73,86
-726,817,57,43,-16,-142,-191,-222,-228,-197
-528,156,36,-56,-146,-122,-137,-148,-133,-162
-249,-86,411,0,-167,-18,22,-3,-10,-162
-398,-154,658,135,-149,-20,25,-28,-23,-248
316,-344,234,-14,-208,-20,20,26,103,-6
1465,38,-3,-141,-211,-98,-78,-29,55,97
1790,528,85,-69,-32,-171,-195,-199,-148,-36
1416,531,154,28,113,-129,-172,-198,-178,-42
443,226,29,-78,-28,-65,-52,-36,34,247
-781,-451,-109,-53,-24,48,118,148,244,366
-1182,-874,-195,112,332,55,79,114,216,275
-990,-858,-305,96,321,39,44,94,222,289
-886,-469,-142,83,64,111,119,120,213,95
-821,-114,-10,55,-117,166,185,148,211,-2
-515,-14,-102,-42,-180,236,282,231,257,-10
-600,-145,-217,-48,-38,274,355,274,245,-145
-682,-92,-205,-40,176,266,336,161,74,-338
-336,-201,-185,2,312,178,221,-30,-122,-428
370,-123,-149,-50,181,-3,-24,-232,-306,-426
1160,484,167,-162,-185,-229,-328,-460,-504,-402
1259,783,405,-90,-251,-293,-411,-443,-437,-112
871,384,180,-70,-201,-202,-213,-133,46,567
-433,-228,52,61,-9,57,79,165,297,441
-960,-534,-90,134,135,181,154,215,184,-76
-648,-569,-242,-5,53,135,114,243,207,5
-855,-390,-126,-61,-56,98,105,241,201,-11
-626,-165,-50,-167,-325,40,51,167,164,109
-172,-131,-70,-241,-466,10,-42,81,125,302
-73,-197,-70,-160,-324,55,-60,26,50,221
60,-180,14,-33,-138,105,4,25,-27,-31
83,-253,8,84,64,152,70,80,42,-52
-16,-361,-137,232,429,179,91,84,61,-94
65,-273,-268,278,723,64,-22,-27,-52,-130
295,57,-362,133,524,-33,-74,-42,-33,79
176,224,-582,6,258,31,26,56,89,240
-89,340,-511,-25,108,166,61,62,67,69
91,394,84,54,35,144,-71,-55,-59,-73
391,262,584,136,-14,29,-135,-117,-104,-130
283,297,569,109,-63,-80,-126,-134,-134,-232
128,264,379,46,-111,-167,-160,-190,-217,-319
94,35,113,-14,-134,-205,-145,-201,-225,-300
-86,-192,-194,-19,-70,-167,-41,-121,-133,-209
-181,-260,-314,-29,-22,-140,12,-71,-52,-32
-599,-568,-505,-85,-5,-60,84,24,81,176
-701,-530,-471,-18,47,3,115,74,128,216
-126,-518,-364,-2,41,36,117,116,150,250
709,-167,71,84,24,25,108,113,104,243
1127,589,531,146,-22,-57,35,11,-28,76
963,888,485,100,-72,-97,-31,-29,-52,-30
536,912,384,83,-41,-34,-10,14,-29,-84
146,605,177,1,-27,-19,11,7,-56,-154
-1,481,4,-88,-35,-4,19,11,-48,-163
-434,370,-73,-133,-127,32,56,68,25,-58
-484,5,2,-187,-348,-29,16,74,44,83
-140,45,621,-127,-533,-245,-213,-105,-118,97
-20,-165,766,7,-260,-249,-290,-182,-183,53
-42,-520,423,38,15,-106,-138,-43,-86,-31
341,-498,153,-53,1,-17,-25,43,-18,-75
418,-259,17,-64,-102,45,9,27,-40,-80
125,-22,-83,-123,-239,24,5,-32,-100,-58
-131,78,-73,-250,-426,-61,-4,-40,-82,54
-161,-30,-94,-217,-303,-27,51,27,-45,98
8,92,0,69,220,28,6,-10,-135,-82
-6,72,-32,317,715,0,-114,-130,-208,-236
-49,-112,-24,318,555,-3,-85,-81,-98,-123
-6,-99,-28,115,157,10,3,48,118,186
-445,-241,-144,54,98,108,124,163,207,99
-763,-285,-51,87,120,144,127,151,133,-108
-374,-80,-7,63,25,51,0,28,30,-25
126,150,-79,-73,-167,-53,-99,-52,-23,145
303,53,-187,-171,-296,-61,-43,4,62,277
-20,-95,-110,-29,-162,72,97,104,115,44
-511,-143,95,143,79,207,186,142,94,-305
-453,39,70,100,130,178,182,132,107,-271
16,375,-165,-39,84,82,109,88,110,-63
435,478,-193,7,296,13,-31,-58,-41,-99
984,494,96,-5,220,-74,-141,-189,-207,-178
1325,455,232,-137,-174,-108,-156,-195,-236,-144
1398,675,498,-132,-399,-176,-218,-243,-291,-122
1150,522,415,-279,-726,-258,-218,-208,-195,89
622,274,70,-366,-886,-153,-92,-77,-35,169
153,255,157,-168,-625,54,29,-24,-53,-76
-485,-70,167,-55,-236,170,129,49,19,-107
-934,-359,-18,-133,72,204,245,200,184,49
-1183,-644,-168,24,612,242,313,317,383,364
-1306,-595,-51,457,1079,80,80,81,105,-23
-715,-737,-195,464,906,12,-31,-45,-83,-262
-431,-646,-258,232,452,67,27,39,-19,-173
-561,-398,-180,101,131,32,26,47,9,-104
-294,-267,-153,14,-48,-41,-6,29,53,73
-108,-216,-214,-9,-10,-53,-5,39,101,169
31,-206,-172,-25,48,-61,-17,21,56,149
136,-144,-208,-106,-27,-88,-50,-4,13,158
-11,6,-147,-148,-118,-66,-41,-10,-1,91
-293,141,57,-79,-115,-40,-25,-32,-38,-25
-275,298,165,-62,-186,-14,9,-21,-31,-35
196,412,148,-105,-341,13,10,14,60,184
463,318,96,-13,-272,27,8,18,68,234
827,165,30,64,-170,55,-5,-24,-32,22
779,183,0,-64,-309,-7,-7,-26,-32,36
486,210,40,-46,-191,-19,23,7,7,70
-16,-76,13,152,377,70,64,35,-13,-178
-213,-326,-111,160,492,41,35,12,-27,-202
-468,-468,-312,4,152,-45,12,5,19,35
-148,-248,-309,0,84,-17,-56,-82,-59,-14
284,19,-136,150,287,15,-149,-226,-205,-206
99,-97,-78,128,252,51,-120,-186,-187,-183
-11,-208,-197,-77,-68,-41,-61,-47,59,284
33,55,-151,-139,-321,-122,11,19,196,483
152,321,-1,-125,-333,49,120,54,226,453
-13,361,196,-74,-121,327,263,157,280,273
-596,148,338,62,149,511,337,153,82,-305
-434,-251,103,116,311,378,210,88,-62,-375
-142,-490,-119,125,307,140,48,15,-87,-290
-324,-448,-95,90,144,-51,-47,-30,-91,-277
-392,-161,-17,-3,4,-138,-60,-14,-64,-187
-311,25,-7,-37,-25,-171,-39,25,-9,-115
-230,74,44,-10,22,-153,-42,46,23,-89
-191,18,56,12,87,-126,-23,57,34,-86
-218,-43,92,6,-1,-129,1,82,51,-72
-15,14,103,27,-83,-169,-57,51,25,-51
233,30,19,106,50,-223,-126,-38,-39,-1
551,-205,-168,126,178,-226,-178,-107,-76,99
822,-160,-190,81,122,-148,-108,-64,-29,170
954,232,-62,91,49,-62,-27,-3,10,180
802,672,-154,96,75,7,34,57,60,235
730,866,-476,-33,29,31,72,121,161,445
564,1563,18,-64,-100,-81,-41,22,84,405
529,1757,714,-14,-220,-253,-259,-202,-150,94
114,156,666,-31,-219,-228,-269,-209,-199,-18
-561,-715,402,-12,-122,-98,-122,-93,-81,-28
-1078,-659,224,3,-47,4,-7,-10,-57,-244
-1079,-537,-1,-51,-80,5,-5,-5,-77,-352
-567,-586,-107,-46,-50,33,44,42,-29,-239
-53,-540,-87,-46,-39,48,75,63,-4,-147
-89,-363,-47,-26,-36,79,88,72,45,-119
-295,-436,-193,-3,-35,120,116,88,79,-146
-426,-552,-177,-48,-88,129,122,97,106,-90
-479,-468,-149,-102,-148,98,96,81,105,-75
-252,-96,-146,-56,-97,36,14,-17,4,-127
261,363,-152,1,2,-3,-26,-90,-82,-113
630,643,-33,36,72,-59,-105,-156,-154,-52
495,366,-106,-35,5,-75,-104,-120,-88,135
-113,-139,-333,21,67,77,89,56,4,44
-58,-10,-320,26,94,79,81,49,-16,11
427,167,-15,21,87,17,-20,-21,-78,-12
620,493,640,91,22,-24,-64,-94,-183,-198
396,350,603,67,-38,-33,-35,-55,-106,-80
164,-97,229,-38,-78,-8,-1,52,98,228
-244,-209,90,-39,-44,40,-3,51,96,157
-357,-27,83,-46,-92,13,-13,-13,12,21
29,155,46,-88,-174,-61,-58,-61,-28,161
203,-42,-103,-124,-127,-76,-35,-31,-2,221
-197,-224,10,-73,11,-1,92,59,37,56
-471,-100,146,-2,97,99,98,42,-27,-179
-351,185,106,-27,17,158,60,3,-46,-132
178,458,77,-119,-146,90,-12,-38,-3,194
347,318,34,-119,-142,30,-24,-23,63,307
-31,34,57,-18,-32,100,39,14,32,50
-342,-226,36,-3,-68,159,122,40,-26,-170
-330,-500,-137,-124,-223,124,168,113,86,-61
-284,-376,-133,-90,-117,76,123,100,112,-19
-276,6,-12,56,118,-3,6,-9,0,-133
214,239,-33,-3,172,-141,-98,-93,-35,-1
912,293,-96,-158,0,-251,-144,-104,14,242
426,-119,-127,-71,-46,-140,23,41,92,130
-285,-403,-113,68,-1,7,173,136,100,-91
-300,-280,-40,47,-48,-17,107,65,29,-106
-136,-147,-3,6,-63,-46,4,-15,-42,-60
69,-113,-7,106,46,-22,-92,-103,-95,-76
274,8,29,121,-74,-3,-132,-125,-116,-79
45,82,78,0,-332,17,-31,1,-10,78
35,-72,40,-69,-315,40,79,103,64,124
35,-140,-5,-47,-127,42,87,57,8,14
-252,-119,-11,-13,142,58,46,-5,-50,-61
-307,-80,-18,90,334,38,-3,-68,-101,-104
287,-60,-76,31,381,-14,-43,-67,-58,113
893,-33,-101,-4,396,-67,-77,-57,-40,181
1206,288,26,42,244,-139,-125,-114,-112,106
1456,548,74,-25,-133,-246,-202,-166,-105,256
1363,419,-24,-150,-417,-298,-259,-153,-30,452
514,59,-157,-212,-372,-172,-115,11,87,368
-639,-145,-83,-70,-18,91,88,158,141,27
-1144,-120,94,175,383,281,140,105,-26,-413
-1170,-225,52,234,509,292,114,61,-101,-543
-933,-243,-16,117,244,223,102,53,-40,-393
-700,-165,-88,17,20,119,54,11,-8,-238
-515,-178,-168,-104,-128,65,44,19,31,-60
-307,-222,-170,-157,-138,12,74,59,98,30
-93,-187,-136,-6,182,-2,50,8,32,-121
-106,-188,-216,53,319,33,124,-20,18,-182
-61,-133,-176,-13,128,145,251,18,55,-101
-182,-149,-72,8,-19,183,272,46,66,-37
-456,-130,-61,-2,-78,110,173,17,35,-60
-404,9,-20,46,-25,15,24,-68,-32,-123
4,305,85,150,62,-70,-110,-154,-105,-149
634,680,209,186,45,-164,-203,-227,-213,-185
1040,718,123,133,25,-220,-215,-191,-185,-94
735,328,33,159,258,-136,-136,-45,-26,77
342,-165,-35,108,272,-36,-73,92,214,428
-215,-324,-64,88,144,155,1,111,179,228
-286,-261,-182,43,85,260,91,152,161,119
-105,-76,-404,5,136,196,126,186,212,260
-23,387,-312,-26,70,35,52,67,61,139
179,667,174,-80,-172,-171,-59,-181,-218,-123
380,316,471,-124,-392,-342,-104,-277,-292,-90
422,-16,394,-81,-299,-315,-90,-191,-134,196
72,-90,320,5,-80,-91,-11,-30,43,269
-739,-112,217,5,-33,-19,35,91,111,61
-1302,22,158,7,-45,-28,42,141,121,-99
-1303,290,191,-1,-89,-52,56,141,77,-162
-856,185,70,-52,-13,-72,49,96,17,-117
482,-184,-244,-118,109,-112,-74,-57,-90,91
1761,-228,-388,-105,105,-242,-280,-253,-220,453
2371,-316,-375,9,2,-199,-260,-230,-222,476
1509,-784,-546,72,93,8,17,60,67,325
286,-638,-700,105,228,192,269,364,467,295
-141,-116,-735,135,288,249,286,367,425,101
-408,109,-578,150,249,215,220,295,328,95
-716,494,96,157,61,-14,-4,82,129,-55
-870,579,736,92,-134,-211,-178,-134,-103,-271
-955,246,787,83,-159,-204,-209,-192,-157,-320
-743,-239,579,106,-47,-26,-78,-37,23,-153
-258,-379,365,89,2,69,36,72,140,-94
89,-147,410,24,-107,7,-22,6,94,-65
367,42,152,-74,-155,-43,-62,-33,27,-38
324,184,-40,-93,-155,-17,-6,-18,10,-1
-83,416,243,-73,-278,-40,-23,-20,-5,32
-371,369,357,-63,-302,-40,-23,-9,-24,-2
-405,-130,114,7,-59,9,-20,7,-19,-35
-319,-169,157,74,42,-4,-54,-32,-96,-194
-149,0,252,32,-99,-44,-103,-91,-197,-265
233,224,105,-19,-74,-86,-149,-158,-252,-203
680,306,-119,-111,-7,-96,-123,-133,-188,-46
535,97,-353,-109,47,-15,-23,-37,-92,26
-164,-140,-415,0,117,126,119,82,18,48
-534,-275,-390,74,181,163,137,102,39,-7
-683,-602,-273,96,239,169,139,107,23,-142
-552,-659,-436,-43,141,135,143,123,45,-141
-355,-238,-427,-123,53,67,99,108,89,5
-91,402,26,-125,-63,-47,-1,17,44,124
154,795,522,-89,-188,-167,-137,-117,-74,119
114,436,621,-42,-196,-166,-170,-139,-104,18
-198,-41,507,10,-115,-46,-42,-20,-8,-70
-222,47,331,29,-1,51,44,61,45,-104
307,144,135,2,34,56,28,9,-3,-83
809,164,86,-68,-108,-27,-53,-95,-110,-100
848,179,84,-118,-263,-87,-99,-136,-130,-78
915,288,31,-142,-313,-103,-88,-111,-105,60
1035,245,-10,-174,-300,-92,-65,-80,-42,242
600,52,-81,-143,-226,-37,-64,-77,-61,174
65,-105,-82,-88,-236,22,-31,-36,-5,182
-372,-250,-86,-54,-297,82,30,51,90,177
-898,-485,-119,26,-179,158,124,146,181,-3
-1023,-762,-261,14,137,144,135,166,196,-93
-434,-533,-338,37,474,66,24,67,124,9
340,-27,-322,40,564,-32,-108,-55,-2,105
641,293,-271,74,378,-16,-98,-63,-44,123
413,543,-165,120,173,8,-76,-71,-82,26
387,605,-95,8,-17,-86,-133,-115,-105,-3
-163,218,-131,-88,-101,-78,-81,-44,-10,138
-963,-352,-162,-32,-8,71,81,90,92,67
-792,-296,38,57,-5,157,146,100,-25,-287
56,-137,284,-29,-189,124,133,82,-64,-376
-116,-230,206,-115,-316,63,120,116,-1,-280
49,-298,-73,-154,-327,47,120,147,107,21
537,-256,-147,-144,-220,37,89,136,171,354
64,-208,212,18,-11,25,57,104,116,210
-419,49,566,107,-58,29,17,40,-2,-192
-377,55,452,17,-358,128,52,50,10,-273
-188,53,248,-13,-366,224,55,29,-11,-246
256,281,80,-180,-456,169,64,5,-13,-142
766,484,37,-392,-658,6,52,30,27,48
1060,410,-33,-106,87,-106,-138,-144,-149,-66
1367,398,-61,294,1044,-251,-407,-432,-398,-193
1517,796,191,327,961,-335,-474,-491,-400,1
1039,637,283,240,565,-198,-264,-263,-129,362
215,140,148,201,372,-65,-61,-39,67,338
-572,-316,-29,94,135,-30,46,91,113,88
-874,-525,-134,35,107,21,110,147,103,-116
-1090,-543,-214,79,229,101,149,176,148,-162
-1114,-543,-302,45,243,77,103,144,195,-32
-1084,-635,-295,-54,117,57,98,156,232,121
-1085,-442,-124,12,68,77,103,100,98,-53
-807,-313,-60,18,-18,91,123,87,81,-66
-623,-359,-159,-52,-120,155,216,115,89,-86
-427,-329,-214,-123,-247,128,233,100,69,-130
-246,-146,-125,-87,-178,66,114,5,-39,-202
-100,-94,-104,-11,111,52,10,-27,-55,-159
203,-101,-88,7,248,30,-47,-7,-20,-42
255,-117,-54,9,119,-25,-58,12,4,1
-273,-65,-17,16,48,-43,-47,25,11,-16
-425,7,0,44,76,-61,-60,-7,-23,-75
-105,112,-4,21,24,-135,-113,-53,-65,-4
188,188,-61,12,0,-137,-123,-84,-104,-18
384,234,-94,34,73,-98,-91,-80,-98,-70
400,196,-40,43,111,-60,-50,-39,-5,66
355,24,3,11,34,-57,-31,21,128,319
196,-28,17,-7,-74,-7,12,53,144,253
176,12,24,19,-82,22,25,16,53,42
96,-55,5,48,-15,63,46,6,12,-55
46,-1,10,54,21,65,51,4,-3,-72
375,205,67,33,-21,22,22,-16,-1,46
404,193,47,15,-49,-4,-6,-52,6,124
335,-82,-68,6,-29,-4,-23,-34,36,163
177,-276,-149,-3,8,28,20,26,78,70
-92,-263,-192,17,71,137,128,106,87,-97
-103,-12,-375,-2,94,255,128,116,87,-82
-280,263,-410,-32,64,289,87,95,89,-3
-551,447,-114,0,7,129,-23,-11,1,6
-511,151,138,-54,-101,-84,-127,-124,-111,16
99,-165,2,-93,-118,-150,-124,-127,-111,50
680,45,-178,-44,-45,-111,-79,-79,-40,171
1157,399,-64,33,5,-110,-1,-19,31,228
1553,689,248,15,-59,-172,-14,-23,14,152
594,792,519,6,-117,-244,-107,-101,-101,-73
-282,383,572,14,-124,-244,-152,-130,-170,-201
-270,-427,260,-8,-43,-106,-45,-8,-86,-78
317,-423,-10,-46,-32,-97,-24,2,-80,-73
330,173,-61,-51,-79,-148,-59,-63,-137,-136
-91,354,2,-28,-97,-96,-15,-18,-77,-70
-279,116,121,-18,-128,-26,49,73,72,93
-555,-313,272,20,-122,38,86,86,37,-113
-435,-671,63,-20,-78,79,111,86,8,-169
211,-560,-175,-24,81,85,108,116,117,172
627,-61,-231,44,227,35,18,36,87,362
270,207,-228,75,143,55,59,73,114,414
31,276,-193,21,-50,55,70,91,135,392
-191,262,-4,-38,-179,-46,-53,-8,42,140
-902,195,195,-29,-124,-75,-114,-71,-46,-40
-1183,-46,220,-111,-171,-120,-144,-80,-41,47
-782,-328,318,-74,-228,-16,-66,-13,-19,-65
-541,-390,128,19,-209,154,118,125,38,-279
-309,-296,-85,-64,-425,199,260,232,107,-318
41,-257,-93,-160,-431,133,248,213,132,-155
475,28,-85,-29,-36,14,89,59,56,5
748,380,-19,176,448,-91,-133,-166,-120,-48
871,749,243,240,522,-133,-223,-277,-227,-73
1063,909,267,167,328,-169,-208,-258,-215,5
870,441,-35,30,171,-109,-106,-142,-87,134
-84,-68,-55,-10,91,20,30,-8,34,67
-1086,-515,110,69,137,130,133,91,67,-235
-1568,-687,404,64,120,91,92,70,-1,-408
-1084,-619,363,-97,-81,-20,32,50,-42,-293
-463,-350,29,-136,-121,-47,-7,8,-66,-167
-31,-28,-49,-83,-144,-50,-51,-44,-108,-93
465,85,-127,-164,-309,-101,-56,-17,-27,131
553,158,-49,-91,-249,-8,14,27,8,182
347,96,102,93,-12,94,45,-14,-69,37
225,3,48,12,-71,78,33,0,-33,79
7,-125,-62,-214,-346,78,129,151,178,219
-487,-362,-112,-154,-297,126,174,216,234,74
-821,-346,-129,172,188,172,86,111,84,-174
-494,-63,-51,206,311,97,-9,22,16,-58
-241,142,91,130,108,54,-42,-15,7,29
-162,246,200,123,146,32,-101,-83,-68,-100
-73,216,199,159,347,6,-163,-177,-183,-269
177,89,79,78,262,-19,-153,-182,-204,-216
360,159,-79,-92,-173,-79,-128,-136,-153,-97
388,63,-149,-99,-123,-108,-119,-140,-126,-19
543,-26,-123,-104,-69,-111,-60,-80,-41,136
626,-48,-155,-82,-5,-30,34,-42,-22,67
496,-50,-168,-64,85,74,133,-43,-14,20
-40,-158,-191,-63,101,172,239,49,105,166
-374,-272,-137,3,162,171,231,84,130,171
-363,-440,-139,38,182,93,115,54,88,121
70,-356,-150,-26,57,20,40,75,69,124
399,-42,-103,-59,21,-34,5,83,67,121
424,168,-124,-102,-118,-86,-36,58,39,72
156,179,-158,-105,-296,-91,-26,68,65,20
-241,238,-135,-65,-379,-40,4,102,131,-5
-721,84,-134,-56,-334,17,50,153,187,72
-759,-103,-71,-61,-195,10,29,121,124,28
-399,14,56,-5,52,1,-40,29,15,-18
-116,90,117,116,376,-6,-100,-27,-22,31
64,49,146,164,374,-93,-174,-98,-72,63
342,188,273,131,212,-174,-233,-196,-202,-9
793,490,286,-22,-162,-276,-320,-303,-333,-110
1059,882,286,-54,-298,-327,-352,-340,-347,-147
1154,767,219,-44,-229,-219,-200,-156,-67,156
687,182,104,-17,-106,68,88,136,233,290
48,16,107,100,-14,263,219,187,169,-64
-233,210,154,127,-81,178,150,51,-19,-276
-353,114,135,18,-222,55,105,18,-25,-180
-484,-269,9,-51,-155,79,149,96,95,-33
-944,-655,-172,25,82,156,227,178,150,-47
-466,-706,-214,-2,58,128,228,217,212,12
264,-484,-216,-47,-77,63,142,138,118,-22
263,-320,-252,78,130,83,10,-43,-81,-235
331,-175,-261,89,232,71,-54,-92,-108,-235
506,-2,-129,-10,59,24,-40,-32,-40,-61
450,40,85,32,139,24,8,16,45,116
178,-46,7,91,387,77,39,62,120,177
-480,-274,-185,53,413,101,87,124,166,148
-1101,-403,-144,136,334,81,98,118,95,8
-941,-280,-75,77,117,15,25,51,0,-80
-163,8,-238,-79,-89,-8,7,48,-16,-35
-120,308,-232,5,-105,87,54,71,-38,-198
-411,448,88,70,-158,95,44,67,-33,-211
-28,392,283,-7,-242,11,-44,-17,-91,-177
281,312,184,-68,-234,-40,-70,-73,-141,-161
154,102,-15,40,164,-17,-63,-77,-134,-107
-242,-108,-35,148,394,-13,-34,-47,-98,-67
-438,-153,-72,44,186,-9,33,29,34,114
-463,-79,-263,-97,2,0,81,67,56,70
-569,-290,-333,-111,-23,63,133,96,61,-52
-301,-526,-135,-17,19,69,111,66,17,-67
-32,-291,299,66,-4,-83,-28,-45,-61,-13
106,46,571,17,-110,-210,-136,-131,-94,32
131,-41,326,-17,-40,-126,-83,-81,-69,33
35,-94,189,15,43,-47,0,-8,8,34
82,17,161,-18,-10,-44,3,-5,16,35
258,203,128,-46,-40,-42,-8,-20,-5,27
273,308,93,1,-2,-50,-31,-45,-33,42
316,360,18,-33,-39,-79,-59,-68,-19,121
448,414,24,-86,-103,-99,-80,-76,0,201
824,486,94,-125,-168,-158,-131,-98,-11,207
1030,323,32,-154,-170,-130,-121,-76,15,241
595,-125,-81,-60,7,88,33,15,53,132
138,-316,-9,40,93,263,93,47,65,75
-174,-366,12,78,76,314,25,11,31,45
-413,-332,-57,41,37,257,10,39,67,34
-505,-151,-120,-8,-20,148,24,37,49,-5
-560,-156,-156,-56,-61,50,27,-4,-23,-159
-511,-251,-205,-66,-85,-10,32,-20,-47,-230
-241,-120,-220,-49,-73,-64,35,-14,-35,-119
344,254,-139,-31,-41,-129,-18,-52,-77,-116
791,412,-93,-21,4,-168,-99,-123,-124,-141
703,627,181,-29,-54,-232,-177,-178,-114,-83
378,658,251,-62,-83,-212,-178,-147,-77,45
-112,128,-5,-75,-79,-91,-25,16,94,240
-770,-201,-63,17,-50,48,128,173,195,168
-897,-230,4,159,76,112,164,183,121,-93
-536,-212,-40,106,91,55,66,104,74,-121
-68,-212,-79,-5,70,-16,-1,48,46,-33
268,-163,23,-3,37,-40,-42,0,1,86
963,-120,-24,5,6,-48,-63,-10,-8,229
1097,-46,-180,-20,-23,-105,-107,-38,-57,158
823,99,-195,-25,-32,-105,-90,-53,-114,-40
463,220,-80,18,-3,2,-38,-58,-140,-203
17,151,-104,26,51,193,54,39,-9,-51
-486,-12,-127,4,28,307,142,159,173,247
-646,-45,0,-67,-154,243,148,154,181,205
-517,113,115,-124,-282,112,83,81,91,0
-185,90,207,-91,-186,-2,6,18,-2,-88
222,35,313,-77,-215,-55,-16,-13,-12,73
-13,262,324,-120,-371,-80,-36,-1,73,328
-190,164,252,-62,-468,-82,-70,-26,80,224
-370,-74,202,-45,-632,84,74,39,71,-113
-422,-160,127,-278,-1026,222,322,172,131,-159
-305,-211,25,-285,-843,207,374,168,135,-66
-119,-100,31,-30,10,124,212,15,-3,-131
322,-5,-3,230,956,-42,-129,-242,-236,-224
558,86,-135,236,1083,-208,-351,-388,-368,-253
472,355,-137,109,655,-252,-355,-371,-328,-123
342,274,-107,110,540,-231,-251,-260,-179,50
28,37,-104,84,196,-99,-78,-55,2,89
-384,59,6,93,144,-86,-27,32,35,-106
-686,-218,11,198,451,-51,6,105,93,-117
-727,-466,-65,296,626,3,28,96,97,-97
-640,-606,-135,208,353,64,84,157,116,-67
-579,-739,-172,112,196,98,113,188,135,-41
-363,-731,-221,51,177,80,119,135,107,-4
-213,-670,-314,16,185,82,122,115,119,100
-146,-439,-331,38,187,79,79,82,54,63
66,-160,-356,41,167,70,41,49,26,55
305,-16,-477,-15,97,11,-3,46,37,127
380,299,-285,-4,59,-47,-37,-9,-28,72
330,412,14,46,40,-5,0,-2,-37,93
356,425,131,-5,-60,-11,-10,17,52,268
340,574,187,-94,-144,-122,-96,-61,1,262
321,544,316,-102,-145,-136,-120,-154,-102,39
664,719,478,-82,-182,36,-119,-211,-202,-82
1266,563,363,-124,-268,192,-97,-176,-131,170
1188,10,-15,-110,-181,259,29,-34,45,386
484,-34,38,-45,-114,97,12,-51,-19,196
-199,61,287,-110,-246,-195,-126,-180,-116,82
-446,46,262,-168,-332,-339,-203,-220,-103,100
-708,145,179,-99,-234,-278,-115,-158,-112,-56
-885,350,190,-23,-101,-185,-19,-72,-71,-187
-426,306,156,47,22,-116,11,-1,-9,-234
-425,17,97,131,157,-18,71,73,30,-291
-103,-292,-3,13,30,-54,69,103,161,-3
314,-430,-54,-70,-226,-82,52,128,181,48
-260,-422,83,63,-177,15,77,148,136,-94
-544,-436,62,104,-65,8,48,115,98,-118
-339,-402,-100,-40,-112,-82,-15,94,115,-11
-227,-220,-167,-58,15,-70,-20,90,138,81
-67,155,-44,88,283,-82,-89,-23,5,-28
202,357,71,124,219,-103,-129,-93,-131,-184
299,167,78,27,16,-3,-12,21,-63,-133
53,-192,-19,-15,25,199,134,140,74,14
-174,-526,-209,-29,78,324,177,171,137,103
-195,-468,-251,-69,23,305,152,121,63,9
-146,-177,-211,-116,-91,220,158,104,17,-2
-210,136,-110,19,75,128,118,39,-48,-64
-207,367,165,88,90,-74,-31,-70,-88,-11
-167,553,361,-31,-238,-236,-164,-147,-112,41
-125,414,204,-123,-318,-227,-134,-162,-118,63
-20,54,-22,-119,-191,-133,-77,-187,-159,25
-97,-175,-124,-74,18,-14,20,-129,-140,-59
138,-288,-150,-42,156,36,47,-40,-41,-75
234,-368,-122,97,361,53,11,-6,-40,-159
549,-535,-206,177,410,73,17,53,-16,-135
250,-661,-294,147,278,86,58,132,102,-5
-83,-460,-318,99,169,38,49,157,158,53
-51,-217,-483,40,120,22,46,175,188,117
43,-37,-633,-21,91,12,12,149,192,151
21,663,-136,-25,18,-126,-112,-18,34,-24
494,1211,609,16,-124,-328,-285,-225,-156,-103
1142,957,660,-31,-248,-332,-315,-252,-128,85
827,573,495,11,-193,-98,-204,-169,-67,127
286,-110,249,71,-67,180,3,-28,74,255
-23,-489,31,50,-31,279,187,90,154,301
-270,-457,-143,-13,-73,240,236,86,101,109
-305,-492,-266,-29,-103,161,190,49,21,-47
76,-331,-389,-74,-178,40,66,3,-25,9
449,136,-244,-109,-289,-91,-29,-10,-16,147
95,385,-12,-140,-356,-144,-35,-23,-18,129
-292,523,217,-128,-245,-154,-53,-88,-84,15
-16,412,451,-90,3,-158,-69,-122,-141,-47
176,27,407,2,186,-152,-84,-80,-93,-95
-742,-226,244,102,240,-48,-22,40,19,-179
-1389,-296,126,140,221,54,39,115,85,-178
-990,-354,-16,60,115,50,1,69,48,-90
-343,-401,-138,17,115,53,-25,10,-25,-98
158,-288,-167,60,156,40,-51,-20,-52,-63
509,-161,-183,51,98,-15,-63,2,0,112
593,-19,-129,50,65,-11,-63,-6,0,113
363,191,80,85,44,6,-84,-21,-37,-22
66,435,234,69,-67,-32,-108,-69,-78,-92
-101,740,441,25,-278,-130,-202,-183,-144,-12
285,877,351,-106,-440,-159,-224,-167,-71,278
532,705,175,-174,-436,-69,-116,-60,38,336
156,289,40,-101,-261,86,95,87,103,-27
-441,-93,38,-36,-96,151,234,185,118,-304
-430,-109,224,39,25,119,178,134,52,-279
-299,-154,107,147,379,148,56,27,-3,-197
-296,-237,-51,179,504,245,61,-1,11,-88
-255,-118,15,132,293,259,130,33,43,-46
-189,-223,-41,12,40,171,156,58,55,21
-368,-446,-236,-31,2,6,26,-47,-66,-49
-385,-280,-236,-87,-70,-100,-34,-101,-115,-114
-18,146,-101,-162,-297,-131,-14,-83,-88,-24
371,430,36,-35,-219,-80,13,-61,-93,69
998,414,-51,-10,-148,-104,4,-20,-25,296
738,174,-210,-106,-213,-128,35,49,55,408
209,-55,-247,-8,92,-43,59,38,1,207
-141,-323,-213,270,614,-84,-58,-93,-115,41
-209,-419,-227,215,366,-138,-107,-89,-90,37
-246,-273,-183,18,3,-25,21,63,46,-62
-195,-301,-169,-38,-106,95,169,182,128,-200
-88,-358,-77,-52,-85,138,199,157,74,-281
-196,-366,-84,-87,-33,151,164,97,40,-260
-29,-127,-165,-131,-66,78,78,22,-5,-223
506,211,-12,-60,-199,-45,-36,-105,-143,-224
881,288,151,24,-51,-98,-143,-181,-161,-122
220,90,146,42,157,-80,-112,-104,-33,85
-738,-43,63,19,215,-19,-10,21,102,170
-503,-84,3,0,91,50,41,55,104,99
163,72,43,32,-22,52,34,13,26,4
298,270,136,26,-122,38,30,-39,-83,-180
86,-415,-155,-25,-120,112,126,140,202,186
-291,-395,-277,224,459,181,179,173,215,115
-337,38,-403,269,769,202,186,150,160,-44
70,497,-461,84,449,129,125,144,164,-31
332,710,-177,0,99,-34,-29,23,84,-14
106,210,310,77,-8,-113,-125,-101,-52,-128
-78,-103,456,118,5,-91,-151,-128,-96,-118
-272,-151,88,20,-4,-15,-67,-12,44,84
-495,-337,-250,-48,41,77,40,110,156,215
-423,-173,-111,-66,3,52,64,90,99,116
-365,-68,98,-81,-140,6,17,2,-22,-92
-294,-103,86,-63,-193,-5,-25,-45,-85,-82
-63,-91,12,-32,-160,-20,-55,-50,-47,118
115,-33,18,-54,-137,-47,-79,-31,-2,184
141,-161,-18,-60,-42,-25,-26,-5,-19,35
116,13,-14,-22,-31,16,13,-30,-114,-203
301,356,211,-51,-151,-75,-89,-111,-186,-198
786,508,440,-99,-258,-186,-207,-168,-168,59
1060,499,469,-121,-349,-190,-195,-178,-137,203
775,467,375,-111,-341,-81,-44,-112,-55,230
-40,214,272,-8,-114,104,111,2,37,32
-691,126,245,22,-59,143,93,5,18,-68
-1118,-148,105,27,-33,189,64,13,-34,-182
-1205,-551,-216,-16,-27,187,68,72,-13,-242
-841,-644,-403,-52,67,133,66,137,76,-162
-681,-545,-435,-34,193,133,84,162,121,-177
-29,-331,-418,-9,180,86,62,146,125,-52
423,-219,-374,27,104,25,27,134,147,47
161,-61,-60,52,71,-21,8,111,124,-60
85,129,306,77,23,-66,-44,29,39,-140
409,273,313,55,25,-125,-119,-72,-27,-32
407,304,119,-23,-24,-178,-125,-126,-17,157
410,380,133,-83,-129,-260,-184,-180,-38,243
875,400,241,-116,-223,-292,-248,-245,-135,75
1522,413,248,-71,-202,-227,-206,-227,-179,-124
1213,281,220,22,-112,-75,-57,-104,-74,-118
320,59,107,0,-94,20,88,69,143,243
-224,-131,37,-4,-40,72,151,158,220,321
-793,-263,-34,31,40,102,156,139,147,47
-1422,-382,-116,-25,-65,120,171,156,77,-170
-1227,-406,-192,-54,-148,134,170,155,69,-183
-436,-450,-227,-9,-54,152,185,154,92,-10
118,-369,-248,21,61,129,126,118,67,126
419,-28,-323,0,145,68,11,50,5,170
567,267,-449,28,279,49,-36,28,4,198
173,218,-508,51,339,87,1,43,0,79
-26,-7,-304,28,193,63,25,19,-26,38
-113,-206,48,102,138,70,43,3,-85,-131
-185,-56,211,97,65,40,29,-18,-86,-221
-25,243,366,21,-61,-63,-46,-73,-79,-72
257,506,463,-59,-179,-166,-132,-151,-119,8
372,513,334,-130,-240,-199,-153,-167,-136,-13
143,168,301,-91,-198,-139,-85,-101,-75,-12
-130,88,157,-2,-100,-8,14,-20,-37,-76
-307,14,-21,6,-51,124,98,45,12,-122
-289,-228,-114,-30,-51,156,126,71,60,-63
-481,-238,27,-12,-77,128,117,87,122,37
-588,-257,102,-1,-59,128,94,82,109,-4
-225,-161,-48,-8,-100,107,56,21,35,-58
443,174,-40,-76,-351,13,0,-34,-35,-15
1128,445,-114,-219,-677,-105,-67,-79,-83,59
1172,538,-271,-270,-520,-85,-57,-68,-81,35
624,385,-189,-127,-72,19,-6,-19,-32,12
29,-157,-3,121,384,91,15,0,-28,20
-485,-229,292,254,489,35,-55,-71,-85,47
-753,34,493,193,308,-8,-107,-105,-131,-44
-227,33,311,63,139,-79,-111,-64,-86,6
253,169,90,-40,-14,-150,-153,-133,-168,-22
198,14,-30,-14,80,-121,-186,-193,-256,-111
-308,-367,-107,11,198,-89,-138,-91,-124,-106
-301,-617,-197,-72,54,-89,-32,73,57,-54
173,-531,-178,-71,9,-111,-18,106,74,-42
291,-378,-147,-35,141,-69,-36,91,73,82
43,-251,-99,-12,170,0,32,124,109,143
-185,-52,21,40,139,79,96,137,101,12
-212,-92,34,42,66,143,147,136,63,-82
-352,-182,-18,-1,-7,104,106,102,20,-117
-494,-72,-53,-51,-135,21,57,70,-24,-100
-319,47,-64,-101,-227,-15,58,70,10,-11
-77,153,-31,-26,-131,-29,6,10,-29,-16
-11,244,-16,79,41,-28,-63,-65,-99,-68
367,174,32,94,66,-19,-83,-90,-103,75
612,-43,-81,-1,-47,-2,-11,-11,14,308
574,4,-145,-53,-17,-45,-2,1,93,397
196,111,-109,45,162,-33,-20,-35,21,218
-573,-206,-186,122,232,119,116,47,-1,-197
-761,-386,-197,17,80,170,186,137,88,-250
-548,-255,42,-24,-81,111,168,109,81,-207
-181,-133,103,33,-77,45,76,-4,-16,-190
148,-180,-63,94,51,32,18,-70,-75,-133
322,-265,-217,54,79,66,35,-19,-11,50
348,-74,-242,-20,76,14,25,22,92,287
194,154,-228,-58,47,-31,4,32,116,340
96,448,-57,9,91,-126,-109,-49,16,177
82,549,257,45,66,-252,-236,-165,-102,37
-144,369,313,57,38,-212,-176,-139,-141,-186
-237,226,166,42,30,-73,-18,-29,-66,-291
-53,276,157,5,-7,-30,22,15,-28,-214
20,199,138,-6,-37,34,69,49,-15,-201
232,170,60,9,-62,85,62,57,1,-92
227,-48,-78,18,-29,110,72,95,76,83
36,-230,-151,-7,-45,110,123,146,143,149
-119,-187,-204,-4,47,113,134,104,97,86
-325,-174,-37,59,191,240,156,47,-8,-76
-5,-19,205,-25,7,396,150,-44,-112,-205
471,530,164,-161,-216,430,76,-127,-184,-259
688,716,97,-199,-206,239,-69,-178,-191,-153
848,561,130,-162,-194,-46,-198,-217,-185,60
1029,412,128,-202,-339,-268,-262,-240,-188,200
356,-227,-45,-161,-193,-307,-193,-140,-77,271
-263,-548,-87,40,184,-279,-125,-53,5,228
-496,-185,151,195,371,-288,-110,-37,0,22
-884,-224,61,166,310,-173,-1,102,133,-116
-1072,-315,-181,94,233,-47,101,208,196,-240
-567,-261,-105,65,153,-33,92,192,206,-109
-327,-332,91,66,67,-125,-24,97,140,-9
-336,-306,16,-23,-51,-216,-121,26,73,59
-133,-243,-211,-94,-94,-209,-140,16,47,134
98,-222,-217,-43,-39,-135,-141,-5,-21,70
616,-159,-102,-6,6,-89,-137,-14,-50,34
591,-173,-125,16,60,-25,-68,33,11,85
-141,-134,-165,56,92,42,37,96,62,74
-322,218,28,52,8,-42,-37,-11,-34,-22
-326,514,179,-5,-108,-118,-130,-114,-134,-82
-379,333,-121,-106,-92,-38,-28,-14,-30,-11
-183,444,-217,-63,3,62,73,55,41,9
775,705,121,21,-7,43,47,2,-19,-46
1140,185,289,-62,-203,-27,5,-17,-20,-54
614,32,278,-136,-360,-102,-68,-54,-39,-6
136,303,303,-77,-322,-76,-105,-80,-51,12
-118,35,420,23,-270,33,-25,-36,-3,-60
-481,-371,294,36,-197,172,106,81,112,11
-666,-362,193,-23,-145,255,227,206,221,142
-392,-314,63,-109,-213,250,294,254,269,191
-197,-342,-83,-53,-43,204,227,170,185,135
-180,-349,-143,183,407,39,21,-52,-45,-32
-211,-321,-202,176,454,-128,-187,-236,-170,2
-136,-170,-138,-36,132,-127,-201,-205,-119,40
-101,-29,-24,-24,-80,-39,-85,-81,-44,-96
-219,3,43,-11,-243,46,72,73,67,-216
-251,-17,11,-71,-373,69,144,156,145,-112
-194,-30,-93,-90,-372,69,113,142,143,9
-1,35,-173,-17,-208,56,42,53,64,-9
309,257,2,-61,-169,-13,1,-2,0,2
399,343,117,-96,46,-54,-25,-38,-72,15
177,153,43,142,512,8,-57,-125,-199,-123
348,224,-15,203,572,-49,-90,-170,-202,-116
732,475,23,91,334,-99,-56,-123,-145,-74
916,588,117,85,224,-128,-74,-119,-164,2
1093,427,44,3,126,-172,-100,-102,-96,268
818,308,-61,-90,79,-232,-146,-125,-30,490
62,384,80,-47,73,-255,-204,-202,-111,243
-192,66,102,1,10,-91,-79,-85,-77,-19
-525,-388,-20,25,-13,172,195,177,96,-240
-1069,-739,-221,-43,25,264,316,294,157,-345
-881,-741,-325,-135,-48,172,225,222,131,-226
-484,-556,-214,-92,-30,119,115,133,107,-105
-237,-432,-109,83,243,113,59,65,62,-73
29,-409,-120,110,291,87,48,47,56,33
-86,-252,-55,54,75,75,43,37,31,64
-164,25,43,67,3,44,9,-15,-26,-47
-31,87,-23,86,27,30,-44,-67,-60,-95
230,147,1,51,-48,20,-90,-115,-135,-126
500,298,-10,-11,-197,42,-81,-123,-155,-159
712,366,32,-70,-264,86,-37,-73,-75,-65
427,128,-3,-80,-111,136,32,32,90,128
-212,-211,-131,30,161,154,77,82,177,171
-523,-342,-170,92,280,95,72,47,100,0
-341,-370,-170,53,171,104,124,88,112,22
-221,-258,-269,-52,38,84,134,109,140,139
-311,9,-362,-72,94,52,94,75,70,46
-207,243,-217,-28,167,-6,-4,-15,-53,-108
70,429,244,-24,-65,-123,-129,-115,-149,-92
164,290,359,5,-244,-172,-193,-168,-180,-78
157,-42,61,-25,-200,-176,-194,-124,-84,60
-160,-250,-27,-76,-73,-83,-73,25,58,191
-340,-223,77,-26,26,0,-16,54,32,123
-229,-241,84,53,58,29,3,20,-14,100
253,-316,-30,29,-24,-34,-15,9,17,226
328,-224,-149,-22,-65,-104,-48,-4,46,291
259,-96,-283,0,0,-37,-26,-6,-16,148
303,35,-419,69,65,19,2,-21,-69,-17
265,458,-327,38,15,-56,-65,-101,-103,-54
302,432,-160,-22,-69,-96,-84,-95,-69,36
272,363,36,23,-37,-6,5,-18,28,111
379,192,53,14,7,132,186,75,108,115
413,295,153,-18,-13,286,303,85,67,-137
-165,225,217,-32,-26,408,298,99,114,-104
16,-87,485,68,0,362,172,29,52,1
484,205,521,90,-30,133,3,-90,-84,-72
710,517,176,-69,-142,-133,-146,-177,-143,-57
506,395,-118,-142,-192,-265,-185,-183,-97,-54
-35,395,-22,-115,-188,-299,-155,-112,-29,-155
-540,87,377,-54,-163,-301,-116,-34,18,-185
-522,-398,489,63,-44,-220,-40,19,29,-215
-212,-646,384,97,8,-110,39,89,56,-243
-602,-389,214,57,-61,-1,106,170,82,-208
-820,230,193,32,-216,3,47,148,86,-36
-468,325,183,-62,-405,-81,-46,78,59,109
-172,-49,48,-151,-480,-87,-29,69,12,43
-24,-14,19,-73,-183,-87,-44,11,-87,-114
145,201,115,92,362,-109,-138,-91,-163,-100
211,-11,99,105,531,-131,-159,-83,-69,166
-144,-370,-51,90,325,-36,-48,24,23,174
-402,-381,-24,121,211,47,36,62,35,-29
-237,-380,-1,110,167,76,71,96,108,-49
3,-291,15,67,104,61,59,85,131,21
-27,-191,5,30,13,30,10,36,53,33
-111,-222,-28,6,-45,34,29,25,46,66
-129,-144,-14,-14,-90,36,41,5,35,78
-238,-39,-59,-48,-106,8,12,-29,2,52
-371,-42,-132,-32,-32,5,-1,-58,-31,7
-580,-31,-84,-4,12,-16,-44,-89,-48,3
-768,-29,-100,-20,-33,-15,-51,-64,-29,17
-372,94,-117,-5,2,10,-36,-34,27,88
554,363,-117,2,2,-21,-44,-60,22,224
1278,515,-55,-54,-106,-74,-86,-102,-20,414
1554,513,-146,-134,-163,-125,-159,-156,-93,447
1142,443,-166,-159,-146,-112,-138,-139,-65,357
109,308,102,-14,-107,41,45,17,55,-4
-509,-68,151,41,-160,160,194,151,151,-220
-500,-427,-47,-7,-103,205,229,203,199,-146
-791,-581,-128,43,43,234,248,208,143,-246
-917,-527,-105,68,131,207,211,172,93,-245
-606,-352,-125,-17,58,88,125,105,83,-84
-300,-208,-178,-148,-150,15,78,57,58,39
-69,-89,-104,-129,-398,-7,-14,-31,-59,4
289,80,121,-104,-548,-4,-45,-44,-99,23
966,237,306,-143,-571,25,33,72,-6,143
1242,262,275,-69,-201,53,60,120,29,136
772,191,198,176,416,138,81,101,11,94
-131,112,98,371,848,92,-65,-53,-154,-76
-94,87,-82,337,698,-87,-236,-242,-336,-288
394,197,-140,94,329,-178,-250,-249,-327,-224
441,199,-158,-26,262,-152,-170,-139,-190,-70
243,241,-89,49,302,-111,-104,-120,-153,-93
12,452,112,135,191,-100,-147,-174,-225,-248
-60,244,124,94,112,-54,-111,-104,-112,-61
-297,-425,-163,-2,140,22,44,56,115,200
-764,-805,-329,-68,154,105,149,138,169,117
-593,-518,-284,-68,58,75,113,85,83,10
431,-109,-231,-121,-87,2,34,20,86,220
845,-97,-208,-77,-71,24,51,52,134,299
224,-214,-117,80,103,125,157,106,118,9
-302,-176,-148,112,153,150,161,87,74,-139
-544,-119,-140,55,97,83,107,57,70,-93
-551,-80,-40,13,43,64,85,61,46,-32
-542,-54,1,12,35,100,104,81,25,-38
-423,-55,-18,21,57,99,116,96,51,-27
-291,-60,-1,3,33,42,41,50,25,-36
-181,85,108,5,-29,-21,-73,-29,-66,-85
-276,128,125,-11,-62,-34,-118,-61,-100,-110
-641,75,30,-42,-82,-35,-107,-90,-116,-88
-698,74,-64,-122,-127,-15,-73,-155,-188,-90
-149,76,-194,-136,-119,17,-33,-215,-271,-152
938,134,-248,-72,-30,52,21,-203,-256,-148
1424,161,-216,-12,12,70,60,-68,-121,35
1195,26,-197,-20,15,31,27,23,16,236
598,-47,-252,-69,-25,-14,19,87,152,351
-207,133,-208,-36,-14,-2,60,146,191,167
-332,452,147,-12,-54,-79,-37,66,101,119
-100,81,346,-61,-145,-182,-162,13,99,370
13,-206,135,-89,-113,-201,-176,13,139,386
-196,-153,57,6,28,-70,-61,64,168,158
-345,-314,-107,70,129,74,41,130,175,-36
44,-387,-418,-4,113,66,13,70,84,-136
337,-204,-555,-19,113,70,-7,3,-40,-226
578,130,-437,22,101,61,18,-5,-31,-148
799,810,-112,53,28,-9,-6,-16,22,56
-214,588,19,126,58,41,64,42,63,-14
-779,168,480,166,11,-4,28,4,27,-129
-272,-101,806,43,-169,-159,-101,-89,-14,-90
-422,-511,596,16,-143,-126,-54,-36,41,-128
-457,-405,518,14,-104,-80,-21,-19,49,-133
-230,-112,363,-13,-82,-74,-14,-1,81,-45
87,220,190,29,-9,-18,20,22,83,22
148,293,191,55,38,53,69,41,43,-30
148,-44,146,23,34,94,122,71,52,-92
528,-104,139,-15,-3,64,84,44,11,-40
659,332,355,-15,-72,4,-40,-38,-69,-45
382,558,515,-31,-152,13,-125,-123,-151,-102
-236,426,342,-41,-136,96,-134,-130,-167,-130
-839,196,175,-15,-69,121,-87,-81,-119,-88
-931,-83,90,0,-28,71,-23,-21,-53,3
-297,-370,-67,-48,-46,-18,-30,-5,-60,44
-227,-520,-229,-130,-78,-109,-54,-19,-77,30
-294,-352,-288,-151,-106,-173,-92,-37,-68,75
-381,-73,-190,-128,-122,-220,-149,-95,-117,8
-203,150,-37,-109,-138,-222,-168,-116,-146,-11
240,197,32,-81,-126,-188,-127,-72,-91,10
742,72,16,-56,-95,-136,-66,-14,-15,60
538,-41,17,-10,-32,-64,19,45,30,30
23,-60,19,12,0,-41,61,70,46,98
-247,-173,-25,43,56,37,116,121,57,4
-519,-149,-13,105,119,119,164,138,43,-169
-181,-41,-21,98,111,139,139,87,-11,-194
197,167,-46,60,42,82,49,-23,-110,-227
272,195,-188,0,-19,30,12,-44,-101,-150
288,64,-269,-56,-24,8,37,14,10,58
180,23,-142,-70,3,-16,67,107,192,303
-281,-199,-131,-34,63,51,107,179,255,267
-576,-217,-57,53,109,100,106,135,128,-20
-506,-141,20,97,92,82,97,77,52,-104
-339,-49,1,23,-4,-8,44,17,16,-53
-237,86,-8,-43,-64,-56,26,-32,-43,-81
13,148,16,-23,-46,-46,34,-69,-88,-140
368,139,16,-9,-26,-34,26,-91,-109,-130
386,-29,-91,-82,-37,-36,16,-46,-13,72
503,-136,-112,-83,-23,-3,81,44,90,214
185,76,65,32,36,151,142,8,-7,-38
44,110,46,31,12,368,180,14,-14,-6
156,-13,-47,-77,-97,503,195,36,23,146
180,-127,-99,-199,-293,484,200,49,83,310
75,35,14,-253,-507,316,121,-37,-38,135
-108,60,33,-251,-558,178,66,-57,-164,-157
-165,-77,-44,-239,-459,55,51,25,-127,-210
49,-32,-98,-244,-335,-223,-29,68,-26,-75
289,41,-164,-140,-75,-457,-210,-24,-28,74
259,68,-146,96,334,-485,-342,-134,-87,118
-51,-32,-14,332,708,-440,-344,-160,-85,106
-174,-77,84,345,550,-356,-291,-115,-19,110
-265,-149,45,244,338,-255,-194,-55,-13,2
-114,-125,-33,110,190,-181,-108,34,70,102
105,-63,-117,83,186,-118,-53,80,116,162
270,-18,-100,96,183,-95,-34,46,88,153
312,-23,0,117,182,-60,-50,12,95,191
252,8,46,83,24,-55,-26,28,117,171
158,51,89,87,51,-19,29,40,40,-3
146,44,65,79,83,-8,60,44,-4,-125
179,92,-31,42,46,-17,23,-7,-35,-118
456,198,-73,-10,-41,-50,-39,-62,-70,-82
811,257,-172,-85,-68,-51,-56,-70,-36,119
1015,449,-146,-3,78,-16,-43,-72,-26,227
829,305,-17,142,210,74,51,-7,7,133
30,-12,-16,104,138,113,167,127,157,33
-735,-239,-48,40,70,81,168,149,165,-132
-1172,-324,78,20,60,19,97,81,71,-206
-1540,-117,224,23,7,16,46,33,14,-240
-1270,311,274,17,-79,-12,-46,-44,-39,-242
-405,352,209,-30,-162,-45,-74,-55,-29,-115
222,142,57,-146,-308,-5,-15,9,34,62
82,16,51,-142,-218,-9,-14,-11,-2,102
46,-204,122,-22,55,-57,-99,-107,-79,103
111,-430,-7,-37,145,-80,-124,-113,-66,105
93,-359,-121,-43,80,-19,-32,-30,-24,8
171,-243,-128,-11,69,34,33,11,-25,-137
-38,-48,28,8,7,9,-3,-14,-60,-182
-103,357,160,106,-62,-34,-63,-87,-147,-205
483,719,99,63,-207,-59,-95,-145,-224,-194
749,453,-201,-81,-188,-50,-38,-67,-113,66
727,-25,-302,-85,24,-19,2,-15,-29,217
342,-642,-298,13,298,77,116,77,82,167
-275,-802,-363,132,471,269,276,203,184,22
-418,-534,-539,66,380,294,289,274,250,46
-753,-185,-339,10,132,163,186,246,254,35
-829,467,276,-16,-94,-52,-31,42,90,-35
-844,295,444,-23,-118,-123,-125,-85,-51,-143
-757,-401,245,67,51,-21,-69,-56,-87,-214
-483,-583,-9,82,92,47,-23,-25,-69,-193
-191,-389,-268,-17,-3,69,40,32,-1,-97
495,-56,-381,-27,-14,70,59,43,18,-7
577,164,-269,4,-69,23,1,-12,-10,-25
327,306,216,75,-97,62,-27,-38,-43,-34
136,141,287,48,-136,183,-7,-26,-20,48
87,-17,124,9,-114,253,16,10,31,100
133,98,235,90,4,206,26,-1,-8,-51
80,187,320,132,101,82,-11,-60,-39,-120
-87,19,113,10,70,-61,-83,-115,-82,-99
-236,-274,-131,-115,-51,-150,-105,-119,-87,-102
132,-97,-30,-153,-228,-229,-102,-115,-64,0
832,346,91,-94,-332,-298,-153,-165,-58,198
1265,675,212,36,-203,-288,-196,-187,-51,257
1126,633,253,24,-120,-175,-82,-72,54,237
783,569,322,11,-154,-89,4,-31,47,31
464,435,474,45,-208,-135,-105,-127,-64,-42
-32,83,348,28,-186,-101,-103,-92,-88,-2
-336,-87,100,-69,-190,-28,24,32,4,67
-366,-17,-89,-82,-85,50,104,125,146,213
-385,-19,-175,19,113,131,157,130,143,58
-683,32,-11,46,45,111,128,92,47,-106
-1014,-2,197,111,-108,126,44,1,-66,-211
-614,-125,90,137,19,196,-49,-96,-188,-262
-189,-195,-50,55,44,196,3,-20,-122,-169
-347,-235,-208,-58,-24,143,80,81,27,-37
-599,-184,-279,0,170,58,24,48,27,-3
-658,-36,-183,120,435,25,0,24,4,-89
-502,-115,-212,32,256,-17,19,57,13,-146
-22,-165,-235,-119,-134,-56,35,68,45,42
561,-152,-201,-185,-306,-118,30,69,85,280
531,-137,28,-88,-89,-149,-19,19,94,357
330,13,240,58,207,-149,-108,-79,-7,169
224,-102,110,25,157,-80,-79,-54,-21,-41
77,-32,73,-65,-233,-1,40,82,108,60
-165,82,112,-181,-542,49,132,187,223,178
-362,63,70,-227,-530,156,235,201,237,166
-203,-123,34,-155,-310,191,263,104,125,92
-73,-319,-54,-18,43,117,173,-24,8,4
-125,-287,-145,78,370,30,15,-88,-60,-47
-122,-141,-160,62,377,-40,-109,-111,-50,-29
90,-38,-86,17,336,-82,-122,-73,-12,17
344,78,46,90,349,-124,-130,-89,-73,-93
501,181,-1,104,254,-166,-207,-134,-149,-201
486,280,-109,18,42,-189,-236,-124,-131,-227
334,452,-5,-24,-111,-191,-239,-117,-124,-130
394,553,124,-5,-182,-171,-207,-106,-76,51
116,290,80,26,-174,-95,-100,-37,3,68
-159,141,61,49,-39,-21,-18,19,64,103
-330,115,57,79,173,-13,9,29,76,188
-135,-93,29,86,274,43,73,81,84,163
188,-280,-62,-10,121,72,86,104,65,45
129,-328,-173,-72,-13,113,141,121,56,-76
232,-384,-230,-20,-25,140,165,113,51,-91
-127,-431,-212,25,-10,145,122,84,53,74
-114,-317,-108,-33,-115,132,95,69,71,242
-233,-45,70,0,-211,89,85,35,35,159
-67,-17,105,36,-186,53,124,71,45,17
70,20,169,5,-62,39,118,91,70,31
51,171,134,174,296,-11,-73,-99,-94,-40
-93,186,18,207,364,-71,-201,-212,-197,-120
-138,126,39,19,110,-15,-64,-43,-16,-5
-15,11,40,-24,48,38,15,54,100,16
-60,-175,13,6,142,33,-20,19,40,-112
194,-267,-40,-40,116,-28,-85,-47,-31,-112
325,-244,-86,-60,127,-90,-125,-80,-50,-64
80,-97,-121,-58,103,-40,-82,-25,-11,-36
-304,66,-77,-8,72,49,23,9,-5,-141
-487,83,-80,41,15,115,109,29,16,-187
-242,38,-151,47,-70,92,61,27,46,-71
155,-72,-188,50,-78,116,56,74,63,23
149,-389,-343,11,-13,345,232,210,144,56
-220,-361,-367,-6,49,593,320,262,176,30
-461,-67,-258,8,135,620,234,180,77,-10
