-146,-132,-6,-40,-71,-25,-57,-57,-34,-54
-125,-118,-12,-23,-64,-37,-72,-61,-47,-33
-109,-103,0,-20,-52,-37,-68,-63,-50,-33
-67,-78,6,-22,-30,-21,-56,-57,-24,-13
-2,-43,-8,4,0,-23,-43,-43,20,39
-14,-45,-48,5,8,-13,-15,-22,47,47
-26,-46,-8,9,-12,1,10,-14,46,42
48,-39,6,14,-17,9,38,-12,49,43
159,-13,17,31,-10,10,41,-6,28,26
145,-26,18,33,-11,0,30,-7,5,-7
99,-52,-49,16,-19,-13,16,-20,-21,-27
88,-44,-30,3,-19,-11,-12,-24,-22,-19
71,-48,-1,-5,-23,-15,-36,-19,-16,6
50,-13,0,-12,-10,-7,-32,-14,-17,25
46,18,-6,-13,2,9,-16,-1,-19,21
81,213,-7,15,34,17,33,44,21,19
70,238,-70,23,30,-2,29,45,35,13
-7,-77,-81,-22,-18,-29,-28,-18,-27,-9
23,-120,-35,-33,-17,-28,-12,-12,-23,5
92,-110,3,-25,-12,-30,0,-12,-11,13
17,-99,-4,2,5,-17,-16,-10,-16,4
19,-92,-19,12,23,-10,-9,-6,-10,25
215,-87,-14,-11,14,-21,-21,-21,-3,49
321,-66,-27,-33,-1,-26,-51,-30,-15,80
305,-26,-13,-35,-2,-8,-18,-21,-6,101
244,36,0,-13,12,10,12,-11,28,120
230,53,29,5,15,10,-12,-15,30,110
76,83,69,32,25,9,-26,-20,25,57
-252,78,88,46,48,14,-21,-23,-2,-29
-486,2,59,56,62,39,-16,-16,-17,-110
-571,-35,31,46,51,32,-15,-12,-15,-150
-453,-58,16,21,30,20,-17,-12,-6,-162
-273,-121,-39,1,22,15,-16,-16,4,-118
-157,-140,-34,-8,3,6,-22,-19,9,-90
-116,-60,-9,-3,-10,-17,-41,-38,4,-79
-84,0,-81,2,-13,-20,-37,-28,15,-69
-43,14,-90,-9,-5,0,-20,-10,26,-53
41,-11,-35,-19,-6,6,8,10,34,-14
110,-42,-37,-28,-7,6,22,37,48,24
12,-19,-6,-7,13,12,34,34,27,-10
-19,1,11,-5,15,17,68,28,17,-40
-4,8,-18,2,14,20,82,35,36,-21
9,-7,-2,23,19,16,75,39,35,7
46,7,36,19,16,7,64,34,18,27
62,31,33,24,29,9,61,31,19,46
33,7,11,5,28,1,42,23,18,28
-5,-26,0,-10,13,-2,30,2,-3,-10
-20,-20,-4,-18,9,-7,15,-5,-12,-4
-13,33,14,-25,0,-25,-18,-17,-38,-11
-40,91,26,-5,15,-24,-33,-14,-55,-40
36,377,14,41,82,-2,5,80,-2,-5
107,559,9,65,111,11,40,138,40,33
84,556,72,59,82,8,21,120,18,25
19,314,82,27,25,-6,-27,60,-24,28
46,203,-35,14,9,-4,-22,54,-14,49
-11,-88,-143,-20,-22,-29,-41,-8,-42,37
-66,-147,-104,-26,-25,-37,-35,-18,-50,31
-63,-182,-36,-45,-21,-15,-14,-5,-46,44
-19,-189,-51,-55,-22,5,4,6,-40,56
18,-179,-42,-50,-24,12,9,10,-38,66
8,-178,-27,-34,-7,7,4,3,-32,50
18,-150,-6,-19,0,0,-4,4,-23,12
91,-85,15,7,-5,3,-32,4,-21,-24
111,-48,23,8,-1,8,-52,-4,-17,-33
91,-31,27,-3,10,2,-55,-14,-9,-6
74,-31,75,-13,18,-3,-32,-28,-26,-30
59,-25,81,-10,13,-2,-20,-33,-26,-40
14,-49,44,-19,-11,-18,-20,-31,4,-18
-76,-59,-29,-60,-27,-37,-18,-35,-3,-2
-133,-34,20,-41,-25,-32,-5,-26,-7,6
-126,-18,47,-4,-19,-10,2,-19,6,26
-64,-40,35,14,-4,0,19,-13,13,28
37,-26,29,17,-1,10,19,-3,26,39
91,24,11,19,1,9,19,1,31,64
93,-9,-6,3,-1,-6,-45,-8,-123,39
78,-75,0,19,23,9,-33,-1,-109,-27
99,-35,27,38,36,18,-10,3,13,-29
95,-16,3,27,28,7,-32,-12,-20,-34
45,-10,15,27,27,7,-30,-24,-31,-39
17,29,12,26,18,1,-16,-6,-23,-18
13,257,1,27,36,14,33,63,34,-22
-7,239,11,26,23,7,36,56,57,-2
-30,-60,5,-10,-25,-17,-6,-15,18,-21
25,-107,-4,-22,-33,-22,-13,-21,6,-44
3,-80,8,-25,-25,-10,-21,-29,4,-69
-9,-42,28,-20,-13,-12,-31,-33,12,-59
-1,-51,19,-19,-7,-26,0,-25,17,-29
16,-64,-7,-6,-7,-14,0,-21,10,-3
35,-61,-8,7,2,6,-23,-25,11,19
34,-15,-12,24,15,9,-14,-21,11,19
16,-34,-26,22,17,1,0,0,23,30
-11,-38,-3,26,25,-3,-2,14,14,18
-35,-45,9,23,30,6,0,12,3,-9
-5,-73,-27,-37,-1,2,10,32,23,22
6,-70,-51,-46,-26,8,10,30,7,8
-14,-85,-80,-32,-24,13,-11,21,-22,-10
-21,-118,-67,-36,-19,1,-13,20,-20,14
-47,-130,-64,-33,-29,-5,-5,21,-9,12
-65,-135,-65,-46,-39,-5,-12,21,-6,1
-59,-126,-50,-45,-45,-9,-41,6,-8,-10
-71,-88,-12,-29,-53,-38,-70,-15,-30,-38
-71,-40,22,-12,-45,-60,-59,-12,-25,-33
-53,-2,27,8,-39,-36,-36,4,17,-2
-47,-15,-55,8,-26,4,-9,37,88,28
-26,31,-68,31,0,18,11,63,117,41
97,400,-8,70,45,23,65,137,111,67
173,639,-38,104,89,37,97,174,92,105
172,588,21,130,103,40,63,112,7,95
138,264,88,94,36,5,-9,-15,-60,67
75,9,44,13,-34,-11,-38,-72,-82,22
2,26,66,-3,-35,-1,-15,-79,-65,-1
-38,-23,73,-4,-20,2,-4,-76,-52,-6
-49,-81,64,6,-17,-7,-4,-63,-36,-14
-61,-102,48,16,-17,-11,-17,-67,-25,-20
-73,-117,33,6,-28,-13,-35,-77,-18,-31
-44,-121,6,-5,-42,-22,-51,-79,-19,-17
-20,-107,10,-10,-45,-20,-46,-80,3,10
-52,-111,18,-17,-27,-10,-6,-70,12,0
-72,-112,20,4,-3,-1,11,-63,10,-8
-46,-74,40,32,8,9,7,-69,11,28
-14,-65,24,23,21,9,15,-55,15,29
19,-27,19,28,22,3,11,-39,13,24
24,-21,23,52,28,1,4,-35,7,16
10,-22,24,54,39,7,-1,-24,22,22
26,-5,28,44,36,-3,-3,-1,30,48
25,-1,29,42,35,-20,-5,3,15,51
17,-1,31,48,37,-2,-16,5,-3,40
8,-17,13,34,26,8,-27,1,-5,39
17,-39,-2,-1,5,9,-25,-3,-18,35
0,-55,-11,-19,12,12,-21,-6,-25,28
-14,-56,-7,-29,0,6,-17,-13,-44,10
-17,-64,-16,-41,-16,0,-33,-15,-45,0
-11,-72,-56,-43,-19,-3,-46,-19,-45,-10
-25,-114,-56,-62,-27,3,-27,-1,-29,-9
-70,-175,-124,-82,-28,4,-14,18,12,32
-126,-144,-91,-62,-23,-11,-25,8,26,15
-113,-46,17,-23,-23,-34,-24,-1,23,-23
-64,-20,19,-19,-11,-21,14,19,29,-25
-78,-31,-47,-21,-7,-2,56,45,26,-32
-68,-37,-110,-7,-3,13,65,65,47,-30
-33,-72,-138,-12,1,17,61,90,80,-17
0,-90,-69,-43,-23,9,75,90,80,8
16,-50,-51,-56,-41,-1,67,66,47,-11
14,-46,-41,-51,-39,0,60,55,2,-22
-12,-61,-51,-34,-24,18,50,49,8,-31
-21,35,-55,-25,-11,35,28,59,74,-19
47,364,-57,52,21,22,-6,60,45,-15
0,154,-101,24,-6,-28,-100,-6,-126,-11
-41,-15,-93,-20,-45,-24,-30,-42,-16,27
-23,28,7,-13,-40,-30,0,-60,-48,60
-51,16,100,0,-11,-21,34,-65,-27,47
-48,14,112,7,-10,-18,39,-61,-21,24
-26,27,134,-1,-9,-17,20,-66,-46,19
-14,12,92,12,-10,-15,6,-50,-65,8
-12,5,-22,-2,-20,-40,12,-21,-62,10
3,9,-26,-28,-21,-49,6,-3,-31,14
21,-5,-28,-8,12,-8,11,6,-28,-4
14,1,9,28,32,7,11,21,-33,-6
42,-3,-35,48,31,17,7,26,-26,12
57,-52,-35,22,20,34,10,23,-34,24
43,-83,-10,18,31,55,13,-4,-66,-11
34,-73,-27,39,31,49,7,-8,-54,-1
46,-38,19,41,24,19,5,3,-21,27
47,-17,15,61,29,13,-10,-8,-23,26
46,-22,-15,62,37,14,-23,-32,-29,30
18,28,48,52,14,6,-27,-44,-19,25
5,138,106,26,-18,-11,-48,-52,-14,43
-6,189,172,10,-32,-13,-70,-61,-21,46
-35,193,234,2,-30,-51,-96,-80,-46,-8
-21,141,180,-40,-54,-82,-108,-100,-53,-22
21,40,56,-97,-55,-48,-76,-63,-22,13
111,33,17,-97,-36,-28,-47,-23,1,32
178,46,16,-51,-12,-33,-37,-15,9,37
157,59,-94,-21,2,-26,-20,-4,26,54
189,324,-69,28,51,14,51,98,86,75
196,585,18,77,109,39,113,178,134,81
126,532,25,67,100,42,120,171,104,73
15,185,6,17,35,21,67,91,49,43
-92,-92,-26,-33,-4,9,38,36,27,8
-92,-91,-30,-48,-19,4,65,59,52,0
-45,-142,-55,-91,-50,-26,64,61,43,-22
15,-197,-49,-123,-66,-37,68,77,50,-32
72,-170,-75,-116,-70,-21,64,87,61,-24
-19,-124,-56,-98,-46,4,56,78,47,-101
-99,-131,-70,-88,-44,10,41,81,38,-149
-175,-77,-3,-44,-29,0,18,60,82,-160
-340,11,117,10,-7,-2,5,25,90,-197
-333,-111,87,21,5,23,12,-9,32,-199
-181,-226,-1,11,6,6,31,-3,15,-112
31,-135,-59,4,5,-24,32,-16,28,0
140,-74,-83,-10,-1,-13,48,-23,64,92
133,-34,0,10,-3,-2,40,-12,122,115
72,14,32,31,8,-8,14,-10,199,81
-58,4,23,39,9,-19,-17,-9,386,28
-136,-19,10,40,17,-20,-36,-12,411,-24
-130,-22,-16,30,5,-25,-24,-27,194,-54
-147,6,23,4,-15,-24,-14,-7,152,-74
-129,124,-13,-13,-18,-52,1,35,95,-104
34,267,-27,-14,-7,-48,27,71,23,-69
106,-58,-99,-78,-58,-74,-34,-36,-95,-54
132,-134,-149,-76,-58,-66,-59,-105,-217,-72
82,-79,-48,-56,-59,-57,-76,-104,-246,-80
0,-86,-11,-52,-51,-57,-63,-62,-290,-92
-41,-118,-28,-52,-30,-15,-45,-39,-323,-98
-82,-98,-56,-17,5,15,-24,-34,-343,-78
-110,-65,-119,23,44,22,-17,-37,-338,-56
-59,-33,-53,57,68,31,-8,-42,-322,6
-12,-33,28,63,86,39,7,-50,-262,60
16,-45,32,73,103,39,29,-42,-201,58
40,-40,41,94,105,46,18,-40,-132,76
62,-56,10,63,71,38,0,-46,-103,67
103,-57,-30,12,41,28,-13,-56,-87,62
142,-33,-18,9,31,10,-35,-58,-72,66
135,-44,3,28,35,-3,-73,-72,-78,39
58,-5,85,44,34,-14,-80,-66,-69,0
-5,17,134,42,25,-20,-63,-40,-30,-5
-44,24,120,43,31,-1,-42,-29,4,-4
-62,15,60,29,42,6,-20,-19,13,-9
-54,-23,-5,-17,30,20,11,0,31,-27
-8,16,-50,-53,13,24,23,3,50,-7
9,77,-41,-45,4,3,36,-18,18,-3
11,-4,-63,-43,4,-2,49,-12,21,0
15,-37,-92,-44,-9,6,47,-10,43,26
34,6,-15,-29,-4,3,23,-7,54,36
19,-4,-12,-33,0,12,20,6,42,20
3,-18,-42,-28,-9,19,21,-6,26,14
21,-18,39,1,-22,-5,-5,-20,36,22
2,-10,25,24,-7,-1,10,-17,47,13
-8,13,40,24,5,12,15,-9,49,-2
16,58,55,18,1,-2,3,-14,23,-4
29,45,48,21,-7,-7,-38,-33,-10,-15
25,-8,23,2,-29,-5,-41,-34,-14,-30
18,-40,3,-30,-43,-18,-28,-14,5,-32
-16,-42,-8,-26,-38,-8,-14,8,24,-58
-5,-33,-4,-32,-34,-11,8,41,40,-39
56,2,-4,-26,-11,-57,65,96,80,-8
61,-48,-54,-58,-19,-79,140,199,166,47
27,-27,-67,-38,-5,35,223,283,200,38
-40,329,-10,52,81,294,360,411,294,-70
-139,155,-91,-8,40,500,422,539,710,-87
-252,-195,-187,-111,-61,444,404,593,1022,-109
-339,-298,-318,-178,-114,213,345,587,904,-178
-406,-389,-381,-219,-166,15,165,430,562,-251
-337,-358,-265,-193,-158,-106,-32,152,169,-233
-112,-205,-127,-96,-100,-154,-165,-92,-145,-72
49,-81,-37,-28,-16,-160,-221,-240,-387,39
133,48,7,7,50,-160,-207,-305,-536,68
232,465,50,62,99,-136,-137,-259,-560,65
255,509,128,94,78,-142,-158,-278,-573,68
193,234,204,118,47,-140,-212,-364,-549,62
146,192,215,121,38,-98,-177,-337,-411,64
131,240,193,113,38,-76,-139,-292,-301,60
102,224,143,95,38,-39,-133,-269,-241,43
124,132,94,87,44,-26,-121,-228,-175,80
160,129,79,102,51,-36,-121,-201,-165,98
131,75,96,126,54,-32,-123,-195,-185,43
151,6,121,131,68,-9,-108,-159,-166,-7
187,-39,27,67,52,-2,-56,-91,-70,38
202,-185,-112,-16,-7,-11,23,-15,50,202
75,-123,-63,-11,-23,-18,36,-9,52,150
-63,0,53,53,13,5,36,-19,0,-18
-105,-6,60,67,37,28,39,-15,12,-26
-102,-57,31,44,47,36,33,-32,11,0
-116,-94,13,15,50,30,18,-68,-18,-40
-89,-69,13,7,32,5,0,-63,20,-21
-69,-60,12,10,9,-10,19,-42,51,0
-82,-76,1,4,-8,-32,21,-34,26,-23
-87,-73,-81,4,-7,-14,20,-23,0,-39
-91,-73,-130,-8,-4,9,19,-4,-19,-40
-54,-55,-16,-11,4,6,-8,6,-27,-34
0,-10,24,0,14,-14,-30,-2,-7,4
16,12,-32,17,26,-26,-35,-14,-18,-10
-9,-3,-43,10,33,-3,-18,-24,-42,-30
-31,-32,-45,-27,30,7,-1,-24,-40,-25
21,-24,-33,-39,31,-8,-3,-14,-15,31
61,-18,-45,-44,13,-21,0,1,10,78
37,-61,-82,-58,5,-19,7,29,25,94
-16,-75,-76,-60,8,-1,-4,39,38,68
-42,-50,-56,-54,5,16,9,30,45,22
19,-31,-29,-38,20,28,-4,11,41,22
58,-20,5,-27,12,7,15,-4,22,19
10,21,71,-26,9,-10,1,-24,-7,-7
-21,92,95,-9,23,-8,-14,-30,-12,-13
-8,72,31,-21,10,0,-9,-21,-14,-8
-29,7,-3,-11,-1,19,0,-32,-16,-31
-44,-22,-40,-5,13,17,-8,-23,39,-7
29,-40,-70,2,17,-10,-12,-10,70,43
99,-12,-39,2,15,0,5,2,60,58
113,-48,-19,13,13,16,30,31,76,38
97,-100,-63,0,17,18,54,89,180,14
80,-100,-82,-25,9,22,74,129,277,22
49,-16,-28,-3,11,31,71,136,298,45
2,147,67,32,29,45,50,148,281,28
-19,181,45,21,33,34,38,135,216,18
-61,96,-4,3,4,8,6,90,152,-1
-91,117,38,0,-34,-11,-37,48,105,-34
-88,112,116,9,-33,-15,-67,-8,25,-28
-85,57,106,22,-12,-19,-54,-33,-62,-8
-58,69,-38,1,-9,-21,-54,-55,-199,-42
-11,45,-7,6,-4,-10,-53,-110,-344,-75
-8,49,88,0,-32,-14,-37,-126,-309,-107
-48,26,88,-25,-56,0,-14,-61,-245,-112
-86,-65,-14,-62,-32,18,-46,30,-278,-81
-64,-127,-78,-75,-7,54,37,123,-45,-73
1,-124,-79,-84,-20,61,81,139,4,-63
79,-71,-63,-41,-36,58,85,103,16,0
90,-43,-32,5,-23,52,58,44,10,8
-24,-60,-10,26,-12,52,25,6,-10,-51
-5,12,79,64,-4,16,-5,-5,31,11
82,105,134,80,2,3,0,-29,40,103
127,78,78,19,-16,14,6,-29,38,158
127,43,15,-31,-52,-19,-48,-6,84,188
71,23,3,-40,-50,-20,-81,-23,65,132
48,28,2,-13,-7,-4,-81,-80,-66,57
0,-30,-50,-57,-15,-2,-81,-109,-115,-17
-49,-39,-63,-94,-74,-26,-87,-81,-49,-26
47,10,-14,-62,-90,-49,-87,-79,-26,25
187,20,29,-41,-96,-51,-58,-79,-43,90
232,21,37,-46,-121,-48,-47,-72,-44,143
246,55,55,-30,-109,-64,-64,-88,-31,172
270,73,-1,5,-48,-48,-75,-96,-30,163
273,43,-113,20,59,0,-72,-68,-26,138
250,30,-70,18,100,25,-49,-31,-5,132
73,40,42,34,84,37,-10,21,14,52
-210,0,40,45,67,66,46,77,20,-94
-316,-27,21,46,50,72,76,93,35,-172
-207,-22,50,56,50,40,55,73,59,-134
-129,-30,65,51,41,32,24,35,57,-82
-138,-15,61,20,2,19,10,32,83,-85
-201,-12,50,9,-20,17,37,42,89,-100
-197,43,59,44,-13,2,26,20,43,-82
-184,109,90,80,17,2,-1,-19,12,-25
-196,84,152,96,23,5,-24,-35,7,-3
-190,24,119,60,-10,-15,-22,18,41,4
-187,-107,-23,-36,-52,9,35,76,22,-40
-105,-168,-76,-42,-54,36,73,104,26,-64
-78,-144,-21,19,-25,41,88,115,65,-24
-130,-96,-21,31,-9,52,134,102,53,-49
-125,-86,-60,42,-11,97,206,124,27,-167
-128,-78,-86,38,-4,126,272,231,77,-260
-158,-23,-109,0,-10,127,302,339,216,-246
-79,47,-79,-36,10,111,290,382,459,-123
-80,38,-22,-40,65,68,212,351,613,-87
-111,-65,61,-9,94,31,124,257,434,-102
-22,-215,50,-5,43,20,41,120,187,-18
18,-203,-7,-10,0,-25,-88,-41,3,25
24,-35,25,-29,-26,-59,-171,-179,-146,32
0,-85,-90,-192,-168,-121,-79,-107,-111,98
8,-169,-153,-255,-244,-220,-39,12,-85,100
159,-67,-32,-132,-157,-225,-133,-65,-216,84
342,75,104,2,-71,-64,-177,-157,-302,139
441,110,167,73,-8,191,-166,-230,-312,221
405,27,141,75,5,306,-118,-237,-252,252
271,-25,99,49,-7,157,-117,-203,-184,210
44,-73,37,14,-43,-15,-112,-178,-171,98
-235,-123,-3,-3,-85,-105,-60,-149,-197,-44
-389,-146,-36,14,-59,-94,5,-100,-179,-149
-405,-132,-33,32,-13,-33,68,-15,-133,-165
-311,11,15,33,-16,-38,72,35,-76,-101
-130,194,117,67,7,-68,72,42,-20,-42
208,112,175,152,101,-66,74,45,4,-9
271,-33,108,139,108,-17,68,34,-5,-22
118,-59,71,85,89,25,23,-42,-69,-125
13,-11,110,81,75,5,-31,-108,-92,-144
63,18,114,65,19,-44,-35,-73,-10,-29
122,76,119,54,-21,-62,-19,-27,38,50
101,69,73,16,-52,-33,-10,-37,-5,50
70,32,26,-16,-67,-51,-62,-51,6,87
122,61,55,13,-16,-67,-98,-47,44,141
149,56,49,28,8,-38,-79,-22,61,119
302,100,87,68,22,-15,-75,-37,64,153
754,122,90,52,14,-21,-69,-39,44,201
874,109,61,28,2,-30,-57,-49,2,181
548,65,17,13,26,-20,-41,-89,-7,134
244,18,-54,-30,12,-13,1,-87,-5,94
72,23,-64,-22,0,-1,26,-51,2,59
-207,-41,-78,-21,11,31,75,-18,0,-30
-416,-113,-80,-13,39,48,108,0,21,-81
-615,-134,-26,47,78,67,125,21,20,-173
-717,-176,-55,20,89,139,163,83,22,-270
-552,-167,-88,-23,50,139,181,188,118,-229
-395,-105,-53,10,18,44,171,281,281,-127
-281,-111,-76,-17,-14,7,153,315,389,-75
-189,-84,-115,-58,-45,-2,78,281,418,-38
-171,-84,-112,-66,-59,-28,2,196,354,-30
-257,-196,-82,-127,-103,-45,-45,74,108,-121
-58,-210,-39,-105,-96,-70,-80,-23,-53,118
182,-17,64,-18,-44,-68,-97,-116,-90,402
157,143,80,-41,-75,-46,-52,-83,-88,351
80,60,-22,-104,-114,-23,28,60,3,157
-25,-174,-140,-103,-64,50,92,148,48,-32
-44,-216,-154,-51,-11,80,96,178,59,-97
-87,-167,-130,-6,23,101,63,131,-44,-170
22,-125,-117,49,75,104,19,89,-167,-249
-5,-171,-74,23,69,98,16,65,-222,-339
-198,-83,-14,-37,-45,16,35,54,-227,-291
-79,276,216,-96,-247,-117,32,115,-78,-26
99,515,399,-90,-312,-201,-67,61,55,201
189,434,336,-22,-195,-152,-149,-116,-30,181
251,174,137,-80,-73,-31,-166,-213,-121,24
224,9,78,-89,-34,33,-128,-158,-92,-72
109,-60,159,6,-4,17,-154,-124,-59,-47
0,-116,160,61,-17,-37,-158,-88,-77,-42
-148,-124,55,0,-94,-97,-88,9,-50,-78
-333,-108,13,12,-50,-80,-34,83,29,-105
-403,-147,-126,35,-2,-53,16,84,41,-139
-232,-222,-237,-14,-21,-44,18,50,76,-40
-152,-274,-267,-37,-12,14,21,-8,79,87
-42,-128,-102,32,83,34,-56,-117,12,188
157,44,83,75,127,11,-125,-160,-36,162
177,35,79,43,47,5,-117,-96,-19,7
42,-37,59,27,27,26,-66,-40,8,-75
86,-26,51,14,14,23,-20,13,10,-62
194,-46,0,-38,-31,21,19,52,4,62
167,-21,52,-9,-45,34,43,-37,-134,144
124,46,136,36,-48,55,39,-123,-194,119
81,120,181,41,-84,58,71,-77,-135,5
13,164,200,42,-118,48,106,-18,-84,-90
-84,69,172,3,-165,60,148,51,-32,-138
-162,1,146,-31,-200,76,173,221,85,-148
-103,4,124,-42,-159,84,226,362,195,-100
-45,-2,54,-1,-1,82,213,353,233,-55
-85,-51,14,147,301,111,73,145,98,-93
-103,-42,56,289,517,119,-75,-79,-100,-197
-42,-20,45,275,460,120,-106,-82,-127,-196
101,-56,-12,130,291,76,-102,-52,-107,-63
189,-33,-21,87,151,-109,-161,-99,-129,49
182,-57,-140,22,58,-151,-130,-87,13,149
248,-140,-217,-132,-62,-81,-18,64,194,146
459,-179,-208,-208,-154,-59,54,181,316,121
499,-63,-105,-128,-144,-84,57,209,367,165
171,-31,-41,-54,-116,-53,75,195,244,117
-255,-74,-41,-26,-76,-11,92,104,-36,0
-366,39,25,-4,-32,-41,40,-11,-178,-74
-415,9,34,-59,6,-64,46,18,-137,-103
-389,-48,28,-40,60,-78,3,-19,-148,-94
-311,-107,-42,-57,-1,-58,-60,-145,-186,-80
-146,-84,-61,-78,-80,-73,-125,-188,-112,17
184,43,43,0,-73,-92,-182,-254,-68,190
218,39,34,12,-77,-50,-112,-246,-46,253
178,59,85,51,-50,3,-63,-213,-27,276
117,87,148,115,12,48,-76,-222,-87,221
83,35,111,104,55,60,-93,-196,-105,159
191,40,99,114,46,8,-91,-118,-66,135
266,25,67,54,-2,-22,-7,75,49,62
191,-31,-27,-64,-94,-35,98,275,215,13
190,86,17,-95,-202,-59,88,300,302,100
4,-46,-78,-139,-303,6,83,290,247,31
-339,-228,-244,-140,-325,33,87,315,199,-105
-492,-174,-326,-168,-354,0,74,260,168,-152
-277,-172,-313,-204,-464,-20,31,111,94,-203
-204,-238,-175,-187,-489,-29,53,59,118,-242
-199,-120,40,-26,-215,38,62,0,161,-228
31,14,150,161,256,148,87,-41,159,-44
119,143,128,372,848,139,35,-99,44,43
81,372,107,355,871,-23,6,-42,2,9
73,283,-79,81,305,-70,98,45,1,-20
77,230,-132,-20,210,49,94,-84,-146,-67
226,410,96,142,413,109,-90,-307,-306,-115
294,113,70,244,528,100,-178,-399,-376,-156
121,-157,-138,153,355,-3,-137,-350,-348,-129
-54,-195,-228,30,78,-73,-23,-139,-121,-64
-158,7,-69,0,17,-72,34,-35,-29,-94
-223,134,124,-50,-18,-52,3,-50,-109,-120
-200,-65,60,-152,-95,-37,38,35,-80,-73
-63,72,97,-182,-177,-90,-7,101,3,-76
1,159,182,-129,-212,-172,-85,116,85,-145
-102,-113,176,-79,-168,-99,19,189,213,-196
-293,-226,98,-119,-136,30,217,386,397,-208
-385,-242,0,-67,-64,97,266,547,425,-196
-343,-306,-12,-54,-51,107,220,535,194,-124
-210,-128,47,-59,-80,62,130,402,128,20
-225,-16,106,2,-50,46,14,218,333,-18
-235,-74,63,65,35,32,-67,101,408,-92
-118,-54,56,54,51,10,-114,-29,104,-52
106,58,47,-13,-43,-30,-138,-197,-214,187
509,308,178,54,-34,-42,-161,-424,-367,471
667,297,210,102,15,10,-94,-412,-371,415
535,149,145,45,3,78,-83,-367,-514,172
371,93,60,-51,-73,27,-71,-307,-561,28
444,84,34,-98,-165,-60,-83,-272,-425,93
612,243,150,-45,-183,-108,-163,-314,-275,220
518,364,235,4,-195,-84,-77,-239,-145,254
62,275,208,44,-180,10,52,-163,-188,10
-521,15,79,50,-107,111,133,-111,-277,-273
-762,-156,-45,25,-15,168,165,-73,-266,-316
-489,-97,-25,48,61,152,69,-76,-155,-121
-243,-38,12,87,90,-9,-1,-6,-16,22
-264,-96,-67,-20,12,-60,27,132,92,22
-286,-153,-151,-106,14,-30,17,153,106,-15
-183,-121,-145,-74,58,-34,-9,137,142,-27
-34,-57,-132,-31,92,-10,4,122,174,15
37,-48,-126,53,159,80,48,81,130,-24
-14,-228,-260,27,151,139,135,125,160,-65
-24,-382,-398,0,127,137,156,184,199,-43
-8,-410,-344,22,157,182,162,241,199,-88
34,-412,-351,42,191,199,162,297,228,-125
166,-178,-209,115,183,77,43,229,183,-22
61,177,-4,131,87,-41,-100,0,-3,-38
-104,512,-1,11,-23,-70,-235,-267,-231,-119
80,742,113,-5,-45,-126,-331,-382,-297,46
302,802,483,65,-45,-141,-349,-410,-265,241
548,545,444,-40,-161,-247,-331,-241,-104,556
634,236,85,-199,-261,-313,-189,78,154,748
338,10,-88,-231,-243,-257,21,303,273,579
31,-104,-124,-249,-227,-211,186,458,391,328
-375,-182,-213,-308,-266,-107,338,594,502,-95
-612,-146,-281,-327,-279,69,371,548,533,-441
-368,47,-77,-157,-165,317,319,334,389,-423
-75,200,181,61,-16,446,359,270,238,-281
56,310,319,173,85,348,371,175,87,-203
-62,-9,151,65,-7,80,242,181,109,-253
-310,-350,-91,-67,-44,-2,111,287,216,-331
-242,-209,73,27,6,-142,-119,194,249,-256
107,-8,159,44,-68,-358,-225,177,400,-50
512,-4,30,-75,-163,-310,-98,206,354,94
726,36,30,-70,-150,-242,-121,-30,-31,211
727,-4,-26,-96,-159,-159,-148,-252,-312,404
676,72,-18,-104,-184,-106,-163,-495,-435,521
612,348,85,-40,-142,-50,-155,-695,-472,574
382,421,-32,-119,-225,-3,-78,-593,-455,434
-71,165,-238,-203,-244,99,-66,-494,-540,141
-306,-5,-159,-105,-60,212,-92,-386,-560,-41
-687,-147,-9,70,204,287,-66,-232,-525,-304
-1012,-237,108,166,200,175,78,3,-326,-445
-852,-131,231,233,127,173,89,-6,-248,-448
-311,84,303,282,152,173,4,-163,-255,-337
268,224,244,226,98,113,-45,-266,-241,-172
561,286,138,98,49,38,-134,-343,-191,7
200,108,48,12,151,36,-160,-233,1,15
-363,-22,15,15,196,15,-98,-43,181,-12
-380,-39,53,45,224,-42,-24,51,171,-71
-61,-111,-20,4,280,2,50,77,141,-71
106,-75,-18,45,293,-14,108,142,249,139
132,119,86,124,220,-63,107,179,206,138
101,204,173,181,127,-65,-9,26,-4,68
-37,167,175,164,64,-32,21,76,-2,17
-79,76,76,61,-16,-55,76,218,149,112
-144,-66,-93,-91,-147,-131,88,279,160,66
-224,-171,-173,-155,-186,-121,92,334,201,9
-260,-254,-266,-222,-214,-66,160,580,435,93
-148,-332,-342,-285,-270,45,217,765,601,152
128,-254,-279,-249,-259,74,208,706,610,203
336,-125,-163,-145,-178,12,132,527,498,137
192,-187,-176,-120,-170,-25,-61,158,164,-157
50,-87,-23,63,-43,27,-285,-479,-429,-346
-84,188,257,308,84,81,-339,-855,-705,-343
-251,242,327,354,46,53,-279,-720,-565,-341
-178,201,287,287,-46,13,-203,-568,-467,-208
13,306,333,277,37,-19,-199,-589,-403,7
24,273,233,184,211,3,-127,-478,-248,74
39,118,28,48,282,77,-72,-350,-107,138
63,51,-19,36,336,11,-54,-218,-62,84
66,-19,-24,33,283,-1,-30,-129,-104,-82
20,-96,-43,-6,111,192,58,-54,-42,-149
4,-25,-12,20,130,297,154,25,305,1
-12,38,-26,86,208,125,225,84,675,85
-34,-137,-142,41,172,-52,236,131,750,85
145,-132,-93,45,41,-199,160,186,516,120
291,-64,-36,109,8,-68,119,98,0,94
214,-359,-294,30,73,358,236,-12,-615,-76
175,-522,-544,-49,95,534,271,1,-532,-86
206,-376,-530,-23,148,618,206,60,-123,30
105,-164,-506,-65,184,755,130,126,162,9
-71,128,-367,-146,64,526,84,210,343,10
-271,403,-132,-221,-119,5,21,504,519,-31
-395,396,-221,-374,-327,-522,-145,767,622,-62
-346,322,17,-254,-346,-803,-361,488,190,-56
-390,-21,391,-115,-283,-813,-486,51,-433,-228
-430,-423,249,-149,-267,-685,-421,-12,-550,-353
-102,-251,218,36,-42,-502,-363,-103,-447,-143
157,85,331,336,192,-325,-229,-209,-381,33
206,378,461,435,251,-142,-152,-509,-481,54
275,556,505,376,254,8,-17,-504,-370,118
339,671,318,182,142,19,161,-13,-3,224
327,633,130,15,6,-39,222,295,178,262
380,385,124,-19,-59,-168,90,308,142,287
393,228,306,98,0,-255,-142,56,-108,163
181,-140,195,82,55,-127,-195,-163,-256,-12
71,-318,-101,0,103,9,-122,-193,-177,-67
-43,-201,-326,-121,30,77,113,17,26,-52
-252,17,-342,-216,-69,126,234,51,89,-119
-279,272,-182,-228,-200,-9,195,164,208,-255
-187,191,-25,-248,-302,-163,157,345,391,-288
-45,-8,18,-234,-251,-140,106,362,624,-135
54,-34,230,-68,-147,-123,0,173,670,204
156,258,621,106,-122,-184,-133,-104,406,686
119,158,358,-19,-151,-151,-194,-374,-6,709
323,14,22,-165,-155,-110,-168,-441,-96,662
614,-27,-161,-270,-200,-223,-17,-269,-8,667
440,-290,-409,-454,-415,-399,199,-24,62,409
28,-396,-486,-418,-474,-246,276,-4,-7,25
-362,-270,-293,-162,-202,475,239,-176,-256,-457
-743,-103,68,208,190,1218,195,-208,-377,-896
-701,182,334,464,404,1123,172,-98,-392,-783
-494,258,222,356,346,631,170,-121,-491,-466
-208,278,140,194,304,263,120,-224,-440,-109
-50,138,30,54,282,-17,-38,-390,-583,-195
-98,-36,-136,-158,37,-300,-70,-332,-550,-293
16,72,-108,-186,-132,-308,1,-316,-292,-23
104,185,-59,-83,-29,99,297,-326,-189,56
219,334,48,46,25,157,482,-14,-120,130
145,306,106,90,-2,95,308,-16,-207,100
-261,0,-126,-53,-56,198,57,-184,-432,-150
-593,-196,-299,-171,-139,100,-154,-201,-430,-327
-512,-203,-298,-161,-96,-68,-296,-201,-243,-216
-129,-98,-201,-58,7,-211,-211,-62,8,83
265,69,-82,40,60,-204,16,-43,38,197
273,156,-77,56,106,-90,51,-128,-146,138
196,174,-106,69,163,-139,-27,-50,-159,207
251,269,-102,152,162,-196,-62,-34,-86,318
328,245,-104,174,131,-136,-92,-96,-80,333
537,8,-111,106,82,-104,-119,-95,-23,277
939,-43,-75,-9,-99,-124,-99,-97,20,313
766,-170,-267,-153,-169,-110,-87,-56,-18,227
281,-70,-275,-37,40,-107,-247,-83,53,167
528,410,92,161,71,-327,-301,-33,451,370
574,416,-70,30,-165,-287,-32,115,674,361
-117,1,-320,-160,-113,204,68,95,470,84
-541,-166,-200,-105,146,675,23,219,373,-125
-732,-180,-103,58,247,729,136,478,339,-389
-616,-223,-93,53,168,372,494,810,469,-332
-440,-139,-177,12,235,165,733,932,671,-218
-482,-92,-327,-102,245,305,613,782,858,-219
-500,-152,-339,-188,233,1179,597,643,937,-87
-476,-167,-337,-128,387,1967,977,785,847,-49
-363,-66,5,87,501,1985,862,621,132,-165
-335,-5,185,70,460,2544,503,93,-852,-270
-599,47,36,-183,146,2032,205,-297,-1317,-658
-721,-124,-14,-253,-147,1192,-94,-628,-1310,-926
-554,-296,49,-194,-319,101,-638,-1122,-1287,-731
-260,-240,52,-167,-454,-1106,-835,-1054,-843,-299
-53,-116,-50,-169,-347,-1733,-518,-629,-330,-47
-36,-115,-168,-175,-236,-1785,-387,-498,-181,-117
-11,-12,-113,-136,-371,-1814,-526,-412,-36,-108
233,110,70,-38,-470,-1794,-576,-192,140,213
463,-25,186,78,-364,-1496,-502,-35,173,541
493,-48,394,215,-152,-1228,-497,-66,105,503
596,379,667,358,-48,-1109,-537,-139,6,451
493,661,627,399,53,-910,-469,-229,-47,488
201,695,535,415,151,-719,-280,-129,84,381
13,826,537,311,121,-559,-97,115,241,114
-117,495,395,172,84,-193,48,267,326,-99
8,-6,51,-12,44,366,293,418,436,-58
207,-101,-98,-98,-65,527,408,551,615,327
65,-52,-53,18,-41,296,257,469,431,301
-134,-122,-92,30,-114,-49,102,364,242,-33
-120,-189,-117,-13,-239,-341,-22,194,154,-146
-162,-248,-103,13,-212,-467,-188,-53,-134,-343
-244,-238,-118,14,-143,-429,-180,-105,-285,-430
-54,-45,-19,85,-97,-456,-104,-36,-127,-178
186,103,-26,71,-22,-360,-58,-110,8,57
399,231,17,160,190,-124,68,-163,108,338
409,318,9,225,283,22,160,45,419,503
171,212,-255,8,55,170,232,242,615,343
-17,27,-391,-211,-170,343,397,532,652,146
-142,-83,-231,-253,-180,795,352,405,265,-22
-231,-36,-45,-232,-170,920,58,13,-51,-121
-250,-208,0,-162,-222,324,-296,-269,-176,-74
-70,-161,104,45,20,-95,-340,-418,43,187
129,151,167,240,277,-240,-102,-493,67,236
306,258,187,356,315,-94,-51,-415,-37,246
242,34,32,211,279,973,89,-108,80,122
75,-335,-231,-6,327,2073,297,83,220,62
29,-680,-436,-127,377,1557,291,71,83,25
60,-674,-439,-208,259,541,89,-112,-326,-52
-34,-383,-384,-228,-15,-248,-9,-409,-729,-306
-237,-196,-378,-92,55,-538,-40,-647,-1051,-670
-184,-73,-416,97,269,-265,-10,-457,-982,-661
231,81,-259,233,152,-92,92,-57,-549,-286
343,-191,-117,170,-106,-313,446,296,1,-14
188,-396,-81,-37,-168,-463,643,551,431,82
306,14,-238,-166,-10,-237,583,619,765,400
302,180,-503,-168,66,198,284,528,986,619
2,331,-432,-194,-26,144,-46,580,1256,500
-176,1066,267,-237,-326,-451,-402,502,1301,228
-419,624,576,-232,-500,-701,-514,266,879,-204
-361,112,561,-107,-478,-697,-429,216,480,-353
51,149,492,51,-313,-744,-463,-21,-233,-321
670,340,593,253,4,-739,-347,-134,-843,-35
944,430,627,323,167,-464,194,-192,-1106,305
537,445,438,223,184,-124,556,-290,-1056,281
248,560,295,111,18,-167,357,-87,-500,286
84,399,283,73,-15,1,260,226,-30,96
57,2,186,-29,-42,227,464,328,36,-57
-208,-328,-17,-129,-110,251,760,440,157,-102
-353,-561,-165,-180,-137,184,638,327,172,6
-233,-628,-340,-299,-224,192,378,104,138,153
-192,-584,-428,-337,-281,155,-76,-15,-5,196
3,-490,-362,-168,-35,104,-550,-282,-239,342
322,-155,-131,24,232,19,-967,-510,-339,453
411,49,123,234,404,-93,-998,-627,-331,520
76,-71,20,238,433,195,-718,-692,-453,286
-219,-268,-135,254,553,644,-670,-582,-429,-32
-418,-305,-50,356,787,677,-655,-494,-376,-218
-970,-463,-121,236,765,487,-470,-442,-413,-642
-1163,-485,20,227,536,492,-268,-207,-265,-950
-654,-123,232,330,451,1582,-187,-16,-77,-774
-383,72,188,290,407,2091,-49,-34,-37,-341
-218,180,208,145,156,1519,67,21,67,-62
-134,16,-173,-200,-76,868,56,3,-6,-347
-209,-218,-465,-347,-170,-42,-94,-185,-248,-745
-526,-297,-285,-314,-259,-649,-241,-95,-208,-764
-870,-368,-142,-277,-247,-662,-224,60,46,-600
-622,-444,-132,-209,-242,-39,148,318,628,-249
-55,-202,-86,-235,-358,-55,538,602,1350,19
156,-120,-150,-313,-342,25,983,812,1739,147
181,-46,-179,-287,-336,-417,1472,1155,1679,117
-113,-111,-447,-506,-620,-1091,1524,980,887,-309
-357,-254,-606,-602,-859,-871,934,193,-388,-536
-208,-139,-322,-338,-808,140,82,-522,-1408,-457
135,-124,93,140,-327,804,-372,-775,-1296,17
368,51,315,498,227,766,-334,-791,-862,299
497,124,281,448,343,-52,-116,-649,-562,382
414,-356,43,229,140,-1249,-425,-550,-471,401
575,-603,-146,208,52,-2076,-649,-318,-339,484
938,-47,-108,183,-62,-1851,-529,-47,-74,567
860,607,-3,91,-32,-1148,-464,7,18,468
695,1470,374,65,-139,-913,-640,-17,222,492
424,1638,548,15,-211,-706,-767,-158,131,227
128,600,371,-75,-211,-505,-705,-119,21,91
57,78,497,41,-45,-76,-725,-22,44,48
175,395,771,206,149,683,-464,99,108,91
113,177,630,170,128,795,380,224,110,106
-78,21,467,179,243,965,1087,229,160,54
-354,-271,119,101,400,1554,1357,221,331,-49
-504,-691,-273,-93,216,1595,1118,244,509,-191
-509,-748,-441,-167,97,845,481,101,724,-313
-547,-711,-528,-349,-116,26,-328,300,1617,-336
-655,-914,-796,-739,-743,-455,-748,738,2130,-402
-613,-914,-888,-826,-1000,-562,-601,824,1601,-316
-354,-676,-647,-583,-662,-678,-22,1036,1046,-31
-20,-169,-248,-272,-105,-164,354,867,247,310
182,294,130,24,163,498,314,392,-764,358
14,45,144,108,228,842,187,-242,-1566,33
-185,-160,93,92,127,154,-304,-851,-1728,-352
-599,-499,-213,-115,-469,-717,-837,-1367,-2037,-1045
-1019,-858,-475,-370,-1082,-1044,-1014,-1709,-2091,-1518
-1070,-726,-368,-246,-979,-653,-911,-1473,-1734,-1486
-425,-105,184,293,-491,579,121,-787,-1032,-810
151,242,456,550,7,1967,1758,81,-108,-121
168,152,292,441,484,2635,2225,734,769,45
74,-14,44,201,626,2359,1400,1114,1570,144
100,-49,-5,68,838,520,181,1195,1806,198
-248,-367,-253,-207,546,-1394,-884,612,771,-235
-615,-721,-539,-479,-207,-2258,-1344,-264,-778,-630
-605,-613,-360,-349,-478,-2218,-1670,-1062,-2027,-689
105,0,152,95,-112,-1822,-1696,-991,-1642,162
1211,860,825,695,634,-29,-1180,-299,-356,1437
1509,1087,1018,915,1166,1100,23,508,417,1817
1257,972,927,930,1394,748,1396,976,637,1472
667,371,339,451,1021,-3,1914,954,526,759
-351,-717,-651,-344,171,-354,1546,728,474,-276
-948,-1342,-1273,-846,-603,-696,492,551,1170,-837
-960,-1284,-1314,-884,-817,-933,-298,315,1870,-799
-594,-731,-1025,-843,-1032,-1157,-617,148,2059,-429
-313,-191,-780,-791,-1194,-954,-897,-23,1250,-302
424,746,104,-159,-672,-608,-1353,-311,60,270
1044,1074,785,386,-273,-446,-1282,-866,-1414,969
893,747,752,408,-310,-255,-1058,-1477,-2355,1100
583,369,387,131,-417,-411,-994,-1466,-2091,1041
507,352,272,91,-304,-814,-1084,-1110,-1120,905
452,252,286,257,280,-583,-941,-786,-48,548
569,-237,100,338,740,-348,-479,-401,640,175
637,-635,-239,331,1134,-152,128,85,934,19
141,-1139,-917,-41,819,-55,748,1007,1145,-586
-404,-1340,-1563,-508,-33,-378,1088,2587,1906,-1048
-333,-327,-1643,-603,-278,444,1372,3497,3068,-698
-330,710,-1463,-660,-77,2950,1899,3710,4194,-213
-1137,802,-1261,-1004,-458,3162,1921,3215,3861,-539
277,124,1384,394,-165,-3,-339,-1253,-1084,135
894,194,1251,951,1026,-99,-93,-959,-1930,465
1183,606,1086,1024,1146,-604,-322,-1773,-3099,377
1454,991,871,753,506,-1049,-776,-2171,-3358,709
1958,1156,843,677,267,-1403,-1145,-1954,-2824,1607
2212,771,844,520,100,-1450,-1044,-1564,-2071,1588
1603,25,883,434,148,-960,-703,-1144,-1426,945
1034,126,955,647,497,-314,86,-722,-986,739
1093,1323,945,790,703,167,1273,-293,-650,882
1036,2417,735,579,547,519,1975,-52,-462,817
222,2345,554,256,160,581,1592,-75,-436,239
-873,1153,471,-46,-245,359,422,-192,-321,-520
-1730,-113,302,-183,-512,266,-576,-427,-219,-1194
-2033,-696,214,-50,-275,495,-995,-635,69,-1363
-1807,-195,256,122,372,1114,-1195,-648,423,-1013
-1478,191,96,165,569,966,-1196,-236,470,-641
-977,62,115,274,537,540,-811,117,112,-264
-594,-203,306,275,467,449,-414,12,-513,-111
-418,-548,327,212,359,61,-278,-283,-832,21
-274,-494,127,-8,138,-414,-295,-533,-921,60
-176,-153,31,-219,-75,-778,-278,-463,-747,-91
-24,-37,105,-133,-105,-942,-176,-238,-367,-80
75,118,196,42,-61,-755,-93,66,-12,-12
182,218,290,159,48,-146,30,365,333,88
316,285,351,244,135,111,557,564,528,180
100,-10,19,58,112,446,1519,770,513,-3
-180,-467,-477,-319,-275,967,2494,1034,813,-174
-829,-1171,-1144,-848,-877,1632,3073,1124,1301,-656
-1069,-1296,-1219,-935,-1158,1833,2740,1270,2042,-757
-914,-1048,-968,-758,-980,1195,1753,1134,1908,-656
-890,-995,-967,-808,-892,1116,621,444,595,-883
-809,-856,-799,-605,-265,3130,-422,-500,-1142,-1164
-157,-159,-72,134,1132,3189,-1141,-990,-1981,-670
163,282,386,517,1204,1267,-1100,-952,-1559,-252
-411,-251,-64,26,-87,-36,-1003,-1305,-1331,-578
-725,-647,-454,-394,-1012,-1312,-1781,-1559,-1220,-794
-409,-492,-402,-360,-587,-1678,-2303,-1275,-784,-252
-85,-483,-611,-549,-394,-1768,-1820,-574,240,382
96,-580,-865,-722,-464,-2455,-1439,231,1426,497
448,-228,-562,-287,91,-2745,-1111,821,2587,647
903,281,-13,128,153,-2673,-651,1158,2947,928
1000,378,63,188,-11,-2109,-473,996,1788,809
993,296,-120,181,21,-1472,-252,797,393,579
919,190,-170,292,271,-903,-5,485,-224,563
571,489,90,365,312,-570,-115,174,-25,470
207,1025,661,395,185,-595,-310,284,671,350
-44,648,565,286,215,-372,-191,430,835,268
6,178,402,251,221,-328,-9,358,368,672
7,148,600,210,92,-430,74,187,-64,715
117,559,879,78,-205,-606,101,372,-193,434
64,154,486,-140,-303,-348,328,730,57,135
-320,-517,-273,-469,-195,225,690,1121,1265,-226
-426,-733,-591,-578,-32,289,1323,1469,2453,-159
-297,-515,-401,-367,83,149,2313,1479,2412,28
-58,-301,-165,-90,125,1085,2847,991,725,102
51,-237,-102,6,36,2853,3129,683,-1222,-65
286,45,39,203,0,3997,2447,-19,-2374,32
398,185,109,377,148,3499,974,-767,-2364,113
-273,-224,-304,-83,88,2003,-541,-1523,-2332,-661
-309,-150,-127,-88,-128,-396,-2481,-2373,-2453,-789
295,217,351,297,46,-2147,-3256,-2212,-1856,-127
412,182,342,351,448,-2332,-2588,-1437,-1155,304
535,290,460,477,346,-2043,-1825,-606,-372,638
665,593,610,461,164,-1360,-1003,-178,-10,622
772,528,335,340,111,-906,-435,-21,135,601
636,171,-21,275,229,-477,-164,129,202,365
399,0,66,339,369,-235,-51,360,329,-55
316,51,232,354,316,-309,100,608,705,-154
37,300,11,19,-42,-426,189,601,1056,-280
-270,841,-148,-230,-252,-457,37,359,973,-455
-169,1401,142,-152,-116,-291,-202,-254,416,-299
155,1424,719,135,58,-290,-402,-681,63,258
291,959,1008,303,72,-370,-402,-516,-93,602
298,284,708,246,62,-207,-225,-265,-39,484
178,-287,341,182,305,335,-29,-151,319,191
-152,-730,-116,-18,471,942,90,-55,536,-116
-743,-954,-484,-193,658,2478,130,185,534,-654
-1136,-1015,-566,-174,861,3184,132,363,489,-1051
-1049,-946,-391,-44,662,1851,275,419,25,-1104
-821,-831,-394,-63,280,180,238,341,-580,-885
-282,-582,-324,-42,-46,-1033,-66,-67,-643,-177
343,-499,-269,14,-245,-1094,40,-323,-708,562
744,-259,-205,24,-323,-948,583,-161,-775,730
866,305,-355,-150,-439,-901,744,124,-390,742
815,606,-350,-70,-462,-889,687,470,290,694
442,128,-515,-95,-441,-612,623,670,756,384
-8,-422,-651,-215,-380,-204,449,779,1407,143
-305,-280,-488,-214,-308,309,290,848,2141,33
-697,-125,-730,-501,-207,2010,402,942,2602,-448
-1259,-894,-1427,-1153,-671,2737,347,1218,3041,-956
-1364,-878,-1421,-1334,-1062,1259,71,1385,2555,-955
-1184,-85,-648,-1056,-1039,-299,-246,543,165,-863
-843,321,309,-455,-715,-1355,-463,-631,-1824,-813
-275,761,1132,273,99,-1330,-199,-1317,-2972,-468
221,1255,1776,888,1113,-965,135,-1368,-3153,-46
224,616,1462,828,825,-872,297,-664,-1905,120
211,-98,657,349,-74,-500,334,-133,-746,429
233,-186,200,52,-428,-360,51,-304,-658,660
332,-88,165,99,-223,-387,-523,-513,-356,677
289,-189,53,22,-23,-114,-609,-86,753,466
302,-118,139,10,-88,-318,-416,336,1783,322
345,-107,129,-23,-143,-772,-118,904,2315,306
235,-345,-228,-245,-309,-743,370,1515,2177,241
236,-169,-213,-220,-305,-312,372,1020,440,29
326,354,255,117,-57,47,30,-143,-1602,-167
81,512,454,277,191,215,-242,-780,-2209,-551
108,692,599,445,530,87,-499,-1262,-2112,-325
632,875,848,708,687,-339,-492,-1342,-1505,723
587,595,732,599,390,-481,-213,-809,-734,866
222,285,476,391,193,-203,297,-389,-413,437
161,276,369,362,294,807,1310,-221,-216,472
-191,-147,-82,30,-210,1583,2109,-277,83,180
-661,-776,-683,-348,-519,1874,2338,243,1275,-303
-1107,-1318,-1151,-638,-579,2193,1850,912,2612,-951
-1588,-1810,-1574,-969,-721,2963,1463,1474,3470,-1767
-2314,-2648,-2503,-1820,-849,3097,1298,1547,3539,-2532
-2406,-2707,-2826,-2290,-938,1749,830,1233,2749,-2653
-1205,-1683,-1854,-1694,-1023,-85,213,1249,1831,-1526
-645,-1137,-1196,-1196,-1495,-1372,-485,775,811,-1014
-75,-278,-357,-401,-1019,-2006,-1755,-916,-1448,-610
1297,1272,948,820,771,-1873,-2598,-2277,-3621,915
1606,1795,1272,1099,1412,-950,-2125,-2103,-4036,1439
1433,1623,925,820,918,-879,-2137,-1633,-3937,902
2161,2301,1602,1351,1225,-1483,-2079,-1356,-3190,1502
2240,2290,1859,1547,1206,-1656,-1310,-819,-1622,1878
1541,1285,1309,1175,792,-1094,-709,-509,-923,1589
1000,350,679,769,478,-702,-381,-257,-687,1194
902,254,287,540,304,-542,-202,-104,-462,1034
1062,494,204,474,223,-439,-175,-40,-241,1230
877,546,265,345,193,-127,-113,-23,-227,1060
413,334,284,223,282,454,-111,-76,-215,740
208,404,455,313,541,1681,23,-54,37,573
23,398,533,350,683,1913,227,-72,-17,82
-514,150,250,196,468,487,104,-86,-280,-562
-473,767,251,219,127,541,192,95,-183,-434
-724,248,-224,-10,-230,3071,1151,302,-74,-429
-1261,-829,-791,-318,-466,3028,2563,132,-333,-1006
-1332,-1652,-1267,-568,-264,1366,3163,-244,-631,-1346
-972,-2003,-1449,-705,-955,-367,2100,-219,45,-946
-451,-747,-835,-423,-1482,-1031,42,252,1630,-271
-379,514,-299,-39,-222,-624,-1484,308,2015,-263
-464,284,-337,-41,1234,-788,-2220,-64,1285,-352
-86,225,179,-99,491,-2625,-2720,54,783,72
534,844,1034,63,-454,-3255,-1818,444,330,751
777,574,983,233,-212,-1513,-64,532,-182,990
592,-180,308,270,361,-259,898,889,439,581
271,-756,-636,-113,324,-172,926,1170,1716,140
-373,-558,-1306,-691,-80,-564,334,1182,2982,-427
-1133,-204,-1466,-1153,-714,-1012,-310,1560,4560,-932
-1750,-167,-1368,-1476,-1231,-1226,-611,1545,4935,-1447
-1719,-642,-1301,-1520,-1353,-1576,-866,1186,3533,-1357
-1260,-693,-339,-991,-1047,-1623,-888,787,845,-1096
-487,-99,1358,19,-472,-956,-682,-546,-2548,-905
702,575,2313,1041,435,-177,-489,-1972,-5186,79
1238,898,2052,1198,839,195,-300,-1971,-4541,770
1118,821,1521,913,559,132,-86,-1052,-2535,1143
1172,792,1325,898,510,268,146,-683,-1784,1832
1031,573,959,763,568,512,236,-766,-1696,1478
898,364,540,470,387,327,183,-542,-1130,926
675,264,477,397,344,228,106,-442,-888,513
490,183,415,371,368,446,96,-372,-774,238
517,255,352,368,350,751,121,-219,-575,139
536,412,288,400,291,818,151,-175,-460,127
415,254,220,280,201,426,178,-134,-361,70
116,65,123,225,449,680,56,-179,-347,-79
-170,-174,-5,320,978,2731,109,-154,-296,-31
-204,-545,-175,371,1383,4199,320,-50,-125,292
-285,-712,-426,202,1274,2676,382,-41,-129,117
-201,-607,-344,126,618,-94,115,-44,2,-126
-55,-443,-212,-2,-341,-1925,-173,46,389,-128
-218,-522,-565,-421,-975,-1573,464,773,937,-225
-345,-403,-859,-741,-1166,-526,1878,1566,1588,-97
-436,-52,-610,-536,-1087,-246,2871,1420,1408,65
-882,-264,-749,-748,-2018,-159,2416,432,89,-493
-1172,-524,-883,-1064,-2762,223,750,-449,-839,-1152
-1101,-967,-639,-775,-2012,1079,-1063,-1408,-1538,-1175
-1120,-1004,-447,-313,-782,1331,-2536,-1958,-1876,-1300
-573,-382,-53,230,919,359,-3005,-1519,-1141,-849
411,89,248,552,2399,-589,-1720,-449,64,352
820,272,213,319,1265,-1391,-361,405,853,1006
587,281,155,0,-126,-1815,-40,693,1379,769
505,379,256,51,-301,-1089,-45,699,1809,574
430,247,87,126,219,446,128,553,1695,396
315,283,127,184,548,1219,530,464,1147,296
315,208,175,170,420,961,1206,448,560,224
160,-310,-248,-7,-145,166,1394,140,-367,5
-190,-504,-651,-288,-666,85,811,-327,-1175,-381
-311,-378,-699,-238,-543,-116,-59,-433,-1134,-346
-380,-175,-704,-230,-456,-673,-940,-528,-802,-343
-157,237,-388,-192,-88,-1304,-1392,-464,-345,-286
280,821,564,393,1104,-1373,-1024,-60,169,46
518,764,927,663,1153,-1069,-540,146,257,183
754,332,674,428,342,-874,-172,356,194,304
527,327,591,346,53,-866,-74,333,103,208
326,1192,599,360,162,-596,-123,99,35,264
333,1319,290,304,246,-136,98,141,153,442
255,705,226,191,98,498,324,305,370,506
95,255,437,86,-50,750,277,279,447,344
-46,-445,202,-43,-50,408,37,107,293,18
-10,-611,-57,-108,-112,-32,-18,119,196,-23
-22,-731,-284,-228,-298,-3,47,70,24,8
-133,-559,-399,-261,-181,973,95,-159,-297,-264
-165,-656,-433,-54,474,1336,75,-106,-330,-308
-95,-353,-251,58,703,583,213,230,223,-156
-158,246,86,5,296,-27,455,536,746,-196
-334,256,82,-256,-317,-886,586,684,958,-300
-249,10,-6,-347,-652,-1159,475,321,407,-186
-111,-78,262,-116,-492,13,348,-223,-338,63
-16,-246,420,175,35,2092,67,-345,-490,301
74,-401,240,290,795,4180,-28,-27,-48,546
11,-460,-101,150,1402,3882,1022,328,278,382
231,-61,-148,64,1148,1581,3572,937,903,364
338,444,-22,96,577,563,5559,1163,1151,165
144,653,191,315,432,479,5536,775,504,-285
-44,410,245,435,562,514,3752,488,-31,-399
-195,-118,-73,26,-262,445,1080,392,-16,-220
-513,-495,-491,-544,-1422,458,-1821,-420,-821,-481
-1054,-1162,-1101,-1188,-2423,650,-3242,-1513,-1899,-1301
-1443,-1672,-1575,-1665,-2807,-267,-3996,-2022,-1949,-1634
-861,-1087,-1022,-1110,-1804,-2234,-4562,-1474,-390,-856
-43,-326,-270,-270,91,-2868,-3715,-660,1106,1
178,-411,-289,-146,1174,-2100,-2057,-126,1290,196
302,-440,-393,-208,379,-2223,-640,599,1112,242
308,-224,-462,-249,-549,-2258,420,953,670,117
-80,-334,-555,-292,-895,-1391,501,454,-222,-313
-247,-242,-143,217,-177,829,162,139,-862,-420
-345,43,260,570,731,4046,-337,-451,-1567,-468
-309,289,684,857,1851,5057,-1115,-1524,-2070,-311
-87,265,901,1131,2790,2702,-1714,-1426,-1099,-140
-78,-158,387,561,1584,-486,-1622,-579,172,177
-290,-485,-276,-330,-283,-2420,-1306,-394,228,55
-112,-406,-449,-645,-1281,-3798,-1434,-277,30,81
588,57,-83,-189,-1164,-4383,-763,555,550,725
568,206,26,-1,-851,-3152,219,756,605,648
434,449,216,-64,-815,-1169,555,701,573,501
451,673,572,243,144,1371,478,658,508,527
128,467,575,415,1141,4473,704,608,471,218
-101,384,265,153,1234,4685,806,512,747,-26
0,105,214,55,965,4256,427,467,1046,64
-56,-382,-64,-19,934,5113,426,188,566,-81
-681,-1106,-798,-331,841,3300,901,-329,-355,-808
-1923,-2318,-2024,-1187,-606,460,719,-1475,-2200,-2172
-2385,-2522,-2305,-1566,-2494,-2544,301,-2370,-3425,-2944
-1866,-1704,-1650,-1079,-3011,-1499,612,-2125,-3022,-2442
-1007,-393,-535,-247,-2140,3500,714,-1384,-1972,-1181
-70,780,800,1086,1636,7104,152,-669,-717,84
794,1433,1676,1761,4655,5896,-458,-138,184,1090
368,394,660,243,2697,657,-603,77,254,858
-382,-926,-849,-1542,-1460,-5382,-1106,194,265,193
-91,-633,-886,-1556,-2954,-9114,-1866,570,513,162
836,425,89,-321,-1949,-8411,-1435,928,595,798
1329,739,751,440,-948,-5340,-582,860,617,1348
1242,725,960,712,-237,-3108,-238,414,371,1333
818,371,692,543,35,-2253,26,219,219,872
564,79,253,95,-422,-2360,70,198,330,497
920,480,213,6,-589,-2382,74,425,920,837
1431,1421,475,167,-390,-2157,142,862,1612,1336
1204,1488,537,251,-88,-1620,176,886,1529,1281
927,976,412,339,189,-994,378,778,1110,1085
898,484,449,408,178,-616,688,844,843,990
798,155,422,409,205,-347,899,1025,978,724
736,239,324,448,372,0,858,986,880,333
292,371,96,239,254,-148,308,738,1329,-241
-524,-91,-490,-385,-406,-718,-194,674,2996,-779
-1068,-607,-712,-599,-657,-841,-238,615,3757,-1099
-799,-206,-355,-317,-341,-725,-163,314,1964,-882
-228,705,470,-79,-370,-721,-105,43,-861,-259
-47,404,825,129,-180,155,89,62,-2595,-3
266,356,936,547,500,1816,270,-254,-2686,115
791,585,1008,903,1079,2081,542,-524,-2400,601
1009,468,843,983,1353,1302,1134,-292,-1434,1102
859,354,608,886,1287,591,1613,-18,-833,1157
563,344,352,750,932,714,1510,-45,-705,537
414,46,-5,482,648,2022,1129,143,-112,330
122,-120,-387,14,127,1892,902,186,217,504
-298,548,-165,-368,-626,-35,471,-276,-311,0
-357,1362,299,-186,-682,-1094,89,-443,-641,-315
-341,1105,640,161,-460,176,18,-494,-803,-325
-179,625,1042,389,-89,1736,-253,-379,-580,-121
-291,-212,639,61,330,1728,-415,-269,-349,-103
-118,-413,147,-111,180,480,-887,-21,15,120
133,5,-25,-140,-109,-749,-1186,195,331,250
-128,-477,-325,-382,-363,-974,-1169,113,317,93
5,-224,7,-39,22,-748,-936,241,358,240
89,-114,126,189,209,232,-284,298,199,230
-220,-551,-304,-196,-208,1399,38,50,-32,-111
-235,-643,-397,-229,-355,1289,-139,-407,-363,-134
-78,-515,-230,-29,-56,534,-274,-719,-724,-206
-136,-528,-208,-21,348,-665,-107,-383,-448,-378
-414,-526,-371,-247,-133,-1509,492,1,162,-556
-1050,-806,-1032,-939,-1265,-1196,1069,254,1113,-978
-1330,-1000,-1406,-1279,-1805,-461,1553,581,2861,-1158
-1154,-1145,-1291,-1092,-1661,330,1660,706,4169,-1062
-914,-1145,-895,-553,-219,1155,1210,740,3946,-1019
-617,-1012,-529,2,1485,1056,313,804,2026,-892
-95,-477,-338,202,1423,279,-512,696,-241,-828
505,53,-69,262,462,-771,-1051,70,-2372,-402
852,320,166,305,-180,-1306,-1419,-705,-3002,676
1287,640,485,670,199,-1361,-1543,-695,-2006,1880
1407,900,790,1126,930,-723,-1018,-401,-1264,1593
1012,1213,989,1039,929,-89,-504,-158,-728,797
648,1627,1055,627,397,-312,-237,82,-332,609
415,1646,843,311,173,-365,-78,9,-645,504
180,1070,821,136,78,-387,-107,-169,-698,187
119,59,562,36,-9,-172,-201,-140,-109,196
110,-446,270,61,146,139,-71,62,322,447
114,-117,252,108,213,75,37,136,158,623
101,184,186,107,102,81,80,-42,-437,326
-9,11,-40,-12,21,421,131,-481,-926,21
-413,-439,-206,-222,-21,340,-40,-670,-475,-368
-584,-157,-181,-180,263,28,-11,-337,952,-640
-344,53,-136,-73,178,-123,848,149,1682,-545
-592,-542,-567,-449,-473,441,1570,237,466,-882
-278,-542,-447,-424,-706,1244,1922,364,-494,-243
377,-158,-53,52,-401,2182,1524,327,-828,804
305,-273,-9,331,85,2936,624,220,39,666
113,-452,-29,479,1250,2530,-413,255,1854,339
-96,-723,-350,180,1221,984,-946,352,2430,53
-513,-638,-964,-631,-346,-1061,-1211,374,1470,-268
-47,94,-773,-656,-1031,-2802,-1167,671,128,101
386,682,107,-7,-478,-2323,-669,158,-1545,500
440,1459,922,395,52,-1342,-624,-510,-2198,477
240,956,902,319,142,-142,-493,-632,-1861,141
174,246,878,272,189,669,-424,-632,-1327,103
297,337,822,266,209,190,-402,-571,-743,164
250,-61,421,211,206,-533,-259,-351,-386,83
91,-481,83,147,106,-988,-170,-214,-301,63
34,-512,-26,148,120,-917,-192,-331,-487,-8
-23,-215,-82,120,212,-436,-18,-257,-442,-220
100,450,-7,170,438,1125,368,107,14,-282
299,873,97,271,662,1943,781,428,330,-75
305,689,202,244,572,950,1101,540,357,135
161,361,363,105,114,-499,863,191,-43,121
-26,-207,47,-170,-344,-1077,218,-274,-253,229
-122,-430,-236,-337,-541,-1077,-543,-447,312,283
-218,-563,-213,-272,-459,-1116,-848,-354,1056,105
-303,-525,-112,-172,-383,-1108,-834,-120,1040,-177
-473,-396,-209,-211,-360,-1010,-607,225,458,-501
-905,-600,-397,-353,-447,-527,-153,238,-123,-935
-660,-254,-36,-45,-251,196,103,55,-661,-668
-241,64,124,179,-105,1116,182,44,-627,-369
64,113,123,253,107,1580,394,328,168,-129
-162,-284,-286,-156,-251,1575,805,375,519,-318
-555,-514,-898,-698,-910,1013,1064,297,419,-860
-742,-713,-897,-687,-954,437,815,247,91,-1152
-474,-345,-290,-160,-342,3,-187,-104,-301,-878
-201,53,31,42,711,-420,-945,-615,-788,-539
175,392,248,242,1178,-970,-1088,-495,-536,-115
623,687,468,424,652,-146,-633,7,276,555
697,825,481,446,549,1883,-15,237,652,1016
318,470,336,337,690,2180,230,230,366,632
-65,-92,140,157,508,703,106,-13,-126,131
-244,-428,-104,-60,-22,-1118,-202,-330,-578,-254
-166,-645,-334,-214,-321,-1644,-349,-445,-503,-353
84,-695,-351,-196,-386,-1476,-210,-152,176,-127
166,-508,-239,-56,-223,-1257,-93,99,722,62
192,-245,-150,32,-96,-943,22,312,960,234
235,169,-100,-26,-211,-597,144,602,933,436
148,648,71,50,-98,-39,65,395,235,247
107,809,455,295,316,389,14,71,-258,198
47,617,693,343,426,341,-58,-83,-256,320
-33,35,370,155,143,133,-40,-94,-213,189
9,321,47,51,271,710,184,-69,-165,18
248,993,243,215,430,1026,434,-77,-59,212
352,1106,292,196,140,580,586,58,152,398
36,257,41,-57,-283,231,533,117,119,164
-85,-414,-238,-221,-365,76,245,10,-4,26
-19,-747,-563,-379,-249,13,130,51,42,104
-216,-1006,-863,-484,-134,597,595,423,489,-44
-159,-917,-589,-180,264,2098,1209,943,2027,-33
-363,-1063,-567,-273,289,2739,1399,1112,3755,-417
-764,-1393,-964,-616,-83,1093,813,778,3983,-920
-702,-950,-940,-586,-567,-706,-490,139,1902,-869
-522,-1,-522,-581,-1059,-803,-1609,-652,-1531,-727
-141,638,155,-143,-318,-530,-1702,-1124,-3847,-441
575,959,675,456,249,-1108,-1111,-1066,-3722,617
823,1204,942,572,-119,-1626,-669,-800,-2344,1032
543,782,639,410,-104,-1710,-481,-419,-972,584
165,122,239,217,149,-1221,-289,-257,-476,332
-51,17,248,132,-4,-1080,-67,-166,-361,228
-69,16,410,354,249,-737,461,38,-287,192
-222,-174,245,186,-193,4,1327,0,-409,-60
-477,-425,-297,-395,-1249,666,1953,-407,-1005,-507
-270,-447,-268,-343,-1183,1202,1850,-474,-1081,-505
-37,-163,91,106,-424,1201,648,-385,-783,-403
131,393,324,400,838,802,-638,-353,-423,-251
331,626,336,460,1754,200,-1594,-163,90,79
259,496,73,18,585,-403,-1801,216,563,235
30,283,-194,-378,-462,-1018,-1262,527,892,218
84,119,91,-153,-438,-1242,-899,483,906,346
-11,-179,79,-53,-222,-257,-460,70,289,112
-239,-704,-236,-103,26,198,-274,-254,-323,-295
-35,-288,-58,140,359,0,-394,-336,-487,-213
241,445,277,381,342,-68,-422,-13,75,64
128,308,186,188,190,459,-204,273,695,69
-2,262,-57,-128,402,615,181,248,615,-39
-42,-22,-228,-357,8,-374,280,176,344,-39
-223,-898,-512,-498,-823,-1436,-96,-36,413,-188
19,-965,-595,-313,-904,-1210,-42,-54,815,-32
303,-885,-595,-123,-566,83,260,140,650,229
432,-422,-427,135,358,2143,430,311,37,269
552,529,-37,523,1651,3788,655,369,-231,337
493,1066,184,507,1413,2630,763,237,-286,644
242,946,243,129,300,351,586,122,-215,627
-152,878,647,-68,-655,-1295,-23,-283,-458,-23
-605,-243,472,-191,-956,-1200,-410,-699,-754,-631
-644,-1198,-356,-379,-886,-323,-40,-627,-682,-814
-309,-982,-586,-380,-780,-372,483,-219,-202,-564
49,-173,-153,36,165,-420,678,49,402,-190
51,389,32,215,1169,-106,674,203,545,-151
-142,577,-59,-222,215,-700,54,492,670,-133
-2,844,129,-400,-522,-1707,-602,913,923,164
-147,702,372,-277,-487,-1628,-779,579,555,-33
-80,45,361,-126,-354,-1218,-813,297,748,160
7,-427,192,-77,-220,-796,-403,355,931,417
23,-207,240,-3,-155,-472,-206,-51,205,242
215,204,420,245,125,-180,-184,-484,-657,234
110,334,353,311,302,177,-122,-355,-722,36
29,173,288,308,421,572,-54,-198,-547,100
87,-6,150,264,475,628,30,-205,-391,360
-72,-197,-44,156,387,243,120,-90,8,180
-248,-252,-77,47,200,-259,80,78,555,-171
-506,-494,-398,-258,-154,-445,92,186,862,-451
-793,-784,-775,-599,-455,-479,113,232,1312,-805
-860,-906,-828,-659,-542,-122,26,358,2418,-836
-657,-762,-555,-480,-305,1246,159,738,3210,-445
-311,-459,-371,-401,-100,1964,335,991,2064,-166
196,176,-201,-96,511,3382,352,606,-273,138
926,1425,435,588,1335,3195,323,-132,-1725,950
1118,1701,834,795,918,676,201,-672,-2358,1272
538,963,624,501,15,-1592,-28,-992,-2564,327
126,555,325,395,-29,-2115,-199,-1197,-2579,-430
138,494,119,312,186,-1526,-148,-810,-1726,-73
127,122,53,190,13,-1227,-16,-278,-855,235
89,-112,226,315,156,-851,65,13,-488,146
186,-29,372,467,295,-350,146,55,-475,86
174,-12,330,392,169,-190,137,21,-478,9
-38,26,88,201,92,-62,145,8,-414,-168
-28,164,145,169,-93,-209,421,273,-1,-37
15,-36,186,73,-201,-128,926,492,330,141
17,-226,-91,-171,-268,395,1231,470,348,99
86,-362,-359,-346,-326,673,829,556,581,338
69,-452,-467,-406,-344,238,-87,431,744,440
-152,-617,-505,-454,-401,-365,-761,-45,254,-2
-246,-610,-478,-375,-432,-838,-695,-123,-29,-339
-35,-373,-372,-297,-566,-498,319,114,196,-270
-143,-419,-444,-377,-411,753,1094,342,859,-461
-312,-336,-280,-195,-25,2065,455,518,1733,-742
-520,-483,-278,-148,324,2990,-459,501,2620,-804
-560,-582,-476,-282,321,1747,-891,59,2438,-650
-446,-426,-476,-369,-175,-497,-1111,-329,755,-434
-209,-375,-335,-316,-401,-1751,-782,-568,-1068,2
233,-39,-23,-80,-103,-1611,-273,-459,-1811,503
553,308,297,187,-49,-1097,-86,-330,-1801,658
567,488,586,531,209,-980,113,-432,-2001,526
367,448,602,622,237,-945,311,-515,-1825,160
160,333,392,379,-107,-276,443,-500,-1259,65
181,490,358,306,-120,843,263,-350,-768,12
371,931,443,412,361,1501,-183,-175,-396,92
271,721,200,270,855,1023,-558,-251,-320,48
122,24,-121,-30,380,-376,-805,-277,-264,47
180,-227,-142,-145,-259,-1381,-495,88,119,270
107,-158,-68,-71,-276,-1005,-91,177,241,224
31,-34,56,124,78,-315,-12,103,188,115
49,112,145,180,164,-117,20,104,179,140
58,221,233,148,112,-99,11,69,96,122
63,301,274,94,53,-115,-2,43,58,104
76,181,156,62,91,51,23,21,77,104
82,-44,34,31,142,286,80,50,134,117
19,-48,32,54,259,704,94,33,137,26
-160,-209,29,92,313,1244,112,46,204,-133
-366,-166,-1,21,228,1899,230,216,578,-324
-485,-219,-146,-83,261,2282,401,495,1041,-398
-481,-432,-250,-1,429,2265,531,737,974,-427
-519,-739,-498,-186,-168,1277,527,617,281,-605
-853,-1460,-1173,-850,-1349,-481,180,-180,-773,-1002
-1006,-1821,-1539,-1201,-1998,-1771,-318,-904,-1213,-1116
-635,-1168,-1014,-825,-1699,-1995,-689,-959,-671,-669
-311,-242,-371,-367,-811,-1525,-730,-563,-101,-192
269,702,219,219,832,-1078,-446,-202,-157,405
728,1146,743,569,1328,-729,-207,-34,-174,821
814,1198,993,469,609,-347,38,138,137,883
699,1160,886,270,93,-22,96,226,308,726
559,1048,646,235,117,17,3,205,448,648
418,449,192,183,335,71,352,232,413,540
409,-133,100,306,689,1005,1270,341,199,375
456,93,230,462,885,2017,1828,492,289,235
381,436,-3,332,811,1458,1563,627,401,177
99,377,-290,-37,139,46,342,466,239,-16
-451,154,-374,-326,-444,-1331,-1120,-209,-244,-469
-462,215,-319,-442,-545,-1745,-1874,-722,-528,-374
160,527,243,-174,-455,-1955,-1569,-561,-369,84
297,348,285,-52,-350,-1451,-619,-238,-25,57
265,-51,-134,-38,-162,-586,-105,67,161,71
169,-500,-302,-42,-160,-11,-29,161,150,176
174,-338,-252,83,160,412,-41,265,350,350
69,41,4,158,338,270,-168,347,874,310
-370,177,83,-163,-357,-303,-270,300,1729,-170
-994,-643,-284,-519,-759,28,-84,179,2829,-829
-1209,-1050,-410,-484,-587,447,127,-24,2558,-1100
-1063,-961,-416,-417,-316,266,106,-109,486,-965
-681,-491,-115,-89,104,-62,-7,-150,-1802,-644
-69,329,519,336,250,-215,84,-179,-2483,21
407,600,795,406,212,-237,266,-124,-1762,703
395,390,597,231,-13,-213,362,57,-857,671
333,66,298,162,-63,-104,440,137,-421,349
264,-38,151,120,-79,-20,487,-79,-508,131
80,-196,-92,34,-159,36,337,-236,-597,-64
145,-32,56,164,153,1099,427,-221,-491,-75
327,233,371,289,667,2565,868,-219,-347,75
343,-28,212,263,1080,2529,1067,-183,-241,229
434,223,298,418,835,1177,445,-43,-81,386
152,302,97,317,307,-321,-267,-22,-191,202
-623,-113,-689,-485,-560,-1131,-742,-195,-545,-532
-734,-165,-847,-776,-841,-1232,-1036,43,-264,-621
-543,-593,-463,-339,-503,-458,-649,432,318,-291
-366,-434,-177,60,67,247,-367,441,509,-233
-177,-50,-136,24,242,-31,-333,412,676,-181
-111,-273,-167,-290,-450,-1035,-354,376,772,16
-13,-155,-81,-273,-615,-1560,-360,277,550,133
212,79,73,-49,-204,-963,-283,-64,288,214
474,55,115,-3,-20,-366,-234,-277,164,358
550,-46,143,1,-58,-231,-155,-145,163,361
530,80,265,107,-22,-130,-44,-74,90,556
293,178,171,88,0,3,265,135,67,633
-76,340,20,31,10,107,578,320,-64,357
-214,307,137,154,111,260,592,245,-294,180
-199,184,323,230,64,223,229,93,-200,-134
-256,-166,208,159,31,269,-139,-162,-154,-475
-167,-516,-35,17,-19,241,-294,-379,-85,-508
-25,-181,110,99,45,85,-355,-454,-340,-476
94,27,208,168,132,-1,-173,-328,-447,-396
345,175,240,174,147,-73,-122,-78,-143,-217
317,110,101,91,151,-20,-107,41,277,-102
148,-51,-78,9,254,491,-26,13,642,-4
17,-168,-260,-82,300,1428,9,-47,719,119
-40,-153,-286,-127,345,2400,54,-119,529,88
-97,-95,-113,-36,379,1896,9,-134,190,-71
-71,35,129,153,375,351,-127,-231,-315,-55
-155,-74,-20,21,156,-526,-196,-280,-620,-46
-417,-396,-267,-180,109,1702,171,-102,-515,-347
-298,-204,-102,71,712,4294,1136,501,423,-373
-126,1,-218,115,804,2341,2033,932,1758,-331
-933,-865,-1093,-595,-514,-1126,1689,473,2588,-1112
-2086,-2092,-2262,-1736,-2882,-3314,413,-536,2200,-2118
-2051,-1708,-2416,-1944,-3541,-2468,-845,-1137,1333,-2119
-1379,-769,-1618,-1279,-2514,-691,-1361,-863,890,-1487
-641,-370,-563,-440,-417,334,-921,-208,-82,-797
426,403,566,463,1858,32,-132,525,-1111,315
1299,616,839,616,1466,-862,529,621,-2215,1648
1914,1050,1129,737,356,-1581,115,88,-2914,2289
1966,1485,1403,1043,269,-1741,-674,-393,-2593,1837
1295,1063,1063,856,358,-1428,-926,-540,-1976,996
833,709,789,638,498,-1197,-925,-309,-1206,698
627,361,500,422,421,-783,-443,-18,-643,709
431,182,265,195,185,-491,-121,27,-454,570
341,379,285,177,110,-291,-135,-26,-412,424
323,462,435,258,255,441,-100,-81,-351,319
343,392,184,174,384,823,2,-107,-330,215
288,228,98,112,382,595,203,-48,-278,70
237,281,220,182,264,46,224,58,-75,65
30,341,286,231,226,-178,93,31,-17,30
-217,474,547,241,31,-308,102,42,46,-42
-373,724,685,188,-133,-502,312,50,55,-205
-446,8,287,70,-110,-231,715,53,33,-343
-194,-583,2,39,-112,204,898,230,255,-120
69,-456,2,58,-47,535,618,283,376,40
92,-343,-119,-7,214,613,257,181,336,54
86,-46,-236,-111,247,350,-176,80,329,161
200,488,9,-19,-29,-255,-546,159,479,398
121,698,205,-46,-260,-656,-629,128,450,350
-19,228,109,-148,-266,-682,-662,-29,267,122
37,-473,-65,-115,-144,-451,-426,12,274,-21
149,-664,-185,-77,-54,-94,-76,125,335,17
334,-449,-249,-60,-4,7,11,115,285,93
514,-52,-125,33,63,27,37,79,215,106
332,157,3,149,151,117,47,44,271,33
-184,72,117,238,279,372,115,196,485,-225
-460,176,71,216,357,780,236,422,690,-385
-332,250,-176,51,325,884,437,605,971,-246
-300,325,43,-78,111,669,424,450,775,-124
-411,455,331,-240,-350,-60,107,113,478,-205
-596,-186,-99,-546,-611,-647,-142,63,1039,-447
-596,-637,-437,-648,-634,-846,-321,47,1614,-515
-463,-444,-364,-492,-501,-891,-380,282,1470,-347
-378,-303,-174,-235,-280,-563,-213,271,307,-225
-68,-147,166,125,68,-32,-15,-118,-1275,157
334,128,404,392,414,553,112,-425,-1975,646
234,116,314,388,547,1033,73,-498,-1652,309
-57,-114,75,288,794,2150,61,-329,-981,-224
-227,-299,-97,220,997,3409,109,-200,-535,-442
-293,-436,-219,80,873,2734,81,-140,-280,-456
-252,-611,-347,-33,470,745,121,-86,-232,-403
-146,-687,-477,-227,-466,-1048,202,-109,-356,-278
25,-483,-394,-255,-726,-1603,247,-267,-459,-38
203,-124,-312,-159,-373,-1435,143,-309,-327,194
329,239,-294,-197,-389,-1487,-141,-196,-67,356
425,552,12,-74,-445,-1681,-241,10,255,552
356,668,290,77,-319,-1204,-180,12,238,408
197,425,352,120,-226,-811,-158,-33,113,190
91,12,157,-74,-278,-524,13,39,124,100
46,77,-36,-169,-60,667,73,-31,48,-1
64,260,-78,10,517,2120,82,-84,58,-11
173,34,-22,188,715,1637,98,-19,127,46
220,217,-73,232,645,356,92,-8,113,-146
68,467,-247,57,121,-828,-51,-170,-105,-302
-49,232,-258,-227,-508,-857,-229,-208,-366,-39
-212,39,-18,-275,-724,-220,-144,-116,-202,-27
-283,109,242,-94,-283,-184,-114,-61,14,-49
-177,-23,294,-40,-63,-651,37,19,141,266
-157,-549,-21,-233,-361,-948,120,79,147,218
-84,-536,-103,-204,-344,-948,33,115,136,-51
120,151,204,-14,-182,-607,-95,95,137,-116
195,383,294,55,-51,-386,-120,49,151,-33
65,264,143,11,-17,-28,0,114,198,-67
-23,140,133,159,219,1475,338,145,131,5
75,20,176,332,495,2454,1126,243,187,70
312,-205,209,549,937,2033,2201,479,350,44
274,-585,50,523,945,1575,2784,509,273,-30
86,-863,-288,236,291,1188,2201,451,169,-86
-113,-876,-749,-205,-333,587,532,278,-30,-219
-281,-349,-929,-408,-421,-493,-1482,-329,-428,-454
-715,-17,-925,-558,-419,-1480,-2642,-800,-438,-662
-636,755,-93,-331,-358,-2234,-2700,-467,646,-384
-757,629,256,-446,-698,-2193,-1726,-61,1896,-440
-948,-101,75,-642,-1156,-1900,-1085,-67,2205,-593
-646,-559,88,-398,-918,-1291,-797,-6,1235,-336
-263,-382,223,-2,-238,-272,-478,11,-395,-93
212,134,482,420,615,287,-115,-94,-1484,230
398,417,504,471,652,249,75,-43,-1330,379
464,594,208,300,318,106,132,206,-554,447
496,372,71,205,226,365,285,520,55,588
166,-269,-194,39,239,787,387,694,426,130
-125,-305,-356,-63,349,824,379,644,596,-161
-70,124,-63,76,364,663,434,375,436,10
16,412,233,185,262,678,819,49,92,82
39,419,223,-19,-32,419,1060,-241,-611,62
89,16,12,-183,-346,-18,469,-422,-927,86
108,-236,-134,-154,-677,-601,-636,-836,-1133,141
0,-380,-299,-254,-929,-503,-1062,-1139,-1614,-31
-304,-533,-434,-436,-1066,-471,-1071,-1005,-1392,-441
-64,-293,-55,-81,-493,-714,-855,-455,-471,-110
320,-92,222,324,973,-205,-276,-178,-72,312
396,59,363,407,1266,10,25,-74,-72,260
338,165,252,205,312,-160,111,71,-62,219
348,220,42,14,-157,-185,257,336,206,341
150,-243,-212,-102,-39,72,299,227,111,113
-33,-510,-131,-54,93,108,167,56,32,-143
-146,-333,-99,9,211,237,10,4,237,-291
-83,5,-61,144,296,457,10,74,577,-128
-31,192,-5,200,287,491,6,273,697,141
-2,248,-13,159,225,811,55,348,315,247
105,523,104,105,206,566,71,294,102,314
129,338,64,-48,59,-52,251,465,748,375
137,-24,71,-65,-112,-445,311,507,1150,211
37,-132,105,-113,-318,-702,-11,500,1017,-8
-37,41,-29,-248,-428,-636,-197,337,149,-63
218,656,213,4,-202,-496,-206,-154,-859,92
376,573,370,346,174,-181,-15,-439,-1075,178
224,-15,275,364,253,72,106,-259,-426,84
67,-129,10,106,39,155,53,-30,267,-81
-23,-30,-240,-36,-31,378,46,93,803,-163
-142,5,-393,-104,6,378,75,144,859,-197
-425,-13,-342,-205,-43,173,15,89,231,-487
-626,-347,-136,-216,-103,-112,-64,100,-105,-680
-484,-113,143,-202,-203,-347,-38,148,408,-521
-495,-174,47,-311,-541,-589,-14,235,1251,-405
-605,-699,-305,-373,-614,-320,116,452,1367,-409
-475,-549,-457,-326,-404,470,276,535,305,-295
25,-142,-224,17,313,1791,384,179,-825,250
761,201,218,385,948,2278,498,-330,-1232,1306
860,280,438,409,604,1037,420,-591,-1449,1149
648,342,437,297,76,-355,195,-642,-1374,532
518,364,323,149,-236,-628,-203,-689,-956,493
310,246,216,88,-102,-135,-383,-681,-830,259
-36,93,132,56,67,-227,-75,-258,-534,-121
-29,543,436,308,293,-252,386,165,-163,-163
-51,597,462,323,207,217,651,153,-57,-183
-348,8,-36,71,68,975,372,-69,182,-386
-330,-78,-305,17,249,2053,-163,-271,709,-405
-311,-283,-337,-68,390,1932,-9,-283,697,-428
-175,-475,-192,70,519,533,294,-162,-14,-229
108,-309,-76,144,-1,-608,375,-114,-705,6
368,-106,-2,100,-369,-837,168,17,-794,199
291,42,-79,-121,-201,-287,-465,-166,-659,192
-97,-201,-340,-440,-300,21,-779,-488,-612,-139
138,72,-177,-221,-167,-753,-542,-209,-104,149
593,890,140,142,17,-1201,-24,199,428,591
425,1111,217,194,205,-698,-25,40,226,389
-27,904,119,58,426,-526,-159,-129,-71,-37
-445,-69,-337,-273,-140,-879,58,-8,25,-282
-560,-397,-481,-409,-729,-1430,297,228,442,-351
-441,-610,-168,-205,-663,-481,1042,527,829,-326
-511,-1094,-242,-140,-331,1597,1494,621,860,-444
-534,-1010,-650,-253,71,1683,1032,939,1286,-490
-478,-513,-878,-459,-45,235,-169,739,1573,-459
0,297,-337,-294,-246,-1301,-1377,-12,942,-13
145,657,309,-51,-198,-1790,-1676,-573,-289,-5
-27,681,753,97,-260,-1504,-1456,-628,-1206,-200
91,519,970,316,-213,-1048,-833,-464,-1506,-62
361,231,788,474,99,-253,-286,-341,-1206,285
475,241,626,565,580,1765,301,-114,-562,470
239,184,383,443,774,4297,1068,-139,-401,248
-448,-532,-421,-229,-50,4609,1415,-532,-857,-255
-842,-950,-768,-613,-772,2515,1040,-678,-947,-724
-879,-933,-491,-434,-921,9,-204,-693,-757,-1010
-773,-739,-237,-267,-585,-1515,-1177,-548,-531,-1026
-733,-750,-388,-394,280,-2118,-1101,-266,-237,-765
12,-197,-115,-216,307,-3031,-727,285,500,245
648,198,145,-106,-494,-3122,-357,695,1214,904
764,234,184,17,-518,-2375,-363,622,1278,961
645,289,23,43,-191,-1479,-508,247,867,843
440,293,-69,0,-15,-949,-376,191,422,564
347,159,94,75,45,-581,-58,241,54,299
376,35,245,225,161,-125,115,220,-178,315
510,177,342,379,379,410,166,128,-165,447
618,230,430,480,607,662,105,270,106,475
264,250,411,430,528,699,37,238,47,107
-65,241,298,396,373,107,-20,122,-51,-159
-10,272,240,354,260,-329,64,66,71,5
-90,149,110,106,48,-316,132,-50,186,16
-153,-26,28,-3,77,-212,457,119,455,-87
-141,-305,-96,-94,-24,420,1652,510,704,-82
-278,-419,-245,-248,-420,1456,2649,420,521,-251
-384,-435,-436,-363,-794,2040,2352,49,-65,-474
-208,-185,-250,-75,-274,1956,566,-268,-654,-367
-259,-174,-226,52,468,1537,-1490,-756,-1137,-516
-325,-486,-523,-163,647,1123,-2480,-1087,-1229,-631
-22,-499,-451,-145,971,457,-1825,-595,-460,-99
312,-84,-17,-5,455,-685,-808,-3,279,362
514,249,242,107,-27,-868,-296,415,693,483
480,122,94,141,-25,-366,10,620,727,459
386,66,-45,180,35,-323,7,496,287,340
191,143,33,113,-98,-889,-224,156,-150,106
-52,38,44,-25,-305,-1459,-454,-288,-356,-176
-57,351,131,-9,-230,-1500,-456,-296,-136,-276
48,337,50,-21,-67,-944,-168,-42,271,-222
169,163,-65,36,70,-529,62,143,593,176
149,349,36,122,106,-105,308,243,638,461
127,1074,354,300,364,1060,740,357,636,429
61,1092,292,289,455,1266,1169,350,265,264
-162,465,249,266,602,1211,1313,234,-174,-73
-462,290,289,291,715,2186,1381,81,-355,-375
-793,-171,-168,-165,-277,1826,767,-352,-500,-608
-961,-524,-702,-655,-1280,200,-337,-801,-855,-931
-655,-268,-558,-623,-1465,-1083,-1283,-723,-876,-781
-171,-104,-151,-338,-954,-1401,-1666,-517,-343,-132
-37,-384,-1,-185,219,-23,-1425,-424,45,117
185,-268,148,-4,981,-167,-879,-11,645,346
383,-298,45,-149,215,-1429,-213,360,909,520
341,-455,-194,-334,-530,-1911,-18,381,1019,344
127,-469,-249,-266,-451,-1529,-223,317,1102,17
147,-173,-160,-117,-244,-1044,-57,367,660,25
359,149,-122,89,96,-358,296,412,-99,314
491,300,126,351,522,442,332,345,-484,681
449,267,288,375,572,640,166,63,-643,700
294,121,243,255,546,919,55,-215,-786,302
118,-104,62,95,346,856,70,-126,-489,-52
-242,-796,-319,-162,-52,380,76,-112,-391,-533
-680,-1273,-736,-543,-840,-423,-152,-477,-1030,-1178
-413,-1089,-549,-404,-1176,-620,-187,-415,-951,-890
73,-350,-287,-56,-840,597,43,-96,-376,-370
195,364,-188,130,79,1836,276,10,-130,-134
282,1180,449,322,897,1340,253,-107,-89,189
228,1333,758,213,619,-384,109,-115,-69,362
170,793,661,78,-82,-1524,128,139,135,387
190,183,443,76,-297,-1323,125,243,297,362
240,-208,115,139,-140,-854,196,243,312,390
214,-298,18,250,132,-356,279,300,415,268
103,90,-70,226,199,-151,242,296,479,-7
-10,340,-183,51,42,-303,196,309,561,-121
-114,430,-183,-130,-84,-347,131,243,666,-18
-260,479,358,-50,-52,-173,481,249,552,16
-256,631,1032,130,104,511,1247,340,451,131
-107,149,715,107,216,1206,2016,403,403,411
48,-253,282,156,248,1370,2301,439,338,531
96,-182,170,220,8,873,1399,318,228,322
-464,-339,-51,-9,-183,618,-107,-319,-296,-511
-762,-419,-133,-64,164,567,-1345,-718,-736,-871
-493,-513,-303,-164,307,940,-1538,-576,-694,-601
-428,-721,-611,-243,690,1614,-1403,-334,-398,-410
-159,-364,-209,113,888,1226,-1199,2,42,-198
204,36,191,171,173,461,-808,208,447,31
195,1,49,-76,-317,829,-406,230,314,-115
-145,-273,-347,-385,-434,711,-289,156,31,-536
-338,-287,-416,-347,-9,369,-413,-46,-445,-599
-331,-150,-173,-153,301,-18,-665,-491,-898,-493
-22,-31,33,-61,-131,-1585,-742,-551,-353,122
229,55,9,-103,-440,-2444,-357,-68,207,587
184,48,-86,-183,-577,-2455,-140,360,131,355
302,347,22,-65,-387,-1842,-97,531,-18,320
495,741,63,17,-151,-1160,63,461,-4,443
344,553,28,69,-183,-843,245,0,-202,270
27,13,-112,9,-554,-389,1264,-212,-348,-39
-150,-232,-264,-114,-824,428,2794,21,-202,-267
-228,-199,-410,-228,-1015,1795,3373,197,-10,-450
-219,-143,-209,-7,-217,2970,2211,195,148,-429
-94,51,65,272,778,3211,-151,7,65,-358
-280,162,-196,52,1050,1952,-1833,-453,-445,-552
-202,-153,-198,-8,1329,-14,-2031,-545,-242,-100
341,152,214,131,262,-2353,-1571,-230,93,570
582,285,443,120,-580,-3057,-978,-90,-57,767
619,253,519,186,-504,-2571,-917,47,92,735
338,-31,170,4,-224,-1250,-963,-33,131,395
236,-145,12,-54,-28,-755,-975,-27,392,234
142,-153,19,-31,-30,-678,-663,6,632,53
-121,-159,-23,-50,-71,-559,-509,-158,673,-263
-271,-16,-34,10,-72,-507,-414,-83,1173,-450
-118,-258,-222,4,-153,-95,-226,99,1505,-232
-79,-821,-535,-184,-148,1827,-218,-84,524,-34
-53,-1195,-605,-171,102,4698,-4,-60,-657,100
137,-970,-547,58,413,4244,407,123,-1147,97
267,37,-218,433,1053,1922,387,-193,-1561,-19
-51,930,-36,580,1919,-323,-81,-648,-1650,-425
-471,1104,-19,297,1479,-1653,-309,-809,-1352,-664
-304,391,22,120,89,-2131,-129,-429,-652,-154
234,175,586,243,-592,-2431,41,193,394,595
469,-123,709,60,-860,-2362,159,536,1148,819
527,-362,171,-283,-1065,-2119,186,713,1601,794
362,-191,-85,-283,-781,-1691,148,737,1652,506
-67,268,-194,-457,-848,-1347,125,603,1116,-41
-421,499,-326,-583,-868,-831,190,475,598,-396
-510,325,112,-366,-634,56,232,204,1,-372
-493,108,600,52,-67,741,219,-72,-361,-185
-340,240,653,265,620,1292,235,-212,-362,-40
-329,42,353,153,659,2624,588,57,-263,-194
-303,-286,61,4,288,2632,1096,179,-306,-335
-217,-340,-44,15,406,1825,1213,-231,-578,-380
-164,-259,-79,63,292,707,758,-469,-663,-450
0,31,43,99,-217,-94,14,-333,-712,-238
197,183,142,47,-183,-200,322,-88,-759,107
375,152,226,137,215,-543,917,98,-495,489
663,385,414,252,-95,-948,1005,377,-48,821
573,329,293,152,-479,-1122,295,401,142,648
333,227,142,51,-412,-1335,-905,38,34,378
10,-130,-179,-163,-319,-1067,-1544,-373,-238,50
94,-143,-80,5,38,-960,-1560,-263,-90,113
277,-52,93,162,199,-643,-818,8,142,221
339,-176,-116,80,72,-399,-317,119,261,237
253,-179,-186,84,54,-311,-145,127,291,162
-30,-207,-282,-55,-55,-155,-121,-64,27,-241
-275,-387,-614,-352,-352,-30,-20,-25,-141,-523
-320,-354,-566,-423,-417,245,351,260,177,-459
38,184,144,-19,-43,358,705,404,585,-19
296,248,379,281,440,404,1099,488,640,329
381,-102,122,213,315,458,1446,669,672,810
505,266,42,72,-116,505,1047,637,574,938
484,567,-20,41,-158,1049,67,209,193,630
84,308,-289,-190,-118,1083,-988,-394,-25,187
-321,-67,-541,-519,-433,58,-1723,-923,-148,-94
-466,-117,-458,-583,-893,-853,-1634,-875,-195,-169
-573,-77,-174,-349,-462,-540,-775,-433,-213,-283
-540,52,195,-88,163,653,-57,-212,-233,-331
-551,-131,352,100,701,1017,70,-167,-277,-607
-574,-299,348,257,951,521,111,91,-204,-867
-520,-235,347,289,476,-60,2,-29,-406,-867
-125,11,521,429,350,-636,-120,-190,-393,-520
306,272,613,511,311,-987,64,150,110,15
357,287,370,229,15,-505,259,285,217,368
249,475,371,221,114,3,180,182,101,336
24,332,126,17,90,234,90,180,250,100
-99,-106,-261,-295,-110,365,-4,353,1081,87
-28,-317,-191,-255,44,1617,-39,404,2214,229
82,-369,-137,-140,372,2403,-30,304,2395,387
120,-294,-218,-125,509,1614,114,237,1366,396
136,-113,-165,-79,300,-121,270,120,-128,415
94,260,98,168,43,-1664,231,-186,-1506,191
-207,290,108,100,-413,-2099,150,-619,-2206,-274
-406,-124,-188,-213,-926,-1837,83,-702,-2015,-567
-120,98,-16,-73,-781,-756,41,-425,-1254,-439
277,340,308,317,7,374,-53,-107,-440,-44
385,386,260,543,1111,740,47,155,9,86
329,370,-95,299,847,183,359,225,108,34
92,151,-558,-259,-461,-395,500,78,-40,-67
-81,186,-678,-409,-851,-24,286,-95,-105,-45
-320,140,-630,-334,-746,513,-49,-141,136,-263
-285,490,-324,-122,-450,457,-262,-51,728,-519
-265,651,-45,-10,774,237,-476,-48,745,-786
-79,495,42,-65,902,-675,-520,216,248,-525
214,145,32,-144,-167,-1326,-293,381,-231,136
551,175,378,195,-300,-992,-63,162,-430,780
615,231,578,475,160,-321,27,-133,-635,814
582,86,455,448,357,-8,355,-29,-296,720
576,114,233,325,497,928,1026,282,90,586
384,183,159,232,552,2223,1246,450,329,460
202,320,200,172,448,1946,806,427,375,342
-14,238,199,-2,149,585,-130,189,202,71
-525,-249,13,-320,-226,-16,-942,-310,-250,-486
-622,-656,-149,-380,-301,-149,-1247,-537,-347,-611
-263,-579,-127,-242,-293,-771,-815,-338,19,-323
-160,-617,-223,-190,-356,-1372,-280,-171,251,-277
-19,-500,-167,10,-244,-1237,230,-38,338,-74
179,-374,-94,16,-264,-511,515,56,275,328
384,-239,-174,6,-52,-71,515,268,90,586
441,183,-137,108,109,-204,55,368,59,510
178,137,-116,63,10,-369,-379,152,58,326
31,202,50,122,28,-557,-659,-60,-96,149
83,188,220,191,108,-431,-445,-202,-207,229
86,289,327,256,316,45,240,-348,-303,276
-43,161,202,191,477,982,1094,-129,-1,95
-258,-513,-433,-143,221,1787,1628,100,287,-246
-398,-767,-647,-282,-108,1634,1051,140,165,-525
-344,-385,-321,67,-28,308,-441,106,56,-525
-569,-92,-342,-142,-428,-488,-1234,-72,-27,-533
-659,-110,-421,-610,-796,-812,-1511,-317,103,-422
-435,-259,-114,-509,-418,-1022,-1027,25,816,-21
-533,-151,285,-288,-141,-735,-378,319,1049,-180
-302,-97,483,-56,-229,-641,-293,141,377,-182
11,-248,282,120,-104,-479,-254,30,-223,-175
60,-296,105,161,64,-290,-92,153,-258,-397
-3,-358,52,137,11,-314,-8,-12,-747,-486
75,-221,79,225,89,63,215,-129,-987,-172
343,222,232,385,327,1154,546,-182,-788,488
449,696,546,530,723,2123,782,-89,-506,609
232,639,448,410,842,2010,597,-46,-243,243
140,246,134,169,454,1299,106,-87,-150,127
225,7,-21,34,250,755,-192,-85,-40,186
202,-198,-85,24,242,253,-109,-41,6,166
69,-156,5,-16,108,-471,158,59,-5,65
-110,-171,1,-129,-232,-1005,38,-217,-236,-138
-216,-243,-151,-270,-626,-1116,-78,-427,-368,-120
-384,-287,-273,-427,-788,-806,132,-318,-320,-241
-454,-63,-133,-238,-416,-857,112,-67,-35,-300
-429,127,157,50,106,-907,-40,81,190,-286
-158,117,165,-3,-105,-620,-299,275,364,-80
56,41,11,-164,-359,656,-314,276,463,129
75,-8,-49,-126,-62,1024,-329,132,514,273
42,74,82,70,348,180,-323,112,533,118
-41,131,39,2,-63,-864,-287,30,234,-176
223,333,-159,-77,-329,-1092,-108,147,149,37
311,218,-351,-100,-100,-191,58,227,9,86
244,128,-124,130,515,1076,396,245,-159,77
469,667,137,425,940,1668,1108,464,16,208
653,665,41,344,825,1300,2108,810,559,374
817,475,-15,216,473,439,2507,665,877,631
633,233,-99,70,30,-352,1486,121,996,558
66,326,-422,-331,-514,-592,52,-159,1214,28
-302,599,-451,-502,-667,-897,-1442,-251,867,-234
-529,-44,-291,-491,-629,-1326,-2044,-379,-182,-154
-490,39,340,-205,-406,-1503,-2068,-589,-1171,-302
-154,66,833,262,-4,-992,-1389,-467,-1532,-279
-139,-327,508,290,51,35,-649,-492,-1536,-249
-362,-619,-128,-20,-434,234,-497,-566,-1285,-416
-372,-697,-354,-192,-659,368,-3,-396,-763,-354
-300,-569,-201,-58,-426,864,649,-243,-342,-190
-181,-381,-62,181,224,981,840,-130,-155,-158
-41,-343,-76,291,1288,814,684,137,40,-96
64,-376,-148,200,805,-130,-6,160,243,10
66,-442,-349,-172,-394,-1012,-587,79,402,40
186,-234,-414,-238,-560,-1231,-744,197,402,117
227,34,-171,-6,-149,-725,-376,337,320,138
58,-115,40,26,88,248,6,422,224,60
-155,-29,259,26,273,1887,206,187,-222,-198
-64,606,630,165,612,2898,102,-276,-680,-169
90,455,465,142,617,1426,-50,-361,-500,147
28,218,130,57,329,481,213,-158,-224,-1
-281,313,95,38,-89,413,413,-134,-304,-519
-572,-236,-257,-202,-466,216,407,-247,-420,-721
-492,-620,-442,-389,-488,-370,257,-117,-53,-335
-233,-660,-301,-476,-765,-1197,-377,-83,243,128
-147,-997,-432,-531,-861,-1527,-815,-162,410,289
96,-756,-340,-269,-317,-1657,-761,1,862,524
422,-79,119,191,299,-810,-195,285,923,638
486,568,390,329,154,134,54,303,517,580
416,919,372,304,259,8,75,186,13,404
159,656,294,150,100,-569,37,29,-420,14
-106,310,225,-17,-143,-731,-61,-247,-626,-266
-120,144,168,0,61,4,-103,-449,-702,-367
38,-261,50,63,516,1345,111,-174,-386,-208
222,-502,-48,90,580,1268,380,121,-22,137
412,-357,105,181,237,308,280,185,52,542
344,-149,52,60,-158,-399,15,17,-6,297
41,166,-166,-217,-641,-495,-224,-320,-110,-44
-209,488,-165,-272,-440,-470,-211,-223,111,-4
-345,320,-53,-134,-7,-737,-26,255,723,-14
-424,-229,-110,-107,-24,-820,69,460,917,-232
-225,-433,-117,-79,-176,-662,343,610,851,-265
271,-233,109,202,118,886,1202,682,856,218
381,54,92,306,500,1745,1708,443,465,387
250,304,30,289,570,1137,1435,268,1,168
194,694,321,284,185,-313,173,68,-125,132
-82,584,165,-95,-346,-1314,-1098,-341,-509,-144
-392,-16,-247,-402,-465,-1248,-1547,-669,-872,-499
-74,-25,-57,-63,-94,-1054,-1148,-364,-510,-91
185,97,73,130,83,-322,-392,-68,-213,205
277,264,265,216,331,880,-74,-34,-70,252
302,420,317,250,576,1456,158,50,73,222
345,792,268,305,700,1291,754,217,126,229
128,640,120,226,514,828,1339,286,-24,77
-58,448,35,171,282,86,986,158,-191,-102
-330,-56,-34,-3,-123,-757,-62,-87,-331,-271
-519,-472,-136,-163,-499,-1406,-591,-213,-238,-424
-702,-851,-477,-485,-1026,-1227,-447,-481,-334,-650
-340,-421,-408,-349,-1052,-147,8,-328,-187,-379
-17,335,70,-26,-1008,1219,183,-87,-72,-201
-221,-186,9,-191,-585,1612,-281,-122,-194,-247
-422,-821,-616,-652,-249,690,-727,-399,-318,-285
-360,-851,-776,-795,-849,-588,-1037,-433,-290,-213
-226,-470,-359,-289,118,-518,-725,-271,-72,-244
-85,-297,-106,77,900,321,-311,-76,449,-136
40,-375,-242,-18,671,2621,-69,141,748,51
459,-82,47,242,1103,3714,103,367,651,491
620,144,377,438,1439,1635,175,429,486,861
365,186,340,250,603,-1219,233,136,-99,552
119,-19,45,-22,-384,-2754,223,-124,-322,156
149,-218,-195,-167,-590,-1834,494,-21,-167,57
286,-83,-164,-175,-554,-1198,825,355,207,126
309,115,6,66,-232,-1412,720,631,677,206
214,272,67,240,46,-1170,305,543,879,28
5,129,2,246,170,-605,-400,333,824,-214
-250,-18,-30,36,4,-103,-566,222,234,-398
-213,160,138,4,-14,-192,-613,-114,-656,-348
285,517,553,335,189,-551,-525,-263,-905,140
266,307,479,251,44,-408,-110,-191,-604,323
123,172,191,142,83,-48,453,50,-204,312
67,355,255,234,372,198,1633,336,78,233
-247,82,198,111,60,562,2766,408,-49,-165
-552,-278,-120,-117,-475,1954,3041,423,-148,-478
-699,-510,-237,-65,-575,3299,1572,133,-213,-683
-786,-685,-364,-118,-567,3462,-866,-549,-432,-855
-816,-989,-682,-296,350,2886,-2740,-1074,-642,-906
-239,-724,-430,-21,1311,276,-3142,-725,-147,-333
126,-581,-346,-146,405,-2026,-2024,-357,139,17
160,-760,-691,-419,-543,-2972,-1047,-37,595,-18
143,-703,-881,-473,-718,-2689,-519,425,1244,-111
152,-519,-804,-286,-280,-1622,-290,657,1721,-245
298,141,-448,-91,-170,-1106,-293,456,1439,-223
360,670,-91,-5,-377,-1209,-260,122,243,12
349,1099,239,142,-304,-1236,-228,-224,-862,303
262,1485,746,314,22,-755,-115,-471,-1355,328
270,1147,1169,517,233,-457,-7,-409,-1073,618
107,469,893,294,-232,-255,61,-461,-843,676
-447,-237,-123,-369,-1429,-67,48,-772,-1008,99
-807,-521,-668,-591,-1909,1175,8,-877,-1111,-376
-633,-431,-426,-199,-785,2252,-67,-617,-589,-364
-386,-174,123,173,738,1813,-309,-636,-310,-268
-217,-427,406,216,1468,273,-380,-321,29,-74
208,43,765,339,1551,-1247,-181,332,548,382
652,564,733,172,447,-905,286,920,1058,909
723,380,379,-91,-225,503,489,987,1239,1043
337,27,109,-32,67,873,441,635,829,499
-3,-189,18,159,504,1217,391,318,240,-134
-67,-81,92,233,591,1099,176,26,-197,-429
135,451,174,257,472,-55,115,2,-216,-292
231,470,40,150,180,-1272,196,150,5,-44
30,-154,-121,-30,-128,-1675,178,175,150,-16
-129,-582,-208,-108,-182,-948,155,88,165,-99
-52,-417,-314,-165,-259,-471,173,144,467,-142
293,258,7,137,21,-540,171,185,352,73
633,844,504,499,321,-388,183,99,-247,429
612,790,464,418,144,-272,178,104,-391,744
302,567,295,192,5,-125,104,-57,-401,677
34,675,552,33,-161,-276,-150,-264,-338,287
-12,254,553,-3,-264,-493,-265,-212,-72,33
145,-288,246,34,-148,-297,-194,-61,165,171
101,-339,-22,0,-40,-63,-69,113,356,163
-25,-139,-57,35,193,852,170,171,179,-30
-129,107,108,185,581,2083,376,19,-264,-280
-306,302,100,162,637,1791,553,-22,-119,-450
-265,827,140,177,610,969,632,18,241,-383
-62,618,87,138,365,416,573,176,599,-142
69,256,-134,-83,-150,-179,265,406,603,18
-31,50,-343,-327,-630,-927,-98,475,413,42
-80,-256,-304,-257,-554,-1301,-437,148,-48,243
184,16,12,56,-110,-1124,-472,57,-372,446
259,115,162,124,26,-520,-78,72,-608,196
68,-163,-6,63,-55,9,506,43,-686,-230
8,-195,69,102,-74,1158,1689,225,-223,-314
17,-241,47,37,-4,2038,2596,374,232,-129
-36,-258,22,30,238,1915,2170,290,356,-144
-39,-128,171,224,282,869,188,28,189,-239
-332,-431,-220,-88,-218,2,-1552,-550,-357,-343
-715,-910,-866,-697,-646,-339,-2317,-1180,-996,-469
-168,-377,-519,-383,-122,-1241,-2225,-760,-586,166
263,107,-74,-11,72,-1396,-1055,-32,14,497
304,99,146,20,-162,-1351,-378,266,255,288
304,-12,99,-30,-224,-1225,-201,341,384,196
223,-78,-21,-42,-223,-807,-183,188,310,177
107,6,103,74,-170,-440,-165,-102,84,85
11,-84,157,85,-42,-123,-49,-111,193,23
-97,-268,1,-22,160,308,120,160,602,10
-187,-377,-176,-107,191,699,720,480,981,-16
-135,-445,-256,-80,147,1182,1623,787,1130,27
-167,-277,-399,-133,62,1675,1887,726,742,-79
-238,-69,-474,-132,184,1489,1292,259,54,-209
-221,137,-269,-33,15,585,118,-392,-653,-413
-453,-66,-338,-209,-488,-602,-1014,-868,-1166,-879
-292,50,-154,-193,-338,-1148,-1698,-902,-1095,-746
-42,77,125,-31,159,-941,-1346,-663,-775,-389
125,-41,299,147,258,-832,-979,-366,-435,-66
430,190,546,256,-77,-980,-777,-133,-139,451
498,341,523,241,-196,-806,-468,-131,-117,603
322,369,334,209,47,-365,-264,-121,-23,327
256,264,166,183,174,42,-53,-10,166,257
268,265,8,198,382,1147,214,161,283,301
183,194,-126,119,418,1449,380,278,286,288
-30,-243,-102,64,248,481,191,133,19,97
-205,-456,31,42,67,-512,-209,-155,-282,-189
-226,-582,-122,-93,-166,-882,-502,-366,-329,-186
-24,-579,-505,-390,-757,-923,-573,-377,-201,147
111,-457,-669,-481,-1186,-833,-508,-391,-132,262
138,-152,-495,-274,-876,-511,-236,-229,210,282
-4,-25,-313,-140,-480,-34,28,-136,306,146
-61,-35,-65,36,512,503,153,-66,52,-12
4,79,187,264,1243,1165,264,126,-71,-11
-135,260,232,132,450,1055,370,380,104,-138
-396,243,312,75,122,335,402,565,549,-385
-377,179,431,88,287,-261,267,457,595,-513
-222,170,324,17,181,-180,45,147,223,-474
-86,-128,42,-27,111,312,23,-167,-329,-261
104,105,-9,11,143,245,-1,-331,-470,15
231,465,105,66,140,-259,-16,-183,-37,353
437,426,41,116,148,-271,96,-1,493,848
548,310,4,-26,7,241,248,161,862,1157
428,20,-91,-245,-199,163,248,303,871,995
334,294,-167,-135,17,-10,206,387,833,462
88,483,-119,34,198,53,224,210,673,-238
-196,116,61,101,80,-59,136,9,165,-633
-446,128,209,121,-57,-54,171,59,-429,-1044
-329,809,279,177,-20,-56,247,282,-620,-1045
108,1360,311,275,174,-113,183,329,-659,-283
109,1071,283,200,151,-228,205,367,-585,105
-172,374,204,-35,-68,-307,126,285,-357,16
-301,-306,20,-168,-190,-114,51,76,-220,30
-363,-724,-152,-180,-240,77,-59,-84,-214,-230
-218,-587,-45,13,45,1008,-132,-277,-279,-344
-89,-318,120,274,431,1810,203,-185,-164,-210
46,-155,60,255,488,1242,1294,222,-4,-24
181,-148,-55,173,514,1038,2344,300,-184,178
80,-413,-331,-94,-92,1025,2487,110,-359,258
25,-510,-376,-211,-676,1152,1516,-74,-281,171
-68,-591,-396,-211,-749,1339,-64,-312,-302,-95
-561,-1060,-747,-460,-528,1120,-1635,-771,-678,-596
-214,-515,-312,-123,378,439,-2644,-638,-367,-226
-42,-136,-36,-225,7,-980,-2091,-323,-130,-121
32,-254,33,-261,-444,-2430,-1504,-153,0,72
419,21,299,118,-213,-2491,-932,18,207,721
268,8,196,88,-145,-1618,-559,-74,56,549
-27,-269,-21,-104,-195,-1147,-473,-135,-15,148
-150,-235,-10,-106,-252,-1032,-338,-66,89,54
-181,-190,28,-33,-201,-853,-174,57,183,-3
-171,-389,-15,36,49,-431,-45,78,124,-107
-162,-449,-67,33,126,-268,5,2,11,-243
48,-44,51,47,34,-452,-27,-16,-9,-109
208,201,186,164,90,-370,18,72,36,137
204,315,199,169,53,-295,96,230,244,260
168,500,267,112,33,-203,130,271,379,247
180,671,394,128,11,-187,89,188,276,172
88,504,326,91,-48,-79,12,20,32,-24
17,104,168,31,-155,-102,-80,-98,-53,-127
67,-157,32,51,-137,-36,-36,-7,203,-24
8,-408,-219,70,62,815,156,91,386,8
-166,-619,-479,17,340,1877,347,-18,141,-216
-57,-493,-443,79,422,1245,186,-204,-18,-239
65,-285,-636,-129,62,226,126,-79,318,-137
-146,1,-619,-316,-147,-405,62,24,552,-292
-521,87,-212,-368,-199,-138,38,-4,363,-468
-483,257,72,-420,-429,-23,160,198,404,-200
-231,472,325,-239,-127,-166,112,242,203,-75
-27,255,487,40,244,275,107,199,-181,11
158,23,409,149,267,512,54,158,-244,287
165,29,227,148,165,354,11,34,-451,257
-29,-112,116,142,63,-20,-45,-104,-600,7
-107,-136,96,95,-54,-333,-15,-226,-440,26
-8,-8,83,42,51,-437,80,-375,-334,21
187,95,27,9,74,-590,228,-207,-72,244
271,47,-136,-120,-125,-587,245,17,78,567
318,146,-5,-11,-43,-66,162,51,-106,570
287,193,165,167,210,1051,257,95,-220,323
253,109,243,305,528,1511,646,177,-133,192
-125,-121,95,137,377,1193,905,330,87,-192
-624,-233,-61,1,204,783,766,407,440,-719
-743,-195,-147,-65,-84,450,111,161,730,-801
-710,-400,-339,-291,-545,-270,-754,-108,619,-604
-519,-568,-430,-383,-327,-1300,-1204,-28,343,-401
-3,-318,-135,-117,-83,-1854,-934,132,65,58
461,-87,28,27,-147,-1453,-335,184,24,491
759,315,120,114,-120,-894,-163,-12,54,725
651,582,45,122,32,-337,-124,-238,-257,510
496,750,26,162,119,-269,72,-231,-492,245
268,394,-32,110,-22,-235,483,-174,-591,-43
116,79,-16,97,-181,216,670,-175,-606,-249
-49,140,-209,-130,-685,713,277,-290,-571,-351
-112,297,-234,-173,-591,862,-327,-349,-420,-305
-221,224,-186,-264,-425,664,-655,-515,-489,-339
-259,-171,-319,-357,-294,523,-743,-526,-465,-159
11,-182,-15,167,1205,403,-345,-125,-38,139
70,-128,203,433,1618,381,277,145,213,110
-65,-171,87,205,467,240,721,203,273,-36
-56,-90,11,46,-242,-59,758,279,355,-21
-5,-181,-74,-46,-359,-285,356,314,325,-36
64,-427,-165,-117,-211,-509,-102,212,257,-43
-58,-561,-283,-216,-211,-327,-457,83,325,-183
123,-245,-65,-13,7,538,-535,76,439,-35
266,-96,46,155,298,820,-163,158,559,240
182,370,208,209,403,398,54,229,491,392
0,722,342,223,342,186,-6,60,-126,200
-129,427,344,158,310,954,-24,-197,-673,12
-172,169,357,57,250,1280,188,-230,-544,-92
-77,20,201,17,82,548,660,42,-37,-4
-71,-103,28,-23,-77,-475,1026,203,299,12
-187,-246,-121,-153,-207,-908,906,149,256,-117
-152,-87,-29,-204,-381,-927,282,-1,-41,-164
128,12,77,-26,-396,-1049,-407,-106,-180,-57
233,-432,-350,-119,-402,-900,-642,-236,45,-38
368,-791,-663,-314,-588,-877,-700,-144,755,216
465,-528,-561,-164,-325,-725,-612,-16,1239,296
204,-247,-587,-102,16,154,-503,-61,995,-39
196,-73,-419,-7,279,1672,-313,215,509,151
128,689,143,124,259,1538,-77,261,-279,238
-200,1468,841,177,100,312,-86,-115,-1049,-182
-371,953,739,52,-20,-821,-313,-375,-1117,-373
-188,405,126,-84,136,-874,-345,-250,-496,-195
62,60,-89,-114,-232,-492,-186,9,155,242
281,60,61,-30,-467,-675,-201,40,93,688
179,-123,48,14,-272,-797,-101,169,-148,471
-100,-421,-220,-88,-200,-675,-10,173,-335,24
-210,-420,-252,-112,-277,-662,3,49,-483,-146
-300,-95,65,14,-237,-258,63,-113,-649,-349
-288,184,477,247,-21,234,-49,-360,-652,-411
-4,32,615,424,376,420,-45,-239,-327,-42
139,-132,520,430,408,217,115,101,35,144
28,-153,291,207,92,-189,115,289,180,90
-105,81,85,-44,-54,-99,303,522,309,51
-181,400,286,25,209,850,701,606,358,22
-250,280,390,-3,165,1131,844,368,253,-16
-235,-72,112,-110,65,1104,637,-22,125,-12
-280,-298,-93,-124,48,944,132,-136,376,-76
-368,-424,-129,-19,154,350,-577,-262,301,-316
-295,-478,-250,-39,90,-317,-880,-579,-471,-467
-47,-337,-208,54,10,-1024,-663,-493,-668,-126
215,-91,-106,121,-191,-1167,-186,-80,-244,261
153,-30,-279,-160,-645,-428,-103,0,-51,42
170,430,-149,-114,-302,415,-111,-106,-119,-69
73,451,-171,-42,-20,939,-70,-190,-121,-86
-199,-86,-235,-23,187,907,86,-219,-48,-139
-131,10,21,70,410,64,66,-61,296,-33
-22,4,92,-70,81,-658,-15,127,609,64
123,5,133,-90,-137,-1148,257,475,797,217
290,295,223,62,-151,-653,872,652,665,344
294,261,164,132,75,464,1202,393,176,328
195,21,224,127,220,1290,947,246,-50,160
156,66,271,185,382,1414,82,258,-174,-38
77,244,-28,30,389,660,-565,21,-348,-233
14,-26,-417,-183,187,-418,-857,-260,-406,-233
314,-43,-95,156,217,-1033,-563,-225,-155,157
403,19,-21,169,81,-624,300,-211,9,323
233,-55,-159,-52,-117,-138,736,-116,222,263
-35,186,-73,-135,-59,297,535,31,421,92
-44,223,78,-54,205,1978,374,332,656,233
-158,-132,98,17,567,4034,520,269,426,144
-313,-29,125,50,763,2564,380,-66,-64,-247
-163,192,309,204,560,-226,157,-105,-383,-254
-48,-38,258,175,-201,-2143,-642,-354,-720,-141
-111,-369,-143,-314,-1080,-2732,-1380,-640,-911,-163
-248,-688,-643,-828,-1428,-2687,-1474,-488,-548,-139
50,-477,-526,-556,-940,-2514,-1023,103,144,237
220,-195,-172,-171,-516,-1699,-393,333,419,348
129,-56,6,14,-271,-889,-245,136,248,115
-163,-42,10,33,-206,-365,-170,54,238,-240
-289,18,72,117,-79,72,-53,82,396,-366
30,140,219,342,341,410,44,85,141,-230
340,67,156,435,634,447,65,9,-340,-91
306,-31,-105,212,302,121,74,-9,-446,-77
164,85,-270,-1,3,-216,115,115,-15,-81
45,202,-227,32,127,179,123,144,358,-29
-34,234,22,105,393,1293,246,189,434,30
-155,116,-109,27,408,1322,341,332,257,-55
-245,-139,21,11,175,371,272,232,-70,-155
-22,-165,320,65,-71,-342,151,-80,-308,129
160,-119,247,-9,-271,-605,161,-207,-247,208
-18,-280,-113,-203,-431,-521,218,-224,-123,-112
-161,-177,-313,-215,-403,-546,184,-125,-99,-236
-417,43,-372,-237,-576,-39,-120,-272,-298,-424
-781,-189,-387,-390,-918,1102,-340,-668,-675,-681
-721,-116,-285,-371,-874,1327,-200,-564,-615,-648
-463,74,-155,-243,-642,797,-179,-259,-405,-548
-259,108,47,75,613,-23,-334,-232,-183,-293
-84,-131,44,283,1645,-599,-321,-167,133,115
117,-32,11,108,524,-1485,-293,188,558,333
297,307,150,-17,-427,-1744,-18,613,1060,454
321,462,116,17,-406,-728,175,561,674,359
218,305,112,133,29,583,204,89,-284,11
208,187,405,390,630,968,93,-77,-480,5
386,230,516,543,1012,506,72,67,-157,386
463,164,295,339,523,-125,160,218,188,482
221,-106,-64,-21,-56,-482,283,147,176,238
38,-213,-119,-170,-253,-212,306,-16,-42,38
36,-277,-150,-208,-133,624,209,-108,-220,52
65,-383,-212,-152,97,1025,202,-68,-200,175
22,-417,-266,-148,110,567,271,159,117,253
-43,-103,-95,-81,23,-234,209,411,436,138
71,105,95,105,18,-647,13,496,682,70
12,-250,-196,-63,-180,-538,-26,430,690,-26
-46,-479,-508,-225,-247,-412,0,282,427,-150
224,184,-292,83,83,-207,80,107,91,-83
308,711,122,294,307,186,172,-166,-284,-21
429,1693,389,296,312,144,98,-311,-306,179
228,1404,367,244,228,-67,-65,-414,-342,155
-179,438,301,76,-12,-227,-129,-372,-327,-71
-461,-338,349,-134,-370,-236,-179,-377,-250,-230
-418,-971,84,-205,-444,-107,-106,-310,31,-49
-224,-725,-65,-175,-397,-3,-38,-89,495,197
-39,-45,91,-119,-245,408,-71,64,800,208
37,118,150,-98,176,911,-87,47,446,92
-18,-230,129,-98,284,1579,-56,-4,-170,-3
10,-194,164,12,397,1601,41,-20,-346,62
-146,49,195,226,533,555,146,-69,-318,-78
-418,-120,-21,35,98,-442,606,29,-30,-387
-317,-188,-152,-195,-294,-964,1064,191,216,-365
-27,3,-67,-67,-220,-724,1337,617,284,-32
212,144,94,109,-84,-137,1294,820,173,213
151,64,103,168,35,557,444,404,-234,8
-243,-355,-204,12,229,2555,-579,-300,-754,-562
-276,-386,-168,116,690,3662,-1329,-520,-788,-674
-171,-223,-81,225,1134,2853,-1262,-539,-642,-503
-195,-166,-32,270,1040,475,-925,-712,-594,-437
-269,-250,-89,33,201,-2043,-727,-655,-450,-439
-222,-627,-424,-559,-1134,-3152,17,-125,-117,-309
49,-591,-459,-636,-1476,-2786,743,348,365,-14
495,-140,-161,-153,-829,-1950,557,419,506,515
825,383,236,272,-293,-1386,-125,256,313,892
614,360,168,128,-212,-959,-589,-81,-90,822
252,202,-119,-115,-279,-894,-807,-234,-133,625
127,660,15,-152,-272,-956,-700,-49,320,580
-46,62,-3,-148,-215,-556,-218,110,645,517
-84,-222,-31,-79,-66,-233,6,147,747,353
-82,104,48,-33,-30,-145,71,210,613,112
56,465,157,43,36,28,186,282,291,-94
235,527,149,190,232,413,303,317,20,-156
142,25,110,206,265,562,231,143,-165,-242
21,87,43,100,242,602,174,-83,-419,-291
101,395,218,170,146,371,-35,-147,-450,-102
147,694,327,223,101,147,-188,-134,-294,-1
-144,474,96,63,114,151,-129,-125,-128,-227
-409,-263,-111,-101,64,-45,-127,-105,160,-418
-327,-607,-312,-254,-289,-515,-116,8,299,-403
-186,-585,-223,-223,-405,-110,-176,26,-198,-254
-37,-274,162,56,-14,1633,-50,-27,-425,-55
82,-140,303,198,171,1961,-38,-165,-603,42
204,110,118,224,477,1061,31,-153,-467,115
26,164,-103,29,105,-75,-31,-158,-306,-90
-74,-23,-118,-91,-81,-759,-205,-217,-186,-108
67,223,14,-80,-29,-794,-82,-145,-112,115
149,343,196,-96,-302,-937,-11,21,73,186
255,276,305,-1,-274,-931,28,134,218,219
6,-21,47,-78,-195,-333,84,27,56,-12
-180,-120,-46,-4,50,98,20,-116,2,-124
15,153,165,217,288,211,-77,-135,70,122
-2,25,176,204,272,172,38,-14,-9,88
-90,-346,-16,122,262,139,176,99,-100,-6
41,-378,-141,41,138,-68,156,189,4,126
72,-274,-104,35,-16,8,10,84,107,126
-96,-352,-134,-88,-32,943,9,-32,102,-56
-111,-407,-127,-91,149,1337,195,12,119,-107
39,-266,9,25,295,798,327,86,158,-7
-18,-127,26,14,358,60,303,40,33,-115
-124,-117,0,-22,-4,-609,21,-90,-192,-229
-56,67,38,-40,-359,-984,-259,-139,-70,25
-7,192,-44,-34,-228,-779,-174,5,263,267
139,669,12,186,173,-232,167,213,410,209
170,689,114,317,353,124,386,181,303,-3
111,165,-3,186,189,24,305,239,350,-113
82,-357,-155,-36,-164,-186,44,225,247,-48
176,-117,-130,-128,-472,-357,-67,30,52,82
245,278,-146,-125,-413,-335,-80,-25,-187,173
303,532,-169,-82,-147,-121,40,174,-125,270
79,383,-95,-67,49,-4,-23,222,9,173
-225,-10,52,-106,110,126,-118,105,-41,-7
-322,-250,186,52,513,1680,19,-202,-364,-120
-427,-370,-142,63,753,3232,217,-345,-411,-272
-599,-352,-224,85,782,2642,179,-232,-244,-500
-544,-161,373,482,660,950,-136,-116,-8,-551
-278,73,687,636,260,-816,-507,6,319,-349
-400,-312,-105,-272,-600,-1585,-479,164,546,-270
-355,-535,-611,-943,-1352,-1785,-248,428,786,-66
44,-301,-394,-732,-1118,-1387,9,599,797,169
403,64,93,-114,-368,-999,52,523,549,408
341,71,148,112,-17,-673,-21,80,-251,260
188,-29,35,71,-27,-667,-122,-382,-914,34
257,-64,53,95,-56,-622,-108,-440,-786,179
406,-106,40,89,-156,-604,-9,-227,-344,367
363,-196,-17,122,-53,-429,56,-100,-138,239
359,-205,-64,188,111,-193,67,-32,46,219
404,-86,-26,195,157,-108,61,18,204,299
279,178,-66,120,108,-75,117,95,231,292
150,612,-7,14,-3,-50,202,182,215,220
-32,537,-28,-60,-49,10,236,208,216,44
-124,205,35,-78,-79,-2,247,269,466,-69
-161,-120,-8,-100,-38,105,160,366,809,-111
-253,-52,-96,-117,43,210,10,305,816,-217
-333,-298,-320,-242,-78,195,-171,97,363,-357
-271,-319,-291,-215,-128,262,-288,-178,-415,-371
-143,-217,-73,7,37,482,-56,-264,-820,-134
-101,202,258,241,240,577,270,-299,-760,-7
-208,423,480,335,528,1557,558,-358,-740,-102
16,486,331,213,568,2023,285,-254,-588,-2
112,53,72,72,138,94,-139,-271,-416,-42
4,-130,-297,-179,-299,-1139,-519,-421,-656,-224
-55,-500,-454,-242,-247,-1416,-847,-553,-968,-230
157,-411,-369,-74,-73,-1087,-368,-285,-262,84
314,-199,-75,45,-224,-1041,-35,52,167,390
370,213,157,63,-248,-853,51,212,345,545
220,365,251,34,-83,-328,97,98,244,405
54,88,302,55,32,15,105,-3,158,269
-77,140,358,92,85,136,58,-63,54,132
-130,278,303,5,114,739,137,-85,-28,-9
-124,-22,60,-22,254,1668,452,31,24,-84
-175,-284,-65,17,301,1770,765,176,123,-209
-267,-162,56,91,175,1048,671,162,212,-331
-488,-226,-30,15,-95,303,171,-132,17,-602
-746,-544,-433,-278,-145,-535,-445,-578,-318,-947
-664,-540,-638,-345,-148,-1118,-638,-684,-366,-946
-181,227,-394,-91,-321,-975,-420,-181,-27,-481
215,870,-113,107,-187,-107,-51,309,206,-22
291,946,34,190,350,554,50,288,213,109
283,812,-59,78,401,156,85,216,474,279
206,440,-180,-71,-56,-755,242,301,803,384
119,158,-325,-198,-314,-944,591,449,945,320
90,-189,-338,-255,-433,-294,750,607,1077,348
25,-366,-179,-155,-257,327,495,630,1039,223
22,-155,11,-49,37,269,-85,473,765,16
23,63,100,-128,11,-120,-493,44,-164,-184
261,393,313,-26,-36,-523,-498,-228,-702,77
402,635,456,167,6,-516,-150,-259,-736,395
248,293,450,225,8,-129,-27,-289,-762,209
202,68,443,221,25,81,-88,-258,-683,27
186,31,357,147,0,36,-81,-208,-572,-8
46,-253,78,28,-22,-62,-68,-47,-286,17
70,-12,14,6,139,-139,24,154,-38,81
-47,-13,46,-5,188,92,39,221,114,-4
-102,122,243,61,168,687,-135,88,256,-17
-16,69,292,94,230,1027,-189,-81,263,117
-21,-359,91,21,240,581,-174,-66,196,148
-102,-422,13,52,165,-118,-138,-123,-246,-68
-11,-236,83,99,41,-557,-77,-196,-559,18
211,-149,88,23,-192,-582,76,-12,-246,368
193,-234,-31,-97,-248,69,237,217,99,294
40,-357,-139,-123,-94,544,167,235,272,111
-66,-442,-224,-135,-119,477,-23,93,443,-24
-175,-542,-297,-153,-78,801,-222,-201,311,-241
-243,-492,-304,-22,316,1604,-248,-273,-128,-440
-196,-147,-141,226,812,1393,-107,-166,-445,-396
92,151,-30,294,486,139,54,-108,-512,-100
221,51,-78,44,-117,-837,121,-30,-416,4
140,117,65,-22,-282,-1361,9,123,-194,-90
-49,-6,50,-59,-260,-1173,67,340,151,-165
-112,-188,-43,-101,-298,-821,138,465,372,-200
-88,-97,-66,-138,-290,-545,63,275,293,-170
93,10,60,-124,-289,-695,-132,-78,204,157
240,290,249,-48,-168,-590,-233,-373,48,227
143,133,165,36,94,-26,-111,-344,-53,177
79,60,-46,34,306,528,75,-128,-67,160
126,324,-28,28,330,621,167,20,-56,114
83,-49,85,114,318,735,188,50,115,160
89,-229,46,97,201,512,323,122,368,236
14,-156,-141,-40,-61,251,277,137,221,201
-216,367,-116,-41,-174,329,123,-100,-378,-131
-511,390,37,-51,-220,190,-37,-352,-790,-564
-478,-100,-11,-53,-227,-652,-273,-315,-547,-455
-164,-163,-64,-63,-213,-893,-182,9,-168,-24
27,-310,-89,-34,-19,-52,-70,176,120,115
-51,-628,-184,20,155,258,-69,99,139,-68
-204,-668,-164,14,61,-211,80,36,90,-213
-239,-515,-237,-34,-120,-83,255,-57,-12,-192
-104,-283,-118,26,59,1587,203,-224,-227,-69
3,-78,14,-50,177,2233,-132,-207,-128,32
147,351,232,6,424,1027,-311,-53,408,316
-49,-39,-55,-146,135,-514,-382,-6,978,266
-246,-373,-432,-557,-777,-1816,-395,168,1505,17
-137,-261,-381,-590,-1013,-1944,-170,474,1618,79
-34,-185,-174,-344,-602,-1219,41,652,934,130
-113,-247,-45,-128,-225,-660,107,504,-314,-147
-323,-429,-103,-82,-87,-326,51,128,-767,-570
-240,63,84,38,60,-169,210,-134,-251,-568
27,555,230,173,225,17,508,-37,255,-563
-131,64,-9,86,109,140,506,214,-37,-843
123,265,156,216,53,98,112,159,-553,-304
709,966,595,475,211,187,-313,-459,-1189,1044
838,1348,565,483,378,411,-470,-735,-1362,1330
574,1121,286,336,378,655,-216,-459,-900,579
364,304,34,130,212,643,153,-200,-516,342
214,218,78,23,82,223,185,-98,-283,302
-112,296,295,19,-23,161,46,-139,-214,33
-151,4,230,0,-189,798,6,-65,6,52
43,-337,56,-16,-2,1216,-14,92,264,303
4,-361,-31,45,691,838,-63,56,168,250
-120,-201,49,58,350,-256,-332,-273,-251,31
-83,-100,79,-40,-370,-1349,-561,-402,-323,-64
-9,-51,70,-97,-563,-1589,-364,-142,-23,-54
96,259,27,-4,-93,-841,-39,52,158,-53
153,374,-2,58,147,-220,100,125,330,-56
-57,-143,-16,63,140,273,72,69,457,-113
-118,-267,-97,116,334,951,134,59,463,-130
19,-246,-131,167,692,2367,294,130,185,1
179,-196,125,298,919,2857,351,167,-127,135
201,-270,103,183,489,1425,290,129,-275,81
40,-334,-209,-27,46,477,118,21,-245,-91
-253,-231,-386,-179,-280,336,-73,-231,-339,-402
-588,-259,-474,-366,-444,-317,-209,-324,-395,-683
-553,-205,-221,-352,-564,-1500,-242,-5,-32,-419
-190,-32,59,-268,-839,-2267,-217,290,275,-81
165,-45,109,-233,-674,-2070,-199,282,319,-14
439,36,195,-87,-233,-1404,-104,92,227,121
572,618,235,51,-59,-936,23,-11,193,249
471,1075,203,140,37,-687,88,87,204,314
88,841,38,118,69,-437,112,147,161,263
-261,774,-35,-89,-155,-291,17,54,111,47
-419,56,59,-171,-295,-228,-94,-47,118,-112
-220,-843,34,-70,-104,-161,-22,60,278,24
62,-875,26,9,62,-38,147,250,390,182
200,-377,64,97,226,503,324,312,316,164
235,118,15,118,312,849,377,213,61,210
184,392,-23,128,341,850,267,88,-106,176
27,22,-52,115,262,622,2,-2,-151,123
-151,-142,54,52,78,218,-269,-235,-323,-14
-183,-534,-41,-47,-107,-226,-351,-376,-429,-260
-49,-811,-196,-40,-135,-567,-222,-222,-261,-187
94,-380,-120,14,-95,-515,-122,-80,-74,-16
79,-54,-93,-34,-79,-257,-61,-7,41,129
-23,18,-163,-73,-86,-186,27,165,167,206
-13,571,92,7,-62,-233,66,226,210,183
-1,960,385,12,-47,-165,6,61,123,103
-139,305,275,-85,-124,-95,-93,-107,-32,-15
-139,21,134,-88,-101,-20,-70,-60,-23,-57
-128,-35,86,-34,-60,38,29,90,44,-92
-200,-101,-78,-47,-127,69,36,136,49,-206
-120,-146,-73,-48,-193,61,-19,68,42,-190
34,-47,34,-11,-214,36,6,37,84,-26
60,32,94,65,-33,150,26,-136,-8,46
25,74,152,198,322,231,25,-202,2,11
-63,-72,3,121,210,215,59,-79,103,1
-145,-191,-105,-92,-55,279,130,44,93,-17
39,185,-71,-33,49,185,142,125,67,37
218,454,30,116,243,33,140,180,93,125
62,-43,-50,47,160,-18,303,355,267,115
-69,-163,-139,55,357,349,653,440,480,-13
-66,-92,-146,82,427,787,794,455,864,-88
-104,-163,-189,-28,233,922,578,411,1175,-229
-218,-300,-295,-146,75,720,38,226,1029,-394
-477,-673,-593,-323,-105,14,-403,-36,306,-579
-605,-738,-633,-483,-572,-736,-648,-437,-814,-592
-286,-326,-282,-301,-693,-897,-629,-476,-1037,-117
-1,-184,-79,-66,-464,43,-121,-334,-812,293
313,49,214,314,293,1133,80,-351,-805,532
380,196,376,469,890,1436,61,-368,-692,413
344,187,353,231,333,732,-55,-307,-493,312
373,331,169,-9,-227,-222,-175,-191,-309,304
503,652,152,-45,-275,-755,-317,-25,-103,419
443,412,2,-146,-446,-858,-275,45,-32,492
205,13,-116,-196,-440,-789,-195,-21,-124,345
77,160,22,-129,-161,-596,-82,-19,-124,121
-49,373,208,-9,49,-411,46,63,-112,-133
-223,185,203,138,285,-260,43,57,-144,-332
-151,-34,118,257,374,-182,-14,59,-99,-317
5,-64,53,161,67,-207,-34,150,62,-165
58,-41,54,81,-5,-179,10,140,111,-72
126,35,55,78,80,-89,97,38,64,14
218,-24,-41,47,106,141,191,-30,42,148
185,-139,-132,-7,84,351,204,9,101,211
73,-57,-89,50,107,321,25,-33,47,116
-67,-286,-176,61,25,168,-111,-103,-53,-8
-94,-432,-308,-74,-40,40,-261,-255,-199,-196
6,-311,-343,-99,3,49,-201,-158,-43,-225
176,20,-211,4,58,357,-12,153,197,-8
130,58,-1,1,33,540,-1,185,240,10
54,-15,-71,-40,230,503,86,253,270,2
-53,-111,-307,-70,53,342,135,276,157,13
-205,-36,-393,-93,-206,203,130,197,63,-102
-228,1,-239,-97,-232,-192,34,122,274,-122
-103,-48,113,21,-20,-105,0,-23,367,-37
-16,13,363,173,295,765,244,28,156,48
14,257,402,152,497,1138,587,155,-56,72
-133,133,258,78,470,687,683,123,-98,13
-303,68,294,111,163,142,267,-66,14,-133
-465,-63,243,-50,-359,-431,-352,-423,-75,-376
-562,-416,-227,-388,-575,-869,-622,-558,-136,-430
-317,-111,-223,-340,-446,-1339,-619,-160,67,-199
-62,97,-1,-84,-145,-1140,-340,172,56,-11
25,-34,13,33,92,-685,-252,145,-42,101
97,45,46,63,0,-612,-221,82,-231,166
84,53,67,3,-106,-266,-140,-17,-403,0
142,-262,101,-17,-111,112,-90,-241,-541,-97
189,-334,26,47,107,473,-52,-409,-555,-71
228,-93,-61,50,216,356,-86,-251,-382,95
274,328,92,23,95,-145,-141,3,18,289
70,479,143,-5,132,-234,3,128,447,230
-67,576,-19,-117,47,-190,119,204,517,102
-124,58,11,-139,-211,-109,157,150,352,111
-3,-175,71,46,-33,263,304,65,197,198
-30,0,7,109,207,412,355,-70,104,-32
-352,-91,-152,35,234,249,272,-123,96,-437
-520,-370,-163,143,289,148,239,29,433,-620
-300,-415,-198,90,63,78,143,247,1087,-430
-173,-338,-168,-80,-44,-147,-90,325,1246,-228
-12,-44,129,-88,-288,-486,-87,317,695,-1
145,123,135,-71,-452,-410,-14,212,-171,97
330,65,39,92,-179,51,0,-88,-1220,91
574,57,139,309,163,479,-116,-292,-1212,362
683,40,247,405,533,1207,-76,-215,-737,583
413,-142,-10,217,655,1942,161,-48,-387,333
137,90,-254,18,453,978,207,38,-215,110
-25,397,-320,-121,103,-353,111,45,-89,50
-359,366,-246,-293,-427,-1073,-231,-283,-318,-208
-644,142,-14,-366,-679,-1225,-556,-626,-660,-540
-774,-247,163,-311,-725,-1007,-612,-694,-779,-762
-497,-255,159,-71,-382,-273,-342,-333,-328,-452
40,530,140,173,256,1195,79,151,236,-45
169,621,74,218,632,2249,303,411,438,6
280,464,62,188,768,1542,447,491,653,117
364,178,-130,-45,116,-224,356,500,782,340
302,-188,-342,-191,-352,-1455,185,495,560,446
304,80,-228,-48,-256,-1454,87,377,259,315
381,390,21,74,-248,-1048,100,151,-25,359
60,-40,-107,-104,-382,-703,293,186,47,354
-296,-411,-203,-159,-238,-358,464,263,193,143
-365,-496,-28,-133,-131,-208,372,204,354,-116
-345,-452,22,-113,-20,-20,212,146,610,-288
-409,-347,-69,-119,26,38,66,157,457,-429
-255,130,-34,-114,5,111,-139,239,33,-315
-5,212,114,-9,2,234,-298,29,-428,-45
112,-86,192,46,30,571,-310,-381,-787,148
323,-87,220,150,310,1188,-267,-492,-601,341
343,-52,340,319,685,1194,4,-326,-264,331
199,-36,383,248,432,570,227,-222,-185,-8
134,-10,188,77,-61,-384,197,-144,-104,-229
126,106,-6,71,-269,-883,22,-140,-57,-171
84,-93,-193,-64,-470,-907,-178,-118,-61,-5
52,-578,-292,-232,-517,-947,-288,-6,4,128
199,-642,-264,-155,-315,-912,-345,180,315,316
280,74,-215,-85,-217,-557,-205,105,391,223
166,426,-165,-41,-79,131,-76,-68,336,49
-63,611,14,49,153,797,-95,-189,296,-227
-305,423,233,119,216,564,-118,-202,317,-549
-155,-96,335,186,180,-15,-38,-69,130,-342
-14,-150,322,151,2,-549,-108,-27,-275,-93
-145,119,163,-38,-246,-456,-203,-174,-643,-128
-258,183,60,-133,-253,58,-172,-202,-738,-202
-153,466,197,82,139,285,-74,-97,-510,-130
-116,441,320,319,543,479,-33,-39,-181,47
-268,-204,-13,186,481,344,19,-10,-42,-27
-292,-295,-212,-9,208,288,219,250,278,-83
-176,-147,40,-44,-1,932,273,514,767,-27
-117,-335,-107,-216,-251,944,171,602,1067,-34
-86,-497,-358,-365,-384,322,104,354,707,-73
-22,-399,-353,-309,-432,-537,36,-154,-47,-127
162,-227,-192,-116,-462,-986,112,-364,-331,42
330,-98,-21,56,-316,-632,408,-469,-657,334
295,-156,-120,-60,-409,-164,933,-399,-822,342
112,-109,-123,-117,-508,556,1254,-108,-554,112
-7,145,187,126,-50,1205,892,-13,-403,-18
-60,187,333,298,656,935,44,-134,-357,-110
-139,112,155,98,420,-54,-846,-292,-340,-191
-90,5,-2,-93,-194,-1250,-1221,-207,-77,-67
45,-38,-38,-136,-446,-1771,-1197,-167,226,75
299,-12,120,3,-193,-1331,-970,-117,476,267
254,-213,152,61,0,-628,-479,-30,326,272
220,-42,106,93,26,-391,-207,70,63,254
184,199,90,55,41,-182,-46,162,-6,237
117,218,38,18,97,0,1,180,120,192
45,95,-13,45,115,18,-18,141,286,135
47,-153,-84,90,120,-19,-57,116,342,86
72,-492,-149,105,182,65,12,145,236,16
109,-576,-235,76,240,162,43,150,-89,-4
155,-315,-330,20,277,255,9,99,-465,39
198,153,-221,43,373,400,122,85,-149,220
261,495,5,60,295,420,214,159,83,392
13,348,43,-47,30,537,125,19,-148,15
-288,-1,30,-145,-110,553,-19,-166,-366,-295
-395,-349,29,-70,-68,511,-12,-274,-338,-315
-278,-24,336,140,54,69,-134,-321,-189,-197
-69,567,508,171,137,-422,-198,-271,-48,-1
74,447,243,7,-62,-573,-95,-137,58,94
227,570,13,-16,-79,-433,137,108,213,130
260,472,-52,-22,-73,-193,303,250,278,126
155,157,157,43,-41,-100,160,133,143,38
184,37,255,161,151,381,81,79,120,52
167,-9,98,157,379,1844,414,167,244,64
-177,-197,-146,-32,231,1928,703,49,94,-224
-426,-250,-230,-95,70,905,753,3,-62,-436
-228,243,-13,17,-79,-103,258,-90,-215,-379
-136,110,5,61,-41,-317,-326,-262,-485,-347
38,-103,-235,-142,-79,-195,-255,-89,-124,-14
301,-92,-332,-303,-458,-552,-79,226,444,379
386,154,-23,-125,-456,-907,1,368,668,448
74,106,-7,-56,-220,-785,-153,106,326,96
-201,-144,-64,-114,-94,-812,-344,-13,141,-133
-384,-28,178,-163,-294,-835,-440,-35,315,-314
-572,-219,-3,-264,-296,-304,-353,-47,322,-481
-370,-229,-25,-71,147,800,-205,138,336,-353
-162,21,172,130,452,1211,-49,146,-52,-308
26,207,279,283,625,758,-33,-157,-678,-171
117,179,258,365,720,453,44,-345,-773,196
192,361,209,383,690,612,175,-290,-555,324
-6,198,-238,43,234,510,419,-197,-359,-31
-275,-353,-769,-319,-369,-38,589,-205,-255,-388
-151,-791,-501,-31,-467,-568,284,-190,-42,-302
5,-798,-383,43,-435,-63,157,41,257,-109
132,-500,-439,-88,-232,1297,54,361,540,129
89,-121,-419,-87,199,1714,-185,183,292,189
-186,111,-253,-83,451,934,-177,-59,143,23
-192,829,248,-97,131,-428,-120,3,333,56
-57,804,666,109,178,-652,71,71,156,260
-132,63,665,137,346,534,349,11,-235,268
-217,-211,393,-63,31,766,210,-74,-416,78
-31,17,494,105,-298,-197,-193,-167,-423,67
-81,-233,141,-164,-620,-1293,-418,-323,-474,-27
-181,-514,-311,-485,-695,-2033,-353,-234,-399,-127
50,-367,-305,-328,-463,-1855,-303,70,-135,28
323,-116,-95,-90,-227,-676,-233,369,192,267
303,-10,43,24,25,1,-207,416,336,241
232,32,172,172,284,-315,-108,298,414,208
55,-36,95,210,382,-381,73,10,440,16
-177,-170,-157,17,234,-90,137,-7,646,-172
-307,-285,-364,-171,-7,107,212,170,549,-245
-339,-300,-392,-158,-176,-233,0,184,24,-360
-345,-159,-270,-53,-325,-675,-378,-100,-463,-545
-176,100,23,55,-299,-892,-691,-485,-497,-307
39,232,162,-1,-398,-942,-558,-256,-82,49
170,199,212,57,-246,-564,-190,79,223,198
331,139,249,154,58,-391,-107,-74,39,479
276,56,146,10,-146,-429,-24,-261,-443,504
135,4,73,-22,-264,5,170,-153,-489,245
-1,-48,25,59,2,817,265,73,-152,-61
76,25,143,274,596,952,336,214,198,44
326,203,139,290,545,413,457,354,452,362
484,443,32,162,98,-129,539,364,416,489
244,57,-15,99,25,-258,384,96,2,300
180,-149,34,187,122,-137,23,-142,-288,103
267,-404,-95,107,-64,-137,-301,-198,-237,-26
16,-794,-453,-199,-179,575,-120,-98,-120,-162
-84,-502,-390,-147,-8,1169,205,-3,-71,-216
153,107,-145,183,591,1784,241,43,-23,-56
355,529,51,360,1046,2466,160,111,109,186
364,1128,349,300,761,1672,-40,87,92,171
174,1224,453,103,86,-20,-120,162,-5,-30
135,817,215,77,6,-1096,-58,225,236,41
-83,81,-312,-191,-176,-1249,-166,161,609,-58
-543,-957,-743,-576,-600,-1125,-309,117,1103,-417
-601,-1114,-872,-698,-767,-1005,-263,291,1604,-499
-271,-754,-837,-600,-792,-997,-170,569,1494,-209
-115,-289,-413,-310,-430,-874,-89,527,587,-40
66,732,378,72,-7,-560,59,-134,-974,230
316,1564,1156,435,88,-451,7,-786,-1903,494
213,1228,1338,542,85,-405,-17,-663,-1375,262
80,333,811,315,-2,-275,24,-342,-718,111
13,-269,289,42,-136,-180,8,-223,-392,168
52,-266,140,-31,-158,-61,17,-158,-239,306
184,16,11,11,-12,142,149,-38,-99,423
173,72,-94,91,254,495,495,95,30,456
-42,257,6,114,409,724,788,95,22,142
-152,474,184,128,311,743,934,189,63,-120
-65,168,273,170,241,603,841,302,156,-203
-57,-43,204,158,224,532,550,157,39,-283
-235,-183,-10,-32,12,1116,211,-191,-259,-500
-305,-336,-90,-80,28,1485,-155,-248,-128,-473
-321,-348,-39,18,200,1210,-406,-83,287,-285
-451,-467,-85,15,287,297,-634,-85,159,-293
-434,-474,-169,-111,48,-548,-771,-174,-297,-370
-164,-560,-267,-274,-421,-865,-605,-153,-528,-261
-43,-486,-375,-399,-591,-1097,-457,-145,-427,-180
59,-270,-349,-360,-574,-1261,-329,59,203,13
261,-71,-169,-142,-307,-837,-203,178,685,259
347,-76,-22,124,122,-123,-137,-48,424,339
363,-99,5,186,185,53,-41,-173,26,353
331,-188,-71,170,190,115,-80,-198,-238,291
180,-539,-253,137,404,1043,-127,-242,-430,140
100,-697,-382,-3,148,1102,74,99,-217,140
-107,-546,-333,20,63,538,129,164,-205,-111
-246,-190,34,244,238,-283,-154,-137,-424,-389
-433,125,126,164,111,-946,-156,-238,-331,-516
-453,665,202,-168,-401,-1035,66,-58,-178,-491
-143,982,423,-229,-673,-794,224,383,346,-228
132,458,341,-98,-230,750,366,806,903,132
69,-183,69,-97,378,1726,452,838,954,234
-180,-410,-274,-348,-70,487,187,430,555,76
-75,-36,-209,-289,-447,-230,319,-50,73,153
-29,40,-166,-129,-305,1182,1235,-174,-375,24
127,110,163,244,530,2088,1666,-163,-452,-118
294,245,474,520,1057,1320,1242,-161,-343,-85
166,202,362,333,261,-627,-3,-187,-216,-114
-55,-11,24,-22,-431,-2046,-1107,-227,-131,-169
-167,-155,-487,-414,-582,-1962,-1605,-372,-139,-221
159,79,-331,-203,-208,-1617,-1444,-149,238,59
367,-18,-104,61,38,-1202,-705,203,660,325
327,58,-157,20,13,-623,-286,257,645,276
180,181,-205,-53,103,99,-199,-15,133,104
101,-58,-244,-58,231,619,-192,-221,-349,110
-30,-81,-96,-84,191,370,-200,-203,-424,95
2,407,318,21,36,-287,-259,-304,-395,69
-8,396,312,101,-114,-780,-365,-338,-275,-29
-7,135,141,55,-208,-736,-356,-192,-234,-79
78,80,177,68,-168,-198,-41,-15,16,100
3,139,318,166,61,162,163,78,39,217
-56,108,352,259,233,201,172,122,-1,214
-229,-65,90,148,225,1002,144,59,12,-88
-366,-219,-157,10,227,2143,199,47,18,-302
-199,-261,-211,85,406,1828,160,47,200,-233
-112,-305,-145,107,369,815,23,29,504,-192
-99,-549,-257,-106,-173,-408,-93,84,690,-241
-78,-775,-449,-342,-536,-778,-147,-40,474,-215
74,-526,-424,-388,-536,-524,-49,-154,-24,182
249,187,-93,-178,-338,-550,105,-73,-536,439
308,926,209,135,271,-706,173,38,-563,494
234,1197,175,173,317,-809,82,53,-299,432
210,1172,116,28,-88,-972,-38,114,64,317
129,793,314,116,-181,-939,-21,113,240,121
-16,-155,325,256,0,-472,96,163,346,-6
-122,-714,29,174,143,-10,249,186,409,-86
-45,-336,-93,41,64,-80,257,184,514,-104
136,375,15,39,34,-264,181,141,647,-35
54,415,60,-22,-180,-338,72,86,514,-120
-68,-8,-275,-205,-352,-65,107,88,136,-196
76,-91,-400,-255,-329,471,118,-13,-278,-115
197,-43,68,-1,155,744,-55,-225,-726,-110
315,-240,353,262,477,424,-111,-187,-825,-15
649,25,384,297,80,-262,25,196,-208,491
579,427,214,90,-91,-166,150,311,212,726
14,450,16,-68,46,431,186,102,-33,288
-454,509,112,-52,107,479,-4,-96,-388,-396
-551,329,352,34,37,103,-178,-214,-580,-661
-551,-241,256,91,30,106,33,-94,-429,-640
-557,-417,37,19,138,201,453,73,-173,-425
-196,-342,12,65,205,4,668,199,120,65
240,-184,113,192,172,-117,727,514,665,317
318,-183,-12,180,229,191,452,528,918,207
91,-550,-546,-95,152,977,194,267,677,43
-73,-737,-917,-298,-2,1754,86,-44,257,-55
100,-477,-600,-138,152,2995,-13,-145,16,20
178,-202,-204,136,578,2470,-235,-241,-183,-90
0,-45,-109,41,482,198,-620,-540,-415,-336
-164,30,-133,-292,-398,-2262,-888,-646,-680,-434
-206,261,-76,-427,-988,-2718,-452,-488,-762,-355
-31,463,25,-268,-719,-485,299,-72,-372,-25
147,942,270,26,-47,1454,560,158,-89,219
64,768,651,239,481,1662,241,244,139,296
-308,258,687,159,561,189,-459,-98,-34,-6
-732,-419,216,-258,-159,-1479,-915,-585,-475,-457
-650,-744,50,-389,-693,-2244,-944,-544,-390,-401
-297,-699,-22,-271,-647,-2008,-485,-145,12,-79
-44,-440,-26,-159,-423,-1430,-46,197,250,173
93,-255,-67,-64,-213,-793,111,377,310,317
131,-116,-214,-47,-109,-301,88,266,168,313
166,52,-130,44,87,-181,60,113,66,275
192,17,-12,111,251,-13,85,149,164,223
203,-273,-37,166,514,998,44,74,209,215
263,-237,-98,183,641,2225,-52,-90,93,199
168,55,27,166,447,2324,3,-143,-125,-84
-56,158,209,171,151,1234,244,-156,-273,-356
-163,-38,148,155,19,-260,218,-113,-2,-274
-65,-30,110,93,-165,-1422,126,28,499,34
-136,-82,-176,-268,-559,-1733,255,144,743,17
-225,38,-184,-368,-630,-1386,361,172,457,4
-82,-34,56,-152,-481,-741,279,215,53,238
114,-70,49,-71,-376,-167,19,206,-182,419
-31,-256,-246,-182,-289,-26,-159,-6,-379,173
-147,-353,-347,-155,18,-19,-417,-359,-607,-122
-105,-124,-104,73,259,187,-457,-482,-630,-186
-58,179,255,343,342,610,-346,-521,-557,-254
63,284,381,432,430,723,-162,-347,-319,-165
156,165,220,258,404,296,74,13,35,-42
-41,-101,-111,25,387,-142,113,68,-17,-235
52,-1,-208,-73,-73,-732,245,312,123,-88
180,125,-214,-85,-386,-787,397,526,265,86
-12,-177,-311,-118,-478,-568,369,602,557,-42
-149,-380,-279,-161,-556,-183,498,830,1299,-101
-149,-250,-146,-110,-376,580,705,844,1448,-100
-348,-340,-199,-59,312,1077,887,379,398,-327
-388,-239,-256,39,966,1113,699,-174,-747,-402
5,230,29,152,547,620,-85,-364,-842,11
301,458,391,247,70,200,-686,-532,-605,262
287,122,389,238,-15,-467,-1027,-646,-468,159
340,-160,29,-91,-330,-875,-705,-306,-119,389
676,369,-234,-238,-412,-409,-306,42,140,759
664,699,-221,-110,10,667,-155,133,-84,444
460,926,-109,151,593,1020,-42,147,61,45
215,678,37,173,319,147,-91,71,-38,3
93,480,325,232,37,-877,-207,-83,-91,71
35,383,402,231,44,-826,-191,-40,133,49
-65,-19,226,202,354,736,-54,152,402,12
-162,-396,50,174,555,1156,-5,267,377,-20
-186,-415,69,151,501,753,87,300,241,-146
-210,-363,1,100,380,983,325,199,-27,-239
-188,-208,-213,-40,191,767,495,-9,-322,-41
-26,121,-244,-173,-129,-18,284,-103,-221,234
-149,-4,-213,-273,-404,-984,-78,-116,-164,127
-384,-48,152,-248,-494,-1390,-393,-279,-396,-163
-439,146,313,-336,-691,-1296,-436,-376,-534,-315
-266,201,169,-283,-594,-1072,-295,-212,-325,-151
-188,-127,90,-116,-344,-684,-29,10,-77,-45
-50,-207,180,-8,-268,-481,156,120,6,-38
230,376,276,136,-195,-505,234,139,104,29
305,545,280,243,149,-110,200,-70,33,94
236,200,160,205,234,142,27,-201,-3,89
189,14,78,233,297,366,-164,-228,79,15
204,-322,-72,145,313,984,-212,-194,131,0
211,-619,-322,-73,58,1089,-108,-63,88,53
221,-425,-300,-48,248,654,78,87,43,82
134,-162,-175,27,284,-75,220,211,397,30
-229,-309,-408,-220,-234,-663,44,211,707,-196
-457,-477,-569,-431,-485,200,-44,230,897,-295
-423,-677,-611,-417,-188,1787,131,110,605,-272
-262,-578,-318,-154,143,2079,353,14,128,-105
168,-104,257,295,644,1899,788,-45,-429,208
469,248,319,445,647,1335,860,-244,-690,411
472,398,165,261,209,118,613,-139,-481,550
59,337,194,100,15,-1000,132,19,-284,222
-365,483,218,-101,-537,-2161,-670,-154,-316,-252
-524,-21,-186,-380,-899,-2708,-1121,-488,-447,-469
-321,-191,-266,-375,-704,-2293,-1131,-347,-198,-356
-92,61,114,-100,-394,-1487,-652,-57,109,-121
-24,51,333,90,-171,-781,-263,87,544,-53
-34,-31,109,67,-48,-215,-62,186,953,-44
-115,-155,-293,-92,-75,106,88,229,805,-50
-150,-283,-450,-154,-17,101,73,250,333,-62
-114,-340,-270,-59,104,-123,-3,328,29,-138
123,-102,49,82,170,-193,56,311,-203,10
355,141,181,210,309,243,207,120,-497,357
413,335,261,302,420,397,264,-49,-740,426
362,422,370,363,469,507,274,-32,-575,257
236,298,178,284,329,675,131,-50,-346,117
97,-55,-75,168,264,543,-110,-242,-400,19
7,-260,-178,-52,12,-183,-324,-326,-383,10
3,-21,-126,-157,-321,-901,-440,-344,-319,17
-27,178,110,-102,-382,-466,-204,-269,-231,-1
37,198,288,-76,-329,464,120,-95,-42,43
195,28,222,-38,27,816,245,122,194,148
129,-86,107,70,346,598,326,295,339,70
100,-104,-60,105,469,1554,736,619,594,15
311,-123,-58,176,757,3099,1232,887,857,205
273,-216,-126,100,719,2326,1277,771,629,147
54,-212,-379,-170,222,329,701,320,142,-55
-196,-19,-622,-416,-411,-1036,-268,-580,-510,-165
-578,268,-309,-456,-818,-1388,-1053,-1105,-806,-462
-797,519,290,-354,-1024,-1992,-1339,-919,-534,-616
-715,321,368,-224,-834,-2059,-1017,-454,-87,-476
-321,-61,383,89,-289,-1230,-659,-51,319,-141
23,-195,303,179,51,40,-338,116,449,91
33,-204,42,-1,236,1054,-23,53,191,9
-150,-236,-159,-189,1,884,122,-153,-179,-180
-269,-142,-82,-92,-141,-130,-72,-323,-307,-187
-139,151,77,-3,-115,-884,-181,-240,-327,-55
87,260,144,-49,-91,-1005,-41,18,-191,55
107,-50,62,-53,34,-518,121,162,-44,116
88,-151,26,7,128,422,182,189,131,97
34,-79,18,115,292,997,194,191,198,-5
66,45,121,322,663,758,310,207,242,95
176,156,198,426,905,737,628,232,202,193
99,44,61,233,542,1120,876,184,24,58
38,-82,-61,8,19,781,831,348,259,61
42,-78,-70,-40,-190,215,432,510,825,113
-127,-226,-197,-111,-356,-472,-212,374,929,-151
-361,-557,-421,-349,-496,-927,-812,21,319,-514
-283,-581,-432,-455,-730,-1581,-878,-246,-339,-437
164,-207,-151,-204,-492,-1793,-531,-237,-546,-5
550,205,179,111,-107,-1123,-169,74,-271,384
635,334,355,372,162,-509,-112,93,-181,440
696,343,295,460,254,-256,-139,-61,-151,529
621,174,-77,235,248,0,-54,-208,-65,548
489,-5,-348,-33,139,123,29,-247,22,453
424,334,-17,53,115,228,-43,-167,131,376
194,283,135,112,135,364,-5,-59,96,234
-68,155,-81,-79,53,301,150,74,17,39
-303,-17,-164,-227,-58,-42,248,95,-154,-170
-536,151,231,-144,-271,-507,224,-74,-590,-465
-605,499,563,-36,-390,-225,288,-119,-658,-629
-284,242,363,27,-229,1084,490,52,-216,-270
-103,-171,91,0,-126,1819,416,124,142,-114
-216,-343,-63,-22,157,1604,71,-226,128,-245
-261,-349,-198,-160,-105,558,-452,-484,76,-178
-90,-308,-230,-153,-39,-243,-746,-362,-7,73
209,-11,2,159,593,-12,-429,42,-26,265
338,219,173,298,604,875,-21,127,-208,260
345,365,223,260,315,397,115,72,-215,151
293,297,114,164,164,-612,52,146,94,170
237,194,112,192,60,-1198,-86,175,395,262
-27,-75,-91,-3,-163,-995,-61,173,569,119
-289,-394,-366,-316,-401,-407,288,135,492,-207
-296,-545,-234,-225,-234,224,783,271,304,-384
-132,-199,62,70,210,1338,784,335,-70,-318
261,839,173,253,666,1608,262,202,-259,-77
343,1318,-19,101,425,510,-203,-153,-426,24
104,1060,-287,-244,-269,-1062,-450,-179,-329,-87
20,382,-270,-335,-561,-1820,-513,0,76,-84
44,-207,-22,-202,-422,-1447,-318,48,396,-82
262,357,158,-9,-197,-865,-88,44,446,-26
244,519,-84,-5,-90,-396,64,43,208,-6
60,665,-188,-11,34,-153,63,-1,-36,-195
59,1024,-22,145,146,-252,-29,36,-70,-224
87,839,71,191,180,-372,-23,135,-37,52
-120,-169,81,21,45,-247,-10,123,-59,5
-329,-407,190,-91,-120,-89,-92,86,-155,-103
-427,-336,377,-4,-65,285,-40,53,-193,-173
-423,-613,215,48,60,725,177,26,165,-159
-237,-409,78,87,336,640,276,-16,476,170
-18,-179,233,236,448,225,330,-85,407,360
25,-218,231,230,327,497,392,61,305,257
-11,-291,-12,59,252,1544,328,232,257,121
34,-230,119,144,368,1108,-15,127,118,29
-18,-289,145,160,228,-86,-208,40,-153,-89
-164,-562,-67,-22,-135,-922,-311,169,-163,-193
-287,-885,-412,-304,-383,-638,-164,329,64,-231
-78,-828,-534,-363,-528,-178,129,120,40,-7
421,-398,-311,40,-113,318,196,-252,-321,425
589,-124,-174,198,137,703,177,-202,-340,544
379,-60,-283,-68,84,761,6,-188,-350,312
151,-28,-187,-177,-32,479,-211,-366,-321,76
23,204,217,-48,-110,-325,-232,-466,-240,49
-3,369,380,-4,-90,-784,56,-282,-255,39
-98,121,297,37,-62,-618,208,-149,-376,-88
-206,79,292,62,-23,-255,156,-182,-487,-115
-69,247,270,27,-67,-110,81,-24,-268,40
-48,76,53,-129,-300,44,40,53,24,52
-8,-110,-23,-162,-437,-16,-6,84,152,106
-51,-288,-1,-2,-153,359,17,51,42,61
-225,-380,-48,119,250,761,-222,-169,-355,-210
-426,-579,-240,22,142,883,-588,-322,-519,-500
-405,-635,-474,-298,-493,234,-607,-68,-107,-435
-309,-412,-328,-311,-522,257,-202,170,66,-402
-410,-102,1,12,301,678,89,37,-94,-520
-300,49,65,67,707,108,-73,-192,5,-246
-213,35,-77,-202,60,-372,-209,-131,277,80
-40,316,51,-180,-342,-949,-233,-2,551,246
121,399,220,59,-68,-1034,-228,7,755,357
73,78,110,68,-21,-1085,-145,201,950,329
-121,-412,-263,-232,-323,-1122,-67,249,663,128
104,-393,-210,-217,-412,-971,-56,132,109,234
493,-165,55,-11,-269,-666,67,91,-303,480
641,-14,168,210,22,-345,149,23,-567,544
596,351,307,414,289,-116,100,-116,-566,489
520,638,367,434,304,-35,74,-119,-447,222
363,322,195,331,245,23,159,1,-196,47
88,34,59,208,206,74,239,58,-79,-86
-240,64,1,99,267,644,507,170,-23,-246
-335,129,29,125,614,3088,1671,527,164,-220
-335,167,-82,66,1019,5509,2811,645,204,-231
-391,27,-82,-57,959,4810,2993,525,212,-264
-649,-279,11,-124,501,2170,1686,77,180,-461
-1105,-672,-251,-160,88,-629,-716,-740,-170,-1027
-1402,-1138,-930,-734,-807,-2534,-2635,-1269,-658,-1529
-762,-750,-881,-940,-1594,-3853,-3109,-614,-212,-930
186,9,-208,-442,-1359,-3824,-1933,200,303,113
728,464,287,11,-777,-2926,-943,360,367,694
669,539,488,270,-165,-1731,-546,120,112,574
496,545,504,284,33,-919,-401,-115,-70,419
391,627,400,224,95,-534,-271,-157,-143,400
369,852,183,192,252,-324,-112,21,57,337
406,818,-1,145,268,-228,-32,151,98,320
539,719,-3,167,293,-13,15,165,57,411
685,563,45,200,349,199,13,146,110,661
587,161,48,177,255,135,-57,44,1,618
325,-159,144,162,124,55,-141,-42,-98,395
105,-275,122,88,65,206,-157,-11,-24,228
-62,-188,-56,-58,-36,199,-52,177,272,84
-208,4,12,-5,-34,67,54,345,503,-90
-315,-2,243,95,-14,15,154,382,461,-176
-437,-165,206,113,-68,-93,237,288,92,-326
-434,-255,-45,2,-136,-134,261,181,-279,-525
-197,-269,-149,-80,-156,-13,269,195,-195,-482
9,-328,-185,-86,-161,95,244,182,-92,-259
84,-406,-149,-8,-34,281,221,118,-78,-156
89,-498,-116,78,134,605,183,-75,-131,18
174,-421,-55,128,239,805,152,-188,-57,452
254,30,124,179,235,526,100,-177,-19,495
83,531,209,71,51,3,-2,-290,-239,112
-108,467,112,-12,-95,-205,-46,-340,-281,-84
-143,14,-57,-1,-103,-53,-152,-368,-282,-108
-170,-448,-262,-118,-266,350,-215,-379,-254,-94
-171,-626,-314,-196,-384,562,-191,-348,-199,-57
-164,-593,-110,-63,-122,754,-57,-234,-150,-155
-142,-170,-44,102,393,956,132,-39,-20,-156
-52,541,134,234,655,738,165,32,129,-22
-49,889,327,-31,34,-24,123,55,192,-27
-40,358,196,-228,-520,-976,56,155,352,0
-11,39,130,-132,-369,-1049,39,148,504,4
-63,5,89,-59,-134,-602,-28,-37,441,-128
-10,104,116,25,-15,-399,-101,-118,208,-145
58,100,28,47,-14,-326,-52,-9,-42,-91
-103,-97,-57,16,-5,-202,0,33,-286,-193
-170,-6,30,1,42,9,20,-136,-434,-222
-34,-66,150,125,204,131,85,-244,-419,-24
71,-164,59,157,217,38,259,22,-73,182
51,-135,-161,-29,-7,-3,323,284,105,212
25,13,-167,34,184,1285,492,302,80,176
-176,-207,-190,54,317,2559,786,145,-103,-70
-422,-383,-201,-101,262,1855,806,133,-34,-386
-825,-964,-642,-414,37,1111,474,356,665,-705
-659,-1022,-711,-398,-34,977,-30,730,1874,-462
-153,-573,-476,-342,-195,961,-360,779,1944,-85
8,-282,-455,-477,-562,-393,-515,361,711,-26
342,287,42,-179,-545,-2107,-503,-77,-628,251
571,451,326,128,-469,-2461,-438,-371,-1452,362
322,115,40,4,-430,-1568,-491,-725,-1725,81
134,23,-70,-90,-181,-740,-521,-786,-1276,49
