13,40,-58,-135,-153,-86,-182,18,27,17
4,9,-59,-124,-102,-102,-184,-5,8,1
9,-10,-85,-105,-80,-103,-141,0,-4,-8
6,-9,-96,-104,-55,-95,-87,4,-9,-27
3,-6,-124,-103,-78,-126,-135,8,2,-50
31,16,-54,-92,-80,-67,-128,12,26,-19
28,21,17,-102,-26,-8,-113,20,24,-11
-6,13,-2,-102,4,-50,-140,-4,21,-9
-7,3,-9,-86,51,-48,-151,2,59,14
-2,-10,-12,-75,51,-7,-180,-9,23,13
-4,-27,-113,-35,80,10,-161,-32,-4,-11
-6,-42,-295,-9,153,-38,-100,-25,16,-13
-10,-54,-126,-6,120,-33,-64,13,59,-2
-8,-17,0,-5,39,-31,-78,29,54,-7
-12,12,22,-12,0,-33,-139,29,24,-5
10,11,16,-47,-45,-41,-190,39,48,-15
52,39,-18,-49,-82,-101,-170,35,60,3
37,31,-54,-55,-69,-150,-178,15,62,32
-1,15,-64,-46,-64,-112,-211,6,53,17
-9,4,-66,-15,-48,-82,-157,0,23,0
23,30,-33,-1,-44,-87,-105,-36,-15,-13
28,26,-35,6,-43,-67,-89,-45,-39,-57
0,5,-37,-7,-54,-35,-122,-9,-16,-42
-14,-12,-31,-23,-92,32,-102,8,24,-9
-42,-28,22,28,-74,250,-10,0,11,-40
-41,-11,75,83,0,138,8,-18,-30,-59
-2,12,101,84,39,38,-1,-7,-12,7
55,14,113,85,74,-26,-17,-12,-16,53
75,-2,98,91,58,4,-5,-4,-65,28
19,-13,71,97,22,8,35,6,-69,23
-9,-8,20,87,-17,-23,61,9,-50,20
-6,11,-10,73,25,-49,52,-9,-50,-9
-1,34,-36,63,136,-78,28,-16,-29,-25
-16,8,-61,27,14,-135,-26,-14,-3,-23
-12,-2,-76,13,-66,-159,-66,-24,-18,38
7,8,-84,-5,-47,-104,-47,-13,-27,252
-1,21,-35,-2,-53,-48,6,-7,-37,164
4,13,12,-12,-63,0,64,-19,-54,41
19,-2,36,4,-77,51,80,-24,-41,40
1,-6,68,37,-82,83,39,-27,-40,63
-10,-22,69,47,-78,48,61,-2,-15,-18
0,-8,73,49,-41,51,112,12,12,-68
-3,10,97,75,4,101,172,46,67,-63
-36,0,113,73,26,118,197,52,76,-62
-44,-14,104,72,78,123,164,12,6,-112
-33,-12,90,101,109,125,116,-9,-68,-130
-34,-27,28,76,64,50,50,0,-68,-63
-51,-74,-65,1,-29,-33,20,3,-27,-23
-42,-77,-107,-60,-91,-53,21,10,0,23
-17,-55,-119,-80,-95,-25,48,27,11,58
4,-20,-112,-62,-111,20,82,61,57,61
10,19,-99,-51,-104,41,78,54,50,30
21,57,-31,-23,-57,58,44,26,31,-48
13,75,25,19,-5,23,19,-9,20,-100
15,46,48,-6,-26,-47,-50,-53,4,-101
17,-2,36,-63,-79,-84,-66,-55,61,-22
19,-11,31,-58,-94,-70,-26,-42,51,27
8,-8,51,-8,-38,-12,-12,-28,-35,15
8,-8,50,11,2,52,14,-2,-85,10
32,9,66,45,29,113,58,10,-74,30
-1,3,58,53,84,163,125,1,-76,29
-11,-17,33,75,149,171,195,-3,-72,8
34,7,60,108,182,110,163,-19,-37,-2
74,45,68,60,83,-5,59,-37,-12,2
45,60,16,14,-10,-31,32,-33,1,17
18,37,-19,1,-19,5,55,-20,37,11
14,30,-11,9,6,-4,60,-39,41,-19
-33,-1,-31,0,16,-37,-2,-55,-3,-72
-56,-24,-27,-20,-35,-60,-33,-31,-15,-65
-39,-22,-7,-10,-34,-49,5,-12,-10,-29
-14,-22,-10,48,4,-14,32,1,-28,-2
-28,-25,-60,57,8,49,67,2,-10,4
-23,-34,-89,49,3,98,108,4,20,28
-16,-23,-28,50,20,67,93,0,26,45
0,5,69,39,22,42,62,-9,14,13
13,-2,76,13,-15,43,87,8,14,-41
4,0,72,2,-7,24,100,42,33,-37
-7,-7,94,14,33,33,92,36,29,0
8,-12,94,4,57,50,86,13,43,15
39,-8,105,-23,54,53,83,8,36,-8
42,0,2,-39,2,6,51,12,8,-18
24,11,-47,-70,-34,-16,33,17,-8,-1
-15,25,40,-71,-37,-39,-49,16,-9,-12
-57,8,11,-60,-33,-57,-107,16,1,-23
-69,-23,-107,-56,-20,-24,-70,39,49,-6
-48,-25,-138,-49,-8,7,-73,43,78,7
-16,-7,-109,-20,33,10,-66,19,43,-1
30,31,-91,-2,58,-1,-54,-15,0,35
65,64,-69,26,85,7,-53,-47,-46,35
40,49,-26,44,109,26,-61,-65,-105,-10
-28,-14,-33,22,93,34,-43,-47,-101,-18
-53,-54,-31,6,96,49,-21,-10,-33,-19
-31,-55,15,11,108,69,-48,11,-14,-36
-25,-12,54,43,126,52,-72,2,-14,-93
-42,4,80,82,115,47,0,-8,9,-79
-31,10,65,79,90,41,67,-11,-12,-40
-7,15,55,66,45,17,64,-13,-8,-6
16,-7,-13,37,-6,-22,39,-34,-34,32
26,-26,-94,6,-30,-14,66,-18,-32,70
39,-15,-107,3,-46,33,62,42,17,86
31,3,-90,14,-65,28,51,72,67,61
51,16,-57,16,-65,-8,27,69,126,52
53,9,17,6,-75,-25,8,54,151,56
13,24,55,37,-67,-5,11,35,105,29
-31,37,33,57,-59,-6,11,7,11,0
-41,27,53,61,-44,-9,29,-23,-57,-21
-3,3,72,59,-3,7,46,-29,-67,-31
36,32,33,57,23,11,35,-39,-70,-16
41,65,25,48,5,9,14,-47,-84,-67
15,12,25,45,-35,-2,1,-40,-84,-72
113,-36,27,29,-33,38,3,-52,-67,3
171,-22,45,22,-34,140,-6,-63,-49,59
15,1,21,1,-37,45,-44,-72,-54,19
-138,-1,-30,-14,-49,-75,-71,-39,-44,-11
-141,-19,-68,-32,-56,-92,-51,27,39,-12
-25,-8,-83,-40,-56,-82,-34,61,61,2
66,28,-107,-30,-84,-88,-70,60,36,22
53,28,-122,-13,-102,-111,-99,27,20,26
18,8,-94,-3,-97,-106,-74,10,18,36
-22,-8,-54,-5,-87,-82,-30,11,25,12
-60,-6,-30,-25,-88,-74,-17,1,15,4
-37,-20,-18,-20,-75,-47,-37,-14,0,5
9,-16,9,-10,-46,-9,-41,-16,-18,-2
-18,-32,46,-15,-25,5,-22,9,-42,-24
-28,-40,45,5,-18,20,7,40,-34,-12
-54,-41,27,7,-29,15,31,28,-1,6
-61,-29,29,-21,-35,10,23,12,19,16
-4,-13,59,-22,-15,37,48,-4,25,10
57,4,110,0,13,61,63,-8,66,21
45,26,146,-1,18,81,37,4,83,17
10,30,55,-17,-23,47,-4,12,71,-22
43,12,-32,-38,-63,10,-36,16,46,-7
92,35,-53,-48,-73,-15,-59,-9,-27,-12
33,46,-49,-56,-79,-50,-76,-24,-77,-46
-14,31,-51,-66,-91,-67,-75,-14,-97,-40
-19,-8,-57,-71,-91,-61,-63,-4,-84,-11
-15,-25,-56,-48,-84,-54,-11,9,-59,-3
-13,-15,-39,-19,-76,-69,17,25,-28,-12
-11,13,-2,11,-54,-5,13,26,-5,-9
-17,0,43,6,-30,63,12,-7,-29,7
-29,-9,44,9,-4,53,28,-20,-22,3
-42,-24,38,17,18,47,28,-29,-41,-8
-39,-38,18,5,-13,34,42,-15,-39,13
-37,-24,38,18,6,46,79,-22,-19,19
-30,-5,63,44,30,58,95,-34,-4,8
-7,-3,43,44,8,34,76,-29,20,16
8,10,-22,20,-11,4,17,-10,12,9
21,11,-44,-2,-21,-9,4,-7,-6,1
39,0,-38,-7,-28,-5,-4,3,-9,8
37,22,-40,-30,-61,-18,-33,18,8,16
28,24,-66,-43,-69,-22,-67,11,10,6
4,8,-66,-42,-80,-17,-56,6,-14,10
-29,-4,-35,-47,-95,-25,-33,3,-34,-25
-43,-9,-28,-46,-78,-30,-25,15,-28,-47
-53,-19,-19,-53,-54,-3,-16,26,-13,-21
-29,0,11,-49,-25,19,-2,31,-19,-26
-2,56,45,-24,22,32,1,11,-21,21
40,84,68,2,40,35,-7,-8,-25,33
74,-13,30,-1,50,55,20,10,-14,36
43,-112,0,13,77,69,75,16,14,41
-13,-47,57,34,79,67,68,-22,6,2
-64,-4,118,4,39,29,11,-61,-48,-30
-68,-62,73,-29,14,14,-6,-57,-62,-8
-7,-60,-22,-50,15,9,5,-11,-36,29
36,-37,-100,-60,12,8,29,4,-48,12
64,-8,-159,-47,0,-29,15,22,-32,-14
70,17,-171,-19,0,-56,-23,39,-4,19
46,22,-95,-11,22,-83,-57,30,0,-3
-4,31,-39,-23,11,-121,-76,23,19,-60
-44,-5,-18,-18,3,-159,-49,42,114,-53
-36,-31,-31,-11,-15,-110,-6,57,184,2
0,-8,27,24,36,29,24,16,73,23
-15,32,63,56,93,92,4,-24,-43,-22
-51,24,68,40,112,105,-7,-43,-62,-60
-12,32,65,32,107,81,22,-38,-37,-39
68,40,51,23,83,23,54,-28,-57,-17
83,25,37,20,84,41,74,-33,-68,11
69,-2,51,47,104,75,53,-26,-59,11
60,-11,36,40,78,55,37,-39,-53,31
56,-6,-10,16,88,20,21,-39,-32,47
-30,-7,-51,8,89,0,-21,-12,-11,29
-90,-5,-63,-2,67,-8,-42,8,-21,8
-83,-21,-80,-28,81,-27,-48,7,-40,-40
-15,-23,-90,-69,57,-42,-65,14,-30,-69
6,-22,-83,-82,32,-35,-61,31,2,-21
0,5,-36,-55,42,-2,-6,92,52,29
-26,7,10,-30,34,0,0,64,59,19
-55,4,27,-22,28,-3,3,-13,33,-20
-66,-11,53,-32,18,-21,25,-51,28,-7
-54,-17,65,-17,40,-14,72,-46,47,18
14,19,87,9,118,19,80,-24,46,15
98,44,98,8,151,43,69,-40,-7,-2
108,28,47,-33,115,18,23,-47,-48,-10
32,-20,16,-68,69,-18,24,-31,-8,22
6,-18,64,-47,99,11,60,9,11,12
-82,20,33,-36,112,9,40,5,-23,-40
-143,44,-19,-59,53,-17,9,30,-8,-26
-113,42,-10,-55,-17,-45,-24,18,-16,-8
0,22,-12,-65,-34,-80,-76,-15,-51,-41
184,9,-43,-103,-95,-115,-71,0,-53,-17
311,-15,-59,-78,-68,-140,-58,26,-27,4
324,-38,-58,-42,4,-113,-26,70,7,-7
388,-47,-58,-23,4,-85,-32,44,46,109
55,-60,-66,-6,-38,-83,-34,10,77,192
-466,-65,-48,53,-3,-47,11,10,96,74
-465,-27,0,80,84,-11,74,19,94,-46
-184,7,79,107,128,36,83,5,62,-43
-6,21,127,126,132,57,71,-7,21,-1
25,15,135,169,104,59,66,-1,0,4
25,10,135,204,97,107,84,-32,-32,37
14,-16,118,171,60,120,118,-33,-74,44
-24,0,129,124,48,104,156,-15,-63,2
-32,26,108,99,38,93,106,-12,-53,0
6,32,65,74,-11,51,60,0,-31,34
49,19,15,43,-60,17,63,9,10,38
103,46,-21,37,-92,-1,18,0,12,37
128,82,-30,38,-93,-19,-16,-14,-6,35
132,80,-44,11,-130,-52,-21,-19,-9,-3
93,48,-69,-26,-172,-72,-11,-6,4,-46
-72,-10,-52,-71,-183,-41,7,3,11,-58
-196,-62,-6,-53,-161,-6,26,18,24,-64
-127,-61,23,-13,-103,24,27,26,29,-88
-29,-39,44,23,-50,42,13,8,27,-59
-12,-19,30,84,-36,29,22,-11,7,-35
-26,-35,-18,73,-121,-4,25,-3,-3,-28
-16,-18,-4,32,-101,6,29,0,18,24
-6,-3,44,13,-40,7,30,-10,41,46
-7,4,37,14,3,17,39,-7,63,36
-9,-20,-9,6,38,39,32,5,33,3
-24,-34,-25,1,15,28,13,7,-10,-13
9,0,-10,-13,-8,-10,-19,24,4,-7
49,1,0,-34,-40,-38,-48,43,15,15
46,17,-36,-38,-96,-68,-98,36,13,28
14,-1,-93,-73,-97,-79,-120,23,-5,-7
-49,-29,-117,-86,-70,-71,-103,0,3,-58
-41,-12,-104,-69,-58,-36,-77,-18,-3,-30
15,16,-77,-73,-80,-34,-86,-30,-40,7
-8,6,-47,-75,-82,-8,-70,-6,-7,30
-36,10,-11,-28,-18,46,-26,10,27,-9
64,19,22,13,84,60,-14,8,26,17
122,0,29,48,108,51,-21,9,70,84
18,0,14,45,74,31,-22,17,113,19
-73,-5,18,35,64,11,-30,7,71,-53
-76,-15,38,38,75,33,-7,1,18,-32
-23,0,68,59,81,98,4,-4,-40,4
-12,6,49,47,98,102,27,-4,-60,29
12,19,0,18,80,57,2,9,-41,37
40,30,-46,40,61,24,-35,0,-31,7
41,52,-42,63,45,7,-60,2,-41,4
27,54,-38,-5,6,-31,-61,2,-57,12
-20,21,-65,-37,-49,-55,-73,-5,-45,-1
-38,4,-65,-44,-25,-37,-73,-11,-38,8
-9,10,-42,-46,27,-29,-61,-35,-9,12
-4,5,7,-59,0,-27,-65,-48,-22,24
-6,-8,8,-70,-20,-15,-44,-40,-17,7
-5,-1,0,-59,-33,-20,-15,-10,16,-8
-10,7,-4,-59,-17,-33,-14,7,11,-20
0,-11,12,-55,13,0,-35,10,10,-24
-21,-17,20,-47,25,20,-24,2,21,-19
-28,-34,8,-69,1,29,15,-2,22,-17
-16,-36,6,-70,29,46,64,-11,6,-6
-20,-28,20,-64,93,61,68,-7,9,0
-22,-19,6,-86,97,38,28,22,32,9
-28,20,-26,-55,76,-3,-20,39,17,7
-24,48,-33,-13,72,-75,-115,6,-12,-44
-7,45,-57,-62,-7,-177,-173,-3,-8,-67
11,21,-102,-131,-116,-179,-146,16,-11,-43
23,-5,-87,-136,-162,-85,-116,10,-27,-31
57,-21,-74,-114,-110,-32,-106,-8,2,0
114,-26,-78,-112,-44,-4,-85,-4,17,17
198,-25,-31,-107,9,29,-59,20,6,33
214,-9,36,-82,8,21,-51,12,-6,74
-32,-31,75,-39,-8,10,-50,-2,1,68
-255,-78,63,-12,23,16,-42,1,12,10
-224,-72,28,-21,-12,24,0,-2,-2,-25
-107,-62,33,-33,-24,22,13,12,-53,-29
7,-36,45,-35,-25,36,27,47,-63,-43
40,-25,63,2,-18,61,60,51,2,-49
32,-25,40,46,0,82,71,30,119,-7
23,30,20,80,36,61,27,-34,160,-5
-44,51,15,57,1,-21,-35,-16,169,-8
-65,12,-5,16,-41,-56,-41,59,174,23
63,58,-26,16,-76,-53,-53,81,71,63
173,132,20,80,-45,-31,-61,11,-100,32
150,134,86,123,1,5,-61,-77,-189,0
82,71,89,95,-27,-9,-65,-115,-192,-11
16,32,85,61,-63,-24,-66,-125,-148,-139
-16,24,92,85,-59,-15,-51,-123,-131,-121
-31,-6,104,102,-62,-15,-4,-105,-112,-42
-29,-27,48,75,-103,-30,9,-77,-82,-12
3,9,16,58,-114,-26,6,-51,-30,17
3,16,28,56,-88,0,14,-3,-5,40
-36,-103,-7,37,-57,26,64,46,33,43
-88,-154,-13,39,-24,82,134,67,63,51
-97,-34,58,31,-25,65,131,9,35,11
-100,-16,82,15,-47,24,64,-44,-19,-33
-43,-46,22,-9,-82,0,18,-20,-22,-7
28,-25,-45,-5,-82,-22,6,24,9,14
117,7,-97,-26,-86,-40,10,47,40,13
123,19,-128,-73,-142,-120,-3,41,53,29
17,3,-140,-68,-156,-117,-34,40,64,32
-78,-17,-120,-67,-141,-53,-86,60,77,16
-86,-15,-87,-68,-93,-30,-65,60,56,7
-42,7,-48,-15,-35,-12,-27,47,75,15
-40,9,3,28,25,60,-1,29,54,21
-29,34,50,33,74,109,39,15,45,46
8,56,75,79,119,90,24,-5,5,0
59,62,93,105,156,75,5,-42,-44,-61
113,56,45,64,125,56,8,-41,-39,-51
116,15,19,41,92,43,57,-13,-1,-2
73,3,45,51,99,75,79,-7,26,13
36,9,47,32,102,87,71,-17,24,0
29,26,7,32,95,61,34,-16,26,7
-22,-13,-32,53,120,39,19,23,44,14
-53,-38,-56,45,131,39,30,40,46,-16
-66,-23,-77,23,79,21,18,40,27,0
1,-6,-83,9,38,-18,-3,28,17,40
-23,-4,-56,12,34,3,-4,31,43,24
-150,0,-25,11,58,14,-8,0,10,-35
-89,1,-13,40,80,15,8,-23,-7,-31
44,7,-17,43,75,10,24,-24,33,-1
47,-5,0,34,78,40,33,-34,9,6
16,-60,16,42,94,66,65,5,22,-14
-7,-60,21,76,101,87,97,45,36,-1
-27,-41,2,81,114,110,158,30,25,14
-38,-39,-17,73,120,112,216,24,45,17
-18,-16,5,53,127,110,209,39,36,22
9,9,74,79,132,131,180,50,34,15
56,57,97,119,132,93,114,30,30,24
74,112,77,126,130,11,-19,-11,9,17
56,88,71,130,100,-4,-121,-56,-19,-4
32,46,26,86,26,-61,-133,-67,-50,-24
25,17,-47,8,-45,-102,-76,-15,-22,-29
16,5,-83,-17,-32,-67,9,14,-1,-24
11,20,-61,16,-8,-48,12,2,-34,-4
1,2,-39,23,-7,-38,0,-11,-57,11
15,3,6,12,12,2,-19,-27,-37,10
30,10,29,20,29,48,-11,-26,-28,13
25,5,35,14,30,61,19,-45,-49,-9
1,0,30,12,35,28,22,-44,-57,-35
-30,-20,44,15,19,21,-6,-36,-30,-38
-42,-40,51,23,28,42,-11,-45,-33,-20
-42,-41,50,13,41,18,-30,-39,-25,-14
-63,-44,57,16,36,33,16,-15,7,-1
-24,-39,63,23,22,60,63,10,22,31
30,1,49,8,-5,-2,45,13,49,39
36,26,22,3,0,-17,-1,11,36,15
2,20,-6,0,-5,33,-8,21,14,-2
-5,23,-41,-29,-45,13,-33,34,27,3
17,74,-70,-41,-80,-38,-72,25,30,11
34,104,-91,-52,-111,-72,-72,32,25,21
18,-30,-111,-55,-92,-69,-76,28,22,39
-30,-198,-101,-24,-75,-30,-46,29,38,57
-78,-31,12,4,-54,-8,-27,29,12,19
-84,59,88,-8,-55,-24,-36,-3,-20,-43
-39,-14,50,-23,-54,-23,0,-3,0,-29
12,-39,44,-9,-50,-14,22,13,24,-17
16,-26,49,-1,-51,17,33,25,44,-7
-12,-31,70,2,-33,9,17,30,77,-10
-27,-18,75,4,-20,-11,-1,20,57,-21
-47,7,47,4,-29,-7,0,0,11,-34
1,47,39,12,-37,4,4,4,4,-11
96,89,18,17,-43,9,-9,24,24,30
82,-2,-48,2,-42,-4,8,61,44,57
8,-64,-58,11,-19,-5,9,64,46,42
-6,58,-9,12,-50,-61,-88,-34,-43,-9
-9,64,-11,-30,-113,-145,-162,-110,-117,-55
54,-2,-32,-57,-141,-137,-125,-104,-111,-60
56,-12,-37,-34,-124,-92,-73,-46,-68,-22
-9,6,-44,-15,-92,-55,-49,-13,-3,23
-22,0,-30,-7,-70,-43,-26,-7,10,34
-27,-10,-10,-20,-64,-40,-17,-22,1,20
-11,-5,-6,-23,-67,-28,-5,-16,11,22
1,-1,24,15,-36,2,27,2,22,4
-9,-5,48,31,-28,15,41,4,8,-4
-27,-14,48,43,-33,14,43,11,-6,-14
-41,-23,57,36,-34,2,35,8,-27,-33
-52,-32,47,26,-24,4,47,0,-14,-34
-24,-45,14,-7,-50,0,35,11,21,-14
38,-9,-7,-30,-84,-16,38,60,54,23
47,11,-17,-27,-99,-40,0,64,61,48
22,25,-37,-19,-100,-68,-34,50,40,38
11,33,-65,-57,-103,-75,-60,35,41,18
26,27,-81,-51,-110,-85,-59,18,45,28
26,30,-46,-39,-104,-43,-37,16,19,30
18,34,-19,-16,-66,-12,-17,-2,-10,-1
13,29,-12,-15,-46,-31,-2,-3,-2,-14
14,23,-5,-43,-38,-29,11,-9,5,3
46,31,20,-47,-21,-13,10,-26,-23,12
-6,20,29,-21,-10,-6,0,-23,-33,1
-39,-4,45,9,8,10,26,-11,-20,-1
-35,-14,54,14,11,28,27,-4,-48,-18
-41,-34,47,21,10,32,48,-14,-41,-32
-92,-31,40,19,2,31,55,-9,-18,-9
-112,-20,36,23,13,33,62,-3,12,3
-69,-12,17,3,27,20,58,7,36,20
-4,7,-20,-24,22,-13,31,12,26,27
35,0,-37,-44,-7,-29,-4,13,14,5
70,-5,-52,-46,-31,-22,-24,11,8,-10
125,8,-84,-58,-30,-47,-54,20,0,-11
212,15,-90,-79,-30,-79,-63,13,-16,-9
130,-7,-86,-72,-45,-80,-74,-16,-31,18
-102,-25,-77,-63,-40,-87,-58,-23,-17,23
-132,-10,-47,-43,3,-50,2,5,7,8
-66,-21,-34,-9,43,21,43,11,8,4
-6,-30,-8,11,71,39,90,4,6,21
27,1,18,22,82,4,143,4,36,21
21,-6,15,16,81,3,115,10,35,36
2,4,8,17,93,47,36,-7,3,23
-50,29,8,11,100,73,3,-28,-27,-16
-78,5,9,18,103,50,8,-42,-58,-30
-55,14,7,-4,96,33,22,-18,-48,-20
39,31,-25,-2,74,9,16,5,-18,-2
123,32,-44,-4,55,-20,3,12,8,11
99,17,-62,-18,23,-38,-10,13,7,33
20,5,-95,-65,-4,-61,-16,18,-2,27
-46,-10,-131,-94,-28,-97,-19,27,0,36
-63,-38,-137,-91,-25,-82,-38,12,14,54
-29,-37,-71,-57,8,-59,-57,8,13,51
-33,-18,-33,-39,-5,-72,-68,12,0,14
-38,-18,-13,-33,-33,-56,-38,13,-12,-16
-7,-9,14,3,-13,35,40,0,-33,-22
20,-5,30,17,25,114,62,-7,-64,-12
14,-9,62,5,44,68,35,3,-84,-56
29,-4,93,16,28,-13,25,-6,-103,-117
33,-5,67,11,21,-19,-19,-31,-77,-81
-7,-20,43,-12,34,-14,-43,-18,-9,-22
-45,-28,45,-9,7,-27,-19,42,35,-17
-29,-15,32,-3,-18,3,-26,14,0,-26
20,16,4,-5,-25,10,-45,-43,-54,-12
9,8,-42,-15,-44,2,-34,-44,-20,17
-26,-12,-68,-33,-53,-16,-47,-6,36,42
2,23,-54,-15,-38,-24,-83,20,67,48
53,28,-35,-13,-34,-24,-92,11,56,22
66,19,-24,-32,-31,-31,-87,-8,37,2
37,-2,-6,-29,-18,-19,-68,-22,-20,-15
-1,-4,17,-14,10,2,-38,-16,-52,-25
-6,7,68,3,-1,-2,-35,-20,-72,-9
7,2,56,11,-15,-19,-37,-6,-43,6
-7,-20,48,-5,84,-1,-5,2,-4,7
-42,-19,68,-12,117,26,30,-24,-41,-10
-57,-16,59,-1,-3,26,14,-42,-73,-24
-60,-34,42,9,-53,76,7,-26,-62,-7
-35,-44,74,24,-22,105,41,-20,-32,24
23,-17,81,41,31,76,56,-12,-14,27
27,-3,37,24,-8,5,23,-1,-22,-4
-6,5,-18,3,-95,-21,-11,0,-45,-45
28,24,-23,8,-118,-9,-33,-8,-48,-64
90,24,-71,3,-114,-9,-48,30,9,-15
49,17,-300,10,-111,-37,-63,52,72,30
-8,6,-472,-6,-106,-82,-92,33,72,9
-28,0,-161,-13,-119,-70,-115,40,46,-21
-49,-2,251,-8,-105,-26,-96,26,17,-3
-67,-9,280,-6,-70,-9,-33,7,2,2
-38,-8,84,14,-50,29,44,-19,-12,-9
-17,0,0,30,-22,70,51,-40,-39,-29
-1,-2,76,34,10,91,23,-50,-53,-16
35,-11,102,18,8,40,1,-47,-34,30
60,-5,30,7,-9,-23,-17,-43,0,63
-6,-19,24,8,16,-9,-14,-20,0,24
-27,-25,118,-5,31,11,-20,-8,-20,-6
-13,-21,135,13,7,8,-16,3,-15,0
-7,-7,26,12,3,-1,-4,19,10,8
-3,14,-35,1,13,9,-1,8,14,-5
8,24,-20,-24,-4,11,-23,10,4,-9
30,33,70,-44,-30,1,-58,10,-8,-7
36,27,58,-64,-47,-12,-63,-4,-20,0
11,0,-75,-60,-37,-32,-54,-1,-29,-6
-15,-13,-141,-43,-20,-47,-41,0,-22,-27
-19,-22,75,-54,-10,-6,-18,0,-3,-25
-21,-16,174,-49,5,14,-17,-5,0,10
-71,-20,32,-44,9,-7,-33,-9,-3,7
-70,-28,-39,-26,24,-11,3,10,5,11
-16,-11,-14,6,41,5,44,20,22,6
25,5,12,0,20,-19,39,11,24,13
20,4,-55,-27,8,-7,26,4,18,14
24,-12,-81,-17,29,42,51,0,6,4
34,-15,-45,5,59,77,76,11,6,-4
49,-1,21,4,77,69,65,11,-19,-5
-9,32,30,13,78,32,20,0,-34,-24
-36,23,-17,19,59,-6,-10,-10,-37,-22
0,24,-76,-2,21,-40,-41,8,-22,10
33,43,-117,-20,-11,-55,-55,18,-16,25
41,20,-92,-31,-21,-49,-55,20,-16,-1
27,12,-42,-17,-10,-24,-30,14,-22,-8
2,30,-15,12,-8,-32,-15,-3,0,-8
-27,17,0,17,-10,-41,-9,-24,10,-12
-43,-6,22,5,9,3,22,-32,-8,-15
-31,-4,25,-3,28,52,48,-31,-21,-21
-14,-25,19,-3,40,64,58,8,-21,-7
-37,-21,32,8,48,50,32,29,-4,17
-53,-13,26,28,46,35,17,4,1,8
-87,-24,17,30,41,11,25,-18,5,-8
-80,-19,55,35,55,20,45,-17,13,-4
-27,-28,57,58,58,52,63,-4,12,30
30,-21,20,76,41,51,49,10,23,41
62,3,-27,41,21,10,23,27,55,25
107,20,-34,-2,-13,-12,-6,32,86,7
147,25,-64,-23,-33,-25,-30,33,46,13
110,11,-94,-31,-40,-50,-60,16,-15,52
72,6,-98,-36,-53,-68,-74,18,-53,46
-45,-29,-92,-26,-40,-41,-44,61,-69,-24
-101,-21,-42,-4,-3,-23,-13,54,-55,-27
-49,10,16,-42,2,8,-4,-11,-38,-13
-24,-9,44,-122,-38,56,35,-56,-16,-23
-6,-12,98,-43,-19,87,42,-77,5,-7
20,27,120,52,33,73,27,-86,4,24
37,31,102,83,45,26,15,-56,6,27
11,-10,67,87,47,21,11,-26,20,15
-21,-23,72,81,48,31,8,-8,42,-3
-32,-21,69,59,25,21,8,-8,26,-26
-71,-21,0,24,4,-12,-9,27,17,-24
-105,-10,-38,5,1,-2,14,69,51,-19
-47,5,-23,25,19,12,43,64,12,-31
10,26,-29,15,4,-36,16,26,-40,-4
-9,23,-45,6,-27,-58,-18,34,-12,10
-3,28,-36,13,-33,-45,-21,34,-16,-19
98,49,-16,8,-22,-29,-35,-24,-71,-40
253,67,8,19,-18,-34,-68,-106,-148,-11
215,25,-2,3,-39,-42,-76,-119,-124,24
78,-20,-19,2,-37,-19,-56,-68,-44,41
-43,-39,6,12,-21,-19,-33,-23,2,7
-116,-53,27,28,14,16,18,-7,14,3
-124,-55,41,43,50,41,59,11,23,-5
-71,-33,31,35,56,14,91,36,53,-5
-34,-21,14,17,49,1,77,33,48,-2
-43,-16,3,38,69,46,69,28,27,-7
-8,0,18,54,79,63,68,31,3,15
35,16,30,51,77,44,74,37,31,29
34,25,17,44,57,25,40,40,57,13
14,28,0,23,41,2,-12,-3,13,-5
-2,14,-38,8,48,-22,-49,-15,14,0
5,7,-91,-20,8,-99,-65,-6,37,8
9,7,-89,-45,-38,-92,-54,9,24,17
20,2,-52,-48,-43,-30,-47,19,21,12
-6,19,-21,-38,-28,-12,-18,-4,17,-14
-22,3,-15,-33,-46,-6,5,-3,6,-38
-20,1,0,-29,-39,-5,-3,0,12,-16
-28,3,26,34,-12,31,-13,-7,36,21
-36,1,35,30,0,19,-8,-5,14,10
-16,-5,41,7,5,37,5,-2,-16,-23
27,9,61,2,17,50,33,-8,-31,-21
10,18,65,-5,27,42,48,-26,-68,-19
-17,-15,54,-23,33,22,36,-29,-65,-29
-21,-27,36,-36,24,5,26,-5,-15,9
-25,-9,-7,-34,2,-14,1,22,11,34
-38,-19,-43,-42,-34,-37,-12,53,9,3
-33,-11,-65,-41,-42,-60,-35,47,12,-36
-9,6,-87,-43,-49,-67,-48,28,21,-25
32,9,-87,-42,-54,-60,-58,0,10,4
90,3,-59,-35,-61,-36,-52,19,22,14
73,1,-22,-17,-43,0,-22,27,69,30
23,26,6,4,-30,0,-14,20,92,34
12,32,14,6,-24,-14,-8,9,66,41
-9,-6,21,5,-24,1,17,-3,50,23
-41,-35,29,3,-13,25,38,-10,14,21
-54,-30,37,-3,7,28,46,-14,4,-5
-33,-15,52,11,22,69,31,-10,20,-11
9,14,67,36,57,88,32,-18,8,-18
35,41,107,79,81,97,27,-55,-64,-51
59,50,137,83,71,65,-3,-78,-111,-71
61,28,96,40,35,-6,-26,-89,-105,-28
54,-7,-12,-17,-34,-38,-15,-57,-52,24
51,5,-57,-32,-40,-33,-8,-20,-7,48
7,17,-77,-41,-48,-53,-33,-15,-18,22
-47,19,-71,-36,-73,-76,-57,6,-4,11
-17,-10,-16,-9,-18,-75,73,40,169,10
-35,-7,13,13,-8,-27,66,30,78,8
-21,-2,13,22,2,47,61,10,15,19
-15,-8,15,3,2,79,55,-7,-13,13
-44,-36,25,-18,-8,69,47,-6,-5,-1
-48,-39,18,-15,14,66,55,23,9,-16
-12,-24,38,-10,44,36,79,31,42,-1
-11,-17,35,0,58,5,95,38,67,4
-8,-9,38,9,53,-3,59,46,77,-1
0,22,-2,-14,24,-10,2,41,75,5
28,31,-12,-54,-9,-13,-44,16,52,22
43,36,-45,-49,-25,-18,-74,0,34,16
20,35,-60,-35,-45,-19,-92,-6,-10,-10
0,36,-56,-13,-41,-13,-55,-14,-18,1
8,7,-36,12,-31,-20,-21,-2,0,9
22,11,-10,39,-11,-2,-19,-2,9,-3
-1,21,10,40,-1,12,-18,-10,17,-15
-14,-2,42,15,5,28,2,-4,41,-6
-19,-8,65,1,5,22,5,14,21,46
-28,-25,49,-10,-1,18,15,25,-3,47
-34,-32,64,-3,-5,9,43,-10,-44,0
-27,-24,68,8,12,23,29,-42,-47,-36
-13,-23,68,10,38,56,36,-32,-18,-35
-1,-17,49,25,53,67,75,-3,3,-37
9,-3,40,30,51,60,94,46,25,-22
31,5,6,35,33,28,47,101,16,-15
39,19,-52,-7,-7,-26,-1,51,-11,-22
19,18,-78,-24,-26,-45,-26,-23,-5,-10
21,38,-92,-28,-40,-52,-65,-65,3,14
32,23,-84,-17,-56,-49,-85,-68,7,4
19,1,-61,-13,-71,-26,-69,-29,27,-2
19,3,-30,6,-51,-37,-77,1,77,13
6,30,14,44,-35,-63,-85,-6,49,18
-13,23,20,26,-45,-51,10,-13,21,14
-17,-17,15,-2,-28,-12,92,-1,15,-11
-18,-34,30,30,7,32,68,-3,2,-12
-31,-38,31,36,16,38,30,-6,0,-22
-47,-12,35,32,32,46,11,1,-9,-32
-43,-7,31,19,23,28,40,13,-12,-10
-16,-15,33,20,17,25,80,15,-14,10
-25,-9,50,36,45,63,82,16,-16,-9
-31,-8,22,41,56,61,60,17,5,-10
28,36,-11,30,53,33,25,10,-14,-9
57,33,-30,23,42,26,-2,-18,-40,-25
29,21,-58,9,4,-21,-25,-14,-13,-8
22,21,-94,-13,-31,-61,-28,6,21,22
-4,24,-97,-38,-24,-22,-28,11,3,5
-16,1,-68,25,28,-18,-23,8,-3,-11
-24,-26,-52,21,5,-60,-1,22,13,-8
-15,-35,-48,-36,-31,-71,8,57,13,-2
3,-19,-11,-38,-4,-67,-35,59,11,5
27,10,23,-33,0,-64,-61,16,22,20
29,4,19,-40,-10,-31,-28,-8,20,7
-6,-24,24,-1,23,35,25,-21,46,27
-25,-23,25,10,25,84,55,-15,65,45
-25,-25,22,2,8,82,50,0,58,31
-10,-3,41,8,23,76,49,-10,32,6
39,21,67,12,50,45,18,-50,-4,-32
52,25,38,0,29,-12,-8,-44,-19,-14
14,14,-3,-19,-3,-29,-39,-5,-21,63
-26,14,-34,-39,-7,-14,-53,16,-20,41
3,37,-54,-32,3,-28,-67,3,-18,7
17,31,-57,-23,-6,-35,-81,-12,-34,-6
-1,3,-39,-29,-25,-32,-66,-15,-31,-24
-4,2,-27,-46,-38,-26,-51,-3,-25,-23
-12,-4,-10,-46,-23,-29,-46,5,-18,-17
-15,-20,-16,-34,-12,-17,-32,30,4,-4
0,-19,-7,1,4,19,17,23,11,0
-9,7,15,17,21,34,75,-3,3,6
-18,-1,39,1,52,47,66,-19,-24,-8
-19,-26,14,-2,82,59,44,-28,-23,-41
13,-18,6,19,56,65,12,-28,11,-17
38,-7,38,38,46,43,10,-14,62,16
5,-1,68,42,55,-7,45,23,77,27
-14,14,57,19,39,-33,23,25,44,32
0,4,8,11,7,-42,-3,18,26,29
7,-10,-25,-25,-22,-15,-1,9,-4,3
15,14,-51,-37,-34,-23,-5,13,-25,1
2,10,-80,-29,-40,-60,-34,26,-25,6
-15,19,-92,-31,-44,-42,-60,16,-32,-12
0,42,-73,-38,-48,-24,-64,0,-21,-27
10,6,-48,-65,-66,-20,-32,-8,-3,-24
-14,-90,-74,-71,-57,-2,26,28,29,23
-27,-87,-45,-39,-17,26,51,60,50,41
-16,35,39,-9,-2,1,-15,-5,8,-6
-30,28,82,-1,-25,-21,-41,-45,-28,-51
-26,-17,68,16,-5,-10,-14,-21,-2,-43
10,2,50,31,34,16,3,9,10,-2
15,4,23,21,44,27,26,30,-4,0
-31,-17,8,9,52,38,42,27,-29,-9
-37,-10,26,24,69,72,55,10,-16,-6
12,13,48,41,53,61,48,8,-8,-2
37,5,-1,26,44,44,30,17,-22,6
44,25,-37,22,48,29,2,3,-13,12
41,37,-46,18,49,16,-33,11,-12,13
49,33,-43,20,37,-28,-58,-25,-61,22
30,24,-46,11,21,-71,-90,-72,-90,37
-3,17,-58,-21,0,-84,-88,-71,-69,17
-2,-3,-55,-27,-30,-74,-69,-49,-34,-24
2,-11,-59,-41,-61,-34,-55,-26,-13,-33
-15,-39,-38,-80,-82,7,-15,-11,-16,-36
-43,-46,-22,-45,-52,17,12,13,4,-41
-41,-21,13,15,15,40,38,30,22,-12
-14,9,58,59,55,48,50,16,20,9
2,24,66,72,59,-11,20,-3,29,16
-9,10,52,59,12,-48,4,-11,13,-2
-33,-36,49,40,0,-25,-22,-38,-36,-24
-51,-59,54,42,18,7,-25,-20,-47,-36
-40,-64,9,6,-5,-15,9,105,4,-1
-18,-35,-39,-5,-19,-5,24,194,63,36
16,13,-57,9,2,12,-17,111,70,21
26,6,-69,13,-16,-22,-59,20,91,-6
34,20,-58,7,-52,-72,-68,-26,89,6
56,54,-29,25,-26,-25,-12,-33,2,24
56,60,34,52,11,33,4,-46,-95,19
60,49,50,48,26,35,-23,-57,-128,21
53,60,53,41,32,4,-53,-78,-158,0
21,33,77,57,13,-1,-51,-93,-162,-19
-26,-6,72,61,-4,-9,-37,-81,-119,-40
-43,-45,43,21,-10,-10,-30,-58,-83,-29
-39,-42,17,9,0,10,-16,-39,-40,0
-37,-44,32,35,9,22,25,-23,-25,-5
-32,-50,36,31,11,6,47,-26,-27,-42
-16,-32,17,-2,4,-9,57,-8,-13,-27
3,-13,4,-9,0,0,62,0,-6,-13
1,3,6,-21,-24,16,27,8,-17,6
6,5,-10,-34,-26,6,-15,19,1,28
25,20,-42,-25,-10,9,-53,7,7,56
40,26,-60,-19,-16,-24,-79,17,6,58
31,11,-69,-17,-38,-60,-64,40,12,31
12,11,-55,-9,-33,-57,-42,38,0,11
1,24,-24,11,-29,-27,-32,1,2,-17
-15,17,-37,1,-34,-12,-33,-5,41,-11
-47,-21,-42,-8,-35,-10,-14,11,62,8
-44,-38,-20,-3,-21,13,23,18,59,3
-14,-33,-4,-4,-6,35,41,-3,8,-22
1,-31,9,4,18,43,46,-2,-10,-12
-8,-29,20,13,26,33,24,4,-18,2
-26,-35,26,0,28,9,21,0,-28,27
-32,-40,35,-14,22,22,31,19,-19,41
-19,-14,49,-1,50,46,30,20,4,26
1,5,28,-4,59,34,13,14,23,14
34,9,-2,15,52,-10,4,32,25,8
32,29,-18,30,37,-27,3,21,23,8
37,65,-39,10,-4,-41,-15,3,-6,-14
36,34,-51,-15,-34,-68,-38,-9,3,-24
-1,1,-49,-30,-42,-65,-45,18,13,-17
-16,-12,-46,-53,-29,0,7,32,0,-31
5,-4,-46,-48,-15,34,36,10,-3,-21
-12,-9,-57,-32,-6,28,22,-1,-7,9
-63,-16,-24,0,12,43,7,-23,-3,0
-31,-23,28,8,19,1,3,-43,-10,-6
11,-18,48,27,46,-30,-17,-40,14,28
38,2,47,45,65,-6,20,-12,44,49
28,0,50,37,49,46,66,26,35,7
20,14,63,39,70,82,78,0,-16,-57
26,18,61,50,62,80,42,-37,-60,-55
20,-6,29,31,30,24,52,-39,-40,-17
3,-7,-21,6,6,-23,59,-6,2,23
-3,20,-38,-6,-10,-38,52,29,41,44
-2,42,-27,-15,-4,-30,13,40,31,22
-1,36,-37,-27,-2,-28,-40,25,12,-21
-17,8,-64,-52,-34,-41,-48,20,-2,-47
-5,-7,-59,-62,-47,-38,-5,28,-8,-45
-11,-20,-30,-44,-42,-23,2,11,11,-38
-27,-3,-7,-23,-37,7,16,-10,11,-34
-3,5,0,-26,-20,24,20,-32,6,-2
20,20,22,-49,-7,23,4,-45,1,17
-5,-4,41,-36,-14,8,0,-48,-12,14
-22,-28,48,-23,-1,-12,-12,-18,-31,-9
-5,-12,55,-17,-6,-20,-22,-3,-33,-17
1,-32,41,-29,-30,-22,13,5,-37,0
-14,-37,33,-30,-13,30,70,13,-11,11
-22,-16,41,-5,0,57,74,2,2,13
-3,6,31,18,-2,31,39,-9,6,13
12,-5,-11,7,-44,-6,0,29,42,16
12,-5,-42,-33,-68,-29,0,48,65,9
13,1,-53,-63,-67,-37,-10,43,54,-1
-4,-21,-93,-73,-84,-49,-70,13,28,-6
-12,-12,-92,-71,-97,-47,-92,23,42,-13
11,19,-37,-56,-73,-27,-58,32,48,4
25,38,-13,-20,-47,-2,-24,31,49,38
50,39,10,15,-20,2,-15,4,85,41
49,30,53,40,10,18,-7,-21,88,31
41,22,73,40,26,30,21,-20,52,21
51,14,80,35,15,17,29,-24,-9,-8
20,9,71,34,7,10,-1,-35,-73,-20
-51,-5,30,30,4,21,-16,-41,-90,-26
-91,-23,39,18,13,31,6,-41,-105,-46
-57,-25,68,40,22,28,37,-32,-100,-23
-25,7,88,91,32,17,23,-30,-64,-5
13,38,68,128,56,-1,0,-15,-31,6
35,32,9,63,21,-5,37,15,14,7
6,20,-26,13,-10,23,37,10,38,5
-51,-15,-89,-16,-23,13,24,-1,22,-10
-37,-22,-97,-48,-52,-24,-9,22,30,-1
-44,-18,-58,-52,-40,-19,-56,31,37,-5
-57,-9,-33,-47,-48,-39,-74,41,52,1
-58,14,-4,-21,-46,-55,-63,42,33,9
-4,44,6,17,-8,-59,-53,26,10,1
124,12,0,0,7,-26,-26,33,5,33
181,-101,-16,-12,15,37,27,41,38,57
74,-75,2,9,19,43,27,-13,4,2
-75,8,67,33,12,22,9,-57,-50,-78
-109,-19,76,17,45,32,31,-29,-34,-78
-22,-27,67,20,80,41,63,-9,34,-24
20,0,56,46,104,81,89,10,104,23
5,-2,42,55,116,97,103,29,116,48
-4,10,12,78,102,62,77,37,80,33
8,36,-10,77,59,17,33,51,44,25
44,87,-8,87,19,16,31,44,1,30
49,84,0,76,-26,2,5,8,-29,31
36,48,-21,26,-59,-17,-6,-18,-31,15
30,1,-31,-6,-56,-18,8,-25,-8,8
26,-2,-19,-17,-34,-10,26,-11,23,-1
20,2,-10,0,-13,11,41,-11,16,2
18,-7,7,14,-4,26,25,-26,-14,-24
3,-22,12,16,0,32,25,-44,-38,-24
-38,-32,35,29,-8,8,20,-42,-23,-12
-61,-26,58,14,-16,-4,-10,-7,-10,-3
-52,-30,33,1,18,-1,-14,21,-14,-15
-85,-49,-14,-15,63,9,10,-3,-5,-31
-90,-50,-8,-8,49,0,17,-70,-28,-58
-65,-53,-8,-3,0,-9,30,-105,-56,-67
-1,-1,-13,-6,-3,12,30,-76,-50,-22
59,39,-23,-10,10,33,25,-12,-13,27
40,17,-42,2,15,22,17,26,35,52
42,10,-59,13,-15,3,-10,49,40,57
31,25,-66,3,-29,-26,-57,82,16,49
-7,22,-62,0,-39,-29,-74,91,18,21
-24,9,-32,29,-46,-22,-58,55,40,12
-7,11,16,37,-25,-20,-38,26,41,-1
-4,10,14,43,-12,-35,-33,27,25,-15
-13,0,2,27,-28,-32,-18,32,-35,5
-25,-7,29,24,-22,0,-4,27,-57,4
-7,3,44,29,-7,27,-9,-17,-82,-14
-8,-14,64,24,-9,22,-41,-55,-86,-16
-14,-13,56,6,8,35,-18,-41,-67,-2
-12,-13,46,-4,38,21,12,-48,-39,16
0,-22,58,13,37,18,14,-60,-44,12
24,-8,68,35,23,37,19,-50,-46,0
2,8,57,56,12,17,-5,-19,-28,8
-3,7,-4,7,-29,-19,13,33,24,39
9,33,-30,-17,-50,-9,57,60,63,48
37,28,-42,-49,-67,-11,1,58,59,39
61,15,-49,-65,-69,-42,-54,25,15,26
32,-9,-64,-56,-66,-50,-71,13,-26,-20
-21,-39,-73,-70,-81,-37,-56,6,-38,-51
-40,-40,-44,-55,-55,-25,-24,11,-11,-29
-16,-14,-5,-18,-38,-27,-25,-14,-30,-3
31,23,21,12,-14,-18,-19,-40,-7,28
43,37,53,5,3,0,8,-39,28,6
14,35,54,-2,45,27,42,-31,16,-10
1,15,27,-11,62,37,42,0,-23,-31
-5,-25,24,-7,42,25,21,-5,-71,-67
-23,-48,17,-11,20,20,12,-26,-82,-71
-37,-34,20,-12,19,32,34,-10,-17,-17
-13,-17,39,0,35,62,62,17,13,18
5,16,15,11,55,52,56,40,14,16
-6,20,-35,13,45,19,11,27,8,15
24,28,-68,-13,13,-22,-12,14,22,32
51,29,-83,-30,-9,-105,-44,22,44,48
7,30,-69,-13,9,-111,-60,-1,23,16
-1,24,-30,-10,13,-94,-68,-26,-22,-13
-12,-8,-32,-43,-12,-52,-85,-25,-51,-21
-41,-35,-43,-70,-22,10,-8,-21,-53,-43
-66,-48,-39,-44,6,20,67,1,-11,-28
-44,-37,1,-28,10,-28,57,12,23,20
-16,-24,31,-17,-16,-137,43,-24,-1,12
26,18,31,5,28,-78,5,-15,4,8
53,43,48,37,72,-30,-18,18,28,15
45,15,51,16,69,18,26,20,21,-14
51,15,63,10,90,81,50,20,6,-1
87,-2,47,0,88,68,50,-13,1,15
27,-28,2,-23,41,-3,51,-7,7,7
-33,-13,-28,-15,33,1,47,24,34,23
-19,5,-37,-4,45,22,32,23,37,39
11,18,-45,-35,51,11,-10,9,18,19
-15,13,-78,-63,30,-10,-33,1,5,-17
-61,0,-95,-81,21,-13,-27,18,21,-45
-76,-6,-73,-58,29,-9,-27,36,54,-17
-49,-3,-36,-27,42,4,-23,16,18,14
-71,-26,-9,-23,38,13,-25,-19,-45,-16
-101,-42,4,-24,-2,9,-8,-49,-49,-41
-79,-30,31,11,21,39,11,-46,-12,-27
-15,-9,45,44,69,77,31,-17,20,-11
114,26,51,32,82,94,19,5,18,14
225,31,51,23,78,67,-5,12,17,46
171,12,50,10,37,-4,-17,9,45,52
58,-4,32,10,33,5,13,5,32,38
-19,20,41,22,30,41,59,-3,-7,22
-35,29,19,17,17,15,37,-6,-36,-5
2,21,-10,9,4,19,-8,-15,-38,-26
11,5,-41,-1,-9,20,-45,-7,-3,-20
-13,15,-56,-22,-43,-27,-46,8,20,-12
-25,5,-65,-25,-66,-51,-64,-1,1,-14
-31,5,-65,-9,-62,-26,-56,-8,-5,-23
-32,-3,-34,-20,-58,159,-36,-11,7,-4
-40,-3,-29,-25,-65,192,-17,0,16,3
-37,1,-24,-23,-53,-47,-5,-3,24,-1
-17,-4,0,-27,-31,-65,1,-12,0,-18
-12,-21,16,-4,-21,-54,34,-15,-16,-24
-11,-38,20,-1,-17,-53,61,26,3,-7
5,-47,0,-16,-21,-17,61,97,27,10
-11,-40,-18,-35,-33,-66,28,64,20,6
-54,-54,0,-41,-25,-10,23,-8,-7,-15
-37,-42,28,-13,-11,5,55,-47,-4,-2
-13,5,26,7,-7,28,80,-32,41,19
-4,39,-4,4,-27,19,41,-8,79,46
-14,46,-13,-3,-23,-21,2,4,93,29
5,48,-33,-19,-18,-19,-26,9,70,7
70,58,-28,-14,-27,-45,-62,12,28,-6
124,54,0,-12,-17,-28,-81,-12,-46,-11
80,39,-5,-33,-26,-33,-59,-40,-94,-17
-8,1,-18,-37,-27,-17,-40,-32,-82,-30
-48,-17,-39,-23,-34,-6,-22,9,-47,-21
-39,-21,-15,-21,-24,-20,-5,32,-21,-12
-17,-2,2,8,-7,-4,7,2,-9,-5
-16,-19,21,25,9,1,-10,-15,-1,-15
-25,-41,34,23,3,19,9,-16,29,-17
-9,-32,59,9,12,39,42,-14,23,7
-11,-26,50,5,16,47,36,-20,10,33
-38,-10,40,20,42,84,82,-6,28,39
-27,12,45,42,102,113,133,45,61,32
20,34,61,67,152,100,120,58,93,33
50,44,51,68,133,30,10,19,91,14
46,38,15,31,23,-75,-59,15,90,16
27,40,-39,-30,-77,-99,-33,38,46,26
29,31,-66,-43,-76,-61,-26,28,1,14
0,1,-60,-28,-44,-26,-43,13,-35,12
-3,-17,-37,-32,-37,-28,-59,-11,-32,1
7,-19,-17,-19,-35,-32,-97,-47,-49,-45
19,17,10,12,-20,-25,-134,-51,-68,-64
0,6,40,24,-16,-80,-121,-49,-61,-62
3,-9,64,5,-18,-94,-85,-25,-33,-33
13,-6,45,-9,-21,-44,-76,-17,-60,7
-45,-9,13,-17,-20,12,-85,-7,-66,3
-72,-29,-14,-10,-16,61,-73,-1,-39,-13
-43,-50,8,-6,10,96,10,31,-5,-16
-3,-34,39,-8,33,119,126,39,6,-4
-10,-9,33,9,34,90,127,-1,-17,-13
-15,-11,12,30,8,17,39,-36,-46,-20
-13,-9,-14,-6,-23,-19,-45,-26,-11,26
14,1,-44,-35,-46,-24,-58,-3,-4,47
40,18,-44,-26,-19,-28,-47,12,-2,30
54,37,-59,-34,-18,-78,-72,23,3,0
39,29,-52,-52,-36,-113,-109,13,-5,-7
-4,2,-38,-45,-53,-107,-136,-1,-1,-17
-5,-9,-27,-56,-72,-61,-97,0,1,-22
-5,-17,-36,-49,-57,-16,-26,14,5,-18
13,-8,0,-19,-13,24,13,11,4,-19
23,-8,30,0,19,35,34,21,-8,2
8,-13,44,10,49,21,63,31,15,24
-8,-6,47,13,51,10,57,16,19,19
-24,-16,27,5,61,18,41,-17,-13,1
-47,-42,15,-28,59,25,18,-25,-53,-29
-35,-46,-3,-67,31,9,35,22,-14,-28
0,-6,4,-41,28,-6,31,7,-18,-13
36,23,-7,-26,33,-9,0,-11,-1,-3
44,13,-29,-14,-4,-6,-29,-19,42,27
68,49,-52,7,-19,-26,-40,-10,62,57
66,50,-48,15,-20,-49,-28,-6,36,60
17,38,-36,2,-24,-50,-25,-20,-23,18
-13,24,-41,17,-25,-59,-69,-29,-72,-13
-28,4,-46,-6,-32,-38,-71,-17,-82,-10
-18,-12,-40,-19,-22,0,-64,-10,-67,32
0,-20,-23,-4,-4,17,-39,-26,-69,2
-2,-26,-15,25,26,42,-1,-35,-67,-2
-9,-36,12,49,47,67,19,-32,-51,13
-9,-10,33,45,51,56,-14,-25,-15,-7
-14,-9,36,27,53,23,7,-14,12,-26
-37,-23,46,17,57,-2,82,-5,-8,-14
-47,18,63,25,55,14,119,5,5,-8
-38,26,40,21,49,18,108,37,61,1
-42,-59,-17,23,45,30,72,58,98,22
-59,-67,-22,50,42,34,54,60,76,1
8,58,17,21,-9,-39,1,-22,-13,-38
80,88,12,-31,-66,-117,-81,-85,-70,-48
49,-2,-40,-42,-64,-107,-74,-58,-43,-52
20,-21,-71,-23,-38,-77,-34,-38,-34,-46
33,7,-71,-11,-32,-48,-3,-4,-17,-11
26,23,-52,11,-9,-25,20,20,20,14
59,9,-27,13,28,-5,36,13,39,26
39,-2,-1,19,33,16,34,8,38,33
-55,-13,11,31,18,17,16,11,40,7
-60,-16,26,35,18,22,31,8,29,2
-17,-9,31,37,28,29,66,8,14,16
-7,-9,29,39,29,16,67,21,30,5
-33,-28,36,27,43,15,71,5,34,-7
-36,-25,40,40,55,26,64,-5,13,-11
-8,-13,38,36,51,2,59,-12,19,14
26,14,14,28,53,-16,63,13,33,37
3,8,-8,12,34,-6,60,54,14,0
0,3,-12,13,12,20,60,74,20,-1
53,34,-49,1,-13,-19,30,107,33,6
54,16,-88,-41,-76,-64,-12,143,20,2
-14,-11,-81,-38,-75,-82,-54,95,30,12
-65,-35,-61,-24,-52,-81,-48,-20,26,-6
-32,-22,-26,-3,-33,-22,4,-67,11,0
11,1,24,34,10,35,44,-81,4,-2
26,32,70,60,46,57,49,-93,6,1
27,27,70,47,47,47,50,-57,37,24
25,19,62,47,49,34,53,-19,51,21
7,15,52,40,35,45,49,0,32,5
-5,25,59,46,38,42,38,-14,13,-16
-20,14,58,57,45,32,30,-27,4,-23
-19,-12,56,50,31,45,53,-6,-10,-9
-35,-24,31,51,24,55,50,15,-16,2
-23,15,-8,48,12,9,17,19,-22,7
-12,33,-27,15,-7,-11,14,33,-20,10
-41,22,-44,-1,0,19,9,29,-1,-1
-34,12,-50,-4,-10,2,-15,-2,8,-5
-6,0,-29,-7,-36,-59,-39,-26,6,5
17,-4,-29,-8,-48,-45,-59,-42,-26,-11
32,-7,-7,9,-37,21,-64,-42,-30,-27
36,-7,38,4,-35,23,-37,-40,-38,-29
21,-5,36,-17,-36,11,4,-42,-40,-22
114,0,17,-16,-9,16,14,-32,-28,24
205,3,33,2,27,12,2,-13,17,64
77,-12,43,17,39,3,10,11,49,42
-87,-34,30,27,14,-8,33,37,72,-8
-130,-41,34,39,26,20,49,33,76,-32
-88,-8,68,49,49,45,64,32,64,3
-39,5,82,42,46,45,60,21,10,11
-2,35,34,40,29,22,46,19,-26,8
5,22,-22,17,-8,0,3,9,-49,4
4,4,-44,7,-40,9,-20,3,-51,-2
-8,18,-48,-11,-63,0,-38,-3,-28,13
-33,17,-75,-38,-84,-41,-65,1,1,0
-32,-2,-96,-41,-75,-64,-76,15,33,-11
28,-13,-73,-28,-51,-58,-69,9,47,-4
63,0,-23,0,-32,-32,-64,15,46,16
34,8,-5,3,-24,-1,-55,9,28,14
7,-1,25,9,-28,23,-57,0,8,-15
-5,-14,45,0,-28,51,-28,-8,-12,-29
-37,-17,42,0,-9,54,10,-9,-34,-31
-95,-28,43,-6,-1,47,24,-11,-41,-13
-74,-17,58,-14,8,61,0,-11,-43,4
-12,-8,60,-27,-1,53,7,-11,-53,7
20,1,48,-21,3,66,36,-21,-56,-2
11,23,39,-11,24,84,49,-30,-58,-18
15,37,36,2,8,32,16,-22,-53,-9
21,24,-9,15,-25,-51,-46,-20,-34,19
19,7,-62,-10,-70,-93,-86,-6,-29,27
35,15,-58,-56,-108,-122,-108,17,-10,6
41,28,-47,-63,-113,-133,-114,12,-15,0
19,9,-53,-33,-95,-103,-97,-19,-33,4
-3,-2,-55,-32,-65,-43,-76,-35,-24,-3
5,-13,-53,-32,-54,-19,-70,-41,-37,-20
15,-19,-34,-31,-55,-20,-45,-42,-26,-24
-22,-12,-3,-28,-43,-8,-3,1,2,-13
-29,-5,13,-15,-23,11,13,17,7,2
3,-16,30,-11,-18,9,15,23,2,19
-7,-42,25,-18,-16,17,36,55,11,15
-39,-19,27,6,20,36,77,57,20,3
-25,0,47,43,50,43,70,22,13,-3
-14,8,75,55,50,56,58,-13,1,-14
17,19,68,32,36,54,35,-40,-16,0
56,7,8,-12,-4,25,-16,-43,-13,8
15,-12,-61,-28,-35,-22,-41,-21,-13,3
-16,-25,-85,-36,-53,-41,-33,-1,9,9
-9,-13,-94,-46,-58,-44,-35,13,32,15
-7,15,-68,-32,-28,-51,-55,-1,0,14
0,34,-24,2,-19,-56,-61,-13,-34,1
0,21,0,9,-18,-50,-44,-16,-52,-8
-19,5,-15,-19,-22,-20,-28,-18,-55,-11
-25,1,-7,-8,-18,9,-18,-8,-38,-4
-2,-18,13,-4,-4,10,-10,-4,-15,28
36,-19,8,-16,-16,0,9,20,-25,50
29,-3,12,-1,-4,27,30,9,-34,36
14,0,3,8,27,36,43,-6,-24,1
-8,-4,30,27,58,38,42,-14,-25,-24
-33,-29,50,16,53,19,38,-17,-24,-52
-120,-71,2,-18,18,-26,33,23,43,-54
-127,-62,-43,-39,-20,-29,52,69,102,-12
-56,-7,-45,-17,-23,-5,74,75,64,-3
29,29,-38,5,-9,-8,59,95,-3,-10
89,47,-55,-29,-33,-25,-22,103,-24,0
69,19,-70,-65,-50,-28,-79,51,2,-23
19,7,-60,-44,-42,-15,-76,-10,44,-41
52,43,-19,9,-16,-2,-53,-49,51,-2
82,55,14,46,15,14,-11,-66,12,47
57,42,41,40,30,12,10,-58,-10,59
48,32,73,44,43,7,15,-41,-17,26
19,23,99,54,52,18,15,-46,-48,3
30,-12,74,36,22,11,7,-74,-94,-22
64,-36,29,-5,-8,-7,-13,-89,-102,-16
6,-50,2,-14,-17,-16,-11,-66,-54,21
-92,-51,18,6,17,21,29,-30,-13,0
-90,-34,35,28,57,35,61,3,6,-29
-41,-7,27,29,66,19,81,15,25,-20
0,2,-1,0,50,13,85,32,39,-5
-5,2,-60,-35,6,-9,41,23,24,-3
-6,1,-65,-42,-27,-14,11,22,23,-3
1,20,-45,-52,-37,-36,7,50,45,16
9,26,-48,-36,-31,-39,0,65,26,2
5,22,-27,-5,-11,-52,-11,38,33,2
-1,7,-15,8,0,-52,-56,26,67,17
3,-7,-20,-13,-17,-53,-64,35,72,-9
0,-1,-4,-28,-32,-41,-35,29,54,-18
-1,0,26,-20,-22,2,-8,19,31,4
10,-5,37,0,-9,34,38,8,1,4
18,-16,47,8,26,47,49,-6,-31,4
-22,-22,37,3,52,50,46,-6,-24,6
-20,-9,14,8,52,54,55,-13,9,28
-20,8,27,21,45,45,21,-15,18,21
-23,18,42,16,51,34,28,-6,-20,-10
-3,9,39,-9,43,17,46,1,-24,-23
36,20,-11,-38,-3,-27,12,24,2,7
46,37,-30,-32,-31,-48,-34,11,6,25
11,35,-53,-30,-34,-61,-72,-1,1,10
15,34,-65,-30,-35,-46,-69,-17,-4,-18
9,9,-61,-22,-26,-20,-60,-20,-6,-27
0,-26,-50,-16,-27,-16,-60,11,49,-6
8,-2,-27,-1,-16,-11,-36,14,64,9
-19,8,-11,-3,-6,0,-15,5,33,0
-35,-4,12,-3,13,15,4,-1,22,-9
-19,-9,15,17,19,30,18,-9,11,-14
-8,-2,28,12,16,39,21,-4,9,4
-13,-4,35,16,31,48,26,2,22,11
-32,-2,17,10,16,34,17,3,35,13
-39,-1,22,1,3,1,25,7,41,14
-38,-23,55,11,12,25,63,10,48,16
-26,-13,62,25,14,41,75,25,54,-1
-13,5,29,12,6,17,46,11,50,16
22,9,-22,-2,-18,2,-5,-15,21,31
63,8,-45,-12,-31,-25,-54,-14,3,33
77,-5,-73,-45,-45,-61,-65,-1,14,28
69,-10,-80,-70,-61,-70,-64,27,23,10
30,-4,-65,-52,-51,-49,-48,38,26,-18
-8,-9,-43,-30,-34,-4,-43,35,25,-24
-8,-5,-1,3,-28,5,-38,28,41,-3
-21,6,9,15,-25,-23,4,36,73,19
-37,12,26,1,-5,3,46,33,108,2
6,37,65,32,40,41,34,0,71,-22
45,52,90,62,83,66,61,-20,-19,-27
15,46,109,78,90,66,40,-32,-113,-32
-29,9,78,68,63,45,11,-25,-139,-4
-12,-14,55,48,50,36,32,-2,-101,0
14,-5,83,64,57,44,59,-6,-98,-13
10,-5,67,66,43,39,39,-30,-111,2
15,6,25,30,17,24,11,-24,-80,33
-9,22,8,13,-8,0,-16,-24,-55,14
-14,18,-16,7,-24,-20,-47,-21,-30,-8
9,5,-39,0,-59,-34,-76,-9,-7,-12
16,-13,-55,-13,-78,-47,-88,-25,-47,-15
-7,-25,-55,-26,-72,-40,-53,-41,-43,-3
-32,-42,-39,-19,-50,-15,-59,-34,-28,-2
-34,-55,-70,-16,-47,-15,-82,-42,-40,-14
-57,-71,-100,-38,-54,-38,-73,-34,-36,-31
-70,-82,-109,-56,-48,-53,-43,-15,-36,-29
-29,-47,-59,-48,-25,-27,6,41,8,30
12,3,32,-5,18,52,47,77,64,59
33,17,74,38,53,96,63,82,77,60
38,16,90,56,70,82,39,59,92,53
28,31,110,67,59,71,42,20,72,20
-3,28,97,58,42,48,34,-13,-9,-20
-31,0,34,29,15,9,-8,-18,-82,-54
-30,-9,-37,-10,3,-33,-71,-45,-132,-82
-32,-23,-75,-51,0,-40,-93,-37,-112,-88
2,-33,-124,-86,-43,-72,-89,3,-50,-42
55,2,-81,-56,-45,-52,-36,42,-12,0
50,14,-28,-13,-19,-21,4,41,-19,-20
59,13,-18,-2,-13,7,12,13,-32,-12
56,8,-28,3,-17,-4,23,4,-20,25
-21,-6,-3,24,-2,9,30,-13,-18,10
-50,8,51,39,-8,20,1,-31,-17,-6
-37,24,65,33,-24,20,-41,-39,-21,-1
-31,-4,42,-4,-5,8,-39,-24,-13,-17
-20,-20,25,-18,-11,-8,2,-14,23,-11
-10,-13,35,1,8,-2,41,0,48,24
0,-10,71,32,47,35,73,-13,38,37
4,-7,92,50,52,40,62,-6,45,23
-10,-3,66,27,19,28,75,14,46,15
-9,-11,4,4,-2,36,91,29,32,6
24,1,-10,2,-1,33,74,35,17,19
55,33,-2,7,2,8,45,41,28,34
60,46,-40,7,3,-34,-13,66,27,31
24,33,-57,0,-14,-91,-82,62,-2,8
5,11,-44,-6,-40,-100,-106,2,-15,-3
-23,-2,-31,-12,-66,-65,-86,-68,-22,-19
-29,-2,-4,-19,-47,-19,-52,-103,5,-16
-21,-13,7,-16,-22,-3,-28,-81,19,-17
-11,-27,5,-25,-26,-1,11,-42,21,-15
-5,-18,8,-30,-10,16,28,-16,24,7
0,-15,9,-11,8,35,34,-6,28,40
-6,-15,15,8,27,35,36,9,34,32
-6,5,28,13,32,43,28,8,28,-2
-7,-2,19,-11,42,45,31,-20,-2,-35
-10,-10,7,-42,29,13,25,-34,11,-38
-8,-7,-2,-34,17,4,24,-18,47,-30
-18,-1,-26,-24,8,0,22,23,74,-4
3,25,-28,-23,6,-5,6,47,83,22
38,55,-43,-43,-8,-10,-5,62,81,26
44,53,-79,-51,-32,-45,-34,60,63,18
18,28,-81,-43,-31,-57,-70,33,14,-1
-8,3,-59,-40,-42,-50,-70,21,0,-7
-22,-10,-44,-33,-28,-13,-40,28,0,-4
-28,-12,-25,-7,0,-1,-22,33,-8,1
-11,5,-14,17,24,21,15,19,2,0
14,-11,5,19,50,56,32,0,7,-2
13,-1,46,24,53,63,43,-15,15,20
28,32,67,30,46,15,49,-15,13,12
23,32,58,28,56,4,50,-22,-8,-22
-18,-2,43,33,59,41,38,-31,-8,-17
-38,-31,44,38,62,64,60,-23,-13,-11
-23,-11,44,36,26,56,61,0,-20,-14
-15,1,15,24,1,22,69,3,-12,-10
-5,-3,-23,8,-6,9,58,3,0,-3
14,-7,-36,4,-9,0,18,4,5,9
34,7,-35,-15,-2,-18,-18,7,-9,-10
24,9,-43,-26,2,-31,-27,16,-17,-6
3,11,-61,-11,-3,-23,-32,12,-6,15
-9,5,-52,-18,-21,-44,-48,17,26,21
9,18,-13,-8,-10,-48,-21,8,23,14
7,-8,9,3,23,-5,-4,-30,-18,-18
-14,-3,35,25,40,0,-43,-70,-47,-22
-30,-1,54,23,32,-38,-53,-62,-47,-11
-29,-33,42,-33,5,-12,17,12,-1,21
-8,-4,43,-27,23,37,75,47,43,51
3,12,35,13,46,62,70,12,19,23
-24,-21,37,18,59,64,59,-40,-27,-26
-12,-25,50,9,47,33,36,-30,-7,-17
-18,-24,29,-15,1,-11,7,-8,16,5
-19,-15,-10,-42,-43,-37,-22,-3,-38,-11
-23,-17,-53,-36,-51,-61,-34,0,-59,-27
-37,-10,-69,-25,-44,-40,-19,14,-31,-27
-20,2,-93,-37,-33,-24,-38,51,5,-12
22,1,-72,-47,-29,-30,-40,74,71,26
71,22,-29,-23,-29,-2,-9,60,108,54
80,26,11,-4,-21,8,-7,29,93,36
82,11,26,2,-4,3,-30,0,8,12
53,-5,22,13,-2,10,-50,-26,-86,-34
16,-5,40,23,16,1,-40,-51,-137,-53
0,6,30,31,29,-3,8,-19,-118,-24
-20,3,28,15,13,1,39,-2,-65,6
-33,5,47,27,33,23,24,6,-36,16
-17,10,56,39,51,23,18,0,-44,13
-36,-14,50,39,38,23,38,-4,-48,-3
-43,-30,35,29,27,34,68,13,-51,-6
-25,-2,23,19,9,49,75,2,-21,5
-2,9,-16,15,-7,27,62,-13,-5,-4
12,12,-24,16,-22,-6,9,-18,17,-18
18,7,-28,9,-31,-36,-45,-8,15,-2
20,20,-15,27,-26,-86,-98,-16,12,14
16,22,-19,19,-39,-91,-107,-36,0,21
-2,-7,-63,-24,-59,-85,-87,-28,-18,4
-46,-12,-82,-10,-42,-33,-70,-11,-26,-2
-53,-8,-42,5,-9,-8,-50,-20,-4,1
-1,-22,-5,-12,0,-22,-28,-19,-3,0
38,-36,17,-22,-19,-6,5,-16,3,26
-5,-39,23,-22,-10,21,22,-7,0,13
-24,-22,33,-17,4,31,32,20,20,-5
-1,0,39,9,29,29,40,28,28,20
16,1,46,17,52,41,62,27,19,11
34,-2,59,19,39,44,79,35,15,17
25,16,55,22,39,49,61,48,15,43
36,12,26,-3,19,30,54,71,8,35
61,16,-9,2,9,24,30,123,6,22
52,39,-31,14,11,11,-11,64,-5,6
28,56,-32,-9,-6,-6,-33,-25,-24,-32
-11,36,-11,-8,-12,-18,-37,-76,0,-58
-55,7,13,14,-10,-20,-31,-78,17,-63
-83,-32,-8,17,-21,-21,-17,-74,-17,-58
-72,-27,-25,5,-24,-36,-27,-82,-80,-44
-51,-36,-50,-14,-34,-64,-63,-86,-130,-37
-56,-74,-97,-55,-66,-90,-95,-114,-155,-62
-68,-82,-79,-60,-64,-89,-111,-108,-141,-85
-35,-36,-37,-31,-15,-11,-30,-41,-73,-43
81,28,16,18,28,76,70,11,11,6
135,53,53,73,64,109,114,56,66,53
28,41,89,92,83,108,149,86,74,49
-89,-2,82,90,79,91,141,101,70,26
-91,-24,52,98,75,55,121,93,81,21
-6,12,35,71,67,5,82,46,78,10
55,42,26,44,25,-23,-2,-9,23,-6
100,54,-10,25,-11,-39,-46,-25,4,34
120,34,-48,-9,-46,-53,-75,-30,10,102
51,30,-57,-15,-40,-47,-79,-29,11,60
-39,0,-42,-18,-27,-43,-47,-6,12,10
-29,-17,-18,-9,-10,-23,-4,18,29,31
-17,-1,-11,0,26,16,26,13,54,14
-20,5,11,8,113,48,18,0,31,5
-31,-1,39,17,102,47,16,2,1,7
-38,8,44,38,55,0,7,0,-4,-1
-21,14,41,48,43,6,18,-26,-4,-19
-2,-4,41,31,39,51,62,-13,-12,-34
-15,-5,42,24,41,75,79,-14,-35,-67
-25,-11,51,10,29,58,61,-28,-31,-42
-21,-15,52,-1,26,46,48,-20,8,5
-11,1,33,-4,18,43,53,10,55,37
32,17,9,-1,11,9,36,13,56,31
50,3,-54,-21,-33,-54,-13,10,17,12
24,-16,-94,-49,-61,-69,-12,36,29,8
2,-7,-88,-39,-65,-39,-16,43,49,5
-31,-24,-69,-42,-72,-22,-29,35,21,-11
-66,-13,-33,-56,-58,-13,4,36,45,-25
-12,-2,-11,-43,-46,4,16,21,33,-19
32,-15,-15,-44,-42,26,0,-14,-23,-34
27,-13,-2,-53,-32,24,11,-21,-4,-6
20,-4,38,-13,-7,15,48,6,12,12
-14,0,73,7,30,1,11,2,7,7
-31,-1,86,18,32,-49,-29,-5,32,22
-40,-6,60,12,-8,-41,-33,7,53,41
-16,-8,39,-7,-6,26,-8,14,33,33
15,9,58,14,34,72,12,-17,-10,13
32,33,82,27,42,50,18,-25,-15,-3
39,34,33,22,8,24,1,-12,22,-13
54,20,-18,0,-20,-9,-8,-3,43,-17
35,22,-39,-22,-28,-31,-14,14,34,-7
-8,33,-38,-18,-36,-52,-33,33,19,14
-3,33,-44,-7,-32,-49,-50,33,7,27
5,9,-53,-25,-50,-52,-62,-7,-26,9
14,6,-45,-34,-62,-29,-49,-17,-40,-23
7,2,-33,-17,-61,-8,-29,-13,-33,-19
-3,-17,-18,-15,-58,-5,-21,-26,-17,6
-27,-22,7,-20,-38,15,-11,-15,-16,23
-38,-20,19,-10,-22,27,8,4,2,15
-21,-24,21,5,-13,24,34,16,21,11
-30,-32,33,12,-4,33,40,12,28,9
-23,-8,50,22,7,34,61,8,36,-6
-15,-2,59,10,13,49,61,13,23,-22
-17,0,64,4,10,42,56,2,14,-31
-9,-1,52,2,-4,40,46,-31,2,-34
31,0,-18,-18,-16,16,21,-30,-23,1
55,-9,-66,-31,-35,-22,-4,-3,-20,12
70,9,-94,-28,-59,-44,-25,28,38,23
40,2,-109,-30,-67,-65,-76,39,52,27
13,31,-74,-28,-38,-78,-106,36,50,18
16,34,-40,-23,-35,-79,-108,22,41,15
4,11,-27,-33,-34,-48,-68,0,26,9
-7,-12,-12,-25,-11,-17,-33,-10,0,-21
-25,-36,-19,-9,0,16,2,-3,-11,-43
-49,-36,-17,-11,24,20,25,29,3,-49
-48,-17,-4,-2,41,28,16,15,-28,-32
-17,-3,-14,-2,32,44,-51,-5,-49,7
10,9,15,-2,36,53,-34,-22,-47,32
18,34,54,11,42,52,48,-34,-55,3
-16,20,67,27,54,53,28,-50,-40,-22
-65,-13,38,14,49,31,13,-64,-34,-16
-41,17,18,28,38,11,17,-10,-2,0
22,22,-9,39,33,1,-23,11,11,-3
33,22,-33,14,21,3,-33,28,24,7
50,13,-48,0,4,3,-38,38,85,32
94,12,-56,-12,-12,-2,-32,19,78,10
57,10,-49,-16,-19,-24,-26,-18,6,-11
-32,-9,-33,-21,-28,-29,-43,-45,-47,-23
-89,-20,-42,-19,-39,-31,-69,-51,-87,-21
-60,-22,-23,-3,-35,-22,-54,-40,-106,-1
-6,-34,17,26,0,-5,5,-12,-74,-4
11,-12,36,28,37,34,62,4,-42,-9
41,-4,39,18,43,73,100,19,-9,-2
111,-9,31,13,23,47,90,26,8,2
49,21,41,28,35,46,109,61,22,24
-103,30,72,76,86,56,101,51,46,19
-117,-8,58,52,78,-6,29,-7,3,-15
-45,-18,10,0,23,-64,15,-21,-28,-12
-29,-15,-7,20,30,-45,-27,-24,-45,4
17,-29,-25,13,21,-35,-66,-18,-47,-18
155,-33,-52,-35,-32,-30,-47,-5,-25,9
232,6,-69,-41,-44,-25,-46,3,-35,49
126,14,-65,-31,-18,-27,-71,-3,-37,92
-21,16,-40,-31,-16,-41,-68,-9,-45,52
-98,8,-28,-1,3,-22,-32,15,-24,-39
-88,11,-5,20,22,-4,-13,35,10,-63
-66,-8,9,21,12,-3,-5,-2,-7,-42
-53,-22,0,16,4,12,-4,-35,-32,-34
-33,-16,-4,1,2,8,-5,-41,-17,-24
-8,-25,10,-13,16,6,0,-28,2,-11
12,-21,37,5,50,19,27,-9,6,-9
2,0,59,18,65,49,41,4,14,-13
-1,10,58,17,40,40,43,-2,7,5
1,30,61,24,33,28,32,6,-3,17
-17,15,67,24,30,31,33,6,-11,9
-8,7,18,0,9,6,-10,-5,-15,13
5,-13,-39,-43,-27,-25,-29,-2,-24,16
1,0,-71,-53,-67,-54,-50,7,-17,-3
-8,8,-94,-49,-83,-62,-78,7,3,0
25,6,-54,-40,-67,-61,-74,2,23,-6
51,5,-26,-53,-44,-33,-58,-12,23,-15
30,-16,-23,-78,-60,-43,-34,24,29,-5
-29,-29,-19,-76,-75,-59,-28,67,-1,-19
-37,-30,-4,-45,-46,-29,-25,79,-32,-32
22,-26,3,-8,-23,-22,-15,40,-26,13
35,-24,1,14,-13,-8,-14,-9,54,63
-71,-23,3,42,13,34,12,-16,104,38
-85,10,28,52,49,69,32,-4,96,12
-1,30,57,61,61,62,43,-14,37,7
35,34,93,68,45,54,69,-31,-28,21
-5,11,72,60,44,69,84,-26,-66,21
-20,-7,10,29,26,65,66,-19,-69,27
-7,-10,-11,4,17,28,15,-23,-61,16
12,18,-25,17,5,-13,-54,-46,-32,-21
53,68,-22,20,-17,-78,-124,-43,-4,-11
58,65,-34,10,-48,-129,-120,-12,20,-17
43,27,-50,-5,-74,-100,-66,13,52,-27
18,-5,-20,1,-62,-37,0,18,38,-32
-5,0,6,7,-46,-16,16,-2,-22,-53
-12,2,32,5,-35,0,3,-7,-34,-31
-42,-12,53,5,-23,13,4,-22,-41,-4
-54,-20,45,-2,-27,0,24,1,-42,4
-33,-26,29,15,-31,-6,40,4,-26,-7
3,-18,5,17,-7,8,62,0,-16,-2
28,-1,6,0,3,27,101,-3,14,3
43,-6,13,0,17,52,98,7,44,1
37,-17,43,16,30,78,72,14,51,11
30,-17,28,17,11,57,33,1,38,-1
0,-2,-19,-7,-21,-17,-27,-9,0,18
-59,7,-46,-20,-33,-61,-46,7,8,42
-67,8,-52,-23,-20,-54,-12,43,58,33
-22,24,-70,-10,-25,-23,10,55,77,25
0,25,-82,-9,-22,-5,3,52,79,6
-7,21,-61,5,1,3,4,34,65,-10
-15,11,-49,2,14,8,9,3,29,-11
-12,3,-51,-21,-8,0,-3,1,9,-2
22,6,-14,-36,-14,12,13,-2,2,-6
34,10,0,-20,15,34,18,-9,-18,-9
38,14,8,7,47,54,2,-31,-28,-20
61,51,57,24,51,11,-10,-41,-4,-2
45,58,55,19,31,-46,0,-19,19,17
-20,-79,0,-7,36,22,79,34,76,22
-51,-114,0,9,71,100,152,72,127,34
-24,8,64,11,64,78,87,7,72,0
11,42,92,-15,19,-3,-33,-78,-65,-66
22,-7,6,-42,-14,-45,-65,-62,-100,-60
-12,-22,-64,-27,-15,-34,-31,4,-48,-25
-17,-12,-69,-18,-11,-39,-18,37,0,-5
21,21,-70,-10,-20,-48,-44,27,-14,3
21,36,-57,3,-14,-40,-53,0,-18,1
-2,22,-36,-5,-12,-32,-53,-21,-8,0
-3,-2,-45,-34,-17,-34,-48,-23,-8,20
-8,-13,-34,-58,-13,-26,-42,-19,-1,20
-17,-22,-10,-26,5,-3,-9,-1,0,14
-10,-27,14,-7,20,15,22,9,7,10
10,-27,36,10,23,16,30,9,12,22
4,-3,30,14,38,20,5,11,0,22
0,-6,0,-8,21,12,-1,6,-11,3
-12,-23,-9,-13,11,16,10,-2,-21,-7
-31,-22,21,15,35,36,33,-8,-28,-32
-8,0,45,10,41,29,16,-9,-29,-22
16,-1,11,-7,16,7,-5,1,-8,9
34,1,-21,-6,1,-30,-17,11,-2,12
27,29,-39,-12,-16,-70,-34,15,-24,9
15,29,-57,-39,-49,-90,-71,31,-5,34
30,16,-60,-41,-55,-80,-84,8,2,33
34,0,-51,-34,-36,-26,-79,-16,-39,19
21,-18,-23,-26,-14,-15,-74,-24,-74,-18
-22,-13,-36,-12,-15,-27,-64,-31,-63,-53
-48,-6,-30,-15,15,-28,-38,-11,-11,-36
-39,-9,29,-7,20,1,-14,-7,-10,-25
-17,1,58,1,26,15,-16,-23,-36,-23
13,-2,50,2,10,14,-28,-27,-41,-16
14,-10,25,14,-13,16,-2,-20,-29,-11
11,-11,45,18,4,13,16,-14,-19,-10
-9,-8,72,31,3,19,11,-22,-8,-7
-36,-2,56,24,-7,36,26,-20,-11,-12
-79,-20,26,20,-14,23,19,-9,-1,-16
-80,-25,-20,0,-22,0,-8,11,0,10
-22,-10,-38,-18,-23,-27,-21,25,0,6
39,4,-41,-8,-22,-45,-31,29,12,15
98,9,-50,-3,-39,-33,-54,26,18,43
146,9,-33,-10,-57,-17,-45,15,5,83
122,-2,-42,-9,-49,-27,-29,0,-2,103
0,-10,-34,8,-40,-19,-19,0,-7,48
-44,10,-15,6,-29,-11,-43,-8,-32,-20
-33,13,11,5,-27,-23,-32,-7,-38,-35
-94,-16,16,-22,-49,-28,15,41,0,-28
-102,-37,26,-6,-11,3,49,46,22,-18
-46,-32,38,5,23,23,39,0,8,-52
-16,-11,36,2,16,31,47,-7,20,-39
-11,-21,49,3,19,25,67,-6,31,1
-7,-32,73,6,39,19,69,8,36,-3
4,-4,67,29,43,38,82,33,37,16
42,38,54,50,40,38,67,22,15,46
37,58,37,54,28,24,23,-17,-38,41
30,67,16,28,0,-2,-35,-38,-53,23
28,30,-43,-12,-30,-37,-68,-47,-47,-16
0,7,-57,-16,-51,-47,-73,-38,-39,-19
-28,4,-63,-22,-50,-52,-63,-20,-26,-16
-39,-6,-36,-31,-34,-21,-29,-2,-11,-35
-33,0,-27,-24,-17,4,0,14,17,-43
-21,-6,-26,-32,-7,17,10,4,20,-49
-18,-26,-26,-36,0,8,25,0,26,-33
-20,-27,-1,-2,18,35,45,-9,15,-11
-38,-13,42,24,32,81,67,0,-7,16
-40,5,64,40,34,57,3,15,5,27
-24,10,89,28,16,9,-13,13,11,12
-2,-10,75,12,13,-3,33,17,2,14
37,-15,53,23,53,25,96,45,29,22
105,6,40,33,58,45,110,49,41,25
190,24,14,30,44,18,67,16,-1,29
186,28,2,27,9,-14,-3,-21,-27,15
21,11,-36,20,-15,-32,-40,-23,-25,-2
-123,2,-63,11,-29,-47,-49,-16,-12,4
-140,12,-69,7,-29,-43,-59,-22,-10,-1
-86,-7,-76,-1,-11,-16,-71,-38,-16,-15
-20,-3,-33,3,4,-7,-36,-29,5,-9
30,5,-8,15,4,-9,-13,-15,21,0
26,13,9,13,36,22,21,-8,13,3
19,10,14,-3,33,26,36,-14,17,20
8,-26,7,5,15,24,52,0,24,16
-33,-37,13,4,24,39,64,-8,36,-16
-35,-28,6,-15,31,55,68,0,34,-10
-17,-7,51,13,40,35,77,25,31,7
-16,-3,76,35,40,38,99,21,22,3
-23,-10,62,23,24,35,97,34,36,13
-25,-18,31,-3,-3,30,67,40,77,17
-12,-10,-19,-24,-19,41,56,40,62,4
24,13,-30,-16,-19,14,51,31,40,14
33,34,-45,-8,-11,-16,18,51,54,28
32,39,-85,-25,-34,-61,-36,100,26,20
24,17,-65,-30,-63,-129,-102,68,-11,1
-2,-1,-48,-48,-99,-148,-101,-3,-38,-37
-7,20,-34,-48,-95,-72,-53,-28,-14,-32
19,48,-7,-27,-49,6,-13,-49,38,22
41,74,50,10,0,26,-25,-77,44,40
65,66,78,34,45,20,-31,-92,8,-1
20,24,52,25,60,25,-7,-66,7,-22
-44,-24,30,10,35,32,9,-31,-2,-32
-40,-18,33,12,29,39,34,-18,-31,-11
-37,-25,34,0,30,15,60,-49,-62,-4
-23,-25,28,-5,17,8,64,-38,-62,3
-15,-10,21,-2,18,46,52,2,-27,4
21,1,-5,-19,27,27,42,18,-9,14
76,22,-40,-16,0,-19,-4,15,-9,22
87,15,-55,-8,-34,-43,-41,-1,-1,16
22,3,-64,-16,-57,-51,-59,16,19,-2
-2,-6,-73,-14,-55,-39,-63,31,15,0
-2,7,-46,7,-35,-29,-58,7,-16,-22
-22,16,-15,10,-28,-22,-42,-5,-52,-45
-28,-15,4,-9,-32,-23,-19,1,-27,-51
-22,-33,22,-21,-34,-38,-11,10,16,-22
-17,-32,10,-20,-14,-6,2,9,24,-5
-5,-16,7,-5,-8,19,13,5,35,11
-9,-18,13,6,0,9,4,0,46,13
-14,-18,29,12,16,6,14,-6,20,19
-7,7,49,6,29,36,12,-7,2,13
-20,5,68,21,54,41,14,-8,3,-6
-32,9,52,9,50,20,38,12,3,-7
-8,9,40,-4,25,-2,58,22,1,16
17,5,13,-9,11,1,30,20,2,-1
26,23,-27,-24,-20,-10,-13,22,11,-24
14,17,-69,-24,-35,-19,-26,18,23,-32
-9,16,-103,-35,-51,-39,-52,15,32,-34
-9,0,-113,-48,-67,-49,-80,21,43,-20
-23,-15,-106,-51,-66,-39,-56,23,57,-3
-26,-5,-81,-46,-44,-26,-42,14,33,0
-11,16,-25,-37,-24,-13,-35,0,5,19
19,16,27,-21,-1,0,-20,-9,-4,21
22,0,53,7,18,16,2,-14,-13,14
-1,-3,51,5,25,11,30,-13,0,12
-39,-11,31,2,22,31,49,10,15,5
-52,-15,37,5,16,30,57,11,22,6
-58,-23,36,-4,17,25,57,2,0,3
-65,-30,54,2,10,23,54,18,-15,-15
-45,-13,65,-1,18,22,53,36,8,-24
-2,-5,38,-12,22,15,36,41,9,1
55,4,-34,-31,0,18,32,21,13,7
129,8,-49,-29,-15,13,19,-8,41,-1
180,17,-53,-21,-27,-14,-30,-21,28,9
80,13,-58,-15,-28,-39,-57,-19,-40,35
-62,2,-56,-4,-22,-20,-56,-16,-44,15
-75,4,-40,2,-13,-3,-41,-2,10,-6
-8,9,-4,17,6,6,-19,23,59,17
49,18,17,34,8,11,-34,4,32,32
67,25,41,62,27,33,-30,-21,-31,30
-8,-1,48,61,41,37,-26,-42,-80,-7
-51,-29,56,31,18,27,-8,-45,-110,-40
-68,-44,67,30,8,18,5,-39,-90,-36
-53,-40,69,25,11,16,30,-16,-44,8
5,-11,89,48,37,30,48,-18,-35,16
-2,-3,85,71,59,57,45,-13,-44,-10
-9,-3,54,67,57,56,25,-7,-36,-13
43,9,20,48,38,27,17,2,-28,-5
65,7,-10,19,11,0,18,14,7,-7
32,-5,-54,-14,-11,-5,-2,8,20,-11
17,-2,-76,-26,-24,-2,-34,17,9,0
6,3,-66,-20,-21,1,-39,20,2,0
-47,0,-58,-4,-13,-43,-59,13,-7,5
-82,-7,-39,6,4,-78,-61,0,-6,23
-61,0,-21,-2,9,-96,-61,-6,-11,17
-10,12,0,-13,15,-45,-52,-11,-32,-25
-4,-3,16,-22,16,23,-22,-22,-40,-27
-23,-27,32,-29,0,20,20,4,-3,-3
-17,-22,48,-18,33,66,24,4,5,5
2,-4,32,0,54,91,25,-3,-34,-10
1,6,21,4,42,73,46,4,-40,-17
5,-5,24,6,35,61,47,-8,-42,-11
21,-17,37,24,54,59,51,-2,-40,-4
24,-4,18,34,76,42,36,-10,-32,10
32,10,-22,21,46,-11,-18,-10,-29,18
23,-2,-51,-2,-8,-37,-40,-3,-29,5
0,3,-78,-28,-33,-26,-25,21,22,4
12,4,-75,-34,-32,-36,-32,27,52,16
16,27,-56,-15,-22,-27,-41,2,-6,13
11,40,-31,-16,-19,-13,-44,-14,-46,4
6,19,-19,-21,-26,-25,-40,-8,-28,7
19,5,-11,-27,-33,-23,-6,8,4,14
-6,-1,2,-15,-13,21,23,8,44,5
-31,-13,31,19,29,32,10,-11,43,-18
-49,-34,24,41,36,-25,-61,-35,15,-13
-23,-44,4,8,-22,-91,-60,6,14,17
19,-22,12,-3,-8,-52,9,13,-7,18
35,9,38,31,46,26,21,-19,-30,9
20,15,57,40,63,75,38,-40,-41,-11
9,4,66,2,53,63,27,-41,-50,-50
12,-2,41,-13,20,21,0,-32,-31,-60
0,-12,-24,-23,-21,-15,-29,-6,23,-31
-36,-17,-58,-33,-34,-23,-27,28,17,0
-9,1,-63,-24,-35,-19,-16,41,-4,23
49,28,-40,-18,-25,-26,-43,14,-10,30
20,26,-30,-23,-37,-57,-77,-20,-29,9
4,9,-32,-27,-54,-42,-65,-21,-17,-13
14,0,-22,-22,-63,-28,-53,0,28,2
8,-11,5,-19,-44,-12,-41,8,32,20
-18,-27,21,-10,-31,6,-21,13,18,13
-16,-29,31,4,-9,20,4,1,8,-2
0,-18,56,26,15,28,32,11,6,0
-11,-14,56,43,19,27,53,15,-7,0
-22,-14,46,40,15,5,76,0,-1,9
-27,-25,41,18,1,7,58,-6,1,11
-25,-21,49,2,8,28,44,-5,-9,-5
-23,-4,29,11,22,17,40,-3,-12,-11
4,14,-9,0,9,-1,24,9,-8,6
18,6,-34,-35,-37,-12,-5,7,-9,5
18,2,-86,-52,-53,-32,-20,8,-2,-8
2,-13,-120,-43,-72,-64,-51,7,-13,-10
-9,-14,-110,-36,-69,-70,-59,9,-6,-18
-15,0,-84,-23,-51,-37,-39,33,16,-7
-6,7,-39,-19,-45,-15,-13,49,17,8
10,12,-12,-28,-29,-17,-3,40,23,11
3,12,16,-11,-12,-25,-4,3,26,15
-29,-9,38,-3,-15,-18,9,-21,30,1
-25,-26,45,7,-11,8,29,-12,70,-4
-15,-22,37,24,-3,31,36,-7,63,5
2,11,47,29,23,45,38,6,27,6
-16,5,36,12,27,43,48,70,12,-28
-58,-26,25,-6,20,35,32,76,-55,-47
-56,-24,44,-3,26,25,23,2,-90,-41
-12,-5,48,23,47,20,41,-42,-25,6
27,38,30,57,59,1,18,-65,46,46
71,101,18,71,42,-3,-9,-65,46,58
94,101,8,54,16,-15,-22,-51,24,38
56,66,-30,11,-19,-42,-44,-51,-8,-5
32,28,-62,-21,10,-64,-69,-55,-34,-8
51,4,-70,-46,75,-58,-66,-48,-51,6
30,-19,-56,-44,15,-36,-25,-29,-46,14
-9,-42,-26,-14,-29,4,2,-15,-46,1
-30,-44,30,-1,-27,35,34,-14,-42,-2
-11,-23,39,15,6,54,79,-3,-25,-2
-18,1,36,31,22,37,108,14,-13,14
-33,-4,47,22,24,29,123,42,-12,0
-31,-5,62,18,41,-9,83,33,11,0
-18,16,63,39,63,-39,23,-6,18,-2
3,0,46,38,45,-22,17,-23,10,-27
8,-14,21,15,11,21,12,-28,-3,-27
3,-18,7,16,2,45,-32,-26,-8,-24
-20,-11,-33,17,-6,32,-36,-5,-2,-42
-15,-19,-77,-15,-22,-13,3,22,2,-33
32,-10,-103,-51,-48,-28,11,45,47,21
40,3,-100,-50,-57,-27,-18,43,58,55
8,-7,-78,-28,-46,-22,-20,31,54,32
-18,-17,-53,7,-33,15,-12,24,92,15
8,-5,-19,20,-16,1,-14,34,107,33
12,12,10,9,-6,-15,17,25,49,17
-5,2,42,1,14,3,13,-4,-13,0
-11,13,38,-7,22,-21,-11,0,-16,-3
8,31,35,-17,15,-17,8,6,-6,-9
17,2,37,1,32,25,30,-7,-42,-12
8,-2,46,24,38,44,53,-23,-68,-7
-23,4,65,38,31,43,53,-16,-44,-7
-16,13,73,39,24,34,35,-4,-28,-2
2,1,69,18,15,39,36,-19,-13,4
-11,-30,13,-11,-20,1,18,4,35,24
-12,-11,-48,-19,-13,0,0,21,26,15
24,12,-61,-17,-11,6,-14,14,13,6
45,4,-75,-21,-49,-42,-42,26,23,18
34,-16,-77,-19,-58,-44,-46,11,11,0
6,-11,-40,-13,-36,-37,-42,-14,5,-14
-26,-4,-7,-8,-29,-21,-23,3,39,4
-47,6,-12,8,-32,-15,-36,8,57,9
-32,18,-3,-2,5,-23,-32,-6,34,-1
0,33,28,2,28,-12,0,-14,25,6
7,14,60,9,9,-2,17,-15,7,-15
0,0,45,9,-1,19,22,-4,11,-21
-4,-27,20,-3,-2,17,13,5,24,-1
24,-22,25,-8,5,17,22,6,-1,13
43,20,54,-9,10,31,34,-10,-11,17
55,63,72,4,21,36,57,4,1,23
34,7,22,23,2,45,43,27,10,22
-17,-76,-36,19,0,47,35,64,62,20
-38,-24,-38,22,0,18,13,59,53,-15
-61,67,-10,20,-52,-47,-70,0,-15,-74
-81,37,-7,-3,-96,-84,-118,-30,-46,-88
-62,-7,-48,-36,-85,-73,-111,-31,-45,-60
-10,2,-67,-49,-73,-60,-79,-11,-29,-28
22,4,-57,-41,-58,-39,-48,3,-7,8
36,14,-49,-25,-26,-5,-10,16,-6,21
23,1,-16,8,-5,12,34,43,12,32
-24,-23,13,7,-3,19,55,34,27,33
-11,-8,36,13,6,37,43,9,26,35
10,-11,61,25,27,42,31,-10,21,14
-20,-1,67,26,26,25,14,-8,-8,-8
-36,-7,38,41,34,22,31,-5,-12,-14
-11,-9,29,42,40,18,49,-4,7,-21
56,12,40,44,49,29,54,-3,11,6
78,25,26,33,37,18,20,-4,1,26
84,30,-6,4,-1,-6,-10,-17,-6,16
94,47,-19,1,-7,-19,-16,-16,-11,25
107,34,-38,0,-12,-4,-18,3,14,21
55,13,-60,-8,-17,-20,-31,17,32,-7
-69,-19,-84,-19,-18,-48,-42,-12,-27,-28
-131,-43,-79,-23,-21,-51,-27,-37,-67,-48
-66,-25,-42,-26,-10,-32,4,-34,-34,-53
0,-17,-12,-21,-3,-23,0,-25,15,-26
23,-12,26,-3,0,-17,-8,-21,19,17
28,1,55,14,5,20,-11,-13,31,32
5,0,69,36,13,53,8,7,37,13
-39,-11,47,50,0,31,31,16,-9,-19
-45,-19,48,30,4,24,45,6,-55,-42
-29,-25,56,5,13,22,47,-13,-66,-38
-35,-43,20,-4,32,26,45,-28,-56,-22
-38,-60,-26,-18,18,19,25,-25,-35,-21
-18,-42,-55,-27,-9,-21,-7,2,-16,-6
5,11,-53,-9,-5,-3,10,51,0,20
24,45,-24,-5,6,7,22,72,39,29
18,57,-37,1,-10,-23,-15,41,35,17
14,32,-29,9,-12,-27,-28,-8,3,0
11,8,-1,-8,-4,-15,-15,-25,12,10
7,-12,-20,-26,-7,-13,-44,-25,19,15
-2,-33,-22,-40,-21,0,-52,-9,0,-3
-11,-20,-3,-34,-21,8,-23,14,0,8
-22,3,17,-18,-7,16,-7,9,5,13
-39,-11,12,-20,0,39,23,23,17,6
-28,-33,8,-7,13,59,45,66,28,-9
-10,-24,29,-16,13,33,23,38,25,-7
-12,-20,39,-22,25,12,6,-9,12,14
-9,-8,60,24,63,9,2,-57,7,17
1,36,89,75,120,17,-23,-94,-1,17
18,43,60,65,88,8,-26,-69,-30,12
28,30,6,2,23,-28,-35,2,-38,19
33,44,-19,-10,11,-35,-49,41,-21,25
49,48,-30,0,10,-23,-71,2,-34,-5
27,33,-61,-15,-17,-31,-67,3,-24,-9
13,17,-44,-12,-16,17,-42,13,-4,16
8,25,-17,-6,4,41,-35,0,6,7
13,9,-13,-7,0,-4,-39,-10,18,-35
3,-25,-7,-1,0,-12,-25,-11,-6,-34
-6,-12,25,8,22,-1,9,5,-37,-17
-4,-7,38,13,8,-5,30,8,-56,-28
-8,-6,54,28,25,14,49,0,-42,-28
-14,-1,67,56,66,43,35,-22,-35,-10
-10,11,54,41,61,56,31,-32,-35,-4
6,12,51,11,43,47,41,-7,-13,6
19,5,59,38,54,52,70,11,33,21
8,-4,48,61,62,57,59,15,34,9
0,0,17,57,42,46,30,13,12,15
21,15,1,31,9,19,2,0,20,34
35,14,5,0,-18,2,0,1,17,24
11,-3,-21,-32,-57,-24,-20,7,18,0
-15,-16,-51,-48,-80,-42,-33,10,18,-4
-39,-28,-69,-38,-55,-24,-71,-17,9,-1
-54,-31,-90,-26,-42,-48,-94,-57,-30,-15
-51,-40,-90,-58,-87,-122,-109,-41,-42,-24
-48,-45,-95,-82,-103,-127,-107,-46,-33,-24
-27,-50,-73,-78,-84,-74,-83,-24,1,10
3,-38,-36,-34,-38,-20,-19,18,34,13
9,2,8,23,20,36,42,48,20,1
33,32,63,49,65,65,78,56,15,-7
31,19,80,45,69,66,88,49,21,-34
-8,0,76,26,42,68,81,43,59,-18
-23,-13,55,-2,25,68,70,54,112,11
8,2,49,-1,23,40,59,32,89,11
13,12,14,0,11,16,36,28,35,19
28,35,-19,1,16,3,21,27,-15,39
31,39,-23,0,20,0,-2,22,-50,32
15,44,-24,8,-1,-17,-35,5,-54,3
3,27,-42,4,-16,-22,-42,-26,-63,-25
1,5,-44,3,-19,-10,-33,-55,-39,-37
-4,3,-14,-9,-17,-23,-37,-66,-6,-8
29,27,-3,-3,-15,-40,-61,-56,-9,18
60,24,-11,-1,-13,-31,-40,-47,-14,16
12,-18,10,0,-5,-14,-14,-34,-15,-13
-41,-55,1,-3,0,-2,12,-2,-2,-25
-68,-57,-10,-13,5,10,27,16,11,-23
-46,-36,16,6,11,12,14,15,26,-32
-4,-15,50,17,25,22,27,-3,0,-9
-11,0,54,17,39,25,47,-6,0,10
-20,-6,37,8,34,25,70,2,19,19
-15,1,5,-5,13,17,34,15,27,25
13,25,-12,12,-5,-7,-7,19,15,23
31,17,-51,2,-11,-32,-15,13,8,38
25,4,-72,-25,-26,-53,-27,30,22,34
15,0,-91,-51,-42,-49,-25,53,12,-11
-1,-5,-91,-54,-27,-29,-36,42,-13,-32
-20,2,-51,-31,-20,-46,-47,6,-26,-30
-11,0,-30,-22,-33,-50,-42,-12,-7,-14
0,-9,-19,-27,-55,-54,-12,-14,12,0
2,-15,-5,-31,-43,-21,39,3,2,0
-10,0,7,-3,-3,17,59,-2,-2,-3
-40,-3,40,5,27,41,66,-1,18,-4
-44,-10,59,-1,29,37,47,27,47,-1
-49,-16,46,7,33,72,30,29,46,-27
-37,-16,38,11,45,100,22,5,18,-26
55,15,35,1,29,20,51,-9,-4,24
86,14,22,3,26,-31,52,-29,-27,55
37,7,5,4,24,-33,19,-28,-35,20
-10,10,-28,-6,7,-49,-16,2,-18,-20
-14,-1,-63,-30,-28,-75,-18,15,7,-15
23,9,-74,-46,-43,-94,-62,-5,9,23
60,50,-53,-33,-36,-71,-66,0,4,41
39,44,-44,-18,-27,-20,-19,12,0,10
-8,19,-24,-3,-13,13,1,12,-3,2
-54,-4,-7,6,-9,8,-20,10,14,8
-49,-11,9,25,5,24,-9,12,36,-18
-41,-22,30,32,42,22,-20,-17,21,-37
4,-1,48,23,21,-14,-6,-9,-7,-8
14,9,64,27,12,17,36,-10,-37,14
-16,0,64,33,46,55,75,-23,-46,5
-21,7,54,41,63,74,85,-19,-50,-17
-20,-3,48,37,50,68,85,-37,-69,-35
-10,-27,43,21,50,45,59,-40,-34,-24
12,-16,-5,11,39,30,43,-19,28,9
34,20,-34,21,27,28,3,-14,32,38
40,59,-30,33,-6,-25,-42,-30,-20,14
32,47,-35,-2,-54,-69,-66,-19,-43,-7
25,22,-61,-42,-83,-71,-81,-9,-31,-20
7,-9,-73,-53,-69,-54,-65,-3,-6,-17
-5,-34,-45,-48,-44,-26,-34,20,0,7
-13,-42,-23,-59,-33,0,-35,24,6,10
-24,-21,4,-39,-21,12,-28,15,26,20
-25,-17,10,-28,-38,-1,-27,17,26,12
-15,-14,5,-14,-21,12,4,27,49,22
-3,0,24,3,8,35,26,25,55,17
-3,8,31,5,22,25,13,-8,-3,-13
-7,5,31,6,19,7,-19,-30,-32,-25
-18,-14,58,12,15,31,13,-25,-33,-13
-15,-39,65,8,13,65,71,0,-29,7
7,-20,54,12,13,51,74,10,-4,39
17,4,13,12,15,15,32,35,9,49
24,22,-27,-9,-6,-6,-5,74,15,19
12,21,-28,-30,-42,-18,-48,42,-2,-13
8,-16,-61,-45,-62,-22,-56,9,19,-22
14,-16,-71,-52,-51,-11,-41,5,55,-10
29,8,-44,-35,-39,-11,-32,-11,49,-3
5,-1,-19,-8,-34,-20,-20,-24,37,-16
-4,-6,6,-1,-26,-20,-21,-27,13,-18
5,-11,12,-11,-29,-16,-3,-21,-3,6
20,18,35,-6,-16,0,24,-23,-14,-7
-4,17,48,-13,-6,27,17,-21,-22,-20
-30,1,43,2,0,58,17,-12,-17,-13
-19,-4,43,21,2,51,35,-9,10,-7
-39,-30,21,15,-2,22,17,-9,13,0
-56,-36,36,27,24,14,20,-2,5,-7
-30,-19,53,59,47,-15,-1,6,-1,-19
2,12,38,37,14,-38,-9,8,-11,-4
41,23,11,4,-15,-15,-7,23,1,25
51,29,0,6,8,5,-3,16,13,22
72,10,-10,3,20,9,2,10,18,7
117,17,-28,13,-10,-5,-5,11,39,31
73,28,-62,11,-40,-39,-16,9,36,39
-6,12,-63,3,-26,-34,-24,14,4,14
-40,-3,-50,4,0,-12,-20,-5,-25,4
-41,0,-51,3,16,-4,-24,-25,-30,2
-41,6,-21,24,10,-8,-29,-20,-44,-1
-34,8,23,36,18,6,-12,-16,-41,4
-40,-8,40,26,39,28,15,2,-16,-8
-27,-32,36,19,47,43,49,24,8,-15
-6,-23,53,28,66,65,69,33,43,-2
-10,-11,58,28,58,46,87,10,34,-28
-22,-9,68,26,24,29,125,-6,4,-20
-16,6,56,30,29,56,123,14,8,0
8,10,33,35,34,56,87,23,9,12
27,16,-9,17,31,10,22,-4,-7,21
25,33,-22,-7,31,-20,-55,-32,-8,18
20,39,-40,-13,7,-40,-102,-20,-1,20
3,36,-45,-27,-24,-63,-105,-5,33,17
-18,11,-47,-36,-31,-59,-87,-15,31,-3
-25,-26,-50,-40,-43,-34,-38,-18,16,10
3,-24,-53,-41,-28,-20,-10,-8,19,36
31,-3,-55,-28,-19,-7,11,24,44,50
28,-11,-17,2,-4,-1,30,39,54,20
40,-11,30,23,18,17,38,8,35,9
6,10,41,34,22,47,15,-29,-10,2
-69,4,36,31,28,33,7,-36,-16,-37
-64,-17,18,5,23,6,1,-16,-9,-63
-24,-24,11,-5,6,15,31,-2,0,-59
-16,-33,27,3,22,13,56,9,22,-18
4,-9,42,24,48,35,74,24,52,27
35,41,17,19,45,21,56,36,43,14
42,47,-11,0,27,10,12,34,11,18
39,43,-32,-9,-1,6,-43,11,9,22
24,37,-42,-10,-15,-12,-64,-5,9,16
0,38,-46,-14,-18,-43,-64,-32,-26,-5
-6,36,-54,-1,-12,-51,-77,-39,-22,-12
-7,3,-48,-11,-37,-68,-86,-35,-44,-22
-17,-16,-32,-39,-50,-71,-29,-9,-26,-35
-10,-8,-3,-18,-32,-29,17,-1,11,-5
-4,-9,28,5,2,6,32,5,35,26
-11,-20,28,15,17,30,40,5,33,19
-17,-27,26,17,17,31,21,-6,0,6
-3,-31,39,10,16,33,4,-14,0,10
19,-5,47,16,37,50,14,-11,4,3
11,-10,40,28,33,60,48,-12,-6,3
1,-16,36,24,18,49,72,-9,28,12
0,0,21,18,28,34,56,14,41,14
2,14,-1,0,22,21,10,37,37,-5
-4,22,-26,-24,7,4,-14,33,28,-30
0,16,-48,-32,-10,-24,-21,18,0,-18
10,11,-60,-27,-60,-82,-48,25,0,3
2,8,-62,-40,-71,-92,-50,29,14,22
-22,-3,-72,-55,-57,-67,-54,2,-7,7
-36,-17,-56,-54,-49,-43,-41,-9,-35,-13
0,-11,-36,-41,-40,-13,0,23,8,-4
20,13,0,3,-4,18,-8,26,4,-16
20,28,34,38,5,17,-13,-16,-55,-32
3,-1,18,28,8,31,18,-26,-68,-32
-2,-9,32,22,9,9,15,-38,-20,-10
13,7,54,31,15,14,10,-22,25,18
15,0,66,37,21,25,52,16,46,40
-12,-17,59,38,30,8,71,18,58,29
-3,-15,49,4,8,1,55,1,38,22
-3,-14,23,-26,0,5,57,1,7,17
-11,-5,-10,-34,9,20,30,5,-4,-9
-11,-2,-36,-17,6,14,-31,-15,-52,-38
14,23,-60,-6,-24,-16,-67,-16,-59,-30
16,25,-59,-4,-42,-43,-81,-9,-41,-6
11,22,-39,-9,-41,-38,-85,-10,-42,5
-10,0,-29,-14,-33,-26,-58,-6,-32,-3
-40,-33,-37,-19,-26,-19,-34,6,-7,-25
-13,-16,-14,-26,-23,-15,-26,22,5,-6
4,-4,8,-18,-14,-19,-21,17,0,-5
41,-10,55,6,-4,-7,-11,0,-3,-33
34,-22,79,16,4,16,28,-1,2,-29
-1,-15,53,6,15,35,21,-4,-7,14
-17,0,33,8,17,45,25,-3,-10,8
-45,2,33,13,26,69,42,-7,-23,-3
-49,-24,42,9,22,48,42,-12,-36,5
-17,-11,49,22,5,20,8,-19,-46,10
10,5,0,10,0,0,-24,-18,-59,6
5,1,-37,-15,-23,-37,-45,10,-37,4
7,-4,-53,-15,-51,-71,-28,39,-9,35
52,7,-71,-16,-45,-62,-34,34,-19,60
83,9,-59,-22,-29,-60,-64,-3,-40,2
45,-4,-37,-20,-33,-36,-76,-19,-64,-38
17,-12,-27,-31,-39,-12,-81,-6,-51,-20
-1,-24,-29,-35,-29,-2,-61,-7,-45,-14
-51,-41,-43,-18,-35,-3,-15,-17,-48,-9
-106,-44,-15,5,-26,-29,8,38,-22,-16
-93,-45,24,22,-8,-19,17,88,-10,-28
-38,-30,28,23,-5,9,24,48,9,-11
-13,-2,18,11,0,-10,23,-27,35,-13
19,10,52,17,19,-23,24,-48,57,-10
6,-4,63,9,12,-9,30,-44,49,12
-4,-8,53,3,12,17,18,-48,6,13
6,-13,10,0,11,23,-22,-56,-40,7
-22,-29,-49,-30,-12,-14,7,25,-24,10
-8,0,-65,-25,-29,-15,62,100,38,48
40,33,-42,-8,-21,9,26,78,45,36
68,35,-35,18,13,12,-38,23,27,21
30,44,-21,31,47,2,-64,1,-19,-8
2,45,9,9,4,-25,-50,-5,-57,-44
22,48,33,6,5,-7,-12,-15,-65,-36
40,46,31,24,34,21,-21,-43,-85,-12
22,27,23,44,38,12,-48,-86,-100,-25
0,21,39,58,32,-34,-43,-105,-84,-17
-24,-5,54,61,30,-55,-20,-85,-30,-3
-37,10,52,28,19,-40,5,-61,13,-12
-22,18,34,2,11,-17,19,-38,32,-27
-12,-26,37,15,22,19,34,-21,39,-8
-24,-57,49,19,45,61,99,7,48,-1
-27,-44,52,48,53,65,104,28,16,-12
-5,-16,40,36,40,40,39,9,-17,-3
10,-16,-10,18,13,10,-20,2,-49,1
16,-11,-44,15,-3,-5,-30,5,-44,6
26,2,-70,11,-29,-22,-34,13,-18,20
13,0,-87,-12,-36,-38,-43,29,2,4
0,-11,-84,-26,-39,-37,-33,28,20,12
-1,-12,-58,-15,-24,-28,-24,21,27,27
8,0,-39,0,-7,-13,-23,25,6,18
2,0,-11,-10,0,-4,-9,11,1,20
-11,1,12,-26,9,-1,5,8,-7,20
-6,-13,25,-10,18,23,9,8,0,-4
0,-15,36,7,19,39,27,4,3,-16
-22,-8,42,13,24,35,23,0,-6,-22
-30,-24,28,13,15,26,8,-2,3,-20
-21,-31,29,14,18,29,20,5,23,-9
-16,-24,25,10,49,30,34,5,3,19
-20,12,38,17,60,27,28,-2,1,23
11,38,4,0,20,2,10,3,0,11
40,38,-35,-40,-22,-18,-3,19,19,13
53,15,-52,-52,-19,-29,-34,27,19,4
49,0,-76,-30,-17,-21,-33,29,25,9
33,1,-69,-29,-25,-35,-32,16,19,3
6,4,-42,-36,-52,-39,-42,-4,10,-15
-18,-3,-10,-38,-37,-37,-42,-15,15,4
-17,-1,-12,-19,-14,-17,-29,-12,8,17
-22,-3,9,-4,-7,-3,16,0,3,6
-15,-21,28,23,-1,13,47,-7,17,-1
-4,3,32,36,6,29,28,-11,24,-1
0,13,10,27,18,46,28,-22,4,-6
-23,-8,30,10,19,63,29,-28,-10,-8
-31,-26,58,-23,-3,39,20,-11,2,12
-8,-19,65,-29,4,35,48,-13,-1,24
24,1,57,12,20,24,91,-4,3,26
22,9,38,18,32,19,66,10,17,25
19,6,8,5,19,-1,-11,0,12,-11
14,12,-24,-16,-16,-31,-36,-4,-1,-25
7,15,-51,-36,-44,-71,-46,16,-2,-40
12,16,-74,-54,-68,-70,-46,52,48,-29
22,25,-59,-44,-56,-42,-50,37,28,-15
-9,14,-50,-17,-38,-20,-59,6,0,-4
-40,-13,-34,-4,-18,-2,-56,3,25,-9
-40,-36,-38,-33,-34,4,-62,4,10,-24
-28,-31,-12,-40,-47,4,-29,12,-24,-22
-5,-8,20,-20,-17,25,15,-2,-38,-12
41,16,39,-2,18,31,29,-11,-29,14
77,28,63,25,40,17,32,-7,2,26
62,-6,39,27,41,-11,0,-43,-8,28
2,-31,14,3,15,-14,-28,-69,-30,10
-40,-29,46,2,23,5,-17,-59,-2,16
-42,-20,47,3,28,28,44,-3,37,29
-57,6,8,5,22,49,70,58,53,14
-52,9,-25,-3,12,27,29,146,78,-11
1,-1,-43,-21,-21,-6,9,177,126,5
34,20,-45,-24,-32,-18,-31,92,80,3
41,53,-41,2,-33,-59,-76,-46,-42,-34
38,47,-18,13,-22,-57,-55,-95,-90,-30
37,42,-28,10,-10,-42,-16,-66,-74,10
42,43,-12,12,8,-5,1,-48,-39,39
47,38,11,14,11,9,4,-62,-43,27
5,13,22,23,0,12,12,-72,-69,-7
-18,-15,27,15,12,22,13,-83,-78,-26
-39,-39,27,7,19,16,0,-72,-68,-41
-27,-30,30,13,22,17,20,-39,-17,-31
-33,-33,34,16,21,36,30,-11,32,-12
-51,-41,35,14,20,54,30,-6,15,-1
-32,-8,46,39,38,64,58,16,22,29
7,6,47,48,56,56,47,21,23,17
36,5,12,16,31,24,10,13,15,-12
32,4,-21,-15,-2,0,-23,26,25,-12
21,-10,-50,-27,-26,-24,-33,39,42,3
8,8,-83,-24,-39,-57,-38,39,45,-6
17,18,-85,-8,-40,-55,-43,28,26,-22
29,3,-46,-18,-37,-60,-61,-4,8,-7
5,-11,-29,-38,-41,-32,-35,0,-12,-1
-18,-6,-34,-27,-32,4,17,16,3,-7
-15,-3,-17,15,-4,32,34,34,31,16
-2,-15,20,21,16,20,33,42,16,15
-17,-22,22,9,7,-2,25,45,1,10
-25,-12,34,12,19,-7,29,32,-15,7
-23,12,51,11,35,-14,27,15,3,22
-27,17,52,3,36,21,50,24,31,10
-16,15,88,24,52,62,69,6,19,-14
-7,26,100,48,56,63,57,-13,-5,-20
13,-4,68,37,38,30,17,-14,-6,-7
45,6,8,15,8,25,-3,-7,-16,-1
44,41,-39,20,-12,22,-1,-2,-16,-2
20,46,-74,-6,-20,-12,-22,-8,1,7
11,32,-76,-6,-39,-43,-46,-5,16,20
27,19,-62,1,-38,-42,-27,-3,12,31
-4,1,-52,9,-21,0,2,-22,-4,-7
-25,-15,-35,8,-5,5,9,-25,0,-9
-5,-5,-13,4,1,7,3,-39,-9,0
-21,-14,-12,7,11,40,14,-48,-24,-25
-22,-12,8,29,26,65,52,-36,-25,-38
2,-10,38,18,11,22,34,-22,-2,-26
-3,4,73,3,3,-44,-23,-5,22,6
-20,9,96,24,26,-65,-66,-23,13,16
-43,-21,79,27,33,-52,-64,-23,5,4
-51,-54,23,-5,-3,-30,9,23,13,8
-11,-32,8,-23,-14,-6,46,43,37,24
3,-8,0,-22,-3,19,67,47,34,31
-5,-7,-47,-20,-5,28,53,53,18,6
0,13,-73,-22,-11,18,12,48,31,-12
50,40,-79,-27,-19,-12,-5,52,35,-9
84,44,-69,-22,-27,-28,-8,44,46,14
43,53,-40,-14,-25,-12,-12,33,47,19
31,37,-22,-21,-5,0,-23,0,4,1
24,4,-2,-23,-2,17,-7,-17,-5,-4
-4,0,4,11,14,21,11,-26,-11,18
-12,-17,26,24,9,12,12,-36,-24,0
-13,-24,37,27,4,13,16,-32,-9,-16
-7,3,41,14,11,7,3,-38,-6,-26
-47,-1,22,0,3,4,4,-30,-23,-30
-47,-13,5,-7,13,33,30,-20,-4,-31
-31,-19,25,-3,36,67,60,10,40,-35
-21,-2,55,21,65,68,79,11,37,-17
11,8,39,33,75,11,23,-13,7,24
41,-1,-2,-2,8,-68,-4,-17,-22,36
26,-8,-45,-53,-62,-86,-10,6,-34,36
-5,1,-56,-26,-63,-40,-12,42,19,46
4,-7,-51,-14,-41,-5,-44,28,61,30
12,0,-71,-22,-40,-32,-48,17,94,20
11,11,-70,-26,-43,-39,-24,21,143,0
21,13,-34,-4,-9,-10,-9,12,112,-24
-7,19,9,12,17,-15,-1,12,51,-28
-10,25,22,28,22,-5,15,-5,-14,-15
5,7,38,30,19,16,12,-28,-97,-9
-19,-8,57,28,16,33,23,-22,-120,5
-33,-27,43,-3,11,28,9,-13,-90,0
-32,-37,13,-31,-1,12,-6,10,-19,-8
-9,-13,14,-8,3,19,20,17,7,-17
19,3,29,6,18,27,30,0,0,-11
34,5,20,0,25,21,31,1,-6,-5
0,-10,34,-12,26,26,66,73,21,7
-5,-8,5,-16,15,18,62,116,53,18
7,0,-36,-13,-3,0,6,60,54,1
35,20,-53,7,-7,0,-19,-14,44,-19
53,55,-22,29,0,0,-38,-54,50,0
39,50,-6,13,5,-9,-34,-53,33,22
14,19,-15,4,-4,0,-34,-71,-23,-2
5,0,-14,2,14,-1,-48,-83,-79,-11
-9,8,-5,-1,12,11,-37,-62,-92,-13
-32,1,-5,-10,0,13,-17,-41,-64,0
-23,6,-5,-8,-6,0,-5,-30,-39,11
-19,-13,14,-20,-7,1,20,5,-26,6
-35,-42,17,-2,15,26,38,27,-6,-11
-28,-36,41,9,33,12,3,29,0,-5
-19,-17,60,-7,2,-32,47,42,24,7
-28,-16,52,-1,0,5,84,42,64,21
-15,-17,33,18,25,63,79,14,63,21
2,-9,-7,27,13,39,40,2,34,22
7,25,-27,17,-14,0,-3,13,39,29
34,36,-25,-9,-38,-13,-41,28,41,31
39,29,-27,-24,-43,-34,-69,13,21,17
19,32,-51,-16,-40,-47,-60,-4,-14,17
9,36,-49,-1,-32,-37,-46,-4,-28,4
4,13,-45,4,-9,-44,-69,-18,-29,-18
-1,1,-21,17,6,-32,-55,-32,-56,-43
-8,-4,7,19,14,-5,-19,-32,-43,-55
4,-1,21,5,1,-2,-18,-13,11,-9
-13,-22,27,-15,4,19,-19,-10,5,25
-29,-25,11,-12,1,13,-19,-15,-35,13
-37,-23,7,0,-7,-14,-10,-14,-40,3
-38,-21,24,-1,2,19,31,-24,-27,7
-30,-25,43,-4,21,33,50,-18,-30,0
-13,-16,47,0,34,26,58,-15,-21,-2
-6,-26,18,-16,25,10,52,9,17,11
20,-9,-2,-27,4,1,9,33,43,13
24,10,-3,-17,-2,-12,-13,42,32,17
0,14,-46,-48,-28,-46,-39,30,0,0
35,16,-91,-52,-57,-58,-65,12,-47,-20
61,12,-81,-23,-70,-38,-72,-1,-67,-25
59,4,-22,-7,-66,-20,-63,8,-36,-44
38,2,15,6,-44,-27,-41,16,-14,-30
-23,-11,38,13,-11,-7,-19,23,25,-9
-49,-17,59,36,21,-11,-21,18,37,15
-29,-12,34,46,28,-17,-22,0,9,13
-29,-15,27,29,27,9,6,-7,-29,2
-83,-22,8,11,26,54,54,-17,-53,-16
-64,-32,8,15,34,67,58,-2,-38,-4
-7,-28,33,25,47,34,53,7,-5,7
12,-11,61,53,58,-8,4,-13,-18,21
27,8,51,64,53,-43,-44,-15,-39,29
36,19,10,17,7,-49,-38,3,-21,15
47,14,-38,-12,-27,-24,-22,16,2,-3
35,13,-50,-6,-26,13,-40,-7,-38,-26
23,12,-73,-21,-17,14,-60,-33,-63,-39
0,-10,-94,-35,-28,-45,-56,-7,-31,-28
-18,-4,-80,-31,-57,-62,-38,13,-7,6
-27,-20,-66,-32,-52,-33,-15,1,-9,16
-19,-21,-45,-35,-41,-5,14,10,0,17
-12,-20,-31,-34,-26,9,2,5,-15,-3
6,-13,12,-24,-5,30,0,6,-8,0
2,-2,48,4,19,32,2,-7,-9,15
11,10,69,12,41,9,-16,-21,-11,21
15,-3,69,5,28,-15,-23,-26,-21,6
10,-8,58,-7,-3,-23,-21,-18,-22,-4
-30,-30,42,-24,-8,-25,-8,-42,-37,-11
-74,-53,13,-41,-17,10,0,-53,-44,-21
-60,-49,-29,-38,-6,51,22,-10,0,-14
-20,-6,-32,-24,-13,17,23,19,35,-7
-13,0,-44,-25,-37,-41,-12,38,69,20
11,23,-73,-34,-21,-42,-36,53,105,39
94,63,-70,-42,-30,-35,-32,58,111,55
100,46,-21,-27,-34,-9,-2,55,71,23
29,32,-7,-12,-27,5,-1,43,-2,-29
-1,29,-8,5,-13,-9,-38,1,-91,-56
-14,2,-21,6,-10,-28,-59,-41,-153,-50
-17,-20,-9,0,-9,-14,-47,-60,-134,-52
-25,-28,18,-13,-2,21,-8,-48,-80,-27
-16,-20,35,-18,12,28,23,-25,-39,4
-9,6,35,-3,25,6,28,18,-15,28
-15,3,25,13,20,3,32,42,32,24
-12,-12,36,34,35,38,49,39,53,24
-6,-26,56,26,22,35,67,56,11,-1
-1,-28,70,19,11,21,88,65,-36,-23
13,1,27,8,16,28,47,15,-36,-27
42,35,20,16,21,11,-13,-46,-2,-7
59,59,14,20,14,0,-42,-103,26,31
39,59,-23,22,2,-9,-55,-91,37,45
10,40,-31,12,-14,-8,-59,-43,17,27
49,24,-37,-2,-26,2,-59,-24,-33,-5
98,30,-15,0,-36,-15,-53,-36,-50,10
45,25,17,8,-40,-25,-44,-35,-59,8
-50,-3,7,-4,-44,-21,-43,-51,-59,-30
-90,-24,-25,-6,-39,-42,-28,-58,-43,-50
-69,-38,-15,7,-9,-38,-12,-21,0,-36
-44,-34,13,-12,2,-32,21,18,37,-7
-30,-29,4,-26,6,-12,59,37,49,0
-26,-34,0,-20,16,28,65,60,52,-11
-32,-24,11,2,36,43,65,62,43,-30
-18,-12,10,29,49,42,41,53,44,-15
-3,-10,16,40,66,67,12,43,41,4
27,19,12,33,53,30,2,32,27,17
54,56,17,13,9,-13,35,27,24,46
44,37,-8,5,3,-24,46,16,9,42
17,8,-42,-3,-5,-8,0,2,5,15
-4,14,-60,-4,-28,-10,-35,-30,-8,-12
-17,-14,-63,-14,-35,-25,-41,-34,-7,-25
-24,-19,-51,-6,-18,-31,-29,-30,14,-7
-7,-8,-23,-2,-14,-23,-32,-19,24,21
16,-1,-11,2,-14,-17,-31,-8,5,18
32,15,16,11,9,-5,-5,-2,-15,5
28,9,37,4,13,14,14,2,-13,-3
14,-7,45,17,15,31,41,-4,1,0
-4,-10,55,26,31,36,55,-18,-1,-4
-25,-19,62,31,37,40,58,-6,-13,-7
-41,-18,66,34,36,45,64,-5,-9,-8
-45,-14,58,43,33,36,82,7,22,-22
-32,-9,35,14,10,14,76,29,27,-6
1,-4,-2,-6,-5,-2,53,40,14,21
10,4,-46,-22,-20,-16,14,20,-9,12
7,0,-71,-34,-17,-7,-5,12,-17,-4
14,27,-62,-26,-22,-22,-15,21,1,-1
28,27,-52,-26,-40,-57,-6,22,25,-6
40,34,-19,-11,-27,-39,-8,11,17,1
32,2,-2,-11,-19,-27,-36,-9,0,7
3,0,-17,-9,-19,-55,-60,-6,22,20
-10,-19,0,-8,-18,-39,-49,-12,14,8
-6,-33,23,9,-11,11,-15,-23,-6,-2
-18,-18,33,15,-3,31,3,-24,7,-15
-30,-25,39,11,0,40,34,-14,-7,-12
-12,-30,26,3,-2,61,68,0,-13,7
-7,-20,16,12,8,55,68,7,27,2
-16,-7,28,24,24,39,48,5,37,8
-2,-3,41,26,25,32,38,4,18,16
5,-10,40,11,22,22,16,7,-4,11
-2,4,16,-17,-13,-2,24,44,4,5
15,25,-13,-13,-7,14,36,68,43,4
4,26,-29,11,-4,20,10,36,61,-5
15,33,-64,8,-24,-14,-38,11,53,-10
29,22,-64,-6,-36,-18,-74,2,34,-6
23,14,-49,-16,-32,-21,-69,-10,-1,19
18,0,-39,-19,-29,-44,-58,-22,-45,42
8,-10,-18,-20,-17,-33,-39,-26,-51,40
5,-2,3,-11,2,8,-5,-20,-49,21
5,7,44,23,11,45,8,-38,-69,-5
9,30,78,35,23,49,0,-69,-82,-38
19,23,75,40,29,22,-3,-63,-54,-55
-32,-16,45,23,11,4,-7,-41,4,-43
-69,-38,21,7,10,24,13,-19,20,-19
-62,-41,9,3,26,31,34,3,-10,-16
-15,3,28,4,23,9,58,26,-18,2
33,32,34,11,24,-2,45,30,-34,3
47,32,-2,-1,15,-14,12,10,-22,0
45,24,-51,-22,11,-39,-14,-15,4,-16
22,18,-80,-20,-8,-57,-34,-13,48,-15
1,16,-69,-25,-31,-35,-30,5,73,6
-13,-9,-74,-31,-29,-8,-10,24,45,-6
-12,-22,-62,-41,-35,-22,-4,33,12,-17
9,-13,-19,-27,-35,-44,0,37,21,6
-15,-14,-8,-1,-18,-18,5,16,18,25
-17,-2,18,14,8,30,14,-1,9,41
-25,-4,26,10,23,37,30,-2,34,35
-17,5,22,-3,23,32,0,16,45,23
-14,6,25,2,18,34,14,13,46,16
-9,0,32,-6,18,14,45,39,29,9
-8,-6,46,-20,35,25,68,64,28,8
-21,-13,51,-15,29,26,63,34,31,0
-22,-23,38,1,28,-2,27,-7,14,-23
8,2,-7,-9,8,-33,-26,-36,0,-8
53,27,-51,-41,-18,-55,-71,-56,7,5
64,24,-63,-61,-35,-58,-94,-76,1,24
58,5,-80,-65,-37,-60,-86,-63,7,16
1,-15,-84,-50,-20,-47,-54,-2,32,-2
-50,-16,-75,-13,0,-32,-27,12,45,-43
-37,5,-37,16,2,-13,-6,-18,-21,-52
-19,22,-7,13,16,-3,-3,-27,-61,-25
-12,13,11,18,8,-5,10,-19,-25,-9
-5,-8,33,28,21,13,5,4,11,1
-4,-5,46,34,22,22,5,23,28,19
-2,7,37,31,22,11,8,27,8,31
17,2,34,31,24,8,18,24,2,15
15,-12,45,19,16,11,36,14,-10,-4
-8,-14,57,23,37,46,61,13,-28,-10
-15,-23,57,39,46,50,46,20,-2,17
-17,-16,44,36,41,32,27,14,26,36
-9,10,33,31,27,17,6,5,12,2
14,15,-5,16,-13,-7,0,-3,9,-2
60,38,-43,25,-27,-5,-32,-10,-37,-6
88,51,-43,22,-33,-20,-76,-39,-91,-28
42,23,-43,6,-25,-46,-101,-54,-101,-66
-5,-2,-38,-3,-19,-49,-105,-50,-71,-51
2,-9,-2,11,-8,-59,-66,-21,-52,-19
14,-15,-2,15,-21,-61,-19,11,-35,6
-14,-28,9,8,-28,-28,-3,20,-25,13
-11,-32,36,-1,0,23,11,16,-15,13
-23,-41,19,-12,7,35,24,3,-30,1
-30,-49,8,-15,15,32,10,6,-25,-14
-20,-16,21,15,35,21,12,8,6,2
-26,-3,62,42,35,34,7,11,14,34
-13,-6,67,37,27,22,-6,0,18,24
0,2,45,15,7,1,-3,-1,21,4
-10,10,3,2,2,-12,4,22,6,5
-28,-4,-37,-36,-14,0,-3,21,-24,-4
-26,-18,-76,-67,-53,-2,-4,0,-52,-38
10,8,-81,-69,-68,-13,-30,8,-43,-31
15,15,-71,-55,-59,-22,-35,25,-11,-2
2,0,-44,-2,-31,-15,-40,23,0,1
6,-6,-15,11,-15,-29,-63,12,-7,12
-5,2,-20,-27,-24,-52,-76,-7,-1,25
-16,-14,-23,-49,-20,-17,-67,-13,-3,26
-12,-15,3,-4,-4,9,-27,-14,4,3
-18,-4,33,16,12,13,28,3,36,1
-21,-25,25,9,4,38,64,18,50,-1
-14,-14,30,15,24,42,57,28,46,-2
8,21,50,26,39,12,51,4,8,-5
20,20,59,21,33,9,47,-18,-20,-3
29,10,46,12,19,34,45,-12,-31,6
24,4,8,4,17,46,49,3,-33,17
34,-5,-15,-25,4,14,24,18,-20,24
53,-11,-38,-39,-19,-3,-4,5,-9,42
47,-5,-79,-35,-42,-16,-6,9,24,52
32,5,-91,-33,-50,-51,-7,26,40,46
-10,2,-68,-39,-43,-58,-14,4,5,-4
-35,-13,-31,-25,-19,-37,-53,-5,-47,-46
-28,2,2,34,10,-23,-67,11,-56,-60
-23,-7,9,52,20,-20,-88,0,-61,-57
-12,-20,19,0,0,-20,-49,-1,-49,-57
-6,-27,31,-26,5,0,12,33,-17,-49
-36,-34,16,-24,17,11,42,22,19,-22
-36,-14,-3,-19,28,26,39,-23,48,0
3,-1,15,10,41,57,54,-63,69,32
8,10,56,36,43,52,43,-60,54,49
13,22,87,45,48,24,37,-54,43,50
32,34,76,45,34,36,59,-41,15,44
37,35,42,22,23,30,66,-20,-15,26
26,24,-5,11,8,17,6,-26,-66,23
17,33,-23,7,9,-2,-33,-34,-73,15
16,37,-38,0,-3,-24,-70,-21,-45,3
17,16,-65,-18,-49,-50,-87,-10,-42,-8
-12,1,-56,-10,-50,-46,-76,-11,-45,-41
-32,-10,-41,-6,-36,-43,-44,0,-14,-68
-30,-14,-16,-22,-22,-20,-11,31,42,-26
-3,-1,28,0,12,11,7,14,22,0
3,11,49,26,33,29,23,-4,-20,-20
-2,14,58,30,82,46,40,-5,-16,-9
-12,-8,61,21,132,39,33,-16,0,5
-14,-18,42,9,58,31,4,-23,-12,-1
-32,-33,19,0,-4,18,12,-24,3,-12
-50,-43,1,3,-37,7,18,-7,35,12
-34,-27,23,9,-16,22,31,25,42,22
6,-12,42,9,8,20,25,23,17,21
29,-3,9,0,-9,-6,29,33,23,14
25,7,-33,-19,-20,-6,26,36,34,3
15,16,-46,-34,-27,-14,-16,36,36,9
25,20,-79,-31,-42,-35,-22,30,41,6
20,10,-89,-28,-43,-29,-17,5,39,1
-20,-7,-74,-27,-39,-19,-30,-8,14,-1
-44,-12,-49,-37,-46,-32,-48,-24,-2,0
-14,-3,-23,-40,-46,-33,-49,-19,1,19
37,7,-15,-16,-29,-1,-28,-12,2,47
30,-7,13,18,-19,1,-16,-15,10,37
-9,-35,17,8,-27,-9,-6,-8,-17,-6
-11,-22,39,18,19,14,10,9,-13,-37
-1,-2,43,28,45,-8,8,21,-7,-30
-3,-6,31,13,43,-34,42,12,13,-26
-11,-14,59,13,87,27,107,28,68,-23
-12,-8,75,30,102,77,109,28,103,2
26,32,66,42,62,67,48,20,70,17
47,56,47,42,32,22,-7,-3,19,11
23,26,0,21,-18,-35,-41,10,20,17
24,37,-32,21,-51,-42,-36,14,-10,9
32,52,-43,12,-53,-47,-43,-18,-62,-12
27,31,-47,0,-41,-49,-65,-12,-60,-6
6,2,-56,-3,-34,-39,-49,-15,-47,-5
2,3,-34,-8,-39,-14,-18,-29,-47,-11
5,-23,-14,-8,-20,27,6,-24,-54,-2
-14,-44,-18,18,6,42,39,-20,-60,-3
-39,-35,-8,16,-10,12,31,-27,-26,-7
-52,-14,34,18,0,-1,22,-16,19,1
-22,14,60,24,18,-5,5,-7,48,0
13,18,53,21,29,-1,4,-5,35,9
2,-10,49,14,14,3,23,-3,17,16
-13,-17,58,-4,17,29,44,7,19,12
-29,-2,28,-17,16,50,40,1,25,10
-21,9,-12,-28,-7,30,51,29,52,2
1,-15,-54,-37,-36,-13,34,69,54,-2
7,-18,-94,-43,-64,-46,6,59,16,-1
-7,0,-111,-49,-84,-64,-41,32,4,12
-13,16,-103,-34,-68,-43,-57,19,44,16
6,5,-56,-8,-52,-7,-38,33,72,13
19,24,0,7,-25,27,-2,29,67,6
4,35,7,14,-7,41,-5,19,73,-12
-7,25,15,11,-3,5,-7,3,56,-23
-11,7,29,9,9,-26,2,-5,-1,-32
-37,1,28,-1,33,-27,28,-10,-61,-38
-63,-24,25,-20,20,-13,54,17,-69,-41
-11,-9,33,-11,12,39,70,74,-46,-22
75,22,52,13,34,60,40,87,-41,-3
92,21,71,45,61,69,16,30,-59,-2
12,7,66,52,41,29,-3,-72,-44,15
-33,-15,27,18,12,-27,-2,-123,-34,24
15,8,-2,13,-2,-9,14,-112,1,44
50,30,-7,14,6,3,8,-106,35,45
28,17,-46,-25,-12,-16,-7,-59,44,36
6,-3,-74,-55,-37,-24,-14,-11,32,12
-2,0,-86,-54,-24,-28,-17,5,26,6
-10,-7,-67,-33,-26,-36,-26,7,15,-4
-8,-15,-26,-20,-42,-38,-32,4,9,-2
-7,-12,0,0,-26,-34,-59,-5,-21,-21
-3,5,20,-4,-15,-17,-26,-13,5,-37
-3,0,38,-2,-16,10,17,-4,13,-39
2,-13,42,14,-6,14,38,36,31,12
-4,-19,29,20,11,35,53,48,21,13
-19,-24,17,4,6,56,59,30,17,3
-18,-30,33,-17,0,50,59,38,29,3
-15,-34,31,-21,9,44,68,28,25,-2
-18,-7,21,-14,31,57,76,10,7,3
-13,6,0,4,23,52,53,-9,-8,-8
-7,-10,-53,-10,-29,-6,12,-22,-12,-17
-2,-20,-84,-38,-47,-61,-40,-20,-18,12
6,8,-68,-22,-14,-77,-92,-5,-10,30
16,39,-63,-21,-32,-135,-125,19,23,22
4,29,-60,-30,-79,-126,-77,56,62,34
-12,18,-39,-23,-54,-42,-21,52,80,30
3,35,-4,3,-17,25,-4,14,57,-5
21,23,17,19,11,37,19,-9,31,-45
12,10,38,31,39,32,27,-25,11,-50
-11,13,49,38,30,20,-3,-27,10,-19
-28,-12,46,26,20,6,-17,-19,2,7
-18,-13,30,8,41,14,27,-8,-22,1
3,18,57,29,62,35,78,-17,-81,-14
2,14,77,34,68,54,97,-19,-69,1
-15,-3,82,32,86,65,98,0,-36,15
-22,12,68,46,65,39,61,-6,-33,0
2,36,29,40,21,10,45,-1,0,-5
33,37,-8,31,0,-5,27,19,36,-1
21,16,-21,31,-7,-15,-22,3,30,-13
10,18,-46,-18,-27,-34,-66,-3,-13,-14
12,13,-61,-56,-60,-54,-66,18,-28,-18
4,1,-58,-37,-57,-54,-36,11,-21,-15
-3,-20,-47,-18,-51,-33,-25,2,11,-14
9,-21,-33,-20,-39,-7,-2,8,26,3
6,-24,-21,-12,-14,9,11,8,25,0
-34,-30,2,-9,-8,14,31,23,11,-4
-42,-23,19,-22,-5,1,10,34,18,0
-23,-13,44,-13,6,10,12,25,18,-1
-20,-4,47,1,18,31,29,-3,22,4
-10,2,43,17,32,56,54,-16,36,11
-12,-1,65,28,38,72,37,-7,27,13
-21,-15,68,28,32,62,27,-12,13,6
-14,-4,49,8,30,33,21,-11,13,5
0,2,7,-10,19,19,-14,-2,17,10
20,15,-45,-35,0,20,-16,5,3,1
32,30,-69,-43,-20,-14,-34,16,5,-2
50,31,-84,-27,-28,-35,-85,26,16,9
57,24,-61,2,-16,-44,-105,16,4,11
67,22,-28,19,7,-64,-99,-2,1,17
38,27,-1,-1,-11,-65,-79,5,6,34
-14,-23,-5,-23,-23,-51,-61,11,-8,20
-57,-44,8,-20,-4,-15,-27,-24,-22,-8
-35,-39,20,-31,11,11,2,-53,-29,-7
12,-29,11,-29,-5,21,33,-38,-24,36
-1,-40,1,-16,-5,28,33,-2,-37,30
-32,-43,-2,3,17,26,13,11,-54,-21
-41,-49,-25,-13,17,-18,7,68,-7,-38
-45,-53,-12,-13,23,-21,17,141,68,-30
-34,-12,30,11,49,34,28,90,63,-14
-50,14,35,19,60,50,7,-11,1,-27
-32,40,7,11,42,40,10,-97,-60,-38
25,58,-10,15,14,6,-28,-129,-125,-17
63,56,-20,14,-10,-49,-96,-86,-122,17
82,44,-34,8,-10,-70,-99,-26,-67,34
81,29,-10,13,6,-34,-76,-2,7,15
35,-14,-17,-4,-7,-10,-55,6,52,3
-4,-32,-25,-16,-10,29,-12,34,39,-1
-5,-5,4,18,8,37,16,45,-22,9
-19,10,48,54,20,36,-21,-3,-81,5
-59,9,62,62,40,45,-58,-56,-123,-1
-25,0,63,45,33,17,-32,-66,-102,9
31,-9,47,38,21,-16,8,-53,-103,18
18,-28,28,38,20,9,54,-61,-102,-7
-6,-30,52,48,10,71,99,-47,-72,-22
-22,-27,59,38,16,74,110,-23,-20,-28
-20,-10,53,46,51,32,69,-12,7,-16
22,4,43,46,59,-34,5,-16,-3,6
77,21,-10,16,10,-62,-26,-6,-4,22
55,0,-71,-5,-41,-26,-5,11,15,20
0,-14,-122,-26,-37,10,-20,19,14,7
-21,-18,-93,-37,-22,-3,-69,26,18,-19
-27,-14,-62,-40,-37,-29,-63,32,36,-7
-32,-17,-38,-23,-19,-35,-26,24,54,27
-30,-10,-20,-5,9,-60,0,33,54,51
-36,-5,-2,5,32,-45,50,53,62,42
-51,-6,41,23,55,32,47,39,59,1
-4,17,69,45,77,67,6,9,1,-33
24,35,73,53,67,40,-40,-33,-56,-41
12,-1,57,40,59,32,-43,-37,-43,-66
-14,-33,32,23,27,44,-11,4,21,-52
-19,-35,24,22,18,50,56,14,54,-38
40,-8,44,36,27,45,76,11,32,2
70,13,29,30,12,17,46,8,16,47
23,14,-8,15,1,-34,39,23,21,54
-20,18,-19,2,-12,-72,5,25,19,28
-4,7,-62,-25,-40,-64,-42,8,14,5
35,-1,-82,-50,-48,-47,-60,-5,3,4
38,-12,-74,-52,-53,-25,-53,0,-4,8
-25,-8,-50,-42,-52,0,-31,6,-10,1
-50,-13,-43,-35,-35,-11,-20,2,-21,-13
-35,-4,-52,-14,-37,-30,-21,-13,-19,-2
-21,0,-5,-17,-24,-14,-6,-12,-8,0
-20,-12,15,-16,13,9,24,5,13,8
-5,-10,45,5,30,22,47,19,37,22
10,7,61,33,41,40,40,27,42,18
11,0,63,35,43,50,41,19,29,7
-38,-14,69,32,33,26,58,13,9,-16
-52,-21,55,11,17,28,100,21,-6,-21
11,-2,55,6,31,54,105,22,-26,-10
41,11,27,-8,35,54,46,-6,-42,9
39,18,-15,-39,5,0,-37,-31,-32,-4
28,24,-51,-39,-19,-69,-76,-6,34,-4
36,54,-53,-36,-40,-110,-84,21,58,3
35,49,-49,-59,-80,-105,-75,2,27,0
22,15,-61,-70,-98,-79,-72,-30,-3,4
-6,-8,-48,-59,-73,-57,-82,-52,-29,6
-19,0,-33,-46,-45,-34,-54,-33,-25,-4
-26,-17,-41,-35,-47,-18,-10,2,6,-15
-20,-20,-32,-23,-21,-3,18,-3,25,-7
-3,1,6,16,-1,16,14,-21,16,-4
-20,-1,40,41,15,23,6,-15,0,-13
-21,-3,25,26,10,26,6,-7,0,-3
1,8,32,7,13,32,15,-17,0,-4
0,-1,77,-14,20,37,40,-19,21,-25
-19,-22,56,-60,-9,20,32,-39,10,-40
-15,-18,19,-45,-19,6,25,-14,24,-11
2,-4,-12,-19,2,-1,25,60,69,31
0,4,-51,-18,-11,-29,16,110,72,47
3,0,-78,-21,-28,-60,-8,119,55,38
0,9,-98,-44,-38,-48,-27,81,8,32
-6,16,-89,-38,-58,-30,-48,12,-6,2
-10,9,-56,-14,-64,-10,-36,-44,37,-5
9,20,-22,10,-16,12,-14,-71,50,12
16,15,-9,24,26,-7,-27,-71,36,9
23,-2,10,8,-18,-53,-20,-30,16,-25
55,-3,30,-3,-23,-14,29,20,24,-26
57,12,55,19,19,39,21,28,36,7
-12,21,64,40,53,89,18,17,10,-6
-58,16,53,46,50,62,55,26,11,-33
-28,2,63,54,45,48,68,9,-17,-39
-6,17,78,78,82,63,56,-24,-59,-25
19,25,63,78,82,61,56,-39,-60,-5
28,21,37,48,40,25,61,-14,-12,15
25,16,16,1,-2,-26,15,-5,26,12
15,15,-14,-7,-28,-53,-30,-10,32,-4
-16,-5,-91,-41,-55,-57,-34,-2,26,1
-31,-26,-126,-52,-52,-19,2,-3,11,22
-22,-24,-104,-28,-48,-16,4,12,1,36
0,-11,-77,-12,-58,-25,4,5,4,40
2,7,-41,-7,-35,-14,-4,5,-10,30
0,19,3,1,-2,-38,-35,-3,-19,-8
-4,7,8,-8,9,-34,-7,-3,0,-34
4,2,36,-4,15,9,36,-4,25,-27
0,-1,57,20,40,62,45,-29,2,-27
2,1,47,24,44,58,26,-38,-27,-22
2,-18,38,14,36,46,55,-29,-26,-7
-14,-20,31,8,25,18,61,-14,-14,11
-34,-24,29,3,19,11,44,13,15,24
-41,-36,23,8,23,30,53,16,2,17
-23,-20,13,5,9,21,30,13,-8,12
10,4,-3,-11,-16,2,-13,21,18,40
30,19,-26,-13,-17,1,-24,11,5,21
40,34,-62,-2,0,-19,-56,-4,-8,-4
28,25,-83,-17,-30,-78,-79,-1,0,4
19,9,-65,-35,-80,-119,-50,8,-3,0
11,-2,-24,-31,-76,-54,-32,9,-12,-13
2,-13,-15,-32,-62,-9,-27,0,-9,-17
17,-12,4,-34,-46,12,-29,-3,-3,-4
11,-6,15,-30,-23,16,-14,-6,-29,-7
-24,-12,15,-5,-23,20,-12,6,-41,-41
-32,-36,18,0,-13,29,-22,9,-19,-31
-25,-37,27,15,5,12,16,-1,-19,0
-18,-33,50,2,13,17,41,5,-25,-7
-32,-44,54,-5,18,37,61,2,-45,4
-40,-32,56,-1,16,43,53,-6,-57,20
-11,7,41,2,16,34,56,-6,-40,26
-3,14,8,-6,15,11,-11,9,-18,15
-8,12,-18,3,-15,-15,-45,12,-21,-1
14,22,-58,-2,-46,-52,-69,10,-22,4
49,31,-68,-24,-62,-59,-57,9,-21,6
54,30,-50,-45,-55,-67,-66,9,-50,-7
26,22,-43,-28,-56,-64,-48,0,-32,-7
6,23,-29,-17,-29,-18,-21,-7,-8,-13
7,-8,3,-27,-12,28,-31,-20,-20,-10
-14,-28,17,-30,-9,5,-45,-28,-16,-13
-43,-44,13,-14,-12,-14,-7,-15,3,-7
-26,-12,36,18,-6,35,22,-12,-6,0
-8,0,63,38,15,49,47,-5,13,6
21,5,68,30,22,23,62,-2,22,5
22,0,63,54,44,25,39,-5,17,-13
6,-4,61,79,55,59,29,2,7,-10
-4,-2,53,39,31,44,61,5,5,0
-14,-14,10,3,1,-1,77,26,15,-13
-31,-11,-44,-25,-28,11,49,62,7,-22
-17,-6,-67,-39,-36,32,29,62,-1,-5
6,4,-59,-23,-32,6,-20,39,10,16
36,34,-61,-4,-35,-32,-34,5,9,13
36,41,-44,6,-21,-50,-55,-11,3,4
26,35,-29,8,4,-65,-69,-7,2,6
15,1,-32,5,-8,-55,-71,-14,1,6
-4,0,-33,16,-12,-50,-38,-28,-11,-3
-22,-10,-15,23,3,-5,-3,-35,-25,-32
-24,-24,6,11,12,50,37,-35,-19,-32
-2,-11,32,13,17,55,65,-10,25,13
-13,-17,56,28,17,43,73,8,5,8
-24,-16,64,54,51,45,82,5,-34,3
-29,-19,74,47,78,52,81,-25,-43,-23
7,-5,87,28,74,63,76,-50,-30,-18
58,12,90,29,73,53,56,-39,26,32
56,28,63,29,60,33,32,-11,56,47
41,40,-3,-3,38,12,-2,9,59,28
20,28,-51,-32,-2,-30,-33,67,59,-4
2,11,-84,-52,-42,-56,-51,91,26,13
-44,-19,-107,-70,-56,-39,-84,15,-23,1
-58,-27,-90,-37,-41,-19,-89,-52,-48,-24
-36,1,-60,16,-17,-30,-65,-66,-50,-11
-14,16,-33,19,-1,-8,-34,-54,-27,1
-1,12,5,33,22,22,-16,-28,-28,-24
-12,8,36,42,40,13,1,2,-12,-11
-31,-2,44,29,30,0,17,12,13,5
-10,-1,34,28,29,19,28,16,0,9
11,-1,24,28,39,38,30,-2,-17,-9
0,-11,42,27,49,60,58,-1,-4,-26
-9,-27,62,9,60,54,75,1,8,-29
-7,-17,45,-5,48,35,55,5,18,-26
14,2,21,17,27,17,48,17,25,15
29,8,-5,24,11,-4,31,16,26,50
7,4,-29,7,-20,-27,-10,0,28,39
-1,18,-60,-1,-14,-25,-51,-11,-4,11
13,30,-93,-7,-17,-48,-98,-8,-14,-13
1,4,-97,-52,-35,-71,-96,11,10,-12
-13,-12,-72,-70,-47,-44,-45,39,83,12
-8,-7,-37,-53,-32,-10,-16,42,112,44
25,7,0,-34,-16,-6,-30,14,80,48
34,4,13,-15,9,-4,-29,-8,37,27
4,-8,20,-13,42,20,-1,-6,-5,-15
-21,-17,36,10,44,31,23,0,-49,-60
-29,-34,26,15,45,19,22,1,-48,-48
-20,-9,35,32,53,1,9,-20,-14,4
-2,10,64,46,48,24,11,-42,-22,0
-5,2,64,20,55,56,31,-15,-26,-17
-20,-5,26,-6,44,49,47,30,12,-6
-13,12,-10,-7,11,24,65,47,42,29
7,43,-29,-15,-8,2,42,42,19,16
49,46,-43,-6,-13,2,-3,33,3,-14
55,40,-46,-5,-24,-18,-54,11,4,-22
24,11,-62,-22,-40,-41,-70,-13,-9,-21
9,-11,-59,-59,-64,-50,-61,-5,0,-15
-17,1,-28,-37,-50,-21,-42,11,27,7
-37,-6,-16,-8,-27,-15,-27,7,27,-3
-49,-9,-3,0,-2,-9,-13,-6,15,-14
-65,1,15,0,8,-11,3,-26,18,0
-34,9,28,7,6,-20,43,-17,10,17
-11,-12,35,12,3,-6,77,-22,3,33
36,-5,39,10,9,21,61,-25,-2,31
85,8,32,12,20,19,44,0,35,39
76,-12,65,26,44,42,79,8,31,18
-13,-24,86,45,48,49,91,-4,19,-5
-2,7,64,37,43,23,52,1,32,11
23,6,-6,7,28,1,-9,0,14,-10
-2,-2,-55,-12,3,-19,-37,-17,-28,-34
-17,-4,-80,-19,-16,-51,-55,-22,-32,-13
-12,5,-102,-32,-16,-51,-49,1,9,12
-17,-4,-88,-42,-11,-36,-46,6,26,7
-21,-5,-58,-31,-16,-26,-40,-4,30,0
-13,0,-50,-15,-43,-44,-24,10,35,3
-13,-21,-57,-30,-51,-51,2,32,9,-8
-50,-52,-46,-50,-64,-38,9,56,7,-18
-54,-44,-30,-37,-37,-8,23,69,8,-12
-12,-5,31,5,4,23,43,51,19,-8
14,27,63,33,40,48,63,29,56,3
34,53,63,43,52,68,64,7,99,13
22,47,76,42,74,60,39,-19,86,-3
10,26,81,44,85,66,19,-40,41,-1
14,20,63,27,45,22,11,-33,12,21
50,23,32,16,17,-6,17,-14,-49,23
56,9,5,5,15,8,2,-34,-116,11
35,19,-9,-4,9,9,-31,-52,-122,-7
21,23,-33,4,-13,-14,-45,-28,-99,-13
8,23,-50,15,-35,-34,-46,-10,-78,-22
3,26,-20,1,-45,-45,-46,-2,-55,-16
6,3,-12,0,-49,-53,-61,-14,-26,4
10,-13,-30,-4,-50,-45,-52,-32,-4,14
6,-14,-39,-14,-42,-34,-48,-45,-6,4
-14,-34,-3,-9,-39,-17,-60,-31,-17,-7
-11,-44,34,2,-21,1,-38,-25,-9,-2
-27,-38,36,7,-3,7,5,20,0,-22
-58,-43,20,0,4,8,29,86,4,-36
-51,-38,-3,-15,-10,-2,29,68,-4,-35
-48,-34,4,-2,-24,-4,46,21,-8,-18
-31,-23,40,25,0,39,54,-18,7,-4
-1,-22,43,24,23,76,81,-17,25,27
4,-1,17,9,27,64,87,4,34,39
9,29,1,4,0,3,47,32,25,46
35,52,-19,0,-25,-38,3,39,4,38
65,33,-41,-7,-29,-54,-66,32,-2,30
67,17,-40,-15,-39,-59,-108,31,-7,38
35,9,-47,-3,-45,-42,-102,22,-24,29
0,18,-32,8,-26,-21,-111,-31,-55,-19
11,28,6,-9,-18,-30,-120,-75,-64,-28
26,12,19,-2,-11,-47,-91,-65,-64,-19
0,-2,21,-5,-3,-3,-14,-46,-66,-4
-30,-21,28,-19,-1,22,25,-40,-48,18
-40,-47,11,-31,-4,8,31,-28,-39,18
-35,-36,42,-5,-1,12,27,7,-1,15
-12,-15,69,37,24,14,46,16,13,-13
-11,-10,74,34,53,39,57,3,17,-58
-35,-27,59,28,50,39,69,4,66,-44
-30,-1,29,24,22,21,56,35,78,-25
-1,11,-9,8,-1,27,23,45,51,7
16,2,-35,-18,-23,12,3,40,10,29
35,2,-41,-10,-18,-11,-16,34,2,44
35,20,-38,5,-13,-27,-39,20,-3,31
25,23,-34,4,-9,-42,-59,2,-11,4
12,22,-1,3,1,-40,-77,-8,-32,-9
6,12,3,-12,-14,-47,-58,-7,-36,-10
-5,-13,-13,-33,-41,-41,-46,-10,-23,-20
-34,-24,-23,-49,-30,-17,-22,-25,-35,-11
-43,-38,-11,-39,-13,4,-10,-24,-28,-19
-28,-38,-6,-19,5,27,38,-4,-11,-12
2,2,25,7,24,54,60,5,-20,-6
-2,11,37,5,29,56,40,-10,-12,1
-29,-8,34,-9,38,48,37,-16,-10,4
-42,-37,36,8,59,47,28,-20,-24,-9
-35,-34,51,13,56,33,25,-1,-3,-24
-6,-4,39,5,16,-7,18,34,6,-18
26,23,1,10,-15,-34,-15,25,5,17
36,24,-37,0,-15,-35,-45,15,-2,31
30,11,-82,-20,-21,-17,-36,37,4,38
26,25,-86,-20,-32,-8,-47,32,-7,18
10,22,-52,-26,-34,-16,-54,2,-13,2
26,-5,-55,-20,-38,-28,-49,-8,9,0
56,-5,-25,0,-16,-25,-45,4,20,14
30,7,1,24,9,-19,-44,-12,-48,-16
-35,9,8,17,18,-26,-44,-43,-89,-43
-55,-24,17,-6,5,-3,-13,-45,-95,-34
-26,-15,29,-9,1,26,21,-38,-41,-8
15,-20,40,7,14,49,43,-27,14,20
12,-27,30,24,18,32,23,-40,9,11
-4,-22,26,2,3,16,17,-29,-32,-6
-17,-25,54,-4,13,13,29,16,-20,-1
-11,-11,65,-3,24,2,49,39,-3,7
2,1,2,-5,14,1,55,35,0,26
6,0,-59,-25,-4,-14,20,8,-26,6
12,0,-77,-39,-34,-41,-16,-17,-28,-9
7,-1,-99,-31,-61,-47,-34,9,0,-4
7,4,-86,-22,-55,-25,-49,53,30,10
35,8,-44,-26,-44,-30,-37,59,69,28
25,12,-23,-17,-32,-47,-44,41,102,19
-6,17,-6,-4,-14,-31,-41,23,105,7
-8,14,10,0,-24,-20,-29,-4,47,12
-7,16,37,1,-8,0,-21,-25,-10,4
5,13,75,19,11,24,-22,-34,-44,12
11,17,82,28,27,28,-3,-47,-66,0
1,6,69,33,27,29,22,-50,-84,-23
-17,6,63,40,28,29,-5,-75,-96,-46
-39,-6,68,23,44,43,1,-92,-80,-26
-29,-4,68,34,52,52,20,-58,-49,-19
-5,5,45,32,18,18,26,6,19,6
2,41,0,12,-43,-37,4,32,31,17
4,23,-39,-8,-41,-45,-4,39,28,41
18,14,-54,-30,-40,-18,-20,61,43,32
25,19,-51,-42,-32,-18,-37,43,39,4
0,-1,-59,-49,-31,-29,-43,17,39,-18
-22,-6,-42,-23,-29,-12,-33,0,-1,-51
-12,-6,-23,-9,-40,-16,-16,-15,-32,-50
-6,-31,-18,-16,-45,-24,-15,-15,-5,-13
15,-26,14,-7,-24,-1,-9,-20,-14,-12
3,-22,27,3,3,28,-4,-35,-14,-23
-11,-16,33,16,31,47,11,-23,-2,-20
2,-3,16,6,22,20,26,39,12,0
-2,-12,3,0,-3,0,65,80,22,2
-34,-31,5,17,0,16,63,37,4,-11
-32,-31,38,35,30,36,53,-22,25,-12
24,-13,62,54,60,46,58,-48,41,5
50,4,32,50,56,22,69,-9,45,26
48,11,-16,20,29,-2,40,13,53,20
28,33,-53,-17,0,-6,29,39,39,8
15,38,-70,-36,-1,1,26,51,24,0
16,31,-79,-23,0,-14,2,30,3,-14
8,8,-68,-26,-18,-42,-49,3,9,-2
7,0,-38,-27,-27,-36,-82,-21,30,20
-2,14,-7,1,2,-10,-94,-27,2,6
-21,14,-1,17,18,19,-87,-40,-36,-1
-24,-17,2,-8,7,7,-23,-24,-37,9
-35,-22,29,-12,12,21,30,3,-23,6
-33,-6,23,-7,31,36,47,-12,-4,-10
-37,-3,14,-1,48,43,51,-14,3,4
-18,-11,26,10,44,67,53,1,6,16
-11,-10,61,15,40,78,67,-1,0,7
-14,6,72,19,48,68,78,3,13,22
-15,11,43,30,50,59,75,14,13,17
0,15,13,32,51,18,51,25,33,24
13,37,-12,17,27,-67,-12,34,43,25
13,27,-39,-16,-37,-111,-56,35,28,25
42,18,-53,-33,-71,-57,-99,15,0,25
60,5,-46,-39,-65,-29,-96,-16,-17,4
62,-10,-50,-43,-59,-21,-55,-23,-19,-9
14,-20,-67,-60,-52,-28,-32,-17,-21,-16
-22,-10,-67,-59,-51,-21,-10,3,-4,-10
-27,-14,-41,-23,-17,8,14,8,42,10
-13,-2,11,-12,46,36,32,19,42,21
-13,-5,28,5,67,18,30,23,11,-9
-19,-6,26,18,50,4,15,4,0,-35
-19,-24,22,7,18,0,21,11,40,-22
-26,-17,37,24,34,13,42,7,56,-3
-15,-1,64,32,48,46,67,9,23,-3
-10,-12,68,34,45,53,90,30,-3,-8
3,-9,43,47,19,23,61,29,-3,-3
7,29,-1,34,0,-2,-3,19,-7,3
24,40,-26,9,-6,-29,-36,6,-8,8
17,36,-40,8,-27,-31,-45,8,-7,15
23,28,-48,0,-38,-38,-32,19,2,17
21,12,-53,-6,-36,-32,-40,6,4,7
27,7,-28,-21,-49,-33,-44,-27,-14,2
24,8,-23,-25,-54,-40,-38,-46,-53,-21
-4,-15,-32,-19,-25,-32,-33,-31,-58,-31
-12,-22,-12,-8,-18,-1,-31,-12,-9,4
-16,-5,20,5,-15,28,-21,4,43,10
-10,3,25,26,10,32,-12,7,43,-4
4,-4,30,33,14,17,28,19,52,1
0,-6,32,18,7,12,46,23,43,8
-2,7,53,16,24,15,66,2,-5,5
-6,12,76,25,50,26,54,-42,-34,-2
-17,-3,49,20,38,26,22,-60,-38,3
-3,9,25,19,14,12,14,-36,-48,4
19,16,8,19,-5,-6,-11,-2,-28,4
32,10,-30,13,-18,-17,-12,15,13,1
26,24,-76,-11,-46,-18,-23,-9,33,11
18,9,-73,-31,-52,-18,-45,-14,1,-12
15,-7,-42,-23,-34,-22,-52,6,16,-19
-22,0,-24,-24,-32,-12,-15,36,64,19
-1,49,10,-17,-26,-12,20,71,85,55
36,25,13,-7,-21,-24,15,74,79,42
35,-68,16,22,18,21,48,56,78,37
10,-58,66,77,57,74,93,17,20,-11
-24,33,117,69,55,45,59,-59,-85,-80
-77,16,118,18,30,7,4,-98,-109,-125
-54,-20,81,21,17,21,0,-81,-51,-73
-28,-12,54,27,31,30,35,-78,-30,-20
-7,-1,34,32,49,53,51,-59,-19,14
13,-7,-3,26,55,52,65,-19,16,12
28,0,-32,6,56,20,72,0,58,35
12,8,-53,-14,24,-4,36,5,61,46
-7,13,-76,-21,0,-27,-30,13,43,31
0,10,-99,-20,-13,-55,-53,38,21,8
25,2,-95,-41,-36,-62,-42,30,9,-15
24,14,-81,-13,-41,-33,-50,7,6,-21
-8,-6,-50,-3,-15,-24,-26,5,2,-29
-27,-35,-35,-33,-1,-29,-30,10,-10,-23
-43,-55,-36,-25,7,14,-13,3,-28,-12
-38,-38,-21,5,39,66,26,-2,-8,6
-8,3,6,7,51,56,21,17,33,1
35,19,21,18,40,-7,25,18,43,22
45,12,26,16,24,-40,33,43,37,35
-2,0,38,23,51,-9,46,77,21,11
-50,-30,20,-2,65,25,77,29,-5,-38
-58,-32,-4,-7,68,39,85,-33,-11,-44
-1,-10,-8,-3,63,38,65,-70,-5,-20
39,23,-21,0,45,26,40,-56,18,2
35,32,-33,-4,39,9,26,-11,34,3
28,29,-55,-8,23,-20,-19,22,40,2
23,20,-63,2,10,-49,-80,26,31,35
24,17,-58,25,4,-63,-87,13,8,40
1,5,-58,-9,-33,-48,-17,22,-4,-1
-20,5,-37,-21,-26,-15,43,27,-28,-8
-27,4,-10,-12,-13,-4,15,-5,-46,-20
-29,0,22,8,29,9,-5,-16,-55,-25
-28,13,39,17,60,-2,20,6,-30,-28
-25,9,36,14,43,-3,24,19,4,2
-13,0,46,3,41,28,32,12,28,19
8,0,48,-7,27,35,64,-6,13,12
-7,-35,41,-14,20,63,87,-11,-27,-2
-45,-47,18,-2,25,90,100,-8,-66,-5
-32,-32,2,1,27,91,99,-16,-88,-7
20,-11,4,4,44,57,56,-15,-69,0
37,19,-12,-3,38,-1,-13,-17,-44,1
37,39,-54,3,-10,-91,-75,2,-1,22
28,49,-48,-1,-69,-151,-126,11,4,59
-10,28,-44,-29,-75,-95,-98,21,-1,21
0,-9,-19,-37,-45,-33,-31,18,-3,-11
16,-8,11,-20,-12,-20,-10,12,3,-37
5,-1,4,-22,-9,-11,-2,-18,-49,-67
-8,-7,-15,-28,-27,-7,-27,-35,-86,-49
-20,-29,14,0,-13,28,-9,-25,-36,-5
-27,-41,30,15,21,57,34,-9,1,16
-25,-26,54,30,40,78,70,-3,-1,2
-11,-7,64,44,50,86,53,-20,-24,5
-8,-20,60,43,57,62,15,-43,-30,6
-15,-23,73,29,46,59,29,-43,-20,-5
-27,-17,58,12,55,77,56,-16,-4,13
-10,-17,24,13,32,40,51,23,37,64
29,7,-7,17,-12,0,1,25,21,60
41,3,-45,-12,-42,-19,-26,-1,-31,-15
18,-16,-70,-37,-60,-39,-56,2,-23,-25
15,1,-73,-53,-61,-51,-65,0,-6,-20
7,20,-60,-48,-66,-44,-53,10,8,-15
6,8,-22,-16,-61,-29,-30,21,15,2
4,0,-6,5,-42,-14,-11,17,15,4
-1,-5,-23,2,-23,-26,-19,36,13,-6
4,-16,0,-8,-5,-34,-17,30,3,-5
-7,-23,36,-9,-9,-8,0,8,-10,-12
-35,-45,53,0,-17,7,23,9,-5,-1
-52,-47,38,-4,-25,13,29,9,-20,10
-29,-31,23,-14,-30,14,31,-26,-49,11
-17,-20,32,-20,-31,21,52,-58,-58,3
-20,-20,59,-19,-9,19,75,-52,-33,-11
2,14,87,14,28,67,75,-9,5,11
24,25,75,26,31,55,27,1,20,50
49,33,45,1,-10,10,-31,-2,49,38
46,18,4,-17,-31,-8,-35,-8,37,8
29,14,-29,-24,-34,-17,-32,-8,-3,-11
17,25,-53,-16,-38,-38,-47,0,-43,-9
-5,20,-55,-20,-52,-61,-40,-11,-54,-9
-15,-15,-44,-18,-43,-29,-21,-16,-54,-6
26,-12,-9,-14,-36,14,-23,-16,-50,-8
67,23,7,15,-16,23,-17,-30,-20,2
36,18,35,42,7,27,13,-51,-11,-22
-3,-2,60,51,20,29,36,-41,-7,-34
-20,-12,66,41,26,35,48,-2,4,-9
-33,-18,69,33,29,42,67,26,44,2
-34,-17,55,26,41,28,79,47,33,10
-38,-20,57,27,48,34,84,23,-7,1
-22,-16,56,38,37,47,114,16,-13,-12
-12,-12,38,39,20,65,109,28,6,0
2,-10,-12,27,10,39,66,41,24,18
19,10,-31,38,0,-4,43,46,32,27
44,20,-29,34,-15,-26,18,25,20,34
12,18,-62,4,-33,-44,-13,6,23,10
3,7,-78,-13,-25,-11,-58,0,10,1
21,11,-61,-5,-30,-13,-47,-4,-5,0
7,8,-46,5,-47,-45,-21,-21,-14,4
-8,-4,-58,-9,-50,-37,-23,-43,-36,-23
-13,-15,-29,-15,-19,-7,-31,-39,-40,-47
-24,-5,16,-5,11,25,0,-14,-27,-23
-25,-5,41,2,29,23,42,9,16,-7
-10,0,45,-2,37,27,64,24,34,-1
3,-8,21,-5,30,42,52,15,22,4
1,1,5,-1,18,29,48,13,3,31
-16,16,21,19,19,27,73,13,-3,32
-14,19,-1,16,23,26,63,9,13,11
12,27,-9,12,39,33,34,18,44,-2
17,23,-13,9,37,28,-6,19,28,-19
14,28,-36,4,23,18,-60,7,-19,-46
39,11,-91,-39,-48,-56,-108,20,-13,-14
41,2,-105,-70,-89,-122,-76,42,17,27
25,11,-106,-57,-64,-85,-56,42,15,45
33,26,-72,-43,-38,-41,-49,19,2,33
22,25,-20,-25,-24,-35,-55,-2,-15,2
7,32,-6,-12,-5,-15,-42,-19,-19,-28
-13,44,31,-9,13,-4,-29,-31,-20,-55
-24,12,52,-30,-8,-3,-46,-35,-6,-40
-31,-26,25,-17,-17,-10,-34,-27,14,-5
-9,-24,44,2,-2,-15,-17,-19,-6,-6
-31,-21,16,-5,-2,-12,-4,5,1,2
-32,-38,3,-27,4,0,18,26,28,37
-28,-39,18,-26,19,10,25,0,-12,24
-9,-8,21,-2,33,-4,10,26,-32,0
19,13,11,13,24,-21,-29,64,-15,-10
24,21,-24,-11,-8,-67,-47,38,5,-10
15,27,-71,-43,-42,-90,-45,3,55,-17
8,41,-93,-55,-57,-55,-31,-7,128,3
-25,38,-72,-33,-22,-28,-71,-21,95,24
-12,31,-28,-29,-2,-35,-90,-22,20,29
10,-8,-9,-53,-22,-51,-97,-20,-58,13
0,-36,-17,-63,-30,-48,-105,-2,-78,6
-4,-34,4,-44,11,3,-50,16,-33,9
4,-10,61,-11,40,45,4,0,-8,11
14,9,73,5,50,39,-12,-16,4,-10
25,-15,66,0,73,31,-9,-5,37,-2
26,-4,59,21,90,35,1,-15,29,18
1,20,46,28,92,22,-47,-35,4,11
-46,-1,47,14,73,13,-49,-36,6,-6
-44,-23,63,6,57,26,-3,2,15,-2
-17,-26,56,5,58,29,12,37,17,0
16,-4,38,-11,59,8,0,41,10,-5
12,8,30,-29,33,-28,-22,8,4,-3
8,6,-32,-40,7,-56,-57,-27,9,-3
26,12,-56,-53,-4,-74,-107,-48,0,-24
7,32,-46,-54,-5,-68,-113,-50,-1,-19
-12,32,-41,-20,4,-24,-77,-29,6,-10
15,18,-24,-1,0,-17,-60,-18,14,3
53,-5,11,4,11,-22,-48,-15,20,12
19,-17,29,9,31,-18,-32,-16,21,-6
-25,-16,39,36,48,7,-9,-11,26,-8
-34,-19,48,39,73,40,31,-6,21,4
-44,-31,41,8,73,63,67,10,17,-20
-53,-42,31,12,50,57,73,4,9,-36
-25,-35,27,26,45,25,55,5,26,-3
-19,-32,30,48,58,13,51,23,84,25
-39,-19,59,77,61,-8,37,17,89,34
-23,1,82,81,60,-26,2,-4,62,17
7,6,3,25,10,-43,5,17,74,11
27,-2,-53,-12,-19,-47,3,41,63,0
40,30,-76,-2,-16,-45,-53,31,11,0
50,71,-58,25,-20,-15,-53,-1,-49,-4
28,44,-38,8,-12,6,-23,-5,-67,-21
-3,26,-35,7,-15,28,-10,-1,-48,-24
-12,45,-18,21,-21,28,-11,8,-25,-41
-20,32,4,19,-25,22,-18,-8,-24,-42
-31,11,37,33,-19,-17,-9,-13,-2,0
-25,-8,43,51,-9,-46,10,-16,20,25
-40,-43,46,17,-27,-40,8,-10,2,3
-55,-69,25,-10,-55,-25,37,19,-11,-10
-39,-51,19,1,-35,20,63,39,18,-2
-19,-24,39,29,10,77,93,42,50,20
10,-6,50,51,41,113,116,45,84,45
-14,-3,37,56,34,126,104,44,114,46
-15,4,2,30,6,85,53,32,122,49
37,33,1,28,8,28,15,14,81,51
38,39,17,44,18,28,8,-3,-24,26
30,41,-5,19,-20,24,-27,-4,-95,8
35,35,-29,2,-40,-1,-41,-8,-113,-10
26,32,-25,22,-14,8,-28,-38,-128,-12
-1,26,-11,12,-5,11,-49,-50,-136,-12
-16,-2,-12,4,-21,-27,-72,-6,-129,-13
1,-17,2,-11,-56,-48,-64,0,-87,-30
-14,-20,33,-14,-74,-29,-57,-32,-50,-42
-27,-43,31,21,-60,-6,-19,-46,-49,-24
-10,-34,16,39,-49,45,40,-29,-27,3
-3,-25,27,37,-33,79,90,-20,-3,7
-14,-4,35,32,-21,86,94,-26,-29,-14
-21,14,61,43,13,86,87,-41,-50,-45
-10,16,91,70,43,86,80,-28,-21,-36
20,22,90,63,39,75,84,6,0,2
35,28,47,46,23,26,34,17,-2,1
32,13,-39,20,-32,-16,-9,7,1,-1
5,-16,-91,-6,-89,-10,-16,25,-23,0
-7,-24,-102,-27,-106,-9,-6,49,-36,16
15,-18,-87,-14,-93,-7,-14,31,-32,21
49,26,-48,-6,-67,-27,-20,4,-23,24
65,30,-28,-20,-63,-42,-37,-21,-8,26
38,-11,-30,-40,-80,-29,-48,-24,12,13
-17,-27,-33,-37,-70,6,-18,5,43,29
-86,-45,-23,-13,-39,25,17,35,60,22
-60,-20,3,17,-10,40,13,4,9,-23
-12,-11,39,31,9,27,17,-33,-20,-40
-21,-28,34,15,14,9,2,-59,-46,-36
-20,-29,42,3,7,-3,18,-44,-38,-4
-6,-14,43,-4,22,26,57,-18,-33,5
12,19,23,14,36,56,85,1,-14,8
0,8,-9,5,37,39,56,17,3,11
13,2,-45,-19,14,-1,22,24,-18,-5
41,15,-55,-52,-15,-30,-15,17,-28,-1
50,20,-62,-54,-33,-54,-49,20,-14,38
43,10,-85,-61,-51,-62,-67,27,25,54
10,-11,-90,-78,-75,-40,-49,15,32,26
12,0,-82,-57,-70,-20,-20,-13,-12,-6
9,15,-49,-29,-46,-27,-22,-16,-23,-7
-32,-11,-38,-27,-27,-31,-38,-18,-24,1
-42,-41,-23,-35,-20,-35,-30,-18,-14,2
-17,-25,-11,-31,-21,-39,-33,-18,12,-5
9,-15,-3,-27,-8,-25,-26,0,6,-28
37,2,19,-16,15,3,-9,17,8,-21
30,12,38,-1,45,20,17,14,44,-6
-6,5,31,7,49,4,36,22,84,-21
-11,-3,27,2,1,-12,55,26,90,12
2,-9,-13,3,-20,-16,47,6,56,23
11,-11,-41,-10,-19,-8,31,11,18,0
-3,-13,-57,-44,-34,-11,20,46,-9,-12
10,1,-73,-51,-37,-24,37,61,8,14
9,30,-76,-22,-51,-41,13,33,-9,5
25,49,-62,-20,-58,-84,-59,11,-55,-33
44,28,-46,-44,-56,-89,-85,-18,-63,-41
15,-6,-78,-58,-57,-59,-77,-28,-59,-32
-18,-25,-68,-54,-45,-41,-67,-14,-14,-26
-16,-31,-12,-19,-28,-75,-29,50,53,8
1,-11,18,0,-31,-66,22,124,77,28
-18,-9,13,-5,-24,6,91,108,78,10
-27,14,53,28,22,68,110,27,70,-2
-9,25,94,58,66,100,82,-53,50,0
-4,27,84,62,65,102,53,-96,12,1
1,24,86,53,71,93,20,-115,-36,2
12,41,101,54,70,52,20,-93,-60,8
31,50,78,46,57,24,48,-61,-62,8
37,33,25,48,39,11,18,-38,-45,-15
41,23,-21,28,8,-15,-46,-33,-40,-45
54,11,-81,-3,-45,-78,-84,-3,-11,-8
58,5,-110,-34,-68,-93,-72,16,25,44
26,4,-75,-43,-57,-44,-38,3,11,25
-11,-2,-52,-42,-21,-5,-15,-5,-18,-4
-22,-11,-39,-14,-6,3,-13,-16,-32,-3
-37,0,-7,11,14,8,-17,-15,-9,-1
-43,-28,-6,12,14,-1,-18,0,-2,-28
-43,-29,0,19,-9,-6,-2,-15,-14,-42
-40,-30,4,-1,-30,-13,2,-26,-9,-23
-31,-48,-3,-18,-19,-17,10,13,21,-1
-29,-48,3,-5,4,-4,5,36,33,8
-23,-31,48,10,46,27,-2,30,39,12
-14,-19,66,2,22,7,14,28,53,33
5,0,73,0,4,2,63,40,56,30
4,11,36,-5,7,27,74,42,49,18
18,18,-11,-14,7,13,37,39,47,27
33,29,-32,-13,8,-8,-32,33,32,28
38,36,-67,-22,-1,-14,-58,17,1,21
35,45,-67,-26,-1,-31,-71,-20,-18,8
7,35,-41,-10,-11,-56,-91,-35,-22,1
-7,11,-20,-8,-23,-58,-86,1,7,-10
-21,2,-7,-17,-7,-36,-53,6,12,-20
-17,10,3,-15,12,-28,-45,-10,11,-42
-14,5,20,7,12,-7,-35,-22,50,-18
-17,-2,36,15,10,28,-29,-24,40,7
-3,-5,40,40,29,45,-30,-18,2,21
-6,-10,38,47,36,27,-27,-13,-37,-16
-15,-21,40,29,37,27,5,-20,-61,-25
-25,-26,54,32,63,49,30,-20,-58,-39
-39,-7,40,34,75,30,31,-3,-9,-31
-1,22,47,4,60,6,-1,35,43,1
67,39,39,-2,61,-9,-17,37,45,30
59,29,4,5,51,-20,-43,4,-1,39
13,0,-43,-19,-2,-41,-67,-3,-1,21
5,26,-72,-35,-43,-71,-82,6,8,22
0,17,-75,-25,-48,-78,-96,3,-9,-5
-16,13,-61,-24,-43,-62,-111,-20,-52,-52
-44,-14,-54,-39,-37,-42,-93,-21,-61,-47
-21,-35,-62,-47,-31,-7,-42,12,-4,-8
6,-28,-42,-46,-4,6,-19,15,32,3
0,-29,-14,-32,14,0,-20,4,47,-2
-15,-26,6,-4,36,0,-15,22,59,-8
-44,-6,28,14,53,-6,-5,34,53,-2
-11,1,19,10,32,-16,0,50,54,19
26,14,25,2,18,-24,-25,22,61,33
25,26,61,22,18,8,-36,-34,47,25
9,9,60,26,32,5,-11,-42,19,5
4,4,16,11,20,-8,7,-1,5,10
28,25,-26,3,-18,-15,-6,11,-24,26
36,39,-49,14,-26,-10,-26,5,-28,28
32,38,-64,-7,-27,-39,-80,0,-29,-4
30,26,-72,-38,-70,-73,-88,23,-32,-21
25,17,-56,-38,-80,-57,-47,3,-39,-5
-4,3,-46,-25,-63,-32,-43,-26,-33,-13
-24,1,-40,-26,-68,-31,-49,-41,-1,-15
4,3,-4,-29,-59,-31,-30,-36,28,-4
-8,11,48,0,-52,-32,-26,-41,0,13
-29,0,41,2,-28,-28,-16,-27,-7,3
-38,-26,31,-17,-16,-12,14,12,5,-2
-45,-54,22,-30,-12,14,37,43,34,-13
-65,-46,17,-23,-2,54,29,49,54,-5
-43,-10,51,-5,23,55,-6,15,33,24
-33,-5,82,22,47,25,1,-2,5,30
-7,-1,55,43,37,10,-6,-16,-2,-6
4,8,15,17,-36,-66,-45,38,-3,-20
6,21,-22,-28,-102,-129,-77,91,9,16
7,20,-38,-40,-103,-99,-81,57,39,16
27,27,-59,-52,-71,-74,-82,8,70,16
52,26,-45,-38,-69,-54,-84,-22,58,17
40,22,-27,-30,-85,-46,-94,-47,9,19
61,17,-20,-40,-90,-43,-116,-42,-13,7
78,-2,-25,-27,-72,-34,-99,-18,-38,-1
13,-5,-8,-21,-46,-21,-67,-15,-46,-21
-36,-8,35,-14,-44,-1,-46,-25,-34,-4
-36,-22,45,-1,-41,-6,-67,-46,-45,4
-32,-30,26,1,-53,-34,-35,-41,-21,-3
-38,-33,15,-26,-67,-27,8,9,19,9
-19,-27,27,-3,-41,13,27,19,8,23
-18,-12,60,24,-24,48,33,-3,-9,4
-17,-7,80,17,-33,35,42,1,-15,-18
16,19,78,20,-48,7,30,13,-4,-12
26,25,61,23,-47,-34,-15,5,-15,-14
11,26,12,5,-48,-62,-34,9,-8,-1
34,27,-34,-5,-76,-67,-33,44,16,20
56,51,-46,-10,-91,-55,-67,46,9,12
32,51,-29,-7,-104,-73,-111,-3,-12,3
5,22,-23,-2,-106,-82,-115,-48,-20,-15
1,17,-6,11,-82,-85,-77,-54,2,2
-4,4,-2,-3,-86,-87,-50,-38,3,-8
-28,-18,-4,-13,-90,-34,-4,-11,12,-18
-33,-36,34,-1,-41,22,25,9,41,-7
-18,-19,74,12,-20,17,21,25,37,-4
-11,-7,83,42,-13,7,35,0,12,8
-34,-26,80,34,-19,32,57,-9,-10,10
-56,-49,31,4,-30,68,77,-7,-17,4
-51,-36,36,10,-28,93,66,-17,-22,0
-33,-18,38,10,-21,63,30,-15,-20,4
34,27,31,18,-9,1,17,-13,-20,13
113,55,17,35,0,-65,-35,-19,-26,41
93,45,-17,20,-36,-106,-64,11,-23,45
57,4,-58,-16,-72,-112,-74,50,-18,34
26,-4,-66,-19,-84,-119,-95,36,-12,20
-4,-13,-61,-37,-103,-80,-59,23,-25,10
0,-24,-45,-27,-58,-13,7,24,-21,12
-9,-20,-24,0,-12,18,15,4,-22,0
-36,-38,-2,8,-1,10,1,-37,-57,-34
-45,-57,0,-3,-12,24,4,-21,-61,-39
-18,-36,16,-6,-9,65,36,23,-2,-27
0,-18,36,15,19,74,60,42,37,-2
-13,-9,40,16,25,29,57,31,22,18
4,-3,40,16,42,21,70,17,-4,2
-12,-2,72,30,61,37,80,16,2,-23
-23,2,90,51,74,61,87,4,-7,-19
29,33,71,49,75,63,80,-11,-30,11
52,20,22,23,54,39,62,-22,-51,1
26,3,-30,-1,32,-10,21,-16,-51,-1
17,11,-51,-4,24,-27,3,0,-49,25
27,26,-47,-15,11,-40,-32,-3,-49,27
21,24,-41,-28,-3,-54,-55,-25,-71,-11
-5,-5,-34,-48,-22,-51,-45,-30,-62,-32
-19,-39,-38,-50,-21,-48,-29,-31,-51,-15
-17,-38,-48,-16,-14,-29,-7,-15,-31,90
-15,-32,-30,-8,-5,6,13,0,2,195
-6,-6,16,22,23,57,51,6,0,73
-9,8,43,42,77,65,64,-7,-9,-36
-14,-6,61,43,106,62,54,-20,-27,-77
-27,-25,57,28,90,53,46,-7,-10,-71
-26,-24,54,26,88,36,55,-13,-8,-45
-36,-19,42,22,85,27,65,-31,-23,-36
-42,-29,29,11,64,35,69,-29,-15,-35
-26,-9,23,9,47,18,70,-5,25,-26
-2,5,-4,8,25,3,61,23,64,-4
-8,1,-56,-12,9,-11,61,64,64,-3
-12,-3,-89,-38,6,-22,49,77,65,-4
3,-1,-99,-51,-11,-26,8,45,46,-4
34,11,-68,-36,-11,-14,-17,8,12,5
39,26,-42,-21,-2,0,34,2,0,-1
-9,23,-55,0,30,24,58,11,14,-18
-36,2,-47,10,60,42,67,17,34,-21
-22,-32,-5,9,69,56,68,52,25,-11
-1,-35,25,8,63,33,70,108,5,-7
9,-32,48,13,62,39,101,67,-20,-1
39,-19,59,18,97,79,130,-24,-24,12
61,13,77,51,116,103,123,-82,-16,17
34,68,96,88,134,108,93,-118,-32,16
14,66,100,94,127,93,111,-139,-66,-2
-13,33,74,81,110,78,114,-107,-50,-23
-19,25,51,81,85,66,92,-84,-36,-14
-11,18,14,70,61,44,45,-55,-2,-18
2,-8,-41,17,38,17,33,-9,16,-24
2,-28,-80,-15,14,-1,20,27,12,-20
-12,-43,-87,-22,10,3,22,38,18,-12
-12,-36,-60,-37,3,-12,26,13,26,-3
3,-21,-25,-17,7,-4,41,3,27,-11
-7,-9,-5,-14,1,0,31,18,33,-10
-20,-1,6,-1,7,-5,37,41,59,-1
-21,-5,28,7,23,23,55,34,66,39
-8,4,47,29,42,87,55,15,61,119
9,20,42,46,52,96,61,-1,31,60
-1,16,46,19,50,84,78,1,-5,-8
-47,-25,41,-22,25,98,102,-6,-17,-51
-52,-35,42,-23,26,90,112,-14,6,-49
-9,-28,36,-2,44,63,98,18,41,-8
16,-3,32,14,52,70,63,15,41,12
31,9,20,19,49,64,-2,5,6,-2
23,9,-14,-6,3,-9,-24,49,3,-2
17,13,-37,-25,-21,-25,-11,61,5,-13
28,14,-63,-44,-26,0,-36,5,-7,-44
14,-10,-81,-59,-38,19,-29,-19,3,-44
1,-7,-52,-39,-39,36,-19,-1,26,-27
-4,1,-25,-17,-27,28,-20,11,28,-17
-7,14,-20,-20,-27,10,-31,-9,5,0
-2,13,0,-6,-2,-40,-87,-25,9,24
19,19,50,11,-2,-63,-87,-8,21,56
0,-2,53,7,-3,-14,-50,3,40,25
-14,-15,54,22,52,51,0,0,63,-15
-11,-6,62,43,77,43,31,-22,53,-12
0,7,43,20,55,54,71,-17,34,-4
-7,16,55,27,67,113,106,-20,15,-15
-35,11,59,28,64,107,99,-24,-17,-39
-34,26,30,8,41,48,41,-6,-21,-20
-9,16,-33,-1,30,11,-1,0,-36,-13
-7,0,-75,-10,30,7,-8,16,-13,0
0,9,-84,-22,12,-10,-25,18,1,25
2,10,-97,-42,4,-36,-34,4,-12,6
9,0,-104,-40,-2,-18,-44,-5,-31,-4
13,8,-64,-33,-3,-9,-25,-11,-33,8
14,2,-47,-16,-2,-4,-12,-15,-12,-9
3,-17,-49,-5,0,7,-8,-6,4,-15
-33,-36,-13,-14,-6,11,-3,-13,-18,-7
-43,-48,0,-21,-7,4,5,-30,-27,3
-37,-44,-4,-19,8,27,46,-17,6,14
-19,-27,7,-5,42,50,49,0,43,9
-7,0,7,21,67,46,24,7,50,-4
1,-8,16,48,71,50,49,72,54,-12
-6,-11,21,41,63,61,84,128,94,-5
-19,-8,23,35,59,65,70,93,94,-9
-7,25,19,41,70,68,42,29,66,3
29,38,11,30,65,46,33,-12,16,9
34,42,-20,27,53,10,-21,-23,-49,-9
9,19,-61,-10,21,-15,-62,1,-78,-33
4,7,-61,-18,13,-20,-52,23,-94,-9
24,26,-37,7,42,9,0,-3,-112,18
31,17,-13,11,52,20,53,-20,-92,34
11,6,0,15,29,13,13,-33,-45,24
5,10,16,32,28,7,-31,-51,-42,-5
9,5,43,39,41,0,-46,-59,-71,-24
11,-1,91,71,83,94,239,-31,25,-27
-9,-12,84,62,80,83,226,-17,13,8
-15,-11,53,44,56,58,133,13,24,39
6,4,0,21,18,18,36,20,39,41
16,10,-34,22,-13,-5,4,22,49,38
22,32,-29,29,-3,-14,-34,8,21,2
28,39,-31,10,-9,-43,-96,-2,5,-6
-6,20,-19,-6,-29,-53,-85,-2,-9,-22
-70,-14,-27,-10,-28,-12,-45,-10,-34,-34
-57,-28,-34,-16,-32,-12,-48,-11,-14,7
2,-11,-19,-17,-36,-27,-53,-11,0,30
28,-15,-9,-15,-16,-10,-30,-6,6,5
6,-25,11,-2,13,5,-10,0,-10,-21
-18,-31,24,-13,17,31,-23,2,-23,-43
-34,-33,34,-15,5,35,-6,12,39,-41
-24,-40,37,3,15,41,21,27,45,-12
-1,-35,74,31,58,42,13,-9,4,17
3,-30,89,42,77,30,-23,-45,-21,23
-5,-19,54,24,47,-7,-49,-41,-33,19
16,12,3,-4,6,-32,-21,-16,-30,41
9,15,-16,-32,-8,-18,-19,0,-28,46
18,18,-32,-40,-21,-24,-27,12,-17,5
39,31,-60,-38,-39,-27,-57,21,6,1
5,9,-97,-51,-39,-21,-95,21,3,1
-14,-22,-103,-67,-44,-53,-100,16,-13,-15
-25,-36,-75,-74,-51,-76,-71,45,-45,-33
-8,-18,-26,-36,-37,-71,-62,39,-49,-3
19,9,-7,-21,-37,-52,-58,15,-33,8
48,14,8,-12,-27,-22,-55,-15,-45,-17
45,5,34,-7,-6,-19,-53,-45,-37,-39
-12,-15,36,-29,-10,-22,-37,-57,-12,-34
-40,-30,24,-7,-5,-2,-1,-25,-5,-11
-28,-19,46,19,26,27,14,1,-4,4
-5,0,70,25,50,32,42,2,-23,13
5,25,87,18,41,33,61,9,-25,35
17,36,86,22,37,55,47,9,-23,11
12,30,26,16,19,23,-24,2,-5,-13
-2,1,-51,-26,-54,-59,-68,3,25,-6
10,-29,-92,-61,-85,-110,-124,3,10,-9
34,-11,-62,-39,-52,-113,-158,2,-17,16
13,17,-51,-18,-44,-141,-170,-5,-22,34
11,13,-39,-11,-45,-113,-139,-21,-16,11
31,13,-34,-20,-54,-68,-92,-21,-15,8
23,15,-41,-32,-69,-46,-53,-17,-19,-1
10,-1,-15,-23,-44,-29,-10,-22,-13,-23
-3,-16,9,2,-4,-6,10,-18,-16,0
-23,-27,31,4,6,-24,-12,-25,-26,2
-54,-40,19,-10,-14,-33,-17,-18,-33,-20
-51,-38,-14,-26,-38,-33,-28,18,-27,-22
-35,-21,12,5,-7,-1,-16,39,-17,-12
-25,-9,68,37,44,58,45,35,9,2
7,0,97,47,66,78,76,43,56,19
35,12,68,28,42,72,53,19,84,24
42,6,19,12,-5,15,38,12,92,48
34,22,18,13,-9,-2,23,13,52,52
23,59,7,35,2,-6,-14,-5,-23,2
0,53,-10,28,-18,-19,-57,-13,-97,-28
-5,26,-28,27,-8,-27,-68,-22,-112,-26
-29,-4,-20,16,-15,-22,-71,-29,-107,-26
-48,-18,-34,-9,-46,-23,-50,-10,-49,-14
-27,-3,-28,-17,-49,-22,-17,14,-7,7
43,21,11,16,-18,-15,3,5,13,21
49,9,42,35,14,-8,-18,-22,23,24
37,-1,47,49,30,1,-85,-36,25,6
32,-5,29,51,15,7,-279,-24,13,5
-28,-9,31,57,36,34,-319,11,24,4
-56,-1,47,73,59,51,-218,2,17,-15
-80,-28,39,38,44,43,-28,-15,-1,-39
-76,-38,43,40,35,53,169,-8,6,-35
-20,-17,52,54,28,53,232,16,34,10
21,-6,19,41,1,27,78,22,34,29
39,-18,-45,19,-14,3,-1,43,29,31
43,0,-74,9,-18,-4,56,105,40,25
33,17,-79,-7,-20,-30,98,95,22,8
28,9,-68,-25,-47,-69,54,32,6,-2
11,13,-42,-27,-54,-71,-19,-11,24,6
22,18,-19,1,-14,-36,-23,-35,37,16
-1,1,-26,-4,13,2,37,-36,26,23
-42,-1,-14,-13,25,19,96,-43,18,13
-37,-3,4,8,31,18,79,-55,-4,-18
-21,-1,35,29,28,30,39,-43,-23,-41
0,3,56,25,31,27,42,-20,-4,-28
-1,-5,41,17,32,39,72,-35,10,-16
-5,-14,41,20,47,77,88,-32,2,-2
-5,-13,40,25,52,69,74,-10,1,5
0,6,12,10,34,20,32,13,8,6
0,11,-22,-1,1,-49,-3,52,19,4
17,18,-30,-13,-13,-77,2,52,6,-2
19,24,-40,-27,-37,-62,-27,18,0,0
35,48,-58,-28,-55,-71,-69,2,0,15
28,44,-65,-21,-80,-94,-79,7,-6,7
17,25,-53,-23,-67,-70,-14,15,-13,0
4,9,-26,-16,-50,-23,35,3,-7,3
-5,4,-8,7,-38,0,34,-13,-2,3
-16,1,-1,6,-35,3,7,-15,0,-11
-29,-9,1,-7,-35,-7,1,-10,-4,-37
-15,-7,16,4,-38,-17,37,-12,-8,-24
5,-18,26,-5,-34,-14,79,-11,3,-20
-1,-27,20,-18,-28,-2,57,7,28,-19
-20,-22,9,-6,-27,11,58,9,41,-7
-31,-6,15,20,-22,18,105,-15,26,-12
-1,0,17,6,-5,20,123,-4,15,0
-10,-8,-2,-23,-16,22,103,13,19,9
-1,12,-18,-33,-20,27,69,13,17,9
16,28,-55,-49,-63,-31,10,36,15,0
8,33,-85,-69,-114,-94,-15,78,28,0
15,14,-101,-72,-130,-146,-66,50,44,12
12,-5,-120,-79,-123,-133,-111,-7,35,26
12,0,-98,-95,-131,-91,-91,-12,41,13
27,2,-54,-99,-127,-92,-31,5,50,11
14,7,-35,-84,-108,-23,55,-1,55,17
-6,-2,-5,-68,-78,26,53,-11,56,0
1,-37,-3,-58,-55,36,20,9,30,-4
25,-24,7,-41,-49,14,21,37,41,32
30,43,59,15,-14,-49,8,27,41,52
21,44,58,25,-20,-47,-5,0,-2,31
13,49,57,20,-24,-4,0,-52,-60,-2
2,42,88,25,-4,34,-2,-96,-113,-27
8,17,66,16,-7,18,15,-87,-93,-48
26,7,-1,-13,-20,-8,30,-32,-48,-29
32,-9,-28,-17,-28,11,14,-3,-35,-11
27,-1,-40,-4,-32,-7,-17,3,-30,-12
9,1,-70,-30,-72,-82,-46,11,-20,-21
-8,-14,-87,-43,-93,-90,-56,15,-8,-36
-10,-4,-76,-54,-98,-96,-52,0,-11,-21
-15,-9,-72,-61,-96,-71,-29,-2,-8,-13
-14,-19,-54,-46,-63,-29,1,1,-17,-1
-10,-23,-24,-24,-48,-21,-13,-6,-25,-20
-27,-37,1,-13,-53,-27,-34,-16,-29,-12
-36,-50,-4,-29,-59,-21,-16,-14,-42,-11
-36,-51,-15,-49,-38,-20,26,1,-27,-5
-2,-41,1,-45,4,-12,58,16,8,14
20,-13,10,-36,20,-3,55,30,30,26
18,3,30,-23,7,0,60,12,28,19
-22,-4,60,-25,-6,11,67,4,17,4
-22,-17,47,-21,-10,15,53,43,31,2
-6,-15,3,-25,0,1,28,118,42,9
8,-6,-34,-35,-29,-7,1,117,44,13
24,-1,-68,-48,-50,-23,-44,34,58,17
24,23,-96,-65,-47,-51,-77,-31,48,18
31,39,-65,-34,-26,-34,-75,-45,10,30
33,50,-20,-10,-17,-20,-48,-50,-49,26
32,39,0,-11,0,-18,-28,-40,-84,-18
14,23,2,-20,-15,-29,-38,-37,-90,-44
-5,11,-7,-25,-40,-32,-23,-30,-80,-31
-7,6,23,-10,-25,-3,15,-27,-44,-13
12,27,65,16,26,22,62,-28,-26,12
16,27,90,35,44,34,50,-48,-20,18
-42,16,71,27,43,15,19,-40,-26,1
-86,-23,24,19,41,-13,37,-11,-18,-2
-87,-56,44,30,35,7,52,13,-5,-5
-35,-48,63,43,33,18,69,3,4,-10
16,-15,36,33,34,16,47,-6,14,-3
26,9,-21,26,24,9,11,2,2,-19
8,23,-40,27,12,-4,2,21,21,-12
10,10,-34,28,-2,-18,-20,35,27,-4
-12,0,-45,21,-18,-31,-39,45,12,-12
25,23,-46,-10,-33,-46,-70,24,-5,27
94,21,-28,-11,-27,-33,-77,4,-22,57
70,-3,-8,-5,-36,-13,-54,15,0,52
10,2,9,11,-39,14,-28,16,21,43
-43,-22,32,22,-34,23,-9,10,-1,2
-46,-22,53,38,14,31,15,2,-15,-16
-18,-5,68,57,34,29,31,-6,-9,-16
12,13,53,53,42,29,36,-34,-25,-35
12,-4,51,33,41,23,22,-62,-38,-25
0,-29,58,30,55,27,4,-57,-47,-9
-13,-40,35,31,72,36,-4,-37,-52,-18
-19,-20,20,27,58,33,3,-34,-31,-29
0,6,0,22,38,24,20,6,10,-5
9,16,-23,17,18,19,28,47,51,28
15,14,-30,2,27,3,-1,50,81,34
8,18,-43,-8,19,-19,-46,38,83,32
9,0,-55,-25,-5,-37,-64,35,27,32
15,4,-54,-33,0,-44,-63,23,-13,33
-3,7,-34,-10,15,-22,-84,-5,-34,27
-13,-9,-9,2,22,-6,-64,-7,-35,3
-19,-18,18,8,24,-3,-66,-10,-42,-19
-22,-24,34,15,17,14,-46,-11,-40,-53
-10,-8,39,12,13,34,3,3,-20,-58
-11,10,54,17,27,35,29,-3,7,-25
-28,5,43,20,40,36,43,-13,30,-20
-13,-5,36,11,40,38,47,-9,18,-10
-21,-29,45,17,37,37,56,8,49,20
-24,-22,50,29,41,58,67,27,45,26
-12,-2,36,17,51,77,71,27,34,0
13,0,14,19,33,47,46,17,28,-5
30,1,1,23,29,-7,0,-5,-13,7
32,19,-30,4,11,-35,-48,-8,-22,-6
25,38,-62,-6,-13,-52,-74,-16,-1,4
28,37,-56,-8,-44,-46,-68,-12,-3,0
33,10,-50,-18,-58,-24,-34,-5,-4,-8
11,-15,-40,-18,-50,-23,-24,11,-6,-5
-9,-33,-24,-32,-34,-18,-30,14,7,9
-27,-31,7,-29,-22,-3,-10,19,20,10
-27,-12,41,-15,-5,27,28,27,0,-6
-17,8,48,12,10,44,47,24,19,-7
-18,-11,14,16,16,51,55,9,67,0
-24,-22,13,-1,29,35,34,7,104,27
-1,3,60,4,33,45,0,-10,68,37
36,30,86,14,15,58,13,-23,-6,19
26,0,64,9,-8,24,43,-22,-33,6
4,14,4,3,-21,17,39,-18,-36,27
17,38,-13,32,14,44,20,-10,-15,28
26,41,-5,71,33,8,-32,4,5,-6
35,18,-45,15,-40,-61,-36,42,29,-12
30,19,-52,-17,-58,-66,-34,21,19,-12
-3,31,-22,-7,-45,-32,-47,-16,0,-6
-6,22,-4,-9,-43,-35,-69,-43,-23,-5
3,13,-3,-3,-26,-42,-72,-50,-18,6
0,8,-17,1,-22,-22,-46,-33,-16,-3
-31,-16,0,-5,-41,3,12,-34,-19,-28
-66,-50,-10,-9,-59,-2,29,-9,-31,-36
-40,-60,-10,-17,-45,-9,57,34,-11,-21
-21,-44,11,-14,-14,-6,79,53,28,25
4,-26,23,0,6,9,56,93,65,19
15,-8,42,21,21,30,58,83,93,0
5,-8,49,32,13,31,46,18,98,-6
8,0,55,43,3,23,36,-37,79,-1
36,42,38,26,-22,-28,52,-43,39,12
29,56,-2,3,-51,-43,48,-59,-34,9
-11,41,-30,-6,-56,-16,23,-71,-55,0
-14,37,-62,0,-53,-22,-35,-56,-52,1
24,57,-37,37,-61,-30,-99,-32,-27,6
19,28,-1,31,-59,-57,-100,-1,15,-4
28,20,0,20,-48,-97,-46,15,28,6
29,2,0,23,-32,-84,-9,0,14,-5
11,2,11,11,-30,-33,-6,-24,-11,-38
-5,-9,-1,21,-32,10,17,-16,-19,-35
-9,-25,21,15,-31,12,39,3,-22,-6
-15,-5,34,15,-10,-10,47,0,-13,28
-15,-2,25,9,-14,-43,56,-3,0,24
-25,-26,15,-4,-28,-27,68,14,7,-7
-16,-37,47,0,-10,9,86,16,1,9
-3,-44,51,-4,-5,19,83,15,16,37
-5,-24,16,5,-3,23,74,21,20,21
-7,1,-27,16,-15,20,55,27,22,-12
0,15,-40,0,-21,-6,21,21,21,-3
-11,32,-58,-17,-37,-21,-5,32,26,-18
-33,29,-66,-20,-52,-30,-23,34,46,-46
-28,8,-52,-9,-57,-19,3,25,25,-39
23,14,-36,-7,-50,-19,18,-9,-2,-21
36,31,-35,-29,-40,-43,-11,-27,-5,-9
18,-19,-52,-50,-57,-68,-19,0,40,16
0,-46,-49,-58,-73,-57,23,39,56,28
-19,-31,-39,-55,-53,-27,41,27,12,11
-32,-20,-11,-53,-22,46,48,3,-13,2
-16,-1,18,-41,-17,51,46,-1,-6,34
22,14,37,-44,-28,-2,39,3,10,41
28,-8,61,-32,20,-1,67,6,20,-3
11,-14,66,-12,59,12,71,11,15,-2
-4,-2,34,-30,42,5,62,31,11,3
6,14,-20,-57,-1,-18,46,59,27,7
16,27,-32,-30,-5,-5,37,53,40,28
38,44,-29,-17,-6,1,5,10,27,29
37,50,-49,-33,-15,-18,-22,-26,25,17
38,37,-67,-31,-25,-20,-59,-34,2,4
27,11,-69,-19,-33,-51,-97,-43,-48,-12
-2,-15,-71,-27,-30,-57,-81,-42,-83,-41
-24,-23,-66,-38,-8,-39,-42,-24,-79,-41
-11,-23,-30,-32,33,-19,-16,-9,-48,-7
18,-18,21,-12,57,2,11,8,-39,14
9,-13,30,3,49,18,-10,8,-18,20
-5,-10,24,5,57,26,12,10,9,9
-30,-17,28,2,56,36,29,5,-2,-15
-35,-20,39,15,39,48,22,-1,-15,-32
-44,-21,50,19,30,46,46,-8,-8,-16
-54,-28,31,14,11,34,45,-11,19,3
-29,2,19,16,6,26,32,-11,16,-12
-12,40,7,25,14,20,0,-15,-24,-30
2,46,-20,20,30,26,-9,-19,-29,-13
27,32,-46,34,48,22,-44,-25,-19,11
37,25,-61,19,11,-34,-93,-12,-25,9
11,4,-72,-28,-34,-69,-76,15,-15,0
-3,-13,-87,-34,-15,-39,-57,1,-13,-20
11,-18,-58,-8,4,3,-41,-2,0,-20
-2,-8,-7,-4,0,4,-23,-10,21,4
-25,0,3,-14,9,8,-48,-25,15,-5
-21,-2,14,-6,35,34,-26,-28,7,-11
-11,6,13,18,53,43,7,-24,-6,-11
-10,-2,26,29,59,44,40,-14,-4,-17
-20,-11,50,27,68,60,38,-7,-3,6
-28,-24,43,32,71,51,31,6,29,1
-21,-32,44,38,72,45,53,21,63,-6
-19,-28,30,27,76,60,78,45,47,0
-26,-36,0,7,65,84,79,107,37,-4
5,-31,-37,-6,50,55,48,133,17,-5
28,-6,-63,-9,33,8,12,58,-40,-8
42,27,-41,0,34,-17,-37,-29,-54,7
37,67,-22,8,35,-34,-74,-68,-47,28
28,48,-23,9,22,-28,-57,-48,-49,36
16,23,-8,5,30,5,-40,-41,-46,26
-12,0,-9,-2,38,20,-67,-41,-57,-3
-21,-7,14,2,56,36,-91,-41,-49,3
-19,-10,43,14,69,66,-80,-42,-48,5
-22,-7,56,30,81,55,-41,-40,-59,-24
-27,-24,59,25,77,40,-28,-32,-63,-48
-19,-40,53,-6,52,31,-25,-3,-24,-56
-11,-41,57,0,53,44,16,12,4,-36
-11,-18,83,33,62,67,55,2,-7,-29
-2,-25,75,37,59,100,59,-30,-45,-42
-12,-41,55,25,59,115,34,-40,-44,-22
-14,-25,21,28,54,96,-17,-24,-11,17
7,-7,-15,5,29,21,-56,8,21,45
9,-14,-37,1,18,-21,-65,25,32,35
0,-3,-56,1,1,-87,-108,30,14,36
28,4,-51,-9,-2,-78,-112,45,20,0
26,24,-15,4,7,-32,-61,48,18,-24
3,28,23,17,14,-7,-38,34,40,4
-4,18,44,26,32,28,-40,15,16,-16
-2,3,58,31,45,71,-11,28,0,-45
0,-1,67,46,52,98,15,33,-3,-27
-31,-9,65,58,76,91,29,-3,-45,0
-22,-18,63,24,73,52,9,-36,-75,-5
24,-24,63,15,45,43,-3,-52,-85,4
37,-21,53,30,56,66,20,-34,-79,13
-9,-10,53,35,82,65,21,-18,-62,11
-29,-24,44,26,77,46,8,-35,-28,34
-20,-14,30,25,72,56,21,-36,8,27
16,22,-4,39,83,47,28,-20,54,15
53,58,2,43,77,29,18,-4,47,8
45,50,-16,20,66,14,-17,21,5,-15
4,33,-54,5,51,-24,-61,54,-5,-22
-3,18,-57,-16,45,-12,-60,42,-16,-5
-1,-3,-64,-37,25,-7,-66,6,-7,10
-12,-20,-45,-43,16,-43,-73,-26,-36,1
-33,-39,-15,-34,25,-45,-85,-59,-58,-24
-4,-33,-7,-6,37,-34,-68,-51,-21,-24
22,0,28,22,61,-11,8,-7,9,14
39,20,54,20,58,23,75,22,58,35
26,12,64,19,71,65,58,21,108,31
-26,-9,34,8,92,97,59,10,130,12
-38,-28,14,0,97,100,88,7,80,3
-2,-17,8,15,100,88,56,-7,-18,13
8,21,6,46,97,55,48,-17,-84,10
-2,25,-3,49,74,23,23,-20,-104,7
-8,13,-22,17,59,10,-10,-4,-95,3
1,3,-54,-18,38,-12,-5,7,-54,3
14,0,-63,-26,20,-13,8,40,5,12
25,-6,-65,-13,-4,-31,1,45,48,8
12,-8,-61,-23,-6,-35,5,30,79,9
8,-3,-42,-17,-4,-31,2,15,83,0
-3,0,-24,11,4,-20,2,-5,32,-24
-42,-23,-23,1,5,-23,12,-7,-14,-25
-91,-45,-5,-12,-11,-35,14,54,-25,-41
-57,-35,-8,-17,-9,-12,32,78,-8,-39
-5,-11,-2,-9,-4,25,50,12,-2,-25
-6,-8,8,11,20,51,34,-54,-11,-31
3,7,27,39,52,78,39,-53,19,-9
1,30,48,39,58,85,73,-25,58,19
8,14,63,47,58,72,94,-3,56,47
13,19,59,63,55,56,82,21,43,33
22,23,33,45,33,6,52,23,29,13
45,16,-13,17,-1,-22,14,5,-14,1
49,32,-30,17,-32,-26,-2,-9,-19,-7
38,24,-47,4,-55,-36,-26,-8,-16,-12
22,18,-77,-24,-69,-57,-30,2,1,-20
2,-2,-68,-35,-81,-52,-20,1,17,-13
-9,9,-19,-26,-61,-37,0,-7,10,-9
-12,31,8,0,-44,-21,9,-24,4,-3
-23,24,30,11,-39,-8,1,-40,3,5
-25,-2,49,4,-30,34,-12,-33,0,4
-30,-20,47,13,-21,43,4,-12,16,13
-36,-32,39,1,-41,17,25,18,48,32
-23,-34,29,0,-60,23,68,22,37,17
-26,-33,23,25,-39,58,89,5,1,-11
-24,-39,29,43,-13,62,91,-7,-7,-26
-13,-20,25,47,-19,37,75,9,5,0
-2,-8,1,33,-15,-2,42,31,51,28
29,18,-13,16,-10,-39,-5,35,66,1
7,34,-15,0,-35,-75,-55,19,26,-18
-13,8,-53,-40,-80,-85,-79,16,45,31
5,-12,-91,-64,-107,-57,-21,33,53,59
22,0,-76,-48,-80,-16,-15,16,17,29
51,24,-26,-21,-56,-28,-59,-7,-14,10
47,16,-3,-14,-44,-36,-65,-19,-42,-8
12,8,12,-18,-33,-34,-25,-4,-43,-16
-1,7,28,-16,-35,-27,-7,9,-24,-24
-8,-5,27,-20,-16,0,4,-3,-15,-35
-9,0,28,-43,11,21,28,-18,-5,-27
-1,7,50,-15,30,57,48,-11,8,-1
5,24,59,22,30,51,49,-1,2,8
0,24,67,34,31,25,34,-19,-20,-1
2,18,62,31,21,16,29,-45,-35,-18
5,-3,24,12,9,10,17,-43,-29,5
-7,-14,-12,-6,-13,21,33,-16,-18,5
-24,-5,-41,-26,-36,15,13,0,5,-19
-7,5,-63,-26,-64,-16,-34,-1,37,-1
15,9,-57,-19,-76,-43,-54,0,65,26
15,20,-66,-30,-65,-27,-52,-9,57,27
12,12,-63,-30,-52,-26,-40,-21,36,25
0,-15,-63,-29,-67,-37,-27,-13,1,-5
-37,-36,-46,-31,-58,-30,-40,11,-1,-22
-62,-43,-27,-39,-39,-23,-39,31,23,-13
-25,-24,8,-21,-36,-20,14,63,29,2
26,-17,21,-18,-40,-19,26,59,22,16
9,-29,11,-36,-48,-17,-8,3,-22,-2
-19,-30,0,-50,-43,-7,-24,-11,1,8
-6,1,34,-20,-6,16,-17,16,44,43
21,15,57,-2,32,40,22,16,62,29
8,3,50,-2,49,46,41,-4,95,5
25,14,50,22,49,48,40,14,107,-6
42,45,31,30,51,41,26,33,38,-11
49,45,4,10,39,11,-15,15,-54,-22
