131,34,26,47,16,-40,4,-14,-17,61
45,20,4,75,-12,-45,0,-24,-22,29
-50,-33,-13,76,-25,-8,17,5,-21,-10
-105,-63,-5,-14,-40,3,40,9,-29,-33
-102,-27,22,-26,-72,-28,16,-20,-37,-45
-98,-11,0,-76,-48,-22,-2,-12,-34,-44
-100,-7,-33,-89,3,21,7,33,-22,-56
-65,-3,-51,-65,33,54,17,71,14,-40
29,-5,-54,-27,67,82,6,59,40,4
97,14,-26,22,38,50,-16,8,20,12
102,35,17,28,-36,-71,-13,-27,16,32
14,23,16,17,-53,-92,-12,-24,26,49
-97,1,2,17,-25,-27,-21,-7,21,20
-138,-27,-9,9,0,27,-18,-20,-1,-20
-127,-35,-7,1,20,36,-25,-6,-18,-38
-76,-15,4,18,8,2,-16,16,-12,-38
106,14,13,32,27,2,15,9,25,47
153,26,12,5,38,48,32,0,52,74
42,15,-1,-14,37,59,54,5,61,5
-14,1,5,-1,34,-17,30,-2,54,-20
1,8,31,24,23,-37,14,-11,13,1
5,19,17,30,27,-14,-2,-17,-20,18
-16,26,10,6,19,19,-22,-10,-31,5
-93,15,8,-9,-25,15,-31,-18,-44,-21
-123,6,1,-29,-76,-35,-47,-13,-21,-31
-7,19,-16,-52,-97,-41,-34,8,12,-4
106,18,-15,-48,-85,-9,-4,6,18,27
221,-1,-3,-7,-28,3,25,6,24,31
159,-8,-12,4,17,-1,29,-12,-22,14
-29,-24,-13,-11,14,-4,24,-9,-13,17
-68,-27,-1,-16,7,14,34,2,21,34
-59,-23,2,8,13,3,-4,-7,12,0
-132,-16,2,14,-10,-48,-36,-23,-15,-60
-152,-12,-3,-1,-40,-50,-17,-7,-12,-77
-70,-9,2,-6,-26,-11,11,13,29,-39
12,-5,2,12,22,10,12,11,51,14
39,1,20,40,56,43,42,21,51,50
25,-5,20,62,69,93,54,34,63,21
69,13,6,39,71,94,48,55,44,19
74,34,-7,-17,45,13,11,53,28,23
41,29,-25,-67,7,-20,-1,21,10,-3
-39,10,-52,-114,-74,-49,-19,-3,7,-15
-62,15,-34,-69,-93,-58,-12,-14,-11,0
56,11,3,-9,-81,-42,-26,-47,-53,23
47,7,31,-5,-44,-12,-35,-42,-57,6
13,13,34,17,5,0,-18,-28,-54,-20
109,5,26,30,25,5,-12,-43,-59,-27
83,-6,18,32,13,11,0,-21,-42,-20
-35,-14,11,30,15,29,32,0,-20,-22
-54,-19,7,15,21,39,35,-15,-20,-24
-30,-21,-5,12,15,26,21,-23,-9,-18
-17,-21,-5,17,24,11,1,-25,-9,-5
-4,-11,19,16,29,-18,-46,-10,16,17
-25,-11,18,9,18,-26,-61,3,23,12
-55,-8,1,-20,-23,-17,-10,40,23,16
-53,-7,4,-32,-38,-24,4,49,29,8
-16,4,2,-22,-14,4,-7,21,19,-10
22,10,-15,-2,18,10,-21,7,15,-8
54,1,-33,-15,-3,-15,-2,10,3,0
42,15,-26,-24,-36,-3,30,13,11,26
0,8,-6,-4,-14,25,34,0,23,47
-6,-10,3,-2,11,10,-6,-15,6,18
-38,-19,8,-5,12,-2,-30,2,4,-4
-39,-3,6,0,1,-22,-8,39,49,-23
-21,7,-1,-6,-4,-13,30,61,86,-19
-14,0,7,-1,2,2,41,36,87,13
15,20,20,7,0,23,32,24,63,40
61,11,18,3,7,16,19,-2,20,41
87,8,17,4,21,24,31,-12,8,22
139,26,21,12,30,33,44,-11,10,28
132,29,10,16,22,39,29,-20,0,40
-1,15,3,24,7,9,0,-15,0,23
-128,-18,-1,3,-22,-40,-24,-15,-4,-5
-172,-22,-6,2,-29,-35,-24,-15,-5,-49
-126,-8,0,6,-6,-9,-27,19,-12,-66
-57,-2,-22,1,-3,1,-35,8,-20,-44
-186,-9,-23,-2,-6,-8,-40,-33,-46,-97
-243,2,-11,11,5,6,-35,-36,-47,-122
-24,33,14,39,10,-2,-12,-49,-46,-59
136,50,27,35,3,-11,-9,-61,-41,-13
114,27,2,-7,-2,-16,0,-39,-13,49
127,9,-2,-20,-24,0,33,4,27,95
118,-2,9,-3,0,14,73,30,53,59
67,-10,14,16,30,4,30,3,22,0
-18,-38,1,16,11,6,-28,-17,-22,-4
-47,-32,6,7,0,13,-26,-13,-31,0
-8,-14,-4,4,18,17,-11,1,8,0
27,-16,-11,-12,0,-20,10,16,20,24
73,-5,-16,14,8,-32,36,19,33,68
50,14,-2,43,30,5,18,11,29,73
12,23,-4,15,28,31,14,26,37,61
-39,18,-9,-19,19,24,16,41,61,23
-63,2,-29,-83,-14,9,-2,42,86,-18
-75,-15,-43,-56,-59,-23,-23,19,83,-51
17,-16,-37,-37,-79,-66,-32,-21,20,-98
118,-1,-23,-82,-57,-71,-49,-50,-51,-35
62,11,-7,-61,-15,-51,-44,-19,-69,36
-66,-12,3,-31,0,3,-8,17,-77,-12
-112,-24,26,32,46,57,20,10,-101,-66
-73,-12,38,70,77,52,17,3,-123,-73
5,4,32,31,35,30,11,23,-105,-15
8,-5,16,14,20,21,16,29,-64,7
-50,-30,9,36,38,15,27,17,-44,-21
4,-8,10,34,31,22,5,-5,-36,5
139,11,-5,9,40,22,-3,-21,-5,70
146,10,-23,4,-3,-30,-20,-9,8,72
53,13,-17,2,-43,-59,-40,-10,-12,33
-4,13,-28,-20,-36,-42,-51,-10,-22,5
25,12,-28,-34,-24,-26,-49,-4,-21,0
8,-10,-19,-13,-12,-7,-22,4,0,-4
-38,-16,-14,6,0,7,-6,7,11,-13
-31,1,-14,9,-12,5,-12,-1,-4,7
-12,4,3,18,2,-7,-17,4,-5,20
-18,-13,13,25,10,-11,-21,9,-19,-4
-55,-20,23,28,10,-2,-19,-3,-31,-21
-66,-26,20,29,6,11,-4,-17,-17,-25
-64,-14,22,2,14,18,-4,-11,-18,-31
-68,-20,16,-28,24,21,-10,-15,-28,-37
-43,-18,13,-47,-1,-8,-22,-29,-31,-41
106,-8,5,-27,-3,-31,-22,-35,-36,-26
245,0,-1,-2,8,-24,-34,-20,-27,79
157,20,-8,1,13,-27,-16,7,0,126
14,14,-6,-17,-28,-17,34,40,21,62
-18,0,-13,-36,-60,10,38,40,21,-1
-14,0,-33,-23,-67,24,21,30,23,-25
-14,0,-14,-2,-61,9,0,33,26,-1
-40,-1,1,4,-17,-3,-16,20,6,-16
-90,-2,3,15,17,-25,-41,1,-12,-41
-123,0,-4,10,25,-24,-36,-10,-8,-27
-143,-8,0,6,17,4,-6,-9,-9,-37
-58,-16,8,6,30,29,10,5,14,-28
50,7,4,15,38,9,5,1,16,10
79,27,4,18,33,8,4,-22,-19,10
70,17,24,11,29,31,-9,-27,-29,0
23,-7,15,-3,-8,23,0,-10,-14,0
-33,-32,-7,-40,-38,-14,19,5,-6,31
-15,-21,-18,-29,-5,-23,1,1,-5,49
22,-9,-26,-35,26,1,0,1,1,13
41,-2,-18,-23,31,21,14,6,23,2
33,-3,-22,-30,18,25,20,18,15,1
-4,-1,-21,32,-24,13,0,40,15,18
-30,9,-5,99,-43,-10,-6,56,11,11
-38,16,9,47,-34,-15,-5,52,14,0
-47,-10,27,4,-40,-27,-21,15,-10,-20
8,-25,22,-20,-42,-31,-37,-20,-28,-8
66,6,16,-19,-6,-12,-19,-19,-4,10
65,25,12,-6,14,12,0,-15,29,33
26,34,20,-2,12,15,-8,-28,35,30
-25,20,14,3,15,3,-21,-48,8,-27
6,-13,0,9,17,6,-8,-31,-22,-51
52,-14,-15,10,22,28,1,-12,-45,-35
-52,-10,0,4,27,28,2,0,-46,-26
-160,-11,4,13,23,20,0,-8,-42,-7
-162,6,11,35,6,13,-5,-14,-50,-14
-49,11,14,25,2,-8,-7,-26,-64,-27
36,6,-9,4,-3,-15,-27,-19,-53,-15
54,-8,-15,-16,-10,-20,-26,-7,-7,7
89,-2,-10,-15,-18,-25,-20,-1,2,41
98,11,14,-10,-23,-36,-18,-20,-5,35
30,0,21,-8,-23,-9,8,-17,3,-5
51,-2,4,-12,2,4,9,-3,5,6
178,16,-2,-15,-1,-10,1,-13,-4,42
166,7,-1,-24,-25,-22,-10,7,36,47
-20,-16,6,0,14,8,16,34,55,-13
-129,-34,10,22,42,41,52,27,30,-81
-105,-33,-8,3,19,27,41,10,13,-69
-46,-20,-16,-8,-4,13,18,-1,0,-39
-153,-14,-1,-10,16,21,5,-17,-22,-55
-320,-32,-25,-16,0,19,1,-52,-44,-78
-246,-42,-36,-13,-9,10,-12,-46,-27,-86
-10,-15,-21,-6,2,35,-3,-3,-3,-55
160,20,-10,0,-4,12,4,29,37,46
155,29,4,19,14,-28,-14,29,65,108
66,14,19,0,17,-49,-38,35,42,94
12,5,5,-39,-17,-26,-10,58,35,64
20,13,6,-29,-19,16,35,41,26,51
64,18,9,-2,-7,20,5,-2,8,30
103,24,6,-3,-15,-15,-29,-10,-21,-11
124,21,13,-12,-26,-20,-24,12,-29,4
136,23,-1,-8,-24,-4,1,13,-16,53
100,13,-7,13,19,35,22,-16,-16,36
-4,12,11,36,34,34,0,-36,-7,0
-44,14,18,25,15,-9,0,-19,5,-32
-50,-11,6,6,-1,1,16,15,43,-35
-68,-11,8,20,26,44,39,16,50,-13
-33,20,34,25,45,26,12,-20,2,-17
-60,13,26,18,24,-45,-34,-32,-36,-57
-189,-30,-9,6,0,-72,-59,-17,-44,-81
-174,-42,-38,-12,-24,-50,-32,-1,-20,-74
-41,-24,-54,-14,-37,-4,20,-2,-27,-25
90,23,-42,-33,-50,-15,11,-4,-18,48
253,43,-38,-44,-46,-34,-21,-5,-4,96
172,25,-11,-19,-11,-13,-23,10,4,47
73,16,22,10,15,0,-14,2,6,-11
25,0,16,17,18,-13,-32,-20,-5,-5
-5,3,1,3,0,-6,0,-26,3,11
-46,-1,3,6,8,11,17,0,23,15
-37,-8,5,11,10,55,21,0,23,15
-31,-6,6,-3,22,53,35,-10,23,-7
-27,-5,-3,-5,14,7,31,10,39,10
8,-1,-17,-15,-4,2,44,36,32,31
28,3,3,-5,11,39,75,38,36,7
14,-2,29,32,48,63,77,23,28,-10
10,-13,19,30,16,10,36,8,8,9
4,-9,-11,-2,-21,-15,0,11,6,24
-47,-11,-17,0,-18,-6,-39,-12,-8,-1
-70,-7,0,-4,-11,-10,-57,5,2,-24
-62,-6,2,-4,-10,-30,-83,0,2,-25
-47,-2,-5,-7,-2,-36,-58,-25,-3,-1
-16,-2,-18,-19,-6,-28,-4,-10,21,29
18,-5,-16,-38,-13,14,33,20,70,0
49,34,3,-19,0,20,23,21,58,-57
9,64,7,5,12,-7,-4,-5,20,-43
-49,7,-7,3,-4,-1,14,-3,9,9
-44,-52,-11,17,22,32,75,45,21,49
-32,-24,7,17,40,44,61,29,13,34
-136,1,24,-12,5,-2,-20,-55,-66,-46
-104,-16,18,-18,-20,-32,-48,-67,-96,-75
138,-14,13,-3,-2,-25,6,-35,-50,10
299,6,-5,26,25,-15,49,4,5,88
118,-11,-3,44,100,-17,42,23,-4,53
-93,-26,-6,26,52,-5,19,15,-17,-39
-119,9,-11,0,-13,0,0,-11,-16,-50
5,51,-17,-11,-16,-11,-12,-7,18,21
35,32,-41,-31,-15,-12,10,26,65,68
-48,-18,-25,-14,-19,-5,50,53,95,64
-59,-21,-8,4,7,0,22,35,51,38
5,5,0,17,4,10,0,1,-1,1
52,17,12,12,4,6,-6,-19,-14,-8
23,4,20,9,-1,24,-6,3,0,-10
-46,-10,24,-17,-6,25,-7,6,8,-32
-56,-16,7,-9,2,12,-6,-7,-8,-58
58,-10,2,1,-7,10,-8,-18,-21,-9
203,5,-3,-9,-2,-9,-31,-36,-19,70
89,3,-6,0,1,-1,-19,-22,-4,53
-56,5,8,22,25,39,12,1,6,10
-65,9,23,33,54,44,37,15,21,2
-55,24,16,32,58,20,22,14,21,5
-73,24,14,11,14,-12,18,8,0,-18
-142,-1,-4,-2,-21,-33,8,2,-5,-63
-74,-4,-26,-20,-35,-13,0,3,-10,-81
34,-11,-32,-42,-40,-20,-17,3,2,-40
6,-27,-23,-42,-21,28,-42,-6,7,-20
18,-8,0,-15,-3,20,-28,-9,0,-18
87,27,12,-8,-11,-35,-9,0,3,23
78,30,-4,-4,-7,-45,0,4,1,18
-31,-2,-17,-10,-3,-25,-13,0,-7,37
-83,-14,-19,-4,-2,-16,-6,12,11,76
-66,-9,6,27,9,4,24,48,38,26
-32,-19,8,44,28,34,51,60,33,-30
-29,-11,8,42,40,26,66,41,36,-35
42,20,17,30,50,12,54,24,62,22
217,75,30,39,33,-4,35,-3,72,109
329,101,35,44,11,-29,19,-32,45,136
108,66,28,6,-4,-25,18,8,32,68
-108,-9,7,-19,-11,-2,43,41,17,-59
79,-9,-15,-63,-51,-25,-4,-16,-34,-105
157,-37,-43,-70,-103,-92,-65,-97,-93,-130
-248,-93,-51,-17,-92,-69,-72,-110,-114,-189
-505,-66,-10,-8,3,48,-37,-64,-72,-203
-320,-8,23,14,67,66,-4,-2,-7,-124
-27,24,27,16,70,10,28,30,44,8
110,27,44,17,22,-2,39,26,86,112
71,25,58,37,-3,21,45,3,68,113
-1,14,50,60,16,22,15,-20,22,39
12,0,12,26,-2,-4,-28,2,0,30
61,-14,-19,3,-35,-10,-13,13,-6,49
98,-17,-51,-28,-44,-6,18,-15,-9,43
58,-27,-63,-56,-31,9,64,-15,-13,9
33,-30,-55,-106,-31,35,90,13,3,31
74,1,-4,-115,-4,48,74,25,36,54
92,42,46,15,38,35,26,23,46,38
60,52,55,70,28,7,0,14,36,-5
-26,24,18,49,-31,-18,2,5,37,-14
-151,-13,-20,-6,-49,-24,0,20,41,-22
-237,-28,-18,-13,-32,-14,-18,17,24,-32
-218,-14,-9,16,-1,0,-26,13,37,-8
56,33,18,24,3,-2,-16,17,45,85
368,59,0,-4,-39,-34,3,3,24,125
370,38,-13,-5,-75,-28,37,-2,-3,85
193,-10,14,34,-112,25,37,3,-36,10
-45,-37,30,33,-17,3,21,-17,-34,-82
-265,-40,9,-21,28,-55,-25,-39,-44,-135
-366,-25,-5,-58,-52,-56,-47,-31,-57,-148
-299,-19,-3,-39,25,-18,-8,0,-38,-188
-27,-14,-7,-8,32,11,5,22,7,-111
202,-11,6,-6,28,49,35,19,44,12
76,-2,6,14,78,75,34,10,15,41
46,13,-2,1,30,39,11,12,37,111
63,4,0,9,19,68,23,9,54,138
89,-11,-11,22,24,77,1,-6,21,91
76,-16,-6,22,29,-16,-53,-23,-11,31
59,17,0,27,53,-101,-44,-4,-4,-16
123,64,8,14,8,-105,-25,8,-1,2
36,50,19,12,25,-34,-37,3,-4,23
-56,14,21,19,30,-7,-53,-4,-17,9
-8,13,29,-3,-27,-6,-24,-1,-13,14
-18,12,28,-23,-69,-36,5,-14,-21,-3
-84,-19,-9,-21,-85,-20,32,-23,-20,-44
-30,-26,-26,-23,-88,5,62,-19,-13,-35
-41,-20,-10,-1,-33,16,38,-17,-20,-10
-12,-4,15,34,46,28,9,6,-4,37
78,27,25,49,88,14,25,11,1,51
110,34,26,29,95,-1,15,0,-23,-6
91,9,8,-1,86,49,-10,0,-37,-17
-33,-20,-4,-61,41,47,-35,6,-21,-4
-183,-33,-25,-42,-7,-9,-35,12,-8,1
-95,-31,-42,-23,-19,-34,-32,12,-15,-4
63,-14,-20,-23,-33,-35,-21,-10,-11,8
21,8,-13,-15,-39,-19,-27,-11,-11,-43
-72,-3,-14,-22,-18,-10,-26,-8,-1,-85
-116,-18,-16,-37,-7,0,-26,-22,-12,-66
-170,-34,-16,0,0,-11,-23,-21,-36,-28
-65,-19,-12,21,0,-13,3,-4,-20,14
60,3,4,38,19,-2,11,-12,-30,30
38,5,-1,42,16,21,-1,-26,-39,-15
38,-2,-3,27,1,29,-17,-10,-12,-28
138,-9,-2,-5,4,20,18,6,34,14
130,-1,5,-23,16,38,59,8,36,61
11,9,8,-43,15,33,51,0,3,25
-35,-3,-13,-27,-30,-19,-2,-1,-18,-1
-33,5,-25,63,-31,-17,3,35,-11,33
-34,14,29,98,23,60,-35,40,-14,38
-35,19,61,117,36,60,-89,11,-23,9
39,33,52,54,-46,-55,-72,4,-23,17
178,33,26,-49,-107,-88,-39,13,-21,30
174,15,-7,-99,-42,-104,-77,-19,-61,-46
-60,-40,-32,-68,-84,-94,-130,-65,-101,-116
-187,-96,-55,-41,-70,-38,-78,-57,-88,-95
-216,-76,-35,-60,41,59,10,-15,-27,-36
-208,-33,-6,-44,45,108,82,31,16,-16
-186,-34,-1,-39,60,80,95,62,19,-44
134,12,-8,-64,5,10,32,45,2,-3
250,48,6,-1,25,-20,-8,15,4,50
44,26,20,41,56,-15,14,15,2,65
-76,13,8,32,4,-14,55,22,3,55
-150,16,13,15,9,-10,62,35,32,38
-93,9,8,25,14,45,17,18,22,-13
143,18,5,33,28,109,-41,-4,-20,-21
328,-4,-8,23,44,56,-89,-12,-19,21
204,-33,-21,10,-5,-56,-66,-8,-1,-28
167,-21,-16,-2,-33,-101,-35,-48,-41,-44
77,17,-3,-27,-49,-80,-2,-61,-63,25
-106,60,-2,-65,-48,-53,-4,-8,-30,84
-120,105,-16,-56,-29,-40,-13,38,-18,45
38,68,-38,-41,-40,-35,-27,30,-10,42
113,-58,-60,-14,18,39,39,42,49,78
66,-195,-64,46,70,99,111,45,89,66
-99,-62,52,77,37,40,64,-28,14,-36
-153,47,125,42,-28,-67,-22,-103,-42,-54
-57,11,44,3,-22,-48,-61,-78,-15,0
-28,8,-8,11,41,60,-10,-5,8,3
-55,22,-31,33,64,70,20,4,6,-46
-101,-2,-35,15,70,2,71,18,24,-99
27,-14,-22,-4,35,-30,85,23,44,-75
38,-5,-17,-17,-25,-22,16,14,16,-48
-35,20,-10,-24,-33,-3,-38,17,26,1
-104,55,15,-13,-19,5,-47,10,26,33
-252,28,60,23,2,6,-33,-17,-8,-29
-207,9,59,58,25,-29,-40,-45,-50,-93
19,7,40,34,36,-63,-25,-31,-45,-45
297,-5,13,-20,-9,-20,35,7,-25,78
341,-32,-12,-97,-16,53,86,18,-29,120
40,-65,-37,-103,1,66,61,3,-37,36
-79,-56,-30,-41,-1,47,25,24,-5,-8
-109,-32,-29,-7,-14,36,13,34,14,-14
-127,-31,-28,10,2,24,15,9,-21,-83
-196,-61,-27,16,2,14,18,-34,-81,-135
-87,-24,-17,1,-11,-19,11,-58,-98,-98
148,49,-1,0,-12,-65,-26,-34,-41,37
104,63,6,11,-22,-28,-57,20,8,74
106,70,10,-5,-43,-63,-66,55,42,104
94,48,15,16,-12,-80,-59,21,45,100
-44,14,-5,-6,-15,-53,-33,19,53,44
-183,-23,-33,-35,-14,-28,30,64,101,-4
-35,-18,-21,-51,10,22,32,41,108,-40
0,-20,-18,-109,3,45,27,30,99,-81
-78,-10,-9,-134,-2,35,26,28,67,-3
174,37,0,-43,35,1,-15,-4,23,98
276,39,5,32,68,-40,-19,-20,-44,51
264,13,16,58,105,-33,-3,-21,-98,45
86,-4,40,82,105,-11,37,-22,-119,77
-115,4,51,68,53,12,36,-29,-102,60
-106,16,33,42,40,6,-2,-27,-57,25
-73,-1,27,60,81,49,-21,-35,-56,-31
-26,-39,6,47,61,92,-33,-33,-60,-31
203,-30,-34,-45,-29,12,-31,-20,-14,36
187,1,-28,-63,-49,-50,-5,-32,-20,11
-234,-27,-33,-31,-30,-38,23,-68,-68,-142
-328,-47,-34,-42,-14,-8,16,-45,-52,-209
-139,-14,-15,-30,-59,2,-9,6,-7,-94
-1,44,17,-3,-22,-6,-36,13,8,-11
109,111,5,-14,75,-54,-29,7,19,24
115,153,-62,-6,9,-21,27,46,62,52
128,62,-73,0,29,45,75,78,108,119
115,-71,104,27,-38,0,26,6,46,116
-90,-150,138,31,-49,-3,-40,-47,-22,-15
-103,-75,39,24,56,34,-44,-35,-21,-67
17,-51,-33,18,20,1,-1,-14,-17,-18
-116,-50,-60,-11,8,-49,46,0,8,0
-127,0,-33,-29,-1,-27,39,18,37,-32
-10,22,9,-6,-14,39,35,18,19,-81
70,-8,-5,14,-5,50,3,20,0,-47
165,-25,-5,7,-11,20,1,25,5,13
30,-4,-17,-25,-59,-17,9,29,19,0
-108,27,-32,-52,-117,-48,54,22,26,1
-14,38,-21,-41,-117,-36,58,3,28,20
-30,13,-11,-15,-66,13,2,-12,-17,-52
-87,-37,-30,1,-36,18,-48,-14,-39,-78
54,-42,-41,-6,-41,5,-62,-5,-8,48
69,-15,-6,8,-18,13,-57,2,21,105
-73,19,20,22,-9,-3,-30,7,37,46
-158,33,31,28,-11,-22,18,0,28,2
-92,27,50,52,-72,-1,12,3,9,-10
1,6,27,40,-97,24,45,14,22,11
4,-25,8,39,28,42,63,42,54,37
-32,-34,-4,55,-24,49,52,52,54,34
-28,-11,15,37,-30,31,43,23,23,-7
-23,6,37,17,70,74,38,-7,-18,-51
-60,8,44,0,83,120,22,-17,-35,-40
2,17,30,2,71,39,7,-15,-33,-35
214,45,24,0,-3,-81,-57,-8,-11,25
282,57,-8,-5,-64,-110,-61,-9,-2,42
82,30,-38,1,-46,-75,-2,22,24,7
2,-5,-12,0,-18,-36,24,37,51,7
1,-4,6,-2,9,1,-18,26,46,23
98,18,18,24,-7,9,-51,-12,19,71
283,114,30,69,-20,9,-26,-39,6,110
306,188,25,38,-3,104,45,-30,8,74
-43,6,-49,-18,-2,169,96,37,51,18
-424,-266,-114,-43,0,119,109,109,119,26
-579,-130,27,7,-19,18,9,22,34,-76
-248,45,123,16,-124,-139,-160,-164,-142,-161
227,42,42,-71,-122,-153,-166,-173,-160,-49
174,30,-13,-85,-36,-40,-42,-84,-80,-42
15,-63,-44,-36,56,-47,38,1,-11,-70
-44,-73,-20,34,38,-84,33,46,25,-40
191,62,42,77,-11,-32,-37,41,18,38
368,80,0,75,21,58,-42,28,30,124
233,-22,-57,52,39,71,18,55,68,116
110,7,-47,29,27,62,45,58,60,105
-94,72,46,16,25,73,34,38,33,78
-601,-36,36,-6,21,13,-3,16,0,-113
-786,-101,-17,0,27,-42,-22,2,-20,-258
-522,-66,-17,13,32,3,4,-22,-16,-223
-145,-31,-6,17,30,-1,59,-21,-8,-138
243,20,3,15,55,-11,83,-32,-4,-16
416,31,-1,-7,46,72,52,-59,-27,82
412,23,7,-5,58,75,27,-44,6,196
246,41,55,14,85,26,-14,-3,46,141
215,57,46,11,39,-34,-74,1,30,62
228,57,26,11,9,-54,-14,-7,5,28
313,45,28,15,12,44,72,-4,13,10
254,8,-4,-18,-9,-11,85,27,49,17
-16,-14,-36,-21,31,-52,80,76,64,28
-185,-33,-48,0,83,37,46,53,55,69
-356,-37,-41,11,16,-16,-81,17,88,82
-455,-28,-28,-14,-84,-148,-169,-19,64,28
-414,-31,-38,-29,-97,-98,-118,-31,30,25
-308,-19,0,-7,-46,22,18,14,33,-26
-109,21,33,-14,-8,89,64,27,19,-115
52,28,33,-12,33,144,29,-3,-25,-202
172,16,41,15,60,81,4,-25,-54,-234
385,3,13,16,54,44,-8,-31,-72,-152
567,41,7,-4,-12,2,-27,-29,-37,79
519,57,24,-6,-53,-47,-65,-40,-18,253
15,21,24,-2,13,-33,-60,-49,-5,220
-165,-11,-4,-7,0,-35,-26,-34,14,119
-50,-15,-5,-20,-14,-60,5,9,58,119
-68,-1,0,-1,24,-9,38,39,61,68
-440,-56,-22,11,15,45,54,32,-8,-172
-758,-123,-65,2,36,48,41,41,-20,-328
-447,-66,-36,-10,6,54,24,67,28,-175
260,50,16,-9,-36,65,11,48,64,39
669,103,32,11,7,44,8,9,64,147
485,97,25,6,0,-34,-21,-19,35,165
85,54,7,0,-49,-127,-109,-53,-38,25
-210,0,6,9,-61,-113,-128,-44,-68,-124
-223,-50,-5,12,-25,2,-58,27,-19,-99
-124,-51,-49,6,-2,40,-13,38,7,-47
-25,-43,-57,-21,-46,0,-25,-4,-24,-53
87,-52,-42,-34,-72,-19,-5,1,-53,2
64,-28,9,1,-13,16,32,17,-31,39
-100,9,59,31,19,41,57,14,-7,-22
-182,29,90,25,17,33,49,13,31,-28
-233,52,76,36,31,37,78,8,72,-44
-232,50,46,15,36,29,88,29,107,-42
-82,37,14,1,4,35,34,20,73,-14
345,57,-16,-9,-51,-7,-42,-14,-1,58
778,27,-45,-30,-50,-34,-80,-44,-55,141
795,7,-63,-48,-66,-70,-108,-81,-96,257
310,-19,-68,-47,-107,-79,-118,-77,-86,230
-285,-37,-36,5,-40,-34,-59,-15,-65,27
-389,-27,6,18,39,26,8,23,-54,-106
-373,-28,14,7,1,43,46,14,-50,-196
-372,-33,13,6,-5,31,15,-27,-61,-274
-288,-44,11,8,4,18,-24,-30,-77,-279
-161,-45,-11,7,-16,5,-5,-20,-53,-158
-16,-20,-14,-12,11,-1,29,-11,-11,-12
102,0,-11,-82,54,1,62,18,42,110
167,5,-2,-27,51,23,60,40,63,177
177,-5,-4,11,18,27,25,40,49,191
122,-13,6,10,-4,16,9,36,51,152
49,-9,11,12,19,10,8,32,40,75
14,23,5,-18,-1,-2,-9,13,0,-8
-9,40,7,-87,-53,-18,-29,7,-24,-82
-97,9,-8,-59,-49,-30,-9,12,-34,-157
-158,-12,-12,-15,-49,-46,20,13,-22,-170
-133,-29,2,0,-35,-31,21,29,10,-57
-104,-40,-3,16,14,16,34,42,42,25
-43,-25,5,19,26,39,59,28,60,50
-18,0,20,40,16,26,56,20,45,73
56,24,17,48,10,13,33,15,38,161
171,31,19,41,17,23,27,-10,5,197
220,22,12,43,82,119,33,-10,-36,140
383,41,15,26,147,230,27,-7,-39,106
437,55,19,-4,33,55,-39,-32,-68,17
150,18,-4,-65,-170,-203,-68,-47,-62,-69
-293,-32,-27,-68,-171,-256,0,-18,-36,-123
-530,-65,-15,-24,-87,-138,77,-22,-43,-186
-515,-41,7,13,-14,-39,32,-12,-18,-166
-284,-23,18,20,53,-48,-10,-4,-8,-128
-4,12,0,9,31,-57,-35,3,-2,-71
368,156,-51,-12,-5,-9,-45,20,1,71
483,144,-127,-21,11,40,-12,39,48,243
268,-19,-22,59,73,102,54,58,92,201
128,-131,190,93,54,54,-11,-20,-10,87
-104,-141,144,-16,-62,-70,-97,-99,-99,40
-268,-52,1,-72,-64,-91,-79,-62,-35,57
-246,-22,-48,-35,7,-36,-7,28,68,40
-177,-13,-39,32,40,17,34,53,71,-61
0,-21,-30,20,15,26,8,18,-5,-148
146,-12,-15,17,0,37,0,14,-22,-84
25,34,30,81,24,40,0,9,-39,-71
-124,37,31,78,88,34,-11,-23,-73,-146
-144,10,-5,13,65,22,-19,-47,-111,-145
73,24,-10,-25,13,10,-21,-36,-95,-35
333,21,-8,-68,-51,-25,-46,-46,-50,149
162,4,-63,-55,-112,-82,-52,-33,-6,190
-189,-23,-77,-61,-79,-36,-36,-16,-23,15
-244,-26,-48,-57,-5,40,3,9,-20,-48
-235,-30,-29,-25,17,88,19,33,14,-90
-187,-21,-30,-16,-12,76,13,54,35,-83
-27,-14,-17,2,-32,2,-6,54,39,0
123,-11,3,38,1,6,-42,19,16,66
194,51,34,64,24,31,-45,-7,1,108
350,100,58,30,7,-63,-47,-35,-18,111
412,77,39,4,-21,-97,-61,-54,-24,132
55,16,10,-8,-19,-53,-38,-49,-17,89
-53,-1,3,-2,-5,-33,16,-31,1,27
131,-10,-1,-16,4,-12,32,-34,7,81
-20,-26,-6,-22,-12,32,34,-2,5,91
-240,-50,-6,-32,-38,17,16,17,-8,-26
-357,-69,-23,-9,-33,-3,-9,13,-32,-165
-403,-72,-28,31,13,0,-20,29,-38,-237
-128,-34,-17,25,26,10,2,29,11,-99
-5,1,-40,-19,-13,19,3,48,58,-24
-227,-32,-42,-22,-27,25,-11,42,22,-144
-183,-51,-25,-3,-35,-25,-12,34,0,-104
158,-3,-6,-13,-37,-67,12,49,25,83
290,49,-5,-34,-32,-45,47,65,93,218
335,69,18,-2,11,20,76,58,82,198
316,52,33,22,53,108,41,41,31,110
134,12,19,43,97,161,2,15,25,52
45,-28,14,58,107,114,-21,0,35,14
-101,-5,49,65,70,1,-29,-8,30,-55
-80,58,35,37,6,-92,-28,-50,-24,-55
-96,56,19,-2,-32,-71,-31,-116,-108,-45
27,-12,10,-11,-24,-6,-35,-119,-128,-32
70,-35,-16,-19,-21,-6,-25,-32,-28,76
129,23,-4,-6,-19,-38,-15,13,18,149
127,55,9,-18,-5,-24,-24,-20,-26,8
112,52,7,-1,7,2,-25,-20,-24,-80
46,37,-3,27,6,30,-11,11,16,-38
-70,0,-4,12,0,3,0,-4,5,-115
-90,-34,-19,-5,8,-23,-14,-32,-44,-225
-36,-54,-29,-25,5,-33,-27,-67,-109,-228
-325,-46,-30,-27,-16,-39,-55,-112,-179,-335
-454,-13,5,-13,-11,-36,-51,-108,-149,-278
-83,-1,1,-15,-3,-27,-22,-46,-57,27
189,-4,-37,-46,-27,-12,5,12,46,179
21,-38,-34,-38,-21,10,43,80,149,128
-80,-35,0,-10,27,16,69,102,204,79
-165,-14,27,21,58,23,77,71,162,30
-158,-3,19,37,72,3,47,35,87,41
35,56,47,47,80,-1,9,-4,28,54
117,65,58,34,45,21,41,7,15,54
100,54,13,14,31,31,65,35,29,137
331,11,-13,18,14,21,78,43,47,229
282,-10,-5,22,13,40,84,49,28,18
223,4,-4,3,6,29,45,5,-25,-240
402,24,-10,-9,-28,-30,-7,-21,-3,-48
292,37,-6,-18,-44,-59,-17,-17,32,202
88,33,-15,-35,-37,-55,-14,-1,51,169
-101,-1,-8,-10,26,11,-4,7,10,-8
-89,-32,13,-9,50,25,-44,-27,-33,-46
-177,-52,1,-22,-17,-13,-64,-12,3,2
-587,-61,-10,-10,-21,13,-14,9,-5,-199
-623,-71,-9,0,28,59,24,7,-47,-334
-142,-24,12,-7,21,49,30,38,-9,-185
126,16,26,4,5,10,34,46,18,-57
13,5,20,4,-15,-4,9,-8,-33,-98
57,-2,4,-47,-57,-38,-58,-75,-56,38
-37,-20,-25,-90,-103,-61,-83,-62,-24,164
-208,-35,-33,-35,-72,-12,-31,22,51,149
27,-6,5,35,9,38,24,73,89,191
121,24,35,59,35,51,11,57,67,126
84,10,17,66,65,122,-3,0,-2,-64
106,-7,-4,29,25,97,-42,-67,-98,-232
65,-6,-35,-57,-75,-84,-82,-81,-100,-195
-140,7,-41,-96,-146,-161,-86,-49,-44,-52
-71,23,-22,-44,-104,-111,-51,5,23,128
32,36,19,34,-1,2,16,34,75,175
21,27,26,61,56,54,32,18,60,74
11,-9,11,28,43,44,32,4,30,26
-5,-34,-11,6,2,23,38,47,49,57
-92,-52,-32,3,-5,16,47,68,60,43
-222,-34,-20,38,20,21,65,76,54,27
-186,-17,1,60,47,38,83,65,20,-1
-74,7,26,74,80,47,79,34,-1,-13
330,115,56,56,62,-1,-16,-44,-40,33
894,120,21,-40,-50,-85,-98,-98,-19,187
400,5,-20,-83,-68,-62,-39,-7,82,162
-107,-30,-40,-75,-32,-4,20,76,149,47
-175,23,12,-34,-43,33,24,56,116,-11
-243,47,80,29,12,57,17,21,14,-46
-178,37,80,64,86,81,4,4,-48,-83
27,14,35,48,83,42,-13,-18,-99,-81
96,-34,-18,4,8,-36,-46,-46,-176,-77
114,-64,-48,-50,-85,-120,-82,-74,-225,-112
21,-60,-21,-24,-79,-96,-58,-61,-176,-48
-139,-22,10,47,14,-23,-13,-50,-94,2
-165,-5,-16,67,49,5,-22,-53,-54,4
-69,2,-23,47,22,49,-3,-36,3,28
24,39,13,42,-9,52,31,-10,51,67
18,45,45,57,38,38,48,-13,45,26
1,6,40,8,59,36,67,4,56,-12
-14,-14,11,-57,68,84,68,11,58,-10
-12,2,-13,-27,29,59,14,-7,26,-12
18,-1,-17,-21,-97,-60,-14,12,25,8
79,-14,-21,-11,-145,-97,11,33,52,53
162,29,-17,14,-159,-78,20,24,48,83
159,89,4,-75,-125,-58,22,23,48,85
30,43,8,-91,-10,33,10,-11,7,13
-120,-41,-19,-11,117,204,-17,-1,-17,-47
-161,-74,-30,30,116,50,-12,65,36,-32
-171,-69,-18,25,37,-214,-25,69,69,-64
-112,-32,23,42,-50,-216,-34,34,64,-79
37,4,65,58,-34,-41,0,9,43,-17
120,31,77,70,50,92,58,-11,31,61
156,113,56,43,72,88,54,-13,13,95
123,160,11,-2,46,32,13,-46,-20,48
2,-34,-67,-11,32,9,7,-32,-16,5
-44,-183,-73,18,40,31,33,27,32,13
-244,-9,55,55,44,22,1,-10,-36,-131
-427,34,55,-2,-35,-46,-68,-84,-137,-306
-306,-38,-41,-36,-89,-69,-74,-61,-88,-199
-103,-52,-49,-17,-51,-26,-28,20,30,23
-84,-29,-30,-21,-5,16,20,84,122,147
-129,5,0,10,55,48,51,103,157,176
14,23,19,54,98,57,73,66,128,196
312,46,20,45,79,46,58,23,76,207
562,53,14,10,37,7,17,-9,35,226
846,9,-7,-22,-18,-42,-22,-60,-33,159
517,-67,-53,-45,-77,-78,-51,-83,-125,-102
-132,-61,-52,-29,-45,-59,-32,-41,-137,-254
-335,-28,-19,1,23,10,0,-20,-99,-238
-481,-2,1,31,51,33,-4,-27,-81,-293
-391,35,15,25,37,-5,-23,-46,-60,-274
-130,11,-4,-7,10,-19,-14,-13,-8,-80
13,-12,-10,-10,24,-1,-3,29,35,39
50,-6,5,2,39,28,-2,59,8,19
49,28,13,18,33,33,-9,51,-30,-23
29,9,-2,-7,-34,2,-5,26,-1,45
32,10,-16,-34,-101,-17,-8,18,58,100
-19,-3,-15,-28,-93,-10,-2,9,79,92
-58,-25,-19,-26,-56,-12,2,11,75,111
-37,0,22,24,62,16,0,-6,10,112
-86,15,54,58,132,50,-8,-53,-65,37
-38,35,44,36,106,66,2,-48,-80,15
135,44,23,28,76,46,-4,-25,-69,42
231,25,15,16,14,1,-24,-18,-32,139
58,-37,2,29,27,5,5,28,25,283
-201,-102,-25,29,44,32,59,47,61,320
-207,-79,-26,1,27,28,54,68,78,231
-48,-13,-8,-11,12,28,33,55,31,97
233,88,34,-22,-28,-7,-11,-32,-89,-178
682,137,17,-91,-137,-133,-129,-187,-252,-372
685,65,-43,-152,-186,-168,-190,-227,-288,-270
112,-30,-71,-93,-76,-81,-142,-87,-159,-197
-224,-94,-58,-12,0,-21,-61,32,-16,-66
-620,-125,-38,25,22,0,-6,54,18,-117
-711,-91,-19,53,9,13,3,60,37,-186
-462,-34,4,46,16,42,2,60,59,-161
-76,6,8,22,32,46,2,46,70,-41
344,21,9,-5,-15,5,22,39,60,28
531,41,21,-19,-43,-35,15,7,0,54
166,39,23,-12,-23,-41,-28,-30,-45,63
-190,-4,21,5,15,-20,-53,-46,-69,-3
-228,-3,24,16,48,5,-45,-40,-71,-67
-10,2,12,15,45,3,-21,-23,-37,-28
129,-33,-30,-2,38,0,2,-6,-4,83
79,-54,-51,-1,43,13,16,19,21,198
53,-17,-22,47,37,15,19,42,68,273
21,30,27,118,17,0,23,45,75,128
13,13,7,17,-29,9,57,73,83,31
-41,4,-10,-79,-41,31,58,71,50,-121
-112,-9,-23,-141,-40,35,21,27,-31,-300
-190,-41,-38,-47,-22,-2,-18,-17,-79,-267
-137,-17,-27,119,-3,-44,-63,-36,-68,-113
46,18,-4,22,49,3,-41,20,-16,-12
34,-8,29,-30,131,42,15,39,38,65
-27,-6,23,-115,-14,109,77,27,64,195
-57,26,14,-152,-175,124,91,20,75,214
-10,25,-13,-63,-50,106,35,-53,28,174
53,4,-14,11,44,-21,-34,-89,-19,85
108,34,19,5,6,-212,-76,-62,-30,-26
-15,56,22,18,48,-223,-56,-8,12,-65
-80,12,26,68,149,-90,-19,20,31,-98
170,-16,19,59,57,0,23,38,45,-21
442,9,-6,-16,-92,17,23,35,41,87
152,5,4,-38,-120,-32,-64,-51,-72,5
-212,-18,-12,-37,-87,-34,-113,-87,-119,-87
-374,-34,-31,-5,-24,-7,-84,-55,-101,-117
-264,-20,-34,18,34,33,-25,-16,-69,-78
-17,15,-7,49,81,76,32,0,-19,7
67,16,2,68,58,71,46,21,-6,37
7,-33,-6,42,27,25,6,22,-6,11
-11,-54,-1,20,-7,-6,-20,9,-3,4
36,-34,23,2,-13,28,28,33,40,55
108,-8,15,-4,36,49,59,68,71,66
80,11,-20,-15,27,10,40,71,58,53
11,34,4,1,24,-26,11,2,20,14
-73,30,11,-29,-42,-62,-23,-36,-8,-43
-166,5,0,-32,-98,-28,-12,-39,2,-60
-153,-31,-31,-43,-111,23,29,4,60,0
-54,-35,-35,-56,-96,56,69,52,104,73
213,19,6,15,3,51,52,17,22,125
595,58,36,34,53,-3,17,-7,-17,206
479,54,16,-7,15,-22,0,13,-14,177
-9,44,11,-2,22,8,13,37,6,-16
-218,1,3,-5,36,14,3,20,3,-164
-365,-11,4,13,36,44,-29,3,1,-201
-401,-1,13,7,37,118,-25,-3,19,-105
-71,13,6,9,30,8,12,29,60,111
246,18,8,11,0,-107,20,33,75,288
319,38,33,12,9,-67,0,2,29,248
591,72,39,0,2,-30,-33,-66,-70,48
182,-35,-9,-31,-36,-60,-95,-124,-143,-218
-440,-100,-29,-19,-70,-76,-140,-124,-128,-238
-314,-94,-2,20,-17,-26,-45,-80,-63,-8
-234,-79,-20,43,56,57,76,16,21,44
-190,-34,-32,32,70,98,125,92,85,17
-146,-3,-16,4,29,67,99,96,98,-58
-132,40,5,-15,-20,9,42,54,60,-168
-19,109,52,18,-13,-34,-19,-5,-12,-289
176,99,50,21,2,-66,-51,-54,-51,-275
320,1,-6,-13,-17,-51,-10,-11,15,-47
248,-65,-48,-38,-27,1,40,51,112,218
-164,-15,-5,3,11,37,26,43,73,215
-173,21,38,24,19,39,8,21,34,130
166,31,39,16,13,7,33,27,86,206
322,66,59,36,29,9,53,16,81,139
394,114,60,21,1,3,18,-52,-4,75
39,-1,-2,-30,-39,-20,-10,-72,-63,-67
-531,-120,-49,-32,-20,-17,-9,-45,-78,-283
-657,-104,-13,-2,17,-19,-23,-43,-61,-275
-427,-22,35,11,-11,-52,-36,-36,-8,-141
-20,10,5,-15,-62,-82,-34,-3,33,-67
66,-34,-45,-28,-36,-17,0,38,58,-64
60,-29,-35,10,9,51,37,62,64,5
279,21,-7,4,4,39,2,37,43,128
241,44,9,-25,-12,-9,-26,1,8,94
-7,23,13,-13,-29,-2,-7,18,-6,15
116,4,0,-12,-26,29,-1,26,23,143
242,8,-19,-2,2,55,11,41,76,361
379,37,-15,-17,5,14,6,38,89,306
237,19,-15,-27,-13,-47,-2,25,50,97
-248,-27,6,13,26,-33,-8,3,-10,-171
-617,-65,7,62,48,-1,-27,-53,-107,-457
-835,-86,-6,85,54,31,-30,-52,-168,-627
-558,-66,9,67,63,56,1,-27,-133,-423
143,-13,-10,-11,25,19,23,-28,-94,67
582,38,-18,-62,-19,-23,19,-25,-55,343
564,66,9,-31,-20,-28,36,5,-17,254
396,42,14,26,-34,-59,29,17,18,177
73,1,-22,-17,-77,-40,4,36,42,148
60,-3,-28,-41,1,78,19,43,64,253
146,11,23,16,163,185,-22,-19,14,348
33,11,43,60,153,105,-73,-57,-39,219
-107,15,3,25,-22,-130,-66,2,18,65
-244,-7,-18,-52,-92,-209,-27,33,47,-193
-426,-26,5,-58,-79,-126,-33,19,-22,-499
-235,13,26,-23,-47,-42,-33,10,-95,-580
55,17,12,-23,-41,-8,-33,-8,-124,-331
180,-17,-31,-58,-46,27,-11,-27,-98,65
185,-32,-57,-81,-58,36,14,-34,-45,265
172,0,-52,-69,-43,25,11,-30,7,288
78,29,-11,46,36,49,19,-15,30,235
-59,6,23,127,79,63,34,-13,0,78
-92,-9,39,67,60,45,43,-31,-23,-43
58,-6,21,-13,34,30,42,-11,0,-7
74,-13,-12,-47,18,26,22,29,38,10
-30,4,-8,45,51,29,1,39,23,-52
-52,26,12,114,44,6,9,35,3,-38
-90,24,3,69,64,-16,20,29,7,-34
-182,-12,-17,41,28,-9,15,13,-17,-136
-150,-28,-28,-137,-213,-34,-25,-16,-41,-117
-83,-33,-22,-155,-293,-58,-50,-47,-30,-25
-46,-26,-7,-61,-74,7,-7,-38,-6,-12
12,0,9,-4,51,25,61,33,37,32
-26,5,12,52,84,49,55,62,44,51
9,-1,32,88,118,61,49,40,41,74
196,44,54,65,84,2,-9,-11,26,115
220,38,28,8,90,0,-69,-31,16,103
60,-21,0,-1,50,-45,-67,-35,-19,-2
122,-39,8,-6,-88,-130,-6,-10,-23,35
73,3,10,-11,-130,-59,23,33,51,156
110,70,5,-35,-121,-35,-5,-2,63,177
187,67,-13,-48,-100,-10,-21,-31,22,102
16,6,-27,-8,-54,35,10,-8,1,-59
-166,-30,-34,14,1,9,5,-11,-20,-245
-305,-33,-26,38,32,-8,-19,-8,-46,-386
-293,-48,-5,56,50,6,-12,7,-45,-302
-188,-50,29,43,34,6,-6,6,-11,-75
-79,-2,35,6,19,9,2,3,20,38
91,43,-10,-14,15,8,15,3,36,99
144,16,-44,-15,14,20,44,28,51,131
144,-8,-33,-5,25,46,62,54,78,109
110,-15,-16,-13,38,45,88,50,79,79
23,-19,-6,-8,7,17,70,26,62,40
-29,-15,4,0,-23,-3,29,1,30,27
-43,-6,30,26,-6,-11,16,-24,1,-3
-27,4,26,17,5,7,13,-20,22,-8
4,8,17,11,15,30,38,10,72,24
15,24,6,11,19,12,42,25,94,29
-3,39,-12,-8,-13,-29,56,58,98,12
17,41,-14,8,-22,-34,42,73,75,33
53,52,5,16,0,-20,19,46,42,42
25,55,9,-11,11,7,13,51,13,39
20,43,16,-34,8,19,-11,7,-62,-34
-31,-1,-5,-53,-16,-18,-40,-45,-101,-114
-99,-16,-17,-47,-12,-25,-40,-55,-91,-112
-27,10,6,-18,-2,-16,-32,-75,-75,-51
27,1,9,0,-20,10,-39,-110,-80,6
-157,-60,-25,-4,-9,82,-28,-99,-52,2
-295,-82,-37,-4,11,51,17,-27,13,-27
-150,-50,-15,11,15,22,48,31,54,51
2,10,20,41,17,7,55,53,90,182
180,70,47,55,11,-10,41,40,73,226
636,101,56,39,13,-22,-8,-6,27,213
656,64,14,21,11,-50,-63,-46,12,140
-293,-44,-46,1,-10,-27,-61,-13,-2,-164
-685,-87,-45,-7,-32,-16,-24,7,-27,-370
-544,-49,-8,11,-13,-2,-8,-9,-68,-460
-202,-15,-7,35,3,17,-16,-22,-86,-372
255,57,7,19,2,-5,-25,-34,-44,-66
615,76,6,-24,-32,-49,-45,-44,-38,173
579,10,-19,-31,-66,-43,-51,-4,11,324
-82,-6,0,-13,65,38,79,24,71,40
305,56,16,11,79,-1,18,-19,60,278
344,82,30,49,48,-58,-22,-36,48,316
247,42,23,5,9,-13,-4,-12,40,162
-150,-29,1,-21,27,42,22,50,44,-150
-463,-73,-18,-56,3,7,18,38,-13,-367
-496,-91,-38,-42,-68,-37,14,5,-55,-411
-347,-69,-44,11,-61,21,32,36,-27,-277
-14,-12,-30,-11,3,70,72,69,38,21
149,38,-20,-51,8,23,49,111,107,224
91,53,-10,-51,0,-3,-6,112,112,227
-7,45,1,-44,14,1,-24,23,54,96
1,-5,-13,-30,50,18,-12,-51,1,38
128,-4,0,33,86,45,52,-24,27,95
227,10,8,65,79,33,46,-9,39,153
163,-10,-9,26,38,7,10,-2,33,144
254,1,-7,-27,8,-8,26,-4,28,119
118,-12,-11,-49,-12,-2,47,13,38,88
-576,-61,7,13,4,60,65,46,20,-166
-697,-75,38,148,28,76,18,-18,-75,-432
-380,-36,36,166,9,19,-61,-92,-121,-382
-220,3,17,14,-31,-62,-77,-83,-92,-282
190,76,68,-33,-37,-100,-87,-85,-74,-66
693,117,68,-16,-27,-61,-96,-114,-101,124
782,69,3,-22,-5,-74,-88,-89,-106,249
339,27,-30,-26,-26,-99,-68,-25,-40,363
-59,14,-37,-5,-60,-61,-40,32,28,352
-226,-12,-28,20,-21,14,-13,41,31,215
-241,-29,-21,24,26,89,6,13,-1,31
-210,-17,-8,26,39,104,16,-11,-26,-141
-275,-20,1,25,7,43,4,-15,-50,-352
-263,-15,-6,9,-11,16,3,-22,-48,-474
-78,-14,-5,-21,-5,-7,22,-1,-14,-340
6,-42,-13,-18,18,-27,27,22,29,-82
68,-21,-2,-7,15,-59,25,39,63,115
124,-17,6,0,-39,-86,-5,35,77,213
64,3,11,2,-68,-68,-9,13,67,167
-53,21,16,10,-9,23,37,0,35,87
-118,-6,10,18,53,82,75,17,21,45
8,-9,1,22,42,70,70,47,43,90
148,0,-8,5,-17,11,36,63,65,113
110,2,-7,-31,-45,-10,22,48,66,53
0,8,0,-19,4,28,25,35,42,-2
-72,0,11,15,53,49,27,1,2,-32
-81,-17,0,0,19,10,3,-2,-26,-70
-109,-34,-8,-31,-51,-49,-32,5,-30,-114
-78,-4,-18,-26,-43,-61,-13,19,19,-44
-26,24,4,45,46,-13,-6,-16,31,39
-36,18,24,97,82,1,-35,-63,-21,35
-89,-28,32,59,81,31,1,-43,-42,-26
-25,-3,18,23,75,39,21,7,-26,-27
47,39,20,24,64,17,40,38,9,11
91,36,34,-4,16,5,42,32,3,48
274,-11,1,-68,12,13,56,29,21,139
378,-21,-38,-163,-77,14,67,30,73,257
-27,-38,-32,-212,-306,-26,-4,1,4,94
-324,-37,-10,-87,-192,-24,-43,-26,-49,-138
-189,0,13,54,85,20,-28,-13,-31,-106
-7,7,8,85,120,27,-4,1,-12,3
-9,14,-13,56,67,4,-8,13,0,56
38,25,-5,40,50,-6,-24,9,-12,33
258,29,9,25,30,9,-32,2,-7,-19
385,17,6,1,-40,3,-19,-2,-15,-61
149,-32,-28,-15,-87,-33,-21,-10,-38,-117
-216,-57,-40,-35,-77,-43,-40,-19,-62,-140
-512,-57,-13,13,9,-32,-44,-45,-72,-128
-299,-24,18,37,94,62,-58,-56,-64,1
-77,-16,-4,-8,106,105,-65,-27,-40,68
-1,-24,-4,-13,15,-107,-23,6,-7,15
93,5,9,-32,-138,-161,3,10,19,54
76,7,12,-20,-105,-24,35,36,35,136
108,4,16,4,-20,39,33,43,41,158
165,10,-1,0,28,50,64,30,68,197
148,41,-5,11,43,59,74,46,76,158
120,49,-10,4,43,97,41,29,30,-6
86,19,-18,-16,51,129,5,17,-11,-196
-119,-41,-22,-15,-5,-10,-50,11,-46,-270
-338,-52,-20,-9,-54,-115,-74,-8,-63,-205
-338,-8,26,19,-51,-103,-79,-43,-101,-173
-19,22,33,33,-31,-56,-73,-74,-111,-90
260,12,12,-10,-11,-20,-55,-57,-73,84
106,-8,-9,-21,25,30,-14,-26,-32,116
14,-8,-1,-47,25,41,15,5,-1,97
76,-8,-10,-14,-6,22,12,17,38,145
0,-28,-15,39,-24,9,-10,-1,25,119
-84,-21,-2,-20,-2,12,2,9,9,34
-94,4,22,-88,35,28,35,45,27,-32
57,35,14,-122,32,30,36,39,36,-38
142,48,18,-106,36,32,15,2,-5,-106
128,35,38,-39,31,21,-23,-22,-32,-65
275,42,-5,133,20,-7,-40,-21,-13,177
188,8,-44,176,-10,-47,-45,-1,1,201
-92,-13,-20,6,-32,-43,-32,32,22,81
-213,-27,8,65,-43,-29,-18,-8,-34,-110
-297,-49,-22,24,-54,-39,-30,-50,-113,-285
-402,-49,-45,-96,-4,4,-24,-4,-90,-327
-195,-18,-16,-51,13,-21,-31,0,-31,-174
33,7,12,-39,-6,-54,-39,6,45,87
166,11,22,-17,2,-30,3,56,78,202
452,16,23,10,11,-11,10,39,43,271
455,28,24,15,27,21,6,-1,15,230
329,31,20,16,36,27,-21,-66,-49,22
-270,-11,-14,3,0,4,-39,-83,-86,-154
-730,-58,-40,-10,-1,-2,-39,-49,-73,-267
-413,-51,-14,7,34,22,-10,-27,-29,-132
-27,-34,9,33,56,48,19,8,-3,-10
203,-2,13,22,23,25,1,13,-28,10
305,50,8,-7,-28,-37,-32,-24,-47,74
12,50,-10,-20,-33,-50,-49,-51,-59,-49
-216,38,-8,-14,-24,-49,-53,-66,-88,-244
-14,23,-3,-10,-20,-30,-54,-43,-100,-166
142,-20,-10,-12,9,12,-5,16,-39,49
109,-52,-22,10,0,36,38,54,8,112
28,-29,-17,13,-28,9,22,27,12,81
-40,2,0,11,0,12,24,9,27,55
-40,14,24,28,53,43,41,10,22,41
-2,18,19,9,34,28,35,20,23,36
-4,-2,8,-24,-30,-5,37,26,38,26
-25,-51,-4,-34,-57,-15,41,39,52,16
36,-52,3,1,-15,12,45,30,49,47
82,-7,26,25,76,101,57,33,56,95
16,71,43,33,96,59,47,14,66,72
-55,55,30,16,37,-45,11,-6,34,0
-30,15,6,-7,-55,-38,4,3,24,-14
-13,0,-29,-15,-62,-15,1,31,23,6
3,0,-40,-5,-38,-9,18,59,27,32
-5,7,-18,2,-11,-37,22,60,36,47
-73,-2,-12,7,-19,-15,11,28,22,-23
-66,1,-10,1,-57,7,-32,-33,-15,-79
77,11,-14,6,-52,-34,-62,-63,-40,-24
202,13,-4,13,-27,-23,-58,-62,-57,11
119,8,-4,-1,-10,0,-38,-65,-44,-10
-26,-28,6,-3,10,21,6,-10,0,0
-118,-31,51,35,33,37,48,7,15,-4
-88,-18,46,31,0,11,14,-22,8,-50
-23,16,9,22,-7,-21,-23,-32,28,-130
18,17,4,34,35,-14,-6,-15,39,-135
40,-14,-1,30,47,24,24,18,35,-23
-28,-15,-13,16,18,9,34,34,21,81
-19,28,-2,2,-13,-22,29,41,16,127
33,21,4,3,0,-10,7,24,-16,76
48,-6,-4,4,15,36,23,11,-45,9
110,-23,-15,-17,14,50,32,19,-27,18
78,-10,-10,-35,-8,-24,-19,-11,-17,52
-50,13,2,-6,-26,-87,-39,-39,-27,28
-37,29,26,3,-27,-37,7,-15,-9,82
139,27,48,-13,-68,25,35,9,18,164
259,20,33,-54,-114,21,30,7,33,176
165,33,24,-69,-100,6,18,3,18,28
-87,-9,20,-33,-60,5,24,-7,-12,-143
-390,-65,4,44,42,30,35,-11,-31,-287
-414,-90,-17,103,145,21,37,-14,-47,-299
-199,-67,-46,67,135,-3,-25,-50,-20,-103
-92,-43,-52,-27,47,45,-27,-19,22,45
-69,-21,-45,-83,39,-30,13,31,47,37
-17,6,-19,-48,-38,-144,24,27,50,-18
-121,-20,-15,32,-101,-80,13,17,36,-56
-206,-33,-15,22,-41,27,19,43,41,-5
-83,-14,-3,-16,27,47,29,61,72,94
57,19,23,-8,72,42,30,66,51,80
271,44,24,-28,70,16,10,20,12,139
624,96,12,-76,54,-40,-25,-36,3,301
566,118,0,-113,14,-51,-46,-55,-16,201
517,83,-32,-168,-194,-63,-71,-57,-42,29
197,16,-25,-68,-219,-41,-47,-28,-61,-154
-389,-55,-26,73,-9,16,-10,3,-52,-331
-598,-100,-27,124,100,35,-14,-1,-57,-359
-355,-85,-2,97,74,31,-9,-12,-24,-173
-131,-26,15,53,59,30,10,-6,24,-20
-19,0,27,21,33,23,12,-20,31,62
59,24,45,4,0,12,7,-24,31,96
80,29,41,19,-7,22,20,-3,44,123
51,5,4,-16,-14,10,30,20,43,108
0,10,-12,-22,-5,3,40,43,27,60
-37,-2,0,-12,9,1,27,68,10,41
-12,-6,-27,-2,5,19,4,90,23,43
-29,6,-14,-3,16,78,2,60,40,-1
-46,5,3,-2,2,66,-6,25,24,-49
-3,-3,-22,16,-25,-9,19,39,24,-26
1,-4,-21,26,5,-2,26,18,31,-2
-3,-3,6,22,-1,0,19,-4,37,60
107,-14,17,4,-14,-40,-3,-34,52,175
195,11,29,14,33,-47,-38,-45,62,248
305,77,43,6,49,-29,-61,-52,8,158
321,98,42,17,-5,-16,-27,-35,-19,0
263,60,18,80,-66,-30,4,-17,-32,-23
-109,-10,-9,38,-69,-21,10,-39,-71,-60
-369,-29,3,-4,-28,-4,-22,-82,-128,-262
-315,-28,9,-21,-6,-1,-36,-64,-112,-326
-291,-55,-22,-37,-24,6,-25,-39,-63,-212
-251,-68,-44,-57,-26,4,-9,-16,-38,-38
-196,-53,-32,-23,-4,11,11,15,-5,-24
-20,-14,-25,16,18,14,9,27,-5,-73
138,27,-29,30,43,20,1,42,24,-8
128,15,-22,44,45,19,-15,60,53,74
112,8,-12,25,36,8,-20,48,55,122
70,12,8,12,42,16,-12,33,38,120
18,28,11,-11,17,13,24,46,49,93
4,28,8,-44,-46,-9,51,27,50,43
31,46,52,-11,-67,-31,3,-14,4,3
51,7,53,17,-22,16,7,-13,-22,-31
1,-28,31,29,39,56,22,-14,-15,-9
-3,-13,18,28,56,45,14,-26,-12,12
-25,56,41,5,16,5,2,-49,-3,-30
-21,47,13,-9,-4,-22,1,-50,8,-28
-4,0,-19,-18,-5,-20,16,-15,9,8
-24,-18,-17,-11,-14,-36,11,6,7,-20
-33,-33,-16,-18,-45,-66,-17,3,18,-49
-17,-20,-15,-31,-8,-28,-10,2,26,-22
-68,-1,-17,-30,38,31,22,36,30,0
58,2,-19,-25,-11,5,45,48,66,107
57,16,0,-13,-45,-7,43,47,86,120
3,22,10,0,-35,-6,51,32,73,35
243,51,0,-3,8,-1,14,7,39,28
380,63,12,-6,15,2,-8,-8,16,65
116,0,22,3,19,17,4,-8,-3,50
-70,-29,2,-4,5,17,12,-10,-5,101
-157,-31,-22,-20,-1,7,-2,-2,21,91
-343,-83,-40,-16,0,17,13,16,35,-47
-369,-58,3,0,12,29,44,40,49,-118
-105,2,37,16,14,24,46,59,68,-117
0,23,53,51,41,31,35,29,15,-226
213,5,38,62,53,30,25,-34,-60,-269
207,-49,-11,17,34,33,-25,-68,-136,-169
86,-37,-37,-21,0,-31,-79,-95,-144,63
-219,-20,-27,-20,-2,-31,-86,-60,-103,105
-192,8,-5,-25,-21,-14,-65,-29,-79,37
103,43,4,-26,-25,-59,-51,-15,-41,49
216,47,13,-15,-18,-42,-41,-20,-30,31
68,20,0,-19,-16,-16,-36,-22,-9,11
-75,-19,-25,-28,-24,4,-9,1,18,16
-160,-46,-26,3,9,39,29,22,17,47
-184,-57,-5,20,34,62,32,18,-2,52
-107,-33,5,13,35,35,21,36,6,57
77,18,8,19,30,2,12,27,-3,81
429,60,33,-2,25,0,9,-12,-24,86
584,77,29,-9,31,20,-8,-48,-42,39
193,28,3,-8,0,3,-31,-25,-18,9
-112,-25,-18,-41,-16,-20,-32,-5,10,23
-278,-25,-23,-37,-16,-12,-11,8,4,-53
-297,-18,-13,15,-3,-9,-9,0,-30,-145
-231,-12,-13,20,-1,-16,-22,-22,-57,-150
-199,-2,-7,15,2,-26,-28,-29,-58,-111
-51,4,14,16,21,-9,-50,-61,-72,-28
-52,-31,-12,-7,-4,15,-71,-59,-84,-4
-183,-60,-29,-22,-26,-5,-44,-14,-52,-24
-101,-48,-17,-7,-39,-71,-28,8,-23,-34
133,3,5,-8,-62,-98,-9,15,-3,6
186,18,15,-11,-42,-45,1,18,14,85
144,29,4,11,-5,11,3,19,33,131
73,25,-13,88,78,50,28,35,33,104
-37,3,-12,76,126,98,39,58,32,58
-39,-8,8,18,111,98,65,49,36,46
4,-3,16,-6,53,51,46,30,42,35
75,2,0,19,-2,21,8,6,8,3
182,-2,-26,22,-64,12,-22,-10,3,49
206,7,-21,-67,-81,46,-29,12,3,74
175,21,-1,-118,-91,14,5,75,3,4
-92,13,-16,-126,-125,-90,25,88,-7,-108
-452,-12,-6,-27,-52,-108,-22,21,-38,-208
-392,-16,18,51,39,-77,-61,-57,-66,-229
-12,7,26,32,8,-32,-46,-43,-50,-52
140,26,16,20,-25,-44,-11,16,14,114
-49,7,8,37,13,-25,6,36,65,151
-93,-5,8,48,58,31,21,19,57,121
30,-22,-16,29,38,32,11,-31,-6,27
272,-16,-2,8,25,22,0,-57,-74,-42
562,0,-8,-25,6,9,-18,-88,-108,-67
246,-32,-21,-51,-56,-15,-39,-85,-105,-31
-221,-38,21,-1,-32,0,-38,-41,-58,-22
-256,-5,24,26,13,12,-13,-16,-4,-49
-140,-3,10,37,40,37,30,14,81,10
-61,0,8,42,58,59,66,33,119,67
-19,6,22,28,60,53,28,27,89,44
18,35,29,5,42,23,-12,21,26,27
52,69,8,-30,0,-18,-42,11,-21,14
60,46,-14,-41,-25,-28,-32,-18,-56,-36
8,-14,-51,-15,-54,-30,-7,-12,-58,-52
-148,-52,-44,92,-35,-13,9,20,-25,-65
-69,0,9,73,-25,-2,-1,19,-17,-41
170,43,50,-4,-26,-23,-6,-14,-27,1
167,25,55,-22,-27,-39,0,-13,-10,42
120,-17,7,-13,-3,-7,12,-16,-10,18
178,-26,-27,-17,24,26,6,-22,2,34
-7,-25,-29,-21,28,27,5,3,30,33
-194,-21,-21,-12,22,17,5,22,56,19
-217,0,-8,-6,8,-1,24,8,70,17
-161,-3,6,5,18,6,38,26,67,-39
-115,-17,15,43,46,16,5,31,33,-73
-133,-26,10,69,35,16,-3,35,24,-38
-90,-12,-10,42,2,-11,-3,10,-3,-29
89,16,7,17,-6,-45,-22,-44,-77,-57
112,16,-2,4,7,-37,-27,-67,-82,-59
46,12,-18,-32,2,-13,-49,-60,-53,21
91,38,-13,-76,14,24,-45,-15,-5,151
99,27,-40,-99,26,3,0,46,53,173
115,-8,-52,-152,-129,0,50,94,101,126
67,-4,-13,-85,-164,18,62,100,93,113
9,-6,27,49,36,27,47,51,49,69
48,-2,39,75,102,16,9,3,-32,-135
-9,-22,9,18,1,-19,-22,-43,-100,-242
-138,-27,-25,18,-1,-24,-44,-82,-98,-82
-239,-19,3,49,26,-28,-19,-47,-49,-71
-240,-5,30,41,3,-41,-2,-8,-9,-176
-125,-21,-3,0,-27,-19,16,13,-3,-172
69,-17,-32,-29,-39,3,11,39,7,-9
137,-17,-20,1,-14,26,30,53,35,95
-28,-25,-6,15,0,25,51,71,49,79
-152,-30,-27,-6,-24,17,41,73,59,82
-85,0,-15,-11,-37,21,23,43,74,129
55,56,10,14,13,62,20,6,86,192
370,102,32,12,71,125,-5,-33,61,284
672,118,28,2,41,28,-89,-77,17,316
492,67,31,24,-1,-115,-166,-94,-27,112
134,49,51,21,-67,-153,-128,-83,-92,-160
-274,-24,1,-30,-110,-119,-64,-84,-138,-332
-502,-77,-15,-20,-60,-43,-7,-88,-143,-416
-380,-45,24,27,10,25,25,-63,-115,-382
-201,-11,36,49,33,37,3,-53,-72,-223
-33,-16,10,69,38,27,-3,-51,-36,4
110,-15,-8,75,53,35,23,-17,7,188
140,10,-6,32,62,37,21,21,47,241
93,14,-12,-35,32,20,43,41,76,164
17,-1,-26,-38,4,1,19,32,54,51
102,2,-31,9,-35,-31,-22,17,27,42
131,-14,-34,-26,-21,-29,-16,26,16,13
4,-39,-46,-100,-28,-18,-11,37,1,-4
-196,-61,-52,-138,-90,-30,4,24,-2,-42
-262,-48,-32,-135,-92,-48,-1,5,-2,-108
-194,-25,-23,-48,-20,-7,2,16,16,-81
-161,-12,13,28,19,22,7,10,1,-77
-117,-15,23,52,30,40,25,16,-13,-46
37,32,43,60,40,47,42,22,7,50
103,54,47,62,61,45,36,6,9,61
69,17,14,37,49,36,43,2,5,47
83,10,0,17,45,46,36,12,13,60
138,3,12,28,42,22,0,-1,26,85
46,-5,31,32,20,-17,-16,-4,-11,22
-42,4,6,-12,-7,-51,-34,-21,-56,-35
-23,30,-27,-56,-34,-50,-31,-17,-46,6
-18,23,-24,-45,-28,15,24,21,1,22
100,33,0,-11,-31,47,48,46,32,51
202,24,17,84,-31,55,21,26,39,135
-1,5,4,74,-16,39,7,34,58,98
-179,-5,19,7,15,-4,-9,13,32,-7
-103,-18,16,-14,69,-36,-24,-23,-13,-63
-65,-19,0,-41,62,-111,-62,-24,-48,-132
-25,-17,2,-34,-22,-126,-77,-27,-82,-232
209,-40,-18,-31,-62,-79,-59,-52,-90,-130
205,-54,-46,-49,-69,-36,-23,-22,-28,64
-50,-20,-16,-43,-42,34,17,30,30,55
-143,-5,6,6,47,126,40,45,27,36
-64,7,24,51,76,115,74,32,35,57
4,16,38,51,25,56,58,1,22,38
23,18,34,24,-3,30,37,-2,30,25
-38,9,-9,-14,29,17,42,29,57,24
-52,16,-29,-68,22,5,30,55,38,-3
3,0,-27,-43,14,19,-3,38,10,-9
72,-18,-19,0,4,-71,-12,26,13,5
122,36,-3,-9,-34,-121,-48,-9,6,18
78,57,6,-24,-98,-69,-58,-26,9,36
-2,22,-12,-51,-122,-20,-22,2,15,55
16,-16,-37,-84,-108,13,43,61,29,103
53,-1,-3,-37,-43,31,60,40,28,68
6,8,35,47,55,37,19,-25,-22,-9
-34,-15,19,66,101,20,-10,-56,-33,-46
-59,-27,4,38,50,4,-7,-40,-6,-78
-115,-27,-9,23,28,21,8,-18,-6,-131
-158,-11,1,20,22,22,13,-24,-20,-118
-107,-15,6,4,-9,2,-2,-36,-21,-34
-65,-33,4,6,-8,-8,-10,-22,12,32
-60,-11,4,26,32,28,30,4,38,45
-5,10,12,11,52,45,45,26,36,55
153,40,28,11,34,32,38,24,54,117
375,74,18,-8,15,-3,6,6,53,185
541,96,8,-40,-24,-63,-30,-43,12,253
350,92,-1,-29,-44,-73,-53,-67,-17,133
-212,1,-24,-4,-21,-27,-62,-70,-66,-145
-646,-76,-29,-4,0,-7,-40,-40,-92,-354
-611,-71,-17,9,5,1,-38,-30,-98,-362
-292,-44,-15,11,5,9,-19,-23,-58,-240
73,-16,-17,0,20,21,11,-1,17,-33
242,-14,-15,-5,0,9,34,30,77,143
321,13,0,-15,-20,-9,48,52,87,181
86,3,-4,-6,9,6,38,38,29,63
-187,-30,0,17,32,34,17,20,-20,-69
-125,-33,28,32,39,14,22,5,-33,-111
91,-12,30,6,12,-30,6,-5,-23,-1
203,-16,-24,-36,-22,-28,4,8,13,152
98,-8,-42,-27,-36,36,37,53,67,167
50,27,-23,-36,-48,50,39,62,76,159
-16,39,-5,-26,-30,0,31,65,54,92
-122,26,9,11,-4,-14,17,60,41,0
-88,21,17,35,40,32,21,54,45,-32
-86,11,33,97,88,71,5,41,49,-71
-38,17,45,125,103,32,1,18,68,-100
202,37,32,64,45,-61,-18,-11,37,-62
479,52,3,-18,-34,-103,-66,-78,-22,87
83,2,-12,-84,-62,-13,-75,-99,-54,25
-366,-64,-18,-50,-62,0,-24,-68,-55,-106
-291,-67,-21,-51,-36,-16,10,-29,-40,-149
-37,-18,7,-67,2,-11,5,-42,-52,-119
-71,17,6,-26,20,10,17,-41,-44,-38
86,41,14,7,38,58,38,-19,1,117
132,13,24,54,78,79,36,-6,33,159
0,-26,7,106,91,60,42,9,47,102
22,1,6,105,54,32,41,7,41,43
143,29,6,50,0,-10,-13,-11,23,-17
44,48,15,15,-34,-71,-42,-27,-3,-101
-100,22,8,0,-27,-108,-40,-29,-29,-137
-32,59,8,-46,-36,-89,-32,-38,-35,-45
37,65,-17,-104,-11,-53,-16,-23,-34,9
-26,-21,-76,-147,-52,28,32,38,0,10
-56,-69,-66,-154,-195,80,78,80,36,31
-48,-24,-1,-16,-95,75,58,58,40,62
-13,13,24,84,79,62,31,25,40,66
21,5,18,87,73,28,17,16,39,46
84,-9,10,58,9,-4,13,21,51,17
114,-17,16,61,27,21,14,25,54,-10
72,-29,2,38,45,67,25,36,34,0
-39,-32,10,31,44,33,31,28,35,39
-192,-4,30,46,14,-16,11,-1,0,-47
-140,31,7,11,-15,-57,-5,-39,-43,-82
71,38,-5,-26,-47,-84,-35,-23,-7,22
86,4,-17,-21,-44,-67,-35,-1,37,48
-18,-5,-24,-22,-27,-15,-13,5,21,-2
-119,-22,-28,-28,-15,22,6,14,-13,-64
-84,-38,-10,-21,-9,11,9,14,0,-45
27,-10,-6,-3,-30,-21,-4,0,21,40
64,3,-19,-6,0,-31,-8,11,35,80
29,-2,-17,0,25,14,38,33,48,76
-23,-15,-17,0,19,36,70,34,46,49
-73,-3,13,14,18,27,45,2,12,3
-73,26,47,20,8,14,15,-11,-25,-71
46,66,52,-8,-12,0,2,-1,-21,-65
129,39,29,-9,-20,-4,0,-10,-2,-52
16,-17,13,-2,-17,-1,-7,-35,-28,-63
-63,-39,-22,-22,-18,-8,-16,-44,-45,2
99,12,-39,-34,10,-28,-2,5,0,131
282,41,-33,-32,34,6,32,50,42,182
310,-8,-51,-38,49,68,68,74,77,135
110,-32,-56,-13,25,92,83,71,86,57
-91,-21,-18,-11,-28,27,42,31,43,-74
-269,-28,22,68,-67,-56,-46,-57,-60,-222
-386,-31,39,60,-59,-79,-63,-78,-90,-273
-298,-25,36,4,-23,-68,-45,-45,-55,-188
-145,-26,25,0,5,-63,-42,-28,-13,-59
74,5,6,-13,22,-41,-29,-7,28,50
165,20,0,-17,20,0,-20,8,43,113
59,9,-4,-3,1,8,2,13,55,129
27,22,21,5,-3,17,8,-9,39,82
142,29,17,24,34,68,42,-14,16,77
367,39,17,35,75,58,59,-26,12,138
313,25,7,17,32,3,33,-26,13,168
-48,-27,-15,-8,-7,0,29,-1,5,58
-300,-29,-15,3,-12,-6,19,15,-18,-145
-303,-25,-15,0,5,-35,1,33,-34,-198
-208,11,-6,-14,-4,-34,-16,44,-34,-180
-121,30,-9,-16,-17,-22,-24,15,-27,-142
-4,8,-18,-23,-12,14,-14,8,11,-30
99,4,-1,-5,18,83,15,32,46,65
69,17,8,12,29,62,8,32,74,66
-4,9,15,23,21,0,-26,6,63,55
-13,-19,21,31,15,-7,-35,-9,31,90
45,-5,20,34,15,21,-15,-3,25,115
68,13,21,25,35,3,21,15,22,44
183,45,32,18,67,-9,20,-16,-22,-34
256,30,12,0,48,-71,-26,-58,-60,-87
-61,-38,-10,-31,-90,-120,-38,-34,-47,-81
-260,-49,-16,-64,-161,-56,5,8,-20,-10
-122,0,6,-31,-87,46,37,20,-20,40
-10,38,29,13,11,76,54,-4,-14,38
156,57,19,0,36,44,29,-11,-9,112
126,18,-8,-3,5,8,15,17,17,128
-146,-25,-32,8,-36,-2,13,30,15,-37
-94,4,-14,3,-39,-25,-16,0,2,-137
180,32,0,15,-24,-41,-50,-50,-8,-88
52,-13,-5,59,53,22,-78,-66,-52,-73
-195,-35,12,101,105,78,-57,-25,-40,-80
-164,12,41,58,42,-42,-29,26,-6,-41
-10,17,54,-7,-14,-102,-23,28,1,16
121,-23,13,-61,-27,-46,4,21,-1,69
123,-41,-12,-39,-35,21,20,14,2,148
95,-21,-14,-10,-22,31,14,-9,-6,163
124,0,-18,-71,-19,-8,4,-33,-6,101
26,-12,-42,-90,-34,-29,14,-23,4,40
-133,-20,-27,-36,-16,12,31,36,46,-60
-203,-15,16,25,22,38,43,54,64,-188
-189,-3,22,68,62,59,21,34,42,-258
-150,9,28,75,71,74,-7,-10,-17,-244
-24,18,26,39,38,30,-41,-46,-33,-104
141,12,9,-14,17,-22,-50,-41,-39,46
173,-1,-19,-64,-17,-49,-43,-33,-59,84
129,-6,-13,-65,-53,-39,-58,-20,-43,101
96,-13,-14,-22,-34,-7,-30,11,-13,121
-4,-23,-31,-6,-35,-9,8,27,-6,48
-49,-8,1,20,5,-13,1,2,-24,-14
116,37,18,1,7,-32,-9,-28,-26,90
172,35,16,-25,-32,-80,-12,-14,2,167
19,9,-5,-24,-33,-21,26,36,57,122
-51,-1,-13,24,42,125,62,36,58,5
-70,-1,0,32,61,88,27,10,7,-91
-73,-3,10,5,12,-18,8,3,-35,-115
-113,-29,17,4,0,-33,29,-7,-36,-174
-224,-44,35,37,0,-8,13,-20,-22,-195
-267,-66,5,18,-4,-4,-10,-14,-9,-135
-138,-53,-38,-28,-17,9,-9,8,20,-12
89,8,-38,-25,-2,21,-11,16,45,128
67,30,-22,-17,-8,11,-12,15,38,140
-17,8,-24,-13,-5,-6,-13,9,-9,75
76,7,-15,-1,9,0,-9,-5,-30,32
189,25,2,0,15,-8,-24,-28,-28,12
172,11,-10,-19,-15,-23,-43,-22,-16,49
-61,2,-5,-6,-31,-7,-41,-21,-31,20
-64,-2,-3,-11,-18,-6,-46,-30,-36,7
34,3,-5,-2,3,-15,-20,-40,-42,6
34,-14,13,14,23,-15,-13,-33,-61,11
23,-27,16,-4,31,0,-19,-30,-73,20
21,-8,22,-4,54,34,-8,-27,-52,25
-20,15,40,14,60,32,-2,-28,-43,-16
-48,14,36,23,16,21,-6,-27,-52,-26
-97,-22,24,115,0,19,14,-2,-58,-53
-64,-23,-8,86,-7,-2,2,9,-42,-76
103,18,11,-17,-35,-28,-19,17,-24,-33
165,20,2,-70,-87,-55,-27,30,-11,8
122,0,-36,-91,-61,-17,-11,54,9,24
76,-9,-49,-89,-32,24,-10,68,13,46
-71,-21,-68,-55,-94,-1,9,59,6,49
-162,-23,-43,-6,-80,-33,-5,5,-3,0
-104,-26,-7,36,20,4,7,-13,-4,-9
-58,-10,9,39,92,45,20,-9,16,42
-92,-6,12,26,90,46,30,3,58,24
-45,7,21,-12,71,25,40,12,71,18
39,-15,-17,-59,61,17,30,13,45,37
62,-29,-11,-93,-100,18,31,0,4,-1
76,1,29,-30,-152,16,-1,-10,-18,-44
109,-9,25,59,5,0,-8,-6,-41,-14
-14,2,7,78,144,41,17,19,-72,-48
69,41,-9,42,78,1,-18,28,-60,12
206,58,-13,-2,-27,-81,-44,27,-23,65
205,49,6,10,-35,-83,-41,6,-25,-9
17,16,1,8,-25,-46,-46,-29,-38,-63
-150,-6,1,-6,-27,-11,-48,-43,-54,-99
-138,2,18,10,-24,2,-46,-74,-68,-49
-248,-36,-8,-1,-52,-5,-48,-81,-84,7
-218,-43,-35,-23,-55,-15,-11,-33,-17,69
7,1,-11,-6,-10,-4,16,0,49,147
152,6,2,9,18,17,21,19,70,180
131,-13,6,15,18,18,30,33,49,-3
229,-1,34,32,14,-6,-4,18,13,-213
117,32,31,79,12,-22,-49,-25,-35,-215
-309,0,4,70,34,8,-29,-38,-65,-172
-297,-34,-1,11,50,32,-9,-44,-61,-87
-86,-42,2,-28,45,22,6,-17,-33,2
83,-38,-2,-32,42,23,26,3,-7,23
127,-34,-20,16,12,10,5,21,13,31
18,-32,-46,-25,-66,-35,-2,45,40,20
-69,-13,-37,-77,-134,-70,-14,46,49,1
-26,21,-14,-89,-135,-51,-33,27,43,-8
13,33,-2,-71,-105,-3,-6,34,47,21
48,46,15,-13,-46,22,3,32,37,75
44,39,21,26,40,21,9,6,-3,55
-15,2,-6,20,57,1,4,-7,-8,13
-7,-29,-15,-1,43,22,45,9,18,33
63,-23,21,36,90,78,51,20,22,56
69,7,39,75,113,140,45,-6,4,31
30,4,30,71,79,123,19,-27,-34,31
5,21,40,61,14,-7,-9,-14,-36,45
-61,35,26,16,-37,-70,-22,3,-8,32
-131,5,-6,-27,-9,-41,-16,-2,-3,-30
-131,-31,-19,-60,27,29,-28,-28,-28,-94
-29,-23,-7,-52,9,-18,-19,-8,-20,-41
119,33,26,7,-9,-89,-3,21,4,15
334,49,20,11,-38,-99,-39,-4,-7,65
452,15,-17,-19,-52,-63,-80,-26,-17,167
26,-10,-37,-26,-50,-18,-64,-6,-10,43
-298,-29,-40,-27,-34,-6,-24,-11,-27,-142
-320,-38,-38,-31,-44,-12,4,-1,-21,-145
-225,-31,-26,-20,-21,9,42,17,7,-49
-190,-17,1,-5,26,36,59,35,23,-52
-140,4,20,-7,45,41,49,34,23,-55
56,15,20,-2,26,12,50,49,53,72
204,0,1,7,12,9,44,32,54,145
189,11,6,7,25,38,40,-11,18,73
69,-9,0,6,58,77,25,-15,-14,3
154,-31,7,8,86,37,14,-13,-27,20
-6,-47,1,13,20,-23,-12,-3,-18,10
-324,-47,-7,7,-40,-61,-3,25,-20,-48
-314,-26,-22,-7,-9,-42,-5,36,-50,-107
-58,31,-14,-43,-5,-29,5,37,-34,-54
104,71,6,-39,2,-13,33,25,13,-12
278,82,0,-39,-24,13,8,-8,73,41
372,56,-19,28,-40,23,-26,-44,116,119
105,13,-18,109,-48,47,-26,-32,113,58
-69,-6,11,32,-28,23,-6,-25,78,52
-28,20,54,-10,11,-15,-3,-26,13,89
-37,1,35,-16,17,-29,-6,-18,-47,62
-12,-8,11,-16,-7,-31,-18,-11,-79,-2
119,19,12,13,18,-14,-30,-35,-89,-62
70,14,13,19,65,17,-21,-52,-79,-106
-117,0,13,29,81,42,8,-61,-93,-175
-225,-21,4,28,40,45,27,-62,-92,-170
-154,-28,12,20,1,6,15,-39,-44,-58
-18,0,16,24,5,-7,6,-13,7,30
78,15,0,11,13,-15,-20,-8,9,59
189,20,-8,-3,1,-41,-35,-2,-3,88
148,12,-19,7,-5,-30,-24,7,23,120
-35,-14,-37,2,-20,-18,-10,27,44,69
-120,-13,-44,-19,-13,-4,-5,41,37,7
-166,-12,-34,-30,3,2,-17,35,28,-59
-138,-17,-11,-14,2,4,0,30,31,-102
-89,-22,-4,-18,-17,-15,-3,23,40,-84
-72,-20,-12,-18,-23,-20,0,27,45,-47
-8,-6,-16,-13,-6,-1,11,28,29,14
7,0,2,7,35,31,28,25,16,40
-25,-5,11,52,63,55,30,18,-14,46
2,-20,6,43,64,46,28,7,-16,65
-23,-11,4,23,11,13,24,13,15,60
29,20,15,4,-41,-24,10,2,30,14
146,16,20,-2,-42,-30,14,-12,19,9
103,2,7,-7,-44,-7,29,13,44,20
237,41,19,-32,-64,1,32,21,56,74
363,79,29,-21,-50,14,42,15,34,94
362,44,11,28,2,10,7,19,0,106
367,12,-13,53,29,2,-27,10,-25,142
-19,-24,-28,12,28,-10,-42,-25,-58,45
-338,-36,-46,-38,2,-33,-41,-20,-24,-35
-458,-45,-33,-93,-45,-39,-22,3,0,-119
-463,-38,0,-37,-55,-35,-12,-8,-19,-199
-405,-56,-5,0,-49,-16,0,-22,-47,-194
-209,-54,-36,-70,-50,10,24,0,-23,-153
70,4,-10,-66,11,21,50,12,7,-67
186,41,14,-10,93,76,35,6,23,5
162,9,18,17,83,81,12,9,33,43
120,-18,3,32,-1,-5,-1,23,51,93
-14,-16,-16,18,-43,-56,-1,11,29,89
-15,4,0,39,-12,-26,10,-8,2,75
43,31,32,51,23,-6,-27,-18,-6,60
97,47,21,-16,9,-11,9,5,11,82
155,32,-24,-97,-18,-37,23,4,19,100
93,37,-19,-76,8,-25,-36,14,44,111
1,35,3,-15,37,3,-4,48,87,119
-131,-16,25,33,37,16,1,38,42,-51
-136,-39,-2,32,33,3,-19,-8,-29,-144
-73,-4,-9,29,31,-7,-35,-33,-54,-152
-77,6,9,37,39,-1,-33,-30,-48,-205
31,0,14,22,23,18,-12,-24,-45,-235
315,14,7,-12,-33,13,15,-6,-35,-149
449,0,-14,-41,-94,0,39,9,-7,51
143,-33,-21,-34,-127,-2,44,31,14,140
-232,-16,-12,0,-134,31,41,68,21,46
-484,-24,5,30,-61,81,39,52,-9,-80
-472,-56,10,58,55,54,0,-19,-29,-89
-236,-30,16,58,129,27,-33,-71,-51,-72
104,26,5,22,154,-51,-46,-80,-16,16
241,35,5,-14,89,-181,-36,-40,30,121
206,21,-11,-66,1,-146,-27,-3,52,167
142,37,-26,-144,-125,-2,-1,28,78,138
94,31,-15,-131,-240,52,41,26,72,85
55,36,33,17,-95,72,51,1,22,29
5,6,30,84,75,88,18,-14,-2,-31
-40,6,26,43,103,67,15,0,0,-78
-66,30,34,20,63,6,-6,-21,-33,-75
-78,-4,7,8,4,-52,-19,-30,-25,-37
-51,-17,-11,14,-36,-59,-21,-3,15,19
-11,-15,-5,113,-24,-45,-24,-9,16,12
14,-18,-6,93,-15,-6,12,24,15,-12
19,-7,19,14,15,37,48,66,14,-6
27,17,44,5,20,48,71,36,5,14
77,46,29,-7,-7,43,85,-7,5,45
67,33,4,-21,-9,18,79,-32,15,59
-28,-12,-16,-19,-2,7,23,-13,16,68
-42,-33,-45,-11,5,-3,-12,22,44,48
4,-24,-41,0,30,17,0,45,82,-6
-82,-21,-37,-19,12,15,-12,34,66,-48
-250,-1,-8,-2,11,-15,-16,19,30,-82
-247,0,4,21,8,0,-18,0,-18,-97
-122,2,-14,8,-16,9,-11,8,-16,-87
62,27,11,21,14,9,-11,-1,-18,-65
415,37,17,21,37,8,-11,-7,-30,64
467,26,-5,14,22,2,-8,-2,-29,157
72,4,-8,17,23,12,6,-21,-35,45
-298,-31,13,26,28,9,-21,-39,-45,-71
-243,-12,18,6,0,-50,-48,-61,-56,-68
38,34,20,-18,0,-41,-25,-47,-30,21
180,26,14,-19,14,24,3,-14,7,109
88,11,12,-10,1,53,1,-7,13,123
46,4,31,-4,-37,12,7,2,18,129
-11,-16,40,2,-53,-37,2,1,29,34
-134,-52,0,-13,-72,-52,-11,-2,47,-97
-176,-57,-59,-26,-42,-37,-39,-9,21,-152
-175,-39,-54,0,41,42,-43,-5,-10,-123
-137,-21,-56,13,73,105,-36,3,-26,-119
-11,-1,-41,-13,21,10,-23,21,-33,-116
120,47,-7,-53,-35,-94,-13,14,-26,-49
214,79,11,-48,-44,-77,4,0,-7,108
66,37,19,-9,-12,-15,12,26,10,159
-164,-18,17,16,37,25,31,48,26,66
-117,-32,-3,10,49,32,59,42,27,-25
83,2,9,30,38,29,49,22,5,-67
273,26,27,30,35,-2,24,-18,-35,-5
160,21,25,40,39,0,1,-56,-50,37
126,-1,12,14,28,13,-1,-64,-57,23
155,-2,3,-19,-16,-13,11,-53,-44,62
-18,-11,0,-4,-39,-9,10,-39,-13,56
-263,-29,0,58,0,36,31,4,3,-73
-287,-5,1,43,4,35,35,42,28,-132
-96,24,-9,-12,-9,4,25,57,62,-28
78,34,-7,-21,-23,-21,-4,31,73,90
191,35,9,-27,-49,-49,-47,-17,42,146
186,7,-23,-14,-89,-77,-46,-21,57,126
-83,-11,-36,-44,-39,-13,-25,15,46,-38
-213,-29,-3,-31,24,61,24,34,21,-114
-186,-32,16,11,55,75,72,22,19,-103
-197,-22,17,26,54,51,63,22,19,-160
-80,-17,12,24,37,25,23,-19,-21,-110
145,-6,-7,-16,-3,-8,1,-47,-22,78
217,39,-14,-68,-34,-38,-14,-32,-9,107
318,47,-11,-53,-36,-24,-19,-24,-3,79
481,26,-4,-6,-22,-14,-2,0,43,174
202,-27,-6,51,16,14,30,37,71,170
-162,-52,-19,39,17,32,57,58,81,37
-375,-28,-5,4,2,5,40,63,38,-97
-408,15,17,-7,3,-40,-11,14,-28,-143
-268,32,13,-7,-6,-63,-35,-20,-43,-137
-82,11,-3,-12,-44,-56,-32,-6,-28,-112
-17,-6,-15,-36,-76,-23,-10,17,-10,-87
23,-8,-10,1,-24,45,13,40,-2,-14
123,14,24,39,14,77,36,17,22,57
201,17,22,18,21,80,21,-12,32,123
60,4,21,17,42,44,20,-14,27,70
-81,-15,11,37,37,-1,22,-19,26,-26
-27,-15,5,38,42,2,0,-18,19,-25
188,20,26,-5,14,-26,-21,-20,16,34
269,40,20,-24,-32,-95,-44,-22,8,93
110,16,10,-9,-12,-62,-10,-2,10,101
-19,-17,-5,2,16,-2,14,24,16,107
-60,-37,-19,9,42,38,29,28,14,87
-162,-43,-26,0,47,50,16,27,4,21
-264,-40,-26,-6,8,-1,4,23,18,-40
-249,-38,-24,-7,-4,-44,-14,0,-3,-101
-111,0,-11,2,1,-27,-6,-4,-28,-121
144,47,4,21,63,22,9,-30,-45,-81
314,44,20,50,97,29,7,-31,-41,-64
177,42,26,26,29,-7,-12,-35,-29,-80
-58,8,3,-18,-87,-54,-37,-51,-39,-100
-200,-46,-20,-76,-153,-74,-46,-48,-39,-106
-154,-50,-10,-113,-126,-17,26,17,18,-17
-7,-2,11,-88,-25,102,87,37,48,53
93,42,28,-16,80,145,89,9,54,88
73,40,30,95,46,27,37,6,49,104
-20,2,13,108,-13,-54,-23,-3,17,52
-47,-30,23,50,17,-16,-60,-37,-8,-10
2,-31,31,12,12,29,-39,-11,-2,6
34,-11,16,-18,-20,-56,33,56,22,33
30,4,-22,-28,-24,-59,61,79,5,64
17,-5,-46,-30,-4,-19,23,73,-6,73
-1,-29,-61,-15,8,0,-12,47,0,65
-90,-24,-40,-11,9,10,-19,-1,-13,47
-100,-9,-5,-4,-5,15,-22,-56,-28,-21
76,17,3,1,-5,10,-9,-45,24,-19
98,31,-1,2,-5,10,-10,-28,52,-72
126,26,18,50,28,1,-12,-33,13,-114
311,19,37,69,26,-3,-2,-29,-4,-56
128,-20,3,40,-11,26,13,2,5,-23
-246,-41,12,45,12,31,4,17,-16,-22
-188,-8,17,32,49,3,-14,-2,-76,30
104,47,28,7,60,-11,-33,-11,-90,82
87,37,18,-24,35,-12,-10,-9,-51,95
-145,-15,-3,-50,79,34,29,-12,-26,22
-147,-35,-38,-114,-43,52,44,3,15,45
21,7,-17,-100,-184,28,32,18,61,144
240,58,34,18,-56,-7,20,11,47,113
241,74,23,93,91,-27,-38,-19,0,-11
54,32,10,117,69,-51,-98,-50,-56,-177
-157,-43,-19,30,-5,-63,-97,-61,-116,-303
-237,-68,-34,-39,-21,-56,-89,-44,-105,-211
-213,-59,-25,-63,-40,-53,-86,-34,-85,-128
-201,-40,-6,-21,-67,-28,-74,-33,-62,-82
-5,14,0,-8,-69,-17,-30,-17,-2,56
141,29,-13,-69,-9,14,10,21,53,163
139,19,-6,-54,32,43,27,54,73,204
67,14,22,-1,39,41,68,51,76,159
16,16,24,26,39,40,66,36,58,65
129,0,10,44,52,21,19,6,19,-8
236,-20,-2,43,64,22,9,-3,-2,-9
108,-11,5,38,62,59,26,27,-14,77
98,-3,-2,5,22,49,29,41,9,213
44,21,-3,8,8,33,14,50,36,187
-106,19,0,21,6,13,6,22,3,26
-373,-39,-25,49,-4,-31,-20,-11,-56,-247
-490,-67,-17,37,-35,-69,-45,-28,-119,-423
-264,-16,-3,-55,-91,-106,-42,-51,-130,-435
-104,1,-36,-152,-171,-123,-53,-74,-126,-295
58,-4,-61,-184,-206,-103,-49,-42,-67,-35
174,24,-30,-85,-107,-22,-24,17,14,126
93,28,11,20,54,92,2,30,34,155
38,6,25,93,147,113,15,24,36,139
89,-11,15,80,161,73,34,26,33,120
124,-14,-5,26,62,34,21,24,24,99
119,6,5,-1,-24,-39,-8,4,-23,40
45,11,23,0,-44,-74,-42,-30,-69,25
-100,-16,12,2,-17,-40,-32,3,-33,-13
-131,-27,6,15,18,14,14,42,23,-40
-16,-8,0,23,23,11,-6,27,43,-18
65,11,8,13,-4,-17,-19,5,31,-1
77,10,-4,3,-11,-21,-20,-2,0,14
63,11,-6,-14,0,0,-9,0,-17,60
101,25,1,-16,-22,-3,-18,13,-5,147
135,35,10,-9,-33,-9,-35,9,-17,182
54,16,5,11,-7,9,-10,1,-20,143
-42,10,5,6,3,30,9,-6,-38,64
36,-4,0,-22,2,8,-10,-30,-78,-27
33,-45,2,-18,11,12,-8,-23,-58,-97
-247,-72,2,18,29,36,19,4,-38,-248
-296,-54,10,23,33,31,17,-12,-70,-337
-111,-21,-3,11,16,-10,-16,-44,-72,-190
-74,-10,-18,-4,-7,-15,-28,-52,-28,28
-152,-8,-7,-5,-1,-8,-1,-33,16,86
-101,12,4,8,4,-21,29,-5,51,73
144,26,-5,-4,-7,3,32,12,51,55
263,13,-12,-14,-13,4,42,33,58,58
194,7,-12,-18,-16,-10,6,49,61,21
123,31,-11,-21,-22,10,-8,42,77,-11
121,44,8,-9,-24,33,1,17,76,-2
-53,8,9,-3,-22,-5,-16,-19,26,-16
-120,-19,24,-7,6,-27,-34,-40,-5,-3
-43,-14,20,0,30,-37,-40,-34,-11,47
8,-4,0,-13,33,-8,-5,-22,18,64
42,15,-7,-24,19,8,44,-12,38,66
74,34,13,-29,12,26,55,6,43,51
52,38,23,13,12,55,51,27,57,46
-83,2,20,115,0,46,57,26,74,5
-247,-25,5,110,-10,24,25,-1,34,-62
-249,-27,11,55,33,20,19,-31,-28,-92
-43,-15,10,31,20,7,16,-52,-55,-81
227,6,26,0,4,-15,0,-52,-57,-45
392,24,30,-38,-16,-58,-48,-79,-63,62
162,21,-6,-58,-39,-45,-63,-43,-37,76
-26,0,-34,-45,-41,-2,-27,6,16,33
-137,-18,-60,-60,-85,-26,0,41,43,-33
-185,-27,-55,-88,-131,-69,-2,62,37,-82
-131,-14,-34,-37,-67,-26,0,52,40,-57
-13,11,-13,19,41,30,7,41,49,22
51,12,-10,33,69,56,60,59,66,76
46,7,20,17,43,37,71,46,69,76
33,11,43,39,47,25,30,15,31,40
77,14,29,25,40,12,14,-15,0,19
36,14,19,22,14,10,10,-16,2,-21
-3,8,5,27,-5,11,-2,0,-5,-83
-93,-30,-18,11,-5,12,7,-6,-25,-75
-141,-49,-19,-1,22,11,5,-18,-22,-42
-77,-14,1,40,56,38,33,-8,-5,-18
25,13,5,85,56,39,42,12,9,35
109,4,-2,46,58,20,9,30,19,58
157,24,7,-14,15,-28,-29,20,19,93
76,35,2,-87,-32,-51,-53,25,19,38
-25,-2,-42,-75,-50,-22,-44,29,-6,-36
-75,-34,-57,-39,-41,10,-25,64,4,-53
-77,-33,-40,-51,-22,3,8,80,38,-40
-72,-14,-9,-10,5,15,67,66,62,5
-25,2,-8,0,20,30,76,47,51,40
27,17,9,18,26,21,33,0,4,71
42,-4,11,11,-30,-11,-22,-31,-17,80
96,8,23,-6,-49,-32,-40,-43,7,101
211,75,55,35,1,-49,-50,-86,-10,70
277,52,53,47,38,-62,-62,-110,-43,71
0,-15,32,20,57,-16,-38,-69,-17,30
-217,-52,-2,-50,22,4,-11,-33,-23,-141
-222,-83,-59,-105,3,13,53,-4,-14,-148
-213,-36,-73,-137,-151,41,95,38,2,-52
-106,54,1,-78,-200,8,64,21,-39,-36
44,92,27,31,-22,-28,-20,-26,-66,-19
258,62,14,78,119,6,-68,-49,-78,-10
285,39,30,110,138,49,-52,-7,-43,-58
27,3,28,102,75,-21,-39,24,-20,-144
-82,-31,0,32,-33,-88,-55,0,-6,-55
-33,-16,-6,-21,-50,-68,-28,-21,33,119
54,11,20,-22,-11,-23,-7,-48,7,213
113,12,22,-1,15,-1,3,-20,-17,162
4,-19,-6,3,27,8,27,17,-14,11
-201,-46,-16,16,13,40,19,26,-2,-104
-284,-41,2,24,30,94,25,17,-2,-164
-219,-35,-8,19,12,57,30,21,-1,-184
-111,-41,-18,9,10,-8,31,26,22,-117
-3,-31,-27,-1,17,-18,6,7,-7,-27
62,-9,-31,5,20,-25,-22,-8,-28,0
-61,-13,-26,10,1,-48,-42,9,-11,25
-33,-9,-10,1,-21,-47,-21,17,-26,29
39,3,7,2,-15,-9,-10,2,-45,3
43,15,1,-1,-26,1,-15,-16,-40,12
-5,11,3,-14,-36,-12,-34,-22,9,21
38,6,-2,-10,-34,-14,-11,8,52,48
118,22,12,-14,-41,-31,5,35,43,77
155,49,28,-14,-32,-38,1,19,29,63
192,5,-12,-24,-8,-2,19,21,25,69
144,-7,-20,-34,5,21,46,42,38,115
-19,4,13,-3,10,10,35,34,22,11
-160,8,19,13,5,2,3,-24,-43,-104
-88,-3,-6,-18,-23,-7,-20,-64,-63,-47
84,-5,2,-9,-14,1,-1,-34,-7,35
109,-3,5,47,42,49,-7,-14,37,39
-59,5,11,48,88,79,20,-4,50,14
-114,18,16,36,64,43,34,31,45,27
-59,19,8,13,4,-2,32,34,31,31
1,10,6,-15,-44,-33,3,1,5,19
-66,13,17,-20,-33,-38,-15,-20,-24,-67
-39,13,0,-26,-23,-38,-55,-24,-39,-92
213,23,-8,-32,-22,-18,-48,-7,17,29
260,22,-5,-11,-9,-11,-28,5,33,70
20,-19,-6,-7,15,-13,-22,-7,-5,-20
-207,-50,-15,-13,8,-7,-21,-19,-16,-49
-299,-47,9,-15,-9,-2,-20,-18,-16,-65
-469,-41,16,-19,-4,18,2,-9,-44,-199
-403,-37,3,-17,-12,21,31,5,-39,-248
26,-20,-10,-38,-40,-1,22,3,-14,-56
470,11,-14,-49,-36,-2,11,7,12,153
346,18,-6,-21,5,35,47,21,20,189
31,-11,-12,-15,83,119,81,46,24,95
-62,-15,-7,-3,123,84,65,64,46,29
18,16,5,-7,39,-50,28,39,74,6
167,60,17,76,-39,-83,-18,10,89,33
149,33,-9,120,-39,-28,-20,12,100,68
74,22,-7,56,-18,18,-12,33,70,80
33,30,34,-3,-48,-25,-33,0,-11,35
72,28,30,-38,-92,-79,-69,-49,-69,1
56,27,26,-9,-55,-89,-121,-88,-116,-29
-86,0,37,43,48,-16,-97,-101,-156,-65
-212,-49,4,23,62,29,-18,-60,-132,-68
-272,-59,-34,-23,20,35,52,26,-35,-18
-202,-30,-24,-19,13,69,79,49,23,16
-24,0,-4,-4,54,71,62,20,51,70
212,11,-10,15,100,94,-2,-25,41,103
424,26,5,20,56,59,-44,-46,38,86
502,51,20,37,0,-83,-21,-34,28,42
128,25,27,67,-12,-102,-1,-9,-7,-87
-188,7,22,29,-13,-40,-8,1,-19,-158
-284,-2,23,-15,7,4,2,18,-23,-176
-321,-49,-25,-67,16,4,25,32,-17,-185
-271,-63,-53,-44,-25,-22,7,19,-1,-94
-141,-65,-60,-14,-89,-30,-17,-1,-7,4
-26,-26,-33,-18,-46,2,-1,34,9,68
127,55,16,-17,-13,18,10,35,24,135
250,71,18,-62,-46,11,19,23,37,149
319,44,-15,-103,-88,21,29,13,31,86
161,14,-1,-50,-59,53,38,28,26,28
-144,-25,16,22,-11,27,2,12,-2,-31
-317,-52,7,54,29,-6,-31,-27,-45,-49
-386,-51,0,54,56,-9,-42,-32,-52,-62
-291,-35,0,27,40,-23,-28,-19,-32,-91
-24,-13,5,14,15,-13,7,-2,-7,-18
186,-3,20,6,26,17,38,7,1,18
194,3,31,11,38,16,35,7,-14,2
138,2,7,-3,16,-3,11,2,-6,35
108,9,9,-9,11,-4,26,24,35,124
83,22,-4,-7,18,1,12,34,32,95
47,9,-7,-7,12,-17,-5,22,4,11
120,12,1,-5,9,-28,-20,15,-12,2
108,18,6,11,11,-20,-33,-5,-36,33
-153,-15,-13,3,-5,32,-38,-35,-48,-60
-287,-57,-57,-32,-55,16,-41,-31,-18,-132
-24,-22,-24,-37,-33,-18,-12,19,34,-65
228,43,20,-26,-6,10,40,42,81,50
189,51,36,-20,24,13,54,41,99,120
-8,3,15,-15,73,6,7,11,39,73
-237,-16,13,10,5,11,-30,-46,-48,-29
-263,-28,5,41,26,22,-68,-100,-122,-146
-70,-43,-13,38,25,-5,-40,-55,-107,-133
115,-37,-25,8,-12,-55,-2,-18,-50,-8
110,-23,-9,2,8,-44,19,-11,-7,89
-8,-9,-10,8,-20,-14,0,0,11,65
-50,0,-9,-4,-48,-24,-16,17,5,1
4,23,-3,-25,-55,-19,-8,63,11,23
41,21,-10,-23,-23,15,3,79,23,51
-23,10,3,-10,-25,26,8,80,55,47
-130,-3,16,-2,-35,16,8,44,60,19
-169,0,24,14,7,24,18,6,27,-31
-38,15,23,31,29,40,50,-3,-5,-95
364,61,17,30,21,30,23,-39,-37,-92
284,5,-4,5,8,16,5,-51,-37,-34
-9,-27,-2,11,15,22,22,-42,-24,1
117,8,22,3,-3,-12,0,-59,-51,45
243,37,-2,-30,-35,-47,-28,-64,-59,136
82,27,-18,-21,-24,-29,-17,-48,-32,117
-106,-3,-1,0,-10,5,-2,-29,-17,17
-209,-31,-1,5,-4,10,-1,-12,-12,-70
-85,-15,2,14,28,5,7,-11,-4,-7
51,17,8,27,52,16,-17,-19,-2,42
58,49,1,9,28,7,-30,0,21,13
-24,24,-10,-17,-16,-42,-27,20,27,-27
-107,-14,-11,-9,-31,-51,-28,9,6,-104
-167,-34,-21,6,-7,-26,-11,0,-14,-177
-174,-46,-27,-12,-11,-13,-11,-13,-34,-164
-155,-56,-56,-49,-36,-25,-10,9,-11,-87
-13,-45,-56,-45,-40,-1,17,27,13,9
103,-18,-24,-8,-8,23,46,29,36,89
107,3,7,14,29,36,44,34,47,87
139,33,43,13,44,38,20,13,33,68
141,61,44,26,46,35,11,-4,28,86
142,49,16,22,38,18,18,7,51,187
146,5,8,0,37,8,30,41,73,215
-12,-26,-3,3,23,2,32,52,71,70
-198,-25,10,32,27,43,39,45,70,-93
-66,-1,23,46,31,54,16,7,37,-143
-80,14,20,22,13,1,-13,-60,-92,-225
-438,-41,-21,-33,-16,-40,-62,-114,-187,-309
-379,-48,-36,-53,-14,-50,-69,-74,-168,-237
11,18,-19,-44,-34,-59,-74,-19,-83,-39
107,19,-22,70,8,-33,-63,-21,-38,24
79,8,-20,107,8,-30,-23,-6,-15,74
71,26,6,9,-25,-34,16,18,6,134
150,43,35,-14,-20,-6,2,6,-1,132
205,25,16,-32,-1,17,-14,-2,23,139
135,19,2,-46,-13,31,-1,20,52,130
51,11,4,-33,-62,31,-22,18,46,105
-11,-10,3,10,-40,32,-28,1,34,77
45,11,28,70,24,15,-9,-11,27,36
156,31,40,131,87,13,13,-37,-13,12
31,1,31,102,71,21,35,-24,-20,-35
-97,-32,-4,0,12,9,21,24,21,-90
-117,-37,-26,-57,-3,-10,14,39,27,-62
-110,-29,-14,-12,8,-14,49,29,33,-13
-229,-17,-11,16,-3,-22,42,25,26,-83
-327,-19,-26,-68,-42,-36,10,22,0,-142
-17,-23,-59,-121,9,27,4,30,15,-40
285,-17,-87,-181,-68,78,37,72,71,80
73,-11,-38,-138,-179,8,41,85,82,83
-44,2,24,27,-19,-28,1,14,29,31
158,57,75,120,129,-9,-42,-59,-57,-2
217,63,82,113,73,1,-59,-92,-77,-10
74,45,51,67,-26,-19,-25,-50,-46,-11
53,25,23,0,-79,-46,5,-4,-5,11
2,3,17,-38,-90,-14,2,6,42,31
-113,-21,2,-22,-52,12,21,19,49,7
-119,-9,-21,4,19,19,35,24,22,-17
-32,-1,-18,28,51,33,25,9,-11,-20
6,0,-2,37,46,35,10,-9,-9,-12
-24,-5,7,34,38,32,20,-14,-8,-24
75,-21,-12,4,19,-6,18,-32,-1,51
55,-13,-31,-33,-4,-42,-15,-15,31,81
-17,-5,-31,-18,-23,-41,-20,11,51,19
11,11,-20,-3,-24,-42,-26,2,45,6
32,22,-13,-11,-5,-5,0,0,26,8
66,15,-17,-19,7,33,36,17,18,13
65,13,-10,-6,-6,11,21,23,15,14
-2,-7,1,-1,-19,-23,7,5,10,-1
17,-20,25,-10,-16,-13,-4,11,6,19
39,-26,47,-21,-17,-14,-12,21,-6,47
26,-7,25,-5,24,6,3,21,-30,59
-51,-5,-1,8,63,68,25,22,-11,60
-190,-22,-15,13,83,69,41,22,24,-9
-222,-21,14,19,58,6,51,22,40,-63
-160,4,42,20,-2,-31,23,18,17,-140
-46,0,23,0,-31,-37,2,-13,-1,-214
26,-13,-12,-16,-55,-25,1,-23,-3,-163
93,21,-17,-14,-53,-16,-11,-18,2,-58
188,55,-6,-6,-15,-15,-24,-35,28,51
183,41,-16,-7,-11,-41,-33,-44,30,101
-39,1,-20,14,-1,-16,-4,-4,21,57
-111,-4,0,32,26,16,10,20,10,25
-72,16,3,33,19,20,8,2,-9,17
-139,4,8,0,-18,3,4,-32,-42,-3
-115,-8,-1,-32,-48,-6,-5,-57,-48,-12
138,15,-5,-17,-52,-20,-6,-53,-20,2
197,14,2,14,-16,-36,-20,-22,16,87
93,-1,19,40,53,0,-17,3,28,132
-38,-2,38,33,79,38,23,37,29,85
-89,-6,32,7,37,25,50,46,30,14
-43,-21,1,-15,25,28,38,19,0,-51
42,-22,-7,-10,12,11,17,17,-24,-86
52,4,-8,-8,-13,-14,-17,5,-38,-41
103,16,-9,-16,-38,-24,-6,2,-20,12
32,3,-19,-37,-57,-22,-3,25,3,29
-73,-7,-31,-44,-43,-38,-1,25,44,45
-114,-19,-17,-11,11,-12,-9,19,44,18
-71,6,15,22,54,51,-2,18,40,-32
80,21,34,15,37,65,11,15,42,-13
301,9,-1,-7,-9,5,-25,-25,-4,54
96,-7,-12,-9,-28,-27,-36,-46,-82,-68
-340,-35,-9,7,-11,-1,-18,-41,-129,-330
-324,-72,-27,-16,-24,-3,-10,-37,-100,-231
-51,-24,2,-14,-28,-10,0,-13,-28,47
104,17,18,8,-19,-5,24,4,22,159
64,-14,-2,22,15,3,20,9,26,158
-6,-30,-8,31,55,41,43,29,22,111
5,-3,-5,0,29,37,34,21,29,77
32,8,-8,-3,27,12,19,2,24,43
105,-6,-8,-34,-17,-7,-11,-2,-17,-34
145,-4,-7,-60,-32,7,3,9,-47,-109
62,9,-3,-39,-5,0,12,34,-19,-128
-52,4,-11,-48,-11,4,8,42,4,-89
-52,15,-13,29,-11,-3,-27,22,-13,39
-34,22,0,150,13,-48,-59,16,19,93
-23,34,17,106,31,-23,-21,9,25,62
-21,22,32,29,-8,-5,-1,-17,-9,23
-16,7,18,-6,-32,-10,-69,-51,-49,-7
0,-7,14,-5,0,0,-66,-52,-55,-17
5,-23,-20,15,18,21,-28,-31,-31,-15
-16,-34,-39,-44,25,48,-12,-27,21,-7
16,-13,-13,-111,-11,-47,-21,-21,62,27
139,18,12,-84,-31,-92,0,14,65,135
200,27,9,-14,17,-14,60,45,63,220
108,0,3,37,42,57,59,41,41,185
-1,-20,6,58,62,127,13,11,-22,88
-116,-34,3,61,77,143,-19,-23,-69,-18
-312,-49,-20,29,36,29,-52,-47,-106,-160
-359,-23,-18,-5,-65,-134,-92,-68,-140,-321
-116,34,2,-12,-110,-196,-121,-87,-152,-328
97,25,0,-23,-81,-135,-102,-73,-120,-200
259,-7,-35,-67,-47,-41,-36,5,-15,88
150,-10,-32,-19,3,50,29,73,64,173
19,-21,-7,23,42,77,47,87,73,109
-41,-24,-3,25,44,63,65,69,58,33
33,20,47,40,45,31,19,0,5,-19
110,47,59,21,11,-29,-30,-55,-56,-51
-85,0,5,-12,11,-40,-46,-56,-119,-101
-239,-59,-13,-17,27,0,-75,-46,-197,-93
-110,-14,4,-12,15,37,75,-14,37,7
95,-5,-5,-22,-10,30,98,5,77,101
233,19,-13,-5,0,31,67,42,88,169
239,39,-4,3,42,38,69,101,95,167
48,5,-12,13,85,41,81,137,76,87
-37,13,0,49,49,18,52,88,63,18
-99,27,15,58,1,-26,-26,-22,14,-67
-180,9,10,24,-4,-55,-83,-104,-45,-174
-187,-34,-17,-13,14,-29,-81,-71,-6,-109
-106,-23,2,-15,3,-32,-50,-43,25,16
-62,-6,15,-55,-42,-30,-27,-24,42,20
31,-16,-16,-116,-36,7,7,9,46,24
-5,-39,-52,-162,-155,45,24,36,25,-22
165,13,-14,-90,-197,41,23,22,-11,-93
216,41,24,49,6,14,-8,-11,-16,-53
-6,24,22,86,134,7,-13,7,-7,14
-57,25,13,55,85,12,-3,19,-7,15
41,26,24,25,20,13,13,5,0,81
164,38,32,25,15,9,4,-32,0,174
127,19,37,24,15,-2,-14,-31,-1,128
67,21,23,13,-2,-21,-6,-17,14,44
98,34,18,25,6,-28,-1,-16,3,2
47,-4,-10,31,-12,-46,-23,-24,-19,-44
-214,-85,-25,-19,-93,-107,-142,-69,-178,-131
-382,-70,2,-44,-92,-62,-61,-26,-56,-189
-285,-31,-15,-41,-16,15,30,24,76,-116
-48,-29,-76,-31,10,25,27,40,81,21
91,-19,-76,-13,-2,3,20,35,84,89
88,4,-21,27,2,-1,22,34,74,52
58,17,30,42,21,16,29,34,53,22
15,18,32,16,24,20,51,27,25,8
8,19,-1,-14,-13,10,47,24,31,7
9,5,-20,-32,-35,-2,61,19,38,13
-96,-14,-3,-1,-7,9,60,18,18,-25
0,-9,5,-10,4,16,27,1,21,40
120,0,0,-23,-23,22,36,3,58,98
148,33,2,8,-14,19,28,22,78,102
206,58,5,1,17,17,25,23,73,130
185,60,21,15,40,19,9,31,46,115
47,51,32,41,67,9,7,26,19,32
-73,29,27,29,38,-14,-23,7,-30,-56
-142,-1,-2,14,-17,-36,-38,-23,-71,-119
-243,-31,-23,-27,-17,-11,-29,-35,-82,-200
-218,-32,-26,-33,23,34,-9,-14,-61,-232
-112,-23,-12,-23,0,-1,2,9,-16,-138
-22,-2,2,27,-22,-12,30,24,24,35
-7,-5,18,115,-2,15,50,26,53,93
-4,-2,19,98,9,18,40,20,62,99
67,24,44,75,22,10,2,-10,21,110
135,42,58,32,20,7,-19,-29,6,123
109,52,54,-6,51,38,-46,-56,7,133
182,22,13,-50,64,44,-1,-50,21,120
197,-7,-31,-43,-6,-16,12,0,46,110
81,-14,-34,-1,-63,-63,5,18,25,-30
-39,0,-26,-33,-60,-71,-28,-36,-69,-239
-296,-19,-48,-58,-38,-7,-55,-52,-123,-314
-71,0,-19,-61,-16,54,-11,13,-63,-157
346,18,-17,-87,-17,-8,14,49,2,95
104,-10,-28,-67,-1,-19,12,62,14,108
-173,-32,-21,-24,4,2,27,34,-11,-86
-166,-56,-22,-12,-20,-4,20,-5,-38,-147
-252,-46,6,10,-12,-1,15,-20,-8,-85
-264,-18,19,32,6,3,24,0,4,-103
-95,-2,11,38,6,-9,-5,-5,-5,-52
83,-6,3,39,15,-7,-39,-20,0,80
79,6,16,43,35,16,-21,8,25,108
49,10,34,57,23,8,3,19,34,99
22,2,36,54,-2,3,9,0,32,58
32,6,32,25,-15,8,-9,-12,45,43
71,22,27,17,16,19,-16,-4,22,23
92,31,22,-7,19,16,-16,27,-17,19
13,8,7,-15,6,12,-2,53,-53,14
-62,-20,-11,0,-1,20,-10,54,-51,-17
-51,-12,-5,14,-15,7,-7,13,-37,-7
2,-2,2,23,-21,10,-17,-47,-29,13
36,1,-5,6,-6,7,-44,-53,-35,25
49,-10,-31,-11,20,18,-42,-7,-62,27
114,4,-31,-31,16,15,-34,-13,-74,29
134,6,-21,-36,-29,-79,-64,-54,-68,49
49,-26,-20,-29,-39,-114,-55,-24,-51,45
-30,-37,-21,-16,-40,-55,0,30,-28,-2
-74,-33,4,15,16,40,47,54,-12,-24
-2,11,31,10,38,81,49,17,-12,0
41,36,30,7,-4,40,3,-32,-40,-20
4,36,29,30,-19,-19,-22,-89,-92,-83
-45,-1,15,12,-16,-29,-37,-108,-92,-103
-78,-34,-10,14,32,29,-53,-84,-77,-71
-81,-47,-35,6,62,53,-51,-19,-23,-12
-99,-37,-35,-14,23,-10,-17,66,43,13
-90,-6,-19,-35,-27,-50,9,69,34,5
39,33,0,-42,-31,-35,-4,21,7,30
207,34,2,-22,-12,-19,-12,-13,-12,96
247,17,0,2,-23,-19,-29,-45,-36,104
150,-3,0,-3,-37,-40,-36,-42,-29,73
-39,-13,10,4,-5,-23,-18,-20,-8,4
-91,8,23,23,47,6,-13,-15,-5,-67
-112,-12,-12,0,17,0,-15,-12,-12,-92
-244,-58,-45,-34,-29,-17,-9,8,-9,-101
-201,-44,-14,-23,-11,-9,-2,0,-12,-106
-56,15,28,8,34,24,10,-4,-17,-50
23,17,12,12,41,44,40,9,7,7
114,8,0,-13,11,31,32,0,-17,41
90,14,5,-23,-19,3,14,10,-8,26
18,0,4,-2,5,-5,0,18,-1,11
59,-7,-19,2,19,21,10,30,16,54
56,-15,-25,-14,12,43,14,49,32,83
23,-15,1,-6,-35,-10,-4,49,22,66
4,-1,8,-1,-62,-48,-16,28,6,10
73,17,-1,8,-12,-20,-20,42,21,29
42,19,0,33,34,31,-17,29,30,28
-118,2,0,57,49,100,5,-6,13,-57
-284,-31,-15,37,45,39,0,-21,10,-142
-313,-21,-11,22,48,-65,-21,-21,7,-101
-43,10,6,7,52,-82,-24,-12,11,60
375,33,14,-61,72,-49,-9,-5,30,206
412,11,-24,-138,60,32,61,25,57,266
261,20,-43,-207,-156,53,82,49,75,250
90,46,3,-89,-180,41,61,27,32,92
-235,4,29,130,-8,25,26,-24,-57,-180
-530,-29,8,175,12,-11,-22,-39,-114,-424
-372,-16,6,36,-59,-24,-18,-28,-105,-469
-65,-3,3,-13,-51,-34,-20,-24,-88,-329
-10,-35,-32,-24,-8,-21,-24,-1,-45,-109
146,-49,-13,-22,14,-27,-13,20,-11,80
258,-14,47,-26,4,-49,-10,18,0,163
339,38,44,-39,2,-48,-25,-18,-11,226
218,46,6,-16,4,-25,-30,-47,-14,168
23,-7,-21,-17,-1,10,-14,-21,12,68
-104,-27,-39,-17,-5,82,13,31,59,21
-114,-14,-33,30,43,126,-13,27,51,14
-97,-7,4,68,76,128,-12,-7,6,-6
-31,8,20,48,42,53,2,-26,3,16
31,30,33,36,7,-53,22,-5,23,55
-19,12,36,36,16,-66,34,3,11,61
-72,-12,34,70,40,-14,17,-8,-1,30
-13,5,35,77,65,40,21,7,26,28
0,0,23,44,47,29,44,17,40,24
-35,-14,-6,-12,-17,-19,21,6,33,28
20,-3,-33,-70,-98,-66,8,5,37,62
106,2,-29,-25,-103,-56,4,28,35,63
-35,-14,-36,-46,-35,-5,20,59,23,36
-92,-14,-54,-120,-22,19,41,42,22,-1
101,6,-51,-139,-45,-12,6,-5,6,-70
122,23,-14,-52,14,24,27,0,31,-76
99,30,27,49,71,49,25,8,25,-61
48,-22,16,70,52,18,-1,-10,-3,-68
-101,-72,-1,52,17,16,19,-7,-7,-60
-192,-11,4,33,11,1,3,-44,-41,-76
-174,53,4,-6,1,-11,-28,-79,-80,-128
-81,31,2,-26,-10,-8,-31,-70,-46,-66
-57,6,2,-7,-41,-28,-8,-19,9,-17
14,25,31,16,-19,-9,19,4,39,24
84,20,33,42,15,27,-2,0,30,94
23,-6,12,40,6,16,-16,8,17,59
-25,-7,4,14,2,11,-2,42,33,11
23,0,-1,15,18,5,4,53,49,13
122,-3,-21,-6,-3,-13,5,24,28,-4
156,13,-21,-19,-2,-6,0,-15,-1,-11
21,15,-4,0,33,21,3,-7,-3,-26
-50,6,13,7,43,5,4,2,5,-2
-33,11,10,-7,-5,-51,-13,-14,-21,20
-41,3,1,-7,-29,-39,-9,-44,-74,1
-17,13,-7,-16,-55,-6,-2,-46,-74,-11
49,8,4,-38,-83,-23,-9,-27,-30,-9
84,-6,-4,-23,-49,-8,16,-17,25,15
21,-2,3,9,8,39,51,11,109,41
-21,0,25,29,47,54,57,44,160,40
-33,1,45,43,70,45,64,40,136,49
-42,-25,27,20,53,21,39,43,73,39
-43,-28,13,0,11,8,15,59,22,24
-49,-13,2,-12,-12,-30,15,60,-5,9
-49,3,-10,0,-29,-58,-17,61,-32,-14
-27,0,-38,-13,-53,-52,-21,48,-36,-22
8,7,-47,-25,-62,-37,-20,25,-31,-20
23,11,-30,-10,-29,-12,-11,-11,-19,-36
50,5,-6,7,21,19,11,-22,13,-25
38,0,-1,-5,23,36,31,-14,39,7
20,-3,-3,8,15,22,54,-13,57,31
-69,-32,13,38,47,33,39,-25,48,1
-64,-1,34,40,54,25,12,-37,46,52
64,52,47,50,30,-4,-20,-51,26,184
56,82,48,39,3,-23,-42,-63,-27,137
10,40,25,17,-37,-40,-57,-68,-58,14
174,10,-5,-15,-39,-35,-46,-45,-53,8
260,6,-7,-38,-19,-13,25,11,-19,-3
5,6,14,-34,18,28,53,26,-2,-94
-110,28,40,-21,24,21,8,14,-19,-151
-93,0,8,-4,19,0,-14,3,-40,-141
-132,-34,-31,21,5,45,-9,-11,-47,-112
-134,-33,-29,9,-15,17,-9,-12,-28,-34
-65,-15,-16,-36,-21,-28,-18,-8,0,67
-23,1,-14,-65,-33,-43,-13,-2,6,66
-12,11,-16,-26,-47,-44,-15,1,-2,-19
-30,5,-18,83,-41,-18,-12,1,10,-55
-28,-3,1,95,-28,5,-9,1,23,-19
100,-3,32,12,-2,-3,-13,-11,24,70
269,7,40,-28,-6,-17,-4,-4,44,161
243,0,8,-32,7,-3,18,33,64,153
129,-2,-6,-1,52,18,19,36,48,76
71,5,-2,20,48,14,6,-8,-2,9
0,-20,-17,5,24,12,19,-25,-52,-42
-411,-68,-46,-17,33,16,0,-32,-106,-170
-749,-82,-41,12,73,8,-31,-47,-116,-266
-261,-31,-3,36,67,-10,-37,-18,-41,-109
166,-1,6,14,34,-11,0,42,26,39
233,7,-16,-32,-32,-18,2,71,49,135
101,3,-38,-85,-105,-46,-6,65,52,139
36,27,-11,-57,-91,-37,-13,31,42,91
55,55,16,-30,-57,-14,-12,5,9,27
-76,26,21,-19,-42,24,-3,22,-2,-73
-38,-7,5,-12,-25,32,7,30,11,-107
274,-12,-14,-11,9,-2,0,-5,-14,-113
182,-14,-6,14,34,-9,-30,-44,-71,-144
-39,-15,6,50,51,12,-41,-47,-71,-106
-42,-14,11,71,58,18,1,9,-41,26
9,7,20,32,29,5,5,30,9,133
80,8,25,-29,19,-3,30,26,49,159
164,11,23,-37,45,20,35,25,39,153
233,17,22,19,38,37,18,-5,-5,141
114,-5,17,56,-6,13,-20,-27,-41,48
-248,-27,-14,-28,-35,-33,-67,-46,-65,-68
-440,-21,-35,-94,-57,-48,-82,-39,-72,-141
-188,3,-48,-129,-79,-24,-40,-15,-48,-134
-15,-14,-48,-101,-52,-1,-1,14,-16,-90
-17,-18,-2,35,42,24,14,18,-3,-73
-31,7,40,125,91,17,-7,-12,-35,-84
10,24,44,107,31,-22,-16,-32,-63,-47
75,22,15,40,-24,-57,-19,-34,-40,30
97,-9,-3,-14,-23,-39,-21,-18,-3,78
34,-23,-8,-20,18,-9,-16,-15,5,64
9,-10,6,0,58,19,5,3,5,47
70,21,10,-17,82,33,-17,9,4,65
52,-17,-9,-77,19,47,-24,1,6,31
-65,-28,-15,-110,-202,4,-9,1,-5,-7
-116,-29,-8,-21,-171,-6,21,30,2,-13
-78,-36,-12,68,62,62,49,36,7,1
33,-7,-22,68,128,75,44,27,20,64
162,32,-28,48,49,11,9,11,13,108
246,49,-11,25,-15,-74,-35,9,13,76
319,57,11,9,-43,-89,-50,-8,14,47
178,27,32,4,-57,-87,-66,-46,0,30
-147,-36,11,-5,-67,-70,-85,-49,-44,-56
-449,-68,-25,-10,-4,-24,-44,-23,-53,-195
-429,-64,-45,-20,34,26,-16,4,-47,-203
-167,-24,-8,-11,13,39,0,12,-27,-94
60,18,16,5,-11,0,28,18,24,16
125,22,12,0,-15,7,52,25,65,72
108,20,12,6,8,80,44,15,32,56
72,17,3,24,54,103,36,14,-15,24
75,-8,0,17,114,69,36,32,-38,24
53,-11,-5,-10,41,-24,29,29,-9,35
-7,-12,-12,-42,-75,-133,14,23,15,-7
-29,-11,-2,-11,-41,-97,4,7,6,-4
-15,11,19,35,25,5,10,-8,-1,41
-25,22,20,45,31,40,25,-14,10,46
-37,13,-11,12,-5,15,15,0,28,16
-30,13,-13,-15,-30,-5,10,12,21,-7
30,22,8,-4,-15,9,-11,-10,4,-1
141,49,19,4,13,62,-32,-34,-10,30
273,53,23,-28,24,62,-15,2,14,78
365,65,20,-51,-11,-43,-15,30,37,135
223,29,1,-24,-34,-69,-28,9,35,125
-71,-20,-7,82,-26,-33,-14,-24,37,47
-423,-67,-26,80,-39,-12,-5,-58,8,-150
-646,-87,-10,-22,-45,-19,-15,-70,-26,-328
-600,-84,0,-47,-47,-18,-31,-48,-44,-289
-375,-74,-1,-28,-4,9,-12,-28,-57,-211
8,-25,-11,-20,51,38,24,-1,-47,-114
423,41,0,-22,55,25,38,20,-29,13
520,42,-11,-13,51,24,33,51,9,128
338,26,-14,5,55,36,57,72,51,196
94,34,6,9,20,25,42,57,39,90
-54,19,7,18,-14,-3,10,7,-8,-36
-36,19,-8,17,-39,-8,-6,-28,-36,-21
16,0,-18,0,-45,6,-7,-23,-25,27
-14,-4,-7,-2,-7,11,0,-9,-20,25
-45,9,12,18,34,-14,-24,-21,-34,6
-26,3,32,44,41,-13,-25,-28,-45,0
5,0,0,-5,-30,-36,-11,-33,-34,26
-9,-12,-20,-47,-95,-56,-15,-22,11,53
-20,-27,-5,-23,-58,-2,2,20,47,57
7,-18,-7,0,15,24,22,35,46,34
13,-1,2,2,67,43,43,46,33,13
-16,6,16,-8,66,69,79,59,33,18
-82,-8,35,-25,39,44,45,25,34,-7
-83,-13,32,-12,15,8,6,5,14,-2
56,6,14,8,18,-6,-8,5,7,57
191,26,4,18,17,-8,-6,8,25,73
222,2,-18,10,0,-9,-15,5,31,26
227,-19,-32,2,-22,-12,-40,-6,7,14
107,-16,-39,4,-38,-25,-42,-25,-19,34
-193,-9,-50,21,-38,-31,-56,-32,-34,10
-362,-44,-50,16,-2,-3,-39,1,-41,-57
-381,-57,-31,-38,26,26,-11,5,-43,-110
-94,6,15,-42,56,17,-15,-24,-46,-103
175,60,41,16,87,10,-17,-39,-37,-50
122,37,38,81,20,-19,-10,-39,-43,-51
11,-27,-5,7,-45,-43,-24,-41,-66,-41
-109,-64,-10,-65,-41,0,-8,-17,-45,-63
-71,-23,15,-66,-29,49,28,16,4,-51
144,34,32,-47,-59,2,34,27,50,46
109,42,50,0,-45,-3,18,16,42,38
-52,14,15,31,-14,27,17,4,25,11
-109,-11,-14,27,-26,49,37,15,29,24
-119,-1,-21,39,15,38,35,17,8,6
-60,13,-23,37,23,-6,3,12,-11,-26
-27,7,-25,17,-24,-64,-47,11,4,-39
1,-1,-32,-1,-29,-58,-51,18,19,34
11,12,-17,0,-5,-22,-12,18,29,99
75,26,0,4,11,4,6,0,17,73
269,42,9,7,26,0,1,-12,13,79
431,51,24,8,9,-2,3,-14,38,178
412,71,48,8,-2,-1,-9,-23,32,210
234,37,44,9,9,13,-6,-11,13,143
-57,-12,15,16,23,34,18,-1,9,13
-329,-53,10,25,42,37,24,-9,-36,-147
-520,-62,3,14,25,28,12,-25,-107,-306
-438,-44,7,13,1,8,0,-25,-121,-321
-245,-37,-19,-6,-8,-16,-16,-15,-88,-255
22,-28,-25,-9,-11,-17,-26,-12,-34,-115
145,-12,-11,3,-5,0,-19,7,16,17
105,-2,-8,-5,-8,-2,-18,28,50,124
125,6,-19,-23,-20,-5,-29,22,57,187
99,13,-29,-27,-13,-5,-19,10,52,140
36,22,-5,1,4,-1,-3,5,44,73
-8,11,-4,7,-17,-16,-5,20,41,43
-50,-31,-9,-9,-24,-18,-4,41,32,-11
-69,-21,4,5,2,0,21,29,25,-80
46,20,12,8,18,10,39,9,0,-50
245,28,31,8,16,-2,14,-22,-42,9
296,42,22,-8,-9,-28,-22,-68,-61,38
131,37,-4,-28,-23,-28,-32,-66,-65,0
-82,-14,-19,-14,-4,47,7,-11,-55,-50
-315,-75,-39,-6,23,85,39,17,-48,-120
-349,-77,-23,-15,-1,10,38,13,-24,-120
-147,-37,-9,8,20,-41,12,28,6,-30
25,-20,-22,28,41,11,-26,43,-3,28
61,-25,-53,-44,25,76,-23,104,3,70
55,-4,-32,-58,-15,-53,-6,104,40,64
84,45,11,-54,-60,-135,-6,48,85,69
107,67,33,60,-15,-95,-28,-15,93,60
85,80,80,152,41,-27,-42,-47,93,52
25,45,59,32,69,21,1,-16,117,59
-9,-9,6,-123,-76,44,30,14,112,57
36,-10,2,-126,-208,49,44,20,67,67
50,-1,30,5,-42,57,33,0,-28,32
43,0,29,79,112,14,-7,-33,-105,-36
-40,-17,16,62,62,-17,-37,-64,-141,-75
-130,-39,-7,30,-4,-27,-29,-76,-125,-94
-22,-4,-9,0,-21,-19,-5,-81,-85,-48
52,16,-2,7,7,45,4,-61,-61,20
31,14,12,15,33,46,17,-15,-41,40
-25,9,8,9,33,-12,11,1,-28,-9
-61,14,2,7,-9,-51,-13,27,-26,-67
-62,0,6,10,-5,-41,-13,32,-17,-53
-39,-13,-16,3,-8,-13,17,39,7,-1
26,-2,-24,-2,-28,-8,33,37,26,39
2,-14,-34,-8,-38,8,50,44,27,25
-67,-40,-28,17,7,45,46,45,30,-28
-46,-27,-3,16,37,27,-1,4,21,-49
-90,-16,0,-19,53,27,-54,-63,-12,-78
-166,-4,-17,-65,22,28,-68,-96,-44,-98
-41,15,2,-56,-46,-88,-84,-111,-54,-57
123,33,16,-15,-56,-133,-70,-67,-3,26
160,28,1,-3,-3,-74,-1,5,30,96
123,14,-14,-10,17,-4,55,33,40,134
178,9,-12,-6,7,35,55,27,37,177
94,11,-7,-2,17,62,44,25,34,91
-8,19,0,9,37,81,43,35,46,13
69,18,28,58,19,53,25,30,35,26
69,2,57,82,-5,4,-23,2,11,29
61,13,31,5,4,-20,-54,-3,14,76
63,23,-9,-41,13,-25,-33,9,28,114
27,-6,-33,-72,-26,-36,-12,10,29,93
-58,-35,-57,-60,-69,-39,-24,7,22,47
-130,-53,-62,-37,-78,-22,-2,4,-1,-19
-117,-49,-31,-61,-20,30,28,22,-13,-92
-172,-28,-25,-48,22,70,58,53,0,-173
-246,-30,-11,-15,45,62,62,45,6,-212
-245,-32,0,8,44,-2,1,-9,-24,-247
-222,-19,3,46,59,-32,-46,-47,-69,-263
-35,-13,2,46,54,-27,-34,-49,-73,-148
74,-3,17,30,60,1,-2,-18,-22,9
178,39,30,37,49,10,4,-17,12,145
358,67,33,45,11,-10,0,-20,-4,182
337,37,28,48,-36,3,19,16,-9,131
102,25,18,-4,-86,22,37,49,19,61
-86,-4,-6,-67,-132,4,35,60,52,-13
-74,8,4,-34,-96,-11,-8,32,46,-50
-26,20,10,31,6,-14,-36,-21,17,-15
-70,4,-1,53,82,-6,-29,-43,-4,15
-101,-12,-14,38,73,-1,-12,-28,7,7
-77,-13,-6,13,27,-11,-18,-13,6,0
-80,-22,-12,0,9,0,-15,-6,1,8
-121,-36,5,4,12,27,2,-5,11,-10
-74,-28,5,-10,11,24,17,0,12,-19
-15,-18,0,-9,11,16,20,14,10,7
84,-21,-7,6,12,8,14,11,2,27
113,0,-2,6,18,16,47,1,-6,80
54,3,0,-1,-4,-14,40,-18,-12,123
31,8,-3,-15,-23,-35,-14,-41,-9,97
211,39,2,-9,-12,-26,-42,-48,-16,20
215,4,-6,14,29,0,-20,-16,-27,-64
23,-7,-14,-14,20,2,-17,11,-36,-92
-217,-13,-56,-64,-30,-23,-13,48,-16,-72
-197,-21,-43,-72,-27,-21,19,85,45,33
-67,3,-9,-21,-12,-23,15,78,61,64
-7,19,12,81,-24,-26,-5,36,38,9
0,52,37,67,-24,-7,-11,2,-7,-75
27,63,66,16,0,32,-17,-38,-39,-133
59,18,44,4,16,88,-12,-56,-52,-76
45,-14,6,0,18,56,4,-21,-12,23
61,-21,-10,-25,7,-27,2,-7,13,62
38,-3,11,-14,4,-48,3,-15,20,50
-14,-5,13,5,17,-11,11,-6,34,2
-52,-16,2,14,2,0,14,1,55,0
-50,-15,-3,10,-15,-6,20,6,36,-7
-1,9,19,-7,-3,3,30,-2,-12,-20
43,12,15,-14,1,8,9,-34,-55,35
76,13,4,5,10,14,-20,-36,-36,156
-79,27,8,43,5,-11,-34,-40,-18,83
-97,23,15,25,-21,-39,-10,-5,6,-13
17,0,2,2,-24,-24,-1,32,47,-5
-46,-24,-16,-8,-17,-7,6,54,65,-28
-89,-22,-23,1,26,31,41,51,44,-57
-3,-7,-24,33,52,65,38,48,34,-43
117,19,-4,34,8,7,16,21,18,3
25,21,27,28,-32,-50,9,-11,-11,-3
-67,8,15,12,-10,19,21,-12,-12,-12
-67,-9,12,-24,0,44,30,27,29,24
-48,-32,-2,-65,-15,10,15,22,46,15
81,-2,7,-61,-17,51,-1,-21,12,1
208,25,17,-4,-4,18,23,-9,37,60
100,25,18,15,-9,-31,56,30,84,80
-49,18,9,16,-29,-19,70,24,76,10
-99,17,-3,2,-41,-8,44,-12,41,-42
-171,5,-4,6,-9,11,0,-19,12,-101
-96,-3,0,8,35,24,-2,-13,-3,-84
102,-5,-7,3,44,28,8,4,29,59
135,14,-13,-3,11,0,12,22,46,136
117,52,-12,-19,-34,-34,6,7,38,95
324,52,-13,-7,-26,-26,-33,-43,8,111
444,45,-14,7,0,-12,-67,-73,-22,67
30,-9,-6,-18,-26,-57,-70,-47,-47,-170
-522,-61,-20,-40,-58,-51,-33,-11,-39,-296
-433,-65,-27,-18,-38,-14,-5,24,0,-195
-102,-12,1,29,39,27,26,68,45,-27
72,26,29,78,70,38,54,65,9,78
76,20,36,76,46,37,34,26,-25,88
-26,-11,22,18,27,26,40,8,4,20
-166,-29,15,-16,24,23,34,-12,-15,-99
-209,-46,-4,-34,7,19,4,-42,-39,-148
-68,-44,-41,-3,-31,-11,-1,-53,-16,-66
49,-28,-42,-21,-26,-2,0,-25,15,11
29,1,-15,-16,29,31,-1,10,35,24
-14,29,-4,20,11,36,11,41,66,40
57,60,-2,19,-18,22,19,45,94,86
139,55,10,28,0,4,2,17,83,91
43,19,14,33,45,-23,-23,0,67,59
-27,2,14,16,25,-47,-22,3,30,35
181,31,23,-45,-10,-57,-15,23,-14,37
246,10,-16,-91,46,24,20,18,-32,51
77,-34,-47,-136,-82,67,48,2,-13,37
-18,-22,-26,-71,-147,15,47,2,-5,60
-135,-23,8,36,-3,1,62,-11,-10,52
-278,-30,15,74,83,19,51,-24,-39,-36
-258,2,43,63,50,19,25,-25,-49,-134
-33,24,39,49,8,0,7,-16,-39,-89
163,21,24,31,14,-34,-62,-20,-23,-3
132,16,-2,5,6,-55,-93,-20,13,32
143,11,-16,-6,-8,-35,-55,0,27,40
341,39,-11,-2,0,-28,-29,13,39,61
249,63,10,16,2,4,-13,19,25,-1
-77,28,31,35,21,74,10,0,-7,-127
-202,3,11,14,18,39,-16,-29,-44,-138
-118,-2,-25,-26,-11,-52,-37,-11,-25,-41
-93,-13,-37,-40,1,-65,-43,10,-17,34
-109,-15,-24,-23,39,-36,-11,18,-3,52
-45,-10,-1,-24,42,1,11,-3,0,44
70,-4,1,-32,17,30,27,0,6,90
114,5,9,-44,-39,36,51,29,43,148
28,6,2,-6,-81,33,78,54,49,111
-33,-20,-33,47,-101,27,74,45,40,52
3,-21,2,21,-66,6,25,9,16,48
-22,-2,61,10,26,0,-13,-26,-3,-28
-86,-16,32,1,28,-9,-25,-35,-25,-145
-99,-23,6,4,40,-3,-25,-19,-47,-195
-12,-8,-8,13,59,2,-31,-30,-56,-98
96,14,-11,5,44,-9,-29,-18,-35,9
105,16,-11,-12,-2,-20,-25,1,-8,0
-14,-6,-20,-40,-48,-43,-18,12,11,-31
-166,-32,-18,-37,-47,-42,-7,23,31,-56
-236,-37,-5,-6,-10,-14,0,29,29,-70
-193,-28,5,26,13,14,-7,17,25,-32
-86,-9,6,42,32,39,11,3,46,47
197,54,23,29,47,56,41,-3,40,128
479,79,27,-2,8,40,14,-36,-14,169
283,41,9,-13,-6,17,-24,-54,-42,166
18,-4,0,-3,15,-19,-44,-49,-60,97
1,-38,-3,9,24,-20,-28,-44,-89,-29
-172,-51,-17,4,17,9,-9,-22,-93,-169
-322,-47,-24,-10,22,-17,-19,-26,-93,-220
-202,-23,-9,2,30,-59,-36,-13,-77,-164
-114,-23,-16,10,31,-47,-43,19,-66,-128
-90,-31,-39,-7,18,-17,-27,30,-30,-46
0,-15,-38,-29,-33,-30,-54,4,-28,31
259,26,-28,-59,-118,-48,-79,-40,-57,70
260,15,-19,-38,-88,0,-40,-13,-42,87
44,6,-10,20,4,51,8,18,-3,100
33,45,16,41,34,55,24,13,31,98
65,32,61,-6,-18,4,23,14,41,65
2,-22,64,-58,-59,-43,1,24,38,32
-66,-57,-8,-68,-5,-16,-1,13,30,21
-44,-31,-26,-12,63,16,0,2,5,19
1,3,-4,17,62,26,16,5,-2,21
26,-7,-9,20,44,35,12,4,2,24
60,-17,-14,15,23,0,38,40,17,0
183,15,2,-21,-26,-36,27,46,-6,-15
152,32,-2,-57,-53,-50,-25,-6,-40,-1
-71,-12,-27,-44,-33,-43,-60,-32,-88,-45
-243,-33,-27,6,-8,-24,-34,-15,-98,-167
-252,-39,-39,13,-8,-27,-2,4,-37,-150
-255,-52,-30,-9,-18,-6,16,10,13,-77
-98,-26,-11,-9,-3,10,-1,-7,24,-28
67,34,6,9,-8,-5,-25,-33,8,21
84,42,13,22,-6,-12,-20,-20,9,45
50,26,12,37,12,10,5,6,21,35
34,6,15,33,22,12,25,3,32,20
75,7,8,66,57,32,55,23,78,100
44,11,12,58,82,53,55,66,109,157
-43,-1,15,7,51,37,33,63,89,113
-46,-8,17,-33,34,25,29,27,40,36
50,20,9,-32,11,2,9,-49,-29,-1
239,49,5,15,-27,-33,-22,-115,-92,-36
169,19,0,-16,-21,-25,-38,-109,-115,-102
-17,-11,-9,-34,5,5,-43,-64,-77,-109
-28,-23,-10,-38,-12,2,2,5,0,-18
-241,-46,-15,-33,-24,2,32,37,19,-23
-289,-32,-10,0,-8,1,2,10,0,-67
-105,-1,-8,7,-7,-13,-31,7,13,-1
93,39,10,9,-9,-19,-18,27,15,65
226,68,23,-1,-19,-26,-13,25,29,111
340,71,17,-1,-28,-24,-23,-7,32,161
302,24,-5,6,-17,11,-16,-21,29,155
232,0,6,26,24,56,3,-1,35,135
73,4,19,38,36,56,26,-7,2,41
-224,-24,12,32,18,24,17,-12,-26,-116
-327,-23,7,17,8,-19,10,-8,-38,-176
-295,-2,16,3,9,-24,13,-4,-43,-214
-215,-26,1,-7,0,13,48,7,-23,-216
-16,-66,-15,-28,-20,34,75,-3,-20,-141
19,-68,-21,-29,-10,29,46,-13,0,-21
-90,-51,-17,-13,18,3,-7,-5,30,36
-98,-11,7,27,29,-16,-18,21,37,30
76,43,30,67,40,-51,-66,-5,18,93
105,28,-4,21,-13,-98,-93,-9,18,154
42,1,-32,-40,-47,-55,-30,54,61,117
189,24,-5,-49,-45,-18,16,61,51,80
214,42,1,-42,-67,22,49,49,40,69
90,44,22,-7,-60,56,57,49,38,19
26,45,22,2,-28,90,43,28,6,-71
34,27,20,3,12,79,50,16,1,-74
-114,1,16,21,31,9,46,-3,-9,-60
-277,-40,15,13,67,3,30,-14,-39,-95
-227,-35,4,6,71,4,23,-9,-33,-132
-96,-15,-2,27,36,-4,5,-12,-22,-83
12,-11,-5,115,-11,21,0,-7,5,17
70,-23,-4,170,-11,23,-4,-6,18,98
72,-2,5,76,32,23,12,3,36,137
50,29,47,10,71,11,8,-9,27,86
84,31,40,-32,50,6,-14,-17,26,45
101,-15,-36,-108,49,54,-16,8,60,96
-8,-50,-70,-167,-24,17,9,62,130,146
-8,-23,-34,-147,-188,-42,40,89,143,120
124,68,41,3,-113,9,58,59,86,30
198,92,61,90,64,3,-2,4,-3,-79
5,85,80,95,88,-41,-64,-50,-79,-207
-68,74,89,66,22,-55,-79,-107,-168,-318
18,-37,-20,-54,-60,-78,-86,-141,-183,-142
-123,-104,-109,-105,-99,-84,-69,-94,-103,46
-398,-90,-84,-39,-60,-15,-8,-14,-23,-48
-233,-42,-30,-11,-21,33,33,30,37,-31
68,9,23,12,9,48,52,46,56,81
146,24,56,35,47,34,42,27,39,102
101,20,58,58,47,6,9,-1,11,82
19,9,43,49,25,-11,0,-13,-5,31
0,2,25,25,6,-16,6,3,-4,-5
-13,5,4,9,-16,-12,-10,12,0,-21
-26,5,-21,0,-23,0,-19,10,6,-28
11,-4,-50,-23,-22,2,-23,2,-7,-21
57,-21,-78,-51,-25,-5,-12,1,-1,48
38,-14,-48,-38,-23,-12,6,16,31,118
-26,-18,-15,-12,-11,-14,16,7,28,99
-82,-31,-10,1,-3,0,2,0,2,26
-39,-2,2,3,0,32,16,9,1,-43
57,40,31,1,19,35,17,11,-2,-78
84,33,37,5,29,17,10,-1,-11,-107
-45,18,22,14,9,7,-8,5,-7,-87
-102,-1,14,22,-6,-4,-4,-5,19,-34
-60,-22,18,10,-4,-7,24,9,33,15
-20,-24,-5,-1,2,8,31,40,32,56
-71,-8,-18,5,13,25,42,30,48,57
-60,3,-8,10,11,11,9,2,30,3
39,9,-9,-9,-9,-29,-23,-15,2,-6
77,27,9,14,-9,-25,-21,-13,-18,-1
48,16,4,47,14,2,-11,-1,-22,7
86,13,-3,-8,-6,10,-13,-10,-26,60
256,32,-6,-70,-37,-25,-23,-12,-34,93
214,15,-28,-89,-29,-28,-17,-8,-31,-4
-38,-23,-51,-33,-30,-33,-24,-18,-27,-67
-167,-49,-43,16,-40,-14,-17,-32,-21,-88
-101,-40,-25,-37,-23,-6,14,-8,2,-34
-56,-11,-7,-35,1,19,38,36,45,25
-28,20,17,-6,32,49,48,31,70,27
-36,12,20,26,56,47,51,14,64,-10
-20,3,18,52,72,52,28,-14,34,-36
148,8,25,45,60,19,-14,-58,0,6
131,6,32,30,7,-32,-16,-48,-9,17
-21,7,31,23,-18,-24,-23,-8,3,10
-59,13,46,2,-35,-32,-38,-7,-16,12
-38,6,40,-24,-33,-30,-39,-15,-27,6
-14,2,-21,-17,-14,-17,-34,0,-34,4
26,18,-40,7,-13,-32,-19,30,-17,8
45,28,-12,9,4,-17,6,19,-14,18
41,14,2,11,27,21,-29,-7,-29,50
39,-22,-4,22,49,43,-51,-7,-32,133
53,-38,-26,0,33,37,-46,19,-8,168
11,-41,-15,-12,-19,-19,-20,57,9,121
-80,-47,-6,-37,6,-17,-7,19,-11,-23
-69,-20,-22,-54,36,4,0,-31,-41,-105
155,27,-27,-62,8,-38,-2,-53,-50,-140
32,-3,-32,-36,0,-35,-1,-45,-64,-201
-249,-53,-32,65,9,-23,2,-24,-28,-169
-272,-50,-20,75,17,-1,-2,0,33,-154
-162,-11,17,29,42,51,-13,17,30,-157
-2,32,59,22,5,32,-34,6,-5,-73
63,19,37,-13,-97,-56,-47,1,-48,27
24,-4,-26,-35,-92,-61,-3,37,-44,104
14,12,-29,-34,-53,-4,45,59,-18,125
69,28,2,-16,-17,20,49,39,-16,120
117,15,12,9,17,23,5,20,-30,101
110,19,24,16,27,3,-24,-6,-24,100
159,29,18,20,28,-19,-56,-27,-31,66
141,13,4,24,46,-6,-50,-18,-43,9
51,-12,0,14,46,12,-26,-16,-57,-78
-85,-12,0,16,31,22,-31,-45,-74,-100
-152,-11,5,16,-4,-1,-29,-62,-85,-70
-202,-26,-5,-12,-41,-13,8,-37,-58,-83
-220,-59,-7,-15,-70,0,59,-6,-26,-123
10,-55,-6,-19,-64,20,76,20,34,5
187,6,2,-28,-46,22,68,37,85,117
74,29,4,-34,-61,-2,32,36,87,65
5,24,0,-10,-22,-13,11,28,83,28
-41,8,-9,9,45,-2,18,16,53,-16
-109,-5,-9,14,63,7,3,-5,-1,-53
-101,0,4,23,21,-11,-43,-28,-50,-20
-12,16,11,23,-13,-44,-64,-45,-70,25
17,12,0,-11,-34,-29,-62,-48,-35,16
3,-6,-13,-29,-22,14,-36,-9,-9,18
155,13,19,7,13,27,-10,10,-2,42
280,12,13,-1,13,6,12,0,20,89
214,-22,-9,-17,5,5,37,24,39,75
89,-24,-12,-6,1,-15,23,18,30,22
-39,-5,-9,-2,-7,-31,33,10,6,-23
-142,15,6,31,18,-3,22,15,-2,-66
-274,-5,15,44,36,22,-13,-25,-25,-100
-301,-40,15,29,1,11,-12,-38,-39,-98
-141,-27,12,18,-21,16,25,-5,-6,-18
9,-3,0,53,10,8,68,37,43,34
110,25,5,52,51,3,50,54,78,93
98,46,25,10,84,0,3,33,57,77
92,53,13,-107,42,-18,-23,22,23,54
204,48,-27,-136,-8,-19,-14,-2,10,103
143,-6,-75,-147,-191,-21,-26,-22,22,46
-4,-18,-60,-143,-247,-11,-13,-3,16,-94
-132,0,-24,-30,-39,-13,-13,-5,-8,-167
-213,-10,-3,46,123,19,-20,-18,-23,-160
-174,-7,18,79,112,27,-10,-11,0,-103
-71,1,31,76,68,39,13,-4,16,-30
81,10,23,48,13,19,25,20,31,48
225,7,19,37,-11,-17,33,28,29,85
290,-2,15,25,-27,-28,7,4,20,126
127,-9,10,30,4,-2,8,-6,18,141
-87,-14,17,30,54,48,33,14,26,42
-158,-17,11,9,56,51,37,39,27,-15
-150,-4,-4,-2,50,26,44,40,32,-29
-120,2,-4,5,20,10,21,12,6,-56
98,27,7,10,-19,-10,11,-20,19,-43
312,41,2,0,-40,-24,-20,-45,11,3
189,17,-27,-33,-61,-20,-35,-43,29,67
49,10,-33,-25,-45,-3,-20,-18,60,137
13,0,-11,10,8,18,26,15,80,165
6,6,12,35,29,24,56,25,58,128
-96,8,8,23,-5,47,33,0,26,31
-262,-33,0,20,9,63,9,-17,-5,-98
-310,-43,5,28,77,48,19,-18,-34,-183
-190,-10,3,30,140,104,-2,-15,-46,-184
-77,-3,14,15,113,98,-1,14,-12,-126
-1,-14,6,-20,10,-108,15,42,28,-52
144,15,4,-31,-95,-199,-16,29,-11,-38
364,26,-18,-59,-143,-145,-40,-14,-68,7
135,0,-23,-52,-100,-44,-35,-31,-47,9
-278,-47,-33,-18,-21,5,-26,-23,-31,-71
-282,-35,-21,8,5,22,-3,-2,8,-94
-37,21,0,19,11,22,-13,10,63,-24
89,44,8,31,45,69,-10,18,79,33
72,43,13,37,80,109,7,22,52,58
27,19,24,34,22,13,-6,24,2,98
2,-7,15,1,-36,-70,-40,12,-55,82
75,9,3,-30,-36,-70,-63,7,-86,72
143,39,18,-20,-19,-30,-58,-12,-107,53
107,15,35,13,19,16,-35,-37,-135,2
64,-46,27,28,55,32,-9,-44,-136,-32
-31,-56,5,-9,42,17,1,-20,-111,-40
-80,-16,2,-44,12,21,7,21,-64,5
-65,8,-2,-69,-15,32,24,44,-10,79
-71,-10,0,-6,-33,2,13,7,-11,58
-80,-47,-2,86,-38,-24,-5,-21,-22,-37
0,-31,-4,49,-48,-39,0,-26,-12,-114
30,3,18,4,-43,-60,-36,-35,-32,-150
42,22,7,-25,-28,-34,-46,-44,-35,-95
16,17,-18,-33,18,10,-30,-37,1,1
14,0,-24,-15,39,6,-19,-7,39,78
51,-4,-17,-4,51,-8,-18,24,45,107
82,10,-5,9,48,-15,-20,1,15,69
-15,2,-11,11,23,0,-4,9,7,-7
-139,-29,-19,4,-1,18,22,30,22,-65
-129,-38,-12,-12,-36,14,35,31,32,-30
-88,-20,26,10,-55,31,34,26,25,17
-45,-1,27,28,-46,31,22,-7,-1,37
6,7,-2,-19,-54,28,32,-8,3,61
39,23,-13,-38,-45,5,18,6,7,59
106,-5,4,-10,27,4,14,-10,-18,27
163,-6,-4,35,54,0,-1,-36,-29,56
182,8,-4,44,37,-9,-28,-47,-26,56
95,2,-13,19,27,-19,-41,-27,-47,1
-70,-16,-14,-15,-6,-21,-43,-10,-35,-53
-67,-3,-19,-68,-52,-51,-38,13,6,-24
-32,3,-34,-83,-64,-52,-12,35,26,-6
1,35,-31,-29,-30,-10,1,51,47,1
-61,5,7,9,1,0,-2,37,25,-22
-183,-41,36,15,0,-11,-3,8,-20,-94
-140,-30,38,10,-22,-15,-5,-10,-36,-77
70,22,6,-7,-33,-5,-16,-30,-36,3
151,21,-23,-14,-29,2,5,-30,-13,60
77,-15,-26,-1,-9,18,32,-1,17,73
95,0,-10,43,26,34,63,24,38,100
165,40,40,105,60,45,59,31,57,83
306,50,60,95,112,48,44,5,43,99
238,28,39,17,104,41,40,12,33,86
-136,-3,6,-72,-5,-4,23,2,-8,-44
-519,-40,-30,-49,-75,-58,-50,-13,-33,-180
-535,-61,-41,-14,-33,-40,-100,-46,-61,-279
-237,-29,-27,-54,-11,-15,-92,-48,-56,-215
85,20,-24,-58,-37,-4,-16,26,20,47
223,50,-12,-34,-39,-22,24,58,78,199
276,44,22,19,18,-23,0,20,50,167
222,15,18,34,26,-31,-19,-23,-10,80
-83,-38,-20,-4,-29,-29,-10,-26,-31,-29
-251,-54,-13,-7,-40,-9,10,-4,-13,-124
-182,-32,14,34,37,35,15,-1,-4,-139
-109,-18,16,58,74,54,18,-3,0,-105
52,11,9,36,47,19,17,-16,11,24
324,45,10,-3,-1,0,33,-5,45,194
420,51,27,7,-16,10,35,6,66,238
229,30,24,9,10,45,56,26,73,168
-210,-12,12,20,17,56,47,37,42,-24
-483,-52,-11,36,14,20,54,22,-25,-240
-366,-42,-10,60,36,39,16,-20,-67,-291
-174,-9,-15,51,37,-3,-53,-63,-86,-240
-50,-10,-22,-7,-2,-102,-105,-91,-89,-157
149,-9,-35,-69,-65,-128,-94,-57,-46,58
249,18,-2,-53,-37,-84,-64,-16,13,228
143,29,12,-46,-4,11,-12,25,59,192
52,9,-30,-91,26,93,39,65,50,81
28,-15,-61,-130,-44,53,43,82,25,9
-9,-12,-62,-123,-201,1,62,61,31,-36
-72,14,-6,0,-120,3,36,9,19,-110
-64,15,39,79,75,20,11,-31,-7,-136
70,18,27,73,105,28,18,-20,30,-38
121,9,20,60,59,42,29,16,83,62
23,-20,18,50,28,20,23,13,74,70
-42,-21,17,34,26,6,8,-3,24,50
-42,-13,9,-4,1,-13,-8,-14,-28,0
2,10,10,-3,20,-3,-8,-2,-37,7
34,40,25,1,41,31,13,26,-16,23
42,33,19,6,22,36,40,38,0,30
49,30,13,18,6,33,40,23,26,59
41,17,4,28,9,25,0,-11,32,59
-12,-14,-14,-4,13,-36,-26,-33,0,11
-50,-29,-10,-36,-24,-60,-8,8,-6,-1
-36,-16,5,-17,-26,-18,14,29,9,8
-27,-3,4,11,-11,17,7,8,47,-3
10,8,-4,83,0,2,11,17,42,-29
80,55,10,88,-4,-20,9,0,3,-33
52,53,17,-7,-27,-27,3,-23,0,-5
-49,-14,0,-51,-25,-35,12,-3,3,-7
-86,-66,-35,-74,-13,-9,45,38,13,-6
-47,-47,-20,-32,38,30,38,58,0,2
-2,-9,6,-1,46,32,22,19,-32,-6
25,16,36,20,15,-7,-39,-78,-82,-14
10,-3,23,1,-17,-34,-61,-99,-59,-5
2,-8,-7,-10,-16,-7,-23,-46,-8,23
-51,7,-8,9,16,37,7,-15,18,-4
-66,0,-4,7,15,27,-6,-15,4,-39
-21,14,-4,-30,-36,-20,-30,-21,7,-39
-10,20,-18,-17,-37,-26,-28,-8,14,-33
22,4,-12,47,22,-4,-19,-3,-1,-21
125,3,-5,55,55,18,-3,0,-4,37
225,8,-16,34,61,22,6,21,12,163
227,13,-16,9,72,17,14,27,45,259
125,20,10,-2,67,19,17,1,38,209
116,22,17,-37,19,-10,-8,-55,13,138
10,17,15,-16,-4,-16,-16,-61,-4,36
-162,-1,41,23,3,21,40,7,19,-113
-190,-11,35,26,-30,36,64,51,23,-260
-103,-27,-13,-63,-119,10,58,47,0,-305
6,-32,-37,-114,-167,-27,59,50,6,-242
-256,-25,-26,-46,-109,-35,24,23,-9,-214
-445,-51,-26,-15,14,-20,0,-12,-17,-149
-302,-36,-10,9,79,17,3,-6,0,-48
-84,-6,4,16,53,46,28,7,0,48
91,4,-12,2,13,3,12,7,-3,85
228,20,-1,20,10,-17,-7,2,11,128
193,39,24,23,21,-19,-38,-5,1,91
122,35,26,18,30,-30,-66,-14,-15,35
117,2,1,36,34,-12,-30,9,-14,37
86,7,-4,57,26,-4,4,48,25,71
31,3,-10,-3,-40,-28,-11,36,48,66
-33,-12,-14,-31,-21,-14,-21,-7,9,21
-73,-16,2,-34,55,44,28,-17,-9,-24
-83,-17,6,-2,65,80,39,7,-10,-27
-75,-13,-5,14,-2,41,28,11,-2,-21
0,3,-1,-39,-45,-38,-2,-1,-16,-8
59,10,-1,-52,-34,-48,-17,18,-4,38
93,27,1,-47,-11,-9,-2,40,33,73
84,10,4,-17,-3,11,-10,24,29,71
39,0,-3,33,-6,-5,-43,-18,-19,39
-49,4,1,42,-7,-35,-53,-23,-43,-20
-73,0,-7,8,-20,-37,-55,-26,-39,0
-14,5,-10,-5,-7,-10,-19,-4,-20,38
12,1,-7,0,-11,16,12,15,-25,-24
211,26,9,13,9,35,19,-7,-52,-45
322,21,11,-2,2,5,-19,-34,-69,-35
79,-8,-1,-9,-7,-26,-28,-20,-63,-50
-113,-38,5,19,21,0,7,-11,-40,-61
-203,-54,-2,18,35,16,24,-13,-22,-80
-123,-40,-3,-6,6,-14,4,10,1,15
-63,-15,17,-20,-16,-11,-11,27,19,79
-95,-6,19,5,-10,25,-20,12,6,22
-62,4,15,-8,-29,1,-18,-7,-1,0
18,30,16,-11,-59,-17,-16,1,3,26
52,10,6,3,-40,-21,2,11,14,18
-44,-2,7,30,8,-10,11,13,22,-17
-94,-4,-13,28,36,8,-5,7,-1,-61
-95,-34,-39,0,27,4,-10,1,-28,-89
4,-17,-50,-13,2,5,-27,-10,-27,-61
212,30,-29,-39,8,4,-19,-18,-33,6
334,53,-2,-38,-5,-18,-33,-24,-28,56
185,11,-3,-41,14,-12,-31,-19,-24,70
0,-4,1,-51,14,-6,-15,-18,-22,81
-11,6,-2,-35,0,0,7,-6,-21,36
-39,7,4,46,0,12,36,0,3,2
-125,-8,10,155,2,5,5,-21,19,-1
-183,-46,0,93,-9,-6,7,-15,33,6
-117,-43,9,-14,-27,-7,3,-8,27,32
-112,-16,20,-20,-18,7,4,0,24,-7
-22,17,10,0,38,31,26,28,47,-26
84,32,6,-20,38,4,24,46,64,0
31,34,0,-21,18,0,28,36,57,-6
45,35,0,-10,17,3,10,32,14,-20
85,38,13,9,21,-17,-4,33,-24,-9
43,16,3,-1,-18,-30,-9,27,-49,-1
27,-13,-9,-11,-31,-20,-3,30,-57,-5
42,-14,-15,-1,-18,39,-26,-4,-53,8
177,8,-24,-23,-25,28,-22,-54,-33,85
108,0,6,-17,-19,-22,-5,-72,-39,58
-97,-10,17,25,15,-4,19,-65,-25,-37
-93,-12,15,43,27,5,12,-44,8,-20
-35,-15,6,21,10,4,12,-18,39,40
20,2,13,21,20,34,32,-8,57,39
70,30,12,14,7,24,43,-17,54,71
66,-9,-8,13,-7,-5,26,-17,53,85
-7,-40,-21,29,10,-10,10,5,56,23
-9,-26,-9,41,37,-2,-6,33,54,-9
6,14,47,68,30,15,0,59,36,-72
-90,40,56,40,-11,13,-5,34,-4,-159
-328,3,2,-18,-44,-20,-37,-4,-42,-243
-455,-22,-27,-69,-26,-28,-33,-23,-59,-291
-228,11,-21,-91,-28,-35,-18,-28,-35,-177
76,41,-2,-72,-21,-32,-16,-4,15,53
164,18,-24,-72,61,44,20,35,62,151
102,-20,-69,-134,-59,50,53,64,80,103
35,-32,-29,-98,-212,-21,46,55,75,83
-37,-20,37,44,-61,-10,39,21,45,52
-97,-20,47,96,89,31,22,-4,18,25
-45,-12,36,68,63,25,38,14,28,43
12,10,28,43,35,22,43,46,28,67
121,29,31,40,54,41,35,7,14,60
376,42,29,21,41,27,21,-14,14,55
377,45,20,5,1,1,11,-17,31,72
141,29,-2,-19,-34,-20,22,-1,42,69
67,37,1,-7,-11,0,32,12,55,51
87,36,13,27,33,27,29,-9,41,-4
-38,2,0,37,30,2,-34,-35,2,-113
-174,-34,-29,11,13,-47,-83,-41,-38,-142
-200,-17,-29,1,2,-50,-87,-55,-41,-71
-252,-38,-39,-25,-8,-22,-62,-47,-58,-62
-253,-62,-53,-31,-28,-28,-61,-21,-57,-40
-88,-26,-11,5,-18,-54,-31,-9,-13,18
34,0,17,12,-25,-59,-3,-26,15,92
59,8,31,58,-7,-26,-10,-48,-7,75
165,6,23,89,90,41,2,-40,-28,51
146,-19,-10,25,126,139,69,21,27,82
-25,-29,-20,-23,123,154,99,55,67,52
-103,-24,-10,-32,63,58,66,43,37,-31
-55,14,3,11,-44,-64,21,25,7,-107
-49,14,0,-8,-99,-54,-10,21,3,-130
6,11,14,-87,-126,2,-27,33,-8,-91
79,35,14,-127,-179,-94,-26,22,-51,-98
-20,5,-7,-92,-150,-102,-8,10,-68,-71
-2,3,-15,-17,-29,-69,-15,3,-56,8
163,48,-16,18,26,-35,-36,-24,-57,121
318,60,-14,9,31,-32,-71,-62,-56,185
149,9,-10,20,28,-7,-71,-31,-55,88
-85,-35,-10,35,23,34,-48,-6,-46,-30
-131,-38,-8,24,2,33,-16,4,-30,-15
-73,-13,-11,0,7,30,13,13,8,37
-60,-20,-13,-9,16,37,22,13,-7,4
-43,-40,-9,2,31,33,21,9,-5,-10
-9,-25,2,14,45,15,14,22,15,23
7,-21,24,14,35,11,28,20,16,45
31,-20,28,15,37,25,19,18,5,61
89,-7,26,21,33,24,7,21,14,75
104,5,3,21,0,-4,-17,21,31,47
27,7,-17,1,-28,-29,0,21,26,-8
-73,-2,-18,0,-6,-12,-8,25,6,-59
-157,-14,-10,-18,8,-9,-26,33,-15,-93
-266,-32,-34,-54,-27,-16,-33,48,-18,-106
-259,-24,-41,-54,-41,-22,-20,28,-6,-93
-118,-4,-10,-43,-49,-30,-31,-13,-27,-80
172,29,5,40,-53,-46,-43,-57,-69,-34
331,39,11,85,-35,-37,-21,-47,-78,77
314,59,40,29,18,10,3,-18,-38,198
248,52,69,19,64,37,14,-33,-23,182
123,28,39,14,68,45,11,-40,-13,115
-28,-9,-3,-12,46,11,18,-10,9,31
-204,-47,-36,0,16,22,29,-13,-9,-90
-372,-75,-30,3,33,83,32,-29,-45,-207
-375,-52,-1,-12,19,16,-17,-53,-88,-292
-286,-47,-9,-16,-14,-53,-49,-58,-84,-272
-137,-31,-25,-12,-38,-36,-60,-26,-44,-160
64,7,-21,-21,-46,-25,-18,0,9,23
132,22,-5,-20,-26,-24,10,23,47,119
125,6,-19,-18,-5,-19,-1,31,25,91
212,20,-21,-22,4,-7,-5,9,1,79
222,9,-16,-9,21,-2,-8,3,-10,75
42,-24,-2,-4,13,0,-6,10,-7,56
-42,1,23,0,-4,-28,-7,13,7,4
12,43,30,-1,-26,-22,2,-5,-6,-35
94,27,18,-17,-48,-22,6,-25,-8,28
69,-8,4,7,-31,-5,11,-9,-2,102
-38,10,26,57,36,51,18,7,-4,53
-65,15,27,44,59,44,24,-1,3,13
-59,-6,4,-14,17,6,17,-9,5,0
-46,-12,-2,-66,-36,-25,7,3,20,-8
-40,-3,-8,-48,-21,-3,39,25,36,-8
11,20,0,36,46,34,58,23,42,0
24,34,5,54,23,3,9,8,27,5
-16,3,-12,17,2,-8,-6,16,28,21
-68,-11,-31,13,7,12,0,35,42,21
-39,-10,-31,14,9,14,-1,46,46,11
4,-15,-35,-4,-3,5,0,57,43,-3
-67,-19,-17,24,-3,15,10,71,32,-50
-61,-7,26,30,-13,18,5,40,4,-62
194,19,36,-3,-34,0,-3,-37,-6,31
201,23,20,-19,-1,2,0,-60,20,84
167,27,16,-31,3,-2,-1,-39,57,61
240,29,2,-3,-32,-35,-10,-46,79,135
168,11,-19,-34,8,8,-12,-44,57,159
39,15,-13,-61,80,60,10,-10,41,80
-172,2,-11,-34,41,4,39,24,10,-22
-291,-19,-1,-19,-25,-42,56,40,0,-115
-271,-14,7,16,-29,-18,31,34,3,-140
-158,0,7,50,-5,9,16,-2,-50,-198
-173,-14,-3,43,5,9,4,-35,-90,-324
-178,-30,-21,4,0,14,20,-42,-93,-274
-92,-13,-15,-17,0,12,33,-2,-39,-87
-9,-15,-10,-10,43,-5,38,27,18,81
75,13,8,41,91,1,4,24,58,136
73,19,10,54,60,18,-36,24,71,130
43,22,6,29,32,11,-35,30,56,85
83,59,29,14,16,-23,-18,33,18,45
166,56,36,15,29,-36,-28,36,14,49
-12,12,20,3,-27,-50,-19,37,47,23
-118,-23,-16,-73,-60,-63,19,21,67,11
18,-29,-28,-129,-128,-16,61,4,56,37
149,-27,-25,-123,-255,18,53,-5,39,61
172,3,2,-10,-89,67,51,4,32,79
159,38,36,65,124,81,46,24,28,96
144,54,30,61,118,36,10,6,10,107
101,45,21,44,48,0,-11,-15,-21,73
121,20,27,39,33,8,-12,-20,-35,5
210,43,34,22,3,-7,-43,-37,-50,-27
53,34,11,-3,-49,-43,-74,-55,-66,-70
-406,-37,-30,-11,-44,-31,-73,-46,-78,-190
-217,-39,-13,14,-2,-14,-50,-53,-70,-65
55,2,3,21,9,-8,-29,-45,-26,44
-51,-6,0,-10,7,-9,-10,-15,-2,-37
-264,-53,-8,-21,0,4,0,-4,-41,-105
-284,-57,-18,-37,-7,21,2,15,-23,-99
-111,-31,-18,48,10,22,20,13,29,-35
14,-22,-16,122,29,35,6,-1,7,12
39,-18,12,24,25,17,-8,-2,-25,-1
0,-17,28,-55,-26,-44,-18,-18,-25,-49
9,-23,18,-63,-50,-53,-1,6,0,-25
55,-4,-4,-29,30,48,21,15,-10,44
130,25,-11,-4,68,86,31,4,-4,102
152,28,-2,-5,0,-36,-12,-2,14,137
107,25,-3,-6,-33,-75,-17,0,36,147
98,10,4,7,-16,-28,-18,19,41,156
84,-6,-7,9,-3,10,-11,20,27,78
77,-7,-22,-9,0,19,-10,31,28,-13
29,-23,-23,-18,-13,8,6,84,49,-128
-117,-27,-13,-11,-22,4,11,72,18,-205
-250,-43,-15,-12,-12,-2,-18,-7,-58,-204
-275,-37,-3,5,22,6,-30,-71,-125,-148
-102,-16,6,17,34,23,5,-55,-88,21
-13,-16,-6,18,22,3,26,-9,-39,57
61,-8,-19,-17,-14,-15,9,-5,-27,64
76,-5,-19,-19,-13,-11,-14,3,6,85
23,8,-6,-5,-9,-5,-29,0,43,62
-17,13,38,47,23,27,-33,-31,9,0
13,25,77,81,51,68,30,-6,-2,-22
110,57,83,109,32,32,55,23,13,3
72,49,45,75,21,18,15,-16,-11,-11
-22,15,16,-25,8,57,-14,-40,-21,-9
12,-20,-51,-159,-29,-23,-45,-24,-16,6
22,-26,-60,-134,-32,-59,-66,-29,-10,18
-7,4,-13,-41,-6,-26,-69,-43,-4,5
22,51,10,-63,-69,-141,-63,-34,-4,13
61,44,15,-13,-75,-136,-47,-18,-11,5
31,8,10,69,-10,-4,-10,18,-5,0
19,-10,-11,8,19,32,15,30,12,16
-12,-32,-11,34,1,18,8,15,5,8
-33,-31,0,23,-31,5,2,-8,-18,21
44,-17,-3,0,-20,13,24,-1,2,77
17,-29,-16,-11,-8,19,39,12,13,60
-48,-33,-19,-16,-8,25,34,26,5,1
-89,-23,-7,-3,14,30,32,17,-11,-75
-110,9,3,15,40,37,22,-1,-34,-138
34,39,6,22,27,18,-18,-12,-46,-106
137,22,-7,0,-11,-21,-51,-13,-41,-28
44,-19,-23,-19,-41,-42,-53,-4,-29,-12
50,-29,-19,-19,-28,-38,-23,10,-19,2
31,-19,-23,-12,-6,-7,14,21,0,35
-40,-10,-17,-7,10,24,33,29,11,45
-32,-19,-20,-17,12,9,32,45,16,39
6,-9,-18,-7,6,25,45,49,26,44
27,7,4,30,38,46,37,12,9,22
27,6,10,44,50,20,21,-21,-12,-9
100,30,11,13,8,-13,30,-15,2,37
154,41,9,-11,-30,-11,45,13,34,120
98,18,7,8,-11,13,22,20,62,175
25,-14,9,32,31,2,-6,9,30,173
-44,-20,-14,7,24,-25,-21,11,2,105
-203,-32,-36,-18,5,-4,21,24,19,-32
-315,-27,-2,-7,2,10,-5,11,-1,-187
3,7,2,-18,-22,-18,-56,-53,-79,-234
-18,-16,-37,-31,-27,-36,-78,-80,-133,-269
-331,-66,-50,-27,-18,-27,-57,-14,-93,-253
-171,-32,-33,-32,-19,-12,-18,63,-12,-65
125,14,-13,-31,-27,-1,-2,42,27,118
-4,-8,2,-1,-12,8,9,11,59,68
-156,-22,17,27,23,15,17,-30,67,-41
-85,-24,27,39,57,17,0,-47,54,-34
58,5,39,46,55,25,16,-36,60,47
146,56,39,47,51,42,21,-24,29,98
158,67,43,60,46,38,26,-8,-28,89
159,66,39,47,39,27,10,-4,-56,49
127,35,34,32,6,9,4,-14,-63,49
0,2,-5,-12,-43,4,22,-26,-61,0
-40,15,0,-41,-83,-34,19,-27,-68,-44
65,15,21,-37,-59,-62,-12,-46,-72,-63
-2,-13,-15,-54,-20,-25,-20,-29,-54,-39
-26,-28,-25,-49,-8,5,-8,-16,-12,99
119,16,-18,-38,-25,-13,-3,-13,14,189
178,44,-6,30,-35,-31,-27,3,15,160
188,15,-28,111,-28,-34,-33,14,19,110
113,-5,-13,45,-11,-18,-14,4,18,11
-85,-5,38,4,14,-4,-35,-10,-23,-173
-220,-14,33,2,10,-7,-39,-28,-46,-311
-207,-18,-2,-6,21,5,-12,-30,-32,-268
-101,-21,-6,-15,40,29,-8,-23,-11,-115
-26,-13,-22,-19,27,8,-9,11,22,20
67,-10,-5,-22,-4,-10,7,38,39,118
91,-17,-3,-29,-3,1,35,35,38,98
-12,-19,-23,-6,24,15,53,66,30,36
-50,-8,-8,34,29,46,52,73,8,0
-34,-9,11,53,12,80,34,35,4,-9
-35,-1,19,43,5,19,27,26,14,0
-33,18,7,20,32,-24,-1,11,27,8
3,30,1,-21,29,-41,-21,2,75,43
-5,16,-9,-54,8,-43,-11,17,81,45
-34,-29,-33,-89,28,-32,9,26,60,31
11,-28,-52,-140,-96,-25,21,35,52,42
42,29,-15,-107,-218,-1,27,24,22,23
12,28,30,2,-71,39,11,-16,-15,-15
66,9,22,18,47,11,-21,-45,-42,-8
170,26,22,59,47,-3,-18,-37,-29,37
159,35,35,117,67,45,35,16,18,82
97,39,51,98,74,70,54,20,21,76
4,50,48,31,35,14,-12,-23,-14,8
-165,11,10,-22,6,-43,-59,-70,-56,-62
-278,-51,-11,12,1,-28,-38,-78,-68,-121
-141,-35,-1,2,-26,-35,-15,-45,-33,-43
4,-17,-1,-46,-38,-27,-3,2,-3,7
25,-8,-16,-29,7,25,23,40,23,14
13,2,-12,5,66,58,37,43,32,19
9,5,-10,14,28,4,0,22,6,-10
76,-5,-16,17,-37,-61,-36,-5,1,-26
38,-27,-16,-1,-25,-33,-17,9,32,7
-60,-23,-18,-1,7,27,-4,26,53,8
-75,-14,-29,0,10,55,12,34,57,19
-48,1,-14,-3,5,19,29,23,57,29
23,20,25,23,18,1,29,7,66,57
114,30,83,16,-14,-3,8,-4,55,140
162,49,50,-30,-59,-16,-3,-8,43,156
161,30,-30,-47,-31,11,19,9,32,71
8,-11,-50,-15,6,34,29,14,25,-41
-124,-34,-28,0,20,24,29,0,8,-146
-107,-31,-24,0,6,-23,-21,-48,-50,-173
-90,-29,-13,18,2,-30,-21,-67,-98,-254
-103,-44,-20,-16,3,-9,7,-29,-55,-152
-91,-34,-20,-39,-13,-6,37,17,25,114
-71,6,1,-13,-4,10,30,41,50,174
52,34,-6,4,3,25,12,35,44,105
186,50,-8,3,-13,21,-13,24,44,43
114,42,-11,7,-17,3,-35,11,25,-111
-91,10,-11,12,8,12,-5,4,9,-282
-196,-14,-5,41,50,27,24,-6,-10,-276
-129,-29,-5,40,54,27,33,-22,-12,-104
-28,-16,4,23,45,11,16,-16,20,54
43,-3,24,-9,-21,-13,20,-16,50,133
69,19,30,-12,-48,-28,21,-16,53,151
56,40,32,17,-4,3,14,-11,37,114
37,35,24,10,25,25,3,-2,31,65
56,23,16,-6,24,11,6,5,46,45
30,2,-3,3,16,34,63,43,59,39
0,-9,-3,9,33,102,84,36,33,8
-3,5,16,6,36,90,50,16,-9,-22
80,18,23,-14,16,-23,13,0,-19,33
92,18,2,-16,-25,-78,-23,-6,-14,105
-37,24,-8,5,-37,-79,-69,-15,-20,46
16,13,-17,-5,-50,-56,-83,-21,-11,17
3,-16,-28,-31,-55,-55,-47,-3,6,-19
63,-23,-21,-60,-47,-61,-48,-7,12,-59
10,-9,-12,-37,-6,-25,-44,-12,35,-48
-98,-10,-2,-17,8,11,-5,-8,23,-66
-78,-8,15,43,4,10,20,-5,21,-37
9,-5,12,113,24,12,10,-6,-9,30
66,2,28,54,19,2,-7,0,-44,58
16,-2,53,3,4,-32,-12,-5,-42,19
-38,-19,32,-9,1,-21,0,-24,-47,-6
-7,-22,-2,0,48,59,60,6,-8,31
52,8,8,31,81,73,102,56,31,73
81,38,30,35,60,-10,75,54,19,74
88,14,20,15,26,-16,12,16,9,59
58,4,3,-34,-30,39,0,-9,11,16
33,20,-11,-50,-92,20,13,-25,7,-9
-47,7,-4,-10,-60,-46,-21,-24,-4,-30
-174,-25,-11,8,-34,-56,-49,-36,-20,-87
-249,-31,-12,7,-66,-60,-63,-37,-42,-122
-169,-17,-13,-15,-86,-34,-39,-8,-23,-77
-6,-5,-20,-17,-77,5,19,28,13,-15
1,4,-5,27,-22,29,3,7,-29,-37
11,7,12,48,62,28,-1,17,-17,-26
23,-6,21,14,75,10,9,29,29,5
-23,-23,14,-13,45,25,22,6,52,11
-60,-26,-12,-29,35,20,17,-11,48,-6
-25,-18,-7,19,34,19,11,-16,17,6
36,-7,4,95,42,25,61,16,7,24
114,17,25,92,46,21,71,20,-1,38
150,25,19,44,6,46,28,0,-21,54
157,42,-18,-34,-49,10,-6,-10,-10,52
0,2,-29,-55,-14,5,-25,-6,-2,12
-123,-22,-29,7,78,76,-49,-14,-10,-13
0,17,-5,-14,71,-49,-56,3,3,101
155,58,7,-94,21,-130,-35,53,50,220
413,69,-6,-131,3,-113,0,54,60,211
539,69,-17,-184,-192,-93,-6,9,20,146
112,19,-9,-120,-261,-30,-10,-4,4,42
-297,-38,21,58,-25,50,-1,-6,-13,-163
-438,-55,13,134,137,82,12,-22,-63,-252
-670,-92,-6,80,77,47,7,-26,-81,-299
-648,-105,-26,30,0,17,-13,-29,-90,-373
-9,-40,-29,0,-8,-21,-16,-18,-79,-223
315,27,4,-4,0,-21,-1,-6,-28,12
291,30,10,4,11,5,31,-4,33,130
173,20,10,16,9,23,31,1,25,86
16,6,-5,16,29,23,7,-9,-4,44
-65,-2,-9,-2,46,-2,-20,-19,15,82
59,17,-29,-27,-20,-22,-31,-11,35,113
97,1,-34,-23,-30,-5,-14,3,39,58
-83,-14,-25,-1,16,9,-3,29,48,-31
-171,-6,0,-26,34,20,8,36,21,-78
-128,13,13,-55,22,35,1,35,-11,-82
37,33,27,-44,25,20,-10,13,-29,-25
178,27,40,0,24,6,-20,-22,-33,36
172,-13,14,151,-2,3,15,-16,-19,61
32,-35,-4,168,-23,2,45,30,-4,34
-20,-8,14,-14,-33,8,45,28,30,24
21,16,35,-60,-47,-27,-5,-9,33,70
68,17,18,-86,-24,-30,-17,-5,23,94
101,26,9,-57,9,7,0,-10,19,118
-12,4,16,7,13,7,-15,-14,7,65
-127,-34,0,19,-18,-43,-35,0,1,-20
-91,-35,-19,24,4,-3,-20,7,-8,-61
38,-10,-9,30,58,62,13,6,-28,-29
32,5,0,14,55,64,26,18,4,-45
-23,-3,-14,-5,28,30,22,23,14,-100
48,3,-18,15,43,10,-16,3,-6,-65
158,21,-14,21,54,-8,-54,-11,6,64
41,1,-16,-7,7,-39,-59,0,33,132
-116,-27,-15,-28,-84,-69,-63,5,2,100
-185,-32,-14,-39,-85,-64,-57,-27,-61,5
-229,-30,-6,-14,-20,4,-29,-16,-65,-62
-132,-30,9,2,19,36,-7,5,-58,-64
156,-12,39,-3,1,21,26,2,-46,-34
266,17,58,-13,-23,-5,2,-6,-32,-59
63,-3,42,-26,-27,-10,-31,-40,-57,-151
-102,-31,-8,-17,17,-4,-16,-44,-48,-160
-149,-19,-26,6,23,-26,-7,-30,-29,-72
-55,5,-19,-5,-9,-29,5,3,3,37
-18,7,-14,-2,-18,-1,32,30,12,79
-26,5,-4,8,-18,1,26,17,13,80
42,6,-2,0,-13,-24,-12,-3,8,102
43,10,1,3,-15,-19,-38,4,12,57
11,9,-12,11,-15,0,-15,6,10,0
50,-2,-7,-3,-19,-8,14,9,19,27
159,15,3,-15,-10,-6,37,29,29,130
205,28,11,-3,5,1,35,43,47,118
96,12,7,21,19,18,20,30,33,22
-67,-5,16,25,17,44,28,16,21,-36
-76,-5,24,0,5,19,19,21,11,-45
-43,14,34,12,-9,-20,7,3,7,-33
-46,20,33,46,13,0,17,-25,-27,-64
-60,-6,23,59,65,33,27,-43,-57,-105
-20,-25,3,30,54,23,12,-42,-45,-43
-26,-23,-15,-16,-2,-2,4,-33,-47,-1
-87,-4,-16,-42,-38,-16,-1,-5,-44,-54
-140,26,0,-17,-30,-14,-20,-15,-36,-99
-149,23,-1,7,11,20,-26,-26,-36,-84
-39,9,-14,14,37,66,-15,15,9,-10
107,18,-3,62,29,1,14,53,73,92
103,14,11,108,44,-41,21,44,109,179
-10,-15,6,39,48,-13,20,8,95,165
-3,-29,-4,-47,21,2,30,11,76,115
12,-49,-24,-110,-29,-20,-6,0,22,47
-8,-38,-19,-37,-76,-37,-34,-19,-31,-63
39,-12,-5,-29,-85,-37,-27,-44,-82,-193
62,25,7,-102,-134,-25,3,-44,-66,-235
-41,26,8,-104,-124,9,4,2,0,-152
-136,16,-2,-63,-43,45,18,16,53,-26
-98,23,15,20,39,39,9,-24,46,37
-26,4,9,94,104,41,2,-34,29,52
68,-12,4,87,103,40,15,-17,21,84
157,6,-5,40,45,-5,1,1,52,120
82,14,2,11,0,-24,7,57,111,88
20,36,14,0,-20,-32,-3,46,106,28
-38,23,-2,-17,-24,-28,-43,16,50,-13
-39,13,-3,-9,-12,-3,-44,-8,4,-17
76,23,-4,-22,-38,-15,-43,-34,-60,-4
258,30,-4,-38,-42,-28,-25,-28,-81,35
65,3,-14,-2,11,-9,22,8,-64,-2
-57,-30,-18,20,24,21,32,25,-46,-24
-17,-20,-2,28,26,28,17,6,-38,-1
-40,-7,10,47,60,58,10,2,-49,7
-64,-12,1,25,35,39,6,8,-44,19
-65,-15,2,-17,1,-3,36,9,-11,17
-88,-8,-4,-17,-13,-21,32,-7,-20,-13
-41,8,-8,-4,-4,-15,33,-39,-30,-36
61,19,-4,82,23,16,-2,-54,-25,-7
67,15,5,137,70,61,-13,-44,8,44
82,0,24,55,41,45,0,-4,32,66
133,-28,7,-37,-38,-30,-11,49,56,124
27,-27,-9,-45,-37,-47,0,82,70,91
-71,17,-2,4,35,-1,36,55,46,-4
-62,72,19,11,69,7,23,-9,-13,-62
21,90,17,-42,13,-37,-44,-69,-67,-44
58,-3,-38,-113,11,-60,-81,-86,-79,-57
7,-83,-102,-220,-123,-16,-80,-41,-29,-54
-112,-88,-64,-158,-173,72,-72,-3,16,12
81,-39,22,25,-17,-29,-29,18,33,34
201,-1,58,94,76,-97,7,24,12,-29
-64,-13,18,57,25,-58,36,36,20,-41
-225,-37,-23,21,15,36,53,46,18,-57
-249,-20,-29,24,29,82,50,20,-8,-124
-210,1,-8,21,10,41,23,-24,-39,-187
-133,4,-7,3,-30,-20,15,-23,-30,-172
-107,-20,-7,-15,-37,-28,-3,-21,-22,-99
-27,-16,2,-2,-14,-6,-26,-9,1,-20
168,23,15,26,22,1,-3,21,43,114
217,56,-2,17,23,4,16,47,58,176
155,56,11,3,8,13,-5,29,44,141
75,36,6,5,-4,0,-29,-2,20,86
0,3,-8,3,-7,10,-18,4,4,33
-43,-5,-3,1,13,16,-3,5,10,7
-107,-41,-8,3,20,10,11,2,17,-17
-138,-33,-4,2,1,10,35,26,2,-38
-109,-19,-8,-6,-5,0,33,22,-6,-21
-41,-10,5,-31,-6,-4,34,8,13,40
-21,-9,10,-12,1,28,29,13,32,58
79,-4,8,9,10,52,37,-4,47,88
197,19,27,35,35,52,31,-19,35,82
162,27,39,39,30,12,18,-52,-7,3
179,34,30,8,-8,-35,-39,-66,-55,30
285,43,15,-15,-36,-67,-54,-43,-38,68
23,8,13,8,-22,-23,-28,-2,-18,-45
-203,-24,-8,49,0,1,-6,8,-43,-189
-155,-31,-34,32,-13,-19,-7,14,-53,-171
5,23,-14,6,-9,-18,-11,25,-28,-25
55,34,16,12,40,28,-10,1,-34,29
12,7,16,0,33,28,-9,-45,-47,28
-58,-18,8,-38,-43,-37,-35,-66,-18,20
-72,-2,0,-32,-76,-41,-14,-28,15,4
-80,1,-5,-7,-19,8,18,16,61,19
-98,1,26,73,47,15,38,40,91,38
-81,5,39,82,57,13,41,56,66,19
-35,3,27,25,26,17,58,49,31,-15
41,-12,-2,-39,-8,-3,29,4,-18,-21
51,-28,-20,-73,-56,-32,5,-17,-6,-16
42,-32,-40,-12,-60,-46,0,-16,18,-2
25,-23,-32,-29,-7,-18,7,-6,-2,4
22,-8,-17,-41,54,41,12,14,2,45
94,8,-2,-15,127,142,34,22,18,89
118,38,0,-19,68,55,5,28,27,86
158,44,-11,-19,-39,-109,-20,28,21,61
211,46,-2,0,-56,-104,-32,23,2,27
10,27,-17,13,-28,-22,-27,23,-12,-41
-237,16,-19,-29,-61,21,27,14,7,-103
-225,20,4,-64,-128,6,63,8,33,-78
-141,8,13,-40,-104,-4,18,-3,6,-50
-111,-28,-19,-5,-34,14,-5,-10,-16,-17
-52,-34,-15,48,48,17,-18,-20,-21,16
34,-11,-1,56,72,9,-14,-33,-14,45
91,4,16,43,50,14,15,-41,-21,77
155,23,29,32,36,3,8,-34,-23,105
213,30,24,22,32,9,14,-28,10,130
220,7,-3,1,32,50,12,-4,29,114
49,-15,-19,-11,9,16,-4,10,34,7
-98,-3,-4,-20,-33,-52,-43,-2,17,-127
-98,2,19,-33,-64,-63,-75,-18,-29,-181
-167,-23,29,-38,-50,-58,-74,-42,-62,-215
-317,-40,4,-23,-19,-13,-47,-25,-56,-243
-313,-15,-18,5,4,6,-10,-5,-37,-187
-199,-25,-33,2,0,-4,11,9,-5,-72
-69,-43,-34,11,24,11,21,39,13,25
33,-18,-7,27,67,28,41,73,22,82
60,19,16,5,39,9,32,61,23,86
27,18,11,-36,-30,1,8,17,19,66
72,2,-1,-29,-37,9,5,-13,8,-4
162,0,-1,14,6,26,5,-30,-21,-19
416,40,24,4,45,5,-10,-68,-50,88
327,35,17,-29,23,-23,-25,-62,-41,164
-23,-13,-2,-34,1,4,20,0,0,106
-119,-46,-25,58,-5,45,58,31,24,26
-80,-27,-24,112,-17,45,39,19,33,9
-30,11,1,37,-14,17,11,13,20,6
25,38,20,-26,-18,0,-3,12,17,13
73,25,7,-40,-9,-25,-12,22,10,23
177,18,8,-26,12,-30,-40,10,6,61
101,12,6,-13,7,-33,-73,-14,-12,56
-69,-8,0,-19,-25,-43,-66,-21,-30,8
-189,-31,-14,-6,-26,-25,-43,-27,-35,-51
-182,-38,-22,4,19,14,-11,-6,-31,-49
-148,-16,-2,14,30,22,-20,7,-24,-54
-139,-12,8,1,-2,-21,-34,19,-21,-59
46,8,14,-27,-27,-45,-17,31,0,-41
226,12,12,-33,-14,-23,15,40,50,6
209,8,12,0,16,22,45,48,113,29
-2,-16,-2,28,35,50,77,55,108,-6
-276,-51,-15,34,33,50,65,48,30,-86
-330,-58,-12,36,22,28,26,28,-27,-51
-67,-10,-6,57,3,0,4,-2,-47,93
189,44,4,46,-12,-21,-27,-23,-46,98
317,57,3,14,-1,-36,-43,-29,-40,119
263,49,3,-9,5,-49,-60,-47,-63,129
73,16,12,-2,27,-36,-32,-34,-95,20
-174,-3,45,9,40,-15,0,-5,-103,-155
-187,-1,48,-48,54,-11,-35,-40,-124,-255
31,-21,-33,-164,-71,-12,-76,-74,-113,-181
-83,-45,-47,-158,-238,0,-68,-40,-51,-120
-160,-24,-2,2,-120,12,-55,-26,-22,-107
-89,-27,-5,69,54,31,-27,-19,-7,-22
-25,-33,-25,60,44,29,6,19,9,72
23,-12,-12,39,0,14,16,31,8,130
132,8,1,28,8,13,55,20,0,156
173,30,-1,23,17,17,64,22,12,150
85,26,11,19,29,17,22,16,27,148
0,8,7,33,37,18,11,19,25,77
-58,-3,4,38,24,39,23,48,43,-15
-51,6,5,3,-35,11,-6,24,17,-67
-3,-2,-29,-18,-25,-24,-41,-16,-34,-122
-12,-11,-12,-18,18,-25,-44,-42,-69,-179
32,-4,8,-33,8,-44,-37,-32,-81,-152
11,-18,-14,-48,-37,-46,-15,26,-33,-56
32,-22,-30,-41,-51,-45,-1,37,0,116
31,-20,-18,3,-44,-37,6,11,-1,165
7,-11,6,8,-20,-20,1,-16,-14,74
38,15,21,-28,3,1,-4,-33,-12,21
52,34,26,-35,15,49,-2,-39,-9,12
0,7,24,-27,25,110,1,-20,-10,-2
-94,-23,14,-1,41,85,16,-4,-28,-32
-150,-28,6,50,51,27,23,7,-26,-34
-70,0,13,56,9,-64,9,18,4,14
-1,0,-3,9,-32,-80,-3,37,49,28
19,-22,-9,3,-7,-28,28,63,82,12
48,-24,-10,-3,-4,-18,10,35,60,-6
24,4,-4,-13,14,7,-12,2,24,-19
65,22,-7,6,21,15,-7,-5,6,-13
14,19,-18,11,32,29,-6,-28,-19,-39
-112,-9,3,20,22,26,-20,-41,-37,-60
-85,1,37,48,5,-14,-37,-52,-36,-27
-9,18,11,14,-40,-44,-45,-38,-31,33
-45,-17,-47,-53,-128,-82,-33,4,4,69
-78,-35,-64,-77,-167,-75,-9,73,37,34
29,5,-17,-34,-109,-11,9,57,26,6
109,15,19,0,-25,27,30,4,3,-14
47,-13,9,13,36,49,46,-14,7,-18
-9,-10,-7,7,65,58,61,-1,41,15
30,28,2,2,46,51,54,0,41,36
29,32,6,35,45,40,23,-19,20,31
-89,5,11,39,83,30,8,-19,10,-12
-112,19,24,11,87,-2,-4,-24,-15,-14
-45,36,22,-18,19,-29,-29,-4,-22,13
29,31,25,2,-14,-25,-15,20,-4,76
233,29,31,94,-17,-16,-15,-8,-27,79
593,22,-10,64,-15,3,-48,-52,-64,115
480,-17,-28,-61,-23,-24,-73,-56,-95,127
-110,-56,-10,-58,-4,-80,-87,-58,-126,-80
-409,-61,-14,-33,-16,-72,-64,-64,-137,-238
-368,-38,-25,-17,0,-24,-39,-35,-95,-254
-186,-11,-15,5,28,10,-20,9,5,-143
-23,1,3,1,33,21,14,34,82,-25
104,20,7,0,33,30,28,32,116,117
128,12,18,-4,21,37,69,66,121,187
40,1,2,-2,34,45,73,84,85,170
-37,-15,9,6,52,43,34,40,13,99
-126,-25,4,18,41,39,14,-1,-22,-6
-264,-24,9,25,30,35,5,-14,-51,-124
-383,-38,1,18,11,19,0,-1,-57,-191
-266,-19,-18,2,5,3,1,13,-51,-160
210,42,-14,-3,-3,-26,-12,-20,-53,-37
453,48,-12,-27,-13,-33,-22,-41,-49,87
350,20,-31,-53,-50,-64,-32,-57,-56,79
144,9,-44,-53,-56,-80,-68,-67,-67,-51
-78,22,-14,-10,-13,-45,-60,-37,-48,-178
-55,-4,0,1,14,5,-17,-2,-33,-223
-49,-53,-9,8,18,43,22,12,-7,-39
-74,-32,11,26,-3,36,14,32,42,142
-10,13,28,30,4,3,-2,29,67,147
45,25,30,14,30,-9,19,15,79,86
-50,-10,24,-8,27,2,36,12,62,18
-50,-29,13,10,0,29,36,7,37,-6
13,-18,4,9,-7,26,39,5,26,13
-65,-25,-19,-9,-14,14,17,4,26,16
-118,-20,-23,4,-8,8,1,17,17,-17
-19,13,-7,4,15,-4,-3,14,9,0
70,38,-4,-12,13,-31,-24,8,17,56
84,29,-11,-21,-8,-25,-11,31,18,76
70,15,-16,-7,-10,-16,-7,33,24,59
34,11,-34,10,3,12,-8,3,24,47
44,23,-28,9,6,15,5,7,34,46
46,15,-8,49,1,-4,22,18,41,18
31,15,31,94,16,-4,29,0,7,-44
-18,-2,28,57,32,25,20,-9,-11,-57
-94,-31,-6,-29,19,49,23,2,-8,-54
-90,-17,-31,-107,-28,10,2,-7,-3,-24
-78,-3,-36,-97,-117,-64,-41,-46,-17,-11
-107,-12,-31,-71,-111,-50,-43,-34,-27,-60
-15,4,12,-17,20,21,7,-13,-14,-24
35,11,84,14,62,61,35,5,0,15
29,13,85,21,43,55,35,25,26,27
-30,12,9,44,5,7,22,32,29,34
-97,-10,-28,34,-62,-57,-8,18,10,29
-16,-5,-27,40,-24,-45,-38,3,-20,27
85,-4,-16,26,29,-22,-31,-9,-22,26
7,1,-4,7,21,-18,-20,2,-5,-11
98,-1,-12,-51,-24,0,-18,15,13,-14
214,-9,-18,-93,32,26,-2,36,41,56
69,-19,-28,-98,-9,27,19,49,67,86
-23,-4,-14,-99,-182,36,43,21,41,30
143,45,26,5,-94,20,8,-34,-6,3
127,34,15,65,76,19,8,-33,-23,-26
-110,24,9,59,83,-5,8,-8,-28,-99
-167,9,17,45,56,36,33,-13,-55,-138
-96,9,31,46,51,95,5,-19,-42,-120
-40,-3,35,33,1,-29,-11,-5,4,-16
-46,-24,27,40,-21,-107,5,33,26,54
-70,-30,10,30,-27,-90,-19,17,21,65
-54,-29,-14,20,-30,-53,-32,-11,20,43
15,-8,-19,10,12,-8,-39,-29,-3,32
156,9,-21,-28,78,52,-10,-22,-16,52
225,0,-28,-71,86,56,8,-14,-8,73
91,-20,-41,-70,31,-14,6,-20,-10,29
-29,28,3,36,17,-32,11,-30,-22,-12
-76,41,11,87,-12,-11,32,15,31,-14
-160,19,13,2,-52,14,46,53,50,-55
-164,38,39,-71,-87,0,50,22,11,-128
-71,46,20,-106,-127,-18,42,-9,-20,-118
109,8,-3,-56,-61,11,34,-42,-30,-14
104,-31,-12,120,62,40,5,-53,-15,45
-21,-54,-5,141,103,30,-9,-37,13,25
-62,-46,11,39,47,16,-21,10,33,19
-33,-15,25,12,2,-3,-40,4,37,73
59,24,20,-33,-4,-2,-37,8,40,110
150,52,29,-37,17,10,-10,6,32,106
83,32,2,-28,2,-5,8,16,39,95
-124,-16,-28,-45,-30,-31,19,43,29,24
-165,-20,-30,-34,-38,-35,-2,4,-21,-111
-6,-10,-41,-2,-7,-32,-32,-26,-36,-170
-54,-26,-25,18,39,-10,-15,2,-18,-156
41,-5,5,29,38,2,-12,0,-16,-86
139,16,16,23,14,16,3,-14,-36,-39
125,2,14,17,-8,5,-3,-41,-49,7
72,-11,-11,-16,-34,-19,-12,-20,-23,144
-117,-27,-22,-6,-9,18,19,42,23,110
-148,-1,4,8,3,34,35,51,42,5
-114,0,1,-8,20,10,35,19,20,-35
-90,-11,12,-2,36,17,25,-1,6,-37
2,-3,12,-15,21,13,0,-11,6,2
70,1,-7,-34,-4,-14,-18,-17,-8,61
168,35,-13,-24,3,-12,-38,-7,8,95
103,26,-8,-6,12,0,-36,-3,-4,45
-83,-8,-20,0,-10,-11,-34,3,-44,-45
-199,-24,-13,-12,-24,-35,-30,10,-43,-89
-173,-35,-25,-4,-15,-24,0,35,-8,-58
-61,-17,-24,24,14,6,20,54,18,11
8,0,3,38,20,-2,15,38,21,60
44,16,10,27,0,-9,-6,9,5,65
107,21,15,26,-4,-3,22,11,15,74
367,20,32,27,7,-5,16,-25,0,157
409,34,31,27,16,3,-12,-55,-30,115
201,0,20,19,16,9,4,-31,-39,-19
-16,-38,11,-7,-4,5,3,-27,-58,-76
-272,-57,-25,-37,-2,9,-9,-10,-54,-115
-376,-61,-42,-59,-13,-8,-18,-25,-64,-195
-259,-37,-11,-30,-20,-17,-12,-26,-49,-172
-43,-4,-4,1,-13,1,31,8,-1,-28
179,47,18,9,-8,0,20,24,16,103
268,63,22,-8,1,-10,-4,5,-3,87
122,36,-5,-18,-10,-12,-25,-17,-29,6
-45,-5,-9,-22,-14,-19,-38,-28,-20,2
-14,-13,1,-11,-12,-17,-30,-9,20,100
59,-5,12,23,0,4,6,15,55,142
98,11,12,40,24,29,31,44,87,130
59,4,-9,37,36,44,33,54,105,70
14,-8,-5,37,19,43,32,60,63,-46
-19,-7,10,34,3,11,8,31,10,-86
-201,8,30,38,6,-25,-27,-13,-39,-149
-253,10,47,28,35,-45,-46,-61,-88,-171
-38,-3,52,2,32,-38,-25,-51,-71,-73
128,-21,5,-70,-26,-23,14,-5,-5,35
63,-46,-27,-30,-72,-11,43,2,19,19
-97,-42,-31,3,-31,61,53,-12,-24,-88
-199,-21,-28,-55,47,171,34,-10,-57,-140
-222,-23,-35,-80,43,80,4,-3,-30,-67
-96,8,-33,-69,16,-39,-12,6,7,27
12,31,-23,28,-25,-60,-41,-1,0,54
43,34,21,158,-53,-78,-66,-18,-23,48
38,23,70,102,-56,-80,-67,-35,-51,-14
51,0,105,7,-43,-41,-58,-29,-36,-31
-23,-12,60,-7,-10,23,-27,3,1,8
-50,-5,-24,3,71,52,19,35,44,45
-3,7,-31,38,104,26,31,44,67,43
53,43,-1,64,63,8,16,19,52,9
196,59,5,32,15,2,3,-23,5,-34
483,1,-30,-57,-83,-72,-20,-89,-84,14
89,-77,-56,-83,-94,-72,-1,-67,-109,-9
81,128,43,0,-105,34,189,85,396,153
18,108,40,75,52,12,79,21,212,49
-9,56,11,64,63,-13,-29,-25,52,-32
-30,7,-14,31,15,-1,-61,-43,-5,-24
-83,-21,-21,17,33,39,-18,-13,-5,-20
-112,0,-5,11,46,7,-13,2,-21,-49
-85,4,0,-1,16,-30,4,5,10,-36
-42,-8,1,-6,4,4,23,18,48,-2
8,20,23,25,8,17,13,2,64,42
62,38,28,15,-9,11,9,-13,45,65
94,13,17,-20,-55,-4,22,-11,3,67
128,-7,9,-35,-61,7,42,25,0,118
115,-18,3,-42,-23,21,22,24,-5,159
63,-9,16,-31,10,5,1,-2,-13,163
-58,-14,12,7,51,12,6,-11,-9,59
-179,-35,-29,2,38,1,19,4,-14,-133
-186,-39,-61,-29,10,7,14,13,-37,-280
-119,-34,-57,-43,-23,-7,-3,12,-52,-317
-120,-33,-37,-38,-68,-47,6,59,-34,-236
25,-17,-23,-50,-75,-52,7,54,-5,-58
66,3,0,-14,21,17,19,18,-7,22
-41,23,12,21,79,56,27,-9,-5,31
-86,17,12,1,24,7,11,-7,10,37
-53,0,2,-13,-10,-8,10,20,11,37
-29,0,1,15,-10,-3,-22,-1,0,32
-53,-13,16,41,1,36,-38,-33,14,19
-26,-9,24,26,31,49,-10,-27,38,36
