(-0.0490722656, -0.7081299, 0.695739746, 0.109985352)
(-0.0482177734, -0.7078247, 0.6963501, 0.108703613)
(-0.0452880859, -0.714660645, 0.6901245, 0.104736328)
(-0.0446777344, -0.7149658, 0.690002441, 0.103210449)
(-0.0446777344, -0.7149658, 0.690002441, 0.103210449)
(-0.0446777344, -0.7149658, 0.690002441, 0.103210449)
(-0.0446777344, -0.7149658, 0.690002441, 0.103210449)
(-0.0446777344, -0.7149658, 0.6900635, 0.103210449)
(-0.0446777344, -0.71484375, 0.6901245, 0.103271484)
(-0.0446167, -0.7149658, 0.6900635, 0.103393555)
(-0.0452880859, -0.7147827, 0.6901245, 0.10333252)
(-0.0452880859, -0.7147827, 0.6901245, 0.10333252)
(-0.0457763672, -0.7147217, 0.6902466, 0.102905273)
(-0.0457763672, -0.7147217, 0.6902466, 0.102905273)
(-0.04626465, -0.71484375, 0.690185547, 0.102294922)
(-0.04626465, -0.71484375, 0.690185547, 0.102294922)
(-0.0468139648, -0.7149048, 0.690185547, 0.101745605)
(-0.0468139648, -0.7149048, 0.690185547, 0.101745605)
(-0.0475463867, -0.7156372, 0.68951416, 0.100646973)
(-0.0477294922, -0.7157593, 0.6894531, 0.100219727)
(-0.0477294922, -0.7157593, 0.6894531, 0.100219727)
(-0.0477294922, -0.716064453, 0.689209, 0.09991455)
(-0.0498046875, -0.7173462, 0.687561035, 0.100891113)
(-0.0498046875, -0.7173462, 0.687561035, 0.100891113)
(-0.0499267578, -0.7171631, 0.6876831, 0.101318359)
(-0.0499267578, -0.7171631, 0.6876831, 0.101318359)
(-0.0500488281, -0.716918945, 0.687744141, 0.102539063)
(-0.0500488281, -0.716918945, 0.687744141, 0.102539063)
(-0.0502319336, -0.716918945, 0.6876221, 0.103210449)
(-0.0503540039, -0.71698, 0.687438965, 0.1038208)
(-0.0503540039, -0.71698, 0.687438965, 0.1038208)
(-0.05041504, -0.716918945, 0.687438965, 0.104370117)
(-0.05041504, -0.716918945, 0.687438965, 0.104370117)
(-0.05029297, -0.7167969, 0.6875, 0.104980469)
(-0.0502319336, -0.71673584, 0.687438965, 0.105529785)
(-0.0502319336, -0.71673584, 0.687438965, 0.105529785)
(-0.05029297, -0.7168579, 0.6873169, 0.105895996)
(-0.0501709, -0.71661377, 0.687438965, 0.106384277)
(-0.0501709, -0.71661377, 0.687438965, 0.106384277)
(-0.0499267578, -0.71661377, 0.6875, 0.106445313)
(-0.04937744, -0.716552734, 0.687561035, 0.106506348)
(-0.04937744, -0.716552734, 0.687561035, 0.106506348)
(-0.0491943359, -0.71661377, 0.687561035, 0.106323242)
(-0.0489501953, -0.7166748, 0.6875, 0.1060791)
(-0.0489501953, -0.7166748, 0.6875, 0.1060791)
(-0.0487060547, -0.7166748, 0.687561035, 0.105895996)
(-0.0487060547, -0.7166748, 0.687561035, 0.105895996)
(-0.04852295, -0.7167969, 0.6875, 0.105651855)
(-0.04852295, -0.7167969, 0.6875, 0.105651855)
(-0.0484619141, -0.71673584, 0.687561035, 0.10546875)
(-0.0483398438, -0.7167969, 0.687561035, 0.10534668)
(-0.0483398438, -0.7167969, 0.687561035, 0.10534668)
(-0.0483398438, -0.7167969, 0.687561035, 0.10534668)
(-0.0483398438, -0.7167969, 0.687561035, 0.10534668)
(-0.04840088, -0.7167969, 0.687561035, 0.10534668)
(-0.04827881, -0.7167969, 0.687561035, 0.105224609)
(-0.04827881, -0.7167969, 0.687561035, 0.105224609)
(-0.048034668, -0.716918945, 0.6875, 0.105285645)
(-0.04699707, -0.7171631, 0.6870117, 0.106933594)
(-0.04699707, -0.7171631, 0.6870117, 0.106933594)
(-0.04699707, -0.7171631, 0.6870117, 0.106933594)
(-0.0469360352, -0.717041, 0.6871338, 0.107177734)
(-0.0468139648, -0.716918945, 0.6871948, 0.107421875)
(-0.0468139648, -0.716918945, 0.6871948, 0.107421875)
(-0.0468139648, -0.716918945, 0.6871948, 0.107421875)
(-0.0468139648, -0.716918945, 0.6871948, 0.107421875)
(-0.0468139648, -0.716918945, 0.6871948, 0.107421875)
(-0.0468139648, -0.716918945, 0.6871948, 0.107421875)
(-0.0468139648, -0.716918945, 0.6871948, 0.107421875)
(-0.0468139648, -0.716918945, 0.6871948, 0.107421875)
(-0.0468139648, -0.716918945, 0.687255859, 0.107421875)
(-0.0468139648, -0.71673584, 0.6873169, 0.107910156)
(-0.0468139648, -0.71673584, 0.6873169, 0.107910156)
(-0.0469360352, -0.71673584, 0.6873169, 0.108215332)
(-0.0473022461, -0.716552734, 0.6871948, 0.109558105)
(-0.0473022461, -0.716552734, 0.6871948, 0.109558105)
(-0.04736328, -0.7164917, 0.687255859, 0.109863281)
(-0.0474243164, -0.716430664, 0.687255859, 0.110229492)
(-0.0474243164, -0.716430664, 0.687255859, 0.110229492)
(-0.0474243164, -0.716430664, 0.687255859, 0.110229492)
(-0.0474243164, -0.7163696, 0.687255859, 0.110534668)
(-0.0474243164, -0.716247559, 0.6873169, 0.110961914)
(-0.0474243164, -0.716247559, 0.6873169, 0.110961914)
(-0.04748535, -0.716247559, 0.687255859, 0.111328125)
(-0.04748535, -0.716247559, 0.687255859, 0.111328125)
(-0.0475463867, -0.7161865, 0.687255859, 0.1116333)
(-0.0476074219, -0.716247559, 0.6871948, 0.111877441)
(-0.0466918945, -0.7156372, 0.6876221, 0.113220215)
(-0.0466918945, -0.7156372, 0.6876221, 0.113220215)
(-0.04650879, -0.7156372, 0.6876221, 0.11340332)
(-0.0465698242, -0.7157593, 0.687438965, 0.113647461)
(-0.0465698242, -0.7157593, 0.687438965, 0.113647461)
(-0.0468139648, -0.7157593, 0.6873779, 0.114135742)
(-0.0474243164, -0.7154541, 0.6873779, 0.11541748)
(-0.0474243164, -0.7154541, 0.6873779, 0.11541748)
(-0.0476074219, -0.715393066, 0.687438965, 0.115600586)
(-0.0476074219, -0.715393066, 0.687438965, 0.115600586)
(-0.0477905273, -0.715271, 0.6875, 0.115844727)
(-0.0477905273, -0.715271, 0.6875, 0.115844727)
(-0.0479736328, -0.7151489, 0.6876221, 0.115905762)
(-0.0479736328, -0.7151489, 0.6876221, 0.115905762)
(-0.0479736328, -0.7151489, 0.6876221, 0.115905762)
(-0.0479736328, -0.7151489, 0.6876221, 0.115905762)
(-0.0479736328, -0.7151489, 0.6876221, 0.115905762)
(-0.0479736328, -0.7150879, 0.6876221, 0.1159668)
(-0.0479736328, -0.7150879, 0.6876831, 0.1159668)
(-0.0479125977, -0.7150879, 0.6876221, 0.116027832)
(-0.0479125977, -0.7150879, 0.6876831, 0.116027832)
(-0.0477905273, -0.715209961, 0.687438965, 0.116455078)
(-0.0477905273, -0.715209961, 0.687438965, 0.116455078)
(-0.0477905273, -0.7150879, 0.687561035, 0.116638184)
(-0.0477905273, -0.7150879, 0.687561035, 0.116638184)
(-0.0477905273, -0.7150879, 0.687561035, 0.116638184)
(-0.0477905273, -0.7150879, 0.687561035, 0.116638184)
(-0.0477905273, -0.7150879, 0.687561035, 0.116638184)
(-0.0478515625, -0.715209961, 0.687438965, 0.116638184)
(-0.0478515625, -0.715209961, 0.687438965, 0.116638184)
(-0.0478515625, -0.715209961, 0.687438965, 0.116638184)
(-0.0478515625, -0.715209961, 0.687438965, 0.116638184)
(-0.0478515625, -0.715209961, 0.687438965, 0.116638184)
(-0.0478515625, -0.715209961, 0.687438965, 0.116638184)
(-0.0479736328, -0.715332031, 0.6873169, 0.116516113)
(-0.0479736328, -0.715332031, 0.6873169, 0.116516113)
(-0.0479736328, -0.715332031, 0.6873169, 0.116516113)
(-0.0479736328, -0.715332031, 0.6873169, 0.116516113)
(-0.0479736328, -0.715332031, 0.6873169, 0.116516113)
(-0.0479736328, -0.715332031, 0.6873169, 0.116516113)
(-0.0479736328, -0.715332031, 0.6873169, 0.116516113)
(-0.0479736328, -0.715271, 0.6873779, 0.116516113)
(-0.0479736328, -0.715271, 0.6873779, 0.116516113)
(-0.0479736328, -0.715271, 0.6873779, 0.116516113)
(-0.0479736328, -0.715271, 0.6873779, 0.116577148)
(-0.0479736328, -0.715271, 0.6873779, 0.116577148)
(-0.0479736328, -0.715271, 0.6873779, 0.116577148)
(-0.0479736328, -0.715271, 0.6873779, 0.116577148)
(-0.0479736328, -0.715271, 0.6873779, 0.116577148)
(-0.0479125977, -0.715271, 0.6873779, 0.116577148)
(-0.0479125977, -0.715271, 0.6873779, 0.116577148)
(-0.0479125977, -0.715271, 0.6873779, 0.116577148)
(-0.0479125977, -0.715271, 0.6873779, 0.116577148)
(-0.0479125977, -0.715271, 0.6873779, 0.116577148)
(-0.0478515625, -0.7154541, 0.6871338, 0.116821289)
(-0.048034668, -0.715515137, 0.687072754, 0.116943359)
(-0.04815674, -0.7156372, 0.686889648, 0.117004395)
(-0.04827881, -0.7157593, 0.6867676, 0.116943359)
(-0.04827881, -0.7157593, 0.6867676, 0.116943359)
(-0.04840088, -0.715881348, 0.6866455, 0.116943359)
(-0.04840088, -0.715881348, 0.6866455, 0.116943359)
(-0.04840088, -0.715881348, 0.6866455, 0.116943359)
(-0.04840088, -0.715881348, 0.6866455, 0.116943359)
(-0.04840088, -0.7158203, 0.686706543, 0.116943359)
(-0.04840088, -0.715881348, 0.6866455, 0.116943359)
(-0.04840088, -0.715881348, 0.6866455, 0.116943359)
(-0.04840088, -0.715881348, 0.6866455, 0.116943359)
(-0.04840088, -0.715881348, 0.6866455, 0.116943359)
(-0.0483398438, -0.715881348, 0.6866455, 0.117004395)
(-0.0483398438, -0.715881348, 0.6866455, 0.117004395)
(-0.0483398438, -0.715881348, 0.6866455, 0.117004395)
(-0.0483398438, -0.715881348, 0.6866455, 0.117004395)
(-0.0483398438, -0.715881348, 0.6866455, 0.117004395)
(-0.0483398438, -0.715881348, 0.6866455, 0.117004395)
(-0.0483398438, -0.715881348, 0.6866455, 0.117004395)
(-0.0483398438, -0.715881348, 0.6866455, 0.117004395)
(-0.0483398438, -0.715881348, 0.6866455, 0.117004395)
(-0.0483398438, -0.715881348, 0.6866455, 0.117004395)
(-0.0483398438, -0.715881348, 0.6866455, 0.117004395)
(-0.04840088, -0.7163086, 0.686218262, 0.116699219)
(-0.04840088, -0.7163086, 0.686218262, 0.116699219)
(-0.0483398438, -0.7163086, 0.686218262, 0.116699219)
(-0.0483398438, -0.7163086, 0.686218262, 0.116699219)
(-0.04827881, -0.7164917, 0.686035156, 0.116699219)
(-0.04827881, -0.7164917, 0.686035156, 0.116699219)
(-0.04827881, -0.7164917, 0.686035156, 0.116699219)
(-0.04827881, -0.7164917, 0.686035156, 0.116699219)
(-0.04827881, -0.7164917, 0.686035156, 0.116760254)
(-0.04827881, -0.7164917, 0.686035156, 0.116760254)
(-0.04827881, -0.7164917, 0.686035156, 0.116760254)
(-0.04827881, -0.7164917, 0.686035156, 0.116760254)
(-0.04827881, -0.7164917, 0.686035156, 0.116760254)
(-0.0482177734, -0.7164917, 0.686035156, 0.116760254)
(-0.0482177734, -0.7164917, 0.686035156, 0.116760254)
(-0.0482177734, -0.7164917, 0.686035156, 0.116760254)
(-0.0482177734, -0.7164917, 0.686035156, 0.116760254)
(-0.0482177734, -0.7164917, 0.686035156, 0.116760254)
(-0.0482177734, -0.7164917, 0.686035156, 0.116760254)
(-0.0482177734, -0.7164917, 0.686035156, 0.116760254)
(-0.0482177734, -0.7164917, 0.686035156, 0.116760254)
(-0.0482177734, -0.7164917, 0.686035156, 0.116760254)
(-0.0482177734, -0.7164917, 0.686035156, 0.116760254)
(-0.0482177734, -0.7164917, 0.686035156, 0.116760254)
(-0.0482177734, -0.7164917, 0.686035156, 0.116760254)
(-0.0482177734, -0.7164917, 0.686035156, 0.116760254)
(-0.0482177734, -0.7164917, 0.686035156, 0.116760254)
(-0.0482177734, -0.7164917, 0.686035156, 0.116821289)
(-0.0482177734, -0.7164917, 0.686035156, 0.116821289)
(-0.0482177734, -0.7164917, 0.686035156, 0.116821289)
(-0.0482177734, -0.7164917, 0.686035156, 0.116821289)
(-0.0482177734, -0.7164917, 0.686035156, 0.116821289)
(-0.0482177734, -0.7164917, 0.686035156, 0.116821289)
(-0.04815674, -0.7164917, 0.686035156, 0.116821289)
(-0.04815674, -0.7164917, 0.686035156, 0.116821289)
(-0.04815674, -0.7164917, 0.686035156, 0.116821289)
(-0.04815674, -0.7164917, 0.686035156, 0.116821289)
(-0.048034668, -0.716430664, 0.686035156, 0.1171875)
(-0.048034668, -0.716430664, 0.686035156, 0.1171875)
(-0.048034668, -0.716430664, 0.686035156, 0.1171875)
(-0.048034668, -0.7163696, 0.686035156, 0.117736816)
(-0.048034668, -0.7163696, 0.686035156, 0.117736816)
(-0.0480957031, -0.7161255, 0.686218262, 0.118041992)
(-0.0480957031, -0.7161255, 0.686218262, 0.118041992)
(-0.0480957031, -0.7161255, 0.686218262, 0.118041992)
(-0.0480957031, -0.7161255, 0.686218262, 0.118041992)
(-0.0480957031, -0.7161255, 0.686218262, 0.118041992)
(-0.0480957031, -0.7161255, 0.686218262, 0.118041992)
(-0.0480957031, -0.7161255, 0.686218262, 0.118041992)
(-0.0480957031, -0.7161255, 0.686218262, 0.118041992)
(-0.048034668, -0.7161255, 0.686218262, 0.118103027)
(-0.048034668, -0.7161255, 0.686218262, 0.118103027)
(-0.048034668, -0.7161255, 0.686218262, 0.118103027)
(-0.048034668, -0.7161255, 0.686218262, 0.118103027)
(-0.048034668, -0.7161255, 0.686218262, 0.118103027)
(-0.048034668, -0.7161255, 0.686218262, 0.118103027)
(-0.048034668, -0.7161255, 0.686218262, 0.118103027)
(-0.0479125977, -0.7159424, 0.686401367, 0.1182251)
(-0.0479125977, -0.7159424, 0.686401367, 0.1182251)
(-0.0479125977, -0.7159424, 0.686401367, 0.1182251)
(-0.0479125977, -0.7159424, 0.686401367, 0.1182251)
(-0.0479125977, -0.7159424, 0.686401367, 0.1182251)
(-0.0479125977, -0.7159424, 0.686401367, 0.1182251)
(-0.0479125977, -0.7159424, 0.686401367, 0.1182251)
(-0.0479125977, -0.7158203, 0.686523438, 0.1182251)
(-0.0479125977, -0.7158203, 0.686523438, 0.1182251)
(-0.0479125977, -0.7158203, 0.686523438, 0.1182251)
(-0.0479125977, -0.7158203, 0.686523438, 0.1182251)
(-0.0479125977, -0.7158203, 0.686523438, 0.1182251)
